i,aVR,ii,aVF,iii,aVL,V1,V2,V3,V4,V5,V6
-0.06832,0.0732,-0.07808,-0.04392,-0.00976,-0.02928,0.01952,-0.03904,-0.08296,-0.12688,-0.11712,-0.08296
-0.08296,0.08296,-0.08296,-0.04148,0,-0.04148,0.02928,-0.03904,-0.08296,-0.12688,-0.11712,-0.08296
-0.08296,0.08784,-0.09272,-0.05124,-0.00976,-0.0366,0.03416,-0.03904,-0.07808,-0.12688,-0.11712,-0.08296
-0.07808,0.0854,-0.09272,-0.05368,-0.01464,-0.03172,0.03416,-0.03904,-0.07808,-0.12688,-0.11712,-0.08296
-0.06344,0.08052,-0.0976,-0.06588,-0.03416,-0.01464,0.03416,-0.04392,-0.08296,-0.13176,-0.122,-0.08784
-0.06832,0.0854,-0.10248,-0.06832,-0.03416,-0.01708,0.0244,-0.0488,-0.08296,-0.13176,-0.12688,-0.08784
-0.06832,0.0854,-0.10248,-0.06832,-0.03416,-0.01708,0.01464,-0.0488,-0.08296,-0.13176,-0.13176,-0.08784
-0.06832,0.07564,-0.08296,-0.0488,-0.01464,-0.02684,0.01464,-0.04392,-0.08296,-0.13176,-0.13176,-0.08784
-0.06832,0.06588,-0.06344,-0.02928,0.00488,-0.0366,0.01464,-0.04392,-0.08784,-0.13664,-0.13176,-0.08784
-0.05856,0.06344,-0.06832,-0.03904,-0.00976,-0.0244,0.01464,-0.04392,-0.08784,-0.13664,-0.13176,-0.09272
-0.0488,0.05856,-0.06832,-0.04392,-0.01952,-0.01464,0.01952,-0.04392,-0.08784,-0.13176,-0.13664,-0.09272
-0.06832,0.07808,-0.08784,-0.05368,-0.01952,-0.0244,0.03416,-0.04392,-0.08784,-0.13176,-0.13664,-0.09272
-0.11224,0.10736,-0.10248,-0.04636,0.00976,-0.061,0.0732,-0.01952,-0.0732,-0.13176,-0.14152,-0.10736
-0.13664,0.11956,-0.10248,-0.03416,0.03416,-0.0854,0.11712,0,-0.05856,-0.12688,-0.15616,-0.12688
-0.14152,0.122,-0.10248,-0.03172,0.03904,-0.09028,0.14152,0.02928,-0.05368,-0.122,-0.16104,-0.13664
-0.08784,0.07808,-0.06832,-0.0244,0.01952,-0.05368,0.15128,0.07808,0.00488,-0.0732,-0.10248,-0.09272
-0.03416,0.02684,-0.01952,-0.00244,0.01464,-0.0244,0.1708,0.18544,0.1464,0.05368,0.01952,-0.00488
0.01952,-0.01952,0.01952,0.00976,0,0.00976,0.20496,0.3904,0.39528,0.25864,0.20496,0.13176
0.10736,-0.10004,0.09272,0.03904,-0.01464,0.061,0.19032,0.54168,0.63928,0.49776,0.4392,0.3172
0.2684,-0.2318,0.1952,0.061,-0.0732,0.1708,0.05368,0.60512,0.82472,0.71736,0.69784,0.53192
0.45872,-0.40504,0.35136,0.122,-0.10736,0.28304,-0.19032,0.54168,0.91744,0.93208,0.98576,0.7808
0.62464,-0.54412,0.4636,0.15128,-0.16104,0.39284,-0.46848,0.40504,0.94672,1.06872,1.22488,0.976
0.77104,-0.671,0.57096,0.18544,-0.20008,0.48556,-0.74176,0.2684,0.92232,1.08824,1.30784,1.11264
0.76616,-0.68076,0.59536,0.21228,-0.1708,0.46848,-0.9272,-0.08296,0.57584,0.854,1.11752,1.0248
0.63928,-0.59292,0.54656,0.22692,-0.09272,0.366,-1.00528,-0.44896,0.10248,0.46848,0.76128,0.7808
0.4392,-0.40992,0.38064,0.16104,-0.05856,0.24888,-0.94672,-0.73688,-0.4148,-0.00976,0.28304,0.44408
0.1952,-0.17324,0.15128,0.05368,-0.04392,0.11956,-0.77592,-0.9272,-0.83936,-0.47336,-0.1708,0.10248
0.09272,-0.05368,0.01464,-0.03172,-0.07808,0.0854,-0.54656,-0.77592,-0.7808,-0.52704,-0.27328,-0.02928
0.0732,0.00488,-0.08296,-0.11956,-0.15616,0.11468,-0.32696,-0.4636,-0.5368,-0.45384,-0.27328,-0.08784
0.05368,0,-0.05368,-0.08052,-0.10736,0.08052,-0.19032,-0.24888,-0.33672,-0.32696,-0.20984,-0.08784
0.02928,0,-0.02928,-0.04392,-0.05856,0.04392,-0.0976,-0.10248,-0.20496,-0.22936,-0.15616,-0.0732
0,0.02196,-0.04392,-0.04392,-0.04392,0.02196,-0.01464,-0.01464,-0.11224,-0.15616,-0.11712,-0.06344
-0.04392,0.0488,-0.05368,-0.03172,-0.00976,-0.01708,0.01952,-0.02928,-0.10248,-0.13176,-0.11224,-0.0732
-0.0488,0.05856,-0.06832,-0.04392,-0.01952,-0.01464,0.0244,-0.03416,-0.0976,-0.13664,-0.11712,-0.08296
-0.05368,0.061,-0.06832,-0.04148,-0.01464,-0.01952,0.0244,-0.03904,-0.09272,-0.13664,-0.122,-0.09272
-0.0732,0.07076,-0.06832,-0.03172,0.00488,-0.03904,0.03904,-0.04392,-0.07808,-0.12688,-0.122,-0.09272
-0.0732,0.07076,-0.06832,-0.03172,0.00488,-0.03904,0.04392,-0.05368,-0.08784,-0.13664,-0.12688,-0.09272
-0.06344,0.06832,-0.0732,-0.04148,-0.00976,-0.02684,0.04392,-0.0488,-0.08784,-0.14152,-0.13176,-0.0976
-0.06344,0.06832,-0.0732,-0.04148,-0.00976,-0.02684,0.04392,-0.0244,-0.08296,-0.14152,-0.13176,-0.0976
-0.06344,0.06832,-0.0732,-0.04148,-0.00976,-0.02684,0.04392,-0.0244,-0.07808,-0.13176,-0.13176,-0.0976
-0.06344,0.06832,-0.0732,-0.04148,-0.00976,-0.02684,0.04392,-0.0244,-0.0732,-0.122,-0.122,-0.0976
-0.0732,0.0732,-0.0732,-0.0366,0,-0.0366,0.04392,-0.0244,-0.0732,-0.122,-0.122,-0.0976
-0.09272,0.08296,-0.0732,-0.02684,0.01952,-0.05612,0.04392,-0.01952,-0.0732,-0.122,-0.12688,-0.0976
-0.07808,0.0732,-0.06832,-0.02928,0.00976,-0.04392,0.04392,-0.01952,-0.06832,-0.122,-0.12688,-0.09272
-0.06344,0.06344,-0.06344,-0.03172,0,-0.03172,0.0488,-0.01952,-0.06832,-0.11224,-0.11712,-0.08784
-0.06344,0.06344,-0.06344,-0.03172,0,-0.03172,0.04392,-0.01952,-0.0732,-0.11712,-0.11712,-0.08296
-0.0732,0.07076,-0.06832,-0.03172,0.00488,-0.03904,0.03904,-0.01464,-0.07808,-0.122,-0.11712,-0.08296
-0.07808,0.07564,-0.0732,-0.03416,0.00488,-0.04148,0.03904,-0.01952,-0.07808,-0.122,-0.11712,-0.08296
-0.07808,0.07564,-0.0732,-0.03416,0.00488,-0.04148,0.03904,-0.0244,-0.06832,-0.11712,-0.11224,-0.07808
-0.0732,0.07076,-0.06832,-0.03172,0.00488,-0.03904,0.03904,-0.0244,-0.06832,-0.11712,-0.11712,-0.07808
-0.06832,0.06832,-0.06832,-0.03416,0,-0.03416,0.03904,-0.01952,-0.06832,-0.11224,-0.122,-0.0732
-0.05856,0.05856,-0.05856,-0.02928,0,-0.02928,0.03904,-0.01952,-0.06344,-0.11224,-0.122,-0.0732
-0.05856,0.05856,-0.05856,-0.02928,0,-0.02928,0.03904,-0.01952,-0.06344,-0.11712,-0.122,-0.0732
-0.04392,0.04636,-0.0488,-0.02684,-0.00488,-0.01952,0.03904,-0.01952,-0.06344,-0.11712,-0.11712,-0.07808
-0.0488,0.04392,-0.03904,-0.01464,0.00976,-0.02928,0.03904,-0.01464,-0.06344,-0.11224,-0.10736,-0.07808
-0.05368,0.04636,-0.03904,-0.0122,0.01464,-0.03416,0.03416,-0.01464,-0.06344,-0.11224,-0.10736,-0.07808
-0.05368,0.04636,-0.03904,-0.0122,0.01464,-0.03416,0.02928,-0.01464,-0.06344,-0.11712,-0.10736,-0.07808
-0.05368,0.04636,-0.03904,-0.0122,0.01464,-0.03416,0.02928,-0.0244,-0.06344,-0.122,-0.10736,-0.0732
-0.05856,0.05368,-0.0488,-0.01952,0.00976,-0.03416,0.02928,-0.0244,-0.05856,-0.122,-0.10248,-0.06832
-0.05856,0.05368,-0.0488,-0.01952,0.00976,-0.03416,0.02928,-0.01464,-0.05368,-0.11224,-0.10248,-0.06832
-0.05856,0.05368,-0.0488,-0.01952,0.00976,-0.03416,0.02928,-0.00976,-0.04392,-0.11224,-0.10248,-0.06832
-0.06344,0.05612,-0.0488,-0.01708,0.01464,-0.03904,0.0244,0,-0.03904,-0.10248,-0.0976,-0.06832
-0.05856,0.0488,-0.03904,-0.00976,0.01952,-0.03904,0.0244,0.00488,-0.03904,-0.08784,-0.0976,-0.06344
-0.05856,0.0488,-0.03904,-0.00976,0.01952,-0.03904,0.0244,0.00488,-0.03416,-0.08784,-0.0976,-0.05856
-0.05368,0.04636,-0.03904,-0.0122,0.01464,-0.03416,0.0244,0.00488,-0.03416,-0.09272,-0.09272,-0.05368
-0.0488,0.03904,-0.02928,-0.00488,0.01952,-0.03416,0.0244,0.01464,-0.0244,-0.08784,-0.08784,-0.04392
-0.04392,0.03416,-0.0244,-0.00244,0.01952,-0.03172,0.01952,0.01464,-0.0244,-0.08784,-0.08784,-0.04392
-0.02928,0.01708,-0.00488,0.00976,0.0244,-0.02684,0.01952,0.01464,-0.01952,-0.07808,-0.08296,-0.03904
-0.01464,0.00732,0,0.00732,0.01464,-0.01464,0.01952,0.01952,-0.0244,-0.0732,-0.0732,-0.03416
-0.01464,0,0.01464,0.02196,0.02928,-0.02196,0.01464,0.0244,-0.00976,-0.06344,-0.06832,-0.02928
-0.00976,-0.00732,0.0244,0.02928,0.03416,-0.02196,0.01464,0.03416,0,-0.05368,-0.05368,-0.01464
-0.01952,-0.00244,0.0244,0.03416,0.04392,-0.03172,0.00976,0.03416,0.00488,-0.04392,-0.04392,-0.00488
-0.0244,-0.00488,0.03416,0.04636,0.05856,-0.04148,0.00976,0.04392,0.01464,-0.02928,-0.02928,0.00488
-0.03904,-0.00488,0.0488,0.06832,0.08784,-0.06344,0.00488,0.05368,0.04392,-0.00976,-0.00976,0.02928
-0.03416,-0.02196,0.07808,0.09516,0.11224,-0.0732,-0.00488,0.05856,0.05856,0.00976,0.00976,0.04392
-0.01464,-0.04148,0.0976,0.10492,0.11224,-0.06344,-0.01464,0.0732,0.08296,0.0244,0.0244,0.05856
0.01464,-0.06588,0.11712,0.1098,0.10248,-0.04392,-0.0244,0.07808,0.09272,0.0488,0.05368,0.06832
0.03416,-0.0854,0.13664,0.11956,0.10248,-0.03416,-0.03904,0.08784,0.0976,0.0732,0.0732,0.08784
0.04392,-0.10492,0.16592,0.14396,0.122,-0.03904,-0.05368,0.0976,0.122,0.09272,0.0976,0.122
0.0488,-0.11712,0.18544,0.16104,0.13664,-0.04392,-0.05856,0.10248,0.13176,0.11224,0.122,0.1464
0.05856,-0.12932,0.20008,0.1708,0.14152,-0.04148,-0.06832,0.10248,0.14152,0.12688,0.13664,0.1708
0.05368,-0.13176,0.20984,0.183,0.15616,-0.05124,-0.06832,0.10248,0.1464,0.13176,0.14152,0.17568
0.0488,-0.13176,0.21472,0.19032,0.16592,-0.05856,-0.07808,0.10248,0.1464,0.14152,0.16592,0.19032
0.0488,-0.13664,0.22448,0.20008,0.17568,-0.06344,-0.08784,0.0976,0.15128,0.1464,0.16592,0.1952
0.06344,-0.14884,0.23424,0.20252,0.1708,-0.05368,-0.08784,0.09272,0.15128,0.15128,0.17568,0.20496
0.08296,-0.1586,0.23424,0.19276,0.15128,-0.03416,-0.08784,0.08784,0.15128,0.15128,0.17568,0.20496
0.0976,-0.17324,0.24888,0.20008,0.15128,-0.02684,-0.08784,0.08296,0.1464,0.1464,0.17568,0.20496
0.07808,-0.1586,0.23912,0.20008,0.16104,-0.04148,-0.08784,0.08296,0.1464,0.13664,0.16592,0.20984
0.06344,-0.14152,0.2196,0.18788,0.15616,-0.04636,-0.08784,0.08296,0.1464,0.13176,0.16104,0.20496
0.06344,-0.13176,0.20008,0.16836,0.13664,-0.0366,-0.07808,0.08296,0.13664,0.122,0.14152,0.18056
0.05856,-0.11956,0.18056,0.15128,0.122,-0.03172,-0.06832,0.0732,0.122,0.0976,0.11224,0.16104
0.03904,-0.09516,0.15128,0.13176,0.11224,-0.0366,-0.05856,0.06832,0.10248,0.08296,0.0976,0.13664
0.0244,-0.08052,0.13664,0.12444,0.11224,-0.04392,-0.0488,0.05368,0.08784,0.06344,0.07808,0.11712
0.0244,-0.06588,0.10736,0.09516,0.08296,-0.02928,-0.03904,0.04392,0.06832,0.03904,0.0488,0.08784
0.01464,-0.05124,0.08784,0.08052,0.0732,-0.02928,-0.0244,0.04392,0.05856,0.01952,0.0244,0.06344
0,-0.02928,0.05856,0.05856,0.05856,-0.02928,-0.00976,0.02928,0.03904,0.00488,0.00976,0.0488
0,-0.0244,0.0488,0.0488,0.0488,-0.0244,0.00488,0.0244,0.01952,-0.01464,0,0.03416
0.00976,-0.01952,0.02928,0.0244,0.01952,-0.00488,0.00488,0.01464,0.00976,-0.02928,-0.02928,0.01464
0.00488,-0.00976,0.01464,0.0122,0.00976,-0.00244,0.00488,0.00976,-0.00488,-0.0488,-0.04392,0
-0.00976,0.00244,0.00488,0.00976,0.01464,-0.0122,0.00976,0.00976,-0.01952,-0.06344,-0.05368,-0.01464
-0.0244,0.01464,-0.00488,0.00732,0.01952,-0.02196,0.00976,0,-0.0244,-0.05856,-0.05856,-0.0244
-0.04392,0.0244,-0.00488,0.01708,0.03904,-0.04148,0.01952,-0.00488,-0.0244,-0.06344,-0.06344,-0.03416
-0.04392,0.0244,-0.00488,0.01708,0.03904,-0.04148,0.01952,-0.00976,-0.0244,-0.06832,-0.0732,-0.03416
-0.04392,0.02684,-0.00976,0.0122,0.03416,-0.03904,0.01952,-0.00976,-0.02928,-0.0732,-0.07808,-0.0488
-0.0488,0.03416,-0.01952,0.00488,0.02928,-0.03904,0.01464,-0.00976,-0.03416,-0.0732,-0.08296,-0.05368
-0.03904,0.03416,-0.02928,-0.00976,0.00976,-0.0244,0.01464,-0.01464,-0.04392,-0.08296,-0.08784,-0.05368
-0.02928,0.03172,-0.03416,-0.01952,-0.00488,-0.0122,0.01952,-0.01952,-0.05368,-0.08784,-0.08784,-0.05368
-0.02928,0.02928,-0.02928,-0.01464,0,-0.01464,0.01952,-0.0244,-0.05368,-0.08784,-0.09272,-0.05368
-0.02928,0.02928,-0.02928,-0.01464,0,-0.01464,0.01952,-0.0244,-0.05368,-0.08784,-0.09272,-0.05368
-0.03416,0.03172,-0.02928,-0.0122,0.00488,-0.01952,0.01464,-0.01952,-0.05368,-0.08784,-0.0976,-0.05368
-0.03904,0.03416,-0.02928,-0.00976,0.00976,-0.0244,0.01464,-0.01952,-0.05856,-0.0976,-0.10248,-0.05856
-0.03904,0.0366,-0.03416,-0.01464,0.00488,-0.02196,0.01464,-0.0244,-0.05856,-0.0976,-0.10736,-0.05856
-0.03904,0.03904,-0.03904,-0.01952,0,-0.01952,0.01952,-0.0244,-0.05856,-0.0976,-0.10736,-0.05856
-0.05368,0.04636,-0.03904,-0.0122,0.01464,-0.03416,0.01952,-0.0244,-0.05856,-0.0976,-0.10248,-0.06344
-0.05368,0.04636,-0.03904,-0.0122,0.01464,-0.03416,0.01952,-0.0244,-0.05856,-0.0976,-0.0976,-0.06344
-0.05368,0.04636,-0.03904,-0.0122,0.01464,-0.03416,0.01952,-0.01952,-0.05368,-0.0976,-0.10248,-0.06344
-0.05368,0.04636,-0.03904,-0.0122,0.01464,-0.03416,0.0244,-0.01464,-0.0488,-0.0976,-0.10248,-0.05856
-0.05368,0.04636,-0.03904,-0.0122,0.01464,-0.03416,0.0244,-0.01464,-0.05368,-0.09272,-0.10248,-0.05856
-0.0488,0.04392,-0.03904,-0.01464,0.00976,-0.02928,0.02928,-0.01464,-0.05368,-0.09272,-0.10248,-0.05368
-0.05856,0.05368,-0.0488,-0.01952,0.00976,-0.03416,0.0244,-0.01464,-0.05368,-0.09272,-0.10248,-0.05856
-0.06832,0.06344,-0.05856,-0.0244,0.00976,-0.03904,0.01952,-0.01464,-0.05368,-0.09272,-0.10248,-0.06832
-0.06832,0.06832,-0.06832,-0.03416,0,-0.03416,0.01952,-0.0244,-0.05856,-0.10736,-0.10736,-0.0732
-0.05856,0.05856,-0.05856,-0.02928,0,-0.02928,0.01952,-0.0244,-0.05856,-0.11224,-0.10736,-0.0732
-0.0488,0.05368,-0.05856,-0.03416,-0.00976,-0.01952,0.01952,-0.02928,-0.06832,-0.11712,-0.11224,-0.07808
-0.04392,0.05124,-0.05856,-0.0366,-0.01464,-0.01464,0.01952,-0.03904,-0.08296,-0.12688,-0.11712,-0.08784
-0.04392,0.05124,-0.05856,-0.0366,-0.01464,-0.01464,0.01952,-0.03904,-0.08296,-0.12688,-0.11712,-0.08784
-0.0488,0.05612,-0.06344,-0.03904,-0.01464,-0.01708,0.01952,-0.03416,-0.08296,-0.13176,-0.11712,-0.08784
-0.0488,0.05368,-0.05856,-0.03416,-0.00976,-0.01952,0.01952,-0.01952,-0.06832,-0.122,-0.11712,-0.08296
-0.0488,0.05124,-0.05368,-0.02928,-0.00488,-0.02196,0.01952,-0.00976,-0.05368,-0.11712,-0.11712,-0.0732
-0.06832,0.061,-0.05368,-0.01952,0.01464,-0.04148,0.03416,-0.00976,-0.05368,-0.11712,-0.10736,-0.0732
-0.07808,0.06588,-0.05368,-0.01464,0.0244,-0.05124,0.04392,-0.00488,-0.05368,-0.11712,-0.0976,-0.0732
-0.0732,0.06344,-0.05368,-0.01708,0.01952,-0.04636,0.03416,-0.01952,-0.06344,-0.11712,-0.10736,-0.0732
-0.06344,0.05856,-0.05368,-0.02196,0.00976,-0.0366,0.02928,-0.03904,-0.0732,-0.122,-0.11712,-0.0732
-0.0488,0.0488,-0.0488,-0.0244,0,-0.0244,0.02928,-0.02928,-0.0732,-0.122,-0.11712,-0.0732
-0.05856,0.05368,-0.0488,-0.01952,0.00976,-0.03416,0.02928,-0.01464,-0.0732,-0.122,-0.11712,-0.0732
-0.06832,0.05612,-0.04392,-0.00976,0.0244,-0.04636,0.02928,-0.00976,-0.06832,-0.11712,-0.11224,-0.06832
-0.0732,0.05856,-0.04392,-0.00732,0.02928,-0.05124,0.02928,-0.00976,-0.06344,-0.11712,-0.11224,-0.06832
-0.04392,0.03904,-0.03416,-0.0122,0.00976,-0.02684,0.01952,-0.01952,-0.06344,-0.10736,-0.11224,-0.07808
-0.01952,0.0244,-0.02928,-0.01952,-0.00976,-0.00488,0.00976,-0.0244,-0.06344,-0.10736,-0.10248,-0.08296
-0.03904,0.03416,-0.02928,-0.00976,0.00976,-0.0244,0.01952,-0.00488,-0.05856,-0.10736,-0.10248,-0.0732
-0.05856,0.04392,-0.02928,0,0.02928,-0.04392,0.02928,0.01464,-0.0488,-0.10736,-0.10248,-0.05856
-0.05368,0.03904,-0.0244,0.00244,0.02928,-0.04148,0.02928,0.00488,-0.0488,-0.10736,-0.0976,-0.05856
-0.0488,0.03416,-0.01952,0.00488,0.02928,-0.03904,0.02928,-0.00488,-0.0488,-0.0976,-0.0976,-0.05368
-0.0488,0.0366,-0.0244,0,0.0244,-0.0366,0.02928,-0.00488,-0.0488,-0.0976,-0.0976,-0.05368
-0.04392,0.0366,-0.02928,-0.00732,0.01464,-0.02928,0.02928,-0.00488,-0.0488,-0.0976,-0.09272,-0.05368
-0.0488,0.03904,-0.02928,-0.00488,0.01952,-0.03416,0.02928,-0.00976,-0.0488,-0.09272,-0.0976,-0.05368
-0.05856,0.04636,-0.03416,-0.00488,0.0244,-0.04148,0.02928,-0.00976,-0.0488,-0.08784,-0.0976,-0.0488
-0.04392,0.03904,-0.03416,-0.0122,0.00976,-0.02684,0.01952,-0.01464,-0.0488,-0.09272,-0.0976,-0.0488
-0.03416,0.03416,-0.03416,-0.01708,0,-0.01708,0.00976,-0.01952,-0.0488,-0.0976,-0.0976,-0.05368
-0.04392,0.03904,-0.03416,-0.0122,0.00976,-0.02684,0.00976,-0.01952,-0.0488,-0.09272,-0.09272,-0.05368
-0.05856,0.0488,-0.03904,-0.00976,0.01952,-0.03904,0.00976,-0.01952,-0.0488,-0.08784,-0.08784,-0.05856
-0.05856,0.0488,-0.03904,-0.00976,0.01952,-0.03904,0.01952,-0.01464,-0.04392,-0.08784,-0.08784,-0.05856
-0.05856,0.0488,-0.03904,-0.00976,0.01952,-0.03904,0.02928,-0.00976,-0.03904,-0.08784,-0.08784,-0.05856
-0.05368,0.04392,-0.03416,-0.00732,0.01952,-0.0366,0.02928,-0.00976,-0.03904,-0.08784,-0.08296,-0.05856
-0.0488,0.0366,-0.0244,0,0.0244,-0.0366,0.02928,-0.00976,-0.03904,-0.08296,-0.07808,-0.05368
-0.0488,0.03416,-0.01952,0.00488,0.02928,-0.03904,0.02928,-0.00976,-0.03904,-0.08296,-0.07808,-0.0488
-0.05856,0.0366,-0.01464,0.01464,0.04392,-0.05124,0.03416,-0.00488,-0.03416,-0.07808,-0.07808,-0.04392
-0.0244,0.00976,0.00488,0.01708,0.02928,-0.02684,0.03416,-0.00976,-0.03416,-0.0732,-0.06344,-0.03904
-0.01464,0,0.01464,0.02196,0.02928,-0.02196,0.04392,-0.00488,-0.02928,-0.06832,-0.06344,-0.03416
-0.02928,0.00732,0.01464,0.02928,0.04392,-0.0366,0.04392,-0.00488,-0.0244,-0.06832,-0.05856,-0.0244
-0.03904,0.00732,0.0244,0.04392,0.06344,-0.05124,0.0488,0,-0.01952,-0.06344,-0.05856,-0.01952
-0.03904,0,0.03904,0.05856,0.07808,-0.05856,0.0488,0.00488,-0.01464,-0.06344,-0.05856,-0.01952
-0.03904,-0.00488,0.0488,0.06832,0.08784,-0.06344,0.0488,0.00976,-0.01464,-0.05368,-0.05368,-0.00976
-0.03416,-0.00732,0.0488,0.06588,0.08296,-0.05856,0.03416,-0.00976,-0.01952,-0.05368,-0.05368,-0.00976
-0.02928,-0.01708,0.06344,0.07808,0.09272,-0.061,0.00976,-0.01464,-0.0244,-0.05856,-0.0488,-0.00976
-0.01464,-0.0244,0.06344,0.07076,0.07808,-0.04636,-0.01464,-0.01464,-0.0244,-0.05856,-0.0488,-0.00488
-0.00488,-0.03172,0.06832,0.07076,0.0732,-0.03904,-0.01952,-0.01464,-0.01952,-0.0488,-0.04392,0.00488
0,-0.03416,0.06832,0.06832,0.06832,-0.03416,-0.01952,-0.00488,-0.00976,-0.0488,-0.04392,0.00488
0,-0.02928,0.05856,0.05856,0.05856,-0.02928,-0.02928,-0.01952,-0.0244,-0.05856,-0.05368,-0.00488
0.00488,-0.02684,0.0488,0.04636,0.04392,-0.01952,-0.03904,-0.02928,-0.03904,-0.06344,-0.05856,-0.01464
0.01952,-0.03416,0.0488,0.03904,0.02928,-0.00488,-0.04392,-0.03416,-0.04392,-0.06832,-0.06344,-0.01952
0.03904,-0.04392,0.0488,0.02928,0.00976,0.01464,-0.04392,-0.03416,-0.0488,-0.0732,-0.05856,-0.00976
0.03904,-0.04636,0.05368,0.03416,0.01464,0.0122,-0.04392,-0.03416,-0.05368,-0.0732,-0.05368,0
0.01952,-0.03416,0.0488,0.03904,0.02928,-0.00488,-0.02928,-0.03416,-0.05368,-0.06832,-0.0488,-0.00488
0.00488,-0.02196,0.03904,0.0366,0.03416,-0.01464,-0.0244,-0.03416,-0.05368,-0.06832,-0.0488,-0.00488
0,-0.0122,0.0244,0.0244,0.0244,-0.0122,-0.01464,-0.03416,-0.0488,-0.06832,-0.05856,-0.00488
-0.01952,0.00732,0.00488,0.01464,0.0244,-0.02196,-0.00488,-0.03416,-0.04392,-0.0732,-0.06832,-0.00976
-0.03416,0.02196,-0.00976,0.00732,0.0244,-0.02928,-0.00488,-0.04392,-0.05856,-0.08784,-0.08784,-0.0244
-0.04392,0.04148,-0.03904,-0.01708,0.00488,-0.0244,-0.00488,-0.05856,-0.0732,-0.10248,-0.10248,-0.04392
-0.05368,0.05124,-0.0488,-0.02196,0.00488,-0.02928,0.00488,-0.0488,-0.07808,-0.10736,-0.10736,-0.05856
-0.06344,0.05856,-0.05368,-0.02196,0.00976,-0.0366,0.00976,-0.03904,-0.07808,-0.10736,-0.11224,-0.06344
-0.0488,0.05124,-0.05368,-0.02928,-0.00488,-0.02196,0.00976,-0.04392,-0.08296,-0.11712,-0.11712,-0.06344
-0.04392,0.05612,-0.06832,-0.04636,-0.0244,-0.00976,0.00976,-0.0488,-0.08784,-0.12688,-0.122,-0.0732
-0.06832,0.0732,-0.07808,-0.04392,-0.00976,-0.02928,0.00488,-0.0488,-0.09272,-0.12688,-0.12688,-0.08296
-0.08784,0.08784,-0.08784,-0.04392,0,-0.04392,0.00488,-0.0488,-0.09272,-0.12688,-0.12688,-0.08296
-0.05368,0.06832,-0.08296,-0.05612,-0.02928,-0.0122,0.00488,-0.0488,-0.09272,-0.12688,-0.12688,-0.08296
-0.04392,0.05856,-0.0732,-0.05124,-0.02928,-0.00732,0.00488,-0.04392,-0.0976,-0.12688,-0.12688,-0.08296
-0.05368,0.06588,-0.07808,-0.05124,-0.0244,-0.01464,0.00976,-0.04392,-0.10248,-0.13176,-0.13176,-0.08784
-0.06832,0.07564,-0.08296,-0.0488,-0.01464,-0.02684,0.01464,-0.0488,-0.10248,-0.13176,-0.13176,-0.08784
-0.06832,0.07564,-0.08296,-0.0488,-0.01464,-0.02684,0.01464,-0.0488,-0.08784,-0.13176,-0.13176,-0.08784
-0.06832,0.07564,-0.08296,-0.0488,-0.01464,-0.02684,0.01464,-0.04392,-0.0732,-0.13176,-0.13176,-0.08784
-0.06832,0.07808,-0.08784,-0.05368,-0.01952,-0.0244,0.00488,-0.04392,-0.08784,-0.14152,-0.13664,-0.08784
-0.06832,0.08296,-0.0976,-0.06344,-0.02928,-0.01952,-0.00488,-0.04392,-0.0976,-0.1464,-0.14152,-0.09272
-0.06344,0.08052,-0.0976,-0.06588,-0.03416,-0.01464,0,-0.05856,-0.10248,-0.14152,-0.1464,-0.09272
-0.05856,0.08052,-0.10248,-0.0732,-0.04392,-0.00732,0.00976,-0.06832,-0.10248,-0.14152,-0.1464,-0.09272
-0.0732,0.08784,-0.10248,-0.06588,-0.02928,-0.02196,0.04392,-0.03904,-0.08296,-0.14152,-0.14152,-0.10736
-0.0976,0.10004,-0.10248,-0.05368,-0.00488,-0.04636,0.08296,-0.01952,-0.06832,-0.13664,-0.15128,-0.12688
-0.1464,0.12688,-0.10736,-0.03416,0.03904,-0.09272,0.10248,0.00488,-0.08784,-0.15128,-0.18544,-0.15128
-0.14152,0.11468,-0.08784,-0.01708,0.05368,-0.0976,0.11224,0.03416,-0.05856,-0.11712,-0.15128,-0.122
-0.11224,0.0854,-0.05856,-0.00244,0.05368,-0.08296,0.14152,0.12688,0.0488,-0.03416,-0.07808,-0.0732
-0.05368,0.03416,-0.01464,0.0122,0.03904,-0.04636,0.19032,0.32208,0.2684,0.13664,0.08296,0.03904
0.06344,-0.06588,0.06832,0.0366,0.00488,0.02928,0.2196,0.50752,0.54168,0.3904,0.30256,0.20008
0.21472,-0.18544,0.15616,0.0488,-0.05856,0.13664,0.13664,0.61,0.75152,0.61488,0.54168,0.40016
0.3904,-0.34648,0.30256,0.10736,-0.08784,0.23912,-0.08296,0.58072,0.89792,0.86864,0.8784,0.69296
0.55632,-0.48556,0.4148,0.13664,-0.14152,0.34892,-0.35136,0.48312,0.95648,1.03944,1.1468,0.90768
0.75152,-0.65148,0.55144,0.17568,-0.20008,0.4758,-0.66368,0.3904,1.01016,1.16144,1.34688,1.12728
0.81984,-0.71248,0.60512,0.1952,-0.21472,0.51728,-0.88816,0.0976,0.7808,1.01016,1.24928,1.11264
0.732,-0.66368,0.59536,0.22936,-0.13664,0.43432,-1.0248,-0.3172,0.30744,0.6588,0.94672,0.92232
0.5612,-0.51484,0.46848,0.18788,-0.09272,0.32696,-1.0248,-0.63928,-0.20496,0.20984,0.50752,0.61
0.26352,-0.23668,0.20984,0.07808,-0.05368,0.1586,-0.8784,-0.93208,-0.79056,-0.3904,-0.08784,0.17568
0.10736,-0.08052,0.05368,0,-0.05368,0.08052,-0.6832,-0.9272,-0.9028,-0.54656,-0.27816,0
0.09272,-0.01952,-0.05368,-0.10004,-0.1464,0.11956,-0.42944,-0.5856,-0.63928,-0.488,-0.28304,-0.06344
0.0732,-0.00976,-0.05368,-0.09028,-0.12688,0.10004,-0.25376,-0.33184,-0.42456,-0.38064,-0.23912,-0.07808
0.0488,-0.00976,-0.02928,-0.05368,-0.07808,0.06344,-0.1464,-0.15128,-0.2684,-0.26352,-0.17568,-0.06344
0.02928,0.00244,-0.03416,-0.0488,-0.06344,0.04636,-0.04392,-0.0244,-0.1464,-0.17568,-0.12688,-0.05368
-0.00488,0.0244,-0.04392,-0.04148,-0.03904,0.01708,-0.00976,-0.03416,-0.122,-0.15128,-0.122,-0.06344
-0.00976,0.03416,-0.05856,-0.05368,-0.0488,0.01952,-0.00488,-0.02928,-0.10736,-0.15128,-0.122,-0.06832
-0.03416,0.05124,-0.06832,-0.05124,-0.03416,0,-0.00488,-0.02928,-0.10248,-0.1464,-0.122,-0.07808
-0.0732,0.07564,-0.07808,-0.04148,-0.00488,-0.03416,0.00976,-0.03416,-0.08784,-0.13664,-0.122,-0.08296
-0.0732,0.07564,-0.07808,-0.04148,-0.00488,-0.03416,0.01464,-0.04392,-0.0976,-0.1464,-0.13176,-0.08296
-0.06344,0.0732,-0.08296,-0.05124,-0.01952,-0.02196,0.01464,-0.04392,-0.0976,-0.15128,-0.14152,-0.08784
-0.05368,0.06588,-0.07808,-0.05124,-0.0244,-0.01464,0.01464,-0.03416,-0.0976,-0.15128,-0.14152,-0.08784
-0.04392,0.05856,-0.0732,-0.05124,-0.02928,-0.00732,0.01464,-0.04392,-0.0976,-0.1464,-0.14152,-0.08784
-0.04392,0.05856,-0.0732,-0.05124,-0.02928,-0.00732,0.01952,-0.04392,-0.09272,-0.14152,-0.13176,-0.08784
-0.04392,0.05856,-0.0732,-0.05124,-0.02928,-0.00732,0.0244,-0.04392,-0.09272,-0.14152,-0.13176,-0.08784
-0.05368,0.06344,-0.0732,-0.04636,-0.01952,-0.01708,0.0244,-0.03416,-0.09272,-0.14152,-0.13664,-0.08784
-0.05368,0.06344,-0.0732,-0.04636,-0.01952,-0.01708,0.0244,-0.02928,-0.08784,-0.14152,-0.13664,-0.08784
-0.06344,0.06832,-0.0732,-0.04148,-0.00976,-0.02684,0.0244,-0.0244,-0.08784,-0.12688,-0.12688,-0.08784
-0.06344,0.06832,-0.0732,-0.04148,-0.00976,-0.02684,0.01952,-0.01952,-0.08784,-0.122,-0.12688,-0.08296
-0.06832,0.07808,-0.08784,-0.05368,-0.01952,-0.0244,0.01952,-0.01464,-0.08784,-0.122,-0.12688,-0.08296
-0.07808,0.08784,-0.0976,-0.05856,-0.01952,-0.02928,0.01952,-0.01464,-0.08784,-0.122,-0.12688,-0.08296
-0.07808,0.0854,-0.09272,-0.05368,-0.01464,-0.03172,0.01952,-0.01464,-0.0732,-0.11712,-0.122,-0.07808
-0.07808,0.08296,-0.08784,-0.0488,-0.00976,-0.03416,0.01952,-0.01464,-0.06832,-0.11712,-0.122,-0.07808
-0.07808,0.07564,-0.0732,-0.03416,0.00488,-0.04148,0.02928,-0.00976,-0.06832,-0.11224,-0.11224,-0.06832
-0.06832,0.05856,-0.0488,-0.01464,0.01952,-0.04392,0.03416,-0.00976,-0.06344,-0.11224,-0.10248,-0.06344
-0.05856,0.05368,-0.0488,-0.01952,0.00976,-0.03416,0.02928,-0.01464,-0.06832,-0.122,-0.11224,-0.06344
-0.03904,0.04392,-0.0488,-0.02928,-0.00976,-0.01464,0.02928,-0.01952,-0.0732,-0.12688,-0.122,-0.06832
-0.0488,0.05368,-0.05856,-0.03416,-0.00976,-0.01952,0.0244,-0.01464,-0.0732,-0.122,-0.11712,-0.07808
-0.05368,0.061,-0.06832,-0.04148,-0.01464,-0.01952,0.01952,-0.01464,-0.0732,-0.122,-0.11712,-0.08784
-0.05368,0.061,-0.06832,-0.04148,-0.01464,-0.01952,0.01952,-0.00976,-0.0732,-0.122,-0.11712,-0.08784
-0.0488,0.05368,-0.05856,-0.03416,-0.00976,-0.01952,0.01952,-0.01464,-0.0732,-0.11712,-0.11712,-0.08296
-0.0488,0.05124,-0.05368,-0.02928,-0.00488,-0.02196,0.01952,-0.01464,-0.06344,-0.11224,-0.11224,-0.0732
-0.0488,0.0488,-0.0488,-0.0244,0,-0.0244,0.01952,-0.00976,-0.05856,-0.10248,-0.11224,-0.06832
-0.0488,0.0488,-0.0488,-0.0244,0,-0.0244,0.01952,-0.00976,-0.05368,-0.10248,-0.11224,-0.06832
-0.0488,0.0488,-0.0488,-0.0244,0,-0.0244,0.01464,0,-0.0488,-0.10248,-0.10736,-0.06832
-0.03416,0.03416,-0.03416,-0.01708,0,-0.01708,0.01464,0.00488,-0.0488,-0.10248,-0.10736,-0.06344
-0.02928,0.02928,-0.02928,-0.01464,0,-0.01464,0.01464,0.00488,-0.04392,-0.0976,-0.10248,-0.05856
-0.0244,0.02684,-0.02928,-0.01708,-0.00488,-0.00976,0.01464,0.00488,-0.04392,-0.09272,-0.09272,-0.05368
-0.0244,0.0244,-0.0244,-0.0122,0,-0.0122,0.01464,0.01464,-0.03416,-0.08784,-0.08784,-0.04392
-0.04392,0.04148,-0.03904,-0.01708,0.00488,-0.0244,0.00976,0.01464,-0.03416,-0.08784,-0.08784,-0.04392
-0.05856,0.04636,-0.03416,-0.00488,0.0244,-0.04148,0.00976,0.01464,-0.0244,-0.07808,-0.08296,-0.03904
-0.05368,0.04148,-0.02928,-0.00244,0.0244,-0.03904,0.00976,0.01952,-0.02928,-0.0732,-0.0732,-0.03416
-0.05368,0.03416,-0.01464,0.0122,0.03904,-0.04636,0,0.0244,-0.01952,-0.06344,-0.06832,-0.02928
-0.0488,0.02684,-0.00488,0.01952,0.04392,-0.04636,-0.00488,0.03416,-0.00976,-0.05368,-0.05368,-0.01464
-0.0488,0.0244,0,0.0244,0.0488,-0.0488,-0.00976,0.03416,-0.00488,-0.04392,-0.04392,-0.00488
-0.01952,-0.00732,0.03416,0.04392,0.05368,-0.0366,0,0.04392,0.00488,-0.03416,-0.03416,0
0.00488,-0.0366,0.06832,0.06588,0.06344,-0.02928,0.00488,0.05368,0.02928,-0.01952,-0.01952,0.01952
0.0244,-0.05368,0.08296,0.07076,0.05856,-0.01708,-0.01952,0.05856,0.02928,0,0,0.03416
0.0244,-0.05612,0.08784,0.07564,0.06344,-0.01952,-0.04392,0.06832,0.04392,0.01464,0.01464,0.05368
0.0244,-0.06344,0.10248,0.09028,0.07808,-0.02684,-0.04392,0.0732,0.06832,0.03904,0.04392,0.06832
0.03416,-0.07564,0.11712,0.10004,0.08296,-0.0244,-0.04392,0.08296,0.08784,0.05856,0.06344,0.08784
0.04392,-0.09516,0.1464,0.12444,0.10248,-0.02928,-0.05368,0.08784,0.11224,0.0732,0.08296,0.122
0.0488,-0.10736,0.16592,0.14152,0.11712,-0.03416,-0.05856,0.09272,0.122,0.09272,0.10248,0.14152
0.06344,-0.122,0.18056,0.14884,0.11712,-0.02684,-0.0732,0.08784,0.12688,0.10736,0.11712,0.15616
0.06832,-0.12932,0.19032,0.15616,0.122,-0.02684,-0.07808,0.08296,0.12688,0.11224,0.122,0.15616
0.06832,-0.13176,0.1952,0.16104,0.12688,-0.02928,-0.08784,0.08296,0.11712,0.11224,0.1464,0.1708
0.06832,-0.13664,0.20496,0.1708,0.13664,-0.03416,-0.0976,0.08296,0.11712,0.11712,0.15128,0.18544
0.08296,-0.14884,0.21472,0.17324,0.13176,-0.0244,-0.0976,0.09272,0.14152,0.14152,0.1708,0.20984
0.08784,-0.15128,0.21472,0.1708,0.12688,-0.01952,-0.0976,0.0976,0.16104,0.15128,0.17568,0.21472
0.0976,-0.16836,0.23912,0.19032,0.14152,-0.02196,-0.10248,0.10248,0.15616,0.15128,0.18056,0.2196
0.10248,-0.1708,0.23912,0.18788,0.13664,-0.01708,-0.10736,0.11224,0.15128,0.14152,0.17568,0.2196
0.08784,-0.15372,0.2196,0.17568,0.13176,-0.02196,-0.10736,0.0976,0.1464,0.13176,0.1708,0.20496
0.0732,-0.13664,0.20008,0.16348,0.12688,-0.02684,-0.0976,0.08296,0.13664,0.122,0.15128,0.18056
0.07808,-0.12932,0.18056,0.14152,0.10248,-0.0122,-0.08784,0.0732,0.122,0.10248,0.122,0.16104
0.06832,-0.1098,0.15128,0.11712,0.08296,-0.00732,-0.07808,0.06832,0.10248,0.09272,0.10736,0.14152
0.05856,-0.0976,0.13664,0.10736,0.07808,-0.00976,-0.06832,0.05368,0.08784,0.07808,0.08784,0.13176
0.06344,-0.08784,0.11224,0.08052,0.0488,0.00732,-0.05856,0.04392,0.06832,0.05856,0.05856,0.10736
0.05368,-0.07808,0.10248,0.07564,0.0488,0.00244,-0.04392,0.04392,0.05856,0.03904,0.03904,0.09272
0.03904,-0.05856,0.07808,0.05856,0.03904,0,-0.03416,0.02928,0.03904,0.0244,0.0244,0.08296
0.02928,-0.05124,0.0732,0.05856,0.04392,-0.00732,-0.01952,0.0244,0.01952,0.00488,0.01464,0.06344
0.01464,-0.0366,0.05856,0.05124,0.04392,-0.01464,-0.01464,0.01464,0.00976,-0.00976,-0.00976,0.04392
-0.00488,-0.01952,0.04392,0.04636,0.0488,-0.02684,-0.01464,0.00976,-0.00488,-0.02928,-0.0244,0.02928
-0.00488,-0.01464,0.03416,0.0366,0.03904,-0.02196,-0.00976,0.00976,-0.01952,-0.0488,-0.03904,0.01464
-0.00488,-0.00244,0.00976,0.0122,0.01464,-0.00976,-0.00976,-0.00488,-0.03416,-0.05368,-0.05368,0
-0.0244,0.01952,-0.01464,-0.00244,0.00976,-0.01708,0,-0.00976,-0.04392,-0.06344,-0.06344,-0.01464
-0.03416,0.0366,-0.03904,-0.02196,-0.00488,-0.01464,0,-0.01464,-0.04392,-0.0732,-0.07808,-0.01464
-0.04392,0.05124,-0.05856,-0.0366,-0.01464,-0.01464,0.00488,-0.01952,-0.0488,-0.08296,-0.08784,-0.02928
-0.0488,0.05124,-0.05368,-0.02928,-0.00488,-0.02196,0,-0.01952,-0.05368,-0.08296,-0.09272,-0.03904
-0.0488,0.04636,-0.04392,-0.01952,0.00488,-0.02684,-0.00488,-0.0244,-0.05856,-0.09272,-0.0976,-0.04392
-0.03904,0.0366,-0.03416,-0.01464,0.00488,-0.02196,0,-0.01952,-0.06344,-0.0976,-0.0976,-0.04392
-0.02928,0.0244,-0.01952,-0.00488,0.00976,-0.01952,0,-0.01464,-0.06344,-0.0976,-0.10248,-0.04392
-0.02928,0.0244,-0.01952,-0.00488,0.00976,-0.01952,0,-0.01464,-0.05856,-0.08784,-0.09272,-0.04392
-0.0244,0.02196,-0.01952,-0.00732,0.00488,-0.01464,-0.00488,-0.00976,-0.05368,-0.07808,-0.08296,-0.04392
-0.02928,0.03172,-0.03416,-0.01952,-0.00488,-0.0122,-0.00488,-0.00976,-0.05856,-0.0976,-0.09272,-0.0488
-0.03904,0.04636,-0.05368,-0.03416,-0.01464,-0.0122,-0.00488,-0.01464,-0.05856,-0.10736,-0.10736,-0.0488
-0.02928,0.04392,-0.05856,-0.04392,-0.02928,0,0,-0.01952,-0.05856,-0.10736,-0.10736,-0.0488
-0.03416,0.04636,-0.05856,-0.04148,-0.0244,-0.00488,0,-0.0244,-0.05856,-0.10736,-0.10736,-0.05368
-0.03416,0.04636,-0.05856,-0.04148,-0.0244,-0.00488,0.00488,-0.0244,-0.05856,-0.10736,-0.10736,-0.0488
-0.03416,0.04636,-0.05856,-0.04148,-0.0244,-0.00488,0.00488,-0.0244,-0.05856,-0.10736,-0.11224,-0.0488
-0.03904,0.0488,-0.05856,-0.03904,-0.01952,-0.00976,0.00488,-0.0244,-0.05856,-0.10736,-0.10736,-0.0488
-0.03904,0.0488,-0.05856,-0.03904,-0.01952,-0.00976,0.00488,-0.0244,-0.06344,-0.10248,-0.10248,-0.0488
-0.02928,0.04148,-0.05368,-0.03904,-0.0244,-0.00244,0.00976,-0.01952,-0.05368,-0.0976,-0.10248,-0.04392
-0.03904,0.04392,-0.0488,-0.02928,-0.00976,-0.01464,0.00976,-0.01464,-0.04392,-0.09272,-0.10248,-0.04392
-0.04392,0.04148,-0.03904,-0.01708,0.00488,-0.0244,0.00976,-0.01464,-0.05368,-0.09272,-0.10248,-0.0488
-0.03904,0.03904,-0.03904,-0.01952,0,-0.01952,0.00976,-0.0244,-0.06832,-0.10248,-0.10736,-0.05368
-0.0244,0.02684,-0.02928,-0.01708,-0.00488,-0.00976,0.00976,-0.02928,-0.06832,-0.10248,-0.10736,-0.05368
-0.00976,0.01952,-0.02928,-0.0244,-0.01952,0.00488,0.00976,-0.02928,-0.06832,-0.10736,-0.11224,-0.05856
-0.00488,0.01708,-0.02928,-0.02684,-0.0244,0.00976,0.00976,-0.02928,-0.0732,-0.11224,-0.11224,-0.06344
-0.00488,0.01708,-0.02928,-0.02684,-0.0244,0.00976,0.00976,-0.02928,-0.0732,-0.10736,-0.10736,-0.05856
-0.03904,0.04392,-0.0488,-0.02928,-0.00976,-0.01464,0.00976,-0.01952,-0.0732,-0.11224,-0.10736,-0.05856
-0.06832,0.06588,-0.06344,-0.02928,0.00488,-0.0366,0.00976,-0.01464,-0.0732,-0.11224,-0.11224,-0.06344
-0.05856,0.061,-0.06344,-0.03416,-0.00488,-0.02684,0.00976,-0.01952,-0.0732,-0.11712,-0.11712,-0.06344
-0.05856,0.061,-0.06344,-0.03416,-0.00488,-0.02684,0.01464,-0.01952,-0.0732,-0.11712,-0.11712,-0.06344
-0.05856,0.061,-0.06344,-0.03416,-0.00488,-0.02684,0.01464,-0.01952,-0.0732,-0.122,-0.122,-0.06344
-0.06344,0.06344,-0.06344,-0.03172,0,-0.03172,0.01464,-0.0244,-0.0732,-0.12688,-0.12688,-0.06344
-0.05856,0.061,-0.06344,-0.03416,-0.00488,-0.02684,0.01464,-0.02928,-0.0732,-0.13176,-0.12688,-0.06344
-0.03904,0.0488,-0.05856,-0.03904,-0.01952,-0.00976,0.00976,-0.02928,-0.0732,-0.13176,-0.12688,-0.06344
-0.0488,0.05124,-0.05368,-0.02928,-0.00488,-0.02196,0.00976,-0.0244,-0.0732,-0.12688,-0.12688,-0.06344
-0.0488,0.04636,-0.04392,-0.01952,0.00488,-0.02684,0.00976,-0.01952,-0.06832,-0.11712,-0.122,-0.05856
-0.03904,0.04148,-0.04392,-0.0244,-0.00488,-0.01708,0.00976,-0.01464,-0.06344,-0.11712,-0.122,-0.05368
-0.03416,0.0366,-0.03904,-0.02196,-0.00488,-0.01464,0.00976,-0.00976,-0.06344,-0.10736,-0.122,-0.0488
-0.03904,0.03904,-0.03904,-0.01952,0,-0.01952,0.00976,-0.00488,-0.06344,-0.11224,-0.11224,-0.04392
-0.03904,0.03904,-0.03904,-0.01952,0,-0.01952,0.00976,-0.00488,-0.06344,-0.11712,-0.11224,-0.04392
-0.03904,0.04392,-0.0488,-0.02928,-0.00976,-0.01464,0.00976,-0.00488,-0.05856,-0.11712,-0.11224,-0.04392
-0.03416,0.04392,-0.05368,-0.0366,-0.01952,-0.00732,0.00976,-0.00488,-0.05856,-0.11712,-0.10736,-0.0488
-0.02928,0.03172,-0.03416,-0.01952,-0.00488,-0.0122,0.01952,-0.00488,-0.05856,-0.10248,-0.10736,-0.04392
-0.02928,0.0244,-0.01952,-0.00488,0.00976,-0.01952,0.02928,-0.00488,-0.05856,-0.0976,-0.10736,-0.04392
-0.0244,0.02196,-0.01952,-0.00732,0.00488,-0.01464,0.01952,-0.00488,-0.05856,-0.0976,-0.10248,-0.04392
-0.01952,0.01708,-0.01464,-0.00488,0.00488,-0.0122,0.00976,-0.00488,-0.05368,-0.09272,-0.10248,-0.04392
-0.01952,0.01708,-0.01464,-0.00488,0.00488,-0.0122,0.00488,-0.00488,-0.05856,-0.09272,-0.10248,-0.04392
-0.01952,0.01708,-0.01464,-0.00488,0.00488,-0.0122,0,0,-0.05368,-0.08784,-0.0976,-0.03904
-0.01952,0.0122,-0.00488,0.00488,0.01464,-0.01708,0,0,-0.05856,-0.08784,-0.0976,-0.03904
-0.01464,0.00732,0,0.00732,0.01464,-0.01464,0,-0.00488,-0.05856,-0.08784,-0.09272,-0.03904
-0.0244,0.01708,-0.00976,0.00244,0.01464,-0.01952,0.00488,-0.00976,-0.05856,-0.08296,-0.0976,-0.03904
-0.03904,0.03172,-0.0244,-0.00488,0.01464,-0.02684,0.00976,-0.00976,-0.05856,-0.08296,-0.0976,-0.03904
-0.05368,0.03904,-0.0244,0.00244,0.02928,-0.04148,0,-0.00976,-0.05856,-0.08784,-0.10248,-0.03416
-0.06344,0.0366,-0.00976,0.02196,0.05368,-0.05856,-0.00488,-0.00976,-0.05856,-0.09272,-0.10248,-0.02928
-0.03416,0.02928,-0.0244,-0.00732,0.00976,-0.02196,0,-0.01952,-0.05856,-0.0976,-0.10248,-0.03416
-0.00976,0.0244,-0.03904,-0.03416,-0.02928,0.00976,0,-0.02928,-0.05856,-0.10736,-0.10736,-0.03904
-0.01952,0.02928,-0.03904,-0.02928,-0.01952,0,0,-0.02928,-0.05856,-0.10736,-0.10736,-0.03904
-0.02928,0.03416,-0.03904,-0.0244,-0.00976,-0.00976,0,-0.02928,-0.05856,-0.10736,-0.10736,-0.03904
-0.03904,0.0366,-0.03416,-0.01464,0.00488,-0.02196,0.00488,-0.02928,-0.05856,-0.10248,-0.10248,-0.03904
-0.03416,0.02928,-0.0244,-0.00732,0.00976,-0.02196,0.00488,-0.02928,-0.05856,-0.0976,-0.09272,-0.03416
-0.02928,0.02196,-0.01464,0,0.01464,-0.02196,0.00976,-0.02928,-0.05856,-0.09272,-0.08784,-0.03416
0,0,0,0,0,0,0.00976,-0.02928,-0.05856,-0.09272,-0.08784,-0.02928
-0.03416,0.01464,0.00488,0.02196,0.03904,-0.0366,0.01464,-0.01952,-0.0488,-0.08296,-0.08784,-0.0244
-0.03416,0.00488,0.0244,0.04148,0.05856,-0.04636,0.01464,-0.01464,-0.04392,-0.0732,-0.0732,-0.01952
-0.03416,0,0.03416,0.05124,0.06832,-0.05124,0.0244,-0.00488,-0.03904,-0.06832,-0.07808,-0.01464
-0.03416,0,0.03416,0.05124,0.06832,-0.05124,0.0244,-0.00488,-0.03416,-0.06832,-0.07808,-0.00976
-0.00976,-0.01708,0.04392,0.0488,0.05368,-0.03172,0.0244,0,-0.03416,-0.06344,-0.07808,-0.00976
0.00976,-0.03172,0.05368,0.0488,0.04392,-0.01708,0.01952,0,-0.03416,-0.06344,-0.07808,-0.00976
0,-0.02684,0.05368,0.05368,0.05368,-0.02684,0.01952,0,-0.03416,-0.05856,-0.0732,0
-0.00488,-0.02196,0.0488,0.05124,0.05368,-0.02928,0.00488,-0.01952,-0.03904,-0.06344,-0.0732,0
0,-0.03172,0.06344,0.06344,0.06344,-0.03172,-0.01952,-0.0244,-0.04392,-0.06832,-0.06832,0
0.01464,-0.03904,0.06344,0.05612,0.0488,-0.01708,-0.03904,-0.0244,-0.04392,-0.06832,-0.06344,0.00488
0.02928,-0.0488,0.06832,0.05368,0.03904,-0.00488,-0.03904,-0.0244,-0.03904,-0.05856,-0.05368,0.01464
0.03904,-0.05368,0.06832,0.0488,0.02928,0.00488,-0.03904,-0.01464,-0.02928,-0.05856,-0.05368,0.01464
0.03904,-0.04636,0.05368,0.03416,0.01464,0.0122,-0.0488,-0.02928,-0.03904,-0.06832,-0.06344,0.00488
0.02928,-0.03416,0.03904,0.0244,0.00976,0.00976,-0.05368,-0.03904,-0.0488,-0.0732,-0.06832,0.00488
0.0244,-0.03172,0.03904,0.02684,0.01464,0.00488,-0.05368,-0.04392,-0.05368,-0.0732,-0.0732,0.00976
0.02928,-0.03416,0.03904,0.0244,0.00976,0.00976,-0.05368,-0.04392,-0.05368,-0.0732,-0.0732,0.00976
0.01952,-0.03416,0.0488,0.03904,0.02928,-0.00488,-0.05368,-0.04392,-0.05856,-0.0732,-0.0732,0.00976
0.01464,-0.03416,0.05368,0.04636,0.03904,-0.0122,-0.04392,-0.04392,-0.06344,-0.06832,-0.06832,0.00488
0.01464,-0.03172,0.0488,0.04148,0.03416,-0.00976,-0.04392,-0.04392,-0.06344,-0.0732,-0.06832,0.00488
0.00976,-0.02196,0.03416,0.02928,0.0244,-0.00732,-0.03416,-0.04392,-0.06344,-0.08296,-0.07808,0
-0.00976,-0.00244,0.01464,0.01952,0.0244,-0.01708,-0.01952,-0.04392,-0.06344,-0.09272,-0.08784,-0.00976
-0.0244,0.01464,-0.00488,0.00732,0.01952,-0.02196,-0.01464,-0.04392,-0.07808,-0.10736,-0.10736,-0.0244
-0.04392,0.0366,-0.02928,-0.00732,0.01464,-0.02928,-0.01464,-0.05368,-0.09272,-0.122,-0.122,-0.04392
-0.05368,0.04148,-0.02928,-0.00244,0.0244,-0.03904,-0.00976,-0.05856,-0.0976,-0.12688,-0.12688,-0.05368
-0.06344,0.05856,-0.05368,-0.02196,0.00976,-0.0366,-0.00976,-0.05856,-0.0976,-0.12688,-0.13664,-0.05856
-0.0732,0.0732,-0.0732,-0.0366,0,-0.0366,-0.00976,-0.06344,-0.10248,-0.13664,-0.1464,-0.06344
-0.06832,0.0732,-0.07808,-0.04392,-0.00976,-0.02928,-0.00976,-0.06832,-0.10736,-0.1464,-0.15128,-0.0732
-0.05856,0.06344,-0.06832,-0.03904,-0.00976,-0.0244,-0.00976,-0.06832,-0.11224,-0.1464,-0.15616,-0.08296
-0.0488,0.05612,-0.06344,-0.03904,-0.01464,-0.01708,-0.00488,-0.06832,-0.11224,-0.1464,-0.15128,-0.07808
-0.0244,0.04392,-0.06344,-0.05124,-0.03904,0.00732,-0.00488,-0.06832,-0.10736,-0.1464,-0.1464,-0.0732
-0.0488,0.05612,-0.06344,-0.03904,-0.01464,-0.01708,-0.00976,-0.06344,-0.10736,-0.1464,-0.1464,-0.0732
-0.06344,0.06588,-0.06832,-0.0366,-0.00488,-0.02928,-0.01464,-0.06344,-0.11224,-0.15128,-0.15128,-0.07808
-0.06832,0.07076,-0.0732,-0.03904,-0.00488,-0.03172,-0.01464,-0.06832,-0.11224,-0.15128,-0.15616,-0.07808
-0.06832,0.07076,-0.0732,-0.03904,-0.00488,-0.03172,-0.01464,-0.06832,-0.11224,-0.15128,-0.16104,-0.07808
-0.05856,0.06588,-0.0732,-0.04392,-0.01464,-0.02196,-0.01464,-0.05856,-0.10736,-0.15128,-0.16104,-0.07808
-0.0488,0.061,-0.0732,-0.0488,-0.0244,-0.0122,-0.01464,-0.05368,-0.10736,-0.15616,-0.16104,-0.07808
-0.05856,0.06832,-0.07808,-0.0488,-0.01952,-0.01952,-0.01464,-0.05368,-0.10736,-0.15616,-0.15616,-0.08296
-0.06832,0.0732,-0.07808,-0.04392,-0.00976,-0.02928,-0.00976,-0.05368,-0.10736,-0.15128,-0.15616,-0.08296
-0.06832,0.07564,-0.08296,-0.0488,-0.01464,-0.02684,0.00488,-0.0488,-0.10248,-0.1464,-0.15616,-0.07808
-0.09272,0.08784,-0.08296,-0.0366,0.00976,-0.05124,0.04392,-0.01952,-0.08296,-0.14152,-0.16104,-0.08784
-0.122,0.10248,-0.08296,-0.02196,0.03904,-0.08052,0.08296,0,-0.06832,-0.13664,-0.17568,-0.10736
-0.13176,0.10736,-0.08296,-0.01708,0.0488,-0.09028,0.10248,0.02928,-0.06344,-0.13176,-0.18056,-0.11712
-0.08784,0.06832,-0.0488,-0.00488,0.03904,-0.06344,0.122,0.09272,0.01464,-0.06344,-0.10736,-0.05856
-0.04392,0.02196,0,0.02196,0.04392,-0.04392,0.15128,0.21472,0.17568,0.08296,0.02928,0.04392
0.0488,-0.05124,0.05368,0.02928,0.00488,0.02196,0.16104,0.40016,0.40992,0.28304,0.21472,0.18056
0.17568,-0.1586,0.14152,0.05368,-0.03416,0.10492,0.122,0.53192,0.63928,0.51728,0.44896,0.366
0.32208,-0.27816,0.23424,0.0732,-0.08784,0.20496,-0.0244,0.58072,0.81496,0.71736,0.70272,0.5856
0.49776,-0.4392,0.38064,0.13176,-0.11712,0.30744,-0.27816,0.50264,0.89792,0.91256,0.98576,0.83936
0.64416,-0.5612,0.47824,0.15616,-0.16592,0.40504,-0.55632,0.35136,0.88328,1.01016,1.17608,0.98576
0.77104,-0.671,0.57096,0.18544,-0.20008,0.48556,-0.8296,0.20008,0.81496,0.99064,1.21024,1.0736
0.77592,-0.671,0.56608,0.17812,-0.20984,0.49288,-0.98576,-0.15616,0.4636,0.75152,1.00528,0.976
0.6588,-0.5734,0.488,0.1586,-0.1708,0.4148,-1.03456,-0.52704,-0.01464,0.36112,0.6344,0.72224
0.4636,-0.40016,0.33672,0.10492,-0.12688,0.29524,-0.96136,-0.77592,-0.48312,-0.07808,0.19032,0.40016
0.22448,-0.17324,0.122,0.00976,-0.10248,0.16348,-0.77592,-0.9272,-0.85888,-0.50264,-0.22936,0.0732
0.122,-0.07076,0.01952,-0.04148,-0.10248,0.11224,-0.55632,-0.7564,-0.7808,-0.53192,-0.30256,-0.02928
0.10248,-0.02928,-0.04392,-0.09516,-0.1464,0.12444,-0.34648,-0.42456,-0.51728,-0.43432,-0.27328,-0.05856
0.05856,-0.00976,-0.03904,-0.06832,-0.0976,0.07808,-0.21472,-0.23424,-0.33184,-0.32208,-0.22448,-0.05856
0.00976,0.01464,-0.03904,-0.04392,-0.0488,0.02928,-0.12688,-0.11224,-0.21472,-0.23912,-0.18544,-0.04392
-0.00976,0.02684,-0.04392,-0.03904,-0.03416,0.0122,-0.0488,-0.0244,-0.122,-0.16592,-0.1464,-0.03416
-0.04392,0.04392,-0.04392,-0.02196,0,-0.02196,-0.01952,-0.03904,-0.11224,-0.14152,-0.14152,-0.04392
-0.04392,0.05124,-0.05856,-0.0366,-0.01464,-0.01464,-0.01464,-0.03904,-0.11224,-0.1464,-0.1464,-0.05368
-0.04392,0.05124,-0.05856,-0.0366,-0.01464,-0.01464,-0.01464,-0.03904,-0.11224,-0.1464,-0.15128,-0.06344
-0.06344,0.06344,-0.06344,-0.03172,0,-0.03172,0,-0.04392,-0.0976,-0.13664,-0.15128,-0.06344
-0.06344,0.06588,-0.06832,-0.0366,-0.00488,-0.02928,0.00488,-0.05368,-0.10736,-0.1464,-0.15616,-0.06344
-0.06344,0.06832,-0.0732,-0.04148,-0.00976,-0.02684,0.00488,-0.05368,-0.11224,-0.15128,-0.15616,-0.06832
-0.0732,0.0732,-0.0732,-0.0366,0,-0.0366,0.00488,-0.03416,-0.11224,-0.15128,-0.15128,-0.06832
-0.05368,0.05612,-0.05856,-0.03172,-0.00488,-0.0244,0.00976,-0.03416,-0.10736,-0.1464,-0.15128,-0.06832
-0.03416,0.03904,-0.04392,-0.02684,-0.00976,-0.0122,0.01464,-0.03416,-0.10248,-0.14152,-0.14152,-0.06832
-0.04392,0.04392,-0.04392,-0.02196,0,-0.02196,0.01464,-0.03416,-0.10248,-0.14152,-0.14152,-0.06832
-0.06344,0.05368,-0.04392,-0.0122,0.01952,-0.04148,0.01464,-0.02928,-0.10248,-0.14152,-0.1464,-0.06832
-0.06832,0.06588,-0.06344,-0.02928,0.00488,-0.0366,0,-0.02928,-0.0976,-0.14152,-0.1464,-0.06832
-0.0732,0.07808,-0.08296,-0.04636,-0.00976,-0.03172,-0.00976,-0.02928,-0.0976,-0.13176,-0.13664,-0.06832
-0.06344,0.06588,-0.06832,-0.0366,-0.00488,-0.02928,0,-0.02928,-0.09272,-0.13176,-0.13664,-0.06344
-0.06344,0.061,-0.05856,-0.02684,0.00488,-0.03416,0.00976,-0.0244,-0.08784,-0.13176,-0.13664,-0.06344
-0.06832,0.061,-0.05368,-0.01952,0.01464,-0.04148,0.00976,-0.0244,-0.08784,-0.13176,-0.13664,-0.05368
-0.06832,0.05612,-0.04392,-0.00976,0.0244,-0.04636,0.00976,-0.0244,-0.07808,-0.12688,-0.13176,-0.03904
-0.04392,0.04148,-0.03904,-0.01708,0.00488,-0.0244,0.00488,-0.03416,-0.08784,-0.13176,-0.13176,-0.0488
-0.01952,0.02928,-0.03904,-0.02928,-0.01952,0,0,-0.03904,-0.0976,-0.13176,-0.13176,-0.05368
-0.0244,0.03172,-0.03904,-0.02684,-0.01464,-0.00488,-0.00488,-0.03904,-0.09272,-0.13176,-0.13664,-0.05856
-0.03904,0.04392,-0.0488,-0.02928,-0.00976,-0.01464,-0.00976,-0.03904,-0.09272,-0.13664,-0.14152,-0.06344
-0.02928,0.03904,-0.0488,-0.03416,-0.01952,-0.00488,-0.00976,-0.03904,-0.08784,-0.13664,-0.14152,-0.06832
-0.03904,0.04392,-0.0488,-0.02928,-0.00976,-0.01464,-0.00976,-0.03416,-0.08296,-0.13176,-0.13664,-0.06832
-0.04392,0.04392,-0.04392,-0.02196,0,-0.02196,-0.00488,-0.01952,-0.07808,-0.122,-0.12688,-0.06344
-0.04392,0.04148,-0.03904,-0.01708,0.00488,-0.0244,0,-0.00488,-0.0732,-0.11712,-0.11712,-0.05856
-0.0244,0.02196,-0.01952,-0.00732,0.00488,-0.01464,0,-0.01464,-0.0732,-0.11712,-0.11712,-0.05368
-0.00976,0.00976,-0.00976,-0.00488,0,-0.00488,0,-0.01464,-0.06832,-0.11224,-0.11224,-0.0488
-0.0244,0.01708,-0.00976,0.00244,0.01464,-0.01952,0,-0.01464,-0.0732,-0.10736,-0.11224,-0.0488
-0.03904,0.0244,-0.00976,0.00976,0.02928,-0.03416,0,-0.01952,-0.0732,-0.11224,-0.11224,-0.0488
-0.04392,0.03172,-0.01952,0.00244,0.0244,-0.03416,-0.00488,-0.01464,-0.06832,-0.11712,-0.11224,-0.0488
-0.03904,0.02928,-0.01952,0,0.01952,-0.02928,-0.00488,-0.01464,-0.06832,-0.11712,-0.11712,-0.04392
-0.03904,0.03172,-0.0244,-0.00488,0.01464,-0.02684,-0.00976,-0.01464,-0.06344,-0.10736,-0.11712,-0.04392
-0.03416,0.03172,-0.02928,-0.0122,0.00488,-0.01952,-0.01464,-0.01464,-0.06344,-0.10248,-0.11224,-0.04392
-0.03416,0.02928,-0.0244,-0.00732,0.00976,-0.02196,-0.01464,-0.00488,-0.05368,-0.0976,-0.10736,-0.03416
-0.03416,0.02928,-0.0244,-0.00732,0.00976,-0.02196,-0.01952,-0.00488,-0.05368,-0.0976,-0.10736,-0.03416
-0.02928,0.01708,-0.00488,0.00976,0.0244,-0.02684,-0.01464,0,-0.03904,-0.08784,-0.09272,-0.0244
-0.0244,0.0122,0,0.0122,0.0244,-0.0244,-0.00976,0.00976,-0.03416,-0.08296,-0.0732,-0.01464
-0.0244,0.00244,0.01952,0.03172,0.04392,-0.03416,-0.01952,0.01464,-0.01952,-0.0732,-0.06832,-0.00976
-0.01952,-0.00732,0.03416,0.04392,0.05368,-0.0366,-0.0244,0.0244,-0.00976,-0.06344,-0.05368,0.00488
-0.00976,-0.01952,0.0488,0.05368,0.05856,-0.03416,-0.02928,0.0244,-0.00488,-0.05368,-0.04392,0.01952
0.00488,-0.03904,0.0732,0.07076,0.06832,-0.03172,-0.02928,0.03416,0.00488,-0.03904,-0.02928,0.03416
0.01464,-0.04636,0.07808,0.07076,0.06344,-0.0244,-0.03416,0.0488,0.02928,-0.01952,-0.00976,0.05856
0.04392,-0.07076,0.0976,0.07564,0.05368,-0.00488,-0.04392,0.05856,0.03904,0,0.00976,0.0732
0.05368,-0.0854,0.11712,0.09028,0.06344,-0.00488,-0.05368,0.06832,0.06344,0.01464,0.01464,0.08784
0.0732,-0.10492,0.13664,0.10004,0.06344,0.00488,-0.06344,0.06832,0.0732,0.03904,0.03416,0.0976
0.06832,-0.1098,0.15128,0.11712,0.08296,-0.00732,-0.0732,0.07808,0.08296,0.06344,0.06344,0.11712
0.05368,-0.11468,0.17568,0.14884,0.122,-0.03416,-0.08296,0.08784,0.11224,0.08296,0.0976,0.15128
0.05856,-0.12688,0.1952,0.16592,0.13664,-0.03904,-0.08784,0.09272,0.122,0.10248,0.122,0.1708
0.06832,-0.13908,0.20984,0.17568,0.14152,-0.0366,-0.0976,0.09272,0.13176,0.11712,0.13664,0.19032
0.0732,-0.1464,0.2196,0.183,0.1464,-0.0366,-0.0976,0.08296,0.13176,0.122,0.14152,0.1952
0.07808,-0.15128,0.22448,0.18544,0.1464,-0.03416,-0.10736,0.0732,0.12688,0.13176,0.16592,0.20984
0.07808,-0.15616,0.23424,0.1952,0.15616,-0.03904,-0.11712,0.0732,0.13664,0.1464,0.1708,0.22448
0.09272,-0.16836,0.244,0.19764,0.15128,-0.02928,-0.11712,0.0732,0.14152,0.16104,0.18544,0.244
0.0976,-0.16836,0.23912,0.19032,0.14152,-0.02196,-0.11712,0.07808,0.14152,0.16104,0.18056,0.22936
0.0976,-0.17324,0.24888,0.20008,0.15128,-0.02684,-0.11712,0.08296,0.13664,0.15616,0.17568,0.21472
0.09272,-0.16104,0.22936,0.183,0.13664,-0.02196,-0.11712,0.0732,0.13176,0.14152,0.16592,0.20984
0.09272,-0.1464,0.20008,0.15372,0.10736,-0.00732,-0.11712,0.06344,0.12688,0.13176,0.16104,0.1952
0.08784,-0.13908,0.19032,0.1464,0.10248,-0.00732,-0.10736,0.06344,0.122,0.122,0.1464,0.17568
0.07808,-0.12932,0.18056,0.14152,0.10248,-0.0122,-0.0976,0.05368,0.11224,0.0976,0.122,0.16104
0.05856,-0.10736,0.15616,0.12688,0.0976,-0.01952,-0.08784,0.05856,0.09272,0.08784,0.11224,0.14152
0.04392,-0.09516,0.1464,0.12444,0.10248,-0.02928,-0.07808,0.05368,0.07808,0.0732,0.0976,0.12688
0.05856,-0.09028,0.122,0.09272,0.06344,-0.00244,-0.06832,0.04392,0.05856,0.0488,0.06832,0.0976
0.06344,-0.0854,0.10736,0.07564,0.04392,0.00976,-0.05368,0.04392,0.0488,0.02928,0.04392,0.0732
0.03416,-0.05612,0.07808,0.061,0.04392,-0.00488,-0.03416,0.02928,0.02928,0.01464,0.0244,0.06344
0.01952,-0.04392,0.06832,0.05856,0.0488,-0.01464,-0.01464,0.0244,0.00976,-0.00488,0.00976,0.05368
0.01464,-0.02684,0.03904,0.03172,0.0244,-0.00488,-0.0244,0.00488,-0.00488,-0.01952,-0.0244,0.01952
-0.00488,-0.00488,0.01464,0.01708,0.01952,-0.0122,-0.03416,-0.00976,-0.0244,-0.03904,-0.04392,-0.00976
0.01464,-0.00976,0.00488,-0.00244,-0.00976,0.0122,-0.02928,-0.00976,-0.03904,-0.06344,-0.05856,-0.0244
0.03416,-0.01464,-0.00488,-0.02196,-0.03904,0.0366,-0.02928,-0.01952,-0.04392,-0.06832,-0.06832,-0.03416
0.00488,0.00488,-0.01464,-0.01708,-0.01952,0.0122,-0.01952,-0.01952,-0.04392,-0.0732,-0.0732,-0.04392
-0.00488,0.01464,-0.0244,-0.02196,-0.01952,0.00732,-0.01952,-0.01952,-0.04392,-0.07808,-0.08296,-0.04392
-0.00976,0.01952,-0.02928,-0.0244,-0.01952,0.00488,-0.01464,-0.01464,-0.04392,-0.0732,-0.07808,-0.05856
-0.01952,0.02928,-0.03904,-0.02928,-0.01952,0,-0.01464,-0.00976,-0.04392,-0.06344,-0.0732,-0.06344
-0.01952,0.0244,-0.02928,-0.01952,-0.00976,-0.00488,-0.01464,-0.00488,-0.0488,-0.0732,-0.07808,-0.06344
-0.01952,0.01708,-0.01464,-0.00488,0.00488,-0.0122,-0.00976,0,-0.05368,-0.07808,-0.07808,-0.06344
-0.01952,0.01952,-0.01952,-0.00976,0,-0.00976,-0.00976,-0.01952,-0.05856,-0.08296,-0.08296,-0.06344
-0.01952,0.0244,-0.02928,-0.01952,-0.00976,-0.00488,-0.00976,-0.03416,-0.06344,-0.08784,-0.08296,-0.06344
-0.01464,0.02196,-0.02928,-0.02196,-0.01464,0,-0.01464,-0.02928,-0.06344,-0.08784,-0.08784,-0.06344
-0.00976,0.01952,-0.02928,-0.0244,-0.01952,0.00488,-0.01464,-0.02928,-0.06832,-0.0976,-0.09272,-0.06832
-0.00976,0.02196,-0.03416,-0.02928,-0.0244,0.00732,-0.00976,-0.0244,-0.06344,-0.09272,-0.0976,-0.06832
-0.00976,0.0244,-0.03904,-0.03416,-0.02928,0.00976,0,-0.01464,-0.05856,-0.08784,-0.0976,-0.06832
-0.01464,0.02196,-0.02928,-0.02196,-0.01464,0,0,-0.01464,-0.05856,-0.07808,-0.08296,-0.0732
-0.00488,0.0122,-0.01952,-0.01708,-0.01464,0.00488,0,-0.01464,-0.05856,-0.06832,-0.06832,-0.0732
-0.0244,0.03416,-0.04392,-0.03172,-0.01952,-0.00244,-0.00976,-0.03416,-0.06832,-0.08296,-0.08296,-0.07808
-0.04392,0.05612,-0.06832,-0.04636,-0.0244,-0.00976,-0.01464,-0.05368,-0.07808,-0.0976,-0.09272,-0.07808
-0.0244,0.03904,-0.05368,-0.04148,-0.02928,0.00244,-0.01952,-0.05368,-0.08296,-0.10248,-0.0976,-0.08296
0,0.01952,-0.03904,-0.03904,-0.03904,0.01952,-0.01952,-0.05368,-0.08296,-0.11224,-0.10248,-0.08296
-0.00976,0.0244,-0.03904,-0.03416,-0.02928,0.00976,-0.01952,-0.0488,-0.07808,-0.10248,-0.10248,-0.08296
-0.01952,0.02928,-0.03904,-0.02928,-0.01952,0,-0.01952,-0.04392,-0.0732,-0.09272,-0.10248,-0.08784
-0.02928,0.04148,-0.05368,-0.03904,-0.0244,-0.00244,-0.00976,-0.04392,-0.0732,-0.09272,-0.09272,-0.09272
-0.02928,0.03904,-0.0488,-0.03416,-0.01952,-0.00488,0,-0.03416,-0.06832,-0.08296,-0.07808,-0.09272
-0.01952,0.03416,-0.0488,-0.03904,-0.02928,0.00488,0,-0.02928,-0.06832,-0.08784,-0.08296,-0.08784
-0.01464,0.03172,-0.0488,-0.04148,-0.03416,0.00976,0,-0.02928,-0.0732,-0.0976,-0.08784,-0.08784
-0.01464,0.03172,-0.0488,-0.04148,-0.03416,0.00976,-0.00488,-0.0244,-0.0732,-0.0976,-0.09272,-0.08784
-0.01952,0.0366,-0.05368,-0.04392,-0.03416,0.00732,-0.00976,-0.01464,-0.0732,-0.10248,-0.0976,-0.08784
-0.01952,0.0366,-0.05368,-0.04392,-0.03416,0.00732,-0.00976,-0.01464,-0.0732,-0.10248,-0.10248,-0.10248
-0.01952,0.0366,-0.05368,-0.04392,-0.03416,0.00732,-0.00976,-0.01952,-0.0732,-0.10736,-0.10736,-0.11224
-0.0244,0.03904,-0.05368,-0.04148,-0.02928,0.00244,-0.00488,-0.0244,-0.0732,-0.10736,-0.10736,-0.11224
-0.01952,0.0366,-0.05368,-0.04392,-0.03416,0.00732,-0.00488,-0.0244,-0.0732,-0.10736,-0.10736,-0.11224
-0.0244,0.03416,-0.04392,-0.03172,-0.01952,-0.00244,0,-0.0244,-0.06832,-0.10248,-0.0976,-0.10248
-0.0244,0.02928,-0.03416,-0.02196,-0.00976,-0.00732,0.00976,-0.02928,-0.06344,-0.10248,-0.08784,-0.09272
-0.02928,0.0366,-0.04392,-0.02928,-0.01464,-0.00732,0.00976,-0.02928,-0.06344,-0.10248,-0.08784,-0.09272
-0.05856,0.05856,-0.05856,-0.02928,0,-0.02928,0.00976,-0.0244,-0.06344,-0.10248,-0.08784,-0.09272
-0.05856,0.05612,-0.05368,-0.0244,0.00488,-0.03172,0.00976,-0.01952,-0.06344,-0.10248,-0.08784,-0.09272
-0.05368,0.05368,-0.05368,-0.02684,0,-0.02684,0.00976,-0.01952,-0.06344,-0.10736,-0.09272,-0.0976
-0.03416,0.04148,-0.0488,-0.03172,-0.01464,-0.00976,0.00488,-0.02928,-0.06344,-0.0976,-0.09272,-0.0976
-0.01952,0.03416,-0.0488,-0.03904,-0.02928,0.00488,0,-0.03416,-0.06344,-0.0976,-0.08296,-0.09272
-0.01952,0.03416,-0.0488,-0.03904,-0.02928,0.00488,0,-0.0244,-0.06344,-0.09272,-0.08296,-0.09272
-0.01952,0.03416,-0.0488,-0.03904,-0.02928,0.00488,0,-0.01464,-0.05856,-0.08784,-0.08296,-0.08784
-0.01952,0.03172,-0.04392,-0.03416,-0.0244,0.00244,0,-0.01464,-0.05856,-0.08784,-0.07808,-0.08784
-0.01952,0.02928,-0.03904,-0.02928,-0.01952,0,0,-0.01464,-0.05856,-0.07808,-0.07808,-0.08296
-0.02928,0.03416,-0.03904,-0.0244,-0.00976,-0.00976,0,-0.01464,-0.05856,-0.07808,-0.07808,-0.08296
-0.03416,0.0366,-0.03904,-0.02196,-0.00488,-0.01464,0,-0.01464,-0.05856,-0.07808,-0.0732,-0.08296
-0.02928,0.03172,-0.03416,-0.01952,-0.00488,-0.0122,0,-0.01952,-0.05368,-0.0732,-0.0732,-0.08784
-0.02928,0.03172,-0.03416,-0.01952,-0.00488,-0.0122,0,-0.0244,-0.05368,-0.0732,-0.0732,-0.09272
-0.01952,0.02928,-0.03904,-0.02928,-0.01952,0,0,-0.01952,-0.04392,-0.06832,-0.06832,-0.08784
-0.00976,0.02196,-0.03416,-0.02928,-0.0244,0.00732,0,-0.01464,-0.03904,-0.06832,-0.06344,-0.07808
-0.00976,0.0244,-0.03904,-0.03416,-0.02928,0.00976,0,-0.01464,-0.0488,-0.05856,-0.05856,-0.07808
-0.00976,0.02928,-0.0488,-0.04392,-0.03904,0.01464,0,-0.01952,-0.05856,-0.0488,-0.05856,-0.07808
0.00488,0.01708,-0.03904,-0.04148,-0.04392,0.0244,0,-0.01952,-0.0488,-0.0488,-0.05856,-0.07808
0.01952,0.00488,-0.02928,-0.03904,-0.0488,0.03416,0,-0.01952,-0.03904,-0.0488,-0.05856,-0.07808
0.01952,0.00488,-0.02928,-0.03904,-0.0488,0.03416,0,-0.01952,-0.03904,-0.0488,-0.05856,-0.08296
0,0.01708,-0.03416,-0.03416,-0.03416,0.01708,0,-0.01952,-0.03904,-0.04392,-0.05368,-0.08296
-0.01464,0.02928,-0.04392,-0.0366,-0.02928,0.00732,0,-0.01952,-0.03904,-0.04392,-0.0488,-0.08784
-0.03904,0.0488,-0.05856,-0.03904,-0.01952,-0.00976,0,-0.01952,-0.03904,-0.04392,-0.0488,-0.08784
-0.03904,0.04148,-0.04392,-0.0244,-0.00488,-0.01708,0.00488,-0.01464,-0.03416,-0.03904,-0.0488,-0.08296
-0.00488,0.00976,-0.01464,-0.0122,-0.00976,0.00244,0.00488,-0.01464,-0.03416,-0.03416,-0.03416,-0.07808
-0.00488,0.00488,-0.00488,-0.00244,0,-0.00244,0.00976,-0.00976,-0.03416,-0.03416,-0.03416,-0.07808
-0.00488,0.00488,-0.00488,-0.00244,0,-0.00244,0.00488,-0.01464,-0.03416,-0.03904,-0.02928,-0.07808
0.01952,-0.01708,0.01464,0.00488,-0.00488,0.0122,0.00976,-0.00976,-0.02928,-0.03416,-0.03416,-0.07808
0.03904,-0.0366,0.03416,0.01464,-0.00488,0.02196,0.00976,-0.00976,-0.0244,-0.03416,-0.03904,-0.07808
0.00976,-0.01464,0.01952,0.01464,0.00976,0,0.01464,-0.00976,-0.01952,-0.0244,-0.03416,-0.06832
-0.01464,0.00732,0,0.00732,0.01464,-0.01464,0.00488,-0.02928,-0.01952,-0.0244,-0.03416,-0.06832
0,-0.0122,0.0244,0.0244,0.0244,-0.0122,-0.00976,-0.03416,-0.0244,-0.0244,-0.02928,-0.06832
0.0244,-0.02928,0.03416,0.02196,0.00976,0.00732,-0.01952,-0.03416,-0.0244,-0.01952,-0.0244,-0.06344
0.05856,-0.05612,0.05368,0.0244,-0.00488,0.03172,-0.01952,-0.01952,-0.00976,0,0,-0.03904
0.08784,-0.07808,0.06832,0.0244,-0.01952,0.05368,-0.01952,0.00488,0.00976,0.00976,0.01464,-0.0244
0.05856,-0.05368,0.0488,0.01952,-0.00976,0.03416,-0.02928,-0.01952,-0.00488,0,0.00488,-0.04392
0.01952,-0.0244,0.02928,0.01952,0.00976,0.00488,-0.03416,-0.03904,-0.01952,-0.00488,0,-0.05368
0.01952,-0.02196,0.0244,0.01464,0.00488,0.00732,-0.04392,-0.04392,-0.0244,-0.00976,-0.00488,-0.0488
0.02928,-0.0244,0.01952,0.00488,-0.00976,0.01952,-0.05368,-0.04392,-0.0244,-0.01464,-0.00488,-0.0488
0.00976,-0.01464,0.01952,0.01464,0.00976,0,-0.05368,-0.04392,-0.02928,-0.01464,-0.00488,-0.0488
-0.00488,-0.00488,0.01464,0.01708,0.01952,-0.0122,-0.04392,-0.04392,-0.03416,-0.00976,0,-0.05368
0.0244,-0.01708,0.00976,-0.00244,-0.01464,0.01952,-0.04392,-0.04392,-0.03904,-0.00976,0,-0.05368
0.0488,-0.02196,-0.00488,-0.02928,-0.05368,0.05124,-0.03416,-0.04392,-0.04392,-0.01464,-0.00976,-0.05856
0.02928,-0.00488,-0.01952,-0.03416,-0.0488,0.03904,-0.0244,-0.04392,-0.04392,-0.03416,-0.03416,-0.08296
0.01464,0.00976,-0.03416,-0.04148,-0.0488,0.03172,-0.0244,-0.04392,-0.05856,-0.05856,-0.06832,-0.11224
-0.00976,0.03904,-0.06832,-0.06344,-0.05856,0.0244,-0.01952,-0.04392,-0.06832,-0.06344,-0.06832,-0.122
-0.0244,0.05124,-0.07808,-0.06588,-0.05368,0.01464,-0.00976,-0.03904,-0.06832,-0.05856,-0.05856,-0.122
-0.0244,0.05368,-0.08296,-0.07076,-0.05856,0.01708,-0.00976,-0.03904,-0.06832,-0.05856,-0.06344,-0.11712
-0.0244,0.05368,-0.08296,-0.07076,-0.05856,0.01708,-0.00976,-0.04392,-0.0732,-0.06832,-0.06832,-0.11224
-0.01952,0.061,-0.10248,-0.09272,-0.08296,0.03172,-0.00976,-0.0488,-0.07808,-0.07808,-0.07808,-0.122
-0.00976,0.05856,-0.10736,-0.10248,-0.0976,0.04392,-0.00976,-0.0488,-0.08296,-0.07808,-0.08784,-0.13176
-0.0244,0.06588,-0.10736,-0.09516,-0.08296,0.02928,-0.00488,-0.05368,-0.08296,-0.07808,-0.08784,-0.13176
-0.0244,0.06832,-0.11224,-0.10004,-0.08784,0.03172,-0.00488,-0.05856,-0.07808,-0.07808,-0.08784,-0.13176
-0.00976,0.061,-0.11224,-0.10736,-0.10248,0.04636,-0.00488,-0.05368,-0.07808,-0.07808,-0.07808,-0.13176
0.01464,0.05124,-0.11712,-0.12444,-0.13176,0.0732,-0.00488,-0.05368,-0.08296,-0.08296,-0.0732,-0.13664
0,0.061,-0.122,-0.122,-0.122,0.061,-0.00976,-0.06344,-0.08296,-0.08784,-0.08784,-0.13664
-0.00976,0.06588,-0.122,-0.11712,-0.11224,0.05124,-0.01464,-0.06832,-0.08296,-0.09272,-0.10248,-0.13664
-0.00976,0.06588,-0.122,-0.11712,-0.11224,0.05124,-0.01464,-0.06344,-0.08296,-0.09272,-0.10248,-0.14152
-0.00976,0.06588,-0.122,-0.11712,-0.11224,0.05124,-0.01464,-0.06344,-0.08784,-0.0976,-0.10248,-0.1464
-0.01952,0.0732,-0.12688,-0.11712,-0.10736,0.04392,0,-0.05856,-0.08784,-0.09272,-0.09272,-0.15128
-0.02928,0.07808,-0.12688,-0.11224,-0.0976,0.03416,0.01952,-0.05368,-0.08784,-0.08296,-0.08784,-0.15128
-0.02928,0.08784,-0.1464,-0.13176,-0.11712,0.04392,0.01952,-0.0488,-0.07808,-0.08296,-0.08784,-0.15128
-0.05368,0.10736,-0.16104,-0.1342,-0.10736,0.02684,0.04392,-0.01952,-0.05368,-0.08296,-0.09272,-0.16592
-0.10248,0.1342,-0.16592,-0.11468,-0.06344,-0.01952,0.08296,0,-0.03904,-0.07808,-0.11224,-0.18544
-0.13176,0.15128,-0.1708,-0.10492,-0.03904,-0.04636,0.10248,0.02928,-0.03416,-0.0732,-0.122,-0.1952
-0.10736,0.12688,-0.1464,-0.09272,-0.03904,-0.03416,0.10248,0.03904,-0.01464,-0.0488,-0.09272,-0.16592
-0.08296,0.09516,-0.10736,-0.06588,-0.0244,-0.02928,0.11224,0.10736,0.08784,0.05368,0,-0.09272
-0.01952,0.05124,-0.08296,-0.0732,-0.06344,0.02196,0.19032,0.33184,0.33672,0.26352,0.19032,0.03416
0.07808,-0.02684,-0.0244,-0.06344,-0.10248,0.09028,0.2196,0.50264,0.58072,0.50752,0.42944,0.20984
0.21472,-0.13664,0.05856,-0.0488,-0.15616,0.18544,0.16104,0.59048,0.79056,0.76128,0.72712,0.46848
0.38064,-0.28792,0.1952,0.00488,-0.18544,0.28304,-0.00488,0.55144,0.90768,1.01016,1.05408,0.76128
0.5368,-0.42944,0.32208,0.05368,-0.21472,0.37576,-0.27328,0.4148,0.93208,1.18584,1.36152,1.01016
0.67344,-0.55876,0.44408,0.10736,-0.22936,0.4514,-0.5368,0.27816,0.9028,1.2444,1.5128,1.20048
0.71248,-0.62464,0.5368,0.18056,-0.17568,0.44408,-0.77104,-0.10248,0.58072,1.03456,1.342,1.14192
0.62952,-0.59292,0.55632,0.24156,-0.0732,0.35136,-0.89792,-0.49776,0.13176,0.67344,1.00528,0.9272
0.43432,-0.41968,0.40504,0.18788,-0.02928,0.2318,-0.91256,-0.79544,-0.44896,0.10248,0.40992,0.50264
0.1952,-0.19276,0.19032,0.09272,-0.00488,0.10004,-0.81496,-0.99552,-0.93696,-0.45384,-0.16104,0.0732
0.0732,-0.03172,-0.00976,-0.04636,-0.08296,0.07808,-0.59536,-0.88816,-0.9272,-0.5612,-0.31232,-0.09272
0.03416,0.06832,-0.1708,-0.18788,-0.20496,0.11956,-0.38552,-0.61976,-0.732,-0.54168,-0.36112,-0.18544
0.03904,0.04392,-0.12688,-0.1464,-0.16592,0.10248,-0.25376,-0.35624,-0.47336,-0.38064,-0.27328,-0.18544
0.03904,0.0244,-0.08784,-0.10736,-0.12688,0.08296,-0.16592,-0.16104,-0.28304,-0.24888,-0.1952,-0.1708
0.01952,0.0488,-0.11712,-0.12688,-0.13664,0.07808,-0.05856,-0.0488,-0.15616,-0.15128,-0.13176,-0.14152
-0.01464,0.07808,-0.14152,-0.1342,-0.12688,0.05612,0,-0.03904,-0.11224,-0.10248,-0.10248,-0.13176
-0.00976,0.07564,-0.14152,-0.13664,-0.13176,0.061,0.01464,-0.03904,-0.10248,-0.0976,-0.08784,-0.13176
-0.00488,0.06588,-0.12688,-0.12444,-0.122,0.05856,0.0244,-0.03904,-0.09272,-0.08784,-0.0732,-0.13176
-0.0244,0.07564,-0.12688,-0.11468,-0.10248,0.03904,0.0244,-0.04392,-0.07808,-0.0732,-0.0732,-0.12688
-0.0244,0.07564,-0.12688,-0.11468,-0.10248,0.03904,0.01464,-0.05368,-0.08784,-0.07808,-0.07808,-0.122
-0.01464,0.0732,-0.13176,-0.12444,-0.11712,0.05124,0.01464,-0.0488,-0.08296,-0.08296,-0.08296,-0.122
-0.01464,0.0732,-0.13176,-0.12444,-0.11712,0.05124,0.01464,-0.0244,-0.0732,-0.08296,-0.08296,-0.11712
-0.01952,0.07564,-0.13176,-0.122,-0.11224,0.04636,0.01952,-0.0244,-0.06832,-0.07808,-0.09272,-0.11712
-0.0244,0.07808,-0.13176,-0.11956,-0.10736,0.04148,0.0244,-0.0244,-0.06344,-0.0732,-0.09272,-0.11712
-0.03904,0.09516,-0.15128,-0.13176,-0.11224,0.0366,0.0244,-0.0244,-0.06344,-0.07808,-0.09272,-0.13664
-0.06344,0.11712,-0.1708,-0.13908,-0.10736,0.02196,0.0244,-0.01952,-0.06344,-0.08296,-0.0976,-0.15616
-0.05368,0.10736,-0.16104,-0.1342,-0.10736,0.02684,0.00976,-0.00976,-0.05368,-0.08296,-0.09272,-0.1464
-0.04392,0.0976,-0.15128,-0.12932,-0.10736,0.03172,0,0,-0.0488,-0.0732,-0.07808,-0.13664
-0.0244,0.0854,-0.1464,-0.1342,-0.122,0.0488,0.00976,-0.01464,-0.0488,-0.0732,-0.07808,-0.13176
-0.01464,0.08052,-0.1464,-0.13908,-0.13176,0.05856,0.01952,-0.0244,-0.0488,-0.0732,-0.07808,-0.13176
-0.01952,0.08052,-0.14152,-0.13176,-0.122,0.05124,0.01952,-0.0244,-0.0488,-0.06832,-0.07808,-0.12688
-0.01952,0.07564,-0.13176,-0.122,-0.11224,0.04636,0.01952,-0.0244,-0.03904,-0.05856,-0.0732,-0.11712
-0.01952,0.0732,-0.12688,-0.11712,-0.10736,0.04392,0.02928,-0.01952,-0.03904,-0.05856,-0.06344,-0.11712
-0.01952,0.0732,-0.12688,-0.11712,-0.10736,0.04392,0.03904,-0.00976,-0.03904,-0.05368,-0.05368,-0.11224
-0.00976,0.06344,-0.11712,-0.11224,-0.10736,0.0488,0.03416,-0.00976,-0.03416,-0.0488,-0.05368,-0.11224
-0.00976,0.06344,-0.11712,-0.11224,-0.10736,0.0488,0.02928,-0.00976,-0.03416,-0.0488,-0.05368,-0.11224
-0.00976,0.06344,-0.11712,-0.11224,-0.10736,0.0488,0.02928,-0.00976,-0.03416,-0.0488,-0.05368,-0.11224
-0.02928,0.0732,-0.11712,-0.10248,-0.08784,0.02928,0.02928,-0.00488,-0.03416,-0.04392,-0.0488,-0.10736
-0.03416,0.08052,-0.12688,-0.1098,-0.09272,0.02928,0.0244,-0.00488,-0.03416,-0.04392,-0.0488,-0.10736
-0.03416,0.0854,-0.13664,-0.11956,-0.10248,0.03416,0.01952,-0.00488,-0.03416,-0.0488,-0.0488,-0.10736
-0.04392,0.09028,-0.13664,-0.11468,-0.09272,0.0244,0.01952,-0.01952,-0.03904,-0.0488,-0.0488,-0.10248
-0.05856,0.10248,-0.1464,-0.11712,-0.08784,0.01464,0.01952,-0.0244,-0.03904,-0.04392,-0.04392,-0.0976
-0.03416,0.07808,-0.122,-0.10492,-0.08784,0.02684,0.00976,-0.01952,-0.03904,-0.03416,-0.04392,-0.0976
-0.00976,0.05368,-0.0976,-0.09272,-0.08784,0.03904,0,-0.01952,-0.03416,-0.03416,-0.04392,-0.0976
-0.00488,0.05124,-0.0976,-0.09516,-0.09272,0.04392,-0.01464,-0.00976,-0.02928,-0.03904,-0.03904,-0.0976
0.00976,0.03904,-0.08784,-0.09272,-0.0976,0.05368,-0.0244,-0.00488,-0.02928,-0.03904,-0.03904,-0.09272
0.00976,0.04392,-0.0976,-0.10248,-0.10736,0.05856,-0.00488,-0.01464,-0.0244,-0.02928,-0.03904,-0.0976
0.01464,0.04636,-0.10736,-0.11468,-0.122,0.06832,0.01464,-0.0244,-0.0244,-0.0244,-0.03416,-0.10248
0.00488,0.05856,-0.122,-0.12444,-0.12688,0.06588,0.01464,-0.01464,-0.01464,-0.01952,-0.02928,-0.09272
-0.00488,0.0732,-0.14152,-0.13908,-0.13664,0.06588,0.00976,-0.01464,-0.01464,-0.01952,-0.02928,-0.09272
0,0.05368,-0.10736,-0.10736,-0.10736,0.05368,0.00976,-0.00488,0,0,-0.01464,-0.07808
0.00488,0.04148,-0.08784,-0.09028,-0.09272,0.0488,0.00976,0.00976,0.00488,0.01464,0.00488,-0.06344
0.00488,0.03172,-0.06832,-0.07076,-0.0732,0.03904,-0.00488,0.01464,0.01952,0.0244,0.00976,-0.0488
0.00976,0.02196,-0.05368,-0.05856,-0.06344,0.0366,-0.01464,0.0244,0.02928,0.03416,0.0244,-0.0244
0.0244,0.0122,-0.0488,-0.061,-0.0732,0.0488,-0.03416,0.00976,0.0244,0.03416,0.0244,-0.02928
0.04392,-0.00488,-0.03416,-0.05612,-0.07808,0.061,-0.0488,0.00488,0.0244,0.03904,0.02928,-0.03416
0.03416,0,-0.03416,-0.05124,-0.06832,0.05124,-0.04392,0.0244,0.0488,0.05856,0.0488,-0.00976
0.04392,-0.0122,-0.01952,-0.04148,-0.06344,0.05368,-0.04392,0.03904,0.05856,0.07808,0.06832,0.00488
0.02928,-0.01464,0,-0.01464,-0.02928,0.02928,-0.0488,0.0488,0.0976,0.09272,0.08296,0.0244
0.0244,-0.02196,0.01952,0.00732,-0.00488,0.01464,-0.05368,0.0488,0.122,0.11712,0.11224,0.03904
0.05368,-0.04636,0.03904,0.0122,-0.01464,0.03416,-0.06344,0.0488,0.11712,0.13664,0.13664,0.05856
0.0732,-0.07076,0.06832,0.03172,-0.00488,0.03904,-0.0732,0.0488,0.13176,0.15128,0.16592,0.09272
0.07808,-0.08784,0.0976,0.05856,0.01952,0.02928,-0.06832,0.05368,0.14152,0.1708,0.1952,0.11712
0.08784,-0.10492,0.122,0.07808,0.03416,0.02684,-0.06832,0.05368,0.15128,0.18544,0.21472,0.14152
0.08784,-0.1098,0.13176,0.08784,0.04392,0.02196,-0.07808,0.05368,0.15616,0.19032,0.2196,0.15128
0.08784,-0.11224,0.13664,0.09272,0.0488,0.01952,-0.0976,0.05368,0.15616,0.20008,0.244,0.1708
0.08784,-0.122,0.15616,0.11224,0.06832,0.00976,-0.11712,0.05368,0.16592,0.21472,0.25376,0.18544
0.10248,-0.13908,0.17568,0.12444,0.0732,0.01464,-0.12688,0.05368,0.1708,0.22936,0.27328,0.20496
0.122,-0.15616,0.19032,0.12932,0.06832,0.02684,-0.11224,0.0488,0.17568,0.23424,0.27328,0.20496
0.13664,-0.17812,0.2196,0.15128,0.08296,0.02684,-0.0976,0.04392,0.17568,0.23424,0.27328,0.20496
0.11224,-0.15128,0.19032,0.1342,0.07808,0.01708,-0.0976,0.03904,0.1708,0.2196,0.25864,0.20008
0.09272,-0.122,0.15128,0.10492,0.05856,0.01708,-0.0976,0.03416,0.16592,0.20984,0.24888,0.18544
0.09272,-0.11224,0.13176,0.0854,0.03904,0.02684,-0.0976,0.03416,0.15616,0.20496,0.22936,0.16592
0.08784,-0.10004,0.11224,0.06832,0.0244,0.03172,-0.0976,0.0244,0.14152,0.18544,0.20008,0.15128
0.06832,-0.08052,0.09272,0.05856,0.0244,0.02196,-0.07808,0.0244,0.12688,0.1708,0.18544,0.13176
0.05368,-0.07076,0.08784,0.061,0.03416,0.00976,-0.05856,0.01464,0.11712,0.15128,0.16592,0.11712
0.05368,-0.0488,0.04392,0.01708,-0.00976,0.03172,-0.04392,0.00488,0.0976,0.12688,0.13664,0.08784
0.04392,-0.02684,0.00976,-0.0122,-0.03416,0.03904,-0.0244,0.00488,0.08784,0.10736,0.11224,0.06344
0.04392,-0.01708,-0.00976,-0.03172,-0.05368,0.0488,-0.01464,0,0.06832,0.09272,0.0976,0.04392
0.05856,-0.0244,-0.00976,-0.03904,-0.06832,0.06344,-0.00488,0.00488,0.0488,0.0732,0.08784,0.0244
0.03904,-0.00488,-0.02928,-0.0488,-0.06832,0.05368,-0.00488,-0.00488,0.0488,0.05856,0.05856,0.00488
0.00488,0.01952,-0.04392,-0.04636,-0.0488,0.02684,-0.00488,-0.00976,0.04392,0.03904,0.04392,-0.00976
0.00488,0.0244,-0.05368,-0.05612,-0.05856,0.03172,-0.00488,-0.00976,0.01464,0.01464,0.01464,-0.0244
0.00488,0.02928,-0.06344,-0.06588,-0.06832,0.0366,-0.00976,-0.01952,-0.00488,0.00976,-0.00976,-0.03416
-0.01464,0.04148,-0.06832,-0.061,-0.05368,0.01952,0,-0.01464,-0.00488,0.00488,0,-0.04392
-0.01464,0.04392,-0.0732,-0.06588,-0.05856,0.02196,0,-0.00976,-0.00488,0,0.00488,-0.04392
0,0.03416,-0.06832,-0.06832,-0.06832,0.03416,0.00488,-0.00976,-0.00976,-0.00488,-0.00976,-0.06344
0.00976,0.02928,-0.06832,-0.0732,-0.07808,0.04392,0.00488,-0.00976,-0.01464,-0.00488,-0.0244,-0.0732
0.00976,0.03904,-0.08784,-0.09272,-0.0976,0.05368,0.00488,-0.01464,-0.01952,-0.01464,-0.03416,-0.08296
0.00976,0.04636,-0.10248,-0.10736,-0.11224,0.061,0.00976,-0.01952,-0.0244,-0.01952,-0.03904,-0.09272
-0.01464,0.05856,-0.10248,-0.09516,-0.08784,0.0366,0.00976,-0.0244,-0.0244,-0.01952,-0.04392,-0.09272
-0.03904,0.0732,-0.10736,-0.08784,-0.06832,0.01464,0.00976,-0.0244,-0.0244,-0.01952,-0.04392,-0.09272
-0.0244,0.06588,-0.10736,-0.09516,-0.08296,0.02928,0.00976,-0.0244,-0.0244,-0.01952,-0.03904,-0.08784
-0.00976,0.05856,-0.10736,-0.10248,-0.0976,0.04392,0.01464,-0.02928,-0.02928,-0.02928,-0.03416,-0.08784
0,0.0488,-0.0976,-0.0976,-0.0976,0.0488,0.01952,-0.03416,-0.02928,-0.01952,-0.03904,-0.08784
0.00976,0.03904,-0.08784,-0.09272,-0.0976,0.05368,0.02928,-0.03416,-0.02928,-0.00976,-0.03904,-0.08784
-0.02928,0.06832,-0.10736,-0.09272,-0.07808,0.0244,0.02928,-0.03904,-0.02928,-0.0244,-0.03904,-0.09272
-0.05368,0.09028,-0.12688,-0.10004,-0.0732,0.00976,0.02928,-0.04392,-0.02928,-0.03904,-0.03904,-0.09272
-0.04392,0.0854,-0.12688,-0.10492,-0.08296,0.01952,0.01952,-0.04392,-0.02928,-0.03904,-0.05368,-0.0976
-0.03416,0.08052,-0.12688,-0.1098,-0.09272,0.02928,0.01464,-0.04392,-0.02928,-0.03904,-0.06344,-0.0976
-0.00976,0.06588,-0.122,-0.11712,-0.11224,0.05124,0.01464,-0.02928,-0.0244,-0.02928,-0.0488,-0.0976
0.01952,0.0488,-0.11712,-0.12688,-0.13664,0.07808,0.01952,-0.01464,-0.01464,-0.0244,-0.03416,-0.09272
0,0.05368,-0.10736,-0.10736,-0.10736,0.05368,0.01952,-0.01464,-0.01464,-0.0244,-0.03416,-0.08784
-0.01952,0.05856,-0.0976,-0.08784,-0.07808,0.02928,0.01952,-0.01464,-0.01464,-0.0244,-0.03416,-0.08784
-0.0244,0.06588,-0.10736,-0.09516,-0.08296,0.02928,0.01952,-0.02928,-0.0244,-0.03416,-0.03904,-0.09272
-0.01952,0.05856,-0.0976,-0.08784,-0.07808,0.02928,0.01952,-0.03416,-0.02928,-0.03416,-0.03904,-0.09272
-0.02928,0.06588,-0.10248,-0.08784,-0.0732,0.02196,0.02928,-0.02928,-0.02928,-0.03904,-0.04392,-0.0976
-0.04392,0.07564,-0.10736,-0.0854,-0.06344,0.00976,0.03904,-0.02928,-0.03416,-0.0488,-0.0488,-0.10736
-0.02928,0.06832,-0.10736,-0.09272,-0.07808,0.0244,0.02928,-0.02928,-0.03416,-0.0488,-0.0488,-0.10736
-0.01952,0.06588,-0.11224,-0.10248,-0.09272,0.0366,0.01952,-0.0244,-0.03416,-0.05368,-0.0488,-0.10736
-0.01952,0.06832,-0.11712,-0.10736,-0.0976,0.03904,0.01952,-0.0244,-0.03904,-0.05368,-0.05856,-0.11224
-0.01952,0.07076,-0.122,-0.11224,-0.10248,0.04148,0.01952,-0.02928,-0.04392,-0.05856,-0.06832,-0.11224
-0.02928,0.07564,-0.122,-0.10736,-0.09272,0.03172,0.00976,-0.02928,-0.04392,-0.05856,-0.06832,-0.11224
-0.02928,0.07564,-0.122,-0.10736,-0.09272,0.03172,-0.00488,-0.0244,-0.04392,-0.05856,-0.06832,-0.11224
-0.03904,0.08784,-0.13664,-0.11712,-0.0976,0.02928,0.00488,-0.0244,-0.0488,-0.05856,-0.06832,-0.11224
-0.04392,0.0976,-0.15128,-0.12932,-0.10736,0.03172,0.01952,-0.02928,-0.05368,-0.06344,-0.06832,-0.11224
-0.02928,0.07808,-0.12688,-0.11224,-0.0976,0.03416,0.02928,-0.03904,-0.05856,-0.06344,-0.06832,-0.10736
-0.03904,0.0732,-0.10736,-0.08784,-0.06832,0.01464,0.03904,-0.04392,-0.06344,-0.06344,-0.06832,-0.10248
-0.03904,0.07076,-0.10248,-0.08296,-0.06344,0.0122,0.03904,-0.03904,-0.05856,-0.05856,-0.06344,-0.0976
-0.03416,0.06832,-0.10248,-0.0854,-0.06832,0.01708,0.03904,-0.03904,-0.05368,-0.05856,-0.06344,-0.0976
-0.03416,0.07076,-0.10736,-0.09028,-0.0732,0.01952,0.03904,-0.02928,-0.03904,-0.04392,-0.05856,-0.09272
-0.03904,0.07808,-0.11712,-0.0976,-0.07808,0.01952,0.03904,-0.01464,-0.0244,-0.03904,-0.04392,-0.08296
-0.02928,0.0732,-0.11712,-0.10248,-0.08784,0.02928,0.03904,-0.01464,-0.0244,-0.03904,-0.04392,-0.08296
-0.01464,0.06344,-0.11224,-0.10492,-0.0976,0.04148,0.03904,-0.01464,-0.01952,-0.03904,-0.03904,-0.07808
-0.00976,0.05856,-0.10736,-0.10248,-0.0976,0.04392,0.03416,-0.01464,-0.0244,-0.02928,-0.02928,-0.06832
-0.00976,0.05856,-0.10736,-0.10248,-0.0976,0.04392,0.02928,-0.01952,-0.02928,-0.01952,-0.01952,-0.05856
-0.00976,0.05856,-0.10736,-0.10248,-0.0976,0.04392,0.0244,-0.01952,-0.02928,-0.0244,-0.0244,-0.05856
-0.00976,0.05856,-0.10736,-0.10248,-0.0976,0.04392,0.01952,-0.01952,-0.02928,-0.02928,-0.02928,-0.05856
0.00488,0.05124,-0.10736,-0.1098,-0.11224,0.05856,0.01952,-0.01952,-0.01952,-0.02928,-0.03904,-0.0732
0.00488,0.04636,-0.0976,-0.10004,-0.10248,0.05368,0.01952,-0.01464,-0.00976,-0.01952,-0.02928,-0.0732
0.00976,0.04148,-0.09272,-0.0976,-0.10248,0.05612,0.0244,-0.00976,-0.00488,-0.01464,-0.0244,-0.0732
0.00976,0.03416,-0.07808,-0.08296,-0.08784,0.0488,0.02928,0,0,-0.00488,-0.00976,-0.05856
-0.00976,0.04148,-0.0732,-0.06832,-0.06344,0.02684,0.03416,0.00488,0.00488,0,-0.00976,-0.05368
0.00488,0.0244,-0.05368,-0.05612,-0.05856,0.03172,0.03416,0.00488,0.00488,0.00488,0.00488,-0.0488
-0.00488,0.0244,-0.04392,-0.04148,-0.03904,0.01708,0.03904,0.01464,0.00976,0.00976,0.00488,-0.04392
-0.01464,0.02928,-0.04392,-0.0366,-0.02928,0.00732,0.03416,0.01464,0.01464,0.00976,0.00976,-0.03904
0,0.01708,-0.03416,-0.03416,-0.03416,0.01708,0.03904,0.01952,0.01952,0.01464,0.00976,-0.03904
0.00976,0.00732,-0.0244,-0.02928,-0.03416,0.02196,0.03904,0.01952,0.0244,0.01464,0.00976,-0.03904
0.00976,0.00488,-0.01952,-0.0244,-0.02928,0.01952,0.0488,0.00976,0.0244,0.0244,0.01464,-0.02928
0.01464,0.00244,-0.01952,-0.02684,-0.03416,0.0244,0.04392,-0.01952,0.01952,0.0244,0.01464,-0.02928
0,0.00244,-0.00488,-0.00488,-0.00488,0.00244,0.01952,-0.01464,0.01464,0.01952,0.01952,-0.02928
-0.00488,0.00488,-0.00488,-0.00244,0,-0.00244,0,-0.00488,0.01464,0.01952,0.0244,-0.0244
0.02928,-0.01708,0.00488,-0.00976,-0.0244,0.02684,-0.00976,0.00976,0.01952,0.03904,0.03904,-0.01464
0.05856,-0.03416,0.00976,-0.01952,-0.0488,0.05368,-0.01952,0.03416,0.02928,0.0488,0.04392,-0.01464
0.04392,-0.02196,0,-0.02196,-0.04392,0.04392,-0.02928,0.00488,0.01464,0.03904,0.03416,-0.0244
0.01952,-0.00488,-0.00976,-0.01952,-0.02928,0.0244,-0.03416,-0.01952,0,0.03416,0.02928,-0.0244
0.01952,-0.00488,-0.00976,-0.01952,-0.02928,0.0244,-0.03416,-0.0244,-0.00488,0.0244,0.01952,-0.01952
0.02928,-0.00976,-0.00976,-0.0244,-0.03904,0.03416,-0.03416,-0.0244,-0.00488,0.01464,0.01464,-0.01952
0.0244,-0.00976,-0.00488,-0.01708,-0.02928,0.02684,-0.03416,-0.02928,-0.00488,0,0.00488,-0.01952
0.0244,-0.00976,-0.00488,-0.01708,-0.02928,0.02684,-0.0244,-0.03416,-0.00488,-0.00976,0,-0.0244
0.0244,-0.00732,-0.00976,-0.02196,-0.03416,0.02928,-0.01952,-0.03416,-0.00488,0.00976,0.01464,-0.0244
0.01952,0.00244,-0.0244,-0.03416,-0.04392,0.03172,-0.00488,-0.03416,-0.00488,0.0244,0.01952,-0.02928
0.00976,0.01708,-0.04392,-0.0488,-0.05368,0.03172,0.00488,-0.03416,-0.00976,0.00488,0,-0.03904
0.00488,0.02928,-0.06344,-0.06588,-0.06832,0.0366,0.00488,-0.03416,-0.02928,-0.01952,-0.02928,-0.05368
-0.00488,0.05368,-0.10248,-0.10004,-0.0976,0.04636,0.00488,-0.03904,-0.04392,-0.03416,-0.04392,-0.0732
-0.00488,0.061,-0.11712,-0.11468,-0.11224,0.05368,0.00976,-0.03904,-0.0488,-0.03904,-0.0488,-0.08296
-0.01464,0.06832,-0.122,-0.11468,-0.10736,0.04636,0.01464,-0.03416,-0.03904,-0.03416,-0.04392,-0.08296
-0.0244,0.0732,-0.122,-0.1098,-0.0976,0.0366,0.01952,-0.03416,-0.03416,-0.03904,-0.03904,-0.08296
-0.03416,0.08296,-0.13176,-0.11468,-0.0976,0.03172,0.01952,-0.03904,-0.03904,-0.0488,-0.04392,-0.08296
-0.03904,0.08296,-0.12688,-0.10736,-0.08784,0.0244,0.01952,-0.03904,-0.04392,-0.0488,-0.0488,-0.08296
-0.01952,0.06588,-0.11224,-0.10248,-0.09272,0.0366,0.0244,-0.03904,-0.0488,-0.05368,-0.05368,-0.0976
0.01464,0.04392,-0.10248,-0.1098,-0.11712,0.06588,0.0244,-0.03904,-0.0488,-0.05856,-0.05856,-0.11224
-0.0244,0.07808,-0.13176,-0.11956,-0.10736,0.04148,0.0244,-0.03416,-0.0488,-0.06832,-0.06344,-0.11224
-0.05368,0.1098,-0.16592,-0.13908,-0.11224,0.02928,0.0244,-0.03416,-0.05368,-0.08296,-0.0732,-0.11712
-0.05856,0.11468,-0.1708,-0.14152,-0.11224,0.02684,0.0244,-0.03904,-0.05368,-0.08296,-0.0732,-0.11712
-0.05856,0.11468,-0.1708,-0.14152,-0.11224,0.02684,0.0244,-0.03904,-0.05368,-0.08296,-0.0732,-0.11712
-0.03416,0.09028,-0.1464,-0.12932,-0.11224,0.03904,0.01952,-0.03904,-0.05368,-0.07808,-0.0732,-0.11224
-0.00976,0.06588,-0.122,-0.11712,-0.11224,0.05124,0.01464,-0.04392,-0.05856,-0.07808,-0.0732,-0.10736
-0.01952,0.08052,-0.14152,-0.13176,-0.122,0.05124,0.01464,-0.04392,-0.05856,-0.07808,-0.0732,-0.11224
-0.02928,0.09272,-0.15616,-0.14152,-0.12688,0.0488,0.01952,-0.04392,-0.05856,-0.0732,-0.07808,-0.11224
-0.02928,0.09516,-0.16104,-0.1464,-0.13176,0.05124,0.01952,-0.03904,-0.05856,-0.07808,-0.08296,-0.11712
-0.05368,0.10736,-0.16104,-0.1342,-0.10736,0.02684,0.04392,-0.00976,-0.04392,-0.08296,-0.09272,-0.13664
-0.0976,0.13176,-0.16592,-0.11712,-0.06832,-0.01464,0.08296,0.00976,-0.02928,-0.08296,-0.12688,-0.1708
-0.122,0.1464,-0.1708,-0.1098,-0.0488,-0.0366,0.10248,0.03904,-0.0244,-0.08296,-0.15128,-0.1952
-0.08784,0.11712,-0.1464,-0.10248,-0.05856,-0.01464,0.122,0.04392,-0.01464,-0.05368,-0.11224,-0.16592
-0.05368,0.08052,-0.10736,-0.08052,-0.05368,0,0.15128,0.10736,0.07808,0.05368,-0.00976,-0.09272
-0.00976,0.0366,-0.06344,-0.05856,-0.05368,0.02196,0.20984,0.30256,0.32696,0.27328,0.20008,0.05856
0.06832,-0.04148,0.01464,-0.01952,-0.05368,0.061,0.2196,0.44408,0.57096,0.52704,0.45872,0.25864
0.18544,-0.13908,0.09272,0,-0.09272,0.13908,0.15616,0.52216,0.76616,0.80032,0.77104,0.52216
0.33184,-0.27816,0.22448,0.05856,-0.10736,0.2196,-0.01464,0.47336,0.86864,1.06872,1.11264,0.81984
0.49776,-0.42456,0.35136,0.10248,-0.1464,0.32208,-0.30256,0.37576,0.92232,1.28832,1.464,1.08824
0.64416,-0.55876,0.47336,0.15128,-0.1708,0.40748,-0.5856,0.27816,0.92232,1.3908,1.6592,1.29808
0.70272,-0.62464,0.54656,0.1952,-0.15616,0.42944,-0.81984,-0.02928,0.6588,1.18584,1.48352,1.2444
0.63928,-0.59292,0.54656,0.22692,-0.09272,0.366,-0.94672,-0.35136,0.2684,0.8296,1.14192,1.03456
0.44408,-0.41968,0.39528,0.17324,-0.0488,0.24644,-0.93208,-0.6588,-0.32208,0.20984,0.51728,0.59536
0.20496,-0.19276,0.18056,0.07808,-0.0244,0.11468,-0.8052,-0.86864,-0.81984,-0.39528,-0.08296,0.15128
0.0976,-0.05368,0.00976,-0.03904,-0.08784,0.09272,-0.5856,-0.81008,-0.854,-0.5368,-0.26352,-0.03904
0.0732,0.0244,-0.122,-0.1586,-0.1952,0.1342,-0.37576,-0.59048,-0.70272,-0.55144,-0.3416,-0.15616
0.05368,0.0244,-0.10248,-0.12932,-0.15616,0.10492,-0.244,-0.33672,-0.44408,-0.38552,-0.25376,-0.1464
0.02928,0.02928,-0.08784,-0.10248,-0.11712,0.0732,-0.15616,-0.15128,-0.25376,-0.24888,-0.17568,-0.122
0.01952,0.0366,-0.09272,-0.10248,-0.11224,0.06588,-0.04392,-0.03416,-0.12688,-0.15128,-0.11712,-0.10248
-0.00488,0.0488,-0.09272,-0.09028,-0.08784,0.04148,0.01952,-0.01952,-0.08296,-0.10248,-0.09272,-0.10248
-0.00976,0.06344,-0.11712,-0.11224,-0.10736,0.0488,0.0244,-0.01952,-0.07808,-0.10248,-0.08784,-0.10736
-0.01464,0.07076,-0.12688,-0.11956,-0.11224,0.0488,0.0244,-0.01952,-0.0732,-0.0976,-0.08296,-0.11224
-0.04392,0.0854,-0.12688,-0.10492,-0.08296,0.01952,0.03904,-0.01952,-0.0488,-0.07808,-0.07808,-0.10736
-0.05368,0.09028,-0.12688,-0.10004,-0.0732,0.00976,0.04392,-0.0244,-0.0488,-0.07808,-0.07808,-0.10248
-0.04392,0.08784,-0.13176,-0.1098,-0.08784,0.02196,0.04392,-0.0244,-0.0488,-0.08296,-0.08296,-0.10736
-0.04392,0.08784,-0.13176,-0.1098,-0.08784,0.02196,0.04392,-0.00488,-0.04392,-0.08296,-0.08296,-0.10736
-0.04392,0.08784,-0.13176,-0.1098,-0.08784,0.02196,0.04392,-0.00976,-0.04392,-0.08296,-0.08784,-0.11224
-0.04392,0.08784,-0.13176,-0.1098,-0.08784,0.02196,0.04392,-0.01464,-0.04392,-0.08296,-0.08296,-0.11712
-0.02928,0.08052,-0.13176,-0.11712,-0.10248,0.0366,0.04392,-0.01464,-0.04392,-0.08296,-0.08296,-0.11712
-0.0244,0.07808,-0.13176,-0.11956,-0.10736,0.04148,0.04392,-0.00976,-0.04392,-0.08296,-0.08784,-0.11712
-0.0244,0.0732,-0.122,-0.1098,-0.0976,0.0366,0.03904,-0.00976,-0.03904,-0.08296,-0.09272,-0.11712
-0.0244,0.06832,-0.11224,-0.10004,-0.08784,0.03172,0.03904,-0.00976,-0.03904,-0.0732,-0.08784,-0.11712
-0.0244,0.06832,-0.11224,-0.10004,-0.08784,0.03172,0.03904,-0.01464,-0.03904,-0.0732,-0.08784,-0.11224
-0.03416,0.07564,-0.11712,-0.10004,-0.08296,0.0244,0.03904,-0.01464,-0.03904,-0.0732,-0.08784,-0.11224
-0.03904,0.08052,-0.122,-0.10248,-0.08296,0.02196,0.03904,-0.01464,-0.03904,-0.0732,-0.08296,-0.11224
-0.03904,0.08052,-0.122,-0.10248,-0.08296,0.02196,0.03904,-0.01464,-0.02928,-0.06832,-0.0732,-0.10736
-0.03904,0.07808,-0.11712,-0.0976,-0.07808,0.01952,0.03904,-0.01464,-0.02928,-0.06832,-0.0732,-0.10736
-0.03904,0.07808,-0.11712,-0.0976,-0.07808,0.01952,0.03904,-0.00976,-0.02928,-0.06344,-0.0732,-0.10248
-0.0244,0.06344,-0.10248,-0.09028,-0.07808,0.02684,0.03416,-0.00976,-0.0244,-0.06344,-0.0732,-0.10248
-0.01952,0.05856,-0.0976,-0.08784,-0.07808,0.02928,0.02928,-0.00976,-0.0244,-0.06832,-0.0732,-0.10248
0.00488,0.04392,-0.09272,-0.09516,-0.0976,0.05124,0.03416,-0.00976,-0.0244,-0.06344,-0.0732,-0.10736
0.00976,0.03904,-0.08784,-0.09272,-0.0976,0.05368,0.03904,-0.00488,-0.0244,-0.05368,-0.06832,-0.10736
-0.00976,0.0488,-0.08784,-0.08296,-0.07808,0.03416,0.03904,0.00976,-0.0244,-0.05368,-0.06832,-0.10736
-0.0244,0.05612,-0.08784,-0.07564,-0.06344,0.01952,0.03904,0.0244,-0.0244,-0.05856,-0.06832,-0.10736
-0.0488,0.0732,-0.0976,-0.0732,-0.0488,0,0.03416,0.00488,-0.02928,-0.0732,-0.0732,-0.10248
-0.07808,0.0976,-0.11712,-0.07808,-0.03904,-0.01952,0.02928,-0.00488,-0.02928,-0.08296,-0.0732,-0.0976
-0.05856,0.08784,-0.11712,-0.08784,-0.05856,0,0.02928,-0.00488,-0.02928,-0.0732,-0.08296,-0.10248
-0.03904,0.07808,-0.11712,-0.0976,-0.07808,0.01952,0.02928,-0.00976,-0.0244,-0.0732,-0.09272,-0.10736
-0.03416,0.07076,-0.10736,-0.09028,-0.0732,0.01952,0.0244,0,-0.01952,-0.0732,-0.07808,-0.10736
-0.01952,0.05368,-0.08784,-0.07808,-0.06832,0.0244,0.0244,0.00488,-0.01952,-0.06832,-0.06832,-0.10248
-0.01952,0.05368,-0.08784,-0.07808,-0.06832,0.0244,0.0244,0.00488,-0.00976,-0.05368,-0.06344,-0.0976
-0.01464,0.05124,-0.08784,-0.08052,-0.0732,0.02928,0.0244,0.00488,-0.00488,-0.04392,-0.05368,-0.09272
-0.01464,0.04392,-0.0732,-0.06588,-0.05856,0.02196,0.02928,0.01464,0.00488,-0.03904,-0.0488,-0.08296
-0.01464,0.03904,-0.06344,-0.05612,-0.0488,0.01708,0.02928,0.01464,0.00488,-0.03904,-0.0488,-0.08296
-0.00488,0.0244,-0.04392,-0.04148,-0.03904,0.01708,0.02928,0.01464,0.00976,-0.02928,-0.04392,-0.07808
0.00488,0.01708,-0.03904,-0.04148,-0.04392,0.0244,0.02928,0.01952,0.00488,-0.0244,-0.03416,-0.0732
0.00488,0.00976,-0.0244,-0.02684,-0.02928,0.01708,0.0244,0.0244,0.01952,-0.01464,-0.02928,-0.06832
0.00976,0.00244,-0.01464,-0.01952,-0.0244,0.01708,0.0244,0.03416,0.02928,-0.00488,-0.01464,-0.05368
0.00976,0,-0.00976,-0.01464,-0.01952,0.01464,0.01952,0.02928,0.02928,0,-0.00488,-0.04392
0.01464,-0.00976,0.00488,-0.00244,-0.00976,0.0122,0.01952,0.03416,0.03416,0.00976,0.00976,-0.03416
-0.00488,-0.00488,0.01464,0.01708,0.01952,-0.0122,0.01464,0.04392,0.05856,0.02928,0.02928,-0.00976
-0.00488,-0.01708,0.03904,0.04148,0.04392,-0.0244,0.00488,0.0488,0.06832,0.0488,0.0488,0.00488
-0.00488,-0.02684,0.05856,0.061,0.06344,-0.03416,-0.00488,0.06344,0.0976,0.06344,0.06344,0.0244
0.00488,-0.04148,0.07808,0.07564,0.0732,-0.03416,-0.01464,0.06832,0.11224,0.08784,0.09272,0.03904
0.03904,-0.06832,0.0976,0.07808,0.05856,-0.00976,-0.02928,0.07808,0.11712,0.11224,0.11224,0.05856
0.06344,-0.09516,0.12688,0.09516,0.06344,0,-0.04392,0.08784,0.14152,0.13176,0.13664,0.09272
0.06832,-0.10736,0.1464,0.11224,0.07808,-0.00488,-0.0488,0.09272,0.15128,0.15128,0.16592,0.11712
0.07808,-0.11956,0.16104,0.122,0.08296,-0.00244,-0.05856,0.09272,0.16104,0.16592,0.18544,0.14152
0.07808,-0.12688,0.17568,0.13664,0.0976,-0.00976,-0.05856,0.08784,0.16592,0.1708,0.19032,0.1464
0.07808,-0.13176,0.18544,0.1464,0.10736,-0.01464,-0.06832,0.08296,0.16592,0.18056,0.21472,0.16104
0.07808,-0.13664,0.1952,0.15616,0.11712,-0.01952,-0.07808,0.08296,0.17568,0.1952,0.2196,0.17568
0.09272,-0.14884,0.20496,0.1586,0.11224,-0.00976,-0.07808,0.08296,0.18056,0.20984,0.23424,0.1952
0.09272,-0.14884,0.20496,0.1586,0.11224,-0.00976,-0.07808,0.07808,0.18056,0.21472,0.23912,0.1952
0.08784,-0.15372,0.2196,0.17568,0.13176,-0.02196,-0.07808,0.0732,0.17568,0.21472,0.244,0.1952
0.08296,-0.14884,0.21472,0.17324,0.13176,-0.0244,-0.07808,0.0732,0.17568,0.20496,0.23424,0.1952
0.08296,-0.14152,0.20008,0.1586,0.11712,-0.01708,-0.07808,0.0732,0.17568,0.20008,0.22936,0.18544
0.08296,-0.13176,0.18056,0.13908,0.0976,-0.00732,-0.06832,0.0732,0.16592,0.19032,0.20984,0.16104
0.07808,-0.11956,0.16104,0.122,0.08296,-0.00244,-0.05856,0.06344,0.15128,0.16592,0.18056,0.14152
0.06344,-0.0976,0.13176,0.10004,0.06832,-0.00244,-0.05368,0.05856,0.12688,0.1464,0.16104,0.122
0.05368,-0.0854,0.11712,0.09028,0.06344,-0.00488,-0.0488,0.04392,0.10736,0.122,0.13664,0.10736
0.05368,-0.08052,0.10736,0.08052,0.05368,0,-0.03904,0.03416,0.08784,0.0976,0.10736,0.07808
0.04392,-0.07564,0.10736,0.0854,0.06344,-0.00976,-0.0244,0.03416,0.07808,0.07808,0.08296,0.05368
0.01952,-0.03904,0.05856,0.0488,0.03904,-0.00976,-0.01464,0.01952,0.05856,0.0488,0.0488,0.01952
0.00976,-0.01952,0.02928,0.0244,0.01952,-0.00488,-0.00488,0.01464,0.03904,0.01464,0.01952,-0.01464
0.0244,-0.01708,0.00976,-0.00244,-0.01464,0.01952,0.00488,0.00488,0.02928,0.00976,0,-0.0244
0.0244,-0.00976,-0.00488,-0.01708,-0.02928,0.02684,0.01464,0,0.01464,0,-0.00488,-0.02928
0.0244,-0.00976,-0.00488,-0.01708,-0.02928,0.02684,0.01952,0.00488,0,-0.01952,-0.01952,-0.04392
0.0244,-0.00976,-0.00488,-0.01708,-0.02928,0.02684,0.01952,0,-0.00488,-0.01952,-0.02928,-0.05368
-0.01464,0.01952,-0.0244,-0.01708,-0.00976,-0.00244,0.0244,0,-0.00488,-0.0244,-0.03416,-0.06344
-0.03416,0.03904,-0.04392,-0.02684,-0.00976,-0.0122,0.01952,0,-0.00488,-0.02928,-0.04392,-0.06344
-0.03416,0.04148,-0.0488,-0.03172,-0.01464,-0.00976,0.0244,0,-0.00976,-0.03416,-0.0488,-0.07808
-0.03904,0.0488,-0.05856,-0.03904,-0.01952,-0.00976,0.0244,0,-0.01464,-0.03416,-0.05368,-0.08296
-0.03904,0.05124,-0.06344,-0.04392,-0.0244,-0.00732,0.02928,-0.00488,-0.01952,-0.04392,-0.05856,-0.08296
-0.03904,0.05124,-0.06344,-0.04392,-0.0244,-0.00732,0.03904,-0.00976,-0.0244,-0.0488,-0.05856,-0.08296
-0.02928,0.04392,-0.05856,-0.04392,-0.02928,0,0.03904,-0.01464,-0.02928,-0.05368,-0.06344,-0.08296
-0.01952,0.03904,-0.05856,-0.0488,-0.03904,0.00976,0.03904,-0.01464,-0.03416,-0.05856,-0.06344,-0.08296
-0.02928,0.04392,-0.05856,-0.04392,-0.02928,0,0.03416,-0.01464,-0.03416,-0.05856,-0.06832,-0.08296
-0.03904,0.0488,-0.05856,-0.03904,-0.01952,-0.00976,0.03416,-0.01952,-0.03904,-0.06832,-0.0732,-0.08784
-0.02928,0.04636,-0.06344,-0.0488,-0.03416,0.00244,0.02928,-0.0244,-0.03904,-0.06832,-0.07808,-0.09272
-0.01952,0.04392,-0.06832,-0.05856,-0.0488,0.01464,0.02928,-0.0244,-0.03904,-0.06832,-0.07808,-0.0976
-0.03416,0.05124,-0.06832,-0.05124,-0.03416,0,0.02928,-0.0244,-0.03904,-0.06832,-0.07808,-0.10248
-0.03416,0.05124,-0.06832,-0.05124,-0.03416,0,0.02928,-0.0244,-0.03904,-0.06832,-0.07808,-0.10248
-0.04392,0.05124,-0.05856,-0.0366,-0.01464,-0.01464,0.0244,-0.01952,-0.03416,-0.06832,-0.07808,-0.10248
-0.05368,0.05124,-0.0488,-0.02196,0.00488,-0.02928,0.0244,-0.01464,-0.02928,-0.06832,-0.0732,-0.0976
-0.03904,0.04148,-0.04392,-0.0244,-0.00488,-0.01708,0.0244,-0.01464,-0.03416,-0.06344,-0.0732,-0.0976
-0.01952,0.02928,-0.03904,-0.02928,-0.01952,0,0.02928,-0.01464,-0.03416,-0.06344,-0.0732,-0.09272
-0.0244,0.03172,-0.03904,-0.02684,-0.01464,-0.00488,0.02928,-0.01464,-0.03904,-0.06344,-0.07808,-0.09272
-0.02928,0.03416,-0.03904,-0.0244,-0.00976,-0.00976,0.02928,-0.01464,-0.04392,-0.06344,-0.08296,-0.0976
-0.02928,0.04148,-0.05368,-0.03904,-0.0244,-0.00244,0.02928,-0.0244,-0.0488,-0.0732,-0.08784,-0.10248
-0.01952,0.03416,-0.0488,-0.03904,-0.02928,0.00488,0.02928,-0.0244,-0.0488,-0.0732,-0.08784,-0.10248
-0.02928,0.04148,-0.05368,-0.03904,-0.0244,-0.00244,0.04392,-0.01952,-0.0488,-0.0732,-0.08784,-0.10248
-0.04392,0.05124,-0.05856,-0.0366,-0.01464,-0.01464,0.05856,-0.01952,-0.05368,-0.07808,-0.08784,-0.10736
-0.03416,0.04636,-0.05856,-0.04148,-0.0244,-0.00488,0.0488,-0.01952,-0.05368,-0.07808,-0.08784,-0.10736
-0.02928,0.04636,-0.06344,-0.0488,-0.03416,0.00244,0.03904,-0.01464,-0.05368,-0.08296,-0.08784,-0.10736
-0.02928,0.04636,-0.06344,-0.0488,-0.03416,0.00244,0.03904,-0.01952,-0.05368,-0.08296,-0.09272,-0.11224
-0.02928,0.04636,-0.06344,-0.0488,-0.03416,0.00244,0.03904,-0.02928,-0.05368,-0.08784,-0.0976,-0.11224
-0.03904,0.05124,-0.06344,-0.04392,-0.0244,-0.00732,0.04392,-0.02928,-0.05368,-0.08784,-0.0976,-0.11224
-0.03904,0.05124,-0.06344,-0.04392,-0.0244,-0.00732,0.04392,-0.0244,-0.05368,-0.08784,-0.0976,-0.11224
-0.04392,0.05124,-0.05856,-0.0366,-0.01464,-0.01464,0.03904,-0.01464,-0.0488,-0.08784,-0.09272,-0.11224
-0.04392,0.0488,-0.05368,-0.03172,-0.00976,-0.01708,0.03904,-0.00976,-0.04392,-0.09272,-0.08784,-0.11224
-0.03416,0.04148,-0.0488,-0.03172,-0.01464,-0.00976,0.03904,-0.00976,-0.04392,-0.09272,-0.08784,-0.11224
-0.0488,0.0488,-0.0488,-0.0244,0,-0.0244,0.03904,-0.00488,-0.04392,-0.09272,-0.08784,-0.11224
-0.0488,0.0488,-0.0488,-0.0244,0,-0.0244,0.03904,-0.00976,-0.05368,-0.0976,-0.09272,-0.11224
-0.04392,0.04636,-0.0488,-0.02684,-0.00488,-0.01952,0.03904,-0.01952,-0.06344,-0.10248,-0.10248,-0.11712
-0.04392,0.04392,-0.04392,-0.02196,0,-0.02196,0.03904,-0.01464,-0.05368,-0.09272,-0.0976,-0.11224
-0.04392,0.04392,-0.04392,-0.02196,0,-0.02196,0.03904,-0.00976,-0.0488,-0.08784,-0.09272,-0.11224
-0.03904,0.03904,-0.03904,-0.01952,0,-0.01952,0.02928,-0.01464,-0.04392,-0.08784,-0.08784,-0.10736
-0.03904,0.03904,-0.03904,-0.01952,0,-0.01952,0.01952,-0.01952,-0.03904,-0.08784,-0.08784,-0.10736
-0.0244,0.0244,-0.0244,-0.0122,0,-0.0122,0.02928,-0.01952,-0.03904,-0.08784,-0.08784,-0.10736
-0.00976,0.00976,-0.00976,-0.00488,0,-0.00488,0.03904,-0.01952,-0.03904,-0.08784,-0.08784,-0.10736
-0.0244,0.02196,-0.01952,-0.00732,0.00488,-0.01464,0.03904,-0.01952,-0.03416,-0.08784,-0.07808,-0.10248
-0.02928,0.0244,-0.01952,-0.00488,0.00976,-0.01952,0.03904,-0.01952,-0.02928,-0.08296,-0.0732,-0.09272
-0.03904,0.03172,-0.0244,-0.00488,0.01464,-0.02684,0.04392,-0.01952,-0.02928,-0.08296,-0.06832,-0.08784
-0.0488,0.0366,-0.0244,0,0.0244,-0.0366,0.05368,-0.01464,-0.0244,-0.07808,-0.06832,-0.08296
-0.01464,0.00976,-0.00488,0.00244,0.00976,-0.0122,0.05368,-0.00976,-0.01952,-0.06344,-0.05368,-0.07808
-0.00488,0,0.00488,0.00732,0.00976,-0.00732,0.06344,0.00488,-0.00976,-0.0488,-0.05368,-0.0732
-0.00488,0,0.00488,0.00732,0.00976,-0.00732,0.06344,0.00488,-0.00488,-0.04392,-0.0488,-0.06832
0,-0.00732,0.01464,0.01464,0.01464,-0.00732,0.06832,0.00976,0,-0.03416,-0.0488,-0.06832
0,-0.01952,0.03904,0.03904,0.03904,-0.01952,0.06344,0.00976,0.00488,-0.03416,-0.0488,-0.06832
0,-0.02928,0.05856,0.05856,0.05856,-0.02928,0.05856,0.00976,0.00488,-0.0244,-0.04392,-0.05856
0.01952,-0.03904,0.05856,0.0488,0.03904,-0.00976,0.04392,-0.00976,0,-0.0244,-0.04392,-0.05856
0.03904,-0.05612,0.0732,0.05368,0.03416,0.00244,0.01952,-0.01464,-0.00488,-0.02928,-0.03904,-0.05856
0.02928,-0.05124,0.0732,0.05856,0.04392,-0.00732,0,-0.00976,0,-0.0244,-0.0244,-0.04392
0.01464,-0.04636,0.07808,0.07076,0.06344,-0.0244,0,-0.00488,0.00976,-0.00976,-0.00488,-0.0244
0.01952,-0.0488,0.07808,0.06832,0.05856,-0.01952,0.00488,0.00488,0.01952,-0.00976,-0.00488,-0.0244
0.01952,-0.04392,0.06832,0.05856,0.0488,-0.01464,0,-0.00976,0.00488,-0.01952,-0.01464,-0.03416
0.00976,-0.03172,0.05368,0.0488,0.04392,-0.01708,-0.00488,-0.01952,-0.00976,-0.0244,-0.0244,-0.03904
0.00976,-0.02928,0.0488,0.04392,0.03904,-0.01464,-0.00488,-0.0244,-0.01464,-0.02928,-0.03416,-0.03904
0.01952,-0.03416,0.0488,0.03904,0.02928,-0.00488,-0.01464,-0.02928,-0.01952,-0.03904,-0.03416,-0.03904
0.00976,-0.03172,0.05368,0.0488,0.04392,-0.01708,-0.0244,-0.03416,-0.0244,-0.04392,-0.03416,-0.03904
0.0244,-0.04636,0.06832,0.05612,0.04392,-0.00976,-0.01464,-0.03416,-0.0244,-0.03904,-0.02928,-0.04392
0.04392,-0.061,0.07808,0.05612,0.03416,0.00488,-0.01464,-0.03416,-0.0244,-0.03904,-0.02928,-0.04392
0.0244,-0.04392,0.06344,0.05124,0.03904,-0.00732,0.00488,-0.03416,-0.0244,-0.03904,-0.02928,-0.04392
-0.00976,-0.01708,0.04392,0.0488,0.05368,-0.03172,0.0244,-0.03416,-0.0244,-0.04392,-0.02928,-0.0488
-0.0244,0.00488,0.01464,0.02684,0.03904,-0.03172,0.0244,-0.0244,-0.03416,-0.05856,-0.0488,-0.06344
-0.03416,0.03172,-0.02928,-0.0122,0.00488,-0.01952,0.0244,-0.01952,-0.04392,-0.0732,-0.06344,-0.08296
-0.02928,0.0366,-0.04392,-0.02928,-0.01464,-0.00732,0.0244,-0.01952,-0.0488,-0.07808,-0.07808,-0.10248
-0.0244,0.03904,-0.05368,-0.04148,-0.02928,0.00244,0.01952,-0.01952,-0.0488,-0.07808,-0.09272,-0.11224
-0.0244,0.03904,-0.05368,-0.04148,-0.02928,0.00244,0.01952,-0.03416,-0.06344,-0.0976,-0.0976,-0.11224
-0.03416,0.05124,-0.06832,-0.05124,-0.03416,0,0.01952,-0.0488,-0.07808,-0.11712,-0.10248,-0.122
-0.03904,0.05368,-0.06832,-0.0488,-0.02928,-0.00488,0.01952,-0.0488,-0.08296,-0.11712,-0.10736,-0.13176
-0.03904,0.05368,-0.06832,-0.0488,-0.02928,-0.00488,0.0244,-0.0488,-0.08296,-0.11712,-0.10736,-0.13176
-0.02928,0.0488,-0.06832,-0.05368,-0.03904,0.00488,0.0244,-0.0488,-0.07808,-0.11712,-0.10736,-0.12688
-0.04392,0.05368,-0.06344,-0.04148,-0.01952,-0.0122,0.0244,-0.04392,-0.07808,-0.11712,-0.10736,-0.122
-0.04392,0.05612,-0.06832,-0.04636,-0.0244,-0.00976,0.0244,-0.04392,-0.08296,-0.122,-0.11224,-0.12688
-0.0488,0.061,-0.0732,-0.0488,-0.0244,-0.0122,0.0244,-0.0488,-0.08296,-0.122,-0.11224,-0.12688
-0.05856,0.06832,-0.07808,-0.0488,-0.01952,-0.01952,0.0244,-0.03904,-0.0732,-0.11712,-0.11224,-0.12688
-0.06832,0.07564,-0.08296,-0.0488,-0.01464,-0.02684,0.0244,-0.0244,-0.06344,-0.11224,-0.11224,-0.12688
-0.05856,0.07076,-0.08296,-0.05368,-0.0244,-0.01708,0.0244,-0.0244,-0.06832,-0.11712,-0.11224,-0.12688
-0.0488,0.06832,-0.08784,-0.06344,-0.03904,-0.00488,0.0244,-0.0244,-0.06832,-0.11712,-0.11224,-0.13176
-0.0488,0.06832,-0.08784,-0.06344,-0.03904,-0.00488,0.03416,-0.03416,-0.06832,-0.11224,-0.11712,-0.13664
-0.0488,0.07076,-0.09272,-0.06832,-0.04392,-0.00244,0.0488,-0.03904,-0.06344,-0.11224,-0.11712,-0.14152
-0.0732,0.0854,-0.0976,-0.061,-0.0244,-0.0244,0.08296,-0.01464,-0.05368,-0.122,-0.12688,-0.16104
-0.10736,0.10492,-0.10248,-0.0488,0.00488,-0.05612,0.122,0,-0.0488,-0.12688,-0.15128,-0.18544
-0.12688,0.11468,-0.10248,-0.03904,0.0244,-0.07564,0.14152,0.02928,-0.04392,-0.122,-0.1708,-0.1952
-0.09272,0.0854,-0.07808,-0.03172,0.01464,-0.05368,0.15128,0.06344,0.00976,-0.06832,-0.122,-0.15128
-0.07808,0.05612,-0.03416,0.00488,0.04392,-0.061,0.1708,0.15616,0.1464,0.0732,0.00976,-0.06344
-0.03416,0.00488,0.0244,0.04148,0.05856,-0.04636,0.20984,0.35136,0.39528,0.30256,0.22936,0.08784
0.0976,-0.11224,0.12688,0.07808,0.02928,0.03416,0.20008,0.49288,0.63928,0.57584,0.488,0.27816
0.26352,-0.24888,0.23424,0.10248,-0.02928,0.1464,0.07808,0.55144,0.81984,0.81984,0.76616,0.50752
0.4148,-0.40748,0.40016,0.19276,-0.01464,0.21472,-0.16104,0.51728,0.94672,1.08824,1.11264,0.81496
0.55632,-0.54412,0.53192,0.25376,-0.0244,0.29036,-0.44896,0.4148,0.98576,1.27368,1.3908,1.04432
0.71248,-0.671,0.62952,0.27328,-0.08296,0.39772,-0.72224,0.3172,0.98576,1.32248,1.51768,1.20048
0.74176,-0.69296,0.64416,0.27328,-0.0976,0.41968,-0.90768,0.01952,0.70272,1.098,1.34688,1.1224
0.62952,-0.61,0.59048,0.27572,-0.03904,0.33428,-0.98576,-0.33184,0.23912,0.67832,0.96624,0.88816
0.43432,-0.427,0.41968,0.20252,-0.01464,0.22448,-0.9272,-0.59048,-0.26352,0.16104,0.44896,0.53192
0.20984,-0.19032,0.1708,0.06588,-0.03904,0.12444,-0.76616,-0.81496,-0.76616,-0.41968,-0.11712,0.10736
0.12688,-0.07564,0.0244,-0.03904,-0.10248,0.11468,-0.55632,-0.74176,-0.79544,-0.55632,-0.27816,-0.05856
0.0976,-0.02196,-0.05368,-0.10248,-0.15128,0.12444,-0.33672,-0.42456,-0.53192,-0.45384,-0.26352,-0.10736
0.06344,-0.01952,-0.0244,-0.05612,-0.08784,0.07564,-0.1952,-0.1952,-0.3172,-0.30256,-0.20008,-0.10736
0.03904,-0.01464,-0.00976,-0.02928,-0.0488,0.04392,-0.10248,-0.0732,-0.1952,-0.20984,-0.15128,-0.10736
0.01952,0.00244,-0.0244,-0.03416,-0.04392,0.03172,-0.01464,-0.00488,-0.10736,-0.1464,-0.11712,-0.11224
-0.03416,0.03904,-0.04392,-0.02684,-0.00976,-0.0122,0.0244,-0.01952,-0.09272,-0.122,-0.11224,-0.122
-0.05856,0.06344,-0.06832,-0.03904,-0.00976,-0.0244,0.03416,-0.01952,-0.08784,-0.122,-0.11224,-0.12688
-0.04392,0.05612,-0.06832,-0.04636,-0.0244,-0.00976,0.03416,-0.0244,-0.08296,-0.11712,-0.11224,-0.13176
-0.04392,0.05612,-0.06832,-0.04636,-0.0244,-0.00976,0.0488,-0.03416,-0.06832,-0.10736,-0.11224,-0.13176
-0.05856,0.06344,-0.06832,-0.03904,-0.00976,-0.0244,0.05368,-0.04392,-0.07808,-0.11712,-0.11712,-0.13176
-0.06344,0.06832,-0.0732,-0.04148,-0.00976,-0.02684,0.05368,-0.04392,-0.07808,-0.122,-0.122,-0.13664
-0.06344,0.06832,-0.0732,-0.04148,-0.00976,-0.02684,0.05368,-0.0244,-0.0732,-0.12688,-0.12688,-0.14152
-0.06344,0.06832,-0.0732,-0.04148,-0.00976,-0.02684,0.05368,-0.0244,-0.06832,-0.12688,-0.13176,-0.1464
-0.04392,0.05856,-0.0732,-0.05124,-0.02928,-0.00732,0.05368,-0.0244,-0.06344,-0.122,-0.122,-0.1464
-0.0244,0.0488,-0.0732,-0.061,-0.0488,0.0122,0.05368,-0.0244,-0.06344,-0.122,-0.122,-0.1464
-0.0488,0.061,-0.0732,-0.0488,-0.0244,-0.0122,0.05368,-0.01952,-0.06344,-0.122,-0.122,-0.13664
-0.06344,0.06832,-0.0732,-0.04148,-0.00976,-0.02684,0.05368,-0.01952,-0.05856,-0.122,-0.11712,-0.12688
-0.06344,0.06588,-0.06832,-0.0366,-0.00488,-0.02928,0.05856,-0.01464,-0.05368,-0.11224,-0.10736,-0.12688
-0.05368,0.05856,-0.06344,-0.0366,-0.00976,-0.02196,0.05856,-0.00976,-0.0488,-0.11224,-0.10736,-0.122
-0.05368,0.061,-0.06832,-0.04148,-0.01464,-0.01952,0.05856,-0.00488,-0.0488,-0.10736,-0.10736,-0.12688
-0.05856,0.06344,-0.06832,-0.03904,-0.00976,-0.0244,0.05856,-0.00488,-0.0488,-0.10248,-0.10736,-0.13176
-0.0488,0.061,-0.0732,-0.0488,-0.0244,-0.0122,0.05856,-0.00488,-0.03904,-0.0976,-0.10248,-0.12688
-0.03904,0.05856,-0.07808,-0.05856,-0.03904,0,0.05856,-0.00488,-0.03904,-0.0976,-0.10248,-0.12688
-0.0488,0.06344,-0.07808,-0.05368,-0.02928,-0.00976,0.05856,0,-0.04392,-0.09272,-0.10248,-0.122
-0.0488,0.05856,-0.06832,-0.04392,-0.01952,-0.01464,0.05368,0,-0.04392,-0.09272,-0.10248,-0.122
-0.0488,0.05856,-0.06832,-0.04392,-0.01952,-0.01464,0.0488,-0.00976,-0.04392,-0.10736,-0.10248,-0.122
-0.03904,0.05368,-0.06832,-0.0488,-0.02928,-0.00488,0.0488,-0.01952,-0.04392,-0.11712,-0.10248,-0.12688
-0.0488,0.05612,-0.06344,-0.03904,-0.01464,-0.01708,0.0488,-0.01464,-0.04392,-0.10248,-0.0976,-0.122
-0.05368,0.05612,-0.05856,-0.03172,-0.00488,-0.0244,0.0488,-0.01464,-0.04392,-0.09272,-0.0976,-0.11712
-0.05368,0.05612,-0.05856,-0.03172,-0.00488,-0.0244,0.0488,0.00976,-0.03416,-0.09272,-0.09272,-0.11712
-0.0488,0.0488,-0.0488,-0.0244,0,-0.0244,0.0488,0.0244,-0.0244,-0.08784,-0.08784,-0.11224
-0.0488,0.05124,-0.05368,-0.02928,-0.00488,-0.02196,0.05856,0.00976,-0.01952,-0.08296,-0.08296,-0.10736
-0.0488,0.05368,-0.05856,-0.03416,-0.00976,-0.01952,0.06832,0,-0.01952,-0.0732,-0.08296,-0.10736
-0.05368,0.05612,-0.05856,-0.03172,-0.00488,-0.0244,0.06832,0,-0.01952,-0.07808,-0.08296,-0.10736
-0.05856,0.05856,-0.05856,-0.02928,0,-0.02928,0.06344,0.00976,-0.01952,-0.08296,-0.07808,-0.10736
-0.0488,0.0488,-0.0488,-0.0244,0,-0.0244,0.05856,0.01464,-0.01952,-0.07808,-0.07808,-0.10248
-0.0488,0.0488,-0.0488,-0.0244,0,-0.0244,0.05368,0.01464,-0.01464,-0.06832,-0.0732,-0.0976
-0.03416,0.03904,-0.04392,-0.02684,-0.00976,-0.0122,0.05368,0.01464,-0.01464,-0.06344,-0.06832,-0.0976
-0.0244,0.02928,-0.03416,-0.02196,-0.00976,-0.00732,0.05368,0.0244,-0.00488,-0.05856,-0.06832,-0.09272
-0.0244,0.02928,-0.03416,-0.02196,-0.00976,-0.00732,0.0488,0.0244,-0.00488,-0.05856,-0.06832,-0.09272
-0.01952,0.01708,-0.01464,-0.00488,0.00488,-0.0122,0.0488,0.0244,0.00488,-0.0488,-0.06344,-0.08784
-0.0244,0.02196,-0.01952,-0.00732,0.00488,-0.01464,0.05368,0.02928,0.00488,-0.04392,-0.05368,-0.08296
-0.03416,0.0244,-0.01464,0.00244,0.01952,-0.02684,0.0488,0.03416,0.01952,-0.03416,-0.0488,-0.07808
-0.01952,0.00732,0.00488,0.01464,0.0244,-0.02196,0.04392,0.04392,0.02928,-0.0244,-0.03416,-0.06344
-0.00976,-0.00488,0.01952,0.0244,0.02928,-0.01952,0.03904,0.04392,0.03416,-0.01464,-0.0244,-0.05368
-0.00488,-0.01464,0.03416,0.0366,0.03904,-0.02196,0.02928,0.0488,0.04392,0,-0.00976,-0.04392
-0.00488,-0.02196,0.0488,0.05124,0.05368,-0.02928,0.01464,0.05368,0.06832,0.01952,0.00976,-0.01952
0,-0.03904,0.07808,0.07808,0.07808,-0.03904,0.01464,0.05856,0.07808,0.04392,0.02928,-0.00488
-0.01464,-0.04148,0.0976,0.10492,0.11224,-0.06344,0.01464,0.06832,0.10248,0.06344,0.04392,0.01464
-0.00488,-0.05612,0.11712,0.11956,0.122,-0.06344,0.01464,0.08784,0.12688,0.0976,0.07808,0.04392
0.01464,-0.07564,0.13664,0.12932,0.122,-0.05368,0.01464,0.11224,0.1464,0.12688,0.10248,0.07808
0.03416,-0.09516,0.15616,0.13908,0.122,-0.04392,-0.00976,0.09272,0.16104,0.13176,0.12688,0.10248
0.0488,-0.10736,0.16592,0.14152,0.11712,-0.03416,-0.02928,0.0732,0.16104,0.14152,0.15128,0.11224
0.06832,-0.13176,0.1952,0.16104,0.12688,-0.02928,-0.03904,0.08784,0.1708,0.15616,0.16592,0.13176
0.07808,-0.14884,0.2196,0.18056,0.14152,-0.03172,-0.03904,0.10248,0.17568,0.16104,0.1708,0.13664
0.06832,-0.1464,0.22448,0.19032,0.15616,-0.04392,-0.0488,0.10736,0.17568,0.17568,0.1952,0.15128
0.05856,-0.1464,0.23424,0.20496,0.17568,-0.05856,-0.05856,0.11224,0.18544,0.1952,0.20008,0.16592
0.06344,-0.15128,0.23912,0.2074,0.17568,-0.05612,-0.05856,0.11224,0.19032,0.20984,0.21472,0.18544
0.05856,-0.1464,0.23424,0.20496,0.17568,-0.05856,-0.05856,0.10736,0.19032,0.20984,0.21472,0.18544
0.07808,-0.16348,0.24888,0.20984,0.1708,-0.04636,-0.06344,0.0976,0.18544,0.20496,0.21472,0.18544
0.09272,-0.16592,0.23912,0.19276,0.1464,-0.02684,-0.06832,0.09272,0.18056,0.19032,0.20496,0.18056
0.09272,-0.1586,0.22448,0.17812,0.13176,-0.01952,-0.06832,0.09272,0.17568,0.18056,0.20008,0.16592
0.09272,-0.15128,0.20984,0.16348,0.11712,-0.0122,-0.05856,0.09272,0.16592,0.1708,0.18056,0.14152
0.08784,-0.13908,0.19032,0.1464,0.10248,-0.00732,-0.04392,0.08296,0.15128,0.1464,0.15128,0.122
0.06832,-0.11468,0.16104,0.12688,0.09272,-0.0122,-0.02928,0.07808,0.13176,0.13176,0.13664,0.10248
0.04392,-0.09516,0.1464,0.12444,0.10248,-0.02928,-0.01952,0.05856,0.11224,0.10736,0.11712,0.0976
0.03416,-0.07808,0.122,0.10492,0.08784,-0.02684,-0.00976,0.04392,0.08784,0.07808,0.08784,0.07808
0.01952,-0.061,0.10248,0.09272,0.08296,-0.03172,0,0.03416,0.07808,0.05368,0.05856,0.04392
0,-0.03416,0.06832,0.06832,0.06832,-0.03416,0.00488,0.00976,0.05856,0.03416,0.03416,0.01464
0,-0.02928,0.05856,0.05856,0.05856,-0.02928,0.01464,0.01464,0.03904,0.01464,0.01952,-0.00488
-0.00488,-0.01708,0.03904,0.04148,0.04392,-0.0244,0.01464,0.01464,0.02928,0,-0.00976,-0.0244
-0.0244,0,0.0244,0.0366,0.0488,-0.0366,0.01464,0.00976,0.01464,-0.01952,-0.0244,-0.03904
-0.0244,0.00488,0.01464,0.02684,0.03904,-0.03172,0.01952,0.00976,0,-0.03904,-0.03904,-0.05368
-0.01952,0.00244,0.01464,0.0244,0.03416,-0.02684,0.01464,-0.00488,-0.00976,-0.03904,-0.0488,-0.06344
-0.03416,0.00976,0.01464,0.03172,0.0488,-0.04148,0.01952,-0.00976,-0.01464,-0.04392,-0.05368,-0.0732
-0.03416,0.02196,-0.00976,0.00732,0.0244,-0.02928,0.01952,-0.00976,-0.01464,-0.05368,-0.06832,-0.0732
-0.03416,0.03172,-0.02928,-0.0122,0.00488,-0.01952,0.0244,-0.00976,-0.01952,-0.06344,-0.07808,-0.08784
-0.0488,0.03904,-0.02928,-0.00488,0.01952,-0.03416,0.02928,-0.00976,-0.0244,-0.06344,-0.08296,-0.09272
-0.05856,0.04148,-0.0244,0.00488,0.03416,-0.04636,0.03416,-0.01464,-0.02928,-0.0732,-0.08784,-0.09272
-0.0488,0.0366,-0.0244,0,0.0244,-0.0366,0.03904,-0.01952,-0.03416,-0.07808,-0.08784,-0.09272
-0.03904,0.02928,-0.01952,0,0.01952,-0.02928,0.03904,-0.0244,-0.03416,-0.07808,-0.09272,-0.09272
-0.03904,0.02928,-0.01952,0,0.01952,-0.02928,0.03904,-0.01952,-0.03416,-0.0732,-0.09272,-0.09272
-0.03416,0.02684,-0.01952,-0.00244,0.01464,-0.0244,0.03416,-0.00976,-0.03416,-0.06832,-0.09272,-0.09272
-0.01464,0.0122,-0.00976,-0.00244,0.00488,-0.00976,0.03416,-0.00976,-0.03904,-0.07808,-0.09272,-0.0976
0,0.00244,-0.00488,-0.00488,-0.00488,0.00244,0.03416,-0.01464,-0.03904,-0.07808,-0.0976,-0.0976
-0.0244,0.0244,-0.0244,-0.0122,0,-0.0122,0.03904,-0.01464,-0.04392,-0.07808,-0.0976,-0.0976
-0.06344,0.05124,-0.03904,-0.00732,0.0244,-0.04392,0.03904,-0.01464,-0.0488,-0.07808,-0.0976,-0.10248
-0.06344,0.05612,-0.0488,-0.01708,0.01464,-0.03904,0.02928,-0.00488,-0.0488,-0.07808,-0.0976,-0.10248
-0.06344,0.061,-0.05856,-0.02684,0.00488,-0.03416,0.01464,0.00488,-0.0488,-0.07808,-0.10248,-0.10736
-0.0488,0.04392,-0.03904,-0.01464,0.00976,-0.02928,0.0244,-0.00488,-0.0488,-0.08296,-0.10248,-0.10736
-0.02928,0.0244,-0.01952,-0.00488,0.00976,-0.01952,0.03416,-0.01464,-0.05368,-0.08296,-0.10248,-0.10736
-0.01952,0.01952,-0.01952,-0.00976,0,-0.00976,0.04392,-0.01464,-0.05368,-0.08296,-0.10248,-0.10248
-0.02928,0.0244,-0.01952,-0.00488,0.00976,-0.01952,0.0488,-0.01464,-0.05368,-0.08296,-0.10248,-0.10248
-0.03904,0.03172,-0.0244,-0.00488,0.01464,-0.02684,0.0488,-0.01464,-0.0488,-0.0732,-0.0976,-0.10248
-0.03904,0.03904,-0.03904,-0.01952,0,-0.01952,0.0488,-0.0244,-0.0488,-0.0732,-0.0976,-0.10248
-0.03416,0.03172,-0.02928,-0.0122,0.00488,-0.01952,0.0488,-0.0244,-0.0488,-0.0732,-0.0976,-0.10248
-0.02928,0.02928,-0.02928,-0.01464,0,-0.01464,0.0488,-0.01952,-0.0488,-0.07808,-0.10248,-0.10736
-0.0244,0.02928,-0.03416,-0.02196,-0.00976,-0.00732,0.03904,-0.01464,-0.0488,-0.08296,-0.10736,-0.11712
-0.0244,0.03172,-0.03904,-0.02684,-0.01464,-0.00488,0.02928,-0.00976,-0.04392,-0.07808,-0.10736,-0.11712
-0.03416,0.03904,-0.04392,-0.02684,-0.00976,-0.0122,0.04392,-0.00488,-0.04392,-0.08296,-0.10248,-0.11224
-0.03904,0.04148,-0.04392,-0.0244,-0.00488,-0.01708,0.05856,-0.00488,-0.04392,-0.08296,-0.10248,-0.11224
-0.03904,0.04148,-0.04392,-0.0244,-0.00488,-0.01708,0.0488,-0.01464,-0.0488,-0.08784,-0.10736,-0.11224
-0.0488,0.04636,-0.04392,-0.01952,0.00488,-0.02684,0.04392,-0.01952,-0.05368,-0.08784,-0.10736,-0.11224
-0.0488,0.04636,-0.04392,-0.01952,0.00488,-0.02684,0.04392,-0.01464,-0.05368,-0.08784,-0.11224,-0.11712
-0.05368,0.0488,-0.04392,-0.01708,0.00976,-0.03172,0.04392,-0.01464,-0.05368,-0.08784,-0.11712,-0.122
-0.05368,0.04392,-0.03416,-0.00732,0.01952,-0.0366,0.0488,-0.01952,-0.05368,-0.09272,-0.11712,-0.122
-0.03904,0.02928,-0.01952,0,0.01952,-0.02928,0.0488,-0.01952,-0.05368,-0.09272,-0.11712,-0.122
-0.06344,0.05124,-0.03904,-0.00732,0.0244,-0.04392,0.0488,-0.01464,-0.05368,-0.0976,-0.11712,-0.122
-0.07808,0.06588,-0.05368,-0.01464,0.0244,-0.05124,0.0488,-0.00976,-0.0488,-0.0976,-0.11224,-0.11712
-0.05368,0.04636,-0.03904,-0.0122,0.01464,-0.03416,0.04392,0,-0.04392,-0.0976,-0.11224,-0.11712
-0.03416,0.02684,-0.01952,-0.00244,0.01464,-0.0244,0.03904,0.00976,-0.04392,-0.08784,-0.11224,-0.11712
-0.0488,0.03904,-0.02928,-0.00488,0.01952,-0.03416,0.03904,0.00488,-0.0488,-0.09272,-0.10736,-0.11224
-0.05856,0.0488,-0.03904,-0.00976,0.01952,-0.03904,0.03904,-0.00488,-0.05368,-0.0976,-0.11224,-0.11224
-0.05856,0.0488,-0.03904,-0.00976,0.01952,-0.03904,0.0488,-0.00976,-0.0488,-0.0976,-0.11224,-0.10736
-0.0488,0.03904,-0.02928,-0.00488,0.01952,-0.03416,0.05856,-0.01464,-0.0488,-0.09272,-0.10736,-0.10248
-0.0488,0.04148,-0.03416,-0.00976,0.01464,-0.03172,0.0488,-0.01952,-0.05368,-0.0976,-0.10736,-0.10248
-0.0488,0.04392,-0.03904,-0.01464,0.00976,-0.02928,0.03904,-0.02928,-0.05856,-0.10248,-0.11224,-0.10736
-0.0488,0.04392,-0.03904,-0.01464,0.00976,-0.02928,0.03904,-0.02928,-0.05368,-0.09272,-0.11224,-0.10248
-0.0488,0.04392,-0.03904,-0.01464,0.00976,-0.02928,0.03904,-0.02928,-0.0488,-0.08784,-0.11712,-0.0976
-0.03904,0.03172,-0.0244,-0.00488,0.01464,-0.02684,0.04392,-0.01464,-0.03904,-0.08296,-0.10736,-0.09272
-0.02928,0.01952,-0.00976,0.00488,0.01952,-0.0244,0.0488,0,-0.02928,-0.07808,-0.0976,-0.08784
-0.03416,0.02196,-0.00976,0.00732,0.0244,-0.02928,0.0488,0,-0.02928,-0.0732,-0.09272,-0.08784
-0.02928,0.01952,-0.00976,0.00488,0.01952,-0.0244,0.04392,0,-0.03416,-0.06832,-0.08784,-0.08296
-0.02928,0.01952,-0.00976,0.00488,0.01952,-0.0244,0.03904,-0.00488,-0.03904,-0.06344,-0.08784,-0.08296
-0.02928,0.02196,-0.01464,0,0.01464,-0.02196,0.03416,-0.00488,-0.04392,-0.05856,-0.08784,-0.08296
-0.01464,0,0.01464,0.02196,0.02928,-0.02196,0.04392,-0.00488,-0.03416,-0.0488,-0.06832,-0.07808
-0.0244,-0.00488,0.03416,0.04636,0.05856,-0.04148,0.06344,0.00488,-0.01952,-0.03904,-0.06344,-0.0732
-0.03416,0,0.03416,0.05124,0.06832,-0.05124,0.06344,0,-0.01464,-0.03904,-0.05856,-0.06832
-0.03904,-0.00244,0.04392,0.06344,0.08296,-0.061,0.06832,0,-0.00976,-0.03416,-0.05856,-0.06832
-0.03904,-0.00732,0.05368,0.0732,0.09272,-0.06588,0.06344,0,-0.00976,-0.03904,-0.05856,-0.06832
-0.03904,-0.00976,0.05856,0.07808,0.0976,-0.06832,0.05856,0,-0.01464,-0.03416,-0.05368,-0.05856
-0.0244,-0.01708,0.05856,0.07076,0.08296,-0.05368,0.04392,-0.01952,-0.01952,-0.03416,-0.05368,-0.05856
-0.00976,-0.03172,0.0732,0.07808,0.08296,-0.04636,0.01952,-0.0244,-0.0244,-0.03904,-0.0488,-0.05856
0.00488,-0.03904,0.0732,0.07076,0.06832,-0.03172,0,-0.0244,-0.01952,-0.03904,-0.04392,-0.05368
0.01464,-0.04636,0.07808,0.07076,0.06344,-0.0244,0,-0.0244,-0.00976,-0.02928,-0.03416,-0.04392
0.00976,-0.03904,0.06832,0.06344,0.05856,-0.0244,-0.00488,-0.00976,0,-0.02928,-0.03416,-0.04392
0,-0.0244,0.0488,0.0488,0.0488,-0.0244,-0.01952,-0.01952,-0.01464,-0.03904,-0.04392,-0.05368
0,-0.0244,0.0488,0.0488,0.0488,-0.0244,-0.0244,-0.02928,-0.02928,-0.04392,-0.0488,-0.05856
0.00976,-0.03416,0.05856,0.05368,0.0488,-0.01952,-0.0244,-0.03416,-0.03416,-0.0488,-0.05368,-0.05856
0.01952,-0.03904,0.05856,0.0488,0.03904,-0.00976,-0.0244,-0.03416,-0.03416,-0.0488,-0.05368,-0.05856
0.00976,-0.0366,0.06344,0.05856,0.05368,-0.02196,-0.0244,-0.03416,-0.03416,-0.04392,-0.05368,-0.05856
0.00488,-0.03416,0.06344,0.061,0.05856,-0.02684,-0.00976,-0.02928,-0.03416,-0.03904,-0.04392,-0.05856
0.00488,-0.03172,0.05856,0.05612,0.05368,-0.0244,-0.00488,-0.0244,-0.03416,-0.03904,-0.03904,-0.05368
0.00488,-0.0244,0.04392,0.04148,0.03904,-0.01708,0.00488,-0.0244,-0.03416,-0.04392,-0.0488,-0.05856
-0.00976,-0.00732,0.0244,0.02928,0.03416,-0.02196,0.01464,-0.0244,-0.03416,-0.05368,-0.05856,-0.06832
-0.0244,0.00976,0.00488,0.01708,0.02928,-0.02684,0.00488,-0.03904,-0.05368,-0.06832,-0.07808,-0.08296
-0.03416,0.03172,-0.02928,-0.0122,0.00488,-0.01952,-0.00488,-0.05856,-0.0732,-0.08296,-0.09272,-0.10248
-0.03416,0.0366,-0.03904,-0.02196,-0.00488,-0.01464,0.01464,-0.05856,-0.07808,-0.08784,-0.0976,-0.11224
-0.03416,0.03904,-0.04392,-0.02684,-0.00976,-0.0122,0.02928,-0.05856,-0.07808,-0.08784,-0.10248,-0.11224
-0.03416,0.03904,-0.04392,-0.02684,-0.00976,-0.0122,0.01952,-0.05368,-0.07808,-0.10248,-0.10736,-0.11224
-0.04392,0.05124,-0.05856,-0.0366,-0.01464,-0.01464,0.00976,-0.0488,-0.07808,-0.11712,-0.11224,-0.122
-0.06344,0.06344,-0.06344,-0.03172,0,-0.03172,0.00976,-0.0488,-0.08296,-0.11712,-0.11712,-0.13176
-0.07808,0.0732,-0.06832,-0.02928,0.00976,-0.04392,0.01464,-0.0488,-0.08296,-0.11712,-0.11712,-0.13176
-0.06344,0.06832,-0.0732,-0.04148,-0.00976,-0.02684,0.01952,-0.0488,-0.07808,-0.11712,-0.11712,-0.13176
-0.0732,0.0732,-0.0732,-0.0366,0,-0.0366,0.0244,-0.04392,-0.07808,-0.11712,-0.11712,-0.13176
-0.05368,0.05856,-0.06344,-0.0366,-0.00976,-0.02196,0.02928,-0.04392,-0.08296,-0.122,-0.122,-0.13664
-0.03904,0.04636,-0.05368,-0.03416,-0.01464,-0.0122,0.03416,-0.0488,-0.08296,-0.122,-0.122,-0.13664
-0.03904,0.04636,-0.05368,-0.03416,-0.01464,-0.0122,0.03416,-0.0488,-0.08296,-0.122,-0.122,-0.13664
-0.03904,0.04636,-0.05368,-0.03416,-0.01464,-0.0122,0.03416,-0.04392,-0.08296,-0.122,-0.122,-0.13664
-0.05368,0.06344,-0.0732,-0.04636,-0.01952,-0.01708,0.0244,-0.0488,-0.09272,-0.13176,-0.12688,-0.14152
-0.06832,0.08296,-0.0976,-0.06344,-0.02928,-0.01952,0.01464,-0.05368,-0.0976,-0.13664,-0.13176,-0.15128
-0.06832,0.08296,-0.0976,-0.06344,-0.02928,-0.01952,0.01952,-0.05368,-0.0976,-0.13176,-0.13664,-0.15128
-0.06832,0.0854,-0.10248,-0.06832,-0.03416,-0.01708,0.02928,-0.0488,-0.09272,-0.13176,-0.13664,-0.15128
-0.09272,0.09516,-0.0976,-0.05124,-0.00488,-0.04392,0.06832,-0.01952,-0.0732,-0.13176,-0.14152,-0.16592
-0.12688,0.1098,-0.09272,-0.02928,0.03416,-0.08052,0.11224,0,-0.05856,-0.12688,-0.16104,-0.18544
-0.14152,0.11712,-0.09272,-0.02196,0.0488,-0.09516,0.14152,0.01464,-0.0732,-0.13664,-0.18544,-0.20496
-0.10248,0.0854,-0.06832,-0.01708,0.03416,-0.06832,0.16104,0.03416,-0.03904,-0.0976,-0.14152,-0.1708
-0.06344,0.03904,-0.01464,0.01708,0.0488,-0.05612,0.16104,0.12688,0.09272,0.01952,-0.03904,-0.0976
0.00488,-0.02928,0.05368,0.05124,0.0488,-0.02196,0.18056,0.32208,0.33672,0.22448,0.15128,0.03904
0.09272,-0.11224,0.13176,0.0854,0.03904,0.02684,0.18544,0.46848,0.58072,0.49776,0.40016,0.22448
0.21472,-0.21472,0.21472,0.10736,0,0.10736,0.07808,0.53192,0.76128,0.74176,0.66856,0.44896
0.366,-0.36356,0.36112,0.17812,-0.00488,0.18544,-0.15128,0.49288,0.89304,1.01504,1.01992,0.75152
0.50752,-0.49044,0.47336,0.2196,-0.03416,0.27084,-0.42944,0.38552,0.93696,1.20536,1.30296,0.976
0.69296,-0.64904,0.60512,0.25864,-0.08784,0.3904,-0.7076,0.32696,0.99552,1.3176,1.49328,1.1956
0.75152,-0.70272,0.65392,0.27816,-0.0976,0.42456,-0.89792,0.06832,0.77104,1.15656,1.38592,1.18096
0.6832,-0.64416,0.60512,0.26352,-0.07808,0.38064,-1.0004,-0.29768,0.30744,0.74176,1.0248,0.93696
0.53192,-0.48556,0.4392,0.17324,-0.09272,0.31232,-0.96624,-0.57096,-0.1952,0.22936,0.52704,0.57096
0.2684,-0.2318,0.1952,0.061,-0.0732,0.1708,-0.81008,-0.81984,-0.74176,-0.37088,-0.0732,0.13664
0.1464,-0.10004,0.05368,-0.01952,-0.09272,0.11956,-0.60512,-0.77104,-0.81496,-0.52704,-0.2684,-0.03904
0.11224,-0.0366,-0.03904,-0.09516,-0.15128,0.13176,-0.37088,-0.47336,-0.56608,-0.44896,-0.2684,-0.10248
0.0732,-0.0244,-0.0244,-0.061,-0.0976,0.0854,-0.21472,-0.26352,-0.366,-0.32208,-0.2196,-0.11712
0.0488,-0.01952,-0.00976,-0.03416,-0.05856,0.05368,-0.12688,-0.122,-0.22936,-0.2196,-0.1708,-0.11224
0.02928,-0.00244,-0.0244,-0.03904,-0.05368,0.04148,-0.04392,-0.03416,-0.12688,-0.1464,-0.13664,-0.11224
-0.01464,0.02928,-0.04392,-0.0366,-0.02928,0.00732,0,-0.03904,-0.10736,-0.12688,-0.13176,-0.122
-0.02928,0.0488,-0.06832,-0.05368,-0.03904,0.00488,0.01464,-0.02928,-0.0976,-0.13176,-0.13176,-0.12688
-0.03904,0.05368,-0.06832,-0.0488,-0.02928,-0.00488,0.01464,-0.02928,-0.09272,-0.12688,-0.13176,-0.13664
-0.06344,0.06588,-0.06832,-0.0366,-0.00488,-0.02928,0.02928,-0.03416,-0.07808,-0.11712,-0.13176,-0.14152
-0.06344,0.06588,-0.06832,-0.0366,-0.00488,-0.02928,0.03904,-0.05368,-0.0976,-0.12688,-0.13664,-0.14152
-0.05368,0.06344,-0.0732,-0.04636,-0.01952,-0.01708,0.04392,-0.06344,-0.10736,-0.13176,-0.14152,-0.1464
-0.05368,0.061,-0.06832,-0.04148,-0.01464,-0.01952,0.0488,-0.03416,-0.08784,-0.13176,-0.14152,-0.13664
-0.05368,0.05856,-0.06344,-0.0366,-0.00976,-0.02196,0.05368,-0.0244,-0.06832,-0.12688,-0.14152,-0.12688
-0.0488,0.05612,-0.06344,-0.03904,-0.01464,-0.01708,0.05368,-0.0244,-0.0732,-0.122,-0.13664,-0.13664
-0.04392,0.05368,-0.06344,-0.04148,-0.01952,-0.0122,0.05368,-0.0244,-0.08296,-0.122,-0.14152,-0.1464
-0.05368,0.061,-0.06832,-0.04148,-0.01464,-0.01952,0.0488,-0.01952,-0.08296,-0.12688,-0.1464,-0.1464
-0.05368,0.06344,-0.0732,-0.04636,-0.01952,-0.01708,0.04392,-0.01952,-0.07808,-0.13176,-0.1464,-0.1464
-0.05368,0.06344,-0.0732,-0.04636,-0.01952,-0.01708,0.0488,-0.01952,-0.07808,-0.122,-0.13664,-0.1464
-0.04392,0.05856,-0.0732,-0.05124,-0.02928,-0.00732,0.0488,-0.01952,-0.07808,-0.122,-0.13664,-0.14152
-0.04392,0.061,-0.07808,-0.05612,-0.03416,-0.00488,0.0488,-0.01952,-0.07808,-0.122,-0.13664,-0.1464
-0.0488,0.06344,-0.07808,-0.05368,-0.02928,-0.00976,0.0488,-0.0244,-0.07808,-0.122,-0.13664,-0.15128
-0.05368,0.06588,-0.07808,-0.05124,-0.0244,-0.01464,0.03904,-0.0244,-0.06832,-0.11712,-0.13176,-0.1464
-0.05856,0.06832,-0.07808,-0.0488,-0.01952,-0.01952,0.02928,-0.0244,-0.06832,-0.11712,-0.13176,-0.1464
-0.05856,0.06832,-0.07808,-0.0488,-0.01952,-0.01952,0.03904,-0.01952,-0.06832,-0.10736,-0.12688,-0.13664
-0.0488,0.05856,-0.06832,-0.04392,-0.01952,-0.01464,0.04392,-0.01952,-0.06344,-0.10248,-0.122,-0.13176
-0.05368,0.061,-0.06832,-0.04148,-0.01464,-0.01952,0.03904,-0.01952,-0.06344,-0.10736,-0.122,-0.13176
-0.0488,0.05856,-0.06832,-0.04392,-0.01952,-0.01464,0.03904,-0.01952,-0.06344,-0.10736,-0.122,-0.13664
-0.05856,0.06344,-0.06832,-0.03904,-0.00976,-0.0244,0.03416,-0.01464,-0.06344,-0.10248,-0.122,-0.13664
-0.06344,0.06588,-0.06832,-0.0366,-0.00488,-0.02928,0.02928,-0.01464,-0.06344,-0.10248,-0.12688,-0.13664
-0.05856,0.06344,-0.06832,-0.03904,-0.00976,-0.0244,0.02928,-0.01464,-0.0732,-0.10736,-0.12688,-0.13664
-0.0488,0.05368,-0.05856,-0.03416,-0.00976,-0.01952,0.02928,-0.0244,-0.08296,-0.10736,-0.12688,-0.13176
-0.0488,0.05368,-0.05856,-0.03416,-0.00976,-0.01952,0.03904,-0.0244,-0.06832,-0.10248,-0.122,-0.12688
-0.0488,0.05368,-0.05856,-0.03416,-0.00976,-0.01952,0.0488,-0.01952,-0.05856,-0.09272,-0.122,-0.12688
-0.04392,0.0488,-0.05368,-0.03172,-0.00976,-0.01708,0.03904,-0.01952,-0.05368,-0.09272,-0.122,-0.12688
-0.03904,0.04392,-0.0488,-0.02928,-0.00976,-0.01464,0.0244,-0.00976,-0.0488,-0.09272,-0.11712,-0.12688
-0.02928,0.03416,-0.03904,-0.0244,-0.00976,-0.00976,0.0244,0,-0.0488,-0.08784,-0.11712,-0.122
-0.02928,0.03416,-0.03904,-0.0244,-0.00976,-0.00976,0.0244,0.00488,-0.04392,-0.07808,-0.11224,-0.11712
-0.0244,0.03172,-0.03904,-0.02684,-0.01464,-0.00488,0.0244,0.00488,-0.04392,-0.0732,-0.10248,-0.11224
-0.0244,0.02928,-0.03416,-0.02196,-0.00976,-0.00732,0.0244,0.01464,-0.03416,-0.06832,-0.0976,-0.10248
-0.03904,0.03904,-0.03904,-0.01952,0,-0.01952,0.02928,0.00976,-0.03416,-0.06832,-0.0976,-0.10248
-0.0488,0.0366,-0.0244,0,0.0244,-0.0366,0.03904,0.00488,-0.0244,-0.05856,-0.09272,-0.0976
-0.0244,0.02196,-0.01952,-0.00732,0.00488,-0.01464,0.03904,0.00976,-0.0244,-0.05368,-0.08296,-0.09272
-0.00488,0.00488,-0.00488,-0.00244,0,-0.00244,0.02928,0.01464,-0.00976,-0.04392,-0.07808,-0.08784
-0.00976,0.00244,0.00488,0.00976,0.01464,-0.0122,0.0244,0.0244,0,-0.03904,-0.06344,-0.0732
-0.01952,0.00488,0.00976,0.01952,0.02928,-0.0244,0.01952,0.0244,0.00488,-0.03416,-0.05368,-0.06344
-0.02928,0.00244,0.0244,0.03904,0.05368,-0.04148,0.01952,0.03416,0.01464,-0.01952,-0.03904,-0.05368
-0.04392,0.00244,0.03904,0.061,0.08296,-0.06344,0.01464,0.04392,0.03904,0,-0.01952,-0.02928
-0.00488,-0.03172,0.06832,0.07076,0.0732,-0.03904,0,0.05368,0.0488,0.01952,0,-0.01952
0.01464,-0.05124,0.08784,0.08052,0.0732,-0.02928,-0.01464,0.06832,0.0732,0.03416,0.01464,-0.00488
0.01464,-0.061,0.10736,0.10004,0.09272,-0.03904,-0.02928,0.06832,0.08296,0.05856,0.04392,0.00976
0.0244,-0.07564,0.12688,0.11468,0.10248,-0.03904,-0.04392,0.0732,0.08784,0.07808,0.06344,0.02928
0.03416,-0.09516,0.15616,0.13908,0.122,-0.04392,-0.05368,0.06344,0.0976,0.09272,0.07808,0.05368
0.03904,-0.10736,0.17568,0.15616,0.13664,-0.0488,-0.05856,0.05368,0.09272,0.11224,0.09272,0.06344
0.05368,-0.12444,0.1952,0.16836,0.14152,-0.04392,-0.06344,0.06832,0.11712,0.13176,0.122,0.09272
0.05856,-0.1342,0.20984,0.18056,0.15128,-0.04636,-0.05856,0.08296,0.13664,0.14152,0.14152,0.10736
0.06832,-0.14884,0.22936,0.1952,0.16104,-0.04636,-0.06832,0.08296,0.13664,0.15128,0.16592,0.122
0.07808,-0.16592,0.25376,0.21472,0.17568,-0.0488,-0.07808,0.08296,0.1464,0.16592,0.1708,0.13664
0.09272,-0.1708,0.24888,0.20252,0.15616,-0.03172,-0.08296,0.06832,0.14152,0.1708,0.18544,0.15616
0.0976,-0.16592,0.23424,0.18544,0.13664,-0.01952,-0.08784,0.0488,0.13176,0.16104,0.18544,0.15616
0.09272,-0.1708,0.24888,0.20252,0.15616,-0.03172,-0.08784,0.05368,0.13664,0.1708,0.19032,0.16592
0.08296,-0.16104,0.23912,0.19764,0.15616,-0.0366,-0.08784,0.06344,0.14152,0.1708,0.18544,0.1708
0.0732,-0.14152,0.20984,0.17324,0.13664,-0.03172,-0.08784,0.06344,0.13664,0.16104,0.18056,0.15616
0.06344,-0.122,0.18056,0.14884,0.11712,-0.02684,-0.07808,0.06344,0.12688,0.15128,0.16104,0.13176
0.05856,-0.11468,0.1708,0.14152,0.11224,-0.02684,-0.06832,0.05368,0.11224,0.12688,0.13176,0.11224
0.03904,-0.09516,0.15128,0.13176,0.11224,-0.0366,-0.05856,0.0488,0.09272,0.11224,0.11712,0.09272
0.05368,-0.10248,0.15128,0.12444,0.0976,-0.02196,-0.0488,0.0244,0.07808,0.09272,0.0976,0.0732
0.08296,-0.11224,0.14152,0.10004,0.05856,0.0122,-0.03904,0.00488,0.05856,0.06832,0.06832,0.03904
0.05368,-0.08296,0.11224,0.0854,0.05856,-0.00244,-0.03416,0.0244,0.0488,0.04392,0.03904,0.01464
0.01952,-0.04392,0.06832,0.05856,0.0488,-0.01464,-0.03416,0.02928,0.02928,0.0244,0.01464,-0.00488
0.01952,-0.03904,0.05856,0.0488,0.03904,-0.00976,-0.0244,0.01464,0.00976,-0.00488,0,-0.0244
0.01464,-0.02684,0.03904,0.03172,0.0244,-0.00488,-0.0244,-0.00488,0,-0.02928,-0.02928,-0.04392
0,-0.0122,0.0244,0.0244,0.0244,-0.0122,-0.01952,-0.00976,-0.01464,-0.03904,-0.03904,-0.05856
0.00488,-0.00976,0.01464,0.0122,0.00976,-0.00244,-0.00976,-0.00976,-0.02928,-0.0488,-0.0488,-0.0732
0.01952,-0.0122,0.00488,-0.00488,-0.01464,0.01708,0.00488,-0.0244,-0.03904,-0.0488,-0.05856,-0.08296
0.01464,-0.00488,-0.00488,-0.0122,-0.01952,0.01708,0.02928,-0.02928,-0.04392,-0.05368,-0.06344,-0.09272
-0.00488,0.0122,-0.01952,-0.01708,-0.01464,0.00488,0.01464,-0.02928,-0.04392,-0.06832,-0.08296,-0.09272
-0.0244,0.02684,-0.02928,-0.01708,-0.00488,-0.00976,0.00488,-0.02928,-0.0488,-0.08296,-0.0976,-0.10736
-0.03416,0.0366,-0.03904,-0.02196,-0.00488,-0.01464,0,-0.02928,-0.05368,-0.08296,-0.10248,-0.11224
-0.03904,0.04148,-0.04392,-0.0244,-0.00488,-0.01708,-0.00488,-0.03416,-0.05856,-0.09272,-0.10736,-0.11224
-0.03904,0.0488,-0.05856,-0.03904,-0.01952,-0.00976,0,-0.02928,-0.05856,-0.09272,-0.10248,-0.11224
-0.03904,0.05368,-0.06832,-0.0488,-0.02928,-0.00488,0,-0.0244,-0.05368,-0.08784,-0.10248,-0.11224
-0.03904,0.04392,-0.0488,-0.02928,-0.00976,-0.01464,0.01464,-0.0244,-0.05368,-0.08784,-0.10248,-0.10736
-0.03416,0.03172,-0.02928,-0.0122,0.00488,-0.01952,0.0244,-0.01952,-0.05368,-0.08784,-0.10248,-0.10248
-0.02928,0.02928,-0.02928,-0.01464,0,-0.01464,0.03416,-0.01952,-0.05856,-0.0976,-0.0976,-0.10736
-0.02928,0.03172,-0.03416,-0.01952,-0.00488,-0.0122,0.04392,-0.0244,-0.05856,-0.0976,-0.0976,-0.10736
-0.02928,0.03416,-0.03904,-0.0244,-0.00976,-0.00976,0.03416,-0.0244,-0.05856,-0.0976,-0.0976,-0.10736
-0.04392,0.04148,-0.03904,-0.01708,0.00488,-0.0244,0.01952,-0.0244,-0.05856,-0.0976,-0.0976,-0.11224
-0.0244,0.03172,-0.03904,-0.02684,-0.01464,-0.00488,0.01464,-0.03904,-0.0732,-0.10248,-0.10736,-0.11712
-0.00488,0.02196,-0.03904,-0.0366,-0.03416,0.01464,0.00488,-0.05368,-0.08784,-0.10736,-0.122,-0.12688
-0.00488,0.02196,-0.03904,-0.0366,-0.03416,0.01464,0.00488,-0.04392,-0.07808,-0.10736,-0.122,-0.12688
0,0.01952,-0.03904,-0.03904,-0.03904,0.01952,0.00488,-0.03416,-0.0732,-0.10248,-0.122,-0.12688
0,0.01952,-0.03904,-0.03904,-0.03904,0.01952,0.00976,-0.03416,-0.0732,-0.10248,-0.11712,-0.11712
-0.01952,0.02928,-0.03904,-0.02928,-0.01952,0,0.00976,-0.03416,-0.0732,-0.10248,-0.11224,-0.11224
