i,aVR,ii,aVF,iii,aVL,V1,V2,V3,V4,V5,V6
-0.01464,0.01708,-0.01952,-0.0122,-0.00488,-0.00488,0.04392,0.0488,-0.01464,-0.12688,-0.03416,-0.04392
-0.01464,0.0122,-0.00976,-0.00244,0.00488,-0.00976,0.03904,0.05368,-0.01952,-0.11712,-0.02928,-0.03416
-0.00976,0.00732,-0.00488,0,0.00488,-0.00732,0.03416,0.06344,-0.00976,-0.11712,-0.01952,-0.04392
-0.00976,0.00244,0.00488,0.00976,0.01464,-0.0122,0.02928,0.06344,-0.00488,-0.11224,-0.01464,-0.03904
0,-0.01464,0.02928,0.02928,0.02928,-0.01464,0.0244,0.06344,-0.00488,-0.10248,-0.00488,-0.01464
0.00488,-0.01708,0.02928,0.02684,0.0244,-0.00976,0.01952,0.07808,0.00976,-0.08296,0.01464,0.00488
0.01464,-0.03172,0.0488,0.04148,0.03416,-0.00976,0.01952,0.07808,0.01952,-0.07808,0.0244,0.01464
0.02928,-0.04392,0.05856,0.04392,0.02928,0,0.02928,0.07808,0.01952,-0.06832,0.04392,0.01952
0.03904,-0.05124,0.06344,0.04392,0.0244,0.00732,0.01952,0.07808,0.01952,-0.06832,0.03904,0.02928
0.04392,-0.05368,0.06344,0.04148,0.01952,0.0122,-0.00488,0.0976,0.03904,-0.05368,0.05856,0.06344
0.0488,-0.06832,0.08784,0.06344,0.03904,0.00488,-0.02928,0.0976,0.05368,-0.03904,0.07808,0.0732
0.05368,-0.07808,0.10248,0.07564,0.0488,0.00244,-0.02928,0.10248,0.06344,-0.01464,0.09272,0.08784
0.05856,-0.08784,0.11712,0.08784,0.05856,0,-0.03416,0.11224,0.08296,-0.00488,0.10248,0.0976
0.06832,-0.08784,0.10736,0.0732,0.03904,0.01464,-0.03416,0.10248,0.09272,-0.00976,0.11224,0.11224
0.07808,-0.10248,0.12688,0.08784,0.0488,0.01464,-0.03904,0.10248,0.09272,0.01464,0.12688,0.122
0.08296,-0.11224,0.14152,0.10004,0.05856,0.0122,-0.05368,0.10736,0.09272,0.02928,0.13664,0.11224
0.07808,-0.1098,0.14152,0.10248,0.06344,0.00732,-0.06832,0.10248,0.0976,0.01952,0.15128,0.12688
0.0732,-0.122,0.1708,0.1342,0.0976,-0.0122,-0.06832,0.10248,0.11224,0.04392,0.16104,0.1464
0.08296,-0.1342,0.18544,0.14396,0.10248,-0.00976,-0.07808,0.0976,0.11224,0.04392,0.16104,0.15128
0.09272,-0.1342,0.17568,0.12932,0.08296,0.00488,-0.05856,0.10736,0.12688,0.05368,0.18056,0.16592
0.0976,-0.12932,0.16104,0.11224,0.06344,0.01708,-0.06832,0.10736,0.12688,0.05856,0.18056,0.1708
0.08296,-0.122,0.16104,0.11956,0.07808,0.00244,-0.05856,0.11224,0.13664,0.05856,0.18056,0.18056
0.08296,-0.12444,0.16592,0.12444,0.08296,0,-0.05856,0.11224,0.13664,0.06344,0.18056,0.18056
0.09272,-0.13664,0.18056,0.1342,0.08784,0.00244,-0.06344,0.11224,0.14152,0.05856,0.17568,0.17568
0.08296,-0.12688,0.1708,0.12932,0.08784,-0.00244,-0.05368,0.10248,0.13664,0.05368,0.15616,0.14152
0.07808,-0.11224,0.1464,0.10736,0.06832,0.00488,-0.06344,0.09272,0.122,0.02928,0.14152,0.11224
0.07808,-0.10248,0.12688,0.08784,0.0488,0.01464,-0.04392,0.09272,0.10248,0.00976,0.12688,0.0976
0.06832,-0.09272,0.11712,0.08296,0.0488,0.00976,-0.03904,0.07808,0.09272,-0.00488,0.10248,0.08784
0.05856,-0.08052,0.10248,0.0732,0.04392,0.00732,-0.0244,0.06344,0.0732,-0.01952,0.08296,0.05856
0.03416,-0.05856,0.08296,0.06588,0.0488,-0.00732,0,0.0732,0.07808,-0.02928,0.06832,0.05368
0.0244,-0.03904,0.05368,0.04148,0.02928,-0.00244,0,0.06344,0.05856,-0.0488,0.0488,0.02928
0.0244,-0.02196,0.01952,0.00732,-0.00488,0.01464,0.00976,0.06344,0.04392,-0.06832,0.02928,0.0244
0.01952,-0.01952,0.01952,0.00976,0,0.00976,0.00976,0.05368,0.03416,-0.0732,0.01952,0.0244
0,-0.00244,0.00488,0.00488,0.00488,-0.00244,0.01464,0.0488,0.03416,-0.07808,0.00976,0.01464
-0.00488,0.00976,-0.01464,-0.0122,-0.00976,0.00244,0.01464,0.03416,0.01952,-0.0976,-0.00488,-0.0244
-0.01464,0.0122,-0.00976,-0.00244,0.00488,-0.00976,0.00976,0.01952,0,-0.11712,-0.01464,-0.03904
-0.01464,0.01464,-0.01464,-0.00732,0,-0.00732,0.00976,0.01464,-0.00488,-0.122,-0.0244,-0.03416
-0.01464,0.01708,-0.01952,-0.0122,-0.00488,-0.00488,0.01952,0.00488,-0.0244,-0.14152,-0.03904,-0.03904
-0.00488,0.01952,-0.03416,-0.03172,-0.02928,0.0122,0.01952,0.00488,-0.02928,-0.14152,-0.04392,-0.0488
-0.01464,0.0244,-0.03416,-0.02684,-0.01952,0.00244,0.01952,0.00488,-0.04392,-0.15128,-0.0488,-0.0488
-0.01464,0.02684,-0.03904,-0.03172,-0.0244,0.00488,0.02928,-0.00488,-0.04392,-0.15616,-0.05368,-0.05368
-0.0244,0.02928,-0.03416,-0.02196,-0.00976,-0.00732,0.0244,-0.00488,-0.03416,-0.15128,-0.04392,-0.05856
-0.0244,0.02684,-0.02928,-0.01708,-0.00488,-0.00976,0.01952,-0.00488,-0.03904,-0.1464,-0.0488,-0.06344
-0.02928,0.03172,-0.03416,-0.01952,-0.00488,-0.0122,0.0244,-0.00488,-0.03416,-0.1464,-0.0488,-0.05368
-0.02928,0.03904,-0.0488,-0.03416,-0.01952,-0.00488,0.0244,-0.00976,-0.03416,-0.15128,-0.04392,-0.05368
-0.02928,0.04148,-0.05368,-0.03904,-0.0244,-0.00244,0.0244,-0.00976,-0.04392,-0.15128,-0.04392,-0.05368
-0.02928,0.04148,-0.05368,-0.03904,-0.0244,-0.00244,0.01952,-0.00976,-0.04392,-0.15616,-0.0488,-0.05368
-0.02928,0.03904,-0.0488,-0.03416,-0.01952,-0.00488,0.02928,0,-0.03904,-0.16104,-0.05856,-0.04392
-0.02928,0.0366,-0.04392,-0.02928,-0.01464,-0.00732,0.02928,-0.00488,-0.03904,-0.15616,-0.05368,-0.0488
-0.02928,0.02928,-0.02928,-0.01464,0,-0.01464,0.02928,-0.01464,-0.0488,-0.15128,-0.05856,-0.0488
-0.03416,0.03172,-0.02928,-0.0122,0.00488,-0.01952,0.0244,-0.01952,-0.0488,-0.15128,-0.05856,-0.0488
-0.0244,0.02684,-0.02928,-0.01708,-0.00488,-0.00976,0.01952,-0.01464,-0.0488,-0.15128,-0.05856,-0.05368
-0.0244,0.02928,-0.03416,-0.02196,-0.00976,-0.00732,0.01952,-0.01464,-0.0488,-0.15616,-0.05368,-0.05856
-0.03904,0.03416,-0.02928,-0.00976,0.00976,-0.0244,0.02928,-0.00976,-0.04392,-0.15616,-0.0488,-0.03904
-0.0488,0.03904,-0.02928,-0.00488,0.01952,-0.03416,0.02928,-0.00976,-0.0488,-0.1464,-0.0488,-0.0488
-0.03904,0.0366,-0.03416,-0.01464,0.00488,-0.02196,0.01952,-0.01952,-0.0488,-0.15616,-0.0488,-0.0488
-0.03904,0.04636,-0.05368,-0.03416,-0.01464,-0.0122,0.0244,-0.01952,-0.0488,-0.1464,-0.0488,-0.04392
-0.0244,0.03416,-0.04392,-0.03172,-0.01952,-0.00244,0.01952,-0.01464,-0.0488,-0.1464,-0.0488,-0.03904
-0.0244,0.03416,-0.04392,-0.03172,-0.01952,-0.00244,0.01952,-0.01952,-0.0488,-0.1464,-0.04392,-0.03904
-0.02928,0.03904,-0.0488,-0.03416,-0.01952,-0.00488,0.01952,-0.00976,-0.04392,-0.14152,-0.03416,-0.03416
-0.03416,0.03904,-0.04392,-0.02684,-0.00976,-0.0122,0.0244,-0.00976,-0.03416,-0.13664,-0.03416,-0.03416
-0.03416,0.0366,-0.03904,-0.02196,-0.00488,-0.01464,0.01952,-0.0244,-0.03416,-0.14152,-0.04392,-0.03416
-0.0244,0.02928,-0.03416,-0.02196,-0.00976,-0.00732,0.01952,-0.01952,-0.03904,-0.15128,-0.0488,-0.03904
-0.02928,0.03416,-0.03904,-0.0244,-0.00976,-0.00976,0.01464,-0.00488,-0.03416,-0.14152,-0.03416,-0.03416
-0.03904,0.03416,-0.02928,-0.00976,0.00976,-0.0244,0.01464,-0.00488,-0.03416,-0.14152,-0.03416,-0.03416
-0.02928,0.0366,-0.04392,-0.02928,-0.01464,-0.00732,0.0244,-0.00488,-0.04392,-0.1464,-0.04392,-0.04392
-0.03416,0.03416,-0.03416,-0.01708,0,-0.01708,0.0244,0,-0.04392,-0.13664,-0.03904,-0.03416
-0.0244,0.02684,-0.02928,-0.01708,-0.00488,-0.00976,0.0244,-0.01464,-0.03904,-0.13176,-0.03904,-0.0244
-0.0244,0.02196,-0.01952,-0.00732,0.00488,-0.01464,0.0244,-0.00976,-0.03904,-0.13176,-0.03904,-0.02928
-0.01952,0.01952,-0.01952,-0.00976,0,-0.00976,0.0244,-0.00976,-0.04392,-0.13664,-0.03904,-0.03904
-0.01952,0.01952,-0.01952,-0.00976,0,-0.00976,0.02928,-0.00976,-0.04392,-0.13176,-0.03416,-0.03904
0,0.00488,-0.00976,-0.00976,-0.00976,0.00488,0.00976,-0.00976,-0.03904,-0.14152,-0.03904,-0.03904
-0.00976,0.01464,-0.01952,-0.01464,-0.00976,0,0.01464,-0.00976,-0.03416,-0.14152,-0.03416,-0.03416
-0.01952,0.02196,-0.0244,-0.01464,-0.00488,-0.00732,0.0244,0.00488,-0.02928,-0.13176,-0.03416,-0.0244
-0.0244,0.0244,-0.0244,-0.0122,0,-0.0122,0.0244,0.00488,-0.03416,-0.13176,-0.03416,-0.02928
-0.01952,0.02684,-0.03416,-0.0244,-0.01464,-0.00244,0.01464,0.00488,-0.04392,-0.13664,-0.03416,-0.02928
-0.0244,0.0244,-0.0244,-0.0122,0,-0.0122,0.01464,0,-0.04392,-0.14152,-0.03904,-0.02928
-0.01464,0.01708,-0.01952,-0.0122,-0.00488,-0.00488,0.00976,0,-0.04392,-0.13664,-0.04392,-0.03904
-0.01464,0.01708,-0.01952,-0.0122,-0.00488,-0.00488,0.00976,0,-0.04392,-0.13664,-0.04392,-0.04392
-0.02928,0.0244,-0.01952,-0.00488,0.00976,-0.01952,0.01464,-0.00488,-0.04392,-0.13176,-0.03416,-0.02928
-0.01952,0.01952,-0.01952,-0.00976,0,-0.00976,0.00976,-0.00488,-0.05368,-0.13176,-0.03904,-0.03904
-0.0244,0.0244,-0.0244,-0.0122,0,-0.0122,0.0244,0,-0.03904,-0.13176,-0.03904,-0.03904
-0.03904,0.03904,-0.03904,-0.01952,0,-0.01952,0.0244,0.00488,-0.03904,-0.13176,-0.03904,-0.03416
-0.03904,0.0366,-0.03416,-0.01464,0.00488,-0.02196,0.01952,0,-0.0488,-0.14152,-0.03904,-0.04392
-0.02928,0.03416,-0.03904,-0.0244,-0.00976,-0.00976,0.01952,0,-0.0488,-0.14152,-0.03904,-0.0488
-0.01464,0.02928,-0.04392,-0.0366,-0.02928,0.00732,0.01464,-0.00976,-0.05856,-0.14152,-0.04392,-0.03904
-0.00976,0.02928,-0.0488,-0.04392,-0.03904,0.01464,0.01464,-0.01464,-0.05856,-0.14152,-0.04392,-0.03904
-0.01952,0.02928,-0.03904,-0.02928,-0.01952,0,0.01952,0,-0.04392,-0.13176,-0.03416,-0.03904
-0.02928,0.03172,-0.03416,-0.01952,-0.00488,-0.0122,0.01952,-0.00488,-0.05368,-0.13664,-0.03904,-0.04392
-0.0244,0.02684,-0.02928,-0.01708,-0.00488,-0.00976,0.01952,-0.00976,-0.05856,-0.14152,-0.0488,-0.0488
-0.0244,0.03172,-0.03904,-0.02684,-0.01464,-0.00488,0.01464,-0.00488,-0.05856,-0.14152,-0.0488,-0.04392
-0.02928,0.03904,-0.0488,-0.03416,-0.01952,-0.00488,0.01464,-0.01464,-0.05368,-0.1464,-0.03904,-0.03904
-0.03904,0.0488,-0.05856,-0.03904,-0.01952,-0.00976,0.01952,-0.01464,-0.0488,-0.14152,-0.03904,-0.03416
-0.03416,0.04392,-0.05368,-0.0366,-0.01952,-0.00732,0.00976,-0.01464,-0.05368,-0.13664,-0.0488,-0.05368
-0.03416,0.03904,-0.04392,-0.02684,-0.00976,-0.0122,0.00976,-0.01952,-0.05856,-0.1464,-0.0488,-0.0488
-0.03904,0.03904,-0.03904,-0.01952,0,-0.01952,0.00976,-0.01464,-0.05856,-0.15128,-0.04392,-0.0488
-0.03416,0.03172,-0.02928,-0.0122,0.00488,-0.01952,0.00976,-0.01464,-0.05368,-0.14152,-0.04392,-0.0488
-0.0244,0.02684,-0.02928,-0.01708,-0.00488,-0.00976,0.01464,-0.01952,-0.06344,-0.14152,-0.04392,-0.05856
-0.0244,0.03172,-0.03904,-0.02684,-0.01464,-0.00488,0.01952,-0.01952,-0.06344,-0.1464,-0.04392,-0.06344
-0.0244,0.03172,-0.03904,-0.02684,-0.01464,-0.00488,0.02928,-0.0244,-0.05368,-0.15128,-0.0488,-0.05368
-0.0244,0.03172,-0.03904,-0.02684,-0.01464,-0.00488,0.02928,-0.0244,-0.06344,-0.1464,-0.0488,-0.05856
-0.0244,0.02928,-0.03416,-0.02196,-0.00976,-0.00732,0.01952,-0.01952,-0.05856,-0.1464,-0.03904,-0.04392
-0.0244,0.03416,-0.04392,-0.03172,-0.01952,-0.00244,0.01952,-0.01952,-0.05856,-0.1464,-0.03416,-0.04392
-0.04392,0.04636,-0.0488,-0.02684,-0.00488,-0.01952,0.01464,-0.01464,-0.05856,-0.14152,-0.03416,-0.03416
-0.03904,0.04392,-0.0488,-0.02928,-0.00976,-0.01464,0.01464,-0.01952,-0.05856,-0.1464,-0.03904,-0.03416
-0.03904,0.03904,-0.03904,-0.01952,0,-0.01952,0.01464,-0.01464,-0.06832,-0.15128,-0.04392,-0.03904
-0.03904,0.04148,-0.04392,-0.0244,-0.00488,-0.01708,0.00976,-0.01952,-0.0732,-0.15128,-0.05368,-0.05368
-0.02928,0.03904,-0.0488,-0.03416,-0.01952,-0.00488,0.01952,-0.02928,-0.0732,-0.16104,-0.0488,-0.0488
-0.02928,0.03904,-0.0488,-0.03416,-0.01952,-0.00488,0.01952,-0.02928,-0.0732,-0.16104,-0.05368,-0.0488
-0.03904,0.0488,-0.05856,-0.03904,-0.01952,-0.00976,0.0244,-0.0244,-0.06344,-0.15616,-0.06344,-0.03904
-0.04392,0.05368,-0.06344,-0.04148,-0.01952,-0.0122,0.02928,-0.0244,-0.06344,-0.15616,-0.06344,-0.04392
-0.03904,0.05124,-0.06344,-0.04392,-0.0244,-0.00732,0.02928,-0.02928,-0.0732,-0.15128,-0.05368,-0.04392
-0.01952,0.03904,-0.05856,-0.0488,-0.03904,0.00976,0.02928,-0.02928,-0.0732,-0.15616,-0.05368,-0.0488
-0.0244,0.04148,-0.05856,-0.04636,-0.03416,0.00488,0.02928,-0.02928,-0.0732,-0.15616,-0.05856,-0.05856
-0.02928,0.04148,-0.05368,-0.03904,-0.0244,-0.00244,0.0244,-0.02928,-0.07808,-0.15616,-0.05856,-0.05856
-0.02928,0.0366,-0.04392,-0.02928,-0.01464,-0.00732,0.01464,-0.03416,-0.0732,-0.15616,-0.05856,-0.05368
-0.0244,0.0366,-0.0488,-0.0366,-0.0244,0,0.01952,-0.0244,-0.0732,-0.15128,-0.05368,-0.05856
-0.02928,0.03904,-0.0488,-0.03416,-0.01952,-0.00488,0.01464,-0.02928,-0.06832,-0.15128,-0.05856,-0.0488
-0.03904,0.04148,-0.04392,-0.0244,-0.00488,-0.01708,0.00976,-0.02928,-0.06832,-0.15616,-0.05856,-0.0488
-0.03904,0.04636,-0.05368,-0.03416,-0.01464,-0.0122,0.00976,-0.02928,-0.05368,-0.14152,-0.05856,-0.04392
-0.03416,0.04392,-0.05368,-0.0366,-0.01952,-0.00732,0.00976,-0.0244,-0.05368,-0.14152,-0.05368,-0.0488
-0.03416,0.04392,-0.05368,-0.0366,-0.01952,-0.00732,0.01952,-0.0244,-0.06344,-0.14152,-0.05368,-0.0488
-0.0244,0.0366,-0.0488,-0.0366,-0.0244,0,0.01952,-0.0244,-0.06344,-0.14152,-0.05368,-0.04392
-0.0244,0.03904,-0.05368,-0.04148,-0.02928,0.00244,0.0244,-0.01952,-0.06344,-0.15128,-0.05368,-0.0488
-0.02928,0.0366,-0.04392,-0.02928,-0.01464,-0.00732,0.0244,-0.02928,-0.06344,-0.1464,-0.05368,-0.0488
-0.0488,0.0366,-0.0244,0,0.0244,-0.0366,0.01952,-0.03416,-0.07808,-0.16592,-0.06344,-0.05368
-0.03416,0.02928,-0.0244,-0.00732,0.00976,-0.02196,0.01464,-0.03416,-0.0732,-0.16104,-0.05856,-0.06344
-0.04392,0.04392,-0.04392,-0.02196,0,-0.02196,0.01952,-0.02928,-0.06344,-0.14152,-0.0488,-0.0488
-0.03416,0.03904,-0.04392,-0.02684,-0.00976,-0.0122,0.01952,-0.03416,-0.0732,-0.1464,-0.05368,-0.0488
-0.01952,0.0366,-0.05368,-0.04392,-0.03416,0.00732,0.02928,-0.00976,-0.05368,-0.13664,-0.04392,-0.03416
-0.00488,0.0244,-0.04392,-0.04148,-0.03904,0.01708,0.01952,-0.01952,-0.05856,-0.13664,-0.0488,-0.05368
-0.03904,0.04392,-0.0488,-0.02928,-0.00976,-0.01464,0.03904,-0.00976,-0.05856,-0.13664,-0.0488,-0.0488
-0.0488,0.0488,-0.0488,-0.0244,0,-0.0244,0.03904,-0.00976,-0.05856,-0.13664,-0.0488,-0.03904
-0.05856,0.05368,-0.0488,-0.01952,0.00976,-0.03416,0.03904,-0.00976,-0.05856,-0.13664,-0.0488,-0.03904
-0.05856,0.05368,-0.0488,-0.01952,0.00976,-0.03416,0.03904,0,-0.05856,-0.13664,-0.0488,-0.03904
-0.05856,0.05368,-0.0488,-0.01952,0.00976,-0.03416,0.03904,0,-0.05856,-0.13664,-0.0488,-0.03904
-0.03904,0.03416,-0.02928,-0.00976,0.00976,-0.0244,0.02928,-0.00976,-0.05856,-0.13664,-0.0488,-0.0488
-0.01952,0.01952,-0.01952,-0.00976,0,-0.00976,0.02928,-0.00976,-0.05856,-0.13664,-0.0488,-0.0488
0,0.00976,-0.01952,-0.01952,-0.01952,0.00976,0.01952,0,-0.05856,-0.13664,-0.0488,-0.0488
0.01952,0,-0.01952,-0.02928,-0.03904,0.02928,0.01952,0.00976,-0.05856,-0.13664,-0.0488,-0.0488
0.02928,-0.00976,-0.00976,-0.0244,-0.03904,0.03416,0.02928,0.01952,-0.0488,-0.12688,-0.03904,-0.03904
0.02928,-0.01464,0,-0.01464,-0.02928,0.02928,0.02928,0.01952,-0.03904,-0.11712,-0.03904,-0.03904
0.03904,-0.0244,0.00976,-0.00976,-0.02928,0.03416,0.03904,0.02928,-0.02928,-0.10736,-0.01952,-0.01952
0.03904,-0.0244,0.00976,-0.00976,-0.02928,0.03416,0.03904,0.03904,-0.02928,-0.10736,-0.00976,-0.00976
0.0488,-0.0244,0,-0.0244,-0.0488,0.0488,0.02928,0.02928,-0.02928,-0.10736,-0.01952,-0.01952
0.0488,-0.01952,-0.00976,-0.03416,-0.05856,0.05368,0.02928,0.01952,-0.02928,-0.10736,-0.01952,-0.01952
0.0244,-0.01708,0.00976,-0.00244,-0.01464,0.01952,0.01952,0,-0.0488,-0.11712,-0.01952,-0.00976
0.01464,-0.0244,0.03416,0.02684,0.01952,-0.00244,0.00976,-0.00976,-0.0488,-0.11712,-0.01464,-0.00488
0.0244,-0.02684,0.02928,0.01708,0.00488,0.00976,0.00488,-0.00976,-0.0488,-0.12688,-0.01952,-0.00488
0.01464,-0.01464,0.01464,0.00732,0,0.00732,0.00976,-0.00976,-0.0488,-0.11712,-0.01464,0
0.0244,-0.01952,0.01464,0.00244,-0.00976,0.01708,0.00976,-0.01464,-0.0488,-0.10736,-0.01952,-0.01464
0.0244,-0.01708,0.00976,-0.00244,-0.01464,0.01952,0.00976,-0.01464,-0.0488,-0.11712,-0.02928,-0.02928
-0.00488,0.00732,-0.00976,-0.00732,-0.00488,0,0.01952,0,-0.03904,-0.11224,-0.01952,-0.00976
-0.00976,0.01464,-0.01952,-0.01464,-0.00976,0,0.01952,0.00976,-0.04392,-0.10736,-0.01952,-0.01464
0.00488,0.00488,-0.01464,-0.01708,-0.01952,0.0122,0.00488,-0.00976,-0.06344,-0.122,-0.02928,-0.0244
0.00488,0.00976,-0.0244,-0.02684,-0.02928,0.01708,0,-0.0244,-0.06832,-0.13176,-0.04392,-0.02928
-0.01464,0.01952,-0.0244,-0.01708,-0.00976,-0.00244,0.00976,-0.00976,-0.06832,-0.13664,-0.04392,-0.04392
-0.01464,0.0244,-0.03416,-0.02684,-0.01952,0.00244,0.00488,-0.00488,-0.06344,-0.13664,-0.04392,-0.05368
-0.01952,0.0366,-0.05368,-0.04392,-0.03416,0.00732,0.01952,-0.02928,-0.0976,-0.16104,-0.06344,-0.05368
-0.0244,0.04148,-0.05856,-0.04636,-0.03416,0.00488,0.01952,-0.03416,-0.10736,-0.1708,-0.0732,-0.05856
-0.02928,0.03172,-0.03416,-0.01952,-0.00488,-0.0122,0.01464,-0.03416,-0.10736,-0.16104,-0.0732,-0.0732
-0.02928,0.03172,-0.03416,-0.01952,-0.00488,-0.0122,0.01952,-0.03416,-0.09272,-0.15616,-0.0732,-0.08296
-0.01952,0.02684,-0.03416,-0.0244,-0.01464,-0.00244,0.00488,-0.04392,-0.09272,-0.1708,-0.0732,-0.0732
-0.0244,0.03416,-0.04392,-0.03172,-0.01952,-0.00244,0.00976,-0.03904,-0.09272,-0.1708,-0.0732,-0.0732
-0.04392,0.05368,-0.06344,-0.04148,-0.01952,-0.0122,0.0244,-0.03416,-0.08296,-0.16104,-0.06344,-0.06344
-0.05368,0.06832,-0.08296,-0.05612,-0.02928,-0.0122,0.03416,-0.03416,-0.08296,-0.15616,-0.06344,-0.05856
-0.03904,0.06344,-0.08784,-0.06832,-0.0488,0.00488,0.01952,-0.0488,-0.0976,-0.16592,-0.07808,-0.06832
-0.00488,0.0488,-0.09272,-0.09028,-0.08784,0.04148,0.01952,-0.0488,-0.11712,-0.1708,-0.08296,-0.06832
-0.03416,0.06344,-0.09272,-0.07564,-0.05856,0.0122,0.02928,-0.05856,-0.122,-0.16592,-0.08296,-0.06832
-0.05368,0.07076,-0.08784,-0.061,-0.03416,-0.00976,0.02928,-0.05856,-0.122,-0.16592,-0.08296,-0.06832
-0.04392,0.06344,-0.08296,-0.061,-0.03904,-0.00244,0.03904,-0.05368,-0.10736,-0.16592,-0.07808,-0.06832
-0.03416,0.05368,-0.0732,-0.05612,-0.03904,0.00244,0.03904,-0.05368,-0.10736,-0.16592,-0.07808,-0.06832
-0.04392,0.05124,-0.05856,-0.0366,-0.01464,-0.01464,0.02928,-0.03416,-0.0976,-0.15616,-0.06832,-0.06832
-0.06344,0.05612,-0.0488,-0.01708,0.01464,-0.03904,0.01952,-0.0244,-0.0976,-0.1464,-0.06832,-0.06832
-0.03904,0.05124,-0.06344,-0.04392,-0.0244,-0.00732,0.00488,-0.03416,-0.10736,-0.16104,-0.07808,-0.07808
-0.02928,0.04636,-0.06344,-0.0488,-0.03416,0.00244,0.00488,-0.03416,-0.10736,-0.1708,-0.08784,-0.07808
-0.03416,0.04636,-0.05856,-0.04148,-0.0244,-0.00488,0.01952,-0.04392,-0.122,-0.16104,-0.08784,-0.07808
-0.03904,0.04636,-0.05368,-0.03416,-0.01464,-0.0122,0.03416,-0.05368,-0.11712,-0.15616,-0.08784,-0.07808
-0.03416,0.04392,-0.05368,-0.0366,-0.01952,-0.00732,0.00976,-0.05856,-0.10736,-0.15616,-0.07808,-0.07808
-0.0488,0.05368,-0.05856,-0.03416,-0.00976,-0.01952,-0.00976,-0.05856,-0.10248,-0.15128,-0.06344,-0.07808
-0.03416,0.0366,-0.03904,-0.02196,-0.00488,-0.01464,-0.01464,-0.06344,-0.11712,-0.16104,-0.06832,-0.0732
-0.03416,0.03416,-0.03416,-0.01708,0,-0.01708,-0.00976,-0.05856,-0.11224,-0.16104,-0.0732,-0.06832
-0.04392,0.04392,-0.04392,-0.02196,0,-0.02196,0.02928,-0.0488,-0.10248,-0.15128,-0.06344,-0.06344
-0.0488,0.05124,-0.05368,-0.02928,-0.00488,-0.02196,0.05368,-0.03416,-0.09272,-0.15128,-0.06344,-0.06344
-0.0244,0.04148,-0.05856,-0.04636,-0.03416,0.00488,0.05368,-0.03416,-0.09272,-0.15616,-0.0732,-0.08296
0.0488,0.00488,-0.05856,-0.08296,-0.10736,0.07808,0.04392,0,-0.122,-0.18544,-0.10248,-0.11224
0,0.0366,-0.0732,-0.0732,-0.0732,0.0366,0.0488,0.05368,-0.07808,-0.16104,-0.0732,-0.10248
0.00488,0.02684,-0.05856,-0.061,-0.06344,0.03416,0.08784,0.12688,-0.03904,-0.14152,-0.06832,-0.09272
0.06832,-0.02684,-0.01464,-0.0488,-0.08296,0.07564,0.08784,0.2196,0.01464,-0.11224,-0.0732,-0.122
0.04392,-0.03172,0.01952,-0.00244,-0.0244,0.03416,0.11712,0.28304,0.122,-0.01952,0.01464,-0.0488
0.09272,-0.10248,0.11224,0.06588,0.01952,0.0366,0.16592,0.4392,0.30744,0.1464,0.15128,0.03904
0.25864,-0.25864,0.25864,0.12932,0,0.12932,0.08296,0.45384,0.42456,0.29768,0.2928,0.1708
0.366,-0.40992,0.45384,0.27084,0.08784,0.13908,-0.03904,0.5368,0.6588,0.53192,0.51728,0.38064
0.42944,-0.47824,0.52704,0.31232,0.0976,0.16592,-0.2196,0.42944,0.77592,0.6588,0.6588,0.53192
0.27328,-0.427,0.58072,0.44408,0.30744,-0.01708,-0.3416,0.2928,0.79544,0.75152,0.8052,0.7076
0.35136,-0.48068,0.61,0.43432,0.25864,0.04636,-0.5856,-0.20008,0.5612,0.62464,0.76128,0.71248
0.11712,-0.28792,0.45872,0.40016,0.3416,-0.11224,-0.67344,-0.6832,0.2196,0.366,0.61976,0.69784
0.13176,-0.1952,0.25864,0.19276,0.12688,0.00244,-0.77104,-1.01016,-0.16592,0.0244,0.31232,0.48312
0.06344,-0.08784,0.11224,0.08052,0.0488,0.00732,-0.62464,-1.00528,-0.3416,-0.18056,0.10248,0.28792
0.00488,-0.00732,0.00976,0.00732,0.00488,0,-0.4636,-0.81984,-0.35624,-0.23912,0.00976,0.1464
0.04392,0.00488,-0.05368,-0.07564,-0.0976,0.07076,-0.32208,-0.58072,-0.3416,-0.2684,-0.0732,0.01464
-0.02928,0.07564,-0.122,-0.10736,-0.09272,0.03172,-0.16592,-0.35624,-0.2684,-0.28304,-0.10736,-0.03416
-0.01464,0.061,-0.10736,-0.10004,-0.09272,0.03904,-0.10248,-0.22936,-0.21472,-0.24888,-0.12688,-0.07808
-0.01464,0.05612,-0.0976,-0.09028,-0.08296,0.03416,-0.08296,-0.18544,-0.1708,-0.20984,-0.10736,-0.08784
0.00488,0.04148,-0.08784,-0.09028,-0.09272,0.0488,0.00976,-0.09272,-0.09272,-0.14152,-0.03904,-0.06344
0,0.00976,-0.01952,-0.01952,-0.01952,0.00976,0.0244,-0.07808,-0.0976,-0.1464,-0.0488,-0.06344
-0.00488,0.02196,-0.03904,-0.0366,-0.03416,0.01464,0.03904,-0.05368,-0.09272,-0.14152,-0.0488,-0.05856
0.00976,0.01708,-0.04392,-0.0488,-0.05368,0.03172,0.0244,-0.04392,-0.08784,-0.15128,-0.05856,-0.0732
0,0.01708,-0.03416,-0.03416,-0.03416,0.01708,0.03416,-0.04392,-0.07808,-0.1464,-0.05368,-0.0732
-0.00976,0.02196,-0.03416,-0.02928,-0.0244,0.00732,0.05368,-0.0244,-0.06344,-0.13664,-0.03904,-0.0732
-0.01952,0.03172,-0.04392,-0.03416,-0.0244,0.00244,0.05856,-0.00488,-0.06832,-0.1464,-0.04392,-0.06344
-0.0244,0.0366,-0.0488,-0.0366,-0.0244,0,0.05368,-0.00976,-0.06832,-0.1464,-0.05368,-0.06832
-0.0244,0.04392,-0.06344,-0.05124,-0.03904,0.00732,0.04392,-0.01464,-0.07808,-0.15128,-0.06344,-0.08296
-0.00488,0.02928,-0.05368,-0.05124,-0.0488,0.02196,0.0488,-0.01464,-0.07808,-0.1464,-0.06344,-0.09272
0.00488,0.02928,-0.06344,-0.06588,-0.06832,0.0366,0.05368,-0.00976,-0.08296,-0.1464,-0.06344,-0.08784
0.00488,0.02684,-0.05856,-0.061,-0.06344,0.03416,0.06344,-0.00488,-0.07808,-0.1464,-0.06344,-0.09272
0,0.03416,-0.06832,-0.06832,-0.06832,0.03416,0.05856,-0.01464,-0.06832,-0.15616,-0.05368,-0.10248
-0.00976,0.03172,-0.05368,-0.0488,-0.04392,0.01708,0.0488,-0.01464,-0.06832,-0.15128,-0.05368,-0.0976
-0.00488,0.0244,-0.04392,-0.04148,-0.03904,0.01708,0.03416,-0.01952,-0.0732,-0.15128,-0.06344,-0.10248
0.01464,0.01464,-0.04392,-0.05124,-0.05856,0.0366,0.0244,-0.0244,-0.07808,-0.16104,-0.0732,-0.10248
0.01464,0.01464,-0.04392,-0.05124,-0.05856,0.0366,0.02928,-0.0244,-0.07808,-0.16104,-0.0732,-0.08784
0,0.01952,-0.03904,-0.03904,-0.03904,0.01952,0.0488,-0.01952,-0.06832,-0.1464,-0.06344,-0.08784
0.00488,0.01708,-0.03904,-0.04148,-0.04392,0.0244,0.04392,0,-0.05368,-0.15128,-0.05856,-0.07808
0.00488,0.01464,-0.03416,-0.0366,-0.03904,0.02196,0.03904,0,-0.05368,-0.14152,-0.05856,-0.07808
-0.00976,0.0244,-0.03904,-0.03416,-0.02928,0.00976,0.02928,0,-0.06344,-0.13664,-0.0488,-0.07808
-0.01952,0.03904,-0.05856,-0.0488,-0.03904,0.00976,0.0488,0.00488,-0.06344,-0.13664,-0.0488,-0.07808
-0.01952,0.03172,-0.04392,-0.03416,-0.0244,0.00244,0.05856,0.00488,-0.06832,-0.1464,-0.05856,-0.08784
-0.00976,0.0244,-0.03904,-0.03416,-0.02928,0.00976,0.05856,0.00976,-0.06344,-0.1464,-0.05368,-0.08296
0.00488,0.00732,-0.01952,-0.02196,-0.0244,0.01464,0.0732,0.00976,-0.05368,-0.14152,-0.0488,-0.0732
-0.00488,0.01464,-0.0244,-0.02196,-0.01952,0.00732,0.0732,0.00976,-0.0488,-0.13176,-0.04392,-0.0732
0.00976,0.0122,-0.03416,-0.03904,-0.04392,0.02684,0.06344,0.00488,-0.05856,-0.14152,-0.05368,-0.06832
0.01952,0.00976,-0.03904,-0.0488,-0.05856,0.03904,0.05368,0,-0.06344,-0.13664,-0.05368,-0.0732
0.01464,0.00976,-0.03416,-0.04148,-0.0488,0.03172,0.03904,0,-0.06344,-0.1464,-0.05368,-0.07808
0.00488,0.01464,-0.03416,-0.0366,-0.03904,0.02196,0.03904,0.00488,-0.05856,-0.14152,-0.05368,-0.07808
-0.00488,0.02196,-0.03904,-0.0366,-0.03416,0.01464,0.04392,0.01952,-0.0488,-0.13664,-0.0488,-0.06344
-0.00976,0.0244,-0.03904,-0.03416,-0.02928,0.00976,0.04392,0.0244,-0.05368,-0.13664,-0.0488,-0.06344
-0.00976,0.01952,-0.02928,-0.0244,-0.01952,0.00488,0.0488,0.03904,-0.0488,-0.122,-0.03904,-0.05856
-0.00488,0.01708,-0.02928,-0.02684,-0.0244,0.00976,0.04392,0.03904,-0.03904,-0.11224,-0.02928,-0.04392
-0.00488,0.01708,-0.02928,-0.02684,-0.0244,0.00976,0.03904,0.02928,-0.04392,-0.122,-0.02928,-0.03416
-0.00976,0.01952,-0.02928,-0.0244,-0.01952,0.00488,0.04392,0.03904,-0.03904,-0.122,-0.02928,-0.03416
0.00488,0.00976,-0.0244,-0.02684,-0.02928,0.01708,0.02928,0.02928,-0.04392,-0.12688,-0.03416,-0.04392
0.01952,0.00244,-0.0244,-0.03416,-0.04392,0.03172,0.02928,0.03904,-0.04392,-0.122,-0.02928,-0.03904
0.01952,-0.00244,-0.01464,-0.0244,-0.03416,0.02684,0.03904,0.03904,-0.0488,-0.122,-0.02928,-0.03904
0.02928,-0.0122,-0.00488,-0.01952,-0.03416,0.03172,0.03904,0.03904,-0.04392,-0.10736,-0.02928,-0.02928
0.0244,-0.0122,0,-0.0122,-0.0244,0.0244,0.0488,0.05368,-0.02928,-0.0976,-0.01464,-0.01952
0.01952,-0.00732,-0.00488,-0.01464,-0.0244,0.02196,0.04392,0.05856,-0.0244,-0.0976,-0.00488,-0.00488
0.0244,-0.01464,0.00488,-0.00732,-0.01952,0.02196,0.02928,0.06344,-0.01952,-0.08784,0,0
0.02928,-0.0244,0.01952,0.00488,-0.00976,0.01952,0.0244,0.0732,-0.00976,-0.08784,0.00976,0
0.03904,-0.03416,0.02928,0.00976,-0.00976,0.0244,0.01952,0.08296,-0.00488,-0.06344,0.0244,0.00976
0.0488,-0.04636,0.04392,0.01952,-0.00488,0.02684,0.01464,0.08296,-0.00488,-0.05368,0.03416,0.03416
0.06344,-0.05612,0.0488,0.01708,-0.01464,0.03904,0.01952,0.0976,0.01952,-0.03904,0.04392,0.05368
0.0732,-0.07076,0.06832,0.03172,-0.00488,0.03904,0.01952,0.0976,0.02928,-0.04392,0.05368,0.06344
0.06832,-0.0732,0.07808,0.04392,0.00976,0.02928,0.00976,0.0976,0.0488,-0.0244,0.07808,0.07808
0.07808,-0.08052,0.08296,0.04392,0.00488,0.0366,0,0.0976,0.0488,-0.01464,0.08296,0.08784
0.08296,-0.09272,0.10248,0.061,0.01952,0.03172,-0.01952,0.10736,0.06344,-0.00488,0.08784,0.11224
0.08784,-0.10736,0.12688,0.08296,0.03904,0.0244,-0.03416,0.10736,0.06832,0.00976,0.10736,0.122
0.10248,-0.122,0.14152,0.09028,0.03904,0.03172,-0.02928,0.10248,0.06832,0.0244,0.11224,0.12688
0.10736,-0.13176,0.15616,0.10248,0.0488,0.02928,-0.03416,0.11224,0.07808,0.03416,0.122,0.13664
0.11224,-0.13176,0.15128,0.09516,0.03904,0.0366,-0.03904,0.11712,0.0976,0.03904,0.1464,0.16592
0.11224,-0.13664,0.16104,0.10492,0.0488,0.03172,-0.03416,0.12688,0.10736,0.06344,0.1708,0.18544
0.12688,-0.14396,0.16104,0.0976,0.03416,0.04636,-0.04392,0.13664,0.11224,0.07808,0.17568,0.18056
0.13176,-0.1464,0.16104,0.09516,0.02928,0.05124,-0.05856,0.13176,0.11712,0.06832,0.19032,0.1952
0.122,-0.1464,0.1708,0.1098,0.0488,0.0366,-0.07808,0.122,0.13176,0.10248,0.20008,0.20496
0.13176,-0.1586,0.18544,0.11956,0.05368,0.03904,-0.08784,0.11712,0.13176,0.10248,0.20008,0.20984
0.13176,-0.16592,0.20008,0.1342,0.06832,0.03172,-0.08784,0.11712,0.1464,0.10248,0.2196,0.21472
0.13664,-0.16592,0.1952,0.12688,0.05856,0.03904,-0.0976,0.11712,0.1464,0.10736,0.2196,0.2196
0.1464,-0.17812,0.20984,0.13664,0.06344,0.04148,-0.08784,0.122,0.13664,0.10736,0.20984,0.2196
0.15616,-0.18544,0.21472,0.13664,0.05856,0.0488,-0.08784,0.122,0.13664,0.11224,0.20984,0.2196
0.15616,-0.18056,0.20496,0.12688,0.0488,0.05368,-0.0732,0.13176,0.1464,0.10736,0.21472,0.22936
0.13664,-0.16104,0.18544,0.11712,0.0488,0.04392,-0.06344,0.122,0.15128,0.10248,0.1952,0.20496
0.10736,-0.13664,0.16592,0.11224,0.05856,0.0244,-0.05856,0.11224,0.13664,0.08784,0.19032,0.18056
0.08784,-0.11712,0.1464,0.10248,0.05856,0.01464,-0.02928,0.11224,0.12688,0.06832,0.17568,0.16592
0.09272,-0.1098,0.12688,0.08052,0.03416,0.02928,-0.03416,0.0976,0.10248,0.0488,0.1464,0.14152
0.09272,-0.10248,0.11224,0.06588,0.01952,0.0366,-0.02928,0.08296,0.08296,0.0244,0.11712,0.10248
0.09272,-0.0976,0.10248,0.05612,0.00976,0.04148,-0.0244,0.08296,0.08784,0.01952,0.10736,0.10248
0.08296,-0.08784,0.09272,0.05124,0.00976,0.0366,-0.03416,0.0732,0.06832,0,0.08784,0.07808
0.06832,-0.06344,0.05856,0.0244,-0.00976,0.03904,-0.0244,0.06344,0.04392,-0.02928,0.05856,0.06344
0.05368,-0.05612,0.05856,0.03172,0.00488,0.0244,-0.01464,0.05368,0.03416,-0.03416,0.0488,0.06344
0.0244,-0.02928,0.03416,0.02196,0.00976,0.00732,0,0.0488,0.03416,-0.03904,0.04392,0.06344
0.02928,-0.02196,0.01464,0,-0.01464,0.02196,0.00976,0.03416,0.01952,-0.05856,0.01952,0.0244
0.0244,-0.01952,0.01464,0.00244,-0.00976,0.01708,0.00976,0.03904,0.00976,-0.06832,0.01464,0.02928
0.0244,-0.0122,0,-0.0122,-0.0244,0.0244,0.00976,0.03416,0.00488,-0.0732,0.00488,0.03416
0.02928,-0.00732,-0.01464,-0.02928,-0.04392,0.0366,0.01464,0.01952,-0.01464,-0.08296,0,0.01952
0.02928,-0.00488,-0.01952,-0.03416,-0.0488,0.03904,0.00488,0.00976,-0.01952,-0.08296,-0.00488,0.00976
0.01952,0.00244,-0.0244,-0.03416,-0.04392,0.03172,0,0.01464,-0.01464,-0.08296,-0.01952,0.00976
0.00976,0.00976,-0.02928,-0.03416,-0.03904,0.0244,0.00976,0.00488,-0.01464,-0.08784,-0.0244,0.00488
0.00976,0.0122,-0.03416,-0.03904,-0.04392,0.02684,0.01464,0.00488,-0.0244,-0.10248,-0.0244,0
0.01952,0.00488,-0.02928,-0.03904,-0.0488,0.03416,0.00976,0.00488,-0.02928,-0.0976,-0.02928,-0.00488
0.00976,0.01464,-0.03904,-0.04392,-0.0488,0.02928,0.01464,0.00488,-0.0244,-0.0976,-0.01952,0.00488
0.00976,0.01708,-0.04392,-0.0488,-0.05368,0.03172,0.01464,0,-0.0244,-0.10248,-0.01464,0.00488
0.00976,0.01464,-0.03904,-0.04392,-0.0488,0.02928,0.00488,0,-0.0244,-0.10248,-0.01464,0.00488
0.00976,0.00976,-0.02928,-0.03416,-0.03904,0.0244,0,0,-0.0244,-0.10736,-0.01952,0.00488
0.01464,0.00244,-0.01952,-0.02684,-0.03416,0.0244,0,-0.00976,-0.03904,-0.11224,-0.02928,0.00488
0.0244,-0.00488,-0.01464,-0.02684,-0.03904,0.03172,0,-0.01464,-0.03904,-0.10736,-0.0244,0
0.0244,-0.00244,-0.01952,-0.03172,-0.04392,0.03416,0.01464,-0.00976,-0.03904,-0.10248,-0.01952,0
0.00976,0.00488,-0.01952,-0.0244,-0.02928,0.01952,0.01952,-0.00488,-0.03904,-0.10248,-0.01952,0
0,0.01464,-0.02928,-0.02928,-0.02928,0.01464,0.01952,0.00488,-0.02928,-0.10736,-0.01952,0.00488
-0.00976,0.02196,-0.03416,-0.02928,-0.0244,0.00732,0.01952,0.00488,-0.02928,-0.10248,-0.01464,0
0,0.01952,-0.03904,-0.03904,-0.03904,0.01952,0.01464,-0.00976,-0.03416,-0.10248,-0.01952,0
0.00976,0.01464,-0.03904,-0.04392,-0.0488,0.02928,0.00488,-0.00976,-0.03904,-0.10248,-0.01952,-0.00976
0.00488,0.0122,-0.02928,-0.03172,-0.03416,0.01952,0.00976,-0.00976,-0.02928,-0.11224,-0.01952,0
-0.00488,0.02196,-0.03904,-0.0366,-0.03416,0.01464,0.01464,-0.00976,-0.02928,-0.09272,-0.01952,0.00488
0,0.01708,-0.03416,-0.03416,-0.03416,0.01708,0.01952,-0.00488,-0.03904,-0.08296,-0.01952,0.00976
-0.00976,0.02196,-0.03416,-0.02928,-0.0244,0.00732,0.01952,-0.00976,-0.03904,-0.09272,-0.01464,0.00976
-0.01464,0.02196,-0.02928,-0.02196,-0.01464,0,0.01464,-0.00976,-0.03904,-0.10736,-0.01464,0.00488
-0.00976,0.01708,-0.0244,-0.01952,-0.01464,0.00244,0.00976,-0.00976,-0.03904,-0.11224,-0.01464,0.00488
0,0.01464,-0.02928,-0.02928,-0.02928,0.01464,0.01464,-0.00488,-0.02928,-0.0976,-0.00488,0.00976
0,0.02196,-0.04392,-0.04392,-0.04392,0.02196,0.0244,0,-0.0244,-0.0976,-0.00976,0.01464
0,0.01952,-0.03904,-0.03904,-0.03904,0.01952,0.01464,-0.00488,-0.0244,-0.08296,-0.00488,0.01464
-0.00976,0.01952,-0.02928,-0.0244,-0.01952,0.00488,0.01464,-0.00488,-0.0244,-0.08296,-0.00488,0.01464
-0.00976,0.01464,-0.01952,-0.01464,-0.00976,0,0.00488,-0.01464,-0.0244,-0.0976,-0.01464,0.00488
-0.01464,0.00732,0,0.00732,0.01464,-0.01464,0.00488,-0.00976,-0.0244,-0.08784,-0.00976,0.01464
-0.00976,0.00488,0,0.00488,0.00976,-0.00976,0.01464,-0.01464,-0.02928,-0.08296,-0.00976,0.0244
0,0.00488,-0.00976,-0.00976,-0.00976,0.00488,0.01464,-0.00976,-0.02928,-0.08296,-0.00976,0.01952
0.00976,0,-0.00976,-0.01464,-0.01952,0.01464,0.00976,0,-0.0244,-0.07808,0,0.02928
0.00976,0,-0.00976,-0.01464,-0.01952,0.01464,0.00488,0,-0.0244,-0.0732,0.00488,0.02928
0.01952,-0.00976,0,-0.00976,-0.01952,0.01952,0,-0.00976,-0.01952,-0.07808,-0.00976,0.0244
0.00976,0,-0.00976,-0.01464,-0.01952,0.01464,0.00488,-0.00976,-0.01464,-0.08784,-0.00488,0.01952
0.00488,0.00976,-0.0244,-0.02684,-0.02928,0.01708,0.01464,-0.00488,-0.00976,-0.08296,-0.00488,0.0244
0.00976,0.00732,-0.0244,-0.02928,-0.03416,0.02196,0.01464,-0.00488,-0.01464,-0.08296,-0.00488,0.01952
0.00488,0.00976,-0.0244,-0.02684,-0.02928,0.01708,0.01464,0.00488,-0.00488,-0.07808,0.00488,0.02928
-0.00976,0.0122,-0.01464,-0.00976,-0.00488,-0.00244,0.01464,0,-0.00488,-0.08296,0,0.02928
0,0.01464,-0.02928,-0.02928,-0.02928,0.01464,0,0,-0.01464,-0.07808,0.00488,0.01952
0.00976,0.00976,-0.02928,-0.03416,-0.03904,0.0244,0,0,-0.01464,-0.07808,0.00488,0.01464
0.00976,0.00488,-0.01952,-0.0244,-0.02928,0.01952,0,-0.00488,-0.01464,-0.09272,-0.00488,0.01952
0.01952,0,-0.01952,-0.02928,-0.03904,0.02928,-0.01464,-0.00488,-0.0244,-0.09272,-0.00976,0.00976
0.01464,-0.00244,-0.00976,-0.01708,-0.0244,0.01952,0,-0.00976,-0.00976,-0.08296,0,0.00976
0,0.00732,-0.01464,-0.01464,-0.01464,0.00732,0.00976,-0.00488,-0.00976,-0.08296,0,0.01464
-0.00488,0.00732,-0.00976,-0.00732,-0.00488,0,0.00976,0,-0.00976,-0.0732,0.00976,0.01952
-0.00488,0.01464,-0.0244,-0.02196,-0.01952,0.00732,0.00976,0,-0.00976,-0.0732,0.00976,0.0244
0,0.00732,-0.01464,-0.01464,-0.01464,0.00732,-0.00488,-0.00976,-0.01952,-0.08296,0.00488,0.01952
0.01464,0.00244,-0.01952,-0.02684,-0.03416,0.0244,-0.00488,-0.01464,-0.01952,-0.08296,0.00488,0.01952
0.00976,0,-0.00976,-0.01464,-0.01952,0.01464,-0.00976,-0.00976,-0.0244,-0.09272,-0.00488,0.01952
0,0.00244,-0.00488,-0.00488,-0.00488,0.00244,-0.00976,-0.01464,-0.03416,-0.0976,-0.00976,0.01464
0.00488,0,-0.00488,-0.00732,-0.00976,0.00732,-0.00976,-0.01952,-0.01952,-0.09272,0,0.01952
0.00488,0.00976,-0.0244,-0.02684,-0.02928,0.01708,-0.01464,-0.01464,-0.01952,-0.09272,0,0.0244
0.00488,0.0122,-0.02928,-0.03172,-0.03416,0.01952,-0.01464,-0.0244,-0.03416,-0.10736,-0.00976,0.00976
0.00488,0.01708,-0.03904,-0.04148,-0.04392,0.0244,-0.00976,-0.0244,-0.02928,-0.10248,-0.00976,0.01464
0,0.01952,-0.03904,-0.03904,-0.03904,0.01952,0,-0.01464,-0.03416,-0.08784,0,0.00488
-0.00976,0.0244,-0.03904,-0.03416,-0.02928,0.00976,0,-0.01952,-0.03904,-0.0976,0,0.00976
-0.00976,0.0244,-0.03904,-0.03416,-0.02928,0.00976,0,-0.01952,-0.03904,-0.10248,-0.00488,0.00976
-0.00488,0.01708,-0.02928,-0.02684,-0.0244,0.00976,0,-0.02928,-0.03416,-0.09272,-0.00488,0.00976
-0.01464,0.02684,-0.03904,-0.03172,-0.0244,0.00488,0.00488,-0.03416,-0.0244,-0.09272,-0.00488,0.00976
-0.01464,0.03172,-0.0488,-0.04148,-0.03416,0.00976,0.00976,-0.0244,-0.0244,-0.0976,-0.00488,0.00488
-0.00488,0.02196,-0.03904,-0.0366,-0.03416,0.01464,0.00488,-0.03416,-0.03416,-0.10248,-0.00976,0.00488
-0.00488,0.02196,-0.03904,-0.0366,-0.03416,0.01464,-0.00488,-0.03416,-0.04392,-0.0976,-0.00976,0
-0.01464,0.0244,-0.03416,-0.02684,-0.01952,0.00244,-0.00976,-0.02928,-0.03904,-0.10736,-0.00976,0.00488
-0.01464,0.02928,-0.04392,-0.0366,-0.02928,0.00732,-0.00976,-0.02928,-0.03904,-0.10736,-0.00488,0.00488
-0.01464,0.02928,-0.04392,-0.0366,-0.02928,0.00732,0.00488,-0.03416,-0.0488,-0.10248,-0.00488,0.00488
-0.00976,0.03172,-0.05368,-0.0488,-0.04392,0.01708,0.00488,-0.03904,-0.0488,-0.10736,-0.00976,0.00488
-0.01952,0.03172,-0.04392,-0.03416,-0.0244,0.00244,0,-0.03416,-0.0488,-0.10248,-0.00976,0.00488
-0.01952,0.02928,-0.03904,-0.02928,-0.01952,0,-0.01464,-0.03904,-0.05368,-0.10248,-0.00976,0
-0.01952,0.02928,-0.03904,-0.02928,-0.01952,0,-0.01952,-0.02928,-0.04392,-0.10248,-0.00976,0.00976
-0.01952,0.02928,-0.03904,-0.02928,-0.01952,0,-0.01952,-0.02928,-0.04392,-0.10248,-0.01464,0.00976
-0.01952,0.02928,-0.03904,-0.02928,-0.01952,0,-0.0244,-0.04392,-0.04392,-0.10736,-0.00488,0
-0.0244,0.03416,-0.04392,-0.03172,-0.01952,-0.00244,-0.01952,-0.04392,-0.04392,-0.10736,-0.00488,-0.00488
-0.01464,0.03416,-0.05368,-0.04636,-0.03904,0.0122,-0.01464,-0.03904,-0.04392,-0.10248,-0.01464,0.00488
-0.00488,0.02684,-0.0488,-0.04636,-0.04392,0.01952,-0.00488,-0.03904,-0.04392,-0.10736,-0.01464,0
-0.01464,0.03172,-0.0488,-0.04148,-0.03416,0.00976,0.00976,-0.02928,-0.04392,-0.0976,-0.00976,0
-0.01952,0.03172,-0.04392,-0.03416,-0.0244,0.00244,0.00488,-0.02928,-0.0488,-0.0976,-0.00976,0
-0.01952,0.03172,-0.04392,-0.03416,-0.0244,0.00244,0,-0.04392,-0.05368,-0.10736,-0.01952,-0.00488
-0.01464,0.03172,-0.0488,-0.04148,-0.03416,0.00976,-0.00488,-0.03416,-0.05368,-0.10248,-0.01464,-0.00976
-0.01464,0.0366,-0.05856,-0.05124,-0.04392,0.01464,0.00488,-0.02928,-0.05368,-0.09272,-0.00976,-0.00488
-0.03416,0.04392,-0.05368,-0.0366,-0.01952,-0.00732,0,-0.02928,-0.04392,-0.0976,-0.00976,0.00488
-0.03904,0.04636,-0.05368,-0.03416,-0.01464,-0.0122,-0.00488,-0.03416,-0.04392,-0.10248,-0.00976,0.00488
-0.03416,0.04392,-0.05368,-0.0366,-0.01952,-0.00732,-0.01464,-0.03904,-0.04392,-0.10248,-0.00488,0
-0.03416,0.04392,-0.05368,-0.0366,-0.01952,-0.00732,-0.02928,-0.05368,-0.05368,-0.10248,-0.01464,-0.00976
-0.0244,0.0366,-0.0488,-0.0366,-0.0244,0,-0.02928,-0.05368,-0.05368,-0.10248,-0.01464,-0.00488
-0.02928,0.04148,-0.05368,-0.03904,-0.0244,-0.00244,-0.01952,-0.04392,-0.04392,-0.10248,-0.01464,0
-0.0244,0.03416,-0.04392,-0.03172,-0.01952,-0.00244,-0.00976,-0.04392,-0.04392,-0.0976,-0.01464,0
-0.02928,0.0366,-0.04392,-0.02928,-0.01464,-0.00732,-0.01464,-0.04392,-0.05856,-0.10736,-0.01464,-0.00976
-0.01464,0.02928,-0.04392,-0.0366,-0.02928,0.00732,-0.00976,-0.04392,-0.05368,-0.10248,-0.00976,-0.00976
-0.03416,0.0488,-0.06344,-0.04636,-0.02928,-0.00244,-0.00976,-0.03904,-0.0488,-0.09272,0,0
-0.0244,0.04392,-0.06344,-0.05124,-0.03904,0.00732,-0.00976,-0.04392,-0.0488,-0.0976,-0.00488,0
-0.02928,0.04636,-0.06344,-0.0488,-0.03416,0.00244,0,-0.02928,-0.04392,-0.0976,-0.00488,0.00488
-0.0244,0.03416,-0.04392,-0.03172,-0.01952,-0.00244,-0.00976,-0.0488,-0.0488,-0.0976,-0.00976,0.00488
-0.02928,0.04392,-0.05856,-0.04392,-0.02928,0,0,-0.03904,-0.0488,-0.08784,0,0
-0.01952,0.03416,-0.0488,-0.03904,-0.02928,0.00488,-0.00976,-0.03904,-0.0488,-0.0976,-0.00976,0
-0.01952,0.03416,-0.0488,-0.03904,-0.02928,0.00488,-0.00976,-0.03904,-0.0488,-0.0976,-0.00976,0
-0.01952,0.02928,-0.03904,-0.02928,-0.01952,0,0,-0.03904,-0.05856,-0.0976,-0.00976,0
-0.01952,0.02928,-0.03904,-0.02928,-0.01952,0,0,-0.03904,-0.05856,-0.0976,-0.00976,0
-0.01952,0.02928,-0.03904,-0.02928,-0.01952,0,0.00976,-0.02928,-0.0488,-0.08784,0,0
-0.01952,0.02928,-0.03904,-0.02928,-0.01952,0,0.00976,-0.02928,-0.0488,-0.07808,0,0
-0.01952,0.0244,-0.02928,-0.01952,-0.00976,-0.00488,0,-0.02928,-0.03904,-0.07808,0,0
-0.01952,0.0244,-0.02928,-0.01952,-0.00976,-0.00488,0,-0.02928,-0.03904,-0.07808,0,0
-0.00976,0.01464,-0.01952,-0.01464,-0.00976,0,0.00976,-0.01952,-0.02928,-0.06832,0.00976,0.00976
0,0.00976,-0.01952,-0.01952,-0.01952,0.00976,0.00976,-0.00976,-0.02928,-0.06832,0.01952,0.01952
0.00976,0.00488,-0.01952,-0.0244,-0.02928,0.01952,0.01952,0.00976,-0.01952,-0.05856,0.02928,0.02928
0.01952,0,-0.01952,-0.02928,-0.03904,0.02928,0.01952,0.01952,-0.00976,-0.05856,0.03904,0.02928
0.00976,0,-0.00976,-0.01464,-0.01952,0.01464,0.00976,0.01952,-0.00976,-0.0488,0.03904,0.03904
0.00976,-0.00488,0,-0.00488,-0.00976,0.00976,0.00976,0.01952,-0.00976,-0.03904,0.03904,0.03904
0,0.00488,-0.00976,-0.00976,-0.00976,0.00488,-0.00976,0.00976,-0.01952,-0.0488,0.02928,0.02928
0,0.00976,-0.01952,-0.01952,-0.01952,0.00976,-0.01952,0,-0.01952,-0.0488,0.02928,0.02928
-0.00488,0.00244,0,0.00244,0.00488,-0.00488,-0.03904,-0.01952,-0.02928,-0.0488,0.03904,0.03904
-0.00488,-0.00488,0.01464,0.01708,0.01952,-0.0122,-0.0488,-0.02928,-0.01952,-0.0488,0.04392,0.04392
0.03416,-0.02196,0.00976,-0.00732,-0.0244,0.02928,-0.04392,-0.03904,-0.02928,-0.05856,0.03904,0.04392
0.05368,-0.0244,-0.00488,-0.03172,-0.05856,0.05612,-0.03904,-0.03904,-0.02928,-0.0488,0.04392,0.0488
0.04392,-0.01464,-0.01464,-0.0366,-0.05856,0.05124,-0.02928,-0.03416,-0.03904,-0.03904,0.03904,0.03416
0.03416,-0.00244,-0.02928,-0.04636,-0.06344,0.0488,-0.02928,-0.03416,-0.03904,-0.0488,0.02928,0.01952
0.01464,0.00244,-0.01952,-0.02684,-0.03416,0.0244,-0.01952,-0.03904,-0.03904,-0.06344,0.01952,0.02928
0.01952,-0.00488,-0.00976,-0.01952,-0.02928,0.0244,-0.01952,-0.03904,-0.04392,-0.05856,0.01952,0.0244
0.01464,0,-0.01464,-0.02196,-0.02928,0.02196,-0.0244,-0.02928,-0.04392,-0.05368,0.02928,0.03416
-0.00488,0.01464,-0.0244,-0.02196,-0.01952,0.00732,-0.01952,-0.03416,-0.02928,-0.04392,0.0244,0.02928
-0.00488,0.0244,-0.04392,-0.04148,-0.03904,0.01708,-0.02928,-0.03904,-0.03904,-0.0488,0.01464,0.01464
0.00488,0.02928,-0.06344,-0.06588,-0.06832,0.0366,-0.03416,-0.04392,-0.04392,-0.05856,0.00488,0.00488
-0.01952,0.05124,-0.08296,-0.0732,-0.06344,0.02196,-0.01952,-0.0488,-0.06832,-0.0732,-0.00488,-0.00488
-0.03416,0.05612,-0.07808,-0.061,-0.04392,0.00488,-0.00976,-0.05368,-0.06832,-0.0732,-0.01464,-0.00976
-0.03904,0.05124,-0.06344,-0.04392,-0.0244,-0.00732,-0.01464,-0.06344,-0.06832,-0.0732,-0.01464,-0.00488
-0.03904,0.05124,-0.06344,-0.04392,-0.0244,-0.00732,-0.00976,-0.06344,-0.06344,-0.06832,-0.01464,-0.00488
-0.03904,0.05612,-0.0732,-0.05368,-0.03416,-0.00244,-0.00488,-0.05368,-0.06344,-0.0732,-0.01464,-0.01464
-0.04392,0.06344,-0.08296,-0.061,-0.03904,-0.00244,0,-0.0488,-0.06344,-0.0732,-0.01464,-0.01464
-0.04392,0.05856,-0.0732,-0.05124,-0.02928,-0.00732,-0.00488,-0.06344,-0.0732,-0.08296,-0.0244,-0.01464
-0.04392,0.05856,-0.0732,-0.05124,-0.02928,-0.00732,-0.00488,-0.06344,-0.0732,-0.08784,-0.0244,-0.01952
-0.0488,0.05856,-0.06832,-0.04392,-0.01952,-0.01464,-0.01952,-0.06832,-0.06832,-0.07808,-0.01952,-0.00976
-0.03416,0.05368,-0.0732,-0.05612,-0.03904,0.00244,-0.01952,-0.06832,-0.07808,-0.08296,-0.0244,-0.00976
-0.04392,0.05368,-0.06344,-0.04148,-0.01952,-0.0122,-0.01952,-0.05856,-0.0732,-0.07808,-0.0244,-0.01952
-0.04392,0.04636,-0.0488,-0.02684,-0.00488,-0.01952,-0.01952,-0.05856,-0.0732,-0.07808,-0.0244,-0.01952
-0.05368,0.06344,-0.0732,-0.04636,-0.01952,-0.01708,-0.00976,-0.06344,-0.06832,-0.06832,-0.01952,-0.00976
-0.05368,0.06832,-0.08296,-0.05612,-0.02928,-0.0122,-0.00976,-0.06344,-0.06832,-0.06832,-0.01952,-0.00976
-0.04392,0.05612,-0.06832,-0.04636,-0.0244,-0.00976,-0.01952,-0.06344,-0.06832,-0.06832,-0.01952,-0.00976
-0.05368,0.061,-0.06832,-0.04148,-0.01464,-0.01952,-0.01952,-0.06344,-0.06832,-0.06832,-0.01952,-0.00976
-0.03904,0.05612,-0.0732,-0.05368,-0.03416,-0.00244,-0.01464,-0.06344,-0.06832,-0.06344,-0.01952,-0.00976
-0.03904,0.05612,-0.0732,-0.05368,-0.03416,-0.00244,-0.00488,-0.06344,-0.06832,-0.06344,-0.01952,-0.00976
-0.04392,0.05612,-0.06832,-0.04636,-0.0244,-0.00976,0,-0.06344,-0.0732,-0.0732,-0.01952,-0.00976
-0.0488,0.05612,-0.06344,-0.03904,-0.01464,-0.01708,0.01464,-0.06344,-0.06832,-0.06832,-0.01952,-0.00976
-0.03416,0.04392,-0.05368,-0.0366,-0.01952,-0.00732,0,-0.05856,-0.06832,-0.05856,-0.01952,-0.00976
-0.0488,0.05368,-0.05856,-0.03416,-0.00976,-0.01952,-0.00976,-0.05856,-0.06344,-0.04392,-0.01464,-0.00976
-0.04392,0.05124,-0.05856,-0.0366,-0.01464,-0.01464,-0.00488,-0.05368,-0.05856,-0.05368,-0.00976,-0.00488
-0.05368,0.05856,-0.06344,-0.0366,-0.00976,-0.02196,0,-0.0488,-0.05368,-0.05368,-0.01464,0
-0.05368,0.05368,-0.05368,-0.02684,0,-0.02684,0,-0.05856,-0.06344,-0.05368,-0.0244,-0.00488
-0.0488,0.05124,-0.05368,-0.02928,-0.00488,-0.02196,-0.00488,-0.05368,-0.06344,-0.05368,-0.0244,-0.00488
-0.04392,0.04636,-0.0488,-0.02684,-0.00488,-0.01952,-0.00488,-0.04392,-0.05368,-0.0488,-0.0244,-0.00488
-0.03904,0.06344,-0.08784,-0.06832,-0.0488,0.00488,0.01464,-0.00976,-0.05368,-0.05856,-0.0244,-0.00488
-0.0488,0.07564,-0.10248,-0.07808,-0.05368,0.00244,0.03904,0.04392,-0.03904,-0.06344,-0.03416,-0.03416
-0.0244,0.05612,-0.08784,-0.07564,-0.06344,0.01952,0.08784,0.11712,-0.01952,-0.04392,-0.02928,-0.03416
0,0.01708,-0.03416,-0.03416,-0.03416,0.01708,0.10736,0.22936,0.04392,0.00488,-0.01464,-0.03416
0.05368,-0.02684,0,-0.02684,-0.05368,0.05368,0.08784,0.244,0.14152,0.07808,0.06344,0.00976
0.13176,-0.13664,0.14152,0.07564,0.00976,0.061,0.08784,0.40016,0.28792,0.21472,0.1708,0.0976
0.1708,-0.20008,0.22936,0.14396,0.05856,0.05612,0.09272,0.49288,0.4636,0.39528,0.3416,0.24888
0.30744,-0.33184,0.35624,0.20252,0.0488,0.12932,-0.0488,0.50752,0.62952,0.58072,0.51728,0.41968
0.37088,-0.43432,0.49776,0.31232,0.12688,0.122,-0.2196,0.46848,0.7564,0.73688,0.68808,0.57096
0.3904,-0.47092,0.55144,0.35624,0.16104,0.11468,-0.40016,0.31232,0.74664,0.7808,0.77592,0.69784
0.32208,-0.44164,0.5612,0.40016,0.23912,0.04148,-0.5856,-0.09272,0.61,0.74176,0.81008,0.81008
0.18544,-0.32696,0.46848,0.37576,0.28304,-0.0488,-0.70272,-0.62464,0.25864,0.47336,0.63928,0.73688
0.09272,-0.16592,0.23912,0.19276,0.1464,-0.02684,-0.732,-0.96136,-0.07808,0.19032,0.40992,0.58072
0.03416,-0.08296,0.13176,0.11468,0.0976,-0.03172,-0.64416,-1.01504,-0.28304,-0.0244,0.20008,0.39528
-0.04392,0.00732,0.02928,0.05124,0.0732,-0.05856,-0.5124,-0.84912,-0.29768,-0.10248,0.06832,0.25376
-0.01464,0.04392,-0.0732,-0.06588,-0.05856,0.02196,-0.35136,-0.61,-0.2928,-0.14152,-0.0244,0.13176
-0.03904,0.07564,-0.11224,-0.09272,-0.0732,0.01708,-0.20496,-0.4148,-0.25864,-0.15616,-0.0488,0.05368
-0.04392,0.07076,-0.0976,-0.07564,-0.05368,0.00488,-0.13176,-0.24888,-0.18544,-0.11224,-0.03904,0.03904
-0.0244,0.05124,-0.07808,-0.06588,-0.05368,0.01464,-0.11224,-0.16592,-0.14152,-0.09272,-0.03904,0.01952
-0.05368,0.061,-0.06832,-0.04148,-0.01464,-0.01952,-0.02928,-0.11224,-0.09272,-0.04392,-0.01952,0.0244
-0.03904,0.03416,-0.02928,-0.00976,0.00976,-0.0244,0.0244,-0.11712,-0.0976,-0.0488,-0.01952,0.01464
-0.0488,0.03416,-0.01952,0.00488,0.02928,-0.03904,0.01952,-0.06832,-0.0732,-0.02928,-0.00488,0.0244
-0.04392,0.03416,-0.0244,-0.00244,0.01952,-0.03172,0.00488,-0.0488,-0.06832,-0.02928,-0.00488,0.01952
-0.0488,0.04392,-0.03904,-0.01464,0.00976,-0.02928,0.00976,-0.0488,-0.06832,-0.01464,-0.00976,0.01464
-0.05856,0.05368,-0.0488,-0.01952,0.00976,-0.03416,0.01952,-0.03904,-0.05368,-0.01464,-0.00488,0.01464
-0.0488,0.05124,-0.05368,-0.02928,-0.00488,-0.02196,0.03904,-0.03416,-0.05368,-0.02928,-0.00488,0.00488
-0.03416,0.0366,-0.03904,-0.02196,-0.00488,-0.01464,0.03416,-0.03904,-0.06344,-0.02928,-0.01464,0
-0.03904,0.04148,-0.04392,-0.0244,-0.00488,-0.01708,0.03416,-0.03416,-0.06344,-0.0244,-0.00488,0.00976
-0.0488,0.04148,-0.03416,-0.00976,0.01464,-0.03172,0.03904,-0.03416,-0.05368,-0.01952,-0.00488,0.00976
-0.04392,0.04392,-0.04392,-0.02196,0,-0.02196,0.02928,-0.01952,-0.06344,-0.01952,-0.01464,0.00976
-0.04392,0.04148,-0.03904,-0.01708,0.00488,-0.0244,0.02928,-0.01464,-0.05856,-0.01952,-0.01464,0.00488
-0.05368,0.0488,-0.04392,-0.01708,0.00976,-0.03172,0.0244,-0.00488,-0.0488,-0.01952,-0.00488,0.00488
-0.05368,0.04636,-0.03904,-0.0122,0.01464,-0.03416,0.0244,-0.00488,-0.0488,-0.01464,-0.00488,0.00976
-0.05368,0.04392,-0.03416,-0.00732,0.01952,-0.0366,0.02928,-0.01464,-0.05856,-0.00976,-0.00976,0.00488
-0.05368,0.04392,-0.03416,-0.00732,0.01952,-0.0366,0.02928,-0.00976,-0.05368,-0.00976,-0.00976,0.00488
-0.04392,0.03904,-0.03416,-0.0122,0.00976,-0.02684,0.01952,-0.00976,-0.06344,-0.01952,-0.00976,0
-0.03904,0.03416,-0.02928,-0.00976,0.00976,-0.0244,0.01952,-0.01464,-0.06344,-0.01464,-0.00976,0
-0.0488,0.04392,-0.03904,-0.01464,0.00976,-0.02928,0.02928,0,-0.05856,-0.00488,0,0.00976
-0.05856,0.04636,-0.03416,-0.00488,0.0244,-0.04148,0.03416,0,-0.0488,0.00488,0,0.00976
-0.05368,0.03904,-0.0244,0.00244,0.02928,-0.04148,0.02928,-0.00976,-0.05368,-0.00976,-0.00976,0.00976
-0.05368,0.04392,-0.03416,-0.00732,0.01952,-0.0366,0.0488,-0.00488,-0.05368,-0.00976,-0.00976,0.00976
-0.06344,0.05124,-0.03904,-0.00732,0.0244,-0.04392,0.0488,-0.00488,-0.06832,-0.00976,-0.00976,0.00976
-0.06344,0.05368,-0.04392,-0.0122,0.01952,-0.04148,0.0488,0,-0.06344,-0.00976,-0.00488,0.01464
-0.0488,0.04392,-0.03904,-0.01464,0.00976,-0.02928,0.0488,0.00976,-0.05368,0,-0.00976,0.01464
-0.0488,0.04636,-0.04392,-0.01952,0.00488,-0.02684,0.03904,0.00976,-0.0488,0,-0.00488,0.01464
-0.03416,0.03172,-0.02928,-0.0122,0.00488,-0.01952,0.03904,0.00976,-0.0488,-0.00488,-0.00488,0.01952
-0.03416,0.02928,-0.0244,-0.00732,0.00976,-0.02196,0.03904,-0.00488,-0.05368,0,-0.00488,0.01464
-0.03904,0.02684,-0.01464,0.00488,0.0244,-0.03172,0.03416,0,-0.05368,-0.00976,-0.00488,0.00976
-0.03904,0.02684,-0.01464,0.00488,0.0244,-0.03172,0.04392,0.00488,-0.0488,-0.00488,-0.00488,0.00976
-0.03904,0.02684,-0.01464,0.00488,0.0244,-0.03172,0.05368,0.00976,-0.03904,0.00976,0.00976,0.0244
-0.03416,0.02928,-0.0244,-0.00732,0.00976,-0.02196,0.05368,0.01464,-0.04392,0.00976,0.00976,0.0244
-0.03904,0.03172,-0.0244,-0.00488,0.01464,-0.02684,0.0488,0.01952,-0.05368,0.00976,0.01464,0.0244
-0.03416,0.0244,-0.01464,0.00244,0.01952,-0.02684,0.0244,0.01952,-0.05368,0.00976,0.01464,0.02928
-0.03416,0.0244,-0.01464,0.00244,0.01952,-0.02684,0.02928,0.01952,-0.04392,0.01464,0.01952,0.03416
-0.03904,0.02196,-0.00488,0.01464,0.03416,-0.0366,0.03416,0.02928,-0.03904,0.01464,0.01952,0.03416
-0.02928,0.01708,-0.00488,0.00976,0.0244,-0.02684,0.02928,0.02928,-0.04392,0.01952,0.01464,0.04392
-0.0244,0.01464,-0.00488,0.00732,0.01952,-0.02196,0.02928,0.03904,-0.04392,0.0244,0.01952,0.0488
-0.03416,0.01952,-0.00488,0.0122,0.02928,-0.03172,0.02928,0.04392,-0.02928,0.03416,0.03904,0.05856
-0.03416,0.01464,0.00488,0.02196,0.03904,-0.0366,0.02928,0.05368,-0.0244,0.0488,0.03904,0.06832
-0.03416,0.00976,0.01464,0.03172,0.0488,-0.04148,0.01952,0.05856,-0.02928,0.04392,0.03904,0.05856
-0.01952,0,0.01952,0.02928,0.03904,-0.02928,0.01464,0.05368,-0.0244,0.03416,0.03904,0.0732
-0.01464,-0.00244,0.01952,0.02684,0.03416,-0.0244,0.00976,0.05368,-0.01952,0.03416,0.0488,0.08784
-0.00976,-0.00732,0.0244,0.02928,0.03416,-0.02196,0.00488,0.06344,-0.00976,0.04392,0.05856,0.08784
-0.00976,-0.00732,0.0244,0.02928,0.03416,-0.02196,0,0.0732,0.00488,0.0732,0.06344,0.08296
0,-0.0244,0.0488,0.0488,0.0488,-0.0244,-0.00488,0.0732,0.00488,0.08296,0.0732,0.0976
0.00488,-0.02928,0.05368,0.05124,0.0488,-0.02196,0,0.06832,0.01952,0.0976,0.08296,0.122
0.01464,-0.0488,0.08296,0.07564,0.06832,-0.02684,0,0.06832,0.02928,0.09272,0.09272,0.13176
0.02928,-0.06832,0.10736,0.09272,0.07808,-0.0244,0.00976,0.08784,0.02928,0.11712,0.11712,0.1464
0.03904,-0.07564,0.11224,0.09272,0.0732,-0.01708,0,0.08784,0.02928,0.11712,0.122,0.15616
0.03904,-0.07564,0.11224,0.09272,0.0732,-0.01708,-0.01952,0.0976,0.0488,0.13176,0.13664,0.1708
0.03416,-0.0854,0.13664,0.11956,0.10248,-0.03416,-0.03416,0.0976,0.06344,0.1464,0.15616,0.18056
0.0488,-0.0976,0.1464,0.122,0.0976,-0.0244,-0.03904,0.10248,0.06832,0.16104,0.16104,0.18544
0.06344,-0.11712,0.1708,0.13908,0.10736,-0.02196,-0.04392,0.11224,0.07808,0.1708,0.1708,0.1952
0.06832,-0.11956,0.1708,0.13664,0.10248,-0.01708,-0.04392,0.11224,0.08784,0.18544,0.19032,0.21472
0.07808,-0.12932,0.18056,0.14152,0.10248,-0.0122,-0.0488,0.11224,0.0976,0.20984,0.20496,0.23424
0.08296,-0.1342,0.18544,0.14396,0.10248,-0.00976,-0.0488,0.12688,0.10736,0.2196,0.22448,0.23912
0.07808,-0.13664,0.1952,0.15616,0.11712,-0.01952,-0.05368,0.122,0.122,0.2196,0.23912,0.25376
0.07808,-0.14396,0.20984,0.1708,0.13176,-0.02684,-0.06832,0.13176,0.14152,0.24888,0.23912,0.26352
0.0976,-0.16104,0.22448,0.17568,0.12688,-0.01464,-0.07808,0.12688,0.14152,0.24888,0.23912,0.2684
0.11224,-0.17568,0.23912,0.183,0.12688,-0.00732,-0.0732,0.11224,0.15128,0.24888,0.24888,0.27328
0.11712,-0.17568,0.23424,0.17568,0.11712,0,-0.09272,0.10248,0.14152,0.25376,0.24888,0.27816
0.10248,-0.16836,0.23424,0.183,0.13176,-0.01464,-0.08784,0.11224,0.1464,0.25376,0.25864,0.27816
0.10248,-0.16592,0.22936,0.17812,0.12688,-0.0122,-0.08784,0.11224,0.1464,0.25864,0.25864,0.27816
0.10248,-0.16348,0.22448,0.17324,0.122,-0.00976,-0.08296,0.11224,0.15128,0.25376,0.244,0.27816
0.09272,-0.14884,0.20496,0.1586,0.11224,-0.00976,-0.0732,0.10248,0.1464,0.24888,0.22448,0.25376
0.08296,-0.1342,0.18544,0.14396,0.10248,-0.00976,-0.07808,0.11224,0.13664,0.23424,0.20984,0.23912
0.0732,-0.11956,0.16592,0.12932,0.09272,-0.00976,-0.06832,0.11224,0.12688,0.21472,0.1952,0.22448
0.06832,-0.10736,0.1464,0.11224,0.07808,-0.00488,-0.06832,0.0976,0.122,0.20984,0.18056,0.21472
0.05856,-0.09516,0.13176,0.10248,0.0732,-0.00732,-0.05368,0.08296,0.10248,0.1952,0.16104,0.18544
0.05368,-0.0854,0.11712,0.09028,0.06344,-0.00488,-0.0244,0.0732,0.08784,0.17568,0.1464,0.18056
0.04392,-0.07076,0.0976,0.07564,0.05368,-0.00488,-0.01464,0.06344,0.06832,0.15616,0.12688,0.15616
0.0244,-0.04636,0.06832,0.05612,0.04392,-0.00976,0,0.06344,0.06344,0.13176,0.11712,0.13176
0.01952,-0.04392,0.06832,0.05856,0.0488,-0.01464,0,0.05368,0.05368,0.13664,0.10736,0.13176
0.00488,-0.03416,0.06344,0.061,0.05856,-0.02684,-0.00488,0.04392,0.03904,0.122,0.08784,0.11712
0.00976,-0.02684,0.04392,0.03904,0.03416,-0.0122,-0.00488,0.01952,0.01464,0.09272,0.05368,0.06832
-0.01464,-0.00976,0.03416,0.04148,0.0488,-0.03172,0.00976,0.01952,0.00976,0.09272,0.05368,0.06344
-0.01464,-0.00244,0.01952,0.02684,0.03416,-0.0244,0.00976,0.01464,0.00488,0.0976,0.04392,0.07808
-0.01464,-0.00488,0.0244,0.03172,0.03904,-0.02684,0.01464,0.00488,-0.01464,0.07808,0.02928,0.06832
-0.00488,-0.00732,0.01952,0.02196,0.0244,-0.01464,0.00488,0.00488,-0.01952,0.06832,0.0244,0.05856
-0.00976,0.00244,0.00488,0.00976,0.01464,-0.0122,-0.00488,0.01464,-0.0244,0.05856,0.01952,0.05856
-0.01952,0.00976,0,0.00976,0.01952,-0.01952,-0.00488,0.00488,-0.0244,0.06344,0.01464,0.05368
-0.0244,0.01952,-0.01464,-0.00244,0.00976,-0.01708,0.00488,0.00488,-0.01464,0.05368,0.01464,0.05856
-0.0244,0.01708,-0.00976,0.00244,0.01464,-0.01952,0,0.00488,-0.01952,0.05856,0.00976,0.05368
-0.01952,0.01464,-0.00976,0,0.00976,-0.01464,0.00488,-0.00488,-0.0244,0.05856,0.00976,0.05368
-0.01952,0.01708,-0.01464,-0.00488,0.00488,-0.0122,0.00488,-0.00976,-0.0244,0.05368,0.01464,0.05368
-0.0244,0.01952,-0.01464,-0.00244,0.00976,-0.01708,-0.00488,0,-0.0244,0.05856,0.0244,0.05368
-0.03416,0.0244,-0.01464,0.00244,0.01952,-0.02684,-0.00976,0,-0.0244,0.06344,0.01952,0.05368
-0.02928,0.02928,-0.02928,-0.01464,0,-0.01464,0,0,-0.02928,0.06344,0.01952,0.05368
-0.02928,0.02684,-0.0244,-0.00976,0.00488,-0.01708,0,-0.00488,-0.02928,0.06832,0.0244,0.0488
-0.02928,0.01952,-0.00976,0.00488,0.01952,-0.0244,-0.00488,-0.01952,-0.02928,0.06344,0.00976,0.0488
-0.03416,0.0122,0.00976,0.02684,0.04392,-0.03904,0,-0.01464,-0.02928,0.06344,0.00976,0.0488
-0.03416,0.00976,0.01464,0.03172,0.0488,-0.04148,0,-0.00488,-0.02928,0.06344,0.00976,0.05368
-0.03416,0.01708,0,0.01708,0.03416,-0.03416,0,-0.00488,-0.02928,0.05856,0.01464,0.0488
-0.03416,0.01952,-0.00488,0.0122,0.02928,-0.03172,0.01464,-0.01952,-0.0244,0.05856,0.00976,0.0488
-0.03416,0.0244,-0.01464,0.00244,0.01952,-0.02684,0.00488,-0.01952,-0.02928,0.06832,0.00976,0.03904
-0.0244,0.01708,-0.00976,0.00244,0.01464,-0.01952,0,-0.01952,-0.02928,0.05856,0.01952,0.0488
-0.03416,0.02684,-0.01952,-0.00244,0.01464,-0.0244,0.00488,-0.01952,-0.02928,0.06832,0.01952,0.05368
-0.0244,0.01464,-0.00488,0.00732,0.01952,-0.02196,0,-0.01464,-0.02928,0.06832,0.01464,0.03904
-0.0244,0.01464,-0.00488,0.00732,0.01952,-0.02196,0,-0.01952,-0.02928,0.06832,0.00976,0.03904
-0.0244,0.01464,-0.00488,0.00732,0.01952,-0.02196,-0.01464,-0.02928,-0.03904,0.05856,0.00488,0.03416
-0.01952,0.00488,0.00976,0.01952,0.02928,-0.0244,-0.01952,-0.02928,-0.03904,0.05368,0.00488,0.03416
-0.02928,0.0122,0.00488,0.01952,0.03416,-0.03172,-0.01952,-0.03416,-0.02928,0.05856,0.01464,0.0488
-0.02928,0.01464,0,0.01464,0.02928,-0.02928,0,-0.02928,-0.0244,0.05856,0.00976,0.05368
-0.01952,0.00732,0.00488,0.01464,0.0244,-0.02196,-0.00488,-0.0244,-0.0244,0.0732,0.01464,0.05368
-0.02928,0.00244,0.0244,0.03904,0.05368,-0.04148,-0.00488,-0.0244,-0.0244,0.0732,0.01464,0.05368
-0.01952,0,0.01952,0.02928,0.03904,-0.02928,-0.00488,-0.0244,-0.0244,0.07808,0.0244,0.04392
-0.0244,0.00244,0.01952,0.03172,0.04392,-0.03416,-0.00488,-0.01952,-0.0244,0.08784,0.02928,0.05368
-0.0244,0.00976,0.00488,0.01708,0.02928,-0.02684,0.00488,-0.01464,-0.01952,0.08296,0.0244,0.04392
-0.0244,0.00976,0.00488,0.01708,0.02928,-0.02684,0.00488,-0.00976,-0.01952,0.08296,0.01464,0.03904
-0.01952,0.00732,0.00488,0.01464,0.0244,-0.02196,-0.00488,-0.01952,-0.0244,0.07808,0.00976,0.03904
-0.01952,0.00244,0.01464,0.0244,0.03416,-0.02684,0,-0.01952,-0.0244,0.08296,0.01464,0.03904
-0.01952,0,0.01952,0.02928,0.03904,-0.02928,0,-0.01952,-0.0244,0.08296,0.01952,0.0488
-0.02928,0.00976,0.00976,0.0244,0.03904,-0.03416,0.00488,-0.01952,-0.00976,0.08296,0.0244,0.05368
-0.01464,0.00976,-0.00488,0.00244,0.00976,-0.0122,-0.00488,-0.01464,0,0.08296,0.0244,0.05368
-0.00976,0.00732,-0.00488,0,0.00488,-0.00732,-0.00488,-0.01464,-0.00488,0.08296,0.0244,0.0488
-0.00976,0.00244,0.00488,0.00976,0.01464,-0.0122,0.00488,-0.00488,-0.01464,0.08784,0.01464,0.03904
-0.01464,0,0.01464,0.02196,0.02928,-0.02196,0.00488,-0.00976,-0.01464,0.08296,0.00976,0.03904
-0.0244,0.00244,0.01952,0.03172,0.04392,-0.03416,-0.00976,0,-0.01464,0.08784,0.00488,0.03904
-0.0244,0.00244,0.01952,0.03172,0.04392,-0.03416,-0.00976,0,-0.01464,0.08784,0.00488,0.03416
-0.01952,0.00244,0.01464,0.0244,0.03416,-0.02684,-0.01464,0.00488,-0.00488,0.09272,0.00976,0.03904
-0.00976,0.00244,0.00488,0.00976,0.01464,-0.0122,-0.01952,0.00488,-0.01464,0.09272,0.01464,0.02928
-0.01952,0.00732,0.00488,0.01464,0.0244,-0.02196,-0.00488,-0.00976,-0.01952,0.08296,0.00976,0.02928
-0.0244,0.01708,-0.00976,0.00244,0.01464,-0.01952,-0.00488,-0.00488,-0.01952,0.08296,0.00976,0.03416
-0.01464,0.00488,0.00488,0.0122,0.01952,-0.01708,-0.01952,-0.00976,-0.02928,0.08296,0,0.0244
-0.01464,0.00732,0,0.00732,0.01464,-0.01464,-0.01952,-0.00976,-0.02928,0.08296,0,0.01952
-0.0244,0.00976,0.00488,0.01708,0.02928,-0.02684,-0.00976,-0.00488,-0.01952,0.09272,0,0.02928
-0.01952,0.00976,0,0.00976,0.01952,-0.01952,0,0,-0.01952,0.09272,0.00976,0.02928
-0.01464,0.00976,-0.00488,0.00244,0.00976,-0.0122,0.01952,-0.00488,-0.01464,0.08296,0.00488,0.02928
-0.01464,0.0122,-0.00976,-0.00244,0.00488,-0.00976,0.01952,-0.01952,-0.0244,0.07808,0,0.0244
-0.01464,0.0122,-0.00976,-0.00244,0.00488,-0.00976,0.00976,-0.01952,-0.02928,0.0732,0,0.01952
-0.01464,0.01708,-0.01952,-0.0122,-0.00488,-0.00488,0.00488,-0.01464,-0.02928,0.0732,0,0.0244
-0.01464,0.01464,-0.01464,-0.00732,0,-0.00732,-0.00488,-0.01464,-0.03416,0.07808,-0.00976,0.01952
-0.01464,0.01464,-0.01464,-0.00732,0,-0.00732,0,-0.01464,-0.02928,0.08296,-0.00976,0.0244
-0.01464,0.0122,-0.00976,-0.00244,0.00488,-0.00976,0,-0.01464,-0.0244,0.08784,-0.00976,0.01464
-0.01464,0.0122,-0.00976,-0.00244,0.00488,-0.00976,0,-0.01952,-0.02928,0.07808,-0.00976,0.01952
-0.01952,0.01952,-0.01952,-0.00976,0,-0.00976,0,-0.01464,-0.02928,0.06344,-0.00488,0.00976
-0.01464,0.0122,-0.00976,-0.00244,0.00488,-0.00976,0,-0.01464,-0.0244,0.0732,-0.00488,0.00976
-0.01464,0.0122,-0.00976,-0.00244,0.00488,-0.00976,-0.00488,-0.00976,-0.0244,0.08296,-0.00488,0
-0.01464,0.01708,-0.01952,-0.0122,-0.00488,-0.00488,0,-0.00976,-0.0244,0.07808,-0.00488,-0.00488
-0.0244,0.01708,-0.00976,0.00244,0.01464,-0.01952,-0.00976,-0.0244,-0.0244,0.06344,-0.01952,-0.00488
-0.0244,0.01708,-0.00976,0.00244,0.01464,-0.01952,-0.00976,-0.0244,-0.03416,0.06832,-0.01952,-0.00976
-0.0244,0.01952,-0.01464,-0.00244,0.00976,-0.01708,-0.00976,-0.02928,-0.02928,0.06832,-0.01952,-0.00488
-0.0244,0.0244,-0.0244,-0.0122,0,-0.0122,-0.00976,-0.02928,-0.02928,0.06832,-0.01464,-0.00488
-0.03416,0.03172,-0.02928,-0.0122,0.00488,-0.01952,0.00488,-0.02928,-0.02928,0.0732,-0.00488,0
-0.02928,0.02928,-0.02928,-0.01464,0,-0.01464,0.00488,-0.0244,-0.02928,0.06832,-0.00976,0.00976
-0.03904,0.02928,-0.01952,0,0.01952,-0.02928,0.00488,-0.01464,-0.02928,0.0732,-0.00976,0.00488
-0.03904,0.03172,-0.0244,-0.00488,0.01464,-0.02684,0,-0.01952,-0.03416,0.0732,-0.00976,0
-0.03904,0.0244,-0.00976,0.00976,0.02928,-0.03416,0.00976,-0.01952,-0.0244,0.0732,-0.00976,0
-0.03904,0.0244,-0.00976,0.00976,0.02928,-0.03416,0.00976,-0.01952,-0.0244,0.0732,-0.01464,0
-0.02928,0.0244,-0.01952,-0.00488,0.00976,-0.01952,0.00488,-0.03416,-0.03416,0.06832,-0.0244,0
-0.03416,0.02928,-0.0244,-0.00732,0.00976,-0.02196,0.00976,-0.03416,-0.03416,0.06832,-0.0244,-0.00488
-0.0244,0.02928,-0.03416,-0.02196,-0.00976,-0.00732,0.00488,-0.01952,-0.03416,0.0732,-0.0244,-0.00488
-0.01464,0.02196,-0.02928,-0.02196,-0.01464,0,-0.00488,-0.01952,-0.03416,0.06832,-0.0244,-0.00976
-0.01952,0.0244,-0.02928,-0.01952,-0.00976,-0.00488,-0.00976,-0.0244,-0.04392,0.05856,-0.02928,-0.01952
-0.01464,0.01952,-0.0244,-0.01708,-0.00976,-0.00244,-0.01464,-0.03416,-0.0488,0.05856,-0.02928,-0.01952
-0.0244,0.0244,-0.0244,-0.0122,0,-0.0122,-0.00488,-0.04392,-0.03416,0.05856,-0.02928,-0.0244
-0.02928,0.02928,-0.02928,-0.01464,0,-0.01464,0,-0.03416,-0.03416,0.06344,-0.0244,-0.02928
-0.02928,0.03416,-0.03904,-0.0244,-0.00976,-0.00976,0,-0.0244,-0.02928,0.06344,-0.02928,-0.01952
-0.03904,0.0366,-0.03416,-0.01464,0.00488,-0.02196,-0.01464,-0.01464,-0.02928,0.05856,-0.02928,-0.01952
-0.0244,0.02928,-0.03416,-0.02196,-0.00976,-0.00732,-0.01952,-0.01464,-0.03416,0.06344,-0.02928,-0.01464
-0.00976,0.02196,-0.03416,-0.02928,-0.0244,0.00732,-0.01952,-0.01952,-0.03416,0.06344,-0.0244,-0.01952
-0.0244,0.02684,-0.02928,-0.01708,-0.00488,-0.00976,-0.00488,-0.0244,-0.0244,0.0732,-0.01464,-0.01952
-0.03416,0.03416,-0.03416,-0.01708,0,-0.01708,0.00488,-0.0244,-0.0244,0.0732,-0.01464,-0.01464
-0.03416,0.03172,-0.02928,-0.0122,0.00488,-0.01952,0.01464,-0.02928,-0.02928,0.05856,-0.02928,-0.03416
-0.01952,0.01464,-0.00976,0,0.00976,-0.01464,0.01464,-0.03904,-0.03904,0.05368,-0.03904,-0.04392
-0.01952,0.01464,-0.00976,0,0.00976,-0.01464,0.01464,-0.03904,-0.04392,0.0488,-0.03416,-0.03904
-0.00488,0.0122,-0.01952,-0.01708,-0.01464,0.00488,0.01952,-0.02928,-0.02928,0.05368,-0.02928,-0.03904
-0.01952,0.02684,-0.03416,-0.0244,-0.01464,-0.00244,0.01952,-0.01952,-0.0244,0.0732,-0.01952,-0.01952
-0.01952,0.02684,-0.03416,-0.0244,-0.01464,-0.00244,0.01952,-0.0244,-0.03416,0.06832,-0.0244,-0.01952
-0.02928,0.04148,-0.05368,-0.03904,-0.0244,-0.00244,0.01952,-0.01952,-0.0244,0.06832,-0.0244,-0.0244
-0.01464,0.01464,-0.01464,-0.00732,0,-0.00732,0.00976,-0.02928,-0.03904,0.05856,-0.03904,-0.0244
-0.02928,0.02928,-0.02928,-0.01464,0,-0.01464,0.01952,-0.02928,-0.02928,0.06832,-0.02928,-0.02928
-0.02928,0.0244,-0.01952,-0.00488,0.00976,-0.01952,0.01952,-0.02928,-0.02928,0.06832,-0.03904,-0.03904
-0.02928,0.0244,-0.01952,-0.00488,0.00976,-0.01952,0.01952,-0.02928,-0.02928,0.06832,-0.03904,-0.03904
-0.01952,0.0244,-0.02928,-0.01952,-0.00976,-0.00488,0.00976,-0.01952,-0.02928,0.05856,-0.03904,-0.03904
-0.00976,0.01952,-0.02928,-0.0244,-0.01952,0.00488,0.00976,-0.00976,-0.02928,0.05856,-0.03904,-0.03904
-0.00976,0.01464,-0.01952,-0.01464,-0.00976,0,0.00976,-0.00976,-0.01952,0.06832,-0.03904,-0.03904
-0.00976,0.01464,-0.01952,-0.01464,-0.00976,0,0.00976,-0.00976,-0.01952,0.06832,-0.03904,-0.03904
0.00976,-0.00488,0,-0.00488,-0.00976,0.00976,0.01952,0.00976,-0.00976,0.07808,-0.02928,-0.02928
0.01952,-0.01464,0.00976,0,-0.00976,0.01464,0.01952,0.02928,0,0.08784,-0.01952,-0.01952
0.01952,-0.01952,0.01952,0.00976,0,0.00976,0.00976,0.02928,0.00976,0.0976,-0.00976,-0.00976
0.01952,-0.0244,0.02928,0.01952,0.00976,0.00488,0.00976,0.02928,0.00976,0.0976,-0.00976,-0.00976
0.00976,-0.00976,0.00976,0.00488,0,0.00488,0.00976,0.01952,0.00976,0.0976,0,-0.00976
0,0.00488,-0.00976,-0.00976,-0.00976,0.00488,0.00976,0.01952,0.00976,0.0976,0,-0.00976
0.00976,-0.00732,0.00488,0,-0.00488,0.00732,-0.00488,-0.01464,-0.00976,0.07808,-0.01952,-0.01952
0.03416,-0.0244,0.01464,-0.00244,-0.01952,0.02684,-0.02928,-0.04392,-0.01952,0.06832,-0.02928,-0.02928
0.0244,-0.02684,0.02928,0.01708,0.00488,0.00976,-0.0244,-0.03904,-0.00976,0.07808,-0.01464,-0.01464
0.03416,-0.02928,0.0244,0.00732,-0.00976,0.02196,-0.0244,-0.02928,0,0.0976,-0.00488,-0.00976
0.0244,-0.0244,0.0244,0.0122,0,0.0122,-0.01952,-0.0244,0,0.08784,-0.00976,-0.00976
0.0244,-0.02684,0.02928,0.01708,0.00488,0.00976,-0.01952,-0.0244,0,0.08296,-0.01952,-0.01952
0.0244,-0.01708,0.00976,-0.00244,-0.01464,0.01952,-0.00976,-0.00976,-0.00976,0.07808,-0.02928,-0.02928
0.01464,-0.00732,0,-0.00732,-0.01464,0.01464,-0.00976,-0.00976,-0.00976,0.0732,-0.02928,-0.01952
0.0244,-0.00976,-0.00488,-0.01708,-0.02928,0.02684,-0.01464,-0.01952,-0.01464,0.06832,-0.02928,-0.03416
0.0244,-0.00976,-0.00488,-0.01708,-0.02928,0.02684,-0.00976,-0.0244,-0.0244,0.06344,-0.02928,-0.03904
0,0.01464,-0.02928,-0.02928,-0.02928,0.01464,-0.00976,-0.0244,-0.02928,0.06344,-0.02928,-0.03904
-0.01464,0.03172,-0.0488,-0.04148,-0.03416,0.00976,-0.00976,-0.03416,-0.04392,0.04392,-0.03904,-0.0488
-0.01464,0.03416,-0.05368,-0.04636,-0.03904,0.0122,-0.0244,-0.04392,-0.05368,0.02928,-0.05856,-0.0732
-0.03904,0.05124,-0.06344,-0.04392,-0.0244,-0.00732,-0.01952,-0.05368,-0.05856,0.0244,-0.08296,-0.0732
-0.03904,0.04636,-0.05368,-0.03416,-0.01464,-0.0122,-0.00976,-0.05368,-0.05856,0.03416,-0.0732,-0.06832
-0.03904,0.0488,-0.05856,-0.03904,-0.01952,-0.00976,0,-0.05368,-0.04392,0.03904,-0.0732,-0.0732
-0.02928,0.04636,-0.06344,-0.0488,-0.03416,0.00244,-0.00488,-0.06344,-0.05368,0.03416,-0.0732,-0.0732
-0.03416,0.05124,-0.06832,-0.05124,-0.03416,0,0,-0.05856,-0.05368,0.03416,-0.0732,-0.0732
-0.04392,0.05368,-0.06344,-0.04148,-0.01952,-0.0122,0.00488,-0.06344,-0.06344,0.0244,-0.0732,-0.08296
-0.05368,0.05368,-0.05368,-0.02684,0,-0.02684,0.00488,-0.06344,-0.06344,0.0244,-0.0732,-0.08296
-0.04392,0.05124,-0.05856,-0.0366,-0.01464,-0.01464,0,-0.05368,-0.05856,0.02928,-0.06832,-0.08784
-0.0488,0.05368,-0.05856,-0.03416,-0.00976,-0.01952,0,-0.05856,-0.05856,0.0244,-0.0732,-0.08784
-0.03416,0.05368,-0.0732,-0.05612,-0.03904,0.00244,0,-0.05856,-0.05856,0.0244,-0.0732,-0.0976
-0.03416,0.05124,-0.06832,-0.05124,-0.03416,0,0,-0.05856,-0.05368,0.02928,-0.0732,-0.0976
-0.04392,0.05368,-0.06344,-0.04148,-0.01952,-0.0122,0,-0.05368,-0.0488,0.01952,-0.07808,-0.08784
-0.04392,0.05368,-0.06344,-0.04148,-0.01952,-0.0122,0,-0.05368,-0.0488,0.01952,-0.07808,-0.08784
-0.04392,0.05856,-0.0732,-0.05124,-0.02928,-0.00732,0,-0.05368,-0.0488,0.02928,-0.08784,-0.0976
-0.05368,0.061,-0.06832,-0.04148,-0.01464,-0.01952,0,-0.05368,-0.0488,0.02928,-0.08784,-0.0976
-0.05856,0.06344,-0.06832,-0.03904,-0.00976,-0.0244,0.00976,-0.05368,-0.0488,0.02928,-0.07808,-0.08784
-0.0488,0.061,-0.0732,-0.0488,-0.0244,-0.0122,0.00488,-0.05368,-0.0488,0.0244,-0.07808,-0.08784
-0.03904,0.0488,-0.05856,-0.03904,-0.01952,-0.00976,-0.00488,-0.05368,-0.06344,0.0244,-0.08784,-0.0976
-0.03904,0.04636,-0.05368,-0.03416,-0.01464,-0.0122,-0.00488,-0.05368,-0.05856,0.0244,-0.08784,-0.0976
-0.0488,0.05124,-0.05368,-0.02928,-0.00488,-0.02196,0.01464,-0.03904,-0.05856,0.01952,-0.07808,-0.0976
-0.04392,0.0488,-0.05368,-0.03172,-0.00976,-0.01708,0.00976,-0.03904,-0.05856,0.01952,-0.0732,-0.0976
-0.0488,0.05856,-0.06832,-0.04392,-0.01952,-0.01464,0.01952,-0.03904,-0.04392,0.0244,-0.07808,-0.08296
-0.04392,0.05124,-0.05856,-0.0366,-0.01464,-0.01464,0.01464,-0.04392,-0.0488,0.0244,-0.08296,-0.08296
-0.05368,0.05856,-0.06344,-0.0366,-0.00976,-0.02196,0.00976,-0.03904,-0.03416,0.03416,-0.0732,-0.08784
-0.0488,0.05612,-0.06344,-0.03904,-0.01464,-0.01708,0.00976,-0.03904,-0.03416,0.04392,-0.0732,-0.09272
-0.04392,0.04392,-0.04392,-0.02196,0,-0.02196,-0.00488,-0.02928,-0.04392,0.03416,-0.0732,-0.10248
-0.01952,0.0488,-0.07808,-0.06832,-0.05856,0.01952,0.01952,-0.00976,-0.04392,0.02928,-0.08296,-0.11224
-0.01952,0.05124,-0.08296,-0.0732,-0.06344,0.02196,0.03416,0.05368,-0.03416,0.01952,-0.09272,-0.122
-0.03904,0.05612,-0.0732,-0.05368,-0.03416,-0.00244,0.08784,0.16104,0.00488,0.0488,-0.08296,-0.11224
0.00488,0.0244,-0.05368,-0.05612,-0.05856,0.03172,0.12688,0.26352,0.08296,0.09272,-0.05368,-0.10248
0.06832,-0.04148,0.01464,-0.01952,-0.05368,0.061,0.08784,0.26352,0.15128,0.1464,-0.01464,-0.10736
0.08784,-0.10004,0.11224,0.06832,0.0244,0.03172,0.13664,0.43432,0.3416,0.30744,0.13176,0.01952
0.18544,-0.20984,0.23424,0.14152,0.0488,0.06832,0.09272,0.54168,0.488,0.4636,0.26352,0.10736
0.30744,-0.3416,0.37576,0.22204,0.06832,0.11956,-0.01464,0.57584,0.69784,0.6832,0.46848,0.29768
0.35136,-0.42944,0.50752,0.33184,0.15616,0.0976,-0.18056,0.50264,0.854,0.854,0.6588,0.488
0.33672,-0.4514,0.56608,0.39772,0.22936,0.05368,-0.33184,0.32696,0.854,0.91744,0.74664,0.61488
0.30256,-0.4514,0.60024,0.44896,0.29768,0.00244,-0.5124,-0.08296,0.69784,0.8784,0.77592,0.732
0.16592,-0.33672,0.50752,0.42456,0.3416,-0.08784,-0.64904,-0.61976,0.36112,0.62952,0.62952,0.69296
0.0732,-0.18056,0.28792,0.25132,0.21472,-0.07076,-0.72224,-0.99552,-0.02928,0.27816,0.37088,0.51728
0,-0.05368,0.10736,0.10736,0.10736,-0.05368,-0.61976,-1.01016,-0.27328,0.02928,0.15128,0.33184
-0.01464,0.01708,-0.01952,-0.0122,-0.00488,-0.00488,-0.50752,-0.91744,-0.36112,-0.09272,-0.03904,0.12688
-0.0244,0.04392,-0.06344,-0.05124,-0.03904,0.00732,-0.35624,-0.62952,-0.31232,-0.11224,-0.10248,0
-0.04392,0.07808,-0.11224,-0.09028,-0.06832,0.0122,-0.20496,-0.41968,-0.26352,-0.122,-0.13664,-0.0732
-0.02928,0.061,-0.09272,-0.07808,-0.06344,0.01708,-0.11224,-0.2684,-0.18544,-0.07808,-0.12688,-0.08296
-0.03416,0.06588,-0.0976,-0.08052,-0.06344,0.01464,-0.09272,-0.18056,-0.13176,-0.03904,-0.11224,-0.0976
-0.04392,0.06588,-0.08784,-0.06588,-0.04392,0,-0.04392,-0.122,-0.08784,0.00488,-0.10248,-0.09272
-0.02928,0.03904,-0.0488,-0.03416,-0.01952,-0.00488,-0.00976,-0.08784,-0.07808,0,-0.0976,-0.10248
-0.06832,0.05856,-0.0488,-0.01464,0.01952,-0.04392,0.01464,-0.0488,-0.04392,0.01952,-0.06832,-0.0732
-0.05856,0.0488,-0.03904,-0.00976,0.01952,-0.03904,0,-0.03904,-0.04392,0.01952,-0.08784,-0.08784
-0.05368,0.0488,-0.04392,-0.01708,0.00976,-0.03172,0.00488,-0.04392,-0.0488,0.01952,-0.08784,-0.0976
-0.05368,0.0488,-0.04392,-0.01708,0.00976,-0.03172,0.03416,-0.03904,-0.04392,0.0244,-0.08296,-0.10248
-0.05856,0.05368,-0.0488,-0.01952,0.00976,-0.03416,0.05856,-0.01952,-0.03904,0.01952,-0.08296,-0.10248
-0.05368,0.05124,-0.0488,-0.02196,0.00488,-0.02928,0.04392,-0.0244,-0.03904,0.01952,-0.07808,-0.10736
-0.04392,0.04392,-0.04392,-0.02196,0,-0.02196,0.03416,-0.02928,-0.03904,0.01952,-0.08296,-0.10736
-0.04392,0.04392,-0.04392,-0.02196,0,-0.02196,0.03416,-0.0244,-0.0488,0.00488,-0.09272,-0.11712
-0.04392,0.04392,-0.04392,-0.02196,0,-0.02196,0.03904,-0.0244,-0.05368,0.00976,-0.09272,-0.11712
-0.04392,0.04636,-0.0488,-0.02684,-0.00488,-0.01952,0.03904,-0.02928,-0.05368,0.00976,-0.09272,-0.11712
-0.04392,0.05856,-0.0732,-0.05124,-0.02928,-0.00732,0.03416,-0.0244,-0.0488,0.00976,-0.09272,-0.122
-0.04392,0.05124,-0.05856,-0.0366,-0.01464,-0.01464,0.04392,-0.01464,-0.03904,0.00976,-0.09272,-0.11712
-0.04392,0.05124,-0.05856,-0.0366,-0.01464,-0.01464,0.0488,-0.01464,-0.03904,0.01952,-0.09272,-0.11712
-0.04392,0.04392,-0.04392,-0.02196,0,-0.02196,0.0488,-0.00976,-0.0244,0.02928,-0.08784,-0.11224
-0.03904,0.04148,-0.04392,-0.0244,-0.00488,-0.01708,0.0488,-0.00976,-0.0244,0.03904,-0.08784,-0.11224
-0.02928,0.04148,-0.05368,-0.03904,-0.0244,-0.00244,0.03904,0,-0.03416,0.01952,-0.0976,-0.10736
-0.03416,0.04148,-0.0488,-0.03172,-0.01464,-0.00976,0.03904,-0.00488,-0.04392,0.01464,-0.0976,-0.10736
-0.05368,0.05612,-0.05856,-0.03172,-0.00488,-0.0244,0.04392,0,-0.03416,0.03416,-0.08784,-0.0976
-0.06344,0.05856,-0.05368,-0.02196,0.00976,-0.0366,0.04392,0,-0.0244,0.02928,-0.08784,-0.0976
-0.04392,0.0488,-0.05368,-0.03172,-0.00976,-0.01708,0.03416,-0.00488,-0.03416,0.01952,-0.0976,-0.11712
-0.0244,0.03172,-0.03904,-0.02684,-0.01464,-0.00488,0.01952,-0.01464,-0.03904,0.01952,-0.0976,-0.13664
-0.03416,0.04392,-0.05368,-0.0366,-0.01952,-0.00732,0.02928,-0.00976,-0.03416,0.01952,-0.08296,-0.13176
-0.0244,0.0366,-0.0488,-0.0366,-0.0244,0,0.03904,-0.00976,-0.03416,0.01952,-0.08784,-0.13176
-0.0244,0.0366,-0.0488,-0.0366,-0.0244,0,0.04392,-0.00976,-0.02928,0.01952,-0.09272,-0.122
-0.03416,0.04392,-0.05368,-0.0366,-0.01952,-0.00732,0.0488,-0.00488,-0.02928,0.01464,-0.09272,-0.11712
-0.04392,0.04148,-0.03904,-0.01708,0.00488,-0.0244,0.05856,0.00488,-0.03904,0.01952,-0.09272,-0.11224
-0.05368,0.04392,-0.03416,-0.00732,0.01952,-0.0366,0.0488,0,-0.04392,0.01952,-0.09272,-0.10736
-0.03904,0.04148,-0.04392,-0.0244,-0.00488,-0.01708,0.0488,-0.00488,-0.03416,0.01952,-0.09272,-0.11712
-0.02928,0.03416,-0.03904,-0.0244,-0.00976,-0.00976,0.0488,-0.00976,-0.0244,0.02928,-0.08784,-0.11224
-0.02928,0.02928,-0.02928,-0.01464,0,-0.01464,0.04392,0,-0.01952,0.01952,-0.07808,-0.11224
-0.01952,0.0244,-0.02928,-0.01952,-0.00976,-0.00488,0.04392,0.00488,-0.0244,0.01952,-0.0732,-0.11224
-0.0244,0.03172,-0.03904,-0.02684,-0.01464,-0.00488,0.0488,0.00976,-0.01464,0.04392,-0.0732,-0.10248
-0.0244,0.03416,-0.04392,-0.03172,-0.01952,-0.00244,0.0488,0.00976,-0.01464,0.04392,-0.0732,-0.0976
-0.01952,0.02196,-0.0244,-0.01464,-0.00488,-0.00732,0.04392,0.00976,-0.01952,0.03416,-0.07808,-0.10248
-0.01952,0.02196,-0.0244,-0.01464,-0.00488,-0.00732,0.04392,0.01952,-0.01952,0.02928,-0.07808,-0.10248
-0.01464,0.01952,-0.0244,-0.01708,-0.00976,-0.00244,0.02928,0.02928,-0.0244,0.01952,-0.0732,-0.10248
-0.01952,0.02196,-0.0244,-0.01464,-0.00488,-0.00732,0.01952,0.03904,-0.01952,0.0244,-0.05856,-0.08784
-0.01952,0.0244,-0.02928,-0.01952,-0.00976,-0.00488,0.02928,0.03904,-0.00976,0.04392,-0.0488,-0.0732
-0.01952,0.01952,-0.01952,-0.00976,0,-0.00976,0.03904,0.04392,0.00488,0.06344,-0.0488,-0.06832
-0.01952,0.01464,-0.00976,0,0.00976,-0.01464,0.02928,0.0488,0.00976,0.06832,-0.03904,-0.06832
-0.01464,0.00976,-0.00488,0.00244,0.00976,-0.0122,0.01952,0.05368,0.01464,0.06832,-0.02928,-0.04392
-0.00488,0.00244,0,0.00244,0.00488,-0.00488,0.01952,0.05368,0.01464,0.05856,-0.02928,-0.0488
0.00488,-0.00732,0.00976,0.00732,0.00488,0,0.01464,0.06832,0.01464,0.06832,-0.03904,-0.0488
0.01464,-0.0244,0.03416,0.02684,0.01952,-0.00244,-0.00488,0.06344,0.0244,0.0732,-0.01952,-0.02928
0.01952,-0.03416,0.0488,0.03904,0.02928,-0.00488,-0.00488,0.06344,0.02928,0.09272,0.00488,-0.0244
0.01464,-0.0366,0.05856,0.05124,0.04392,-0.01464,-0.00976,0.06832,0.03904,0.10736,0.01464,-0.01952
0.02928,-0.05368,0.07808,0.06344,0.0488,-0.00976,-0.00976,0.07808,0.05368,0.11712,0.0244,-0.00976
0.03904,-0.05856,0.07808,0.05856,0.03904,0,-0.00488,0.08784,0.05856,0.12688,0.03904,0.00976
0.06344,-0.07564,0.08784,0.05612,0.0244,0.01952,-0.01464,0.08784,0.06832,0.12688,0.0488,0.03416
0.05368,-0.07808,0.10248,0.07564,0.0488,0.00244,-0.02928,0.08784,0.08296,0.1464,0.05856,0.04392
0.05856,-0.08296,0.10736,0.07808,0.0488,0.00488,-0.03416,0.09272,0.0976,0.16104,0.07808,0.05856
0.06832,-0.10004,0.13176,0.0976,0.06344,0.00244,-0.03904,0.09272,0.08784,0.16592,0.08296,0.0732
0.06832,-0.10248,0.13664,0.10248,0.06832,0,-0.0488,0.10248,0.0976,0.1708,0.0976,0.0976
0.05856,-0.10248,0.1464,0.11712,0.08784,-0.01464,-0.05856,0.11224,0.122,0.20008,0.12688,0.11224
0.05856,-0.1098,0.16104,0.13176,0.10248,-0.02196,-0.06832,0.11712,0.13176,0.22448,0.13176,0.10736
0.09272,-0.122,0.15128,0.10492,0.05856,0.01708,-0.08296,0.09272,0.122,0.20496,0.13176,0.10248
0.122,-0.14152,0.16104,0.10004,0.03904,0.04148,-0.08296,0.08296,0.13664,0.20984,0.13176,0.10736
0.10248,-0.13908,0.17568,0.12444,0.0732,0.01464,-0.08296,0.08784,0.15128,0.22936,0.15128,0.12688
0.10248,-0.1342,0.16592,0.11468,0.06344,0.01952,-0.07808,0.08784,0.15616,0.24888,0.1708,0.1464
0.10248,-0.14152,0.18056,0.12932,0.07808,0.0122,-0.08784,0.0976,0.15616,0.244,0.1708,0.13664
0.10736,-0.1464,0.18544,0.13176,0.07808,0.01464,-0.0976,0.10248,0.15616,0.244,0.16104,0.14152
0.10248,-0.13908,0.17568,0.12444,0.0732,0.01464,-0.08784,0.10248,0.16592,0.24888,0.1708,0.15128
0.10248,-0.13664,0.1708,0.11956,0.06832,0.01708,-0.08296,0.10248,0.1708,0.24888,0.1708,0.15128
0.09272,-0.12444,0.15616,0.1098,0.06344,0.01464,-0.08296,0.08296,0.16104,0.23424,0.15128,0.12688
0.07808,-0.1098,0.14152,0.10248,0.06344,0.00732,-0.0732,0.08296,0.1464,0.2196,0.13176,0.11712
0.07808,-0.1098,0.14152,0.10248,0.06344,0.00732,-0.0732,0.09272,0.13664,0.20496,0.11712,0.09272
0.0732,-0.10004,0.12688,0.09028,0.05368,0.00976,-0.05856,0.08784,0.13176,0.18544,0.10248,0.08296
0.05856,-0.09028,0.122,0.09272,0.06344,-0.00244,-0.0488,0.0732,0.122,0.17568,0.08784,0.05856
0.0488,-0.07564,0.10248,0.07808,0.05368,-0.00244,-0.03904,0.0732,0.122,0.15616,0.05856,0.02928
0.03904,-0.06588,0.09272,0.0732,0.05368,-0.00732,-0.01952,0.07808,0.10736,0.1464,0.0488,0.00488
0.0244,-0.04148,0.05856,0.04636,0.03416,-0.00488,-0.00976,0.06832,0.08784,0.122,0.02928,-0.01464
0.03416,-0.0366,0.03904,0.02196,0.00488,0.01464,-0.00976,0.03416,0.06344,0.09272,0,-0.0244
0.01952,-0.0244,0.02928,0.01952,0.00976,0.00488,-0.00488,0.0244,0.05856,0.08784,-0.00488,-0.02928
0.01464,-0.02196,0.02928,0.02196,0.01464,0,-0.00488,0.01464,0.03904,0.08296,-0.0244,-0.04392
0.01952,-0.01708,0.01464,0.00488,-0.00488,0.0122,-0.00488,0,0.01952,0.06832,-0.04392,-0.06832
-0.00488,0.00244,0,0.00244,0.00488,-0.00488,0.00976,0.00976,0.02928,0.06344,-0.03904,-0.05368
-0.00488,0.00732,-0.00976,-0.00732,-0.00488,0,0.01952,0.01464,0.02928,0.05368,-0.03904,-0.05368
-0.0244,0.02196,-0.01952,-0.00732,0.00488,-0.01464,0.02928,-0.00488,0.0244,0.05368,-0.05368,-0.0732
-0.00976,0.01464,-0.01952,-0.01464,-0.00976,0,0.02928,-0.00488,0.01464,0.05368,-0.05856,-0.07808
-0.01464,0.01952,-0.0244,-0.01708,-0.00976,-0.00244,0.01464,0,0.00488,0.03904,-0.05856,-0.08784
-0.01464,0.0244,-0.03416,-0.02684,-0.01952,0.00244,0.01464,-0.00488,0.00488,0.03904,-0.06344,-0.09272
-0.01464,0.02196,-0.02928,-0.02196,-0.01464,0,0.00488,-0.01464,-0.00976,0.0244,-0.06344,-0.0976
-0.01464,0.02196,-0.02928,-0.02196,-0.01464,0,0,-0.01464,-0.01464,0.01952,-0.06832,-0.10248
-0.01952,0.02684,-0.03416,-0.0244,-0.01464,-0.00244,0.01464,-0.01464,-0.00488,0.02928,-0.06832,-0.09272
-0.01952,0.02684,-0.03416,-0.0244,-0.01464,-0.00244,0.01464,-0.01952,-0.00488,0.03416,-0.06344,-0.09272
-0.00976,0.01708,-0.0244,-0.01952,-0.01464,0.00244,0.00488,-0.01952,-0.00488,0.0244,-0.07808,-0.09272
-0.00976,0.0122,-0.01464,-0.00976,-0.00488,-0.00244,0,-0.01952,-0.00488,0.01464,-0.07808,-0.09272
0,0.01464,-0.02928,-0.02928,-0.02928,0.01464,0,-0.0244,-0.00976,0.01464,-0.07808,-0.10736
0,0.00976,-0.01952,-0.01952,-0.01952,0.00976,0,-0.02928,-0.00976,0.0244,-0.0732,-0.10736
-0.01464,0.02196,-0.02928,-0.02196,-0.01464,0,0.00488,-0.01464,-0.00976,0.0244,-0.06832,-0.0976
-0.0244,0.03172,-0.03904,-0.02684,-0.01464,-0.00488,0.00976,-0.01464,-0.00976,0.01952,-0.06832,-0.09272
-0.01464,0.01708,-0.01952,-0.0122,-0.00488,-0.00488,0.00976,-0.0244,-0.01952,0.00976,-0.0732,-0.10736
-0.01464,0.01464,-0.01464,-0.00732,0,-0.00732,0.01464,-0.02928,-0.01952,0.00976,-0.08296,-0.10736
-0.01464,0.02196,-0.02928,-0.02196,-0.01464,0,0.01464,-0.01952,-0.00488,0.0244,-0.07808,-0.08784
-0.01464,0.02684,-0.03904,-0.03172,-0.0244,0.00488,0.01952,-0.01952,0,0.02928,-0.06832,-0.0976
-0.0244,0.02196,-0.01952,-0.00732,0.00488,-0.01464,0.01952,-0.01952,0,0.00976,-0.06832,-0.10248
-0.0244,0.01708,-0.00976,0.00244,0.01464,-0.01952,0.0244,-0.01464,0,0.0244,-0.06832,-0.10248
-0.01464,0.01464,-0.01464,-0.00732,0,-0.00732,0.01952,-0.01952,0,0.01952,-0.0732,-0.10736
-0.01464,0.01708,-0.01952,-0.0122,-0.00488,-0.00488,0.01464,-0.01952,0,0.01952,-0.0732,-0.11224
-0.00976,0.01708,-0.0244,-0.01952,-0.01464,0.00244,0,-0.01952,-0.00976,0.0244,-0.0732,-0.09272
-0.00976,0.01708,-0.0244,-0.01952,-0.01464,0.00244,-0.00488,-0.0244,-0.00976,0.0244,-0.0732,-0.08296
-0.00976,0.02196,-0.03416,-0.02928,-0.0244,0.00732,-0.00488,-0.01952,0,0.0244,-0.07808,-0.08296
-0.00976,0.0244,-0.03904,-0.03416,-0.02928,0.00976,0.00488,-0.01464,0.00488,0.0244,-0.0732,-0.08296
-0.01952,0.0244,-0.02928,-0.01952,-0.00976,-0.00488,0.01464,-0.01464,-0.00488,0.0244,-0.0732,-0.09272
-0.01952,0.01952,-0.01952,-0.00976,0,-0.00976,0.0244,-0.01464,-0.00488,0.00976,-0.0732,-0.10248
-0.00976,0.02196,-0.03416,-0.02928,-0.0244,0.00732,0.0244,-0.00976,0.00488,0.01952,-0.06832,-0.10736
-0.01464,0.01952,-0.0244,-0.01708,-0.00976,-0.00244,0.0244,-0.01464,0.00976,0.0244,-0.06832,-0.10248
-0.0244,0.0244,-0.0244,-0.0122,0,-0.0122,0.01464,-0.01464,0,0.0244,-0.06832,-0.10736
-0.0244,0.02684,-0.02928,-0.01708,-0.00488,-0.00976,0.00488,-0.00976,0,0.02928,-0.06832,-0.10736
-0.02928,0.0244,-0.01952,-0.00488,0.00976,-0.01952,0.01952,-0.00976,0.01464,0.02928,-0.05856,-0.0976
-0.02928,0.01952,-0.00976,0.00488,0.01952,-0.0244,0.01464,-0.00976,0.01464,0.03416,-0.05368,-0.0976
0,0,0,0,0,0,0.01952,-0.00976,0,0.0244,-0.05856,-0.10736
0.00976,0.00244,-0.01464,-0.01952,-0.0244,0.01708,0.0244,-0.00488,0.00976,0.0244,-0.05368,-0.10248
0.00488,0.00488,-0.01464,-0.01708,-0.01952,0.0122,0.0244,-0.00488,0.00488,0.0244,-0.06344,-0.10248
0,0.00732,-0.01464,-0.01464,-0.01464,0.00732,0.0244,-0.00488,0.00488,0.01952,-0.06344,-0.10736
-0.01464,0.01708,-0.01952,-0.0122,-0.00488,-0.00488,0.0244,0,0.01464,0.02928,-0.06344,-0.10736
-0.01464,0.01464,-0.01464,-0.00732,0,-0.00732,0.0244,0,0.01464,0.03416,-0.06832,-0.10736
-0.01464,0.02196,-0.02928,-0.02196,-0.01464,0,0.01952,0,0.00488,0.02928,-0.05368,-0.10736
-0.01464,0.02196,-0.02928,-0.02196,-0.01464,0,0.01952,-0.00488,0.00488,0.0244,-0.05368,-0.11224
-0.01952,0.0244,-0.02928,-0.01952,-0.00976,-0.00488,0.01464,-0.00488,0.01464,0.0244,-0.06344,-0.10736
-0.00976,0.01708,-0.0244,-0.01952,-0.01464,0.00244,0.00976,-0.00976,0.00488,0.0244,-0.06832,-0.11712
0,0.01464,-0.02928,-0.02928,-0.02928,0.01464,0.01464,-0.00488,0.00976,0.0244,-0.05856,-0.11224
-0.00488,0.01464,-0.0244,-0.02196,-0.01952,0.00732,0.00976,-0.00976,0.00976,0.0244,-0.05856,-0.11224
-0.00488,0.01708,-0.02928,-0.02684,-0.0244,0.00976,0.01952,0,0,0.01464,-0.06832,-0.122
-0.00488,0.01464,-0.0244,-0.02196,-0.01952,0.00732,0.01952,0,0,0.01464,-0.07808,-0.12688
0.00976,0.0122,-0.03416,-0.03904,-0.04392,0.02684,0.01464,-0.01464,-0.00976,0.00488,-0.09272,-0.13664
0.00488,0.01708,-0.03904,-0.04148,-0.04392,0.0244,0.01464,-0.01952,-0.01464,-0.00488,-0.09272,-0.13664
-0.01464,0.02928,-0.04392,-0.0366,-0.02928,0.00732,0.01952,-0.01464,-0.00488,0.00488,-0.08296,-0.13176
0.00488,0.01708,-0.03904,-0.04148,-0.04392,0.0244,0.01952,-0.01952,-0.00488,0.00488,-0.08784,-0.12688
-0.01464,0.03172,-0.0488,-0.04148,-0.03416,0.00976,0.02928,-0.01464,-0.00976,0.00488,-0.07808,-0.122
-0.01464,0.03172,-0.0488,-0.04148,-0.03416,0.00976,0.03416,-0.01464,-0.01464,0,-0.07808,-0.12688
-0.00488,0.0244,-0.04392,-0.04148,-0.03904,0.01708,0.02928,-0.00488,-0.00976,0,-0.07808,-0.122
-0.00488,0.02684,-0.0488,-0.04636,-0.04392,0.01952,0.01952,-0.00488,-0.00976,0.00976,-0.07808,-0.122
-0.01464,0.03172,-0.0488,-0.04148,-0.03416,0.00976,0.00976,-0.01952,-0.00976,0,-0.07808,-0.13176
-0.01952,0.02928,-0.03904,-0.02928,-0.01952,0,0.00976,-0.01464,-0.00976,-0.00488,-0.08296,-0.12688
-0.01952,0.03416,-0.0488,-0.03904,-0.02928,0.00488,0,-0.00488,-0.00488,0,-0.08296,-0.12688
-0.01464,0.02684,-0.03904,-0.03172,-0.0244,0.00488,-0.00488,-0.00976,-0.00488,0.00488,-0.08296,-0.12688
-0.01464,0.0366,-0.05856,-0.05124,-0.04392,0.01464,0.00976,-0.00976,-0.00488,0.00488,-0.08296,-0.14152
-0.01464,0.0366,-0.05856,-0.05124,-0.04392,0.01464,0.00976,-0.01464,-0.00488,-0.00488,-0.08296,-0.15128
-0.00488,0.02684,-0.0488,-0.04636,-0.04392,0.01952,0.00976,-0.01464,-0.01464,-0.00976,-0.0976,-0.15616
-0.00488,0.02684,-0.0488,-0.04636,-0.04392,0.01952,0.00976,-0.00976,-0.00976,-0.00976,-0.0976,-0.15616
-0.01464,0.0244,-0.03416,-0.02684,-0.01952,0.00244,0.01952,-0.00976,-0.00976,0,-0.08784,-0.14152
-0.03416,0.03904,-0.04392,-0.02684,-0.00976,-0.0122,0.03416,-0.00976,-0.00976,0.00488,-0.0732,-0.13176
-0.00976,0.0244,-0.03904,-0.03416,-0.02928,0.00976,0.0244,-0.02928,-0.01952,-0.00976,-0.08784,-0.14152
0,0.01952,-0.03904,-0.03904,-0.03904,0.01952,0.01464,-0.01464,-0.01952,-0.00976,-0.0976,-0.14152
-0.00976,0.02928,-0.0488,-0.04392,-0.03904,0.01464,0.01952,-0.01952,-0.0244,-0.01464,-0.08784,-0.13664
-0.00976,0.03172,-0.05368,-0.0488,-0.04392,0.01708,0.01952,-0.01952,-0.0244,-0.01464,-0.08784,-0.13664
-0.00976,0.02928,-0.0488,-0.04392,-0.03904,0.01464,0.01952,-0.02928,-0.01464,-0.01464,-0.09272,-0.1464
-0.00976,0.02928,-0.0488,-0.04392,-0.03904,0.01464,0.01464,-0.02928,-0.01464,-0.01464,-0.09272,-0.1464
-0.00488,0.02196,-0.03904,-0.0366,-0.03416,0.01464,0.01464,-0.03416,-0.0244,-0.01952,-0.10248,-0.16104
-0.00488,0.02928,-0.05368,-0.05124,-0.0488,0.02196,0.01952,-0.02928,-0.0244,-0.01464,-0.10248,-0.16104
-0.00976,0.02928,-0.0488,-0.04392,-0.03904,0.01464,0.01952,-0.02928,-0.0244,-0.01464,-0.09272,-0.15128
-0.01464,0.03172,-0.0488,-0.04148,-0.03416,0.00976,0.01952,-0.02928,-0.0244,-0.01952,-0.0976,-0.15616
-0.00976,0.03172,-0.05368,-0.0488,-0.04392,0.01708,0.00488,-0.01952,-0.02928,-0.02928,-0.10736,-0.15616
-0.00488,0.02928,-0.05368,-0.05124,-0.0488,0.02196,0.00488,-0.0244,-0.02928,-0.02928,-0.10736,-0.15616
-0.01952,0.03416,-0.0488,-0.03904,-0.02928,0.00488,0.01952,-0.01952,-0.0244,-0.01464,-0.09272,-0.15128
-0.01952,0.03416,-0.0488,-0.03904,-0.02928,0.00488,0.03416,-0.01464,-0.0244,-0.01464,-0.09272,-0.15616
-0.00976,0.03416,-0.05856,-0.05368,-0.0488,0.01952,0.02928,-0.02928,-0.02928,-0.01952,-0.0976,-0.15616
-0.01952,0.0366,-0.05368,-0.04392,-0.03416,0.00732,0.02928,-0.03904,-0.0244,-0.01464,-0.0976,-0.15128
-0.00976,0.03172,-0.05368,-0.0488,-0.04392,0.01708,0.01952,-0.02928,-0.03416,-0.0244,-0.10736,-0.16104
-0.00488,0.03172,-0.05856,-0.05612,-0.05368,0.0244,0.00976,-0.01464,-0.03416,-0.03416,-0.10248,-0.16592
-0.01952,0.04636,-0.0732,-0.06344,-0.05368,0.01708,0.02928,-0.01464,-0.0244,-0.0244,-0.10248,-0.15128
-0.01952,0.04636,-0.0732,-0.06344,-0.05368,0.01708,0.03904,-0.00976,-0.0244,-0.01464,-0.10248,-0.15616
-0.01464,0.03904,-0.06344,-0.05612,-0.0488,0.01708,0.04392,-0.0244,-0.0244,-0.01952,-0.10248,-0.16592
-0.01952,0.03416,-0.0488,-0.03904,-0.02928,0.00488,0.04392,-0.03904,-0.0244,-0.03904,-0.10248,-0.16592
-0.00488,0.0244,-0.04392,-0.04148,-0.03904,0.01708,0.04392,-0.01464,-0.01952,-0.02928,-0.09272,-0.15616
-0.00488,0.0244,-0.04392,-0.04148,-0.03904,0.01708,0.0488,0.00976,-0.00488,-0.01464,-0.08784,-0.1464
0.00488,0.01952,-0.04392,-0.04636,-0.0488,0.02684,0.0488,0.01464,0,-0.00488,-0.06832,-0.1464
0.0244,0.00244,-0.02928,-0.04148,-0.05368,0.03904,0.0488,0.01952,0.00488,0,-0.0732,-0.1464
0.02928,0.00732,-0.04392,-0.05856,-0.0732,0.05124,0.06832,0.03904,0.02928,0.00976,-0.05856,-0.13176
0.03416,-0.01708,0,-0.01708,-0.03416,0.03416,0.03904,0.02928,0.00976,0.00488,-0.06832,-0.13176
0.01952,0,-0.01952,-0.02928,-0.03904,0.02928,0.04392,0.0244,0.01464,0,-0.06344,-0.12688
0.01952,0,-0.01952,-0.02928,-0.03904,0.02928,0.03416,0.01464,0.00488,0,-0.0732,-0.12688
0.01952,0,-0.01952,-0.02928,-0.03904,0.02928,0.01952,0.00488,0,-0.00976,-0.07808,-0.12688
0.0244,-0.00732,-0.00976,-0.02196,-0.03416,0.02928,0.00976,-0.01464,-0.00976,-0.00976,-0.07808,-0.12688
0.03416,-0.01464,-0.00488,-0.02196,-0.03904,0.0366,-0.00488,-0.01952,0,0,-0.06344,-0.122
0.04392,-0.02196,0,-0.02196,-0.04392,0.04392,-0.01952,-0.01952,0,0,-0.05856,-0.11224
0.04392,-0.01952,-0.00488,-0.02684,-0.0488,0.04636,-0.01952,-0.02928,-0.00976,0.00488,-0.06344,-0.11712
0.04392,-0.01464,-0.01464,-0.0366,-0.05856,0.05124,-0.00976,-0.0244,-0.00976,-0.00488,-0.06832,-0.122
0.03416,-0.00244,-0.02928,-0.04636,-0.06344,0.0488,0,-0.01952,0,-0.01464,-0.0732,-0.12688
0.01464,0.00732,-0.02928,-0.0366,-0.04392,0.02928,0.00976,-0.00488,0,-0.00976,-0.06344,-0.11712
0.01952,0.00488,-0.02928,-0.03904,-0.0488,0.03416,0.00976,-0.00488,-0.00488,-0.00976,-0.06832,-0.122
0.0244,0.00488,-0.03416,-0.04636,-0.05856,0.04148,0.00488,-0.01464,-0.01464,-0.01464,-0.06832,-0.122
0.0244,0.00488,-0.03416,-0.04636,-0.05856,0.04148,0.00976,-0.03416,-0.01952,-0.0244,-0.0732,-0.13664
0.01464,0.01464,-0.04392,-0.05124,-0.05856,0.0366,0.00976,-0.03904,-0.02928,-0.03904,-0.08296,-0.15128
0.00976,0.02928,-0.06832,-0.0732,-0.07808,0.04392,0.01952,-0.03904,-0.0244,-0.03904,-0.09272,-0.15128
-0.01464,0.05124,-0.08784,-0.08052,-0.0732,0.02928,0.03416,-0.04392,-0.03904,-0.05368,-0.10248,-0.16104
-0.03416,0.05612,-0.07808,-0.061,-0.04392,0.00488,0.03416,-0.04392,-0.03904,-0.06344,-0.11224,-0.16592
-0.03904,0.05612,-0.0732,-0.05368,-0.03416,-0.00244,0.02928,-0.04392,-0.0488,-0.06344,-0.11224,-0.1708
-0.03904,0.05856,-0.07808,-0.05856,-0.03904,0,0.01952,-0.05368,-0.04392,-0.05856,-0.122,-0.1708
-0.03904,0.05368,-0.06832,-0.0488,-0.02928,-0.00488,0.01464,-0.05368,-0.04392,-0.06344,-0.122,-0.1708
-0.03416,0.061,-0.08784,-0.07076,-0.05368,0.00976,0.00976,-0.0488,-0.05368,-0.06344,-0.122,-0.1708
-0.03416,0.06588,-0.0976,-0.08052,-0.06344,0.01464,0.01464,-0.05368,-0.05368,-0.06344,-0.122,-0.1708
-0.03416,0.06344,-0.09272,-0.07564,-0.05856,0.0122,0.0244,-0.04392,-0.05368,-0.07808,-0.11224,-0.17568
-0.03904,0.06344,-0.08784,-0.06832,-0.0488,0.00488,0.01952,-0.0488,-0.05856,-0.07808,-0.11712,-0.17568
-0.0244,0.05368,-0.08296,-0.07076,-0.05856,0.01708,0.01952,-0.0488,-0.06344,-0.0732,-0.11224,-0.16592
-0.03416,0.05856,-0.08296,-0.06588,-0.0488,0.00732,0.01952,-0.0488,-0.0488,-0.06832,-0.11224,-0.16592
-0.03416,0.061,-0.08784,-0.07076,-0.05368,0.00976,0.01952,-0.0488,-0.05368,-0.06832,-0.122,-0.17568
-0.03416,0.06344,-0.09272,-0.07564,-0.05856,0.0122,0.01952,-0.04392,-0.0488,-0.06832,-0.11712,-0.17568
-0.03416,0.06344,-0.09272,-0.07564,-0.05856,0.0122,0.02928,-0.05368,-0.0488,-0.06832,-0.11712,-0.17568
-0.03416,0.061,-0.08784,-0.07076,-0.05368,0.00976,0.02928,-0.05368,-0.0488,-0.06832,-0.11712,-0.17568
-0.03416,0.061,-0.08784,-0.07076,-0.05368,0.00976,0.02928,-0.05368,-0.0488,-0.06832,-0.11712,-0.17568
-0.01952,0.05612,-0.09272,-0.08296,-0.0732,0.02684,0.0244,-0.05368,-0.0488,-0.0732,-0.11712,-0.17568
-0.0244,0.06344,-0.10248,-0.09028,-0.07808,0.02684,0.0244,-0.04392,-0.03904,-0.0732,-0.11712,-0.16592
-0.03904,0.06832,-0.0976,-0.07808,-0.05856,0.00976,0.02928,-0.04392,-0.04392,-0.0732,-0.11712,-0.16592
-0.05368,0.0732,-0.09272,-0.06588,-0.03904,-0.00732,0.05368,-0.04392,-0.03904,-0.06832,-0.10736,-0.16592
-0.05856,0.07564,-0.09272,-0.06344,-0.03416,-0.0122,0.0488,-0.03904,-0.03904,-0.06832,-0.10736,-0.16592
-0.05856,0.07808,-0.0976,-0.06832,-0.03904,-0.00976,0.04392,-0.0488,-0.03904,-0.06832,-0.10736,-0.16592
-0.0244,0.05612,-0.08784,-0.07564,-0.06344,0.01952,0.02928,-0.05368,-0.05368,-0.07808,-0.11224,-0.16104
-0.01464,0.0488,-0.08296,-0.07564,-0.06832,0.02684,0.01952,-0.0488,-0.05368,-0.09272,-0.11224,-0.16592
-0.01464,0.0488,-0.08296,-0.07564,-0.06832,0.02684,0.01952,-0.0488,-0.05368,-0.09272,-0.11224,-0.1708
-0.00976,0.05124,-0.09272,-0.08784,-0.08296,0.0366,0.04392,-0.04392,-0.05368,-0.08296,-0.11224,-0.1708
-0.04392,0.07076,-0.0976,-0.07564,-0.05368,0.00488,0.06344,-0.0244,-0.03416,-0.06832,-0.10248,-0.16104
-0.03904,0.0732,-0.10736,-0.08784,-0.06832,0.01464,0.06344,0,-0.04392,-0.08784,-0.122,-0.18056
-0.01952,0.061,-0.10248,-0.09272,-0.08296,0.03172,0.06832,0.0732,-0.02928,-0.08296,-0.13176,-0.20008
-0.0244,0.05124,-0.07808,-0.06588,-0.05368,0.01464,0.10736,0.1464,0.00976,-0.06344,-0.12688,-0.20008
0.02928,0.01708,-0.06344,-0.07808,-0.09272,0.061,0.10736,0.27816,0.09272,-0.00488,-0.0732,-0.18056
0.08296,-0.0366,-0.00976,-0.05124,-0.09272,0.08784,0.0976,0.2928,0.18056,0.06832,-0.01464,-0.1464
0.08296,-0.08296,0.08296,0.04148,0,0.04148,0.17568,0.47824,0.38552,0.244,0.122,-0.02928
0.20008,-0.20496,0.20984,0.1098,0.00976,0.09516,0.122,0.5612,0.53192,0.39528,0.26352,0.10248
0.29768,-0.32696,0.35624,0.2074,0.05856,0.11956,0,0.59536,0.7564,0.62952,0.488,0.30256
0.33184,-0.42456,0.51728,0.35136,0.18544,0.0732,-0.19032,0.47824,0.854,0.76616,0.63928,0.44408
0.32208,-0.43676,0.55144,0.3904,0.22936,0.04636,-0.33184,0.32208,0.86376,0.81008,0.71736,0.55144
0.26352,-0.41236,0.5612,0.42944,0.29768,-0.01708,-0.51728,-0.122,0.67832,0.75152,0.75152,0.67344
0.1464,-0.31232,0.47824,0.40504,0.33184,-0.09272,-0.67344,-0.69296,0.2684,0.44408,0.5612,0.60024
0.0732,-0.1464,0.2196,0.183,0.1464,-0.0366,-0.71248,-0.98088,-0.10736,0.122,0.31232,0.42456
-0.00488,-0.03416,0.0732,0.07564,0.07808,-0.04148,-0.56608,-0.96624,-0.31232,-0.10248,0.08296,0.22936
-0.03416,0.03172,-0.02928,-0.0122,0.00488,-0.01952,-0.43432,-0.81008,-0.34648,-0.19032,-0.06832,0.0488
-0.03416,0.07808,-0.122,-0.10492,-0.08784,0.02684,-0.31232,-0.5612,-0.30256,-0.20008,-0.122,-0.04392
-0.0488,0.09516,-0.14152,-0.11712,-0.09272,0.02196,-0.16592,-0.366,-0.25864,-0.20496,-0.1464,-0.122
-0.04392,0.08052,-0.11712,-0.09516,-0.0732,0.01464,-0.0732,-0.2196,-0.17568,-0.1708,-0.1464,-0.13664
-0.04392,0.08052,-0.11712,-0.09516,-0.0732,0.01464,-0.03416,-0.1464,-0.11224,-0.13176,-0.13664,-0.1464
-0.01464,0.04636,-0.07808,-0.07076,-0.06344,0.0244,-0.01952,-0.11224,-0.08296,-0.11224,-0.11712,-0.15128
-0.02928,0.05368,-0.07808,-0.06344,-0.0488,0.00976,0.03416,-0.07808,-0.06832,-0.08784,-0.08784,-0.13176
-0.01464,0.04636,-0.07808,-0.07076,-0.06344,0.0244,0.05368,-0.03416,-0.03416,-0.07808,-0.08784,-0.13176
-0.01952,0.05124,-0.08296,-0.0732,-0.06344,0.02196,0.0488,-0.0244,-0.02928,-0.07808,-0.0976,-0.13664
-0.04392,0.05856,-0.0732,-0.05124,-0.02928,-0.00732,0.05368,-0.03904,-0.03904,-0.08296,-0.0976,-0.14152
-0.06344,0.06832,-0.0732,-0.04148,-0.00976,-0.02684,0.05368,-0.02928,-0.04392,-0.08296,-0.09272,-0.14152
-0.05368,0.07076,-0.08784,-0.061,-0.03416,-0.00976,0.06832,-0.01464,-0.0488,-0.08784,-0.10248,-0.15128
-0.02928,0.05612,-0.08296,-0.06832,-0.05368,0.0122,0.06344,-0.01952,-0.0488,-0.08784,-0.11224,-0.15616
-0.03416,0.06344,-0.09272,-0.07564,-0.05856,0.0122,0.06344,-0.00488,-0.03904,-0.08296,-0.10736,-0.1464
-0.03416,0.05856,-0.08296,-0.06588,-0.0488,0.00732,0.06832,-0.00488,-0.03904,-0.07808,-0.0976,-0.1464
-0.03416,0.05368,-0.0732,-0.05612,-0.03904,0.00244,0.06832,-0.00976,-0.05368,-0.08784,-0.10248,-0.15616
-0.03416,0.05124,-0.06832,-0.05124,-0.03416,0,0.06832,-0.00488,-0.0488,-0.08784,-0.10248,-0.16104
-0.04392,0.06832,-0.09272,-0.07076,-0.0488,0.00244,0.0732,0.00488,-0.03904,-0.08784,-0.10248,-0.15616
-0.04392,0.06588,-0.08784,-0.06588,-0.04392,0,0.0732,0.00488,-0.03904,-0.08296,-0.10248,-0.14152
-0.04392,0.05856,-0.0732,-0.05124,-0.02928,-0.00732,0.0732,-0.00488,-0.0488,-0.08784,-0.0976,-0.15128
-0.04392,0.05856,-0.0732,-0.05124,-0.02928,-0.00732,0.06344,0,-0.04392,-0.08784,-0.0976,-0.15128
-0.03904,0.05612,-0.0732,-0.05368,-0.03416,-0.00244,0.05856,0.00976,-0.03416,-0.08784,-0.0976,-0.1464
-0.04392,0.05612,-0.06832,-0.04636,-0.0244,-0.00976,0.05856,0.00488,-0.03416,-0.08296,-0.0976,-0.1464
-0.03416,0.05124,-0.06832,-0.05124,-0.03416,0,0.06832,0,-0.03416,-0.08296,-0.08784,-0.1464
-0.03416,0.0488,-0.06344,-0.04636,-0.02928,-0.00244,0.0732,0,-0.03416,-0.0732,-0.08784,-0.1464
-0.04392,0.05368,-0.06344,-0.04148,-0.01952,-0.0122,0.06344,0,-0.03416,-0.08784,-0.0976,-0.1464
-0.04392,0.05856,-0.0732,-0.05124,-0.02928,-0.00732,0.0732,0.00488,-0.03416,-0.08784,-0.0976,-0.1464
-0.03416,0.05612,-0.07808,-0.061,-0.04392,0.00488,0.07808,0.01464,-0.03904,-0.08784,-0.0976,-0.13664
-0.03416,0.05856,-0.08296,-0.06588,-0.0488,0.00732,0.07808,0.01952,-0.03416,-0.08784,-0.09272,-0.13176
-0.0244,0.04636,-0.06832,-0.05612,-0.04392,0.00976,0.0732,0.00976,-0.03416,-0.08784,-0.0976,-0.14152
-0.03416,0.05368,-0.0732,-0.05612,-0.03904,0.00244,0.0732,0.00976,-0.02928,-0.08784,-0.09272,-0.14152
-0.04392,0.05612,-0.06832,-0.04636,-0.0244,-0.00976,0.06832,0.01464,-0.02928,-0.09272,-0.08296,-0.12688
-0.04392,0.05368,-0.06344,-0.04148,-0.01952,-0.0122,0.06832,0.00976,-0.03416,-0.08784,-0.08296,-0.13176
-0.03904,0.05368,-0.06832,-0.0488,-0.02928,-0.00488,0.06832,0.00976,-0.03416,-0.08784,-0.09272,-0.12688
-0.03904,0.05856,-0.07808,-0.05856,-0.03904,0,0.06832,0.01464,-0.02928,-0.08296,-0.09272,-0.12688
-0.03904,0.05612,-0.0732,-0.05368,-0.03416,-0.00244,0.06344,0.01952,-0.02928,-0.07808,-0.08784,-0.122
-0.03416,0.0488,-0.06344,-0.04636,-0.02928,-0.00244,0.06344,0.0244,-0.03416,-0.07808,-0.08784,-0.122
-0.02928,0.04392,-0.05856,-0.04392,-0.02928,0,0.0732,0.02928,-0.03416,-0.07808,-0.08296,-0.11224
-0.0244,0.04148,-0.05856,-0.04636,-0.03416,0.00488,0.05856,0.02928,-0.03416,-0.07808,-0.08296,-0.10736
-0.03416,0.0488,-0.06344,-0.04636,-0.02928,-0.00244,0.06832,0.03416,-0.02928,-0.07808,-0.06832,-0.10248
-0.03904,0.04636,-0.05368,-0.03416,-0.01464,-0.0122,0.0732,0.05368,-0.01464,-0.06832,-0.06832,-0.10248
-0.0488,0.05124,-0.05368,-0.02928,-0.00488,-0.02196,0.05856,0.0488,-0.00488,-0.05856,-0.06344,-0.09272
-0.04392,0.0488,-0.05368,-0.03172,-0.00976,-0.01708,0.05856,0.05856,-0.00488,-0.05368,-0.05856,-0.08784
-0.03904,0.04636,-0.05368,-0.03416,-0.01464,-0.0122,0.05368,0.0488,-0.00488,-0.06344,-0.05368,-0.09272
-0.00976,0.02684,-0.04392,-0.03904,-0.03416,0.0122,0.04392,0.0488,-0.00976,-0.06832,-0.06344,-0.09272
-0.00488,0.0244,-0.04392,-0.04148,-0.03904,0.01708,0.05368,0.05368,0,-0.05856,-0.05368,-0.08784
-0.00976,0.0244,-0.03904,-0.03416,-0.02928,0.00976,0.05856,0.05856,0.00488,-0.05856,-0.04392,-0.0732
-0.00488,0.0122,-0.01952,-0.01708,-0.01464,0.00488,0.06832,0.0732,0.00976,-0.05368,-0.02928,-0.05856
0,0.00732,-0.01464,-0.01464,-0.01464,0.00732,0.06344,0.08296,0.01952,-0.04392,-0.01952,-0.05856
0,0.00244,-0.00488,-0.00488,-0.00488,0.00244,0.0488,0.09272,0.0244,-0.03416,-0.0244,-0.04392
0.00976,-0.01464,0.01952,0.01464,0.00976,0,0.04392,0.09272,0.0244,-0.0244,-0.01464,-0.02928
0.01464,-0.01708,0.01952,0.0122,0.00488,0.00488,0.02928,0.0976,0.02928,-0.01464,-0.00488,-0.0244
0.0244,-0.03172,0.03904,0.02684,0.01464,0.00488,0.02928,0.0976,0.03904,-0.00976,0.00488,-0.01464
0.03904,-0.04392,0.0488,0.02928,0.00976,0.01464,0.01952,0.0976,0.05856,0.00976,0.01952,0
0.0488,-0.05124,0.05368,0.02928,0.00488,0.02196,0.00976,0.0976,0.05856,0.00976,0.0244,0.00976
0.05368,-0.05612,0.05856,0.03172,0.00488,0.0244,0.00976,0.11712,0.06832,0.03416,0.04392,0.03416
0.05856,-0.06588,0.0732,0.04392,0.01464,0.02196,-0.00488,0.11712,0.08296,0.0488,0.0732,0.04392
0.05368,-0.06832,0.08296,0.05612,0.02928,0.0122,-0.01952,0.122,0.0976,0.06344,0.09272,0.05368
0.05856,-0.07808,0.0976,0.06832,0.03904,0.00976,-0.0244,0.13176,0.10736,0.0732,0.10248,0.0732
0.05856,-0.08296,0.10736,0.07808,0.0488,0.00488,-0.0244,0.122,0.10736,0.06832,0.11224,0.09272
0.06832,-0.0976,0.12688,0.09272,0.05856,0.00488,-0.02928,0.122,0.11712,0.09272,0.12688,0.10248
0.06832,-0.10004,0.13176,0.0976,0.06344,0.00244,-0.02928,0.13664,0.13176,0.10736,0.13664,0.10248
0.0732,-0.10248,0.13176,0.09516,0.05856,0.00732,-0.03416,0.13176,0.13664,0.0976,0.15128,0.11712
0.07808,-0.1098,0.14152,0.10248,0.06344,0.00732,-0.03904,0.13176,0.14152,0.11224,0.15128,0.12688
0.0976,-0.12688,0.15616,0.10736,0.05856,0.01952,-0.0488,0.12688,0.14152,0.11224,0.15128,0.13176
0.09272,-0.12688,0.16104,0.11468,0.06832,0.0122,-0.0488,0.12688,0.15616,0.122,0.18056,0.1464
0.0976,-0.12688,0.15616,0.10736,0.05856,0.01952,-0.05856,0.12688,0.15616,0.12688,0.18056,0.15128
0.0976,-0.12932,0.16104,0.11224,0.06344,0.01708,-0.06832,0.13176,0.15616,0.13664,0.1708,0.15128
0.10736,-0.13664,0.16592,0.11224,0.05856,0.0244,-0.06832,0.13176,0.15616,0.14152,0.1708,0.15128
0.10248,-0.13176,0.16104,0.1098,0.05856,0.02196,-0.05856,0.122,0.1708,0.12688,0.16592,0.15128
0.09272,-0.122,0.15128,0.10492,0.05856,0.01708,-0.03904,0.11224,0.16592,0.122,0.1464,0.12688
0.09272,-0.11468,0.13664,0.09028,0.04392,0.0244,-0.03416,0.122,0.15616,0.10248,0.14152,0.11224
0.08296,-0.10004,0.11712,0.07564,0.03416,0.0244,-0.01464,0.122,0.1464,0.09272,0.12688,0.0976
0.0732,-0.09028,0.10736,0.07076,0.03416,0.01952,-0.01952,0.11712,0.122,0.0732,0.10248,0.08296
0.05368,-0.0732,0.09272,0.06588,0.03904,0.00732,-0.00488,0.10248,0.10248,0.05856,0.08296,0.04392
0.04392,-0.05612,0.06832,0.04636,0.0244,0.00976,0,0.10248,0.10248,0.0488,0.07808,0.04392
0.03416,-0.04148,0.0488,0.03172,0.01464,0.00976,0,0.09272,0.09272,0.02928,0.05856,0.01952
0.03416,-0.03172,0.02928,0.0122,-0.00488,0.01952,0.01952,0.07808,0.06832,-0.00976,0.0244,0
0.02928,-0.02928,0.02928,0.01464,0,0.01464,0.01952,0.05856,0.0488,-0.01464,0.00488,-0.00976
0.00488,-0.00976,0.01464,0.0122,0.00976,-0.00244,0.0244,0.05856,0.03904,-0.01952,0,-0.01952
0.00976,-0.00244,-0.00488,-0.00976,-0.01464,0.0122,0.0244,0.04392,0.03416,-0.03904,-0.01464,-0.0488
-0.00488,0.00488,-0.00488,-0.00244,0,-0.00244,0.01952,0.02928,0.01952,-0.0488,-0.01464,-0.0488
-0.00488,0.0122,-0.01952,-0.01708,-0.01464,0.00488,0.01952,0.0244,0.01464,-0.05368,-0.0244,-0.04392
-0.00976,0.0122,-0.01464,-0.00976,-0.00488,-0.00244,0.03904,0.01464,0.00488,-0.06344,-0.03904,-0.0488
-0.00976,0.01464,-0.01952,-0.01464,-0.00976,0,0.03904,0.01464,0,-0.06344,-0.04392,-0.05856
-0.0244,0.02928,-0.03416,-0.02196,-0.00976,-0.00732,0.04392,0.0244,0.00488,-0.06832,-0.03904,-0.05856
-0.0244,0.03172,-0.03904,-0.02684,-0.01464,-0.00488,0.04392,0.01464,0.00488,-0.06344,-0.04392,-0.06344
-0.0244,0.03416,-0.04392,-0.03172,-0.01952,-0.00244,0.04392,0.01464,0.00488,-0.0732,-0.04392,-0.06832
-0.0244,0.03172,-0.03904,-0.02684,-0.01464,-0.00488,0.03904,0.01464,0,-0.06832,-0.0488,-0.0732
-0.01952,0.02928,-0.03904,-0.02928,-0.01952,0,0.03416,0.00488,-0.01464,-0.07808,-0.05856,-0.0732
-0.01952,0.03172,-0.04392,-0.03416,-0.0244,0.00244,0.03416,0,-0.01464,-0.08296,-0.05368,-0.0732
-0.01952,0.0366,-0.05368,-0.04392,-0.03416,0.00732,0.03416,0,-0.01464,-0.08296,-0.05368,-0.06344
-0.01952,0.0366,-0.05368,-0.04392,-0.03416,0.00732,0.02928,0,-0.01464,-0.08784,-0.05856,-0.06344
-0.01952,0.03416,-0.0488,-0.03904,-0.02928,0.00488,0.01952,0,-0.01952,-0.09272,-0.05856,-0.0732
-0.01952,0.03172,-0.04392,-0.03416,-0.0244,0.00244,0.01952,-0.00488,-0.01952,-0.08784,-0.05368,-0.07808
-0.01952,0.02928,-0.03904,-0.02928,-0.01952,0,0.02928,0,-0.00976,-0.0732,-0.0488,-0.06832
-0.0244,0.03172,-0.03904,-0.02684,-0.01464,-0.00488,0.04392,0.00488,-0.00976,-0.0732,-0.0488,-0.06832
-0.0244,0.0366,-0.0488,-0.0366,-0.0244,0,0.0488,0.00488,-0.00976,-0.0732,-0.0488,-0.05856
-0.0244,0.03904,-0.05368,-0.04148,-0.02928,0.00244,0.0488,0.00488,-0.00976,-0.07808,-0.04392,-0.05368
-0.03416,0.04636,-0.05856,-0.04148,-0.0244,-0.00488,0.0488,-0.00976,-0.01464,-0.08784,-0.0488,-0.04392
-0.03416,0.04636,-0.05856,-0.04148,-0.0244,-0.00488,0.02928,-0.00976,-0.01952,-0.07808,-0.0488,-0.06344
-0.03416,0.03904,-0.04392,-0.02684,-0.00976,-0.0122,0.02928,-0.00976,-0.01952,-0.0976,-0.0488,-0.06832
-0.04392,0.04392,-0.04392,-0.02196,0,-0.02196,0.03416,-0.00976,-0.01952,-0.08784,-0.0488,-0.06344
-0.03416,0.03416,-0.03416,-0.01708,0,-0.01708,0.0488,-0.00488,-0.01952,-0.07808,-0.0488,-0.06344
-0.03416,0.03416,-0.03416,-0.01708,0,-0.01708,0.0488,-0.00976,-0.01952,-0.07808,-0.04392,-0.05368
-0.03416,0.03172,-0.02928,-0.0122,0.00488,-0.01952,0.03416,-0.00976,-0.00976,-0.06832,-0.04392,-0.05368
-0.02928,0.02684,-0.0244,-0.00976,0.00488,-0.01708,0.02928,-0.00976,-0.00976,-0.0732,-0.04392,-0.05368
-0.01952,0.02196,-0.0244,-0.01464,-0.00488,-0.00732,0.03416,-0.01464,-0.01952,-0.06344,-0.04392,-0.05856
-0.01952,0.0244,-0.02928,-0.01952,-0.00976,-0.00488,0.04392,-0.00976,-0.01464,-0.0732,-0.0488,-0.05368
-0.01952,0.02684,-0.03416,-0.0244,-0.01464,-0.00244,0.03904,0.00488,-0.00488,-0.06344,-0.03416,-0.04392
-0.02928,0.03172,-0.03416,-0.01952,-0.00488,-0.0122,0.02928,0.00488,-0.00488,-0.06344,-0.03416,-0.04392
-0.00976,0.02684,-0.04392,-0.03904,-0.03416,0.0122,0.01464,-0.00488,-0.01464,-0.07808,-0.04392,-0.06344
-0.01464,0.0244,-0.03416,-0.02684,-0.01952,0.00244,0.01464,0,-0.01464,-0.06832,-0.03904,-0.05368
-0.01464,0.0244,-0.03416,-0.02684,-0.01952,0.00244,0.0244,-0.00488,-0.00976,-0.06344,-0.03904,-0.04392
-0.01464,0.0244,-0.03416,-0.02684,-0.01952,0.00244,0.0244,0,-0.00976,-0.06344,-0.03904,-0.0488
-0.01952,0.02928,-0.03904,-0.02928,-0.01952,0,0.02928,0.00976,0.00488,-0.05856,-0.02928,-0.03904
-0.01952,0.02928,-0.03904,-0.02928,-0.01952,0,0.04392,0.00976,0.00488,-0.05368,-0.0244,-0.03904
0,0.00976,-0.01952,-0.01952,-0.01952,0.00976,0.02928,0,-0.00976,-0.05856,-0.02928,-0.04392
-0.00976,0.01952,-0.02928,-0.0244,-0.01952,0.00488,0.03416,0,-0.00488,-0.06832,-0.0244,-0.0488
-0.01464,0.02196,-0.02928,-0.02196,-0.01464,0,0.0244,0.00488,-0.00976,-0.06344,-0.03416,-0.04392
-0.00976,0.01464,-0.01952,-0.01464,-0.00976,0,0.0244,0.00488,-0.01464,-0.06344,-0.03416,-0.0488
0,0.00976,-0.01952,-0.01952,-0.01952,0.00976,0.0244,0.00488,-0.00488,-0.06832,-0.0244,-0.0488
-0.00488,0.0122,-0.01952,-0.01708,-0.01464,0.00488,0.0244,0,-0.00488,-0.0732,-0.02928,-0.0488
-0.00488,0.02196,-0.03904,-0.0366,-0.03416,0.01464,0.02928,0.01952,-0.00488,-0.05856,-0.0244,-0.03904
-0.00488,0.02196,-0.03904,-0.0366,-0.03416,0.01464,0.02928,0.01952,-0.00488,-0.05856,-0.0244,-0.04392
-0.00976,0.01952,-0.02928,-0.0244,-0.01952,0.00488,0.03416,0.01464,-0.00488,-0.06344,-0.03416,-0.03904
0,0.01464,-0.02928,-0.02928,-0.02928,0.01464,0.02928,0.01464,-0.01464,-0.06344,-0.03904,-0.0488
-0.00976,0.01708,-0.0244,-0.01952,-0.01464,0.00244,0.03416,0.00976,0,-0.06344,-0.02928,-0.0488
-0.01464,0.02684,-0.03904,-0.03172,-0.0244,0.00488,0.03416,0.01464,0,-0.06344,-0.02928,-0.04392
-0.00488,0.01952,-0.03416,-0.03172,-0.02928,0.0122,0.02928,0,-0.00976,-0.0732,-0.02928,-0.05368
-0.00488,0.02196,-0.03904,-0.0366,-0.03416,0.01464,0.02928,0,-0.00976,-0.0732,-0.02928,-0.05856
-0.01464,0.02928,-0.04392,-0.0366,-0.02928,0.00732,0.01464,0.00976,-0.00976,-0.06344,-0.03416,-0.0488
-0.00976,0.02928,-0.0488,-0.04392,-0.03904,0.01464,0.01464,0.00488,-0.00976,-0.06344,-0.03416,-0.0488
-0.0244,0.03172,-0.03904,-0.02684,-0.01464,-0.00488,0.01952,0.01952,-0.01464,-0.06344,-0.03416,-0.0488
-0.0244,0.02928,-0.03416,-0.02196,-0.00976,-0.00732,0.01952,0.01464,-0.0244,-0.06832,-0.03904,-0.05368
-0.01952,0.01952,-0.01952,-0.00976,0,-0.00976,0.0244,0.00488,-0.02928,-0.0732,-0.03904,-0.05856
-0.00976,0.01952,-0.02928,-0.0244,-0.01952,0.00488,0.02928,0,-0.02928,-0.0732,-0.03904,-0.05368
-0.01464,0.02684,-0.03904,-0.03172,-0.0244,0.00488,0.03416,0.00488,-0.0244,-0.07808,-0.03904,-0.05856
-0.01464,0.03172,-0.0488,-0.04148,-0.03416,0.00976,0.03904,0.00488,-0.01952,-0.0732,-0.03904,-0.05368
-0.01464,0.03172,-0.0488,-0.04148,-0.03416,0.00976,0.02928,0.01464,-0.01464,-0.05856,-0.03904,-0.05368
-0.01464,0.03172,-0.0488,-0.04148,-0.03416,0.00976,0.02928,0.00976,-0.01952,-0.06832,-0.03904,-0.0488
-0.00976,0.03416,-0.05856,-0.05368,-0.0488,0.01952,0.01952,0.00976,-0.02928,-0.08296,-0.04392,-0.05856
-0.00488,0.02684,-0.0488,-0.04636,-0.04392,0.01952,0.01952,0,-0.0244,-0.0732,-0.04392,-0.05856
-0.00976,0.0244,-0.03904,-0.03416,-0.02928,0.00976,0.0244,-0.00976,-0.0244,-0.0732,-0.04392,-0.05856
-0.01952,0.03416,-0.0488,-0.03904,-0.02928,0.00488,0.02928,-0.00976,-0.0244,-0.07808,-0.04392,-0.06344
-0.01464,0.03172,-0.0488,-0.04148,-0.03416,0.00976,0.02928,-0.00488,-0.0244,-0.08296,-0.0488,-0.05368
-0.01464,0.03172,-0.0488,-0.04148,-0.03416,0.00976,0.02928,-0.00488,-0.03416,-0.07808,-0.0488,-0.05856
-0.01464,0.03416,-0.05368,-0.04636,-0.03904,0.0122,0.02928,0,-0.01952,-0.06832,-0.03904,-0.05368
-0.01464,0.03904,-0.06344,-0.05612,-0.0488,0.01708,0.02928,0,-0.01952,-0.06832,-0.03416,-0.05368
-0.0244,0.03904,-0.05368,-0.04148,-0.02928,0.00244,0.0244,-0.01464,-0.02928,-0.0732,-0.04392,-0.06344
-0.01952,0.03172,-0.04392,-0.03416,-0.0244,0.00244,0.0244,-0.01952,-0.02928,-0.07808,-0.0488,-0.06344
-0.01952,0.03416,-0.0488,-0.03904,-0.02928,0.00488,0.03416,-0.00488,-0.02928,-0.0732,-0.03904,-0.05368
-0.01952,0.0366,-0.05368,-0.04392,-0.03416,0.00732,0.02928,-0.00976,-0.03416,-0.0732,-0.03904,-0.05856
-0.00976,0.02928,-0.0488,-0.04392,-0.03904,0.01464,0.01952,0,-0.03416,-0.08296,-0.03904,-0.05856
-0.00976,0.02928,-0.0488,-0.04392,-0.03904,0.01464,0.01952,0,-0.03416,-0.08296,-0.04392,-0.05856
-0.01464,0.03172,-0.0488,-0.04148,-0.03416,0.00976,0.0244,-0.00488,-0.03416,-0.08784,-0.04392,-0.0488
-0.02928,0.04148,-0.05368,-0.03904,-0.0244,-0.00244,0.02928,-0.00488,-0.03416,-0.08784,-0.04392,-0.05368
-0.03416,0.0488,-0.06344,-0.04636,-0.02928,-0.00244,0.03904,-0.00976,-0.0244,-0.0732,-0.04392,-0.05368
-0.0244,0.04148,-0.05856,-0.04636,-0.03416,0.00488,0.03904,-0.00976,-0.0244,-0.07808,-0.04392,-0.05856
-0.02928,0.04392,-0.05856,-0.04392,-0.02928,0,0.03904,-0.00976,-0.0244,-0.07808,-0.0488,-0.0488
-0.0244,0.03904,-0.05368,-0.04148,-0.02928,0.00244,0.03416,-0.00976,-0.02928,-0.07808,-0.0488,-0.0488
-0.0244,0.03904,-0.05368,-0.04148,-0.02928,0.00244,0.0244,-0.01464,-0.03416,-0.08784,-0.0488,-0.05368
-0.02928,0.04392,-0.05856,-0.04392,-0.02928,0,0.02928,-0.00488,-0.03416,-0.08296,-0.04392,-0.05856
-0.01952,0.03904,-0.05856,-0.0488,-0.03904,0.00976,0.03416,-0.00976,-0.03904,-0.0732,-0.0488,-0.06832
-0.02928,0.04148,-0.05368,-0.03904,-0.0244,-0.00244,0.02928,-0.00976,-0.03904,-0.07808,-0.0488,-0.06832
-0.03416,0.04392,-0.05368,-0.0366,-0.01952,-0.00732,0.03904,0,-0.02928,-0.06344,-0.03904,-0.05368
-0.03904,0.04636,-0.05368,-0.03416,-0.01464,-0.0122,0.03904,0.00488,-0.01952,-0.06344,-0.03416,-0.05856
-0.03904,0.0488,-0.05856,-0.03904,-0.01952,-0.00976,0.03416,0,-0.02928,-0.07808,-0.0488,-0.06832
-0.01952,0.04148,-0.06344,-0.05368,-0.04392,0.0122,0.0244,-0.00976,-0.03904,-0.08784,-0.05856,-0.06344
-0.01952,0.04636,-0.0732,-0.06344,-0.05368,0.01708,0.02928,0,-0.03416,-0.08296,-0.05368,-0.06344
-0.01464,0.03904,-0.06344,-0.05612,-0.0488,0.01708,0.03904,-0.00976,-0.03416,-0.07808,-0.05368,-0.05368
-0.02928,0.03904,-0.0488,-0.03416,-0.01952,-0.00488,0.03416,-0.00976,-0.04392,-0.08784,-0.05368,-0.05856
-0.01464,0.02684,-0.03904,-0.03172,-0.0244,0.00488,0.03904,0,-0.02928,-0.08296,-0.0488,-0.05856
-0.01952,0.0366,-0.05368,-0.04392,-0.03416,0.00732,0.02928,0.00976,-0.01464,-0.0732,-0.03904,-0.0488
0,0.02684,-0.05368,-0.05368,-0.05368,0.02684,0.02928,0.00488,-0.0244,-0.07808,-0.04392,-0.0488
0,0.02196,-0.04392,-0.04392,-0.04392,0.02196,0.02928,0.02928,-0.00488,-0.05856,-0.0244,-0.03416
0.00488,0.01464,-0.03416,-0.0366,-0.03904,0.02196,0.03904,0.0488,0.00976,-0.03904,-0.00976,-0.0244
0.00976,0,-0.00976,-0.01464,-0.01952,0.01464,0.05856,0.0488,0.01952,-0.03904,-0.00976,-0.01952
0.01952,0,-0.01952,-0.02928,-0.03904,0.02928,0.05856,0.0488,0.00976,-0.03904,-0.00976,-0.01952
0.01952,0,-0.01952,-0.02928,-0.03904,0.02928,0.05856,0.0488,0.00976,-0.03904,-0.00976,-0.01952
0.00976,0.00976,-0.02928,-0.03416,-0.03904,0.0244,0.0488,0.02928,0,-0.0488,-0.01952,-0.02928
0.00976,0.00976,-0.02928,-0.03416,-0.03904,0.0244,0.03904,0.01952,-0.00976,-0.05856,-0.02928,-0.02928
0.00488,0.0122,-0.02928,-0.03172,-0.03416,0.01952,0.01952,0.00976,-0.00976,-0.05856,-0.01952,-0.02928
0.00488,0.00488,-0.01464,-0.01708,-0.01952,0.0122,0,0,0,-0.05856,-0.01464,-0.0244
0.01464,-0.00244,-0.00976,-0.01708,-0.0244,0.01952,-0.00488,0,-0.00976,-0.0488,0,-0.00488
0.00488,0.00488,-0.01464,-0.01708,-0.01952,0.0122,0,0,-0.00976,-0.03904,0.00488,0
0.01464,0,-0.01464,-0.02196,-0.02928,0.02196,0,-0.00488,-0.00976,-0.0488,-0.00976,-0.00488
0.0244,0.00244,-0.02928,-0.04148,-0.05368,0.03904,0,-0.00488,-0.00976,-0.05856,-0.01952,-0.01952
0.01464,0.00244,-0.01952,-0.02684,-0.03416,0.0244,0,-0.00976,-0.01952,-0.06344,-0.02928,-0.01952
0.02928,-0.00488,-0.01952,-0.03416,-0.0488,0.03904,0,-0.00976,-0.03416,-0.05856,-0.02928,-0.03416
0.0244,-0.00488,-0.01464,-0.02684,-0.03904,0.03172,0.00488,0,-0.03416,-0.06344,-0.01952,-0.0244
0.00488,0.00976,-0.0244,-0.02684,-0.02928,0.01708,0.00976,-0.00488,-0.01952,-0.06344,-0.0244,-0.02928
-0.00488,0.0244,-0.04392,-0.04148,-0.03904,0.01708,0.00976,0,-0.02928,-0.06832,-0.0244,-0.03416
-0.00488,0.03416,-0.06344,-0.061,-0.05856,0.02684,0.00488,-0.00488,-0.03416,-0.06832,-0.03416,-0.03416
-0.01952,0.04636,-0.0732,-0.06344,-0.05368,0.01708,0.00976,-0.02928,-0.0488,-0.09272,-0.05368,-0.05368
-0.03416,0.05124,-0.06832,-0.05124,-0.03416,0,0.00976,-0.03416,-0.0488,-0.09272,-0.06344,-0.05856
-0.0488,0.061,-0.0732,-0.0488,-0.0244,-0.0122,0.01464,-0.04392,-0.05856,-0.10248,-0.06344,-0.0732
-0.0488,0.06588,-0.08296,-0.05856,-0.03416,-0.00732,0.01952,-0.04392,-0.05368,-0.0976,-0.06344,-0.0732
-0.0488,0.07076,-0.09272,-0.06832,-0.04392,-0.00244,0.0244,-0.03416,-0.06344,-0.09272,-0.05368,-0.06344
-0.05368,0.07808,-0.10248,-0.07564,-0.0488,-0.00244,0.02928,-0.02928,-0.06344,-0.09272,-0.05368,-0.05368
-0.04392,0.06832,-0.09272,-0.07076,-0.0488,0.00244,0.0244,-0.04392,-0.06344,-0.10248,-0.06344,-0.06344
-0.04392,0.06832,-0.09272,-0.07076,-0.0488,0.00244,0.01464,-0.04392,-0.06344,-0.10736,-0.06344,-0.06832
-0.0488,0.06832,-0.08784,-0.06344,-0.03904,-0.00488,0.00976,-0.0488,-0.06832,-0.10736,-0.06832,-0.07808
-0.03416,0.06344,-0.09272,-0.07564,-0.05856,0.0122,0.00976,-0.0488,-0.07808,-0.11224,-0.0732,-0.07808
-0.05368,0.0732,-0.09272,-0.06588,-0.03904,-0.00732,0.01952,-0.0488,-0.06344,-0.0976,-0.0732,-0.06832
-0.05368,0.07076,-0.08784,-0.061,-0.03416,-0.00976,0.01952,-0.0488,-0.06344,-0.0976,-0.0732,-0.06832
-0.05368,0.0732,-0.09272,-0.06588,-0.03904,-0.00732,0.01952,-0.05368,-0.05856,-0.0976,-0.06832,-0.06832
-0.05368,0.0732,-0.09272,-0.06588,-0.03904,-0.00732,0.01952,-0.05368,-0.05856,-0.0976,-0.06832,-0.06832
-0.05368,0.06588,-0.07808,-0.05124,-0.0244,-0.01464,0.02928,-0.04392,-0.06832,-0.0976,-0.06832,-0.05856
-0.06344,0.07076,-0.07808,-0.04636,-0.01464,-0.0244,0.02928,-0.04392,-0.06832,-0.0976,-0.06832,-0.05856
-0.0488,0.07076,-0.09272,-0.06832,-0.04392,-0.00244,0.0244,-0.04392,-0.05856,-0.10248,-0.05856,-0.06832
-0.0488,0.07076,-0.09272,-0.06832,-0.04392,-0.00244,0.0244,-0.04392,-0.05856,-0.10248,-0.05856,-0.06832
-0.05368,0.07564,-0.0976,-0.07076,-0.04392,-0.00488,0.02928,-0.03416,-0.06344,-0.10248,-0.06832,-0.05856
-0.05856,0.07564,-0.09272,-0.06344,-0.03416,-0.0122,0.04392,-0.03416,-0.05856,-0.0976,-0.06832,-0.05856
-0.05368,0.06832,-0.08296,-0.05612,-0.02928,-0.0122,0.03904,-0.03904,-0.06832,-0.0976,-0.05856,-0.06832
-0.06832,0.07808,-0.08784,-0.05368,-0.01952,-0.0244,0.03904,-0.03904,-0.06344,-0.09272,-0.05368,-0.06832
-0.05368,0.06588,-0.07808,-0.05124,-0.0244,-0.01464,0.0244,-0.03416,-0.06832,-0.09272,-0.05856,-0.06344
-0.05368,0.06832,-0.08296,-0.05612,-0.02928,-0.0122,0.02928,-0.02928,-0.06344,-0.09272,-0.06344,-0.05856
-0.05368,0.0732,-0.09272,-0.06588,-0.03904,-0.00732,0.02928,-0.02928,-0.05368,-0.08296,-0.05368,-0.05368
-0.0488,0.07076,-0.09272,-0.06832,-0.04392,-0.00244,0.0244,-0.0244,-0.05368,-0.08296,-0.05368,-0.05368
-0.03416,0.06588,-0.0976,-0.08052,-0.06344,0.01464,0.03416,-0.00488,-0.04392,-0.07808,-0.05368,-0.06344
-0.03904,0.0732,-0.10736,-0.08784,-0.06832,0.01464,0.04392,0.00976,-0.06344,-0.10736,-0.0732,-0.09272
-0.02928,0.06588,-0.10248,-0.08784,-0.0732,0.02196,0.06832,0.06344,-0.05856,-0.11224,-0.09272,-0.10248
-0.0244,0.04148,-0.05856,-0.04636,-0.03416,0.00488,0.0976,0.15616,-0.00976,-0.08296,-0.07808,-0.09272
0.02928,0.00244,-0.03416,-0.0488,-0.06344,0.04636,0.10736,0.24888,0.0732,-0.0244,-0.03416,-0.08296
0.05368,-0.02684,0,-0.02684,-0.05368,0.05368,0.11712,0.28304,0.18056,0.06832,0.04392,-0.02928
0.08296,-0.10736,0.13176,0.09028,0.0488,0.01708,0.15616,0.44896,0.33672,0.21472,0.1708,0.08784
0.18056,-0.20008,0.2196,0.12932,0.03904,0.07076,0.08296,0.50264,0.50264,0.39528,0.33184,0.22936
0.30744,-0.34648,0.38552,0.2318,0.07808,0.11468,-0.06832,0.55632,0.7076,0.61976,0.55632,0.41968
0.3904,-0.44408,0.49776,0.30256,0.10736,0.14152,-0.25864,0.44896,0.78568,0.72712,0.67832,0.55144
0.36112,-0.44164,0.52216,0.3416,0.16104,0.10004,-0.42944,0.22448,0.74664,0.75152,0.74664,0.66856
0.27328,-0.41236,0.55144,0.4148,0.27816,-0.00244,-0.59536,-0.20008,0.5612,0.67344,0.75152,0.77104
0.15616,-0.2684,0.38064,0.30256,0.22448,-0.03416,-0.71248,-0.70272,0.18056,0.37576,0.5612,0.66856
0.08296,-0.15128,0.2196,0.17812,0.13664,-0.02684,-0.71248,-0.96136,-0.1464,0.0732,0.32208,0.49288
0.01464,-0.0488,0.08296,0.07564,0.06832,-0.02684,-0.57584,-0.96624,-0.31232,-0.122,0.11224,0.30744
-0.00488,0.01708,-0.02928,-0.02684,-0.0244,0.00976,-0.47336,-0.76128,-0.3172,-0.1708,-0.00976,0.16592
-0.0244,0.06832,-0.11224,-0.10004,-0.08784,0.03172,-0.28304,-0.52216,-0.2928,-0.20008,-0.06344,0.05368
-0.06832,0.09516,-0.122,-0.08784,-0.05368,-0.00732,-0.12688,-0.33672,-0.24888,-0.1952,-0.07808,-0.00488
-0.04392,0.07564,-0.10736,-0.0854,-0.06344,0.00976,-0.09272,-0.20984,-0.18544,-0.1708,-0.08784,-0.02928
-0.04392,0.07564,-0.10736,-0.0854,-0.06344,0.00976,-0.05368,-0.11712,-0.10248,-0.11224,-0.07808,-0.03904
-0.0732,0.07564,-0.07808,-0.04148,-0.00488,-0.03416,0,-0.0732,-0.06344,-0.0732,-0.0488,-0.03416
-0.03904,0.0488,-0.05856,-0.03904,-0.01952,-0.00976,0.0244,-0.07808,-0.07808,-0.08784,-0.0488,-0.04392
-0.05856,0.06344,-0.06832,-0.03904,-0.00976,-0.0244,0.03416,-0.02928,-0.06344,-0.08784,-0.0488,-0.03416
-0.05368,0.06344,-0.0732,-0.04636,-0.01952,-0.01708,0.02928,-0.02928,-0.05856,-0.08784,-0.05856,-0.03904
-0.06832,0.07076,-0.0732,-0.03904,-0.00488,-0.03172,0.0488,-0.02928,-0.05368,-0.07808,-0.05368,-0.03416
-0.07808,0.07564,-0.0732,-0.03416,0.00488,-0.04148,0.05856,-0.01952,-0.0488,-0.06832,-0.03904,-0.03416
-0.06344,0.07076,-0.07808,-0.04636,-0.01464,-0.0244,0.05856,-0.01464,-0.05856,-0.0732,-0.03904,-0.04392
-0.03904,0.05612,-0.0732,-0.05368,-0.03416,-0.00244,0.05368,-0.01952,-0.05856,-0.08296,-0.05856,-0.0488
-0.04392,0.05856,-0.0732,-0.05124,-0.02928,-0.00732,0.05368,-0.0244,-0.05856,-0.08296,-0.06344,-0.0488
-0.04392,0.05368,-0.06344,-0.04148,-0.01952,-0.0122,0.05856,-0.0244,-0.05856,-0.07808,-0.06344,-0.0488
-0.04392,0.0488,-0.05368,-0.03172,-0.00976,-0.01708,0.0488,-0.01952,-0.06344,-0.08784,-0.06344,-0.0488
-0.04392,0.04636,-0.0488,-0.02684,-0.00488,-0.01952,0.0488,-0.01464,-0.05856,-0.08784,-0.06344,-0.05368
-0.05368,0.061,-0.06832,-0.04148,-0.01464,-0.01952,0.05368,-0.00488,-0.0488,-0.07808,-0.05368,-0.05368
-0.05368,0.06344,-0.0732,-0.04636,-0.01952,-0.01708,0.05368,-0.00488,-0.0488,-0.0732,-0.05368,-0.0488
-0.05368,0.06832,-0.08296,-0.05612,-0.02928,-0.0122,0.05856,-0.00488,-0.05856,-0.07808,-0.0488,-0.04392
-0.05368,0.06832,-0.08296,-0.05612,-0.02928,-0.0122,0.05856,0,-0.05368,-0.07808,-0.0488,-0.04392
-0.0488,0.06588,-0.08296,-0.05856,-0.03416,-0.00732,0.06832,0.00976,-0.05368,-0.07808,-0.0488,-0.0488
-0.05368,0.06588,-0.07808,-0.05124,-0.0244,-0.01464,0.06832,0.00488,-0.05368,-0.0732,-0.0488,-0.0488
-0.04392,0.05856,-0.0732,-0.05124,-0.02928,-0.00732,0.06832,0,-0.06344,-0.07808,-0.05856,-0.03904
-0.04392,0.05124,-0.05856,-0.0366,-0.01464,-0.01464,0.0732,0,-0.06344,-0.07808,-0.05856,-0.03904
-0.0488,0.04636,-0.04392,-0.01952,0.00488,-0.02684,0.05368,0,-0.05368,-0.07808,-0.0488,-0.0488
-0.05856,0.05612,-0.05368,-0.0244,0.00488,-0.03172,0.06344,0.00488,-0.05368,-0.07808,-0.0488,-0.0488
-0.05856,0.05856,-0.05856,-0.02928,0,-0.02928,0.05856,0.00488,-0.05856,-0.07808,-0.0488,-0.0488
-0.0488,0.05612,-0.06344,-0.03904,-0.01464,-0.01708,0.05856,0.00976,-0.05368,-0.07808,-0.04392,-0.04392
-0.04392,0.05612,-0.06832,-0.04636,-0.0244,-0.00976,0.0732,0.01464,-0.04392,-0.0732,-0.0488,-0.03416
-0.05368,0.06344,-0.0732,-0.04636,-0.01952,-0.01708,0.0732,0.0244,-0.03904,-0.06344,-0.04392,-0.03416
-0.05368,0.05612,-0.05856,-0.03172,-0.00488,-0.0244,0.06832,0.03416,-0.03904,-0.0732,-0.04392,-0.02928
-0.05368,0.05368,-0.05368,-0.02684,0,-0.02684,0.06832,0.02928,-0.04392,-0.06832,-0.04392,-0.03416
-0.0488,0.05612,-0.06344,-0.03904,-0.01464,-0.01708,0.06832,0.0244,-0.05368,-0.06832,-0.04392,-0.02928
-0.0488,0.05612,-0.06344,-0.03904,-0.01464,-0.01708,0.06832,0.01952,-0.0488,-0.06344,-0.04392,-0.02928
-0.03904,0.0488,-0.05856,-0.03904,-0.01952,-0.00976,0.0732,0.01952,-0.03904,-0.05856,-0.0488,-0.0244
-0.03416,0.04636,-0.05856,-0.04148,-0.0244,-0.00488,0.0732,0.0244,-0.04392,-0.05856,-0.0488,-0.0244
-0.03904,0.0488,-0.05856,-0.03904,-0.01952,-0.00976,0.06344,0.03904,-0.03416,-0.06344,-0.03416,-0.0244
-0.03416,0.04636,-0.05856,-0.04148,-0.0244,-0.00488,0.0488,0.03904,-0.03416,-0.05368,-0.03416,-0.01952
-0.03416,0.03904,-0.04392,-0.02684,-0.00976,-0.0122,0.05856,0.03904,-0.04392,-0.05368,-0.02928,-0.01464
-0.03904,0.0366,-0.03416,-0.01464,0.00488,-0.02196,0.06344,0.0488,-0.03904,-0.05368,-0.02928,-0.01464
-0.02928,0.03172,-0.03416,-0.01952,-0.00488,-0.0122,0.0488,0.0488,-0.0244,-0.0488,-0.0244,-0.01464
-0.0244,0.02928,-0.03416,-0.02196,-0.00976,-0.00732,0.0488,0.05856,-0.0244,-0.04392,-0.01952,-0.00976
-0.02928,0.03172,-0.03416,-0.01952,-0.00488,-0.0122,0.0488,0.05856,-0.01952,-0.04392,-0.00976,0
-0.01952,0.02196,-0.0244,-0.01464,-0.00488,-0.00732,0.0488,0.05856,-0.01464,-0.02928,-0.00976,0.00976
-0.01952,0.01708,-0.01464,-0.00488,0.00488,-0.0122,0.0488,0.06344,-0.00976,-0.02928,-0.00488,0.00976
-0.01464,0.0122,-0.00976,-0.00244,0.00488,-0.00976,0.04392,0.06832,-0.00488,-0.02928,0.00488,0.0244
-0.0244,0.00732,0.00976,0.02196,0.03416,-0.02928,0.03904,0.0732,0,-0.01952,0.01952,0.0488
-0.01952,0.00244,0.01464,0.0244,0.03416,-0.02684,0.03416,0.08296,0.00976,-0.01952,0.02928,0.0488
0,-0.0122,0.0244,0.0244,0.0244,-0.0122,0.03904,0.08296,0.00488,-0.01464,0.0244,0.04392
0.00976,-0.02928,0.0488,0.04392,0.03904,-0.01464,0.03416,0.08296,0.00488,-0.00488,0.03416,0.05856
0.0244,-0.0366,0.0488,0.0366,0.0244,0,0.02928,0.08784,0.01952,0.01464,0.04392,0.06344
0.03416,-0.05124,0.06832,0.05124,0.03416,0,0.02928,0.08784,0.02928,0.01952,0.05368,0.0732
0.03904,-0.05368,0.06832,0.0488,0.02928,0.00488,0.01952,0.10736,0.0488,0.04392,0.07808,0.0976
0.0488,-0.061,0.0732,0.0488,0.0244,0.0122,0.00976,0.10736,0.0488,0.05368,0.08296,0.10736
0.04392,-0.06344,0.08296,0.061,0.03904,0.00244,0.00976,0.11712,0.06832,0.0732,0.10736,0.13176
0.0488,-0.07808,0.10736,0.08296,0.05856,-0.00488,-0.00488,0.11712,0.08296,0.08784,0.12688,0.14152
0.05368,-0.08784,0.122,0.09516,0.06832,-0.00732,-0.00976,0.122,0.07808,0.09272,0.13176,0.1464
0.05856,-0.0976,0.13664,0.10736,0.07808,-0.00976,-0.01464,0.13176,0.08784,0.10248,0.14152,0.15616
0.05856,-0.09272,0.12688,0.0976,0.06832,-0.00488,-0.02928,0.14152,0.10736,0.10736,0.15128,0.17568
