i,aVR,ii,aVF,iii,aVL,V1,V2,V3,V4,V5,V6
-0.07808,0.09272,-0.10736,-0.06832,-0.02928,-0.0244,0.0488,-0.06832,-0.06832,-0.08784,-0.08784,-0.06832
-0.08296,0.09516,-0.10736,-0.06588,-0.0244,-0.02928,0.05368,-0.06344,-0.06344,-0.08784,-0.08784,-0.06832
-0.08784,0.0976,-0.10736,-0.06344,-0.01952,-0.03416,0.05856,-0.05856,-0.05856,-0.08784,-0.08784,-0.06832
-0.08784,0.0976,-0.10736,-0.06344,-0.01952,-0.03416,0.05856,-0.05856,-0.05856,-0.08784,-0.08784,-0.06832
-0.08784,0.0976,-0.10736,-0.06344,-0.01952,-0.03416,0.05856,-0.05856,-0.05856,-0.08784,-0.08784,-0.06832
-0.08784,0.0976,-0.10736,-0.06344,-0.01952,-0.03416,0.05856,-0.05856,-0.05856,-0.08784,-0.08784,-0.06832
-0.08784,0.0976,-0.10736,-0.06344,-0.01952,-0.03416,0.05856,-0.05856,-0.05856,-0.08784,-0.08784,-0.06832
-0.08296,0.09516,-0.10736,-0.06588,-0.0244,-0.02928,0.05856,-0.05856,-0.05856,-0.08784,-0.08784,-0.06832
-0.07808,0.09272,-0.10736,-0.06832,-0.02928,-0.0244,0.05856,-0.05856,-0.05856,-0.08784,-0.08784,-0.06832
-0.07808,0.09272,-0.10736,-0.06832,-0.02928,-0.0244,0.06344,-0.05856,-0.05368,-0.08296,-0.08296,-0.06344
-0.07808,0.09272,-0.10736,-0.06832,-0.02928,-0.0244,0.06832,-0.05856,-0.0488,-0.07808,-0.07808,-0.05856
-0.07808,0.08784,-0.0976,-0.05856,-0.01952,-0.02928,0.0732,-0.05368,-0.04392,-0.0732,-0.0732,-0.05368
-0.07808,0.08052,-0.08296,-0.04392,-0.00488,-0.0366,0.08296,-0.04392,-0.03416,-0.06344,-0.06832,-0.0488
-0.07808,0.07564,-0.0732,-0.03416,0.00488,-0.04148,0.09272,-0.03416,-0.02928,-0.05856,-0.06344,-0.04392
-0.06344,0.06344,-0.06344,-0.03172,0,-0.03172,0.09272,-0.02928,-0.02928,-0.05368,-0.05856,-0.04392
-0.05368,0.05612,-0.05856,-0.03172,-0.00488,-0.0244,0.09272,-0.01952,-0.02928,-0.0488,-0.05856,-0.03904
-0.05368,0.05612,-0.05856,-0.03172,-0.00488,-0.0244,0.10736,-0.00488,-0.0244,-0.0488,-0.0488,-0.03904
-0.05368,0.05612,-0.05856,-0.03172,-0.00488,-0.0244,0.0976,-0.00488,-0.01952,-0.04392,-0.0488,-0.03416
-0.05368,0.05368,-0.05368,-0.02684,0,-0.02684,0.09272,-0.00488,-0.01952,-0.04392,-0.0488,-0.03416
-0.02928,0.04148,-0.05368,-0.03904,-0.0244,-0.00244,0.08296,-0.01464,-0.01952,-0.0488,-0.05368,-0.03416
-0.00488,0.0366,-0.06832,-0.06588,-0.06344,0.02928,0.06344,-0.0244,-0.0244,-0.0488,-0.05368,-0.03416
-0.0244,0.05368,-0.08296,-0.07076,-0.05856,0.01708,0.06344,-0.03416,-0.03904,-0.06344,-0.05856,-0.03904
-0.04392,0.06832,-0.09272,-0.07076,-0.0488,0.00244,0.05368,-0.05368,-0.0488,-0.06832,-0.06344,-0.04392
-0.04392,0.06588,-0.08784,-0.06588,-0.04392,0,0.0488,-0.05368,-0.0488,-0.0732,-0.06832,-0.04392
-0.04392,0.06588,-0.08784,-0.06588,-0.04392,0,0.05368,-0.0488,-0.0488,-0.0732,-0.0732,-0.03904
-0.0488,0.061,-0.0732,-0.0488,-0.0244,-0.0122,0.06344,-0.03904,-0.03904,-0.06344,-0.05856,-0.03904
-0.0488,0.061,-0.0732,-0.0488,-0.0244,-0.0122,0.06832,-0.02928,-0.03904,-0.06344,-0.05856,-0.03904
-0.0488,0.05368,-0.05856,-0.03416,-0.00976,-0.01952,0.06832,-0.03904,-0.04392,-0.05856,-0.05368,-0.03904
-0.03904,0.04636,-0.05368,-0.03416,-0.01464,-0.0122,0.06832,-0.0488,-0.04392,-0.05856,-0.0488,-0.03904
-0.03904,0.061,-0.08296,-0.06344,-0.04392,0.00244,0.06832,-0.0488,-0.0488,-0.06344,-0.05856,-0.04392
-0.04392,0.07076,-0.0976,-0.07564,-0.05368,0.00488,0.06832,-0.05856,-0.05856,-0.06344,-0.06344,-0.04392
-0.05368,0.07076,-0.08784,-0.061,-0.03416,-0.00976,0.06832,-0.05856,-0.06344,-0.0732,-0.06832,-0.0488
-0.06344,0.08052,-0.0976,-0.06588,-0.03416,-0.01464,0.0732,-0.05856,-0.06344,-0.0732,-0.06832,-0.05368
-0.0732,0.0854,-0.0976,-0.061,-0.0244,-0.0244,0.07808,-0.05856,-0.06344,-0.06832,-0.06832,-0.05368
-0.07808,0.08784,-0.0976,-0.05856,-0.01952,-0.02928,0.08296,-0.05368,-0.06344,-0.0732,-0.06832,-0.0488
-0.08784,0.10004,-0.11224,-0.06832,-0.0244,-0.03172,0.07808,-0.06344,-0.0732,-0.08296,-0.07808,-0.05856
-0.0976,0.10736,-0.11712,-0.06832,-0.01952,-0.03904,0.07808,-0.0732,-0.08296,-0.08784,-0.08296,-0.06344
-0.08784,0.10492,-0.122,-0.07808,-0.03416,-0.02684,0.07808,-0.08296,-0.08296,-0.09272,-0.08296,-0.06832
-0.08296,0.10248,-0.122,-0.08052,-0.03904,-0.02196,0.07808,-0.08784,-0.08296,-0.0976,-0.08296,-0.0732
-0.08296,0.10004,-0.11712,-0.07564,-0.03416,-0.0244,0.07808,-0.08784,-0.08784,-0.10248,-0.08296,-0.07808
-0.08784,0.10248,-0.11712,-0.0732,-0.02928,-0.02928,0.07808,-0.08296,-0.08784,-0.10248,-0.08296,-0.07808
-0.0976,0.10736,-0.11712,-0.06832,-0.01952,-0.03904,0.08784,-0.08296,-0.08296,-0.10248,-0.08296,-0.0732
-0.10736,0.11468,-0.122,-0.06832,-0.01464,-0.04636,0.09272,-0.08296,-0.08296,-0.10248,-0.08784,-0.0732
-0.0976,0.10736,-0.11712,-0.06832,-0.01952,-0.03904,0.09272,-0.08296,-0.08784,-0.10248,-0.08784,-0.0732
-0.0976,0.10492,-0.11224,-0.06344,-0.01464,-0.04148,0.0976,-0.07808,-0.09272,-0.0976,-0.08784,-0.0732
-0.09272,0.10248,-0.11224,-0.06588,-0.01952,-0.0366,0.10248,-0.0732,-0.08784,-0.0976,-0.08784,-0.0732
-0.08296,0.10004,-0.11712,-0.07564,-0.03416,-0.0244,0.10248,-0.0732,-0.08784,-0.0976,-0.09272,-0.0732
-0.09272,0.10248,-0.11224,-0.06588,-0.01952,-0.0366,0.10248,-0.06832,-0.08296,-0.0976,-0.09272,-0.0732
-0.09272,0.10004,-0.10736,-0.061,-0.01464,-0.03904,0.10248,-0.06832,-0.07808,-0.0976,-0.09272,-0.0732
-0.09272,0.10004,-0.10736,-0.061,-0.01464,-0.03904,0.10248,-0.06832,-0.07808,-0.0976,-0.09272,-0.0732
-0.0976,0.10492,-0.11224,-0.06344,-0.01464,-0.04148,0.11224,-0.06832,-0.07808,-0.10248,-0.10248,-0.08296
-0.08784,0.11956,-0.15128,-0.10736,-0.06344,-0.0122,0.13176,-0.03904,-0.08784,-0.12688,-0.12688,-0.11224
-0.07808,0.12688,-0.17568,-0.13664,-0.0976,0.00976,0.1708,0,-0.09272,-0.14152,-0.1464,-0.13664
-0.11712,0.14396,-0.1708,-0.11224,-0.05368,-0.03172,0.1952,0.0732,-0.04392,-0.11224,-0.13664,-0.13176
-0.13176,0.13176,-0.13176,-0.06588,0,-0.06588,0.20984,0.1464,0.05368,-0.0244,-0.0732,-0.08784
-0.05856,0.04148,-0.0244,0.00488,0.03416,-0.04636,0.17568,0.20496,0.1952,0.13176,0.06832,0.03416
0.05368,-0.09516,0.13664,0.1098,0.08296,-0.01464,0.10736,0.1464,0.37088,0.35624,0.2928,0.23912
0.22448,-0.305,0.38552,0.27328,0.16104,0.03172,-0.08784,-0.15128,0.56608,0.67344,0.62464,0.53192
0.49288,-0.5978,0.70272,0.45628,0.20984,0.14152,-0.35624,-0.47336,0.83448,1.07848,1.0492,0.92232
0.81496,-0.91744,1.01992,0.61244,0.20496,0.305,-0.59048,-0.5856,1.1956,1.54208,1.49816,1.30784
0.98576,-1.16388,1.342,0.84912,0.35624,0.31476,-0.80032,-0.69784,1.42008,1.86416,1.83,1.62992
1.0004,-1.15412,1.30784,0.80764,0.30744,0.34648,-0.95648,-0.74664,1.22488,1.72264,1.7568,1.61528
0.9028,-0.93696,0.97112,0.51972,0.06832,0.41724,-1.11752,-0.854,0.71248,1.22488,1.342,1.28832
0.64416,-0.6588,0.67344,0.35136,0.02928,0.30744,-1.22,-1.14192,0.13664,0.62464,0.84912,0.9028
0.35136,-0.43188,0.5124,0.33672,0.16104,0.09516,-1.1712,-1.41032,-0.33184,0.11224,0.42944,0.59048
0.0244,-0.2074,0.3904,0.3782,0.366,-0.1708,-0.87352,-1.37616,-0.57096,-0.22936,0.10736,0.31232
-0.10736,-0.10004,0.30744,0.36112,0.4148,-0.26108,-0.62464,-1.08824,-0.54656,-0.32696,-0.03904,0.13176
-0.08784,-0.09028,0.2684,0.31232,0.35624,-0.22204,-0.38552,-0.72224,-0.32696,-0.18056,-0.00976,0.11224
-0.0732,-0.05856,0.19032,0.22692,0.26352,-0.16836,-0.2196,-0.46848,-0.17568,-0.08296,0.0244,0.10736
-0.01464,-0.05612,0.12688,0.1342,0.14152,-0.07808,-0.16592,-0.31232,-0.12688,-0.0488,0.02928,0.07808
0.06344,-0.06832,0.0732,0.04148,0.00976,0.02684,-0.11224,-0.1952,-0.10248,-0.0488,0.00976,0.03904
0.04392,-0.02928,0.01464,-0.00732,-0.02928,0.0366,0.00488,-0.09272,-0.05856,-0.02928,0.00488,0.01464
0.00488,0.01464,-0.03416,-0.0366,-0.03904,0.02196,0.08296,-0.03904,-0.01464,-0.01952,0,0.00488
-0.01464,0.02928,-0.04392,-0.0366,-0.02928,0.00732,0.0976,-0.00488,-0.00488,-0.01464,0.00488,0.00976
-0.0244,0.03904,-0.05368,-0.04148,-0.02928,0.00244,0.11712,0.02928,0.00488,-0.01464,0.00488,0.00488
-0.03416,0.04392,-0.05368,-0.0366,-0.01952,-0.00732,0.13176,0.02928,-0.00976,-0.0244,-0.01952,-0.01952
-0.03904,0.05368,-0.06832,-0.0488,-0.02928,-0.00488,0.15128,0.02928,-0.01952,-0.0244,-0.02928,-0.02928
-0.04392,0.05856,-0.0732,-0.05124,-0.02928,-0.00732,0.15616,0.05856,-0.00976,-0.01952,-0.0244,-0.02928
-0.04392,0.05856,-0.0732,-0.05124,-0.02928,-0.00732,0.16104,0.07808,-0.00488,-0.01952,-0.0244,-0.03416
-0.05368,0.06588,-0.07808,-0.05124,-0.0244,-0.01464,0.1708,0.08784,-0.00488,-0.01952,-0.02928,-0.03416
-0.06832,0.0732,-0.07808,-0.04392,-0.00976,-0.02928,0.18544,0.08784,0,-0.01952,-0.02928,-0.03416
-0.0488,0.061,-0.0732,-0.0488,-0.0244,-0.0122,0.18544,0.08784,0,-0.0244,-0.03416,-0.03904
-0.0244,0.0488,-0.0732,-0.061,-0.0488,0.0122,0.18544,0.09272,0,-0.0244,-0.03904,-0.04392
-0.0244,0.05124,-0.07808,-0.06588,-0.05368,0.01464,0.19032,0.10248,0.00976,-0.0244,-0.03416,-0.03904
-0.01952,0.0488,-0.07808,-0.06832,-0.05856,0.01952,0.1952,0.10248,0.00976,-0.0244,-0.03416,-0.03904
-0.0244,0.05124,-0.07808,-0.06588,-0.05368,0.01464,0.1952,0.10736,0.00976,-0.01464,-0.03416,-0.03416
-0.02928,0.05368,-0.07808,-0.06344,-0.0488,0.00976,0.1952,0.11712,0.00976,-0.00976,-0.03416,-0.02928
-0.0244,0.05124,-0.07808,-0.06588,-0.05368,0.01464,0.1952,0.122,0.00976,-0.00976,-0.03416,-0.02928
-0.0244,0.0488,-0.0732,-0.061,-0.0488,0.0122,0.1952,0.13176,0.01952,-0.00488,-0.03416,-0.02928
-0.02928,0.05368,-0.07808,-0.06344,-0.0488,0.00976,0.20008,0.13176,0.0244,0.00488,-0.0244,-0.0244
-0.0244,0.05368,-0.08296,-0.07076,-0.05856,0.01708,0.20008,0.13176,0.02928,0.00976,-0.01952,-0.01464
-0.03904,0.061,-0.08296,-0.06344,-0.04392,0.00244,0.20496,0.14152,0.02928,0.00976,-0.01952,-0.01464
-0.05368,0.06832,-0.08296,-0.05612,-0.02928,-0.0122,0.20984,0.1464,0.02928,0.01464,-0.01952,-0.01464
-0.04392,0.061,-0.07808,-0.05612,-0.03416,-0.00488,0.20984,0.15128,0.03416,0.01952,-0.01464,-0.01464
-0.03416,0.05124,-0.06832,-0.05124,-0.03416,0,0.20984,0.15616,0.03416,0.01952,-0.00976,-0.01464
-0.01464,0.04148,-0.06832,-0.061,-0.05368,0.01952,0.20984,0.15128,0.03416,0.00976,-0.01464,-0.01952
0.00488,0.02928,-0.06344,-0.06588,-0.06832,0.0366,0.20496,0.14152,0.02928,-0.00488,-0.01952,-0.0244
0.00976,0.02684,-0.06344,-0.06832,-0.0732,0.04148,0.20496,0.14152,0.02928,-0.00488,-0.01952,-0.0244
0.00976,0.02684,-0.06344,-0.06832,-0.0732,0.04148,0.20984,0.14152,0.02928,0,-0.01952,-0.01952
0,0.03172,-0.06344,-0.06344,-0.06344,0.03172,0.20984,0.15616,0.03416,0.00976,-0.01952,-0.01464
-0.00488,0.03416,-0.06344,-0.061,-0.05856,0.02684,0.21472,0.1708,0.03416,0.01464,-0.01464,-0.01464
0,0.02928,-0.05856,-0.05856,-0.05856,0.02928,0.21472,0.17568,0.03904,0.01464,-0.01464,-0.01464
0,0.02928,-0.05856,-0.05856,-0.05856,0.02928,0.21472,0.17568,0.03904,0.01464,-0.01464,-0.01464
0,0.02928,-0.05856,-0.05856,-0.05856,0.02928,0.21472,0.18056,0.03904,0.01952,-0.00488,-0.00976
0,0.02928,-0.05856,-0.05856,-0.05856,0.02928,0.21472,0.18056,0.03904,0.02928,0,-0.00488
0,0.02684,-0.05368,-0.05368,-0.05368,0.02684,0.21472,0.18056,0.03904,0.02928,0,-0.00488
-0.00488,0.02684,-0.0488,-0.04636,-0.04392,0.01952,0.21472,0.18544,0.0488,0.03416,0.00976,0.00488
0.00976,0.01952,-0.0488,-0.05368,-0.05856,0.03416,0.22448,0.19032,0.04392,0.03416,0.00488,0
0.0244,0.0122,-0.0488,-0.061,-0.0732,0.0488,0.22936,0.1952,0.04392,0.02928,0,0
0.01952,0.01464,-0.0488,-0.05856,-0.06832,0.04392,0.22936,0.1952,0.04392,0.02928,0,0
0.0244,0.00976,-0.04392,-0.05612,-0.06832,0.04636,0.22936,0.1952,0.04392,0.02928,0,0
0.0244,0.00976,-0.04392,-0.05612,-0.06832,0.04636,0.22448,0.1952,0.0488,0.03416,0.00488,0
0.0244,0.00732,-0.03904,-0.05124,-0.06344,0.04392,0.22448,0.20008,0.05368,0.03416,0.00488,0
0.01952,0.00732,-0.03416,-0.04392,-0.05368,0.0366,0.22448,0.21472,0.05856,0.03416,0.00976,0.00976
0.01952,0.00488,-0.02928,-0.03904,-0.0488,0.03416,0.22936,0.22448,0.05856,0.03904,0.00976,0.00976
0.0244,0.00244,-0.02928,-0.04148,-0.05368,0.03904,0.23424,0.23424,0.06344,0.04392,0.01464,0.01464
0.02928,0,-0.02928,-0.04392,-0.05856,0.04392,0.244,0.23912,0.06344,0.0488,0.01952,0.01952
0.02928,-0.00244,-0.0244,-0.03904,-0.05368,0.04148,0.24888,0.24888,0.06832,0.05856,0.03416,0.01952
0.02928,-0.00732,-0.01464,-0.02928,-0.04392,0.0366,0.25864,0.25864,0.07808,0.06344,0.04392,0.0244
0.02928,-0.00732,-0.01464,-0.02928,-0.04392,0.0366,0.26352,0.2684,0.08296,0.06832,0.0488,0.03416
0.03904,-0.01708,-0.00488,-0.0244,-0.04392,0.04148,0.26352,0.27328,0.08296,0.0732,0.05368,0.03416
0.05368,-0.03172,0.00976,-0.01708,-0.04392,0.0488,0.26352,0.28304,0.08784,0.0732,0.05368,0.04392
0.06344,-0.04148,0.01952,-0.0122,-0.04392,0.05368,0.26352,0.28792,0.09272,0.07808,0.05856,0.04392
0.06832,-0.05124,0.03416,0,-0.03416,0.05124,0.2684,0.2928,0.0976,0.07808,0.06344,0.0488
0.06832,-0.05368,0.03904,0.00488,-0.02928,0.0488,0.27816,0.30744,0.11224,0.09272,0.07808,0.06344
0.06832,-0.06344,0.05856,0.0244,-0.00976,0.03904,0.28792,0.32208,0.12688,0.10248,0.09272,0.07808
0.07808,-0.07564,0.0732,0.03416,-0.00488,0.04148,0.28792,0.32696,0.13664,0.11224,0.10248,0.0976
0.0976,-0.09516,0.09272,0.04392,-0.00488,0.05124,0.2928,0.3416,0.1464,0.13176,0.122,0.10736
0.10248,-0.10736,0.11224,0.061,0.00976,0.04636,0.2928,0.35136,0.15616,0.15128,0.13176,0.122
0.11224,-0.11468,0.11712,0.061,0.00488,0.05368,0.2928,0.35624,0.15616,0.16104,0.14152,0.13664
0.122,-0.12932,0.13664,0.07564,0.01464,0.05368,0.2928,0.36112,0.16592,0.18056,0.16104,0.1464
0.15128,-0.1586,0.16592,0.09028,0.01464,0.06832,0.28792,0.37088,0.18056,0.19032,0.19032,0.1708
0.20008,-0.1952,0.19032,0.09028,-0.00976,0.10492,0.28304,0.37576,0.18056,0.20008,0.20008,0.19032
0.20008,-0.20252,0.20496,0.10492,0.00488,0.0976,0.27328,0.38064,0.19032,0.21472,0.20984,0.20496
0.20984,-0.21472,0.2196,0.11468,0.00976,0.10004,0.26352,0.38064,0.20008,0.22448,0.22936,0.22448
0.2196,-0.22936,0.23912,0.12932,0.01952,0.10004,0.25864,0.37576,0.21472,0.25376,0.26352,0.25376
0.23912,-0.24644,0.25376,0.1342,0.01464,0.11224,0.23912,0.366,0.22448,0.27328,0.28304,0.27816
0.24888,-0.26352,0.27816,0.15372,0.02928,0.1098,0.2196,0.36112,0.22448,0.28304,0.30256,0.2928
0.2684,-0.27572,0.28304,0.14884,0.01464,0.12688,0.19032,0.35136,0.22936,0.2928,0.30744,0.30744
0.27328,-0.28304,0.2928,0.15616,0.01952,0.12688,0.1708,0.3416,0.23424,0.30256,0.32696,0.3172
0.27816,-0.28792,0.29768,0.1586,0.01952,0.12932,0.1464,0.32696,0.23912,0.31232,0.33672,0.33184
0.30256,-0.30012,0.29768,0.1464,-0.00488,0.15372,0.11712,0.31232,0.23424,0.31232,0.33672,0.33672
0.2928,-0.2928,0.2928,0.1464,0,0.1464,0.10248,0.29768,0.22936,0.31232,0.33184,0.33672
0.27816,-0.2806,0.28304,0.14396,0.00488,0.13664,0.08784,0.27816,0.22448,0.30256,0.32696,0.33184
0.25864,-0.26108,0.26352,0.1342,0.00488,0.12688,0.08296,0.25864,0.2196,0.28792,0.31232,0.31232
0.24888,-0.24644,0.244,0.11956,-0.00488,0.12688,0.08296,0.22936,0.20008,0.2684,0.28304,0.28792
0.21472,-0.21472,0.21472,0.10736,0,0.10736,0.08296,0.20496,0.18056,0.244,0.26352,0.25376
0.18544,-0.19032,0.1952,0.10248,0.00976,0.08784,0.08296,0.18056,0.16104,0.21472,0.22448,0.23424
0.15128,-0.1586,0.16592,0.09028,0.01464,0.06832,0.08784,0.1464,0.13176,0.1708,0.18056,0.20008
0.12688,-0.12688,0.12688,0.06344,0,0.06344,0.10736,0.122,0.11224,0.14152,0.15128,0.16104
0.11224,-0.10248,0.09272,0.0366,-0.01952,0.06588,0.11712,0.10248,0.08296,0.10248,0.11224,0.11712
0.0732,-0.06832,0.06344,0.02684,-0.00976,0.04148,0.12688,0.08296,0.05856,0.07808,0.08296,0.08784
0.04392,-0.04392,0.04392,0.02196,0,0.02196,0.13176,0.05856,0.03416,0.05368,0.05856,0.05856
0.00976,-0.01708,0.0244,0.01952,0.01464,-0.00244,0.14152,0.04392,0.00976,0.02928,0.03904,0.03904
-0.01952,0.00732,0.00488,0.01464,0.0244,-0.02196,0.15128,0.03416,-0.00488,0.00488,0.01464,0.01952
-0.00976,0.0122,-0.01464,-0.00976,-0.00488,-0.00244,0.15616,0.0244,-0.01464,-0.00488,-0.00488,0
-0.00976,0.01952,-0.02928,-0.0244,-0.01952,0.00488,0.16104,0.01952,-0.0244,-0.01464,-0.0244,-0.01952
-0.05368,0.04636,-0.03904,-0.0122,0.01464,-0.03416,0.1708,0.00488,-0.02928,-0.0244,-0.03416,-0.0244
-0.08784,0.06832,-0.0488,-0.00488,0.03904,-0.06344,0.18056,-0.00488,-0.03416,-0.03416,-0.04392,-0.03416
-0.07808,0.06832,-0.05856,-0.01952,0.01952,-0.0488,0.18056,-0.00488,-0.04392,-0.03904,-0.0488,-0.03904
-0.05856,0.061,-0.06344,-0.03416,-0.00488,-0.02684,0.18056,-0.01464,-0.05368,-0.04392,-0.05368,-0.04392
-0.0488,0.061,-0.0732,-0.0488,-0.0244,-0.0122,0.17568,-0.01952,-0.06344,-0.06344,-0.06344,-0.05856
-0.03904,0.061,-0.08296,-0.06344,-0.04392,0.00244,0.1708,-0.0244,-0.06832,-0.07808,-0.07808,-0.06832
-0.06344,0.07564,-0.08784,-0.05612,-0.0244,-0.01952,0.1708,-0.02928,-0.0732,-0.08296,-0.07808,-0.06832
-0.07808,0.08296,-0.08784,-0.0488,-0.00976,-0.03416,0.17568,-0.02928,-0.07808,-0.08784,-0.07808,-0.06832
-0.08784,0.09272,-0.0976,-0.05368,-0.00976,-0.03904,0.17568,-0.02928,-0.07808,-0.08784,-0.08784,-0.0732
-0.09272,0.09516,-0.0976,-0.05124,-0.00488,-0.04392,0.18056,-0.02928,-0.07808,-0.08296,-0.08784,-0.0732
-0.08784,0.09272,-0.0976,-0.05368,-0.00976,-0.03904,0.18056,-0.03416,-0.08296,-0.08784,-0.08784,-0.0732
-0.07808,0.09028,-0.10248,-0.06344,-0.0244,-0.02684,0.18056,-0.03904,-0.08784,-0.09272,-0.08784,-0.0732
-0.07808,0.09028,-0.10248,-0.06344,-0.0244,-0.02684,0.18056,-0.03904,-0.09272,-0.0976,-0.09272,-0.08296
-0.08784,0.09516,-0.10248,-0.05856,-0.01464,-0.0366,0.18056,-0.03904,-0.09272,-0.0976,-0.09272,-0.08784
-0.09272,0.09516,-0.0976,-0.05124,-0.00488,-0.04392,0.18056,-0.03904,-0.09272,-0.09272,-0.09272,-0.08784
-0.09272,0.09272,-0.09272,-0.04636,0,-0.04636,0.18056,-0.03904,-0.0976,-0.09272,-0.09272,-0.08784
-0.0976,0.09516,-0.09272,-0.04392,0.00488,-0.05124,0.18056,-0.04392,-0.09272,-0.09272,-0.0976,-0.08296
-0.10736,0.10248,-0.0976,-0.04392,0.00976,-0.05856,0.18056,-0.04392,-0.08784,-0.09272,-0.0976,-0.08296
-0.10736,0.10492,-0.10248,-0.0488,0.00488,-0.05612,0.18544,-0.04392,-0.08784,-0.09272,-0.0976,-0.08296
-0.10736,0.10492,-0.10248,-0.0488,0.00488,-0.05612,0.18544,-0.04392,-0.09272,-0.10248,-0.0976,-0.08784
-0.10248,0.10248,-0.10248,-0.05124,0,-0.05124,0.18544,-0.04392,-0.09272,-0.10248,-0.10248,-0.08784
-0.0976,0.10004,-0.10248,-0.05368,-0.00488,-0.04636,0.18544,-0.04392,-0.09272,-0.10248,-0.10736,-0.08784
-0.08784,0.0976,-0.10736,-0.06344,-0.01952,-0.03416,0.18544,-0.04392,-0.09272,-0.0976,-0.10736,-0.08784
-0.08296,0.09516,-0.10736,-0.06588,-0.0244,-0.02928,0.18544,-0.03904,-0.09272,-0.0976,-0.10736,-0.08296
-0.08784,0.09516,-0.10248,-0.05856,-0.01464,-0.0366,0.18544,-0.03904,-0.09272,-0.09272,-0.10736,-0.08296
-0.08784,0.09516,-0.10248,-0.05856,-0.01464,-0.0366,0.18544,-0.03904,-0.09272,-0.08784,-0.10248,-0.08296
-0.09272,0.0976,-0.10248,-0.05612,-0.00976,-0.04148,0.19032,-0.03416,-0.08784,-0.08784,-0.0976,-0.08296
-0.09272,0.0976,-0.10248,-0.05612,-0.00976,-0.04148,0.19032,-0.03416,-0.08784,-0.08784,-0.0976,-0.08296
-0.09272,0.10004,-0.10736,-0.061,-0.01464,-0.03904,0.1952,-0.02928,-0.08784,-0.08784,-0.09272,-0.0732
-0.09272,0.10004,-0.10736,-0.061,-0.01464,-0.03904,0.1952,-0.0244,-0.08784,-0.08784,-0.09272,-0.0732
-0.07808,0.09028,-0.10248,-0.06344,-0.0244,-0.02684,0.1952,-0.0244,-0.08784,-0.08784,-0.09272,-0.08296
-0.08784,0.09516,-0.10248,-0.05856,-0.01464,-0.0366,0.1952,-0.0244,-0.08784,-0.08784,-0.08784,-0.08784
-0.07808,0.09028,-0.10248,-0.06344,-0.0244,-0.02684,0.19032,-0.02928,-0.08784,-0.08784,-0.09272,-0.08784
-0.06344,0.08296,-0.10248,-0.07076,-0.03904,-0.0122,0.18544,-0.03416,-0.08784,-0.08296,-0.0976,-0.08296
-0.06344,0.0854,-0.10736,-0.07564,-0.04392,-0.00976,0.18544,-0.03416,-0.08296,-0.08296,-0.0976,-0.08296
-0.06344,0.0854,-0.10736,-0.07564,-0.04392,-0.00976,0.19032,-0.02928,-0.07808,-0.08296,-0.0976,-0.07808
-0.08296,0.09272,-0.10248,-0.061,-0.01952,-0.03172,0.1952,-0.01952,-0.06832,-0.07808,-0.08784,-0.0732
-0.10248,0.10248,-0.10248,-0.05124,0,-0.05124,0.1952,-0.00976,-0.06344,-0.0732,-0.08296,-0.06832
-0.0976,0.0976,-0.0976,-0.0488,0,-0.0488,0.1952,-0.01464,-0.06344,-0.0732,-0.08784,-0.06832
-0.0976,0.0976,-0.0976,-0.0488,0,-0.0488,0.1952,-0.01464,-0.06832,-0.0732,-0.08784,-0.0732
-0.08296,0.09028,-0.0976,-0.05612,-0.01464,-0.03416,0.19032,-0.01952,-0.0732,-0.07808,-0.09272,-0.07808
-0.06832,0.08296,-0.0976,-0.06344,-0.02928,-0.01952,0.18544,-0.0244,-0.0732,-0.08296,-0.0976,-0.08296
-0.06832,0.08296,-0.0976,-0.06344,-0.02928,-0.01952,0.18544,-0.0244,-0.0732,-0.08296,-0.0976,-0.08296
-0.06832,0.08296,-0.0976,-0.06344,-0.02928,-0.01952,0.18056,-0.0244,-0.07808,-0.08296,-0.0976,-0.08296
-0.06832,0.08296,-0.0976,-0.06344,-0.02928,-0.01952,0.18056,-0.0244,-0.08296,-0.08296,-0.0976,-0.08296
-0.0732,0.0854,-0.0976,-0.061,-0.0244,-0.0244,0.18056,-0.0244,-0.08296,-0.08296,-0.09272,-0.08296
-0.0732,0.0854,-0.0976,-0.061,-0.0244,-0.0244,0.18544,-0.0244,-0.08296,-0.08296,-0.09272,-0.07808
-0.07808,0.08784,-0.0976,-0.05856,-0.01952,-0.02928,0.19032,-0.0244,-0.08296,-0.08296,-0.08784,-0.07808
-0.07808,0.09028,-0.10248,-0.06344,-0.0244,-0.02684,0.1952,-0.01952,-0.07808,-0.08296,-0.08784,-0.07808
-0.07808,0.09272,-0.10736,-0.06832,-0.02928,-0.0244,0.1952,-0.01952,-0.0732,-0.08296,-0.08784,-0.07808
-0.08784,0.0976,-0.10736,-0.06344,-0.01952,-0.03416,0.1952,-0.01952,-0.0732,-0.07808,-0.08784,-0.0732
-0.09272,0.10004,-0.10736,-0.061,-0.01464,-0.03904,0.1952,-0.01464,-0.06832,-0.0732,-0.08296,-0.06832
-0.10248,0.10004,-0.0976,-0.04636,0.00488,-0.05368,0.19032,-0.01952,-0.06344,-0.0732,-0.09272,-0.06832
-0.11712,0.10248,-0.08784,-0.02928,0.02928,-0.0732,0.18544,-0.01952,-0.06344,-0.0732,-0.09272,-0.06832
-0.09272,0.09028,-0.08784,-0.04148,0.00488,-0.0488,0.18544,-0.02928,-0.06832,-0.07808,-0.08784,-0.0732
-0.06832,0.07808,-0.08784,-0.05368,-0.01952,-0.0244,0.18544,-0.04392,-0.0732,-0.08296,-0.09272,-0.07808
-0.07808,0.08784,-0.0976,-0.05856,-0.01952,-0.02928,0.18544,-0.02928,-0.0732,-0.08296,-0.09272,-0.07808
-0.08784,0.09516,-0.10248,-0.05856,-0.01464,-0.0366,0.18544,-0.01464,-0.0732,-0.08296,-0.09272,-0.07808
-0.08784,0.09272,-0.0976,-0.05368,-0.00976,-0.03904,0.18544,-0.03416,-0.08296,-0.08784,-0.10248,-0.08296
-0.07808,0.08784,-0.0976,-0.05856,-0.01952,-0.02928,0.18056,-0.04392,-0.08784,-0.08784,-0.10736,-0.08296
-0.06344,0.08052,-0.0976,-0.06588,-0.03416,-0.01464,0.18056,-0.0488,-0.08784,-0.08784,-0.10736,-0.08784
-0.0488,0.0732,-0.0976,-0.0732,-0.0488,0,0.18544,-0.05368,-0.08784,-0.08784,-0.10736,-0.09272
-0.07808,0.09028,-0.10248,-0.06344,-0.0244,-0.02684,0.18544,-0.0488,-0.0732,-0.08296,-0.10248,-0.08784
-0.08784,0.09516,-0.10248,-0.05856,-0.01464,-0.0366,0.18544,-0.0488,-0.07808,-0.08296,-0.0976,-0.08784
-0.08784,0.09516,-0.10248,-0.05856,-0.01464,-0.0366,0.18544,-0.0488,-0.07808,-0.08296,-0.0976,-0.08296
-0.0976,0.10248,-0.10736,-0.05856,-0.00976,-0.04392,0.18544,-0.0488,-0.07808,-0.08784,-0.0976,-0.08784
-0.0976,0.10248,-0.10736,-0.05856,-0.00976,-0.04392,0.18544,-0.0488,-0.0732,-0.08784,-0.0976,-0.07808
-0.10248,0.10492,-0.10736,-0.05612,-0.00488,-0.0488,0.18544,-0.0488,-0.0732,-0.08296,-0.09272,-0.07808
-0.10248,0.10248,-0.10248,-0.05124,0,-0.05124,0.18544,-0.0488,-0.0732,-0.08296,-0.09272,-0.07808
-0.0976,0.0976,-0.0976,-0.0488,0,-0.0488,0.18544,-0.0488,-0.07808,-0.08296,-0.0976,-0.08296
-0.08296,0.09028,-0.0976,-0.05612,-0.01464,-0.03416,0.18056,-0.05368,-0.08784,-0.09272,-0.10248,-0.08784
-0.06832,0.08296,-0.0976,-0.06344,-0.02928,-0.01952,0.17568,-0.05368,-0.09272,-0.0976,-0.11224,-0.09272
-0.0732,0.0854,-0.0976,-0.061,-0.0244,-0.0244,0.17568,-0.05368,-0.09272,-0.0976,-0.11224,-0.09272
-0.0732,0.0854,-0.0976,-0.061,-0.0244,-0.0244,0.17568,-0.05368,-0.08784,-0.0976,-0.11224,-0.09272
-0.08296,0.09028,-0.0976,-0.05612,-0.01464,-0.03416,0.17568,-0.0488,-0.08784,-0.09272,-0.11224,-0.08784
-0.08784,0.09272,-0.0976,-0.05368,-0.00976,-0.03904,0.17568,-0.04392,-0.08784,-0.08784,-0.11224,-0.08296
-0.0976,0.0976,-0.0976,-0.0488,0,-0.0488,0.17568,-0.04392,-0.09272,-0.08784,-0.11224,-0.08296
-0.10736,0.10248,-0.0976,-0.04392,0.00976,-0.05856,0.17568,-0.04392,-0.09272,-0.08784,-0.11224,-0.08296
-0.10248,0.10004,-0.0976,-0.04636,0.00488,-0.05368,0.17568,-0.0488,-0.08784,-0.08784,-0.10736,-0.08784
-0.09272,0.09516,-0.0976,-0.05124,-0.00488,-0.04392,0.17568,-0.05368,-0.08784,-0.08784,-0.10736,-0.09272
-0.09272,0.10004,-0.10736,-0.061,-0.01464,-0.03904,0.17568,-0.05368,-0.08784,-0.08784,-0.10736,-0.09272
-0.09272,0.10248,-0.11224,-0.06588,-0.01952,-0.0366,0.17568,-0.05368,-0.08784,-0.08784,-0.11224,-0.0976
-0.10248,0.10736,-0.11224,-0.061,-0.00976,-0.04636,0.17568,-0.05368,-0.08296,-0.08784,-0.10736,-0.09272
-0.11224,0.1098,-0.10736,-0.05124,0.00488,-0.05856,0.18056,-0.0488,-0.07808,-0.08784,-0.0976,-0.08296
-0.10248,0.10492,-0.10736,-0.05612,-0.00488,-0.0488,0.17568,-0.04392,-0.07808,-0.08784,-0.0976,-0.07808
-0.0976,0.10248,-0.10736,-0.05856,-0.00976,-0.04392,0.17568,-0.03904,-0.07808,-0.08784,-0.0976,-0.07808
-0.0976,0.10248,-0.10736,-0.05856,-0.00976,-0.04392,0.17568,-0.04392,-0.08296,-0.09272,-0.10248,-0.08296
-0.0976,0.10248,-0.10736,-0.05856,-0.00976,-0.04392,0.17568,-0.0488,-0.08784,-0.0976,-0.10736,-0.08784
-0.09272,0.10004,-0.10736,-0.061,-0.01464,-0.03904,0.1708,-0.0488,-0.08784,-0.0976,-0.10736,-0.08784
-0.08784,0.0976,-0.10736,-0.06344,-0.01952,-0.03416,0.16592,-0.0488,-0.08784,-0.0976,-0.10736,-0.08784
-0.08784,0.0976,-0.10736,-0.06344,-0.01952,-0.03416,0.16592,-0.0488,-0.08784,-0.0976,-0.10736,-0.09272
-0.08784,0.0976,-0.10736,-0.06344,-0.01952,-0.03416,0.16592,-0.0488,-0.08784,-0.0976,-0.10736,-0.0976
-0.08784,0.0976,-0.10736,-0.06344,-0.01952,-0.03416,0.1708,-0.0488,-0.08784,-0.0976,-0.10736,-0.0976
-0.08784,0.0976,-0.10736,-0.06344,-0.01952,-0.03416,0.17568,-0.0488,-0.08784,-0.0976,-0.10736,-0.0976
-0.09272,0.0976,-0.10248,-0.05612,-0.00976,-0.04148,0.17568,-0.0488,-0.08784,-0.0976,-0.10736,-0.0976
-0.0976,0.0976,-0.0976,-0.0488,0,-0.0488,0.17568,-0.0488,-0.08784,-0.0976,-0.10736,-0.0976
-0.0976,0.09516,-0.09272,-0.04392,0.00488,-0.05124,0.17568,-0.0488,-0.08784,-0.0976,-0.10736,-0.0976
-0.0976,0.09272,-0.08784,-0.03904,0.00976,-0.05368,0.17568,-0.0488,-0.08784,-0.0976,-0.10736,-0.0976
-0.09272,0.09028,-0.08784,-0.04148,0.00488,-0.0488,0.18056,-0.04392,-0.08296,-0.0976,-0.10736,-0.09272
-0.08784,0.0854,-0.08296,-0.03904,0.00488,-0.04636,0.18544,-0.03416,-0.06832,-0.08784,-0.0976,-0.08296
-0.08784,0.0854,-0.08296,-0.03904,0.00488,-0.04636,0.1952,-0.0244,-0.05856,-0.08296,-0.09272,-0.07808
-0.08784,0.08052,-0.0732,-0.02928,0.01464,-0.05124,0.20984,-0.01464,-0.04392,-0.06832,-0.08296,-0.0732
-0.0732,0.06832,-0.06344,-0.02684,0.00976,-0.04148,0.20496,-0.00976,-0.03904,-0.06344,-0.07808,-0.0732
-0.06344,0.061,-0.05856,-0.02684,0.00488,-0.03416,0.20008,-0.00488,-0.03904,-0.05856,-0.07808,-0.06832
-0.0732,0.06344,-0.05368,-0.01708,0.01952,-0.04636,0.21472,0.00488,-0.03416,-0.05856,-0.06832,-0.06832
-0.08296,0.06588,-0.0488,-0.00732,0.03416,-0.05856,0.20496,0.00488,-0.02928,-0.05368,-0.06832,-0.06344
-0.06344,0.05368,-0.04392,-0.0122,0.01952,-0.04148,0.20008,0,-0.03904,-0.05856,-0.0732,-0.06832
-0.04392,0.04392,-0.04392,-0.02196,0,-0.02196,0.19032,-0.01464,-0.0488,-0.06832,-0.08296,-0.0732
-0.04392,0.05612,-0.06832,-0.04636,-0.0244,-0.00976,0.1708,-0.0244,-0.05368,-0.06832,-0.08296,-0.0732
-0.04392,0.06344,-0.08296,-0.061,-0.03904,-0.00244,0.16104,-0.03416,-0.06832,-0.08296,-0.08784,-0.07808
-0.05368,0.061,-0.06832,-0.04148,-0.01464,-0.01952,0.14152,-0.0488,-0.06832,-0.07808,-0.08296,-0.07808
-0.06344,0.05612,-0.0488,-0.01708,0.01464,-0.03904,0.13176,-0.04392,-0.05856,-0.06832,-0.0732,-0.0732
-0.06344,0.05612,-0.0488,-0.01708,0.01464,-0.03904,0.13176,-0.03904,-0.05856,-0.06344,-0.0732,-0.06832
-0.06832,0.05124,-0.03416,0,0.03416,-0.05124,0.14152,-0.03904,-0.0488,-0.05368,-0.05856,-0.06344
-0.06832,0.05368,-0.03904,-0.00488,0.02928,-0.0488,0.1464,-0.03904,-0.0488,-0.05856,-0.05856,-0.05856
-0.06832,0.05612,-0.04392,-0.00976,0.0244,-0.04636,0.1464,-0.03904,-0.05368,-0.06344,-0.05856,-0.05856
-0.05856,0.05612,-0.05368,-0.0244,0.00488,-0.03172,0.1464,-0.03904,-0.05856,-0.0732,-0.06344,-0.06344
-0.05856,0.06344,-0.06832,-0.03904,-0.00976,-0.0244,0.1464,-0.03904,-0.06344,-0.08296,-0.07808,-0.0732
-0.06344,0.06832,-0.0732,-0.04148,-0.00976,-0.02684,0.1464,-0.0488,-0.06832,-0.08296,-0.08296,-0.0732
-0.0732,0.07076,-0.06832,-0.03172,0.00488,-0.03904,0.1464,-0.0488,-0.0732,-0.09272,-0.08784,-0.07808
-0.08296,0.08052,-0.07808,-0.0366,0.00488,-0.04392,0.15128,-0.0488,-0.0732,-0.09272,-0.08784,-0.08296
-0.09272,0.09028,-0.08784,-0.04148,0.00488,-0.0488,0.15128,-0.05368,-0.07808,-0.09272,-0.09272,-0.09272
-0.0976,0.09272,-0.08784,-0.03904,0.00976,-0.05368,0.15128,-0.05368,-0.08296,-0.10248,-0.0976,-0.08784
-0.0976,0.09516,-0.09272,-0.04392,0.00488,-0.05124,0.1464,-0.06344,-0.09272,-0.11224,-0.10736,-0.08784
-0.08296,0.09516,-0.10736,-0.06588,-0.0244,-0.02928,0.14152,-0.07808,-0.10248,-0.11712,-0.11712,-0.10248
-0.06832,0.09516,-0.122,-0.08784,-0.05368,-0.00732,0.13664,-0.08784,-0.10248,-0.11712,-0.122,-0.11224
-0.08296,0.10248,-0.122,-0.08052,-0.03904,-0.02196,0.13664,-0.08784,-0.10248,-0.11224,-0.122,-0.11224
-0.09272,0.10492,-0.11712,-0.07076,-0.0244,-0.03416,0.13664,-0.08784,-0.10736,-0.11224,-0.122,-0.11712
-0.10248,0.1098,-0.11712,-0.06588,-0.01464,-0.04392,0.13664,-0.0732,-0.10736,-0.11224,-0.11712,-0.11712
-0.10736,0.11224,-0.11712,-0.06344,-0.00976,-0.0488,0.14152,-0.06344,-0.10248,-0.11224,-0.11224,-0.11224
-0.10736,0.11468,-0.122,-0.06832,-0.01464,-0.04636,0.14152,-0.06344,-0.10248,-0.11224,-0.11712,-0.11224
-0.10736,0.11468,-0.122,-0.06832,-0.01464,-0.04636,0.14152,-0.06344,-0.10248,-0.11224,-0.11712,-0.11224
-0.11712,0.11712,-0.11712,-0.05856,0,-0.05856,0.1464,-0.06344,-0.10248,-0.11224,-0.11712,-0.11224
-0.122,0.11712,-0.11224,-0.05124,0.00976,-0.06588,0.15128,-0.06344,-0.0976,-0.11712,-0.11224,-0.11224
-0.122,0.11956,-0.11712,-0.05612,0.00488,-0.06344,0.15128,-0.06344,-0.09272,-0.11712,-0.11224,-0.10736
-0.122,0.11956,-0.11712,-0.05612,0.00488,-0.06344,0.15128,-0.05856,-0.08784,-0.11712,-0.11224,-0.10248
-0.11712,0.11712,-0.11712,-0.05856,0,-0.05856,0.15616,-0.0488,-0.08784,-0.11224,-0.11224,-0.10248
-0.122,0.11956,-0.11712,-0.05612,0.00488,-0.06344,0.16104,-0.03904,-0.08784,-0.10736,-0.11224,-0.10248
-0.12688,0.12444,-0.122,-0.05856,0.00488,-0.06588,0.1708,-0.03904,-0.08784,-0.11224,-0.122,-0.11224
-0.13176,0.13908,-0.1464,-0.08052,-0.01464,-0.05856,0.19032,-0.00976,-0.09272,-0.13176,-0.14152,-0.13664
-0.122,0.1342,-0.1464,-0.0854,-0.0244,-0.0488,0.2196,0.0244,-0.08784,-0.13664,-0.15128,-0.15616
-0.10736,0.11468,-0.122,-0.06832,-0.01464,-0.04636,0.2196,0.08784,-0.03416,-0.0976,-0.13176,-0.1464
-0.06344,0.061,-0.05856,-0.02684,0.00488,-0.03416,0.20496,0.11712,0.06344,0.00488,-0.0488,-0.08296
0.04392,-0.05368,0.06344,0.04148,0.01952,0.0122,0.13664,0.122,0.20496,0.1708,0.10736,0.05368
0.16104,-0.20008,0.23912,0.1586,0.07808,0.04148,0.03904,0.01464,0.40016,0.42456,0.36112,0.28304
0.35136,-0.42212,0.49288,0.3172,0.14152,0.10492,-0.16592,-0.28304,0.61,0.75152,0.69784,0.58072
0.62952,-0.71492,0.80032,0.48556,0.1708,0.22936,-0.43432,-0.55632,0.86376,1.12728,1.08824,0.9516
0.91744,-0.99552,1.0736,0.61488,0.15616,0.38064,-0.67832,-0.66368,1.12728,1.4884,1.45424,1.27856
1.0492,-1.17364,1.29808,0.77348,0.24888,0.40016,-0.89792,-0.77104,1.21512,1.66408,1.66408,1.49816
1.0248,-1.1102,1.1956,0.6832,0.1708,0.427,-1.06872,-0.85888,0.9272,1.42984,1.5128,1.4152
0.89304,-0.8784,0.86376,0.41724,-0.02928,0.46116,-1.21024,-0.99552,0.3904,0.89304,1.06872,1.06384
0.59536,-0.60024,0.60512,0.30744,0.00976,0.2928,-1.22976,-1.1956,-0.06344,0.38552,0.64416,0.72712
0.32208,-0.39284,0.4636,0.30256,0.14152,0.09028,-1.11752,-1.35664,-0.40504,-0.01464,0.2928,0.4636
0.0488,-0.20008,0.35136,0.32696,0.30256,-0.12688,-0.79544,-1.26392,-0.57096,-0.27816,0.00488,0.21472
-0.05856,-0.10736,0.27328,0.30256,0.33184,-0.1952,-0.54656,-0.97112,-0.49776,-0.31232,-0.09272,0.06832
-0.02928,-0.10004,0.22936,0.244,0.25864,-0.14396,-0.33672,-0.6344,-0.30256,-0.18056,-0.0488,0.05368
-0.0244,-0.06344,0.15128,0.16348,0.17568,-0.10004,-0.19032,-0.40016,-0.17568,-0.10248,-0.01464,0.0488
-0.02928,-0.03416,0.0976,0.11224,0.12688,-0.07808,-0.10736,-0.22936,-0.10736,-0.0488,0,0.03416
-0.00488,-0.0244,0.05368,0.05612,0.05856,-0.03172,-0.03416,-0.11712,-0.0732,-0.03416,-0.01464,0.00488
-0.00488,0,0.00488,0.00732,0.00976,-0.00732,0.04392,-0.05856,-0.05368,-0.02928,-0.0244,-0.0244
-0.0244,0.02928,-0.03416,-0.02196,-0.00976,-0.00732,0.09272,-0.02928,-0.0244,-0.02928,-0.02928,-0.03416
-0.03904,0.04148,-0.04392,-0.0244,-0.00488,-0.01708,0.10736,0.00488,-0.0244,-0.02928,-0.03416,-0.03904
-0.05368,0.05368,-0.05368,-0.02684,0,-0.02684,0.12688,0.04392,-0.0244,-0.03416,-0.04392,-0.0488
-0.0732,0.06344,-0.05368,-0.01708,0.01952,-0.04636,0.14152,0.0488,-0.02928,-0.04392,-0.05856,-0.05856
-0.06344,0.06588,-0.06832,-0.0366,-0.00488,-0.02928,0.15616,0.0488,-0.02928,-0.04392,-0.05856,-0.05856
-0.0488,0.061,-0.0732,-0.0488,-0.0244,-0.0122,0.15616,0.0732,-0.01952,-0.03904,-0.05368,-0.05856
-0.04392,0.05856,-0.0732,-0.05124,-0.02928,-0.00732,0.16104,0.08296,-0.01464,-0.03904,-0.05856,-0.06832
-0.04392,0.061,-0.07808,-0.05612,-0.03416,-0.00488,0.1708,0.08784,-0.01464,-0.03904,-0.06832,-0.0732
-0.0488,0.06344,-0.07808,-0.05368,-0.02928,-0.00976,0.18544,0.08784,-0.00976,-0.03904,-0.06832,-0.0732
-0.0488,0.061,-0.0732,-0.0488,-0.0244,-0.0122,0.18544,0.09272,-0.00976,-0.03904,-0.06832,-0.0732
-0.04392,0.06344,-0.08296,-0.061,-0.03904,-0.00244,0.18544,0.10248,-0.00976,-0.03416,-0.06344,-0.0732
-0.04392,0.07076,-0.0976,-0.07564,-0.05368,0.00488,0.19032,0.11224,0,-0.03416,-0.05368,-0.06832
-0.03904,0.06344,-0.08784,-0.06832,-0.0488,0.00488,0.18544,0.11224,0,-0.03904,-0.05368,-0.06832
-0.03904,0.05856,-0.07808,-0.05856,-0.03904,0,0.17568,0.11224,0,-0.03904,-0.05368,-0.06832
-0.02928,0.05368,-0.07808,-0.06344,-0.0488,0.00976,0.17568,0.11224,-0.00488,-0.03904,-0.05368,-0.06832
-0.01464,0.04636,-0.07808,-0.07076,-0.06344,0.0244,0.17568,0.11224,-0.00976,-0.03904,-0.05368,-0.06832
-0.0244,0.0488,-0.0732,-0.061,-0.0488,0.0122,0.18056,0.122,0,-0.03416,-0.05368,-0.06832
-0.03416,0.05368,-0.0732,-0.05612,-0.03904,0.00244,0.19032,0.122,0,-0.02928,-0.0488,-0.06832
-0.0244,0.0488,-0.0732,-0.061,-0.0488,0.0122,0.19032,0.12688,0.00488,-0.0244,-0.0488,-0.06344
-0.0244,0.0488,-0.0732,-0.061,-0.0488,0.0122,0.19032,0.13664,0.00976,-0.0244,-0.0488,-0.06344
-0.0244,0.0488,-0.0732,-0.061,-0.0488,0.0122,0.19032,0.13664,0.01464,-0.0244,-0.0488,-0.06344
-0.0244,0.0488,-0.0732,-0.061,-0.0488,0.0122,0.19032,0.14152,0.0244,-0.01952,-0.04392,-0.06344
-0.0244,0.04636,-0.06832,-0.05612,-0.04392,0.00976,0.19032,0.1464,0.0244,-0.01464,-0.03416,-0.05856
-0.0244,0.04636,-0.06832,-0.05612,-0.04392,0.00976,0.19032,0.15128,0.02928,-0.00488,-0.02928,-0.05368
-0.02928,0.04392,-0.05856,-0.04392,-0.02928,0,0.18544,0.15128,0.02928,-0.00488,-0.02928,-0.05368
-0.02928,0.04148,-0.05368,-0.03904,-0.0244,-0.00244,0.18544,0.15128,0.02928,-0.00488,-0.02928,-0.05368
-0.02928,0.03904,-0.0488,-0.03416,-0.01952,-0.00488,0.19032,0.15128,0.02928,-0.00488,-0.02928,-0.0488
-0.02928,0.0366,-0.04392,-0.02928,-0.01464,-0.00732,0.19032,0.15616,0.03416,-0.00488,-0.02928,-0.04392
-0.01464,0.02928,-0.04392,-0.0366,-0.02928,0.00732,0.19032,0.15616,0.02928,-0.00976,-0.02928,-0.0488
0,0.01952,-0.03904,-0.03904,-0.03904,0.01952,0.18544,0.15616,0.02928,-0.01464,-0.03416,-0.05368
0.00976,0.01708,-0.04392,-0.0488,-0.05368,0.03172,0.18544,0.15616,0.02928,-0.01464,-0.03416,-0.05368
0.0244,0.0122,-0.0488,-0.061,-0.0732,0.0488,0.18544,0.16104,0.02928,-0.01464,-0.02928,-0.05368
0.01952,0.01464,-0.0488,-0.05856,-0.06832,0.04392,0.18544,0.16104,0.02928,-0.00976,-0.02928,-0.05368
0.00976,0.01708,-0.04392,-0.0488,-0.05368,0.03172,0.18544,0.16104,0.02928,-0.00976,-0.02928,-0.05368
0.00488,0.01708,-0.03904,-0.04148,-0.04392,0.0244,0.18544,0.1708,0.03904,-0.00488,-0.01952,-0.04392
0.00488,0.01708,-0.03904,-0.04148,-0.04392,0.0244,0.19032,0.18056,0.03904,0,-0.01952,-0.04392
-0.00488,0.02196,-0.03904,-0.0366,-0.03416,0.01464,0.19032,0.18544,0.04392,0,-0.01952,-0.03904
-0.00976,0.0244,-0.03904,-0.03416,-0.02928,0.00976,0.19032,0.19032,0.04392,0,-0.01952,-0.03904
0.00488,0.01464,-0.03416,-0.0366,-0.03904,0.02196,0.19032,0.1952,0.04392,0,-0.01952,-0.03904
0.00488,0.01464,-0.03416,-0.0366,-0.03904,0.02196,0.19032,0.1952,0.04392,0.00488,-0.01464,-0.03904
0.01952,0.00488,-0.02928,-0.03904,-0.0488,0.03416,0.1952,0.20008,0.04392,0.00488,-0.01464,-0.04392
0.03416,-0.00488,-0.0244,-0.04148,-0.05856,0.04636,0.1952,0.20984,0.0488,0.00488,-0.00976,-0.03904
0.03904,-0.00976,-0.01952,-0.03904,-0.05856,0.0488,0.20008,0.21472,0.05368,0.01464,-0.00976,-0.03904
0.04392,-0.0122,-0.01952,-0.04148,-0.06344,0.05368,0.20008,0.22448,0.06344,0.0244,-0.00488,-0.03416
0.03416,-0.00732,-0.01952,-0.0366,-0.05368,0.04392,0.20496,0.22936,0.06344,0.02928,0,-0.01464
0.01952,-0.00244,-0.01464,-0.0244,-0.03416,0.02684,0.20984,0.23912,0.06832,0.03904,0.00976,0
0.03416,-0.01464,-0.00488,-0.02196,-0.03904,0.0366,0.2196,0.24888,0.07808,0.04392,0.01464,-0.00488
0.0488,-0.02196,-0.00488,-0.02928,-0.05368,0.05124,0.22448,0.25864,0.08296,0.0488,0.01952,-0.00488
0.04392,-0.0244,0.00488,-0.01708,-0.03904,0.04148,0.22936,0.26352,0.08784,0.05368,0.02928,-0.00488
0.04392,-0.03172,0.01952,-0.00244,-0.0244,0.03416,0.23912,0.27328,0.0976,0.05368,0.03416,0.00488
0.05368,-0.04148,0.02928,0.00244,-0.0244,0.03904,0.244,0.28304,0.10248,0.06344,0.03904,0.00976
0.05856,-0.0488,0.03904,0.00976,-0.01952,0.03904,0.24888,0.2928,0.10736,0.06832,0.04392,0.01952
0.05856,-0.05124,0.04392,0.01464,-0.01464,0.0366,0.25376,0.30744,0.11712,0.08296,0.05856,0.03416
0.05856,-0.06344,0.06832,0.03904,0.00976,0.0244,0.25864,0.32208,0.122,0.09272,0.0732,0.04392
0.07808,-0.08052,0.08296,0.04392,0.00488,0.0366,0.25864,0.32208,0.12688,0.0976,0.08296,0.05856
0.11224,-0.10736,0.10248,0.04636,-0.00976,0.061,0.26352,0.33184,0.13664,0.10736,0.10248,0.06832
0.13664,-0.12932,0.122,0.05368,-0.01464,0.07564,0.25864,0.3416,0.1464,0.122,0.11224,0.08296
0.1708,-0.14884,0.12688,0.04148,-0.04392,0.10736,0.25376,0.34648,0.1464,0.12688,0.11712,0.0976
0.1708,-0.1586,0.1464,0.061,-0.0244,0.0976,0.25376,0.35624,0.16104,0.1464,0.13176,0.10736
0.15128,-0.16104,0.1708,0.09516,0.01952,0.06588,0.24888,0.37088,0.18056,0.16104,0.16104,0.13176
0.1708,-0.18056,0.19032,0.10492,0.01952,0.07564,0.23912,0.37576,0.18056,0.17568,0.17568,0.15616
0.18056,-0.19276,0.20496,0.11468,0.0244,0.07808,0.22448,0.37576,0.19032,0.1952,0.19032,0.17568
0.20496,-0.21228,0.2196,0.11712,0.01464,0.09516,0.20984,0.37088,0.20008,0.20496,0.20984,0.1952
0.2196,-0.22936,0.23912,0.12932,0.01952,0.10004,0.1952,0.366,0.20984,0.22448,0.23424,0.21472
0.244,-0.25132,0.25864,0.13664,0.01464,0.11468,0.1708,0.35136,0.21472,0.23424,0.244,0.22936
0.25864,-0.27328,0.28792,0.1586,0.02928,0.11468,0.15128,0.3416,0.21472,0.244,0.26352,0.244
0.27816,-0.28548,0.2928,0.15372,0.01464,0.13176,0.122,0.33184,0.2196,0.244,0.2684,0.25864
0.28304,-0.2928,0.30256,0.16104,0.01952,0.13176,0.0976,0.3172,0.2196,0.244,0.28792,0.2684
0.2684,-0.28548,0.30256,0.16836,0.03416,0.11712,0.0732,0.29768,0.22448,0.26352,0.29768,0.28304
0.27328,-0.28548,0.29768,0.16104,0.0244,0.12444,0.0488,0.28304,0.22448,0.27328,0.30256,0.28792
0.26352,-0.27816,0.2928,0.16104,0.02928,0.11712,0.03416,0.2684,0.2196,0.27328,0.30256,0.28792
0.24888,-0.26596,0.28304,0.1586,0.03416,0.10736,0.01952,0.24888,0.21472,0.2684,0.29768,0.28304
0.24888,-0.2562,0.26352,0.13908,0.01464,0.11712,0.00976,0.22448,0.1952,0.244,0.27328,0.25376
0.26352,-0.25376,0.244,0.11224,-0.01952,0.14152,0.00488,0.1952,0.16592,0.20984,0.23424,0.22448
0.23424,-0.22448,0.21472,0.0976,-0.01952,0.12688,0.00488,0.17568,0.15128,0.18544,0.20984,0.19032
0.20496,-0.20008,0.1952,0.09272,-0.00976,0.10736,0.00488,0.15616,0.13664,0.16592,0.17568,0.16592
0.16592,-0.16348,0.16104,0.07808,-0.00488,0.0854,0.00976,0.12688,0.11224,0.13176,0.14152,0.13176
0.122,-0.122,0.122,0.061,0,0.061,0.02928,0.10736,0.0976,0.10736,0.11712,0.10248
0.07808,-0.0854,0.09272,0.05368,0.01464,0.03172,0.04392,0.0976,0.07808,0.07808,0.09272,0.0732
0.03416,-0.0488,0.06344,0.04636,0.02928,0.00244,0.05856,0.08296,0.06344,0.06344,0.0732,0.05368
0.00488,-0.0244,0.04392,0.04148,0.03904,-0.01708,0.06344,0.05856,0.04392,0.04392,0.0488,0.02928
-0.02928,0.00244,0.0244,0.03904,0.05368,-0.04148,0.0732,0.04392,0.0244,0.01952,0.02928,0.00976
-0.02928,0.0122,0.00488,0.01952,0.03416,-0.03172,0.07808,0.02928,0.00976,-0.00488,0,-0.00976
-0.01952,0.01708,-0.01464,-0.00488,0.00488,-0.0122,0.07808,0.01464,-0.00488,-0.01464,-0.01952,-0.02928
-0.03416,0.03172,-0.02928,-0.0122,0.00488,-0.01952,0.08296,0.00976,-0.01464,-0.02928,-0.03416,-0.0488
-0.04392,0.04148,-0.03904,-0.01708,0.00488,-0.0244,0.08784,-0.00488,-0.01952,-0.04392,-0.04392,-0.05368
-0.0488,0.0488,-0.0488,-0.0244,0,-0.0244,0.09272,-0.01464,-0.0244,-0.05368,-0.05368,-0.06344
-0.05856,0.05612,-0.05368,-0.0244,0.00488,-0.03172,0.09272,-0.01464,-0.03416,-0.05856,-0.05856,-0.06832
-0.05856,0.05612,-0.05368,-0.0244,0.00488,-0.03172,0.09272,-0.01952,-0.04392,-0.05856,-0.06344,-0.06832
-0.05856,0.05856,-0.05856,-0.02928,0,-0.02928,0.09272,-0.01952,-0.0488,-0.06344,-0.06832,-0.0732
-0.05856,0.061,-0.06344,-0.03416,-0.00488,-0.02684,0.08784,-0.0244,-0.04392,-0.06344,-0.0732,-0.07808
-0.06832,0.06832,-0.06832,-0.03416,0,-0.03416,0.08296,-0.02928,-0.04392,-0.06344,-0.06832,-0.07808
-0.0732,0.06832,-0.06344,-0.02684,0.00976,-0.04148,0.08784,-0.02928,-0.0488,-0.06832,-0.06832,-0.07808
-0.08784,0.07808,-0.06832,-0.0244,0.01952,-0.05368,0.08784,-0.02928,-0.0488,-0.06832,-0.07808,-0.08296
-0.09272,0.08052,-0.06832,-0.02196,0.0244,-0.05856,0.09272,-0.02928,-0.05368,-0.06832,-0.07808,-0.08784
-0.09272,0.08052,-0.06832,-0.02196,0.0244,-0.05856,0.09272,-0.02928,-0.05856,-0.0732,-0.07808,-0.09272
-0.08784,0.08052,-0.0732,-0.02928,0.01464,-0.05124,0.09272,-0.02928,-0.05856,-0.0732,-0.07808,-0.09272
-0.08784,0.08052,-0.0732,-0.02928,0.01464,-0.05124,0.09272,-0.02928,-0.06344,-0.07808,-0.08296,-0.0976
-0.0976,0.0854,-0.0732,-0.0244,0.0244,-0.061,0.09272,-0.02928,-0.05856,-0.07808,-0.08296,-0.0976
-0.0976,0.0854,-0.0732,-0.0244,0.0244,-0.061,0.09272,-0.02928,-0.05368,-0.07808,-0.08296,-0.0976
-0.09272,0.08296,-0.0732,-0.02684,0.01952,-0.05612,0.08784,-0.02928,-0.05856,-0.08296,-0.08296,-0.0976
-0.09272,0.08296,-0.0732,-0.02684,0.01952,-0.05612,0.08296,-0.03416,-0.05856,-0.08296,-0.08784,-0.0976
-0.09272,0.0854,-0.07808,-0.03172,0.01464,-0.05368,0.08296,-0.03416,-0.06344,-0.08296,-0.08784,-0.0976
-0.08784,0.0854,-0.08296,-0.03904,0.00488,-0.04636,0.08784,-0.03416,-0.06832,-0.08296,-0.08784,-0.09272
-0.08784,0.0854,-0.08296,-0.03904,0.00488,-0.04636,0.08784,-0.03416,-0.0732,-0.09272,-0.08784,-0.0976
-0.08296,0.08296,-0.08296,-0.04148,0,-0.04148,0.08784,-0.03416,-0.0732,-0.09272,-0.08784,-0.0976
-0.07808,0.08052,-0.08296,-0.04392,-0.00488,-0.0366,0.08784,-0.03416,-0.0732,-0.09272,-0.08784,-0.10248
-0.07808,0.08296,-0.08784,-0.0488,-0.00976,-0.03416,0.08784,-0.03416,-0.0732,-0.08784,-0.08784,-0.10736
-0.08784,0.08784,-0.08784,-0.04392,0,-0.04392,0.08784,-0.02928,-0.06832,-0.08784,-0.08784,-0.10248
-0.0976,0.09028,-0.08296,-0.03416,0.01464,-0.05612,0.08784,-0.02928,-0.06344,-0.08784,-0.09272,-0.10248
-0.0976,0.09028,-0.08296,-0.03416,0.01464,-0.05612,0.08784,-0.02928,-0.06344,-0.08784,-0.09272,-0.10248
-0.10248,0.09272,-0.08296,-0.03172,0.01952,-0.061,0.09272,-0.0244,-0.05856,-0.08784,-0.08784,-0.10248
-0.10248,0.09516,-0.08784,-0.0366,0.01464,-0.05856,0.09272,-0.02928,-0.05856,-0.08784,-0.08784,-0.0976
-0.0976,0.0976,-0.0976,-0.0488,0,-0.0488,0.09272,-0.03416,-0.05856,-0.08784,-0.08784,-0.09272
-0.0976,0.0976,-0.0976,-0.0488,0,-0.0488,0.08784,-0.03416,-0.05856,-0.08784,-0.09272,-0.10248
-0.08784,0.09028,-0.09272,-0.0488,-0.00488,-0.04148,0.08784,-0.03416,-0.05856,-0.08784,-0.09272,-0.10248
-0.10736,0.10004,-0.09272,-0.03904,0.01464,-0.061,0.08784,-0.02928,-0.05856,-0.08784,-0.08784,-0.0976
-0.122,0.10736,-0.09272,-0.03172,0.02928,-0.07564,0.08784,-0.0244,-0.05856,-0.08784,-0.08784,-0.0976
-0.11224,0.10248,-0.09272,-0.0366,0.01952,-0.06588,0.08296,-0.0244,-0.05856,-0.08296,-0.08784,-0.09272
-0.10248,0.10004,-0.0976,-0.04636,0.00488,-0.05368,0.07808,-0.0244,-0.05856,-0.08296,-0.08784,-0.09272
-0.07808,0.08784,-0.0976,-0.05856,-0.01952,-0.02928,0.07808,-0.0244,-0.06344,-0.08296,-0.09272,-0.0976
-0.05368,0.0732,-0.09272,-0.06588,-0.03904,-0.00732,0.0732,-0.02928,-0.06344,-0.08296,-0.09272,-0.10736
-0.06832,0.07808,-0.08784,-0.05368,-0.01952,-0.0244,0.06832,-0.02928,-0.06344,-0.08296,-0.09272,-0.10736
-0.07808,0.07808,-0.07808,-0.03904,0,-0.03904,0.06832,-0.03416,-0.06344,-0.08296,-0.0976,-0.10736
-0.08296,0.08052,-0.07808,-0.0366,0.00488,-0.04392,0.0732,-0.02928,-0.06344,-0.08296,-0.08784,-0.10736
-0.08784,0.08296,-0.07808,-0.03416,0.00976,-0.0488,0.07808,-0.0244,-0.05856,-0.08296,-0.07808,-0.10248
-0.0976,0.08784,-0.07808,-0.02928,0.01952,-0.05856,0.07808,-0.0244,-0.05368,-0.08296,-0.07808,-0.10248
-0.10736,0.09272,-0.07808,-0.0244,0.02928,-0.06832,0.07808,-0.0244,-0.05368,-0.08296,-0.07808,-0.10248
-0.09272,0.0854,-0.07808,-0.03172,0.01464,-0.05368,0.06344,-0.02928,-0.06344,-0.08296,-0.08296,-0.10248
-0.07808,0.07808,-0.07808,-0.03904,0,-0.03904,0.05368,-0.03416,-0.06832,-0.08296,-0.08784,-0.10248
-0.08296,0.08052,-0.07808,-0.0366,0.00488,-0.04392,0.05368,-0.03416,-0.06344,-0.08296,-0.08296,-0.10248
-0.08296,0.08052,-0.07808,-0.0366,0.00488,-0.04392,0.05856,-0.03416,-0.06344,-0.08296,-0.08296,-0.0976
-0.08784,0.08296,-0.07808,-0.03416,0.00976,-0.0488,0.06344,-0.03416,-0.06344,-0.08296,-0.07808,-0.0976
-0.08784,0.08296,-0.07808,-0.03416,0.00976,-0.0488,0.06344,-0.03416,-0.06344,-0.08296,-0.07808,-0.0976
-0.09272,0.08784,-0.08296,-0.0366,0.00976,-0.05124,0.05856,-0.03416,-0.06344,-0.08296,-0.0732,-0.0976
-0.0976,0.09272,-0.08784,-0.03904,0.00976,-0.05368,0.05856,-0.03416,-0.06832,-0.08296,-0.0732,-0.0976
-0.09272,0.09028,-0.08784,-0.04148,0.00488,-0.0488,0.05368,-0.03416,-0.0732,-0.08296,-0.0732,-0.0976
-0.09272,0.09028,-0.08784,-0.04148,0.00488,-0.0488,0.0488,-0.03904,-0.0732,-0.08296,-0.08296,-0.0976
-0.0976,0.09028,-0.08296,-0.03416,0.01464,-0.05612,0.0488,-0.03904,-0.0732,-0.08296,-0.08784,-0.0976
-0.0976,0.08784,-0.07808,-0.02928,0.01952,-0.05856,0.0488,-0.03416,-0.0732,-0.08296,-0.08296,-0.0976
-0.11224,0.09516,-0.07808,-0.02196,0.03416,-0.0732,0.0488,-0.03416,-0.06832,-0.08296,-0.08296,-0.0976
-0.12688,0.10492,-0.08296,-0.01952,0.04392,-0.0854,0.0488,-0.03416,-0.06344,-0.08296,-0.08296,-0.0976
-0.09272,0.08784,-0.08296,-0.0366,0.00976,-0.05124,0.04392,-0.03416,-0.06344,-0.08296,-0.08296,-0.0976
-0.05856,0.06832,-0.07808,-0.0488,-0.01952,-0.01952,0.03904,-0.04392,-0.06832,-0.08784,-0.08784,-0.10248
-0.06344,0.07076,-0.07808,-0.04636,-0.01464,-0.0244,0.03416,-0.04392,-0.06832,-0.08784,-0.08784,-0.10248
-0.07808,0.07808,-0.07808,-0.03904,0,-0.03904,0.03416,-0.04392,-0.06832,-0.08784,-0.08784,-0.10248
-0.08784,0.08296,-0.07808,-0.03416,0.00976,-0.0488,0.04392,-0.04392,-0.06832,-0.08784,-0.08784,-0.10248
-0.11712,0.10004,-0.08296,-0.0244,0.03416,-0.07564,0.0488,-0.03904,-0.05856,-0.08296,-0.08784,-0.0976
-0.11712,0.10004,-0.08296,-0.0244,0.03416,-0.07564,0.0488,-0.03904,-0.06832,-0.08296,-0.08784,-0.0976
-0.10736,0.09272,-0.07808,-0.0244,0.02928,-0.06832,0.0488,-0.03904,-0.06832,-0.08296,-0.08784,-0.0976
-0.11224,0.09516,-0.07808,-0.02196,0.03416,-0.0732,0.0488,-0.03904,-0.06344,-0.08784,-0.08296,-0.10248
-0.11712,0.0976,-0.07808,-0.01952,0.03904,-0.07808,0.0488,-0.03904,-0.05368,-0.08784,-0.07808,-0.08784
-0.122,0.10004,-0.07808,-0.01708,0.04392,-0.08296,0.0488,-0.03904,-0.05368,-0.08296,-0.0732,-0.08784
-0.122,0.10004,-0.07808,-0.01708,0.04392,-0.08296,0.0488,-0.03904,-0.05368,-0.08296,-0.0732,-0.08784
-0.09272,0.0854,-0.07808,-0.03172,0.01464,-0.05368,0.04392,-0.04392,-0.06832,-0.08296,-0.08296,-0.0976
-0.06832,0.0732,-0.07808,-0.04392,-0.00976,-0.02928,0.03904,-0.05368,-0.08296,-0.08784,-0.08784,-0.10248
-0.07808,0.07808,-0.07808,-0.03904,0,-0.03904,0.03904,-0.05368,-0.08296,-0.08784,-0.09272,-0.10248
-0.09272,0.0854,-0.07808,-0.03172,0.01464,-0.05368,0.03904,-0.05368,-0.08296,-0.08784,-0.09272,-0.10248
-0.0976,0.08784,-0.07808,-0.02928,0.01952,-0.05856,0.03904,-0.05368,-0.07808,-0.08784,-0.09272,-0.10248
-0.10248,0.09028,-0.07808,-0.02684,0.0244,-0.06344,0.03904,-0.05368,-0.07808,-0.08784,-0.09272,-0.10248
-0.0976,0.08784,-0.07808,-0.02928,0.01952,-0.05856,0.03904,-0.05368,-0.07808,-0.08784,-0.09272,-0.10248
-0.0976,0.08784,-0.07808,-0.02928,0.01952,-0.05856,0.03904,-0.05368,-0.08296,-0.08784,-0.09272,-0.10248
-0.0976,0.08784,-0.07808,-0.02928,0.01952,-0.05856,0.03904,-0.05368,-0.08296,-0.08784,-0.09272,-0.10248
-0.10248,0.09028,-0.07808,-0.02684,0.0244,-0.06344,0.03904,-0.05368,-0.07808,-0.08784,-0.08784,-0.10248
-0.10248,0.09028,-0.07808,-0.02684,0.0244,-0.06344,0.03904,-0.0488,-0.0732,-0.08784,-0.08296,-0.10248
-0.10248,0.09272,-0.08296,-0.03172,0.01952,-0.061,0.03904,-0.04392,-0.06832,-0.08784,-0.07808,-0.10248
-0.10248,0.09516,-0.08784,-0.0366,0.01464,-0.05856,0.03904,-0.04392,-0.06832,-0.08784,-0.08296,-0.0976
-0.10248,0.0976,-0.09272,-0.04148,0.00976,-0.05612,0.03904,-0.0488,-0.06832,-0.08784,-0.07808,-0.08296
-0.0976,0.09272,-0.08784,-0.03904,0.00976,-0.05368,0.03416,-0.0488,-0.0732,-0.0976,-0.08296,-0.08784
-0.09272,0.08784,-0.08296,-0.0366,0.00976,-0.05124,0.02928,-0.05368,-0.07808,-0.10736,-0.08784,-0.0976
-0.09272,0.0854,-0.07808,-0.03172,0.01464,-0.05368,0.02928,-0.0488,-0.07808,-0.0976,-0.08784,-0.0976
-0.0976,0.08784,-0.07808,-0.02928,0.01952,-0.05856,0.02928,-0.0488,-0.07808,-0.08784,-0.08784,-0.0976
-0.0976,0.08784,-0.07808,-0.02928,0.01952,-0.05856,0.02928,-0.0488,-0.07808,-0.08784,-0.08784,-0.0976
-0.0976,0.08784,-0.07808,-0.02928,0.01952,-0.05856,0.02928,-0.0488,-0.07808,-0.08784,-0.08784,-0.0976
-0.10736,0.09272,-0.07808,-0.0244,0.02928,-0.06832,0.03416,-0.04392,-0.07808,-0.08784,-0.08784,-0.0976
-0.11712,0.0976,-0.07808,-0.01952,0.03904,-0.07808,0.03904,-0.03904,-0.07808,-0.08784,-0.08784,-0.0976
-0.11712,0.0976,-0.07808,-0.01952,0.03904,-0.07808,0.03904,-0.03904,-0.07808,-0.08784,-0.08784,-0.0976
-0.11712,0.0976,-0.07808,-0.01952,0.03904,-0.07808,0.03904,-0.03904,-0.07808,-0.08784,-0.08784,-0.0976
-0.10736,0.09516,-0.08296,-0.02928,0.0244,-0.06588,0.03904,-0.04392,-0.07808,-0.08784,-0.08784,-0.0976
-0.0976,0.09272,-0.08784,-0.03904,0.00976,-0.05368,0.03904,-0.0488,-0.07808,-0.08784,-0.08784,-0.0976
-0.0976,0.09272,-0.08784,-0.03904,0.00976,-0.05368,0.03904,-0.0488,-0.07808,-0.08784,-0.08296,-0.09272
-0.0976,0.09272,-0.08784,-0.03904,0.00976,-0.05368,0.03904,-0.0488,-0.07808,-0.08784,-0.07808,-0.08784
-0.0976,0.09272,-0.08784,-0.03904,0.00976,-0.05368,0.02928,-0.0488,-0.07808,-0.08784,-0.07808,-0.08784
-0.0976,0.09272,-0.08784,-0.03904,0.00976,-0.05368,0.01952,-0.0488,-0.07808,-0.08784,-0.07808,-0.08784
-0.0976,0.09272,-0.08784,-0.03904,0.00976,-0.05368,0.01952,-0.05368,-0.07808,-0.08784,-0.08296,-0.09272
-0.0976,0.09272,-0.08784,-0.03904,0.00976,-0.05368,0.01952,-0.05856,-0.07808,-0.08784,-0.08784,-0.0976
-0.0976,0.09272,-0.08784,-0.03904,0.00976,-0.05368,0.01952,-0.05856,-0.07808,-0.08784,-0.08784,-0.0976
-0.0976,0.09272,-0.08784,-0.03904,0.00976,-0.05368,0.01952,-0.05856,-0.07808,-0.08784,-0.08784,-0.0976
-0.0976,0.09272,-0.08784,-0.03904,0.00976,-0.05368,0.01952,-0.05856,-0.07808,-0.09272,-0.08784,-0.0976
-0.0976,0.09272,-0.08784,-0.03904,0.00976,-0.05368,0.01952,-0.05856,-0.07808,-0.0976,-0.08784,-0.0976
-0.0976,0.09272,-0.08784,-0.03904,0.00976,-0.05368,0.01952,-0.05856,-0.07808,-0.0976,-0.08784,-0.0976
-0.0976,0.09272,-0.08784,-0.03904,0.00976,-0.05368,0.01952,-0.05856,-0.07808,-0.0976,-0.08784,-0.0976
-0.0976,0.09272,-0.08784,-0.03904,0.00976,-0.05368,0.01464,-0.05856,-0.07808,-0.0976,-0.08784,-0.0976
-0.0976,0.09272,-0.08784,-0.03904,0.00976,-0.05368,0.00976,-0.05856,-0.07808,-0.0976,-0.08784,-0.0976
-0.10248,0.09272,-0.08296,-0.03172,0.01952,-0.061,0.00976,-0.05856,-0.07808,-0.0976,-0.08784,-0.0976
-0.10736,0.09272,-0.07808,-0.0244,0.02928,-0.06832,0.00976,-0.05856,-0.07808,-0.0976,-0.08784,-0.0976
-0.10736,0.09272,-0.07808,-0.0244,0.02928,-0.06832,0.01464,-0.05368,-0.07808,-0.0976,-0.08784,-0.0976
-0.10736,0.09272,-0.07808,-0.0244,0.02928,-0.06832,0.01952,-0.0488,-0.07808,-0.0976,-0.08784,-0.0976
-0.0976,0.08784,-0.07808,-0.02928,0.01952,-0.05856,0.01952,-0.0488,-0.07808,-0.0976,-0.08784,-0.0976
-0.09272,0.08052,-0.06832,-0.02196,0.0244,-0.05856,0.0244,-0.03904,-0.06832,-0.08784,-0.08296,-0.09272
-0.08784,0.07564,-0.06344,-0.01952,0.0244,-0.05612,0.02928,-0.02928,-0.05856,-0.08296,-0.07808,-0.08784
-0.08784,0.06588,-0.04392,0,0.04392,-0.06588,0.04392,-0.01464,-0.04392,-0.06832,-0.0732,-0.08296
-0.0732,0.05368,-0.03416,0.00244,0.03904,-0.05612,0.04392,-0.00976,-0.03904,-0.05856,-0.06832,-0.07808
-0.06344,0.04636,-0.02928,0.00244,0.03416,-0.0488,0.04392,-0.00488,-0.03904,-0.0488,-0.06832,-0.06832
-0.0732,0.05124,-0.02928,0.00732,0.04392,-0.05856,0.06344,0.00976,-0.03416,-0.0488,-0.05368,-0.06832
-0.08296,0.05612,-0.02928,0.0122,0.05368,-0.06832,0.05856,0.01464,-0.02928,-0.04392,-0.0488,-0.06344
-0.0732,0.04636,-0.01952,0.01708,0.05368,-0.06344,0.05368,0.01464,-0.02928,-0.04392,-0.0488,-0.06344
-0.06344,0.03904,-0.01464,0.01708,0.0488,-0.05612,0.04392,0.00488,-0.02928,-0.0488,-0.05368,-0.06344
-0.06344,0.04636,-0.02928,0.00244,0.03416,-0.0488,0.0244,-0.00488,-0.03416,-0.05368,-0.05368,-0.06344
-0.06344,0.0488,-0.03416,-0.00244,0.02928,-0.04636,0.01464,-0.01464,-0.0488,-0.0732,-0.05856,-0.06832
-0.06344,0.05124,-0.03904,-0.00732,0.0244,-0.04392,-0.00488,-0.04392,-0.05856,-0.07808,-0.06344,-0.0732
-0.06344,0.05124,-0.03904,-0.00732,0.0244,-0.04392,-0.01464,-0.05368,-0.05856,-0.07808,-0.06344,-0.0732
-0.06344,0.05124,-0.03904,-0.00732,0.0244,-0.04392,-0.01952,-0.0488,-0.06832,-0.0732,-0.06344,-0.06832
-0.06832,0.04636,-0.0244,0.00976,0.04392,-0.05612,-0.01464,-0.0488,-0.06832,-0.06344,-0.0488,-0.06344
-0.06832,0.04392,-0.01952,0.01464,0.0488,-0.05856,-0.00976,-0.0488,-0.05856,-0.06344,-0.0488,-0.05856
-0.06832,0.04148,-0.01464,0.01952,0.05368,-0.061,-0.00976,-0.0488,-0.05368,-0.06344,-0.0488,-0.05856
-0.05856,0.04148,-0.0244,0.00488,0.03416,-0.04636,-0.00976,-0.0488,-0.05368,-0.06832,-0.0488,-0.05856
-0.05856,0.0488,-0.03904,-0.00976,0.01952,-0.03904,-0.00976,-0.0488,-0.05368,-0.0732,-0.05856,-0.06344
-0.0488,0.04392,-0.03904,-0.01464,0.00976,-0.02928,-0.01464,-0.05856,-0.05856,-0.0732,-0.06344,-0.06344
-0.04392,0.0366,-0.02928,-0.00732,0.01464,-0.02928,-0.01952,-0.05856,-0.06344,-0.08296,-0.06832,-0.06832
-0.06344,0.05124,-0.03904,-0.00732,0.0244,-0.04392,-0.01464,-0.05856,-0.06344,-0.07808,-0.06344,-0.06832
-0.08296,0.06588,-0.0488,-0.00732,0.03416,-0.05856,-0.01464,-0.06344,-0.06832,-0.0732,-0.06344,-0.0732
-0.10248,0.08052,-0.05856,-0.00732,0.04392,-0.0732,-0.00976,-0.05856,-0.0732,-0.08296,-0.06832,-0.07808
-0.11712,0.09516,-0.0732,-0.01464,0.04392,-0.08052,-0.00976,-0.06344,-0.08296,-0.09272,-0.07808,-0.08784
-0.10736,0.09516,-0.08296,-0.02928,0.0244,-0.06588,-0.00976,-0.0732,-0.09272,-0.0976,-0.08784,-0.0976
-0.0976,0.09516,-0.09272,-0.04392,0.00488,-0.05124,-0.00976,-0.07808,-0.09272,-0.0976,-0.09272,-0.10248
-0.0976,0.09516,-0.09272,-0.04392,0.00488,-0.05124,-0.01464,-0.07808,-0.09272,-0.0976,-0.09272,-0.10248
-0.09272,0.09028,-0.08784,-0.04148,0.00488,-0.0488,-0.01952,-0.07808,-0.0976,-0.10248,-0.09272,-0.10736
-0.0976,0.09272,-0.08784,-0.03904,0.00976,-0.05368,-0.01952,-0.07808,-0.0976,-0.10248,-0.09272,-0.10736
-0.0976,0.09272,-0.08784,-0.03904,0.00976,-0.05368,-0.01464,-0.08296,-0.09272,-0.10248,-0.09272,-0.10248
-0.10248,0.0976,-0.09272,-0.04148,0.00976,-0.05612,-0.01464,-0.08296,-0.09272,-0.10248,-0.0976,-0.10248
-0.10736,0.10004,-0.09272,-0.03904,0.01464,-0.061,-0.01464,-0.08296,-0.09272,-0.10248,-0.0976,-0.10248
-0.11712,0.10492,-0.09272,-0.03416,0.0244,-0.07076,-0.00976,-0.07808,-0.09272,-0.0976,-0.0976,-0.10248
-0.122,0.10736,-0.09272,-0.03172,0.02928,-0.07564,-0.00488,-0.0732,-0.08784,-0.0976,-0.09272,-0.10248
-0.122,0.1098,-0.0976,-0.0366,0.0244,-0.0732,-0.00488,-0.0732,-0.08784,-0.0976,-0.09272,-0.10248
-0.122,0.1098,-0.0976,-0.0366,0.0244,-0.0732,-0.00488,-0.06832,-0.08784,-0.0976,-0.09272,-0.10248
-0.11224,0.10492,-0.0976,-0.04148,0.01464,-0.06344,-0.00488,-0.06832,-0.08784,-0.0976,-0.08784,-0.0976
-0.11224,0.10492,-0.0976,-0.04148,0.01464,-0.06344,-0.00488,-0.06832,-0.08784,-0.0976,-0.08296,-0.09272
-0.11712,0.1098,-0.10248,-0.04392,0.01464,-0.06588,-0.00976,-0.08784,-0.08784,-0.10248,-0.09272,-0.09272
-0.122,0.12444,-0.12688,-0.06588,-0.00488,-0.05856,-0.00488,-0.07808,-0.09272,-0.122,-0.11224,-0.10736
-0.13176,0.13908,-0.1464,-0.08052,-0.01464,-0.05856,0.04392,-0.05368,-0.12688,-0.16104,-0.15128,-0.1464
-0.13664,0.13908,-0.14152,-0.0732,-0.00488,-0.06588,0.06344,0,-0.11224,-0.15616,-0.16104,-0.15616
-0.15616,0.14884,-0.14152,-0.06344,0.01464,-0.0854,0.10248,0.11712,-0.05368,-0.12688,-0.15616,-0.1708
-0.11224,0.0976,-0.08296,-0.02684,0.02928,-0.07076,0.08784,0.20984,0.0488,-0.03416,-0.07808,-0.11224
-0.05856,0.02928,0,0.02928,0.05856,-0.05856,0.08296,0.25376,0.16104,0.08784,0.03904,-0.00488
0.06832,-0.11468,0.16104,0.12688,0.09272,-0.0122,-0.02928,0.10736,0.28792,0.28304,0.23912,0.1708
0.3904,-0.41968,0.44896,0.25376,0.05856,0.16592,-0.29768,-0.25376,0.53192,0.64904,0.61976,0.51728
0.72224,-0.71248,0.70272,0.3416,-0.01952,0.37088,-0.54168,-0.44896,0.78568,1.0004,0.976,0.81984
1.06384,-1.13216,1.20048,0.66856,0.13664,0.4636,-0.82472,-0.61488,1.16632,1.5128,1.49816,1.30784
1.24928,-1.31028,1.37128,0.74664,0.122,0.56364,-1.05896,-0.76128,1.1712,1.61528,1.6592,1.49328
1.27368,-1.1468,1.01992,0.38308,-0.25376,0.76372,-1.3664,-0.89792,0.6344,1.13704,1.28344,1.20536
1.13216,-0.93696,0.74176,0.17568,-0.3904,0.76128,-1.55184,-1.098,0.18056,0.68808,0.9272,0.93208
0.75152,-0.65636,0.5612,0.18544,-0.19032,0.47092,-1.55184,-1.44448,-0.2928,0.19032,0.5368,0.6588
0.37088,-0.3904,0.40992,0.22448,0.03904,0.16592,-1.342,-1.5372,-0.59048,-0.1708,0.20984,0.40016
0.0976,-0.20984,0.32208,0.27328,0.22448,-0.06344,-1.0004,-1.28344,-0.60512,-0.32208,-0.00976,0.1708
-0.03904,-0.11468,0.2684,0.28792,0.30744,-0.17324,-0.69784,-0.98576,-0.49776,-0.30744,-0.08784,0.0732
-0.0244,-0.08296,0.19032,0.20252,0.21472,-0.11956,-0.49776,-0.67832,-0.32208,-0.1952,-0.03416,0.06832
-0.01952,-0.05856,0.13664,0.1464,0.15616,-0.08784,-0.36112,-0.43432,-0.20496,-0.10736,0,0.05368
0.01952,-0.05612,0.09272,0.08296,0.0732,-0.02684,-0.27816,-0.25376,-0.1464,-0.08296,-0.00976,0.0244
0.03416,-0.03904,0.04392,0.02684,0.00976,0.0122,-0.19032,-0.12688,-0.10248,-0.06832,-0.01464,-0.00488
0.01464,-0.00488,-0.00488,-0.0122,-0.01952,0.01708,-0.11712,-0.07808,-0.05856,-0.05368,-0.01464,-0.01464
0,0.0122,-0.0244,-0.0244,-0.0244,0.0122,-0.07808,-0.0244,-0.04392,-0.03904,-0.01464,-0.01952
-0.00488,0.01952,-0.03416,-0.03172,-0.02928,0.0122,-0.05856,0.00976,-0.04392,-0.04392,-0.0244,-0.03416
-0.01464,0.0244,-0.03416,-0.02684,-0.01952,0.00244,-0.04392,0.00976,-0.0488,-0.05368,-0.03904,-0.0488
-0.03416,0.04148,-0.0488,-0.03172,-0.01464,-0.00976,-0.01952,0.00976,-0.0488,-0.05368,-0.03904,-0.0488
-0.0488,0.05124,-0.05368,-0.02928,-0.00488,-0.02196,-0.00976,0.03416,-0.03904,-0.0488,-0.03416,-0.0488
-0.04392,0.0488,-0.05368,-0.03172,-0.00976,-0.01708,-0.00488,0.05368,-0.03416,-0.0488,-0.03416,-0.05368
-0.04392,0.05124,-0.05856,-0.0366,-0.01464,-0.01464,0.00488,0.06832,-0.03416,-0.0488,-0.03904,-0.05368
-0.04392,0.05124,-0.05856,-0.0366,-0.01464,-0.01464,0.01952,0.06832,-0.02928,-0.0488,-0.04392,-0.05856
-0.03904,0.04636,-0.05368,-0.03416,-0.01464,-0.0122,0.01952,0.0732,-0.02928,-0.0488,-0.0488,-0.06344
-0.02928,0.04148,-0.05368,-0.03904,-0.0244,-0.00244,0.01464,0.08296,-0.02928,-0.04392,-0.0488,-0.06344
-0.0244,0.04148,-0.05856,-0.04636,-0.03416,0.00488,0.01464,0.09272,-0.01952,-0.04392,-0.04392,-0.05856
-0.01952,0.03904,-0.05856,-0.0488,-0.03904,0.00976,0.01952,0.09272,-0.01952,-0.04392,-0.03904,-0.05856
-0.01952,0.03904,-0.05856,-0.0488,-0.03904,0.00976,0.01952,0.09272,-0.01952,-0.03904,-0.03416,-0.05856
-0.02928,0.04392,-0.05856,-0.04392,-0.02928,0,0.02928,0.0976,-0.01952,-0.03904,-0.03416,-0.05856
-0.03416,0.04636,-0.05856,-0.04148,-0.0244,-0.00488,0.03904,0.10248,-0.01952,-0.03904,-0.03416,-0.05856
-0.03416,0.04392,-0.05368,-0.0366,-0.01952,-0.00732,0.02928,0.11224,-0.00976,-0.03416,-0.03416,-0.05856
-0.03416,0.04392,-0.05368,-0.0366,-0.01952,-0.00732,0.0244,0.11224,-0.00976,-0.02928,-0.02928,-0.05856
-0.0244,0.03904,-0.05368,-0.04148,-0.02928,0.00244,0.0244,0.11712,-0.00976,-0.02928,-0.02928,-0.05368
-0.0244,0.03904,-0.05368,-0.04148,-0.02928,0.00244,0.0244,0.12688,-0.00976,-0.03416,-0.02928,-0.05368
-0.0244,0.04148,-0.05856,-0.04636,-0.03416,0.00488,0.0244,0.12688,-0.00976,-0.03416,-0.02928,-0.05368
-0.0244,0.04392,-0.06344,-0.05124,-0.03904,0.00732,0.0244,0.13176,-0.00488,-0.02928,-0.0244,-0.05368
-0.01952,0.03904,-0.05856,-0.0488,-0.03904,0.00976,0.0244,0.13176,-0.00488,-0.02928,-0.01952,-0.05368
-0.01464,0.0366,-0.05856,-0.05124,-0.04392,0.01464,0.0244,0.13176,0,-0.0244,-0.01952,-0.05368
-0.01464,0.03172,-0.0488,-0.04148,-0.03416,0.00976,0.01952,0.13176,0,-0.02928,-0.01952,-0.05368
-0.00976,0.02684,-0.04392,-0.03904,-0.03416,0.0122,0.01952,0.13176,0,-0.03416,-0.01952,-0.05368
-0.00976,0.02684,-0.04392,-0.03904,-0.03416,0.0122,0.01952,0.12688,0,-0.02928,-0.0244,-0.0488
-0.00976,0.02684,-0.04392,-0.03904,-0.03416,0.0122,0.01464,0.12688,0.00488,-0.0244,-0.02928,-0.04392
-0.00488,0.0244,-0.04392,-0.04148,-0.03904,0.01708,0.01952,0.13176,0.00488,-0.0244,-0.0244,-0.04392
0,0.01952,-0.03904,-0.03904,-0.03904,0.01952,0.01952,0.13664,0.00976,-0.0244,-0.0244,-0.04392
-0.00488,0.0244,-0.04392,-0.04148,-0.03904,0.01708,0.01952,0.14152,0.00976,-0.01952,-0.0244,-0.04392
-0.00488,0.02684,-0.0488,-0.04636,-0.04392,0.01952,0.01952,0.15128,0.00976,-0.01464,-0.01952,-0.04392
-0.00488,0.02684,-0.0488,-0.04636,-0.04392,0.01952,0.01952,0.15128,0.00976,-0.00976,-0.01952,-0.03904
-0.00976,0.02684,-0.04392,-0.03904,-0.03416,0.0122,0.01952,0.15128,0.00976,-0.00976,-0.01952,-0.03416
-0.02928,0.03416,-0.03904,-0.0244,-0.00976,-0.00976,0.01952,0.15616,0.01952,-0.00488,0,-0.0244
-0.04392,0.04148,-0.03904,-0.01708,0.00488,-0.0244,0.0244,0.16104,0.01952,0,0.00976,-0.0244
-0.00976,0.0244,-0.03904,-0.03416,-0.02928,0.00976,0.01952,0.16104,0.01952,-0.00976,-0.00488,-0.02928
0.02928,0.00488,-0.03904,-0.05368,-0.06832,0.0488,0.01464,0.16104,0.01464,-0.01952,-0.01952,-0.03904
0.04392,-0.00488,-0.03416,-0.05612,-0.07808,0.061,0.01464,0.16592,0.01464,-0.01952,-0.01952,-0.03904
0.04392,-0.00488,-0.03416,-0.05612,-0.07808,0.061,0.01464,0.16592,0.01464,-0.01464,-0.01464,-0.03904
0.02928,0,-0.02928,-0.04392,-0.05856,0.04392,0.0244,0.1708,0.01952,-0.00976,-0.00976,-0.03416
0.01464,0.00488,-0.0244,-0.03172,-0.03904,0.02684,0.02928,0.18056,0.02928,-0.00488,0,-0.01952
0.01952,-0.00244,-0.01464,-0.0244,-0.03416,0.02684,0.03416,0.18544,0.02928,0,0,-0.01952
0.0244,-0.00732,-0.00976,-0.02196,-0.03416,0.02928,0.03416,0.1952,0.03416,0.00488,0.00488,-0.01464
0.03416,-0.0122,-0.00976,-0.02684,-0.04392,0.03904,0.03904,0.20008,0.03416,0.00976,0.00488,-0.00976
0.03904,-0.01708,-0.00488,-0.0244,-0.04392,0.04148,0.04392,0.20984,0.03904,0.01952,0.00976,-0.00976
0.03904,-0.01952,0,-0.01952,-0.03904,0.03904,0.05368,0.2196,0.0488,0.01952,0.01464,-0.00976
0.03904,-0.01708,-0.00488,-0.0244,-0.04392,0.04148,0.05856,0.22936,0.05368,0.01952,0.01952,-0.00488
0.0488,-0.02684,0.00488,-0.01952,-0.04392,0.04636,0.05856,0.23424,0.05368,0.0244,0.0244,-0.00488
0.06344,-0.04148,0.01952,-0.0122,-0.04392,0.05368,0.06344,0.244,0.05856,0.0244,0.0244,0.00488
0.0732,-0.05124,0.02928,-0.00732,-0.04392,0.05856,0.06832,0.24888,0.06344,0.03416,0.02928,0.00488
0.07808,-0.05856,0.03904,0,-0.03904,0.05856,0.0732,0.25376,0.06832,0.03904,0.03416,0.00976
0.07808,-0.05368,0.02928,-0.00976,-0.0488,0.06344,0.08296,0.2684,0.08296,0.05368,0.0488,0.0244
0.07808,-0.05856,0.03904,0,-0.03904,0.05856,0.09272,0.28304,0.09272,0.06344,0.06344,0.03416
0.08784,-0.07076,0.05368,0.00976,-0.03416,0.061,0.09272,0.28792,0.09272,0.06344,0.06344,0.04392
0.11224,-0.09272,0.0732,0.01708,-0.03904,0.07564,0.0976,0.30256,0.0976,0.06832,0.0732,0.0488
0.122,-0.10736,0.09272,0.03172,-0.02928,0.07564,0.0976,0.31232,0.10736,0.08296,0.08296,0.05856
0.14152,-0.11956,0.0976,0.02684,-0.04392,0.09272,0.0976,0.3172,0.10736,0.08784,0.08784,0.06832
0.15616,-0.13664,0.11712,0.03904,-0.03904,0.0976,0.0976,0.32696,0.122,0.10248,0.10248,0.07808
0.15128,-0.1464,0.14152,0.06588,-0.00976,0.08052,0.09272,0.3416,0.14152,0.11224,0.13176,0.10248
0.1708,-0.16348,0.15616,0.07076,-0.01464,0.09272,0.0976,0.34648,0.14152,0.122,0.14152,0.122
0.18056,-0.17324,0.16592,0.07564,-0.01464,0.0976,0.0976,0.34648,0.15128,0.13664,0.15128,0.13664
0.20496,-0.19276,0.18056,0.07808,-0.0244,0.11468,0.08784,0.3416,0.15616,0.14152,0.16592,0.15616
0.2196,-0.20984,0.20008,0.09028,-0.01952,0.11956,0.07808,0.33672,0.16104,0.15616,0.18544,0.17568
0.244,-0.22936,0.21472,0.09272,-0.02928,0.13664,0.05856,0.33184,0.16104,0.16592,0.19032,0.18544
0.25864,-0.24888,0.23912,0.1098,-0.01952,0.13908,0.04392,0.33184,0.15616,0.17568,0.20496,0.1952
0.27816,-0.26108,0.244,0.10492,-0.03416,0.15616,0.01464,0.32208,0.16104,0.18544,0.20984,0.20984
0.28304,-0.2684,0.25376,0.11224,-0.02928,0.15616,-0.00976,0.30744,0.16104,0.1952,0.22936,0.2196
0.28792,-0.27572,0.26352,0.11956,-0.0244,0.15616,-0.04392,0.28792,0.16592,0.20496,0.24888,0.244
0.31232,-0.29036,0.2684,0.11224,-0.04392,0.17812,-0.07808,0.27328,0.16592,0.20496,0.26352,0.25864
0.3172,-0.29768,0.27816,0.11956,-0.03904,0.17812,-0.10248,0.25864,0.16104,0.20984,0.26352,0.25864
0.3172,-0.30012,0.28304,0.12444,-0.03416,0.17568,-0.12688,0.23912,0.15616,0.20984,0.25864,0.25376
0.29768,-0.2806,0.26352,0.11468,-0.03416,0.16592,-0.13664,0.2196,0.16104,0.21472,0.26352,0.25376
0.2928,-0.2684,0.244,0.0976,-0.0488,0.1708,-0.14152,0.1952,0.15616,0.20984,0.25376,0.25376
0.2684,-0.24888,0.22936,0.09516,-0.03904,0.15372,-0.1464,0.18056,0.1464,0.1952,0.244,0.22936
0.244,-0.23424,0.22448,0.10248,-0.01952,0.13176,-0.15128,0.16592,0.13664,0.18544,0.22448,0.21472
0.2196,-0.2074,0.1952,0.0854,-0.0244,0.122,-0.1464,0.13664,0.11712,0.15128,0.19032,0.18056
0.19032,-0.17568,0.16104,0.06588,-0.02928,0.1098,-0.12688,0.11712,0.10736,0.12688,0.16592,0.15128
0.1464,-0.13664,0.12688,0.05368,-0.01952,0.08296,-0.11712,0.11224,0.08296,0.10248,0.14152,0.11712
0.10248,-0.0976,0.09272,0.04148,-0.00976,0.05612,-0.10736,0.10248,0.06344,0.09272,0.122,0.09272
0.08296,-0.07808,0.0732,0.03172,-0.00976,0.04636,-0.10736,0.06832,0.04392,0.06344,0.08784,0.06832
0.05856,-0.05612,0.05368,0.0244,-0.00488,0.03172,-0.10248,0.04392,0.0244,0.02928,0.05856,0.0488
0.02928,-0.03172,0.03416,0.01952,0.00488,0.0122,-0.09272,0.03416,0.01464,0.00488,0.03416,0.02928
0.00976,-0.0122,0.01464,0.00976,0.00488,0.00244,-0.08784,0.0244,0.00488,-0.00488,0.01952,0.00976
-0.01952,0.0122,-0.00488,0.00488,0.01464,-0.01708,-0.08296,0.01952,-0.00488,-0.01464,0.00488,-0.00976
-0.04392,0.03172,-0.01952,0.00244,0.0244,-0.03416,-0.07808,0.00488,-0.00976,-0.0244,-0.00488,-0.01464
-0.03416,0.03172,-0.02928,-0.0122,0.00488,-0.01952,-0.0732,-0.00488,-0.01464,-0.03416,-0.01952,-0.02928
-0.02928,0.03172,-0.03416,-0.01952,-0.00488,-0.0122,-0.0732,-0.00488,-0.0244,-0.03904,-0.02928,-0.03904
-0.04392,0.03904,-0.03416,-0.0122,0.00976,-0.02684,-0.0732,-0.01464,-0.03416,-0.04392,-0.03416,-0.04392
-0.05856,0.0488,-0.03904,-0.00976,0.01952,-0.03904,-0.0732,-0.01952,-0.03904,-0.05368,-0.03904,-0.05368
-0.0488,0.04636,-0.04392,-0.01952,0.00488,-0.02684,-0.0732,-0.0244,-0.03904,-0.05856,-0.05368,-0.05856
-0.0488,0.0488,-0.0488,-0.0244,0,-0.0244,-0.0732,-0.02928,-0.04392,-0.06344,-0.05856,-0.05856
-0.0488,0.04636,-0.04392,-0.01952,0.00488,-0.02684,-0.06832,-0.03416,-0.0488,-0.06832,-0.05856,-0.05856
-0.05856,0.05368,-0.0488,-0.01952,0.00976,-0.03416,-0.06832,-0.03904,-0.0488,-0.06832,-0.06832,-0.06344
-0.0732,0.061,-0.0488,-0.0122,0.0244,-0.0488,-0.05856,-0.03904,-0.0488,-0.06344,-0.06344,-0.06344
-0.08296,0.06588,-0.0488,-0.00732,0.03416,-0.05856,-0.05368,-0.03904,-0.0488,-0.06344,-0.05856,-0.06344
-0.07808,0.07076,-0.06344,-0.0244,0.01464,-0.04636,-0.05368,-0.03904,-0.0488,-0.06344,-0.05856,-0.06344
-0.07808,0.07564,-0.0732,-0.03416,0.00488,-0.04148,-0.05368,-0.03904,-0.05368,-0.06832,-0.06344,-0.06832
-0.08784,0.08052,-0.0732,-0.02928,0.01464,-0.05124,-0.05368,-0.03904,-0.05368,-0.06832,-0.06344,-0.06832
-0.08784,0.08052,-0.0732,-0.02928,0.01464,-0.05124,-0.05368,-0.03904,-0.05368,-0.06832,-0.06344,-0.06832
-0.0732,0.0732,-0.0732,-0.0366,0,-0.0366,-0.05856,-0.04392,-0.06344,-0.07808,-0.06344,-0.0732
-0.06344,0.06832,-0.0732,-0.04148,-0.00976,-0.02684,-0.06344,-0.05368,-0.06832,-0.08296,-0.06832,-0.07808
-0.06832,0.0732,-0.07808,-0.04392,-0.00976,-0.02928,-0.06344,-0.05368,-0.06832,-0.08296,-0.0732,-0.08296
-0.06832,0.07564,-0.08296,-0.0488,-0.01464,-0.02684,-0.05856,-0.05368,-0.06832,-0.08296,-0.07808,-0.08296
-0.06832,0.07564,-0.08296,-0.0488,-0.01464,-0.02684,-0.05856,-0.05368,-0.0732,-0.09272,-0.07808,-0.08784
-0.06344,0.0732,-0.08296,-0.05124,-0.01952,-0.02196,-0.05856,-0.05368,-0.0732,-0.09272,-0.07808,-0.08784
-0.06344,0.0732,-0.08296,-0.05124,-0.01952,-0.02196,-0.05856,-0.05368,-0.0732,-0.09272,-0.07808,-0.08784
-0.06832,0.07808,-0.08784,-0.05368,-0.01952,-0.0244,-0.05856,-0.05368,-0.0732,-0.08784,-0.07808,-0.08784
-0.0732,0.08052,-0.08784,-0.05124,-0.01464,-0.02928,-0.05856,-0.0488,-0.0732,-0.08784,-0.07808,-0.08296
-0.07808,0.08052,-0.08296,-0.04392,-0.00488,-0.0366,-0.05856,-0.0488,-0.0732,-0.08784,-0.08296,-0.08296
-0.07808,0.07808,-0.07808,-0.03904,0,-0.03904,-0.05856,-0.0488,-0.0732,-0.08784,-0.08296,-0.08296
-0.08296,0.07808,-0.0732,-0.03172,0.00976,-0.04636,-0.05368,-0.04392,-0.06832,-0.08784,-0.07808,-0.08296
-0.08784,0.08052,-0.0732,-0.02928,0.01464,-0.05124,-0.05368,-0.04392,-0.06832,-0.08784,-0.07808,-0.07808
-0.08784,0.08296,-0.07808,-0.03416,0.00976,-0.0488,-0.05368,-0.04392,-0.06832,-0.08784,-0.07808,-0.0732
-0.08296,0.08296,-0.08296,-0.04148,0,-0.04148,-0.05856,-0.04392,-0.06832,-0.08784,-0.08296,-0.08296
-0.06832,0.07564,-0.08296,-0.0488,-0.01464,-0.02684,-0.05856,-0.04392,-0.06832,-0.08784,-0.08296,-0.08296
-0.07808,0.08296,-0.08784,-0.0488,-0.00976,-0.03416,-0.05856,-0.04392,-0.06832,-0.08784,-0.07808,-0.08296
-0.08296,0.08784,-0.09272,-0.05124,-0.00976,-0.0366,-0.05856,-0.04392,-0.06832,-0.08784,-0.07808,-0.08784
-0.08784,0.09028,-0.09272,-0.0488,-0.00488,-0.04148,-0.05368,-0.03904,-0.06832,-0.08296,-0.07808,-0.08296
-0.09272,0.09516,-0.0976,-0.05124,-0.00488,-0.04392,-0.0488,-0.03416,-0.06832,-0.08296,-0.07808,-0.08296
-0.09272,0.09272,-0.09272,-0.04636,0,-0.04636,-0.04392,-0.02928,-0.06832,-0.08296,-0.08296,-0.08296
-0.09272,0.08784,-0.08296,-0.0366,0.00976,-0.05124,-0.04392,-0.02928,-0.06344,-0.08296,-0.08296,-0.08784
-0.09272,0.08784,-0.08296,-0.0366,0.00976,-0.05124,-0.05856,-0.03416,-0.06344,-0.08784,-0.08296,-0.08784
-0.08784,0.08296,-0.07808,-0.03416,0.00976,-0.0488,-0.06832,-0.04392,-0.06344,-0.09272,-0.08784,-0.08784
-0.08784,0.08296,-0.07808,-0.03416,0.00976,-0.0488,-0.06832,-0.04392,-0.06832,-0.09272,-0.08784,-0.09272
-0.08784,0.08296,-0.07808,-0.03416,0.00976,-0.0488,-0.06832,-0.04392,-0.06832,-0.09272,-0.08784,-0.09272
-0.08784,0.08296,-0.07808,-0.03416,0.00976,-0.0488,-0.06832,-0.04392,-0.06344,-0.08296,-0.08784,-0.09272
-0.08784,0.08296,-0.07808,-0.03416,0.00976,-0.0488,-0.06832,-0.04392,-0.06344,-0.0732,-0.08784,-0.09272
-0.08296,0.08052,-0.07808,-0.0366,0.00488,-0.04392,-0.0732,-0.04392,-0.06832,-0.08296,-0.08784,-0.09272
-0.07808,0.07808,-0.07808,-0.03904,0,-0.03904,-0.0732,-0.04392,-0.06832,-0.09272,-0.08784,-0.09272
-0.08296,0.08052,-0.07808,-0.0366,0.00488,-0.04392,-0.0732,-0.04392,-0.06344,-0.09272,-0.08296,-0.08784
-0.08296,0.08052,-0.07808,-0.0366,0.00488,-0.04392,-0.06832,-0.04392,-0.06344,-0.09272,-0.08296,-0.07808
-0.0976,0.08784,-0.07808,-0.02928,0.01952,-0.05856,-0.06344,-0.04392,-0.06344,-0.08784,-0.07808,-0.07808
-0.10736,0.09272,-0.07808,-0.0244,0.02928,-0.06832,-0.06344,-0.04392,-0.06344,-0.08296,-0.07808,-0.07808
-0.08784,0.08296,-0.07808,-0.03416,0.00976,-0.0488,-0.06832,-0.0488,-0.06344,-0.08296,-0.07808,-0.07808
-0.06832,0.0732,-0.07808,-0.04392,-0.00976,-0.02928,-0.06832,-0.05368,-0.06832,-0.08296,-0.08296,-0.07808
-0.0732,0.07564,-0.07808,-0.04148,-0.00488,-0.03416,-0.06832,-0.05368,-0.06832,-0.08296,-0.07808,-0.07808
-0.08296,0.08052,-0.07808,-0.0366,0.00488,-0.04392,-0.06832,-0.05856,-0.06344,-0.08296,-0.08296,-0.07808
-0.08784,0.08296,-0.07808,-0.03416,0.00976,-0.0488,-0.06832,-0.05856,-0.06344,-0.08296,-0.08296,-0.07808
-0.08784,0.08296,-0.07808,-0.03416,0.00976,-0.0488,-0.06832,-0.05368,-0.06344,-0.08296,-0.0732,-0.07808
-0.08784,0.08052,-0.0732,-0.02928,0.01464,-0.05124,-0.06832,-0.05368,-0.06344,-0.08296,-0.0732,-0.07808
-0.08784,0.08052,-0.0732,-0.02928,0.01464,-0.05124,-0.06832,-0.05368,-0.06344,-0.08296,-0.0732,-0.07808
-0.10248,0.08784,-0.0732,-0.02196,0.02928,-0.06588,-0.06832,-0.05368,-0.06344,-0.08296,-0.0732,-0.07808
-0.11712,0.09272,-0.06832,-0.00976,0.0488,-0.08296,-0.06832,-0.06344,-0.06832,-0.08784,-0.07808,-0.08296
-0.09272,0.08052,-0.06832,-0.02196,0.0244,-0.05856,-0.07808,-0.06344,-0.06832,-0.08784,-0.08296,-0.08296
-0.07808,0.0732,-0.06832,-0.02928,0.00976,-0.04392,-0.08296,-0.06344,-0.06832,-0.08784,-0.08784,-0.08296
-0.07808,0.0732,-0.06832,-0.02928,0.00976,-0.04392,-0.07808,-0.06344,-0.06832,-0.08784,-0.08784,-0.08296
-0.0976,0.0854,-0.0732,-0.0244,0.0244,-0.061,-0.07808,-0.05856,-0.05856,-0.08296,-0.08784,-0.07808
-0.0976,0.0854,-0.0732,-0.0244,0.0244,-0.061,-0.07808,-0.05856,-0.06832,-0.08296,-0.08784,-0.07808
-0.08784,0.07808,-0.06832,-0.0244,0.01952,-0.05368,-0.07808,-0.05856,-0.06832,-0.08296,-0.08784,-0.07808
-0.08784,0.07808,-0.06832,-0.0244,0.01952,-0.05368,-0.07808,-0.05856,-0.06832,-0.08784,-0.08784,-0.08784
-0.08784,0.07808,-0.06832,-0.0244,0.01952,-0.05368,-0.07808,-0.05856,-0.06344,-0.08784,-0.08784,-0.07808
-0.09272,0.08052,-0.06832,-0.02196,0.0244,-0.05856,-0.07808,-0.05856,-0.06344,-0.08296,-0.08296,-0.07808
-0.09272,0.08052,-0.06832,-0.02196,0.0244,-0.05856,-0.07808,-0.05856,-0.06344,-0.08296,-0.08296,-0.07808
-0.08784,0.07808,-0.06832,-0.0244,0.01952,-0.05368,-0.07808,-0.05856,-0.06832,-0.08296,-0.08296,-0.08296
-0.08784,0.07808,-0.06832,-0.0244,0.01952,-0.05368,-0.07808,-0.06344,-0.0732,-0.08784,-0.07808,-0.08296
-0.0976,0.08296,-0.06832,-0.01952,0.02928,-0.06344,-0.07808,-0.06344,-0.0732,-0.08784,-0.08296,-0.08296
-0.11224,0.09028,-0.06832,-0.0122,0.04392,-0.07808,-0.07808,-0.06344,-0.0732,-0.08784,-0.08296,-0.08296
-0.10248,0.0854,-0.06832,-0.01708,0.03416,-0.06832,-0.07808,-0.06344,-0.06832,-0.08784,-0.08296,-0.08784
-0.09272,0.08052,-0.06832,-0.02196,0.0244,-0.05856,-0.07808,-0.06344,-0.06832,-0.08784,-0.08296,-0.09272
-0.0732,0.0732,-0.0732,-0.0366,0,-0.0366,-0.07808,-0.06344,-0.06832,-0.08784,-0.08296,-0.09272
-0.05856,0.06832,-0.07808,-0.0488,-0.01952,-0.01952,-0.07808,-0.06344,-0.0732,-0.08784,-0.08296,-0.09272
-0.0732,0.07564,-0.07808,-0.04148,-0.00488,-0.03416,-0.07808,-0.06344,-0.06832,-0.08296,-0.08296,-0.08296
-0.09272,0.0854,-0.07808,-0.03172,0.01464,-0.05368,-0.07808,-0.06344,-0.05856,-0.07808,-0.07808,-0.0732
-0.09272,0.08052,-0.06832,-0.02196,0.0244,-0.05856,-0.08296,-0.06344,-0.05856,-0.07808,-0.07808,-0.0732
-0.09272,0.07808,-0.06344,-0.01708,0.02928,-0.061,-0.08784,-0.06344,-0.05856,-0.07808,-0.07808,-0.0732
-0.09272,0.07808,-0.06344,-0.01708,0.02928,-0.061,-0.08784,-0.06344,-0.06344,-0.08296,-0.08784,-0.08296
-0.09272,0.07808,-0.06344,-0.01708,0.02928,-0.061,-0.08784,-0.06832,-0.06832,-0.08784,-0.08784,-0.08296
-0.08784,0.07808,-0.06832,-0.0244,0.01952,-0.05368,-0.08784,-0.06344,-0.06832,-0.08784,-0.08784,-0.07808
-0.08296,0.07808,-0.0732,-0.03172,0.00976,-0.04636,-0.08784,-0.06344,-0.06832,-0.08784,-0.08784,-0.07808
-0.07808,0.07564,-0.0732,-0.03416,0.00488,-0.04148,-0.08296,-0.05856,-0.06832,-0.08784,-0.08784,-0.07808
-0.07808,0.07808,-0.07808,-0.03904,0,-0.03904,-0.07808,-0.05856,-0.06832,-0.08784,-0.08784,-0.07808
-0.07808,0.07808,-0.07808,-0.03904,0,-0.03904,-0.07808,-0.06344,-0.06832,-0.08784,-0.08784,-0.08296
-0.07808,0.07808,-0.07808,-0.03904,0,-0.03904,-0.07808,-0.06832,-0.06832,-0.08784,-0.08784,-0.08784
-0.07808,0.07808,-0.07808,-0.03904,0,-0.03904,-0.07808,-0.06832,-0.06832,-0.08784,-0.08784,-0.08784
-0.07808,0.07808,-0.07808,-0.03904,0,-0.03904,-0.07808,-0.06832,-0.06832,-0.08784,-0.08784,-0.08784
-0.07808,0.07564,-0.0732,-0.03416,0.00488,-0.04148,-0.08296,-0.06832,-0.06832,-0.08784,-0.08784,-0.08296
-0.07808,0.0732,-0.06832,-0.02928,0.00976,-0.04392,-0.08784,-0.06832,-0.06832,-0.08784,-0.08784,-0.07808
-0.08296,0.07564,-0.06832,-0.02684,0.01464,-0.0488,-0.08784,-0.06832,-0.06832,-0.08784,-0.08784,-0.07808
-0.08784,0.07808,-0.06832,-0.0244,0.01952,-0.05368,-0.08784,-0.06832,-0.06832,-0.08784,-0.08784,-0.07808
-0.08784,0.07808,-0.06832,-0.0244,0.01952,-0.05368,-0.08784,-0.06832,-0.06832,-0.08784,-0.08784,-0.08296
-0.08784,0.07808,-0.06832,-0.0244,0.01952,-0.05368,-0.08784,-0.06832,-0.06832,-0.08784,-0.08784,-0.08784
-0.08784,0.07808,-0.06832,-0.0244,0.01952,-0.05368,-0.08784,-0.06832,-0.06832,-0.08784,-0.08784,-0.08784
-0.08784,0.07808,-0.06832,-0.0244,0.01952,-0.05368,-0.08784,-0.06832,-0.06832,-0.08784,-0.08784,-0.08784
-0.08784,0.07808,-0.06832,-0.0244,0.01952,-0.05368,-0.08784,-0.06832,-0.06832,-0.08784,-0.08784,-0.08784
-0.08784,0.07808,-0.06832,-0.0244,0.01952,-0.05368,-0.08784,-0.06832,-0.06832,-0.08784,-0.08784,-0.08784
-0.08784,0.07808,-0.06832,-0.0244,0.01952,-0.05368,-0.08784,-0.06832,-0.06832,-0.08784,-0.08784,-0.08784
-0.08784,0.07808,-0.06832,-0.0244,0.01952,-0.05368,-0.08784,-0.06832,-0.06832,-0.08784,-0.08784,-0.08784
-0.08784,0.07808,-0.06832,-0.0244,0.01952,-0.05368,-0.08784,-0.06832,-0.06832,-0.08784,-0.08784,-0.08784
-0.08784,0.07808,-0.06832,-0.0244,0.01952,-0.05368,-0.08784,-0.06832,-0.06832,-0.08784,-0.08784,-0.08784
-0.09272,0.08052,-0.06832,-0.02196,0.0244,-0.05856,-0.08784,-0.06832,-0.06832,-0.08784,-0.08784,-0.08296
-0.0976,0.08296,-0.06832,-0.01952,0.02928,-0.06344,-0.08784,-0.06832,-0.06832,-0.08784,-0.08784,-0.07808
-0.0976,0.08296,-0.06832,-0.01952,0.02928,-0.06344,-0.08784,-0.06344,-0.06832,-0.08296,-0.08784,-0.07808
-0.0976,0.08296,-0.06832,-0.01952,0.02928,-0.06344,-0.08784,-0.05856,-0.06832,-0.07808,-0.08784,-0.07808
-0.11224,0.09272,-0.0732,-0.01708,0.03904,-0.07564,-0.08296,-0.05856,-0.06832,-0.07808,-0.08784,-0.07808
-0.12688,0.10248,-0.07808,-0.01464,0.0488,-0.08784,-0.07808,-0.05856,-0.06832,-0.07808,-0.08784,-0.07808
-0.11712,0.0976,-0.07808,-0.01952,0.03904,-0.07808,-0.07808,-0.06344,-0.06832,-0.07808,-0.08784,-0.07808
-0.10736,0.09272,-0.07808,-0.0244,0.02928,-0.06832,-0.07808,-0.06832,-0.06832,-0.07808,-0.08784,-0.07808
-0.0732,0.07564,-0.07808,-0.04148,-0.00488,-0.03416,-0.08784,-0.06832,-0.07808,-0.09272,-0.0976,-0.08296
-0.03904,0.05856,-0.07808,-0.05856,-0.03904,0,-0.0976,-0.06832,-0.08784,-0.10736,-0.10736,-0.08784
-0.06344,0.06832,-0.0732,-0.04148,-0.00976,-0.02684,-0.08784,-0.06344,-0.07808,-0.0976,-0.0976,-0.08784
-0.08784,0.07808,-0.06832,-0.0244,0.01952,-0.05368,-0.07808,-0.05856,-0.06832,-0.08784,-0.08784,-0.08784
-0.08784,0.07808,-0.06832,-0.0244,0.01952,-0.05368,-0.07808,-0.05856,-0.06832,-0.08296,-0.08296,-0.08784
-0.08784,0.07564,-0.06344,-0.01952,0.0244,-0.05612,-0.0732,-0.0488,-0.05856,-0.0732,-0.0732,-0.07808
-0.08784,0.0732,-0.05856,-0.01464,0.02928,-0.05856,-0.06832,-0.04392,-0.0488,-0.06832,-0.06832,-0.0732
-0.08784,0.06588,-0.04392,0,0.04392,-0.06588,-0.05368,-0.03416,-0.03416,-0.05856,-0.06344,-0.06344
-0.06832,0.05124,-0.03416,0,0.03416,-0.05124,-0.05368,-0.02928,-0.02928,-0.05856,-0.06344,-0.06344
-0.05368,0.04148,-0.02928,-0.00244,0.0244,-0.03904,-0.05368,-0.0244,-0.02928,-0.05856,-0.06832,-0.05856
-0.04392,0.0366,-0.02928,-0.00732,0.01464,-0.02928,-0.03904,-0.01464,-0.03416,-0.05856,-0.05856,-0.05856
-0.03416,0.03172,-0.02928,-0.0122,0.00488,-0.01952,-0.0488,-0.01464,-0.03904,-0.05368,-0.05856,-0.05368
-0.04392,0.03172,-0.01952,0.00244,0.0244,-0.03416,-0.0488,-0.01464,-0.02928,-0.0488,-0.05856,-0.05368
-0.05368,0.03416,-0.01464,0.0122,0.03904,-0.04636,-0.05368,-0.0244,-0.01952,-0.0488,-0.06344,-0.05368
-0.05368,0.04148,-0.02928,-0.00244,0.0244,-0.03904,-0.0732,-0.03416,-0.0244,-0.0488,-0.06344,-0.05368
-0.05368,0.04392,-0.03416,-0.00732,0.01952,-0.0366,-0.08296,-0.04392,-0.03904,-0.06344,-0.06832,-0.05856
-0.0488,0.04148,-0.03416,-0.00976,0.01464,-0.03172,-0.10736,-0.06344,-0.0488,-0.06832,-0.06832,-0.06344
-0.04392,0.0366,-0.02928,-0.00732,0.01464,-0.02928,-0.122,-0.06344,-0.0488,-0.06832,-0.06344,-0.06344
-0.04392,0.0366,-0.02928,-0.00732,0.01464,-0.02928,-0.122,-0.05856,-0.0488,-0.06344,-0.06344,-0.05368
-0.0488,0.03172,-0.01464,0.00976,0.03416,-0.04148,-0.11224,-0.05856,-0.03904,-0.05368,-0.0488,-0.04392
-0.05368,0.0366,-0.01952,0.00732,0.03416,-0.04392,-0.10736,-0.05856,-0.03904,-0.05368,-0.05368,-0.03904
-0.05856,0.04148,-0.0244,0.00488,0.03416,-0.04636,-0.10736,-0.05856,-0.04392,-0.05368,-0.05856,-0.03904
-0.0488,0.04148,-0.03416,-0.00976,0.01464,-0.03172,-0.10736,-0.05856,-0.0488,-0.05856,-0.05856,-0.04392
-0.0488,0.0488,-0.0488,-0.0244,0,-0.0244,-0.10736,-0.05856,-0.05368,-0.06344,-0.06832,-0.05368
-0.05856,0.05368,-0.0488,-0.01952,0.00976,-0.03416,-0.10736,-0.06832,-0.05856,-0.06344,-0.06832,-0.05368
-0.0732,0.05612,-0.03904,-0.00244,0.03416,-0.05368,-0.10736,-0.06832,-0.06344,-0.0732,-0.06832,-0.05856
-0.08296,0.06588,-0.0488,-0.00732,0.03416,-0.05856,-0.10248,-0.06832,-0.05368,-0.0732,-0.06832,-0.06344
-0.09272,0.07564,-0.05856,-0.0122,0.03416,-0.06344,-0.10248,-0.0732,-0.0488,-0.0732,-0.0732,-0.0732
-0.09272,0.07808,-0.06344,-0.01708,0.02928,-0.061,-0.10248,-0.0732,-0.06344,-0.08784,-0.08296,-0.07808
-0.08784,0.08052,-0.0732,-0.02928,0.01464,-0.05124,-0.10736,-0.08296,-0.08296,-0.10248,-0.0976,-0.08784
-0.0732,0.07564,-0.07808,-0.04148,-0.00488,-0.03416,-0.10736,-0.09272,-0.09272,-0.10736,-0.10248,-0.09272
-0.05856,0.07076,-0.08296,-0.05368,-0.0244,-0.01708,-0.10736,-0.0976,-0.09272,-0.10736,-0.10248,-0.09272
-0.0732,0.07808,-0.08296,-0.04636,-0.00976,-0.03172,-0.10736,-0.0976,-0.08296,-0.10248,-0.10248,-0.09272
-0.08296,0.08052,-0.07808,-0.0366,0.00488,-0.04392,-0.10736,-0.0976,-0.07808,-0.10248,-0.10248,-0.0976
-0.08784,0.08296,-0.07808,-0.03416,0.00976,-0.0488,-0.10736,-0.09272,-0.08784,-0.10248,-0.10248,-0.0976
-0.08784,0.08296,-0.07808,-0.03416,0.00976,-0.0488,-0.10248,-0.09272,-0.09272,-0.10248,-0.10248,-0.09272
-0.08784,0.0854,-0.08296,-0.03904,0.00488,-0.04636,-0.10248,-0.09272,-0.09272,-0.10736,-0.10736,-0.09272
-0.08784,0.0854,-0.08296,-0.03904,0.00488,-0.04636,-0.10248,-0.09272,-0.09272,-0.11224,-0.10736,-0.09272
-0.0976,0.09028,-0.08296,-0.03416,0.01464,-0.05612,-0.0976,-0.08784,-0.09272,-0.10736,-0.10736,-0.09272
-0.10248,0.09272,-0.08296,-0.03172,0.01952,-0.061,-0.09272,-0.08296,-0.08784,-0.10736,-0.10248,-0.09272
-0.10736,0.10248,-0.0976,-0.04392,0.00976,-0.05856,-0.09272,-0.08296,-0.08784,-0.10736,-0.10248,-0.09272
-0.11224,0.1098,-0.10736,-0.05124,0.00488,-0.05856,-0.09272,-0.07808,-0.08784,-0.10736,-0.10248,-0.09272
-0.10248,0.10004,-0.0976,-0.04636,0.00488,-0.05368,-0.0976,-0.07808,-0.08784,-0.10736,-0.10248,-0.09272
-0.10248,0.09516,-0.08784,-0.0366,0.01464,-0.05856,-0.10248,-0.07808,-0.08784,-0.10736,-0.10248,-0.09272
-0.09272,0.09272,-0.09272,-0.04636,0,-0.04636,-0.10248,-0.08784,-0.09272,-0.10248,-0.11224,-0.10248
-0.08296,0.10004,-0.11712,-0.07564,-0.03416,-0.0244,-0.09272,-0.06832,-0.10248,-0.11224,-0.13176,-0.12688
-0.10736,0.12444,-0.14152,-0.08784,-0.03416,-0.0366,-0.03416,-0.02928,-0.11712,-0.1464,-0.16104,-0.15616
-0.12688,0.1342,-0.14152,-0.07808,-0.01464,-0.05612,-0.00488,0.03904,-0.08296,-0.13664,-0.16104,-0.15616
-0.122,0.12444,-0.12688,-0.06588,-0.00488,-0.05856,0.00976,0.13664,-0.01464,-0.08296,-0.13664,-0.15128
-0.05368,0.05368,-0.05368,-0.02684,0,-0.02684,-0.02928,0.20984,0.0976,0.03416,-0.03904,-0.0732
0.01952,-0.0488,0.07808,0.06832,0.05856,-0.01952,-0.06344,0.22936,0.27328,0.22936,0.15128,0.0976
0.16592,-0.22692,0.28792,0.20496,0.122,0.02196,-0.20496,0.05856,0.4636,0.49776,0.42456,0.33672
0.50752,-0.55144,0.59536,0.3416,0.08784,0.20984,-0.488,-0.28304,0.75152,0.91744,0.84912,0.72712
0.85888,-0.86376,0.86864,0.4392,0.00976,0.42456,-0.74664,-0.45872,1.0492,1.32248,1.24928,1.0736
1.0736,-1.18828,1.30296,0.76616,0.22936,0.42212,-0.96624,-0.55632,1.37616,1.75192,1.69336,1.49328
1.13216,-1.27124,1.41032,0.84424,0.27816,0.427,-1.13704,-0.6344,1.32736,1.77144,1.77632,1.6104
1.06872,-1.0492,1.02968,0.49532,-0.03904,0.55388,-1.37128,-0.79544,0.72712,1.21512,1.3176,1.24928
0.83936,-0.7808,0.72224,0.30256,-0.11712,0.47824,-1.48352,-1.01992,0.20984,0.68808,0.8784,0.9028
0.50264,-0.52948,0.55632,0.305,0.05368,0.22448,-1.45912,-1.3664,-0.27328,0.16592,0.4636,0.60512
0.16592,-0.2928,0.41968,0.33672,0.25376,-0.04392,-1.22488,-1.45912,-0.58072,-0.2196,0.11224,0.32208
0,-0.1708,0.3416,0.3416,0.3416,-0.1708,-0.94184,-1.16632,-0.54656,-0.31232,-0.0488,0.12688
-0.02928,-0.1342,0.29768,0.31232,0.32696,-0.17812,-0.69784,-0.8296,-0.3904,-0.23912,-0.06832,0.06344
-0.01464,-0.10248,0.2196,0.22692,0.23424,-0.12444,-0.52216,-0.5612,-0.23424,-0.13176,-0.01952,0.0732
-0.00976,-0.07808,0.16592,0.1708,0.17568,-0.09272,-0.40992,-0.35624,-0.13664,-0.0488,0.00976,0.0732
0.01952,-0.06588,0.11224,0.10248,0.09272,-0.0366,-0.32208,-0.20008,-0.08784,-0.02928,0,0.03904
0.0244,-0.03904,0.05368,0.04148,0.02928,-0.00244,-0.22936,-0.0976,-0.05368,-0.01952,-0.00488,0.00488
0.00976,-0.00732,0.00488,0,-0.00488,0.00732,-0.17568,-0.06832,-0.0244,-0.01952,-0.00976,-0.00488
0,0.00732,-0.01464,-0.01464,-0.01464,0.00732,-0.15616,-0.03416,-0.0244,-0.01952,-0.01464,-0.00976
-0.00488,0.01464,-0.0244,-0.02196,-0.01952,0.00732,-0.13664,0.00488,-0.0244,-0.0244,-0.0244,-0.02928
-0.01464,0.01952,-0.0244,-0.01708,-0.00976,-0.00244,-0.122,0.00976,-0.02928,-0.03416,-0.03904,-0.0488
-0.03416,0.0366,-0.03904,-0.02196,-0.00488,-0.01464,-0.09272,0.00976,-0.02928,-0.03416,-0.03904,-0.0488
-0.0488,0.04636,-0.04392,-0.01952,0.00488,-0.02684,-0.07808,0.03416,-0.01952,-0.02928,-0.03416,-0.0488
-0.02928,0.0366,-0.04392,-0.02928,-0.01464,-0.00732,-0.0732,0.05368,-0.01464,-0.02928,-0.03904,-0.05368
-0.01464,0.03172,-0.0488,-0.04148,-0.03416,0.00976,-0.06344,0.06832,-0.01464,-0.02928,-0.0488,-0.05368
-0.01952,0.03416,-0.0488,-0.03904,-0.02928,0.00488,-0.0488,0.06832,-0.00976,-0.02928,-0.0488,-0.05368
-0.01952,0.03172,-0.04392,-0.03416,-0.0244,0.00244,-0.0488,0.0732,-0.00976,-0.02928,-0.0488,-0.05368
-0.0244,0.03416,-0.04392,-0.03172,-0.01952,-0.00244,-0.04392,0.08784,-0.00976,-0.0244,-0.04392,-0.05368
-0.03416,0.04148,-0.0488,-0.03172,-0.01464,-0.00976,-0.03416,0.10248,0,-0.0244,-0.03416,-0.0488
-0.02928,0.04148,-0.05368,-0.03904,-0.0244,-0.00244,-0.02928,0.10248,0,-0.0244,-0.03416,-0.0488
-0.02928,0.04392,-0.05856,-0.04392,-0.02928,0,-0.02928,0.10248,0,-0.01952,-0.03416,-0.0488
-0.0244,0.04148,-0.05856,-0.04636,-0.03416,0.00488,-0.02928,0.10248,0,-0.01952,-0.03416,-0.0488
-0.01464,0.0366,-0.05856,-0.05124,-0.04392,0.01464,-0.02928,0.10248,0,-0.01952,-0.03416,-0.0488
-0.01464,0.03416,-0.05368,-0.04636,-0.03904,0.0122,-0.02928,0.11224,0.00976,-0.01464,-0.03904,-0.0488
-0.01464,0.03416,-0.05368,-0.04636,-0.03904,0.0122,-0.0244,0.11224,0.00976,-0.00976,-0.03904,-0.0488
-0.00976,0.03172,-0.05368,-0.0488,-0.04392,0.01708,-0.0244,0.11224,0.00976,-0.00976,-0.03904,-0.04392
-0.01464,0.03416,-0.05368,-0.04636,-0.03904,0.0122,-0.0244,0.11712,0.00976,-0.01464,-0.03904,-0.04392
-0.01464,0.03416,-0.05368,-0.04636,-0.03904,0.0122,-0.0244,0.11712,0.00976,-0.01464,-0.03904,-0.04392
-0.01464,0.03416,-0.05368,-0.04636,-0.03904,0.0122,-0.0244,0.122,0.01464,-0.00976,-0.03416,-0.04392
-0.00488,0.02684,-0.0488,-0.04636,-0.04392,0.01952,-0.0244,0.12688,0.01464,-0.00976,-0.02928,-0.04392
0.00488,0.02196,-0.0488,-0.05124,-0.05368,0.02928,-0.0244,0.13176,0.01952,-0.00488,-0.02928,-0.04392
-0.01464,0.02928,-0.04392,-0.0366,-0.02928,0.00732,-0.02928,0.13664,0.01952,-0.00488,-0.02928,-0.04392
-0.02928,0.0366,-0.04392,-0.02928,-0.01464,-0.00732,-0.02928,0.14152,0.01952,-0.00488,-0.02928,-0.04392
-0.01464,0.02928,-0.04392,-0.0366,-0.02928,0.00732,-0.0244,0.14152,0.01952,0,-0.02928,-0.03904
0,0.02196,-0.04392,-0.04392,-0.04392,0.02196,-0.0244,0.1464,0.0244,0.00488,-0.02928,-0.03416
0.00488,0.01952,-0.04392,-0.04636,-0.0488,0.02684,-0.01952,0.15128,0.0244,0.00488,-0.0244,-0.03416
0.00976,0.01464,-0.03904,-0.04392,-0.0488,0.02928,-0.01952,0.15616,0.02928,0.00488,-0.0244,-0.03416
-0.00488,0.0244,-0.04392,-0.04148,-0.03904,0.01708,-0.01952,0.15616,0.02928,0.00488,-0.0244,-0.03416
-0.01464,0.03172,-0.0488,-0.04148,-0.03416,0.00976,-0.01952,0.16104,0.02928,0.00488,-0.01952,-0.03416
0.00976,0.01952,-0.0488,-0.05368,-0.05856,0.03416,-0.01952,0.15616,0.0244,0.00976,-0.0244,-0.03416
0.02928,0.00732,-0.04392,-0.05856,-0.0732,0.05124,-0.01952,0.15128,0.01952,0.00976,-0.02928,-0.03416
0.0244,0.00488,-0.03416,-0.04636,-0.05856,0.04148,-0.01952,0.15616,0.02928,0.01464,-0.01952,-0.0244
0.0244,0.00244,-0.02928,-0.04148,-0.05368,0.03904,-0.01464,0.16104,0.02928,0.01952,-0.01952,-0.0244
0.01952,0.00488,-0.02928,-0.03904,-0.0488,0.03416,-0.00976,0.16592,0.03904,0.01952,-0.01952,-0.01952
0.01952,0.00488,-0.02928,-0.03904,-0.0488,0.03416,-0.00488,0.1708,0.04392,0.01952,-0.01952,-0.01952
0.03416,-0.00488,-0.0244,-0.04148,-0.05856,0.04636,-0.00488,0.17568,0.04392,0.01952,-0.01952,-0.01952
0.03416,-0.00488,-0.0244,-0.04148,-0.05856,0.04636,-0.00488,0.17568,0.04392,0.0244,-0.01464,-0.01952
0.02928,-0.00488,-0.01952,-0.03416,-0.0488,0.03904,0,0.18544,0.04392,0.0244,-0.00976,-0.01952
0.0244,-0.00488,-0.01464,-0.02684,-0.03904,0.03172,0,0.20008,0.0488,0.0244,0,-0.00976
0.0244,-0.00732,-0.00976,-0.02196,-0.03416,0.02928,0.00488,0.20496,0.0488,0.02928,0,-0.00976
0.0244,-0.00732,-0.00976,-0.02196,-0.03416,0.02928,0.00488,0.21472,0.05368,0.03416,0.00488,-0.00488
0.02928,-0.00976,-0.00976,-0.0244,-0.03904,0.03416,0.00976,0.21472,0.05368,0.03904,0.00976,0
0.02928,-0.0122,-0.00488,-0.01952,-0.03416,0.03172,0.01464,0.2196,0.05856,0.0488,0.01952,0
0.02928,-0.01708,0.00488,-0.00976,-0.0244,0.02684,0.0244,0.22936,0.06832,0.05368,0.0244,0.00976
0.02928,-0.01708,0.00488,-0.00976,-0.0244,0.02684,0.02928,0.23912,0.0732,0.05856,0.02928,0.0244
0.02928,-0.02196,0.01464,0,-0.01464,0.02196,0.02928,0.244,0.0732,0.06344,0.03416,0.0244
0.03416,-0.03172,0.02928,0.0122,-0.00488,0.01952,0.03416,0.25376,0.07808,0.06344,0.03416,0.03416
0.06344,-0.0488,0.03416,0.00244,-0.02928,0.04636,0.03416,0.25864,0.07808,0.06344,0.03416,0.02928
0.08784,-0.06344,0.03904,-0.00488,-0.0488,0.06832,0.03416,0.26352,0.07808,0.05856,0.03416,0.02928
0.08784,-0.06344,0.03904,-0.00488,-0.0488,0.06832,0.04392,0.27816,0.09272,0.0732,0.0488,0.04392
0.08784,-0.0732,0.05856,0.01464,-0.02928,0.05856,0.05368,0.2928,0.10248,0.08296,0.06344,0.05368
0.09272,-0.08296,0.0732,0.02684,-0.01952,0.05612,0.05856,0.28792,0.10736,0.09272,0.0732,0.06832
0.11224,-0.10248,0.09272,0.0366,-0.01952,0.06588,0.06832,0.2928,0.11712,0.10736,0.09272,0.07808
0.11712,-0.11468,0.11224,0.05368,-0.00488,0.061,0.06832,0.31232,0.13176,0.122,0.10736,0.09272
0.13176,-0.12444,0.11712,0.05124,-0.01464,0.0732,0.06832,0.32696,0.13664,0.12688,0.11712,0.10736
0.14152,-0.1342,0.12688,0.05612,-0.01464,0.07808,0.0732,0.33184,0.1464,0.14152,0.13176,0.11712
0.13176,-0.13664,0.14152,0.07564,0.00976,0.061,0.0732,0.3416,0.16104,0.15128,0.16104,0.14152
0.16104,-0.16592,0.1708,0.09028,0.00976,0.07564,0.06832,0.34648,0.16104,0.16104,0.1708,0.16104
0.18056,-0.18788,0.1952,0.10492,0.01464,0.08296,0.05856,0.34648,0.1708,0.17568,0.18056,0.17568
0.20008,-0.20496,0.20984,0.1098,0.00976,0.09516,0.05368,0.3416,0.18056,0.19032,0.20008,0.20008
0.20984,-0.2196,0.22936,0.12444,0.01952,0.09516,0.0488,0.33672,0.19032,0.21472,0.22448,0.22448
0.22448,-0.23668,0.24888,0.13664,0.0244,0.10004,0.0244,0.33184,0.1952,0.22448,0.23424,0.23912
0.22936,-0.25376,0.27816,0.16348,0.0488,0.09028,0.00488,0.33184,0.1952,0.23424,0.25376,0.25376
0.24888,-0.26596,0.28304,0.1586,0.03416,0.10736,-0.0244,0.32208,0.20008,0.244,0.26352,0.2684
0.25376,-0.27328,0.2928,0.16592,0.03904,0.10736,-0.0488,0.30744,0.20008,0.25376,0.28792,0.27816
0.2684,-0.28304,0.29768,0.16348,0.02928,0.11956,-0.07808,0.28792,0.20008,0.26352,0.29768,0.2928
0.30256,-0.30012,0.29768,0.1464,-0.00488,0.15372,-0.10736,0.27328,0.1952,0.26352,0.30256,0.29768
0.29768,-0.29768,0.29768,0.14884,0,0.14884,-0.122,0.25864,0.19032,0.26352,0.30256,0.30256
0.28792,-0.29036,0.2928,0.14884,0.00488,0.14152,-0.13664,0.23912,0.18544,0.25864,0.29768,0.30256
0.2684,-0.27084,0.27328,0.13908,0.00488,0.13176,-0.14152,0.22448,0.18544,0.25376,0.28792,0.28792
0.26352,-0.25864,0.25376,0.122,-0.00976,0.13664,-0.14152,0.20496,0.17568,0.23912,0.26352,0.27328
0.23424,-0.22936,0.22448,0.10736,-0.00976,0.122,-0.14152,0.18544,0.16104,0.2196,0.244,0.244
0.20496,-0.20496,0.20496,0.10248,0,0.10248,-0.14152,0.16592,0.1464,0.20496,0.21472,0.22448
0.1708,-0.17812,0.18544,0.10004,0.01464,0.07808,-0.13664,0.13664,0.122,0.1708,0.19032,0.19032
0.13176,-0.1464,0.16104,0.09516,0.02928,0.05124,-0.11712,0.11712,0.10736,0.1464,0.17568,0.16104
0.10248,-0.11224,0.122,0.07076,0.01952,0.04148,-0.10736,0.10248,0.08296,0.10736,0.13176,0.122
0.0732,-0.07808,0.08296,0.04636,0.00976,0.03172,-0.0976,0.08296,0.06344,0.08296,0.09272,0.09272
0.06344,-0.06344,0.06344,0.03172,0,0.03172,-0.09272,0.05368,0.03904,0.06344,0.06344,0.06832
0.0488,-0.04636,0.04392,0.01952,-0.00488,0.02684,-0.08296,0.03416,0.01464,0.03904,0.03904,0.0488
0.01464,-0.01952,0.0244,0.01708,0.00976,0.00244,-0.0732,0.0244,0.00488,0.01464,0.01464,0.02928
-0.00976,0.00244,0.00488,0.00976,0.01464,-0.0122,-0.06832,0.01464,-0.00488,0.00488,0,0.00976
-0.02928,0.02196,-0.01464,0,0.01464,-0.02196,-0.05856,0.01952,-0.01464,-0.00488,-0.01464,-0.00976
-0.04392,0.0366,-0.02928,-0.00732,0.01464,-0.02928,-0.0488,0.01464,-0.01952,-0.01464,-0.0244,-0.01464
-0.03416,0.0366,-0.03904,-0.02196,-0.00488,-0.01464,-0.04392,-0.00976,-0.0244,-0.03416,-0.03904,-0.02928
-0.02928,0.0366,-0.04392,-0.02928,-0.01464,-0.00732,-0.04392,-0.0244,-0.03416,-0.0488,-0.0488,-0.03904
-0.03904,0.04148,-0.04392,-0.0244,-0.00488,-0.01708,-0.04392,-0.03416,-0.04392,-0.05368,-0.05368,-0.04392
-0.0488,0.0488,-0.0488,-0.0244,0,-0.0244,-0.04392,-0.03904,-0.0488,-0.06344,-0.05856,-0.05368
-0.0488,0.05368,-0.05856,-0.03416,-0.00976,-0.01952,-0.04392,-0.04392,-0.05368,-0.06832,-0.06832,-0.06344
-0.05856,0.06344,-0.06832,-0.03904,-0.00976,-0.0244,-0.04392,-0.0488,-0.06344,-0.0732,-0.06832,-0.06832
-0.05856,0.06344,-0.06832,-0.03904,-0.00976,-0.0244,-0.03904,-0.0488,-0.06832,-0.07808,-0.06832,-0.06832
-0.06832,0.0732,-0.07808,-0.04392,-0.00976,-0.02928,-0.03904,-0.0488,-0.06832,-0.07808,-0.07808,-0.0732
-0.0732,0.07564,-0.07808,-0.04148,-0.00488,-0.03416,-0.03416,-0.04392,-0.06832,-0.0732,-0.07808,-0.0732
-0.0732,0.07564,-0.07808,-0.04148,-0.00488,-0.03416,-0.03416,-0.03904,-0.06832,-0.0732,-0.07808,-0.0732
-0.06832,0.07564,-0.08296,-0.0488,-0.01464,-0.02684,-0.03416,-0.03904,-0.06344,-0.0732,-0.07808,-0.0732
-0.06832,0.07564,-0.08296,-0.0488,-0.01464,-0.02684,-0.03416,-0.03904,-0.06344,-0.07808,-0.08296,-0.07808
-0.07808,0.08052,-0.08296,-0.04392,-0.00488,-0.0366,-0.03416,-0.04392,-0.06344,-0.07808,-0.08296,-0.07808
-0.07808,0.08052,-0.08296,-0.04392,-0.00488,-0.0366,-0.03416,-0.0488,-0.06344,-0.07808,-0.08296,-0.07808
-0.0732,0.07808,-0.08296,-0.04636,-0.00976,-0.03172,-0.03416,-0.0488,-0.06832,-0.08296,-0.08296,-0.07808
-0.0732,0.07808,-0.08296,-0.04636,-0.00976,-0.03172,-0.03416,-0.05368,-0.06832,-0.08296,-0.08784,-0.07808
-0.08784,0.08784,-0.08784,-0.04392,0,-0.04392,-0.02928,-0.0488,-0.06832,-0.07808,-0.08784,-0.07808
-0.0976,0.09516,-0.09272,-0.04392,0.00488,-0.05124,-0.01952,-0.04392,-0.06832,-0.0732,-0.08784,-0.0732
-0.08784,0.09028,-0.09272,-0.0488,-0.00488,-0.04148,-0.01952,-0.04392,-0.0732,-0.08296,-0.08784,-0.07808
-0.0732,0.08296,-0.09272,-0.05612,-0.01952,-0.02684,-0.01952,-0.04392,-0.0732,-0.08296,-0.08784,-0.07808
-0.06832,0.08052,-0.09272,-0.05856,-0.0244,-0.02196,-0.01952,-0.04392,-0.0732,-0.08296,-0.08784,-0.07808
-0.06832,0.08296,-0.0976,-0.06344,-0.02928,-0.01952,-0.01952,-0.04392,-0.0732,-0.07808,-0.08784,-0.07808
-0.07808,0.08784,-0.0976,-0.05856,-0.01952,-0.02928,-0.01952,-0.03904,-0.0732,-0.07808,-0.08784,-0.0732
-0.08784,0.09028,-0.09272,-0.0488,-0.00488,-0.04148,-0.01952,-0.03904,-0.0732,-0.07808,-0.09272,-0.0732
-0.08784,0.09028,-0.09272,-0.0488,-0.00488,-0.04148,-0.0244,-0.04392,-0.0732,-0.07808,-0.09272,-0.0732
-0.09272,0.09272,-0.09272,-0.04636,0,-0.04636,-0.0244,-0.04392,-0.06832,-0.07808,-0.08784,-0.0732
-0.08296,0.08784,-0.09272,-0.05124,-0.00976,-0.0366,-0.0244,-0.04392,-0.06832,-0.07808,-0.08784,-0.0732
-0.06832,0.08296,-0.0976,-0.06344,-0.02928,-0.01952,-0.0244,-0.04392,-0.06832,-0.07808,-0.08784,-0.0732
-0.06344,0.08052,-0.0976,-0.06588,-0.03416,-0.01464,-0.0244,-0.04392,-0.06832,-0.08296,-0.09272,-0.08296
-0.0488,0.07076,-0.09272,-0.06832,-0.04392,-0.00244,-0.01952,-0.04392,-0.06832,-0.08784,-0.09272,-0.08296
-0.06832,0.07808,-0.08784,-0.05368,-0.01952,-0.0244,-0.01952,-0.04392,-0.06832,-0.08784,-0.08784,-0.07808
-0.08296,0.08296,-0.08296,-0.04148,0,-0.04148,-0.01952,-0.04392,-0.06832,-0.08784,-0.08784,-0.07808
-0.08296,0.08296,-0.08296,-0.04148,0,-0.04148,-0.01952,-0.04392,-0.06832,-0.08296,-0.08784,-0.0732
-0.08296,0.0854,-0.08784,-0.04636,-0.00488,-0.03904,-0.01952,-0.04392,-0.06832,-0.08296,-0.08784,-0.0732
-0.08296,0.08784,-0.09272,-0.05124,-0.00976,-0.0366,-0.01464,-0.03904,-0.06832,-0.0732,-0.08296,-0.05856
-0.08296,0.08784,-0.09272,-0.05124,-0.00976,-0.0366,-0.01464,-0.03904,-0.06344,-0.06344,-0.0732,-0.0488
-0.0732,0.08296,-0.09272,-0.05612,-0.01952,-0.02684,-0.01952,-0.03904,-0.06832,-0.0732,-0.0732,-0.05856
-0.05856,0.0732,-0.08784,-0.05856,-0.02928,-0.01464,-0.01952,-0.04392,-0.0732,-0.08296,-0.07808,-0.06832
-0.05856,0.0732,-0.08784,-0.05856,-0.02928,-0.01464,-0.01952,-0.04392,-0.07808,-0.08296,-0.08296,-0.0732
-0.05856,0.0732,-0.08784,-0.05856,-0.02928,-0.01464,-0.01952,-0.04392,-0.07808,-0.08296,-0.08784,-0.0732
-0.05856,0.0732,-0.08784,-0.05856,-0.02928,-0.01464,-0.01464,-0.04392,-0.0732,-0.08296,-0.08784,-0.0732
-0.05856,0.0732,-0.08784,-0.05856,-0.02928,-0.01464,-0.00976,-0.04392,-0.0732,-0.08296,-0.08784,-0.0732
-0.06344,0.07564,-0.08784,-0.05612,-0.0244,-0.01952,-0.01464,-0.04392,-0.0732,-0.07808,-0.08784,-0.0732
-0.06832,0.07808,-0.08784,-0.05368,-0.01952,-0.0244,-0.01464,-0.04392,-0.06832,-0.0732,-0.08784,-0.0732
-0.08784,0.08784,-0.08784,-0.04392,0,-0.04392,-0.00976,-0.04392,-0.06344,-0.0732,-0.08296,-0.0732
-0.10248,0.09516,-0.08784,-0.0366,0.01464,-0.05856,0,-0.04392,-0.06344,-0.0732,-0.08296,-0.06832
-0.0976,0.09272,-0.08784,-0.03904,0.00976,-0.05368,0.00488,-0.04392,-0.06832,-0.0732,-0.07808,-0.06832
-0.08784,0.08784,-0.08784,-0.04392,0,-0.04392,0.00488,-0.04392,-0.0732,-0.0732,-0.07808,-0.06832
-0.08296,0.0854,-0.08784,-0.04636,-0.00488,-0.03904,0,-0.0488,-0.0732,-0.07808,-0.07808,-0.06832
-0.07808,0.08296,-0.08784,-0.0488,-0.00976,-0.03416,0,-0.05368,-0.07808,-0.08296,-0.08296,-0.06832
-0.0732,0.08052,-0.08784,-0.05124,-0.01464,-0.02928,0.00488,-0.05368,-0.07808,-0.08296,-0.08296,-0.06832
-0.0732,0.08052,-0.08784,-0.05124,-0.01464,-0.02928,0.00976,-0.05856,-0.0732,-0.08296,-0.09272,-0.06832
-0.07808,0.08296,-0.08784,-0.0488,-0.00976,-0.03416,0.00976,-0.05856,-0.0732,-0.08296,-0.09272,-0.06832
-0.07808,0.08296,-0.08784,-0.0488,-0.00976,-0.03416,0.00976,-0.05368,-0.0732,-0.08296,-0.08296,-0.06832
-0.07808,0.08296,-0.08784,-0.0488,-0.00976,-0.03416,0.00976,-0.05368,-0.0732,-0.08296,-0.08296,-0.06344
-0.07808,0.0854,-0.09272,-0.05368,-0.01464,-0.03172,0.00976,-0.05368,-0.0732,-0.08296,-0.08296,-0.05856
-0.09272,0.09272,-0.09272,-0.04636,0,-0.04636,0.00976,-0.05368,-0.0732,-0.08296,-0.08296,-0.05856
-0.10736,0.0976,-0.08784,-0.03416,0.01952,-0.06344,0.00976,-0.06344,-0.07808,-0.08784,-0.08784,-0.06344
-0.08784,0.09272,-0.0976,-0.05368,-0.00976,-0.03904,0.00488,-0.06344,-0.07808,-0.08784,-0.08784,-0.06832
-0.07808,0.09272,-0.10736,-0.06832,-0.02928,-0.0244,0.00488,-0.06344,-0.07808,-0.08784,-0.08784,-0.0732
-0.07808,0.08784,-0.0976,-0.05856,-0.01952,-0.02928,0.01464,-0.06344,-0.07808,-0.08784,-0.08784,-0.0732
-0.0976,0.09516,-0.09272,-0.04392,0.00488,-0.05124,0.01952,-0.05856,-0.06832,-0.08296,-0.08784,-0.06832
-0.0976,0.09516,-0.09272,-0.04392,0.00488,-0.05124,0.01952,-0.05856,-0.08296,-0.08296,-0.08784,-0.06832
-0.08784,0.08784,-0.08784,-0.04392,0,-0.04392,0.01952,-0.05856,-0.08784,-0.08296,-0.08784,-0.06832
-0.08296,0.0854,-0.08784,-0.04636,-0.00488,-0.03904,0.01952,-0.06344,-0.08784,-0.08784,-0.08784,-0.07808
-0.07808,0.08296,-0.08784,-0.0488,-0.00976,-0.03416,0.01952,-0.06832,-0.08296,-0.08784,-0.08784,-0.06832
-0.08296,0.0854,-0.08784,-0.04636,-0.00488,-0.03904,0.0244,-0.06832,-0.07808,-0.08296,-0.08296,-0.06832
-0.08296,0.0854,-0.08784,-0.04636,-0.00488,-0.03904,0.02928,-0.06832,-0.0732,-0.08296,-0.08296,-0.06832
-0.08784,0.08784,-0.08784,-0.04392,0,-0.04392,0.03416,-0.05856,-0.0732,-0.07808,-0.07808,-0.06832
-0.0976,0.09272,-0.08784,-0.03904,0.00976,-0.05368,0.03904,-0.05368,-0.0732,-0.07808,-0.06832,-0.06344
-0.0976,0.09272,-0.08784,-0.03904,0.00976,-0.05368,0.03904,-0.05368,-0.0732,-0.07808,-0.0732,-0.06344
-0.10248,0.09516,-0.08784,-0.0366,0.01464,-0.05856,0.03904,-0.05368,-0.0732,-0.07808,-0.0732,-0.06344
-0.09272,0.09272,-0.09272,-0.04636,0,-0.04636,0.03416,-0.05856,-0.07808,-0.08296,-0.08296,-0.06832
-0.08296,0.09028,-0.0976,-0.05612,-0.01464,-0.03416,0.02928,-0.06344,-0.08784,-0.08784,-0.09272,-0.0732
-0.07808,0.08784,-0.0976,-0.05856,-0.01952,-0.02928,0.02928,-0.06344,-0.08784,-0.08784,-0.09272,-0.0732
-0.07808,0.08784,-0.0976,-0.05856,-0.01952,-0.02928,0.02928,-0.06344,-0.09272,-0.08784,-0.09272,-0.0732
-0.07808,0.08784,-0.0976,-0.05856,-0.01952,-0.02928,0.02928,-0.06344,-0.09272,-0.08784,-0.09272,-0.0732
-0.08296,0.09028,-0.0976,-0.05612,-0.01464,-0.03416,0.02928,-0.06344,-0.08784,-0.08784,-0.08784,-0.0732
-0.09272,0.09516,-0.0976,-0.05124,-0.00488,-0.04392,0.02928,-0.06344,-0.08784,-0.08784,-0.08784,-0.0732
-0.10248,0.10248,-0.10248,-0.05124,0,-0.05124,0.02928,-0.06344,-0.08784,-0.08784,-0.08784,-0.0732
-0.11224,0.10736,-0.10248,-0.04636,0.00976,-0.061,0.04392,-0.05856,-0.08296,-0.08784,-0.08784,-0.07808
-0.122,0.11224,-0.10248,-0.04148,0.01952,-0.07076,0.05856,-0.05856,-0.07808,-0.08784,-0.07808,-0.0732
-0.11712,0.1098,-0.10248,-0.04392,0.01464,-0.06588,0.05856,-0.05368,-0.07808,-0.08784,-0.07808,-0.06832
-0.11224,0.10736,-0.10248,-0.04636,0.00976,-0.061,0.05856,-0.05368,-0.07808,-0.08784,-0.07808,-0.06832
-0.08784,0.09272,-0.0976,-0.05368,-0.00976,-0.03904,0.05856,-0.06344,-0.07808,-0.08784,-0.07808,-0.06832
-0.06832,0.08296,-0.0976,-0.06344,-0.02928,-0.01952,0.05856,-0.07808,-0.07808,-0.08784,-0.07808,-0.06832
-0.08784,0.09272,-0.0976,-0.05368,-0.00976,-0.03904,0.05856,-0.06832,-0.07808,-0.08784,-0.07808,-0.06832
-0.10736,0.10248,-0.0976,-0.04392,0.00976,-0.05856,0.05856,-0.05856,-0.07808,-0.08784,-0.07808,-0.06832
-0.10736,0.10248,-0.0976,-0.04392,0.00976,-0.05856,0.05856,-0.05856,-0.07808,-0.08784,-0.07808,-0.06832
-0.10736,0.10248,-0.0976,-0.04392,0.00976,-0.05856,0.05856,-0.05856,-0.07808,-0.08784,-0.07808,-0.06832
-0.09272,0.09516,-0.0976,-0.05124,-0.00488,-0.04392,0.05856,-0.05856,-0.08296,-0.08784,-0.08296,-0.0732
-0.07808,0.08784,-0.0976,-0.05856,-0.01952,-0.02928,0.05856,-0.05856,-0.08784,-0.08784,-0.08784,-0.07808
-0.07808,0.08784,-0.0976,-0.05856,-0.01952,-0.02928,0.05856,-0.05856,-0.08784,-0.08784,-0.08784,-0.07808
-0.07808,0.08784,-0.0976,-0.05856,-0.01952,-0.02928,0.05856,-0.05856,-0.08784,-0.08784,-0.08784,-0.07808
-0.09272,0.09272,-0.09272,-0.04636,0,-0.04636,0.05856,-0.05856,-0.08784,-0.08784,-0.08784,-0.07808
-0.10736,0.0976,-0.08784,-0.03416,0.01952,-0.06344,0.05856,-0.05856,-0.08784,-0.08784,-0.08784,-0.07808
-0.0976,0.09272,-0.08784,-0.03904,0.00976,-0.05368,0.05856,-0.05856,-0.08784,-0.09272,-0.08784,-0.07808
-0.08784,0.08784,-0.08784,-0.04392,0,-0.04392,0.05856,-0.05856,-0.08784,-0.0976,-0.08784,-0.07808
-0.08784,0.09028,-0.09272,-0.0488,-0.00488,-0.04148,0.06344,-0.05856,-0.08784,-0.0976,-0.08784,-0.07808
-0.08784,0.09272,-0.0976,-0.05368,-0.00976,-0.03904,0.06832,-0.05856,-0.08784,-0.0976,-0.08784,-0.07808
-0.0976,0.0976,-0.0976,-0.0488,0,-0.0488,0.0732,-0.05856,-0.08296,-0.09272,-0.08296,-0.07808
-0.10736,0.10248,-0.0976,-0.04392,0.00976,-0.05856,0.07808,-0.05856,-0.07808,-0.08784,-0.07808,-0.07808
-0.10736,0.10248,-0.0976,-0.04392,0.00976,-0.05856,0.08296,-0.05368,-0.07808,-0.08784,-0.07808,-0.07808
-0.10736,0.10248,-0.0976,-0.04392,0.00976,-0.05856,0.08784,-0.0488,-0.07808,-0.08784,-0.07808,-0.07808
-0.09272,0.09272,-0.09272,-0.04636,0,-0.04636,0.08784,-0.0488,-0.07808,-0.08784,-0.08296,-0.07808
-0.07808,0.08052,-0.08296,-0.04392,-0.00488,-0.0366,0.08784,-0.03904,-0.06832,-0.08296,-0.07808,-0.0732
-0.06832,0.0732,-0.07808,-0.04392,-0.00976,-0.02928,0.09272,-0.03416,-0.06344,-0.07808,-0.07808,-0.06832
-0.05856,0.061,-0.06344,-0.03416,-0.00488,-0.02684,0.10248,-0.0244,-0.05368,-0.06832,-0.0732,-0.06344
-0.05368,0.05124,-0.0488,-0.02196,0.00488,-0.02928,0.10248,-0.01952,-0.0488,-0.06344,-0.06832,-0.05856
-0.05368,0.04636,-0.03904,-0.0122,0.01464,-0.03416,0.10248,-0.01464,-0.0488,-0.05856,-0.06832,-0.0488
-0.05368,0.04636,-0.03904,-0.0122,0.01464,-0.03416,0.122,-0.00488,-0.04392,-0.05856,-0.05856,-0.0488
-0.05368,0.04636,-0.03904,-0.0122,0.01464,-0.03416,0.11712,-0.00488,-0.03904,-0.05368,-0.05856,-0.04392
-0.05856,0.04636,-0.03416,-0.00488,0.0244,-0.04148,0.11224,-0.00488,-0.03904,-0.05368,-0.05368,-0.04392
-0.06344,0.0488,-0.03416,-0.00244,0.02928,-0.04636,0.10248,-0.01464,-0.03904,-0.05856,-0.05368,-0.04392
-0.06344,0.05856,-0.05368,-0.02196,0.00976,-0.0366,0.08296,-0.0244,-0.04392,-0.05856,-0.05368,-0.04392
-0.06344,0.06344,-0.06344,-0.03172,0,-0.03172,0.0732,-0.03416,-0.05856,-0.0732,-0.05856,-0.0488
-0.05856,0.061,-0.06344,-0.03416,-0.00488,-0.02684,0.05368,-0.05368,-0.06832,-0.07808,-0.06344,-0.05368
-0.05368,0.05612,-0.05856,-0.03172,-0.00488,-0.0244,0.04392,-0.05368,-0.06832,-0.07808,-0.06344,-0.05368
-0.05368,0.05612,-0.05856,-0.03172,-0.00488,-0.0244,0.04392,-0.0488,-0.06832,-0.0732,-0.06344,-0.0488
-0.05856,0.05124,-0.04392,-0.01464,0.01464,-0.0366,0.05368,-0.0488,-0.05856,-0.06344,-0.0488,-0.04392
-0.05856,0.05124,-0.04392,-0.01464,0.01464,-0.0366,0.05856,-0.0488,-0.05856,-0.06344,-0.0488,-0.03904
-0.05856,0.05124,-0.04392,-0.01464,0.01464,-0.0366,0.05856,-0.0488,-0.06344,-0.06344,-0.0488,-0.03904
-0.05368,0.05368,-0.05368,-0.02684,0,-0.02684,0.05856,-0.0488,-0.06344,-0.06832,-0.0488,-0.03904
-0.05856,0.06344,-0.06832,-0.03904,-0.00976,-0.0244,0.05856,-0.0488,-0.06344,-0.0732,-0.05856,-0.04392
-0.06344,0.06588,-0.06832,-0.0366,-0.00488,-0.02928,0.05856,-0.05856,-0.06832,-0.0732,-0.06344,-0.0488
-0.0732,0.06588,-0.05856,-0.02196,0.01464,-0.04392,0.05856,-0.05856,-0.0732,-0.08296,-0.06832,-0.05856
-0.0732,0.06588,-0.05856,-0.02196,0.01464,-0.04392,0.06344,-0.05856,-0.0732,-0.08296,-0.07808,-0.06344
-0.0732,0.06588,-0.05856,-0.02196,0.01464,-0.04392,0.06344,-0.06344,-0.07808,-0.08296,-0.09272,-0.0732
-0.09272,0.08784,-0.08296,-0.0366,0.00976,-0.05124,0.06832,-0.05368,-0.07808,-0.09272,-0.08784,-0.07808
-0.10736,0.1098,-0.11224,-0.05856,-0.00488,-0.05124,0.06832,-0.05368,-0.08296,-0.10248,-0.08784,-0.08784
-0.10736,0.10492,-0.10248,-0.0488,0.00488,-0.05612,0.06832,-0.0732,-0.09272,-0.10736,-0.09272,-0.08784
-0.10736,0.10004,-0.09272,-0.03904,0.01464,-0.061,0.06832,-0.08784,-0.09272,-0.10736,-0.09272,-0.08296
-0.10736,0.10492,-0.10248,-0.0488,0.00488,-0.05612,0.06832,-0.08784,-0.0976,-0.10736,-0.09272,-0.08296
-0.10248,0.10492,-0.10736,-0.05612,-0.00488,-0.0488,0.06832,-0.08784,-0.10736,-0.11224,-0.09272,-0.08784
-0.10736,0.10736,-0.10736,-0.05368,0,-0.05368,0.06832,-0.08296,-0.10736,-0.11224,-0.09272,-0.09272
-0.10736,0.10736,-0.10736,-0.05368,0,-0.05368,0.0732,-0.08296,-0.10248,-0.11224,-0.09272,-0.09272
-0.10248,0.10736,-0.11224,-0.061,-0.00976,-0.04636,0.0732,-0.08296,-0.10248,-0.11712,-0.10248,-0.09272
-0.0976,0.10492,-0.11224,-0.06344,-0.01464,-0.04148,0.0732,-0.08296,-0.10248,-0.122,-0.10736,-0.09272
-0.10248,0.10736,-0.11224,-0.061,-0.00976,-0.04636,0.07808,-0.07808,-0.10248,-0.11712,-0.10736,-0.09272
-0.10248,0.10736,-0.11224,-0.061,-0.00976,-0.04636,0.08296,-0.0732,-0.0976,-0.11712,-0.10248,-0.09272
-0.10248,0.1098,-0.11712,-0.06588,-0.01464,-0.04392,0.08296,-0.0732,-0.0976,-0.11712,-0.10736,-0.09272
-0.10248,0.1098,-0.11712,-0.06588,-0.01464,-0.04392,0.08296,-0.06832,-0.0976,-0.11712,-0.11224,-0.09272
-0.09272,0.10492,-0.11712,-0.07076,-0.0244,-0.03416,0.08296,-0.06832,-0.0976,-0.11712,-0.11224,-0.0976
-0.09272,0.10492,-0.11712,-0.07076,-0.0244,-0.03416,0.08296,-0.06832,-0.0976,-0.11712,-0.11224,-0.10248
-0.0976,0.1098,-0.122,-0.0732,-0.0244,-0.0366,0.09272,-0.05856,-0.09272,-0.122,-0.122,-0.11224
-0.10248,0.12444,-0.1464,-0.09516,-0.04392,-0.02928,0.11224,-0.01952,-0.09272,-0.14152,-0.14152,-0.13664
-0.11224,0.1342,-0.15616,-0.10004,-0.04392,-0.03416,0.15128,0.01952,-0.08296,-0.13176,-0.13664,-0.14152
-0.11712,0.12932,-0.14152,-0.08296,-0.0244,-0.04636,0.16104,0.08784,-0.0244,-0.07808,-0.10248,-0.11712
-0.09272,0.08052,-0.06832,-0.02196,0.0244,-0.05856,0.15128,0.13664,0.09272,0.03416,-0.00976,-0.0488
-0.00488,-0.02928,0.06344,0.06588,0.06832,-0.0366,0.08784,0.16104,0.25376,0.20984,0.15616,0.09272
0.14152,-0.1952,0.24888,0.17812,0.10736,0.01708,-0.01952,0.03904,0.4392,0.46848,0.40992,0.32696
0.36112,-0.43676,0.5124,0.33184,0.15128,0.10492,-0.23424,-0.27328,0.63928,0.80032,0.74664,0.62952
0.61976,-0.7198,0.81984,0.50996,0.20008,0.20984,-0.50264,-0.53192,0.9028,1.18584,1.1468,1.0004
0.88816,-0.99064,1.09312,0.64904,0.20496,0.3416,-0.74664,-0.62464,1.17608,1.55672,1.52256,1.32736
1.0004,-1.14924,1.29808,0.79788,0.29768,0.35136,-0.93696,-0.71248,1.25904,1.708,1.708,1.52256
0.95648,-1.06628,1.17608,0.69784,0.2196,0.36844,-1.07848,-0.7808,0.96624,1.44936,1.53232,1.4152
0.82472,-0.83692,0.84912,0.43676,0.0244,0.40016,-1.21512,-0.95648,0.40992,0.89304,1.06872,1.05896
0.52704,-0.5612,0.59536,0.33184,0.06832,0.22936,-1.22976,-1.1956,-0.06344,0.366,0.62464,0.71736
0.26352,-0.35868,0.45384,0.32208,0.19032,0.0366,-1.1224,-1.342,-0.40016,-0.0244,0.28792,0.45384
0,-0.1708,0.3416,0.3416,0.3416,-0.1708,-0.8052,-1.23464,-0.5612,-0.27816,0.01464,0.20496
-0.08784,-0.09028,0.2684,0.31232,0.35624,-0.22204,-0.57584,-0.94672,-0.488,-0.31232,-0.08296,0.06832
-0.03904,-0.09516,0.22936,0.24888,0.2684,-0.15372,-0.38552,-0.61488,-0.2928,-0.18056,-0.03904,0.06344
-0.0244,-0.06344,0.15128,0.16348,0.17568,-0.10004,-0.244,-0.39528,-0.1708,-0.10248,-0.00488,0.05856
-0.01952,-0.03904,0.0976,0.10736,0.11712,-0.06832,-0.16592,-0.23912,-0.10736,-0.0488,0.00976,0.04392
-0.00488,-0.0244,0.05368,0.05612,0.05856,-0.03172,-0.08296,-0.122,-0.06832,-0.02928,0,0.01952
-0.01464,0.00488,0.00488,0.0122,0.01952,-0.01708,0.00488,-0.05856,-0.04392,-0.01952,-0.00488,-0.00488
-0.01952,0.02684,-0.03416,-0.0244,-0.01464,-0.00244,0.0488,-0.02928,-0.0244,-0.02928,-0.01464,-0.01952
-0.01952,0.03172,-0.04392,-0.03416,-0.0244,0.00244,0.05856,0.00488,-0.03416,-0.03904,-0.0244,-0.02928
-0.0244,0.03904,-0.05368,-0.04148,-0.02928,0.00244,0.0732,0.03904,-0.03416,-0.04392,-0.03416,-0.04392
-0.03416,0.04392,-0.05368,-0.0366,-0.01952,-0.00732,0.08296,0.03904,-0.03904,-0.05368,-0.0488,-0.05856
-0.04392,0.05368,-0.06344,-0.04148,-0.01952,-0.0122,0.10248,0.03904,-0.03416,-0.0488,-0.0488,-0.05856
-0.0488,0.05612,-0.06344,-0.03904,-0.01464,-0.01708,0.10736,0.06344,-0.01952,-0.03904,-0.04392,-0.05856
-0.0488,0.05612,-0.06344,-0.03904,-0.01464,-0.01708,0.122,0.07808,-0.01464,-0.03904,-0.04392,-0.06344
-0.05368,0.061,-0.06832,-0.04148,-0.01464,-0.01952,0.14152,0.08784,-0.01464,-0.03904,-0.0488,-0.06344
-0.06832,0.07076,-0.0732,-0.03904,-0.00488,-0.03172,0.15616,0.0976,0,-0.03904,-0.03904,-0.05368
-0.07808,0.07564,-0.0732,-0.03416,0.00488,-0.04148,0.15616,0.11224,0.00976,-0.03904,-0.02928,-0.04392
-0.0488,0.061,-0.0732,-0.0488,-0.0244,-0.0122,0.1464,0.10736,-0.00488,-0.03416,-0.03904,-0.05856
-0.0244,0.05124,-0.07808,-0.06588,-0.05368,0.01464,0.14152,0.10248,-0.00976,-0.03416,-0.04392,-0.06832
-0.00976,0.04392,-0.07808,-0.0732,-0.06832,0.02928,0.1464,0.10248,-0.00976,-0.03416,-0.04392,-0.06832
0,0.03904,-0.07808,-0.07808,-0.07808,0.03904,0.1464,0.10248,-0.00976,-0.02928,-0.04392,-0.06832
-0.0244,0.05124,-0.07808,-0.06588,-0.05368,0.01464,0.15128,0.11224,-0.00488,-0.02928,-0.03904,-0.06344
-0.04392,0.061,-0.07808,-0.05612,-0.03416,-0.00488,0.15616,0.122,0,-0.02928,-0.03416,-0.05856
-0.04392,0.05856,-0.0732,-0.05124,-0.02928,-0.00732,0.15616,0.13176,0.00976,-0.02928,-0.03416,-0.05856
-0.04392,0.05856,-0.0732,-0.05124,-0.02928,-0.00732,0.16104,0.13176,0.00976,-0.02928,-0.02928,-0.05856
-0.01952,0.04392,-0.06832,-0.05856,-0.0488,0.01464,0.15616,0.13176,0.00976,-0.02928,-0.02928,-0.05368
-0.00488,0.03416,-0.06344,-0.061,-0.05856,0.02684,0.15128,0.13664,0.00976,-0.03416,-0.02928,-0.05368
-0.01464,0.03904,-0.06344,-0.05612,-0.0488,0.01708,0.15128,0.13664,0.00976,-0.02928,-0.02928,-0.05368
-0.0244,0.04392,-0.06344,-0.05124,-0.03904,0.00732,0.15128,0.14152,0.01464,-0.01952,-0.0244,-0.05368
-0.0244,0.04148,-0.05856,-0.04636,-0.03416,0.00488,0.15128,0.1464,0.01464,-0.01952,-0.0244,-0.05368
-0.0244,0.04148,-0.05856,-0.04636,-0.03416,0.00488,0.15128,0.15128,0.01952,-0.01464,-0.02928,-0.05368
-0.01952,0.03904,-0.05856,-0.0488,-0.03904,0.00976,0.1464,0.15128,0.01952,-0.01464,-0.02928,-0.05368
-0.00976,0.0366,-0.06344,-0.05856,-0.05368,0.02196,0.1464,0.15128,0.01952,-0.01464,-0.02928,-0.05368
-0.00976,0.0366,-0.06344,-0.05856,-0.05368,0.02196,0.15128,0.15128,0.01952,-0.00976,-0.02928,-0.0488
-0.00976,0.0366,-0.06344,-0.05856,-0.05368,0.02196,0.15128,0.15616,0.0244,-0.00488,-0.02928,-0.04392
-0.01464,0.03904,-0.06344,-0.05612,-0.0488,0.01708,0.16104,0.16104,0.0244,0,-0.0244,-0.03904
-0.01952,0.03904,-0.05856,-0.0488,-0.03904,0.00976,0.16592,0.16592,0.02928,0.00488,-0.0244,-0.03416
-0.01952,0.03904,-0.05856,-0.0488,-0.03904,0.00976,0.16592,0.16592,0.02928,0.00488,-0.0244,-0.03416
-0.01464,0.0366,-0.05856,-0.05124,-0.04392,0.01464,0.16592,0.1708,0.02928,0.00488,-0.01952,-0.03416
0.00488,0.02684,-0.05856,-0.061,-0.06344,0.03416,0.16592,0.1708,0.02928,0.00488,-0.01952,-0.03904
0.01952,0.01708,-0.05368,-0.06344,-0.0732,0.04636,0.16592,0.1708,0.02928,0,-0.01952,-0.04392
0.01464,0.01708,-0.0488,-0.05612,-0.06344,0.03904,0.16592,0.17568,0.03904,0.00488,-0.00976,-0.03416
0.01464,0.01708,-0.0488,-0.05612,-0.06344,0.03904,0.1708,0.18056,0.03904,0.00976,-0.00976,-0.03416
0.00976,0.01952,-0.0488,-0.05368,-0.05856,0.03416,0.1708,0.19032,0.0488,0.01464,-0.00976,-0.02928
0.00976,0.01952,-0.0488,-0.05368,-0.05856,0.03416,0.1708,0.20008,0.05368,0.01952,-0.00976,-0.02928
0.01952,0.0122,-0.04392,-0.05368,-0.06344,0.04148,0.1708,0.20496,0.05368,0.01952,-0.00976,-0.02928
0.01464,0.01464,-0.04392,-0.05124,-0.05856,0.0366,0.1708,0.20496,0.05368,0.0244,-0.00488,-0.02928
0.01464,0.0122,-0.03904,-0.04636,-0.05368,0.03416,0.17568,0.20984,0.05368,0.0244,-0.00488,-0.02928
0.01464,0.00976,-0.03416,-0.04148,-0.0488,0.03172,0.17568,0.2196,0.05856,0.0244,0,-0.01952
0.02928,0,-0.02928,-0.04392,-0.05856,0.04392,0.18056,0.22448,0.05856,0.02928,0,-0.01952
0.04392,-0.00732,-0.02928,-0.05124,-0.0732,0.05856,0.18056,0.23424,0.06344,0.03416,0.00488,-0.01464
0.03416,-0.00488,-0.0244,-0.04148,-0.05856,0.04636,0.18544,0.23912,0.06832,0.03904,0.01464,-0.00488
0.01952,-0.00244,-0.01464,-0.0244,-0.03416,0.02684,0.19032,0.24888,0.07808,0.0488,0.02928,0
0.01952,-0.00732,-0.00488,-0.01464,-0.0244,0.02196,0.20008,0.25864,0.08784,0.05368,0.03416,0.00488
0.01952,-0.00732,-0.00488,-0.01464,-0.0244,0.02196,0.20496,0.2684,0.09272,0.05856,0.03904,0.01464
0.03416,-0.01952,0.00488,-0.0122,-0.02928,0.03172,0.20496,0.27328,0.08784,0.06344,0.04392,0.01464
0.05368,-0.0366,0.01952,-0.00732,-0.03416,0.04392,0.20984,0.28304,0.08784,0.06344,0.04392,0.0244
0.06344,-0.04636,0.02928,-0.00244,-0.03416,0.0488,0.21472,0.28792,0.09272,0.06832,0.0488,0.0244
0.06832,-0.05368,0.03904,0.00488,-0.02928,0.0488,0.2196,0.2928,0.0976,0.06832,0.05368,0.02928
0.07808,-0.05856,0.03904,0,-0.03904,0.05856,0.22448,0.30744,0.11224,0.08296,0.06832,0.04392
0.08784,-0.0732,0.05856,0.01464,-0.02928,0.05856,0.22936,0.32208,0.122,0.09272,0.08296,0.05368
0.0976,-0.0854,0.0732,0.0244,-0.0244,0.061,0.22936,0.32696,0.12688,0.10736,0.09272,0.06832
0.122,-0.10736,0.09272,0.03172,-0.02928,0.07564,0.23424,0.3416,0.13664,0.12688,0.11224,0.07808
0.12688,-0.12444,0.122,0.05856,-0.00488,0.06588,0.23424,0.34648,0.15128,0.14152,0.122,0.09272
0.14152,-0.13908,0.13664,0.06588,-0.00488,0.0732,0.23424,0.34648,0.15616,0.1464,0.12688,0.10736
0.16104,-0.15372,0.1464,0.06588,-0.01464,0.08784,0.23424,0.35136,0.16592,0.16104,0.14152,0.11712
0.16104,-0.16104,0.16104,0.08052,0,0.08052,0.22936,0.36112,0.18056,0.1708,0.1708,0.14152
0.18056,-0.18056,0.18056,0.09028,0,0.09028,0.22448,0.366,0.18056,0.18056,0.18544,0.16104
0.19032,-0.19276,0.1952,0.10004,0.00488,0.09272,0.21472,0.366,0.19032,0.1952,0.20008,0.17568
0.20984,-0.21472,0.2196,0.11468,0.00976,0.10004,0.20496,0.36112,0.20008,0.20496,0.2196,0.1952
0.2196,-0.23424,0.24888,0.13908,0.02928,0.09516,0.1952,0.35624,0.20984,0.22448,0.244,0.21472
0.23912,-0.24644,0.25376,0.1342,0.01464,0.11224,0.1708,0.34648,0.21472,0.23424,0.24888,0.22936
0.24888,-0.25864,0.2684,0.14396,0.01952,0.11468,0.15128,0.3416,0.21472,0.244,0.26352,0.244
0.2684,-0.27084,0.27328,0.13908,0.00488,0.13176,0.122,0.33184,0.2196,0.25376,0.2684,0.25864
0.27328,-0.27816,0.28304,0.1464,0.00976,0.13176,0.0976,0.3172,0.2196,0.26352,0.28792,0.2684
0.25864,-0.27084,0.28304,0.15372,0.0244,0.11712,0.08296,0.29768,0.22448,0.27328,0.29768,0.28304
0.26352,-0.27084,0.27816,0.1464,0.01464,0.12444,0.06832,0.28304,0.22448,0.27328,0.30256,0.28792
0.25376,-0.26352,0.27328,0.1464,0.01952,0.11712,0.04392,0.2684,0.2196,0.27328,0.30256,0.28792
0.23912,-0.25132,0.26352,0.14396,0.0244,0.10736,0.01952,0.24888,0.21472,0.2684,0.29768,0.28304
0.244,-0.244,0.244,0.122,0,0.122,0.01464,0.22448,0.1952,0.24888,0.2684,0.25376
0.26352,-0.244,0.22448,0.09272,-0.03904,0.15128,0.01464,0.1952,0.16592,0.2196,0.22448,0.22448
0.2196,-0.20496,0.19032,0.08052,-0.02928,0.12444,0.01464,0.17568,0.15128,0.1952,0.20496,0.1952
0.17568,-0.1708,0.16592,0.07808,-0.00976,0.09272,0.01464,0.15616,0.13664,0.17568,0.17568,0.17568
0.14152,-0.13908,0.13664,0.06588,-0.00488,0.0732,0.01952,0.12688,0.10736,0.14152,0.14152,0.14152
0.10248,-0.10248,0.10248,0.05124,0,0.05124,0.03904,0.10736,0.08784,0.11712,0.11712,0.11224
0.0732,-0.0732,0.0732,0.0366,0,0.0366,0.0488,0.09272,0.06344,0.08296,0.08296,0.07808
0.04392,-0.04392,0.04392,0.02196,0,0.02196,0.05856,0.0732,0.04392,0.06344,0.05368,0.05368
0.0244,-0.0244,0.0244,0.0122,0,0.0122,0.06344,0.0488,0.0244,0.04392,0.02928,0.01952
0,-0.00244,0.00488,0.00488,0.00488,-0.00244,0.0732,0.03416,0.00488,0.01952,0.00976,-0.00976
-0.00976,0.00976,-0.00976,-0.00488,0,-0.00488,0.08296,0.0244,-0.00488,-0.00488,-0.00976,-0.01952
-0.00976,0.01708,-0.0244,-0.01952,-0.01464,0.00244,0.08784,0.01464,-0.01464,-0.01464,-0.01952,-0.02928
-0.02928,0.03416,-0.03904,-0.0244,-0.00976,-0.00976,0.09272,0.00976,-0.0244,-0.0244,-0.03416,-0.0488
-0.04392,0.04636,-0.0488,-0.02684,-0.00488,-0.01952,0.0976,-0.00488,-0.02928,-0.03416,-0.04392,-0.05368
-0.05856,0.061,-0.06344,-0.03416,-0.00488,-0.02684,0.10248,-0.01464,-0.02928,-0.04392,-0.05368,-0.06344
-0.07808,0.07564,-0.0732,-0.03416,0.00488,-0.04148,0.10248,-0.01464,-0.03416,-0.0488,-0.05856,-0.06832
-0.07808,0.07564,-0.0732,-0.03416,0.00488,-0.04148,0.10248,-0.0244,-0.04392,-0.05368,-0.06344,-0.0732
-0.07808,0.07808,-0.07808,-0.03904,0,-0.03904,0.10248,-0.02928,-0.0488,-0.06344,-0.06832,-0.08296
-0.06832,0.0732,-0.07808,-0.04392,-0.00976,-0.02928,0.10248,-0.03416,-0.05368,-0.06832,-0.07808,-0.08784
-0.06832,0.0732,-0.07808,-0.04392,-0.00976,-0.02928,0.10248,-0.03904,-0.06344,-0.0732,-0.07808,-0.08784
-0.06832,0.0732,-0.07808,-0.04392,-0.00976,-0.02928,0.10736,-0.03904,-0.06832,-0.07808,-0.07808,-0.08784
-0.07808,0.08296,-0.08784,-0.0488,-0.00976,-0.03416,0.10736,-0.03904,-0.06832,-0.07808,-0.08784,-0.09272
-0.08784,0.08784,-0.08784,-0.04392,0,-0.04392,0.11224,-0.03904,-0.06832,-0.07808,-0.08784,-0.09272
-0.09272,0.09028,-0.08784,-0.04148,0.00488,-0.0488,0.11224,-0.03904,-0.06832,-0.08296,-0.08784,-0.09272
-0.08784,0.09272,-0.0976,-0.05368,-0.00976,-0.03904,0.11224,-0.03904,-0.06832,-0.08296,-0.08784,-0.09272
-0.08784,0.09516,-0.10248,-0.05856,-0.01464,-0.0366,0.11224,-0.03904,-0.0732,-0.08784,-0.09272,-0.0976
-0.0976,0.10004,-0.10248,-0.05368,-0.00488,-0.04636,0.11224,-0.03904,-0.06832,-0.08296,-0.09272,-0.0976
-0.0976,0.10004,-0.10248,-0.05368,-0.00488,-0.04636,0.11224,-0.03904,-0.06344,-0.07808,-0.09272,-0.0976
-0.09272,0.09516,-0.0976,-0.05124,-0.00488,-0.04392,0.11224,-0.03904,-0.06832,-0.08296,-0.09272,-0.0976
-0.09272,0.09272,-0.09272,-0.04636,0,-0.04636,0.11224,-0.04392,-0.06832,-0.08296,-0.0976,-0.0976
