i,aVR,ii,aVF,iii,aVL,V1,V2,V3,V4,V5,V6
-0.00488,0.00488,-0.00488,-0.00244,0,-0.00244,0.01464,-0.00976,0.23424,-0.03904,-0.01464,-0.01952
-0.01464,0.01464,-0.01464,-0.00732,0,-0.00732,0.0244,-0.00488,0.23912,-0.03904,-0.01464,-0.00976
-0.01952,0.01464,-0.00976,0,0.00976,-0.01464,0.02928,0.00488,0.244,-0.02928,-0.00488,-0.00488
-0.01952,0.01952,-0.01952,-0.00976,0,-0.00976,0.02928,0.00488,0.23912,-0.02928,-0.00488,0
-0.0244,0.01708,-0.00976,0.00244,0.01464,-0.01952,0.01952,-0.00488,0.23424,-0.04392,-0.01464,0
-0.01464,0.0122,-0.00976,-0.00244,0.00488,-0.00976,0.01464,-0.00488,0.23424,-0.04392,-0.01464,0
-0.03416,0.01952,-0.00488,0.0122,0.02928,-0.03172,0.01464,-0.00976,0.23424,-0.02928,-0.01952,0
-0.04392,0.02684,-0.00976,0.0122,0.03416,-0.03904,0.01952,-0.00976,0.23424,-0.02928,-0.0244,0
-0.03904,0.01708,0.00488,0.0244,0.04392,-0.04148,0.01464,-0.00488,0.22936,-0.03904,-0.01464,-0.00488
-0.02928,0.01708,-0.00488,0.00976,0.0244,-0.02684,0.01464,-0.00488,0.22936,-0.03904,-0.00976,-0.00976
-0.00976,0.00488,0,0.00488,0.00976,-0.00976,0.0244,-0.00488,0.22936,-0.03416,-0.00976,0
-0.00976,0.00976,-0.00976,-0.00488,0,-0.00488,0.0244,-0.00488,0.22936,-0.03904,-0.01464,0
-0.00976,0.00732,-0.00488,0,0.00488,-0.00732,0.01464,-0.00488,0.22448,-0.03904,-0.01952,-0.00976
-0.01952,0.01464,-0.00976,0,0.00976,-0.01464,0.01464,-0.00488,0.2196,-0.04392,-0.0244,-0.00976
-0.02928,0.01952,-0.00976,0.00488,0.01952,-0.0244,0.0244,-0.00976,0.21472,-0.05368,-0.00976,-0.00976
-0.03416,0.03172,-0.02928,-0.0122,0.00488,-0.01952,0.0244,-0.00976,0.22936,-0.03904,-0.01464,-0.00976
-0.0244,0.0244,-0.0244,-0.0122,0,-0.0122,0.0244,0,0.22936,-0.04392,-0.0244,-0.01952
-0.02928,0.02928,-0.02928,-0.01464,0,-0.01464,0.0244,0,0.22936,-0.0488,-0.01952,-0.01464
-0.03904,0.03172,-0.0244,-0.00488,0.01464,-0.02684,0.01952,0,0.23424,-0.05368,-0.0244,-0.00976
-0.03904,0.0244,-0.00976,0.00976,0.02928,-0.03416,0.01952,-0.00976,0.22448,-0.0488,-0.02928,-0.01464
-0.03904,0.03172,-0.0244,-0.00488,0.01464,-0.02684,0.01464,-0.00976,0.19032,-0.04392,-0.02928,-0.01952
-0.03416,0.01464,0.00488,0.02196,0.03904,-0.0366,0.01464,-0.00976,0.20984,-0.03904,-0.03416,-0.01952
-0.03416,0.01464,0.00488,0.02196,0.03904,-0.0366,0.01464,-0.00976,0.22448,-0.03416,-0.02928,-0.01952
-0.03904,0.0244,-0.00976,0.00976,0.02928,-0.03416,0.00976,-0.01952,0.2196,-0.04392,-0.02928,-0.01464
-0.05368,0.03172,-0.00976,0.01708,0.04392,-0.0488,0.01952,-0.01464,0.22448,-0.05368,-0.03904,-0.01952
-0.05856,0.03416,-0.00976,0.01952,0.0488,-0.05368,0.01952,-0.01952,0.2196,-0.05856,-0.04392,-0.01952
-0.06344,0.03904,-0.01464,0.01708,0.0488,-0.05612,0.01952,-0.01952,0.22936,-0.0488,-0.02928,-0.02928
-0.06344,0.05124,-0.03904,-0.00732,0.0244,-0.04392,0.01952,-0.01952,0.21472,-0.04392,-0.02928,-0.02928
-0.05368,0.05124,-0.0488,-0.02196,0.00488,-0.02928,0.01952,-0.0244,0.22448,-0.0488,-0.0244,-0.01952
-0.05368,0.0488,-0.04392,-0.01708,0.00976,-0.03172,0.03416,-0.01464,0.2196,-0.0488,-0.0244,-0.0244
-0.04392,0.04392,-0.04392,-0.02196,0,-0.02196,0.0244,-0.00976,0.21472,-0.05856,-0.02928,-0.03416
-0.0488,0.0366,-0.0244,0,0.0244,-0.0366,0.01464,-0.01952,0.21472,-0.05856,-0.03904,-0.03416
-0.05856,0.03416,-0.00976,0.01952,0.0488,-0.05368,0.01464,-0.01952,0.21472,-0.05368,-0.03416,-0.0244
-0.05856,0.03416,-0.00976,0.01952,0.0488,-0.05368,0.0244,-0.01952,0.20496,-0.04392,-0.03904,-0.01952
-0.06344,0.05368,-0.04392,-0.0122,0.01952,-0.04148,0.01952,-0.0244,0.20496,-0.0488,-0.0488,-0.02928
-0.06344,0.05856,-0.05368,-0.02196,0.00976,-0.0366,0.01464,-0.0244,0.21472,-0.05856,-0.0488,-0.03416
-0.0488,0.04636,-0.04392,-0.01952,0.00488,-0.02684,0.01952,-0.01464,0.20984,-0.05856,-0.03416,-0.02928
-0.0488,0.0366,-0.0244,0,0.0244,-0.0366,0.0244,-0.01464,0.2196,-0.05856,-0.04392,-0.0244
-0.04392,0.0366,-0.02928,-0.00732,0.01464,-0.02928,0.0244,-0.00488,0.22448,-0.05368,-0.03416,-0.02928
-0.04392,0.04148,-0.03904,-0.01708,0.00488,-0.0244,0.0244,-0.00488,0.23424,-0.04392,-0.03904,-0.01952
-0.05368,0.0488,-0.04392,-0.01708,0.00976,-0.03172,0.0244,-0.00976,0.23424,-0.03904,-0.03904,-0.01464
-0.06344,0.05124,-0.03904,-0.00732,0.0244,-0.04392,0.0244,-0.00976,0.22936,-0.03416,-0.03904,-0.0244
-0.0488,0.04148,-0.03416,-0.00976,0.01464,-0.03172,0.03904,-0.00976,0.23424,-0.04392,-0.0244,-0.0244
-0.03416,0.04392,-0.05368,-0.0366,-0.01952,-0.00732,0.03904,-0.00488,0.22936,-0.0488,-0.0244,-0.0244
-0.02928,0.03172,-0.03416,-0.01952,-0.00488,-0.0122,0.03416,0.00488,0.23912,-0.04392,-0.02928,-0.01952
-0.0488,0.04392,-0.03904,-0.01464,0.00976,-0.02928,0.02928,0.00488,0.23912,-0.03904,-0.0244,-0.0244
-0.0244,0.00976,0.00488,0.01708,0.02928,-0.02684,0.05368,0.0244,0.24888,-0.01952,-0.01464,0
-0.00976,-0.00732,0.0244,0.02928,0.03416,-0.02196,0.0488,0.02928,0.26352,-0.01952,0,0.00976
-0.00976,-0.00244,0.01464,0.01952,0.0244,-0.01708,0.0488,0.02928,0.26352,-0.01952,0,0.00976
-0.0244,0.0122,0,0.0122,0.0244,-0.0244,0.03904,0.01952,0.26352,-0.01952,-0.00976,0.00488
-0.01952,-0.00488,0.02928,0.03904,0.0488,-0.03416,0.03904,0.0244,0.26352,-0.00976,-0.00488,0
-0.01952,-0.00488,0.02928,0.03904,0.0488,-0.03416,0.0488,0.0244,0.27328,-0.01464,0.00488,0.00976
-0.01952,-0.00488,0.02928,0.03904,0.0488,-0.03416,0.0488,0.0244,0.27816,-0.00488,0.00488,0.00976
-0.01952,0,0.01952,0.02928,0.03904,-0.02928,0.03904,0.01952,0.27328,-0.00488,-0.00488,-0.00976
-0.02928,0.00244,0.0244,0.03904,0.05368,-0.04148,0.02928,0.01464,0.27328,-0.00488,-0.00488,-0.00488
-0.02928,-0.00976,0.0488,0.06344,0.07808,-0.05368,0.0244,0.01952,0.27816,-0.00488,0,0
-0.0244,-0.01952,0.06344,0.07564,0.08784,-0.05612,0.01952,0.00976,0.27816,0.00488,0.00976,0.01464
0.00488,-0.0366,0.06832,0.06588,0.06344,-0.02928,0.00976,0,0.27328,-0.00976,0,0.00976
0,-0.02928,0.05856,0.05856,0.05856,-0.02928,0.00488,-0.00488,0.25864,-0.01464,0,0
-0.00488,-0.02684,0.05856,0.061,0.06344,-0.03416,0.00488,-0.01464,0.25864,-0.00488,0,0.00976
-0.01464,-0.02684,0.06832,0.07564,0.08296,-0.0488,0.00488,-0.01464,0.25864,-0.00488,0,0.01952
-0.00488,-0.0366,0.07808,0.08052,0.08296,-0.04392,-0.00976,-0.02928,0.25864,-0.01464,-0.00976,0.00976
-0.00976,-0.0366,0.08296,0.08784,0.09272,-0.05124,-0.01952,-0.03904,0.24888,-0.01952,-0.01952,0.00488
0.01464,-0.05856,0.10248,0.09516,0.08784,-0.0366,-0.01464,-0.02928,0.23912,-0.02928,-0.00976,0.00976
0.01464,-0.05856,0.10248,0.09516,0.08784,-0.0366,-0.01464,-0.02928,0.23912,-0.02928,-0.00976,0.00976
0.02928,-0.06344,0.0976,0.08296,0.06832,-0.01952,-0.0244,-0.02928,0.244,-0.0244,0.00488,0.01952
0.0244,-0.05856,0.09272,0.08052,0.06832,-0.02196,-0.00976,-0.01952,0.25376,-0.01464,0.00488,0.02928
-0.00488,-0.02928,0.06344,0.06588,0.06832,-0.0366,-0.01464,-0.01952,0.23912,-0.01952,-0.01464,0.0244
-0.0244,-0.0122,0.0488,0.061,0.0732,-0.0488,-0.01952,-0.0244,0.22936,-0.02928,-0.01952,-0.00488
-0.0488,0.00732,0.03416,0.05856,0.08296,-0.06588,-0.00976,-0.0244,0.22936,-0.0488,-0.02928,-0.00976
-0.06344,0.0366,-0.00976,0.02196,0.05368,-0.05856,0,-0.0244,0.23424,-0.0488,-0.03416,-0.01952
-0.06832,0.04636,-0.0244,0.00976,0.04392,-0.05612,0.01464,-0.02928,0.22448,-0.05856,-0.04392,-0.03904
-0.06832,0.0366,-0.00488,0.02928,0.06344,-0.06588,0.00488,-0.02928,0.20984,-0.05856,-0.05856,-0.04392
-0.0732,0.04148,-0.00976,0.02684,0.06344,-0.06832,0.00488,-0.0244,0.20984,-0.04392,-0.0488,-0.03416
-0.05856,0.03416,-0.00976,0.01952,0.0488,-0.05368,0.01464,-0.01464,0.21472,-0.0488,-0.04392,-0.03904
-0.06832,0.04392,-0.01952,0.01464,0.0488,-0.05856,0.00976,-0.01952,0.20496,-0.06344,-0.05368,-0.0488
-0.06832,0.04636,-0.0244,0.00976,0.04392,-0.05612,0.00488,-0.02928,0.20496,-0.0732,-0.05856,-0.05368
-0.05368,0.0366,-0.01952,0.00732,0.03416,-0.04392,0.01464,-0.03416,0.21472,-0.06832,-0.06344,-0.05856
-0.05368,0.03416,-0.01464,0.0122,0.03904,-0.04636,0.01464,-0.03416,0.21472,-0.06832,-0.06344,-0.05368
-0.05368,0.03416,-0.01464,0.0122,0.03904,-0.04636,0.00488,-0.0244,0.21472,-0.06832,-0.0732,-0.04392
-0.05856,0.04148,-0.0244,0.00488,0.03416,-0.04636,0.00488,-0.0244,0.21472,-0.06832,-0.0732,-0.04392
-0.05368,0.04148,-0.02928,-0.00244,0.0244,-0.03904,0.01464,-0.0244,0.2196,-0.05856,-0.06344,-0.04392
-0.05368,0.04148,-0.02928,-0.00244,0.0244,-0.03904,0.00976,-0.02928,0.2196,-0.06344,-0.06832,-0.05368
-0.03416,0.02684,-0.01952,-0.00244,0.01464,-0.0244,0.03416,-0.01464,0.24888,-0.0488,-0.0488,-0.02928
-0.04392,0.03904,-0.03416,-0.0122,0.00976,-0.02684,0.02928,-0.01464,0.244,-0.03904,-0.03416,-0.0244
-0.06344,0.06832,-0.0732,-0.04148,-0.00976,-0.02684,0.03416,0,0.23912,-0.05368,-0.0488,-0.04392
-0.04392,0.06588,-0.08784,-0.06588,-0.04392,0,0.03416,0.01464,0.23912,-0.05368,-0.0488,-0.05368
-0.04392,0.05368,-0.06344,-0.04148,-0.01952,-0.0122,0.05856,0.0488,0.26352,-0.04392,-0.05368,-0.06344
0.01464,0.04148,-0.0976,-0.10492,-0.11224,0.06344,0.10248,0.15128,0.33672,0.01952,0.02928,-0.04392
0.0976,-0.0366,-0.0244,-0.0732,-0.122,0.1098,0.08296,0.23912,0.4148,0.11712,0.1464,0.00976
0.24888,-0.14396,0.03904,-0.0854,-0.20984,0.22936,0.02928,0.33184,0.50264,0.23424,0.3172,0.14152
0.44896,-0.28792,0.12688,-0.0976,-0.32208,0.38552,-0.05856,0.40992,0.59048,0.35136,0.53192,0.29768
0.73688,-0.48068,0.22448,-0.14396,-0.5124,0.62464,-0.16592,0.4636,0.6344,0.44408,0.732,0.44408
0.94672,-0.63684,0.32696,-0.1464,-0.61976,0.78324,-0.2684,0.45872,0.64416,0.53192,0.92232,0.59048
0.87352,-0.60512,0.33672,-0.10004,-0.5368,0.70516,-0.3416,0.32696,0.5856,0.51728,0.89792,0.62952
0.57096,-0.4636,0.35624,0.07076,-0.21472,0.39284,-0.33672,0.06344,0.47824,0.38552,0.66856,0.58072
0.2196,-0.29036,0.36112,0.25132,0.14152,0.03904,-0.35624,-0.37088,0.22448,0.12688,0.25864,0.40016
0.03904,-0.19032,0.3416,0.32208,0.30256,-0.13176,-0.40504,-0.6344,0.02928,-0.05368,0.03416,0.32208
-0.04392,-0.12444,0.2928,0.31476,0.33672,-0.19032,-0.40992,-0.72712,-0.05368,-0.1464,-0.09272,0.25864
-0.07808,-0.05368,0.18544,0.22448,0.26352,-0.1708,-0.40016,-0.76128,-0.14152,-0.26352,-0.20984,0.1708
-0.0976,-0.03172,0.16104,0.20984,0.25864,-0.17812,-0.40504,-0.77104,-0.22448,-0.38064,-0.32208,0.0488
-0.07808,-0.01708,0.11224,0.15128,0.19032,-0.1342,-0.35136,-0.7076,-0.22936,-0.3904,-0.34648,0.00976
-0.08784,-0.02684,0.14152,0.18544,0.22936,-0.1586,-0.2684,-0.5368,-0.11712,-0.30256,-0.26352,0.02928
-0.07808,-0.01708,0.11224,0.15128,0.19032,-0.1342,-0.19032,-0.3904,0,-0.20984,-0.19032,0.03416
-0.08784,0.00488,0.07808,0.122,0.16592,-0.12688,-0.11712,-0.28304,0.06832,-0.1708,-0.15128,0.04392
-0.04392,-0.03172,0.10736,0.12932,0.15128,-0.0976,-0.10736,-0.22936,0.07808,-0.15616,-0.122,0.01464
-0.08296,0.0244,0.03416,0.07564,0.11712,-0.10004,-0.04392,-0.13176,0.15128,-0.09272,-0.08296,0.00488
-0.0488,0.01952,0.00976,0.03416,0.05856,-0.05368,-0.01464,-0.09272,0.18544,-0.06832,-0.0732,-0.00976
-0.04392,0.02196,0,0.02196,0.04392,-0.04392,0,-0.06832,0.20496,-0.05856,-0.07808,-0.00976
-0.05856,0.02928,0,0.02928,0.05856,-0.05856,-0.00976,-0.05856,0.21472,-0.06344,-0.05856,-0.0244
-0.05368,0.02684,0,0.02684,0.05368,-0.05368,0,-0.03904,0.22448,-0.06344,-0.05856,-0.03416
-0.03904,0.02196,-0.00488,0.01464,0.03416,-0.0366,0.00976,-0.03416,0.22448,-0.0732,-0.05856,-0.03416
-0.03904,0.02684,-0.01464,0.00488,0.0244,-0.03172,0.01952,-0.0244,0.23424,-0.05368,-0.0488,-0.01952
-0.04392,0.02928,-0.01464,0.00732,0.02928,-0.0366,0.02928,-0.01952,0.24888,-0.04392,-0.04392,-0.01952
-0.04392,0.04148,-0.03904,-0.01708,0.00488,-0.0244,0.03416,-0.00976,0.25376,-0.0488,-0.0488,-0.03416
-0.03904,0.03904,-0.03904,-0.01952,0,-0.01952,0.03904,-0.01464,0.24888,-0.05856,-0.05856,-0.03416
-0.04392,0.0244,-0.00488,0.01708,0.03904,-0.04148,0.03904,-0.01464,0.25864,-0.04392,-0.05368,-0.0244
-0.03416,0.01708,0,0.01708,0.03416,-0.03416,0.03904,-0.00976,0.25864,-0.03416,-0.03904,-0.0244
-0.03416,0.02196,-0.00976,0.00732,0.0244,-0.02928,0.0488,0,0.26352,-0.03416,-0.03416,-0.0244
-0.04392,0.02684,-0.00976,0.0122,0.03416,-0.03904,0.03904,0.00488,0.27328,-0.03416,-0.03416,-0.02928
-0.03416,0.02196,-0.00976,0.00732,0.0244,-0.02928,0.03904,0.00488,0.27328,-0.03416,-0.02928,-0.01952
-0.0244,0.01464,-0.00488,0.00732,0.01952,-0.02196,0.03416,0,0.25864,-0.03904,-0.02928,-0.02928
-0.0244,0.01708,-0.00976,0.00244,0.01464,-0.01952,0.03904,0,0.2684,-0.03416,-0.03904,-0.0244
-0.04392,0.03172,-0.01952,0.00244,0.0244,-0.03416,0.0488,0,0.2684,-0.03904,-0.03416,-0.01952
-0.0244,0.0244,-0.0244,-0.0122,0,-0.0122,0.0488,0.00488,0.27328,-0.03904,-0.03416,-0.00976
-0.02928,0.02196,-0.01464,0,0.01464,-0.02196,0.03904,0,0.26352,-0.03416,-0.04392,-0.01952
-0.01952,0.01708,-0.01464,-0.00488,0.00488,-0.0122,0.03904,0,0.26352,-0.02928,-0.03904,-0.01464
-0.02928,0.01952,-0.00976,0.00488,0.01952,-0.0244,0.03904,0.00976,0.25376,-0.0244,-0.02928,-0.00488
-0.03904,0.03416,-0.02928,-0.00976,0.00976,-0.0244,0.03904,0.00976,0.25864,-0.01952,-0.0244,-0.00488
-0.0244,0.01464,-0.00488,0.00732,0.01952,-0.02196,0.01952,0,0.25864,-0.03416,-0.02928,-0.00976
-0.01952,0.0122,-0.00488,0.00488,0.01464,-0.01708,0.0244,0,0.25864,-0.03416,-0.02928,-0.01464
-0.02928,0.01708,-0.00488,0.00976,0.0244,-0.02684,0.03904,0.00976,0.2684,-0.0244,-0.02928,-0.01952
-0.0244,0.01708,-0.00976,0.00244,0.01464,-0.01952,0.03904,0.01464,0.2684,-0.0244,-0.02928,-0.00976
-0.03416,0.0244,-0.01464,0.00244,0.01952,-0.02684,0.03416,0.00488,0.25864,-0.03416,-0.03416,-0.00976
-0.03416,0.02684,-0.01952,-0.00244,0.01464,-0.0244,0.03416,0.00488,0.26352,-0.02928,-0.04392,-0.01464
-0.01952,0.01464,-0.00976,0,0.00976,-0.01464,0.03416,0.00488,0.26352,-0.01952,-0.03416,-0.00976
0,0.00244,-0.00488,-0.00488,-0.00488,0.00244,0.03416,0.00488,0.26352,-0.0244,-0.03416,-0.00976
-0.01464,0.0122,-0.00976,-0.00244,0.00488,-0.00976,0.0244,-0.00488,0.25376,-0.0244,-0.03904,-0.00976
-0.0244,0.02196,-0.01952,-0.00732,0.00488,-0.01464,0.0244,-0.00488,0.25376,-0.0244,-0.03904,-0.00488
-0.0244,0.00976,0.00488,0.01708,0.02928,-0.02684,0.03416,0,0.25864,-0.01464,-0.03904,-0.01464
-0.01464,0.00732,0,0.00732,0.01464,-0.01464,0.02928,0,0.25864,-0.01952,-0.03904,-0.00976
0,-0.00244,0.00488,0.00488,0.00488,-0.00244,0.02928,0,0.27328,-0.00976,-0.03416,0
0,-0.00244,0.00488,0.00488,0.00488,-0.00244,0.02928,0,0.27816,0,-0.02928,0
-0.00488,0.00244,0,0.00244,0.00488,-0.00488,0.01952,-0.00976,0.2684,-0.01464,-0.02928,-0.00976
-0.01464,0.00488,0.00488,0.0122,0.01952,-0.01708,0.0244,-0.00976,0.26352,-0.0244,-0.03904,-0.01464
-0.00976,0.00732,-0.00488,0,0.00488,-0.00732,0.01952,0,0.26352,-0.01952,-0.02928,-0.00488
0,0.00488,-0.00976,-0.00976,-0.00976,0.00488,0.02928,-0.00488,0.26352,-0.01952,-0.03416,-0.00488
0.01464,-0.00976,0.00488,-0.00244,-0.00976,0.0122,0.01952,-0.01464,0.25376,-0.01952,-0.03416,-0.00488
0.01464,-0.00976,0.00488,-0.00244,-0.00976,0.0122,0.01952,-0.01464,0.25376,-0.0244,-0.02928,-0.00488
0.01952,-0.01708,0.01464,0.00488,-0.00488,0.0122,0.01464,-0.01952,0.25864,-0.0244,-0.0244,-0.00488
0.02928,-0.02196,0.01464,0,-0.01464,0.02196,0.01464,-0.00488,0.25864,-0.0244,-0.01952,0.00976
0.01464,-0.00244,-0.00976,-0.01708,-0.0244,0.01952,0.00976,-0.01464,0.23912,-0.04392,-0.03904,0
0.01464,-0.00732,0,-0.00732,-0.01464,0.01464,0.00488,-0.0244,0.23424,-0.04392,-0.03904,0
0.01952,-0.01464,0.00976,0,-0.00976,0.01464,-0.01464,-0.03904,0.23424,-0.05368,-0.05368,-0.00488
0.01952,-0.02196,0.0244,0.01464,0.00488,0.00732,-0.00976,-0.04392,0.23912,-0.0488,-0.05368,0
0.03904,-0.03172,0.0244,0.00488,-0.01464,0.02684,-0.01952,-0.05368,0.22936,-0.0488,-0.04392,0.00488
0.03904,-0.02196,0.00488,-0.01464,-0.03416,0.0366,-0.0244,-0.05856,0.21472,-0.05368,-0.06344,-0.00976
0.03904,-0.02684,0.01464,-0.00488,-0.0244,0.03172,-0.0244,-0.05856,0.20984,-0.06344,-0.0732,-0.00488
0.03904,-0.0244,0.00976,-0.00976,-0.02928,0.03416,-0.0244,-0.06832,0.20984,-0.06832,-0.06832,0
0.04392,-0.02928,0.01464,-0.00732,-0.02928,0.0366,-0.03416,-0.07808,0.21472,-0.06344,-0.05368,0
0.03904,-0.02196,0.00488,-0.01464,-0.03416,0.0366,-0.03904,-0.07808,0.20496,-0.06344,-0.05856,0
0.05856,-0.03172,0.00488,-0.0244,-0.05368,0.05612,-0.0488,-0.0976,0.1952,-0.06832,-0.06344,-0.00488
0.0488,-0.0366,0.0244,0,-0.0244,0.0366,-0.06344,-0.10248,0.19032,-0.07808,-0.0732,0
0.03904,-0.02684,0.01464,-0.00488,-0.0244,0.03172,-0.06832,-0.0976,0.20008,-0.07808,-0.06832,-0.00488
0.02928,-0.02196,0.01464,0,-0.01464,0.02196,-0.06832,-0.09272,0.20008,-0.07808,-0.05856,-0.00976
0.03904,-0.02928,0.01952,0,-0.01952,0.02928,-0.0732,-0.10248,0.1952,-0.08296,-0.06832,-0.00976
0.07808,-0.05612,0.03416,-0.00488,-0.04392,0.061,-0.0732,-0.10736,0.20008,-0.06832,-0.05368,0.00488
0.0732,-0.05612,0.03904,0.00244,-0.03416,0.05368,-0.0732,-0.09272,0.20984,-0.06344,-0.05368,0.02928
0.0732,-0.061,0.0488,0.0122,-0.0244,0.0488,-0.0732,-0.07808,0.2196,-0.04392,-0.02928,0.0488
0.06344,-0.05856,0.05368,0.02196,-0.00976,0.0366,-0.0732,-0.08784,0.23424,-0.03904,-0.02928,0.04392
0.05368,-0.05612,0.05856,0.03172,0.00488,0.0244,-0.06344,-0.0732,0.24888,-0.02928,-0.01952,0.03904
0.05856,-0.061,0.06344,0.03416,0.00488,0.02684,-0.05856,-0.05368,0.24888,-0.00976,-0.00976,0.03416
0.05368,-0.05612,0.05856,0.03172,0.00488,0.0244,-0.04392,-0.04392,0.26352,0,0.00976,0.04392
0.04392,-0.04392,0.04392,0.02196,0,0.02196,-0.03904,-0.04392,0.27328,0.00976,0.00488,0.04392
0.0244,-0.04148,0.05856,0.04636,0.03416,-0.00488,-0.03416,-0.04392,0.27328,0.00488,0.00488,0.02928
0.01952,-0.0366,0.05368,0.04392,0.03416,-0.00732,-0.0244,-0.0244,0.2928,0.01464,0.01464,0.03416
0.0244,-0.03416,0.04392,0.03172,0.01952,0.00244,-0.01464,-0.01464,0.29768,0.01952,0.01464,0.04392
0.01952,-0.03416,0.0488,0.03904,0.02928,-0.00488,-0.00488,0,0.30256,0.01952,0.0244,0.03416
0.00976,-0.02928,0.0488,0.04392,0.03904,-0.01464,0.00488,0.00488,0.31232,0.01952,0.01952,0.03416
0,-0.01952,0.03904,0.03904,0.03904,-0.01952,0.00488,-0.00488,0.30744,0.00488,0,0.01464
-0.00488,-0.01708,0.03904,0.04148,0.04392,-0.0244,0.01464,0,0.29768,0.00488,0,0.01464
-0.01464,-0.00244,0.01952,0.02684,0.03416,-0.0244,0.01952,0.00488,0.30256,0.00488,-0.00488,0.01464
-0.01464,-0.00732,0.02928,0.0366,0.04392,-0.02928,0.01952,0.00488,0.30256,0.00488,-0.00488,0.00976
-0.02928,0.00976,0.00976,0.0244,0.03904,-0.03416,0.0244,0,0.29768,-0.00488,-0.00488,0
-0.02928,0.00488,0.01952,0.03416,0.0488,-0.03904,0.0244,0.00488,0.29768,-0.00976,-0.01464,0
-0.03416,0.0122,0.00976,0.02684,0.04392,-0.03904,0.0244,0.00976,0.30256,-0.00976,-0.01464,0
-0.04392,0.02684,-0.00976,0.0122,0.03416,-0.03904,0.02928,0.00976,0.2928,0,-0.01464,0
-0.03904,0.02684,-0.01464,0.00488,0.0244,-0.03172,0.01952,0,0.28792,-0.00488,-0.01464,-0.00488
-0.02928,0.01708,-0.00488,0.00976,0.0244,-0.02684,0.01952,0.00488,0.28792,-0.00488,-0.01952,-0.00488
-0.04392,0.02684,-0.00976,0.0122,0.03416,-0.03904,0.0244,-0.00976,0.27816,-0.00976,-0.02928,-0.01464
-0.05368,0.03172,-0.00976,0.01708,0.04392,-0.0488,0.02928,-0.01464,0.27328,-0.0244,-0.04392,-0.01952
-0.06344,0.03172,0,0.03172,0.06344,-0.06344,0.01464,-0.00976,0.26352,-0.03416,-0.04392,-0.0244
-0.05856,0.04148,-0.0244,0.00488,0.03416,-0.04636,0.01464,-0.01464,0.26352,-0.02928,-0.04392,-0.01952
-0.06832,0.05612,-0.04392,-0.00976,0.0244,-0.04636,0.00976,-0.01464,0.2684,-0.0244,-0.04392,-0.0244
-0.06832,0.05612,-0.04392,-0.00976,0.0244,-0.04636,0.0244,-0.00976,0.28304,-0.0244,-0.04392,-0.01952
-0.06832,0.04636,-0.0244,0.00976,0.04392,-0.05612,0.02928,-0.00976,0.2684,-0.0244,-0.0488,-0.0244
-0.05856,0.03172,-0.00488,0.0244,0.05368,-0.05612,0.0244,-0.00976,0.2684,-0.01952,-0.0488,-0.02928
-0.06344,0.0366,-0.00976,0.02196,0.05368,-0.05856,0.0244,0,0.2684,-0.02928,-0.0488,-0.0244
-0.05856,0.03416,-0.00976,0.01952,0.0488,-0.05368,0.02928,0.00488,0.28304,-0.01952,-0.03904,-0.0244
-0.06832,0.03904,-0.00976,0.0244,0.05856,-0.06344,0.03416,0.00488,0.27328,-0.01952,-0.03904,-0.02928
-0.06832,0.04392,-0.01952,0.01464,0.0488,-0.05856,0.02928,0.00488,0.27816,-0.01464,-0.04392,-0.02928
-0.05856,0.03416,-0.00976,0.01952,0.0488,-0.05368,0.01952,-0.00488,0.27816,-0.01952,-0.04392,-0.0244
-0.05856,0.0366,-0.01464,0.01464,0.04392,-0.05124,0.01464,-0.00488,0.28304,-0.02928,-0.03904,-0.0244
-0.05856,0.04148,-0.0244,0.00488,0.03416,-0.04636,0.0244,-0.00488,0.28304,-0.02928,-0.03904,-0.02928
-0.06832,0.05612,-0.04392,-0.00976,0.0244,-0.04636,0.0244,-0.00488,0.28304,-0.01952,-0.03904,-0.01952
-0.06344,0.0488,-0.03416,-0.00244,0.02928,-0.04636,0.01952,0,0.28304,-0.01952,-0.02928,-0.0244
-0.06344,0.04392,-0.0244,0.00732,0.03904,-0.05124,0.0244,0,0.27816,-0.01952,-0.02928,-0.02928
-0.06344,0.04636,-0.02928,0.00244,0.03416,-0.0488,0.01464,-0.00976,0.27816,-0.02928,-0.03904,-0.0244
-0.08296,0.04636,-0.00976,0.03172,0.0732,-0.07808,0.00488,-0.00976,0.27328,-0.02928,-0.0488,-0.0244
-0.0732,0.04392,-0.01464,0.02196,0.05856,-0.06588,0.01464,-0.00488,0.27328,-0.02928,-0.04392,-0.01952
-0.05856,0.0366,-0.01464,0.01464,0.04392,-0.05124,0.01464,0,0.2684,-0.01952,-0.04392,-0.01464
-0.05368,0.0366,-0.01952,0.00732,0.03416,-0.04392,0.01952,0,0.27328,-0.01464,-0.02928,-0.00976
-0.06344,0.04392,-0.0244,0.00732,0.03904,-0.05124,0.01952,0,0.27816,-0.00488,-0.0244,-0.00488
-0.07808,0.05856,-0.03904,0,0.03904,-0.05856,0.02928,0.00976,0.27816,-0.00488,-0.0244,0
-0.06344,0.0488,-0.03416,-0.00244,0.02928,-0.04636,0.0244,0.00976,0.28304,-0.00976,-0.0244,-0.00488
-0.0488,0.03904,-0.02928,-0.00488,0.01952,-0.03416,0.01464,0.00976,0.27328,-0.01952,-0.03416,-0.01952
-0.0488,0.03904,-0.02928,-0.00488,0.01952,-0.03416,0.0244,0.01464,0.27816,-0.01952,-0.03416,-0.00976
-0.06344,0.04392,-0.0244,0.00732,0.03904,-0.05124,0.01952,0.00488,0.27328,-0.00976,-0.03416,-0.01464
-0.0732,0.05856,-0.04392,-0.00732,0.02928,-0.05124,0.01952,0.00488,0.2684,-0.00976,-0.03416,-0.00976
-0.0732,0.04636,-0.01952,0.01708,0.05368,-0.06344,0.00976,0.00488,0.26352,-0.01464,-0.03416,-0.00976
-0.06344,0.04148,-0.01952,0.0122,0.04392,-0.05368,0.00488,0.00488,0.26352,-0.01464,-0.03416,-0.00976
-0.06832,0.05368,-0.03904,-0.00488,0.02928,-0.0488,0.01464,0.00976,0.26352,-0.00976,-0.02928,-0.00976
-0.06832,0.061,-0.05368,-0.01952,0.01464,-0.04148,0.01952,0.00976,0.26352,-0.00976,-0.03416,-0.00976
-0.0732,0.05856,-0.04392,-0.00732,0.02928,-0.05124,0.00488,0.00488,0.25864,-0.01952,-0.03904,-0.01464
-0.0732,0.06344,-0.05368,-0.01708,0.01952,-0.04636,0.00488,0.00488,0.25864,-0.01952,-0.04392,-0.01952
-0.08296,0.07076,-0.05856,-0.01708,0.0244,-0.05368,0.01464,0.00488,0.26352,-0.0244,-0.03904,-0.01952
-0.09272,0.08052,-0.06832,-0.02196,0.0244,-0.05856,0.01464,0.00488,0.25376,-0.02928,-0.04392,-0.01952
-0.08784,0.06588,-0.04392,0,0.04392,-0.06588,0.01464,0.00488,0.24888,-0.0244,-0.03904,-0.00976
-0.07808,0.06344,-0.0488,-0.00976,0.02928,-0.05368,0.01464,0.00488,0.25376,-0.01952,-0.04392,-0.00976
-0.06832,0.05124,-0.03416,0,0.03416,-0.05124,0.0244,0.00488,0.25864,-0.01952,-0.02928,0
-0.0732,0.05856,-0.04392,-0.00732,0.02928,-0.05124,0.0244,0.01464,0.28304,0.00488,-0.03416,0
-0.06344,0.03904,-0.01464,0.01708,0.0488,-0.05612,0.03416,0.02928,0.29768,0.01464,-0.0244,0
-0.0976,0.05368,-0.00976,0.03904,0.08784,-0.09272,0.0244,0.00976,0.29768,0,-0.02928,0.00488
-0.0976,0.05368,-0.00976,0.03904,0.08784,-0.09272,0.01952,0.01952,0.2928,0,-0.01952,0.00976
-0.08784,0.05368,-0.01952,0.0244,0.06832,-0.07808,0.01952,0.01952,0.2928,0,-0.01952,0
-0.07808,0.0488,-0.01952,0.01952,0.05856,-0.06832,0.01952,0.01952,0.2928,0,-0.01952,-0.00976
-0.08296,0.05124,-0.01952,0.02196,0.06344,-0.0732,0.02928,0.0244,0.30256,0.00976,-0.02928,-0.00488
-0.07808,0.04636,-0.01464,0.0244,0.06344,-0.07076,0.02928,0.0244,0.30256,0.00488,-0.0244,-0.00488
-0.08784,0.0488,-0.00976,0.03416,0.07808,-0.08296,0.01952,0.0244,0.30744,0.00976,-0.01464,0.00976
-0.08784,0.04392,0,0.04392,0.08784,-0.08784,0.01952,0.0244,0.30256,0.01952,-0.01464,0
-0.0732,0.04148,-0.00976,0.02684,0.06344,-0.06832,0.00976,0.00976,0.31232,0.01952,-0.01464,0.00488
-0.0732,0.0366,0,0.0366,0.0732,-0.0732,-0.00976,0,0.31232,0.01952,-0.01464,0.00488
-0.06832,0.04148,-0.01464,0.01952,0.05368,-0.061,-0.00488,0.00976,0.29768,0.00976,-0.01464,0
-0.05368,0.0366,-0.01952,0.00732,0.03416,-0.04392,-0.00488,-0.00488,0.28304,0,-0.01952,0
-0.06832,0.0366,-0.00488,0.02928,0.06344,-0.06588,-0.0244,-0.01952,0.27816,0,-0.02928,0
-0.06344,0.02928,0.00488,0.0366,0.06832,-0.06588,-0.0244,-0.0244,0.27816,-0.00488,-0.02928,0
-0.0732,0.04392,-0.01464,0.02196,0.05856,-0.06588,-0.0244,-0.0244,0.2684,-0.00488,-0.02928,0
-0.0732,0.0488,-0.0244,0.0122,0.0488,-0.061,-0.0244,-0.0244,0.2684,-0.00488,-0.02928,0.00976
-0.06832,0.04148,-0.01464,0.01952,0.05368,-0.061,-0.0488,-0.03416,0.25376,-0.00976,-0.01952,0.00488
-0.06344,0.0366,-0.00976,0.02196,0.05368,-0.05856,-0.05368,-0.03904,0.24888,-0.00976,-0.01952,0.00488
-0.06344,0.0244,0.01464,0.04636,0.07808,-0.07076,-0.05368,-0.02928,0.23912,-0.00976,-0.02928,0
-0.0732,0.03904,-0.00488,0.03172,0.06832,-0.07076,-0.05368,-0.02928,0.23912,-0.00976,-0.02928,0.00488
-0.08296,0.05368,-0.0244,0.01708,0.05856,-0.07076,-0.0244,-0.0244,0.24888,-0.00976,-0.0244,0.00488
-0.10736,0.0732,-0.03904,0.01464,0.06832,-0.08784,-0.00488,-0.01952,0.244,-0.00976,-0.02928,0.00488
-0.122,0.09516,-0.06832,-0.00732,0.05368,-0.08784,-0.01952,-0.03416,0.22448,-0.03904,-0.05368,-0.01952
-0.13176,0.10736,-0.08296,-0.01708,0.0488,-0.09028,-0.01464,-0.03904,0.2196,-0.04392,-0.0732,-0.03416
-0.122,0.10248,-0.08296,-0.02196,0.03904,-0.08052,-0.00488,-0.03416,0.2196,-0.03904,-0.0732,-0.03904
-0.122,0.11468,-0.10736,-0.04636,0.01464,-0.06832,0.01464,-0.03416,0.22448,-0.04392,-0.06832,-0.04392
-0.12688,0.11468,-0.10248,-0.03904,0.0244,-0.07564,0.00976,-0.02928,0.22448,-0.0488,-0.06344,-0.05368
-0.12688,0.1098,-0.09272,-0.02928,0.03416,-0.08052,0,-0.02928,0.22448,-0.0488,-0.06344,-0.05368
-0.1464,0.13664,-0.12688,-0.05368,0.01952,-0.08296,-0.00976,-0.03904,0.21472,-0.05368,-0.0732,-0.06344
-0.14152,0.12932,-0.11712,-0.04636,0.0244,-0.08296,-0.00976,-0.03904,0.20496,-0.06832,-0.09272,-0.06832
-0.13664,0.122,-0.10736,-0.03904,0.02928,-0.08296,-0.00488,-0.04392,0.20496,-0.06344,-0.0976,-0.08296
-0.12688,0.11956,-0.11224,-0.0488,0.01464,-0.07076,-0.00488,-0.04392,0.20496,-0.0732,-0.09272,-0.08296
-0.13176,0.12688,-0.122,-0.05612,0.00976,-0.07076,-0.00488,-0.04392,0.21472,-0.06832,-0.09272,-0.08784
-0.14152,0.1342,-0.12688,-0.05612,0.01464,-0.07808,-0.00488,-0.04392,0.21472,-0.06832,-0.09272,-0.08296
-0.15128,0.13908,-0.12688,-0.05124,0.0244,-0.08784,0.00488,-0.03416,0.21472,-0.06832,-0.09272,-0.0732
-0.15616,0.14152,-0.12688,-0.0488,0.02928,-0.09272,0.00488,-0.03416,0.21472,-0.06832,-0.09272,-0.06344
-0.15128,0.14396,-0.13664,-0.061,0.01464,-0.08296,0,-0.03904,0.20984,-0.0732,-0.0976,-0.0732
-0.15128,0.14884,-0.1464,-0.07076,0.00488,-0.07808,0,-0.03904,0.20984,-0.06832,-0.0976,-0.06832
-0.15128,0.1464,-0.14152,-0.06588,0.00976,-0.08052,0.00488,-0.03416,0.20984,-0.07808,-0.10248,-0.06344
-0.13176,0.13176,-0.13176,-0.06588,0,-0.06588,0.00976,-0.03904,0.2196,-0.0488,-0.08296,-0.05368
-0.14152,0.1342,-0.12688,-0.05612,0.01464,-0.07808,0,-0.02928,0.22448,-0.06344,-0.08784,-0.06832
-0.13664,0.1464,-0.15616,-0.08784,-0.01952,-0.05856,0.01464,0.01464,0.24888,-0.04392,-0.08296,-0.06832
-0.13664,0.14396,-0.15128,-0.08296,-0.01464,-0.061,0.0488,0.06344,0.28792,-0.01952,-0.0732,-0.08296
-0.06832,0.10248,-0.13664,-0.10248,-0.06832,0,0.08296,0.16104,0.35136,0.05368,0.0244,-0.03416
0.02928,0.05124,-0.13176,-0.1464,-0.16104,0.09516,0.05856,0.26352,0.43432,0.13664,0.16592,0.0488
0.25376,-0.12932,0.00488,-0.122,-0.24888,0.25132,-0.03416,0.35624,0.5124,0.244,0.34648,0.16592
0.5124,-0.30744,0.10248,-0.15372,-0.40992,0.46116,-0.13664,0.43432,0.60512,0.366,0.55632,0.32696
0.76616,-0.47336,0.18056,-0.20252,-0.5856,0.67588,-0.24888,0.45384,0.60512,0.4392,0.71736,0.44408
0.84912,-0.5368,0.22448,-0.20008,-0.62464,0.73688,-0.33184,0.37576,0.58072,0.4636,0.81496,0.55144
0.76128,-0.50264,0.244,-0.13664,-0.51728,0.63928,-0.38064,0.23912,0.5124,0.39528,0.72224,0.53192
0.35624,-0.30744,0.25864,0.08052,-0.0976,0.22692,-0.366,-0.13664,0.36112,0.25376,0.42944,0.44896
0.07808,-0.16104,0.244,0.20496,0.16592,-0.04392,-0.40016,-0.53192,0.10248,0.01464,0.08296,0.32208
-0.09272,-0.08296,0.25864,0.305,0.35136,-0.22204,-0.42456,-0.73688,-0.03904,-0.14152,-0.0976,0.24888
-0.12688,-0.02196,0.1708,0.23424,0.29768,-0.21228,-0.44896,-0.80032,-0.15128,-0.2684,-0.22448,0.15616
-0.122,0.00732,0.10736,0.16836,0.22936,-0.17568,-0.44896,-0.81008,-0.20008,-0.3416,-0.31232,0.06832
-0.15616,0.05612,0.04392,0.122,0.20008,-0.17812,-0.41968,-0.79544,-0.24888,-0.40992,-0.38552,0
-0.15616,0.061,0.03416,0.11224,0.19032,-0.17324,-0.32696,-0.67344,-0.18056,-0.366,-0.34648,0
-0.16592,0.04636,0.0732,0.15616,0.23912,-0.20252,-0.23424,-0.47824,-0.03904,-0.27816,-0.25864,-0.00488
-0.12688,0.02684,0.0732,0.13664,0.20008,-0.16348,-0.19032,-0.35624,0.04392,-0.20984,-0.1952,0
-0.13176,0.0488,0.03416,0.10004,0.16592,-0.14884,-0.15616,-0.28792,0.09272,-0.16592,-0.16104,-0.02928
-0.122,0.03904,0.04392,0.10492,0.16592,-0.14396,-0.08296,-0.20496,0.1464,-0.10736,-0.11712,-0.03416
-0.11712,0.07564,-0.03416,0.0244,0.08296,-0.10004,-0.0488,-0.14152,0.18544,-0.08296,-0.11224,-0.06344
-0.11712,0.07076,-0.0244,0.03416,0.09272,-0.10492,-0.02928,-0.08784,0.23912,-0.06832,-0.09272,-0.07808
-0.09272,0.07076,-0.0488,-0.00244,0.04392,-0.06832,-0.01464,-0.0732,0.26352,-0.04392,-0.07808,-0.0732
-0.10248,0.08052,-0.05856,-0.00732,0.04392,-0.0732,0.00488,-0.06832,0.25864,-0.04392,-0.07808,-0.08296
-0.10736,0.08052,-0.05368,0,0.05368,-0.08052,0.01464,-0.0488,0.26352,-0.04392,-0.07808,-0.08296
-0.10736,0.06832,-0.02928,0.0244,0.07808,-0.09272,0.00488,-0.03904,0.26352,-0.0488,-0.07808,-0.0732
-0.10248,0.06344,-0.0244,0.02684,0.07808,-0.09028,0.00976,-0.03416,0.27816,-0.04392,-0.06832,-0.05856
-0.10248,0.0732,-0.04392,0.00732,0.05856,-0.08052,0.01952,-0.02928,0.2928,-0.03904,-0.06344,-0.05856
-0.0976,0.0854,-0.0732,-0.0244,0.0244,-0.061,0.03904,-0.01464,0.30256,-0.03904,-0.06832,-0.06344
-0.09272,0.07564,-0.05856,-0.0122,0.03416,-0.06344,0.03904,-0.00488,0.30744,-0.02928,-0.06832,-0.04392
-0.09272,0.07076,-0.0488,-0.00244,0.04392,-0.06832,0.03904,0.00488,0.3172,-0.0244,-0.05856,-0.04392
-0.09272,0.07564,-0.05856,-0.0122,0.03416,-0.06344,0.02928,-0.00488,0.31232,-0.03416,-0.06344,-0.05368
-0.09272,0.08052,-0.06832,-0.02196,0.0244,-0.05856,0.02928,-0.01464,0.31232,-0.04392,-0.06832,-0.0732
-0.08784,0.06832,-0.0488,-0.00488,0.03904,-0.06344,0.02928,-0.01464,0.30256,-0.05368,-0.0732,-0.07808
-0.08296,0.05124,-0.01952,0.02196,0.06344,-0.0732,0.02928,-0.00976,0.29768,-0.0488,-0.06832,-0.06832
-0.0732,0.0488,-0.0244,0.0122,0.0488,-0.061,0.0244,-0.00976,0.30744,-0.02928,-0.05368,-0.05368
-0.08296,0.05612,-0.02928,0.0122,0.05368,-0.06832,0.02928,-0.00976,0.32696,-0.01464,-0.05368,-0.04392
-0.0732,0.05612,-0.03904,-0.00244,0.03416,-0.05368,0.03904,0,0.3172,-0.02928,-0.04392,-0.05856
-0.07808,0.061,-0.04392,-0.00488,0.03416,-0.05612,0.03904,0.00488,0.32208,-0.02928,-0.04392,-0.05856
-0.07808,0.06588,-0.05368,-0.01464,0.0244,-0.05124,0.03904,0.00976,0.32208,-0.0244,-0.03904,-0.0488
-0.05856,0.0488,-0.03904,-0.00976,0.01952,-0.03904,0.03904,0.00976,0.32208,-0.01952,-0.03904,-0.03416
-0.0732,0.05368,-0.03416,0.00244,0.03904,-0.05612,0.02928,0,0.32696,-0.01464,-0.04392,-0.03416
-0.07808,0.05856,-0.03904,0,0.03904,-0.05856,0.0244,0,0.32696,-0.00976,-0.0488,-0.03416
-0.07808,0.04636,-0.01464,0.0244,0.06344,-0.07076,0.01952,-0.00976,0.3172,-0.0244,-0.05856,-0.04392
-0.07808,0.04636,-0.01464,0.0244,0.06344,-0.07076,0.02928,-0.00976,0.30744,-0.03416,-0.05856,-0.0488
-0.06344,0.03904,-0.01464,0.01708,0.0488,-0.05612,0.02928,-0.00976,0.29768,-0.04392,-0.05856,-0.05368
-0.05856,0.03904,-0.01952,0.00976,0.03904,-0.0488,0.02928,-0.00488,0.29768,-0.04392,-0.05856,-0.05368
-0.0732,0.05612,-0.03904,-0.00244,0.03416,-0.05368,0.03416,0.00488,0.30744,-0.0244,-0.0488,-0.04392
-0.08296,0.05612,-0.02928,0.0122,0.05368,-0.06832,0.03416,0.00488,0.31232,-0.00976,-0.03416,-0.03904
-0.06832,0.0488,-0.02928,0.00488,0.03904,-0.05368,0.0244,0.00488,0.30256,-0.0244,-0.04392,-0.03904
-0.05856,0.03904,-0.01952,0.00976,0.03904,-0.0488,0.0244,0.00488,0.2928,-0.0244,-0.04392,-0.03904
-0.06832,0.05368,-0.03904,-0.00488,0.02928,-0.0488,0.01464,-0.00488,0.2928,-0.01464,-0.03904,-0.0244
-0.06832,0.0488,-0.02928,0.00488,0.03904,-0.05368,0.01464,-0.00488,0.28792,-0.00488,-0.03416,-0.0244
-0.06832,0.04636,-0.0244,0.00976,0.04392,-0.05612,0.0244,0,0.28792,-0.00976,-0.03904,-0.0244
-0.05856,0.04392,-0.02928,0,0.02928,-0.04392,0.01952,0,0.28792,-0.00488,-0.03904,-0.01952
-0.0488,0.03172,-0.01464,0.00976,0.03416,-0.04148,0.01952,-0.00976,0.28792,-0.00488,-0.03416,-0.01952
-0.03904,0.0244,-0.00976,0.00976,0.02928,-0.03416,0.01952,-0.00976,0.28304,-0.00488,-0.03416,-0.0244
-0.03904,0.01952,0,0.01952,0.03904,-0.03904,0.01464,-0.00976,0.28304,-0.01952,-0.04392,-0.0244
-0.03904,0.01708,0.00488,0.0244,0.04392,-0.04148,0.00976,-0.00976,0.28792,-0.01952,-0.0488,-0.01464
-0.03416,0.01952,-0.00488,0.0122,0.02928,-0.03172,0.00488,-0.00976,0.27328,-0.01952,-0.03904,-0.01464
-0.02928,0.01952,-0.00976,0.00488,0.01952,-0.0244,0,-0.01464,0.27328,-0.01952,-0.04392,-0.01464
-0.0244,0.01952,-0.01464,-0.00244,0.00976,-0.01708,0.00976,-0.00488,0.27328,-0.00976,-0.04392,-0.00488
-0.0244,0.01952,-0.01464,-0.00244,0.00976,-0.01708,0.00488,-0.00976,0.27328,-0.01464,-0.03904,-0.00488
-0.00976,0.0122,-0.01464,-0.00976,-0.00488,-0.00244,-0.00488,-0.01464,0.25864,-0.01464,-0.03416,-0.00976
0,0.00976,-0.01952,-0.01952,-0.01952,0.00976,-0.00976,-0.00976,0.25376,-0.01464,-0.02928,-0.00488
-0.00488,0.00244,0,0.00244,0.00488,-0.00488,-0.03416,-0.02928,0.23424,-0.03416,-0.0488,-0.01952
0,-0.00732,0.01464,0.01464,0.01464,-0.00732,-0.03416,-0.03904,0.23424,-0.03904,-0.05856,-0.01952
0.00976,-0.00488,0,-0.00488,-0.00976,0.00976,-0.0244,-0.03416,0.24888,-0.03416,-0.04392,0
0.01952,-0.00732,-0.00488,-0.01464,-0.0244,0.02196,-0.00976,-0.02928,0.244,-0.01952,-0.03416,0.00488
0.01952,-0.0122,0.00488,-0.00488,-0.01464,0.01708,-0.02928,-0.0488,0.22448,-0.04392,-0.0488,-0.01464
0.01952,-0.01952,0.01952,0.00976,0,0.00976,-0.04392,-0.05368,0.21472,-0.04392,-0.06344,-0.01952
0.01952,-0.01708,0.01464,0.00488,-0.00488,0.0122,-0.05368,-0.0732,0.20984,-0.0488,-0.05856,-0.01464
0.03416,-0.0244,0.01464,-0.00244,-0.01952,0.02684,-0.05856,-0.07808,0.21472,-0.0488,-0.05856,-0.00976
0.02928,-0.02684,0.0244,0.00976,-0.00488,0.01708,-0.06344,-0.07808,0.20008,-0.05368,-0.06344,-0.00976
0.03904,-0.02196,0.00488,-0.01464,-0.03416,0.0366,-0.06832,-0.08296,0.1952,-0.05368,-0.06832,-0.00976
0.0488,-0.02684,0.00488,-0.01952,-0.04392,0.04636,-0.06832,-0.07808,0.18544,-0.06344,-0.05856,-0.01464
0.0488,-0.02196,-0.00488,-0.02928,-0.05368,0.05124,-0.07808,-0.08296,0.1708,-0.0732,-0.05856,-0.00976
0.03416,-0.01464,-0.00488,-0.02196,-0.03904,0.0366,-0.08784,-0.0976,0.18056,-0.05856,-0.05856,0
0.03904,-0.0244,0.00976,-0.00976,-0.02928,0.03416,-0.08784,-0.09272,0.18544,-0.05368,-0.0488,0.00488
0.05856,-0.04148,0.0244,-0.00488,-0.03416,0.04636,-0.09272,-0.0976,0.1952,-0.04392,-0.02928,0.01464
0.06832,-0.05124,0.03416,0,-0.03416,0.05124,-0.09272,-0.09272,0.20008,-0.03416,-0.0244,0.01952
0.05368,-0.04148,0.02928,0.00244,-0.0244,0.03904,-0.08296,-0.0732,0.20008,-0.02928,-0.0244,0.0244
0.06344,-0.05124,0.03904,0.00732,-0.0244,0.04392,-0.08296,-0.06832,0.2196,-0.01464,-0.00976,0.03904
0.0488,-0.0488,0.0488,0.0244,0,0.0244,-0.08296,-0.06832,0.23424,-0.00488,-0.00976,0.02928
0.0488,-0.05124,0.05368,0.02928,0.00488,0.02196,-0.0732,-0.05856,0.244,0,0,0.03416
0.03416,-0.04392,0.05368,0.0366,0.01952,0.00732,-0.06344,-0.03904,0.25864,0.0244,0.0244,0.03904
0.03416,-0.03904,0.04392,0.02684,0.00976,0.0122,-0.04392,-0.02928,0.25864,0.03416,0.03416,0.03904
0.01952,-0.02928,0.03904,0.02928,0.01952,0,-0.03904,-0.0244,0.26352,0.02928,0.0244,0.02928
-0.00488,-0.01708,0.03904,0.04148,0.04392,-0.0244,-0.03416,-0.0244,0.2684,0.0244,0.0244,0.0244
-0.00488,-0.01464,0.03416,0.0366,0.03904,-0.02196,-0.02928,-0.0244,0.2684,0.0244,0.01464,0.01952
-0.00976,-0.01952,0.0488,0.05368,0.05856,-0.03416,-0.03416,-0.00976,0.24888,0.02928,0.01464,0.00976
-0.02928,-0.00488,0.03904,0.05368,0.06832,-0.0488,-0.01952,-0.00488,0.2684,0.02928,0.01464,0.01464
-0.02928,-0.00488,0.03904,0.05368,0.06832,-0.0488,-0.01464,-0.00488,0.2684,0.0244,0.00976,0.00488
-0.03904,0.00488,0.02928,0.0488,0.06832,-0.05368,-0.00976,0.00488,0.26352,0.01464,-0.00976,-0.00488
-0.04392,0.0122,0.01952,0.04148,0.06344,-0.05368,0,0.00976,0.26352,0.01464,-0.01464,-0.01464
-0.04392,0.01708,0.00976,0.03172,0.05368,-0.0488,0.00976,0.00488,0.25376,0.0244,-0.00488,-0.00488
-0.05368,0.03172,-0.00976,0.01708,0.04392,-0.0488,0.01464,0.00488,0.25864,0.0244,-0.00488,-0.00488
-0.0488,0.0244,0,0.0244,0.0488,-0.0488,0.00488,0,0.24888,0.01464,-0.01952,-0.01952
-0.04392,0.00732,0.02928,0.05124,0.0732,-0.05856,0.00488,0.00488,0.24888,0.00976,-0.0244,-0.01952
-0.0488,0.0122,0.0244,0.0488,0.0732,-0.061,0.00976,0,0.23424,0.00488,-0.03416,-0.02928
-0.05368,0.02196,0.00976,0.0366,0.06344,-0.05856,0.00976,0,0.23424,0.00488,-0.03416,-0.02928
-0.0488,0.0244,0,0.0244,0.0488,-0.0488,0.01952,0.00976,0.23912,0.00488,-0.02928,-0.03416
-0.0488,0.02928,-0.00976,0.01464,0.03904,-0.04392,0.01464,0.01464,0.23912,0.00488,-0.0244,-0.03904
-0.03904,0.01952,0,0.01952,0.03904,-0.03904,0.01464,0.00976,0.23424,0.00488,-0.0244,-0.02928
-0.04392,0.02196,0,0.02196,0.04392,-0.04392,0.01952,0.00488,0.244,-0.00488,-0.03416,-0.0244
-0.0488,0.02196,0.00488,0.02928,0.05368,-0.05124,0.01464,0,0.23424,0.00488,-0.0244,-0.02928
-0.06832,0.03904,-0.00976,0.0244,0.05856,-0.06344,0.00976,-0.00488,0.22936,0.00976,-0.0244,-0.03416
-0.05856,0.03172,-0.00488,0.0244,0.05368,-0.05612,0.00488,0,0.23424,0.00488,-0.03416,-0.03904
-0.05856,0.03172,-0.00488,0.0244,0.05368,-0.05612,0.01464,0,0.22936,0.00488,-0.03904,-0.03904
-0.05368,0.02928,-0.00488,0.02196,0.0488,-0.05124,0.00488,-0.00976,0.2196,-0.01464,-0.0488,-0.0488
-0.05368,0.03172,-0.00976,0.01708,0.04392,-0.0488,0.00488,-0.00976,0.21472,-0.00976,-0.0488,-0.04392
-0.0732,0.0366,0,0.0366,0.0732,-0.0732,0.00976,-0.00488,0.2196,-0.00976,-0.0488,-0.04392
-0.07808,0.03904,0,0.03904,0.07808,-0.07808,0.00976,-0.00488,0.2196,-0.01464,-0.0488,-0.05368
-0.07808,0.0488,-0.01952,0.01952,0.05856,-0.06832,0.01464,0.00488,0.22448,-0.00976,-0.04392,-0.0488
-0.06832,0.04148,-0.01464,0.01952,0.05368,-0.061,0.00976,0.00488,0.22936,0.00488,-0.03416,-0.04392
-0.07808,0.05124,-0.0244,0.01464,0.05368,-0.06588,0.00488,0.00488,0.2196,-0.00488,-0.04392,-0.05368
-0.07808,0.0488,-0.01952,0.01952,0.05856,-0.06832,0.00488,0.00488,0.21472,-0.01464,-0.03904,-0.05856
-0.05856,0.03416,-0.00976,0.01952,0.0488,-0.05368,0.01464,0.01464,0.22448,-0.00488,-0.02928,-0.04392
-0.0488,0.02928,-0.00976,0.01464,0.03904,-0.04392,0.02928,0.01952,0.23424,-0.00488,-0.02928,-0.03416
-0.05368,0.02196,0.00976,0.0366,0.06344,-0.05856,0.01952,0.00976,0.22936,0.00976,-0.02928,-0.03416
-0.0488,0.01952,0.00976,0.03416,0.05856,-0.05368,0.0244,0.00976,0.22936,0.00976,-0.0244,-0.03904
-0.05856,0.02928,0,0.02928,0.05856,-0.05856,0.00488,0.00976,0.22448,0.00976,-0.0244,-0.03416
-0.05856,0.03416,-0.00976,0.01952,0.0488,-0.05368,0.00488,0.00488,0.23424,0.00976,-0.0244,-0.03416
-0.06344,0.03416,-0.00488,0.02684,0.05856,-0.061,0.01464,0.00976,0.2196,0.00976,-0.01464,-0.02928
-0.06344,0.02928,0.00488,0.0366,0.06832,-0.06588,0.01952,0.00976,0.2196,0.01952,-0.00976,-0.0244
-0.0488,0.01952,0.00976,0.03416,0.05856,-0.05368,0.00976,0.00976,0.22936,0.00976,-0.01464,-0.03904
-0.0488,0.01952,0.00976,0.03416,0.05856,-0.05368,0.00976,0.00976,0.22448,0.01464,-0.0244,-0.03416
-0.0488,0.02928,-0.00976,0.01464,0.03904,-0.04392,0.00976,0.00976,0.21472,0.00488,-0.0244,-0.02928
-0.04392,0.02928,-0.01464,0.00732,0.02928,-0.0366,0.00488,0.00976,0.20496,0,-0.0244,-0.03904
-0.02928,0.01708,-0.00488,0.00976,0.0244,-0.02684,0.01464,0.00976,0.20984,0.00976,-0.0244,-0.04392
-0.02928,0.02196,-0.01464,0,0.01464,-0.02196,0.0244,0.01464,0.20496,0.00976,-0.0244,-0.03904
-0.03904,0.01952,0,0.01952,0.03904,-0.03904,0.01952,0.01464,0.20008,0.00976,-0.01464,-0.03416
-0.03416,0.01708,0,0.01708,0.03416,-0.03416,0.01952,0.01464,0.20496,0.00976,-0.01464,-0.02928
-0.01464,-0.00244,0.01952,0.02684,0.03416,-0.0244,0.02928,0.0244,0.20496,0.00488,-0.01464,-0.02928
-0.01952,0.00244,0.01464,0.0244,0.03416,-0.02684,0.0244,0.02928,0.20496,0.00976,-0.00976,-0.02928
0,-0.02684,0.05368,0.05368,0.05368,-0.02684,0.01952,0.03904,0.20496,0.02928,0,-0.01952
0.01464,-0.04148,0.06832,0.061,0.05368,-0.01952,0.01464,0.04392,0.21472,0.0488,0.00488,-0.00488
0.00488,-0.03904,0.0732,0.07076,0.06832,-0.03172,0.0244,0.04392,0.22936,0.0488,0.01952,-0.00976
0.00976,-0.0366,0.06344,0.05856,0.05368,-0.02196,0.0244,0.04392,0.22448,0.05368,0.01952,-0.00976
0.02928,-0.03904,0.0488,0.03416,0.01952,0.00488,0.04392,0.05368,0.22936,0.05368,0.01464,0
0,-0.01708,0.03416,0.03416,0.03416,-0.01708,0.05368,0.06344,0.23912,0.06832,0.02928,0
0.00976,-0.0244,0.03904,0.03416,0.02928,-0.00976,0.05368,0.06832,0.23912,0.05856,0.02928,0
0.00976,-0.0244,0.03904,0.03416,0.02928,-0.00976,0.04392,0.06832,0.22936,0.05856,0.02928,0
0.00488,-0.01952,0.03416,0.03172,0.02928,-0.0122,0.03416,0.06344,0.2196,0.05368,0.01952,-0.00976
0.00976,-0.03172,0.05368,0.0488,0.04392,-0.01708,0.0244,0.05856,0.20984,0.05368,0.0244,-0.00488
0,-0.01952,0.03904,0.03904,0.03904,-0.01952,0.00976,0.0488,0.1952,0.02928,0.01464,0
0,-0.01952,0.03904,0.03904,0.03904,-0.01952,0.00976,0.03904,0.20008,0.02928,0.01464,0
0.00488,-0.01952,0.03416,0.03172,0.02928,-0.0122,0.01464,0.03416,0.18544,0.02928,0.01464,-0.01952
0.00488,-0.01708,0.02928,0.02684,0.0244,-0.00976,0.01464,0.03904,0.18544,0.03904,0.01464,-0.01464
-0.00488,-0.00732,0.01952,0.02196,0.0244,-0.01464,0.00488,0.0244,0.17568,0.03904,0.01464,-0.01464
-0.00976,-0.00244,0.01464,0.01952,0.0244,-0.01708,-0.01952,0.00488,0.16592,0.03904,0.01464,-0.00976
0.01464,-0.02684,0.03904,0.03172,0.0244,-0.00488,-0.03904,-0.01952,0.15128,0.0244,0.00488,-0.01464
0.00976,-0.02928,0.0488,0.04392,0.03904,-0.01464,-0.04392,-0.0244,0.12688,0.00976,-0.00488,-0.03416
0.01464,-0.03416,0.05368,0.04636,0.03904,-0.0122,-0.03416,-0.01464,0.14152,0.01464,0,-0.01952
0.00488,-0.02928,0.05368,0.05124,0.0488,-0.02196,-0.03416,-0.01464,0.14152,0.01464,0,-0.00976
0.0244,-0.04148,0.05856,0.04636,0.03416,-0.00488,-0.03904,-0.02928,0.13176,0.01464,-0.00976,-0.01952
0.01952,-0.04148,0.06344,0.05368,0.04392,-0.0122,-0.0488,-0.03904,0.122,0.00976,-0.01952,-0.0244
0.02928,-0.04636,0.06344,0.0488,0.03416,-0.00244,-0.0488,-0.03904,0.122,0,-0.01952,-0.02928
0.01952,-0.04148,0.06344,0.05368,0.04392,-0.0122,-0.03904,-0.03904,0.122,0,-0.01952,-0.02928
0,-0.02196,0.04392,0.04392,0.04392,-0.02196,-0.0244,-0.0244,0.11224,0.00976,-0.00488,-0.01464
-0.0244,-0.00244,0.02928,0.04148,0.05368,-0.03904,-0.00976,-0.00488,0.11224,0.00976,-0.00488,-0.01464
-0.03904,0.01708,0.00488,0.0244,0.04392,-0.04148,-0.00488,-0.00976,0.11224,0,-0.0244,-0.02928
-0.0488,0.02928,-0.00976,0.01464,0.03904,-0.04392,-0.00976,-0.01464,0.10248,-0.00976,-0.02928,-0.0488
-0.0488,0.03172,-0.01464,0.00976,0.03416,-0.04148,-0.00488,-0.01464,0.09272,-0.00976,-0.03416,-0.05368
-0.06344,0.05124,-0.03904,-0.00732,0.0244,-0.04392,-0.00488,-0.01464,0.0976,-0.00976,-0.02928,-0.05368
-0.05856,0.05368,-0.0488,-0.01952,0.00976,-0.03416,0.00976,-0.00976,0.09272,-0.01952,-0.03904,-0.05856
-0.05856,0.0488,-0.03904,-0.00976,0.01952,-0.03904,0.00976,-0.00976,0.08784,-0.01952,-0.04392,-0.06344
-0.06344,0.05368,-0.04392,-0.0122,0.01952,-0.04148,0,-0.01952,0.07808,-0.02928,-0.05368,-0.0732
-0.0488,0.04148,-0.03416,-0.00976,0.01464,-0.03172,0,-0.01952,0.0732,-0.04392,-0.05856,-0.07808
-0.0488,0.04636,-0.04392,-0.01952,0.00488,-0.02684,0.00488,-0.01952,0.07808,-0.03904,-0.06344,-0.06832
-0.0488,0.05368,-0.05856,-0.03416,-0.00976,-0.01952,0.00976,-0.00976,0.07808,-0.03904,-0.0488,-0.0732
-0.04392,0.05124,-0.05856,-0.0366,-0.01464,-0.01464,0.00488,-0.01464,0.07808,-0.0244,-0.04392,-0.0732
-0.04392,0.0488,-0.05368,-0.03172,-0.00976,-0.01708,0.00488,-0.01464,0.07808,-0.01464,-0.04392,-0.05856
-0.04392,0.04148,-0.03904,-0.01708,0.00488,-0.0244,0.00488,-0.0244,0.06832,-0.01952,-0.04392,-0.05856
-0.0488,0.03416,-0.01952,0.00488,0.02928,-0.03904,0.00488,-0.0244,0.06832,-0.01952,-0.04392,-0.06832
-0.04392,0.02928,-0.01464,0.00732,0.02928,-0.0366,0.00488,-0.01464,0.05368,-0.02928,-0.05368,-0.0732
-0.04392,0.03416,-0.0244,-0.00244,0.01952,-0.03172,0,-0.01952,0.05368,-0.03416,-0.05856,-0.08296
-0.01464,0.01708,-0.01952,-0.0122,-0.00488,-0.00488,-0.00488,-0.00488,0.06344,-0.00976,-0.02928,-0.0488
-0.05368,0.05856,-0.06344,-0.0366,-0.00976,-0.02196,0.00976,-0.00488,0.08784,-0.00976,-0.0244,-0.05368
-0.04392,0.0488,-0.05368,-0.03172,-0.00976,-0.01708,0.0244,0.00976,0.08296,-0.01464,-0.02928,-0.0732
-0.0732,0.0854,-0.0976,-0.061,-0.0244,-0.0244,0.03416,0.0244,0.0732,-0.03416,-0.0488,-0.08296
0.01464,0.00976,-0.03416,-0.04148,-0.0488,0.03172,0.0488,0.06832,0.0976,-0.01464,-0.04392,-0.10248
0.01464,0.03172,-0.07808,-0.0854,-0.09272,0.05368,0.0732,0.15128,0.16104,0.0488,0.01952,-0.08296
0.12688,-0.05124,-0.0244,-0.08784,-0.15128,0.13908,0.04392,0.23912,0.23912,0.15616,0.16592,0
0.34648,-0.2074,0.06832,-0.10492,-0.27816,0.31232,-0.00976,0.38064,0.35624,0.31232,0.38552,0.15128
0.52704,-0.3416,0.15616,-0.10736,-0.37088,0.44896,-0.10736,0.44896,0.4148,0.40016,0.57096,0.28792
0.8052,-0.52948,0.25376,-0.14884,-0.55144,0.67832,-0.21472,0.48312,0.44896,0.47336,0.76128,0.43432
0.96624,-0.6466,0.32696,-0.15616,-0.63928,0.80276,-0.33672,0.42944,0.4392,0.53192,0.9028,0.55144
0.92232,-0.64416,0.366,-0.09516,-0.55632,0.73932,-0.37088,0.3172,0.3904,0.51728,0.85888,0.57096
0.54168,-0.48312,0.42456,0.15372,-0.11712,0.3294,-0.34648,0.01464,0.27328,0.40504,0.61,0.53192
0.18056,-0.27572,0.37088,0.2806,0.19032,-0.00488,-0.38552,-0.41968,0.00976,0.1464,0.20984,0.3904
0.01952,-0.21472,0.40992,0.40016,0.3904,-0.18544,-0.43432,-0.67344,-0.15616,-0.01464,0.01464,0.2928
-0.03416,-0.14884,0.33184,0.34892,0.366,-0.20008,-0.44896,-0.73688,-0.23912,-0.10736,-0.09272,0.22936
-0.05856,-0.0732,0.20496,0.23424,0.26352,-0.16104,-0.4392,-0.75152,-0.35624,-0.27328,-0.22936,0.10248
-0.07808,-0.01708,0.11224,0.15128,0.19032,-0.1342,-0.42456,-0.76128,-0.42944,-0.36112,-0.32208,0.02928
-0.12688,0.0122,0.10248,0.16592,0.22936,-0.17812,-0.36112,-0.69784,-0.40504,-0.36112,-0.33672,0
-0.08784,-0.01708,0.122,0.16592,0.20984,-0.14884,-0.2684,-0.50752,-0.27328,-0.23424,-0.22448,0.01952
-0.08784,-0.00244,0.09272,0.13664,0.18056,-0.1342,-0.20008,-0.35136,-0.16592,-0.13176,-0.14152,0.03416
-0.08784,-0.00976,0.10736,0.15128,0.1952,-0.14152,-0.15616,-0.28304,-0.13664,-0.14152,-0.13176,0.0244
-0.05368,-0.01708,0.08784,0.11468,0.14152,-0.0976,-0.12688,-0.2196,-0.08784,-0.0976,-0.10248,0.01464
-0.05368,0,0.05368,0.08052,0.10736,-0.08052,-0.08296,-0.16104,-0.05368,-0.08296,-0.09272,-0.03416
-0.03904,0.00976,0.01952,0.03904,0.05856,-0.0488,-0.05368,-0.08296,-0.00976,-0.0488,-0.06344,-0.0488
-0.06344,0.05124,-0.03904,-0.00732,0.0244,-0.04392,-0.00976,-0.03904,0.01952,-0.03904,-0.05856,-0.02928
-0.04392,0.04636,-0.0488,-0.02684,-0.00488,-0.01952,0,-0.03416,0.0244,-0.04392,-0.05856,-0.03904
-0.0488,0.0488,-0.0488,-0.0244,0,-0.0244,0.00976,-0.0244,0.0244,-0.04392,-0.05856,-0.05856
-0.0488,0.04148,-0.03416,-0.00976,0.01464,-0.03172,0.00488,-0.03416,0.00976,-0.04392,-0.05856,-0.0732
-0.0488,0.0366,-0.0244,0,0.0244,-0.0366,0.00488,-0.0244,0.01952,-0.0244,-0.0488,-0.05856
-0.04392,0.0244,-0.00488,0.01708,0.03904,-0.04148,0.00976,-0.02928,0.01464,-0.0244,-0.06344,-0.0488
-0.04392,0.0366,-0.02928,-0.00732,0.01464,-0.02928,0.01464,-0.01952,0.01952,-0.02928,-0.06832,-0.06344
-0.0488,0.04636,-0.04392,-0.01952,0.00488,-0.02684,0.01464,-0.00488,0.01464,-0.0488,-0.05856,-0.06344
-0.05368,0.0366,-0.01952,0.00732,0.03416,-0.04392,0.00488,-0.00488,0.0244,-0.03416,-0.05368,-0.05368
-0.04392,0.0366,-0.02928,-0.00732,0.01464,-0.02928,0,-0.00488,0.01464,-0.03416,-0.0488,-0.05368
-0.04392,0.04148,-0.03904,-0.01708,0.00488,-0.0244,0.00976,-0.00488,0.01952,-0.03416,-0.04392,-0.05368
-0.03904,0.03904,-0.03904,-0.01952,0,-0.01952,0.01952,0.00488,0.02928,-0.02928,-0.04392,-0.05856
-0.01952,0.02928,-0.03904,-0.02928,-0.01952,0,0.01952,0.00488,0.02928,-0.01952,-0.03904,-0.0488
-0.02928,0.02928,-0.02928,-0.01464,0,-0.01464,0.01464,0,0.0244,-0.00976,-0.0244,-0.05856
-0.03904,0.03172,-0.0244,-0.00488,0.01464,-0.02684,0.01952,0,0.03416,-0.00488,-0.0244,-0.05368
-0.04392,0.02928,-0.01464,0.00732,0.02928,-0.0366,0.00976,0,0.0244,0,-0.0244,-0.05856
-0.0244,0.01708,-0.00976,0.00244,0.01464,-0.01952,0.00976,0.00488,0.02928,0,-0.0244,-0.0488
-0.04392,0.03172,-0.01952,0.00244,0.0244,-0.03416,0.00976,-0.00976,0.01464,-0.01952,-0.03904,-0.06344
-0.04392,0.04636,-0.0488,-0.02684,-0.00488,-0.01952,0.00976,-0.00976,0.00488,-0.0244,-0.04392,-0.06832
-0.03416,0.03904,-0.04392,-0.02684,-0.00976,-0.0122,0.00976,-0.00488,0,-0.0244,-0.03904,-0.06832
-0.03416,0.04392,-0.05368,-0.0366,-0.01952,-0.00732,0.00976,0.00488,0.00488,-0.01952,-0.03416,-0.05856
-0.02928,0.02928,-0.02928,-0.01464,0,-0.01464,0,0,0.00488,-0.0244,-0.03904,-0.05368
-0.03416,0.0366,-0.03904,-0.02196,-0.00488,-0.01464,0.00488,0,0.00488,-0.0244,-0.03904,-0.0488
-0.03904,0.03416,-0.02928,-0.00976,0.00976,-0.0244,0,-0.00976,0.00488,-0.01952,-0.02928,-0.04392
-0.03416,0.02928,-0.0244,-0.00732,0.00976,-0.02196,0,-0.00488,0.00488,-0.00976,-0.02928,-0.04392
-0.03904,0.03416,-0.02928,-0.00976,0.00976,-0.0244,-0.00488,-0.00488,-0.00488,-0.00976,-0.03904,-0.05368
-0.02928,0.02684,-0.0244,-0.00976,0.00488,-0.01708,-0.00488,-0.00488,0,-0.01464,-0.03904,-0.0488
-0.01952,0.02196,-0.0244,-0.01464,-0.00488,-0.00732,0.00488,0.00488,-0.00976,-0.00976,-0.0244,-0.0488
0,0.01464,-0.02928,-0.02928,-0.02928,0.01464,0.00488,0.00488,-0.00976,-0.01464,-0.0244,-0.0488
-0.00976,0.01464,-0.01952,-0.01464,-0.00976,0,-0.00488,-0.00488,-0.01952,-0.0244,-0.02928,-0.0488
-0.00976,0.01952,-0.02928,-0.0244,-0.01952,0.00488,-0.00488,-0.00488,-0.01952,-0.0244,-0.02928,-0.04392
-0.0244,0.0244,-0.0244,-0.0122,0,-0.0122,-0.00488,-0.00976,-0.0244,-0.01464,-0.02928,-0.04392
-0.03416,0.03172,-0.02928,-0.0122,0.00488,-0.01952,-0.00976,-0.00976,-0.0244,-0.01952,-0.02928,-0.03904
-0.01464,0.01464,-0.01464,-0.00732,0,-0.00732,-0.00976,-0.00976,-0.02928,-0.00488,-0.01952,-0.03904
-0.00488,0.00976,-0.01464,-0.0122,-0.00976,0.00244,-0.00976,-0.00976,-0.0244,-0.00488,-0.0244,-0.03904
-0.00488,0.00732,-0.00976,-0.00732,-0.00488,0,-0.00976,0,-0.03904,-0.01952,-0.03416,-0.05368
-0.01464,0.00976,-0.00488,0.00244,0.00976,-0.0122,-0.00488,0,-0.03416,-0.01952,-0.03416,-0.0488
-0.00976,0.01708,-0.0244,-0.01952,-0.01464,0.00244,-0.00488,0,-0.02928,-0.01464,-0.0244,-0.03904
0,0.01464,-0.02928,-0.02928,-0.02928,0.01464,-0.00488,-0.00488,-0.02928,-0.00488,-0.01952,-0.02928
0.00488,0.00488,-0.01464,-0.01708,-0.01952,0.0122,-0.0244,-0.00976,-0.04392,-0.01464,-0.01952,-0.02928
0.00488,0.00488,-0.01464,-0.01708,-0.01952,0.0122,-0.03416,-0.01952,-0.05368,-0.02928,-0.0244,-0.03904
0,0.00488,-0.00976,-0.00976,-0.00976,0.00488,-0.02928,-0.02928,-0.05368,-0.0244,-0.0244,-0.03904
0.00976,0.00488,-0.01952,-0.0244,-0.02928,0.01952,-0.01952,-0.01464,-0.05368,-0.0244,-0.01952,-0.03416
0.01464,0.00732,-0.02928,-0.0366,-0.04392,0.02928,-0.03904,-0.02928,-0.06344,-0.03416,-0.03904,-0.03904
0.01464,0.00244,-0.01952,-0.02684,-0.03416,0.0244,-0.04392,-0.02928,-0.06832,-0.03416,-0.03904,-0.03904
0.01952,0.00244,-0.0244,-0.03416,-0.04392,0.03172,-0.05368,-0.0488,-0.07808,-0.03416,-0.03904,-0.03416
0.01952,0,-0.01952,-0.02928,-0.03904,0.02928,-0.0488,-0.05368,-0.0732,-0.02928,-0.02928,-0.02928
0.03416,-0.01464,-0.00488,-0.02196,-0.03904,0.0366,-0.06832,-0.05368,-0.09272,-0.04392,-0.02928,-0.03416
0.04392,-0.01952,-0.00488,-0.02684,-0.0488,0.04636,-0.0732,-0.05856,-0.10736,-0.05856,-0.05856,-0.0488
0.03904,-0.02196,0.00488,-0.01464,-0.03416,0.0366,-0.08296,-0.07808,-0.10248,-0.06344,-0.06344,-0.04392
0.03904,-0.00976,-0.01952,-0.03904,-0.05856,0.0488,-0.08296,-0.08784,-0.10248,-0.06832,-0.05856,-0.03904
0.05368,-0.0244,-0.00488,-0.03172,-0.05856,0.05612,-0.08296,-0.08784,-0.10736,-0.06344,-0.05368,-0.03904
0.0488,-0.01708,-0.01464,-0.03904,-0.06344,0.05612,-0.08784,-0.08784,-0.11712,-0.06344,-0.05856,-0.03904
0.08296,-0.04148,0,-0.04148,-0.08296,0.08296,-0.07808,-0.08784,-0.10736,-0.05368,-0.0488,-0.02928
0.08296,-0.05612,0.02928,-0.0122,-0.05368,0.06832,-0.09272,-0.09272,-0.11224,-0.05368,-0.0488,-0.01464
0.0732,-0.04148,0.00976,-0.02684,-0.06344,0.06832,-0.08784,-0.08784,-0.11224,-0.0488,-0.03904,-0.00976
0.0732,-0.0366,0,-0.0366,-0.0732,0.0732,-0.08784,-0.08296,-0.11224,-0.0488,-0.02928,-0.00488
0.06832,-0.04148,0.01464,-0.01952,-0.05368,0.061,-0.10736,-0.09272,-0.10736,-0.05368,-0.02928,-0.01464
0.08784,-0.06344,0.03904,-0.00488,-0.0488,0.06832,-0.11712,-0.0976,-0.10248,-0.03904,-0.01464,-0.00976
0.07808,-0.05856,0.03904,0,-0.03904,0.05856,-0.11712,-0.08296,-0.09272,-0.0244,-0.01464,-0.00976
0.06832,-0.05856,0.0488,0.01464,-0.01952,0.04392,-0.10736,-0.06832,-0.08296,-0.00488,0.00976,0.00976
0.06832,-0.05856,0.0488,0.01464,-0.01952,0.04392,-0.10248,-0.06832,-0.06832,0,0.00976,0.00976
0.06832,-0.05612,0.04392,0.00976,-0.0244,0.04636,-0.09272,-0.05368,-0.05368,0.00976,0.01952,0.01464
0.05856,-0.05124,0.04392,0.01464,-0.01464,0.0366,-0.07808,-0.04392,-0.0488,0.00976,0.01952,0.01464
0.05368,-0.04636,0.03904,0.0122,-0.01464,0.03416,-0.06344,-0.03416,-0.04392,0.01952,0.03904,0.0244
0.03904,-0.0366,0.03416,0.01464,-0.00488,0.02196,-0.05856,-0.03416,-0.03904,0.02928,0.03416,0.01952
0.02928,-0.03904,0.0488,0.03416,0.01952,0.00488,-0.05368,-0.03416,-0.03904,0.0244,0.03416,0.01464
0.00488,-0.02684,0.0488,0.04636,0.04392,-0.01952,-0.04392,-0.0244,-0.0244,0.0244,0.0244,0.00976
0,-0.01464,0.02928,0.02928,0.02928,-0.01464,-0.03416,-0.01464,-0.02928,0.02928,0.0244,0.00976
-0.00488,-0.00732,0.01952,0.02196,0.0244,-0.01464,-0.0244,-0.01952,-0.03416,0.00976,0.01952,-0.01464
-0.00488,0.00244,0,0.00244,0.00488,-0.00488,-0.01464,-0.01464,-0.03416,0.00976,0.00488,-0.01464
0,0.00244,-0.00488,-0.00488,-0.00488,0.00244,-0.01464,-0.01464,-0.03904,0.00488,0,-0.0244
-0.00488,0,0.00488,0.00732,0.00976,-0.00732,-0.00488,-0.00976,-0.03904,0.00488,0,-0.0244
-0.01464,0.0122,-0.00976,-0.00244,0.00488,-0.00976,-0.00976,-0.00488,-0.03904,0.01464,0.00488,-0.01464
-0.01464,0.00732,0,0.00732,0.01464,-0.01464,-0.00976,-0.00488,-0.03904,0.01464,0.00488,-0.01952
-0.02928,0.0244,-0.01952,-0.00488,0.00976,-0.01952,-0.00488,-0.00976,-0.04392,-0.00488,-0.01464,-0.01952
-0.02928,0.01952,-0.00976,0.00488,0.01952,-0.0244,-0.00488,-0.00488,-0.04392,-0.00976,-0.0244,-0.01952
-0.0244,0.01708,-0.00976,0.00244,0.01464,-0.01952,-0.00488,-0.00976,-0.0488,-0.01464,-0.0244,-0.02928
-0.03416,0.02196,-0.00976,0.00732,0.0244,-0.02928,0,-0.00976,-0.05856,-0.01464,-0.0244,-0.02928
-0.03904,0.02928,-0.01952,0,0.01952,-0.02928,0.00976,-0.00976,-0.05368,-0.01464,-0.01464,-0.03416
-0.02928,0.0244,-0.01952,-0.00488,0.00976,-0.01952,0.00976,-0.00488,-0.05368,-0.01464,-0.01952,-0.03416
-0.03904,0.03172,-0.0244,-0.00488,0.01464,-0.02684,0,-0.00976,-0.06344,-0.00488,-0.03416,-0.05368
-0.03904,0.02684,-0.01464,0.00488,0.0244,-0.03172,-0.00488,-0.01464,-0.06832,-0.00976,-0.03904,-0.05856
-0.03416,0.01708,0,0.01708,0.03416,-0.03416,-0.00976,-0.00976,-0.05856,-0.0244,-0.03416,-0.05856
-0.02928,0.02684,-0.0244,-0.00976,0.00488,-0.01708,0,-0.01464,-0.05856,-0.01952,-0.03416,-0.04392
-0.0488,0.03904,-0.02928,-0.00488,0.01952,-0.03416,-0.00976,-0.00488,-0.06344,-0.01464,-0.02928,-0.04392
-0.0488,0.03416,-0.01952,0.00488,0.02928,-0.03904,0.00488,0,-0.0488,-0.01464,-0.01952,-0.03904
-0.0488,0.03172,-0.01464,0.00976,0.03416,-0.04148,0.00976,-0.00976,-0.06344,-0.0244,-0.02928,-0.04392
-0.03904,0.02684,-0.01464,0.00488,0.0244,-0.03172,0.00488,-0.00976,-0.06344,-0.01952,-0.02928,-0.0488
-0.04392,0.03172,-0.01952,0.00244,0.0244,-0.03416,-0.00488,-0.01952,-0.05856,-0.01952,-0.02928,-0.04392
-0.03904,0.02928,-0.01952,0,0.01952,-0.02928,0,-0.01464,-0.05368,-0.00976,-0.01952,-0.04392
-0.05856,0.03904,-0.01952,0.00976,0.03904,-0.0488,0.00488,-0.01464,-0.05856,-0.02928,-0.0244,-0.05856
-0.05856,0.04392,-0.02928,0,0.02928,-0.04392,0,-0.01464,-0.05368,-0.0244,-0.03904,-0.05856
-0.04392,0.0244,-0.00488,0.01708,0.03904,-0.04148,0.00976,-0.01464,-0.06344,-0.01464,-0.03416,-0.05368
-0.03416,0.01708,0,0.01708,0.03416,-0.03416,0.00488,-0.01464,-0.05856,-0.01464,-0.02928,-0.05368
-0.03416,0.02196,-0.00976,0.00732,0.0244,-0.02928,0.00488,-0.00488,-0.05856,-0.00488,-0.0244,-0.0488
-0.05368,0.0366,-0.01952,0.00732,0.03416,-0.04392,0.00488,-0.00488,-0.05856,-0.00488,-0.01464,-0.03904
-0.0488,0.04148,-0.03416,-0.00976,0.01464,-0.03172,0.00976,0,-0.05856,0,-0.00976,-0.03416
-0.03904,0.04148,-0.04392,-0.0244,-0.00488,-0.01708,0.01464,0,-0.06344,0,-0.00976,-0.03904
-0.01952,0.0244,-0.02928,-0.01952,-0.00976,-0.00488,0.00488,0,-0.06344,0,-0.00488,-0.03416
-0.02928,0.00976,0.00976,0.0244,0.03904,-0.03416,-0.00488,0,-0.06832,0,-0.00488,-0.03416
-0.0244,0.00732,0.00976,0.02196,0.03416,-0.02928,-0.01464,-0.01464,-0.0732,-0.00976,-0.00976,-0.03904
-0.02928,0.01464,0,0.01464,0.02928,-0.02928,-0.01464,-0.00976,-0.08784,0,-0.01952,-0.03416
-0.01952,0.0122,-0.00488,0.00488,0.01464,-0.01708,0,0,-0.08296,0.00976,-0.00976,-0.03904
-0.01952,0.00976,0,0.00976,0.01952,-0.01952,0,0,-0.08784,0.00976,-0.00488,-0.03416
-0.03416,0.02196,-0.00976,0.00732,0.0244,-0.02928,0,-0.00976,-0.08296,0.0244,-0.00488,-0.02928
-0.02928,0.01708,-0.00488,0.00976,0.0244,-0.02684,-0.00488,-0.00976,-0.07808,0.01952,-0.00488,-0.03416
-0.01952,0.01708,-0.01464,-0.00488,0.00488,-0.0122,0,-0.00488,-0.08784,0.01464,0.00488,-0.03904
-0.01952,0.02196,-0.0244,-0.01464,-0.00488,-0.00732,0.01952,0.00976,-0.08296,0.00488,0.00488,-0.02928
-0.00976,0.00976,-0.00976,-0.00488,0,-0.00488,0.01464,0.00488,-0.09272,-0.00976,0,-0.03416
-0.00976,0.01464,-0.01952,-0.01464,-0.00976,0,0.00488,0.00488,-0.10736,-0.00976,-0.00976,-0.02928
-0.00976,0,0.00976,0.01464,0.01952,-0.01464,-0.00976,0,-0.11712,-0.00488,-0.01464,-0.03904
-0.00976,0,0.00976,0.01464,0.01952,-0.01464,-0.01464,-0.00976,-0.11712,-0.00488,-0.01464,-0.03904
-0.00976,0.00488,0,0.00488,0.00976,-0.00976,-0.00488,-0.01464,-0.122,0,-0.00488,-0.03416
-0.00976,0.0122,-0.01464,-0.00976,-0.00488,-0.00244,0,-0.00488,-0.11224,0,0,-0.0244
-0.00488,0.00732,-0.00976,-0.00732,-0.00488,0,-0.00488,-0.00488,-0.10736,0.00976,-0.00488,-0.0244
-0.00488,0.00732,-0.00976,-0.00732,-0.00488,0,-0.00488,-0.00488,-0.11712,0.00976,0,-0.02928
-0.01464,0.01464,-0.01464,-0.00732,0,-0.00732,0.00488,-0.00488,-0.11712,0.00976,-0.00976,-0.02928
-0.0244,0.02928,-0.03416,-0.02196,-0.00976,-0.00732,0.00488,-0.00488,-0.12688,-0.00488,-0.01464,-0.02928
-0.01464,0.0122,-0.00976,-0.00244,0.00488,-0.00976,0,-0.00488,-0.13664,-0.00976,-0.00976,-0.03904
-0.01464,0.00976,-0.00488,0.00244,0.00976,-0.0122,-0.00976,-0.00488,-0.14152,-0.01464,-0.01464,-0.03904
-0.01952,0.01464,-0.00976,0,0.00976,-0.01464,-0.00488,-0.00976,-0.15128,-0.0244,-0.00976,-0.03904
-0.0244,0.02684,-0.02928,-0.01708,-0.00488,-0.00976,-0.00488,-0.00976,-0.1464,-0.00976,-0.01464,-0.03904
-0.0244,0.02928,-0.03416,-0.02196,-0.00976,-0.00732,-0.00488,0,-0.15128,-0.00488,-0.00488,-0.02928
-0.02928,0.03416,-0.03904,-0.0244,-0.00976,-0.00976,-0.00488,0,-0.15128,-0.00976,0,-0.0244
-0.0244,0.02928,-0.03416,-0.02196,-0.00976,-0.00732,0.00976,0.00488,-0.13664,-0.00976,0,-0.02928
-0.01464,0.01708,-0.01952,-0.0122,-0.00488,-0.00488,0.00976,0.00488,-0.1464,-0.01464,-0.01464,-0.03416
-0.02928,0.03904,-0.0488,-0.03416,-0.01952,-0.00488,-0.00488,-0.00488,-0.17568,-0.01464,-0.01952,-0.03904
-0.0244,0.02684,-0.02928,-0.01708,-0.00488,-0.00976,-0.00488,-0.01464,-0.16592,-0.00976,-0.0244,-0.03904
-0.0244,0.02196,-0.01952,-0.00732,0.00488,-0.01464,-0.00488,-0.01464,-0.15616,0.00488,-0.01952,-0.02928
-0.02928,0.01708,-0.00488,0.00976,0.0244,-0.02684,-0.00976,-0.01464,-0.16104,-0.00488,-0.01952,-0.0244
-0.02928,0.01952,-0.00976,0.00488,0.01952,-0.0244,0,-0.00488,-0.16592,-0.00488,-0.00976,-0.01952
-0.0244,0.01708,-0.00976,0.00244,0.01464,-0.01952,0,-0.00976,-0.1708,-0.00976,-0.01464,-0.01952
-0.0244,0.0244,-0.0244,-0.0122,0,-0.0122,0,0,-0.18056,-0.01464,-0.00976,-0.02928
-0.0244,0.0366,-0.0488,-0.0366,-0.0244,0,0,0,-0.1952,-0.01952,-0.00976,-0.02928
-0.0244,0.03172,-0.03904,-0.02684,-0.01464,-0.00488,-0.00488,-0.00976,-0.18544,-0.03904,-0.01952,-0.03904
-0.0244,0.02928,-0.03416,-0.02196,-0.00976,-0.00732,0,-0.00976,-0.19032,-0.03904,-0.02928,-0.04392
-0.0244,0.02684,-0.02928,-0.01708,-0.00488,-0.00976,0,-0.00488,-0.19032,-0.0244,-0.02928,-0.03416
-0.02928,0.0244,-0.01952,-0.00488,0.00976,-0.01952,0,-0.00488,-0.18056,-0.01464,-0.01952,-0.03416
-0.02928,0.01952,-0.00976,0.00488,0.01952,-0.0244,-0.00976,-0.00976,-0.17568,-0.00976,-0.0244,-0.04392
-0.02928,0.01952,-0.00976,0.00488,0.01952,-0.0244,-0.00976,-0.00976,-0.18544,-0.00976,-0.02928,-0.03904
-0.02928,0.03416,-0.03904,-0.0244,-0.00976,-0.00976,0,-0.00488,-0.1952,-0.01952,-0.01952,-0.03904
-0.01952,0.02928,-0.03904,-0.02928,-0.01952,0,-0.00488,-0.00488,-0.18544,-0.02928,-0.01952,-0.04392
-0.01952,0.01708,-0.01464,-0.00488,0.00488,-0.0122,-0.00976,-0.00488,-0.19032,-0.0244,-0.01464,-0.04392
-0.01952,0.00732,0.00488,0.01464,0.0244,-0.02196,-0.00488,-0.00488,-0.18056,-0.01464,-0.0244,-0.02928
-0.03416,0.02196,-0.00976,0.00732,0.0244,-0.02928,0.00488,-0.00488,-0.19032,-0.01952,-0.0244,-0.04392
-0.03416,0.0366,-0.03904,-0.02196,-0.00488,-0.01464,0.00488,-0.00488,-0.19032,-0.01952,-0.02928,-0.04392
-0.03904,0.0366,-0.03416,-0.01464,0.00488,-0.02196,-0.00488,-0.00488,-0.1952,-0.0244,-0.03416,-0.05368
-0.03904,0.03416,-0.02928,-0.00976,0.00976,-0.0244,-0.00488,-0.01464,-0.20008,-0.02928,-0.04392,-0.06344
-0.0244,0.01464,-0.00488,0.00732,0.01952,-0.02196,-0.00976,-0.01952,-0.1952,-0.02928,-0.03416,-0.05368
-0.01952,0.0122,-0.00488,0.00488,0.01464,-0.01708,-0.00976,-0.01464,-0.20008,-0.0244,-0.03416,-0.05368
-0.00976,0,0.00976,0.01464,0.01952,-0.01464,-0.00976,-0.00488,-0.19032,-0.00976,-0.0244,-0.04392
-0.02928,0.01708,-0.00488,0.00976,0.0244,-0.02684,-0.00488,-0.00488,-0.19032,-0.01464,-0.00976,-0.03904
-0.03416,0.02684,-0.01952,-0.00244,0.01464,-0.0244,0.00488,-0.01464,-0.20008,-0.02928,-0.00976,-0.04392
-0.02928,0.02196,-0.01464,0,0.01464,-0.02196,0,-0.00976,-0.20984,-0.0244,-0.01464,-0.0488
-0.01464,0.01708,-0.01952,-0.0122,-0.00488,-0.00488,-0.00488,-0.00976,-0.17568,-0.00976,-0.00488,-0.0488
-0.01952,0.01708,-0.01464,-0.00488,0.00488,-0.0122,-0.00976,-0.00976,-0.19032,-0.00488,-0.01464,-0.0488
-0.01464,0.00488,0.00488,0.0122,0.01952,-0.01708,0,-0.00976,-0.20008,-0.00976,-0.01952,-0.0488
-0.01952,0.00976,0,0.00976,0.01952,-0.01952,0.00488,-0.00976,-0.1952,-0.01952,-0.02928,-0.0488
-0.0244,0.02196,-0.01952,-0.00732,0.00488,-0.01464,0,-0.00488,-0.1952,-0.01464,-0.0244,-0.04392
-0.0244,0.0122,0,0.0122,0.0244,-0.0244,0,-0.00488,-0.18544,-0.00976,-0.0244,-0.04392
-0.03904,0.02684,-0.01464,0.00488,0.0244,-0.03172,0.00976,0.00488,-0.17568,-0.00488,0,-0.01952
-0.01952,0.01952,-0.01952,-0.00976,0,-0.00976,0.01464,0,-0.17568,-0.00488,-0.00976,-0.0244
-0.0488,0.03416,-0.01952,0.00488,0.02928,-0.03904,0.01952,0,-0.17568,-0.00976,-0.01952,-0.02928
-0.02928,0.01464,0,0.01464,0.02928,-0.02928,0.01952,0.00976,-0.16592,0,-0.00976,-0.01952
-0.00976,-0.00488,0.01952,0.0244,0.02928,-0.01952,0.01952,0.00976,-0.16592,0.00976,0,-0.01952
-0.0244,0.00732,0.00976,0.02196,0.03416,-0.02928,0.02928,0.0244,-0.15616,0.01952,0.00976,-0.01464
-0.01952,0.00732,0.00488,0.01464,0.0244,-0.02196,0.02928,0.0244,-0.1464,0.01464,0.01464,-0.01464
-0.00976,-0.00488,0.01952,0.0244,0.02928,-0.01952,0.01952,0.01464,-0.14152,0.00976,0.00488,-0.01952
-0.00976,-0.01464,0.03904,0.04392,0.0488,-0.02928,0.01952,0.01464,-0.1464,0.00976,-0.00488,-0.03904
-0.00488,-0.0122,0.02928,0.03172,0.03416,-0.01952,0.03904,0.01952,-0.13664,0.02928,0.01464,-0.0244
-0.00488,-0.01708,0.03904,0.04148,0.04392,-0.0244,0.02928,0.01952,-0.13664,0.02928,0.0244,-0.01464
0,-0.01708,0.03416,0.03416,0.03416,-0.01708,0.0244,0.02928,-0.13176,0.02928,0.01464,-0.00976
0.01464,-0.02684,0.03904,0.03172,0.0244,-0.00488,0.01464,0.01464,-0.12688,0.01952,0.00976,-0.00976
0,-0.02196,0.04392,0.04392,0.04392,-0.02196,0.00488,0.00976,-0.13176,0.02928,0.01952,-0.00976
0.00488,-0.0244,0.04392,0.04148,0.03904,-0.01708,0.00488,0.00488,-0.13176,0.0244,0.01952,-0.00976
-0.00488,-0.01464,0.03416,0.0366,0.03904,-0.02196,0.00488,-0.00488,-0.14152,0.01464,0.00976,-0.00976
-0.00488,-0.01464,0.03416,0.0366,0.03904,-0.02196,0.00488,-0.00488,-0.14152,0.01464,0.00976,0
0,-0.02684,0.05368,0.05368,0.05368,-0.02684,-0.01952,-0.00488,-0.1464,0.00976,0.00976,-0.01464
0.00488,-0.0366,0.06832,0.06588,0.06344,-0.02928,-0.0244,-0.00976,-0.15128,0.00976,0.00976,-0.01464
0.0244,-0.0488,0.0732,0.061,0.0488,-0.0122,-0.01464,-0.01952,-0.14152,0.01952,0.01952,0
0.0244,-0.03904,0.05368,0.04148,0.02928,-0.00244,-0.01464,-0.01952,-0.14152,0.01952,0.01952,0.00488
0.0244,-0.03904,0.05368,0.04148,0.02928,-0.00244,-0.0244,-0.01464,-0.14152,0.02928,0.0244,0.00488
0,-0.02928,0.05856,0.05856,0.05856,-0.02928,-0.0244,-0.00976,-0.1464,0.02928,0.01952,0.00488
-0.00488,-0.02196,0.0488,0.05124,0.05368,-0.02928,-0.01952,-0.01464,-0.15616,0.00976,0.01464,0
-0.01464,-0.00976,0.03416,0.04148,0.0488,-0.03172,-0.00488,-0.01952,-0.16104,0.00488,0.00488,-0.01464
-0.0244,0,0.0244,0.0366,0.0488,-0.0366,-0.00488,-0.01464,-0.18056,-0.00976,-0.01464,-0.02928
-0.03416,0.01708,0,0.01708,0.03416,-0.03416,0.00488,-0.01464,-0.17568,-0.0244,-0.01952,-0.03416
-0.03904,0.03172,-0.0244,-0.00488,0.01464,-0.02684,0.00976,-0.00976,-0.17568,-0.02928,-0.0244,-0.04392
-0.0488,0.04636,-0.04392,-0.01952,0.00488,-0.02684,0.00976,-0.00976,-0.17568,-0.02928,-0.0244,-0.04392
-0.05856,0.05856,-0.05856,-0.02928,0,-0.02928,0.00976,-0.00976,-0.18544,-0.03416,-0.03416,-0.05368
-0.05368,0.05124,-0.0488,-0.02196,0.00488,-0.02928,0.00976,-0.00976,-0.1952,-0.03904,-0.04392,-0.06832
-0.0488,0.03904,-0.02928,-0.00488,0.01952,-0.03416,-0.00488,-0.0244,-0.1952,-0.04392,-0.0488,-0.06344
-0.03904,0.03172,-0.0244,-0.00488,0.01464,-0.02684,-0.00488,-0.0244,-0.1952,-0.05368,-0.04392,-0.06344
-0.04392,0.03904,-0.03416,-0.0122,0.00976,-0.02684,0.00488,-0.0244,-0.1952,-0.03904,-0.03416,-0.05856
-0.04392,0.04636,-0.0488,-0.02684,-0.00488,-0.01952,0.00488,-0.0244,-0.1952,-0.03904,-0.03416,-0.05368
-0.03416,0.04636,-0.05856,-0.04148,-0.0244,-0.00488,0.00488,-0.0244,-0.18544,-0.03904,-0.03416,-0.05368
-0.03904,0.0488,-0.05856,-0.03904,-0.01952,-0.00976,0.00488,-0.0244,-0.18544,-0.03904,-0.03416,-0.05368
-0.05368,0.05124,-0.0488,-0.02196,0.00488,-0.02928,0,-0.02928,-0.20008,-0.05368,-0.0488,-0.0732
-0.06344,0.061,-0.05856,-0.02684,0.00488,-0.03416,0,-0.02928,-0.20984,-0.0488,-0.05856,-0.06832
-0.05368,0.05856,-0.06344,-0.0366,-0.00976,-0.02196,0.00488,-0.0244,-0.20008,-0.03904,-0.04392,-0.06344
-0.05368,0.0488,-0.04392,-0.01708,0.00976,-0.03172,0.00976,-0.02928,-0.20984,-0.0488,-0.05368,-0.06344
-0.0244,0.0366,-0.0488,-0.0366,-0.0244,0,0.00976,-0.00976,-0.18544,-0.03416,-0.03904,-0.05856
-0.03904,0.05856,-0.07808,-0.05856,-0.03904,0,0.03416,0.03416,-0.18056,-0.0244,-0.03416,-0.07808
-0.00976,0.06588,-0.122,-0.11712,-0.11224,0.05124,0.07808,0.11224,-0.14152,-0.00976,-0.00488,-0.08296
0.05856,0.00976,-0.07808,-0.10736,-0.13664,0.0976,0.09272,0.20008,-0.05856,0.08296,0.09272,-0.0244
0.15616,-0.06588,-0.0244,-0.10248,-0.18056,0.16836,0.05856,0.30256,0.05368,0.21472,0.28304,0.0976
0.37088,-0.22692,0.08296,-0.10248,-0.28792,0.3294,-0.00488,0.40504,0.15128,0.36112,0.50264,0.23424
0.58072,-0.37576,0.1708,-0.11956,-0.40992,0.49532,-0.10736,0.45384,0.1952,0.45384,0.69296,0.366
0.8052,-0.51728,0.22936,-0.17324,-0.57584,0.69052,-0.22936,0.47336,0.22448,0.5368,0.89304,0.54168
0.88816,-0.61976,0.35136,-0.09272,-0.5368,0.71248,-0.32208,0.38552,0.23912,0.59048,1.0004,0.6588
0.7808,-0.60024,0.41968,0.02928,-0.36112,0.57096,-0.3416,0.24888,0.1708,0.54168,0.89792,0.6588
0.30744,-0.34648,0.38552,0.2318,0.07808,0.11468,-0.33672,-0.1464,-0.02928,0.33184,0.51728,0.52704
0.0976,-0.26352,0.42944,0.38064,0.33184,-0.11712,-0.36112,-0.5124,-0.29768,0.06344,0.15128,0.3904
-0.04392,-0.1708,0.38552,0.40748,0.42944,-0.23668,-0.40504,-0.7076,-0.41968,-0.08296,-0.01952,0.3172
-0.05856,-0.11956,0.29768,0.32696,0.35624,-0.2074,-0.42944,-0.75152,-0.53192,-0.2196,-0.1464,0.20496
-0.09272,-0.05612,0.20496,0.25132,0.29768,-0.1952,-0.41968,-0.74176,-0.60024,-0.30256,-0.244,0.11712
-0.08784,-0.02196,0.13176,0.17568,0.2196,-0.15372,-0.38064,-0.73688,-0.64904,-0.38064,-0.32696,0.02928
-0.10736,0.00732,0.09272,0.1464,0.20008,-0.15372,-0.3172,-0.64416,-0.61,-0.35624,-0.29768,0.02928
-0.0976,-0.03172,0.16104,0.20984,0.25864,-0.17812,-0.22448,-0.45872,-0.488,-0.25864,-0.22936,0.01464
-0.07808,-0.02196,0.122,0.16104,0.20008,-0.13908,-0.1708,-0.32696,-0.39528,-0.18056,-0.1464,0.02928
-0.05368,-0.03416,0.122,0.14884,0.17568,-0.11468,-0.10736,-0.24888,-0.34648,-0.1464,-0.122,0.02928
-0.05368,-0.00488,0.06344,0.09028,0.11712,-0.0854,-0.08296,-0.20496,-0.31232,-0.11712,-0.0976,0.01464
-0.06832,0.03172,0.00488,0.03904,0.0732,-0.07076,-0.05856,-0.14152,-0.27328,-0.10248,-0.08296,-0.0244
-0.0488,0.02196,0.00488,0.02928,0.05368,-0.05124,-0.01952,-0.06832,-0.2196,-0.07808,-0.08296,-0.05856
-0.04392,0.02684,-0.00976,0.0122,0.03416,-0.03904,-0.00488,-0.05368,-0.22448,-0.0732,-0.07808,-0.05368
-0.04392,0.0366,-0.02928,-0.00732,0.01464,-0.02928,0.01464,-0.05856,-0.20984,-0.0732,-0.06832,-0.05368
-0.0488,0.04636,-0.04392,-0.01952,0.00488,-0.02684,0.0244,-0.03904,-0.20496,-0.0732,-0.05856,-0.04392
-0.03904,0.02928,-0.01952,0,0.01952,-0.02928,0.0244,-0.01952,-0.1952,-0.05856,-0.0488,-0.05368
-0.03416,0.0244,-0.01464,0.00244,0.01952,-0.02684,0.02928,-0.01464,-0.18056,-0.03416,-0.03904,-0.03904
-0.04392,0.03904,-0.03416,-0.0122,0.00976,-0.02684,0.02928,-0.01952,-0.18544,-0.0488,-0.04392,-0.03904
-0.03904,0.04636,-0.05368,-0.03416,-0.01464,-0.0122,0.03904,-0.00488,-0.18544,-0.0488,-0.0488,-0.04392
-0.05368,0.05124,-0.0488,-0.02196,0.00488,-0.02928,0.02928,-0.00488,-0.19032,-0.05856,-0.05856,-0.04392
-0.05368,0.04636,-0.03904,-0.0122,0.01464,-0.03416,0.02928,-0.00488,-0.18056,-0.05368,-0.0488,-0.05368
-0.04392,0.0366,-0.02928,-0.00732,0.01464,-0.02928,0.02928,-0.01464,-0.17568,-0.04392,-0.04392,-0.05368
-0.04392,0.0366,-0.02928,-0.00732,0.01464,-0.02928,0.02928,-0.01464,-0.17568,-0.04392,-0.0488,-0.06344
-0.03904,0.03904,-0.03904,-0.01952,0,-0.01952,0.03904,-0.00488,-0.16592,-0.04392,-0.04392,-0.05856
-0.03416,0.03172,-0.02928,-0.0122,0.00488,-0.01952,0.03904,0,-0.1708,-0.03904,-0.03904,-0.03904
-0.03416,0.0244,-0.01464,0.00244,0.01952,-0.02684,0.03416,0,-0.16104,-0.0488,-0.03416,-0.04392
-0.04392,0.03172,-0.01952,0.00244,0.0244,-0.03416,0.03904,0,-0.15128,-0.04392,-0.03416,-0.04392
-0.03416,0.03172,-0.02928,-0.0122,0.00488,-0.01952,0.02928,-0.00976,-0.16104,-0.0488,-0.04392,-0.0488
-0.03904,0.0366,-0.03416,-0.01464,0.00488,-0.02196,0.02928,-0.01464,-0.16592,-0.0488,-0.04392,-0.0488
-0.03904,0.0366,-0.03416,-0.01464,0.00488,-0.02196,0.03904,-0.00976,-0.16592,-0.04392,-0.03904,-0.0488
-0.02928,0.0244,-0.01952,-0.00488,0.00976,-0.01952,0.03904,-0.00976,-0.15616,-0.03904,-0.03904,-0.04392
-0.03416,0.0244,-0.01464,0.00244,0.01952,-0.02684,0.02928,-0.00976,-0.15128,-0.04392,-0.03416,-0.04392
-0.03904,0.02928,-0.01952,0,0.01952,-0.02928,0.01464,-0.00976,-0.15128,-0.03904,-0.03904,-0.04392
-0.02928,0.02684,-0.0244,-0.00976,0.00488,-0.01708,0.01952,0,-0.14152,-0.03416,-0.02928,-0.04392
-0.02928,0.03172,-0.03416,-0.01952,-0.00488,-0.0122,0.03904,0,-0.14152,-0.03416,-0.02928,-0.03904
-0.01464,0.01464,-0.01464,-0.00732,0,-0.00732,0.02928,-0.00976,-0.14152,-0.04392,-0.03904,-0.05368
-0.01952,0.01464,-0.00976,0,0.00976,-0.01464,0.02928,-0.00488,-0.14152,-0.04392,-0.03904,-0.05368
-0.03416,0.0366,-0.03904,-0.02196,-0.00488,-0.01464,0.03416,0.00488,-0.14152,-0.04392,-0.02928,-0.05368
-0.04392,0.04148,-0.03904,-0.01708,0.00488,-0.0244,0.03416,0.00488,-0.13664,-0.03904,-0.0244,-0.0488
-0.02928,0.03416,-0.03904,-0.0244,-0.00976,-0.00976,0.03416,0.00488,-0.13664,-0.03416,-0.0244,-0.03904
-0.01952,0.0244,-0.02928,-0.01952,-0.00976,-0.00488,0.03416,0.00488,-0.13664,-0.03416,-0.0244,-0.03904
-0.02928,0.03416,-0.03904,-0.0244,-0.00976,-0.00976,0.03416,0.00488,-0.13664,-0.03416,-0.02928,-0.03416
-0.03904,0.03416,-0.02928,-0.00976,0.00976,-0.0244,0.03416,0.00488,-0.14152,-0.0244,-0.0244,-0.03416
-0.02928,0.02196,-0.01464,0,0.01464,-0.02196,0.0244,-0.00976,-0.14152,-0.03904,-0.02928,-0.04392
-0.00976,0.00976,-0.00976,-0.00488,0,-0.00488,0.01952,-0.00976,-0.14152,-0.03416,-0.03904,-0.03904
-0.01952,0.01708,-0.01464,-0.00488,0.00488,-0.0122,0.02928,0,-0.13176,-0.04392,-0.03416,-0.02928
-0.01952,0.01464,-0.00976,0,0.00976,-0.01464,0.02928,0,-0.13664,-0.04392,-0.03416,-0.03416
-0.02928,0.0244,-0.01952,-0.00488,0.00976,-0.01952,0.0244,-0.00976,-0.1464,-0.0488,-0.03416,-0.03416
-0.02928,0.02196,-0.01464,0,0.01464,-0.02196,0.01952,-0.00976,-0.15128,-0.0488,-0.02928,-0.0244
-0.01464,0.01464,-0.01464,-0.00732,0,-0.00732,0.01464,-0.00976,-0.1464,-0.03904,-0.02928,-0.0244
0,0.00976,-0.01952,-0.01952,-0.01952,0.00976,0.00976,-0.01464,-0.1464,-0.02928,-0.03416,-0.0244
-0.00488,0.01464,-0.0244,-0.02196,-0.01952,0.00732,0.00976,-0.01464,-0.1464,-0.02928,-0.0244,-0.0244
-0.00488,0.01464,-0.0244,-0.02196,-0.01952,0.00732,0.00488,-0.01952,-0.1464,-0.03416,-0.01952,-0.0244
0.00976,-0.00244,-0.00488,-0.00976,-0.01464,0.0122,-0.00488,-0.03416,-0.15128,-0.04392,-0.03416,-0.03904
0.01952,-0.00976,0,-0.00976,-0.01952,0.01952,-0.00976,-0.02928,-0.15616,-0.05368,-0.03904,-0.03416
0.00488,0.00244,-0.00976,-0.0122,-0.01464,0.00976,-0.00488,-0.02928,-0.15616,-0.05368,-0.03904,-0.02928
0.00976,0.00244,-0.01464,-0.01952,-0.0244,0.01708,0.00488,-0.01952,-0.15616,-0.05856,-0.03904,-0.02928
0.01952,-0.00488,-0.00976,-0.01952,-0.02928,0.0244,-0.01464,-0.04392,-0.16104,-0.06344,-0.04392,-0.02928
0.02928,-0.0122,-0.00488,-0.01952,-0.03416,0.03172,-0.01952,-0.05856,-0.16592,-0.05856,-0.04392,-0.03416
0.01952,-0.00244,-0.01464,-0.0244,-0.03416,0.02684,-0.02928,-0.06832,-0.18544,-0.08296,-0.05856,-0.04392
0.00976,-0.00488,0,-0.00488,-0.00976,0.00976,-0.04392,-0.0732,-0.1952,-0.09272,-0.08296,-0.0488
0.01952,-0.00732,-0.00488,-0.01464,-0.0244,0.02196,-0.04392,-0.0732,-0.18056,-0.08784,-0.06832,-0.03416
0.03416,-0.01464,-0.00488,-0.02196,-0.03904,0.0366,-0.0488,-0.07808,-0.17568,-0.08784,-0.06832,-0.02928
0.03904,-0.02196,0.00488,-0.01464,-0.03416,0.0366,-0.05368,-0.07808,-0.18056,-0.08296,-0.06344,-0.02928
0.05856,-0.02684,-0.00488,-0.03416,-0.06344,0.061,-0.05856,-0.08296,-0.18544,-0.08296,-0.06832,-0.02928
0.0488,-0.02684,0.00488,-0.01952,-0.04392,0.04636,-0.05856,-0.08784,-0.18544,-0.08296,-0.06832,-0.03416
0.03904,-0.02684,0.01464,-0.00488,-0.0244,0.03172,-0.06832,-0.09272,-0.19032,-0.08296,-0.06832,-0.02928
0.04392,-0.0244,0.00488,-0.01708,-0.03904,0.04148,-0.05856,-0.08784,-0.19032,-0.08784,-0.06832,-0.01952
0.05856,-0.03416,0.00976,-0.01952,-0.0488,0.05368,-0.0488,-0.08296,-0.18544,-0.09272,-0.05856,-0.01464
0.07808,-0.05124,0.0244,-0.01464,-0.05368,0.06588,-0.06344,-0.08784,-0.18544,-0.09272,-0.05856,-0.0244
0.08784,-0.061,0.03416,-0.00976,-0.05368,0.07076,-0.0732,-0.08296,-0.18056,-0.08296,-0.05368,-0.01952
0.05368,-0.0366,0.01952,-0.00732,-0.03416,0.04392,-0.0732,-0.08296,-0.1708,-0.06832,-0.03416,0.00488
0.05368,-0.0366,0.01952,-0.00732,-0.03416,0.04392,-0.0732,-0.07808,-0.15128,-0.05368,-0.01952,0.01952
0.05856,-0.05368,0.0488,0.01952,-0.00976,0.03416,-0.06344,-0.05856,-0.13664,-0.03416,-0.00976,0.02928
0.06832,-0.06588,0.06344,0.02928,-0.00488,0.0366,-0.04392,-0.03904,-0.12688,-0.01952,0.00976,0.03416
0.0732,-0.0732,0.0732,0.0366,0,0.0366,-0.05368,-0.03904,-0.122,-0.01464,0.0244,0.01952
0.08296,-0.0732,0.06344,0.02196,-0.01952,0.05124,-0.04392,-0.02928,-0.122,-0.01464,0.03416,0.01952
0.06832,-0.0732,0.07808,0.04392,0.00976,0.02928,-0.03904,-0.03416,-0.10736,0,0.03416,0.02928
0.05368,-0.07076,0.08784,0.061,0.03416,0.00976,-0.03416,-0.03416,-0.10248,-0.00488,0.03416,0.0244
0.05368,-0.06344,0.0732,0.04636,0.01952,0.01708,-0.00976,-0.01464,-0.0732,0.01464,0.03416,0.02928
0.03904,-0.05368,0.06832,0.0488,0.02928,0.00488,-0.00488,0.00976,-0.08296,0.01952,0.03416,0.01952
0.01952,-0.03904,0.05856,0.0488,0.03904,-0.00976,-0.00976,0.00488,-0.08296,0,0.0244,0.00488
0.01952,-0.03416,0.0488,0.03904,0.02928,-0.00488,-0.00488,-0.00488,-0.09272,-0.00488,0.01952,-0.00488
0.01952,-0.03416,0.0488,0.03904,0.02928,-0.00488,0,0.00488,-0.08784,0.00488,0.01952,-0.00488
0.01464,-0.02684,0.03904,0.03172,0.0244,-0.00488,0.00976,0.00976,-0.08784,0.00488,0.01464,-0.00488
-0.00488,-0.01708,0.03904,0.04148,0.04392,-0.0244,0.01952,0.01464,-0.08784,-0.00488,0.00488,-0.00488
-0.01464,-0.0122,0.03904,0.04636,0.05368,-0.03416,0.0244,0.01464,-0.08296,-0.00488,-0.00488,-0.01464
-0.01952,-0.00488,0.02928,0.03904,0.0488,-0.03416,0.0244,0.00976,-0.08296,-0.00488,0,-0.00976
-0.01464,-0.0122,0.03904,0.04636,0.05368,-0.03416,0.0244,0.01464,-0.08296,-0.00976,-0.00488,-0.00976
-0.00976,-0.0122,0.03416,0.03904,0.04392,-0.02684,0.02928,0.00976,-0.10736,-0.0244,-0.00488,-0.01952
-0.00488,-0.00732,0.01952,0.02196,0.0244,-0.01464,0.02928,0.00976,-0.10736,-0.0244,-0.00488,-0.01952
-0.01952,0,0.01952,0.02928,0.03904,-0.02928,0.02928,0.00976,-0.10248,-0.01464,-0.01952,-0.0244
-0.02928,0.00976,0.00976,0.0244,0.03904,-0.03416,0.0244,0.01464,-0.10248,-0.01464,-0.0244,-0.02928
-0.02928,0.00976,0.00976,0.0244,0.03904,-0.03416,0.0244,0.00976,-0.11712,-0.0244,-0.01464,-0.02928
-0.03416,0.0122,0.00976,0.02684,0.04392,-0.03904,0.02928,0.00488,-0.11712,-0.03416,-0.0244,-0.03416
-0.03904,0.01708,0.00488,0.0244,0.04392,-0.04148,0.0244,0.00976,-0.11712,-0.0244,-0.03416,-0.01952
-0.0488,0.03416,-0.01952,0.00488,0.02928,-0.03904,0.01952,0.00488,-0.122,-0.01952,-0.03416,-0.0244
-0.03904,0.02196,-0.00488,0.01464,0.03416,-0.0366,0.0244,0.00976,-0.11712,-0.0244,-0.0244,-0.01952
-0.03904,0.0122,0.01464,0.03416,0.05368,-0.04636,0.03416,0.00976,-0.122,-0.0244,-0.02928,-0.01952
-0.03416,0.00488,0.0244,0.04148,0.05856,-0.04636,0.01464,0,-0.122,-0.04392,-0.03904,-0.03904
-0.03416,0.00732,0.01952,0.0366,0.05368,-0.04392,0.01464,0,-0.12688,-0.0488,-0.03904,-0.03416
-0.03416,0.0122,0.00976,0.02684,0.04392,-0.03904,0.02928,-0.00488,-0.11224,-0.02928,-0.01952,-0.03416
-0.02928,0.01464,0,0.01464,0.02928,-0.02928,0.02928,-0.00488,-0.11224,-0.0244,-0.01952,-0.04392
-0.03904,0.01952,0,0.01952,0.03904,-0.03904,0.03416,0.00488,-0.11712,-0.03904,-0.03416,-0.03904
-0.03904,0.0122,0.01464,0.03416,0.05368,-0.04636,0.02928,0.00488,-0.11224,-0.03416,-0.04392,-0.04392
-0.0488,0.02684,-0.00488,0.01952,0.04392,-0.04636,0.03416,0.00488,-0.122,-0.03416,-0.03416,-0.03416
-0.0488,0.02928,-0.00976,0.01464,0.03904,-0.04392,0.03416,0.00488,-0.11712,-0.03416,-0.01952,-0.03904
-0.03904,0.01464,0.00976,0.02928,0.0488,-0.04392,0.03416,0.00488,-0.10736,-0.0244,-0.01952,-0.03416
-0.02928,0.00976,0.00976,0.0244,0.03904,-0.03416,0.03904,0.00976,-0.10736,-0.01464,-0.01952,-0.0244
-0.0244,0.00732,0.00976,0.02196,0.03416,-0.02928,0.02928,0,-0.122,-0.01952,-0.02928,-0.0244
-0.01952,0.00976,0,0.00976,0.01952,-0.01952,0.0244,0,-0.13176,-0.02928,-0.0244,-0.02928
-0.01952,0,0.01952,0.02928,0.03904,-0.02928,0.01464,0,-0.12688,-0.01952,-0.03416,-0.03416
-0.01952,-0.00488,0.02928,0.03904,0.0488,-0.03416,0.01464,-0.00488,-0.11712,-0.01952,-0.03416,-0.04392
-0.01464,0,0.01464,0.02196,0.02928,-0.02196,0.0244,0.00976,-0.122,-0.01952,-0.01464,-0.02928
-0.01464,0,0.01464,0.02196,0.02928,-0.02196,0.02928,0.01952,-0.122,-0.00976,0,-0.01464
-0.00976,-0.00976,0.02928,0.03416,0.03904,-0.0244,0.02928,0.00976,-0.122,-0.01952,-0.00488,-0.02928
-0.01952,-0.00488,0.02928,0.03904,0.0488,-0.03416,0.02928,0.00976,-0.12688,-0.01464,-0.00488,-0.0244
-0.00976,-0.00488,0.01952,0.0244,0.02928,-0.01952,0.02928,0.01952,-0.11712,-0.00488,-0.00488,-0.00976
-0.00488,-0.00976,0.0244,0.02684,0.02928,-0.01708,0.0244,0.01952,-0.11712,-0.00976,-0.00488,-0.00976
0,-0.00732,0.01464,0.01464,0.01464,-0.00732,0.01464,0.00976,-0.122,-0.01952,-0.01464,-0.01464
0,-0.00244,0.00488,0.00488,0.00488,-0.00244,0.0244,0.01464,-0.12688,-0.02928,-0.01464,-0.00976
0,-0.01464,0.02928,0.02928,0.02928,-0.01464,0.02928,0.01464,-0.122,-0.01952,-0.00488,-0.01464
0.00488,-0.02684,0.0488,0.04636,0.04392,-0.01952,0.02928,0.01464,-0.11712,-0.00976,0.00488,-0.00976
0.00488,-0.02684,0.0488,0.04636,0.04392,-0.01952,0.02928,0.01464,-0.12688,-0.01464,-0.00488,-0.00976
-0.00976,-0.00732,0.0244,0.02928,0.03416,-0.02196,0.0244,0.00976,-0.12688,-0.00976,0,-0.00976
-0.00976,-0.00732,0.0244,0.02928,0.03416,-0.02196,0.01952,0.00976,-0.13664,-0.01952,0,-0.01952
-0.01464,0.00244,0.00976,0.01708,0.0244,-0.01952,0.01464,0.01464,-0.13664,-0.01952,-0.00488,-0.01464
-0.01464,0,0.01464,0.02196,0.02928,-0.02196,0.0244,0.01464,-0.14152,-0.01952,0,-0.01952
-0.00976,0.00244,0.00488,0.00976,0.01464,-0.0122,0.03416,0.01464,-0.1464,-0.01464,0,-0.01952
0,-0.00488,0.00976,0.00976,0.00976,-0.00488,0.0244,0.00488,-0.14152,-0.0244,-0.01464,-0.01952
0,-0.00732,0.01464,0.01464,0.01464,-0.00732,0.01464,0.00488,-0.16104,-0.02928,-0.00976,-0.01952
0.01464,-0.01952,0.0244,0.01708,0.00976,0.00244,0.0244,0.01464,-0.1464,-0.01952,0,-0.00976
0.00488,-0.0122,0.01952,0.01708,0.01464,-0.00488,0.0244,0.00976,-0.1464,-0.0244,-0.00488,-0.00976
0,-0.0122,0.0244,0.0244,0.0244,-0.0122,0.01464,0.00976,-0.15128,-0.00976,-0.00976,-0.00976
-0.00488,-0.00976,0.0244,0.02684,0.02928,-0.01708,0.01464,0.00976,-0.14152,-0.01464,-0.01464,-0.00976
-0.01952,-0.00244,0.0244,0.03416,0.04392,-0.03172,0.0244,0,-0.15128,-0.02928,-0.00976,-0.01464
-0.01952,0,0.01952,0.02928,0.03904,-0.02928,0.02928,0,-0.15616,-0.0244,-0.00976,-0.01952
-0.01464,0,0.01464,0.02196,0.02928,-0.02196,0.02928,0.00488,-0.15128,-0.03416,-0.00488,-0.0244
-0.00488,0.00488,-0.00488,-0.00244,0,-0.00244,0.0244,0.00488,-0.18056,-0.02928,-0.01952,-0.0244
-0.01952,0.01952,-0.01952,-0.00976,0,-0.00976,0.03416,0,-0.17568,-0.0244,-0.01952,-0.02928
-0.01464,-0.00244,0.01952,0.02684,0.03416,-0.0244,0.03416,0,-0.15616,-0.01464,-0.02928,-0.02928
-0.0244,0.00976,0.00488,0.01708,0.02928,-0.02684,0.0244,-0.00976,-0.16592,-0.03416,-0.01952,-0.02928
-0.02928,0.00976,0.00976,0.0244,0.03904,-0.03416,0.00976,-0.00488,-0.1708,-0.03416,-0.01952,-0.0244
-0.0244,0.0122,0,0.0122,0.0244,-0.0244,0.01952,0.00488,-0.17568,-0.03904,-0.01952,-0.02928
-0.0244,0.0122,0,0.0122,0.0244,-0.0244,0.01952,0,-0.19032,-0.03904,-0.0244,-0.02928
-0.0244,0.0122,0,0.0122,0.0244,-0.0244,0.02928,0,-0.18056,-0.02928,-0.00976,-0.01952
-0.0244,0.00976,0.00488,0.01708,0.02928,-0.02684,0.0244,0,-0.18544,-0.0244,-0.01464,-0.01952
-0.01464,0.00488,0.00488,0.0122,0.01952,-0.01708,0.0244,-0.00976,-0.1952,-0.03904,-0.0244,-0.02928
-0.0244,0.0122,0,0.0122,0.0244,-0.0244,0.02928,-0.00488,-0.20496,-0.0488,-0.0244,-0.03416
-0.01952,0.00732,0.00488,0.01464,0.0244,-0.02196,0.01952,-0.00488,-0.20496,-0.03904,-0.03416,-0.03416
-0.01952,0.00488,0.00976,0.01952,0.02928,-0.0244,0.01952,-0.00488,-0.20984,-0.03904,-0.03416,-0.03416
-0.02928,0.01464,0,0.01464,0.02928,-0.02928,0.01952,0,-0.20496,-0.02928,-0.02928,-0.02928
-0.03904,0.0244,-0.00976,0.00976,0.02928,-0.03416,0.01952,0.00488,-0.1952,-0.02928,-0.01952,-0.02928
-0.03416,0.02196,-0.00976,0.00732,0.0244,-0.02928,0.01464,-0.00488,-0.20496,-0.03416,-0.01952,-0.0244
-0.01952,0.00976,0,0.00976,0.01952,-0.01952,0.01952,-0.00488,-0.19032,-0.02928,-0.01464,-0.01464
-0.00976,-0.00244,0.01464,0.01952,0.0244,-0.01708,0.02928,0.00488,-0.1952,-0.01952,-0.00976,-0.02928
-0.00976,-0.00976,0.02928,0.03416,0.03904,-0.0244,0.03416,0.00488,-0.18544,-0.02928,-0.01464,-0.0244
-0.03416,0.01708,0,0.01708,0.03416,-0.03416,0.04392,-0.00488,-0.20496,-0.03904,-0.0244,-0.0244
-0.04392,0.02684,-0.00976,0.0122,0.03416,-0.03904,0.05368,-0.00976,-0.20008,-0.03904,-0.03416,-0.0244
-0.02928,0.01708,-0.00488,0.00976,0.0244,-0.02684,0.05368,0,-0.20496,-0.02928,-0.03416,-0.01952
-0.01464,0.00732,0,0.00732,0.01464,-0.01464,0.05856,0,-0.20008,-0.0244,-0.0244,-0.0244
-0.0244,0.00732,0.00976,0.02196,0.03416,-0.02928,0.06832,0,-0.20496,-0.0244,-0.03416,-0.0244
-0.01952,0.00488,0.00976,0.01952,0.02928,-0.0244,0.06832,0.00488,-0.2196,-0.02928,-0.03416,-0.01952
-0.01464,0.00488,0.00488,0.0122,0.01952,-0.01708,0.07808,0.00488,-0.20984,-0.02928,-0.0244,-0.02928
-0.04392,0.0244,-0.00488,0.01708,0.03904,-0.04148,0.08784,0.00488,-0.20008,-0.03904,-0.0244,-0.03904
-0.02928,0.0122,0.00488,0.01952,0.03416,-0.03172,0.09272,0.00488,-0.19032,-0.03416,-0.02928,-0.0244
-0.01952,0.00488,0.00976,0.01952,0.02928,-0.0244,0.08784,0.00976,-0.17568,-0.03416,-0.01952,-0.0244
-0.00488,-0.00732,0.01952,0.02196,0.0244,-0.01464,0.08296,0.01952,-0.18544,-0.0244,-0.00488,-0.01952
-0.00976,-0.0122,0.03416,0.03904,0.04392,-0.02684,0.07808,0.01952,-0.19032,-0.0244,-0.0244,-0.01952
0.00488,-0.02928,0.05368,0.05124,0.0488,-0.02196,0.08784,0.01952,-0.1952,-0.0244,-0.01464,-0.01952
-0.00976,-0.01464,0.03904,0.04392,0.0488,-0.02928,0.0976,0.02928,-0.18056,-0.00488,0.00976,0
-0.00976,-0.01464,0.03904,0.04392,0.0488,-0.02928,0.0976,0.02928,-0.1708,0.00488,0.00976,0
-0.01464,-0.00732,0.02928,0.0366,0.04392,-0.02928,0.08784,0.02928,-0.17568,0.00488,0,-0.00976
-0.00976,-0.0244,0.05856,0.06344,0.06832,-0.03904,0.08784,0.03416,-0.17568,0.00488,0.00488,-0.00488
-0.00976,-0.01708,0.04392,0.0488,0.05368,-0.03172,0.08784,0.04392,-0.17568,0,0.00488,-0.00976
-0.00976,-0.0122,0.03416,0.03904,0.04392,-0.02684,0.08784,0.04392,-0.1708,0,0.00488,-0.00976
0.00488,-0.01952,0.03416,0.03172,0.02928,-0.0122,0.08784,0.03904,-0.16592,0.00976,0.01464,-0.01464
0.00488,-0.02684,0.0488,0.04636,0.04392,-0.01952,0.07808,0.03416,-0.16592,0.01952,0.01464,0
0.01464,-0.04148,0.06832,0.061,0.05368,-0.01952,0.06832,0.02928,-0.15616,0.02928,0.01464,0.01464
0.00976,-0.04636,0.08296,0.07808,0.0732,-0.03172,0.05368,0.01952,-0.16592,0.02928,0.01464,0.01952
0.01952,-0.05368,0.08784,0.07808,0.06832,-0.0244,0.0488,0.01952,-0.17568,0.00976,0.00976,0.01952
0.00488,-0.04148,0.07808,0.07564,0.0732,-0.03416,0.04392,0.01464,-0.19032,0.00488,0.00976,0.00976
0.00976,-0.04636,0.08296,0.07808,0.0732,-0.03172,0.04392,0.00488,-0.18056,0.01464,0.00976,0.00976
0.00976,-0.04636,0.08296,0.07808,0.0732,-0.03172,0.04392,0.00488,-0.18056,0.01464,0.00976,0.01952
0.01952,-0.04636,0.0732,0.06344,0.05368,-0.01708,0.03904,0,-0.18056,0.00488,0.01952,0.01952
0.00488,-0.0366,0.06832,0.06588,0.06344,-0.02928,0.02928,-0.00976,-0.19032,0,0.00976,0.01464
0.01952,-0.05368,0.08784,0.07808,0.06832,-0.0244,0.01464,-0.01952,-0.1952,0.00976,0.00976,0.01952
0.02928,-0.06344,0.0976,0.08296,0.06832,-0.01952,0.01464,-0.01952,-0.20496,0.00976,0.00976,0.01952
0.04392,-0.06588,0.08784,0.06588,0.04392,0,0.00488,-0.00976,-0.20496,0.00976,0.01952,0.03416
0.02928,-0.05612,0.08296,0.06832,0.05368,-0.0122,0.01952,0,-0.1952,0.00976,0.02928,0.03416
0.00976,-0.04148,0.0732,0.06832,0.06344,-0.02684,0.03416,0.00976,-0.20984,0,0.00488,0.02928
0,-0.02928,0.05856,0.05856,0.05856,-0.02928,0.02928,0.00488,-0.2196,-0.00976,0,0.00976
-0.0244,-0.00976,0.04392,0.05612,0.06832,-0.04636,0.0244,-0.00976,-0.23912,-0.02928,-0.01952,-0.00976
-0.0488,0.0244,0,0.0244,0.0488,-0.0488,0.0244,-0.01952,-0.23424,-0.02928,-0.0244,-0.01952
-0.03904,0.02928,-0.01952,0,0.01952,-0.02928,0.03904,-0.00976,-0.22936,-0.03904,-0.01952,-0.02928
-0.03904,0.0244,-0.00976,0.00976,0.02928,-0.03416,0.03904,-0.00976,-0.23424,-0.03904,-0.0244,-0.03416
-0.03904,0.03416,-0.02928,-0.00976,0.00976,-0.0244,0.04392,0,-0.23424,-0.0244,-0.0244,-0.0244
-0.03416,0.03172,-0.02928,-0.0122,0.00488,-0.01952,0.05368,0,-0.23912,-0.02928,-0.02928,-0.02928
-0.03904,0.03172,-0.0244,-0.00488,0.01464,-0.02684,0.0488,-0.00488,-0.244,-0.04392,-0.0488,-0.02928
-0.03904,0.02928,-0.01952,0,0.01952,-0.02928,0.04392,-0.00488,-0.244,-0.05368,-0.04392,-0.03416
-0.04392,0.03416,-0.0244,-0.00244,0.01952,-0.03172,0.03416,-0.01464,-0.25376,-0.0488,-0.05368,-0.0488
-0.04392,0.0366,-0.02928,-0.00732,0.01464,-0.02928,0.03416,-0.01464,-0.25376,-0.0488,-0.05368,-0.04392
-0.03416,0.03172,-0.02928,-0.0122,0.00488,-0.01952,0.04392,-0.01464,-0.244,-0.05856,-0.04392,-0.03416
-0.03904,0.03416,-0.02928,-0.00976,0.00976,-0.0244,0.04392,-0.01464,-0.244,-0.05856,-0.04392,-0.03416
-0.05368,0.04636,-0.03904,-0.0122,0.01464,-0.03416,0.03416,-0.01464,-0.23912,-0.05368,-0.04392,-0.04392
-0.05368,0.04636,-0.03904,-0.0122,0.01464,-0.03416,0.02928,-0.01952,-0.23912,-0.0488,-0.0488,-0.05368
-0.06344,0.07564,-0.08784,-0.05612,-0.0244,-0.01952,0.05368,0.00488,-0.22936,-0.03904,-0.02928,-0.03904
-0.01464,0.00976,-0.00488,0.00244,0.00976,-0.0122,0.02928,-0.01464,-0.23424,-0.05856,-0.05368,-0.04392
-0.04392,0.05368,-0.06344,-0.04148,-0.01952,-0.0122,0.05368,0,-0.22936,-0.04392,-0.03904,-0.04392
-0.04392,0.05124,-0.05856,-0.0366,-0.01464,-0.01464,0.05368,0.01464,-0.22936,-0.03416,-0.03904,-0.05368
-0.00488,0.03904,-0.0732,-0.07076,-0.06832,0.03172,0.07808,0.07808,-0.18544,-0.00488,0.00488,-0.03416
0.00488,0.03172,-0.06832,-0.07076,-0.0732,0.03904,0.09272,0.15128,-0.14152,0.01952,0.02928,-0.04392
0.0976,-0.02684,-0.04392,-0.09272,-0.14152,0.11956,0.09272,0.24888,-0.05368,0.11712,0.15616,0.02928
0.27816,-0.16348,0.0488,-0.09028,-0.22936,0.25376,0.05856,0.35136,0.03416,0.244,0.33672,0.14152
0.47824,-0.31232,0.1464,-0.09272,-0.33184,0.40504,-0.03904,0.42944,0.11224,0.38064,0.5612,0.30744
0.72712,-0.47092,0.21472,-0.14884,-0.5124,0.61976,-0.17568,0.45384,0.13664,0.42456,0.72224,0.4148
0.9272,-0.62708,0.32696,-0.13664,-0.60024,0.76372,-0.29768,0.41968,0.12688,0.48312,0.86376,0.55144
0.91256,-0.63928,0.366,-0.09028,-0.54656,0.72956,-0.33184,0.33672,0.10736,0.50752,0.89792,0.62952
0.62952,-0.5124,0.39528,0.08052,-0.23424,0.43188,-0.33672,0.06344,0,0.39528,0.66856,0.55144
0.22936,-0.30012,0.37088,0.2562,0.14152,0.04392,-0.34648,-0.36112,-0.244,0.13664,0.2684,0.40992
0.0488,-0.19032,0.33184,0.30744,0.28304,-0.11712,-0.38552,-0.62464,-0.4392,-0.05368,0.0244,0.32208
-0.0244,-0.14396,0.31232,0.32452,0.33672,-0.18056,-0.40992,-0.73688,-0.54168,-0.16592,-0.10248,0.22936
-0.02928,-0.09272,0.21472,0.22936,0.244,-0.13664,-0.40992,-0.74176,-0.62952,-0.27328,-0.20984,0.14152
-0.06832,-0.05124,0.1708,0.20496,0.23912,-0.15372,-0.39528,-0.77104,-0.69296,-0.37088,-0.32208,0.03904
-0.0976,-0.00244,0.10248,0.15128,0.20008,-0.14884,-0.35136,-0.72712,-0.71736,-0.41968,-0.35624,-0.01952
-0.08784,-0.0122,0.11224,0.15616,0.20008,-0.14396,-0.25864,-0.5368,-0.5856,-0.31232,-0.26352,0.00976
-0.07808,-0.01708,0.11224,0.15128,0.19032,-0.1342,-0.18056,-0.38064,-0.46848,-0.20984,-0.18056,0.03416
-0.08784,-0.00976,0.10736,0.15128,0.1952,-0.14152,-0.1464,-0.31232,-0.41968,-0.18056,-0.14152,0.0244
-0.03416,-0.03172,0.0976,0.11468,0.13176,-0.08296,-0.07808,-0.22936,-0.37088,-0.13664,-0.122,0.0244
-0.05368,-0.00488,0.06344,0.09028,0.11712,-0.0854,-0.03416,-0.14152,-0.30744,-0.09272,-0.08296,0.00488
-0.0488,0.00976,0.02928,0.05368,0.07808,-0.06344,0.00488,-0.08296,-0.26352,-0.06832,-0.06344,-0.01952
-0.05368,0.0366,-0.01952,0.00732,0.03416,-0.04392,-0.00976,-0.07808,-0.244,-0.06832,-0.06832,-0.02928
-0.03904,0.02684,-0.01464,0.00488,0.0244,-0.03172,0.01952,-0.0488,-0.244,-0.0732,-0.05856,-0.03416
-0.05368,0.03904,-0.0244,0.00244,0.02928,-0.04148,0.02928,-0.02928,-0.23424,-0.0732,-0.05856,-0.04392
-0.0488,0.03904,-0.02928,-0.00488,0.01952,-0.03416,0.04392,-0.01464,-0.2196,-0.05856,-0.03904,-0.03416
-0.0488,0.0488,-0.0488,-0.0244,0,-0.0244,0.04392,-0.00488,-0.20008,-0.02928,-0.02928,-0.01952
-0.05368,0.04392,-0.03416,-0.00732,0.01952,-0.0366,0.04392,-0.01464,-0.20496,-0.03904,-0.03904,-0.0244
-0.05368,0.04636,-0.03904,-0.0122,0.01464,-0.03416,0.03904,-0.01464,-0.20984,-0.05368,-0.05368,-0.0488
-0.0488,0.04636,-0.04392,-0.01952,0.00488,-0.02684,0.0488,-0.00976,-0.20496,-0.06344,-0.05368,-0.04392
-0.05368,0.0366,-0.01952,0.00732,0.03416,-0.04392,0.0488,0,-0.18544,-0.03904,-0.03904,-0.03416
-0.04392,0.02684,-0.00976,0.0122,0.03416,-0.03904,0.03904,-0.00488,-0.19032,-0.04392,-0.03904,-0.0244
-0.04392,0.03172,-0.01952,0.00244,0.0244,-0.03416,0.0488,-0.00488,-0.18544,-0.04392,-0.03416,-0.0244
-0.05368,0.04148,-0.02928,-0.00244,0.0244,-0.03904,0.03904,-0.00488,-0.18544,-0.04392,-0.04392,-0.0488
-0.04392,0.0366,-0.02928,-0.00732,0.01464,-0.02928,0.03904,-0.00488,-0.18544,-0.04392,-0.03904,-0.03904
-0.04392,0.0366,-0.02928,-0.00732,0.01464,-0.02928,0.04392,0,-0.19032,-0.0488,-0.03416,-0.03904
-0.04392,0.03416,-0.0244,-0.00244,0.01952,-0.03172,0.0488,0,-0.18056,-0.04392,-0.03416,-0.03416
-0.06344,0.04636,-0.02928,0.00244,0.03416,-0.0488,0.03904,0,-0.18056,-0.03904,-0.03416,-0.03904
-0.04392,0.03904,-0.03416,-0.0122,0.00976,-0.02684,0.03904,0.00488,-0.17568,-0.03904,-0.03416,-0.02928
-0.05856,0.04636,-0.03416,-0.00488,0.0244,-0.04148,0.02928,0,-0.1952,-0.04392,-0.04392,-0.02928
-0.0488,0.04148,-0.03416,-0.00976,0.01464,-0.03172,0.02928,0,-0.1952,-0.03904,-0.03904,-0.0244
-0.04392,0.03172,-0.01952,0.00244,0.0244,-0.03416,0.03904,0,-0.1952,-0.03416,-0.02928,-0.03416
-0.04392,0.04148,-0.03904,-0.01708,0.00488,-0.0244,0.03904,0,-0.19032,-0.02928,-0.0244,-0.03416
-0.04392,0.02928,-0.01464,0.00732,0.02928,-0.0366,0.01952,-0.00976,-0.19032,-0.04392,-0.03904,-0.03416
-0.03904,0.02684,-0.01464,0.00488,0.0244,-0.03172,0.0244,-0.00976,-0.19032,-0.04392,-0.03904,-0.02928
-0.05368,0.0366,-0.01952,0.00732,0.03416,-0.04392,0.02928,0,-0.18056,-0.03416,-0.03904,-0.0244
-0.05856,0.04636,-0.03416,-0.00488,0.0244,-0.04148,0.02928,0.00488,-0.18056,-0.03416,-0.03904,-0.0244
-0.05856,0.05124,-0.04392,-0.01464,0.01464,-0.0366,0.0244,-0.00488,-0.18056,-0.04392,-0.03904,-0.0244
-0.0488,0.0488,-0.0488,-0.0244,0,-0.0244,0.0244,-0.00488,-0.17568,-0.03904,-0.03904,-0.01952
-0.0488,0.0488,-0.0488,-0.0244,0,-0.0244,0.0244,-0.00488,-0.17568,-0.02928,-0.03416,-0.02928
-0.02928,0.0366,-0.04392,-0.02928,-0.01464,-0.00732,0.0244,-0.00488,-0.17568,-0.03416,-0.03416,-0.02928
-0.03904,0.04148,-0.04392,-0.0244,-0.00488,-0.01708,0.0244,-0.00488,-0.17568,-0.03416,-0.03904,-0.02928
-0.03904,0.05124,-0.06344,-0.04392,-0.0244,-0.00732,0.0244,-0.00488,-0.17568,-0.03416,-0.03904,-0.0244
-0.0488,0.0488,-0.0488,-0.0244,0,-0.0244,0.0244,0,-0.1708,-0.0244,-0.02928,-0.0244
-0.0488,0.04636,-0.04392,-0.01952,0.00488,-0.02684,0.01952,0,-0.1708,-0.02928,-0.02928,-0.01952
-0.03904,0.03172,-0.0244,-0.00488,0.01464,-0.02684,0.00976,-0.00976,-0.17568,-0.0244,-0.02928,-0.01952
-0.03904,0.03172,-0.0244,-0.00488,0.01464,-0.02684,0.00976,-0.00976,-0.1708,-0.0244,-0.03416,-0.01952
-0.03904,0.0244,-0.00976,0.00976,0.02928,-0.03416,0,-0.00976,-0.18544,-0.02928,-0.04392,-0.0244
-0.03904,0.02196,-0.00488,0.01464,0.03416,-0.0366,0.00488,-0.00976,-0.18056,-0.02928,-0.04392,-0.01952
-0.02928,0.01708,-0.00488,0.00976,0.0244,-0.02684,0.00488,-0.00976,-0.1952,-0.03416,-0.0488,-0.01464
-0.01952,0.01464,-0.00976,0,0.00976,-0.01464,0.00488,-0.01464,-0.1952,-0.04392,-0.05368,-0.01464
0.00488,0.00244,-0.00976,-0.0122,-0.01464,0.00976,0.00976,-0.00976,-0.19032,-0.03416,-0.03904,-0.00976
0.00488,0.00732,-0.01952,-0.02196,-0.0244,0.01464,0.00976,0,-0.18056,-0.02928,-0.0244,0
0,0.00244,-0.00488,-0.00488,-0.00488,0.00244,-0.00488,-0.00976,-0.19032,-0.02928,-0.02928,-0.00976
-0.00976,0.00732,-0.00488,0,0.00488,-0.00732,-0.00488,-0.01464,-0.19032,-0.03904,-0.03416,-0.00488
-0.01464,0.02196,-0.02928,-0.02196,-0.01464,0,-0.00976,-0.02928,-0.19032,-0.04392,-0.03904,0
-0.01464,0.01708,-0.01952,-0.0122,-0.00488,-0.00488,-0.01464,-0.02928,-0.1952,-0.04392,-0.03904,0
0.00976,0.00488,-0.01952,-0.0244,-0.02928,0.01952,-0.03416,-0.03904,-0.20496,-0.06344,-0.05368,0
0.00976,-0.00244,-0.00488,-0.00976,-0.01464,0.0122,-0.02928,-0.04392,-0.20008,-0.05856,-0.05368,-0.00488
0.01952,-0.00976,0,-0.00976,-0.01952,0.01952,-0.03904,-0.05368,-0.21472,-0.06832,-0.05368,-0.01464
0.01952,-0.00488,-0.00976,-0.01952,-0.02928,0.0244,-0.04392,-0.05856,-0.2196,-0.0732,-0.0732,-0.02928
0.00976,-0.00244,-0.00488,-0.00976,-0.01464,0.0122,-0.05368,-0.06832,-0.2196,-0.0732,-0.06344,-0.01464
0.00976,0.00976,-0.02928,-0.03416,-0.03904,0.0244,-0.05368,-0.07808,-0.2196,-0.07808,-0.05856,-0.00976
0.0244,-0.00244,-0.01952,-0.03172,-0.04392,0.03416,-0.06344,-0.07808,-0.21472,-0.0732,-0.06344,-0.01952
0.01952,0,-0.01952,-0.02928,-0.03904,0.02928,-0.06832,-0.07808,-0.22448,-0.0732,-0.06832,-0.01952
0.02928,-0.00488,-0.01952,-0.03416,-0.0488,0.03904,-0.06832,-0.08784,-0.23424,-0.0732,-0.06832,-0.00488
0.01952,-0.00488,-0.00976,-0.01952,-0.02928,0.0244,-0.08296,-0.09272,-0.23912,-0.0732,-0.06832,0
0.0244,-0.00488,-0.01464,-0.02684,-0.03904,0.03172,-0.0976,-0.10736,-0.23912,-0.07808,-0.07808,-0.00976
0.04392,-0.0244,0.00488,-0.01708,-0.03904,0.04148,-0.0976,-0.10248,-0.23912,-0.07808,-0.06832,-0.00488
0.04392,-0.03172,0.01952,-0.00244,-0.0244,0.03416,-0.10248,-0.09272,-0.23424,-0.08296,-0.06832,0.00488
0.05368,-0.03416,0.01464,-0.0122,-0.03904,0.04636,-0.10248,-0.0976,-0.22936,-0.06832,-0.05368,0.00976
0.0488,-0.03172,0.01464,-0.00976,-0.03416,0.04148,-0.10248,-0.09272,-0.22936,-0.0732,-0.05368,0.01464
0.05856,-0.04636,0.03416,0.00488,-0.0244,0.04148,-0.10248,-0.07808,-0.2196,-0.05368,-0.02928,0.0244
0.05856,-0.05124,0.04392,0.01464,-0.01464,0.0366,-0.0976,-0.06832,-0.20008,-0.04392,-0.0244,0.0244
0.05856,-0.05368,0.0488,0.01952,-0.00976,0.03416,-0.07808,-0.05368,-0.17568,-0.0244,-0.00488,0.03904
0.05368,-0.04636,0.03904,0.0122,-0.01464,0.03416,-0.0732,-0.0488,-0.17568,-0.0244,-0.00488,0.02928
0.03904,-0.03172,0.0244,0.00488,-0.01464,0.02684,-0.06832,-0.0488,-0.1708,-0.0244,0.00488,0.02928
0.03904,-0.03416,0.02928,0.00976,-0.00976,0.0244,-0.06832,-0.04392,-0.16592,-0.00976,0.00488,0.02928
0.02928,-0.04148,0.05368,0.03904,0.0244,0.00244,-0.06344,-0.04392,-0.16592,-0.01464,0.00488,0.0244
0.00488,-0.02684,0.0488,0.04636,0.04392,-0.01952,-0.04392,-0.0244,-0.1464,0.00488,0.01464,0.02928
0,-0.01464,0.02928,0.02928,0.02928,-0.01464,-0.03416,-0.01464,-0.14152,0.00976,0.01464,0.02928
-0.00976,-0.00488,0.01952,0.0244,0.02928,-0.01952,-0.04392,-0.01952,-0.14152,0,0.00488,0.0244
-0.01952,0,0.01952,0.02928,0.03904,-0.02928,-0.03416,-0.01464,-0.14152,0,0,0.0244
-0.01952,0,0.01952,0.02928,0.03904,-0.02928,-0.0244,-0.00488,-0.13664,0.00488,-0.00488,0.01464
-0.0244,0.00244,0.01952,0.03172,0.04392,-0.03416,-0.01464,0,-0.13664,0.00488,0.00488,0.01464
-0.03416,0.01464,0.00488,0.02196,0.03904,-0.0366,0,0.00488,-0.13664,0.00488,0.00488,0.01464
-0.03416,0.01464,0.00488,0.02196,0.03904,-0.0366,0,0.00488,-0.13664,0.00488,0.00488,0.00976
-0.03904,0.02684,-0.01464,0.00488,0.0244,-0.03172,-0.00488,0.00976,-0.13176,-0.00488,-0.00488,0
-0.03904,0.02684,-0.01464,0.00488,0.0244,-0.03172,-0.00488,0.01464,-0.13176,-0.00976,-0.01464,0
-0.04392,0.03172,-0.01952,0.00244,0.0244,-0.03416,-0.00488,0.00976,-0.13664,-0.01464,-0.0244,-0.00976
-0.05368,0.0366,-0.01952,0.00732,0.03416,-0.04392,0,0.00976,-0.1464,-0.01464,-0.0244,-0.00976
-0.05368,0.03416,-0.01464,0.0122,0.03904,-0.04636,0.00976,0.00976,-0.14152,-0.00488,-0.01952,0.00488
-0.03416,0.01952,-0.00488,0.0122,0.02928,-0.03172,0.00976,0.01464,-0.14152,-0.00488,-0.01464,0.00488
-0.0488,0.0244,0,0.0244,0.0488,-0.0488,-0.00488,0.00976,-0.14152,-0.01464,-0.0244,-0.00488
-0.0488,0.0244,0,0.0244,0.0488,-0.0488,0,0.00488,-0.1464,-0.01952,-0.02928,-0.00976
-0.05368,0.0244,0.00488,0.03172,0.05856,-0.05612,-0.00488,0,-0.15616,-0.03416,-0.03416,-0.0244
-0.0488,0.02928,-0.00976,0.01464,0.03904,-0.04392,-0.00488,-0.00488,-0.15616,-0.02928,-0.03416,-0.01952
-0.05856,0.04392,-0.02928,0,0.02928,-0.04392,0,0.00488,-0.15128,-0.02928,-0.03416,-0.01464
-0.05856,0.0488,-0.03904,-0.00976,0.01952,-0.03904,0.01464,0.00976,-0.13664,-0.01952,-0.03416,-0.00976
-0.06344,0.05124,-0.03904,-0.00732,0.0244,-0.04392,0,0,-0.15128,-0.03416,-0.0488,-0.0244
-0.06344,0.04636,-0.02928,0.00244,0.03416,-0.0488,-0.00488,0,-0.15128,-0.02928,-0.0488,-0.02928
-0.05856,0.04148,-0.0244,0.00488,0.03416,-0.04636,0.00488,0.00976,-0.1464,-0.02928,-0.03904,-0.0244
-0.04392,0.02928,-0.01464,0.00732,0.02928,-0.0366,0.00976,0.01464,-0.14152,-0.01952,-0.02928,-0.0244
-0.05368,0.0366,-0.01952,0.00732,0.03416,-0.04392,0.00976,0.00976,-0.15616,-0.02928,-0.03904,-0.02928
-0.06344,0.04636,-0.02928,0.00244,0.03416,-0.0488,-0.00488,0,-0.15128,-0.0244,-0.04392,-0.02928
-0.05856,0.04148,-0.0244,0.00488,0.03416,-0.04636,-0.00976,-0.00488,-0.15128,-0.0244,-0.04392,-0.03416
-0.05856,0.03904,-0.01952,0.00976,0.03904,-0.0488,-0.01464,-0.00488,-0.1464,-0.0244,-0.03904,-0.03416
-0.05368,0.03904,-0.0244,0.00244,0.02928,-0.04148,-0.00976,0,-0.13664,-0.0244,-0.02928,-0.02928
-0.0732,0.05856,-0.04392,-0.00732,0.02928,-0.05124,0,0.00976,-0.13664,-0.0244,-0.02928,-0.01952
-0.0732,0.061,-0.0488,-0.0122,0.0244,-0.0488,0,0.01464,-0.1464,-0.01952,-0.02928,-0.0244
-0.0732,0.061,-0.0488,-0.0122,0.0244,-0.0488,0.00488,0.00488,-0.15128,-0.01952,-0.02928,-0.02928
-0.05856,0.0488,-0.03904,-0.00976,0.01952,-0.03904,0.01464,0.00488,-0.13664,-0.01464,-0.01464,-0.01464
-0.06832,0.04392,-0.01952,0.01464,0.0488,-0.05856,0.00488,0.01464,-0.13176,-0.00488,-0.01464,-0.01464
-0.05368,0.03172,-0.00976,0.01708,0.04392,-0.0488,0.00488,0.01464,-0.13664,-0.00976,-0.01464,-0.00976
-0.03904,0.01952,0,0.01952,0.03904,-0.03904,0.00488,0.01952,-0.14152,0,-0.01464,-0.00488
-0.03416,0.01952,-0.00488,0.0122,0.02928,-0.03172,0.00976,0.01952,-0.13176,0,-0.01952,-0.00976
-0.04392,0.03172,-0.01952,0.00244,0.0244,-0.03416,0.00976,0.01952,-0.13664,0,-0.01464,-0.00488
-0.05856,0.0366,-0.01464,0.01464,0.04392,-0.05124,0.00488,0.01952,-0.13664,-0.00488,-0.01464,-0.00976
-0.04392,0.02196,0,0.02196,0.04392,-0.04392,-0.00976,0.01952,-0.14152,-0.00976,-0.01464,-0.01464
-0.02928,0.00732,0.01464,0.02928,0.04392,-0.0366,-0.00488,0.01952,-0.13664,-0.00976,-0.01464,-0.01952
-0.02928,0.0122,0.00488,0.01952,0.03416,-0.03172,0.00488,0.0244,-0.13176,-0.00976,-0.01464,-0.00976
-0.02928,0.01708,-0.00488,0.00976,0.0244,-0.02684,0.00976,0.0244,-0.13664,-0.00488,-0.00488,-0.00488
-0.02928,0.02684,-0.0244,-0.00976,0.00488,-0.01708,0.00976,0.0244,-0.14152,0.00488,-0.00488,0
-0.00976,0.00244,0.00488,0.00976,0.01464,-0.0122,0.00976,0.03416,-0.13664,-0.00488,-0.00488,0.00976
0.00976,-0.02196,0.03416,0.02928,0.0244,-0.00732,0.00488,0.03416,-0.13664,-0.00488,-0.00488,0.00976
-0.00488,-0.00976,0.0244,0.02684,0.02928,-0.01708,0,0.0244,-0.15616,-0.00976,-0.00488,0.00488
-0.03416,0.02684,-0.01952,-0.00244,0.01464,-0.0244,-0.00488,0.01464,-0.15616,-0.00976,-0.01952,-0.00488
-0.0488,0.03904,-0.02928,-0.00488,0.01952,-0.03416,-0.00976,0.0244,-0.14152,-0.00976,-0.0244,-0.00488
-0.03904,0.03416,-0.02928,-0.00976,0.00976,-0.0244,0,0.0244,-0.14152,-0.00976,-0.01952,-0.00976
-0.02928,0.02196,-0.01464,0,0.01464,-0.02196,-0.00488,0.0244,-0.1464,0.00488,-0.01464,-0.00488
-0.02928,0.02196,-0.01464,0,0.01464,-0.02196,-0.00488,0.0244,-0.15616,0,-0.00976,0.00488
-0.0244,0.01464,-0.00488,0.00732,0.01952,-0.02196,0.00488,0.0244,-0.1708,0.00488,0,0.00976
-0.0244,0.01708,-0.00976,0.00244,0.01464,-0.01952,0.00488,0.0244,-0.16592,0.00976,-0.00488,0.00976
-0.01952,0.0122,-0.00488,0.00488,0.01464,-0.01708,0.00488,0.01952,-0.17568,-0.00488,0,0
-0.0244,0.01952,-0.01464,-0.00244,0.00976,-0.01708,0.00488,0.01952,-0.16104,0.00976,-0.00488,0
-0.03416,0.02196,-0.00976,0.00732,0.0244,-0.02928,0,0.00976,-0.16592,0,-0.00976,0
-0.03904,0.03172,-0.0244,-0.00488,0.01464,-0.02684,-0.00976,0.00976,-0.17568,-0.01464,-0.01464,0.00488
-0.01952,0.0122,-0.00488,0.00488,0.01464,-0.01708,-0.00488,0.01952,-0.16104,0,-0.00976,0.01952
0.01952,-0.0244,0.02928,0.01952,0.00976,0.00488,0.00488,0.02928,-0.16104,0.01464,-0.00488,0.01464
0.00976,-0.00976,0.00976,0.00488,0,0.00488,-0.00488,0.01952,-0.1952,0.00976,-0.00976,0.00976
-0.00488,-0.0122,0.02928,0.03172,0.03416,-0.01952,-0.00488,0.01952,-0.18544,0.00488,-0.01464,0.00976
-0.0244,0.00732,0.00976,0.02196,0.03416,-0.02928,-0.00488,0.01952,-0.18056,-0.00488,-0.01952,0
-0.0488,0.03172,-0.01464,0.00976,0.03416,-0.04148,-0.00976,0.00976,-0.1952,-0.01464,-0.01952,0.00488
-0.04392,0.03172,-0.01952,0.00244,0.0244,-0.03416,-0.00488,0.0244,-0.20496,-0.01464,-0.01952,0.00976
-0.00976,0.00488,0,0.00488,0.00976,-0.00976,0.00488,0.01952,-0.20984,-0.01952,-0.0244,0.00976
-0.00976,0.00244,0.00488,0.00976,0.01464,-0.0122,0,0.00976,-0.20008,-0.00976,-0.01952,0.00488
-0.03904,0.02928,-0.01952,0,0.01952,-0.02928,0,0.00976,-0.21472,-0.00488,-0.01952,-0.00488
-0.04392,0.02928,-0.01464,0.00732,0.02928,-0.0366,-0.00488,0.00976,-0.21472,-0.01952,-0.03416,0
-0.0244,0.0122,0,0.0122,0.0244,-0.0244,0,0.00976,-0.2196,-0.01952,-0.03416,-0.00488
-0.01464,0.00244,0.00976,0.01708,0.0244,-0.01952,0.00976,0.01464,-0.2196,-0.00976,-0.02928,0.00488
-0.01952,0,0.01952,0.02928,0.03904,-0.02928,0.00976,0.01464,-0.20984,-0.00976,-0.01952,0.00488
-0.00976,-0.00244,0.01464,0.01952,0.0244,-0.01708,0,0.00976,-0.21472,0,-0.00488,-0.00488
-0.00976,0.00244,0.00488,0.00976,0.01464,-0.0122,0,0.00976,-0.22448,0,-0.00976,0
-0.01464,0.00976,-0.00488,0.00244,0.00976,-0.0122,0.00976,0.0244,-0.2196,0,0,0.00488
-0.01464,0.00488,0.00488,0.0122,0.01952,-0.01708,0.00488,0.0244,-0.20008,0.00976,0,0.00976
-0.01952,0.00488,0.00976,0.01952,0.02928,-0.0244,0,0.01952,-0.20984,0.00488,0,0
-0.01952,0.00976,0,0.00976,0.01952,-0.01952,0.00488,0.00976,-0.2196,-0.00488,-0.01952,0.00488
-0.0244,0.01464,-0.00488,0.00732,0.01952,-0.02196,-0.00488,0.00488,-0.22936,-0.02928,-0.02928,-0.01464
-0.0244,0.01464,-0.00488,0.00732,0.01952,-0.02196,-0.00488,0.00488,-0.22936,-0.02928,-0.04392,-0.01464
-0.01952,0.00732,0.00488,0.01464,0.0244,-0.02196,0.00488,0.01952,-0.22936,-0.01464,-0.04392,0
-0.01952,0.00488,0.00976,0.01952,0.02928,-0.0244,0.00488,0.01952,-0.22448,0,-0.03416,0
-0.00488,-0.00976,0.0244,0.02684,0.02928,-0.01708,0.00976,0.01952,-0.21472,0.00488,-0.01464,0.00488
0,-0.0122,0.0244,0.0244,0.0244,-0.0122,0.00976,0.0244,-0.2196,0,-0.01464,0.00488
-0.00976,-0.00732,0.0244,0.02928,0.03416,-0.02196,0.00488,0.01464,-0.22936,-0.00488,-0.01464,0.00488
-0.02928,0.01464,0,0.01464,0.02928,-0.02928,0,0.01464,-0.22936,-0.01952,-0.01952,-0.00976
-0.04392,0.03172,-0.01952,0.00244,0.0244,-0.03416,-0.00488,0.00488,-0.22936,-0.0244,-0.02928,-0.00976
-0.03904,0.02684,-0.01464,0.00488,0.0244,-0.03172,-0.00976,0.00976,-0.23912,-0.00976,-0.03416,-0.00488
-0.01952,0.01464,-0.00976,0,0.00976,-0.01464,-0.00488,0.00976,-0.22448,-0.00976,-0.0244,-0.00976
-0.01464,0,0.01464,0.02196,0.02928,-0.02196,-0.00976,0.00976,-0.23912,-0.00488,-0.03416,-0.00976
-0.00488,-0.01708,0.03904,0.04148,0.04392,-0.0244,0,0.01952,-0.22936,-0.00488,-0.0244,0
-0.00976,-0.00732,0.0244,0.02928,0.03416,-0.02196,0.00488,0.01952,-0.22448,-0.00488,-0.0244,0
-0.00976,0,0.00976,0.01464,0.01952,-0.01464,0,0.0244,-0.23424,-0.00488,-0.01464,0.00488
0,-0.01464,0.02928,0.02928,0.02928,-0.01464,0,0.0244,-0.22448,0,-0.01464,0.00488
-0.00976,0,0.00976,0.01464,0.01952,-0.01464,0,0.01464,-0.23424,-0.00488,-0.01952,0
-0.02928,0.01708,-0.00488,0.00976,0.0244,-0.02684,-0.00488,0,-0.244,-0.01464,-0.02928,-0.01464
-0.01464,0.00976,-0.00488,0.00244,0.00976,-0.0122,0,0.0244,-0.22448,-0.00488,-0.0244,-0.00488
-0.0488,0.04392,-0.03904,-0.01464,0.00976,-0.02928,0,0.01464,-0.22448,0,-0.0244,-0.00976
-0.04392,0.0488,-0.05368,-0.03172,-0.00976,-0.01708,0,0.01952,-0.22936,-0.01464,-0.03416,0
-0.03416,0.02196,-0.00976,0.00732,0.0244,-0.02928,-0.00488,0.0244,-0.23912,-0.01464,-0.03904,-0.00976
0.00976,-0.0244,0.03904,0.03416,0.02928,-0.00976,0.01952,0.0488,-0.20496,0.03904,0.01464,0.02928
0.0244,-0.0488,0.0732,0.061,0.0488,-0.0122,0.03416,0.0732,-0.19032,0.0488,0.0244,0.03416
0.01464,-0.03904,0.06344,0.05612,0.0488,-0.01708,0.0244,0.06344,-0.20008,0.02928,0.01464,0.0244
0.01952,-0.03416,0.0488,0.03904,0.02928,-0.00488,0.0244,0.06832,-0.20008,0.01952,0.00976,0.02928
0.03416,-0.05612,0.07808,0.061,0.04392,-0.00488,0.03416,0.0732,-0.19032,0.02928,0.01464,0.03416
0.01464,-0.03416,0.05368,0.04636,0.03904,-0.0122,0.03416,0.06832,-0.19032,0.01952,0.00488,0.03416
-0.01464,-0.00488,0.0244,0.03172,0.03904,-0.02684,0.0244,0.05856,-0.1952,0.01952,0.00488,0.0244
-0.00488,-0.01464,0.03416,0.0366,0.03904,-0.02196,0.01952,0.05856,-0.1952,0.02928,0.01464,0.00976
0.01464,-0.04148,0.06832,0.061,0.05368,-0.01952,0.00976,0.05368,-0.1952,0.03904,0.01464,0.01464
0.00976,-0.04148,0.0732,0.06832,0.06344,-0.02684,-0.00976,0.04392,-0.20496,0.02928,0.01464,0.01464
-0.0244,-0.00732,0.03904,0.05124,0.06344,-0.04392,-0.0244,0.0244,-0.21472,0.02928,0.01464,0.01952
-0.01952,-0.01464,0.0488,0.05856,0.06832,-0.04392,-0.01952,0.01952,-0.20496,0.02928,0,0.01952
-0.01464,-0.02196,0.05856,0.06588,0.0732,-0.04392,-0.0244,0.01464,-0.2196,0.0244,0,0.00976
0.01952,-0.0488,0.07808,0.06832,0.05856,-0.01952,-0.00976,0.02928,-0.20496,0.03904,0.00976,0.03416
0.03904,-0.0732,0.10736,0.08784,0.06832,-0.01464,0,0.03904,-0.1952,0.0488,0.02928,0.05368
0.03416,-0.06588,0.0976,0.08052,0.06344,-0.01464,-0.01464,0.0244,-0.21472,0.03904,0.02928,0.0488
-0.00976,-0.01708,0.04392,0.0488,0.05368,-0.03172,-0.03416,0.00488,-0.23424,0.0244,0,0.0244
0,-0.01708,0.03416,0.03416,0.03416,-0.01708,-0.05368,0,-0.23912,0.01952,0.00976,0.02928
0.00976,-0.03172,0.05368,0.0488,0.04392,-0.01708,-0.05368,0,-0.23912,0.01952,0.00976,0.02928
0.01464,-0.03172,0.0488,0.04148,0.03416,-0.00976,-0.04392,0,-0.22936,0.01952,0.01464,0.03416
0,-0.02196,0.04392,0.04392,0.04392,-0.02196,-0.02928,0.00976,-0.22936,0.01952,0.01464,0.03416
-0.00488,-0.01952,0.04392,0.04636,0.0488,-0.02684,-0.0244,0.00976,-0.22936,0.01952,-0.00488,0.01952
-0.00488,-0.02196,0.0488,0.05124,0.05368,-0.02928,-0.02928,0.00488,-0.23912,0.00976,-0.00976,0
-0.01952,-0.0122,0.04392,0.05368,0.06344,-0.04148,-0.03416,-0.00976,-0.25864,0,-0.02928,-0.00976
-0.05368,0.02684,0,0.02684,0.05368,-0.05368,-0.03416,-0.01952,-0.25376,0,-0.03416,-0.01952
-0.05856,0.04636,-0.03416,-0.00488,0.0244,-0.04148,-0.01952,-0.01464,-0.25864,-0.01464,-0.03904,-0.01952
-0.05856,0.04636,-0.03416,-0.00488,0.0244,-0.04148,-0.01952,-0.00488,-0.26352,-0.0244,-0.04392,-0.0244
-0.05856,0.05124,-0.04392,-0.01464,0.01464,-0.0366,-0.01464,0.00976,-0.244,-0.01464,-0.03904,-0.0244
-0.05368,0.04392,-0.03416,-0.00732,0.01952,-0.0366,-0.00488,0.00976,-0.20984,-0.01952,-0.03416,-0.02928
-0.06832,0.05612,-0.04392,-0.00976,0.0244,-0.04636,-0.00976,-0.00488,-0.1952,-0.0244,-0.0488,-0.02928
-0.08784,0.08296,-0.07808,-0.03416,0.00976,-0.0488,-0.01464,-0.00488,-0.1952,-0.03416,-0.04392,-0.03416
-0.09272,0.09028,-0.08784,-0.04148,0.00488,-0.0488,-0.01952,-0.01464,-0.20496,-0.03904,-0.05368,-0.0488
-0.09272,0.08784,-0.08296,-0.0366,0.00976,-0.05124,-0.02928,-0.01464,-0.20496,-0.03904,-0.05368,-0.04392
-0.09272,0.08052,-0.06832,-0.02196,0.0244,-0.05856,-0.04392,-0.0244,-0.20496,-0.02928,-0.05368,-0.04392
-0.0976,0.08296,-0.06832,-0.01952,0.02928,-0.06344,-0.04392,-0.0244,-0.20496,-0.02928,-0.05368,-0.04392
-0.09272,0.0854,-0.07808,-0.03172,0.01464,-0.05368,-0.04392,-0.0244,-0.2196,-0.03904,-0.05368,-0.04392
-0.09272,0.0854,-0.07808,-0.03172,0.01464,-0.05368,-0.0488,-0.02928,-0.2196,-0.04392,-0.05856,-0.05368
-0.10248,0.10492,-0.10736,-0.05612,-0.00488,-0.0488,-0.03416,-0.01464,-0.2196,-0.02928,-0.05856,-0.0488
-0.11224,0.10248,-0.09272,-0.0366,0.01952,-0.06588,-0.03904,-0.01464,-0.23424,-0.0488,-0.06344,-0.05368
-0.122,0.122,-0.122,-0.061,0,-0.061,-0.03416,-0.00976,-0.23912,-0.05368,-0.05856,-0.06344
-0.09272,0.11468,-0.13664,-0.09028,-0.04392,-0.0244,-0.00488,0.0244,-0.2196,-0.04392,-0.0488,-0.06344
-0.14152,0.16104,-0.18056,-0.1098,-0.03904,-0.05124,0,0.06832,-0.1952,-0.04392,-0.05368,-0.09272
-0.0732,0.11956,-0.16592,-0.12932,-0.09272,0.00976,0.03416,0.1708,-0.11224,0.0488,0.02928,-0.05368
0.0488,0.03172,-0.11224,-0.13664,-0.16104,0.10492,-0.00488,0.23912,-0.05368,0.13664,0.15616,0.01952
0.23912,-0.11956,0,-0.11956,-0.23912,0.23912,-0.07808,0.33184,0.04392,0.26352,0.34648,0.15128
0.47824,-0.2928,0.10736,-0.13176,-0.37088,0.42456,-0.17568,0.40016,0.09272,0.35136,0.53192,0.28792
0.7564,-0.46116,0.16592,-0.21228,-0.59048,0.67344,-0.2928,0.4636,0.11712,0.4148,0.72224,0.4148
0.88816,-0.55388,0.2196,-0.22448,-0.66856,0.77836,-0.4148,0.38064,0.08784,0.45384,0.82472,0.5124
0.81496,-0.52704,0.23912,-0.16836,-0.57584,0.6954,-0.44896,0.27816,0.03904,0.41968,0.7808,0.53192
0.44408,-0.36112,0.27816,0.05612,-0.16592,0.305,-0.4148,-0.06344,-0.07808,0.32696,0.54168,0.49288
0.09272,-0.14884,0.20496,0.1586,0.11224,-0.00976,-0.45384,-0.46848,-0.3416,0.07808,0.1708,0.3416
-0.03904,-0.11224,0.26352,0.28304,0.30256,-0.1708,-0.50264,-0.70272,-0.488,-0.08296,-0.0244,0.26352
-0.122,-0.00244,0.12688,0.18788,0.24888,-0.18544,-0.51728,-0.79544,-0.61,-0.23424,-0.1708,0.16104
-0.12688,0.00488,0.11712,0.18056,0.244,-0.18544,-0.50752,-0.81008,-0.68808,-0.32208,-0.27816,0.06344
-0.18544,0.09028,0.00488,0.0976,0.19032,-0.18788,-0.48312,-0.79056,-0.732,-0.38064,-0.35136,0
-0.11712,0.02684,0.06344,0.122,0.18056,-0.14884,-0.42944,-0.69784,-0.71736,-0.38064,-0.34648,-0.01952
-0.17568,0.07076,0.03416,0.122,0.20984,-0.19276,-0.32696,-0.51728,-0.5856,-0.28304,-0.25376,-0.00976
-0.13664,0.04148,0.05368,0.122,0.19032,-0.16348,-0.24888,-0.37088,-0.46848,-0.18056,-0.16104,0.04392
-0.15616,0.06832,0.01952,0.0976,0.17568,-0.16592,-0.1952,-0.2928,-0.41968,-0.15128,-0.14152,0.00488
-0.15128,0.07564,0,0.07564,0.15128,-0.15128,-0.16592,-0.2196,-0.38064,-0.11712,-0.122,-0.01464
-0.14152,0.0732,-0.00488,0.06588,0.13664,-0.13908,-0.13176,-0.15128,-0.35624,-0.10248,-0.11224,-0.0244
-0.15616,0.11224,-0.06832,0.00976,0.08784,-0.122,-0.08296,-0.10248,-0.32208,-0.08784,-0.09272,-0.03904
-0.14152,0.11468,-0.08784,-0.01708,0.05368,-0.0976,-0.06832,-0.07808,-0.30256,-0.05856,-0.07808,-0.0488
-0.13176,0.13176,-0.13176,-0.06588,0,-0.06588,-0.0488,-0.05856,-0.2928,-0.06832,-0.0732,-0.05856
-0.15616,0.14884,-0.14152,-0.06344,0.01464,-0.0854,-0.03904,-0.03904,-0.28304,-0.07808,-0.08296,-0.07808
-0.16104,0.14152,-0.122,-0.04148,0.03904,-0.10004,-0.0488,-0.0488,-0.2928,-0.0732,-0.07808,-0.0732
-0.15128,0.13176,-0.11224,-0.0366,0.03904,-0.09516,-0.05856,-0.0488,-0.28304,-0.05368,-0.06832,-0.05856
-0.15616,0.13176,-0.10736,-0.02928,0.0488,-0.10248,-0.05856,-0.05368,-0.2684,-0.04392,-0.06344,-0.05856
-0.16592,0.15372,-0.14152,-0.05856,0.0244,-0.09516,-0.05368,-0.03416,-0.26352,-0.0488,-0.06832,-0.0732
-0.15128,0.14396,-0.13664,-0.061,0.01464,-0.08296,-0.03904,-0.0244,-0.2684,-0.05856,-0.06832,-0.0732
-0.1464,0.12444,-0.10248,-0.02928,0.04392,-0.09516,-0.03904,-0.0244,-0.25864,-0.04392,-0.06344,-0.06344
-0.15128,0.12932,-0.10736,-0.03172,0.04392,-0.0976,-0.03904,-0.0244,-0.2684,-0.05368,-0.06832,-0.0732
-0.15128,0.14396,-0.13664,-0.061,0.01464,-0.08296,-0.02928,-0.0244,-0.26352,-0.05368,-0.06344,-0.0732
-0.14152,0.13664,-0.13176,-0.061,0.00976,-0.07564,-0.02928,-0.0244,-0.25376,-0.04392,-0.06832,-0.08296
-0.13176,0.12688,-0.122,-0.05612,0.00976,-0.07076,-0.02928,-0.0244,-0.25376,-0.04392,-0.05368,-0.06344
-0.122,0.11224,-0.10248,-0.04148,0.01952,-0.07076,-0.03416,-0.00976,-0.24888,-0.02928,-0.04392,-0.06832
-0.122,0.10492,-0.08784,-0.02684,0.03416,-0.07808,-0.02928,-0.00976,-0.23912,-0.0244,-0.04392,-0.06344
-0.122,0.10492,-0.08784,-0.02684,0.03416,-0.07808,-0.01952,-0.00976,-0.23912,-0.03904,-0.04392,-0.05856
-0.10248,0.0976,-0.09272,-0.04148,0.00976,-0.05612,-0.01952,-0.00488,-0.23424,-0.03904,-0.04392,-0.0488
-0.11224,0.10004,-0.08784,-0.03172,0.0244,-0.06832,-0.01952,0,-0.244,-0.03416,-0.03416,-0.0488
-0.09272,0.0854,-0.07808,-0.03172,0.01464,-0.05368,-0.01952,0,-0.244,-0.02928,-0.02928,-0.04392
-0.07808,0.06832,-0.05856,-0.01952,0.01952,-0.0488,-0.01952,0,-0.23424,-0.01952,-0.02928,-0.04392
-0.08784,0.08296,-0.07808,-0.03416,0.00976,-0.0488,-0.01952,0,-0.22936,-0.00488,-0.0244,-0.04392
-0.09272,0.06832,-0.04392,0.00244,0.0488,-0.07076,-0.02928,0,-0.23912,-0.00976,-0.03904,-0.05368
-0.08784,0.06588,-0.04392,0,0.04392,-0.06588,-0.0244,0,-0.23912,-0.01952,-0.03904,-0.0488
-0.0976,0.07076,-0.04392,0.00488,0.05368,-0.07564,-0.01952,0,-0.23912,-0.03416,-0.0488,-0.05368
-0.09272,0.07076,-0.0488,-0.00244,0.04392,-0.06832,-0.01952,0.00488,-0.23912,-0.03416,-0.0488,-0.05368
-0.09272,0.07808,-0.06344,-0.01708,0.02928,-0.061,-0.01464,0.00488,-0.22936,-0.02928,-0.03904,-0.05368
-0.09272,0.08052,-0.06832,-0.02196,0.0244,-0.05856,-0.01464,0.00488,-0.22448,-0.01464,-0.03904,-0.0488
-0.08784,0.08296,-0.07808,-0.03416,0.00976,-0.0488,-0.0244,0.00488,-0.23424,-0.01952,-0.03416,-0.05856
-0.06832,0.07076,-0.0732,-0.03904,-0.00488,-0.03172,-0.0244,0.00488,-0.23424,-0.0244,-0.03416,-0.05856
-0.07808,0.0732,-0.06832,-0.02928,0.00976,-0.04392,-0.0244,0.00488,-0.23424,-0.0244,-0.03904,-0.05856
-0.07808,0.07808,-0.07808,-0.03904,0,-0.03904,-0.0244,0.00488,-0.23424,-0.0244,-0.03904,-0.05368
-0.06832,0.061,-0.05368,-0.01952,0.01464,-0.04148,-0.01464,0.00976,-0.23424,-0.00976,-0.01952,-0.04392
-0.06832,0.06344,-0.05856,-0.0244,0.00976,-0.03904,-0.01952,0.00976,-0.22448,-0.00488,-0.01952,-0.03904
-0.06832,0.05612,-0.04392,-0.00976,0.0244,-0.04636,-0.00976,0.00976,-0.22448,-0.00488,-0.01952,-0.03904
-0.06832,0.05612,-0.04392,-0.00976,0.0244,-0.04636,-0.00976,0.00976,-0.2196,-0.00488,-0.0244,-0.03904
-0.06344,0.04636,-0.02928,0.00244,0.03416,-0.0488,-0.01464,0,-0.22448,0,-0.01464,-0.03416
-0.05368,0.03904,-0.0244,0.00244,0.02928,-0.04148,-0.01952,0,-0.2196,0,-0.01464,-0.02928
-0.04392,0.03904,-0.03416,-0.0122,0.00976,-0.02684,-0.03416,0.00976,-0.22448,0,-0.00976,-0.03416
-0.04392,0.04148,-0.03904,-0.01708,0.00488,-0.0244,-0.03416,0.00488,-0.22448,0,-0.01464,-0.03416
-0.04392,0.03904,-0.03416,-0.0122,0.00976,-0.02684,-0.02928,-0.00488,-0.23424,-0.00976,-0.0244,-0.04392
-0.04392,0.03904,-0.03416,-0.0122,0.00976,-0.02684,-0.02928,-0.00488,-0.23424,-0.01464,-0.01952,-0.04392
-0.03904,0.0366,-0.03416,-0.01464,0.00488,-0.02196,-0.03416,-0.00488,-0.23912,-0.01464,-0.0244,-0.03904
-0.02928,0.03172,-0.03416,-0.01952,-0.00488,-0.0122,-0.03416,0,-0.23912,-0.01464,-0.01952,-0.03416
-0.04392,0.04636,-0.0488,-0.02684,-0.00488,-0.01952,-0.0488,-0.00976,-0.24888,-0.0244,-0.02928,-0.04392
-0.04392,0.04148,-0.03904,-0.01708,0.00488,-0.0244,-0.05368,-0.00976,-0.25376,-0.0244,-0.02928,-0.05368
-0.01464,0.02196,-0.02928,-0.02196,-0.01464,0,-0.06344,-0.01952,-0.25376,-0.02928,-0.0244,-0.04392
-0.00488,0.00976,-0.01464,-0.0122,-0.00976,0.00244,-0.05856,-0.0244,-0.24888,-0.01464,-0.0244,-0.03904
0.00976,-0.00732,0.00488,0,-0.00488,0.00732,-0.05856,-0.0244,-0.26352,-0.01952,-0.01464,-0.03904
0.00976,-0.00732,0.00488,0,-0.00488,0.00732,-0.06344,-0.02928,-0.2684,-0.0244,-0.03416,-0.04392
0.00976,-0.0122,0.01464,0.00976,0.00488,0.00244,-0.08296,-0.03904,-0.26352,-0.02928,-0.03904,-0.04392
0.00976,0,-0.00976,-0.01464,-0.01952,0.01464,-0.08296,-0.0488,-0.27328,-0.04392,-0.04392,-0.03904
0.0244,-0.01464,0.00488,-0.00732,-0.01952,0.02196,-0.09272,-0.05856,-0.27328,-0.05368,-0.04392,-0.0488
0.01952,-0.00732,-0.00488,-0.01464,-0.0244,0.02196,-0.0976,-0.05856,-0.28304,-0.05368,-0.0488,-0.0488
0.03904,-0.01464,-0.00976,-0.02928,-0.0488,0.04392,-0.0976,-0.06832,-0.28304,-0.05368,-0.03904,-0.03416
0.02928,-0.01464,0,-0.01464,-0.02928,0.02928,-0.11224,-0.0732,-0.28792,-0.05368,-0.03904,-0.02928
0.0244,-0.00244,-0.01952,-0.03172,-0.04392,0.03416,-0.11712,-0.07808,-0.28792,-0.05856,-0.03904,-0.02928
0.0244,0.00244,-0.02928,-0.04148,-0.05368,0.03904,-0.11712,-0.0732,-0.28792,-0.05856,-0.02928,-0.0244
0.01952,-0.00488,-0.00976,-0.01952,-0.02928,0.0244,-0.122,-0.0732,-0.2928,-0.05368,-0.03904,-0.0244
0.03904,-0.02196,0.00488,-0.01464,-0.03416,0.0366,-0.122,-0.07808,-0.28792,-0.03904,-0.0244,-0.01952
0.03416,-0.0122,-0.00976,-0.02684,-0.04392,0.03904,-0.122,-0.08296,-0.28792,-0.03416,-0.0244,-0.01952
0.03416,-0.01708,0,-0.01708,-0.03416,0.03416,-0.122,-0.06832,-0.27816,-0.01464,0,0
0.03904,-0.02928,0.01952,0,-0.01952,0.02928,-0.13176,-0.06832,-0.26352,-0.00976,-0.00976,-0.00976
0.03904,-0.0366,0.03416,0.01464,-0.00488,0.02196,-0.122,-0.05368,-0.24888,0,0,-0.00488
0.0488,-0.0488,0.0488,0.0244,0,0.0244,-0.10736,-0.04392,-0.244,0.01952,0.00488,-0.00488
0.04392,-0.0488,0.05368,0.03172,0.00976,0.01708,-0.09272,-0.03416,-0.23912,0.02928,0.03416,0.00488
0.03904,-0.04148,0.04392,0.0244,0.00488,0.01708,-0.07808,-0.01464,-0.23424,0.03904,0.04392,0.01952
0.02928,-0.04392,0.05856,0.04392,0.02928,0,-0.0732,-0.01464,-0.23424,0.03416,0.04392,0.01464
0.00488,-0.01952,0.03416,0.03172,0.02928,-0.0122,-0.06344,-0.00488,-0.22448,0.03416,0.04392,0.01464
0,-0.00244,0.00488,0.00488,0.00488,-0.00244,-0.05368,0.00488,-0.2196,0.03904,0.04392,0.00488
-0.00976,0.00244,0.00488,0.00976,0.01464,-0.0122,-0.05368,0,-0.22936,0.03904,0.03416,-0.00488
-0.01952,0.00244,0.01464,0.0244,0.03416,-0.02684,-0.04392,0.00488,-0.22936,0.03904,0.02928,-0.00488
-0.00976,-0.00244,0.01464,0.01952,0.0244,-0.01708,-0.05368,0.00488,-0.23424,0.03416,0.02928,-0.0244
-0.01464,-0.00488,0.0244,0.03172,0.03904,-0.02684,-0.04392,0.00976,-0.23424,0.03416,0.02928,-0.0244
-0.0244,0.00732,0.00976,0.02196,0.03416,-0.02928,-0.03416,0.01952,-0.23424,0.02928,0.01464,-0.0244
-0.0244,0.0122,0,0.0122,0.0244,-0.0244,-0.0244,0.02928,-0.23424,0.01952,0.01464,-0.02928
-0.03904,0.0244,-0.00976,0.00976,0.02928,-0.03416,-0.01464,0.02928,-0.23912,0.00976,0.01464,-0.02928
-0.03904,0.01952,0,0.01952,0.03904,-0.03904,-0.01464,0.03416,-0.23912,0.01464,0.00488,-0.02928
