i,aVR,ii,aVF,iii,aVL,V1,V2,V3,V4,V5,V6
-0.15616,0.16836,-0.18056,-0.10248,-0.0244,-0.06588,-0.23912,-0.40504,-0.3172,-0.23912,-0.11712,-0.10736
-0.12688,0.14396,-0.16104,-0.0976,-0.03416,-0.04636,-0.1708,-0.27816,-0.22936,-0.18056,-0.08784,-0.10248
-0.08296,0.0976,-0.11224,-0.07076,-0.02928,-0.02684,-0.122,-0.19032,-0.1708,-0.14152,-0.0732,-0.08784
-0.07808,0.08784,-0.0976,-0.05856,-0.01952,-0.02928,-0.06344,-0.13664,-0.1464,-0.11224,-0.0488,-0.0732
-0.07808,0.09028,-0.10248,-0.06344,-0.0244,-0.02684,-0.02928,-0.11224,-0.13176,-0.10736,-0.03416,-0.0732
-0.07808,0.09028,-0.10248,-0.06344,-0.0244,-0.02684,-0.02928,-0.09272,-0.13176,-0.10736,-0.04392,-0.08296
-0.06832,0.08784,-0.10736,-0.0732,-0.03904,-0.01464,-0.02928,-0.08784,-0.122,-0.11224,-0.05368,-0.09272
-0.06344,0.08784,-0.11224,-0.08052,-0.0488,-0.00732,-0.02928,-0.08784,-0.11224,-0.11224,-0.05856,-0.08784
-0.0732,0.09272,-0.11224,-0.07564,-0.03904,-0.01708,-0.0244,-0.08784,-0.122,-0.11224,-0.06344,-0.0976
-0.0732,0.09272,-0.11224,-0.07564,-0.03904,-0.01708,-0.0244,-0.08784,-0.12688,-0.10736,-0.06344,-0.0976
-0.05856,0.09028,-0.122,-0.09272,-0.06344,0.00244,-0.0244,-0.08296,-0.12688,-0.11712,-0.06344,-0.0976
-0.05856,0.09028,-0.122,-0.09272,-0.06344,0.00244,-0.01952,-0.07808,-0.122,-0.11224,-0.06344,-0.0976
-0.05856,0.09272,-0.12688,-0.0976,-0.06832,0.00488,-0.00976,-0.06832,-0.122,-0.10248,-0.06344,-0.10248
-0.05856,0.09028,-0.122,-0.09272,-0.06344,0.00244,-0.00976,-0.06344,-0.12688,-0.10248,-0.06344,-0.10248
-0.06832,0.09516,-0.122,-0.08784,-0.05368,-0.00732,-0.00976,-0.0732,-0.11712,-0.10248,-0.06344,-0.10248
-0.06832,0.09516,-0.122,-0.08784,-0.05368,-0.00732,-0.00976,-0.0732,-0.11712,-0.10248,-0.06832,-0.10248
-0.06832,0.0976,-0.12688,-0.09272,-0.05856,-0.00488,-0.00976,-0.05856,-0.11712,-0.11224,-0.05856,-0.10248
-0.06832,0.0976,-0.12688,-0.09272,-0.05856,-0.00488,-0.00976,-0.05856,-0.11712,-0.11224,-0.05856,-0.10248
-0.06832,0.0976,-0.12688,-0.09272,-0.05856,-0.00488,-0.00488,-0.06344,-0.12688,-0.11712,-0.05368,-0.09272
-0.06832,0.0976,-0.12688,-0.09272,-0.05856,-0.00488,-0.00488,-0.06344,-0.12688,-0.11712,-0.05856,-0.0976
-0.06832,0.09272,-0.11712,-0.08296,-0.0488,-0.00976,-0.01464,-0.06344,-0.122,-0.11712,-0.06832,-0.0976
-0.0732,0.09516,-0.11712,-0.08052,-0.04392,-0.01464,-0.00976,-0.05856,-0.122,-0.11712,-0.0732,-0.0976
-0.0732,0.10248,-0.13176,-0.09516,-0.05856,-0.00732,0,-0.0488,-0.12688,-0.11224,-0.0732,-0.0976
-0.0732,0.10248,-0.13176,-0.09516,-0.05856,-0.00732,0.00488,-0.04392,-0.122,-0.11224,-0.0732,-0.0976
-0.0732,0.10248,-0.13176,-0.09516,-0.05856,-0.00732,0.00976,-0.0488,-0.122,-0.122,-0.0732,-0.10736
-0.0732,0.10248,-0.13176,-0.09516,-0.05856,-0.00732,0.00976,-0.0488,-0.12688,-0.11712,-0.0732,-0.10736
-0.06344,0.0976,-0.13176,-0.10004,-0.06832,0.00244,0.00976,-0.0488,-0.11712,-0.122,-0.0732,-0.10736
-0.06344,0.0976,-0.13176,-0.10004,-0.06832,0.00244,0.01464,-0.04392,-0.11224,-0.122,-0.0732,-0.10736
-0.0732,0.10248,-0.13176,-0.09516,-0.05856,-0.00732,0.01464,-0.03416,-0.11224,-0.122,-0.07808,-0.0976
-0.07808,0.10492,-0.13176,-0.09272,-0.05368,-0.0122,0.01952,-0.0244,-0.11224,-0.122,-0.07808,-0.0976
-0.07808,0.10492,-0.13176,-0.09272,-0.05368,-0.0122,0.01952,-0.0244,-0.122,-0.122,-0.07808,-0.10248
-0.07808,0.10248,-0.12688,-0.08784,-0.0488,-0.01464,0.02928,-0.01952,-0.11224,-0.122,-0.07808,-0.10248
-0.07808,0.10492,-0.13176,-0.09272,-0.05368,-0.0122,0.03416,-0.01464,-0.10736,-0.11712,-0.06344,-0.0976
-0.07808,0.10492,-0.13176,-0.09272,-0.05368,-0.0122,0.04392,-0.00488,-0.10736,-0.11224,-0.06344,-0.0976
-0.07808,0.1098,-0.14152,-0.10248,-0.06344,-0.00732,0.04392,0.00976,-0.09272,-0.10736,-0.05856,-0.09272
-0.07808,0.10736,-0.13664,-0.0976,-0.05856,-0.00976,0.0488,0.01952,-0.08784,-0.10736,-0.05856,-0.09272
-0.0732,0.10004,-0.12688,-0.09028,-0.05368,-0.00976,0.0488,0.03416,-0.07808,-0.10248,-0.05368,-0.08784
-0.0732,0.10004,-0.12688,-0.09028,-0.05368,-0.00976,0.05368,0.04392,-0.06832,-0.09272,-0.05368,-0.08784
-0.07808,0.09516,-0.11224,-0.0732,-0.03416,-0.02196,0.06344,0.05856,-0.0488,-0.08296,-0.0488,-0.09272
-0.0732,0.08784,-0.10248,-0.06588,-0.02928,-0.02196,0.06832,0.06832,-0.03904,-0.07808,-0.0488,-0.09272
-0.06344,0.08296,-0.10248,-0.07076,-0.03904,-0.0122,0.06832,0.08784,-0.02928,-0.07808,-0.0488,-0.08296
-0.05856,0.07564,-0.09272,-0.06344,-0.03416,-0.0122,0.0732,0.10736,-0.01952,-0.06344,-0.04392,-0.08296
-0.06832,0.0854,-0.10248,-0.06832,-0.03416,-0.01708,0.09272,0.12688,0.00976,-0.0488,-0.0244,-0.06832
-0.06832,0.08296,-0.0976,-0.06344,-0.02928,-0.01952,0.10248,0.15128,0.02928,-0.03416,-0.01464,-0.05856
-0.05368,0.06832,-0.08296,-0.05612,-0.02928,-0.0122,0.11224,0.1708,0.05856,-0.01464,0.00488,-0.05368
-0.0488,0.061,-0.0732,-0.0488,-0.0244,-0.0122,0.11224,0.19032,0.08784,0,0.00976,-0.04392
-0.04392,0.05368,-0.06344,-0.04148,-0.01952,-0.0122,0.12688,0.20496,0.10736,0.02928,0.03416,-0.0244
-0.03904,0.04392,-0.0488,-0.02928,-0.00976,-0.01464,0.13176,0.22936,0.13176,0.05368,0.03904,-0.01464
-0.04392,0.04636,-0.0488,-0.02684,-0.00488,-0.01952,0.13176,0.25864,0.16104,0.07808,0.06344,-0.00976
-0.03416,0.03416,-0.03416,-0.01708,0,-0.01708,0.14152,0.27816,0.20008,0.10248,0.08296,0.00488
-0.01464,0.01708,-0.01952,-0.0122,-0.00488,-0.00488,0.15128,0.30744,0.22448,0.122,0.0976,0.0244
-0.01464,0.0122,-0.00976,-0.00244,0.00488,-0.00976,0.15616,0.33184,0.25376,0.15128,0.11224,0.03904
-0.00976,0.00244,0.00488,0.00976,0.01464,-0.0122,0.1708,0.34648,0.28304,0.16104,0.13176,0.04392
-0.00488,-0.00488,0.01464,0.01708,0.01952,-0.0122,0.1708,0.36112,0.31232,0.19032,0.15128,0.06344
-0.00488,-0.01464,0.03416,0.0366,0.03904,-0.02196,0.17568,0.38064,0.34648,0.20984,0.1708,0.0732
0.00976,-0.02684,0.04392,0.03904,0.03416,-0.0122,0.18056,0.40016,0.366,0.23424,0.18056,0.08296
0.01464,-0.02928,0.04392,0.0366,0.02928,-0.00732,0.18056,0.40992,0.39528,0.25376,0.20008,0.08784
0.0244,-0.04148,0.05856,0.04636,0.03416,-0.00488,0.18056,0.4148,0.41968,0.27328,0.2196,0.10248
0.0244,-0.0488,0.0732,0.061,0.0488,-0.0122,0.18056,0.41968,0.43432,0.2928,0.23912,0.11224
0.02928,-0.05368,0.07808,0.06344,0.0488,-0.00976,0.17568,0.41968,0.42944,0.2928,0.23912,0.11712
0.02928,-0.06344,0.0976,0.08296,0.06832,-0.01952,0.16592,0.39528,0.40504,0.2928,0.23424,0.11712
0.03904,-0.07564,0.11224,0.09272,0.0732,-0.01708,0.1464,0.366,0.38064,0.27816,0.23424,0.11712
0.03904,-0.06588,0.09272,0.0732,0.05368,-0.00732,0.1464,0.33672,0.34648,0.26352,0.22936,0.11712
0.03904,-0.061,0.08296,0.06344,0.04392,-0.00244,0.13664,0.29768,0.32208,0.23912,0.20984,0.10736
0.0244,-0.05612,0.08784,0.07564,0.06344,-0.01952,0.122,0.26352,0.27328,0.20984,0.18544,0.0976
0.0244,-0.05124,0.07808,0.06588,0.05368,-0.01464,0.11224,0.22448,0.23424,0.18056,0.1708,0.08296
0.01952,-0.03904,0.05856,0.0488,0.03904,-0.00976,0.10248,0.18544,0.20984,0.16104,0.15616,0.06832
0.01952,-0.03416,0.0488,0.03904,0.02928,-0.00488,0.08784,0.15128,0.16592,0.13176,0.13664,0.05856
0.01952,-0.02928,0.03904,0.02928,0.01952,0,0.08784,0.122,0.12688,0.0976,0.11712,0.04392
0.01464,-0.0244,0.03416,0.02684,0.01952,-0.00244,0.0732,0.08784,0.0976,0.0732,0.09272,0.03416
0.00488,-0.0122,0.01952,0.01708,0.01464,-0.00488,0.06344,0.0488,0.05856,0.05368,0.08296,0.00976
-0.00488,-0.00244,0.00976,0.0122,0.01464,-0.00976,0.05368,0.03416,0.03416,0.03416,0.07808,0.00488
-0.00488,0.00732,-0.00976,-0.00732,-0.00488,0,0.04392,0.00976,0.01952,0.00976,0.05368,-0.01464
-0.00488,0.0122,-0.01952,-0.01708,-0.01464,0.00488,0.03904,-0.00976,0.00488,0.00488,0.04392,-0.0244
-0.01464,0.01952,-0.0244,-0.01708,-0.00976,-0.00244,0.02928,-0.01952,-0.00488,-0.00488,0.02928,-0.01464
-0.01464,0.01952,-0.0244,-0.01708,-0.00976,-0.00244,0.0244,-0.0244,-0.01464,-0.01952,0.0244,-0.01952
-0.01464,0.02196,-0.02928,-0.02196,-0.01464,0,0.0244,-0.03416,-0.02928,-0.02928,0.01952,-0.0244
-0.01952,0.02684,-0.03416,-0.0244,-0.01464,-0.00244,0.01952,-0.04392,-0.03904,-0.02928,0.00976,-0.02928
-0.01952,0.03172,-0.04392,-0.03416,-0.0244,0.00244,0.00976,-0.0488,-0.04392,-0.03904,0.00976,-0.03904
-0.0244,0.03416,-0.04392,-0.03172,-0.01952,-0.00244,0.00976,-0.0488,-0.0488,-0.04392,0.00488,-0.04392
-0.03416,0.03904,-0.04392,-0.02684,-0.00976,-0.0122,0.01952,-0.04392,-0.0488,-0.04392,0.00488,-0.04392
-0.03416,0.04148,-0.0488,-0.03172,-0.01464,-0.00976,0.01952,-0.0488,-0.0488,-0.03904,0,-0.0488
-0.02928,0.03904,-0.0488,-0.03416,-0.01952,-0.00488,0.01952,-0.06344,-0.05368,-0.05856,0,-0.0488
-0.02928,0.04148,-0.05368,-0.03904,-0.0244,-0.00244,0.01952,-0.06344,-0.05368,-0.05856,-0.00488,-0.0488
-0.02928,0.04148,-0.05368,-0.03904,-0.0244,-0.00244,0.01464,-0.05856,-0.05856,-0.05856,-0.00976,-0.05368
-0.02928,0.04148,-0.05368,-0.03904,-0.0244,-0.00244,0.01464,-0.06344,-0.06344,-0.05856,-0.01952,-0.05368
-0.02928,0.03904,-0.0488,-0.03416,-0.01952,-0.00488,0.01464,-0.06832,-0.0732,-0.06344,-0.01952,-0.05368
-0.03416,0.04148,-0.0488,-0.03172,-0.01464,-0.00976,0.01464,-0.06344,-0.0732,-0.06344,-0.0244,-0.05856
-0.03416,0.04636,-0.05856,-0.04148,-0.0244,-0.00488,0.01464,-0.06832,-0.07808,-0.0732,-0.0244,-0.05856
-0.03416,0.0488,-0.06344,-0.04636,-0.02928,-0.00244,0.01464,-0.06832,-0.08296,-0.07808,-0.02928,-0.06344
-0.02928,0.04636,-0.06344,-0.0488,-0.03416,0.00244,0.01464,-0.06832,-0.08296,-0.08296,-0.04392,-0.05856
-0.02928,0.04636,-0.06344,-0.0488,-0.03416,0.00244,0.01464,-0.0732,-0.08296,-0.08784,-0.05368,-0.06832
-0.03904,0.05612,-0.0732,-0.05368,-0.03416,-0.00244,0.01464,-0.0732,-0.08784,-0.09272,-0.03904,-0.0732
-0.03904,0.05368,-0.06832,-0.0488,-0.02928,-0.00488,0.00976,-0.0732,-0.09272,-0.09272,-0.04392,-0.06832
-0.02928,0.04392,-0.05856,-0.04392,-0.02928,0,0.00976,-0.07808,-0.10248,-0.0976,-0.04392,-0.07808
-0.02928,0.04392,-0.05856,-0.04392,-0.02928,0,0.01464,-0.07808,-0.10736,-0.0976,-0.0488,-0.08296
-0.02928,0.0488,-0.06832,-0.05368,-0.03904,0.00488,0.01464,-0.07808,-0.0976,-0.0976,-0.0488,-0.08296
-0.02928,0.05124,-0.0732,-0.05856,-0.04392,0.00732,0.01464,-0.07808,-0.10248,-0.0976,-0.04392,-0.07808
-0.02928,0.04636,-0.06344,-0.0488,-0.03416,0.00244,0.00976,-0.08296,-0.10248,-0.10248,-0.05856,-0.08296
-0.03416,0.0488,-0.06344,-0.04636,-0.02928,-0.00244,0.00976,-0.08296,-0.10736,-0.10248,-0.05856,-0.08296
-0.03416,0.05368,-0.0732,-0.05612,-0.03904,0.00244,0.00976,-0.08296,-0.10736,-0.09272,-0.05856,-0.0732
-0.03416,0.05368,-0.0732,-0.05612,-0.03904,0.00244,0.00976,-0.08296,-0.10736,-0.09272,-0.05856,-0.0732
-0.04392,0.05368,-0.06344,-0.04148,-0.01952,-0.0122,-0.00488,-0.08296,-0.10736,-0.09272,-0.05856,-0.0732
-0.03904,0.0488,-0.05856,-0.03904,-0.01952,-0.00976,-0.00488,-0.08296,-0.10736,-0.08784,-0.05856,-0.0732
-0.02928,0.04392,-0.05856,-0.04392,-0.02928,0,0,-0.07808,-0.0976,-0.09272,-0.06344,-0.0732
-0.02928,0.04392,-0.05856,-0.04392,-0.02928,0,0,-0.07808,-0.0976,-0.09272,-0.05856,-0.0732
-0.02928,0.04148,-0.05368,-0.03904,-0.0244,-0.00244,-0.01464,-0.07808,-0.10248,-0.10248,-0.05856,-0.0732
-0.02928,0.04148,-0.05368,-0.03904,-0.0244,-0.00244,-0.00976,-0.07808,-0.10248,-0.0976,-0.05368,-0.0732
-0.02928,0.04636,-0.06344,-0.0488,-0.03416,0.00244,-0.00976,-0.08784,-0.10248,-0.09272,-0.05856,-0.06832
-0.0244,0.04636,-0.06832,-0.05612,-0.04392,0.00976,-0.00976,-0.08784,-0.10248,-0.09272,-0.06832,-0.06832
-0.0244,0.03904,-0.05368,-0.04148,-0.02928,0.00244,-0.01952,-0.08784,-0.10248,-0.0976,-0.06832,-0.07808
-0.0244,0.03904,-0.05368,-0.04148,-0.02928,0.00244,-0.0244,-0.09272,-0.0976,-0.0976,-0.06832,-0.07808
-0.0244,0.03904,-0.05368,-0.04148,-0.02928,0.00244,-0.01952,-0.09272,-0.10248,-0.10248,-0.0732,-0.08296
-0.0244,0.03904,-0.05368,-0.04148,-0.02928,0.00244,-0.0244,-0.0976,-0.10248,-0.10248,-0.0732,-0.07808
-0.03416,0.0488,-0.06344,-0.04636,-0.02928,-0.00244,-0.01464,-0.0976,-0.10248,-0.10248,-0.06344,-0.07808
-0.02928,0.04636,-0.06344,-0.0488,-0.03416,0.00244,-0.01464,-0.10248,-0.10248,-0.10248,-0.06344,-0.07808
-0.01952,0.0366,-0.05368,-0.04392,-0.03416,0.00732,-0.0244,-0.10248,-0.10248,-0.10248,-0.0732,-0.07808
-0.01952,0.0366,-0.05368,-0.04392,-0.03416,0.00732,-0.02928,-0.10248,-0.10248,-0.10248,-0.07808,-0.07808
-0.02928,0.0488,-0.06832,-0.05368,-0.03904,0.00488,-0.01952,-0.10248,-0.10248,-0.10248,-0.06832,-0.07808
-0.03416,0.0488,-0.06344,-0.04636,-0.02928,-0.00244,-0.01952,-0.10248,-0.10248,-0.0976,-0.06832,-0.07808
-0.0244,0.04392,-0.06344,-0.05124,-0.03904,0.00732,-0.02928,-0.11224,-0.11224,-0.10248,-0.07808,-0.07808
-0.01952,0.04392,-0.06832,-0.05856,-0.0488,0.01464,-0.02928,-0.11224,-0.11224,-0.10248,-0.0732,-0.07808
-0.0244,0.03904,-0.05368,-0.04148,-0.02928,0.00244,-0.0244,-0.10736,-0.11224,-0.10248,-0.08296,-0.08784
-0.01952,0.0366,-0.05368,-0.04392,-0.03416,0.00732,-0.0244,-0.10736,-0.11224,-0.10248,-0.08296,-0.08296
-0.01952,0.04148,-0.06344,-0.05368,-0.04392,0.0122,-0.01952,-0.11712,-0.11224,-0.10248,-0.07808,-0.08296
-0.0244,0.04636,-0.06832,-0.05612,-0.04392,0.00976,-0.0244,-0.11712,-0.11224,-0.10248,-0.07808,-0.08784
-0.01952,0.03904,-0.05856,-0.0488,-0.03904,0.00976,-0.0244,-0.122,-0.11224,-0.10248,-0.08296,-0.08784
-0.01952,0.03904,-0.05856,-0.0488,-0.03904,0.00976,-0.0244,-0.11712,-0.11224,-0.10248,-0.08296,-0.08784
-0.01952,0.03904,-0.05856,-0.0488,-0.03904,0.00976,-0.02928,-0.11224,-0.10248,-0.10248,-0.07808,-0.08784
-0.01952,0.03904,-0.05856,-0.0488,-0.03904,0.00976,-0.03416,-0.11224,-0.10248,-0.10248,-0.07808,-0.08784
-0.01952,0.03904,-0.05856,-0.0488,-0.03904,0.00976,-0.01952,-0.11224,-0.10248,-0.11224,-0.08296,-0.07808
-0.01952,0.03904,-0.05856,-0.0488,-0.03904,0.00976,-0.01952,-0.10248,-0.10248,-0.11224,-0.0732,-0.08784
-0.01952,0.03904,-0.05856,-0.0488,-0.03904,0.00976,-0.02928,-0.11712,-0.11712,-0.10736,-0.07808,-0.08784
-0.01952,0.03904,-0.05856,-0.0488,-0.03904,0.00976,-0.02928,-0.11712,-0.11712,-0.10736,-0.07808,-0.08784
-0.01952,0.03416,-0.0488,-0.03904,-0.02928,0.00488,-0.02928,-0.11712,-0.11712,-0.10736,-0.07808,-0.08784
-0.01952,0.0366,-0.05368,-0.04392,-0.03416,0.00732,-0.02928,-0.11712,-0.11712,-0.10736,-0.07808,-0.08784
-0.01464,0.0366,-0.05856,-0.05124,-0.04392,0.01464,-0.0244,-0.11712,-0.10736,-0.10248,-0.08784,-0.08296
-0.01952,0.03904,-0.05856,-0.0488,-0.03904,0.00976,-0.0244,-0.11712,-0.10736,-0.10248,-0.08296,-0.08296
-0.01952,0.03416,-0.0488,-0.03904,-0.02928,0.00488,-0.01464,-0.0976,-0.11224,-0.10248,-0.0732,-0.08296
-0.01464,0.02928,-0.04392,-0.0366,-0.02928,0.00732,-0.01464,-0.09272,-0.11224,-0.10248,-0.0732,-0.08296
-0.01464,0.02684,-0.03904,-0.03172,-0.0244,0.00488,0,-0.0976,-0.10248,-0.09272,-0.07808,-0.07808
-0.00488,0.01708,-0.02928,-0.02684,-0.0244,0.00976,0.00488,-0.08784,-0.09272,-0.08784,-0.06832,-0.06832
0.01464,-0.00244,-0.00976,-0.01708,-0.0244,0.01952,0.00976,-0.06832,-0.0732,-0.08784,-0.06832,-0.06832
0.01464,-0.0122,0.00976,0.00244,-0.00488,0.00976,0.02928,-0.0488,-0.06344,-0.0732,-0.06344,-0.06832
0.00976,-0.00976,0.00976,0.00488,0,0.00488,0.03904,-0.04392,-0.05856,-0.06344,-0.0488,-0.06344
0.01464,-0.01464,0.01464,0.00732,0,0.00732,0.0488,-0.03904,-0.05368,-0.06344,-0.0488,-0.05856
0.01464,-0.01464,0.01464,0.00732,0,0.00732,0.04392,-0.0244,-0.05368,-0.05856,-0.0488,-0.05856
0.01952,-0.01708,0.01464,0.00488,-0.00488,0.0122,0.02928,-0.02928,-0.05368,-0.06344,-0.04392,-0.05368
0.0244,-0.01464,0.00488,-0.00732,-0.01952,0.02196,-0.00976,-0.06344,-0.06832,-0.06344,-0.04392,-0.04392
0.02928,-0.01708,0.00488,-0.00976,-0.0244,0.02684,-0.03904,-0.09272,-0.07808,-0.06832,-0.04392,-0.03904
0.02928,-0.02196,0.01464,0,-0.01464,0.02196,-0.04392,-0.10248,-0.08296,-0.0732,-0.0488,-0.03904
0.02928,-0.02196,0.01464,0,-0.01464,0.02196,-0.05368,-0.11712,-0.0976,-0.08784,-0.05368,-0.03904
0.03904,-0.02684,0.01464,-0.00488,-0.0244,0.03172,-0.05368,-0.122,-0.10736,-0.08296,-0.04392,-0.0488
0.03904,-0.02684,0.01464,-0.00488,-0.0244,0.03172,-0.06344,-0.12688,-0.10248,-0.08784,-0.03904,-0.04392
0.03416,-0.02684,0.01952,0.00244,-0.01464,0.0244,-0.06344,-0.13664,-0.11224,-0.09272,-0.04392,-0.03416
0.03416,-0.0122,-0.00976,-0.02684,-0.04392,0.03904,-0.06344,-0.13664,-0.11712,-0.09272,-0.05368,-0.04392
0.04392,-0.00488,-0.03416,-0.05612,-0.07808,0.061,-0.06832,-0.14152,-0.12688,-0.11224,-0.07808,-0.06344
0.02928,0.0122,-0.05368,-0.06832,-0.08296,0.05612,-0.06344,-0.1464,-0.13664,-0.122,-0.08784,-0.08296
0.00976,0.02196,-0.05368,-0.05856,-0.06344,0.0366,-0.06344,-0.1464,-0.15128,-0.12688,-0.10248,-0.08784
-0.00976,0.03416,-0.05856,-0.05368,-0.0488,0.01952,-0.05368,-0.1464,-0.1464,-0.122,-0.10248,-0.08784
-0.03904,0.05368,-0.06832,-0.0488,-0.02928,-0.00488,-0.04392,-0.12688,-0.12688,-0.13176,-0.09272,-0.07808
-0.03904,0.05612,-0.0732,-0.05368,-0.03416,-0.00244,-0.04392,-0.12688,-0.13176,-0.13176,-0.10248,-0.08784
-0.02928,0.05124,-0.0732,-0.05856,-0.04392,0.00732,-0.04392,-0.14152,-0.13664,-0.13176,-0.10248,-0.10248
-0.02928,0.05124,-0.0732,-0.05856,-0.04392,0.00732,-0.0488,-0.1464,-0.1464,-0.13664,-0.11224,-0.10736
-0.02928,0.05612,-0.08296,-0.06832,-0.05368,0.0122,-0.05856,-0.1464,-0.1464,-0.13664,-0.11224,-0.10736
-0.02928,0.05368,-0.07808,-0.06344,-0.0488,0.00976,-0.0488,-0.1464,-0.1464,-0.14152,-0.11224,-0.10736
-0.02928,0.05612,-0.08296,-0.06832,-0.05368,0.0122,-0.0488,-0.1464,-0.1464,-0.14152,-0.11224,-0.10736
-0.03416,0.05856,-0.08296,-0.06588,-0.0488,0.00732,-0.0488,-0.1464,-0.1464,-0.13664,-0.11224,-0.10736
-0.03416,0.061,-0.08784,-0.07076,-0.05368,0.00976,-0.0488,-0.13664,-0.14152,-0.14152,-0.11224,-0.11224
-0.03416,0.061,-0.08784,-0.07076,-0.05368,0.00976,-0.0488,-0.13664,-0.14152,-0.14152,-0.11224,-0.11224
-0.03416,0.05612,-0.07808,-0.061,-0.04392,0.00488,-0.0488,-0.14152,-0.14152,-0.13664,-0.10736,-0.10248
-0.03416,0.05612,-0.07808,-0.061,-0.04392,0.00488,-0.04392,-0.13664,-0.14152,-0.13664,-0.10736,-0.0976
-0.03416,0.05856,-0.08296,-0.06588,-0.0488,0.00732,-0.03904,-0.12688,-0.13664,-0.13176,-0.11712,-0.11224
-0.03416,0.06344,-0.09272,-0.07564,-0.05856,0.0122,-0.02928,-0.122,-0.12688,-0.122,-0.10736,-0.10248
-0.03416,0.05368,-0.0732,-0.05612,-0.03904,0.00244,0,-0.09272,-0.10736,-0.122,-0.0976,-0.10248
-0.03904,0.05612,-0.0732,-0.05368,-0.03416,-0.00244,0.03416,-0.04392,-0.0976,-0.12688,-0.11224,-0.122
-0.06344,0.06588,-0.06832,-0.0366,-0.00488,-0.02928,0.0976,0.00976,-0.08296,-0.122,-0.12688,-0.15128
-0.08296,0.08784,-0.09272,-0.05124,-0.00976,-0.0366,0.13176,0,-0.10248,-0.15128,-0.14152,-0.15128
-0.08784,0.10492,-0.122,-0.07808,-0.03416,-0.02684,0.14152,-0.01464,-0.15128,-0.20496,-0.18056,-0.18056
-0.01952,0.0244,-0.02928,-0.01952,-0.00976,-0.00488,0.0976,0.01464,-0.07808,-0.10736,-0.09272,-0.10736
0.11712,-0.09272,0.06832,0.00976,-0.0488,0.08296,0.0488,0.12688,0.08296,0.0976,0.0976,0.03904
0.27328,-0.2928,0.31232,0.17568,0.03904,0.11712,0.0488,0.3416,0.3904,0.44408,0.4148,0.3172
0.48312,-0.57096,0.6588,0.41724,0.17568,0.15372,0.02928,0.64904,0.88328,0.95648,0.83448,0.65392
0.6588,-0.83204,1.00528,0.67588,0.34648,0.15616,-0.13664,0.66368,1.2932,1.42984,1.22976,0.976
0.81008,-1.02236,1.23464,0.8296,0.42456,0.19276,-0.28304,0.72224,1.82024,1.97152,1.61528,1.26392
0.85888,-1.05896,1.25904,0.8296,0.40016,0.22936,-0.36112,0.9272,2.2936,2.30336,1.8056,1.4152
0.77592,-0.98576,1.1956,0.80764,0.41968,0.17812,-0.3416,1.01016,2.5376,2.35704,1.79096,1.4152
0.50752,-0.72712,0.94672,0.69296,0.4392,0.03416,-0.22936,0.72712,1.81536,1.54696,1.2688,1.11752
0.244,-0.4636,0.6832,0.5612,0.4392,-0.0976,-0.22936,0.05856,0.52216,0.49776,0.69784,0.78568
0.03416,-0.2196,0.40504,0.38796,0.37088,-0.16836,-0.42944,-0.7808,-0.33672,-0.05856,0.33184,0.50752
-0.08784,-0.04636,0.18056,0.22448,0.2684,-0.17812,-0.4148,-0.8052,-0.488,-0.27816,0.04392,0.20008
-0.14152,0.06588,0.00976,0.08052,0.15128,-0.1464,-0.36112,-0.66856,-0.4636,-0.3416,-0.13664,0.00488
-0.15616,0.12444,-0.09272,-0.01464,0.06344,-0.1098,-0.2928,-0.5368,-0.40016,-0.32208,-0.20008,-0.10248
-0.15128,0.16104,-0.1708,-0.09516,-0.01952,-0.06588,-0.22448,-0.42456,-0.32696,-0.2928,-0.20496,-0.15616
-0.10736,0.122,-0.13664,-0.08296,-0.02928,-0.03904,-0.14152,-0.28304,-0.25376,-0.24888,-0.19032,-0.14152
-0.07808,0.09028,-0.10248,-0.06344,-0.0244,-0.02684,-0.10248,-0.19032,-0.19032,-0.21472,-0.15616,-0.13176
-0.05856,0.0732,-0.08784,-0.05856,-0.02928,-0.01464,-0.0488,-0.13664,-0.15616,-0.18056,-0.14152,-0.12688
-0.05856,0.07564,-0.09272,-0.06344,-0.03416,-0.0122,-0.00488,-0.122,-0.14152,-0.1708,-0.14152,-0.122
-0.05856,0.07564,-0.09272,-0.06344,-0.03416,-0.0122,0,-0.10736,-0.14152,-0.16592,-0.1464,-0.12688
-0.06832,0.0854,-0.10248,-0.06832,-0.03416,-0.01708,-0.00976,-0.0976,-0.14152,-0.17568,-0.15128,-0.13664
-0.06344,0.08784,-0.11224,-0.08052,-0.0488,-0.00732,-0.00976,-0.0976,-0.14152,-0.18056,-0.15616,-0.14152
-0.06344,0.08296,-0.10248,-0.07076,-0.03904,-0.0122,0.00488,-0.08784,-0.14152,-0.18056,-0.15128,-0.13664
-0.06344,0.08296,-0.10248,-0.07076,-0.03904,-0.0122,0.00488,-0.08784,-0.14152,-0.17568,-0.15128,-0.13664
-0.06344,0.08784,-0.11224,-0.08052,-0.0488,-0.00732,0.00488,-0.07808,-0.13664,-0.16592,-0.14152,-0.13664
-0.05856,0.0854,-0.11224,-0.08296,-0.05368,-0.00244,0.00488,-0.0732,-0.13664,-0.16592,-0.14152,-0.13664
-0.05856,0.0854,-0.11224,-0.08296,-0.05368,-0.00244,0.00976,-0.07808,-0.13176,-0.1708,-0.15128,-0.13664
-0.05856,0.08784,-0.11712,-0.08784,-0.05856,0,0.00976,-0.0732,-0.13664,-0.1708,-0.15128,-0.14152
-0.05856,0.0854,-0.11224,-0.08296,-0.05368,-0.00244,0.00976,-0.06344,-0.13664,-0.1708,-0.15128,-0.14152
-0.05856,0.0854,-0.11224,-0.08296,-0.05368,-0.00244,0.00976,-0.06344,-0.13664,-0.1708,-0.15616,-0.14152
-0.05856,0.0854,-0.11224,-0.08296,-0.05368,-0.00244,0.01952,-0.0732,-0.13664,-0.1708,-0.15616,-0.14152
-0.05856,0.08784,-0.11712,-0.08784,-0.05856,0,0.01952,-0.06832,-0.13664,-0.1708,-0.15616,-0.14152
-0.05856,0.08296,-0.10736,-0.07808,-0.0488,-0.00488,0.00976,-0.06344,-0.13664,-0.16104,-0.16104,-0.14152
-0.05856,0.08296,-0.10736,-0.07808,-0.0488,-0.00488,0.01464,-0.06344,-0.13664,-0.16592,-0.16592,-0.14152
-0.05856,0.08296,-0.10736,-0.07808,-0.0488,-0.00488,0.01464,-0.06344,-0.13664,-0.16592,-0.15616,-0.1464
-0.06344,0.0854,-0.10736,-0.07564,-0.04392,-0.00976,0.01952,-0.05856,-0.13176,-0.16592,-0.15616,-0.1464
-0.06344,0.09028,-0.11712,-0.0854,-0.05368,-0.00488,0.01952,-0.05856,-0.13664,-0.17568,-0.16104,-0.1464
-0.06344,0.09272,-0.122,-0.09028,-0.05856,-0.00244,0.0244,-0.05856,-0.13176,-0.18056,-0.16104,-0.1464
-0.0732,0.0976,-0.122,-0.0854,-0.0488,-0.0122,0.03416,-0.05368,-0.13176,-0.1708,-0.16104,-0.1464
-0.0732,0.0976,-0.122,-0.0854,-0.0488,-0.0122,0.03904,-0.0488,-0.13664,-0.16592,-0.16104,-0.1464
-0.06344,0.09272,-0.122,-0.09028,-0.05856,-0.00244,0.03904,-0.0488,-0.13664,-0.18056,-0.1708,-0.1464
-0.06344,0.09272,-0.122,-0.09028,-0.05856,-0.00244,0.03904,-0.04392,-0.13664,-0.18056,-0.1708,-0.1464
-0.06344,0.09272,-0.122,-0.09028,-0.05856,-0.00244,0.04392,-0.03416,-0.13176,-0.18056,-0.16592,-0.1464
-0.06344,0.09272,-0.122,-0.09028,-0.05856,-0.00244,0.04392,-0.0244,-0.13176,-0.18056,-0.16592,-0.1464
-0.06832,0.09516,-0.122,-0.08784,-0.05368,-0.00732,0.0488,-0.01464,-0.122,-0.1708,-0.16592,-0.13664
-0.06832,0.09272,-0.11712,-0.08296,-0.0488,-0.00976,0.05368,-0.00976,-0.11712,-0.1708,-0.16592,-0.14152
-0.05856,0.09028,-0.122,-0.09272,-0.06344,0.00244,0.05368,-0.00976,-0.0976,-0.16592,-0.16104,-0.1464
-0.05856,0.09028,-0.122,-0.09272,-0.06344,0.00244,0.05368,0,-0.0976,-0.16104,-0.16104,-0.1464
-0.06832,0.09516,-0.122,-0.08784,-0.05368,-0.00732,0.06344,0.00976,-0.0976,-0.1708,-0.1708,-0.13176
-0.06832,0.09272,-0.11712,-0.08296,-0.0488,-0.00976,0.06344,0.01464,-0.0976,-0.16592,-0.16592,-0.13176
-0.06832,0.09272,-0.11712,-0.08296,-0.0488,-0.00976,0.07808,0.0244,-0.08296,-0.15128,-0.16592,-0.13176
-0.06344,0.09028,-0.11712,-0.0854,-0.05368,-0.00488,0.09272,0.04392,-0.0732,-0.1464,-0.16104,-0.12688
-0.06832,0.09028,-0.11224,-0.07808,-0.04392,-0.0122,0.0976,0.05368,-0.0732,-0.1464,-0.15616,-0.12688
-0.06344,0.08784,-0.11224,-0.08052,-0.0488,-0.00732,0.10736,0.07808,-0.06344,-0.14152,-0.1464,-0.122
-0.06344,0.08296,-0.10248,-0.07076,-0.03904,-0.0122,0.11224,0.0732,-0.0488,-0.13176,-0.1464,-0.12688
-0.06344,0.08296,-0.10248,-0.07076,-0.03904,-0.0122,0.122,0.0976,-0.02928,-0.11224,-0.13176,-0.122
-0.05856,0.07564,-0.09272,-0.06344,-0.03416,-0.0122,0.12688,0.122,0,-0.0976,-0.12688,-0.11224
-0.05856,0.07076,-0.08296,-0.05368,-0.0244,-0.01708,0.13664,0.1464,0.01952,-0.08296,-0.11712,-0.10736
-0.05856,0.06588,-0.0732,-0.04392,-0.01464,-0.02196,0.1464,0.18056,0.03416,-0.06344,-0.10736,-0.0976
-0.05368,0.06344,-0.0732,-0.04636,-0.01952,-0.01708,0.15128,0.20496,0.06344,-0.0488,-0.09272,-0.08784
-0.04392,0.05124,-0.05856,-0.0366,-0.01464,-0.01464,0.16104,0.2196,0.09272,-0.03416,-0.08296,-0.07808
-0.03904,0.04392,-0.0488,-0.02928,-0.00976,-0.01464,0.1708,0.23912,0.122,-0.00488,-0.06832,-0.06832
-0.03416,0.02928,-0.0244,-0.00732,0.00976,-0.02196,0.1708,0.26352,0.15616,0.01952,-0.0488,-0.05368
-0.03416,0.0244,-0.01464,0.00244,0.01952,-0.02684,0.18056,0.28792,0.18544,0.03904,-0.0244,-0.04392
-0.01952,0.0122,-0.00488,0.00488,0.01464,-0.01708,0.18056,0.30744,0.2196,0.05856,-0.00488,-0.02928
-0.01464,0.00488,0.00488,0.0122,0.01952,-0.01708,0.18544,0.32696,0.24888,0.08784,0.00976,-0.01952
-0.00488,-0.00732,0.01952,0.02196,0.0244,-0.01464,0.18544,0.35136,0.2684,0.11224,0.0244,-0.00488
0,-0.01464,0.02928,0.02928,0.02928,-0.01464,0.19032,0.37088,0.29768,0.13176,0.04392,0.00976
0.00488,-0.02684,0.0488,0.04636,0.04392,-0.01952,0.20496,0.3904,0.33184,0.16592,0.06344,0.03416
0.01464,-0.03904,0.06344,0.05612,0.0488,-0.01708,0.20984,0.40992,0.36112,0.18544,0.08296,0.03904
0.0244,-0.05124,0.07808,0.06588,0.05368,-0.01464,0.20008,0.43432,0.37576,0.20496,0.08784,0.05368
0.02928,-0.061,0.09272,0.07808,0.06344,-0.01708,0.20008,0.44408,0.39528,0.22448,0.11224,0.06344
0.03416,-0.06344,0.09272,0.07564,0.05856,-0.0122,0.20008,0.44408,0.42456,0.25376,0.122,0.07808
0.03904,-0.0732,0.10736,0.08784,0.06832,-0.01464,0.1952,0.4392,0.41968,0.25376,0.13176,0.08784
0.03904,-0.0732,0.10736,0.08784,0.06832,-0.01464,0.1952,0.40992,0.40504,0.244,0.12688,0.08784
0.04392,-0.07808,0.11224,0.09028,0.06832,-0.0122,0.19032,0.39528,0.38552,0.23912,0.12688,0.08784
0.03904,-0.07808,0.11712,0.0976,0.07808,-0.01952,0.18056,0.36112,0.36112,0.22448,0.12688,0.08784
0.03904,-0.0732,0.10736,0.08784,0.06832,-0.01464,0.1708,0.32696,0.32208,0.20496,0.11712,0.07808
0.03416,-0.06832,0.10248,0.0854,0.06832,-0.01708,0.16104,0.28792,0.28304,0.1708,0.08784,0.06832
0.03416,-0.06344,0.09272,0.07564,0.05856,-0.0122,0.1464,0.25376,0.244,0.1464,0.06832,0.05856
0.0244,-0.0488,0.0732,0.061,0.0488,-0.0122,0.13664,0.20008,0.1952,0.11712,0.05856,0.03904
0.01952,-0.04148,0.06344,0.05368,0.04392,-0.0122,0.122,0.1708,0.16104,0.08784,0.03904,0.01952
0.01952,-0.03416,0.0488,0.03904,0.02928,-0.00488,0.11224,0.1464,0.122,0.06344,0.01952,0.01464
0.01952,-0.02928,0.03904,0.02928,0.01952,0,0.0976,0.10736,0.08784,0.03416,0,-0.00488
0.01464,-0.0244,0.03416,0.02684,0.01952,-0.00244,0.07808,0.0732,0.06344,0.00488,-0.0244,-0.01464
0.01464,-0.01952,0.0244,0.01708,0.00976,0.00244,0.06344,0.05368,0.04392,-0.01464,-0.02928,-0.0244
0.00488,-0.00488,0.00488,0.00244,0,0.00244,0.06832,0.03416,0.02928,-0.02928,-0.03904,-0.02928
0.00488,0,-0.00488,-0.00732,-0.00976,0.00732,0.05856,0.01952,0.00976,-0.03904,-0.05856,-0.03904
-0.00488,0.00488,-0.00488,-0.00244,0,-0.00244,0.05368,0,0,-0.03904,-0.05368,-0.04392
-0.00488,0.00488,-0.00488,-0.00244,0,-0.00244,0.0488,-0.00976,-0.00976,-0.0488,-0.05856,-0.0488
-0.00488,0.00976,-0.01464,-0.0122,-0.00976,0.00244,0.03416,-0.01464,-0.02928,-0.06832,-0.0732,-0.06344
-0.00976,0.01708,-0.0244,-0.01952,-0.01464,0.00244,0.03416,-0.01952,-0.03416,-0.06832,-0.07808,-0.06344
-0.00976,0.01464,-0.01952,-0.01464,-0.00976,0,0.02928,-0.0244,-0.03904,-0.06832,-0.07808,-0.05856
-0.01464,0.01952,-0.0244,-0.01708,-0.00976,-0.00244,0.02928,-0.02928,-0.04392,-0.06832,-0.07808,-0.05856
-0.01464,0.01952,-0.0244,-0.01708,-0.00976,-0.00244,0.02928,-0.03416,-0.05856,-0.08296,-0.08296,-0.06344
-0.01464,0.01952,-0.0244,-0.01708,-0.00976,-0.00244,0.02928,-0.03904,-0.05856,-0.07808,-0.08296,-0.06832
-0.01464,0.02684,-0.03904,-0.03172,-0.0244,0.00488,0.02928,-0.03904,-0.05856,-0.07808,-0.08784,-0.07808
-0.01952,0.02928,-0.03904,-0.02928,-0.01952,0,0.02928,-0.04392,-0.06344,-0.08784,-0.09272,-0.07808
-0.02928,0.0366,-0.04392,-0.02928,-0.01464,-0.00732,0.0244,-0.0488,-0.06832,-0.08784,-0.0976,-0.08296
-0.02928,0.0366,-0.04392,-0.02928,-0.01464,-0.00732,0.0244,-0.0488,-0.0732,-0.08784,-0.10248,-0.08296
-0.01952,0.03416,-0.0488,-0.03904,-0.02928,0.00488,0.0244,-0.05368,-0.0732,-0.09272,-0.10736,-0.08296
-0.0244,0.0366,-0.0488,-0.0366,-0.0244,0,0.0244,-0.05856,-0.0732,-0.09272,-0.10736,-0.08296
-0.0244,0.0366,-0.0488,-0.0366,-0.0244,0,0.0244,-0.05368,-0.08784,-0.10248,-0.10248,-0.08784
-0.0244,0.0366,-0.0488,-0.0366,-0.0244,0,0.0244,-0.05856,-0.09272,-0.10736,-0.10736,-0.08784
-0.02928,0.04148,-0.05368,-0.03904,-0.0244,-0.00244,0.0244,-0.05856,-0.08784,-0.122,-0.0976,-0.08296
-0.02928,0.04148,-0.05368,-0.03904,-0.0244,-0.00244,0.0244,-0.05856,-0.09272,-0.12688,-0.10736,-0.07808
-0.02928,0.04148,-0.05368,-0.03904,-0.0244,-0.00244,0.0244,-0.0732,-0.0976,-0.12688,-0.11224,-0.08784
-0.02928,0.04636,-0.06344,-0.0488,-0.03416,0.00244,0.0244,-0.0732,-0.0976,-0.13176,-0.10736,-0.09272
-0.02928,0.04392,-0.05856,-0.04392,-0.02928,0,0.02928,-0.06344,-0.10248,-0.122,-0.122,-0.08784
-0.02928,0.04392,-0.05856,-0.04392,-0.02928,0,0.02928,-0.06832,-0.10736,-0.12688,-0.12688,-0.09272
-0.02928,0.04392,-0.05856,-0.04392,-0.02928,0,0.0244,-0.06344,-0.11712,-0.12688,-0.12688,-0.10248
-0.02928,0.04392,-0.05856,-0.04392,-0.02928,0,0.0244,-0.06832,-0.11712,-0.12688,-0.122,-0.0976
-0.02928,0.04636,-0.06344,-0.0488,-0.03416,0.00244,0.0244,-0.06832,-0.122,-0.13664,-0.11712,-0.0976
-0.03416,0.0488,-0.06344,-0.04636,-0.02928,-0.00244,0.01952,-0.0732,-0.12688,-0.14152,-0.11712,-0.10248
-0.03416,0.0488,-0.06344,-0.04636,-0.02928,-0.00244,0.01952,-0.0732,-0.11712,-0.14152,-0.12688,-0.09272
-0.03416,0.0488,-0.06344,-0.04636,-0.02928,-0.00244,0.01952,-0.0732,-0.11712,-0.14152,-0.12688,-0.09272
-0.03416,0.0488,-0.06344,-0.04636,-0.02928,-0.00244,0.0244,-0.0732,-0.11712,-0.13176,-0.11712,-0.09272
-0.03416,0.0488,-0.06344,-0.04636,-0.02928,-0.00244,0.0244,-0.0732,-0.11712,-0.12688,-0.11712,-0.09272
-0.02928,0.03904,-0.0488,-0.03416,-0.01952,-0.00488,0.00976,-0.07808,-0.11712,-0.14152,-0.13176,-0.10248
-0.02928,0.03904,-0.0488,-0.03416,-0.01952,-0.00488,0.00976,-0.07808,-0.11712,-0.14152,-0.12688,-0.10248
-0.02928,0.04148,-0.05368,-0.03904,-0.0244,-0.00244,0.00976,-0.07808,-0.122,-0.13176,-0.11712,-0.09272
-0.02928,0.04148,-0.05368,-0.03904,-0.0244,-0.00244,0.00488,-0.07808,-0.122,-0.13176,-0.11712,-0.09272
-0.02928,0.04636,-0.06344,-0.0488,-0.03416,0.00244,0.00976,-0.07808,-0.122,-0.13664,-0.11712,-0.0976
-0.02928,0.0488,-0.06832,-0.05368,-0.03904,0.00488,0.00976,-0.07808,-0.122,-0.13176,-0.11712,-0.0976
-0.0244,0.04392,-0.06344,-0.05124,-0.03904,0.00732,0.00976,-0.07808,-0.122,-0.13176,-0.10736,-0.08784
-0.0244,0.04392,-0.06344,-0.05124,-0.03904,0.00732,0.00488,-0.08296,-0.11712,-0.12688,-0.10736,-0.08784
-0.01464,0.03416,-0.05368,-0.04636,-0.03904,0.0122,0,-0.08296,-0.122,-0.13176,-0.10736,-0.10248
-0.01464,0.03416,-0.05368,-0.04636,-0.03904,0.0122,0,-0.08296,-0.122,-0.13176,-0.11224,-0.10248
-0.0244,0.03904,-0.05368,-0.04148,-0.02928,0.00244,-0.00488,-0.08784,-0.122,-0.13176,-0.11224,-0.08784
-0.01952,0.0366,-0.05368,-0.04392,-0.03416,0.00732,-0.00488,-0.08784,-0.122,-0.13176,-0.11224,-0.08784
-0.01952,0.0366,-0.05368,-0.04392,-0.03416,0.00732,-0.00488,-0.09272,-0.122,-0.13176,-0.122,-0.08784
-0.01952,0.0366,-0.05368,-0.04392,-0.03416,0.00732,-0.00488,-0.09272,-0.122,-0.13176,-0.122,-0.08784
-0.01952,0.03904,-0.05856,-0.0488,-0.03904,0.00976,-0.00976,-0.09272,-0.122,-0.13176,-0.11712,-0.0976
-0.01952,0.03904,-0.05856,-0.0488,-0.03904,0.00976,-0.00976,-0.09272,-0.122,-0.12688,-0.11712,-0.0976
-0.0244,0.03904,-0.05368,-0.04148,-0.02928,0.00244,-0.00976,-0.10248,-0.122,-0.12688,-0.11712,-0.08784
-0.01952,0.0366,-0.05368,-0.04392,-0.03416,0.00732,-0.00976,-0.10248,-0.122,-0.13176,-0.11712,-0.08784
-0.0244,0.04148,-0.05856,-0.04636,-0.03416,0.00488,0,-0.10736,-0.122,-0.13176,-0.11224,-0.0976
-0.01952,0.0366,-0.05368,-0.04392,-0.03416,0.00732,-0.00488,-0.10736,-0.122,-0.13176,-0.11224,-0.09272
-0.01952,0.0366,-0.05368,-0.04392,-0.03416,0.00732,-0.00976,-0.10736,-0.122,-0.13176,-0.11224,-0.09272
-0.0244,0.03904,-0.05368,-0.04148,-0.02928,0.00244,-0.01464,-0.10736,-0.122,-0.13176,-0.10736,-0.09272
-0.0244,0.04148,-0.05856,-0.04636,-0.03416,0.00488,-0.01464,-0.10248,-0.122,-0.122,-0.10736,-0.0976
-0.01952,0.03904,-0.05856,-0.0488,-0.03904,0.00976,-0.01464,-0.0976,-0.122,-0.122,-0.11224,-0.0976
-0.01952,0.03416,-0.0488,-0.03904,-0.02928,0.00488,-0.01952,-0.10248,-0.122,-0.13176,-0.11712,-0.0976
-0.01952,0.03416,-0.0488,-0.03904,-0.02928,0.00488,-0.0244,-0.10248,-0.122,-0.13176,-0.11712,-0.0976
-0.02928,0.04392,-0.05856,-0.04392,-0.02928,0,-0.01464,-0.11224,-0.122,-0.13176,-0.11712,-0.08784
-0.02928,0.04392,-0.05856,-0.04392,-0.02928,0,-0.01952,-0.11224,-0.122,-0.13176,-0.11224,-0.08784
-0.01952,0.03904,-0.05856,-0.0488,-0.03904,0.00976,-0.01464,-0.10736,-0.122,-0.13176,-0.11224,-0.08784
0,0.0244,-0.0488,-0.0488,-0.0488,0.0244,-0.01952,-0.10736,-0.12688,-0.13664,-0.12688,-0.08784
-0.00976,0.03416,-0.05856,-0.05368,-0.0488,0.01952,-0.01952,-0.10736,-0.12688,-0.13664,-0.11712,-0.08784
-0.01952,0.03904,-0.05856,-0.0488,-0.03904,0.00976,-0.01952,-0.10736,-0.12688,-0.13664,-0.11712,-0.08784
-0.02928,0.05124,-0.0732,-0.05856,-0.04392,0.00732,-0.01952,-0.0976,-0.11712,-0.12688,-0.11712,-0.0976
-0.0244,0.04636,-0.06832,-0.05612,-0.04392,0.00976,-0.01952,-0.0976,-0.11712,-0.122,-0.11712,-0.09272
-0.01952,0.03904,-0.05856,-0.0488,-0.03904,0.00976,-0.01464,-0.10736,-0.12688,-0.13176,-0.11712,-0.09272
-0.01952,0.0366,-0.05368,-0.04392,-0.03416,0.00732,-0.00976,-0.10248,-0.12688,-0.13176,-0.11224,-0.09272
-0.01464,0.02928,-0.04392,-0.0366,-0.02928,0.00732,-0.01464,-0.0976,-0.11224,-0.122,-0.11224,-0.09272
-0.01464,0.02928,-0.04392,-0.0366,-0.02928,0.00732,-0.00976,-0.09272,-0.10248,-0.122,-0.10736,-0.08784
-0.00976,0.01708,-0.0244,-0.01952,-0.01464,0.00244,0.00976,-0.0732,-0.0976,-0.10736,-0.10248,-0.0732
0,0.00976,-0.01952,-0.01952,-0.01952,0.00976,0.01952,-0.06344,-0.08784,-0.0976,-0.09272,-0.06344
0.00488,-0.00244,0,-0.00244,-0.00488,0.00488,0.02928,-0.05368,-0.07808,-0.09272,-0.08296,-0.05856
0.00976,-0.00976,0.00976,0.00488,0,0.00488,0.04392,-0.02928,-0.06344,-0.07808,-0.0732,-0.05368
0.00976,-0.00976,0.00976,0.00488,0,0.00488,0.05368,-0.02928,-0.06344,-0.0732,-0.07808,-0.0488
0.01464,-0.01464,0.01464,0.00732,0,0.00732,0.05856,-0.0244,-0.06344,-0.06832,-0.07808,-0.0488
0.01952,-0.0122,0.00488,-0.00488,-0.01464,0.01708,0.0488,-0.0244,-0.06344,-0.07808,-0.0732,-0.0488
0.0244,-0.01464,0.00488,-0.00732,-0.01952,0.02196,0.01464,-0.03904,-0.0732,-0.08296,-0.0732,-0.04392
0.02928,-0.01708,0.00488,-0.00976,-0.0244,0.02684,-0.0244,-0.06832,-0.08296,-0.08784,-0.0732,-0.04392
0.02928,-0.01952,0.00976,-0.00488,-0.01952,0.0244,-0.04392,-0.08784,-0.09272,-0.08784,-0.0732,-0.03904
0.02928,-0.02196,0.01464,0,-0.01464,0.02196,-0.0488,-0.10248,-0.10248,-0.10248,-0.08296,-0.0488
0.02928,-0.02196,0.01464,0,-0.01464,0.02196,-0.05368,-0.11712,-0.11224,-0.10736,-0.08296,-0.0488
0.02928,-0.02196,0.01464,0,-0.01464,0.02196,-0.05856,-0.11712,-0.12688,-0.10248,-0.08296,-0.03416
0.02928,-0.02196,0.01464,0,-0.01464,0.02196,-0.06344,-0.11712,-0.122,-0.10736,-0.07808,-0.03416
0.03416,-0.00976,-0.01464,-0.03172,-0.0488,0.04148,-0.06344,-0.12688,-0.12688,-0.11224,-0.09272,-0.05368
0.03416,0.00244,-0.03904,-0.05612,-0.0732,0.05368,-0.06832,-0.13176,-0.13176,-0.122,-0.10248,-0.05856
0.01952,0.02196,-0.06344,-0.0732,-0.08296,0.05124,-0.05368,-0.13176,-0.14152,-0.14152,-0.11712,-0.0732
0.00488,0.03416,-0.0732,-0.07564,-0.07808,0.04148,-0.05368,-0.13664,-0.15128,-0.1464,-0.122,-0.08296
0.00488,0.0366,-0.07808,-0.08052,-0.08296,0.04392,-0.05368,-0.13664,-0.14152,-0.13176,-0.122,-0.08784
-0.01952,0.0488,-0.07808,-0.06832,-0.05856,0.01952,-0.03904,-0.12688,-0.12688,-0.13176,-0.122,-0.08784
-0.02928,0.0488,-0.06832,-0.05368,-0.03904,0.00488,-0.03416,-0.11712,-0.13664,-0.13176,-0.11224,-0.0976
-0.02928,0.05368,-0.07808,-0.06344,-0.0488,0.00976,-0.03416,-0.11712,-0.14152,-0.14152,-0.122,-0.10248
-0.02928,0.05124,-0.0732,-0.05856,-0.04392,0.00732,-0.0488,-0.13176,-0.14152,-0.1464,-0.13176,-0.10248
-0.02928,0.05612,-0.08296,-0.06832,-0.05368,0.0122,-0.0488,-0.13664,-0.1464,-0.1464,-0.14152,-0.10736
-0.02928,0.05856,-0.08784,-0.0732,-0.05856,0.01464,-0.0488,-0.13664,-0.15616,-0.15128,-0.14152,-0.10736
-0.02928,0.05856,-0.08784,-0.0732,-0.05856,0.01464,-0.0488,-0.13664,-0.15616,-0.15128,-0.14152,-0.10736
-0.03416,0.06344,-0.09272,-0.07564,-0.05856,0.0122,-0.03904,-0.13664,-0.1464,-0.1464,-0.14152,-0.10736
-0.03416,0.06344,-0.09272,-0.07564,-0.05856,0.0122,-0.03904,-0.13664,-0.1464,-0.15128,-0.14152,-0.10736
-0.03416,0.061,-0.08784,-0.07076,-0.05368,0.00976,-0.03904,-0.13664,-0.15128,-0.15128,-0.14152,-0.10248
-0.03416,0.061,-0.08784,-0.07076,-0.05368,0.00976,-0.03904,-0.13176,-0.15128,-0.15128,-0.13664,-0.10248
-0.03416,0.061,-0.08784,-0.07076,-0.05368,0.00976,-0.03416,-0.122,-0.15128,-0.1464,-0.13664,-0.11224
-0.03416,0.061,-0.08784,-0.07076,-0.05368,0.00976,-0.03416,-0.11712,-0.1464,-0.14152,-0.13664,-0.10736
-0.03416,0.05368,-0.0732,-0.05612,-0.03904,0.00244,-0.02928,-0.11712,-0.14152,-0.14152,-0.13664,-0.10248
-0.03416,0.05368,-0.0732,-0.05612,-0.03904,0.00244,-0.01464,-0.08784,-0.122,-0.14152,-0.13664,-0.10248
-0.05368,0.06344,-0.0732,-0.04636,-0.01952,-0.01708,0.03904,-0.03904,-0.0976,-0.12688,-0.12688,-0.10248
-0.0732,0.07076,-0.06832,-0.03172,0.00488,-0.03904,0.10736,0.01952,-0.07808,-0.122,-0.15616,-0.13664
-0.08784,0.08052,-0.0732,-0.02928,0.01464,-0.05124,0.122,0.00976,-0.10248,-0.1464,-0.16104,-0.15128
-0.09272,0.0976,-0.10248,-0.05612,-0.00976,-0.04148,0.13176,-0.0244,-0.15128,-0.20496,-0.20008,-0.1708
-0.04392,0.0488,-0.05368,-0.03172,-0.00976,-0.01708,0.10248,0.01464,-0.09272,-0.13176,-0.12688,-0.10736
0.08784,-0.06832,0.0488,0.00488,-0.03904,0.06344,0.06344,0.10248,0.05856,0.06832,0.05368,0.03416
0.2684,-0.27572,0.28304,0.14884,0.01464,0.12688,0.03416,0.25864,0.2928,0.366,0.32208,0.26352
0.488,-0.54412,0.60024,0.35624,0.11224,0.18788,0.0244,0.59536,0.78568,0.86376,0.73688,0.59536
0.64416,-0.79056,0.93696,0.61488,0.2928,0.17568,-0.0976,0.67832,1.17608,1.30296,1.1224,0.9272
0.81496,-1.0004,1.18584,0.77836,0.37088,0.22204,-0.23424,0.74176,1.66408,1.81536,1.4884,1.21024
0.88816,-1.05896,1.22976,0.78568,0.3416,0.27328,-0.32696,0.95648,2.13256,2.15208,1.67872,1.342
0.82472,-0.99308,1.16144,0.74908,0.33672,0.244,-0.33184,1.098,2.40584,2.2448,1.67872,1.35664
0.57096,-0.75884,0.94672,0.66124,0.37576,0.0976,-0.20496,0.86376,1.85928,1.57624,1.24928,1.10776
0.27816,-0.47824,0.67832,0.53924,0.40016,-0.061,-0.18056,0.20984,0.57096,0.50264,0.6588,0.77592
0.06832,-0.244,0.41968,0.38552,0.35136,-0.14152,-0.40504,-0.6832,-0.2928,-0.03904,0.30256,0.50752
-0.06344,-0.06588,0.1952,0.22692,0.25864,-0.16104,-0.4392,-0.79056,-0.47824,-0.27328,0.01952,0.2196
-0.1464,0.05856,0.02928,0.10248,0.17568,-0.16104,-0.36112,-0.65392,-0.46848,-0.34648,-0.1464,0.00976
-0.1708,0.122,-0.0732,0.0122,0.0976,-0.1342,-0.28304,-0.52704,-0.40504,-0.32208,-0.20496,-0.08784
-0.15616,0.15128,-0.1464,-0.06832,0.00976,-0.08296,-0.23912,-0.42456,-0.35136,-0.30256,-0.23424,-0.1464
-0.11712,0.12932,-0.14152,-0.08296,-0.0244,-0.04636,-0.16104,-0.29768,-0.25864,-0.25864,-0.21472,-0.1464
-0.07808,0.09028,-0.10248,-0.06344,-0.0244,-0.02684,-0.11224,-0.20008,-0.20008,-0.20984,-0.1952,-0.13176
-0.0732,0.0732,-0.0732,-0.0366,0,-0.0366,-0.05368,-0.14152,-0.1708,-0.19032,-0.18056,-0.11712
-0.07808,0.08296,-0.08784,-0.0488,-0.00976,-0.03416,-0.01464,-0.11712,-0.15616,-0.18056,-0.17568,-0.11224
-0.06832,0.08052,-0.09272,-0.05856,-0.0244,-0.02196,0,-0.10248,-0.15128,-0.17568,-0.1708,-0.11224
-0.06832,0.08052,-0.09272,-0.05856,-0.0244,-0.02196,-0.00976,-0.09272,-0.15128,-0.17568,-0.18056,-0.122
-0.06832,0.08784,-0.10736,-0.0732,-0.03904,-0.01464,-0.00976,-0.08784,-0.15128,-0.18056,-0.18056,-0.13176
-0.06344,0.08784,-0.11224,-0.08052,-0.0488,-0.00732,-0.00976,-0.08784,-0.15128,-0.18056,-0.18544,-0.12688
-0.06344,0.08296,-0.10248,-0.07076,-0.03904,-0.0122,-0.00488,-0.08784,-0.15128,-0.18056,-0.18056,-0.12688
-0.06344,0.08296,-0.10248,-0.07076,-0.03904,-0.0122,-0.00488,-0.08784,-0.1464,-0.17568,-0.18056,-0.12688
-0.06832,0.0854,-0.10248,-0.06832,-0.03416,-0.01708,-0.00488,-0.08296,-0.1464,-0.17568,-0.18056,-0.12688
-0.06832,0.0854,-0.10248,-0.06832,-0.03416,-0.01708,0,-0.07808,-0.14152,-0.1708,-0.18056,-0.12688
-0.05856,0.08296,-0.10736,-0.07808,-0.0488,-0.00488,0,-0.07808,-0.14152,-0.1708,-0.18056,-0.13176
-0.05856,0.08052,-0.10248,-0.0732,-0.04392,-0.00732,0,-0.0732,-0.1464,-0.1708,-0.18056,-0.13176
-0.05856,0.08052,-0.10248,-0.0732,-0.04392,-0.00732,0.00976,-0.0732,-0.1464,-0.1708,-0.1708,-0.13176
-0.05856,0.08052,-0.10248,-0.0732,-0.04392,-0.00732,0.00976,-0.0732,-0.1464,-0.1708,-0.17568,-0.13176
-0.05856,0.08296,-0.10736,-0.07808,-0.0488,-0.00488,0,-0.06832,-0.1464,-0.1708,-0.18544,-0.14152
-0.05856,0.08296,-0.10736,-0.07808,-0.0488,-0.00488,0,-0.06832,-0.1464,-0.1708,-0.18544,-0.14152
-0.05856,0.08296,-0.10736,-0.07808,-0.0488,-0.00488,0.01464,-0.06344,-0.1464,-0.17568,-0.19032,-0.14152
-0.05856,0.08296,-0.10736,-0.07808,-0.0488,-0.00488,0.01464,-0.06344,-0.1464,-0.17568,-0.1952,-0.1464
-0.05856,0.08296,-0.10736,-0.07808,-0.0488,-0.00488,0.00488,-0.06344,-0.15128,-0.17568,-0.18544,-0.1464
-0.06344,0.0854,-0.10736,-0.07564,-0.04392,-0.00976,0.00976,-0.05856,-0.15128,-0.17568,-0.19032,-0.1464
-0.0732,0.09272,-0.11224,-0.07564,-0.03904,-0.01708,0.01952,-0.05856,-0.1464,-0.18056,-0.19032,-0.13664
-0.0732,0.09272,-0.11224,-0.07564,-0.03904,-0.01708,0.0244,-0.05368,-0.14152,-0.18056,-0.19032,-0.13664
-0.06344,0.08784,-0.11224,-0.08052,-0.0488,-0.00732,0.01952,-0.0488,-0.14152,-0.18056,-0.19032,-0.13664
-0.06344,0.08784,-0.11224,-0.08052,-0.0488,-0.00732,0.01952,-0.0488,-0.1464,-0.17568,-0.19032,-0.13664
-0.06344,0.08296,-0.10248,-0.07076,-0.03904,-0.0122,0.01952,-0.05856,-0.1464,-0.18056,-0.19032,-0.1464
-0.06344,0.08296,-0.10248,-0.07076,-0.03904,-0.0122,0.0244,-0.05368,-0.14152,-0.18056,-0.19032,-0.1464
-0.06344,0.08784,-0.11224,-0.08052,-0.0488,-0.00732,0.03416,-0.04392,-0.14152,-0.18056,-0.1952,-0.13664
-0.06832,0.09028,-0.11224,-0.07808,-0.04392,-0.0122,0.03904,-0.03416,-0.14152,-0.18056,-0.1952,-0.13664
-0.07808,0.09516,-0.11224,-0.0732,-0.03416,-0.02196,0.03904,-0.03416,-0.14152,-0.1708,-0.1952,-0.14152
-0.07808,0.09272,-0.10736,-0.06832,-0.02928,-0.0244,0.0488,-0.02928,-0.13176,-0.1708,-0.1952,-0.14152
-0.07808,0.09516,-0.11224,-0.0732,-0.03416,-0.02196,0.04392,-0.01464,-0.12688,-0.17568,-0.19032,-0.13664
-0.07808,0.09516,-0.11224,-0.0732,-0.03416,-0.02196,0.05368,-0.00488,-0.12688,-0.1708,-0.19032,-0.13664
-0.06832,0.09028,-0.11224,-0.07808,-0.04392,-0.0122,0.05368,0,-0.11224,-0.16592,-0.18544,-0.14152
-0.06832,0.08784,-0.10736,-0.0732,-0.03904,-0.01464,0.05856,0.00976,-0.10736,-0.16592,-0.18544,-0.14152
-0.06344,0.08052,-0.0976,-0.06588,-0.03416,-0.01464,0.06832,0.0244,-0.0976,-0.16104,-0.18056,-0.13664
-0.06344,0.08052,-0.0976,-0.06588,-0.03416,-0.01464,0.0732,0.03416,-0.08784,-0.15128,-0.18056,-0.13664
-0.06832,0.08052,-0.09272,-0.05856,-0.0244,-0.02196,0.08296,0.05856,-0.07808,-0.13176,-0.16592,-0.122
-0.06344,0.0732,-0.08296,-0.05124,-0.01952,-0.02196,0.08784,0.06832,-0.06832,-0.12688,-0.16592,-0.122
-0.06344,0.0732,-0.08296,-0.05124,-0.01952,-0.02196,0.0976,0.08784,-0.0488,-0.11712,-0.15616,-0.11224
-0.05856,0.06588,-0.0732,-0.04392,-0.01464,-0.02196,0.10248,0.10736,-0.02928,-0.10248,-0.15128,-0.11224
-0.05856,0.06588,-0.0732,-0.04392,-0.01464,-0.02196,0.11224,0.12688,-0.00976,-0.08784,-0.13176,-0.0976
-0.05856,0.05856,-0.05856,-0.02928,0,-0.02928,0.122,0.15128,0.00976,-0.0732,-0.122,-0.08784
-0.05368,0.05368,-0.05368,-0.02684,0,-0.02684,0.13176,0.1708,0.02928,-0.05368,-0.11224,-0.08296
-0.0488,0.04636,-0.04392,-0.01952,0.00488,-0.02684,0.13176,0.19032,0.05856,-0.03904,-0.10736,-0.0732
-0.05368,0.04392,-0.03416,-0.00732,0.01952,-0.0366,0.1464,0.21472,0.0976,-0.00976,-0.08296,-0.06344
-0.0488,0.03416,-0.01952,0.00488,0.02928,-0.03904,0.15128,0.23912,0.122,0.01464,-0.07808,-0.05368
-0.03416,0.01708,0,0.01708,0.03416,-0.03416,0.16104,0.27816,0.14152,0.03904,-0.05368,-0.03904
-0.0244,0.00488,0.01464,0.02684,0.03904,-0.03172,0.1708,0.29768,0.18056,0.06344,-0.03416,-0.0244
-0.01464,-0.00244,0.01952,0.02684,0.03416,-0.0244,0.16104,0.30744,0.20496,0.08296,-0.01952,-0.01464
-0.01464,-0.00732,0.02928,0.0366,0.04392,-0.02928,0.16592,0.33184,0.23424,0.11224,-0.00488,0
-0.00976,-0.01708,0.04392,0.0488,0.05368,-0.03172,0.1708,0.35624,0.25376,0.122,0.00488,0.01464
-0.00488,-0.0244,0.05368,0.05612,0.05856,-0.03172,0.1708,0.37088,0.28304,0.15128,0.0244,0.03416
-0.00488,-0.03416,0.0732,0.07564,0.07808,-0.04148,0.18544,0.3904,0.32696,0.1708,0.05368,0.04392
0.00976,-0.04636,0.08296,0.07808,0.0732,-0.03172,0.19032,0.40992,0.34648,0.1952,0.06344,0.05368
0.0244,-0.05856,0.09272,0.08052,0.06832,-0.02196,0.19032,0.41968,0.35624,0.21472,0.08296,0.06832
0.03416,-0.07076,0.10736,0.09028,0.0732,-0.01952,0.19032,0.42456,0.38064,0.23424,0.10248,0.08296
0.03416,-0.07808,0.122,0.10492,0.08784,-0.02684,0.18056,0.41968,0.38552,0.244,0.11224,0.09272
0.03904,-0.08296,0.12688,0.10736,0.08784,-0.0244,0.17568,0.40992,0.38064,0.244,0.11224,0.0976
0.03904,-0.08296,0.12688,0.10736,0.08784,-0.0244,0.17568,0.38552,0.35624,0.244,0.10736,0.0976
0.0488,-0.09028,0.13176,0.10736,0.08296,-0.01708,0.16592,0.35624,0.33184,0.22936,0.10736,0.0976
0.0488,-0.0854,0.122,0.0976,0.0732,-0.0122,0.15616,0.3172,0.28792,0.1952,0.09272,0.07808
0.0488,-0.08052,0.11224,0.08784,0.06344,-0.00732,0.1464,0.27816,0.25376,0.1708,0.0732,0.06832
0.03416,-0.07076,0.10736,0.09028,0.0732,-0.01952,0.13176,0.244,0.22448,0.15128,0.05856,0.05856
0.03416,-0.06588,0.0976,0.08052,0.06344,-0.01464,0.122,0.20496,0.18544,0.122,0.04392,0.04392
0.02928,-0.05368,0.07808,0.06344,0.0488,-0.00976,0.10248,0.16592,0.15128,0.09272,0.01952,0.02928
0.02928,-0.0488,0.06832,0.05368,0.03904,-0.00488,0.08784,0.13176,0.10736,0.06344,0,0.01952
0.01952,-0.03416,0.0488,0.03904,0.02928,-0.00488,0.07808,0.11224,0.07808,0.03904,-0.01952,-0.00488
0.01464,-0.02928,0.04392,0.0366,0.02928,-0.00732,0.06344,0.07808,0.0488,0.01464,-0.04392,-0.01464
0.01464,-0.02196,0.02928,0.02196,0.01464,0,0.05368,0.0488,0.01952,-0.00488,-0.04392,-0.01952
0.00488,-0.0122,0.01952,0.01708,0.01464,-0.00488,0.04392,0.03416,0.00488,-0.0244,-0.0488,-0.0244
0.00488,-0.0122,0.01952,0.01708,0.01464,-0.00488,0.04392,0.00976,-0.00976,-0.02928,-0.0732,-0.03416
0.00488,-0.00732,0.00976,0.00732,0.00488,0,0.03904,-0.00976,-0.0244,-0.03416,-0.08296,-0.04392
-0.01464,0.00488,0.00488,0.0122,0.01952,-0.01708,0.02928,-0.01952,-0.03416,-0.04392,-0.07808,-0.04392
-0.01464,0.00488,0.00488,0.0122,0.01952,-0.01708,0.0244,-0.0244,-0.04392,-0.05856,-0.08296,-0.0488
-0.00488,0.00244,0,0.00244,0.00488,-0.00488,0.0244,-0.0244,-0.0488,-0.06832,-0.08784,-0.05368
-0.00976,0.00732,-0.00488,0,0.00488,-0.00732,0.01952,-0.03416,-0.05856,-0.06832,-0.0976,-0.05856
-0.00976,0.01708,-0.0244,-0.01952,-0.01464,0.00244,0.01952,-0.03904,-0.05368,-0.06832,-0.0976,-0.05856
-0.01464,0.01952,-0.0244,-0.01708,-0.00976,-0.00244,0.01952,-0.03904,-0.05856,-0.0732,-0.10248,-0.06344
-0.00488,0.00976,-0.01464,-0.0122,-0.00976,0.00244,0.00976,-0.04392,-0.06832,-0.08296,-0.11224,-0.06344
-0.00488,0.0122,-0.01952,-0.01708,-0.01464,0.00488,0.00976,-0.0488,-0.07808,-0.07808,-0.11712,-0.06832
-0.01952,0.01952,-0.01952,-0.00976,0,-0.00976,0.01952,-0.04392,-0.08296,-0.08784,-0.10736,-0.06832
-0.01952,0.02196,-0.0244,-0.01464,-0.00488,-0.00732,0.01952,-0.04392,-0.08296,-0.08784,-0.11224,-0.06832
-0.00976,0.01708,-0.0244,-0.01952,-0.01464,0.00244,0.00488,-0.0488,-0.08784,-0.0976,-0.11712,-0.0732
-0.00976,0.01708,-0.0244,-0.01952,-0.01464,0.00244,0.00488,-0.05368,-0.09272,-0.0976,-0.12688,-0.0732
-0.00976,0.01952,-0.02928,-0.0244,-0.01952,0.00488,0.00488,-0.06832,-0.09272,-0.10248,-0.11712,-0.0732
-0.01464,0.02196,-0.02928,-0.02196,-0.01464,0,0.00488,-0.06344,-0.09272,-0.10248,-0.122,-0.07808
-0.0244,0.03172,-0.03904,-0.02684,-0.01464,-0.00488,0.00488,-0.06832,-0.0976,-0.10248,-0.122,-0.07808
-0.0244,0.03416,-0.04392,-0.03172,-0.01952,-0.00244,0.00488,-0.06832,-0.10248,-0.10736,-0.12688,-0.08296
-0.01952,0.02684,-0.03416,-0.0244,-0.01464,-0.00244,0.00488,-0.06832,-0.11224,-0.10248,-0.13176,-0.08784
-0.01952,0.02684,-0.03416,-0.0244,-0.01464,-0.00244,0.00488,-0.0732,-0.11224,-0.10736,-0.14152,-0.0976
-0.02928,0.0366,-0.04392,-0.02928,-0.01464,-0.00732,0.00488,-0.08296,-0.11712,-0.122,-0.13664,-0.09272
-0.02928,0.03416,-0.03904,-0.0244,-0.00976,-0.00976,0,-0.08296,-0.122,-0.122,-0.14152,-0.08784
-0.02928,0.03416,-0.03904,-0.0244,-0.00976,-0.00976,0,-0.07808,-0.122,-0.12688,-0.14152,-0.0976
-0.02928,0.03416,-0.03904,-0.0244,-0.00976,-0.00976,0.00488,-0.07808,-0.12688,-0.12688,-0.1464,-0.10248
-0.03904,0.04392,-0.0488,-0.02928,-0.00976,-0.01464,0.00488,-0.07808,-0.12688,-0.12688,-0.1464,-0.09272
-0.03904,0.04636,-0.05368,-0.03416,-0.01464,-0.0122,0.00488,-0.07808,-0.13176,-0.12688,-0.14152,-0.08784
-0.02928,0.0366,-0.04392,-0.02928,-0.01464,-0.00732,0,-0.08296,-0.13176,-0.13176,-0.1464,-0.10248
-0.03416,0.03904,-0.04392,-0.02684,-0.00976,-0.0122,0,-0.08296,-0.13664,-0.13176,-0.1464,-0.10248
-0.03416,0.03904,-0.04392,-0.02684,-0.00976,-0.0122,0,-0.08296,-0.13664,-0.13176,-0.1464,-0.10248
-0.03416,0.03904,-0.04392,-0.02684,-0.00976,-0.0122,0,-0.08296,-0.13664,-0.13176,-0.1464,-0.10248
-0.03416,0.03904,-0.04392,-0.02684,-0.00976,-0.0122,0.00488,-0.08296,-0.13664,-0.13176,-0.1464,-0.09272
-0.02928,0.03416,-0.03904,-0.0244,-0.00976,-0.00976,0.00488,-0.08296,-0.13664,-0.12688,-0.1464,-0.09272
-0.02928,0.03416,-0.03904,-0.0244,-0.00976,-0.00976,0,-0.08784,-0.13664,-0.13176,-0.15128,-0.09272
-0.02928,0.03416,-0.03904,-0.0244,-0.00976,-0.00976,0,-0.08784,-0.13664,-0.13176,-0.1464,-0.09272
-0.02928,0.03172,-0.03416,-0.01952,-0.00488,-0.0122,-0.00488,-0.08784,-0.13176,-0.14152,-0.1464,-0.09272
-0.02928,0.03172,-0.03416,-0.01952,-0.00488,-0.0122,0,-0.08784,-0.13176,-0.13664,-0.14152,-0.09272
-0.02928,0.03172,-0.03416,-0.01952,-0.00488,-0.0122,-0.00976,-0.08784,-0.13176,-0.122,-0.1464,-0.08784
-0.0244,0.03172,-0.03904,-0.02684,-0.01464,-0.00488,-0.00976,-0.08784,-0.13176,-0.122,-0.1464,-0.08784
-0.0244,0.03416,-0.04392,-0.03172,-0.01952,-0.00244,-0.00976,-0.08784,-0.13176,-0.12688,-0.13664,-0.0976
-0.0244,0.03416,-0.04392,-0.03172,-0.01952,-0.00244,-0.01464,-0.09272,-0.12688,-0.12688,-0.13664,-0.0976
-0.0244,0.02928,-0.03416,-0.02196,-0.00976,-0.00732,-0.00976,-0.09272,-0.13176,-0.122,-0.14152,-0.09272
-0.0244,0.02928,-0.03416,-0.02196,-0.00976,-0.00732,-0.01464,-0.0976,-0.13176,-0.122,-0.14152,-0.08784
-0.0244,0.02928,-0.03416,-0.02196,-0.00976,-0.00732,-0.01464,-0.0976,-0.13176,-0.122,-0.14152,-0.08784
-0.01952,0.02684,-0.03416,-0.0244,-0.01464,-0.00244,-0.01464,-0.10248,-0.13176,-0.122,-0.14152,-0.08784
-0.01952,0.02684,-0.03416,-0.0244,-0.01464,-0.00244,-0.0244,-0.10248,-0.13176,-0.13176,-0.14152,-0.0976
-0.01952,0.02684,-0.03416,-0.0244,-0.01464,-0.00244,-0.02928,-0.10248,-0.13176,-0.13176,-0.1464,-0.0976
-0.01952,0.02928,-0.03904,-0.02928,-0.01952,0,-0.01952,-0.10248,-0.14152,-0.13176,-0.1464,-0.0976
-0.0244,0.02928,-0.03416,-0.02196,-0.00976,-0.00732,-0.01952,-0.10248,-0.14152,-0.12688,-0.1464,-0.0976
-0.03416,0.03416,-0.03416,-0.01708,0,-0.01708,-0.02928,-0.11224,-0.13176,-0.13176,-0.1464,-0.0976
-0.02928,0.03416,-0.03904,-0.0244,-0.00976,-0.00976,-0.02928,-0.11224,-0.13176,-0.13176,-0.14152,-0.0976
-0.0244,0.02928,-0.03416,-0.02196,-0.00976,-0.00732,-0.03416,-0.10736,-0.13176,-0.122,-0.14152,-0.08784
-0.01952,0.02684,-0.03416,-0.0244,-0.01464,-0.00244,-0.03416,-0.10736,-0.13176,-0.122,-0.14152,-0.08296
-0.00976,0.02196,-0.03416,-0.02928,-0.0244,0.00732,-0.02928,-0.10736,-0.13176,-0.13176,-0.13664,-0.08296
-0.01464,0.02684,-0.03904,-0.03172,-0.0244,0.00488,-0.03416,-0.10736,-0.13176,-0.13176,-0.13664,-0.08784
-0.01952,0.0244,-0.02928,-0.01952,-0.00976,-0.00488,-0.03416,-0.11224,-0.14152,-0.13176,-0.14152,-0.08784
-0.01952,0.0244,-0.02928,-0.01952,-0.00976,-0.00488,-0.03416,-0.10736,-0.14152,-0.13176,-0.14152,-0.08784
-0.00976,0.01952,-0.02928,-0.0244,-0.01952,0.00488,-0.03904,-0.11224,-0.14152,-0.13176,-0.1464,-0.0976
-0.00976,0.01952,-0.02928,-0.0244,-0.01952,0.00488,-0.04392,-0.11224,-0.14152,-0.13176,-0.1464,-0.0976
-0.01952,0.0244,-0.02928,-0.01952,-0.00976,-0.00488,-0.03904,-0.11224,-0.13176,-0.122,-0.14152,-0.0976
-0.00976,0.0244,-0.03904,-0.03416,-0.02928,0.00976,-0.03904,-0.10736,-0.1464,-0.12688,-0.1464,-0.0976
-0.01952,0.02928,-0.03904,-0.02928,-0.01952,0,-0.03904,-0.11712,-0.13664,-0.12688,-0.1464,-0.0976
-0.01952,0.02928,-0.03904,-0.02928,-0.01952,0,-0.03904,-0.11712,-0.13664,-0.12688,-0.1464,-0.0976
-0.01952,0.02684,-0.03416,-0.0244,-0.01464,-0.00244,-0.03904,-0.11712,-0.13664,-0.12688,-0.1464,-0.08784
-0.01464,0.02196,-0.02928,-0.02196,-0.01464,0,-0.03904,-0.11712,-0.13664,-0.122,-0.1464,-0.08296
-0.00976,0.01952,-0.02928,-0.0244,-0.01952,0.00488,-0.03416,-0.10736,-0.13664,-0.122,-0.1464,-0.08296
-0.00976,0.01708,-0.0244,-0.01952,-0.01464,0.00244,-0.02928,-0.10248,-0.13664,-0.122,-0.14152,-0.08296
-0.00488,0.00976,-0.01464,-0.0122,-0.00976,0.00244,-0.0244,-0.0976,-0.13176,-0.122,-0.14152,-0.09272
-0.00488,0.00976,-0.01464,-0.0122,-0.00976,0.00244,-0.01952,-0.09272,-0.122,-0.122,-0.13664,-0.08784
0,0.00244,-0.00488,-0.00488,-0.00488,0.00244,-0.00976,-0.09272,-0.11712,-0.10736,-0.122,-0.0732
0.00976,-0.00488,0,-0.00488,-0.00976,0.00976,0,-0.08296,-0.10736,-0.0976,-0.11224,-0.06344
0.01464,-0.01708,0.01952,0.0122,0.00488,0.00488,0.00976,-0.06344,-0.0976,-0.09272,-0.10248,-0.05856
0.01952,-0.0244,0.02928,0.01952,0.00976,0.00488,0.0244,-0.03904,-0.08296,-0.07808,-0.09272,-0.05368
0.01952,-0.0244,0.02928,0.01952,0.00976,0.00488,0.03416,-0.02928,-0.0732,-0.0732,-0.0976,-0.0488
0.0244,-0.02928,0.03416,0.02196,0.00976,0.00732,0.03904,-0.0244,-0.0732,-0.06832,-0.0976,-0.0488
0.02928,-0.03172,0.03416,0.01952,0.00488,0.0122,0.01952,-0.03416,-0.0732,-0.07808,-0.10248,-0.05856
0.03416,-0.03416,0.03416,0.01708,0,0.01708,-0.01464,-0.0488,-0.08296,-0.08296,-0.10248,-0.05368
0.03904,-0.03172,0.0244,0.00488,-0.01464,0.02684,-0.04392,-0.07808,-0.10248,-0.08784,-0.10248,-0.04392
0.03904,-0.03416,0.02928,0.00976,-0.00976,0.0244,-0.06344,-0.0976,-0.11224,-0.08784,-0.10248,-0.03904
0.02928,-0.03172,0.03416,0.01952,0.00488,0.0122,-0.05856,-0.10248,-0.122,-0.09272,-0.10248,-0.03904
0.02928,-0.03172,0.03416,0.01952,0.00488,0.0122,-0.06344,-0.11712,-0.13176,-0.0976,-0.10248,-0.03904
0.03904,-0.04148,0.04392,0.0244,0.00488,0.01708,-0.07808,-0.12688,-0.12688,-0.10248,-0.10248,-0.04392
0.03904,-0.04148,0.04392,0.0244,0.00488,0.01708,-0.08296,-0.12688,-0.122,-0.10736,-0.0976,-0.04392
0.04392,-0.02928,0.01464,-0.00732,-0.02928,0.0366,-0.0732,-0.12688,-0.13664,-0.11224,-0.122,-0.05368
0.04392,-0.01708,-0.00976,-0.03172,-0.05368,0.0488,-0.07808,-0.13176,-0.14152,-0.122,-0.13176,-0.05856
0.02928,-0.00244,-0.0244,-0.03904,-0.05368,0.04148,-0.0732,-0.14152,-0.15128,-0.13176,-0.1464,-0.0732
0.01464,0.00976,-0.03416,-0.04148,-0.0488,0.03172,-0.0732,-0.1464,-0.16104,-0.13664,-0.15128,-0.08296
0.00488,0.02196,-0.0488,-0.05124,-0.05368,0.02928,-0.0732,-0.1464,-0.15128,-0.13176,-0.14152,-0.07808
-0.01952,0.03416,-0.0488,-0.03904,-0.02928,0.00488,-0.05856,-0.13664,-0.13664,-0.13176,-0.14152,-0.07808
-0.02928,0.03904,-0.0488,-0.03416,-0.01952,-0.00488,-0.05368,-0.13664,-0.1464,-0.14152,-0.15128,-0.0976
-0.02928,0.04392,-0.05856,-0.04392,-0.02928,0,-0.05368,-0.13664,-0.16104,-0.15128,-0.16104,-0.10248
-0.02928,0.04636,-0.06344,-0.0488,-0.03416,0.00244,-0.06832,-0.14152,-0.16104,-0.15616,-0.16104,-0.09272
-0.02928,0.05124,-0.0732,-0.05856,-0.04392,0.00732,-0.06832,-0.1464,-0.16592,-0.15616,-0.1708,-0.0976
-0.01952,0.04392,-0.06832,-0.05856,-0.0488,0.01464,-0.06832,-0.1464,-0.16592,-0.15128,-0.1708,-0.10736
-0.01952,0.04392,-0.06832,-0.05856,-0.0488,0.01464,-0.06832,-0.1464,-0.16592,-0.15128,-0.1708,-0.10736
-0.03416,0.05368,-0.0732,-0.05612,-0.03904,0.00244,-0.06832,-0.1464,-0.16592,-0.1464,-0.16104,-0.10736
-0.03416,0.05368,-0.0732,-0.05612,-0.03904,0.00244,-0.06832,-0.1464,-0.16592,-0.15128,-0.16104,-0.10736
-0.03416,0.04636,-0.05856,-0.04148,-0.0244,-0.00488,-0.06832,-0.1464,-0.16104,-0.16104,-0.16104,-0.10248
-0.03416,0.04636,-0.05856,-0.04148,-0.0244,-0.00488,-0.06832,-0.14152,-0.16104,-0.16104,-0.15616,-0.10248
-0.0244,0.04636,-0.06832,-0.05612,-0.04392,0.00976,-0.05368,-0.14152,-0.16104,-0.1464,-0.15616,-0.10248
-0.0244,0.04636,-0.06832,-0.05612,-0.04392,0.00976,-0.05368,-0.13664,-0.15616,-0.14152,-0.15616,-0.0976
-0.03416,0.0488,-0.06344,-0.04636,-0.02928,-0.00244,-0.0488,-0.12688,-0.15128,-0.14152,-0.15616,-0.09272
-0.03416,0.0488,-0.06344,-0.04636,-0.02928,-0.00244,-0.0244,-0.0976,-0.13176,-0.14152,-0.1464,-0.09272
-0.03416,0.04392,-0.05368,-0.0366,-0.01952,-0.00732,0.01952,-0.05856,-0.11712,-0.13664,-0.15616,-0.11224
-0.06344,0.05612,-0.0488,-0.01708,0.01464,-0.03904,0.0976,0.01952,-0.08784,-0.13176,-0.15616,-0.11712
-0.07808,0.06588,-0.05368,-0.01464,0.0244,-0.05124,0.122,0,-0.11224,-0.13664,-0.1708,-0.13176
-0.09272,0.08296,-0.0732,-0.02684,0.01952,-0.05612,0.122,-0.03416,-0.14152,-0.18544,-0.20984,-0.16104
-0.0244,0.01952,-0.01464,-0.00244,0.00976,-0.01708,0.08296,0.00488,-0.10248,-0.11224,-0.13664,-0.0976
0.11712,-0.09272,0.06832,0.00976,-0.0488,0.08296,0.03416,0.08296,0.03904,0.05856,0.03416,0.03416
0.2684,-0.2806,0.2928,0.1586,0.0244,0.122,-0.00488,0.23912,0.27328,0.35624,0.30256,0.27328
0.488,-0.55388,0.61976,0.37576,0.13176,0.17812,-0.01464,0.55632,0.7564,0.854,0.71736,0.61488
0.6832,-0.81496,0.94672,0.60512,0.26352,0.20984,-0.12688,0.64904,1.13704,1.2932,1.08336,0.91744
0.84424,-1.01504,1.18584,0.76372,0.3416,0.25132,-0.23424,0.732,1.60552,1.76656,1.44936,1.20048
0.91744,-1.07848,1.23952,0.7808,0.32208,0.29768,-0.33672,0.95648,2.04472,2.074,1.62016,1.35176
0.84424,-1.00772,1.1712,0.74908,0.32696,0.25864,-0.32208,1.098,2.318,2.17648,1.6104,1.34688
0.58072,-0.76372,0.94672,0.65636,0.366,0.10736,-0.21472,0.86376,1.74216,1.45912,1.15168,1.07848
0.29768,-0.49288,0.68808,0.53924,0.3904,-0.04636,-0.20008,0.19032,0.5124,0.44408,0.61,0.7564
0.07808,-0.25864,0.4392,0.40016,0.36112,-0.14152,-0.4148,-0.6832,-0.2928,-0.05856,0.27328,0.50752
-0.0732,-0.06588,0.20496,0.24156,0.27816,-0.17568,-0.42944,-0.7808,-0.45872,-0.26352,-0.00976,0.2196
-0.13664,0.04392,0.0488,0.11712,0.18544,-0.16104,-0.36112,-0.65392,-0.45872,-0.33672,-0.17568,0.01952
-0.15128,0.10248,-0.05368,0.02196,0.0976,-0.12444,-0.30256,-0.52704,-0.40504,-0.32208,-0.21472,-0.08784
-0.1464,0.1464,-0.1464,-0.0732,0,-0.0732,-0.25864,-0.42456,-0.35136,-0.30256,-0.244,-0.13664
-0.12688,0.11468,-0.10248,-0.03904,0.0244,-0.07564,-0.16104,-0.30744,-0.27816,-0.25864,-0.23424,-0.13664
-0.08784,0.09028,-0.09272,-0.0488,-0.00488,-0.04148,-0.11224,-0.20984,-0.20984,-0.2196,-0.20496,-0.122
-0.06344,0.05856,-0.05368,-0.02196,0.00976,-0.0366,-0.0732,-0.16104,-0.19032,-0.19032,-0.19032,-0.11712
-0.05856,0.06344,-0.06832,-0.03904,-0.00976,-0.0244,-0.0244,-0.11712,-0.16592,-0.1708,-0.17568,-0.10248
-0.06832,0.07564,-0.08296,-0.0488,-0.01464,-0.02684,-0.00976,-0.11224,-0.16104,-0.17568,-0.18056,-0.11224
-0.06832,0.07564,-0.08296,-0.0488,-0.01464,-0.02684,-0.01952,-0.10248,-0.16104,-0.17568,-0.19032,-0.122
-0.05856,0.0732,-0.08784,-0.05856,-0.02928,-0.01464,-0.01952,-0.0976,-0.15128,-0.18056,-0.19032,-0.13176
-0.05368,0.0732,-0.09272,-0.06588,-0.03904,-0.00732,-0.01952,-0.0976,-0.15128,-0.18056,-0.1952,-0.12688
-0.05368,0.0732,-0.09272,-0.06588,-0.03904,-0.00732,-0.01464,-0.0976,-0.16104,-0.19032,-0.19032,-0.12688
-0.05368,0.0732,-0.09272,-0.06588,-0.03904,-0.00732,-0.01464,-0.0976,-0.15616,-0.18544,-0.19032,-0.12688
-0.05856,0.07564,-0.09272,-0.06344,-0.03416,-0.0122,-0.01464,-0.09272,-0.15616,-0.17568,-0.18056,-0.11712
-0.05856,0.07564,-0.09272,-0.06344,-0.03416,-0.0122,-0.00976,-0.08784,-0.15128,-0.1708,-0.18056,-0.11712
-0.05856,0.07808,-0.0976,-0.06832,-0.03904,-0.00976,0,-0.08784,-0.14152,-0.1708,-0.19032,-0.11224
-0.05856,0.07564,-0.09272,-0.06344,-0.03416,-0.0122,0,-0.08296,-0.1464,-0.1708,-0.19032,-0.11224
-0.0488,0.07076,-0.09272,-0.06832,-0.04392,-0.00244,-0.00976,-0.09272,-0.15616,-0.18056,-0.19032,-0.122
-0.0488,0.07076,-0.09272,-0.06832,-0.04392,-0.00244,-0.00976,-0.09272,-0.15616,-0.18056,-0.1952,-0.122
-0.05856,0.0732,-0.08784,-0.05856,-0.02928,-0.01464,-0.00976,-0.07808,-0.15616,-0.18056,-0.1952,-0.13176
-0.05856,0.0732,-0.08784,-0.05856,-0.02928,-0.01464,-0.00976,-0.07808,-0.15616,-0.18056,-0.1952,-0.13176
-0.05856,0.0732,-0.08784,-0.05856,-0.02928,-0.01464,-0.01464,-0.08296,-0.15616,-0.17568,-0.20008,-0.13176
-0.05856,0.0732,-0.08784,-0.05856,-0.02928,-0.01464,-0.01464,-0.08296,-0.15616,-0.17568,-0.20496,-0.13664
-0.05856,0.07808,-0.0976,-0.06832,-0.03904,-0.00976,-0.00488,-0.0732,-0.15128,-0.17568,-0.1952,-0.12688
-0.06344,0.08052,-0.0976,-0.06588,-0.03416,-0.01464,0,-0.06832,-0.15128,-0.17568,-0.20008,-0.12688
-0.0732,0.08784,-0.10248,-0.06588,-0.02928,-0.02196,0.00976,-0.06832,-0.15616,-0.18056,-0.20008,-0.12688
-0.0732,0.08784,-0.10248,-0.06588,-0.02928,-0.02196,0.01464,-0.06344,-0.15128,-0.18056,-0.20008,-0.12688
-0.06344,0.07808,-0.09272,-0.061,-0.02928,-0.01708,0.00976,-0.05856,-0.15128,-0.18056,-0.19032,-0.12688
-0.05368,0.0732,-0.09272,-0.06588,-0.03904,-0.00732,0.00976,-0.05856,-0.15616,-0.17568,-0.19032,-0.12688
-0.06344,0.07808,-0.09272,-0.061,-0.02928,-0.01708,0.01952,-0.05856,-0.1464,-0.18056,-0.20008,-0.12688
-0.06344,0.07808,-0.09272,-0.061,-0.02928,-0.01708,0.0244,-0.05368,-0.14152,-0.18056,-0.20008,-0.12688
-0.0732,0.08296,-0.09272,-0.05612,-0.01952,-0.02684,0.0244,-0.06344,-0.15128,-0.18056,-0.20496,-0.12688
-0.07808,0.0854,-0.09272,-0.05368,-0.01464,-0.03172,0.02928,-0.05368,-0.15128,-0.18056,-0.20496,-0.12688
-0.06832,0.08052,-0.09272,-0.05856,-0.0244,-0.02196,0.02928,-0.04392,-0.15128,-0.18056,-0.1952,-0.13176
-0.06832,0.07808,-0.08784,-0.05368,-0.01952,-0.0244,0.03904,-0.03904,-0.14152,-0.18056,-0.1952,-0.13176
-0.06832,0.08052,-0.09272,-0.05856,-0.0244,-0.02196,0.03416,-0.0244,-0.13664,-0.17568,-0.19032,-0.12688
-0.06832,0.08052,-0.09272,-0.05856,-0.0244,-0.02196,0.04392,-0.01464,-0.13664,-0.1708,-0.19032,-0.12688
-0.06832,0.0854,-0.10248,-0.06832,-0.03416,-0.01708,0.04392,-0.00976,-0.11224,-0.16592,-0.18544,-0.122
-0.06832,0.08296,-0.0976,-0.06344,-0.02928,-0.01952,0.0488,0,-0.10736,-0.16592,-0.18544,-0.122
-0.0732,0.08052,-0.08784,-0.05124,-0.01464,-0.02928,0.05856,0.01464,-0.0976,-0.16104,-0.1708,-0.11712
-0.0732,0.08052,-0.08784,-0.05124,-0.01464,-0.02928,0.06344,0.0244,-0.08784,-0.15128,-0.1708,-0.11712
-0.06832,0.08052,-0.09272,-0.05856,-0.0244,-0.02196,0.0732,0.03904,-0.07808,-0.14152,-0.15616,-0.11224
-0.06344,0.0732,-0.08296,-0.05124,-0.01952,-0.02196,0.07808,0.0488,-0.06832,-0.13664,-0.15616,-0.11224
-0.0732,0.0732,-0.0732,-0.0366,0,-0.0366,0.0976,0.07808,-0.0488,-0.11712,-0.15616,-0.09272
-0.06832,0.06588,-0.06344,-0.02928,0.00488,-0.0366,0.10248,0.0976,-0.02928,-0.10248,-0.15128,-0.09272
-0.06832,0.07076,-0.0732,-0.03904,-0.00488,-0.03172,0.10248,0.11712,-0.00976,-0.08784,-0.14152,-0.07808
-0.06832,0.06344,-0.05856,-0.0244,0.00976,-0.03904,0.11224,0.14152,0.00976,-0.0732,-0.13176,-0.06832
-0.06344,0.05856,-0.05368,-0.02196,0.00976,-0.0366,0.122,0.16104,0.02928,-0.05368,-0.11224,-0.06344
-0.05856,0.05124,-0.04392,-0.01464,0.01464,-0.0366,0.122,0.18056,0.05856,-0.03904,-0.10736,-0.05368
-0.04392,0.03416,-0.0244,-0.00244,0.01952,-0.03172,0.13664,0.20496,0.08784,-0.00976,-0.08296,-0.04392
-0.03904,0.0244,-0.00976,0.00976,0.02928,-0.03416,0.14152,0.22936,0.11224,0.01464,-0.07808,-0.03416
-0.03416,0.01708,0,0.01708,0.03416,-0.03416,0.14152,0.24888,0.14152,0.02928,-0.05368,-0.01952
-0.0244,0.00488,0.01464,0.02684,0.03904,-0.03172,0.15128,0.2684,0.18056,0.05368,-0.03416,-0.00488
-0.01464,-0.00244,0.01952,0.02684,0.03416,-0.0244,0.16104,0.28792,0.1952,0.0732,-0.00976,0.01464
-0.01464,-0.00732,0.02928,0.0366,0.04392,-0.02928,0.16592,0.31232,0.22448,0.10248,0.00488,0.02928
-0.00976,-0.02196,0.05368,0.05856,0.06344,-0.0366,0.16104,0.34648,0.25376,0.122,0.0244,0.03416
-0.00488,-0.02928,0.06344,0.06588,0.06832,-0.0366,0.16104,0.36112,0.28304,0.15128,0.04392,0.05368
0.00488,-0.04392,0.08296,0.08052,0.07808,-0.0366,0.16592,0.37088,0.3172,0.1708,0.06344,0.06344
0.01952,-0.05612,0.09272,0.08296,0.0732,-0.02684,0.1708,0.3904,0.33672,0.1952,0.0732,0.0732
0.03416,-0.06832,0.10248,0.0854,0.06832,-0.01708,0.1708,0.40992,0.35624,0.21472,0.09272,0.0976
0.04392,-0.08052,0.11712,0.09516,0.0732,-0.01464,0.1708,0.4148,0.38064,0.23424,0.11224,0.11224
0.03416,-0.07808,0.122,0.10492,0.08784,-0.02684,0.1708,0.40016,0.37576,0.244,0.122,0.11224
0.03904,-0.08296,0.12688,0.10736,0.08784,-0.0244,0.16592,0.3904,0.37088,0.244,0.122,0.11712
0.03904,-0.08296,0.12688,0.10736,0.08784,-0.0244,0.16592,0.366,0.34648,0.23424,0.11712,0.10736
0.0488,-0.09028,0.13176,0.10736,0.08296,-0.01708,0.15616,0.33672,0.32208,0.2196,0.11712,0.10736
0.0488,-0.0854,0.122,0.0976,0.0732,-0.0122,0.1464,0.29768,0.2684,0.18544,0.09272,0.0976
0.0488,-0.08052,0.11224,0.08784,0.06344,-0.00732,0.13664,0.25864,0.23424,0.16104,0.0732,0.08784
0.03416,-0.06588,0.0976,0.08052,0.06344,-0.01464,0.122,0.23424,0.20496,0.14152,0.05856,0.07808
0.0244,-0.05612,0.08784,0.07564,0.06344,-0.01952,0.11224,0.1952,0.17568,0.11224,0.05368,0.06344
0.01952,-0.04392,0.06832,0.05856,0.0488,-0.01464,0.09272,0.15616,0.14152,0.09272,0.02928,0.05856
0.02928,-0.04392,0.05856,0.04392,0.02928,0,0.07808,0.122,0.0976,0.06344,0.00976,0.0488
0.01952,-0.03416,0.0488,0.03904,0.02928,-0.00488,0.06832,0.09272,0.06832,0.03904,-0.00976,0.01464
0.01464,-0.02928,0.04392,0.0366,0.02928,-0.00732,0.05368,0.05856,0.03904,0.01464,-0.03416,0.00488
0.01464,-0.02196,0.02928,0.02196,0.01464,0,0.05368,0.03904,0.01952,0.00488,-0.03416,0
0.00488,-0.0122,0.01952,0.01708,0.01464,-0.00488,0.04392,0.0244,0.00488,-0.01464,-0.02928,-0.00488
0.00488,-0.0122,0.01952,0.01708,0.01464,-0.00488,0.03416,0.00976,-0.00976,-0.02928,-0.05368,-0.01464
0.00488,-0.00732,0.00976,0.00732,0.00488,0,0.02928,-0.00976,-0.01464,-0.03416,-0.06344,-0.0244
-0.00488,0.00488,-0.00488,-0.00244,0,-0.00244,0.02928,-0.01952,-0.03416,-0.04392,-0.06832,-0.0244
-0.00488,0.00976,-0.01464,-0.0122,-0.00976,0.00244,0.0244,-0.0244,-0.04392,-0.05856,-0.0732,-0.02928
-0.00488,0.00732,-0.00976,-0.00732,-0.00488,0,0.0244,-0.0244,-0.0488,-0.05856,-0.06832,-0.0244
-0.00976,0.0122,-0.01464,-0.00976,-0.00488,-0.00244,0.01952,-0.03416,-0.05856,-0.05856,-0.07808,-0.02928
-0.00976,0.01708,-0.0244,-0.01952,-0.01464,0.00244,0.01952,-0.02928,-0.05368,-0.05856,-0.07808,-0.02928
-0.01464,0.01952,-0.0244,-0.01708,-0.00976,-0.00244,0.01952,-0.02928,-0.05856,-0.06344,-0.08296,-0.03416
-0.01464,0.01952,-0.0244,-0.01708,-0.00976,-0.00244,0.00976,-0.03416,-0.06832,-0.0732,-0.08296,-0.03416
-0.01464,0.02196,-0.02928,-0.02196,-0.01464,0,0.00976,-0.0488,-0.06832,-0.06832,-0.08784,-0.03904
-0.01952,0.0244,-0.02928,-0.01952,-0.00976,-0.00488,0,-0.05368,-0.08296,-0.08784,-0.0976,-0.0488
-0.01952,0.02684,-0.03416,-0.0244,-0.01464,-0.00244,0,-0.05368,-0.08296,-0.08784,-0.10248,-0.0488
-0.01952,0.02196,-0.0244,-0.01464,-0.00488,-0.00732,0.00488,-0.05856,-0.07808,-0.07808,-0.0976,-0.05368
-0.01952,0.02196,-0.0244,-0.01464,-0.00488,-0.00732,0.00488,-0.06344,-0.08296,-0.07808,-0.10736,-0.05368
-0.02928,0.03416,-0.03904,-0.0244,-0.00976,-0.00976,0.00488,-0.06832,-0.09272,-0.09272,-0.10736,-0.05368
-0.03416,0.0366,-0.03904,-0.02196,-0.00488,-0.01464,0.00488,-0.06344,-0.09272,-0.09272,-0.11224,-0.05856
-0.03416,0.04148,-0.0488,-0.03172,-0.01464,-0.00976,0.00488,-0.06832,-0.0976,-0.09272,-0.10248,-0.05856
-0.03416,0.04392,-0.05368,-0.0366,-0.01952,-0.00732,0.00488,-0.06832,-0.10248,-0.08784,-0.10736,-0.06344
-0.02928,0.0366,-0.04392,-0.02928,-0.01464,-0.00732,0.00488,-0.06832,-0.11224,-0.10248,-0.11224,-0.05856
-0.02928,0.0366,-0.04392,-0.02928,-0.01464,-0.00732,0.00488,-0.0732,-0.11224,-0.10736,-0.122,-0.06832
-0.02928,0.04148,-0.05368,-0.03904,-0.0244,-0.00244,0.00488,-0.0732,-0.11712,-0.11224,-0.11712,-0.0732
-0.02928,0.03904,-0.0488,-0.03416,-0.01952,-0.00488,0,-0.0732,-0.122,-0.11224,-0.122,-0.06832
-0.02928,0.03904,-0.0488,-0.03416,-0.01952,-0.00488,0,-0.07808,-0.122,-0.10736,-0.122,-0.06832
-0.02928,0.03904,-0.0488,-0.03416,-0.01952,-0.00488,0.00488,-0.07808,-0.12688,-0.10736,-0.12688,-0.0732
-0.03904,0.04392,-0.0488,-0.02928,-0.00976,-0.01464,0.00488,-0.07808,-0.12688,-0.10736,-0.12688,-0.0732
-0.03904,0.04636,-0.05368,-0.03416,-0.01464,-0.0122,0.00488,-0.07808,-0.13176,-0.10736,-0.122,-0.06832
-0.03904,0.04636,-0.05368,-0.03416,-0.01464,-0.0122,0,-0.08296,-0.13176,-0.11224,-0.12688,-0.0732
-0.04392,0.0488,-0.05368,-0.03172,-0.00976,-0.01708,0,-0.08296,-0.13664,-0.11224,-0.12688,-0.0732
-0.03416,0.03904,-0.04392,-0.02684,-0.00976,-0.0122,0,-0.08296,-0.13664,-0.122,-0.12688,-0.0732
-0.03416,0.03904,-0.04392,-0.02684,-0.00976,-0.0122,0,-0.08296,-0.13664,-0.122,-0.12688,-0.0732
-0.03416,0.04392,-0.05368,-0.0366,-0.01952,-0.00732,-0.01464,-0.08296,-0.12688,-0.122,-0.12688,-0.06344
-0.02928,0.03904,-0.0488,-0.03416,-0.01952,-0.00488,-0.01464,-0.08296,-0.12688,-0.11712,-0.12688,-0.06344
-0.02928,0.03904,-0.0488,-0.03416,-0.01952,-0.00488,-0.01952,-0.08784,-0.12688,-0.11224,-0.122,-0.06344
-0.02928,0.03904,-0.0488,-0.03416,-0.01952,-0.00488,-0.01952,-0.08784,-0.12688,-0.11224,-0.11712,-0.06344
-0.02928,0.0366,-0.04392,-0.02928,-0.01464,-0.00732,-0.01464,-0.08784,-0.13176,-0.11224,-0.12688,-0.0732
-0.02928,0.0366,-0.04392,-0.02928,-0.01464,-0.00732,-0.00976,-0.08784,-0.13176,-0.10736,-0.122,-0.0732
-0.02928,0.0366,-0.04392,-0.02928,-0.01464,-0.00732,-0.00976,-0.08784,-0.122,-0.11224,-0.11712,-0.06832
-0.0244,0.0366,-0.0488,-0.0366,-0.0244,0,-0.00976,-0.08784,-0.122,-0.11224,-0.11712,-0.06832
-0.0244,0.03904,-0.05368,-0.04148,-0.02928,0.00244,-0.00976,-0.08784,-0.122,-0.10736,-0.10736,-0.06832
-0.0244,0.03904,-0.05368,-0.04148,-0.02928,0.00244,-0.01464,-0.09272,-0.11712,-0.10736,-0.10736,-0.06832
-0.0244,0.03904,-0.05368,-0.04148,-0.02928,0.00244,-0.01952,-0.08296,-0.122,-0.10248,-0.10248,-0.06344
-0.0244,0.03904,-0.05368,-0.04148,-0.02928,0.00244,-0.0244,-0.08784,-0.122,-0.10248,-0.10248,-0.05856
-0.0244,0.03904,-0.05368,-0.04148,-0.02928,0.00244,-0.01464,-0.08784,-0.122,-0.10248,-0.10248,-0.05856
-0.01952,0.0366,-0.05368,-0.04392,-0.03416,0.00732,-0.01464,-0.09272,-0.122,-0.10248,-0.10248,-0.05856
-0.00976,0.03172,-0.05368,-0.0488,-0.04392,0.01708,-0.0244,-0.10248,-0.13176,-0.11224,-0.10248,-0.05856
-0.00976,0.03172,-0.05368,-0.0488,-0.04392,0.01708,-0.02928,-0.10248,-0.13176,-0.11224,-0.10736,-0.05856
-0.01952,0.03904,-0.05856,-0.0488,-0.03904,0.00976,-0.02928,-0.10248,-0.122,-0.10248,-0.10736,-0.05856
-0.0244,0.03904,-0.05368,-0.04148,-0.02928,0.00244,-0.02928,-0.10248,-0.122,-0.0976,-0.10736,-0.05856
-0.0244,0.03904,-0.05368,-0.04148,-0.02928,0.00244,-0.02928,-0.10248,-0.122,-0.10248,-0.10736,-0.05856
-0.01952,0.03904,-0.05856,-0.0488,-0.03904,0.00976,-0.02928,-0.10248,-0.122,-0.10248,-0.10248,-0.05856
-0.0244,0.03416,-0.04392,-0.03172,-0.01952,-0.00244,-0.03416,-0.0976,-0.122,-0.10248,-0.10248,-0.06832
-0.01952,0.03172,-0.04392,-0.03416,-0.0244,0.00244,-0.03416,-0.0976,-0.122,-0.10248,-0.10248,-0.06344
-0.01952,0.0366,-0.05368,-0.04392,-0.03416,0.00732,-0.02928,-0.0976,-0.122,-0.10248,-0.10736,-0.06344
-0.0244,0.04148,-0.05856,-0.04636,-0.03416,0.00488,-0.03416,-0.0976,-0.122,-0.10248,-0.10736,-0.06832
-0.01952,0.03904,-0.05856,-0.0488,-0.03904,0.00976,-0.03416,-0.10248,-0.122,-0.10248,-0.10248,-0.06832
-0.01952,0.03904,-0.05856,-0.0488,-0.03904,0.00976,-0.03416,-0.0976,-0.122,-0.10248,-0.10248,-0.06832
-0.01952,0.03904,-0.05856,-0.0488,-0.03904,0.00976,-0.02928,-0.10248,-0.122,-0.10248,-0.0976,-0.05856
-0.01952,0.03904,-0.05856,-0.0488,-0.03904,0.00976,-0.03416,-0.10248,-0.122,-0.10248,-0.0976,-0.05856
-0.00976,0.03904,-0.06832,-0.06344,-0.05856,0.0244,-0.02928,-0.10248,-0.122,-0.09272,-0.09272,-0.05856
-0.01952,0.03904,-0.05856,-0.0488,-0.03904,0.00976,-0.02928,-0.10248,-0.11224,-0.09272,-0.08296,-0.05856
-0.01952,0.03904,-0.05856,-0.0488,-0.03904,0.00976,-0.02928,-0.0976,-0.10736,-0.08784,-0.07808,-0.05856
-0.01952,0.03904,-0.05856,-0.0488,-0.03904,0.00976,-0.02928,-0.0976,-0.10736,-0.08784,-0.07808,-0.05856
-0.01952,0.04392,-0.06832,-0.05856,-0.0488,0.01464,-0.02928,-0.0976,-0.10736,-0.08784,-0.07808,-0.05856
-0.01952,0.04636,-0.0732,-0.06344,-0.05368,0.01708,-0.02928,-0.0976,-0.10736,-0.08784,-0.07808,-0.05856
-0.01464,0.0366,-0.05856,-0.05124,-0.04392,0.01464,-0.03416,-0.0976,-0.10736,-0.09272,-0.08784,-0.05368
-0.01952,0.03904,-0.05856,-0.0488,-0.03904,0.00976,-0.03416,-0.0976,-0.10736,-0.09272,-0.08296,-0.05368
-0.02928,0.04392,-0.05856,-0.04392,-0.02928,0,-0.0244,-0.08784,-0.11224,-0.09272,-0.08296,-0.05368
-0.0244,0.03904,-0.05368,-0.04148,-0.02928,0.00244,-0.0244,-0.08296,-0.11224,-0.09272,-0.08296,-0.05368
-0.0244,0.0366,-0.0488,-0.0366,-0.0244,0,-0.00976,-0.07808,-0.10248,-0.08296,-0.07808,-0.0488
-0.01464,0.02684,-0.03904,-0.03172,-0.0244,0.00488,-0.00488,-0.06832,-0.09272,-0.07808,-0.06832,-0.03904
0.00488,0.0122,-0.02928,-0.03172,-0.03416,0.01952,0,-0.06832,-0.09272,-0.06832,-0.0488,-0.01952
0.00488,0.00244,-0.00976,-0.0122,-0.01464,0.00976,0.01952,-0.0488,-0.08296,-0.05368,-0.04392,-0.01952
0,0,0,0,0,0,0.01952,-0.0244,-0.06344,-0.03416,-0.01952,-0.01464
0.00488,-0.00488,0.00488,0.00244,0,0.00244,0.02928,-0.01952,-0.0488,-0.03416,-0.01952,-0.00976
0.00488,0,-0.00488,-0.00732,-0.00976,0.00732,0.03416,-0.0244,-0.0488,-0.03904,-0.02928,-0.00976
0.00976,-0.00244,-0.00488,-0.00976,-0.01464,0.0122,0.01952,-0.02928,-0.05856,-0.04392,-0.0244,-0.00488
0.0244,-0.00976,-0.00488,-0.01708,-0.02928,0.02684,-0.01952,-0.04392,-0.0732,-0.03416,-0.0244,-0.00488
0.02928,-0.0122,-0.00488,-0.01952,-0.03416,0.03172,-0.0488,-0.0732,-0.0732,-0.03904,-0.0244,0
0.01952,-0.0122,0.00488,-0.00488,-0.01464,0.01708,-0.04392,-0.08296,-0.0732,-0.04392,-0.02928,0
0.01952,-0.0122,0.00488,-0.00488,-0.01464,0.01708,-0.05368,-0.0976,-0.08784,-0.05856,-0.03416,0
0.02928,-0.01708,0.00488,-0.00976,-0.0244,0.02684,-0.06344,-0.11224,-0.10736,-0.04392,-0.0244,0
0.02928,-0.01708,0.00488,-0.00976,-0.0244,0.02684,-0.0732,-0.11712,-0.10248,-0.0488,-0.01952,0.00488
0.0244,-0.0122,0,-0.0122,-0.0244,0.0244,-0.0732,-0.122,-0.10248,-0.06344,-0.01464,0.00488
0.0244,0.00244,-0.02928,-0.04148,-0.05368,0.03904,-0.0732,-0.11224,-0.10736,-0.06344,-0.0244,-0.00488
0.0244,0.01952,-0.06344,-0.07564,-0.08784,0.05612,-0.07808,-0.122,-0.12688,-0.08296,-0.0488,-0.01464
0.00976,0.0366,-0.08296,-0.08784,-0.09272,0.05124,-0.0732,-0.12688,-0.13664,-0.09272,-0.05856,-0.03416
0,0.04148,-0.08296,-0.08296,-0.08296,0.04148,-0.0732,-0.12688,-0.14152,-0.10736,-0.0732,-0.0488
-0.01952,0.05368,-0.08784,-0.07808,-0.06832,0.0244,-0.06344,-0.12688,-0.13664,-0.10248,-0.0732,-0.0488
-0.03904,0.05856,-0.07808,-0.05856,-0.03904,0,-0.05368,-0.11712,-0.12688,-0.10248,-0.0732,-0.03904
-0.03904,0.061,-0.08296,-0.06344,-0.04392,0.00244,-0.05368,-0.11712,-0.13176,-0.10248,-0.08296,-0.0488
-0.03904,0.06588,-0.09272,-0.0732,-0.05368,0.00732,-0.06344,-0.122,-0.12688,-0.10248,-0.0732,-0.05368
-0.03904,0.06588,-0.09272,-0.0732,-0.05368,0.00732,-0.06832,-0.12688,-0.13664,-0.10736,-0.08296,-0.05856
-0.03904,0.07564,-0.11224,-0.09272,-0.0732,0.01708,-0.06832,-0.12688,-0.13664,-0.0976,-0.0732,-0.0488
-0.03904,0.0732,-0.10736,-0.08784,-0.06832,0.01464,-0.05856,-0.12688,-0.13664,-0.10248,-0.0732,-0.0488
-0.03904,0.07564,-0.11224,-0.09272,-0.0732,0.01708,-0.05856,-0.12688,-0.13664,-0.10248,-0.0732,-0.05856
-0.04392,0.07808,-0.11224,-0.09028,-0.06832,0.0122,-0.05856,-0.12688,-0.13664,-0.0976,-0.0732,-0.05856
-0.05368,0.08052,-0.10736,-0.08052,-0.05368,0,-0.05856,-0.11712,-0.13176,-0.10248,-0.08296,-0.06344
-0.05368,0.08052,-0.10736,-0.08052,-0.05368,0,-0.05856,-0.11712,-0.13176,-0.10248,-0.08296,-0.06344
-0.04392,0.07564,-0.10736,-0.0854,-0.06344,0.00976,-0.05856,-0.122,-0.122,-0.10736,-0.08784,-0.06344
-0.04392,0.07564,-0.10736,-0.0854,-0.06344,0.00976,-0.05368,-0.11712,-0.122,-0.10736,-0.08784,-0.05856
-0.04392,0.06832,-0.09272,-0.07076,-0.0488,0.00244,-0.0488,-0.10736,-0.11712,-0.09272,-0.07808,-0.06344
-0.04392,0.0732,-0.10248,-0.08052,-0.05856,0.00732,-0.03904,-0.10248,-0.12688,-0.10248,-0.07808,-0.0732
-0.04392,0.06832,-0.09272,-0.07076,-0.0488,0.00244,-0.01952,-0.06344,-0.0976,-0.0732,-0.06832,-0.05368
-0.06832,0.08052,-0.09272,-0.05856,-0.0244,-0.02196,0.03416,-0.01464,-0.07808,-0.06832,-0.06344,-0.0732
-0.08296,0.09516,-0.10736,-0.06588,-0.0244,-0.02928,0.11712,0.0488,-0.05368,-0.06344,-0.07808,-0.08296
-0.09272,0.09272,-0.09272,-0.04636,0,-0.04636,0.122,0.02928,-0.08296,-0.10248,-0.11224,-0.11224
-0.0976,0.11468,-0.13176,-0.08296,-0.03416,-0.03172,0.13176,0.03416,-0.11224,-0.12688,-0.13176,-0.122
-0.03904,0.04392,-0.0488,-0.02928,-0.00976,-0.01464,0.08784,0.05368,-0.03904,-0.02928,-0.0244,-0.03904
0.11712,-0.08784,0.05856,0,-0.05856,0.08784,0.02928,0.13664,0.10248,0.16592,0.15616,0.11712
0.2928,-0.30256,0.31232,0.16592,0.01952,0.13664,0,0.3416,0.40016,0.52216,0.48312,0.39528
0.5124,-0.5856,0.6588,0.4026,0.1464,0.183,-0.0488,0.63928,0.88328,1.01504,0.9028,0.72224
0.68808,-0.83204,0.976,0.63196,0.28792,0.20008,-0.18544,0.66368,1.28344,1.4884,1.29808,1.05408
0.81984,-1.02236,1.22488,0.81496,0.40504,0.2074,-0.27328,0.72224,1.7812,1.99104,1.66408,1.35176
0.85888,-1.05408,1.24928,0.81984,0.3904,0.23424,-0.35136,0.91744,2.22528,2.2936,1.82512,1.48352
0.76616,-0.97112,1.17608,0.793,0.40992,0.17812,-0.3416,1.0004,2.44976,2.32776,1.79096,1.45424
0.488,-0.69784,0.90768,0.66368,0.41968,0.03416,-0.20008,0.69784,1.67872,1.4396,1.22,1.12728
0.21472,-0.44896,0.6832,0.57584,0.46848,-0.12688,-0.1708,0.03904,0.48312,0.488,0.69784,0.81496
0.00488,-0.20984,0.4148,0.41236,0.40992,-0.20252,-0.38064,-0.732,-0.3172,-0.02928,0.3416,0.5368
-0.0976,-0.03172,0.16104,0.20984,0.25864,-0.17812,-0.39528,-0.73688,-0.42944,-0.2196,0.06344,0.22936
-0.1708,0.10004,-0.02928,0.05612,0.14152,-0.15616,-0.33184,-0.61976,-0.43432,-0.27328,-0.08784,0.03416
-0.17568,0.13908,-0.10248,-0.01464,0.0732,-0.12444,-0.27328,-0.50752,-0.37088,-0.25376,-0.13176,-0.04392
-0.1708,0.18056,-0.19032,-0.10492,-0.01952,-0.07564,-0.244,-0.40504,-0.3172,-0.23424,-0.15616,-0.08784
-0.12688,0.14152,-0.15616,-0.09272,-0.02928,-0.0488,-0.1708,-0.27328,-0.23424,-0.18056,-0.13176,-0.09272
-0.0976,0.11468,-0.13176,-0.08296,-0.03416,-0.03172,-0.122,-0.1708,-0.1708,-0.1464,-0.11712,-0.08296
-0.08784,0.10736,-0.12688,-0.08296,-0.03904,-0.0244,-0.06832,-0.12688,-0.1464,-0.122,-0.09272,-0.05856
-0.07808,0.10004,-0.122,-0.08296,-0.04392,-0.01708,-0.0244,-0.10248,-0.13176,-0.122,-0.09272,-0.06344
-0.07808,0.10004,-0.122,-0.08296,-0.04392,-0.01708,-0.01952,-0.08784,-0.13176,-0.11712,-0.0976,-0.06832
-0.06832,0.09516,-0.122,-0.08784,-0.05368,-0.00732,-0.01952,-0.06832,-0.13176,-0.11712,-0.11224,-0.08784
-0.06344,0.0976,-0.13176,-0.10004,-0.06832,0.00244,-0.01952,-0.06832,-0.13176,-0.122,-0.11712,-0.09272
-0.0732,0.10248,-0.13176,-0.09516,-0.05856,-0.00732,-0.01464,-0.06832,-0.122,-0.11224,-0.10248,-0.07808
-0.0732,0.10248,-0.13176,-0.09516,-0.05856,-0.00732,-0.01464,-0.06832,-0.122,-0.10736,-0.10248,-0.07808
-0.0732,0.10248,-0.13176,-0.09516,-0.05856,-0.00732,-0.00488,-0.05856,-0.11712,-0.0976,-0.10248,-0.07808
-0.06832,0.10004,-0.13176,-0.0976,-0.06344,-0.00244,-0.00488,-0.05368,-0.11712,-0.0976,-0.10248,-0.07808
-0.06832,0.10004,-0.13176,-0.0976,-0.06344,-0.00244,-0.00976,-0.05856,-0.122,-0.09272,-0.09272,-0.07808
-0.06832,0.10248,-0.13664,-0.10248,-0.06832,0,-0.00976,-0.05368,-0.12688,-0.09272,-0.09272,-0.08296
-0.06832,0.10004,-0.13176,-0.0976,-0.06344,-0.00244,-0.00976,-0.05368,-0.12688,-0.10248,-0.09272,-0.0732
-0.06832,0.10004,-0.13176,-0.0976,-0.06344,-0.00244,-0.00976,-0.05368,-0.12688,-0.10248,-0.0976,-0.0732
-0.06832,0.10004,-0.13176,-0.0976,-0.06344,-0.00244,-0.00976,-0.05368,-0.11712,-0.10248,-0.10736,-0.0732
-0.06832,0.10248,-0.13664,-0.10248,-0.06832,0,-0.00976,-0.0488,-0.11712,-0.10248,-0.10736,-0.0732
-0.06832,0.10248,-0.13664,-0.10248,-0.06832,0,-0.00976,-0.04392,-0.11712,-0.10248,-0.10248,-0.0732
-0.06832,0.10248,-0.13664,-0.10248,-0.06832,0,-0.00488,-0.04392,-0.11712,-0.10736,-0.10736,-0.0732
-0.06832,0.10248,-0.13664,-0.10248,-0.06832,0,-0.00488,-0.04392,-0.12688,-0.10736,-0.0976,-0.07808
-0.0732,0.10492,-0.13664,-0.10004,-0.06344,-0.00488,0,-0.03904,-0.122,-0.10736,-0.0976,-0.07808
-0.0732,0.10492,-0.13664,-0.10004,-0.06344,-0.00488,0,-0.03904,-0.12688,-0.10736,-0.10248,-0.06832
-0.0732,0.10736,-0.14152,-0.10492,-0.06832,-0.00244,0.00488,-0.03904,-0.122,-0.11224,-0.10248,-0.06832
-0.0732,0.10736,-0.14152,-0.10492,-0.06832,-0.00244,0.00488,-0.03416,-0.11224,-0.11224,-0.10248,-0.06832
-0.0732,0.10736,-0.14152,-0.10492,-0.06832,-0.00244,0.00976,-0.02928,-0.11712,-0.10736,-0.10248,-0.06832
-0.0732,0.10736,-0.14152,-0.10492,-0.06832,-0.00244,0.00976,-0.02928,-0.11712,-0.11224,-0.11224,-0.07808
-0.0732,0.10736,-0.14152,-0.10492,-0.06832,-0.00244,0.00976,-0.0244,-0.11712,-0.11224,-0.11224,-0.07808
-0.0732,0.10736,-0.14152,-0.10492,-0.06832,-0.00244,0.01464,-0.01464,-0.11224,-0.11224,-0.11224,-0.07808
-0.0732,0.10736,-0.14152,-0.10492,-0.06832,-0.00244,0.01464,-0.00488,-0.11224,-0.11224,-0.10248,-0.07808
-0.07808,0.1098,-0.14152,-0.10248,-0.06344,-0.00732,0.01952,-0.01464,-0.11224,-0.10248,-0.10736,-0.07808
-0.07808,0.10736,-0.13664,-0.0976,-0.05856,-0.00976,0.0244,-0.00976,-0.10736,-0.10248,-0.10736,-0.08296
-0.07808,0.11468,-0.15128,-0.11224,-0.0732,-0.00244,0.03416,0,-0.08784,-0.0976,-0.10248,-0.07808
-0.07808,0.11468,-0.15128,-0.11224,-0.0732,-0.00244,0.03416,0.00976,-0.08784,-0.09272,-0.10248,-0.07808
-0.07808,0.11224,-0.1464,-0.10736,-0.06832,-0.00488,0.04392,0.01952,-0.09272,-0.10248,-0.10248,-0.0732
-0.07808,0.10492,-0.13176,-0.09272,-0.05368,-0.0122,0.04392,0.0244,-0.08296,-0.0976,-0.0976,-0.0732
-0.07808,0.10736,-0.13664,-0.0976,-0.05856,-0.00976,0.03904,0.03416,-0.0732,-0.08296,-0.0976,-0.06344
-0.0732,0.10492,-0.13664,-0.10004,-0.06344,-0.00488,0.05368,0.05368,-0.06344,-0.07808,-0.09272,-0.05856
-0.07808,0.1098,-0.14152,-0.10248,-0.06344,-0.00732,0.05856,0.05368,-0.05368,-0.06832,-0.08784,-0.05856
-0.0732,0.10736,-0.14152,-0.10492,-0.06832,-0.00244,0.06832,0.07808,-0.04392,-0.06344,-0.07808,-0.05368
-0.0732,0.10248,-0.13176,-0.09516,-0.05856,-0.00732,0.0732,0.09272,-0.02928,-0.06344,-0.07808,-0.0488
-0.0732,0.10248,-0.13176,-0.09516,-0.05856,-0.00732,0.08296,0.11712,-0.00976,-0.04392,-0.06344,-0.04392
-0.05856,0.09028,-0.122,-0.09272,-0.06344,0.00244,0.08784,0.122,0.00976,-0.02928,-0.05856,-0.03416
-0.05856,0.0854,-0.11224,-0.08296,-0.05368,-0.00244,0.0976,0.1464,0.02928,-0.01464,-0.0488,-0.02928
-0.06832,0.08052,-0.09272,-0.05856,-0.0244,-0.02196,0.10736,0.1708,0.04392,0.00488,-0.03904,-0.02928
-0.06344,0.07808,-0.09272,-0.061,-0.02928,-0.01708,0.11224,0.1952,0.0732,0.01952,-0.0244,-0.01952
-0.04392,0.06588,-0.08784,-0.06588,-0.04392,0,0.122,0.22936,0.11224,0.05368,0.00488,-0.00488
-0.03904,0.05856,-0.07808,-0.05856,-0.03904,0,0.13176,0.24888,0.14152,0.08296,0.01952,0.01464
-0.03416,0.04392,-0.05368,-0.0366,-0.01952,-0.00732,0.14152,0.26352,0.17568,0.10736,0.01952,0.0244
-0.03416,0.03904,-0.04392,-0.02684,-0.00976,-0.0122,0.15128,0.28792,0.20496,0.12688,0.04392,0.03416
-0.02928,0.03172,-0.03416,-0.01952,-0.00488,-0.0122,0.15128,0.3172,0.22936,0.13664,0.06344,0.0488
-0.0244,0.0244,-0.0244,-0.0122,0,-0.0122,0.15616,0.33672,0.25864,0.16592,0.07808,0.05856
-0.0244,0.01708,-0.00976,0.00244,0.01464,-0.01952,0.1464,0.35136,0.28792,0.19032,0.09272,0.06344
-0.01952,0.00976,0,0.00976,0.01952,-0.01952,0.15128,0.37088,0.3172,0.20984,0.11224,0.07808
-0.00488,-0.00244,0.00976,0.0122,0.01464,-0.00976,0.15616,0.3904,0.3416,0.244,0.13176,0.10248
0.00488,-0.01464,0.0244,0.02196,0.01952,-0.00732,0.16104,0.40992,0.37088,0.26352,0.15128,0.10736
0.0244,-0.03172,0.03904,0.02684,0.01464,0.00488,0.16104,0.42456,0.38552,0.27328,0.1464,0.13176
0.02928,-0.04148,0.05368,0.03904,0.0244,0.00244,0.16104,0.43432,0.40504,0.2928,0.1708,0.14152
0.0244,-0.04392,0.06344,0.05124,0.03904,-0.00732,0.16104,0.43432,0.42456,0.32208,0.18544,0.15616
0.02928,-0.05368,0.07808,0.06344,0.0488,-0.00976,0.15616,0.42944,0.41968,0.32208,0.20496,0.16592
0.01952,-0.04392,0.06832,0.05856,0.0488,-0.01464,0.16592,0.41968,0.42456,0.33184,0.21472,0.16592
0.0244,-0.0488,0.0732,0.061,0.0488,-0.0122,0.16104,0.40504,0.40504,0.32696,0.21472,0.16592
0.02928,-0.05368,0.07808,0.06344,0.0488,-0.00976,0.15128,0.36112,0.37088,0.31232,0.21472,0.16592
0.02928,-0.0488,0.06832,0.05368,0.03904,-0.00488,0.14152,0.32696,0.33184,0.2928,0.20496,0.15616
0.03416,-0.0488,0.06344,0.04636,0.02928,0.00244,0.122,0.29768,0.30256,0.25864,0.17568,0.13664
0.03416,-0.04392,0.05368,0.0366,0.01952,0.00732,0.10736,0.26352,0.26352,0.23424,0.15616,0.12688
0.0244,-0.03416,0.04392,0.03172,0.01952,0.00244,0.0976,0.20984,0.21472,0.20496,0.1464,0.11712
0.01952,-0.02684,0.03416,0.0244,0.01464,0.00244,0.08296,0.18056,0.18056,0.17568,0.12688,0.0976
0,-0.00976,0.01952,0.01952,0.01952,-0.00976,0.08296,0.15616,0.14152,0.14152,0.10736,0.08296
0,-0.00488,0.00976,0.00976,0.00976,-0.00488,0.06832,0.11712,0.10736,0.11224,0.08784,0.06344
-0.00488,0.00976,-0.01464,-0.0122,-0.00976,0.00244,0.05856,0.08296,0.0732,0.09272,0.05368,0.05368
-0.00488,0.01464,-0.0244,-0.02196,-0.01952,0.00732,0.04392,0.06344,0.05368,0.0732,0.0488,0.04392
-0.01464,0.01952,-0.0244,-0.01708,-0.00976,-0.00244,0.03904,0.04392,0.02928,0.05856,0.0488,0.02928
-0.01464,0.0244,-0.03416,-0.02684,-0.01952,0.00244,0.02928,0.02928,0.00976,0.0488,0.02928,0.01952
-0.01464,0.03416,-0.05368,-0.04636,-0.03904,0.0122,0.0244,0.01952,0,0.03904,0.01464,0.01464
-0.01464,0.03416,-0.05368,-0.04636,-0.03904,0.0122,0.01952,0.00976,-0.00976,0.02928,0.00976,0.00976
-0.01464,0.02928,-0.04392,-0.0366,-0.02928,0.00732,0.00488,0.00488,-0.01952,0.00976,0.01464,0.00488
-0.01952,0.0366,-0.05368,-0.04392,-0.03416,0.00732,0.00488,0,-0.0244,0.00976,0.00976,0.00488
-0.01952,0.03904,-0.05856,-0.0488,-0.03904,0.00976,0,-0.00488,-0.02928,0.00976,0,0.00976
-0.0244,0.04392,-0.06344,-0.05124,-0.03904,0.00732,0,-0.00976,-0.03416,0.00976,0,0.00976
-0.0244,0.04392,-0.06344,-0.05124,-0.03904,0.00732,0,-0.01464,-0.0488,-0.01464,-0.00488,0.00488
-0.0244,0.04392,-0.06344,-0.05124,-0.03904,0.00732,0,-0.01952,-0.0488,-0.00976,-0.00488,0
-0.0244,0.04636,-0.06832,-0.05612,-0.04392,0.00976,0.00976,-0.01952,-0.03904,0,0,0
-0.02928,0.0488,-0.06832,-0.05368,-0.03904,0.00488,0.00976,-0.0244,-0.04392,-0.00976,-0.00488,0
-0.03904,0.061,-0.08296,-0.06344,-0.04392,0.00244,0.01464,-0.02928,-0.03904,-0.00976,0,-0.00488
-0.03904,0.061,-0.08296,-0.06344,-0.04392,0.00244,0.01464,-0.02928,-0.04392,-0.00976,-0.00488,-0.00488
-0.03904,0.06344,-0.08784,-0.06832,-0.0488,0.00488,0.00488,-0.0244,-0.05368,-0.01464,-0.00976,-0.01464
-0.04392,0.06588,-0.08784,-0.06588,-0.04392,0,0.00488,-0.02928,-0.05368,-0.01464,-0.00976,-0.01464
-0.04392,0.06588,-0.08784,-0.06588,-0.04392,0,0.00488,-0.03416,-0.06832,-0.0244,-0.0244,-0.01952
-0.04392,0.06588,-0.08784,-0.06588,-0.04392,0,0.00488,-0.03904,-0.0732,-0.02928,-0.02928,-0.01952
-0.0488,0.07076,-0.09272,-0.06832,-0.04392,-0.00244,0.00488,-0.03904,-0.06832,-0.03416,-0.01952,-0.0244
-0.0488,0.07076,-0.09272,-0.06832,-0.04392,-0.00244,0.00488,-0.03904,-0.0732,-0.03904,-0.02928,-0.01952
-0.0488,0.06588,-0.08296,-0.05856,-0.03416,-0.00732,-0.00488,-0.03416,-0.07808,-0.03904,-0.0244,-0.01952
-0.0488,0.07076,-0.09272,-0.06832,-0.04392,-0.00244,-0.00488,-0.03416,-0.07808,-0.04392,-0.01952,-0.0244
-0.0488,0.0732,-0.0976,-0.0732,-0.0488,0,0,-0.04392,-0.09272,-0.03416,-0.01464,-0.00976
-0.0488,0.0732,-0.0976,-0.0732,-0.0488,0,0,-0.0488,-0.0976,-0.03904,-0.01952,-0.01464
-0.05856,0.0732,-0.08784,-0.05856,-0.02928,-0.01464,0.00488,-0.04392,-0.0976,-0.0488,-0.02928,-0.0244
-0.05856,0.0732,-0.08784,-0.05856,-0.02928,-0.01464,0.00488,-0.0488,-0.0976,-0.0488,-0.0244,-0.01952
-0.05368,0.07808,-0.10248,-0.07564,-0.0488,-0.00244,0.00488,-0.0488,-0.09272,-0.03904,-0.02928,-0.01952
-0.0488,0.07564,-0.10248,-0.07808,-0.05368,0.00244,0,-0.05368,-0.0976,-0.04392,-0.02928,-0.0244
-0.04392,0.06832,-0.09272,-0.07076,-0.0488,0.00244,0,-0.04392,-0.0976,-0.04392,-0.02928,-0.0244
-0.04392,0.06832,-0.09272,-0.07076,-0.0488,0.00244,0,-0.04392,-0.0976,-0.04392,-0.02928,-0.0244
-0.04392,0.0732,-0.10248,-0.08052,-0.05856,0.00732,-0.00488,-0.05368,-0.0976,-0.04392,-0.01952,-0.01464
-0.04392,0.0732,-0.10248,-0.08052,-0.05856,0.00732,-0.00488,-0.05368,-0.0976,-0.03904,-0.01952,-0.01464
-0.03904,0.06344,-0.08784,-0.06832,-0.0488,0.00488,-0.00976,-0.05856,-0.08784,-0.04392,-0.0244,-0.01464
-0.03904,0.06344,-0.08784,-0.06832,-0.0488,0.00488,-0.00976,-0.05856,-0.08784,-0.04392,-0.01952,-0.01464
-0.03904,0.06588,-0.09272,-0.0732,-0.05368,0.00732,-0.00976,-0.0488,-0.09272,-0.03904,-0.02928,-0.0244
-0.03904,0.06588,-0.09272,-0.0732,-0.05368,0.00732,-0.01464,-0.0488,-0.09272,-0.02928,-0.02928,-0.0244
-0.03904,0.06588,-0.09272,-0.0732,-0.05368,0.00732,-0.00976,-0.0488,-0.08296,-0.01952,-0.00976,-0.00976
-0.03904,0.06832,-0.0976,-0.07808,-0.05856,0.00976,-0.00976,-0.0488,-0.08296,-0.01464,-0.00976,-0.00976
-0.04392,0.06832,-0.09272,-0.07076,-0.0488,0.00244,-0.00976,-0.0488,-0.08296,-0.0244,0,-0.00976
-0.04392,0.06832,-0.09272,-0.07076,-0.0488,0.00244,-0.01464,-0.05368,-0.07808,-0.01952,0,-0.00976
-0.03416,0.06344,-0.09272,-0.07564,-0.05856,0.0122,-0.02928,-0.05368,-0.08296,-0.0244,0,-0.00488
-0.03416,0.06344,-0.09272,-0.07564,-0.05856,0.0122,-0.02928,-0.05368,-0.08296,-0.0244,-0.00488,-0.00488
-0.04392,0.06832,-0.09272,-0.07076,-0.0488,0.00244,-0.03416,-0.05856,-0.09272,-0.03416,-0.01464,-0.00488
-0.03904,0.06588,-0.09272,-0.0732,-0.05368,0.00732,-0.03416,-0.05856,-0.09272,-0.03416,-0.01464,-0.01464
-0.03904,0.061,-0.08296,-0.06344,-0.04392,0.00244,-0.04392,-0.0732,-0.08296,-0.0244,-0.00488,-0.01952
-0.03904,0.061,-0.08296,-0.06344,-0.04392,0.00244,-0.04392,-0.0732,-0.08296,-0.0244,-0.00488,-0.01952
-0.02928,0.05856,-0.08784,-0.0732,-0.05856,0.01464,-0.03904,-0.0732,-0.08296,-0.01464,0,-0.00976
-0.02928,0.05856,-0.08784,-0.0732,-0.05856,0.01464,-0.03904,-0.0732,-0.08296,-0.00976,0,-0.00976
-0.03416,0.06344,-0.09272,-0.07564,-0.05856,0.0122,-0.03904,-0.0732,-0.09272,-0.01464,-0.00488,-0.00976
-0.02928,0.061,-0.09272,-0.07808,-0.06344,0.01708,-0.03904,-0.0732,-0.09272,-0.02928,-0.01464,-0.00976
-0.04392,0.07076,-0.0976,-0.07564,-0.05368,0.00488,-0.03904,-0.07808,-0.09272,-0.0244,-0.01464,-0.01952
-0.03904,0.06588,-0.09272,-0.0732,-0.05368,0.00732,-0.04392,-0.07808,-0.09272,-0.0244,-0.01464,-0.01464
-0.02928,0.061,-0.09272,-0.07808,-0.06344,0.01708,-0.03904,-0.07808,-0.09272,-0.01464,-0.01464,-0.00488
-0.03416,0.06344,-0.09272,-0.07564,-0.05856,0.0122,-0.04392,-0.07808,-0.09272,-0.01464,-0.00976,-0.00488
-0.04392,0.07564,-0.10736,-0.0854,-0.06344,0.00976,-0.03416,-0.0732,-0.08296,-0.01464,-0.00976,-0.00976
-0.03904,0.0732,-0.10736,-0.08784,-0.06832,0.01464,-0.03416,-0.06832,-0.08296,-0.01464,-0.01464,-0.00976
-0.03904,0.0732,-0.10736,-0.08784,-0.06832,0.01464,-0.03904,-0.08296,-0.09272,-0.0244,-0.00976,-0.00976
-0.03904,0.0732,-0.10736,-0.08784,-0.06832,0.01464,-0.04392,-0.08296,-0.09272,-0.0244,-0.00976,-0.00976
-0.03904,0.06832,-0.0976,-0.07808,-0.05856,0.00976,-0.04392,-0.0732,-0.08296,-0.01464,-0.00976,-0.00976
-0.03904,0.06832,-0.0976,-0.07808,-0.05856,0.00976,-0.03904,-0.07808,-0.07808,-0.01952,-0.00976,-0.01952
-0.03904,0.06832,-0.0976,-0.07808,-0.05856,0.00976,-0.03904,-0.07808,-0.08784,-0.01952,-0.01952,-0.01952
-0.03904,0.06832,-0.0976,-0.07808,-0.05856,0.00976,-0.03904,-0.07808,-0.08784,-0.01952,-0.01952,-0.01952
-0.03904,0.07564,-0.11224,-0.09272,-0.0732,0.01708,-0.03904,-0.07808,-0.08784,-0.00976,-0.00976,-0.00976
-0.03416,0.07076,-0.10736,-0.09028,-0.0732,0.01952,-0.03904,-0.07808,-0.08784,-0.00488,0,-0.00488
-0.03904,0.06832,-0.0976,-0.07808,-0.05856,0.00976,-0.04392,-0.07808,-0.08784,-0.01464,-0.00976,-0.00488
-0.03904,0.06588,-0.09272,-0.0732,-0.05368,0.00732,-0.03904,-0.0732,-0.08784,-0.01464,-0.00488,-0.00488
-0.03416,0.05856,-0.08296,-0.06588,-0.0488,0.00732,-0.04392,-0.07808,-0.08296,-0.0244,-0.00488,-0.00488
-0.03416,0.05856,-0.08296,-0.06588,-0.0488,0.00732,-0.03904,-0.0732,-0.0732,-0.0244,0,0
-0.02928,0.05612,-0.08296,-0.06832,-0.05368,0.0122,-0.01952,-0.05368,-0.06832,0,0.01464,0.00488
-0.01952,0.0488,-0.07808,-0.06832,-0.05856,0.01952,0,-0.04392,-0.05856,0.01952,0.0244,0.01464
-0.01464,0.0366,-0.05856,-0.05124,-0.04392,0.01464,0.00976,-0.04392,-0.0488,0.0244,0.0244,0.00976
-0.00976,0.02928,-0.0488,-0.04392,-0.03904,0.01464,0.0244,-0.01952,-0.03416,0.03904,0.03416,0.01464
-0.00976,0.02928,-0.0488,-0.04392,-0.03904,0.01464,0.03416,0,-0.0244,0.04392,0.0488,0.02928
-0.00488,0.0244,-0.04392,-0.04148,-0.03904,0.01708,0.03904,0.00488,-0.0244,0.0488,0.0488,0.02928
-0.00976,0.02684,-0.04392,-0.03904,-0.03416,0.0122,0.03904,0.01464,-0.01464,0.05856,0.05368,0.03904
-0.00488,0.0244,-0.04392,-0.04148,-0.03904,0.01708,0.00488,0,-0.0244,0.05368,0.05368,0.04392
0.00976,0.01708,-0.04392,-0.0488,-0.05368,0.03172,-0.03416,-0.02928,-0.04392,0.03904,0.04392,0.03416
0.00976,0.01464,-0.03904,-0.04392,-0.0488,0.02928,-0.05368,-0.0488,-0.05368,0.02928,0.04392,0.03904
0.00976,0.0122,-0.03416,-0.03904,-0.04392,0.02684,-0.05856,-0.06344,-0.05368,0.0244,0.03416,0.0488
0.00976,0.0122,-0.03416,-0.03904,-0.04392,0.02684,-0.06344,-0.07808,-0.06344,0.01952,0.03416,0.0488
0.00976,0.00732,-0.0244,-0.02928,-0.03416,0.02196,-0.06832,-0.08784,-0.07808,0.01464,0.03416,0.04392
0.00976,0.00732,-0.0244,-0.02928,-0.03416,0.02196,-0.0732,-0.08784,-0.0732,0.00976,0.03904,0.04392
0.01464,0.00976,-0.03416,-0.04148,-0.0488,0.03172,-0.08296,-0.0976,-0.08784,0.01464,0.03416,0.03416
0.01464,0.02196,-0.05856,-0.06588,-0.0732,0.04392,-0.08784,-0.10248,-0.09272,0.00488,0.0244,0.02928
0,0.04636,-0.09272,-0.09272,-0.09272,0.04636,-0.08296,-0.10248,-0.09272,-0.00488,0.00976,0.01464
-0.01464,0.05856,-0.10248,-0.09516,-0.08784,0.0366,-0.08296,-0.10736,-0.10248,-0.00976,0.00488,0.00488
-0.01464,0.061,-0.10736,-0.10004,-0.09272,0.03904,-0.08296,-0.10736,-0.10248,-0.01464,0.00488,0
-0.03904,0.0732,-0.10736,-0.08784,-0.06832,0.01464,-0.06832,-0.0976,-0.08784,-0.01464,0.00488,0
-0.0488,0.07808,-0.10736,-0.08296,-0.05856,0.00488,-0.05368,-0.08784,-0.08784,-0.00488,0.01464,-0.00976
-0.0488,0.08296,-0.11712,-0.09272,-0.06832,0.00976,-0.05368,-0.08784,-0.09272,-0.00488,0.00488,-0.01464
-0.0488,0.0854,-0.122,-0.0976,-0.0732,0.0122,-0.05856,-0.10248,-0.11224,-0.01952,-0.00488,-0.01464
-0.0488,0.09028,-0.13176,-0.10736,-0.08296,0.01708,-0.05856,-0.10736,-0.11712,-0.01952,-0.01464,-0.01952
-0.0488,0.09272,-0.13664,-0.11224,-0.08784,0.01952,-0.05856,-0.10736,-0.11712,-0.0244,-0.00488,-0.02928
-0.0488,0.09272,-0.13664,-0.11224,-0.08784,0.01952,-0.05856,-0.10736,-0.11712,-0.0244,-0.00488,-0.02928
-0.05368,0.09272,-0.13176,-0.10492,-0.07808,0.0122,-0.05856,-0.10736,-0.10736,-0.01952,-0.00488,-0.01952
-0.05368,0.09272,-0.13176,-0.10492,-0.07808,0.0122,-0.05856,-0.10736,-0.10736,-0.0244,-0.00488,-0.01952
-0.04392,0.0854,-0.12688,-0.10492,-0.08296,0.01952,-0.05856,-0.10736,-0.11224,-0.03416,-0.00488,-0.0244
-0.04392,0.0854,-0.12688,-0.10492,-0.08296,0.01952,-0.05856,-0.10248,-0.11224,-0.03416,0,-0.0244
-0.05368,0.09516,-0.13664,-0.1098,-0.08296,0.01464,-0.05368,-0.10248,-0.10248,-0.01952,0,-0.0244
-0.05368,0.09516,-0.13664,-0.1098,-0.08296,0.01464,-0.05368,-0.0976,-0.0976,-0.01464,0,-0.01952
-0.05368,0.09272,-0.13176,-0.10492,-0.07808,0.0122,-0.0488,-0.08784,-0.10248,-0.01464,0,-0.0244
-0.04392,0.08296,-0.122,-0.10004,-0.07808,0.01708,-0.04392,-0.07808,-0.09272,-0.01464,-0.00976,-0.0244
-0.06344,0.0976,-0.13176,-0.10004,-0.06832,0.00244,-0.00976,-0.0488,-0.06832,0,0,-0.0244
-0.06344,0.09028,-0.11712,-0.0854,-0.05368,-0.00488,0.03904,0,-0.05856,-0.00488,-0.01952,-0.0488
-0.0976,0.11468,-0.13176,-0.08296,-0.03416,-0.03172,0.10248,0.05856,-0.03416,-0.00976,-0.04392,-0.0732
-0.09272,0.11224,-0.13176,-0.0854,-0.03904,-0.02684,0.11224,0.03416,-0.08296,-0.0488,-0.06344,-0.09272
-0.10248,0.13664,-0.1708,-0.11956,-0.06832,-0.01708,0.122,0.04392,-0.11224,-0.09272,-0.08784,-0.10736
-0.01952,0.03904,-0.05856,-0.0488,-0.03904,0.00976,0.0732,0.08296,-0.01952,0.02928,0.04392,-0.00488
0.11224,-0.09516,0.07808,0.02196,-0.03416,0.0732,0.04392,0.19032,0.15616,0.2684,0.25376,0.18544
0.2928,-0.3294,0.366,0.2196,0.0732,0.1098,0.01464,0.42944,0.50264,0.66856,0.61,0.46848
0.47824,-0.5856,0.69296,0.45384,0.21472,0.13176,-0.01952,0.7076,1.01016,1.20536,1.06384,0.81984
0.64904,-0.84424,1.03944,0.71492,0.3904,0.12932,-0.20496,0.64416,1.44936,1.71776,1.49816,1.16144
0.77104,-1.01992,1.2688,0.88328,0.49776,0.13664,-0.30744,0.69296,2.04472,2.29848,1.88368,1.46888
0.78568,-1.037,1.28832,0.89548,0.50264,0.14152,-0.40992,0.84424,2.52296,2.6352,2.06912,1.60064
0.66856,-0.92476,1.18096,0.84668,0.5124,0.07808,-0.38064,0.86376,2.71816,2.63032,2.0008,1.55672
0.40504,-0.64416,0.88328,0.68076,0.47824,-0.0366,-0.20984,0.5612,1.76168,1.57624,1.36152,1.1956
0.1464,-0.39528,0.64416,0.57096,0.49776,-0.17568,-0.19032,-0.07808,0.47824,0.56608,0.80032,0.85888
-0.04392,-0.16348,0.37088,0.39284,0.4148,-0.22936,-0.3904,-0.81984,-0.38064,-0.01952,0.3904,0.53192
-0.11712,0.00488,0.10736,0.16592,0.22448,-0.1708,-0.40992,-0.76128,-0.45872,-0.19032,0.0976,0.21472
-0.16104,0.10248,-0.04392,0.0366,0.11712,-0.13908,-0.3416,-0.6344,-0.43432,-0.23424,-0.03904,0.03904
-0.17568,0.15616,-0.13664,-0.0488,0.03904,-0.10736,-0.2684,-0.49288,-0.33184,-0.1952,-0.07808,-0.03904
-0.16592,0.183,-0.20008,-0.11712,-0.03416,-0.06588,-0.22936,-0.37576,-0.27816,-0.18056,-0.0976,-0.08784
-0.12688,0.15372,-0.18056,-0.11712,-0.05368,-0.0366,-0.1708,-0.25864,-0.2196,-0.122,-0.07808,-0.08296
-0.09272,0.122,-0.15128,-0.10492,-0.05856,-0.01708,-0.122,-0.18056,-0.1708,-0.10248,-0.06344,-0.06832
-0.08784,0.11712,-0.1464,-0.10248,-0.05856,-0.01464,-0.05368,-0.0976,-0.11712,-0.06344,-0.02928,-0.04392
-0.08784,0.11468,-0.14152,-0.0976,-0.05368,-0.01708,-0.02928,-0.08296,-0.10248,-0.05856,-0.0244,-0.05368
-0.08784,0.11468,-0.14152,-0.0976,-0.05368,-0.01708,-0.02928,-0.0732,-0.10248,-0.05856,-0.03416,-0.06344
-0.08784,0.11712,-0.1464,-0.10248,-0.05856,-0.01464,-0.01952,-0.06832,-0.10248,-0.05368,-0.03416,-0.06344
-0.08296,0.11712,-0.15128,-0.1098,-0.06832,-0.00732,-0.01952,-0.06832,-0.10248,-0.05368,-0.03904,-0.05856
-0.0732,0.11712,-0.16104,-0.12444,-0.08784,0.00732,-0.01464,-0.05856,-0.10248,-0.05368,-0.03416,-0.06832
-0.0732,0.11712,-0.16104,-0.12444,-0.08784,0.00732,-0.01464,-0.0488,-0.0976,-0.0488,-0.03416,-0.06832
-0.06832,0.1098,-0.15128,-0.11712,-0.08296,0.00732,-0.0244,-0.05368,-0.10736,-0.0488,-0.03416,-0.06832
-0.06832,0.1098,-0.15128,-0.11712,-0.08296,0.00732,-0.01952,-0.0488,-0.10248,-0.04392,-0.03416,-0.06832
-0.07808,0.11712,-0.15616,-0.11712,-0.07808,0,-0.01952,-0.05856,-0.10248,-0.05368,-0.04392,-0.0732
-0.07808,0.11468,-0.15128,-0.11224,-0.0732,-0.00244,-0.01952,-0.05368,-0.10736,-0.05368,-0.04392,-0.0732
-0.06832,0.1098,-0.15128,-0.11712,-0.08296,0.00732,-0.01952,-0.04392,-0.0976,-0.05368,-0.03416,-0.0732
-0.06832,0.1098,-0.15128,-0.11712,-0.08296,0.00732,-0.01952,-0.04392,-0.0976,-0.05368,-0.02928,-0.0732
-0.07808,0.122,-0.16592,-0.12688,-0.08784,0.00488,-0.00976,-0.03904,-0.0976,-0.04392,-0.02928,-0.06344
-0.07808,0.122,-0.16592,-0.12688,-0.08784,0.00488,-0.00976,-0.03904,-0.0976,-0.04392,-0.02928,-0.06344
-0.06832,0.11224,-0.15616,-0.122,-0.08784,0.00976,-0.00488,-0.04392,-0.0976,-0.05856,-0.03416,-0.0732
-0.06832,0.11224,-0.15616,-0.122,-0.08784,0.00976,-0.00488,-0.04392,-0.0976,-0.05856,-0.03904,-0.07808
-0.05856,0.10736,-0.15616,-0.12688,-0.0976,0.01952,-0.00488,-0.03416,-0.10248,-0.05856,-0.03904,-0.06832
-0.06344,0.1098,-0.15616,-0.12444,-0.09272,0.01464,0,-0.02928,-0.10248,-0.05856,-0.04392,-0.06832
-0.0732,0.122,-0.1708,-0.1342,-0.0976,0.0122,0,-0.02928,-0.0976,-0.05368,-0.03416,-0.07808
-0.08296,0.12688,-0.1708,-0.12932,-0.08784,0.00244,0.00488,-0.0244,-0.09272,-0.05368,-0.03416,-0.07808
-0.08296,0.122,-0.16104,-0.11956,-0.07808,-0.00244,0,-0.02928,-0.09272,-0.06344,-0.04392,-0.07808
-0.08296,0.122,-0.16104,-0.11956,-0.07808,-0.00244,0,-0.02928,-0.0976,-0.05856,-0.04392,-0.07808
-0.0732,0.11712,-0.16104,-0.12444,-0.08784,0.00732,0.00976,-0.01952,-0.0976,-0.06344,-0.04392,-0.07808
-0.0732,0.11712,-0.16104,-0.12444,-0.08784,0.00732,0.01464,-0.01464,-0.09272,-0.06344,-0.04392,-0.07808
-0.0732,0.11712,-0.16104,-0.12444,-0.08784,0.00732,0.01464,-0.0244,-0.10248,-0.0732,-0.0488,-0.07808
-0.07808,0.11956,-0.16104,-0.122,-0.08296,0.00244,0.01952,-0.01464,-0.11224,-0.0732,-0.0488,-0.07808
-0.07808,0.11956,-0.16104,-0.122,-0.08296,0.00244,0.00976,-0.01464,-0.10248,-0.0732,-0.0488,-0.08296
-0.07808,0.11712,-0.15616,-0.11712,-0.07808,0,0.01952,-0.00976,-0.09272,-0.0732,-0.0488,-0.08296
-0.07808,0.12444,-0.1708,-0.13176,-0.09272,0.00732,0.0244,0.00488,-0.08784,-0.05856,-0.04392,-0.07808
-0.07808,0.12444,-0.1708,-0.13176,-0.09272,0.00732,0.03416,0.01464,-0.08784,-0.05368,-0.04392,-0.07808
-0.07808,0.11956,-0.16104,-0.122,-0.08296,0.00244,0.03416,0.00976,-0.0732,-0.05856,-0.03904,-0.06344
-0.07808,0.11712,-0.15616,-0.11712,-0.07808,0,0.03904,0.01952,-0.06832,-0.05856,-0.03904,-0.06344
-0.08296,0.11956,-0.15616,-0.11468,-0.0732,-0.00488,0.0488,0.03416,-0.05856,-0.04392,-0.03416,-0.06832
-0.08296,0.11956,-0.15616,-0.11468,-0.0732,-0.00488,0.05368,0.04392,-0.0488,-0.03416,-0.03416,-0.06832
-0.07808,0.11468,-0.15128,-0.11224,-0.0732,-0.00244,0.06344,0.06832,-0.03904,-0.03416,-0.01952,-0.06344
-0.0732,0.10736,-0.14152,-0.10492,-0.06832,-0.00244,0.06832,0.07808,-0.02928,-0.02928,-0.01952,-0.06344
-0.06344,0.10248,-0.14152,-0.1098,-0.07808,0.00732,0.07808,0.0976,-0.00976,-0.00976,-0.00976,-0.04392
-0.05856,0.09516,-0.13176,-0.10248,-0.0732,0.00732,0.08296,0.11712,0.00976,0.00488,-0.00488,-0.04392
-0.06832,0.10004,-0.13176,-0.0976,-0.06344,-0.00244,0.09272,0.12688,0.02928,0.01952,0.00488,-0.03904
-0.06832,0.09272,-0.11712,-0.08296,-0.0488,-0.00976,0.10248,0.15128,0.0488,0.03416,0.01464,-0.02928
-0.06344,0.08784,-0.11224,-0.08052,-0.0488,-0.00732,0.11224,0.18056,0.08784,0.06344,0.04392,-0.0244
-0.05856,0.08052,-0.10248,-0.0732,-0.04392,-0.00732,0.11224,0.20008,0.11712,0.07808,0.0488,-0.01464
-0.05368,0.07808,-0.10248,-0.07564,-0.0488,-0.00244,0.12688,0.22448,0.13664,0.0976,0.06344,-0.00488
-0.0488,0.06832,-0.08784,-0.06344,-0.03904,-0.00488,0.13176,0.24888,0.16104,0.11224,0.05856,0.00488
-0.04392,0.05612,-0.06832,-0.04636,-0.0244,-0.00976,0.122,0.27816,0.20008,0.1464,0.08296,0.00976
-0.03416,0.04392,-0.05368,-0.0366,-0.01952,-0.00732,0.13176,0.29768,0.23912,0.1708,0.10248,0.0244
-0.0244,0.03172,-0.03904,-0.02684,-0.01464,-0.00488,0.14152,0.3172,0.26352,0.20008,0.11712,0.04392
-0.0244,0.02684,-0.02928,-0.01708,-0.00488,-0.00976,0.1464,0.3416,0.2928,0.22936,0.13176,0.05856
-0.01952,0.01708,-0.01464,-0.00488,0.00488,-0.0122,0.15128,0.35624,0.32208,0.23912,0.15128,0.0732
-0.01464,0.00976,-0.00488,0.00244,0.00976,-0.0122,0.15128,0.37088,0.35136,0.2684,0.1708,0.09272
-0.01464,0,0.01464,0.02196,0.02928,-0.02196,0.15616,0.3904,0.39528,0.28792,0.19032,0.10248
0,-0.0122,0.0244,0.0244,0.0244,-0.0122,0.16104,0.40992,0.4148,0.31232,0.20008,0.11224
0.00488,-0.01952,0.03416,0.03172,0.02928,-0.0122,0.16104,0.42944,0.44408,0.33184,0.22936,0.12688
0.01464,-0.03172,0.0488,0.04148,0.03416,-0.00976,0.16104,0.43432,0.46848,0.35136,0.24888,0.14152
0.0244,-0.04392,0.06344,0.05124,0.03904,-0.00732,0.15128,0.4392,0.47336,0.37088,0.25864,0.15128
0.02928,-0.0488,0.06832,0.05368,0.03904,-0.00488,0.1464,0.42944,0.46848,0.37088,0.25864,0.15616
0.02928,-0.05368,0.07808,0.06344,0.0488,-0.00976,0.1464,0.40504,0.44408,0.37088,0.25376,0.15616
0.03904,-0.06588,0.09272,0.0732,0.05368,-0.00732,0.13664,0.366,0.41968,0.35624,0.25376,0.15616
0.02928,-0.05124,0.0732,0.05856,0.04392,-0.00732,0.13664,0.33672,0.37576,0.33184,0.24888,0.1464
0.02928,-0.04636,0.06344,0.0488,0.03416,-0.00244,0.12688,0.29768,0.3416,0.30744,0.22936,0.13664
0.03416,-0.05124,0.06832,0.05124,0.03416,0,0.11224,0.25376,0.30256,0.2684,0.1952,0.11712
0.03416,-0.04636,0.05856,0.04148,0.0244,0.00488,0.10248,0.21472,0.26352,0.23912,0.18056,0.10248
0.01952,-0.02928,0.03904,0.02928,0.01952,0,0.09272,0.17568,0.22936,0.2196,0.17568,0.0976
0.01952,-0.0244,0.02928,0.01952,0.00976,0.00488,0.07808,0.14152,0.18544,0.19032,0.16592,0.08784
0,-0.00488,0.00976,0.00976,0.00976,-0.00488,0.05856,0.11224,0.1464,0.15616,0.13664,0.06344
-0.00488,0,0.00488,0.00732,0.00976,-0.00732,0.04392,0.07808,0.11712,0.13176,0.10248,0.05368
0.00488,0.00244,-0.00976,-0.0122,-0.01464,0.00976,0.04392,0.0488,0.07808,0.11224,0.10248,0.03904
-0.00488,0.0122,-0.01952,-0.01708,-0.01464,0.00488,0.03416,0.03416,0.06344,0.09272,0.0976,0.03416
-0.00488,0.0122,-0.01952,-0.01708,-0.01464,0.00488,0.0244,0.01952,0.03904,0.06832,0.06344,0.01464
-0.00488,0.01708,-0.02928,-0.02684,-0.0244,0.00976,0.01952,0,0.0244,0.05368,0.05368,0.00488
-0.01464,0.0244,-0.03416,-0.02684,-0.01952,0.00244,0.00976,-0.00976,0.00488,0.04392,0.0488,0.00488
-0.01464,0.0244,-0.03416,-0.02684,-0.01952,0.00244,0.00488,-0.01464,-0.00488,0.02928,0.04392,0
-0.01464,0.02684,-0.03904,-0.03172,-0.0244,0.00488,0.00488,-0.0244,-0.00976,0.02928,0.02928,-0.00488
-0.01952,0.03172,-0.04392,-0.03416,-0.0244,0.00244,0,-0.03416,-0.01952,0.02928,0.01952,-0.00976
-0.02928,0.04148,-0.05368,-0.03904,-0.0244,-0.00244,0,-0.03904,-0.0244,0.01952,0.02928,-0.00976
-0.03416,0.04392,-0.05368,-0.0366,-0.01952,-0.00732,0,-0.03904,-0.02928,0.01464,0.0244,-0.01464
-0.0244,0.03904,-0.05368,-0.04148,-0.02928,0.00244,0,-0.04392,-0.03904,0.00488,0.0244,-0.01464
-0.0244,0.04148,-0.05856,-0.04636,-0.03416,0.00488,0,-0.0488,-0.03904,0.00976,0.01952,-0.01952
-0.02928,0.04392,-0.05856,-0.04392,-0.02928,0,0,-0.04392,-0.04392,-0.00976,0.00976,-0.02928
-0.02928,0.04636,-0.06344,-0.0488,-0.03416,0.00244,0,-0.04392,-0.04392,-0.00976,0.00488,-0.02928
-0.03904,0.05612,-0.0732,-0.05368,-0.03416,-0.00244,0.00488,-0.0488,-0.03904,-0.00976,0.00976,-0.0244
-0.03904,0.05612,-0.0732,-0.05368,-0.03416,-0.00244,0.00488,-0.05368,-0.04392,-0.00976,0,-0.0244
-0.02928,0.0488,-0.06832,-0.05368,-0.03904,0.00488,-0.00488,-0.05856,-0.06344,-0.0244,-0.00976,-0.03416
-0.03416,0.05124,-0.06832,-0.05124,-0.03416,0,-0.00488,-0.05368,-0.06344,-0.0244,-0.01464,-0.03904
-0.03416,0.05124,-0.06832,-0.05124,-0.03416,0,0.00488,-0.06832,-0.06832,-0.03416,-0.01464,-0.03904
-0.03416,0.05368,-0.0732,-0.05612,-0.03904,0.00244,0.00488,-0.06832,-0.0732,-0.03904,-0.01952,-0.04392
-0.03904,0.05612,-0.0732,-0.05368,-0.03416,-0.00244,-0.00488,-0.06832,-0.08296,-0.03416,-0.03416,-0.03904
-0.03904,0.05612,-0.0732,-0.05368,-0.03416,-0.00244,-0.00488,-0.0732,-0.08296,-0.03904,-0.04392,-0.0488
-0.03904,0.061,-0.08296,-0.06344,-0.04392,0.00244,-0.00488,-0.0732,-0.0976,-0.04392,-0.02928,-0.05368
-0.03904,0.05856,-0.07808,-0.05856,-0.03904,0,-0.00976,-0.0732,-0.10248,-0.04392,-0.03416,-0.0488
-0.0488,0.06344,-0.07808,-0.05368,-0.02928,-0.00976,-0.00976,-0.07808,-0.09272,-0.0488,-0.03416,-0.05856
-0.0488,0.06344,-0.07808,-0.05368,-0.02928,-0.00976,-0.00488,-0.07808,-0.0976,-0.0488,-0.03904,-0.06344
-0.0488,0.06344,-0.07808,-0.05368,-0.02928,-0.00976,-0.00488,-0.07808,-0.10736,-0.05856,-0.03904,-0.06344
-0.0488,0.06588,-0.08296,-0.05856,-0.03416,-0.00732,-0.00488,-0.07808,-0.11224,-0.05856,-0.03416,-0.05856
-0.0488,0.07076,-0.09272,-0.06832,-0.04392,-0.00244,-0.00976,-0.08296,-0.10248,-0.05368,-0.03904,-0.05368
-0.05368,0.0732,-0.09272,-0.06588,-0.03904,-0.00732,-0.00976,-0.08296,-0.10736,-0.05368,-0.03904,-0.05368
-0.04392,0.06344,-0.08296,-0.061,-0.03904,-0.00244,-0.00976,-0.0732,-0.0976,-0.04392,-0.03904,-0.05368
-0.04392,0.06344,-0.08296,-0.061,-0.03904,-0.00244,-0.00976,-0.0732,-0.08784,-0.04392,-0.03904,-0.05368
-0.04392,0.06344,-0.08296,-0.061,-0.03904,-0.00244,-0.01464,-0.0732,-0.08784,-0.05368,-0.03904,-0.05368
-0.03904,0.05856,-0.07808,-0.05856,-0.03904,0,-0.01464,-0.0732,-0.08784,-0.0488,-0.03904,-0.05368
-0.03904,0.06344,-0.08784,-0.06832,-0.0488,0.00488,-0.01952,-0.07808,-0.0976,-0.05368,-0.03416,-0.05368
-0.03904,0.06344,-0.08784,-0.06832,-0.0488,0.00488,-0.01952,-0.07808,-0.0976,-0.05368,-0.02928,-0.05368
-0.02928,0.05124,-0.0732,-0.05856,-0.04392,0.00732,-0.0244,-0.08784,-0.09272,-0.05368,-0.03904,-0.05368
-0.02928,0.05124,-0.0732,-0.05856,-0.04392,0.00732,-0.01952,-0.08784,-0.09272,-0.0488,-0.03416,-0.05368
-0.02928,0.05124,-0.0732,-0.05856,-0.04392,0.00732,-0.02928,-0.08784,-0.09272,-0.04392,-0.02928,-0.0488
-0.0244,0.05124,-0.07808,-0.06588,-0.05368,0.01464,-0.02928,-0.08784,-0.09272,-0.04392,-0.02928,-0.0488
-0.0244,0.0488,-0.0732,-0.061,-0.0488,0.0122,-0.02928,-0.0976,-0.10248,-0.0488,-0.02928,-0.05856
-0.0244,0.0488,-0.0732,-0.061,-0.0488,0.0122,-0.03416,-0.10248,-0.0976,-0.0488,-0.02928,-0.05856
-0.0244,0.0488,-0.0732,-0.061,-0.0488,0.0122,-0.03904,-0.09272,-0.09272,-0.05368,-0.03416,-0.05368
-0.0244,0.0488,-0.0732,-0.061,-0.0488,0.0122,-0.04392,-0.0976,-0.09272,-0.05368,-0.03416,-0.0488
-0.0244,0.05368,-0.08296,-0.07076,-0.05856,0.01708,-0.04392,-0.0976,-0.09272,-0.05368,-0.0244,-0.0488
-0.01952,0.05124,-0.08296,-0.0732,-0.06344,0.02196,-0.04392,-0.10248,-0.09272,-0.05368,-0.0244,-0.0488
-0.01952,0.04636,-0.0732,-0.06344,-0.05368,0.01708,-0.03416,-0.09272,-0.09272,-0.05368,-0.0244,-0.0488
-0.01952,0.04636,-0.0732,-0.06344,-0.05368,0.01708,-0.03904,-0.09272,-0.09272,-0.05368,-0.02928,-0.0488
-0.02928,0.05368,-0.07808,-0.06344,-0.0488,0.00976,-0.0488,-0.10248,-0.08296,-0.05368,-0.02928,-0.0488
-0.03416,0.05368,-0.0732,-0.05612,-0.03904,0.00244,-0.0488,-0.10248,-0.08296,-0.0488,-0.02928,-0.0488
-0.0244,0.0488,-0.0732,-0.061,-0.0488,0.0122,-0.0488,-0.10248,-0.09272,-0.05368,-0.03904,-0.0488
-0.01952,0.0488,-0.07808,-0.06832,-0.05856,0.01952,-0.0488,-0.10248,-0.10248,-0.05368,-0.03416,-0.0488
-0.0244,0.0488,-0.0732,-0.061,-0.0488,0.0122,-0.04392,-0.10736,-0.09272,-0.05368,-0.03416,-0.05856
-0.01952,0.04636,-0.0732,-0.06344,-0.05368,0.01708,-0.04392,-0.10736,-0.09272,-0.05368,-0.03416,-0.05368
-0.01952,0.04636,-0.0732,-0.06344,-0.05368,0.01708,-0.03904,-0.10736,-0.10248,-0.05368,-0.03904,-0.05368
-0.0244,0.05124,-0.07808,-0.06588,-0.05368,0.01464,-0.04392,-0.10736,-0.10248,-0.05368,-0.03904,-0.05856
-0.02928,0.05368,-0.07808,-0.06344,-0.0488,0.00976,-0.04392,-0.11224,-0.09272,-0.05368,-0.04392,-0.05856
-0.02928,0.05368,-0.07808,-0.06344,-0.0488,0.00976,-0.04392,-0.10736,-0.09272,-0.05368,-0.04392,-0.05856
-0.02928,0.05368,-0.07808,-0.06344,-0.0488,0.00976,-0.0488,-0.11224,-0.10248,-0.05368,-0.03904,-0.05856
-0.02928,0.05368,-0.07808,-0.06344,-0.0488,0.00976,-0.05368,-0.11224,-0.10248,-0.05368,-0.03904,-0.05856
-0.01952,0.0488,-0.07808,-0.06832,-0.05856,0.01952,-0.0488,-0.11224,-0.09272,-0.05368,-0.03416,-0.05856
-0.01952,0.0488,-0.07808,-0.06832,-0.05856,0.01952,-0.0488,-0.10736,-0.0976,-0.0488,-0.03904,-0.05856
-0.02928,0.05368,-0.07808,-0.06344,-0.0488,0.00976,-0.0488,-0.11712,-0.10736,-0.05856,-0.03904,-0.05856
-0.02928,0.05368,-0.07808,-0.06344,-0.0488,0.00976,-0.0488,-0.11712,-0.10736,-0.05856,-0.03904,-0.05856
-0.02928,0.05612,-0.08296,-0.06832,-0.05368,0.0122,-0.0488,-0.11712,-0.10736,-0.06832,-0.03904,-0.05856
-0.0244,0.05124,-0.07808,-0.06588,-0.05368,0.01464,-0.0488,-0.11712,-0.10736,-0.06344,-0.03904,-0.05368
-0.02928,0.05368,-0.07808,-0.06344,-0.0488,0.00976,-0.04392,-0.10736,-0.0976,-0.06344,-0.0488,-0.06344
-0.02928,0.05124,-0.0732,-0.05856,-0.04392,0.00732,-0.03904,-0.10248,-0.0976,-0.06344,-0.04392,-0.06344
-0.01464,0.03904,-0.06344,-0.05612,-0.0488,0.01708,-0.03416,-0.10736,-0.10248,-0.05368,-0.04392,-0.06344
-0.01464,0.03904,-0.06344,-0.05612,-0.0488,0.01708,-0.02928,-0.10248,-0.09272,-0.05368,-0.03904,-0.05856
-0.01952,0.0366,-0.05368,-0.04392,-0.03416,0.00732,-0.01952,-0.09272,-0.07808,-0.0488,-0.03416,-0.05368
-0.00976,0.02928,-0.0488,-0.04392,-0.03904,0.01464,-0.00976,-0.08296,-0.06832,-0.03904,-0.0244,-0.04392
0.00488,0.0122,-0.02928,-0.03172,-0.03416,0.01952,0,-0.06344,-0.05856,-0.03416,-0.01464,-0.03904
0.00976,0.00488,-0.01952,-0.0244,-0.02928,0.01952,0.01464,-0.03904,-0.04392,-0.01952,-0.00488,-0.03416
0.00976,0.00488,-0.01952,-0.0244,-0.02928,0.01952,0.0244,-0.03904,-0.04392,-0.01464,0,-0.01952
0.01464,0,-0.01464,-0.02196,-0.02928,0.02196,0.02928,-0.03416,-0.04392,-0.00976,0,-0.01952
0.00976,0.00244,-0.01464,-0.01952,-0.0244,0.01708,0.01952,-0.03416,-0.03416,-0.00976,-0.00488,-0.02928
0.01464,0,-0.01464,-0.02196,-0.02928,0.02196,-0.01464,-0.0488,-0.04392,-0.01464,-0.00488,-0.0244
0.01952,-0.00732,-0.00488,-0.01464,-0.0244,0.02196,-0.03416,-0.07808,-0.05368,-0.01952,-0.00488,-0.01464
0.01952,-0.00976,0,-0.00976,-0.01952,0.01952,-0.05368,-0.0976,-0.06344,-0.01952,-0.00488,-0.00976
0.01952,-0.00732,-0.00488,-0.01464,-0.0244,0.02196,-0.06832,-0.10248,-0.08296,-0.03416,-0.00488,-0.00976
0.01952,-0.00732,-0.00488,-0.01464,-0.0244,0.02196,-0.0732,-0.11712,-0.09272,-0.03904,-0.00488,-0.00976
0.02928,-0.0122,-0.00488,-0.01952,-0.03416,0.03172,-0.07808,-0.12688,-0.0976,-0.03416,-0.01464,-0.00488
0.02928,-0.0122,-0.00488,-0.01952,-0.03416,0.03172,-0.08296,-0.12688,-0.09272,-0.03904,-0.00976,-0.00488
0.03416,-0.00976,-0.01464,-0.03172,-0.0488,0.04148,-0.08296,-0.13664,-0.10736,-0.05368,-0.0244,-0.0244
0.03416,0.00244,-0.03904,-0.05612,-0.0732,0.05368,-0.08784,-0.14152,-0.11224,-0.06344,-0.03416,-0.02928
0.01952,0.02196,-0.06344,-0.0732,-0.08296,0.05124,-0.08296,-0.14152,-0.11224,-0.0732,-0.0488,-0.04392
0.00488,0.03416,-0.0732,-0.07564,-0.07808,0.04148,-0.08296,-0.1464,-0.122,-0.07808,-0.05368,-0.05368
0.00488,0.0366,-0.07808,-0.08052,-0.08296,0.04392,-0.08296,-0.1464,-0.122,-0.0732,-0.05368,-0.0488
-0.01952,0.0488,-0.07808,-0.06832,-0.05856,0.01952,-0.06832,-0.13664,-0.10736,-0.0732,-0.05368,-0.0488
-0.02928,0.05368,-0.07808,-0.06344,-0.0488,0.00976,-0.06344,-0.12688,-0.10736,-0.0732,-0.05368,-0.06832
-0.02928,0.05856,-0.08784,-0.0732,-0.05856,0.01464,-0.06344,-0.12688,-0.11224,-0.08296,-0.06344,-0.0732
-0.02928,0.06588,-0.10248,-0.08784,-0.0732,0.02196,-0.06832,-0.14152,-0.13176,-0.0976,-0.06344,-0.0732
-0.02928,0.07076,-0.11224,-0.0976,-0.08296,0.02684,-0.06832,-0.1464,-0.13664,-0.0976,-0.0732,-0.07808
-0.02928,0.06832,-0.10736,-0.09272,-0.07808,0.0244,-0.06832,-0.1464,-0.13664,-0.10248,-0.0732,-0.07808
-0.02928,0.06832,-0.10736,-0.09272,-0.07808,0.0244,-0.06832,-0.1464,-0.13664,-0.10248,-0.0732,-0.07808
-0.03416,0.0732,-0.11224,-0.09516,-0.07808,0.02196,-0.05856,-0.13664,-0.12688,-0.0976,-0.0732,-0.07808
-0.03416,0.0732,-0.11224,-0.09516,-0.07808,0.02196,-0.05856,-0.13664,-0.12688,-0.10248,-0.0732,-0.07808
-0.03416,0.06588,-0.0976,-0.08052,-0.06344,0.01464,-0.06832,-0.1464,-0.13176,-0.10248,-0.0732,-0.08296
-0.03416,0.06588,-0.0976,-0.08052,-0.06344,0.01464,-0.06832,-0.14152,-0.13176,-0.10248,-0.06832,-0.08296
-0.03416,0.07076,-0.10736,-0.09028,-0.0732,0.01952,-0.06344,-0.14152,-0.13176,-0.10736,-0.07808,-0.08296
-0.03416,0.07076,-0.10736,-0.09028,-0.0732,0.01952,-0.06344,-0.13664,-0.12688,-0.10248,-0.07808,-0.07808
-0.03416,0.05856,-0.08296,-0.06588,-0.0488,0.00732,-0.06832,-0.12688,-0.13176,-0.10248,-0.07808,-0.08296
-0.03416,0.06344,-0.09272,-0.07564,-0.05856,0.0122,-0.04392,-0.10736,-0.11224,-0.09272,-0.07808,-0.08296
-0.04392,0.06832,-0.09272,-0.07076,-0.0488,0.00244,-0.01952,-0.07808,-0.08784,-0.08784,-0.07808,-0.08296
-0.05368,0.07564,-0.0976,-0.07076,-0.04392,-0.00488,0.0488,-0.00976,-0.08784,-0.09272,-0.0976,-0.10736
-0.07808,0.09028,-0.10248,-0.06344,-0.0244,-0.02684,0.10248,0.00976,-0.0732,-0.0976,-0.10248,-0.122
-0.09272,0.11224,-0.13176,-0.0854,-0.03904,-0.02684,0.10248,-0.0244,-0.14152,-0.15616,-0.15128,-0.1708
-0.0732,0.09272,-0.11224,-0.07564,-0.03904,-0.01708,0.09272,-0.00488,-0.13176,-0.15128,-0.12688,-0.1464
0.03904,-0.01464,-0.00976,-0.02928,-0.0488,0.04392,0.05368,0.08296,0.01952,0.03904,0.04392,-0.00488
0.18056,-0.16836,0.15616,0.06588,-0.0244,0.10248,0.03416,0.20984,0.22448,0.27816,0.26352,0.17568
0.37088,-0.43676,0.50264,0.3172,0.13176,0.11956,0.0244,0.51728,0.64904,0.74664,0.66856,0.49776
0.56608,-0.69784,0.8296,0.54656,0.26352,0.15128,-0.05856,0.68808,1.11752,1.2444,1.0736,0.8296
0.73688,-0.93208,1.12728,0.75884,0.3904,0.17324,-0.244,0.6344,1.586,1.78608,1.51768,1.19072
0.8296,-1.0492,1.2688,0.854,0.4392,0.1952,-0.33672,0.81984,2.16184,2.27896,1.81536,1.41032
0.82472,-1.04188,1.25904,0.84668,0.43432,0.1952,-0.40016,0.98088,2.55224,2.49856,1.9032,1.47376
0.64904,-0.87596,1.10288,0.77836,0.45384,0.0976,-0.31232,0.89304,2.44488,2.21064,1.67872,1.35176
0.37576,-0.5856,0.79544,0.60756,0.41968,-0.02196,-0.2196,0.43432,1.18584,1.01016,1.0004,0.98088
0.13664,-0.3416,0.54656,0.47824,0.40992,-0.13664,-0.35624,-0.42944,0.0488,0.22448,0.55632,0.6832
-0.04392,-0.12444,0.2928,0.31476,0.33672,-0.19032,-0.49776,-0.91744,-0.50752,-0.1952,0.1952,0.366
-0.11712,0.0244,0.06832,0.12688,0.18544,-0.15128,-0.40016,-0.732,-0.46848,-0.28792,-0.03904,0.0976
-0.15128,0.10248,-0.05368,0.02196,0.0976,-0.12444,-0.3416,-0.61488,-0.43432,-0.30256,-0.13664,-0.02928
-0.1464,0.15128,-0.15616,-0.08296,-0.00976,-0.06832,-0.28792,-0.47336,-0.35136,-0.28304,-0.16592,-0.10736
-0.1464,0.15372,-0.16104,-0.08784,-0.01464,-0.06588,-0.20008,-0.34648,-0.27816,-0.23912,-0.16592,-0.13664
-0.08784,0.1098,-0.13176,-0.08784,-0.04392,-0.02196,-0.13176,-0.23912,-0.20008,-0.18056,-0.12688,-0.11224
-0.0732,0.09272,-0.11224,-0.07564,-0.03904,-0.01708,-0.10248,-0.18056,-0.16104,-0.15128,-0.122,-0.10736
-0.05856,0.08296,-0.10736,-0.07808,-0.0488,-0.00488,-0.04392,-0.12688,-0.12688,-0.13176,-0.0976,-0.09272
-0.05856,0.0854,-0.11224,-0.08296,-0.05368,-0.00244,-0.01952,-0.10248,-0.13176,-0.13664,-0.10248,-0.10248
-0.05856,0.0854,-0.11224,-0.08296,-0.05368,-0.00244,-0.01952,-0.09272,-0.13176,-0.1464,-0.11224,-0.11224
-0.05856,0.08784,-0.11712,-0.08784,-0.05856,0,-0.02928,-0.0976,-0.13176,-0.15128,-0.11224,-0.11224
-0.05368,0.08784,-0.122,-0.09516,-0.06832,0.00732,-0.02928,-0.0976,-0.13176,-0.15128,-0.11712,-0.10736
-0.06344,0.09272,-0.122,-0.09028,-0.05856,-0.00244,-0.0244,-0.0976,-0.13176,-0.15128,-0.122,-0.11712
-0.06344,0.09272,-0.122,-0.09028,-0.05856,-0.00244,-0.0244,-0.0976,-0.12688,-0.1464,-0.122,-0.11712
-0.05856,0.09028,-0.122,-0.09272,-0.06344,0.00244,-0.0244,-0.08296,-0.12688,-0.13664,-0.11224,-0.11712
-0.05856,0.09028,-0.122,-0.09272,-0.06344,0.00244,-0.01952,-0.07808,-0.122,-0.13176,-0.11224,-0.11712
-0.0488,0.08784,-0.12688,-0.10248,-0.07808,0.01464,-0.01952,-0.07808,-0.122,-0.14152,-0.122,-0.122
-0.0488,0.0854,-0.122,-0.0976,-0.0732,0.0122,-0.01952,-0.0732,-0.12688,-0.14152,-0.122,-0.122
-0.05856,0.09028,-0.122,-0.09272,-0.06344,0.00244,-0.01952,-0.0732,-0.12688,-0.14152,-0.11224,-0.122
-0.05856,0.09028,-0.122,-0.09272,-0.06344,0.00244,-0.01952,-0.0732,-0.12688,-0.14152,-0.11712,-0.122
-0.0488,0.08784,-0.12688,-0.10248,-0.07808,0.01464,-0.01952,-0.06832,-0.12688,-0.14152,-0.11712,-0.11224
-0.0488,0.08784,-0.12688,-0.10248,-0.07808,0.01464,-0.01952,-0.06832,-0.12688,-0.14152,-0.11712,-0.11224
-0.05856,0.08784,-0.11712,-0.08784,-0.05856,0,-0.01464,-0.06344,-0.12688,-0.1464,-0.122,-0.122
-0.05856,0.08784,-0.11712,-0.08784,-0.05856,0,-0.01464,-0.06344,-0.12688,-0.1464,-0.12688,-0.12688
-0.0488,0.08784,-0.12688,-0.10248,-0.07808,0.01464,-0.01464,-0.06344,-0.122,-0.1464,-0.12688,-0.12688
-0.05368,0.09028,-0.12688,-0.10004,-0.0732,0.00976,-0.00976,-0.05856,-0.122,-0.1464,-0.13176,-0.12688
-0.06344,0.0976,-0.13176,-0.10004,-0.06832,0.00244,-0.00976,-0.05856,-0.12688,-0.15128,-0.122,-0.12688
-0.06344,0.0976,-0.13176,-0.10004,-0.06832,0.00244,-0.00488,-0.05368,-0.122,-0.15128,-0.122,-0.12688
-0.06344,0.0976,-0.13176,-0.10004,-0.06832,0.00244,0,-0.0488,-0.122,-0.16104,-0.122,-0.12688
-0.06344,0.0976,-0.13176,-0.10004,-0.06832,0.00244,0,-0.0488,-0.12688,-0.15616,-0.122,-0.12688
-0.06344,0.0976,-0.13176,-0.10004,-0.06832,0.00244,0,-0.0488,-0.12688,-0.15128,-0.122,-0.12688
-0.06344,0.0976,-0.13176,-0.10004,-0.06832,0.00244,0.00488,-0.04392,-0.122,-0.15128,-0.122,-0.12688
-0.06344,0.0976,-0.13176,-0.10004,-0.06832,0.00244,0.00488,-0.04392,-0.122,-0.15128,-0.12688,-0.12688
-0.06832,0.10004,-0.13176,-0.0976,-0.06344,-0.00244,0.00976,-0.03416,-0.122,-0.15128,-0.12688,-0.12688
-0.05856,0.09516,-0.13176,-0.10248,-0.0732,0.00732,0.00976,-0.03416,-0.122,-0.15128,-0.12688,-0.122
-0.05856,0.09272,-0.12688,-0.0976,-0.06832,0.00488,0.01952,-0.02928,-0.11224,-0.15128,-0.12688,-0.122
-0.05856,0.09028,-0.122,-0.09272,-0.06344,0.00244,0.0244,-0.01464,-0.10736,-0.1464,-0.122,-0.12688
-0.05856,0.09028,-0.122,-0.09272,-0.06344,0.00244,0.03416,-0.00488,-0.10736,-0.14152,-0.122,-0.12688
