i,aVR,ii,aVF,iii,aVL,V1,V2,V3,V4,V5,V6
-0.06832,0.01464,0.03904,0.0732,0.10736,-0.08784,0.06832,0.01464,0.03904,0.01464,-0.01952,-0.01464
-0.02928,-0.0366,0.10248,0.11712,0.13176,-0.08052,0.0488,0.04392,0.12688,0.10248,0.04392,0.03904
0.0488,-0.12444,0.20008,0.17568,0.15128,-0.05124,-0.01464,0.0732,0.29768,0.27328,0.18056,0.14152
0.15128,-0.23424,0.3172,0.24156,0.16592,-0.00732,-0.11224,0.0976,0.51728,0.51728,0.366,0.28792
0.2928,-0.36844,0.44408,0.29768,0.15128,0.07076,-0.25376,0.11712,0.7564,0.81008,0.5856,0.45872
0.45384,-0.50752,0.5612,0.33428,0.10736,0.17324,-0.42944,0.11712,0.98088,1.10776,0.81984,0.6344
0.59048,-0.61,0.62952,0.33428,0.03904,0.27572,-0.57584,0.11712,1.15168,1.33224,0.99064,0.74664
0.68808,-0.64172,0.59536,0.25132,-0.09272,0.3904,-0.6344,0.1464,1.18096,1.4152,1.0492,0.7808
0.67344,-0.55388,0.43432,0.0976,-0.23912,0.45628,-0.57096,0.16592,1.01016,1.25416,0.92232,0.67832
0.57584,-0.37576,0.17568,-0.11224,-0.40016,0.488,-0.42944,0.0976,0.6344,0.85888,0.6588,0.47336
0.41968,-0.16592,-0.08784,-0.29768,-0.50752,0.4636,-0.25376,0,0.15616,0.366,0.33184,0.23424
0.26352,0.0122,-0.28792,-0.41968,-0.55144,0.40748,-0.10248,-0.10736,-0.23912,-0.05856,0.06344,0.0488
0.1464,0.11712,-0.38064,-0.45384,-0.52704,0.33672,-0.01464,-0.15616,-0.47336,-0.3172,-0.10736,-0.06832
0.07808,0.16104,-0.40016,-0.4392,-0.47824,0.27816,0.03904,-0.122,-0.5124,-0.37576,-0.1708,-0.11712
0.0488,0.1586,-0.366,-0.3904,-0.4148,0.2318,0.06832,-0.06832,-0.44896,-0.3416,-0.18544,-0.13176
0.0244,0.13908,-0.30256,-0.31476,-0.32696,0.17568,0.0732,-0.0244,-0.32696,-0.25376,-0.15616,-0.122
0.01952,0.10492,-0.22936,-0.23912,-0.24888,0.1342,0.07808,0.01952,-0.23912,-0.1952,-0.13176,-0.10248
0.01464,0.07808,-0.1708,-0.17812,-0.18544,0.10004,0.06832,0.03904,-0.15616,-0.12688,-0.09272,-0.08296
0,0.06588,-0.13176,-0.13176,-0.13176,0.06588,0.06832,0.0488,-0.10736,-0.09272,-0.06832,-0.06344
-0.01952,0.06344,-0.10736,-0.0976,-0.08784,0.03416,0.06832,0.05368,-0.07808,-0.05856,-0.0488,-0.05368
-0.02928,0.05856,-0.08784,-0.0732,-0.05856,0.01464,0.06344,0.05368,-0.04392,-0.04392,-0.02928,-0.03416
-0.03904,0.05124,-0.06344,-0.04392,-0.0244,-0.00732,0.05368,0.0488,-0.04392,-0.03416,-0.03416,-0.02928
-0.03416,0.04636,-0.05856,-0.04148,-0.0244,-0.00488,0.0488,0.04392,-0.03904,-0.03416,-0.03416,-0.02928
-0.0244,0.0366,-0.0488,-0.0366,-0.0244,0,0.0488,0.04392,-0.02928,-0.04392,-0.03904,-0.03416
-0.00976,0.02928,-0.0488,-0.04392,-0.03904,0.01464,0.0488,0.04392,-0.02928,-0.03904,-0.03416,-0.03416
0,0.01952,-0.03904,-0.03904,-0.03904,0.01952,0.03904,0.03416,-0.02928,-0.03416,-0.03416,-0.03904
0,0.01708,-0.03416,-0.03416,-0.03416,0.01708,0.03416,0.03416,-0.0244,-0.02928,-0.03416,-0.03904
0,0.01464,-0.02928,-0.02928,-0.02928,0.01464,0.04392,0.0488,-0.0244,-0.0244,-0.02928,-0.0244
0,0.01464,-0.02928,-0.02928,-0.02928,0.01464,0.04392,0.0488,-0.01952,-0.01952,-0.0244,-0.0244
-0.01464,0.01952,-0.0244,-0.01708,-0.00976,-0.00244,0.0488,0.0488,-0.00488,-0.01952,-0.01952,-0.01952
-0.0244,0.0244,-0.0244,-0.0122,0,-0.0122,0.0488,0.0488,0,-0.00976,-0.01952,-0.01952
-0.01952,0.02684,-0.03416,-0.0244,-0.01464,-0.00244,0.03904,0.0488,-0.00976,-0.00976,-0.01464,-0.01952
-0.01464,0.02196,-0.02928,-0.02196,-0.01464,0,0.03416,0.05368,-0.00488,-0.00488,-0.01464,-0.01464
0.00488,0.00732,-0.01952,-0.02196,-0.0244,0.01464,0.0244,0.04392,-0.01464,-0.01464,-0.0244,-0.0244
0.01464,0.00244,-0.01952,-0.02684,-0.03416,0.0244,0.0244,0.03416,-0.01464,-0.01464,-0.0244,-0.03416
0.01464,0,-0.01464,-0.02196,-0.02928,0.02196,0.01952,0.03416,-0.00976,-0.00976,-0.0244,-0.03904
0.00976,0,-0.00976,-0.01464,-0.01952,0.01464,0.01952,0.03904,-0.00488,-0.00488,-0.01952,-0.03416
0,0.00244,-0.00488,-0.00488,-0.00488,0.00244,0.02928,0.0488,0.00976,0.01464,-0.01464,-0.0244
0.00488,0,-0.00488,-0.00732,-0.00976,0.00732,0.02928,0.0488,0.01464,0.01464,-0.01464,-0.01952
0,-0.00488,0.00976,0.00976,0.00976,-0.00488,0.02928,0.06344,0.02928,0.01952,-0.00488,-0.00488
-0.00488,-0.00244,0.00976,0.0122,0.01464,-0.00976,0.02928,0.06344,0.02928,0.01952,0.00488,-0.00488
-0.00976,0.00488,0,0.00488,0.00976,-0.00976,0.01952,0.06344,0.03416,0.0244,0,0.00488
-0.00976,0.00244,0.00488,0.00976,0.01464,-0.0122,0.01952,0.06344,0.03904,0.0244,0.00488,0.00976
0.00488,-0.00488,0.00488,0.00244,0,0.00244,0.01464,0.0732,0.04392,0.03416,0.00976,0.00976
0.00488,-0.00732,0.00976,0.00732,0.00488,0,0.01464,0.07808,0.0488,0.03416,0.01464,0.01952
0.01464,-0.01708,0.01952,0.0122,0.00488,0.00488,0.01464,0.07808,0.0488,0.0488,0.01952,0.00976
0.01464,-0.01952,0.0244,0.01708,0.00976,0.00244,0.01464,0.07808,0.05368,0.05856,0.01952,0.01464
0.02928,-0.02196,0.01464,0,-0.01464,0.02196,0,0.0732,0.05368,0.05368,0.0244,0.00488
0.03416,-0.03172,0.02928,0.0122,-0.00488,0.01952,-0.00488,0.07808,0.05856,0.05856,0.02928,0.00976
0.04392,-0.03904,0.03416,0.0122,-0.00976,0.02684,-0.01464,0.08296,0.06832,0.06344,0.03416,0.00976
0.0488,-0.04148,0.03416,0.00976,-0.01464,0.03172,-0.01464,0.09272,0.07808,0.0732,0.03416,0.01464
0.05856,-0.05124,0.04392,0.01464,-0.01464,0.0366,-0.0244,0.09272,0.08784,0.08296,0.03416,0.01952
0.06832,-0.05856,0.0488,0.01464,-0.01952,0.04392,-0.02928,0.10736,0.10248,0.09272,0.04392,0.02928
0.06344,-0.061,0.05856,0.02684,-0.00488,0.03416,-0.01952,0.122,0.122,0.11712,0.06344,0.03416
0.06344,-0.06344,0.06344,0.03172,0,0.03172,-0.02928,0.13176,0.1464,0.13664,0.0732,0.0488
0.06832,-0.07076,0.0732,0.03904,0.00488,0.03172,-0.02928,0.1464,0.15616,0.1464,0.08784,0.05856
0.07808,-0.07808,0.07808,0.03904,0,0.03904,-0.03904,0.15616,0.1708,0.16592,0.0976,0.06832
0.0976,-0.0976,0.0976,0.0488,0,0.0488,-0.0488,0.16592,0.1952,0.18544,0.0976,0.0732
0.10736,-0.10736,0.10736,0.05368,0,0.05368,-0.05856,0.17568,0.21472,0.20984,0.11712,0.07808
0.10736,-0.1098,0.11224,0.05856,0.00488,0.05124,-0.0732,0.20008,0.244,0.23912,0.13664,0.09272
0.122,-0.12444,0.12688,0.06588,0.00488,0.05856,-0.08296,0.20984,0.2684,0.2684,0.15616,0.10736
0.122,-0.1342,0.1464,0.0854,0.0244,0.0488,-0.0976,0.23424,0.28792,0.2928,0.18056,0.11712
0.13664,-0.14884,0.16104,0.09272,0.0244,0.05612,-0.10736,0.244,0.31232,0.31232,0.1952,0.13176
0.15616,-0.16348,0.1708,0.09272,0.01464,0.07076,-0.122,0.25376,0.33184,0.33672,0.21472,0.14152
0.16592,-0.17324,0.18056,0.0976,0.01464,0.07564,-0.13176,0.26352,0.35136,0.35624,0.22448,0.15128
0.18544,-0.1952,0.20496,0.11224,0.01952,0.08296,-0.15128,0.26352,0.366,0.37576,0.22936,0.15616
0.19032,-0.20252,0.21472,0.11956,0.0244,0.08296,-0.15616,0.26352,0.37576,0.39528,0.23912,0.1708
0.18544,-0.20252,0.2196,0.12688,0.03416,0.07564,-0.15128,0.27816,0.40992,0.4148,0.26352,0.18056
0.18056,-0.20008,0.2196,0.12932,0.03904,0.07076,-0.15128,0.28304,0.4148,0.42456,0.27328,0.18544
0.19032,-0.20252,0.21472,0.11956,0.0244,0.08296,-0.16104,0.27816,0.4148,0.43432,0.27328,0.20008
0.19032,-0.2074,0.22448,0.12932,0.03416,0.07808,-0.16104,0.27816,0.41968,0.4392,0.27328,0.20008
0.20496,-0.21472,0.22448,0.122,0.01952,0.09272,-0.17568,0.2684,0.40992,0.43432,0.2684,0.19032
0.21472,-0.22204,0.22936,0.122,0.01464,0.10004,-0.17568,0.25864,0.40992,0.41968,0.2684,0.19032
0.20496,-0.21716,0.22936,0.12688,0.0244,0.09028,-0.16104,0.26352,0.40992,0.4148,0.2684,0.19032
0.18544,-0.2074,0.22936,0.13664,0.04392,0.07076,-0.16104,0.244,0.38552,0.39528,0.25864,0.18056
0.16592,-0.19032,0.21472,0.13176,0.0488,0.05856,-0.1464,0.22448,0.366,0.37088,0.24888,0.17568
0.1464,-0.17812,0.20984,0.13664,0.06344,0.04148,-0.13664,0.20984,0.33672,0.3416,0.23424,0.16104
0.13176,-0.16592,0.20008,0.1342,0.06832,0.03172,-0.13664,0.18056,0.30744,0.30744,0.20984,0.1464
0.11224,-0.15128,0.19032,0.1342,0.07808,0.01708,-0.12688,0.16104,0.2684,0.2684,0.18544,0.13176
0.10736,-0.13908,0.1708,0.11712,0.06344,0.02196,-0.11712,0.13664,0.25376,0.23912,0.16592,0.11224
0.09272,-0.122,0.15128,0.10492,0.05856,0.01708,-0.0976,0.11712,0.2196,0.20496,0.14152,0.10248
0.06832,-0.0976,0.12688,0.09272,0.05856,0.00488,-0.07808,0.09272,0.18544,0.1708,0.122,0.08784
0.03904,-0.07564,0.11224,0.09272,0.0732,-0.01708,-0.06344,0.08296,0.15616,0.14152,0.10248,0.0732
0.03904,-0.06588,0.09272,0.0732,0.05368,-0.00732,-0.05368,0.0732,0.13176,0.122,0.07808,0.05368
0.02928,-0.05368,0.07808,0.06344,0.0488,-0.00976,-0.04392,0.0488,0.10248,0.0976,0.05856,0.03416
0.04392,-0.05368,0.06344,0.04148,0.01952,0.0122,-0.04392,0.04392,0.07808,0.06832,0.03904,0.0244
0.04392,-0.05124,0.05856,0.0366,0.01464,0.01464,-0.03904,0.03416,0.06344,0.0488,0.02928,0.01464
0.0244,-0.0366,0.0488,0.0366,0.0244,0,-0.0244,0.03416,0.05368,0.04392,0.02928,0.01464
0.00976,-0.0244,0.03904,0.03416,0.02928,-0.00976,-0.01952,0.03416,0.05368,0.0488,0.01952,0.00488
-0.01952,-0.00732,0.03416,0.04392,0.05368,-0.0366,-0.00488,0.03416,0.0488,0.04392,0.0244,0.01464
-0.02928,0.00244,0.0244,0.03904,0.05368,-0.04148,0,0.03416,0.04392,0.03416,0.0244,0.01464
-0.02928,0,0.02928,0.04392,0.05856,-0.04392,0,0.03416,0.03904,0.03416,0.01464,0
-0.0244,-0.00244,0.02928,0.04148,0.05368,-0.03904,0,0.02928,0.03904,0.03416,0.01464,0
-0.00976,-0.00732,0.0244,0.02928,0.03416,-0.02196,0.00488,0.02928,0.02928,0.01464,0.00976,0
0.00488,-0.0122,0.01952,0.01708,0.01464,-0.00488,0.00488,0.0244,0.02928,0.00976,0.00976,0
0.00488,-0.0122,0.01952,0.01708,0.01464,-0.00488,-0.00488,0.01464,0.01952,0.00976,0,-0.00488
0,-0.00976,0.01952,0.01952,0.01952,-0.00976,-0.00488,0.01464,0.01952,0.00976,-0.00488,-0.00488
-0.01952,0.00244,0.01464,0.0244,0.03416,-0.02684,0.00976,0.0244,0.0244,0.01952,0.00488,0.00488
-0.02928,0.00732,0.01464,0.02928,0.04392,-0.0366,0.00976,0.0244,0.0244,0.0244,0.00488,0.00488
-0.01464,0.00488,0.00488,0.0122,0.01952,-0.01708,-0.00488,0.0244,0.01952,0.01464,0,-0.00976
0,-0.00488,0.00976,0.00976,0.00976,-0.00488,-0.00488,0.0244,0.0244,0.00976,0,-0.00976
0.01464,-0.0122,0.00976,0.00244,-0.00488,0.00976,-0.00488,0.01464,0.01464,0.01464,-0.00976,-0.00976
0.02928,-0.01708,0.00488,-0.00976,-0.0244,0.02684,-0.00976,0.01464,0.01464,0.01464,-0.00976,-0.00976
0.01464,-0.01464,0.01464,0.00732,0,0.00732,-0.00488,0.01952,0.01952,0.00976,0,0
0.00488,-0.00976,0.01464,0.0122,0.00976,-0.00244,-0.00488,0.01952,0.01952,0.00976,0,0
-0.00488,-0.00244,0.00976,0.0122,0.01464,-0.00976,0,0.01952,0.01952,0.00976,0,0
-0.00488,-0.00244,0.00976,0.0122,0.01464,-0.00976,0,0.01952,0.0244,0.01464,0,0.00488
-0.01464,0.00244,0.00976,0.01708,0.0244,-0.01952,0,0.02928,0.03416,0.0244,0.00488,0.00488
-0.02928,0.00976,0.00976,0.0244,0.03904,-0.03416,0.00488,0.02928,0.02928,0.0244,0.00488,0.00488
-0.01952,0,0.01952,0.02928,0.03904,-0.02928,0,0.02928,0.02928,0.0244,0.00488,0
-0.00976,-0.00488,0.01952,0.0244,0.02928,-0.01952,0,0.02928,0.03416,0.0244,0.00488,0
-0.00976,-0.00732,0.0244,0.02928,0.03416,-0.02196,0.00488,0.02928,0.03416,0.0244,0.01464,0.00488
-0.00488,-0.00976,0.0244,0.02684,0.02928,-0.01708,0,0.02928,0.03416,0.0244,0.00976,0.00488
-0.01464,-0.00488,0.0244,0.03172,0.03904,-0.02684,0,0.02928,0.03416,0.0244,0.0244,0.00488
-0.01952,-0.00488,0.02928,0.03904,0.0488,-0.03416,0,0.02928,0.03416,0.0244,0.0244,0.00488
-0.00488,-0.00732,0.01952,0.02196,0.0244,-0.01464,-0.00976,0.01952,0.03416,0.0244,0.01464,-0.00488
0,-0.00976,0.01952,0.01952,0.01952,-0.00976,-0.00976,0.01952,0.03416,0.02928,0.00976,-0.00488
0.00488,-0.0122,0.01952,0.01708,0.01464,-0.00488,-0.00976,0.01952,0.0244,0.01952,0.00976,0
0.00488,-0.0122,0.01952,0.01708,0.01464,-0.00488,-0.00976,0.01952,0.0244,0.01952,0.00976,0
-0.01464,-0.00244,0.01952,0.02684,0.03416,-0.0244,0,0.01952,0.03416,0.01952,0.00976,0
-0.0244,0.00244,0.01952,0.03172,0.04392,-0.03416,-0.00488,0.01952,0.02928,0.01464,0.00976,0
-0.01952,0,0.01952,0.02928,0.03904,-0.02928,-0.00488,0.01464,0.02928,0.01464,0.00976,-0.00488
-0.01952,0,0.01952,0.02928,0.03904,-0.02928,-0.00488,0.00976,0.02928,0.01464,0.00976,-0.00488
-0.00976,-0.00488,0.01952,0.0244,0.02928,-0.01952,-0.01464,0,0.0244,0.01464,-0.00488,-0.01464
-0.00976,-0.00732,0.0244,0.02928,0.03416,-0.02196,-0.01464,0.00488,0.0244,0.00976,-0.00488,-0.01464
-0.01952,0,0.01952,0.02928,0.03904,-0.02928,-0.00488,0.00976,0.0244,0.01952,0,-0.00976
-0.01952,0,0.01952,0.02928,0.03904,-0.02928,-0.00488,0.00976,0.01952,0.01464,-0.00488,-0.00976
-0.01952,0.00488,0.00976,0.01952,0.02928,-0.0244,0.00488,0.00976,0.02928,0.01464,0.00488,0
-0.0244,0.00732,0.00976,0.02196,0.03416,-0.02928,0.00488,0.00976,0.02928,0.01464,0.00976,0
-0.01464,0,0.01464,0.02196,0.02928,-0.02196,0,0,0.02928,0.01464,0.00488,-0.00976
-0.01464,0.00244,0.00976,0.01708,0.0244,-0.01952,0,-0.00488,0.02928,0.01464,0,-0.00976
-0.00976,-0.00488,0.01952,0.0244,0.02928,-0.01952,-0.00976,-0.00488,0.01464,0.01464,0,-0.01464
-0.00488,-0.00732,0.01952,0.02196,0.0244,-0.01464,-0.00976,-0.00488,0.01464,0.00976,-0.00488,-0.01464
-0.01952,0.00488,0.00976,0.01952,0.02928,-0.0244,0,0,0.01952,0.01464,0,-0.00488
-0.03416,0.01464,0.00488,0.02196,0.03904,-0.0366,0.00488,0,0.01952,0.01464,0,-0.00488
-0.02928,0.00976,0.00976,0.0244,0.03904,-0.03416,-0.00976,0,0.01952,0.00488,0,-0.01464
-0.02928,0.00976,0.00976,0.0244,0.03904,-0.03416,-0.00976,0,0.01464,0.00488,0,-0.01464
-0.01952,0.00488,0.00976,0.01952,0.02928,-0.0244,-0.01464,-0.00976,0.00488,0.00488,-0.00976,-0.0244
-0.00488,0,0.00488,0.00732,0.00976,-0.00732,-0.01464,-0.00976,0,0.00488,-0.01464,-0.02928
-0.01464,0.00488,0.00488,0.0122,0.01952,-0.01708,-0.00488,-0.01464,0.00976,0,-0.00488,-0.01952
-0.01952,0.00732,0.00488,0.01464,0.0244,-0.02196,-0.00976,-0.01464,0.00976,0,-0.00488,-0.01952
-0.02928,0.0122,0.00488,0.01952,0.03416,-0.03172,0,-0.00488,0.01952,0.00976,-0.00488,-0.00976
-0.02928,0.01464,0,0.01464,0.02928,-0.02928,0,0.00488,0.01952,0.00976,-0.00488,-0.00976
-0.02928,0.00976,0.00976,0.0244,0.03904,-0.03416,-0.00976,-0.00488,0.00976,0,-0.01464,-0.01952
-0.0244,0.00976,0.00488,0.01708,0.02928,-0.02684,-0.00976,-0.00488,0.00488,-0.00488,-0.01464,-0.0244
-0.00976,0.00244,0.00488,0.00976,0.01464,-0.0122,-0.01952,-0.01952,-0.00488,-0.01464,-0.01952,-0.0244
0,-0.00244,0.00488,0.00488,0.00488,-0.00244,-0.01952,-0.02928,-0.00488,-0.01464,-0.01952,-0.02928
-0.01464,0.00488,0.00488,0.0122,0.01952,-0.01708,-0.00976,-0.01952,0.00488,-0.00488,-0.01952,-0.02928
-0.03416,0.01464,0.00488,0.02196,0.03904,-0.0366,-0.00488,-0.01952,0.01464,0.00488,-0.01464,-0.0244
-0.04392,0.01708,0.00976,0.03172,0.05368,-0.0488,0.00488,-0.00976,0.0244,0.01952,-0.00488,-0.00976
-0.04392,0.01708,0.00976,0.03172,0.05368,-0.0488,0.00488,0,0.0244,0.01952,0.00488,-0.00976
-0.0244,0.0122,0,0.0122,0.0244,-0.0244,-0.00976,-0.00488,0.01464,0.00488,-0.00488,-0.0244
-0.00488,0,0.00488,0.00732,0.00976,-0.00732,-0.00976,-0.01464,0.01464,-0.00488,-0.01464,-0.02928
-0.00488,0,0.00488,0.00732,0.00976,-0.00732,-0.01952,-0.01464,0.00488,-0.00488,-0.01464,-0.02928
-0.00488,0,0.00488,0.00732,0.00976,-0.00732,-0.01952,-0.01464,0.00488,-0.00488,-0.01464,-0.02928
-0.03416,0.00976,0.01464,0.03172,0.0488,-0.04148,0,-0.00488,0.01464,0.00488,-0.01464,-0.01464
-0.03904,0.01464,0.00976,0.02928,0.0488,-0.04392,0,0,0.01952,0.00976,0,-0.01952
-0.03904,0.01952,0,0.01952,0.03904,-0.03904,0,0,0.01952,0.00976,0,-0.01952
-0.03904,0.01952,0,0.01952,0.03904,-0.03904,0,0,0.01952,0.00976,0,-0.01952
-0.03904,0.01952,0,0.01952,0.03904,-0.03904,-0.00488,-0.00976,0.01952,0.00976,0,-0.00976
-0.03904,0.01952,0,0.01952,0.03904,-0.03904,-0.00488,-0.00976,0.01952,0.00488,0,-0.00976
-0.03904,0.01464,0.00976,0.02928,0.0488,-0.04392,0.00488,0,0.02928,0.01464,0,-0.00488
-0.03416,0.0122,0.00976,0.02684,0.04392,-0.03904,0,0,0.02928,0.01464,0.00488,-0.00488
-0.01952,0.00488,0.00976,0.01952,0.02928,-0.0244,-0.00976,-0.00976,0.01952,0.01464,-0.00488,-0.01952
-0.00976,-0.00244,0.01464,0.01952,0.0244,-0.01708,-0.00976,-0.00976,0.02928,0.01464,-0.00488,-0.01952
-0.00976,-0.00244,0.01464,0.01952,0.0244,-0.01708,-0.00976,-0.00488,0.03416,0.01952,0.00488,-0.00976
-0.00976,-0.00732,0.0244,0.02928,0.03416,-0.02196,-0.00976,-0.00488,0.04392,0.0244,0.00976,-0.00976
-0.01952,-0.00976,0.03904,0.0488,0.05856,-0.03904,-0.0244,0,0.0488,0.03904,0.01952,0.00976
-0.02928,-0.00976,0.0488,0.06344,0.07808,-0.05368,-0.0244,0,0.04392,0.03904,0.0244,0.00976
-0.03904,-0.00488,0.0488,0.06832,0.08784,-0.06344,-0.0244,-0.01464,0.05856,0.03904,0.0244,0.01464
-0.03416,-0.00732,0.0488,0.06588,0.08296,-0.05856,-0.02928,-0.00976,0.05856,0.04392,0.0244,0.01464
-0.01952,-0.01952,0.05856,0.06832,0.07808,-0.0488,-0.01952,-0.01952,0.05368,0.04392,0.02928,0.01464
-0.01464,-0.02684,0.06832,0.07564,0.08296,-0.0488,-0.03904,-0.01952,0.06344,0.0488,0.03904,0.01952
0,-0.03904,0.07808,0.07808,0.07808,-0.03904,-0.05368,-0.0244,0.06832,0.05368,0.03416,0.02928
0.00488,-0.05124,0.0976,0.09516,0.09272,-0.04392,-0.06832,-0.02928,0.07808,0.06344,0.04392,0.03904
0.01464,-0.06588,0.11712,0.1098,0.10248,-0.04392,-0.08784,-0.03416,0.08296,0.06832,0.05856,0.04392
0.01464,-0.07076,0.12688,0.11956,0.11224,-0.0488,-0.0976,-0.03904,0.08784,0.07808,0.06344,0.05368
0.0244,-0.08296,0.14152,0.12932,0.11712,-0.04636,-0.10736,-0.0488,0.08296,0.07808,0.06832,0.05368
0.03904,-0.09516,0.15128,0.13176,0.11224,-0.0366,-0.10248,-0.04392,0.08784,0.08296,0.06832,0.05856
0.03904,-0.09272,0.1464,0.12688,0.10736,-0.03416,-0.08296,-0.02928,0.08784,0.08296,0.06832,0.06832
0.03904,-0.08296,0.12688,0.10736,0.08784,-0.0244,-0.07808,-0.01952,0.08296,0.08296,0.06832,0.06344
0.03416,-0.07076,0.10736,0.09028,0.0732,-0.01952,-0.05856,-0.00976,0.08296,0.08296,0.06832,0.06344
0.03416,-0.05856,0.08296,0.06588,0.0488,-0.00732,-0.04392,-0.00488,0.0732,0.0732,0.05856,0.05368
0.0244,-0.04392,0.06344,0.05124,0.03904,-0.00732,-0.03904,0.00488,0.06344,0.0732,0.0488,0.03904
0.00976,-0.0244,0.03904,0.03416,0.02928,-0.00976,-0.0244,0.00488,0.0488,0.05368,0.03416,0.02928
0.00488,-0.00732,0.00976,0.00732,0.00488,0,-0.0244,0.00488,0.03416,0.03416,0.0244,0.01464
-0.00488,0.00244,0,0.00244,0.00488,-0.00488,-0.01464,0.00488,0.02928,0.01464,0.00976,0.00488
-0.01464,0.01708,-0.01952,-0.0122,-0.00488,-0.00488,0,0.00488,0.01464,0.00976,0.00488,-0.00976
-0.01464,0.02196,-0.02928,-0.02196,-0.01464,0,0,0.00488,0.00976,0.00976,0,-0.00976
-0.02928,0.02684,-0.0244,-0.00976,0.00488,-0.01708,0.00976,0.00488,0.00976,0.00976,-0.00488,-0.01952
-0.03416,0.03416,-0.03416,-0.01708,0,-0.01708,0.00976,0.00488,0.00488,0.00488,-0.00976,-0.0244
-0.0488,0.04636,-0.04392,-0.01952,0.00488,-0.02684,0.0244,0.01464,0.00488,0.00488,-0.01464,-0.0244
-0.05368,0.05368,-0.05368,-0.02684,0,-0.02684,0.0244,0.01464,0.00488,0.00488,-0.01464,-0.0244
-0.05368,0.05368,-0.05368,-0.02684,0,-0.02684,0.0244,0.01952,0,-0.00976,-0.01464,-0.02928
-0.05368,0.05612,-0.05856,-0.03172,-0.00488,-0.0244,0.0244,0.01952,0,-0.00976,-0.01464,-0.02928
-0.04392,0.04636,-0.0488,-0.02684,-0.00488,-0.01952,0.0244,0.00976,-0.00976,-0.00976,-0.0244,-0.02928
-0.03904,0.04392,-0.0488,-0.02928,-0.00976,-0.01464,0.02928,0.01464,-0.00976,-0.00976,-0.0244,-0.02928
-0.02928,0.04392,-0.05856,-0.04392,-0.02928,0,0.01952,0.00488,-0.01464,-0.01464,-0.0244,-0.03416
-0.0244,0.04148,-0.05856,-0.04636,-0.03416,0.00488,0.01952,0.00488,-0.01464,-0.01464,-0.0244,-0.03416
-0.03416,0.04148,-0.0488,-0.03172,-0.01464,-0.00976,0.01952,0.01464,-0.00488,-0.00488,-0.0244,-0.02928
-0.03416,0.0366,-0.03904,-0.02196,-0.00488,-0.01464,0.01952,0.00488,0,-0.00488,-0.0244,-0.02928
-0.05856,0.04392,-0.02928,0,0.02928,-0.04392,0.04392,0.01464,0.01952,0.00488,-0.01464,-0.01952
-0.07808,0.04636,-0.01464,0.0244,0.06344,-0.07076,0.06344,0.0244,0.03416,0.00488,-0.01464,-0.01952
-0.07808,0.0244,0.02928,0.06832,0.10736,-0.09272,0.05856,0.03416,0.05856,0.0244,0,-0.01464
-0.0488,-0.01708,0.08296,0.10736,0.13176,-0.09028,0.05856,0.05368,0.13664,0.09272,0.04392,0.01952
0,-0.0854,0.1708,0.1708,0.1708,-0.0854,0.0244,0.09272,0.27816,0.244,0.15128,0.11224
0.08296,-0.18056,0.27816,0.23668,0.1952,-0.05612,-0.06344,0.12688,0.46848,0.45872,0.32696,0.24888
0.22448,-0.30988,0.39528,0.28304,0.1708,0.02684,-0.1952,0.12688,0.67832,0.72224,0.52704,0.40992
0.37576,-0.4392,0.50264,0.31476,0.12688,0.12444,-0.37088,0.12688,0.89304,1.0004,0.75152,0.57584
0.54168,-0.56608,0.59048,0.31964,0.0488,0.24644,-0.52704,0.11712,1.08336,1.26392,0.9516,0.72712
0.66856,-0.63196,0.59536,0.26108,-0.0732,0.37088,-0.6344,0.1464,1.15168,1.38592,1.03944,0.7808
0.70272,-0.59292,0.48312,0.13176,-0.2196,0.46116,-0.60024,0.17568,1.0492,1.30296,0.98088,0.71736
0.62464,-0.44408,0.26352,-0.0488,-0.36112,0.49288,-0.47824,0.13664,0.74176,0.976,0.7564,0.54168
0.45872,-0.22448,-0.00976,-0.23912,-0.46848,0.4636,-0.30256,0.0488,0.2928,0.5124,0.4392,0.31232
0.27328,-0.01708,-0.23912,-0.37576,-0.5124,0.39284,-0.13176,-0.05856,-0.13176,0.0488,0.13176,0.08784
0.13664,0.11224,-0.36112,-0.42944,-0.49776,0.3172,-0.0244,-0.12688,-0.40504,-0.25864,-0.06832,-0.03904
0.05856,0.1708,-0.40016,-0.42944,-0.45872,0.25864,0.03904,-0.11224,-0.48312,-0.34648,-0.15128,-0.10736
0.01952,0.183,-0.38552,-0.39528,-0.40504,0.21228,0.07808,-0.05856,-0.44896,-0.3416,-0.16592,-0.122
0.01464,0.1586,-0.33184,-0.33916,-0.34648,0.18056,0.08296,-0.0244,-0.33672,-0.26352,-0.1464,-0.122
0,0.13908,-0.27816,-0.27816,-0.27816,0.13908,0.07808,0.02928,-0.23912,-0.1952,-0.122,-0.10248
0.01464,0.0976,-0.20984,-0.21716,-0.22448,0.11956,0.06832,0.03904,-0.16592,-0.13664,-0.10248,-0.09272
0.00976,0.07076,-0.15128,-0.15616,-0.16104,0.0854,0.05856,0.05856,-0.10736,-0.08296,-0.06832,-0.06344
0,0.05856,-0.11712,-0.11712,-0.11712,0.05856,0.05856,0.0732,-0.05856,-0.0488,-0.03904,-0.04392
-0.02928,0.05856,-0.08784,-0.0732,-0.05856,0.01464,0.06344,0.0732,-0.03416,-0.0244,-0.02928,-0.03416
-0.0488,0.06588,-0.08296,-0.05856,-0.03416,-0.00732,0.06344,0.06832,-0.01464,-0.00488,-0.01464,-0.01952
-0.05368,0.06588,-0.07808,-0.05124,-0.0244,-0.01464,0.05856,0.06344,0,-0.00488,-0.00488,-0.01952
-0.04392,0.05124,-0.05856,-0.0366,-0.01464,-0.01464,0.05856,0.0732,0.00976,0.00488,-0.00976,-0.01464
-0.03904,0.0488,-0.05856,-0.03904,-0.01952,-0.00976,0.05856,0.0732,0.00976,0.00976,-0.00488,-0.01464
-0.01952,0.03904,-0.05856,-0.0488,-0.03904,0.00976,0.0488,0.06344,0.00976,0.00488,-0.01464,-0.01952
0,0.02684,-0.05368,-0.05368,-0.05368,0.02684,0.03416,0.05368,0.00488,0,-0.01464,-0.02928
-0.00976,0.02928,-0.0488,-0.04392,-0.03904,0.01464,0.03416,0.05856,0.01464,0.00488,-0.00976,-0.01464
-0.00976,0.02928,-0.0488,-0.04392,-0.03904,0.01464,0.03416,0.05856,0.01952,0.00976,-0.00488,-0.01464
-0.01464,0.0244,-0.03416,-0.02684,-0.01952,0.00244,0.02928,0.06832,0.0244,0.00976,0,-0.00976
-0.01464,0.0244,-0.03416,-0.02684,-0.01952,0.00244,0.02928,0.06832,0.02928,0.01952,0,-0.00976
0,0.02196,-0.04392,-0.04392,-0.04392,0.02196,0.02928,0.05856,0.01952,0.01952,0.00488,-0.00976
0.00488,0.01708,-0.03904,-0.04148,-0.04392,0.0244,0.0244,0.06344,0.0244,0.0244,0.00488,-0.00488
-0.01464,0.02684,-0.03904,-0.03172,-0.0244,0.00488,0.03416,0.0732,0.03416,0.0244,0.01464,-0.00488
-0.0244,0.03172,-0.03904,-0.02684,-0.01464,-0.00488,0.03416,0.0732,0.03416,0.0244,0.01464,-0.00488
-0.03416,0.02928,-0.0244,-0.00732,0.00976,-0.02196,0.03904,0.0732,0.0488,0.03904,0.0244,0
-0.03904,0.02928,-0.01952,0,0.01952,-0.02928,0.03904,0.07808,0.05368,0.04392,0.02928,0.01464
-0.01952,0.02196,-0.0244,-0.01464,-0.00488,-0.00732,0.02928,0.07808,0.0488,0.04392,0.0244,0.00488
-0.00488,0.01464,-0.0244,-0.02196,-0.01952,0.00732,0.02928,0.07808,0.04392,0.04392,0.0244,0.00976
0,0.00976,-0.01952,-0.01952,-0.01952,0.00976,0.01952,0.0732,0.0488,0.03904,0.0244,0.00488
0.00488,0.00732,-0.01952,-0.02196,-0.0244,0.01464,0.01952,0.0732,0.0488,0.03904,0.0244,0.00488
0.00976,0.00488,-0.01952,-0.0244,-0.02928,0.01952,0.00976,0.0732,0.05368,0.05368,0.02928,0.01464
0.00976,0.00244,-0.01464,-0.01952,-0.0244,0.01708,0.00976,0.0732,0.05856,0.05368,0.03416,0.01952
0.01464,0.00488,-0.0244,-0.03172,-0.03904,0.02684,0.00488,0.08296,0.06344,0.06344,0.03904,0.01952
0.01464,0.00244,-0.01952,-0.02684,-0.03416,0.0244,0.00488,0.08784,0.06832,0.06344,0.04392,0.02928
0.00488,0.00244,-0.00976,-0.0122,-0.01464,0.00976,0.00488,0.0976,0.07808,0.07808,0.0488,0.02928
0.00488,0,-0.00488,-0.00732,-0.00976,0.00732,0.00488,0.0976,0.08296,0.08784,0.0488,0.03416
0.00976,-0.00244,-0.00488,-0.00976,-0.01464,0.0122,0.00976,0.10248,0.09272,0.09272,0.06344,0.03416
0.01464,-0.0122,0.00976,0.00244,-0.00488,0.00976,0.00488,0.10736,0.0976,0.0976,0.06832,0.03904
0.03416,-0.0244,0.01464,-0.00244,-0.01952,0.02684,-0.01464,0.11224,0.10736,0.10248,0.0732,0.03904
0.03904,-0.02684,0.01464,-0.00488,-0.0244,0.03172,-0.01464,0.122,0.11712,0.11224,0.0732,0.04392
0.0488,-0.0366,0.0244,0,-0.0244,0.0366,-0.0244,0.122,0.11712,0.122,0.08296,0.0488
0.05856,-0.04392,0.02928,0,-0.02928,0.04392,-0.02928,0.13664,0.13176,0.13176,0.09272,0.05856
0.06344,-0.05124,0.03904,0.00732,-0.0244,0.04392,-0.02928,0.13176,0.14152,0.13664,0.09272,0.06344
0.06344,-0.05368,0.04392,0.0122,-0.01952,0.04148,-0.03904,0.14152,0.16592,0.15616,0.10248,0.07808
0.07808,-0.061,0.04392,0.00488,-0.03416,0.05612,-0.03904,0.15616,0.17568,0.16592,0.10736,0.07808
0.08784,-0.06832,0.0488,0.00488,-0.03904,0.06344,-0.0488,0.16592,0.18056,0.18544,0.11712,0.08784
0.08784,-0.07808,0.06832,0.0244,-0.01952,0.05368,-0.05856,0.18544,0.20496,0.20496,0.13664,0.10248
0.08784,-0.08296,0.07808,0.03416,-0.00976,0.0488,-0.06832,0.1952,0.22448,0.22936,0.15616,0.10736
0.0976,-0.10004,0.10248,0.05368,0.00488,0.04636,-0.08296,0.2196,0.26352,0.25864,0.17568,0.122
0.11224,-0.11468,0.11712,0.061,0.00488,0.05368,-0.09272,0.22936,0.28792,0.28792,0.1952,0.13664
0.13176,-0.12932,0.12688,0.061,-0.00488,0.06832,-0.0976,0.244,0.29768,0.32208,0.20984,0.1464
0.1464,-0.14396,0.14152,0.06832,-0.00488,0.07564,-0.10736,0.25376,0.32208,0.3416,0.22448,0.16104
0.16592,-0.1586,0.15128,0.06832,-0.01464,0.09028,-0.122,0.26352,0.3416,0.35624,0.23424,0.1708
0.17568,-0.16836,0.16104,0.0732,-0.01464,0.09516,-0.13176,0.27328,0.36112,0.37576,0.244,0.18056
0.18544,-0.18056,0.17568,0.08296,-0.00976,0.0976,-0.14152,0.28304,0.37576,0.39528,0.2684,0.1952
0.19032,-0.18788,0.18544,0.09028,-0.00488,0.0976,-0.1464,0.28304,0.38552,0.4148,0.27816,0.20984
0.1952,-0.19276,0.19032,0.09272,-0.00488,0.10004,-0.16104,0.28792,0.40992,0.43432,0.2928,0.2196
0.20008,-0.1952,0.19032,0.09028,-0.00976,0.10492,-0.1708,0.2928,0.4148,0.44408,0.30256,0.22448
0.19032,-0.18788,0.18544,0.09028,-0.00488,0.0976,-0.1708,0.29768,0.42456,0.45384,0.30256,0.22936
0.19032,-0.19276,0.1952,0.10004,0.00488,0.09272,-0.1708,0.29768,0.42944,0.45872,0.30256,0.22936
0.18544,-0.1952,0.20496,0.11224,0.01952,0.08296,-0.16592,0.30744,0.4392,0.4636,0.3172,0.23912
0.17568,-0.19276,0.20984,0.122,0.03416,0.07076,-0.16592,0.29768,0.4392,0.45872,0.3172,0.23912
0.16592,-0.18788,0.20984,0.12688,0.04392,0.061,-0.16104,0.2928,0.42944,0.45384,0.30744,0.23912
0.15616,-0.183,0.20984,0.13176,0.05368,0.05124,-0.16104,0.27328,0.40504,0.43432,0.29768,0.22936
0.16592,-0.18056,0.1952,0.11224,0.02928,0.06832,-0.16592,0.244,0.366,0.3904,0.2684,0.20496
0.17568,-0.183,0.19032,0.10248,0.01464,0.08052,-0.15616,0.22936,0.33672,0.36112,0.25376,0.19032
0.15128,-0.16104,0.1708,0.09516,0.01952,0.06588,-0.1464,0.20008,0.3172,0.33672,0.23912,0.18544
0.122,-0.14152,0.16104,0.10004,0.03904,0.04148,-0.13664,0.18056,0.28792,0.29768,0.21472,0.1708
0.0976,-0.11956,0.14152,0.09272,0.04392,0.02684,-0.11712,0.16592,0.27328,0.27816,0.20496,0.16104
0.0732,-0.0976,0.122,0.0854,0.0488,0.0122,-0.0976,0.1464,0.23912,0.244,0.18056,0.15128
0.05856,-0.08296,0.10736,0.07808,0.0488,0.00488,-0.08784,0.122,0.21472,0.20984,0.15128,0.12688
0.03904,-0.06588,0.09272,0.0732,0.05368,-0.00732,-0.0732,0.11224,0.18544,0.18056,0.13176,0.11224
0.01952,-0.04636,0.0732,0.06344,0.05368,-0.01708,-0.05368,0.10248,0.16104,0.16104,0.11712,0.10248
0.00976,-0.03416,0.05856,0.05368,0.0488,-0.01952,-0.04392,0.07808,0.13176,0.13664,0.0976,0.08296
-0.00488,-0.01952,0.04392,0.04636,0.0488,-0.02684,-0.03416,0.08296,0.11712,0.11712,0.08784,0.0732
-0.01464,-0.0122,0.03904,0.04636,0.05368,-0.03416,-0.02928,0.0732,0.10248,0.0976,0.07808,0.06344
-0.0244,0.00244,0.01952,0.03172,0.04392,-0.03416,-0.01464,0.06344,0.08296,0.08296,0.06832,0.06344
-0.02928,0.00976,0.00976,0.0244,0.03904,-0.03416,-0.00976,0.06344,0.0732,0.07808,0.05856,0.05368
-0.03904,0.01708,0.00488,0.0244,0.04392,-0.04148,-0.00488,0.06344,0.06832,0.0732,0.05368,0.04392
-0.0488,0.02684,-0.00488,0.01952,0.04392,-0.04636,0,0.06344,0.06344,0.06344,0.05368,0.04392
-0.05856,0.03416,-0.00976,0.01952,0.0488,-0.05368,0,0.05368,0.05856,0.06344,0.04392,0.03904
-0.06344,0.0366,-0.00976,0.02196,0.05368,-0.05856,0,0.0488,0.05856,0.06344,0.04392,0.03904
-0.0488,0.03172,-0.01464,0.00976,0.03416,-0.04148,-0.00488,0.03904,0.03904,0.04392,0.02928,0.02928
-0.03416,0.02684,-0.01952,-0.00244,0.01464,-0.0244,-0.00488,0.03416,0.03904,0.03904,0.02928,0.01952
-0.0244,0.02196,-0.01952,-0.00732,0.00488,-0.01464,-0.00488,0.03416,0.02928,0.03904,0.02928,0.01464
-0.02928,0.0244,-0.01952,-0.00488,0.00976,-0.01952,-0.00488,0.03416,0.02928,0.03904,0.0244,0.01464
-0.01952,0.01708,-0.01464,-0.00488,0.00488,-0.0122,0,0.03416,0.03416,0.03904,0.0244,0.01464
-0.00976,0.0122,-0.01464,-0.00976,-0.00488,-0.00244,0,0.03416,0.03416,0.03416,0.0244,0.01464
-0.00488,0.01464,-0.0244,-0.02196,-0.01952,0.00732,-0.01464,0.03416,0.01952,0.03416,0.01952,0.00976
0,0.00976,-0.01952,-0.01952,-0.01952,0.00976,-0.01464,0.03416,0.0244,0.02928,0.01952,0.00976
0.01464,0.00244,-0.01952,-0.02684,-0.03416,0.0244,-0.01464,0.03416,0.01464,0.0244,0.00976,0
0.02928,-0.00244,-0.0244,-0.03904,-0.05368,0.04148,-0.01952,0.03416,0.01464,0.0244,0.00976,0
0.0244,-0.00488,-0.01464,-0.02684,-0.03904,0.03172,-0.0244,0.02928,0.00976,0.01952,0.01952,0
0.0244,-0.00488,-0.01464,-0.02684,-0.03904,0.03172,-0.0244,0.02928,0.00976,0.01952,0.01952,0
0.0244,-0.00244,-0.01952,-0.03172,-0.04392,0.03416,-0.02928,0.01952,0.00976,0.01952,0.01952,0
0.0244,-0.00244,-0.01952,-0.03172,-0.04392,0.03416,-0.02928,0.01952,0.01464,0.0244,0.01952,0.00488
0.0244,-0.00244,-0.01952,-0.03172,-0.04392,0.03416,-0.02928,0.01952,0.01464,0.01464,0.01464,0.00488
0.01952,0,-0.01952,-0.02928,-0.03904,0.02928,-0.0244,0.01952,0.00976,0.01464,0.01464,0.00488
0.00976,0,-0.00976,-0.01464,-0.01952,0.01464,-0.01952,0.02928,0.01952,0.0244,0.01464,0.00976
0,0.00488,-0.00976,-0.00976,-0.00976,0.00488,-0.01952,0.02928,0.0244,0.0244,0.01464,0.00976
0,-0.00244,0.00488,0.00488,0.00488,-0.00244,-0.01464,0.02928,0.0244,0.03416,0.0244,0.01464
0.00488,-0.00488,0.00488,0.00244,0,0.00244,-0.01952,0.02928,0.0244,0.03416,0.01952,0.01464
0.01464,-0.00488,-0.00488,-0.0122,-0.01952,0.01708,-0.01952,0.02928,0.0244,0.0244,0.01464,0.00488
0.01952,-0.00976,0,-0.00976,-0.01952,0.01952,-0.01952,0.02928,0.0244,0.0244,0.01464,0.00488
0.00488,0.00244,-0.00976,-0.0122,-0.01464,0.00976,-0.01952,0.02928,0.0244,0.0244,0.01464,0.00488
0,0.00488,-0.00976,-0.00976,-0.00976,0.00488,-0.01952,0.02928,0.0244,0.02928,0.01952,0.00488
-0.01464,0.0122,-0.00976,-0.00244,0.00488,-0.00976,-0.00976,0.03904,0.03416,0.03904,0.02928,0.01952
-0.0244,0.01708,-0.00976,0.00244,0.01464,-0.01952,-0.00976,0.03904,0.03416,0.03904,0.03904,0.01952
-0.0244,0.0122,0,0.0122,0.0244,-0.0244,-0.01952,0.02928,0.03416,0.03904,0.02928,0.01952
-0.0244,0.0122,0,0.0122,0.0244,-0.0244,-0.0244,0.02928,0.02928,0.03416,0.02928,0.01952
0,0.00488,-0.00976,-0.00976,-0.00976,0.00488,-0.03416,0.0244,0.01952,0.0244,0.01952,0.00488
0.00976,0,-0.00976,-0.01464,-0.01952,0.01464,-0.03416,0.01952,0.01952,0.0244,0.01952,0.00488
0.01952,-0.00488,-0.00976,-0.01952,-0.02928,0.0244,-0.0244,0.00976,0.00488,0.0244,0.00488,0.00488
0.01952,-0.00732,-0.00488,-0.01464,-0.0244,0.02196,-0.0244,0.01464,0.00488,0.01952,0.00488,0.00488
0.00976,0,-0.00976,-0.01464,-0.01952,0.01464,-0.0244,0.00976,0.01464,0.01952,0.00976,0
0,0.00488,-0.00976,-0.00976,-0.00976,0.00488,-0.0244,0.00976,0.00976,0.01464,0.00488,0
-0.00976,0.01464,-0.01952,-0.01464,-0.00976,0,-0.01464,0.01952,0.00976,0.0244,0.01464,0.00976
-0.0244,0.02196,-0.01952,-0.00732,0.00488,-0.01464,-0.01464,0.01952,0.00976,0.0244,0.01952,0.00976
-0.01464,0.01464,-0.01464,-0.00732,0,-0.00732,-0.01952,0.01952,0.00976,0.01464,0.01464,0.00976
-0.00488,0.0122,-0.01952,-0.01708,-0.01464,0.00488,-0.01952,0.01464,0.00976,0.01464,0.00976,0.00976
0,0.00488,-0.00976,-0.00976,-0.00976,0.00488,-0.01952,0.00488,-0.00488,0.01464,0.00976,-0.00488
0.00488,0.00244,-0.00976,-0.0122,-0.01464,0.00976,-0.01952,0.00488,-0.00488,0.00976,0.00488,-0.00488
-0.00976,0.00976,-0.00976,-0.00488,0,-0.00488,-0.01952,0.00976,0,0.00488,0,-0.00488
-0.01464,0.01464,-0.01464,-0.00732,0,-0.00732,-0.01464,0.00976,0,0.00488,0,-0.00488
-0.00976,0.00976,-0.00976,-0.00488,0,-0.00488,-0.01952,0.00976,0,0.00488,0,-0.00488
-0.00976,0.00976,-0.00976,-0.00488,0,-0.00488,-0.01952,0.00976,-0.00488,0.00488,0,-0.00488
0,0.00976,-0.01952,-0.01952,-0.01952,0.00976,-0.0244,0,-0.01464,-0.00488,-0.00976,-0.01464
0.00488,0.00976,-0.0244,-0.02684,-0.02928,0.01708,-0.0244,0,-0.01952,-0.00488,-0.01464,-0.02928
-0.00488,0.01464,-0.0244,-0.02196,-0.01952,0.00732,-0.0244,-0.00488,-0.02928,-0.00976,-0.01464,-0.02928
0,0.0122,-0.0244,-0.0244,-0.0244,0.0122,-0.02928,-0.00488,-0.02928,-0.00976,-0.01464,-0.02928
-0.00976,0.01708,-0.0244,-0.01952,-0.01464,0.00244,-0.02928,0.00488,-0.01952,0,-0.00488,-0.01952
-0.01952,0.0244,-0.02928,-0.01952,-0.00976,-0.00488,-0.02928,0.00488,-0.01952,0,-0.00488,-0.01952
-0.02928,0.0244,-0.01952,-0.00488,0.00976,-0.01952,-0.01952,0.00488,-0.00976,0,-0.00488,-0.00976
-0.0244,0.0244,-0.0244,-0.0122,0,-0.0122,-0.01952,0.00488,-0.01464,-0.00488,-0.00488,-0.01464
-0.01952,0.02196,-0.0244,-0.01464,-0.00488,-0.00732,-0.01952,0,-0.01464,-0.00488,-0.00976,-0.0244
-0.00976,0.01708,-0.0244,-0.01952,-0.01464,0.00244,-0.01952,0,-0.01464,-0.00488,-0.00976,-0.02928
0.00488,0.00488,-0.01464,-0.01708,-0.01952,0.0122,-0.02928,-0.00976,-0.0244,-0.01464,-0.01952,-0.02928
-0.00488,0.00976,-0.01464,-0.0122,-0.00976,0.00244,-0.0244,-0.00976,-0.0244,-0.01464,-0.01464,-0.0244
-0.00488,0.0122,-0.01952,-0.01708,-0.01464,0.00488,-0.0244,0,-0.0244,-0.00976,-0.00488,-0.02928
-0.00488,0.0122,-0.01952,-0.01708,-0.01464,0.00488,-0.0244,0,-0.0244,-0.00976,-0.00488,-0.02928
-0.01464,0.02196,-0.02928,-0.02196,-0.01464,0,-0.01952,0.00488,-0.01464,-0.00488,-0.00488,-0.0244
-0.01464,0.01952,-0.0244,-0.01708,-0.00976,-0.00244,-0.01952,0.00488,-0.01464,-0.00488,-0.00488,-0.02928
-0.0244,0.01952,-0.01464,-0.00244,0.00976,-0.01708,-0.01952,0.01464,-0.00488,0.01464,0.00488,-0.01952
-0.04392,0.03416,-0.0244,-0.00244,0.01952,-0.03172,-0.00976,0.01464,0.00488,0.01464,0.00488,-0.01952
-0.04392,0.03416,-0.0244,-0.00244,0.01952,-0.03172,-0.01952,0.00976,-0.00976,0.00976,-0.00976,-0.02928
-0.03416,0.03416,-0.03416,-0.01708,0,-0.01708,-0.01952,0.00976,-0.00976,0.00976,-0.00976,-0.02928
-0.01464,0.02684,-0.03904,-0.03172,-0.0244,0.00488,-0.02928,0.00488,-0.01464,0.00488,-0.01952,-0.03904
-0.00488,0.02196,-0.03904,-0.0366,-0.03416,0.01464,-0.0244,-0.00488,-0.0244,-0.00976,-0.01952,-0.03904
0,0.01464,-0.02928,-0.02928,-0.02928,0.01464,-0.0244,-0.00976,-0.01952,-0.00488,-0.01952,-0.03904
0.00488,0.0122,-0.02928,-0.03172,-0.03416,0.01952,-0.0244,-0.00976,-0.01952,-0.00488,-0.01952,-0.03416
0,0.00976,-0.01952,-0.01952,-0.01952,0.00976,-0.02928,0,-0.01952,-0.00488,-0.01464,-0.02928
0,0.00976,-0.01952,-0.01952,-0.01952,0.00976,-0.02928,0,-0.01952,-0.00488,-0.01464,-0.02928
0,0.00488,-0.00976,-0.00976,-0.00976,0.00488,-0.01952,0.00488,-0.00976,-0.00488,-0.00976,-0.0244
0,0,0,0,0,0,-0.01952,0.00488,0,0.00488,-0.00488,-0.01952
0,-0.00732,0.01464,0.01464,0.01464,-0.00732,-0.02928,0.00488,0.00976,0.00976,0,0
0,-0.0122,0.0244,0.0244,0.0244,-0.0122,-0.03416,-0.00488,0.00976,0.00976,0.00488,0
-0.00976,-0.00732,0.0244,0.02928,0.03416,-0.02196,-0.03416,-0.01464,0.01464,0.01952,0.00488,0
-0.00488,-0.0122,0.02928,0.03172,0.03416,-0.01952,-0.03416,-0.00976,0.01952,0.01952,0.00488,0.00488
-0.00488,-0.01464,0.03416,0.0366,0.03904,-0.02196,-0.02928,-0.00976,0.01952,0.0244,0.00488,0.00488
0,-0.02196,0.04392,0.04392,0.04392,-0.02196,-0.04392,-0.00976,0.0244,0.02928,0.00976,0.00488
0.01952,-0.0366,0.05368,0.04392,0.03416,-0.00732,-0.05368,-0.00976,0.02928,0.02928,0.0244,0.00488
0.0244,-0.05124,0.07808,0.06588,0.05368,-0.01464,-0.0732,-0.01952,0.03416,0.03416,0.02928,0.01464
0.0244,-0.061,0.0976,0.0854,0.0732,-0.0244,-0.0976,-0.0244,0.0488,0.05368,0.03904,0.0244
0.0244,-0.07076,0.11712,0.10492,0.09272,-0.03416,-0.10248,-0.0244,0.05856,0.06344,0.0488,0.03904
0.01952,-0.07564,0.13176,0.122,0.11224,-0.04636,-0.0976,-0.02928,0.06832,0.07808,0.06832,0.0488
0.01464,-0.0732,0.13176,0.12444,0.11712,-0.05124,-0.09272,-0.0244,0.0732,0.08296,0.06832,0.06344
0.00976,-0.06588,0.122,0.11712,0.11224,-0.05124,-0.08296,-0.0244,0.06832,0.0732,0.06832,0.06832
0.01464,-0.061,0.10736,0.10004,0.09272,-0.03904,-0.08784,-0.01464,0.06832,0.0732,0.06832,0.06832
0.03416,-0.061,0.08784,0.07076,0.05368,-0.00976,-0.08296,-0.00976,0.06344,0.06344,0.05368,0.05368
0.0488,-0.05856,0.06832,0.04392,0.01952,0.01464,-0.0732,-0.00976,0.0488,0.0488,0.04392,0.03904
0.05368,-0.0488,0.04392,0.01708,-0.00976,0.03172,-0.05856,0.00488,0.02928,0.03904,0.03416,0.01464
0.04392,-0.02928,0.01464,-0.00732,-0.02928,0.0366,-0.0488,0.00488,0.01464,0.01952,0.01464,0.00488
0.01952,-0.00976,0,-0.00976,-0.01952,0.01952,-0.02928,0.00488,0.00976,0.0244,0.01464,-0.00488
0.00488,0.00732,-0.01952,-0.02196,-0.0244,0.01464,-0.01952,0.00488,0,0.00976,0.00488,-0.01952
-0.00976,0.01708,-0.0244,-0.01952,-0.01464,0.00244,0,0.00488,-0.00488,0,-0.00488,-0.02928
-0.01464,0.0244,-0.03416,-0.02684,-0.01952,0.00244,0,0.00488,-0.00488,0,-0.00488,-0.02928
-0.01952,0.03172,-0.04392,-0.03416,-0.0244,0.00244,0.00488,0.00488,-0.01464,-0.00976,-0.01464,-0.02928
-0.01952,0.03416,-0.0488,-0.03904,-0.02928,0.00488,0.00976,0.00488,-0.0244,-0.01464,-0.01952,-0.02928
-0.0244,0.04392,-0.06344,-0.05124,-0.03904,0.00732,0.01464,0.01464,-0.0244,-0.01464,-0.0244,-0.04392
-0.02928,0.04636,-0.06344,-0.0488,-0.03416,0.00244,0.01464,0.01464,-0.0244,-0.01464,-0.0244,-0.04392
-0.02928,0.04636,-0.06344,-0.0488,-0.03416,0.00244,0.01464,0.01952,-0.02928,-0.01952,-0.0244,-0.03416
-0.03904,0.05368,-0.06832,-0.0488,-0.02928,-0.00488,0.01464,0.01952,-0.02928,-0.01952,-0.0244,-0.03904
-0.04392,0.05612,-0.06832,-0.04636,-0.0244,-0.00976,0.01464,0.00976,-0.02928,-0.02928,-0.03416,-0.03904
-0.04392,0.05612,-0.06832,-0.04636,-0.0244,-0.00976,0.01464,0.00976,-0.02928,-0.02928,-0.03416,-0.03904
-0.03904,0.05368,-0.06832,-0.0488,-0.02928,-0.00488,0.01952,0.01464,-0.03416,-0.0244,-0.03416,-0.04392
-0.03904,0.05368,-0.06832,-0.0488,-0.02928,-0.00488,0.01952,0.01464,-0.03416,-0.0244,-0.03416,-0.04392
-0.03416,0.05124,-0.06832,-0.05124,-0.03416,0,0.02928,0.01464,-0.0244,-0.01464,-0.03416,-0.03904
-0.03416,0.05124,-0.06832,-0.05124,-0.03416,0,0.02928,0.00976,-0.0244,-0.01464,-0.03416,-0.03904
-0.03416,0.04392,-0.05368,-0.0366,-0.01952,-0.00732,0.03416,0.01464,-0.01952,-0.01464,-0.03416,-0.0488
-0.0488,0.04636,-0.04392,-0.01952,0.00488,-0.02684,0.0488,0.01464,0,-0.0244,-0.04392,-0.0488
-0.05856,0.0366,-0.01464,0.01464,0.04392,-0.05124,0.05856,0.02928,0.01952,-0.00976,-0.05368,-0.05368
-0.05856,0.00976,0.03904,0.06832,0.0976,-0.07808,0.06832,0.04392,0.08784,0.03904,-0.01464,-0.02928
-0.03416,-0.04148,0.11712,0.1342,0.15128,-0.09272,0.04392,0.08784,0.2196,0.1708,0.08784,0.05856
0.05368,-0.13908,0.22448,0.19764,0.1708,-0.05856,-0.03904,0.11712,0.40016,0.37576,0.25376,0.18544
0.17568,-0.25376,0.33184,0.244,0.15616,0.00976,-0.14152,0.13176,0.61976,0.64416,0.45384,0.33672
0.33184,-0.38308,0.43432,0.2684,0.10248,0.11468,-0.2928,0.14152,0.854,0.93696,0.67344,0.50264
0.5124,-0.51728,0.52216,0.26596,0.00976,0.25132,-0.45384,0.15128,1.06872,1.23464,0.89304,0.66856
0.63928,-0.5978,0.55632,0.23668,-0.08296,0.36112,-0.55144,0.1952,1.20048,1.42008,1.03944,0.75152
0.7076,-0.59048,0.47336,0.11956,-0.23424,0.47092,-0.56608,0.25376,1.18096,1.44448,1.03944,0.73688
0.63928,-0.45872,0.27816,-0.04148,-0.36112,0.5002,-0.47336,0.23912,0.94184,1.18584,0.854,0.59536
0.488,-0.26108,0.03416,-0.20984,-0.45384,0.47092,-0.29768,0.1464,0.51728,0.71736,0.55144,0.37088
0.29768,-0.04636,-0.20496,-0.3538,-0.50264,0.40016,-0.13664,0.01464,0.03904,0.21472,0.22448,0.1464
0.15128,0.09272,-0.33672,-0.41236,-0.488,0.31964,-0.00976,-0.08296,-0.30744,-0.16104,-0.01464,-0.00976
0.06344,0.16836,-0.40016,-0.43188,-0.4636,0.26352,0.05368,-0.10736,-0.47336,-0.3416,-0.13176,-0.08784
0.0244,0.19032,-0.40504,-0.41724,-0.42944,0.22692,0.08784,-0.06344,-0.47336,-0.366,-0.16592,-0.122
-0.00488,0.18544,-0.366,-0.36356,-0.36112,0.17812,0.11224,-0.01464,-0.38552,-0.30744,-0.15616,-0.122
-0.01952,0.16348,-0.30744,-0.29768,-0.28792,0.1342,0.10736,0.03416,-0.2928,-0.23424,-0.14152,-0.122
0,0.12932,-0.25864,-0.25864,-0.25864,0.12932,0.0976,0.05368,-0.22448,-0.17568,-0.122,-0.11224
0.00976,0.09516,-0.20008,-0.20496,-0.20984,0.1098,0.08296,0.06832,-0.1464,-0.11712,-0.09272,-0.09272
0.0244,0.061,-0.1464,-0.1586,-0.1708,0.0976,0.06832,0.06344,-0.10248,-0.08784,-0.0732,-0.07808
0.01952,0.05124,-0.122,-0.13176,-0.14152,0.08052,0.06344,0.06344,-0.06832,-0.05856,-0.05856,-0.06832
-0.01464,0.05368,-0.09272,-0.0854,-0.07808,0.03172,0.0732,0.0732,-0.03904,-0.03416,-0.03416,-0.0488
-0.0244,0.05124,-0.07808,-0.06588,-0.05368,0.01464,0.05856,0.06344,-0.02928,-0.03416,-0.03416,-0.0488
-0.0244,0.0488,-0.0732,-0.061,-0.0488,0.0122,0.05856,0.06344,-0.01952,-0.0244,-0.02928,-0.03904
-0.0244,0.04636,-0.06832,-0.05612,-0.04392,0.00976,0.05856,0.06344,-0.00976,-0.01952,-0.02928,-0.03416
-0.01464,0.04148,-0.06832,-0.061,-0.05368,0.01952,0.05368,0.05368,-0.01464,-0.02928,-0.03416,-0.04392
-0.00488,0.0366,-0.06832,-0.06588,-0.06344,0.02928,0.04392,0.05368,-0.01464,-0.01952,-0.03416,-0.03904
-0.00488,0.03416,-0.06344,-0.061,-0.05856,0.02684,0.03416,0.05368,-0.00976,-0.00976,-0.0244,-0.02928
-0.01464,0.0366,-0.05856,-0.05124,-0.04392,0.01464,0.03416,0.05856,0,0,-0.01952,-0.0244
-0.03416,0.04636,-0.05856,-0.04148,-0.0244,-0.00488,0.03416,0.05856,0.00976,0.00976,0,-0.0244
-0.03416,0.04392,-0.05368,-0.0366,-0.01952,-0.00732,0.04392,0.05856,0.01952,0.01464,0,-0.01952
-0.0244,0.03416,-0.04392,-0.03172,-0.01952,-0.00244,0.03904,0.0488,0.00976,0.00976,-0.00976,-0.02928
0,0.01952,-0.03904,-0.03904,-0.03904,0.01952,0.03416,0.05368,0.01464,0.01464,-0.00488,-0.02928
0.01464,0.0122,-0.03904,-0.04636,-0.05368,0.03416,0.0244,0.05368,0.01464,0.00488,-0.01464,-0.03416
0.01464,0.0122,-0.03904,-0.04636,-0.05368,0.03416,0.0244,0.05368,0.01464,0.00488,-0.01464,-0.03416
0.00976,0.0122,-0.03416,-0.03904,-0.04392,0.02684,0.0244,0.06344,0.02928,0.01464,-0.00488,-0.02928
-0.00488,0.01952,-0.03416,-0.03172,-0.02928,0.0122,0.03416,0.06832,0.02928,0.01952,0,-0.0244
-0.01952,0.0244,-0.02928,-0.01952,-0.00976,-0.00488,0.03904,0.07808,0.03416,0.03416,0.00976,-0.01952
-0.01952,0.02196,-0.0244,-0.01464,-0.00488,-0.00732,0.03904,0.07808,0.03904,0.04392,0.01464,-0.00488
-0.00488,0.01464,-0.0244,-0.02196,-0.01952,0.00732,0.02928,0.0732,0.03416,0.03416,0.00488,-0.00488
0,0.00976,-0.01952,-0.01952,-0.01952,0.00976,0.02928,0.0732,0.03904,0.03904,0.00488,-0.00488
0.01464,0.00244,-0.01952,-0.02684,-0.03416,0.0244,0.01952,0.0732,0.03904,0.04392,0.00976,-0.00488
0.01952,-0.00244,-0.01464,-0.0244,-0.03416,0.02684,0.01952,0.0732,0.04392,0.04392,0.01464,-0.00488
0.02928,-0.00732,-0.01464,-0.02928,-0.04392,0.0366,0.01952,0.0732,0.05856,0.0488,0.01464,0
0.03416,-0.0122,-0.00976,-0.02684,-0.04392,0.03904,0.01464,0.07808,0.06344,0.05368,0.01952,0
0.0244,-0.00244,-0.01952,-0.03172,-0.04392,0.03416,0.00488,0.08296,0.06344,0.05368,0.0244,0.00976
0.0244,-0.00488,-0.01464,-0.02684,-0.03904,0.03172,0.00488,0.08784,0.0732,0.06344,0.02928,0.00976
0.01952,-0.00732,-0.00488,-0.01464,-0.0244,0.02196,0.01464,0.09272,0.07808,0.07808,0.03416,0.01464
0.01464,-0.00732,0,-0.00732,-0.01464,0.01464,0.00976,0.0976,0.08784,0.08784,0.03416,0.01464
0.02928,-0.01952,0.00976,-0.00488,-0.01952,0.0244,0.00976,0.0976,0.10248,0.0976,0.03904,0.01952
0.03416,-0.0244,0.01464,-0.00244,-0.01952,0.02684,0.00488,0.10248,0.11224,0.10736,0.04392,0.01952
0.0488,-0.02684,0.00488,-0.01952,-0.04392,0.04636,0,0.10248,0.11224,0.10736,0.05368,0.0244
0.05856,-0.03904,0.01952,-0.00976,-0.03904,0.0488,-0.00976,0.11224,0.12688,0.11712,0.05368,0.02928
0.05856,-0.04148,0.0244,-0.00488,-0.03416,0.04636,-0.00976,0.13176,0.13664,0.13176,0.07808,0.0488
0.06344,-0.0488,0.03416,0.00244,-0.02928,0.04636,-0.00976,0.13664,0.15616,0.15128,0.08784,0.05856
0.06832,-0.05368,0.03904,0.00488,-0.02928,0.0488,-0.01952,0.1464,0.17568,0.1708,0.0976,0.06344
0.06832,-0.05612,0.04392,0.00976,-0.0244,0.04636,-0.0244,0.16104,0.19032,0.18544,0.11224,0.0732
0.08784,-0.07076,0.05368,0.00976,-0.03416,0.061,-0.03416,0.1708,0.20984,0.21472,0.122,0.08784
0.09272,-0.07808,0.06344,0.01708,-0.02928,0.061,-0.04392,0.18056,0.23424,0.23912,0.13664,0.09272
0.10736,-0.09272,0.07808,0.0244,-0.02928,0.06832,-0.05856,0.18544,0.25864,0.25864,0.1464,0.0976
0.12688,-0.10736,0.08784,0.0244,-0.03904,0.08296,-0.06832,0.20984,0.28792,0.27816,0.16592,0.10736
0.15616,-0.12444,0.09272,0.01464,-0.06344,0.1098,-0.08296,0.2196,0.30744,0.30256,0.18056,0.122
0.1708,-0.13908,0.10736,0.02196,-0.06344,0.11712,-0.09272,0.22936,0.32696,0.33184,0.20008,0.13176
0.16592,-0.14152,0.11712,0.03416,-0.0488,0.10736,-0.10736,0.23912,0.35624,0.36112,0.22448,0.15616
0.16592,-0.1464,0.12688,0.04392,-0.03904,0.10248,-0.11712,0.24888,0.38064,0.38552,0.244,0.16592
0.16104,-0.15128,0.14152,0.061,-0.01952,0.09028,-0.11712,0.26352,0.39528,0.40504,0.25376,0.1708
0.1708,-0.16104,0.15128,0.06588,-0.01952,0.09516,-0.122,0.27328,0.4148,0.42456,0.26352,0.18544
0.17568,-0.16836,0.16104,0.0732,-0.01464,0.09516,-0.13176,0.27816,0.42944,0.43432,0.2684,0.1952
0.17568,-0.16836,0.16104,0.0732,-0.01464,0.09516,-0.13176,0.28304,0.4392,0.44408,0.27816,0.20496
0.18056,-0.17324,0.16592,0.07564,-0.01464,0.0976,-0.13176,0.28304,0.44896,0.45872,0.28792,0.20496
0.18056,-0.17568,0.1708,0.08052,-0.00976,0.09516,-0.13176,0.28792,0.45872,0.46848,0.2928,0.2196
0.19032,-0.183,0.17568,0.08052,-0.01464,0.10248,-0.1464,0.28792,0.44896,0.47336,0.2928,0.2196
0.1952,-0.18788,0.18056,0.08296,-0.01464,0.10492,-0.1464,0.27816,0.44896,0.46848,0.29768,0.2196
0.20008,-0.19032,0.18056,0.08052,-0.01952,0.1098,-0.14152,0.26352,0.44408,0.45872,0.29768,0.20984
0.20496,-0.19276,0.18056,0.07808,-0.0244,0.11468,-0.14152,0.25864,0.42456,0.44408,0.28304,0.20008
0.1952,-0.18788,0.18056,0.08296,-0.01464,0.10492,-0.14152,0.23424,0.40504,0.40992,0.2684,0.1952
0.19032,-0.183,0.17568,0.08052,-0.01464,0.10248,-0.13176,0.21472,0.37576,0.38064,0.25376,0.18056
0.1708,-0.16348,0.15616,0.07076,-0.01464,0.09272,-0.122,0.19032,0.3416,0.34648,0.23424,0.16592
0.15616,-0.15128,0.1464,0.06832,-0.00976,0.08296,-0.11224,0.15616,0.31232,0.30744,0.20496,0.1464
0.12688,-0.12932,0.13176,0.06832,0.00488,0.061,-0.09272,0.14152,0.27816,0.27816,0.18544,0.14152
0.09272,-0.10248,0.11224,0.06588,0.01952,0.0366,-0.07808,0.13176,0.23912,0.23912,0.15616,0.122
0.05856,-0.08296,0.10736,0.07808,0.0488,0.00488,-0.05856,0.11712,0.21472,0.20984,0.14152,0.0976
0.02928,-0.05856,0.08784,0.0732,0.05856,-0.01464,-0.04392,0.10736,0.18056,0.17568,0.122,0.09272
0.0244,-0.0488,0.0732,0.061,0.0488,-0.0122,-0.02928,0.08784,0.16104,0.1464,0.10248,0.07808
0.01464,-0.0366,0.05856,0.05124,0.04392,-0.01464,-0.01952,0.06832,0.13664,0.122,0.08784,0.06832
0.01464,-0.02928,0.04392,0.0366,0.02928,-0.00732,-0.0244,0.05368,0.10248,0.0976,0.06832,0.05368
0.02928,-0.03172,0.03416,0.01952,0.00488,0.0122,-0.01952,0.0488,0.08296,0.07808,0.05368,0.03904
0.04392,-0.03416,0.0244,0.00244,-0.01952,0.03172,-0.01464,0.0488,0.06344,0.05856,0.04392,0.03904
0.0488,-0.03172,0.01464,-0.00976,-0.03416,0.04148,-0.01464,0.04392,0.05368,0.05368,0.03416,0.02928
0.03416,-0.01952,0.00488,-0.0122,-0.02928,0.03172,-0.00488,0.04392,0.05368,0.04392,0.0244,0.0244
0.00976,-0.00488,0,-0.00488,-0.00976,0.00976,0.00976,0.04392,0.04392,0.03904,0.0244,0.0244
-0.01464,0.01708,-0.01952,-0.0122,-0.00488,-0.00488,0.01952,0.04392,0.03904,0.03416,0.0244,0.01464
-0.01952,0.01952,-0.01952,-0.00976,0,-0.00976,0.01952,0.03904,0.03904,0.03416,0.0244,0.00976
-0.03416,0.02684,-0.01952,-0.00244,0.01464,-0.0244,0.0244,0.02928,0.03904,0.02928,0.0244,0.00976
-0.02928,0.02684,-0.0244,-0.00976,0.00488,-0.01708,0.0244,0.02928,0.02928,0.0244,0.01952,0.00976
-0.03416,0.02684,-0.01952,-0.00244,0.01464,-0.0244,0.0244,0.03416,0.01952,0.01952,0.01952,0.01464
-0.03416,0.02684,-0.01952,-0.00244,0.01464,-0.0244,0.0244,0.03416,0.01952,0.01952,0.01952,0.01464
-0.03416,0.0244,-0.01464,0.00244,0.01952,-0.02684,0.0244,0.03416,0.01464,0.00976,0.01464,0.01464
-0.0244,0.01952,-0.01464,-0.00244,0.00976,-0.01708,0.02928,0.03416,0.01464,0.00488,0.01464,0.01464
-0.0244,0.0244,-0.0244,-0.0122,0,-0.0122,0.02928,0.03416,0.01952,0.01464,0.0244,0.0244
-0.0244,0.0244,-0.0244,-0.0122,0,-0.0122,0.0244,0.03416,0.01952,0.00976,0.01952,0.01952
-0.02928,0.0244,-0.01952,-0.00488,0.00976,-0.01952,0.03416,0.03416,0.0244,0.01952,0.01952,0.01952
-0.01952,0.01952,-0.01952,-0.00976,0,-0.00976,0.02928,0.03416,0.0244,0.0244,0.01952,0.01952
-0.01464,0.01464,-0.01464,-0.00732,0,-0.00732,0.0244,0.02928,0.00976,0.00976,0.00976,0.00976
0.00488,0.00488,-0.01464,-0.01708,-0.01952,0.0122,0.01952,0.02928,0.00976,0.00976,0.00976,0.00976
0.0244,-0.00488,-0.01464,-0.02684,-0.03904,0.03172,0.00976,0.01952,0,0,0,0
0.0244,-0.00732,-0.00976,-0.02196,-0.03416,0.02928,0.00976,0.01952,0,0,0,0
0.01952,-0.00488,-0.00976,-0.01952,-0.02928,0.0244,0.01952,0.01952,0.01464,0.01464,0.00976,0.01464
0.00488,0.00244,-0.00976,-0.0122,-0.01464,0.00976,0.0244,0.01952,0.01464,0.01464,0.01464,0.01464
0,0,0,0,0,0,0.0244,0.01952,0.01952,0.01464,0.0244,0.01952
0,0,0,0,0,0,0.01952,0.01952,0.01952,0.01464,0.0244,0.01952
-0.00488,0.00244,0,0.00244,0.00488,-0.00488,0.01464,0.01952,0.01464,0.01464,0.0244,0.01464
-0.00976,0.00244,0.00488,0.00976,0.01464,-0.0122,0.00976,0.01952,0.01464,0.01464,0.01952,0.01464
-0.01464,0.00488,0.00488,0.0122,0.01952,-0.01708,0.00976,0.02928,0.0244,0.01464,0.02928,0.0244
-0.01952,0.00732,0.00488,0.01464,0.0244,-0.02196,0.00976,0.02928,0.0244,0.01464,0.03416,0.0244
-0.01464,0.00244,0.00976,0.01708,0.0244,-0.01952,0.00976,0.01952,0.01464,0.01464,0.0244,0.0244
-0.00976,0,0.00976,0.01464,0.01952,-0.01464,0.00976,0.01952,0.01464,0.01464,0.02928,0.0244
-0.01952,0.00488,0.00976,0.01952,0.02928,-0.0244,0.00976,0.01952,0.01464,0.01952,0.02928,0.0244
-0.01464,0.00244,0.00976,0.01708,0.0244,-0.01952,0.00976,0.01952,0.01464,0.01952,0.02928,0.02928
-0.00488,0.00244,0,0.00244,0.00488,-0.00488,0.00976,0.01952,0.01464,0.01952,0.01952,0.02928
-0.00488,0.00244,0,0.00244,0.00488,-0.00488,0.00488,0.01952,0.01464,0.01952,0.01952,0.02928
0.00488,-0.00732,0.00976,0.00732,0.00488,0,0.00488,0.01952,0.00976,0.01464,0.01952,0.02928
0.00976,-0.00976,0.00976,0.00488,0,0.00488,0.00488,0.00976,0.00976,0.01464,0.01952,0.0244
-0.00488,-0.00244,0.00976,0.0122,0.01464,-0.00976,0.01464,0.01952,0.00976,0.01464,0.02928,0.0244
-0.01464,0.00244,0.00976,0.01708,0.0244,-0.01952,0.01464,0.0244,0.00488,0.00976,0.0244,0.0244
-0.00976,0.00244,0.00488,0.00976,0.01464,-0.0122,0.01464,0.00976,-0.00488,0,0.0244,0.0244
-0.00976,0.00488,0,0.00488,0.00976,-0.00976,0.01464,0.00976,-0.00976,0,0.01952,0.01952
-0.00976,0.00488,0,0.00488,0.00976,-0.00976,0.00488,0,-0.01952,-0.00488,0.00488,0.01952
-0.00976,0.00488,0,0.00488,0.00976,-0.00976,0.00488,0,-0.01952,-0.00488,0.00976,0.01952
-0.0244,0.01464,-0.00488,0.00732,0.01952,-0.02196,0.01952,0.00976,-0.00976,0.00488,0.00976,0.01952
-0.0244,0.01464,-0.00488,0.00732,0.01952,-0.02196,0.01952,0.00976,-0.00976,0.00488,0.01464,0.01952
-0.0244,0.02196,-0.01952,-0.00732,0.00488,-0.01464,0.00976,-0.00488,-0.01952,-0.00488,0.00976,0.01952
-0.01464,0.01708,-0.01952,-0.0122,-0.00488,-0.00488,0.00976,-0.00488,-0.0244,-0.00976,0.00488,0.01464
-0.00488,0.0122,-0.01952,-0.01708,-0.01464,0.00488,0.01952,-0.00976,-0.02928,-0.00976,0.00488,0.01464
-0.01464,0.01952,-0.0244,-0.01708,-0.00976,-0.00244,0.0244,-0.00976,-0.02928,-0.01464,0,0.01464
-0.0244,0.02196,-0.01952,-0.00732,0.00488,-0.01464,0.0244,0,-0.01952,-0.01464,0.00488,0.0244
-0.02928,0.01708,-0.00488,0.00976,0.0244,-0.02684,0.01952,0,-0.0244,-0.01464,0.01464,0.0244
-0.02928,0.01952,-0.00976,0.00488,0.01952,-0.0244,0.0244,0,-0.0244,-0.01464,0.00976,0.01464
-0.0244,0.01952,-0.01464,-0.00244,0.00976,-0.01708,0.0244,0,-0.0244,-0.01464,0.00976,0.00976
-0.01464,0.01464,-0.01464,-0.00732,0,-0.00732,0.0244,0,-0.02928,-0.01952,0.00488,0.01952
-0.00976,0.0122,-0.01464,-0.00976,-0.00488,-0.00244,0.01952,-0.00488,-0.02928,-0.01952,0.00488,0.01952
-0.00976,0.0122,-0.01464,-0.00976,-0.00488,-0.00244,0.00976,-0.00488,-0.02928,-0.01952,0.00488,0.00976
-0.00976,0.0122,-0.01464,-0.00976,-0.00488,-0.00244,0.00976,-0.00488,-0.02928,-0.01952,0.00488,0.00976
-0.00976,0.01464,-0.01952,-0.01464,-0.00976,0,0.00976,-0.01464,-0.03904,-0.01952,0.00488,0.00976
-0.00976,0.01708,-0.0244,-0.01952,-0.01464,0.00244,0.00976,-0.01464,-0.03904,-0.01952,0.00488,0.00976
-0.00976,0.0122,-0.01464,-0.00976,-0.00488,-0.00244,0.01952,-0.00976,-0.03416,-0.01464,0.00976,0.01464
-0.0244,0.01952,-0.01464,-0.00244,0.00976,-0.01708,0.01952,-0.00488,-0.03416,-0.01464,0.00976,0.00976
-0.03416,0.02928,-0.0244,-0.00732,0.00976,-0.02196,0.01952,0,-0.03416,-0.01464,0.00976,0.00976
-0.04392,0.03416,-0.0244,-0.00244,0.01952,-0.03172,0.0244,0,-0.03416,-0.01464,0.01464,0.01464
-0.03904,0.03416,-0.02928,-0.00976,0.00976,-0.0244,0.01464,-0.00488,-0.04392,-0.01952,0.00976,0.00976
-0.02928,0.02928,-0.02928,-0.01464,0,-0.01464,0.01464,-0.01464,-0.04392,-0.0244,0,0.00976
-0.01952,0.01952,-0.01952,-0.00976,0,-0.00976,0.00976,-0.0244,-0.04392,-0.03416,-0.01464,0.00488
-0.00976,0.0122,-0.01464,-0.00976,-0.00488,-0.00244,0.00976,-0.0244,-0.04392,-0.03416,-0.01464,0.00488
0.00488,0.00488,-0.01464,-0.01708,-0.01952,0.0122,0.00976,-0.0244,-0.04392,-0.03416,-0.01464,0.00976
0.00488,0.00488,-0.01464,-0.01708,-0.01952,0.0122,0.00976,-0.0244,-0.04392,-0.03416,-0.01464,0.00976
0.00488,0.00488,-0.01464,-0.01708,-0.01952,0.0122,0.00976,-0.0244,-0.05368,-0.04392,-0.01464,0.00488
-0.00976,0.01464,-0.01952,-0.01464,-0.00976,0,0.00976,-0.02928,-0.0488,-0.03904,-0.01952,0
-0.00976,0.01464,-0.01952,-0.01464,-0.00976,0,0.00976,-0.02928,-0.0488,-0.03904,-0.01952,0
-0.01464,0.01708,-0.01952,-0.0122,-0.00488,-0.00488,0.01952,-0.01952,-0.03904,-0.02928,-0.01464,0.00976
-0.0244,0.02196,-0.01952,-0.00732,0.00488,-0.01464,0.0244,-0.01952,-0.03904,-0.03416,-0.00488,0.00976
-0.03904,0.02928,-0.01952,0,0.01952,-0.02928,0.03416,-0.01464,-0.03904,-0.0244,0,0.00976
-0.03416,0.02684,-0.01952,-0.00244,0.01464,-0.0244,0.03416,-0.00488,-0.03904,-0.0244,0,0.01464
-0.02928,0.02928,-0.02928,-0.01464,0,-0.01464,0.01952,-0.00976,-0.0488,-0.0244,-0.00488,0.00976
-0.02928,0.02928,-0.02928,-0.01464,0,-0.01464,0.01952,-0.00976,-0.0488,-0.0244,-0.00488,0.00976
-0.0244,0.01708,-0.00976,0.00244,0.01464,-0.01952,0.00976,-0.01464,-0.0488,-0.01952,-0.00976,0.00488
-0.01464,0.00732,0,0.00732,0.01464,-0.01464,0.00976,-0.01464,-0.03904,-0.01952,-0.00488,0.00976
0,-0.00732,0.01464,0.01464,0.01464,-0.00732,0,-0.0244,-0.02928,-0.01952,0,0.01952
0,-0.0122,0.0244,0.0244,0.0244,-0.0122,-0.00488,-0.03416,-0.02928,-0.01952,0.00488,0.01952
-0.00488,-0.01464,0.03416,0.0366,0.03904,-0.02196,-0.00488,-0.04392,-0.0244,-0.00976,0.01464,0.01952
-0.00976,-0.01464,0.03904,0.04392,0.0488,-0.02928,-0.00488,-0.03904,-0.01952,-0.00976,0.01464,0.0244
-0.01464,-0.01464,0.04392,0.05124,0.05856,-0.0366,-0.00976,-0.03904,-0.01952,-0.01464,0.00488,0.03416
-0.00976,-0.02196,0.05368,0.05856,0.06344,-0.0366,-0.0244,-0.03904,-0.01464,-0.00976,0.00976,0.03416
0,-0.03172,0.06344,0.06344,0.06344,-0.03172,-0.0244,-0.02928,0.00976,0.00976,0.03416,0.04392
0.00488,-0.04636,0.08784,0.0854,0.08296,-0.03904,-0.04392,-0.03904,0.01464,0.01464,0.03904,0.05368
0.00488,-0.05612,0.10736,0.10492,0.10248,-0.0488,-0.05856,-0.04392,0.02928,0.03416,0.05856,0.0732
0.00488,-0.06588,0.12688,0.12444,0.122,-0.05856,-0.06344,-0.04392,0.03904,0.04392,0.06832,0.08784
0.01464,-0.07808,0.14152,0.1342,0.12688,-0.05612,-0.07808,-0.0488,0.02928,0.03904,0.06832,0.08296
0.01952,-0.08052,0.14152,0.13176,0.122,-0.05124,-0.0732,-0.04392,0.03416,0.04392,0.06832,0.08784
0.01952,-0.07564,0.13176,0.122,0.11224,-0.04636,-0.06832,-0.03904,0.02928,0.03416,0.05856,0.07808
0.0244,-0.07076,0.11712,0.10492,0.09272,-0.03416,-0.06344,-0.03904,0.02928,0.03416,0.05856,0.07808
0.0244,-0.05612,0.08784,0.07564,0.06344,-0.01952,-0.04392,-0.02928,0.03416,0.04392,0.06344,0.08296
0.01952,-0.04392,0.06832,0.05856,0.0488,-0.01464,-0.03416,-0.02928,0.01952,0.02928,0.05368,0.06832
0.00488,-0.0244,0.04392,0.04148,0.03904,-0.01708,-0.00976,-0.01464,0.00976,0.02928,0.04392,0.05368
-0.00488,-0.00488,0.01464,0.01708,0.01952,-0.0122,0,-0.01464,-0.00488,0.00976,0.0244,0.04392
-0.0244,0.00732,0.00976,0.02196,0.03416,-0.02928,0.01952,-0.00488,-0.00976,0.01464,0.0244,0.04392
-0.0488,0.02928,-0.00976,0.01464,0.03904,-0.04392,0.02928,-0.00488,-0.01952,0,0.01464,0.02928
-0.0488,0.0366,-0.0244,0,0.0244,-0.0366,0.02928,-0.00488,-0.0244,-0.01952,0.00488,0.00976
-0.05368,0.04392,-0.03416,-0.00732,0.01952,-0.0366,0.02928,-0.00488,-0.0244,-0.01952,0.00488,0.00976
-0.0488,0.04148,-0.03416,-0.00976,0.01464,-0.03172,0.03416,-0.00488,-0.03416,-0.02928,-0.01464,0
-0.0488,0.04392,-0.03904,-0.01464,0.00976,-0.02928,0.03904,-0.00488,-0.04392,-0.03416,-0.01952,0
-0.06344,0.05856,-0.05368,-0.02196,0.00976,-0.0366,0.04392,-0.00488,-0.05368,-0.03416,-0.0244,0.00488
-0.06832,0.061,-0.05368,-0.01952,0.01464,-0.04148,0.04392,-0.00488,-0.05368,-0.03416,-0.0244,0.00488
-0.05368,0.05368,-0.05368,-0.02684,0,-0.02684,0.04392,-0.00976,-0.05856,-0.03904,-0.0244,-0.00488
-0.05368,0.05612,-0.05856,-0.03172,-0.00488,-0.0244,0.04392,-0.00976,-0.05856,-0.03904,-0.0244,-0.00976
-0.06832,0.06344,-0.05856,-0.0244,0.00976,-0.03904,0.04392,-0.00976,-0.05856,-0.03904,-0.0244,-0.01952
-0.07808,0.06832,-0.05856,-0.01952,0.01952,-0.0488,0.04392,-0.00976,-0.05856,-0.03904,-0.0244,-0.01952
-0.08296,0.07076,-0.05856,-0.01708,0.0244,-0.05368,0.0488,0.00488,-0.04392,-0.03416,-0.0244,-0.00488
-0.09272,0.07564,-0.05856,-0.0122,0.03416,-0.06344,0.0488,0.00488,-0.04392,-0.03416,-0.0244,-0.00488
-0.08296,0.07076,-0.05856,-0.01708,0.0244,-0.05368,0.0488,-0.00488,-0.05368,-0.04392,-0.03416,-0.01952
-0.06344,0.061,-0.05856,-0.02684,0.00488,-0.03416,0.0488,-0.00976,-0.05368,-0.04392,-0.03416,-0.01952
-0.03416,0.04392,-0.05368,-0.0366,-0.01952,-0.00732,0.05368,-0.01464,-0.0488,-0.04392,-0.03416,-0.02928
-0.0488,0.04148,-0.03416,-0.00976,0.01464,-0.03172,0.05856,-0.01464,-0.0488,-0.05368,-0.05368,-0.02928
-0.06832,0.04148,-0.01464,0.01952,0.05368,-0.061,0.06832,-0.00976,-0.02928,-0.05856,-0.05368,-0.03416
-0.06832,0.01464,0.03904,0.0732,0.10736,-0.08784,0.06832,0.00488,0.01952,-0.01952,-0.03416,-0.01952
-0.03416,-0.0366,0.10736,0.12444,0.14152,-0.08784,0.05368,0.02928,0.122,0.08296,0.03904,0.03904
0.03416,-0.12444,0.21472,0.19764,0.18056,-0.0732,-0.00976,0.06832,0.31232,0.28792,0.18544,0.15616
0.12688,-0.22936,0.33184,0.2684,0.20496,-0.03904,-0.10248,0.09272,0.55144,0.56608,0.38552,0.30744
0.27328,-0.3538,0.43432,0.29768,0.16104,0.05612,-0.23424,0.13176,0.83448,0.90768,0.6344,0.49288
0.43432,-0.488,0.54168,0.32452,0.10736,0.16348,-0.40504,0.16104,1.11752,1.25416,0.88328,0.66856
0.60024,-0.59292,0.5856,0.28548,-0.01464,0.30744,-0.53192,0.20496,1.3176,1.51768,1.05896,0.7808
0.71736,-0.62464,0.53192,0.17324,-0.18544,0.4514,-0.5856,0.26352,1.37616,1.60064,1.10776,0.8052
0.71736,-0.5368,0.35624,-0.00244,-0.36112,0.53924,-0.5124,0.28792,1.20536,1.42984,0.99064,0.70272
0.57584,-0.34404,0.11224,-0.17568,-0.4636,0.51972,-0.35624,0.20496,0.7808,0.97112,0.7076,0.49776
0.38552,-0.11956,-0.1464,-0.33916,-0.53192,0.45872,-0.17568,0.08296,0.26352,0.42944,0.37088,0.28304
0.20984,0.0488,-0.30744,-0.41236,-0.51728,0.36356,-0.0488,-0.05368,-0.19032,-0.04392,0.09272,0.0976
0.09272,0.14396,-0.38064,-0.427,-0.47336,0.28304,0.03416,-0.11712,-0.45384,-0.31232,-0.08296,-0.01952
0.04392,0.17568,-0.39528,-0.41724,-0.4392,0.24156,0.08784,-0.08296,-0.50264,-0.37576,-0.1464,-0.08296
0.01464,0.17568,-0.366,-0.37332,-0.38064,0.19764,0.10248,-0.04392,-0.45384,-0.33672,-0.16592,-0.10248
-0.00976,0.16348,-0.3172,-0.31232,-0.30744,0.14884,0.10736,0.00488,-0.3416,-0.26352,-0.14152,-0.10248
-0.01952,0.13908,-0.25864,-0.24888,-0.23912,0.1098,0.10736,0.03416,-0.25376,-0.20496,-0.13176,-0.09272
-0.02928,0.11956,-0.20984,-0.1952,-0.18056,0.07564,0.10248,0.0488,-0.18544,-0.1464,-0.10248,-0.08296
-0.03416,0.09516,-0.15616,-0.13908,-0.122,0.04392,0.0976,0.06344,-0.122,-0.0976,-0.06344,-0.0488
-0.03904,0.07564,-0.11224,-0.09272,-0.0732,0.01708,0.09272,0.06344,-0.08784,-0.07808,-0.0488,-0.03904
-0.03416,0.05856,-0.08296,-0.06588,-0.0488,0.00732,0.08296,0.05368,-0.06832,-0.06344,-0.04392,-0.02928
-0.0244,0.04636,-0.06832,-0.05612,-0.04392,0.00976,0.06832,0.04392,-0.05856,-0.06344,-0.04392,-0.02928
-0.00488,0.03904,-0.0732,-0.07076,-0.06832,0.03172,0.05856,0.03904,-0.06832,-0.06344,-0.04392,-0.03904
-0.00488,0.0366,-0.06832,-0.06588,-0.06344,0.02928,0.05856,0.02928,-0.05856,-0.05856,-0.05368,-0.03416
-0.01464,0.0366,-0.05856,-0.05124,-0.04392,0.01464,0.06832,0.02928,-0.05368,-0.0488,-0.0488,-0.0244
-0.0244,0.04148,-0.05856,-0.04636,-0.03416,0.00488,0.06832,0.03904,-0.03416,-0.03904,-0.03904,-0.01952
-0.02928,0.04636,-0.06344,-0.0488,-0.03416,0.00244,0.06344,0.04392,-0.0244,-0.02928,-0.03416,-0.01952
-0.02928,0.04392,-0.05856,-0.04392,-0.02928,0,0.06344,0.0488,-0.0244,-0.01952,-0.02928,-0.01464
-0.02928,0.04392,-0.05856,-0.04392,-0.02928,0,0.05856,0.0488,-0.02928,-0.02928,-0.02928,-0.01464
-0.01952,0.0366,-0.05368,-0.04392,-0.03416,0.00732,0.05856,0.0488,-0.01952,-0.0244,-0.02928,-0.00976
-0.01464,0.03416,-0.05368,-0.04636,-0.03904,0.0122,0.0488,0.03904,-0.01952,-0.01952,-0.02928,-0.01952
-0.00976,0.02928,-0.0488,-0.04392,-0.03904,0.01464,0.04392,0.04392,-0.01464,-0.01464,-0.0244,-0.01952
-0.01464,0.02684,-0.03904,-0.03172,-0.0244,0.00488,0.05368,0.05368,-0.00488,-0.00488,-0.0244,-0.01464
-0.01464,0.02684,-0.03904,-0.03172,-0.0244,0.00488,0.05368,0.05368,-0.00488,-0.00488,-0.0244,-0.01464
-0.01464,0.02928,-0.04392,-0.0366,-0.02928,0.00732,0.05856,0.04392,0,-0.00488,-0.0244,-0.01952
-0.01952,0.03172,-0.04392,-0.03416,-0.0244,0.00244,0.05856,0.0488,0,0,-0.01952,-0.01464
-0.01952,0.02928,-0.03904,-0.02928,-0.01952,0,0.0488,0.0488,0.00488,0.00488,-0.01952,-0.01464
-0.01952,0.02684,-0.03416,-0.0244,-0.01464,-0.00244,0.0488,0.0488,0.00976,0.01464,-0.01464,-0.00976
-0.01464,0.0244,-0.03416,-0.02684,-0.01952,0.00244,0.03904,0.05368,0.01464,0.01464,-0.00488,-0.00488
-0.00976,0.01952,-0.02928,-0.0244,-0.01952,0.00488,0.03904,0.05368,0.01952,0.01952,-0.00488,-0.00488
0.00488,0.0122,-0.02928,-0.03172,-0.03416,0.01952,0.03904,0.05368,0.01952,0.01464,0,-0.00488
0.00976,0.00732,-0.0244,-0.02928,-0.03416,0.02196,0.03904,0.05368,0.0244,0.01464,0.00488,-0.00488
0.00976,0.00732,-0.0244,-0.02928,-0.03416,0.02196,0.03904,0.05368,0.02928,0.01952,0.00488,0
0.01464,0.00244,-0.01952,-0.02684,-0.03416,0.0244,0.03416,0.05856,0.03416,0.0244,0.00976,0
0.00976,0,-0.00976,-0.01464,-0.01952,0.01464,0.04392,0.0732,0.05368,0.04392,0.01464,0.01952
0,0.00244,-0.00488,-0.00488,-0.00488,0.00244,0.04392,0.07808,0.06344,0.05368,0.01952,0.01952
0,0.00244,-0.00488,-0.00488,-0.00488,0.00244,0.03416,0.0732,0.06832,0.0488,0.0244,0.01464
0.01464,-0.00732,0,-0.00732,-0.01464,0.01464,0.02928,0.07808,0.07808,0.05856,0.0244,0.01464
0.02928,-0.01708,0.00488,-0.00976,-0.0244,0.02684,0.01952,0.07808,0.0732,0.06832,0.03904,0.01952
0.03416,-0.01708,0,-0.01708,-0.03416,0.03416,0.01464,0.08296,0.08296,0.07808,0.04392,0.01952
0.0244,-0.00976,-0.00488,-0.01708,-0.02928,0.02684,0.01952,0.10248,0.10248,0.08784,0.04392,0.03416
0.0244,-0.01708,0.00976,-0.00244,-0.01464,0.01952,0.00976,0.11224,0.11712,0.0976,0.04392,0.03904
0.03416,-0.0244,0.01464,-0.00244,-0.01952,0.02684,0,0.11712,0.11712,0.10248,0.0488,0.04392
0.0488,-0.0366,0.0244,0,-0.0244,0.0366,0,0.11224,0.13664,0.122,0.05856,0.04392
0.0732,-0.05124,0.02928,-0.00732,-0.04392,0.05856,-0.00976,0.11712,0.15616,0.14152,0.06832,0.04392
0.08296,-0.05856,0.03416,-0.00732,-0.0488,0.06588,-0.01464,0.13176,0.1708,0.15616,0.08296,0.05368
0.09272,-0.06832,0.04392,-0.00244,-0.0488,0.07076,-0.01464,0.15128,0.20008,0.18544,0.10248,0.06344
0.08784,-0.07076,0.05368,0.00976,-0.03416,0.061,-0.0244,0.16104,0.22448,0.20984,0.11712,0.07808
0.09272,-0.0854,0.07808,0.03172,-0.01464,0.05368,-0.02928,0.17568,0.25864,0.24888,0.13664,0.0976
0.10248,-0.09516,0.08784,0.0366,-0.01464,0.05856,-0.03904,0.20008,0.28792,0.2684,0.15616,0.10736
0.11712,-0.10736,0.0976,0.03904,-0.01952,0.06832,-0.05368,0.20984,0.30744,0.2928,0.1708,0.122
0.13176,-0.11712,0.10248,0.0366,-0.02928,0.08052,-0.06344,0.2196,0.32696,0.32208,0.19032,0.13176
0.13176,-0.11956,0.10736,0.04148,-0.0244,0.07808,-0.07808,0.22936,0.35624,0.3416,0.20496,0.1464
0.14152,-0.12932,0.11712,0.04636,-0.0244,0.08296,-0.08784,0.23912,0.38064,0.366,0.22448,0.15616
0.15128,-0.14152,0.13176,0.05612,-0.01952,0.0854,-0.08784,0.244,0.4148,0.38552,0.23424,0.16104
0.16104,-0.15128,0.14152,0.061,-0.01952,0.09028,-0.09272,0.25376,0.43432,0.40504,0.244,0.17568
0.1708,-0.16104,0.15128,0.06588,-0.01952,0.09516,-0.11224,0.24888,0.4392,0.42456,0.24888,0.17568
0.18056,-0.16592,0.15128,0.061,-0.02928,0.10492,-0.11224,0.25376,0.44896,0.43432,0.25864,0.18544
0.19032,-0.17324,0.15616,0.061,-0.03416,0.11224,-0.122,0.26352,0.46848,0.44896,0.2684,0.17568
0.19032,-0.17568,0.16104,0.06588,-0.02928,0.1098,-0.122,0.2684,0.47824,0.45872,0.27328,0.19032
0.18544,-0.17568,0.16592,0.0732,-0.01952,0.10248,-0.11712,0.27816,0.488,0.47336,0.28304,0.1952
0.18056,-0.17568,0.1708,0.08052,-0.00976,0.09516,-0.11712,0.2684,0.488,0.46848,0.28792,0.20496
0.18544,-0.17812,0.1708,0.07808,-0.01464,0.10004,-0.122,0.26352,0.47336,0.45872,0.28792,0.20008
0.18056,-0.17568,0.1708,0.08052,-0.00976,0.09516,-0.122,0.25864,0.45384,0.44408,0.27328,0.19032
0.18056,-0.17568,0.1708,0.08052,-0.00976,0.09516,-0.13176,0.22448,0.43432,0.40992,0.25864,0.18544
0.18544,-0.17568,0.16592,0.0732,-0.01952,0.10248,-0.122,0.20496,0.40504,0.38064,0.244,0.1708
0.16592,-0.16104,0.15616,0.0732,-0.00976,0.08784,-0.10248,0.20008,0.37088,0.35624,0.22448,0.16592
0.14152,-0.14396,0.1464,0.07564,0.00488,0.06832,-0.09272,0.16592,0.3416,0.3172,0.1952,0.1464
0.11712,-0.12932,0.14152,0.08296,0.0244,0.04636,-0.08296,0.15616,0.29768,0.27816,0.17568,0.13176
0.08296,-0.10248,0.122,0.08052,0.03904,0.02196,-0.06832,0.13664,0.25864,0.23912,0.1464,0.11224
0.06344,-0.0854,0.10736,0.07564,0.04392,0.00976,-0.05856,0.10736,0.22448,0.20008,0.122,0.08784
0.04392,-0.06588,0.08784,0.06588,0.04392,0,-0.04392,0.0976,0.19032,0.16592,0.10248,0.08296
0.04392,-0.05856,0.0732,0.05124,0.02928,0.00732,-0.01952,0.08784,0.16104,0.13664,0.08296,0.06832
0.03416,-0.04636,0.05856,0.04148,0.0244,0.00488,-0.00976,0.06832,0.13664,0.11224,0.06832,0.05856
0.03904,-0.0366,0.03416,0.01464,-0.00488,0.02196,-0.01464,0.05368,0.10248,0.07808,0.0488,0.04392
0.04392,-0.03416,0.0244,0.00244,-0.01952,0.03172,-0.00976,0.0488,0.08296,0.05856,0.03416,0.02928
0.02928,-0.02684,0.0244,0.00976,-0.00488,0.01708,0.00488,0.03904,0.06344,0.0488,0.03416,0.02928
0.0244,-0.01952,0.01464,0.00244,-0.00976,0.01708,0.00488,0.03416,0.05368,0.04392,0.0244,0.01952
0.00488,-0.00488,0.00488,0.00244,0,0.00244,0.00488,0.04392,0.04392,0.04392,0.0244,0.0244
-0.01952,0.00976,0,0.00976,0.01952,-0.01952,0.01952,0.04392,0.03416,0.03904,0.0244,0.0244
-0.02928,0.01952,-0.00976,0.00488,0.01952,-0.0244,0.01952,0.04392,0.01952,0.02928,0.01464,0.0244
-0.0244,0.01708,-0.00976,0.00244,0.01464,-0.01952,0.01952,0.03904,0.01952,0.01952,0.01464,0.01952
-0.00976,0.00976,-0.00976,-0.00488,0,-0.00488,0.0244,0.02928,0.01952,0.00976,0.00488,0.00976
0.00488,0.00488,-0.01464,-0.01708,-0.01952,0.0122,0.0244,0.02928,0.00976,0.00488,0,0.00976
0,0.00976,-0.01952,-0.01952,-0.01952,0.00976,0.03416,0.03416,0.01952,0.00976,0.00976,0.01464
-0.00976,0.01464,-0.01952,-0.01464,-0.00976,0,0.03416,0.03416,0.01952,0.00976,0.00976,0.01464
-0.00976,0.02196,-0.03416,-0.02928,-0.0244,0.00732,0.0244,0.03416,0.00488,0,-0.00488,0.00488
-0.00976,0.02196,-0.03416,-0.02928,-0.0244,0.00732,0.02928,0.03416,0.00488,-0.00488,-0.00488,0.00488
0,0.0122,-0.0244,-0.0244,-0.0244,0.0122,0.02928,0.0244,0,-0.01464,-0.01464,0.00488
0.00976,0.00732,-0.0244,-0.02928,-0.03416,0.02196,0.0244,0.0244,0,-0.01952,-0.01952,0
0.00976,0.00488,-0.01952,-0.0244,-0.02928,0.01952,0.0244,0.03416,0.00488,-0.00976,-0.01464,0
0,0.00976,-0.01952,-0.01952,-0.01952,0.00976,0.01952,0.03416,0.00488,-0.00488,-0.00488,0
-0.01464,0.0244,-0.03416,-0.02684,-0.01952,0.00244,0.01952,0.03904,0,-0.00976,0,0.00976
-0.01464,0.0244,-0.03416,-0.02684,-0.01952,0.00244,0.0244,0.03904,0,-0.00976,0,0.00976
-0.00976,0.01708,-0.0244,-0.01952,-0.01464,0.00244,0.01952,0.02928,0,-0.00976,0,0
0,0.00976,-0.01952,-0.01952,-0.01952,0.00976,0.01952,0.02928,0,-0.00976,0,0
0.01464,0.00244,-0.01952,-0.02684,-0.03416,0.0244,0.01952,0.02928,0.00488,-0.00488,-0.00976,0.00488
0.00976,0.00488,-0.01952,-0.0244,-0.02928,0.01952,0.0244,0.02928,0.00488,-0.00488,-0.00488,0.00488
0,0.00976,-0.01952,-0.01952,-0.01952,0.00976,0.0244,0.03904,0.00976,0.00488,-0.00488,0
0,0.00976,-0.01952,-0.01952,-0.01952,0.00976,0.01952,0.03904,0.00976,0.00488,-0.00488,0
0.00976,0.00488,-0.01952,-0.0244,-0.02928,0.01952,0.0244,0.03904,0.01464,0.00488,0.00488,0.00488
0.01464,0,-0.01464,-0.02196,-0.02928,0.02196,0.01952,0.03904,0.01464,0.00488,0,0.00488
0.00488,0.00488,-0.01464,-0.01708,-0.01952,0.0122,0.00976,0.02928,0.00488,-0.00488,0,0.00488
0,0.00732,-0.01464,-0.01464,-0.01464,0.00732,0.00976,0.02928,0.00488,-0.00488,0.00488,0.00488
-0.00488,0.00732,-0.00976,-0.00732,-0.00488,0,0.01952,0.03904,0.01464,0.00488,0.00488,0.01464
-0.01952,0.01464,-0.00976,0,0.00976,-0.01464,0.01952,0.03904,0.01464,0.00488,0.00976,0.01464
-0.03904,0.0244,-0.00976,0.00976,0.02928,-0.03416,0.02928,0.03904,0.01464,0.00976,0.01952,0.01464
-0.03416,0.02196,-0.00976,0.00732,0.0244,-0.02928,0.02928,0.03904,0.01464,0.00976,0.01952,0.01952
-0.01952,0.00976,0,0.00976,0.01952,-0.01952,0.0244,0.03416,0.00488,0.00488,0.01464,0.01464
0.00976,-0.00488,0,-0.00488,-0.00976,0.00976,0.00976,0.0244,0.00488,-0.00488,0.00488,0.00488
0.03416,-0.01708,0,-0.01708,-0.03416,0.03416,-0.00488,0.02928,0,-0.01464,-0.00488,0
0.03904,-0.01952,0,-0.01952,-0.03904,0.03904,-0.00488,0.01952,0,-0.01464,-0.01464,-0.00488
0.0244,-0.00976,-0.00488,-0.01708,-0.02928,0.02684,0,0.02928,0.00976,-0.00488,-0.01464,0.00488
0.01464,0,-0.01464,-0.02196,-0.02928,0.02196,0.00976,0.03416,0.00488,-0.00976,-0.00976,0.00488
-0.00488,0.00976,-0.01464,-0.0122,-0.00976,0.00244,0.0244,0.03904,0.00488,0,0.00488,0.01464
-0.01464,0.01708,-0.01952,-0.0122,-0.00488,-0.00488,0.0244,0.03904,0,0,0,0.00976
-0.01464,0.01708,-0.01952,-0.0122,-0.00488,-0.00488,0.01464,0.02928,0,-0.01464,-0.00488,0.00976
-0.00488,0.0122,-0.01952,-0.01708,-0.01464,0.00488,0.01464,0.02928,0,-0.01464,0,0.00976
-0.00488,0.00976,-0.01464,-0.0122,-0.00976,0.00244,0.01952,0.02928,0,-0.01464,0,0.00976
-0.00488,0.00976,-0.01464,-0.0122,-0.00976,0.00244,0.01952,0.02928,0,-0.01464,0.00488,0.00976
-0.01952,0.0244,-0.02928,-0.01952,-0.00976,-0.00488,0.02928,0.0244,-0.00976,-0.0244,0,0.00976
-0.01952,0.0244,-0.02928,-0.01952,-0.00976,-0.00488,0.02928,0.0244,-0.01464,-0.02928,-0.00488,0.00488
0,0.00976,-0.01952,-0.01952,-0.01952,0.00976,0.01952,0.01952,-0.01952,-0.02928,-0.01464,0
0,0.0122,-0.0244,-0.0244,-0.0244,0.0122,0.0244,0.01952,-0.01952,-0.03416,-0.01952,-0.00976
0.01464,0.00976,-0.03416,-0.04148,-0.0488,0.03172,0.0244,0.01952,-0.02928,-0.03416,-0.01952,-0.01464
0.00976,0.00976,-0.02928,-0.03416,-0.03904,0.0244,0.01952,0.01952,-0.03416,-0.03416,-0.01952,-0.01464
0.00488,0.01708,-0.03904,-0.04148,-0.04392,0.0244,0.0244,0.01952,-0.0244,-0.0244,-0.01952,-0.00488
0,0.02196,-0.04392,-0.04392,-0.04392,0.02196,0.0244,0.01952,-0.0244,-0.0244,-0.01952,-0.00976
-0.00488,0.0244,-0.04392,-0.04148,-0.03904,0.01708,0.0244,0.01952,-0.01952,-0.02928,-0.01464,0
0,0.02196,-0.04392,-0.04392,-0.04392,0.02196,0.01952,0.01464,-0.01952,-0.02928,-0.01464,0
-0.01464,0.0244,-0.03416,-0.02684,-0.01952,0.00244,0.02928,0.0244,-0.01952,-0.01952,-0.00488,0.00976
-0.0244,0.02928,-0.03416,-0.02196,-0.00976,-0.00732,0.02928,0.0244,-0.01952,-0.01952,-0.00488,0.00976
-0.01952,0.02928,-0.03904,-0.02928,-0.01952,0,0.02928,0.0244,-0.01952,-0.02928,-0.01464,0
-0.01952,0.03172,-0.04392,-0.03416,-0.0244,0.00244,0.02928,0.0244,-0.01952,-0.02928,-0.01464,0
0.00488,0.01464,-0.03416,-0.0366,-0.03904,0.02196,0.0244,0.01464,-0.02928,-0.03904,-0.0244,-0.01464
0.01952,0.00732,-0.03416,-0.04392,-0.05368,0.0366,0.01464,0.00976,-0.03904,-0.0488,-0.03416,-0.01952
0.0244,0.00976,-0.04392,-0.05612,-0.06832,0.04636,0.00976,0.00976,-0.03416,-0.05368,-0.03904,-0.01952
0.01464,0.01464,-0.04392,-0.05124,-0.05856,0.0366,0.01464,0.00976,-0.03416,-0.05368,-0.03416,-0.01464
0.00488,0.02196,-0.0488,-0.05124,-0.05368,0.02928,0.0244,0.01464,-0.0244,-0.04392,-0.0244,0
-0.01464,0.03172,-0.0488,-0.04148,-0.03416,0.00976,0.0244,0.0244,-0.0244,-0.03904,-0.0244,0
-0.03416,0.04636,-0.05856,-0.04148,-0.0244,-0.00488,0.02928,0.03416,-0.01464,-0.03904,-0.01464,0.00488
-0.03416,0.04392,-0.05368,-0.0366,-0.01952,-0.00732,0.02928,0.03416,-0.01464,-0.02928,-0.01464,0.00488
-0.02928,0.04148,-0.05368,-0.03904,-0.0244,-0.00244,0.01952,0.0244,-0.0244,-0.03416,-0.0244,0
-0.01952,0.0366,-0.05368,-0.04392,-0.03416,0.00732,0.01952,0.0244,-0.0244,-0.03416,-0.0244,0
-0.00976,0.03172,-0.05368,-0.0488,-0.04392,0.01708,0.01952,0.01464,-0.02928,-0.03904,-0.03416,0
0,0.02684,-0.05368,-0.05368,-0.05368,0.02684,0.01952,0.01464,-0.03904,-0.0488,-0.03416,-0.00976
0.00488,0.0244,-0.05368,-0.05612,-0.05856,0.03172,0.0244,0.01952,-0.04392,-0.04392,-0.02928,-0.01464
0.00488,0.0244,-0.05368,-0.05612,-0.05856,0.03172,0.0244,0.01952,-0.04392,-0.04392,-0.02928,-0.01464
-0.00488,0.02928,-0.05368,-0.05124,-0.0488,0.02196,0.0244,0.01952,-0.03416,-0.04392,-0.02928,-0.00488
-0.01952,0.03416,-0.0488,-0.03904,-0.02928,0.00488,0.0244,0.02928,-0.0244,-0.03416,-0.01952,0.00488
-0.01952,0.03416,-0.0488,-0.03904,-0.02928,0.00488,0.02928,0.02928,-0.01952,-0.02928,-0.01952,0
-0.01952,0.03416,-0.0488,-0.03904,-0.02928,0.00488,0.02928,0.02928,-0.01952,-0.02928,-0.01952,0
-0.01464,0.03172,-0.0488,-0.04148,-0.03416,0.00976,0.01952,0.01952,-0.02928,-0.03904,-0.01952,0
-0.00488,0.02684,-0.0488,-0.04636,-0.04392,0.01952,0.0244,0.01952,-0.02928,-0.04392,-0.01952,0
0,0.02928,-0.05856,-0.05856,-0.05856,0.02928,0.01464,0.01952,-0.03904,-0.04392,-0.02928,-0.00976
0.00488,0.02684,-0.05856,-0.061,-0.06344,0.03416,0.01464,0.01952,-0.03904,-0.04392,-0.02928,-0.00488
-0.01464,0.0366,-0.05856,-0.05124,-0.04392,0.01464,0.01464,0.02928,-0.02928,-0.03416,-0.0244,0
-0.0244,0.04148,-0.05856,-0.04636,-0.03416,0.00488,0.0244,0.02928,-0.02928,-0.03416,-0.0244,0
-0.0244,0.03172,-0.03904,-0.02684,-0.01464,-0.00488,0.01952,0.0244,-0.02928,-0.03416,-0.01952,-0.00488
-0.01464,0.02196,-0.02928,-0.02196,-0.01464,0,0.01952,0.0244,-0.01952,-0.0244,-0.01464,0
-0.00488,0.00488,-0.00488,-0.00244,0,-0.00244,0,0.01464,-0.01952,-0.02928,-0.00976,0
0.00488,-0.00488,0.00488,0.00244,0,0.00244,-0.00488,0.00488,-0.01952,-0.02928,-0.00488,0
0.00976,-0.0122,0.01464,0.00976,0.00488,0.00244,-0.00488,0.00488,-0.01952,-0.01952,-0.00488,0.00976
0.01464,-0.01708,0.01952,0.0122,0.00488,0.00488,-0.00488,0.00976,-0.00488,-0.01952,-0.00488,0.01464
0.01464,-0.01952,0.0244,0.01708,0.00976,0.00244,0,0.00976,0,-0.00488,-0.00488,0.01464
0.01952,-0.02684,0.03416,0.0244,0.01464,0.00244,-0.01464,0.00976,0.00488,0,0,0.01464
0.01952,-0.02684,0.03416,0.0244,0.01464,0.00244,-0.03416,0,0.01952,0,0.01464,0.03416
0.0244,-0.04148,0.05856,0.04636,0.03416,-0.00488,-0.05368,-0.00976,0.0244,0.00488,0.01952,0.04392
0.04392,-0.061,0.07808,0.05612,0.03416,0.00488,-0.06832,-0.01464,0.01952,0.01464,0.02928,0.04392
0.04392,-0.07076,0.0976,0.07564,0.05368,-0.00488,-0.0732,-0.01464,0.02928,0.0244,0.03904,0.05856
0.04392,-0.07808,0.11224,0.09028,0.06832,-0.0122,-0.06832,-0.01952,0.03904,0.02928,0.0488,0.06344
0.0488,-0.08052,0.11224,0.08784,0.06344,-0.00732,-0.06344,-0.01464,0.04392,0.03416,0.0488,0.06832
0.03904,-0.07076,0.10248,0.08296,0.06344,-0.0122,-0.0488,0.00488,0.0488,0.04392,0.05856,0.06832
0.0244,-0.05612,0.08784,0.07564,0.06344,-0.01952,-0.04392,0.01464,0.0488,0.04392,0.05856,0.06832
0.0244,-0.04636,0.06832,0.05612,0.04392,-0.00976,-0.03416,0.01952,0.04392,0.04392,0.04392,0.06344
0.03904,-0.04392,0.0488,0.02928,0.00976,0.01464,-0.0244,0.01952,0.02928,0.02928,0.03416,0.0488
0.03416,-0.02928,0.0244,0.00732,-0.00976,0.02196,-0.01952,0.0244,0.01952,0.01952,0.0244,0.03416
0.0244,-0.00976,-0.00488,-0.01708,-0.02928,0.02684,-0.00976,0.0244,0.00488,0,0.00488,0.0244
0.00976,0.00976,-0.02928,-0.03416,-0.03904,0.0244,0,0.01464,-0.00976,-0.01464,0.00488,0.01464
-0.00488,0.02684,-0.0488,-0.04636,-0.04392,0.01952,0.00976,0.01464,-0.01952,-0.02928,-0.00488,0
-0.01952,0.0366,-0.05368,-0.04392,-0.03416,0.00732,0.01952,0.01464,-0.0244,-0.03904,-0.01464,0
-0.0244,0.04392,-0.06344,-0.05124,-0.03904,0.00732,0.01952,0.01464,-0.0244,-0.03904,-0.01464,0
-0.02928,0.04636,-0.06344,-0.0488,-0.03416,0.00244,0.0244,0.0244,-0.03416,-0.03904,-0.0244,-0.00976
-0.02928,0.0488,-0.06832,-0.05368,-0.03904,0.00488,0.02928,0.0244,-0.04392,-0.04392,-0.02928,-0.00976
-0.01952,0.04636,-0.0732,-0.06344,-0.05368,0.01708,0.03416,0.01464,-0.05368,-0.05368,-0.04392,-0.0244
-0.01464,0.04392,-0.0732,-0.06588,-0.05856,0.02196,0.03416,0.01464,-0.05368,-0.05368,-0.04392,-0.0244
0.00488,0.03416,-0.0732,-0.07564,-0.07808,0.04148,0.03416,0.01952,-0.0488,-0.0488,-0.04392,-0.0244
0.00488,0.0366,-0.07808,-0.08052,-0.08296,0.04392,0.03416,0.01952,-0.0488,-0.0488,-0.04392,-0.02928
-0.00488,0.04148,-0.07808,-0.07564,-0.0732,0.03416,0.03416,0.01952,-0.0488,-0.0488,-0.03416,-0.02928
-0.0244,0.05124,-0.07808,-0.06588,-0.05368,0.01464,0.03416,0.01952,-0.0488,-0.0488,-0.03416,-0.02928
-0.03904,0.05856,-0.07808,-0.05856,-0.03904,0,0.03904,0.0244,-0.05368,-0.04392,-0.03416,-0.0244
-0.03904,0.05856,-0.07808,-0.05856,-0.03904,0,0.03904,0.0244,-0.05368,-0.04392,-0.03416,-0.0244
-0.03416,0.05612,-0.07808,-0.061,-0.04392,0.00488,0.03904,0.0244,-0.04392,-0.04392,-0.03416,-0.02928
-0.03416,0.05612,-0.07808,-0.061,-0.04392,0.00488,0.03904,0.01952,-0.04392,-0.04392,-0.03416,-0.02928
-0.04392,0.05856,-0.0732,-0.05124,-0.02928,-0.00732,0.04392,0.0244,-0.02928,-0.04392,-0.03416,-0.02928
-0.05856,0.05612,-0.05368,-0.0244,0.00488,-0.03172,0.05856,0.0244,-0.02928,-0.06344,-0.05368,-0.03904
-0.06832,0.04636,-0.0244,0.00976,0.04392,-0.05612,0.06832,0.02928,-0.00976,-0.0488,-0.05368,-0.03416
-0.0488,0.00488,0.03904,0.06344,0.08784,-0.06832,0.06832,0.03416,0.03904,-0.00976,-0.0244,-0.00976
0.00488,-0.061,0.11712,0.11468,0.11224,-0.05368,0.03416,0.06832,0.16104,0.11224,0.05856,0.05856
0.08296,-0.15372,0.22448,0.183,0.14152,-0.02928,-0.0488,0.0976,0.38064,0.33672,0.22448,0.17568
0.18544,-0.26352,0.3416,0.24888,0.15616,0.01464,-0.16104,0.13176,0.64904,0.64416,0.44408,0.33672
0.33184,-0.39772,0.4636,0.29768,0.13176,0.10004,-0.31232,0.1708,0.94184,0.98576,0.6832,0.52216
0.48312,-0.52704,0.57096,0.3294,0.08784,0.19764,-0.47336,0.20984,1.2444,1.342,0.92232,0.69784
0.61976,-0.61732,0.61488,0.305,-0.00488,0.31232,-0.59048,0.26352,1.45424,1.59576,1.08824,0.80032
0.69784,-0.61488,0.53192,0.183,-0.16592,0.43188,-0.60512,0.33184,1.48352,1.6592,1.11752,0.8052
0.66856,-0.50264,0.33672,0.00244,-0.33184,0.5002,-0.52216,0.32696,1.26392,1.42984,0.97112,0.6832
0.55632,-0.31476,0.0732,-0.20496,-0.48312,0.51972,-0.366,0.23424,0.79056,0.94184,0.67832,0.47824
0.38552,-0.10492,-0.17568,-0.36844,-0.5612,0.47336,-0.1952,0.10248,0.25376,0.3904,0.3416,0.26352
0.22936,0.05368,-0.33672,-0.4514,-0.56608,0.39772,-0.05856,-0.03416,-0.20008,-0.06344,0.08296,0.08784
0.122,0.13908,-0.40016,-0.46116,-0.52216,0.32208,0.01464,-0.06832,-0.42456,-0.2928,-0.06344,-0.01952
0.05368,0.17568,-0.40504,-0.43188,-0.45872,0.2562,0.06832,-0.03416,-0.47336,-0.34648,-0.13664,-0.0732
0.0244,0.1708,-0.366,-0.3782,-0.3904,0.2074,0.08296,0.01464,-0.38552,-0.29768,-0.13664,-0.08296
0.00976,0.14884,-0.30744,-0.31232,-0.3172,0.16348,0.08784,0.04392,-0.2928,-0.23424,-0.122,-0.08296
0.00976,0.11956,-0.24888,-0.25376,-0.25864,0.1342,0.08784,0.06344,-0.21472,-0.17568,-0.10248,-0.08296
0.00976,0.09028,-0.19032,-0.1952,-0.20008,0.10492,0.0732,0.07808,-0.1464,-0.12688,-0.08296,-0.0732
0.01464,0.06588,-0.1464,-0.15372,-0.16104,0.08784,0.06832,0.08296,-0.10248,-0.08784,-0.06344,-0.0488
0.00976,0.05612,-0.122,-0.12688,-0.13176,0.07076,0.0732,0.0732,-0.07808,-0.06832,-0.0488,-0.03904
-0.00976,0.061,-0.11224,-0.10736,-0.10248,0.04636,0.0732,0.06344,-0.05856,-0.05368,-0.04392,-0.03904
-0.00976,0.05368,-0.0976,-0.09272,-0.08784,0.03904,0.05856,0.05368,-0.0488,-0.05368,-0.04392,-0.03904
-0.01464,0.0488,-0.08296,-0.07564,-0.06832,0.02684,0.05856,0.05368,-0.0488,-0.05368,-0.0488,-0.03904
-0.01464,0.04636,-0.07808,-0.07076,-0.06344,0.0244,0.05856,0.05368,-0.03904,-0.0488,-0.0488,-0.03416
-0.00976,0.03904,-0.06832,-0.06344,-0.05856,0.0244,0.05856,0.05368,-0.03904,-0.0488,-0.04392,-0.03416
-0.00976,0.03904,-0.06832,-0.06344,-0.05856,0.0244,0.05856,0.05368,-0.02928,-0.03904,-0.04392,-0.02928
-0.00976,0.04148,-0.0732,-0.06832,-0.06344,0.02684,0.05368,0.06344,-0.0244,-0.03904,-0.03416,-0.02928
-0.00976,0.03904,-0.06832,-0.06344,-0.05856,0.0244,0.05368,0.06832,-0.0244,-0.02928,-0.02928,-0.0244
-0.0244,0.04636,-0.06832,-0.05612,-0.04392,0.00976,0.0488,0.06832,-0.01952,-0.02928,-0.01952,-0.0244
-0.0244,0.04392,-0.06344,-0.05124,-0.03904,0.00732,0.0488,0.06832,-0.00976,-0.0244,-0.01952,-0.01952
-0.01464,0.03904,-0.06344,-0.05612,-0.0488,0.01708,0.03904,0.05856,-0.00976,-0.02928,-0.02928,-0.02928
-0.00976,0.03416,-0.05856,-0.05368,-0.0488,0.01952,0.03416,0.06344,-0.00488,-0.0244,-0.0244,-0.02928
0,0.02928,-0.05856,-0.05856,-0.05856,0.02928,0.0244,0.05368,-0.01464,-0.0244,-0.0244,-0.0244
0.00976,0.0244,-0.05856,-0.06344,-0.06832,0.03904,0.0244,0.05368,-0.01464,-0.0244,-0.0244,-0.0244
0.00976,0.01708,-0.04392,-0.0488,-0.05368,0.03172,0.02928,0.05856,-0.00488,-0.01952,-0.01464,-0.0244
-0.00488,0.0244,-0.04392,-0.04148,-0.03904,0.01708,0.02928,0.0732,0.00488,-0.00488,-0.00976,-0.00976
-0.01464,0.02684,-0.03904,-0.03172,-0.0244,0.00488,0.03416,0.07808,0.0244,0.00488,0,-0.00488
-0.0244,0.02928,-0.03416,-0.02196,-0.00976,-0.00732,0.04392,0.07808,0.02928,0.01464,0.00488,0
-0.00976,0.01708,-0.0244,-0.01952,-0.01464,0.00244,0.02928,0.07808,0.02928,0.00488,-0.00488,0
0.00488,0.00732,-0.01952,-0.02196,-0.0244,0.01464,0.02928,0.06832,0.0244,0.00976,-0.00488,-0.00976
0.01952,0.00488,-0.02928,-0.03904,-0.0488,0.03416,0.01952,0.05368,0.01952,0.00488,-0.00488,-0.0244
0.03416,-0.00488,-0.0244,-0.04148,-0.05856,0.04636,0.01952,0.05368,0.0244,0.00488,-0.00976,-0.0244
0.03416,-0.00488,-0.0244,-0.04148,-0.05856,0.04636,0.01952,0.06344,0.02928,0.01952,-0.00488,-0.01952
0.02928,-0.00488,-0.01952,-0.03416,-0.0488,0.03904,0.01464,0.06832,0.03416,0.0244,0,-0.01952
0.0244,-0.00244,-0.01952,-0.03172,-0.04392,0.03416,0.00488,0.0732,0.04392,0.0244,0.00488,0
0.0244,-0.00488,-0.01464,-0.02684,-0.03904,0.03172,0.00488,0.07808,0.05368,0.03416,0.00976,0
0.01464,0,-0.01464,-0.02196,-0.02928,0.02196,0.01464,0.08296,0.05856,0.0488,0.01464,0.00488
0.01952,-0.00488,-0.00976,-0.01952,-0.02928,0.0244,0.00976,0.08784,0.06832,0.05856,0.01464,0.00488
0.01952,-0.00976,0,-0.00976,-0.01952,0.01952,0.00488,0.08784,0.08296,0.05856,0.02928,0.01952
0.00488,-0.00488,0.00488,0.00244,0,0.00244,0.00976,0.09272,0.09272,0.06832,0.03416,0.01952
0.00976,-0.00732,0.00488,0,-0.00488,0.00732,0.00976,0.10248,0.10248,0.07808,0.03416,0.01464
0.01952,-0.01952,0.01952,0.00976,0,0.00976,0,0.11224,0.11712,0.08784,0.03416,0.01952
0.02928,-0.02684,0.0244,0.00976,-0.00488,0.01708,-0.00976,0.11224,0.12688,0.10248,0.0488,0.02928
0.05368,-0.04392,0.03416,0.00732,-0.01952,0.0366,-0.00976,0.11712,0.1464,0.122,0.05856,0.03904
0.0732,-0.05612,0.03904,0.00244,-0.03416,0.05368,-0.02928,0.12688,0.15616,0.14152,0.06832,0.04392
0.08296,-0.06344,0.04392,0.00244,-0.03904,0.061,-0.03416,0.14152,0.1708,0.15616,0.08296,0.05368
0.08296,-0.06832,0.05368,0.0122,-0.02928,0.05612,-0.03416,0.16104,0.1952,0.18544,0.10248,0.06832
0.07808,-0.07076,0.06344,0.0244,-0.01464,0.04636,-0.04392,0.1708,0.22936,0.20984,0.11712,0.0732
0.06832,-0.0732,0.07808,0.04392,0.00976,0.02928,-0.04392,0.1952,0.2684,0.24888,0.13664,0.0976
0.06832,-0.07808,0.08784,0.05368,0.01952,0.0244,-0.04392,0.2196,0.29768,0.2684,0.15616,0.10736
0.08296,-0.09272,0.10248,0.061,0.01952,0.03172,-0.06344,0.2196,0.32696,0.2928,0.1708,0.11224
0.10736,-0.11224,0.11712,0.06344,0.00976,0.0488,-0.0732,0.22936,0.34648,0.32208,0.19032,0.122
0.122,-0.12444,0.12688,0.06588,0.00488,0.05856,-0.08784,0.23912,0.37576,0.3416,0.20496,0.13664
0.13176,-0.1342,0.13664,0.07076,0.00488,0.06344,-0.0976,0.24888,0.40016,0.366,0.22448,0.1464
0.13176,-0.13664,0.14152,0.07564,0.00976,0.061,-0.0976,0.26352,0.42456,0.39528,0.244,0.16104
0.14152,-0.1464,0.15128,0.08052,0.00976,0.06588,-0.10248,0.27328,0.44408,0.4148,0.25376,0.17568
0.1464,-0.15372,0.16104,0.08784,0.01464,0.06588,-0.122,0.27816,0.45872,0.42456,0.25864,0.17568
0.1464,-0.15372,0.16104,0.08784,0.01464,0.06588,-0.122,0.28304,0.46848,0.43432,0.2684,0.18544
0.15128,-0.16348,0.17568,0.10004,0.0244,0.06344,-0.13176,0.28304,0.47824,0.45872,0.27816,0.18544
0.15128,-0.16592,0.18056,0.10492,0.02928,0.061,-0.13176,0.28792,0.488,0.46848,0.28304,0.20008
0.15128,-0.16836,0.18544,0.1098,0.03416,0.05856,-0.13664,0.28792,0.49776,0.47336,0.2928,0.20008
0.15616,-0.17324,0.19032,0.11224,0.03416,0.061,-0.13664,0.27816,0.49776,0.46848,0.29768,0.20008
0.16104,-0.1708,0.18056,0.10004,0.01952,0.07076,-0.14152,0.2684,0.48312,0.44896,0.2928,0.20008
0.16592,-0.17324,0.18056,0.0976,0.01464,0.07564,-0.14152,0.25376,0.4636,0.43432,0.2684,0.19032
0.1708,-0.17568,0.18056,0.09516,0.00976,0.08052,-0.14152,0.22448,0.43432,0.40992,0.24888,0.17568
0.17568,-0.17568,0.17568,0.08784,0,0.08784,-0.13176,0.20496,0.40504,0.38064,0.23424,0.16104
0.1708,-0.17324,0.17568,0.09028,0.00488,0.08296,-0.13176,0.19032,0.36112,0.34648,0.21472,0.1464
0.15616,-0.16104,0.16592,0.08784,0.00976,0.0732,-0.122,0.15616,0.33184,0.30744,0.18544,0.12688
0.13176,-0.14152,0.15128,0.0854,0.01952,0.05612,-0.10248,0.13664,0.29768,0.2684,0.16592,0.11224
0.10736,-0.11956,0.13176,0.07808,0.0244,0.04148,-0.08784,0.11712,0.25864,0.22936,0.13664,0.09272
0.07808,-0.0976,0.11712,0.07808,0.03904,0.01952,-0.06832,0.0976,0.22448,0.20008,0.122,0.07808
0.0488,-0.0732,0.0976,0.0732,0.0488,0,-0.05368,0.08784,0.19032,0.16592,0.10248,0.0732
0.04392,-0.06344,0.08296,0.061,0.03904,0.00244,-0.0488,0.07808,0.15128,0.13664,0.08296,0.05856
0.03416,-0.05124,0.06832,0.05124,0.03416,0,-0.03904,0.05856,0.12688,0.11224,0.06832,0.0488
0.02928,-0.04148,0.05368,0.03904,0.0244,0.00244,-0.03416,0.04392,0.10248,0.07808,0.0488,0.03416
0.03416,-0.03904,0.04392,0.02684,0.00976,0.0122,-0.02928,0.03904,0.08296,0.05856,0.03416,0.01952
0.03416,-0.03416,0.03416,0.01708,0,0.01708,-0.0244,0.02928,0.05368,0.03904,0.0244,0.00976
0.03904,-0.03172,0.0244,0.00488,-0.01464,0.02684,-0.0244,0.0244,0.04392,0.03416,0.01464,0
0.02928,-0.02196,0.01464,0,-0.01464,0.02196,-0.0244,0.01464,0.04392,0.0244,0.00488,-0.00488
0.01464,-0.0122,0.00976,0.00244,-0.00488,0.00976,-0.00976,0.01464,0.03416,0.01952,0.00488,-0.00488
0.00488,-0.00244,0,-0.00244,-0.00488,0.00488,0,0.0244,0.03904,0.01464,0.00488,0.00488
0,0,0,0,0,0,0,0.01952,0.03904,0.01464,0.00488,0
-0.00976,0,0.00976,0.01464,0.01952,-0.01464,0.00488,0.02928,0.03904,0.01952,0.01464,0
-0.01464,0.00488,0.00488,0.0122,0.01952,-0.01708,0.00488,0.02928,0.02928,0.01464,0.00976,0
0,0.00488,-0.00976,-0.00976,-0.00976,0.00488,0.00488,0.01464,0.0244,0,0.00488,-0.01464
0.00976,0,-0.00976,-0.01464,-0.01952,0.01464,0.00488,0.01464,0.01464,0,-0.00488,-0.01464
0,0.00732,-0.01464,-0.01464,-0.01464,0.00732,0.00488,0.01464,0.00488,0,-0.01464,-0.01464
0,0.00732,-0.01464,-0.01464,-0.01464,0.00732,0.00976,0.01464,0.00488,-0.00488,-0.01464,-0.01464
0,0.00244,-0.00488,-0.00488,-0.00488,0.00244,0.01952,0.01464,0.00488,0.00488,-0.00976,-0.00488
-0.00976,0.00732,-0.00488,0,0.00488,-0.00732,0.01464,0.01464,0.01464,0,-0.00488,-0.00976
-0.0244,0.01708,-0.00976,0.00244,0.01464,-0.01952,0.0244,0.0244,0.0244,0,0,0
-0.0244,0.01708,-0.00976,0.00244,0.01464,-0.01952,0.01952,0.0244,0.0244,0.00488,0,0
-0.03416,0.0244,-0.01464,0.00244,0.01952,-0.02684,0.01952,0.02928,0.02928,0.00976,0.00976,0
-0.03416,0.0244,-0.01464,0.00244,0.01952,-0.02684,0.0244,0.02928,0.02928,0.00976,0.00976,0
-0.01464,0.01464,-0.01464,-0.00732,0,-0.00732,0.00976,0.0244,0.0244,0.00488,0.00488,-0.00488
0.00488,0.00244,-0.00976,-0.0122,-0.01464,0.00976,0.00976,0.01464,0.01464,-0.00488,-0.00488,-0.01464
0.0244,-0.0122,0,-0.0122,-0.0244,0.0244,0,0.00976,0.00488,-0.01464,-0.01952,-0.01464
0.01952,-0.00976,0,-0.00976,-0.01952,0.01952,0.00488,0.00976,0.00488,-0.01464,-0.01464,-0.01464
0.01464,-0.0122,0.00976,0.00244,-0.00488,0.00976,0.00488,0.00976,0.00976,-0.00488,-0.01464,-0.00976
0.00488,-0.00732,0.00976,0.00732,0.00488,0,0,0.00976,0.00976,-0.00488,-0.01464,-0.00976
-0.00488,-0.00244,0.00976,0.0122,0.01464,-0.00976,0.01464,0.01952,0.0244,0.00488,-0.00976,-0.00488
-0.00976,-0.00244,0.01464,0.01952,0.0244,-0.01708,0.00976,0.01952,0.0244,0.00488,-0.00488,-0.00488
-0.00488,0,0.00488,0.00732,0.00976,-0.00732,0.00976,0.01952,0.01464,0.00488,0,-0.00488
-0.00976,0.00244,0.00488,0.00976,0.01464,-0.0122,0.00976,0.01952,0.01464,0.00488,0.00488,-0.00488
0.00488,-0.00732,0.00976,0.00732,0.00488,0,0,0.00976,0.01464,-0.00488,-0.00488,-0.01464
0.00976,-0.00976,0.00976,0.00488,0,0.00488,0,0.00976,0.01464,-0.00488,0,-0.01464
0.00976,-0.00976,0.00976,0.00488,0,0.00488,0,0.00976,0.01464,0,0,-0.01464
0.01464,-0.0122,0.00976,0.00244,-0.00488,0.00976,0,0.00976,0.01464,0,0,-0.00976
0,-0.00488,0.00976,0.00976,0.00976,-0.00488,0,0.00976,0.01464,0,0.00976,-0.00976
-0.00976,0,0.00976,0.01464,0.01952,-0.01464,-0.00488,0.00976,0.01464,0,0.00976,-0.00976
-0.01952,0.00488,0.00976,0.01952,0.02928,-0.0244,0.00488,0.01952,0.01952,0.00488,0.00976,0
-0.0244,0.00732,0.00976,0.02196,0.03416,-0.02928,0.00488,0.00976,0.01952,0.00488,0.00976,-0.00488
-0.01952,0.00488,0.00976,0.01952,0.02928,-0.0244,0.00488,0.00976,0.01952,0.00488,0.00976,-0.00488
-0.01952,0.00488,0.00976,0.01952,0.02928,-0.0244,0.00488,0.01464,0.01464,0,0.00488,-0.00488
-0.01464,0,0.01464,0.02196,0.02928,-0.02196,0.00488,0,0.01464,0,0.00488,-0.00488
-0.00488,-0.00244,0.00976,0.0122,0.01464,-0.00976,0.00488,0,0.00976,0,0,-0.00976
-0.00488,-0.00732,0.01952,0.02196,0.0244,-0.01464,0.01464,0,0.00976,-0.00488,0.00488,-0.00976
-0.01464,-0.00244,0.01952,0.02684,0.03416,-0.0244,0.01464,0,0.00976,-0.00488,0.00976,-0.00976
-0.0244,0.00488,0.01464,0.02684,0.03904,-0.03172,0.00976,0,0.00976,-0.00488,0,-0.00976
-0.0244,0.00488,0.01464,0.02684,0.03904,-0.03172,0.00976,0,0.00976,-0.00488,0.00488,-0.00976
-0.01464,0.00244,0.00976,0.01708,0.0244,-0.01952,0,-0.01464,0,-0.01464,-0.00488,-0.01952
-0.00488,-0.00244,0.00976,0.0122,0.01464,-0.00976,0,-0.01464,-0.00488,-0.01952,-0.01952,-0.0244
0.00488,-0.00732,0.00976,0.00732,0.00488,0,0,-0.00976,0,-0.00976,-0.01464,-0.0244
-0.00488,0,0.00488,0.00732,0.00976,-0.00732,0.00488,-0.00976,0,-0.01464,-0.01952,-0.0244
-0.01464,0.00488,0.00488,0.0122,0.01952,-0.01708,0.01464,-0.00976,0,-0.01464,-0.00976,-0.01464
-0.01952,0.00488,0.00976,0.01952,0.02928,-0.0244,0.00976,-0.00976,-0.00488,-0.01464,-0.00976,-0.01464
-0.02928,0.01464,0,0.01464,0.02928,-0.02928,0.01464,-0.00976,-0.00488,-0.01464,-0.00976,-0.01464
-0.0244,0.01464,-0.00488,0.00732,0.01952,-0.02196,0.01464,-0.00976,-0.00488,-0.01464,-0.00976,-0.01952
-0.0244,0.01464,-0.00488,0.00732,0.01952,-0.02196,0.01464,-0.00976,0,-0.01952,-0.01464,-0.01952
-0.01952,0.0122,-0.00488,0.00488,0.01464,-0.01708,0.00976,-0.01464,0,-0.01952,-0.01464,-0.01952
-0.01464,0.00488,0.00488,0.0122,0.01952,-0.01708,0.00976,-0.0244,-0.00976,-0.01952,-0.01464,-0.01952
-0.00488,0,0.00488,0.00732,0.00976,-0.00732,0.00976,-0.0244,-0.00976,-0.01952,-0.01464,-0.01952
-0.00976,0.00488,0,0.00488,0.00976,-0.00976,0.00976,-0.0244,0,-0.01952,-0.0244,-0.01952
-0.00976,0.00732,-0.00488,0,0.00488,-0.00732,0.00976,-0.0244,0,-0.01952,-0.0244,-0.01952
-0.00976,0.00244,0.00488,0.00976,0.01464,-0.0122,0.00976,-0.01464,0.00488,-0.0244,-0.01952,-0.01464
-0.0244,0.00976,0.00488,0.01708,0.02928,-0.02684,0.00976,-0.01952,0.00488,-0.0244,-0.01952,-0.01952
-0.0244,0.01464,-0.00488,0.00732,0.01952,-0.02196,0.00976,-0.01952,0.00488,-0.0244,-0.01952,-0.01952
-0.03416,0.01952,-0.00488,0.0122,0.02928,-0.03172,0.01464,-0.01952,0.00488,-0.0244,-0.01464,-0.01464
-0.03416,0.01708,0,0.01708,0.03416,-0.03416,0.01464,-0.01952,-0.00488,-0.01464,-0.01464,-0.00976
-0.03416,0.01708,0,0.01708,0.03416,-0.03416,0.01464,-0.01952,-0.00488,-0.00976,-0.01464,-0.00976
-0.0244,0.01708,-0.00976,0.00244,0.01464,-0.01952,0.01952,-0.0244,-0.00488,-0.01464,-0.01464,-0.01464
-0.0244,0.01464,-0.00488,0.00732,0.01952,-0.02196,0.01952,-0.0244,-0.00488,-0.01464,-0.01464,-0.01464
-0.03416,0.01952,-0.00488,0.0122,0.02928,-0.03172,0.00976,-0.0244,0.00488,-0.01464,-0.01464,-0.00976
-0.03416,0.01952,-0.00488,0.0122,0.02928,-0.03172,0.00976,-0.0244,0.00488,-0.01464,-0.01464,-0.00976
-0.03416,0.01952,-0.00488,0.0122,0.02928,-0.03172,0.00976,-0.0244,-0.00488,-0.01464,-0.01464,-0.01464
-0.03416,0.01952,-0.00488,0.0122,0.02928,-0.03172,0.00976,-0.0244,-0.00488,-0.01464,-0.01464,-0.01464
-0.0244,0.01464,-0.00488,0.00732,0.01952,-0.02196,0.00488,-0.02928,-0.00488,-0.0244,-0.01952,-0.0244
-0.0244,0.01464,-0.00488,0.00732,0.01952,-0.02196,0.00488,-0.02928,-0.00488,-0.0244,-0.01952,-0.0244
-0.01952,0.0122,-0.00488,0.00488,0.01464,-0.01708,0.00488,-0.02928,-0.01464,-0.03416,-0.02928,-0.0244
-0.00488,0.00244,0,0.00244,0.00488,-0.00488,0.00488,-0.02928,-0.01464,-0.03416,-0.02928,-0.0244
-0.01464,0.00488,0.00488,0.0122,0.01952,-0.01708,0.01464,-0.02928,-0.00488,-0.0244,-0.01952,-0.0244
-0.01464,0.00488,0.00488,0.0122,0.01952,-0.01708,0.01464,-0.02928,-0.00488,-0.0244,-0.01464,-0.0244
-0.0244,0.00976,0.00488,0.01708,0.02928,-0.02684,0.0244,-0.01952,0.00488,-0.01464,-0.00488,-0.01464
-0.02928,0.0122,0.00488,0.01952,0.03416,-0.03172,0.01464,-0.0244,0.00488,-0.01464,-0.01464,-0.01464
-0.03904,0.01952,0,0.01952,0.03904,-0.03904,0.01952,-0.01952,0.00976,-0.00976,0,0
-0.02928,0.01464,0,0.01464,0.02928,-0.02928,0.01952,-0.01952,0.00976,0,0,-0.00976
-0.02928,0.01464,0,0.01464,0.02928,-0.02928,0.01952,-0.01952,0.00976,0,0,-0.00976
-0.01952,0.00976,0,0.00976,0.01952,-0.01952,0.01464,-0.01952,0,-0.00976,-0.00976,-0.00976
-0.01952,0.00976,0,0.00976,0.01952,-0.01952,0.01464,-0.01952,0,-0.01464,-0.00976,-0.00976
-0.02928,0.01464,0,0.01464,0.02928,-0.02928,0.01464,-0.01952,0,-0.01464,-0.00976,-0.01464
-0.0244,0.0122,0,0.0122,0.0244,-0.0244,0.00976,-0.01952,0,-0.01464,-0.00488,-0.01464
-0.01952,0.00976,0,0.00976,0.01952,-0.01952,0.00976,-0.01952,0,-0.01464,-0.00488,-0.00976
-0.01952,0.00732,0.00488,0.01464,0.0244,-0.02196,0.00976,-0.01952,0.00976,-0.01464,-0.00488,0
-0.00976,-0.00732,0.0244,0.02928,0.03416,-0.02196,0,-0.01464,0.01464,0,0.00488,0
0,-0.01708,0.03416,0.03416,0.03416,-0.01708,0,-0.01464,0.0244,0.00488,0.00976,0
-0.00976,-0.01952,0.0488,0.05368,0.05856,-0.03416,-0.00488,-0.01952,0.03904,0.00976,0.00976,0.00976
-0.00976,-0.0244,0.05856,0.06344,0.06832,-0.03904,-0.00488,-0.02928,0.03416,0.00976,0.01464,0.00976
-0.01952,-0.01952,0.05856,0.06832,0.07808,-0.0488,-0.00488,-0.03416,0.03904,0.01952,0.01464,0.01464
-0.01464,-0.02196,0.05856,0.06588,0.0732,-0.04392,-0.00976,-0.02928,0.03904,0.0244,0.01464,0.01464
0,-0.03416,0.06832,0.06832,0.06832,-0.03416,-0.01952,-0.02928,0.04392,0.0244,0.02928,0.0244
0.00488,-0.04148,0.07808,0.07564,0.0732,-0.03416,-0.03904,-0.02928,0.05368,0.02928,0.03904,0.02928
0.01952,-0.06344,0.10736,0.0976,0.08784,-0.03416,-0.06344,-0.04392,0.0488,0.03416,0.03416,0.03904
0.03416,-0.08052,0.12688,0.1098,0.09272,-0.02928,-0.07808,-0.0488,0.05856,0.04392,0.04392,0.0488
0.05368,-0.09516,0.13664,0.1098,0.08296,-0.01464,-0.08784,-0.05368,0.05368,0.03904,0.05856,0.05368
0.05368,-0.09516,0.13664,0.1098,0.08296,-0.01464,-0.0976,-0.05856,0.05856,0.0488,0.06344,0.06344
0.03416,-0.08296,0.13176,0.11468,0.0976,-0.03172,-0.07808,-0.0488,0.0732,0.05856,0.06832,0.06344
0.02928,-0.08052,0.13176,0.11712,0.10248,-0.0366,-0.06344,-0.04392,0.07808,0.06344,0.06832,0.06832
0.02928,-0.06832,0.10736,0.09272,0.07808,-0.0244,-0.05368,-0.02928,0.06832,0.05368,0.06832,0.05856
0.02928,-0.05856,0.08784,0.0732,0.05856,-0.01464,-0.0488,-0.01952,0.06344,0.05368,0.06832,0.05368
0.0244,-0.04636,0.06832,0.05612,0.04392,-0.00976,-0.02928,-0.01952,0.05368,0.04392,0.05856,0.04392
0.0244,-0.03416,0.04392,0.03172,0.01952,0.00244,-0.01464,-0.01464,0.04392,0.03416,0.0488,0.03416
0.01464,-0.01952,0.0244,0.01708,0.00976,0.00244,-0.00976,-0.01464,0.03416,0.0244,0.03904,0.01952
0,0,0,0,0,0,0.00488,-0.01464,0.01952,0.00488,0.0244,0.00976
-0.01464,0.01708,-0.01952,-0.0122,-0.00488,-0.00488,0.01464,-0.0244,0.01464,-0.00488,0.01464,-0.00488
-0.0244,0.02684,-0.02928,-0.01708,-0.00488,-0.00976,0.0244,-0.0244,0.00976,-0.01464,0,-0.01464
-0.0244,0.02684,-0.02928,-0.01708,-0.00488,-0.00976,0.01952,-0.0244,0.00488,-0.01952,-0.00488,-0.01952
-0.01464,0.02684,-0.03904,-0.03172,-0.0244,0.00488,0.01952,-0.0244,0,-0.01952,-0.00976,-0.01952
-0.02928,0.0366,-0.04392,-0.02928,-0.01464,-0.00732,0.03904,-0.01464,-0.00976,-0.01952,-0.01464,-0.01952
-0.03416,0.04392,-0.05368,-0.0366,-0.01952,-0.00732,0.03904,-0.01464,-0.01464,-0.0244,-0.01952,-0.0244
-0.0488,0.05124,-0.05368,-0.02928,-0.00488,-0.02196,0.04392,-0.00488,-0.01464,-0.0244,-0.01464,-0.0244
-0.04392,0.0488,-0.05368,-0.03172,-0.00976,-0.01708,0.04392,-0.00488,-0.01464,-0.0244,-0.01464,-0.0244
-0.03416,0.04392,-0.05368,-0.0366,-0.01952,-0.00732,0.03416,-0.00976,-0.01952,-0.02928,-0.0244,-0.03904
-0.03416,0.04636,-0.05856,-0.04148,-0.0244,-0.00488,0.03416,-0.00976,-0.01952,-0.02928,-0.0244,-0.03904
-0.04392,0.05124,-0.05856,-0.0366,-0.01464,-0.01464,0.03416,0,-0.01952,-0.02928,-0.0244,-0.02928
-0.0488,0.05368,-0.05856,-0.03416,-0.00976,-0.01952,0.03904,0.00488,-0.01952,-0.02928,-0.0244,-0.02928
-0.03904,0.0488,-0.05856,-0.03904,-0.01952,-0.00976,0.03904,-0.00488,-0.01464,-0.03416,-0.0244,-0.03416
-0.03416,0.04636,-0.05856,-0.04148,-0.0244,-0.00488,0.03904,-0.00488,-0.01464,-0.03416,-0.0244,-0.03416
-0.03416,0.04636,-0.05856,-0.04148,-0.0244,-0.00488,0.03904,-0.01464,-0.01464,-0.03416,-0.0244,-0.02928
-0.03416,0.04148,-0.0488,-0.03172,-0.01464,-0.00976,0.03904,-0.0244,-0.00976,-0.03416,-0.0244,-0.02928
-0.0488,0.03904,-0.02928,-0.00488,0.01952,-0.03416,0.06344,-0.01464,0,-0.03416,-0.03416,-0.03904
-0.05856,0.02684,0.00488,0.03416,0.06344,-0.061,0.0732,-0.00488,0.01464,-0.03416,-0.03416,-0.03904
-0.05856,0,0.05856,0.08784,0.11712,-0.08784,0.07808,0.01464,0.06832,0.01464,0,-0.00488
-0.02928,-0.05612,0.14152,0.15616,0.1708,-0.10004,0.0488,0.05368,0.20496,0.14152,0.09272,0.06832
0.0488,-0.15372,0.25864,0.23424,0.20984,-0.08052,-0.0244,0.09272,0.4148,0.36112,0.25864,0.20008
0.16104,-0.2684,0.37576,0.29524,0.21472,-0.02684,-0.14152,0.11712,0.66368,0.65392,0.4636,0.35624
0.32208,-0.41724,0.5124,0.35136,0.19032,0.06588,-0.31232,0.13664,0.93208,0.976,0.70272,0.5368
0.49288,-0.55632,0.61976,0.37332,0.12688,0.183,-0.49776,0.1464,1.18584,1.2932,0.9272,0.70272
0.63928,-0.64904,0.6588,0.33916,0.01952,0.30988,-0.62464,0.16592,1.33712,1.49816,1.05896,0.78568
0.71736,-0.64172,0.56608,0.2074,-0.15128,0.43432,-0.64416,0.23424,1.34688,1.53232,1.07848,0.7808
0.67344,-0.51972,0.366,0.02928,-0.30744,0.49044,-0.55144,0.22448,1.098,1.28344,0.91256,0.64904
0.5368,-0.3172,0.0976,-0.1708,-0.4392,0.488,-0.37088,0.15616,0.66368,0.83936,0.62952,0.44408
0.36112,-0.0976,-0.16592,-0.34648,-0.52704,0.44408,-0.1952,0.03904,0.15616,0.3172,0.30256,0.21472
0.20496,0.061,-0.32696,-0.42944,-0.53192,0.36844,-0.06344,-0.07808,-0.23912,-0.08784,0.05368,0.0488
0.11712,0.14152,-0.40016,-0.45872,-0.51728,0.3172,0.01464,-0.11712,-0.44408,-0.30744,-0.08784,-0.0488
0.06832,0.16592,-0.40016,-0.43432,-0.46848,0.2684,0.0488,-0.08296,-0.4636,-0.34648,-0.14152,-0.0976
0.0488,0.14884,-0.34648,-0.37088,-0.39528,0.22204,0.06832,-0.03904,-0.38064,-0.2928,-0.1464,-0.11224
0.03416,0.11956,-0.27328,-0.29036,-0.30744,0.1708,0.0732,0.00488,-0.27816,-0.22448,-0.12688,-0.11224
0.01952,0.10004,-0.2196,-0.22936,-0.23912,0.12932,0.07808,0.02928,-0.19032,-0.15616,-0.10248,-0.09272
-0.00488,0.08296,-0.16104,-0.1586,-0.15616,0.07564,0.07808,0.05856,-0.11712,-0.0976,-0.06344,-0.06344
-0.02928,0.08052,-0.13176,-0.11712,-0.10248,0.0366,0.07808,0.06832,-0.06832,-0.06344,-0.0488,-0.05368
-0.03904,0.06832,-0.0976,-0.07808,-0.05856,0.00976,0.08784,0.06344,-0.03904,-0.03904,-0.02928,-0.03416
-0.02928,0.05856,-0.08784,-0.0732,-0.05856,0.01464,0.0732,0.05368,-0.03416,-0.03416,-0.01952,-0.0244
-0.01952,0.04636,-0.0732,-0.06344,-0.05368,0.01708,0.06344,0.03904,-0.0244,-0.03416,-0.0244,-0.02928
-0.00488,0.0366,-0.06832,-0.06588,-0.06344,0.02928,0.05856,0.03416,-0.01952,-0.03416,-0.03416,-0.02928
-0.00488,0.0366,-0.06832,-0.06588,-0.06344,0.02928,0.0488,0.03416,-0.01952,-0.03416,-0.03904,-0.03416
0,0.03416,-0.06832,-0.06832,-0.06832,0.03416,0.0488,0.03416,-0.01952,-0.02928,-0.03416,-0.03416
-0.01952,0.04392,-0.06832,-0.05856,-0.0488,0.01464,0.05856,0.04392,-0.00976,-0.0244,-0.0244,-0.02928
-0.02928,0.04636,-0.06344,-0.0488,-0.03416,0.00244,0.05368,0.05368,-0.00488,-0.01952,-0.0244,-0.02928
-0.02928,0.04392,-0.05856,-0.04392,-0.02928,0,0.05368,0.05856,0.00488,-0.01464,-0.01952,-0.0244
-0.02928,0.04392,-0.05856,-0.04392,-0.02928,0,0.05368,0.05856,0.00976,-0.00976,-0.01464,-0.0244
-0.0244,0.03904,-0.05368,-0.04148,-0.02928,0.00244,0.0488,0.0488,0.00488,-0.00976,-0.01952,-0.01952
-0.01464,0.03416,-0.05368,-0.04636,-0.03904,0.0122,0.0488,0.0488,0.00976,0,-0.01952,-0.01952
-0.01952,0.0366,-0.05368,-0.04392,-0.03416,0.00732,0.05856,0.05856,0.01952,0.00976,-0.00488,-0.01952
-0.0244,0.0366,-0.0488,-0.0366,-0.0244,0,0.05368,0.06344,0.0244,0.01464,0.00488,-0.01464
-0.01464,0.03172,-0.0488,-0.04148,-0.03416,0.00976,0.04392,0.05368,0.01464,0.00488,-0.00488,-0.0244
-0.01464,0.03172,-0.0488,-0.04148,-0.03416,0.00976,0.04392,0.05368,0.01464,0.00488,-0.00488,-0.0244
0.00488,0.01952,-0.04392,-0.04636,-0.0488,0.02684,0.02928,0.04392,0.00976,0,-0.01464,-0.02928
0.01952,0.00976,-0.03904,-0.0488,-0.05856,0.03904,0.02928,0.0488,0.01464,0.00488,-0.00976,-0.0244
0.00976,0.0122,-0.03416,-0.03904,-0.04392,0.02684,0.02928,0.05856,0.02928,0.01464,0.00488,-0.01464
0.01464,0.00976,-0.03416,-0.04148,-0.0488,0.03172,0.02928,0.05856,0.03416,0.01464,0.00488,-0.00976
0,0.01464,-0.02928,-0.02928,-0.02928,0.01464,0.03904,0.0732,0.0488,0.02928,0.01464,0.00488
-0.01464,0.02196,-0.02928,-0.02196,-0.01464,0,0.0488,0.0732,0.0488,0.02928,0.01464,0.00488
-0.00976,0.01952,-0.02928,-0.0244,-0.01952,0.00488,0.03904,0.0732,0.05368,0.04392,0.01952,0.00488
-0.00976,0.01708,-0.0244,-0.01952,-0.01464,0.00244,0.03904,0.0732,0.05856,0.04392,0.0244,0.00976
0.00488,0.00976,-0.0244,-0.02684,-0.02928,0.01708,0.0244,0.0732,0.05368,0.04392,0.01952,0.00976
0.00488,0.00732,-0.01952,-0.02196,-0.0244,0.01464,0.0244,0.07808,0.05856,0.04392,0.0244,0.01952
-0.00488,0.0122,-0.01952,-0.01708,-0.01464,0.00488,0.0244,0.08784,0.06832,0.05856,0.02928,0.01952
-0.01464,0.01464,-0.01464,-0.00732,0,-0.00732,0.0244,0.08784,0.0732,0.06832,0.02928,0.0244
0,0.00732,-0.01464,-0.01464,-0.01464,0.00732,0.01952,0.08296,0.08296,0.06344,0.03416,0.01464
0.01464,-0.00732,0,-0.00732,-0.01464,0.01464,0.01464,0.08784,0.08784,0.06832,0.03904,0.01952
0.03416,-0.01952,0.00488,-0.0122,-0.02928,0.03172,0.00488,0.09272,0.08784,0.0732,0.03416,0.00976
0.0488,-0.02684,0.00488,-0.01952,-0.04392,0.04636,0.00488,0.10248,0.0976,0.08296,0.03416,0.01464
0.05856,-0.04148,0.0244,-0.00488,-0.03416,0.04636,-0.00488,0.10248,0.10736,0.09272,0.04392,0.01952
0.07808,-0.05368,0.02928,-0.00976,-0.0488,0.06344,-0.00976,0.11712,0.122,0.10248,0.05368,0.02928
0.0732,-0.05124,0.02928,-0.00732,-0.04392,0.05856,-0.00976,0.122,0.13176,0.11712,0.06344,0.03416
0.0732,-0.05368,0.03416,-0.00244,-0.03904,0.05612,-0.01952,0.13176,0.15616,0.13664,0.0732,0.0488
0.06832,-0.05612,0.04392,0.00976,-0.0244,0.04636,-0.01952,0.15616,0.18544,0.15616,0.0976,0.05856
0.06832,-0.05856,0.0488,0.01464,-0.01952,0.04392,-0.02928,0.16592,0.20008,0.17568,0.10736,0.06832
0.07808,-0.0732,0.06832,0.02928,-0.00976,0.04392,-0.03904,0.18544,0.22448,0.20496,0.11712,0.08296
0.08784,-0.08296,0.07808,0.03416,-0.00976,0.0488,-0.0488,0.1952,0.244,0.22936,0.13664,0.08784
0.10736,-0.10004,0.09272,0.03904,-0.01464,0.061,-0.06344,0.20984,0.26352,0.24888,0.1464,0.10248
0.13176,-0.11956,0.10736,0.04148,-0.0244,0.07808,-0.0732,0.2196,0.28792,0.27816,0.16592,0.11712
0.14152,-0.12932,0.11712,0.04636,-0.0244,0.08296,-0.08784,0.23424,0.30744,0.30256,0.1708,0.11712
0.15616,-0.14396,0.13176,0.05368,-0.0244,0.09028,-0.0976,0.244,0.33184,0.32208,0.18544,0.13176
0.16592,-0.15372,0.14152,0.05856,-0.0244,0.09516,-0.10248,0.25376,0.35136,0.34648,0.21472,0.14152
0.17568,-0.16348,0.15128,0.06344,-0.0244,0.10004,-0.11224,0.26352,0.37088,0.366,0.22448,0.15128
0.17568,-0.1708,0.16592,0.07808,-0.00976,0.09272,-0.122,0.28304,0.39528,0.38552,0.23912,0.15616
0.18056,-0.17812,0.17568,0.0854,-0.00488,0.09272,-0.12688,0.28304,0.40504,0.40504,0.24888,0.1708
0.17568,-0.183,0.19032,0.10248,0.01464,0.08052,-0.13176,0.28792,0.4392,0.42456,0.26352,0.19032
0.18056,-0.18544,0.19032,0.10004,0.00976,0.0854,-0.14152,0.2928,0.44408,0.43432,0.27328,0.1952
0.19032,-0.18788,0.18544,0.09028,-0.00488,0.0976,-0.14152,0.29768,0.45384,0.45384,0.28304,0.20984
0.19032,-0.19276,0.1952,0.10004,0.00488,0.09272,-0.14152,0.29768,0.45872,0.45872,0.28304,0.20984
0.20496,-0.20008,0.1952,0.09272,-0.00976,0.10736,-0.15616,0.28792,0.44896,0.45384,0.28792,0.20008
0.21472,-0.2074,0.20008,0.09272,-0.01464,0.11468,-0.15616,0.27816,0.44896,0.4392,0.28792,0.20008
0.20496,-0.19764,0.19032,0.08784,-0.01464,0.1098,-0.15128,0.27328,0.42944,0.42456,0.27816,0.20008
0.18544,-0.18788,0.19032,0.0976,0.00488,0.09028,-0.15128,0.25376,0.40504,0.40504,0.2684,0.19032
0.16592,-0.1708,0.17568,0.09272,0.00976,0.07808,-0.13664,0.22448,0.37576,0.37088,0.24888,0.17568
0.15616,-0.16348,0.1708,0.09272,0.01464,0.07076,-0.12688,0.20984,0.34648,0.3416,0.23424,0.16104
0.15128,-0.15128,0.15128,0.07564,0,0.07564,-0.12688,0.1708,0.30744,0.29768,0.20008,0.13664
0.14152,-0.14152,0.14152,0.07076,0,0.07076,-0.11712,0.15128,0.2684,0.25864,0.16592,0.122
0.12688,-0.12444,0.122,0.05856,-0.00488,0.06588,-0.10736,0.12688,0.244,0.22936,0.1464,0.10248
0.10248,-0.10248,0.10248,0.05124,0,0.05124,-0.08784,0.10736,0.20984,0.1952,0.122,0.09272
0.06832,-0.07808,0.08784,0.05368,0.01952,0.0244,-0.06832,0.09272,0.17568,0.1708,0.11224,0.07808
0.03904,-0.05612,0.0732,0.05368,0.03416,0.00244,-0.05368,0.08296,0.1464,0.14152,0.09272,0.06344
0.01952,-0.04148,0.06344,0.05368,0.04392,-0.0122,-0.03416,0.08296,0.13176,0.122,0.07808,0.06344
0.00976,-0.02928,0.0488,0.04392,0.03904,-0.01464,-0.0244,0.05856,0.10248,0.0976,0.05856,0.04392
0.01464,-0.01952,0.0244,0.01708,0.00976,0.00244,-0.0244,0.05368,0.07808,0.07808,0.0488,0.03416
0.01464,-0.01708,0.01952,0.0122,0.00488,0.00488,-0.01952,0.04392,0.06344,0.05856,0.03904,0.0244
0.0244,-0.01708,0.00976,-0.00244,-0.01464,0.01952,-0.0244,0.0244,0.04392,0.03416,0.01952,0.00488
0.02928,-0.01464,0,-0.01464,-0.02928,0.02928,-0.01952,0.0244,0.03416,0.02928,0.00976,-0.00488
0.01952,-0.0122,0.00488,-0.00488,-0.01464,0.01708,-0.01464,0.0244,0.01952,0.0244,0.00488,-0.00488
0.01952,-0.00732,-0.00488,-0.01464,-0.0244,0.02196,-0.00976,0.0244,0.01464,0.01464,0.00488,-0.00488
0,0.00976,-0.01952,-0.01952,-0.01952,0.00976,0,0.03416,0.01952,0.01464,0.00488,0
-0.01464,0.01708,-0.01952,-0.0122,-0.00488,-0.00488,0.00976,0.02928,0.02928,0.01464,0.00488,0
-0.00976,0.01708,-0.0244,-0.01952,-0.01464,0.00244,0.00488,0.02928,0.01952,0.01464,0,0
-0.00488,0.01708,-0.02928,-0.02684,-0.0244,0.00976,0.00488,0.0244,0.01952,0.00976,0,0
0.00488,0.00732,-0.01952,-0.02196,-0.0244,0.01464,-0.00488,0.01464,0.00976,0,0,-0.01464
0.00976,0.00488,-0.01952,-0.0244,-0.02928,0.01952,-0.00488,0.01464,0,0,-0.00488,-0.01464
-0.00976,0.01708,-0.0244,-0.01952,-0.01464,0.00244,0.00976,0.0244,0.00488,0.00976,0.00488,-0.00488
-0.01952,0.02196,-0.0244,-0.01464,-0.00488,-0.00732,0.00976,0.0244,0.01464,0.00488,0.00488,-0.00488
-0.00488,0.01952,-0.03416,-0.03172,-0.02928,0.0122,0.00488,0.0244,0,0.00488,0,-0.00976
0.00976,0.00976,-0.02928,-0.03416,-0.03904,0.0244,0.00488,0.0244,0.00488,0,0,-0.00976
0.0244,0.00244,-0.02928,-0.04148,-0.05368,0.03904,0.00488,0.0244,-0.00488,-0.00488,-0.00976,-0.01952
0.02928,0.00244,-0.03416,-0.0488,-0.06344,0.04636,0,0.0244,-0.00488,-0.01464,-0.00976,-0.01952
0.01464,0.00976,-0.03416,-0.04148,-0.0488,0.03172,0.00488,0.01952,-0.00976,-0.00976,-0.00976,-0.01952
0.01464,0.00976,-0.03416,-0.04148,-0.0488,0.03172,0.00488,0.01952,-0.00976,-0.00976,-0.00976,-0.01952
0.0244,0.00244,-0.02928,-0.04148,-0.05368,0.03904,0,0.01952,-0.00976,-0.00976,-0.00976,-0.01952
0.0244,0.00244,-0.02928,-0.04148,-0.05368,0.03904,0,0.01952,-0.00488,-0.00488,-0.00976,-0.01464
0.01464,0.00732,-0.02928,-0.0366,-0.04392,0.02928,0,0.02928,0.00488,-0.00488,-0.00488,-0.00488
0.00976,0.00976,-0.02928,-0.03416,-0.03904,0.0244,0.00488,0.02928,0,-0.00488,-0.00488,-0.00488
-0.00976,0.01952,-0.02928,-0.0244,-0.01952,0.00488,0.00976,0.03904,0.00976,0.00488,0.00488,0.00976
-0.02928,0.02928,-0.02928,-0.01464,0,-0.01464,0.01952,0.03904,0.01464,0.00488,0.00488,0.00976
-0.01952,0.02196,-0.0244,-0.01464,-0.00488,-0.00732,0.01464,0.03904,0.00488,0.00488,0.00488,0.00488
-0.01464,0.01952,-0.0244,-0.01708,-0.00976,-0.00244,0.00976,0.03904,0.00488,0.00488,0,0.00488
0.00488,0.00976,-0.0244,-0.02684,-0.02928,0.01708,0,0.02928,-0.00488,-0.00488,-0.00488,-0.00488
0.00976,0.00488,-0.01952,-0.0244,-0.02928,0.01952,0,0.02928,-0.00488,-0.00488,-0.00488,-0.01464
0.01464,0.00244,-0.01952,-0.02684,-0.03416,0.0244,0,0.01952,-0.00488,-0.01464,-0.01464,-0.01464
0.00976,0.00488,-0.01952,-0.0244,-0.02928,0.01952,0,0.01952,-0.00488,-0.00976,-0.00976,-0.01464
0.01464,0.00244,-0.01952,-0.02684,-0.03416,0.0244,0,0.02928,-0.00488,0,0,-0.00976
0.01464,0.00244,-0.01952,-0.02684,-0.03416,0.0244,0,0.02928,-0.00488,0,0,-0.00976
0.01464,0.00732,-0.02928,-0.0366,-0.04392,0.02928,0.00976,0.01952,-0.01464,-0.00976,-0.00976,-0.00976
0.01464,0.00732,-0.02928,-0.0366,-0.04392,0.02928,0.00488,0.01952,-0.01952,-0.01464,-0.00976,-0.00976
0.00976,0.00976,-0.02928,-0.03416,-0.03904,0.0244,0.00488,0.0244,-0.00976,-0.00488,0,-0.00488
0,0.01464,-0.02928,-0.02928,-0.02928,0.01464,0.00488,0.01952,-0.00976,-0.00488,0,-0.00488
0,0.00976,-0.01952,-0.01952,-0.01952,0.00976,0.00488,0.01952,-0.00488,-0.00488,-0.00488,0.00488
0,0.00732,-0.01464,-0.01464,-0.01464,0.00732,0.00488,0.0244,-0.00488,-0.00976,-0.00488,0.00488
0.00976,0.00488,-0.01952,-0.0244,-0.02928,0.01952,-0.00488,0.00976,-0.01464,-0.01952,-0.01952,-0.00976
0.01952,0,-0.01952,-0.02928,-0.03904,0.02928,-0.00488,0.00976,-0.01952,-0.0244,-0.0244,-0.01952
0.02928,0,-0.02928,-0.04392,-0.05856,0.04392,-0.00488,0.00976,-0.01952,-0.0244,-0.0244,-0.01952
0.0244,0.00244,-0.02928,-0.04148,-0.05368,0.03904,-0.00488,0.00976,-0.01952,-0.0244,-0.01952,-0.01952
0.01464,0.00976,-0.03416,-0.04148,-0.0488,0.03172,0,0.00976,-0.02928,-0.0244,-0.0244,-0.01952
0.01464,0.0122,-0.03904,-0.04636,-0.05368,0.03416,0,0.00488,-0.02928,-0.0244,-0.02928,-0.01952
0.00976,0.01464,-0.03904,-0.04392,-0.0488,0.02928,0.00976,0.01464,-0.0244,-0.01464,-0.01952,-0.01464
0.01464,0.0122,-0.03904,-0.04636,-0.05368,0.03416,0.00976,0.01464,-0.0244,-0.01952,-0.0244,-0.01464
0,0.01952,-0.03904,-0.03904,-0.03904,0.01952,0.00976,0.00976,-0.01952,-0.01464,-0.01952,-0.01464
-0.00488,0.0244,-0.04392,-0.04148,-0.03904,0.01708,0.01464,0.00976,-0.01952,-0.01464,-0.01952,-0.01464
-0.01952,0.02928,-0.03904,-0.02928,-0.01952,0,0.01952,0.00976,-0.01952,-0.01464,-0.01952,-0.01464
-0.01952,0.02928,-0.03904,-0.02928,-0.01952,0,0.01952,0.00976,-0.0244,-0.01464,-0.01952,-0.01464
-0.02928,0.03416,-0.03904,-0.0244,-0.00976,-0.00976,0.01464,0.01952,-0.0244,-0.01464,-0.00976,-0.00488
-0.0244,0.03416,-0.04392,-0.03172,-0.01952,-0.00244,0.01464,0.01952,-0.02928,-0.01464,-0.01464,-0.00976
-0.01464,0.02928,-0.04392,-0.0366,-0.02928,0.00732,0.01464,0.01464,-0.02928,-0.01952,-0.01464,-0.01952
-0.00976,0.02684,-0.04392,-0.03904,-0.03416,0.0122,0.00976,0.01464,-0.02928,-0.01952,-0.01464,-0.01952
0,0.01708,-0.03416,-0.03416,-0.03416,0.01708,0.00976,0.00488,-0.03904,-0.02928,-0.0244,-0.02928
0.00976,0.01464,-0.03904,-0.04392,-0.0488,0.02928,0.00976,0.00488,-0.03904,-0.02928,-0.0244,-0.02928
0.01952,0.00976,-0.03904,-0.0488,-0.05856,0.03904,0,0.00488,-0.0488,-0.02928,-0.03416,-0.02928
0.0244,0.00976,-0.04392,-0.05612,-0.06832,0.04636,0,0.00488,-0.05368,-0.03416,-0.03416,-0.03416
0.01952,0.0122,-0.04392,-0.05368,-0.06344,0.04148,0,0,-0.05368,-0.03416,-0.02928,-0.0244
0.01952,0.0122,-0.04392,-0.05368,-0.06344,0.04148,0,0,-0.05368,-0.03416,-0.02928,-0.02928
0.01464,0.01464,-0.04392,-0.05124,-0.05856,0.0366,0,0,-0.04392,-0.03416,-0.03904,-0.02928
0.00488,0.01952,-0.04392,-0.04636,-0.0488,0.02684,0.00488,0,-0.04392,-0.03416,-0.03416,-0.0244
0.00488,0.02196,-0.0488,-0.05124,-0.05368,0.02928,0.00488,0.00976,-0.04392,-0.03904,-0.03416,-0.02928
0.00488,0.02196,-0.0488,-0.05124,-0.05368,0.02928,0.00488,0.00976,-0.04392,-0.03904,-0.03416,-0.02928
0.01464,0.01708,-0.0488,-0.05612,-0.06344,0.03904,0,0.00488,-0.04392,-0.04392,-0.03416,-0.03416
0.01464,0.01464,-0.04392,-0.05124,-0.05856,0.0366,0,0.00488,-0.04392,-0.04392,-0.03416,-0.03904
0.00488,0.01952,-0.04392,-0.04636,-0.0488,0.02684,0,0.00488,-0.04392,-0.04392,-0.04392,-0.03904
0.00488,0.01952,-0.04392,-0.04636,-0.0488,0.02684,0,0.00488,-0.04392,-0.04392,-0.04392,-0.03904
0.00488,0.01952,-0.04392,-0.04636,-0.0488,0.02684,0,0.00488,-0.04392,-0.03416,-0.04392,-0.03416
0.00488,0.01952,-0.04392,-0.04636,-0.0488,0.02684,0.00488,0.00488,-0.04392,-0.03416,-0.0488,-0.03416
-0.00488,0.0244,-0.04392,-0.04148,-0.03904,0.01708,0.01464,0.00976,-0.04392,-0.03416,-0.03904,-0.0244
-0.00488,0.0244,-0.04392,-0.04148,-0.03904,0.01708,0.01464,0.00976,-0.04392,-0.03416,-0.02928,-0.0244
-0.00976,0.02928,-0.0488,-0.04392,-0.03904,0.01464,0.01464,0.00976,-0.04392,-0.03416,-0.03904,-0.03416
-0.01464,0.03416,-0.05368,-0.04636,-0.03904,0.0122,0.01464,0.00976,-0.04392,-0.03416,-0.03904,-0.03416
-0.00488,0.02928,-0.05368,-0.05124,-0.0488,0.02196,0.00488,0.00976,-0.04392,-0.04392,-0.03416,-0.03416
-0.00488,0.02928,-0.05368,-0.05124,-0.0488,0.02196,0.00488,0.00976,-0.04392,-0.04392,-0.03416,-0.03416
0.00976,0.02196,-0.05368,-0.05856,-0.06344,0.0366,0.00488,0.00488,-0.04392,-0.04392,-0.03416,-0.03416
0.0244,0.0122,-0.0488,-0.061,-0.0732,0.0488,0,0,-0.04392,-0.04392,-0.03416,-0.03416
0.00488,0.01952,-0.04392,-0.04636,-0.0488,0.02684,0.00976,0.00976,-0.04392,-0.03416,-0.03416,-0.0244
0.00488,0.02196,-0.0488,-0.05124,-0.05368,0.02928,0,0.00976,-0.0488,-0.03904,-0.03904,-0.03904
0.01464,0.01708,-0.0488,-0.05612,-0.06344,0.03904,0,0.00976,-0.0488,-0.03904,-0.03904,-0.03904
0.0244,0.0122,-0.0488,-0.061,-0.0732,0.0488,-0.00976,0,-0.05856,-0.0488,-0.0488,-0.03904
0.03416,0.00732,-0.0488,-0.06588,-0.08296,0.05856,-0.00488,0,-0.05856,-0.05368,-0.0488,-0.03904
0.03416,0.00732,-0.0488,-0.06588,-0.08296,0.05856,0.00488,0,-0.0488,-0.04392,-0.03904,-0.03904
0.02928,0.00976,-0.0488,-0.06344,-0.07808,0.05368,0.00488,0,-0.0488,-0.04392,-0.03904,-0.03416
0.00976,0.01952,-0.0488,-0.05368,-0.05856,0.03416,0.00976,0.00976,-0.03904,-0.03416,-0.03416,-0.02928
0.00976,0.01952,-0.0488,-0.05368,-0.05856,0.03416,0.00976,0.00976,-0.03904,-0.03416,-0.03416,-0.02928
0,0.01952,-0.03904,-0.03904,-0.03904,0.01952,0.00976,0.0244,-0.02928,-0.0244,-0.02928,-0.0244
0,0.01464,-0.02928,-0.02928,-0.02928,0.01464,0.00976,0.0244,-0.01952,-0.01464,-0.0244,-0.01952
0.00488,0,-0.00488,-0.00732,-0.00976,0.00732,-0.00976,0.01464,-0.01952,-0.00976,-0.01952,-0.01952
0.01464,-0.00976,0.00488,-0.00244,-0.00976,0.0122,-0.01464,0.00488,-0.01952,-0.00976,-0.01464,-0.01952
0.00976,-0.0122,0.01464,0.00976,0.00488,0.00244,-0.01464,-0.00488,-0.01464,0,-0.01464,-0.00976
0.01464,-0.01708,0.01952,0.0122,0.00488,0.00488,-0.01464,0,-0.00976,0,-0.01464,-0.00488
0.01952,-0.01708,0.01464,0.00488,-0.00488,0.0122,-0.00976,0,-0.00976,0.00488,-0.00488,-0.00488
0.01464,-0.01952,0.0244,0.01708,0.00976,0.00244,-0.0244,0,-0.00488,0.00976,0,-0.00488
0.0244,-0.03416,0.04392,0.03172,0.01952,0.00244,-0.04392,-0.00976,0,0.01464,0.00488,0.00488
0.03904,-0.05368,0.06832,0.0488,0.02928,0.00488,-0.06344,-0.01952,0.00488,0.00976,0.00976,0.01464
0.05368,-0.06588,0.07808,0.05124,0.0244,0.01464,-0.07808,-0.0244,0.00976,0.01464,0.01952,0.01464
0.05368,-0.07564,0.0976,0.07076,0.04392,0.00488,-0.08296,-0.0244,0.01952,0.0244,0.02928,0.02928
0.06344,-0.08296,0.10248,0.07076,0.03904,0.0122,-0.08784,-0.02928,0.01952,0.02928,0.02928,0.03416
0.06832,-0.0854,0.10248,0.06832,0.03416,0.01708,-0.08296,-0.0244,0.0244,0.03416,0.02928,0.03904
0.06832,-0.08052,0.09272,0.05856,0.0244,0.02196,-0.06832,-0.0244,0.01952,0.0244,0.02928,0.02928
0.0732,-0.07564,0.07808,0.04148,0.00488,0.03416,-0.06344,-0.01464,0.01952,0.0244,0.02928,0.02928
0.06832,-0.06344,0.05856,0.0244,-0.00976,0.03904,-0.05368,-0.00488,0.0244,0.03416,0.03416,0.03416
0.0732,-0.05612,0.03904,0.00244,-0.03416,0.05368,-0.04392,0.00488,0.00976,0.01952,0.0244,0.01952
0.05856,-0.0366,0.01464,-0.01464,-0.04392,0.05124,-0.02928,0.0244,0,0.01952,0.01464,0.01464
0.03904,-0.0122,-0.01464,-0.03416,-0.05368,0.04636,-0.01952,0.0244,-0.01464,0,-0.00488,0.00488
0.02928,0,-0.02928,-0.04392,-0.05856,0.04392,0,0.01464,-0.01952,-0.01464,-0.01464,-0.00488
0.01464,0.01708,-0.0488,-0.05612,-0.06344,0.03904,0.00976,0.01464,-0.02928,-0.02928,-0.0244,-0.01952
0.00976,0.01708,-0.04392,-0.0488,-0.05368,0.03172,0.01952,0.01464,-0.03416,-0.02928,-0.03416,-0.02928
0.00488,0.0244,-0.05368,-0.05612,-0.05856,0.03172,0.01952,0.01464,-0.03416,-0.02928,-0.03416,-0.02928
0,0.03172,-0.06344,-0.06344,-0.06344,0.03172,0.0244,0.01464,-0.05368,-0.03904,-0.04392,-0.03904
0,0.03416,-0.06832,-0.06832,-0.06832,0.03416,0.02928,0.01464,-0.06344,-0.04392,-0.0488,-0.03904
0.00488,0.03904,-0.08296,-0.0854,-0.08784,0.04636,0.0244,0.01464,-0.06344,-0.05368,-0.05368,-0.05368
0,0.04148,-0.08296,-0.08296,-0.08296,0.04148,0.0244,0.01464,-0.06344,-0.05368,-0.05368,-0.05368
0.00488,0.03904,-0.08296,-0.0854,-0.08784,0.04636,0.03416,0.00976,-0.06832,-0.05856,-0.05368,-0.05368
0.00488,0.04148,-0.08784,-0.09028,-0.09272,0.0488,0.03416,0.00976,-0.06832,-0.05856,-0.05368,-0.05856
-0.00976,0.0488,-0.08784,-0.08296,-0.07808,0.03416,0.04392,0.01952,-0.05856,-0.0488,-0.05368,-0.0488
-0.01952,0.05368,-0.08784,-0.07808,-0.06832,0.0244,0.04392,0.01952,-0.05856,-0.0488,-0.05368,-0.0488
-0.01952,0.05368,-0.08784,-0.07808,-0.06832,0.0244,0.0488,0.0244,-0.04392,-0.03416,-0.04392,-0.04392
-0.01952,0.05368,-0.08784,-0.07808,-0.06832,0.0244,0.0488,0.0244,-0.04392,-0.03416,-0.04392,-0.04392
-0.01464,0.05124,-0.08784,-0.08052,-0.0732,0.02928,0.03904,0.0244,-0.05368,-0.04392,-0.04392,-0.0488
-0.01464,0.05124,-0.08784,-0.08052,-0.0732,0.02928,0.03904,0.01952,-0.05368,-0.04392,-0.04392,-0.0488
-0.00488,0.03904,-0.0732,-0.07076,-0.06832,0.03172,0.04392,0.01464,-0.0488,-0.04392,-0.04392,-0.0488
-0.02928,0.0366,-0.04392,-0.02928,-0.01464,-0.00732,0.05856,0.01464,-0.03904,-0.05368,-0.05368,-0.05856
-0.0488,0.03172,-0.01464,0.00976,0.03416,-0.04148,0.07808,0.02928,0,-0.02928,-0.04392,-0.05368
-0.0488,0.00488,0.03904,0.06344,0.08784,-0.06832,0.07808,0.05368,0.05856,0.02928,-0.01464,-0.01952
-0.01464,-0.05124,0.11712,0.12444,0.13176,-0.0732,0.04392,0.0976,0.1708,0.14152,0.07808,0.05856
0.08296,-0.15372,0.22448,0.183,0.14152,-0.02928,-0.02928,0.12688,0.36112,0.34648,0.23424,0.17568
0.20496,-0.27328,0.3416,0.23912,0.13664,0.03416,-0.15128,0.13176,0.58072,0.61488,0.43432,0.33672
0.36112,-0.41236,0.4636,0.28304,0.10248,0.12932,-0.32208,0.14152,0.82472,0.90768,0.66368,0.5124
0.53192,-0.55144,0.57096,0.305,0.03904,0.24644,-0.49288,0.13176,1.02968,1.18584,0.87352,0.66856
0.67832,-0.65148,0.62464,0.28548,-0.05368,0.366,-0.61976,0.1464,1.16144,1.37128,1.01016,0.76128
0.74664,-0.63928,0.53192,0.1586,-0.21472,0.48068,-0.6344,0.18544,1.13216,1.37616,1.01016,0.73688
0.7076,-0.52216,0.33672,-0.01708,-0.37088,0.53924,-0.53192,0.18056,0.88328,1.11752,0.82472,0.5856
0.55632,-0.30988,0.06344,-0.21472,-0.49288,0.5246,-0.35624,0.0976,0.44896,0.67832,0.52216,0.36112
0.37576,-0.09028,-0.1952,-0.38308,-0.57096,0.47336,-0.17568,0.00488,0.00976,0.1952,0.21472,0.13664
0.2196,0.06832,-0.35624,-0.46604,-0.57584,0.39772,-0.0488,-0.09272,-0.34648,-0.18056,-0.03416,-0.02928
0.122,0.14884,-0.41968,-0.48068,-0.54168,0.33184,0.0244,-0.10736,-0.49288,-0.35136,-0.15128,-0.10736
0.0732,0.1708,-0.4148,-0.4514,-0.488,0.2806,0.06832,-0.06344,-0.49288,-0.37576,-0.18544,-0.14152
0.04392,0.15616,-0.35624,-0.3782,-0.40016,0.22204,0.08296,-0.0244,-0.39528,-0.3172,-0.17568,-0.14152
