i,aVR,ii,aVF,iii,aVL,V1,V2,V3,V4,V5,V6
-0.02928,0.00976,0.00976,0.0244,0.03904,-0.03416,0.00976,-0.02928,-0.01952,-0.03416,-0.0244,-0.00488
-0.02928,0.0122,0.00488,0.01952,0.03416,-0.03172,0.00976,-0.02928,-0.01952,-0.02928,-0.01952,-0.00976
-0.02928,0.01464,0,0.01464,0.02928,-0.02928,0.00488,-0.02928,-0.01464,-0.0244,-0.00976,-0.01464
-0.0244,0.0122,0,0.0122,0.0244,-0.0244,0.00488,-0.03904,-0.01952,-0.02928,-0.00976,-0.01464
-0.01952,0.00976,0,0.00976,0.01952,-0.01952,0.00488,-0.04392,-0.0244,-0.0244,-0.01464,-0.00976
-0.0244,0.0122,0,0.0122,0.0244,-0.0244,0.00488,-0.04392,-0.0244,-0.0244,-0.01464,-0.00488
-0.0244,0.0122,0,0.0122,0.0244,-0.0244,0.00488,-0.04392,-0.0244,-0.0244,-0.00976,-0.00488
-0.0244,0.0122,0,0.0122,0.0244,-0.0244,0,-0.04392,-0.0244,-0.01952,-0.01464,-0.00976
-0.0244,0.00976,0.00488,0.01708,0.02928,-0.02684,-0.00488,-0.04392,-0.02928,-0.01952,-0.01952,-0.00976
-0.0244,0.00976,0.00488,0.01708,0.02928,-0.02684,-0.01464,-0.05368,-0.03416,-0.02928,-0.02928,-0.00976
-0.0244,0.0122,0,0.0122,0.0244,-0.0244,-0.01464,-0.05856,-0.03904,-0.03416,-0.03904,-0.00976
-0.0244,0.00976,0.00488,0.01708,0.02928,-0.02684,-0.00976,-0.05856,-0.03416,-0.03416,-0.0244,-0.00976
-0.01952,0.00976,0,0.00976,0.01952,-0.01952,-0.00976,-0.05368,-0.03416,-0.03416,-0.01464,-0.00976
-0.0244,0.0122,0,0.0122,0.0244,-0.0244,-0.00488,-0.05368,-0.03416,-0.0244,-0.01952,-0.01952
-0.0244,0.00976,0.00488,0.01708,0.02928,-0.02684,-0.00488,-0.05856,-0.04392,-0.01952,-0.01952,-0.01952
-0.0244,0.00732,0.00976,0.02196,0.03416,-0.02928,-0.00976,-0.06344,-0.04392,-0.02928,-0.01952,-0.01952
-0.01952,0.00488,0.00976,0.01952,0.02928,-0.0244,-0.01464,-0.06344,-0.04392,-0.03416,-0.01952,-0.0244
-0.01464,0.00488,0.00488,0.0122,0.01952,-0.01708,-0.01464,-0.06344,-0.04392,-0.03416,-0.00976,-0.0244
-0.01464,0.00488,0.00488,0.0122,0.01952,-0.01708,-0.00976,-0.05856,-0.04392,-0.03416,-0.01952,-0.0244
-0.0244,0.0122,0,0.0122,0.0244,-0.0244,-0.00976,-0.05856,-0.03904,-0.02928,-0.00976,-0.01952
-0.0244,0.0122,0,0.0122,0.0244,-0.0244,-0.00976,-0.05856,-0.03416,-0.02928,-0.00488,-0.01464
-0.02928,0.01464,0,0.01464,0.02928,-0.02928,-0.00976,-0.05856,-0.03416,-0.02928,-0.00976,-0.00976
-0.03416,0.01708,0,0.01708,0.03416,-0.03416,-0.00976,-0.05856,-0.03904,-0.03416,-0.00976,-0.00488
-0.03416,0.01708,0,0.01708,0.03416,-0.03416,-0.00976,-0.05856,-0.03904,-0.03904,-0.01464,-0.00488
-0.04392,0.02196,0,0.02196,0.04392,-0.04392,-0.00976,-0.05856,-0.03904,-0.04392,-0.0244,-0.00488
-0.02928,0.01464,0,0.01464,0.02928,-0.02928,-0.01464,-0.06344,-0.04392,-0.03904,-0.01952,-0.00976
-0.01952,0.00976,0,0.00976,0.01952,-0.01952,-0.01952,-0.06344,-0.04392,-0.03904,-0.01952,-0.01464
-0.01952,0.0122,-0.00488,0.00488,0.01464,-0.01708,-0.01952,-0.06344,-0.0488,-0.03416,-0.0244,-0.01464
-0.01952,0.00976,0,0.00976,0.01952,-0.01952,-0.01952,-0.06344,-0.05368,-0.03416,-0.0244,-0.01464
-0.02928,0.01464,0,0.01464,0.02928,-0.02928,-0.01952,-0.06832,-0.05368,-0.03416,-0.0244,-0.01464
-0.03416,0.01708,0,0.01708,0.03416,-0.03416,-0.01952,-0.06832,-0.05368,-0.03416,-0.0244,-0.01464
-0.03416,0.02684,-0.01952,-0.00244,0.01464,-0.0244,-0.01952,-0.06832,-0.05368,-0.03904,-0.03904,-0.01952
-0.02928,0.02684,-0.0244,-0.00976,0.00488,-0.01708,-0.01952,-0.06344,-0.05856,-0.04392,-0.03904,-0.01952
-0.02928,0.01708,-0.00488,0.00976,0.0244,-0.02684,-0.01952,-0.06832,-0.05856,-0.04392,-0.03904,-0.01952
-0.02928,0.01708,-0.00488,0.00976,0.0244,-0.02684,-0.01464,-0.0732,-0.05856,-0.04392,-0.03904,-0.0244
-0.02928,0.01464,0,0.01464,0.02928,-0.02928,-0.01952,-0.0732,-0.05368,-0.0488,-0.03416,-0.01952
-0.02928,0.00976,0.00976,0.0244,0.03904,-0.03416,-0.0244,-0.07808,-0.0488,-0.03904,-0.02928,-0.01952
-0.02928,0.0122,0.00488,0.01952,0.03416,-0.03172,-0.0244,-0.07808,-0.0488,-0.03904,-0.0244,-0.01952
-0.02928,0.01464,0,0.01464,0.02928,-0.02928,-0.0244,-0.07808,-0.05368,-0.03904,-0.0244,-0.0244
-0.01952,0.00976,0,0.00976,0.01952,-0.01952,-0.01952,-0.0732,-0.05368,-0.03904,-0.0244,-0.0244
-0.01952,0.00976,0,0.00976,0.01952,-0.01952,-0.01952,-0.0732,-0.0488,-0.03904,-0.0244,-0.02928
-0.0244,0.01708,-0.00976,0.00244,0.01464,-0.01952,-0.00976,-0.06344,-0.04392,-0.04392,-0.02928,-0.0244
-0.02928,0.01952,-0.00976,0.00488,0.01952,-0.0244,-0.00976,-0.06344,-0.04392,-0.04392,-0.03416,-0.01952
-0.02928,0.01708,-0.00488,0.00976,0.0244,-0.02684,-0.01464,-0.06832,-0.0488,-0.04392,-0.04392,-0.01464
-0.0244,0.01708,-0.00976,0.00244,0.01464,-0.01952,-0.01952,-0.06832,-0.0488,-0.04392,-0.05368,-0.01464
-0.01952,0.00976,0,0.00976,0.01952,-0.01952,-0.01464,-0.05856,-0.04392,-0.03416,-0.03904,-0.00976
-0.01952,0.00732,0.00488,0.01464,0.0244,-0.02196,-0.00976,-0.05368,-0.03904,-0.02928,-0.0244,-0.00488
-0.01464,0.00732,0,0.00732,0.01464,-0.01464,0.00488,-0.03904,-0.02928,-0.0244,-0.01952,0
-0.00976,0.00488,0,0.00488,0.00976,-0.00976,0.01952,-0.02928,-0.01952,-0.01952,-0.01952,0
-0.00976,0.00488,0,0.00488,0.00976,-0.00976,0.0244,-0.0244,-0.00976,-0.00976,0,0
-0.00976,0.00488,0,0.00488,0.00976,-0.00976,0.02928,-0.01952,0,0,0.01952,0
0,-0.00244,0.00488,0.00488,0.00488,-0.00244,0.03416,-0.01464,0,0.00488,0.01464,-0.00488
0.00488,-0.00488,0.00488,0.00244,0,0.00244,0.04392,-0.00488,0,0,0.00488,-0.00488
0.00976,-0.00976,0.00976,0.00488,0,0.00488,0.05368,0,0.00488,-0.00976,-0.00488,-0.00488
0.01464,-0.0122,0.00976,0.00244,-0.00488,0.00976,0.04392,-0.00976,0.00488,-0.03416,-0.03904,-0.00488
0.01952,-0.01464,0.00976,0,-0.00976,0.01464,0.02928,-0.01952,-0.00976,-0.03416,-0.03416,-0.00488
0.01952,-0.01708,0.01464,0.00488,-0.00488,0.0122,0.01464,-0.02928,-0.0244,-0.0244,-0.0244,-0.00488
0.0244,-0.01952,0.01464,0.00244,-0.00976,0.01708,0.00488,-0.03904,-0.03416,-0.02928,-0.02928,-0.00488
0.0244,-0.01708,0.00976,-0.00244,-0.01464,0.01952,-0.00976,-0.05368,-0.03904,-0.03416,-0.02928,-0.00976
0.01464,-0.00976,0.00488,-0.00244,-0.00976,0.0122,-0.03416,-0.06344,-0.04392,-0.03416,-0.0244,-0.00976
0.01464,-0.00732,0,-0.00732,-0.01464,0.01464,-0.03904,-0.06344,-0.0488,-0.02928,-0.01952,-0.00976
0.01952,-0.00976,0,-0.00976,-0.01952,0.01952,-0.03904,-0.06344,-0.0488,-0.01952,-0.00488,-0.00488
0.01952,-0.0122,0.00488,-0.00488,-0.01464,0.01708,-0.03416,-0.06344,-0.0488,-0.01464,0.00488,0
0.02928,-0.01952,0.00976,-0.00488,-0.01952,0.0244,-0.03416,-0.06344,-0.03904,-0.00976,0.00488,0
0.01952,-0.01464,0.00976,0,-0.00976,0.01464,-0.03416,-0.06344,-0.03416,-0.01464,0.00488,0
0.01464,-0.00732,0,-0.00732,-0.01464,0.01464,-0.04392,-0.07808,-0.05368,-0.02928,-0.01464,0
0.00488,-0.00244,0,-0.00244,-0.00488,0.00488,-0.04392,-0.07808,-0.06344,-0.03904,-0.03416,-0.00488
0,0.00244,-0.00488,-0.00488,-0.00488,0.00244,-0.04392,-0.07808,-0.06344,-0.03904,-0.03416,-0.00976
-0.00488,0.00488,-0.00488,-0.00244,0,-0.00244,-0.04392,-0.07808,-0.05856,-0.03416,-0.03416,-0.00976
-0.00488,0.00488,-0.00488,-0.00244,0,-0.00244,-0.04392,-0.0732,-0.05856,-0.03416,-0.0244,-0.01464
-0.00976,0.00732,-0.00488,0,0.00488,-0.00732,-0.04392,-0.0732,-0.05856,-0.03904,-0.01952,-0.01952
-0.0244,0.01464,-0.00488,0.00732,0.01952,-0.02196,-0.04392,-0.08296,-0.06344,-0.04392,-0.01952,-0.01952
-0.0244,0.01952,-0.01464,-0.00244,0.00976,-0.01708,-0.0488,-0.09272,-0.06832,-0.0488,-0.02928,-0.01952
-0.03416,0.0244,-0.01464,0.00244,0.01952,-0.02684,-0.04392,-0.09272,-0.06832,-0.03416,-0.00488,-0.02928
-0.04392,0.02928,-0.01464,0.00732,0.02928,-0.0366,-0.04392,-0.09272,-0.06832,-0.01464,0.01952,-0.02928
-0.0488,0.02928,-0.00976,0.01464,0.03904,-0.04392,-0.04392,-0.09272,-0.06832,-0.02928,0,-0.02928
-0.0488,0.02928,-0.00976,0.01464,0.03904,-0.04392,-0.04392,-0.09272,-0.06832,-0.04392,-0.01464,-0.02928
-0.03904,0.0244,-0.00976,0.00976,0.02928,-0.03416,-0.0488,-0.09272,-0.07808,-0.06832,-0.05368,-0.02928
-0.03416,0.02196,-0.00976,0.00732,0.0244,-0.02928,-0.05368,-0.0976,-0.09272,-0.08784,-0.08784,-0.02928
-0.03416,0.0244,-0.01464,0.00244,0.01952,-0.02684,-0.05368,-0.0976,-0.08784,-0.07808,-0.0732,-0.0244
-0.03416,0.02684,-0.01952,-0.00244,0.01464,-0.0244,-0.0488,-0.09272,-0.08784,-0.0732,-0.06344,-0.01952
-0.03416,0.0244,-0.01464,0.00244,0.01952,-0.02684,-0.0488,-0.08784,-0.07808,-0.06832,-0.05368,-0.01952
-0.03416,0.0244,-0.01464,0.00244,0.01952,-0.02684,-0.04392,-0.08296,-0.0732,-0.06344,-0.03904,-0.01952
-0.03904,0.02928,-0.01952,0,0.01952,-0.02928,-0.04392,-0.08296,-0.0732,-0.06344,-0.03904,-0.01952
-0.03904,0.02928,-0.01952,0,0.01952,-0.02928,-0.04392,-0.08296,-0.0732,-0.06344,-0.03904,-0.01952
-0.03904,0.03172,-0.0244,-0.00488,0.01464,-0.02684,-0.03904,-0.07808,-0.06832,-0.05856,-0.03904,-0.0244
-0.03904,0.03172,-0.0244,-0.00488,0.01464,-0.02684,-0.03904,-0.07808,-0.06344,-0.05368,-0.03904,-0.0244
-0.03904,0.03172,-0.0244,-0.00488,0.01464,-0.02684,-0.03904,-0.07808,-0.05856,-0.05368,-0.03416,-0.0244
-0.03904,0.03416,-0.02928,-0.00976,0.00976,-0.0244,-0.03904,-0.07808,-0.05856,-0.0488,-0.02928,-0.0244
-0.04392,0.0366,-0.02928,-0.00732,0.01464,-0.02928,-0.03904,-0.08296,-0.06344,-0.04392,-0.02928,-0.01952
-0.05368,0.03904,-0.0244,0.00244,0.02928,-0.04148,-0.02928,-0.07808,-0.06344,-0.04392,-0.02928,-0.01952
-0.06832,0.03904,-0.00976,0.0244,0.05856,-0.06344,0,-0.06832,-0.04392,-0.03904,-0.0244,-0.01952
-0.08296,0.03416,0.01464,0.05612,0.0976,-0.09028,0.04392,-0.03904,0.00976,-0.0244,-0.0244,-0.01464
-0.08784,0.01464,0.05856,0.10248,0.1464,-0.11712,0.08784,0.02928,0.06832,0.01464,-0.00976,0
-0.05856,-0.01952,0.0976,0.12688,0.15616,-0.10736,0.1464,0.12688,0.20496,0.13176,0.06832,0.03904
-0.01952,-0.04148,0.10248,0.11224,0.122,-0.07076,0.1952,0.20008,0.37088,0.29768,0.20496,0.09272
0.07808,-0.10736,0.13664,0.0976,0.05856,0.00976,0.122,0.21472,0.50264,0.49776,0.37088,0.17568
0.31232,-0.2806,0.24888,0.09272,-0.06344,0.18788,-0.0732,0.32208,0.78568,0.90768,0.6832,0.33184
0.53192,-0.46604,0.40016,0.1342,-0.13176,0.33184,-0.37576,0.33184,0.99552,1.2444,0.95648,0.49776
0.72712,-0.67832,0.62952,0.26596,-0.0976,0.41236,-0.90768,-0.06832,0.88328,1.342,1.11752,0.68808
0.79544,-0.74664,0.69784,0.30012,-0.0976,0.44652,-1.24928,-0.488,0.51728,1.098,1.01504,0.72712
0.61976,-0.47824,0.33672,0.02684,-0.28304,0.4514,-1.31272,-1.0736,-0.2196,0.36112,0.47824,0.46848
0.37088,-0.27084,0.1708,-0.01464,-0.20008,0.28548,-1.44448,-1.62992,-0.93696,-0.244,0.0732,0.30744
0.2196,-0.11712,0.01464,-0.09516,-0.20496,0.21228,-1.36152,-1.54208,-1.07848,-0.4392,-0.11224,0.16104
0.17568,-0.05368,-0.06832,-0.15616,-0.244,0.20984,-1.19072,-1.34688,-1.01992,-0.48312,-0.18544,0.06344
0.13664,-0.04392,-0.0488,-0.11712,-0.18544,0.16104,-1.01504,-1.11752,-0.8784,-0.45384,-0.21472,0.01464
0.08296,-0.05856,0.03416,-0.00732,-0.0488,0.06588,-0.7564,-0.82472,-0.61488,-0.30744,-0.14152,0.03416
0.06344,-0.061,0.05856,0.02684,-0.00488,0.03416,-0.47824,-0.51728,-0.3416,-0.1708,-0.06344,0.04392
0.0488,-0.05124,0.05368,0.02928,0.00488,0.02196,-0.26352,-0.27816,-0.16592,-0.08784,-0.01464,0.04392
0.04392,-0.04392,0.04392,0.02196,0,0.02196,-0.14152,-0.16592,-0.08784,-0.03904,0.00488,0.03904
0.03416,-0.03416,0.03416,0.01708,0,0.01708,-0.0488,-0.08296,-0.03416,-0.01464,0.01464,0.01952
0.01464,-0.0244,0.03416,0.02684,0.01952,-0.00244,-0.01464,-0.03904,0,-0.00488,0.01464,0.00976
-0.00488,-0.01464,0.03416,0.0366,0.03904,-0.02196,0,-0.01464,0.01464,-0.00488,0.01464,0.00976
-0.00976,-0.0122,0.03416,0.03904,0.04392,-0.02684,0.01464,-0.00488,0.01952,0.00488,0.01464,0.01464
-0.00488,-0.00976,0.0244,0.02684,0.02928,-0.01708,0.03416,0.01464,0.0244,0.00976,0.00976,0.01464
-0.00488,-0.00732,0.01952,0.02196,0.0244,-0.01464,0.0488,0.02928,0.03416,0.00976,0,0.00976
-0.01464,-0.00244,0.01952,0.02684,0.03416,-0.0244,0.06344,0.03904,0.0488,0.00976,0.00488,0.00976
-0.01464,-0.00976,0.03416,0.04148,0.0488,-0.03172,0.06344,0.0488,0.06344,0.01952,0.01464,0.00976
-0.00976,-0.0122,0.03416,0.03904,0.04392,-0.02684,0.0732,0.05368,0.06832,0.02928,0.0244,0.00976
-0.02928,0,0.02928,0.04392,0.05856,-0.04392,0.08296,0.06832,0.0732,0.05368,0.0488,0.00976
-0.0488,0.0122,0.0244,0.0488,0.0732,-0.061,0.08296,0.07808,0.08784,0.0732,0.0732,0.01464
-0.03904,0.00732,0.0244,0.04392,0.06344,-0.05124,0.09272,0.08296,0.08784,0.0488,0.03904,0.00976
-0.0244,0,0.0244,0.0366,0.0488,-0.0366,0.09272,0.08784,0.08296,0.0244,0.00976,0.00976
-0.0244,0,0.0244,0.0366,0.0488,-0.0366,0.0976,0.09272,0.08296,0.0244,0,0.00976
-0.0244,0,0.0244,0.0366,0.0488,-0.0366,0.10248,0.0976,0.07808,0.0244,-0.00976,0.00976
-0.0244,0,0.0244,0.0366,0.0488,-0.0366,0.10736,0.10248,0.08784,0.0244,0,0.00976
-0.02928,0.00244,0.0244,0.03904,0.05368,-0.04148,0.10736,0.10736,0.09272,0.02928,0.00976,0.00976
-0.02928,0.00244,0.0244,0.03904,0.05368,-0.04148,0.10248,0.11224,0.0976,0.03416,0.01464,0.01464
-0.0244,0,0.0244,0.0366,0.0488,-0.0366,0.10248,0.11712,0.10736,0.04392,0.01952,0.01952
-0.0244,-0.00244,0.02928,0.04148,0.05368,-0.03904,0.10736,0.12688,0.11224,0.0488,0.0244,0.01952
-0.01952,-0.00488,0.02928,0.03904,0.0488,-0.03416,0.11224,0.12688,0.11712,0.05368,0.0244,0.01952
-0.01952,-0.00488,0.02928,0.03904,0.0488,-0.03416,0.11224,0.122,0.122,0.05368,0.02928,0.00976
-0.01952,-0.00488,0.02928,0.03904,0.0488,-0.03416,0.11712,0.12688,0.12688,0.05368,0.03416,0
-0.01464,-0.00488,0.0244,0.03172,0.03904,-0.02684,0.11712,0.12688,0.12688,0.05368,0.03416,0
-0.01464,-0.00488,0.0244,0.03172,0.03904,-0.02684,0.11712,0.13664,0.13176,0.05856,0.03416,0
-0.01952,-0.00244,0.0244,0.03416,0.04392,-0.03172,0.122,0.15128,0.13176,0.0732,0.04392,0.00976
-0.0244,0.00244,0.01952,0.03172,0.04392,-0.03416,0.12688,0.15616,0.13664,0.08784,0.05856,0.01464
-0.0244,0.00244,0.01952,0.03172,0.04392,-0.03416,0.12688,0.16104,0.1464,0.07808,0.0488,0.01464
-0.0244,0,0.0244,0.0366,0.0488,-0.0366,0.12688,0.16592,0.1464,0.0732,0.03904,0.01464
-0.01464,-0.00488,0.0244,0.03172,0.03904,-0.02684,0.12688,0.16592,0.1464,0.05856,0.01952,0.01464
-0.00488,-0.00976,0.0244,0.02684,0.02928,-0.01708,0.12688,0.1708,0.14152,0.03904,0,0.01464
-0.00488,-0.00488,0.01464,0.01708,0.01952,-0.0122,0.13664,0.18056,0.14152,0.0488,0.01464,0.01464
-0.00488,-0.00244,0.00976,0.0122,0.01464,-0.00976,0.14152,0.18056,0.14152,0.05368,0.0244,0.01464
-0.00976,-0.00244,0.01464,0.01952,0.0244,-0.01708,0.14152,0.1952,0.15128,0.05856,0.03416,0.00976
-0.01952,0.00244,0.01464,0.0244,0.03416,-0.02684,0.14152,0.20496,0.15616,0.06832,0.04392,0.00976
-0.01952,0,0.01952,0.02928,0.03904,-0.02928,0.15128,0.20984,0.16104,0.07808,0.05368,0.01464
-0.01952,0.00244,0.01464,0.0244,0.03416,-0.02684,0.15128,0.2196,0.16592,0.08784,0.06344,0.01952
-0.01952,0.00244,0.01464,0.0244,0.03416,-0.02684,0.15616,0.22936,0.17568,0.08784,0.05368,0.01952
-0.01952,0.00244,0.01464,0.0244,0.03416,-0.02684,0.16104,0.23912,0.17568,0.08784,0.03904,0.01952
-0.00488,-0.00488,0.01464,0.01708,0.01952,-0.0122,0.16592,0.23912,0.16592,0.06832,0.00976,0.00976
0.00976,-0.0122,0.01464,0.00976,0.00488,0.00244,0.17568,0.244,0.15616,0.05368,-0.01464,0.00488
0,-0.00976,0.01952,0.01952,0.01952,-0.00976,0.17568,0.25376,0.17568,0.05368,0.00488,0.00976
-0.00488,-0.00732,0.01952,0.02196,0.0244,-0.01464,0.17568,0.2684,0.18544,0.05368,0.01952,0.00976
-0.00488,-0.00732,0.01952,0.02196,0.0244,-0.01464,0.18544,0.28304,0.1952,0.06344,0.0244,0.00488
-0.00488,-0.00488,0.01464,0.01708,0.01952,-0.0122,0.1952,0.28792,0.20008,0.06344,0.01952,-0.00488
-0.00976,0.00244,0.00488,0.00976,0.01464,-0.0122,0.20984,0.30744,0.20496,0.06344,0.01952,-0.00488
-0.00976,0.00488,0,0.00488,0.00976,-0.00976,0.22448,0.32208,0.20984,0.06344,0.01952,-0.00488
-0.00976,0.00488,0,0.00488,0.00976,-0.00976,0.23424,0.3416,0.20984,0.06832,0.0244,-0.00488
-0.00976,0.00976,-0.00976,-0.00488,0,-0.00488,0.23912,0.35136,0.2196,0.0732,0.02928,-0.00976
0,0.00244,-0.00488,-0.00488,-0.00488,0.00244,0.23912,0.36112,0.2196,0.05856,0.01952,-0.00976
0.00976,-0.00488,0,-0.00488,-0.00976,0.00976,0.244,0.37088,0.2196,0.05856,0.01952,-0.01952
0.00976,-0.00488,0,-0.00488,-0.00976,0.00976,0.24888,0.37576,0.21472,0.0488,-0.00976,-0.02928
0.00488,-0.00244,0,-0.00244,-0.00488,0.00488,0.25376,0.38552,0.20984,0.0244,-0.03904,-0.02928
-0.00488,0.00732,-0.00976,-0.00732,-0.00488,0,0.2684,0.39528,0.20984,0.0244,-0.03904,-0.02928
-0.00976,0.01952,-0.02928,-0.0244,-0.01952,0.00488,0.27328,0.40016,0.20496,0.01952,-0.0488,-0.02928
-0.00976,0.02196,-0.03416,-0.02928,-0.0244,0.00732,0.27816,0.40016,0.20008,0.00976,-0.0488,-0.03416
-0.00976,0.0244,-0.03904,-0.03416,-0.02928,0.00976,0.28304,0.40992,0.1952,0.00488,-0.05368,-0.03416
-0.00976,0.0244,-0.03904,-0.03416,-0.02928,0.00976,0.28304,0.4148,0.1952,-0.00976,-0.05856,-0.04392
-0.00976,0.0244,-0.03904,-0.03416,-0.02928,0.00976,0.28304,0.40992,0.18056,-0.00976,-0.05856,-0.04392
-0.03416,0.03904,-0.04392,-0.02684,-0.00976,-0.0122,0.27816,0.40016,0.1708,-0.01464,-0.0488,-0.03904
-0.0488,0.0488,-0.0488,-0.0244,0,-0.0244,0.27816,0.3904,0.16592,-0.0244,-0.04392,-0.03904
-0.0488,0.05124,-0.05368,-0.02928,-0.00488,-0.02196,0.2684,0.37576,0.15616,-0.03904,-0.06832,-0.05368
-0.0488,0.05368,-0.05856,-0.03416,-0.00976,-0.01952,0.25864,0.35624,0.14152,-0.0488,-0.08296,-0.06344
-0.05368,0.05612,-0.05856,-0.03172,-0.00488,-0.0244,0.244,0.32696,0.12688,-0.06344,-0.09272,-0.06344
-0.05368,0.05612,-0.05856,-0.03172,-0.00488,-0.0244,0.22936,0.30256,0.11712,-0.0732,-0.10248,-0.06344
-0.0488,0.05124,-0.05368,-0.02928,-0.00488,-0.02196,0.2196,0.27816,0.10736,-0.0732,-0.10248,-0.05368
-0.0488,0.04636,-0.04392,-0.01952,0.00488,-0.02684,0.20008,0.25376,0.0976,-0.0732,-0.0976,-0.0488
-0.03904,0.03416,-0.02928,-0.00976,0.00976,-0.0244,0.17568,0.22448,0.08784,-0.06832,-0.09272,-0.03904
-0.02928,0.02196,-0.01464,0,0.01464,-0.02196,0.15128,0.18544,0.07808,-0.05856,-0.08296,-0.0244
-0.01952,0.0122,-0.00488,0.00488,0.01464,-0.01708,0.13176,0.15616,0.06832,-0.03416,-0.0488,-0.0244
-0.01464,0.00732,0,0.00732,0.01464,-0.01464,0.11712,0.12688,0.05856,-0.01952,-0.02928,-0.01952
-0.01464,0.00732,0,0.00732,0.01464,-0.01464,0.0976,0.10248,0.05368,0,0,-0.00976
-0.01952,0.00732,0.00488,0.01464,0.0244,-0.02196,0.0732,0.0732,0.05368,0.01464,0.01464,0
-0.01952,0.00244,0.01464,0.0244,0.03416,-0.02684,0.05856,0.05368,0.03904,0.00488,0,0
-0.01952,0,0.01952,0.02928,0.03904,-0.02928,0.04392,0.02928,0.02928,-0.00488,-0.01464,0.00488
-0.01464,-0.00244,0.01952,0.02684,0.03416,-0.0244,0.02928,0.00976,0.01464,-0.01952,-0.02928,0.00488
-0.00976,-0.00244,0.01464,0.01952,0.0244,-0.01708,0.01464,-0.00976,0,-0.03416,-0.03416,0.00488
-0.00976,0.00244,0.00488,0.00976,0.01464,-0.0122,0.01464,-0.01952,0,-0.01952,-0.0244,0
-0.01464,0.00488,0.00488,0.0122,0.01952,-0.01708,0.01464,-0.02928,-0.00976,-0.00976,-0.0244,0
-0.01464,0.00488,0.00488,0.0122,0.01952,-0.01708,0.00976,-0.03904,-0.01952,-0.01464,-0.01952,0
-0.01952,0.00732,0.00488,0.01464,0.0244,-0.02196,0.00488,-0.0488,-0.02928,-0.01464,-0.01464,0.00488
-0.01952,0.00732,0.00488,0.01464,0.0244,-0.02196,0.00488,-0.0488,-0.02928,-0.01464,-0.01464,0.00488
-0.01952,0.00732,0.00488,0.01464,0.0244,-0.02196,0.00488,-0.05368,-0.02928,-0.01464,-0.01464,0.00488
-0.01952,0.00732,0.00488,0.01464,0.0244,-0.02196,0.00488,-0.05368,-0.03416,-0.00488,-0.00488,0.00488
-0.01952,0.00732,0.00488,0.01464,0.0244,-0.02196,0.00488,-0.05368,-0.03416,0,0,0.00488
-0.02928,0.01464,0,0.01464,0.02928,-0.02928,0,-0.05368,-0.03416,0,0,0.00488
-0.04392,0.02196,0,0.02196,0.04392,-0.04392,-0.00488,-0.05368,-0.03416,0,0,0
-0.0488,0.02684,-0.00488,0.01952,0.04392,-0.04636,0,-0.05368,-0.03904,-0.01464,-0.01464,-0.00488
-0.0488,0.02928,-0.00976,0.01464,0.03904,-0.04392,0,-0.05368,-0.04392,-0.02928,-0.0244,-0.00488
-0.04392,0.02928,-0.01464,0.00732,0.02928,-0.0366,-0.00488,-0.05368,-0.0488,-0.02928,-0.02928,-0.00488
-0.03904,0.02928,-0.01952,0,0.01952,-0.02928,-0.00488,-0.05368,-0.05368,-0.02928,-0.04392,-0.00488
-0.03904,0.02928,-0.01952,0,0.01952,-0.02928,-0.00488,-0.05368,-0.05368,-0.03416,-0.04392,-0.00488
-0.03904,0.02928,-0.01952,0,0.01952,-0.02928,-0.00488,-0.05368,-0.0488,-0.03416,-0.04392,-0.00488
-0.04392,0.03172,-0.01952,0.00244,0.0244,-0.03416,0,-0.0488,-0.04392,-0.02928,-0.02928,0
-0.04392,0.03172,-0.01952,0.00244,0.0244,-0.03416,0.00488,-0.04392,-0.03904,-0.0244,-0.01464,0
-0.03416,0.0244,-0.01464,0.00244,0.01952,-0.02684,0.00488,-0.04392,-0.03416,-0.01952,-0.00488,-0.00488
-0.02928,0.01952,-0.00976,0.00488,0.01952,-0.0244,0.00488,-0.04392,-0.02928,-0.01952,0,-0.01464
-0.02928,0.01708,-0.00488,0.00976,0.0244,-0.02684,0,-0.03904,-0.03416,-0.01952,-0.01464,-0.01464
-0.02928,0.01708,-0.00488,0.00976,0.0244,-0.02684,0,-0.03416,-0.03416,-0.01952,-0.0244,-0.01464
-0.03416,0.01952,-0.00488,0.0122,0.02928,-0.03172,0,-0.03416,-0.03416,-0.0244,-0.02928,-0.00488
-0.03904,0.02196,-0.00488,0.01464,0.03416,-0.0366,0,-0.03416,-0.02928,-0.0244,-0.02928,0
-0.04392,0.0244,-0.00488,0.01708,0.03904,-0.04148,0.00488,-0.02928,-0.0244,-0.0244,-0.0244,-0.00488
-0.04392,0.0244,-0.00488,0.01708,0.03904,-0.04148,0.00488,-0.02928,-0.0244,-0.0244,-0.0244,-0.00488
-0.04392,0.0244,-0.00488,0.01708,0.03904,-0.04148,0,-0.02928,-0.0244,-0.0244,-0.0244,-0.00488
-0.0488,0.0244,0,0.0244,0.0488,-0.0488,0,-0.02928,-0.01952,-0.01952,-0.01952,-0.00976
-0.0488,0.0244,0,0.0244,0.0488,-0.0488,0.00976,-0.0244,-0.01952,-0.01952,-0.01952,-0.00976
-0.04392,0.0244,-0.00488,0.01708,0.03904,-0.04148,0.01464,-0.0244,-0.01952,-0.0244,-0.0244,-0.00976
-0.04392,0.0244,-0.00488,0.01708,0.03904,-0.04148,0.01464,-0.02928,-0.01952,-0.0244,-0.01952,-0.01464
-0.04392,0.0244,-0.00488,0.01708,0.03904,-0.04148,0.01464,-0.02928,-0.01952,-0.01952,-0.00976,-0.01464
-0.04392,0.02196,0,0.02196,0.04392,-0.04392,0.01464,-0.02928,-0.01464,0,0,-0.01464
-0.04392,0.02196,0,0.02196,0.04392,-0.04392,0.01464,-0.0244,-0.00488,0.01464,0.01464,-0.00976
-0.04392,0.01952,0.00488,0.02684,0.0488,-0.04636,0.01464,-0.0244,-0.00488,0.00976,0.00976,-0.00488
-0.05368,0.02196,0.00976,0.0366,0.06344,-0.05856,0.01464,-0.02928,-0.00488,0,0,-0.00488
-0.0488,0.02196,0.00488,0.02928,0.05368,-0.05124,0.01464,-0.03416,-0.0244,-0.03416,-0.03904,-0.00488
-0.04392,0.01952,0.00488,0.02684,0.0488,-0.04636,0.01464,-0.03904,-0.04392,-0.06344,-0.0732,-0.00488
-0.03904,0.01708,0.00488,0.0244,0.04392,-0.04148,0.01464,-0.0488,-0.04392,-0.06344,-0.06344,-0.00488
-0.03416,0.01708,0,0.01708,0.03416,-0.03416,0.00976,-0.0488,-0.04392,-0.05368,-0.05368,-0.00488
-0.03416,0.01708,0,0.01708,0.03416,-0.03416,0.00976,-0.04392,-0.03904,-0.04392,-0.04392,-0.00976
-0.03904,0.01952,0,0.01952,0.03904,-0.03904,0.00488,-0.04392,-0.04392,-0.03416,-0.03416,-0.00976
-0.03904,0.01952,0,0.01952,0.03904,-0.03904,0.00488,-0.04392,-0.04392,-0.03416,-0.02928,-0.00976
-0.04392,0.02196,0,0.02196,0.04392,-0.04392,0.00488,-0.0488,-0.0488,-0.03904,-0.03416,-0.00976
-0.04392,0.02196,0,0.02196,0.04392,-0.04392,0,-0.0488,-0.04392,-0.03416,-0.01952,-0.00488
-0.0488,0.0244,0,0.0244,0.0488,-0.0488,0,-0.0488,-0.03904,-0.0244,-0.00488,-0.00488
-0.0488,0.02684,-0.00488,0.01952,0.04392,-0.04636,0,-0.0488,-0.04392,-0.0244,-0.01952,-0.00976
-0.0488,0.02928,-0.00976,0.01464,0.03904,-0.04392,-0.00488,-0.0488,-0.04392,-0.0244,-0.02928,-0.01464
-0.0488,0.02928,-0.00976,0.01464,0.03904,-0.04392,-0.00976,-0.05856,-0.0488,-0.04392,-0.04392,-0.01464
-0.0488,0.02928,-0.00976,0.01464,0.03904,-0.04392,-0.01464,-0.06344,-0.05368,-0.05368,-0.06344,-0.00976
-0.0488,0.02928,-0.00976,0.01464,0.03904,-0.04392,-0.01464,-0.06344,-0.05368,-0.05368,-0.06344,-0.00488
-0.04392,0.02684,-0.00976,0.0122,0.03416,-0.03904,-0.01464,-0.06344,-0.05368,-0.05368,-0.05856,-0.00488
-0.03904,0.0244,-0.00976,0.00976,0.02928,-0.03416,-0.01464,-0.06344,-0.05368,-0.0488,-0.0488,-0.00976
-0.03416,0.01952,-0.00488,0.0122,0.02928,-0.03172,-0.01464,-0.06344,-0.05856,-0.0488,-0.03904,-0.00976
-0.03416,0.01464,0.00488,0.02196,0.03904,-0.0366,-0.0244,-0.06832,-0.05856,-0.0488,-0.03904,-0.00976
-0.03416,0.0122,0.00976,0.02684,0.04392,-0.03904,-0.0244,-0.06832,-0.05856,-0.04392,-0.03904,-0.00976
-0.04392,0.02196,0,0.02196,0.04392,-0.04392,-0.01464,-0.06344,-0.0488,-0.03416,-0.0244,-0.00976
-0.0488,0.03416,-0.01952,0.00488,0.02928,-0.03904,-0.00976,-0.05368,-0.04392,-0.0244,-0.01464,-0.00976
-0.05368,0.0366,-0.01952,0.00732,0.03416,-0.04392,-0.00976,-0.05368,-0.04392,-0.0244,-0.01952,-0.01952
-0.05368,0.03416,-0.01464,0.0122,0.03904,-0.04636,-0.01464,-0.05856,-0.05368,-0.02928,-0.01952,-0.01952
-0.05368,0.03172,-0.00976,0.01708,0.04392,-0.0488,-0.0244,-0.06832,-0.06344,-0.05368,-0.0488,-0.01952
-0.0488,0.02928,-0.00976,0.01464,0.03904,-0.04392,-0.03416,-0.0732,-0.0732,-0.0732,-0.07808,-0.0244
-0.04392,0.02928,-0.01464,0.00732,0.02928,-0.0366,-0.03416,-0.07808,-0.0732,-0.0732,-0.05856,-0.0244
-0.04392,0.02928,-0.01464,0.00732,0.02928,-0.0366,-0.02928,-0.07808,-0.0732,-0.0732,-0.05856,-0.0244
-0.05368,0.03416,-0.01464,0.0122,0.03904,-0.04636,-0.02928,-0.07808,-0.06832,-0.05856,-0.0488,-0.0244
-0.05368,0.03172,-0.00976,0.01708,0.04392,-0.0488,-0.02928,-0.07808,-0.06344,-0.0488,-0.04392,-0.0244
-0.05368,0.03416,-0.01464,0.0122,0.03904,-0.04636,-0.02928,-0.07808,-0.06344,-0.04392,-0.0488,-0.0244
-0.05368,0.0366,-0.01952,0.00732,0.03416,-0.04392,-0.02928,-0.07808,-0.06832,-0.04392,-0.0488,-0.0244
-0.03416,0.02684,-0.01952,-0.00244,0.01464,-0.0244,-0.02928,-0.07808,-0.06832,-0.04392,-0.03416,-0.0244
-0.0244,0.02196,-0.01952,-0.00732,0.00488,-0.01464,-0.02928,-0.07808,-0.06832,-0.04392,-0.0244,-0.0244
-0.04392,0.03172,-0.01952,0.00244,0.0244,-0.03416,-0.0244,-0.0732,-0.06832,-0.03904,-0.00976,-0.01464
-0.06832,0.04392,-0.01952,0.01464,0.0488,-0.05856,-0.01952,-0.06344,-0.06344,-0.03904,0,-0.00488
-0.06832,0.0488,-0.02928,0.00488,0.03904,-0.05368,-0.01952,-0.06344,-0.06344,-0.04392,-0.0244,-0.00488
-0.06832,0.0488,-0.02928,0.00488,0.03904,-0.05368,-0.01952,-0.06344,-0.06344,-0.05368,-0.04392,-0.00488
-0.06344,0.04636,-0.02928,0.00244,0.03416,-0.0488,-0.0244,-0.0732,-0.06344,-0.06344,-0.05368,-0.00976
-0.05368,0.04148,-0.02928,-0.00244,0.0244,-0.03904,-0.02928,-0.07808,-0.06344,-0.0732,-0.06344,-0.01464
-0.05368,0.05124,-0.0488,-0.02196,0.00488,-0.02928,-0.02928,-0.07808,-0.06344,-0.06344,-0.05856,-0.01952
-0.0488,0.05124,-0.05368,-0.02928,-0.00488,-0.02196,-0.02928,-0.0732,-0.06832,-0.05368,-0.03904,-0.01952
-0.05368,0.04392,-0.03416,-0.00732,0.01952,-0.0366,-0.02928,-0.0732,-0.06832,-0.05368,-0.03904,-0.01464
-0.05856,0.04636,-0.03416,-0.00488,0.0244,-0.04148,-0.0244,-0.0732,-0.06832,-0.05368,-0.03904,-0.01464
-0.05856,0.04636,-0.03416,-0.00488,0.0244,-0.04148,-0.0244,-0.06832,-0.06344,-0.05368,-0.03416,-0.00976
-0.05856,0.04392,-0.02928,0,0.02928,-0.04392,-0.0244,-0.06832,-0.05856,-0.03904,-0.02928,-0.00976
-0.05856,0.04636,-0.03416,-0.00488,0.0244,-0.04148,-0.02928,-0.0732,-0.05856,-0.03904,-0.03416,-0.00976
-0.05856,0.0488,-0.03904,-0.00976,0.01952,-0.03904,-0.03416,-0.07808,-0.06344,-0.03904,-0.04392,-0.01464
-0.0488,0.04392,-0.03904,-0.01464,0.00976,-0.02928,-0.03416,-0.07808,-0.0732,-0.0488,-0.05368,-0.01952
-0.0488,0.04392,-0.03904,-0.01464,0.00976,-0.02928,-0.03416,-0.07808,-0.0732,-0.05856,-0.05856,-0.02928
-0.0488,0.04392,-0.03904,-0.01464,0.00976,-0.02928,-0.0244,-0.06832,-0.06344,-0.0488,-0.0488,-0.02928
-0.05368,0.04636,-0.03904,-0.0122,0.01464,-0.03416,-0.01464,-0.05856,-0.05856,-0.03904,-0.04392,-0.02928
-0.04392,0.03904,-0.03416,-0.0122,0.00976,-0.02684,0,-0.0488,-0.0488,-0.03416,-0.02928,-0.0244
-0.03904,0.03416,-0.02928,-0.00976,0.00976,-0.0244,0.00976,-0.03904,-0.03904,-0.02928,-0.01952,-0.01952
-0.03416,0.03172,-0.02928,-0.0122,0.00488,-0.01952,0.00976,-0.02928,-0.03416,-0.01952,-0.01952,-0.01952
-0.02928,0.02928,-0.02928,-0.01464,0,-0.01464,0.00976,-0.01952,-0.02928,-0.00976,-0.01952,-0.01952
-0.02928,0.02928,-0.02928,-0.01464,0,-0.01464,0.01464,-0.01464,-0.02928,-0.01464,-0.0244,-0.01952
-0.02928,0.02928,-0.02928,-0.01464,0,-0.01464,0.0244,-0.00976,-0.02928,-0.01952,-0.0244,-0.01464
-0.02928,0.02928,-0.02928,-0.01464,0,-0.01464,0.03416,-0.00488,-0.02928,-0.0244,-0.02928,-0.01464
-0.0244,0.02684,-0.02928,-0.01708,-0.00488,-0.00976,0.0244,-0.01952,-0.03416,-0.03416,-0.0488,-0.01464
-0.01952,0.0244,-0.02928,-0.01952,-0.00976,-0.00488,0.00488,-0.03416,-0.0488,-0.04392,-0.05368,-0.01464
-0.01952,0.02196,-0.0244,-0.01464,-0.00488,-0.00732,-0.01464,-0.0488,-0.06344,-0.04392,-0.05368,-0.01464
-0.01464,0.01952,-0.0244,-0.01708,-0.00976,-0.00244,-0.0244,-0.05856,-0.06832,-0.03904,-0.0488,-0.01464
-0.01464,0.02196,-0.02928,-0.02196,-0.01464,0,-0.03904,-0.0732,-0.06832,-0.03416,-0.03904,-0.01952
-0.02928,0.03172,-0.03416,-0.01952,-0.00488,-0.0122,-0.05856,-0.0732,-0.06832,-0.03416,-0.0244,-0.01952
-0.03416,0.0366,-0.03904,-0.02196,-0.00488,-0.01464,-0.05856,-0.06344,-0.06832,-0.02928,-0.00976,-0.01952
-0.0244,0.03172,-0.03904,-0.02684,-0.01464,-0.00488,-0.05856,-0.06344,-0.06832,-0.02928,-0.01952,-0.01952
-0.01952,0.02684,-0.03416,-0.0244,-0.01464,-0.00244,-0.05368,-0.06344,-0.06832,-0.03416,-0.03416,-0.01952
-0.00976,0.01952,-0.02928,-0.0244,-0.01952,0.00488,-0.05368,-0.06832,-0.06832,-0.04392,-0.05368,-0.01464
-0.01952,0.0244,-0.02928,-0.01952,-0.00976,-0.00488,-0.05368,-0.0732,-0.0732,-0.06344,-0.0732,-0.00976
-0.01464,0.0244,-0.03416,-0.02684,-0.01952,0.00244,-0.06344,-0.08784,-0.08296,-0.06832,-0.06344,-0.00976
-0.01464,0.02196,-0.02928,-0.02196,-0.01464,0,-0.06344,-0.08784,-0.08296,-0.06832,-0.05368,-0.01464
-0.01952,0.02196,-0.0244,-0.01464,-0.00488,-0.00732,-0.05856,-0.08296,-0.07808,-0.05856,-0.0488,-0.0244
-0.0244,0.01952,-0.01464,-0.00244,0.00976,-0.01708,-0.05368,-0.07808,-0.06832,-0.04392,-0.04392,-0.02928
-0.0244,0.01952,-0.01464,-0.00244,0.00976,-0.01708,-0.0488,-0.0732,-0.06832,-0.03416,-0.02928,-0.02928
-0.02928,0.02196,-0.01464,0,0.01464,-0.02196,-0.04392,-0.0732,-0.06832,-0.02928,-0.01952,-0.02928
-0.04392,0.02928,-0.01464,0.00732,0.02928,-0.0366,-0.04392,-0.08296,-0.0732,-0.03416,-0.00976,-0.02928
-0.04392,0.03416,-0.0244,-0.00244,0.01952,-0.03172,-0.0488,-0.09272,-0.07808,-0.03904,-0.00976,-0.02928
-0.04392,0.03416,-0.0244,-0.00244,0.01952,-0.03172,-0.0488,-0.09272,-0.08784,-0.06344,-0.04392,-0.03904
-0.04392,0.03416,-0.0244,-0.00244,0.01952,-0.03172,-0.05368,-0.09272,-0.0976,-0.08296,-0.07808,-0.03904
-0.0488,0.0366,-0.0244,0,0.0244,-0.0366,-0.0488,-0.09272,-0.0976,-0.08296,-0.08296,-0.03904
-0.0488,0.03904,-0.02928,-0.00488,0.01952,-0.03416,-0.04392,-0.09272,-0.0976,-0.08296,-0.08296,-0.03904
-0.04392,0.03904,-0.03416,-0.0122,0.00976,-0.02684,-0.04392,-0.08784,-0.08784,-0.07808,-0.0732,-0.03904
-0.04392,0.04148,-0.03904,-0.01708,0.00488,-0.0244,-0.04392,-0.08784,-0.08296,-0.06832,-0.05856,-0.03904
-0.03904,0.03904,-0.03904,-0.01952,0,-0.01952,-0.04392,-0.08784,-0.07808,-0.06344,-0.05368,-0.03904
-0.03416,0.0366,-0.03904,-0.02196,-0.00488,-0.01464,-0.03904,-0.08296,-0.07808,-0.06344,-0.05368,-0.03904
-0.03416,0.03172,-0.02928,-0.0122,0.00488,-0.01952,-0.03904,-0.08296,-0.07808,-0.06344,-0.05856,-0.03904
-0.03416,0.02928,-0.0244,-0.00732,0.00976,-0.02196,-0.03416,-0.08296,-0.08296,-0.06344,-0.05856,-0.03904
-0.03904,0.03172,-0.0244,-0.00488,0.01464,-0.02684,-0.03904,-0.08296,-0.07808,-0.06344,-0.05856,-0.03904
-0.03904,0.02928,-0.01952,0,0.01952,-0.02928,-0.04392,-0.08296,-0.0732,-0.06344,-0.05856,-0.03904
-0.03904,0.03172,-0.0244,-0.00488,0.01464,-0.02684,-0.03904,-0.07808,-0.0732,-0.05856,-0.05368,-0.03904
-0.03904,0.03172,-0.0244,-0.00488,0.01464,-0.02684,-0.03904,-0.07808,-0.0732,-0.05368,-0.0488,-0.03416
-0.03904,0.02928,-0.01952,0,0.01952,-0.02928,-0.03904,-0.07808,-0.06832,-0.05368,-0.04392,-0.03416
-0.03904,0.02928,-0.01952,0,0.01952,-0.02928,-0.03904,-0.07808,-0.06832,-0.0488,-0.03904,-0.03416
-0.04392,0.03172,-0.01952,0.00244,0.0244,-0.03416,-0.03416,-0.07808,-0.0732,-0.05856,-0.05368,-0.02928
-0.05368,0.03416,-0.01464,0.0122,0.03904,-0.04636,-0.01952,-0.06832,-0.0732,-0.0732,-0.06832,-0.02928
-0.06344,0.03416,-0.00488,0.02684,0.05856,-0.061,0.00976,-0.0488,-0.03904,-0.05368,-0.05368,-0.02928
-0.0732,0.02928,0.01464,0.05124,0.08784,-0.08052,0.05368,-0.00976,0.02928,-0.0244,-0.04392,-0.0244
-0.0732,0.00732,0.05856,0.09516,0.13176,-0.10248,0.08784,0.05368,0.10736,0.05368,0.00488,0.00488
-0.03904,-0.02928,0.0976,0.11712,0.13664,-0.08784,0.13664,0.1464,0.26352,0.20984,0.11712,0.05856
0.0488,-0.09272,0.13664,0.11224,0.08784,-0.01952,0.11224,0.17568,0.4148,0.39528,0.2684,0.122
0.1952,-0.20008,0.20496,0.10736,0.00976,0.09272,-0.03416,0.1464,0.53192,0.61488,0.44896,0.21472
0.4148,-0.37576,0.33672,0.12932,-0.07808,0.24644,-0.28792,0.13176,0.72712,0.9516,0.73688,0.37088
0.61976,-0.56364,0.50752,0.19764,-0.11224,0.366,-0.64904,0.01952,0.84912,1.21512,0.98576,0.5368
0.72712,-0.66612,0.60512,0.24156,-0.122,0.42456,-1.0736,-0.37576,0.63928,1.1712,1.02968,0.64904
0.7076,-0.62464,0.54168,0.18788,-0.16592,0.43676,-1.30784,-0.79056,0.17568,0.78568,0.81008,0.61
0.54168,-0.3782,0.21472,-0.05612,-0.32696,0.43432,-1.33712,-1.23952,-0.44896,0.13176,0.3172,0.36112
0.30256,-0.19276,0.08296,-0.06832,-0.2196,0.26108,-1.43472,-1.6592,-1.05408,-0.3904,-0.04392,0.20984
0.1708,-0.06588,-0.03904,-0.12444,-0.20984,0.19032,-1.3176,-1.50792,-1.098,-0.50752,-0.18056,0.09272
0.1464,-0.02928,-0.08784,-0.16104,-0.23424,0.19032,-1.11264,-1.24928,-0.94184,-0.47336,-0.20496,0.0244
0.0976,-0.0122,-0.0732,-0.122,-0.1708,0.1342,-0.89792,-0.98576,-0.77592,-0.41968,-0.20984,-0.01952
0.03416,-0.01952,0.00488,-0.0122,-0.02928,0.03172,-0.60024,-0.6588,-0.488,-0.24888,-0.11224,0.00488
0.01464,-0.01708,0.01952,0.0122,0.00488,0.00488,-0.366,-0.40016,-0.27328,-0.14152,-0.05856,0.01464
0,-0.00244,0.00488,0.00488,0.00488,-0.00244,-0.1952,-0.20984,-0.15616,-0.08784,-0.03416,0.01464
-0.00488,0.00244,0,0.00244,0.00488,-0.00488,-0.0976,-0.11712,-0.08296,-0.03904,-0.01464,0.01464
-0.01464,0.00976,-0.00488,0.00244,0.00976,-0.0122,-0.02928,-0.05368,-0.03416,-0.01464,-0.00488,0
-0.02928,0.01708,-0.00488,0.00976,0.0244,-0.02684,0,-0.01464,-0.00488,-0.00488,0.00488,-0.00976
-0.04392,0.0244,-0.00488,0.01708,0.03904,-0.04148,0.00976,0.00488,0.00488,-0.00488,0.01464,-0.00976
-0.04392,0.0244,-0.00488,0.01708,0.03904,-0.04148,0.01952,0.00976,0.00488,-0.00488,0,-0.01464
-0.03416,0.0244,-0.01464,0.00244,0.01952,-0.02684,0.03416,0.0244,0.00488,-0.00976,-0.01952,-0.0244
-0.03416,0.02684,-0.01952,-0.00244,0.01464,-0.0244,0.04392,0.03904,0.00976,-0.01952,-0.04392,-0.02928
-0.04392,0.03172,-0.01952,0.00244,0.0244,-0.03416,0.05368,0.0488,0.01952,-0.02928,-0.05368,-0.02928
-0.04392,0.0244,-0.00488,0.01708,0.03904,-0.04148,0.05368,0.05856,0.02928,-0.01952,-0.04392,-0.02928
-0.03904,0.02196,-0.00488,0.01464,0.03416,-0.0366,0.06344,0.06344,0.02928,-0.00976,-0.03416,-0.02928
-0.03904,0.01952,0,0.01952,0.03904,-0.03904,0.0732,0.0732,0.03416,0.00488,-0.01952,-0.02928
-0.03904,0.01708,0.00488,0.0244,0.04392,-0.04148,0.0732,0.07808,0.0488,0.01464,-0.00488,-0.0244
-0.03416,0.01464,0.00488,0.02196,0.03904,-0.0366,0.08784,0.08296,0.05368,0.01464,-0.00976,-0.0244
-0.0244,0.00976,0.00488,0.01708,0.02928,-0.02684,0.09272,0.08784,0.05368,0.01464,-0.00976,-0.01952
-0.0244,0.00976,0.00488,0.01708,0.02928,-0.02684,0.0976,0.0976,0.06832,0.01952,-0.00488,-0.01952
-0.0244,0.00976,0.00488,0.01708,0.02928,-0.02684,0.10248,0.10736,0.07808,0.0244,0,-0.01952
-0.0244,0.00732,0.00976,0.02196,0.03416,-0.02928,0.10736,0.11224,0.08784,0.03416,0.01464,-0.01952
-0.02928,0.00732,0.01464,0.02928,0.04392,-0.0366,0.10736,0.11712,0.09272,0.0488,0.02928,-0.01952
-0.0244,0.00488,0.01464,0.02684,0.03904,-0.03172,0.10248,0.122,0.09272,0.0488,0.03416,-0.01952
-0.01464,0,0.01464,0.02196,0.02928,-0.02196,0.10248,0.12688,0.0976,0.05368,0.03904,-0.01952
-0.01464,-0.00244,0.01952,0.02684,0.03416,-0.0244,0.10736,0.13664,0.09272,0.03904,0.01464,-0.01952
-0.00976,-0.00488,0.01952,0.0244,0.02928,-0.01952,0.11224,0.13664,0.08784,0.0244,-0.01464,-0.01952
-0.01464,0.00244,0.00976,0.01708,0.0244,-0.01952,0.11224,0.13664,0.09272,0.0244,-0.01464,-0.01464
-0.01952,0.00976,0,0.00976,0.01952,-0.01952,0.11712,0.1464,0.0976,0.0244,-0.01464,-0.00976
-0.01464,0.00732,0,0.00732,0.01464,-0.01464,0.11712,0.1464,0.10248,0.02928,-0.00488,-0.00976
-0.01464,0.00488,0.00488,0.0122,0.01952,-0.01708,0.11712,0.15616,0.11224,0.03904,0.00488,-0.00976
-0.01464,0.00244,0.00976,0.01708,0.0244,-0.01952,0.122,0.16592,0.11224,0.03904,0.00488,-0.00976
-0.01464,0.00244,0.00976,0.01708,0.0244,-0.01952,0.12688,0.16592,0.11712,0.03904,0.00976,-0.01464
-0.01464,0.00488,0.00488,0.0122,0.01952,-0.01708,0.13176,0.1708,0.12688,0.0488,0.01464,-0.01464
-0.01464,0.00488,0.00488,0.0122,0.01952,-0.01708,0.13664,0.17568,0.12688,0.06344,0.01952,-0.01464
-0.01464,0.00488,0.00488,0.0122,0.01952,-0.01708,0.13664,0.18056,0.13664,0.0732,0.02928,-0.01464
-0.01464,0.00488,0.00488,0.0122,0.01952,-0.01708,0.13664,0.19032,0.14152,0.07808,0.03904,-0.01464
-0.01464,0.00732,0,0.00732,0.01464,-0.01464,0.14152,0.20008,0.14152,0.08784,0.03904,-0.01464
-0.01464,0.00732,0,0.00732,0.01464,-0.01464,0.14152,0.20008,0.14152,0.09272,0.03416,-0.01464
-0.00976,0.00244,0.00488,0.00976,0.01464,-0.0122,0.14152,0.20984,0.14152,0.06344,0.00976,-0.01952
-0.00976,0.00244,0.00488,0.00976,0.01464,-0.0122,0.14152,0.21472,0.13664,0.03904,-0.01464,-0.01952
-0.00976,0.00244,0.00488,0.00976,0.01464,-0.0122,0.15128,0.2196,0.14152,0.03904,-0.01464,-0.01952
-0.00976,0.00732,-0.00488,0,0.00488,-0.00732,0.15128,0.22936,0.1464,0.03904,-0.01464,-0.01952
-0.00976,0.00976,-0.00976,-0.00488,0,-0.00488,0.15616,0.23912,0.15616,0.0488,0,-0.01952
-0.00976,0.0122,-0.01464,-0.00976,-0.00488,-0.00244,0.16104,0.24888,0.15616,0.05856,0.00976,-0.01952
-0.00976,0.0122,-0.01464,-0.00976,-0.00488,-0.00244,0.1708,0.25864,0.16104,0.05856,0.00976,-0.0244
-0.00976,0.0122,-0.01464,-0.00976,-0.00488,-0.00244,0.18544,0.27328,0.16592,0.06344,0.01464,-0.0244
-0.00976,0.0122,-0.01464,-0.00976,-0.00488,-0.00244,0.18544,0.28304,0.18056,0.06832,0.0244,-0.01952
-0.00488,0.0122,-0.01952,-0.01708,-0.01464,0.00488,0.18544,0.29768,0.18544,0.0732,0.02928,-0.01952
-0.00488,0.0122,-0.01952,-0.01708,-0.01464,0.00488,0.19032,0.3172,0.19032,0.0732,0.0244,-0.0244
-0.00488,0.01464,-0.0244,-0.02196,-0.01952,0.00732,0.1952,0.32696,0.19032,0.06344,0.00976,-0.03416
0,0.01464,-0.02928,-0.02928,-0.02928,0.01464,0.20496,0.3416,0.1952,0.06344,0.00488,-0.03416
0.00976,0.00976,-0.02928,-0.03416,-0.03904,0.0244,0.21472,0.35136,0.20008,0.06344,0,-0.03416
0.00976,0.00976,-0.02928,-0.03416,-0.03904,0.0244,0.22448,0.37088,0.20008,0.06344,0,-0.03416
0.00976,0.01464,-0.03904,-0.04392,-0.0488,0.02928,0.22936,0.38064,0.20984,0.06344,0,-0.03904
0.00488,0.01952,-0.04392,-0.04636,-0.0488,0.02684,0.22936,0.3904,0.20984,0.0488,-0.00976,-0.03904
0,0.0244,-0.0488,-0.0488,-0.0488,0.0244,0.23424,0.40016,0.20984,0.0488,-0.00976,-0.0488
0,0.0244,-0.0488,-0.0488,-0.0488,0.0244,0.244,0.4148,0.21472,0.05856,-0.00488,-0.05368
-0.00488,0.02684,-0.0488,-0.04636,-0.04392,0.01952,0.25376,0.43432,0.2196,0.05368,0,-0.0488
-0.00488,0.02196,-0.03904,-0.0366,-0.03416,0.01464,0.26352,0.44408,0.2196,0.05368,0,-0.0488
0,0.01952,-0.03904,-0.03904,-0.03904,0.01952,0.26352,0.44896,0.21472,0.0488,-0.00976,-0.0488
0.00488,0.01708,-0.03904,-0.04148,-0.04392,0.0244,0.2684,0.44896,0.20984,0.02928,-0.03416,-0.05856
0.00976,0.01464,-0.03904,-0.04392,-0.0488,0.02928,0.27328,0.45872,0.20496,0.01464,-0.06344,-0.06344
0.00976,0.01708,-0.04392,-0.0488,-0.05368,0.03172,0.27328,0.4636,0.20496,-0.01464,-0.07808,-0.0732
0.00976,0.01952,-0.0488,-0.05368,-0.05856,0.03416,0.27328,0.45872,0.19032,-0.02928,-0.08784,-0.0732
0,0.02684,-0.05368,-0.05368,-0.05368,0.02684,0.27328,0.45384,0.18056,-0.0244,-0.07808,-0.06832
0,0.02928,-0.05856,-0.05856,-0.05856,0.02928,0.27816,0.44896,0.17568,-0.0244,-0.0732,-0.06832
0,0.02928,-0.05856,-0.05856,-0.05856,0.02928,0.2684,0.43432,0.1708,-0.03416,-0.08296,-0.0732
0,0.02928,-0.05856,-0.05856,-0.05856,0.02928,0.25864,0.4148,0.16104,-0.03904,-0.08296,-0.0732
-0.00488,0.02684,-0.0488,-0.04636,-0.04392,0.01952,0.244,0.38552,0.1464,-0.04392,-0.08296,-0.0732
-0.00488,0.02196,-0.03904,-0.0366,-0.03416,0.01464,0.22936,0.36112,0.13664,-0.04392,-0.08296,-0.0732
0,0.01708,-0.03416,-0.03416,-0.03416,0.01708,0.2196,0.33184,0.13176,-0.02928,-0.06344,-0.06344
0,0.0122,-0.0244,-0.0244,-0.0244,0.0122,0.20008,0.30256,0.12688,-0.01464,-0.03904,-0.05856
-0.00976,0.01952,-0.02928,-0.0244,-0.01952,0.00488,0.18056,0.2684,0.11712,-0.00976,-0.03416,-0.0488
-0.01952,0.02684,-0.03416,-0.0244,-0.01464,-0.00244,0.16104,0.22448,0.10736,0,-0.0244,-0.03416
-0.01464,0.02196,-0.02928,-0.02196,-0.01464,0,0.14152,0.18544,0.08784,-0.00976,-0.03904,-0.03416
-0.01464,0.02196,-0.02928,-0.02196,-0.01464,0,0.12688,0.1464,0.06832,-0.02928,-0.06832,-0.02928
-0.00976,0.01952,-0.02928,-0.0244,-0.01952,0.00488,0.10736,0.11712,0.05856,-0.0244,-0.05368,-0.02928
-0.00976,0.01708,-0.0244,-0.01952,-0.01464,0.00244,0.08296,0.08296,0.05368,-0.0244,-0.05368,-0.02928
-0.01464,0.01708,-0.01952,-0.0122,-0.00488,-0.00488,0.06832,0.06344,0.03904,-0.01952,-0.04392,-0.02928
-0.01952,0.01952,-0.01952,-0.00976,0,-0.00976,0.05368,0.03904,0.02928,-0.01464,-0.03416,-0.0244
-0.01952,0.01952,-0.01952,-0.00976,0,-0.00976,0.04392,0.0244,0.01464,-0.01464,-0.03416,-0.0244
-0.01952,0.02196,-0.0244,-0.01464,-0.00488,-0.00732,0.03416,0.00976,0,-0.01464,-0.0244,-0.0244
-0.0244,0.02928,-0.03416,-0.02196,-0.00976,-0.00732,0.03416,-0.00488,0,-0.00488,-0.01464,-0.02928
-0.03416,0.03416,-0.03416,-0.01708,0,-0.01708,0.03416,-0.01952,-0.00976,0,-0.01464,-0.02928
-0.03416,0.03416,-0.03416,-0.01708,0,-0.01708,0.02928,-0.0244,-0.01952,-0.00488,-0.01464,-0.03416
-0.03904,0.0366,-0.03416,-0.01464,0.00488,-0.02196,0.0244,-0.02928,-0.02928,-0.00488,-0.01464,-0.03416
-0.03416,0.03416,-0.03416,-0.01708,0,-0.01708,0.0244,-0.03416,-0.03416,-0.01464,-0.0244,-0.03416
-0.02928,0.03172,-0.03416,-0.01952,-0.00488,-0.0122,0.0244,-0.04392,-0.03904,-0.0244,-0.03416,-0.03416
-0.02928,0.03172,-0.03416,-0.01952,-0.00488,-0.0122,0.01952,-0.04392,-0.0488,-0.02928,-0.03904,-0.03416
-0.02928,0.03172,-0.03416,-0.01952,-0.00488,-0.0122,0.01464,-0.04392,-0.05368,-0.03904,-0.0488,-0.03416
-0.0244,0.03416,-0.04392,-0.03172,-0.01952,-0.00244,0.01464,-0.04392,-0.05368,-0.03904,-0.0488,-0.03416
-0.0244,0.0366,-0.0488,-0.0366,-0.0244,0,0.01464,-0.04392,-0.05368,-0.03904,-0.0488,-0.03904
-0.02928,0.03904,-0.0488,-0.03416,-0.01952,-0.00488,0.01952,-0.04392,-0.05368,-0.03904,-0.0488,-0.03904
-0.02928,0.03904,-0.0488,-0.03416,-0.01952,-0.00488,0.01952,-0.04392,-0.05368,-0.03904,-0.04392,-0.03416
-0.03416,0.04148,-0.0488,-0.03172,-0.01464,-0.00976,0.01952,-0.03904,-0.0488,-0.02928,-0.02928,-0.03416
-0.03904,0.04392,-0.0488,-0.02928,-0.00976,-0.01464,0.0244,-0.03416,-0.04392,-0.01952,-0.0244,-0.03416
-0.04392,0.04636,-0.0488,-0.02684,-0.00488,-0.01952,0.0244,-0.03416,-0.04392,-0.0244,-0.01464,-0.03416
-0.0488,0.0488,-0.0488,-0.0244,0,-0.0244,0.0244,-0.03416,-0.03904,-0.0244,-0.00488,-0.03416
-0.05368,0.05368,-0.05368,-0.02684,0,-0.02684,0.0244,-0.02928,-0.03904,-0.02928,-0.01952,-0.02928
-0.05368,0.05612,-0.05856,-0.03172,-0.00488,-0.0244,0.0244,-0.0244,-0.03904,-0.03416,-0.03416,-0.02928
-0.0488,0.05368,-0.05856,-0.03416,-0.00976,-0.01952,0.0244,-0.0244,-0.03904,-0.04392,-0.0488,-0.03416
-0.0488,0.05368,-0.05856,-0.03416,-0.00976,-0.01952,0.0244,-0.0244,-0.03904,-0.05856,-0.06832,-0.04392
-0.0488,0.05124,-0.05368,-0.02928,-0.00488,-0.02196,0.0244,-0.0244,-0.04392,-0.0488,-0.06344,-0.04392
-0.0488,0.05124,-0.05368,-0.02928,-0.00488,-0.02196,0.02928,-0.0244,-0.04392,-0.03904,-0.05368,-0.04392
-0.0488,0.0488,-0.0488,-0.0244,0,-0.0244,0.02928,-0.01952,-0.03904,-0.03416,-0.04392,-0.03904
-0.0488,0.04636,-0.04392,-0.01952,0.00488,-0.02684,0.02928,-0.01464,-0.02928,-0.0244,-0.02928,-0.03904
-0.0488,0.04636,-0.04392,-0.01952,0.00488,-0.02684,0.03416,-0.00976,-0.0244,-0.0244,-0.0244,-0.04392
-0.04392,0.04392,-0.04392,-0.02196,0,-0.02196,0.03416,-0.00976,-0.0244,-0.0244,-0.0244,-0.04392
-0.04392,0.04392,-0.04392,-0.02196,0,-0.02196,0.02928,-0.00976,-0.02928,-0.03416,-0.04392,-0.04392
-0.0488,0.04392,-0.03904,-0.01464,0.00976,-0.02928,0.02928,-0.00976,-0.02928,-0.03904,-0.05856,-0.0488
-0.0488,0.04392,-0.03904,-0.01464,0.00976,-0.02928,0.02928,-0.00976,-0.02928,-0.03904,-0.05856,-0.0488
-0.04392,0.04392,-0.04392,-0.02196,0,-0.02196,0.0244,-0.01464,-0.02928,-0.04392,-0.06344,-0.0488
-0.04392,0.04636,-0.0488,-0.02684,-0.00488,-0.01952,0.0244,-0.01952,-0.03416,-0.04392,-0.05856,-0.0488
-0.04392,0.0488,-0.05368,-0.03172,-0.00976,-0.01708,0.0244,-0.01952,-0.03904,-0.03904,-0.0488,-0.04392
-0.05368,0.05124,-0.0488,-0.02196,0.00488,-0.02928,0.02928,-0.01952,-0.03416,-0.03416,-0.0488,-0.04392
-0.06344,0.05612,-0.0488,-0.01708,0.01464,-0.03904,0.03416,-0.01464,-0.0244,-0.03416,-0.04392,-0.03904
-0.06344,0.05612,-0.0488,-0.01708,0.01464,-0.03904,0.03416,-0.00976,-0.0244,-0.02928,-0.03416,-0.03904
-0.0732,0.061,-0.0488,-0.0122,0.0244,-0.0488,0.03416,-0.00976,-0.0244,-0.02928,-0.02928,-0.04392
-0.06344,0.05856,-0.05368,-0.02196,0.00976,-0.0366,0.02928,-0.00976,-0.02928,-0.02928,-0.03904,-0.04392
-0.05368,0.05368,-0.05368,-0.02684,0,-0.02684,0.0244,-0.00976,-0.03416,-0.0244,-0.04392,-0.04392
-0.0488,0.05124,-0.05368,-0.02928,-0.00488,-0.02196,0.0244,-0.01952,-0.03416,-0.03416,-0.04392,-0.04392
-0.04392,0.05124,-0.05856,-0.0366,-0.01464,-0.01464,0.01952,-0.01952,-0.03416,-0.03416,-0.04392,-0.04392
-0.04392,0.05124,-0.05856,-0.0366,-0.01464,-0.01464,0.01952,-0.0244,-0.03416,-0.03904,-0.0488,-0.0488
-0.0488,0.05368,-0.05856,-0.03416,-0.00976,-0.01952,0.01464,-0.03416,-0.04392,-0.04392,-0.05368,-0.0488
-0.0488,0.05368,-0.05856,-0.03416,-0.00976,-0.01952,0.01464,-0.03416,-0.04392,-0.04392,-0.05368,-0.0488
-0.05368,0.05612,-0.05856,-0.03172,-0.00488,-0.0244,0.01464,-0.03904,-0.0488,-0.0488,-0.06344,-0.0488
-0.0488,0.05124,-0.05368,-0.02928,-0.00488,-0.02196,0.01464,-0.03904,-0.0488,-0.04392,-0.04392,-0.03904
-0.0488,0.0488,-0.0488,-0.0244,0,-0.0244,0.01952,-0.03904,-0.0488,-0.03416,-0.0244,-0.03416
-0.0488,0.05124,-0.05368,-0.02928,-0.00488,-0.02196,0.01952,-0.03904,-0.05368,-0.03416,-0.03904,-0.03904
-0.0488,0.05368,-0.05856,-0.03416,-0.00976,-0.01952,0.01464,-0.03904,-0.05368,-0.03416,-0.0488,-0.04392
-0.0488,0.05368,-0.05856,-0.03416,-0.00976,-0.01952,0.01464,-0.04392,-0.05856,-0.05368,-0.05368,-0.0488
-0.0488,0.05368,-0.05856,-0.03416,-0.00976,-0.01952,0.01464,-0.04392,-0.06344,-0.06344,-0.06344,-0.0488
-0.05368,0.05612,-0.05856,-0.03172,-0.00488,-0.0244,0.01464,-0.04392,-0.06344,-0.06344,-0.06344,-0.04392
-0.05368,0.05612,-0.05856,-0.03172,-0.00488,-0.0244,0.01464,-0.04392,-0.06344,-0.06344,-0.05856,-0.04392
-0.0488,0.05368,-0.05856,-0.03416,-0.00976,-0.01952,0.00976,-0.0488,-0.06344,-0.05856,-0.05856,-0.0488
-0.04392,0.0488,-0.05368,-0.03172,-0.00976,-0.01708,0.00488,-0.05368,-0.06832,-0.05856,-0.05856,-0.0488
-0.04392,0.0488,-0.05368,-0.03172,-0.00976,-0.01708,-0.00488,-0.05856,-0.06832,-0.06344,-0.05856,-0.0488
-0.04392,0.05124,-0.05856,-0.0366,-0.01464,-0.01464,-0.00488,-0.05856,-0.06832,-0.06344,-0.05856,-0.0488
-0.04392,0.04392,-0.04392,-0.02196,0,-0.02196,0,-0.05856,-0.06344,-0.05856,-0.0488,-0.04392
-0.03904,0.03904,-0.03904,-0.01952,0,-0.01952,0,-0.05368,-0.06344,-0.05368,-0.04392,-0.03904
-0.04392,0.04636,-0.0488,-0.02684,-0.00488,-0.01952,0.00488,-0.0488,-0.06344,-0.03904,-0.03904,-0.0488
-0.04392,0.0488,-0.05368,-0.03172,-0.00976,-0.01708,0.00488,-0.0488,-0.0732,-0.02928,-0.02928,-0.0488
-0.0488,0.05124,-0.05368,-0.02928,-0.00488,-0.02196,0,-0.05368,-0.0732,-0.0488,-0.04392,-0.0488
-0.0488,0.05368,-0.05856,-0.03416,-0.00976,-0.01952,-0.00488,-0.05368,-0.0732,-0.06344,-0.05856,-0.05368
-0.0488,0.05856,-0.06832,-0.04392,-0.01952,-0.01464,-0.00976,-0.05856,-0.0732,-0.06344,-0.05856,-0.05368
-0.05368,0.06344,-0.0732,-0.04636,-0.01952,-0.01708,-0.00976,-0.05856,-0.0732,-0.06344,-0.07808,-0.05368
-0.06344,0.07076,-0.07808,-0.04636,-0.01464,-0.0244,-0.00976,-0.05856,-0.0732,-0.06344,-0.06832,-0.05368
-0.06344,0.07076,-0.07808,-0.04636,-0.01464,-0.0244,-0.00976,-0.05856,-0.0732,-0.06832,-0.06344,-0.05368
-0.06344,0.07076,-0.07808,-0.04636,-0.01464,-0.0244,-0.00976,-0.05856,-0.0732,-0.06344,-0.06832,-0.05368
-0.06344,0.07076,-0.07808,-0.04636,-0.01464,-0.0244,-0.00976,-0.05856,-0.07808,-0.06344,-0.06832,-0.05368
-0.05368,0.06588,-0.07808,-0.05124,-0.0244,-0.01464,-0.00976,-0.05856,-0.07808,-0.06344,-0.06344,-0.05368
-0.05368,0.06588,-0.07808,-0.05124,-0.0244,-0.01464,-0.00976,-0.05856,-0.07808,-0.06344,-0.06344,-0.05368
-0.05368,0.06588,-0.07808,-0.05124,-0.0244,-0.01464,-0.01464,-0.06344,-0.07808,-0.05856,-0.05368,-0.05368
-0.05856,0.06832,-0.07808,-0.0488,-0.01952,-0.01952,-0.01952,-0.06344,-0.0732,-0.05856,-0.0488,-0.05368
-0.05856,0.0732,-0.08784,-0.05856,-0.02928,-0.01464,-0.01952,-0.06344,-0.0732,-0.05856,-0.0488,-0.05368
-0.05856,0.0732,-0.08784,-0.05856,-0.02928,-0.01464,-0.01952,-0.06344,-0.0732,-0.06344,-0.04392,-0.05368
-0.06344,0.07564,-0.08784,-0.05612,-0.0244,-0.01952,-0.01952,-0.06832,-0.07808,-0.06344,-0.05368,-0.05368
-0.06344,0.07564,-0.08784,-0.05612,-0.0244,-0.01952,-0.01952,-0.06832,-0.08296,-0.06344,-0.06344,-0.05368
-0.0732,0.09028,-0.10736,-0.07076,-0.03416,-0.01952,-0.01952,-0.06832,-0.08296,-0.06832,-0.07808,-0.05856
-0.07808,0.09516,-0.11224,-0.0732,-0.03416,-0.02196,-0.01952,-0.06344,-0.08784,-0.0732,-0.07808,-0.05856
-0.07808,0.0854,-0.09272,-0.05368,-0.01464,-0.03172,-0.01952,-0.06832,-0.08784,-0.0732,-0.07808,-0.05856
-0.07808,0.0854,-0.09272,-0.05368,-0.01464,-0.03172,-0.01464,-0.0732,-0.08784,-0.0732,-0.07808,-0.06344
-0.07808,0.08784,-0.0976,-0.05856,-0.01952,-0.02928,-0.01464,-0.06832,-0.08296,-0.07808,-0.0732,-0.05856
-0.07808,0.08784,-0.0976,-0.05856,-0.01952,-0.02928,-0.01464,-0.06832,-0.07808,-0.06832,-0.06832,-0.05856
-0.07808,0.09028,-0.10248,-0.06344,-0.0244,-0.02684,-0.01464,-0.06832,-0.07808,-0.06832,-0.06344,-0.05368
-0.07808,0.09272,-0.10736,-0.06832,-0.02928,-0.0244,-0.01464,-0.06832,-0.08296,-0.06832,-0.06344,-0.05368
-0.06344,0.08296,-0.10248,-0.07076,-0.03904,-0.0122,-0.01464,-0.06344,-0.08296,-0.05856,-0.05856,-0.05368
-0.05856,0.07808,-0.0976,-0.06832,-0.03904,-0.00976,-0.01952,-0.06344,-0.07808,-0.0488,-0.05368,-0.05856
-0.05368,0.07564,-0.0976,-0.07076,-0.04392,-0.00488,-0.00976,-0.05368,-0.0732,-0.0488,-0.0488,-0.05856
-0.0488,0.06832,-0.08784,-0.06344,-0.03904,-0.00488,-0.00976,-0.05368,-0.0732,-0.04392,-0.04392,-0.05856
-0.0488,0.061,-0.0732,-0.0488,-0.0244,-0.0122,-0.00976,-0.05856,-0.0732,-0.05368,-0.0488,-0.05368
-0.0488,0.05612,-0.06344,-0.03904,-0.01464,-0.01708,-0.00976,-0.05856,-0.0732,-0.06344,-0.05368,-0.05368
-0.04392,0.06344,-0.08296,-0.061,-0.03904,-0.00244,-0.00488,-0.05368,-0.06832,-0.06344,-0.06344,-0.05368
-0.04392,0.06344,-0.08296,-0.061,-0.03904,-0.00244,0,-0.0488,-0.06344,-0.05856,-0.0732,-0.0488
-0.03416,0.05368,-0.0732,-0.05612,-0.03904,0.00244,0.01952,-0.03416,-0.05368,-0.0488,-0.06344,-0.04392
-0.02928,0.0488,-0.06832,-0.05368,-0.03904,0.00488,0.03904,-0.01952,-0.0488,-0.03904,-0.05856,-0.03904
-0.02928,0.0488,-0.06832,-0.05368,-0.03904,0.00488,0.04392,-0.00976,-0.03904,-0.03904,-0.0488,-0.03904
-0.02928,0.0488,-0.06832,-0.05368,-0.03904,0.00488,0.0488,0,-0.02928,-0.03904,-0.03904,-0.03904
-0.01464,0.0366,-0.05856,-0.05124,-0.04392,0.01464,0.0488,0.00488,-0.0244,-0.03416,-0.03904,-0.03416
-0.00488,0.02928,-0.05368,-0.05124,-0.0488,0.02196,0.05368,0.00976,-0.01464,-0.01952,-0.01952,-0.0244
0,0.0244,-0.0488,-0.0488,-0.0488,0.0244,0.06344,0.01952,-0.00488,-0.00976,-0.00488,-0.01952
0,0.0244,-0.0488,-0.0488,-0.0488,0.0244,0.0732,0.02928,0.00488,0,0.01464,-0.01464
0.00488,0.02196,-0.0488,-0.05124,-0.05368,0.02928,0.06344,0.01952,0.00488,0.00488,0.00976,-0.01464
0.00976,0.01952,-0.0488,-0.05368,-0.05856,0.03416,0.0488,0.00976,-0.00976,0.00488,0.01464,-0.01464
0.01464,0.01464,-0.04392,-0.05124,-0.05856,0.0366,0.03416,0,-0.02928,-0.00976,-0.01464,-0.01952
0.0244,0.00976,-0.04392,-0.05612,-0.06832,0.04636,0.0244,-0.00976,-0.03904,-0.02928,-0.0488,-0.0244
0.0244,0.0122,-0.0488,-0.061,-0.0732,0.0488,0.00976,-0.02928,-0.0488,-0.05856,-0.0732,-0.02928
0.01464,0.01952,-0.05368,-0.061,-0.06832,0.04148,-0.01464,-0.04392,-0.06344,-0.08296,-0.09272,-0.02928
0.00976,0.0244,-0.05856,-0.06344,-0.06832,0.03904,-0.01952,-0.04392,-0.06832,-0.06344,-0.06832,-0.02928
0.01464,0.02196,-0.05856,-0.06588,-0.0732,0.04392,-0.01952,-0.04392,-0.06832,-0.04392,-0.04392,-0.02928
0.01952,0.01708,-0.05368,-0.06344,-0.0732,0.04636,-0.01464,-0.04392,-0.05856,-0.03416,-0.02928,-0.02928
0.02928,0.00976,-0.0488,-0.06344,-0.07808,0.05368,-0.01464,-0.04392,-0.0488,-0.02928,-0.0244,-0.02928
0.02928,0.00732,-0.04392,-0.05856,-0.0732,0.05124,-0.01952,-0.04392,-0.05368,-0.03904,-0.02928,-0.03416
0.03416,0.00732,-0.0488,-0.06588,-0.08296,0.05856,-0.03416,-0.05856,-0.06344,-0.03904,-0.0244,-0.03904
0.0244,0.0122,-0.0488,-0.061,-0.0732,0.0488,-0.03416,-0.05856,-0.06832,-0.03904,-0.0244,-0.04392
0.01952,0.01464,-0.0488,-0.05856,-0.06832,0.04392,-0.03416,-0.05856,-0.0732,-0.03904,-0.0244,-0.0488
0.00976,0.01708,-0.04392,-0.0488,-0.05368,0.03172,-0.03416,-0.05856,-0.06832,-0.03416,-0.0244,-0.04392
0,0.02196,-0.04392,-0.04392,-0.04392,0.02196,-0.02928,-0.05368,-0.06832,-0.03416,-0.0244,-0.03904
-0.01952,0.03172,-0.04392,-0.03416,-0.0244,0.00244,-0.0244,-0.05368,-0.06832,-0.0488,-0.0488,-0.03904
-0.04392,0.04636,-0.0488,-0.02684,-0.00488,-0.01952,-0.0244,-0.06344,-0.0732,-0.06344,-0.06832,-0.03904
-0.04392,0.05612,-0.06832,-0.04636,-0.0244,-0.00976,-0.02928,-0.07808,-0.08296,-0.06832,-0.07808,-0.03904
-0.04392,0.05856,-0.0732,-0.05124,-0.02928,-0.00732,-0.02928,-0.08296,-0.09272,-0.0732,-0.07808,-0.0488
-0.04392,0.061,-0.07808,-0.05612,-0.03416,-0.00488,-0.03416,-0.08296,-0.0976,-0.0732,-0.0732,-0.05368
-0.0488,0.06344,-0.07808,-0.05368,-0.02928,-0.00976,-0.03416,-0.08296,-0.0976,-0.0732,-0.0732,-0.05856
-0.0488,0.06344,-0.07808,-0.05368,-0.02928,-0.00976,-0.03416,-0.08296,-0.09272,-0.06832,-0.06832,-0.05856
-0.04392,0.061,-0.07808,-0.05612,-0.03416,-0.00488,-0.03416,-0.07808,-0.08296,-0.06344,-0.06344,-0.05856
-0.0488,0.061,-0.0732,-0.0488,-0.0244,-0.0122,-0.03416,-0.07808,-0.08296,-0.05368,-0.05368,-0.05856
-0.05368,0.061,-0.06832,-0.04148,-0.01464,-0.01952,-0.03416,-0.07808,-0.07808,-0.0488,-0.0488,-0.05856
-0.05368,0.061,-0.06832,-0.04148,-0.01464,-0.01952,-0.02928,-0.0732,-0.07808,-0.05368,-0.05368,-0.05856
-0.05368,0.05856,-0.06344,-0.0366,-0.00976,-0.02196,-0.02928,-0.0732,-0.07808,-0.05368,-0.05856,-0.05856
-0.0488,0.05612,-0.06344,-0.03904,-0.01464,-0.01708,-0.0244,-0.0732,-0.08784,-0.0732,-0.06832,-0.05856
-0.0488,0.05856,-0.06832,-0.04392,-0.01952,-0.01464,-0.0244,-0.0732,-0.09272,-0.09272,-0.07808,-0.05856
-0.0488,0.05856,-0.06832,-0.04392,-0.01952,-0.01464,-0.02928,-0.0732,-0.09272,-0.08296,-0.07808,-0.05856
-0.0488,0.061,-0.0732,-0.0488,-0.0244,-0.0122,-0.02928,-0.06832,-0.09272,-0.0732,-0.07808,-0.06344
-0.0488,0.061,-0.0732,-0.0488,-0.0244,-0.0122,-0.02928,-0.06832,-0.08784,-0.06832,-0.0732,-0.06344
-0.0488,0.05856,-0.06832,-0.04392,-0.01952,-0.01464,-0.02928,-0.06832,-0.07808,-0.06344,-0.06344,-0.06344
-0.0488,0.05856,-0.06832,-0.04392,-0.01952,-0.01464,-0.02928,-0.06832,-0.07808,-0.05856,-0.05856,-0.06344
-0.05368,0.061,-0.06832,-0.04148,-0.01464,-0.01952,-0.02928,-0.06832,-0.0732,-0.0488,-0.05368,-0.05856
-0.06344,0.06588,-0.06832,-0.0366,-0.00488,-0.02928,-0.01952,-0.06344,-0.07808,-0.05368,-0.05856,-0.06344
-0.0732,0.06832,-0.06344,-0.02684,0.00976,-0.04148,0.00976,-0.0488,-0.06832,-0.05856,-0.06344,-0.06832
-0.08784,0.06588,-0.04392,0,0.04392,-0.06588,0.05368,-0.00976,-0.01952,-0.06344,-0.0732,-0.06344
-0.09272,0.05124,-0.00976,0.0366,0.08296,-0.08784,0.09272,0.05856,0.03904,-0.0244,-0.05368,-0.04392
-0.0732,0.02684,0.01952,0.05612,0.09272,-0.08296,0.15616,0.15616,0.18056,0.10736,0.02928,0
-0.0244,-0.00488,0.03416,0.04636,0.05856,-0.04148,0.18544,0.20008,0.3172,0.2684,0.15616,0.05856
0.0976,-0.08784,0.07808,0.02928,-0.01952,0.05856,0.0976,0.15616,0.42456,0.45384,0.30744,0.13176
0.3172,-0.25864,0.20008,0.04148,-0.11712,0.21716,-0.10736,0.12688,0.61,0.77592,0.56608,0.27328
0.54168,-0.4514,0.36112,0.09028,-0.18056,0.36112,-0.43432,0.0976,0.81496,1.12728,0.85888,0.45872
0.68808,-0.60512,0.52216,0.17812,-0.16592,0.427,-0.88816,-0.24888,0.73688,1.22488,1.01504,0.61488
0.732,-0.63928,0.54656,0.18056,-0.18544,0.45872,-1.19072,-0.6588,0.35624,0.94184,0.89304,0.61488
0.61,-0.42944,0.24888,-0.05612,-0.36112,0.48556,-1.27856,-1.098,-0.21472,0.33672,0.44408,0.38064
0.35136,-0.22936,0.10736,-0.06832,-0.244,0.29768,-1.42008,-1.64456,-0.93208,-0.27328,0.02928,0.2196
0.20008,-0.0854,-0.02928,-0.12932,-0.22936,0.21472,-1.36152,-1.62016,-1.1224,-0.49288,-0.1708,0.08784
0.17568,-0.04148,-0.09272,-0.18056,-0.2684,0.22204,-1.19072,-1.37616,-1.01504,-0.50264,-0.22448,0.00488
0.13664,-0.01952,-0.0976,-0.16592,-0.23424,0.18544,-1.0004,-1.13216,-0.88816,-0.49288,-0.26352,-0.0488
0.08296,-0.03904,-0.00488,-0.04636,-0.08784,0.0854,-0.7076,-0.79544,-0.59048,-0.31232,-0.16592,-0.01464
0.06832,-0.0488,0.02928,-0.00488,-0.03904,0.05368,-0.44408,-0.48312,-0.33184,-0.16592,-0.08296,0.00488
0.0488,-0.03416,0.01952,-0.00488,-0.02928,0.03904,-0.244,-0.24888,-0.18544,-0.08784,-0.02928,0.00488
0.03416,-0.0244,0.01464,-0.00244,-0.01952,0.02684,-0.11224,-0.13176,-0.10248,-0.02928,0.00488,0.00488
0.0244,-0.01464,0.00488,-0.00732,-0.01952,0.02196,-0.0244,-0.05368,-0.05368,-0.01464,-0.00488,-0.01464
0.00976,-0.00732,0.00488,0,-0.00488,0.00732,0.00976,-0.00488,-0.01952,-0.01464,-0.0244,-0.02928
-0.00488,-0.00244,0.00976,0.0122,0.01464,-0.00976,0.01952,0.01464,-0.00976,-0.01952,-0.03904,-0.02928
-0.00488,-0.00488,0.01464,0.01708,0.01952,-0.0122,0.02928,0.01952,-0.01464,-0.0244,-0.05368,-0.02928
0.00488,-0.00488,0.00488,0.00244,0,0.00244,0.04392,0.03416,-0.01464,-0.02928,-0.0488,-0.03416
0.00488,-0.00244,0,-0.00244,-0.00488,0.00488,0.05368,0.0488,-0.00488,-0.02928,-0.05368,-0.03904
-0.00488,0.00244,0,0.00244,0.00488,-0.00488,0.06344,0.05856,0.00976,-0.02928,-0.05368,-0.03904
-0.00488,-0.00488,0.01464,0.01708,0.01952,-0.0122,0.06344,0.06832,0.01952,-0.01952,-0.04392,-0.03904
0,-0.00732,0.01464,0.01464,0.01464,-0.00732,0.07808,0.07808,0.02928,-0.00976,-0.03416,-0.03904
0,-0.00732,0.01464,0.01464,0.01464,-0.00732,0.09272,0.0976,0.04392,0,-0.0244,-0.03904
0,-0.00976,0.01952,0.01952,0.01952,-0.00976,0.0976,0.10736,0.05856,0.00976,-0.00488,-0.03416
0,-0.0122,0.0244,0.0244,0.0244,-0.0122,0.11224,0.11224,0.06344,0.01464,-0.00488,-0.03416
0.00488,-0.01464,0.0244,0.02196,0.01952,-0.00732,0.11224,0.11712,0.06344,0.01464,-0.00976,-0.02928
0.00488,-0.01464,0.0244,0.02196,0.01952,-0.00732,0.11712,0.122,0.06832,0.01464,-0.00976,-0.02928
0.00488,-0.01464,0.0244,0.02196,0.01952,-0.00732,0.11712,0.12688,0.06832,0.01464,-0.00976,-0.02928
0.00488,-0.01464,0.0244,0.02196,0.01952,-0.00732,0.11712,0.13176,0.07808,0.01464,-0.00976,-0.02928
0,-0.0122,0.0244,0.0244,0.0244,-0.0122,0.11712,0.13664,0.08296,0.01952,-0.01464,-0.02928
0,-0.0122,0.0244,0.0244,0.0244,-0.0122,0.11224,0.14152,0.08296,0.01952,-0.01464,-0.02928
0.00488,-0.0122,0.01952,0.01708,0.01464,-0.00488,0.11712,0.1464,0.08784,0.0244,-0.00976,-0.03416
0.00488,-0.0122,0.01952,0.01708,0.01464,-0.00488,0.12688,0.15616,0.09272,0.02928,-0.00488,-0.03904
0.00488,-0.00976,0.01464,0.0122,0.00976,-0.00244,0.13176,0.15616,0.0976,0.03904,0,-0.03904
0,-0.00488,0.00976,0.00976,0.00976,-0.00488,0.13176,0.15616,0.10248,0.04392,0.00488,-0.03904
0,-0.00488,0.00976,0.00976,0.00976,-0.00488,0.13176,0.16104,0.10248,0.04392,0.00488,-0.03904
0.00488,-0.00732,0.00976,0.00732,0.00488,0,0.12688,0.15616,0.0976,0.04392,0.00488,-0.03904
0.00488,-0.00732,0.00976,0.00732,0.00488,0,0.122,0.16592,0.0976,0.03904,-0.00488,-0.03904
0.00488,-0.00488,0.00488,0.00244,0,0.00244,0.122,0.17568,0.09272,0.02928,-0.01464,-0.03416
-0.00488,0.00244,0,0.00244,0.00488,-0.00488,0.12688,0.18056,0.0976,0.02928,-0.00976,-0.02928
-0.01464,0.00976,-0.00488,0.00244,0.00976,-0.0122,0.13176,0.19032,0.10736,0.02928,-0.00976,-0.0244
-0.01464,0.00488,0.00488,0.0122,0.01952,-0.01708,0.14152,0.1952,0.11224,0.03904,0.00488,-0.0244
-0.01464,0,0.01464,0.02196,0.02928,-0.02196,0.1464,0.1952,0.122,0.0488,0.01952,-0.0244
-0.01464,0,0.01464,0.02196,0.02928,-0.02196,0.1464,0.20008,0.122,0.0488,0.00976,-0.0244
-0.01464,0.00244,0.00976,0.01708,0.0244,-0.01952,0.15128,0.20984,0.122,0.0488,0,-0.0244
-0.00976,0,0.00976,0.01464,0.01952,-0.01464,0.15128,0.20496,0.11712,0.03904,-0.00976,-0.0244
0,-0.00732,0.01464,0.01464,0.01464,-0.00732,0.15128,0.21472,0.11712,0.03416,-0.01464,-0.02928
0,-0.00732,0.01464,0.01464,0.01464,-0.00732,0.1464,0.22448,0.11712,0.03904,-0.01464,-0.02928
0,-0.00732,0.01464,0.01464,0.01464,-0.00732,0.15128,0.22936,0.122,0.03904,-0.01464,-0.02928
0,-0.00244,0.00488,0.00488,0.00488,-0.00244,0.15128,0.23912,0.122,0.03904,-0.01464,-0.03416
0,-0.00244,0.00488,0.00488,0.00488,-0.00244,0.15616,0.24888,0.12688,0.03904,-0.00976,-0.03904
0,-0.00244,0.00488,0.00488,0.00488,-0.00244,0.16104,0.25376,0.12688,0.03904,-0.00976,-0.03904
0,-0.00244,0.00488,0.00488,0.00488,-0.00244,0.16592,0.25376,0.13176,0.03904,-0.01464,-0.04392
0.00976,-0.01708,0.0244,0.01952,0.01464,-0.00244,0.17568,0.26352,0.14152,0.05368,0,-0.03904
0.01952,-0.03172,0.04392,0.03416,0.0244,-0.00244,0.17568,0.27328,0.15616,0.06344,0.01952,-0.02928
0.0244,-0.02684,0.02928,0.01708,0.00488,0.00976,0.17568,0.2928,0.15616,0.06344,0.01952,-0.02928
0.0244,-0.02196,0.01952,0.00732,-0.00488,0.01464,0.18056,0.31232,0.16104,0.06344,0.01464,-0.03416
0.0244,-0.01952,0.01464,0.00244,-0.00976,0.01708,0.18544,0.3172,0.16104,0.05368,0,-0.04392
0.01952,-0.0122,0.00488,-0.00488,-0.01464,0.01708,0.1952,0.33184,0.16592,0.05368,0,-0.04392
0.01952,-0.0122,0.00488,-0.00488,-0.01464,0.01708,0.20496,0.3416,0.16592,0.04392,-0.00976,-0.03416
0.01952,-0.01464,0.00976,0,-0.00976,0.01464,0.21472,0.36112,0.16104,0.03416,-0.01952,-0.0244
0.0244,-0.0122,0,-0.0122,-0.0244,0.0244,0.2196,0.366,0.1708,0.03416,-0.01952,-0.03904
0.02928,-0.01464,0,-0.01464,-0.02928,0.02928,0.2196,0.37088,0.1708,0.01952,-0.02928,-0.0488
0.02928,-0.01464,0,-0.01464,-0.02928,0.02928,0.22448,0.38064,0.1708,0.02928,-0.0244,-0.05856
0.02928,-0.01464,0,-0.01464,-0.02928,0.02928,0.22936,0.38552,0.1708,0.03904,-0.02928,-0.06832
0.01952,-0.00732,-0.00488,-0.01464,-0.0244,0.02196,0.23424,0.40016,0.18056,0.02928,-0.02928,-0.06832
0.01464,-0.00244,-0.00976,-0.01708,-0.0244,0.01952,0.244,0.4148,0.19032,0.03416,-0.01952,-0.06832
0.01952,0,-0.01952,-0.02928,-0.03904,0.02928,0.244,0.41968,0.18544,0.02928,-0.02928,-0.06832
0.01952,0,-0.01952,-0.02928,-0.03904,0.02928,0.24888,0.41968,0.18056,0.01952,-0.03416,-0.0732
0.01952,0,-0.01952,-0.02928,-0.03904,0.02928,0.25376,0.42944,0.1708,0.00976,-0.0488,-0.0732
0.01952,0,-0.01952,-0.02928,-0.03904,0.02928,0.25376,0.42944,0.16592,-0.00976,-0.05856,-0.08296
0.01952,0.00488,-0.02928,-0.03904,-0.0488,0.03416,0.25864,0.42944,0.15128,-0.01464,-0.07808,-0.08296
0.00976,0.01464,-0.03904,-0.04392,-0.0488,0.02928,0.25864,0.42456,0.14152,-0.0244,-0.0976,-0.07808
0.00976,0.01464,-0.03904,-0.04392,-0.0488,0.02928,0.25864,0.4148,0.13664,-0.03416,-0.09272,-0.07808
0.00976,0.01464,-0.03904,-0.04392,-0.0488,0.02928,0.24888,0.40504,0.12688,-0.04392,-0.09272,-0.08296
0.00976,0.01464,-0.03904,-0.04392,-0.0488,0.02928,0.23912,0.39528,0.122,-0.04392,-0.09272,-0.08296
0.00488,0.01464,-0.03416,-0.0366,-0.03904,0.02196,0.22936,0.37576,0.11712,-0.04392,-0.09272,-0.08296
0.00976,0.00488,-0.01952,-0.0244,-0.02928,0.01952,0.2196,0.35136,0.10736,-0.04392,-0.09272,-0.08296
0.01952,-0.00732,-0.00488,-0.01464,-0.0244,0.02196,0.20984,0.32208,0.0976,-0.04392,-0.09272,-0.0732
0.01952,-0.00488,-0.00976,-0.01952,-0.02928,0.0244,0.1952,0.29768,0.08784,-0.04392,-0.08784,-0.06832
0.01952,0.00244,-0.0244,-0.03416,-0.04392,0.03172,0.18056,0.27328,0.07808,-0.03904,-0.08296,-0.06344
0.01464,0.00488,-0.0244,-0.03172,-0.03904,0.02684,0.16104,0.23424,0.06832,-0.02928,-0.0732,-0.05368
0.01464,0.00244,-0.01952,-0.02684,-0.03416,0.0244,0.14152,0.20496,0.05856,-0.01952,-0.05856,-0.05368
0.01464,-0.00488,-0.00488,-0.0122,-0.01952,0.01708,0.12688,0.1708,0.05368,-0.01464,-0.05368,-0.0488
0.01464,-0.0122,0.00976,0.00244,-0.00488,0.00976,0.10736,0.14152,0.0488,-0.00488,-0.03416,-0.04392
0.01464,-0.01464,0.01464,0.00732,0,0.00732,0.08296,0.10736,0.0488,-0.00488,-0.03416,-0.04392
0.01464,-0.01708,0.01952,0.0122,0.00488,0.00488,0.0732,0.08784,0.03904,-0.00488,-0.03416,-0.0488
0.00976,-0.0122,0.01464,0.00976,0.00488,0.00244,0.06344,0.06344,0.02928,-0.00488,-0.03416,-0.04392
0.00976,-0.00976,0.00976,0.00488,0,0.00488,0.05368,0.04392,0.01952,-0.00488,-0.03416,-0.04392
0.01464,-0.00976,0.00488,-0.00244,-0.00976,0.0122,0.03904,0.0244,0.00976,-0.00976,-0.0244,-0.03904
0.01952,-0.00732,-0.00488,-0.01464,-0.0244,0.02196,0.03416,0.00976,0.00976,-0.01464,-0.0244,-0.03904
0.01464,-0.0122,0.00976,0.00244,-0.00488,0.00976,0.03416,-0.00488,-0.00976,-0.01952,-0.03416,-0.03904
0.01464,-0.01952,0.0244,0.01708,0.00976,0.00244,0.02928,-0.01464,-0.02928,-0.0244,-0.03416,-0.04392
0,-0.0122,0.0244,0.0244,0.0244,-0.0122,0.0244,-0.01952,-0.03904,-0.0244,-0.03416,-0.04392
-0.00976,-0.00732,0.0244,0.02928,0.03416,-0.02196,0.0244,-0.01952,-0.03904,-0.0244,-0.03416,-0.04392
-0.00976,-0.00244,0.01464,0.01952,0.0244,-0.01708,0.0244,-0.02928,-0.04392,-0.0244,-0.03416,-0.04392
-0.00976,0.00244,0.00488,0.00976,0.01464,-0.0122,0.0244,-0.03416,-0.05368,-0.0244,-0.03416,-0.04392
-0.00976,0.00244,0.00488,0.00976,0.01464,-0.0122,0.01952,-0.03416,-0.05368,-0.03904,-0.0488,-0.04392
-0.00976,0.00488,0,0.00488,0.00976,-0.00976,0.01464,-0.03416,-0.05368,-0.0488,-0.05856,-0.04392
-0.01464,0.00732,0,0.00732,0.01464,-0.01464,0.01464,-0.03416,-0.04392,-0.03904,-0.04392,-0.0488
-0.01952,0.00976,0,0.00976,0.01952,-0.01952,0.01952,-0.03416,-0.03416,-0.02928,-0.02928,-0.0488
-0.01464,0.00488,0.00488,0.0122,0.01952,-0.01708,0.01952,-0.03416,-0.04392,-0.02928,-0.0244,-0.04392
-0.00488,-0.00244,0.00976,0.0122,0.01464,-0.00976,0.01464,-0.02928,-0.05368,-0.02928,-0.0244,-0.04392
0,-0.00488,0.00976,0.00976,0.00976,-0.00488,0.01464,-0.0244,-0.05368,-0.03416,-0.04392,-0.04392
0,-0.00488,0.00976,0.00976,0.00976,-0.00488,0.01464,-0.0244,-0.05368,-0.04392,-0.05368,-0.04392
0,-0.00244,0.00488,0.00488,0.00488,-0.00244,0.01464,-0.0244,-0.0488,-0.04392,-0.05856,-0.04392
-0.00488,0.00244,0,0.00244,0.00488,-0.00488,0.01952,-0.01952,-0.04392,-0.03904,-0.05856,-0.03904
-0.00976,0.00732,-0.00488,0,0.00488,-0.00732,0.0244,-0.01464,-0.03904,-0.03416,-0.05368,-0.04392
-0.00976,0.00732,-0.00488,0,0.00488,-0.00732,0.0244,-0.01464,-0.03904,-0.03416,-0.05368,-0.0488
-0.00976,0.00488,0,0.00488,0.00976,-0.00976,0.0244,-0.01464,-0.03904,-0.0488,-0.05856,-0.05368
-0.00976,0.00244,0.00488,0.00976,0.01464,-0.0122,0.01952,-0.01464,-0.04392,-0.05856,-0.06344,-0.05368
-0.00976,0.00244,0.00488,0.00976,0.01464,-0.0122,0.01952,-0.01464,-0.03904,-0.03416,-0.0488,-0.0488
-0.00976,0.00244,0.00488,0.00976,0.01464,-0.0122,0.01952,-0.01464,-0.03416,-0.00976,-0.03416,-0.03904
-0.00488,0,0.00488,0.00732,0.00976,-0.00732,0.01952,-0.01464,-0.02928,-0.01464,-0.02928,-0.03904
0,-0.00244,0.00488,0.00488,0.00488,-0.00244,0.0244,-0.00976,-0.0244,-0.0244,-0.0244,-0.04392
0.00488,-0.00732,0.00976,0.00732,0.00488,0,0.0244,-0.00976,-0.02928,-0.02928,-0.04392,-0.04392
0.00488,-0.00976,0.01464,0.0122,0.00976,-0.00244,0.01952,-0.00976,-0.03416,-0.03416,-0.06344,-0.03904
-0.00976,-0.00488,0.01952,0.0244,0.02928,-0.01952,0.01952,-0.00976,-0.03416,-0.03904,-0.05856,-0.03904
-0.01952,0,0.01952,0.02928,0.03904,-0.02928,0.0244,-0.00488,-0.03904,-0.0488,-0.05856,-0.03904
-0.01464,-0.00488,0.0244,0.03172,0.03904,-0.02684,0.0244,-0.00488,-0.03904,-0.04392,-0.05368,-0.03904
-0.01464,-0.00976,0.03416,0.04148,0.0488,-0.03172,0.0244,-0.00976,-0.04392,-0.03904,-0.0488,-0.04392
-0.01464,-0.00976,0.03416,0.04148,0.0488,-0.03172,0.0244,-0.00976,-0.04392,-0.03904,-0.0488,-0.04392
-0.01464,-0.0122,0.03904,0.04636,0.05368,-0.03416,0.0244,-0.00976,-0.03904,-0.03416,-0.0488,-0.04392
-0.00976,-0.00488,0.01952,0.0244,0.02928,-0.01952,0.0244,-0.00488,-0.03416,-0.03416,-0.04392,-0.03904
-0.00488,0.00244,0,0.00244,0.00488,-0.00488,0.0244,-0.00488,-0.03416,-0.02928,-0.03904,-0.03904
-0.01464,0.00244,0.00976,0.01708,0.0244,-0.01952,0.0244,-0.00976,-0.0244,-0.01464,-0.01952,-0.04392
-0.01464,0,0.01464,0.02196,0.02928,-0.02196,0.0244,-0.00976,-0.01952,-0.00488,-0.00976,-0.04392
-0.0244,0.00488,0.01464,0.02684,0.03904,-0.03172,0.0244,-0.00976,-0.0244,-0.00488,-0.01464,-0.04392
-0.02928,0.00732,0.01464,0.02928,0.04392,-0.0366,0.0244,-0.01952,-0.0244,-0.01464,-0.01464,-0.04392
-0.00976,-0.00244,0.01464,0.01952,0.0244,-0.01708,0.00976,-0.0244,-0.03416,-0.02928,-0.03904,-0.04392
0.00488,-0.0122,0.01952,0.01708,0.01464,-0.00488,0,-0.02928,-0.04392,-0.04392,-0.06344,-0.0488
0,-0.00976,0.01952,0.01952,0.01952,-0.00976,-0.00488,-0.03416,-0.05368,-0.05368,-0.0732,-0.04392
0,-0.00976,0.01952,0.01952,0.01952,-0.00976,-0.00488,-0.03416,-0.05368,-0.06344,-0.08296,-0.03904
-0.00488,-0.00732,0.01952,0.02196,0.0244,-0.01464,-0.00488,-0.03904,-0.05856,-0.05368,-0.0732,-0.03904
-0.00488,-0.00732,0.01952,0.02196,0.0244,-0.01464,-0.00976,-0.03904,-0.05856,-0.04392,-0.05368,-0.03416
-0.01464,-0.00244,0.01952,0.02684,0.03416,-0.0244,-0.00976,-0.03904,-0.05368,-0.04392,-0.05368,-0.03416
-0.01952,0.00244,0.01464,0.0244,0.03416,-0.02684,-0.00976,-0.03904,-0.05368,-0.04392,-0.05856,-0.03904
-0.01952,0.00488,0.00976,0.01952,0.02928,-0.0244,-0.01464,-0.03904,-0.05368,-0.04392,-0.05368,-0.04392
-0.01952,0.00488,0.00976,0.01952,0.02928,-0.0244,-0.01464,-0.04392,-0.05856,-0.05368,-0.0488,-0.04392
-0.00976,-0.00488,0.01952,0.0244,0.02928,-0.01952,-0.01952,-0.0488,-0.06344,-0.03904,-0.05368,-0.03904
-0.00488,-0.0122,0.02928,0.03172,0.03416,-0.01952,-0.0244,-0.05368,-0.06344,-0.0244,-0.05368,-0.03416
-0.00488,-0.0122,0.02928,0.03172,0.03416,-0.01952,-0.0244,-0.05368,-0.06344,-0.03904,-0.05368,-0.03904
0,-0.01464,0.02928,0.02928,0.02928,-0.01464,-0.0244,-0.05368,-0.06344,-0.0488,-0.05856,-0.0488
-0.00488,-0.0122,0.02928,0.03172,0.03416,-0.01952,-0.01952,-0.05368,-0.06832,-0.0488,-0.05856,-0.0488
-0.01464,-0.00488,0.0244,0.03172,0.03904,-0.02684,-0.0244,-0.05856,-0.06832,-0.05368,-0.05856,-0.0488
-0.01464,-0.00244,0.01952,0.02684,0.03416,-0.0244,-0.0244,-0.05856,-0.06832,-0.05368,-0.05856,-0.0488
-0.01952,0,0.01952,0.02928,0.03904,-0.02928,-0.01952,-0.05856,-0.06344,-0.05368,-0.05368,-0.0488
-0.01952,0.00488,0.00976,0.01952,0.02928,-0.0244,-0.01952,-0.05368,-0.05856,-0.04392,-0.0488,-0.0488
-0.0244,0.00732,0.00976,0.02196,0.03416,-0.02928,-0.01952,-0.05368,-0.05368,-0.03416,-0.0488,-0.05856
-0.0244,0.00488,0.01464,0.02684,0.03904,-0.03172,-0.0244,-0.05856,-0.06344,-0.03904,-0.03416,-0.05368
-0.0244,0.00244,0.01952,0.03172,0.04392,-0.03416,-0.02928,-0.06344,-0.06344,-0.03904,-0.01952,-0.04392
-0.01464,-0.00488,0.0244,0.03172,0.03904,-0.02684,-0.03416,-0.06344,-0.06832,-0.03416,-0.02928,-0.04392
-0.00488,-0.00976,0.0244,0.02684,0.02928,-0.01708,-0.03416,-0.06832,-0.0732,-0.03416,-0.02928,-0.04392
-0.00488,-0.00976,0.0244,0.02684,0.02928,-0.01708,-0.0244,-0.06832,-0.0732,-0.0488,-0.05368,-0.04392
-0.01464,-0.00488,0.0244,0.03172,0.03904,-0.02684,-0.01952,-0.06832,-0.0732,-0.06344,-0.06832,-0.04392
-0.01464,-0.00488,0.0244,0.03172,0.03904,-0.02684,-0.01952,-0.06832,-0.0732,-0.06832,-0.0732,-0.04392
-0.01464,-0.00244,0.01952,0.02684,0.03416,-0.0244,-0.01952,-0.06832,-0.0732,-0.06832,-0.07808,-0.04392
-0.01464,-0.00244,0.01952,0.02684,0.03416,-0.0244,-0.0244,-0.06832,-0.07808,-0.06832,-0.07808,-0.0488
-0.00488,-0.00732,0.01952,0.02196,0.0244,-0.01464,-0.02928,-0.06832,-0.07808,-0.06344,-0.0732,-0.05368
-0.00488,-0.00244,0.00976,0.0122,0.01464,-0.00976,-0.02928,-0.06832,-0.07808,-0.06344,-0.0732,-0.05368
-0.00488,0.00244,0,0.00244,0.00488,-0.00488,-0.02928,-0.06832,-0.07808,-0.05856,-0.06832,-0.05368
-0.00976,-0.00244,0.01464,0.01952,0.0244,-0.01708,-0.02928,-0.06344,-0.06832,-0.03416,-0.03416,-0.0488
-0.00976,-0.00488,0.01952,0.0244,0.02928,-0.01952,-0.02928,-0.06344,-0.06344,-0.00488,0,-0.04392
-0.00976,-0.00976,0.02928,0.03416,0.03904,-0.0244,-0.02928,-0.06344,-0.06344,-0.01952,-0.00976,-0.04392
-0.01464,-0.0122,0.03904,0.04636,0.05368,-0.03416,-0.02928,-0.06832,-0.06344,-0.03416,-0.0244,-0.04392
-0.00976,-0.01464,0.03904,0.04392,0.0488,-0.02928,-0.02928,-0.06832,-0.06832,-0.0488,-0.0488,-0.04392
-0.00488,-0.00976,0.0244,0.02684,0.02928,-0.01708,-0.02928,-0.06832,-0.0732,-0.06832,-0.08784,-0.0488
0,-0.00976,0.01952,0.01952,0.01952,-0.00976,-0.02928,-0.06832,-0.07808,-0.0732,-0.08784,-0.0488
0,-0.01708,0.03416,0.03416,0.03416,-0.01708,-0.0244,-0.0732,-0.07808,-0.0732,-0.08784,-0.04392
0.00488,-0.01708,0.02928,0.02684,0.0244,-0.00976,0,-0.0488,-0.06832,-0.05856,-0.06832,-0.03416
0.00976,-0.01952,0.02928,0.0244,0.01952,-0.00488,0.01952,-0.02928,-0.05856,-0.0488,-0.0488,-0.02928
0.00976,-0.01952,0.02928,0.0244,0.01952,-0.00488,0.01952,-0.0244,-0.04392,-0.03904,-0.04392,-0.02928
0.00976,-0.01952,0.02928,0.0244,0.01952,-0.00488,0.01952,-0.01952,-0.02928,-0.02928,-0.03904,-0.02928
0.01952,-0.0244,0.02928,0.01952,0.00976,0.00488,0.0244,-0.01464,-0.01952,-0.01464,-0.0244,-0.0244
0.0244,-0.02684,0.02928,0.01708,0.00488,0.00976,0.03416,-0.00488,-0.00976,0,-0.00976,-0.01952
0.02928,-0.02928,0.02928,0.01464,0,0.01464,0.04392,0,-0.00488,0.00976,0.00488,-0.01464
0.02928,-0.02928,0.02928,0.01464,0,0.01464,0.05368,0.00976,-0.00488,0.00976,0.00488,-0.01464
0.03416,-0.0366,0.03904,0.02196,0.00488,0.01464,0.04392,0,-0.00976,0,-0.00976,-0.01464
0.03904,-0.04392,0.0488,0.02928,0.00976,0.01464,0.02928,-0.00976,-0.02928,-0.01464,-0.01464,-0.01464
0.03904,-0.04636,0.05368,0.03416,0.01464,0.0122,0.01464,-0.01952,-0.04392,-0.0244,-0.03416,-0.0244
0.04392,-0.0488,0.05368,0.03172,0.00976,0.01708,0.00488,-0.02928,-0.0488,-0.03904,-0.05856,-0.03416
0.04392,-0.03904,0.03416,0.0122,-0.00976,0.02684,-0.00976,-0.04392,-0.03904,-0.04392,-0.0488,-0.02928
0.03416,-0.0244,0.01464,-0.00244,-0.01952,0.02684,-0.03416,-0.05368,-0.03416,-0.04392,-0.03416,-0.01952
0.03416,-0.02684,0.01952,0.00244,-0.01464,0.0244,-0.04392,-0.05856,-0.05856,-0.03904,-0.02928,-0.01952
0.04392,-0.0366,0.02928,0.00732,-0.01464,0.02928,-0.0488,-0.06344,-0.07808,-0.03416,-0.0244,-0.01952
0.0488,-0.04148,0.03416,0.00976,-0.01464,0.03172,-0.04392,-0.06344,-0.06832,-0.0244,-0.01464,-0.01952
0.05856,-0.0488,0.03904,0.00976,-0.01952,0.03904,-0.04392,-0.06344,-0.05856,-0.01952,-0.01464,-0.01952
0.0488,-0.03904,0.02928,0.00488,-0.01952,0.03416,-0.04392,-0.06344,-0.06344,-0.03416,-0.0244,-0.0244
0.04392,-0.02684,0.00976,-0.0122,-0.03416,0.03904,-0.05368,-0.07808,-0.0732,-0.03904,-0.0244,-0.02928
0.03416,-0.03416,0.03416,0.01708,0,0.01708,-0.05368,-0.07808,-0.0732,-0.03904,-0.0244,-0.03416
0.02928,-0.04392,0.05856,0.04392,0.02928,0,-0.05368,-0.07808,-0.0732,-0.03904,-0.0244,-0.03904
0.01952,-0.03172,0.04392,0.03416,0.0244,-0.00244,-0.05368,-0.07808,-0.06832,-0.0488,-0.03904,-0.03904
0.00976,-0.01708,0.0244,0.01952,0.01464,-0.00244,-0.0488,-0.0732,-0.06832,-0.06344,-0.05368,-0.03904
0,-0.0122,0.0244,0.0244,0.0244,-0.0122,-0.04392,-0.07808,-0.0732,-0.06832,-0.05856,-0.03416
-0.01464,-0.00244,0.01952,0.02684,0.03416,-0.0244,-0.04392,-0.09272,-0.08296,-0.0732,-0.05856,-0.02928
-0.01464,0.00488,0.00488,0.0122,0.01952,-0.01708,-0.0488,-0.10248,-0.08784,-0.0732,-0.06344,-0.02928
-0.01464,0.00488,0.00488,0.0122,0.01952,-0.01708,-0.0488,-0.10248,-0.09272,-0.0732,-0.05856,-0.03904
-0.00976,0,0.00976,0.01464,0.01952,-0.01464,-0.05856,-0.10248,-0.09272,-0.05856,-0.0488,-0.03904
-0.00976,-0.00488,0.01952,0.0244,0.02928,-0.01952,-0.06344,-0.10248,-0.08784,-0.04392,-0.04392,-0.03904
-0.00976,-0.00488,0.01952,0.0244,0.02928,-0.01952,-0.06344,-0.10248,-0.08784,-0.04392,-0.03416,-0.03904
-0.00488,-0.00732,0.01952,0.02196,0.0244,-0.01464,-0.06344,-0.0976,-0.08296,-0.04392,-0.0244,-0.03904
-0.00488,-0.00732,0.01952,0.02196,0.0244,-0.01464,-0.06344,-0.0976,-0.08296,-0.0488,-0.02928,-0.03904
-0.00488,-0.00732,0.01952,0.02196,0.0244,-0.01464,-0.06344,-0.0976,-0.07808,-0.05856,-0.03904,-0.03904
-0.00488,-0.00732,0.01952,0.02196,0.0244,-0.01464,-0.05856,-0.09272,-0.07808,-0.06344,-0.04392,-0.03904
-0.00488,-0.00976,0.0244,0.02684,0.02928,-0.01708,-0.05856,-0.09272,-0.07808,-0.06344,-0.0488,-0.03904
-0.01464,-0.00244,0.01952,0.02684,0.03416,-0.0244,-0.05368,-0.09272,-0.08296,-0.07808,-0.06344,-0.03904
-0.02928,0.00976,0.00976,0.0244,0.03904,-0.03416,-0.05368,-0.09272,-0.08296,-0.09272,-0.07808,-0.03904
-0.02928,0.00976,0.00976,0.0244,0.03904,-0.03416,-0.05368,-0.09272,-0.07808,-0.0732,-0.06344,-0.03416
-0.02928,0.0122,0.00488,0.01952,0.03416,-0.03172,-0.0488,-0.08784,-0.0732,-0.05368,-0.0488,-0.03416
-0.01952,0.00244,0.01464,0.0244,0.03416,-0.02684,-0.0488,-0.08784,-0.0732,-0.05368,-0.0488,-0.03416
-0.00976,-0.00976,0.02928,0.03416,0.03904,-0.0244,-0.0488,-0.08784,-0.06832,-0.05368,-0.04392,-0.03416
-0.00976,-0.00488,0.01952,0.0244,0.02928,-0.01952,-0.04392,-0.08296,-0.06832,-0.0488,-0.02928,-0.03904
-0.01464,0.00244,0.00976,0.01708,0.0244,-0.01952,-0.03904,-0.07808,-0.06344,-0.03904,-0.01464,-0.03904
-0.0244,0.00488,0.01464,0.02684,0.03904,-0.03172,-0.02928,-0.06832,-0.05368,-0.03416,-0.00976,-0.03904
-0.03416,0.00488,0.0244,0.04148,0.05856,-0.04636,0,-0.0488,-0.02928,-0.02928,-0.00488,-0.03904
-0.04392,0.00244,0.03904,0.061,0.08296,-0.06344,0.04392,-0.00976,0.02928,-0.01952,-0.0244,-0.03904
-0.04392,-0.0122,0.06832,0.09028,0.11224,-0.07808,0.08296,0.05856,0.0976,0.03416,-0.01464,-0.0244
-0.01464,-0.03416,0.08296,0.09028,0.0976,-0.05612,0.15616,0.18056,0.244,0.1464,0.05856,0.01464
0.04392,-0.06344,0.08296,0.061,0.03904,0.00244,0.1952,0.24888,0.38552,0.28792,0.17568,0.06832
0.15616,-0.13176,0.10736,0.02928,-0.0488,0.10248,0.12688,0.23424,0.45872,0.47336,0.33184,0.15128
0.366,-0.28792,0.20984,0.02684,-0.15616,0.26108,-0.05856,0.23424,0.61,0.79544,0.59536,0.30256
0.5612,-0.47336,0.38552,0.10492,-0.17568,0.36844,-0.38552,0.11224,0.71248,1.04432,0.8296,0.46848
0.67832,-0.61976,0.5612,0.22204,-0.11712,0.39772,-0.83936,-0.32696,0.53192,1.03944,0.9272,0.60512
0.63928,-0.61488,0.59048,0.27084,-0.0488,0.34404,-1.08336,-0.76128,0.12688,0.72224,0.76616,0.59048
0.43432,-0.366,0.29768,0.08052,-0.13664,0.28548,-1.11264,-1.22488,-0.46848,0.08296,0.27816,0.3416
0.22936,-0.20496,0.18056,0.06588,-0.0488,0.13908,-1.27368,-1.6592,-1.0248,-0.39528,-0.05368,0.1952
0.13176,-0.10004,0.06832,0.00244,-0.06344,0.0976,-1.23464,-1.52256,-1.05408,-0.48312,-0.1708,0.07808
0.11224,-0.06588,0.01952,-0.0366,-0.09272,0.10248,-1.09312,-1.28832,-0.93208,-0.4636,-0.20496,0.00976
0.07808,-0.05368,0.02928,-0.00976,-0.0488,0.06344,-0.93208,-1.05408,-0.79056,-0.42456,-0.22448,-0.02928
0.03904,-0.07076,0.10248,0.08296,0.06344,-0.0122,-0.67832,-0.75152,-0.52216,-0.2684,-0.14152,-0.00488
0.03904,-0.07808,0.11712,0.0976,0.07808,-0.01952,-0.45384,-0.47336,-0.2928,-0.1464,-0.0732,0.00488
0.03416,-0.07076,0.10736,0.09028,0.0732,-0.01952,-0.25864,-0.25864,-0.16592,-0.07808,-0.0244,0.01464
0.03416,-0.06832,0.10248,0.0854,0.06832,-0.01708,-0.13176,-0.16104,-0.10248,-0.02928,0.00488,0.0244
0.02928,-0.061,0.09272,0.07808,0.06344,-0.01708,-0.0488,-0.09272,-0.03416,-0.01952,0.00488,0.00976
0.01952,-0.05612,0.09272,0.08296,0.0732,-0.02684,-0.01952,-0.05368,0.01952,-0.0244,-0.00488,0
0.00488,-0.03904,0.0732,0.07076,0.06832,-0.03172,-0.00976,-0.03416,0.01952,-0.01464,-0.00488,-0.00488
0.00488,-0.02928,0.05368,0.05124,0.0488,-0.02196,0,-0.02928,0.00488,-0.00488,-0.00488,-0.00976
0.01464,-0.02928,0.04392,0.0366,0.02928,-0.00732,0.00976,-0.01464,0.01464,-0.00488,-0.00488,-0.01464
0.01464,-0.02684,0.03904,0.03172,0.0244,-0.00488,0.01464,0,0.03416,0,-0.01464,-0.01952
0.00488,-0.03172,0.05856,0.05612,0.05368,-0.0244,0.01952,0.00976,0.0488,0.01464,0.01952,-0.00976
0.00488,-0.0488,0.09272,0.09028,0.08784,-0.04148,0.01464,0.01952,0.05856,0.03904,0.06344,0
0.00976,-0.04636,0.08296,0.07808,0.0732,-0.03172,0.0244,0.0244,0.06832,0.0488,0.05856,0
0.00976,-0.04148,0.0732,0.06832,0.06344,-0.02684,0.03416,0.03904,0.08296,0.05856,0.05368,0
0.00976,-0.03904,0.06832,0.06344,0.05856,-0.0244,0.03416,0.04392,0.07808,0.03416,0.03416,0
0.00976,-0.0366,0.06344,0.05856,0.05368,-0.02196,0.04392,0.04392,0.06344,0.00488,-0.00488,-0.00488
0.01464,-0.03904,0.06344,0.05612,0.0488,-0.01708,0.04392,0.0488,0.06344,0.00488,-0.00976,0
0.01464,-0.03904,0.06344,0.05612,0.0488,-0.01708,0.0488,0.05368,0.06832,0.00488,-0.00976,0
0.01464,-0.03904,0.06344,0.05612,0.0488,-0.01708,0.05368,0.06344,0.0732,0.01464,0,0
0.01464,-0.03904,0.06344,0.05612,0.0488,-0.01708,0.05856,0.0732,0.08784,0.0244,0.00976,0
0.00976,-0.0366,0.06344,0.05856,0.05368,-0.02196,0.06832,0.07808,0.09272,0.02928,0.00976,0
0.00976,-0.0366,0.06344,0.05856,0.05368,-0.02196,0.0732,0.08296,0.09272,0.02928,0.01464,0
0.0244,-0.04392,0.06344,0.05124,0.03904,-0.00732,0.05856,0.08784,0.0976,0.03904,0.02928,0
0.03416,-0.05124,0.06832,0.05124,0.03416,0,0.0488,0.0976,0.10248,0.0488,0.04392,0
0.02928,-0.0488,0.06832,0.05368,0.03904,-0.00488,0.06344,0.0976,0.10736,0.05368,0.04392,0
0.01952,-0.04392,0.06832,0.05856,0.0488,-0.01464,0.0732,0.0976,0.11224,0.05368,0.04392,0
0.01464,-0.04148,0.06832,0.061,0.05368,-0.01952,0.07808,0.10736,0.11712,0.06832,0.04392,0
0.01464,-0.04148,0.06832,0.061,0.05368,-0.01952,0.07808,0.10736,0.11712,0.08296,0.04392,0
0.01464,-0.03904,0.06344,0.05612,0.0488,-0.01708,0.07808,0.11712,0.122,0.06832,0.03416,0
0.01464,-0.03416,0.05368,0.04636,0.03904,-0.0122,0.08296,0.12688,0.122,0.0488,0.0244,0.00488
0.01952,-0.03416,0.0488,0.03904,0.02928,-0.00488,0.08296,0.12688,0.12688,0.0488,0.02928,0.00488
0.0244,-0.03416,0.04392,0.03172,0.01952,0.00244,0.08296,0.13176,0.13664,0.0488,0.02928,0.00488
0.0244,-0.03416,0.04392,0.03172,0.01952,0.00244,0.08784,0.13664,0.13664,0.08296,0.05856,0.00488
0.0244,-0.03416,0.04392,0.03172,0.01952,0.00244,0.08784,0.13664,0.14152,0.11712,0.08784,0.00488
0.0244,-0.0366,0.0488,0.0366,0.0244,0,0.08784,0.14152,0.14152,0.08784,0.05856,0.00488
0.0244,-0.0366,0.0488,0.0366,0.0244,0,0.09272,0.15128,0.14152,0.05856,0.02928,0.00488
0.01952,-0.03416,0.0488,0.03904,0.02928,-0.00488,0.09272,0.14152,0.13664,0.04392,0.01464,0.00488
0.01952,-0.0366,0.05368,0.04392,0.03416,-0.00732,0.09272,0.1464,0.13664,0.03416,0.00488,0
0.01952,-0.03416,0.0488,0.03904,0.02928,-0.00488,0.09272,0.15616,0.13664,0.03904,0.00488,0
0.01952,-0.03172,0.04392,0.03416,0.0244,-0.00244,0.10248,0.16104,0.14152,0.03904,0.00488,0
0.0244,-0.02928,0.03416,0.02196,0.00976,0.00732,0.10248,0.16592,0.14152,0.03904,0.00488,-0.00488
0.02928,-0.03172,0.03416,0.01952,0.00488,0.0122,0.10736,0.1708,0.1464,0.03904,0.00976,-0.00976
0.02928,-0.03416,0.03904,0.0244,0.00976,0.00976,0.10736,0.18056,0.1464,0.04392,0.01952,-0.00976
0.02928,-0.0366,0.04392,0.02928,0.01464,0.00732,0.10736,0.18544,0.15128,0.0488,0.0244,-0.01464
0.03904,-0.04148,0.04392,0.0244,0.00488,0.01708,0.11712,0.1952,0.15616,0.05368,0.0244,-0.01464
0.0488,-0.04636,0.04392,0.01952,-0.00488,0.02684,0.11712,0.20496,0.16592,0.05368,0.02928,-0.00976
0.03904,-0.03904,0.03904,0.01952,0,0.01952,0.122,0.2196,0.16592,0.05368,0.02928,-0.00976
0.0244,-0.03172,0.03904,0.02684,0.01464,0.00488,0.13176,0.23424,0.1708,0.05368,0.0244,-0.01464
0.0244,-0.02928,0.03416,0.02196,0.00976,0.00732,0.13664,0.23912,0.1708,0.04392,0,-0.02928
0.01952,-0.02196,0.0244,0.01464,0.00488,0.00732,0.1464,0.25376,0.17568,0.04392,-0.00976,-0.03416
0.0244,-0.02196,0.01952,0.00732,-0.00488,0.01464,0.15616,0.26352,0.18056,0.04392,-0.00976,-0.03416
0.02928,-0.0244,0.01952,0.00488,-0.00976,0.01952,0.16592,0.28304,0.18056,0.04392,-0.00976,-0.03416
0.02928,-0.01708,0.00488,-0.00976,-0.0244,0.02684,0.1708,0.28792,0.19032,0.04392,-0.00488,-0.03904
0.02928,-0.01464,0,-0.01464,-0.02928,0.02928,0.1708,0.2928,0.19032,0.02928,-0.00976,-0.03904
0.0244,-0.0122,0,-0.0122,-0.0244,0.0244,0.17568,0.30256,0.19032,0.02928,-0.00488,-0.0488
0.01952,-0.00976,0,-0.00976,-0.01952,0.01952,0.18056,0.30744,0.19032,0.02928,-0.00976,-0.05856
0.01464,-0.00732,0,-0.00732,-0.01464,0.01464,0.18056,0.31232,0.18544,0.00976,-0.01952,-0.05856
0.01464,-0.00732,0,-0.00732,-0.01464,0.01464,0.18544,0.3172,0.18056,0.00488,-0.01952,-0.05856
0.01464,0.00244,-0.01952,-0.02684,-0.03416,0.0244,0.18544,0.31232,0.16104,-0.01464,-0.04392,-0.05368
0.00976,0.00976,-0.02928,-0.03416,-0.03904,0.0244,0.19032,0.30256,0.14152,-0.03904,-0.06344,-0.05368
0.00976,0.00976,-0.02928,-0.03416,-0.03904,0.0244,0.1952,0.30744,0.13664,-0.04392,-0.0732,-0.05368
0.00976,0.00976,-0.02928,-0.03416,-0.03904,0.0244,0.1952,0.30256,0.13664,-0.05856,-0.07808,-0.06344
0.01464,0.00732,-0.02928,-0.0366,-0.04392,0.02928,0.19032,0.2928,0.11712,-0.05856,-0.07808,-0.0732
0.00976,0.00976,-0.02928,-0.03416,-0.03904,0.0244,0.18056,0.27816,0.10248,-0.06344,-0.07808,-0.07808
0.00976,0.00976,-0.02928,-0.03416,-0.03904,0.0244,0.18056,0.26352,0.09272,-0.08296,-0.09272,-0.07808
0.00976,0.00976,-0.02928,-0.03416,-0.03904,0.0244,0.1708,0.24888,0.07808,-0.10248,-0.11224,-0.08296
0.00976,0.00976,-0.02928,-0.03416,-0.03904,0.0244,0.15616,0.22936,0.06344,-0.0976,-0.0976,-0.0732
0.00488,0.00976,-0.0244,-0.02684,-0.02928,0.01708,0.14152,0.20008,0.0488,-0.09272,-0.08296,-0.06344
0.00488,0.00976,-0.0244,-0.02684,-0.02928,0.01708,0.13176,0.18056,0.04392,-0.08784,-0.0732,-0.06344
0.00976,0.00732,-0.0244,-0.02928,-0.03416,0.02196,0.122,0.15616,0.03904,-0.08296,-0.06344,-0.05368
0.00976,0.00732,-0.0244,-0.02928,-0.03416,0.02196,0.10248,0.13664,0.03904,-0.07808,-0.05856,-0.0488
0.00976,0.0122,-0.03416,-0.03904,-0.04392,0.02684,0.08296,0.11712,0.03904,-0.06832,-0.05368,-0.04392
0.00976,0,-0.00976,-0.01464,-0.01952,0.01464,0.06344,0.07808,0.03416,-0.0488,-0.04392,-0.02928
0.01464,-0.01708,0.01952,0.0122,0.00488,0.00488,0.04392,0.0488,0.02928,-0.02928,-0.02928,-0.0244
0.01952,-0.01952,0.01952,0.00976,0,0.00976,0.03904,0.02928,0.01952,-0.02928,-0.02928,-0.01952
0.0244,-0.02196,0.01952,0.00732,-0.00488,0.01464,0.02928,0.01464,0.00976,-0.0244,-0.01464,-0.01464
0.01952,-0.01952,0.01952,0.00976,0,0.00976,0.01464,-0.00488,0.01464,-0.0244,-0.01464,-0.00976
0.01464,-0.01708,0.01952,0.0122,0.00488,0.00488,0.01464,-0.00976,0.00976,-0.0244,-0.01464,-0.00976
0.01464,-0.01708,0.01952,0.0122,0.00488,0.00488,0.00488,-0.02928,0,-0.0244,-0.00976,-0.00488
0.01952,-0.01952,0.01952,0.00976,0,0.00976,-0.00488,-0.04392,-0.00976,-0.0244,-0.00488,-0.00488
0.01952,-0.02196,0.0244,0.01464,0.00488,0.00732,-0.01464,-0.05368,-0.01464,-0.00488,0.01464,-0.00488
0.01952,-0.02196,0.0244,0.01464,0.00488,0.00732,-0.01464,-0.05856,-0.00976,0.01464,0.0244,-0.00976
0.00976,-0.01708,0.0244,0.01952,0.01464,-0.00244,-0.00976,-0.06344,-0.01464,-0.00488,0.00488,-0.00488
0.00488,-0.01464,0.0244,0.02196,0.01952,-0.00732,-0.00976,-0.06344,-0.01952,-0.0244,-0.00488,-0.00488
0,-0.0122,0.0244,0.0244,0.0244,-0.0122,-0.01464,-0.06832,-0.02928,-0.0244,-0.00488,-0.00488
0,-0.0122,0.0244,0.0244,0.0244,-0.0122,-0.01464,-0.06832,-0.02928,-0.0244,-0.00488,-0.00488
0,-0.0122,0.0244,0.0244,0.0244,-0.0122,-0.01464,-0.0732,-0.02928,-0.0244,-0.00488,-0.00488
0,-0.0122,0.0244,0.0244,0.0244,-0.0122,-0.01464,-0.0732,-0.03416,-0.0244,-0.00488,-0.00488
0,-0.00976,0.01952,0.01952,0.01952,-0.00976,-0.01464,-0.0732,-0.03416,-0.0244,-0.00976,-0.00488
0,-0.00488,0.00976,0.00976,0.00976,-0.00488,-0.01464,-0.0732,-0.03416,-0.01952,-0.00976,-0.00488
-0.00488,-0.00244,0.00976,0.0122,0.01464,-0.00976,-0.01464,-0.06832,-0.0244,-0.01464,0,-0.00976
-0.00976,0,0.00976,0.01464,0.01952,-0.01464,-0.00976,-0.06344,-0.01464,-0.00976,0.00976,-0.00976
-0.00976,0,0.00976,0.01464,0.01952,-0.01464,0,-0.06344,-0.01464,-0.00976,0.01464,-0.00488
-0.00488,-0.00244,0.00976,0.0122,0.01464,-0.00976,0.00488,-0.05856,-0.01464,-0.00976,0.01464,-0.00488
0.00976,-0.00976,0.00976,0.00488,0,0.00488,-0.00488,-0.06344,-0.0244,-0.01464,-0.00488,-0.00976
0.01952,-0.01464,0.00976,0,-0.00976,0.01464,-0.01464,-0.0732,-0.03416,-0.0244,-0.01464,-0.01464
0.02928,-0.01952,0.00976,-0.00488,-0.01952,0.0244,-0.01464,-0.0732,-0.02928,-0.0244,-0.01464,-0.01464
0.03416,-0.02196,0.00976,-0.00732,-0.0244,0.02928,-0.00976,-0.06832,-0.0244,-0.01952,-0.00976,-0.00976
0.01952,-0.01464,0.00976,0,-0.00976,0.01464,0,-0.05856,-0.01952,-0.00976,0,-0.00488
0.00976,-0.0122,0.01464,0.00976,0.00488,0.00244,0.00488,-0.05368,-0.01952,-0.00488,0.00488,0
0.00976,-0.01464,0.01952,0.01464,0.00976,0,0.00488,-0.05368,-0.01464,-0.00976,0.00488,-0.00488
0.00976,-0.01708,0.0244,0.01952,0.01464,-0.00244,0,-0.05368,-0.01464,-0.00976,0.00488,-0.00488
0.00976,-0.01708,0.0244,0.01952,0.01464,-0.00244,0,-0.0488,-0.01464,-0.00976,0.00488,-0.00488
0.00976,-0.01708,0.0244,0.01952,0.01464,-0.00244,0,-0.04392,-0.01464,-0.00976,0.00488,0
0.00976,-0.01464,0.01952,0.01464,0.00976,0,0,-0.04392,-0.00976,-0.00488,0.00976,0
0.00976,-0.0122,0.01464,0.00976,0.00488,0.00244,0.00488,-0.03904,-0.00488,-0.00488,0.01464,-0.00488
0.00976,-0.0122,0.01464,0.00976,0.00488,0.00244,0.00488,-0.03904,-0.00488,-0.00488,0.01464,-0.00488
0.00488,-0.00976,0.01464,0.0122,0.00976,-0.00244,0,-0.03904,-0.00488,-0.00488,0.01464,0
0,-0.00976,0.01952,0.01952,0.01952,-0.00976,0,-0.03904,-0.00488,0,0.01464,0
0,-0.00976,0.01952,0.01952,0.01952,-0.00976,0.00488,-0.03416,-0.00976,0,0.00976,0
0.00488,-0.00976,0.01464,0.0122,0.00976,-0.00244,0.00488,-0.03416,-0.00976,-0.00976,0.00488,0
0.00488,-0.00976,0.01464,0.0122,0.00976,-0.00244,0.00488,-0.03904,-0.01464,-0.01952,0,-0.00488
0.00488,-0.00976,0.01464,0.0122,0.00976,-0.00244,0.00488,-0.03904,-0.01464,-0.01952,0,-0.00488
0.00488,-0.0122,0.01952,0.01708,0.01464,-0.00488,0.00488,-0.03904,-0.00976,-0.01464,0,-0.00488
0.00488,-0.0122,0.01952,0.01708,0.01464,-0.00488,0.00488,-0.03416,-0.00488,-0.00488,0.01952,0
0.00488,-0.0122,0.01952,0.01708,0.01464,-0.00488,0.00488,-0.03416,-0.00488,0.00976,0.03904,0
-0.00488,-0.00732,0.01952,0.02196,0.0244,-0.01464,0.00488,-0.03904,-0.00488,0.00976,0.03904,-0.00488
-0.00488,-0.00488,0.01464,0.01708,0.01952,-0.0122,0.00488,-0.03904,-0.00976,0.00488,0.02928,-0.00488
0,-0.00732,0.01464,0.01464,0.01464,-0.00732,0,-0.03904,-0.0244,-0.01952,-0.00976,-0.00976
0.00976,-0.0122,0.01464,0.00976,0.00488,0.00244,-0.00488,-0.0488,-0.03416,-0.05368,-0.04392,-0.01464
0.01464,-0.0122,0.00976,0.00244,-0.00488,0.00976,-0.00976,-0.0488,-0.03416,-0.05368,-0.04392,-0.01464
0.01464,-0.0122,0.00976,0.00244,-0.00488,0.00976,-0.00976,-0.0488,-0.03416,-0.05368,-0.04392,-0.01952
0.00976,-0.00976,0.00976,0.00488,0,0.00488,-0.00488,-0.05368,-0.03904,-0.0488,-0.02928,-0.01952
0.00976,-0.00976,0.00976,0.00488,0,0.00488,0.00488,-0.05368,-0.03416,-0.04392,-0.01464,-0.01952
0.00488,-0.00976,0.01464,0.0122,0.00976,-0.00244,0.00488,-0.05856,-0.03904,-0.03904,-0.0244,-0.01952
0.00488,-0.0122,0.01952,0.01708,0.01464,-0.00488,0,-0.05856,-0.03904,-0.03416,-0.0244,-0.01464
0,-0.00976,0.01952,0.01952,0.01952,-0.00976,0,-0.05856,-0.03416,-0.02928,-0.01464,-0.01464
0,-0.00732,0.01464,0.01464,0.01464,-0.00732,0,-0.05856,-0.03416,-0.0244,-0.00976,-0.01952
0.00488,-0.00732,0.00976,0.00732,0.00488,0,-0.00488,-0.05856,-0.03416,-0.01952,-0.00488,-0.0244
0.00976,-0.00976,0.00976,0.00488,0,0.00488,-0.00488,-0.06344,-0.03904,-0.0244,0,-0.0244
0.00976,-0.00976,0.00976,0.00488,0,0.00488,-0.00488,-0.06344,-0.04392,-0.0244,-0.00488,-0.01952
0.00488,-0.00732,0.00976,0.00732,0.00488,0,-0.00488,-0.06344,-0.04392,-0.0244,-0.00488,-0.01464
0,-0.00488,0.00976,0.00976,0.00976,-0.00488,-0.00488,-0.06344,-0.04392,-0.02928,-0.00488,-0.01464
0,-0.00488,0.00976,0.00976,0.00976,-0.00488,-0.00488,-0.06344,-0.04392,-0.02928,-0.00976,-0.01952
0.00488,-0.00976,0.01464,0.0122,0.00976,-0.00244,-0.00488,-0.06344,-0.0488,-0.03416,-0.01952,-0.01952
0.00488,-0.00976,0.01464,0.0122,0.00976,-0.00244,-0.01464,-0.06832,-0.0488,-0.04392,-0.02928,-0.01952
0.00488,-0.00488,0.00488,0.00244,0,0.00244,-0.01464,-0.06832,-0.05368,-0.04392,-0.01952,-0.01952
0,0,0,0,0,0,-0.00976,-0.06832,-0.05368,-0.04392,-0.00488,-0.01952
-0.01952,0.01952,-0.01952,-0.00976,0,-0.00976,-0.01464,-0.06832,-0.05368,-0.04392,-0.00488,-0.01952
-0.04392,0.0366,-0.02928,-0.00732,0.01464,-0.02928,-0.01952,-0.0732,-0.05368,-0.04392,-0.00976,-0.02928
-0.05368,0.04392,-0.03416,-0.00732,0.01952,-0.0366,-0.0244,-0.07808,-0.06344,-0.0488,-0.00976,-0.03416
-0.06344,0.05124,-0.03904,-0.00732,0.0244,-0.04392,-0.02928,-0.08296,-0.06344,-0.0488,-0.00976,-0.03416
-0.0488,0.04392,-0.03904,-0.01464,0.00976,-0.02928,-0.02928,-0.07808,-0.06344,-0.04392,-0.00976,-0.03416
-0.03416,0.03904,-0.04392,-0.02684,-0.00976,-0.0122,-0.0244,-0.07808,-0.06344,-0.04392,0,-0.03416
-0.02928,0.03416,-0.03904,-0.0244,-0.00976,-0.00976,-0.01952,-0.07808,-0.06344,-0.05368,-0.0244,-0.03416
-0.03416,0.03416,-0.03416,-0.01708,0,-0.01708,-0.01952,-0.07808,-0.06344,-0.06344,-0.03904,-0.03416
-0.02928,0.0244,-0.01952,-0.00488,0.00976,-0.01952,-0.01952,-0.07808,-0.06344,-0.06832,-0.04392,-0.02928
-0.0244,0.01708,-0.00976,0.00244,0.01464,-0.01952,-0.01952,-0.07808,-0.06344,-0.06832,-0.0488,-0.0244
-0.01952,0.01464,-0.00976,0,0.00976,-0.01464,-0.01952,-0.0732,-0.06832,-0.06832,-0.04392,-0.0244
-0.00488,0.00732,-0.00976,-0.00732,-0.00488,0,-0.01952,-0.06832,-0.06832,-0.06344,-0.03416,-0.0244
-0.00488,0.00732,-0.00976,-0.00732,-0.00488,0,-0.01952,-0.06832,-0.06832,-0.05856,-0.03416,-0.0244
-0.00488,0.00732,-0.00976,-0.00732,-0.00488,0,-0.01952,-0.06832,-0.06832,-0.0488,-0.02928,-0.0244
-0.00976,0.00244,0.00488,0.00976,0.01464,-0.0122,-0.01952,-0.06832,-0.06344,-0.0488,-0.02928,-0.0244
-0.00976,0,0.00976,0.01464,0.01952,-0.01464,-0.01952,-0.0732,-0.06344,-0.04392,-0.02928,-0.0244
-0.01464,0.00732,0,0.00732,0.01464,-0.01464,-0.01952,-0.0732,-0.06344,-0.04392,-0.00976,-0.0244
-0.0244,0.01708,-0.00976,0.00244,0.01464,-0.01952,-0.01952,-0.07808,-0.06344,-0.04392,0.00488,-0.0244
-0.00976,0.00976,-0.00976,-0.00488,0,-0.00488,0,-0.05856,-0.0488,-0.03416,0,-0.01952
0,0.00488,-0.00976,-0.00976,-0.00976,0.00488,0.01952,-0.03904,-0.03904,-0.02928,0,-0.01952
0.00976,0,-0.00976,-0.01464,-0.01952,0.01464,0.01952,-0.03904,-0.03904,-0.03904,-0.01952,-0.01952
0.01952,-0.00488,-0.00976,-0.01952,-0.02928,0.0244,0.01952,-0.03904,-0.03904,-0.0488,-0.03904,-0.01952
0.01952,-0.00732,-0.00488,-0.01464,-0.0244,0.02196,0.0244,-0.02928,-0.02928,-0.03904,-0.0244,-0.01464
0.01952,-0.00976,0,-0.00976,-0.01952,0.01952,0.03416,-0.01464,-0.01952,-0.0244,-0.00488,-0.00976
0.01952,-0.00976,0,-0.00976,-0.01952,0.01952,0.0488,-0.00488,-0.00976,-0.00976,0.01464,-0.00488
0.01952,-0.00976,0,-0.00976,-0.01952,0.01952,0.06344,0.00976,-0.00488,0,0.0244,-0.00488
0.0244,-0.0122,0,-0.0122,-0.0244,0.0244,0.05368,0.00488,-0.00488,-0.00488,0.00976,-0.00488
0.02928,-0.01464,0,-0.01464,-0.02928,0.02928,0.03904,0,-0.01952,-0.01464,0.00488,-0.00488
0.02928,-0.01708,0.00488,-0.00976,-0.0244,0.02684,0.02928,-0.00976,-0.03416,-0.01464,0.00488,0
0.03416,-0.01952,0.00488,-0.0122,-0.02928,0.03172,0.0244,-0.01952,-0.03904,-0.01952,0,0.00488
0.03904,-0.02196,0.00488,-0.01464,-0.03416,0.0366,0.00976,-0.03904,-0.03416,-0.01464,0.01464,0
0.03416,-0.01952,0.00488,-0.0122,-0.02928,0.03172,-0.01464,-0.05368,-0.03416,-0.00488,0.03416,0
0.03416,-0.01708,0,-0.01708,-0.03416,0.03416,-0.0244,-0.05368,-0.03904,0.00976,0.0488,-0.00488
0.04392,-0.02196,0,-0.02196,-0.04392,0.04392,-0.02928,-0.05368,-0.03904,0.0244,0.06344,-0.00976
0.0488,-0.02684,0.00488,-0.01952,-0.04392,0.04636,-0.0244,-0.05368,-0.04392,-0.00488,0.02928,-0.00976
0.05856,-0.03416,0.00976,-0.01952,-0.0488,0.05368,-0.0244,-0.05368,-0.0488,-0.03904,-0.01464,-0.00976
0.05368,-0.03172,0.00976,-0.01708,-0.04392,0.0488,-0.0244,-0.05856,-0.06344,-0.06832,-0.04392,-0.00488
0.05368,-0.02684,0,-0.02684,-0.05368,0.05368,-0.03416,-0.07808,-0.08296,-0.08784,-0.06344,0
0.0488,-0.0244,0,-0.0244,-0.0488,0.0488,-0.03416,-0.07808,-0.08296,-0.0732,-0.04392,0
0.0488,-0.0244,0,-0.0244,-0.0488,0.0488,-0.03416,-0.07808,-0.08296,-0.05856,-0.0244,0
0.04392,-0.02928,0.01464,-0.00732,-0.02928,0.0366,-0.03416,-0.07808,-0.06832,-0.04392,-0.01464,0
0.03904,-0.03172,0.0244,0.00488,-0.01464,0.02684,-0.02928,-0.0732,-0.05856,-0.03416,-0.00488,0
0.0244,-0.01952,0.01464,0.00244,-0.00976,0.01708,-0.0244,-0.06832,-0.05856,-0.03904,-0.00976,-0.00488
0.00488,-0.00244,0,-0.00244,-0.00488,0.00488,-0.0244,-0.0732,-0.06344,-0.04392,-0.00976,-0.00976
0.00488,0.00488,-0.01464,-0.01708,-0.01952,0.0122,-0.02928,-0.08296,-0.06832,-0.0488,-0.01952,-0.00976
0.00488,0.00488,-0.01464,-0.01708,-0.01952,0.0122,-0.02928,-0.08296,-0.0732,-0.05368,-0.01952,-0.01952
0.00488,0.00488,-0.01464,-0.01708,-0.01952,0.0122,-0.03416,-0.08296,-0.07808,-0.05368,-0.01464,-0.01952
0,0.00488,-0.00976,-0.00976,-0.00976,0.00488,-0.03416,-0.08296,-0.07808,-0.05368,-0.01464,-0.01952
0,0.00488,-0.00976,-0.00976,-0.00976,0.00488,-0.03416,-0.08296,-0.07808,-0.05368,-0.01464,-0.0244
0.00488,0.00244,-0.00976,-0.0122,-0.01464,0.00976,-0.03416,-0.07808,-0.0732,-0.05368,-0.01464,-0.02928
0.00488,0.00244,-0.00976,-0.0122,-0.01464,0.00976,-0.03416,-0.08296,-0.0732,-0.0488,-0.0244,-0.02928
0.00488,0.00244,-0.00976,-0.0122,-0.01464,0.00976,-0.03416,-0.08784,-0.06832,-0.0488,-0.03904,-0.02928
0,0.00488,-0.00976,-0.00976,-0.00976,0.00488,-0.02928,-0.08296,-0.06832,-0.05368,-0.02928,-0.02928
-0.00488,0.00488,-0.00488,-0.00244,0,-0.00244,-0.02928,-0.08296,-0.06832,-0.05368,-0.01952,-0.02928
-0.00488,0.00244,0,0.00244,0.00488,-0.00488,-0.0244,-0.07808,-0.06832,-0.03904,-0.00488,-0.0244
-0.00976,0.00488,0,0.00488,0.00976,-0.00976,-0.0244,-0.0732,-0.06344,-0.0244,0.00976,-0.01952
-0.01464,0.00732,0,0.00732,0.01464,-0.01464,-0.0244,-0.0732,-0.06344,-0.03416,0,-0.01464
-0.01952,0.0122,-0.00488,0.00488,0.01464,-0.01708,-0.01952,-0.06832,-0.06344,-0.04392,-0.00976,-0.01464
-0.01952,0.01464,-0.00976,0,0.00976,-0.01464,-0.01952,-0.06832,-0.06832,-0.0488,-0.01952,-0.01464
-0.01952,0.01464,-0.00976,0,0.00976,-0.01464,-0.01952,-0.06832,-0.06832,-0.05368,-0.0244,-0.01464
-0.00976,0.00976,-0.00976,-0.00488,0,-0.00488,-0.01952,-0.06832,-0.06832,-0.05368,-0.02928,-0.0244
-0.00488,0.00732,-0.00976,-0.00732,-0.00488,0,-0.01952,-0.06832,-0.06344,-0.0488,-0.03416,-0.02928
-0.01464,0.00976,-0.00488,0.00244,0.00976,-0.0122,-0.00976,-0.05856,-0.05368,-0.04392,-0.02928,-0.02928
-0.0244,0.00976,0.00488,0.01708,0.02928,-0.02684,0.01952,-0.03904,-0.02928,-0.03904,-0.0244,-0.02928
-0.02928,-0.00244,0.03416,0.0488,0.06344,-0.04636,0.06344,0.00488,0.0488,-0.00488,0,-0.01952
-0.0244,-0.02684,0.07808,0.09028,0.10248,-0.06344,0.10248,0.07808,0.13664,0.0732,0.05368,0.00488
0.00976,-0.05368,0.0976,0.09272,0.08784,-0.03904,0.15616,0.17568,0.2928,0.23424,0.16592,0.05856
0.0732,-0.08784,0.10248,0.06588,0.02928,0.02196,0.17568,0.2196,0.44408,0.42456,0.32208,0.12688
0.18544,-0.16592,0.1464,0.05368,-0.03904,0.11224,0.0732,0.20496,0.55144,0.63928,0.50264,0.23424
0.39528,-0.33184,0.2684,0.07076,-0.12688,0.26108,-0.1464,0.20496,0.73688,0.99064,0.79056,0.40992
0.57096,-0.49776,0.42456,0.13908,-0.1464,0.35868,-0.46848,0.06344,0.7808,1.17608,0.96136,0.55144
0.66856,-0.62464,0.58072,0.24644,-0.08784,0.3782,-0.91744,-0.39528,0.54168,1.10776,0.99552,0.66368
0.62952,-0.59536,0.5612,0.24644,-0.06832,0.34892,-1.1468,-0.79544,0.08784,0.73688,0.79544,0.61976
0.42456,-0.32208,0.2196,0.00732,-0.20496,0.31476,-1.16144,-1.22488,-0.55632,0.04392,0.2684,0.3416
0.23424,-0.1708,0.10736,-0.00976,-0.12688,0.18056,-1.27856,-1.60552,-1.09312,-0.43432,-0.06344,0.20008
0.15128,-0.07564,0,-0.07564,-0.15128,0.15128,-1.1956,-1.4152,-1.10288,-0.52216,-0.18056,0.08784
0.13664,-0.05124,-0.03416,-0.10248,-0.1708,0.15372,-1.03944,-1.20048,-0.9516,-0.48312,-0.1952,0.0244
0.10736,-0.0488,-0.00976,-0.06344,-0.11712,0.11224,-0.86376,-0.98576,-0.7808,-0.42456,-0.1952,-0.00976
0.05368,-0.05856,0.06344,0.0366,0.00976,0.02196,-0.61,-0.68808,-0.50752,-0.25864,-0.11224,0.01952
0.03904,-0.05856,0.07808,0.05856,0.03904,0,-0.38552,-0.4148,-0.27328,-0.12688,-0.04392,0.03416
0.03904,-0.0488,0.05856,0.03904,0.01952,0.00976,-0.20496,-0.20496,-0.13664,-0.05856,-0.00488,0.03416
0.04392,-0.04392,0.04392,0.02196,0,0.02196,-0.09272,-0.11224,-0.06344,-0.00976,0.01464,0.03416
0.03904,-0.0366,0.03416,0.01464,-0.00488,0.02196,-0.01464,-0.05368,-0.0244,0.00488,0.01952,0.01952
0.02928,-0.03172,0.03416,0.01952,0.00488,0.0122,0.00976,-0.0244,0,0.00488,0.01464,0.00976
0.01464,-0.0244,0.03416,0.02684,0.01952,-0.00244,0.01952,-0.00488,0.01464,0.00488,0.01464,0.00976
0.01464,-0.0244,0.03416,0.02684,0.01952,-0.00244,0.02928,0,0.01464,0.00488,0.01464,0.00976
0.0244,-0.02928,0.03416,0.02196,0.00976,0.00732,0.04392,0.01464,0.01952,0.00488,0.01952,0.00976
0.0244,-0.03172,0.03904,0.02684,0.01464,0.00488,0.05368,0.02928,0.03416,0.00976,0.01464,0.00976
0.01464,-0.02684,0.03904,0.03172,0.0244,-0.00488,0.06344,0.03904,0.0488,0.00976,0.01464,0.00976
0.01464,-0.03416,0.05368,0.04636,0.03904,-0.0122,0.06344,0.0488,0.05856,0.01952,0.0244,0.00976
0.03416,-0.04392,0.05368,0.0366,0.01952,0.00732,0.06832,0.05368,0.06344,0.02928,0.03416,0.00488
0.0488,-0.05124,0.05368,0.02928,0.00488,0.02196,0.0732,0.06832,0.0732,0.03904,0.04392,0
0.03904,-0.04636,0.05368,0.03416,0.01464,0.0122,0.0732,0.07808,0.08784,0.04392,0.0488,0.00488
0.02928,-0.04148,0.05368,0.03904,0.0244,0.00244,0.08296,0.08296,0.09272,0.04392,0.03416,0.00488
0.01952,-0.03172,0.04392,0.03416,0.0244,-0.00244,0.08296,0.08784,0.09272,0.04392,0.02928,0.00976
0.00488,-0.01952,0.03416,0.03172,0.02928,-0.0122,0.08784,0.09272,0.0976,0.04392,0.02928,0.00976
0.00488,-0.01464,0.0244,0.02196,0.01952,-0.00732,0.08784,0.08784,0.08784,0.04392,0.02928,0.00976
0.00488,-0.00976,0.01464,0.0122,0.00976,-0.00244,0.08784,0.08296,0.08784,0.04392,0.02928,0.00976
0.00488,-0.01464,0.0244,0.02196,0.01952,-0.00732,0.08784,0.08784,0.09272,0.0488,0.02928,0.00976
0.00976,-0.02196,0.03416,0.02928,0.0244,-0.00732,0.08296,0.09272,0.09272,0.0488,0.03416,0.00976
0.01952,-0.02928,0.03904,0.02928,0.01952,0,0.08784,0.10248,0.10736,0.05368,0.0488,0.01464
0.0244,-0.0366,0.0488,0.0366,0.0244,0,0.0976,0.11712,0.122,0.05856,0.06344,0.01952
0.03416,-0.04392,0.05368,0.0366,0.01952,0.00732,0.10736,0.11712,0.12688,0.08296,0.08296,0.01952
0.03904,-0.0488,0.05856,0.03904,0.01952,0.00976,0.11224,0.11712,0.13176,0.10248,0.10248,0.01952
0.03904,-0.0488,0.05856,0.03904,0.01952,0.00976,0.11712,0.12688,0.13176,0.07808,0.06832,0.01464
0.04392,-0.05124,0.05856,0.0366,0.01464,0.01464,0.11712,0.12688,0.12688,0.05368,0.03416,0.00976
0.03904,-0.05124,0.06344,0.04392,0.0244,0.00732,0.11224,0.13176,0.12688,0.04392,0.00976,0.00976
0.03416,-0.0488,0.06344,0.04636,0.02928,0.00244,0.11224,0.13664,0.122,0.02928,-0.01464,0.01464
0.03416,-0.04148,0.0488,0.03172,0.01464,0.00976,0.11224,0.13664,0.12688,0.04392,0.00976,0.01464
0.03416,-0.03416,0.03416,0.01708,0,0.01708,0.11224,0.14152,0.13664,0.05856,0.02928,0.01464
0.03416,-0.03172,0.02928,0.0122,-0.00488,0.01952,0.11712,0.1464,0.13664,0.06344,0.02928,0.01464
0.03416,-0.02928,0.0244,0.00732,-0.00976,0.02196,0.11712,0.1464,0.14152,0.06832,0.02928,0.01464
0.02928,-0.02684,0.0244,0.00976,-0.00488,0.01708,0.11712,0.15128,0.14152,0.06832,0.03416,0.01464
0.0244,-0.02196,0.01952,0.00732,-0.00488,0.01464,0.122,0.16104,0.14152,0.06832,0.03904,0.01464
0.01464,-0.01708,0.01952,0.0122,0.00488,0.00488,0.122,0.16104,0.1464,0.06832,0.04392,0.01952
0.00976,-0.01708,0.0244,0.01952,0.01464,-0.00244,0.122,0.17568,0.15616,0.0732,0.05368,0.01952
0.00976,-0.01708,0.0244,0.01952,0.01464,-0.00244,0.122,0.18544,0.15616,0.07808,0.05368,0.01952
0.00976,-0.01708,0.0244,0.01952,0.01464,-0.00244,0.13176,0.19032,0.16104,0.07808,0.05368,0.01952
0.00976,-0.0122,0.01464,0.00976,0.00488,0.00244,0.13176,0.20008,0.16104,0.06832,0.04392,0.01952
0.00976,-0.0122,0.01464,0.00976,0.00488,0.00244,0.13664,0.20984,0.16592,0.05856,0.03904,0.01952
0.00976,-0.00732,0.00488,0,-0.00488,0.00732,0.14152,0.2196,0.16592,0.05856,0.03416,0.01464
0.00976,-0.00244,-0.00488,-0.00976,-0.01464,0.0122,0.1464,0.22448,0.1708,0.05856,0.0244,0.00488
0.00976,-0.00244,-0.00488,-0.00976,-0.01464,0.0122,0.15616,0.22936,0.17568,0.06344,0.0244,0
0.00976,-0.00244,-0.00488,-0.00976,-0.01464,0.0122,0.15616,0.23424,0.18544,0.06344,0.02928,0
0.00488,0.00732,-0.01952,-0.02196,-0.0244,0.01464,0.15616,0.24888,0.18544,0.06832,0.03904,0
-0.00488,0.01708,-0.02928,-0.02684,-0.0244,0.00976,0.16104,0.26352,0.19032,0.0732,0.04392,-0.00488
-0.0244,0.02928,-0.03416,-0.02196,-0.00976,-0.00732,0.16592,0.2684,0.20008,0.07808,0.05368,-0.00976
-0.0488,0.04636,-0.04392,-0.01952,0.00488,-0.02684,0.17568,0.28304,0.21472,0.09272,0.07808,-0.00488
-0.03904,0.04148,-0.04392,-0.0244,-0.00488,-0.01708,0.18544,0.28792,0.20984,0.06344,0.03416,-0.00488
-0.02928,0.03416,-0.03904,-0.0244,-0.00976,-0.00976,0.1952,0.30256,0.20008,0.03416,-0.00976,-0.00488
-0.01464,0.03172,-0.0488,-0.04148,-0.03416,0.00976,0.20008,0.31232,0.20496,0.0244,-0.0244,-0.01464
0,0.0244,-0.0488,-0.0488,-0.0488,0.0244,0.20008,0.32208,0.20008,0,-0.0488,-0.01952
0,0.02928,-0.05856,-0.05856,-0.05856,0.02928,0.20496,0.33184,0.20008,0.00976,-0.02928,-0.02928
0,0.03416,-0.06832,-0.06832,-0.06832,0.03416,0.20984,0.33672,0.20008,0.01952,-0.01952,-0.03904
-0.00976,0.03904,-0.06832,-0.06344,-0.05856,0.0244,0.21472,0.34648,0.20008,0.00976,-0.02928,-0.03904
-0.01464,0.04148,-0.06832,-0.061,-0.05368,0.01952,0.22448,0.35624,0.20008,0.01464,-0.02928,-0.03904
-0.00976,0.04148,-0.0732,-0.06832,-0.06344,0.02684,0.22448,0.35624,0.1952,0.00976,-0.03416,-0.03904
-0.00976,0.03904,-0.06832,-0.06344,-0.05856,0.0244,0.22936,0.35136,0.19032,0,-0.03416,-0.04392
-0.00976,0.03416,-0.05856,-0.05368,-0.0488,0.01952,0.23424,0.36112,0.18544,-0.00488,-0.04392,-0.04392
-0.00976,0.02928,-0.0488,-0.04392,-0.03904,0.01464,0.23424,0.36112,0.18544,-0.01952,-0.0488,-0.05368
-0.0244,0.04148,-0.05856,-0.04636,-0.03416,0.00488,0.23912,0.35136,0.1708,-0.0244,-0.05368,-0.06344
-0.0488,0.05856,-0.06832,-0.04392,-0.01952,-0.01464,0.23912,0.33672,0.16104,-0.03416,-0.05856,-0.06832
-0.0488,0.06588,-0.08296,-0.05856,-0.03416,-0.00732,0.23912,0.32208,0.15128,-0.04392,-0.06344,-0.05368
-0.0488,0.0732,-0.0976,-0.0732,-0.0488,0,0.22936,0.30744,0.13664,-0.05368,-0.0732,-0.04392
-0.02928,0.05612,-0.08296,-0.06832,-0.05368,0.0122,0.21472,0.28792,0.122,-0.06832,-0.08296,-0.04392
-0.01464,0.03904,-0.06344,-0.05612,-0.0488,0.01708,0.20008,0.25864,0.10736,-0.08296,-0.09272,-0.04392
-0.00488,0.0244,-0.04392,-0.04148,-0.03904,0.01708,0.18544,0.23912,0.0976,-0.06832,-0.07808,-0.03904
0.00976,0.00732,-0.0244,-0.02928,-0.03416,0.02196,0.1708,0.21472,0.08784,-0.05368,-0.06344,-0.0244
0.00976,0.00244,-0.01464,-0.01952,-0.0244,0.01708,0.15128,0.18544,0.08296,-0.05368,-0.05368,-0.01952
0.00976,0.00244,-0.01464,-0.01952,-0.0244,0.01708,0.13176,0.15616,0.07808,-0.0488,-0.04392,-0.01464
0,0.01464,-0.02928,-0.02928,-0.02928,0.01464,0.11224,0.122,0.06832,-0.02928,-0.0244,-0.00488
-0.00488,0.02196,-0.03904,-0.0366,-0.03416,0.01464,0.09272,0.0976,0.05856,-0.00976,0,-0.00488
-0.00488,0.01464,-0.0244,-0.02196,-0.01952,0.00732,0.08296,0.0732,0.0488,0.00488,0.01464,0
-0.00488,0.00732,-0.00976,-0.00732,-0.00488,0,0.06832,0.05368,0.03904,0.0244,0.04392,0.00488
0.00488,-0.00244,0,-0.00244,-0.00488,0.00488,0.04392,0.0244,0.03416,0,0.00976,0.00976
0.01464,-0.0122,0.00976,0.00244,-0.00488,0.00976,0.03416,0.00976,0.01952,-0.0244,-0.0244,0.00976
0.00976,-0.00976,0.00976,0.00488,0,0.00488,0.0244,-0.00976,0.00976,-0.03416,-0.03416,0.01464
0.00976,-0.00976,0.00976,0.00488,0,0.00488,0.01464,-0.0244,0,-0.04392,-0.04392,0.01464
0.00976,-0.00732,0.00488,0,-0.00488,0.00732,0.00488,-0.03416,-0.00976,-0.03416,-0.0244,0.01464
0.00976,-0.00244,-0.00488,-0.00976,-0.01464,0.0122,0.00488,-0.03904,-0.00976,-0.0244,-0.01464,0.00976
0.00488,0,-0.00488,-0.00732,-0.00976,0.00732,0.00488,-0.0488,-0.01464,-0.01952,-0.01464,0.00976
0.00488,0,-0.00488,-0.00732,-0.00976,0.00732,0,-0.05368,-0.01952,-0.01464,-0.00488,0.00488
0,0.00244,-0.00488,-0.00488,-0.00488,0.00244,-0.00488,-0.05856,-0.02928,-0.01464,-0.00488,0.00488
0,0.00244,-0.00488,-0.00488,-0.00488,0.00244,-0.00488,-0.05856,-0.02928,-0.01464,-0.00488,0.00488
-0.01464,0.01464,-0.01464,-0.00732,0,-0.00732,-0.00488,-0.06344,-0.02928,-0.01464,0.00488,0.00488
-0.02928,0.02684,-0.0244,-0.00976,0.00488,-0.01708,-0.00488,-0.06344,-0.03416,-0.01464,0.01464,0.00488
-0.03904,0.03416,-0.02928,-0.00976,0.00976,-0.0244,-0.00488,-0.06344,-0.03416,-0.01952,0.00976,0.00488
-0.0488,0.04392,-0.03904,-0.01464,0.00976,-0.02928,-0.00488,-0.06344,-0.03416,-0.01952,0.00976,0.00488
-0.05368,0.0488,-0.04392,-0.01708,0.00976,-0.03172,-0.01464,-0.0732,-0.04392,-0.03416,-0.00976,-0.00488
-0.05856,0.05368,-0.0488,-0.01952,0.00976,-0.03416,-0.01952,-0.08296,-0.05368,-0.0488,-0.02928,-0.00976
-0.05856,0.05368,-0.0488,-0.01952,0.00976,-0.03416,-0.01952,-0.08296,-0.05368,-0.0488,-0.0244,-0.00488
-0.05368,0.05124,-0.0488,-0.02196,0.00488,-0.02928,-0.0244,-0.07808,-0.05368,-0.0488,-0.0244,-0.00488
-0.0488,0.0488,-0.0488,-0.0244,0,-0.0244,-0.01952,-0.0732,-0.0488,-0.03904,-0.01952,-0.00488
-0.0488,0.0488,-0.0488,-0.0244,0,-0.0244,-0.01464,-0.0732,-0.04392,-0.03416,-0.00488,-0.00488
-0.0488,0.0488,-0.0488,-0.0244,0,-0.0244,-0.01464,-0.0732,-0.03904,-0.03416,-0.01464,-0.00488
-0.05368,0.05124,-0.0488,-0.02196,0.00488,-0.02928,-0.00976,-0.06832,-0.03416,-0.02928,-0.01952,0
-0.05368,0.05124,-0.0488,-0.02196,0.00488,-0.02928,-0.00488,-0.06344,-0.02928,-0.03416,-0.0244,0
-0.0488,0.04636,-0.04392,-0.01952,0.00488,-0.02684,-0.00488,-0.06344,-0.02928,-0.04392,-0.03416,0
-0.0488,0.04636,-0.04392,-0.01952,0.00488,-0.02684,-0.00488,-0.06344,-0.02928,-0.03904,-0.0244,-0.00488
-0.0488,0.04636,-0.04392,-0.01952,0.00488,-0.02684,-0.00976,-0.06344,-0.03416,-0.02928,-0.01464,-0.00488
-0.05368,0.05368,-0.05368,-0.02684,0,-0.02684,-0.00488,-0.05856,-0.03416,-0.02928,-0.01464,-0.00488
-0.05856,0.061,-0.06344,-0.03416,-0.00488,-0.02684,0,-0.05368,-0.03416,-0.02928,-0.01464,0
-0.05856,0.061,-0.06344,-0.03416,-0.00488,-0.02684,0,-0.05368,-0.02928,-0.0244,-0.00976,0.00488
-0.05856,0.061,-0.06344,-0.03416,-0.00488,-0.02684,0.00488,-0.0488,-0.0244,-0.0244,-0.00488,0.00488
-0.05856,0.05856,-0.05856,-0.02928,0,-0.02928,0.00488,-0.0488,-0.01952,-0.01464,0,0.00488
-0.06344,0.05856,-0.05368,-0.02196,0.00976,-0.0366,0,-0.0488,-0.01464,-0.00488,0.00488,0.00976
-0.06832,0.05612,-0.04392,-0.00976,0.0244,-0.04636,0,-0.0488,-0.00976,0,0.00976,0.00976
-0.06832,0.05368,-0.03904,-0.00488,0.02928,-0.0488,0.00488,-0.04392,-0.00976,0,0.00976,0.00976
-0.05368,0.04636,-0.03904,-0.0122,0.01464,-0.03416,0.00488,-0.04392,-0.01464,-0.01952,-0.00976,0.00976
-0.04392,0.03904,-0.03416,-0.0122,0.00976,-0.02684,0.00488,-0.0488,-0.0244,-0.03904,-0.02928,0.00488
-0.03904,0.0366,-0.03416,-0.01464,0.00488,-0.02196,0.00488,-0.0488,-0.02928,-0.03904,-0.02928,0.00488
-0.03416,0.03172,-0.02928,-0.0122,0.00488,-0.01952,0.00488,-0.0488,-0.02928,-0.03416,-0.02928,0.00488
-0.02928,0.02684,-0.0244,-0.00976,0.00488,-0.01708,0.00488,-0.03904,-0.01464,-0.02928,-0.0244,0.00976
-0.0244,0.02196,-0.01952,-0.00732,0.00488,-0.01464,0.00488,-0.03416,-0.00488,-0.01952,-0.01952,0.00976
-0.0244,0.01708,-0.00976,0.00244,0.01464,-0.01952,0.00488,-0.03416,-0.00488,-0.01464,-0.00488,0.00488
-0.01464,0.00976,-0.00488,0.00244,0.00976,-0.0122,0.00488,-0.02928,-0.00976,-0.01464,0,0.00488
-0.01464,0.00976,-0.00488,0.00244,0.00976,-0.0122,0.00488,-0.02928,-0.01464,-0.01464,-0.00488,0.00488
-0.00976,0.00732,-0.00488,0,0.00488,-0.00732,0.00488,-0.03904,-0.01464,-0.0244,-0.00488,0.00488
-0.01464,0.0122,-0.00976,-0.00244,0.00488,-0.00976,0.00976,-0.03904,-0.00976,-0.01464,0.00976,0.00488
-0.0244,0.01708,-0.00976,0.00244,0.01464,-0.01952,0.01952,-0.03904,-0.00488,-0.00488,0.0244,0
-0.02928,0.01952,-0.00976,0.00488,0.01952,-0.0244,0.01464,-0.03904,-0.01464,0.00976,0.03416,0.00488
-0.02928,0.01952,-0.00976,0.00488,0.01952,-0.0244,0.01464,-0.03416,-0.01464,0.0244,0.04392,0.00976
-0.02928,0.01952,-0.00976,0.00488,0.01952,-0.0244,0.00976,-0.03904,-0.0244,-0.00488,0.00488,0.00976
-0.0244,0.01708,-0.00976,0.00244,0.01464,-0.01952,0,-0.03904,-0.02928,-0.03416,-0.0244,0.01464
-0.02928,0.01952,-0.00976,0.00488,0.01952,-0.0244,0,-0.0488,-0.02928,-0.03416,-0.0244,0.01464
-0.02928,0.02196,-0.01464,0,0.01464,-0.02196,0,-0.05856,-0.03416,-0.03416,-0.02928,0.00976
-0.02928,0.02684,-0.0244,-0.00976,0.00488,-0.01708,-0.00488,-0.05856,-0.03416,-0.03416,-0.02928,0
-0.02928,0.02928,-0.02928,-0.01464,0,-0.01464,-0.00488,-0.06344,-0.03904,-0.04392,-0.02928,-0.00488
-0.02928,0.03172,-0.03416,-0.01952,-0.00488,-0.0122,-0.00488,-0.06344,-0.04392,-0.04392,-0.03416,-0.00976
-0.03416,0.0366,-0.03904,-0.02196,-0.00488,-0.01464,-0.00488,-0.06344,-0.04392,-0.04392,-0.03416,-0.01464
-0.03904,0.03904,-0.03904,-0.01952,0,-0.01952,-0.00488,-0.06344,-0.04392,-0.03416,-0.01952,-0.00488
-0.03904,0.03904,-0.03904,-0.01952,0,-0.01952,-0.00488,-0.06344,-0.04392,-0.01952,-0.00976,0
-0.03904,0.03416,-0.02928,-0.00976,0.00976,-0.0244,-0.00488,-0.05856,-0.04392,-0.01952,-0.00976,0.00488
-0.04392,0.03416,-0.0244,-0.00244,0.01952,-0.03172,-0.01464,-0.05856,-0.03904,-0.0244,-0.00976,0.00976
-0.04392,0.0366,-0.02928,-0.00732,0.01464,-0.02928,-0.01464,-0.05856,-0.03904,-0.0244,-0.00976,0.00976
-0.0488,0.03904,-0.02928,-0.00488,0.01952,-0.03416,-0.00976,-0.05856,-0.03416,-0.0244,-0.00488,0.00976
-0.04392,0.04392,-0.04392,-0.02196,0,-0.02196,-0.00976,-0.05856,-0.03416,-0.02928,-0.01464,0.00976
-0.04392,0.04636,-0.0488,-0.02684,-0.00488,-0.01952,-0.00976,-0.06344,-0.03416,-0.03416,-0.02928,0
-0.04392,0.04392,-0.04392,-0.02196,0,-0.02196,-0.01464,-0.06832,-0.04392,-0.03904,-0.02928,-0.00488
-0.04392,0.04148,-0.03904,-0.01708,0.00488,-0.0244,-0.01952,-0.0732,-0.04392,-0.03904,-0.02928,-0.00488
-0.04392,0.04148,-0.03904,-0.01708,0.00488,-0.0244,-0.0244,-0.06832,-0.04392,-0.0244,-0.00976,-0.00488
-0.04392,0.04392,-0.04392,-0.02196,0,-0.02196,-0.0244,-0.06832,-0.04392,-0.01464,0.01952,-0.00488
-0.04392,0.04392,-0.04392,-0.02196,0,-0.02196,-0.01952,-0.06832,-0.04392,-0.01464,0.00976,0
-0.05368,0.0488,-0.04392,-0.01708,0.00976,-0.03172,-0.01952,-0.06832,-0.04392,-0.01464,0.00976,0.00488
-0.05368,0.04636,-0.03904,-0.0122,0.01464,-0.03416,-0.01952,-0.06832,-0.0488,-0.03416,-0.01464,0.00488
-0.05368,0.04636,-0.03904,-0.0122,0.01464,-0.03416,-0.01952,-0.06832,-0.05368,-0.0488,-0.03904,0.00488
-0.05368,0.04636,-0.03904,-0.0122,0.01464,-0.03416,-0.01952,-0.0732,-0.06344,-0.05368,-0.03904,0.00488
-0.04392,0.04148,-0.03904,-0.01708,0.00488,-0.0244,-0.01952,-0.07808,-0.06832,-0.05368,-0.03416,0.00488
-0.04392,0.03904,-0.03416,-0.0122,0.00976,-0.02684,-0.0244,-0.07808,-0.06832,-0.05368,-0.02928,0.00488
-0.04392,0.0366,-0.02928,-0.00732,0.01464,-0.02928,-0.02928,-0.07808,-0.06832,-0.0488,-0.01952,0.00488
-0.0488,0.03904,-0.02928,-0.00488,0.01952,-0.03416,-0.02928,-0.0732,-0.05856,-0.0488,-0.01952,0.00488
-0.0488,0.04392,-0.03904,-0.01464,0.00976,-0.02928,-0.02928,-0.0732,-0.05368,-0.04392,-0.01952,0.00488
-0.03904,0.03904,-0.03904,-0.01952,0,-0.01952,-0.02928,-0.06832,-0.05368,-0.03904,-0.01464,0.00488
-0.03416,0.0366,-0.03904,-0.02196,-0.00488,-0.01464,-0.02928,-0.06832,-0.05368,-0.03416,-0.01464,0.00488
-0.04392,0.0366,-0.02928,-0.00732,0.01464,-0.02928,-0.02928,-0.06832,-0.05368,-0.03416,-0.01464,0.00488
-0.0488,0.04148,-0.03416,-0.00976,0.01464,-0.03172,-0.02928,-0.06344,-0.05368,-0.03904,-0.02928,0
-0.0488,0.04392,-0.03904,-0.01464,0.00976,-0.02928,-0.0244,-0.06344,-0.0488,-0.03416,-0.0244,0
-0.0488,0.04636,-0.04392,-0.01952,0.00488,-0.02684,-0.0244,-0.06832,-0.0488,-0.02928,-0.01952,0.00488
-0.04392,0.04148,-0.03904,-0.01708,0.00488,-0.0244,-0.00976,-0.05856,-0.04392,-0.02928,-0.00976,0.00488
-0.03904,0.03904,-0.03904,-0.01952,0,-0.01952,0,-0.0488,-0.03904,-0.02928,0,0.00976
-0.03904,0.03904,-0.03904,-0.01952,0,-0.01952,0.00976,-0.03904,-0.0244,-0.01952,0,0.00976
-0.03904,0.03904,-0.03904,-0.01952,0,-0.01952,0.01952,-0.02928,-0.00976,-0.00976,0,0.00976
-0.03416,0.0366,-0.03904,-0.02196,-0.00488,-0.01464,0.0244,-0.0244,-0.00976,-0.00488,0.00488,0.00976
-0.02928,0.03416,-0.03904,-0.0244,-0.00976,-0.00976,0.03416,-0.00976,-0.00488,0,0.00976,0.00976
-0.02928,0.03416,-0.03904,-0.0244,-0.00976,-0.00976,0.0488,0,0,0,0.01464,0.01464
-0.0244,0.03172,-0.03904,-0.02684,-0.01464,-0.00488,0.04392,0,0.00488,-0.00488,0,0.01464
-0.01952,0.03416,-0.0488,-0.03904,-0.02928,0.00488,0.02928,-0.00976,-0.00976,-0.0244,-0.00488,0.01464
-0.01952,0.0366,-0.05368,-0.04392,-0.03416,0.00732,0.01464,-0.01952,-0.0244,-0.03416,-0.00488,0.01464
-0.00488,0.0244,-0.04392,-0.04148,-0.03904,0.01708,0.00488,-0.02928,-0.02928,-0.02928,-0.00488,0.01464
0.00488,0.01708,-0.03904,-0.04148,-0.04392,0.0244,-0.00976,-0.04392,-0.02928,-0.0244,0,0.00976
-0.01464,0.02928,-0.04392,-0.0366,-0.02928,0.00732,-0.03904,-0.05856,-0.03416,-0.0244,0.00488,0.00976
-0.0244,0.0366,-0.0488,-0.0366,-0.0244,0,-0.0488,-0.06344,-0.03904,-0.01952,0.00976,0.00976
-0.0244,0.0366,-0.0488,-0.0366,-0.0244,0,-0.0488,-0.06344,-0.04392,-0.01952,0.00488,0.00976
-0.02928,0.0366,-0.04392,-0.02928,-0.01464,-0.00732,-0.04392,-0.06344,-0.0488,-0.0244,-0.00488,0.00976
0,0.01708,-0.03416,-0.03416,-0.03416,0.01708,-0.04392,-0.06344,-0.0488,-0.02928,-0.01464,0.00976
0.00976,0.00976,-0.02928,-0.03416,-0.03904,0.0244,-0.04392,-0.06344,-0.05368,-0.04392,-0.0244,0.00976
0.00488,0.01708,-0.03904,-0.04148,-0.04392,0.0244,-0.05368,-0.08296,-0.06344,-0.0488,-0.0244,0.01464
-0.00488,0.02196,-0.03904,-0.0366,-0.03416,0.01464,-0.05368,-0.08784,-0.06344,-0.0488,-0.0244,0.01464
-0.00488,0.02196,-0.03904,-0.0366,-0.03416,0.01464,-0.05368,-0.08784,-0.06344,-0.0488,-0.0244,0.00976
-0.00488,0.01952,-0.03416,-0.03172,-0.02928,0.0122,-0.05368,-0.08784,-0.05856,-0.04392,-0.0244,0.00976
-0.00976,0.01952,-0.02928,-0.0244,-0.01952,0.00488,-0.0488,-0.0732,-0.05368,-0.0244,-0.00488,0.00976
-0.01952,0.02196,-0.0244,-0.01464,-0.00488,-0.00732,-0.04392,-0.06344,-0.0488,-0.00976,0.00976,0.00976
-0.03416,0.03172,-0.02928,-0.0122,0.00488,-0.01952,-0.04392,-0.0732,-0.05368,-0.01464,0.00976,0.00976
-0.03416,0.03904,-0.04392,-0.02684,-0.00976,-0.0122,-0.0488,-0.08296,-0.05856,-0.01952,0,0.00976
-0.03416,0.03904,-0.04392,-0.02684,-0.00976,-0.0122,-0.0488,-0.08784,-0.06832,-0.03904,-0.01464,0
-0.03416,0.03904,-0.04392,-0.02684,-0.00976,-0.0122,-0.05368,-0.09272,-0.07808,-0.05368,-0.02928,0
-0.03904,0.03904,-0.03904,-0.01952,0,-0.01952,-0.0488,-0.09272,-0.07808,-0.05368,-0.03416,0
-0.03904,0.03904,-0.03904,-0.01952,0,-0.01952,-0.04392,-0.09272,-0.07808,-0.05368,-0.03416,0
-0.03416,0.03416,-0.03416,-0.01708,0,-0.01708,-0.04392,-0.08296,-0.06832,-0.04392,-0.02928,0
-0.03416,0.03172,-0.02928,-0.0122,0.00488,-0.01952,-0.04392,-0.07808,-0.06344,-0.02928,-0.01952,0
-0.03416,0.03172,-0.02928,-0.0122,0.00488,-0.01952,-0.04392,-0.07808,-0.05856,-0.01952,-0.00488,0
-0.03416,0.03172,-0.02928,-0.0122,0.00488,-0.01952,-0.03904,-0.0732,-0.05856,-0.01464,0.00488,0
-0.02928,0.02684,-0.0244,-0.00976,0.00488,-0.01708,-0.03904,-0.07808,-0.05856,-0.03904,-0.0244,0
-0.0244,0.0244,-0.0244,-0.0122,0,-0.0122,-0.03416,-0.08296,-0.06344,-0.06344,-0.0488,0
-0.02928,0.02928,-0.02928,-0.01464,0,-0.01464,-0.03416,-0.08296,-0.06344,-0.06344,-0.0488,0
-0.02928,0.02928,-0.02928,-0.01464,0,-0.01464,-0.03416,-0.08296,-0.06344,-0.06344,-0.0488,0
-0.02928,0.03172,-0.03416,-0.01952,-0.00488,-0.0122,-0.02928,-0.07808,-0.06344,-0.06344,-0.0488,-0.00488
-0.02928,0.03172,-0.03416,-0.01952,-0.00488,-0.0122,-0.02928,-0.07808,-0.06344,-0.06344,-0.0488,-0.00488
-0.02928,0.02928,-0.02928,-0.01464,0,-0.01464,-0.03416,-0.07808,-0.06344,-0.06344,-0.04392,-0.00488
-0.02928,0.02928,-0.02928,-0.01464,0,-0.01464,-0.03904,-0.07808,-0.06832,-0.05856,-0.03904,-0.00488
-0.03904,0.03416,-0.02928,-0.00976,0.00976,-0.0244,-0.03904,-0.08296,-0.06832,-0.03904,-0.03416,0
-0.05368,0.03904,-0.0244,0.00244,0.02928,-0.04148,-0.02928,-0.07808,-0.06344,-0.0244,-0.02928,0
-0.06344,0.03904,-0.01464,0.01708,0.0488,-0.05612,0,-0.06832,-0.0488,-0.02928,-0.0244,-0.00488
-0.0732,0.03416,0.00488,0.04148,0.07808,-0.07564,0.04392,-0.03904,0,-0.0244,-0.0244,-0.00488
-0.08296,0.02196,0.03904,0.08052,0.122,-0.10248,0.08784,0.02928,0.0488,0,-0.01952,0.00976
-0.05856,-0.00488,0.06832,0.0976,0.12688,-0.09272,0.1464,0.12688,0.17568,0.10248,0.0488,0.0488
-0.0244,-0.02684,0.07808,0.09028,0.10248,-0.06344,0.20008,0.18056,0.32696,0.24888,0.16104,0.09272
0.06832,-0.09272,0.11712,0.08296,0.0488,0.00976,0.13176,0.17568,0.44408,0.42944,0.30256,0.16592
0.29768,-0.2684,0.23912,0.09028,-0.05856,0.17812,-0.05856,0.27328,0.732,0.84912,0.62464,0.32208
0.5124,-0.45628,0.40016,0.14396,-0.11224,0.31232,-0.35624,0.27328,0.94672,1.1956,0.90768,0.488
0.7076,-0.671,0.6344,0.2806,-0.0732,0.3904,-0.89792,-0.0976,0.89792,1.37616,1.1468,0.70272
0.77592,-0.74176,0.7076,0.31964,-0.06832,0.42212,-1.24928,-0.488,0.59536,1.21512,1.1224,0.76616
0.61,-0.47336,0.33672,0.03172,-0.27328,0.44164,-1.33224,-1.08336,-0.16104,0.43432,0.54656,0.49288
0.37088,-0.26596,0.16104,-0.0244,-0.20984,0.29036,-1.48352,-1.64944,-0.89792,-0.21472,0.10248,0.3172
0.21472,-0.10736,0,-0.10736,-0.21472,0.21472,-1.41032,-1.58112,-1.07848,-0.43432,-0.0976,0.17568
0.16592,-0.03904,-0.08784,-0.1708,-0.25376,0.20984,-1.24928,-1.40544,-1.05896,-0.50264,-0.18544,0.08296
0.11712,-0.01464,-0.08784,-0.1464,-0.20496,0.16104,-1.0736,-1.17608,-0.9272,-0.488,-0.22936,0.0244
0.05368,-0.01464,-0.0244,-0.05124,-0.07808,0.06588,-0.81496,-0.88328,-0.67344,-0.35624,-0.1708,0.03416
0.02928,-0.01464,0,-0.01464,-0.02928,0.02928,-0.52216,-0.55144,-0.38552,-0.20496,-0.08784,0.04392
