i,aVR,ii,aVF,iii,aVL,V1,V2,V3,V4,V5,V6
0,0.0244,-0.0488,-0.0488,-0.0488,0.0244,0.11224,0.03416,0.10248,0.04392,0.06344,0.02928
-0.02928,0.05368,-0.07808,-0.06344,-0.0488,0.00976,0.11224,0.03904,0.08296,0.02928,0.04392,0.01952
-0.03416,0.06588,-0.0976,-0.08052,-0.06344,0.01464,0.122,0.03416,0.06344,0.00976,0.01952,-0.00488
-0.05368,0.09028,-0.12688,-0.10004,-0.0732,0.00976,0.11224,0.03416,0.04392,-0.00976,0.00488,-0.01952
-0.05856,0.09516,-0.13176,-0.10248,-0.0732,0.00732,0.122,0.03416,0.02928,-0.0244,-0.00976,-0.0244
-0.06832,0.1098,-0.15128,-0.11712,-0.08296,0.00732,0.122,0.03416,0.01464,-0.04392,-0.01464,-0.03416
-0.06832,0.11224,-0.15616,-0.122,-0.08784,0.00976,0.12688,0.02928,0.00488,-0.0488,-0.02928,-0.03904
-0.06832,0.11224,-0.15616,-0.122,-0.08784,0.00976,0.11224,0.02928,-0.01464,-0.05856,-0.03904,-0.0488
-0.06344,0.11224,-0.16104,-0.12932,-0.0976,0.01708,0.10736,0.02928,-0.01952,-0.06832,-0.0488,-0.0488
-0.05856,0.11224,-0.16592,-0.13664,-0.10736,0.0244,0.10248,0.03904,-0.01464,-0.06832,-0.04392,-0.0488
-0.05856,0.11224,-0.16592,-0.13664,-0.10736,0.0244,0.08296,0.03416,-0.01952,-0.06832,-0.04392,-0.05368
-0.05856,0.1098,-0.16104,-0.13176,-0.10248,0.02196,0.06344,0.03416,-0.02928,-0.07808,-0.05368,-0.05368
-0.06344,0.11224,-0.16104,-0.12932,-0.0976,0.01708,0.03416,0.03416,-0.03416,-0.08784,-0.05856,-0.05856
-0.05368,0.10248,-0.15128,-0.12444,-0.0976,0.02196,0.00976,0.03416,-0.0244,-0.08784,-0.05368,-0.0488
-0.05856,0.10492,-0.15128,-0.122,-0.09272,0.01708,-0.00976,0.03416,-0.03416,-0.08784,-0.05368,-0.05368
-0.05856,0.1098,-0.16104,-0.13176,-0.10248,0.02196,-0.02928,0.03416,-0.0244,-0.08784,-0.0488,-0.04392
-0.05856,0.1098,-0.16104,-0.13176,-0.10248,0.02196,-0.03904,0.03416,-0.0244,-0.0732,-0.0488,-0.04392
-0.05368,0.11224,-0.1708,-0.14396,-0.11712,0.03172,-0.05368,0.03416,-0.03416,-0.0732,-0.0488,-0.05368
-0.05368,0.11224,-0.1708,-0.14396,-0.11712,0.03172,-0.05856,0.03416,-0.03416,-0.0732,-0.0488,-0.05368
-0.05856,0.11956,-0.18056,-0.15128,-0.122,0.03172,-0.06832,0.03416,-0.04392,-0.0732,-0.05856,-0.05368
-0.05856,0.11956,-0.18056,-0.15128,-0.122,0.03172,-0.06832,0.03416,-0.04392,-0.0732,-0.05856,-0.05368
-0.05856,0.11956,-0.18056,-0.15128,-0.122,0.03172,-0.07808,0.03416,-0.04392,-0.0732,-0.05856,-0.0488
-0.05856,0.11956,-0.18056,-0.15128,-0.122,0.03172,-0.07808,0.03904,-0.04392,-0.0732,-0.05856,-0.0488
-0.05856,0.11956,-0.18056,-0.15128,-0.122,0.03172,-0.0732,0.03904,-0.03904,-0.08296,-0.05856,-0.05856
-0.05856,0.11956,-0.18056,-0.15128,-0.122,0.03172,-0.0732,0.03904,-0.03904,-0.08296,-0.06344,-0.05856
-0.05856,0.11956,-0.18056,-0.15128,-0.122,0.03172,-0.05856,0.03416,-0.02928,-0.08784,-0.07808,-0.05856
-0.05856,0.11956,-0.18056,-0.15128,-0.122,0.03172,-0.05856,0.03416,-0.0244,-0.08784,-0.07808,-0.06344
-0.06344,0.122,-0.18056,-0.14884,-0.11712,0.02684,-0.04392,0.04392,-0.0244,-0.09272,-0.07808,-0.06344
-0.06344,0.122,-0.18056,-0.14884,-0.11712,0.02684,-0.02928,0.04392,-0.02928,-0.09272,-0.07808,-0.06344
-0.06344,0.122,-0.18056,-0.14884,-0.11712,0.02684,0,0.05368,-0.01464,-0.07808,-0.06832,-0.05368
-0.06344,0.122,-0.18056,-0.14884,-0.11712,0.02684,0.0244,0.05856,-0.00976,-0.08296,-0.06832,-0.05368
-0.06344,0.122,-0.18056,-0.14884,-0.11712,0.02684,0.0488,0.0488,-0.01464,-0.09272,-0.07808,-0.06344
-0.06344,0.122,-0.18056,-0.14884,-0.11712,0.02684,0.07808,0.0488,-0.01952,-0.09272,-0.07808,-0.06344
-0.06344,0.12444,-0.18544,-0.15372,-0.122,0.02928,0.10248,0.04392,-0.0244,-0.0976,-0.07808,-0.0732
-0.06344,0.122,-0.18056,-0.14884,-0.11712,0.02684,0.11712,0.04392,-0.0244,-0.0976,-0.07808,-0.06832
-0.05856,0.11956,-0.18056,-0.15128,-0.122,0.03172,0.1464,0.04392,-0.01952,-0.0976,-0.06832,-0.05856
-0.05856,0.122,-0.18544,-0.15616,-0.12688,0.03416,0.16104,0.04392,-0.01952,-0.0976,-0.06832,-0.05856
-0.05856,0.11712,-0.17568,-0.1464,-0.11712,0.02928,0.1708,0.04392,-0.01952,-0.08784,-0.07808,-0.06344
-0.05856,0.11712,-0.17568,-0.1464,-0.11712,0.02928,0.18544,0.03904,-0.01952,-0.08784,-0.07808,-0.06344
-0.06832,0.12688,-0.18544,-0.15128,-0.11712,0.0244,0.20008,0.02928,-0.01952,-0.08784,-0.08784,-0.0732
-0.06832,0.12688,-0.18544,-0.15128,-0.11712,0.0244,0.20496,0.02928,-0.01952,-0.08784,-0.08784,-0.0732
-0.06832,0.12444,-0.18056,-0.1464,-0.11224,0.02196,0.22448,0.03904,-0.0244,-0.08296,-0.0732,-0.06832
-0.06832,0.122,-0.17568,-0.14152,-0.10736,0.01952,0.23424,0.03904,-0.0244,-0.08296,-0.0732,-0.06832
-0.06832,0.122,-0.17568,-0.14152,-0.10736,0.01952,0.244,0.04392,-0.0244,-0.07808,-0.0732,-0.06832
-0.06832,0.122,-0.17568,-0.14152,-0.10736,0.01952,0.25376,0.04392,-0.02928,-0.07808,-0.06832,-0.06832
-0.06832,0.12688,-0.18544,-0.15128,-0.11712,0.0244,0.25864,0.04392,-0.02928,-0.07808,-0.06832,-0.06832
-0.06832,0.12688,-0.18544,-0.15128,-0.11712,0.0244,0.25864,0.04392,-0.03416,-0.07808,-0.06832,-0.06832
-0.05368,0.11468,-0.17568,-0.14884,-0.122,0.03416,0.24888,0.03416,-0.04392,-0.08784,-0.0732,-0.06832
-0.05368,0.11468,-0.17568,-0.14884,-0.122,0.03416,0.244,0.03416,-0.04392,-0.08784,-0.0732,-0.06832
-0.05368,0.11468,-0.17568,-0.14884,-0.122,0.03416,0.22448,0.03416,-0.03904,-0.07808,-0.0732,-0.06344
-0.05368,0.11468,-0.17568,-0.14884,-0.122,0.03416,0.2196,0.03416,-0.03904,-0.07808,-0.0732,-0.06344
-0.06832,0.12688,-0.18544,-0.15128,-0.11712,0.0244,0.22448,0.02928,-0.03904,-0.07808,-0.06344,-0.06344
-0.06832,0.12688,-0.18544,-0.15128,-0.11712,0.0244,0.2196,0.02928,-0.04392,-0.07808,-0.06344,-0.06344
-0.06832,0.122,-0.17568,-0.14152,-0.10736,0.01952,0.20984,0.02928,-0.05368,-0.07808,-0.06344,-0.06344
-0.06832,0.11956,-0.1708,-0.13664,-0.10248,0.01708,0.1952,0.02928,-0.05368,-0.07808,-0.06344,-0.06344
-0.06344,0.11956,-0.17568,-0.14396,-0.11224,0.0244,0.18056,0.02928,-0.0488,-0.07808,-0.0732,-0.06344
-0.06344,0.122,-0.18056,-0.14884,-0.11712,0.02684,0.15616,0.02928,-0.0488,-0.07808,-0.0732,-0.06344
-0.06344,0.12444,-0.18544,-0.15372,-0.122,0.02928,0.12688,0.02928,-0.05368,-0.08784,-0.0732,-0.0732
-0.06344,0.12688,-0.19032,-0.1586,-0.12688,0.03172,0.10736,0.02928,-0.05368,-0.08784,-0.07808,-0.0732
-0.06344,0.122,-0.18056,-0.14884,-0.11712,0.02684,0.08296,0.03904,-0.05856,-0.07808,-0.06344,-0.06344
-0.06344,0.12444,-0.18544,-0.15372,-0.122,0.02928,0.0732,0.03904,-0.06344,-0.08784,-0.06832,-0.06344
-0.05368,0.11468,-0.17568,-0.14884,-0.122,0.03416,0.0488,0.04392,-0.06344,-0.0732,-0.05856,-0.06344
-0.05856,0.11712,-0.17568,-0.1464,-0.11712,0.02928,0.03904,0.04392,-0.06344,-0.07808,-0.05856,-0.06344
-0.06832,0.122,-0.17568,-0.14152,-0.10736,0.01952,0.01952,0.0488,-0.05856,-0.07808,-0.05856,-0.06344
-0.06832,0.122,-0.17568,-0.14152,-0.10736,0.01952,0.00976,0.0488,-0.05856,-0.08296,-0.05856,-0.06344
-0.06832,0.12688,-0.18544,-0.15128,-0.11712,0.0244,-0.00976,0.0488,-0.05856,-0.09272,-0.05856,-0.06344
-0.06832,0.12688,-0.18544,-0.15128,-0.11712,0.0244,-0.0244,0.04392,-0.06344,-0.09272,-0.05856,-0.06344
-0.0732,0.1342,-0.1952,-0.1586,-0.122,0.0244,-0.03416,0.03416,-0.0732,-0.09272,-0.06344,-0.0732
-0.0732,0.1342,-0.1952,-0.1586,-0.122,0.0244,-0.04392,0.03416,-0.0732,-0.09272,-0.0732,-0.0732
-0.07808,0.13664,-0.1952,-0.15616,-0.11712,0.01952,-0.06344,0.03416,-0.07808,-0.09272,-0.07808,-0.08296
-0.07808,0.13664,-0.1952,-0.15616,-0.11712,0.01952,-0.07808,0.03416,-0.07808,-0.09272,-0.08296,-0.08296
-0.0732,0.12932,-0.18544,-0.14884,-0.11224,0.01952,-0.08784,0.04392,-0.08784,-0.0976,-0.0732,-0.08296
-0.0732,0.12932,-0.18544,-0.14884,-0.11224,0.01952,-0.10736,0.04392,-0.09272,-0.0976,-0.0732,-0.0732
-0.06344,0.11956,-0.17568,-0.14396,-0.11224,0.0244,-0.122,0.04392,-0.09272,-0.0976,-0.0732,-0.06832
-0.05856,0.11712,-0.17568,-0.1464,-0.11712,0.02928,-0.1464,0.04392,-0.0976,-0.0976,-0.0732,-0.06832
-0.05856,0.11712,-0.17568,-0.1464,-0.11712,0.02928,-0.16104,0.04392,-0.08784,-0.0976,-0.07808,-0.06832
-0.05856,0.11712,-0.17568,-0.1464,-0.11712,0.02928,-0.16592,0.0488,-0.08784,-0.0976,-0.07808,-0.06832
-0.05856,0.11224,-0.16592,-0.13664,-0.10736,0.0244,-0.1708,0.05368,-0.08784,-0.0976,-0.07808,-0.06832
-0.05856,0.11224,-0.16592,-0.13664,-0.10736,0.0244,-0.1708,0.05368,-0.08784,-0.0976,-0.07808,-0.06832
-0.06344,0.122,-0.18056,-0.14884,-0.11712,0.02684,-0.1708,0.05368,-0.0976,-0.10248,-0.08296,-0.07808
-0.06344,0.122,-0.18056,-0.14884,-0.11712,0.02684,-0.1708,0.05368,-0.0976,-0.0976,-0.08296,-0.0732
-0.06344,0.11956,-0.17568,-0.14396,-0.11224,0.0244,-0.16592,0.05368,-0.0976,-0.10736,-0.08296,-0.0732
-0.06344,0.11956,-0.17568,-0.14396,-0.11224,0.0244,-0.15616,0.05368,-0.0976,-0.10736,-0.08296,-0.0732
-0.05856,0.11712,-0.17568,-0.1464,-0.11712,0.02928,-0.1464,0.05368,-0.08784,-0.10736,-0.0732,-0.06344
-0.05856,0.11712,-0.17568,-0.1464,-0.11712,0.02928,-0.13176,0.05368,-0.08784,-0.10736,-0.0732,-0.06344
-0.05856,0.11712,-0.17568,-0.1464,-0.11712,0.02928,-0.122,0.05368,-0.0976,-0.10736,-0.07808,-0.06832
-0.06344,0.11956,-0.17568,-0.14396,-0.11224,0.0244,-0.10736,0.05368,-0.10248,-0.11224,-0.0732,-0.06832
-0.0732,0.12444,-0.17568,-0.13908,-0.10248,0.01464,-0.08296,0.05368,-0.09272,-0.10248,-0.0732,-0.06832
-0.0732,0.122,-0.1708,-0.1342,-0.0976,0.0122,-0.06344,0.0488,-0.09272,-0.10248,-0.0732,-0.06832
-0.06344,0.11712,-0.1708,-0.13908,-0.10736,0.02196,-0.02928,0.0488,-0.09272,-0.10248,-0.0732,-0.06832
-0.06344,0.11712,-0.1708,-0.13908,-0.10736,0.02196,-0.00488,0.0488,-0.09272,-0.10248,-0.0732,-0.06832
-0.05368,0.11224,-0.1708,-0.14396,-0.11712,0.03172,0.01952,0.0488,-0.09272,-0.10248,-0.0732,-0.06832
-0.05368,0.11224,-0.1708,-0.14396,-0.11712,0.03172,0.04392,0.0488,-0.09272,-0.0976,-0.0732,-0.06832
-0.05856,0.11712,-0.17568,-0.1464,-0.11712,0.02928,0.08296,0.0488,-0.09272,-0.0976,-0.0732,-0.06832
-0.05856,0.11712,-0.17568,-0.1464,-0.11712,0.02928,0.10248,0.05368,-0.08296,-0.08784,-0.0732,-0.05368
-0.05856,0.11712,-0.17568,-0.1464,-0.11712,0.02928,0.10736,0.03904,-0.08784,-0.0976,-0.07808,-0.06832
-0.05856,0.11712,-0.17568,-0.1464,-0.11712,0.02928,0.10736,0.03904,-0.08784,-0.0976,-0.07808,-0.06832
-0.05856,0.11712,-0.17568,-0.1464,-0.11712,0.02928,0.11712,0.03904,-0.08784,-0.0976,-0.07808,-0.06832
-0.05856,0.11712,-0.17568,-0.1464,-0.11712,0.02928,0.11712,0.03904,-0.08784,-0.0976,-0.07808,-0.06832
-0.0488,0.11224,-0.17568,-0.15128,-0.12688,0.03904,0.122,0.0488,-0.08784,-0.0976,-0.07808,-0.06832
-0.0488,0.11224,-0.17568,-0.15128,-0.12688,0.03904,0.13176,0.0488,-0.08784,-0.0976,-0.07808,-0.06832
-0.05368,0.11468,-0.17568,-0.14884,-0.122,0.03416,0.1464,0.0488,-0.08784,-0.0976,-0.07808,-0.06832
-0.06344,0.11956,-0.17568,-0.14396,-0.11224,0.0244,0.1464,0.0488,-0.08784,-0.0976,-0.07808,-0.06832
-0.06832,0.122,-0.17568,-0.14152,-0.10736,0.01952,0.1464,0.03904,-0.08784,-0.0976,-0.07808,-0.06832
-0.06832,0.122,-0.17568,-0.14152,-0.10736,0.01952,0.1464,0.03904,-0.08784,-0.0976,-0.07808,-0.06832
-0.05856,0.11712,-0.17568,-0.1464,-0.11712,0.02928,0.14152,0.0488,-0.08784,-0.0976,-0.07808,-0.06832
-0.05856,0.11712,-0.17568,-0.1464,-0.11712,0.02928,0.13176,0.0488,-0.08784,-0.0976,-0.07808,-0.06832
-0.06832,0.12688,-0.18544,-0.15128,-0.11712,0.0244,0.11712,0.03904,-0.0976,-0.0976,-0.06832,-0.06832
-0.06832,0.12688,-0.18544,-0.15128,-0.11712,0.0244,0.11712,0.03904,-0.0976,-0.0976,-0.06832,-0.06832
-0.06832,0.12688,-0.18544,-0.15128,-0.11712,0.0244,0.11224,0.02928,-0.08784,-0.08784,-0.06832,-0.06832
-0.06832,0.12688,-0.18544,-0.15128,-0.11712,0.0244,0.10248,0.02928,-0.08784,-0.08784,-0.06832,-0.06832
-0.0732,0.12444,-0.17568,-0.13908,-0.10248,0.01464,0.0976,0.03416,-0.08296,-0.07808,-0.05856,-0.05856
-0.08296,0.12932,-0.17568,-0.1342,-0.09272,0.00488,0.0976,0.04392,-0.0732,-0.07808,-0.05856,-0.05856
-0.10248,0.14396,-0.18544,-0.1342,-0.08296,-0.00976,0.08784,0.05856,-0.06832,-0.07808,-0.05856,-0.0488
-0.11224,0.14884,-0.18544,-0.12932,-0.0732,-0.01952,0.08784,0.05856,-0.06832,-0.07808,-0.05856,-0.0488
-0.10248,0.14396,-0.18544,-0.1342,-0.08296,-0.00976,0.0732,0.0488,-0.0732,-0.08784,-0.06832,-0.05856
-0.09272,0.13908,-0.18544,-0.13908,-0.09272,0,0.06344,0.0488,-0.08296,-0.08784,-0.06832,-0.05856
-0.0732,0.12444,-0.17568,-0.13908,-0.10248,0.01464,0.0488,0.0488,-0.08784,-0.0976,-0.07808,-0.06832
-0.06344,0.11956,-0.17568,-0.14396,-0.11224,0.0244,0.0488,0.0488,-0.08784,-0.0976,-0.07808,-0.06832
-0.0488,0.10736,-0.16592,-0.14152,-0.11712,0.03416,0.03904,0.03904,-0.08784,-0.0976,-0.07808,-0.06832
-0.0488,0.10736,-0.16592,-0.14152,-0.11712,0.03416,0.03904,0.03904,-0.08784,-0.0976,-0.07808,-0.06832
-0.03416,0.10492,-0.17568,-0.1586,-0.14152,0.05368,0.03416,0.02928,-0.0976,-0.10736,-0.08784,-0.07808
-0.0244,0.10004,-0.17568,-0.16348,-0.15128,0.06344,0.0244,0.02928,-0.0976,-0.10736,-0.08784,-0.07808
-0.02928,0.10736,-0.18544,-0.1708,-0.15616,0.06344,0.01464,0.02928,-0.0976,-0.10736,-0.08784,-0.07808
-0.02928,0.10736,-0.18544,-0.1708,-0.15616,0.06344,0.00488,0.02928,-0.0976,-0.10736,-0.08784,-0.07808
-0.03416,0.1098,-0.18544,-0.16836,-0.15128,0.05856,-0.01464,0.02928,-0.10736,-0.10736,-0.08784,-0.07808
-0.04392,0.11468,-0.18544,-0.16348,-0.14152,0.0488,-0.0244,0.02928,-0.10736,-0.10736,-0.08784,-0.07808
-0.03904,0.11224,-0.18544,-0.16592,-0.1464,0.05368,-0.04392,0.02928,-0.10736,-0.10736,-0.08784,-0.07808
-0.03904,0.11224,-0.18544,-0.16592,-0.1464,0.05368,-0.05368,0.02928,-0.10736,-0.10736,-0.08784,-0.07808
-0.02928,0.10736,-0.18544,-0.1708,-0.15616,0.06344,-0.05856,0.02928,-0.0976,-0.0976,-0.08784,-0.07808
-0.02928,0.10736,-0.18544,-0.1708,-0.15616,0.06344,-0.05856,0.02928,-0.0976,-0.0976,-0.08784,-0.07808
-0.02928,0.10248,-0.17568,-0.16104,-0.1464,0.05856,-0.05856,0.02928,-0.10736,-0.0976,-0.08784,-0.07808
-0.02928,0.10248,-0.17568,-0.16104,-0.1464,0.05856,-0.05856,0.02928,-0.10736,-0.0976,-0.08784,-0.07808
-0.0244,0.09516,-0.16592,-0.15372,-0.14152,0.05856,-0.05856,0.02928,-0.10736,-0.0976,-0.08784,-0.07808
-0.01464,0.09028,-0.16592,-0.1586,-0.15128,0.06832,-0.05856,0.02928,-0.10736,-0.0976,-0.08784,-0.07808
-0.00976,0.08784,-0.16592,-0.16104,-0.15616,0.0732,-0.06832,0.02928,-0.10736,-0.10736,-0.0976,-0.07808
-0.00976,0.08784,-0.16592,-0.16104,-0.15616,0.0732,-0.06832,0.02928,-0.10736,-0.10736,-0.0976,-0.07808
-0.01464,0.09516,-0.17568,-0.16836,-0.16104,0.0732,-0.06832,0.02928,-0.10736,-0.10736,-0.0976,-0.07808
-0.0244,0.10004,-0.17568,-0.16348,-0.15128,0.06344,-0.06832,0.02928,-0.10736,-0.10736,-0.0976,-0.07808
-0.02928,0.10248,-0.17568,-0.16104,-0.1464,0.05856,-0.05856,0.03904,-0.10736,-0.10736,-0.08784,-0.07808
-0.02928,0.10248,-0.17568,-0.16104,-0.1464,0.05856,-0.05856,0.03904,-0.10736,-0.10736,-0.08784,-0.07808
-0.03904,0.10736,-0.17568,-0.15616,-0.13664,0.0488,-0.0488,0.03904,-0.11712,-0.10736,-0.0976,-0.07808
-0.03904,0.10736,-0.17568,-0.15616,-0.13664,0.0488,-0.0488,0.03904,-0.11712,-0.10736,-0.0976,-0.07808
-0.03904,0.10736,-0.17568,-0.15616,-0.13664,0.0488,-0.03904,0.03904,-0.10736,-0.10736,-0.0976,-0.07808
-0.03904,0.10736,-0.17568,-0.15616,-0.13664,0.0488,-0.03904,0.03904,-0.10736,-0.10736,-0.0976,-0.07808
-0.02928,0.0976,-0.16592,-0.15128,-0.13664,0.05368,-0.03416,0.03904,-0.10736,-0.10736,-0.0976,-0.07808
-0.02928,0.0976,-0.16592,-0.15128,-0.13664,0.05368,-0.0244,0.03904,-0.10736,-0.10736,-0.0976,-0.07808
-0.02928,0.10248,-0.17568,-0.16104,-0.1464,0.05856,-0.01952,0.03904,-0.10736,-0.10736,-0.08784,-0.07808
-0.02928,0.10248,-0.17568,-0.16104,-0.1464,0.05856,-0.01952,0.03904,-0.10736,-0.10736,-0.08784,-0.07808
-0.02928,0.10248,-0.17568,-0.16104,-0.1464,0.05856,-0.00976,0.02928,-0.10736,-0.10736,-0.0976,-0.07808
-0.02928,0.10248,-0.17568,-0.16104,-0.1464,0.05856,-0.00976,0.02928,-0.10736,-0.10736,-0.0976,-0.07808
-0.02928,0.0976,-0.16592,-0.15128,-0.13664,0.05368,-0.00976,0.02928,-0.11712,-0.10736,-0.0976,-0.07808
-0.02928,0.0976,-0.16592,-0.15128,-0.13664,0.05368,-0.00976,0.02928,-0.11712,-0.10736,-0.0976,-0.07808
-0.03904,0.10248,-0.16592,-0.1464,-0.12688,0.04392,0,0.02928,-0.11712,-0.10736,-0.0976,-0.06832
-0.03904,0.10248,-0.16592,-0.1464,-0.12688,0.04392,0,0.02928,-0.11712,-0.10736,-0.0976,-0.06832
-0.03904,0.10248,-0.16592,-0.1464,-0.12688,0.04392,0,0.02928,-0.11712,-0.10736,-0.08784,-0.06832
-0.03904,0.10248,-0.16592,-0.1464,-0.12688,0.04392,0,0.02928,-0.11712,-0.10736,-0.08784,-0.06832
-0.02928,0.09272,-0.15616,-0.14152,-0.12688,0.0488,-0.00976,0.03904,-0.11712,-0.0976,-0.08784,-0.06832
-0.02928,0.09272,-0.15616,-0.14152,-0.12688,0.0488,-0.00976,0.03904,-0.11712,-0.0976,-0.08784,-0.06832
-0.02928,0.09272,-0.15616,-0.14152,-0.12688,0.0488,-0.01952,0.02928,-0.11712,-0.0976,-0.08784,-0.07808
-0.02928,0.09272,-0.15616,-0.14152,-0.12688,0.0488,-0.01952,0.02928,-0.11712,-0.0976,-0.08784,-0.07808
-0.03904,0.0976,-0.15616,-0.13664,-0.11712,0.03904,-0.02928,0.02928,-0.11712,-0.0976,-0.08784,-0.06832
-0.03904,0.0976,-0.15616,-0.13664,-0.11712,0.03904,-0.02928,0.02928,-0.11712,-0.0976,-0.08784,-0.06832
-0.03904,0.0976,-0.15616,-0.13664,-0.11712,0.03904,-0.01952,0.03416,-0.11712,-0.0976,-0.0976,-0.06832
-0.03904,0.0976,-0.15616,-0.13664,-0.11712,0.03904,-0.01952,0.04392,-0.11712,-0.0976,-0.0976,-0.06832
-0.03904,0.0976,-0.15616,-0.13664,-0.11712,0.03904,-0.02928,0.0488,-0.11712,-0.0976,-0.0976,-0.06832
-0.03904,0.0976,-0.15616,-0.13664,-0.11712,0.03904,-0.02928,0.0488,-0.11712,-0.0976,-0.0976,-0.06832
-0.0488,0.10248,-0.15616,-0.13176,-0.10736,0.02928,-0.02928,0.0488,-0.10736,-0.0976,-0.08784,-0.06832
-0.0488,0.10248,-0.15616,-0.13176,-0.10736,0.02928,-0.02928,0.0488,-0.10736,-0.0976,-0.08784,-0.06832
-0.04392,0.10004,-0.15616,-0.1342,-0.11224,0.03416,-0.01952,0.05856,-0.10736,-0.0976,-0.08784,-0.05856
-0.03416,0.09516,-0.15616,-0.13908,-0.122,0.04392,-0.01952,0.05856,-0.10736,-0.0976,-0.08784,-0.05856
-0.02928,0.08784,-0.1464,-0.13176,-0.11712,0.04392,-0.01464,0.0488,-0.10736,-0.0976,-0.08784,-0.05856
-0.02928,0.08784,-0.1464,-0.13176,-0.11712,0.04392,-0.00488,0.0488,-0.10736,-0.0976,-0.08784,-0.05856
-0.03904,0.09272,-0.1464,-0.12688,-0.10736,0.03416,0.00976,0.03904,-0.10736,-0.0976,-0.08784,-0.06832
-0.03904,0.09272,-0.1464,-0.12688,-0.10736,0.03416,0.00976,0.03904,-0.10736,-0.0976,-0.08784,-0.06832
-0.03904,0.08784,-0.13664,-0.11712,-0.0976,0.02928,0.01952,0.03904,-0.0976,-0.08784,-0.08784,-0.05856
-0.04392,0.0854,-0.12688,-0.10492,-0.08296,0.01952,0.01464,0.03416,-0.09272,-0.08296,-0.08784,-0.05368
-0.04392,0.07076,-0.0976,-0.07564,-0.05368,0.00488,0.00488,0.0244,-0.07808,-0.07808,-0.0732,-0.0488
-0.03904,0.06344,-0.08784,-0.06832,-0.0488,0.00488,-0.00488,0.0244,-0.05856,-0.06832,-0.06832,-0.04392
-0.03904,0.05612,-0.0732,-0.05368,-0.03416,-0.00244,-0.00488,0.01952,-0.05856,-0.05856,-0.05368,-0.03904
-0.03416,0.05124,-0.06832,-0.05124,-0.03416,0,-0.00488,0.01952,-0.05856,-0.05856,-0.05368,-0.03904
-0.01952,0.03904,-0.05856,-0.0488,-0.03904,0.00976,0.00976,0.02928,-0.04392,-0.05368,-0.05368,-0.03416
-0.01952,0.03416,-0.0488,-0.03904,-0.02928,0.00488,0.00976,0.02928,-0.02928,-0.04392,-0.04392,-0.03416
-0.01464,0.02196,-0.02928,-0.02196,-0.01464,0,0.01952,0.0244,-0.01464,-0.0244,-0.02928,-0.01464
0,0.00244,-0.00488,-0.00488,-0.00488,0.00244,-0.00976,0.01464,0,-0.00976,-0.01952,0
0.00976,-0.00976,0.00976,0.00488,0,0.00488,-0.01952,0.01464,0,0.00488,-0.00488,0
0.01952,-0.01952,0.01952,0.00976,0,0.00976,-0.03904,0,-0.00488,0.00488,0,0.00976
0.01464,-0.01464,0.01464,0.00732,0,0.00732,-0.03904,-0.00488,-0.03416,0,-0.00976,0
0.01464,-0.00732,0,-0.00732,-0.01464,0.01464,-0.0244,0,-0.05368,-0.0244,-0.01952,0
0.01464,0.00732,-0.02928,-0.0366,-0.04392,0.02928,0,-0.00488,-0.08296,-0.05368,-0.03904,-0.00976
0.01464,0.01708,-0.0488,-0.05612,-0.06344,0.03904,0.00976,0,-0.09272,-0.06344,-0.04392,-0.00976
0.01464,0.02196,-0.05856,-0.06588,-0.0732,0.04392,0.0244,0.00976,-0.0976,-0.06832,-0.03904,-0.00976
0.01464,0.02928,-0.0732,-0.08052,-0.08784,0.05124,0.03416,0.00976,-0.0976,-0.0732,-0.03904,-0.00976
0,0.04148,-0.08296,-0.08296,-0.08296,0.04148,0.03904,0.01952,-0.09272,-0.0732,-0.0488,-0.00976
-0.00976,0.05368,-0.0976,-0.09272,-0.08784,0.03904,0.05368,0.01952,-0.0976,-0.08296,-0.05856,-0.01952
-0.03416,0.07564,-0.11712,-0.10004,-0.08296,0.0244,0.06344,0.01952,-0.11224,-0.08784,-0.06832,-0.03416
-0.0488,0.09028,-0.13176,-0.10736,-0.08296,0.01708,0.07808,0.0244,-0.122,-0.10248,-0.08296,-0.05856
-0.05368,0.10004,-0.1464,-0.11956,-0.09272,0.01952,0.0732,0.03416,-0.11224,-0.11224,-0.09272,-0.06344
-0.0488,0.10248,-0.15616,-0.13176,-0.10736,0.02928,0.0732,0.03904,-0.11712,-0.11712,-0.10248,-0.06832
-0.04392,0.0976,-0.15128,-0.12932,-0.10736,0.03172,0.05368,0.03904,-0.13176,-0.11712,-0.0976,-0.0732
-0.04392,0.0976,-0.15128,-0.12932,-0.10736,0.03172,0.0488,0.03904,-0.13176,-0.122,-0.0976,-0.0732
-0.05368,0.1098,-0.16592,-0.13908,-0.11224,0.02928,0.03904,0.0488,-0.13664,-0.122,-0.0976,-0.0732
-0.05368,0.1098,-0.16592,-0.13908,-0.11224,0.02928,0.02928,0.0488,-0.13664,-0.122,-0.0976,-0.0732
-0.06832,0.11712,-0.16592,-0.13176,-0.0976,0.01464,0.01464,0.05368,-0.12688,-0.11224,-0.0976,-0.0732
-0.06832,0.11956,-0.1708,-0.13664,-0.10248,0.01708,0.01464,0.05368,-0.122,-0.11224,-0.0976,-0.0732
-0.06344,0.11712,-0.1708,-0.13908,-0.10736,0.02196,0.01464,0.05368,-0.122,-0.11224,-0.0976,-0.0732
-0.06344,0.11712,-0.1708,-0.13908,-0.10736,0.02196,0.00976,0.05856,-0.122,-0.11224,-0.0976,-0.0732
-0.07808,0.11956,-0.16104,-0.122,-0.08296,0.00244,0.00976,0.05856,-0.122,-0.10248,-0.08784,-0.06344
-0.07808,0.11956,-0.16104,-0.122,-0.08296,0.00244,0.00488,0.05856,-0.122,-0.10736,-0.08784,-0.06344
-0.06832,0.11468,-0.16104,-0.12688,-0.09272,0.0122,0.00488,0.06832,-0.11224,-0.0976,-0.08784,-0.06832
-0.06832,0.11224,-0.15616,-0.122,-0.08784,0.00976,0,0.06832,-0.10736,-0.0976,-0.08784,-0.06832
-0.0732,0.11224,-0.15128,-0.11468,-0.07808,0.00244,-0.00976,0.06832,-0.10736,-0.10248,-0.08784,-0.06344
-0.08296,0.11956,-0.15616,-0.11468,-0.0732,-0.00488,-0.00976,0.06832,-0.10736,-0.10248,-0.08784,-0.06344
-0.08784,0.12688,-0.16592,-0.122,-0.07808,-0.00488,-0.01952,0.06344,-0.11224,-0.10248,-0.08784,-0.06344
-0.08784,0.12688,-0.16592,-0.122,-0.07808,-0.00488,-0.01952,0.06344,-0.11224,-0.0976,-0.08784,-0.06832
-0.06832,0.11224,-0.15616,-0.122,-0.08784,0.00976,-0.01952,0.05856,-0.11224,-0.10736,-0.09272,-0.06832
-0.05856,0.10736,-0.15616,-0.12688,-0.0976,0.01952,-0.01952,0.05856,-0.10736,-0.10736,-0.09272,-0.06832
-0.05368,0.10492,-0.15616,-0.12932,-0.10248,0.0244,-0.01464,0.05856,-0.0976,-0.10736,-0.0976,-0.06832
-0.05368,0.10492,-0.15616,-0.12932,-0.10248,0.0244,-0.01464,0.06344,-0.09272,-0.12688,-0.11224,-0.08784
-0.07808,0.11224,-0.1464,-0.10736,-0.06832,-0.00488,-0.01952,0.05856,-0.06344,-0.12688,-0.13176,-0.10736
-0.08784,0.10736,-0.12688,-0.08296,-0.03904,-0.0244,-0.01952,0.05856,-0.00976,-0.10736,-0.12688,-0.10736
-0.0732,0.09028,-0.10736,-0.07076,-0.03416,-0.01952,-0.04392,0.07808,0.07808,-0.0244,-0.0732,-0.07808
-0.01952,0.0488,-0.07808,-0.06832,-0.05856,0.01952,-0.0732,0.10248,0.22936,0.13176,0.03904,-0.0244
0.05856,-0.01464,-0.02928,-0.05856,-0.08784,0.0732,-0.13664,0.10736,0.39528,0.3904,0.2196,0.07808
0.15128,-0.10492,0.05856,-0.01708,-0.09272,0.122,-0.23912,0.0732,0.52704,0.72224,0.47336,0.2196
0.27816,-0.25132,0.22448,0.0854,-0.05368,0.16592,-0.40992,-0.01952,0.6344,1.15168,0.79544,0.40992
0.38552,-0.36356,0.3416,0.14884,-0.04392,0.21472,-0.57584,-0.15616,0.61,1.50792,1.098,0.59536
0.47824,-0.427,0.37576,0.13664,-0.10248,0.29036,-0.69784,-0.23912,0.52216,1.67384,1.2688,0.72712
0.49288,-0.35868,0.22448,-0.02196,-0.2684,0.38064,-0.69296,-0.25864,0.2928,1.47376,1.19072,0.72224
0.45384,-0.21228,-0.02928,-0.2562,-0.48312,0.46848,-0.57584,-0.22936,-0.10736,0.94184,0.86864,0.59536
0.34648,-0.0122,-0.32208,-0.49532,-0.66856,0.50752,-0.40504,-0.16592,-0.61976,0.20496,0.36112,0.37088
0.23424,0.15372,-0.54168,-0.6588,-0.77592,0.50508,-0.25864,-0.12688,-1.11264,-0.48312,-0.11712,0.12688
0.13664,0.25376,-0.64416,-0.71248,-0.7808,0.45872,-0.13176,-0.09272,-1.3908,-0.90768,-0.45384,-0.06344
0.06832,0.28548,-0.63928,-0.67344,-0.7076,0.38796,-0.06344,-0.0488,-1.33224,-1.01016,-0.57584,-0.16592
0.03416,0.25132,-0.5368,-0.55388,-0.57096,0.30256,-0.03416,0,-1.04432,-0.87352,-0.53192,-0.1952
0.0244,0.19276,-0.40992,-0.42212,-0.43432,0.22936,-0.03416,0.03904,-0.67832,-0.61,-0.39528,-0.16592
0.01952,0.14884,-0.3172,-0.32696,-0.33672,0.17812,-0.0488,0.0732,-0.3904,-0.40016,-0.28304,-0.13176
0.00976,0.11468,-0.23912,-0.244,-0.24888,0.12932,-0.06832,0.08296,-0.18544,-0.25376,-0.18544,-0.10736
0.01464,0.09272,-0.20008,-0.2074,-0.21472,0.11468,-0.08296,0.07808,-0.06344,-0.1708,-0.13176,-0.08296
0.00488,0.08296,-0.1708,-0.17324,-0.17568,0.09028,-0.0976,0.0732,0.00488,-0.122,-0.10736,-0.0732
0.00488,0.0732,-0.15128,-0.15372,-0.15616,0.08052,-0.10736,0.0732,0.03904,-0.10248,-0.0976,-0.06832
-0.01464,0.08052,-0.1464,-0.13908,-0.13176,0.05856,-0.11224,0.0732,0.0488,-0.0976,-0.09272,-0.06344
-0.01952,0.08052,-0.14152,-0.13176,-0.122,0.05124,-0.10736,0.0732,0.06832,-0.09272,-0.08784,-0.06832
-0.02928,0.08052,-0.13176,-0.11712,-0.10248,0.0366,-0.08784,0.07808,0.06832,-0.07808,-0.07808,-0.06344
-0.0244,0.07808,-0.13176,-0.11956,-0.10736,0.04148,-0.07808,0.07808,0.08296,-0.0732,-0.0732,-0.06344
-0.0244,0.08052,-0.13664,-0.12444,-0.11224,0.04392,-0.06832,0.07808,0.09272,-0.0732,-0.06832,-0.06344
-0.0244,0.07808,-0.13176,-0.11956,-0.10736,0.04148,-0.05856,0.08296,0.0976,-0.06344,-0.06832,-0.06344
-0.01464,0.06832,-0.122,-0.11468,-0.10736,0.04636,-0.05368,0.08296,0.0976,-0.05856,-0.06344,-0.0488
-0.01464,0.06588,-0.11712,-0.1098,-0.10248,0.04392,-0.03904,0.08296,0.10736,-0.05856,-0.06344,-0.05368
0,0.05856,-0.11712,-0.11712,-0.11712,0.05856,-0.02928,0.07808,0.10736,-0.05856,-0.06344,-0.05368
0,0.05856,-0.11712,-0.11712,-0.11712,0.05856,-0.01464,0.07808,0.10736,-0.05856,-0.05856,-0.05368
-0.01464,0.06588,-0.11712,-0.1098,-0.10248,0.04392,0.00976,0.08296,0.11712,-0.06344,-0.05856,-0.05368
-0.01464,0.06344,-0.11224,-0.10492,-0.0976,0.04148,0.01952,0.08296,0.11712,-0.06344,-0.05856,-0.0488
-0.0244,0.06832,-0.11224,-0.10004,-0.08784,0.03172,0.02928,0.09272,0.13176,-0.05856,-0.05856,-0.0488
-0.0244,0.06588,-0.10736,-0.09516,-0.08296,0.02928,0.03904,0.09272,0.14152,-0.05856,-0.05856,-0.0488
-0.0244,0.06588,-0.10736,-0.09516,-0.08296,0.02928,0.04392,0.08296,0.13664,-0.05368,-0.05368,-0.03904
-0.0244,0.06588,-0.10736,-0.09516,-0.08296,0.02928,0.0488,0.08296,0.14152,-0.05368,-0.0488,-0.03904
-0.01464,0.061,-0.10736,-0.10004,-0.09272,0.03904,0.02928,0.08784,0.13664,-0.0488,-0.05856,-0.0488
-0.00488,0.05612,-0.10736,-0.10492,-0.10248,0.0488,0.02928,0.08784,0.14152,-0.0488,-0.05856,-0.04392
0,0.05368,-0.10736,-0.10736,-0.10736,0.05368,0.01952,0.07808,0.1464,-0.04392,-0.05856,-0.05368
0,0.05368,-0.10736,-0.10736,-0.10736,0.05368,0.00976,0.07808,0.16104,-0.04392,-0.05368,-0.0488
-0.00488,0.05612,-0.10736,-0.10492,-0.10248,0.0488,0.00976,0.09272,0.1708,-0.03416,-0.0488,-0.0488
-0.01464,0.06344,-0.11224,-0.10492,-0.0976,0.04148,0,0.0976,0.1708,-0.03416,-0.0488,-0.0488
-0.02928,0.06832,-0.10736,-0.09272,-0.07808,0.0244,-0.01464,0.0976,0.19032,-0.02928,-0.03904,-0.03904
-0.02928,0.06588,-0.10248,-0.08784,-0.0732,0.02196,-0.01952,0.10248,0.20008,-0.0244,-0.03416,-0.03904
-0.02928,0.06588,-0.10248,-0.08784,-0.0732,0.02196,-0.0244,0.10248,0.20496,-0.0244,-0.04392,-0.03416
-0.02928,0.06588,-0.10248,-0.08784,-0.0732,0.02196,-0.02928,0.10248,0.21472,-0.01952,-0.03904,-0.03416
-0.0244,0.06344,-0.10248,-0.09028,-0.07808,0.02684,-0.02928,0.11712,0.22448,-0.01464,-0.03416,-0.02928
-0.0244,0.061,-0.0976,-0.0854,-0.0732,0.0244,-0.03416,0.11712,0.22936,-0.00976,-0.02928,-0.02928
-0.01952,0.05856,-0.0976,-0.08784,-0.07808,0.02928,-0.03904,0.122,0.244,0,-0.01952,-0.0244
-0.01952,0.05856,-0.0976,-0.08784,-0.07808,0.02928,-0.04392,0.122,0.25376,0,-0.01952,-0.01952
-0.00976,0.04636,-0.08296,-0.07808,-0.0732,0.03172,-0.04392,0.13664,0.2684,0.00488,-0.00976,-0.01464
0,0.04148,-0.08296,-0.08296,-0.08296,0.04148,-0.04392,0.13664,0.27816,0.00976,-0.00488,-0.01464
0,0.04636,-0.09272,-0.09272,-0.09272,0.04636,-0.03416,0.14152,0.30256,0.01464,0,-0.01464
-0.00488,0.04636,-0.08784,-0.0854,-0.08296,0.03904,-0.03416,0.1464,0.31232,0.02928,0.00488,-0.00976
-0.01952,0.05856,-0.0976,-0.08784,-0.07808,0.02928,-0.03416,0.13664,0.3172,0.0244,0.00488,-0.00488
-0.01464,0.05368,-0.09272,-0.0854,-0.07808,0.03172,-0.02928,0.14152,0.33184,0.03416,0.01464,0
0,0.04392,-0.08784,-0.08784,-0.08784,0.04392,-0.03904,0.1464,0.34648,0.03904,0.01464,0.00488
0.00488,0.0366,-0.07808,-0.08052,-0.08296,0.04392,-0.03416,0.15128,0.36112,0.0488,0.02928,0.00976
0,0.0366,-0.0732,-0.0732,-0.0732,0.0366,-0.03416,0.16104,0.38552,0.05856,0.03416,0.00488
0.00488,0.03416,-0.0732,-0.07564,-0.07808,0.04148,-0.03416,0.1708,0.40016,0.06832,0.04392,0.00488
0.00976,0.0244,-0.05856,-0.06344,-0.06832,0.03904,-0.02928,0.17568,0.41968,0.08784,0.06344,0.01952
0.01464,0.01464,-0.04392,-0.05124,-0.05856,0.0366,-0.02928,0.18544,0.4392,0.0976,0.07808,0.03416
0.01952,0.00488,-0.02928,-0.03904,-0.0488,0.03416,-0.03416,0.20496,0.45872,0.10736,0.08784,0.04392
0.0244,-0.00488,-0.01464,-0.02684,-0.03904,0.03172,-0.03416,0.20984,0.48312,0.122,0.0976,0.05368
0.02928,-0.01708,0.00488,-0.00976,-0.0244,0.02684,-0.04392,0.2196,0.50264,0.13664,0.10248,0.06344
0.03904,-0.02928,0.01952,0,-0.01952,0.02928,-0.03904,0.22936,0.52216,0.15128,0.12688,0.0732
0.03904,-0.04148,0.04392,0.0244,0.00488,0.01708,-0.0488,0.22936,0.5368,0.16592,0.14152,0.08784
0.0488,-0.05124,0.05368,0.02928,0.00488,0.02196,-0.0488,0.23424,0.55144,0.18544,0.16592,0.10248
0.0488,-0.06344,0.07808,0.05368,0.02928,0.00976,-0.05368,0.244,0.56608,0.21472,0.1952,0.122
0.05856,-0.07808,0.0976,0.06832,0.03904,0.00976,-0.05856,0.24888,0.58072,0.23424,0.20984,0.14152
0.07808,-0.0976,0.11712,0.07808,0.03904,0.01952,-0.08296,0.24888,0.57096,0.25864,0.244,0.16592
0.08296,-0.1098,0.13664,0.09516,0.05368,0.01464,-0.10248,0.24888,0.57584,0.27328,0.2684,0.18544
0.08784,-0.11712,0.1464,0.10248,0.05856,0.01464,-0.12688,0.23912,0.58072,0.28792,0.28792,0.20008
0.10248,-0.13664,0.1708,0.11956,0.06832,0.01708,-0.13664,0.23424,0.58072,0.31232,0.31232,0.2196
0.11224,-0.15128,0.19032,0.1342,0.07808,0.01708,-0.1464,0.21472,0.5612,0.30744,0.3172,0.23912
0.11712,-0.16348,0.20984,0.15128,0.09272,0.0122,-0.16592,0.20496,0.55144,0.3172,0.33672,0.244
0.13176,-0.17568,0.2196,0.15372,0.08784,0.02196,-0.18056,0.17568,0.5368,0.32696,0.3416,0.24888
0.13176,-0.18056,0.22936,0.16348,0.0976,0.01708,-0.1952,0.1708,0.51728,0.32696,0.35136,0.25376
0.12688,-0.17568,0.22448,0.16104,0.0976,0.01464,-0.1952,0.15616,0.488,0.3172,0.35136,0.24888
0.12688,-0.17812,0.22936,0.16592,0.10248,0.0122,-0.20008,0.13664,0.46848,0.3172,0.3416,0.24888
0.10736,-0.1586,0.20984,0.15616,0.10248,0.00244,-0.20008,0.122,0.4392,0.29768,0.31232,0.22936
0.0976,-0.1464,0.1952,0.1464,0.0976,0,-0.20008,0.11224,0.40992,0.28304,0.29768,0.21472
0.07808,-0.122,0.16592,0.12688,0.08784,-0.00488,-0.19032,0.10248,0.37576,0.24888,0.27328,0.18544
0.06344,-0.10492,0.1464,0.11468,0.08296,-0.00976,-0.19032,0.08784,0.33672,0.22448,0.23912,0.16592
0.05856,-0.09028,0.122,0.09272,0.06344,-0.00244,-0.18056,0.07808,0.30744,0.20496,0.21472,0.15128
0.0488,-0.07076,0.09272,0.06832,0.04392,0.00244,-0.16104,0.0732,0.27816,0.18056,0.18056,0.13176
0.03416,-0.05124,0.06832,0.05124,0.03416,0,-0.15128,0.0732,0.244,0.15128,0.16104,0.10248
0.0244,-0.0366,0.0488,0.0366,0.0244,0,-0.15128,0.06832,0.2196,0.122,0.12688,0.08296
-0.00488,-0.00732,0.01952,0.02196,0.0244,-0.01464,-0.15128,0.05368,0.18056,0.09272,0.09272,0.05856
-0.00976,0.00488,0,0.00488,0.00976,-0.00976,-0.15128,0.0488,0.15128,0.06344,0.06832,0.03904
-0.01952,0.01464,-0.00976,0,0.00976,-0.01464,-0.1464,0.0488,0.13664,0.05368,0.0488,0.02928
-0.02928,0.02928,-0.02928,-0.01464,0,-0.01464,-0.13176,0.04392,0.11224,0.0244,0.0244,0.00976
-0.03904,0.03904,-0.03904,-0.01952,0,-0.01952,-0.13176,0.0488,0.10248,0.00976,0.00488,0
-0.04392,0.05124,-0.05856,-0.0366,-0.01464,-0.01464,-0.122,0.04392,0.08296,-0.00976,-0.01952,-0.0244
-0.04392,0.061,-0.07808,-0.05612,-0.03416,-0.00488,-0.13176,0.03416,0.06344,-0.02928,-0.0244,-0.03904
-0.0488,0.06588,-0.08296,-0.05856,-0.03416,-0.00732,-0.122,0.03416,0.0488,-0.04392,-0.03904,-0.04392
-0.0488,0.06588,-0.08296,-0.05856,-0.03416,-0.00732,-0.13176,0.03416,0.03416,-0.05368,-0.04392,-0.05368
-0.0488,0.06832,-0.08784,-0.06344,-0.03904,-0.00488,-0.12688,0.02928,0.0244,-0.05856,-0.05856,-0.05856
-0.05368,0.07564,-0.0976,-0.07076,-0.04392,-0.00488,-0.13664,0.02928,0.00488,-0.07808,-0.06832,-0.05856
-0.05856,0.08052,-0.10248,-0.0732,-0.04392,-0.00732,-0.13176,0.02928,0,-0.08784,-0.07808,-0.05856
-0.05856,0.07808,-0.0976,-0.06832,-0.03904,-0.00976,-0.11224,0.02928,-0.00488,-0.08784,-0.0732,-0.05856
-0.05856,0.07808,-0.0976,-0.06832,-0.03904,-0.00976,-0.11224,0.0244,-0.00976,-0.08784,-0.0732,-0.06344
-0.05856,0.07564,-0.09272,-0.06344,-0.03416,-0.0122,-0.10736,0.0244,0,-0.07808,-0.0732,-0.06344
-0.06344,0.07808,-0.09272,-0.061,-0.02928,-0.01708,-0.10736,0.0244,-0.00488,-0.08784,-0.07808,-0.06832
-0.06344,0.08052,-0.0976,-0.06588,-0.03416,-0.01464,-0.0976,0.0244,-0.00488,-0.08784,-0.09272,-0.06832
-0.06832,0.08784,-0.10736,-0.0732,-0.03904,-0.01464,-0.0976,0.0244,-0.01464,-0.08784,-0.09272,-0.0732
-0.07808,0.10004,-0.122,-0.08296,-0.04392,-0.01708,-0.10248,0.01464,-0.0244,-0.10248,-0.0976,-0.08296
-0.07808,0.10004,-0.122,-0.08296,-0.04392,-0.01708,-0.10248,0.01464,-0.0244,-0.0976,-0.0976,-0.08296
-0.0732,0.10004,-0.12688,-0.09028,-0.05368,-0.00976,-0.0976,0.01464,-0.0244,-0.10248,-0.08784,-0.0732
-0.0732,0.09516,-0.11712,-0.08052,-0.04392,-0.01464,-0.09272,0.01464,-0.0244,-0.10248,-0.08784,-0.0732
-0.05856,0.0854,-0.11224,-0.08296,-0.05368,-0.00244,-0.07808,0.01464,-0.0244,-0.10248,-0.08784,-0.0732
-0.05856,0.0854,-0.11224,-0.08296,-0.05368,-0.00244,-0.07808,0.01464,-0.0244,-0.10248,-0.08784,-0.0732
-0.05856,0.09028,-0.122,-0.09272,-0.06344,0.00244,-0.06832,0.01464,-0.0244,-0.10248,-0.08784,-0.07808
-0.05856,0.09028,-0.122,-0.09272,-0.06344,0.00244,-0.06832,0.01952,-0.0244,-0.10248,-0.08784,-0.07808
-0.06832,0.10004,-0.13176,-0.0976,-0.06344,-0.00244,-0.05368,0.01952,-0.01952,-0.10248,-0.08784,-0.07808
-0.06832,0.10004,-0.13176,-0.0976,-0.06344,-0.00244,-0.05368,0.01952,-0.01952,-0.10248,-0.09272,-0.07808
-0.06832,0.09516,-0.122,-0.08784,-0.05368,-0.00732,-0.03904,0.0244,-0.00976,-0.0976,-0.0976,-0.07808
-0.06832,0.09516,-0.122,-0.08784,-0.05368,-0.00732,-0.03904,0.0244,-0.00488,-0.0976,-0.0976,-0.08296
-0.06344,0.09272,-0.122,-0.09028,-0.05856,-0.00244,-0.02928,0.0244,0.00488,-0.10248,-0.0976,-0.0732
-0.06344,0.09272,-0.122,-0.09028,-0.05856,-0.00244,-0.0244,0.0244,0,-0.10248,-0.0976,-0.0732
-0.0732,0.0976,-0.122,-0.0854,-0.0488,-0.0122,-0.00976,0.03416,-0.00488,-0.0976,-0.0976,-0.08296
-0.0732,0.0976,-0.122,-0.0854,-0.0488,-0.0122,-0.00488,0.03904,0,-0.10248,-0.0976,-0.08296
-0.08296,0.10736,-0.13176,-0.09028,-0.0488,-0.01708,0.00976,0.03904,-0.00976,-0.10248,-0.0976,-0.08296
-0.08296,0.10736,-0.13176,-0.09028,-0.0488,-0.01708,0.01952,0.03904,-0.00488,-0.10248,-0.0976,-0.08296
-0.08296,0.1098,-0.13664,-0.09516,-0.05368,-0.01464,0.01952,0.03416,0.00488,-0.0976,-0.0976,-0.08296
-0.08296,0.10736,-0.13176,-0.09028,-0.0488,-0.01708,0.0244,0.03416,0.00488,-0.0976,-0.0976,-0.07808
-0.06832,0.10004,-0.13176,-0.0976,-0.06344,-0.00244,0.0244,0.03416,0,-0.10736,-0.0976,-0.07808
-0.06832,0.10248,-0.13664,-0.10248,-0.06832,0,0.02928,0.03416,0,-0.10736,-0.0976,-0.07808
-0.06344,0.09516,-0.12688,-0.09516,-0.06344,0,0.0244,0.0244,-0.00976,-0.10736,-0.0976,-0.08296
-0.05368,0.09028,-0.12688,-0.10004,-0.0732,0.00976,0.01952,0.01952,-0.00976,-0.10736,-0.0976,-0.08296
-0.05368,0.09516,-0.13664,-0.1098,-0.08296,0.01464,0.01464,0.01952,-0.00976,-0.10736,-0.10736,-0.09272
-0.06344,0.10004,-0.13664,-0.10492,-0.0732,0.00488,0.01952,0.01952,-0.00976,-0.10736,-0.10736,-0.09272
-0.06832,0.10004,-0.13176,-0.0976,-0.06344,-0.00244,0.01464,0.01952,-0.00488,-0.10248,-0.10248,-0.08784
-0.06832,0.0976,-0.12688,-0.09272,-0.05856,-0.00488,0.01464,0.01952,-0.00488,-0.10248,-0.10248,-0.08784
-0.05856,0.09272,-0.12688,-0.0976,-0.06832,0.00488,0.01464,0.0244,-0.01464,-0.10736,-0.10248,-0.08784
-0.05856,0.09272,-0.12688,-0.0976,-0.06832,0.00488,0.01464,0.0244,-0.01952,-0.10736,-0.0976,-0.08784
-0.0488,0.08296,-0.11712,-0.09272,-0.06832,0.00976,0.00488,0.0244,-0.00976,-0.10736,-0.08784,-0.07808
-0.0488,0.08296,-0.11712,-0.09272,-0.06832,0.00976,0.00488,0.0244,-0.01464,-0.10736,-0.08784,-0.07808
-0.04392,0.08052,-0.11712,-0.09516,-0.0732,0.01464,-0.01464,0.0244,-0.01464,-0.0976,-0.08296,-0.07808
-0.04392,0.08052,-0.11712,-0.09516,-0.0732,0.01464,-0.01952,0.0244,-0.01464,-0.0976,-0.08296,-0.07808
-0.05368,0.0854,-0.11712,-0.09028,-0.06344,0.00488,-0.02928,0.01464,-0.02928,-0.0976,-0.08296,-0.0732
-0.05368,0.0854,-0.11712,-0.09028,-0.06344,0.00488,-0.03416,0.01464,-0.02928,-0.0976,-0.08296,-0.0732
-0.06832,0.0976,-0.12688,-0.09272,-0.05856,-0.00488,-0.02928,0.01952,-0.02928,-0.0976,-0.08296,-0.0732
-0.06832,0.0976,-0.12688,-0.09272,-0.05856,-0.00488,-0.03416,0.01952,-0.03416,-0.0976,-0.08296,-0.0732
-0.06832,0.0976,-0.12688,-0.09272,-0.05856,-0.00488,-0.04392,0.01952,-0.03416,-0.10736,-0.09272,-0.0732
-0.06832,0.09516,-0.122,-0.08784,-0.05368,-0.00732,-0.05856,0.01952,-0.03416,-0.10736,-0.09272,-0.0732
-0.05368,0.08784,-0.122,-0.09516,-0.06832,0.00732,-0.06344,0.01952,-0.03904,-0.10736,-0.09272,-0.0732
-0.05368,0.0854,-0.11712,-0.09028,-0.06344,0.00488,-0.06832,0.01952,-0.03904,-0.10736,-0.09272,-0.0732
-0.05368,0.08052,-0.10736,-0.08052,-0.05368,0,-0.05856,0.01952,-0.04392,-0.10736,-0.08296,-0.0732
-0.05368,0.08296,-0.11224,-0.0854,-0.05856,0.00244,-0.05856,0.01952,-0.04392,-0.10736,-0.08784,-0.0732
-0.05856,0.09028,-0.122,-0.09272,-0.06344,0.00244,-0.06832,0.01952,-0.0488,-0.10736,-0.09272,-0.0732
-0.06832,0.0976,-0.12688,-0.09272,-0.05856,-0.00488,-0.06832,0.01952,-0.05368,-0.11712,-0.0976,-0.0732
-0.06344,0.09028,-0.11712,-0.0854,-0.05368,-0.00488,-0.08296,0.01464,-0.05368,-0.11224,-0.10736,-0.08296
-0.06832,0.09272,-0.11712,-0.08296,-0.0488,-0.00976,-0.08296,0.01464,-0.05368,-0.11712,-0.10736,-0.08296
-0.06832,0.09272,-0.11712,-0.08296,-0.0488,-0.00976,-0.08784,0.00976,-0.05856,-0.11712,-0.0976,-0.08296
-0.06832,0.09272,-0.11712,-0.08296,-0.0488,-0.00976,-0.0976,0.00976,-0.05856,-0.122,-0.0976,-0.08296
-0.07808,0.10248,-0.12688,-0.08784,-0.0488,-0.01464,-0.10248,0.01952,-0.06832,-0.122,-0.0976,-0.0732
-0.07808,0.10248,-0.12688,-0.08784,-0.0488,-0.01464,-0.10736,0.01464,-0.0732,-0.122,-0.0976,-0.0732
-0.0732,0.09516,-0.11712,-0.08052,-0.04392,-0.01464,-0.0976,0.01464,-0.0732,-0.122,-0.0976,-0.0732
-0.0732,0.09516,-0.11712,-0.08052,-0.04392,-0.01464,-0.0976,0.01464,-0.0732,-0.122,-0.0976,-0.0732
-0.06832,0.09272,-0.11712,-0.08296,-0.0488,-0.00976,-0.0976,0.01464,-0.06832,-0.122,-0.08784,-0.0732
-0.06832,0.09272,-0.11712,-0.08296,-0.0488,-0.00976,-0.10248,0.01464,-0.06832,-0.122,-0.09272,-0.0732
-0.06344,0.09028,-0.11712,-0.0854,-0.05368,-0.00488,-0.0976,0.01464,-0.06832,-0.12688,-0.09272,-0.07808
-0.06344,0.09028,-0.11712,-0.0854,-0.05368,-0.00488,-0.0976,0.01464,-0.0732,-0.12688,-0.09272,-0.07808
-0.0732,0.10004,-0.12688,-0.09028,-0.05368,-0.00976,-0.08296,0.01464,-0.08296,-0.12688,-0.09272,-0.07808
-0.06832,0.0976,-0.12688,-0.09272,-0.05856,-0.00488,-0.08784,0.01464,-0.08784,-0.12688,-0.09272,-0.07808
-0.07808,0.0976,-0.11712,-0.07808,-0.03904,-0.01952,-0.07808,0.01464,-0.08784,-0.12688,-0.0976,-0.08784
-0.07808,0.0976,-0.11712,-0.07808,-0.03904,-0.01952,-0.0732,0.01952,-0.08784,-0.12688,-0.0976,-0.08784
-0.06832,0.08784,-0.10736,-0.0732,-0.03904,-0.01464,-0.06344,0.01464,-0.08784,-0.11712,-0.0976,-0.07808
-0.06832,0.08784,-0.10736,-0.0732,-0.03904,-0.01464,-0.06344,0.01464,-0.08784,-0.11712,-0.0976,-0.07808
-0.0732,0.09272,-0.11224,-0.07564,-0.03904,-0.01708,-0.05368,0.01464,-0.08784,-0.122,-0.09272,-0.07808
-0.0732,0.09272,-0.11224,-0.07564,-0.03904,-0.01708,-0.05368,0.01464,-0.08784,-0.11712,-0.09272,-0.0732
-0.06344,0.0854,-0.10736,-0.07564,-0.04392,-0.00976,-0.05368,0.01464,-0.07808,-0.11712,-0.09272,-0.08296
-0.06344,0.0854,-0.10736,-0.07564,-0.04392,-0.00976,-0.05368,0.01464,-0.07808,-0.11712,-0.09272,-0.08296
-0.06832,0.09272,-0.11712,-0.08296,-0.0488,-0.00976,-0.05368,0.01464,-0.07808,-0.11712,-0.09272,-0.08296
-0.06832,0.09272,-0.11712,-0.08296,-0.0488,-0.00976,-0.0488,0.01464,-0.07808,-0.11712,-0.09272,-0.08296
-0.05856,0.09272,-0.12688,-0.0976,-0.06832,0.00488,-0.05856,0.01464,-0.07808,-0.11712,-0.0976,-0.08784
-0.06344,0.09516,-0.12688,-0.09516,-0.06344,0,-0.05368,0.01464,-0.08296,-0.122,-0.09272,-0.08784
-0.06344,0.09028,-0.11712,-0.0854,-0.05368,-0.00488,-0.06344,0.01464,-0.08296,-0.122,-0.09272,-0.08784
-0.06344,0.08784,-0.11224,-0.08052,-0.0488,-0.00732,-0.06344,0.00976,-0.08296,-0.122,-0.09272,-0.08784
-0.0732,0.0976,-0.122,-0.0854,-0.0488,-0.0122,-0.05856,0.01952,-0.08296,-0.122,-0.09272,-0.07808
-0.0732,0.0976,-0.122,-0.0854,-0.0488,-0.0122,-0.05368,0.01952,-0.08296,-0.122,-0.09272,-0.07808
-0.0732,0.0976,-0.122,-0.0854,-0.0488,-0.0122,-0.04392,0.01952,-0.08296,-0.11224,-0.08296,-0.06832
-0.0732,0.0976,-0.122,-0.0854,-0.0488,-0.0122,-0.02928,0.01952,-0.08296,-0.10736,-0.08296,-0.06832
-0.07808,0.0976,-0.11712,-0.07808,-0.03904,-0.01952,-0.01464,0.02928,-0.08296,-0.10736,-0.08296,-0.06832
-0.07808,0.0976,-0.11712,-0.07808,-0.03904,-0.01952,-0.00488,0.03416,-0.0732,-0.10736,-0.0732,-0.0732
-0.05856,0.08784,-0.11712,-0.08784,-0.05856,0,-0.00976,0.02928,-0.07808,-0.10736,-0.08784,-0.07808
-0.05856,0.08784,-0.11712,-0.08784,-0.05856,0,-0.00976,0.02928,-0.07808,-0.10736,-0.08784,-0.07808
-0.05368,0.08052,-0.10736,-0.08052,-0.05368,0,-0.01952,0.02928,-0.08784,-0.11712,-0.08784,-0.07808
-0.04392,0.07564,-0.10736,-0.0854,-0.06344,0.00976,-0.01952,0.02928,-0.08784,-0.11712,-0.08784,-0.07808
-0.04392,0.08052,-0.11712,-0.09516,-0.0732,0.01464,-0.01464,0.02928,-0.08784,-0.11712,-0.08784,-0.07808
-0.05368,0.0854,-0.11712,-0.09028,-0.06344,0.00488,-0.00488,0.02928,-0.08784,-0.11712,-0.08784,-0.07808
-0.06344,0.09028,-0.11712,-0.0854,-0.05368,-0.00488,0.00976,0.02928,-0.08784,-0.10736,-0.07808,-0.07808
-0.0732,0.09516,-0.11712,-0.08052,-0.04392,-0.01464,0.00976,0.02928,-0.08784,-0.10736,-0.07808,-0.07808
-0.0732,0.09516,-0.11712,-0.08052,-0.04392,-0.01464,0.00976,0.02928,-0.08784,-0.10736,-0.07808,-0.07808
-0.06344,0.09028,-0.11712,-0.0854,-0.05368,-0.00488,0.00976,0.02928,-0.08784,-0.10736,-0.07808,-0.07808
-0.06832,0.0976,-0.12688,-0.09272,-0.05856,-0.00488,0.00976,0.02928,-0.08784,-0.10736,-0.07808,-0.06832
-0.06832,0.0976,-0.12688,-0.09272,-0.05856,-0.00488,0.00976,0.02928,-0.08784,-0.10736,-0.07808,-0.06832
-0.06832,0.09272,-0.11712,-0.08296,-0.0488,-0.00976,0.00976,0.02928,-0.08784,-0.10736,-0.07808,-0.06832
-0.06832,0.09272,-0.11712,-0.08296,-0.0488,-0.00976,0.00976,0.02928,-0.08784,-0.10736,-0.07808,-0.06832
-0.05368,0.08296,-0.11224,-0.0854,-0.05856,0.00244,0.00976,0.01952,-0.08784,-0.10736,-0.08784,-0.07808
-0.04392,0.0732,-0.10248,-0.08052,-0.05856,0.00732,0.00976,0.01952,-0.08784,-0.10736,-0.08784,-0.07808
-0.0488,0.07808,-0.10736,-0.08296,-0.05856,0.00488,0.00976,0.02928,-0.08784,-0.10736,-0.08784,-0.07808
-0.0488,0.07808,-0.10736,-0.08296,-0.05856,0.00488,0.00976,0.02928,-0.08784,-0.10736,-0.08784,-0.07808
-0.0488,0.07808,-0.10736,-0.08296,-0.05856,0.00488,0.01952,0.02928,-0.0976,-0.10736,-0.07808,-0.07808
-0.0488,0.07808,-0.10736,-0.08296,-0.05856,0.00488,0.01952,0.02928,-0.0976,-0.10736,-0.07808,-0.07808
-0.03904,0.06832,-0.0976,-0.07808,-0.05856,0.00976,0.02928,0.02928,-0.08784,-0.0976,-0.07808,-0.06832
-0.03904,0.06832,-0.0976,-0.07808,-0.05856,0.00976,0.02928,0.02928,-0.08784,-0.0976,-0.07808,-0.06832
-0.0488,0.07808,-0.10736,-0.08296,-0.05856,0.00488,0.02928,0.03904,-0.08784,-0.0976,-0.06832,-0.05856
-0.0488,0.07808,-0.10736,-0.08296,-0.05856,0.00488,0.02928,0.03904,-0.08784,-0.0976,-0.06832,-0.05856
-0.03904,0.0732,-0.10736,-0.08784,-0.06832,0.01464,0.0244,0.03904,-0.08784,-0.10736,-0.07808,-0.05856
-0.03904,0.0732,-0.10736,-0.08784,-0.06832,0.01464,0.01464,0.03904,-0.08784,-0.10736,-0.07808,-0.05856
-0.0488,0.07808,-0.10736,-0.08296,-0.05856,0.00488,-0.00488,0.03904,-0.0976,-0.10736,-0.06832,-0.06832
-0.0488,0.07808,-0.10736,-0.08296,-0.05856,0.00488,-0.01464,0.03904,-0.0976,-0.10736,-0.06832,-0.06832
-0.0488,0.07808,-0.10736,-0.08296,-0.05856,0.00488,-0.0244,0.03904,-0.0976,-0.0976,-0.06832,-0.06832
-0.0488,0.07808,-0.10736,-0.08296,-0.05856,0.00488,-0.03416,0.03904,-0.0976,-0.0976,-0.06832,-0.06832
-0.03904,0.0732,-0.10736,-0.08784,-0.06832,0.01464,-0.03904,0.03904,-0.08784,-0.0976,-0.06832,-0.05856
-0.03904,0.0732,-0.10736,-0.08784,-0.06832,0.01464,-0.03904,0.03904,-0.08784,-0.0976,-0.06832,-0.05856
-0.03904,0.06832,-0.0976,-0.07808,-0.05856,0.00976,-0.03904,0.03904,-0.08784,-0.0976,-0.06832,-0.05856
-0.03904,0.06832,-0.0976,-0.07808,-0.05856,0.00976,-0.03904,0.03904,-0.08784,-0.0976,-0.06832,-0.05856
-0.02928,0.06344,-0.0976,-0.08296,-0.06832,0.01952,-0.03904,0.02928,-0.08784,-0.0976,-0.06832,-0.05856
-0.02928,0.06344,-0.0976,-0.08296,-0.06832,0.01952,-0.03904,0.02928,-0.08784,-0.0976,-0.06832,-0.05856
-0.02928,0.05856,-0.08784,-0.0732,-0.05856,0.01464,-0.02928,0.02928,-0.08784,-0.08784,-0.05856,-0.05856
-0.02928,0.05856,-0.08784,-0.0732,-0.05856,0.01464,-0.02928,0.02928,-0.08784,-0.08784,-0.05856,-0.05856
-0.02928,0.06344,-0.0976,-0.08296,-0.06832,0.01952,-0.02928,0.02928,-0.07808,-0.07808,-0.05856,-0.0488
-0.02928,0.06344,-0.0976,-0.08296,-0.06832,0.01952,-0.02928,0.02928,-0.07808,-0.07808,-0.05856,-0.0488
-0.03904,0.06832,-0.0976,-0.07808,-0.05856,0.00976,-0.02928,0.02928,-0.08784,-0.08784,-0.06832,-0.05856
-0.03904,0.06832,-0.0976,-0.07808,-0.05856,0.00976,-0.02928,0.02928,-0.08784,-0.08784,-0.06832,-0.05856
-0.0488,0.0732,-0.0976,-0.0732,-0.0488,0,-0.01952,0.01952,-0.08784,-0.08784,-0.06832,-0.0488
-0.0488,0.0732,-0.0976,-0.0732,-0.0488,0,-0.01952,0.01952,-0.08784,-0.08784,-0.06832,-0.0488
-0.0488,0.0732,-0.0976,-0.0732,-0.0488,0,-0.01952,0.01952,-0.08784,-0.08784,-0.05856,-0.0488
-0.0488,0.0732,-0.0976,-0.0732,-0.0488,0,-0.01952,0.01952,-0.08784,-0.08784,-0.05856,-0.0488
-0.0488,0.0732,-0.0976,-0.0732,-0.0488,0,-0.00976,0.01952,-0.08784,-0.07808,-0.05856,-0.0488
-0.0488,0.0732,-0.0976,-0.0732,-0.0488,0,-0.00976,0.01952,-0.08784,-0.07808,-0.05856,-0.0488
-0.0488,0.0732,-0.0976,-0.0732,-0.0488,0,-0.00976,0.01952,-0.08784,-0.07808,-0.05856,-0.0488
-0.0488,0.0732,-0.0976,-0.0732,-0.0488,0,-0.00976,0.01952,-0.08784,-0.07808,-0.05856,-0.0488
-0.03904,0.0732,-0.10736,-0.08784,-0.06832,0.01464,-0.01952,0.01952,-0.08784,-0.08784,-0.05856,-0.0488
-0.03904,0.0732,-0.10736,-0.08784,-0.06832,0.01464,-0.01952,0.01952,-0.08784,-0.08784,-0.05856,-0.0488
-0.03904,0.07808,-0.11712,-0.0976,-0.07808,0.01952,-0.02928,0.00976,-0.08784,-0.08784,-0.05856,-0.0488
-0.03904,0.07808,-0.11712,-0.0976,-0.07808,0.01952,-0.02928,0.00976,-0.08784,-0.08784,-0.05856,-0.0488
-0.03904,0.07808,-0.11712,-0.0976,-0.07808,0.01952,-0.0244,0.01952,-0.08784,-0.08784,-0.0488,-0.0488
-0.03904,0.07808,-0.11712,-0.0976,-0.07808,0.01952,-0.01464,0.01952,-0.08784,-0.08784,-0.0488,-0.0488
-0.03904,0.07808,-0.11712,-0.0976,-0.07808,0.01952,-0.00976,0.01952,-0.07808,-0.07808,-0.05856,-0.0488
-0.03904,0.07808,-0.11712,-0.0976,-0.07808,0.01952,-0.00976,0.01952,-0.07808,-0.07808,-0.05856,-0.0488
-0.0488,0.08296,-0.11712,-0.09272,-0.06832,0.00976,-0.01952,0.01952,-0.07808,-0.07808,-0.0488,-0.0488
-0.0488,0.08296,-0.11712,-0.09272,-0.06832,0.00976,-0.01952,0.01952,-0.07808,-0.07808,-0.0488,-0.0488
-0.0488,0.08296,-0.11712,-0.09272,-0.06832,0.00976,-0.00976,0.01952,-0.08784,-0.07808,-0.05856,-0.0488
-0.0488,0.08296,-0.11712,-0.09272,-0.06832,0.00976,-0.00976,0.01952,-0.08784,-0.07808,-0.05856,-0.0488
-0.03904,0.07808,-0.11712,-0.0976,-0.07808,0.01952,-0.01952,0.01952,-0.08784,-0.07808,-0.0488,-0.0488
-0.03904,0.07808,-0.11712,-0.0976,-0.07808,0.01952,-0.01952,0.01952,-0.08784,-0.07808,-0.0488,-0.0488
-0.03904,0.07808,-0.11712,-0.0976,-0.07808,0.01952,-0.01464,0.01952,-0.08784,-0.07808,-0.0488,-0.0488
-0.03904,0.07808,-0.11712,-0.0976,-0.07808,0.01952,-0.00488,0.01952,-0.08784,-0.07808,-0.0488,-0.0488
-0.03904,0.07808,-0.11712,-0.0976,-0.07808,0.01952,0.00488,0.00976,-0.08784,-0.06832,-0.03904,-0.03904
-0.03904,0.07808,-0.11712,-0.0976,-0.07808,0.01952,0.01464,0.00976,-0.08784,-0.06832,-0.03904,-0.03904
-0.0488,0.08296,-0.11712,-0.09272,-0.06832,0.00976,0.02928,0.01952,-0.08784,-0.05856,-0.03904,-0.03904
-0.05368,0.07564,-0.0976,-0.07076,-0.04392,-0.00488,0.01952,0.01464,-0.07808,-0.05368,-0.02928,-0.02928
-0.0488,0.06344,-0.07808,-0.05368,-0.02928,-0.00976,0.01464,0.01464,-0.06832,-0.04392,-0.00976,-0.02928
-0.0488,0.061,-0.0732,-0.0488,-0.0244,-0.0122,0.01952,0.00976,-0.0488,-0.03416,-0.00488,-0.0244
-0.03416,0.04636,-0.05856,-0.04148,-0.0244,-0.00488,0.03416,0.01952,-0.03904,-0.01952,-0.00488,-0.01952
-0.02928,0.04392,-0.05856,-0.04392,-0.02928,0,0.03416,0.01952,-0.03416,-0.01464,0,-0.01464
-0.02928,0.0488,-0.06832,-0.05368,-0.03904,0.00488,0.0244,0.00976,-0.03416,-0.00976,0,-0.0244
-0.0244,0.0366,-0.0488,-0.0366,-0.0244,0,0.01464,0.01464,-0.0244,-0.01464,0.00488,-0.01464
-0.02928,0.02928,-0.02928,-0.01464,0,-0.01464,0.00488,0.01464,-0.00976,0.00488,0.01464,-0.00976
-0.01464,0.00976,-0.00488,0.00244,0.00976,-0.0122,-0.0244,0,0.00488,0.01464,0.02928,0.00488
0,-0.0122,0.0244,0.0244,0.0244,-0.0122,-0.0488,-0.00976,0.01952,0.03416,0.03904,0.01464
0.00488,-0.01708,0.02928,0.02684,0.0244,-0.00976,-0.05856,-0.0244,0.00488,0.03416,0.03904,0.01952
0.01464,-0.01952,0.0244,0.01708,0.00976,0.00244,-0.06832,-0.02928,-0.00488,0.03416,0.0488,0.02928
0.01464,-0.01464,0.01464,0.00732,0,0.00732,-0.06832,-0.02928,-0.0244,0.01464,0.03416,0.01952
0.00976,0.00244,-0.01464,-0.01952,-0.0244,0.01708,-0.06344,-0.0244,-0.05368,0.00488,0.0244,0.01952
0,0.01464,-0.02928,-0.02928,-0.02928,0.01464,-0.05368,-0.01952,-0.06344,0,0.0244,0.01952
-0.01464,0.02684,-0.03904,-0.03172,-0.0244,0.00488,-0.03904,0,-0.06832,-0.00976,0.01952,0.01952
-0.01464,0.03172,-0.0488,-0.04148,-0.03416,0.00976,-0.0244,0.01464,-0.0732,-0.01464,0.01952,0.01952
-0.01464,0.03172,-0.0488,-0.04148,-0.03416,0.00976,-0.00976,0.01952,-0.0732,-0.01464,0.02928,0.02928
-0.02928,0.0488,-0.06832,-0.05368,-0.03904,0.00488,0,0.01952,-0.08296,-0.02928,0.01464,0.00488
-0.02928,0.061,-0.09272,-0.07808,-0.06344,0.01708,0.00976,0.01952,-0.08296,-0.03416,-0.00488,-0.01952
-0.0488,0.08052,-0.11224,-0.08784,-0.06344,0.00732,0.0244,0.0244,-0.09272,-0.0488,-0.0244,-0.03416
-0.06344,0.0976,-0.13176,-0.10004,-0.06832,0.00244,0.03416,0.01464,-0.10248,-0.05856,-0.03904,-0.0488
-0.06344,0.10004,-0.13664,-0.10492,-0.0732,0.00488,0.03904,0.01952,-0.10736,-0.05856,-0.0488,-0.0488
-0.0732,0.1098,-0.1464,-0.1098,-0.0732,0,0.0488,0.01952,-0.11224,-0.06832,-0.0488,-0.05368
-0.0732,0.11468,-0.15616,-0.11956,-0.08296,0.00488,0.05368,0.01952,-0.11224,-0.0732,-0.0488,-0.05368
-0.0732,0.11468,-0.15616,-0.11956,-0.08296,0.00488,0.05368,0.02928,-0.12688,-0.08296,-0.05856,-0.05368
-0.0732,0.11468,-0.15616,-0.11956,-0.08296,0.00488,0.05368,0.03416,-0.12688,-0.08296,-0.05856,-0.05368
-0.06832,0.11468,-0.16104,-0.12688,-0.09272,0.0122,0.05856,0.03416,-0.12688,-0.08296,-0.0488,-0.04392
-0.06832,0.11468,-0.16104,-0.12688,-0.09272,0.0122,0.06832,0.03416,-0.122,-0.08296,-0.0488,-0.04392
-0.06344,0.11224,-0.16104,-0.12932,-0.0976,0.01708,0.05856,0.0244,-0.122,-0.08296,-0.0488,-0.05368
-0.06832,0.11468,-0.16104,-0.12688,-0.09272,0.0122,0.05856,0.02928,-0.122,-0.08296,-0.0488,-0.05368
-0.06832,0.11468,-0.16104,-0.12688,-0.09272,0.0122,0.05856,0.03904,-0.11224,-0.08296,-0.0488,-0.05368
-0.06832,0.11468,-0.16104,-0.12688,-0.09272,0.0122,0.05368,0.03904,-0.11224,-0.08784,-0.0488,-0.05856
-0.05856,0.1098,-0.16104,-0.13176,-0.10248,0.02196,0.05368,0.03904,-0.11712,-0.08784,-0.0488,-0.05856
-0.05856,0.10736,-0.15616,-0.12688,-0.0976,0.01952,0.0488,0.03904,-0.11712,-0.08296,-0.0488,-0.05368
-0.05856,0.10492,-0.15128,-0.122,-0.09272,0.01708,0.03904,0.03904,-0.11712,-0.08296,-0.05856,-0.05368
-0.05856,0.10736,-0.15616,-0.12688,-0.0976,0.01952,0.03904,0.04392,-0.11712,-0.08296,-0.05856,-0.05368
-0.05856,0.10736,-0.15616,-0.12688,-0.0976,0.01952,0.03904,0.05368,-0.11224,-0.09272,-0.05856,-0.05368
-0.05856,0.10492,-0.15128,-0.122,-0.09272,0.01708,0.03904,0.05368,-0.11224,-0.08784,-0.05856,-0.05856
-0.06344,0.1098,-0.15616,-0.12444,-0.09272,0.01464,0.03904,0.0488,-0.11224,-0.08784,-0.05368,-0.05856
-0.06344,0.1098,-0.15616,-0.12444,-0.09272,0.01464,0.03416,0.0488,-0.10736,-0.08784,-0.05368,-0.05856
-0.0732,0.11468,-0.15616,-0.11956,-0.08296,0.00488,0.03416,0.05368,-0.10736,-0.08296,-0.05856,-0.06344
-0.06832,0.11224,-0.15616,-0.122,-0.08784,0.00976,0.02928,0.05368,-0.09272,-0.09272,-0.0732,-0.0732
-0.09272,0.12688,-0.16104,-0.11468,-0.06832,-0.0122,0.03904,0.06832,-0.06344,-0.0976,-0.08784,-0.08784
-0.0976,0.12444,-0.15128,-0.10248,-0.05368,-0.02196,0.03904,0.06832,-0.0244,-0.0976,-0.0976,-0.09272
-0.08296,0.1098,-0.13664,-0.09516,-0.05368,-0.01464,0.02928,0.06832,0.05368,-0.03904,-0.06832,-0.08296
-0.05368,0.08296,-0.11224,-0.0854,-0.05856,0.00244,0.02928,0.0976,0.1708,0.08784,0.01952,-0.0488
0.01464,0.03904,-0.09272,-0.10004,-0.10736,0.061,0.00488,0.13664,0.35136,0.31232,0.19032,0.0488
0.08784,-0.0244,-0.03904,-0.08296,-0.12688,0.10736,-0.04392,0.15128,0.50264,0.62464,0.42456,0.1708
0.17568,-0.11956,0.06344,-0.0244,-0.11224,0.14396,-0.13176,0.122,0.59536,1.0248,0.73688,0.35624
0.27328,-0.22204,0.1708,0.03416,-0.10248,0.18788,-0.2684,0.01952,0.5856,1.42008,1.05408,0.54656
0.33672,-0.28792,0.23912,0.07076,-0.0976,0.21716,-0.37088,-0.10248,0.44408,1.64944,1.27856,0.70272
0.366,-0.25376,0.14152,-0.04148,-0.22448,0.29524,-0.38064,-0.16104,0.22936,1.55672,1.25416,0.72712
0.34648,-0.14884,-0.0488,-0.22204,-0.39528,0.37088,-0.3172,-0.18544,-0.12688,1.11752,0.97112,0.62464
0.26352,0.01952,-0.30256,-0.43432,-0.56608,0.4148,-0.1952,-0.17568,-0.59536,0.42944,0.49288,0.39528
0.15128,0.18788,-0.52704,-0.60268,-0.67832,0.4148,-0.06344,-0.16104,-1.08824,-0.30256,-0.03416,0.13664
0.03416,0.29768,-0.62952,-0.6466,-0.66368,0.34892,0.02928,-0.1464,-1.464,-0.83936,-0.4392,-0.0732
-0.03416,0.34404,-0.65392,-0.63684,-0.61976,0.2928,0.08784,-0.11712,-1.52256,-1.04432,-0.61,-0.1952
-0.06832,0.3294,-0.59048,-0.55632,-0.52216,0.22692,0.122,-0.06832,-1.3176,-0.99064,-0.61488,-0.244
-0.07808,0.27328,-0.46848,-0.42944,-0.3904,0.15616,0.12688,-0.01952,-0.96624,-0.76616,-0.488,-0.2196
-0.06832,0.2074,-0.34648,-0.31232,-0.27816,0.10492,0.122,0.03416,-0.64416,-0.52216,-0.3416,-0.16104
-0.0488,0.15372,-0.25864,-0.23424,-0.20984,0.08052,0.11224,0.0732,-0.37088,-0.32696,-0.2196,-0.11712
-0.04392,0.12932,-0.21472,-0.19276,-0.1708,0.06344,0.0976,0.08296,-0.20496,-0.20496,-0.13664,-0.08296
-0.04392,0.11224,-0.18056,-0.1586,-0.13664,0.04636,0.06832,0.08784,-0.09272,-0.122,-0.09272,-0.06344
-0.04392,0.10736,-0.1708,-0.14884,-0.12688,0.04148,0.04392,0.08296,-0.03416,-0.08296,-0.0732,-0.05368
-0.0488,0.10248,-0.15616,-0.13176,-0.10736,0.02928,0.0244,0.08296,0,-0.06832,-0.05856,-0.0488
-0.0488,0.09272,-0.13664,-0.11224,-0.08784,0.01952,0.01464,0.08296,0.01952,-0.05856,-0.0488,-0.04392
-0.0488,0.0854,-0.122,-0.0976,-0.0732,0.0122,0.00488,0.08784,0.03904,-0.0488,-0.04392,-0.04392
-0.04392,0.08296,-0.122,-0.10004,-0.07808,0.01708,0.00976,0.08784,0.0488,-0.04392,-0.04392,-0.04392
-0.03416,0.07564,-0.11712,-0.10004,-0.08296,0.0244,0.00488,0.09272,0.04392,-0.0488,-0.03904,-0.04392
-0.03416,0.0732,-0.11224,-0.09516,-0.07808,0.02196,0,0.09272,0.0488,-0.04392,-0.03904,-0.03904
-0.03416,0.0732,-0.11224,-0.09516,-0.07808,0.02196,0.00488,0.09272,0.06832,-0.03904,-0.03416,-0.02928
-0.02928,0.06832,-0.10736,-0.09272,-0.07808,0.0244,0.00488,0.09272,0.0732,-0.03904,-0.03416,-0.03416
-0.03904,0.0732,-0.10736,-0.08784,-0.06832,0.01464,0.00488,0.08784,0.06832,-0.02928,-0.02928,-0.03416
-0.03904,0.0732,-0.10736,-0.08784,-0.06832,0.01464,0.01464,0.09272,0.0732,-0.0244,-0.02928,-0.03416
-0.04392,0.07564,-0.10736,-0.0854,-0.06344,0.00976,0.00488,0.08296,0.07808,-0.03416,-0.02928,-0.03904
-0.04392,0.0732,-0.10248,-0.08052,-0.05856,0.00732,0.00488,0.08296,0.08296,-0.02928,-0.02928,-0.03904
-0.05368,0.08052,-0.10736,-0.08052,-0.05368,0,0.01464,0.09272,0.09272,-0.02928,-0.02928,-0.03904
-0.05368,0.08052,-0.10736,-0.08052,-0.05368,0,0.01464,0.09272,0.09272,-0.02928,-0.02928,-0.03904
-0.04392,0.07564,-0.10736,-0.0854,-0.06344,0.00976,0.01464,0.09272,0.0976,-0.0244,-0.0244,-0.03904
-0.03904,0.0732,-0.10736,-0.08784,-0.06832,0.01464,0.01952,0.0976,0.10248,-0.0244,-0.01952,-0.03904
-0.02928,0.06344,-0.0976,-0.08296,-0.06832,0.01952,0.00976,0.0976,0.10736,-0.00976,-0.00976,-0.02928
-0.02928,0.06344,-0.0976,-0.08296,-0.06832,0.01952,0.00488,0.0976,0.11712,-0.00976,-0.00976,-0.0244
-0.01952,0.05368,-0.08784,-0.07808,-0.06832,0.0244,0.01464,0.10736,0.13176,-0.00488,0.00488,-0.01952
-0.01952,0.05368,-0.08784,-0.07808,-0.06832,0.0244,0.0244,0.11224,0.14152,0.00488,0.00488,-0.01952
-0.02928,0.06588,-0.10248,-0.08784,-0.0732,0.02196,0.00976,0.10248,0.14152,-0.00488,0,-0.01952
-0.02928,0.06588,-0.10248,-0.08784,-0.0732,0.02196,0.00488,0.10736,0.1464,0,0,-0.01952
-0.02928,0.061,-0.09272,-0.07808,-0.06344,0.01708,0.01464,0.0976,0.1464,0.01464,0.00488,-0.01952
-0.02928,0.061,-0.09272,-0.07808,-0.06344,0.01708,0.00976,0.10248,0.15616,0.01464,0.00488,-0.01952
-0.02928,0.061,-0.09272,-0.07808,-0.06344,0.01708,0,0.11224,0.16592,0.01952,0.00976,-0.01464
-0.0244,0.05856,-0.09272,-0.08052,-0.06832,0.02196,0,0.11712,0.18544,0.0244,0.01464,-0.01464
-0.03416,0.06832,-0.10248,-0.0854,-0.06832,0.01708,0,0.11712,0.18544,0.02928,0.01952,0
-0.02928,0.06344,-0.0976,-0.08296,-0.06832,0.01952,-0.00976,0.11712,0.20008,0.03416,0.0244,0.00488
-0.01952,0.05856,-0.0976,-0.08784,-0.07808,0.02928,-0.00488,0.122,0.20984,0.03904,0.02928,0.00976
-0.01464,0.05612,-0.0976,-0.09028,-0.08296,0.03416,0,0.122,0.22448,0.04392,0.02928,0.00976
-0.00488,0.0488,-0.09272,-0.09028,-0.08784,0.04148,-0.01464,0.12688,0.22448,0.03904,0.03416,0.01464
0,0.04636,-0.09272,-0.09272,-0.09272,0.04636,-0.01952,0.12688,0.23424,0.04392,0.03416,0.01464
0.00488,0.04148,-0.08784,-0.09028,-0.09272,0.0488,-0.0244,0.122,0.23912,0.04392,0.03416,0.01464
0,0.04392,-0.08784,-0.08784,-0.08784,0.04392,-0.0244,0.12688,0.24888,0.0488,0.04392,0.01952
0,0.0366,-0.0732,-0.0732,-0.0732,0.0366,-0.00976,0.14152,0.26352,0.06832,0.05856,0.0244
0.00488,0.03416,-0.0732,-0.07564,-0.07808,0.04148,0,0.1464,0.28304,0.07808,0.06344,0.02928
0.00976,0.02196,-0.05368,-0.05856,-0.06344,0.0366,0.01464,0.1464,0.30256,0.08784,0.07808,0.04392
0.01464,0.01708,-0.0488,-0.05612,-0.06344,0.03904,0.01464,0.16104,0.3172,0.10248,0.08784,0.0488
0.00976,0.02196,-0.05368,-0.05856,-0.06344,0.0366,0.03416,0.16104,0.33672,0.11224,0.08784,0.05368
0.01464,0.01464,-0.04392,-0.05124,-0.05856,0.0366,0.03416,0.1708,0.34648,0.122,0.0976,0.05856
0.02928,0.00488,-0.03904,-0.05368,-0.06832,0.0488,0.03904,0.1708,0.37088,0.13176,0.10736,0.05856
0.03416,-0.00244,-0.02928,-0.04636,-0.06344,0.0488,0.04392,0.18056,0.3904,0.14152,0.122,0.06832
0.0488,-0.01464,-0.01952,-0.04392,-0.06832,0.05856,0.03416,0.19032,0.40016,0.15616,0.13176,0.07808
0.05856,-0.0244,-0.00976,-0.03904,-0.06832,0.06344,0.03416,0.19032,0.41968,0.16592,0.1464,0.08784
0.06832,-0.03904,0.00976,-0.0244,-0.05856,0.06344,0.02928,0.1952,0.44408,0.18056,0.16592,0.0976
0.07808,-0.05368,0.02928,-0.00976,-0.0488,0.06344,0.0244,0.20008,0.4636,0.1952,0.18544,0.11224
0.08296,-0.05856,0.03416,-0.00732,-0.0488,0.06588,0.02928,0.21472,0.47824,0.21472,0.20496,0.122
0.09272,-0.0732,0.05368,0.00732,-0.03904,0.06588,0.0244,0.22448,0.488,0.23424,0.22448,0.1464
0.0976,-0.07808,0.05856,0.00976,-0.03904,0.06832,0.02928,0.22448,0.50264,0.25376,0.24888,0.15616
0.10248,-0.09028,0.07808,0.02684,-0.0244,0.06344,0.03416,0.22936,0.5124,0.27328,0.27328,0.1708
0.10248,-0.09516,0.08784,0.0366,-0.01464,0.05856,0.01952,0.22936,0.52704,0.29768,0.30256,0.19032
0.10248,-0.10492,0.10736,0.05612,0.00488,0.0488,0.00488,0.22448,0.53192,0.3172,0.32696,0.21472
0.12688,-0.12444,0.122,0.05856,-0.00488,0.06588,0.00976,0.2196,0.53192,0.32696,0.34648,0.22936
0.13176,-0.13664,0.14152,0.07564,0.00976,0.061,-0.00488,0.20984,0.52704,0.3416,0.37088,0.24888
0.15128,-0.15616,0.16104,0.0854,0.00976,0.07076,-0.00976,0.20984,0.50752,0.35136,0.38064,0.25864
0.16104,-0.16836,0.17568,0.09516,0.01464,0.0732,-0.0244,0.20008,0.49776,0.36112,0.39528,0.27328
0.1708,-0.183,0.1952,0.1098,0.0244,0.0732,-0.03416,0.18056,0.47824,0.35624,0.39528,0.28304
0.1708,-0.18788,0.20496,0.11956,0.03416,0.06832,-0.04392,0.16592,0.45872,0.35624,0.40504,0.28792
0.16592,-0.18788,0.20984,0.12688,0.04392,0.061,-0.03904,0.15128,0.44896,0.35624,0.4148,0.29768
0.16104,-0.18544,0.20984,0.12932,0.0488,0.05612,-0.0488,0.1464,0.41968,0.35136,0.40504,0.28792
0.14152,-0.16836,0.1952,0.12444,0.05368,0.04392,-0.04392,0.12688,0.38064,0.3416,0.38064,0.27328
0.13176,-0.15372,0.17568,0.1098,0.04392,0.04392,-0.03416,0.11712,0.34648,0.32696,0.36112,0.25376
0.122,-0.13908,0.15616,0.09516,0.03416,0.04392,-0.03416,0.10736,0.32208,0.30744,0.33672,0.23424
0.10248,-0.11712,0.13176,0.08052,0.02928,0.0366,-0.03416,0.09272,0.2928,0.27816,0.30256,0.21472
0.0976,-0.10248,0.10736,0.05856,0.00976,0.04392,-0.00976,0.08296,0.27328,0.24888,0.27328,0.17568
0.07808,-0.08052,0.08296,0.04392,0.00488,0.0366,0.00976,0.07808,0.23424,0.22448,0.244,0.15128
0.06344,-0.05856,0.05368,0.02196,-0.00976,0.0366,0.0244,0.05856,0.20496,0.18544,0.20496,0.13664
0.05856,-0.04392,0.02928,0,-0.02928,0.04392,0.03416,0.05856,0.16592,0.15616,0.1708,0.11224
0.04392,-0.02196,0,-0.02196,-0.04392,0.04392,0.04392,0.0488,0.14152,0.12688,0.15128,0.09272
0.03416,-0.00732,-0.01952,-0.0366,-0.05368,0.04392,0.05368,0.0488,0.11224,0.10736,0.122,0.06832
0.0244,0.00732,-0.03904,-0.05124,-0.06344,0.04392,0.06832,0.04392,0.0976,0.07808,0.08296,0.0488
0.00976,0.02684,-0.06344,-0.06832,-0.0732,0.04148,0.07808,0.04392,0.07808,0.05856,0.06344,0.02928
-0.00976,0.04392,-0.07808,-0.0732,-0.06832,0.02928,0.07808,0.03416,0.05368,0.03904,0.04392,0.01464
-0.01952,0.05856,-0.0976,-0.08784,-0.07808,0.02928,0.08296,0.03416,0.03416,0.01952,0.0244,0
-0.03904,0.06832,-0.0976,-0.07808,-0.05856,0.00976,0.09272,0.03416,0.02928,0,0.00976,-0.00976
-0.03904,0.0732,-0.10736,-0.08784,-0.06832,0.01464,0.10248,0.03416,0.00976,-0.01464,-0.00488,-0.01952
-0.02928,0.0732,-0.11712,-0.10248,-0.08784,0.02928,0.10248,0.03416,-0.00488,-0.03416,-0.0244,-0.02928
-0.03416,0.07808,-0.122,-0.10492,-0.08784,0.02684,0.10736,0.02928,-0.0244,-0.04392,-0.03416,-0.03416
-0.03416,0.08052,-0.12688,-0.1098,-0.09272,0.02928,0.10248,0.01952,-0.03904,-0.05368,-0.04392,-0.0488
-0.03904,0.08784,-0.13664,-0.11712,-0.0976,0.02928,0.10736,0.01952,-0.04392,-0.06344,-0.05368,-0.0488
-0.0488,0.0976,-0.1464,-0.122,-0.0976,0.0244,0.10248,0.01464,-0.0488,-0.07808,-0.05368,-0.05368
-0.0488,0.0976,-0.1464,-0.122,-0.0976,0.0244,0.10248,0.01464,-0.0488,-0.07808,-0.05368,-0.05368
-0.05368,0.10248,-0.15128,-0.12444,-0.0976,0.02196,0.09272,0.0244,-0.06344,-0.08784,-0.06832,-0.05856
-0.05368,0.10248,-0.15128,-0.12444,-0.0976,0.02196,0.08784,0.0244,-0.06344,-0.08784,-0.0732,-0.05856
-0.05368,0.0976,-0.14152,-0.11468,-0.08784,0.01708,0.08784,0.01464,-0.06832,-0.08784,-0.08296,-0.05856
-0.05856,0.10004,-0.14152,-0.11224,-0.08296,0.0122,0.08296,0.01464,-0.0732,-0.09272,-0.08784,-0.06344
-0.0488,0.09516,-0.14152,-0.11712,-0.09272,0.02196,0.08296,0.01464,-0.06344,-0.0976,-0.07808,-0.0732
-0.05368,0.10248,-0.15128,-0.12444,-0.0976,0.02196,0.08296,0.01464,-0.06344,-0.10248,-0.07808,-0.0732
-0.05368,0.10248,-0.15128,-0.12444,-0.0976,0.02196,0.08296,0.0244,-0.05368,-0.10248,-0.07808,-0.0732
-0.05368,0.10248,-0.15128,-0.12444,-0.0976,0.02196,0.07808,0.03416,-0.05368,-0.10248,-0.07808,-0.0732
-0.05856,0.10492,-0.15128,-0.122,-0.09272,0.01708,0.06832,0.03416,-0.06344,-0.10248,-0.08784,-0.0732
-0.05856,0.10492,-0.15128,-0.122,-0.09272,0.01708,0.05856,0.03416,-0.06344,-0.10248,-0.08784,-0.07808
-0.0488,0.09516,-0.14152,-0.11712,-0.09272,0.02196,0.05856,0.03904,-0.0732,-0.10248,-0.08784,-0.07808
-0.0488,0.09516,-0.14152,-0.11712,-0.09272,0.02196,0.05856,0.03904,-0.06832,-0.10248,-0.08784,-0.07808
-0.0488,0.09516,-0.14152,-0.11712,-0.09272,0.02196,0.06344,0.03904,-0.05856,-0.09272,-0.09272,-0.07808
-0.0488,0.09516,-0.14152,-0.11712,-0.09272,0.02196,0.06344,0.04392,-0.05856,-0.0976,-0.0976,-0.07808
-0.05856,0.10004,-0.14152,-0.11224,-0.08296,0.0122,0.05856,0.03416,-0.06832,-0.0976,-0.0976,-0.09272
-0.05856,0.10004,-0.14152,-0.11224,-0.08296,0.0122,0.05856,0.03416,-0.06344,-0.10248,-0.0976,-0.09272
-0.06344,0.10248,-0.14152,-0.1098,-0.07808,0.00732,0.06344,0.03416,-0.05856,-0.10248,-0.08784,-0.08296
-0.06344,0.10248,-0.14152,-0.1098,-0.07808,0.00732,0.06344,0.03416,-0.05856,-0.0976,-0.08784,-0.08296
-0.06344,0.10248,-0.14152,-0.1098,-0.07808,0.00732,0.06344,0.0488,-0.05368,-0.09272,-0.08784,-0.08296
-0.06344,0.10248,-0.14152,-0.1098,-0.07808,0.00732,0.06832,0.0488,-0.0488,-0.09272,-0.08784,-0.08296
-0.05368,0.0976,-0.14152,-0.11468,-0.08784,0.01708,0.06344,0.0488,-0.03904,-0.09272,-0.08784,-0.08296
-0.05368,0.09516,-0.13664,-0.1098,-0.08296,0.01464,0.05856,0.0488,-0.03416,-0.08784,-0.08784,-0.08296
-0.05368,0.09516,-0.13664,-0.1098,-0.08296,0.01464,0.06344,0.05368,-0.03416,-0.07808,-0.08784,-0.08296
-0.0488,0.09028,-0.13176,-0.10736,-0.08296,0.01708,0.0732,0.05368,-0.02928,-0.07808,-0.08784,-0.07808
-0.0488,0.09272,-0.13664,-0.11224,-0.08784,0.01952,0.06344,0.04392,-0.03904,-0.08784,-0.08784,-0.07808
-0.0488,0.09272,-0.13664,-0.11224,-0.08784,0.01952,0.05856,0.04392,-0.03904,-0.08784,-0.08784,-0.07808
-0.03904,0.08784,-0.13664,-0.11712,-0.0976,0.02928,0.05856,0.03904,-0.03904,-0.07808,-0.08784,-0.0732
-0.03904,0.08784,-0.13664,-0.11712,-0.0976,0.02928,0.06344,0.03904,-0.03904,-0.07808,-0.08784,-0.0732
-0.03904,0.08296,-0.12688,-0.10736,-0.08784,0.0244,0.0732,0.0488,-0.02928,-0.07808,-0.07808,-0.06344
-0.03904,0.08052,-0.122,-0.10248,-0.08296,0.02196,0.07808,0.0488,-0.02928,-0.0732,-0.0732,-0.05856
-0.0488,0.0854,-0.122,-0.0976,-0.0732,0.0122,0.0732,0.0488,-0.03416,-0.0732,-0.0732,-0.06832
-0.0488,0.08296,-0.11712,-0.09272,-0.06832,0.00976,0.0732,0.0488,-0.03416,-0.0732,-0.0732,-0.06832
-0.0488,0.08784,-0.12688,-0.10248,-0.07808,0.01464,0.06344,0.05368,-0.03416,-0.07808,-0.08296,-0.06832
-0.0488,0.08784,-0.12688,-0.10248,-0.07808,0.01464,0.06344,0.05368,-0.03904,-0.07808,-0.07808,-0.06832
-0.03904,0.08296,-0.12688,-0.10736,-0.08784,0.0244,0.0732,0.05368,-0.04392,-0.07808,-0.06832,-0.06832
-0.03904,0.08296,-0.12688,-0.10736,-0.08784,0.0244,0.06832,0.05368,-0.04392,-0.07808,-0.06832,-0.06832
-0.03416,0.08052,-0.12688,-0.1098,-0.09272,0.02928,0.06832,0.04392,-0.05368,-0.07808,-0.0732,-0.06832
-0.03416,0.08052,-0.12688,-0.1098,-0.09272,0.02928,0.06832,0.04392,-0.05368,-0.07808,-0.0732,-0.06344
-0.03416,0.07564,-0.11712,-0.10004,-0.08296,0.0244,0.06344,0.04392,-0.0488,-0.07808,-0.0732,-0.06344
-0.03416,0.07564,-0.11712,-0.10004,-0.08296,0.0244,0.07808,0.03904,-0.0488,-0.07808,-0.0732,-0.06344
-0.03904,0.07808,-0.11712,-0.0976,-0.07808,0.01952,0.07808,0.0488,-0.0488,-0.07808,-0.0732,-0.06344
-0.03904,0.07808,-0.11712,-0.0976,-0.07808,0.01952,0.07808,0.0488,-0.05368,-0.07808,-0.0732,-0.06344
-0.0488,0.08784,-0.12688,-0.10248,-0.07808,0.01464,0.07808,0.0488,-0.06344,-0.07808,-0.0732,-0.06344
-0.04392,0.08296,-0.122,-0.10004,-0.07808,0.01708,0.0732,0.0488,-0.06832,-0.07808,-0.0732,-0.06344
-0.05368,0.09272,-0.13176,-0.10492,-0.07808,0.0122,0.07808,0.0488,-0.06832,-0.07808,-0.0732,-0.06344
-0.05368,0.09272,-0.13176,-0.10492,-0.07808,0.0122,0.07808,0.0488,-0.06832,-0.07808,-0.0732,-0.06344
-0.04392,0.0854,-0.12688,-0.10492,-0.08296,0.01952,0.08784,0.0488,-0.0732,-0.07808,-0.0732,-0.05368
-0.04392,0.08784,-0.13176,-0.1098,-0.08784,0.02196,0.08784,0.0488,-0.0732,-0.07808,-0.07808,-0.05368
-0.04392,0.08784,-0.13176,-0.1098,-0.08784,0.02196,0.08784,0.0488,-0.08296,-0.08784,-0.08296,-0.06344
-0.04392,0.09028,-0.13664,-0.11468,-0.09272,0.0244,0.08784,0.04392,-0.08296,-0.08296,-0.08784,-0.06344
-0.0488,0.09272,-0.13664,-0.11224,-0.08784,0.01952,0.09272,0.04392,-0.09272,-0.09272,-0.08784,-0.0732
-0.0488,0.09272,-0.13664,-0.11224,-0.08784,0.01952,0.09272,0.04392,-0.09272,-0.0976,-0.08784,-0.0732
-0.0488,0.0976,-0.1464,-0.122,-0.0976,0.0244,0.09272,0.03904,-0.0976,-0.0976,-0.08784,-0.0732
-0.0488,0.0976,-0.1464,-0.122,-0.0976,0.0244,0.09272,0.03904,-0.0976,-0.10248,-0.08784,-0.0732
-0.0488,0.0976,-0.1464,-0.122,-0.0976,0.0244,0.0976,0.03416,-0.08784,-0.09272,-0.07808,-0.06344
-0.0488,0.0976,-0.1464,-0.122,-0.0976,0.0244,0.10248,0.03416,-0.09272,-0.09272,-0.07808,-0.06344
-0.05368,0.10004,-0.1464,-0.11956,-0.09272,0.01952,0.11712,0.04392,-0.09272,-0.09272,-0.07808,-0.05368
-0.05368,0.10004,-0.1464,-0.11956,-0.09272,0.01952,0.12688,0.04392,-0.09272,-0.09272,-0.07808,-0.05368
-0.0488,0.0976,-0.1464,-0.122,-0.0976,0.0244,0.13664,0.05368,-0.0976,-0.09272,-0.08296,-0.06344
-0.0488,0.0976,-0.1464,-0.122,-0.0976,0.0244,0.13176,0.05368,-0.0976,-0.0976,-0.08296,-0.06344
-0.04392,0.09516,-0.1464,-0.12444,-0.10248,0.02928,0.122,0.04392,-0.0976,-0.0976,-0.09272,-0.05856
-0.04392,0.09516,-0.1464,-0.12444,-0.10248,0.02928,0.122,0.04392,-0.10248,-0.0976,-0.09272,-0.05856
-0.04392,0.09516,-0.1464,-0.12444,-0.10248,0.02928,0.122,0.05368,-0.09272,-0.0976,-0.08296,-0.05856
-0.03904,0.09272,-0.1464,-0.12688,-0.10736,0.03416,0.11712,0.05368,-0.0976,-0.0976,-0.08784,-0.05856
-0.0488,0.10248,-0.15616,-0.13176,-0.10736,0.02928,0.11712,0.0488,-0.0976,-0.0976,-0.08784,-0.05856
-0.0488,0.10248,-0.15616,-0.13176,-0.10736,0.02928,0.122,0.04392,-0.0976,-0.0976,-0.08784,-0.05856
-0.05856,0.10736,-0.15616,-0.12688,-0.0976,0.01952,0.11224,0.03416,-0.10736,-0.0976,-0.08784,-0.05856
-0.06344,0.11224,-0.16104,-0.12932,-0.0976,0.01708,0.11224,0.03416,-0.10736,-0.10248,-0.08784,-0.05856
-0.05368,0.10248,-0.15128,-0.12444,-0.0976,0.02196,0.11224,0.03416,-0.10736,-0.10736,-0.09272,-0.05856
-0.05368,0.10248,-0.15128,-0.12444,-0.0976,0.02196,0.11224,0.03416,-0.10736,-0.10736,-0.09272,-0.05368
-0.05368,0.1098,-0.16592,-0.13908,-0.11224,0.02928,0.10248,0.03416,-0.10736,-0.10736,-0.09272,-0.06344
-0.05368,0.1098,-0.16592,-0.13908,-0.11224,0.02928,0.11224,0.03416,-0.10736,-0.10736,-0.09272,-0.06344
-0.05856,0.11712,-0.17568,-0.1464,-0.11712,0.02928,0.11224,0.03416,-0.10736,-0.10736,-0.09272,-0.06344
-0.05856,0.11712,-0.17568,-0.1464,-0.11712,0.02928,0.11712,0.03416,-0.10736,-0.10736,-0.0976,-0.06832
-0.05856,0.11224,-0.16592,-0.13664,-0.10736,0.0244,0.12688,0.04392,-0.11224,-0.10736,-0.09272,-0.06832
-0.06344,0.11468,-0.16592,-0.1342,-0.10248,0.01952,0.13176,0.04392,-0.11224,-0.11224,-0.09272,-0.06832
-0.06344,0.11468,-0.16592,-0.1342,-0.10248,0.01952,0.122,0.04392,-0.11224,-0.11224,-0.09272,-0.06832
-0.06344,0.11224,-0.16104,-0.12932,-0.0976,0.01708,0.12688,0.03904,-0.11224,-0.11224,-0.09272,-0.06832
-0.06344,0.11712,-0.1708,-0.13908,-0.10736,0.02196,0.122,0.03904,-0.11224,-0.11224,-0.09272,-0.06832
-0.06344,0.11712,-0.1708,-0.13908,-0.10736,0.02196,0.11712,0.03904,-0.11224,-0.11224,-0.09272,-0.06832
-0.0732,0.11712,-0.16104,-0.12444,-0.08784,0.00732,0.10736,0.0488,-0.10248,-0.11224,-0.09272,-0.06832
-0.0732,0.11712,-0.16104,-0.12444,-0.08784,0.00732,0.11224,0.0488,-0.10248,-0.10736,-0.09272,-0.06832
-0.06832,0.11224,-0.15616,-0.122,-0.08784,0.00976,0.10248,0.0488,-0.10248,-0.10736,-0.09272,-0.06832
-0.07808,0.122,-0.16592,-0.12688,-0.08784,0.00488,0.0976,0.03904,-0.11712,-0.10736,-0.0976,-0.06832
-0.06832,0.11712,-0.16592,-0.13176,-0.0976,0.01464,0.0976,0.03904,-0.11712,-0.10736,-0.0976,-0.06832
-0.06832,0.11712,-0.16592,-0.13176,-0.0976,0.01464,0.0976,0.03904,-0.11712,-0.10736,-0.0976,-0.06832
-0.05856,0.11224,-0.16592,-0.13664,-0.10736,0.0244,0.08784,0.03904,-0.11712,-0.11712,-0.0976,-0.06832
-0.05856,0.11224,-0.16592,-0.13664,-0.10736,0.0244,0.08784,0.03904,-0.11712,-0.11712,-0.0976,-0.06832
-0.06832,0.122,-0.17568,-0.14152,-0.10736,0.01952,0.08784,0.02928,-0.11712,-0.10736,-0.08784,-0.05856
-0.06832,0.122,-0.17568,-0.14152,-0.10736,0.01952,0.08784,0.02928,-0.11712,-0.10736,-0.08784,-0.05856
-0.06832,0.11712,-0.16592,-0.13176,-0.0976,0.01464,0.0976,0.02928,-0.10736,-0.10736,-0.08784,-0.05856
-0.06832,0.11712,-0.16592,-0.13176,-0.0976,0.01464,0.0976,0.02928,-0.10736,-0.10736,-0.08784,-0.05856
-0.06832,0.11712,-0.16592,-0.13176,-0.0976,0.01464,0.10736,0.02928,-0.11712,-0.10736,-0.0976,-0.05856
-0.06832,0.11712,-0.16592,-0.13176,-0.0976,0.01464,0.11712,0.02928,-0.11712,-0.10736,-0.0976,-0.05856
-0.06832,0.11712,-0.16592,-0.13176,-0.0976,0.01464,0.11712,0.02928,-0.11712,-0.11712,-0.0976,-0.06832
-0.06832,0.11712,-0.16592,-0.13176,-0.0976,0.01464,0.11712,0.02928,-0.11712,-0.11712,-0.0976,-0.06832
-0.06832,0.11712,-0.16592,-0.13176,-0.0976,0.01464,0.10736,0.02928,-0.11712,-0.11712,-0.0976,-0.05856
-0.06832,0.11712,-0.16592,-0.13176,-0.0976,0.01464,0.10736,0.02928,-0.11712,-0.11712,-0.0976,-0.05856
-0.06832,0.11224,-0.15616,-0.122,-0.08784,0.00976,0.10736,0.03904,-0.11712,-0.10736,-0.08784,-0.05856
-0.06832,0.11224,-0.15616,-0.122,-0.08784,0.00976,0.10736,0.03904,-0.11712,-0.10736,-0.08784,-0.05856
-0.06832,0.11712,-0.16592,-0.13176,-0.0976,0.01464,0.10736,0.02928,-0.12688,-0.10736,-0.08784,-0.05856
-0.06832,0.11712,-0.16592,-0.13176,-0.0976,0.01464,0.10736,0.02928,-0.12688,-0.10736,-0.08784,-0.05856
-0.07808,0.11712,-0.15616,-0.11712,-0.07808,0,0.11712,0.02928,-0.11712,-0.10736,-0.08784,-0.0488
-0.07808,0.11712,-0.15616,-0.11712,-0.07808,0,0.12688,0.02928,-0.11712,-0.10736,-0.08784,-0.0488
-0.07808,0.11712,-0.15616,-0.11712,-0.07808,0,0.12688,0.02928,-0.11712,-0.10736,-0.08784,-0.05856
-0.07808,0.11712,-0.15616,-0.11712,-0.07808,0,0.12688,0.02928,-0.11712,-0.10736,-0.08784,-0.05856
-0.06832,0.11224,-0.15616,-0.122,-0.08784,0.00976,0.11712,0.02928,-0.11712,-0.10736,-0.08784,-0.06832
-0.06832,0.11224,-0.15616,-0.122,-0.08784,0.00976,0.11712,0.02928,-0.11712,-0.10736,-0.08784,-0.06832
-0.06832,0.11224,-0.15616,-0.122,-0.08784,0.00976,0.11712,0.02928,-0.11712,-0.10736,-0.08784,-0.05856
-0.06832,0.11224,-0.15616,-0.122,-0.08784,0.00976,0.11712,0.02928,-0.11712,-0.10736,-0.08784,-0.05856
-0.05856,0.10736,-0.15616,-0.12688,-0.0976,0.01952,0.11712,0.02928,-0.11712,-0.10736,-0.0976,-0.05856
-0.05856,0.10736,-0.15616,-0.12688,-0.0976,0.01952,0.11712,0.02928,-0.11712,-0.10736,-0.0976,-0.05856
-0.05856,0.10736,-0.15616,-0.12688,-0.0976,0.01952,0.12688,0.02928,-0.12688,-0.11712,-0.0976,-0.05856
-0.05856,0.10736,-0.15616,-0.12688,-0.0976,0.01952,0.12688,0.02928,-0.12688,-0.11712,-0.0976,-0.05856
-0.05856,0.10736,-0.15616,-0.12688,-0.0976,0.01952,0.13664,0.03904,-0.11712,-0.11712,-0.0976,-0.05856
-0.05856,0.10736,-0.15616,-0.12688,-0.0976,0.01952,0.13664,0.03904,-0.11712,-0.11712,-0.0976,-0.05856
-0.06832,0.11712,-0.16592,-0.13176,-0.0976,0.01464,0.12688,0.03904,-0.11712,-0.11712,-0.0976,-0.05856
-0.07808,0.122,-0.16592,-0.12688,-0.08784,0.00488,0.12688,0.03904,-0.11712,-0.11712,-0.0976,-0.05856
-0.06832,0.11712,-0.16592,-0.13176,-0.0976,0.01464,0.13664,0.03904,-0.11712,-0.10736,-0.08784,-0.05856
-0.06832,0.11712,-0.16592,-0.13176,-0.0976,0.01464,0.13664,0.03904,-0.11712,-0.10736,-0.08784,-0.05856
-0.06832,0.11224,-0.15616,-0.122,-0.08784,0.00976,0.1464,0.03904,-0.12688,-0.10736,-0.0976,-0.05856
-0.06832,0.11224,-0.15616,-0.122,-0.08784,0.00976,0.1464,0.03904,-0.12688,-0.10736,-0.0976,-0.05856
-0.07808,0.122,-0.16592,-0.12688,-0.08784,0.00488,0.1464,0.03904,-0.12688,-0.10736,-0.0976,-0.05856
-0.07808,0.12688,-0.17568,-0.13664,-0.0976,0.00976,0.1464,0.03904,-0.12688,-0.10736,-0.0976,-0.05856
-0.06832,0.122,-0.17568,-0.14152,-0.10736,0.01952,0.13664,0.02928,-0.12688,-0.11712,-0.0976,-0.06832
-0.06832,0.122,-0.17568,-0.14152,-0.10736,0.01952,0.13664,0.02928,-0.12688,-0.11712,-0.0976,-0.06832
-0.06832,0.11712,-0.16592,-0.13176,-0.0976,0.01464,0.1464,0.02928,-0.11712,-0.11712,-0.08784,-0.05856
-0.06832,0.11224,-0.15616,-0.122,-0.08784,0.00976,0.15616,0.02928,-0.11712,-0.11712,-0.08784,-0.05856
-0.06832,0.11224,-0.15616,-0.122,-0.08784,0.00976,0.16592,0.02928,-0.11712,-0.10736,-0.08784,-0.05856
-0.06832,0.11224,-0.15616,-0.122,-0.08784,0.00976,0.16592,0.02928,-0.11712,-0.10736,-0.08784,-0.05856
-0.05856,0.10736,-0.15616,-0.12688,-0.0976,0.01952,0.16592,0.02928,-0.11712,-0.10736,-0.08784,-0.05856
-0.05856,0.10736,-0.15616,-0.12688,-0.0976,0.01952,0.16592,0.02928,-0.11712,-0.10736,-0.08784,-0.05856
-0.05856,0.10248,-0.1464,-0.11712,-0.08784,0.01464,0.16592,0.02928,-0.10736,-0.10736,-0.08784,-0.05856
-0.05856,0.10248,-0.1464,-0.11712,-0.08784,0.01464,0.16592,0.02928,-0.10736,-0.10736,-0.08784,-0.05856
-0.05856,0.10248,-0.1464,-0.11712,-0.08784,0.01464,0.15616,0.02928,-0.11712,-0.10736,-0.08784,-0.05856
-0.05856,0.10248,-0.1464,-0.11712,-0.08784,0.01464,0.15616,0.02928,-0.11712,-0.10736,-0.08784,-0.05856
-0.05856,0.10248,-0.1464,-0.11712,-0.08784,0.01464,0.15616,0.02928,-0.12688,-0.10736,-0.08784,-0.05856
-0.05856,0.10248,-0.1464,-0.11712,-0.08784,0.01464,0.15616,0.02928,-0.12688,-0.10736,-0.08784,-0.05856
-0.05856,0.10736,-0.15616,-0.12688,-0.0976,0.01952,0.15616,0.02928,-0.12688,-0.10736,-0.0976,-0.05856
-0.05856,0.10736,-0.15616,-0.12688,-0.0976,0.01952,0.15616,0.02928,-0.12688,-0.10736,-0.0976,-0.05856
-0.06832,0.11224,-0.15616,-0.122,-0.08784,0.00976,0.15616,0.02928,-0.12688,-0.10736,-0.0976,-0.05856
-0.06832,0.11224,-0.15616,-0.122,-0.08784,0.00976,0.15616,0.02928,-0.12688,-0.10736,-0.0976,-0.05856
-0.05856,0.10248,-0.1464,-0.11712,-0.08784,0.01464,0.1464,0.02928,-0.12688,-0.10736,-0.08784,-0.05856
-0.05856,0.10248,-0.1464,-0.11712,-0.08784,0.01464,0.1464,0.02928,-0.12688,-0.10736,-0.08784,-0.05856
-0.0488,0.09272,-0.13664,-0.11224,-0.08784,0.01952,0.13664,0.03904,-0.11712,-0.10736,-0.08784,-0.0488
-0.0488,0.09272,-0.13664,-0.11224,-0.08784,0.01952,0.13664,0.03904,-0.11712,-0.10736,-0.08784,-0.0488
-0.0488,0.09272,-0.13664,-0.11224,-0.08784,0.01952,0.12688,0.03904,-0.11712,-0.10736,-0.08784,-0.0488
-0.0488,0.09272,-0.13664,-0.11224,-0.08784,0.01952,0.12688,0.03904,-0.11712,-0.10736,-0.08784,-0.0488
-0.03904,0.08296,-0.12688,-0.10736,-0.08784,0.0244,0.11712,0.02928,-0.10736,-0.0976,-0.08784,-0.05856
-0.03416,0.07076,-0.10736,-0.09028,-0.0732,0.01952,0.10736,0.0244,-0.0976,-0.09272,-0.07808,-0.0488
-0.03904,0.06832,-0.0976,-0.07808,-0.05856,0.00976,0.0976,0.0244,-0.08296,-0.0732,-0.07808,-0.0488
-0.03904,0.06588,-0.09272,-0.0732,-0.05368,0.00732,0.09272,0.01952,-0.0732,-0.06344,-0.0732,-0.04392
-0.04392,0.05612,-0.06832,-0.04636,-0.0244,-0.00976,0.08296,0.01952,-0.06832,-0.06832,-0.06344,-0.03904
-0.03904,0.05368,-0.06832,-0.0488,-0.02928,-0.00488,0.0732,0.01952,-0.06344,-0.06344,-0.05856,-0.03416
-0.0488,0.06344,-0.07808,-0.05368,-0.02928,-0.00976,0.0732,0.01952,-0.05368,-0.05368,-0.0488,-0.03416
-0.04392,0.05124,-0.05856,-0.0366,-0.01464,-0.01464,0.06344,0.0244,-0.04392,-0.0488,-0.04392,-0.0244
-0.03904,0.03904,-0.03904,-0.01952,0,-0.01952,0.05368,0.0244,-0.02928,-0.03416,-0.03416,-0.02928
-0.0244,0.01952,-0.01464,-0.00244,0.00976,-0.01708,0.0244,0.00976,-0.01464,-0.0244,-0.01952,-0.01464
0,-0.00244,0.00488,0.00488,0.00488,-0.00244,0,0,-0.00976,-0.01464,-0.01952,-0.00488
0.00488,-0.00732,0.00976,0.00732,0.00488,0,-0.01952,-0.01464,-0.0244,-0.01464,-0.01952,0
0.01464,-0.00976,0.00488,-0.00244,-0.00976,0.0122,-0.0244,-0.01952,-0.04392,-0.0244,-0.00976,0.00976
0.01464,-0.00488,-0.00488,-0.0122,-0.01952,0.01708,-0.01464,-0.01952,-0.06344,-0.04392,-0.0244,0
0.00488,0.01464,-0.03416,-0.0366,-0.03904,0.02196,0.00488,-0.01464,-0.08296,-0.05368,-0.03416,0
0.00488,0.02196,-0.0488,-0.05124,-0.05368,0.02928,0.01464,-0.00976,-0.09272,-0.05856,-0.03416,0
0.00488,0.02196,-0.0488,-0.05124,-0.05368,0.02928,0.01952,0,-0.0976,-0.06832,-0.03904,0
0.00488,0.02684,-0.05856,-0.061,-0.06344,0.03416,0.0244,0.01464,-0.10248,-0.0732,-0.03904,0
0.00488,0.02684,-0.05856,-0.061,-0.06344,0.03416,0.03904,0.01952,-0.09272,-0.06344,-0.03904,0
0,0.03904,-0.07808,-0.07808,-0.07808,0.03904,0.0488,0.01952,-0.10248,-0.07808,-0.05368,-0.0244
-0.01952,0.061,-0.10248,-0.09272,-0.08296,0.03172,0.06832,0.01952,-0.10248,-0.08296,-0.05368,-0.03904
-0.03904,0.0854,-0.13176,-0.11224,-0.09272,0.02684,0.08296,0.0244,-0.11224,-0.0976,-0.0732,-0.05368
-0.05368,0.10248,-0.15128,-0.12444,-0.0976,0.02196,0.10248,0.0244,-0.122,-0.10736,-0.08784,-0.05856
-0.05368,0.1098,-0.16592,-0.13908,-0.11224,0.02928,0.10736,0.02928,-0.12688,-0.10736,-0.0976,-0.05856
-0.05368,0.10736,-0.16104,-0.1342,-0.10736,0.02684,0.11712,0.03904,-0.122,-0.10736,-0.08784,-0.06344
-0.05368,0.10736,-0.16104,-0.1342,-0.10736,0.02684,0.122,0.03904,-0.122,-0.11224,-0.08784,-0.06344
-0.04392,0.1098,-0.17568,-0.15372,-0.13176,0.04392,0.122,0.02928,-0.12688,-0.122,-0.0976,-0.0732
-0.04392,0.1098,-0.17568,-0.15372,-0.13176,0.04392,0.122,0.03416,-0.12688,-0.122,-0.0976,-0.0732
-0.03904,0.10492,-0.1708,-0.15128,-0.13176,0.04636,0.13176,0.0244,-0.13664,-0.122,-0.0976,-0.0732
-0.03904,0.10492,-0.1708,-0.15128,-0.13176,0.04636,0.13176,0.0244,-0.13176,-0.122,-0.0976,-0.0732
-0.04392,0.10736,-0.1708,-0.14884,-0.12688,0.04148,0.13664,0.03416,-0.13176,-0.122,-0.0976,-0.0732
-0.0488,0.1098,-0.1708,-0.1464,-0.122,0.0366,0.13664,0.03904,-0.13176,-0.122,-0.0976,-0.0732
-0.05856,0.11956,-0.18056,-0.15128,-0.122,0.03172,0.1464,0.03904,-0.122,-0.11224,-0.0976,-0.06344
-0.05856,0.11956,-0.18056,-0.15128,-0.122,0.03172,0.15128,0.03904,-0.122,-0.11712,-0.0976,-0.06832
-0.05856,0.11956,-0.18056,-0.15128,-0.122,0.03172,0.16104,0.03904,-0.11712,-0.11712,-0.08784,-0.06832
-0.05856,0.11712,-0.17568,-0.1464,-0.11712,0.02928,0.15616,0.03904,-0.11712,-0.11224,-0.08784,-0.06344
-0.0488,0.11468,-0.18056,-0.15616,-0.13176,0.04148,0.16592,0.03904,-0.11712,-0.11224,-0.08784,-0.0732
-0.0488,0.11712,-0.18544,-0.16104,-0.13664,0.04392,0.16592,0.04392,-0.11712,-0.11224,-0.08784,-0.0732
-0.05856,0.12688,-0.1952,-0.16592,-0.13664,0.03904,0.16592,0.04392,-0.122,-0.11224,-0.08784,-0.06344
-0.05856,0.12444,-0.19032,-0.16104,-0.13176,0.0366,0.16592,0.04392,-0.122,-0.10736,-0.08784,-0.06832
-0.05368,0.11956,-0.18544,-0.1586,-0.13176,0.03904,0.16592,0.03904,-0.11224,-0.10736,-0.09272,-0.06832
-0.05368,0.11956,-0.18544,-0.1586,-0.13176,0.03904,0.16104,0.03904,-0.10736,-0.10736,-0.09272,-0.06832
-0.05368,0.12444,-0.1952,-0.16836,-0.14152,0.04392,0.19032,0.04392,-0.0976,-0.11224,-0.0976,-0.0732
-0.07808,0.13664,-0.1952,-0.15616,-0.11712,0.01952,0.21472,0.04392,-0.08296,-0.122,-0.11224,-0.08296
-0.08296,0.13176,-0.18056,-0.13908,-0.0976,0.00732,0.22448,0.03904,-0.04392,-0.12688,-0.12688,-0.08784
-0.08784,0.11956,-0.15128,-0.10736,-0.06344,-0.0122,0.23424,0.0488,0.0244,-0.0976,-0.11712,-0.09272
-0.06344,0.09516,-0.12688,-0.09516,-0.06344,0,0.23424,0.06832,0.122,-0.01952,-0.06832,-0.06344
-0.0244,0.05856,-0.09272,-0.08052,-0.06832,0.02196,0.21472,0.08784,0.27816,0.1464,0.0488,0
0.04392,0.00488,-0.05368,-0.07564,-0.0976,0.07076,0.16104,0.10736,0.41968,0.40016,0.22936,0.08784
0.12688,-0.07808,0.02928,-0.03416,-0.0976,0.11224,0.08296,0.08296,0.53192,0.74176,0.49288,0.22936
0.22448,-0.19276,0.16104,0.0488,-0.06344,0.14396,-0.06344,0.00488,0.59536,1.18096,0.83448,0.42456
0.32208,-0.30012,0.27816,0.11712,-0.04392,0.183,-0.2196,-0.11712,0.5368,1.57624,1.15168,0.62464
0.4148,-0.35624,0.29768,0.09028,-0.11712,0.26596,-0.31232,-0.19032,0.43432,1.7568,1.32736,0.75152
0.44408,-0.30256,0.16104,-0.061,-0.28304,0.36356,-0.31232,-0.20984,0.20984,1.59576,1.28344,0.76616
0.39528,-0.15372,-0.08784,-0.28548,-0.48312,0.4392,-0.22936,-0.17568,-0.17568,1.06872,0.96136,0.64416
0.30256,0.03416,-0.37088,-0.52216,-0.67344,0.488,-0.08784,-0.13664,-0.66368,0.33184,0.4636,0.4148
0.1708,0.21228,-0.59536,-0.68076,-0.76616,0.46848,0.05368,-0.10248,-1.16632,-0.40016,-0.05368,0.15616
0.08296,0.2928,-0.66856,-0.71004,-0.75152,0.41724,0.13664,-0.08784,-1.42496,-0.84912,-0.40016,-0.03416
0.01464,0.32452,-0.66368,-0.671,-0.67832,0.34648,0.1952,-0.05856,-1.39568,-0.99552,-0.5612,-0.1464
-0.02928,0.30012,-0.57096,-0.55632,-0.54168,0.2562,0.2196,-0.00976,-1.13216,-0.88328,-0.5368,-0.17568
-0.0488,0.24888,-0.44896,-0.42456,-0.40016,0.17568,0.20496,0.03904,-0.7808,-0.64904,-0.40992,-0.15128
-0.03904,0.19276,-0.34648,-0.32696,-0.30744,0.1342,0.18056,0.0732,-0.47824,-0.42456,-0.27328,-0.11224
-0.02928,0.15372,-0.27816,-0.26352,-0.24888,0.1098,0.15128,0.08296,-0.27328,-0.2684,-0.18056,-0.08784
-0.0244,0.12932,-0.23424,-0.22204,-0.20984,0.09272,0.13664,0.08296,-0.12688,-0.16592,-0.11712,-0.06344
-0.0244,0.10736,-0.19032,-0.17812,-0.16592,0.07076,0.11712,0.08784,-0.04392,-0.11224,-0.08296,-0.05368
-0.0244,0.0976,-0.1708,-0.1586,-0.1464,0.061,0.10248,0.08296,0.00488,-0.08296,-0.06344,-0.03416
-0.02928,0.0976,-0.16592,-0.15128,-0.13664,0.05368,0.09272,0.0732,0.01952,-0.06832,-0.0488,-0.03904
-0.02928,0.09272,-0.15616,-0.14152,-0.12688,0.0488,0.09272,0.0732,0.03904,-0.05856,-0.0488,-0.03416
-0.03904,0.09028,-0.14152,-0.122,-0.10248,0.03172,0.10248,0.07808,0.0488,-0.05856,-0.04392,-0.03416
-0.03416,0.08784,-0.14152,-0.12444,-0.10736,0.0366,0.11712,0.07808,0.05856,-0.05368,-0.04392,-0.03416
-0.03416,0.0854,-0.13664,-0.11956,-0.10248,0.03416,0.13176,0.08296,0.06344,-0.0488,-0.0488,-0.04392
-0.03416,0.08296,-0.13176,-0.11468,-0.0976,0.03172,0.13664,0.08296,0.06832,-0.04392,-0.0488,-0.03904
-0.03416,0.08784,-0.14152,-0.12444,-0.10736,0.0366,0.14152,0.08296,0.07808,-0.0488,-0.05368,-0.03904
-0.02928,0.08296,-0.13664,-0.122,-0.10736,0.03904,0.14152,0.08296,0.08296,-0.0488,-0.05368,-0.04392
-0.02928,0.08784,-0.1464,-0.13176,-0.11712,0.04392,0.14152,0.07808,0.08784,-0.0488,-0.0488,-0.04392
-0.02928,0.08784,-0.1464,-0.13176,-0.11712,0.04392,0.15128,0.08296,0.09272,-0.04392,-0.0488,-0.04392
-0.03416,0.0854,-0.13664,-0.11956,-0.10248,0.03416,0.15128,0.08296,0.0976,-0.04392,-0.03904,-0.02928
-0.03416,0.08296,-0.13176,-0.11468,-0.0976,0.03172,0.15128,0.08296,0.10248,-0.03904,-0.03904,-0.02928
-0.03416,0.0854,-0.13664,-0.11956,-0.10248,0.03416,0.16104,0.08296,0.11224,-0.03904,-0.03904,-0.02928
-0.03416,0.0854,-0.13664,-0.11956,-0.10248,0.03416,0.16104,0.08296,0.11224,-0.03904,-0.03904,-0.02928
-0.04392,0.09028,-0.13664,-0.11468,-0.09272,0.0244,0.1708,0.09272,0.11712,-0.03416,-0.03416,-0.02928
-0.03904,0.08784,-0.13664,-0.11712,-0.0976,0.02928,0.17568,0.0976,0.122,-0.03416,-0.02928,-0.02928
-0.03904,0.08784,-0.13664,-0.11712,-0.0976,0.02928,0.17568,0.0976,0.13664,-0.02928,-0.02928,-0.02928
-0.03904,0.08784,-0.13664,-0.11712,-0.0976,0.02928,0.1708,0.0976,0.1464,-0.02928,-0.02928,-0.0244
-0.03904,0.08784,-0.13664,-0.11712,-0.0976,0.02928,0.16104,0.08784,0.14152,-0.0244,-0.0244,-0.01952
-0.03904,0.08784,-0.13664,-0.11712,-0.0976,0.02928,0.16104,0.09272,0.15128,-0.01464,-0.0244,-0.01952
-0.03904,0.0854,-0.13176,-0.11224,-0.09272,0.02684,0.15616,0.10248,0.16104,-0.00488,-0.01952,-0.01952
-0.03904,0.0854,-0.13176,-0.11224,-0.09272,0.02684,0.15128,0.10736,0.16592,0,-0.01952,-0.01952
-0.02928,0.07076,-0.11224,-0.0976,-0.08296,0.02684,0.16104,0.10736,0.17568,0.00488,-0.00488,-0.01952
-0.01952,0.06588,-0.11224,-0.10248,-0.09272,0.0366,0.15616,0.11224,0.18544,0.00488,-0.00488,-0.01952
-0.02928,0.07076,-0.11224,-0.0976,-0.08296,0.02684,0.1464,0.11224,0.18544,0.00976,0,-0.01464
-0.0244,0.06832,-0.11224,-0.10004,-0.08784,0.03172,0.1464,0.11712,0.20496,0.01464,0.00488,-0.01464
-0.0244,0.06832,-0.11224,-0.10004,-0.08784,0.03172,0.15616,0.10736,0.20496,0.01952,0.00976,-0.00976
-0.01952,0.06344,-0.10736,-0.0976,-0.08784,0.03416,0.1464,0.10736,0.2196,0.0244,0.01464,-0.00488
-0.01952,0.06344,-0.10736,-0.0976,-0.08784,0.03416,0.15128,0.11224,0.22936,0.02928,0.00976,0
-0.01464,0.061,-0.10736,-0.10004,-0.09272,0.03904,0.15616,0.11224,0.244,0.03416,0.00976,0
-0.0244,0.06832,-0.11224,-0.10004,-0.08784,0.03172,0.16104,0.11712,0.25376,0.03904,0.01464,0.00488
-0.01952,0.06588,-0.11224,-0.10248,-0.09272,0.0366,0.16592,0.11712,0.26352,0.04392,0.01464,0.00488
-0.03416,0.07076,-0.10736,-0.09028,-0.0732,0.01952,0.1708,0.11224,0.27816,0.04392,0.03416,0.00488
-0.03904,0.0732,-0.10736,-0.08784,-0.06832,0.01464,0.1708,0.11712,0.28792,0.0488,0.04392,0.00976
-0.02928,0.061,-0.09272,-0.07808,-0.06344,0.01708,0.18544,0.13176,0.30256,0.05856,0.0488,0.01464
-0.0244,0.05856,-0.09272,-0.08052,-0.06832,0.02196,0.18544,0.13664,0.32208,0.06832,0.05368,0.01952
-0.00976,0.04636,-0.08296,-0.07808,-0.0732,0.03172,0.19032,0.13664,0.33184,0.06832,0.05856,0.0244
-0.00488,0.04148,-0.07808,-0.07564,-0.0732,0.03416,0.19032,0.15128,0.34648,0.08296,0.06832,0.02928
0.00976,0.02684,-0.06344,-0.06832,-0.0732,0.04148,0.19032,0.14152,0.366,0.08296,0.06832,0.03416
0.01464,0.01952,-0.05368,-0.061,-0.06832,0.04148,0.19032,0.15128,0.37576,0.09272,0.07808,0.03904
0.00976,0.01952,-0.0488,-0.05368,-0.05856,0.03416,0.1952,0.1708,0.40992,0.11224,0.0976,0.0488
0.01464,0.0122,-0.03904,-0.04636,-0.05368,0.03416,0.20008,0.18056,0.42944,0.13176,0.11224,0.05856
0.00976,0.01464,-0.03904,-0.04392,-0.0488,0.02928,0.19032,0.18056,0.44896,0.1464,0.122,0.06832
0.01952,0.00488,-0.02928,-0.03904,-0.0488,0.03416,0.18056,0.18056,0.46848,0.15616,0.13664,0.07808
0.01952,0.00488,-0.02928,-0.03904,-0.0488,0.03416,0.17568,0.1952,0.48312,0.1708,0.1464,0.08784
0.02928,-0.00976,-0.00976,-0.0244,-0.03904,0.03416,0.16104,0.20008,0.50264,0.18544,0.16592,0.10248
0.04392,-0.0244,0.00488,-0.01708,-0.03904,0.04148,0.1464,0.21472,0.51728,0.1952,0.18544,0.11224
0.05368,-0.03904,0.0244,-0.00244,-0.02928,0.04148,0.14152,0.22448,0.52704,0.21472,0.20496,0.13664
0.07808,-0.06344,0.0488,0.00976,-0.02928,0.05368,0.12688,0.21472,0.54168,0.23424,0.22936,0.1464
0.08296,-0.08052,0.07808,0.0366,-0.00488,0.04392,0.122,0.2196,0.55144,0.25376,0.25376,0.16104
0.10248,-0.10004,0.0976,0.04636,-0.00488,0.05368,0.10736,0.2196,0.55632,0.27816,0.27328,0.18056
0.10248,-0.1098,0.11712,0.06588,0.01464,0.04392,0.09272,0.21472,0.5612,0.29768,0.29768,0.20496
0.10736,-0.11956,0.13176,0.07808,0.0244,0.04148,0.08784,0.2196,0.5612,0.30744,0.3172,0.22936
0.10248,-0.12688,0.15128,0.10004,0.0488,0.02684,0.0732,0.2196,0.55632,0.32208,0.3416,0.24888
0.122,-0.1464,0.1708,0.1098,0.0488,0.0366,0.0488,0.20984,0.55632,0.33184,0.35136,0.25864
0.13176,-0.1586,0.18544,0.11956,0.05368,0.03904,0.03416,0.20008,0.54656,0.3416,0.366,0.27328
0.14152,-0.16836,0.1952,0.12444,0.05368,0.04392,0.01464,0.18056,0.52704,0.33672,0.37576,0.28304
0.14152,-0.17324,0.20496,0.1342,0.06344,0.03904,0.00488,0.16592,0.50752,0.33672,0.38552,0.28792
0.1464,-0.183,0.2196,0.1464,0.0732,0.0366,-0.00976,0.15128,0.47824,0.33672,0.38552,0.27816
0.14152,-0.18056,0.2196,0.14884,0.07808,0.03172,-0.01952,0.1464,0.44896,0.33184,0.37576,0.2684
0.122,-0.16348,0.20496,0.14396,0.08296,0.01952,-0.0244,0.12688,0.40992,0.32208,0.37088,0.26352
0.11224,-0.14884,0.18544,0.12932,0.0732,0.01952,-0.0244,0.11712,0.37576,0.30744,0.35136,0.244
0.10248,-0.12932,0.15616,0.10492,0.05368,0.0244,-0.0244,0.0976,0.3416,0.28792,0.32696,0.23424
0.08296,-0.10736,0.13176,0.09028,0.0488,0.01708,-0.0244,0.08296,0.31232,0.25864,0.2928,0.21472
0.07808,-0.0976,0.11712,0.07808,0.03904,0.01952,-0.01952,0.0732,0.28304,0.22936,0.25376,0.18544
0.05856,-0.07564,0.09272,0.06344,0.03416,0.0122,0,0.06832,0.244,0.20496,0.22448,0.16104
0.05368,-0.05856,0.06344,0.0366,0.00976,0.02196,0.00488,0.05856,0.21472,0.16592,0.1952,0.13664
0.0488,-0.04392,0.03904,0.01464,-0.00976,0.02928,0.01464,0.05856,0.17568,0.13664,0.16104,0.11224
0.03416,-0.02684,0.01952,0.00244,-0.01464,0.0244,0.03416,0.05856,0.15128,0.10736,0.13176,0.09272
0.0244,-0.0122,0,-0.0122,-0.0244,0.0244,0.04392,0.05856,0.122,0.08784,0.10248,0.06832
0.01464,0.00732,-0.02928,-0.0366,-0.04392,0.02928,0.0488,0.04392,0.0976,0.06832,0.0732,0.0488
0,0.02684,-0.05368,-0.05368,-0.05368,0.02684,0.05856,0.04392,0.07808,0.0488,0.05368,0.02928
-0.01952,0.04392,-0.06832,-0.05856,-0.0488,0.01464,0.06832,0.04392,0.05368,0.02928,0.03416,0.01464
-0.02928,0.05856,-0.08784,-0.0732,-0.05856,0.01464,0.0732,0.04392,0.03416,0.00976,0.01464,0
-0.03904,0.0732,-0.10736,-0.08784,-0.06832,0.01464,0.08296,0.03416,0.01952,-0.00976,0.00976,-0.00976
-0.03904,0.07808,-0.11712,-0.0976,-0.07808,0.01952,0.09272,0.03416,0,-0.0244,-0.00488,-0.01952
-0.03904,0.07808,-0.11712,-0.0976,-0.07808,0.01952,0.10248,0.03416,-0.00488,-0.03416,-0.0244,-0.02928
-0.04392,0.08296,-0.122,-0.10004,-0.07808,0.01708,0.10736,0.02928,-0.0244,-0.04392,-0.03416,-0.03416
-0.05368,0.09028,-0.12688,-0.10004,-0.0732,0.00976,0.122,0.01952,-0.02928,-0.05368,-0.04392,-0.02928
-0.05856,0.0976,-0.13664,-0.10736,-0.07808,0.00976,0.12688,0.01952,-0.03416,-0.06344,-0.05368,-0.02928
-0.06832,0.10736,-0.1464,-0.11224,-0.07808,0.00488,0.122,0.01464,-0.0488,-0.06832,-0.05368,-0.04392
-0.06832,0.10736,-0.1464,-0.11224,-0.07808,0.00488,0.122,0.01464,-0.0488,-0.06832,-0.05368,-0.04392
-0.06344,0.10736,-0.15128,-0.11956,-0.08784,0.0122,0.122,0.01464,-0.05368,-0.07808,-0.05856,-0.0488
-0.06344,0.10736,-0.15128,-0.11956,-0.08784,0.0122,0.12688,0.01464,-0.05368,-0.07808,-0.06344,-0.0488
-0.05368,0.0976,-0.14152,-0.11468,-0.08784,0.01708,0.1464,0.01464,-0.05856,-0.07808,-0.05368,-0.03904
-0.05856,0.10004,-0.14152,-0.11224,-0.08296,0.0122,0.15128,0.01464,-0.06344,-0.08296,-0.05856,-0.04392
-0.0488,0.09516,-0.14152,-0.11712,-0.09272,0.02196,0.16104,0.01464,-0.0732,-0.07808,-0.06832,-0.05368
-0.05368,0.10248,-0.15128,-0.12444,-0.0976,0.02196,0.16104,0.01464,-0.0732,-0.08296,-0.06832,-0.05368
-0.06344,0.11224,-0.16104,-0.12932,-0.0976,0.01708,0.16104,0.01464,-0.06344,-0.08296,-0.06832,-0.05368
-0.06344,0.11224,-0.16104,-0.12932,-0.0976,0.01708,0.15616,0.01464,-0.06344,-0.08296,-0.06832,-0.05368
-0.06832,0.1098,-0.15128,-0.11712,-0.08296,0.00732,0.16592,0.0244,-0.05368,-0.08296,-0.05856,-0.05368
-0.06832,0.1098,-0.15128,-0.11712,-0.08296,0.00732,0.16592,0.0244,-0.05368,-0.08296,-0.05856,-0.05856
-0.06832,0.1098,-0.15128,-0.11712,-0.08296,0.00732,0.15616,0.02928,-0.05368,-0.09272,-0.06832,-0.05856
-0.06832,0.1098,-0.15128,-0.11712,-0.08296,0.00732,0.15616,0.02928,-0.0488,-0.09272,-0.06832,-0.05856
-0.06832,0.11468,-0.16104,-0.12688,-0.09272,0.0122,0.15128,0.01952,-0.05856,-0.10248,-0.0732,-0.05856
-0.06832,0.11468,-0.16104,-0.12688,-0.09272,0.0122,0.15128,0.0244,-0.05856,-0.10736,-0.07808,-0.05856
-0.05856,0.1098,-0.16104,-0.13176,-0.10248,0.02196,0.1464,0.0244,-0.06832,-0.10736,-0.07808,-0.06344
-0.05856,0.1098,-0.16104,-0.13176,-0.10248,0.02196,0.13664,0.0244,-0.06344,-0.11224,-0.07808,-0.06344
-0.05368,0.10248,-0.15128,-0.12444,-0.0976,0.02196,0.13176,0.0244,-0.06832,-0.11224,-0.07808,-0.0732
-0.05368,0.10248,-0.15128,-0.12444,-0.0976,0.02196,0.13176,0.0244,-0.06832,-0.10736,-0.07808,-0.0732
-0.06344,0.10736,-0.15128,-0.11956,-0.08784,0.0122,0.13176,0.01952,-0.05368,-0.11224,-0.07808,-0.0732
-0.06344,0.10736,-0.15128,-0.11956,-0.08784,0.0122,0.13664,0.01952,-0.0488,-0.11224,-0.07808,-0.0732
-0.06344,0.11224,-0.16104,-0.12932,-0.0976,0.01708,0.14152,0.02928,-0.0488,-0.10248,-0.07808,-0.0732
-0.06344,0.1098,-0.15616,-0.12444,-0.09272,0.01464,0.1464,0.02928,-0.04392,-0.0976,-0.07808,-0.0732
-0.06344,0.1098,-0.15616,-0.12444,-0.09272,0.01464,0.16104,0.03416,-0.03416,-0.0976,-0.06832,-0.06344
-0.05856,0.10492,-0.15128,-0.122,-0.09272,0.01708,0.1708,0.03416,-0.02928,-0.0976,-0.06832,-0.05856
-0.05856,0.10736,-0.15616,-0.12688,-0.0976,0.01952,0.1708,0.03416,-0.03904,-0.0976,-0.06832,-0.06832
-0.05856,0.10736,-0.15616,-0.12688,-0.0976,0.01952,0.17568,0.03416,-0.03904,-0.0976,-0.06832,-0.06832
-0.05856,0.10736,-0.15616,-0.12688,-0.0976,0.01952,0.17568,0.02928,-0.03904,-0.0976,-0.06832,-0.06344
-0.05856,0.10736,-0.15616,-0.12688,-0.0976,0.01952,0.18056,0.02928,-0.03904,-0.0976,-0.06832,-0.06344
-0.05856,0.10736,-0.15616,-0.12688,-0.0976,0.01952,0.18056,0.02928,-0.03904,-0.0976,-0.06832,-0.06344
-0.05856,0.10492,-0.15128,-0.122,-0.09272,0.01708,0.18544,0.02928,-0.03904,-0.09272,-0.06344,-0.05856
-0.05856,0.10492,-0.15128,-0.122,-0.09272,0.01708,0.20008,0.02928,-0.04392,-0.09272,-0.06344,-0.06832
-0.05856,0.10248,-0.1464,-0.11712,-0.08784,0.01464,0.20008,0.02928,-0.04392,-0.09272,-0.06344,-0.06832
-0.06832,0.10736,-0.1464,-0.11224,-0.07808,0.00488,0.20008,0.0244,-0.03416,-0.07808,-0.06344,-0.05856
-0.06832,0.10736,-0.1464,-0.11224,-0.07808,0.00488,0.20008,0.0244,-0.03904,-0.07808,-0.05856,-0.05856
-0.06832,0.11224,-0.15616,-0.122,-0.08784,0.00976,0.20008,0.0244,-0.03416,-0.07808,-0.05856,-0.05856
-0.06832,0.11224,-0.15616,-0.122,-0.08784,0.00976,0.1952,0.0244,-0.03416,-0.07808,-0.05856,-0.05856
-0.06344,0.10492,-0.1464,-0.11468,-0.08296,0.00976,0.1952,0.0244,-0.03416,-0.07808,-0.05368,-0.0488
-0.06344,0.10492,-0.1464,-0.11468,-0.08296,0.00976,0.1952,0.0244,-0.03416,-0.07808,-0.05368,-0.04392
-0.06344,0.10492,-0.1464,-0.11468,-0.08296,0.00976,0.19032,0.0244,-0.03904,-0.07808,-0.05368,-0.05368
-0.06344,0.10492,-0.1464,-0.11468,-0.08296,0.00976,0.1952,0.01952,-0.03904,-0.07808,-0.05368,-0.05368
-0.05856,0.10736,-0.15616,-0.12688,-0.0976,0.01952,0.18544,0.01952,-0.03904,-0.08784,-0.06344,-0.05368
-0.05856,0.10736,-0.15616,-0.12688,-0.0976,0.01952,0.17568,0.01952,-0.04392,-0.08784,-0.06344,-0.05368
-0.0488,0.0976,-0.1464,-0.122,-0.0976,0.0244,0.16592,0.02928,-0.04392,-0.07808,-0.05368,-0.04392
-0.04392,0.09272,-0.14152,-0.11956,-0.0976,0.02684,0.16104,0.02928,-0.0488,-0.07808,-0.05368,-0.04392
-0.05368,0.10248,-0.15128,-0.12444,-0.0976,0.02196,0.1464,0.02928,-0.0488,-0.07808,-0.05368,-0.04392
-0.06344,0.10736,-0.15128,-0.11956,-0.08784,0.0122,0.1464,0.02928,-0.0488,-0.07808,-0.05368,-0.04392
-0.06344,0.10492,-0.1464,-0.11468,-0.08296,0.00976,0.1464,0.02928,-0.05368,-0.07808,-0.04392,-0.04392
-0.06344,0.10736,-0.15128,-0.11956,-0.08784,0.0122,0.1464,0.02928,-0.05368,-0.07808,-0.0488,-0.04392
-0.05368,0.0976,-0.14152,-0.11468,-0.08784,0.01708,0.1464,0.02928,-0.05368,-0.07808,-0.04392,-0.04392
-0.05368,0.09516,-0.13664,-0.1098,-0.08296,0.01464,0.1464,0.0244,-0.04392,-0.0732,-0.0488,-0.04392
-0.06832,0.10736,-0.1464,-0.11224,-0.07808,0.00488,0.14152,0.0244,-0.05368,-0.08296,-0.05856,-0.04392
-0.06832,0.10736,-0.1464,-0.11224,-0.07808,0.00488,0.14152,0.0244,-0.05368,-0.08784,-0.05856,-0.04392
-0.05856,0.10248,-0.1464,-0.11712,-0.08784,0.01464,0.14152,0.02928,-0.06832,-0.08784,-0.05856,-0.05368
-0.05856,0.10248,-0.1464,-0.11712,-0.08784,0.01464,0.14152,0.02928,-0.06832,-0.09272,-0.05856,-0.05368
-0.0488,0.09272,-0.13664,-0.11224,-0.08784,0.01952,0.1464,0.03416,-0.05856,-0.08296,-0.05856,-0.04392
-0.0488,0.09272,-0.13664,-0.11224,-0.08784,0.01952,0.15128,0.03416,-0.06344,-0.08296,-0.05856,-0.04392
-0.04392,0.09516,-0.1464,-0.12444,-0.10248,0.02928,0.15616,0.0244,-0.06344,-0.08296,-0.05856,-0.04392
-0.04392,0.09516,-0.1464,-0.12444,-0.10248,0.02928,0.16592,0.0244,-0.06344,-0.08296,-0.05856,-0.04392
-0.0488,0.0976,-0.1464,-0.122,-0.0976,0.0244,0.17568,0.0244,-0.06832,-0.09272,-0.06344,-0.04392
-0.0488,0.0976,-0.1464,-0.122,-0.0976,0.0244,0.18056,0.0244,-0.06832,-0.0976,-0.06344,-0.04392
-0.05368,0.10004,-0.1464,-0.11956,-0.09272,0.01952,0.18056,0.03416,-0.06832,-0.08784,-0.06344,-0.03904
-0.05368,0.10004,-0.1464,-0.11956,-0.09272,0.01952,0.19032,0.03416,-0.0732,-0.08784,-0.06344,-0.03904
-0.05368,0.10004,-0.1464,-0.11956,-0.09272,0.01952,0.19032,0.0244,-0.0732,-0.0976,-0.06344,-0.0488
-0.0488,0.0976,-0.1464,-0.122,-0.0976,0.0244,0.18544,0.0244,-0.07808,-0.0976,-0.06832,-0.0488
-0.0488,0.0976,-0.1464,-0.122,-0.0976,0.0244,0.18544,0.01952,-0.08784,-0.0976,-0.06832,-0.0488
-0.0488,0.0976,-0.1464,-0.122,-0.0976,0.0244,0.19032,0.01464,-0.08784,-0.0976,-0.06832,-0.0488
-0.03904,0.09272,-0.1464,-0.12688,-0.10736,0.03416,0.20008,0.0244,-0.08784,-0.0976,-0.06832,-0.0488
-0.04392,0.0976,-0.15128,-0.12932,-0.10736,0.03172,0.20008,0.0244,-0.08784,-0.10248,-0.06832,-0.0488
-0.05368,0.10248,-0.15128,-0.12444,-0.0976,0.02196,0.20984,0.0244,-0.08784,-0.08784,-0.06344,-0.0488
-0.05368,0.10248,-0.15128,-0.12444,-0.0976,0.02196,0.20984,0.0244,-0.08784,-0.08784,-0.06344,-0.04392
-0.05368,0.10004,-0.1464,-0.11956,-0.09272,0.01952,0.19032,0.0244,-0.07808,-0.08784,-0.06344,-0.04392
-0.05368,0.10004,-0.1464,-0.11956,-0.09272,0.01952,0.20008,0.0244,-0.07808,-0.08784,-0.06344,-0.04392
-0.03904,0.08784,-0.13664,-0.11712,-0.0976,0.02928,0.19032,0.0244,-0.07808,-0.08784,-0.06344,-0.05368
-0.03904,0.08784,-0.13664,-0.11712,-0.0976,0.02928,0.1952,0.0244,-0.07808,-0.08784,-0.06832,-0.05856
-0.03904,0.08784,-0.13664,-0.11712,-0.0976,0.02928,0.18544,0.0244,-0.09272,-0.08784,-0.06344,-0.0488
-0.04392,0.09028,-0.13664,-0.11468,-0.09272,0.0244,0.19032,0.0244,-0.09272,-0.09272,-0.06344,-0.0488
-0.04392,0.09516,-0.1464,-0.12444,-0.10248,0.02928,0.18056,0.0244,-0.09272,-0.09272,-0.06344,-0.0488
-0.04392,0.09272,-0.14152,-0.11956,-0.0976,0.02684,0.18544,0.01952,-0.09272,-0.09272,-0.06344,-0.0488
-0.04392,0.08784,-0.13176,-0.1098,-0.08784,0.02196,0.1708,0.01952,-0.09272,-0.09272,-0.06344,-0.0488
-0.04392,0.08784,-0.13176,-0.1098,-0.08784,0.02196,0.16592,0.01952,-0.09272,-0.09272,-0.06344,-0.0488
-0.04392,0.09272,-0.14152,-0.11956,-0.0976,0.02684,0.15616,0.01952,-0.09272,-0.09272,-0.0732,-0.05856
-0.04392,0.09272,-0.14152,-0.11956,-0.0976,0.02684,0.15128,0.01952,-0.09272,-0.08784,-0.0732,-0.05856
-0.03904,0.08784,-0.13664,-0.11712,-0.0976,0.02928,0.14152,0.01952,-0.09272,-0.08784,-0.0732,-0.05856
-0.0488,0.09272,-0.13664,-0.11224,-0.08784,0.01952,0.13664,0.01952,-0.08784,-0.08784,-0.06832,-0.05856
-0.0488,0.09272,-0.13664,-0.11224,-0.08784,0.01952,0.13664,0.01952,-0.0976,-0.08784,-0.07808,-0.05856
-0.0488,0.09272,-0.13664,-0.11224,-0.08784,0.01952,0.13664,0.01952,-0.0976,-0.08784,-0.07808,-0.05856
-0.05856,0.10248,-0.1464,-0.11712,-0.08784,0.01464,0.13664,0.00976,-0.0976,-0.0976,-0.07808,-0.05856
-0.05856,0.10248,-0.1464,-0.11712,-0.08784,0.01464,0.13664,0.00976,-0.0976,-0.0976,-0.07808,-0.05856
-0.0488,0.0976,-0.1464,-0.122,-0.0976,0.0244,0.1464,0.01952,-0.0976,-0.0976,-0.06832,-0.0488
-0.0488,0.0976,-0.1464,-0.122,-0.0976,0.0244,0.1464,0.01952,-0.0976,-0.0976,-0.06832,-0.0488
-0.03904,0.08784,-0.13664,-0.11712,-0.0976,0.02928,0.15616,0.00976,-0.08784,-0.0976,-0.06832,-0.0488
-0.03904,0.08784,-0.13664,-0.11712,-0.0976,0.02928,0.15616,0.00976,-0.08784,-0.0976,-0.06832,-0.0488
-0.02928,0.07808,-0.12688,-0.11224,-0.0976,0.03416,0.15616,0.00976,-0.0976,-0.0976,-0.06832,-0.05856
-0.02928,0.07808,-0.12688,-0.11224,-0.0976,0.03416,0.15616,0.00976,-0.0976,-0.0976,-0.06832,-0.05856
-0.02928,0.07808,-0.12688,-0.11224,-0.0976,0.03416,0.15616,0.00976,-0.0976,-0.08784,-0.06832,-0.0488
-0.02928,0.07808,-0.12688,-0.11224,-0.0976,0.03416,0.15616,0.00976,-0.0976,-0.08784,-0.06832,-0.0488
-0.03904,0.08784,-0.13664,-0.11712,-0.0976,0.02928,0.15616,0.01952,-0.08784,-0.08784,-0.06832,-0.0488
-0.03904,0.08784,-0.13664,-0.11712,-0.0976,0.02928,0.15616,0.01952,-0.08784,-0.08784,-0.06832,-0.0488
-0.03904,0.08784,-0.13664,-0.11712,-0.0976,0.02928,0.1464,0.00976,-0.0976,-0.0976,-0.06832,-0.0488
-0.03904,0.08784,-0.13664,-0.11712,-0.0976,0.02928,0.1464,0.00976,-0.0976,-0.0976,-0.06832,-0.0488
-0.0488,0.09272,-0.13664,-0.11224,-0.08784,0.01952,0.13664,0.00976,-0.08784,-0.0976,-0.07808,-0.05856
-0.0488,0.09272,-0.13664,-0.11224,-0.08784,0.01952,0.13664,0.00976,-0.08784,-0.0976,-0.07808,-0.05856
-0.0488,0.0976,-0.1464,-0.122,-0.0976,0.0244,0.12688,0.00976,-0.08784,-0.0976,-0.07808,-0.05856
-0.0488,0.0976,-0.1464,-0.122,-0.0976,0.0244,0.12688,0.00976,-0.08784,-0.0976,-0.07808,-0.05856
-0.0488,0.09272,-0.13664,-0.11224,-0.08784,0.01952,0.11712,0.00976,-0.08784,-0.0976,-0.07808,-0.05856
-0.0488,0.09272,-0.13664,-0.11224,-0.08784,0.01952,0.10736,0.00976,-0.08784,-0.0976,-0.07808,-0.05856
-0.0488,0.09272,-0.13664,-0.11224,-0.08784,0.01952,0.0976,0.00976,-0.08784,-0.08784,-0.06832,-0.0488
-0.0488,0.09272,-0.13664,-0.11224,-0.08784,0.01952,0.0976,0.00976,-0.08784,-0.08784,-0.06832,-0.0488
-0.03904,0.08296,-0.12688,-0.10736,-0.08784,0.0244,0.0976,0.01952,-0.08784,-0.08784,-0.06832,-0.0488
-0.03904,0.08296,-0.12688,-0.10736,-0.08784,0.0244,0.0976,0.01952,-0.08784,-0.08784,-0.06832,-0.0488
-0.03904,0.08296,-0.12688,-0.10736,-0.08784,0.0244,0.0976,0.01952,-0.08784,-0.08784,-0.06832,-0.0488
-0.03904,0.08296,-0.12688,-0.10736,-0.08784,0.0244,0.0976,0.01952,-0.08784,-0.08784,-0.06832,-0.0488
-0.03904,0.08784,-0.13664,-0.11712,-0.0976,0.02928,0.0976,0.01952,-0.08784,-0.08784,-0.06832,-0.0488
-0.03904,0.08784,-0.13664,-0.11712,-0.0976,0.02928,0.0976,0.01952,-0.08784,-0.08784,-0.06832,-0.0488
-0.03904,0.08784,-0.13664,-0.11712,-0.0976,0.02928,0.08784,0.01952,-0.08784,-0.08784,-0.06832,-0.0488
-0.03904,0.08784,-0.13664,-0.11712,-0.0976,0.02928,0.08784,0.01952,-0.08784,-0.08784,-0.06832,-0.0488
-0.02928,0.08296,-0.13664,-0.122,-0.10736,0.03904,0.0976,0.01952,-0.08784,-0.08784,-0.06832,-0.0488
-0.02928,0.08296,-0.13664,-0.122,-0.10736,0.03904,0.0976,0.01952,-0.08784,-0.08784,-0.06832,-0.0488
-0.03904,0.08784,-0.13664,-0.11712,-0.0976,0.02928,0.10736,0.01952,-0.0976,-0.08784,-0.07808,-0.05856
-0.03904,0.08784,-0.13664,-0.11712,-0.0976,0.02928,0.10736,0.01952,-0.0976,-0.08784,-0.07808,-0.05856
-0.0488,0.08784,-0.12688,-0.10248,-0.07808,0.01464,0.10736,0.00976,-0.0976,-0.08784,-0.07808,-0.05856
-0.0488,0.08784,-0.12688,-0.10248,-0.07808,0.01464,0.10736,0.00976,-0.0976,-0.08784,-0.07808,-0.05856
-0.03904,0.08296,-0.12688,-0.10736,-0.08784,0.0244,0.11712,0.00976,-0.0976,-0.08784,-0.07808,-0.0488
-0.03904,0.08296,-0.12688,-0.10736,-0.08784,0.0244,0.11712,0.00976,-0.0976,-0.08784,-0.07808,-0.0488
-0.02928,0.07808,-0.12688,-0.11224,-0.0976,0.03416,0.12688,0.01952,-0.08784,-0.08784,-0.07808,-0.0488
-0.02928,0.07808,-0.12688,-0.11224,-0.0976,0.03416,0.12688,0.01952,-0.08784,-0.08784,-0.07808,-0.0488
-0.01952,0.0732,-0.12688,-0.11712,-0.10736,0.04392,0.12688,0.00976,-0.0976,-0.08784,-0.06832,-0.0488
-0.01952,0.0732,-0.12688,-0.11712,-0.10736,0.04392,0.12688,0.00976,-0.0976,-0.08784,-0.06832,-0.0488
-0.01952,0.0732,-0.12688,-0.11712,-0.10736,0.04392,0.12688,0.00976,-0.0976,-0.08784,-0.06832,-0.0488
-0.01952,0.0732,-0.12688,-0.11712,-0.10736,0.04392,0.12688,0.00976,-0.0976,-0.08784,-0.06832,-0.0488
-0.01952,0.0732,-0.12688,-0.11712,-0.10736,0.04392,0.12688,0.01952,-0.0976,-0.08784,-0.07808,-0.05856
-0.01952,0.0732,-0.12688,-0.11712,-0.10736,0.04392,0.12688,0.01952,-0.0976,-0.08784,-0.07808,-0.05856
-0.02928,0.07808,-0.12688,-0.11224,-0.0976,0.03416,0.11712,0.00976,-0.0976,-0.0976,-0.07808,-0.05856
-0.02928,0.07808,-0.12688,-0.11224,-0.0976,0.03416,0.11712,0.00976,-0.0976,-0.0976,-0.07808,-0.05856
-0.01952,0.0732,-0.12688,-0.11712,-0.10736,0.04392,0.11712,0.01952,-0.08784,-0.08784,-0.06832,-0.05856
-0.01952,0.0732,-0.12688,-0.11712,-0.10736,0.04392,0.11712,0.01952,-0.08784,-0.08784,-0.06832,-0.05856
-0.01952,0.06832,-0.11712,-0.10736,-0.0976,0.03904,0.10736,0.01952,-0.0976,-0.08784,-0.06832,-0.05856
-0.01952,0.06832,-0.11712,-0.10736,-0.0976,0.03904,0.10736,0.01952,-0.0976,-0.08784,-0.06832,-0.05856
-0.01952,0.0732,-0.12688,-0.11712,-0.10736,0.04392,0.10736,0.01952,-0.0976,-0.08784,-0.06832,-0.05856
-0.01952,0.0732,-0.12688,-0.11712,-0.10736,0.04392,0.10736,0.01952,-0.0976,-0.08784,-0.06832,-0.05856
-0.01952,0.0732,-0.12688,-0.11712,-0.10736,0.04392,0.10736,0.01952,-0.0976,-0.08784,-0.06832,-0.05856
-0.01952,0.0732,-0.12688,-0.11712,-0.10736,0.04392,0.10736,0.01952,-0.0976,-0.08784,-0.06832,-0.05856
-0.01952,0.0732,-0.12688,-0.11712,-0.10736,0.04392,0.10736,0.02928,-0.0976,-0.08784,-0.06832,-0.05856
-0.01952,0.0732,-0.12688,-0.11712,-0.10736,0.04392,0.10736,0.02928,-0.0976,-0.08784,-0.06832,-0.05856
-0.01952,0.06832,-0.11712,-0.10736,-0.0976,0.03904,0.10736,0.02928,-0.08784,-0.07808,-0.06832,-0.05856
-0.01952,0.06832,-0.11712,-0.10736,-0.0976,0.03904,0.10736,0.02928,-0.08784,-0.07808,-0.06832,-0.05856
-0.01952,0.06832,-0.11712,-0.10736,-0.0976,0.03904,0.10736,0.01952,-0.08784,-0.08784,-0.06832,-0.0488
-0.01952,0.06832,-0.11712,-0.10736,-0.0976,0.03904,0.10736,0.01952,-0.08784,-0.08784,-0.06832,-0.0488
-0.01952,0.0732,-0.12688,-0.11712,-0.10736,0.04392,0.0976,0.01952,-0.0976,-0.08784,-0.07808,-0.05856
-0.01952,0.0732,-0.12688,-0.11712,-0.10736,0.04392,0.0976,0.01952,-0.0976,-0.08784,-0.07808,-0.05856
-0.00976,0.06344,-0.11712,-0.11224,-0.10736,0.0488,0.0976,0.02928,-0.0976,-0.08784,-0.07808,-0.0488
-0.00976,0.06344,-0.11712,-0.11224,-0.10736,0.0488,0.0976,0.02928,-0.0976,-0.08784,-0.07808,-0.0488
0,0.05856,-0.11712,-0.11712,-0.11712,0.05856,0.0976,0.02928,-0.08784,-0.07808,-0.06832,-0.0488
0,0.05856,-0.11712,-0.11712,-0.11712,0.05856,0.0976,0.02928,-0.08784,-0.07808,-0.06832,-0.0488
-0.00976,0.06344,-0.11712,-0.11224,-0.10736,0.0488,0.08784,0.02928,-0.0976,-0.07808,-0.06832,-0.0488
-0.00976,0.06344,-0.11712,-0.11224,-0.10736,0.0488,0.08784,0.02928,-0.0976,-0.07808,-0.06832,-0.0488
-0.01952,0.06832,-0.11712,-0.10736,-0.0976,0.03904,0.07808,0.02928,-0.0976,-0.07808,-0.06832,-0.03904
-0.01952,0.06832,-0.11712,-0.10736,-0.0976,0.03904,0.07808,0.02928,-0.0976,-0.07808,-0.06832,-0.03904
-0.01952,0.06832,-0.11712,-0.10736,-0.0976,0.03904,0.06832,0.02928,-0.08784,-0.06832,-0.05856,-0.03904
-0.01952,0.06832,-0.11712,-0.10736,-0.0976,0.03904,0.06832,0.02928,-0.07808,-0.06832,-0.05856,-0.03904
-0.0244,0.061,-0.0976,-0.0854,-0.0732,0.0244,0.05856,0.0244,-0.05856,-0.05368,-0.0488,-0.03904
-0.01952,0.0488,-0.07808,-0.06832,-0.05856,0.01952,0.0488,0.0244,-0.05368,-0.04392,-0.03904,-0.03904
-0.01952,0.04148,-0.06344,-0.05368,-0.04392,0.0122,0.04392,0.01952,-0.05368,-0.03416,-0.03416,-0.03416
-0.01464,0.03172,-0.0488,-0.04148,-0.03416,0.00976,0.04392,0.01952,-0.0488,-0.02928,-0.03416,-0.02928
0,0.0244,-0.0488,-0.0488,-0.0488,0.0244,0.04392,0.01952,-0.04392,-0.03416,-0.03904,-0.0244
0,0.0244,-0.0488,-0.0488,-0.0488,0.0244,0.04392,0.01952,-0.03416,-0.0244,-0.02928,-0.0244
0.00488,0.01708,-0.03904,-0.04148,-0.04392,0.0244,0.0244,0.0244,-0.0244,-0.01952,-0.01464,-0.01464
0.00976,0.00488,-0.01952,-0.0244,-0.02928,0.01952,0.00488,0.0244,-0.00976,-0.00488,-0.00488,-0.00976
0.01464,-0.00488,-0.00488,-0.0122,-0.01952,0.01708,-0.01464,0,0.00488,0.01464,0.01952,0.00488
0.01952,-0.01708,0.01464,0.00488,-0.00488,0.0122,-0.02928,-0.00976,0.00976,0.0244,0.02928,0.01464
0.0244,-0.02196,0.01952,0.00732,-0.00488,0.01464,-0.02928,-0.01464,0.00488,0.0244,0.02928,0.01952
0.0244,-0.01464,0.00488,-0.00732,-0.01952,0.02196,-0.0244,-0.00976,-0.01464,0.01464,0.02928,0.01952
0.03416,-0.01952,0.00488,-0.0122,-0.02928,0.03172,-0.00488,-0.00976,-0.03416,-0.00488,0.01464,0.00976
0.03416,-0.00488,-0.0244,-0.04148,-0.05856,0.04636,0.00488,-0.01464,-0.05368,-0.0244,0.00488,0.00976
0.03416,0.00244,-0.03904,-0.05612,-0.0732,0.05368,0.01464,-0.00976,-0.06344,-0.03904,0.00488,0.00976
0.03416,0.00732,-0.0488,-0.06588,-0.08296,0.05856,0.02928,0,-0.06832,-0.03904,0,0.00976
0.03416,0.0122,-0.05856,-0.07564,-0.09272,0.06344,0.04392,0.01464,-0.0732,-0.04392,0,0.00976
0.0244,0.02196,-0.06832,-0.08052,-0.09272,0.05856,0.05856,0.01952,-0.0732,-0.04392,0,0.00976
0.00976,0.03904,-0.08784,-0.09272,-0.0976,0.05368,0.06832,0.01952,-0.08296,-0.0488,-0.01464,-0.01464
0,0.05124,-0.10248,-0.10248,-0.10248,0.05124,0.07808,0.01952,-0.08296,-0.05368,-0.0244,-0.02928
-0.00976,0.061,-0.11224,-0.10736,-0.10248,0.04636,0.08296,0.0244,-0.09272,-0.06832,-0.04392,-0.04392
-0.01464,0.06832,-0.122,-0.11468,-0.10736,0.04636,0.09272,0.0244,-0.09272,-0.07808,-0.0488,-0.0488
-0.0244,0.08052,-0.13664,-0.12444,-0.11224,0.04392,0.0976,0.02928,-0.0976,-0.08784,-0.05856,-0.0488
-0.0244,0.08296,-0.14152,-0.12932,-0.11712,0.04636,0.0976,0.02928,-0.10248,-0.08784,-0.05856,-0.05368
-0.0244,0.08296,-0.14152,-0.12932,-0.11712,0.04636,0.09272,0.01952,-0.10248,-0.09272,-0.05856,-0.05368
-0.0244,0.0854,-0.1464,-0.1342,-0.122,0.0488,0.09272,0.01952,-0.10736,-0.09272,-0.05856,-0.05368
-0.0244,0.0854,-0.1464,-0.1342,-0.122,0.0488,0.08296,0.0244,-0.10736,-0.09272,-0.06832,-0.05368
-0.02928,0.09028,-0.15128,-0.13664,-0.122,0.04636,0.0732,0.0244,-0.10736,-0.09272,-0.06832,-0.05368
-0.01952,0.0854,-0.15128,-0.14152,-0.13176,0.05612,0.06344,0.03416,-0.10248,-0.09272,-0.06832,-0.06344
-0.01464,0.08296,-0.15128,-0.14396,-0.13664,0.061,0.05856,0.03416,-0.10248,-0.09272,-0.06832,-0.06344
-0.01952,0.0854,-0.15128,-0.14152,-0.13176,0.05612,0.05856,0.02928,-0.10248,-0.09272,-0.06832,-0.06344
-0.01952,0.0854,-0.15128,-0.14152,-0.13176,0.05612,0.05856,0.02928,-0.10248,-0.09272,-0.06832,-0.06344
-0.00976,0.07564,-0.14152,-0.13664,-0.13176,0.061,0.06344,0.02928,-0.10248,-0.0976,-0.06832,-0.05856
-0.00976,0.07564,-0.14152,-0.13664,-0.13176,0.061,0.06344,0.02928,-0.0976,-0.0976,-0.06832,-0.05856
-0.01952,0.07808,-0.13664,-0.12688,-0.11712,0.0488,0.06832,0.03904,-0.0976,-0.09272,-0.06832,-0.05368
-0.01952,0.08052,-0.14152,-0.13176,-0.122,0.05124,0.06832,0.03904,-0.0976,-0.09272,-0.06832,-0.05368
-0.01952,0.08296,-0.1464,-0.13664,-0.12688,0.05368,0.06832,0.03416,-0.0976,-0.08296,-0.05856,-0.05368
-0.01952,0.08296,-0.1464,-0.13664,-0.12688,0.05368,0.06832,0.03416,-0.09272,-0.08296,-0.05856,-0.05368
-0.00976,0.07564,-0.14152,-0.13664,-0.13176,0.061,0.06832,0.03416,-0.09272,-0.08784,-0.06832,-0.0488
-0.00488,0.07076,-0.13664,-0.1342,-0.13176,0.06344,0.06832,0.02928,-0.09272,-0.08784,-0.06344,-0.0488
0.00488,0.06588,-0.13664,-0.13908,-0.14152,0.0732,0.0732,0.02928,-0.0976,-0.08784,-0.05368,-0.0488
0.00488,0.06588,-0.13664,-0.13908,-0.14152,0.0732,0.0732,0.03416,-0.08784,-0.09272,-0.06832,-0.05368
-0.01952,0.07808,-0.13664,-0.12688,-0.11712,0.0488,0.08784,0.03416,-0.0732,-0.10248,-0.0732,-0.06344
-0.03416,0.07808,-0.122,-0.10492,-0.08784,0.02684,0.10736,0.03904,-0.03416,-0.10736,-0.08784,-0.07808
-0.03904,0.07564,-0.11224,-0.09272,-0.0732,0.01708,0.0976,0.02928,0.03416,-0.07808,-0.07808,-0.08296
-0.03416,0.061,-0.08784,-0.07076,-0.05368,0.00976,0.08784,0.0488,0.13176,0.01952,-0.01952,-0.05368
0.01464,0.01952,-0.05368,-0.061,-0.06832,0.04148,0.05856,0.07808,0.27816,0.17568,0.08784,0.00976
0.0732,-0.03904,0.00488,-0.03172,-0.06832,0.07076,0.01464,0.0976,0.4392,0.4392,0.27816,0.10736
0.15616,-0.11712,0.07808,0,-0.07808,0.11712,-0.0732,0.0732,0.5612,0.77104,0.53192,0.24888
0.25376,-0.23668,0.2196,0.09272,-0.03416,0.14396,-0.2196,-0.01464,0.6344,1.21024,0.87352,0.45384
0.36112,-0.3538,0.34648,0.16592,-0.01464,0.18788,-0.37576,-0.12688,0.59536,1.586,1.18096,0.64416
0.44408,-0.40504,0.366,0.14396,-0.07808,0.26108,-0.47824,-0.20008,0.49288,1.76656,1.35664,0.77104
0.47336,-0.35136,0.22936,-0.00732,-0.244,0.35868,-0.47824,-0.2196,0.27816,1.60552,1.30296,0.78568
0.44408,-0.2074,-0.02928,-0.25132,-0.47336,0.45872,-0.366,-0.18544,-0.10736,1.098,1.0004,0.67344
0.3416,-0.01464,-0.31232,-0.48312,-0.65392,0.49776,-0.21472,-0.13664,-0.59536,0.36112,0.49288,0.44408
0.23912,0.14396,-0.52704,-0.6466,-0.76616,0.50264,-0.06344,-0.10248,-1.098,-0.35136,-0.01464,0.18544
0.14152,0.23424,-0.61,-0.68076,-0.75152,0.44652,0.03904,-0.0976,-1.38592,-0.81008,-0.37088,-0.00488
0.0732,0.27084,-0.61488,-0.65148,-0.68808,0.38064,0.10736,-0.05856,-1.38592,-0.976,-0.53192,-0.12688
0.02928,0.25132,-0.53192,-0.54656,-0.5612,0.29524,0.14152,-0.00976,-1.13216,-0.86376,-0.50752,-0.16592
0.01952,0.1952,-0.40992,-0.41968,-0.42944,0.22448,0.1464,0.02928,-0.77104,-0.61,-0.37088,-0.14152
0.01952,0.14396,-0.30744,-0.3172,-0.32696,0.17324,0.13176,0.06344,-0.47824,-0.39528,-0.244,-0.09272
0.01952,0.10492,-0.22936,-0.23912,-0.24888,0.1342,0.122,0.08296,-0.26352,-0.23912,-0.14152,-0.05856
0.0244,0.07564,-0.17568,-0.18788,-0.20008,0.11224,0.10736,0.08296,-0.12688,-0.13664,-0.07808,-0.04392
0.0244,0.05856,-0.14152,-0.15372,-0.16592,0.09516,0.0976,0.07808,-0.04392,-0.08296,-0.04392,-0.0244
0.0244,0.0488,-0.122,-0.1342,-0.1464,0.0854,0.08296,0.06344,-0.00488,-0.06344,-0.03416,-0.0244
0.01952,0.0488,-0.11712,-0.12688,-0.13664,0.07808,0.0732,0.06344,0.00976,-0.06832,-0.02928,-0.02928
0.01952,0.04392,-0.10736,-0.11712,-0.12688,0.0732,0.0732,0.06344,0.02928,-0.05856,-0.02928,-0.0244
0.01952,0.04148,-0.10248,-0.11224,-0.122,0.07076,0.08296,0.05856,0.03904,-0.0488,-0.03416,-0.0244
0.0244,0.03904,-0.10248,-0.11468,-0.12688,0.07564,0.0976,0.05856,0.0488,-0.04392,-0.03416,-0.0244
0.0244,0.0366,-0.0976,-0.1098,-0.122,0.0732,0.10248,0.06344,0.05368,-0.03904,-0.02928,-0.03416
0.0244,0.03416,-0.09272,-0.10492,-0.11712,0.07076,0.10736,0.06344,0.05856,-0.03416,-0.02928,-0.02928
0.0244,0.03416,-0.09272,-0.10492,-0.11712,0.07076,0.13176,0.06344,0.07808,-0.02928,-0.01464,-0.01952
0.02928,0.02928,-0.08784,-0.10248,-0.11712,0.0732,0.14152,0.06344,0.08296,-0.02928,-0.01464,-0.0244
0.03904,0.01952,-0.07808,-0.0976,-0.11712,0.07808,0.15128,0.07808,0.0976,-0.01952,0,-0.01464
0.03904,0.01952,-0.07808,-0.0976,-0.11712,0.07808,0.1708,0.08296,0.10248,-0.01464,0,-0.01464
0.0244,0.03172,-0.08784,-0.10004,-0.11224,0.06832,0.16104,0.08296,0.0976,-0.01464,0,-0.01952
0.0244,0.02928,-0.08296,-0.09516,-0.10736,0.06588,0.16104,0.08296,0.10248,-0.00976,0,-0.01952
0.0244,0.03172,-0.08784,-0.10004,-0.11224,0.06832,0.1708,0.08296,0.11224,-0.00976,0,-0.00976
0.0244,0.03172,-0.08784,-0.10004,-0.11224,0.06832,0.1708,0.08296,0.11224,-0.00976,0,-0.00976
0.0244,0.03172,-0.08784,-0.10004,-0.11224,0.06832,0.1708,0.08296,0.10736,-0.00488,0.00488,-0.00976
0.02928,0.02928,-0.08784,-0.10248,-0.11712,0.0732,0.17568,0.08784,0.11224,-0.00488,0.00976,-0.00976
0.01952,0.03904,-0.0976,-0.10736,-0.11712,0.06832,0.16592,0.07808,0.12688,0,0,-0.00976
0.01952,0.03904,-0.0976,-0.10736,-0.11712,0.06832,0.16104,0.07808,0.13664,0,0,-0.00488
0.01952,0.03416,-0.08784,-0.0976,-0.10736,0.06344,0.16104,0.07808,0.14152,0.00488,0.01464,0
0.01952,0.03416,-0.08784,-0.0976,-0.10736,0.06344,0.16104,0.08296,0.15128,0.01464,0.01464,0
0.02928,0.02684,-0.08296,-0.0976,-0.11224,0.07076,0.1464,0.09272,0.16104,0.01464,0.01952,0
0.02928,0.02684,-0.08296,-0.0976,-0.11224,0.07076,0.14152,0.0976,0.16592,0.01952,0.01952,0
0.02928,0.02684,-0.08296,-0.0976,-0.11224,0.07076,0.14152,0.0976,0.17568,0.0244,0.0244,0.00976
0.02928,0.02684,-0.08296,-0.0976,-0.11224,0.07076,0.13664,0.10248,0.18544,0.0244,0.0244,0.00976
0.02928,0.02196,-0.0732,-0.08784,-0.10248,0.06588,0.13664,0.11224,0.1952,0.02928,0.02928,0.01464
0.03416,0.01952,-0.0732,-0.09028,-0.10736,0.07076,0.13664,0.11712,0.21472,0.03416,0.03416,0.01464
0.03416,0.01952,-0.0732,-0.09028,-0.10736,0.07076,0.12688,0.11712,0.20496,0.03904,0.03904,0.01952
0.03904,0.01464,-0.06832,-0.08784,-0.10736,0.0732,0.11712,0.11712,0.2196,0.04392,0.04392,0.0244
0.03904,0.01464,-0.06832,-0.08784,-0.10736,0.0732,0.10248,0.11224,0.22936,0.0488,0.03904,0.01952
0.04392,0.0122,-0.06832,-0.09028,-0.11224,0.07808,0.0976,0.11224,0.244,0.05368,0.03904,0.01952
0.04392,0.00976,-0.06344,-0.0854,-0.10736,0.07564,0.09272,0.11712,0.25376,0.05856,0.04392,0.01464
0.0488,0.00732,-0.06344,-0.08784,-0.11224,0.08052,0.08784,0.11712,0.26352,0.06344,0.04392,0.01464
0.03416,0.0122,-0.05856,-0.07564,-0.09272,0.06344,0.08296,0.122,0.27816,0.0732,0.06344,0.0244
0.02928,0.01464,-0.05856,-0.0732,-0.08784,0.05856,0.08296,0.12688,0.28792,0.07808,0.0732,0.02928
0.01952,0.02196,-0.06344,-0.0732,-0.08296,0.05124,0.08784,0.13176,0.30256,0.08784,0.07808,0.03416
0.0244,0.01952,-0.06344,-0.07564,-0.08784,0.05612,0.08784,0.13664,0.32208,0.0976,0.08296,0.03904
0.03904,0.00244,-0.04392,-0.06344,-0.08296,0.061,0.09272,0.1464,0.33184,0.0976,0.08784,0.04392
0.04392,-0.00244,-0.03904,-0.061,-0.08296,0.06344,0.09272,0.16104,0.34648,0.11224,0.0976,0.0488
0.05856,-0.01708,-0.0244,-0.05368,-0.08296,0.07076,0.09272,0.15128,0.366,0.11224,0.0976,0.05368
0.06344,-0.0244,-0.01464,-0.04636,-0.07808,0.07076,0.08296,0.16104,0.37576,0.122,0.10736,0.05856
0.07808,-0.03416,-0.00976,-0.0488,-0.08784,0.08296,0.07808,0.1708,0.3904,0.13176,0.11712,0.06832
0.08296,-0.04148,0,-0.04148,-0.08296,0.08296,0.08296,0.18056,0.40992,0.14152,0.13176,0.07808
0.08784,-0.05368,0.01952,-0.0244,-0.06832,0.07808,0.08296,0.19032,0.4392,0.16592,0.14152,0.07808
0.0976,-0.06344,0.02928,-0.01952,-0.06832,0.08296,0.08296,0.19032,0.45872,0.17568,0.15616,0.08784
0.0976,-0.06344,0.02928,-0.01952,-0.06832,0.08296,0.07808,0.20496,0.48312,0.20984,0.18544,0.0976
0.10736,-0.07808,0.0488,-0.00488,-0.05856,0.08296,0.0732,0.20984,0.50264,0.22448,0.20496,0.11224
0.11224,-0.08784,0.06344,0.00732,-0.0488,0.08052,0.05856,0.22448,0.52704,0.244,0.22448,0.13176
0.11224,-0.0976,0.08296,0.02684,-0.02928,0.07076,0.04392,0.23424,0.5368,0.26352,0.244,0.15616
0.13664,-0.122,0.10736,0.03904,-0.02928,0.08296,0.02928,0.23424,0.55144,0.28304,0.25864,0.16592
0.14152,-0.1342,0.12688,0.05612,-0.01464,0.07808,0.0244,0.23912,0.5612,0.30256,0.28304,0.18056
0.15128,-0.14396,0.13664,0.061,-0.01464,0.08296,-0.00976,0.22936,0.56608,0.30744,0.30256,0.19032
0.15128,-0.15372,0.15616,0.08052,0.00488,0.0732,-0.03416,0.22448,0.57096,0.32696,0.32696,0.21472
0.16592,-0.17324,0.18056,0.0976,0.01464,0.07564,-0.0488,0.22936,0.57096,0.33672,0.34648,0.23912
0.1708,-0.18544,0.20008,0.11468,0.02928,0.07076,-0.06344,0.2196,0.56608,0.35136,0.37088,0.25864
0.18056,-0.20008,0.2196,0.12932,0.03904,0.07076,-0.06832,0.20984,0.55632,0.37088,0.38064,0.25864
0.19032,-0.21228,0.23424,0.13908,0.04392,0.0732,-0.08296,0.20008,0.54656,0.38064,0.39528,0.27328
0.19032,-0.21228,0.23424,0.13908,0.04392,0.0732,-0.08296,0.18056,0.5368,0.38552,0.4148,0.2928
0.19032,-0.21716,0.244,0.14884,0.05368,0.06832,-0.09272,0.16592,0.51728,0.38552,0.42456,0.29768
