i,aVR,ii,aVF,iii,aVL,V1,V2,V3,V4,V5,V6
-0.05368,0.02928,-0.00488,0.02196,0.0488,-0.05124,0.00488,-0.01464,0,-0.03904,-0.06832,-0.02928
-0.05368,0.02928,-0.00488,0.02196,0.0488,-0.05124,0.00976,0.00488,0,-0.03904,-0.0732,-0.03416
-0.05368,0.02684,0,0.02684,0.05368,-0.05368,0.01464,0.01464,0.00488,-0.04392,-0.07808,-0.03904
-0.05368,0.0366,-0.01952,0.00732,0.03416,-0.04392,0.02928,0.01464,0.00976,-0.04392,-0.07808,-0.03904
-0.05856,0.03904,-0.01952,0.00976,0.03904,-0.0488,0.0244,0.00976,0.01464,-0.04392,-0.0732,-0.03904
-0.0732,0.04148,-0.00976,0.02684,0.06344,-0.06832,0.01464,0.00976,0.00976,-0.04392,-0.0732,-0.03904
-0.0732,0.04636,-0.01952,0.01708,0.05368,-0.06344,0.01464,0.00976,0.00976,-0.04392,-0.0732,-0.03904
-0.06832,0.05368,-0.03904,-0.00488,0.02928,-0.0488,0.0244,0.00976,0.00976,-0.03904,-0.06832,-0.02928
-0.06832,0.06344,-0.05856,-0.0244,0.00976,-0.03904,0.02928,0.00976,0.00976,-0.03416,-0.06832,-0.02928
-0.05856,0.04392,-0.02928,0,0.02928,-0.04392,0.0244,0.01464,0.01464,-0.03416,-0.0732,-0.03416
-0.0488,0.02196,0.00488,0.02928,0.05368,-0.05124,0.01464,0.00976,0.00976,-0.04392,-0.08296,-0.04392
-0.0488,0.03904,-0.02928,-0.00488,0.01952,-0.03416,0.01464,0.00976,0.00976,-0.04392,-0.08296,-0.04392
-0.0488,0.05612,-0.06344,-0.03904,-0.01464,-0.01708,0.03416,0.01464,0.01952,-0.04392,-0.07808,-0.03904
-0.06344,0.0488,-0.03416,-0.00244,0.02928,-0.04636,0.01464,0.00976,0.00976,-0.03904,-0.06344,-0.0244
-0.06344,0.0244,0.01464,0.04636,0.07808,-0.07076,-0.00976,0.00488,-0.00976,-0.04392,-0.0732,-0.03416
-0.06344,0.03172,0,0.03172,0.06344,-0.06344,-0.00488,0.00488,-0.00976,-0.05856,-0.06832,-0.03904
-0.05856,0.03904,-0.01952,0.00976,0.03904,-0.0488,0.00488,0,-0.01952,-0.05856,-0.06344,-0.03904
-0.05856,0.03904,-0.01952,0.00976,0.03904,-0.0488,0.00488,0,-0.02928,-0.0488,-0.06344,-0.03904
-0.05368,0.0366,-0.01952,0.00732,0.03416,-0.04392,0.00488,-0.00488,-0.03416,-0.0488,-0.06344,-0.03904
-0.0488,0.03172,-0.01464,0.00976,0.03416,-0.04148,0.00488,-0.00488,-0.02928,-0.05368,-0.06344,-0.04392
-0.0488,0.03904,-0.02928,-0.00488,0.01952,-0.03416,0.00488,-0.00488,-0.0244,-0.05856,-0.06832,-0.0488
-0.0488,0.03904,-0.02928,-0.00488,0.01952,-0.03416,0.00488,-0.00488,-0.01952,-0.06832,-0.08296,-0.0488
-0.0488,0.03904,-0.02928,-0.00488,0.01952,-0.03416,0.00488,-0.00488,-0.01464,-0.06832,-0.08784,-0.05368
-0.06344,0.04148,-0.01952,0.0122,0.04392,-0.05368,0.00976,-0.00488,-0.01464,-0.06344,-0.08784,-0.0488
-0.07808,0.04392,-0.00976,0.02928,0.06832,-0.0732,0.00976,-0.00488,-0.01464,-0.06344,-0.08784,-0.04392
-0.07808,0.04636,-0.01464,0.0244,0.06344,-0.07076,0.00488,-0.00488,-0.01952,-0.06344,-0.07808,-0.03416
-0.07808,0.05612,-0.03416,0.00488,0.04392,-0.061,0.00488,-0.00488,-0.01952,-0.0488,-0.06344,-0.0244
-0.06832,0.05368,-0.03904,-0.00488,0.02928,-0.0488,0.00976,0.00976,-0.01952,-0.03416,-0.06344,-0.0244
-0.05856,0.05124,-0.04392,-0.01464,0.01464,-0.0366,0.01464,0.01464,-0.01464,-0.03416,-0.06344,-0.0244
-0.06344,0.05124,-0.03904,-0.00732,0.0244,-0.04392,0.01464,0.00488,-0.01464,-0.03904,-0.06832,-0.02928
-0.05856,0.0488,-0.03904,-0.00976,0.01952,-0.03904,0.01464,0.00488,-0.01464,-0.0488,-0.06832,-0.03416
-0.05856,0.05124,-0.04392,-0.01464,0.01464,-0.0366,0.01464,0.00488,-0.01464,-0.0488,-0.05856,-0.03416
-0.05368,0.03904,-0.0244,0.00244,0.02928,-0.04148,0.01464,0,-0.01952,-0.05368,-0.06832,-0.03904
-0.05368,0.03172,-0.00976,0.01708,0.04392,-0.0488,0.01464,0,-0.0244,-0.06344,-0.08296,-0.04392
-0.05368,0.02684,0,0.02684,0.05368,-0.05368,0.01464,0,-0.0244,-0.0732,-0.09272,-0.04392
-0.05368,0.0366,-0.01952,0.00732,0.03416,-0.04392,0.02928,-0.00976,-0.01464,-0.0732,-0.09272,-0.04392
-0.05368,0.04636,-0.03904,-0.0122,0.01464,-0.03416,0.03904,0,-0.00488,-0.06344,-0.09272,-0.04392
-0.02928,0.04148,-0.05368,-0.03904,-0.0244,-0.00244,0.02928,0,-0.00488,-0.0732,-0.10248,-0.05856
-0.02928,0.02928,-0.02928,-0.01464,0,-0.01464,0.0244,0,-0.00488,-0.08296,-0.11712,-0.06832
-0.05368,0.0488,-0.04392,-0.01708,0.00976,-0.03172,0.0244,-0.00488,-0.00976,-0.06832,-0.09272,-0.05368
-0.07808,0.06832,-0.05856,-0.01952,0.01952,-0.0488,0.00976,-0.01464,-0.01952,-0.05856,-0.0732,-0.03904
-0.0732,0.04636,-0.01952,0.01708,0.05368,-0.06344,0.00976,-0.01464,-0.03416,-0.05856,-0.0732,-0.03904
-0.0732,0.05124,-0.02928,0.00732,0.04392,-0.05856,0.01464,-0.00976,-0.04392,-0.0488,-0.06832,-0.03416
-0.06344,0.05124,-0.03904,-0.00732,0.0244,-0.04392,0.01464,-0.00488,-0.03416,-0.0488,-0.06832,-0.02928
-0.06344,0.05124,-0.03904,-0.00732,0.0244,-0.04392,0.00976,-0.00488,-0.0244,-0.05368,-0.0732,-0.03904
-0.06344,0.04636,-0.02928,0.00244,0.03416,-0.0488,0.00976,-0.00976,-0.0244,-0.05856,-0.07808,-0.03904
-0.06832,0.05612,-0.04392,-0.00976,0.0244,-0.04636,0.00976,-0.00976,-0.0244,-0.06344,-0.07808,-0.0488
-0.06832,0.05856,-0.0488,-0.01464,0.01952,-0.04392,0.01952,-0.00976,-0.0244,-0.06344,-0.08296,-0.06344
-0.06344,0.04148,-0.01952,0.0122,0.04392,-0.05368,0.00488,-0.01464,-0.02928,-0.06344,-0.09272,-0.0732
-0.06344,0.04636,-0.02928,0.00244,0.03416,-0.0488,0.00488,-0.01952,-0.03416,-0.05856,-0.08296,-0.05368
-0.06832,0.05856,-0.0488,-0.01464,0.01952,-0.04392,0.00488,-0.01952,-0.03416,-0.05856,-0.0732,-0.03416
-0.06344,0.05612,-0.0488,-0.01708,0.01464,-0.03904,0.00488,-0.01952,-0.03416,-0.06344,-0.0732,-0.03416
-0.05856,0.05368,-0.0488,-0.01952,0.00976,-0.03416,0.00488,-0.01952,-0.03416,-0.06344,-0.0732,-0.02928
-0.05856,0.04636,-0.03416,-0.00488,0.0244,-0.04148,0.00488,-0.01952,-0.03416,-0.06344,-0.0732,-0.03416
-0.05856,0.04148,-0.0244,0.00488,0.03416,-0.04636,0.00488,-0.0244,-0.03416,-0.06344,-0.07808,-0.0488
-0.05368,0.03416,-0.01464,0.0122,0.03904,-0.04636,0,-0.0244,-0.04392,-0.0732,-0.09272,-0.05368
-0.05368,0.02684,0,0.02684,0.05368,-0.05368,0,-0.02928,-0.04392,-0.08296,-0.10248,-0.05368
-0.05368,0.0488,-0.04392,-0.01708,0.00976,-0.03172,0.01464,-0.01464,-0.01464,-0.08296,-0.0976,-0.0488
-0.05368,0.0854,-0.11712,-0.09028,-0.06344,0.00488,0.0244,0,0.01952,-0.08296,-0.0976,-0.0488
-0.06344,0.061,-0.05856,-0.02684,0.00488,-0.03416,0.01464,-0.01464,-0.00488,-0.08296,-0.0976,-0.0488
-0.0732,0.0244,0.0244,0.061,0.0976,-0.0854,0,-0.0244,-0.03904,-0.08296,-0.0976,-0.0488
-0.06344,0.03416,-0.00488,0.02684,0.05856,-0.061,0,-0.00976,-0.03904,-0.07808,-0.08784,-0.03904
-0.05856,0.03904,-0.01952,0.00976,0.03904,-0.0488,0,-0.00976,-0.03904,-0.0732,-0.08296,-0.03904
-0.05856,0.0488,-0.03904,-0.00976,0.01952,-0.03904,0,-0.01464,-0.04392,-0.0732,-0.08296,-0.04392
-0.05368,0.0488,-0.04392,-0.01708,0.00976,-0.03172,0,-0.00976,-0.04392,-0.0732,-0.08784,-0.04392
-0.05368,0.04392,-0.03416,-0.00732,0.01952,-0.0366,0,-0.00976,-0.04392,-0.0732,-0.08784,-0.0488
-0.05368,0.03904,-0.0244,0.00244,0.02928,-0.04148,0,-0.00976,-0.04392,-0.06832,-0.08784,-0.05368
-0.0488,0.0366,-0.0244,0,0.0244,-0.0366,0,-0.01952,-0.0488,-0.06832,-0.09272,-0.05856
-0.04392,0.03416,-0.0244,-0.00244,0.01952,-0.03172,0.00488,-0.03416,-0.05368,-0.0732,-0.0976,-0.06344
-0.04392,0.04636,-0.0488,-0.02684,-0.00488,-0.01952,0.00976,-0.01464,-0.03904,-0.05856,-0.08296,-0.0488
-0.0488,0.06344,-0.07808,-0.05368,-0.02928,-0.00976,0.01952,0,-0.02928,-0.0488,-0.06832,-0.03904
-0.05368,0.06588,-0.07808,-0.05124,-0.0244,-0.01464,0.01464,0,-0.02928,-0.05368,-0.0732,-0.03904
-0.05856,0.06832,-0.07808,-0.0488,-0.01952,-0.01952,0.00976,0,-0.02928,-0.05856,-0.07808,-0.03904
-0.06832,0.04148,-0.01464,0.01952,0.05368,-0.061,-0.00488,-0.0244,-0.0488,-0.06832,-0.09272,-0.05368
-0.07808,0.01464,0.0488,0.08784,0.12688,-0.10248,-0.01952,-0.0488,-0.06832,-0.07808,-0.10736,-0.06832
-0.06832,0.03172,0.00488,0.03904,0.0732,-0.07076,-0.00488,-0.03416,-0.05368,-0.07808,-0.0976,-0.05368
-0.05856,0.0488,-0.03904,-0.00976,0.01952,-0.03904,0.00976,-0.01952,-0.03904,-0.07808,-0.08784,-0.03904
-0.05856,0.0488,-0.03904,-0.00976,0.01952,-0.03904,0.00976,-0.01952,-0.03904,-0.07808,-0.08784,-0.03904
-0.05856,0.0488,-0.03904,-0.00976,0.01952,-0.03904,0.00976,-0.01952,-0.03904,-0.07808,-0.08784,-0.03904
-0.05856,0.0488,-0.03904,-0.00976,0.01952,-0.03904,0.00976,-0.01952,-0.03416,-0.07808,-0.08784,-0.04392
-0.05856,0.0488,-0.03904,-0.00976,0.01952,-0.03904,0.00976,-0.01952,-0.02928,-0.07808,-0.08784,-0.0488
-0.05856,0.0488,-0.03904,-0.00976,0.01952,-0.03904,0.00976,-0.01952,-0.02928,-0.07808,-0.08784,-0.0488
-0.05856,0.0488,-0.03904,-0.00976,0.01952,-0.03904,0.00976,-0.01952,-0.02928,-0.07808,-0.08784,-0.0488
-0.06832,0.05612,-0.04392,-0.00976,0.0244,-0.04636,0.00976,-0.01464,-0.02928,-0.06344,-0.08296,-0.0488
-0.07808,0.06344,-0.0488,-0.00976,0.02928,-0.05368,0.00976,-0.00976,-0.02928,-0.0488,-0.07808,-0.0488
-0.06832,0.05856,-0.0488,-0.01464,0.01952,-0.04392,0.00976,-0.00976,-0.03416,-0.05856,-0.07808,-0.0488
-0.05856,0.05368,-0.0488,-0.01952,0.00976,-0.03416,0.00976,-0.00976,-0.03904,-0.06832,-0.07808,-0.0488
-0.05368,0.05124,-0.0488,-0.02196,0.00488,-0.02928,0.00976,-0.01464,-0.03904,-0.06832,-0.08296,-0.0488
-0.0488,0.0488,-0.0488,-0.0244,0,-0.0244,0.00976,-0.01952,-0.03904,-0.06832,-0.08784,-0.0488
-0.0488,0.0488,-0.0488,-0.0244,0,-0.0244,0.00976,-0.01952,-0.03904,-0.06832,-0.08784,-0.0488
-0.0488,0.0488,-0.0488,-0.0244,0,-0.0244,0.00976,-0.01952,-0.03904,-0.06832,-0.08784,-0.0488
-0.05368,0.05368,-0.05368,-0.02684,0,-0.02684,0.00976,-0.01952,-0.03904,-0.06832,-0.08784,-0.0488
-0.05856,0.05856,-0.05856,-0.02928,0,-0.02928,0.00976,-0.01952,-0.03904,-0.06832,-0.08784,-0.0488
-0.06344,0.061,-0.05856,-0.02684,0.00488,-0.03416,0.00976,-0.01464,-0.03904,-0.06344,-0.07808,-0.04392
-0.06832,0.06344,-0.05856,-0.0244,0.00976,-0.03904,0.00976,-0.00976,-0.03904,-0.05856,-0.06832,-0.03904
-0.06832,0.06344,-0.05856,-0.0244,0.00976,-0.03904,0.01952,-0.00976,-0.03904,-0.05856,-0.06832,-0.02928
-0.06832,0.06344,-0.05856,-0.0244,0.00976,-0.03904,0.02928,-0.00976,-0.03904,-0.05856,-0.06832,-0.01952
-0.06344,0.05856,-0.05368,-0.02196,0.00976,-0.0366,0.01952,-0.01464,-0.03904,-0.06832,-0.0732,-0.02928
-0.05856,0.05368,-0.0488,-0.01952,0.00976,-0.03416,0.00976,-0.01952,-0.03904,-0.07808,-0.07808,-0.03904
-0.05856,0.05368,-0.0488,-0.01952,0.00976,-0.03416,0.00976,-0.01952,-0.02928,-0.07808,-0.08784,-0.04392
-0.05856,0.05368,-0.0488,-0.01952,0.00976,-0.03416,0.00976,-0.01952,-0.01952,-0.07808,-0.0976,-0.0488
-0.05856,0.05368,-0.0488,-0.01952,0.00976,-0.03416,0.00976,-0.01464,-0.01952,-0.07808,-0.0976,-0.0488
-0.05856,0.05368,-0.0488,-0.01952,0.00976,-0.03416,0.00976,-0.00976,-0.01952,-0.07808,-0.0976,-0.0488
-0.05856,0.05612,-0.05368,-0.0244,0.00488,-0.03172,0.00976,-0.00976,-0.0244,-0.06832,-0.08296,-0.04392
-0.05856,0.05856,-0.05856,-0.02928,0,-0.02928,0.00976,-0.00976,-0.02928,-0.05856,-0.06832,-0.03904
-0.05856,0.05856,-0.05856,-0.02928,0,-0.02928,0.00488,-0.00976,-0.02928,-0.05856,-0.06832,-0.03904
-0.05856,0.05856,-0.05856,-0.02928,0,-0.02928,0,-0.00976,-0.02928,-0.05856,-0.06832,-0.03904
-0.05856,0.05124,-0.04392,-0.01464,0.01464,-0.0366,0,-0.00976,-0.02928,-0.05856,-0.06832,-0.03904
-0.05856,0.04392,-0.02928,0,0.02928,-0.04392,0,-0.00976,-0.02928,-0.05856,-0.06832,-0.03904
-0.04392,0.0366,-0.02928,-0.00732,0.01464,-0.02928,0.00488,-0.00488,-0.01952,-0.05856,-0.06832,-0.03904
-0.02928,0.02928,-0.02928,-0.01464,0,-0.01464,0.00976,0,-0.00976,-0.05856,-0.06832,-0.03904
-0.01952,0.0244,-0.02928,-0.01952,-0.00976,-0.00488,0.01464,0.00488,0,-0.05856,-0.06832,-0.03904
-0.00976,0.01952,-0.02928,-0.0244,-0.01952,0.00488,0.01952,0.00976,0.00976,-0.05856,-0.06832,-0.03904
-0.00976,0.01464,-0.01952,-0.01464,-0.00976,0,0.02928,0.02928,0.0244,-0.03416,-0.04392,-0.01464
-0.00976,0.00976,-0.00976,-0.00488,0,-0.00488,0.03904,0.0488,0.03904,-0.00976,-0.01952,0.00976
-0.00976,0.00976,-0.00976,-0.00488,0,-0.00488,0.0488,0.06344,0.04392,0.00488,-0.01464,0.00976
-0.00976,0.00976,-0.00976,-0.00488,0,-0.00488,0.05856,0.07808,0.0488,0.01952,-0.00976,0.00976
-0.00976,0.02196,-0.03416,-0.02928,-0.0244,0.00732,0.05856,0.08296,0.05368,0.01952,-0.00976,0.00976
0.00488,0.01464,-0.03416,-0.0366,-0.03904,0.02196,0.0488,0.08784,0.06344,0.01952,-0.00488,0.00976
0.0244,0.00732,-0.03904,-0.05124,-0.06344,0.04392,0.04392,0.09272,0.0732,0.0244,0,0.01464
0.05856,-0.0244,-0.00976,-0.03904,-0.06832,0.06344,0.0244,0.08296,0.07808,0.0244,0,0.01464
0.03416,-0.01708,0,-0.01708,-0.03416,0.03416,0.00488,0.07808,0.07808,0.00976,-0.00488,0.00976
0.01464,-0.00976,0.00488,-0.00244,-0.00976,0.0122,-0.0244,0.03904,0.03416,-0.03416,-0.04392,-0.01464
-0.00488,0,0.00488,0.00732,0.00976,-0.00732,-0.04392,-0.0244,-0.01464,-0.0488,-0.05368,-0.01952
-0.01952,0.00488,0.00976,0.01952,0.02928,-0.0244,-0.04392,-0.0488,-0.03416,-0.0488,-0.05368,-0.01952
-0.00488,0.01952,-0.03416,-0.03172,-0.02928,0.0122,-0.01952,-0.01952,-0.01952,-0.02928,-0.03904,-0.00488
0.00488,0.0366,-0.07808,-0.08052,-0.08296,0.04392,-0.01952,0,-0.00976,-0.02928,-0.03416,-0.00488
0.00488,0.0488,-0.10248,-0.10492,-0.10736,0.05612,-0.01952,-0.01464,-0.03904,-0.05856,-0.05368,-0.00488
0.00488,0.05368,-0.11224,-0.11468,-0.11712,0.061,-0.01952,-0.02928,-0.05856,-0.07808,-0.07808,-0.01952
-0.00488,0.05124,-0.0976,-0.09516,-0.09272,0.04392,-0.01952,-0.02928,-0.05856,-0.07808,-0.07808,-0.02928
-0.01952,0.05612,-0.09272,-0.08296,-0.0732,0.02684,-0.00488,-0.02928,-0.05856,-0.07808,-0.07808,-0.03904
-0.01952,0.061,-0.10248,-0.09272,-0.08296,0.03172,0.00488,-0.03416,-0.05856,-0.08296,-0.0732,-0.03904
-0.0244,0.05612,-0.08784,-0.07564,-0.06344,0.01952,0.00976,-0.03904,-0.05856,-0.08296,-0.08784,-0.03904
-0.05856,0.06344,-0.06832,-0.03904,-0.00976,-0.0244,0.00976,-0.03904,-0.06344,-0.0976,-0.0976,-0.05368
-0.07808,0.0732,-0.06832,-0.02928,0.00976,-0.04392,0.01464,-0.03904,-0.0732,-0.0976,-0.0976,-0.05368
-0.07808,0.07564,-0.0732,-0.03416,0.00488,-0.04148,0.00976,-0.04392,-0.0732,-0.10248,-0.10248,-0.05368
-0.08296,0.0854,-0.08784,-0.04636,-0.00488,-0.03904,0,-0.04392,-0.0732,-0.10248,-0.10248,-0.05856
-0.08296,0.0854,-0.08784,-0.04636,-0.00488,-0.03904,0,-0.03904,-0.0732,-0.0976,-0.10248,-0.05368
-0.08296,0.08052,-0.07808,-0.0366,0.00488,-0.04392,0,-0.03904,-0.0732,-0.0976,-0.10248,-0.05368
-0.0732,0.0732,-0.0732,-0.0366,0,-0.0366,-0.00488,-0.03904,-0.06832,-0.10248,-0.10736,-0.05856
-0.06344,0.06832,-0.0732,-0.04148,-0.00976,-0.02684,-0.00488,-0.03904,-0.06344,-0.10736,-0.11712,-0.06832
-0.06344,0.06832,-0.0732,-0.04148,-0.00976,-0.02684,0.00488,-0.03416,-0.05368,-0.122,-0.13176,-0.07808
-0.05856,0.07076,-0.08296,-0.05368,-0.0244,-0.01708,0.01952,-0.01952,-0.02928,-0.13176,-0.1464,-0.08296
-0.06832,0.07564,-0.08296,-0.0488,-0.01464,-0.02684,0.01952,-0.01952,-0.04392,-0.122,-0.13664,-0.08296
-0.08296,0.07808,-0.0732,-0.03172,0.00976,-0.04636,0.01464,-0.03416,-0.06832,-0.122,-0.13176,-0.08296
-0.08296,0.07808,-0.0732,-0.03172,0.00976,-0.04636,0.01464,-0.02928,-0.0732,-0.11224,-0.11712,-0.0732
-0.08296,0.07808,-0.0732,-0.03172,0.00976,-0.04636,0.01464,-0.0244,-0.0732,-0.0976,-0.09272,-0.06344
-0.08296,0.07808,-0.0732,-0.03172,0.00976,-0.04636,0.00976,-0.0244,-0.07808,-0.09272,-0.09272,-0.06344
-0.08296,0.08296,-0.08296,-0.04148,0,-0.04148,0.00976,-0.00976,-0.07808,-0.08296,-0.08784,-0.05856
-0.0732,0.07808,-0.08296,-0.04636,-0.00976,-0.03172,0.00976,-0.00488,-0.06344,-0.08296,-0.08296,-0.0488
-0.0732,0.07808,-0.08296,-0.04636,-0.00976,-0.03172,0.00976,-0.00488,-0.05368,-0.08296,-0.08296,-0.0488
-0.07808,0.0732,-0.06832,-0.02928,0.00976,-0.04392,0.00976,-0.01464,-0.05856,-0.07808,-0.0732,-0.05368
-0.07808,0.07076,-0.06344,-0.0244,0.01464,-0.04636,0.00976,-0.01952,-0.05856,-0.08296,-0.0732,-0.05368
-0.07808,0.07564,-0.0732,-0.03416,0.00488,-0.04148,0.01464,-0.01464,-0.05368,-0.07808,-0.0732,-0.04392
-0.0732,0.08296,-0.09272,-0.05612,-0.01952,-0.02684,0.01952,-0.00976,-0.04392,-0.0732,-0.0732,-0.03416
-0.06344,0.05856,-0.05368,-0.02196,0.00976,-0.0366,0.01464,-0.01464,-0.04392,-0.07808,-0.08784,-0.0488
-0.06344,0.04636,-0.02928,0.00244,0.03416,-0.0488,0.00976,-0.01952,-0.03904,-0.06832,-0.08784,-0.05368
-0.06344,0.0366,-0.00976,0.02196,0.05368,-0.05856,0.01464,-0.02928,-0.03416,-0.10248,-0.13176,-0.0976
-0.05368,0.04392,-0.03416,-0.00732,0.01952,-0.0366,0.03416,-0.00976,-0.00488,-0.0976,-0.13664,-0.11712
-0.06344,0.05612,-0.0488,-0.01708,0.01464,-0.03904,0.0488,0.02928,0.05368,0.00488,-0.01464,-0.02928
-0.0488,0.05368,-0.05856,-0.03416,-0.00976,-0.01952,0.07808,0.11712,0.1708,0.18544,0.20008,0.10248
0.08784,-0.01708,-0.05368,-0.0976,-0.14152,0.11468,0.12688,0.2928,0.42456,0.5368,0.52216,0.25864
0.25376,-0.11224,-0.02928,-0.15616,-0.28304,0.2684,0.10736,0.38552,0.62952,0.89304,0.90768,0.488
0.50264,-0.2562,0.00976,-0.24156,-0.49288,0.49776,-0.02928,0.32696,0.68808,1.18096,1.35176,0.81496
0.64904,-0.36356,0.07808,-0.24644,-0.57096,0.61,-0.17568,0.12688,0.51728,1.13704,1.40056,0.94672
0.59536,-0.34648,0.0976,-0.20008,-0.49776,0.54656,-0.38064,-0.32696,0.07808,0.65392,0.88816,0.72712
0.41968,-0.20008,-0.01952,-0.22936,-0.4392,0.42944,-0.49776,-0.75152,-0.44408,0.02928,0.1952,0.31232
0.14152,-0.00732,-0.12688,-0.19764,-0.2684,0.20496,-0.55144,-1.07848,-0.94672,-0.5612,-0.38552,-0.05368
-0.04392,0.11712,-0.19032,-0.16836,-0.1464,0.05124,-0.55632,-1.20048,-1.22,-0.92232,-0.72224,-0.2684
-0.11712,0.18056,-0.244,-0.18544,-0.12688,0.00488,-0.52704,-1.13704,-1.26392,-1.0736,-0.85888,-0.38552
-0.12688,0.18056,-0.23424,-0.1708,-0.10736,-0.00976,-0.44896,-0.95648,-1.13704,-1.02968,-0.83448,-0.40504
-0.08784,0.16348,-0.23912,-0.1952,-0.15128,0.03172,-0.33672,-0.6588,-0.84912,-0.8052,-0.68808,-0.366
-0.0732,0.14396,-0.21472,-0.17812,-0.14152,0.03416,-0.22448,-0.42944,-0.61976,-0.61,-0.54168,-0.3172
-0.0488,0.09028,-0.13176,-0.10736,-0.08296,0.01708,-0.16592,-0.30744,-0.4148,-0.4392,-0.40016,-0.22936
-0.01952,0.0488,-0.07808,-0.06832,-0.05856,0.01952,-0.10736,-0.20008,-0.24888,-0.30256,-0.29768,-0.17568
-0.01952,0.02196,-0.0244,-0.01464,-0.00488,-0.00732,-0.06344,-0.13664,-0.16104,-0.22936,-0.22448,-0.1464
-0.0488,0.02928,-0.00976,0.01464,0.03904,-0.04392,-0.01952,-0.07808,-0.09272,-0.1708,-0.16592,-0.10736
-0.0488,0.04392,-0.03904,-0.01464,0.00976,-0.02928,0.00488,-0.03904,-0.05856,-0.11224,-0.0976,-0.05856
-0.0488,0.04636,-0.04392,-0.01952,0.00488,-0.02684,0.00976,-0.01464,-0.0488,-0.06344,-0.0488,-0.01952
-0.0488,0.04148,-0.03416,-0.00976,0.01464,-0.03172,0.00976,-0.00488,-0.03904,-0.05368,-0.0488,-0.02928
-0.0488,0.03172,-0.01464,0.00976,0.03416,-0.04148,0.01464,0.00976,-0.03416,-0.04392,-0.05368,-0.03904
-0.05368,0.04392,-0.03416,-0.00732,0.01952,-0.0366,0.01952,0.01952,-0.01952,-0.03416,-0.05368,-0.03904
-0.05368,0.05124,-0.0488,-0.02196,0.00488,-0.02928,0.0244,0.02928,-0.00488,-0.0244,-0.04392,-0.02928
-0.05368,0.05368,-0.05368,-0.02684,0,-0.02684,0.03416,0.03416,0.00488,-0.0244,-0.04392,-0.01952
-0.05368,0.05612,-0.05856,-0.03172,-0.00488,-0.0244,0.04392,0.03904,0.00976,-0.01952,-0.03904,-0.00976
-0.05368,0.04636,-0.03904,-0.0122,0.01464,-0.03416,0.04392,0.03904,0.00976,-0.01952,-0.04392,-0.01952
-0.05368,0.03904,-0.0244,0.00244,0.02928,-0.04148,0.03904,0.03904,0.00976,-0.01464,-0.04392,-0.02928
-0.04392,0.02928,-0.01464,0.00732,0.02928,-0.0366,0.03416,0.03904,0.01952,-0.01952,-0.0488,-0.03904
-0.04392,0.02196,0,0.02196,0.04392,-0.04392,0.03416,0.04392,0.01464,-0.02928,-0.05856,-0.0488
-0.0488,0.0366,-0.0244,0,0.0244,-0.0366,0.03904,0.0488,0.01952,-0.02928,-0.05856,-0.0488
-0.0488,0.03416,-0.01952,0.00488,0.02928,-0.03904,0.03904,0.0488,0.01952,-0.02928,-0.05856,-0.0488
-0.05856,0.0488,-0.03904,-0.00976,0.01952,-0.03904,0.03904,0.0488,0.02928,-0.0244,-0.04392,-0.04392
-0.06832,0.061,-0.05368,-0.01952,0.01464,-0.04148,0.0488,0.06344,0.03416,-0.00976,-0.01952,-0.03416
-0.05368,0.04392,-0.03416,-0.00732,0.01952,-0.0366,0.03416,0.0488,0.02928,-0.00488,-0.02928,-0.03416
-0.03416,0.01952,-0.00488,0.0122,0.02928,-0.03172,0.03416,0.0488,0.02928,0,-0.02928,-0.04392
-0.03416,0.02684,-0.01952,-0.00244,0.01464,-0.0244,0.04392,0.05856,0.03416,0.00488,-0.0244,-0.03416
-0.03416,0.02684,-0.01952,-0.00244,0.01464,-0.0244,0.04392,0.05856,0.03904,0.00488,-0.0244,-0.03416
-0.03904,0.02684,-0.01464,0.00488,0.0244,-0.03172,0.03904,0.05856,0.03416,-0.00488,-0.02928,-0.03416
-0.04392,0.02928,-0.01464,0.00732,0.02928,-0.0366,0.03416,0.05856,0.02928,-0.01952,-0.03416,-0.03416
-0.02928,0.02684,-0.0244,-0.00976,0.00488,-0.01708,0.03416,0.0488,0.02928,-0.00976,-0.03416,-0.03416
-0.02928,0.03172,-0.03416,-0.01952,-0.00488,-0.0122,0.03904,0.06832,0.04392,0.00976,-0.01464,-0.0244
-0.03904,0.04148,-0.04392,-0.0244,-0.00488,-0.01708,0.03904,0.06832,0.04392,0.01952,-0.01464,-0.01952
-0.03416,0.03172,-0.02928,-0.0122,0.00488,-0.01952,0.03904,0.06832,0.03904,0.01952,-0.01464,-0.0244
-0.01952,0.0122,-0.00488,0.00488,0.01464,-0.01708,0.03904,0.06344,0.03416,0.01952,-0.0244,-0.03416
-0.01952,-0.00244,0.0244,0.03416,0.04392,-0.03172,0.03416,0.05368,0.0244,0.01464,-0.03416,-0.04392
-0.01952,0.00244,0.01464,0.0244,0.03416,-0.02684,0.03416,0.06832,0.04392,0.0244,-0.01952,-0.03416
-0.00488,-0.00244,0.00976,0.0122,0.01464,-0.00976,0.03416,0.07808,0.05856,0.0244,0,-0.01952
-0.00976,0,0.00976,0.01464,0.01952,-0.01464,0.03904,0.07808,0.06344,0.04392,0.00976,-0.00488
-0.01464,0.00976,-0.00488,0.00244,0.00976,-0.0122,0.03904,0.08784,0.0732,0.06832,0.02928,0.00488
-0.01464,0.00976,-0.00488,0.00244,0.00976,-0.0122,0.03904,0.09272,0.0732,0.0732,0.03416,0.01464
-0.00976,0.0244,-0.03904,-0.03416,-0.02928,0.00976,0.03904,0.0976,0.07808,0.07808,0.04392,0.03416
-0.00976,0.0122,-0.01464,-0.00976,-0.00488,-0.00244,0.03904,0.10248,0.08784,0.08296,0.0488,0.0244
0,0.00244,-0.00488,-0.00488,-0.00488,0.00244,0.03904,0.10736,0.10248,0.08784,0.05856,0.0244
0.00488,-0.00732,0.00976,0.00732,0.00488,0,0.03904,0.11224,0.11224,0.09272,0.0488,0.0244
0.00488,-0.01708,0.02928,0.02684,0.0244,-0.00976,0.03904,0.122,0.13664,0.11224,0.06344,0.04392
0.00488,-0.0122,0.01952,0.01708,0.01464,-0.00488,0.02928,0.122,0.13664,0.11712,0.07808,0.05368
0.03416,-0.00976,-0.01464,-0.03172,-0.0488,0.04148,0.0244,0.122,0.14152,0.13176,0.10248,0.05856
0.04392,-0.03172,0.01952,-0.00244,-0.0244,0.03416,0.01464,0.12688,0.1464,0.15128,0.10736,0.06344
0.0488,-0.05612,0.06344,0.03904,0.01464,0.01708,0.00488,0.122,0.1464,0.16592,0.12688,0.06832
0.05368,-0.061,0.06832,0.04148,0.01464,0.01952,0.00488,0.13176,0.16592,0.17568,0.1464,0.08296
0.05856,-0.061,0.06344,0.03416,0.00488,0.02684,0.00488,0.13664,0.18056,0.20496,0.16592,0.10248
0.06832,-0.06832,0.06832,0.03416,0,0.03416,0,0.13176,0.18544,0.22936,0.18544,0.10736
0.0732,-0.07076,0.06832,0.03172,-0.00488,0.03904,0,0.14152,0.20984,0.24888,0.21472,0.12688
0.10736,-0.09028,0.0732,0.01952,-0.03416,0.07076,0,0.15128,0.22936,0.27816,0.23912,0.14152
0.13176,-0.1098,0.08784,0.02196,-0.04392,0.08784,-0.00488,0.16592,0.23912,0.28792,0.26352,0.15616
0.12688,-0.1098,0.09272,0.02928,-0.03416,0.08052,-0.00976,0.1708,0.26352,0.3172,0.2928,0.19032
0.122,-0.11224,0.10248,0.04148,-0.01952,0.07076,-0.00976,0.1708,0.27328,0.3416,0.3172,0.20984
0.14152,-0.12444,0.10736,0.0366,-0.03416,0.08784,-0.00976,0.18544,0.29768,0.38552,0.36112,0.244
0.16104,-0.1342,0.10736,0.02684,-0.05368,0.10736,-0.01952,0.1952,0.3172,0.42944,0.39528,0.2684
0.16592,-0.14884,0.13176,0.0488,-0.03416,0.10004,-0.0244,0.18544,0.3172,0.4392,0.40992,0.27328
0.1708,-0.17324,0.17568,0.09028,0.00488,0.08296,-0.03904,0.18056,0.32208,0.45872,0.42944,0.28304
0.18544,-0.183,0.18056,0.08784,-0.00488,0.09516,-0.03904,0.18544,0.35136,0.49288,0.4636,0.30256
0.20496,-0.20252,0.20008,0.0976,-0.00488,0.10492,-0.0488,0.18544,0.366,0.49776,0.47824,0.32208
0.20984,-0.1952,0.18056,0.07564,-0.02928,0.11956,-0.0488,0.20496,0.3904,0.52704,0.49776,0.3416
0.2196,-0.20496,0.19032,0.08052,-0.02928,0.12444,-0.05856,0.1952,0.38064,0.52704,0.49776,0.3416
0.23912,-0.21472,0.19032,0.07076,-0.0488,0.14396,-0.05856,0.1952,0.3904,0.51728,0.488,0.32696
0.25376,-0.22448,0.1952,0.06832,-0.05856,0.15616,-0.06832,0.18056,0.3904,0.49776,0.47336,0.30744
0.23912,-0.20984,0.18056,0.061,-0.05856,0.14884,-0.06344,0.18056,0.38552,0.52704,0.5124,0.35136
0.21472,-0.18056,0.1464,0.03904,-0.06832,0.14152,-0.05368,0.18544,0.38064,0.5368,0.52704,0.38064
0.1952,-0.18056,0.16592,0.06832,-0.02928,0.11224,-0.0488,0.16592,0.36112,0.50264,0.49776,0.35624
0.18544,-0.183,0.18056,0.08784,-0.00488,0.09516,-0.0488,0.15128,0.33184,0.4636,0.46848,0.33184
0.16592,-0.16592,0.16592,0.08296,0,0.08296,-0.0488,0.14152,0.30256,0.42944,0.42944,0.30744
0.1464,-0.14152,0.13664,0.06344,-0.00976,0.07808,-0.03416,0.13664,0.28792,0.40504,0.40504,0.2928
0.122,-0.122,0.122,0.061,0,0.061,-0.03416,0.11224,0.25376,0.36112,0.36112,0.25864
0.10736,-0.10492,0.10248,0.0488,-0.00488,0.05612,-0.02928,0.08784,0.21472,0.31232,0.3172,0.22936
0.10248,-0.10004,0.0976,0.04636,-0.00488,0.05368,-0.0244,0.08784,0.20496,0.27328,0.2684,0.19032
0.07808,-0.07564,0.0732,0.03416,-0.00488,0.04148,-0.0244,0.07808,0.19032,0.23912,0.2196,0.15128
0.06832,-0.061,0.05368,0.01952,-0.01464,0.04148,-0.01464,0.06344,0.16104,0.19032,0.1708,0.122
0.06344,-0.05124,0.03904,0.00732,-0.0244,0.04392,-0.00976,0.05368,0.12688,0.15128,0.13664,0.10248
0.0244,-0.03904,0.05368,0.04148,0.02928,-0.00244,-0.00488,0.03416,0.09272,0.11224,0.0976,0.06832
0.00488,-0.01952,0.03416,0.03172,0.02928,-0.0122,0,0.02928,0.06832,0.08784,0.06832,0.0488
-0.00488,-0.00244,0.00976,0.0122,0.01464,-0.00976,0,0.03416,0.06344,0.0732,0.05856,0.04392
-0.00976,0,0.00976,0.01464,0.01952,-0.01464,0.00976,0.03416,0.05856,0.05856,0.03904,0.02928
-0.01464,0.01708,-0.01952,-0.0122,-0.00488,-0.00488,0.00976,0.03416,0.0488,0.0488,0.02928,0.02928
-0.01952,0.00976,0,0.00976,0.01952,-0.01952,0.00488,0.02928,0.03904,0.03416,0.00976,0.01952
-0.02928,0.01464,0,0.01464,0.02928,-0.02928,0.00488,0.01952,0.02928,0.01952,-0.00488,0.00488
-0.03416,0.02684,-0.01952,-0.00244,0.01464,-0.0244,0.01464,0.00976,0.0244,0.00976,-0.01464,-0.00976
-0.03416,0.02928,-0.0244,-0.00732,0.00976,-0.02196,0.01464,0.00976,0.01464,-0.00488,-0.03904,-0.0244
-0.02928,0.0244,-0.01952,-0.00488,0.00976,-0.01952,0.00488,0.00976,0.00976,-0.01952,-0.06344,-0.03904
-0.03416,0.02684,-0.01952,-0.00244,0.01464,-0.0244,0.00976,0.00976,0,-0.02928,-0.06344,-0.0488
-0.04392,0.0366,-0.02928,-0.00732,0.01464,-0.02928,0.0244,0.00976,0.00976,-0.02928,-0.05368,-0.0488
-0.05368,0.04636,-0.03904,-0.0122,0.01464,-0.03416,0.0244,0.01464,0.00976,-0.0244,-0.05368,-0.03416
-0.05368,0.05124,-0.0488,-0.02196,0.00488,-0.02928,0.0244,0.01464,0.00488,-0.01952,-0.0488,-0.0244
-0.0488,0.05124,-0.05368,-0.02928,-0.00488,-0.02196,0.01952,0.01464,0,-0.02928,-0.0488,-0.0244
-0.04392,0.04392,-0.04392,-0.02196,0,-0.02196,0.01464,0.00976,0,-0.02928,-0.03904,-0.0244
-0.04392,0.04392,-0.04392,-0.02196,0,-0.02196,0.00976,0.00976,-0.00976,-0.02928,-0.03904,-0.0244
-0.04392,0.04392,-0.04392,-0.02196,0,-0.02196,0.00976,0.01464,-0.00976,-0.0244,-0.03904,-0.02928
-0.03904,0.04148,-0.04392,-0.0244,-0.00488,-0.01708,0.01464,0.00976,-0.00976,-0.0244,-0.04392,-0.03416
-0.03904,0.04148,-0.04392,-0.0244,-0.00488,-0.01708,0.01464,0.00488,-0.00976,-0.03904,-0.0488,-0.0488
-0.01952,0.04148,-0.06344,-0.05368,-0.04392,0.0122,0.00976,0.00488,-0.00976,-0.06832,-0.08784,-0.07808
0.00488,0.0366,-0.07808,-0.08052,-0.08296,0.04392,0.00976,0,-0.00976,-0.08784,-0.11224,-0.10736
-0.0244,0.04636,-0.06832,-0.05612,-0.04392,0.00976,0.01464,0.00488,-0.01464,-0.0732,-0.08784,-0.09272
-0.05856,0.05856,-0.05856,-0.02928,0,-0.02928,0.01952,0.00976,-0.01464,-0.05856,-0.06832,-0.0732
-0.07808,0.06832,-0.05856,-0.01952,0.01952,-0.0488,0.0244,0.01464,-0.00976,-0.03416,-0.05856,-0.06344
-0.08784,0.0732,-0.05856,-0.01464,0.02928,-0.05856,0.0244,0.0244,-0.00976,-0.01464,-0.04392,-0.04392
-0.06832,0.05856,-0.0488,-0.01464,0.01952,-0.04392,0.01952,0.02928,-0.00488,-0.01464,-0.04392,-0.02928
-0.04392,0.04392,-0.04392,-0.02196,0,-0.02196,0.0244,0.02928,-0.00488,-0.01464,-0.04392,-0.01464
-0.05368,0.04636,-0.03904,-0.0122,0.01464,-0.03416,0.01464,0.0244,-0.00976,-0.0244,-0.05368,-0.01952
-0.05368,0.04636,-0.03904,-0.0122,0.01464,-0.03416,0.01464,0.0244,-0.01464,-0.02928,-0.05856,-0.02928
-0.0488,0.05124,-0.05368,-0.02928,-0.00488,-0.02196,0.01464,0.0244,0,-0.03416,-0.05856,-0.04392
-0.04392,0.03416,-0.0244,-0.00244,0.01952,-0.03172,0.01464,0.01464,-0.00976,-0.05856,-0.08784,-0.06832
-0.04392,0.03904,-0.03416,-0.0122,0.00976,-0.02684,0.01952,0.0244,-0.00488,-0.05856,-0.0976,-0.06832
-0.04392,0.04148,-0.03904,-0.01708,0.00488,-0.0244,0.0244,0.0244,0.00488,-0.06344,-0.10736,-0.06832
-0.03904,0.04636,-0.05368,-0.03416,-0.01464,-0.0122,0.03904,0.0244,0.00488,-0.05368,-0.09272,-0.05856
-0.03904,0.04392,-0.0488,-0.02928,-0.00976,-0.01464,0.03416,0.01952,0.00488,-0.04392,-0.0732,-0.0488
-0.05856,0.0488,-0.03904,-0.00976,0.01952,-0.03904,0.0244,0.0244,-0.00488,-0.02928,-0.06344,-0.03904
-0.06344,0.05612,-0.0488,-0.01708,0.01464,-0.03904,0.0244,0.02928,-0.00976,-0.01464,-0.05368,-0.02928
-0.05856,0.05124,-0.04392,-0.01464,0.01464,-0.0366,0.0244,0.02928,-0.01464,-0.0244,-0.0488,-0.02928
-0.05856,0.0488,-0.03904,-0.00976,0.01952,-0.03904,0.01952,0.02928,-0.01952,-0.03416,-0.0488,-0.03904
-0.05368,0.04392,-0.03416,-0.00732,0.01952,-0.0366,0.01464,0.02928,-0.01952,-0.03416,-0.05368,-0.04392
-0.0488,0.0366,-0.0244,0,0.0244,-0.0366,0.00488,0.01952,-0.02928,-0.04392,-0.06344,-0.05368
-0.0488,0.02684,-0.00488,0.01952,0.04392,-0.04636,-0.01464,0.00488,-0.03904,-0.0488,-0.07808,-0.06344
-0.0488,0.01708,0.01464,0.03904,0.06344,-0.05612,-0.01464,-0.00488,-0.03904,-0.05368,-0.08784,-0.06832
-0.05368,0.0488,-0.04392,-0.01708,0.00976,-0.03172,0.00488,0.00488,-0.01464,-0.04392,-0.0732,-0.05368
-0.04392,0.06344,-0.08296,-0.061,-0.03904,-0.00244,0.01952,0.01464,0,-0.04392,-0.08296,-0.06344
-0.04392,0.05368,-0.06344,-0.04148,-0.01952,-0.0122,0.01464,0.01464,0,-0.05856,-0.08296,-0.07808
-0.03904,0.04392,-0.0488,-0.02928,-0.00976,-0.01464,0.01464,0.00976,-0.00976,-0.05856,-0.08296,-0.08784
-0.06344,0.061,-0.05856,-0.02684,0.00488,-0.03416,0.0244,0.01464,-0.01464,-0.04392,-0.0732,-0.06344
-0.08296,0.07564,-0.06832,-0.02684,0.01464,-0.0488,0.03416,0.01464,-0.01464,-0.03904,-0.06344,-0.03904
-0.0732,0.06588,-0.05856,-0.02196,0.01464,-0.04392,0.03416,0.01464,-0.01464,-0.03904,-0.05856,-0.03904
-0.06832,0.06832,-0.06832,-0.03416,0,-0.03416,0.03416,0.01464,-0.01464,-0.03904,-0.05856,-0.03904
-0.06344,0.06588,-0.06832,-0.0366,-0.00488,-0.02928,0.0244,0.01464,-0.01464,-0.0488,-0.06832,-0.04392
-0.05856,0.06344,-0.06832,-0.03904,-0.00976,-0.0244,0.01464,0.01464,-0.01464,-0.0488,-0.06832,-0.05368
-0.05368,0.05856,-0.06344,-0.0366,-0.00976,-0.02196,0.01952,0.01464,-0.01464,-0.0488,-0.07808,-0.06344
-0.0488,0.05368,-0.05856,-0.03416,-0.00976,-0.01952,0.01952,0.01464,-0.01464,-0.05368,-0.08784,-0.0732
-0.0488,0.05368,-0.05856,-0.03416,-0.00976,-0.01952,0.01952,0.01464,-0.00976,-0.06832,-0.09272,-0.0732
-0.0488,0.061,-0.0732,-0.0488,-0.0244,-0.0122,0.0244,0.01464,0,-0.06832,-0.09272,-0.0732
-0.06832,0.06588,-0.06344,-0.02928,0.00488,-0.0366,0.0244,0.00976,-0.0244,-0.05368,-0.08296,-0.06344
-0.08784,0.07076,-0.05368,-0.00976,0.03416,-0.061,0.0244,-0.00488,-0.04392,-0.05368,-0.0732,-0.05368
-0.08296,0.05368,-0.0244,0.01708,0.05856,-0.07076,0.01952,-0.00488,-0.04392,-0.05368,-0.0732,-0.0488
-0.06832,0.03416,0,0.03416,0.06832,-0.06832,0.01464,0.00488,-0.04392,-0.05856,-0.06832,-0.04392
-0.06832,0.0488,-0.02928,0.00488,0.03904,-0.05368,0.01464,0.00488,-0.04392,-0.05856,-0.05856,-0.04392
-0.06344,0.0488,-0.03416,-0.00244,0.02928,-0.04636,0.01464,0,-0.0488,-0.06344,-0.06832,-0.0488
-0.05856,0.04636,-0.03416,-0.00488,0.0244,-0.04148,0.01464,0,-0.04392,-0.06832,-0.07808,-0.05856
-0.05368,0.04636,-0.03904,-0.0122,0.01464,-0.03416,0.01464,0,-0.03416,-0.0732,-0.08296,-0.06344
-0.05368,0.04392,-0.03416,-0.00732,0.01952,-0.0366,0.01464,-0.00976,-0.02928,-0.0732,-0.08296,-0.06344
-0.05368,0.04148,-0.02928,-0.00244,0.0244,-0.03904,0.00976,0,-0.0244,-0.06344,-0.08296,-0.06344
-0.04392,0.05124,-0.05856,-0.0366,-0.01464,-0.01464,0.00976,0,-0.03904,-0.05368,-0.0732,-0.06344
-0.05856,0.05368,-0.0488,-0.01952,0.00976,-0.03416,0.01464,0,-0.05368,-0.04392,-0.06832,-0.05856
-0.05856,0.05856,-0.05856,-0.02928,0,-0.02928,0.01952,0.00488,-0.0488,-0.0488,-0.06832,-0.05368
-0.05856,0.06344,-0.06832,-0.03904,-0.00976,-0.0244,0.00976,0.00488,-0.0488,-0.05856,-0.0732,-0.0488
-0.06344,0.04392,-0.0244,0.00732,0.03904,-0.05124,0.00976,-0.00488,-0.0488,-0.0732,-0.08784,-0.06832
-0.0732,0.05124,-0.02928,0.00732,0.04392,-0.05856,0.01464,-0.00976,-0.04392,-0.07808,-0.0976,-0.08296
-0.05856,0.0488,-0.03904,-0.00976,0.01952,-0.03904,0.01464,-0.00488,-0.04392,-0.0732,-0.09272,-0.06832
-0.05368,0.04636,-0.03904,-0.0122,0.01464,-0.03416,0.00976,-0.00488,-0.04392,-0.0732,-0.09272,-0.06832
-0.05368,0.0366,-0.01952,0.00732,0.03416,-0.04392,0.00976,-0.00976,-0.03416,-0.0732,-0.0976,-0.06344
-0.05856,0.04148,-0.0244,0.00488,0.03416,-0.04636,0.00976,-0.00976,-0.0244,-0.0732,-0.0976,-0.06832
-0.05856,0.05856,-0.05856,-0.02928,0,-0.02928,0.0244,-0.00488,-0.02928,-0.0732,-0.08296,-0.06344
-0.05368,0.05612,-0.05856,-0.03172,-0.00488,-0.0244,0.01464,-0.00488,-0.03904,-0.0732,-0.0732,-0.05368
-0.05368,0.05124,-0.0488,-0.02196,0.00488,-0.02928,0.01464,-0.00976,-0.04392,-0.05856,-0.06832,-0.05368
-0.05856,0.05368,-0.0488,-0.01952,0.00976,-0.03416,0.01464,-0.00976,-0.04392,-0.0488,-0.06344,-0.05368
-0.06344,0.061,-0.05856,-0.02684,0.00488,-0.03416,0.01464,-0.00976,-0.04392,-0.05368,-0.06344,-0.05368
-0.06832,0.06832,-0.06832,-0.03416,0,-0.03416,0.01464,-0.00976,-0.04392,-0.05368,-0.06344,-0.0488
-0.06832,0.06832,-0.06832,-0.03416,0,-0.03416,0.01464,-0.00488,-0.03904,-0.05856,-0.06832,-0.0488
-0.06832,0.07076,-0.0732,-0.03904,-0.00488,-0.03172,0.01464,-0.00488,-0.03416,-0.06344,-0.07808,-0.05856
-0.04392,0.04636,-0.0488,-0.02684,-0.00488,-0.01952,0.00976,0,-0.04392,-0.0732,-0.08784,-0.07808
-0.0244,0.02196,-0.01952,-0.00732,0.00488,-0.01464,0.00976,0,-0.04392,-0.08296,-0.09272,-0.09272
-0.04392,0.0366,-0.02928,-0.00732,0.01464,-0.02928,0.01464,0,-0.03904,-0.08296,-0.08784,-0.07808
-0.06344,0.06588,-0.06832,-0.0366,-0.00488,-0.02928,0.01464,0,-0.02928,-0.08296,-0.08784,-0.06832
-0.06344,0.06588,-0.06832,-0.0366,-0.00488,-0.02928,0.01464,-0.00488,-0.02928,-0.06832,-0.07808,-0.05856
-0.06344,0.05368,-0.04392,-0.0122,0.01952,-0.04148,0.00976,-0.00488,-0.03904,-0.05368,-0.06832,-0.0488
-0.06344,0.061,-0.05856,-0.02684,0.00488,-0.03416,0.00976,0.00976,-0.03904,-0.05368,-0.06344,-0.03904
-0.06832,0.06344,-0.05856,-0.0244,0.00976,-0.03904,0.00976,0.00976,-0.03904,-0.05368,-0.06344,-0.03904
-0.06832,0.06344,-0.05856,-0.0244,0.00976,-0.03904,0.00488,-0.00488,-0.0488,-0.06344,-0.06832,-0.05368
-0.06344,0.05368,-0.04392,-0.0122,0.01952,-0.04148,0,-0.00976,-0.05368,-0.0732,-0.07808,-0.06344
-0.06344,0.05856,-0.05368,-0.02196,0.00976,-0.0366,0,-0.00976,-0.05368,-0.0732,-0.07808,-0.06344
-0.06344,0.06344,-0.06344,-0.03172,0,-0.03172,0,-0.00976,-0.05368,-0.06832,-0.07808,-0.06344
-0.05856,0.061,-0.06344,-0.03416,-0.00488,-0.02684,0.00488,-0.00488,-0.04392,-0.06344,-0.08784,-0.06832
-0.05368,0.05856,-0.06344,-0.0366,-0.00976,-0.02196,0.01464,-0.00488,-0.03416,-0.06344,-0.0976,-0.0732
-0.0488,0.061,-0.0732,-0.0488,-0.0244,-0.0122,0.01952,0,-0.0244,-0.05856,-0.08784,-0.05856
-0.0488,0.06832,-0.08784,-0.06344,-0.03904,-0.00488,0.02928,0.00976,-0.01952,-0.05856,-0.07808,-0.0488
-0.0488,0.05368,-0.05856,-0.03416,-0.00976,-0.01952,0.01464,-0.00976,-0.03904,-0.06832,-0.08296,-0.05368
-0.0488,0.03904,-0.02928,-0.00488,0.01952,-0.03416,0,-0.02928,-0.05856,-0.07808,-0.08784,-0.05856
-0.03904,0.0244,-0.00976,0.00976,0.02928,-0.03416,-0.00976,-0.02928,-0.05856,-0.0976,-0.10736,-0.07808
-0.02928,0.00976,0.00976,0.0244,0.03904,-0.03416,-0.01952,-0.02928,-0.05856,-0.11712,-0.12688,-0.0976
-0.05856,0.04148,-0.0244,0.00488,0.03416,-0.04636,0,-0.01952,-0.0488,-0.08296,-0.09272,-0.06832
-0.08784,0.0732,-0.05856,-0.01464,0.02928,-0.05856,0.01952,-0.00976,-0.03904,-0.0488,-0.05856,-0.03904
-0.07808,0.06832,-0.05856,-0.01952,0.01952,-0.0488,0.01952,-0.00488,-0.03904,-0.03904,-0.0488,-0.02928
-0.06832,0.06344,-0.05856,-0.0244,0.00976,-0.03904,0.01952,0,-0.03904,-0.02928,-0.03904,-0.01952
-0.06832,0.06344,-0.05856,-0.0244,0.00976,-0.03904,0.01464,0,-0.03904,-0.04392,-0.05368,-0.02928
-0.06832,0.06344,-0.05856,-0.0244,0.00976,-0.03904,0.00976,0,-0.03904,-0.05856,-0.06832,-0.03904
-0.05856,0.05856,-0.05856,-0.02928,0,-0.02928,0.00976,-0.00488,-0.03904,-0.06344,-0.07808,-0.05368
-0.0488,0.05368,-0.05856,-0.03416,-0.00976,-0.01952,0.00976,-0.00976,-0.03904,-0.06832,-0.08784,-0.06832
-0.0488,0.05368,-0.05856,-0.03416,-0.00976,-0.01952,0.00976,-0.00976,-0.03904,-0.0732,-0.08784,-0.06832
-0.0488,0.05368,-0.05856,-0.03416,-0.00976,-0.01952,0.00976,-0.00976,-0.03904,-0.07808,-0.08784,-0.06832
-0.0488,0.05368,-0.05856,-0.03416,-0.00976,-0.01952,0.00976,-0.00976,-0.03904,-0.07808,-0.08784,-0.06832
-0.0488,0.05368,-0.05856,-0.03416,-0.00976,-0.01952,0.00976,-0.00976,-0.03904,-0.07808,-0.08784,-0.06832
-0.05856,0.05368,-0.0488,-0.01952,0.00976,-0.03416,0.01464,-0.00976,-0.0488,-0.07808,-0.08784,-0.06344
-0.06832,0.05368,-0.03904,-0.00488,0.02928,-0.0488,0.01952,-0.00976,-0.05856,-0.07808,-0.08784,-0.05856
-0.06832,0.05856,-0.0488,-0.01464,0.01952,-0.04392,0.01952,-0.00976,-0.0488,-0.05856,-0.07808,-0.0488
-0.06832,0.06344,-0.05856,-0.0244,0.00976,-0.03904,0.01952,-0.00976,-0.03904,-0.03904,-0.06832,-0.03904
-0.06832,0.06344,-0.05856,-0.0244,0.00976,-0.03904,0.01952,-0.00976,-0.03904,-0.0488,-0.06832,-0.03904
-0.06832,0.06344,-0.05856,-0.0244,0.00976,-0.03904,0.01952,-0.00976,-0.03904,-0.05856,-0.06832,-0.03904
-0.06832,0.07076,-0.0732,-0.03904,-0.00488,-0.03172,0.01952,-0.00488,-0.03416,-0.05856,-0.06832,-0.04392
-0.06832,0.07808,-0.08784,-0.05368,-0.01952,-0.0244,0.01952,0,-0.02928,-0.05856,-0.06832,-0.0488
-0.06344,0.07564,-0.08784,-0.05612,-0.0244,-0.01952,0.01952,0,-0.02928,-0.05856,-0.06832,-0.0488
-0.05856,0.0732,-0.08784,-0.05856,-0.02928,-0.01464,0.01952,0,-0.02928,-0.05856,-0.06832,-0.0488
-0.05856,0.06588,-0.0732,-0.04392,-0.01464,-0.02196,0.01464,-0.00488,-0.03904,-0.05856,-0.06832,-0.0488
-0.05856,0.05856,-0.05856,-0.02928,0,-0.02928,0.00976,-0.00976,-0.0488,-0.05856,-0.06832,-0.0488
-0.05856,0.05856,-0.05856,-0.02928,0,-0.02928,0.00976,-0.00976,-0.0488,-0.05368,-0.06832,-0.0488
-0.05856,0.05856,-0.05856,-0.02928,0,-0.02928,0.00976,-0.00976,-0.0488,-0.0488,-0.06832,-0.0488
-0.05368,0.0488,-0.04392,-0.01708,0.00976,-0.03172,0.01464,-0.00488,-0.03416,-0.0488,-0.06832,-0.0488
-0.0488,0.03904,-0.02928,-0.00488,0.01952,-0.03416,0.01952,0,-0.01952,-0.0488,-0.06832,-0.0488
-0.04392,0.0366,-0.02928,-0.00732,0.01464,-0.02928,0.01952,0.00488,-0.01952,-0.0488,-0.06832,-0.0488
-0.03904,0.03416,-0.02928,-0.00976,0.00976,-0.0244,0.01952,0.00976,-0.01952,-0.0488,-0.06832,-0.0488
-0.02928,0.02684,-0.0244,-0.00976,0.00488,-0.01708,0.0244,0.00976,-0.01952,-0.04392,-0.05856,-0.04392
-0.01952,0.01952,-0.01952,-0.00976,0,-0.00976,0.02928,0.00976,-0.01952,-0.03904,-0.0488,-0.03904
-0.01464,0.01708,-0.01952,-0.0122,-0.00488,-0.00488,0.04392,0.03904,0.00976,-0.00976,-0.0244,-0.01464
-0.00976,0.01464,-0.01952,-0.01464,-0.00976,0,0.05856,0.06832,0.03904,0.01952,0,0.00976
-0.00976,0.01952,-0.02928,-0.0244,-0.01952,0.00488,0.05856,0.07808,0.04392,0.0244,0,0.01464
-0.00976,0.0244,-0.03904,-0.03416,-0.02928,0.00976,0.05856,0.08784,0.0488,0.02928,0,0.01952
0,0.02928,-0.05856,-0.05856,-0.05856,0.02928,0.06344,0.0976,0.05856,0.03416,0.00488,0.01952
0.01464,0.02196,-0.05856,-0.06588,-0.0732,0.04392,0.05856,0.10248,0.06832,0.03904,0.00976,0.01952
0.02928,0.01464,-0.05856,-0.0732,-0.08784,0.05856,0.05368,0.10736,0.07808,0.0488,0.01952,0.0244
0.0488,-0.00976,-0.02928,-0.05368,-0.07808,0.06344,0.03416,0.09272,0.07808,0.05368,0.01952,0.0244
0.0244,0,-0.0244,-0.0366,-0.0488,0.0366,0.01464,0.07808,0.05856,0.03904,0.01464,0.01952
0.00488,0.00976,-0.0244,-0.02684,-0.02928,0.01708,-0.01464,0.02928,-0.00488,-0.00488,-0.0244,-0.00488
0,0.01708,-0.03416,-0.03416,-0.03416,0.01708,-0.02928,-0.01952,-0.03904,-0.02928,-0.03904,-0.01464
0,0.01952,-0.03904,-0.03904,-0.03904,0.01952,-0.0244,-0.02928,-0.04392,-0.03904,-0.04392,-0.01952
0.00488,0.03172,-0.06832,-0.07076,-0.0732,0.03904,-0.00976,-0.01952,-0.04392,-0.03904,-0.05368,-0.01952
0.00488,0.04636,-0.0976,-0.10004,-0.10248,0.05368,-0.01952,-0.01952,-0.0488,-0.05856,-0.0732,-0.03416
0,0.05124,-0.10248,-0.10248,-0.10248,0.05124,-0.01952,-0.0244,-0.06832,-0.08296,-0.07808,-0.04392
-0.00488,0.0488,-0.09272,-0.09028,-0.08784,0.04148,-0.01952,-0.02928,-0.07808,-0.0976,-0.08784,-0.06832
-0.01952,0.05368,-0.08784,-0.07808,-0.06832,0.0244,-0.01952,-0.02928,-0.07808,-0.08296,-0.08296,-0.05856
-0.03904,0.06588,-0.09272,-0.0732,-0.05368,0.00732,-0.00488,-0.02928,-0.07808,-0.06832,-0.07808,-0.0488
-0.0488,0.0732,-0.0976,-0.0732,-0.0488,0,0.00488,-0.02928,-0.07808,-0.0732,-0.06832,-0.05368
-0.06344,0.07076,-0.07808,-0.04636,-0.01464,-0.0244,0.00976,-0.02928,-0.07808,-0.0732,-0.07808,-0.05856
-0.07808,0.07808,-0.07808,-0.03904,0,-0.03904,0.00976,-0.02928,-0.0732,-0.08784,-0.08784,-0.0732
-0.07808,0.08784,-0.0976,-0.05856,-0.01952,-0.02928,0.01464,-0.02928,-0.0732,-0.08784,-0.08784,-0.0732
-0.06344,0.07808,-0.09272,-0.061,-0.02928,-0.01708,0.01952,-0.02928,-0.0732,-0.09272,-0.0976,-0.06832
-0.05368,0.07564,-0.0976,-0.07076,-0.04392,-0.00488,0.01952,-0.0244,-0.0732,-0.09272,-0.10248,-0.06832
-0.06344,0.08784,-0.11224,-0.08052,-0.0488,-0.00732,0.01952,-0.0244,-0.07808,-0.08784,-0.10248,-0.06344
-0.0732,0.09516,-0.11712,-0.08052,-0.04392,-0.01464,0.01952,-0.02928,-0.08296,-0.08784,-0.10248,-0.06344
-0.07808,0.0854,-0.09272,-0.05368,-0.01464,-0.03172,0.00976,-0.02928,-0.08296,-0.09272,-0.0976,-0.06344
-0.08296,0.07808,-0.0732,-0.03172,0.00976,-0.04636,0.00488,-0.02928,-0.08296,-0.0976,-0.0976,-0.06832
-0.08296,0.08296,-0.08296,-0.04148,0,-0.04148,0,-0.02928,-0.08296,-0.0976,-0.0976,-0.0732
-0.07808,0.09028,-0.10248,-0.06344,-0.0244,-0.02684,0,-0.01952,-0.06832,-0.09272,-0.0976,-0.0732
-0.07808,0.09028,-0.10248,-0.06344,-0.0244,-0.02684,0.00976,-0.01952,-0.06832,-0.09272,-0.0976,-0.07808
-0.08296,0.08784,-0.09272,-0.05124,-0.00976,-0.0366,0.01464,-0.03416,-0.07808,-0.10248,-0.10248,-0.08296
-0.07808,0.08296,-0.08784,-0.0488,-0.00976,-0.03416,0.01464,-0.03416,-0.08296,-0.10736,-0.10248,-0.07808
-0.0732,0.07808,-0.08296,-0.04636,-0.00976,-0.03172,0.01464,-0.03416,-0.08296,-0.10736,-0.09272,-0.0732
-0.0732,0.08052,-0.08784,-0.05124,-0.01464,-0.02928,0.01464,-0.03416,-0.07808,-0.10248,-0.09272,-0.06832
-0.0732,0.08784,-0.10248,-0.06588,-0.02928,-0.02196,0.01952,-0.01952,-0.06832,-0.09272,-0.08784,-0.05856
-0.06832,0.0854,-0.10248,-0.06832,-0.03416,-0.01708,0.01952,-0.00976,-0.05856,-0.08784,-0.08296,-0.0488
-0.0732,0.08784,-0.10248,-0.06588,-0.02928,-0.02196,0.01952,-0.00488,-0.05368,-0.08296,-0.08296,-0.0488
-0.07808,0.08784,-0.0976,-0.05856,-0.01952,-0.02928,0.01952,-0.00976,-0.05856,-0.0732,-0.07808,-0.05368
-0.07808,0.09028,-0.10248,-0.06344,-0.0244,-0.02684,0.01952,-0.00976,-0.05856,-0.0732,-0.08296,-0.05368
-0.07808,0.08296,-0.08784,-0.0488,-0.00976,-0.03416,0.0244,-0.00488,-0.05368,-0.06832,-0.08296,-0.05368
-0.0732,0.07808,-0.08296,-0.04636,-0.00976,-0.03172,0.02928,0,-0.04392,-0.06344,-0.08296,-0.05368
-0.06832,0.07076,-0.0732,-0.03904,-0.00488,-0.03172,0.02928,0,-0.03904,-0.06344,-0.07808,-0.05368
-0.0732,0.07564,-0.07808,-0.04148,-0.00488,-0.03416,0.02928,0,-0.02928,-0.0488,-0.05856,-0.04392
-0.0732,0.05856,-0.04392,-0.00732,0.02928,-0.05124,0.0244,0,-0.01464,-0.0244,-0.03416,-0.03904
-0.06344,0.05856,-0.05368,-0.02196,0.00976,-0.0366,0.03416,0.02928,0.0244,0.03904,0.02928,-0.00976
-0.01464,0.0366,-0.05856,-0.05124,-0.04392,0.01464,0.0488,0.08296,0.12688,0.20496,0.1952,0.09272
0.05856,0,-0.05856,-0.08784,-0.11712,0.08784,0.07808,0.18544,0.28792,0.44896,0.45384,0.23912
0.1952,-0.07564,-0.04392,-0.14152,-0.23912,0.21716,0.08784,0.2928,0.49288,0.74176,0.76616,0.42944
0.36112,-0.17568,-0.00976,-0.19032,-0.37088,0.366,0.02928,0.3172,0.64904,1.03944,1.14192,0.69296
0.50752,-0.25864,0.00976,-0.244,-0.49776,0.50264,-0.0976,0.18056,0.5612,1.08336,1.2932,0.84424
0.55144,-0.305,0.05856,-0.21716,-0.49288,0.52216,-0.23424,-0.0976,0.244,0.79544,1.0492,0.80032
0.42456,-0.23912,0.05368,-0.1586,-0.37088,0.39772,-0.3904,-0.49288,-0.1952,0.2928,0.50752,0.5124
0.17568,-0.04392,-0.08784,-0.17568,-0.26352,0.2196,-0.45872,-0.85888,-0.71736,-0.35136,-0.21472,0.02928
-0.0244,0.09516,-0.16592,-0.15372,-0.14152,0.05856,-0.50264,-1.09312,-1.09312,-0.79544,-0.62952,-0.22936
-0.13176,0.16592,-0.20008,-0.1342,-0.06832,-0.03172,-0.49776,-1.1224,-1.23952,-1.01016,-0.80032,-0.33672
-0.15616,0.19764,-0.23912,-0.16104,-0.08296,-0.0366,-0.4636,-1.0004,-1.18584,-1.04432,-0.84424,-0.39528
-0.11712,0.16592,-0.21472,-0.15616,-0.0976,-0.00976,-0.38064,-0.76128,-0.96136,-0.88328,-0.72712,-0.35624
-0.09272,0.13908,-0.18544,-0.13908,-0.09272,0,-0.27328,-0.50264,-0.69296,-0.6588,-0.56608,-0.29768
-0.09272,0.1098,-0.12688,-0.08052,-0.03416,-0.02928,-0.16592,-0.31232,-0.48312,-0.4636,-0.40504,-0.22936
-0.08296,0.0732,-0.06344,-0.02196,0.01952,-0.05124,-0.122,-0.21472,-0.32208,-0.31232,-0.27816,-0.1464
-0.06832,0.0488,-0.02928,0.00488,0.03904,-0.05368,-0.07808,-0.13176,-0.20008,-0.1952,-0.19032,-0.0976
-0.04392,0.02928,-0.01464,0.00732,0.02928,-0.0366,-0.04392,-0.07808,-0.12688,-0.13176,-0.13664,-0.08296
-0.0488,0.04392,-0.03904,-0.01464,0.00976,-0.02928,-0.00976,-0.02928,-0.0732,-0.08296,-0.0976,-0.05856
-0.0488,0.0488,-0.0488,-0.0244,0,-0.0244,0.01464,0,-0.04392,-0.06832,-0.0732,-0.04392
-0.0488,0.04148,-0.03416,-0.00976,0.01464,-0.03172,0.01952,0.01464,-0.03904,-0.06344,-0.06832,-0.03904
-0.0488,0.04636,-0.04392,-0.01952,0.00488,-0.02684,0.01952,0.01952,-0.02928,-0.05368,-0.05856,-0.03904
-0.0488,0.04636,-0.04392,-0.01952,0.00488,-0.02684,0.0244,0.02928,-0.0244,-0.04392,-0.05368,-0.03904
-0.05368,0.05124,-0.0488,-0.02196,0.00488,-0.02928,0.02928,0.03416,-0.01464,-0.03416,-0.05368,-0.03904
-0.05368,0.05124,-0.0488,-0.02196,0.00488,-0.02928,0.03416,0.03904,-0.00488,-0.0244,-0.04392,-0.02928
-0.05368,0.05368,-0.05368,-0.02684,0,-0.02684,0.03904,0.04392,0.00488,-0.0244,-0.04392,-0.02928
-0.05368,0.05612,-0.05856,-0.03172,-0.00488,-0.0244,0.04392,0.0488,0.00976,-0.01952,-0.03904,-0.02928
-0.05368,0.04636,-0.03904,-0.0122,0.01464,-0.03416,0.04392,0.0488,0.00976,-0.01952,-0.03904,-0.02928
-0.05368,0.03904,-0.0244,0.00244,0.02928,-0.04148,0.03904,0.0488,0.00976,-0.01464,-0.03416,-0.02928
-0.04392,0.03904,-0.03416,-0.0122,0.00976,-0.02684,0.03904,0.0488,0.0244,-0.00976,-0.02928,-0.01952
-0.04392,0.04148,-0.03904,-0.01708,0.00488,-0.0244,0.04392,0.05368,0.0244,-0.00976,-0.02928,-0.00976
-0.0488,0.0488,-0.0488,-0.0244,0,-0.0244,0.0488,0.05856,0.02928,-0.00976,-0.02928,-0.00976
-0.0488,0.03904,-0.02928,-0.00488,0.01952,-0.03416,0.0488,0.05856,0.02928,-0.00976,-0.02928,-0.00976
-0.04392,0.04636,-0.0488,-0.02684,-0.00488,-0.01952,0.0488,0.05856,0.02928,-0.00488,-0.0244,-0.01952
-0.03904,0.05124,-0.06344,-0.04392,-0.0244,-0.00732,0.05856,0.0732,0.0244,0.00976,-0.00976,-0.0244
-0.03904,0.04392,-0.0488,-0.02928,-0.00976,-0.01464,0.04392,0.05856,0.01952,0.00976,-0.01952,-0.0244
-0.03416,0.02928,-0.0244,-0.00732,0.00976,-0.02196,0.04392,0.05856,0.01952,0.00976,-0.01952,-0.03416
-0.0244,0.02928,-0.03416,-0.02196,-0.00976,-0.00732,0.05368,0.06344,0.01952,0.00488,-0.01952,-0.0244
-0.01464,0.02196,-0.02928,-0.02196,-0.01464,0,0.05368,0.05856,0.01952,-0.00488,-0.0244,-0.0244
-0.03416,0.01708,0,0.01708,0.03416,-0.03416,0.0488,0.05856,0.01952,0,-0.0244,-0.0244
-0.05368,0.01464,0.0244,0.05124,0.07808,-0.06588,0.04392,0.05856,0.01952,0,-0.0244,-0.0244
-0.02928,0.0244,-0.01952,-0.00488,0.00976,-0.01952,0.0488,0.05368,0.02928,0.00976,-0.00976,-0.00976
-0.01952,0.04148,-0.06344,-0.05368,-0.04392,0.0122,0.05856,0.07808,0.05368,0.02928,0.0244,0.01464
-0.03416,0.05368,-0.0732,-0.05612,-0.03904,0.00244,0.05856,0.07808,0.05856,0.03904,0.0244,0.0244
-0.03416,0.04636,-0.05856,-0.04148,-0.0244,-0.00488,0.05856,0.07808,0.05856,0.03904,0.0244,0.0244
-0.01952,0.03904,-0.05856,-0.0488,-0.03904,0.00976,0.05856,0.08296,0.0732,0.04392,0.01952,0.0244
-0.01952,0.0366,-0.05368,-0.04392,-0.03416,0.00732,0.05368,0.08296,0.08296,0.04392,0.01464,0.0244
-0.0244,0.0366,-0.0488,-0.0366,-0.0244,0,0.05368,0.08784,0.08784,0.05368,0.01952,0.01952
-0.01464,0.02684,-0.03904,-0.03172,-0.0244,0.00488,0.05368,0.08784,0.08784,0.05368,0.02928,0.01952
-0.01464,0.0244,-0.03416,-0.02684,-0.01952,0.00244,0.05368,0.08296,0.07808,0.06344,0.03416,0.02928
-0.01464,0.02928,-0.04392,-0.0366,-0.02928,0.00732,0.0488,0.08784,0.0732,0.07808,0.0488,0.03416
-0.00976,0.00976,-0.00976,-0.00488,0,-0.00488,0.04392,0.08784,0.06832,0.08296,0.05368,0.03416
0,0.00488,-0.00976,-0.00976,-0.00976,0.00488,0.03904,0.08784,0.06832,0.08784,0.06344,0.04392
0,0.00976,-0.01952,-0.01952,-0.01952,0.00976,0.03904,0.0976,0.07808,0.0976,0.06832,0.04392
0.00976,0.01708,-0.04392,-0.0488,-0.05368,0.03172,0.03904,0.10736,0.09272,0.10736,0.07808,0.05368
0.01464,0.00488,-0.0244,-0.03172,-0.03904,0.02684,0.03904,0.11224,0.10248,0.11224,0.08296,0.05368
0.01464,-0.00732,0,-0.00732,-0.01464,0.01464,0.03904,0.122,0.12688,0.13176,0.11224,0.0732
0.01464,-0.01464,0.01464,0.00732,0,0.00732,0.02928,0.122,0.12688,0.13664,0.122,0.08296
0.04392,-0.0244,0.00488,-0.01708,-0.03904,0.04148,0.0244,0.122,0.13176,0.15128,0.14152,0.08784
0.05368,-0.02928,0.00488,-0.02196,-0.0488,0.05124,0.01952,0.13176,0.14152,0.18056,0.1464,0.0976
0.05856,-0.0366,0.01464,-0.01464,-0.04392,0.05124,0.01464,0.13176,0.1464,0.20496,0.16592,0.10736
0.06832,-0.05124,0.03416,0,-0.03416,0.05124,0.01464,0.13664,0.16592,0.20496,0.18056,0.11712
0.07808,-0.061,0.04392,0.00488,-0.03416,0.05612,0.01464,0.13664,0.18056,0.22448,0.1952,0.13176
0.08784,-0.07076,0.05368,0.00976,-0.03416,0.061,0.00976,0.13176,0.18544,0.244,0.21472,0.14152
0.09272,-0.07564,0.05856,0.0122,-0.03416,0.06344,0.00976,0.14152,0.20984,0.25864,0.244,0.16592
0.11712,-0.09272,0.06832,0.00976,-0.0488,0.08296,0.00976,0.15128,0.22936,0.2928,0.2684,0.18056
0.13176,-0.1098,0.08784,0.02196,-0.04392,0.08784,0.00488,0.16592,0.23912,0.30744,0.2928,0.1952
0.14152,-0.11956,0.0976,0.02684,-0.04392,0.09272,-0.00488,0.17568,0.26352,0.3416,0.32696,0.23424
0.15128,-0.13176,0.11224,0.0366,-0.03904,0.09516,-0.00976,0.18056,0.27328,0.37088,0.35624,0.25864
0.1708,-0.1464,0.122,0.0366,-0.0488,0.1098,-0.00976,0.18544,0.29768,0.39528,0.38552,0.27328
0.19032,-0.1586,0.12688,0.03172,-0.06344,0.12688,-0.01952,0.18544,0.3172,0.41968,0.40504,0.27816
0.20008,-0.16592,0.13176,0.03172,-0.06832,0.1342,-0.03416,0.1708,0.31232,0.42944,0.42944,0.29768
0.20984,-0.183,0.15616,0.05124,-0.05368,0.13176,-0.05856,0.16104,0.31232,0.44896,0.45872,0.32208
0.2196,-0.17324,0.12688,0.01708,-0.09272,0.15616,-0.03904,0.19032,0.3416,0.49776,0.49288,0.3416
0.23424,-0.17324,0.11224,-0.00488,-0.122,0.17812,-0.02928,0.21472,0.35624,0.51728,0.50752,0.36112
0.22448,-0.18056,0.13664,0.0244,-0.08784,0.15616,-0.03904,0.20984,0.366,0.52704,0.52704,0.37576
0.2196,-0.20496,0.19032,0.08052,-0.02928,0.12444,-0.05856,0.17568,0.3416,0.50752,0.52704,0.37088
0.22448,-0.2074,0.19032,0.07808,-0.03416,0.12932,-0.05856,0.18544,0.35136,0.51728,0.53192,0.37576
0.22448,-0.20984,0.1952,0.08296,-0.02928,0.12688,-0.06832,0.18056,0.35136,0.51728,0.53192,0.37576
0.22448,-0.20496,0.18544,0.0732,-0.03904,0.13176,-0.06832,0.1708,0.3416,0.5124,0.52216,0.37088
0.21472,-0.18544,0.15616,0.0488,-0.05856,0.13664,-0.06344,0.16592,0.33184,0.488,0.488,0.35136
0.20496,-0.17812,0.15128,0.0488,-0.05368,0.12932,-0.05368,0.1464,0.3172,0.45384,0.45384,0.32208
0.20496,-0.17324,0.14152,0.03904,-0.06344,0.1342,-0.0488,0.13176,0.2928,0.4148,0.41968,0.2928
0.16592,-0.1464,0.12688,0.04392,-0.03904,0.10248,-0.0488,0.12688,0.26352,0.38064,0.38064,0.2684
0.12688,-0.11224,0.0976,0.03416,-0.02928,0.07808,-0.03416,0.12688,0.24888,0.35624,0.35624,0.25376
0.0976,-0.09272,0.08784,0.03904,-0.00976,0.05368,-0.03416,0.10248,0.21472,0.31232,0.31232,0.2196
0.07808,-0.07564,0.0732,0.03416,-0.00488,0.04148,-0.02928,0.07808,0.17568,0.26352,0.2684,0.19032
0.08296,-0.0732,0.06344,0.02196,-0.01952,0.05124,-0.01952,0.09272,0.16104,0.23424,0.23912,0.1708
0.06832,-0.05124,0.03416,0,-0.03416,0.05124,-0.01464,0.0976,0.14152,0.20984,0.20984,0.15128
0.0488,-0.03172,0.01464,-0.00976,-0.03416,0.04148,-0.00488,0.07808,0.122,0.16592,0.16592,0.122
0.03416,-0.01708,0,-0.01708,-0.03416,0.03416,0,0.06344,0.0976,0.13176,0.13664,0.10248
0.01464,-0.02196,0.02928,0.02196,0.01464,0,0,0.04392,0.0732,0.08784,0.08784,0.05856
0.01464,-0.01952,0.0244,0.01708,0.00976,0.00244,0,0.03904,0.05856,0.05856,0.0488,0.02928
0.00488,-0.00244,0,-0.00244,-0.00488,0.00488,0,0.03904,0.04392,0.04392,0.03904,0.0244
0,0,0,0,0,0,0.00976,0.03416,0.02928,0.02928,0.01952,0.00976
-0.01464,0.02196,-0.02928,-0.02196,-0.01464,0,0.00976,0.03416,0.0244,0.02928,0.01952,0.00488
-0.02928,0.01952,-0.00976,0.00488,0.01952,-0.0244,0.00488,0.02928,0.01952,0.0244,0.00976,-0.00976
-0.03904,0.0244,-0.00976,0.00976,0.02928,-0.03416,0.00488,0.02928,0.01464,0.01952,0.00488,-0.00488
-0.04392,0.0366,-0.02928,-0.00732,0.01464,-0.02928,0.01464,0.02928,0.01464,0.01952,0.00488,0
-0.03904,0.04392,-0.0488,-0.02928,-0.00976,-0.01464,0.01952,0.02928,0.00976,0.00488,-0.00976,-0.00976
-0.02928,0.04392,-0.05856,-0.04392,-0.02928,0,0.01464,0.02928,0.00976,-0.00976,-0.0244,-0.01952
-0.02928,0.03904,-0.0488,-0.03416,-0.01952,-0.00488,0.01464,0.01952,0,-0.0244,-0.03416,-0.02928
-0.03416,0.04148,-0.0488,-0.03172,-0.01464,-0.00976,0.0244,0.00976,0.00976,-0.02928,-0.03416,-0.02928
-0.04392,0.05124,-0.05856,-0.0366,-0.01464,-0.01464,0.0244,0.01464,0.00976,-0.03416,-0.03904,-0.0244
-0.04392,0.05612,-0.06832,-0.04636,-0.0244,-0.00976,0.0244,0.01464,0.00488,-0.03904,-0.03904,-0.0244
-0.0488,0.05368,-0.05856,-0.03416,-0.00976,-0.01952,0.0244,0.01464,-0.00488,-0.03904,-0.03904,-0.0244
-0.05368,0.04392,-0.03416,-0.00732,0.01952,-0.0366,0.0244,0.00976,-0.00976,-0.02928,-0.02928,-0.0244
-0.05368,0.04392,-0.03416,-0.00732,0.01952,-0.0366,0.01952,0.00976,-0.01952,-0.02928,-0.03416,-0.0244
-0.05368,0.04392,-0.03416,-0.00732,0.01952,-0.0366,0.01952,0.01464,-0.01952,-0.0244,-0.03904,-0.02928
-0.0488,0.0366,-0.0244,0,0.0244,-0.0366,0.0244,0.01464,-0.01952,-0.01952,-0.04392,-0.02928
-0.0488,0.03172,-0.01464,0.00976,0.03416,-0.04148,0.0244,0.01464,-0.01952,-0.02928,-0.0488,-0.03904
-0.0488,0.05124,-0.05368,-0.02928,-0.00488,-0.02196,0.01952,0.0244,0,-0.02928,-0.05368,-0.03904
-0.04392,0.06588,-0.08784,-0.06588,-0.04392,0,0.01952,0.02928,0.01952,-0.01952,-0.04392,-0.03904
-0.04392,0.0488,-0.05368,-0.03172,-0.00976,-0.01708,0.01464,0.01464,-0.00488,-0.03904,-0.05368,-0.0488
-0.0488,0.03416,-0.01952,0.00488,0.02928,-0.03904,0.00976,0,-0.0244,-0.05856,-0.06832,-0.05368
-0.0488,0.04392,-0.03904,-0.01464,0.00976,-0.02928,0.01464,0,-0.01952,-0.05368,-0.06832,-0.05856
-0.03904,0.0488,-0.05856,-0.03904,-0.01952,-0.00976,0.01464,0.00488,-0.01952,-0.05368,-0.06344,-0.05368
-0.04392,0.03904,-0.03416,-0.0122,0.00976,-0.02684,0.01464,0.00976,-0.01464,-0.05368,-0.06344,-0.0488
-0.04392,0.02928,-0.01464,0.00732,0.02928,-0.0366,0.0244,0.00976,-0.01464,-0.05368,-0.06344,-0.04392
-0.05368,0.03904,-0.0244,0.00244,0.02928,-0.04148,0.01464,0.00976,-0.00976,-0.04392,-0.06344,-0.03416
-0.05368,0.04636,-0.03904,-0.0122,0.01464,-0.03416,0.01464,0.01464,-0.00488,-0.02928,-0.05856,-0.02928
-0.05368,0.05368,-0.05368,-0.02684,0,-0.02684,0.01464,0.01952,0.00976,-0.01952,-0.03904,-0.02928
-0.05368,0.03904,-0.0244,0.00244,0.02928,-0.04148,0.01464,0.01464,0,-0.02928,-0.0488,-0.03904
-0.05368,0.04392,-0.03416,-0.00732,0.01952,-0.0366,0.01952,0.0244,0,-0.03416,-0.05856,-0.03904
-0.05368,0.04636,-0.03904,-0.0122,0.01464,-0.03416,0.0244,0.0244,0.00488,-0.04392,-0.06832,-0.03904
-0.04392,0.04636,-0.0488,-0.02684,-0.00488,-0.01952,0.03416,0.0244,0.01464,-0.04392,-0.06832,-0.03904
-0.03904,0.03904,-0.03904,-0.01952,0,-0.01952,0.0244,0.01952,0.0244,-0.04392,-0.06344,-0.03904
-0.05368,0.04148,-0.02928,-0.00244,0.0244,-0.03904,0.01464,0.01952,0.00488,-0.03904,-0.06344,-0.03904
-0.05368,0.04636,-0.03904,-0.0122,0.01464,-0.03416,0.01464,0.01952,-0.00976,-0.03416,-0.06344,-0.03904
-0.0488,0.04636,-0.04392,-0.01952,0.00488,-0.02684,0.0244,0.02928,0.00976,-0.0244,-0.0488,-0.0244
-0.0488,0.0488,-0.0488,-0.0244,0,-0.0244,0.02928,0.03904,0.02928,-0.01464,-0.03904,-0.01952
-0.04392,0.04392,-0.04392,-0.02196,0,-0.02196,0.0244,0.02928,0.00976,-0.0244,-0.04392,-0.0244
-0.03904,0.0366,-0.03416,-0.01464,0.00488,-0.02196,0.01464,0.00976,-0.01952,-0.04392,-0.05368,-0.03416
-0.03904,0.04148,-0.04392,-0.0244,-0.00488,-0.01708,0.00488,0.00976,-0.02928,-0.04392,-0.05368,-0.03904
-0.03904,0.04636,-0.05368,-0.03416,-0.01464,-0.0122,0.01464,0.01464,-0.02928,-0.04392,-0.0488,-0.03904
-0.05368,0.05368,-0.05368,-0.02684,0,-0.02684,0.0244,0.01464,-0.01952,-0.03904,-0.03904,-0.0244
-0.05368,0.04392,-0.03416,-0.00732,0.01952,-0.0366,0.02928,0.01464,-0.01952,-0.04392,-0.05368,-0.03416
-0.05368,0.04148,-0.02928,-0.00244,0.0244,-0.03904,0.0244,0.01464,-0.01952,-0.05856,-0.05368,-0.03904
-0.0488,0.03904,-0.02928,-0.00488,0.01952,-0.03416,0.0244,0.00976,-0.02928,-0.05856,-0.05368,-0.03904
-0.05368,0.04148,-0.02928,-0.00244,0.0244,-0.03904,0.0244,0.00976,-0.02928,-0.04392,-0.05368,-0.03904
-0.05368,0.04148,-0.02928,-0.00244,0.0244,-0.03904,0.0244,0.00488,-0.0244,-0.03904,-0.05368,-0.03904
-0.05368,0.0366,-0.01952,0.00732,0.03416,-0.04392,0.01952,0.00488,-0.01952,-0.03904,-0.04392,-0.03904
-0.05856,0.04392,-0.02928,0,0.02928,-0.04392,0.01464,0.00488,-0.01464,-0.03904,-0.03904,-0.03904
-0.05856,0.04636,-0.03416,-0.00488,0.0244,-0.04148,0.01464,0.00488,-0.01464,-0.0488,-0.0488,-0.02928
-0.05856,0.0488,-0.03904,-0.00976,0.01952,-0.03904,0.01464,0.00488,-0.01464,-0.0488,-0.0488,-0.0244
-0.05856,0.05368,-0.0488,-0.01952,0.00976,-0.03416,0.0244,0.00488,-0.01464,-0.04392,-0.0488,-0.0244
-0.05856,0.05856,-0.05856,-0.02928,0,-0.02928,0.02928,0.00488,-0.01464,-0.04392,-0.0488,-0.0244
-0.05368,0.03904,-0.0244,0.00244,0.02928,-0.04148,0.0244,0,-0.01952,-0.06832,-0.06832,-0.03904
-0.0488,0.02684,-0.00488,0.01952,0.04392,-0.04636,0.0244,-0.00488,-0.01952,-0.07808,-0.08296,-0.05368
-0.0488,0.0366,-0.0244,0,0.0244,-0.0366,0.01952,-0.00488,-0.0244,-0.06344,-0.08296,-0.05368
-0.0488,0.04636,-0.04392,-0.01952,0.00488,-0.02684,0.01464,-0.01464,-0.0244,-0.06344,-0.08296,-0.05368
-0.05856,0.0488,-0.03904,-0.00976,0.01952,-0.03904,0.01464,-0.01464,-0.0244,-0.06344,-0.07808,-0.0488
-0.05856,0.0488,-0.03904,-0.00976,0.01952,-0.03904,0.01464,-0.00488,-0.0244,-0.06832,-0.06832,-0.04392
-0.05856,0.05124,-0.04392,-0.01464,0.01464,-0.0366,0.01464,-0.00488,-0.02928,-0.06832,-0.05856,-0.04392
-0.05368,0.03904,-0.0244,0.00244,0.02928,-0.04148,0.01464,-0.00976,-0.03904,-0.0732,-0.06832,-0.0488
-0.05856,0.04148,-0.0244,0.00488,0.03416,-0.04636,0.01464,-0.00488,-0.04392,-0.07808,-0.0732,-0.05368
-0.06344,0.04636,-0.02928,0.00244,0.03416,-0.0488,0.01464,0,-0.04392,-0.08296,-0.0732,-0.05368
-0.06344,0.07564,-0.08784,-0.05612,-0.0244,-0.01952,0.02928,0.00488,-0.02928,-0.05856,-0.0488,-0.02928
-0.06344,0.10492,-0.1464,-0.11468,-0.08296,0.00976,0.03904,0.02928,-0.01464,-0.0244,-0.0244,-0.00488
-0.0488,0.07076,-0.09272,-0.06832,-0.04392,-0.00244,0.01464,0.01464,-0.0244,-0.04392,-0.04392,-0.02928
-0.05856,0.02928,0,0.02928,0.05856,-0.05856,-0.00488,0,-0.03416,-0.06344,-0.06832,-0.0488
-0.05856,0.03416,-0.00976,0.01952,0.0488,-0.05368,0.00488,-0.00488,-0.03904,-0.06832,-0.06832,-0.05368
-0.05856,0.03904,-0.01952,0.00976,0.03904,-0.0488,0,-0.01464,-0.0488,-0.07808,-0.0732,-0.05856
-0.06344,0.03172,0,0.03172,0.06344,-0.06344,0,-0.01464,-0.0488,-0.07808,-0.0732,-0.05856
-0.0732,0.05124,-0.02928,0.00732,0.04392,-0.05856,0.00488,-0.00976,-0.04392,-0.06832,-0.06832,-0.05368
-0.06344,0.05368,-0.04392,-0.0122,0.01952,-0.04148,0.00976,-0.00488,-0.04392,-0.05856,-0.06344,-0.03904
-0.06344,0.05612,-0.0488,-0.01708,0.01464,-0.03904,0.00976,-0.00488,-0.04392,-0.05368,-0.06344,-0.03904
-0.05856,0.04636,-0.03416,-0.00488,0.0244,-0.04148,0.00976,-0.00976,-0.03416,-0.05856,-0.06832,-0.03904
-0.05856,0.05124,-0.04392,-0.01464,0.01464,-0.0366,0.00976,-0.00976,-0.0244,-0.06344,-0.06832,-0.0488
-0.05856,0.05856,-0.05856,-0.02928,0,-0.02928,0.0244,-0.00976,-0.02928,-0.06832,-0.06832,-0.05856
-0.05368,0.04636,-0.03904,-0.0122,0.01464,-0.03416,0.01464,-0.01464,-0.03904,-0.0732,-0.0732,-0.06344
-0.05368,0.0366,-0.01952,0.00732,0.03416,-0.04392,0.01464,-0.01952,-0.04392,-0.06832,-0.0732,-0.05368
-0.05856,0.03416,-0.00976,0.01952,0.0488,-0.05368,0.01464,-0.01952,-0.04392,-0.06832,-0.0732,-0.04392
-0.05856,0.03904,-0.01952,0.00976,0.03904,-0.0488,0.01464,-0.01464,-0.03904,-0.0732,-0.06832,-0.04392
-0.05856,0.04392,-0.02928,0,0.02928,-0.04392,0.01464,-0.00976,-0.03416,-0.0732,-0.06344,-0.03904
-0.05856,0.04636,-0.03416,-0.00488,0.0244,-0.04148,0.01464,-0.00488,-0.03416,-0.0732,-0.06344,-0.03904
-0.05856,0.05124,-0.04392,-0.01464,0.01464,-0.0366,0.01464,-0.00488,-0.03416,-0.0732,-0.06832,-0.0488
-0.05368,0.0488,-0.04392,-0.01708,0.00976,-0.03172,0.00976,-0.00488,-0.04392,-0.0732,-0.0732,-0.05368
-0.05368,0.04636,-0.03904,-0.0122,0.01464,-0.03416,0.00976,-0.00976,-0.04392,-0.0732,-0.0732,-0.05368
-0.05368,0.03416,-0.01464,0.0122,0.03904,-0.04636,0.01464,-0.00976,-0.03904,-0.06832,-0.06832,-0.0488
-0.05368,0.0366,-0.01952,0.00732,0.03416,-0.04392,0.01464,-0.00976,-0.02928,-0.06344,-0.06832,-0.0488
-0.05368,0.0488,-0.04392,-0.01708,0.00976,-0.03172,0.01464,-0.01464,-0.02928,-0.06344,-0.06832,-0.0488
-0.05368,0.0488,-0.04392,-0.01708,0.00976,-0.03172,0.00976,-0.01464,-0.03904,-0.06344,-0.06832,-0.0488
-0.05856,0.05368,-0.0488,-0.01952,0.00976,-0.03416,0.00976,0,-0.03904,-0.06344,-0.06344,-0.03904
-0.06832,0.05368,-0.03904,-0.00488,0.02928,-0.0488,0.00976,0,-0.03904,-0.06344,-0.06344,-0.03904
-0.06832,0.05368,-0.03904,-0.00488,0.02928,-0.0488,0.00976,-0.00976,-0.0488,-0.06832,-0.06344,-0.04392
-0.06344,0.04392,-0.0244,0.00732,0.03904,-0.05124,0.00976,-0.00976,-0.05368,-0.0732,-0.06832,-0.04392
-0.05368,0.03904,-0.0244,0.00244,0.02928,-0.04148,0.00976,-0.01464,-0.05368,-0.07808,-0.0732,-0.0488
-0.04392,0.03416,-0.0244,-0.00244,0.01952,-0.03172,0.00976,-0.01952,-0.05368,-0.07808,-0.07808,-0.05368
-0.05368,0.04636,-0.03904,-0.0122,0.01464,-0.03416,0.01952,-0.00976,-0.03904,-0.06344,-0.06832,-0.04392
-0.06344,0.05856,-0.05368,-0.02196,0.00976,-0.0366,0.03416,-0.00488,-0.0244,-0.05368,-0.05856,-0.03416
-0.05368,0.05368,-0.05368,-0.02684,0,-0.02684,0.01952,-0.00488,-0.02928,-0.05856,-0.05856,-0.03416
-0.0488,0.05368,-0.05856,-0.03416,-0.00976,-0.01952,0.00976,-0.00976,-0.03904,-0.06832,-0.05856,-0.03904
-0.05368,0.04636,-0.03904,-0.0122,0.01464,-0.03416,0.00976,-0.00976,-0.03904,-0.06832,-0.06344,-0.04392
-0.05856,0.03904,-0.01952,0.00976,0.03904,-0.0488,0.00976,-0.00976,-0.03904,-0.06832,-0.06832,-0.0488
-0.05856,0.03904,-0.01952,0.00976,0.03904,-0.0488,0.00976,-0.01952,-0.04392,-0.0732,-0.06832,-0.0488
-0.05856,0.03904,-0.01952,0.00976,0.03904,-0.0488,0.00976,-0.02928,-0.0488,-0.07808,-0.06832,-0.0488
-0.05368,0.0366,-0.01952,0.00732,0.03416,-0.04392,0.00976,-0.02928,-0.0488,-0.08296,-0.0732,-0.05368
-0.0488,0.03416,-0.01952,0.00488,0.02928,-0.03904,0.00976,-0.02928,-0.0488,-0.08784,-0.07808,-0.05856
-0.0488,0.03416,-0.01952,0.00488,0.02928,-0.03904,0.00976,-0.02928,-0.0488,-0.08784,-0.07808,-0.05856
-0.0488,0.03416,-0.01952,0.00488,0.02928,-0.03904,0.00976,-0.02928,-0.0488,-0.08784,-0.07808,-0.05856
-0.05368,0.04148,-0.02928,-0.00244,0.0244,-0.03904,0.01464,-0.01464,-0.03904,-0.0732,-0.06832,-0.0488
-0.05856,0.0488,-0.03904,-0.00976,0.01952,-0.03904,0.01952,0,-0.02928,-0.05856,-0.05856,-0.03904
-0.05856,0.05368,-0.0488,-0.01952,0.00976,-0.03416,0.01952,0,-0.02928,-0.05856,-0.05856,-0.03904
-0.05856,0.05856,-0.05856,-0.02928,0,-0.02928,0.01952,0,-0.02928,-0.05856,-0.05856,-0.03904
-0.05856,0.0488,-0.03904,-0.00976,0.01952,-0.03904,0.01464,-0.00488,-0.03904,-0.05856,-0.06344,-0.04392
-0.05856,0.03904,-0.01952,0.00976,0.03904,-0.0488,0.00976,-0.00976,-0.0488,-0.05856,-0.06832,-0.0488
-0.05856,0.0366,-0.01464,0.01464,0.04392,-0.05124,0.00488,-0.00976,-0.0488,-0.05856,-0.0732,-0.0488
-0.05856,0.03416,-0.00976,0.01952,0.0488,-0.05368,0,-0.00976,-0.0488,-0.05856,-0.07808,-0.0488
-0.05856,0.03416,-0.00976,0.01952,0.0488,-0.05368,0,-0.01952,-0.0488,-0.06344,-0.08296,-0.05856
-0.05856,0.03416,-0.00976,0.01952,0.0488,-0.05368,0,-0.02928,-0.0488,-0.06832,-0.08784,-0.06832
-0.0488,0.0366,-0.0244,0,0.0244,-0.0366,0.00976,-0.01952,-0.03904,-0.06832,-0.08784,-0.06832
-0.03904,0.03904,-0.03904,-0.01952,0,-0.01952,0.01952,-0.00976,-0.02928,-0.06832,-0.08784,-0.06832
-0.05856,0.06344,-0.06832,-0.03904,-0.00976,-0.0244,0.02928,-0.00976,-0.01952,-0.05368,-0.06344,-0.03416
-0.07808,0.08784,-0.0976,-0.05856,-0.01952,-0.02928,0.03904,-0.00976,-0.00976,-0.03904,-0.03904,0
-0.06344,0.04636,-0.02928,0.00244,0.03416,-0.0488,0.01952,-0.01464,-0.02928,-0.05368,-0.05368,-0.01952
-0.0488,0.00488,0.03904,0.06344,0.08784,-0.06832,0,-0.01952,-0.0488,-0.06832,-0.06832,-0.03904
-0.0488,0.01708,0.01464,0.03904,0.06344,-0.05612,0,-0.01952,-0.0488,-0.06832,-0.06832,-0.04392
-0.0488,0.02928,-0.00976,0.01464,0.03904,-0.04392,0,-0.01952,-0.0488,-0.06832,-0.06832,-0.0488
-0.05368,0.03172,-0.00976,0.01708,0.04392,-0.0488,0,-0.01464,-0.04392,-0.06832,-0.06832,-0.0488
-0.05856,0.03416,-0.00976,0.01952,0.0488,-0.05368,0,-0.00976,-0.03904,-0.06832,-0.06832,-0.0488
-0.05856,0.04148,-0.0244,0.00488,0.03416,-0.04636,0,-0.00976,-0.03904,-0.06832,-0.06832,-0.0488
-0.05856,0.0488,-0.03904,-0.00976,0.01952,-0.03904,0,-0.00976,-0.03904,-0.06832,-0.06832,-0.0488
-0.0488,0.03904,-0.02928,-0.00488,0.01952,-0.03416,0,-0.00976,-0.03904,-0.07808,-0.07808,-0.0488
-0.03904,0.02928,-0.01952,0,0.01952,-0.02928,0,-0.00976,-0.03904,-0.08784,-0.08784,-0.0488
-0.0244,0.02196,-0.01952,-0.00732,0.00488,-0.01464,0.00488,-0.00976,-0.03904,-0.08784,-0.08784,-0.05856
-0.00976,0.01464,-0.01952,-0.01464,-0.00976,0,0.00976,-0.00976,-0.03904,-0.08784,-0.08784,-0.06832
-0.03904,0.02196,-0.00488,0.01464,0.03416,-0.0366,0.01464,-0.00488,-0.03904,-0.06344,-0.06832,-0.0488
-0.06832,0.02928,0.00976,0.04392,0.07808,-0.0732,0.01952,0,-0.03904,-0.03904,-0.0488,-0.02928
-0.04392,0.02928,-0.01464,0.00732,0.02928,-0.0366,0.01952,0.00976,-0.0244,-0.03416,-0.0488,-0.02928
-0.01952,0.02928,-0.03904,-0.02928,-0.01952,0,0.01952,0.01952,-0.00976,-0.02928,-0.0488,-0.02928
-0.01952,0.0244,-0.02928,-0.01952,-0.00976,-0.00488,0.01952,0.02928,0,-0.02928,-0.0488,-0.02928
-0.01952,0.01952,-0.01952,-0.00976,0,-0.00976,0.01952,0.03904,0.00976,-0.02928,-0.0488,-0.02928
-0.01952,0.00732,0.00488,0.01464,0.0244,-0.02196,0.02928,0.04392,0.0244,-0.01464,-0.02928,-0.01952
-0.01952,-0.00488,0.02928,0.03904,0.0488,-0.03416,0.03904,0.0488,0.03904,0,-0.00976,-0.00976
-0.00488,-0.00732,0.01952,0.02196,0.0244,-0.01464,0.04392,0.05368,0.04392,0.00976,-0.00976,-0.00976
0.00976,-0.00976,0.00976,0.00488,0,0.00488,0.0488,0.05856,0.0488,0.01952,-0.00976,-0.00976
0.00976,-0.00244,-0.00488,-0.00976,-0.01464,0.0122,0.0488,0.0732,0.0488,0.01952,0,0
0.01952,-0.00732,-0.00488,-0.01464,-0.0244,0.02196,0.03904,0.07808,0.05368,0.0244,0.00976,0.00976
0.02928,-0.0122,-0.00488,-0.01952,-0.03416,0.03172,0.03416,0.08784,0.06344,0.02928,0.01952,0.01952
0.0488,-0.03416,0.01952,-0.00488,-0.02928,0.03904,0.01464,0.0732,0.06832,0.03416,0.01952,0.0244
0.02928,-0.0244,0.01952,0.00488,-0.00976,0.01952,-0.00976,0.05856,0.0488,0.01952,0.01464,0.01952
0.01464,-0.01464,0.01464,0.00732,0,0.00732,-0.04392,0.00976,-0.01464,-0.0244,-0.0244,-0.00488
0.00976,-0.00732,0.00488,0,-0.00488,0.00732,-0.04392,-0.02928,-0.04392,-0.03904,-0.03416,0
0.00976,-0.00488,0,-0.00488,-0.00976,0.00976,-0.0244,-0.02928,-0.04392,-0.03904,-0.03416,0.00976
0.00976,0.00976,-0.02928,-0.03416,-0.03904,0.0244,-0.00976,-0.01952,-0.04392,-0.03904,-0.03904,0
0.00488,0.02684,-0.05856,-0.061,-0.06344,0.03416,-0.01952,-0.01952,-0.0488,-0.05856,-0.05368,-0.0244
0,0.0366,-0.0732,-0.0732,-0.0732,0.0366,-0.01952,-0.03416,-0.06832,-0.07808,-0.06344,-0.02928
-0.00488,0.03904,-0.0732,-0.07076,-0.06832,0.03172,-0.01952,-0.0488,-0.07808,-0.08784,-0.07808,-0.0488
0,0.02684,-0.05368,-0.05368,-0.05368,0.02684,-0.03416,-0.0488,-0.08784,-0.08784,-0.07808,-0.0488
0,0.02196,-0.04392,-0.04392,-0.04392,0.02196,-0.03416,-0.0488,-0.0976,-0.08784,-0.07808,-0.0488
-0.01952,0.03172,-0.04392,-0.03416,-0.0244,0.00244,-0.01952,-0.04392,-0.08784,-0.09272,-0.07808,-0.05856
-0.04392,0.03172,-0.01952,0.00244,0.0244,-0.03416,-0.00976,-0.03904,-0.07808,-0.09272,-0.0976,-0.06832
-0.05856,0.03172,-0.00488,0.0244,0.05368,-0.05612,-0.00976,-0.03904,-0.07808,-0.10736,-0.10736,-0.08296
-0.05856,0.03416,-0.00976,0.01952,0.0488,-0.05368,-0.00488,-0.03904,-0.08296,-0.10736,-0.10736,-0.08296
-0.05856,0.04636,-0.03416,-0.00488,0.0244,-0.04148,0,-0.03904,-0.07808,-0.10248,-0.10248,-0.0732
-0.06344,0.06588,-0.06832,-0.0366,-0.00488,-0.02928,0,-0.03416,-0.0732,-0.09272,-0.09272,-0.06832
-0.06344,0.06588,-0.06832,-0.0366,-0.00488,-0.02928,0,-0.02928,-0.0732,-0.08784,-0.09272,-0.06344
-0.06344,0.061,-0.05856,-0.02684,0.00488,-0.03416,0,-0.02928,-0.0732,-0.08784,-0.09272,-0.06344
-0.06344,0.05856,-0.05368,-0.02196,0.00976,-0.0366,-0.00488,-0.02928,-0.0732,-0.09272,-0.09272,-0.06344
-0.06344,0.05856,-0.05368,-0.02196,0.00976,-0.0366,-0.00488,-0.02928,-0.0732,-0.0976,-0.0976,-0.06832
-0.06344,0.05612,-0.0488,-0.01708,0.01464,-0.03904,0,-0.02928,-0.0732,-0.11224,-0.11224,-0.08784
-0.05856,0.05612,-0.05368,-0.0244,0.00488,-0.03172,0.00976,-0.01952,-0.05856,-0.122,-0.12688,-0.10248
-0.0488,0.05124,-0.05368,-0.02928,-0.00488,-0.02196,0.01464,-0.01952,-0.05856,-0.122,-0.12688,-0.09272
-0.04392,0.04392,-0.04392,-0.02196,0,-0.02196,0.01464,-0.03416,-0.06832,-0.13176,-0.13176,-0.08296
-0.06832,0.05368,-0.03904,-0.00488,0.02928,-0.0488,0.01464,-0.03416,-0.07808,-0.122,-0.11224,-0.06344
-0.09272,0.06344,-0.03416,0.0122,0.05856,-0.07564,0.01464,-0.03416,-0.08296,-0.10736,-0.08296,-0.04392
-0.08296,0.05856,-0.03416,0.00732,0.0488,-0.06588,0.00976,-0.03416,-0.07808,-0.0976,-0.08296,-0.04392
-0.0732,0.05856,-0.04392,-0.00732,0.02928,-0.05124,0.00976,-0.01952,-0.06832,-0.08296,-0.07808,-0.03904
-0.06344,0.05368,-0.04392,-0.0122,0.01952,-0.04148,0.00976,-0.01464,-0.06344,-0.08296,-0.07808,-0.03416
-0.06344,0.05368,-0.04392,-0.0122,0.01952,-0.04148,0.00976,-0.01464,-0.06344,-0.08296,-0.08296,-0.03904
-0.06344,0.05124,-0.03904,-0.00732,0.0244,-0.04392,0.00976,-0.01952,-0.06344,-0.0732,-0.0732,-0.04392
-0.05856,0.05124,-0.04392,-0.01464,0.01464,-0.0366,0.00976,-0.01952,-0.05856,-0.0732,-0.0732,-0.04392
-0.05856,0.05856,-0.05856,-0.02928,0,-0.02928,0.01464,-0.01464,-0.04392,-0.06832,-0.0732,-0.04392
-0.05368,0.06832,-0.08296,-0.05612,-0.02928,-0.0122,0.01952,-0.00976,-0.0244,-0.06344,-0.0732,-0.04392
-0.05368,0.05124,-0.0488,-0.02196,0.00488,-0.02928,0.01952,-0.00976,-0.02928,-0.08296,-0.08784,-0.05368
-0.06344,0.04636,-0.02928,0.00244,0.03416,-0.0488,0.01952,-0.00976,-0.02928,-0.08784,-0.08784,-0.05368
-0.06344,0.01464,0.03416,0.06588,0.0976,-0.08052,0.01952,-0.0244,-0.03416,-0.08784,-0.08784,-0.0732
-0.05368,0,0.05368,0.08052,0.10736,-0.08052,0.03416,-0.00976,-0.01464,-0.0488,-0.0488,-0.06832
-0.01464,-0.00732,0.02928,0.0366,0.04392,-0.02928,0.03904,0.03416,0.0732,0.11224,0.12688,0.04392
0.0488,-0.02928,0.00976,-0.01464,-0.03904,0.04392,0.05856,0.12688,0.2196,0.35136,0.39528,0.20008
0.18544,-0.10248,0.01952,-0.0732,-0.16592,0.17568,0.07808,0.26352,0.45384,0.67832,0.71736,0.38064
0.35136,-0.20008,0.0488,-0.12688,-0.30256,0.32696,0.02928,0.3172,0.63928,1.01016,1.10288,0.6344
0.52704,-0.30744,0.08784,-0.17568,-0.4392,0.48312,-0.122,0.16592,0.58072,1.12728,1.35664,0.854
0.60024,-0.3782,0.15616,-0.14396,-0.44408,0.52216,-0.28304,-0.12688,0.2928,0.91256,1.21512,0.8784
0.50264,-0.31964,0.13664,-0.11468,-0.366,0.43432,-0.44896,-0.5368,-0.16592,0.38552,0.64416,0.59536
0.28304,-0.13176,-0.01952,-0.16104,-0.30256,0.2928,-0.52704,-0.91744,-0.7076,-0.28304,-0.10736,0.11712
0.0732,0.01708,-0.10736,-0.14396,-0.18056,0.12688,-0.55632,-1.13704,-1.08336,-0.7564,-0.57096,-0.1708
-0.04392,0.0976,-0.15128,-0.12932,-0.10736,0.03172,-0.5368,-1.15168,-1.22976,-1.0004,-0.79056,-0.30744
-0.09272,0.1464,-0.20008,-0.15372,-0.10736,0.00732,-0.49288,-1.03944,-1.18584,-1.06872,-0.854,-0.38552
-0.07808,0.13176,-0.18544,-0.1464,-0.10736,0.01464,-0.40016,-0.81008,-0.97112,-0.94184,-0.7564,-0.366
-0.06344,0.12444,-0.18544,-0.15372,-0.122,0.02928,-0.28304,-0.5368,-0.71248,-0.70272,-0.5856,-0.29768
-0.0732,0.11468,-0.15616,-0.11956,-0.08296,0.00488,-0.16592,-0.33184,-0.5124,-0.49288,-0.4148,-0.2196
-0.06344,0.0732,-0.08296,-0.05124,-0.01952,-0.02196,-0.122,-0.22936,-0.34648,-0.33672,-0.27816,-0.13664
-0.0488,0.04392,-0.03904,-0.01464,0.00976,-0.02928,-0.07808,-0.14152,-0.2196,-0.21472,-0.18056,-0.08784
-0.03416,0.01708,0,0.01708,0.03416,-0.03416,-0.04392,-0.08784,-0.1464,-0.1464,-0.12688,-0.0732
-0.0488,0.0244,0,0.0244,0.0488,-0.0488,-0.00976,-0.03904,-0.09272,-0.09272,-0.08784,-0.0488
-0.0488,0.04148,-0.03416,-0.00976,0.01464,-0.03172,0.01952,-0.00976,-0.0488,-0.06832,-0.06832,-0.03416
-0.0488,0.04636,-0.04392,-0.01952,0.00488,-0.02684,0.02928,0.00488,-0.02928,-0.05368,-0.06832,-0.02928
-0.04392,0.03904,-0.03416,-0.0122,0.00976,-0.02684,0.02928,0.01464,-0.01952,-0.0488,-0.05856,-0.03416
-0.03904,0.02684,-0.01464,0.00488,0.0244,-0.03172,0.03416,0.02928,-0.01464,-0.04392,-0.05368,-0.03904
-0.04392,0.02928,-0.01464,0.00732,0.02928,-0.0366,0.03904,0.03416,-0.00488,-0.03904,-0.05368,-0.03904
-0.04392,0.02684,-0.00976,0.0122,0.03416,-0.03904,0.04392,0.03904,0.00488,-0.03416,-0.04392,-0.02928
-0.04392,0.02684,-0.00976,0.0122,0.03416,-0.03904,0.04392,0.03416,0.00976,-0.03904,-0.0488,-0.02928
-0.04392,0.02684,-0.00976,0.0122,0.03416,-0.03904,0.04392,0.02928,0.00976,-0.03904,-0.0488,-0.02928
-0.0488,0.02196,0.00488,0.02928,0.05368,-0.05124,0.04392,0.03904,0.00976,-0.03904,-0.0488,-0.02928
-0.05368,0.01952,0.01464,0.04148,0.06832,-0.061,0.03904,0.0488,0.00976,-0.03416,-0.04392,-0.02928
-0.04392,0.0244,-0.00488,0.01708,0.03904,-0.04148,0.04392,0.05368,0.02928,-0.0244,-0.03904,-0.02928
-0.04392,0.03172,-0.01952,0.00244,0.0244,-0.03416,0.05368,0.06344,0.03416,-0.01952,-0.03904,-0.02928
-0.0488,0.03904,-0.02928,-0.00488,0.01952,-0.03416,0.05856,0.06832,0.03904,-0.01952,-0.03904,-0.02928
-0.0488,0.02928,-0.00976,0.01464,0.03904,-0.04392,0.05856,0.06832,0.03904,-0.01952,-0.03904,-0.02928
-0.0488,0.04392,-0.03904,-0.01464,0.00976,-0.02928,0.05856,0.06344,0.04392,-0.00488,-0.01952,-0.0244
-0.0488,0.05612,-0.06344,-0.03904,-0.01464,-0.01708,0.06832,0.0732,0.04392,0.01952,0.00976,-0.01464
-0.04392,0.03416,-0.0244,-0.00244,0.01952,-0.03172,0.0488,0.05856,0.03416,0.00976,-0.00976,-0.01464
-0.03416,0.00488,0.0244,0.04148,0.05856,-0.04636,0.04392,0.05856,0.02928,0,-0.01952,-0.0244
-0.02928,0.00976,0.00976,0.0244,0.03904,-0.03416,0.05368,0.06832,0.03416,0.00488,-0.01464,-0.01464
-0.0244,0.00732,0.00976,0.02196,0.03416,-0.02928,0.05368,0.06832,0.03904,0.00488,-0.01464,-0.01464
-0.0244,0.00488,0.01464,0.02684,0.03904,-0.03172,0.0488,0.06832,0.03416,0.00976,-0.01464,-0.01464
-0.0244,0.00488,0.01464,0.02684,0.03904,-0.03172,0.04392,0.06832,0.02928,0.00976,-0.01464,-0.01464
-0.01464,0,0.01464,0.02196,0.02928,-0.02196,0.04392,0.05856,0.02928,0.00976,-0.01464,-0.01464
-0.01952,0.00244,0.01464,0.0244,0.03416,-0.02684,0.0488,0.07808,0.04392,0.01952,0.00488,-0.00488
-0.03416,0.02196,-0.00976,0.00732,0.0244,-0.02928,0.0488,0.07808,0.0488,0.02928,0.01464,0.00488
-0.03416,0.02196,-0.00976,0.00732,0.0244,-0.02928,0.0488,0.07808,0.0488,0.02928,0.0244,0.00488
-0.01952,0,0.01952,0.02928,0.03904,-0.02928,0.0488,0.0732,0.04392,0.0244,0.00976,0.00488
-0.01952,-0.01708,0.05368,0.06344,0.0732,-0.04636,0.04392,0.06344,0.03416,0.01464,-0.00488,0.00488
-0.01952,0.00488,0.00976,0.01952,0.02928,-0.0244,0.04392,0.07808,0.05856,0.03904,0.01464,0.01464
-0.00488,0.01708,-0.02928,-0.02684,-0.0244,0.00976,0.04392,0.08784,0.07808,0.05368,0.03904,0.02928
-0.00488,0.00244,0,0.00244,0.00488,-0.00488,0.04392,0.08784,0.07808,0.05368,0.03416,0.02928
-0.00488,-0.00488,0.01464,0.01708,0.01952,-0.0122,0.03904,0.0976,0.08296,0.05856,0.03904,0.0244
-0.00488,-0.01464,0.03416,0.0366,0.03904,-0.02196,0.04392,0.0976,0.08784,0.06344,0.04392,0.0244
0,-0.00976,0.01952,0.01952,0.01952,-0.00976,0.0488,0.0976,0.0976,0.06832,0.05368,0.03416
0,-0.01708,0.03416,0.03416,0.03416,-0.01708,0.0488,0.10248,0.10736,0.07808,0.05856,0.03416
0.00976,-0.02196,0.03416,0.02928,0.0244,-0.00732,0.0488,0.10736,0.122,0.08784,0.06832,0.04392
0.01952,-0.02684,0.03416,0.0244,0.01464,0.00244,0.0488,0.11224,0.12688,0.0976,0.0732,0.03904
0.0244,-0.03172,0.03904,0.02684,0.01464,0.00488,0.0488,0.122,0.1464,0.122,0.10248,0.05368
0.0244,-0.0488,0.0732,0.061,0.0488,-0.0122,0.03904,0.122,0.1464,0.13176,0.10736,0.05368
0.05368,-0.06832,0.08296,0.05612,0.02928,0.0122,0.03416,0.122,0.15128,0.15128,0.122,0.0488
0.06344,-0.05856,0.05368,0.02196,-0.00976,0.0366,0.02928,0.13664,0.16104,0.1708,0.12688,0.06832
0.06832,-0.05124,0.03416,0,-0.03416,0.05124,0.0244,0.14152,0.16592,0.18544,0.1464,0.08784
0.06832,-0.06832,0.06832,0.03416,0,0.03416,0.0244,0.15128,0.18056,0.20008,0.1708,0.10736
0.06832,-0.08052,0.09272,0.05856,0.0244,0.02196,0.0244,0.15616,0.19032,0.23424,0.1952,0.13176
0.0732,-0.0854,0.0976,0.061,0.0244,0.0244,0.01952,0.15616,0.20008,0.25864,0.22448,0.1464
0.0732,-0.0854,0.0976,0.061,0.0244,0.0244,0.01952,0.1708,0.22936,0.27816,0.26352,0.17568
0.0976,-0.10248,0.10736,0.05856,0.00976,0.04392,0.01464,0.17568,0.244,0.30744,0.27816,0.19032
0.11224,-0.11956,0.12688,0.07076,0.01464,0.0488,0.00488,0.18544,0.24888,0.3172,0.2928,0.20496
0.13176,-0.1342,0.13664,0.07076,0.00488,0.06344,-0.00488,0.19032,0.27328,0.34648,0.32208,0.22448
0.15128,-0.15128,0.15128,0.07564,0,0.07564,-0.00976,0.19032,0.28304,0.37088,0.34648,0.22936
0.1708,-0.1586,0.1464,0.061,-0.0244,0.0976,-0.00488,0.1952,0.3172,0.39528,0.366,0.24888
0.19032,-0.16348,0.13664,0.04148,-0.05368,0.122,-0.00976,0.1952,0.34648,0.41968,0.37576,0.25864
0.1952,-0.17324,0.15128,0.05368,-0.04392,0.11956,-0.00976,0.1952,0.35624,0.42944,0.40016,0.27816
0.20008,-0.19276,0.18544,0.0854,-0.01464,0.10736,-0.01952,0.20008,0.37088,0.44896,0.42944,0.30256
0.20496,-0.20008,0.1952,0.09272,-0.00976,0.10736,-0.0244,0.1952,0.37088,0.49288,0.47336,0.32208
0.21472,-0.21716,0.2196,0.11224,0.00488,0.10492,-0.03904,0.18544,0.35624,0.50752,0.49776,0.3416
0.2196,-0.21228,0.20496,0.09516,-0.01464,0.11712,-0.03904,0.21472,0.3904,0.54168,0.52216,0.366
0.22936,-0.22448,0.2196,0.10492,-0.00976,0.11956,-0.0488,0.21472,0.3904,0.54656,0.52704,0.37088
0.23912,-0.22692,0.21472,0.09516,-0.0244,0.13176,-0.0488,0.21472,0.40016,0.54656,0.53192,0.37576
0.244,-0.22936,0.21472,0.09272,-0.02928,0.13664,-0.05856,0.20008,0.40016,0.5368,0.53192,0.37576
0.244,-0.22936,0.21472,0.09272,-0.02928,0.13664,-0.05856,0.18544,0.3904,0.52704,0.52216,0.37576
0.23424,-0.21472,0.1952,0.07808,-0.03904,0.13664,-0.05368,0.17568,0.38064,0.49776,0.488,0.36112
0.21472,-0.20252,0.19032,0.08296,-0.0244,0.11956,-0.0488,0.15616,0.35136,0.4636,0.45872,0.33184
0.20496,-0.19276,0.18056,0.07808,-0.0244,0.11468,-0.0488,0.14152,0.31232,0.42456,0.42944,0.30256
0.18056,-0.17324,0.16592,0.07564,-0.01464,0.0976,-0.0488,0.13664,0.28304,0.3904,0.39528,0.27816
0.15616,-0.1464,0.13664,0.05856,-0.01952,0.08784,-0.03416,0.13664,0.2684,0.366,0.37576,0.26352
0.12688,-0.1342,0.14152,0.07808,0.01464,0.05612,-0.03416,0.11224,0.23424,0.32208,0.33184,0.22936
0.10736,-0.12444,0.14152,0.08784,0.03416,0.0366,-0.02928,0.08784,0.1952,0.27328,0.28792,0.20008
0.10248,-0.12688,0.15128,0.10004,0.0488,0.02684,-0.02928,0.0732,0.17568,0.23424,0.244,0.1708
0.07808,-0.1098,0.14152,0.10248,0.06344,0.00732,-0.03416,0.0488,0.15128,0.20008,0.20008,0.14152
0.06832,-0.07076,0.0732,0.03904,0.00488,0.03172,-0.00976,0.05856,0.13664,0.16104,0.15616,0.11224
0.06344,-0.0366,0.00976,-0.02196,-0.05368,0.05856,0.00976,0.0732,0.11712,0.13176,0.12688,0.09272
0.02928,-0.04392,0.05856,0.04392,0.02928,0,0.00976,0.04392,0.09272,0.09272,0.08784,0.05856
0.01464,-0.04392,0.0732,0.06588,0.05856,-0.02196,0.00976,0.02928,0.07808,0.06832,0.05856,0.03904
0.00488,-0.02196,0.03904,0.0366,0.03416,-0.01464,0.00488,0.02928,0.05368,0.05368,0.05368,0.03904
0,-0.01464,0.02928,0.02928,0.02928,-0.01464,0.00976,0.0244,0.02928,0.03904,0.03904,0.02928
-0.00976,0.00976,-0.00976,-0.00488,0,-0.00488,0.00976,0.03416,0.02928,0.02928,0.02928,0.01952
-0.01952,0.00976,0,0.00976,0.01952,-0.01952,0.00488,0.03904,0.02928,0.01464,0.00976,0
-0.02928,0.00488,0.01952,0.03416,0.0488,-0.03904,0.00488,0.02928,0.0244,0.00976,0,0
-0.03416,0.00732,0.01952,0.0366,0.05368,-0.04392,0.01464,0.01952,0.0244,0.00976,-0.00488,0
-0.02928,0.0122,0.00488,0.01952,0.03416,-0.03172,0.01464,0.00976,0.00976,-0.00488,-0.01952,-0.01952
-0.01952,0.00976,0,0.00976,0.01952,-0.01952,0.00488,0,0,-0.01952,-0.03416,-0.03904
-0.00976,0.00488,0,0.00488,0.00976,-0.00976,0.00488,0,-0.00976,-0.03904,-0.04392,-0.0488
-0.00488,0.00732,-0.00976,-0.00732,-0.00488,0,0.01464,0,0,-0.0488,-0.04392,-0.0488
-0.01464,0.01708,-0.01952,-0.0122,-0.00488,-0.00488,0.0244,0.00488,0,-0.05368,-0.04392,-0.03904
-0.01464,0.02196,-0.02928,-0.02196,-0.01464,0,0.03416,0.00488,-0.00488,-0.05856,-0.03904,-0.03416
-0.0244,0.01464,-0.00488,0.00732,0.01952,-0.02196,0.01952,0.00488,-0.00976,-0.0488,-0.03904,-0.03416
-0.03416,0,0.03416,0.05124,0.06832,-0.05124,0.00488,0,-0.00976,-0.02928,-0.02928,-0.03416
-0.03416,0.0366,-0.03904,-0.02196,-0.00488,-0.01464,0.01952,0.01464,0,-0.01464,-0.00976,-0.00976
-0.03416,0.0732,-0.11224,-0.09516,-0.07808,0.02196,0.03904,0.03416,0.01952,0.00488,0.00976,0.00976
-0.03416,0.04392,-0.05368,-0.0366,-0.01952,-0.00732,0.0244,0.01464,0,-0.00976,-0.01464,-0.00488
-0.03904,0.01708,0.00488,0.0244,0.04392,-0.04148,0.00488,-0.00488,-0.01952,-0.03904,-0.03904,-0.02928
-0.03904,0.01952,0,0.01952,0.03904,-0.03904,0,-0.00488,-0.01952,-0.0488,-0.05368,-0.03904
-0.03416,0.01708,0,0.01708,0.03416,-0.03416,0,-0.00976,-0.01952,-0.0488,-0.05368,-0.0488
-0.0244,0.0122,0,0.0122,0.0244,-0.0244,0.00488,-0.00488,-0.01952,-0.0488,-0.05856,-0.05856
-0.01952,0.00976,0,0.00976,0.01952,-0.01952,0.00976,0,-0.01464,-0.0488,-0.06832,-0.06344
-0.02928,0.01952,-0.00976,0.00488,0.01952,-0.0244,0.01952,0,-0.00976,-0.05368,-0.06832,-0.06344
-0.02928,0.0244,-0.01952,-0.00488,0.00976,-0.01952,0.0244,0.00488,-0.00976,-0.06344,-0.06344,-0.05368
-0.02928,0.02196,-0.01464,0,0.01464,-0.02196,0.0244,0.00976,-0.00488,-0.06344,-0.06344,-0.0488
-0.0244,0.01952,-0.01464,-0.00244,0.00976,-0.01708,0.03416,0.00976,-0.00488,-0.06344,-0.06344,-0.04392
-0.03416,0.01952,-0.00488,0.0122,0.02928,-0.03172,0.01952,0.00976,-0.00488,-0.05856,-0.06344,-0.03904
-0.03416,0.01708,0,0.01708,0.03416,-0.03416,0.01464,0.01464,-0.00488,-0.0488,-0.05856,-0.03904
-0.03904,0.02684,-0.01464,0.00488,0.0244,-0.03172,0.00976,0.01464,0.00488,-0.03416,-0.03904,-0.03904
-0.04392,0.01464,0.01464,0.0366,0.05856,-0.05124,0.00488,0.00488,-0.00976,-0.03904,-0.0488,-0.0488
-0.04392,0.01952,0.00488,0.02684,0.0488,-0.04636,0.00976,0.01952,-0.00976,-0.03904,-0.0488,-0.04392
-0.04392,0.02196,0,0.02196,0.04392,-0.04392,0.01464,0.0244,-0.00488,-0.04392,-0.0488,-0.03904
-0.03416,0.02928,-0.0244,-0.00732,0.00976,-0.02196,0.02928,0.0244,-0.00488,-0.04392,-0.05368,-0.03904
-0.02928,0.02928,-0.02928,-0.01464,0,-0.01464,0.0244,0.01952,-0.00488,-0.04392,-0.05368,-0.03904
-0.04392,0.0122,0.01952,0.04148,0.06344,-0.05368,0.01464,0.00488,-0.01952,-0.05368,-0.06832,-0.05368
-0.04392,-0.00244,0.0488,0.07076,0.09272,-0.06832,0.01464,-0.00976,-0.02928,-0.06344,-0.08296,-0.06832
-0.03416,0.00976,0.01464,0.03172,0.0488,-0.04148,0.03416,0,-0.01952,-0.05368,-0.06832,-0.0488
-0.02928,0.0244,-0.01952,-0.00488,0.00976,-0.01952,0.0488,0.00976,-0.00976,-0.04392,-0.05856,-0.03904
-0.01464,0.01952,-0.0244,-0.01708,-0.00976,-0.00244,0.03416,0.00976,-0.00976,-0.04392,-0.06344,-0.04392
0,0.0122,-0.0244,-0.0244,-0.0244,0.0122,0.01464,0,-0.01952,-0.05368,-0.0732,-0.05368
-0.01464,0.0244,-0.03416,-0.02684,-0.01952,0.00244,0.01464,0.00976,-0.00488,-0.0488,-0.0732,-0.05368
-0.02928,0.0366,-0.04392,-0.02928,-0.01464,-0.00732,0.03416,0.0244,0.01952,-0.04392,-0.06832,-0.0488
-0.05368,0.0488,-0.04392,-0.01708,0.00976,-0.03172,0.03416,0.0244,0.01952,-0.03416,-0.0488,-0.03416
-0.06344,0.04392,-0.0244,0.00732,0.03904,-0.05124,0.02928,0.0244,0.00976,-0.03416,-0.05368,-0.04392
-0.06344,0.04148,-0.01952,0.0122,0.04392,-0.05368,0.0244,0.0244,0,-0.0488,-0.05368,-0.0488
-0.05856,0.03904,-0.01952,0.00976,0.03904,-0.0488,0.0244,0.01952,-0.01952,-0.0488,-0.05368,-0.0488
-0.05368,0.03172,-0.00976,0.01708,0.04392,-0.0488,0.01952,0.00976,-0.0244,-0.0488,-0.06344,-0.05856
-0.04392,0.02196,0,0.02196,0.04392,-0.04392,0.01464,-0.00488,-0.0244,-0.05856,-0.0732,-0.06832
-0.0244,-0.00244,0.02928,0.04148,0.05368,-0.03904,0.01464,-0.01952,-0.03416,-0.0732,-0.07808,-0.07808
-0.00976,-0.01464,0.03904,0.04392,0.0488,-0.02928,0.01464,-0.03416,-0.04392,-0.08784,-0.08784,-0.08784
-0.0244,0.0122,0,0.0122,0.0244,-0.0244,0.01952,-0.01952,-0.03416,-0.07808,-0.08296,-0.06832
-0.03904,0.03904,-0.03904,-0.01952,0,-0.01952,0.0244,-0.00488,-0.0244,-0.05856,-0.06832,-0.05368
-0.03904,0.05612,-0.0732,-0.05368,-0.03416,-0.00244,0.03904,0.01464,-0.00976,-0.03416,-0.05368,-0.04392
-0.03904,0.0732,-0.10736,-0.08784,-0.06832,0.01464,0.0488,0.03416,0.00488,-0.01464,-0.03904,-0.03416
-0.03904,0.0366,-0.03416,-0.01464,0.00488,-0.02196,0.0244,0.00488,-0.01464,-0.0488,-0.05856,-0.04392
-0.03904,0.00732,0.0244,0.04392,0.06344,-0.05124,0.00488,-0.0244,-0.02928,-0.06832,-0.0732,-0.05368
-0.03416,0.00976,0.01464,0.03172,0.0488,-0.04148,0.00488,-0.01464,-0.03416,-0.05368,-0.0732,-0.05368
-0.02928,0.0122,0.00488,0.01952,0.03416,-0.03172,0.00488,-0.01464,-0.03416,-0.05368,-0.0732,-0.05368
-0.03904,0.03172,-0.0244,-0.00488,0.01464,-0.02684,0.01952,-0.00976,-0.0244,-0.0488,-0.06832,-0.04392
-0.03904,0.0488,-0.05856,-0.03904,-0.01952,-0.00976,0.03416,0.00488,-0.01464,-0.0488,-0.05856,-0.03416
-0.05368,0.05124,-0.0488,-0.02196,0.00488,-0.02928,0.03416,0.00488,-0.01464,-0.0488,-0.0488,-0.03416
-0.06344,0.03904,-0.01464,0.01708,0.0488,-0.05612,0.03416,0,-0.01952,-0.05368,-0.05856,-0.03904
-0.05368,0.03416,-0.01464,0.0122,0.03904,-0.04636,0.0244,0,-0.0244,-0.05856,-0.06344,-0.04392
-0.04392,0.03172,-0.01952,0.00244,0.0244,-0.03416,0.01464,0,-0.0244,-0.06344,-0.06344,-0.04392
-0.04392,0.0366,-0.02928,-0.00732,0.01464,-0.02928,0.01464,-0.01952,-0.03416,-0.06832,-0.06832,-0.0488
-0.04392,0.04148,-0.03904,-0.01708,0.00488,-0.0244,0.00976,-0.01952,-0.04392,-0.06344,-0.0732,-0.05368
-0.02928,0.03416,-0.03904,-0.0244,-0.00976,-0.00976,0,-0.01952,-0.04392,-0.06344,-0.0732,-0.05856
-0.03904,0.01952,0,0.01952,0.03904,-0.03904,-0.00488,-0.01952,-0.04392,-0.06344,-0.07808,-0.05856
-0.03904,0.0122,0.01464,0.03416,0.05368,-0.04636,0.00488,-0.01952,-0.0488,-0.06832,-0.07808,-0.06344
-0.03904,0.00488,0.02928,0.0488,0.06832,-0.05368,0,-0.0244,-0.05856,-0.07808,-0.08296,-0.06832
-0.04392,0.01708,0.00976,0.03172,0.05368,-0.0488,0.00488,-0.01952,-0.0488,-0.07808,-0.07808,-0.06832
-0.05368,0.05612,-0.05856,-0.03172,-0.00488,-0.0244,0.01464,-0.00976,-0.03416,-0.06832,-0.06832,-0.06344
-0.04392,0.0488,-0.05368,-0.03172,-0.00976,-0.01708,0.01464,-0.00488,-0.03416,-0.06344,-0.06344,-0.0488
-0.04392,0.04148,-0.03904,-0.01708,0.00488,-0.0244,0.00976,-0.00488,-0.03416,-0.06344,-0.06344,-0.0488
-0.04392,0.02684,-0.00976,0.0122,0.03416,-0.03904,0.00976,-0.00976,-0.03416,-0.06344,-0.06832,-0.0488
-0.0488,0.02684,-0.00488,0.01952,0.04392,-0.04636,0.00976,-0.00976,-0.03416,-0.06344,-0.06832,-0.05856
-0.0488,0.04392,-0.03904,-0.01464,0.00976,-0.02928,0.0244,-0.00488,-0.02928,-0.06344,-0.06344,-0.05856
-0.04392,0.04148,-0.03904,-0.01708,0.00488,-0.0244,0.01464,-0.00488,-0.02928,-0.06344,-0.06344,-0.05368
-0.04392,0.0366,-0.02928,-0.00732,0.01464,-0.02928,0.01464,-0.00976,-0.03416,-0.05856,-0.06344,-0.05368
-0.0488,0.03904,-0.02928,-0.00488,0.01952,-0.03416,0.01464,-0.00976,-0.03416,-0.05856,-0.06344,-0.05368
-0.05856,0.04392,-0.02928,0,0.02928,-0.04392,0.01464,-0.00976,-0.03416,-0.06832,-0.06832,-0.05368
-0.06832,0.0488,-0.02928,0.00488,0.03904,-0.05368,0.01464,-0.00976,-0.03416,-0.0732,-0.0732,-0.0488
-0.05856,0.04392,-0.02928,0,0.02928,-0.04392,0.01464,-0.00488,-0.03904,-0.0732,-0.0732,-0.0488
-0.0488,0.04148,-0.03416,-0.00976,0.01464,-0.03172,0.01464,-0.00488,-0.04392,-0.0732,-0.07808,-0.05856
-0.04392,0.03904,-0.03416,-0.0122,0.00976,-0.02684,0.00976,-0.00488,-0.05368,-0.06344,-0.07808,-0.06344
-0.04392,0.0366,-0.02928,-0.00732,0.01464,-0.02928,0.00976,-0.00976,-0.05368,-0.05368,-0.0732,-0.06344
-0.04392,0.0244,-0.00488,0.01708,0.03904,-0.04148,0.01464,-0.00976,-0.0488,-0.05368,-0.06832,-0.05856
-0.04392,0.02684,-0.00976,0.0122,0.03416,-0.03904,0.01464,-0.00976,-0.03904,-0.05368,-0.06832,-0.05856
-0.04392,0.0366,-0.02928,-0.00732,0.01464,-0.02928,0.01464,-0.01464,-0.03416,-0.05368,-0.06832,-0.05368
-0.04392,0.03416,-0.0244,-0.00244,0.01952,-0.03172,0.00976,-0.01464,-0.03904,-0.05368,-0.06832,-0.0488
-0.04392,0.04148,-0.03904,-0.01708,0.00488,-0.0244,0.01952,0,-0.03904,-0.05368,-0.06344,-0.03904
-0.0488,0.04392,-0.03904,-0.01464,0.00976,-0.02928,0.02928,0,-0.03904,-0.05368,-0.06344,-0.03904
-0.05368,0.0366,-0.01952,0.00732,0.03416,-0.04392,0.01952,-0.01952,-0.04392,-0.06344,-0.06344,-0.05368
-0.05368,0.01952,0.01464,0.04148,0.06832,-0.061,0.00976,-0.02928,-0.04392,-0.0732,-0.06832,-0.06344
-0.05856,0.02684,0.00488,0.03416,0.06344,-0.061,0.00976,-0.02928,-0.04392,-0.0732,-0.06832,-0.06344
-0.06344,0.03416,-0.00488,0.02684,0.05856,-0.061,0.00976,-0.02928,-0.04392,-0.06832,-0.06832,-0.06344
-0.05856,0.03172,-0.00488,0.0244,0.05368,-0.05612,0.00976,-0.01464,-0.03904,-0.06832,-0.0732,-0.05856
-0.05368,0.02928,-0.00488,0.02196,0.0488,-0.05124,0.01464,-0.00488,-0.03416,-0.0732,-0.07808,-0.05368
-0.04392,0.02684,-0.00976,0.0122,0.03416,-0.03904,0.01464,-0.00488,-0.0244,-0.06832,-0.0732,-0.05368
-0.03904,0.02928,-0.01952,0,0.01952,-0.02928,0.01952,-0.00976,-0.01952,-0.06832,-0.06832,-0.05856
-0.04392,0.03172,-0.01952,0.00244,0.0244,-0.03416,0.01952,-0.01464,-0.03416,-0.06832,-0.06832,-0.05856
-0.0488,0.03416,-0.01952,0.00488,0.02928,-0.03904,0.01952,-0.01952,-0.0488,-0.06832,-0.06832,-0.05856
-0.05856,0.03904,-0.01952,0.00976,0.03904,-0.0488,0.01952,-0.01952,-0.0488,-0.06832,-0.06832,-0.05856
-0.06832,0.04392,-0.01952,0.01464,0.0488,-0.05856,0.01952,-0.01952,-0.0488,-0.06832,-0.06832,-0.05856
-0.05856,0.0366,-0.01464,0.01464,0.04392,-0.05124,0.01464,-0.0244,-0.0488,-0.06832,-0.0732,-0.05856
-0.0488,0.02928,-0.00976,0.01464,0.03904,-0.04392,0.00976,-0.02928,-0.0488,-0.06832,-0.07808,-0.05856
-0.0488,0.02196,0.00488,0.02928,0.05368,-0.05124,0,-0.02928,-0.0488,-0.06832,-0.07808,-0.05856
-0.0488,0.01464,0.01952,0.04392,0.06832,-0.05856,-0.00976,-0.02928,-0.0488,-0.06832,-0.07808,-0.05856
-0.0488,0.02684,-0.00488,0.01952,0.04392,-0.04636,0,-0.01952,-0.03416,-0.06344,-0.0732,-0.05856
-0.0488,0.03904,-0.02928,-0.00488,0.01952,-0.03416,0.00976,-0.00976,-0.01952,-0.05856,-0.06832,-0.05856
-0.0488,0.03904,-0.02928,-0.00488,0.01952,-0.03416,0.01952,-0.00976,-0.02928,-0.05856,-0.06832,-0.05856
-0.0488,0.03904,-0.02928,-0.00488,0.01952,-0.03416,0.02928,-0.00976,-0.03904,-0.05856,-0.06832,-0.05856
-0.0488,0.03172,-0.01464,0.00976,0.03416,-0.04148,0.01464,-0.01952,-0.0488,-0.06832,-0.0732,-0.06344
-0.0488,0.0244,0,0.0244,0.0488,-0.0488,0,-0.02928,-0.05856,-0.07808,-0.07808,-0.06832
-0.05368,0.01708,0.01952,0.04636,0.0732,-0.06344,0,-0.02928,-0.05856,-0.07808,-0.07808,-0.06832
-0.05856,0.00976,0.03904,0.06832,0.0976,-0.07808,0,-0.02928,-0.05856,-0.07808,-0.07808,-0.06832
-0.05856,0.0366,-0.01464,0.01464,0.04392,-0.05124,0.00488,-0.01952,-0.0488,-0.06344,-0.06344,-0.05368
-0.05856,0.06344,-0.06832,-0.03904,-0.00976,-0.0244,0.00976,-0.00976,-0.03904,-0.0488,-0.0488,-0.03904
-0.0488,0.04636,-0.04392,-0.01952,0.00488,-0.02684,0.00976,-0.00976,-0.03904,-0.06344,-0.06344,-0.05368
-0.03904,0.02928,-0.01952,0,0.01952,-0.02928,0.00976,-0.00976,-0.03904,-0.07808,-0.07808,-0.06832
-0.03904,0.03416,-0.02928,-0.00976,0.00976,-0.0244,0.01464,-0.00976,-0.03416,-0.07808,-0.07808,-0.05856
-0.03904,0.03904,-0.03904,-0.01952,0,-0.01952,0.01952,-0.00976,-0.02928,-0.07808,-0.07808,-0.0488
-0.03904,0.03904,-0.03904,-0.01952,0,-0.01952,0.01952,-0.00976,-0.02928,-0.0732,-0.07808,-0.0488
-0.03904,0.03904,-0.03904,-0.01952,0,-0.01952,0.01952,-0.00976,-0.02928,-0.06832,-0.07808,-0.0488
-0.03904,0.03172,-0.0244,-0.00488,0.01464,-0.02684,0.01464,-0.01952,-0.03904,-0.06832,-0.07808,-0.05368
-0.03904,0.0244,-0.00976,0.00976,0.02928,-0.03416,0.00976,-0.02928,-0.0488,-0.06832,-0.07808,-0.05856
-0.03904,0.01708,0.00488,0.0244,0.04392,-0.04148,0.00488,-0.02928,-0.0488,-0.0732,-0.07808,-0.05856
-0.03904,0.00976,0.01952,0.03904,0.05856,-0.0488,0,-0.02928,-0.0488,-0.07808,-0.07808,-0.05856
-0.03904,0.01464,0.00976,0.02928,0.0488,-0.04392,0,-0.0244,-0.04392,-0.07808,-0.0732,-0.05856
-0.03904,0.01952,0,0.01952,0.03904,-0.03904,0,-0.01952,-0.03904,-0.07808,-0.06832,-0.05856
-0.0488,0.03172,-0.01464,0.00976,0.03416,-0.04148,0.00976,-0.01952,-0.03904,-0.07808,-0.06832,-0.05368
-0.05856,0.04392,-0.02928,0,0.02928,-0.04392,0.01952,-0.01952,-0.03904,-0.07808,-0.06832,-0.0488
-0.05856,0.03904,-0.01952,0.00976,0.03904,-0.0488,0.01952,-0.01464,-0.03416,-0.0732,-0.06344,-0.0488
-0.05856,0.03416,-0.00976,0.01952,0.0488,-0.05368,0.01952,-0.00976,-0.02928,-0.06832,-0.05856,-0.0488
-0.05368,0.02928,-0.00488,0.02196,0.0488,-0.05124,0.01464,-0.00976,-0.02928,-0.06832,-0.05856,-0.0488
-0.0488,0.0244,0,0.0244,0.0488,-0.0488,0.00976,-0.00976,-0.02928,-0.06832,-0.05856,-0.0488
-0.0488,0.0244,0,0.0244,0.0488,-0.0488,0.00976,-0.00976,-0.02928,-0.06832,-0.05856,-0.0488
-0.0488,0.0244,0,0.0244,0.0488,-0.0488,0.00976,-0.00976,-0.02928,-0.06832,-0.05856,-0.0488
-0.03904,0.01952,0,0.01952,0.03904,-0.03904,0.00976,-0.00976,-0.02928,-0.05856,-0.05368,-0.04392
-0.02928,0.01464,0,0.01464,0.02928,-0.02928,0.00976,-0.00976,-0.02928,-0.0488,-0.0488,-0.03904
-0.01952,0.01464,-0.00976,0,0.00976,-0.01464,0.01952,0.00976,-0.01464,-0.03904,-0.03904,-0.03416
-0.00976,0.01464,-0.01952,-0.01464,-0.00976,0,0.02928,0.02928,0,-0.02928,-0.02928,-0.02928
-0.00976,0.00488,0,0.00488,0.00976,-0.00976,0.03904,0.03904,0.01464,-0.01952,-0.0244,-0.01952
-0.00976,-0.00488,0.01952,0.0244,0.02928,-0.01952,0.0488,0.0488,0.02928,-0.00976,-0.01952,-0.00976
0,-0.01952,0.03904,0.03904,0.03904,-0.01952,0.05368,0.0488,0.03904,-0.00976,-0.01952,-0.00976
0.00976,-0.03416,0.05856,0.05368,0.0488,-0.01952,0.05856,0.0488,0.0488,-0.00976,-0.01952,-0.00976
0.00976,-0.01952,0.02928,0.0244,0.01952,-0.00488,0.05856,0.06344,0.0488,-0.00488,-0.01952,-0.00976
0.00976,-0.00488,0,-0.00488,-0.00976,0.00976,0.05856,0.07808,0.0488,0,-0.01952,-0.00976
0.01952,-0.01464,0.00976,0,-0.00976,0.01464,0.05368,0.08296,0.05368,0.00976,-0.00488,-0.00488
0.03416,-0.02684,0.01952,0.00244,-0.01464,0.0244,0.03904,0.08296,0.06344,0.0244,0.00976,0.00488
0.05368,-0.04148,0.02928,0.00244,-0.0244,0.03904,0.0244,0.08296,0.0732,0.03904,0.0244,0.01952
0.03416,-0.02196,0.00976,-0.00732,-0.0244,0.02928,0.00976,0.07808,0.06832,0.03904,0.03416,0.02928
0.01464,-0.01464,0.01464,0.00732,0,0.00732,-0.0244,0.01464,-0.00488,-0.01952,-0.01952,-0.00488
0.00976,-0.0122,0.01464,0.00976,0.00488,0.00244,-0.04392,-0.03904,-0.04392,-0.0488,-0.04392,-0.01952
0.00976,-0.01464,0.01952,0.01464,0.00976,0,-0.03416,-0.03904,-0.04392,-0.0488,-0.04392,-0.0244
0.01464,-0.00732,0,-0.00732,-0.01464,0.01464,-0.01952,-0.02928,-0.04392,-0.0488,-0.0488,-0.02928
0.01464,0,-0.01464,-0.02196,-0.02928,0.02196,-0.02928,-0.03904,-0.0488,-0.06832,-0.0732,-0.04392
0.00976,0.00244,-0.01464,-0.01952,-0.0244,0.01708,-0.02928,-0.05368,-0.06344,-0.08296,-0.08784,-0.04392
0.00488,0.02684,-0.05856,-0.061,-0.06344,0.03416,-0.0244,-0.03904,-0.06344,-0.08296,-0.07808,-0.0488
-0.00488,0.04636,-0.08784,-0.0854,-0.08296,0.03904,-0.01952,-0.01952,-0.05856,-0.07808,-0.05856,-0.03904
-0.01952,0.05124,-0.08296,-0.0732,-0.06344,0.02196,-0.00488,-0.01952,-0.05856,-0.06344,-0.04392,-0.0244
-0.02928,0.05612,-0.08296,-0.06832,-0.05368,0.0122,0,-0.0244,-0.05856,-0.05368,-0.02928,-0.01952
-0.04392,0.03416,-0.0244,-0.00244,0.01952,-0.03172,-0.00488,-0.03904,-0.0732,-0.0732,-0.06832,-0.0488
-0.05856,0.0244,0.00976,0.03904,0.06832,-0.06344,-0.00976,-0.0488,-0.08784,-0.10736,-0.0976,-0.08296
-0.05856,0.03904,-0.01952,0.00976,0.03904,-0.0488,-0.00488,-0.0488,-0.08296,-0.10736,-0.10248,-0.08296
-0.05856,0.04636,-0.03416,-0.00488,0.0244,-0.04148,0,-0.0488,-0.0732,-0.10736,-0.10736,-0.07808
-0.06344,0.061,-0.05856,-0.02684,0.00488,-0.03416,0,-0.04392,-0.0732,-0.10248,-0.10248,-0.07808
-0.06344,0.06588,-0.06832,-0.0366,-0.00488,-0.02928,0,-0.03904,-0.0732,-0.0976,-0.10248,-0.0732
-0.06344,0.061,-0.05856,-0.02684,0.00488,-0.03416,0,-0.03904,-0.07808,-0.0976,-0.10248,-0.0732
-0.06344,0.05856,-0.05368,-0.02196,0.00976,-0.0366,-0.00488,-0.03904,-0.08296,-0.10248,-0.10248,-0.0732
-0.06832,0.06344,-0.05856,-0.0244,0.00976,-0.03904,-0.00488,-0.03904,-0.08296,-0.10736,-0.10736,-0.0732
-0.0732,0.06832,-0.06344,-0.02684,0.00976,-0.04148,0,-0.03904,-0.08296,-0.10736,-0.10736,-0.0732
-0.06832,0.07564,-0.08296,-0.0488,-0.01464,-0.02684,0.01952,-0.01952,-0.05856,-0.08296,-0.08784,-0.05856
-0.06832,0.08052,-0.09272,-0.05856,-0.0244,-0.02196,0.02928,-0.00976,-0.0488,-0.06344,-0.06832,-0.04392
-0.06832,0.05368,-0.03904,-0.00488,0.02928,-0.0488,0.01464,-0.03416,-0.0732,-0.0976,-0.09272,-0.07808
-0.06344,0.02684,0.00976,0.04148,0.0732,-0.06832,0.00488,-0.04392,-0.09272,-0.122,-0.11224,-0.10736
-0.06344,0.03416,-0.00488,0.02684,0.05856,-0.061,0.00488,-0.0488,-0.08296,-0.11712,-0.10248,-0.09272
-0.06344,0.04392,-0.0244,0.00732,0.03904,-0.05124,0,-0.05368,-0.06832,-0.11224,-0.10248,-0.08296
-0.06832,0.05124,-0.03416,0,0.03416,-0.05124,0,-0.03904,-0.05856,-0.09272,-0.09272,-0.0732
-0.06344,0.0488,-0.03416,-0.00244,0.02928,-0.04636,0,-0.03416,-0.05368,-0.08296,-0.08296,-0.05856
-0.06344,0.05612,-0.0488,-0.01708,0.01464,-0.03904,0,-0.0244,-0.05368,-0.08296,-0.08296,-0.0488
-0.06832,0.05856,-0.0488,-0.01464,0.01952,-0.04392,0,-0.01952,-0.05856,-0.0732,-0.0732,-0.04392
-0.05856,0.04392,-0.02928,0,0.02928,-0.04392,0,-0.02928,-0.06344,-0.08296,-0.08296,-0.05856
-0.0488,0.03172,-0.01464,0.00976,0.03416,-0.04148,0.00488,-0.03416,-0.06344,-0.08784,-0.09272,-0.0732
-0.04392,0.03904,-0.03416,-0.0122,0.00976,-0.02684,0.00976,-0.02928,-0.05368,-0.08296,-0.09272,-0.0732
-0.04392,0.03172,-0.01952,0.00244,0.0244,-0.03416,0.00976,-0.02928,-0.0488,-0.08296,-0.09272,-0.0732
-0.07808,0.04392,-0.00976,0.02928,0.06832,-0.0732,0.00976,-0.01952,-0.04392,-0.06832,-0.06832,-0.0488
-0.10248,0.04636,0.00976,0.061,0.11224,-0.10736,0.01464,-0.00976,-0.03416,-0.04392,-0.03416,-0.02928
-0.0976,0.0488,0,0.0488,0.0976,-0.0976,0.03416,-0.00976,-0.02928,-0.02928,-0.02928,-0.04392
-0.05368,0.02196,0.00976,0.0366,0.06344,-0.05856,0.03904,0.01464,0.03416,0.0732,0.0732,0.00976
0.01952,-0.00488,-0.00976,-0.01952,-0.02928,0.0244,0.06344,0.13176,0.19032,0.27816,0.29768,0.13176
0.15616,-0.07076,-0.01464,-0.09272,-0.1708,0.16348,0.07808,0.25376,0.39528,0.55632,0.58072,0.28792
0.3416,-0.18056,0.01952,-0.15128,-0.32208,0.33184,0.0488,0.34648,0.63928,0.97112,1.04432,0.56608
0.52704,-0.2928,0.05856,-0.20496,-0.46848,0.49776,-0.0732,0.26352,0.64416,1.15656,1.33224,0.7808
0.65392,-0.40504,0.15616,-0.1708,-0.49776,0.57584,-0.26352,-0.04392,0.37088,0.99064,1.25904,0.86376
0.60512,-0.38552,0.16592,-0.13664,-0.4392,0.52216,-0.44896,-0.45384,-0.02928,0.5612,0.82472,0.6832
0.35136,-0.17324,-0.00488,-0.18056,-0.35624,0.3538,-0.5368,-0.86864,-0.60512,-0.16104,0.01464,0.1708
0.122,-0.00976,-0.10248,-0.16348,-0.22448,0.17324,-0.5856,-1.13216,-1.03456,-0.67832,-0.49288,-0.1464
-0.03416,0.09028,-0.1464,-0.12932,-0.11224,0.03904,-0.57096,-1.17608,-1.2444,-0.96624,-0.732,-0.28792
-0.11224,0.15372,-0.1952,-0.13908,-0.08296,-0.01464,-0.53192,-1.08824,-1.25904,-1.0736,-0.83448,-0.37576
-0.09272,0.1342,-0.17568,-0.12932,-0.08296,-0.00488,-0.4392,-0.84912,-1.0492,-0.94672,-0.7564,-0.36112
-0.0732,0.11712,-0.16104,-0.12444,-0.08784,0.00732,-0.32696,-0.59048,-0.79056,-0.74664,-0.62464,-0.3172
-0.0732,0.122,-0.1708,-0.1342,-0.0976,0.0122,-0.19032,-0.37088,-0.55144,-0.51728,-0.4392,-0.22936
-0.06344,0.11224,-0.16104,-0.12932,-0.0976,0.01708,-0.122,-0.24888,-0.35624,-0.33184,-0.28792,-0.13176
-0.03904,0.05612,-0.0732,-0.05368,-0.03416,-0.00244,-0.0976,-0.1708,-0.22936,-0.22448,-0.20984,-0.10736
-0.01464,0.00244,0.00976,0.01708,0.0244,-0.01952,-0.08296,-0.11712,-0.15616,-0.1708,-0.16592,-0.11224
-0.02928,0.00732,0.01464,0.02928,0.04392,-0.0366,-0.03904,-0.06344,-0.09272,-0.122,-0.12688,-0.0976
-0.02928,0.00488,0.01952,0.03416,0.0488,-0.03904,-0.00488,-0.02928,-0.0488,-0.0976,-0.10248,-0.09272
-0.0488,0.00732,0.03416,0.05856,0.08296,-0.06588,0.00488,-0.00976,-0.03904,-0.07808,-0.08784,-0.06344
-0.06832,0.02196,0.0244,0.05856,0.09272,-0.08052,0.00976,0.00488,-0.02928,-0.06344,-0.06832,-0.03904
-0.05856,0.02196,0.01464,0.04392,0.0732,-0.06588,0.01464,0.01952,-0.0244,-0.0488,-0.06344,-0.03904
-0.05368,0.02684,0,0.02684,0.05368,-0.05368,0.01952,0.0244,-0.01464,-0.03904,-0.06344,-0.03904
-0.05368,0.02684,0,0.02684,0.05368,-0.05368,0.0244,0.02928,-0.00488,-0.02928,-0.05368,-0.03416
-0.05368,0.02684,0,0.02684,0.05368,-0.05368,0.02928,0.03416,0,-0.0244,-0.05368,-0.03904
-0.05368,0.02928,-0.00488,0.02196,0.0488,-0.05124,0.03416,0.03904,0,-0.01952,-0.0488,-0.03904
-0.05368,0.02196,0.00976,0.0366,0.06344,-0.05856,0.03416,0.03904,0,-0.01952,-0.0488,-0.03904
-0.0488,0.0122,0.0244,0.0488,0.0732,-0.061,0.02928,0.03904,0,-0.01464,-0.0488,-0.04392
-0.03416,0.00976,0.01464,0.03172,0.0488,-0.04148,0.02928,0.03904,0.01464,-0.00976,-0.0488,-0.0488
-0.03416,0.0122,0.00976,0.02684,0.04392,-0.03904,0.03416,0.04392,0.01464,-0.00976,-0.0488,-0.0488
-0.03904,0.01952,0,0.01952,0.03904,-0.03904,0.03904,0.0488,0.01952,-0.00976,-0.0488,-0.0488
-0.0488,0.01464,0.01952,0.04392,0.06832,-0.05856,0.03904,0.05368,0.0244,-0.00976,-0.03416,-0.03416
-0.05856,0.02928,0,0.02928,0.05856,-0.05856,0.03904,0.05856,0.03416,-0.00488,-0.00976,-0.01464
-0.05856,0.0366,-0.01464,0.01464,0.04392,-0.05124,0.0488,0.0732,0.03416,0.01464,0.00976,-0.00488
-0.05856,0.02928,0,0.02928,0.05856,-0.05856,0.03416,0.05856,0.02928,0.01952,0,-0.00488
-0.0488,0.02196,0.00488,0.02928,0.05368,-0.05124,0.03416,0.05856,0.02928,0.01952,0,-0.01464
-0.04392,0.0366,-0.02928,-0.00732,0.01464,-0.02928,0.04392,0.06832,0.03416,0.0244,0.00488,-0.00488
-0.04392,0.02684,-0.00976,0.0122,0.03416,-0.03904,0.04392,0.06832,0.03904,0.0244,0,-0.00976
-0.04392,0.01464,0.01464,0.0366,0.05856,-0.05124,0.03904,0.06832,0.03904,0.02928,-0.00488,-0.01464
-0.02928,0.00732,0.01464,0.02928,0.04392,-0.0366,0.03416,0.06832,0.03904,0.01952,-0.01464,-0.02928
0,-0.00732,0.01464,0.01464,0.01464,-0.00732,0.03416,0.05856,0.03904,0.00976,-0.0244,-0.04392
-0.00976,-0.00244,0.01464,0.01952,0.0244,-0.01708,0.03904,0.07808,0.05368,0.01952,-0.00488,-0.04392
-0.03416,0.01464,0.00488,0.02196,0.03904,-0.0366,0.03904,0.07808,0.05856,0.02928,-0.00488,-0.04392
-0.04392,0.0122,0.01952,0.04148,0.06344,-0.05368,0.03904,0.07808,0.05856,0.04392,0.00976,-0.01464
-0.03904,0.00976,0.01952,0.03904,0.05856,-0.0488,0.03904,0.08296,0.06832,0.06344,0.0244,0.01464
-0.03904,0.0122,0.01464,0.03416,0.05368,-0.04636,0.03416,0.08296,0.06832,0.06344,0.0244,0.01464
-0.03904,0.01708,0.00488,0.0244,0.04392,-0.04148,0.03416,0.08784,0.06832,0.0732,0.02928,0.01464
-0.01952,-0.00488,0.02928,0.03904,0.0488,-0.03416,0.03416,0.09272,0.06832,0.06344,0.02928,0.01464
-0.01464,-0.01708,0.0488,0.05612,0.06344,-0.03904,0.03416,0.0976,0.06832,0.06344,0.0244,0.01952
-0.00488,-0.00976,0.0244,0.02684,0.02928,-0.01708,0.02928,0.10736,0.08296,0.07808,0.03416,0.01464
0.00488,-0.01952,0.03416,0.03172,0.02928,-0.0122,0.02928,0.10736,0.09272,0.08296,0.03416,0.00488
0.00976,-0.00976,0.00976,0.00488,0,0.00488,0.02928,0.10248,0.0976,0.08784,0.04392,0.01464
0.00976,-0.0122,0.01464,0.00976,0.00488,0.00244,0.02928,0.10248,0.10736,0.0976,0.0488,0.01464
0.00976,-0.0122,0.01464,0.00976,0.00488,0.00244,0.02928,0.10736,0.11224,0.10736,0.06344,0.02928
0.00488,-0.00976,0.01464,0.0122,0.00976,-0.00244,0.02928,0.11224,0.11224,0.11712,0.0732,0.03416
0.00488,-0.01952,0.03416,0.03172,0.02928,-0.0122,0.02928,0.122,0.13664,0.13664,0.10248,0.05368
0.00488,-0.03904,0.0732,0.07076,0.06832,-0.03172,0.01952,0.122,0.13664,0.13664,0.10736,0.06344
0.03904,-0.05612,0.0732,0.05368,0.03416,0.00244,0.01464,0.122,0.14152,0.15128,0.122,0.06832
0.05368,-0.06344,0.0732,0.04636,0.01952,0.01708,0.00976,0.13176,0.15128,0.1708,0.12688,0.07808
0.05856,-0.06588,0.0732,0.04392,0.01464,0.02196,0.00488,0.13176,0.15616,0.18544,0.1464,0.08296
0.06344,-0.0732,0.08296,0.05124,0.01952,0.02196,0.00488,0.14152,0.17568,0.20008,0.1708,0.09272
0.06344,-0.0854,0.10736,0.07564,0.04392,0.00976,0.00976,0.1464,0.1952,0.23424,0.1952,0.11224
0.06832,-0.0976,0.12688,0.09272,0.05856,0.00488,0.00976,0.1464,0.20984,0.25864,0.21472,0.122
0.0732,-0.10004,0.12688,0.09028,0.05368,0.00976,0.00976,0.16104,0.23912,0.27816,0.23912,0.1464
0.0976,-0.11712,0.13664,0.08784,0.03904,0.02928,0.00976,0.1708,0.25864,0.31232,0.25864,0.16104
0.11224,-0.13176,0.15128,0.09516,0.03904,0.0366,0.00488,0.18544,0.26352,0.32696,0.28304,0.17568
0.122,-0.13908,0.15616,0.09516,0.03416,0.04392,-0.00488,0.19032,0.28304,0.35624,0.31232,0.20008
0.13664,-0.14884,0.16104,0.09272,0.0244,0.05612,-0.00976,0.19032,0.2928,0.37576,0.33184,0.20496
0.16104,-0.1586,0.15616,0.07564,-0.00488,0.08296,-0.00976,0.1952,0.3172,0.39528,0.35624,0.22448
0.18056,-0.16836,0.15616,0.06588,-0.0244,0.10248,-0.01952,0.1952,0.3416,0.41968,0.37576,0.23912
0.18544,-0.17324,0.16104,0.06832,-0.0244,0.10492,-0.01952,0.1952,0.35624,0.4392,0.40016,0.25864
0.19032,-0.19032,0.19032,0.09516,0,0.09516,-0.02928,0.20496,0.37088,0.47336,0.43432,0.28792
0.20008,-0.20008,0.20008,0.10004,0,0.10004,-0.02928,0.21472,0.38552,0.5124,0.47336,0.31232
0.21472,-0.21716,0.2196,0.11224,0.00488,0.10492,-0.03904,0.21472,0.38552,0.51728,0.49288,0.33184
0.2196,-0.21228,0.20496,0.09516,-0.01464,0.11712,-0.03904,0.22936,0.40504,0.54656,0.52216,0.35136
0.22936,-0.21716,0.20496,0.09028,-0.0244,0.12688,-0.05368,0.21472,0.3904,0.55144,0.52704,0.35136
0.23424,-0.21228,0.19032,0.0732,-0.04392,0.13908,-0.05856,0.21472,0.40016,0.55632,0.53192,0.35624
0.25376,-0.23424,0.21472,0.08784,-0.03904,0.1464,-0.06832,0.20008,0.40016,0.54656,0.53192,0.34648
0.2684,-0.25132,0.23424,0.10004,-0.03416,0.15128,-0.06832,0.19032,0.3904,0.54168,0.52704,0.33672
0.22448,-0.2196,0.21472,0.10248,-0.00976,0.11712,-0.06344,0.18544,0.3904,0.52216,0.50264,0.33672
0.17568,-0.19276,0.20984,0.122,0.03416,0.07076,-0.05856,0.16592,0.37576,0.49288,0.47824,0.32696
0.18056,-0.183,0.18544,0.09516,0.00488,0.08784,-0.05368,0.15128,0.3416,0.45384,0.4636,0.3172
0.17568,-0.16592,0.15616,0.06832,-0.01952,0.0976,-0.0488,0.1464,0.31232,0.41968,0.4392,0.30744
0.15616,-0.14152,0.12688,0.0488,-0.02928,0.09272,-0.03416,0.1464,0.2928,0.40016,0.4148,0.2928
0.12688,-0.12444,0.122,0.05856,-0.00488,0.06588,-0.03416,0.122,0.25376,0.36112,0.37088,0.25864
0.10736,-0.11224,0.11712,0.06344,0.00976,0.0488,-0.03904,0.09272,0.21472,0.31232,0.3172,0.22448
0.10248,-0.1098,0.11712,0.06588,0.01464,0.04392,-0.03904,0.08784,0.1952,0.27328,0.26352,0.19032
0.07808,-0.0976,0.11712,0.07808,0.03904,0.01952,-0.03416,0.0732,0.1708,0.23424,0.21472,0.1464
0.05856,-0.09028,0.122,0.09272,0.06344,-0.00244,-0.0244,0.05856,0.15128,0.18544,0.16592,0.10248
0.03904,-0.06344,0.08784,0.06832,0.0488,-0.00488,-0.01464,0.05368,0.13664,0.15128,0.13664,0.09272
0.00976,-0.04636,0.08296,0.07808,0.0732,-0.03172,-0.00976,0.03416,0.122,0.11224,0.0976,0.06832
0.00488,-0.03416,0.06344,0.061,0.05856,-0.02684,-0.00976,0.02928,0.09272,0.08784,0.06832,0.0488
-0.00488,-0.01708,0.03904,0.04148,0.04392,-0.0244,-0.00976,0.02928,0.06344,0.0732,0.05856,0.04392
-0.00976,0,0.00976,0.01464,0.01952,-0.01464,0.00976,0.03416,0.06344,0.0732,0.05856,0.04392
-0.01464,0.03172,-0.0488,-0.04148,-0.03416,0.00976,0.01952,0.04392,0.06832,0.07808,0.06832,0.0488
-0.01464,0,0.01464,0.02196,0.02928,-0.02196,0,0.0244,0.03416,0.03904,0.02928,0.00976
-0.01952,-0.01952,0.05856,0.06832,0.07808,-0.0488,-0.01464,0.00976,0.00488,0.00976,0.00488,-0.00976
-0.0244,-0.00732,0.03904,0.05124,0.06344,-0.04392,-0.00488,0.00976,0.00488,0.00976,0.00488,-0.00976
-0.0244,-0.00732,0.03904,0.05124,0.06344,-0.04392,-0.00488,0,-0.00488,-0.00488,-0.00976,-0.01952
-0.00976,-0.00244,0.01464,0.01952,0.0244,-0.01708,-0.00976,0,0,-0.01952,-0.03416,-0.02928
0,0.00976,-0.01952,-0.01952,-0.01952,0.00976,-0.00488,0.00976,0,-0.02928,-0.05368,-0.03904
-0.01464,0.00976,-0.00488,0.00244,0.00976,-0.0122,0.00488,0.00976,0.01952,-0.02928,-0.05368,-0.05368
-0.03416,0.0122,0.00976,0.02684,0.04392,-0.03904,0.00488,0.01464,0.02928,-0.03416,-0.05856,-0.06344
-0.0488,0.03172,-0.01464,0.00976,0.03416,-0.04148,0.00488,0.00976,0.00976,-0.03416,-0.0488,-0.0488
-0.06344,0.04636,-0.02928,0.00244,0.03416,-0.0488,0.00488,0.00488,-0.00976,-0.02928,-0.03904,-0.03416
-0.06344,0.04148,-0.01952,0.0122,0.04392,-0.05368,0.00488,0,-0.00976,-0.01464,-0.01952,-0.0244
-0.06344,0.04392,-0.0244,0.00732,0.03904,-0.05124,0,0,-0.01952,-0.00976,-0.00976,-0.00976
-0.05856,0.04148,-0.0244,0.00488,0.03416,-0.04636,0,0.00976,-0.01464,0,-0.00976,-0.00976
-0.0488,0.0366,-0.0244,0,0.0244,-0.0366,0.00488,0.01464,-0.00976,0.00488,-0.01464,-0.00976
-0.03904,0.03172,-0.0244,-0.00488,0.01464,-0.02684,0.00976,0.01464,-0.00488,-0.00976,-0.01952,-0.01952
-0.02928,0.02928,-0.02928,-0.01464,0,-0.01464,0.00976,0.01464,0,-0.01952,-0.03416,-0.0244
-0.0244,0.0244,-0.0244,-0.0122,0,-0.0122,0.00976,0.00976,0.00976,-0.02928,-0.04392,-0.03416
-0.0244,0.02196,-0.01952,-0.00732,0.00488,-0.01464,0.00976,0.00976,0.01464,-0.03904,-0.05368,-0.0488
-0.02928,0.02196,-0.01464,0,0.01464,-0.02196,0,0.00488,0.00488,-0.0488,-0.06832,-0.06344
-0.03904,0.0244,-0.00976,0.00976,0.02928,-0.03416,-0.00488,0,0,-0.05368,-0.07808,-0.0732
-0.05856,0.03172,-0.00488,0.0244,0.05368,-0.05612,-0.00488,0.00488,-0.00488,-0.04392,-0.06344,-0.05368
-0.0732,0.03416,0.00488,0.04148,0.07808,-0.07564,-0.00488,0.00976,-0.00488,-0.03416,-0.05368,-0.03904
-0.05368,0.0244,0.00488,0.03172,0.05856,-0.05612,0.00488,0.01464,-0.00488,-0.03416,-0.0488,-0.03416
-0.05368,0.0244,0.00488,0.03172,0.05856,-0.05612,-0.00488,0.01952,-0.00488,-0.03416,-0.04392,-0.02928
-0.0488,0.02928,-0.00976,0.01464,0.03904,-0.04392,0.00488,0.0244,0,-0.02928,-0.03904,-0.02928
-0.04392,0.03904,-0.03416,-0.0122,0.00976,-0.02684,0.01464,0.0244,0.01952,-0.01952,-0.02928,-0.02928
-0.04392,0.0244,-0.00488,0.01708,0.03904,-0.04148,0.01464,0.01464,0.00976,-0.02928,-0.05856,-0.04392
-0.04392,0.02928,-0.01464,0.00732,0.02928,-0.0366,0.01952,0.0244,0.00976,-0.02928,-0.06832,-0.0488
-0.0488,0.03416,-0.01952,0.00488,0.02928,-0.03904,0.01952,0.01952,0.00976,-0.03416,-0.06832,-0.0488
-0.0488,0.03904,-0.02928,-0.00488,0.01952,-0.03416,0.0244,0.01464,0.00488,-0.03416,-0.06832,-0.0488
-0.0488,0.02196,0.00488,0.02928,0.05368,-0.05124,0.00488,0.00976,0.00488,-0.03416,-0.06344,-0.0488
-0.06344,0.0122,0.03904,0.07076,0.10248,-0.08296,-0.01464,0.00976,0,-0.03416,-0.06344,-0.0488
-0.06344,0.05124,-0.03904,-0.00732,0.0244,-0.04392,0.00976,0.02928,0.01464,-0.01464,-0.04392,-0.03416
-0.05856,0.08296,-0.10736,-0.07808,-0.0488,-0.00488,0.03904,0.0488,0.02928,0.00488,-0.01952,-0.00976
-0.05368,0.0488,-0.04392,-0.01708,0.00976,-0.03172,0.01952,0.0244,0.00976,-0.01952,-0.03904,-0.0244
-0.04392,0.00976,0.0244,0.04636,0.06832,-0.05612,-0.00488,0,-0.00976,-0.04392,-0.06344,-0.04392
-0.02928,-0.00244,0.03416,0.0488,0.06344,-0.04636,-0.01464,-0.00976,-0.01952,-0.05368,-0.0732,-0.06832
-0.01952,-0.00244,0.0244,0.03416,0.04392,-0.03172,-0.01464,-0.00976,-0.01952,-0.05368,-0.0732,-0.08296
-0.03904,0.01708,0.00488,0.0244,0.04392,-0.04148,0.00976,0,-0.00488,-0.05368,-0.06832,-0.06832
-0.0732,0.04392,-0.01464,0.02196,0.05856,-0.06588,0.01464,0.00488,0,-0.04392,-0.05368,-0.04392
-0.06344,0.0366,-0.00976,0.02196,0.05368,-0.05856,0.00976,0.00976,-0.00976,-0.02928,-0.05368,-0.03904
-0.05368,0.03172,-0.00976,0.01708,0.04392,-0.0488,0.00488,0.01464,-0.00976,-0.02928,-0.04392,-0.02928
-0.0488,0.02928,-0.00976,0.01464,0.03904,-0.04392,0.00488,0.00976,-0.01952,-0.03904,-0.05368,-0.03904
-0.0488,0.02928,-0.00976,0.01464,0.03904,-0.04392,0.00488,0.00976,-0.0244,-0.03904,-0.06344,-0.0488
-0.04392,0.02196,0,0.02196,0.04392,-0.04392,0,0,-0.0244,-0.03904,-0.06344,-0.0488
-0.04392,0.0122,0.01952,0.04148,0.06344,-0.05368,-0.00488,-0.00488,-0.01952,-0.03904,-0.05856,-0.0488
-0.05368,0.03172,-0.00976,0.01708,0.04392,-0.0488,-0.00488,-0.00488,-0.01464,-0.03904,-0.05368,-0.0488
-0.05856,0.04392,-0.02928,0,0.02928,-0.04392,-0.00488,-0.00488,-0.01464,-0.0488,-0.05856,-0.0488
-0.05856,0.03416,-0.00976,0.01952,0.0488,-0.05368,-0.00488,-0.00488,-0.01464,-0.0488,-0.05856,-0.05368
-0.05856,0.02928,0,0.02928,0.05856,-0.05856,0,-0.00488,-0.01464,-0.04392,-0.05856,-0.05368
-0.0488,0.0366,-0.0244,0,0.0244,-0.0366,0.00488,-0.00488,-0.01464,-0.04392,-0.05856,-0.0488
-0.03904,0.03172,-0.0244,-0.00488,0.01464,-0.02684,0.00488,-0.00488,-0.01952,-0.05856,-0.06344,-0.04392
-0.03904,0.03172,-0.0244,-0.00488,0.01464,-0.02684,0.00488,0,-0.01952,-0.05856,-0.06344,-0.04392
-0.03904,0.03172,-0.0244,-0.00488,0.01464,-0.02684,0.00488,0.00488,-0.0244,-0.04392,-0.06344,-0.04392
-0.03904,0.0366,-0.03416,-0.01464,0.00488,-0.02196,0.00488,-0.00488,-0.0244,-0.04392,-0.06344,-0.04392
-0.0488,0.04392,-0.03904,-0.01464,0.00976,-0.02928,0.00488,-0.00488,-0.0244,-0.04392,-0.06344,-0.03904
-0.0488,0.0366,-0.0244,0,0.0244,-0.0366,0.00488,0,-0.0244,-0.0488,-0.05856,-0.03904
-0.0488,0.03416,-0.01952,0.00488,0.02928,-0.03904,0.00488,-0.00488,-0.0244,-0.0488,-0.0488,-0.04392
-0.04392,0.0244,-0.00488,0.01708,0.03904,-0.04148,0.00488,-0.00976,-0.02928,-0.05368,-0.05856,-0.0488
-0.04392,0.0244,-0.00488,0.01708,0.03904,-0.04148,0.00488,-0.00976,-0.03416,-0.05856,-0.06344,-0.05368
-0.0488,0.01708,0.01464,0.03904,0.06344,-0.05612,-0.00488,-0.00976,-0.04392,-0.06832,-0.0732,-0.06344
-0.05368,0.0122,0.02928,0.05612,0.08296,-0.06832,-0.00976,-0.01952,-0.0488,-0.0732,-0.08296,-0.0732
-0.05368,0.03172,-0.00976,0.01708,0.04392,-0.0488,0,-0.00976,-0.02928,-0.06344,-0.0732,-0.05856
-0.03904,0.04636,-0.05368,-0.03416,-0.01464,-0.0122,0.00976,-0.00976,-0.01464,-0.06344,-0.06344,-0.0488
-0.0488,0.04148,-0.03416,-0.00976,0.01464,-0.03172,0.01464,-0.00976,-0.01464,-0.05856,-0.06832,-0.0488
-0.0488,0.04148,-0.03416,-0.00976,0.01464,-0.03172,0.01464,-0.01464,-0.01952,-0.05856,-0.06832,-0.05368
-0.04392,0.04392,-0.04392,-0.02196,0,-0.02196,0,-0.01952,-0.02928,-0.06344,-0.06832,-0.05856
-0.04392,0.03904,-0.03416,-0.0122,0.00976,-0.02684,0,-0.01464,-0.02928,-0.05856,-0.06344,-0.05856
-0.05368,0.05612,-0.05856,-0.03172,-0.00488,-0.0244,0.01464,-0.00976,-0.0244,-0.0488,-0.05856,-0.05368
-0.04392,0.05612,-0.06832,-0.04636,-0.0244,-0.00976,0.0244,-0.00488,-0.0244,-0.04392,-0.05368,-0.03904
-0.03416,0.04148,-0.0488,-0.03172,-0.01464,-0.00976,0.00488,-0.01464,-0.03416,-0.05856,-0.06832,-0.0488
-0.0244,0.01464,-0.00488,0.00732,0.01952,-0.02196,-0.00976,-0.02928,-0.04392,-0.07808,-0.08784,-0.05856
-0.03904,0.0122,0.01464,0.03416,0.05368,-0.04636,-0.00976,-0.02928,-0.04392,-0.08296,-0.08784,-0.06832
-0.0488,0.0244,0,0.0244,0.0488,-0.0488,0.00488,-0.0244,-0.03904,-0.08296,-0.08296,-0.06832
-0.04392,0.0366,-0.02928,-0.00732,0.01464,-0.02928,0,-0.00976,-0.03416,-0.06832,-0.07808,-0.05856
-0.04392,0.04636,-0.0488,-0.02684,-0.00488,-0.01952,0.00488,0,-0.03416,-0.0488,-0.0732,-0.05368
-0.0488,0.03904,-0.02928,-0.00488,0.01952,-0.03416,0.00488,-0.00976,-0.03416,-0.05856,-0.0732,-0.05368
-0.0488,0.02928,-0.00976,0.01464,0.03904,-0.04392,0.00488,-0.01952,-0.03416,-0.0732,-0.0732,-0.05368
-0.0488,0.0244,0,0.0244,0.0488,-0.0488,0.00488,-0.01952,-0.03904,-0.0732,-0.0732,-0.0488
-0.0488,0.01952,0.00976,0.03416,0.05856,-0.05368,0.00488,-0.01464,-0.04392,-0.0732,-0.0732,-0.0488
-0.0488,0.02684,-0.00488,0.01952,0.04392,-0.04636,0.00488,-0.01464,-0.04392,-0.0732,-0.07808,-0.05856
-0.04392,0.02928,-0.01464,0.00732,0.02928,-0.0366,0,-0.01464,-0.05368,-0.0732,-0.08296,-0.06344
-0.04392,0.03172,-0.01952,0.00244,0.0244,-0.03416,0,-0.01464,-0.0488,-0.06832,-0.08296,-0.06344
-0.04392,0.03172,-0.01952,0.00244,0.0244,-0.03416,0.00488,-0.00976,-0.03904,-0.06344,-0.07808,-0.05856
-0.04392,0.04148,-0.03904,-0.01708,0.00488,-0.0244,0.00488,-0.00976,-0.02928,-0.06344,-0.07808,-0.05856
-0.04392,0.04148,-0.03904,-0.01708,0.00488,-0.0244,0.00488,-0.01464,-0.02928,-0.06344,-0.07808,-0.05856
-0.04392,0.02684,-0.00976,0.0122,0.03416,-0.03904,0,-0.01952,-0.03904,-0.06832,-0.08296,-0.06344
-0.04392,0.03172,-0.01952,0.00244,0.0244,-0.03416,0,-0.00976,-0.03904,-0.0732,-0.08296,-0.05856
-0.05368,0.0366,-0.01952,0.00732,0.03416,-0.04392,0,-0.00976,-0.03904,-0.0732,-0.08296,-0.05856
-0.05856,0.03904,-0.01952,0.00976,0.03904,-0.0488,0,-0.01952,-0.04392,-0.0732,-0.08296,-0.06344
-0.05368,0.02928,-0.00488,0.02196,0.0488,-0.05124,0,-0.01952,-0.0488,-0.0732,-0.08296,-0.05856
-0.05368,0.03416,-0.01464,0.0122,0.03904,-0.04636,0,-0.01952,-0.05368,-0.0732,-0.07808,-0.05368
-0.05368,0.04148,-0.02928,-0.00244,0.0244,-0.03904,0,-0.01952,-0.05368,-0.0732,-0.07808,-0.05368
-0.05368,0.04392,-0.03416,-0.00732,0.01952,-0.0366,0.00488,-0.01464,-0.0488,-0.06832,-0.07808,-0.05856
-0.03904,0.0366,-0.03416,-0.01464,0.00488,-0.02196,0.00488,-0.01464,-0.04392,-0.06832,-0.07808,-0.05368
-0.02928,0.03416,-0.03904,-0.0244,-0.00976,-0.00976,0.00976,-0.01952,-0.03904,-0.06832,-0.07808,-0.0488
-0.03416,0.03416,-0.03416,-0.01708,0,-0.01708,0.00976,-0.01952,-0.03904,-0.06832,-0.07808,-0.0488
-0.03904,0.03416,-0.02928,-0.00976,0.00976,-0.0244,0.00976,-0.01952,-0.03904,-0.06832,-0.07808,-0.0488
-0.03904,0.03416,-0.02928,-0.00976,0.00976,-0.0244,0.00976,-0.01952,-0.03904,-0.06832,-0.07808,-0.05368
-0.03904,0.03416,-0.02928,-0.00976,0.00976,-0.0244,0.00976,-0.01952,-0.03904,-0.06832,-0.07808,-0.05856
-0.0488,0.03904,-0.02928,-0.00488,0.01952,-0.03416,0,-0.0244,-0.03904,-0.06832,-0.07808,-0.05856
-0.05856,0.04392,-0.02928,0,0.02928,-0.04392,-0.00976,-0.02928,-0.03904,-0.06832,-0.07808,-0.05856
-0.05856,0.02684,0.00488,0.03416,0.06344,-0.061,-0.01952,-0.02928,-0.03904,-0.06832,-0.07808,-0.05856
-0.05856,0.00976,0.03904,0.06832,0.0976,-0.07808,-0.02928,-0.02928,-0.03904,-0.06832,-0.07808,-0.05856
-0.05856,0.03172,-0.00488,0.0244,0.05368,-0.05612,-0.00976,-0.01952,-0.02928,-0.05856,-0.06832,-0.05368
-0.05856,0.05368,-0.0488,-0.01952,0.00976,-0.03416,0.00976,-0.00976,-0.01952,-0.0488,-0.05856,-0.0488
-0.0488,0.05368,-0.05856,-0.03416,-0.00976,-0.01952,0.01464,-0.00976,-0.01952,-0.0488,-0.05856,-0.0488
-0.03904,0.05368,-0.06832,-0.0488,-0.02928,-0.00488,0.01952,-0.00976,-0.01952,-0.0488,-0.05856,-0.0488
-0.0488,0.0488,-0.0488,-0.0244,0,-0.0244,0.01952,-0.01464,-0.0244,-0.05368,-0.06832,-0.05368
-0.05856,0.04392,-0.02928,0,0.02928,-0.04392,0.01952,-0.01952,-0.02928,-0.05856,-0.07808,-0.05856
-0.05856,0.04392,-0.02928,0,0.02928,-0.04392,0.00976,-0.0244,-0.02928,-0.05856,-0.07808,-0.05856
-0.05856,0.04392,-0.02928,0,0.02928,-0.04392,0,-0.02928,-0.02928,-0.05856,-0.07808,-0.05856
-0.05856,0.04392,-0.02928,0,0.02928,-0.04392,0,-0.02928,-0.03416,-0.06344,-0.07808,-0.05856
-0.05856,0.04392,-0.02928,0,0.02928,-0.04392,0,-0.02928,-0.03904,-0.06832,-0.07808,-0.05856
-0.05856,0.04636,-0.03416,-0.00488,0.0244,-0.04148,0.00488,-0.0244,-0.03904,-0.06832,-0.07808,-0.05856
-0.05856,0.0488,-0.03904,-0.00976,0.01952,-0.03904,0.00976,-0.01952,-0.03904,-0.06832,-0.07808,-0.05856
-0.05856,0.0488,-0.03904,-0.00976,0.01952,-0.03904,0.00976,-0.01952,-0.03904,-0.06832,-0.07808,-0.05856
-0.05856,0.0488,-0.03904,-0.00976,0.01952,-0.03904,0.00976,-0.01952,-0.03904,-0.06832,-0.07808,-0.05856
-0.05856,0.0488,-0.03904,-0.00976,0.01952,-0.03904,0.00976,-0.01952,-0.03904,-0.05856,-0.06832,-0.0488
-0.05856,0.0488,-0.03904,-0.00976,0.01952,-0.03904,0.00976,-0.01952,-0.03904,-0.0488,-0.05856,-0.03904
-0.05856,0.061,-0.06344,-0.03416,-0.00488,-0.02684,0.01952,-0.00488,-0.0244,-0.0488,-0.05856,-0.03904
-0.05856,0.0732,-0.08784,-0.05856,-0.02928,-0.01464,0.02928,0.00976,-0.00976,-0.0488,-0.05856,-0.03904
-0.05856,0.05124,-0.04392,-0.01464,0.01464,-0.0366,0.01952,-0.00976,-0.0244,-0.05856,-0.0732,-0.05368
-0.05856,0.02928,0,0.02928,0.05856,-0.05856,0.00976,-0.02928,-0.03904,-0.06832,-0.08784,-0.06832
-0.05856,0.03416,-0.00976,0.01952,0.0488,-0.05368,0.00976,-0.02928,-0.03904,-0.0732,-0.08784,-0.06832
-0.05856,0.03904,-0.01952,0.00976,0.03904,-0.0488,0.00976,-0.02928,-0.03904,-0.07808,-0.08784,-0.06832
-0.05856,0.03904,-0.01952,0.00976,0.03904,-0.0488,0.00976,-0.0244,-0.03416,-0.07808,-0.08784,-0.05856
-0.05856,0.03904,-0.01952,0.00976,0.03904,-0.0488,0.00976,-0.01952,-0.02928,-0.07808,-0.08784,-0.0488
-0.05368,0.03416,-0.01464,0.0122,0.03904,-0.04636,0.00488,-0.01952,-0.02928,-0.06832,-0.07808,-0.0488
