i,aVR,ii,aVF,iii,aVL,V1,V2,V3,V4,V5,V6
0.0488,0.00488,-0.05856,-0.08296,-0.10736,0.07808,0.07808,0.1464,0.07808,0.00976,0.02928,0.01952
0.0488,0,-0.0488,-0.0732,-0.0976,0.0732,0.07808,0.15616,0.07808,0.00976,0.02928,0.01952
0.0488,-0.00488,-0.03904,-0.06344,-0.08784,0.06832,0.07808,0.16592,0.07808,0.00976,0.02928,0.01952
0.05368,-0.00976,-0.03416,-0.061,-0.08784,0.07076,0.07808,0.1708,0.07808,0.01464,0.03416,0.01952
0.05856,-0.01464,-0.02928,-0.05856,-0.08784,0.0732,0.07808,0.17568,0.07808,0.01952,0.03904,0.01952
0.06344,-0.02196,-0.01952,-0.05124,-0.08296,0.0732,0.07808,0.18544,0.08296,0.0244,0.03904,0.0244
0.06832,-0.02928,-0.00976,-0.04392,-0.07808,0.0732,0.07808,0.1952,0.08784,0.02928,0.03904,0.02928
0.07808,-0.0366,-0.00488,-0.04392,-0.08296,0.08052,0.08296,0.20496,0.09272,0.02928,0.04392,0.03416
0.08784,-0.04392,0,-0.04392,-0.08784,0.08784,0.08784,0.21472,0.0976,0.02928,0.0488,0.03904
0.0976,-0.05124,0.00488,-0.04392,-0.09272,0.09516,0.08784,0.22936,0.10248,0.03416,0.0488,0.03904
0.10736,-0.05856,0.00976,-0.04392,-0.0976,0.10248,0.08784,0.244,0.10736,0.03904,0.0488,0.03904
0.11224,-0.06344,0.01464,-0.04148,-0.0976,0.10492,0.09272,0.25864,0.11712,0.04392,0.05368,0.03904
0.11712,-0.06832,0.01952,-0.03904,-0.0976,0.10736,0.0976,0.27328,0.12688,0.0488,0.05856,0.03904
0.12688,-0.07564,0.0244,-0.03904,-0.10248,0.11468,0.0976,0.28792,0.13176,0.05856,0.06832,0.05368
0.13664,-0.08296,0.02928,-0.03904,-0.10736,0.122,0.0976,0.30256,0.13664,0.06832,0.07808,0.06832
0.14152,-0.09028,0.03904,-0.03172,-0.10248,0.122,0.10248,0.3172,0.14152,0.0732,0.08296,0.06832
0.1464,-0.0976,0.0488,-0.0244,-0.0976,0.122,0.10736,0.33184,0.1464,0.07808,0.08784,0.06832
0.15616,-0.10248,0.0488,-0.02928,-0.10736,0.13176,0.10736,0.34648,0.15128,0.08296,0.09272,0.0732
0.16592,-0.10736,0.0488,-0.03416,-0.11712,0.14152,0.10736,0.36112,0.15616,0.08784,0.0976,0.07808
0.17568,-0.11712,0.05856,-0.02928,-0.11712,0.1464,0.10736,0.37576,0.16104,0.0976,0.10736,0.08784
0.18544,-0.12688,0.06832,-0.0244,-0.11712,0.15128,0.10736,0.3904,0.16592,0.10736,0.11712,0.0976
0.19032,-0.1342,0.07808,-0.01708,-0.11224,0.15128,0.10248,0.39528,0.16592,0.10736,0.12688,0.10248
0.1952,-0.14152,0.08784,-0.00976,-0.10736,0.15128,0.0976,0.40016,0.16592,0.10736,0.13664,0.10736
0.20008,-0.1464,0.09272,-0.00732,-0.10736,0.15372,0.09272,0.40016,0.16104,0.10736,0.13664,0.11224
0.20496,-0.15128,0.0976,-0.00488,-0.10736,0.15616,0.08784,0.40016,0.15616,0.10736,0.13664,0.11712
0.20496,-0.15128,0.0976,-0.00488,-0.10736,0.15616,0.07808,0.40016,0.15616,0.10248,0.13176,0.11712
0.20496,-0.15128,0.0976,-0.00488,-0.10736,0.15616,0.06832,0.40016,0.15616,0.0976,0.12688,0.11712
0.20496,-0.15128,0.0976,-0.00488,-0.10736,0.15616,0.06832,0.39528,0.1464,0.08784,0.122,0.11224
0.20496,-0.15128,0.0976,-0.00488,-0.10736,0.15616,0.06832,0.3904,0.13664,0.07808,0.11712,0.10736
0.20008,-0.14884,0.0976,-0.00244,-0.10248,0.15128,0.06344,0.37576,0.12688,0.06832,0.11224,0.10736
0.1952,-0.1464,0.0976,0,-0.0976,0.1464,0.05856,0.36112,0.11712,0.05856,0.10736,0.10736
0.19032,-0.14152,0.09272,-0.00244,-0.0976,0.14396,0.05368,0.3416,0.11224,0.05368,0.10736,0.10248
0.18544,-0.13664,0.08784,-0.00488,-0.0976,0.14152,0.0488,0.32208,0.10736,0.0488,0.10736,0.0976
0.17568,-0.12688,0.07808,-0.00976,-0.0976,0.13664,0.04392,0.30256,0.10248,0.04392,0.10248,0.0976
0.16592,-0.11712,0.06832,-0.01464,-0.0976,0.13176,0.03904,0.28304,0.0976,0.03904,0.0976,0.0976
0.14152,-0.0976,0.05368,-0.01708,-0.08784,0.11468,0.03416,0.24888,0.09272,0.03416,0.09272,0.09272
0.11712,-0.07808,0.03904,-0.01952,-0.07808,0.0976,0.02928,0.21472,0.08784,0.02928,0.08784,0.08784
0.10736,-0.06832,0.02928,-0.0244,-0.07808,0.09272,0.0244,0.18544,0.08296,0.0244,0.07808,0.08296
0.0976,-0.05856,0.01952,-0.02928,-0.07808,0.08784,0.01952,0.15616,0.07808,0.01952,0.06832,0.07808
0.07808,-0.04392,0.00976,-0.02928,-0.06832,0.0732,0.01464,0.13176,0.07808,0.01464,0.06832,0.0732
0.05856,-0.02928,0,-0.02928,-0.05856,0.05856,0.00976,0.10736,0.07808,0.00976,0.06832,0.06832
0.04392,-0.01708,-0.00976,-0.03172,-0.05368,0.0488,0.00488,0.09272,0.07808,0.00976,0.06344,0.06344
0.02928,-0.00488,-0.01952,-0.03416,-0.0488,0.03904,0,0.07808,0.07808,0.00976,0.05856,0.05856
0.01464,0.00732,-0.02928,-0.0366,-0.04392,0.02928,-0.00488,0.05368,0.08296,0.00976,0.0488,0.05368
0,0.01952,-0.03904,-0.03904,-0.03904,0.01952,-0.00976,0.02928,0.08784,0.00976,0.03904,0.0488
-0.00488,0.0244,-0.04392,-0.04148,-0.03904,0.01708,-0.01464,0.01952,0.08784,0.00488,0.03904,0.04392
-0.00976,0.02928,-0.0488,-0.04392,-0.03904,0.01464,-0.01952,0.00976,0.08784,0,0.03904,0.03904
-0.01464,0.03416,-0.05368,-0.04636,-0.03904,0.0122,-0.01952,0.00488,0.08784,0,0.03904,0.03904
-0.01952,0.03904,-0.05856,-0.0488,-0.03904,0.00976,-0.01952,0,0.08784,0,0.03904,0.03904
-0.01952,0.03904,-0.05856,-0.0488,-0.03904,0.00976,-0.01952,-0.00488,0.08784,0,0.04392,0.03904
-0.01952,0.03904,-0.05856,-0.0488,-0.03904,0.00976,-0.01952,-0.00976,0.08784,0,0.0488,0.03904
-0.01952,0.03904,-0.05856,-0.0488,-0.03904,0.00976,-0.01464,-0.00976,0.08784,0,0.0488,0.03904
-0.01952,0.03904,-0.05856,-0.0488,-0.03904,0.00976,-0.00976,-0.00976,0.08784,0,0.0488,0.03904
-0.0244,0.04148,-0.05856,-0.04636,-0.03416,0.00488,-0.00976,-0.00976,0.08784,0,0.04392,0.03904
-0.02928,0.04392,-0.05856,-0.04392,-0.02928,0,-0.00976,-0.00976,0.08784,0,0.03904,0.03904
-0.02928,0.04636,-0.06344,-0.0488,-0.03416,0.00244,-0.00976,-0.00488,0.09272,0,0.03904,0.03416
-0.02928,0.0488,-0.06832,-0.05368,-0.03904,0.00488,-0.00976,0,0.0976,0,0.03904,0.02928
-0.0244,0.04636,-0.06832,-0.05612,-0.04392,0.00976,-0.00976,0,0.0976,0.00488,0.03904,0.02928
-0.01952,0.04392,-0.06832,-0.05856,-0.0488,0.01464,-0.00976,0,0.0976,0.00976,0.03904,0.02928
-0.01952,0.04148,-0.06344,-0.05368,-0.04392,0.0122,-0.00976,0.00488,0.0976,0.00976,0.04392,0.02928
-0.01952,0.03904,-0.05856,-0.0488,-0.03904,0.00976,-0.00976,0.00976,0.0976,0.00976,0.0488,0.02928
-0.01952,0.03904,-0.05856,-0.0488,-0.03904,0.00976,-0.00488,0.00976,0.10248,0.00976,0.0488,0.03416
-0.01952,0.03904,-0.05856,-0.0488,-0.03904,0.00976,0,0.00976,0.10736,0.00976,0.0488,0.03904
-0.01464,0.03416,-0.05368,-0.04636,-0.03904,0.0122,0,0.01464,0.11224,0.01464,0.0488,0.03904
-0.00976,0.02928,-0.0488,-0.04392,-0.03904,0.01464,0,0.01952,0.11712,0.01952,0.0488,0.03904
-0.00976,0.02928,-0.0488,-0.04392,-0.03904,0.01464,0,0.01952,0.11712,0.0244,0.0488,0.03904
-0.00976,0.02928,-0.0488,-0.04392,-0.03904,0.01464,0,0.01952,0.11712,0.02928,0.0488,0.03904
-0.00976,0.02928,-0.0488,-0.04392,-0.03904,0.01464,0,0.01952,0.122,0.02928,0.0488,0.03904
-0.00976,0.02928,-0.0488,-0.04392,-0.03904,0.01464,0,0.01952,0.12688,0.02928,0.0488,0.03904
-0.00976,0.02928,-0.0488,-0.04392,-0.03904,0.01464,0,0.01952,0.12688,0.02928,0.05368,0.03904
-0.00976,0.02928,-0.0488,-0.04392,-0.03904,0.01464,0,0.01952,0.12688,0.02928,0.05856,0.03904
-0.00976,0.02684,-0.04392,-0.03904,-0.03416,0.0122,0,0.01952,0.12688,0.03416,0.05856,0.03904
-0.00976,0.0244,-0.03904,-0.03416,-0.02928,0.00976,0,0.01952,0.12688,0.03904,0.05856,0.03904
-0.00976,0.0244,-0.03904,-0.03416,-0.02928,0.00976,0,0.01464,0.122,0.03904,0.05856,0.03904
-0.00976,0.0244,-0.03904,-0.03416,-0.02928,0.00976,0,0.00976,0.11712,0.03904,0.05856,0.03904
-0.00488,0.01952,-0.03416,-0.03172,-0.02928,0.0122,-0.00488,0.00976,0.11712,0.03904,0.05856,0.03904
0,0.01464,-0.02928,-0.02928,-0.02928,0.01464,-0.00976,0.00976,0.11712,0.03904,0.05856,0.03904
0,0.00976,-0.01952,-0.01952,-0.01952,0.00976,-0.00976,0.00488,0.11712,0.03416,0.05856,0.03904
0,0.00488,-0.00976,-0.00976,-0.00976,0.00488,-0.00976,0,0.11712,0.02928,0.05856,0.03904
0,0.00488,-0.00976,-0.00976,-0.00976,0.00488,-0.00976,0,0.11712,0.02928,0.05368,0.03416
0,0.00488,-0.00976,-0.00976,-0.00976,0.00488,-0.00976,0,0.11712,0.02928,0.0488,0.02928
-0.00488,0.00976,-0.01464,-0.0122,-0.00976,0.00244,-0.00976,-0.00488,0.11224,0.02928,0.0488,0.02928
-0.00976,0.01464,-0.01952,-0.01464,-0.00976,0,-0.00976,-0.00976,0.10736,0.02928,0.0488,0.02928
-0.00976,0.01464,-0.01952,-0.01464,-0.00976,0,-0.00976,-0.00976,0.10736,0.02928,0.0488,0.02928
-0.00976,0.01464,-0.01952,-0.01464,-0.00976,0,-0.00976,-0.00976,0.10736,0.02928,0.0488,0.02928
-0.00976,0.01464,-0.01952,-0.01464,-0.00976,0,-0.00976,-0.00976,0.10736,0.02928,0.0488,0.02928
-0.00976,0.01464,-0.01952,-0.01464,-0.00976,0,-0.00976,-0.00976,0.10736,0.02928,0.0488,0.02928
-0.00976,0.01464,-0.01952,-0.01464,-0.00976,0,-0.00976,-0.00976,0.10736,0.02928,0.0488,0.02928
-0.00976,0.01464,-0.01952,-0.01464,-0.00976,0,-0.00976,-0.00976,0.10736,0.02928,0.0488,0.02928
-0.00976,0.01708,-0.0244,-0.01952,-0.01464,0.00244,-0.00976,-0.00976,0.10736,0.02928,0.04392,0.02928
-0.00976,0.01952,-0.02928,-0.0244,-0.01952,0.00488,-0.00976,-0.00976,0.10736,0.02928,0.03904,0.02928
-0.00976,0.01952,-0.02928,-0.0244,-0.01952,0.00488,-0.00976,-0.00976,0.10736,0.02928,0.03416,0.02928
-0.00976,0.01952,-0.02928,-0.0244,-0.01952,0.00488,-0.00976,-0.00976,0.10736,0.02928,0.02928,0.02928
-0.00976,0.01952,-0.02928,-0.0244,-0.01952,0.00488,-0.00976,-0.00976,0.10736,0.02928,0.02928,0.0244
-0.00976,0.01952,-0.02928,-0.0244,-0.01952,0.00488,-0.00976,-0.00976,0.10736,0.02928,0.02928,0.01952
-0.00976,0.01952,-0.02928,-0.0244,-0.01952,0.00488,-0.00976,-0.00976,0.10248,0.0244,0.02928,0.01952
-0.00976,0.01952,-0.02928,-0.0244,-0.01952,0.00488,-0.00976,-0.00976,0.0976,0.01952,0.02928,0.01952
-0.00976,0.01952,-0.02928,-0.0244,-0.01952,0.00488,-0.00976,-0.01464,0.0976,0.01952,0.02928,0.01952
-0.00976,0.01952,-0.02928,-0.0244,-0.01952,0.00488,-0.00976,-0.01952,0.0976,0.01952,0.02928,0.01952
-0.00976,0.01708,-0.0244,-0.01952,-0.01464,0.00244,-0.00976,-0.01952,0.0976,0.01952,0.0244,0.01464
-0.00976,0.01464,-0.01952,-0.01464,-0.00976,0,-0.00976,-0.01952,0.0976,0.01952,0.01952,0.00976
-0.00488,0.0122,-0.01952,-0.01708,-0.01464,0.00488,-0.01464,-0.01952,0.0976,0.01464,0.01464,0.00488
0,0.00976,-0.01952,-0.01952,-0.01952,0.00976,-0.01952,-0.01952,0.0976,0.00976,0.00976,0
0,0.00976,-0.01952,-0.01952,-0.01952,0.00976,-0.01952,-0.01952,0.09272,0.00976,0.00976,0
0,0.00976,-0.01952,-0.01952,-0.01952,0.00976,-0.01952,-0.01952,0.08784,0.00976,0.00976,0
0,0.00732,-0.01464,-0.01464,-0.01464,0.00732,-0.01952,-0.01952,0.08296,0.00976,0.00976,0
0,0.00488,-0.00976,-0.00976,-0.00976,0.00488,-0.01952,-0.01952,0.07808,0.00976,0.00976,0
0,0.00488,-0.00976,-0.00976,-0.00976,0.00488,-0.01952,-0.01952,0.07808,0.00976,0.00976,0
0,0.00488,-0.00976,-0.00976,-0.00976,0.00488,-0.01952,-0.01952,0.07808,0.00976,0.00976,0
0,0.00488,-0.00976,-0.00976,-0.00976,0.00488,-0.01952,-0.0244,0.07808,0.00976,0.00976,0
0,0.00488,-0.00976,-0.00976,-0.00976,0.00488,-0.01952,-0.02928,0.07808,0.00976,0.00976,0
0,0.00488,-0.00976,-0.00976,-0.00976,0.00488,-0.01952,-0.02928,0.0732,0.00976,0.00488,0
0,0.00488,-0.00976,-0.00976,-0.00976,0.00488,-0.01952,-0.02928,0.06832,0.00976,0,0
0,0.00488,-0.00976,-0.00976,-0.00976,0.00488,-0.01952,-0.0244,0.06832,0.00488,0,0
0,0.00488,-0.00976,-0.00976,-0.00976,0.00488,-0.01952,-0.01952,0.06832,0,0,0
0,0.00732,-0.01464,-0.01464,-0.01464,0.00732,-0.01464,-0.01952,0.06832,0,-0.00488,0
0,0.00976,-0.01952,-0.01952,-0.01952,0.00976,-0.00976,-0.01952,0.06832,0,-0.00976,0
0,0.0122,-0.0244,-0.0244,-0.0244,0.0122,-0.00976,-0.01952,0.06344,0,-0.00976,0
0,0.01464,-0.02928,-0.02928,-0.02928,0.01464,-0.00976,-0.01952,0.05856,0,-0.00976,0
0,0.01464,-0.02928,-0.02928,-0.02928,0.01464,-0.01464,-0.01952,0.05856,0,-0.00488,0.00488
0,0.01464,-0.02928,-0.02928,-0.02928,0.01464,-0.01952,-0.01952,0.05856,0,0,0.00976
0,0.0122,-0.0244,-0.0244,-0.0244,0.0122,-0.0244,-0.01952,0.05856,-0.00488,0,0.00976
0,0.00976,-0.01952,-0.01952,-0.01952,0.00976,-0.02928,-0.01952,0.05856,-0.00976,0,0.00976
0,0.00976,-0.01952,-0.01952,-0.01952,0.00976,-0.02928,-0.01952,0.05368,-0.00976,0,0.00488
0,0.00976,-0.01952,-0.01952,-0.01952,0.00976,-0.02928,-0.01952,0.0488,-0.00976,0,0
0.00488,0.00732,-0.01952,-0.02196,-0.0244,0.01464,-0.02928,-0.01952,0.0488,-0.00488,0,0
0.00976,0.00488,-0.01952,-0.0244,-0.02928,0.01952,-0.02928,-0.01952,0.0488,0,0,0
0.00976,0.00732,-0.0244,-0.02928,-0.03416,0.02196,-0.02928,-0.01952,0.0488,0,0,0.00488
0.00976,0.00976,-0.02928,-0.03416,-0.03904,0.0244,-0.02928,-0.01952,0.0488,0,0,0.00976
0.00488,0.0122,-0.02928,-0.03172,-0.03416,0.01952,-0.02928,-0.01464,0.04392,0,0,0.00976
0,0.01464,-0.02928,-0.02928,-0.02928,0.01464,-0.02928,-0.00976,0.03904,0,0,0.00976
0,0.01464,-0.02928,-0.02928,-0.02928,0.01464,-0.03416,-0.00976,0.03416,0,0,0.00976
0,0.01464,-0.02928,-0.02928,-0.02928,0.01464,-0.03904,-0.00976,0.02928,0,0,0.00976
0,0.01464,-0.02928,-0.02928,-0.02928,0.01464,-0.03904,-0.00976,0.02928,0,0,0.00976
0,0.01464,-0.02928,-0.02928,-0.02928,0.01464,-0.03904,-0.00976,0.02928,0,0,0.00976
-0.00488,0.01708,-0.02928,-0.02684,-0.0244,0.00976,-0.03904,-0.00976,0.0244,-0.00488,0,0.00976
-0.00976,0.01952,-0.02928,-0.0244,-0.01952,0.00488,-0.03904,-0.00976,0.01952,-0.00976,0,0.00976
-0.00976,0.01952,-0.02928,-0.0244,-0.01952,0.00488,-0.03904,-0.00976,0.01464,-0.00976,0.00488,0.00976
-0.00976,0.01952,-0.02928,-0.0244,-0.01952,0.00488,-0.03904,-0.00976,0.00976,-0.00976,0.00976,0.00976
-0.00488,0.01464,-0.0244,-0.02196,-0.01952,0.00732,-0.03904,-0.00976,0.00976,-0.00488,0.00976,0.00976
0,0.00976,-0.01952,-0.01952,-0.01952,0.00976,-0.03904,-0.00976,0.00976,0,0.00976,0.00976
0,0.00976,-0.01952,-0.01952,-0.01952,0.00976,-0.04392,-0.00976,0.00488,0,0.00976,0.00976
0,0.00976,-0.01952,-0.01952,-0.01952,0.00976,-0.0488,-0.00976,0,0,0.00976,0.00976
0,0.00976,-0.01952,-0.01952,-0.01952,0.00976,-0.0488,-0.01464,-0.00488,0,0.00976,0.00976
0,0.00976,-0.01952,-0.01952,-0.01952,0.00976,-0.0488,-0.01952,-0.00976,0,0.00976,0.00976
0,0.0122,-0.0244,-0.0244,-0.0244,0.0122,-0.0488,-0.01952,-0.00976,-0.00488,0.00488,0.00976
0,0.01464,-0.02928,-0.02928,-0.02928,0.01464,-0.0488,-0.01952,-0.00976,-0.00976,0,0.00976
0,0.01708,-0.03416,-0.03416,-0.03416,0.01708,-0.0488,-0.01464,-0.00976,-0.00976,0,0.00488
0,0.01952,-0.03904,-0.03904,-0.03904,0.01952,-0.0488,-0.00976,-0.00976,-0.00976,0,0
0,0.01952,-0.03904,-0.03904,-0.03904,0.01952,-0.0488,-0.00976,-0.00976,-0.00976,0,0
0,0.01952,-0.03904,-0.03904,-0.03904,0.01952,-0.0488,-0.00976,-0.00976,-0.00976,0,0
0,0.01952,-0.03904,-0.03904,-0.03904,0.01952,-0.0488,-0.01464,-0.00976,-0.00976,0.00488,0
0,0.01952,-0.03904,-0.03904,-0.03904,0.01952,-0.0488,-0.01952,-0.00976,-0.00976,0.00976,0
0,0.01952,-0.03904,-0.03904,-0.03904,0.01952,-0.05368,-0.01952,-0.00976,-0.00976,0.00976,0.00488
0,0.01952,-0.03904,-0.03904,-0.03904,0.01952,-0.05856,-0.01952,-0.00976,-0.00976,0.00976,0.00976
0,0.01952,-0.03904,-0.03904,-0.03904,0.01952,-0.05856,-0.01464,-0.00976,-0.00976,0.00976,0.00976
0,0.01952,-0.03904,-0.03904,-0.03904,0.01952,-0.05856,-0.00976,-0.00976,-0.00976,0.00976,0.00976
0,0.01952,-0.03904,-0.03904,-0.03904,0.01952,-0.05856,-0.00976,-0.01464,-0.00976,0.00976,0.00488
0,0.01952,-0.03904,-0.03904,-0.03904,0.01952,-0.05856,-0.00976,-0.01952,-0.00976,0.00976,0
0,0.01952,-0.03904,-0.03904,-0.03904,0.01952,-0.05856,-0.00976,-0.01952,-0.00976,0.00976,0
0,0.01952,-0.03904,-0.03904,-0.03904,0.01952,-0.05856,-0.00976,-0.01952,-0.00976,0.00976,0
0,0.01952,-0.03904,-0.03904,-0.03904,0.01952,-0.05856,-0.00976,-0.01464,-0.00976,0.00976,0
0,0.01952,-0.03904,-0.03904,-0.03904,0.01952,-0.05856,-0.00976,-0.00976,-0.00976,0.00976,0
0,0.01464,-0.02928,-0.02928,-0.02928,0.01464,-0.05368,-0.00488,-0.00976,-0.00488,0.00976,0.00488
0,0.00976,-0.01952,-0.01952,-0.01952,0.00976,-0.0488,0,-0.00976,0,0.00976,0.00976
0.00488,0,-0.00488,-0.00732,-0.00976,0.00732,-0.03904,0.00488,0,0.00488,0.01952,0.01464
0.00976,-0.00976,0.00976,0.00488,0,0.00488,-0.02928,0.00976,0.00976,0.00976,0.02928,0.01952
0.01464,-0.01708,0.01952,0.0122,0.00488,0.00488,-0.0244,0.01464,0.01464,0.01952,0.03416,0.0244
0.01952,-0.0244,0.02928,0.01952,0.00976,0.00488,-0.01952,0.01952,0.01952,0.02928,0.03904,0.02928
0.0244,-0.02928,0.03416,0.02196,0.00976,0.00732,-0.01952,0.01952,0.02928,0.02928,0.03904,0.03416
0.02928,-0.03416,0.03904,0.0244,0.00976,0.00976,-0.01952,0.01952,0.03904,0.02928,0.03904,0.03904
0.02928,-0.04148,0.05368,0.03904,0.0244,0.00244,-0.0244,0.01952,0.04392,0.03904,0.0488,0.0488
0.02928,-0.0488,0.06832,0.05368,0.03904,-0.00488,-0.02928,0.01952,0.0488,0.0488,0.05856,0.05856
0.03416,-0.05612,0.07808,0.061,0.04392,-0.00488,-0.03904,0.01464,0.0488,0.05368,0.06344,0.06344
0.03904,-0.06344,0.08784,0.06832,0.0488,-0.00488,-0.0488,0.00976,0.0488,0.05856,0.06832,0.06832
0.04392,-0.06588,0.08784,0.06588,0.04392,0,-0.05856,0.00976,0.0488,0.05856,0.0732,0.06832
0.0488,-0.06832,0.08784,0.06344,0.03904,0.00488,-0.06832,0.00976,0.0488,0.05856,0.07808,0.06832
0.05368,-0.07564,0.0976,0.07076,0.04392,0.00488,-0.0732,0.00488,0.0488,0.05856,0.08296,0.07808
0.05856,-0.08296,0.10736,0.07808,0.0488,0.00488,-0.07808,0,0.0488,0.05856,0.08784,0.08784
0.05856,-0.08296,0.10736,0.07808,0.0488,0.00488,-0.07808,0,0.0488,0.05856,0.08784,0.08784
0.05856,-0.08296,0.10736,0.07808,0.0488,0.00488,-0.07808,0,0.0488,0.05856,0.08784,0.08784
0.05368,-0.0732,0.09272,0.06588,0.03904,0.00732,-0.0732,-0.00488,0.03904,0.05368,0.08296,0.07808
0.0488,-0.06344,0.07808,0.05368,0.02928,0.00976,-0.06832,-0.00976,0.02928,0.0488,0.07808,0.06832
0.03904,-0.05124,0.06344,0.04392,0.0244,0.00732,-0.06832,-0.01464,0.01952,0.03904,0.06832,0.06344
0.02928,-0.03904,0.0488,0.03416,0.01952,0.00488,-0.06832,-0.01952,0.00976,0.02928,0.05856,0.05856
0.01952,-0.01952,0.01952,0.00976,0,0.00976,-0.06344,-0.0244,0.00488,0.01952,0.0488,0.04392
0.00976,0,-0.00976,-0.01464,-0.01952,0.01464,-0.05856,-0.02928,0,0.00976,0.03904,0.02928
0,0.01464,-0.02928,-0.02928,-0.02928,0.01464,-0.0488,-0.02928,-0.00488,0,0.0244,0.01952
-0.00976,0.02928,-0.0488,-0.04392,-0.03904,0.01464,-0.03904,-0.02928,-0.00976,-0.00976,0.00976,0.00976
-0.00976,0.03416,-0.05856,-0.05368,-0.0488,0.01952,-0.03416,-0.0244,-0.01464,-0.01464,0.00488,0.00488
-0.00976,0.03904,-0.06832,-0.06344,-0.05856,0.0244,-0.02928,-0.01952,-0.01952,-0.01952,0,0
-0.00976,0.03904,-0.06832,-0.06344,-0.05856,0.0244,-0.0244,-0.01952,-0.01952,-0.01952,0,-0.00488
-0.00976,0.03904,-0.06832,-0.06344,-0.05856,0.0244,-0.01952,-0.01952,-0.01952,-0.01952,0,-0.00976
-0.00976,0.04148,-0.0732,-0.06832,-0.06344,0.02684,-0.01952,-0.01952,-0.01952,-0.01952,0,-0.00976
-0.00976,0.04392,-0.07808,-0.0732,-0.06832,0.02928,-0.01952,-0.01952,-0.01952,-0.01952,0,-0.00976
-0.00976,0.04392,-0.07808,-0.0732,-0.06832,0.02928,-0.00488,0,-0.00488,-0.00488,0.00488,-0.00976
-0.00976,0.04392,-0.07808,-0.0732,-0.06832,0.02928,0.00976,0.01952,0.00976,0.00976,0.00976,-0.00976
0.03416,-0.01708,0,-0.01708,-0.03416,0.03416,0,0.09272,0.09272,0.12688,0.09272,0.03416
0.07808,-0.07808,0.07808,0.03904,0,0.03904,-0.00976,0.16592,0.17568,0.244,0.17568,0.07808
0.21472,-0.244,0.27328,0.16592,0.05856,0.07808,-0.18544,0.15616,0.26352,0.44896,0.3904,0.22448
0.35136,-0.40992,0.46848,0.2928,0.11712,0.11712,-0.36112,0.1464,0.35136,0.65392,0.60512,0.37088
0.44896,-0.57828,0.7076,0.48312,0.25864,0.09516,-0.6344,-0.02928,0.38064,0.84912,0.83448,0.55632
0.54656,-0.74664,0.94672,0.67344,0.40016,0.0732,-0.90768,-0.20496,0.40992,1.04432,1.06384,0.74176
0.54656,-0.71248,0.8784,0.60512,0.33184,0.10736,-0.98088,-0.33184,0.23424,0.87352,0.95648,0.71248
0.54656,-0.67832,0.81008,0.5368,0.26352,0.14152,-1.05408,-0.45872,0.05856,0.70272,0.84912,0.6832
0.27328,-0.30256,0.33184,0.1952,0.05856,0.10736,-0.92232,-0.62952,-0.27816,0.16592,0.36112,0.366
0,0.0732,-0.1464,-0.1464,-0.1464,0.0732,-0.79056,-0.80032,-0.61488,-0.37088,-0.12688,0.0488
-0.07808,0.15372,-0.22936,-0.19032,-0.15128,0.0366,-0.65392,-0.732,-0.59536,-0.40992,-0.19032,-0.00976
-0.15616,0.23424,-0.31232,-0.23424,-0.15616,0,-0.51728,-0.66368,-0.57584,-0.44896,-0.25376,-0.06832
-0.16592,0.23912,-0.31232,-0.22936,-0.1464,-0.00976,-0.37088,-0.52216,-0.46848,-0.38064,-0.23424,-0.08296
-0.17568,0.244,-0.31232,-0.22448,-0.13664,-0.01952,-0.22448,-0.38064,-0.36112,-0.31232,-0.21472,-0.0976
-0.12688,0.18056,-0.23424,-0.1708,-0.10736,-0.00976,-0.14152,-0.2684,-0.25864,-0.22936,-0.15616,-0.06832
-0.07808,0.11712,-0.15616,-0.11712,-0.07808,0,-0.05856,-0.15616,-0.15616,-0.1464,-0.0976,-0.03904
-0.04392,0.09272,-0.14152,-0.11956,-0.0976,0.02684,-0.01464,-0.08296,-0.10736,-0.11224,-0.08296,-0.03416
-0.00976,0.06832,-0.12688,-0.122,-0.11712,0.05368,0.02928,-0.00976,-0.05856,-0.07808,-0.06832,-0.02928
-0.00976,0.06588,-0.122,-0.11712,-0.11224,0.05124,0.04392,0,-0.04392,-0.06832,-0.05368,-0.02928
-0.00976,0.06344,-0.11712,-0.11224,-0.10736,0.0488,0.05856,0.00976,-0.02928,-0.05856,-0.03904,-0.02928
-0.00488,0.061,-0.11712,-0.11468,-0.11224,0.05368,0.06344,0.0244,-0.0244,-0.05368,-0.03416,-0.02928
0,0.05856,-0.11712,-0.11712,-0.11712,0.05856,0.06832,0.03904,-0.01952,-0.0488,-0.02928,-0.02928
0,0.05612,-0.11224,-0.11224,-0.11224,0.05612,0.0732,0.04392,-0.01464,-0.03904,-0.0244,-0.0244
0,0.05368,-0.10736,-0.10736,-0.10736,0.05368,0.07808,0.0488,-0.00976,-0.02928,-0.01952,-0.01952
0.00488,0.0488,-0.10248,-0.10492,-0.10736,0.05612,0.07808,0.0488,-0.00488,-0.0244,-0.01952,-0.01952
0.00976,0.04392,-0.0976,-0.10248,-0.10736,0.05856,0.07808,0.0488,0,-0.01952,-0.01952,-0.01952
0.01464,0.03904,-0.09272,-0.10004,-0.10736,0.061,0.0732,0.0488,0,-0.01952,-0.01464,-0.01952
0.01952,0.03416,-0.08784,-0.0976,-0.10736,0.06344,0.06832,0.0488,0,-0.01952,-0.00976,-0.01952
0.0244,0.03172,-0.08784,-0.10004,-0.11224,0.06832,0.06832,0.05368,0.00488,-0.01952,-0.00976,-0.01464
0.02928,0.02928,-0.08784,-0.10248,-0.11712,0.0732,0.06832,0.05856,0.00976,-0.01952,-0.00976,-0.00976
0.02928,0.02928,-0.08784,-0.10248,-0.11712,0.0732,0.06832,0.05856,0.01464,-0.01464,-0.00976,-0.00976
0.02928,0.02928,-0.08784,-0.10248,-0.11712,0.0732,0.06832,0.05856,0.01952,-0.00976,-0.00976,-0.00976
0.02928,0.02928,-0.08784,-0.10248,-0.11712,0.0732,0.06832,0.06344,0.0244,-0.00976,-0.00976,-0.00976
0.02928,0.02928,-0.08784,-0.10248,-0.11712,0.0732,0.06832,0.06832,0.02928,-0.00976,-0.00976,-0.00976
0.02928,0.02928,-0.08784,-0.10248,-0.11712,0.0732,0.06832,0.0732,0.02928,-0.00488,-0.00488,-0.00488
0.02928,0.02928,-0.08784,-0.10248,-0.11712,0.0732,0.06832,0.07808,0.02928,0,0,0
0.02928,0.02684,-0.08296,-0.0976,-0.11224,0.07076,0.06832,0.07808,0.03416,0,0.00488,0
0.02928,0.0244,-0.07808,-0.09272,-0.10736,0.06832,0.06832,0.07808,0.03904,0,0.00976,0
0.03416,0.01952,-0.0732,-0.09028,-0.10736,0.07076,0.06832,0.08296,0.03904,0,0.00976,0
0.03904,0.01464,-0.06832,-0.08784,-0.10736,0.0732,0.06832,0.08784,0.03904,0,0.00976,0
0.03904,0.0122,-0.06344,-0.08296,-0.10248,0.07076,0.06832,0.09272,0.03904,0.00488,0.00976,0
0.03904,0.00976,-0.05856,-0.07808,-0.0976,0.06832,0.06832,0.0976,0.03904,0.00976,0.00976,0
0.04392,0.00732,-0.05856,-0.08052,-0.10248,0.0732,0.06832,0.10736,0.03904,0.00976,0.01464,0.00488
0.0488,0.00488,-0.05856,-0.08296,-0.10736,0.07808,0.06832,0.11712,0.03904,0.00976,0.01952,0.00976
0.05368,0,-0.05368,-0.08052,-0.10736,0.08052,0.06832,0.122,0.03904,0.00976,0.01952,0.00976
0.05856,-0.00488,-0.0488,-0.07808,-0.10736,0.08296,0.06832,0.12688,0.03904,0.00976,0.01952,0.00976
0.05856,-0.00732,-0.04392,-0.0732,-0.10248,0.08052,0.06832,0.13176,0.03904,0.00976,0.01952,0.00976
0.05856,-0.00976,-0.03904,-0.06832,-0.0976,0.07808,0.06832,0.13664,0.03904,0.00976,0.01952,0.00976
0.06344,-0.0122,-0.03904,-0.07076,-0.10248,0.08296,0.0732,0.15128,0.03904,0.00976,0.01952,0.00976
0.06832,-0.01464,-0.03904,-0.0732,-0.10736,0.08784,0.07808,0.16592,0.03904,0.00976,0.01952,0.00976
0.06832,-0.01708,-0.03416,-0.06832,-0.10248,0.0854,0.07808,0.1708,0.03904,0.00976,0.01952,0.01464
0.06832,-0.01952,-0.02928,-0.06344,-0.0976,0.08296,0.07808,0.17568,0.03904,0.00976,0.01952,0.01952
0.07808,-0.02684,-0.0244,-0.06344,-0.10248,0.09028,0.07808,0.19032,0.04392,0.01464,0.0244,0.01952
0.08784,-0.03416,-0.01952,-0.06344,-0.10736,0.0976,0.07808,0.20496,0.0488,0.01952,0.02928,0.01952
0.0976,-0.03904,-0.01952,-0.06832,-0.11712,0.10736,0.07808,0.2196,0.05368,0.0244,0.03416,0.01952
0.10736,-0.04392,-0.01952,-0.0732,-0.12688,0.11712,0.07808,0.23424,0.05856,0.02928,0.03904,0.01952
0.11224,-0.0488,-0.01464,-0.07076,-0.12688,0.11956,0.08296,0.244,0.06344,0.03416,0.04392,0.0244
0.11712,-0.05368,-0.00976,-0.06832,-0.12688,0.122,0.08784,0.25376,0.06832,0.03904,0.0488,0.02928
0.122,-0.061,0,-0.061,-0.122,0.122,0.08784,0.2684,0.0732,0.04392,0.05856,0.03416
0.12688,-0.06832,0.00976,-0.05368,-0.11712,0.122,0.08784,0.28304,0.07808,0.0488,0.06832,0.03904
0.13176,-0.0732,0.01464,-0.05124,-0.11712,0.12444,0.08784,0.29768,0.07808,0.05368,0.06832,0.04392
0.13664,-0.07808,0.01952,-0.0488,-0.11712,0.12688,0.08784,0.31232,0.07808,0.05856,0.06832,0.0488
0.1464,-0.08784,0.02928,-0.04392,-0.11712,0.13176,0.08784,0.32696,0.08296,0.06344,0.07808,0.05368
0.15616,-0.0976,0.03904,-0.03904,-0.11712,0.13664,0.08784,0.3416,0.08784,0.06832,0.08784,0.05856
0.16592,-0.10492,0.04392,-0.03904,-0.122,0.14396,0.08296,0.35136,0.08784,0.0732,0.09272,0.06344
0.17568,-0.11224,0.0488,-0.03904,-0.12688,0.15128,0.07808,0.36112,0.08784,0.07808,0.0976,0.06832
0.18056,-0.11956,0.05856,-0.03172,-0.122,0.15128,0.07808,0.37088,0.08784,0.07808,0.10248,0.0732
0.18544,-0.12688,0.06832,-0.0244,-0.11712,0.15128,0.07808,0.38064,0.08784,0.07808,0.10736,0.07808
0.1952,-0.1342,0.0732,-0.0244,-0.122,0.1586,0.0732,0.38552,0.08784,0.07808,0.10736,0.07808
0.20496,-0.14152,0.07808,-0.0244,-0.12688,0.16592,0.06832,0.3904,0.08784,0.07808,0.10736,0.07808
0.20496,-0.14396,0.08296,-0.01952,-0.122,0.16348,0.06832,0.3904,0.08296,0.07808,0.10736,0.08296
0.20496,-0.1464,0.08784,-0.01464,-0.11712,0.16104,0.06832,0.3904,0.07808,0.07808,0.10736,0.08784
0.20496,-0.1464,0.08784,-0.01464,-0.11712,0.16104,0.05856,0.38064,0.0732,0.0732,0.10248,0.08784
0.20496,-0.1464,0.08784,-0.01464,-0.11712,0.16104,0.0488,0.37088,0.06832,0.06832,0.0976,0.08784
0.20008,-0.14396,0.08784,-0.0122,-0.11224,0.15616,0.04392,0.35624,0.05856,0.05856,0.09272,0.08296
0.1952,-0.14152,0.08784,-0.00976,-0.10736,0.15128,0.03904,0.3416,0.0488,0.0488,0.08784,0.07808
0.19032,-0.13664,0.08296,-0.0122,-0.10736,0.14884,0.03416,0.3172,0.03904,0.03416,0.08296,0.07808
0.18544,-0.13176,0.07808,-0.01464,-0.10736,0.1464,0.02928,0.2928,0.02928,0.01952,0.07808,0.07808
0.17568,-0.122,0.06832,-0.01952,-0.10736,0.14152,0.01952,0.2684,0.01952,0.01464,0.0732,0.07808
0.16592,-0.11224,0.05856,-0.0244,-0.10736,0.13664,0.00976,0.244,0.00976,0.00976,0.06832,0.07808
0.14152,-0.09028,0.03904,-0.03172,-0.10248,0.122,0.00976,0.21472,0.00488,0.00488,0.06344,0.06832
0.11712,-0.06832,0.01952,-0.03904,-0.0976,0.10736,0.00976,0.18544,0,0,0.05856,0.05856
0.10248,-0.05612,0.00976,-0.04148,-0.09272,0.0976,0.00488,0.15616,0,-0.00488,0.0488,0.0488
0.08784,-0.04392,0,-0.04392,-0.08784,0.08784,0,0.12688,0,-0.00976,0.03904,0.03904
0.06832,-0.02928,-0.00976,-0.04392,-0.07808,0.0732,-0.00488,0.10248,0,-0.00976,0.03904,0.03904
0.0488,-0.01464,-0.01952,-0.04392,-0.06832,0.05856,-0.00976,0.07808,0,-0.00976,0.03904,0.03904
0.02928,0,-0.02928,-0.04392,-0.05856,0.04392,-0.01464,0.05856,0.00488,-0.00976,0.03904,0.03416
0.00976,0.01464,-0.03904,-0.04392,-0.0488,0.02928,-0.01952,0.03904,0.00976,-0.00976,0.03904,0.02928
0,0.02196,-0.04392,-0.04392,-0.04392,0.02196,-0.01952,0.0244,0.00976,-0.00976,0.03416,0.02928
-0.00976,0.02928,-0.0488,-0.04392,-0.03904,0.01464,-0.01952,0.00976,0.00976,-0.00976,0.02928,0.02928
-0.01464,0.0366,-0.05856,-0.05124,-0.04392,0.01464,-0.0244,-0.00488,0.00976,-0.00976,0.0244,0.0244
-0.01952,0.04392,-0.06832,-0.05856,-0.0488,0.01464,-0.02928,-0.01952,0.00976,-0.00976,0.01952,0.01952
-0.02928,0.05124,-0.0732,-0.05856,-0.04392,0.00732,-0.03416,-0.0244,0.00976,-0.00976,0.01952,0.01464
-0.03904,0.05856,-0.07808,-0.05856,-0.03904,0,-0.03904,-0.02928,0.00976,-0.00976,0.01952,0.00976
-0.03904,0.05856,-0.07808,-0.05856,-0.03904,0,-0.03904,-0.03416,0.01464,-0.00976,0.01952,0.00976
-0.03904,0.05856,-0.07808,-0.05856,-0.03904,0,-0.03904,-0.03904,0.01952,-0.00976,0.01952,0.00976
-0.03904,0.05856,-0.07808,-0.05856,-0.03904,0,-0.03904,-0.03904,0.01952,-0.00976,0.01952,0.00976
-0.03904,0.05856,-0.07808,-0.05856,-0.03904,0,-0.03904,-0.03904,0.01952,-0.00976,0.01952,0.00976
-0.03904,0.05856,-0.07808,-0.05856,-0.03904,0,-0.03904,-0.03904,0.01952,-0.00976,0.01952,0.00976
-0.03904,0.05856,-0.07808,-0.05856,-0.03904,0,-0.03904,-0.03904,0.01952,-0.00976,0.01952,0.00976
-0.03904,0.05856,-0.07808,-0.05856,-0.03904,0,-0.03904,-0.03904,0.01952,-0.00976,0.01952,0.00976
-0.03904,0.05856,-0.07808,-0.05856,-0.03904,0,-0.03904,-0.03904,0.01952,-0.00976,0.01952,0.00976
-0.03904,0.05612,-0.0732,-0.05368,-0.03416,-0.00244,-0.03904,-0.03416,0.0244,-0.00488,0.0244,0.00976
-0.03904,0.05368,-0.06832,-0.0488,-0.02928,-0.00488,-0.03904,-0.02928,0.02928,0,0.02928,0.00976
-0.03416,0.05124,-0.06832,-0.05124,-0.03416,0,-0.03904,-0.02928,0.02928,0.00488,0.02928,0.00976
-0.02928,0.0488,-0.06832,-0.05368,-0.03904,0.00488,-0.03904,-0.02928,0.02928,0.00976,0.02928,0.00976
-0.02928,0.0488,-0.06832,-0.05368,-0.03904,0.00488,-0.03416,-0.0244,0.03416,0.00976,0.0244,0.00488
-0.02928,0.0488,-0.06832,-0.05368,-0.03904,0.00488,-0.02928,-0.01952,0.03904,0.00976,0.01952,0
-0.02928,0.0488,-0.06832,-0.05368,-0.03904,0.00488,-0.02928,-0.01952,0.03904,0.00976,0.01952,0
-0.02928,0.0488,-0.06832,-0.05368,-0.03904,0.00488,-0.02928,-0.01952,0.03904,0.00976,0.01952,0
-0.0244,0.04636,-0.06832,-0.05612,-0.04392,0.00976,-0.02928,-0.01464,0.04392,0.01464,0.0244,0.00488
-0.01952,0.04392,-0.06832,-0.05856,-0.0488,0.01464,-0.02928,-0.00976,0.0488,0.01952,0.02928,0.00976
-0.01952,0.04148,-0.06344,-0.05368,-0.04392,0.0122,-0.02928,-0.00976,0.0488,0.01952,0.02928,0.00976
-0.01952,0.03904,-0.05856,-0.0488,-0.03904,0.00976,-0.02928,-0.00976,0.0488,0.01952,0.02928,0.00976
-0.01952,0.0366,-0.05368,-0.04392,-0.03416,0.00732,-0.02928,-0.00976,0.0488,0.01952,0.02928,0.01464
-0.01952,0.03416,-0.0488,-0.03904,-0.02928,0.00488,-0.02928,-0.00976,0.0488,0.01952,0.02928,0.01952
-0.01464,0.02684,-0.03904,-0.03172,-0.0244,0.00488,-0.02928,-0.01464,0.0488,0.01952,0.02928,0.01952
-0.00976,0.01952,-0.02928,-0.0244,-0.01952,0.00488,-0.02928,-0.01952,0.0488,0.01952,0.02928,0.01952
-0.00976,0.01464,-0.01952,-0.01464,-0.00976,0,-0.03416,-0.0244,0.0488,0.01952,0.02928,0.01464
-0.00976,0.00976,-0.00976,-0.00488,0,-0.00488,-0.03904,-0.02928,0.0488,0.01952,0.02928,0.00976
-0.00976,0.01464,-0.01952,-0.01464,-0.00976,0,-0.03904,-0.02928,0.0488,0.01952,0.02928,0.00488
-0.00976,0.01952,-0.02928,-0.0244,-0.01952,0.00488,-0.03904,-0.02928,0.0488,0.01952,0.02928,0
-0.00976,0.0244,-0.03904,-0.03416,-0.02928,0.00976,-0.03416,-0.02928,0.0488,0.01952,0.02928,0
-0.00976,0.02928,-0.0488,-0.04392,-0.03904,0.01464,-0.02928,-0.02928,0.0488,0.01952,0.02928,0
-0.00976,0.02928,-0.0488,-0.04392,-0.03904,0.01464,-0.02928,-0.02928,0.04392,0.01952,0.02928,0
-0.00976,0.02928,-0.0488,-0.04392,-0.03904,0.01464,-0.02928,-0.02928,0.03904,0.01952,0.02928,0
-0.00976,0.02684,-0.04392,-0.03904,-0.03416,0.0122,-0.03416,-0.03416,0.03904,0.01952,0.0244,0
-0.00976,0.0244,-0.03904,-0.03416,-0.02928,0.00976,-0.03904,-0.03904,0.03904,0.01952,0.01952,0
-0.00976,0.02196,-0.03416,-0.02928,-0.0244,0.00732,-0.04392,-0.03904,0.03904,0.01952,0.01952,0
-0.00976,0.01952,-0.02928,-0.0244,-0.01952,0.00488,-0.0488,-0.03904,0.03904,0.01952,0.01952,0
-0.00976,0.01952,-0.02928,-0.0244,-0.01952,0.00488,-0.0488,-0.03904,0.03904,0.01464,0.01952,0
-0.00976,0.01952,-0.02928,-0.0244,-0.01952,0.00488,-0.0488,-0.03904,0.03904,0.00976,0.01952,0
-0.00976,0.02196,-0.03416,-0.02928,-0.0244,0.00732,-0.0488,-0.03904,0.03904,0.00976,0.01952,0
-0.00976,0.0244,-0.03904,-0.03416,-0.02928,0.00976,-0.0488,-0.03904,0.03904,0.00976,0.01952,0
-0.00976,0.0244,-0.03904,-0.03416,-0.02928,0.00976,-0.0488,-0.03904,0.03904,0.00976,0.01464,0
-0.00976,0.0244,-0.03904,-0.03416,-0.02928,0.00976,-0.0488,-0.03904,0.03904,0.00976,0.00976,0
-0.01464,0.02684,-0.03904,-0.03172,-0.0244,0.00488,-0.0488,-0.03904,0.03416,0.00488,0.00976,0
-0.01952,0.02928,-0.03904,-0.02928,-0.01952,0,-0.0488,-0.03904,0.02928,0,0.00976,0
-0.01952,0.02928,-0.03904,-0.02928,-0.01952,0,-0.05368,-0.03904,0.02928,0,0.00488,0
-0.01952,0.02928,-0.03904,-0.02928,-0.01952,0,-0.05856,-0.03904,0.02928,0,0,0
-0.01952,0.02928,-0.03904,-0.02928,-0.01952,0,-0.05856,-0.03904,0.0244,0,0,-0.00488
-0.01952,0.02928,-0.03904,-0.02928,-0.01952,0,-0.05856,-0.03904,0.01952,0,0,-0.00976
-0.01952,0.03172,-0.04392,-0.03416,-0.0244,0.00244,-0.05368,-0.03904,0.01952,0,0,-0.00976
-0.01952,0.03416,-0.0488,-0.03904,-0.02928,0.00488,-0.0488,-0.03904,0.01952,0,0,-0.00976
-0.01464,0.03172,-0.0488,-0.04148,-0.03416,0.00976,-0.0488,-0.03904,0.0244,0.00488,0.00488,-0.00488
-0.00976,0.02928,-0.0488,-0.04392,-0.03904,0.01464,-0.0488,-0.03904,0.02928,0.00976,0.00976,0
-0.00976,0.02684,-0.04392,-0.03904,-0.03416,0.0122,-0.0488,-0.03904,0.02928,0.00976,0.00976,0
-0.00976,0.0244,-0.03904,-0.03416,-0.02928,0.00976,-0.0488,-0.03904,0.02928,0.00976,0.00976,0
-0.00976,0.0244,-0.03904,-0.03416,-0.02928,0.00976,-0.0488,-0.03904,0.0244,0.00488,0.00976,0
-0.00976,0.0244,-0.03904,-0.03416,-0.02928,0.00976,-0.0488,-0.03904,0.01952,0,0.00976,0
-0.00976,0.0244,-0.03904,-0.03416,-0.02928,0.00976,-0.0488,-0.03416,0.01952,0,0.00976,0
-0.00976,0.0244,-0.03904,-0.03416,-0.02928,0.00976,-0.0488,-0.02928,0.01952,0,0.00976,0
-0.00976,0.0244,-0.03904,-0.03416,-0.02928,0.00976,-0.04392,-0.02928,0.01952,0,0.00976,0
-0.00976,0.0244,-0.03904,-0.03416,-0.02928,0.00976,-0.03904,-0.02928,0.01952,0,0.00976,0
-0.00976,0.0244,-0.03904,-0.03416,-0.02928,0.00976,-0.03904,-0.02928,0.01952,0,0.01464,0
-0.00976,0.0244,-0.03904,-0.03416,-0.02928,0.00976,-0.03904,-0.02928,0.01952,0,0.01952,0
-0.00488,0.01708,-0.02928,-0.02684,-0.0244,0.00976,-0.03904,-0.02928,0.01952,0,0.01952,0
0,0.00976,-0.01952,-0.01952,-0.01952,0.00976,-0.03904,-0.02928,0.01952,0,0.01952,0
0,0.00488,-0.00976,-0.00976,-0.00976,0.00488,-0.03904,-0.0244,0.01952,0,0.01952,0
0,0,0,0,0,0,-0.03904,-0.01952,0.01952,0,0.01952,0
0,0,0,0,0,0,-0.03416,-0.01952,0.01952,0,0.01464,0
0,0,0,0,0,0,-0.02928,-0.01952,0.01952,0,0.00976,0
0,0,0,0,0,0,-0.02928,-0.01464,0.01952,0,0.00976,0
0,0,0,0,0,0,-0.02928,-0.00976,0.01952,0,0.00976,0
0,0.00244,-0.00488,-0.00488,-0.00488,0.00244,-0.0244,-0.00976,0.01952,0,0.00976,0.00488
0,0.00488,-0.00976,-0.00976,-0.00976,0.00488,-0.01952,-0.00976,0.01952,0,0.00976,0.00976
0.00488,0.00244,-0.00976,-0.0122,-0.01464,0.00976,-0.01952,-0.00976,0.01952,0,0.01464,0.00976
0.00976,0,-0.00976,-0.01464,-0.01952,0.01464,-0.01952,-0.00976,0.01952,0,0.01952,0.00976
0.00976,0,-0.00976,-0.01464,-0.01952,0.01464,-0.01952,-0.00976,0.01952,0,0.01952,0.00976
0.00976,0,-0.00976,-0.01464,-0.01952,0.01464,-0.01952,-0.00976,0.01952,0,0.01952,0.00976
0.00976,0,-0.00976,-0.01464,-0.01952,0.01464,-0.01464,-0.00488,0.01952,0,0.01952,0.00976
0.00976,0,-0.00976,-0.01464,-0.01952,0.01464,-0.00976,0,0.01952,0,0.01952,0.00976
0.00976,0,-0.00976,-0.01464,-0.01952,0.01464,-0.00976,0,0.01952,0.00488,0.01952,0.00976
0.00976,0,-0.00976,-0.01464,-0.01952,0.01464,-0.00976,0,0.01952,0.00976,0.01952,0.00976
0.00488,0,-0.00488,-0.00732,-0.00976,0.00732,-0.00976,0,0.01952,0.00976,0.01952,0.01464
0,0,0,0,0,0,-0.00976,0,0.01952,0.00976,0.01952,0.01952
0,0,0,0,0,0,-0.00976,0,0.01952,0.00976,0.01952,0.01952
0,0,0,0,0,0,-0.00976,0,0.01952,0.00976,0.01952,0.01952
0,0,0,0,0,0,-0.00976,0,0.01952,0.00976,0.01952,0.01464
0,0,0,0,0,0,-0.00976,0,0.01952,0.00976,0.01952,0.00976
0,0.00244,-0.00488,-0.00488,-0.00488,0.00244,-0.00488,0,0.01952,0.00488,0.01952,0.00976
0,0.00488,-0.00976,-0.00976,-0.00976,0.00488,0,0,0.01952,0,0.01952,0.00976
0,0.00488,-0.00976,-0.00976,-0.00976,0.00488,0,0,0.01952,0,0.01952,0.00976
0,0.00488,-0.00976,-0.00976,-0.00976,0.00488,0,0,0.01952,0,0.01952,0.00976
0,0.00488,-0.00976,-0.00976,-0.00976,0.00488,-0.00488,0,0.01952,0,0.01952,0.01464
0,0.00488,-0.00976,-0.00976,-0.00976,0.00488,-0.00976,0,0.01952,0,0.01952,0.01952
0,0.00244,-0.00488,-0.00488,-0.00488,0.00244,-0.00976,0,0.01464,0,0.01952,0.01952
0,0,0,0,0,0,-0.00976,0,0.00976,0,0.01952,0.01952
0,-0.00244,0.00488,0.00488,0.00488,-0.00244,-0.00976,0,0.00976,0.00488,0.01952,0.01464
0,-0.00488,0.00976,0.00976,0.00976,-0.00488,-0.00976,0,0.00976,0.00976,0.01952,0.00976
0,-0.00488,0.00976,0.00976,0.00976,-0.00488,-0.00976,0,0.00976,0.00976,0.01952,0.00976
0,-0.00488,0.00976,0.00976,0.00976,-0.00488,-0.00976,0,0.00976,0.00976,0.01952,0.00976
0,-0.00244,0.00488,0.00488,0.00488,-0.00244,-0.00976,0,0.00976,0.00488,0.01952,0.00976
0,0,0,0,0,0,-0.00976,0,0.00976,0,0.01952,0.00976
0,0,0,0,0,0,-0.00976,0,0.00488,0,0.01952,0.00976
0,0,0,0,0,0,-0.00976,0,0,0,0.01952,0.00976
0,0,0,0,0,0,-0.00976,0,0,0.00488,0.01952,0.00976
0,0,0,0,0,0,-0.00976,0,0,0.00976,0.01952,0.00976
0,-0.00488,0.00976,0.00976,0.00976,-0.00488,-0.00488,0.00488,0.00976,0.01464,0.02928,0.01464
0,-0.00976,0.01952,0.01952,0.01952,-0.00976,0,0.00976,0.01952,0.01952,0.03904,0.01952
0,-0.01464,0.02928,0.02928,0.02928,-0.01464,0.00488,0.00976,0.0244,0.0244,0.03904,0.0244
0,-0.01952,0.03904,0.03904,0.03904,-0.01952,0.00976,0.00976,0.02928,0.02928,0.03904,0.02928
0.00488,-0.0244,0.04392,0.04148,0.03904,-0.01708,0.01464,0.01464,0.02928,0.03416,0.04392,0.02928
0.00976,-0.02928,0.0488,0.04392,0.03904,-0.01464,0.01952,0.01952,0.02928,0.03904,0.0488,0.02928
0.00976,-0.03904,0.06832,0.06344,0.05856,-0.0244,0.01952,0.01952,0.03904,0.0488,0.05856,0.03904
0.00976,-0.0488,0.08784,0.08296,0.07808,-0.03416,0.01952,0.01952,0.0488,0.05856,0.06832,0.0488
0.01952,-0.061,0.10248,0.09272,0.08296,-0.03172,0.01952,0.0244,0.05856,0.06344,0.0732,0.05368
0.02928,-0.0732,0.11712,0.10248,0.08784,-0.02928,0.01952,0.02928,0.06832,0.06832,0.07808,0.05856
0.03416,-0.08296,0.13176,0.11468,0.0976,-0.03172,0.00488,0.02928,0.0732,0.07808,0.08784,0.06832
0.03904,-0.09272,0.1464,0.12688,0.10736,-0.03416,-0.00976,0.02928,0.07808,0.08784,0.0976,0.07808
0.04392,-0.10736,0.1708,0.14884,0.12688,-0.04148,-0.01952,0.0244,0.07808,0.09272,0.10248,0.08784
0.0488,-0.122,0.1952,0.1708,0.1464,-0.0488,-0.02928,0.01952,0.07808,0.0976,0.10736,0.0976
0.0488,-0.122,0.1952,0.1708,0.1464,-0.0488,-0.03904,0.01464,0.07808,0.0976,0.11224,0.0976
0.0488,-0.122,0.1952,0.1708,0.1464,-0.0488,-0.0488,0.00976,0.07808,0.0976,0.11712,0.0976
0.0488,-0.11956,0.19032,0.16592,0.14152,-0.04636,-0.0488,0.00488,0.0732,0.0976,0.11712,0.0976
0.0488,-0.11712,0.18544,0.16104,0.13664,-0.04392,-0.0488,0,0.06832,0.0976,0.11712,0.0976
0.04392,-0.10736,0.1708,0.14884,0.12688,-0.04148,-0.0488,0,0.05856,0.08784,0.10736,0.08784
0.03904,-0.0976,0.15616,0.13664,0.11712,-0.03904,-0.0488,0,0.0488,0.07808,0.0976,0.07808
0.0244,-0.06588,0.10736,0.09516,0.08296,-0.02928,-0.04392,-0.00488,0.02928,0.05856,0.0732,0.05856
0.00976,-0.03416,0.05856,0.05368,0.0488,-0.01952,-0.03904,-0.00976,0.00976,0.03904,0.0488,0.03904
0,-0.01952,0.03904,0.03904,0.03904,-0.01952,-0.03904,-0.01464,-0.00488,0.0244,0.03416,0.01952
-0.00976,-0.00488,0.01952,0.0244,0.02928,-0.01952,-0.03904,-0.01952,-0.01952,0.00976,0.01952,0
-0.00976,0.00244,0.00488,0.00976,0.01464,-0.0122,-0.03904,-0.01952,-0.02928,0.00488,0.00976,-0.00976
-0.00976,0.00976,-0.00976,-0.00488,0,-0.00488,-0.03904,-0.01952,-0.03904,0,0,-0.01952
-0.00976,0.01464,-0.01952,-0.01464,-0.00976,0,-0.03904,-0.01952,-0.03904,-0.00488,0,-0.0244
-0.00976,0.01952,-0.02928,-0.0244,-0.01952,0.00488,-0.03904,-0.01952,-0.03904,-0.00976,0,-0.02928
-0.00976,0.02196,-0.03416,-0.02928,-0.0244,0.00732,-0.03416,-0.01464,-0.03904,-0.00976,0,-0.02928
-0.00976,0.0244,-0.03904,-0.03416,-0.02928,0.00976,-0.02928,-0.00976,-0.03904,-0.00976,0,-0.02928
-0.00976,0.0244,-0.03904,-0.03416,-0.02928,0.00976,-0.02928,-0.00976,-0.03416,-0.00488,0.00488,-0.0244
-0.00976,0.0244,-0.03904,-0.03416,-0.02928,0.00976,-0.02928,-0.00976,-0.02928,0,0.00976,-0.01952
-0.00488,0.01708,-0.02928,-0.02684,-0.0244,0.00976,-0.01464,0.01464,-0.00488,0.01464,0.01464,-0.01952
0,0.00976,-0.01952,-0.01952,-0.01952,0.00976,0,0.03904,0.01952,0.02928,0.01952,-0.01952
0.06344,-0.07076,0.07808,0.04636,0.01464,0.0244,-0.0244,0.122,0.10736,0.16104,0.122,0.03416
0.12688,-0.15128,0.17568,0.11224,0.0488,0.03904,-0.0488,0.20496,0.1952,0.2928,0.22448,0.08784
0.25864,-0.31964,0.38064,0.25132,0.122,0.06832,-0.25376,0.16104,0.27816,0.50264,0.44896,0.24888
0.3904,-0.488,0.5856,0.3904,0.1952,0.0976,-0.45872,0.11712,0.36112,0.71248,0.67344,0.40992
0.49288,-0.65636,0.81984,0.5734,0.32696,0.08296,-0.71736,-0.06832,0.37576,0.88816,0.88328,0.5856
0.59536,-0.82472,1.05408,0.7564,0.45872,0.06832,-0.976,-0.25376,0.3904,1.06384,1.09312,0.76128
0.55144,-0.72468,0.89792,0.6222,0.34648,0.10248,-1.01992,-0.366,0.17568,0.81496,0.91744,0.6832
0.50752,-0.62464,0.74176,0.488,0.23424,0.13664,-1.06384,-0.47824,-0.03904,0.56608,0.74176,0.60512
0.22936,-0.26108,0.2928,0.17812,0.06344,0.08296,-0.9272,-0.64416,-0.3416,0.0732,0.2928,0.30744
-0.0488,0.10248,-0.15616,-0.13176,-0.10736,0.02928,-0.79056,-0.81008,-0.64416,-0.41968,-0.15616,0.00976
-0.0976,0.15372,-0.20984,-0.16104,-0.11224,0.00732,-0.64416,-0.70272,-0.59536,-0.41968,-0.1952,-0.03416
-0.1464,0.20496,-0.26352,-0.19032,-0.11712,-0.01464,-0.49776,-0.59536,-0.54656,-0.41968,-0.23424,-0.07808
-0.16104,0.20496,-0.24888,-0.16836,-0.08784,-0.0366,-0.35624,-0.45872,-0.43432,-0.3416,-0.20496,-0.08784
-0.17568,0.20496,-0.23424,-0.1464,-0.05856,-0.05856,-0.21472,-0.32208,-0.32208,-0.26352,-0.17568,-0.0976
-0.11224,0.13664,-0.16104,-0.10492,-0.0488,-0.03172,-0.13664,-0.20008,-0.22448,-0.19032,-0.122,-0.07808
-0.0488,0.06832,-0.08784,-0.06344,-0.03904,-0.00488,-0.05856,-0.07808,-0.12688,-0.11712,-0.06832,-0.05856
-0.03416,0.05856,-0.08296,-0.06588,-0.0488,0.00732,-0.01952,-0.02928,-0.08784,-0.08784,-0.05856,-0.0488
-0.01952,0.0488,-0.07808,-0.06832,-0.05856,0.01952,0.01952,0.01952,-0.0488,-0.05856,-0.0488,-0.03904
-0.01464,0.04636,-0.07808,-0.07076,-0.06344,0.0244,0.03416,0.03416,-0.03416,-0.05368,-0.03904,-0.03904
-0.00976,0.04392,-0.07808,-0.0732,-0.06832,0.02928,0.0488,0.0488,-0.01952,-0.0488,-0.02928,-0.03904
-0.00976,0.04148,-0.0732,-0.06832,-0.06344,0.02684,0.05368,0.05856,-0.01952,-0.04392,-0.0244,-0.03904
-0.00976,0.03904,-0.06832,-0.06344,-0.05856,0.0244,0.05856,0.06832,-0.01952,-0.03904,-0.01952,-0.03904
-0.00488,0.03416,-0.06344,-0.061,-0.05856,0.02684,0.05856,0.0732,-0.00976,-0.02928,-0.00976,-0.03416
0,0.02928,-0.05856,-0.05856,-0.05856,0.02928,0.05856,0.07808,0,-0.01952,0,-0.02928
0.00488,0.0244,-0.05368,-0.05612,-0.05856,0.03172,0.06344,0.08296,0.00488,-0.01464,0,-0.02928
0.00976,0.01952,-0.0488,-0.05368,-0.05856,0.03416,0.06832,0.08784,0.00976,-0.00976,0,-0.02928
0.01464,0.01464,-0.04392,-0.05124,-0.05856,0.0366,0.06832,0.09272,0.00976,-0.00976,0,-0.02928
0.01952,0.00976,-0.03904,-0.0488,-0.05856,0.03904,0.06832,0.0976,0.00976,-0.00976,0,-0.02928
0.01952,0.00976,-0.03904,-0.0488,-0.05856,0.03904,0.06832,0.0976,0.01464,-0.00488,0.00488,-0.0244
0.01952,0.00976,-0.03904,-0.0488,-0.05856,0.03904,0.06832,0.0976,0.01952,0,0.00976,-0.01952
0.0244,0.00732,-0.03904,-0.05124,-0.06344,0.04392,0.06832,0.10248,0.0244,0,0.00976,-0.01952
0.02928,0.00488,-0.03904,-0.05368,-0.06832,0.0488,0.06832,0.10736,0.02928,0,0.00976,-0.01952
0.02928,0.00244,-0.03416,-0.0488,-0.06344,0.04636,0.06832,0.10736,0.03416,0,0.00976,-0.01952
0.02928,0,-0.02928,-0.04392,-0.05856,0.04392,0.06832,0.10736,0.03904,0,0.00976,-0.01952
0.02928,0,-0.02928,-0.04392,-0.05856,0.04392,0.06832,0.11224,0.03904,0,0.01464,-0.01952
0.02928,0,-0.02928,-0.04392,-0.05856,0.04392,0.06832,0.11712,0.03904,0,0.01952,-0.01952
0.03416,-0.00488,-0.0244,-0.04148,-0.05856,0.04636,0.06832,0.122,0.04392,0.00488,0.01952,-0.01464
0.03904,-0.00976,-0.01952,-0.03904,-0.05856,0.0488,0.06832,0.12688,0.0488,0.00976,0.01952,-0.00976
0.04392,-0.01464,-0.01464,-0.0366,-0.05856,0.05124,0.06832,0.13176,0.0488,0.00976,0.0244,-0.00976
0.0488,-0.01952,-0.00976,-0.03416,-0.05856,0.05368,0.06832,0.13664,0.0488,0.00976,0.02928,-0.00976
0.0488,-0.02196,-0.00488,-0.02928,-0.05368,0.05124,0.06832,0.14152,0.0488,0.00976,0.02928,-0.00976
0.0488,-0.0244,0,-0.0244,-0.0488,0.0488,0.06832,0.1464,0.0488,0.00976,0.02928,-0.00976
0.0488,-0.0244,0,-0.0244,-0.0488,0.0488,0.06832,0.15616,0.0488,0.00976,0.02928,-0.00976
0.0488,-0.0244,0,-0.0244,-0.0488,0.0488,0.06832,0.16592,0.0488,0.00976,0.02928,-0.00976
0.0488,-0.0244,0,-0.0244,-0.0488,0.0488,0.06344,0.1708,0.0488,0.01464,0.03416,-0.00488
0.0488,-0.0244,0,-0.0244,-0.0488,0.0488,0.05856,0.17568,0.0488,0.01952,0.03904,0
0.05368,-0.02928,0.00488,-0.02196,-0.0488,0.05124,0.05856,0.18544,0.0488,0.01952,0.03904,0
0.05856,-0.03416,0.00976,-0.01952,-0.0488,0.05368,0.05856,0.1952,0.0488,0.01952,0.03904,0
0.06344,-0.03904,0.01464,-0.01708,-0.0488,0.05612,0.06344,0.20496,0.0488,0.01952,0.03904,0
0.06832,-0.04392,0.01952,-0.01464,-0.0488,0.05856,0.06832,0.21472,0.0488,0.01952,0.03904,0
0.0732,-0.05124,0.02928,-0.00732,-0.04392,0.05856,0.06832,0.22448,0.05368,0.0244,0.04392,0.00488
0.07808,-0.05856,0.03904,0,-0.03904,0.05856,0.06832,0.23424,0.05856,0.02928,0.0488,0.00976
0.08784,-0.06344,0.03904,-0.00488,-0.0488,0.06832,0.06832,0.244,0.05856,0.02928,0.0488,0.00976
0.0976,-0.06832,0.03904,-0.00976,-0.05856,0.07808,0.06832,0.25376,0.05856,0.02928,0.0488,0.00976
0.10736,-0.07564,0.04392,-0.00976,-0.06344,0.0854,0.06832,0.26352,0.06344,0.03416,0.05368,0.01464
0.11712,-0.08296,0.0488,-0.00976,-0.06832,0.09272,0.06832,0.27328,0.06832,0.03904,0.05856,0.01952
0.122,-0.09028,0.05856,-0.00244,-0.06344,0.09272,0.06832,0.28304,0.0732,0.04392,0.06344,0.0244
0.12688,-0.0976,0.06832,0.00488,-0.05856,0.09272,0.06832,0.2928,0.07808,0.0488,0.06832,0.02928
0.13176,-0.10248,0.0732,0.00732,-0.05856,0.09516,0.06832,0.31232,0.08296,0.05368,0.0732,0.02928
0.13664,-0.10736,0.07808,0.00976,-0.05856,0.0976,0.06832,0.33184,0.08784,0.05856,0.07808,0.02928
0.1464,-0.11712,0.08784,0.01464,-0.05856,0.10248,0.06832,0.35136,0.09272,0.06344,0.08296,0.03416
0.15616,-0.12688,0.0976,0.01952,-0.05856,0.10736,0.06832,0.37088,0.0976,0.06832,0.08784,0.03904
0.1708,-0.1342,0.0976,0.0122,-0.0732,0.122,0.06832,0.38552,0.0976,0.0732,0.09272,0.04392
0.18544,-0.14152,0.0976,0.00488,-0.08784,0.13664,0.06832,0.40016,0.0976,0.07808,0.0976,0.0488
0.1952,-0.14884,0.10248,0.00488,-0.09272,0.14396,0.06344,0.40992,0.0976,0.07808,0.10248,0.05368
0.20496,-0.15616,0.10736,0.00488,-0.0976,0.15128,0.05856,0.41968,0.0976,0.07808,0.10736,0.05856
0.20984,-0.16348,0.11712,0.0122,-0.09272,0.15128,0.05368,0.42456,0.0976,0.08296,0.10736,0.06344
0.21472,-0.1708,0.12688,0.01952,-0.08784,0.15128,0.0488,0.42944,0.0976,0.08784,0.10736,0.06832
0.2196,-0.17812,0.13664,0.02684,-0.08296,0.15128,0.04392,0.43432,0.0976,0.08784,0.10736,0.06832
0.22448,-0.18544,0.1464,0.03416,-0.07808,0.15128,0.03904,0.4392,0.0976,0.08784,0.10736,0.06832
0.22936,-0.18788,0.1464,0.03172,-0.08296,0.15616,0.03904,0.4392,0.08784,0.08296,0.10736,0.0732
0.23424,-0.19032,0.1464,0.02928,-0.08784,0.16104,0.03904,0.4392,0.07808,0.07808,0.10736,0.07808
0.23424,-0.18788,0.14152,0.0244,-0.09272,0.16348,0.02928,0.43432,0.0732,0.0732,0.10736,0.07808
0.23424,-0.18544,0.13664,0.01952,-0.0976,0.16592,0.01952,0.42944,0.06832,0.06832,0.10736,0.07808
0.22936,-0.183,0.13664,0.02196,-0.09272,0.16104,0.01464,0.40992,0.06344,0.05856,0.10248,0.07808
0.22448,-0.18056,0.13664,0.0244,-0.08784,0.15616,0.00976,0.3904,0.05856,0.0488,0.0976,0.07808
0.21472,-0.17324,0.13176,0.0244,-0.08296,0.14884,0,0.366,0.0488,0.03904,0.09272,0.0732
0.20496,-0.16592,0.12688,0.0244,-0.07808,0.14152,-0.00976,0.3416,0.03904,0.02928,0.08784,0.06832
0.19032,-0.14884,0.10736,0.0122,-0.08296,0.13664,-0.00976,0.3172,0.03416,0.01952,0.07808,0.06832
0.17568,-0.13176,0.08784,0,-0.08784,0.13176,-0.00976,0.2928,0.02928,0.00976,0.06832,0.06832
0.15616,-0.11956,0.08296,0.00488,-0.0732,0.11468,-0.00976,0.25864,0.0244,0.00488,0.06344,0.05856
0.13664,-0.10736,0.07808,0.00976,-0.05856,0.0976,-0.00976,0.22448,0.01952,0,0.05856,0.0488
0.11712,-0.09272,0.06832,0.00976,-0.0488,0.08296,-0.01464,0.1952,0.01952,0,0.05368,0.04392
0.0976,-0.07808,0.05856,0.00976,-0.03904,0.06832,-0.01952,0.16592,0.01952,0,0.0488,0.03904
0.08296,-0.06588,0.0488,0.00732,-0.03416,0.05856,-0.0244,0.14152,0.01952,0,0.04392,0.03416
0.06832,-0.05368,0.03904,0.00488,-0.02928,0.0488,-0.02928,0.11712,0.01952,0,0.03904,0.02928
0.0488,-0.03904,0.02928,0.00488,-0.01952,0.03416,-0.03416,0.0976,0.01952,0,0.03904,0.0244
0.02928,-0.0244,0.01952,0.00488,-0.00976,0.01952,-0.03904,0.07808,0.01952,0,0.03904,0.01952
0.01952,-0.01708,0.01464,0.00488,-0.00488,0.0122,-0.04392,0.05368,0.01952,0,0.03416,0.01952
0.00976,-0.00976,0.00976,0.00488,0,0.00488,-0.0488,0.02928,0.01952,0,0.02928,0.01952
-0.00488,0.00488,-0.00488,-0.00244,0,-0.00244,-0.0488,0.0244,0.01952,0,0.02928,0.01464
-0.01952,0.01952,-0.01952,-0.00976,0,-0.00976,-0.0488,0.01952,0.01952,0,0.02928,0.00976
-0.01952,0.02196,-0.0244,-0.01464,-0.00488,-0.00732,-0.0488,0.01464,0.01952,-0.00488,0.02928,0.00976
-0.01952,0.0244,-0.02928,-0.01952,-0.00976,-0.00488,-0.0488,0.00976,0.01952,-0.00976,0.02928,0.00976
-0.0244,0.02928,-0.03416,-0.02196,-0.00976,-0.00732,-0.0488,0,0.01464,-0.00976,0.02928,0.00976
-0.02928,0.03416,-0.03904,-0.0244,-0.00976,-0.00976,-0.0488,-0.00976,0.00976,-0.00976,0.02928,0.00976
-0.02928,0.03416,-0.03904,-0.0244,-0.00976,-0.00976,-0.05368,-0.00976,0.00976,-0.00976,0.0244,0.00976
-0.02928,0.03416,-0.03904,-0.0244,-0.00976,-0.00976,-0.05856,-0.00976,0.00976,-0.00976,0.01952,0.00976
-0.02928,0.03172,-0.03416,-0.01952,-0.00488,-0.0122,-0.05856,-0.00976,0.00976,-0.00976,0.01952,0.00976
-0.02928,0.02928,-0.02928,-0.01464,0,-0.01464,-0.05856,-0.00976,0.00976,-0.00976,0.01952,0.00976
-0.02928,0.02928,-0.02928,-0.01464,0,-0.01464,-0.05856,-0.00488,0.00976,-0.00976,0.01952,0.00976
-0.02928,0.02928,-0.02928,-0.01464,0,-0.01464,-0.05856,0,0.00976,-0.00976,0.01952,0.00976
-0.02928,0.02928,-0.02928,-0.01464,0,-0.01464,-0.05856,0,0.01464,-0.00488,0.01952,0.00488
-0.02928,0.02928,-0.02928,-0.01464,0,-0.01464,-0.05856,0,0.01952,0,0.01952,0
-0.0244,0.02928,-0.03416,-0.02196,-0.00976,-0.00732,-0.05856,0.00488,0.01952,0,0.01952,0
-0.01952,0.02928,-0.03904,-0.02928,-0.01952,0,-0.05856,0.00976,0.01952,0,0.01952,0
-0.01952,0.02928,-0.03904,-0.02928,-0.01952,0,-0.05856,0.00976,0.01952,0,0.01952,0.00488
-0.01952,0.02928,-0.03904,-0.02928,-0.01952,0,-0.05856,0.00976,0.01952,0,0.01952,0.00976
-0.01464,0.0244,-0.03416,-0.02684,-0.01952,0.00244,-0.05856,0.01464,0.0244,0.00488,0.0244,0.00976
-0.00976,0.01952,-0.02928,-0.0244,-0.01952,0.00488,-0.05856,0.01952,0.02928,0.00976,0.02928,0.00976
-0.00976,0.01708,-0.0244,-0.01952,-0.01464,0.00244,-0.05856,0.01952,0.02928,0.01464,0.02928,0.00976
-0.00976,0.01464,-0.01952,-0.01464,-0.00976,0,-0.05856,0.01952,0.02928,0.01952,0.02928,0.00976
-0.00976,0.0122,-0.01464,-0.00976,-0.00488,-0.00244,-0.05856,0.01464,0.02928,0.01952,0.0244,0.00976
-0.00976,0.00976,-0.00976,-0.00488,0,-0.00488,-0.05856,0.00976,0.02928,0.01952,0.01952,0.00976
-0.00976,0.00976,-0.00976,-0.00488,0,-0.00488,-0.06344,0.00976,0.0244,0.01952,0.01952,0.00488
-0.00976,0.00976,-0.00976,-0.00488,0,-0.00488,-0.06832,0.00976,0.01952,0.01952,0.01952,0
-0.00976,0.00976,-0.00976,-0.00488,0,-0.00488,-0.06832,0.00976,0.01952,0.01952,0.01952,0
-0.00976,0.00976,-0.00976,-0.00488,0,-0.00488,-0.06832,0.00976,0.01952,0.01952,0.01952,0
-0.00976,0.00976,-0.00976,-0.00488,0,-0.00488,-0.06832,0.00976,0.01952,0.01952,0.01952,0
-0.00976,0.00976,-0.00976,-0.00488,0,-0.00488,-0.06832,0.00976,0.01952,0.01952,0.01952,0
-0.00976,0.00976,-0.00976,-0.00488,0,-0.00488,-0.06832,0.00488,0.01952,0.01952,0.01952,0
-0.00976,0.00976,-0.00976,-0.00488,0,-0.00488,-0.06832,0,0.01952,0.01952,0.01952,0
-0.00976,0.00976,-0.00976,-0.00488,0,-0.00488,-0.06832,0,0.01464,0.01952,0.01952,0
-0.00976,0.00976,-0.00976,-0.00488,0,-0.00488,-0.06832,0,0.00976,0.01952,0.01952,0
-0.00976,0.00976,-0.00976,-0.00488,0,-0.00488,-0.06832,0,0.00976,0.01464,0.01464,0
-0.00976,0.00976,-0.00976,-0.00488,0,-0.00488,-0.06832,0,0.00976,0.00976,0.00976,0
-0.00976,0.00976,-0.00976,-0.00488,0,-0.00488,-0.0732,-0.00488,0.00976,0.00976,0.00976,0
-0.00976,0.00976,-0.00976,-0.00488,0,-0.00488,-0.07808,-0.00976,0.00976,0.00976,0.00976,0
-0.00976,0.00976,-0.00976,-0.00488,0,-0.00488,-0.08296,-0.00976,0.00976,0.00976,0.00976,-0.00488
-0.00976,0.00976,-0.00976,-0.00488,0,-0.00488,-0.08784,-0.00976,0.00976,0.00976,0.00976,-0.00976
-0.00976,0.00976,-0.00976,-0.00488,0,-0.00488,-0.08784,-0.00976,0.00488,0.00976,0.00488,-0.00976
-0.00976,0.00976,-0.00976,-0.00488,0,-0.00488,-0.08784,-0.00976,0,0.00976,0,-0.00976
-0.00976,0.0122,-0.01464,-0.00976,-0.00488,-0.00244,-0.08296,-0.00976,0,0.00488,-0.00488,-0.00976
-0.00976,0.01464,-0.01952,-0.01464,-0.00976,0,-0.07808,-0.00976,0,0,-0.00976,-0.00976
-0.00976,0.01464,-0.01952,-0.01464,-0.00976,0,-0.07808,-0.00976,0,0,-0.00976,-0.00976
-0.00976,0.01464,-0.01952,-0.01464,-0.00976,0,-0.07808,-0.00976,0,0,-0.00976,-0.00976
-0.00976,0.01464,-0.01952,-0.01464,-0.00976,0,-0.07808,-0.00976,0,0,-0.00488,-0.00488
-0.00976,0.01464,-0.01952,-0.01464,-0.00976,0,-0.07808,-0.00976,0,0,0,0
-0.00976,0.01464,-0.01952,-0.01464,-0.00976,0,-0.07808,-0.00976,0,0,0,0
-0.00976,0.01464,-0.01952,-0.01464,-0.00976,0,-0.07808,-0.00976,0,0,0,0
-0.00976,0.01464,-0.01952,-0.01464,-0.00976,0,-0.07808,-0.00976,0,0,0,0
-0.00976,0.01464,-0.01952,-0.01464,-0.00976,0,-0.07808,-0.00976,0,0,0,0
-0.00976,0.01464,-0.01952,-0.01464,-0.00976,0,-0.07808,-0.00976,0,-0.00488,0,0
-0.00976,0.01464,-0.01952,-0.01464,-0.00976,0,-0.07808,-0.00976,0,-0.00976,0,0
-0.00976,0.01464,-0.01952,-0.01464,-0.00976,0,-0.07808,-0.01464,0,-0.00976,0,0
-0.00976,0.01464,-0.01952,-0.01464,-0.00976,0,-0.07808,-0.01952,0,-0.00976,0,0
-0.00976,0.01464,-0.01952,-0.01464,-0.00976,0,-0.0732,-0.01952,0.00488,-0.00976,0,0
-0.00976,0.01464,-0.01952,-0.01464,-0.00976,0,-0.06832,-0.01952,0.00976,-0.00976,0,0
-0.00976,0.0122,-0.01464,-0.00976,-0.00488,-0.00244,-0.06832,-0.01464,0.00976,-0.00488,0,0
-0.00976,0.00976,-0.00976,-0.00488,0,-0.00488,-0.06832,-0.00976,0.00976,0,0,0
-0.00488,0.00732,-0.00976,-0.00732,-0.00488,0,-0.06344,-0.00976,0.00976,0,0,0
0,0.00488,-0.00976,-0.00976,-0.00976,0.00488,-0.05856,-0.00976,0.00976,0,0,0
0,0.00488,-0.00976,-0.00976,-0.00976,0.00488,-0.05856,-0.00976,0.00976,0,0.00488,0
0,0.00488,-0.00976,-0.00976,-0.00976,0.00488,-0.05856,-0.00976,0.00976,0,0.00976,0
0,0.00488,-0.00976,-0.00976,-0.00976,0.00488,-0.05856,-0.00976,0.00976,0,0.00976,0
0,0.00488,-0.00976,-0.00976,-0.00976,0.00488,-0.05856,-0.00976,0.00976,0,0.00976,0
-0.00488,0.00732,-0.00976,-0.00732,-0.00488,0,-0.05856,-0.00976,0.00976,0,0.00488,-0.00488
-0.00976,0.00976,-0.00976,-0.00488,0,-0.00488,-0.05856,-0.00976,0.00976,0,0,-0.00976
-0.00976,0.00976,-0.00976,-0.00488,0,-0.00488,-0.05856,-0.00976,0.00976,0,0,-0.00976
-0.00976,0.00976,-0.00976,-0.00488,0,-0.00488,-0.05856,-0.00976,0.00976,0,0,-0.00976
-0.00488,0.00732,-0.00976,-0.00732,-0.00488,0,-0.05368,-0.00976,0.01464,0,0.00488,-0.00488
0,0.00488,-0.00976,-0.00976,-0.00976,0.00488,-0.0488,-0.00976,0.01952,0,0.00976,0
0,0.00488,-0.00976,-0.00976,-0.00976,0.00488,-0.0488,-0.00976,0.01952,0,0.00976,0
0,0.00488,-0.00976,-0.00976,-0.00976,0.00488,-0.0488,-0.00976,0.01952,0,0.00976,0
0,0.00488,-0.00976,-0.00976,-0.00976,0.00488,-0.0488,-0.00976,0.01952,0,0.00976,0
0,0.00488,-0.00976,-0.00976,-0.00976,0.00488,-0.0488,-0.00976,0.01952,0,0.00976,0
0,0.00488,-0.00976,-0.00976,-0.00976,0.00488,-0.04392,-0.00488,0.01952,0,0.00976,0
0,0.00488,-0.00976,-0.00976,-0.00976,0.00488,-0.03904,0,0.01952,0,0.00976,0
0,0.00488,-0.00976,-0.00976,-0.00976,0.00488,-0.03904,0,0.0244,0,0.00976,0.00488
0,0.00488,-0.00976,-0.00976,-0.00976,0.00488,-0.03904,0,0.02928,0,0.00976,0.00976
0,0.00488,-0.00976,-0.00976,-0.00976,0.00488,-0.03904,0,0.02928,0,0.00976,0.00976
0,0.00488,-0.00976,-0.00976,-0.00976,0.00488,-0.03904,0,0.02928,0,0.00976,0.00976
0,0.00488,-0.00976,-0.00976,-0.00976,0.00488,-0.03904,0,0.02928,0,0.00976,0.00976
0,0.00488,-0.00976,-0.00976,-0.00976,0.00488,-0.03904,0,0.02928,0,0.00976,0.00976
0,0.00488,-0.00976,-0.00976,-0.00976,0.00488,-0.03416,0,0.02928,0,0.00976,0.00976
0,0.00488,-0.00976,-0.00976,-0.00976,0.00488,-0.02928,0,0.02928,0,0.00976,0.00976
0,0.00488,-0.00976,-0.00976,-0.00976,0.00488,-0.02928,0,0.02928,0.00488,0.01464,0.00976
0,0.00488,-0.00976,-0.00976,-0.00976,0.00488,-0.02928,0,0.02928,0.00976,0.01952,0.00976
0,0.00488,-0.00976,-0.00976,-0.00976,0.00488,-0.02928,0,0.02928,0.00976,0.01952,0.00976
0,0.00488,-0.00976,-0.00976,-0.00976,0.00488,-0.02928,0,0.02928,0.00976,0.01952,0.00976
0,0.00732,-0.01464,-0.01464,-0.01464,0.00732,-0.0244,0.00488,0.02928,0.00488,0.01464,0.00976
0,0.00976,-0.01952,-0.01952,-0.01952,0.00976,-0.01952,0.00976,0.02928,0,0.00976,0.00976
0,0.00976,-0.01952,-0.01952,-0.01952,0.00976,-0.01952,0.00976,0.02928,0,0.00976,0.00976
0,0.00976,-0.01952,-0.01952,-0.01952,0.00976,-0.01952,0.00976,0.02928,0,0.00976,0.00976
0,0.00976,-0.01952,-0.01952,-0.01952,0.00976,-0.01952,0.00488,0.02928,0,0.00976,0.00976
0,0.00976,-0.01952,-0.01952,-0.01952,0.00976,-0.01952,0,0.02928,0,0.00976,0.00976
0,0.00732,-0.01464,-0.01464,-0.01464,0.00732,-0.01952,0,0.0244,0,0.00976,0.00976
0,0.00488,-0.00976,-0.00976,-0.00976,0.00488,-0.01952,0,0.01952,0,0.00976,0.00976
0,0.00488,-0.00976,-0.00976,-0.00976,0.00488,-0.01952,0,0.01952,0,0.00976,0.00976
0,0.00488,-0.00976,-0.00976,-0.00976,0.00488,-0.01952,0,0.01952,0,0.00976,0.00976
0,0.00488,-0.00976,-0.00976,-0.00976,0.00488,-0.01464,0,0.0244,0.00488,0.01464,0.01464
0,0.00488,-0.00976,-0.00976,-0.00976,0.00488,-0.00976,0,0.02928,0.00976,0.01952,0.01952
0,0.00244,-0.00488,-0.00488,-0.00488,0.00244,-0.00488,0.00488,0.02928,0.00976,0.01952,0.01952
0,0,0,0,0,0,0,0.00976,0.02928,0.00976,0.01952,0.01952
0.00488,-0.00488,0.00488,0.00244,0,0.00244,0.00488,0.01464,0.03904,0.01952,0.0244,0.01952
0.00976,-0.00976,0.00976,0.00488,0,0.00488,0.00976,0.01952,0.0488,0.02928,0.02928,0.01952
0.01464,-0.01708,0.01952,0.0122,0.00488,0.00488,0.01464,0.0244,0.05368,0.02928,0.03416,0.0244
0.01952,-0.0244,0.02928,0.01952,0.00976,0.00488,0.01952,0.02928,0.05856,0.02928,0.03904,0.02928
0.01952,-0.02928,0.03904,0.02928,0.01952,0,0.0244,0.02928,0.06344,0.03416,0.03904,0.03416
0.01952,-0.03416,0.0488,0.03904,0.02928,-0.00488,0.02928,0.02928,0.06832,0.03904,0.03904,0.03904
0.0244,-0.0488,0.0732,0.061,0.0488,-0.0122,0.02928,0.02928,0.07808,0.0488,0.0488,0.0488
0.02928,-0.06344,0.0976,0.08296,0.06832,-0.01952,0.02928,0.02928,0.08784,0.05856,0.05856,0.05856
0.03904,-0.07564,0.11224,0.09272,0.0732,-0.01708,0.01952,0.02928,0.0976,0.06832,0.06832,0.06832
0.0488,-0.08784,0.12688,0.10248,0.07808,-0.01464,0.00976,0.02928,0.10736,0.07808,0.07808,0.07808
0.0488,-0.09516,0.14152,0.11712,0.09272,-0.02196,0,0.02928,0.11712,0.08784,0.08784,0.08784
0.0488,-0.10248,0.15616,0.13176,0.10736,-0.02928,-0.00976,0.02928,0.12688,0.0976,0.0976,0.0976
0.05368,-0.1098,0.16592,0.13908,0.11224,-0.02928,-0.01952,0.0244,0.12688,0.0976,0.10248,0.10248
0.05856,-0.11712,0.17568,0.1464,0.11712,-0.02928,-0.02928,0.01952,0.12688,0.0976,0.10736,0.10736
0.05856,-0.11712,0.17568,0.1464,0.11712,-0.02928,-0.03904,0.01464,0.122,0.0976,0.10736,0.10736
0.05856,-0.11712,0.17568,0.1464,0.11712,-0.02928,-0.0488,0.00976,0.11712,0.0976,0.10736,0.10736
0.05856,-0.11224,0.16592,0.13664,0.10736,-0.0244,-0.0488,0.00976,0.11224,0.09272,0.10248,0.10248
0.05856,-0.10736,0.15616,0.12688,0.0976,-0.01952,-0.0488,0.00976,0.10736,0.08784,0.0976,0.0976
0.0488,-0.09272,0.13664,0.11224,0.08784,-0.01952,-0.04392,0.00976,0.0976,0.08296,0.08784,0.08784
0.03904,-0.07808,0.11712,0.0976,0.07808,-0.01952,-0.03904,0.00976,0.08784,0.07808,0.07808,0.07808
0.0244,-0.05124,0.07808,0.06588,0.05368,-0.01464,-0.03904,0.00488,0.06832,0.05368,0.05368,0.05368
0.00976,-0.0244,0.03904,0.03416,0.02928,-0.00976,-0.03904,0,0.0488,0.02928,0.02928,0.02928
0.00488,-0.00976,0.01464,0.0122,0.00976,-0.00244,-0.03416,-0.00488,0.03416,0.01464,0.01464,0.00976
0,0.00488,-0.00976,-0.00976,-0.00976,0.00488,-0.02928,-0.00976,0.01952,0,0,-0.00976
-0.00488,0.01464,-0.0244,-0.02196,-0.01952,0.00732,-0.02928,-0.00976,0.01464,-0.00488,-0.00488,-0.00976
-0.00976,0.0244,-0.03904,-0.03416,-0.02928,0.00976,-0.02928,-0.00976,0.00976,-0.00976,-0.00976,-0.00976
-0.00976,0.0244,-0.03904,-0.03416,-0.02928,0.00976,-0.02928,-0.00976,0.00488,-0.00976,-0.00976,-0.00976
-0.00976,0.0244,-0.03904,-0.03416,-0.02928,0.00976,-0.02928,-0.00976,0,-0.00976,-0.00976,-0.00976
-0.00976,0.0244,-0.03904,-0.03416,-0.02928,0.00976,-0.02928,-0.00976,0,-0.00976,-0.00976,-0.00976
-0.00976,0.0244,-0.03904,-0.03416,-0.02928,0.00976,-0.02928,-0.00976,0,-0.00976,-0.00976,-0.00976
-0.00976,0.0244,-0.03904,-0.03416,-0.02928,0.00976,-0.02928,-0.00488,0,-0.00976,-0.00976,-0.00976
-0.00976,0.0244,-0.03904,-0.03416,-0.02928,0.00976,-0.02928,0,0,-0.00976,-0.00976,-0.00976
-0.00488,0.01464,-0.0244,-0.02196,-0.01952,0.00732,-0.01464,0.04392,0.03904,0.02928,0.01464,0
0,0.00488,-0.00976,-0.00976,-0.00976,0.00488,0,0.08784,0.07808,0.06832,0.03904,0.00976
0.10248,-0.10492,0.10736,0.05612,0.00488,0.0488,-0.04392,0.18056,0.18056,0.23912,0.18544,0.08784
0.20496,-0.21472,0.22448,0.122,0.01952,0.09272,-0.08784,0.27328,0.28304,0.40992,0.33184,0.16592
0.32208,-0.39528,0.46848,0.30744,0.1464,0.08784,-0.35136,0.15128,0.3416,0.61976,0.56608,0.34648
0.4392,-0.57584,0.71248,0.49288,0.27328,0.08296,-0.61488,0.02928,0.40016,0.8296,0.80032,0.52704
0.52704,-0.7076,0.88816,0.62464,0.36112,0.08296,-0.8296,-0.14152,0.38064,0.94184,0.95648,0.66368
0.61488,-0.83936,1.06384,0.7564,0.44896,0.08296,-1.04432,-0.31232,0.36112,1.05408,1.11264,0.80032
0.48312,-0.62952,0.77592,0.53436,0.2928,0.09516,-1.03456,-0.45384,0.05856,0.64416,0.77104,0.62464
0.35136,-0.41968,0.488,0.31232,0.13664,0.10736,-1.0248,-0.59536,-0.244,0.23424,0.42944,0.44896
0.11712,-0.11712,0.11712,0.05856,0,0.05856,-0.86864,-0.68808,-0.44896,-0.12688,0.09272,0.20008
-0.11712,0.18544,-0.25376,-0.1952,-0.13664,0.00976,-0.71248,-0.7808,-0.65392,-0.488,-0.244,-0.0488
-0.1464,0.20984,-0.27328,-0.20008,-0.12688,-0.00976,-0.57584,-0.64904,-0.56608,-0.4392,-0.244,-0.06344
-0.17568,0.23424,-0.2928,-0.20496,-0.11712,-0.02928,-0.4392,-0.51728,-0.47824,-0.3904,-0.244,-0.07808
-0.16592,0.21228,-0.25864,-0.17568,-0.09272,-0.0366,-0.2928,-0.37576,-0.35624,-0.30744,-0.1952,-0.07808
-0.15616,0.19032,-0.22448,-0.1464,-0.06832,-0.04392,-0.1464,-0.23424,-0.23424,-0.22448,-0.1464,-0.07808
-0.0976,0.12932,-0.16104,-0.11224,-0.06344,-0.01708,-0.10248,-0.13664,-0.16104,-0.15616,-0.10248,-0.05368
-0.03904,0.06832,-0.0976,-0.07808,-0.05856,0.00976,-0.05856,-0.03904,-0.08784,-0.08784,-0.05856,-0.02928
-0.02928,0.061,-0.09272,-0.07808,-0.06344,0.01708,-0.01464,0.00488,-0.05368,-0.06832,-0.05368,-0.02928
-0.01952,0.05368,-0.08784,-0.07808,-0.06832,0.0244,0.02928,0.0488,-0.01952,-0.0488,-0.0488,-0.02928
-0.01464,0.05124,-0.08784,-0.08052,-0.0732,0.02928,0.02928,0.0488,-0.01952,-0.0488,-0.04392,-0.02928
-0.00976,0.0488,-0.08784,-0.08296,-0.07808,0.03416,0.02928,0.0488,-0.01952,-0.0488,-0.03904,-0.02928
-0.00488,0.04392,-0.08296,-0.08052,-0.07808,0.0366,0.03904,0.06832,-0.00488,-0.03904,-0.03416,-0.0244
0,0.03904,-0.07808,-0.07808,-0.07808,0.03904,0.0488,0.08784,0.00976,-0.02928,-0.02928,-0.01952
0,0.0366,-0.0732,-0.0732,-0.0732,0.0366,0.0488,0.08784,0.00976,-0.0244,-0.0244,-0.01464
0,0.03416,-0.06832,-0.06832,-0.06832,0.03416,0.0488,0.08784,0.00976,-0.01952,-0.01952,-0.00976
0.00488,0.02928,-0.06344,-0.06588,-0.06832,0.0366,0.0488,0.09272,0.00976,-0.01952,-0.01952,-0.00976
0.00976,0.0244,-0.05856,-0.06344,-0.06832,0.03904,0.0488,0.0976,0.00976,-0.01952,-0.01952,-0.00976
0.01464,0.02196,-0.05856,-0.06588,-0.0732,0.04392,0.0488,0.0976,0.01464,-0.01952,-0.01952,-0.00976
0.01952,0.01952,-0.05856,-0.06832,-0.07808,0.0488,0.0488,0.0976,0.01952,-0.01952,-0.01952,-0.00976
0.01952,0.01952,-0.05856,-0.06832,-0.07808,0.0488,0.05368,0.10248,0.0244,-0.01464,-0.01464,-0.00976
0.01952,0.01952,-0.05856,-0.06832,-0.07808,0.0488,0.05856,0.10736,0.02928,-0.00976,-0.00976,-0.00976
0.01952,0.01952,-0.05856,-0.06832,-0.07808,0.0488,0.05856,0.11224,0.03416,-0.00488,-0.00976,-0.00976
0.01952,0.01952,-0.05856,-0.06832,-0.07808,0.0488,0.05856,0.11712,0.03904,0,-0.00976,-0.00976
0.01952,0.01952,-0.05856,-0.06832,-0.07808,0.0488,0.06344,0.122,0.04392,0,-0.00488,-0.00976
0.01952,0.01952,-0.05856,-0.06832,-0.07808,0.0488,0.06832,0.12688,0.0488,0,0,-0.00976
0.01952,0.01708,-0.05368,-0.06344,-0.0732,0.04636,0.06832,0.13176,0.05368,0,0,-0.00976
0.01952,0.01464,-0.0488,-0.05856,-0.06832,0.04392,0.06832,0.13664,0.05856,0,0,-0.00976
0.0244,0.00976,-0.04392,-0.05612,-0.06832,0.04636,0.06832,0.13664,0.05856,0.00488,0,-0.00976
0.02928,0.00488,-0.03904,-0.05368,-0.06832,0.0488,0.06832,0.13664,0.05856,0.00976,0,-0.00976
0.02928,0.00244,-0.03416,-0.0488,-0.06344,0.04636,0.06832,0.1464,0.05856,0.00976,0.00488,-0.00976
0.02928,0,-0.02928,-0.04392,-0.05856,0.04392,0.06832,0.15616,0.05856,0.00976,0.00976,-0.00976
0.02928,0,-0.02928,-0.04392,-0.05856,0.04392,0.06832,0.16104,0.05856,0.00976,0.00976,-0.00488
0.02928,0,-0.02928,-0.04392,-0.05856,0.04392,0.06832,0.16592,0.05856,0.00976,0.00976,0
0.03416,-0.00244,-0.02928,-0.04636,-0.06344,0.0488,0.06832,0.1708,0.05856,0.00976,0.00976,0.00488
0.03904,-0.00488,-0.02928,-0.0488,-0.06832,0.05368,0.06832,0.17568,0.05856,0.00976,0.00976,0.00976
0.04392,-0.0122,-0.01952,-0.04148,-0.06344,0.05368,0.06832,0.18544,0.05856,0.00976,0.01464,0.00976
0.0488,-0.01952,-0.00976,-0.03416,-0.05856,0.05368,0.06832,0.1952,0.05856,0.00976,0.01952,0.00976
0.05368,-0.0244,-0.00488,-0.03172,-0.05856,0.05612,0.06832,0.20008,0.05856,0.01464,0.01952,0.00976
0.05856,-0.02928,0,-0.02928,-0.05856,0.05856,0.06832,0.20496,0.05856,0.01952,0.01952,0.00976
0.06344,-0.03172,0,-0.03172,-0.06344,0.06344,0.06832,0.2196,0.05856,0.01952,0.0244,0.01464
0.06832,-0.03416,0,-0.03416,-0.06832,0.06832,0.06832,0.23424,0.05856,0.01952,0.02928,0.01952
0.07808,-0.04148,0.00488,-0.03416,-0.0732,0.07564,0.06832,0.244,0.06344,0.0244,0.02928,0.01952
0.08784,-0.0488,0.00976,-0.03416,-0.07808,0.08296,0.06832,0.25376,0.06832,0.02928,0.02928,0.01952
0.0976,-0.05612,0.01464,-0.03416,-0.08296,0.09028,0.06832,0.2684,0.0732,0.02928,0.03416,0.01952
0.10736,-0.06344,0.01952,-0.03416,-0.08784,0.0976,0.06832,0.28304,0.07808,0.02928,0.03904,0.01952
0.11224,-0.07076,0.02928,-0.02684,-0.08296,0.0976,0.06832,0.2928,0.08296,0.03416,0.04392,0.0244
0.11712,-0.07808,0.03904,-0.01952,-0.07808,0.0976,0.06832,0.30256,0.08784,0.03904,0.0488,0.02928
0.12688,-0.08784,0.0488,-0.01464,-0.07808,0.10248,0.06832,0.3172,0.09272,0.04392,0.0488,0.03416
0.13664,-0.0976,0.05856,-0.00976,-0.07808,0.10736,0.06832,0.33184,0.0976,0.0488,0.0488,0.03904
0.1464,-0.10492,0.06344,-0.00976,-0.08296,0.11468,0.0732,0.35136,0.10248,0.05368,0.05368,0.04392
0.15616,-0.11224,0.06832,-0.00976,-0.08784,0.122,0.07808,0.37088,0.10736,0.05856,0.05856,0.0488
0.16592,-0.11956,0.0732,-0.00976,-0.09272,0.12932,0.07808,0.38552,0.11224,0.06344,0.06832,0.0488
0.17568,-0.12688,0.07808,-0.00976,-0.0976,0.13664,0.07808,0.40016,0.11712,0.06832,0.07808,0.0488
0.18056,-0.13176,0.08296,-0.00732,-0.0976,0.13908,0.07808,0.4148,0.11712,0.0732,0.07808,0.05368
0.18544,-0.13664,0.08784,-0.00488,-0.0976,0.14152,0.07808,0.42944,0.11712,0.07808,0.07808,0.05856
0.19032,-0.14152,0.09272,-0.00244,-0.0976,0.14396,0.0732,0.4392,0.11712,0.08296,0.08784,0.06344
0.1952,-0.1464,0.0976,0,-0.0976,0.1464,0.06832,0.44896,0.11712,0.08784,0.0976,0.06832
0.20496,-0.15616,0.10736,0.00488,-0.0976,0.15128,0.06832,0.45872,0.11712,0.08784,0.10248,0.07808
0.21472,-0.16592,0.11712,0.00976,-0.0976,0.15616,0.06832,0.46848,0.11712,0.08784,0.10736,0.08784
0.22448,-0.17324,0.122,0.00976,-0.10248,0.16348,0.05856,0.46848,0.11712,0.08296,0.10736,0.08784
0.23424,-0.18056,0.12688,0.00976,-0.10736,0.1708,0.0488,0.46848,0.11712,0.07808,0.10736,0.08784
0.23424,-0.18056,0.12688,0.00976,-0.10736,0.1708,0.04392,0.4636,0.10736,0.0732,0.10248,0.08296
0.23424,-0.18056,0.12688,0.00976,-0.10736,0.1708,0.03904,0.45872,0.0976,0.06832,0.0976,0.07808
0.23424,-0.18056,0.12688,0.00976,-0.10736,0.1708,0.03416,0.44896,0.09272,0.06344,0.09272,0.07808
0.23424,-0.18056,0.12688,0.00976,-0.10736,0.1708,0.02928,0.4392,0.08784,0.05856,0.08784,0.07808
0.22936,-0.17812,0.12688,0.0122,-0.10248,0.16592,0.0244,0.41968,0.0732,0.0488,0.08296,0.07808
0.22448,-0.17568,0.12688,0.01464,-0.0976,0.16104,0.01952,0.40016,0.05856,0.03904,0.07808,0.07808
0.21472,-0.16592,0.11712,0.00976,-0.0976,0.15616,0.00976,0.37088,0.0488,0.02928,0.0732,0.07808
0.20496,-0.15616,0.10736,0.00488,-0.0976,0.15128,0,0.3416,0.03904,0.01952,0.06832,0.07808
0.18056,-0.13908,0.0976,0.00732,-0.08296,0.13176,-0.00488,0.3172,0.03416,0.01464,0.05856,0.06832
0.15616,-0.122,0.08784,0.00976,-0.06832,0.11224,-0.00976,0.2928,0.02928,0.00976,0.0488,0.05856
0.13664,-0.10736,0.07808,0.00976,-0.05856,0.0976,-0.01464,0.25864,0.02928,0.00488,0.04392,0.05368
0.11712,-0.09272,0.06832,0.00976,-0.0488,0.08296,-0.01952,0.22448,0.02928,0,0.03904,0.0488
0.0976,-0.07564,0.05368,0.00488,-0.04392,0.07076,-0.0244,0.1952,0.02928,-0.00488,0.03416,0.04392
0.07808,-0.05856,0.03904,0,-0.03904,0.05856,-0.02928,0.16592,0.02928,-0.00976,0.02928,0.03904
0.06344,-0.04148,0.01952,-0.0122,-0.04392,0.05368,-0.02928,0.1464,0.02928,-0.00976,0.0244,0.03904
0.0488,-0.0244,0,-0.0244,-0.0488,0.0488,-0.02928,0.12688,0.02928,-0.00976,0.01952,0.03904
0.03416,-0.0122,-0.00976,-0.02684,-0.04392,0.03904,-0.02928,0.10248,0.02928,-0.00976,0.01952,0.03416
0.01952,0,-0.01952,-0.02928,-0.03904,0.02928,-0.02928,0.07808,0.02928,-0.00976,0.01952,0.02928
0.00488,0.00732,-0.01952,-0.02196,-0.0244,0.01464,-0.03416,0.06344,0.02928,-0.00488,0.01952,0.0244
-0.00976,0.01464,-0.01952,-0.01464,-0.00976,0,-0.03904,0.0488,0.02928,0,0.01952,0.01952
-0.01952,0.01952,-0.01952,-0.00976,0,-0.00976,-0.04392,0.04392,0.02928,0,0.01952,0.01952
-0.02928,0.0244,-0.01952,-0.00488,0.00976,-0.01952,-0.0488,0.03904,0.02928,0,0.01952,0.01952
-0.03416,0.02928,-0.0244,-0.00732,0.00976,-0.02196,-0.0488,0.02928,0.02928,0,0.01952,0.01952
-0.03904,0.03416,-0.02928,-0.00976,0.00976,-0.0244,-0.0488,0.01952,0.02928,0,0.01952,0.01952
-0.03904,0.0366,-0.03416,-0.01464,0.00488,-0.02196,-0.05368,0.01464,0.0244,-0.00976,0.01464,0.01952
-0.03904,0.03904,-0.03904,-0.01952,0,-0.01952,-0.05856,0.00976,0.01952,-0.01952,0.00976,0.01952
-0.03904,0.03904,-0.03904,-0.01952,0,-0.01952,-0.05856,0.00488,0.01952,-0.01952,0.00488,0.01464
-0.03904,0.03904,-0.03904,-0.01952,0,-0.01952,-0.05856,0,0.01952,-0.01952,0,0.00976
-0.04392,0.04148,-0.03904,-0.01708,0.00488,-0.0244,-0.05368,0,0.01952,-0.01464,0,0.00976
-0.0488,0.04392,-0.03904,-0.01464,0.00976,-0.02928,-0.0488,0,0.01952,-0.00976,0,0.00976
-0.0488,0.04392,-0.03904,-0.01464,0.00976,-0.02928,-0.0488,0.00488,0.01952,-0.00976,0.00488,0.00976
-0.0488,0.04392,-0.03904,-0.01464,0.00976,-0.02928,-0.0488,0.00976,0.01952,-0.00976,0.00976,0.00976
-0.04392,0.04392,-0.04392,-0.02196,0,-0.02196,-0.0488,0.01464,0.0244,-0.00976,0.01464,0.00976
-0.03904,0.04392,-0.0488,-0.02928,-0.00976,-0.01464,-0.0488,0.01952,0.02928,-0.00976,0.01952,0.00976
-0.03416,0.04148,-0.0488,-0.03172,-0.01464,-0.00976,-0.0488,0.01952,0.03416,0,0.0244,0.00976
-0.02928,0.03904,-0.0488,-0.03416,-0.01952,-0.00488,-0.0488,0.01952,0.03904,0.00976,0.02928,0.00976
-0.02928,0.03904,-0.0488,-0.03416,-0.01952,-0.00488,-0.0488,0.01952,0.03904,0.00976,0.02928,0.00976
-0.02928,0.03904,-0.0488,-0.03416,-0.01952,-0.00488,-0.0488,0.01952,0.03904,0.00976,0.02928,0.00976
-0.0244,0.03416,-0.04392,-0.03172,-0.01952,-0.00244,-0.0488,0.01952,0.03904,0.00976,0.02928,0.00976
-0.01952,0.02928,-0.03904,-0.02928,-0.01952,0,-0.0488,0.01952,0.03904,0.00976,0.02928,0.00976
-0.01464,0.02196,-0.02928,-0.02196,-0.01464,0,-0.0488,0.01952,0.03904,0.00976,0.02928,0.00976
-0.00976,0.01464,-0.01952,-0.01464,-0.00976,0,-0.0488,0.01952,0.03904,0.00976,0.02928,0.00976
-0.00976,0.0122,-0.01464,-0.00976,-0.00488,-0.00244,-0.0488,0.01464,0.03904,0.00976,0.02928,0.00976
-0.00976,0.00976,-0.00976,-0.00488,0,-0.00488,-0.0488,0.00976,0.03904,0.00976,0.02928,0.00976
-0.00976,0.00976,-0.00976,-0.00488,0,-0.00488,-0.05368,0.00488,0.03904,0.00976,0.02928,0.00488
-0.00976,0.00976,-0.00976,-0.00488,0,-0.00488,-0.05856,0,0.03904,0.00976,0.02928,0
-0.00976,0.0122,-0.01464,-0.00976,-0.00488,-0.00244,-0.05856,0,0.03416,0.00976,0.02928,0
-0.00976,0.01464,-0.01952,-0.01464,-0.00976,0,-0.05856,0,0.02928,0.00976,0.02928,0
-0.00976,0.01464,-0.01952,-0.01464,-0.00976,0,-0.05856,0,0.02928,0.00976,0.02928,0
-0.00976,0.01464,-0.01952,-0.01464,-0.00976,0,-0.05856,0,0.02928,0.00976,0.02928,0
-0.01464,0.01952,-0.0244,-0.01708,-0.00976,-0.00244,-0.05856,0,0.02928,0.01464,0.03416,0
-0.01952,0.0244,-0.02928,-0.01952,-0.00976,-0.00488,-0.05856,0,0.02928,0.01952,0.03904,0
-0.01952,0.0244,-0.02928,-0.01952,-0.00976,-0.00488,-0.05856,-0.00488,0.0244,0.01952,0.03904,0.00488
-0.01952,0.0244,-0.02928,-0.01952,-0.00976,-0.00488,-0.05856,-0.00976,0.01952,0.01952,0.03904,0.00976
-0.01952,0.0244,-0.02928,-0.01952,-0.00976,-0.00488,-0.05856,-0.00976,0.01464,0.01464,0.03904,0.00976
-0.01952,0.0244,-0.02928,-0.01952,-0.00976,-0.00488,-0.05856,-0.00976,0.00976,0.00976,0.03904,0.00976
-0.01952,0.02196,-0.0244,-0.01464,-0.00488,-0.00732,-0.05856,-0.01464,0.00976,0.00488,0.03904,0.00976
-0.01952,0.01952,-0.01952,-0.00976,0,-0.00976,-0.05856,-0.01952,0.00976,0,0.03904,0.00976
-0.01952,0.01708,-0.01464,-0.00488,0.00488,-0.0122,-0.05856,-0.01952,0.00976,0,0.03904,0.00976
-0.01952,0.01464,-0.00976,0,0.00976,-0.01464,-0.05856,-0.01952,0.00976,0,0.03904,0.00976
-0.01952,0.01464,-0.00976,0,0.00976,-0.01464,-0.05856,-0.01952,0.00976,0,0.03904,0.00976
-0.01952,0.01464,-0.00976,0,0.00976,-0.01464,-0.05856,-0.01952,0.00976,0,0.03904,0.00976
-0.01952,0.01952,-0.01952,-0.00976,0,-0.00976,-0.05856,-0.01952,0.00488,0,0.03416,0.00976
-0.01952,0.0244,-0.02928,-0.01952,-0.00976,-0.00488,-0.05856,-0.01952,0,0,0.02928,0.00976
-0.01464,0.02196,-0.02928,-0.02196,-0.01464,0,-0.05856,-0.01952,0,0,0.0244,0.00488
-0.00976,0.01952,-0.02928,-0.0244,-0.01952,0.00488,-0.05856,-0.01952,0,0,0.01952,0
-0.00976,0.01952,-0.02928,-0.0244,-0.01952,0.00488,-0.05856,-0.01952,0,-0.00488,0.01952,0
-0.00976,0.01952,-0.02928,-0.0244,-0.01952,0.00488,-0.05856,-0.01952,0,-0.00976,0.01952,0
-0.01464,0.02196,-0.02928,-0.02196,-0.01464,0,-0.05856,-0.01952,0,-0.00976,0.01952,0.00488
-0.01952,0.0244,-0.02928,-0.01952,-0.00976,-0.00488,-0.05856,-0.01952,0,-0.00976,0.01952,0.00976
-0.01952,0.02196,-0.0244,-0.01464,-0.00488,-0.00732,-0.05856,-0.01952,0,-0.00488,0.0244,0.00976
-0.01952,0.01952,-0.01952,-0.00976,0,-0.00976,-0.05856,-0.01952,0,0,0.02928,0.00976
-0.01952,0.01952,-0.01952,-0.00976,0,-0.00976,-0.05856,-0.01952,0,0,0.02928,0.00976
-0.01952,0.01952,-0.01952,-0.00976,0,-0.00976,-0.05856,-0.01952,0,0,0.02928,0.00976
-0.01952,0.01952,-0.01952,-0.00976,0,-0.00976,-0.05368,-0.01952,0,0,0.02928,0.00976
-0.01952,0.01952,-0.01952,-0.00976,0,-0.00976,-0.0488,-0.01952,0,0,0.02928,0.00976
-0.01952,0.01952,-0.01952,-0.00976,0,-0.00976,-0.0488,-0.01952,0,0,0.02928,0.00976
-0.01952,0.01952,-0.01952,-0.00976,0,-0.00976,-0.0488,-0.01952,0,0,0.02928,0.00976
-0.01464,0.01464,-0.01464,-0.00732,0,-0.00732,-0.0488,-0.01952,0.00488,0,0.0244,0.00976
-0.00976,0.00976,-0.00976,-0.00488,0,-0.00488,-0.0488,-0.01952,0.00976,0,0.01952,0.00976
-0.00976,0.00976,-0.00976,-0.00488,0,-0.00488,-0.0488,-0.01952,0.00976,0,0.01952,0.00976
-0.00976,0.00976,-0.00976,-0.00488,0,-0.00488,-0.0488,-0.01952,0.00976,0,0.01952,0.00976
-0.00976,0.00976,-0.00976,-0.00488,0,-0.00488,-0.0488,-0.01952,0.00976,0,0.01952,0.00488
-0.00976,0.00976,-0.00976,-0.00488,0,-0.00488,-0.0488,-0.01952,0.00976,0,0.01952,0
-0.00976,0.00976,-0.00976,-0.00488,0,-0.00488,-0.04392,-0.01952,0.01464,0,0.01952,0
-0.00976,0.00976,-0.00976,-0.00488,0,-0.00488,-0.03904,-0.01952,0.01952,0,0.01952,0
-0.00976,0.00976,-0.00976,-0.00488,0,-0.00488,-0.03904,-0.01464,0.01952,0,0.01952,0
-0.00976,0.00976,-0.00976,-0.00488,0,-0.00488,-0.03904,-0.00976,0.01952,0,0.01952,0
-0.00976,0.00732,-0.00488,0,0.00488,-0.00732,-0.03904,-0.00976,0.01952,0,0.01952,0
-0.00976,0.00488,0,0.00488,0.00976,-0.00976,-0.03904,-0.00976,0.01952,0,0.01952,0
-0.00488,0,0.00488,0.00732,0.00976,-0.00732,-0.03904,-0.00976,0.01952,0,0.01952,0.00488
0,-0.00488,0.00976,0.00976,0.00976,-0.00488,-0.03904,-0.00976,0.01952,0,0.01952,0.00976
0,-0.00488,0.00976,0.00976,0.00976,-0.00488,-0.03904,-0.00976,0.01952,0,0.01952,0.00976
0,-0.00488,0.00976,0.00976,0.00976,-0.00488,-0.03904,-0.00976,0.01952,0,0.01952,0.00976
-0.00488,0,0.00488,0.00732,0.00976,-0.00732,-0.03416,-0.00976,0.01952,0,0.01952,0.00976
-0.00976,0.00488,0,0.00488,0.00976,-0.00976,-0.02928,-0.00976,0.01952,0,0.01952,0.00976
-0.00976,0.00488,0,0.00488,0.00976,-0.00976,-0.02928,-0.00976,0.01952,0,0.01952,0.00488
-0.00976,0.00488,0,0.00488,0.00976,-0.00976,-0.02928,-0.00976,0.01952,0,0.01952,0
-0.00976,0.00488,0,0.00488,0.00976,-0.00976,-0.0244,-0.00488,0.0244,0,0.01952,0
-0.00976,0.00488,0,0.00488,0.00976,-0.00976,-0.01952,0,0.02928,0,0.01952,0
-0.00976,0.00488,0,0.00488,0.00976,-0.00976,-0.01952,0,0.02928,0,0.01952,0
-0.00976,0.00488,0,0.00488,0.00976,-0.00976,-0.01952,0,0.02928,0,0.01952,0
-0.00488,0.00244,0,0.00244,0.00488,-0.00488,-0.01464,0,0.02928,0,0.01952,0
0,0,0,0,0,0,-0.00976,0,0.02928,0,0.01952,0
0,0,0,0,0,0,-0.00976,0,0.02928,0,0.01464,0
0,0,0,0,0,0,-0.00976,0,0.02928,0,0.00976,0
0,0,0,0,0,0,-0.00976,0,0.0244,0,0.00976,0
0,0,0,0,0,0,-0.00976,0,0.01952,0,0.00976,0
0,0.00244,-0.00488,-0.00488,-0.00488,0.00244,-0.00488,0,0.01952,0,0.00976,0
0,0.00488,-0.00976,-0.00976,-0.00976,0.00488,0,0,0.01952,0,0.00976,0
0,0.00488,-0.00976,-0.00976,-0.00976,0.00488,0,0,0.0244,0,0.00976,0
0,0.00488,-0.00976,-0.00976,-0.00976,0.00488,0,0,0.02928,0,0.00976,0
-0.00488,0.00732,-0.00976,-0.00732,-0.00488,0,0,0,0.02928,0,0.00976,0.00488
-0.00976,0.00976,-0.00976,-0.00488,0,-0.00488,0,0,0.02928,0,0.00976,0.00976
-0.00976,0.00976,-0.00976,-0.00488,0,-0.00488,-0.00488,0,0.02928,0,0.00976,0.00976
-0.00976,0.00976,-0.00976,-0.00488,0,-0.00488,-0.00976,0,0.02928,0,0.00976,0.00976
-0.00488,0.00488,-0.00488,-0.00244,0,-0.00244,-0.00976,0,0.0244,0,0.00488,0.00976
0,0,0,0,0,0,-0.00976,0,0.01952,0,0,0.00976
0,-0.00244,0.00488,0.00488,0.00488,-0.00244,-0.00976,0,0.01952,0,0,0.00976
0,-0.00488,0.00976,0.00976,0.00976,-0.00488,-0.00976,0,0.01952,0,0,0.00976
0,-0.00732,0.01464,0.01464,0.01464,-0.00732,-0.00976,0,0.0244,0.00488,0.00488,0.00976
0,-0.00976,0.01952,0.01952,0.01952,-0.00976,-0.00976,0,0.02928,0.00976,0.00976,0.00976
0.00976,-0.01464,0.01952,0.01464,0.00976,0,-0.00488,0.00488,0.03904,0.01464,0.01464,0.01464
0.01952,-0.01952,0.01952,0.00976,0,0.00976,0,0.00976,0.0488,0.01952,0.01952,0.01952
0.01952,-0.0244,0.02928,0.01952,0.00976,0.00488,0.00488,0.01464,0.05368,0.0244,0.0244,0.0244
0.01952,-0.02928,0.03904,0.02928,0.01952,0,0.00976,0.01952,0.05856,0.02928,0.02928,0.02928
0.01952,-0.03416,0.0488,0.03904,0.02928,-0.00488,0.01464,0.01952,0.06344,0.03416,0.03416,0.03904
0.01952,-0.03904,0.05856,0.0488,0.03904,-0.00976,0.01952,0.01952,0.06832,0.03904,0.03904,0.0488
0.0244,-0.05368,0.08296,0.07076,0.05856,-0.01708,0.01952,0.0244,0.07808,0.0488,0.0488,0.05368
0.02928,-0.06832,0.10736,0.09272,0.07808,-0.0244,0.01952,0.02928,0.08784,0.05856,0.05856,0.05856
0.03416,-0.07564,0.11712,0.10004,0.08296,-0.0244,0.01952,0.02928,0.0976,0.06832,0.06832,0.0732
0.03904,-0.08296,0.12688,0.10736,0.08784,-0.0244,0.01952,0.02928,0.10736,0.07808,0.07808,0.08784
0.04392,-0.09272,0.14152,0.11956,0.0976,-0.02684,0.00488,0.02928,0.11224,0.08296,0.08784,0.09272
0.0488,-0.10248,0.15616,0.13176,0.10736,-0.02928,-0.00976,0.02928,0.11712,0.08784,0.0976,0.0976
0.0488,-0.10736,0.16592,0.14152,0.11712,-0.03416,-0.0244,0.0244,0.11712,0.09272,0.10248,0.10736
0.0488,-0.11224,0.17568,0.15128,0.12688,-0.03904,-0.03904,0.01952,0.11712,0.0976,0.10736,0.11712
0.0488,-0.11224,0.17568,0.15128,0.12688,-0.03904,-0.04392,0.01952,0.11712,0.0976,0.10736,0.11712
0.0488,-0.11224,0.17568,0.15128,0.12688,-0.03904,-0.0488,0.01952,0.11712,0.0976,0.10736,0.11712
0.0488,-0.10736,0.16592,0.14152,0.11712,-0.03416,-0.0488,0.01952,0.11224,0.09272,0.10248,0.11224
0.0488,-0.10248,0.15616,0.13176,0.10736,-0.02928,-0.0488,0.01952,0.10736,0.08784,0.0976,0.10736
0.03904,-0.0854,0.13176,0.11224,0.09272,-0.02684,-0.04392,0.01952,0.0976,0.07808,0.09272,0.0976
0.02928,-0.06832,0.10736,0.09272,0.07808,-0.0244,-0.03904,0.01952,0.08784,0.06832,0.08784,0.08784
0.01464,-0.04148,0.06832,0.061,0.05368,-0.01952,-0.03904,0.00976,0.06832,0.0488,0.06832,0.06832
0,-0.01464,0.02928,0.02928,0.02928,-0.01464,-0.03904,0,0.0488,0.02928,0.0488,0.0488
-0.00976,0.00488,0,0.00488,0.00976,-0.00976,-0.03904,0,0.03416,0.01464,0.03416,0.03416
-0.01952,0.0244,-0.02928,-0.01952,-0.00976,-0.00488,-0.03904,0,0.01952,0,0.01952,0.01952
-0.0244,0.02928,-0.03416,-0.02196,-0.00976,-0.00732,-0.03416,-0.00488,0.01464,-0.00488,0.00976,0.01464
-0.02928,0.03416,-0.03904,-0.0244,-0.00976,-0.00976,-0.02928,-0.00976,0.00976,-0.00976,0,0.00976
-0.02928,0.03416,-0.03904,-0.0244,-0.00976,-0.00976,-0.02928,-0.00976,0.00488,-0.01464,0,0.00488
-0.02928,0.03416,-0.03904,-0.0244,-0.00976,-0.00976,-0.02928,-0.00976,0,-0.01952,0,0
-0.02928,0.0366,-0.04392,-0.02928,-0.01464,-0.00732,-0.02928,-0.00976,0,-0.01952,0,0
-0.02928,0.03904,-0.0488,-0.03416,-0.01952,-0.00488,-0.02928,-0.00976,0,-0.01952,0,0
-0.02928,0.04392,-0.05856,-0.04392,-0.02928,0,-0.02928,-0.00976,0,-0.01952,0,0
-0.02928,0.0488,-0.06832,-0.05368,-0.03904,0.00488,-0.02928,-0.00976,0,-0.01952,0,0
-0.0244,0.03904,-0.05368,-0.04148,-0.02928,0.00244,-0.01952,0.02928,0.03416,0.01464,0.01464,0
-0.01952,0.02928,-0.03904,-0.02928,-0.01952,0,-0.00976,0.06832,0.06832,0.0488,0.02928,0
0.06832,-0.0732,0.07808,0.04392,0.00976,0.02928,-0.03904,0.16104,0.16592,0.1952,0.15616,0.06832
0.15616,-0.17568,0.1952,0.11712,0.03904,0.05856,-0.06832,0.25376,0.26352,0.3416,0.28304,0.13664
0.28304,-0.35136,0.41968,0.27816,0.13664,0.0732,-0.30744,0.16592,0.33184,0.5612,0.5124,0.31232
0.40992,-0.52704,0.64416,0.4392,0.23424,0.08784,-0.54656,0.07808,0.40016,0.7808,0.74176,0.488
0.50752,-0.67832,0.84912,0.59536,0.3416,0.08296,-0.79056,-0.10736,0.40016,0.92232,0.9272,0.65392
0.60512,-0.8296,1.05408,0.75152,0.44896,0.07808,-1.03456,-0.2928,0.40016,1.06384,1.11264,0.81984
0.50752,-0.6588,0.81008,0.55632,0.30256,0.10248,-1.03456,-0.41968,0.13176,0.71736,0.83936,0.66856
0.40992,-0.488,0.56608,0.36112,0.15616,0.12688,-1.03456,-0.54656,-0.13664,0.37088,0.56608,0.51728
0.1464,-0.15128,0.15616,0.08296,0.00976,0.06832,-0.89304,-0.67832,-0.3904,-0.05368,0.1708,0.24888
-0.11712,0.18544,-0.25376,-0.1952,-0.13664,0.00976,-0.75152,-0.81008,-0.64416,-0.47824,-0.22448,-0.01952
-0.15128,0.21716,-0.28304,-0.2074,-0.13176,-0.00976,-0.60512,-0.67832,-0.5612,-0.44408,-0.23912,-0.04392
-0.18544,0.24888,-0.31232,-0.2196,-0.12688,-0.02928,-0.45872,-0.54656,-0.47824,-0.40992,-0.25376,-0.06832
-0.18544,0.23424,-0.28304,-0.19032,-0.0976,-0.04392,-0.3172,-0.40992,-0.366,-0.33184,-0.20984,-0.06832
-0.18544,0.2196,-0.25376,-0.16104,-0.06832,-0.05856,-0.17568,-0.27328,-0.25376,-0.25376,-0.16592,-0.06832
-0.12688,0.1586,-0.19032,-0.12688,-0.06344,-0.03172,-0.11224,-0.16104,-0.16592,-0.18544,-0.122,-0.05856
-0.06832,0.0976,-0.12688,-0.09272,-0.05856,-0.00488,-0.0488,-0.0488,-0.07808,-0.11712,-0.07808,-0.0488
-0.05856,0.09028,-0.122,-0.09272,-0.06344,0.00244,-0.00488,-0.00976,-0.04392,-0.0976,-0.06344,-0.03904
-0.0488,0.08296,-0.11712,-0.09272,-0.06832,0.00976,0.03904,0.02928,-0.00976,-0.07808,-0.0488,-0.02928
-0.03904,0.07564,-0.11224,-0.09272,-0.0732,0.01708,0.04392,0.04392,-0.00488,-0.06832,-0.04392,-0.02928
-0.02928,0.06832,-0.10736,-0.09272,-0.07808,0.0244,0.0488,0.05856,0,-0.05856,-0.03904,-0.02928
-0.02928,0.06588,-0.10248,-0.08784,-0.0732,0.02196,0.05368,0.06832,0.00976,-0.0488,-0.02928,-0.0244
-0.02928,0.06344,-0.0976,-0.08296,-0.06832,0.01952,0.05856,0.07808,0.01952,-0.03904,-0.01952,-0.01952
-0.02928,0.061,-0.09272,-0.07808,-0.06344,0.01708,0.05856,0.08296,0.0244,-0.03416,-0.01464,-0.01464
-0.02928,0.05856,-0.08784,-0.0732,-0.05856,0.01464,0.05856,0.08784,0.02928,-0.02928,-0.00976,-0.00976
-0.01952,0.05368,-0.08784,-0.07808,-0.06832,0.0244,0.05856,0.09272,0.02928,-0.0244,-0.00976,-0.00976
-0.00976,0.0488,-0.08784,-0.08296,-0.07808,0.03416,0.05856,0.0976,0.02928,-0.01952,-0.00976,-0.00976
-0.00488,0.04392,-0.08296,-0.08052,-0.07808,0.0366,0.06344,0.0976,0.03416,-0.01952,-0.00488,-0.00976
0,0.03904,-0.07808,-0.07808,-0.07808,0.03904,0.06832,0.0976,0.03904,-0.01952,0,-0.00976
0,0.03904,-0.07808,-0.07808,-0.07808,0.03904,0.06832,0.10248,0.04392,-0.01464,0,-0.00488
0,0.03904,-0.07808,-0.07808,-0.07808,0.03904,0.06832,0.10736,0.0488,-0.00976,0,0
0,0.03904,-0.07808,-0.07808,-0.07808,0.03904,0.06832,0.11224,0.05368,-0.00976,0,0
0,0.03904,-0.07808,-0.07808,-0.07808,0.03904,0.06832,0.11712,0.05856,-0.00976,0,0
0,0.03416,-0.06832,-0.06832,-0.06832,0.03416,0.06832,0.11712,0.06344,-0.00488,0.00488,0
0,0.02928,-0.05856,-0.05856,-0.05856,0.02928,0.06832,0.11712,0.06832,0,0.00976,0
0.00488,0.0244,-0.05368,-0.05612,-0.05856,0.03172,0.06832,0.11712,0.06832,0,0.00976,0
0.00976,0.01952,-0.0488,-0.05368,-0.05856,0.03416,0.06832,0.11712,0.06832,0,0.00976,0
0.00976,0.01952,-0.0488,-0.05368,-0.05856,0.03416,0.06832,0.122,0.06832,0,0.00976,0
0.00976,0.01952,-0.0488,-0.05368,-0.05856,0.03416,0.06832,0.12688,0.06832,0,0.00976,0
0.00976,0.01952,-0.0488,-0.05368,-0.05856,0.03416,0.06832,0.13176,0.06832,0,0.00976,0
0.00976,0.01952,-0.0488,-0.05368,-0.05856,0.03416,0.06832,0.13664,0.06832,0,0.00976,0
0.00976,0.01952,-0.0488,-0.05368,-0.05856,0.03416,0.0732,0.1464,0.06832,0,0.00976,0
0.00976,0.01952,-0.0488,-0.05368,-0.05856,0.03416,0.07808,0.15616,0.06832,0,0.00976,0
0.01464,0.01464,-0.04392,-0.05124,-0.05856,0.0366,0.07808,0.16104,0.06832,0.00488,0.01464,0
0.01952,0.00976,-0.03904,-0.0488,-0.05856,0.03904,0.07808,0.16592,0.06832,0.00976,0.01952,0
0.02928,0.00488,-0.03904,-0.05368,-0.06832,0.0488,0.07808,0.1708,0.06832,0.00976,0.01952,0.00488
0.03904,0,-0.03904,-0.05856,-0.07808,0.05856,0.07808,0.17568,0.06832,0.00976,0.01952,0.00976
0.03904,-0.00244,-0.03416,-0.05368,-0.0732,0.05612,0.07808,0.18544,0.06832,0.01464,0.01952,0.00976
0.03904,-0.00488,-0.02928,-0.0488,-0.06832,0.05368,0.07808,0.1952,0.06832,0.01952,0.01952,0.00976
0.04392,-0.0122,-0.01952,-0.04148,-0.06344,0.05368,0.07808,0.20496,0.06832,0.01952,0.01952,0.01464
0.0488,-0.01952,-0.00976,-0.03416,-0.05856,0.05368,0.07808,0.21472,0.06832,0.01952,0.01952,0.01952
0.05368,-0.0244,-0.00488,-0.03172,-0.05856,0.05612,0.07808,0.22448,0.0732,0.01952,0.0244,0.01952
0.05856,-0.02928,0,-0.02928,-0.05856,0.05856,0.07808,0.23424,0.07808,0.01952,0.02928,0.01952
0.06832,-0.0366,0.00488,-0.02928,-0.06344,0.06588,0.07808,0.24888,0.08296,0.02928,0.03416,0.0244
0.07808,-0.04392,0.00976,-0.02928,-0.06832,0.0732,0.07808,0.26352,0.08784,0.03904,0.03904,0.02928
0.08296,-0.0488,0.01464,-0.02684,-0.06832,0.07564,0.08296,0.27816,0.09272,0.03904,0.03904,0.03416
0.08784,-0.05368,0.01952,-0.0244,-0.06832,0.07808,0.08784,0.2928,0.0976,0.03904,0.03904,0.03904
0.09272,-0.061,0.02928,-0.01708,-0.06344,0.07808,0.08784,0.30744,0.10248,0.04392,0.04392,0.03904
0.0976,-0.06832,0.03904,-0.00976,-0.05856,0.07808,0.08784,0.32208,0.10736,0.0488,0.0488,0.03904
0.10736,-0.07808,0.0488,-0.00488,-0.05856,0.08296,0.09272,0.3416,0.11712,0.05368,0.05856,0.04392
0.11712,-0.08784,0.05856,0,-0.05856,0.08784,0.0976,0.36112,0.12688,0.05856,0.06832,0.0488
0.12688,-0.09516,0.06344,0,-0.06344,0.09516,0.0976,0.37576,0.13176,0.06832,0.0732,0.05856
0.13664,-0.10248,0.06832,0,-0.06832,0.10248,0.0976,0.3904,0.13664,0.07808,0.07808,0.06832
0.15128,-0.11224,0.0732,-0.00244,-0.07808,0.11468,0.0976,0.40992,0.13664,0.08296,0.08296,0.0732
0.16592,-0.122,0.07808,-0.00488,-0.08784,0.12688,0.0976,0.42944,0.13664,0.08784,0.08784,0.07808
0.1708,-0.12688,0.08296,-0.00244,-0.08784,0.12932,0.0976,0.4392,0.13664,0.08784,0.09272,0.08296
0.17568,-0.13176,0.08784,0,-0.08784,0.13176,0.0976,0.44896,0.13664,0.08784,0.0976,0.08784
0.18544,-0.14152,0.0976,0.00488,-0.08784,0.13664,0.09272,0.45872,0.13664,0.09272,0.0976,0.08784
0.1952,-0.15128,0.10736,0.00976,-0.08784,0.14152,0.08784,0.46848,0.13664,0.0976,0.0976,0.08784
0.20496,-0.1586,0.11224,0.00976,-0.09272,0.14884,0.08784,0.46848,0.13664,0.0976,0.10248,0.08784
0.21472,-0.16592,0.11712,0.00976,-0.0976,0.15616,0.08784,0.46848,0.13664,0.0976,0.10736,0.08784
0.21472,-0.16592,0.11712,0.00976,-0.0976,0.15616,0.08296,0.46848,0.13176,0.09272,0.10736,0.08784
0.21472,-0.16592,0.11712,0.00976,-0.0976,0.15616,0.07808,0.46848,0.12688,0.08784,0.10736,0.08784
0.21472,-0.16592,0.11712,0.00976,-0.0976,0.15616,0.0732,0.45872,0.122,0.08296,0.10248,0.09272
0.21472,-0.16592,0.11712,0.00976,-0.0976,0.15616,0.06832,0.44896,0.11712,0.07808,0.0976,0.0976
0.20984,-0.16348,0.11712,0.0122,-0.09272,0.15128,0.06344,0.43432,0.10736,0.06344,0.09272,0.0976
0.20496,-0.16104,0.11712,0.01464,-0.08784,0.1464,0.05856,0.41968,0.0976,0.0488,0.08784,0.0976
0.19032,-0.14884,0.10736,0.0122,-0.08296,0.13664,0.0488,0.39528,0.08784,0.04392,0.08296,0.0976
0.17568,-0.13664,0.0976,0.00976,-0.07808,0.12688,0.03904,0.37088,0.07808,0.03904,0.07808,0.0976
0.16104,-0.12444,0.08784,0.00732,-0.0732,0.11712,0.02928,0.3416,0.0732,0.03416,0.06832,0.08784
0.1464,-0.11224,0.07808,0.00488,-0.06832,0.10736,0.01952,0.31232,0.06832,0.02928,0.05856,0.07808
0.12688,-0.0976,0.06832,0.00488,-0.05856,0.09272,0.01952,0.28304,0.06344,0.01952,0.05368,0.0732
0.10736,-0.08296,0.05856,0.00488,-0.0488,0.07808,0.01952,0.25376,0.05856,0.00976,0.0488,0.06832
0.08296,-0.06344,0.04392,0.00244,-0.03904,0.061,0.01464,0.2196,0.05856,0.00488,0.04392,0.06344
0.05856,-0.04392,0.02928,0,-0.02928,0.04392,0.00976,0.18544,0.05856,0,0.03904,0.05856
0.04392,-0.03172,0.01952,-0.00244,-0.0244,0.03416,0.00488,0.16104,0.05856,0,0.03416,0.05368
0.02928,-0.01952,0.00976,-0.00488,-0.01952,0.0244,0,0.13664,0.05856,0,0.02928,0.0488
0.01464,-0.00732,0,-0.00732,-0.01464,0.01464,-0.00488,0.11712,0.05856,0,0.02928,0.04392
0,0.00488,-0.00976,-0.00976,-0.00976,0.00488,-0.00976,0.0976,0.05856,0,0.02928,0.03904
-0.01464,0.01952,-0.0244,-0.01708,-0.00976,-0.00244,-0.01464,0.08296,0.05856,0,0.02928,0.03904
-0.02928,0.03416,-0.03904,-0.0244,-0.00976,-0.00976,-0.01952,0.06832,0.05856,0,0.02928,0.03904
-0.03416,0.03904,-0.04392,-0.02684,-0.00976,-0.0122,-0.01952,0.05368,0.05856,0,0.02928,0.03904
-0.03904,0.04392,-0.0488,-0.02928,-0.00976,-0.01464,-0.01952,0.03904,0.05856,0,0.02928,0.03904
-0.0488,0.0488,-0.0488,-0.0244,0,-0.0244,-0.0244,0.02928,0.05368,0,0.02928,0.03416
-0.05856,0.05368,-0.0488,-0.01952,0.00976,-0.03416,-0.02928,0.01952,0.0488,0,0.02928,0.02928
-0.05856,0.05368,-0.0488,-0.01952,0.00976,-0.03416,-0.03416,0.01464,0.0488,-0.00488,0.0244,0.02928
-0.05856,0.05368,-0.0488,-0.01952,0.00976,-0.03416,-0.03904,0.00976,0.0488,-0.00976,0.01952,0.02928
-0.05856,0.05612,-0.05368,-0.0244,0.00488,-0.03172,-0.03904,0.00976,0.04392,-0.00976,0.01464,0.0244
-0.05856,0.05856,-0.05856,-0.02928,0,-0.02928,-0.03904,0.00976,0.03904,-0.00976,0.00976,0.01952
-0.05856,0.061,-0.06344,-0.03416,-0.00488,-0.02684,-0.03416,0.00976,0.03904,-0.00976,0.00976,0.01952
-0.05856,0.06344,-0.06832,-0.03904,-0.00976,-0.0244,-0.02928,0.00976,0.03904,-0.00976,0.00976,0.01952
-0.05856,0.06344,-0.06832,-0.03904,-0.00976,-0.0244,-0.02928,0.00976,0.04392,-0.00976,0.00976,0.01952
-0.05856,0.06344,-0.06832,-0.03904,-0.00976,-0.0244,-0.02928,0.00976,0.0488,-0.00976,0.00976,0.01952
-0.05856,0.061,-0.06344,-0.03416,-0.00488,-0.02684,-0.02928,0.01464,0.0488,-0.00488,0.00976,0.01952
-0.05856,0.05856,-0.05856,-0.02928,0,-0.02928,-0.02928,0.01952,0.0488,0,0.00976,0.01952
-0.05368,0.05612,-0.05856,-0.03172,-0.00488,-0.0244,-0.02928,0.01952,0.0488,0,0.00976,0.01952
-0.0488,0.05368,-0.05856,-0.03416,-0.00976,-0.01952,-0.02928,0.01952,0.0488,0,0.00976,0.01952
-0.0488,0.05368,-0.05856,-0.03416,-0.00976,-0.01952,-0.02928,0.01952,0.0488,0.00488,0.00976,0.01952
-0.0488,0.05368,-0.05856,-0.03416,-0.00976,-0.01952,-0.02928,0.01952,0.0488,0.00976,0.00976,0.01952
-0.04392,0.04636,-0.0488,-0.02684,-0.00488,-0.01952,-0.02928,0.01952,0.05368,0.01464,0.01464,0.01952
-0.03904,0.03904,-0.03904,-0.01952,0,-0.01952,-0.02928,0.01952,0.05856,0.01952,0.01952,0.01952
-0.03904,0.03904,-0.03904,-0.01952,0,-0.01952,-0.02928,0.01952,0.06344,0.01952,0.01952,0.01952
-0.03904,0.03904,-0.03904,-0.01952,0,-0.01952,-0.02928,0.01952,0.06832,0.01952,0.01952,0.01952
-0.03416,0.0366,-0.03904,-0.02196,-0.00488,-0.01464,-0.02928,0.01952,0.06832,0.01952,0.01464,0.01952
-0.02928,0.03416,-0.03904,-0.0244,-0.00976,-0.00976,-0.02928,0.01952,0.06832,0.01952,0.00976,0.01952
-0.02928,0.03416,-0.03904,-0.0244,-0.00976,-0.00976,-0.02928,0.01464,0.06344,0.01952,0.00976,0.01952
-0.02928,0.03416,-0.03904,-0.0244,-0.00976,-0.00976,-0.02928,0.00976,0.05856,0.01952,0.00976,0.01952
-0.02928,0.03172,-0.03416,-0.01952,-0.00488,-0.0122,-0.02928,0.00488,0.05856,0.01952,0.00976,0.01952
-0.02928,0.02928,-0.02928,-0.01464,0,-0.01464,-0.02928,0,0.05856,0.01952,0.00976,0.01952
-0.02928,0.02928,-0.02928,-0.01464,0,-0.01464,-0.02928,0,0.05368,0.01952,0.00976,0.01952
-0.02928,0.02928,-0.02928,-0.01464,0,-0.01464,-0.02928,0,0.0488,0.01952,0.00976,0.01952
-0.0244,0.0244,-0.0244,-0.0122,0,-0.0122,-0.02928,-0.00488,0.0488,0.01952,0.00976,0.01952
-0.01952,0.01952,-0.01952,-0.00976,0,-0.00976,-0.02928,-0.00976,0.0488,0.01952,0.00976,0.01952
-0.01952,0.01952,-0.01952,-0.00976,0,-0.00976,-0.02928,-0.00976,0.0488,0.01952,0.00976,0.01952
-0.01952,0.01952,-0.01952,-0.00976,0,-0.00976,-0.02928,-0.00976,0.0488,0.01952,0.00976,0.01952
-0.01952,0.01708,-0.01464,-0.00488,0.00488,-0.0122,-0.02928,-0.00976,0.0488,0.01952,0.00976,0.01952
-0.01952,0.01464,-0.00976,0,0.00976,-0.01464,-0.02928,-0.00976,0.0488,0.01952,0.00976,0.01952
-0.0244,0.01708,-0.00976,0.00244,0.01464,-0.01952,-0.02928,-0.01464,0.0488,0.01952,0.00976,0.01952
-0.02928,0.01952,-0.00976,0.00488,0.01952,-0.0244,-0.02928,-0.01952,0.0488,0.01952,0.00976,0.01952
-0.02928,0.01952,-0.00976,0.00488,0.01952,-0.0244,-0.02928,-0.01952,0.0488,0.01952,0.00976,0.01464
-0.02928,0.01952,-0.00976,0.00488,0.01952,-0.0244,-0.02928,-0.01952,0.0488,0.01952,0.00976,0.00976
-0.0244,0.01952,-0.01464,-0.00244,0.00976,-0.01708,-0.02928,-0.01952,0.04392,0.01464,0.00488,0.00976
-0.01952,0.01952,-0.01952,-0.00976,0,-0.00976,-0.02928,-0.01952,0.03904,0.00976,0,0.00976
-0.01952,0.01952,-0.01952,-0.00976,0,-0.00976,-0.02928,-0.01952,0.03904,0.00976,0,0.00976
-0.01952,0.01952,-0.01952,-0.00976,0,-0.00976,-0.02928,-0.01952,0.03904,0.00976,0,0.00976
-0.01952,0.01952,-0.01952,-0.00976,0,-0.00976,-0.02928,-0.01952,0.03904,0.00976,0,0.00976
-0.01952,0.01952,-0.01952,-0.00976,0,-0.00976,-0.02928,-0.01952,0.03904,0.00976,0,0.00976
-0.01952,0.01708,-0.01464,-0.00488,0.00488,-0.0122,-0.02928,-0.01952,0.03416,0.00976,-0.00488,0.00976
-0.01952,0.01464,-0.00976,0,0.00976,-0.01464,-0.02928,-0.01952,0.02928,0.00976,-0.00976,0.00976
-0.01952,0.01464,-0.00976,0,0.00976,-0.01464,-0.02928,-0.01952,0.0244,0.00976,-0.00976,0.00488
-0.01952,0.01464,-0.00976,0,0.00976,-0.01464,-0.02928,-0.01952,0.01952,0.00976,-0.00976,0
-0.01464,0.0122,-0.00976,-0.00244,0.00488,-0.00976,-0.02928,-0.01952,0.01952,0.00976,-0.00976,0
-0.00976,0.00976,-0.00976,-0.00488,0,-0.00488,-0.02928,-0.01952,0.01952,0.00976,-0.00976,0
-0.00976,0.00976,-0.00976,-0.00488,0,-0.00488,-0.02928,-0.01952,0.01952,0.00976,-0.00976,0
-0.00976,0.00976,-0.00976,-0.00488,0,-0.00488,-0.02928,-0.01952,0.01952,0.00976,-0.00976,0
-0.00976,0.00976,-0.00976,-0.00488,0,-0.00488,-0.02928,-0.01952,0.01952,0.00488,-0.00976,-0.00488
-0.00976,0.00976,-0.00976,-0.00488,0,-0.00488,-0.02928,-0.01952,0.01952,0,-0.00976,-0.00976
-0.00976,0.00976,-0.00976,-0.00488,0,-0.00488,-0.02928,-0.01952,0.01464,0,-0.00976,-0.00976
-0.00976,0.00976,-0.00976,-0.00488,0,-0.00488,-0.02928,-0.01952,0.00976,0,-0.00976,-0.00976
-0.00976,0.00976,-0.00976,-0.00488,0,-0.00488,-0.0244,-0.01952,0.00976,0,-0.00976,-0.00976
-0.00976,0.00976,-0.00976,-0.00488,0,-0.00488,-0.01952,-0.01952,0.00976,0,-0.00976,-0.00976
-0.00976,0.00976,-0.00976,-0.00488,0,-0.00488,-0.01952,-0.01952,0.00976,0,-0.00976,-0.00976
-0.00976,0.00976,-0.00976,-0.00488,0,-0.00488,-0.01952,-0.01952,0.00976,0,-0.00976,-0.00976
-0.00976,0.00732,-0.00488,0,0.00488,-0.00732,-0.01952,-0.01952,0.00488,-0.00488,-0.00976,-0.00976
-0.00976,0.00488,0,0.00488,0.00976,-0.00976,-0.01952,-0.01952,0,-0.00976,-0.00976,-0.00976
-0.00976,0.00488,0,0.00488,0.00976,-0.00976,-0.01952,-0.01952,0,-0.00976,-0.00976,-0.00976
-0.00976,0.00488,0,0.00488,0.00976,-0.00976,-0.01952,-0.01952,0,-0.00976,-0.00976,-0.00976
-0.00976,0.00488,0,0.00488,0.00976,-0.00976,-0.01952,-0.01952,0,-0.00488,-0.00488,-0.00488
-0.00976,0.00488,0,0.00488,0.00976,-0.00976,-0.01952,-0.01952,0,0,0,0
-0.00976,0.00488,0,0.00488,0.00976,-0.00976,-0.01464,-0.01464,0.00488,0,0,0
-0.00976,0.00488,0,0.00488,0.00976,-0.00976,-0.00976,-0.00976,0.00976,0,0,0
-0.00488,0.00488,-0.00488,-0.00244,0,-0.00244,-0.00488,-0.00976,0.00976,0,0,0
0,0.00488,-0.00976,-0.00976,-0.00976,0.00488,0,-0.00976,0.00976,0,0,0
0,0.00488,-0.00976,-0.00976,-0.00976,0.00488,0,-0.00976,0.00976,0,0,0.00488
0,0.00488,-0.00976,-0.00976,-0.00976,0.00488,0,-0.00976,0.00976,0,0,0.00976
0,0.00244,-0.00488,-0.00488,-0.00488,0.00244,-0.00488,-0.00976,0.01464,0,0,0.00976
0,0,0,0,0,0,-0.00976,-0.00976,0.01952,0,0,0.00976
0,0,0,0,0,0,-0.00976,-0.00976,0.01952,0,0,0.00976
0,0,0,0,0,0,-0.00976,-0.00976,0.01952,0,0,0.00976
-0.00488,0.00488,-0.00488,-0.00244,0,-0.00244,-0.00976,-0.00976,0.01952,0,0,0.00976
-0.00976,0.00976,-0.00976,-0.00488,0,-0.00488,-0.00976,-0.00976,0.01952,0,0,0.00976
-0.00976,0.0122,-0.01464,-0.00976,-0.00488,-0.00244,-0.00488,-0.00976,0.01952,0,0.00488,0.00976
-0.00976,0.01464,-0.01952,-0.01464,-0.00976,0,0,-0.00976,0.01952,0,0.00976,0.00976
-0.00488,0.0122,-0.01952,-0.01708,-0.01464,0.00488,0,-0.00976,0.01952,0,0.00976,0.00976
0,0.00976,-0.01952,-0.01952,-0.01952,0.00976,0,-0.00976,0.01952,0,0.00976,0.00976
0,0.00732,-0.01464,-0.01464,-0.01464,0.00732,-0.00488,-0.00976,0.01952,0,0.00976,0.00976
0,0.00488,-0.00976,-0.00976,-0.00976,0.00488,-0.00976,-0.00976,0.01952,0,0.00976,0.00976
0,0.00244,-0.00488,-0.00488,-0.00488,0.00244,-0.00976,-0.00976,0.01952,0,0.00488,0.00976
0,0,0,0,0,0,-0.00976,-0.00976,0.01952,0,0,0.00976
0,0,0,0,0,0,-0.00976,-0.00976,0.0244,0,0,0.00976
0,0,0,0,0,0,-0.00976,-0.00976,0.02928,0,0,0.00976
0,-0.00244,0.00488,0.00488,0.00488,-0.00244,-0.00976,-0.00488,0.03416,0.00488,0.00488,0.01464
0,-0.00488,0.00976,0.00976,0.00976,-0.00488,-0.00976,0,0.03904,0.00976,0.00976,0.01952
0.00488,-0.0122,0.01952,0.01708,0.01464,-0.00488,-0.00488,0.00488,0.04392,0.01464,0.01464,0.0244
0.00976,-0.01952,0.02928,0.0244,0.01952,-0.00488,0,0.00976,0.0488,0.01952,0.01952,0.02928
0.00976,-0.02196,0.03416,0.02928,0.0244,-0.00732,0.00976,0.01464,0.05368,0.0244,0.0244,0.02928
0.00976,-0.0244,0.03904,0.03416,0.02928,-0.00976,0.01952,0.01952,0.05856,0.02928,0.02928,0.02928
0.01464,-0.03172,0.0488,0.04148,0.03416,-0.00976,0.01952,0.0244,0.06832,0.03416,0.03904,0.03904
0.01952,-0.03904,0.05856,0.0488,0.03904,-0.00976,0.01952,0.02928,0.07808,0.03904,0.0488,0.0488
0.0244,-0.05368,0.08296,0.07076,0.05856,-0.01708,0.01952,0.02928,0.08784,0.0488,0.05856,0.05856
0.02928,-0.06832,0.10736,0.09272,0.07808,-0.0244,0.01952,0.02928,0.0976,0.05856,0.06832,0.06832
0.03904,-0.08296,0.12688,0.10736,0.08784,-0.0244,0.00976,0.0244,0.10248,0.06832,0.07808,0.07808
0.0488,-0.0976,0.1464,0.122,0.0976,-0.0244,0,0.01952,0.10736,0.07808,0.08784,0.08784
0.05368,-0.1098,0.16592,0.13908,0.11224,-0.02928,-0.01464,0.01952,0.11224,0.08296,0.09272,0.0976
0.05856,-0.122,0.18544,0.15616,0.12688,-0.03416,-0.02928,0.01952,0.11712,0.08784,0.0976,0.10736
0.06344,-0.12444,0.18544,0.15372,0.122,-0.02928,-0.03904,0.01464,0.11712,0.08784,0.0976,0.10736
0.06832,-0.12688,0.18544,0.15128,0.11712,-0.0244,-0.0488,0.00976,0.11712,0.08784,0.0976,0.10736
0.06832,-0.122,0.17568,0.14152,0.10736,-0.01952,-0.0488,0.00976,0.11712,0.08784,0.0976,0.10736
0.06832,-0.11712,0.16592,0.13176,0.0976,-0.01464,-0.0488,0.00976,0.11712,0.08784,0.0976,0.10736
0.06344,-0.1098,0.15616,0.12444,0.09272,-0.01464,-0.0488,0.00976,0.11224,0.08296,0.09272,0.10248
0.05856,-0.10248,0.1464,0.11712,0.08784,-0.01464,-0.0488,0.00976,0.10736,0.07808,0.08784,0.0976
0.0488,-0.0854,0.122,0.0976,0.0732,-0.0122,-0.04392,0.00976,0.0976,0.06344,0.0732,0.08296
0.03904,-0.06832,0.0976,0.07808,0.05856,-0.00976,-0.03904,0.00976,0.08784,0.0488,0.05856,0.06832
0.0244,-0.03904,0.05368,0.04148,0.02928,-0.00244,-0.03904,0.00488,0.06832,0.0244,0.03416,0.0488
0.00976,-0.00976,0.00976,0.00488,0,0.00488,-0.03904,0,0.0488,0,0.00976,0.02928
0,0.00488,-0.00976,-0.00976,-0.00976,0.00488,-0.03904,0,0.03904,-0.00488,0.00488,0.01952
-0.00976,0.01952,-0.02928,-0.0244,-0.01952,0.00488,-0.03904,0,0.02928,-0.00976,0,0.00976
-0.00976,0.02196,-0.03416,-0.02928,-0.0244,0.00732,-0.03904,0,0.0244,-0.01464,0,0.00488
-0.00976,0.0244,-0.03904,-0.03416,-0.02928,0.00976,-0.03904,0,0.01952,-0.01952,0,0
-0.00976,0.0244,-0.03904,-0.03416,-0.02928,0.00976,-0.03904,-0.00488,0.01952,-0.01952,0,0
-0.00976,0.0244,-0.03904,-0.03416,-0.02928,0.00976,-0.03904,-0.00976,0.01952,-0.01952,0,0
-0.00976,0.0244,-0.03904,-0.03416,-0.02928,0.00976,-0.03904,-0.00976,0.01952,-0.01952,-0.00488,-0.00488
-0.00976,0.0244,-0.03904,-0.03416,-0.02928,0.00976,-0.03904,-0.00976,0.01952,-0.01952,-0.00976,-0.00976
-0.00976,0.02928,-0.0488,-0.04392,-0.03904,0.01464,-0.02928,0.00488,0.01952,-0.01952,-0.00976,-0.00976
-0.00976,0.03416,-0.05856,-0.05368,-0.0488,0.01952,-0.01952,0.01952,0.01952,-0.01952,-0.00976,-0.00976
0.01464,-0.00488,-0.00488,-0.0122,-0.01952,0.01708,-0.01952,0.08296,0.09272,0.06832,0.0488,0.01952
0.03904,-0.04392,0.0488,0.02928,0.00976,0.01464,-0.01952,0.1464,0.16592,0.15616,0.10736,0.0488
0.1708,-0.1952,0.2196,0.1342,0.0488,0.061,-0.13664,0.20008,0.2684,0.35624,0.29768,0.16592
0.30256,-0.34648,0.3904,0.23912,0.08784,0.10736,-0.25376,0.25376,0.37088,0.55632,0.488,0.28304
0.4148,-0.52216,0.62952,0.42212,0.21472,0.10004,-0.53192,0.08296,0.40016,0.75152,0.71736,0.4636
0.52704,-0.69784,0.86864,0.60512,0.3416,0.09272,-0.81008,-0.08784,0.42944,0.94672,0.94672,0.64416
0.58072,-0.75884,0.93696,0.6466,0.35624,0.11224,-0.96624,-0.23424,0.33672,0.91256,0.96624,0.7076
0.6344,-0.81984,1.00528,0.68808,0.37088,0.13176,-1.1224,-0.38064,0.244,0.8784,0.98576,0.77104
0.37576,-0.46848,0.5612,0.37332,0.18544,0.09516,-1.0248,-0.55144,-0.11712,0.35624,0.53192,0.49288
0.11712,-0.11712,0.11712,0.05856,0,0.05856,-0.9272,-0.72224,-0.47824,-0.16592,0.07808,0.21472
-0.01464,0.0488,-0.08296,-0.07564,-0.06832,0.02684,-0.77592,-0.72224,-0.5368,-0.32696,-0.10248,0.06832
-0.1464,0.21472,-0.28304,-0.20984,-0.13664,-0.00488,-0.62464,-0.72224,-0.59536,-0.488,-0.28304,-0.07808
-0.16104,0.22204,-0.28304,-0.20252,-0.122,-0.01952,-0.47824,-0.56608,-0.488,-0.42456,-0.25864,-0.08784
-0.17568,0.22936,-0.28304,-0.1952,-0.10736,-0.03416,-0.33184,-0.40992,-0.38064,-0.36112,-0.23424,-0.0976
-0.14152,0.18056,-0.2196,-0.14884,-0.07808,-0.03172,-0.21472,-0.2928,-0.26352,-0.2684,-0.1708,-0.07808
-0.10736,0.13176,-0.15616,-0.10248,-0.0488,-0.02928,-0.0976,-0.17568,-0.1464,-0.17568,-0.10736,-0.05856
-0.06832,0.0976,-0.12688,-0.09272,-0.05856,-0.00488,-0.05368,-0.07808,-0.08784,-0.12688,-0.07808,-0.04392
-0.02928,0.06344,-0.0976,-0.08296,-0.06832,0.01952,-0.00976,0.01952,-0.02928,-0.07808,-0.0488,-0.02928
-0.02928,0.061,-0.09272,-0.07808,-0.06344,0.01708,0.01464,0.02928,-0.01464,-0.06832,-0.04392,-0.02928
-0.02928,0.05856,-0.08784,-0.0732,-0.05856,0.01464,0.03904,0.03904,0,-0.05856,-0.03904,-0.02928
-0.01952,0.05368,-0.08784,-0.07808,-0.06832,0.0244,0.03904,0.05368,0.00488,-0.05368,-0.03904,-0.02928
-0.00976,0.0488,-0.08784,-0.08296,-0.07808,0.03416,0.03904,0.06832,0.00976,-0.0488,-0.03904,-0.02928
-0.00488,0.04392,-0.08296,-0.08052,-0.07808,0.0366,0.04392,0.0732,0.01464,-0.04392,-0.03416,-0.0244
0,0.03904,-0.07808,-0.07808,-0.07808,0.03904,0.0488,0.07808,0.01952,-0.03904,-0.02928,-0.01952
0,0.03416,-0.06832,-0.06832,-0.06832,0.03416,0.05368,0.08296,0.0244,-0.03416,-0.0244,-0.01952
0,0.02928,-0.05856,-0.05856,-0.05856,0.02928,0.05856,0.08784,0.02928,-0.02928,-0.01952,-0.01952
0.00488,0.02684,-0.05856,-0.061,-0.06344,0.03416,0.05856,0.09272,0.02928,-0.02928,-0.01952,-0.01464
0.00976,0.0244,-0.05856,-0.06344,-0.06832,0.03904,0.05856,0.0976,0.02928,-0.02928,-0.01952,-0.00976
0.01464,0.02196,-0.05856,-0.06588,-0.0732,0.04392,0.05856,0.10248,0.03416,-0.0244,-0.01464,-0.00976
0.01952,0.01952,-0.05856,-0.06832,-0.07808,0.0488,0.05856,0.10736,0.03904,-0.01952,-0.00976,-0.00976
0.01952,0.01952,-0.05856,-0.06832,-0.07808,0.0488,0.05856,0.10736,0.04392,-0.01464,-0.00976,-0.00488
0.01952,0.01952,-0.05856,-0.06832,-0.07808,0.0488,0.05856,0.10736,0.0488,-0.00976,-0.00976,0
0.0244,0.01464,-0.05368,-0.06588,-0.07808,0.05124,0.05856,0.11224,0.05368,-0.00976,-0.00976,0
0.02928,0.00976,-0.0488,-0.06344,-0.07808,0.05368,0.05856,0.11712,0.05856,-0.00976,-0.00976,0
0.02928,0.00732,-0.04392,-0.05856,-0.0732,0.05124,0.06344,0.122,0.06344,-0.00976,-0.00976,0
0.02928,0.00488,-0.03904,-0.05368,-0.06832,0.0488,0.06832,0.12688,0.06832,-0.00976,-0.00976,0
0.02928,0.00488,-0.03904,-0.05368,-0.06832,0.0488,0.06832,0.13176,0.06832,-0.00976,-0.00488,0
0.02928,0.00488,-0.03904,-0.05368,-0.06832,0.0488,0.06832,0.13664,0.06832,-0.00976,0,0
0.02928,0.00488,-0.03904,-0.05368,-0.06832,0.0488,0.0732,0.14152,0.0732,-0.00976,0,0
0.02928,0.00488,-0.03904,-0.05368,-0.06832,0.0488,0.07808,0.1464,0.07808,-0.00976,0,0
0.02928,0.00488,-0.03904,-0.05368,-0.06832,0.0488,0.07808,0.15128,0.07808,-0.00488,0.00488,0
0.02928,0.00488,-0.03904,-0.05368,-0.06832,0.0488,0.07808,0.15616,0.07808,0,0.00976,0
0.03416,0,-0.03416,-0.05124,-0.06832,0.05124,0.07808,0.16104,0.0732,0,0.01464,0.00488
0.03904,-0.00488,-0.02928,-0.0488,-0.06832,0.05368,0.07808,0.16592,0.06832,0,0.01952,0.00976
0.04392,-0.00976,-0.0244,-0.04636,-0.06832,0.05612,0.07808,0.1708,0.06832,0,0.01952,0.00976
0.0488,-0.01464,-0.01952,-0.04392,-0.06832,0.05856,0.07808,0.17568,0.06832,0,0.01952,0.00976
0.05368,-0.02196,-0.00976,-0.0366,-0.06344,0.05856,0.07808,0.18544,0.06832,0.00488,0.01952,0.00976
0.05856,-0.02928,0,-0.02928,-0.05856,0.05856,0.07808,0.1952,0.06832,0.00976,0.01952,0.00976
0.06344,-0.03416,0.00488,-0.02684,-0.05856,0.061,0.07808,0.20496,0.07808,0.01464,0.01952,0.01464
0.06832,-0.03904,0.00976,-0.0244,-0.05856,0.06344,0.07808,0.21472,0.08784,0.01952,0.01952,0.01952
0.0732,-0.04148,0.00976,-0.02684,-0.06344,0.06832,0.07808,0.22936,0.08784,0.01952,0.01952,0.01952
0.07808,-0.04392,0.00976,-0.02928,-0.06832,0.0732,0.07808,0.244,0.08784,0.01952,0.01952,0.01952
0.08296,-0.0488,0.01464,-0.02684,-0.06832,0.07564,0.08296,0.25376,0.09272,0.0244,0.01952,0.01952
0.08784,-0.05368,0.01952,-0.0244,-0.06832,0.07808,0.08784,0.26352,0.0976,0.02928,0.01952,0.01952
0.0976,-0.06588,0.03416,-0.01464,-0.06344,0.08052,0.08784,0.27816,0.10248,0.03416,0.02928,0.02928
0.10736,-0.07808,0.0488,-0.00488,-0.05856,0.08296,0.08784,0.2928,0.10736,0.03904,0.03904,0.03904
0.11224,-0.08052,0.0488,-0.00732,-0.06344,0.08784,0.09272,0.30744,0.11224,0.03904,0.04392,0.04392
0.11712,-0.08296,0.0488,-0.00976,-0.06832,0.09272,0.0976,0.32208,0.11712,0.03904,0.0488,0.0488
0.12688,-0.09272,0.05856,-0.00488,-0.06832,0.0976,0.0976,0.33672,0.11712,0.04392,0.0488,0.0488
0.13664,-0.10248,0.06832,0,-0.06832,0.10248,0.0976,0.35136,0.11712,0.0488,0.0488,0.0488
0.1464,-0.1098,0.0732,0,-0.0732,0.1098,0.0976,0.366,0.122,0.05368,0.05368,0.05368
0.15616,-0.11712,0.07808,0,-0.07808,0.11712,0.0976,0.38064,0.12688,0.05856,0.05856,0.05856
0.1708,-0.12932,0.08784,0.00244,-0.08296,0.12688,0.0976,0.39528,0.13176,0.06344,0.06832,0.06344
0.18544,-0.14152,0.0976,0.00488,-0.08784,0.13664,0.0976,0.40992,0.13664,0.06832,0.07808,0.06832
0.1952,-0.15128,0.10736,0.00976,-0.08784,0.14152,0.0976,0.42944,0.14152,0.0732,0.08296,0.0732
0.20496,-0.16104,0.11712,0.01464,-0.08784,0.1464,0.0976,0.44896,0.1464,0.07808,0.08784,0.07808
0.20984,-0.16592,0.122,0.01708,-0.08784,0.14884,0.09272,0.45384,0.1464,0.08784,0.09272,0.08784
0.21472,-0.1708,0.12688,0.01952,-0.08784,0.15128,0.08784,0.45872,0.1464,0.0976,0.0976,0.0976
0.2196,-0.17812,0.13664,0.02684,-0.08296,0.15128,0.08296,0.4636,0.1464,0.0976,0.0976,0.0976
0.22448,-0.18544,0.1464,0.03416,-0.07808,0.15128,0.07808,0.46848,0.1464,0.0976,0.0976,0.0976
0.22936,-0.19032,0.15128,0.0366,-0.07808,0.15372,0.0732,0.46848,0.14152,0.08784,0.0976,0.0976
0.23424,-0.1952,0.15616,0.03904,-0.07808,0.15616,0.06832,0.46848,0.13664,0.07808,0.0976,0.0976
0.23424,-0.1952,0.15616,0.03904,-0.07808,0.15616,0.06344,0.46848,0.12688,0.0732,0.0976,0.0976
0.23424,-0.1952,0.15616,0.03904,-0.07808,0.15616,0.05856,0.46848,0.11712,0.06832,0.0976,0.0976
0.23424,-0.19276,0.15128,0.03416,-0.08296,0.1586,0.05856,0.45384,0.11224,0.06832,0.0976,0.0976
0.23424,-0.19032,0.1464,0.02928,-0.08784,0.16104,0.05856,0.4392,0.10736,0.06832,0.0976,0.0976
0.22448,-0.18544,0.1464,0.03416,-0.07808,0.15128,0.0488,0.4148,0.0976,0.05856,0.09272,0.0976
0.21472,-0.18056,0.1464,0.03904,-0.06832,0.14152,0.03904,0.3904,0.08784,0.0488,0.08784,0.0976
0.20008,-0.16836,0.13664,0.0366,-0.06344,0.13176,0.03416,0.366,0.07808,0.03904,0.07808,0.09272
0.18544,-0.15616,0.12688,0.03416,-0.05856,0.122,0.02928,0.3416,0.06832,0.02928,0.06832,0.08784
0.16592,-0.1342,0.10248,0.01952,-0.06344,0.11468,0.0244,0.30744,0.06344,0.01952,0.05856,0.07808
0.1464,-0.11224,0.07808,0.00488,-0.06832,0.10736,0.01952,0.27328,0.05856,0.00976,0.0488,0.06832
0.12688,-0.0976,0.06832,0.00488,-0.05856,0.09272,0.01464,0.244,0.05368,0.00488,0.0488,0.06344
0.10736,-0.08296,0.05856,0.00488,-0.0488,0.07808,0.00976,0.21472,0.0488,0,0.0488,0.05856
0.08784,-0.07076,0.05368,0.00976,-0.03416,0.061,0.00488,0.18544,0.0488,0,0.04392,0.05856
0.06832,-0.05856,0.0488,0.01464,-0.01952,0.04392,0,0.15616,0.0488,0,0.03904,0.05856
0.0488,-0.04148,0.03416,0.00976,-0.01464,0.03172,-0.00488,0.13176,0.05368,0,0.03904,0.05368
0.02928,-0.0244,0.01952,0.00488,-0.00976,0.01952,-0.00976,0.10736,0.05856,0,0.03904,0.0488
0.01952,-0.01708,0.01464,0.00488,-0.00488,0.0122,-0.01952,0.08296,0.05856,0,0.03416,0.04392
0.00976,-0.00976,0.00976,0.00488,0,0.00488,-0.02928,0.05856,0.05856,0,0.02928,0.03904
0,-0.00244,0.00488,0.00488,0.00488,-0.00244,-0.03416,0.0488,0.05856,0,0.02928,0.03904
-0.00976,0.00488,0,0.00488,0.00976,-0.00976,-0.03904,0.03904,0.05856,0,0.02928,0.03904
-0.01464,0.0122,-0.00976,-0.00244,0.00488,-0.00976,-0.03904,0.02928,0.05856,0,0.02928,0.03904
-0.01952,0.01952,-0.01952,-0.00976,0,-0.00976,-0.03904,0.01952,0.05856,0,0.02928,0.03904
-0.0244,0.02684,-0.02928,-0.01708,-0.00488,-0.00976,-0.03904,0.01464,0.05368,-0.00488,0.0244,0.03416
-0.02928,0.03416,-0.03904,-0.0244,-0.00976,-0.00976,-0.03904,0.00976,0.0488,-0.00976,0.01952,0.02928
-0.02928,0.03416,-0.03904,-0.0244,-0.00976,-0.00976,-0.03904,0.00488,0.0488,-0.01464,0.01464,0.02928
-0.02928,0.03416,-0.03904,-0.0244,-0.00976,-0.00976,-0.03904,0,0.0488,-0.01952,0.00976,0.02928
-0.02928,0.03416,-0.03904,-0.0244,-0.00976,-0.00976,-0.03904,0,0.04392,-0.01952,0.00976,0.02928
-0.02928,0.03416,-0.03904,-0.0244,-0.00976,-0.00976,-0.03904,0,0.03904,-0.01952,0.00976,0.02928
-0.03416,0.0366,-0.03904,-0.02196,-0.00488,-0.01464,-0.03904,0,0.03904,-0.01952,0.00976,0.02928
-0.03904,0.03904,-0.03904,-0.01952,0,-0.01952,-0.03904,0,0.03904,-0.01952,0.00976,0.02928
-0.03904,0.03904,-0.03904,-0.01952,0,-0.01952,-0.03904,0,0.03904,-0.01464,0.00976,0.0244
-0.03904,0.03904,-0.03904,-0.01952,0,-0.01952,-0.03904,0,0.03904,-0.00976,0.00976,0.01952
-0.03416,0.0366,-0.03904,-0.02196,-0.00488,-0.01464,-0.03904,0,0.03904,-0.00976,0.00976,0.01952
-0.02928,0.03416,-0.03904,-0.0244,-0.00976,-0.00976,-0.03904,0,0.03904,-0.00976,0.00976,0.01952
-0.0244,0.03172,-0.03904,-0.02684,-0.01464,-0.00488,-0.03904,0.00488,0.04392,-0.00488,0.01464,0.01952
-0.01952,0.02928,-0.03904,-0.02928,-0.01952,0,-0.03904,0.00976,0.0488,0,0.01952,0.01952
-0.01952,0.02684,-0.03416,-0.0244,-0.01464,-0.00244,-0.03904,0.01464,0.05368,0.00488,0.01952,0.01952
-0.01952,0.0244,-0.02928,-0.01952,-0.00976,-0.00488,-0.03904,0.01952,0.05856,0.00976,0.01952,0.01952
-0.01952,0.0244,-0.02928,-0.01952,-0.00976,-0.00488,-0.03904,0.01952,0.05856,0.00976,0.01952,0.01952
-0.01952,0.0244,-0.02928,-0.01952,-0.00976,-0.00488,-0.03904,0.01952,0.05856,0.00976,0.01952,0.01952
-0.01464,0.02196,-0.02928,-0.02196,-0.01464,0,-0.03904,0.01952,0.05856,0.00976,0.01952,0.01952
-0.00976,0.01952,-0.02928,-0.0244,-0.01952,0.00488,-0.03904,0.01952,0.05856,0.00976,0.01952,0.01952
-0.00976,0.01952,-0.02928,-0.0244,-0.01952,0.00488,-0.03904,0.01952,0.05856,0.01464,0.01952,0.01952
-0.00976,0.01952,-0.02928,-0.0244,-0.01952,0.00488,-0.03904,0.01952,0.05856,0.01952,0.01952,0.01952
-0.00976,0.01952,-0.02928,-0.0244,-0.01952,0.00488,-0.03904,0.01952,0.05856,0.01952,0.01952,0.01952
-0.00976,0.01952,-0.02928,-0.0244,-0.01952,0.00488,-0.03904,0.01952,0.05856,0.01952,0.01952,0.01952
-0.00976,0.01952,-0.02928,-0.0244,-0.01952,0.00488,-0.03904,0.01464,0.05856,0.01952,0.01952,0.01952
-0.00976,0.01952,-0.02928,-0.0244,-0.01952,0.00488,-0.03904,0.00976,0.05856,0.01952,0.01952,0.01952
-0.00976,0.01708,-0.0244,-0.01952,-0.01464,0.00244,-0.04392,0.00488,0.0488,0.01464,0.01952,0.01464
-0.00976,0.01464,-0.01952,-0.01464,-0.00976,0,-0.0488,0,0.03904,0.00976,0.01952,0.00976
-0.00976,0.01464,-0.01952,-0.01464,-0.00976,0,-0.05368,0,0.03904,0.00976,0.01464,0.00976
-0.00976,0.01464,-0.01952,-0.01464,-0.00976,0,-0.05856,0,0.03904,0.00976,0.00976,0.00976
-0.01464,0.01708,-0.01952,-0.0122,-0.00488,-0.00488,-0.05856,-0.00488,0.03416,0.00976,0.00976,0.00976
-0.01952,0.01952,-0.01952,-0.00976,0,-0.00976,-0.05856,-0.00976,0.02928,0.00976,0.00976,0.00976
-0.01952,0.01952,-0.01952,-0.00976,0,-0.00976,-0.05856,-0.00976,0.02928,0.00976,0.00976,0.00976
-0.01952,0.01952,-0.01952,-0.00976,0,-0.00976,-0.05856,-0.00976,0.02928,0.00976,0.00976,0.00976
-0.01952,0.01952,-0.01952,-0.00976,0,-0.00976,-0.05856,-0.00976,0.0244,0.00488,0.00976,0.00976
-0.01952,0.01952,-0.01952,-0.00976,0,-0.00976,-0.05856,-0.00976,0.01952,0,0.00976,0.00976
-0.01952,0.02196,-0.0244,-0.01464,-0.00488,-0.00732,-0.05856,-0.01464,0.01952,0,0.00488,0.00488
-0.01952,0.0244,-0.02928,-0.01952,-0.00976,-0.00488,-0.05856,-0.01952,0.01952,0,0,0
-0.01952,0.0244,-0.02928,-0.01952,-0.00976,-0.00488,-0.05856,-0.01952,0.01952,0,0,0
-0.01952,0.0244,-0.02928,-0.01952,-0.00976,-0.00488,-0.05856,-0.01952,0.01952,0,0,0
-0.01952,0.0244,-0.02928,-0.01952,-0.00976,-0.00488,-0.05856,-0.01952,0.01464,0,0,0
-0.01952,0.0244,-0.02928,-0.01952,-0.00976,-0.00488,-0.05856,-0.01952,0.00976,0,0,0
-0.01952,0.0244,-0.02928,-0.01952,-0.00976,-0.00488,-0.05856,-0.01952,0.00976,0,0,0
-0.01952,0.0244,-0.02928,-0.01952,-0.00976,-0.00488,-0.05856,-0.01952,0.00976,0,0,0
-0.01952,0.02196,-0.0244,-0.01464,-0.00488,-0.00732,-0.05856,-0.01952,0.00976,0,-0.00488,0
-0.01952,0.01952,-0.01952,-0.00976,0,-0.00976,-0.05856,-0.01952,0.00976,0,-0.00976,0
-0.01952,0.01952,-0.01952,-0.00976,0,-0.00976,-0.05856,-0.0244,0.00488,0,-0.00976,0
-0.01952,0.01952,-0.01952,-0.00976,0,-0.00976,-0.05856,-0.02928,0,0,-0.00976,0
-0.01952,0.01952,-0.01952,-0.00976,0,-0.00976,-0.05856,-0.02928,-0.00488,0,-0.00976,0
-0.01952,0.01952,-0.01952,-0.00976,0,-0.00976,-0.05856,-0.02928,-0.00976,0,-0.00976,0
-0.01464,0.01708,-0.01952,-0.0122,-0.00488,-0.00488,-0.05856,-0.02928,-0.00976,0,-0.00488,0
-0.00976,0.01464,-0.01952,-0.01464,-0.00976,0,-0.05856,-0.02928,-0.00976,0,0,0
-0.00976,0.01464,-0.01952,-0.01464,-0.00976,0,-0.05368,-0.0244,-0.00488,0,0,0
-0.00976,0.01464,-0.01952,-0.01464,-0.00976,0,-0.0488,-0.01952,0,0,0,0
-0.00976,0.0122,-0.01464,-0.00976,-0.00488,-0.00244,-0.0488,-0.01952,0,0,0,0
-0.00976,0.00976,-0.00976,-0.00488,0,-0.00488,-0.0488,-0.01952,0,0,0,0
-0.00976,0.00976,-0.00976,-0.00488,0,-0.00488,-0.0488,-0.01952,0,0,0,0
-0.00976,0.00976,-0.00976,-0.00488,0,-0.00488,-0.0488,-0.01952,0,0,0,0
-0.00976,0.00976,-0.00976,-0.00488,0,-0.00488,-0.0488,-0.01952,0,0,0,0
-0.00976,0.00976,-0.00976,-0.00488,0,-0.00488,-0.0488,-0.01952,0,0,0,0
-0.00976,0.0122,-0.01464,-0.00976,-0.00488,-0.00244,-0.04392,-0.01952,0,0,0,0
-0.00488,0.00976,-0.01464,-0.0122,-0.00976,0.00244,-0.03904,-0.01952,0,0,0,0
0,0.00976,-0.01952,-0.01952,-0.01952,0.00976,-0.03904,-0.01952,0,0,0,0
0,0.00976,-0.01952,-0.01952,-0.01952,0.00976,-0.03904,-0.01952,0.00488,0,0,0
0,0.00976,-0.01952,-0.01952,-0.01952,0.00976,-0.03904,-0.01952,0.00488,0,0,0
0,0.00976,-0.01952,-0.01952,-0.01952,0.00976,-0.03904,-0.01952,0.00488,0,0,0
0,0.00976,-0.01952,-0.01952,-0.01952,0.00976,-0.03904,-0.01952,0.00488,-0.00488,-0.00488,0
0,0.00976,-0.01952,-0.01952,-0.01952,0.00976,-0.03904,-0.01952,0.00976,-0.00488,0,0
0,0.00732,-0.01464,-0.01464,-0.01464,0.00732,-0.03904,-0.02928,0.00976,-0.00488,0.00488,0.00488
0,0.00732,-0.01464,-0.01464,-0.01464,0.00732,-0.03904,-0.01952,0.00976,0,0.00976,0.00976
-0.00488,0.00488,-0.00488,-0.00244,0,-0.00244,-0.03416,-0.01952,0.00976,0,0.00976,0.00976
-0.00976,0.00732,-0.00488,0,0.00488,-0.00732,-0.03416,-0.01952,0.01464,0.00488,0.01464,0.00976
-0.00488,0,0.00488,0.00732,0.00976,-0.00732,-0.0244,-0.01464,0.00976,0.00488,0.01464,0.00976
-0.00488,-0.00244,0.00976,0.0122,0.01464,-0.00976,-0.01952,-0.00488,0.01952,0.01464,0.01952,0.01464
0,-0.00732,0.01464,0.01464,0.01464,-0.00732,-0.00976,-0.00488,0.0244,0.01464,0.01952,0.01952
0.00488,-0.01952,0.03416,0.03172,0.02928,-0.0122,-0.00488,0,0.03904,0.0244,0.03416,0.02928
0.00488,-0.01952,0.03416,0.03172,0.02928,-0.0122,-0.00488,0,0.03904,0.0244,0.03904,0.02928
0.00488,-0.0244,0.04392,0.04148,0.03904,-0.01708,0,0.00488,0.0488,0.03416,0.04392,0.03904
0.00976,-0.03416,0.05856,0.05368,0.0488,-0.01952,0,0.00488,0.05368,0.03904,0.0488,0.03904
0.01464,-0.04148,0.06832,0.061,0.05368,-0.01952,0.00488,0.00976,0.06832,0.04392,0.05368,0.03904
0.01464,-0.061,0.10736,0.10004,0.09272,-0.03904,0.00976,0.00976,0.07808,0.05856,0.06344,0.0488
0.0244,-0.07564,0.12688,0.11468,0.10248,-0.03904,0.00488,0.01464,0.08784,0.06832,0.07808,0.06344
0.02928,-0.08296,0.13664,0.122,0.10736,-0.03904,0,0.01464,0.09272,0.0732,0.08784,0.0732
0.04392,-0.10004,0.15616,0.1342,0.11224,-0.03416,-0.01464,0.01464,0.10736,0.08784,0.0976,0.08784
0.05368,-0.11224,0.1708,0.14396,0.11712,-0.03172,-0.03416,0.01464,0.10736,0.09272,0.10248,0.09272
0.05368,-0.11468,0.17568,0.14884,0.122,-0.03416,-0.04392,0.00976,0.10736,0.0976,0.11712,0.10248
0.06344,-0.11956,0.17568,0.14396,0.11224,-0.0244,-0.05368,0.00488,0.10736,0.0976,0.11712,0.10248
0.05368,-0.11468,0.17568,0.14884,0.122,-0.03416,-0.05856,-0.00488,0.10248,0.0976,0.11224,0.10736
0.05368,-0.1098,0.16592,0.13908,0.11224,-0.02928,-0.05856,-0.00488,0.10248,0.08784,0.11224,0.10736
0.05368,-0.1098,0.16592,0.13908,0.11224,-0.02928,-0.05856,-0.00488,0.0976,0.08784,0.11712,0.10736
0.05368,-0.10248,0.15128,0.12444,0.0976,-0.02196,-0.05856,-0.00488,0.08784,0.08784,0.10736,0.09272
0.03904,-0.08296,0.12688,0.10736,0.08784,-0.0244,-0.05856,0,0.08784,0.08296,0.10736,0.08296
0.03416,-0.061,0.08784,0.07076,0.05368,-0.00976,-0.05856,-0.00488,0.0732,0.06344,0.08784,0.06344
0.01952,-0.02928,0.03904,0.02928,0.01952,0,-0.05368,-0.00976,0.04392,0.03416,0.05856,0.03904
0.00488,-0.00732,0.00976,0.00732,0.00488,0,-0.05368,-0.01952,0.0244,0.00976,0.0244,0.01464
0.00488,-0.00244,0,-0.00244,-0.00488,0.00488,-0.0488,-0.01952,0.01464,0.00976,0.01952,0.00976
-0.00976,0.01708,-0.0244,-0.01952,-0.01464,0.00244,-0.0488,-0.01952,0.00488,-0.00488,0.00488,-0.00488
-0.01464,0.02684,-0.03904,-0.03172,-0.0244,0.00488,-0.0488,-0.01952,0,-0.00976,0.00488,-0.00976
-0.01464,0.02928,-0.04392,-0.0366,-0.02928,0.00732,-0.0488,-0.0244,-0.00488,-0.00976,-0.00488,-0.01464
-0.01464,0.03172,-0.0488,-0.04148,-0.03416,0.00976,-0.04392,-0.0244,-0.00488,-0.00976,-0.00976,-0.01464
-0.01464,0.03172,-0.0488,-0.04148,-0.03416,0.00976,-0.04392,-0.0244,-0.00488,-0.00976,-0.00976,-0.01952
-0.01464,0.03172,-0.0488,-0.04148,-0.03416,0.00976,-0.04392,-0.01952,-0.00488,-0.00976,-0.00976,-0.0244
-0.01464,0.03172,-0.0488,-0.04148,-0.03416,0.00976,-0.0488,-0.01952,-0.00488,-0.01952,-0.00976,-0.0244
-0.01464,0.03172,-0.0488,-0.04148,-0.03416,0.00976,-0.0488,-0.01952,-0.00488,-0.0244,-0.00976,-0.0244
-0.01464,0.0366,-0.05856,-0.05124,-0.04392,0.01464,-0.04392,-0.0244,-0.00976,-0.02928,-0.00976,-0.0244
-0.01464,0.03904,-0.06344,-0.05612,-0.0488,0.01708,-0.0244,-0.00488,0.00976,-0.01952,-0.00976,-0.0244
-0.01464,0.02928,-0.04392,-0.0366,-0.02928,0.00732,-0.01952,0.03416,0.05368,0.02928,0.00488,-0.02928
0.03416,-0.0366,0.03904,0.02196,0.00488,0.01464,-0.02928,0.11224,0.15616,0.16592,0.11712,0.03416
0.1952,-0.183,0.1708,0.0732,-0.0244,0.1098,-0.05368,0.30256,0.28304,0.35136,0.28304,0.11712
0.32696,-0.366,0.40504,0.24156,0.07808,0.12444,-0.26352,0.23424,0.366,0.55632,0.51728,0.28304
0.44408,-0.549,0.65392,0.43188,0.20984,0.11712,-0.59048,0.05368,0.40016,0.7808,0.7564,0.48312
0.56608,-0.7442,0.92232,0.63928,0.35624,0.10492,-0.8784,-0.13176,0.43432,1.01016,1.01016,0.69784
0.68808,-0.92232,1.15656,0.81252,0.46848,0.1098,-1.11264,-0.29768,0.44896,1.12728,1.17608,0.84912
