i,aVR,ii,aVF,iii,aVL,V1,V2,V3,V4,V5,V6
-0.04392,0.04636,-0.0488,-0.02684,-0.00488,-0.01952,0,0.01952,0,-0.00976,-0.01952,-0.1952
-0.05368,0.05124,-0.0488,-0.02196,0.00488,-0.02928,0,0.01952,0,0,-0.01464,-0.19032
-0.04392,0.04148,-0.03904,-0.01708,0.00488,-0.0244,0,0.02928,0,-0.00976,-0.0244,-0.20008
-0.03416,0.0366,-0.03904,-0.02196,-0.00488,-0.01464,0,0.02928,0,-0.00976,-0.0244,-0.1952
-0.03416,0.03416,-0.03416,-0.01708,0,-0.01708,-0.00488,0.01952,0,-0.01952,-0.00976,-0.19032
-0.04392,0.03416,-0.0244,-0.00244,0.01952,-0.03172,-0.00488,0.0244,0.00488,-0.01464,-0.00488,-0.19032
-0.03904,0.02684,-0.01464,0.00488,0.0244,-0.03172,0.00976,0.0244,0.01464,0,0,-0.1708
-0.03416,0.01708,0,0.01708,0.03416,-0.03416,0.00976,0.02928,0.01952,0.01464,0.00488,-0.1708
-0.03416,0.01708,0,0.01708,0.03416,-0.03416,0.0244,0.03416,0.0244,0.01952,0.00488,-0.15616
-0.04392,0.02196,0,0.02196,0.04392,-0.04392,0.03904,0.04392,0.03904,0.03416,0.00488,-0.15128
-0.05368,0.02928,-0.00488,0.02196,0.0488,-0.05124,0.0488,0.05368,0.03904,0.02928,0.00976,-0.15128
-0.05856,0.03416,-0.00976,0.01952,0.0488,-0.05368,0.05856,0.06344,0.03904,0.01952,0.00976,-0.14152
-0.03416,0.0122,0.00976,0.02684,0.04392,-0.03904,0.05856,0.05856,0.05856,0.03904,0.0244,-0.13176
-0.01464,0.00244,0.00976,0.01708,0.0244,-0.01952,0.06344,0.06344,0.06344,0.03416,0.01952,-0.13176
-0.00488,-0.00732,0.01952,0.02196,0.0244,-0.01464,0.04392,0.05856,0.05856,0.04392,0.02928,-0.12688
-0.00488,-0.01464,0.03416,0.0366,0.03904,-0.02196,0.0244,0.0488,0.0488,0.03904,0.02928,-0.11712
-0.00976,-0.0122,0.03416,0.03904,0.04392,-0.02684,0.00488,0.03416,0.03904,0.0244,0.00976,-0.11224
-0.00976,-0.0122,0.03416,0.03904,0.04392,-0.02684,-0.00976,0.01464,0.01952,0.00488,0.00488,-0.11712
-0.01464,-0.00488,0.0244,0.03172,0.03904,-0.02684,-0.02928,0.00976,0.00976,0,-0.00488,-0.122
-0.00976,-0.00976,0.02928,0.03416,0.03904,-0.0244,-0.03904,0.00976,0.00488,-0.00488,-0.01464,-0.122
0.01464,-0.02928,0.04392,0.0366,0.02928,-0.00732,-0.05368,0.00976,0.00488,0,-0.00976,-0.122
0.03416,-0.0366,0.03904,0.02196,0.00488,0.01464,-0.05368,0.00976,0.00488,0,0,-0.122
0.03416,-0.01464,-0.00488,-0.02196,-0.03904,0.0366,-0.0488,0.01464,-0.01952,-0.02928,-0.01952,-0.13176
0.01464,0.00244,-0.01952,-0.02684,-0.03416,0.0244,-0.03904,0.00976,-0.02928,-0.03416,-0.0244,-0.14152
-0.00976,0.02196,-0.03416,-0.02928,-0.0244,0.00732,-0.0488,-0.00976,-0.04392,-0.0488,-0.0488,-0.14152
-0.01464,0.02928,-0.04392,-0.0366,-0.02928,0.00732,-0.05368,-0.01464,-0.05368,-0.05856,-0.05368,-0.15128
-0.01464,0.0244,-0.03416,-0.02684,-0.01952,0.00244,-0.06344,-0.0244,-0.05368,-0.06344,-0.05856,-0.14152
-0.01952,0.0244,-0.02928,-0.01952,-0.00976,-0.00488,-0.0488,-0.01464,-0.04392,-0.0488,-0.0488,-0.13176
-0.0244,0.02928,-0.03416,-0.02196,-0.00976,-0.00732,-0.02928,-0.00976,-0.02928,-0.03416,-0.03904,-0.14152
-0.03416,0.04148,-0.0488,-0.03172,-0.01464,-0.00976,-0.01952,-0.00976,-0.02928,-0.02928,-0.03904,-0.1464
-0.03416,0.04392,-0.05368,-0.0366,-0.01952,-0.00732,-0.01952,-0.00488,-0.03904,-0.04392,-0.03904,-0.15616
-0.03416,0.05368,-0.0732,-0.05612,-0.03904,0.00244,-0.01952,-0.01464,-0.03904,-0.0488,-0.05368,-0.15128
-0.05368,0.06344,-0.0732,-0.04636,-0.01952,-0.01708,-0.01952,-0.01464,-0.04392,-0.05368,-0.05856,-0.15128
-0.0488,0.06588,-0.08296,-0.05856,-0.03416,-0.00732,-0.01952,-0.01464,-0.04392,-0.05368,-0.05856,-0.15128
-0.05856,0.06588,-0.0732,-0.04392,-0.01464,-0.02196,-0.00976,-0.00976,-0.04392,-0.05368,-0.0488,-0.15128
-0.06344,0.07076,-0.07808,-0.04636,-0.01464,-0.0244,-0.00976,-0.00976,-0.03904,-0.05368,-0.0488,-0.15128
-0.05368,0.06832,-0.08296,-0.05612,-0.02928,-0.0122,-0.01952,0,-0.0488,-0.06344,-0.05368,-0.15616
-0.05368,0.06832,-0.08296,-0.05612,-0.02928,-0.0122,-0.01952,0,-0.0488,-0.06344,-0.06344,-0.15616
-0.06344,0.07076,-0.07808,-0.04636,-0.01464,-0.0244,-0.01464,-0.00488,-0.03904,-0.05856,-0.06832,-0.1464
-0.06344,0.07564,-0.08784,-0.05612,-0.0244,-0.01952,-0.00976,-0.00488,-0.03904,-0.05368,-0.05368,-0.1464
-0.03416,0.05368,-0.0732,-0.05612,-0.03904,0.00244,-0.00976,-0.00488,-0.03904,-0.05856,-0.05368,-0.14152
-0.06344,0.07808,-0.09272,-0.061,-0.02928,-0.01708,0.00488,0.00488,-0.01952,-0.03416,-0.03904,-0.14152
-0.05856,0.07076,-0.08296,-0.05368,-0.0244,-0.01708,0.02928,0.0488,-0.00488,-0.03416,-0.06344,-0.1464
-0.06832,0.0854,-0.10248,-0.06832,-0.03416,-0.01708,0.05368,0.07808,0.00976,-0.01952,-0.03416,-0.12688
-0.05368,0.07564,-0.0976,-0.07076,-0.04392,-0.00488,0.0976,0.18056,0.05856,0.00488,-0.00976,-0.11224
0.01952,0.02928,-0.07808,-0.08784,-0.0976,0.05856,0.17568,0.37576,0.18056,0.11712,0.06344,-0.03904
0.13664,-0.06588,-0.00488,-0.0732,-0.14152,0.13908,0.22936,0.60024,0.35624,0.2928,0.25864,0.0976
0.33184,-0.2562,0.18056,0.01464,-0.15128,0.24156,0.07808,0.60024,0.47824,0.42456,0.40992,0.24888
0.51728,-0.45384,0.3904,0.13176,-0.12688,0.32208,-0.1464,0.34648,0.40504,0.43432,0.45384,0.37576
0.6344,-0.60024,0.56608,0.24888,-0.06832,0.35136,-0.40504,0,0.18056,0.32696,0.40016,0.45872
0.6344,-0.66124,0.68808,0.37088,0.05368,0.29036,-0.56608,-0.2684,0.00976,0.2196,0.35624,0.50752
0.49288,-0.58072,0.66856,0.42212,0.17568,0.1586,-0.52704,-0.37576,-0.08296,0.13176,0.32208,0.48312
0.3416,-0.41968,0.49776,0.32696,0.15616,0.09272,-0.45872,-0.41968,-0.23424,-0.0244,0.16592,0.32696
0.15616,-0.19764,0.23912,0.16104,0.08296,0.0366,-0.38552,-0.49288,-0.39528,-0.2196,-0.0976,0.0732
-0.00976,-0.02684,0.06344,0.06832,0.0732,-0.04148,-0.3416,-0.59048,-0.4636,-0.35136,-0.26352,-0.14152
-0.04392,0.00732,0.02928,0.05124,0.0732,-0.05856,-0.35624,-0.60024,-0.44408,-0.35624,-0.26352,-0.17568
-0.06344,0.01708,0.02928,0.061,0.09272,-0.07808,-0.23424,-0.40504,-0.33184,-0.26352,-0.19032,-0.16104
-0.04392,-0.00244,0.0488,0.07076,0.09272,-0.06832,-0.15616,-0.22448,-0.20984,-0.17568,-0.14152,-0.12688
-0.06344,0.01952,0.0244,0.05612,0.08784,-0.07564,-0.10736,-0.1464,-0.11224,-0.08784,-0.07808,-0.0976
-0.02928,0.0122,0.00488,0.01952,0.03416,-0.03172,-0.0732,-0.11224,-0.08296,-0.06344,-0.04392,-0.09272
-0.0488,0.03904,-0.02928,-0.00488,0.01952,-0.03416,-0.05856,-0.0976,-0.08784,-0.08296,-0.05856,-0.10248
-0.06344,0.05368,-0.04392,-0.0122,0.01952,-0.04148,-0.02928,-0.05856,-0.07808,-0.0732,-0.0732,-0.10736
-0.09272,0.0732,-0.05368,-0.00732,0.03904,-0.06588,-0.00976,-0.03416,-0.05368,-0.05368,-0.06344,-0.11224
-0.07808,0.06588,-0.05368,-0.01464,0.0244,-0.05124,-0.00976,-0.03904,-0.0488,-0.05368,-0.05368,-0.11224
-0.0732,0.06344,-0.05368,-0.01708,0.01952,-0.04636,-0.01952,-0.03904,-0.05856,-0.06344,-0.05368,-0.11224
-0.08296,0.07564,-0.06832,-0.02684,0.01464,-0.0488,-0.00976,-0.02928,-0.05368,-0.06344,-0.06344,-0.11712
-0.0976,0.09028,-0.08296,-0.03416,0.01464,-0.05612,0.00976,-0.00976,-0.03904,-0.04392,-0.05856,-0.11712
-0.07808,0.07564,-0.0732,-0.03416,0.00488,-0.04148,0,-0.01952,-0.04392,-0.05368,-0.0488,-0.11712
-0.06832,0.06832,-0.06832,-0.03416,0,-0.03416,-0.00488,-0.01952,-0.04392,-0.05368,-0.0488,-0.11224
-0.0732,0.07076,-0.06832,-0.03172,0.00488,-0.03904,0.00488,-0.01952,-0.03416,-0.04392,-0.0488,-0.13176
-0.06832,0.07076,-0.0732,-0.03904,-0.00488,-0.03172,0.00488,-0.00976,-0.03416,-0.04392,-0.05368,-0.13176
-0.07808,0.08784,-0.0976,-0.05856,-0.01952,-0.02928,0.00976,-0.00976,-0.02928,-0.04392,-0.0488,-0.122
-0.09272,0.10004,-0.10736,-0.061,-0.01464,-0.03904,0.00976,-0.00976,-0.03416,-0.03904,-0.0488,-0.11712
-0.06832,0.07564,-0.08296,-0.0488,-0.01464,-0.02684,0.00488,-0.00976,-0.04392,-0.0488,-0.0488,-0.122
-0.0732,0.0732,-0.0732,-0.0366,0,-0.0366,0.00488,-0.00976,-0.03416,-0.04392,-0.04392,-0.11712
-0.07808,0.07076,-0.06344,-0.0244,0.01464,-0.04636,0.01464,-0.00488,-0.03416,-0.05368,-0.05368,-0.10736
-0.0732,0.06832,-0.06344,-0.02684,0.00976,-0.04148,0.01952,-0.00488,-0.03416,-0.0488,-0.06344,-0.10736
-0.06832,0.06344,-0.05856,-0.0244,0.00976,-0.03904,0.00976,-0.00488,-0.0244,-0.05368,-0.05368,-0.10736
-0.06344,0.05856,-0.05368,-0.02196,0.00976,-0.0366,0.00976,-0.00488,-0.0244,-0.05368,-0.05368,-0.10736
-0.0732,0.06832,-0.06344,-0.02684,0.00976,-0.04148,0.01952,0.00488,-0.01464,-0.04392,-0.04392,-0.10248
-0.07808,0.0732,-0.06832,-0.02928,0.00976,-0.04392,0.01952,0.00488,-0.01464,-0.03416,-0.04392,-0.10248
-0.0732,0.06832,-0.06344,-0.02684,0.00976,-0.04148,0.01952,0,-0.0244,-0.03416,-0.04392,-0.09272
-0.09272,0.07808,-0.06344,-0.01708,0.02928,-0.061,0.01952,0,-0.01952,-0.02928,-0.03904,-0.0976
-0.08784,0.08052,-0.0732,-0.02928,0.01464,-0.05124,0.01952,0,-0.01952,-0.03416,-0.03904,-0.0976
-0.08784,0.08296,-0.07808,-0.03416,0.00976,-0.0488,0.0244,0,-0.01952,-0.03416,-0.0488,-0.0976
-0.09272,0.0854,-0.07808,-0.03172,0.01464,-0.05368,0.0244,0,-0.01952,-0.02928,-0.0488,-0.0976
-0.0976,0.0854,-0.0732,-0.0244,0.0244,-0.061,0.01952,0,-0.01952,-0.03416,-0.0488,-0.0976
-0.08784,0.0732,-0.05856,-0.01464,0.02928,-0.05856,0.03416,0.00488,-0.01952,-0.03416,-0.04392,-0.09272
-0.07808,0.06344,-0.0488,-0.00976,0.02928,-0.05368,0.03416,0.00488,-0.01952,-0.03416,-0.03904,-0.09272
-0.0732,0.06832,-0.06344,-0.02684,0.00976,-0.04148,0.0244,0.00488,-0.02928,-0.02928,-0.0488,-0.08784
-0.07808,0.0732,-0.06832,-0.02928,0.00976,-0.04392,0.0244,0.00488,-0.02928,-0.03416,-0.0488,-0.09272
-0.08784,0.08296,-0.07808,-0.03416,0.00976,-0.0488,0.01952,0.00488,-0.0244,-0.04392,-0.0488,-0.07808
-0.0976,0.08784,-0.07808,-0.02928,0.01952,-0.05856,0.01952,0.00488,-0.00976,-0.03904,-0.0488,-0.07808
-0.08784,0.07808,-0.06832,-0.0244,0.01952,-0.05368,0.02928,0.01464,-0.00976,-0.02928,-0.04392,-0.06832
-0.07808,0.07076,-0.06344,-0.0244,0.01464,-0.04636,0.02928,0.01464,-0.00976,-0.02928,-0.03904,-0.0732
-0.06832,0.061,-0.05368,-0.01952,0.01464,-0.04148,0.01952,0.01952,-0.01464,-0.0244,-0.03416,-0.0732
-0.07808,0.06832,-0.05856,-0.01952,0.01952,-0.0488,0.01952,0.01952,-0.00976,-0.0244,-0.03416,-0.0732
-0.07808,0.06588,-0.05368,-0.01464,0.0244,-0.05124,0.0244,0.0244,-0.00488,-0.01464,-0.0244,-0.06344
-0.08296,0.06832,-0.05368,-0.0122,0.02928,-0.05612,0.01952,0.01952,-0.00976,-0.00976,-0.02928,-0.06344
-0.0732,0.061,-0.0488,-0.0122,0.0244,-0.0488,0.02928,0.03416,-0.00488,0,-0.03416,-0.05856
-0.06344,0.05612,-0.0488,-0.01708,0.01464,-0.03904,0.02928,0.03416,0,0,-0.02928,-0.05856
-0.06344,0.05856,-0.05368,-0.02196,0.00976,-0.0366,0.01952,0.02928,-0.00488,-0.01952,-0.03904,-0.04392
-0.05856,0.05124,-0.04392,-0.01464,0.01464,-0.0366,0.01952,0.03416,-0.01464,-0.0244,-0.04392,-0.03904
-0.07808,0.061,-0.04392,-0.00488,0.03416,-0.05612,0.02928,0.04392,0,-0.0244,-0.03416,-0.02928
-0.08784,0.06344,-0.03904,0.00488,0.0488,-0.06832,0.04392,0.0488,0.00488,-0.01952,-0.02928,-0.02928
-0.06832,0.0488,-0.02928,0.00488,0.03904,-0.05368,0.03416,0.05368,0.00976,0,-0.01952,-0.02928
-0.04392,0.03172,-0.01952,0.00244,0.0244,-0.03416,0.02928,0.05856,0.01464,0.00488,-0.01464,-0.0244
-0.04392,0.0244,-0.00488,0.01708,0.03904,-0.04148,0.02928,0.05368,0.0244,0.0244,-0.00488,-0.01464
-0.03904,0.02196,-0.00488,0.01464,0.03416,-0.0366,0.03416,0.06344,0.03904,0.03416,0,-0.01464
-0.05856,0.03904,-0.01952,0.00976,0.03904,-0.0488,0.03904,0.0732,0.03904,0.02928,0,0
-0.06832,0.04636,-0.0244,0.00976,0.04392,-0.05612,0.03904,0.0732,0.04392,0.01952,0.00976,0
-0.0488,0.02928,-0.00976,0.01464,0.03904,-0.04392,0.02928,0.07808,0.04392,0.02928,0.01464,0.00488
-0.0488,0.02684,-0.00488,0.01952,0.04392,-0.04636,0.02928,0.08784,0.04392,0.03416,0.01464,0
-0.04392,0.01952,0.00488,0.02684,0.0488,-0.04636,0.02928,0.08784,0.0488,0.03904,0.01464,0.0244
-0.03904,0.00976,0.01952,0.03904,0.05856,-0.0488,0.0244,0.09272,0.0488,0.03904,0.01952,0.03904
-0.05368,0.02196,0.00976,0.0366,0.06344,-0.05856,0.02928,0.08784,0.05368,0.03416,0.02928,0.03904
-0.06344,0.02684,0.00976,0.04148,0.0732,-0.06832,0.02928,0.08784,0.05368,0.0488,0.03904,0.03904
-0.0488,0.01708,0.01464,0.03904,0.06344,-0.05612,0.01464,0.09272,0.05368,0.0488,0.03904,0.04392
-0.04392,0.0122,0.01952,0.04148,0.06344,-0.05368,0.01952,0.0976,0.06344,0.05368,0.04392,0.04392
-0.02928,0,0.02928,0.04392,0.05856,-0.04392,0.01464,0.10248,0.06344,0.0488,0.03904,0.05368
-0.01952,-0.00488,0.02928,0.03904,0.0488,-0.03416,0.01464,0.0976,0.06832,0.0488,0.03904,0.05856
-0.0244,-0.00976,0.04392,0.05612,0.06832,-0.04636,0.01952,0.0976,0.0732,0.05856,0.05368,0.06344
-0.0244,-0.0122,0.0488,0.061,0.0732,-0.0488,0.01952,0.0976,0.06832,0.05368,0.04392,0.06832
-0.0244,-0.00488,0.03416,0.04636,0.05856,-0.04148,0.00488,0.0976,0.06832,0.05368,0.03904,0.07808
-0.02928,0.00244,0.0244,0.03904,0.05368,-0.04148,0.00488,0.0976,0.0732,0.05368,0.03904,0.0732
-0.01952,-0.00244,0.0244,0.03416,0.04392,-0.03172,0.01952,0.0976,0.06344,0.06344,0.04392,0.08784
-0.01464,-0.00488,0.0244,0.03172,0.03904,-0.02684,0.01952,0.0976,0.05856,0.06344,0.04392,0.08784
-0.01464,-0.00488,0.0244,0.03172,0.03904,-0.02684,0.01464,0.08784,0.05368,0.04392,0.03416,0.08296
-0.00488,-0.01464,0.03416,0.0366,0.03904,-0.02196,0.01464,0.0732,0.05368,0.03904,0.01952,0.07808
-0.00488,-0.00488,0.01464,0.01708,0.01952,-0.0122,0.00976,0.08296,0.06344,0.04392,0.02928,0.08296
-0.00976,0,0.00976,0.01464,0.01952,-0.01464,0.00976,0.0732,0.0488,0.03904,0.02928,0.06344
-0.01952,0.0122,-0.00488,0.00488,0.01464,-0.01708,0.0244,0.06832,0.05368,0.03416,0.00976,0.0732
-0.02928,0.02196,-0.01464,0,0.01464,-0.02196,0.0244,0.0488,0.04392,0.02928,0.00488,0.07808
-0.02928,0.02684,-0.0244,-0.00976,0.00488,-0.01708,0.01464,0.0488,0.02928,0.01952,0,0.08784
-0.02928,0.02684,-0.0244,-0.00976,0.00488,-0.01708,0.00976,0.03904,0.01464,0,-0.01464,0.08296
-0.02928,0.02928,-0.02928,-0.01464,0,-0.01464,0.00976,0.04392,0.0244,0,-0.00488,0.08296
-0.02928,0.02196,-0.01464,0,0.01464,-0.02196,0.01464,0.03904,0.01464,0.00976,-0.00488,0.07808
-0.04392,0.03904,-0.03416,-0.0122,0.00976,-0.02684,0.00488,0.0244,0.00488,-0.00976,-0.01952,0.06832
-0.04392,0.03904,-0.03416,-0.0122,0.00976,-0.02684,0,0.0244,0.00488,-0.00976,-0.02928,0.06832
-0.03416,0.0366,-0.03904,-0.02196,-0.00488,-0.01464,0.00976,0.0244,0.00488,-0.01952,-0.02928,0.0732
-0.04392,0.04148,-0.03904,-0.01708,0.00488,-0.0244,0.00976,0.01952,0.00488,-0.01952,-0.02928,0.07808
-0.05368,0.05124,-0.0488,-0.02196,0.00488,-0.02928,0.00976,0.01952,0.01464,0,-0.00976,0.07808
-0.05856,0.05368,-0.0488,-0.01952,0.00976,-0.03416,0.00976,0.01464,0.00976,0.00976,0.00488,0.07808
-0.0488,0.04148,-0.03416,-0.00976,0.01464,-0.03172,0,0.01464,0.00976,-0.00488,-0.01464,0.06832
-0.03416,0.03416,-0.03416,-0.01708,0,-0.01708,0,0.01464,0.00488,-0.00976,-0.0244,0.06832
-0.0488,0.04148,-0.03416,-0.00976,0.01464,-0.03172,0.00976,0.01952,0.00488,0.00488,-0.01464,0.07808
-0.05368,0.04636,-0.03904,-0.0122,0.01464,-0.03416,0.00976,0.01952,0.00976,0.00488,-0.01464,0.07808
-0.04392,0.04636,-0.0488,-0.02684,-0.00488,-0.01952,0.00976,0.00976,0,-0.00488,-0.0244,0.0732
-0.03416,0.04148,-0.0488,-0.03172,-0.01464,-0.00976,0.00976,0.00976,0,-0.01464,-0.0244,0.0732
-0.0488,0.04392,-0.03904,-0.01464,0.00976,-0.02928,0.00976,0.01952,0.00976,-0.00488,-0.0244,0.06832
-0.0488,0.04148,-0.03416,-0.00976,0.01464,-0.03172,0.00976,0.01952,0.01464,0.00488,-0.0244,0.0732
-0.05856,0.04148,-0.0244,0.00488,0.03416,-0.04636,0.00976,0.01464,0.00976,0,-0.01952,0.08296
-0.05368,0.03904,-0.0244,0.00244,0.02928,-0.04148,0.00976,0.01464,0.00976,0,-0.0244,0.07808
-0.04392,0.03904,-0.03416,-0.0122,0.00976,-0.02684,0.00976,0.01464,0,-0.01464,-0.03416,0.07808
-0.04392,0.04392,-0.04392,-0.02196,0,-0.02196,0.00976,0.01464,0,-0.0244,-0.02928,0.07808
-0.05368,0.04392,-0.03416,-0.00732,0.01952,-0.0366,0.0244,0.02928,0.00488,-0.00976,-0.00488,0.08296
-0.05368,0.04392,-0.03416,-0.00732,0.01952,-0.0366,0.0244,0.02928,0.00488,0.00488,0.00488,0.08296
-0.04392,0.0366,-0.02928,-0.00732,0.01464,-0.02928,0.01464,0.01952,0.00976,-0.00488,-0.01464,0.08296
-0.03904,0.03416,-0.02928,-0.00976,0.00976,-0.0244,0.01464,0.01952,0.00976,0,-0.0244,0.08296
-0.0488,0.04148,-0.03416,-0.00976,0.01464,-0.03172,0.01464,0.02928,0.01952,0.00488,-0.01464,0.08784
-0.0488,0.04148,-0.03416,-0.00976,0.01464,-0.03172,0.01464,0.03416,0.01952,0.00488,-0.00488,0.0976
-0.05368,0.03904,-0.0244,0.00244,0.02928,-0.04148,0.0244,0.0244,0.01952,0.00976,-0.00488,0.10736
-0.05368,0.04392,-0.03416,-0.00732,0.01952,-0.0366,0.0244,0.02928,0.01952,0.00488,-0.01464,0.10736
-0.03904,0.0366,-0.03416,-0.01464,0.00488,-0.02196,0.01464,0.02928,0.00976,-0.00488,-0.01464,0.0976
-0.03904,0.03416,-0.02928,-0.00976,0.00976,-0.0244,0.01464,0.02928,0.00976,-0.00488,-0.00976,0.10248
-0.05368,0.04148,-0.02928,-0.00244,0.0244,-0.03904,0.0244,0.03904,0.01952,0.00976,-0.00976,0.0976
-0.05368,0.04392,-0.03416,-0.00732,0.01952,-0.0366,0.0244,0.03904,0.0244,0.00976,-0.01464,0.08784
-0.0488,0.03904,-0.02928,-0.00488,0.01952,-0.03416,0.01952,0.02928,0.01464,0.01464,-0.00488,0.09272
-0.0488,0.03904,-0.02928,-0.00488,0.01952,-0.03416,0.0244,0.02928,0.01952,0.01464,-0.00488,0.09272
-0.04392,0.03416,-0.0244,-0.00244,0.01952,-0.03172,0.01464,0.03904,0.02928,0.0244,0,0.08784
-0.04392,0.03172,-0.01952,0.00244,0.0244,-0.03416,0.01464,0.03904,0.02928,0.02928,0,0.09272
-0.04392,0.03172,-0.01952,0.00244,0.0244,-0.03416,0.0244,0.03416,0.01952,0.01464,-0.00488,0.08296
-0.04392,0.03172,-0.01952,0.00244,0.0244,-0.03416,0.0244,0.03416,0.0244,0.00488,-0.01464,0.08296
-0.02928,0.0244,-0.01952,-0.00488,0.00976,-0.01952,0.01464,0.04392,0.0244,0.01464,-0.00488,0.0976
-0.01464,0.01708,-0.01952,-0.0122,-0.00488,-0.00488,0.01464,0.04392,0.0244,0.01464,-0.00976,0.0976
-0.0244,0.01952,-0.01464,-0.00244,0.00976,-0.01708,0.01952,0.04392,0.0244,0.00976,-0.01464,0.10248
-0.0244,0.02196,-0.01952,-0.00732,0.00488,-0.01464,0.01952,0.03904,0.01952,0.00976,-0.00976,0.09272
-0.03904,0.03416,-0.02928,-0.00976,0.00976,-0.0244,0.0244,0.04392,0.01952,0.00976,-0.01464,0.08296
-0.03904,0.03416,-0.02928,-0.00976,0.00976,-0.0244,0.01952,0.0488,0.01464,0.00488,-0.01464,0.07808
-0.03416,0.02684,-0.01952,-0.00244,0.01464,-0.0244,0.00976,0.03904,0.00488,-0.00488,-0.0244,0.07808
-0.03904,0.0244,-0.00976,0.00976,0.02928,-0.03416,0.00976,0.02928,0.00488,-0.00488,-0.0244,0.06832
-0.02928,0.02684,-0.0244,-0.00976,0.00488,-0.01708,0.00488,0.03416,0.00488,0.00488,-0.01464,0.0732
-0.02928,0.02928,-0.02928,-0.01464,0,-0.01464,0.00488,0.03416,0.00976,0.00488,-0.01464,0.06832
-0.02928,0.03416,-0.03904,-0.0244,-0.00976,-0.00976,0.00976,0.04392,0.01952,0.01464,-0.00976,0.07808
-0.01952,0.02928,-0.03904,-0.02928,-0.01952,0,0.01952,0.04392,0.0244,0.00976,-0.00976,0.08296
-0.03416,0.03904,-0.04392,-0.02684,-0.00976,-0.0122,0.01464,0.0488,0.01952,0.00976,-0.00976,0.0732
-0.04392,0.04392,-0.04392,-0.02196,0,-0.02196,0.01952,0.04392,0.0244,0.00976,-0.00976,0.06832
-0.03416,0.03416,-0.03416,-0.01708,0,-0.01708,0.00976,0.03416,0.01464,0,-0.01952,0.06832
-0.03416,0.03416,-0.03416,-0.01708,0,-0.01708,0.00976,0.0244,0.00976,0,-0.0244,0.06832
-0.04392,0.03904,-0.03416,-0.0122,0.00976,-0.02684,0.01952,0.0244,0.01464,0,-0.01952,0.07808
-0.04392,0.04148,-0.03904,-0.01708,0.00488,-0.0244,0.01952,0.03416,0.01464,0,-0.01952,0.07808
-0.02928,0.02928,-0.02928,-0.01464,0,-0.01464,0.00976,0.03416,0.01952,0,-0.02928,0.06832
-0.0244,0.0244,-0.0244,-0.0122,0,-0.0122,0,0.03416,0.00488,-0.00488,-0.02928,0.06344
-0.03416,0.03416,-0.03416,-0.01708,0,-0.01708,0.00976,0.02928,0.00488,0,-0.01952,0.0732
-0.03416,0.03904,-0.04392,-0.02684,-0.00976,-0.0122,0.00976,0.02928,0.00976,0,-0.0244,0.08296
-0.04392,0.04148,-0.03904,-0.01708,0.00488,-0.0244,0.01464,0.01952,0.01464,0.00488,-0.01464,0.07808
-0.0488,0.04636,-0.04392,-0.01952,0.00488,-0.02684,0.01464,0.01952,0.01464,0.00976,-0.00976,0.07808
-0.03904,0.04636,-0.05368,-0.03416,-0.01464,-0.0122,0.01952,0.0244,0.01464,0.01952,-0.00976,0.06832
-0.03416,0.04392,-0.05368,-0.0366,-0.01952,-0.00732,0.01952,0.0244,0.01464,0.01952,-0.00976,0.05368
-0.03904,0.04392,-0.0488,-0.02928,-0.00976,-0.01464,0.00976,0.0244,0,0,-0.01952,0.05856
-0.04392,0.04636,-0.0488,-0.02684,-0.00488,-0.01952,0.00976,0.0244,-0.00976,-0.0244,-0.02928,0.05856
-0.03416,0.03904,-0.04392,-0.02684,-0.00976,-0.0122,0.00488,0.01952,-0.00976,-0.0244,-0.02928,0.06832
-0.02928,0.0366,-0.04392,-0.02928,-0.01464,-0.00732,0.00488,0.01464,-0.00488,-0.01952,-0.02928,0.06832
-0.02928,0.02928,-0.02928,-0.01464,0,-0.01464,0.00488,0.0244,0.00488,-0.00976,-0.01952,0.06832
-0.03904,0.03416,-0.02928,-0.00976,0.00976,-0.0244,0.00488,0.01952,0.00488,0,-0.00488,0.0732
-0.04392,0.04148,-0.03904,-0.01708,0.00488,-0.0244,0.01464,0.0244,0.01464,0.00976,-0.00488,0.06832
-0.0488,0.04636,-0.04392,-0.01952,0.00488,-0.02684,0.01464,0.0244,0.00976,0.00976,-0.00976,0.0732
-0.03416,0.04392,-0.05368,-0.0366,-0.01952,-0.00732,0.00488,0.0244,0.00976,0.00488,-0.01952,0.0732
-0.03416,0.04392,-0.05368,-0.0366,-0.01952,-0.00732,0.00488,0.0244,0.01952,0.00976,-0.01952,0.06832
-0.03416,0.04148,-0.0488,-0.03172,-0.01464,-0.00976,0.00488,0.01464,0.00976,-0.00976,-0.03416,0.0732
-0.03416,0.03904,-0.04392,-0.02684,-0.00976,-0.0122,0.00488,0.0244,0,-0.01952,-0.03416,0.07808
-0.03416,0.04392,-0.05368,-0.0366,-0.01952,-0.00732,0.00488,0.0244,0,-0.01464,-0.03904,0.0732
-0.03416,0.04392,-0.05368,-0.0366,-0.01952,-0.00732,0.00488,0.01952,0,-0.01464,-0.0244,0.06344
-0.04392,0.04392,-0.04392,-0.02196,0,-0.02196,0.00488,0.02928,-0.00488,-0.00488,-0.0244,0.07808
-0.04392,0.04392,-0.04392,-0.02196,0,-0.02196,0.00976,0.02928,-0.00488,-0.00976,-0.02928,0.07808
-0.04392,0.03904,-0.03416,-0.0122,0.00976,-0.02684,0.01952,0.02928,0.00488,0.00976,-0.01464,0.07808
-0.0488,0.04148,-0.03416,-0.00976,0.01464,-0.03172,0.00976,0.0244,0.01464,0.01464,-0.00488,0.0732
-0.0244,0.0366,-0.0488,-0.0366,-0.0244,0,0,0.0244,0.00488,0.00488,-0.01464,0.06832
-0.0244,0.03416,-0.04392,-0.03172,-0.01952,-0.00244,0,0.0244,0.00488,-0.00488,-0.0244,0.06832
-0.01952,0.02928,-0.03904,-0.02928,-0.01952,0,0.00976,0.02928,0.00976,-0.00976,-0.01952,0.07808
-0.00976,0.01952,-0.02928,-0.0244,-0.01952,0.00488,0,0.01952,0,-0.01952,-0.02928,0.07808
-0.00976,0.01952,-0.02928,-0.0244,-0.01952,0.00488,0,0.01952,0,-0.01952,-0.02928,0.07808
-0.02928,0.03416,-0.03904,-0.0244,-0.00976,-0.00976,0.00488,0.01464,0,-0.00976,-0.01952,0.06832
-0.03904,0.03904,-0.03904,-0.01952,0,-0.01952,0.00976,0.01464,0,-0.00976,-0.01952,0.06832
-0.03904,0.04392,-0.0488,-0.02928,-0.00976,-0.01464,0.00976,0.01952,-0.00976,-0.01952,-0.0244,0.08296
-0.03904,0.0488,-0.05856,-0.03904,-0.01952,-0.00976,0.00976,0.01952,-0.00976,-0.00976,-0.0244,0.08296
-0.02928,0.03416,-0.03904,-0.0244,-0.00976,-0.00976,0.00976,0.01952,0.00976,0,-0.01464,0.0732
-0.02928,0.03904,-0.0488,-0.03416,-0.01952,-0.00488,0.01464,0.01952,0.01952,0.00976,-0.01464,0.07808
-0.02928,0.04148,-0.05368,-0.03904,-0.0244,-0.00244,0.01464,0.01952,0.01464,0.00976,-0.00488,0.08296
-0.02928,0.03172,-0.03416,-0.01952,-0.00488,-0.0122,0.01464,0.0244,0.0244,0.0244,-0.00488,0.08296
-0.03904,0.03172,-0.0244,-0.00488,0.01464,-0.02684,0.01952,0.03416,0.01464,0.01464,-0.00488,0.09272
-0.03416,0.01952,-0.00488,0.0122,0.02928,-0.03172,0.02928,0.03904,0.0244,0.01952,-0.00488,0.09272
-0.03416,0.01708,0,0.01708,0.03416,-0.03416,0.04392,0.03416,0.03416,0.01952,0.00488,0.10736
-0.02928,0.01464,0,0.01464,0.02928,-0.02928,0.05856,0.04392,0.03904,0.03416,0.00976,0.11224
-0.0488,0.02928,-0.00976,0.01464,0.03904,-0.04392,0.0732,0.05856,0.0488,0.04392,0.00976,0.10736
-0.03904,0.02196,-0.00488,0.01464,0.03416,-0.0366,0.07808,0.06344,0.05368,0.05856,0.0244,0.10736
-0.03416,0.01708,0,0.01708,0.03416,-0.03416,0.0732,0.05856,0.05368,0.0488,0.0244,0.11224
-0.0244,0.0122,0,0.0122,0.0244,-0.0244,0.06344,0.06344,0.0488,0.03416,0.01952,0.11224
0,-0.0122,0.0244,0.0244,0.0244,-0.0122,0.03416,0.05368,0.0488,0.03904,0.02928,0.10248
0,-0.0122,0.0244,0.0244,0.0244,-0.0122,0.01952,0.04392,0.03904,0.0488,0.0244,0.10248
0,-0.00732,0.01464,0.01464,0.01464,-0.00732,0,0.0244,0.03904,0.03904,0.01464,0.11224
0.00488,-0.00976,0.01464,0.0122,0.00976,-0.00244,-0.0244,0.00488,0.01952,0.0244,0.01464,0.10248
0.00488,-0.01464,0.0244,0.02196,0.01952,-0.00732,-0.0244,0,0.00488,0.00488,-0.00488,0.10248
0.0244,-0.02684,0.02928,0.01708,0.00488,0.00976,-0.02928,0,0.00488,0.00976,-0.00488,0.10248
0.01464,-0.01952,0.0244,0.01708,0.00976,0.00244,-0.03416,0,0.01464,0.00976,0.00488,0.09272
0.01464,-0.00976,0.00488,-0.00244,-0.00976,0.0122,-0.03416,0,0.00488,0,-0.00488,0.09272
0.0244,-0.00732,-0.00976,-0.02196,-0.03416,0.02928,-0.03416,0.00488,-0.01464,-0.01464,-0.02928,0.07808
0.01952,0,-0.01952,-0.02928,-0.03904,0.02928,-0.03904,-0.00488,-0.0244,-0.01952,-0.03416,0.06832
0.00976,0.0122,-0.03416,-0.03904,-0.04392,0.02684,-0.04392,-0.0244,-0.03904,-0.04392,-0.0488,0.05368
0,0.02196,-0.04392,-0.04392,-0.04392,0.02196,-0.04392,-0.0244,-0.04392,-0.05368,-0.05368,0.05368
-0.01464,0.03416,-0.05368,-0.04636,-0.03904,0.0122,-0.03416,-0.0244,-0.03904,-0.03904,-0.04392,0.06832
-0.02928,0.0366,-0.04392,-0.02928,-0.01464,-0.00732,-0.0244,-0.00976,-0.02928,-0.01464,-0.03904,0.0732
-0.03416,0.04392,-0.05368,-0.0366,-0.01952,-0.00732,-0.01952,-0.00976,-0.02928,-0.0244,-0.03904,0.0732
-0.02928,0.04636,-0.06344,-0.0488,-0.03416,0.00244,-0.00976,-0.00488,-0.02928,-0.02928,-0.03904,0.06344
-0.04392,0.05856,-0.0732,-0.05124,-0.02928,-0.00732,-0.00976,-0.00488,-0.02928,-0.02928,-0.03904,0.0488
-0.04392,0.06344,-0.08296,-0.061,-0.03904,-0.00244,-0.00976,-0.01464,-0.03904,-0.03416,-0.03416,0.04392
-0.04392,0.07076,-0.0976,-0.07564,-0.05368,0.00488,-0.00976,-0.01464,-0.04392,-0.04392,-0.05856,0.04392
-0.03904,0.07076,-0.10248,-0.08296,-0.06344,0.0122,-0.00976,-0.00976,-0.04392,-0.04392,-0.06832,0.04392
-0.05368,0.08052,-0.10736,-0.08052,-0.05368,0,-0.00976,-0.01952,-0.0488,-0.05368,-0.07808,0.04392
-0.05368,0.08052,-0.10736,-0.08052,-0.05368,0,-0.00976,-0.01952,-0.0488,-0.06344,-0.07808,0.04392
-0.06344,0.07808,-0.09272,-0.061,-0.02928,-0.01708,0,-0.00976,-0.03904,-0.04392,-0.05856,0.0488
-0.06344,0.07564,-0.08784,-0.05612,-0.0244,-0.01952,0.00488,-0.00488,-0.02928,-0.03416,-0.0488,0.05368
-0.05368,0.06588,-0.07808,-0.05124,-0.0244,-0.01464,0.00976,0.00488,-0.01952,-0.01464,-0.04392,0.0488
-0.04392,0.061,-0.07808,-0.05612,-0.03416,-0.00488,0.00976,0.00488,-0.01952,-0.01952,-0.04392,0.0488
-0.04392,0.06344,-0.08296,-0.061,-0.03904,-0.00244,0.00976,0.00488,-0.01952,-0.03904,-0.0488,0.05368
-0.07808,0.09272,-0.10736,-0.06832,-0.02928,-0.0244,0.01464,0.01464,-0.02928,-0.02928,-0.0488,0.05856
-0.07808,0.10004,-0.122,-0.08296,-0.04392,-0.01708,0.05856,0.05856,0,-0.01464,-0.02928,0.05856
-0.05856,0.08784,-0.11712,-0.08784,-0.05856,0,0.07808,0.122,0.04392,0.0244,-0.01952,0.06344
-0.00488,0.061,-0.11712,-0.11468,-0.11224,0.05368,0.1464,0.27816,0.11712,0.07808,0.04392,0.0976
0.08784,-0.01708,-0.05368,-0.0976,-0.14152,0.11468,0.2196,0.50264,0.25376,0.20008,0.16592,0.1952
0.26352,-0.17568,0.08784,-0.04392,-0.17568,0.2196,0.18544,0.64904,0.41968,0.366,0.3172,0.34648
0.45872,-0.37332,0.28792,0.05856,-0.1708,0.31476,-0.01952,0.50264,0.44408,0.43432,0.41968,0.50264
0.61976,-0.549,0.47824,0.16836,-0.14152,0.38064,-0.27328,0.18056,0.30744,0.37576,0.43432,0.60024
0.67832,-0.65636,0.6344,0.29524,-0.04392,0.36112,-0.53192,-0.16592,0.0732,0.24888,0.36112,0.63928
0.58072,-0.62952,0.67832,0.38796,0.0976,0.24156,-0.56608,-0.3416,-0.05368,0.17568,0.33672,0.66368
0.42456,-0.5002,0.57584,0.36356,0.15128,0.13664,-0.48312,-0.39528,-0.13664,0.09272,0.25864,0.58072
0.23912,-0.2928,0.34648,0.22692,0.10736,0.06588,-0.39528,-0.44408,-0.28304,-0.10736,0.01952,0.35624
0.05368,-0.07564,0.0976,0.07076,0.04392,0.00488,-0.30256,-0.5368,-0.42944,-0.30256,-0.20984,0.09272
-0.06344,0.0122,0.03904,0.07076,0.10248,-0.08296,-0.35624,-0.62952,-0.44408,-0.32696,-0.25376,0.00976
-0.08296,0.03172,0.01952,0.061,0.10248,-0.09272,-0.27816,-0.50264,-0.38552,-0.28792,-0.20984,0.01952
-0.08296,0.0366,0.00976,0.05124,0.09272,-0.08784,-0.16592,-0.28304,-0.22936,-0.19032,-0.15616,0.03416
-0.05368,0.01464,0.0244,0.05124,0.07808,-0.06588,-0.12688,-0.18544,-0.13664,-0.10736,-0.10736,0.04392
-0.06832,0.03904,-0.00976,0.0244,0.05856,-0.06344,-0.08296,-0.122,-0.0732,-0.05368,-0.04392,0.06344
-0.03904,0.0366,-0.03416,-0.01464,0.00488,-0.02196,-0.07808,-0.11224,-0.08784,-0.06344,-0.03904,0.06344
-0.0488,0.04392,-0.03904,-0.01464,0.00976,-0.02928,-0.03904,-0.07808,-0.07808,-0.05368,-0.0488,0.03416
-0.0488,0.04636,-0.04392,-0.01952,0.00488,-0.02684,-0.00488,-0.03416,-0.04392,-0.03904,-0.04392,0.0244
-0.08296,0.08296,-0.08296,-0.04148,0,-0.04148,0.00488,-0.03416,-0.03904,-0.01952,-0.05368,0.02928
-0.07808,0.07564,-0.0732,-0.03416,0.00488,-0.04148,-0.00976,-0.03904,-0.03904,-0.02928,-0.05368,0.0488
-0.0732,0.06832,-0.06344,-0.02684,0.00976,-0.04148,-0.00976,-0.03904,-0.05368,-0.05368,-0.05856,0.03904
-0.08784,0.08052,-0.0732,-0.02928,0.01464,-0.05124,0,-0.0244,-0.0488,-0.0488,-0.06344,0.03904
-0.08296,0.0732,-0.06344,-0.02196,0.01952,-0.05124,0.00976,-0.00976,-0.0244,-0.03416,-0.04392,0.0488
-0.06344,0.061,-0.05856,-0.02684,0.00488,-0.03416,0.00976,-0.00976,-0.0244,-0.03416,-0.03904,0.05368
-0.06344,0.06832,-0.0732,-0.04148,-0.00976,-0.02684,0.00488,-0.01464,-0.01464,-0.03416,-0.04392,0.04392
-0.07808,0.08052,-0.08296,-0.04392,-0.00488,-0.0366,0.00488,-0.01464,-0.01464,-0.03416,-0.05368,0.02928
-0.07808,0.08052,-0.08296,-0.04392,-0.00488,-0.0366,0.00976,-0.00976,-0.0244,-0.04392,-0.05368,0.03416
-0.08296,0.0854,-0.08784,-0.04636,-0.00488,-0.03904,0.00976,-0.00976,-0.03904,-0.03904,-0.0488,0.03904
-0.09272,0.08784,-0.08296,-0.0366,0.00976,-0.05124,0.01464,-0.00976,-0.03416,-0.0488,-0.0488,0.03904
-0.07808,0.08052,-0.08296,-0.04392,-0.00488,-0.0366,0.01464,-0.00976,-0.03416,-0.0488,-0.0488,0.04392
-0.07808,0.07564,-0.0732,-0.03416,0.00488,-0.04148,0.01464,0.00488,-0.01464,-0.02928,-0.03416,0.03904
-0.08784,0.08052,-0.0732,-0.02928,0.01464,-0.05124,0.01464,0.00488,-0.01464,-0.01952,-0.03416,0.03904
-0.07808,0.07808,-0.07808,-0.03904,0,-0.03904,0.01952,-0.00488,-0.0244,-0.01952,-0.04392,0.03904
-0.0732,0.07564,-0.07808,-0.04148,-0.00488,-0.03416,0.01952,-0.00488,-0.0244,-0.0244,-0.04392,0.03904
-0.06832,0.07076,-0.0732,-0.03904,-0.00488,-0.03172,0.01952,0.00488,-0.0244,-0.01464,-0.04392,0.03416
-0.07808,0.07564,-0.0732,-0.03416,0.00488,-0.04148,0.01952,0.00488,-0.0244,-0.01464,-0.04392,0.03416
-0.0732,0.07564,-0.07808,-0.04148,-0.00488,-0.03416,0.01952,0,-0.01464,-0.0244,-0.04392,0.03416
-0.0732,0.0732,-0.0732,-0.0366,0,-0.0366,0.01952,0,-0.00976,-0.0244,-0.04392,0.02928
-0.08296,0.07808,-0.0732,-0.03172,0.00976,-0.04636,0.01952,0,-0.00976,-0.01464,-0.02928,0.02928
-0.07808,0.07564,-0.0732,-0.03416,0.00488,-0.04148,0.01952,0,-0.00976,-0.01464,-0.03416,0.02928
-0.06832,0.06832,-0.06832,-0.03416,0,-0.03416,0.0244,0,-0.01952,-0.01952,-0.0488,0.02928
-0.06344,0.06344,-0.06344,-0.03172,0,-0.03172,0.01952,0,-0.01952,-0.0244,-0.0488,0.02928
-0.06832,0.06832,-0.06832,-0.03416,0,-0.03416,0.01952,0.00488,-0.00976,-0.01464,-0.04392,0.0244
-0.06832,0.06832,-0.06832,-0.03416,0,-0.03416,0.0244,0.00488,-0.00976,-0.01464,-0.03904,0.0244
-0.05368,0.061,-0.06832,-0.04148,-0.01464,-0.01952,0.0244,0.00488,-0.00976,-0.00976,-0.03904,0.02928
-0.05856,0.06832,-0.07808,-0.0488,-0.01952,-0.01952,0.0244,0.00488,-0.00976,-0.01464,-0.03904,0.0244
-0.06344,0.07076,-0.07808,-0.04636,-0.01464,-0.0244,0.01952,-0.00488,-0.0244,-0.0244,-0.03904,0.01464
-0.0732,0.07564,-0.07808,-0.04148,-0.00488,-0.03416,0.01952,-0.00488,-0.01952,-0.01952,-0.03904,0.01952
-0.07808,0.07808,-0.07808,-0.03904,0,-0.03904,0.01952,0.00488,-0.01952,-0.01952,-0.04392,0.01952
-0.07808,0.07808,-0.07808,-0.03904,0,-0.03904,0.01952,0.00488,-0.01952,-0.01952,-0.03904,0.01952
-0.06832,0.06832,-0.06832,-0.03416,0,-0.03416,0.02928,0.00976,-0.00488,-0.01464,-0.03904,0.0244
-0.05368,0.05124,-0.0488,-0.02196,0.00488,-0.02928,0.02928,0.00976,-0.00488,-0.01464,-0.03416,0.03416
-0.06344,0.061,-0.05856,-0.02684,0.00488,-0.03416,0.0244,0.01464,-0.00488,-0.01464,-0.03416,0.04392
-0.07808,0.07076,-0.06344,-0.0244,0.01464,-0.04636,0.01952,0.00976,-0.00976,-0.01464,-0.03904,0.04392
-0.0732,0.06588,-0.05856,-0.02196,0.01464,-0.04392,0.01952,0.01464,-0.00488,-0.00976,-0.0244,0.03416
-0.0732,0.06588,-0.05856,-0.02196,0.01464,-0.04392,0.01952,0.01464,-0.00488,-0.00976,-0.0244,0.03904
-0.05368,0.05612,-0.05856,-0.03172,-0.00488,-0.0244,0.01952,0.01464,-0.00488,-0.00976,-0.0244,0.02928
-0.0488,0.0488,-0.0488,-0.0244,0,-0.0244,0.01952,0.01952,-0.00488,-0.00976,-0.02928,0.03416
-0.0488,0.05124,-0.05368,-0.02928,-0.00488,-0.02196,0.01952,0.0244,-0.00488,-0.01464,-0.0244,0.0488
-0.0488,0.0488,-0.0488,-0.0244,0,-0.0244,0.01952,0.02928,0,-0.00976,-0.01952,0.0488
-0.0488,0.04392,-0.03904,-0.01464,0.00976,-0.02928,0.0244,0.03416,0.00488,-0.00976,-0.01952,0.05368
-0.0488,0.04392,-0.03904,-0.01464,0.00976,-0.02928,0.0244,0.03416,0.01464,0,-0.01464,0.06832
-0.04392,0.04148,-0.03904,-0.01708,0.00488,-0.0244,0.01952,0.04392,0.01464,0.00976,0.00488,0.0732
-0.04392,0.03904,-0.03416,-0.0122,0.00976,-0.02684,0.0244,0.04392,0.01952,0.01464,0.00976,0.06832
-0.02928,0.0244,-0.01952,-0.00488,0.00976,-0.01952,0.01952,0.05368,0.0244,0.0244,0,0.0732
-0.02928,0.02196,-0.01464,0,0.01464,-0.02196,0.01952,0.05368,0.03416,0.02928,0.00488,0.07808
-0.03904,0.02684,-0.01464,0.00488,0.0244,-0.03172,0.02928,0.06832,0.03416,0.03904,0.00976,0.08296
-0.02928,0.01708,-0.00488,0.00976,0.0244,-0.02684,0.02928,0.0732,0.03416,0.04392,0.01464,0.07808
-0.02928,0.0122,0.00488,0.01952,0.03416,-0.03172,0.02928,0.07808,0.03904,0.03904,0.01464,0.09272
-0.03416,0.00732,0.01952,0.0366,0.05368,-0.04392,0.02928,0.07808,0.03904,0.03904,0.01464,0.10248
-0.02928,0.00732,0.01464,0.02928,0.04392,-0.0366,0.00976,0.0732,0.02928,0.03416,0.00976,0.0976
-0.03416,0.01464,0.00488,0.02196,0.03904,-0.0366,0.00976,0.06832,0.03416,0.03416,0.01952,0.0976
-0.02928,0.0122,0.00488,0.01952,0.03416,-0.03172,0.00976,0.0732,0.03416,0.03416,0.0244,0.11224
-0.03416,0.01464,0.00488,0.02196,0.03904,-0.0366,0.00488,0.0732,0.04392,0.0488,0.03904,0.11224
-0.02928,0,0.02928,0.04392,0.05856,-0.04392,0.00976,0.06832,0.05368,0.05856,0.03904,0.11224
-0.01952,-0.00488,0.02928,0.03904,0.0488,-0.03416,0.00488,0.0732,0.05856,0.05856,0.03904,0.11224
-0.00976,-0.0122,0.03416,0.03904,0.04392,-0.02684,0,0.07808,0.05856,0.05856,0.04392,0.122
-0.00488,-0.01708,0.03904,0.04148,0.04392,-0.0244,0,0.07808,0.0488,0.05856,0.03416,0.122
0.00488,-0.02196,0.03904,0.0366,0.03416,-0.01464,-0.00488,0.07808,0.05856,0.05368,0.03904,0.12688
0.00488,-0.01952,0.03416,0.03172,0.02928,-0.0122,-0.00488,0.07808,0.06344,0.05368,0.03904,0.12688
0.00976,-0.02196,0.03416,0.02928,0.0244,-0.00732,0.00488,0.06832,0.06344,0.04392,0.03904,0.122
0.01464,-0.0244,0.03416,0.02684,0.01952,-0.00244,0.00976,0.06832,0.05856,0.04392,0.03416,0.12688
0.00488,-0.01464,0.0244,0.02196,0.01952,-0.00732,0.01464,0.07808,0.05368,0.05368,0.04392,0.13664
-0.00488,-0.00488,0.01464,0.01708,0.01952,-0.0122,0.01464,0.07808,0.05368,0.05856,0.03904,0.12688
-0.00488,0.00244,0,0.00244,0.00488,-0.00488,0.00976,0.0732,0.05368,0.04392,0.03904,0.122
-0.00488,0.00732,-0.00976,-0.00732,-0.00488,0,0.00976,0.06344,0.04392,0.03904,0.02928,0.11712
-0.00488,0.00244,0,0.00244,0.00488,-0.00488,0.00976,0.05856,0.03416,0.03416,0.01464,0.10248
0.00488,0.00488,-0.01464,-0.01708,-0.01952,0.0122,0.01464,0.0488,0.02928,0.01952,0.00488,0.10248
0.00488,0,-0.00488,-0.00732,-0.00976,0.00732,0.01464,0.0488,0.0244,0.0244,0.00488,0.10736
-0.01464,0.00976,-0.00488,0.00244,0.00976,-0.0122,0.01952,0.0488,0.02928,0.02928,0.00976,0.10736
-0.0244,0.0244,-0.0244,-0.0122,0,-0.0122,0,0.02928,0.01464,0.01952,-0.00488,0.10248
-0.03416,0.03172,-0.02928,-0.0122,0.00488,-0.01952,0.00488,0.01952,0.00976,0.00488,-0.00976,0.10248
-0.03416,0.03416,-0.03416,-0.01708,0,-0.01708,0.00488,0.0244,0.00488,0,-0.01464,0.0976
-0.03416,0.03904,-0.04392,-0.02684,-0.00976,-0.0122,0.00488,0.0244,0.00488,0,-0.01952,0.0976
-0.02928,0.03416,-0.03904,-0.0244,-0.00976,-0.00976,0,0.0244,0.01464,0.00488,-0.01464,0.09272
-0.0244,0.02928,-0.03416,-0.02196,-0.00976,-0.00732,0,0.01952,0.01464,0.01464,-0.00488,0.0976
-0.0244,0.03172,-0.03904,-0.02684,-0.01464,-0.00488,0.00976,0.01952,0.01464,0.00976,-0.00976,0.10736
-0.0244,0.03172,-0.03904,-0.02684,-0.01464,-0.00488,0.00976,0.01952,0.01464,0.00976,-0.00488,0.10736
-0.02928,0.03416,-0.03904,-0.0244,-0.00976,-0.00976,0.00976,0.01464,0,-0.00488,-0.01952,0.11712
-0.0244,0.02928,-0.03416,-0.02196,-0.00976,-0.00732,0.00976,0.01464,-0.00488,-0.00488,-0.0244,0.11712
-0.0244,0.03416,-0.04392,-0.03172,-0.01952,-0.00244,0.00976,0.00976,0.00488,0,-0.01464,0.11712
-0.02928,0.03172,-0.03416,-0.01952,-0.00488,-0.0122,0.00976,0.00976,0.00488,0.00488,-0.01464,0.11712
-0.03416,0.04148,-0.0488,-0.03172,-0.01464,-0.00976,0.00976,0.00976,0,-0.00488,-0.01464,0.10736
-0.03416,0.04148,-0.0488,-0.03172,-0.01464,-0.00976,0.00976,0.00976,0,-0.00488,-0.01464,0.10248
-0.0244,0.03416,-0.04392,-0.03172,-0.01952,-0.00244,0,0,0,0.00488,-0.01464,0.0976
-0.02928,0.02928,-0.02928,-0.01464,0,-0.01464,0,0,-0.00488,0.00488,-0.01464,0.0976
-0.01952,0.01708,-0.01464,-0.00488,0.00488,-0.0122,0.00976,0.00488,0.00976,0.00976,-0.00488,0.10248
-0.01464,0.01464,-0.01464,-0.00732,0,-0.00732,0.00976,0.00488,0.00976,0.00976,0,0.10248
-0.02928,0.02928,-0.02928,-0.01464,0,-0.01464,0.00976,0.01464,0.00976,0.00488,-0.00976,0.10736
-0.02928,0.03416,-0.03904,-0.0244,-0.00976,-0.00976,0.00976,0.01464,0.00976,0.00488,-0.01464,0.10736
-0.04392,0.04392,-0.04392,-0.02196,0,-0.02196,0.00488,0.00976,0.00976,0.00976,-0.01464,0.10248
-0.04392,0.04392,-0.04392,-0.02196,0,-0.02196,0.00488,0.00976,0.01464,0.01464,-0.01464,0.10248
-0.02928,0.03172,-0.03416,-0.01952,-0.00488,-0.0122,0.01464,0.01952,0.01952,0.01464,-0.00488,0.10248
-0.01464,0.01952,-0.0244,-0.01708,-0.00976,-0.00244,0.01464,0.01952,0.01952,0.01464,-0.00488,0.10248
-0.01952,0.01952,-0.01952,-0.00976,0,-0.00976,0.01464,0.01952,0.00976,0.01952,-0.00488,0.0976
-0.01952,0.0244,-0.02928,-0.01952,-0.00976,-0.00488,0.01464,0.01952,0.00976,0.01464,-0.00488,0.0976
-0.0244,0.02928,-0.03416,-0.02196,-0.00976,-0.00732,0.0244,0.0244,0.01952,0.01952,0.00488,0.11224
-0.03904,0.0366,-0.03416,-0.01464,0.00488,-0.02196,0.0244,0.02928,0.01952,0.01952,-0.00488,0.11712
-0.02928,0.02684,-0.0244,-0.00976,0.00488,-0.01708,0.0244,0.02928,0.01952,0.00488,-0.01464,0.11712
-0.02928,0.0244,-0.01952,-0.00488,0.00976,-0.01952,0.0244,0.02928,0.01952,0.00488,-0.00976,0.11712
-0.02928,0.01952,-0.00976,0.00488,0.01952,-0.0244,0.01464,0.01952,0.01952,0.00976,0,0.11224
-0.01952,0.01464,-0.00976,0,0.00976,-0.01464,0.01464,0.01952,0.01952,0.00976,0,0.10248
-0.0244,0.02684,-0.02928,-0.01708,-0.00488,-0.00976,0.01464,0.02928,0.01464,0.01952,-0.00488,0.0976
-0.02928,0.02928,-0.02928,-0.01464,0,-0.01464,0.00976,0.02928,0.00488,0.01464,-0.00488,0.10248
-0.01952,0.01952,-0.01952,-0.00976,0,-0.00976,0.01464,0.02928,0,0.00488,-0.01464,0.0976
-0.01464,0.01464,-0.01464,-0.00732,0,-0.00732,0.01464,0.02928,0,0.00488,-0.00976,0.10248
-0.00488,0.0122,-0.01952,-0.01708,-0.01464,0.00488,0.01464,0.03416,0.00976,0.01952,0.00488,0.10248
-0.00488,0.0122,-0.01952,-0.01708,-0.01464,0.00488,0.01464,0.03416,0.01464,0.0244,0.00488,0.10248
-0.00976,0.01464,-0.01952,-0.01464,-0.00976,0,0.00488,0.0244,0.01464,0.01464,-0.00488,0.0976
-0.00976,0.01464,-0.01952,-0.01464,-0.00976,0,0.00488,0.0244,0.01464,0.01464,-0.00976,0.0976
-0.00488,0.01464,-0.0244,-0.02196,-0.01952,0.00732,0.00976,0.03416,0.01464,0.01952,-0.00976,0.10736
-0.00488,0.01464,-0.0244,-0.02196,-0.01952,0.00732,0.01464,0.03416,0.00976,0.01952,-0.01464,0.0976
0,0.00976,-0.01952,-0.01952,-0.01952,0.00976,0.01464,0.01952,0.00976,0.00976,-0.00976,0.09272
0,0.00976,-0.01952,-0.01952,-0.01952,0.00976,0.00976,0.01464,0.00488,0.00488,-0.01464,0.08784
0,0.01464,-0.02928,-0.02928,-0.02928,0.01464,0.00976,0.02928,0.01464,0.01464,-0.00488,0.08296
-0.00976,0.01952,-0.02928,-0.0244,-0.01952,0.00488,0.00976,0.01952,0.01464,0.01464,-0.00488,0.08784
-0.00976,0.01464,-0.01952,-0.01464,-0.00976,0,0.01464,0.0244,0.01464,0.01464,-0.01464,0.09272
-0.00976,0.01708,-0.0244,-0.01952,-0.01464,0.00244,0.01464,0.0244,0.01952,0.01464,-0.01464,0.09272
-0.00976,0.01952,-0.02928,-0.0244,-0.01952,0.00488,0.00976,0.0244,0.01952,0.01464,-0.01464,0.08784
-0.00976,0.01952,-0.02928,-0.0244,-0.01952,0.00488,0.00976,0.0244,0.01464,0.00976,-0.01952,0.09272
-0.00976,0.01464,-0.01952,-0.01464,-0.00976,0,0.00976,0.0244,0,0.00976,-0.01952,0.09272
-0.01464,0.01952,-0.0244,-0.01708,-0.00976,-0.00244,0.00488,0.02928,0.00488,0.00976,-0.01952,0.08784
-0.01464,0.01464,-0.01464,-0.00732,0,-0.00732,0.00976,0.01464,0.00488,0,-0.01952,0.08784
-0.01464,0.01464,-0.01464,-0.00732,0,-0.00732,0.00976,0.00976,0.00488,0,-0.01464,0.08784
-0.00488,0.00976,-0.01464,-0.0122,-0.00976,0.00244,0.00976,0.00488,-0.00976,-0.00488,-0.02928,0.08784
-0.00488,0.0122,-0.01952,-0.01708,-0.01464,0.00488,0.00976,0.00976,-0.00488,-0.01464,-0.02928,0.08784
-0.00976,0.01952,-0.02928,-0.0244,-0.01952,0.00488,0.00976,0.0244,0.00976,-0.01464,-0.01952,0.08784
-0.00488,0.01708,-0.02928,-0.02684,-0.0244,0.00976,0.00976,0.0244,0,-0.00488,-0.01952,0.08784
-0.00488,0.01464,-0.0244,-0.02196,-0.01952,0.00732,0.00976,0.0244,0.00488,0.00488,-0.00976,0.09272
-0.00488,0.01464,-0.0244,-0.02196,-0.01952,0.00732,0.00976,0.01952,0.00976,0.00976,-0.00976,0.09272
-0.00488,0.01708,-0.02928,-0.02684,-0.0244,0.00976,0.00488,0.01464,-0.00488,-0.00488,-0.0244,0.09272
-0.00488,0.01708,-0.02928,-0.02684,-0.0244,0.00976,0.00488,0.00488,-0.00488,-0.00976,-0.0244,0.08296
-0.00976,0.02684,-0.04392,-0.03904,-0.03416,0.0122,0.00488,0.00976,0.00488,-0.00976,-0.02928,0.07808
-0.01464,0.02928,-0.04392,-0.0366,-0.02928,0.00732,0.00976,0.00488,0.00488,0,-0.02928,0.07808
-0.00488,0.01708,-0.02928,-0.02684,-0.0244,0.00976,0.00976,0.01464,0.00488,-0.00976,-0.02928,0.0732
0,0.01464,-0.02928,-0.02928,-0.02928,0.01464,0.00976,0.01464,0,-0.00976,-0.02928,0.06832
-0.01464,0.01708,-0.01952,-0.0122,-0.00488,-0.00488,0.00976,0.00976,0,-0.00488,-0.01952,0.07808
-0.00976,0.01708,-0.0244,-0.01952,-0.01464,0.00244,0.00488,0.00488,0,-0.00488,-0.01952,0.07808
-0.00976,0.02196,-0.03416,-0.02928,-0.0244,0.00732,0.00488,0.00488,0.00488,0,-0.01952,0.08784
-0.01952,0.0244,-0.02928,-0.01952,-0.00976,-0.00488,0.00488,0,0.00488,0,-0.01464,0.09272
-0.01464,0.02684,-0.03904,-0.03172,-0.0244,0.00488,0.00488,0,0.00488,0,-0.0244,0.08784
-0.01952,0.03172,-0.04392,-0.03416,-0.0244,0.00244,0.00488,0.00488,0,0,-0.02928,0.08784
-0.00976,0.0244,-0.03904,-0.03416,-0.02928,0.00976,0.01464,0.00488,-0.00488,0,-0.01952,0.08784
0,0.01464,-0.02928,-0.02928,-0.02928,0.01464,0.01464,0.00488,-0.00976,-0.00488,-0.01952,0.07808
-0.00976,0.01708,-0.0244,-0.01952,-0.01464,0.00244,0.00488,0.00488,0,0,-0.02928,0.07808
-0.01952,0.0244,-0.02928,-0.01952,-0.00976,-0.00488,0.00488,0.00488,0,0,-0.03416,0.0732
-0.01952,0.02684,-0.03416,-0.0244,-0.01464,-0.00244,-0.00488,0.00488,-0.00976,-0.01464,-0.03904,0.07808
-0.00976,0.02196,-0.03416,-0.02928,-0.0244,0.00732,-0.00488,0.00488,-0.00976,-0.01464,-0.03416,0.06344
-0.01464,0.01952,-0.0244,-0.01708,-0.00976,-0.00244,0.00488,0,0.00488,-0.00488,-0.01464,0.05856
-0.01464,0.01952,-0.0244,-0.01708,-0.00976,-0.00244,0.00976,0,0.01952,0.00976,-0.01952,0.06832
-0.01464,0.0244,-0.03416,-0.02684,-0.01952,0.00244,0.00976,0,0.00976,-0.00488,-0.02928,0.0732
-0.01952,0.02684,-0.03416,-0.0244,-0.01464,-0.00244,0.00488,0,-0.00976,-0.01952,-0.03416,0.07808
-0.01952,0.02684,-0.03416,-0.0244,-0.01464,-0.00244,0,-0.00488,-0.01464,-0.01952,-0.0244,0.08784
-0.01464,0.01708,-0.01952,-0.0122,-0.00488,-0.00488,0,-0.00488,-0.01464,-0.00976,-0.0244,0.08784
-0.01464,0.01952,-0.0244,-0.01708,-0.00976,-0.00244,0.00488,-0.00488,-0.00488,-0.00488,-0.0244,0.0732
-0.01464,0.01952,-0.0244,-0.01708,-0.00976,-0.00244,0.00488,0.00488,0,0,-0.0244,0.06344
-0.01464,0.01952,-0.0244,-0.01708,-0.00976,-0.00244,0.00488,-0.00488,-0.00976,-0.01464,-0.03416,0.05856
-0.02928,0.03416,-0.03904,-0.0244,-0.00976,-0.00976,0.00488,-0.00976,-0.00976,-0.01464,-0.03416,0.05368
-0.01464,0.02928,-0.04392,-0.0366,-0.02928,0.00732,0.00488,0,0,-0.01464,-0.03416,0.05368
0.0244,-0.00244,-0.01952,-0.03172,-0.04392,0.03416,0.00488,0.00976,0,0.00488,-0.02928,0.06344
0.01952,-0.00488,-0.00976,-0.01952,-0.02928,0.0244,0,0.00976,-0.00976,0,-0.02928,0.06832
0,0.00976,-0.01952,-0.01952,-0.01952,0.00976,0.00976,0,0,0,-0.01952,0.06832
-0.00976,0.01952,-0.02928,-0.0244,-0.01952,0.00488,0.00976,0,0,0,-0.01952,0.06832
-0.02928,0.03416,-0.03904,-0.0244,-0.00976,-0.00976,-0.00488,-0.00488,0,-0.00976,-0.02928,0.05856
-0.02928,0.03416,-0.03904,-0.0244,-0.00976,-0.00976,0,-0.00488,0,-0.00976,-0.03904,0.05856
-0.01952,0.02928,-0.03904,-0.02928,-0.01952,0,0,0,-0.00976,-0.01952,-0.03416,0.05368
-0.01952,0.02928,-0.03904,-0.02928,-0.01952,0,0,0,-0.00976,-0.01952,-0.03416,0.05368
-0.01952,0.01952,-0.01952,-0.00976,0,-0.00976,0,0,0,-0.00976,-0.0244,0.05368
-0.01952,0.0244,-0.02928,-0.01952,-0.00976,-0.00488,0.00488,0,0,0,-0.0244,0.05856
-0.00976,0.01708,-0.0244,-0.01952,-0.01464,0.00244,0.00488,0,0.00488,0.00976,-0.00488,0.06344
-0.00976,0.00732,-0.00488,0,0.00488,-0.00732,0.00488,0.00488,0.01464,0.0244,-0.00488,0.06344
0,-0.00244,0.00488,0.00488,0.00488,-0.00244,0,0.00488,0.01464,0.01464,-0.00488,0.08296
0.00488,-0.01464,0.0244,0.02196,0.01952,-0.00732,0.00976,0.00976,0.0244,0.01952,-0.00488,0.08296
-0.01464,-0.00244,0.01952,0.02684,0.03416,-0.0244,0.0244,0.0244,0.04392,0.02928,0.00488,0.07808
-0.01952,0,0.01952,0.02928,0.03904,-0.02928,0.0488,0.03416,0.0488,0.04392,0.00976,0.0732
-0.03904,0.01952,0,0.01952,0.03904,-0.03904,0.05368,0.02928,0.03904,0.03416,-0.00976,0.06832
-0.02928,0.0122,0.00488,0.01952,0.03416,-0.03172,0.05856,0.0244,0.04392,0.03904,-0.00488,0.06832
-0.0244,0.00732,0.00976,0.02196,0.03416,-0.02928,0.0732,0.03904,0.04392,0.03904,0.01464,0.08296
-0.01464,0.00244,0.00976,0.01708,0.0244,-0.01952,0.06344,0.04392,0.03904,0.03416,0.00976,0.09272
0.00976,-0.02196,0.03416,0.02928,0.0244,-0.00732,0.04392,0.03416,0.0488,0.03904,0.00976,0.10248
0.00976,-0.02196,0.03416,0.02928,0.0244,-0.00732,0.02928,0.0244,0.03904,0.03904,0.00488,0.10248
0.01952,-0.03172,0.04392,0.03416,0.0244,-0.00244,0.00976,0.01464,0.03904,0.03904,0.00488,0.09272
0.0244,-0.03904,0.05368,0.04148,0.02928,-0.00244,-0.01464,-0.00488,0.01952,0.0244,0.00488,0.0732
0.0244,-0.03416,0.04392,0.03172,0.01952,0.00244,-0.03416,-0.00976,0.00488,0.00488,-0.01464,0.08296
0.04392,-0.04636,0.0488,0.02684,0.00488,0.01952,-0.03904,-0.00976,0.00488,0.00976,-0.01464,0.08296
0.04392,-0.0488,0.05368,0.03172,0.00976,0.01708,-0.04392,-0.01952,0.00488,0.01952,-0.00488,0.08296
0.04392,-0.03904,0.03416,0.0122,-0.00976,0.02684,-0.04392,-0.01952,-0.00488,0.00976,-0.00488,0.08296
0.04392,-0.03172,0.01952,-0.00244,-0.0244,0.03416,-0.04392,-0.00488,-0.01464,-0.00488,-0.01952,0.05856
0.03904,-0.01952,0,-0.01952,-0.03904,0.03904,-0.0488,-0.01464,-0.0244,-0.00976,-0.0244,0.0488
0.03904,-0.0122,-0.01464,-0.03416,-0.05368,0.04636,-0.05368,-0.04392,-0.03904,-0.0244,-0.0488,0.0244
0.02928,-0.00244,-0.0244,-0.03904,-0.05368,0.04148,-0.05368,-0.04392,-0.04392,-0.03416,-0.05368,0.0244
0.0244,0,-0.0244,-0.0366,-0.0488,0.0366,-0.04392,-0.04392,-0.03904,-0.03904,-0.05368,0.02928
0.00976,0.00244,-0.01464,-0.01952,-0.0244,0.01708,-0.03416,-0.02928,-0.02928,-0.0244,-0.0488,0.03416
0.00488,0.00488,-0.01464,-0.01708,-0.01952,0.0122,-0.03904,-0.02928,-0.02928,-0.0244,-0.03904,0.03416
0,0.0122,-0.0244,-0.0244,-0.0244,0.0122,-0.02928,-0.0244,-0.02928,-0.01952,-0.03904,0.0244
-0.01464,0.03416,-0.05368,-0.04636,-0.03904,0.0122,-0.01952,-0.0244,-0.02928,-0.01952,-0.03904,0.00976
-0.01464,0.03904,-0.06344,-0.05612,-0.0488,0.01708,-0.01952,-0.03416,-0.03904,-0.0244,-0.04392,0.00488
-0.03416,0.05612,-0.07808,-0.061,-0.04392,0.00488,-0.02928,-0.04392,-0.05368,-0.04392,-0.05856,-0.00488
-0.03904,0.061,-0.08296,-0.06344,-0.04392,0.00244,-0.02928,-0.03904,-0.05368,-0.04392,-0.06832,-0.00488
-0.03416,0.05612,-0.07808,-0.061,-0.04392,0.00488,-0.01952,-0.03904,-0.0488,-0.04392,-0.05856,-0.00488
-0.0244,0.05124,-0.07808,-0.06588,-0.05368,0.01464,-0.01952,-0.03904,-0.0488,-0.04392,-0.05856,-0.00488
-0.03416,0.05856,-0.08296,-0.06588,-0.0488,0.00732,-0.01952,-0.02928,-0.0488,-0.05368,-0.06832,-0.00976
-0.03416,0.05612,-0.07808,-0.061,-0.04392,0.00488,-0.01464,-0.0244,-0.0488,-0.05368,-0.06832,-0.00488
-0.0244,0.04636,-0.06832,-0.05612,-0.04392,0.00976,-0.00976,-0.03416,-0.02928,-0.03416,-0.05368,0
-0.0244,0.04636,-0.06832,-0.05612,-0.04392,0.00976,-0.00976,-0.03416,-0.02928,-0.02928,-0.05368,0
-0.01464,0.0244,-0.03416,-0.02684,-0.01952,0.00244,-0.01952,-0.03416,-0.00976,-0.00976,-0.02928,0.01464
-0.02928,0.0488,-0.06832,-0.05368,-0.03904,0.00488,0.00488,-0.00488,0,0,-0.02928,0
-0.02928,0.05612,-0.08296,-0.06832,-0.05368,0.0122,0.02928,0.03904,0.00976,-0.01464,-0.0488,-0.00976
-0.03904,0.06344,-0.08784,-0.06832,-0.0488,0.00488,0.07808,0.08296,0.03416,0.01464,-0.01952,0.01464
0.0244,0.02684,-0.07808,-0.09028,-0.10248,0.06344,0.10736,0.20008,0.08784,0.0488,0.01464,0.03904
0.07808,-0.0122,-0.05368,-0.09272,-0.13176,0.10492,0.20008,0.42456,0.22448,0.16104,0.11712,0.10736
0.27328,-0.18056,0.08784,-0.0488,-0.18544,0.22936,0.1952,0.63928,0.38064,0.32696,0.27816,0.24888
0.49776,-0.38308,0.2684,0.01952,-0.22936,0.36356,0.03904,0.61976,0.4636,0.45384,0.40016,0.4148
0.64904,-0.5734,0.49776,0.17324,-0.15128,0.40016,-0.20496,0.29768,0.39528,0.44408,0.4636,0.54168
0.72712,-0.69052,0.65392,0.29036,-0.0732,0.40016,-0.47336,-0.07808,0.19032,0.35624,0.44896,0.58072
0.6588,-0.68808,0.71736,0.38796,0.05856,0.30012,-0.5856,-0.2928,0.05368,0.27328,0.35624,0.60512
0.5124,-0.58804,0.66368,0.40748,0.15128,0.18056,-0.5124,-0.37576,-0.07808,0.14152,0.28792,0.5612
0.3172,-0.37576,0.43432,0.27572,0.11712,0.10004,-0.39528,-0.40504,-0.22448,-0.0488,0.08784,0.37576
0.08296,-0.11956,0.15616,0.11468,0.0732,0.00488,-0.28304,-0.49776,-0.3904,-0.26352,-0.16104,0.08296
-0.08296,0.02196,0.03904,0.08052,0.122,-0.10248,-0.2684,-0.61976,-0.4148,-0.29768,-0.22448,-0.0488
-0.0732,0.02684,0.01952,0.05612,0.09272,-0.08296,-0.29768,-0.55144,-0.37576,-0.27816,-0.23912,-0.07808
-0.06344,0.01708,0.02928,0.061,0.09272,-0.07808,-0.18544,-0.37088,-0.29768,-0.22936,-0.18544,-0.04392
-0.0244,0,0.0244,0.0366,0.0488,-0.0366,-0.11712,-0.21472,-0.17568,-0.1464,-0.13664,-0.0244
-0.03904,0.01464,0.00976,0.02928,0.0488,-0.04392,-0.09272,-0.15128,-0.10248,-0.06344,-0.08296,-0.00488
-0.02928,0.02684,-0.0244,-0.00976,0.00488,-0.01708,-0.07808,-0.13176,-0.08784,-0.05368,-0.05856,0.00488
-0.02928,0.02928,-0.02928,-0.01464,0,-0.01464,-0.05856,-0.0976,-0.07808,-0.05368,-0.0488,0.00488
-0.0488,0.04148,-0.03416,-0.00976,0.01464,-0.03172,-0.03416,-0.0732,-0.06344,-0.0488,-0.06344,-0.0244
-0.05368,0.04636,-0.03904,-0.0122,0.01464,-0.03416,-0.00976,-0.05368,-0.03904,-0.0244,-0.05368,-0.01464
-0.0488,0.04392,-0.03904,-0.01464,0.00976,-0.02928,-0.01464,-0.05856,-0.03904,-0.0244,-0.05368,-0.00488
-0.05368,0.0488,-0.04392,-0.01708,0.00976,-0.03172,-0.01952,-0.05856,-0.05368,-0.04392,-0.0488,-0.00976
-0.06832,0.061,-0.05368,-0.01952,0.01464,-0.04148,-0.00976,-0.04392,-0.0488,-0.03904,-0.05368,-0.00976
-0.06832,0.061,-0.05368,-0.01952,0.01464,-0.04148,0,-0.03904,-0.03416,-0.0244,-0.04392,-0.00976
-0.05856,0.05368,-0.0488,-0.01952,0.00976,-0.03416,0,-0.03904,-0.03416,-0.0244,-0.03904,-0.00488
-0.05856,0.05368,-0.0488,-0.01952,0.00976,-0.03416,-0.00488,-0.0488,-0.03416,-0.0244,-0.0488,-0.00976
-0.06344,0.05612,-0.0488,-0.01708,0.01464,-0.03904,-0.00488,-0.03904,-0.03416,-0.0244,-0.0488,-0.01464
-0.05368,0.05368,-0.05368,-0.02684,0,-0.02684,-0.00976,-0.03904,-0.02928,-0.0244,-0.04392,-0.01464
-0.0488,0.05368,-0.05856,-0.03416,-0.00976,-0.01952,-0.00976,-0.03904,-0.03416,-0.01952,-0.03904,-0.00976
-0.0488,0.05124,-0.05368,-0.02928,-0.00488,-0.02196,0.00488,-0.02928,-0.03416,-0.02928,-0.0488,-0.00976
-0.04392,0.0488,-0.05368,-0.03172,-0.00976,-0.01708,0.00488,-0.02928,-0.03416,-0.02928,-0.0488,-0.00488
-0.05368,0.05124,-0.0488,-0.02196,0.00488,-0.02928,0.00488,-0.0244,-0.01464,-0.01952,-0.03904,-0.00976
-0.05368,0.04636,-0.03904,-0.0122,0.01464,-0.03416,0.00488,-0.0244,-0.01464,-0.00976,-0.02928,-0.00976
-0.04392,0.04636,-0.0488,-0.02684,-0.00488,-0.01952,0,-0.03416,-0.01952,-0.01464,-0.03904,-0.01952
-0.0488,0.0488,-0.0488,-0.0244,0,-0.0244,0,-0.03416,-0.02928,-0.02928,-0.0488,-0.01952
-0.05856,0.05612,-0.05368,-0.0244,0.00488,-0.03172,0.00976,-0.03416,-0.03416,-0.03416,-0.05368,-0.0244
-0.06832,0.061,-0.05368,-0.01952,0.01464,-0.04148,0.00976,-0.03416,-0.03416,-0.03416,-0.05368,-0.0244
-0.05856,0.05856,-0.05856,-0.02928,0,-0.02928,0.00976,-0.01952,-0.0244,-0.02928,-0.0488,-0.0244
-0.0488,0.05124,-0.05368,-0.02928,-0.00488,-0.02196,0.00976,-0.01952,-0.01952,-0.01952,-0.03904,-0.02928
-0.05368,0.05368,-0.05368,-0.02684,0,-0.02684,0,-0.02928,-0.01952,-0.01464,-0.03904,-0.02928
-0.0488,0.05124,-0.05368,-0.02928,-0.00488,-0.02196,0,-0.02928,-0.01952,-0.01464,-0.04392,-0.02928
-0.0488,0.0488,-0.0488,-0.0244,0,-0.0244,0.00488,-0.02928,-0.02928,-0.01952,-0.03904,-0.02928
-0.04392,0.04392,-0.04392,-0.02196,0,-0.02196,0,-0.02928,-0.02928,-0.0244,-0.03904,-0.02928
-0.05368,0.05124,-0.0488,-0.02196,0.00488,-0.02928,0,-0.03416,-0.02928,-0.0244,-0.03416,-0.0244
-0.06344,0.05612,-0.0488,-0.01708,0.01464,-0.03904,0.00488,-0.03416,-0.02928,-0.0244,-0.02928,-0.0244
-0.05368,0.04148,-0.02928,-0.00244,0.0244,-0.03904,0.00488,-0.03416,-0.02928,-0.01952,-0.02928,-0.01952
-0.05856,0.0488,-0.03904,-0.00976,0.01952,-0.03904,0.00488,-0.03416,-0.02928,-0.0244,-0.02928,-0.0244
-0.04392,0.0366,-0.02928,-0.00732,0.01464,-0.02928,0.00976,-0.0244,-0.02928,-0.01464,-0.01952,-0.0244
-0.03416,0.03172,-0.02928,-0.0122,0.00488,-0.01952,0.00976,-0.0244,-0.01464,-0.00976,-0.01952,-0.01952
-0.03904,0.0366,-0.03416,-0.01464,0.00488,-0.02196,0.00976,-0.0244,-0.01464,-0.01952,-0.03416,-0.02928
-0.05856,0.05124,-0.04392,-0.01464,0.01464,-0.0366,0.00976,-0.0244,-0.0244,-0.01952,-0.02928,-0.02928
-0.05368,0.05124,-0.0488,-0.02196,0.00488,-0.02928,0,-0.02928,-0.0244,-0.0244,-0.03904,-0.04392
-0.0488,0.0488,-0.0488,-0.0244,0,-0.0244,0,-0.02928,-0.0244,-0.0244,-0.03416,-0.03416
-0.0488,0.05124,-0.05368,-0.02928,-0.00488,-0.02196,0.00488,-0.01464,-0.01464,-0.0244,-0.03416,-0.03416
-0.05368,0.05124,-0.0488,-0.02196,0.00488,-0.02928,0,-0.01952,-0.01952,-0.0244,-0.03904,-0.03416
-0.0488,0.03904,-0.02928,-0.00488,0.01952,-0.03416,0.00976,-0.01464,-0.01464,-0.00976,-0.0244,-0.03416
-0.03904,0.03416,-0.02928,-0.00976,0.00976,-0.0244,0.00976,-0.01464,-0.01464,-0.00976,-0.0244,-0.02928
-0.0244,0.02684,-0.02928,-0.01708,-0.00488,-0.00976,0,-0.01464,0.00488,-0.00488,-0.00976,-0.02928
-0.01952,0.01952,-0.01952,-0.00976,0,-0.00976,0,-0.00976,0.00488,0.00488,-0.00488,-0.0244
-0.01952,0.01708,-0.01464,-0.00488,0.00488,-0.0122,0,-0.01464,0,0.00976,-0.01952,-0.02928
-0.01952,0.01464,-0.00976,0,0.00976,-0.01464,0,-0.00976,-0.00488,0.00488,-0.0244,-0.02928
-0.0244,0.01708,-0.00976,0.00244,0.01464,-0.01952,-0.00488,0.00488,-0.00488,0,-0.01952,-0.01952
-0.03416,0.02196,-0.00976,0.00732,0.0244,-0.02928,-0.00488,0.00488,0.00488,0.00976,-0.01464,-0.01464
-0.03416,0.01708,0,0.01708,0.03416,-0.03416,0,0.00488,0.00488,0.00976,-0.00488,-0.00976
-0.03416,0.01464,0.00488,0.02196,0.03904,-0.0366,0.00488,0.00488,0.00976,0.01464,0,-0.00488
-0.01952,0.00976,0,0.00976,0.01952,-0.01952,0,0.0244,0.01464,0.0244,0,0
-0.01952,0.00732,0.00488,0.01464,0.0244,-0.02196,0,0.0244,0.0244,0.02928,0.00488,-0.00488
-0.02928,0.0122,0.00488,0.01952,0.03416,-0.03172,0,0.01952,0.0244,0.01952,0.01952,0.00488
-0.01952,0.00244,0.01464,0.0244,0.03416,-0.02684,0,0.0244,0.0244,0.0244,0.0244,0
-0.00976,-0.00244,0.01464,0.01952,0.0244,-0.01708,0,0.02928,0.02928,0.03904,0.01464,-0.00488
-0.01464,-0.00732,0.02928,0.0366,0.04392,-0.02928,0,0.02928,0.02928,0.03904,0.01464,0.00488
-0.00976,-0.01464,0.03904,0.04392,0.0488,-0.02928,-0.00976,0.03416,0.02928,0.02928,0.01952,0.01952
-0.01464,-0.0122,0.03904,0.04636,0.05368,-0.03416,-0.00976,0.02928,0.03416,0.03904,0.02928,0.01952
-0.00488,-0.0244,0.05368,0.05612,0.05856,-0.03172,-0.01952,0.0244,0.02928,0.02928,0.02928,0.0244
0,-0.02684,0.05368,0.05368,0.05368,-0.02684,-0.0244,0.0244,0.02928,0.03416,0.03416,0.0244
0.00976,-0.03416,0.05856,0.05368,0.0488,-0.01952,-0.00976,0.02928,0.02928,0.04392,0.0488,0.03416
0.01952,-0.03904,0.05856,0.0488,0.03904,-0.00976,-0.01464,0.03416,0.04392,0.05368,0.0488,0.03416
0.00976,-0.0366,0.06344,0.05856,0.05368,-0.02196,-0.01952,0.01952,0.0488,0.05856,0.04392,0.03416
0.01464,-0.04148,0.06832,0.061,0.05368,-0.01952,-0.01952,0.01952,0.03904,0.05856,0.03416,0.03416
0.01464,-0.0366,0.05856,0.05124,0.04392,-0.01464,-0.0244,0.02928,0.02928,0.04392,0.0488,0.03904
0.01464,-0.03416,0.05368,0.04636,0.03904,-0.0122,-0.0244,0.02928,0.03416,0.04392,0.0488,0.03904
0.01952,-0.03172,0.04392,0.03416,0.0244,-0.00244,-0.0244,0.03904,0.04392,0.04392,0.0488,0.0244
0.0244,-0.03416,0.04392,0.03172,0.01952,0.00244,-0.01952,0.03904,0.03904,0.04392,0.04392,0.02928
0.01952,-0.03172,0.04392,0.03416,0.0244,-0.00244,-0.00488,0.03904,0.04392,0.05368,0.04392,0.01952
0,-0.01708,0.03416,0.03416,0.03416,-0.01708,-0.00488,0.03904,0.04392,0.05856,0.03904,0.00976
0,-0.01952,0.03904,0.03904,0.03904,-0.01952,-0.00976,0.0244,0.03416,0.0488,0.02928,0.00488
0.00976,-0.01952,0.02928,0.0244,0.01952,-0.00488,-0.00976,0.01464,0.0244,0.03416,0.01952,0
0.01952,-0.0244,0.02928,0.01952,0.00976,0.00488,0,0.02928,0.0244,0.01952,0.0244,-0.00488
0.01952,-0.01708,0.01464,0.00488,-0.00488,0.0122,0.00488,0.01952,0.01952,0.01464,0.01464,-0.00488
0.01464,-0.00976,0.00488,-0.00244,-0.00976,0.0122,0.00488,0.01952,0.0244,0.03416,0.01464,-0.00976
-0.00488,0,0.00488,0.00732,0.00976,-0.00732,0.00976,0.01952,0.02928,0.03904,0.01952,-0.00976
-0.00976,0.00732,-0.00488,0,0.00488,-0.00732,0,0.00976,0.01464,0.02928,0.00488,-0.0244
-0.00976,0.00976,-0.00976,-0.00488,0,-0.00488,0.00488,0,0.00976,0.01464,0,-0.0244
-0.01464,0.00976,-0.00488,0.00244,0.00976,-0.0122,0.00488,-0.00488,-0.00488,0.00976,0.00488,-0.03904
-0.01464,0.01464,-0.01464,-0.00732,0,-0.00732,0.00488,-0.00488,-0.00488,0.00976,0,-0.03904
-0.00488,0.00488,-0.00488,-0.00244,0,-0.00244,0.00976,-0.01464,0.00488,0.00976,0,-0.03416
-0.00976,0.00976,-0.00976,-0.00488,0,-0.00488,0.00976,-0.01952,0.00488,0.00976,0,-0.02928
-0.01464,0.0122,-0.00976,-0.00244,0.00488,-0.00976,0,-0.01952,0.00488,0.00976,-0.00976,-0.01952
-0.01464,0.0122,-0.00976,-0.00244,0.00488,-0.00976,0,-0.01952,0.00488,0.00976,-0.00488,-0.01952
-0.01952,0.01464,-0.00976,0,0.00976,-0.01464,0,-0.0244,0.00976,0.00488,0,-0.0244
-0.01464,0.00976,-0.00488,0.00244,0.00976,-0.0122,0,-0.0244,0.00488,0.00488,-0.00488,-0.03416
-0.00488,0.00488,-0.00488,-0.00244,0,-0.00244,0.00976,-0.01952,0.00488,0.00976,-0.00488,-0.02928
-0.00976,0.00244,0.00488,0.00976,0.01464,-0.0122,0.00976,-0.01952,0.00488,0.01464,-0.00488,-0.02928
-0.0244,0.01708,-0.00976,0.00244,0.01464,-0.01952,0,-0.01952,0,0.00488,-0.00488,-0.02928
-0.0244,0.01708,-0.00976,0.00244,0.01464,-0.01952,0,-0.01952,0,0.00488,-0.00488,-0.03416
-0.0244,0.01952,-0.01464,-0.00244,0.00976,-0.01708,0,-0.02928,-0.00976,-0.00488,-0.01464,-0.03904
-0.02928,0.0244,-0.01952,-0.00488,0.00976,-0.01952,0,-0.02928,-0.01464,-0.00488,-0.01464,-0.03904
-0.01952,0.02196,-0.0244,-0.01464,-0.00488,-0.00732,0,-0.01464,-0.00976,-0.00976,-0.01464,-0.03904
-0.01464,0.01952,-0.0244,-0.01708,-0.00976,-0.00244,0,-0.01464,-0.00976,-0.00976,-0.00976,-0.0488
-0.0244,0.02196,-0.01952,-0.00732,0.00488,-0.01464,0,-0.01464,0,-0.00976,-0.00488,-0.05856
-0.01464,0.0122,-0.00976,-0.00244,0.00488,-0.00976,0,-0.01464,0,0,0,-0.05856
-0.0244,0.01952,-0.01464,-0.00244,0.00976,-0.01708,0.01464,-0.01952,0.00976,0,0.00488,-0.05368
-0.0244,0.01952,-0.01464,-0.00244,0.00976,-0.01708,0.01464,-0.01952,0.01464,0.00488,0.00488,-0.05368
-0.0244,0.01708,-0.00976,0.00244,0.01464,-0.01952,0.00488,-0.01952,0.01464,0.00488,-0.00488,-0.04392
-0.01952,0.01464,-0.00976,0,0.00976,-0.01464,0.00488,-0.01952,0.00488,0.00488,-0.00488,-0.04392
-0.01464,0.01464,-0.01464,-0.00732,0,-0.00732,0.01464,-0.01952,0,0.00976,0,-0.03904
-0.00488,0.00976,-0.01464,-0.0122,-0.00976,0.00244,0.01464,-0.01952,0,0.00488,0.00976,-0.03904
0,0.00244,-0.00488,-0.00488,-0.00488,0.00244,0.00488,-0.01464,0.00488,0.01952,0.01464,-0.03904
-0.00488,0.00488,-0.00488,-0.00244,0,-0.00244,0.00488,-0.00976,0.01464,0.01952,0.00488,-0.04392
0.00976,-0.00732,0.00488,0,-0.00488,0.00732,0.00488,-0.00976,0.00976,0.01464,0.00488,-0.03904
0.00976,-0.00976,0.00976,0.00488,0,0.00488,0.00488,-0.00976,0.00976,0.01464,0.00976,-0.03904
-0.00488,0.00244,0,0.00244,0.00488,-0.00488,0.00488,-0.00976,0.01952,0.01464,0.00976,-0.03416
-0.00488,0.00244,0,0.00244,0.00488,-0.00488,0.00488,-0.00976,0.01952,0.00488,0.00976,-0.04392
-0.01464,0.0122,-0.00976,-0.00244,0.00488,-0.00976,0.01464,-0.00976,0.0244,0.00488,0.01464,-0.03904
-0.01952,0.01464,-0.00976,0,0.00976,-0.01464,0.00976,-0.00976,0.01464,0.00976,0.01464,-0.03416
-0.00976,0.00976,-0.00976,-0.00488,0,-0.00488,0.00488,-0.00976,0.01952,0.01464,0.01464,-0.0488
-0.00488,0.00488,-0.00488,-0.00244,0,-0.00244,0.00488,-0.00976,0.01952,0.01464,0.01952,-0.04392
-0.01464,0.00976,-0.00488,0.00244,0.00976,-0.0122,0.00488,-0.00488,0.01464,0.00976,0.01464,-0.04392
-0.01464,0.01464,-0.01464,-0.00732,0,-0.00732,0.00488,-0.00488,0.00976,0.01464,0.01464,-0.04392
-0.00976,0.00976,-0.00976,-0.00488,0,-0.00488,0.00488,-0.00488,0.01464,0.01464,0.01464,-0.03904
-0.00976,0.00976,-0.00976,-0.00488,0,-0.00488,0.00488,-0.00488,0.01464,0.01464,0.00976,-0.03904
-0.00488,0.00488,-0.00488,-0.00244,0,-0.00244,0.01464,0.00488,0.01464,0.00976,0.00976,-0.03904
-0.00488,0.00488,-0.00488,-0.00244,0,-0.00244,0.00976,0.00488,0.00976,0.00976,0.00488,-0.0488
-0.01952,0.01708,-0.01464,-0.00488,0.00488,-0.0122,0.00488,-0.00976,0.00976,0.00976,0.00976,-0.05368
-0.01952,0.02196,-0.0244,-0.01464,-0.00488,-0.00732,0,-0.01464,0.00488,0.00488,0.00488,-0.05856
-0.01464,0.01952,-0.0244,-0.01708,-0.00976,-0.00244,0,-0.00976,0.01464,0.01464,0.00488,-0.05856
-0.01464,0.01464,-0.01464,-0.00732,0,-0.00732,0,-0.01952,0.01464,0.01464,0.00488,-0.06344
-0.00976,0.00976,-0.00976,-0.00488,0,-0.00488,0.00488,-0.01464,0.00488,0.00488,0.00488,-0.06344
-0.00976,0.0122,-0.01464,-0.00976,-0.00488,-0.00244,0.00488,-0.01464,0.00976,0.00488,0.00488,-0.06344
-0.00976,0.01464,-0.01952,-0.01464,-0.00976,0,0,-0.01464,0.00976,0.00976,0.00976,-0.06832
-0.00976,0.01464,-0.01952,-0.01464,-0.00976,0,0,-0.01464,0.00488,0.01464,0.01464,-0.06344
0,0.00488,-0.00976,-0.00976,-0.00976,0.00488,0.00976,-0.0244,0.00488,0.02928,0.01952,-0.06344
-0.00488,0.00976,-0.01464,-0.0122,-0.00976,0.00244,0.00488,-0.01952,0.01952,0.02928,0.01952,-0.06832
-0.0244,0.01952,-0.01464,-0.00244,0.00976,-0.01708,0,-0.01464,0.01952,0.01464,0.01464,-0.07808
-0.0244,0.01952,-0.01464,-0.00244,0.00976,-0.01708,0,-0.01952,0.00976,0.00488,0.00976,-0.07808
-0.01952,0.01708,-0.01464,-0.00488,0.00488,-0.0122,0,-0.0244,0,0,0,-0.07808
-0.00976,0.01464,-0.01952,-0.01464,-0.00976,0,0,-0.01952,0.00488,0,0,-0.07808
-0.00488,0.01708,-0.02928,-0.02684,-0.0244,0.00976,0,-0.0244,0,-0.00976,0,-0.08784
-0.00976,0.01952,-0.02928,-0.0244,-0.01952,0.00488,0,-0.0244,-0.00976,-0.00976,0,-0.08784
-0.0244,0.0244,-0.0244,-0.0122,0,-0.0122,0.00976,-0.01464,-0.00976,-0.00976,0.00976,-0.08784
-0.0244,0.0244,-0.0244,-0.0122,0,-0.0122,0.00976,-0.01952,0.00488,0.00488,0.00976,-0.07808
-0.01952,0.01952,-0.01952,-0.00976,0,-0.00976,0.00488,-0.02928,0.00488,0.00488,-0.00488,-0.07808
-0.00976,0.01464,-0.01952,-0.01464,-0.00976,0,0.00488,-0.02928,0.00488,0,-0.00488,-0.07808
-0.00488,0.01952,-0.03416,-0.03172,-0.02928,0.0122,0.00488,-0.01952,-0.00488,-0.00976,0,-0.07808
-0.01952,0.02684,-0.03416,-0.0244,-0.01464,-0.00244,0.00976,-0.0244,-0.00488,0,0,-0.07808
-0.0244,0.02684,-0.02928,-0.01708,-0.00488,-0.00976,0,-0.0244,-0.00488,0,0,-0.08296
-0.01952,0.0244,-0.02928,-0.01952,-0.00976,-0.00488,0,-0.0244,-0.00976,0,0,-0.08784
-0.0244,0.02684,-0.02928,-0.01708,-0.00488,-0.00976,0,-0.02928,-0.00976,-0.01464,-0.00976,-0.0976
-0.01952,0.02684,-0.03416,-0.0244,-0.01464,-0.00244,-0.00488,-0.03416,-0.00976,-0.01464,-0.00976,-0.0976
-0.01952,0.02684,-0.03416,-0.0244,-0.01464,-0.00244,0.00488,-0.0244,0.00488,-0.00488,-0.00488,-0.10736
-0.02928,0.02928,-0.02928,-0.01464,0,-0.01464,0.00488,-0.02928,0.00488,0.00488,0.00976,-0.10248
-0.01952,0.0244,-0.02928,-0.01952,-0.00976,-0.00488,0.00488,-0.02928,0.00488,0,0,-0.10736
-0.01464,0.0244,-0.03416,-0.02684,-0.01952,0.00244,0.00488,-0.0244,0,0,-0.01464,-0.10736
-0.00976,0.01708,-0.0244,-0.01952,-0.01464,0.00244,-0.00488,-0.0244,-0.01464,-0.00976,-0.01464,-0.09272
-0.01952,0.02196,-0.0244,-0.01464,-0.00488,-0.00732,-0.00488,-0.0244,-0.01952,-0.01464,-0.00488,-0.09272
-0.0244,0.0244,-0.0244,-0.0122,0,-0.0122,0.00488,-0.0244,0,0,0,-0.10736
-0.0244,0.02684,-0.02928,-0.01708,-0.00488,-0.00976,0.00488,-0.0244,0,0,-0.00488,-0.11224
-0.01952,0.02196,-0.0244,-0.01464,-0.00488,-0.00732,0.00488,-0.0244,-0.00976,-0.01464,-0.01952,-0.0976
-0.00976,0.01708,-0.0244,-0.01952,-0.01464,0.00244,0.00488,-0.0244,-0.00976,-0.01464,-0.01464,-0.11224
-0.00488,0.01952,-0.03416,-0.03172,-0.02928,0.0122,0.00488,-0.02928,-0.00976,-0.00976,0.00488,-0.11712
-0.00488,0.01952,-0.03416,-0.03172,-0.02928,0.0122,0.00976,-0.02928,-0.00488,-0.00488,0,-0.10736
-0.01464,0.0244,-0.03416,-0.02684,-0.01952,0.00244,0.00976,-0.01952,-0.00488,0,0,-0.10736
-0.01952,0.02684,-0.03416,-0.0244,-0.01464,-0.00244,0.00488,-0.01952,-0.01464,-0.00488,-0.00488,-0.11224
-0.02928,0.03416,-0.03904,-0.0244,-0.00976,-0.00976,0,-0.0244,-0.00488,-0.00488,-0.00488,-0.11712
-0.0244,0.02928,-0.03416,-0.02196,-0.00976,-0.00732,0,-0.0244,-0.00488,-0.00488,-0.00488,-0.11712
-0.01464,0.01952,-0.0244,-0.01708,-0.00976,-0.00244,-0.00488,-0.03416,-0.00976,-0.01952,-0.00976,-0.12688
-0.01464,0.01952,-0.0244,-0.01708,-0.00976,-0.00244,-0.00488,-0.0244,-0.01464,-0.0244,-0.01952,-0.12688
0.00488,0.0122,-0.02928,-0.03172,-0.03416,0.01952,0.00488,-0.01464,-0.01952,-0.02928,-0.01464,-0.11712
-0.00976,0.02196,-0.03416,-0.02928,-0.0244,0.00732,0.00488,-0.01952,-0.01952,-0.01952,-0.01464,-0.122
-0.00976,0.01708,-0.0244,-0.01952,-0.01464,0.00244,0.00488,-0.02928,-0.00976,-0.01464,-0.00488,-0.122
-0.01952,0.0244,-0.02928,-0.01952,-0.00976,-0.00488,0.00488,-0.02928,-0.00976,-0.01464,-0.00976,-0.122
-0.02928,0.03172,-0.03416,-0.01952,-0.00488,-0.0122,0.00488,-0.0244,-0.00488,-0.00488,-0.00488,-0.12688
-0.03904,0.04148,-0.04392,-0.0244,-0.00488,-0.01708,0.00488,-0.0244,-0.00488,0,0,-0.13176
-0.02928,0.03172,-0.03416,-0.01952,-0.00488,-0.0122,0.01464,-0.0244,0,0,0.00488,-0.13664
-0.0488,0.05368,-0.05856,-0.03416,-0.00976,-0.01952,0.00976,-0.02928,0,0,-0.00976,-0.13664
-0.02928,0.03904,-0.0488,-0.03416,-0.01952,-0.00488,0,-0.01952,-0.00976,-0.00976,-0.00976,-0.12688
-0.01952,0.02928,-0.03904,-0.02928,-0.01952,0,0,-0.01952,-0.00976,-0.00976,-0.00976,-0.11712
-0.01952,0.02928,-0.03904,-0.02928,-0.01952,0,-0.00488,-0.03416,-0.00976,-0.01952,-0.00976,-0.12688
-0.00976,0.0244,-0.03904,-0.03416,-0.02928,0.00976,0,-0.03416,-0.00976,-0.01952,-0.00976,-0.13664
-0.00976,0.0244,-0.03904,-0.03416,-0.02928,0.00976,0,-0.02928,-0.01952,-0.01952,-0.00488,-0.13176
-0.00976,0.0244,-0.03904,-0.03416,-0.02928,0.00976,0,-0.02928,-0.01952,-0.00976,-0.00488,-0.13176
-0.01952,0.0244,-0.02928,-0.01952,-0.00976,-0.00488,0.00976,-0.01952,-0.00976,-0.00976,-0.00488,-0.122
-0.01952,0.02928,-0.03904,-0.02928,-0.01952,0,0.01464,-0.01952,-0.00976,-0.00976,-0.00488,-0.11712
-0.02928,0.03172,-0.03416,-0.01952,-0.00488,-0.0122,0.01464,-0.01952,-0.00488,0,0.01464,-0.122
-0.02928,0.02196,-0.01464,0,0.01464,-0.02196,0.01464,-0.01464,0.00488,0.01464,0.01464,-0.122
-0.01952,0.01708,-0.01464,-0.00488,0.00488,-0.0122,0.00976,-0.0244,0.00488,0.00488,0.01464,-0.11224
-0.00488,0,0.00488,0.00732,0.00976,-0.00732,0.01952,-0.01952,0.01464,0.00976,0.00488,-0.11224
-0.0244,0.00732,0.00976,0.02196,0.03416,-0.02928,0.0244,-0.01464,0.03416,0.00976,0.01464,-0.0976
-0.02928,0.00976,0.00976,0.0244,0.03904,-0.03416,0.03904,-0.00488,0.03904,0.0244,0.01952,-0.09272
-0.02928,0.01464,0,0.01464,0.02928,-0.02928,0.05368,0,0.02928,0.0244,0.01952,-0.10736
-0.01952,0.00732,0.00488,0.01464,0.0244,-0.02196,0.05856,0.00488,0.03416,0.02928,0.03416,-0.10736
-0.00488,-0.00244,0.00976,0.0122,0.01464,-0.00976,0.06344,0,0.05368,0.0488,0.05368,-0.10248
0.00488,-0.00732,0.00976,0.00732,0.00488,0,0.05368,0.00488,0.0488,0.05368,0.0488,-0.10248
0.00976,-0.02196,0.03416,0.02928,0.0244,-0.00732,0.03416,0.00488,0.03904,0.03904,0.03904,-0.09272
0.00976,-0.02196,0.03416,0.02928,0.0244,-0.00732,0.01952,0.00488,0.02928,0.02928,0.03416,-0.09272
0,-0.01708,0.03416,0.03416,0.03416,-0.01708,0.00976,-0.01464,0.02928,0.01952,0.0244,-0.09272
0.00488,-0.01952,0.03416,0.03172,0.02928,-0.0122,-0.01464,-0.03416,0.00976,0.00488,0.0244,-0.10248
0.01464,-0.0244,0.03416,0.02684,0.01952,-0.00244,-0.03416,-0.0488,-0.00488,0.00488,0.01464,-0.11224
0.03416,-0.0366,0.03904,0.02196,0.00488,0.01464,-0.03904,-0.0488,-0.00488,0.00976,0.01464,-0.11224
0.03416,-0.04392,0.05368,0.0366,0.01952,0.00732,-0.04392,-0.03904,-0.00488,0,0.0244,-0.11224
0.03416,-0.03416,0.03416,0.01708,0,0.01708,-0.04392,-0.03904,-0.01464,-0.00976,0.01464,-0.11224
0.03416,-0.01708,0,-0.01708,-0.03416,0.03416,-0.04392,-0.03416,-0.01464,-0.01464,-0.00976,-0.12688
0.02928,-0.00488,-0.01952,-0.03416,-0.0488,0.03904,-0.0488,-0.04392,-0.0244,-0.01952,-0.01464,-0.13664
0.01952,0.00732,-0.03416,-0.04392,-0.05368,0.0366,-0.05368,-0.06344,-0.0488,-0.04392,-0.02928,-0.15128
0.00976,0.01708,-0.04392,-0.0488,-0.05368,0.03172,-0.05368,-0.06344,-0.05368,-0.05368,-0.03416,-0.15128
0.01464,0.00976,-0.03416,-0.04148,-0.0488,0.03172,-0.04392,-0.0732,-0.05856,-0.0488,-0.03416,-0.15616
0,0.0122,-0.0244,-0.0244,-0.0244,0.0122,-0.03416,-0.05856,-0.0488,-0.03416,-0.02928,-0.15128
-0.0244,0.02928,-0.03416,-0.02196,-0.00976,-0.00732,-0.02928,-0.0488,-0.02928,-0.0244,-0.01952,-0.14152
-0.02928,0.0366,-0.04392,-0.02928,-0.01464,-0.00732,-0.01952,-0.04392,-0.01952,-0.01952,-0.00976,-0.14152
-0.0244,0.0488,-0.0732,-0.061,-0.0488,0.0122,-0.01952,-0.04392,-0.01952,-0.02928,-0.02928,-0.15616
-0.0244,0.05368,-0.08296,-0.07076,-0.05856,0.01708,-0.01952,-0.05368,-0.02928,-0.03416,-0.03416,-0.16104
-0.0244,0.05124,-0.07808,-0.06588,-0.05368,0.01464,-0.01952,-0.06344,-0.04392,-0.03416,-0.03904,-0.1708
-0.01952,0.04636,-0.0732,-0.06344,-0.05368,0.01708,-0.01952,-0.05856,-0.04392,-0.03416,-0.03904,-0.1708
-0.0244,0.05124,-0.07808,-0.06588,-0.05368,0.01464,-0.00976,-0.05856,-0.03904,-0.04392,-0.03904,-0.1708
-0.0244,0.05124,-0.07808,-0.06588,-0.05368,0.01464,-0.00976,-0.05856,-0.03904,-0.04392,-0.03904,-0.1708
-0.03416,0.06344,-0.09272,-0.07564,-0.05856,0.0122,-0.01952,-0.0488,-0.03904,-0.03416,-0.02928,-0.18544
-0.04392,0.07076,-0.0976,-0.07564,-0.05368,0.00488,-0.01464,-0.04392,-0.03904,-0.0244,-0.02928,-0.18056
-0.03416,0.05612,-0.07808,-0.061,-0.04392,0.00488,0,-0.04392,-0.03904,-0.03416,-0.03416,-0.16592
-0.0244,0.04148,-0.05856,-0.04636,-0.03416,0.00488,0,-0.04392,-0.0488,-0.0488,-0.04392,-0.15616
-0.04392,0.05856,-0.0732,-0.05124,-0.02928,-0.00732,0,-0.04392,-0.05856,-0.05856,-0.0488,-0.15128
-0.0488,0.05856,-0.06832,-0.04392,-0.01952,-0.01464,0.01464,-0.0244,-0.03904,-0.0488,-0.02928,-0.1464
-0.03904,0.07076,-0.10248,-0.08296,-0.06344,0.0122,0.02928,0,-0.01952,-0.03416,-0.03904,-0.18544
-0.0488,0.0732,-0.0976,-0.0732,-0.0488,0,0.06832,0.05368,0.03416,0.00488,-0.00976,-0.1708
0.00488,0.04636,-0.0976,-0.10004,-0.10248,0.05368,0.11712,0.18056,0.06832,0.02928,0.0244,-0.11712
0.08784,-0.0122,-0.06344,-0.10736,-0.15128,0.11956,0.19032,0.38552,0.20496,0.16104,0.12688,-0.0488
0.22448,-0.14152,0.05856,-0.05368,-0.16592,0.1952,0.18544,0.60024,0.3904,0.34648,0.3172,0.11224
0.45872,-0.35868,0.25864,0.02928,-0.20008,0.3294,0.03904,0.58072,0.48312,0.45384,0.45872,0.2684
0.61,-0.53924,0.46848,0.16348,-0.14152,0.37576,-0.20496,0.2684,0.38552,0.43432,0.48312,0.37576
0.68808,-0.66612,0.64416,0.30012,-0.04392,0.366,-0.4636,-0.07808,0.18056,0.32696,0.4392,0.47336
0.60024,-0.66368,0.72712,0.427,0.12688,0.23668,-0.56608,-0.32208,0.03416,0.27328,0.4148,0.49776
0.44408,-0.55388,0.66368,0.44164,0.2196,0.11224,-0.50264,-0.39528,-0.0488,0.1708,0.35624,0.44408
0.2684,-0.35136,0.43432,0.30012,0.16592,0.05124,-0.37576,-0.4148,-0.1952,-0.00976,0.16592,0.25864
0.09272,-0.12444,0.15616,0.1098,0.06344,0.01464,-0.28304,-0.50752,-0.38064,-0.244,-0.13176,-0.0732
-0.06344,0.01708,0.02928,0.061,0.09272,-0.07808,-0.27816,-0.63928,-0.44408,-0.32696,-0.244,-0.21472
-0.08296,0.0366,0.00976,0.05124,0.09272,-0.08784,-0.28792,-0.59048,-0.40504,-0.30744,-0.22936,-0.22448
-0.0732,0.03172,0.00976,0.04636,0.08296,-0.07808,-0.18544,-0.3904,-0.29768,-0.24888,-0.16592,-0.19032
-0.06344,0.0244,0.01464,0.04636,0.07808,-0.07076,-0.10736,-0.23424,-0.17568,-0.13664,-0.10736,-0.16104
-0.03904,0.01464,0.00976,0.02928,0.0488,-0.04392,-0.09272,-0.19032,-0.09272,-0.0732,-0.05368,-0.15128
-0.02928,0.02684,-0.0244,-0.00976,0.00488,-0.01708,-0.06832,-0.16104,-0.10736,-0.0732,-0.0488,-0.15128
-0.01952,0.02928,-0.03904,-0.02928,-0.01952,0,-0.05856,-0.13664,-0.10736,-0.08296,-0.0488,-0.16104
-0.0488,0.04148,-0.03416,-0.00976,0.01464,-0.03172,-0.01464,-0.0732,-0.06344,-0.0488,-0.03416,-0.16104
-0.06344,0.05856,-0.05368,-0.02196,0.00976,-0.0366,0,-0.0732,-0.0488,-0.04392,-0.03416,-0.16104
-0.05856,0.061,-0.06344,-0.03416,-0.00488,-0.02684,-0.00488,-0.07808,-0.0488,-0.04392,-0.03416,-0.15128
-0.05368,0.061,-0.06832,-0.04148,-0.01464,-0.01952,-0.01464,-0.08784,-0.05368,-0.05368,-0.03904,-0.15616
-0.06832,0.06832,-0.06832,-0.03416,0,-0.03416,-0.01464,-0.0732,-0.0488,-0.0488,-0.04392,-0.15616
-0.05856,0.061,-0.06344,-0.03416,-0.00488,-0.02684,-0.00488,-0.05856,-0.04392,-0.03416,-0.04392,-0.15616
-0.0488,0.05368,-0.05856,-0.03416,-0.00976,-0.01952,0.00488,-0.05856,-0.04392,-0.03416,-0.03904,-0.15128
-0.0488,0.05368,-0.05856,-0.03416,-0.00976,-0.01952,-0.00488,-0.05856,-0.04392,-0.04392,-0.03904,-0.15616
-0.05368,0.05612,-0.05856,-0.03172,-0.00488,-0.0244,-0.00488,-0.0488,-0.04392,-0.04392,-0.03904,-0.16104
-0.0488,0.05124,-0.05368,-0.02928,-0.00488,-0.02196,0.00976,-0.0488,-0.02928,-0.03416,-0.03416,-0.15128
-0.05368,0.05612,-0.05856,-0.03172,-0.00488,-0.0244,0.00976,-0.0488,-0.03416,-0.02928,-0.02928,-0.1464
-0.05368,0.05368,-0.05368,-0.02684,0,-0.02684,0.00488,-0.05856,-0.04392,-0.03416,-0.03416,-0.15616
-0.03904,0.04636,-0.05368,-0.03416,-0.01464,-0.0122,0.00488,-0.05856,-0.04392,-0.04392,-0.04392,-0.15128
-0.0488,0.05368,-0.05856,-0.03416,-0.00976,-0.01952,0.00488,-0.05368,-0.03416,-0.04392,-0.04392,-0.15616
-0.05856,0.06344,-0.06832,-0.03904,-0.00976,-0.0244,0.00488,-0.05368,-0.03416,-0.04392,-0.04392,-0.15616
-0.0488,0.05856,-0.06832,-0.04392,-0.01952,-0.01464,0.00976,-0.06344,-0.03416,-0.02928,-0.03416,-0.1464
-0.04392,0.05612,-0.06832,-0.04636,-0.0244,-0.00976,0.00976,-0.06344,-0.03416,-0.03416,-0.03416,-0.1464
-0.05856,0.06588,-0.0732,-0.04392,-0.01464,-0.02196,0.00976,-0.05368,-0.03416,-0.03416,-0.04392,-0.15128
-0.06832,0.07076,-0.0732,-0.03904,-0.00488,-0.03172,0.00976,-0.05368,-0.03416,-0.03416,-0.04392,-0.15128
-0.06344,0.06832,-0.0732,-0.04148,-0.00976,-0.02684,0.01952,-0.0488,-0.03416,-0.04392,-0.03904,-0.1464
-0.06344,0.061,-0.05856,-0.02684,0.00488,-0.03416,0.01952,-0.0488,-0.02928,-0.04392,-0.02928,-0.14152
-0.05856,0.061,-0.06344,-0.03416,-0.00488,-0.02684,0.00976,-0.03904,-0.02928,-0.03416,-0.01952,-0.13664
-0.04392,0.05368,-0.06344,-0.04148,-0.01952,-0.0122,0.00976,-0.03904,-0.02928,-0.03416,-0.0244,-0.13664
-0.0488,0.05856,-0.06832,-0.04392,-0.01952,-0.01464,0.01464,-0.03904,-0.01952,-0.03416,-0.01952,-0.14152
-0.04392,0.05368,-0.06344,-0.04148,-0.01952,-0.0122,0.00976,-0.03904,-0.01952,-0.02928,-0.01952,-0.15128
-0.05856,0.05856,-0.05856,-0.02928,0,-0.02928,0.00976,-0.04392,-0.0244,-0.03416,-0.01952,-0.15128
-0.05856,0.05856,-0.05856,-0.02928,0,-0.02928,0.01464,-0.04392,-0.03416,-0.03416,-0.0244,-0.15128
-0.04392,0.04636,-0.0488,-0.02684,-0.00488,-0.01952,0.01464,-0.04392,-0.03904,-0.03904,-0.03904,-0.13664
-0.0488,0.05368,-0.05856,-0.03416,-0.00976,-0.01952,0.01464,-0.04392,-0.03904,-0.04392,-0.03904,-0.14152
-0.0488,0.05368,-0.05856,-0.03416,-0.00976,-0.01952,0.00976,-0.04392,-0.04392,-0.04392,-0.02928,-0.13176
-0.0488,0.05368,-0.05856,-0.03416,-0.00976,-0.01952,0.00976,-0.04392,-0.03904,-0.03904,-0.02928,-0.12688
-0.03904,0.0488,-0.05856,-0.03904,-0.01952,-0.00976,0.00976,-0.04392,-0.02928,-0.02928,-0.0244,-0.13664
-0.03904,0.0488,-0.05856,-0.03904,-0.01952,-0.00976,0.00976,-0.04392,-0.02928,-0.02928,-0.01952,-0.13664
-0.04392,0.0488,-0.05368,-0.03172,-0.00976,-0.01708,0.00976,-0.03904,-0.0244,-0.0244,-0.01952,-0.15128
-0.03904,0.04148,-0.04392,-0.0244,-0.00488,-0.01708,0.00976,-0.03904,-0.0244,-0.0244,-0.01464,-0.14152
-0.02928,0.03904,-0.0488,-0.03416,-0.01952,-0.00488,0.01464,-0.03416,-0.0244,-0.03416,-0.0244,-0.13664
-0.03416,0.04392,-0.05368,-0.0366,-0.01952,-0.00732,0.00976,-0.03904,-0.02928,-0.03416,-0.02928,-0.12688
-0.04392,0.05124,-0.05856,-0.0366,-0.01464,-0.01464,0,-0.03416,-0.03416,-0.03904,-0.03416,-0.13176
-0.04392,0.05124,-0.05856,-0.0366,-0.01464,-0.01464,0,-0.03416,-0.03416,-0.03904,-0.03416,-0.12688
-0.03904,0.04392,-0.0488,-0.02928,-0.00976,-0.01464,0.00976,-0.03416,-0.01464,-0.03416,-0.0244,-0.11712
-0.04392,0.04148,-0.03904,-0.01708,0.00488,-0.0244,0.00976,-0.02928,-0.01464,-0.0244,-0.00976,-0.11224
-0.04392,0.03416,-0.0244,-0.00244,0.01952,-0.03172,0,-0.0244,-0.01464,-0.01464,-0.00488,-0.10736
-0.03416,0.02684,-0.01952,-0.00244,0.01464,-0.0244,0,-0.01952,-0.00976,-0.00976,0,-0.10736
-0.02928,0.02684,-0.0244,-0.00976,0.00488,-0.01708,0.00488,-0.0244,-0.01464,-0.01952,0,-0.11712
-0.02928,0.03172,-0.03416,-0.01952,-0.00488,-0.0122,0.00488,-0.0244,-0.00488,-0.00976,0.00488,-0.11224
-0.01464,0.01952,-0.0244,-0.01708,-0.00976,-0.00244,0,-0.01464,-0.00488,-0.00976,0.00488,-0.0976
-0.01464,0.0122,-0.00976,-0.00244,0.00488,-0.00976,0.00488,-0.01464,0,-0.00488,0.00976,-0.09272
-0.01952,0.00976,0,0.00976,0.01952,-0.01952,-0.00976,-0.01464,0,-0.00488,0.00976,-0.09272
-0.01952,0.00732,0.00488,0.01464,0.0244,-0.02196,-0.00976,-0.01464,0,0,0.01464,-0.08784
-0.02928,0.01708,-0.00488,0.00976,0.0244,-0.02684,-0.00976,0,0,0.00488,0.02928,-0.0732
-0.01952,0.00732,0.00488,0.01464,0.0244,-0.02196,-0.00976,0.00488,0.00976,0.01952,0.03416,-0.07808
-0.01952,0.0122,-0.00488,0.00488,0.01464,-0.01708,-0.00976,0,0.00976,0.0244,0.0244,-0.0732
-0.0244,0.00732,0.00976,0.02196,0.03416,-0.02928,-0.00976,0,0.00976,0.01464,0.0244,-0.06344
-0.01464,-0.00244,0.01952,0.02684,0.03416,-0.0244,-0.01952,0.00488,0.00976,0.00976,0.02928,-0.06832
-0.00976,-0.00488,0.01952,0.0244,0.02928,-0.01952,-0.01952,0,0.01464,0.01952,0.03904,-0.06832
-0.00976,-0.0122,0.03416,0.03904,0.04392,-0.02684,-0.01952,-0.00488,0.00488,0.01952,0.03904,-0.06344
-0.01464,-0.00976,0.03416,0.04148,0.0488,-0.03172,-0.0244,-0.00488,0.01464,0.0244,0.04392,-0.06344
0,-0.01952,0.03904,0.03904,0.03904,-0.01952,-0.02928,-0.00976,0.01464,0.01952,0.03904,-0.05368
0.00976,-0.0244,0.03904,0.03416,0.02928,-0.00976,-0.03416,-0.00488,0.01952,0.01952,0.03904,-0.05368
0.00488,-0.01952,0.03416,0.03172,0.02928,-0.0122,-0.03904,-0.00976,0.01952,0.02928,0.04392,-0.05368
0,-0.01952,0.03904,0.03904,0.03904,-0.01952,-0.03904,-0.00976,0.00976,0.02928,0.03416,-0.05368
0.00488,-0.02196,0.03904,0.0366,0.03416,-0.01464,-0.03416,0,0.01952,0.03416,0.0488,-0.05856
0.00488,-0.01952,0.03416,0.03172,0.02928,-0.0122,-0.03416,0,0.0244,0.03416,0.0488,-0.05856
0.01464,-0.0244,0.03416,0.02684,0.01952,-0.00244,-0.03416,0,0.0244,0.0244,0.04392,-0.05368
0.02928,-0.03172,0.03416,0.01952,0.00488,0.0122,-0.02928,0,0.01952,0.0244,0.02928,-0.0488
0.02928,-0.03172,0.03416,0.01952,0.00488,0.0122,-0.0244,0,0.01464,0.01464,0.02928,-0.0488
0.00976,-0.01708,0.0244,0.01952,0.01464,-0.00244,-0.0244,0,0.01464,0.01952,0.03416,-0.05856
0.01464,-0.0122,0.00976,0.00244,-0.00488,0.00976,-0.00976,0.00488,0.0244,0.01464,0.03904,-0.05368
0.01464,-0.00732,0,-0.00732,-0.01464,0.01464,-0.00976,-0.00488,0.01464,0.00976,0.02928,-0.05856
0,0,0,0,0,0,-0.00976,0.00976,0.00976,0,0.03416,-0.06344
0,0.00732,-0.01464,-0.01464,-0.01464,0.00732,-0.00488,0,0.01464,-0.00488,0.0244,-0.06344
0,0.00732,-0.01464,-0.01464,-0.01464,0.00732,0.00488,0,0.00488,0.00488,0.0244,-0.05856
-0.00976,0.0122,-0.01464,-0.00976,-0.00488,-0.00244,0.00976,0,0.00976,0.00976,0.02928,-0.05856
0,0.00732,-0.01464,-0.01464,-0.01464,0.00732,-0.00976,-0.00976,0.01464,0.01464,0.0244,-0.0732
0,0.00976,-0.01952,-0.01952,-0.01952,0.00976,-0.00488,-0.01952,0.00976,0.00976,0.01952,-0.0732
-0.00488,0.01464,-0.0244,-0.02196,-0.01952,0.00732,-0.00488,-0.0244,0.01464,0.00976,0.01464,-0.07808
-0.00488,0.01952,-0.03416,-0.03172,-0.02928,0.0122,-0.00488,-0.0244,0.01464,0.00976,0.00976,-0.07808
-0.00488,0.01708,-0.02928,-0.02684,-0.0244,0.00976,0,-0.01464,0.00976,0,0,-0.07808
-0.00976,0.01708,-0.0244,-0.01952,-0.01464,0.00244,0,-0.01952,0,0,0,-0.06344
-0.00488,0.01708,-0.02928,-0.02684,-0.0244,0.00976,-0.00976,-0.02928,0.00488,-0.00976,0,-0.06832
-0.00488,0.01708,-0.02928,-0.02684,-0.0244,0.00976,-0.00976,-0.02928,0.00488,-0.00976,0.00488,-0.06832
-0.01464,0.02684,-0.03904,-0.03172,-0.0244,0.00488,-0.00976,-0.04392,-0.00976,-0.01464,0,-0.0732
-0.01952,0.02684,-0.03416,-0.0244,-0.01464,-0.00244,-0.00976,-0.04392,-0.01464,-0.01464,-0.00488,-0.08296
-0.01464,0.0244,-0.03416,-0.02684,-0.01952,0.00244,-0.01952,-0.03904,-0.01464,-0.00976,-0.00488,-0.08784
-0.01952,0.02196,-0.0244,-0.01464,-0.00488,-0.00732,-0.01952,-0.03904,-0.01464,-0.00488,-0.00488,-0.08784
-0.0244,0.02684,-0.02928,-0.01708,-0.00488,-0.00976,-0.01464,-0.03904,0,-0.00488,0.00488,-0.07808
-0.0244,0.02684,-0.02928,-0.01708,-0.00488,-0.00976,-0.00488,-0.03904,0,-0.00488,0.00488,-0.08296
-0.0244,0.03172,-0.03904,-0.02684,-0.01464,-0.00488,-0.00976,-0.03904,-0.00976,-0.01464,-0.00488,-0.07808
-0.02928,0.03172,-0.03416,-0.01952,-0.00488,-0.0122,-0.00976,-0.03904,-0.01464,-0.01464,-0.00488,-0.07808
-0.01952,0.02684,-0.03416,-0.0244,-0.01464,-0.00244,-0.00976,-0.03416,0,-0.01952,-0.01464,-0.06344
-0.01464,0.0244,-0.03416,-0.02684,-0.01952,0.00244,-0.00976,-0.03416,0,-0.01952,-0.00976,-0.06344
-0.03416,0.03416,-0.03416,-0.01708,0,-0.01708,0,-0.0244,0,-0.01952,-0.00976,-0.05856
-0.0244,0.02928,-0.03416,-0.02196,-0.00976,-0.00732,0,-0.0244,0,-0.00976,0.00488,-0.05856
-0.0244,0.0244,-0.0244,-0.0122,0,-0.0122,0,-0.0244,0,-0.00976,0.00488,-0.05856
-0.0244,0.0244,-0.0244,-0.0122,0,-0.0122,-0.00976,-0.03416,0.00488,-0.00488,0.00488,-0.06832
-0.0244,0.02196,-0.01952,-0.00732,0.00488,-0.01464,-0.00488,-0.02928,0.01952,0,0.00976,-0.06832
-0.01952,0.01952,-0.01952,-0.00976,0,-0.00976,-0.00488,-0.02928,0.01952,0.00976,0.01952,-0.05856
-0.00976,0.0122,-0.01464,-0.00976,-0.00488,-0.00244,-0.00488,-0.02928,0.01952,0.01952,0.0244,-0.05856
-0.00976,0.0122,-0.01464,-0.00976,-0.00488,-0.00244,-0.00488,-0.02928,0.01952,0.01464,0.0244,-0.05856
0,0.0122,-0.0244,-0.0244,-0.0244,0.0122,-0.00488,-0.0244,0.00976,0.01464,0.0244,-0.06344
-0.00488,0.01464,-0.0244,-0.02196,-0.01952,0.00732,-0.00488,-0.01952,0.00976,0.00488,0.01464,-0.05856
-0.00976,0.01708,-0.0244,-0.01952,-0.01464,0.00244,-0.01464,-0.01952,0,-0.01464,0.00488,-0.05856
-0.00976,0.01464,-0.01952,-0.01464,-0.00976,0,-0.01464,-0.01952,0,-0.01464,0.00976,-0.05856
-0.01464,0.0122,-0.00976,-0.00244,0.00488,-0.00976,-0.0244,-0.01952,0.00976,-0.00488,0.01952,-0.05368
-0.01464,0.0122,-0.00976,-0.00244,0.00488,-0.00976,-0.0244,-0.01952,0.00976,0.00488,0.01952,-0.06344
-0.00488,0.01708,-0.02928,-0.02684,-0.0244,0.00976,-0.01464,-0.00976,0.00488,0.00488,0.00488,-0.05856
-0.00976,0.01952,-0.02928,-0.0244,-0.01952,0.00488,-0.01952,-0.00976,-0.00488,-0.00976,0.00488,-0.05368
0,0.00976,-0.01952,-0.01952,-0.01952,0.00976,-0.01464,-0.00976,0,-0.00488,0.00488,-0.05856
0.00488,0.00488,-0.01464,-0.01708,-0.01952,0.0122,-0.01464,-0.00976,0,-0.00488,0.00976,-0.05368
-0.00976,0.00976,-0.00976,-0.00488,0,-0.00488,-0.00488,-0.00488,0.00488,0.00976,0.01952,-0.05368
-0.01952,0.01464,-0.00976,0,0.00976,-0.01464,-0.00488,-0.00488,0.01952,0.01464,0.02928,-0.05368
-0.01464,0.0122,-0.00976,-0.00244,0.00488,-0.00976,-0.01464,-0.01464,0.0244,0.01464,0.02928,-0.05856
-0.00488,0.00732,-0.00976,-0.00732,-0.00488,0,-0.01464,-0.01464,0.0244,0.01464,0.01464,-0.05856
-0.00488,0.00488,-0.00488,-0.00244,0,-0.00244,-0.01464,-0.01464,0.01464,0,0.00976,-0.0488
-0.00488,0.00488,-0.00488,-0.00244,0,-0.00244,-0.01952,-0.01464,0.00976,0,0.00488,-0.05856
-0.00976,0.01464,-0.01952,-0.01464,-0.00976,0,-0.00488,-0.01952,0.00976,0,0.00976,-0.05368
-0.00976,0.01464,-0.01952,-0.01464,-0.00976,0,-0.00976,-0.0244,0.00488,-0.00488,0.00488,-0.05856
-0.00488,0.0122,-0.01952,-0.01708,-0.01464,0.00488,-0.01952,-0.00976,0.00488,-0.00488,0.00488,-0.06344
-0.00488,0.0122,-0.01952,-0.01708,-0.01464,0.00488,-0.01952,-0.01952,0.00488,-0.00488,0.00488,-0.05856
-0.01952,0.02196,-0.0244,-0.01464,-0.00488,-0.00732,-0.01464,-0.01464,-0.00488,-0.00488,-0.00488,-0.05368
-0.01952,0.02928,-0.03904,-0.02928,-0.01952,0,-0.01464,-0.01464,0,-0.00488,-0.00488,-0.05368
-0.00976,0.01952,-0.02928,-0.0244,-0.01952,0.00488,-0.01952,-0.0244,0,-0.00488,-0.00488,-0.06832
-0.00976,0.01952,-0.02928,-0.0244,-0.01952,0.00488,-0.01952,-0.0244,-0.00488,-0.00976,-0.00976,-0.06344
0.00488,0.0122,-0.02928,-0.03172,-0.03416,0.01952,-0.01952,-0.0244,0,-0.00976,0,-0.0732
0.00976,0.0122,-0.03416,-0.03904,-0.04392,0.02684,-0.0244,-0.01952,0.00488,-0.00976,0,-0.07808
0.00488,0.00732,-0.01952,-0.02196,-0.0244,0.01464,-0.00976,-0.0244,-0.00488,-0.00976,0,-0.06832
0.00488,0.00244,-0.00976,-0.0122,-0.01464,0.00976,-0.00976,-0.02928,-0.00488,-0.00976,0.00488,-0.06832
-0.00976,0.00976,-0.00976,-0.00488,0,-0.00488,-0.01952,-0.03416,0,-0.00976,0,-0.06832
-0.01952,0.02196,-0.0244,-0.01464,-0.00488,-0.00732,-0.01952,-0.02928,0.00488,-0.00976,0,-0.06832
-0.01952,0.02928,-0.03904,-0.02928,-0.01952,0,-0.01952,-0.0244,0.00488,-0.01952,-0.00488,-0.07808
-0.01464,0.02684,-0.03904,-0.03172,-0.0244,0.00488,-0.01952,-0.0244,-0.01464,-0.01952,-0.01464,-0.07808
-0.00976,0.01464,-0.01952,-0.01464,-0.00976,0,-0.01952,-0.0244,-0.01464,-0.0244,-0.00976,-0.07808
0,0.00488,-0.00976,-0.00976,-0.00976,0.00488,-0.01952,-0.02928,-0.00976,-0.01952,-0.00976,-0.06832
0,0.00732,-0.01464,-0.01464,-0.01464,0.00732,-0.01464,-0.02928,-0.00488,-0.01464,-0.00488,-0.06832
-0.00976,0.01708,-0.0244,-0.01952,-0.01464,0.00244,-0.01464,-0.02928,-0.00488,-0.01952,-0.00488,-0.06832
0,0.01708,-0.03416,-0.03416,-0.03416,0.01708,-0.0244,-0.02928,-0.00488,-0.01952,-0.01952,-0.06832
-0.00488,0.01952,-0.03416,-0.03172,-0.02928,0.0122,-0.01952,-0.03416,-0.00488,-0.00976,-0.01952,-0.06832
-0.00976,0.01464,-0.01952,-0.01464,-0.00976,0,-0.01952,-0.03416,-0.00488,-0.01952,-0.01464,-0.06832
-0.01464,0.01708,-0.01952,-0.0122,-0.00488,-0.00488,-0.01952,-0.03416,-0.00976,-0.01952,-0.00488,-0.06344
-0.01952,0.01952,-0.01952,-0.00976,0,-0.00976,-0.01952,-0.03904,-0.00976,-0.0244,-0.00976,-0.06832
-0.00488,0.01464,-0.0244,-0.02196,-0.01952,0.00732,-0.0244,-0.04392,-0.00976,-0.0244,-0.00976,-0.06832
0,0.01708,-0.03416,-0.03416,-0.03416,0.01708,-0.01464,-0.03416,-0.00488,-0.01952,-0.00976,-0.07808
-0.00976,0.01952,-0.02928,-0.0244,-0.01952,0.00488,-0.01464,-0.03904,-0.00488,-0.01952,-0.00488,-0.0732
-0.00488,0.0122,-0.01952,-0.01708,-0.01464,0.00488,-0.0244,-0.0488,-0.01464,-0.01952,-0.01464,-0.07808
-0.00976,0.01708,-0.0244,-0.01952,-0.01464,0.00244,-0.0244,-0.04392,-0.01952,-0.01952,-0.01952,-0.07808
-0.01464,0.01952,-0.0244,-0.01708,-0.00976,-0.00244,-0.0244,-0.03416,-0.0244,-0.02928,-0.01952,-0.0732
-0.01464,0.01952,-0.0244,-0.01708,-0.00976,-0.00244,-0.0244,-0.03416,-0.02928,-0.03416,-0.01952,-0.0732
-0.00976,0.02196,-0.03416,-0.02928,-0.0244,0.00732,-0.01464,-0.0244,-0.00976,-0.01952,-0.00976,-0.06832
0,0.01952,-0.03904,-0.03904,-0.03904,0.01952,-0.01464,-0.0244,-0.00976,-0.01952,-0.01464,-0.0732
-0.00488,0.01952,-0.03416,-0.03172,-0.02928,0.0122,-0.01464,-0.03416,-0.00976,-0.01464,-0.00976,-0.06832
-0.00488,0.01952,-0.03416,-0.03172,-0.02928,0.0122,-0.01464,-0.03416,-0.00976,-0.01464,-0.00488,-0.08296
-0.00976,0.02684,-0.04392,-0.03904,-0.03416,0.0122,-0.01464,-0.03904,-0.01952,-0.01952,-0.00488,-0.08784
-0.01952,0.03172,-0.04392,-0.03416,-0.0244,0.00244,-0.00976,-0.03904,-0.01464,-0.01464,-0.00976,-0.07808
-0.01952,0.02684,-0.03416,-0.0244,-0.01464,-0.00244,-0.01952,-0.03904,-0.00488,-0.02928,-0.01952,-0.06832
-0.01464,0.0244,-0.03416,-0.02684,-0.01952,0.00244,-0.0244,-0.03904,-0.01464,-0.03416,-0.0244,-0.0732
-0.00976,0.0244,-0.03904,-0.03416,-0.02928,0.00976,-0.02928,-0.04392,-0.0244,-0.0244,-0.01464,-0.07808
-0.00488,0.01952,-0.03416,-0.03172,-0.02928,0.0122,-0.02928,-0.04392,-0.0244,-0.0244,-0.01464,-0.07808
-0.00976,0.0244,-0.03904,-0.03416,-0.02928,0.00976,-0.01464,-0.03416,-0.01952,-0.0244,-0.01464,-0.07808
-0.01952,0.03416,-0.0488,-0.03904,-0.02928,0.00488,-0.01464,-0.0244,-0.00488,-0.01952,-0.01464,-0.07808
-0.00976,0.02684,-0.04392,-0.03904,-0.03416,0.0122,-0.0244,-0.03416,-0.00488,-0.03416,-0.0244,-0.07808
-0.01464,0.02684,-0.03904,-0.03172,-0.0244,0.00488,-0.0244,-0.03904,-0.01464,-0.03416,-0.0244,-0.08296
-0.00488,0.01952,-0.03416,-0.03172,-0.02928,0.0122,-0.01464,-0.02928,-0.01952,-0.0244,-0.0244,-0.0732
0,0.01952,-0.03904,-0.03904,-0.03904,0.01952,-0.01952,-0.02928,-0.01952,-0.01952,-0.00976,-0.07808
0,0.01952,-0.03904,-0.03904,-0.03904,0.01952,-0.01952,-0.02928,-0.01952,-0.01952,-0.00976,-0.07808
0,0.01952,-0.03904,-0.03904,-0.03904,0.01952,-0.0244,-0.03416,-0.01952,-0.02928,-0.01952,-0.07808
0,0.01952,-0.03904,-0.03904,-0.03904,0.01952,-0.01952,-0.03416,-0.01952,-0.02928,-0.01952,-0.07808
0,0.01708,-0.03416,-0.03416,-0.03416,0.01708,-0.01952,-0.03904,-0.01952,-0.02928,-0.01952,-0.07808
0,0.0122,-0.0244,-0.0244,-0.0244,0.0122,-0.01952,-0.03904,-0.01952,-0.01952,-0.01464,-0.0732
-0.00976,0.01952,-0.02928,-0.0244,-0.01952,0.00488,-0.01952,-0.03904,-0.01952,-0.02928,-0.0244,-0.0732
-0.00976,0.01952,-0.02928,-0.0244,-0.01952,0.00488,-0.01952,-0.03904,-0.01952,-0.02928,-0.0244,-0.06832
-0.01952,0.02196,-0.0244,-0.01464,-0.00488,-0.00732,-0.01464,-0.03904,-0.02928,-0.02928,-0.01952,-0.06344
-0.01952,0.01708,-0.01464,-0.00488,0.00488,-0.0122,-0.01464,-0.03416,-0.0244,-0.0244,-0.01464,-0.06344
-0.00976,0.00732,-0.00488,0,0.00488,-0.00732,-0.01952,-0.0244,-0.00976,-0.00976,0,-0.06344
-0.00488,-0.00244,0.00976,0.0122,0.01464,-0.00976,-0.01952,-0.01952,0.00488,0.00488,0.00488,-0.06344
0.00488,-0.0122,0.01952,0.01708,0.01464,-0.00488,0.00488,-0.01464,0.01464,0.00976,0.0244,-0.0488
-0.00488,-0.00732,0.01952,0.02196,0.0244,-0.01464,0.01952,-0.00488,0.02928,0.0244,0.0244,-0.04392
-0.0244,0,0.0244,0.0366,0.0488,-0.0366,0.02928,-0.00488,0.01952,0.01952,0.0244,-0.0488
-0.02928,0.00488,0.01952,0.03416,0.0488,-0.03904,0.03904,0.00488,0.01952,0.00976,0.01464,-0.0488
-0.01952,-0.00244,0.0244,0.03416,0.04392,-0.03172,0.02928,0.00976,0.01952,0.01952,0.0244,-0.04392
-0.00976,-0.00244,0.01464,0.01952,0.0244,-0.01708,0.03416,0.01464,0.0244,0.01464,0.01952,-0.04392
0.00976,-0.01952,0.02928,0.0244,0.01952,-0.00488,0.01464,0,0.0244,0.0244,0.01952,-0.04392
0.01952,-0.03172,0.04392,0.03416,0.0244,-0.00244,-0.00488,-0.00976,0.0244,0.01952,0.01952,-0.04392
0.01952,-0.03172,0.04392,0.03416,0.0244,-0.00244,-0.0244,-0.01464,0.01464,0.00976,0.00976,-0.04392
0.01952,-0.03172,0.04392,0.03416,0.0244,-0.00244,-0.03904,-0.03416,0.00488,0,0.00488,-0.0488
0.01464,-0.0244,0.03416,0.02684,0.01952,-0.00244,-0.05856,-0.05856,0,-0.00976,0.00488,-0.04392
0.01952,-0.02928,0.03904,0.02928,0.01952,0,-0.06832,-0.05856,-0.00488,-0.01464,-0.00488,-0.04392
0.04392,-0.04392,0.04392,0.02196,0,0.02196,-0.0732,-0.05856,-0.01464,0,-0.00488,-0.05856
0.04392,-0.04148,0.03904,0.01708,-0.00488,0.0244,-0.0732,-0.05856,-0.01464,0,-0.00488,-0.06832
0.04392,-0.02928,0.01464,-0.00732,-0.02928,0.0366,-0.06344,-0.04392,-0.02928,-0.0244,-0.03904,-0.07808
0.04392,-0.02196,0,-0.02196,-0.04392,0.04392,-0.06344,-0.0488,-0.03904,-0.03904,-0.04392,-0.07808
0.0488,-0.0122,-0.0244,-0.0488,-0.0732,0.061,-0.07808,-0.06832,-0.06344,-0.0488,-0.0488,-0.09272
0.04392,-0.00488,-0.03416,-0.05612,-0.07808,0.061,-0.08296,-0.0732,-0.0732,-0.05856,-0.05368,-0.10248
0.0244,0.00488,-0.03416,-0.04636,-0.05856,0.04148,-0.0732,-0.08296,-0.06832,-0.05368,-0.0488,-0.09272
0.01952,0.00488,-0.02928,-0.03904,-0.0488,0.03416,-0.05856,-0.0732,-0.0488,-0.03904,-0.03904,-0.08296
0.00976,0.00732,-0.0244,-0.02928,-0.03416,0.02196,-0.0488,-0.05856,-0.03904,-0.04392,-0.03904,-0.08296
-0.00976,0.0244,-0.03904,-0.03416,-0.02928,0.00976,-0.03904,-0.05856,-0.03904,-0.03904,-0.03904,-0.08784
-0.0244,0.03904,-0.05368,-0.04148,-0.02928,0.00244,-0.0488,-0.06344,-0.04392,-0.05368,-0.03904,-0.10248
-0.0244,0.0488,-0.0732,-0.061,-0.0488,0.0122,-0.0488,-0.0732,-0.05368,-0.05856,-0.05368,-0.10736
-0.03416,0.05368,-0.0732,-0.05612,-0.03904,0.00244,-0.03904,-0.06344,-0.06344,-0.06344,-0.05856,-0.10248
-0.02928,0.05612,-0.08296,-0.06832,-0.05368,0.0122,-0.03904,-0.06344,-0.06344,-0.06344,-0.05856,-0.10248
-0.02928,0.05124,-0.0732,-0.05856,-0.04392,0.00732,-0.03904,-0.05856,-0.06344,-0.05368,-0.05856,-0.09272
-0.03416,0.05612,-0.07808,-0.061,-0.04392,0.00488,-0.03904,-0.05856,-0.05856,-0.05368,-0.05856,-0.09272
-0.0244,0.04392,-0.06344,-0.05124,-0.03904,0.00732,-0.0488,-0.06832,-0.05856,-0.06344,-0.05856,-0.10736
-0.0244,0.04392,-0.06344,-0.05124,-0.03904,0.00732,-0.0488,-0.06832,-0.05856,-0.06344,-0.05856,-0.10736
-0.01952,0.0366,-0.05368,-0.04392,-0.03416,0.00732,-0.04392,-0.05368,-0.05856,-0.06832,-0.05856,-0.0976
-0.00976,0.04148,-0.0732,-0.06832,-0.06344,0.02684,-0.03904,-0.05368,-0.05856,-0.06344,-0.04392,-0.0976
-0.0244,0.04392,-0.06344,-0.05124,-0.03904,0.00732,-0.02928,-0.04392,-0.0488,-0.05856,-0.04392,-0.09272
-0.01464,0.04392,-0.0732,-0.06588,-0.05856,0.02196,-0.01464,-0.05368,-0.0488,-0.05368,-0.0488,-0.11224
-0.02928,0.05612,-0.08296,-0.06832,-0.05368,0.0122,0.00976,-0.01952,-0.03416,-0.03416,-0.04392,-0.10736
-0.0488,0.08052,-0.11224,-0.08784,-0.06344,0.00732,0.03416,0.01952,-0.00976,-0.01952,-0.03416,-0.11712
-0.0244,0.061,-0.0976,-0.0854,-0.0732,0.0244,0.07808,0.11224,0.0488,0.01464,0.00976,-0.08296
0.0488,0.01952,-0.08784,-0.11224,-0.13664,0.09272,0.13664,0.28792,0.14152,0.08784,0.05368,-0.03904
0.15616,-0.0854,0.01464,-0.06344,-0.14152,0.14884,0.18056,0.50264,0.3172,0.244,0.20008,0.08784
0.35136,-0.27084,0.19032,0.01464,-0.16104,0.2562,0.07808,0.58072,0.45872,0.4148,0.38064,0.27816
0.55632,-0.47824,0.40016,0.122,-0.15616,0.35624,-0.13664,0.35624,0.4148,0.44408,0.47336,0.4148
0.67344,-0.61488,0.55632,0.2196,-0.11712,0.39528,-0.4148,0.00976,0.2196,0.33672,0.4392,0.46848
0.65392,-0.68564,0.71736,0.3904,0.06344,0.29524,-0.60512,-0.28792,0.01952,0.23912,0.39528,0.52704
0.53192,-0.61488,0.69784,0.43188,0.16592,0.183,-0.5856,-0.43432,-0.08296,0.16104,0.33184,0.5124
0.3904,-0.47336,0.55632,0.36112,0.16592,0.11224,-0.47824,-0.44896,-0.1952,0.03416,0.22448,0.40504
0.20496,-0.2318,0.25864,0.15616,0.05368,0.07564,-0.4148,-0.53192,-0.38552,-0.20984,-0.0488,0.122
0,-0.03172,0.06344,0.06344,0.06344,-0.03172,-0.36112,-0.64904,-0.48312,-0.35136,-0.244,-0.122
-0.05368,0.00732,0.03904,0.06588,0.09272,-0.0732,-0.38552,-0.68808,-0.47336,-0.35624,-0.27328,-0.17568
-0.03416,-0.00732,0.0488,0.06588,0.08296,-0.05856,-0.26352,-0.47336,-0.3416,-0.27328,-0.20008,-0.13176
-0.03416,-0.00244,0.03904,0.05612,0.0732,-0.05368,-0.18544,-0.28304,-0.22936,-0.18544,-0.13176,-0.10736
-0.01464,-0.01952,0.05368,0.061,0.06832,-0.04148,-0.15616,-0.21472,-0.14152,-0.10736,-0.07808,-0.0976
-0.01952,0.0122,-0.00488,0.00488,0.01464,-0.01708,-0.122,-0.1708,-0.122,-0.08296,-0.0732,-0.10248
-0.00976,0.00976,-0.00976,-0.00488,0,-0.00488,-0.0976,-0.1464,-0.0976,-0.08296,-0.05856,-0.09272
-0.0244,0.02928,-0.03416,-0.02196,-0.00976,-0.00732,-0.0488,-0.0976,-0.07808,-0.0732,-0.06344,-0.10736
-0.06344,0.06832,-0.0732,-0.04148,-0.00976,-0.02684,-0.03904,-0.09272,-0.06344,-0.0732,-0.0732,-0.11224
-0.0488,0.05124,-0.05368,-0.02928,-0.00488,-0.02196,-0.03904,-0.0976,-0.05856,-0.05368,-0.05368,-0.09272
-0.04392,0.04392,-0.04392,-0.02196,0,-0.02196,-0.0488,-0.0976,-0.06832,-0.06344,-0.04392,-0.09272
-0.03416,0.04148,-0.0488,-0.03172,-0.01464,-0.00976,-0.0488,-0.08784,-0.08296,-0.08296,-0.06344,-0.10736
-0.0488,0.05124,-0.05368,-0.02928,-0.00488,-0.02196,-0.02928,-0.06832,-0.06832,-0.0732,-0.05856,-0.10736
-0.0488,0.05612,-0.06344,-0.03904,-0.01464,-0.01708,-0.01952,-0.06832,-0.06344,-0.06344,-0.05856,-0.10736
-0.0488,0.05856,-0.06832,-0.04392,-0.01952,-0.01464,-0.0244,-0.06832,-0.06344,-0.06344,-0.05856,-0.10248
-0.04392,0.05124,-0.05856,-0.0366,-0.01464,-0.01464,-0.0244,-0.06832,-0.06344,-0.0732,-0.05856,-0.122
-0.03904,0.05124,-0.06344,-0.04392,-0.0244,-0.00732,-0.0244,-0.05856,-0.06344,-0.0732,-0.06344,-0.122
-0.0488,0.05368,-0.05856,-0.03416,-0.00976,-0.01952,-0.01952,-0.05856,-0.0488,-0.06344,-0.0488,-0.11224
-0.05368,0.05612,-0.05856,-0.03172,-0.00488,-0.0244,-0.01952,-0.05856,-0.04392,-0.0488,-0.0488,-0.10736
-0.03904,0.04636,-0.05368,-0.03416,-0.01464,-0.0122,-0.01464,-0.05856,-0.03416,-0.03904,-0.03904,-0.10248
-0.04392,0.0488,-0.05368,-0.03172,-0.00976,-0.01708,-0.01464,-0.05856,-0.0244,-0.03416,-0.03416,-0.0976
-0.05856,0.061,-0.06344,-0.03416,-0.00488,-0.02684,-0.0244,-0.05368,-0.03416,-0.04392,-0.04392,-0.10736
-0.05368,0.05856,-0.06344,-0.0366,-0.00976,-0.02196,-0.01952,-0.05368,-0.04392,-0.0488,-0.05368,-0.10736
-0.0488,0.05368,-0.05856,-0.03416,-0.00976,-0.01952,-0.01952,-0.05368,-0.03416,-0.04392,-0.04392,-0.10736
-0.04392,0.0488,-0.05368,-0.03172,-0.00976,-0.01708,-0.01952,-0.05368,-0.03416,-0.04392,-0.03416,-0.10736
-0.05368,0.05368,-0.05368,-0.02684,0,-0.02684,-0.00976,-0.06344,-0.03416,-0.04392,-0.04392,-0.11224
-0.05856,0.05856,-0.05856,-0.02928,0,-0.02928,-0.00976,-0.06344,-0.03416,-0.04392,-0.04392,-0.11224
-0.04392,0.05368,-0.06344,-0.04148,-0.01952,-0.0122,-0.00976,-0.0488,-0.04392,-0.05368,-0.05368,-0.10248
-0.05368,0.06344,-0.0732,-0.04636,-0.01952,-0.01708,-0.00976,-0.0488,-0.0488,-0.0488,-0.0488,-0.10736
-0.03904,0.05124,-0.06344,-0.04392,-0.0244,-0.00732,-0.00976,-0.05856,-0.0488,-0.05368,-0.0488,-0.10736
-0.03904,0.05368,-0.06832,-0.0488,-0.02928,-0.00488,-0.00488,-0.05856,-0.0488,-0.05368,-0.05856,-0.10736
-0.04392,0.05124,-0.05856,-0.0366,-0.01464,-0.01464,-0.00488,-0.0488,-0.03904,-0.05856,-0.0488,-0.10736
-0.0488,0.04636,-0.04392,-0.01952,0.00488,-0.02684,-0.00976,-0.0488,-0.03904,-0.06344,-0.0488,-0.10736
-0.0488,0.0488,-0.0488,-0.0244,0,-0.0244,0.00488,-0.04392,-0.03904,-0.05368,-0.05368,-0.09272
-0.0488,0.0488,-0.0488,-0.0244,0,-0.0244,0.00488,-0.04392,-0.03904,-0.05368,-0.0488,-0.09272
-0.04392,0.05368,-0.06344,-0.04148,-0.01952,-0.0122,-0.00488,-0.04392,-0.03904,-0.0488,-0.03904,-0.0976
-0.0488,0.05856,-0.06832,-0.04392,-0.01952,-0.01464,-0.01464,-0.04392,-0.03904,-0.05368,-0.03904,-0.10248
-0.0488,0.05368,-0.05856,-0.03416,-0.00976,-0.01952,-0.00976,-0.04392,-0.04392,-0.04392,-0.03904,-0.10736
-0.0488,0.0488,-0.0488,-0.0244,0,-0.0244,-0.00976,-0.04392,-0.03904,-0.03904,-0.03904,-0.10736
-0.0488,0.0488,-0.0488,-0.0244,0,-0.0244,0,-0.03416,-0.03904,-0.0488,-0.05368,-0.0976
-0.0488,0.04636,-0.04392,-0.01952,0.00488,-0.02684,0,-0.03416,-0.03904,-0.0488,-0.0488,-0.10248
-0.03904,0.04148,-0.04392,-0.0244,-0.00488,-0.01708,0,-0.03904,-0.03416,-0.04392,-0.03416,-0.09272
-0.0488,0.05368,-0.05856,-0.03416,-0.00976,-0.01952,0,-0.03904,-0.02928,-0.04392,-0.03416,-0.09272
-0.03904,0.04636,-0.05368,-0.03416,-0.01464,-0.0122,-0.00488,-0.04392,-0.01464,-0.03416,-0.0244,-0.10248
-0.04392,0.0488,-0.05368,-0.03172,-0.00976,-0.01708,-0.00976,-0.0488,-0.01952,-0.01952,-0.02928,-0.11224
-0.04392,0.04148,-0.03904,-0.01708,0.00488,-0.0244,-0.00976,-0.03416,-0.0244,-0.02928,-0.03416,-0.0976
-0.04392,0.04148,-0.03904,-0.01708,0.00488,-0.0244,-0.00976,-0.03416,-0.01952,-0.02928,-0.02928,-0.0976
-0.0244,0.02928,-0.03416,-0.02196,-0.00976,-0.00732,-0.00976,-0.02928,-0.0244,-0.03904,-0.02928,-0.09272
-0.00976,0.01708,-0.0244,-0.01952,-0.01464,0.00244,-0.00976,-0.0244,-0.0244,-0.03416,-0.0244,-0.08784
-0.01952,0.02684,-0.03416,-0.0244,-0.01464,-0.00244,0,-0.01464,-0.01952,-0.0244,-0.0244,-0.08784
-0.02928,0.03416,-0.03904,-0.0244,-0.00976,-0.00976,0.00488,-0.00976,-0.01464,-0.01952,-0.01952,-0.08784
-0.02928,0.03416,-0.03904,-0.0244,-0.00976,-0.00976,0.00488,-0.01464,-0.00976,-0.01952,-0.01952,-0.0976
-0.0244,0.02684,-0.02928,-0.01708,-0.00488,-0.00976,0,-0.00976,-0.00488,-0.01464,-0.01464,-0.09272
-0.01464,0.01464,-0.01464,-0.00732,0,-0.00732,-0.00976,-0.00488,-0.00488,-0.00488,-0.00488,-0.08296
-0.00976,0.0122,-0.01464,-0.00976,-0.00488,-0.00244,-0.00488,0.00488,0,-0.00488,0,-0.08296
-0.01952,0.01464,-0.00976,0,0.00976,-0.01464,-0.00976,0.01464,0.00976,0,0,-0.05856
-0.01952,0.0122,-0.00488,0.00488,0.01464,-0.01708,-0.00976,0.01464,0.01464,0,0.00976,-0.05856
-0.01952,0.00488,0.00976,0.01952,0.02928,-0.0244,0,0.01952,0.0244,0.00976,0.0244,-0.06344
-0.01952,0.00244,0.01464,0.0244,0.03416,-0.02684,0,0.02928,0.0244,0.0244,0.0244,-0.06832
-0.00488,-0.00976,0.0244,0.02684,0.02928,-0.01708,0,0.02928,0.01952,0.01952,0.01464,-0.04392
0.01952,-0.02928,0.03904,0.02928,0.01952,0,-0.00488,0.03416,0.01952,0.00976,0.01952,-0.02928
0.00488,-0.01708,0.02928,0.02684,0.0244,-0.00976,-0.00976,0.02928,0.03416,0.0244,0.02928,-0.03904
-0.00488,-0.0122,0.02928,0.03172,0.03416,-0.01952,-0.00976,0.02928,0.03416,0.03904,0.03904,-0.0488
-0.00976,-0.0122,0.03416,0.03904,0.04392,-0.02684,-0.00488,0.03416,0.03416,0.02928,0.03904,-0.03416
-0.01464,-0.0122,0.03904,0.04636,0.05368,-0.03416,0,0.03904,0.04392,0.03416,0.04392,-0.03416
-0.00976,-0.01952,0.0488,0.05368,0.05856,-0.03416,-0.01464,0.03416,0.03416,0.02928,0.03904,-0.03416
0,-0.0244,0.0488,0.0488,0.0488,-0.0244,-0.01464,0.02928,0.03904,0.02928,0.03904,-0.02928
0.00488,-0.02928,0.05368,0.05124,0.0488,-0.02196,-0.01952,0.02928,0.04392,0.03904,0.05368,-0.0244
0.00488,-0.03172,0.05856,0.05612,0.05368,-0.0244,-0.01952,0.02928,0.03904,0.03416,0.04392,-0.01952
0.01464,-0.02928,0.04392,0.0366,0.02928,-0.00732,-0.0244,0.02928,0.03904,0.04392,0.03904,-0.02928
0.01952,-0.02684,0.03416,0.0244,0.01464,0.00244,-0.0244,0.02928,0.04392,0.05368,0.03904,-0.03416
0.01952,-0.02684,0.03416,0.0244,0.01464,0.00244,-0.01952,0.02928,0.04392,0.04392,0.03416,-0.02928
0.0244,-0.02928,0.03416,0.02196,0.00976,0.00732,-0.01952,0.02928,0.03904,0.03416,0.03416,-0.02928
0.01464,-0.01952,0.0244,0.01708,0.00976,0.00244,-0.0244,0.01952,0.03416,0.03416,0.03416,-0.03416
0.0244,-0.0244,0.0244,0.0122,0,0.0122,-0.0244,0.01464,0.0244,0.03904,0.02928,-0.03904
0.0244,-0.0244,0.0244,0.0122,0,0.0122,-0.00976,0.0244,0.03416,0.03416,0.02928,-0.04392
0.01952,-0.01952,0.01952,0.00976,0,0.00976,-0.00976,0.01464,0.01952,0.01952,0.01952,-0.06344
0.02928,-0.02196,0.01464,0,-0.01464,0.02196,-0.01464,0.00976,0.01464,0.00488,0.00976,-0.05368
0.03904,-0.02196,0.00488,-0.01464,-0.03416,0.0366,-0.01464,0,0.00488,0,0.00488,-0.0488
0.01952,-0.00732,-0.00488,-0.01464,-0.0244,0.02196,-0.0244,0,0.00976,0,0.00976,-0.03904
0.00976,-0.00244,-0.00488,-0.00976,-0.01464,0.0122,-0.01952,-0.00976,0.00488,-0.00976,0.00488,-0.04392
0.00976,0.00488,-0.01952,-0.0244,-0.02928,0.01952,-0.02928,-0.01464,-0.00488,-0.00976,-0.00488,-0.05368
0.00976,0.00244,-0.01464,-0.01952,-0.0244,0.01708,-0.0244,-0.01952,-0.01464,-0.00976,-0.01464,-0.06832
0.00488,0.00488,-0.01464,-0.01708,-0.01952,0.0122,-0.01464,-0.0244,-0.00488,-0.02928,-0.01952,-0.06832
0.00488,0.00488,-0.01464,-0.01708,-0.01952,0.0122,-0.01952,-0.0244,-0.00488,-0.02928,-0.01952,-0.06832
0.00488,0.00732,-0.01952,-0.02196,-0.0244,0.01464,-0.02928,-0.0244,-0.01464,-0.01952,-0.00976,-0.0732
-0.00488,0.0122,-0.01952,-0.01708,-0.01464,0.00488,-0.02928,-0.02928,-0.01464,-0.01952,-0.00976,-0.06832
0.00488,0.00244,-0.00976,-0.0122,-0.01464,0.00976,-0.01952,-0.02928,-0.00488,-0.01952,0,-0.06832
0.00976,0,-0.00976,-0.01464,-0.01952,0.01464,-0.01952,-0.03416,-0.00976,-0.01952,0.00488,-0.06832
0,0.00732,-0.01464,-0.01464,-0.01464,0.00732,-0.01952,-0.03416,-0.00976,-0.0244,-0.01464,-0.06832
-0.00488,0.01464,-0.0244,-0.02196,-0.01952,0.00732,-0.01952,-0.03416,-0.01464,-0.02928,-0.01464,-0.06832
-0.00976,0.01708,-0.0244,-0.01952,-0.01464,0.00244,-0.02928,-0.0488,-0.01464,-0.0244,-0.00488,-0.06832
-0.01464,0.02196,-0.02928,-0.02196,-0.01464,0,-0.03904,-0.0488,-0.00976,-0.0244,-0.00488,-0.06832
-0.00488,0.0122,-0.01952,-0.01708,-0.01464,0.00488,-0.02928,-0.03904,0,-0.01464,-0.01464,-0.06344
0.00488,0.00244,-0.00976,-0.0122,-0.01464,0.00976,-0.01952,-0.03904,0,-0.00488,-0.01464,-0.06344
-0.00976,0.01464,-0.01952,-0.01464,-0.00976,0,-0.01952,-0.02928,-0.00976,-0.0244,-0.0244,-0.0488
-0.00976,0.01708,-0.0244,-0.01952,-0.01464,0.00244,-0.01952,-0.02928,-0.0244,-0.03416,-0.0244,-0.04392
-0.01952,0.02684,-0.03416,-0.0244,-0.01464,-0.00244,-0.01952,-0.0244,-0.00976,-0.01952,-0.00976,-0.05368
-0.01464,0.0244,-0.03416,-0.02684,-0.01952,0.00244,-0.01952,-0.0244,-0.00976,-0.01952,-0.00488,-0.05856
-0.00488,0.01464,-0.0244,-0.02196,-0.01952,0.00732,-0.01952,-0.03416,0,-0.01464,-0.01464,-0.05856
-0.00488,0.01464,-0.0244,-0.02196,-0.01952,0.00732,-0.01952,-0.03416,0,-0.01464,-0.00976,-0.05856
-0.00488,0.01464,-0.0244,-0.02196,-0.01952,0.00732,-0.01464,-0.02928,-0.00488,-0.00976,0.00488,-0.06344
-0.00488,0.01464,-0.0244,-0.02196,-0.01952,0.00732,-0.01464,-0.02928,-0.00488,-0.00488,0.00488,-0.06344
-0.01464,0.01708,-0.01952,-0.0122,-0.00488,-0.00488,-0.01464,-0.02928,0,-0.01464,-0.00488,-0.06344
-0.01952,0.01952,-0.01952,-0.00976,0,-0.00976,-0.01464,-0.02928,0,-0.00976,-0.01464,-0.06344
-0.00976,0.0122,-0.01464,-0.00976,-0.00488,-0.00244,-0.0244,-0.02928,-0.00976,-0.0244,-0.0244,-0.05856
0.00976,0.00244,-0.01464,-0.01952,-0.0244,0.01708,-0.0244,-0.0244,-0.00976,-0.0244,-0.01464,-0.05856
0.01464,-0.00976,0.00488,-0.00244,-0.00976,0.0122,-0.01464,-0.0244,0,-0.00976,-0.00488,-0.0488
0.01464,-0.00976,0.00488,-0.00244,-0.00976,0.0122,-0.01464,-0.01952,0,-0.01464,-0.01464,-0.0488
0.00976,-0.00244,-0.00488,-0.00976,-0.01464,0.0122,-0.01464,-0.01952,-0.00976,-0.01464,-0.01464,-0.05856
0,0,0,0,0,0,-0.01464,-0.01952,-0.00976,-0.01464,-0.00976,-0.05368
-0.00488,0.00732,-0.00976,-0.00732,-0.00488,0,-0.01464,-0.00976,0,0,0,-0.0488
-0.00488,0.01464,-0.0244,-0.02196,-0.01952,0.00732,-0.01464,-0.00976,0.00488,0,-0.00488,-0.05856
0,0.00976,-0.01952,-0.01952,-0.01952,0.00976,-0.01952,-0.01952,-0.01464,-0.00488,-0.00488,-0.05368
0,0.00976,-0.01952,-0.01952,-0.01952,0.00976,-0.01464,-0.01952,-0.00976,-0.00488,-0.00488,-0.05368
-0.00488,0.00976,-0.01464,-0.0122,-0.00976,0.00244,-0.01464,-0.00976,0,-0.01464,0,-0.05856
-0.00488,0.00732,-0.00976,-0.00732,-0.00488,0,-0.01464,-0.00976,0,-0.00976,0,-0.05368
0.00488,0.00244,-0.00976,-0.0122,-0.01464,0.00976,-0.01464,-0.01464,-0.00976,-0.01464,-0.00488,-0.05368
0.00488,0.00244,-0.00976,-0.0122,-0.01464,0.00976,-0.01464,-0.01464,-0.00488,-0.01464,-0.00488,-0.05368
0,0.00488,-0.00976,-0.00976,-0.00976,0.00488,-0.01464,-0.00488,0.00488,-0.00488,0.00488,-0.03904
0.00488,0.00244,-0.00976,-0.0122,-0.01464,0.00976,-0.01464,-0.00488,0.00488,-0.00488,0,-0.03904
0.01464,0,-0.01464,-0.02196,-0.02928,0.02196,-0.01952,-0.01464,0.00488,-0.00976,-0.00488,-0.05368
0.01464,0.00244,-0.01952,-0.02684,-0.03416,0.0244,-0.01952,-0.01952,0,-0.00976,0,-0.06344
0.01952,-0.00488,-0.00976,-0.01952,-0.02928,0.0244,-0.0244,-0.01464,0,-0.00976,-0.00488,-0.06344
0.01952,-0.00976,0,-0.00976,-0.01952,0.01952,-0.02928,-0.00976,-0.00488,-0.01464,-0.00488,-0.06832
0.01464,-0.00244,-0.00976,-0.01708,-0.0244,0.01952,-0.01952,-0.00976,0.00488,-0.01464,-0.01464,-0.0488
0,0.00488,-0.00976,-0.00976,-0.00976,0.00488,-0.01952,-0.00976,0.00488,-0.01464,-0.01464,-0.0488
0,0.00732,-0.01464,-0.01464,-0.01464,0.00732,-0.01464,-0.00488,-0.00488,-0.01464,-0.00488,-0.04392
0,0.00488,-0.00976,-0.00976,-0.00976,0.00488,-0.01464,-0.00488,0,-0.01464,-0.00488,-0.0488
0,0.00488,-0.00976,-0.00976,-0.00976,0.00488,-0.01952,-0.00488,-0.00976,-0.01464,-0.00976,-0.0488
0.00976,0,-0.00976,-0.01464,-0.01952,0.01464,-0.01952,-0.00488,-0.01464,-0.01952,-0.00976,-0.04392
0.01464,0,-0.01464,-0.02196,-0.02928,0.02196,-0.0244,-0.00976,-0.02928,-0.02928,-0.01952,-0.05368
0.00488,0.00488,-0.01464,-0.01708,-0.01952,0.0122,-0.01952,-0.01464,-0.0244,-0.03904,-0.02928,-0.05856
0.00488,0.00488,-0.01464,-0.01708,-0.01952,0.0122,-0.01952,-0.00488,-0.01464,-0.01952,-0.00976,-0.05856
0.00488,0.00488,-0.01464,-0.01708,-0.01952,0.0122,-0.01952,-0.01464,-0.00976,-0.00976,0.00488,-0.05856
0.00488,0.00488,-0.01464,-0.01708,-0.01952,0.0122,-0.01952,-0.0244,-0.00488,-0.00976,-0.00976,-0.05856
0.00488,0.00732,-0.01952,-0.02196,-0.0244,0.01464,-0.01952,-0.01464,-0.00488,-0.00976,-0.00976,-0.05856
0.00976,0.00976,-0.02928,-0.03416,-0.03904,0.0244,-0.01952,-0.0244,0,-0.00976,-0.00976,-0.06832
0.01464,0.00488,-0.0244,-0.03172,-0.03904,0.02684,-0.01952,-0.0244,-0.01464,-0.01464,-0.00976,-0.0732
-0.00488,0.01464,-0.0244,-0.02196,-0.01952,0.00732,-0.00976,-0.01952,-0.01464,-0.00976,-0.00976,-0.06344
-0.00488,0.01464,-0.0244,-0.02196,-0.01952,0.00732,-0.00976,-0.01952,-0.00976,-0.00976,-0.01464,-0.06344
-0.00488,0.01708,-0.02928,-0.02684,-0.0244,0.00976,-0.01464,-0.02928,-0.01464,-0.0244,-0.01464,-0.06832
0,0.01708,-0.03416,-0.03416,-0.03416,0.01708,-0.01464,-0.02928,-0.01464,-0.02928,-0.01952,-0.06832
0.00976,0.00732,-0.0244,-0.02928,-0.03416,0.02196,-0.01952,-0.0244,-0.0244,-0.03904,-0.02928,-0.06832
0.01464,0.00488,-0.0244,-0.03172,-0.03904,0.02684,-0.01952,-0.0244,-0.0244,-0.03904,-0.03904,-0.0732
0.01952,0,-0.01952,-0.02928,-0.03904,0.02928,-0.01952,-0.01464,-0.01952,-0.02928,-0.01952,-0.06832
0.01464,0.00244,-0.01952,-0.02684,-0.03416,0.0244,-0.01952,-0.01464,-0.01952,-0.03416,-0.00976,-0.06832
0.00488,0.01464,-0.03416,-0.0366,-0.03904,0.02196,-0.01464,-0.00976,-0.01952,-0.0244,-0.01952,-0.05856
0,0.01708,-0.03416,-0.03416,-0.03416,0.01708,-0.01464,-0.01464,-0.01464,-0.01952,-0.01952,-0.05856
0.00976,0.00976,-0.02928,-0.03416,-0.03904,0.0244,-0.01464,-0.01464,-0.01464,-0.01952,-0.01952,-0.06832
0,0.01464,-0.02928,-0.02928,-0.02928,0.01464,-0.01464,-0.01952,-0.01464,-0.01952,-0.01464,-0.0732
-0.00488,0.01708,-0.02928,-0.02684,-0.0244,0.00976,-0.01464,-0.0244,-0.0244,-0.02928,-0.0244,-0.08784
-0.00976,0.02196,-0.03416,-0.02928,-0.0244,0.00732,-0.01464,-0.0244,-0.02928,-0.02928,-0.02928,-0.08296
-0.00488,0.01952,-0.03416,-0.03172,-0.02928,0.0122,-0.01464,-0.0244,-0.03904,-0.04392,-0.02928,-0.0732
-0.00488,0.01952,-0.03416,-0.03172,-0.02928,0.0122,-0.01464,-0.0244,-0.02928,-0.03904,-0.02928,-0.07808
0.00488,0.01708,-0.03904,-0.04148,-0.04392,0.0244,-0.01464,-0.03416,-0.01952,-0.02928,-0.0244,-0.0732
0.00488,0.01464,-0.03416,-0.0366,-0.03904,0.02196,-0.01464,-0.0244,-0.01952,-0.02928,-0.0244,-0.06832
0.00488,0.00976,-0.0244,-0.02684,-0.02928,0.01708,-0.01464,-0.0244,-0.01952,-0.0244,-0.01952,-0.0732
0.00488,0.00488,-0.01464,-0.01708,-0.01952,0.0122,-0.01464,-0.02928,-0.01952,-0.0244,-0.00488,-0.08296
0.00488,0.00488,-0.01464,-0.01708,-0.01952,0.0122,-0.0244,-0.01952,-0.01464,-0.0244,-0.01464,-0.07808
0.00488,0.00488,-0.01464,-0.01708,-0.01952,0.0122,-0.01952,-0.01952,-0.01464,-0.02928,-0.02928,-0.07808
-0.00488,0.01952,-0.03416,-0.03172,-0.02928,0.0122,-0.00976,-0.01952,-0.03416,-0.03904,-0.03416,-0.06832
-0.00976,0.02684,-0.04392,-0.03904,-0.03416,0.0122,-0.01952,-0.0244,-0.03416,-0.04392,-0.03416,-0.0732
-0.00488,0.02196,-0.03904,-0.0366,-0.03416,0.01464,-0.01952,-0.0244,-0.0244,-0.04392,-0.0244,-0.07808
-0.01464,0.01952,-0.0244,-0.01708,-0.00976,-0.00244,-0.01952,-0.0244,-0.0244,-0.04392,-0.0244,-0.08784
-0.00488,0.01952,-0.03416,-0.03172,-0.02928,0.0122,-0.01464,-0.02928,-0.02928,-0.03904,-0.03416,-0.07808
-0.00488,0.01952,-0.03416,-0.03172,-0.02928,0.0122,-0.01464,-0.0244,-0.02928,-0.04392,-0.03416,-0.07808
0.00488,0.00732,-0.01952,-0.02196,-0.0244,0.01464,-0.00488,-0.01952,-0.01952,-0.03416,-0.0244,-0.08784
-0.00976,0.01708,-0.0244,-0.01952,-0.01464,0.00244,-0.00488,-0.01952,-0.01952,-0.03416,-0.0244,-0.09272
0.00976,0.00488,-0.01952,-0.0244,-0.02928,0.01952,-0.01952,-0.01952,-0.00976,-0.02928,-0.02928,-0.08784
0.00976,0.00976,-0.02928,-0.03416,-0.03904,0.0244,-0.00976,-0.02928,-0.01952,-0.03904,-0.02928,-0.07808
0.00976,0.00976,-0.02928,-0.03416,-0.03904,0.0244,-0.00976,-0.02928,-0.02928,-0.03904,-0.02928,-0.07808
-0.01952,0.02928,-0.03904,-0.02928,-0.01952,0,-0.0244,-0.0244,-0.02928,-0.03904,-0.02928,-0.0976
-0.02928,0.03416,-0.03904,-0.0244,-0.00976,-0.00976,-0.01952,-0.0244,-0.02928,-0.03904,-0.02928,-0.10736
-0.00976,0.0244,-0.03904,-0.03416,-0.02928,0.00976,-0.01952,-0.01952,-0.03904,-0.0488,-0.03416,-0.09272
0.00976,0.01464,-0.03904,-0.04392,-0.0488,0.02928,-0.01952,-0.01952,-0.03904,-0.0488,-0.03416,-0.08296
0,0.01464,-0.02928,-0.02928,-0.02928,0.01464,-0.00976,-0.01952,-0.02928,-0.03904,-0.0244,-0.09272
-0.00976,0.0244,-0.03904,-0.03416,-0.02928,0.00976,-0.00488,-0.01952,-0.02928,-0.03904,-0.0244,-0.08784
-0.00976,0.02196,-0.03416,-0.02928,-0.0244,0.00732,0.00488,-0.01952,-0.01464,-0.02928,-0.01464,-0.0732
-0.00976,0.0122,-0.01464,-0.00976,-0.00488,-0.00244,0.00488,-0.01464,0.00488,-0.00488,-0.01464,-0.0732
0,0.00732,-0.01464,-0.01464,-0.01464,0.00732,0,-0.01464,-0.00488,-0.01464,-0.00488,-0.0732
0.00488,-0.00488,0.00488,0.00244,0,0.00244,0.00976,-0.00976,0.00488,-0.00976,-0.00488,-0.0732
-0.01464,-0.00244,0.01952,0.02684,0.03416,-0.0244,0.00488,-0.01464,0.01464,-0.00976,0.01464,-0.06832
-0.01952,0,0.01952,0.02928,0.03904,-0.02928,0.01952,-0.00488,0.01952,0.00488,0.01952,-0.06344
-0.01952,0.00976,0,0.00976,0.01952,-0.01952,0.04392,0.00976,0.02928,0.01464,0.00976,-0.06832
-0.00976,0.00244,0.00488,0.00976,0.01464,-0.0122,0.0488,0.01464,0.03416,0.01952,0.0244,-0.06832
-0.00488,-0.00732,0.01952,0.02196,0.0244,-0.01464,0.06344,0.01952,0.03416,0.01952,0.0244,-0.05368
0.00488,-0.01708,0.02928,0.02684,0.0244,-0.00976,0.05368,0.0244,0.02928,0.00488,0.00976,-0.05368
0.02928,-0.0366,0.04392,0.02928,0.01464,0.00732,0.0244,0.01464,0.02928,0.00976,0.01952,-0.06344
0.02928,-0.0366,0.04392,0.02928,0.01464,0.00732,0.00976,0.00488,0.01952,0.00976,0.01464,-0.06344
0.01952,-0.02684,0.03416,0.0244,0.01464,0.00244,-0.00976,-0.01464,0.00976,0,0.00488,-0.06344
0.01464,-0.0244,0.03416,0.02684,0.01952,-0.00244,-0.03416,-0.03416,-0.00976,-0.01464,0.00488,-0.0732
0.0244,-0.03416,0.04392,0.03172,0.01952,0.00244,-0.05368,-0.03904,-0.0244,-0.03416,-0.01464,-0.0732
0.04392,-0.04636,0.0488,0.02684,0.00488,0.01952,-0.05856,-0.03904,-0.0244,-0.02928,-0.0244,-0.0732
0.04392,-0.04392,0.04392,0.02196,0,0.02196,-0.05368,-0.03904,-0.0244,-0.02928,-0.01464,-0.0732
0.04392,-0.02928,0.01464,-0.00732,-0.02928,0.0366,-0.05368,-0.03904,-0.03416,-0.03904,-0.0244,-0.0732
0.04392,-0.02196,0,-0.02196,-0.04392,0.04392,-0.05368,-0.03416,-0.03416,-0.04392,-0.02928,-0.07808
0.03904,-0.00976,-0.01952,-0.03904,-0.05856,0.0488,-0.05856,-0.04392,-0.04392,-0.0488,-0.0244,-0.08784
0.0488,-0.0122,-0.0244,-0.0488,-0.0732,0.061,-0.05368,-0.05368,-0.05856,-0.05368,-0.0488,-0.10248
0.03904,-0.00244,-0.03416,-0.05368,-0.0732,0.05612,-0.05368,-0.05368,-0.06344,-0.06344,-0.05368,-0.10248
0.03416,-0.00488,-0.0244,-0.04148,-0.05856,0.04636,-0.05368,-0.06344,-0.05856,-0.06832,-0.04392,-0.10736
0.01952,-0.00732,-0.00488,-0.01464,-0.0244,0.02196,-0.04392,-0.0488,-0.0488,-0.05368,-0.03904,-0.11224
0.00488,0.00976,-0.0244,-0.02684,-0.02928,0.01708,-0.02928,-0.03904,-0.03904,-0.04392,-0.02928,-0.10248
0,0.02196,-0.04392,-0.04392,-0.04392,0.02196,-0.01952,-0.03416,-0.02928,-0.02928,-0.02928,-0.10248
-0.01464,0.03904,-0.06344,-0.05612,-0.0488,0.01708,-0.02928,-0.04392,-0.03904,-0.0488,-0.0488,-0.12688
-0.01464,0.04392,-0.0732,-0.06588,-0.05856,0.02196,-0.02928,-0.06344,-0.0488,-0.05368,-0.06344,-0.13176
-0.01464,0.04148,-0.06832,-0.061,-0.05368,0.01952,-0.02928,-0.05368,-0.06344,-0.0732,-0.05856,-0.13176
-0.00976,0.04148,-0.0732,-0.06832,-0.06344,0.02684,-0.02928,-0.0488,-0.06344,-0.0732,-0.05856,-0.13176
-0.0244,0.05124,-0.07808,-0.06588,-0.05368,0.01464,-0.01952,-0.0488,-0.05856,-0.0732,-0.05856,-0.122
-0.0244,0.05124,-0.07808,-0.06588,-0.05368,0.01464,-0.01952,-0.0488,-0.05856,-0.0732,-0.05856,-0.122
-0.0244,0.05368,-0.08296,-0.07076,-0.05856,0.01708,-0.01952,-0.0488,-0.0488,-0.06344,-0.05856,-0.12688
-0.0244,0.05124,-0.07808,-0.06588,-0.05368,0.01464,-0.01464,-0.04392,-0.0488,-0.06344,-0.05856,-0.122
-0.0244,0.05124,-0.07808,-0.06588,-0.05368,0.01464,-0.00976,-0.04392,-0.0488,-0.05368,-0.05368,-0.11712
-0.0244,0.05124,-0.07808,-0.06588,-0.05368,0.01464,-0.00976,-0.04392,-0.0488,-0.05856,-0.05368,-0.11712
0.00488,0.01952,-0.04392,-0.04636,-0.0488,0.02684,-0.00976,-0.0244,-0.05856,-0.0488,-0.0488,-0.122
-0.03904,0.05856,-0.07808,-0.05856,-0.03904,0,-0.00488,-0.0244,-0.0488,-0.05856,-0.05856,-0.13664
-0.02928,0.061,-0.09272,-0.07808,-0.06344,0.01708,0.03904,0.01952,-0.01952,-0.03416,-0.03904,-0.12688
-0.05856,0.08296,-0.10736,-0.07808,-0.0488,-0.00488,0.07808,0.06344,0.01464,-0.00488,-0.01952,-0.122
0.00488,0.04636,-0.0976,-0.10004,-0.10248,0.05368,0.11712,0.20008,0.06832,0.03904,0.0244,-0.08784
0.07808,-0.00732,-0.06344,-0.10248,-0.14152,0.1098,0.19032,0.42456,0.23424,0.1708,0.12688,-0.00976
0.26352,-0.18056,0.0976,-0.03416,-0.16592,0.21472,0.1952,0.61,0.41968,0.34648,0.30744,0.16104
0.47824,-0.38796,0.29768,0.05856,-0.18056,0.3294,0,0.5124,0.45384,0.43432,0.4392,0.3172
0.60024,-0.52948,0.45872,0.1586,-0.14152,0.37088,-0.25376,0.19032,0.30744,0.37576,0.44408,0.40504
0.66856,-0.66124,0.65392,0.31964,-0.01464,0.3416,-0.5124,-0.15616,0.09272,0.25864,0.3904,0.47336
0.59048,-0.6588,0.72712,0.43188,0.13664,0.22692,-0.5856,-0.36112,-0.0244,0.20496,0.37576,0.49776
0.47336,-0.55876,0.64416,0.40748,0.1708,0.15128,-0.5124,-0.42456,-0.12688,0.11224,0.30744,0.44408
0.28792,-0.34648,0.40504,0.26108,0.11712,0.0854,-0.4148,-0.4636,-0.28304,-0.05856,0.12688,0.22936
0.09272,-0.11956,0.1464,0.10004,0.05368,0.01952,-0.32208,-0.55632,-0.4392,-0.28304,-0.1708,-0.06344
-0.01464,-0.02684,0.06832,0.07564,0.08296,-0.0488,-0.35624,-0.6588,-0.47336,-0.37576,-0.28304,-0.17568
-0.03416,-0.00732,0.0488,0.06588,0.08296,-0.05856,-0.30744,-0.5612,-0.42456,-0.32696,-0.23912,-0.17568
-0.0244,-0.00732,0.03904,0.05124,0.06344,-0.04392,-0.1952,-0.35136,-0.29768,-0.24888,-0.17568,-0.16104
-0.04392,0.00488,0.03416,0.05612,0.07808,-0.061,-0.13664,-0.22448,-0.18544,-0.15616,-0.11712,-0.15128
-0.01952,0,0.01952,0.02928,0.03904,-0.02928,-0.10248,-0.1708,-0.10248,-0.10248,-0.08296,-0.13176
-0.01952,0.02196,-0.0244,-0.01464,-0.00488,-0.00732,-0.07808,-0.14152,-0.0976,-0.08296,-0.05856,-0.122
-0.00976,0.00976,-0.00976,-0.00488,0,-0.00488,-0.0488,-0.10736,-0.10736,-0.09272,-0.05856,-0.13176
-0.0488,0.05124,-0.05368,-0.02928,-0.00488,-0.02196,-0.01464,-0.0732,-0.09272,-0.08784,-0.06344,-0.15128
-0.04392,0.0488,-0.05368,-0.03172,-0.00976,-0.01708,0,-0.06344,-0.06344,-0.05368,-0.04392,-0.15128
-0.03904,0.04148,-0.04392,-0.0244,-0.00488,-0.01708,-0.00488,-0.06832,-0.05368,-0.05368,-0.04392,-0.14152
-0.03416,0.04392,-0.05368,-0.0366,-0.01952,-0.00732,-0.01952,-0.07808,-0.06832,-0.08296,-0.05856,-0.16104
-0.0488,0.05612,-0.06344,-0.03904,-0.01464,-0.01708,-0.00976,-0.06344,-0.0732,-0.07808,-0.06344,-0.1708
-0.05856,0.05612,-0.05368,-0.0244,0.00488,-0.03172,0.00976,-0.0488,-0.05368,-0.06344,-0.05368,-0.1708
-0.0488,0.0488,-0.0488,-0.0244,0,-0.0244,0.00976,-0.0488,-0.05368,-0.06344,-0.0488,-0.15616
-0.0488,0.05368,-0.05856,-0.03416,-0.00976,-0.01952,0.00488,-0.0488,-0.05856,-0.06832,-0.05856,-0.15616
-0.05368,0.05612,-0.05856,-0.03172,-0.00488,-0.0244,0.00488,-0.03904,-0.06832,-0.07808,-0.05856,-0.16104
-0.0488,0.05612,-0.06344,-0.03904,-0.01464,-0.01708,0.00976,-0.03904,-0.05856,-0.07808,-0.05368,-0.16104
-0.05368,0.061,-0.06832,-0.04148,-0.01464,-0.01952,0.00976,-0.03904,-0.06344,-0.06344,-0.0488,-0.15616
-0.05368,0.05856,-0.06344,-0.0366,-0.00976,-0.02196,0.0244,-0.02928,-0.05368,-0.06832,-0.05856,-0.16592
-0.03904,0.05124,-0.06344,-0.04392,-0.0244,-0.00732,0.0244,-0.02928,-0.05368,-0.06832,-0.05856,-0.16104
-0.0488,0.061,-0.0732,-0.0488,-0.0244,-0.0122,0.01464,-0.03416,-0.04392,-0.06344,-0.05368,-0.15616
-0.05856,0.06588,-0.0732,-0.04392,-0.01464,-0.02196,0.01464,-0.03416,-0.04392,-0.06344,-0.05368,-0.15616
-0.03904,0.05124,-0.06344,-0.04392,-0.0244,-0.00732,0.01952,-0.03416,-0.05368,-0.05856,-0.05368,-0.16592
-0.03416,0.04392,-0.05368,-0.0366,-0.01952,-0.00732,0.01952,-0.03416,-0.05368,-0.06344,-0.05368,-0.16592
-0.02928,0.03904,-0.0488,-0.03416,-0.01952,-0.00488,0.02928,-0.0244,-0.04392,-0.05856,-0.04392,-0.16104
-0.03904,0.0488,-0.05856,-0.03904,-0.01952,-0.00976,0.02928,-0.0244,-0.04392,-0.0488,-0.04392,-0.16104
-0.03904,0.05368,-0.06832,-0.0488,-0.02928,-0.00488,0.02928,-0.02928,-0.03416,-0.05368,-0.04392,-0.1708
-0.0488,0.05612,-0.06344,-0.03904,-0.01464,-0.01708,0.02928,-0.02928,-0.02928,-0.05368,-0.04392,-0.17568
-0.04392,0.0488,-0.05368,-0.03172,-0.00976,-0.01708,0.01952,-0.02928,-0.03904,-0.04392,-0.0488,-0.17568
-0.03904,0.04636,-0.05368,-0.03416,-0.01464,-0.0122,0.01952,-0.02928,-0.03904,-0.04392,-0.05368,-0.17568
-0.0488,0.05856,-0.06832,-0.04392,-0.01952,-0.01464,0.03416,-0.01952,-0.03904,-0.0488,-0.0488,-0.16592
