i,aVR,ii,aVF,iii,aVL,V1,V2,V3,V4,V5,V6
-0.03416,-0.00488,0.04392,0.061,0.07808,-0.05612,-0.01952,-0.00488,0.05368,0.0488,0.03416,0.0244
-0.03904,0.00244,0.03416,0.05368,0.0732,-0.05612,-0.00488,-0.00976,0.05368,0.03904,0.03904,0.02928
-0.02928,-0.00488,0.03904,0.05368,0.06832,-0.0488,-0.00488,0,0.05368,0.04392,0.03904,0.02928
0,-0.0366,0.0732,0.0732,0.0732,-0.0366,-0.01952,0.00976,0.06344,0.06832,0.06344,0.05368
0.0244,-0.06344,0.10248,0.09028,0.07808,-0.02684,-0.02928,0,0.0732,0.07808,0.0732,0.06832
0.00976,-0.05612,0.10248,0.0976,0.09272,-0.04148,-0.04392,-0.01952,0.0732,0.07808,0.08296,0.0732
0.01464,-0.05368,0.09272,0.0854,0.07808,-0.03172,-0.07808,-0.03904,0.0488,0.05856,0.06832,0.06832
0.0244,-0.04636,0.06832,0.05612,0.04392,-0.00976,-0.10736,-0.05856,0.01464,0.02928,0.03904,0.04392
0.03416,-0.05368,0.0732,0.05612,0.03904,-0.00244,-0.11224,-0.06344,0.00488,0.0244,0.03416,0.03416
0.05856,-0.06344,0.06832,0.03904,0.00976,0.0244,-0.10736,-0.06832,0,0.00488,0.01952,0.02928
0.03904,-0.0488,0.05856,0.03904,0.01952,0.00976,-0.09272,-0.06344,0,0.00488,0.01464,0.01464
0.0244,-0.03172,0.03904,0.02684,0.01464,0.00488,-0.0732,-0.05368,-0.01464,0.00488,0,0
0.00976,-0.01464,0.01952,0.01464,0.00976,0,-0.06344,-0.04392,-0.01464,-0.00488,0,0
-0.01952,0.00488,0.00976,0.01952,0.02928,-0.0244,-0.03904,-0.03416,0,0,0.00976,0.00488
-0.0244,0.0122,0,0.0122,0.0244,-0.0244,-0.02928,-0.02928,0,0,0.00976,0.00488
-0.0244,0.0122,0,0.0122,0.0244,-0.0244,-0.02928,-0.0244,0,-0.00976,0,-0.00488
-0.02928,0.02684,-0.0244,-0.00976,0.00488,-0.01708,-0.02928,-0.0244,-0.01952,-0.01952,-0.01464,-0.01952
-0.03904,0.04392,-0.0488,-0.02928,-0.00976,-0.01464,-0.02928,-0.03904,-0.02928,-0.02928,-0.03416,-0.03904
-0.05368,0.05612,-0.05856,-0.03172,-0.00488,-0.0244,-0.02928,-0.03416,-0.03416,-0.03416,-0.03416,-0.03904
-0.06832,0.06832,-0.06832,-0.03416,0,-0.03416,-0.01464,-0.03416,-0.03416,-0.03416,-0.03416,-0.03904
-0.07808,0.07564,-0.0732,-0.03416,0.00488,-0.04148,-0.00976,-0.03416,-0.03416,-0.03416,-0.03416,-0.03904
-0.07808,0.08052,-0.08296,-0.04392,-0.00488,-0.0366,-0.01464,-0.03416,-0.03416,-0.04392,-0.04392,-0.05856
-0.09272,0.09028,-0.08784,-0.04148,0.00488,-0.0488,-0.00488,-0.03904,-0.03416,-0.0488,-0.04392,-0.05856
-0.09272,0.09516,-0.0976,-0.05124,-0.00488,-0.04392,-0.00488,-0.03904,-0.03416,-0.03904,-0.03416,-0.0488
-0.0976,0.10004,-0.10248,-0.05368,-0.00488,-0.04636,-0.00488,-0.03416,-0.03416,-0.03904,-0.03416,-0.0488
-0.0976,0.09516,-0.09272,-0.04392,0.00488,-0.05124,-0.00488,-0.03416,-0.0244,-0.02928,-0.0244,-0.03904
-0.0976,0.09516,-0.09272,-0.04392,0.00488,-0.05124,-0.00488,-0.03416,-0.0244,-0.02928,-0.0244,-0.03904
-0.0976,0.09028,-0.08296,-0.03416,0.01464,-0.05612,-0.00976,-0.03416,-0.0244,-0.02928,-0.0244,-0.03904
-0.10736,0.10492,-0.10248,-0.0488,0.00488,-0.05612,0.01952,-0.01952,-0.01952,-0.01952,-0.04392,-0.04392
-0.12688,0.12688,-0.12688,-0.06344,0,-0.06344,0.04392,0,-0.00488,-0.0244,-0.03416,-0.04392
-0.13176,0.11956,-0.10736,-0.04148,0.0244,-0.07808,0.0976,0.0488,0.0488,0.0244,-0.00976,-0.0244
-0.10736,0.0976,-0.08784,-0.03416,0.01952,-0.06344,0.10248,0.10736,0.08784,0.06344,0.03904,0.01464
0.01952,0.0122,-0.04392,-0.05368,-0.06344,0.04148,0.05368,0.15616,0.11224,0.10248,0.0732,0.03904
0.16592,-0.07564,-0.01464,-0.0976,-0.18056,0.17324,0.00976,0.21472,0.11224,0.12688,0.09272,0.06832
0.33184,-0.16836,0.00488,-0.16104,-0.32696,0.3294,-0.06344,0.20496,0.08296,0.11224,0.08784,0.08296
0.49288,-0.25376,0.01464,-0.2318,-0.47824,0.48556,-0.16104,0.15128,0.01464,0.07808,0.06344,0.08784
0.60024,-0.32452,0.0488,-0.25132,-0.55144,0.57584,-0.25864,0.06832,-0.05368,0.02928,0.03416,0.0732
0.66368,-0.39284,0.122,-0.20984,-0.54168,0.60268,-0.38064,-0.08296,-0.14152,0,0.03904,0.10248
0.5856,-0.41236,0.23912,-0.05368,-0.34648,0.46604,-0.48312,-0.35624,-0.23424,-0.0488,0.05856,0.1464
0.40016,-0.3416,0.28304,0.08296,-0.11712,0.25864,-0.47336,-0.53192,-0.30256,-0.11224,0.01952,0.11712
0.00488,-0.01952,0.03416,0.03172,0.02928,-0.0122,-0.36112,-0.67832,-0.488,-0.38552,-0.24888,-0.1708
-0.24888,0.26352,-0.27816,-0.15372,-0.02928,-0.1098,-0.2684,-0.77592,-0.71248,-0.66856,-0.53192,-0.4636
-0.33672,0.38064,-0.42456,-0.2562,-0.08784,-0.12444,-0.244,-0.8296,-0.82472,-0.77592,-0.64904,-0.56608
-0.28792,0.40992,-0.53192,-0.38796,-0.244,-0.02196,-0.2196,-0.7564,-0.87352,-0.84424,-0.72224,-0.62952
-0.25376,0.37332,-0.49288,-0.366,-0.23912,-0.00732,-0.20984,-0.64904,-0.79544,-0.77104,-0.66856,-0.59536
-0.22936,0.32208,-0.4148,-0.30012,-0.18544,-0.02196,-0.15616,-0.50264,-0.65392,-0.62464,-0.54168,-0.48312
-0.20008,0.28548,-0.37088,-0.27084,-0.1708,-0.01464,-0.10248,-0.39528,-0.5368,-0.51728,-0.45384,-0.40016
-0.20984,0.24644,-0.28304,-0.17812,-0.0732,-0.06832,-0.06832,-0.3172,-0.40504,-0.38552,-0.33672,-0.29768
-0.2196,0.20984,-0.20008,-0.09028,0.01952,-0.11956,-0.03904,-0.23424,-0.27816,-0.26352,-0.22936,-0.20984
-0.19032,0.16836,-0.1464,-0.05124,0.04392,-0.11712,-0.03416,-0.15128,-0.1708,-0.16592,-0.13664,-0.13664
-0.15616,0.13908,-0.122,-0.04392,0.03416,-0.09516,-0.02928,-0.11224,-0.122,-0.11224,-0.0976,-0.0976
-0.11224,0.1098,-0.10736,-0.05124,0.00488,-0.05856,-0.00488,-0.07808,-0.09272,-0.08784,-0.0732,-0.0732
-0.122,0.11468,-0.10736,-0.04636,0.01464,-0.06832,0.01464,-0.05856,-0.05856,-0.05856,-0.04392,-0.05856
-0.122,0.11468,-0.10736,-0.04636,0.01464,-0.06832,0.0244,-0.01952,-0.0488,-0.0488,-0.03416,-0.05368
-0.122,0.11468,-0.10736,-0.04636,0.01464,-0.06832,0.02928,-0.01464,-0.03904,-0.04392,-0.03904,-0.05368
-0.10736,0.10492,-0.10248,-0.0488,0.00488,-0.05612,0.02928,-0.01952,-0.03416,-0.0488,-0.0488,-0.05368
-0.11224,0.10492,-0.0976,-0.04148,0.01464,-0.06344,0.02928,-0.01464,-0.0244,-0.04392,-0.04392,-0.0488
-0.11224,0.10248,-0.09272,-0.0366,0.01952,-0.06588,0.02928,-0.0244,-0.0244,-0.02928,-0.03416,-0.03904
-0.11224,0.10248,-0.09272,-0.0366,0.01952,-0.06588,0.03416,-0.00976,-0.0244,-0.02928,-0.02928,-0.03904
-0.0976,0.09272,-0.08784,-0.03904,0.00976,-0.05368,0.03416,-0.00488,-0.00976,-0.01464,-0.01952,-0.02928
-0.09272,0.09028,-0.08784,-0.04148,0.00488,-0.0488,0.03904,0,-0.00488,-0.00488,-0.00976,-0.01952
-0.0976,0.09028,-0.08296,-0.03416,0.01464,-0.05612,0.03904,0.00976,-0.00488,-0.00976,-0.01464,-0.0244
-0.0976,0.09028,-0.08296,-0.03416,0.01464,-0.05612,0.03416,0.01464,-0.00488,-0.01464,-0.0244,-0.01952
-0.0976,0.09516,-0.09272,-0.04392,0.00488,-0.05124,0.03416,0.01952,-0.00488,-0.01464,-0.02928,-0.02928
-0.0976,0.0976,-0.0976,-0.0488,0,-0.0488,0.03416,0.01952,0,-0.01464,-0.0244,-0.0244
-0.09272,0.08784,-0.08296,-0.0366,0.00976,-0.05124,0.03904,0.01952,0.00488,-0.00976,-0.00976,-0.0244
-0.09272,0.08784,-0.08296,-0.0366,0.00976,-0.05124,0.03904,0.0244,0.00488,-0.00488,-0.00976,-0.01952
-0.09272,0.08784,-0.08296,-0.0366,0.00976,-0.05124,0.03904,0.0244,0.00488,0,-0.00976,-0.01952
-0.09272,0.08784,-0.08296,-0.0366,0.00976,-0.05124,0.03904,0.02928,0.00976,0,-0.00976,-0.0244
-0.08296,0.08052,-0.07808,-0.0366,0.00488,-0.04392,0.03904,0.01952,0,-0.00976,-0.01952,-0.01952
-0.07808,0.07808,-0.07808,-0.03904,0,-0.03904,0.03904,0.0244,0.00488,-0.00976,-0.01952,-0.01464
-0.08296,0.08052,-0.07808,-0.0366,0.00488,-0.04392,0.03904,0.03416,0.01464,0.00488,0,-0.01464
-0.09272,0.08296,-0.0732,-0.02684,0.01952,-0.05612,0.03904,0.03416,0.01952,0.00976,0,-0.00976
-0.09272,0.07808,-0.06344,-0.01708,0.02928,-0.061,0.03904,0.02928,0.01464,0.01464,-0.00488,-0.01952
-0.08784,0.07564,-0.06344,-0.01952,0.0244,-0.05612,0.03904,0.03416,0.01464,0.01464,0,-0.01952
-0.0732,0.06344,-0.05368,-0.01708,0.01952,-0.04636,0.03904,0.03904,0.02928,0.01464,0,-0.00488
-0.0732,0.061,-0.0488,-0.0122,0.0244,-0.0488,0.03904,0.04392,0.02928,0.01464,0.00488,-0.00488
-0.06832,0.05612,-0.04392,-0.00976,0.0244,-0.04636,0.03416,0.05368,0.0244,0.02928,0.01464,0
-0.05856,0.04636,-0.03416,-0.00488,0.0244,-0.04148,0.03416,0.05368,0.03416,0.02928,0.01952,0.00976
-0.0488,0.0366,-0.0244,0,0.0244,-0.0366,0.03416,0.06344,0.0488,0.03904,0.02928,0.01464
-0.03904,0.02684,-0.01464,0.00488,0.0244,-0.03172,0.03416,0.06832,0.05368,0.04392,0.03416,0.01952
-0.03904,0.02928,-0.01952,0,0.01952,-0.02928,0.03416,0.08784,0.06832,0.05856,0.03904,0.02928
-0.03416,0.02196,-0.00976,0.00732,0.0244,-0.02928,0.03416,0.0976,0.0732,0.06344,0.0488,0.03904
-0.0244,0.01464,-0.00488,0.00732,0.01952,-0.02196,0.03416,0.0976,0.08296,0.07808,0.05856,0.04392
-0.00976,0,0.00976,0.01464,0.01952,-0.01464,0.03416,0.11224,0.09272,0.08784,0.06832,0.05368
0,-0.00732,0.01464,0.01464,0.01464,-0.00732,0.03416,0.12688,0.10736,0.0976,0.08296,0.06344
0.0244,-0.02684,0.02928,0.01708,0.00488,0.00976,0.02928,0.14152,0.11712,0.11224,0.08784,0.0732
0.03904,-0.04392,0.0488,0.02928,0.00976,0.01464,0.02928,0.15128,0.13664,0.13176,0.10248,0.08296
0.05856,-0.05856,0.05856,0.02928,0,0.02928,0.0244,0.16592,0.15128,0.1464,0.11712,0.09272
0.07808,-0.07564,0.0732,0.03416,-0.00488,0.04148,0.0244,0.19032,0.15616,0.16104,0.12688,0.11712
0.08784,-0.08784,0.08784,0.04392,0,0.04392,0.0244,0.20008,0.16592,0.17568,0.14152,0.12688
0.10736,-0.10492,0.10248,0.0488,-0.00488,0.05612,0.01952,0.20008,0.18056,0.19032,0.16592,0.14152
0.11712,-0.11468,0.11224,0.05368,-0.00488,0.061,0.01952,0.20496,0.19032,0.20008,0.1708,0.1464
0.13664,-0.13176,0.12688,0.05856,-0.00976,0.0732,0.01464,0.21472,0.1952,0.20496,0.18056,0.15616
0.15128,-0.14396,0.13664,0.061,-0.01464,0.08296,0.00976,0.21472,0.20496,0.21472,0.19032,0.16104
0.15128,-0.1464,0.14152,0.06588,-0.00976,0.08052,0.00976,0.2196,0.21472,0.2196,0.18056,0.15128
0.16104,-0.15128,0.14152,0.061,-0.01952,0.09028,0.00488,0.2196,0.2196,0.2196,0.18544,0.15616
0.16104,-0.15616,0.15128,0.07076,-0.00976,0.0854,0.00488,0.21472,0.20984,0.20984,0.18544,0.16104
0.16104,-0.15616,0.15128,0.07076,-0.00976,0.0854,0.00488,0.20984,0.20984,0.21472,0.18544,0.16104
0.1708,-0.16104,0.15128,0.06588,-0.01952,0.09516,0,0.21472,0.20984,0.21472,0.19032,0.16104
0.16592,-0.1586,0.15128,0.06832,-0.01464,0.09028,-0.00488,0.20984,0.20496,0.21472,0.18544,0.16104
0.16592,-0.15372,0.14152,0.05856,-0.0244,0.09516,-0.00976,0.1952,0.1952,0.20984,0.18544,0.16104
0.15616,-0.14884,0.14152,0.06344,-0.01464,0.0854,-0.00976,0.17568,0.18544,0.20008,0.1708,0.15128
0.1464,-0.14152,0.13664,0.06344,-0.00976,0.07808,-0.01464,0.15128,0.1708,0.18544,0.16104,0.14152
0.13664,-0.12444,0.11224,0.04392,-0.0244,0.08052,-0.01464,0.13176,0.16104,0.1708,0.15128,0.13176
0.10248,-0.10492,0.10736,0.05612,0.00488,0.0488,-0.01952,0.11712,0.13176,0.15128,0.14152,0.122
0.08784,-0.09028,0.09272,0.0488,0.00488,0.04148,-0.01952,0.0976,0.11712,0.13664,0.122,0.10736
0.06344,-0.0732,0.08296,0.05124,0.01952,0.02196,-0.01952,0.07808,0.10736,0.10736,0.09272,0.07808
0.0488,-0.05612,0.06344,0.03904,0.01464,0.01708,-0.01952,0.05856,0.08784,0.09272,0.07808,0.06344
0.02928,-0.03904,0.0488,0.03416,0.01952,0.00488,-0.01952,0.04392,0.06344,0.0732,0.06832,0.05368
0.00976,-0.01952,0.02928,0.0244,0.01952,-0.00488,-0.00976,0.03416,0.05368,0.06344,0.05368,0.04392
0,-0.0122,0.0244,0.0244,0.0244,-0.0122,-0.01952,0.0244,0.03416,0.04392,0.03416,0.04392
-0.00976,-0.00244,0.01464,0.01952,0.0244,-0.01708,-0.01952,0.01464,0.0244,0.0244,0.0244,0.02928
-0.02928,0.0122,0.00488,0.01952,0.03416,-0.03172,-0.01952,0.00488,0.01464,0.0244,0.0244,0.01952
-0.03904,0.02196,-0.00488,0.01464,0.03416,-0.0366,-0.00976,0,0.00976,0.01952,0.0244,0.01464
-0.03904,0.02928,-0.01952,0,0.01952,-0.02928,-0.00488,-0.00976,0.00488,0.01952,0.00488,-0.00488
-0.03904,0.02928,-0.01952,0,0.01952,-0.02928,0,-0.01464,0.00488,0.01464,0,0
-0.05368,0.03904,-0.0244,0.00244,0.02928,-0.04148,0,-0.01952,0.00488,0.00488,0.00488,-0.00488
-0.05368,0.03904,-0.0244,0.00244,0.02928,-0.04148,0,-0.01952,-0.00488,0,0,-0.00976
-0.05368,0.04392,-0.03416,-0.00732,0.01952,-0.0366,0.00976,-0.01464,-0.00488,0,0,-0.00976
-0.05856,0.0488,-0.03904,-0.00976,0.01952,-0.03904,0.00976,-0.01464,-0.00488,-0.00488,0,-0.00976
-0.05856,0.04392,-0.02928,0,0.02928,-0.04392,0,-0.01464,-0.00488,-0.00488,-0.00976,-0.01464
-0.05856,0.04148,-0.0244,0.00488,0.03416,-0.04636,0,-0.01464,-0.00488,-0.00488,-0.01464,-0.01464
-0.05856,0.04148,-0.0244,0.00488,0.03416,-0.04636,0,-0.01464,-0.00488,0.00488,-0.00488,-0.00488
-0.05856,0.04148,-0.0244,0.00488,0.03416,-0.04636,0,-0.01464,-0.00488,0.00488,-0.00488,-0.00488
-0.0488,0.03416,-0.01952,0.00488,0.02928,-0.03904,0,-0.01464,-0.00488,-0.00488,-0.00488,-0.00488
-0.0488,0.03416,-0.01952,0.00488,0.02928,-0.03904,0,-0.01464,-0.00488,-0.00488,0,-0.00488
-0.0488,0.02928,-0.00976,0.01464,0.03904,-0.04392,0.00976,-0.01464,-0.00488,0.00488,0,0
-0.0488,0.02928,-0.00976,0.01464,0.03904,-0.04392,0.00976,-0.01464,-0.00488,0.00488,0,-0.00488
-0.05856,0.02928,0,0.02928,0.05856,-0.05856,0,-0.01464,-0.00488,0.00488,0.00488,0.00488
-0.05856,0.02928,0,0.02928,0.05856,-0.05856,0.00488,-0.00976,0,0.00488,0.00488,0.00488
-0.0488,0.02928,-0.00976,0.01464,0.03904,-0.04392,0.00488,-0.01952,-0.00976,0.00488,0.00488,-0.00488
-0.0488,0.02928,-0.00976,0.01464,0.03904,-0.04392,0,-0.01952,-0.00976,0.00976,0,-0.00488
-0.05368,0.03416,-0.01464,0.0122,0.03904,-0.04636,0,-0.00976,-0.00976,-0.00488,-0.00976,-0.00488
-0.05368,0.03172,-0.00976,0.01708,0.04392,-0.0488,0,-0.00976,-0.00976,-0.00488,-0.00976,-0.00488
-0.06344,0.03904,-0.01464,0.01708,0.0488,-0.05612,0.00976,-0.00976,-0.00976,-0.00488,-0.00976,-0.01464
-0.06344,0.03904,-0.01464,0.01708,0.0488,-0.05612,0.01464,-0.01464,-0.00976,-0.00488,-0.00976,-0.01464
-0.05856,0.04392,-0.02928,0,0.02928,-0.04392,0.00488,-0.01464,-0.00976,-0.00488,-0.00976,-0.01464
-0.05856,0.04392,-0.02928,0,0.02928,-0.04392,0.00488,-0.01464,-0.00976,-0.00488,-0.00488,-0.01464
-0.06344,0.04148,-0.01952,0.0122,0.04392,-0.05368,-0.00488,-0.01464,-0.00976,-0.00488,0.00488,-0.00488
-0.06344,0.04148,-0.01952,0.0122,0.04392,-0.05368,-0.00488,-0.01464,-0.01464,-0.00488,0,-0.00488
-0.06344,0.03904,-0.01464,0.01708,0.0488,-0.05612,-0.00488,-0.01464,-0.00488,0,0,-0.00488
-0.06344,0.0366,-0.00976,0.02196,0.05368,-0.05856,-0.00976,-0.01952,-0.00976,0,0,-0.00488
-0.05856,0.0366,-0.01464,0.01464,0.04392,-0.05124,-0.00488,-0.00488,-0.00976,-0.00976,-0.00976,-0.01464
-0.06344,0.03904,-0.01464,0.01708,0.0488,-0.05612,-0.00976,-0.00976,-0.00488,-0.00976,-0.00976,-0.01464
-0.05856,0.04636,-0.03416,-0.00488,0.0244,-0.04148,-0.00488,-0.00488,-0.01464,-0.01952,-0.0244,-0.0244
-0.05856,0.05124,-0.04392,-0.01464,0.01464,-0.0366,-0.00488,-0.00488,-0.01464,-0.01952,-0.0244,-0.0244
-0.06832,0.05612,-0.04392,-0.00976,0.0244,-0.04636,0.00488,-0.01464,-0.01464,-0.01464,-0.01464,-0.01952
-0.06344,0.05612,-0.0488,-0.01708,0.01464,-0.03904,0,-0.01464,-0.01464,-0.01464,-0.01464,-0.01952
-0.06344,0.05612,-0.0488,-0.01708,0.01464,-0.03904,0,-0.01464,-0.01464,-0.0244,-0.0244,-0.01952
-0.06344,0.05368,-0.04392,-0.0122,0.01952,-0.04148,0,-0.01952,-0.01952,-0.01952,-0.0244,-0.01952
-0.06344,0.0488,-0.03416,-0.00244,0.02928,-0.04636,-0.00976,-0.01952,-0.01952,-0.0244,-0.01952,-0.00976
-0.06344,0.0488,-0.03416,-0.00244,0.02928,-0.04636,-0.00488,-0.01952,-0.01952,-0.0244,-0.00976,-0.00976
-0.06344,0.04392,-0.0244,0.00732,0.03904,-0.05124,-0.00488,-0.01952,-0.00976,-0.01464,-0.00976,-0.00488
-0.06832,0.04636,-0.0244,0.00976,0.04392,-0.05612,-0.00488,-0.01952,-0.00976,-0.01464,-0.00976,-0.00488
-0.06832,0.04636,-0.0244,0.00976,0.04392,-0.05612,-0.00488,-0.01952,-0.0244,-0.01952,-0.01952,-0.00976
-0.0732,0.05124,-0.02928,0.00732,0.04392,-0.05856,-0.00488,-0.0244,-0.0244,-0.01464,-0.01952,-0.01952
-0.06344,0.0488,-0.03416,-0.00244,0.02928,-0.04636,0.00488,-0.0244,-0.0244,-0.0244,-0.0244,-0.01952
-0.06832,0.0488,-0.02928,0.00488,0.03904,-0.05368,0,-0.02928,-0.02928,-0.02928,-0.01952,-0.01952
-0.06832,0.0488,-0.02928,0.00488,0.03904,-0.05368,0,-0.02928,-0.02928,-0.02928,-0.01952,-0.01952
-0.06832,0.04392,-0.01952,0.01464,0.0488,-0.05856,0,-0.01952,-0.01464,-0.02928,-0.00976,-0.01952
-0.05856,0.03416,-0.00976,0.01952,0.0488,-0.05368,0,-0.01952,-0.00488,-0.01464,0,-0.00488
-0.0488,0.01464,0.01952,0.04392,0.06832,-0.05856,-0.00976,-0.0244,-0.00488,0.00488,0.00976,0.00488
-0.03416,-0.00488,0.04392,0.061,0.07808,-0.05612,-0.00976,-0.01464,0.00976,0.01952,0.02928,0.01464
-0.00976,-0.02684,0.06344,0.06832,0.0732,-0.04148,-0.00976,-0.01952,0.02928,0.0244,0.02928,0.02928
-0.01464,-0.03172,0.07808,0.0854,0.09272,-0.05368,-0.01464,-0.01952,0.03416,0.0244,0.03904,0.03904
-0.03416,-0.01708,0.06832,0.0854,0.10248,-0.06832,-0.00976,-0.01952,0.01952,0.01952,0.03416,0.03904
-0.03416,-0.00732,0.0488,0.06588,0.08296,-0.05856,-0.00976,-0.0244,0.0244,0.01952,0.03416,0.03416
-0.02928,-0.00732,0.04392,0.05856,0.0732,-0.05124,-0.00488,-0.00976,0.03416,0.01952,0.02928,0.02928
-0.01952,-0.01464,0.0488,0.05856,0.06832,-0.04392,-0.00488,0,0.03416,0.0244,0.02928,0.02928
0,-0.03904,0.07808,0.07808,0.07808,-0.03904,-0.01952,0.00976,0.05368,0.04392,0.06344,0.06344
0.0244,-0.07076,0.11712,0.10492,0.09272,-0.03416,-0.02928,0,0.06344,0.06344,0.0732,0.07808
0.02928,-0.07564,0.122,0.10736,0.09272,-0.03172,-0.05368,-0.02928,0.0488,0.05368,0.06832,0.06344
0.03416,-0.0732,0.11224,0.09516,0.07808,-0.02196,-0.08784,-0.0488,0.01464,0.0244,0.04392,0.05856
0.0244,-0.04636,0.06832,0.05612,0.04392,-0.00976,-0.0976,-0.05856,-0.01952,-0.00488,0.01952,0.03416
0.03416,-0.05368,0.0732,0.05612,0.03904,-0.00244,-0.10248,-0.06344,-0.01952,0,0.01464,0.0244
0.0488,-0.05856,0.06832,0.04392,0.01952,0.01464,-0.0976,-0.05856,-0.02928,-0.01464,0.01952,0.01464
0.02928,-0.04392,0.05856,0.04392,0.02928,0,-0.08296,-0.05368,-0.02928,-0.01464,0.01464,0.00976
0.0244,-0.0366,0.0488,0.0366,0.0244,0,-0.0732,-0.05368,-0.03416,-0.01464,0,0
0.00976,-0.01952,0.02928,0.0244,0.01952,-0.00488,-0.06344,-0.04392,-0.03416,-0.0244,0,0
0,-0.01464,0.02928,0.02928,0.02928,-0.01464,-0.03904,-0.03416,-0.02928,-0.01952,-0.00976,-0.00488
-0.00488,-0.00732,0.01952,0.02196,0.0244,-0.01464,-0.02928,-0.02928,-0.02928,-0.01952,-0.00976,-0.00488
-0.01464,0.00732,0,0.00732,0.01464,-0.01464,-0.02928,-0.0244,-0.03416,-0.01952,-0.00976,-0.00488
-0.01952,0.02196,-0.0244,-0.01464,-0.00488,-0.00732,-0.02928,-0.0244,-0.04392,-0.02928,-0.0244,-0.01952
-0.0488,0.04392,-0.03904,-0.01464,0.00976,-0.02928,-0.01952,-0.0488,-0.0488,-0.03904,-0.04392,-0.03904
-0.06344,0.05612,-0.0488,-0.01708,0.01464,-0.03904,-0.01952,-0.04392,-0.05368,-0.04392,-0.04392,-0.03904
-0.05856,0.05856,-0.05856,-0.02928,0,-0.02928,-0.01464,-0.04392,-0.05368,-0.05368,-0.05368,-0.03904
-0.06832,0.06588,-0.06344,-0.02928,0.00488,-0.0366,-0.00976,-0.04392,-0.05368,-0.05368,-0.05368,-0.03904
-0.08784,0.08052,-0.0732,-0.02928,0.01464,-0.05124,-0.00488,-0.04392,-0.05368,-0.04392,-0.05368,-0.0488
-0.10248,0.09028,-0.07808,-0.02684,0.0244,-0.06344,0.00488,-0.0488,-0.05368,-0.0488,-0.05368,-0.0488
-0.10248,0.0854,-0.06832,-0.01708,0.03416,-0.06832,0.01464,-0.03904,-0.05368,-0.0488,-0.05368,-0.0488
-0.10736,0.09028,-0.0732,-0.01952,0.03416,-0.07076,0.01464,-0.03416,-0.05368,-0.0488,-0.05368,-0.0488
-0.10736,0.09516,-0.08296,-0.02928,0.0244,-0.06588,0.01464,-0.03416,-0.04392,-0.0488,-0.05368,-0.03904
-0.10736,0.09516,-0.08296,-0.02928,0.0244,-0.06588,0.01464,-0.03416,-0.04392,-0.0488,-0.05368,-0.03904
-0.0976,0.0854,-0.0732,-0.0244,0.0244,-0.061,0.00976,-0.03416,-0.04392,-0.03904,-0.05368,-0.03904
-0.11712,0.10004,-0.08296,-0.0244,0.03416,-0.07564,0.02928,-0.01952,-0.0488,-0.0488,-0.04392,-0.04392
-0.11712,0.10736,-0.0976,-0.03904,0.01952,-0.06832,0.06344,0.00976,-0.03416,-0.04392,-0.04392,-0.04392
-0.13176,0.10004,-0.06832,-0.00244,0.06344,-0.0976,0.0976,0.05856,0.02928,-0.00488,-0.00976,-0.03416
-0.0976,0.07808,-0.05856,-0.00976,0.03904,-0.06832,0.10248,0.11712,0.07808,0.04392,0.02928,0.00488
0.01952,-0.00244,-0.01464,-0.0244,-0.03416,0.02684,0.06344,0.16592,0.09272,0.08296,0.06344,0.03904
0.17568,-0.0854,-0.00488,-0.09272,-0.18056,0.17812,0.02928,0.22448,0.08296,0.0976,0.06344,0.0488
0.3416,-0.17812,0.01464,-0.15616,-0.32696,0.33428,-0.06344,0.1952,0.03416,0.0732,0.05856,0.06344
0.50264,-0.26352,0.0244,-0.22692,-0.47824,0.49044,-0.1708,0.11224,-0.03416,0.01952,0.00488,0.03904
0.61976,-0.3294,0.03904,-0.27084,-0.58072,0.60024,-0.2684,0.03904,-0.122,-0.01952,-0.0244,0.0244
0.67344,-0.39772,0.122,-0.21472,-0.55144,0.61244,-0.3904,-0.13176,-0.20008,-0.05856,-0.00976,0.06344
0.59536,-0.427,0.25864,-0.03904,-0.33672,0.46604,-0.48312,-0.38552,-0.27328,-0.0976,0,0.10736
0.40016,-0.35136,0.30256,0.10248,-0.0976,0.24888,-0.4636,-0.5612,-0.31232,-0.15128,-0.01952,0.07808
-0.00488,-0.01952,0.04392,0.04636,0.0488,-0.02684,-0.32208,-0.67832,-0.488,-0.39528,-0.24888,-0.1708
-0.27816,0.25864,-0.23912,-0.10004,0.03904,-0.1586,-0.22936,-0.7564,-0.69296,-0.63928,-0.50264,-0.42456
-0.35624,0.35624,-0.35624,-0.17812,0,-0.17812,-0.22448,-0.8296,-0.8052,-0.76616,-0.62952,-0.54656
-0.28792,0.38064,-0.47336,-0.3294,-0.18544,-0.05124,-0.20008,-0.73688,-0.84424,-0.81496,-0.71248,-0.61976
-0.27328,0.36356,-0.45384,-0.3172,-0.18056,-0.04636,-0.18056,-0.63928,-0.7564,-0.74176,-0.63928,-0.56608
-0.22936,0.30256,-0.37576,-0.26108,-0.1464,-0.04148,-0.12688,-0.50264,-0.6344,-0.60512,-0.52216,-0.4636
-0.20008,0.26596,-0.33184,-0.2318,-0.13176,-0.03416,-0.0732,-0.37576,-0.52704,-0.51728,-0.44408,-0.3904
-0.20984,0.2318,-0.25376,-0.14884,-0.04392,-0.08296,-0.03904,-0.29768,-0.38552,-0.37576,-0.33672,-0.28792
-0.2196,0.20008,-0.18056,-0.07076,0.03904,-0.12932,-0.00976,-0.21472,-0.27816,-0.27328,-0.22936,-0.2196
-0.19032,0.15372,-0.11712,-0.02196,0.0732,-0.13176,-0.00488,-0.14152,-0.18056,-0.18544,-0.1464,-0.13664
-0.1464,0.11956,-0.09272,-0.01952,0.05368,-0.10004,-0.00976,-0.10248,-0.14152,-0.13176,-0.10736,-0.0976
-0.11224,0.10004,-0.08784,-0.03172,0.0244,-0.06832,0.01464,-0.06832,-0.10248,-0.10736,-0.09272,-0.09272
-0.11224,0.10004,-0.08784,-0.03172,0.0244,-0.06832,0.0244,-0.0488,-0.06832,-0.07808,-0.0732,-0.07808
-0.122,0.10492,-0.08784,-0.02684,0.03416,-0.07808,0.03416,-0.02928,-0.05856,-0.06832,-0.06344,-0.0732
-0.122,0.10492,-0.08784,-0.02684,0.03416,-0.07808,0.03904,-0.0244,-0.0488,-0.06344,-0.05856,-0.06344
-0.0976,0.09516,-0.09272,-0.04392,0.00488,-0.05124,0.03904,-0.00976,-0.05368,-0.05856,-0.05856,-0.05368
-0.10248,0.09516,-0.08784,-0.0366,0.01464,-0.05856,0.03904,-0.00488,-0.04392,-0.05368,-0.05368,-0.0488
-0.10248,0.09272,-0.08296,-0.03172,0.01952,-0.061,0.03904,-0.00488,-0.03416,-0.0488,-0.05368,-0.0488
-0.10248,0.09272,-0.08296,-0.03172,0.01952,-0.061,0.04392,0.00976,-0.03416,-0.0488,-0.0488,-0.0488
-0.08784,0.07808,-0.06832,-0.0244,0.01952,-0.05368,0.04392,-0.00488,-0.03904,-0.04392,-0.03904,-0.03904
-0.08296,0.07564,-0.06832,-0.02684,0.01464,-0.0488,0.0488,0,-0.03416,-0.04392,-0.03904,-0.03904
-0.08784,0.07564,-0.06344,-0.01952,0.0244,-0.05612,0.05856,0.00976,-0.0244,-0.02928,-0.03416,-0.0244
-0.0976,0.08052,-0.06344,-0.01464,0.03416,-0.06588,0.05368,0.01464,-0.0244,-0.0244,-0.03416,-0.01952
-0.08784,0.07564,-0.06344,-0.01952,0.0244,-0.05612,0.04392,0.00976,-0.0244,-0.0244,-0.03904,-0.02928
-0.08784,0.0732,-0.05856,-0.01464,0.02928,-0.05856,0.04392,0.00976,-0.01952,-0.0244,-0.03416,-0.03416
-0.08296,0.06832,-0.05368,-0.0122,0.02928,-0.05612,0.0488,0.01952,-0.00488,-0.01952,-0.01952,-0.0244
-0.08296,0.06832,-0.05368,-0.0122,0.02928,-0.05612,0.0488,0.0244,-0.00488,-0.01464,-0.01952,-0.01952
-0.08296,0.06832,-0.05368,-0.0122,0.02928,-0.05612,0.0488,0.01464,-0.01464,-0.00976,-0.02928,-0.01952
-0.08296,0.06832,-0.05368,-0.0122,0.02928,-0.05612,0.0488,0.01952,-0.00976,-0.00976,-0.02928,-0.0244
-0.08296,0.061,-0.03904,0.00244,0.04392,-0.06344,0.0488,0.01952,-0.00976,-0.00976,-0.01952,-0.01952
-0.07808,0.05856,-0.03904,0,0.03904,-0.05856,0.0488,0.0244,-0.00488,-0.00976,-0.01952,-0.01464
-0.08296,0.061,-0.03904,0.00244,0.04392,-0.06344,0.0488,0.0244,-0.00488,-0.00488,-0.01952,-0.01464
-0.08296,0.05856,-0.03416,0.00732,0.0488,-0.06588,0.0488,0.0244,0,0,-0.01952,-0.00976
-0.0732,0.05368,-0.03416,0.00244,0.03904,-0.05612,0.0488,0.02928,0.00488,0.00488,-0.00488,-0.00976
-0.06832,0.05124,-0.03416,0,0.03416,-0.05124,0.0488,0.03416,0.00488,0.00488,0,-0.00976
-0.06344,0.0488,-0.03416,-0.00244,0.02928,-0.04636,0.0488,0.0488,0.01952,0.01464,-0.00976,-0.00488
-0.06344,0.04636,-0.02928,0.00244,0.03416,-0.0488,0.0488,0.05368,0.01952,0.01464,-0.00488,-0.00488
-0.05856,0.04148,-0.0244,0.00488,0.03416,-0.04636,0.04392,0.05368,0.01464,0.01952,-0.00488,0
-0.0488,0.03172,-0.01464,0.00976,0.03416,-0.04148,0.04392,0.05368,0.0244,0.01952,0,0.00976
-0.03904,0.02684,-0.01464,0.00488,0.0244,-0.03172,0.04392,0.06344,0.02928,0.02928,0.00976,0.01464
-0.02928,0.01708,-0.00488,0.00976,0.0244,-0.02684,0.04392,0.06832,0.03416,0.03416,0.01464,0.01952
-0.02928,0.01952,-0.00976,0.00488,0.01952,-0.0244,0.04392,0.07808,0.0488,0.0488,0.02928,0.02928
-0.0244,0.0122,0,0.0122,0.0244,-0.0244,0.04392,0.08784,0.05368,0.05368,0.03904,0.03904
-0.00488,0,0.00488,0.00732,0.00976,-0.00732,0.04392,0.0976,0.06344,0.05856,0.0488,0.04392
0.00976,-0.01464,0.01952,0.01464,0.00976,0,0.04392,0.11224,0.0732,0.06832,0.05856,0.05368
0.01952,-0.02684,0.03416,0.0244,0.01464,0.00244,0.04392,0.12688,0.0976,0.07808,0.0732,0.05368
0.04392,-0.04636,0.0488,0.02684,0.00488,0.01952,0.03904,0.14152,0.10736,0.09272,0.07808,0.06344
0.0488,-0.05368,0.05856,0.03416,0.00976,0.01952,0.03904,0.15128,0.10736,0.11224,0.08296,0.08296
0.06832,-0.06832,0.06832,0.03416,0,0.03416,0.03416,0.16592,0.122,0.12688,0.0976,0.09272
0.08784,-0.0854,0.08296,0.03904,-0.00488,0.04636,0.0244,0.1708,0.13664,0.13176,0.11712,0.10736
0.0976,-0.0976,0.0976,0.0488,0,0.0488,0.0244,0.18056,0.1464,0.1464,0.13176,0.11712
0.12688,-0.11956,0.11224,0.0488,-0.01464,0.07076,0.02928,0.19032,0.15128,0.16104,0.13664,0.122
0.13664,-0.12932,0.122,0.05368,-0.01464,0.07564,0.02928,0.1952,0.16104,0.1708,0.14152,0.12688
0.1464,-0.14152,0.13664,0.06344,-0.00976,0.07808,0.01464,0.20496,0.16592,0.17568,0.15128,0.13664
0.16104,-0.15372,0.1464,0.06588,-0.01464,0.08784,0.00976,0.20496,0.17568,0.18544,0.16104,0.14152
0.16104,-0.15616,0.15128,0.07076,-0.00976,0.0854,0.00976,0.20984,0.17568,0.19032,0.16104,0.14152
0.1708,-0.16104,0.15128,0.06588,-0.01952,0.09516,0.00488,0.20984,0.18056,0.19032,0.16592,0.1464
0.18056,-0.17568,0.1708,0.08052,-0.00976,0.09516,0.00488,0.21472,0.19032,0.18056,0.16592,0.15128
0.18056,-0.17568,0.1708,0.08052,-0.00976,0.09516,0.00488,0.20984,0.19032,0.18544,0.16592,0.15128
0.18056,-0.1708,0.16104,0.07076,-0.01952,0.10004,0,0.20496,0.18056,0.1952,0.1708,0.15128
0.17568,-0.16836,0.16104,0.0732,-0.01464,0.09516,-0.00488,0.20008,0.17568,0.1952,0.16592,0.15128
0.18544,-0.16836,0.15128,0.05856,-0.03416,0.1098,-0.00976,0.18544,0.17568,0.18056,0.16592,0.15128
0.17568,-0.16348,0.15128,0.06344,-0.0244,0.10004,-0.00976,0.16592,0.16592,0.1708,0.15128,0.14152
0.15616,-0.15616,0.15616,0.07808,0,0.07808,-0.01464,0.15128,0.14152,0.16592,0.14152,0.13176
0.1464,-0.13908,0.13176,0.05856,-0.01464,0.08052,-0.01464,0.13176,0.13176,0.15128,0.13176,0.122
0.122,-0.11956,0.11712,0.05612,-0.00488,0.06344,-0.01952,0.11712,0.122,0.14152,0.13176,0.11224
0.10736,-0.10492,0.10248,0.0488,-0.00488,0.05612,-0.01952,0.0976,0.11712,0.12688,0.11224,0.0976
0.0732,-0.08296,0.09272,0.05612,0.01952,0.02684,-0.00976,0.07808,0.08784,0.10736,0.09272,0.08784
0.05856,-0.06588,0.0732,0.04392,0.01464,0.02196,-0.00976,0.05856,0.06832,0.09272,0.07808,0.0732
0.0488,-0.05368,0.05856,0.03416,0.00976,0.01952,-0.00976,0.04392,0.05368,0.06344,0.06832,0.05368
0.02928,-0.03416,0.03904,0.0244,0.00976,0.00976,0,0.03416,0.04392,0.05368,0.05368,0.04392
0.00976,-0.02196,0.03416,0.02928,0.0244,-0.00732,0,0.0244,0.03416,0.03416,0.03416,0.04392
0,-0.0122,0.0244,0.0244,0.0244,-0.0122,0,0.01464,0.0244,0.01464,0.0244,0.02928
-0.00976,-0.00244,0.01464,0.01952,0.0244,-0.01708,0,0.01464,0.01464,0.0244,0.01464,0.01952
-0.01952,0.00732,0.00488,0.01464,0.0244,-0.02196,0,0.00976,0.00976,0.01952,0.01464,0.01464
-0.03904,0.01952,0,0.01952,0.03904,-0.03904,0.00488,0.00976,0.00488,0.00976,0.00488,0.00488
-0.03904,0.01952,0,0.01952,0.03904,-0.03904,0.00976,0.00488,0.00488,0.00488,0,0.00976
-0.04392,0.0244,-0.00488,0.01708,0.03904,-0.04148,0,-0.00976,0.00488,0.00488,0.00488,0.00488
-0.04392,0.0244,-0.00488,0.01708,0.03904,-0.04148,0,-0.00976,-0.00488,0,0,0
-0.04392,0.0244,-0.00488,0.01708,0.03904,-0.04148,0,-0.00488,-0.00488,0,-0.00976,0
-0.0488,0.02928,-0.00976,0.01464,0.03904,-0.04392,0,-0.00488,-0.00488,-0.00488,-0.00976,0
-0.0488,0.0244,0,0.0244,0.0488,-0.0488,0.00976,-0.00488,-0.00488,-0.00488,0,0.00488
-0.0488,0.02684,-0.00488,0.01952,0.04392,-0.04636,0.00976,-0.00488,-0.00488,-0.00488,-0.00488,0.00488
-0.0488,0.02684,-0.00488,0.01952,0.04392,-0.04636,0.00976,-0.00488,-0.00488,-0.00488,-0.00488,-0.00488
-0.0488,0.02684,-0.00488,0.01952,0.04392,-0.04636,0.00976,-0.00488,-0.00488,-0.00488,-0.00488,-0.00488
-0.03904,0.01952,0,0.01952,0.03904,-0.03904,0,-0.00488,-0.00488,-0.01464,-0.01464,-0.00488
-0.03904,0.01952,0,0.01952,0.03904,-0.03904,0,-0.00488,-0.00488,-0.01464,-0.00976,-0.00488
-0.0488,0.0244,0,0.0244,0.0488,-0.0488,0,-0.00488,-0.00488,-0.01464,-0.00976,-0.00976
-0.0488,0.0244,0,0.0244,0.0488,-0.0488,0,-0.00488,-0.00488,-0.01464,-0.00976,-0.01464
-0.0488,0.0244,0,0.0244,0.0488,-0.0488,0.00976,-0.00488,-0.00488,-0.00488,-0.00488,-0.00488
-0.0488,0.0244,0,0.0244,0.0488,-0.0488,0.01464,0,0,-0.00488,-0.00488,-0.00488
-0.0488,0.0244,0,0.0244,0.0488,-0.0488,0.00488,0,-0.00976,-0.00488,-0.00488,-0.00488
-0.0488,0.0244,0,0.0244,0.0488,-0.0488,0,0,-0.00976,0,-0.00976,-0.00488
-0.05368,0.03416,-0.01464,0.0122,0.03904,-0.04636,0.00976,0,-0.00976,-0.01464,0,-0.00488
-0.05368,0.03172,-0.00976,0.01708,0.04392,-0.0488,0.01952,0,-0.00976,-0.01464,0,-0.00488
-0.04392,0.01952,0.00488,0.02684,0.0488,-0.04636,0.00976,0,-0.00976,-0.01464,-0.00976,-0.00488
-0.04392,0.01952,0.00488,0.02684,0.0488,-0.04636,0.01464,-0.00488,-0.00976,-0.01464,-0.00976,-0.00488
-0.03904,0.01952,0,0.01952,0.03904,-0.03904,0.01464,-0.00488,-0.00976,-0.00488,-0.00976,-0.00488
-0.03904,0.01952,0,0.01952,0.03904,-0.03904,0.01464,-0.00488,-0.00976,-0.00488,-0.00488,-0.00488
-0.04392,0.02684,-0.00976,0.0122,0.03416,-0.03904,0.01464,-0.00488,-0.00976,-0.01464,-0.00488,-0.00488
-0.04392,0.02684,-0.00976,0.0122,0.03416,-0.03904,0.01464,-0.00488,-0.01464,-0.01464,-0.00976,-0.00488
-0.05368,0.02928,-0.00488,0.02196,0.0488,-0.05124,0.01464,-0.00488,-0.01464,-0.01952,-0.00976,-0.00488
-0.05368,0.02684,0,0.02684,0.05368,-0.05368,0.00976,-0.00976,-0.01952,-0.01952,-0.00976,-0.00488
-0.03904,0.02196,-0.00488,0.01464,0.03416,-0.0366,0.01464,-0.00488,-0.01952,-0.01952,-0.00976,-0.00488
-0.04392,0.0244,-0.00488,0.01708,0.03904,-0.04148,0.00976,-0.00976,-0.01464,-0.01952,-0.00976,-0.00488
-0.0488,0.03172,-0.01464,0.00976,0.03416,-0.04148,0.01464,-0.01464,-0.01464,-0.01952,-0.01464,-0.00488
-0.0488,0.03172,-0.01464,0.00976,0.03416,-0.04148,0.01464,-0.01464,-0.01464,-0.01952,-0.01464,-0.00488
-0.0488,0.02684,-0.00488,0.01952,0.04392,-0.04636,0.01464,-0.01464,-0.01464,-0.01464,-0.01464,-0.00976
-0.04392,0.02684,-0.00976,0.0122,0.03416,-0.03904,0.00976,-0.01464,-0.01464,-0.01464,-0.01464,-0.00976
-0.05368,0.0366,-0.01952,0.00732,0.03416,-0.04392,0.01952,-0.01464,-0.01464,-0.0244,-0.0244,-0.00976
-0.05368,0.03416,-0.01464,0.0122,0.03904,-0.04636,0.01952,-0.01952,-0.01952,-0.01952,-0.0244,-0.00976
-0.05368,0.03416,-0.01464,0.0122,0.03904,-0.04636,0.00976,-0.01952,-0.01952,-0.0244,-0.01952,-0.01952
-0.05368,0.03416,-0.01464,0.0122,0.03904,-0.04636,0.01464,-0.01952,-0.01952,-0.0244,-0.01952,-0.01952
-0.05368,0.03416,-0.01464,0.0122,0.03904,-0.04636,0.01464,-0.01952,-0.01952,-0.0244,-0.01952,-0.0244
-0.05856,0.0366,-0.01464,0.01464,0.04392,-0.05124,0.01464,-0.01952,-0.01952,-0.0244,-0.01952,-0.0244
-0.0488,0.02684,-0.00488,0.01952,0.04392,-0.04636,0.00488,-0.01952,-0.0244,-0.02928,-0.01952,-0.00976
-0.05368,0.03172,-0.00976,0.01708,0.04392,-0.0488,0.00488,-0.0244,-0.0244,-0.0244,-0.01952,-0.00976
-0.0488,0.02928,-0.00976,0.01464,0.03904,-0.04392,0.00976,-0.01952,-0.01952,-0.01952,-0.01952,-0.00976
-0.0488,0.02928,-0.00976,0.01464,0.03904,-0.04392,0.00976,-0.01952,-0.01952,-0.01952,-0.01952,-0.00976
-0.0488,0.02928,-0.00976,0.01464,0.03904,-0.04392,0.00976,-0.01952,-0.01952,-0.01952,-0.01952,-0.00976
-0.05856,0.02684,0.00488,0.03416,0.06344,-0.061,0.00976,-0.00976,-0.00976,-0.01464,-0.00488,-0.01464
-0.04392,0.00976,0.0244,0.04636,0.06832,-0.05612,0.00976,-0.00976,0,0,0.00976,0
-0.0244,-0.00732,0.03904,0.05124,0.06344,-0.04392,0.01952,0.00488,0.01952,0.00976,0.01952,0.01952
0,-0.03172,0.06344,0.06344,0.06344,-0.03172,0.01952,0.00488,0.03416,0.02928,0.03904,0.04392
0,-0.04148,0.08296,0.08296,0.08296,-0.04148,0.00488,-0.00976,0.03416,0.03416,0.04392,0.04392
-0.00488,-0.04148,0.08784,0.09028,0.09272,-0.0488,0.00488,-0.00976,0.02928,0.03416,0.0488,0.0488
-0.01464,-0.0244,0.06344,0.07076,0.07808,-0.04636,0.00976,0,0.04392,0.01952,0.03416,0.03416
-0.01952,-0.01952,0.05856,0.06832,0.07808,-0.0488,0.00976,0.00488,0.04392,0.01952,0.03416,0.03416
-0.01952,-0.01708,0.05368,0.06344,0.0732,-0.04636,0.00488,0,0.03416,0.02928,0.02928,0.02928
0.00488,-0.0366,0.06832,0.06588,0.06344,-0.02928,0.00488,0.01464,0.0488,0.04392,0.03904,0.03904
0.03416,-0.06588,0.0976,0.08052,0.06344,-0.01464,-0.00488,0.01952,0.06832,0.04392,0.06344,0.05856
0.04392,-0.08296,0.122,0.10004,0.07808,-0.01708,-0.0244,0.00488,0.0732,0.0488,0.06344,0.06832
0.03904,-0.08052,0.122,0.10248,0.08296,-0.02196,-0.05368,-0.02928,0.04392,0.0488,0.05856,0.06344
0.04392,-0.07076,0.0976,0.07564,0.05368,-0.00488,-0.08296,-0.0488,0.00976,0.02928,0.03904,0.04392
0.04392,-0.05612,0.06832,0.04636,0.0244,0.00976,-0.0976,-0.06344,-0.00976,-0.00488,0.01464,0.0244
0.06832,-0.07076,0.0732,0.03904,0.00488,0.03172,-0.10248,-0.05856,-0.01952,-0.00976,0.01464,0.0244
0.05856,-0.06588,0.0732,0.04392,0.01464,0.02196,-0.07808,-0.05368,-0.01952,-0.00488,0.01464,0.02928
0.0488,-0.05612,0.06344,0.03904,0.01464,0.01708,-0.05856,-0.05368,-0.01952,-0.00488,0.01464,0.02928
0.04392,-0.0488,0.05368,0.03172,0.00976,0.01708,-0.0488,-0.04392,-0.0244,-0.01464,0,0.00976
0.02928,-0.0366,0.04392,0.02928,0.01464,0.00732,-0.03416,-0.02928,-0.0244,-0.00976,0,0.00976
0.01464,-0.0244,0.03416,0.02684,0.01952,-0.00244,-0.01952,-0.0244,-0.01952,-0.00976,0,0.00488
0.01464,-0.01952,0.0244,0.01708,0.00976,0.00244,-0.01464,-0.01464,-0.01464,-0.00976,0,0.00488
0,-0.00244,0.00488,0.00488,0.00488,-0.00244,-0.00976,-0.0244,-0.01464,-0.01464,-0.00976,0
-0.00488,0.00732,-0.00976,-0.00732,-0.00488,0,-0.00976,-0.03416,-0.02928,-0.02928,-0.02928,-0.01464
-0.01952,0.02928,-0.03904,-0.02928,-0.01952,0,0,-0.03904,-0.03416,-0.03904,-0.03416,-0.01952
-0.03416,0.03904,-0.04392,-0.02684,-0.00976,-0.0122,0,-0.03416,-0.03416,-0.04392,-0.03416,-0.01952
-0.04392,0.04392,-0.04392,-0.02196,0,-0.02196,0.00488,-0.0244,-0.03416,-0.04392,-0.03416,-0.02928
-0.05368,0.05124,-0.0488,-0.02196,0.00488,-0.02928,0.00976,-0.0244,-0.03416,-0.04392,-0.03904,-0.02928
-0.06344,0.061,-0.05856,-0.02684,0.00488,-0.03416,0.01464,-0.02928,-0.03416,-0.05856,-0.04392,-0.03904
-0.0732,0.06588,-0.05856,-0.02196,0.01464,-0.04392,0.0244,-0.02928,-0.03416,-0.05856,-0.04392,-0.03904
-0.0732,0.06588,-0.05856,-0.02196,0.01464,-0.04392,0.0244,-0.02928,-0.03416,-0.0488,-0.04392,-0.02928
-0.07808,0.07076,-0.06344,-0.0244,0.01464,-0.04636,0.0244,-0.0244,-0.03416,-0.0488,-0.04392,-0.02928
-0.08784,0.07564,-0.06344,-0.01952,0.0244,-0.05612,0.0244,-0.0244,-0.03416,-0.0488,-0.04392,-0.03904
-0.08784,0.07564,-0.06344,-0.01952,0.0244,-0.05612,0.02928,-0.0244,-0.03416,-0.0488,-0.04392,-0.03904
-0.07808,0.07076,-0.06344,-0.0244,0.01464,-0.04636,0.0244,-0.0244,-0.03416,-0.03904,-0.04392,-0.04392
-0.10248,0.08784,-0.0732,-0.02196,0.02928,-0.06588,0.05856,-0.00488,-0.0244,-0.03904,-0.03416,-0.03416
-0.11224,0.09516,-0.07808,-0.02196,0.03416,-0.0732,0.08296,0.03904,0.00976,-0.0244,-0.03416,-0.03416
-0.10736,0.08052,-0.05368,0,0.05368,-0.08052,0.11224,0.07808,0.06832,0.01952,0,-0.00488
-0.06344,0.04636,-0.02928,0.00244,0.03416,-0.0488,0.11224,0.13176,0.09272,0.06832,0.05368,0.02928
0.07808,-0.03416,-0.00976,-0.0488,-0.08784,0.08296,0.08296,0.19032,0.10248,0.08296,0.05856,0.0488
0.22448,-0.11712,0.00976,-0.10248,-0.21472,0.2196,0.01952,0.21472,0.08296,0.08296,0.05856,0.06344
0.42456,-0.2196,0.01464,-0.19764,-0.40992,0.41724,-0.06832,0.18544,0.0244,0.05368,0.0244,0.0488
0.57096,-0.29524,0.01952,-0.26596,-0.55144,0.5612,-0.20008,0.08784,-0.05856,-0.00976,-0.01464,0.03416
0.66856,-0.35624,0.04392,-0.29036,-0.62464,0.6466,-0.2928,0.01952,-0.13664,-0.05368,-0.0244,0.03416
0.6832,-0.42212,0.16104,-0.18056,-0.52216,0.60268,-0.40016,-0.1952,-0.22448,-0.08784,-0.03416,0.05856
0.5612,-0.42212,0.28304,0.00244,-0.27816,0.41968,-0.4636,-0.44896,-0.27816,-0.11224,-0.00976,0.0976
0.3172,-0.28548,0.25376,0.09516,-0.06344,0.19032,-0.4148,-0.59536,-0.33672,-0.1952,-0.06344,0.01464
-0.10248,0.0854,-0.06832,-0.01708,0.03416,-0.06832,-0.2684,-0.6832,-0.53192,-0.47824,-0.32696,-0.25864
-0.30744,0.28548,-0.26352,-0.1098,0.04392,-0.17568,-0.20984,-0.77104,-0.68808,-0.6588,-0.52216,-0.42944
-0.33672,0.366,-0.39528,-0.22692,-0.05856,-0.13908,-0.18544,-0.80032,-0.79056,-0.76128,-0.6344,-0.55144
-0.26352,0.366,-0.46848,-0.33672,-0.20496,-0.02928,-0.18056,-0.71248,-0.8052,-0.78568,-0.6832,-0.60024
-0.22936,0.31964,-0.40992,-0.29524,-0.18056,-0.0244,-0.1708,-0.60512,-0.70272,-0.69296,-0.58072,-0.51728
-0.20008,0.27572,-0.35136,-0.25132,-0.15128,-0.0244,-0.10248,-0.4392,-0.56608,-0.55632,-0.47336,-0.40016
-0.18056,0.24156,-0.30256,-0.21228,-0.122,-0.02928,-0.04392,-0.33672,-0.45872,-0.44408,-0.40016,-0.34648
-0.20008,0.2074,-0.21472,-0.11468,-0.01464,-0.09272,-0.00976,-0.26352,-0.33184,-0.32696,-0.2928,-0.25864
-0.18056,0.1708,-0.16104,-0.07076,0.01952,-0.10004,-0.00488,-0.20008,-0.23424,-0.23912,-0.1952,-0.17568
-0.16592,0.14152,-0.11712,-0.03416,0.0488,-0.10736,0.00488,-0.11224,-0.13664,-0.15616,-0.122,-0.10736
-0.122,0.10004,-0.07808,-0.01708,0.04392,-0.08296,0.01464,-0.07808,-0.0976,-0.11224,-0.10248,-0.08784
-0.10248,0.0976,-0.09272,-0.04148,0.00976,-0.05612,0.04392,-0.04392,-0.06832,-0.07808,-0.08784,-0.07808
-0.10248,0.09516,-0.08784,-0.0366,0.01464,-0.05856,0.0488,-0.0244,-0.04392,-0.06832,-0.05856,-0.05856
-0.10248,0.09516,-0.08784,-0.0366,0.01464,-0.05856,0.05856,-0.00488,-0.03904,-0.05856,-0.0488,-0.0488
-0.0976,0.09028,-0.08296,-0.03416,0.01464,-0.05612,0.05856,0,-0.03904,-0.0488,-0.0488,-0.04392
-0.08784,0.0854,-0.08296,-0.03904,0.00488,-0.04636,0.05856,0,-0.03416,-0.04392,-0.0488,-0.04392
-0.09272,0.0854,-0.07808,-0.03172,0.01464,-0.05368,0.05856,0.00488,-0.01464,-0.03904,-0.03416,-0.03904
-0.09272,0.08296,-0.0732,-0.02684,0.01952,-0.05612,0.06344,0.00488,-0.01464,-0.02928,-0.02928,-0.02928
-0.09272,0.0854,-0.07808,-0.03172,0.01464,-0.05368,0.06344,0.01952,-0.00976,-0.02928,-0.02928,-0.02928
-0.08784,0.08296,-0.07808,-0.03416,0.00976,-0.0488,0.06832,0.01464,-0.00488,-0.0244,-0.02928,-0.02928
-0.07808,0.07076,-0.06344,-0.0244,0.01464,-0.04636,0.05856,0.01952,-0.00488,-0.01952,-0.01952,-0.0244
-0.07808,0.07076,-0.06344,-0.0244,0.01464,-0.04636,0.05856,0.01952,-0.00488,-0.01952,-0.01464,-0.0244
-0.07808,0.07076,-0.06344,-0.0244,0.01464,-0.04636,0.06344,0.02928,-0.00488,-0.01464,-0.01952,-0.02928
-0.07808,0.06832,-0.05856,-0.01952,0.01952,-0.0488,0.06344,0.02928,0,-0.01464,-0.01952,-0.02928
-0.07808,0.06832,-0.05856,-0.01952,0.01952,-0.0488,0.06344,0.01952,0,-0.00976,-0.00976,-0.0244
-0.0732,0.06344,-0.05368,-0.01708,0.01952,-0.04636,0.06832,0.01952,0.00488,-0.00488,-0.00976,-0.01952
-0.0732,0.06344,-0.05368,-0.01708,0.01952,-0.04636,0.06832,0.0244,0.00488,-0.00488,-0.00976,-0.00976
-0.0732,0.06344,-0.05368,-0.01708,0.01952,-0.04636,0.06832,0.0244,0.00976,0,-0.00976,-0.01464
-0.0732,0.061,-0.0488,-0.0122,0.0244,-0.0488,0.05856,0.02928,0.00976,0,-0.00976,-0.00976
-0.0732,0.061,-0.0488,-0.0122,0.0244,-0.0488,0.05856,0.02928,0.00976,0,-0.00976,-0.00976
-0.06344,0.05612,-0.0488,-0.01708,0.01464,-0.03904,0.05856,0.03416,0.01464,0.00488,-0.00488,-0.00488
-0.06344,0.0488,-0.03416,-0.00244,0.02928,-0.04636,0.05856,0.03416,0.01464,0.00976,0,0
-0.06344,0.0488,-0.03416,-0.00244,0.02928,-0.04636,0.05856,0.0488,0.03416,0.00976,0,0
-0.06344,0.0488,-0.03416,-0.00244,0.02928,-0.04636,0.05856,0.05368,0.03416,0.01464,0.00488,0
-0.0488,0.04148,-0.03416,-0.00976,0.01464,-0.03172,0.05856,0.05368,0.02928,0.00976,0,-0.00488
-0.04392,0.0366,-0.02928,-0.00732,0.01464,-0.02928,0.05856,0.06344,0.02928,0.01464,0,-0.00488
-0.05368,0.04148,-0.02928,-0.00244,0.0244,-0.03904,0.05368,0.05856,0.03416,0.0244,0.01464,-0.00488
-0.03904,0.02928,-0.01952,0,0.01952,-0.02928,0.05368,0.06344,0.04392,0.02928,0.01464,0
-0.03904,0.02684,-0.01464,0.00488,0.0244,-0.03172,0.05368,0.07808,0.0488,0.03904,0.01952,0.0244
-0.0244,0.01708,-0.00976,0.00244,0.01464,-0.01952,0.05368,0.08296,0.0488,0.04392,0.02928,0.02928
-0.01464,0.01464,-0.01464,-0.00732,0,-0.00732,0.05368,0.08296,0.06344,0.05368,0.04392,0.0244
-0.00976,0.00732,-0.00488,0,0.00488,-0.00732,0.05368,0.09272,0.06832,0.06344,0.05368,0.03416
0,-0.00244,0.00488,0.00488,0.00488,-0.00244,0.05368,0.11224,0.07808,0.06344,0.05368,0.05368
0.00976,-0.0122,0.01464,0.00976,0.00488,0.00244,0.05368,0.122,0.08784,0.0732,0.06344,0.05856
0.0244,-0.0244,0.0244,0.0122,0,0.0122,0.05368,0.13176,0.10248,0.08296,0.0732,0.05856
0.03904,-0.04148,0.04392,0.0244,0.00488,0.01708,0.05368,0.14152,0.10736,0.0976,0.0732,0.06832
0.06344,-0.05856,0.05368,0.02196,-0.00976,0.0366,0.0488,0.15616,0.11224,0.10736,0.08784,0.07808
0.08296,-0.0732,0.06344,0.02196,-0.01952,0.05124,0.0488,0.17568,0.122,0.122,0.10248,0.08296
0.09272,-0.08296,0.0732,0.02684,-0.01952,0.05612,0.04392,0.17568,0.1464,0.14152,0.11224,0.0976
0.10736,-0.10004,0.09272,0.03904,-0.01464,0.061,0.04392,0.18544,0.16104,0.1464,0.12688,0.11224
0.12688,-0.11224,0.0976,0.03416,-0.02928,0.07808,0.03904,0.1952,0.1708,0.16592,0.14152,0.11712
0.13664,-0.122,0.10736,0.03904,-0.02928,0.08296,0.03904,0.20496,0.1708,0.17568,0.15128,0.12688
0.15128,-0.14152,0.13176,0.05612,-0.01952,0.0854,0.03904,0.20496,0.18056,0.18544,0.15128,0.12688
0.16104,-0.15128,0.14152,0.061,-0.01952,0.09028,0.03416,0.21472,0.19032,0.19032,0.16592,0.13664
0.1708,-0.16104,0.15128,0.06588,-0.01952,0.09516,0.02928,0.2196,0.1952,0.20008,0.1708,0.15128
0.17568,-0.16348,0.15128,0.06344,-0.0244,0.10004,0.0244,0.2196,0.1952,0.20008,0.1708,0.15616
0.19032,-0.17324,0.15616,0.061,-0.03416,0.11224,0.0244,0.21472,0.20008,0.20008,0.17568,0.16104
0.19032,-0.17568,0.16104,0.06588,-0.02928,0.1098,0.0244,0.21472,0.20008,0.20496,0.17568,0.16104
0.1952,-0.17812,0.16104,0.06344,-0.03416,0.11468,0.0244,0.2196,0.20008,0.1952,0.18056,0.16104
0.20008,-0.18056,0.16104,0.061,-0.03904,0.11956,0.01952,0.20984,0.20008,0.1952,0.18056,0.16104
0.1952,-0.17812,0.16104,0.06344,-0.03416,0.11468,0.00976,0.21472,0.20496,0.20008,0.17568,0.15128
0.19032,-0.17568,0.16104,0.06588,-0.02928,0.1098,0.00976,0.20008,0.19032,0.18544,0.16592,0.1464
0.18056,-0.1708,0.16104,0.07076,-0.01952,0.10004,-0.00488,0.1708,0.18056,0.17568,0.15616,0.1464
0.17568,-0.16104,0.1464,0.05856,-0.02928,0.10248,-0.00488,0.15128,0.1708,0.1708,0.1464,0.13664
0.16592,-0.15372,0.14152,0.05856,-0.0244,0.09516,0,0.14152,0.15128,0.1464,0.13664,0.12688
0.14152,-0.1342,0.12688,0.05612,-0.01464,0.07808,0,0.11712,0.13664,0.14152,0.122,0.11712
0.12688,-0.11956,0.11224,0.0488,-0.01464,0.07076,0,0.10736,0.11712,0.12688,0.11224,0.11224
0.10736,-0.10004,0.09272,0.03904,-0.01464,0.061,0,0.09272,0.0976,0.10736,0.0976,0.08784
0.07808,-0.07808,0.07808,0.03904,0,0.03904,0,0.06832,0.08784,0.07808,0.07808,0.07808
0.05856,-0.05856,0.05856,0.02928,0,0.02928,0.00488,0.06344,0.07808,0.06832,0.0732,0.0732
0.03904,-0.04148,0.04392,0.0244,0.00488,0.01708,0.00976,0.0488,0.06832,0.05368,0.05368,0.05368
0.0244,-0.02684,0.02928,0.01708,0.00488,0.00976,0.00976,0.03904,0.05368,0.0488,0.03416,0.04392
0.01464,-0.01464,0.01464,0.00732,0,0.00732,0.01464,0.02928,0.03904,0.03416,0.02928,0.03416
0.00488,-0.00732,0.00976,0.00732,0.00488,0,0.00976,0.01952,0.03416,0.03416,0.0244,0.02928
-0.00488,0,0.00488,0.00732,0.00976,-0.00732,0.00976,0.00976,0.0244,0.0244,0.01464,0.01952
-0.00976,0.00488,0,0.00488,0.00976,-0.00976,0.01464,0.00488,0.0244,0.01952,0.01464,0.01464
-0.0244,0.00732,0.00976,0.02196,0.03416,-0.02928,0.01952,0.01464,0.0244,0.00488,0.00488,0.00976
-0.0244,0.00976,0.00488,0.01708,0.02928,-0.02684,0.01952,0.00976,0.01952,0.00488,0.00488,0.00488
-0.0244,0.00976,0.00488,0.01708,0.02928,-0.02684,0.02928,0.00976,0.01464,0,0.00976,0.00976
-0.0244,0.00976,0.00488,0.01708,0.02928,-0.02684,0.02928,0.00488,0.01464,0,0.00976,0.00976
-0.02928,0.01464,0,0.01464,0.02928,-0.02928,0.02928,0.00488,0.01464,0.00488,0.00976,0.00488
-0.02928,0.01708,-0.00488,0.00976,0.0244,-0.02684,0.02928,0.00488,0.01464,0.00488,0.00488,0.00488
-0.01952,0.00732,0.00488,0.01464,0.0244,-0.02196,0.02928,0.01464,0.01464,-0.00488,-0.00488,0.00488
-0.01952,0.00732,0.00488,0.01464,0.0244,-0.02196,0.02928,0.01464,0.01464,-0.00488,-0.00488,0.00488
-0.01952,0.0122,-0.00488,0.00488,0.01464,-0.01708,0.01952,0.01464,0.00488,0.00488,-0.00488,0.00488
-0.01952,0.00976,0,0.00976,0.01952,-0.01952,0.01952,0.01464,0.00488,0.00488,0,0.00488
-0.01952,0.00976,0,0.00976,0.01952,-0.01952,0.01952,0.01464,0.01464,0.00488,0,0
-0.01952,0.00976,0,0.00976,0.01952,-0.01952,0.01952,0.01464,0.01464,0.00488,0,-0.00488
-0.01952,0.00976,0,0.00976,0.01952,-0.01952,0.02928,0.01464,0.01464,0.00488,0,0.00488
-0.01952,0.00976,0,0.00976,0.01952,-0.01952,0.02928,0.01952,0.01464,0.00488,0.00488,0.00488
-0.01952,0.00976,0,0.00976,0.01952,-0.01952,0.03416,0.00976,0.01952,0.00488,0.00488,0.00488
-0.01952,0.00976,0,0.00976,0.01952,-0.01952,0.03416,0.00976,0.01952,0.00488,0.00488,0.00488
-0.01952,0.00976,0,0.00976,0.01952,-0.01952,0.02928,0.00976,0.01952,0,0.00976,0.00488
-0.0244,0.01464,-0.00488,0.00732,0.01952,-0.02196,0.02928,0.00976,0.01952,-0.00488,0.00976,0.00488
-0.01464,0.00488,0.00488,0.0122,0.01952,-0.01708,0.01952,0.01952,0.01952,-0.00488,0.00976,-0.00488
-0.01464,0.00488,0.00488,0.0122,0.01952,-0.01708,0.01952,0.01952,0.01952,-0.00488,0.00976,-0.00488
-0.00976,-0.00244,0.01464,0.01952,0.0244,-0.01708,0.0244,0.01464,0.00976,0.00488,0.00976,-0.00488
-0.00976,0,0.00976,0.01464,0.01952,-0.01464,0.0244,0.01464,0.00976,0.00488,0.00976,-0.00488
-0.01952,0.00488,0.00976,0.01952,0.02928,-0.0244,0.0244,0.01464,0.00976,0.00488,0.00488,-0.00488
-0.0244,0.00732,0.00976,0.02196,0.03416,-0.02928,0.0244,0.01464,0.00488,0.00488,0,-0.00488
-0.0244,0.01464,-0.00488,0.00732,0.01952,-0.02196,0.0244,0.01464,0.00488,0.00976,0.00976,-0.00488
-0.0244,0.0122,0,0.0122,0.0244,-0.0244,0.0244,0.01464,0.00488,0.00976,0.00976,-0.00488
-0.01952,0.00976,0,0.00976,0.01952,-0.01952,0.01952,0,0,0,0.00976,-0.00488
-0.01952,0.0122,-0.00488,0.00488,0.01464,-0.01708,0.0244,0.00488,0,0,0.00976,-0.00488
-0.02928,0.01708,-0.00488,0.00976,0.0244,-0.02684,0.01952,0,0.00488,0,0.00488,-0.00488
-0.02928,0.01708,-0.00488,0.00976,0.0244,-0.02684,0.0244,0.00488,0.00488,0,0.00488,-0.00488
-0.02928,0.01708,-0.00488,0.00976,0.0244,-0.02684,0.0244,0.00488,0.00488,0,-0.00488,0.00488
-0.02928,0.01952,-0.00976,0.00488,0.01952,-0.0244,0.01952,0.00488,0.00488,-0.00488,-0.00488,0
-0.03416,0.01708,0,0.01708,0.03416,-0.03416,0.02928,0.00488,0.00488,-0.00488,-0.00488,0
-0.03416,0.01708,0,0.01708,0.03416,-0.03416,0.02928,0,0,-0.00488,-0.00488,0
-0.03416,0.01952,-0.00488,0.0122,0.02928,-0.03172,0.01952,0,0,0,0.00488,0
-0.03416,0.01952,-0.00488,0.0122,0.02928,-0.03172,0.0244,0,0,-0.00488,0,0
-0.0244,0.01464,-0.00488,0.00732,0.01952,-0.02196,0.0244,0,0,-0.00488,-0.00976,-0.00488
-0.0244,0.01464,-0.00488,0.00732,0.01952,-0.02196,0.0244,0,0,-0.00488,-0.00976,-0.00488
-0.02928,0.01708,-0.00488,0.00976,0.0244,-0.02684,0.0244,0,0.00976,-0.00976,-0.00976,-0.00976
-0.03416,0.02196,-0.00976,0.00732,0.0244,-0.02928,0.0244,0,0.00488,-0.00976,-0.00976,-0.00976
-0.03416,0.01708,0,0.01708,0.03416,-0.03416,0.0244,-0.00488,0.00488,-0.00488,-0.00488,-0.00976
-0.02928,0.01952,-0.00976,0.00488,0.01952,-0.0244,0.02928,-0.00976,0,-0.00976,-0.00976,-0.00976
-0.02928,0.01952,-0.00976,0.00488,0.01952,-0.0244,0.02928,-0.00976,0,-0.00976,-0.00976,-0.00976
-0.02928,0.01464,0,0.01464,0.02928,-0.02928,0.02928,0,0.00488,-0.00976,-0.00976,-0.01952
-0.01952,0.00488,0.00976,0.01952,0.02928,-0.0244,0.02928,0,0.01464,0.00488,0,-0.00488
-0.01952,-0.00488,0.02928,0.03904,0.0488,-0.03416,0.03904,0.00488,0.0244,0.01464,0.00976,0.01464
-0.00488,-0.0244,0.05368,0.05612,0.05856,-0.03172,0.03904,0.01464,0.03904,0.02928,0.02928,0.0244
0.01952,-0.05124,0.08296,0.0732,0.06344,-0.02196,0.02928,0.00976,0.0488,0.04392,0.0488,0.03904
0.01464,-0.05612,0.0976,0.09028,0.08296,-0.03416,0.0244,0.00976,0.05368,0.04392,0.05856,0.0488
0.00488,-0.0488,0.09272,0.09028,0.08784,-0.04148,0.01952,0.00976,0.0488,0.03904,0.04392,0.0488
0.00488,-0.04392,0.08296,0.08052,0.07808,-0.0366,0.01952,0.00488,0.05368,0.03904,0.04392,0.04392
0,-0.0366,0.0732,0.0732,0.0732,-0.0366,0.0244,0.00976,0.04392,0.02928,0.03904,0.03904
0.00976,-0.04392,0.07808,0.0732,0.06832,-0.02928,0.0244,0.01952,0.04392,0.03416,0.03904,0.03904
0.02928,-0.061,0.09272,0.07808,0.06344,-0.01708,0.02928,0.03904,0.0732,0.05368,0.06344,0.06344
0.05368,-0.08784,0.122,0.09516,0.06832,-0.00732,0.01952,0.02928,0.08296,0.0732,0.0732,0.07808
0.05856,-0.10004,0.14152,0.11224,0.08296,-0.0122,-0.00488,0.00976,0.0732,0.06832,0.08296,0.0732
0.06344,-0.0976,0.13176,0.10004,0.06832,-0.00244,-0.03904,-0.00976,0.0488,0.0488,0.06832,0.06832
0.05368,-0.07076,0.08784,0.061,0.03416,0.00976,-0.06832,-0.03904,0.01464,0.01952,0.02928,0.04392
0.06344,-0.07808,0.09272,0.061,0.02928,0.01708,-0.0732,-0.04392,0.00488,0.01464,0.0244,0.03416
0.0976,-0.0976,0.0976,0.0488,0,0.0488,-0.06832,-0.03904,0,0.00488,0.02928,0.03416
0.07808,-0.08296,0.08784,0.0488,0.00976,0.03416,-0.05368,-0.03416,0,0.00488,0.0244,0.02928
0.0732,-0.08052,0.08784,0.05124,0.01464,0.02928,-0.04392,-0.03416,-0.00488,0.00488,0.00976,0.01952
0.05856,-0.06344,0.06832,0.03904,0.00976,0.0244,-0.03416,-0.0244,-0.00488,-0.00488,0.00976,0.01952
0.03904,-0.0488,0.05856,0.03904,0.01952,0.00976,-0.00976,-0.01464,0,0,0.00976,0.01464
0.03416,-0.04148,0.0488,0.03172,0.01464,0.00976,0,-0.00976,0,0,0.00976,0.01464
0.0244,-0.03172,0.03904,0.02684,0.01464,0.00488,0.00976,-0.00488,0.00488,0.00976,0.01952,0.01464
0.01952,-0.01708,0.01464,0.00488,-0.00488,0.0122,0.00976,-0.00488,-0.00488,0,0.00488,0
0,0,0,0,0,0,0.01952,-0.01952,-0.00976,-0.02928,-0.0244,-0.01952
-0.01464,0.0122,-0.00976,-0.00244,0.00488,-0.00976,0.01952,-0.01464,-0.01464,-0.03416,-0.0244,-0.01952
-0.01952,0.01952,-0.01952,-0.00976,0,-0.00976,0.01464,-0.01464,-0.0244,-0.03416,-0.0244,-0.01952
-0.02928,0.02684,-0.0244,-0.00976,0.00488,-0.01708,0.01952,-0.01464,-0.0244,-0.03416,-0.0244,-0.01952
-0.0488,0.04148,-0.03416,-0.00976,0.01464,-0.03172,0.0244,-0.01464,-0.0244,-0.03416,-0.0244,-0.02928
-0.06344,0.05124,-0.03904,-0.00732,0.0244,-0.04392,0.03416,-0.01952,-0.0244,-0.03904,-0.0244,-0.02928
-0.06344,0.05612,-0.0488,-0.01708,0.01464,-0.03904,0.03416,-0.01952,-0.01464,-0.03904,-0.03416,-0.02928
-0.06832,0.061,-0.05368,-0.01952,0.01464,-0.04148,0.03416,-0.01464,-0.01464,-0.03904,-0.03416,-0.02928
-0.06832,0.061,-0.05368,-0.01952,0.01464,-0.04148,0.03416,-0.01464,-0.01464,-0.03904,-0.0244,-0.02928
-0.06832,0.061,-0.05368,-0.01952,0.01464,-0.04148,0.03416,-0.01464,-0.01464,-0.03904,-0.0244,-0.02928
-0.05856,0.05124,-0.04392,-0.01464,0.01464,-0.0366,0.03904,-0.00488,-0.01464,-0.03904,-0.0244,-0.02928
-0.06832,0.05612,-0.04392,-0.00976,0.0244,-0.04636,0.0488,0,-0.00976,-0.03904,-0.0244,-0.03416
-0.07808,0.06344,-0.0488,-0.00976,0.02928,-0.05368,0.0732,0.01952,0.00488,-0.03416,-0.0244,-0.03416
-0.10248,0.07564,-0.0488,0.00244,0.05368,-0.07808,0.10736,0.06832,0.03904,0.00488,0,-0.0244
-0.0976,0.06832,-0.03904,0.00976,0.05856,-0.07808,0.14152,0.10736,0.0976,0.05368,0.02928,0.01464
-0.01952,0.00732,0.00488,0.01464,0.0244,-0.02196,0.122,0.15616,0.122,0.09272,0.0732,0.0488
0.13664,-0.07564,0.01464,-0.05368,-0.122,0.12932,0.07808,0.21472,0.11224,0.08784,0.0732,0.05856
0.28304,-0.1586,0.03416,-0.10736,-0.24888,0.26596,0.01464,0.21472,0.09272,0.09272,0.06832,0.0732
0.47336,-0.25376,0.03416,-0.20252,-0.4392,0.45628,-0.09272,0.1708,0.0244,0.0488,0.0244,0.0488
0.60024,-0.32452,0.0488,-0.25132,-0.55144,0.57584,-0.20008,0.07808,-0.06344,0,-0.01464,0.03416
0.71248,-0.39772,0.08296,-0.27328,-0.62952,0.671,-0.31232,-0.0244,-0.16104,-0.05856,-0.02928,0.0244
0.67344,-0.43676,0.20008,-0.13664,-0.47336,0.5734,-0.42456,-0.2684,-0.244,-0.0976,-0.01952,0.06832
0.52704,-0.4148,0.30256,0.03904,-0.22448,0.37576,-0.45384,-0.49288,-0.28304,-0.13176,0,0.08784
0.20984,-0.20008,0.19032,0.0854,-0.01952,0.11468,-0.37088,-0.61976,-0.36112,-0.24888,-0.122,-0.0244
-0.15128,0.1464,-0.14152,-0.06588,0.00976,-0.08052,-0.2196,-0.68808,-0.57584,-0.54168,-0.4148,-0.32696
-0.30744,0.29768,-0.28792,-0.1342,0.01952,-0.16348,-0.1952,-0.79056,-0.71736,-0.68808,-0.55144,-0.47824
-0.29768,0.35624,-0.4148,-0.26596,-0.11712,-0.09028,-0.18056,-0.76616,-0.78568,-0.76616,-0.65392,-0.5612
-0.244,0.34892,-0.45384,-0.33184,-0.20984,-0.01708,-0.16104,-0.67832,-0.76616,-0.76128,-0.6588,-0.56608
-0.20008,0.28304,-0.366,-0.26596,-0.16592,-0.01708,-0.13664,-0.54168,-0.65392,-0.6344,-0.55144,-0.47336
-0.1708,0.25132,-0.33184,-0.24644,-0.16104,-0.00488,-0.06344,-0.39528,-0.52704,-0.51728,-0.43432,-0.38064
-0.16104,0.21228,-0.26352,-0.183,-0.10248,-0.02928,-0.02928,-0.30744,-0.40504,-0.4148,-0.35624,-0.30744
-0.18056,0.18544,-0.19032,-0.10004,-0.00976,-0.0854,0,-0.23424,-0.28792,-0.2928,-0.25864,-0.20984
-0.16104,0.13908,-0.11712,-0.0366,0.04392,-0.10248,0.00488,-0.15128,-0.18056,-0.1952,-0.16592,-0.1464
-0.12688,0.10492,-0.08296,-0.01952,0.04392,-0.0854,0.00976,-0.08296,-0.122,-0.13176,-0.10736,-0.08784
-0.09272,0.0854,-0.07808,-0.03172,0.01464,-0.05368,0.03416,-0.06832,-0.08296,-0.0976,-0.08296,-0.0732
-0.08296,0.07564,-0.06832,-0.02684,0.01464,-0.0488,0.05368,-0.03904,-0.0488,-0.05856,-0.06344,-0.05856
-0.09272,0.07564,-0.05856,-0.0122,0.03416,-0.06344,0.06344,0,-0.02928,-0.03904,-0.04392,-0.04392
-0.09272,0.07564,-0.05856,-0.0122,0.03416,-0.06344,0.06832,0.00488,-0.01952,-0.03416,-0.03904,-0.03416
-0.07808,0.07076,-0.06344,-0.0244,0.01464,-0.04636,0.06832,0.00976,-0.01464,-0.02928,-0.03904,-0.03416
-0.08296,0.07076,-0.05856,-0.01708,0.0244,-0.05368,0.06832,0.01464,-0.00488,-0.0244,-0.03416,-0.02928
-0.08296,0.06832,-0.05368,-0.0122,0.02928,-0.05612,0.06832,0.01464,-0.00488,-0.01952,-0.0244,-0.01952
-0.08296,0.06832,-0.05368,-0.0122,0.02928,-0.05612,0.0732,0.02928,-0.00488,-0.01952,-0.01952,-0.01952
-0.07808,0.06832,-0.05856,-0.01952,0.01952,-0.0488,0.0732,0.0244,0.00976,-0.01464,-0.01952,-0.01952
-0.0732,0.06588,-0.05856,-0.02196,0.01464,-0.04392,0.07808,0.02928,0.01464,-0.01464,-0.01952,-0.01952
-0.07808,0.06588,-0.05368,-0.01464,0.0244,-0.05124,0.07808,0.02928,0.01464,-0.00976,-0.01464,-0.01464
-0.07808,0.06588,-0.05368,-0.01464,0.0244,-0.05124,0.0732,0.03416,0.01464,-0.00488,-0.01464,-0.00976
-0.07808,0.06588,-0.05368,-0.01464,0.0244,-0.05124,0.0732,0.03904,0.01464,-0.00488,-0.00976,-0.00976
-0.07808,0.06344,-0.0488,-0.00976,0.02928,-0.05368,0.0732,0.03904,0.01952,-0.00488,-0.00488,-0.00488
-0.0732,0.05368,-0.03416,0.00244,0.03904,-0.05612,0.07808,0.03904,0.0244,-0.00976,0,-0.01464
-0.0732,0.05368,-0.03416,0.00244,0.03904,-0.05612,0.07808,0.04392,0.0244,-0.00488,0,-0.00976
-0.06344,0.0488,-0.03416,-0.00244,0.02928,-0.04636,0.07808,0.04392,0.0244,0.00976,0,-0.00976
-0.06344,0.0488,-0.03416,-0.00244,0.02928,-0.04636,0.07808,0.0488,0.02928,0.00976,0,-0.01464
-0.06344,0.04636,-0.02928,0.00244,0.03416,-0.0488,0.07808,0.0488,0.02928,0.00976,0,0
-0.05856,0.04392,-0.02928,0,0.02928,-0.04392,0.07808,0.05368,0.03416,0.00976,0,0.00488
-0.05368,0.04148,-0.02928,-0.00244,0.0244,-0.03904,0.07808,0.05368,0.03416,0.00488,0.00976,0.00488
-0.05368,0.03904,-0.0244,0.00244,0.02928,-0.04148,0.07808,0.05368,0.03904,0.00976,0.00976,0.00976
-0.05368,0.03904,-0.0244,0.00244,0.02928,-0.04148,0.07808,0.05856,0.04392,0.0244,0.01464,0.00976
-0.0488,0.0366,-0.0244,0,0.0244,-0.0366,0.07808,0.06344,0.04392,0.0244,0.01952,0.00976
-0.04392,0.02928,-0.01464,0.00732,0.02928,-0.0366,0.06832,0.06832,0.0488,0.0244,0.01952,0.00488
-0.04392,0.02684,-0.00976,0.0122,0.03416,-0.03904,0.06832,0.0732,0.0488,0.0244,0.0244,0.00488
-0.03904,0.02196,-0.00488,0.01464,0.03416,-0.0366,0.06344,0.0732,0.05368,0.03904,0.0244,0.00976
-0.02928,0.0122,0.00488,0.01952,0.03416,-0.03172,0.06344,0.0732,0.06344,0.03904,0.02928,0.01952
-0.01952,0.00732,0.00488,0.01464,0.0244,-0.02196,0.06344,0.08296,0.05856,0.03904,0.03904,0.01464
-0.00976,-0.00244,0.01464,0.01952,0.0244,-0.01708,0.06344,0.08784,0.06344,0.04392,0.04392,0.01952
0,-0.00976,0.01952,0.01952,0.01952,-0.00976,0.06344,0.0976,0.07808,0.05856,0.03904,0.02928
0.00488,-0.01708,0.02928,0.02684,0.0244,-0.00976,0.06344,0.10736,0.08296,0.06344,0.0488,0.03904
0.0244,-0.0244,0.0244,0.0122,0,0.0122,0.06344,0.11712,0.09272,0.07808,0.06832,0.04392
0.03904,-0.03904,0.03904,0.01952,0,0.01952,0.06344,0.13176,0.10248,0.08784,0.07808,0.05368
0.03904,-0.04636,0.05368,0.03416,0.01464,0.0122,0.06344,0.13664,0.10736,0.0976,0.08296,0.06344
0.06344,-0.06588,0.06832,0.0366,0.00488,0.02928,0.05856,0.15128,0.11712,0.11224,0.08784,0.0732
0.06832,-0.0732,0.07808,0.04392,0.00976,0.02928,0.05856,0.16104,0.12688,0.11224,0.10248,0.08296
0.08784,-0.08784,0.08784,0.04392,0,0.04392,0.05368,0.17568,0.14152,0.12688,0.11712,0.09272
0.10736,-0.10492,0.10248,0.0488,-0.00488,0.05612,0.05368,0.19032,0.1464,0.14152,0.11712,0.10736
0.11712,-0.11712,0.11712,0.05856,0,0.05856,0.05368,0.20008,0.15616,0.15616,0.13176,0.11712
0.1464,-0.13908,0.13176,0.05856,-0.01464,0.08052,0.0488,0.20984,0.1708,0.1708,0.1464,0.13176
0.15616,-0.14884,0.14152,0.06344,-0.01464,0.0854,0.0488,0.21472,0.18056,0.18056,0.15128,0.13664
0.17568,-0.16104,0.1464,0.05856,-0.02928,0.10248,0.04392,0.22448,0.18544,0.18544,0.16104,0.1464
0.19032,-0.17324,0.15616,0.061,-0.03416,0.11224,0.03904,0.22448,0.1952,0.1952,0.1708,0.15128
0.19032,-0.18056,0.1708,0.07564,-0.01952,0.10492,0.03904,0.22936,0.1952,0.20008,0.1708,0.15128
0.20008,-0.19032,0.18056,0.08052,-0.01952,0.1098,0.03416,0.22936,0.20008,0.20008,0.17568,0.15616
0.20984,-0.20008,0.19032,0.0854,-0.01952,0.11468,0.0244,0.23424,0.20008,0.20008,0.16592,0.15128
0.20984,-0.20008,0.19032,0.0854,-0.01952,0.11468,0.0244,0.22936,0.20008,0.20496,0.16592,0.15128
0.2196,-0.20008,0.18056,0.07076,-0.03904,0.12932,0.02928,0.22448,0.20008,0.1952,0.18056,0.15128
0.21472,-0.19764,0.18056,0.0732,-0.03416,0.12444,0.0244,0.2196,0.1952,0.1952,0.17568,0.15128
0.21472,-0.19764,0.18056,0.0732,-0.03416,0.12444,0.01952,0.20496,0.18544,0.19032,0.17568,0.15128
0.20496,-0.19276,0.18056,0.07808,-0.0244,0.11468,0.01952,0.18544,0.17568,0.18056,0.16104,0.14152
0.1952,-0.19032,0.18544,0.08784,-0.00976,0.10248,0.01464,0.1708,0.1708,0.17568,0.16104,0.14152
0.18544,-0.17324,0.16104,0.06832,-0.0244,0.10492,0.01464,0.15128,0.16104,0.16104,0.15128,0.13176
0.1708,-0.16836,0.16592,0.08052,-0.00488,0.08784,0.00976,0.13664,0.14152,0.14152,0.14152,0.122
0.15616,-0.15372,0.15128,0.0732,-0.00488,0.08052,0.00976,0.11712,0.12688,0.12688,0.122,0.10736
0.122,-0.12688,0.13176,0.07076,0.00976,0.05612,0.00976,0.10736,0.11712,0.11712,0.11224,0.0976
0.10736,-0.1098,0.11224,0.05856,0.00488,0.05124,0.00976,0.08784,0.0976,0.11224,0.0976,0.09272
0.0976,-0.0976,0.0976,0.0488,0,0.0488,0.00976,0.0732,0.08296,0.08296,0.07808,0.0732
0.07808,-0.07808,0.07808,0.03904,0,0.03904,0.01952,0.06344,0.0732,0.0732,0.06344,0.06344
0.0488,-0.061,0.0732,0.0488,0.0244,0.0122,0.01952,0.05368,0.05368,0.06344,0.05368,0.06344
0.03904,-0.05124,0.06344,0.04392,0.0244,0.00732,0.01952,0.04392,0.04392,0.04392,0.04392,0.0488
0.02928,-0.04148,0.05368,0.03904,0.0244,0.00244,0.01952,0.03416,0.03416,0.03416,0.03416,0.02928
0.01952,-0.02684,0.03416,0.0244,0.01464,0.00244,0.01952,0.02928,0.02928,0.02928,0.03416,0.0244
0,-0.01464,0.02928,0.02928,0.02928,-0.01464,0.03416,0.01952,0.0244,0.01952,0.03416,0.0244
0,-0.01464,0.02928,0.02928,0.02928,-0.01464,0.03904,0.01464,0.0244,0.01464,0.02928,0.02928
-0.00488,-0.00976,0.0244,0.02684,0.02928,-0.01708,0.02928,0.01952,0.0244,0.01464,0.01464,0.01464
-0.00488,-0.00976,0.0244,0.02684,0.02928,-0.01708,0.02928,0.01952,0.01464,0.00976,0.00976,0.00976
-0.00488,-0.00976,0.0244,0.02684,0.02928,-0.01708,0.03904,0.01464,0.01464,0.00976,0.00976,0
-0.00976,-0.00488,0.01952,0.0244,0.02928,-0.01952,0.03904,0.01464,0.01464,0.00488,0.00976,0
-0.00976,-0.00488,0.01952,0.0244,0.02928,-0.01952,0.02928,0.01464,0.01464,0.00488,0.00976,0.00488
-0.00976,-0.00244,0.01464,0.01952,0.0244,-0.01708,0.02928,0.01464,0.01464,0.00488,0.00488,0.00488
-0.00976,-0.00244,0.01464,0.01952,0.0244,-0.01708,0.02928,0.01464,0.0244,0.00488,0.00488,0.00488
-0.00976,-0.00244,0.01464,0.01952,0.0244,-0.01708,0.02928,0.01464,0.0244,0.00488,0.00488,0.00488
-0.00976,-0.00488,0.01952,0.0244,0.02928,-0.01952,0.02928,0.0244,0.0244,0.01464,0.00488,0.00488
-0.00976,-0.00488,0.01952,0.0244,0.02928,-0.01952,0.02928,0.0244,0.0244,0.01464,0.00976,0.00488
-0.00976,-0.00976,0.02928,0.03416,0.03904,-0.0244,0.02928,0.0244,0.01464,0.01464,0.00976,0.00976
-0.00976,-0.00976,0.02928,0.03416,0.03904,-0.0244,0.02928,0.0244,0.01464,0.01464,0.00976,0.00488
-0.00976,-0.00976,0.02928,0.03416,0.03904,-0.0244,0.02928,0.01464,0.01464,0.01464,0.01464,0.01464
-0.00976,-0.00976,0.02928,0.03416,0.03904,-0.0244,0.03416,0.01952,0.01952,0.01464,0.01464,0.01464
-0.00976,-0.00488,0.01952,0.0244,0.02928,-0.01952,0.03416,0.00976,0.01952,0.00488,0.01464,0.01464
-0.00976,-0.00488,0.01952,0.0244,0.02928,-0.01952,0.02928,0.00976,0.01952,0.00976,0.00976,0.01464
-0.01464,0,0.01464,0.02196,0.02928,-0.02196,0.02928,0.01952,0.01952,0.00488,0.01952,0.0244
-0.01464,-0.00244,0.01952,0.02684,0.03416,-0.0244,0.02928,0.01952,0.01952,0.00488,0.01952,0.0244
-0.00488,-0.00976,0.0244,0.02684,0.02928,-0.01708,0.02928,0.01952,0.01952,0.01464,0.01952,0.0244
-0.00488,-0.00976,0.0244,0.02684,0.02928,-0.01708,0.03416,0.01464,0.01952,0.01464,0.01952,0.0244
-0.00976,0,0.00976,0.01464,0.01952,-0.01464,0.03416,0.01464,0.01952,0.00488,0.01952,0.0244
-0.00976,0,0.00976,0.01464,0.01952,-0.01464,0.03416,0.01464,0.01952,0.00488,0.0244,0.0244
-0.01464,-0.00244,0.01952,0.02684,0.03416,-0.0244,0.03416,0.01464,0.01952,0.00488,0.01464,0.0244
-0.01464,-0.00244,0.01952,0.02684,0.03416,-0.0244,0.03416,0.01464,0.01464,0.00488,0.00976,0.0244
-0.00488,-0.00488,0.01464,0.01708,0.01952,-0.0122,0.03416,0.01464,0.01464,0.00976,0.00976,0.01464
-0.00488,-0.00732,0.01952,0.02196,0.0244,-0.01464,0.02928,0.00976,0.00976,0.00976,0.00976,0.01464
-0.00976,0.00244,0.00488,0.00976,0.01464,-0.0122,0.03416,0.01464,0.00976,0.00976,0.00976,0.01464
-0.01464,0.00488,0.00488,0.0122,0.01952,-0.01708,0.02928,0.00976,0.01464,0.00976,0.00976,0.01464
-0.01952,0.00732,0.00488,0.01464,0.0244,-0.02196,0.03416,0.00488,0.0244,0.00976,0.01464,0.01464
-0.01952,0.00732,0.00488,0.01464,0.0244,-0.02196,0.03416,0.00488,0.0244,0.00976,0.01464,0.01464
-0.01952,0.00732,0.00488,0.01464,0.0244,-0.02196,0.03416,0.00488,0.01464,0.00488,0.01464,0.01952
-0.01464,0.00732,0,0.00732,0.01464,-0.01464,0.02928,0.00488,0.01464,0.00488,0.01464,0.01952
-0.01464,0.00732,0,0.00732,0.01464,-0.01464,0.02928,0.00488,0.0244,0.00488,0.01464,0.01952
-0.01464,0.00488,0.00488,0.0122,0.01952,-0.01708,0.02928,0,0.01952,0.00976,0.01464,0.01952
-0.0244,0.01464,-0.00488,0.00732,0.01952,-0.02196,0.03904,0.00976,0.00976,-0.00488,0.00976,0.00976
-0.0244,0.01464,-0.00488,0.00732,0.01952,-0.02196,0.04392,0.00976,0.00976,-0.00488,0.00976,0.00976
-0.0244,0.01464,-0.00488,0.00732,0.01952,-0.02196,0.03416,0.00976,0.00976,0.00488,0.00976,0.00488
-0.02928,0.01708,-0.00488,0.00976,0.0244,-0.02684,0.03416,0.00976,0.00976,0.00488,0.00976,0.00488
-0.01952,0.00732,0.00488,0.01464,0.0244,-0.02196,0.03416,0,0.01464,0,0.00976,0
-0.0244,0.0122,0,0.0122,0.0244,-0.0244,0.03416,-0.00488,0.01464,0.00488,0.00976,0
-0.02928,0.01464,0,0.01464,0.02928,-0.02928,0.03904,0,0.01952,0,0.00976,0
-0.02928,0.01464,0,0.01464,0.02928,-0.02928,0.03904,0,0.00976,0,0,0
-0.02928,0.01464,0,0.01464,0.02928,-0.02928,0.03904,0,0.00976,0,0,0
-0.02928,0.00732,0.01464,0.02928,0.04392,-0.0366,0.03904,0.00976,0.01952,-0.00488,0.00488,0.00488
-0.01464,-0.00976,0.03416,0.04148,0.0488,-0.03172,0.03904,0.00976,0.02928,0.00976,0.01952,0.01952
-0.00488,-0.02684,0.05856,0.061,0.06344,-0.03416,0.03904,0.01464,0.03904,0.01952,0.02928,0.02928
0.01952,-0.05124,0.08296,0.0732,0.06344,-0.02196,0.03904,0.01464,0.05368,0.03904,0.0488,0.04392
0.02928,-0.06588,0.10248,0.08784,0.0732,-0.02196,0.0244,0.01952,0.06344,0.04392,0.06344,0.06344
0.0244,-0.06588,0.10736,0.09516,0.08296,-0.02928,0.0244,0.01952,0.05856,0.04392,0.06832,0.06832
0.01464,-0.05856,0.10248,0.09516,0.08784,-0.0366,0.02928,0.00976,0.06344,0.0488,0.05368,0.06344
0.00976,-0.05368,0.0976,0.09272,0.08784,-0.03904,0.02928,0.00488,0.06344,0.0488,0.05368,0.06344
0.00976,-0.04636,0.08296,0.07808,0.0732,-0.03172,0.03416,0.01952,0.06344,0.0488,0.05856,0.05856
0.03416,-0.06588,0.0976,0.08052,0.06344,-0.01464,0.03416,0.03416,0.07808,0.06344,0.06832,0.06832
0.05368,-0.09028,0.12688,0.10004,0.0732,-0.00976,0.0244,0.02928,0.08784,0.08296,0.08296,0.07808
0.06344,-0.10736,0.15128,0.11956,0.08784,-0.0122,0.00488,0.01464,0.09272,0.08784,0.08296,0.08784
0.06832,-0.1098,0.15128,0.11712,0.08296,-0.00732,-0.0244,0,0.08296,0.06832,0.08784,0.09272
0.0732,-0.10004,0.12688,0.09028,0.05368,0.00976,-0.05368,-0.01952,0.0488,0.0488,0.06832,0.0732
0.06344,-0.08052,0.0976,0.06588,0.03416,0.01464,-0.05856,-0.04392,0.01952,0.0244,0.03416,0.04392
0.08784,-0.09516,0.10248,0.05856,0.01464,0.0366,-0.06344,-0.03904,0.00976,0.01952,0.03416,0.04392
0.08784,-0.09516,0.10248,0.05856,0.01464,0.0366,-0.05856,-0.0244,0.00976,0.01464,0.03416,0.03904
0.07808,-0.0854,0.09272,0.05368,0.01464,0.03172,-0.0488,-0.0244,0.00976,0.01464,0.03416,0.03904
0.0732,-0.07808,0.08296,0.04636,0.00976,0.03172,-0.03904,-0.03416,0.00488,0.01464,0.01952,0.02928
0.05856,-0.06588,0.0732,0.04392,0.01464,0.02196,-0.0244,-0.01952,0.00488,0.01952,0.01952,0.02928
0.04392,-0.05368,0.06344,0.04148,0.01952,0.0122,0,-0.01464,0.00976,0.00976,0.02928,0.03416
0.04392,-0.0488,0.05368,0.03172,0.00976,0.01708,0.00488,-0.00488,0.01464,0.00976,0.02928,0.03416
0.02928,-0.03172,0.03416,0.01952,0.00488,0.0122,0.01952,0.00488,0.01464,0.01464,0.01952,0.01952
0.0244,-0.02196,0.01952,0.00732,-0.00488,0.01464,0.01952,-0.00488,0,0,0,0.00488
0,0.00488,-0.00976,-0.00976,-0.00976,0.00488,0.01952,-0.01952,-0.01464,-0.01952,-0.00488,0
-0.01464,0.01464,-0.01464,-0.00732,0,-0.00732,0.01952,-0.01464,-0.01464,-0.0244,-0.00488,0
-0.0244,0.01952,-0.01464,-0.00244,0.00976,-0.01708,0.03416,-0.00488,-0.00488,-0.01464,-0.01464,-0.00976
-0.03416,0.02684,-0.01952,-0.00244,0.01464,-0.0244,0.03904,-0.00488,-0.00488,-0.01464,-0.01952,-0.00976
-0.04392,0.04148,-0.03904,-0.01708,0.00488,-0.0244,0.04392,-0.00976,-0.01464,-0.02928,-0.0244,-0.01952
-0.05368,0.04636,-0.03904,-0.0122,0.01464,-0.03416,0.05368,-0.00976,-0.01464,-0.02928,-0.0244,-0.01952
-0.06344,0.04636,-0.02928,0.00244,0.03416,-0.0488,0.04392,-0.01952,-0.01464,-0.02928,-0.0244,-0.01952
-0.06832,0.05124,-0.03416,0,0.03416,-0.05124,0.04392,-0.01464,-0.01464,-0.02928,-0.0244,-0.01952
-0.05856,0.04636,-0.03416,-0.00488,0.0244,-0.04148,0.04392,-0.01464,-0.01464,-0.02928,-0.0244,-0.01952
-0.05856,0.04636,-0.03416,-0.00488,0.0244,-0.04148,0.0488,-0.01464,-0.01464,-0.02928,-0.0244,-0.01952
-0.05856,0.05124,-0.04392,-0.01464,0.01464,-0.0366,0.05368,-0.00488,-0.01464,-0.02928,-0.01464,-0.01464
-0.0732,0.05856,-0.04392,-0.00732,0.02928,-0.05124,0.06832,0.00488,-0.00488,-0.01952,-0.01464,-0.01464
-0.09272,0.07076,-0.0488,-0.00244,0.04392,-0.06832,0.10248,0.03904,0.00976,-0.01464,-0.01464,-0.0244
-0.08784,0.061,-0.03416,0.00976,0.05368,-0.07076,0.13176,0.08784,0.06832,0.03904,0.02928,0.00488
-0.06344,0.0366,-0.00976,0.02196,0.05368,-0.05856,0.14152,0.14152,0.122,0.07808,0.06344,0.0488
0.08784,-0.0488,0.00976,-0.03416,-0.07808,0.08296,0.10248,0.18056,0.11224,0.09272,0.07808,0.06832
0.22448,-0.122,0.01952,-0.09272,-0.20496,0.21472,0.0488,0.22448,0.09272,0.10248,0.07808,0.06344
0.40504,-0.2196,0.03416,-0.16836,-0.37088,0.38796,-0.03904,0.1952,0.04392,0.06344,0.04392,0.05856
0.5612,-0.29524,0.02928,-0.25132,-0.53192,0.54656,-0.16104,0.11712,-0.03904,0.01952,-0.00488,0.04392
0.68808,-0.37576,0.06344,-0.2806,-0.62464,0.65636,-0.27328,0.01952,-0.11712,-0.04392,-0.0244,0.01464
0.72224,-0.44164,0.16104,-0.20008,-0.5612,0.64172,-0.37088,-0.16592,-0.1952,-0.07808,-0.01464,0.05856
0.61976,-0.45628,0.2928,-0.01708,-0.32696,0.47336,-0.45384,-0.42944,-0.2684,-0.10248,0,0.10736
0.37576,-0.33428,0.2928,0.10492,-0.08296,0.22936,-0.4148,-0.57584,-0.30744,-0.16592,-0.03416,0.06344
-0.03416,0.0122,0.00976,0.02684,0.04392,-0.03904,-0.27816,-0.67344,-0.48312,-0.40992,-0.27816,-0.19032
-0.25864,0.25132,-0.244,-0.11468,0.01464,-0.13664,-0.20008,-0.76128,-0.6588,-0.63928,-0.49288,-0.40992
-0.3172,0.33672,-0.35624,-0.19764,-0.03904,-0.13908,-0.18544,-0.81008,-0.75152,-0.74176,-0.60512,-0.5124
-0.25376,0.35136,-0.44896,-0.32208,-0.1952,-0.02928,-0.16104,-0.72224,-0.78568,-0.77592,-0.67344,-0.58072
-0.20984,0.30988,-0.40992,-0.305,-0.20008,-0.00488,-0.16104,-0.60512,-0.71248,-0.70272,-0.60024,-0.50752
-0.18056,0.26108,-0.3416,-0.25132,-0.16104,-0.00976,-0.09272,-0.44896,-0.57584,-0.56608,-0.47336,-0.40992
-0.1708,0.23668,-0.30256,-0.21716,-0.13176,-0.01952,-0.03416,-0.34648,-0.45872,-0.45384,-0.40016,-0.34648
-0.18056,0.20252,-0.22448,-0.1342,-0.04392,-0.06832,0,-0.26352,-0.33184,-0.33672,-0.30256,-0.24888
-0.1708,0.16104,-0.15128,-0.06588,0.01952,-0.09516,0.01464,-0.1708,-0.22448,-0.23912,-0.21472,-0.16592
-0.1464,0.122,-0.0976,-0.0244,0.0488,-0.0976,0.01464,-0.10248,-0.1464,-0.15616,-0.13176,-0.0976
-0.11224,0.09516,-0.07808,-0.02196,0.03416,-0.0732,0.0244,-0.07808,-0.08784,-0.11224,-0.09272,-0.07808
-0.08296,0.07808,-0.0732,-0.03172,0.00976,-0.04636,0.05368,-0.05368,-0.05856,-0.07808,-0.07808,-0.05856
-0.09272,0.08052,-0.06832,-0.02196,0.0244,-0.05856,0.05856,-0.01464,-0.03416,-0.05856,-0.0488,-0.03904
-0.09272,0.08052,-0.06832,-0.02196,0.0244,-0.05856,0.06832,0.00488,-0.02928,-0.0488,-0.03904,-0.02928
-0.08784,0.07564,-0.06344,-0.01952,0.0244,-0.05612,0.07808,0,-0.01952,-0.03904,-0.03904,-0.03416
-0.07808,0.07076,-0.06344,-0.0244,0.01464,-0.04636,0.07808,0,-0.01464,-0.03416,-0.03904,-0.03416
-0.08296,0.07076,-0.05856,-0.01708,0.0244,-0.05368,0.06832,0.00488,-0.00488,-0.03904,-0.03416,-0.02928
-0.08296,0.06832,-0.05368,-0.0122,0.02928,-0.05612,0.0732,0.00488,-0.00488,-0.02928,-0.02928,-0.01952
-0.08296,0.061,-0.03904,0.00244,0.04392,-0.06344,0.0732,0.01952,0,-0.02928,-0.01952,-0.01952
-0.07808,0.05856,-0.03904,0,0.03904,-0.05856,0.07808,0.01464,0.00488,-0.0244,-0.01952,-0.01952
-0.06832,0.05612,-0.04392,-0.00976,0.0244,-0.04636,0.07808,0.02928,0.01464,-0.00976,-0.01952,-0.00488
-0.06832,0.05612,-0.04392,-0.00976,0.0244,-0.04636,0.07808,0.02928,0.01464,-0.00976,-0.01464,-0.00488
-0.06832,0.061,-0.05368,-0.01952,0.01464,-0.04148,0.0732,0.02928,0.00488,-0.00488,-0.00976,0
-0.06832,0.05856,-0.0488,-0.01464,0.01952,-0.04392,0.0732,0.02928,0.00976,-0.00488,-0.00976,0
-0.06832,0.05856,-0.0488,-0.01464,0.01952,-0.04392,0.08296,0.02928,0.00976,-0.00976,-0.00976,-0.00488
-0.06344,0.05368,-0.04392,-0.0122,0.01952,-0.04148,0.08784,0.02928,0.01464,-0.00488,-0.00976,0
-0.06344,0.0488,-0.03416,-0.00244,0.02928,-0.04636,0.07808,0.03416,0.00488,-0.00488,-0.00976,0
-0.06344,0.0488,-0.03416,-0.00244,0.02928,-0.04636,0.07808,0.03416,0.00976,0,-0.00976,-0.00488
-0.06344,0.04636,-0.02928,0.00244,0.03416,-0.0488,0.07808,0.03904,0.01952,0,-0.00976,0
-0.06344,0.04636,-0.02928,0.00244,0.03416,-0.0488,0.07808,0.03904,0.01952,0,-0.00976,0
-0.06344,0.05124,-0.03904,-0.00732,0.0244,-0.04392,0.06832,0.04392,0.03416,0.00488,-0.00488,0.00488
-0.06344,0.04392,-0.0244,0.00732,0.03904,-0.05124,0.06832,0.04392,0.03416,0.00976,0,0.00976
-0.05368,0.03904,-0.0244,0.00244,0.02928,-0.04148,0.06832,0.0488,0.03904,0,-0.00976,0
-0.05368,0.03904,-0.0244,0.00244,0.02928,-0.04148,0.06832,0.05368,0.02928,0.00488,-0.00488,0
-0.0488,0.03172,-0.01464,0.00976,0.03416,-0.04148,0.06832,0.06344,0.03904,0.01952,0.00976,0.01464
-0.04392,0.02684,-0.00976,0.0122,0.03416,-0.03904,0.06832,0.0732,0.03904,0.0244,0.00976,0.01464
-0.04392,0.02684,-0.00976,0.0122,0.03416,-0.03904,0.06344,0.06832,0.04392,0.03416,0.0244,0.01464
-0.02928,0.01464,0,0.01464,0.02928,-0.02928,0.06344,0.0732,0.05368,0.03904,0.0244,0.01952
-0.02928,0.01708,-0.00488,0.00976,0.0244,-0.02684,0.06344,0.07808,0.05856,0.03904,0.02928,0.0244
-0.01464,0.00732,0,0.00732,0.01464,-0.01464,0.06344,0.08296,0.05856,0.04392,0.03904,0.02928
-0.00488,0,0.00488,0.00732,0.00976,-0.00732,0.06344,0.09272,0.06344,0.04392,0.03416,0.0244
0,-0.00732,0.01464,0.01464,0.01464,-0.00732,0.06344,0.10248,0.06832,0.05368,0.04392,0.03416
0.01952,-0.02196,0.0244,0.01464,0.00488,0.00732,0.06344,0.11224,0.07808,0.06344,0.04392,0.03416
0.02928,-0.03172,0.03416,0.01952,0.00488,0.0122,0.06344,0.122,0.08784,0.0732,0.05368,0.03904
0.04392,-0.03904,0.03416,0.0122,-0.00976,0.02684,0.06344,0.13176,0.10248,0.08296,0.0732,0.05368
0.05856,-0.05612,0.05368,0.0244,-0.00488,0.03172,0.06344,0.14152,0.10736,0.0976,0.0732,0.0732
0.0732,-0.07076,0.06832,0.03172,-0.00488,0.03904,0.05856,0.1464,0.122,0.11712,0.0976,0.08784
0.09272,-0.09028,0.08784,0.04148,-0.00488,0.0488,0.05856,0.16592,0.13176,0.13176,0.11224,0.09272
0.11224,-0.10736,0.10248,0.04636,-0.00976,0.061,0.05368,0.17568,0.13664,0.14152,0.11224,0.0976
0.12688,-0.12444,0.122,0.05856,-0.00488,0.06588,0.05368,0.18544,0.15128,0.1464,0.12688,0.11224
0.13664,-0.13176,0.12688,0.05856,-0.00976,0.0732,0.0488,0.1952,0.16592,0.15616,0.14152,0.12688
0.1464,-0.14152,0.13664,0.06344,-0.00976,0.07808,0.0488,0.20496,0.17568,0.16592,0.15128,0.13664
0.1708,-0.16104,0.15128,0.06588,-0.01952,0.09516,0.0488,0.20496,0.18056,0.17568,0.14152,0.12688
0.18056,-0.1708,0.16104,0.07076,-0.01952,0.10004,0.04392,0.21472,0.19032,0.18056,0.15616,0.13664
0.19032,-0.18056,0.1708,0.07564,-0.01952,0.10492,0.03904,0.2196,0.1952,0.18056,0.16104,0.15128
0.1952,-0.183,0.1708,0.0732,-0.0244,0.1098,0.03416,0.2196,0.1952,0.18056,0.16104,0.15616
0.20008,-0.183,0.16592,0.06588,-0.03416,0.11712,0.03416,0.22448,0.20008,0.18544,0.16592,0.15128
0.20008,-0.18544,0.1708,0.07076,-0.02928,0.11468,0.03416,0.22448,0.20008,0.20008,0.16592,0.15128
0.20496,-0.19032,0.17568,0.0732,-0.02928,0.11712,0.0244,0.22936,0.20008,0.1952,0.1708,0.16104
0.20984,-0.19764,0.18544,0.08052,-0.0244,0.11712,0.01952,0.2196,0.20008,0.1952,0.1708,0.16104
0.20496,-0.19764,0.19032,0.08784,-0.01464,0.1098,0.01464,0.22448,0.20496,0.20008,0.17568,0.16104
0.20008,-0.1952,0.19032,0.09028,-0.00976,0.10492,0.0244,0.20984,0.19032,0.18544,0.16592,0.15616
0.20008,-0.19032,0.18056,0.08052,-0.01952,0.1098,0.01464,0.19032,0.18056,0.17568,0.16592,0.1464
0.1952,-0.18056,0.16592,0.06832,-0.02928,0.11224,0.01464,0.1708,0.1708,0.1708,0.15616,0.13664
0.17568,-0.16348,0.15128,0.06344,-0.0244,0.10004,0,0.16104,0.16104,0.15616,0.1464,0.13664
0.15128,-0.14396,0.13664,0.061,-0.01464,0.08296,0,0.13664,0.1464,0.15128,0.13176,0.12688
0.12688,-0.12932,0.13176,0.06832,0.00488,0.061,0.00976,0.10736,0.12688,0.12688,0.122,0.122
0.10736,-0.1098,0.11224,0.05856,0.00488,0.05124,0.00976,0.09272,0.10736,0.10736,0.10736,0.0976
0.07808,-0.08296,0.08784,0.0488,0.00976,0.03416,0.00976,0.07808,0.08784,0.08784,0.07808,0.07808
0.05856,-0.06344,0.06832,0.03904,0.00976,0.0244,0.01464,0.0732,0.07808,0.07808,0.0732,0.0732
0.0488,-0.05612,0.06344,0.03904,0.01464,0.01708,0.01952,0.05856,0.06832,0.05856,0.05368,0.05368
0.03416,-0.04148,0.0488,0.03172,0.01464,0.00976,0.01952,0.0488,0.05368,0.04392,0.03416,0.04392
0.01464,-0.0244,0.03416,0.02684,0.01952,-0.00244,0.0244,0.03904,0.03904,0.03416,0.02928,0.03416
0.00488,-0.01708,0.02928,0.02684,0.0244,-0.00976,0.01952,0.02928,0.03416,0.03416,0.0244,0.02928
-0.00488,-0.00976,0.0244,0.02684,0.02928,-0.01708,0.01952,0.01952,0.0244,0.0244,0.01464,0.01952
-0.00976,-0.00488,0.01952,0.0244,0.02928,-0.01952,0.0244,0.01464,0.0244,0.01952,0.01464,0.01464
-0.01952,0.00488,0.00976,0.01952,0.02928,-0.0244,0.02928,0.01464,0.0244,0.01464,0.01464,0.01952
-0.02928,0.0122,0.00488,0.01952,0.03416,-0.03172,0.02928,0.00976,0.01952,0.01464,0.01464,0.01464
-0.03416,0.01464,0.00488,0.02196,0.03904,-0.0366,0.02928,0.00976,0.0244,0.00976,0.00976,0.00976
-0.03416,0.01464,0.00488,0.02196,0.03904,-0.0366,0.02928,0.00488,0.0244,0.00976,0.00976,0.00976
-0.02928,0.00976,0.00976,0.0244,0.03904,-0.03416,0.02928,0.00488,0.01464,0.00488,0.00976,0.01464
-0.02928,0.0122,0.00488,0.01952,0.03416,-0.03172,0.02928,0.00488,0.01464,0.00488,0.00488,0.01464
-0.02928,0.01708,-0.00488,0.00976,0.0244,-0.02684,0.02928,0.00488,0.01464,0.00488,0.00488,0.01464
-0.02928,0.01708,-0.00488,0.00976,0.0244,-0.02684,0.02928,0.00488,0.01464,0.00488,0.00488,0.01464
-0.02928,0.01708,-0.00488,0.00976,0.0244,-0.02684,0.02928,0.00488,0.01464,0.00488,0.00488,0.00488
-0.02928,0.01464,0,0.01464,0.02928,-0.02928,0.02928,0.00488,0.01464,0.00488,0.00976,0.00488
-0.02928,0.01464,0,0.01464,0.02928,-0.02928,0.02928,0.00488,0.01464,0.00488,0.00976,0.01952
-0.02928,0.01464,0,0.01464,0.02928,-0.02928,0.02928,0.00488,0.01464,0.00488,0.00976,0.01464
-0.02928,0.01464,0,0.01464,0.02928,-0.02928,0.02928,0.00488,0.01464,-0.00488,0.00488,0.00488
-0.02928,0.01464,0,0.01464,0.02928,-0.02928,0.02928,0.00976,0.01464,-0.00488,0,0.00488
-0.03904,0.01952,0,0.01952,0.03904,-0.03904,0.03416,0.00976,0.01952,-0.00488,0.00488,0.00488
-0.03904,0.01952,0,0.01952,0.03904,-0.03904,0.03416,0.00976,0.01952,-0.00488,0.00488,0.00488
-0.02928,0.00976,0.00976,0.0244,0.03904,-0.03416,0.02928,0.00976,0.01952,0,0,0.00488
-0.03416,0.01464,0.00488,0.02196,0.03904,-0.0366,0.02928,0.00976,0.01952,-0.00488,0,0.00488
-0.03416,0.0122,0.00976,0.02684,0.04392,-0.03904,0.02928,0.00976,0.00976,0.00488,0,0.00488
-0.03416,0.01708,0,0.01708,0.03416,-0.03416,0.02928,0.00976,0.00976,0.00488,0,0.00488
-0.03904,0.01708,0.00488,0.0244,0.04392,-0.04148,0.0244,-0.00488,0.00976,0.00488,0,0.01464
-0.03904,0.01952,0,0.01952,0.03904,-0.03904,0.0244,-0.00488,0.00976,0.00488,0,0.01464
-0.03904,0.01952,0,0.01952,0.03904,-0.03904,0.03416,-0.00488,0.01952,0.00488,-0.00488,0.00488
-0.04392,0.02196,0,0.02196,0.04392,-0.04392,0.03416,-0.00488,0.01464,0.00488,-0.00976,0.00488
-0.04392,0.02928,-0.01464,0.00732,0.02928,-0.0366,0.03416,0.00488,0.01464,0,0,0.00488
-0.04392,0.02684,-0.00976,0.0122,0.03416,-0.03904,0.03416,0.00488,0.01464,0,0,0.00488
-0.03904,0.0244,-0.00976,0.00976,0.02928,-0.03416,0.02928,0,0.00976,0,-0.00976,0.00488
-0.03904,0.02684,-0.01464,0.00488,0.0244,-0.03172,0.03416,0.00488,0.00976,0,-0.00976,0.00488
-0.03904,0.02684,-0.01464,0.00488,0.0244,-0.03172,0.02928,0,0.01464,0.00976,-0.00488,0.00488
-0.03904,0.02684,-0.01464,0.00488,0.0244,-0.03172,0.03416,0.00488,0.01464,0.00976,-0.00488,0.00488
-0.0488,0.02684,-0.00488,0.01952,0.04392,-0.04636,0.03416,-0.00488,0.00488,0.00976,0.00488,0.01464
-0.0488,0.02928,-0.00976,0.01464,0.03904,-0.04392,0.02928,-0.00488,0.00488,0.00488,0.00488,0.00976
-0.05368,0.0366,-0.01952,0.00732,0.03416,-0.04392,0.03904,-0.00488,0.00488,-0.00488,0,0
-0.05368,0.0366,-0.01952,0.00732,0.03416,-0.04392,0.03904,-0.00976,0,-0.00488,-0.00976,0
-0.05368,0.03904,-0.0244,0.00244,0.02928,-0.04148,0.03904,-0.00976,0,0,-0.01464,-0.00976
-0.05368,0.03904,-0.0244,0.00244,0.02928,-0.04148,0.04392,-0.00976,0,-0.00488,-0.01952,-0.00976
-0.05368,0.03416,-0.01464,0.0122,0.03904,-0.04636,0.03416,-0.00976,0.00976,-0.00488,-0.00976,-0.00488
-0.05368,0.03416,-0.01464,0.0122,0.03904,-0.04636,0.03416,-0.00976,0.00976,-0.00488,-0.00976,-0.00488
-0.0488,0.02684,-0.00488,0.01952,0.04392,-0.04636,0.04392,-0.00976,0.00976,0,-0.00976,0
-0.03904,0.0244,-0.00976,0.00976,0.02928,-0.03416,0.03904,-0.00976,0,-0.00976,-0.00976,-0.00976
-0.03904,0.0244,-0.00976,0.00976,0.02928,-0.03416,0.03904,-0.00976,0,-0.00976,-0.00976,-0.00976
-0.03904,0.0244,-0.00976,0.00976,0.02928,-0.03416,0.02928,0,0.01464,0,-0.01952,-0.00976
-0.02928,0.01464,0,0.01464,0.02928,-0.02928,0.02928,0,0.0244,0.01464,-0.00976,0.00488
-0.01952,-0.00976,0.03904,0.0488,0.05856,-0.03904,0.02928,-0.00488,0.03416,0.01464,0.00976,0.01464
-0.00488,-0.02928,0.06344,0.06588,0.06832,-0.0366,0.02928,0.00488,0.0488,0.02928,0.02928,0.0244
0.01464,-0.04392,0.0732,0.06588,0.05856,-0.02196,0.02928,0,0.0488,0.04392,0.0488,0.0488
0,-0.04392,0.08784,0.08784,0.08784,-0.04392,0.0244,0,0.05368,0.04392,0.05856,0.05856
-0.01464,-0.02928,0.0732,0.08052,0.08784,-0.05124,0.02928,0.00976,0.0488,0.03904,0.04392,0.0488
-0.01464,-0.0244,0.06344,0.07076,0.07808,-0.04636,0.02928,0.00488,0.05368,0.03904,0.04392,0.04392
-0.01952,-0.01708,0.05368,0.06344,0.0732,-0.04636,0.03416,0.00976,0.06344,0.03904,0.03904,0.03904
-0.00976,-0.0244,0.05856,0.06344,0.06832,-0.03904,0.03416,0.01952,0.06344,0.04392,0.03904,0.03904
0.01952,-0.05124,0.08296,0.0732,0.06344,-0.02196,0.01952,0.02928,0.08296,0.05856,0.0732,0.06344
0.04392,-0.07808,0.11224,0.09028,0.06832,-0.0122,0.00976,0.01952,0.09272,0.06832,0.08296,0.07808
0.0488,-0.09028,0.13176,0.10736,0.08296,-0.01708,-0.01464,-0.00976,0.07808,0.06832,0.0732,0.0732
0.05368,-0.08784,0.122,0.09516,0.06832,-0.00732,-0.0488,-0.02928,0.04392,0.0488,0.05856,0.06832
0.05368,-0.07564,0.0976,0.07076,0.04392,0.00488,-0.06832,-0.03904,0.01464,0.02928,0.02928,0.05368
0.06344,-0.08296,0.10248,0.07076,0.03904,0.0122,-0.0732,-0.04392,0.00488,0.0244,0.0244,0.04392
0.07808,-0.0854,0.09272,0.05368,0.01464,0.03172,-0.06832,-0.03904,0,0.01464,0.01952,0.03904
0.05856,-0.06588,0.0732,0.04392,0.01464,0.02196,-0.05368,-0.03416,0,0.01464,0.01464,0.0244
0.05368,-0.05612,0.05856,0.03172,0.00488,0.0244,-0.04392,-0.04392,0.00488,0.00488,0.01952,0.01952
0.03904,-0.03904,0.03904,0.01952,0,0.01952,-0.03416,-0.03416,0.00488,-0.00488,0.01952,0.01952
0.01464,-0.02196,0.02928,0.02196,0.01464,0,-0.00976,-0.01464,0.00976,0,0.00976,0.01464
0,-0.00976,0.01952,0.01952,0.01952,-0.00976,0,-0.00976,0.00976,0,0.00976,0.01464
-0.00488,-0.00244,0.00976,0.0122,0.01464,-0.00976,0.00976,-0.01464,0.00488,0,0.00976,0.01464
-0.00976,0.0122,-0.01464,-0.00976,-0.00488,-0.00244,0.00976,-0.01464,-0.00488,-0.00976,-0.00488,0
-0.03904,0.02928,-0.01952,0,0.01952,-0.02928,0,-0.02928,-0.01952,-0.02928,-0.0244,-0.01952
-0.05368,0.04148,-0.02928,-0.00244,0.0244,-0.03904,0,-0.0244,-0.0244,-0.03416,-0.0244,-0.01952
-0.0488,0.0488,-0.0488,-0.0244,0,-0.0244,0.01464,-0.0244,-0.01464,-0.0244,-0.0244,-0.01952
-0.05856,0.05612,-0.05368,-0.0244,0.00488,-0.03172,0.01952,-0.0244,-0.01464,-0.0244,-0.0244,-0.01952
-0.06832,0.06588,-0.06344,-0.02928,0.00488,-0.0366,0.0244,-0.0244,-0.01464,-0.0244,-0.02928,-0.01952
-0.08296,0.07564,-0.06832,-0.02684,0.01464,-0.0488,0.03416,-0.02928,-0.01464,-0.02928,-0.01952,-0.01952
-0.09272,0.08052,-0.06832,-0.02196,0.0244,-0.05856,0.0244,-0.01952,-0.01464,-0.01952,-0.0244,-0.00976
-0.0976,0.0854,-0.0732,-0.0244,0.0244,-0.061,0.0244,-0.01464,-0.01464,-0.01952,-0.0244,-0.00976
-0.0976,0.08052,-0.06344,-0.01464,0.03416,-0.06588,0.03416,-0.01464,-0.00488,-0.02928,-0.03416,-0.01952
-0.0976,0.08052,-0.06344,-0.01464,0.03416,-0.06588,0.03416,-0.01464,-0.00488,-0.02928,-0.03416,-0.01952
-0.08784,0.08052,-0.0732,-0.02928,0.01464,-0.05124,0.03904,-0.01464,-0.00488,-0.03904,-0.03416,-0.02928
-0.0976,0.09028,-0.08296,-0.03416,0.01464,-0.05612,0.0488,0,-0.00976,-0.03904,-0.03416,-0.03416
-0.11712,0.10248,-0.08784,-0.02928,0.02928,-0.0732,0.0732,0.02928,0.01464,-0.0244,-0.03416,-0.03416
-0.11224,0.09516,-0.07808,-0.02196,0.03416,-0.0732,0.11712,0.07808,0.05856,0.03416,0.01952,0.00488
-0.0976,0.06344,-0.02928,0.01952,0.06832,-0.08296,0.122,0.12688,0.10736,0.0732,0.0488,0.03416
-0.00976,0.00732,-0.00488,0,0.00488,-0.00732,0.10248,0.16592,0.13176,0.10248,0.06344,0.05856
0.13664,-0.05612,-0.0244,-0.09272,-0.16104,0.14884,0.05856,0.21472,0.11224,0.08784,0.05368,0.03904
0.2928,-0.1342,-0.0244,-0.1708,-0.3172,0.305,-0.00488,0.20496,0.06344,0.08296,0.0488,0.05368
0.49288,-0.23912,-0.01464,-0.26108,-0.50752,0.5002,-0.13176,0.15128,-0.0244,0.02928,0.00488,0.01952
0.62952,-0.30988,-0.00976,-0.32452,-0.63928,0.6344,-0.24888,0.03904,-0.11224,-0.0488,-0.05368,-0.01464
0.71248,-0.39284,0.0732,-0.28304,-0.63928,0.67588,-0.36112,-0.0732,-0.18056,-0.07808,-0.0488,-0.00488
0.65392,-0.427,0.20008,-0.12688,-0.45384,0.55388,-0.43432,-0.3172,-0.23424,-0.08784,-0.01952,0.06832
0.46848,-0.37088,0.27328,0.03904,-0.1952,0.33184,-0.4636,-0.53192,-0.25376,-0.11224,0,0.08784
0.08296,-0.11712,0.15128,0.1098,0.06832,0.00732,-0.36112,-0.64904,-0.33184,-0.22936,-0.122,-0.05368
-0.23912,0.1952,-0.15128,-0.03172,0.08784,-0.16348,-0.22936,-0.7076,-0.51728,-0.49288,-0.37576,-0.3172
-0.37576,0.32696,-0.27816,-0.09028,0.0976,-0.23668,-0.18544,-0.79056,-0.64904,-0.62952,-0.50264,-0.42944
-0.33672,0.38064,-0.42456,-0.2562,-0.08784,-0.12444,-0.16104,-0.7564,-0.71736,-0.71736,-0.60512,-0.52216
-0.30256,0.36844,-0.43432,-0.28304,-0.13176,-0.0854,-0.14152,-0.63928,-0.68808,-0.6832,-0.58072,-0.51728
-0.28792,0.33184,-0.37576,-0.2318,-0.08784,-0.10004,-0.11712,-0.53192,-0.59536,-0.57584,-0.49288,-0.44408
-0.25864,0.29524,-0.33184,-0.20252,-0.0732,-0.09272,-0.03416,-0.39528,-0.46848,-0.46848,-0.40504,-0.36112
-0.23912,0.26108,-0.28304,-0.16348,-0.04392,-0.0976,0.00976,-0.29768,-0.35624,-0.35624,-0.32696,-0.2684
-0.23912,0.22936,-0.2196,-0.10004,0.01952,-0.12932,0.02928,-0.21472,-0.25864,-0.25376,-0.22936,-0.20008
-0.20984,0.183,-0.15616,-0.05124,0.05368,-0.13176,0.03416,-0.13176,-0.1708,-0.17568,-0.1464,-0.15616
-0.15616,0.13908,-0.122,-0.04392,0.03416,-0.09516,0.02928,-0.09272,-0.122,-0.13176,-0.11712,-0.10736
-0.11224,0.11468,-0.11712,-0.061,-0.00488,-0.05368,0.05368,-0.05856,-0.0732,-0.0976,-0.10248,-0.0732
-0.11224,0.1098,-0.10736,-0.05124,0.00488,-0.05856,0.04392,-0.03904,-0.03904,-0.05856,-0.06344,-0.05856
-0.122,0.11468,-0.10736,-0.04636,0.01464,-0.06832,0.04392,-0.00976,-0.02928,-0.03904,-0.04392,-0.05368
-0.122,0.11468,-0.10736,-0.04636,0.01464,-0.06832,0.0488,-0.00488,-0.01952,-0.03416,-0.03904,-0.05368
-0.10736,0.1098,-0.11224,-0.05856,-0.00488,-0.05124,0.05856,0,-0.0244,-0.03904,-0.05856,-0.05368
-0.11224,0.1098,-0.10736,-0.05124,0.00488,-0.05856,0.05856,0.00488,-0.01464,-0.04392,-0.06344,-0.0488
-0.11224,0.10248,-0.09272,-0.0366,0.01952,-0.06588,0.05856,0.00488,-0.00488,-0.01952,-0.04392,-0.02928
-0.11224,0.10248,-0.09272,-0.0366,0.01952,-0.06588,0.06344,0.01952,-0.00488,-0.01952,-0.02928,-0.02928
-0.10736,0.0976,-0.08784,-0.03416,0.01952,-0.06344,0.06344,0.01464,0,-0.00488,-0.01952,-0.01952
-0.10248,0.09516,-0.08784,-0.0366,0.01464,-0.05856,0.06832,0.01952,0.00488,-0.00488,-0.01952,-0.01952
-0.0976,0.09028,-0.08296,-0.03416,0.01464,-0.05612,0.06832,0.02928,0.01464,-0.00976,-0.01464,-0.01464
-0.0976,0.09028,-0.08296,-0.03416,0.01464,-0.05612,0.06344,0.03416,0.01464,-0.00488,-0.01464,-0.00976
-0.0976,0.09028,-0.08296,-0.03416,0.01464,-0.05612,0.06344,0.02928,0.00488,-0.00488,-0.00976,-0.01952
-0.0976,0.08784,-0.07808,-0.02928,0.01952,-0.05856,0.06344,0.02928,0.00976,-0.00488,-0.00488,-0.01464
-0.10248,0.09272,-0.08296,-0.03172,0.01952,-0.061,0.06832,0.02928,0.01464,0.00976,-0.00976,-0.01464
-0.10248,0.09272,-0.08296,-0.03172,0.01952,-0.061,0.06832,0.03416,0.01464,0.01464,-0.00976,-0.00976
-0.09272,0.08296,-0.0732,-0.02684,0.01952,-0.05612,0.05856,0.03416,0.01464,0.00976,0,-0.00976
-0.09272,0.08296,-0.0732,-0.02684,0.01952,-0.05612,0.05856,0.03904,0.01952,0.00976,0,-0.01464
-0.09272,0.08052,-0.06832,-0.02196,0.0244,-0.05856,0.05856,0.02928,0.01952,0.00976,0,-0.01952
-0.08784,0.07808,-0.06832,-0.0244,0.01952,-0.05368,0.05856,0.03416,0.0244,0.00976,0,-0.01464
-0.08296,0.07564,-0.06832,-0.02684,0.01464,-0.0488,0.05856,0.04392,0.0244,0.00488,0,-0.01464
-0.08296,0.0732,-0.06344,-0.02196,0.01952,-0.05124,0.05856,0.04392,0.02928,0.00976,0,-0.00976
-0.08296,0.07808,-0.0732,-0.03172,0.00976,-0.04636,0.05856,0.0488,0.0244,0.01464,-0.00488,-0.00976
-0.07808,0.07564,-0.0732,-0.03416,0.00488,-0.04148,0.05856,0.05368,0.0244,0.01464,0,-0.00976
-0.0732,0.0732,-0.0732,-0.0366,0,-0.0366,0.0488,0.0488,0.03904,0.03416,0.00976,-0.00488
-0.0732,0.07076,-0.06832,-0.03172,0.00488,-0.03904,0.0488,0.05368,0.03904,0.03416,0.01464,-0.00488
-0.06832,0.06588,-0.06344,-0.02928,0.00488,-0.0366,0.05368,0.06344,0.04392,0.03904,0.0244,0
-0.05856,0.05612,-0.05368,-0.0244,0.00488,-0.03172,0.05368,0.06344,0.05368,0.03904,0.02928,0.00976
-0.0488,0.05124,-0.05368,-0.02928,-0.00488,-0.02196,0.04392,0.0732,0.0488,0.03904,0.02928,0.01464
-0.03904,0.04148,-0.04392,-0.0244,-0.00488,-0.01708,0.04392,0.07808,0.05368,0.04392,0.03416,0.01952
-0.02928,0.02928,-0.02928,-0.01464,0,-0.01464,0.04392,0.07808,0.05856,0.05856,0.03904,0.02928
-0.0244,0.02196,-0.01952,-0.00732,0.00488,-0.01464,0.04392,0.08784,0.06344,0.06344,0.0488,0.03904
-0.00488,0.01464,-0.0244,-0.02196,-0.01952,0.00732,0.03416,0.10736,0.0732,0.06832,0.0488,0.03416
0.00976,0,-0.00976,-0.01464,-0.01952,0.01464,0.03416,0.122,0.08296,0.07808,0.05856,0.04392
0.02928,-0.0122,-0.00488,-0.01952,-0.03416,0.03172,0.03416,0.12688,0.08784,0.07808,0.06344,0.05368
0.05368,-0.03172,0.00976,-0.01708,-0.04392,0.0488,0.02928,0.14152,0.0976,0.09272,0.05856,0.06344
0.05856,-0.03904,0.01952,-0.00976,-0.03904,0.0488,0.03904,0.15128,0.10736,0.10248,0.08296,0.0732
0.07808,-0.05368,0.02928,-0.00976,-0.0488,0.06344,0.03416,0.16592,0.122,0.11712,0.0976,0.08296
0.08784,-0.06588,0.04392,0,-0.04392,0.06588,0.0244,0.1708,0.13664,0.13176,0.10736,0.0976
0.0976,-0.07808,0.05856,0.00976,-0.03904,0.06832,0.01464,0.18056,0.1464,0.1464,0.122,0.10736
0.12688,-0.09516,0.06344,0,-0.06344,0.09516,0.00976,0.19032,0.15128,0.15128,0.12688,0.11224
0.1464,-0.1098,0.0732,0,-0.0732,0.1098,0.00976,0.1952,0.16104,0.16104,0.13176,0.11712
0.15616,-0.12688,0.0976,0.01952,-0.05856,0.10736,0.00488,0.1952,0.16592,0.16592,0.14152,0.12688
0.1708,-0.13908,0.10736,0.02196,-0.06344,0.11712,0,0.1952,0.17568,0.17568,0.15128,0.13176
0.1708,-0.14152,0.11224,0.02684,-0.05856,0.11468,0.00976,0.20008,0.17568,0.18056,0.15128,0.13176
0.18056,-0.1464,0.11224,0.02196,-0.06832,0.12444,0.00488,0.20008,0.18056,0.18056,0.15616,0.13664
0.19032,-0.15616,0.122,0.02684,-0.06832,0.12932,-0.00488,0.20496,0.1708,0.18056,0.15616,0.14152
0.19032,-0.15616,0.122,0.02684,-0.06832,0.12932,-0.00488,0.20008,0.1708,0.18544,0.15616,0.14152
0.19032,-0.15128,0.11224,0.01708,-0.07808,0.1342,-0.00976,0.1952,0.1708,0.17568,0.15128,0.13176
0.18544,-0.14884,0.11224,0.01952,-0.0732,0.12932,-0.01464,0.19032,0.16592,0.17568,0.1464,0.13176
0.1952,-0.15372,0.11224,0.01464,-0.08296,0.13908,-0.01952,0.18544,0.16592,0.1708,0.15616,0.14152
0.18544,-0.14884,0.11224,0.01952,-0.0732,0.12932,-0.01952,0.16592,0.15616,0.1708,0.14152,0.13176
0.16592,-0.14152,0.11712,0.03416,-0.0488,0.10736,-0.0244,0.16104,0.14152,0.15616,0.13176,0.122
0.15616,-0.12444,0.09272,0.01464,-0.06344,0.1098,-0.0244,0.14152,0.13176,0.14152,0.122,0.11224
0.13176,-0.10492,0.07808,0.0122,-0.05368,0.09272,-0.01952,0.11712,0.122,0.13176,0.122,0.10248
0.11712,-0.09028,0.06344,0.00488,-0.05368,0.0854,-0.01952,0.0976,0.10736,0.12688,0.10248,0.08784
0.08296,-0.06832,0.05368,0.0122,-0.02928,0.05612,-0.00976,0.08784,0.0976,0.11712,0.09272,0.07808
0.06832,-0.05612,0.04392,0.00976,-0.0244,0.04636,-0.00976,0.06832,0.08784,0.10248,0.07808,0.0732
0.0488,-0.04392,0.03904,0.01464,-0.00976,0.02928,-0.01952,0.05368,0.06344,0.08296,0.06832,0.06344
0.02928,-0.0244,0.01952,0.00488,-0.00976,0.01952,-0.00976,0.04392,0.05368,0.0732,0.05368,0.05368
0.00976,-0.00732,0.00488,0,-0.00488,0.00732,-0.00976,0.04392,0.04392,0.06344,0.04392,0.03416
0,0.00244,-0.00488,-0.00488,-0.00488,0.00244,-0.00976,0.03416,0.03416,0.04392,0.03416,0.01952
-0.01952,0.01708,-0.01464,-0.00488,0.00488,-0.0122,0,0.0244,0.03416,0.04392,0.03416,0.01952
-0.03904,0.03172,-0.0244,-0.00488,0.01464,-0.02684,0.00976,0.01952,0.02928,0.03904,0.03416,0.01464
-0.0488,0.03904,-0.02928,-0.00488,0.01952,-0.03416,0.01464,0.01952,0.0244,0.02928,0.0244,0.00488
-0.0488,0.03904,-0.02928,-0.00488,0.01952,-0.03416,0.01952,0.01464,0.0244,0.0244,0.01952,0.00976
-0.05368,0.0488,-0.04392,-0.01708,0.00976,-0.03172,0.00976,0.00976,0.0244,0.01464,0.01464,0.00488
-0.05368,0.0488,-0.04392,-0.01708,0.00976,-0.03172,0.00976,0.00976,0.01464,0.00976,0.00976,0
-0.05368,0.04392,-0.03416,-0.00732,0.01952,-0.0366,0.00976,0.00488,0.01464,0.01952,0.00976,0.00976
-0.05856,0.0488,-0.03904,-0.00976,0.01952,-0.03904,0.00976,0.00488,0.01464,0.01464,0.00976,0.00976
-0.0488,0.03904,-0.02928,-0.00488,0.01952,-0.03416,0.00976,0.00488,0.0244,0.01464,0.01952,0.00488
-0.0488,0.0366,-0.0244,0,0.0244,-0.0366,0.00976,0.00488,0.0244,0.01464,0.01464,0.00488
-0.05856,0.05124,-0.04392,-0.01464,0.01464,-0.0366,0.01952,0.01464,0.01464,0.00488,0.00488,-0.00488
-0.05856,0.05612,-0.05368,-0.0244,0.00488,-0.03172,0.01952,0.01464,0.00488,0.00488,-0.00488,-0.00488
-0.05856,0.05368,-0.0488,-0.01952,0.00976,-0.03416,0.01952,0.01464,0.01464,0.00488,0.00488,-0.00488
-0.05856,0.05368,-0.0488,-0.01952,0.00976,-0.03416,0.01952,0.01464,0.01464,0.00488,0.00976,-0.00488
-0.05856,0.0488,-0.03904,-0.00976,0.01952,-0.03904,0.02928,0.01464,0.01464,0.00488,0.00976,0
-0.05856,0.0488,-0.03904,-0.00976,0.01952,-0.03904,0.02928,0.01464,0.01464,0.00488,0.00976,-0.00488
-0.05856,0.05368,-0.0488,-0.01952,0.00976,-0.03416,0.01952,0.01464,0.01464,0.00488,0.00488,-0.01464
-0.05856,0.05856,-0.05856,-0.02928,0,-0.02928,0.0244,0.01952,0.01952,0.00488,0.00488,-0.01464
-0.05856,0.05368,-0.0488,-0.01952,0.00976,-0.03416,0.01464,0.00976,0.01952,0.01464,0.01464,-0.00488
-0.05856,0.05368,-0.0488,-0.01952,0.00976,-0.03416,0.00976,0.00976,0.01952,0.01952,0.00976,-0.00488
-0.06344,0.06344,-0.06344,-0.03172,0,-0.03172,0.00976,0.00976,0.01952,0.00488,0.00976,0.00488
-0.06344,0.061,-0.05856,-0.02684,0.00488,-0.03416,0.00976,0.00976,0.01952,0.00488,0.00976,0.00488
-0.06344,0.05368,-0.04392,-0.0122,0.01952,-0.04148,0.00976,0.00976,0.00976,0.00488,0.00976,0.00488
-0.06344,0.05368,-0.04392,-0.0122,0.01952,-0.04148,0.01464,0.00488,0.00976,0.00488,0.00976,0.00488
-0.05856,0.0488,-0.03904,-0.00976,0.01952,-0.03904,0.01464,0.00488,0.01952,0.01464,0.01952,0.00488
-0.05856,0.0488,-0.03904,-0.00976,0.01952,-0.03904,0.01464,0.00488,0.01952,0.0244,0.0244,0.00488
-0.05368,0.05124,-0.0488,-0.02196,0.00488,-0.02928,0.00488,0.00488,0.01952,0.01464,0.01464,-0.00488
-0.05368,0.05124,-0.0488,-0.02196,0.00488,-0.02928,0.00488,0.00488,0.01464,0.01464,0.00976,-0.00488
-0.06344,0.05856,-0.05368,-0.02196,0.00976,-0.0366,0.01464,0.00488,0.01464,0.00976,0.00976,-0.00488
-0.06344,0.05612,-0.0488,-0.01708,0.01464,-0.03904,0.00976,0,0.00976,0.00976,0.00976,-0.00488
-0.06832,0.05612,-0.04392,-0.00976,0.0244,-0.04636,0.01464,0.00488,0.00976,0,0.00976,-0.01464
-0.0732,0.05856,-0.04392,-0.00732,0.02928,-0.05124,0.00976,0,0.01464,0,0.00976,-0.01464
-0.06832,0.05612,-0.04392,-0.00976,0.0244,-0.04636,0.01464,0.00488,0.01464,0,-0.00488,-0.01464
-0.05856,0.05124,-0.04392,-0.01464,0.01464,-0.0366,0.01464,0.00488,0.01464,0,-0.00488,-0.01464
-0.06832,0.061,-0.05368,-0.01952,0.01464,-0.04148,0.01464,0.00488,0.00488,-0.00488,-0.01464,-0.01952
-0.06344,0.061,-0.05856,-0.02684,0.00488,-0.03416,0.00976,0.00488,0.00488,-0.00488,-0.01464,-0.01952
-0.06344,0.06588,-0.06832,-0.0366,-0.00488,-0.02928,0.00976,0.00488,0.00488,0.00488,-0.00488,-0.01952
-0.06344,0.06344,-0.06344,-0.03172,0,-0.03172,0.00976,0,0,0.00976,0.00488,-0.01952
-0.06344,0.05856,-0.05368,-0.02196,0.00976,-0.0366,0.00976,0,0,0.00488,0,-0.00976
-0.06344,0.05856,-0.05368,-0.02196,0.00976,-0.0366,0.01464,0,0,0.00488,0,-0.00976
-0.05368,0.05368,-0.05368,-0.02684,0,-0.02684,0.01464,0,0.00976,0.00488,0,-0.01464
-0.06832,0.061,-0.05368,-0.01952,0.01464,-0.04148,0.01464,0,0.00976,-0.00488,0,-0.01464
-0.06344,0.061,-0.05856,-0.02684,0.00488,-0.03416,0.01952,0,0,0,0,-0.01952
-0.0732,0.06588,-0.05856,-0.02196,0.01464,-0.04392,0.01952,0,0,0,0,-0.01952
-0.06832,0.05856,-0.0488,-0.01464,0.01952,-0.04392,0.01952,0,0.00488,0,-0.00976,-0.01952
-0.05856,0.0488,-0.03904,-0.00976,0.01952,-0.03904,0.01952,0,0.01464,0.01464,0,-0.00488
-0.0488,0.0244,0,0.0244,0.0488,-0.0488,0.00976,-0.00488,0.03416,0.0244,0.01952,0.01464
-0.03416,0.00488,0.0244,0.04148,0.05856,-0.04636,0.00976,0.00488,0.0488,0.03904,0.03904,0.0244
-0.00976,-0.02196,0.05368,0.05856,0.06344,-0.0366,0.00976,0.00976,0.05856,0.05368,0.0488,0.02928
-0.01464,-0.02684,0.06832,0.07564,0.08296,-0.0488,0.00488,0.00976,0.06344,0.05368,0.05856,0.03904
-0.0244,-0.01464,0.05368,0.06588,0.07808,-0.05124,0.01464,0.01464,0.0488,0.03904,0.0488,0.02928
-0.0244,0,0.0244,0.0366,0.0488,-0.0366,0.0244,0.01952,0.05368,0.03904,0.03904,0.0244
-0.02928,0.00732,0.01464,0.02928,0.04392,-0.0366,0.0244,0.01952,0.04392,0.03904,0.03904,0.02928
-0.01952,0,0.01952,0.02928,0.03904,-0.02928,0.0244,0.02928,0.04392,0.04392,0.03904,0.02928
0,-0.0244,0.0488,0.0488,0.0488,-0.0244,0.00976,0.03904,0.06832,0.06832,0.0732,0.06344
0.0244,-0.05612,0.08784,0.07564,0.06344,-0.01952,0,0.02928,0.08784,0.07808,0.08296,0.07808
0.02928,-0.06588,0.10248,0.08784,0.0732,-0.02196,-0.0244,0.00976,0.08296,0.07808,0.08296,0.06344
0.03416,-0.06344,0.09272,0.07564,0.05856,-0.0122,-0.05856,-0.00976,0.05856,0.05856,0.06832,0.05856
0.03416,-0.04636,0.05856,0.04148,0.0244,0.00488,-0.08784,-0.03904,0.01464,0.01952,0.02928,0.03416
0.04392,-0.05368,0.06344,0.04148,0.01952,0.0122,-0.09272,-0.04392,0.00488,0.01464,0.0244,0.0244
0.06832,-0.06344,0.05856,0.0244,-0.00976,0.03904,-0.08784,-0.02928,0.00976,0.01464,0.02928,0.0244
0.0488,-0.0488,0.0488,0.0244,0,0.0244,-0.0732,-0.0244,0.00976,0.01464,0.0244,0.01952
0.04392,-0.04148,0.03904,0.01708,-0.00488,0.0244,-0.06344,-0.03416,0,0.00976,0.01464,0
0.02928,-0.0244,0.01952,0.00488,-0.00976,0.01952,-0.05368,-0.0244,-0.00976,-0.00976,0.00488,0
0,0,0,0,0,0,-0.02928,-0.01464,-0.00488,0,0.00976,0.00488
-0.00488,0.00732,-0.00976,-0.00732,-0.00488,0,-0.01952,-0.00976,0.00488,0,0.00976,0.00488
-0.01464,0.0122,-0.00976,-0.00244,0.00488,-0.00976,-0.00976,-0.00488,0.00488,0,0.01952,0.00488
-0.01952,0.02684,-0.03416,-0.0244,-0.01464,-0.00244,-0.00976,-0.00488,-0.00488,-0.00976,0.00488,-0.00976
-0.03904,0.0488,-0.05856,-0.03904,-0.01952,-0.00976,-0.00976,-0.02928,-0.01952,-0.02928,-0.01952,-0.03904
-0.05368,0.061,-0.06832,-0.04148,-0.01464,-0.01952,-0.00976,-0.0244,-0.0244,-0.03416,-0.02928,-0.03904
-0.06832,0.0732,-0.07808,-0.04392,-0.00976,-0.02928,0.00488,-0.0244,-0.0244,-0.03416,-0.03416,-0.0488
-0.07808,0.08052,-0.08296,-0.04392,-0.00488,-0.0366,0.00976,-0.0244,-0.0244,-0.03416,-0.03416,-0.0488
-0.07808,0.08052,-0.08296,-0.04392,-0.00488,-0.0366,0.00488,-0.0244,-0.0244,-0.03416,-0.03416,-0.05368
-0.09272,0.09028,-0.08784,-0.04148,0.00488,-0.0488,0.01464,-0.02928,-0.0244,-0.03904,-0.03416,-0.04392
-0.09272,0.09516,-0.0976,-0.05124,-0.00488,-0.04392,0.01464,-0.01952,-0.0244,-0.03904,-0.0244,-0.02928
-0.0976,0.10004,-0.10248,-0.05368,-0.00488,-0.04636,0.01464,-0.01464,-0.0244,-0.03904,-0.0244,-0.02928
-0.0976,0.10004,-0.10248,-0.05368,-0.00488,-0.04636,0.01464,-0.01464,-0.03416,-0.03904,-0.02928,-0.03416
-0.0976,0.10004,-0.10248,-0.05368,-0.00488,-0.04636,0.01464,-0.01464,-0.03416,-0.03904,-0.03904,-0.04392
-0.0976,0.10004,-0.10248,-0.05368,-0.00488,-0.04636,0.02928,-0.00488,-0.03416,-0.03904,-0.04392,-0.03904
-0.0976,0.10004,-0.10248,-0.05368,-0.00488,-0.04636,0.02928,-0.00976,-0.02928,-0.03904,-0.03416,-0.03416
-0.11712,0.11224,-0.10736,-0.0488,0.00976,-0.06344,0.05368,0.02928,-0.00488,-0.0244,-0.0244,-0.0244
-0.122,0.10492,-0.08784,-0.02684,0.03416,-0.07808,0.08784,0.07808,0.0488,0.0244,0.00976,-0.01464
-0.0976,0.08296,-0.06832,-0.01952,0.02928,-0.06344,0.11224,0.11712,0.0976,0.05368,0.02928,0.00488
-0.0488,0.05124,-0.05368,-0.02928,-0.00488,-0.02196,0.10248,0.17568,0.122,0.10248,0.0732,0.0488
0.10736,-0.03172,-0.04392,-0.0976,-0.15128,0.12932,0.05856,0.21472,0.11224,0.10736,0.0732,0.06832
0.25376,-0.12932,0.00488,-0.122,-0.24888,0.25132,-0.01464,0.20496,0.09272,0.10248,0.07808,0.0732
0.47336,-0.22936,-0.01464,-0.25132,-0.488,0.48068,-0.14152,0.16104,0.00488,0.03904,0.03416,0.02928
0.58072,-0.28548,-0.00976,-0.30012,-0.59048,0.5856,-0.24888,0.06832,-0.09272,-0.01952,-0.0244,0.01464
0.6832,-0.37332,0.06344,-0.27816,-0.61976,0.65148,-0.35136,-0.0244,-0.15128,-0.03904,-0.00976,0.04392
0.6344,-0.42212,0.20984,-0.10736,-0.42456,0.52948,-0.45384,-0.27816,-0.21472,-0.06832,0.01952,0.0976
0.47824,-0.3904,0.30256,0.06344,-0.17568,0.32696,-0.49288,-0.50264,-0.25376,-0.10248,0.01952,0.0976
0.122,-0.13664,0.15128,0.09028,0.02928,0.04636,-0.38064,-0.61976,-0.33184,-0.23912,-0.11224,-0.04392
-0.23912,0.20008,-0.16104,-0.04148,0.07808,-0.1586,-0.25864,-0.68808,-0.55632,-0.50264,-0.37576,-0.3172
-0.34648,0.3172,-0.28792,-0.11468,0.05856,-0.20252,-0.21472,-0.77104,-0.67832,-0.63928,-0.5124,-0.42944
-0.3172,0.36112,-0.40504,-0.24644,-0.08784,-0.11468,-0.20984,-0.7564,-0.7564,-0.73688,-0.62464,-0.55144
-0.28304,0.36356,-0.44408,-0.30256,-0.16104,-0.061,-0.16104,-0.63928,-0.72712,-0.71248,-0.61976,-0.54656
-0.27816,0.3416,-0.40504,-0.26596,-0.12688,-0.07564,-0.13664,-0.52216,-0.64416,-0.62464,-0.53192,-0.4636
-0.24888,0.30988,-0.37088,-0.24644,-0.122,-0.06344,-0.06344,-0.38552,-0.51728,-0.50752,-0.45384,-0.3904
-0.23912,0.26596,-0.2928,-0.17324,-0.05368,-0.09272,-0.01952,-0.30744,-0.39528,-0.40504,-0.35624,-0.3172
-0.24888,0.244,-0.23912,-0.11468,0.00976,-0.12932,0.00976,-0.21472,-0.28792,-0.2928,-0.24888,-0.23912
-0.2196,0.2074,-0.1952,-0.0854,0.0244,-0.122,0.0244,-0.14152,-0.20984,-0.21472,-0.17568,-0.16592
-0.17568,0.16836,-0.16104,-0.0732,0.01464,-0.09516,0.00976,-0.09272,-0.15128,-0.16104,-0.1464,-0.12688
-0.122,0.12932,-0.13664,-0.07564,-0.01464,-0.05368,0.0244,-0.05856,-0.09272,-0.11712,-0.11224,-0.11224
-0.11224,0.11956,-0.12688,-0.07076,-0.01464,-0.0488,0.03416,-0.03904,-0.06832,-0.07808,-0.09272,-0.0976
-0.11224,0.11468,-0.11712,-0.061,-0.00488,-0.05368,0.03416,-0.00976,-0.0488,-0.05856,-0.06344,-0.0732
-0.11224,0.11468,-0.11712,-0.061,-0.00488,-0.05368,0.03904,-0.00488,-0.03904,-0.05368,-0.0488,-0.06344
-0.0976,0.10004,-0.10248,-0.05368,-0.00488,-0.04636,0.02928,0,-0.0244,-0.0488,-0.05856,-0.05368
-0.10248,0.10004,-0.0976,-0.04636,0.00488,-0.05368,0.02928,0.00488,-0.01464,-0.04392,-0.05368,-0.0488
-0.10248,0.0976,-0.09272,-0.04148,0.00976,-0.05612,0.02928,-0.00488,-0.0244,-0.03904,-0.05368,-0.0488
-0.10248,0.0976,-0.09272,-0.04148,0.00976,-0.05612,0.03416,0.00976,-0.03416,-0.03904,-0.0488,-0.0488
-0.10736,0.10248,-0.0976,-0.04392,0.00976,-0.05856,0.03416,0.00488,-0.01952,-0.03416,-0.03904,-0.03904
-0.10248,0.10004,-0.0976,-0.04636,0.00488,-0.05368,0.03904,0.00976,-0.01464,-0.03416,-0.03904,-0.03904
-0.0976,0.09028,-0.08296,-0.03416,0.01464,-0.05612,0.03904,0.01952,-0.00488,-0.02928,-0.03416,-0.03416
-0.0976,0.09028,-0.08296,-0.03416,0.01464,-0.05612,0.03416,0.0244,-0.00488,-0.0244,-0.03416,-0.02928
-0.08784,0.09028,-0.09272,-0.0488,-0.00488,-0.04148,0.04392,0.02928,-0.01464,-0.03416,-0.03904,-0.03904
-0.08784,0.09272,-0.0976,-0.05368,-0.00976,-0.03904,0.04392,0.02928,-0.00976,-0.03416,-0.03416,-0.04392
-0.08296,0.08296,-0.08296,-0.04148,0,-0.04148,0.03904,0.02928,-0.00488,-0.02928,-0.02928,-0.04392
-0.08296,0.07808,-0.0732,-0.03172,0.00976,-0.04636,0.03904,0.03416,-0.00488,-0.0244,-0.02928,-0.03904
-0.08296,0.0732,-0.06344,-0.02196,0.01952,-0.05124,0.02928,0.0244,-0.00488,-0.00976,-0.01952,-0.02928
-0.08296,0.0732,-0.06344,-0.02196,0.01952,-0.05124,0.02928,0.02928,0,-0.00976,-0.01952,-0.03416
-0.0732,0.07076,-0.06832,-0.03172,0.00488,-0.03904,0.02928,0.02928,0.00976,-0.00976,-0.00976,-0.02928
-0.06832,0.06832,-0.06832,-0.03416,0,-0.03416,0.02928,0.03416,0.01464,-0.00976,-0.00976,-0.0244
-0.06344,0.05612,-0.0488,-0.01708,0.01464,-0.03904,0.02928,0.03416,0.01464,-0.00488,-0.00976,-0.0244
-0.06344,0.05368,-0.04392,-0.0122,0.01952,-0.04148,0.02928,0.03416,0.01952,0,-0.00976,-0.01952
-0.06344,0.05856,-0.05368,-0.02196,0.00976,-0.0366,0.02928,0.0488,0.01464,-0.00488,-0.01464,-0.01952
-0.05856,0.05612,-0.05368,-0.0244,0.00488,-0.03172,0.02928,0.05368,0.01464,-0.00488,-0.00976,-0.01952
-0.06344,0.06344,-0.06344,-0.03172,0,-0.03172,0.02928,0.0488,0.01952,0.00488,-0.00976,-0.01464
-0.06344,0.061,-0.05856,-0.02684,0.00488,-0.03416,0.02928,0.05368,0.01952,0.00488,-0.00488,-0.01464
-0.05856,0.061,-0.06344,-0.03416,-0.00488,-0.02684,0.0244,0.06344,0.01464,0.00976,-0.01464,-0.01952
-0.0488,0.05124,-0.05368,-0.02928,-0.00488,-0.02196,0.0244,0.06344,0.0244,0,-0.00976,-0.00976
-0.02928,0.04148,-0.05368,-0.03904,-0.0244,-0.00244,0.0244,0.0732,0.02928,0.00976,0,-0.01464
-0.01952,0.03172,-0.04392,-0.03416,-0.0244,0.00244,0.0244,0.07808,0.03416,0.01464,0.00488,-0.00976
-0.00976,0.0244,-0.03904,-0.03416,-0.02928,0.00976,0.0244,0.08784,0.0488,0.02928,0.00976,0
-0.00488,0.01708,-0.02928,-0.02684,-0.0244,0.00976,0.0244,0.0976,0.05368,0.03416,0.01952,0.00976
0.01464,0,-0.01464,-0.02196,-0.02928,0.02196,0.01464,0.0976,0.0732,0.05856,0.03904,0.0244
0.02928,-0.01952,0.00976,-0.00488,-0.01952,0.0244,0.01464,0.10248,0.08296,0.06832,0.05856,0.04392
0.02928,-0.02684,0.0244,0.00976,-0.00488,0.01708,0.01464,0.11712,0.08784,0.06832,0.05368,0.04392
0.04392,-0.04148,0.03904,0.01708,-0.00488,0.0244,0.00976,0.13176,0.08784,0.0732,0.03904,0.04392
0.05856,-0.04392,0.02928,0,-0.02928,0.04392,0.00976,0.14152,0.08784,0.08296,0.06344,0.05368
0.07808,-0.05368,0.02928,-0.00976,-0.0488,0.06344,0.00488,0.15616,0.10248,0.0976,0.07808,0.06344
0.0976,-0.07564,0.05368,0.00488,-0.04392,0.07076,0.00488,0.1708,0.12688,0.122,0.0976,0.08784
0.10736,-0.08784,0.06832,0.01464,-0.03904,0.0732,0.00488,0.18056,0.1464,0.1464,0.122,0.0976
0.11712,-0.10004,0.08296,0.0244,-0.03416,0.07564,-0.00976,0.18056,0.15128,0.15128,0.12688,0.10248
0.12688,-0.1098,0.09272,0.02928,-0.03416,0.08052,-0.00976,0.18544,0.15128,0.15128,0.122,0.10736
0.1464,-0.12688,0.10736,0.03416,-0.03904,0.09272,-0.00488,0.20496,0.16592,0.16592,0.14152,0.12688
0.16104,-0.13908,0.11712,0.0366,-0.04392,0.10248,-0.00976,0.20496,0.17568,0.17568,0.15128,0.13176
0.1708,-0.15128,0.13176,0.04636,-0.03904,0.10492,-0.01952,0.20984,0.16592,0.1708,0.14152,0.13176
0.18056,-0.15616,0.13176,0.04148,-0.0488,0.11468,-0.0244,0.20984,0.1708,0.1708,0.1464,0.13664
0.19032,-0.1708,0.15128,0.05612,-0.03904,0.11468,-0.0244,0.20496,0.18056,0.18056,0.15616,0.14152
0.19032,-0.1708,0.15128,0.05612,-0.03904,0.11468,-0.0244,0.20008,0.18056,0.18544,0.15616,0.14152
0.19032,-0.16592,0.14152,0.04636,-0.0488,0.11956,-0.02928,0.1952,0.1708,0.17568,0.15128,0.14152
0.18544,-0.16348,0.14152,0.0488,-0.04392,0.11468,-0.03416,0.19032,0.16592,0.17568,0.1464,0.14152
0.18544,-0.16348,0.14152,0.0488,-0.04392,0.11468,-0.03904,0.18544,0.16592,0.1708,0.15616,0.14152
0.17568,-0.1586,0.14152,0.05368,-0.03416,0.10492,-0.03904,0.16592,0.15616,0.1708,0.14152,0.13176
0.15616,-0.1464,0.13664,0.05856,-0.01952,0.08784,-0.04392,0.15128,0.15128,0.16592,0.13176,0.122
0.1464,-0.12932,0.11224,0.03904,-0.03416,0.09028,-0.04392,0.13176,0.14152,0.15128,0.122,0.11224
0.13176,-0.11468,0.0976,0.03172,-0.03416,0.08296,-0.03904,0.11712,0.11224,0.122,0.10248,0.09272
0.11712,-0.09516,0.0732,0.01464,-0.04392,0.08052,-0.03904,0.0976,0.0976,0.10736,0.08296,0.07808
0.09272,-0.08296,0.0732,0.02684,-0.01952,0.05612,-0.0488,0.08784,0.08784,0.0976,0.0732,0.06832
0.07808,-0.07564,0.0732,0.03416,-0.00488,0.04148,-0.0488,0.06832,0.06832,0.08296,0.06832,0.06344
0.0488,-0.05368,0.05856,0.03416,0.00976,0.01952,-0.03904,0.06344,0.06344,0.06344,0.06832,0.05368
0.02928,-0.03416,0.03904,0.0244,0.00976,0.00976,-0.01952,0.05368,0.05368,0.05368,0.05368,0.04392
0,-0.0122,0.0244,0.0244,0.0244,-0.0122,-0.01952,0.03416,0.04392,0.04392,0.03416,0.03416
-0.00976,-0.00244,0.01464,0.01952,0.0244,-0.01708,-0.01952,0.01464,0.03416,0.0244,0.0244,0.01952
-0.01952,0.00732,0.00488,0.01464,0.0244,-0.02196,-0.01952,0.01464,0.01464,0.01464,0.00488,0
-0.02928,0.02196,-0.01464,0,0.01464,-0.02196,-0.00976,0.01952,0,0,0.00488,-0.00488
-0.03904,0.02928,-0.01952,0,0.01952,-0.02928,-0.00488,0.01952,0.00488,0,0.00488,-0.00488
-0.03904,0.02928,-0.01952,0,0.01952,-0.02928,0,0.01464,0.01464,0.00488,0,0.00976
-0.03416,0.02928,-0.0244,-0.00732,0.00976,-0.02196,-0.00976,0.00976,0.00488,-0.01464,-0.01464,-0.01464
-0.03416,0.02928,-0.0244,-0.00732,0.00976,-0.02196,-0.00976,0.00976,-0.01464,-0.02928,-0.02928,-0.02928
-0.04392,0.03416,-0.0244,-0.00244,0.01952,-0.03172,-0.00976,-0.00488,-0.01464,-0.01952,-0.01952,-0.01952
-0.05856,0.04392,-0.02928,0,0.02928,-0.04392,-0.00976,-0.00488,-0.01464,-0.01464,-0.00976,-0.01952
-0.05856,0.03904,-0.01952,0.00976,0.03904,-0.0488,-0.00976,0.00488,-0.00488,-0.01464,-0.00976,-0.01464
-0.05856,0.04148,-0.0244,0.00488,0.03416,-0.04636,-0.00976,0.00488,0.00488,-0.01464,-0.01464,-0.01464
-0.05856,0.04636,-0.03416,-0.00488,0.0244,-0.04148,-0.00976,0.00488,-0.00488,-0.0244,-0.0244,-0.0244
-0.05856,0.04636,-0.03416,-0.00488,0.0244,-0.04148,-0.00976,0.00488,-0.01464,-0.0244,-0.03416,-0.03416
-0.0488,0.04392,-0.03904,-0.01464,0.00976,-0.02928,-0.00976,-0.00488,-0.01464,-0.0244,-0.03416,-0.03416
-0.0488,0.04392,-0.03904,-0.01464,0.00976,-0.02928,-0.00976,-0.00488,-0.01464,-0.0244,-0.02928,-0.03416
-0.05856,0.04392,-0.02928,0,0.02928,-0.04392,-0.00976,-0.00488,-0.01464,-0.01464,-0.02928,-0.01952
-0.05856,0.04392,-0.02928,0,0.02928,-0.04392,-0.00976,-0.00488,-0.01464,-0.01464,-0.02928,-0.0244
-0.0488,0.04392,-0.03904,-0.01464,0.00976,-0.02928,-0.00976,0.00488,-0.00488,-0.01464,-0.03416,-0.0244
-0.0488,0.04392,-0.03904,-0.01464,0.00976,-0.02928,-0.00488,0.00976,0,-0.01464,-0.03416,-0.0244
-0.0488,0.04392,-0.03904,-0.01464,0.00976,-0.02928,-0.00488,0.00976,-0.00976,-0.01464,-0.0244,-0.0244
-0.0488,0.04392,-0.03904,-0.01464,0.00976,-0.02928,-0.00976,0.00976,-0.00976,-0.00976,-0.02928,-0.0244
-0.06344,0.0488,-0.03416,-0.00244,0.02928,-0.04636,-0.00976,0.00976,-0.00976,-0.01464,-0.02928,-0.0244
-0.06344,0.04636,-0.02928,0.00244,0.03416,-0.0488,-0.00976,0.00976,-0.00976,-0.01464,-0.02928,-0.0244
-0.05368,0.04392,-0.03416,-0.00732,0.01952,-0.0366,-0.00976,0,-0.00976,-0.0244,-0.02928,-0.0244
-0.05368,0.0488,-0.04392,-0.01708,0.00976,-0.03172,-0.00488,-0.00488,-0.00976,-0.0244,-0.02928,-0.0244
-0.05856,0.0488,-0.03904,-0.00976,0.01952,-0.03904,-0.00488,-0.00488,-0.00976,-0.01464,-0.01952,-0.0244
-0.05856,0.0488,-0.03904,-0.00976,0.01952,-0.03904,-0.00488,-0.00488,-0.00976,-0.01464,-0.01464,-0.0244
-0.05368,0.04148,-0.02928,-0.00244,0.0244,-0.03904,-0.01464,-0.00488,0,-0.01464,-0.0244,-0.0244
-0.05368,0.04148,-0.02928,-0.00244,0.0244,-0.03904,-0.01464,-0.00488,-0.00488,-0.01464,-0.02928,-0.0244
-0.05368,0.04392,-0.03416,-0.00732,0.01952,-0.0366,-0.01464,-0.00488,-0.01464,-0.02928,-0.03904,-0.03416
-0.05368,0.04148,-0.02928,-0.00244,0.0244,-0.03904,-0.01952,-0.00976,-0.01952,-0.03904,-0.03904,-0.03416
-0.0488,0.04148,-0.03416,-0.00976,0.01464,-0.03172,-0.00488,0.00488,-0.00976,-0.02928,-0.02928,-0.0244
-0.05368,0.04392,-0.03416,-0.00732,0.01952,-0.0366,-0.00976,0,-0.00488,-0.01952,-0.01952,-0.0244
-0.05856,0.04148,-0.0244,0.00488,0.03416,-0.04636,-0.00488,-0.00488,-0.01464,-0.01952,-0.0244,-0.01464
-0.05856,0.04148,-0.0244,0.00488,0.03416,-0.04636,-0.00488,-0.00488,-0.01464,-0.01952,-0.0244,-0.01464
-0.0488,0.0366,-0.0244,0,0.0244,-0.0366,-0.01464,0.00488,-0.01464,-0.03416,-0.03416,-0.02928
-0.04392,0.0366,-0.02928,-0.00732,0.01464,-0.02928,-0.01952,0.00488,-0.01464,-0.03416,-0.03416,-0.03904
-0.04392,0.04148,-0.03904,-0.01708,0.00488,-0.0244,-0.00976,0.00488,-0.01464,-0.03416,-0.03416,-0.03904
-0.04392,0.04392,-0.04392,-0.02196,0,-0.02196,-0.00976,0,-0.01952,-0.02928,-0.03416,-0.03904
-0.05368,0.0488,-0.04392,-0.01708,0.00976,-0.03172,-0.00976,0,-0.01952,-0.03416,-0.03904,-0.03904
-0.05368,0.0488,-0.04392,-0.01708,0.00976,-0.03172,-0.00488,0,-0.01952,-0.03416,-0.03904,-0.03904
-0.04392,0.03416,-0.0244,-0.00244,0.01952,-0.03172,-0.01464,-0.00976,-0.01952,-0.03416,-0.02928,-0.01464
-0.0488,0.0366,-0.0244,0,0.0244,-0.0366,-0.01464,0,-0.01952,-0.03416,-0.03904,-0.0244
-0.05856,0.04636,-0.03416,-0.00488,0.0244,-0.04148,0,0,-0.01952,-0.03904,-0.03904,-0.0488
-0.05856,0.05124,-0.04392,-0.01464,0.01464,-0.0366,0,0,-0.01952,-0.03904,-0.03904,-0.0488
-0.05856,0.04392,-0.02928,0,0.02928,-0.04392,-0.00976,-0.00976,-0.0244,-0.03904,-0.03904,-0.03904
-0.0488,0.03416,-0.01952,0.00488,0.02928,-0.03904,-0.00976,-0.00976,-0.01464,-0.0244,-0.02928,-0.0244
-0.02928,0.00976,0.00976,0.0244,0.03904,-0.03416,-0.00976,0.00488,0.00488,-0.01464,-0.02928,-0.0244
-0.01464,-0.00976,0.03416,0.04148,0.0488,-0.03172,-0.00976,0.01464,0.01952,0,-0.00976,-0.01464
0,-0.02196,0.04392,0.04392,0.04392,-0.02196,-0.00976,0.00976,0.02928,0.0244,0.00976,0.00976
-0.00488,-0.02684,0.05856,0.061,0.06344,-0.03416,-0.01464,0.00976,0.03416,0.0244,0.01952,0.01952
-0.01464,-0.02196,0.05856,0.06588,0.0732,-0.04392,-0.01952,0,0.02928,0.00976,0.01464,0.01952
-0.01464,-0.02196,0.05856,0.06588,0.0732,-0.04392,-0.01952,-0.00488,0.03416,0.00976,0.01464,0.01464
-0.01952,-0.02196,0.06344,0.0732,0.08296,-0.05124,-0.00488,0.00976,0.03416,0.00976,0.00976,0
-0.00976,-0.02928,0.06832,0.0732,0.07808,-0.04392,-0.00488,0.01952,0.03416,0.01464,0.00976,0
0.01952,-0.0488,0.07808,0.06832,0.05856,-0.01952,-0.01952,0.02928,0.04392,0.0244,0.02928,0.01464
0.04392,-0.07076,0.0976,0.07564,0.05368,-0.00488,-0.02928,0.01952,0.05368,0.0244,0.02928,0.02928
0.03904,-0.07564,0.11224,0.09272,0.0732,-0.01708,-0.06344,0,0.05368,0.02928,0.03416,0.03416
0.04392,-0.0732,0.10248,0.08052,0.05856,-0.00732,-0.0976,-0.01952,0.02928,0.00976,0.01952,0.02928
0.03416,-0.05612,0.07808,0.061,0.04392,-0.00488,-0.10736,-0.0488,-0.00976,-0.01952,0,0.00488
0.04392,-0.06344,0.08296,0.061,0.03904,0.00244,-0.11224,-0.05368,-0.02928,-0.0244,-0.00488,-0.00488
0.05856,-0.06588,0.0732,0.04392,0.01464,0.02196,-0.10736,-0.0488,-0.02928,-0.03416,-0.01952,-0.01464
0.03904,-0.04636,0.05368,0.03416,0.01464,0.0122,-0.09272,-0.04392,-0.02928,-0.03416,-0.0244,-0.01952
0.04392,-0.04636,0.0488,0.02684,0.00488,0.01952,-0.08296,-0.04392,-0.03416,-0.0244,-0.02928,-0.01952
0.02928,-0.02928,0.02928,0.01464,0,0.01464,-0.0732,-0.03416,-0.03416,-0.03416,-0.02928,-0.01952
0.01952,-0.01464,0.00976,0,-0.00976,0.01464,-0.0488,-0.0244,-0.02928,-0.02928,-0.02928,-0.0244
0.01464,-0.00732,0,-0.00732,-0.01464,0.01464,-0.03904,-0.01952,-0.02928,-0.02928,-0.02928,-0.0244
-0.00488,0.00732,-0.00976,-0.00732,-0.00488,0,-0.02928,-0.01464,-0.03416,-0.02928,-0.02928,-0.03416
-0.00976,0.02196,-0.03416,-0.02928,-0.0244,0.00732,-0.02928,-0.01464,-0.04392,-0.03904,-0.04392,-0.0488
-0.01952,0.02928,-0.03904,-0.02928,-0.01952,0,-0.03904,-0.03904,-0.0488,-0.05856,-0.06344,-0.05856
-0.03416,0.04148,-0.0488,-0.03172,-0.01464,-0.00976,-0.03904,-0.03416,-0.05368,-0.06344,-0.06344,-0.05856
-0.03904,0.04392,-0.0488,-0.02928,-0.00976,-0.01464,-0.0244,-0.0244,-0.05368,-0.06344,-0.06344,-0.05856
-0.0488,0.05124,-0.05368,-0.02928,-0.00488,-0.02196,-0.01952,-0.0244,-0.05368,-0.06344,-0.06344,-0.05856
-0.06832,0.07076,-0.0732,-0.03904,-0.00488,-0.03172,-0.01464,-0.01464,-0.05368,-0.0732,-0.08296,-0.06832
-0.08296,0.08052,-0.07808,-0.0366,0.00488,-0.04392,-0.00488,-0.01952,-0.05368,-0.07808,-0.08296,-0.06832
-0.0732,0.07564,-0.07808,-0.04148,-0.00488,-0.03416,-0.00488,-0.01952,-0.06344,-0.07808,-0.08296,-0.06832
-0.07808,0.08052,-0.08296,-0.04392,-0.00488,-0.0366,-0.00488,-0.01464,-0.06344,-0.07808,-0.08296,-0.06832
-0.07808,0.08052,-0.08296,-0.04392,-0.00488,-0.0366,-0.01464,-0.0244,-0.05368,-0.06832,-0.0732,-0.06832
-0.07808,0.08052,-0.08296,-0.04392,-0.00488,-0.0366,-0.01464,-0.0244,-0.05368,-0.06832,-0.0732,-0.06832
-0.06832,0.07564,-0.08296,-0.0488,-0.01464,-0.02684,0,-0.01464,-0.05368,-0.07808,-0.08296,-0.07808
-0.07808,0.08052,-0.08296,-0.04392,-0.00488,-0.0366,0.00976,0,-0.0488,-0.06832,-0.08296,-0.0732
-0.0976,0.08784,-0.07808,-0.02928,0.01952,-0.05856,0.04392,0.02928,-0.03416,-0.06344,-0.08296,-0.0732
-0.10248,0.0854,-0.06832,-0.01708,0.03416,-0.06832,0.06832,0.05856,0,-0.03416,-0.0488,-0.06344
-0.08784,0.0732,-0.05856,-0.01464,0.02928,-0.05856,0.09272,0.11712,0.07808,0.0244,0.00976,-0.01464
0.00976,0.00732,-0.0244,-0.02928,-0.03416,0.02196,0.06344,0.16592,0.10248,0.0732,0.04392,0.02928
0.16592,-0.07564,-0.01464,-0.0976,-0.18056,0.17324,0.01952,0.22448,0.08296,0.06832,0.01464,0.02928
0.35136,-0.19276,0.03416,-0.14152,-0.3172,0.33428,-0.0732,0.21472,0.06344,0.09272,0.05856,0.06344
0.50264,-0.28304,0.06344,-0.18788,-0.4392,0.47092,-0.19032,0.16104,0.0244,0.0976,0.0732,0.0976
0.60024,-0.3538,0.10736,-0.19276,-0.49288,0.54656,-0.27816,0.08784,-0.04392,0.05856,0.05368,0.10248
0.66368,-0.427,0.19032,-0.14152,-0.47336,0.56852,-0.3904,-0.06344,-0.14152,0.00976,0.0488,0.122
0.62464,-0.47092,0.3172,0.00488,-0.30744,0.46604,-0.50264,-0.3172,-0.21472,-0.03904,0.05856,0.16592
0.46848,-0.41968,0.37088,0.13664,-0.0976,0.28304,-0.52216,-0.50264,-0.2928,-0.11224,0.02928,0.13664
0.10248,-0.10736,0.11224,0.061,0.00976,0.04636,-0.40016,-0.62952,-0.488,-0.37576,-0.23912,-0.13176
-0.18056,0.18544,-0.19032,-0.10004,-0.00976,-0.0854,-0.27816,-0.71736,-0.70272,-0.64904,-0.53192,-0.43432
-0.25864,0.30256,-0.34648,-0.21716,-0.08784,-0.0854,-0.26352,-0.7808,-0.83448,-0.8052,-0.67832,-0.57584
-0.20984,0.33672,-0.4636,-0.35868,-0.25376,0.02196,-0.23912,-0.71736,-0.89304,-0.87352,-0.76128,-0.6588
-0.20496,0.33428,-0.4636,-0.36112,-0.25864,0.02684,-0.2196,-0.61,-0.84424,-0.8296,-0.72712,-0.62464
-0.1708,0.27328,-0.37576,-0.29036,-0.20496,0.01708,-0.16592,-0.49288,-0.70272,-0.69296,-0.60024,-0.52216
-0.16104,0.2562,-0.35136,-0.27084,-0.19032,0.01464,-0.10248,-0.366,-0.57584,-0.56608,-0.5124,-0.4392
-0.1708,0.22692,-0.28304,-0.19764,-0.11224,-0.02928,-0.06832,-0.29768,-0.45384,-0.45384,-0.40504,-0.35624
-0.19032,0.20496,-0.2196,-0.12444,-0.02928,-0.08052,-0.03904,-0.20496,-0.33672,-0.33184,-0.30744,-0.25864
-0.18056,0.16348,-0.1464,-0.05612,0.03416,-0.10736,-0.0244,-0.13176,-0.2196,-0.22448,-0.21472,-0.17568
-0.13664,0.12932,-0.122,-0.05368,0.01464,-0.07564,-0.00976,-0.08296,-0.16104,-0.19032,-0.18544,-0.16592
-0.09272,0.09516,-0.0976,-0.05124,-0.00488,-0.04392,-0.00488,-0.06832,-0.122,-0.1464,-0.15128,-0.13176
-0.08296,0.09516,-0.10736,-0.06588,-0.0244,-0.02928,0.00488,-0.02928,-0.08784,-0.11712,-0.11224,-0.10736
-0.09272,0.09516,-0.0976,-0.05124,-0.00488,-0.04392,0.01464,-0.00976,-0.07808,-0.10736,-0.10248,-0.10248
-0.10248,0.10004,-0.0976,-0.04636,0.00488,-0.05368,0.01952,-0.01464,-0.06832,-0.10248,-0.10736,-0.09272
-0.07808,0.09028,-0.10248,-0.06344,-0.0244,-0.02684,0.01952,0,-0.05368,-0.08784,-0.0976,-0.09272
-0.08296,0.09028,-0.0976,-0.05612,-0.01464,-0.03416,0.01952,0.00488,-0.04392,-0.08296,-0.08296,-0.08784
-0.0732,0.0732,-0.0732,-0.0366,0,-0.0366,0.01952,0.00488,-0.04392,-0.05856,-0.0732,-0.06832
-0.0732,0.06832,-0.06344,-0.02684,0.00976,-0.04148,0.0244,0.01952,-0.04392,-0.05856,-0.06832,-0.05856
-0.07808,0.0732,-0.06832,-0.02928,0.00976,-0.04392,0.01464,0.01464,-0.0488,-0.06344,-0.07808,-0.06832
-0.08296,0.08052,-0.07808,-0.0366,0.00488,-0.04392,0.01952,0.01952,-0.04392,-0.06344,-0.07808,-0.07808
-0.07808,0.08052,-0.08296,-0.04392,-0.00488,-0.0366,0.01952,0.01952,-0.04392,-0.06832,-0.0732,-0.0732
-0.07808,0.08052,-0.08296,-0.04392,-0.00488,-0.0366,0.01464,0.0244,-0.04392,-0.06344,-0.0732,-0.06832
-0.06832,0.07564,-0.08296,-0.0488,-0.01464,-0.02684,0.01464,0.02928,-0.03416,-0.06344,-0.07808,-0.06832
-0.06832,0.0732,-0.07808,-0.04392,-0.00976,-0.02928,0.01464,0.02928,-0.02928,-0.06344,-0.0732,-0.06344
-0.0732,0.0732,-0.0732,-0.0366,0,-0.0366,0.02928,0.02928,-0.0244,-0.0488,-0.05856,-0.06344
-0.0732,0.0732,-0.0732,-0.0366,0,-0.0366,0.02928,0.03416,-0.0244,-0.04392,-0.05856,-0.05856
-0.06344,0.06344,-0.06344,-0.03172,0,-0.03172,0.02928,0.03416,-0.01464,-0.02928,-0.0488,-0.0488
-0.06344,0.05856,-0.05368,-0.02196,0.00976,-0.0366,0.02928,0.03904,-0.00976,-0.02928,-0.0488,-0.04392
-0.0732,0.07076,-0.06832,-0.03172,0.00488,-0.03904,0.02928,0.0488,-0.00976,-0.03904,-0.05856,-0.0488
-0.06832,0.0732,-0.07808,-0.04392,-0.00976,-0.02928,0.02928,0.05368,-0.00488,-0.03904,-0.05856,-0.05368
-0.06344,0.061,-0.05856,-0.02684,0.00488,-0.03416,0.02928,0.04392,-0.01464,-0.03416,-0.0488,-0.04392
-0.06344,0.05856,-0.05368,-0.02196,0.00976,-0.0366,0.02928,0.04392,-0.00976,-0.02928,-0.0488,-0.03904
-0.05368,0.05368,-0.05368,-0.02684,0,-0.02684,0.01952,0.0488,-0.00488,-0.0244,-0.05368,-0.0488
-0.03904,0.04636,-0.05368,-0.03416,-0.01464,-0.0122,0.01952,0.05368,-0.00488,-0.0244,-0.0488,-0.05856
-0.04392,0.0488,-0.05368,-0.03172,-0.00976,-0.01708,0.01952,0.05856,0,-0.0244,-0.0488,-0.05368
-0.04392,0.04636,-0.0488,-0.02684,-0.00488,-0.01952,0.01952,0.06344,0,-0.0244,-0.04392,-0.05368
-0.03904,0.0366,-0.03416,-0.01464,0.00488,-0.02196,0.0244,0.0732,0.01464,0,-0.03416,-0.03904
-0.02928,0.02684,-0.0244,-0.00976,0.00488,-0.01708,0.0244,0.0732,0.0244,0,-0.01952,-0.01952
-0.02928,0.02196,-0.01464,0,0.01464,-0.02196,0.01464,0.08296,0.03904,0.00976,0,-0.00488
-0.01952,0.0122,-0.00488,0.00488,0.01464,-0.01708,0.01464,0.08784,0.04392,0.0244,0.00488,0
0,0.00488,-0.00976,-0.00976,-0.00976,0.00488,0.0244,0.0976,0.0488,0.02928,0,0
