i,aVR,ii,aVF,iii,aVL,V1,V2,V3,V4,V5,V6
0.0976,-0.0732,0.0488,0,-0.0488,0.0732,0.00488,0.05368,0.06344,0.05856,0.08296,0.06344
0.07808,-0.06344,0.0488,0.00976,-0.02928,0.05368,0.01464,0.06344,0.05368,0.04392,0.05856,0.0488
0.05856,-0.0488,0.03904,0.00976,-0.01952,0.03904,0.01952,0.05856,0.03904,0.02928,0.03904,0.03416
0.03904,-0.02928,0.01952,0,-0.01952,0.02928,0.0244,0.06832,0.0244,0.01952,0.03904,0.01464
0.01464,-0.00976,0.00488,-0.00244,-0.00976,0.0122,0.03416,0.08784,0.01952,0.00976,0.02928,0.00976
0,0.00488,-0.00976,-0.00976,-0.00976,0.00488,0.02928,0.10248,0.0244,0,0.0244,0.00976
-0.01952,0.0244,-0.02928,-0.01952,-0.00976,-0.00488,0.03416,0.11712,0.01464,0,0.01464,-0.00488
-0.03416,0.03904,-0.04392,-0.02684,-0.00976,-0.0122,0.0244,0.13664,0,-0.0244,0,-0.00976
-0.05368,0.0488,-0.04392,-0.01708,0.00976,-0.03172,0.0244,0.14152,-0.00488,-0.0244,0,-0.00976
-0.05368,0.04636,-0.03904,-0.0122,0.01464,-0.03416,0.02928,0.122,-0.00488,-0.0244,0.00488,-0.01952
-0.05368,0.04636,-0.03904,-0.0122,0.01464,-0.03416,0.02928,0.10248,-0.00488,-0.0244,0,-0.01952
-0.05368,0.0488,-0.04392,-0.01708,0.00976,-0.03172,0.05368,0.0732,-0.01464,-0.0244,-0.00976,-0.01952
-0.05368,0.05124,-0.0488,-0.02196,0.00488,-0.02928,0.07808,0.04392,-0.01952,-0.0244,-0.00976,-0.0244
-0.05856,0.05124,-0.04392,-0.01464,0.01464,-0.0366,0.08784,0,-0.0244,-0.03904,-0.01464,-0.0244
-0.06344,0.05368,-0.04392,-0.0122,0.01952,-0.04148,0.09272,-0.02928,-0.0244,-0.04392,-0.01952,-0.03416
-0.05856,0.04636,-0.03416,-0.00488,0.0244,-0.04148,0.11224,-0.06344,-0.02928,-0.04392,-0.0244,-0.03904
-0.05856,0.04636,-0.03416,-0.00488,0.0244,-0.04148,0.122,-0.09272,-0.02928,-0.04392,-0.0244,-0.03904
-0.0488,0.04392,-0.03904,-0.01464,0.00976,-0.02928,0.13664,-0.11712,-0.02928,-0.05368,-0.03416,-0.03904
-0.0488,0.04148,-0.03416,-0.00976,0.01464,-0.03172,0.13664,-0.12688,-0.02928,-0.05368,-0.03416,-0.03904
-0.05856,0.04148,-0.0244,0.00488,0.03416,-0.04636,0.1464,-0.1464,-0.02928,-0.04392,-0.03416,-0.0488
-0.06344,0.04636,-0.02928,0.00244,0.03416,-0.0488,0.1464,-0.14152,-0.0244,-0.03904,-0.02928,-0.04392
-0.06344,0.04636,-0.02928,0.00244,0.03416,-0.0488,0.15616,-0.1708,-0.0244,-0.03904,-0.02928,-0.04392
-0.06344,0.0488,-0.03416,-0.00244,0.02928,-0.04636,0.15616,-0.19032,-0.0244,-0.03904,-0.02928,-0.04392
-0.05856,0.0488,-0.03904,-0.00976,0.01952,-0.03904,0.17568,-0.20008,-0.02928,-0.04392,-0.03416,-0.04392
-0.05856,0.0488,-0.03904,-0.00976,0.01952,-0.03904,0.17568,-0.1952,-0.02928,-0.04392,-0.03416,-0.0488
-0.06344,0.04392,-0.0244,0.00732,0.03904,-0.05124,0.18544,-0.20984,-0.0244,-0.04392,-0.03904,-0.0488
-0.05856,0.0366,-0.01464,0.01464,0.04392,-0.05124,0.18544,-0.21472,-0.0244,-0.04392,-0.03904,-0.0488
-0.05856,0.03416,-0.00976,0.01952,0.0488,-0.05368,0.20496,-0.23424,-0.0244,-0.04392,-0.02928,-0.03904
-0.05856,0.03904,-0.01952,0.00976,0.03904,-0.0488,0.20984,-0.23424,-0.0244,-0.04392,-0.02928,-0.03904
-0.05368,0.04148,-0.02928,-0.00244,0.0244,-0.03904,0.21472,-0.23424,-0.0244,-0.03416,-0.0244,-0.02928
-0.05368,0.04636,-0.03904,-0.0122,0.01464,-0.03416,0.22448,-0.23912,-0.0244,-0.03416,-0.0244,-0.02928
-0.0488,0.04636,-0.04392,-0.01952,0.00488,-0.02684,0.22448,-0.24888,-0.0244,-0.03904,-0.03416,-0.03416
-0.05368,0.05124,-0.0488,-0.02196,0.00488,-0.02928,0.22448,-0.24888,-0.0244,-0.03904,-0.03416,-0.03416
-0.05856,0.05856,-0.05856,-0.02928,0,-0.02928,0.22448,-0.25864,-0.03904,-0.05368,-0.03904,-0.04392
-0.06344,0.05856,-0.05368,-0.02196,0.00976,-0.0366,0.2196,-0.2684,-0.04392,-0.05368,-0.03904,-0.0488
-0.05368,0.0488,-0.04392,-0.01708,0.00976,-0.03172,0.22936,-0.2684,-0.04392,-0.04392,-0.03904,-0.0488
-0.04392,0.04148,-0.03904,-0.01708,0.00488,-0.0244,0.23424,-0.2684,-0.04392,-0.0488,-0.04392,-0.05368
-0.04392,0.04636,-0.0488,-0.02684,-0.00488,-0.01952,0.23912,-0.25864,-0.03416,-0.05368,-0.03904,-0.05368
-0.0488,0.05124,-0.05368,-0.02928,-0.00488,-0.02196,0.23912,-0.25376,-0.03416,-0.05856,-0.03904,-0.0488
-0.05856,0.05856,-0.05856,-0.02928,0,-0.02928,0.24888,-0.26352,-0.04392,-0.05856,-0.03904,-0.05856
-0.06832,0.06832,-0.06832,-0.03416,0,-0.03416,0.24888,-0.26352,-0.04392,-0.06344,-0.03904,-0.0488
-0.06344,0.061,-0.05856,-0.02684,0.00488,-0.03416,0.25864,-0.25864,-0.0488,-0.05368,-0.03904,-0.05856
-0.05856,0.05612,-0.05368,-0.0244,0.00488,-0.03172,0.26352,-0.25376,-0.0488,-0.05368,-0.03904,-0.05856
-0.0488,0.05124,-0.05368,-0.02928,-0.00488,-0.02196,0.26352,-0.27328,-0.0488,-0.06344,-0.03904,-0.05856
-0.0488,0.05124,-0.05368,-0.02928,-0.00488,-0.02196,0.25864,-0.27816,-0.05368,-0.06344,-0.03904,-0.05856
-0.05856,0.05612,-0.05368,-0.0244,0.00488,-0.03172,0.25864,-0.27816,-0.05368,-0.05368,-0.02928,-0.05856
-0.05856,0.05368,-0.0488,-0.01952,0.00976,-0.03416,0.25864,-0.28304,-0.05368,-0.05368,-0.02928,-0.05856
-0.05856,0.05368,-0.0488,-0.01952,0.00976,-0.03416,0.24888,-0.29768,-0.05368,-0.05856,-0.03904,-0.05856
-0.05856,0.05124,-0.04392,-0.01464,0.01464,-0.0366,0.244,-0.30744,-0.05368,-0.05856,-0.03904,-0.06344
-0.0488,0.04636,-0.04392,-0.01952,0.00488,-0.02684,0.244,-0.30744,-0.05368,-0.06832,-0.0488,-0.0732
-0.0488,0.04636,-0.04392,-0.01952,0.00488,-0.02684,0.24888,-0.30744,-0.05856,-0.06832,-0.04392,-0.0732
-0.0488,0.05124,-0.05368,-0.02928,-0.00488,-0.02196,0.25864,-0.29768,-0.0488,-0.06344,-0.03416,-0.06832
-0.05368,0.05368,-0.05368,-0.02684,0,-0.02684,0.25864,-0.30744,-0.0488,-0.05368,-0.03416,-0.05856
-0.0488,0.05368,-0.05856,-0.03416,-0.00976,-0.01952,0.2684,-0.30744,-0.0488,-0.05368,-0.03904,-0.0488
-0.0488,0.05368,-0.05856,-0.03416,-0.00976,-0.01952,0.2684,-0.30744,-0.0488,-0.05368,-0.03904,-0.0488
-0.05856,0.05368,-0.0488,-0.01952,0.00976,-0.03416,0.26352,-0.30256,-0.05856,-0.06344,-0.03904,-0.05856
-0.05368,0.05124,-0.0488,-0.02196,0.00488,-0.02928,0.26352,-0.3172,-0.06344,-0.06344,-0.03904,-0.05856
-0.04392,0.03904,-0.03416,-0.0122,0.00976,-0.02684,0.27328,-0.30744,-0.06344,-0.05856,-0.0488,-0.05856
-0.03904,0.03172,-0.0244,-0.00488,0.01464,-0.02684,0.27328,-0.2928,-0.06344,-0.05856,-0.05368,-0.06344
-0.02928,0.02684,-0.0244,-0.00976,0.00488,-0.01708,0.25864,-0.28792,-0.06832,-0.06832,-0.05368,-0.06344
-0.03416,0.03172,-0.02928,-0.0122,0.00488,-0.01952,0.25864,-0.28792,-0.06832,-0.06832,-0.05368,-0.06344
-0.05368,0.05124,-0.0488,-0.02196,0.00488,-0.02928,0.244,-0.28304,-0.06832,-0.07808,-0.05368,-0.0732
-0.06832,0.06344,-0.05856,-0.0244,0.00976,-0.03904,0.25376,-0.27816,-0.06832,-0.07808,-0.05368,-0.06832
-0.07808,0.0732,-0.06832,-0.02928,0.00976,-0.04392,0.25376,-0.28792,-0.06832,-0.0732,-0.05368,-0.06832
-0.07808,0.07076,-0.06344,-0.0244,0.01464,-0.04636,0.25864,-0.28792,-0.06832,-0.0732,-0.05368,-0.06832
-0.0732,0.06588,-0.05856,-0.02196,0.01464,-0.04392,0.26352,-0.2928,-0.06832,-0.0732,-0.05368,-0.06344
-0.06344,0.06344,-0.06344,-0.03172,0,-0.03172,0.26352,-0.29768,-0.06832,-0.0732,-0.05368,-0.06344
-0.05368,0.061,-0.06832,-0.04148,-0.01464,-0.01952,0.25376,-0.29768,-0.06832,-0.06344,-0.04392,-0.06344
-0.05368,0.061,-0.06832,-0.04148,-0.01464,-0.01952,0.25376,-0.2928,-0.06832,-0.06344,-0.04392,-0.06344
-0.0488,0.05368,-0.05856,-0.03416,-0.00976,-0.01952,0.244,-0.28792,-0.05856,-0.05856,-0.03904,-0.06344
-0.0488,0.05368,-0.05856,-0.03416,-0.00976,-0.01952,0.23912,-0.27816,-0.05856,-0.05856,-0.03904,-0.05856
-0.05856,0.05856,-0.05856,-0.02928,0,-0.02928,0.23912,-0.28304,-0.05856,-0.05856,-0.0488,-0.05856
-0.06832,0.06588,-0.06344,-0.02928,0.00488,-0.0366,0.23912,-0.28792,-0.05856,-0.05856,-0.05368,-0.05856
-0.06832,0.061,-0.05368,-0.01952,0.01464,-0.04148,0.23912,-0.29768,-0.06832,-0.06832,-0.05856,-0.06832
-0.06344,0.05368,-0.04392,-0.0122,0.01952,-0.04148,0.23912,-0.30256,-0.06832,-0.07808,-0.05856,-0.06832
-0.04392,0.04148,-0.03904,-0.01708,0.00488,-0.0244,0.244,-0.29768,-0.07808,-0.07808,-0.05856,-0.07808
-0.03416,0.03416,-0.03416,-0.01708,0,-0.01708,0.25376,-0.29768,-0.07808,-0.07808,-0.06344,-0.07808
-0.03416,0.04392,-0.05368,-0.0366,-0.01952,-0.00732,0.244,-0.3172,-0.08296,-0.07808,-0.06344,-0.08296
-0.04392,0.05124,-0.05856,-0.0366,-0.01464,-0.01464,0.24888,-0.3172,-0.08296,-0.08296,-0.06344,-0.08296
-0.05856,0.06344,-0.06832,-0.03904,-0.00976,-0.0244,0.24888,-0.32696,-0.07808,-0.08296,-0.06832,-0.07808
-0.05856,0.06344,-0.06832,-0.03904,-0.00976,-0.0244,0.24888,-0.32696,-0.07808,-0.08784,-0.06832,-0.07808
-0.0488,0.05856,-0.06832,-0.04392,-0.01952,-0.01464,0.25376,-0.33672,-0.07808,-0.07808,-0.05856,-0.0732
-0.0488,0.05368,-0.05856,-0.03416,-0.00976,-0.01952,0.25376,-0.33672,-0.06832,-0.06832,-0.05856,-0.0732
-0.02928,0.0366,-0.04392,-0.02928,-0.01464,-0.00732,0.26352,-0.33184,-0.06832,-0.06832,-0.05856,-0.06344
-0.02928,0.03172,-0.03416,-0.01952,-0.00488,-0.0122,0.25376,-0.33672,-0.06832,-0.06344,-0.05368,-0.06344
-0.03416,0.03904,-0.04392,-0.02684,-0.00976,-0.0122,0.24888,-0.33184,-0.06832,-0.06344,-0.0488,-0.05856
-0.03416,0.03904,-0.04392,-0.02684,-0.00976,-0.0122,0.24888,-0.33672,-0.06832,-0.06344,-0.0488,-0.05856
-0.05368,0.05856,-0.06344,-0.0366,-0.00976,-0.02196,0.24888,-0.32208,-0.06832,-0.06344,-0.05368,-0.06344
-0.06344,0.06832,-0.0732,-0.04148,-0.00976,-0.02684,0.24888,-0.30744,-0.06832,-0.06344,-0.05856,-0.0732
-0.05856,0.06832,-0.07808,-0.0488,-0.01952,-0.01952,0.24888,-0.29768,-0.07808,-0.0732,-0.05856,-0.07808
-0.06344,0.06832,-0.0732,-0.04148,-0.00976,-0.02684,0.244,-0.28304,-0.07808,-0.0732,-0.05856,-0.08296
-0.05368,0.061,-0.06832,-0.04148,-0.01464,-0.01952,0.22936,-0.26352,-0.07808,-0.08296,-0.06832,-0.0732
-0.04392,0.0488,-0.05368,-0.03172,-0.00976,-0.01708,0.22936,-0.24888,-0.08296,-0.08296,-0.0732,-0.0732
-0.04392,0.05612,-0.06832,-0.04636,-0.0244,-0.00976,0.20984,-0.22936,-0.0732,-0.0732,-0.06344,-0.0732
-0.0488,0.06344,-0.07808,-0.05368,-0.02928,-0.00976,0.1952,-0.21472,-0.06832,-0.07808,-0.05856,-0.06832
-0.0488,0.06344,-0.07808,-0.05368,-0.02928,-0.00976,0.18544,-0.1952,-0.06832,-0.06832,-0.05856,-0.05856
-0.0488,0.06344,-0.07808,-0.05368,-0.02928,-0.00976,0.18544,-0.18544,-0.06832,-0.06832,-0.05856,-0.05856
-0.05856,0.06344,-0.06832,-0.03904,-0.00976,-0.0244,0.16592,-0.17568,-0.06832,-0.07808,-0.05856,-0.05856
-0.05856,0.06344,-0.06832,-0.03904,-0.00976,-0.0244,0.15616,-0.16592,-0.06832,-0.07808,-0.05856,-0.05856
-0.05856,0.06832,-0.07808,-0.0488,-0.01952,-0.01952,0.1464,-0.15616,-0.07808,-0.07808,-0.06832,-0.06832
-0.05856,0.06832,-0.07808,-0.0488,-0.01952,-0.01952,0.13664,-0.15616,-0.07808,-0.07808,-0.06832,-0.06832
-0.05856,0.06832,-0.07808,-0.0488,-0.01952,-0.01952,0.12688,-0.1464,-0.07808,-0.07808,-0.06832,-0.07808
-0.05856,0.06832,-0.07808,-0.0488,-0.01952,-0.01952,0.11712,-0.1464,-0.07808,-0.07808,-0.06832,-0.07808
-0.0488,0.06344,-0.07808,-0.05368,-0.02928,-0.00976,0.11712,-0.13664,-0.07808,-0.07808,-0.06832,-0.06832
-0.0488,0.06344,-0.07808,-0.05368,-0.02928,-0.00976,0.11712,-0.13664,-0.07808,-0.07808,-0.06832,-0.06832
-0.03904,0.05856,-0.07808,-0.05856,-0.03904,0,0.10736,-0.11712,-0.06832,-0.06832,-0.05856,-0.05856
-0.03904,0.05856,-0.07808,-0.05856,-0.03904,0,0.10736,-0.10736,-0.06832,-0.06832,-0.0488,-0.05856
-0.03904,0.05368,-0.06832,-0.0488,-0.02928,-0.00488,0.10736,-0.0976,-0.05856,-0.05856,-0.0488,-0.0488
-0.03904,0.05368,-0.06832,-0.0488,-0.02928,-0.00488,0.10736,-0.08784,-0.05856,-0.05856,-0.0488,-0.0488
-0.0488,0.05368,-0.05856,-0.03416,-0.00976,-0.01952,0.0976,-0.07808,-0.06832,-0.05856,-0.0488,-0.05856
-0.0488,0.05368,-0.05856,-0.03416,-0.00976,-0.01952,0.0976,-0.06832,-0.06832,-0.05856,-0.0488,-0.05856
-0.0488,0.05368,-0.05856,-0.03416,-0.00976,-0.01952,0.0976,-0.05856,-0.06832,-0.06832,-0.05856,-0.05856
-0.0488,0.05368,-0.05856,-0.03416,-0.00976,-0.01952,0.0976,-0.0488,-0.06832,-0.06832,-0.05856,-0.05856
-0.0488,0.05856,-0.06832,-0.04392,-0.01952,-0.01464,0.08784,-0.03904,-0.07808,-0.07808,-0.06832,-0.06832
-0.0488,0.05856,-0.06832,-0.04392,-0.01952,-0.01464,0.08784,-0.02928,-0.07808,-0.07808,-0.06832,-0.06832
-0.03904,0.05368,-0.06832,-0.0488,-0.02928,-0.00488,0.08784,-0.01952,-0.07808,-0.07808,-0.06832,-0.05856
-0.03904,0.05368,-0.06832,-0.0488,-0.02928,-0.00488,0.08784,-0.01952,-0.07808,-0.07808,-0.06832,-0.05856
-0.03904,0.0488,-0.05856,-0.03904,-0.01952,-0.00976,0.07808,-0.00976,-0.07808,-0.07808,-0.06832,-0.06832
-0.03904,0.0488,-0.05856,-0.03904,-0.01952,-0.00976,0.07808,-0.00976,-0.07808,-0.07808,-0.06832,-0.06832
-0.03904,0.05368,-0.06832,-0.0488,-0.02928,-0.00488,0.06832,-0.01952,-0.07808,-0.07808,-0.06832,-0.07808
-0.03904,0.05368,-0.06832,-0.0488,-0.02928,-0.00488,0.06832,-0.01952,-0.07808,-0.07808,-0.06832,-0.07808
-0.0488,0.06344,-0.07808,-0.05368,-0.02928,-0.00976,0.05856,-0.01952,-0.07808,-0.07808,-0.06832,-0.07808
-0.0488,0.06344,-0.07808,-0.05368,-0.02928,-0.00976,0.05856,-0.01952,-0.07808,-0.07808,-0.06832,-0.07808
-0.03904,0.05368,-0.06832,-0.0488,-0.02928,-0.00488,0.0488,-0.01952,-0.06832,-0.06832,-0.05856,-0.06832
-0.03904,0.05368,-0.06832,-0.0488,-0.02928,-0.00488,0.03904,-0.01952,-0.05856,-0.06832,-0.05856,-0.06832
-0.01952,0.03904,-0.05856,-0.0488,-0.03904,0.00976,0.04392,-0.01464,-0.03904,-0.0488,-0.0488,-0.05856
-0.01952,0.03416,-0.0488,-0.03904,-0.02928,0.00488,0.04392,-0.0244,-0.02928,-0.0488,-0.04392,-0.0488
-0.00488,0.02196,-0.03904,-0.0366,-0.03416,0.01464,0.03904,-0.02928,-0.01464,-0.03904,-0.03904,-0.03416
0,0.0122,-0.0244,-0.0244,-0.0244,0.0122,0.03416,-0.0244,-0.01464,-0.01952,-0.03416,-0.02928
0.00976,-0.00488,0,-0.00488,-0.00976,0.00976,0.01464,-0.01464,-0.01464,-0.01952,-0.0244,-0.0244
0.01952,-0.01464,0.00976,0,-0.00976,0.01464,-0.00976,-0.01952,-0.00488,-0.00976,-0.01952,-0.01464
0.01952,-0.01952,0.01952,0.00976,0,0.00976,-0.03416,-0.0244,0.00488,0,0,-0.00488
0.03416,-0.02928,0.0244,0.00732,-0.00976,0.02196,-0.03904,-0.0244,0.00488,0,0,-0.00488
0.0488,-0.04148,0.03416,0.00976,-0.01464,0.03172,-0.03904,-0.01952,0.00488,0.00488,0,0
0.05856,-0.04636,0.03416,0.00488,-0.0244,0.04148,-0.03904,-0.00488,0.00488,0,0,0.00488
0.06344,-0.0488,0.03416,0.00244,-0.02928,0.04636,-0.03904,0.00488,0.00488,-0.00488,-0.00488,-0.00488
0.06344,-0.04392,0.0244,-0.00732,-0.03904,0.05124,-0.03904,0.00976,-0.00488,-0.00976,-0.00488,0
0.05368,-0.02684,0,-0.02684,-0.05368,0.05368,-0.02928,0.0244,-0.01952,-0.02928,-0.0244,-0.01952
0.04392,-0.0122,-0.01952,-0.04148,-0.06344,0.05368,-0.01464,0.0488,-0.03904,-0.03904,-0.03416,-0.02928
0.03416,0,-0.03416,-0.05124,-0.06832,0.05124,-0.00488,0.0488,-0.0488,-0.04392,-0.0488,-0.02928
0.0244,0.00976,-0.04392,-0.05612,-0.06832,0.04636,0.00488,0.05856,-0.05856,-0.0488,-0.05856,-0.03904
0.00488,0.02196,-0.0488,-0.05124,-0.05368,0.02928,0.01952,0.08296,-0.05368,-0.0488,-0.0488,-0.04392
-0.01464,0.0366,-0.05856,-0.05124,-0.04392,0.01464,0.02928,0.10248,-0.05368,-0.0488,-0.05368,-0.04392
-0.03416,0.05124,-0.06832,-0.05124,-0.03416,0,0.04392,0.10736,-0.05856,-0.0488,-0.06344,-0.0488
-0.04392,0.05856,-0.0732,-0.05124,-0.02928,-0.00732,0.05368,0.10248,-0.05856,-0.05856,-0.06832,-0.05368
-0.02928,0.04636,-0.06344,-0.0488,-0.03416,0.00244,0.04392,0.11224,-0.06344,-0.05856,-0.06344,-0.0488
-0.0244,0.04148,-0.05856,-0.04636,-0.03416,0.00488,0.0488,0.122,-0.06344,-0.05856,-0.06344,-0.0488
-0.01464,0.04148,-0.06832,-0.061,-0.05368,0.01952,0.05368,0.12688,-0.06344,-0.0732,-0.06832,-0.06344
-0.01464,0.04148,-0.06832,-0.061,-0.05368,0.01952,0.05856,0.13176,-0.06832,-0.07808,-0.0732,-0.06344
-0.0244,0.05612,-0.08784,-0.07564,-0.06344,0.01952,0.05856,0.13176,-0.07808,-0.07808,-0.08296,-0.06344
-0.03416,0.06588,-0.0976,-0.08052,-0.06344,0.01464,0.05856,0.13664,-0.07808,-0.08296,-0.08784,-0.06832
-0.03904,0.07076,-0.10248,-0.08296,-0.06344,0.0122,0.0488,0.122,-0.08296,-0.08296,-0.08784,-0.06832
-0.04392,0.0732,-0.10248,-0.08052,-0.05856,0.00732,0.04392,0.11712,-0.08296,-0.08296,-0.08784,-0.06832
-0.05368,0.07808,-0.10248,-0.07564,-0.0488,-0.00244,0.0488,0.12688,-0.08784,-0.08784,-0.09272,-0.0732
-0.05856,0.08052,-0.10248,-0.0732,-0.04392,-0.00732,0.0488,0.12688,-0.08784,-0.08784,-0.09272,-0.0732
-0.05856,0.07808,-0.0976,-0.06832,-0.03904,-0.00976,0.05368,0.12688,-0.08784,-0.07808,-0.08296,-0.06344
-0.05368,0.07564,-0.0976,-0.07076,-0.04392,-0.00488,0.05368,0.12688,-0.08784,-0.0732,-0.08296,-0.05856
-0.04392,0.06344,-0.08296,-0.061,-0.03904,-0.00244,0.05856,0.13664,-0.0732,-0.06344,-0.07808,-0.05856
-0.03904,0.06344,-0.08784,-0.06832,-0.0488,0.00488,0.05856,0.15128,-0.0732,-0.06344,-0.07808,-0.05856
-0.02928,0.05856,-0.08784,-0.0732,-0.05856,0.01464,0.05368,0.1464,-0.08296,-0.0732,-0.09272,-0.06832
-0.03904,0.06588,-0.09272,-0.0732,-0.05368,0.00732,0.03904,0.1464,-0.08296,-0.08296,-0.09272,-0.0732
-0.0488,0.0732,-0.0976,-0.0732,-0.0488,0,0.0488,0.15128,-0.08296,-0.09272,-0.09272,-0.0732
-0.05368,0.07564,-0.0976,-0.07076,-0.04392,-0.00488,0.0488,0.15128,-0.08296,-0.09272,-0.09272,-0.07808
-0.08784,0.09516,-0.10248,-0.05856,-0.01464,-0.0366,0.08296,0.18056,-0.07808,-0.07808,-0.0976,-0.08784
-0.122,0.11712,-0.11224,-0.05124,0.00976,-0.06588,0.10736,0.20984,-0.06832,-0.07808,-0.10736,-0.10248
-0.1464,0.13176,-0.11712,-0.04392,0.02928,-0.08784,0.14152,0.244,-0.06832,-0.09272,-0.11224,-0.12688
-0.16104,0.14884,-0.13664,-0.05612,0.0244,-0.09272,0.16104,0.28792,-0.0488,-0.07808,-0.122,-0.13664
-0.11224,0.12444,-0.13664,-0.08052,-0.0244,-0.04392,0.1708,0.31232,-0.01464,-0.03904,-0.08296,-0.10248
-0.01952,0.06832,-0.11712,-0.10736,-0.0976,0.03904,0.15128,0.35624,0.06344,0.02928,0,-0.02928
0.14152,-0.01952,-0.10248,-0.17324,-0.244,0.19276,0.10248,0.40504,0.1708,0.14152,0.11224,0.08784
0.36112,-0.1586,-0.04392,-0.22448,-0.40504,0.38308,0.01952,0.44408,0.32208,0.2928,0.27328,0.24888
0.61976,-0.32452,0.02928,-0.2806,-0.59048,0.60512,-0.09272,0.45872,0.47824,0.45384,0.44896,0.43432
0.86864,-0.49532,0.122,-0.31232,-0.74664,0.80764,-0.23424,0.41968,0.61488,0.60024,0.62464,0.62464
1.04432,-0.6344,0.22448,-0.29768,-0.81984,0.93208,-0.36112,0.30744,0.65392,0.70272,0.75152,0.77104
1.08824,-0.6954,0.30256,-0.24156,-0.78568,0.93696,-0.4636,0.15128,0.55144,0.67344,0.76128,0.82472
0.94184,-0.6344,0.32696,-0.14396,-0.61488,0.77836,-0.50264,-0.02928,0.33672,0.49776,0.64416,0.73688
0.66368,-0.48068,0.29768,-0.03416,-0.366,0.51484,-0.46848,-0.20008,0.0244,0.23912,0.4148,0.54656
0.32696,-0.27328,0.2196,0.05612,-0.10736,0.21716,-0.366,-0.31232,-0.28792,-0.05368,0.14152,0.30256
0.06344,-0.0976,0.13176,0.10004,0.06832,-0.00244,-0.25376,-0.32696,-0.49288,-0.25376,-0.06344,0.10736
-0.10736,0.03416,0.03904,0.09272,0.1464,-0.12688,-0.12688,-0.27816,-0.60024,-0.366,-0.1952,-0.04392
-0.21472,0.13176,-0.0488,0.05856,0.16592,-0.19032,-0.01464,-0.19032,-0.61976,-0.43432,-0.27328,-0.13664
-0.26352,0.19032,-0.11712,0.01464,0.1464,-0.20496,0.08784,-0.10736,-0.59048,-0.45384,-0.3172,-0.20008
-0.27816,0.22692,-0.17568,-0.0366,0.10248,-0.19032,0.15128,-0.03416,-0.55632,-0.44408,-0.33672,-0.23424
-0.2684,0.23668,-0.20496,-0.07076,0.06344,-0.16592,0.16592,0.00488,-0.52216,-0.41968,-0.32696,-0.244
-0.24888,0.22692,-0.20496,-0.08052,0.04392,-0.1464,0.1708,0.01952,-0.46848,-0.37088,-0.2928,-0.23424
-0.21472,0.20496,-0.1952,-0.08784,0.01952,-0.11712,0.1708,0.02928,-0.38064,-0.3172,-0.25864,-0.19032
-0.18056,0.18056,-0.18056,-0.09028,0,-0.09028,0.1464,0.03904,-0.32208,-0.26352,-0.21472,-0.16592
-0.16104,0.16836,-0.17568,-0.09516,-0.01464,-0.0732,0.122,0.04392,-0.26352,-0.20984,-0.18056,-0.1464
-0.14152,0.15372,-0.16592,-0.09516,-0.0244,-0.05856,0.10736,0.04392,-0.21472,-0.17568,-0.15128,-0.12688
-0.12688,0.13908,-0.15128,-0.08784,-0.0244,-0.05124,0.07808,0.0488,-0.1708,-0.1464,-0.13176,-0.10736
-0.10248,0.11956,-0.13664,-0.0854,-0.03416,-0.03416,0.07808,0.06344,-0.13664,-0.11224,-0.10736,-0.09272
-0.07808,0.09516,-0.11224,-0.0732,-0.03416,-0.02196,0.08296,0.07808,-0.10736,-0.0976,-0.09272,-0.08296
-0.0488,0.06832,-0.08784,-0.06344,-0.03904,-0.00488,0.06832,0.08784,-0.08784,-0.07808,-0.08784,-0.0732
-0.03416,0.05612,-0.07808,-0.061,-0.04392,0.00488,0.06832,0.10248,-0.0732,-0.06832,-0.0732,-0.06832
-0.03416,0.05856,-0.08296,-0.06588,-0.0488,0.00732,0.06344,0.11712,-0.06344,-0.05856,-0.06832,-0.06344
-0.0244,0.05124,-0.07808,-0.06588,-0.05368,0.01464,0.06344,0.11712,-0.05368,-0.05368,-0.05856,-0.06344
-0.0244,0.0488,-0.0732,-0.061,-0.0488,0.0122,0.06832,0.13176,-0.05368,-0.0488,-0.0488,-0.04392
-0.01952,0.04636,-0.0732,-0.06344,-0.05368,0.01708,0.0732,0.13664,-0.0488,-0.04392,-0.04392,-0.03904
-0.01952,0.0488,-0.07808,-0.06832,-0.05856,0.01952,0.0732,0.1464,-0.03904,-0.02928,-0.03416,-0.03416
-0.01464,0.04636,-0.07808,-0.07076,-0.06344,0.0244,0.0732,0.1464,-0.03416,-0.0244,-0.02928,-0.03416
-0.00488,0.03904,-0.0732,-0.07076,-0.06832,0.03172,0.08296,0.1708,-0.01952,-0.0244,-0.0244,-0.01952
0.00488,0.03416,-0.0732,-0.07564,-0.07808,0.04148,0.08784,0.18056,-0.01952,-0.01952,-0.01952,-0.01464
0.01952,0.0244,-0.06832,-0.07808,-0.08784,0.05368,0.09272,0.18056,-0.0244,-0.01952,-0.02928,-0.02928
0.01952,0.0244,-0.06832,-0.07808,-0.08784,0.05368,0.10248,0.18544,-0.0244,-0.01952,-0.0244,-0.0244
0.02928,0.02196,-0.0732,-0.08784,-0.10248,0.06588,0.0976,0.18544,-0.03416,-0.02928,-0.03416,-0.0244
0.02928,0.02196,-0.0732,-0.08784,-0.10248,0.06588,0.08784,0.18056,-0.03416,-0.02928,-0.03416,-0.0244
0.01952,0.02684,-0.0732,-0.08296,-0.09272,0.05612,0.0732,0.18544,-0.03904,-0.03416,-0.03904,-0.03416
0.01952,0.02684,-0.0732,-0.08296,-0.09272,0.05612,0.06832,0.19032,-0.03416,-0.02928,-0.03416,-0.02928
0.00976,0.03172,-0.0732,-0.07808,-0.08296,0.04636,0.06832,0.20984,-0.03416,-0.03416,-0.02928,-0.03416
0.00976,0.02684,-0.06344,-0.06832,-0.0732,0.04148,0.0732,0.22936,-0.02928,-0.03416,-0.02928,-0.03416
0.01464,0.0244,-0.06344,-0.07076,-0.07808,0.04636,0.0732,0.25864,-0.03904,-0.03416,-0.02928,-0.03416
0.01952,0.02196,-0.06344,-0.0732,-0.08296,0.05124,0.08296,0.2684,-0.03904,-0.03416,-0.02928,-0.03416
0.03416,0.01464,-0.06344,-0.08052,-0.0976,0.06588,0.06344,0.32208,-0.0244,-0.0244,-0.01952,-0.01952
0.04392,0.00976,-0.06344,-0.0854,-0.10736,0.07564,0.0488,0.37088,-0.0244,-0.01464,-0.01464,-0.01952
0.03416,0.01708,-0.06832,-0.0854,-0.10248,0.06832,0.04392,0.4148,-0.01464,0,-0.00488,-0.00488
0.03904,0.02196,-0.08296,-0.10248,-0.122,0.08052,0.03904,0.44896,0,0,0,0
0.03416,0.02684,-0.08784,-0.10492,-0.122,0.07808,0.04392,0.44896,-0.00976,0.00488,-0.00976,0.00488
0.0244,0.0366,-0.0976,-0.1098,-0.122,0.0732,0.03904,0.44408,-0.00488,0.00976,0,0.00488
0.03904,0.01464,-0.06832,-0.08784,-0.10736,0.0732,0.05368,0.42456,0,0.01952,0.00976,0.01464
0.0488,0.00488,-0.05856,-0.08296,-0.10736,0.07808,0.06344,0.38552,0.00488,0.0244,0.01464,0.01952
0.06832,-0.0122,-0.04392,-0.07808,-0.11224,0.09028,0.0732,0.37088,0.01952,0.02928,0.03416,0.02928
0.0732,-0.01952,-0.03416,-0.07076,-0.10736,0.09028,0.0732,0.36112,0.01952,0.02928,0.04392,0.03416
0.06832,-0.0122,-0.04392,-0.07808,-0.11224,0.09028,0.06832,0.35136,0.01464,0.03416,0.03904,0.03904
0.06344,-0.00732,-0.0488,-0.08052,-0.11224,0.08784,0.06832,0.35136,0.01952,0.03416,0.03904,0.03904
0.06832,-0.00488,-0.05856,-0.09272,-0.12688,0.0976,0.07808,0.33672,0.01464,0.02928,0.03416,0.03416
0.06832,-0.00244,-0.06344,-0.0976,-0.13176,0.10004,0.0732,0.34648,0.0244,0.03416,0.04392,0.04392
0.09272,-0.02684,-0.03904,-0.0854,-0.13176,0.11224,0.07808,0.35136,0.0244,0.03904,0.04392,0.04392
0.10736,-0.04148,-0.0244,-0.07808,-0.13176,0.11956,0.06832,0.33184,0.03904,0.04392,0.05368,0.05368
0.12688,-0.06344,0,-0.06344,-0.12688,0.12688,0.07808,0.32208,0.04392,0.05856,0.06344,0.06344
0.14152,-0.06832,-0.00488,-0.07564,-0.1464,0.14396,0.07808,0.3172,0.05368,0.06344,0.06832,0.06832
0.14152,-0.06344,-0.01464,-0.0854,-0.15616,0.14884,0.0732,0.30744,0.05856,0.0732,0.07808,0.0732
0.14152,-0.06588,-0.00976,-0.08052,-0.15128,0.1464,0.06832,0.31232,0.06344,0.08296,0.08784,0.08296
0.14152,-0.06588,-0.00976,-0.08052,-0.15128,0.1464,0.0488,0.30744,0.05856,0.08296,0.09272,0.08296
0.15616,-0.07076,-0.01464,-0.09272,-0.1708,0.16348,0.03416,0.2928,0.06832,0.08784,0.10736,0.09272
0.19032,-0.0976,0.00488,-0.09028,-0.18544,0.18788,0.0244,0.28304,0.0732,0.10248,0.13176,0.11712
0.20984,-0.1098,0.00976,-0.09516,-0.20008,0.20496,0.0244,0.27328,0.08784,0.11224,0.14152,0.13176
0.22936,-0.12688,0.0244,-0.09028,-0.20496,0.21716,0.01952,0.2684,0.08784,0.11712,0.15128,0.13664
0.25864,-0.15128,0.04392,-0.0854,-0.21472,0.23668,0.01464,0.2928,0.10248,0.12688,0.16592,0.15616
0.26352,-0.15616,0.0488,-0.08296,-0.21472,0.23912,0.01952,0.28304,0.10248,0.12688,0.17568,0.16104
0.28304,-0.16348,0.04392,-0.0976,-0.23912,0.26108,0.00976,0.27816,0.10736,0.13176,0.17568,0.1708
0.27816,-0.1586,0.03904,-0.10004,-0.23912,0.25864,0.01464,0.27816,0.10736,0.14152,0.18544,0.18056
0.28792,-0.16104,0.03416,-0.1098,-0.25376,0.27084,0.00488,0.27816,0.10736,0.1464,0.1952,0.19032
0.2928,-0.16592,0.03904,-0.10736,-0.25376,0.27328,0,0.27328,0.11712,0.15128,0.20496,0.20496
0.30744,-0.17568,0.04392,-0.1098,-0.26352,0.28548,-0.00488,0.2684,0.11712,0.15616,0.21472,0.21472
0.3172,-0.18544,0.05368,-0.10492,-0.26352,0.29036,-0.01464,0.27816,0.13664,0.16592,0.21472,0.2196
0.32696,-0.19032,0.05368,-0.1098,-0.27328,0.30012,-0.01952,0.27816,0.13664,0.17568,0.22936,0.23912
0.33184,-0.20008,0.06832,-0.0976,-0.26352,0.29768,-0.01464,0.2684,0.13176,0.1708,0.22936,0.23912
0.33672,-0.20252,0.06832,-0.10004,-0.2684,0.30256,-0.0244,0.2684,0.13176,0.16104,0.2196,0.22936
0.35136,-0.2074,0.06344,-0.11224,-0.28792,0.31964,-0.01952,0.25864,0.12688,0.1708,0.22448,0.23912
0.35136,-0.20984,0.06832,-0.10736,-0.28304,0.3172,-0.01952,0.24888,0.13176,0.18056,0.23424,0.23912
0.3416,-0.20984,0.07808,-0.09272,-0.26352,0.30256,-0.00976,0.23912,0.12688,0.19032,0.244,0.23424
0.33672,-0.20252,0.06832,-0.10004,-0.2684,0.30256,-0.00488,0.22936,0.12688,0.18056,0.22936,0.23912
0.31232,-0.19032,0.06832,-0.08784,-0.244,0.27816,0.00488,0.20496,0.122,0.18056,0.2196,0.22936
0.2928,-0.183,0.0732,-0.0732,-0.2196,0.2562,0,0.18544,0.11224,0.16592,0.20008,0.20984
0.25864,-0.16104,0.06344,-0.06588,-0.1952,0.22692,-0.00488,0.16592,0.10248,0.13664,0.1708,0.18056
0.22936,-0.14152,0.05368,-0.061,-0.17568,0.20252,-0.00488,0.1464,0.10248,0.122,0.15616,0.15128
0.19032,-0.1098,0.02928,-0.06588,-0.16104,0.17568,0,0.12688,0.08296,0.11224,0.13664,0.13664
0.16104,-0.09272,0.0244,-0.05612,-0.13664,0.14884,0.00488,0.10736,0.0732,0.09272,0.11712,0.11712
0.11712,-0.061,0.00488,-0.05368,-0.11224,0.11468,0.00976,0.0976,0.06832,0.07808,0.0976,0.10248
0.09272,-0.02928,-0.03416,-0.08052,-0.12688,0.1098,0.02928,0.07808,0.05856,0.05856,0.08296,0.08296
0.06344,-0.0122,-0.03904,-0.07076,-0.10248,0.08296,0.03904,0.06832,0.05368,0.05368,0.0732,0.06344
0.02928,0.00976,-0.0488,-0.06344,-0.07808,0.05368,0.05368,0.05368,0.04392,0.03904,0.05368,0.04392
0.01952,0.01464,-0.0488,-0.05856,-0.06832,0.04392,0.06344,0.06344,0.04392,0.03416,0.0488,0.02928
0,0.02928,-0.05856,-0.05856,-0.05856,0.02928,0.06832,0.0488,0.02928,0.01952,0.02928,0.01464
0,0.0244,-0.0488,-0.0488,-0.0488,0.0244,0.0732,0.02928,0.01464,0.00976,0.01952,0.00488
-0.01464,0.02928,-0.04392,-0.0366,-0.02928,0.00732,0.08296,0.02928,0.00976,0,0.00976,0
-0.00976,0.0244,-0.03904,-0.03416,-0.02928,0.00976,0.08784,0.0244,0.01464,0,0.01464,0
-0.01952,0.03416,-0.0488,-0.03904,-0.02928,0.00488,0.09272,0.02928,0.00488,0,0.00488,-0.01464
-0.03416,0.0488,-0.06344,-0.04636,-0.02928,-0.00244,0.08296,0.02928,0.00976,-0.00488,0,-0.00976
-0.05368,0.05856,-0.06344,-0.0366,-0.00976,-0.02196,0.08296,0.0244,0.00488,-0.00488,0,-0.00976
-0.06344,0.06588,-0.06832,-0.0366,-0.00488,-0.02928,0.08784,0.01464,-0.00488,-0.0244,-0.00488,-0.01952
-0.06344,0.07076,-0.07808,-0.04636,-0.01464,-0.0244,0.08784,-0.00488,-0.00488,-0.0244,-0.00976,-0.01952
-0.0732,0.07808,-0.08296,-0.04636,-0.00976,-0.03172,0.09272,-0.01464,-0.01464,-0.0244,-0.01952,-0.02928
-0.0732,0.08052,-0.08784,-0.05124,-0.01464,-0.02928,0.0976,-0.01464,-0.01952,-0.0244,-0.01952,-0.03416
-0.06832,0.07564,-0.08296,-0.0488,-0.01464,-0.02684,0.0976,-0.00976,-0.0244,-0.02928,-0.01464,-0.03416
-0.06344,0.0732,-0.08296,-0.05124,-0.01952,-0.02196,0.10248,-0.00976,-0.0244,-0.03416,-0.01952,-0.04392
-0.05856,0.061,-0.06344,-0.03416,-0.00488,-0.02684,0.10248,-0.00488,-0.01952,-0.03416,-0.01464,-0.02928
-0.0488,0.05124,-0.05368,-0.02928,-0.00488,-0.02196,0.11224,-0.00488,-0.01952,-0.03416,-0.01464,-0.02928
-0.03904,0.03904,-0.03904,-0.01952,0,-0.01952,0.11712,0,-0.01952,-0.0244,-0.01464,-0.01952
-0.03904,0.0366,-0.03416,-0.01464,0.00488,-0.02196,0.11712,0.00976,-0.01952,-0.0244,-0.01464,-0.01952
-0.0488,0.05124,-0.05368,-0.02928,-0.00488,-0.02196,0.10736,-0.00976,-0.01952,-0.0244,-0.01464,-0.01952
-0.05368,0.061,-0.06832,-0.04148,-0.01464,-0.01952,0.10736,-0.00488,-0.01464,-0.01952,-0.00976,-0.01464
-0.06344,0.06588,-0.06832,-0.0366,-0.00488,-0.02928,0.10736,-0.0244,-0.01464,-0.01952,0,-0.0244
-0.06344,0.06832,-0.0732,-0.04148,-0.00976,-0.02684,0.10736,-0.04392,-0.01464,-0.01952,0,-0.0244
-0.06832,0.06832,-0.06832,-0.03416,0,-0.03416,0.0976,-0.05368,-0.02928,-0.03416,-0.01464,-0.03416
-0.06832,0.06832,-0.06832,-0.03416,0,-0.03416,0.07808,-0.0488,-0.02928,-0.03416,-0.0244,-0.03904
-0.06344,0.0732,-0.08296,-0.05124,-0.01952,-0.02196,0.07808,-0.06344,-0.03416,-0.04392,-0.02928,-0.03904
-0.05856,0.07076,-0.08296,-0.05368,-0.0244,-0.01708,0.07808,-0.06832,-0.03416,-0.04392,-0.02928,-0.03904
-0.03904,0.05368,-0.06832,-0.0488,-0.02928,-0.00488,0.0976,-0.06832,-0.03416,-0.04392,-0.02928,-0.03904
-0.03904,0.05368,-0.06832,-0.0488,-0.02928,-0.00488,0.10248,-0.05856,-0.03416,-0.04392,-0.02928,-0.03904
-0.04392,0.05612,-0.06832,-0.04636,-0.0244,-0.00976,0.0976,-0.0488,-0.03416,-0.04392,-0.0244,-0.02928
-0.04392,0.061,-0.07808,-0.05612,-0.03416,-0.00488,0.10736,-0.05368,-0.03416,-0.04392,-0.0244,-0.02928
-0.05856,0.07564,-0.09272,-0.06344,-0.03416,-0.0122,0.10736,-0.06344,-0.03416,-0.03904,-0.0244,-0.03416
-0.06344,0.0854,-0.10736,-0.07564,-0.04392,-0.00976,0.0976,-0.06344,-0.03416,-0.03904,-0.0244,-0.03416
-0.05856,0.07808,-0.0976,-0.06832,-0.03904,-0.00976,0.08784,-0.06344,-0.0488,-0.05368,-0.02928,-0.03416
-0.06344,0.07808,-0.09272,-0.061,-0.02928,-0.01708,0.08296,-0.06344,-0.05368,-0.05368,-0.02928,-0.03904
-0.05368,0.06832,-0.08296,-0.05612,-0.02928,-0.0122,0.08296,-0.05368,-0.05368,-0.04392,-0.02928,-0.03904
-0.05368,0.06588,-0.07808,-0.05124,-0.0244,-0.01464,0.08784,-0.05368,-0.05368,-0.0488,-0.03416,-0.04392
-0.04392,0.061,-0.07808,-0.05612,-0.03416,-0.00488,0.08296,-0.05368,-0.05368,-0.05368,-0.02928,-0.03416
-0.03904,0.061,-0.08296,-0.06344,-0.04392,0.00244,0.08296,-0.0488,-0.05368,-0.05856,-0.02928,-0.02928
-0.03904,0.05368,-0.06832,-0.0488,-0.02928,-0.00488,0.09272,-0.0488,-0.06344,-0.05856,-0.03904,-0.03904
-0.03904,0.05368,-0.06832,-0.0488,-0.02928,-0.00488,0.09272,-0.03904,-0.06344,-0.06344,-0.03904,-0.03904
-0.04392,0.061,-0.07808,-0.05612,-0.03416,-0.00488,0.09272,-0.03416,-0.06832,-0.06344,-0.03904,-0.03904
-0.0488,0.061,-0.0732,-0.0488,-0.0244,-0.0122,0.0976,-0.02928,-0.06832,-0.06344,-0.03904,-0.03904
-0.0488,0.061,-0.0732,-0.0488,-0.0244,-0.0122,0.0976,-0.02928,-0.05856,-0.05368,-0.03904,-0.03904
-0.0488,0.061,-0.0732,-0.0488,-0.0244,-0.0122,0.09272,-0.0244,-0.06344,-0.05368,-0.03904,-0.03904
-0.0488,0.07076,-0.09272,-0.06832,-0.04392,-0.00244,0.10248,-0.01464,-0.06344,-0.06344,-0.03904,-0.03904
-0.0488,0.06832,-0.08784,-0.06344,-0.03904,-0.00488,0.10248,-0.00976,-0.06344,-0.06344,-0.03904,-0.03904
-0.05856,0.07808,-0.0976,-0.06832,-0.03904,-0.00976,0.10248,-0.01464,-0.06344,-0.06832,-0.0488,-0.0488
-0.05856,0.07564,-0.09272,-0.06344,-0.03416,-0.0122,0.0976,-0.0244,-0.06344,-0.06832,-0.0488,-0.06344
-0.06832,0.0854,-0.10248,-0.06832,-0.03416,-0.01708,0.0976,-0.0244,-0.0732,-0.07808,-0.0488,-0.06344
-0.06832,0.09028,-0.11224,-0.07808,-0.04392,-0.0122,0.10248,-0.0244,-0.07808,-0.07808,-0.04392,-0.06344
-0.05856,0.08052,-0.10248,-0.0732,-0.04392,-0.00732,0.10248,-0.0244,-0.07808,-0.0732,-0.05368,-0.05856
-0.06344,0.0732,-0.08296,-0.05124,-0.01952,-0.02196,0.10248,-0.03416,-0.07808,-0.0732,-0.05368,-0.05856
-0.05856,0.06832,-0.07808,-0.0488,-0.01952,-0.01952,0.10248,-0.04392,-0.07808,-0.06344,-0.0488,-0.05856
-0.0488,0.05856,-0.06832,-0.04392,-0.01952,-0.01464,0.10248,-0.04392,-0.07808,-0.06344,-0.0488,-0.05856
-0.03904,0.0488,-0.05856,-0.03904,-0.01952,-0.00976,0.0976,-0.03904,-0.06832,-0.06344,-0.03904,-0.0488
-0.0244,0.04148,-0.05856,-0.04636,-0.03416,0.00488,0.0976,-0.05368,-0.0732,-0.06344,-0.03904,-0.0488
-0.0244,0.03904,-0.05368,-0.04148,-0.02928,0.00244,0.08784,-0.06344,-0.0732,-0.06832,-0.03904,-0.0488
-0.01952,0.0366,-0.05368,-0.04392,-0.03416,0.00732,0.08784,-0.06832,-0.0732,-0.06832,-0.04392,-0.05368
-0.02928,0.04636,-0.06344,-0.0488,-0.03416,0.00244,0.08296,-0.0732,-0.07808,-0.07808,-0.05368,-0.06344
-0.03416,0.05124,-0.06832,-0.05124,-0.03416,0,0.08296,-0.08296,-0.07808,-0.07808,-0.05368,-0.06344
-0.03416,0.05612,-0.07808,-0.061,-0.04392,0.00488,0.07808,-0.07808,-0.07808,-0.07808,-0.05368,-0.06344
-0.03904,0.05856,-0.07808,-0.05856,-0.03904,0,0.08784,-0.0732,-0.07808,-0.07808,-0.05368,-0.05856
-0.05856,0.0732,-0.08784,-0.05856,-0.02928,-0.01464,0.08784,-0.0732,-0.08784,-0.08296,-0.06344,-0.06832
-0.06832,0.08052,-0.09272,-0.05856,-0.0244,-0.02196,0.09272,-0.0732,-0.08784,-0.08296,-0.06344,-0.06832
-0.08296,0.09028,-0.0976,-0.05612,-0.01464,-0.03416,0.08784,-0.07808,-0.0976,-0.09272,-0.05368,-0.06344
-0.08296,0.09272,-0.10248,-0.061,-0.01952,-0.03172,0.08784,-0.0732,-0.0976,-0.09272,-0.05368,-0.06344
-0.0732,0.08052,-0.08784,-0.05124,-0.01464,-0.02928,0.0976,-0.06344,-0.0976,-0.08296,-0.04392,-0.06344
-0.06344,0.07076,-0.07808,-0.04636,-0.01464,-0.0244,0.0976,-0.0488,-0.0976,-0.08296,-0.04392,-0.06344
-0.0488,0.05856,-0.06832,-0.04392,-0.01952,-0.01464,0.10736,-0.03416,-0.08784,-0.06832,-0.02928,-0.05368
-0.0488,0.05856,-0.06832,-0.04392,-0.01952,-0.01464,0.11224,-0.0244,-0.07808,-0.06832,-0.02928,-0.03904
-0.03904,0.05856,-0.07808,-0.05856,-0.03904,0,0.122,-0.00976,-0.07808,-0.06832,-0.02928,-0.0488
-0.03904,0.06588,-0.09272,-0.0732,-0.05368,0.00732,0.122,0.00488,-0.07808,-0.06832,-0.03416,-0.0488
-0.03904,0.06588,-0.09272,-0.0732,-0.05368,0.00732,0.122,0.01464,-0.07808,-0.06832,-0.02928,-0.03904
-0.03416,0.05856,-0.08296,-0.06588,-0.0488,0.00732,0.122,0.01952,-0.07808,-0.06832,-0.02928,-0.03904
-0.04392,0.061,-0.07808,-0.05612,-0.03416,-0.00488,0.12688,0.03416,-0.07808,-0.06832,-0.02928,-0.03904
-0.04392,0.05856,-0.0732,-0.05124,-0.02928,-0.00732,0.13664,0.04392,-0.07808,-0.06832,-0.03416,-0.03904
-0.05368,0.06344,-0.0732,-0.04636,-0.01952,-0.01708,0.1464,0.04392,-0.08296,-0.06832,-0.03416,-0.04392
-0.06344,0.06588,-0.06832,-0.0366,-0.00488,-0.02928,0.15128,0.05368,-0.08296,-0.0732,-0.03416,-0.04392
-0.05856,0.06344,-0.06832,-0.03904,-0.00976,-0.0244,0.14152,0.05368,-0.08784,-0.0732,-0.03904,-0.0488
-0.05856,0.05856,-0.05856,-0.02928,0,-0.02928,0.14152,0.05368,-0.08784,-0.07808,-0.03904,-0.0488
-0.06832,0.06832,-0.06832,-0.03416,0,-0.03416,0.13664,0.04392,-0.0976,-0.07808,-0.03904,-0.05368
-0.06832,0.06832,-0.06832,-0.03416,0,-0.03416,0.13664,0.05368,-0.08784,-0.06832,-0.03904,-0.06344
-0.0488,0.05612,-0.06344,-0.03904,-0.01464,-0.01708,0.13664,0.05856,-0.07808,-0.07808,-0.03904,-0.05368
-0.03904,0.05124,-0.06344,-0.04392,-0.0244,-0.00732,0.12688,0.05368,-0.07808,-0.0732,-0.03416,-0.05368
-0.03416,0.04392,-0.05368,-0.0366,-0.01952,-0.00732,0.13176,0.0488,-0.08784,-0.06344,-0.03904,-0.0488
-0.03416,0.04392,-0.05368,-0.0366,-0.01952,-0.00732,0.13176,0.04392,-0.08784,-0.06344,-0.03904,-0.0488
-0.06344,0.06344,-0.06344,-0.03172,0,-0.03172,0.11224,0.03904,-0.0976,-0.0732,-0.04392,-0.05368
-0.0732,0.0732,-0.0732,-0.0366,0,-0.0366,0.11224,0.03416,-0.0976,-0.0732,-0.0488,-0.05368
-0.07808,0.07808,-0.07808,-0.03904,0,-0.03904,0.11224,0.0244,-0.0976,-0.0732,-0.0488,-0.05856
-0.08296,0.07808,-0.0732,-0.03172,0.00976,-0.04636,0.10736,0.02928,-0.0976,-0.0732,-0.0488,-0.06344
-0.06344,0.06588,-0.06832,-0.0366,-0.00488,-0.02928,0.10248,0.01952,-0.0976,-0.0732,-0.03904,-0.06344
-0.05368,0.05856,-0.06344,-0.0366,-0.00976,-0.02196,0.10248,0.0244,-0.10248,-0.0732,-0.04392,-0.06344
-0.06344,0.06588,-0.06832,-0.0366,-0.00488,-0.02928,0.10248,0.0244,-0.10248,-0.0732,-0.04392,-0.05368
-0.05856,0.06344,-0.06832,-0.03904,-0.00976,-0.0244,0.0976,0.01952,-0.0976,-0.07808,-0.0488,-0.05856
-0.0488,0.05368,-0.05856,-0.03416,-0.00976,-0.01952,0.0976,0.02928,-0.0976,-0.07808,-0.03904,-0.05856
-0.0488,0.05368,-0.05856,-0.03416,-0.00976,-0.01952,0.0976,0.02928,-0.0976,-0.07808,-0.03904,-0.05856
-0.03904,0.04392,-0.0488,-0.02928,-0.00976,-0.01464,0.10736,0.0488,-0.08784,-0.06832,-0.02928,-0.0488
-0.03904,0.03904,-0.03904,-0.01952,0,-0.01952,0.11712,0.06832,-0.08784,-0.06832,-0.02928,-0.0488
-0.03904,0.03904,-0.03904,-0.01952,0,-0.01952,0.12688,0.08784,-0.08784,-0.06832,-0.02928,-0.0488
-0.03904,0.03904,-0.03904,-0.01952,0,-0.01952,0.13664,0.0976,-0.08784,-0.06832,-0.02928,-0.0488
-0.0488,0.0488,-0.0488,-0.0244,0,-0.0244,0.1464,0.11712,-0.08784,-0.06832,-0.02928,-0.0488
-0.0488,0.05368,-0.05856,-0.03416,-0.00976,-0.01952,0.15616,0.13664,-0.08784,-0.06832,-0.02928,-0.0488
-0.05856,0.06344,-0.06832,-0.03904,-0.00976,-0.0244,0.16592,0.15616,-0.0976,-0.07808,-0.02928,-0.0488
-0.05856,0.06344,-0.06832,-0.03904,-0.00976,-0.0244,0.17568,0.16592,-0.0976,-0.07808,-0.02928,-0.0488
-0.0488,0.05856,-0.06832,-0.04392,-0.01952,-0.01464,0.18544,0.18544,-0.08784,-0.06832,-0.02928,-0.0488
-0.0488,0.05856,-0.06832,-0.04392,-0.01952,-0.01464,0.18544,0.1952,-0.08784,-0.06832,-0.02928,-0.0488
-0.03904,0.0488,-0.05856,-0.03904,-0.01952,-0.00976,0.17568,0.1952,-0.08784,-0.06832,-0.01952,-0.0488
-0.02928,0.04392,-0.05856,-0.04392,-0.02928,0,0.17568,0.1952,-0.08784,-0.06832,-0.01952,-0.0488
-0.02928,0.03904,-0.0488,-0.03416,-0.01952,-0.00488,0.16592,0.17568,-0.08784,-0.05856,-0.01952,-0.0488
-0.02928,0.03904,-0.0488,-0.03416,-0.01952,-0.00488,0.15616,0.16592,-0.08784,-0.05856,-0.01952,-0.0488
-0.02928,0.03904,-0.0488,-0.03416,-0.01952,-0.00488,0.13664,0.13664,-0.08784,-0.05856,-0.01952,-0.03904
-0.02928,0.03904,-0.0488,-0.03416,-0.01952,-0.00488,0.12688,0.11712,-0.08784,-0.05856,-0.01952,-0.03904
-0.02928,0.03904,-0.0488,-0.03416,-0.01952,-0.00488,0.11224,0.08296,-0.07808,-0.0488,-0.00976,-0.02928
-0.03904,0.03904,-0.03904,-0.01952,0,-0.01952,0.10248,0.05368,-0.06832,-0.0488,-0.00488,-0.02928
-0.03416,0.03172,-0.02928,-0.0122,0.00488,-0.01952,0.07808,0.00976,-0.06344,-0.0488,0,-0.03416
-0.02928,0.02684,-0.0244,-0.00976,0.00488,-0.01708,0.06344,-0.01464,-0.06344,-0.03904,0.00488,-0.02928
-0.00976,0.00488,0,0.00488,0.00976,-0.00976,0.04392,-0.0244,-0.04392,-0.02928,0.01464,-0.01464
0,-0.00976,0.01952,0.01952,0.01952,-0.00976,0.02928,-0.03904,-0.03416,-0.01952,0.01952,-0.00488
0,-0.01464,0.02928,0.02928,0.02928,-0.01464,0.00488,-0.05368,-0.0244,-0.00976,0.02928,0.00488
0.01464,-0.0244,0.03416,0.02684,0.01952,-0.00244,0,-0.06344,-0.0244,-0.00976,0.02928,0.00488
0.02928,-0.0366,0.04392,0.02928,0.01464,0.00732,-0.01952,-0.07808,-0.0244,-0.00488,0.03904,0.00976
0.03904,-0.04148,0.04392,0.0244,0.00488,0.01708,-0.02928,-0.0732,-0.0244,-0.00976,0.03904,0.01464
0.06344,-0.06344,0.06344,0.03172,0,0.03172,-0.01952,-0.0732,-0.0244,0.00488,0.04392,0.01464
0.06344,-0.06344,0.06344,0.03172,0,0.03172,-0.01952,-0.06832,-0.03416,0,0.04392,0.01952
0.05368,-0.05612,0.05856,0.03172,0.00488,0.0244,0,-0.04392,-0.02928,0,0.04392,0.01952
0.04392,-0.04636,0.0488,0.02684,0.00488,0.01952,0.03416,-0.00976,-0.0488,-0.00976,0.03416,0.00976
0.04392,-0.03416,0.0244,0.00244,-0.01952,0.03172,0.04392,0.00976,-0.05856,-0.03416,0.00976,0
0.03416,-0.0244,0.01464,-0.00244,-0.01952,0.02684,0.05368,0.02928,-0.06832,-0.03904,0,-0.00976
0.01464,-0.00732,0,-0.00732,-0.01464,0.01464,0.07808,0.06344,-0.08296,-0.05856,-0.00976,-0.0244
-0.01464,0.01708,-0.01952,-0.0122,-0.00488,-0.00488,0.0976,0.08296,-0.08296,-0.05856,-0.01464,-0.0244
-0.0244,0.03172,-0.03904,-0.02684,-0.01464,-0.00488,0.11224,0.0976,-0.08784,-0.05856,-0.01464,-0.02928
-0.03416,0.04392,-0.05368,-0.0366,-0.01952,-0.00732,0.122,0.10248,-0.08784,-0.06832,-0.01952,-0.03416
-0.02928,0.05124,-0.0732,-0.05856,-0.04392,0.00732,0.122,0.11224,-0.09272,-0.06832,-0.03416,-0.03904
-0.03416,0.05612,-0.07808,-0.061,-0.04392,0.00488,0.12688,0.13176,-0.09272,-0.06832,-0.03416,-0.03904
-0.04392,0.05612,-0.06832,-0.04636,-0.0244,-0.00976,0.14152,0.1464,-0.09272,-0.0732,-0.03904,-0.05368
-0.04392,0.05612,-0.06832,-0.04636,-0.0244,-0.00976,0.1464,0.15128,-0.0976,-0.07808,-0.04392,-0.05368
-0.03416,0.05124,-0.06832,-0.05124,-0.03416,0,0.13664,0.15128,-0.0976,-0.07808,-0.04392,-0.05368
-0.03416,0.04636,-0.05856,-0.04148,-0.0244,-0.00488,0.13664,0.15616,-0.0976,-0.08296,-0.0488,-0.05856
-0.0488,0.05124,-0.05368,-0.02928,-0.00488,-0.02196,0.12688,0.15128,-0.11224,-0.09272,-0.0488,-0.05856
-0.05368,0.05368,-0.05368,-0.02684,0,-0.02684,0.122,0.1464,-0.11224,-0.09272,-0.0488,-0.05856
-0.05368,0.05856,-0.06344,-0.0366,-0.00976,-0.02196,0.11712,0.13664,-0.10736,-0.08784,-0.05368,-0.05368
-0.05856,0.06588,-0.0732,-0.04392,-0.01464,-0.02196,0.11712,0.12688,-0.10736,-0.08784,-0.05368,-0.05368
-0.0488,0.06344,-0.07808,-0.05368,-0.02928,-0.00976,0.11224,0.12688,-0.0976,-0.08784,-0.04392,-0.05368
-0.04392,0.061,-0.07808,-0.05612,-0.03416,-0.00488,0.11224,0.12688,-0.0976,-0.08296,-0.04392,-0.0488
-0.04392,0.05368,-0.06344,-0.04148,-0.01952,-0.0122,0.0976,0.10736,-0.08296,-0.0732,-0.03904,-0.03904
-0.03904,0.05368,-0.06832,-0.0488,-0.02928,-0.00488,0.08784,0.11224,-0.08296,-0.0732,-0.03904,-0.03904
-0.03904,0.0488,-0.05856,-0.03904,-0.01952,-0.00976,0.08296,0.0976,-0.08296,-0.0732,-0.04392,-0.03904
-0.0488,0.05612,-0.06344,-0.03904,-0.01464,-0.01708,0.07808,0.08784,-0.08296,-0.0732,-0.04392,-0.04392
-0.0488,0.06344,-0.07808,-0.05368,-0.02928,-0.00976,0.06832,0.08296,-0.09272,-0.0732,-0.04392,-0.05368
-0.05368,0.06588,-0.07808,-0.05124,-0.0244,-0.01464,0.06832,0.06344,-0.09272,-0.0732,-0.04392,-0.05856
-0.0976,0.10004,-0.10248,-0.05368,-0.00488,-0.04636,0.0732,0.06344,-0.0976,-0.08784,-0.05856,-0.06832
-0.13176,0.122,-0.11224,-0.04636,0.01952,-0.07564,0.0976,0.06344,-0.0976,-0.08784,-0.06832,-0.08296
-0.15616,0.12688,-0.0976,-0.01952,0.05856,-0.10736,0.13176,0.08784,-0.07808,-0.09272,-0.08296,-0.0976
-0.16104,0.12932,-0.0976,-0.01708,0.06344,-0.11224,0.16104,0.13176,-0.05856,-0.07808,-0.0732,-0.0976
-0.13176,0.11468,-0.0976,-0.03172,0.03416,-0.08296,0.18056,0.18544,-0.0244,-0.03904,-0.05368,-0.08296
-0.0488,0.0732,-0.0976,-0.0732,-0.0488,0,0.18056,0.24888,0.05368,0.02928,0.01952,-0.01952
0.09272,-0.00488,-0.08296,-0.12932,-0.17568,0.1342,0.15128,0.29768,0.15128,0.13176,0.11224,0.07808
0.31232,-0.1342,-0.04392,-0.20008,-0.35624,0.33428,0.07808,0.34648,0.2928,0.27328,0.25376,0.2196
0.5612,-0.30012,0.03904,-0.24156,-0.52216,0.54168,-0.03416,0.38064,0.44896,0.43432,0.42944,0.38552
0.81984,-0.47092,0.122,-0.28792,-0.69784,0.75884,-0.15616,0.37088,0.56608,0.59048,0.61488,0.57584
1.03456,-0.62952,0.22448,-0.2928,-0.81008,0.92232,-0.31232,0.28792,0.65392,0.72224,0.77104,0.76128
1.11752,-0.70028,0.28304,-0.27572,-0.83448,0.976,-0.43432,0.15128,0.60024,0.74176,0.83936,0.854
1.06872,-0.68808,0.30744,-0.22692,-0.76128,0.915,-0.50264,-0.00976,0.42456,0.62464,0.77104,0.83448
0.84912,-0.5734,0.29768,-0.12688,-0.55144,0.70028,-0.488,-0.1708,0.13176,0.37576,0.58072,0.69296
0.54168,-0.3904,0.23912,-0.03172,-0.30256,0.42212,-0.39528,-0.2928,-0.20984,0.0732,0.30744,0.45872
0.23912,-0.19032,0.14152,0.02196,-0.0976,0.16836,-0.27328,-0.35624,-0.49288,-0.20496,0.05368,0.23424
0.00976,-0.02928,0.0488,0.04392,0.03904,-0.01464,-0.13664,-0.3172,-0.64904,-0.366,-0.11712,0.05368
-0.1464,0.10736,-0.06832,0.00488,0.07808,-0.11224,-0.0244,-0.23912,-0.69784,-0.45384,-0.23424,-0.07808
-0.23424,0.18544,-0.13664,-0.01952,0.0976,-0.16592,0.07808,-0.1464,-0.66856,-0.47336,-0.28792,-0.16104
-0.25864,0.22204,-0.18544,-0.05612,0.0732,-0.16592,0.14152,-0.05368,-0.6344,-0.47336,-0.3172,-0.21472
-0.2684,0.24156,-0.21472,-0.08052,0.05368,-0.16104,0.1952,0.0244,-0.5612,-0.42944,-0.29768,-0.21472
-0.24888,0.22692,-0.20496,-0.08052,0.04392,-0.1464,0.19032,0.03904,-0.49776,-0.3904,-0.28304,-0.21472
-0.22448,0.20984,-0.1952,-0.08296,0.02928,-0.12688,0.1708,0.0488,-0.41968,-0.32696,-0.23912,-0.19032
-0.19032,0.18544,-0.18056,-0.0854,0.00976,-0.10004,0.15616,0.05856,-0.3416,-0.27328,-0.1952,-0.15616
-0.16104,0.1586,-0.15616,-0.07564,0.00488,-0.08296,0.14152,0.0732,-0.27328,-0.2196,-0.15128,-0.12688
-0.13176,0.1342,-0.13664,-0.07076,-0.00488,-0.06344,0.11712,0.08296,-0.21472,-0.16592,-0.11224,-0.0976
-0.11712,0.11468,-0.11224,-0.05368,0.00488,-0.061,0.0976,0.08784,-0.1708,-0.12688,-0.09272,-0.07808
-0.09272,0.09516,-0.0976,-0.05124,-0.00488,-0.04392,0.08784,0.09272,-0.13664,-0.10248,-0.06832,-0.06344
-0.08784,0.09028,-0.09272,-0.0488,-0.00488,-0.04148,0.09272,0.10736,-0.11712,-0.08784,-0.05368,-0.05368
-0.06832,0.07808,-0.08784,-0.05368,-0.01952,-0.0244,0.08784,0.11712,-0.08784,-0.07808,-0.0488,-0.04392
-0.05368,0.06588,-0.07808,-0.05124,-0.0244,-0.01464,0.08784,0.13176,-0.0732,-0.0488,-0.0244,-0.02928
-0.05368,0.05856,-0.06344,-0.0366,-0.00976,-0.02196,0.08296,0.12688,-0.06344,-0.0488,-0.01952,-0.0244
-0.04392,0.05124,-0.05856,-0.0366,-0.01464,-0.01464,0.08296,0.12688,-0.05368,-0.04392,-0.00976,-0.0244
-0.03416,0.03904,-0.04392,-0.02684,-0.00976,-0.0122,0.07808,0.13176,-0.04392,-0.03904,-0.00976,-0.0244
-0.02928,0.03172,-0.03416,-0.01952,-0.00488,-0.0122,0.08296,0.13664,-0.03904,-0.03416,-0.00488,-0.01952
-0.02928,0.03416,-0.03904,-0.0244,-0.00976,-0.00976,0.0732,0.12688,-0.0488,-0.03904,-0.00488,-0.0244
-0.0244,0.0366,-0.0488,-0.0366,-0.0244,0,0.0732,0.12688,-0.04392,-0.03416,0,-0.0244
-0.03416,0.0488,-0.06344,-0.04636,-0.02928,-0.00244,0.0732,0.13176,-0.03904,-0.03416,-0.00488,-0.01952
-0.04392,0.05368,-0.06344,-0.04148,-0.01952,-0.0122,0.07808,0.13176,-0.03904,-0.02928,0,-0.01464
-0.03904,0.0488,-0.05856,-0.03904,-0.01952,-0.00976,0.08296,0.122,-0.03416,-0.01952,0.00976,-0.01952
-0.03904,0.0488,-0.05856,-0.03904,-0.01952,-0.00976,0.08296,0.11712,-0.03416,-0.01952,0.01464,-0.01464
-0.01952,0.03172,-0.04392,-0.03416,-0.0244,0.00244,0.07808,0.0976,-0.03416,-0.01952,0.00488,-0.00488
-0.00976,0.02684,-0.04392,-0.03904,-0.03416,0.0122,0.06832,0.09272,-0.03416,-0.01952,0.00488,-0.00488
-0.00976,0.02684,-0.04392,-0.03904,-0.03416,0.0122,0.06344,0.08784,-0.02928,-0.0244,0,-0.00488
-0.00976,0.02684,-0.04392,-0.03904,-0.03416,0.0122,0.05856,0.08296,-0.0244,-0.01952,0.00488,0
-0.01952,0.0366,-0.05368,-0.04392,-0.03416,0.00732,0.0488,0.09272,-0.0244,-0.00488,0.01952,0.00488
-0.02928,0.04148,-0.05368,-0.03904,-0.0244,-0.00244,0.05368,0.09272,-0.01952,-0.00488,0.01952,0.00488
-0.03416,0.0488,-0.06344,-0.04636,-0.02928,-0.00244,0.04392,0.09272,-0.01952,-0.00488,0.01952,0.00488
-0.02928,0.04636,-0.06344,-0.0488,-0.03416,0.00244,0.05368,0.08296,-0.01952,-0.00488,0.01952,0.00488
-0.0244,0.03904,-0.05368,-0.04148,-0.02928,0.00244,0.05368,0.08784,-0.00488,0.00488,0.02928,0.00976
-0.0244,0.03416,-0.04392,-0.03172,-0.01952,-0.00244,0.0488,0.0976,-0.00488,0.00488,0.03416,0.00976
-0.0244,0.03172,-0.03904,-0.02684,-0.01464,-0.00488,0.05368,0.10248,-0.00488,0.00976,0.0244,0.01464
-0.01952,0.03172,-0.04392,-0.03416,-0.0244,0.00244,0.05856,0.0976,0,0.00976,0.02928,0.01952
-0.01464,0.02684,-0.03904,-0.03172,-0.0244,0.00488,0.06344,0.10736,0,0.01464,0.02928,0.0244
-0.01464,0.02684,-0.03904,-0.03172,-0.0244,0.00488,0.05856,0.10248,0.00488,0.01952,0.03904,0.0244
0,0.00976,-0.01952,-0.01952,-0.01952,0.00976,0.06344,0.11224,0,0.01952,0.03904,0.0244
0,0.00976,-0.01952,-0.01952,-0.01952,0.00976,0.06344,0.10248,0.00488,0.0244,0.04392,0.02928
0.02928,-0.0122,-0.00488,-0.01952,-0.03416,0.03172,0.06344,0.10736,0.01952,0.03904,0.05368,0.03904
0.04392,-0.0244,0.00488,-0.01708,-0.03904,0.04148,0.06344,0.10736,0.01952,0.03904,0.06344,0.04392
0.05856,-0.02684,-0.00488,-0.03416,-0.06344,0.061,0.06832,0.11712,0.03416,0.04392,0.06832,0.05856
0.06344,-0.02684,-0.00976,-0.04148,-0.0732,0.06832,0.06832,0.13664,0.03904,0.04392,0.06832,0.05856
0.06832,-0.03416,0,-0.03416,-0.06832,0.06832,0.05856,0.13176,0.03416,0.0488,0.0732,0.05368
0.05856,-0.03172,0.00488,-0.0244,-0.05368,0.05612,0.05368,0.15128,0.04392,0.05368,0.08296,0.06344
0.06344,-0.0366,0.00976,-0.02196,-0.05368,0.05856,0.0488,0.15616,0.03416,0.05856,0.0732,0.06344
0.06832,-0.04148,0.01464,-0.01952,-0.05368,0.061,0.03904,0.1464,0.0488,0.06344,0.08296,0.0732
0.06832,-0.04392,0.01952,-0.01464,-0.0488,0.05856,0.0488,0.1464,0.05368,0.06832,0.10248,0.08296
0.0732,-0.03904,0.00488,-0.03172,-0.06832,0.07076,0.0488,0.15128,0.06344,0.0732,0.10736,0.08784
0.08296,-0.04392,0.00488,-0.0366,-0.07808,0.08052,0.04392,0.16104,0.07808,0.09272,0.12688,0.10248
0.09272,-0.05124,0.00976,-0.0366,-0.08296,0.08784,0.0488,0.16592,0.08296,0.11224,0.13664,0.11224
0.10248,-0.061,0.01952,-0.03172,-0.08296,0.09272,0.03904,0.18056,0.0976,0.122,0.13176,0.122
0.11712,-0.07076,0.0244,-0.03416,-0.09272,0.10492,0.0244,0.17568,0.10736,0.12688,0.1464,0.13176
0.13176,-0.08296,0.03416,-0.03172,-0.0976,0.11468,0.01464,0.18544,0.11224,0.14152,0.16104,0.13664
0.15128,-0.09516,0.03904,-0.0366,-0.11224,0.13176,0.01464,0.18544,0.12688,0.15128,0.1708,0.15128
0.16104,-0.10248,0.04392,-0.0366,-0.11712,0.13908,0,0.19032,0.12688,0.15616,0.18056,0.15616
0.19032,-0.122,0.05368,-0.04148,-0.13664,0.16348,-0.00488,0.22448,0.14152,0.16592,0.1952,0.17568
0.20496,-0.13664,0.06832,-0.03416,-0.13664,0.1708,-0.01952,0.21472,0.14152,0.16592,0.21472,0.19032
0.22448,-0.14884,0.0732,-0.03904,-0.15128,0.18788,-0.02928,0.20984,0.1464,0.1708,0.22448,0.20008
0.23912,-0.16348,0.08784,-0.03172,-0.15128,0.1952,-0.03416,0.20984,0.16592,0.19032,0.244,0.2196
0.2684,-0.18056,0.09272,-0.04148,-0.17568,0.22204,-0.04392,0.20984,0.16592,0.1952,0.25376,0.23912
0.2928,-0.1952,0.0976,-0.0488,-0.1952,0.244,-0.0488,0.20496,0.18544,0.2196,0.26352,0.25376
0.30744,-0.20496,0.10248,-0.05124,-0.20496,0.2562,-0.05368,0.19032,0.18544,0.23424,0.27328,0.26352
0.30744,-0.20496,0.10248,-0.05124,-0.20496,0.2562,-0.0732,0.18056,0.18544,0.23424,0.28304,0.2684
0.3172,-0.20984,0.10248,-0.05612,-0.21472,0.26596,-0.07808,0.1708,0.18544,0.244,0.29768,0.28792
0.32208,-0.21472,0.10736,-0.05368,-0.21472,0.2684,-0.09272,0.1708,0.19032,0.24888,0.29768,0.28792
0.32696,-0.21716,0.10736,-0.05612,-0.2196,0.27328,-0.10248,0.18056,0.19032,0.24888,0.29768,0.27816
0.33184,-0.22204,0.11224,-0.05368,-0.2196,0.27572,-0.10736,0.18056,0.18544,0.24888,0.30256,0.27816
0.33184,-0.22448,0.11712,-0.0488,-0.21472,0.27328,-0.10736,0.1708,0.19032,0.24888,0.30256,0.27816
0.32208,-0.22448,0.12688,-0.03416,-0.1952,0.25864,-0.0976,0.18056,0.18544,0.24888,0.2928,0.27328
0.3172,-0.22204,0.12688,-0.03172,-0.19032,0.25376,-0.09272,0.19032,0.17568,0.23912,0.27816,0.2684
0.30256,-0.20984,0.11712,-0.03416,-0.18544,0.244,-0.0732,0.20496,0.1708,0.22936,0.27816,0.2684
0.28304,-0.19764,0.11224,-0.02928,-0.1708,0.22692,-0.05856,0.21472,0.16104,0.21472,0.25864,0.24888
0.23912,-0.16104,0.08296,-0.0366,-0.15616,0.19764,-0.05368,0.21472,0.14152,0.18544,0.22936,0.2196
0.20008,-0.13176,0.06344,-0.0366,-0.13664,0.16836,-0.05368,0.21472,0.14152,0.1708,0.21472,0.20008
0.1708,-0.10492,0.03904,-0.04636,-0.13176,0.15128,-0.03904,0.21472,0.11224,0.15128,0.17568,0.16592
0.15128,-0.09272,0.03416,-0.04148,-0.11712,0.1342,-0.03416,0.20496,0.09272,0.13176,0.15616,0.1464
0.12688,-0.08052,0.03416,-0.02928,-0.09272,0.1098,-0.02928,0.20496,0.08784,0.11712,0.13664,0.122
0.11224,-0.05856,0.00488,-0.05124,-0.10736,0.1098,-0.00976,0.20496,0.06832,0.0976,0.122,0.10248
0.08296,-0.04636,0.00976,-0.03172,-0.0732,0.07808,0.00976,0.20496,0.05368,0.0732,0.09272,0.08296
0.0488,-0.0244,0,-0.0244,-0.0488,0.0488,0.0244,0.20984,0.04392,0.05856,0.0732,0.06344
0.03904,-0.00976,-0.01952,-0.03904,-0.05856,0.0488,0.04392,0.2196,0.03416,0.05368,0.06832,0.05856
0.01952,0.00488,-0.02928,-0.03904,-0.0488,0.03416,0.0488,0.21472,0.01952,0.03904,0.0488,0.04392
0.00976,0.00976,-0.02928,-0.03416,-0.03904,0.0244,0.05368,0.21472,0.00488,0.01952,0.03904,0.0244
-0.01464,0.02928,-0.04392,-0.0366,-0.02928,0.00732,0.06344,0.22448,0,0.00976,0.02928,0.00976
-0.01952,0.03416,-0.0488,-0.03904,-0.02928,0.00488,0.05856,0.20984,-0.01464,0,0.01464,0.00976
-0.02928,0.04392,-0.05856,-0.04392,-0.02928,0,0.06344,0.21472,-0.0244,0,0.00488,-0.00488
-0.0244,0.03904,-0.05368,-0.04148,-0.02928,0.00244,0.06344,0.21472,-0.01952,-0.00488,0.00976,0
-0.0244,0.03416,-0.04392,-0.03172,-0.01952,-0.00244,0.06344,0.2196,-0.0244,-0.00488,0.00976,0
-0.01464,0.02196,-0.02928,-0.02196,-0.01464,0,0.06832,0.20984,-0.0244,-0.01464,0.00488,-0.00976
-0.00488,0.01708,-0.02928,-0.02684,-0.0244,0.00976,0.06832,0.20008,-0.0244,-0.01464,0,-0.00976
-0.0244,0.03416,-0.04392,-0.03172,-0.01952,-0.00244,0.06344,0.19032,-0.03416,-0.0244,-0.00976,-0.01952
-0.04392,0.05124,-0.05856,-0.0366,-0.01464,-0.01464,0.06832,0.18056,-0.03904,-0.0244,-0.01952,-0.0244
-0.05856,0.06588,-0.0732,-0.04392,-0.01464,-0.02196,0.05856,0.15616,-0.03416,-0.02928,-0.01464,-0.0244
-0.0732,0.07808,-0.08296,-0.04636,-0.00976,-0.03172,0.06344,0.1464,-0.03416,-0.03416,-0.01952,-0.03416
-0.05856,0.061,-0.06344,-0.03416,-0.00488,-0.02684,0.06344,0.13176,-0.03904,-0.0244,-0.0244,-0.02928
-0.0488,0.05124,-0.05368,-0.02928,-0.00488,-0.02196,0.06344,0.13176,-0.03904,-0.0244,-0.0244,-0.02928
-0.02928,0.03416,-0.03904,-0.0244,-0.00976,-0.00976,0.05856,0.11712,-0.03904,-0.03416,-0.0244,-0.01952
-0.02928,0.02684,-0.0244,-0.00976,0.00488,-0.01708,0.03904,0.12688,-0.03904,-0.03416,-0.0244,-0.01952
-0.02928,0.03172,-0.03416,-0.01952,-0.00488,-0.0122,0.02928,0.11712,-0.03904,-0.03416,-0.0244,-0.01952
-0.03416,0.0366,-0.03904,-0.02196,-0.00488,-0.01464,0.01952,0.122,-0.03416,-0.02928,-0.01952,-0.01464
-0.04392,0.05124,-0.05856,-0.0366,-0.01464,-0.01464,0.00976,0.10248,-0.03416,-0.02928,-0.01952,-0.01464
-0.05368,0.06344,-0.0732,-0.04636,-0.01952,-0.01708,0.00976,0.08296,-0.03416,-0.02928,-0.01952,-0.01464
-0.05856,0.06832,-0.07808,-0.0488,-0.01952,-0.01952,0.00976,0.0732,-0.03904,-0.03416,-0.0244,-0.01464
-0.05856,0.06832,-0.07808,-0.0488,-0.01952,-0.01952,0,0.07808,-0.03904,-0.03416,-0.0244,-0.01952
-0.04392,0.05368,-0.06344,-0.04148,-0.01952,-0.0122,0.00976,0.0732,-0.03416,-0.0244,-0.01952,-0.01952
-0.02928,0.04148,-0.05368,-0.03904,-0.0244,-0.00244,0.00976,0.07808,-0.03416,-0.0244,-0.01952,-0.01952
-0.01952,0.0244,-0.02928,-0.01952,-0.00976,-0.00488,0.02928,0.07808,-0.0244,-0.01464,0,-0.00976
-0.01952,0.0244,-0.02928,-0.01952,-0.00976,-0.00488,0.03416,0.08784,-0.0244,-0.01464,0,-0.00976
-0.0244,0.03172,-0.03904,-0.02684,-0.01464,-0.00488,0.02928,0.08784,-0.03416,-0.0244,-0.01464,-0.01952
-0.0244,0.04148,-0.05856,-0.04636,-0.03416,0.00488,0.02928,0.08296,-0.03416,-0.0244,-0.01464,-0.01952
-0.02928,0.05124,-0.0732,-0.05856,-0.04392,0.00732,0.02928,0.08296,-0.04392,-0.02928,-0.0244,-0.0244
-0.03416,0.05612,-0.07808,-0.061,-0.04392,0.00488,0.01952,0.08296,-0.04392,-0.02928,-0.0244,-0.0244
-0.02928,0.0488,-0.06832,-0.05368,-0.03904,0.00488,0.00976,0.08296,-0.03904,-0.0244,-0.01952,-0.01464
-0.03416,0.0488,-0.06344,-0.04636,-0.02928,-0.00244,0.00488,0.08296,-0.04392,-0.0244,-0.01952,-0.01952
-0.03416,0.0488,-0.06344,-0.04636,-0.02928,-0.00244,-0.00488,0.09272,-0.03416,-0.01464,-0.00976,-0.00976
-0.03416,0.04636,-0.05856,-0.04148,-0.0244,-0.00488,0,0.09272,-0.03416,-0.01952,-0.01464,-0.00488
-0.03416,0.04636,-0.05856,-0.04148,-0.0244,-0.00488,-0.00488,0.08296,-0.04392,-0.0244,-0.00976,-0.01464
-0.03904,0.05124,-0.06344,-0.04392,-0.0244,-0.00732,-0.01464,0.08784,-0.04392,-0.02928,-0.00976,-0.00976
-0.03904,0.05368,-0.06832,-0.0488,-0.02928,-0.00488,-0.0244,0.08784,-0.05368,-0.03904,-0.01952,-0.01952
-0.03904,0.05856,-0.07808,-0.05856,-0.03904,0,-0.0244,0.08784,-0.05368,-0.04392,-0.02928,-0.01952
-0.04392,0.05612,-0.06832,-0.04636,-0.0244,-0.00976,-0.03416,0.09272,-0.0488,-0.03416,-0.01952,-0.01952
-0.03904,0.05124,-0.06344,-0.04392,-0.0244,-0.00732,-0.02928,0.0976,-0.0488,-0.03416,-0.01952,-0.01952
-0.03904,0.04148,-0.04392,-0.0244,-0.00488,-0.01708,-0.02928,0.10736,-0.0488,-0.03416,-0.02928,-0.01952
-0.03904,0.04148,-0.04392,-0.0244,-0.00488,-0.01708,-0.03416,0.11224,-0.05368,-0.03416,-0.02928,-0.01952
-0.02928,0.04148,-0.05368,-0.03904,-0.0244,-0.00244,-0.0244,0.122,-0.04392,-0.03416,-0.02928,-0.01952
-0.01952,0.03416,-0.0488,-0.03904,-0.02928,0.00488,-0.0244,0.12688,-0.04392,-0.03416,-0.02928,-0.01952
-0.01952,0.03904,-0.05856,-0.0488,-0.03904,0.00976,-0.01464,0.122,-0.04392,-0.02928,-0.02928,-0.01952
-0.01952,0.0366,-0.05368,-0.04392,-0.03416,0.00732,-0.01952,0.122,-0.04392,-0.02928,-0.02928,-0.0244
-0.00976,0.02196,-0.03416,-0.02928,-0.0244,0.00732,-0.00976,0.13176,-0.04392,-0.02928,-0.02928,-0.01464
-0.00976,0.01708,-0.0244,-0.01952,-0.01464,0.00244,-0.00488,0.14152,-0.0488,-0.02928,-0.0244,-0.01464
-0.02928,0.0366,-0.04392,-0.02928,-0.01464,-0.00732,-0.00488,0.15128,-0.05856,-0.03416,-0.03416,-0.02928
-0.04392,0.0488,-0.05368,-0.03172,-0.00976,-0.01708,-0.00488,0.14152,-0.05856,-0.03416,-0.03416,-0.02928
-0.06832,0.0732,-0.07808,-0.04392,-0.00976,-0.02928,0.00488,0.15128,-0.06832,-0.04392,-0.03904,-0.03904
-0.07808,0.08296,-0.08784,-0.0488,-0.00976,-0.03416,0.00488,0.16104,-0.06832,-0.04392,-0.03904,-0.03904
-0.06832,0.0732,-0.07808,-0.04392,-0.00976,-0.02928,0,0.18544,-0.06832,-0.05368,-0.0488,-0.03904
-0.06344,0.07076,-0.07808,-0.04636,-0.01464,-0.0244,0,0.19032,-0.0732,-0.05368,-0.0488,-0.03904
-0.0732,0.07808,-0.08296,-0.04636,-0.00976,-0.03172,0,0.2196,-0.06344,-0.05856,-0.03904,-0.02928
-0.06832,0.07564,-0.08296,-0.0488,-0.01464,-0.02684,0,0.244,-0.06344,-0.05856,-0.04392,-0.03416
-0.06832,0.07564,-0.08296,-0.0488,-0.01464,-0.02684,-0.01464,0.2684,-0.05856,-0.0488,-0.04392,-0.03416
-0.0732,0.08052,-0.08784,-0.05124,-0.01464,-0.02928,-0.0244,0.27816,-0.05856,-0.0488,-0.04392,-0.03416
-0.06344,0.07076,-0.07808,-0.04636,-0.01464,-0.0244,-0.03904,0.2928,-0.06832,-0.0488,-0.04392,-0.03416
-0.06832,0.06832,-0.06832,-0.03416,0,-0.03416,-0.03904,0.30744,-0.06832,-0.0488,-0.04392,-0.02928
-0.05856,0.05856,-0.05856,-0.02928,0,-0.02928,-0.0488,0.30744,-0.06832,-0.05368,-0.04392,-0.03904
-0.0488,0.05124,-0.05368,-0.02928,-0.00488,-0.02196,-0.04392,0.30744,-0.06832,-0.05368,-0.04392,-0.03904
-0.05368,0.05124,-0.0488,-0.02196,0.00488,-0.02928,-0.02928,0.30256,-0.05856,-0.04392,-0.03416,-0.03416
-0.05368,0.05368,-0.05368,-0.02684,0,-0.02684,-0.01952,0.29768,-0.05856,-0.04392,-0.03416,-0.03416
-0.06344,0.061,-0.05856,-0.02684,0.00488,-0.03416,-0.00976,0.30744,-0.0488,-0.03416,-0.03416,-0.03416
-0.06344,0.061,-0.05856,-0.02684,0.00488,-0.03416,-0.00976,0.31232,-0.0488,-0.03416,-0.03416,-0.03416
-0.06832,0.06832,-0.06832,-0.03416,0,-0.03416,-0.00976,0.30744,-0.05856,-0.03904,-0.03904,-0.04392
-0.06832,0.0732,-0.07808,-0.04392,-0.00976,-0.02928,-0.00488,0.30744,-0.05856,-0.0488,-0.03904,-0.03904
-0.05856,0.06344,-0.06832,-0.03904,-0.00976,-0.0244,-0.00488,0.30256,-0.05856,-0.0488,-0.0488,-0.03904
-0.05856,0.06588,-0.0732,-0.04392,-0.01464,-0.02196,-0.00488,0.29768,-0.05856,-0.0488,-0.05368,-0.03904
-0.06832,0.06588,-0.06344,-0.02928,0.00488,-0.0366,0.00488,0.28792,-0.05856,-0.05856,-0.0488,-0.0488
-0.06344,0.05856,-0.05368,-0.02196,0.00976,-0.0366,0.00488,0.28304,-0.05856,-0.05856,-0.0488,-0.0488
-0.05368,0.04636,-0.03904,-0.0122,0.01464,-0.03416,0.00976,0.2684,-0.06832,-0.05856,-0.0488,-0.0488
-0.05368,0.04392,-0.03416,-0.00732,0.01952,-0.0366,0.00976,0.25864,-0.06832,-0.05856,-0.05368,-0.0488
-0.04392,0.04392,-0.04392,-0.02196,0,-0.02196,0.01952,0.24888,-0.0732,-0.05856,-0.04392,-0.05368
-0.04392,0.04636,-0.0488,-0.02684,-0.00488,-0.01952,0.0244,0.24888,-0.0732,-0.06344,-0.04392,-0.05368
-0.06832,0.0732,-0.07808,-0.04392,-0.00976,-0.02928,0.03416,0.22936,-0.06832,-0.06344,-0.05856,-0.05856
-0.07808,0.08296,-0.08784,-0.0488,-0.00976,-0.03416,0.03416,0.2196,-0.06832,-0.06832,-0.05856,-0.05856
-0.08784,0.09272,-0.0976,-0.05368,-0.00976,-0.03904,0.03904,0.20008,-0.07808,-0.06832,-0.05856,-0.05368
-0.0976,0.09272,-0.08784,-0.03904,0.00976,-0.05368,0.03904,0.20008,-0.06832,-0.05856,-0.05856,-0.05368
-0.08784,0.0854,-0.08296,-0.03904,0.00488,-0.04636,0.03904,0.18544,-0.07808,-0.06832,-0.06832,-0.05368
-0.08784,0.0854,-0.08296,-0.03904,0.00488,-0.04636,0.02928,0.16104,-0.07808,-0.06344,-0.06344,-0.05368
-0.0732,0.0732,-0.0732,-0.0366,0,-0.0366,0.03416,0.1464,-0.06832,-0.05368,-0.05856,-0.0488
-0.06344,0.06832,-0.0732,-0.04148,-0.00976,-0.02684,0.03416,0.14152,-0.06832,-0.05368,-0.05856,-0.0488
-0.0732,0.06832,-0.06344,-0.02684,0.00976,-0.04148,0.03416,0.13664,-0.06832,-0.05368,-0.05368,-0.05368
-0.0732,0.06832,-0.06344,-0.02684,0.00976,-0.04148,0.03416,0.13176,-0.06832,-0.05368,-0.05856,-0.05368
-0.06832,0.0732,-0.07808,-0.04392,-0.00976,-0.02928,0.03416,0.122,-0.07808,-0.06344,-0.06832,-0.05856
-0.0732,0.0732,-0.0732,-0.0366,0,-0.0366,0.02928,0.11712,-0.07808,-0.06344,-0.06832,-0.06344
-0.0732,0.07564,-0.07808,-0.04148,-0.00488,-0.03416,0.03416,0.0976,-0.07808,-0.06344,-0.05856,-0.05368
-0.0732,0.0732,-0.0732,-0.0366,0,-0.0366,0.03416,0.09272,-0.08296,-0.06344,-0.06344,-0.05368
-0.06344,0.061,-0.05856,-0.02684,0.00488,-0.03416,0.03416,0.09272,-0.0732,-0.06344,-0.06344,-0.05368
-0.06832,0.06344,-0.05856,-0.0244,0.00976,-0.03904,0.03904,0.08784,-0.06832,-0.05856,-0.05856,-0.0488
-0.06832,0.06344,-0.05856,-0.0244,0.00976,-0.03904,0.02928,0.07808,-0.06832,-0.05856,-0.06832,-0.0488
-0.06832,0.06344,-0.05856,-0.0244,0.00976,-0.03904,0.02928,0.07808,-0.06832,-0.05856,-0.06832,-0.0488
-0.06832,0.06832,-0.06832,-0.03416,0,-0.03416,0.02928,0.07808,-0.06832,-0.05856,-0.06832,-0.0488
-0.06832,0.0732,-0.07808,-0.04392,-0.00976,-0.02928,0.02928,0.07808,-0.06832,-0.05856,-0.06832,-0.0488
-0.07808,0.07808,-0.07808,-0.03904,0,-0.03904,0.02928,0.07808,-0.06832,-0.05856,-0.06832,-0.0488
-0.07808,0.07808,-0.07808,-0.03904,0,-0.03904,0.02928,0.07808,-0.06832,-0.05856,-0.06832,-0.0488
-0.07808,0.0732,-0.06832,-0.02928,0.00976,-0.04392,0.03904,0.08784,-0.05856,-0.05856,-0.06832,-0.0488
-0.07808,0.06832,-0.05856,-0.01952,0.01952,-0.0488,0.0488,0.08784,-0.05856,-0.05856,-0.06832,-0.0488
-0.07808,0.06832,-0.05856,-0.01952,0.01952,-0.0488,0.05856,0.0976,-0.05856,-0.0488,-0.06832,-0.0488
-0.07808,0.06832,-0.05856,-0.01952,0.01952,-0.0488,0.05856,0.0976,-0.05856,-0.0488,-0.06832,-0.0488
-0.07808,0.0732,-0.06832,-0.02928,0.00976,-0.04392,0.05856,0.08784,-0.05856,-0.0488,-0.05856,-0.03904
-0.07808,0.0732,-0.06832,-0.02928,0.00976,-0.04392,0.05856,0.08784,-0.05856,-0.0488,-0.05856,-0.03904
-0.07808,0.07808,-0.07808,-0.03904,0,-0.03904,0.0488,0.07808,-0.06832,-0.05856,-0.06832,-0.0488
-0.07808,0.08296,-0.08784,-0.0488,-0.00976,-0.03416,0.0488,0.07808,-0.06832,-0.05856,-0.06832,-0.0488
-0.08784,0.08784,-0.08784,-0.04392,0,-0.04392,0.03904,0.06832,-0.07808,-0.05856,-0.06832,-0.0488
-0.08784,0.08784,-0.08784,-0.04392,0,-0.04392,0.03904,0.05856,-0.07808,-0.05856,-0.06832,-0.0488
-0.08784,0.08296,-0.07808,-0.03416,0.00976,-0.0488,0.03904,0.0488,-0.07808,-0.06832,-0.07808,-0.05856
-0.08784,0.08296,-0.07808,-0.03416,0.00976,-0.0488,0.03904,0.0488,-0.07808,-0.06832,-0.07808,-0.05856
-0.0976,0.09272,-0.08784,-0.03904,0.00976,-0.05368,0.03904,0.03904,-0.06832,-0.05856,-0.06832,-0.0488
-0.0976,0.0976,-0.0976,-0.0488,0,-0.0488,0.03904,0.03904,-0.06832,-0.05856,-0.06832,-0.0488
-0.08784,0.08784,-0.08784,-0.04392,0,-0.04392,0.03904,0.02928,-0.06832,-0.05856,-0.07808,-0.0488
-0.07808,0.08296,-0.08784,-0.0488,-0.00976,-0.03416,0.03904,0.01952,-0.06832,-0.05856,-0.07808,-0.0488
-0.06832,0.0732,-0.07808,-0.04392,-0.00976,-0.02928,0.03904,0.01952,-0.06832,-0.05856,-0.06832,-0.0488
-0.06832,0.06832,-0.06832,-0.03416,0,-0.03416,0.03904,0.01952,-0.06832,-0.05856,-0.06832,-0.0488
-0.07808,0.0732,-0.06832,-0.02928,0.00976,-0.04392,0.03904,0.01952,-0.06832,-0.05856,-0.06832,-0.0488
-0.07808,0.0732,-0.06832,-0.02928,0.00976,-0.04392,0.03904,0.01952,-0.06832,-0.05856,-0.06832,-0.0488
-0.07808,0.0732,-0.06832,-0.02928,0.00976,-0.04392,0.02928,0.00976,-0.05856,-0.0488,-0.05856,-0.03904
-0.07808,0.0732,-0.06832,-0.02928,0.00976,-0.04392,0.01952,0.00976,-0.05856,-0.0488,-0.05856,-0.03904
-0.05856,0.05368,-0.0488,-0.01952,0.00976,-0.03416,0.01464,0.01464,-0.03904,-0.02928,-0.0488,-0.02928
-0.0488,0.03904,-0.02928,-0.00488,0.01952,-0.03416,0.01464,0.00488,-0.02928,-0.02928,-0.04392,-0.02928
-0.03416,0.03172,-0.02928,-0.0122,0.00488,-0.01952,0.00976,0,-0.0244,-0.01952,-0.03904,-0.0244
-0.02928,0.02684,-0.0244,-0.00976,0.00488,-0.01708,0.00488,0.00488,-0.0244,-0.00976,-0.03416,-0.01952
-0.02928,0.0244,-0.01952,-0.00488,0.00976,-0.01952,0.00488,0.01464,-0.00488,0,-0.03416,-0.01464
-0.02928,0.0244,-0.01952,-0.00488,0.00976,-0.01952,0,0.00976,0.00488,0.00976,-0.02928,-0.00488
-0.01952,0.01464,-0.00976,0,0.00976,-0.01464,-0.00488,0.01464,0.01464,0.00976,-0.00976,0.00488
-0.00488,0.00488,-0.00488,-0.00244,0,-0.00244,-0.00976,0.01464,0.01464,0.00976,-0.00976,0.00488
0,-0.00244,0.00488,0.00488,0.00488,-0.00244,-0.01952,0,0.00488,0.01464,0,0
0.00976,-0.00732,0.00488,0,-0.00488,0.00732,-0.01952,0.00488,0.00488,0.00976,0,0.00488
0.01464,-0.01464,0.01464,0.00732,0,0.00732,-0.02928,-0.01464,0.00488,0.00488,-0.00488,0.00488
0.01464,-0.01464,0.01464,0.00732,0,0.00732,-0.03904,-0.02928,-0.00488,0,-0.00488,0.00976
0.01464,-0.00732,0,-0.00732,-0.01464,0.01464,-0.0488,-0.03416,-0.00976,-0.00976,-0.01464,0
0.00488,0.00732,-0.01952,-0.02196,-0.0244,0.01464,-0.03416,-0.01952,-0.02928,-0.01952,-0.0244,-0.00976
-0.01464,0.02928,-0.04392,-0.0366,-0.02928,0.00732,-0.0244,-0.02928,-0.03904,-0.0244,-0.03904,-0.01952
-0.0244,0.04392,-0.06344,-0.05124,-0.03904,0.00732,-0.01464,-0.03904,-0.0488,-0.02928,-0.0488,-0.02928
-0.04392,0.05612,-0.06832,-0.04636,-0.0244,-0.00976,-0.00976,-0.03416,-0.06344,-0.0488,-0.0488,-0.03416
-0.0732,0.07564,-0.07808,-0.04148,-0.00488,-0.03416,0,-0.03416,-0.06344,-0.0488,-0.05368,-0.03416
-0.0732,0.07564,-0.07808,-0.04148,-0.00488,-0.03416,0.00488,-0.03904,-0.06832,-0.05856,-0.05368,-0.0488
-0.08296,0.07808,-0.0732,-0.03172,0.00976,-0.04636,0.01464,-0.05368,-0.06832,-0.06832,-0.05856,-0.05368
-0.07808,0.08052,-0.08296,-0.04392,-0.00488,-0.0366,0.01464,-0.05368,-0.0732,-0.05856,-0.06344,-0.0488
-0.0732,0.08052,-0.08784,-0.05124,-0.01464,-0.02928,0.01952,-0.04392,-0.0732,-0.05856,-0.06344,-0.0488
-0.06344,0.07564,-0.08784,-0.05612,-0.0244,-0.01952,0.03416,-0.03904,-0.06344,-0.06344,-0.06832,-0.05368
-0.06344,0.07564,-0.08784,-0.05612,-0.0244,-0.01952,0.03904,-0.03416,-0.06832,-0.06832,-0.0732,-0.05368
-0.06344,0.07564,-0.08784,-0.05612,-0.0244,-0.01952,0.03904,-0.0244,-0.06832,-0.06832,-0.06344,-0.05368
-0.06344,0.07564,-0.08784,-0.05612,-0.0244,-0.01952,0.03904,-0.01952,-0.06832,-0.0732,-0.06832,-0.05856
-0.07808,0.0854,-0.09272,-0.05368,-0.01464,-0.03172,0.03904,-0.03416,-0.0732,-0.0732,-0.06832,-0.05856
-0.08296,0.08784,-0.09272,-0.05124,-0.00976,-0.0366,0.03416,-0.03904,-0.0732,-0.0732,-0.06832,-0.05856
-0.08296,0.08296,-0.08296,-0.04148,0,-0.04148,0.03904,-0.03904,-0.08784,-0.07808,-0.08296,-0.06344
-0.08784,0.0854,-0.08296,-0.03904,0.00488,-0.04636,0.03904,-0.03904,-0.08784,-0.07808,-0.08296,-0.06344
-0.08784,0.08784,-0.08784,-0.04392,0,-0.04392,0.04392,-0.03904,-0.07808,-0.07808,-0.08296,-0.06344
-0.08296,0.0854,-0.08784,-0.04636,-0.00488,-0.03904,0.04392,-0.03904,-0.07808,-0.0732,-0.08296,-0.05856
-0.09272,0.09272,-0.09272,-0.04636,0,-0.04636,0.0488,-0.03904,-0.0732,-0.06344,-0.06832,-0.0488
-0.08784,0.09272,-0.0976,-0.05368,-0.00976,-0.03904,0.0488,-0.0244,-0.0732,-0.06344,-0.06832,-0.0488
-0.07808,0.08296,-0.08784,-0.0488,-0.00976,-0.03416,0.05368,-0.02928,-0.0732,-0.06344,-0.0732,-0.0488
-0.08784,0.09028,-0.09272,-0.0488,-0.00488,-0.04148,0.0488,-0.02928,-0.0732,-0.06344,-0.0732,-0.05368
-0.0976,0.09272,-0.08784,-0.03904,0.00976,-0.05368,0.0488,-0.0244,-0.06344,-0.06344,-0.0732,-0.05368
-0.10248,0.09516,-0.08784,-0.0366,0.01464,-0.05856,0.0488,-0.0244,-0.06344,-0.06344,-0.0732,-0.05856
-0.13664,0.12932,-0.122,-0.05368,0.01464,-0.07564,0.05368,-0.03416,-0.06832,-0.07808,-0.08784,-0.07808
-0.16104,0.1464,-0.13176,-0.05124,0.02928,-0.09516,0.06832,-0.03416,-0.07808,-0.08784,-0.10736,-0.10248
-0.1952,0.16104,-0.12688,-0.02928,0.06832,-0.13176,0.09272,-0.01952,-0.07808,-0.09272,-0.122,-0.12688
-0.2196,0.16836,-0.11712,-0.00732,0.10248,-0.16104,0.122,0.03416,-0.06832,-0.0976,-0.122,-0.12688
-0.19032,0.14884,-0.10736,-0.0122,0.08296,-0.13664,0.15128,0.08784,-0.03416,-0.06832,-0.09272,-0.11224
-0.0976,0.10736,-0.11712,-0.06832,-0.01952,-0.03904,0.15128,0.14152,0.03416,0.00976,-0.02928,-0.0488
0.05368,0.0244,-0.10248,-0.12932,-0.15616,0.10492,0.13176,0.20008,0.15128,0.11224,0.08296,0.05856
0.26352,-0.10004,-0.06344,-0.1952,-0.32696,0.29524,0.06832,0.24888,0.30256,0.27328,0.244,0.20984
0.5124,-0.26108,0.00976,-0.24644,-0.50264,0.50752,-0.05368,0.25376,0.45872,0.45384,0.4392,0.39528
0.7808,-0.44164,0.10248,-0.28792,-0.67832,0.72956,-0.1952,0.21472,0.5856,0.62952,0.6344,0.59536
1.00528,-0.61,0.21472,-0.28792,-0.79056,0.89792,-0.36112,0.09272,0.66368,0.77104,0.80032,0.7808
1.11752,-0.70516,0.2928,-0.26596,-0.82472,0.97112,-0.49288,-0.04392,0.62952,0.80032,0.8784,0.88328
1.0492,-0.66856,0.28792,-0.23668,-0.76128,0.90524,-0.54168,-0.20496,0.42456,0.64416,0.77104,0.84424
0.81984,-0.52948,0.23912,-0.1708,-0.58072,0.70028,-0.51728,-0.35624,0.0732,0.34648,0.55144,0.6832
0.48312,-0.30256,0.122,-0.11956,-0.36112,0.42212,-0.42456,-0.46848,-0.33672,-0.0244,0.23912,0.42944
0.16104,-0.08784,0.01464,-0.06588,-0.1464,0.15372,-0.2928,-0.5124,-0.63928,-0.31232,-0.03416,0.18544
-0.07808,0.07808,-0.07808,-0.03904,0,-0.03904,-0.15616,-0.47336,-0.77592,-0.47336,-0.20496,0.00488
-0.21472,0.18056,-0.1464,-0.03904,0.06832,-0.14152,-0.04392,-0.38552,-0.78568,-0.52216,-0.30256,-0.11712
-0.27328,0.22448,-0.17568,-0.03904,0.0976,-0.18544,0.05856,-0.28304,-0.73688,-0.52216,-0.34648,-0.19032
-0.27816,0.24644,-0.21472,-0.07564,0.06344,-0.1708,0.122,-0.19032,-0.65392,-0.49288,-0.34648,-0.22448
-0.2684,0.24156,-0.21472,-0.08052,0.05368,-0.16104,0.13664,-0.14152,-0.57096,-0.4392,-0.32696,-0.23424
-0.22936,0.22204,-0.21472,-0.10004,0.01464,-0.122,0.14152,-0.10736,-0.46848,-0.37088,-0.28304,-0.1952
-0.1952,0.20008,-0.20496,-0.10736,-0.00976,-0.09272,0.14152,-0.07808,-0.36112,-0.29768,-0.22936,-0.15128
-0.16104,0.16592,-0.1708,-0.09028,-0.00976,-0.07564,0.12688,-0.05856,-0.27328,-0.22448,-0.17568,-0.12688
-0.14152,0.14396,-0.1464,-0.07564,-0.00488,-0.06832,0.122,-0.05368,-0.1952,-0.1708,-0.13176,-0.08784
-0.122,0.12444,-0.12688,-0.06588,-0.00488,-0.05856,0.0976,-0.04392,-0.15616,-0.12688,-0.11224,-0.07808
-0.10736,0.1098,-0.11224,-0.05856,-0.00488,-0.05124,0.07808,-0.0488,-0.122,-0.0976,-0.09272,-0.06832
-0.11224,0.1098,-0.10736,-0.05124,0.00488,-0.05856,0.06832,-0.05368,-0.0976,-0.08296,-0.07808,-0.06344
-0.10736,0.10492,-0.10248,-0.0488,0.00488,-0.05612,0.06344,-0.03904,-0.07808,-0.07808,-0.0732,-0.06344
-0.10736,0.10248,-0.0976,-0.04392,0.00976,-0.05856,0.0488,-0.0488,-0.07808,-0.07808,-0.07808,-0.06344
-0.09272,0.09516,-0.0976,-0.05124,-0.00488,-0.04392,0.0488,-0.05368,-0.06344,-0.06832,-0.0732,-0.05856
-0.08296,0.08296,-0.08296,-0.04148,0,-0.04148,0.04392,-0.03904,-0.06344,-0.05856,-0.06832,-0.05368
-0.0732,0.07564,-0.07808,-0.04148,-0.00488,-0.03416,0.03416,-0.03904,-0.05368,-0.05368,-0.05856,-0.05368
-0.08296,0.07808,-0.0732,-0.03172,0.00976,-0.04636,0.02928,-0.0244,-0.03416,-0.03904,-0.0488,-0.03416
-0.07808,0.07564,-0.0732,-0.03416,0.00488,-0.04148,0.0244,-0.00976,-0.02928,-0.03416,-0.04392,-0.02928
-0.0976,0.09272,-0.08784,-0.03904,0.00976,-0.05368,0.01464,-0.01952,-0.02928,-0.03904,-0.04392,-0.03416
-0.10248,0.10004,-0.0976,-0.04636,0.00488,-0.05368,0.00488,-0.01952,-0.0244,-0.03416,-0.0488,-0.03416
-0.09272,0.09272,-0.09272,-0.04636,0,-0.04636,0.00488,-0.01464,-0.02928,-0.03416,-0.04392,-0.03904
-0.09272,0.09272,-0.09272,-0.04636,0,-0.04636,0.00976,-0.01464,-0.02928,-0.02928,-0.03904,-0.03416
-0.07808,0.07808,-0.07808,-0.03904,0,-0.03904,0.01464,-0.0244,-0.0244,-0.02928,-0.03904,-0.02928
-0.07808,0.0732,-0.06832,-0.02928,0.00976,-0.04392,0.01464,-0.02928,-0.0244,-0.02928,-0.03416,-0.0244
-0.06832,0.07076,-0.0732,-0.03904,-0.00488,-0.03172,0.01952,-0.03904,-0.01464,-0.01952,-0.0244,-0.03416
-0.06832,0.07076,-0.0732,-0.03904,-0.00488,-0.03172,0.01952,-0.04392,-0.01464,-0.01952,-0.0244,-0.03416
-0.05856,0.061,-0.06344,-0.03416,-0.00488,-0.02684,0.0244,-0.0488,0,-0.01464,-0.02928,-0.0244
-0.05856,0.05612,-0.05368,-0.0244,0.00488,-0.03172,0.01952,-0.05368,0.00488,-0.00976,-0.0244,-0.01952
-0.05856,0.05124,-0.04392,-0.01464,0.01464,-0.0366,0.01952,-0.05368,0.00488,-0.00488,-0.01952,-0.01464
-0.05856,0.04636,-0.03416,-0.00488,0.0244,-0.04148,0.0244,-0.05368,0.00976,-0.00488,-0.01952,-0.01464
-0.05368,0.0488,-0.04392,-0.01708,0.00976,-0.03172,0.01464,-0.06344,0.00976,-0.00488,-0.01952,-0.01464
-0.0488,0.05124,-0.05368,-0.02928,-0.00488,-0.02196,0.01464,-0.0732,0.00976,-0.00488,-0.01952,-0.01464
-0.04392,0.0488,-0.05368,-0.03172,-0.00976,-0.01708,-0.00488,-0.08784,0.00488,-0.00488,-0.02928,-0.01952
-0.04392,0.0488,-0.05368,-0.03172,-0.00976,-0.01708,-0.00976,-0.08784,0.00488,-0.00488,-0.0244,-0.01952
-0.05368,0.05612,-0.05856,-0.03172,-0.00488,-0.0244,-0.0244,-0.10248,0.00488,-0.00976,-0.0244,-0.0244
-0.05856,0.061,-0.06344,-0.03416,-0.00488,-0.02684,-0.02928,-0.11712,0.00976,-0.00976,-0.01952,-0.01952
-0.05368,0.05612,-0.05856,-0.03172,-0.00488,-0.0244,-0.0244,-0.10736,0.00976,0.00488,-0.00976,-0.00488
-0.05368,0.05612,-0.05856,-0.03172,-0.00488,-0.0244,-0.02928,-0.11224,0.01464,0.00976,0,-0.00488
-0.02928,0.03416,-0.03904,-0.0244,-0.00976,-0.00976,-0.01464,-0.09272,0.02928,0.02928,0.00976,0.00488
-0.01952,0.0244,-0.02928,-0.01952,-0.00976,-0.00488,-0.01464,-0.10248,0.03416,0.03416,0.01464,0.01952
-0.01952,0.01708,-0.01464,-0.00488,0.00488,-0.0122,-0.01464,-0.0976,0.03904,0.02928,0.01464,0.02928
-0.01464,0.01464,-0.01464,-0.00732,0,-0.00732,-0.01464,-0.08784,0.03904,0.02928,0.0244,0.03416
-0.01952,0.02196,-0.0244,-0.01464,-0.00488,-0.00732,-0.01952,-0.07808,0.04392,0.03416,0.01952,0.02928
-0.0244,0.02196,-0.01952,-0.00732,0.00488,-0.01464,-0.01952,-0.06832,0.0488,0.03416,0.01952,0.02928
-0.01952,0.0244,-0.02928,-0.01952,-0.00976,-0.00488,-0.01952,-0.0732,0.05368,0.03904,0.03416,0.03416
-0.02928,0.02684,-0.0244,-0.00976,0.00488,-0.01708,-0.0244,-0.05368,0.06344,0.04392,0.04392,0.04392
-0.01464,0.02196,-0.02928,-0.02196,-0.01464,0,-0.02928,-0.03904,0.06344,0.0488,0.03416,0.03416
-0.00976,0.01708,-0.0244,-0.01952,-0.01464,0.00244,-0.03904,-0.0488,0.07808,0.05368,0.04392,0.04392
0,0.00976,-0.01952,-0.01952,-0.01952,0.00976,-0.02928,-0.0488,0.0732,0.06832,0.05368,0.05368
0.00488,0.00976,-0.0244,-0.02684,-0.02928,0.01708,-0.02928,-0.04392,0.08296,0.0732,0.05856,0.05856
0.0244,-0.00488,-0.01464,-0.02684,-0.03904,0.03172,-0.0244,-0.03416,0.08784,0.08296,0.07808,0.06344
0.04392,-0.02196,0,-0.02196,-0.04392,0.04392,-0.01952,-0.02928,0.09272,0.09272,0.08784,0.0732
0.05368,-0.04148,0.02928,0.00244,-0.0244,0.03904,-0.02928,-0.00488,0.10736,0.11224,0.10248,0.09272
0.06832,-0.05124,0.03416,0,-0.03416,0.05124,-0.03416,0,0.12688,0.11712,0.11712,0.10248
0.08296,-0.06832,0.05368,0.0122,-0.02928,0.05612,-0.05368,0.00976,0.14152,0.14152,0.122,0.11712
0.10248,-0.08052,0.05856,0.00732,-0.04392,0.0732,-0.05368,0.00976,0.15616,0.15128,0.13176,0.13176
0.13176,-0.10248,0.0732,0.00732,-0.05856,0.09516,-0.06832,0.01464,0.16592,0.16592,0.15128,0.1464
0.16104,-0.12688,0.09272,0.0122,-0.06832,0.11468,-0.08296,0.0488,0.18056,0.17568,0.16592,0.16592
0.16592,-0.13176,0.0976,0.01464,-0.06832,0.11712,-0.07808,0.03904,0.20008,0.1952,0.1952,0.18056
0.18544,-0.14396,0.10248,0.00976,-0.08296,0.1342,-0.08784,0.03416,0.20496,0.20008,0.20496,0.19032
0.18056,-0.13908,0.0976,0.00732,-0.08296,0.13176,-0.09272,0.03416,0.21472,0.2196,0.22448,0.20984
0.20008,-0.1464,0.09272,-0.00732,-0.10736,0.15372,-0.10248,0.03416,0.21472,0.22448,0.23424,0.2196
0.20496,-0.15128,0.0976,-0.00488,-0.10736,0.15616,-0.11712,0.03904,0.23424,0.23912,0.244,0.23424
0.2196,-0.16104,0.10248,-0.00732,-0.11712,0.16836,-0.122,0.03416,0.23424,0.244,0.25376,0.244
0.23912,-0.18056,0.122,0.00244,-0.11712,0.17812,-0.14152,0.04392,0.244,0.25376,0.26352,0.24888
0.24888,-0.19032,0.13176,0.00732,-0.11712,0.183,-0.15616,0.05368,0.244,0.26352,0.27816,0.2684
0.26352,-0.20008,0.13664,0.00488,-0.12688,0.1952,-0.1708,0.0732,0.24888,0.25864,0.27816,0.2684
0.2684,-0.20252,0.13664,0.00244,-0.13176,0.20008,-0.19032,0.09272,0.24888,0.25864,0.27816,0.2684
0.26352,-0.19764,0.13176,0,-0.13176,0.19764,-0.20496,0.10248,0.244,0.2684,0.28304,0.27816
0.26352,-0.20008,0.13664,0.00488,-0.12688,0.1952,-0.21472,0.09272,0.24888,0.2684,0.28304,0.27816
0.25376,-0.19032,0.12688,0,-0.12688,0.19032,-0.22448,0.10248,0.23424,0.2684,0.28304,0.27328
0.24888,-0.183,0.11712,-0.00732,-0.13176,0.19032,-0.22936,0.10248,0.22448,0.25864,0.2684,0.2684
0.244,-0.18056,0.11712,-0.00488,-0.12688,0.18544,-0.2196,0.11712,0.2196,0.23912,0.25864,0.25864
0.22448,-0.16836,0.11224,0,-0.11224,0.16836,-0.21472,0.12688,0.20984,0.22448,0.23912,0.23912
0.20984,-0.15616,0.10248,-0.00244,-0.10736,0.1586,-0.2196,0.13664,0.18056,0.1952,0.20984,0.20984
0.18056,-0.13664,0.09272,0.00244,-0.08784,0.1342,-0.2196,0.13664,0.1708,0.18056,0.1952,0.19032
0.15128,-0.1098,0.06832,-0.00732,-0.08296,0.11712,-0.20496,0.13664,0.14152,0.16104,0.17568,0.16592
0.13176,-0.0976,0.06344,-0.00244,-0.06832,0.10004,-0.19032,0.12688,0.122,0.14152,0.15616,0.1464
0.10736,-0.08052,0.05368,0,-0.05368,0.08052,-0.17568,0.12688,0.10736,0.11712,0.12688,0.122
0.09272,-0.05856,0.0244,-0.02196,-0.06832,0.08052,-0.1464,0.11712,0.08784,0.0976,0.11224,0.10248
0.0732,-0.04636,0.01952,-0.01708,-0.05368,0.06344,-0.13664,0.10736,0.06344,0.0732,0.08296,0.08296
0.0488,-0.02928,0.00976,-0.01464,-0.03904,0.04392,-0.122,0.10248,0.05368,0.0488,0.05368,0.06344
0.02928,-0.00976,-0.00976,-0.0244,-0.03904,0.03416,-0.10248,0.11224,0.04392,0.03416,0.0488,0.0488
0.00976,0.00488,-0.01952,-0.0244,-0.02928,0.01952,-0.08784,0.10736,0.02928,0.01952,0.02928,0.03416
-0.00976,0.01952,-0.02928,-0.0244,-0.01952,0.00488,-0.08296,0.0976,0.0244,0.00976,0.01952,0.0244
-0.03416,0.03904,-0.04392,-0.02684,-0.00976,-0.0122,-0.0732,0.0976,0.01952,0,0.00976,0.01952
-0.03904,0.0488,-0.05856,-0.03904,-0.01952,-0.00976,-0.07808,0.08296,-0.00488,-0.01952,-0.00488,0
-0.0488,0.05856,-0.06832,-0.04392,-0.01952,-0.01464,-0.0732,0.07808,-0.0244,-0.01952,-0.0244,-0.0244
-0.05368,0.05856,-0.06344,-0.0366,-0.00976,-0.02196,-0.0732,0.06832,-0.02928,-0.04392,-0.03904,-0.02928
-0.06344,0.06344,-0.06344,-0.03172,0,-0.03172,-0.0732,0.05368,-0.03416,-0.04392,-0.03904,-0.02928
-0.05368,0.05612,-0.05856,-0.03172,-0.00488,-0.0244,-0.07808,0.04392,-0.03416,-0.05368,-0.04392,-0.02928
-0.05368,0.05612,-0.05856,-0.03172,-0.00488,-0.0244,-0.07808,0.03416,-0.03416,-0.05368,-0.0488,-0.02928
-0.05368,0.05856,-0.06344,-0.0366,-0.00976,-0.02196,-0.0732,0.03416,-0.03416,-0.05368,-0.0488,-0.02928
-0.05368,0.061,-0.06832,-0.04148,-0.01464,-0.01952,-0.06832,0.03416,-0.03904,-0.05368,-0.0488,-0.03416
-0.05856,0.06588,-0.0732,-0.04392,-0.01464,-0.02196,-0.07808,0.02928,-0.03416,-0.05856,-0.05368,-0.0244
-0.06344,0.06832,-0.0732,-0.04148,-0.00976,-0.02684,-0.0732,0.02928,-0.03416,-0.06344,-0.05856,-0.03416
-0.05856,0.05612,-0.05368,-0.0244,0.00488,-0.03172,-0.0732,0.03416,-0.03904,-0.05368,-0.05368,-0.03904
-0.05856,0.05612,-0.05368,-0.0244,0.00488,-0.03172,-0.0732,0.04392,-0.03904,-0.05368,-0.05368,-0.03904
-0.05856,0.05856,-0.05856,-0.02928,0,-0.02928,-0.07808,0.05856,-0.02928,-0.04392,-0.04392,-0.02928
-0.05856,0.05612,-0.05368,-0.0244,0.00488,-0.03172,-0.08784,0.07808,-0.02928,-0.04392,-0.03416,-0.02928
-0.0488,0.04636,-0.04392,-0.01952,0.00488,-0.02684,-0.0976,0.0976,-0.03904,-0.04392,-0.03416,-0.02928
-0.05368,0.05124,-0.0488,-0.02196,0.00488,-0.02928,-0.10736,0.122,-0.03416,-0.03904,-0.02928,-0.0244
-0.04392,0.04148,-0.03904,-0.01708,0.00488,-0.0244,-0.1464,0.1708,-0.03416,-0.0488,-0.03904,-0.03416
-0.03416,0.03416,-0.03416,-0.01708,0,-0.01708,-0.17568,0.2196,-0.03416,-0.0488,-0.03904,-0.03416
-0.05856,0.05856,-0.05856,-0.02928,0,-0.02928,-0.23424,0.30744,-0.03904,-0.05368,-0.04392,-0.03416
-0.06832,0.06832,-0.06832,-0.03416,0,-0.03416,-0.2928,0.40016,-0.03904,-0.05368,-0.04392,-0.03904
-0.08296,0.08296,-0.08296,-0.04148,0,-0.04148,-0.33184,0.48312,-0.03416,-0.05368,-0.0488,-0.02928
-0.07808,0.08052,-0.08296,-0.04392,-0.00488,-0.0366,-0.36112,0.55632,-0.03416,-0.05368,-0.0488,-0.02928
-0.06832,0.06344,-0.05856,-0.0244,0.00976,-0.03904,-0.38064,0.5856,-0.04392,-0.05368,-0.0488,-0.03904
-0.06832,0.06344,-0.05856,-0.0244,0.00976,-0.03904,-0.39528,0.61488,-0.04392,-0.05368,-0.0488,-0.03904
-0.0732,0.06588,-0.05856,-0.02196,0.01464,-0.04392,-0.38064,0.57584,-0.05368,-0.06344,-0.05368,-0.0488
-0.0732,0.07076,-0.06832,-0.03172,0.00488,-0.03904,-0.37088,0.54168,-0.05368,-0.06344,-0.05368,-0.0488
-0.07808,0.07076,-0.06344,-0.0244,0.01464,-0.04636,-0.33184,0.47336,-0.05368,-0.05856,-0.05368,-0.05368
-0.08296,0.07564,-0.06832,-0.02684,0.01464,-0.0488,-0.30256,0.42456,-0.05368,-0.05856,-0.05368,-0.05368
-0.07808,0.0732,-0.06832,-0.02928,0.00976,-0.04392,-0.27328,0.366,-0.0488,-0.06344,-0.05856,-0.04392
-0.08296,0.0732,-0.06344,-0.02196,0.01952,-0.05124,-0.24888,0.30744,-0.05368,-0.06344,-0.05856,-0.0488
-0.0732,0.0732,-0.0732,-0.0366,0,-0.0366,-0.22936,0.2684,-0.06344,-0.06344,-0.05856,-0.0488
-0.0732,0.07076,-0.06832,-0.03172,0.00488,-0.03904,-0.20496,0.22936,-0.06344,-0.06832,-0.06344,-0.05368
-0.0732,0.06588,-0.05856,-0.02196,0.01464,-0.04392,-0.18056,0.19032,-0.05368,-0.06344,-0.05856,-0.04392
-0.07808,0.07076,-0.06344,-0.0244,0.01464,-0.04636,-0.1708,0.16592,-0.05368,-0.06832,-0.05856,-0.03904
-0.07808,0.0732,-0.06832,-0.02928,0.00976,-0.04392,-0.16104,0.12688,-0.05368,-0.06832,-0.05856,-0.0488
-0.07808,0.0732,-0.06832,-0.02928,0.00976,-0.04392,-0.15128,0.10736,-0.05368,-0.0732,-0.05856,-0.03904
-0.06344,0.06588,-0.06832,-0.0366,-0.00488,-0.02928,-0.14152,0.08296,-0.05856,-0.0732,-0.05856,-0.0488
-0.0488,0.05612,-0.06344,-0.03904,-0.01464,-0.01708,-0.13664,0.05856,-0.05856,-0.0732,-0.05856,-0.0488
-0.03904,0.04148,-0.04392,-0.0244,-0.00488,-0.01708,-0.12688,0.03904,-0.05856,-0.0732,-0.05856,-0.0488
-0.03904,0.04148,-0.04392,-0.0244,-0.00488,-0.01708,-0.122,0.0244,-0.06344,-0.0732,-0.05856,-0.0488
-0.0488,0.05612,-0.06344,-0.03904,-0.01464,-0.01708,-0.11224,0.01464,-0.06344,-0.0732,-0.0488,-0.0488
-0.0488,0.05368,-0.05856,-0.03416,-0.00976,-0.01952,-0.10248,0,-0.06344,-0.0732,-0.0488,-0.0488
-0.0488,0.05368,-0.05856,-0.03416,-0.00976,-0.01952,-0.09272,-0.01464,-0.05368,-0.06832,-0.0488,-0.03904
-0.0488,0.05124,-0.05368,-0.02928,-0.00488,-0.02196,-0.08784,-0.0244,-0.05368,-0.05856,-0.0488,-0.04392
-0.0488,0.05124,-0.05368,-0.02928,-0.00488,-0.02196,-0.08784,-0.04392,-0.06344,-0.06832,-0.05856,-0.05368
-0.0488,0.05124,-0.05368,-0.02928,-0.00488,-0.02196,-0.08296,-0.05368,-0.06832,-0.06832,-0.05368,-0.05368
-0.05856,0.06588,-0.0732,-0.04392,-0.01464,-0.02196,-0.0732,-0.06344,-0.07808,-0.08296,-0.06344,-0.05856
-0.06344,0.06832,-0.0732,-0.04148,-0.00976,-0.02684,-0.0732,-0.08296,-0.07808,-0.08296,-0.0732,-0.05856
-0.07808,0.0732,-0.06832,-0.02928,0.00976,-0.04392,-0.0732,-0.09272,-0.06832,-0.08296,-0.06832,-0.06832
-0.07808,0.0732,-0.06832,-0.02928,0.00976,-0.04392,-0.0732,-0.09272,-0.06832,-0.08296,-0.06832,-0.06832
-0.08784,0.08296,-0.07808,-0.03416,0.00976,-0.0488,-0.05856,-0.0976,-0.06832,-0.08296,-0.06832,-0.06832
-0.08296,0.08052,-0.07808,-0.0366,0.00488,-0.04392,-0.05856,-0.11224,-0.0732,-0.08296,-0.06832,-0.06832
-0.0732,0.0732,-0.0732,-0.0366,0,-0.0366,-0.06832,-0.122,-0.08296,-0.08784,-0.06832,-0.06832
-0.06832,0.07076,-0.0732,-0.03904,-0.00488,-0.03172,-0.06832,-0.12688,-0.08296,-0.08784,-0.0732,-0.0732
-0.05856,0.06588,-0.0732,-0.04392,-0.01464,-0.02196,-0.06344,-0.13176,-0.07808,-0.08784,-0.0732,-0.06344
-0.06344,0.07076,-0.07808,-0.04636,-0.01464,-0.0244,-0.05368,-0.14152,-0.07808,-0.08784,-0.0732,-0.06344
-0.05368,0.061,-0.06832,-0.04148,-0.01464,-0.01952,-0.05856,-0.1464,-0.06832,-0.07808,-0.06344,-0.05368
-0.0488,0.05856,-0.06832,-0.04392,-0.01952,-0.01464,-0.0488,-0.15128,-0.06832,-0.07808,-0.06344,-0.0488
-0.0488,0.05368,-0.05856,-0.03416,-0.00976,-0.01952,-0.05856,-0.15128,-0.06832,-0.08296,-0.06344,-0.05856
-0.0488,0.04636,-0.04392,-0.01952,0.00488,-0.02684,-0.06344,-0.15128,-0.06832,-0.08296,-0.06344,-0.05856
-0.06344,0.05612,-0.0488,-0.01708,0.01464,-0.03904,-0.05856,-0.15616,-0.07808,-0.08296,-0.0732,-0.06344
-0.06344,0.05856,-0.05368,-0.02196,0.00976,-0.0366,-0.05856,-0.16104,-0.07808,-0.08296,-0.0732,-0.06344
-0.05368,0.05612,-0.05856,-0.03172,-0.00488,-0.0244,-0.05856,-0.15128,-0.08784,-0.08296,-0.0732,-0.0732
-0.05368,0.05612,-0.05856,-0.03172,-0.00488,-0.0244,-0.05856,-0.1464,-0.08784,-0.08296,-0.0732,-0.0732
-0.03904,0.04392,-0.0488,-0.02928,-0.00976,-0.01464,-0.05856,-0.14152,-0.07808,-0.07808,-0.06832,-0.06344
-0.03904,0.04392,-0.0488,-0.02928,-0.00976,-0.01464,-0.05368,-0.13176,-0.07808,-0.07808,-0.06832,-0.05856
-0.03904,0.03904,-0.03904,-0.01952,0,-0.01952,-0.04392,-0.13664,-0.07808,-0.07808,-0.06832,-0.05856
-0.03904,0.04148,-0.04392,-0.0244,-0.00488,-0.01708,-0.04392,-0.13176,-0.07808,-0.07808,-0.0732,-0.05856
-0.0488,0.05124,-0.05368,-0.02928,-0.00488,-0.02196,-0.05368,-0.14152,-0.07808,-0.08784,-0.07808,-0.05856
-0.05368,0.0488,-0.04392,-0.01708,0.00976,-0.03172,-0.05368,-0.1464,-0.07808,-0.08784,-0.07808,-0.05856
-0.05368,0.04636,-0.03904,-0.0122,0.01464,-0.03416,-0.05856,-0.15128,-0.07808,-0.07808,-0.06832,-0.0488
-0.05368,0.04392,-0.03416,-0.00732,0.01952,-0.0366,-0.05856,-0.15128,-0.07808,-0.07808,-0.0732,-0.0488
-0.04392,0.04392,-0.04392,-0.02196,0,-0.02196,-0.06832,-0.16104,-0.08296,-0.07808,-0.0732,-0.05368
-0.05368,0.05124,-0.0488,-0.02196,0.00488,-0.02928,-0.06344,-0.16104,-0.08296,-0.08296,-0.0732,-0.05368
-0.06832,0.06832,-0.06832,-0.03416,0,-0.03416,-0.06344,-0.16104,-0.08784,-0.09272,-0.07808,-0.05856
-0.07808,0.07808,-0.07808,-0.03904,0,-0.03904,-0.06344,-0.16104,-0.08784,-0.0976,-0.07808,-0.05856
-0.06832,0.0732,-0.07808,-0.04392,-0.00976,-0.02928,-0.06832,-0.15128,-0.0976,-0.0976,-0.08784,-0.06344
-0.05856,0.06344,-0.06832,-0.03904,-0.00976,-0.0244,-0.06832,-0.14152,-0.08784,-0.08784,-0.08784,-0.06344
-0.03904,0.04636,-0.05368,-0.03416,-0.01464,-0.0122,-0.07808,-0.1464,-0.08784,-0.0976,-0.08784,-0.05368
-0.03904,0.04148,-0.04392,-0.0244,-0.00488,-0.01708,-0.08784,-0.15128,-0.08784,-0.09272,-0.08296,-0.05368
-0.04392,0.0488,-0.05368,-0.03172,-0.00976,-0.01708,-0.08296,-0.16592,-0.08784,-0.09272,-0.08784,-0.0488
-0.04392,0.0488,-0.05368,-0.03172,-0.00976,-0.01708,-0.08296,-0.1708,-0.08784,-0.09272,-0.08784,-0.0488
-0.06344,0.05368,-0.04392,-0.0122,0.01952,-0.04148,-0.08296,-0.18544,-0.07808,-0.09272,-0.08296,-0.04392
-0.06344,0.05368,-0.04392,-0.0122,0.01952,-0.04148,-0.0732,-0.19032,-0.07808,-0.09272,-0.08784,-0.04392
-0.05856,0.05368,-0.0488,-0.01952,0.00976,-0.03416,-0.06344,-0.20008,-0.07808,-0.08296,-0.07808,-0.0488
-0.06344,0.05368,-0.04392,-0.0122,0.01952,-0.04148,-0.06832,-0.20496,-0.07808,-0.08296,-0.07808,-0.05368
-0.05368,0.05612,-0.05856,-0.03172,-0.00488,-0.0244,-0.06344,-0.22448,-0.07808,-0.08296,-0.07808,-0.05368
-0.05368,0.05368,-0.05368,-0.02684,0,-0.02684,-0.06344,-0.22936,-0.08296,-0.08296,-0.08296,-0.05368
-0.05368,0.05612,-0.05856,-0.03172,-0.00488,-0.0244,-0.05368,-0.2196,-0.08296,-0.08296,-0.08296,-0.05368
-0.05856,0.05856,-0.05856,-0.02928,0,-0.02928,-0.05856,-0.21472,-0.08784,-0.08784,-0.08784,-0.05856
-0.05856,0.05368,-0.0488,-0.01952,0.00976,-0.03416,-0.0488,-0.20496,-0.08784,-0.08784,-0.07808,-0.05856
-0.05856,0.05368,-0.0488,-0.01952,0.00976,-0.03416,-0.0488,-0.20496,-0.08784,-0.08784,-0.07808,-0.05856
-0.05856,0.05368,-0.0488,-0.01952,0.00976,-0.03416,-0.03904,-0.1952,-0.07808,-0.08784,-0.07808,-0.0488
-0.05856,0.05368,-0.0488,-0.01952,0.00976,-0.03416,-0.02928,-0.18544,-0.07808,-0.08784,-0.07808,-0.0488
-0.05856,0.05368,-0.0488,-0.01952,0.00976,-0.03416,-0.01952,-0.16592,-0.06832,-0.08784,-0.07808,-0.0488
-0.05856,0.05368,-0.0488,-0.01952,0.00976,-0.03416,-0.01952,-0.15616,-0.06832,-0.08784,-0.07808,-0.0488
-0.05856,0.05368,-0.0488,-0.01952,0.00976,-0.03416,-0.00976,-0.1464,-0.07808,-0.08784,-0.08784,-0.0488
-0.05856,0.05368,-0.0488,-0.01952,0.00976,-0.03416,0,-0.1464,-0.07808,-0.08784,-0.08784,-0.0488
-0.0488,0.0488,-0.0488,-0.0244,0,-0.0244,0,-0.13664,-0.08784,-0.08784,-0.07808,-0.0488
-0.0488,0.0488,-0.0488,-0.0244,0,-0.0244,0,-0.13664,-0.08784,-0.08784,-0.07808,-0.0488
-0.03904,0.03904,-0.03904,-0.01952,0,-0.01952,0,-0.11712,-0.08784,-0.08784,-0.07808,-0.0488
-0.03904,0.03416,-0.02928,-0.00976,0.00976,-0.0244,0,-0.10736,-0.08784,-0.08784,-0.07808,-0.0488
-0.0488,0.04392,-0.03904,-0.01464,0.00976,-0.02928,-0.01952,-0.08784,-0.08784,-0.08784,-0.07808,-0.0488
-0.0488,0.0488,-0.0488,-0.0244,0,-0.0244,-0.02928,-0.07808,-0.08784,-0.08784,-0.07808,-0.0488
-0.05856,0.05856,-0.05856,-0.02928,0,-0.02928,-0.03904,-0.08784,-0.08784,-0.08784,-0.07808,-0.0488
-0.05856,0.05856,-0.05856,-0.02928,0,-0.02928,-0.0488,-0.08784,-0.08784,-0.08784,-0.07808,-0.0488
-0.05856,0.05368,-0.0488,-0.01952,0.00976,-0.03416,-0.05856,-0.10736,-0.08784,-0.0976,-0.08784,-0.05856
-0.05856,0.05368,-0.0488,-0.01952,0.00976,-0.03416,-0.05856,-0.12688,-0.08784,-0.0976,-0.08784,-0.05856
-0.05856,0.05368,-0.0488,-0.01952,0.00976,-0.03416,-0.0488,-0.13664,-0.08784,-0.0976,-0.08784,-0.05856
-0.05856,0.05368,-0.0488,-0.01952,0.00976,-0.03416,-0.0488,-0.1464,-0.08784,-0.0976,-0.08784,-0.05856
-0.0488,0.04392,-0.03904,-0.01464,0.00976,-0.02928,-0.0488,-0.15616,-0.07808,-0.08784,-0.07808,-0.05856
-0.0488,0.04392,-0.03904,-0.01464,0.00976,-0.02928,-0.0488,-0.15616,-0.07808,-0.08784,-0.07808,-0.05856
-0.03904,0.03416,-0.02928,-0.00976,0.00976,-0.0244,-0.0488,-0.1464,-0.07808,-0.07808,-0.06832,-0.0488
-0.03904,0.03416,-0.02928,-0.00976,0.00976,-0.0244,-0.0488,-0.1464,-0.07808,-0.07808,-0.06832,-0.0488
-0.0488,0.04392,-0.03904,-0.01464,0.00976,-0.02928,-0.0488,-0.13664,-0.08784,-0.08784,-0.07808,-0.05856
-0.0488,0.0488,-0.0488,-0.0244,0,-0.0244,-0.0488,-0.13664,-0.08784,-0.08784,-0.07808,-0.05856
-0.0488,0.0488,-0.0488,-0.0244,0,-0.0244,-0.0488,-0.12688,-0.08784,-0.08784,-0.07808,-0.0488
-0.0488,0.0488,-0.0488,-0.0244,0,-0.0244,-0.0488,-0.11712,-0.08784,-0.08784,-0.07808,-0.0488
-0.03904,0.03416,-0.02928,-0.00976,0.00976,-0.0244,-0.03904,-0.10736,-0.06832,-0.07808,-0.05856,-0.03904
-0.02928,0.01952,-0.00976,0.00488,0.01952,-0.0244,-0.04392,-0.11224,-0.0488,-0.06832,-0.0488,-0.02928
-0.01952,0.00976,0,0.00976,0.01952,-0.01952,-0.03416,-0.10248,-0.02928,-0.05856,-0.04392,-0.01952
-0.01464,0.00732,0,0.00732,0.01464,-0.01464,-0.0488,-0.11712,-0.0244,-0.05856,-0.03904,-0.01464
-0.00976,0.00244,0.00488,0.00976,0.01464,-0.0122,-0.05368,-0.11224,-0.0244,-0.0488,-0.04392,-0.00976
0,-0.00976,0.01952,0.01952,0.01952,-0.00976,-0.06344,-0.10248,-0.01464,-0.03904,-0.03416,-0.00488
0.01952,-0.02928,0.03904,0.02928,0.01952,0,-0.06832,-0.10736,-0.01464,-0.02928,-0.01952,0.00488
0.02928,-0.03904,0.0488,0.03416,0.01952,0.00488,-0.08296,-0.10248,-0.00488,-0.01952,-0.00976,0.01464
0.04392,-0.0488,0.05368,0.03172,0.00976,0.01708,-0.08784,-0.10248,-0.00488,-0.01952,-0.01952,0.00488
0.0488,-0.05612,0.06344,0.03904,0.01464,0.01708,-0.0976,-0.10736,-0.00488,-0.01464,-0.00976,0.00976
0.0488,-0.05612,0.06344,0.03904,0.01464,0.01708,-0.10736,-0.10248,-0.01464,-0.02928,-0.01952,0.01464
0.06344,-0.06832,0.0732,0.04148,0.00976,0.02684,-0.10736,-0.10248,-0.01464,-0.0244,-0.01464,0.01464
0.06344,-0.06344,0.06344,0.03172,0,0.03172,-0.0976,-0.08784,-0.0244,-0.02928,-0.01464,0.01952
0.05368,-0.05124,0.0488,0.02196,-0.00488,0.02928,-0.0976,-0.08296,-0.02928,-0.03904,-0.0244,0.00976
0.03416,-0.02684,0.01952,0.00244,-0.01464,0.0244,-0.08296,-0.07808,-0.03904,-0.0488,-0.03416,0
0.0244,-0.00976,-0.00488,-0.01708,-0.02928,0.02684,-0.0732,-0.06832,-0.0488,-0.06344,-0.0488,-0.00976
0.01464,0.00488,-0.0244,-0.03172,-0.03904,0.02684,-0.06344,-0.06832,-0.06832,-0.07808,-0.06832,-0.01952
0.00488,0.0122,-0.02928,-0.03172,-0.03416,0.01952,-0.0488,-0.04392,-0.0732,-0.08784,-0.06832,-0.0244
-0.00488,0.01708,-0.02928,-0.02684,-0.0244,0.00976,-0.02928,-0.03416,-0.0732,-0.08784,-0.06344,-0.03416
-0.00488,0.01708,-0.02928,-0.02684,-0.0244,0.00976,-0.0244,-0.02928,-0.07808,-0.08784,-0.06344,-0.03904
-0.0244,0.0244,-0.0244,-0.0122,0,-0.0122,-0.00488,-0.0244,-0.07808,-0.08784,-0.06832,-0.03416
-0.03904,0.0366,-0.03416,-0.01464,0.00488,-0.02196,-0.00488,-0.0244,-0.08296,-0.08784,-0.0732,-0.03904
-0.04392,0.04636,-0.0488,-0.02684,-0.00488,-0.01952,0,-0.00488,-0.08296,-0.08784,-0.06344,-0.03904
-0.04392,0.04636,-0.0488,-0.02684,-0.00488,-0.01952,0.00488,0.00976,-0.08296,-0.09272,-0.06832,-0.04392
-0.04392,0.04148,-0.03904,-0.01708,0.00488,-0.0244,0.00976,0.0244,-0.08784,-0.0976,-0.0732,-0.04392
-0.04392,0.04636,-0.0488,-0.02684,-0.00488,-0.01952,0.00976,0.0244,-0.08784,-0.0976,-0.0732,-0.04392
-0.03416,0.0366,-0.03904,-0.02196,-0.00488,-0.01464,0.01952,0.02928,-0.07808,-0.09272,-0.07808,-0.0488
-0.03904,0.04148,-0.04392,-0.0244,-0.00488,-0.01708,0.01952,0.0244,-0.08296,-0.09272,-0.07808,-0.0488
-0.05368,0.05368,-0.05368,-0.02684,0,-0.02684,0.0244,0.01952,-0.08296,-0.09272,-0.07808,-0.0488
-0.06344,0.06344,-0.06344,-0.03172,0,-0.03172,0.02928,0.01952,-0.08784,-0.0976,-0.08296,-0.05368
-0.07808,0.07564,-0.0732,-0.03416,0.00488,-0.04148,0.01952,0.01952,-0.0976,-0.10736,-0.09272,-0.06344
-0.07808,0.07808,-0.07808,-0.03904,0,-0.03904,0.0244,0.01952,-0.0976,-0.10736,-0.09272,-0.0732
-0.0732,0.08052,-0.08784,-0.05124,-0.01464,-0.02928,0.03416,0.02928,-0.08784,-0.10248,-0.09272,-0.06832
-0.0732,0.07808,-0.08296,-0.04636,-0.00976,-0.03172,0.03904,0.01952,-0.08296,-0.10248,-0.08784,-0.06832
-0.05856,0.06832,-0.07808,-0.0488,-0.01952,-0.01952,0.03904,0.03416,-0.08296,-0.10248,-0.08784,-0.06832
-0.0488,0.05856,-0.06832,-0.04392,-0.01952,-0.01464,0.04392,0.02928,-0.08296,-0.10248,-0.09272,-0.06832
-0.0488,0.05612,-0.06344,-0.03904,-0.01464,-0.01708,0.0488,0.02928,-0.08296,-0.09272,-0.09272,-0.06344
-0.0488,0.05856,-0.06832,-0.04392,-0.01952,-0.01464,0.0488,0.04392,-0.08296,-0.09272,-0.09272,-0.06344
-0.05368,0.06588,-0.07808,-0.05124,-0.0244,-0.01464,0.06832,0.04392,-0.0732,-0.09272,-0.08296,-0.0488
-0.07808,0.08052,-0.08296,-0.04392,-0.00488,-0.0366,0.08296,0.06344,-0.07808,-0.0976,-0.08784,-0.05856
-0.10248,0.09272,-0.08296,-0.03172,0.01952,-0.061,0.11712,0.09272,-0.06832,-0.0976,-0.0976,-0.0732
-0.12688,0.10248,-0.07808,-0.01464,0.0488,-0.08784,0.15128,0.11712,-0.05856,-0.10248,-0.10248,-0.08784
-0.14152,0.11468,-0.08784,-0.01708,0.05368,-0.0976,0.18056,0.15128,-0.0488,-0.0976,-0.10248,-0.10736
-0.11224,0.10492,-0.0976,-0.04148,0.01464,-0.06344,0.20008,0.1952,-0.01464,-0.06832,-0.08296,-0.08296
-0.03904,0.0732,-0.10736,-0.08784,-0.06832,0.01464,0.20984,0.24888,0.04392,0,-0.01952,-0.03904
0.122,-0.01464,-0.09272,-0.15372,-0.21472,0.16836,0.16104,0.3172,0.14152,0.09272,0.08296,0.05856
0.3416,-0.14396,-0.05368,-0.22448,-0.39528,0.36844,0.07808,0.35624,0.27328,0.22448,0.22448,0.20984
0.60024,-0.30988,0.01952,-0.2806,-0.58072,0.59048,-0.03416,0.37088,0.41968,0.366,0.38064,0.38552
0.86864,-0.48556,0.10248,-0.33184,-0.76616,0.8174,-0.16592,0.35136,0.5368,0.5124,0.55632,0.57584
1.09312,-0.64416,0.1952,-0.35136,-0.89792,0.99552,-0.32208,0.2684,0.59536,0.6344,0.70272,0.75152
1.20536,-0.73932,0.27328,-0.3294,-0.93208,1.06872,-0.4636,0.10248,0.54168,0.6344,0.75152,0.83448
1.11752,-0.71248,0.30744,-0.25132,-0.81008,0.9638,-0.52216,-0.08784,0.34648,0.49776,0.65392,0.77592
0.8784,-0.58804,0.29768,-0.14152,-0.58072,0.72956,-0.50752,-0.2684,0.05368,0.24888,0.45384,0.61488
0.53192,-0.37576,0.2196,-0.04636,-0.31232,0.42212,-0.42456,-0.3904,-0.27816,-0.04392,0.18056,0.37088
0.19032,-0.15128,0.11224,0.01708,-0.07808,0.1342,-0.30256,-0.44408,-0.5124,-0.26352,-0.03416,0.15616
-0.0488,0.01464,0.01952,0.04392,0.06832,-0.05856,-0.16592,-0.4148,-0.63928,-0.40504,-0.18544,-0.00488
-0.17568,0.122,-0.06832,0.01952,0.10736,-0.14152,-0.03416,-0.3172,-0.6588,-0.45384,-0.26352,-0.10736
-0.25376,0.19032,-0.12688,0,0.12688,-0.19032,0.08784,-0.21472,-0.62952,-0.47336,-0.30744,-0.1708
-0.27816,0.22204,-0.16592,-0.02684,0.11224,-0.1952,0.15128,-0.14152,-0.5856,-0.47336,-0.32696,-0.22448
-0.27816,0.23668,-0.1952,-0.05612,0.08296,-0.18056,0.18544,-0.09272,-0.54168,-0.4392,-0.32696,-0.23424
-0.25864,0.23668,-0.21472,-0.0854,0.04392,-0.15128,0.18056,-0.05856,-0.47824,-0.40016,-0.30256,-0.22448
-0.22448,0.2196,-0.21472,-0.10248,0.00976,-0.11712,0.16104,-0.03904,-0.3904,-0.34648,-0.25864,-0.18056
-0.1708,0.17568,-0.18056,-0.09516,-0.00976,-0.08052,0.1464,-0.01952,-0.32208,-0.28304,-0.21472,-0.1464
-0.13176,0.1342,-0.13664,-0.07076,-0.00488,-0.06344,0.122,-0.01464,-0.25376,-0.22936,-0.1708,-0.11712
-0.10248,0.1098,-0.11712,-0.06588,-0.01464,-0.04392,0.10736,-0.0244,-0.1952,-0.18544,-0.14152,-0.0976
-0.07808,0.08052,-0.08296,-0.04392,-0.00488,-0.0366,0.07808,-0.02928,-0.15128,-0.1464,-0.11224,-0.07808
-0.0732,0.08052,-0.08784,-0.05124,-0.01464,-0.02928,0.06832,-0.03416,-0.13664,-0.13176,-0.0976,-0.0732
-0.07808,0.07564,-0.0732,-0.03416,0.00488,-0.04148,0.05368,-0.0488,-0.10736,-0.11712,-0.09272,-0.06344
-0.06832,0.06832,-0.06832,-0.03416,0,-0.03416,0.0488,-0.0488,-0.0976,-0.0976,-0.08784,-0.06344
-0.0732,0.07076,-0.06832,-0.03172,0.00488,-0.03904,0.05856,-0.03416,-0.0732,-0.07808,-0.06344,-0.0488
-0.0732,0.0732,-0.0732,-0.0366,0,-0.0366,0.06344,-0.02928,-0.06344,-0.06832,-0.05856,-0.04392
-0.06344,0.07076,-0.07808,-0.04636,-0.01464,-0.0244,0.06344,-0.02928,-0.05368,-0.06344,-0.0488,-0.04392
-0.05368,0.06832,-0.08296,-0.05612,-0.02928,-0.0122,0.06832,-0.03416,-0.04392,-0.05856,-0.03904,-0.03416
-0.03904,0.061,-0.08296,-0.06344,-0.04392,0.00244,0.0732,-0.02928,-0.03904,-0.05368,-0.03416,-0.02928
-0.02928,0.0488,-0.06832,-0.05368,-0.03904,0.00488,0.06344,-0.03904,-0.02928,-0.0488,-0.03416,-0.01464
-0.01464,0.0366,-0.05856,-0.05124,-0.04392,0.01464,0.06344,-0.03904,-0.0244,-0.04392,-0.02928,-0.01464
-0.0244,0.04392,-0.06344,-0.05124,-0.03904,0.00732,0.05368,-0.04392,-0.02928,-0.05368,-0.0244,-0.01952
-0.0244,0.04392,-0.06344,-0.05124,-0.03904,0.00732,0.0488,-0.04392,-0.02928,-0.0488,-0.01952,-0.01464
-0.02928,0.0488,-0.06832,-0.05368,-0.03904,0.00488,0.04392,-0.06344,-0.0244,-0.0488,-0.02928,-0.02928
-0.03904,0.05856,-0.07808,-0.05856,-0.03904,0,0.04392,-0.07808,-0.0244,-0.0488,-0.0244,-0.0244
-0.01952,0.04148,-0.06344,-0.05368,-0.04392,0.0122,0.03904,-0.08784,-0.0244,-0.03904,-0.0244,-0.01464
-0.00976,0.0366,-0.06344,-0.05856,-0.05368,0.02196,0.03904,-0.09272,-0.0244,-0.03904,-0.0244,-0.01464
0,0.02684,-0.05368,-0.05368,-0.05368,0.02684,0.03416,-0.08784,-0.02928,-0.03416,-0.01952,-0.0244
0,0.02196,-0.04392,-0.04392,-0.04392,0.02196,0.02928,-0.09272,-0.0244,-0.02928,-0.01464,-0.01952
0,0.02684,-0.05368,-0.05368,-0.05368,0.02684,0.01952,-0.10248,-0.0244,-0.0244,-0.00976,-0.01464
0,0.02196,-0.04392,-0.04392,-0.04392,0.02196,0.0244,-0.11224,-0.01952,-0.0244,-0.00976,-0.01464
-0.00488,0.02928,-0.05368,-0.05124,-0.0488,0.02196,0.01464,-0.11224,-0.00976,-0.03416,-0.01952,-0.00488
0,0.03172,-0.06344,-0.06344,-0.06344,0.03172,0.0244,-0.122,-0.00976,-0.03416,-0.01952,-0.00488
0.00488,0.0244,-0.05368,-0.05612,-0.05856,0.03172,0.00488,-0.13664,-0.00488,-0.03416,-0.01952,0
0.00488,0.0244,-0.05368,-0.05612,-0.05856,0.03172,0,-0.13664,-0.00488,-0.03416,-0.01464,0
0.01464,0.0122,-0.03904,-0.04636,-0.05368,0.03416,-0.00488,-0.15128,0.00488,-0.01952,-0.00488,0.01464
0.02928,0.00244,-0.03416,-0.0488,-0.06344,0.04636,-0.00976,-0.15616,0.00976,-0.01952,0,0.01952
0.0244,0.00732,-0.03904,-0.05124,-0.06344,0.04392,-0.0244,-0.15616,0,-0.0244,0,0.01464
0.0244,0.00732,-0.03904,-0.05124,-0.06344,0.04392,-0.02928,-0.16104,0.00488,-0.01952,0.00976,0.01464
0.02928,0.00488,-0.03904,-0.05368,-0.06832,0.0488,-0.03416,-0.16104,0,-0.00976,0,0.00488
0.02928,0.00488,-0.03904,-0.05368,-0.06832,0.0488,-0.04392,-0.18056,0.00488,-0.00488,0.00488,0.00976
0.02928,-0.00244,-0.0244,-0.03904,-0.05368,0.04148,-0.04392,-0.18544,0.00976,0.00976,0.0244,0.01952
0.03416,-0.00488,-0.0244,-0.04148,-0.05856,0.04636,-0.04392,-0.18544,0.00976,0.00976,0.03416,0.0244
0.03904,-0.00732,-0.0244,-0.04392,-0.06344,0.05124,-0.05856,-0.18544,0.01464,0.01464,0.02928,0.02928
0.04392,-0.0122,-0.01952,-0.04148,-0.06344,0.05368,-0.05856,-0.17568,0.01952,0.01464,0.02928,0.02928
0.0488,-0.00976,-0.02928,-0.05368,-0.07808,0.06344,-0.06832,-0.19032,0.03416,0.01952,0.03416,0.04392
0.0488,-0.00732,-0.03416,-0.05856,-0.08296,0.06588,-0.0732,-0.1708,0.04392,0.0244,0.04392,0.05368
0.06344,-0.01708,-0.02928,-0.061,-0.09272,0.07808,-0.07808,-0.16592,0.03416,0.02928,0.04392,0.05368
0.06832,-0.02196,-0.0244,-0.05856,-0.09272,0.08052,-0.08784,-0.17568,0.0488,0.03416,0.05368,0.06344
0.08784,-0.03904,-0.00976,-0.05368,-0.0976,0.09272,-0.07808,-0.18544,0.04392,0.03904,0.05368,0.06344
0.09272,-0.03904,-0.01464,-0.061,-0.10736,0.10004,-0.07808,-0.18056,0.05368,0.04392,0.05856,0.06832
0.11224,-0.05368,-0.00488,-0.061,-0.11712,0.11468,-0.08296,-0.18056,0.05856,0.05368,0.07808,0.08296
0.122,-0.061,0,-0.061,-0.122,0.122,-0.07808,-0.17568,0.06344,0.06344,0.08784,0.09272
0.14152,-0.0854,0.02928,-0.04148,-0.11224,0.12688,-0.08784,-0.16104,0.06832,0.0732,0.09272,0.09272
0.16592,-0.10004,0.03416,-0.0488,-0.13176,0.14884,-0.09272,-0.16592,0.07808,0.07808,0.10736,0.10248
0.19032,-0.11224,0.03416,-0.061,-0.15616,0.17324,-0.10248,-0.17568,0.09272,0.09272,0.122,0.12688
0.20984,-0.12444,0.03904,-0.06588,-0.1708,0.19032,-0.10248,-0.17568,0.10736,0.10248,0.13176,0.14152
0.2196,-0.12688,0.03416,-0.07564,-0.18544,0.20252,-0.11712,-0.1708,0.10736,0.10736,0.13176,0.13664
0.23912,-0.14152,0.04392,-0.07564,-0.1952,0.21716,-0.122,-0.1464,0.122,0.11712,0.1464,0.15616
0.25376,-0.15616,0.05856,-0.06832,-0.1952,0.22448,-0.13664,-0.16592,0.122,0.12688,0.15616,0.16104
0.27328,-0.16836,0.06344,-0.0732,-0.20984,0.24156,-0.1464,-0.18056,0.11712,0.13176,0.16592,0.1708
0.2684,-0.16348,0.05856,-0.07564,-0.20984,0.23912,-0.15128,-0.18056,0.12688,0.14152,0.16592,0.18056
0.28792,-0.17568,0.06344,-0.08052,-0.22448,0.2562,-0.16104,-0.19032,0.12688,0.1464,0.17568,0.19032
0.2928,-0.18056,0.06832,-0.07808,-0.22448,0.25864,-0.17568,-0.1952,0.12688,0.15128,0.1952,0.20496
0.29768,-0.18544,0.0732,-0.07564,-0.22448,0.26108,-0.18056,-0.20008,0.12688,0.15616,0.20496,0.21472
0.30744,-0.20008,0.09272,-0.061,-0.21472,0.26108,-0.19032,-0.19032,0.13664,0.16592,0.21472,0.2196
0.3172,-0.20496,0.09272,-0.06588,-0.22448,0.27084,-0.1952,-0.18056,0.13664,0.17568,0.22936,0.23912
0.3416,-0.22448,0.10736,-0.06344,-0.23424,0.28792,-0.20984,-0.16104,0.15128,0.1708,0.23912,0.23912
0.35624,-0.2318,0.10736,-0.07076,-0.24888,0.30256,-0.22936,-0.13176,0.15128,0.1708,0.23912,0.23912
0.36112,-0.2318,0.10248,-0.07808,-0.25864,0.30988,-0.244,-0.10248,0.1464,0.18056,0.244,0.24888
0.36112,-0.23424,0.10736,-0.0732,-0.25376,0.30744,-0.244,-0.09272,0.15128,0.18056,0.244,0.25864
0.35136,-0.22936,0.10736,-0.06832,-0.244,0.29768,-0.25376,-0.08296,0.1464,0.18056,0.23424,0.244
0.34648,-0.22204,0.0976,-0.07564,-0.24888,0.29768,-0.24888,-0.0732,0.13664,0.1708,0.2196,0.23912
0.33184,-0.20984,0.08784,-0.07808,-0.244,0.28792,-0.22936,-0.06832,0.13176,0.15128,0.20008,0.2196
0.31232,-0.19764,0.08296,-0.0732,-0.22936,0.27084,-0.21472,-0.06832,0.122,0.13664,0.18056,0.20008
0.29768,-0.18544,0.0732,-0.07564,-0.22448,0.26108,-0.20008,-0.06832,0.11224,0.12688,0.1708,0.18056
0.2684,-0.16592,0.06344,-0.07076,-0.20496,0.23668,-0.19032,-0.06832,0.11224,0.122,0.15616,0.16104
0.22936,-0.14396,0.05856,-0.05612,-0.1708,0.20008,-0.17568,-0.07808,0.09272,0.11224,0.13664,0.1464
0.20984,-0.13664,0.06344,-0.04148,-0.1464,0.17812,-0.16104,-0.08784,0.08296,0.09272,0.12688,0.12688
0.18544,-0.11956,0.05368,-0.03904,-0.13176,0.1586,-0.1464,-0.10736,0.07808,0.08784,0.10736,0.11224
0.16104,-0.09272,0.0244,-0.05612,-0.13664,0.14884,-0.12688,-0.12688,0.06832,0.06832,0.09272,0.09272
0.13176,-0.08052,0.02928,-0.0366,-0.10248,0.11712,-0.11712,-0.13664,0.06344,0.05368,0.0732,0.0732
0.10736,-0.06344,0.01952,-0.03416,-0.08784,0.0976,-0.10248,-0.14152,0.05368,0.03904,0.05368,0.05368
0.07808,-0.03904,0,-0.03904,-0.07808,0.07808,-0.10248,-0.13176,0.04392,0.0244,0.03904,0.03904
0.05856,-0.0244,-0.00976,-0.03904,-0.06832,0.06344,-0.0976,-0.1464,0.02928,0.00976,0.01952,0.0244
0.01952,0.00976,-0.03904,-0.0488,-0.05856,0.03904,-0.10248,-0.15616,0.01464,-0.00976,0,0.00488
-0.01464,0.04392,-0.0732,-0.06588,-0.05856,0.02196,-0.09272,-0.15616,0.00976,-0.01952,-0.00976,0
-0.01952,0.04392,-0.06832,-0.05856,-0.0488,0.01464,-0.08784,-0.16104,0.00488,-0.01952,-0.00488,-0.00976
-0.02928,0.05368,-0.07808,-0.06344,-0.0488,0.00976,-0.0732,-0.15616,-0.00488,-0.01952,-0.01464,-0.0244
-0.0244,0.04392,-0.06344,-0.05124,-0.03904,0.00732,-0.05368,-0.13664,0,-0.0244,-0.00976,-0.02928
-0.03416,0.04392,-0.05368,-0.0366,-0.01952,-0.00732,-0.04392,-0.13176,-0.00488,-0.0244,-0.00976,-0.02928
-0.04392,0.04148,-0.03904,-0.01708,0.00488,-0.0244,-0.03904,-0.14152,-0.01464,-0.03416,-0.0244,-0.02928
-0.04392,0.04148,-0.03904,-0.01708,0.00488,-0.0244,-0.03904,-0.15128,-0.01464,-0.03416,-0.02928,-0.02928
-0.03416,0.03904,-0.04392,-0.02684,-0.00976,-0.0122,-0.03416,-0.15128,-0.01464,-0.04392,-0.02928,-0.02928
-0.0244,0.0366,-0.0488,-0.0366,-0.0244,0,-0.02928,-0.15128,-0.01952,-0.04392,-0.02928,-0.03416
-0.01952,0.03172,-0.04392,-0.03416,-0.0244,0.00244,-0.02928,-0.15616,-0.01464,-0.03904,-0.0244,-0.0244
-0.01464,0.02928,-0.04392,-0.0366,-0.02928,0.00732,-0.0244,-0.15616,-0.00488,-0.04392,-0.02928,-0.03416
-0.01952,0.02684,-0.03416,-0.0244,-0.01464,-0.00244,-0.01464,-0.16104,0,-0.03416,-0.0244,-0.02928
-0.01952,0.02684,-0.03416,-0.0244,-0.01464,-0.00244,-0.00488,-0.16104,0,-0.03416,-0.0244,-0.02928
-0.02928,0.03416,-0.03904,-0.0244,-0.00976,-0.00976,-0.00976,-0.17568,-0.00976,-0.04392,-0.03416,-0.03904
-0.03904,0.0366,-0.03416,-0.01464,0.00488,-0.02196,-0.01952,-0.17568,-0.01952,-0.04392,-0.03416,-0.03904
-0.0488,0.04636,-0.04392,-0.01952,0.00488,-0.02684,-0.02928,-0.18544,-0.02928,-0.04392,-0.03416,-0.03904
-0.05368,0.05124,-0.0488,-0.02196,0.00488,-0.02928,-0.02928,-0.1708,-0.0244,-0.03904,-0.02928,-0.03416
-0.05368,0.05612,-0.05856,-0.03172,-0.00488,-0.0244,-0.01952,-0.20008,-0.0244,-0.02928,-0.02928,-0.0244
-0.05368,0.05856,-0.06344,-0.0366,-0.00976,-0.02196,-0.01952,-0.2196,-0.0244,-0.02928,-0.02928,-0.0244
-0.0488,0.05368,-0.05856,-0.03416,-0.00976,-0.01952,-0.00976,-0.22936,-0.01952,-0.04392,-0.03416,-0.0244
-0.0488,0.05368,-0.05856,-0.03416,-0.00976,-0.01952,-0.01952,-0.23424,-0.01952,-0.04392,-0.03416,-0.02928
-0.04392,0.0488,-0.05368,-0.03172,-0.00976,-0.01708,-0.01952,-0.24888,-0.01464,-0.04392,-0.02928,-0.02928
-0.03904,0.04636,-0.05368,-0.03416,-0.01464,-0.0122,-0.01952,-0.25376,-0.01464,-0.04392,-0.02928,-0.02928
-0.02928,0.03904,-0.0488,-0.03416,-0.01952,-0.00488,-0.01952,-0.27328,-0.01464,-0.04392,-0.02928,-0.02928
-0.02928,0.03904,-0.0488,-0.03416,-0.01952,-0.00488,-0.01464,-0.27328,-0.01464,-0.04392,-0.02928,-0.02928
-0.03416,0.04636,-0.05856,-0.04148,-0.0244,-0.00488,-0.01952,-0.28304,-0.0244,-0.04392,-0.03416,-0.03904
-0.03416,0.05124,-0.06832,-0.05124,-0.03416,0,-0.01952,-0.29768,-0.0244,-0.04392,-0.03416,-0.03904
-0.03904,0.05124,-0.06344,-0.04392,-0.0244,-0.00732,-0.01952,-0.30744,-0.03416,-0.05856,-0.03416,-0.04392
-0.04392,0.05124,-0.05856,-0.0366,-0.01464,-0.01464,-0.02928,-0.30744,-0.04392,-0.05856,-0.03416,-0.04392
-0.02928,0.04392,-0.05856,-0.04392,-0.02928,0,-0.01952,-0.30744,-0.03904,-0.05368,-0.03904,-0.04392
-0.03416,0.04392,-0.05368,-0.0366,-0.01952,-0.00732,-0.01464,-0.3172,-0.04392,-0.05368,-0.03904,-0.0488
-0.04392,0.05368,-0.06344,-0.04148,-0.01952,-0.0122,-0.0244,-0.32696,-0.04392,-0.05368,-0.0488,-0.0488
-0.05368,0.061,-0.06832,-0.04148,-0.01464,-0.01952,-0.01952,-0.33672,-0.04392,-0.05856,-0.05368,-0.05368
-0.05368,0.06588,-0.07808,-0.05124,-0.0244,-0.01464,-0.01464,-0.34648,-0.04392,-0.06344,-0.0488,-0.05368
-0.05856,0.07076,-0.08296,-0.05368,-0.0244,-0.01708,-0.01464,-0.3416,-0.04392,-0.06832,-0.0488,-0.0488
-0.0488,0.05856,-0.06832,-0.04392,-0.01952,-0.01464,-0.00488,-0.36112,-0.04392,-0.05856,-0.03904,-0.0488
-0.03904,0.05368,-0.06832,-0.0488,-0.02928,-0.00488,-0.00488,-0.37088,-0.04392,-0.06344,-0.03904,-0.03904
-0.0244,0.04148,-0.05856,-0.04636,-0.03416,0.00488,0.00488,-0.37576,-0.03904,-0.05368,-0.03904,-0.0488
-0.01952,0.0366,-0.05368,-0.04392,-0.03416,0.00732,0.00976,-0.37088,-0.03904,-0.05368,-0.03904,-0.0488
-0.02928,0.0366,-0.04392,-0.02928,-0.01464,-0.00732,0.00976,-0.38064,-0.03904,-0.05368,-0.03904,-0.0488
-0.02928,0.0366,-0.04392,-0.02928,-0.01464,-0.00732,0.00488,-0.38552,-0.04392,-0.05368,-0.03904,-0.0488
-0.01952,0.02684,-0.03416,-0.0244,-0.01464,-0.00244,0.01464,-0.37576,-0.04392,-0.05368,-0.03904,-0.0488
-0.01952,0.01952,-0.01952,-0.00976,0,-0.00976,0.01464,-0.37088,-0.04392,-0.05368,-0.03904,-0.0488
-0.02928,0.02928,-0.02928,-0.01464,0,-0.01464,0.00488,-0.38552,-0.05368,-0.06832,-0.0488,-0.05856
-0.03904,0.03172,-0.0244,-0.00488,0.01464,-0.02684,-0.00976,-0.39528,-0.05368,-0.06832,-0.05856,-0.06344
-0.0488,0.05124,-0.05368,-0.02928,-0.00488,-0.02196,-0.01952,-0.40504,-0.06344,-0.07808,-0.06832,-0.06344
-0.05856,0.06588,-0.0732,-0.04392,-0.01464,-0.02196,-0.01464,-0.4148,-0.06832,-0.08784,-0.06344,-0.06344
-0.0488,0.061,-0.0732,-0.0488,-0.0244,-0.0122,-0.00488,-0.42456,-0.05856,-0.08296,-0.06344,-0.05856
-0.04392,0.05368,-0.06344,-0.04148,-0.01952,-0.0122,0.00488,-0.43432,-0.05856,-0.0732,-0.06344,-0.05856
-0.03904,0.0488,-0.05856,-0.03904,-0.01952,-0.00976,0.01464,-0.4148,-0.0488,-0.06344,-0.05856,-0.0488
-0.03904,0.0488,-0.05856,-0.03904,-0.01952,-0.00976,0.0244,-0.40504,-0.03904,-0.05368,-0.0488,-0.03904
-0.0488,0.05856,-0.06832,-0.04392,-0.01952,-0.01464,0.01952,-0.41968,-0.0488,-0.06344,-0.05856,-0.0488
-0.05368,0.06588,-0.07808,-0.05124,-0.0244,-0.01464,0.01952,-0.43432,-0.06344,-0.06344,-0.05856,-0.05856
-0.06344,0.0732,-0.08296,-0.05124,-0.01952,-0.02196,0.01952,-0.43432,-0.06344,-0.07808,-0.06832,-0.06832
-0.05856,0.07564,-0.09272,-0.06344,-0.03416,-0.0122,0.01952,-0.42944,-0.06344,-0.07808,-0.0732,-0.0732
-0.0488,0.06588,-0.08296,-0.05856,-0.03416,-0.00732,0.0244,-0.42456,-0.06832,-0.07808,-0.06344,-0.06344
-0.05368,0.07076,-0.08784,-0.061,-0.03416,-0.00976,0.0244,-0.43432,-0.06832,-0.07808,-0.06344,-0.06344
-0.04392,0.061,-0.07808,-0.05612,-0.03416,-0.00488,0.02928,-0.41968,-0.06832,-0.07808,-0.06344,-0.05368
-0.0488,0.06344,-0.07808,-0.05368,-0.02928,-0.00976,0.0488,-0.40504,-0.06832,-0.07808,-0.06344,-0.0488
-0.0488,0.05856,-0.06832,-0.04392,-0.01952,-0.01464,0.0488,-0.39528,-0.05856,-0.0732,-0.06344,-0.05856
-0.0488,0.05612,-0.06344,-0.03904,-0.01464,-0.01708,0.05368,-0.38552,-0.05856,-0.0732,-0.06344,-0.05856
-0.04392,0.05124,-0.05856,-0.0366,-0.01464,-0.01464,0.06832,-0.37088,-0.05856,-0.0732,-0.05368,-0.05368
-0.03416,0.0488,-0.06344,-0.04636,-0.02928,-0.00244,0.07808,-0.35624,-0.05856,-0.0732,-0.05368,-0.05368
-0.03416,0.04636,-0.05856,-0.04148,-0.0244,-0.00488,0.08784,-0.33672,-0.05856,-0.0732,-0.05368,-0.05368
-0.03416,0.04636,-0.05856,-0.04148,-0.0244,-0.00488,0.08784,-0.32208,-0.05856,-0.0732,-0.05368,-0.05368
-0.02928,0.03904,-0.0488,-0.03416,-0.01952,-0.00488,0.0976,-0.30744,-0.05856,-0.06832,-0.05856,-0.05368
-0.02928,0.03904,-0.0488,-0.03416,-0.01952,-0.00488,0.10248,-0.28792,-0.05856,-0.06832,-0.05856,-0.0488
-0.03904,0.0488,-0.05856,-0.03904,-0.01952,-0.00976,0.11224,-0.27328,-0.05856,-0.06832,-0.05856,-0.05856
-0.0488,0.061,-0.0732,-0.0488,-0.0244,-0.0122,0.11224,-0.25864,-0.05856,-0.06832,-0.06344,-0.05856
-0.05856,0.06588,-0.0732,-0.04392,-0.01464,-0.02196,0.11224,-0.24888,-0.06832,-0.06832,-0.0488,-0.05856
-0.05368,0.05856,-0.06344,-0.0366,-0.00976,-0.02196,0.11224,-0.25376,-0.06832,-0.06832,-0.0488,-0.05856
-0.05368,0.05124,-0.0488,-0.02196,0.00488,-0.02928,0.10736,-0.24888,-0.06832,-0.07808,-0.05856,-0.05856
-0.05368,0.0488,-0.04392,-0.01708,0.00976,-0.03172,0.10736,-0.24888,-0.06832,-0.07808,-0.06344,-0.05856
-0.06344,0.06344,-0.06344,-0.03172,0,-0.03172,0.0976,-0.25864,-0.0732,-0.07808,-0.06344,-0.06344
-0.0732,0.07564,-0.07808,-0.04148,-0.00488,-0.03416,0.10248,-0.25864,-0.0732,-0.08296,-0.06344,-0.06344
-0.06832,0.07808,-0.08784,-0.05368,-0.01952,-0.0244,0.09272,-0.24888,-0.06832,-0.08296,-0.06832,-0.06832
-0.06832,0.07808,-0.08784,-0.05368,-0.01952,-0.0244,0.09272,-0.24888,-0.06832,-0.08784,-0.06832,-0.06832
-0.05856,0.06832,-0.07808,-0.0488,-0.01952,-0.01952,0.0976,-0.23912,-0.06832,-0.07808,-0.05856,-0.06344
-0.05856,0.05856,-0.05856,-0.02928,0,-0.02928,0.10736,-0.2196,-0.05856,-0.06832,-0.05856,-0.06344
-0.03904,0.04148,-0.04392,-0.0244,-0.00488,-0.01708,0.11712,-0.20496,-0.05856,-0.06832,-0.05856,-0.06344
-0.02928,0.0366,-0.04392,-0.02928,-0.01464,-0.00732,0.11712,-0.20008,-0.05856,-0.06344,-0.05368,-0.06344
-0.03416,0.03904,-0.04392,-0.02684,-0.00976,-0.0122,0.122,-0.1952,-0.05856,-0.06344,-0.05856,-0.06832
-0.03416,0.03904,-0.04392,-0.02684,-0.00976,-0.0122,0.13176,-0.20008,-0.05856,-0.06344,-0.05856,-0.06832
-0.05368,0.05856,-0.06344,-0.0366,-0.00976,-0.02196,0.13176,-0.18544,-0.06832,-0.06344,-0.05368,-0.05368
-0.06344,0.0732,-0.08296,-0.05124,-0.01952,-0.02196,0.14152,-0.1708,-0.06832,-0.06344,-0.05856,-0.05368
-0.06832,0.08296,-0.0976,-0.06344,-0.02928,-0.01952,0.14152,-0.1708,-0.06832,-0.0732,-0.05856,-0.0488
-0.08296,0.09272,-0.10248,-0.061,-0.01952,-0.03172,0.13664,-0.16592,-0.06832,-0.0732,-0.05856,-0.05368
-0.0732,0.08052,-0.08784,-0.05124,-0.01464,-0.02928,0.14152,-0.16592,-0.06832,-0.08296,-0.06832,-0.06344
-0.0732,0.0732,-0.0732,-0.0366,0,-0.0366,0.14152,-0.16104,-0.0732,-0.08296,-0.0732,-0.06344
-0.0732,0.06588,-0.05856,-0.02196,0.01464,-0.04392,0.16104,-0.15128,-0.0732,-0.0732,-0.05368,-0.06344
-0.06832,0.05856,-0.0488,-0.01464,0.01952,-0.04392,0.16592,-0.1464,-0.06832,-0.06832,-0.0488,-0.05856
-0.06832,0.05856,-0.0488,-0.01464,0.01952,-0.04392,0.16592,-0.13664,-0.06832,-0.06832,-0.0488,-0.05856
-0.06832,0.05856,-0.0488,-0.01464,0.01952,-0.04392,0.16592,-0.13664,-0.06832,-0.06832,-0.0488,-0.05856
-0.05856,0.05856,-0.05856,-0.02928,0,-0.02928,0.16592,-0.12688,-0.06832,-0.06832,-0.05856,-0.05856
-0.05856,0.05856,-0.05856,-0.02928,0,-0.02928,0.16592,-0.12688,-0.06832,-0.06832,-0.05856,-0.05856
-0.0488,0.05856,-0.06832,-0.04392,-0.01952,-0.01464,0.16592,-0.11712,-0.06832,-0.06832,-0.05856,-0.05856
-0.0488,0.05856,-0.06832,-0.04392,-0.01952,-0.01464,0.16592,-0.11712,-0.06832,-0.06832,-0.05856,-0.05856
-0.0488,0.05368,-0.05856,-0.03416,-0.00976,-0.01952,0.17568,-0.11712,-0.06832,-0.06832,-0.0488,-0.0488
-0.0488,0.05368,-0.05856,-0.03416,-0.00976,-0.01952,0.17568,-0.11712,-0.06832,-0.06832,-0.0488,-0.0488
-0.05856,0.05856,-0.05856,-0.02928,0,-0.02928,0.18544,-0.10736,-0.06832,-0.06832,-0.0488,-0.05856
-0.05856,0.05856,-0.05856,-0.02928,0,-0.02928,0.18544,-0.10736,-0.06832,-0.06832,-0.0488,-0.05856
-0.06832,0.06832,-0.06832,-0.03416,0,-0.03416,0.18544,-0.0976,-0.06832,-0.06832,-0.05856,-0.05856
-0.06832,0.06832,-0.06832,-0.03416,0,-0.03416,0.18544,-0.0976,-0.06832,-0.06832,-0.05856,-0.05856
-0.07808,0.07808,-0.07808,-0.03904,0,-0.03904,0.1952,-0.08784,-0.06832,-0.05856,-0.0488,-0.05856
-0.08784,0.08784,-0.08784,-0.04392,0,-0.04392,0.20496,-0.07808,-0.06832,-0.05856,-0.0488,-0.05856
-0.07808,0.07808,-0.07808,-0.03904,0,-0.03904,0.1952,-0.06832,-0.05856,-0.05856,-0.0488,-0.0488
-0.06832,0.06832,-0.06832,-0.03416,0,-0.03416,0.1952,-0.05856,-0.05856,-0.05856,-0.0488,-0.0488
-0.05856,0.05856,-0.05856,-0.02928,0,-0.02928,0.18544,-0.05856,-0.05856,-0.05856,-0.0488,-0.0488
-0.0488,0.05368,-0.05856,-0.03416,-0.00976,-0.01952,0.17568,-0.05856,-0.05856,-0.05856,-0.0488,-0.0488
-0.05856,0.06344,-0.06832,-0.03904,-0.00976,-0.0244,0.15616,-0.05856,-0.05856,-0.05856,-0.05856,-0.0488
-0.05856,0.06344,-0.06832,-0.03904,-0.00976,-0.0244,0.13664,-0.05856,-0.05856,-0.05856,-0.05856,-0.0488
-0.05856,0.05856,-0.05856,-0.02928,0,-0.02928,0.11712,-0.0488,-0.0488,-0.0488,-0.0488,-0.0488
-0.05856,0.05856,-0.05856,-0.02928,0,-0.02928,0.10736,-0.03904,-0.0488,-0.0488,-0.0488,-0.0488
-0.03904,0.04392,-0.0488,-0.02928,-0.00976,-0.01464,0.09272,-0.03416,-0.03904,-0.03904,-0.03904,-0.03904
-0.03904,0.03904,-0.03904,-0.01952,0,-0.01952,0.08296,-0.03416,-0.02928,-0.03904,-0.03416,-0.03904
-0.03416,0.0366,-0.03904,-0.02196,-0.00488,-0.01464,0.05856,-0.03904,-0.0244,-0.03904,-0.02928,-0.04392
-0.02928,0.03172,-0.03416,-0.01952,-0.00488,-0.0122,0.04392,-0.03416,-0.0244,-0.02928,-0.0244,-0.03904
-0.00976,0.00976,-0.00976,-0.00488,0,-0.00488,0.0244,-0.0244,-0.0244,-0.01952,-0.01464,-0.0244
0,0,0,0,0,0,0.00976,-0.01952,-0.01464,-0.00976,-0.00976,-0.01464
0.00976,-0.00488,0,-0.00488,-0.00976,0.00976,-0.01464,-0.00488,0.00488,0.00976,0.00976,-0.00488
0.0244,-0.01464,0.00488,-0.00732,-0.01952,0.02196,-0.01952,-0.00488,0.00488,0.00976,0.00976,-0.00488
0.01952,-0.01708,0.01464,0.00488,-0.00488,0.0122,-0.03904,-0.00976,0.01464,0.01464,0.01952,0.00976
0.02928,-0.02196,0.01464,0,-0.01464,0.02196,-0.03904,-0.00488,0.01464,0.00976,0.01952,0.01464
0.05368,-0.03904,0.0244,-0.00244,-0.02928,0.04148,-0.03904,-0.00488,0.01464,0.01464,0.0244,0.01464
0.05368,-0.03904,0.0244,-0.00244,-0.02928,0.04148,-0.03904,0,0.00488,0.00976,0.0244,0.01952
0.04392,-0.03172,0.01952,-0.00244,-0.0244,0.03416,-0.02928,-0.00488,0,0.00976,0.01464,0.00976
0.03416,-0.02196,0.00976,-0.00732,-0.0244,0.02928,-0.01464,0,-0.01952,0,0.00488,0
0.01464,-0.00976,0.00488,-0.00244,-0.00976,0.0122,-0.01464,-0.00976,-0.02928,-0.0244,-0.00976,-0.01952
0.00488,0,-0.00488,-0.00732,-0.00976,0.00732,-0.00488,-0.01952,-0.03904,-0.02928,-0.01952,-0.02928
0.00488,0.00732,-0.01952,-0.02196,-0.0244,0.01464,0,-0.01464,-0.04392,-0.03904,-0.01952,-0.03416
-0.01464,0.02684,-0.03904,-0.03172,-0.0244,0.00488,0.00976,-0.01464,-0.04392,-0.03904,-0.0244,-0.03416
-0.03416,0.04636,-0.05856,-0.04148,-0.0244,-0.00488,0.00488,-0.02928,-0.0488,-0.03904,-0.03416,-0.03904
-0.04392,0.05368,-0.06344,-0.04148,-0.01952,-0.0122,0.01464,-0.05368,-0.0488,-0.0488,-0.03904,-0.04392
-0.0488,0.05612,-0.06344,-0.03904,-0.01464,-0.01708,0.00488,-0.06344,-0.06344,-0.05856,-0.05368,-0.0488
-0.05368,0.061,-0.06832,-0.04148,-0.01464,-0.01952,0.00976,-0.06344,-0.06344,-0.05856,-0.05368,-0.0488
-0.05368,0.05612,-0.05856,-0.03172,-0.00488,-0.0244,0.01464,-0.06832,-0.05368,-0.05368,-0.0488,-0.05368
-0.05368,0.05612,-0.05856,-0.03172,-0.00488,-0.0244,0.01952,-0.0732,-0.05856,-0.05856,-0.05368,-0.05368
-0.06344,0.07076,-0.07808,-0.04636,-0.01464,-0.0244,0.01952,-0.08296,-0.06832,-0.05856,-0.05368,-0.05368
-0.06344,0.07076,-0.07808,-0.04636,-0.01464,-0.0244,0.01952,-0.07808,-0.06832,-0.06344,-0.05856,-0.05856
-0.07808,0.0854,-0.09272,-0.05368,-0.01464,-0.03172,0.01952,-0.08296,-0.0732,-0.0732,-0.05856,-0.06832
-0.08296,0.08784,-0.09272,-0.05124,-0.00976,-0.0366,0.01464,-0.08784,-0.0732,-0.0732,-0.05856,-0.06832
-0.06344,0.0732,-0.08296,-0.05124,-0.01952,-0.02196,0.01952,-0.07808,-0.07808,-0.07808,-0.06344,-0.06344
-0.05856,0.07076,-0.08296,-0.05368,-0.0244,-0.01708,0.01952,-0.07808,-0.07808,-0.07808,-0.06344,-0.06344
-0.05856,0.06344,-0.06832,-0.03904,-0.00976,-0.0244,0.0244,-0.08784,-0.06832,-0.06832,-0.05368,-0.06344
-0.05368,0.061,-0.06832,-0.04148,-0.01464,-0.01952,0.0244,-0.08784,-0.06832,-0.06344,-0.05368,-0.05856
-0.05368,0.05856,-0.06344,-0.0366,-0.00976,-0.02196,0.02928,-0.0976,-0.06344,-0.0732,-0.05856,-0.05856
-0.0488,0.05856,-0.06832,-0.04392,-0.01952,-0.01464,0.02928,-0.09272,-0.06344,-0.0732,-0.05856,-0.05856
-0.05856,0.06344,-0.06832,-0.03904,-0.00976,-0.0244,0.03416,-0.08784,-0.05368,-0.06344,-0.05368,-0.0488
-0.06832,0.07076,-0.0732,-0.03904,-0.00488,-0.03172,0.02928,-0.08784,-0.05368,-0.06344,-0.05368,-0.05368
-0.05856,0.0732,-0.08784,-0.05856,-0.02928,-0.01464,0.02928,-0.0732,-0.05368,-0.06344,-0.05368,-0.04392
-0.06344,0.07564,-0.08784,-0.05612,-0.0244,-0.01952,0.02928,-0.0732,-0.05368,-0.06344,-0.05368,-0.0488
-0.08784,0.09028,-0.09272,-0.0488,-0.00488,-0.04148,0.04392,-0.06344,-0.0488,-0.06832,-0.05856,-0.05856
-0.13176,0.10736,-0.08296,-0.01708,0.0488,-0.09028,0.07808,-0.05368,-0.05856,-0.06832,-0.06832,-0.08296
-0.15616,0.122,-0.08784,-0.00976,0.06832,-0.11224,0.10248,-0.02928,-0.0488,-0.0732,-0.0732,-0.0976
-0.1708,0.12444,-0.07808,0.00732,0.09272,-0.13176,0.13176,0.00488,-0.02928,-0.05856,-0.0732,-0.10736
-0.122,0.10004,-0.07808,-0.01708,0.04392,-0.08296,0.15128,0.03904,0.01464,-0.01952,-0.04392,-0.08296
-0.00976,0.03904,-0.06832,-0.06344,-0.05856,0.0244,0.15128,0.0732,0.08296,0.0488,0.02928,-0.00976
0.16104,-0.05856,-0.04392,-0.12444,-0.20496,0.183,0.122,0.13176,0.20008,0.16104,0.14152,0.0976
0.38064,-0.18788,-0.00488,-0.1952,-0.38552,0.38308,0.0488,0.18056,0.35136,0.30256,0.2928,0.25864
0.61,-0.3294,0.0488,-0.2562,-0.5612,0.5856,-0.0732,0.18544,0.49776,0.4636,0.46848,0.43432
0.8296,-0.46116,0.09272,-0.32208,-0.73688,0.78324,-0.21472,0.1464,0.61488,0.60024,0.6344,0.61488
1.00528,-0.59048,0.17568,-0.32696,-0.8296,0.91744,-0.36112,0.04392,0.67344,0.72224,0.77104,0.76128
1.07848,-0.66124,0.244,-0.29524,-0.83448,0.95648,-0.48312,-0.11224,0.58072,0.70272,0.80032,0.82472
