i,aVR,ii,aVF,iii,aVL,V1,V2,V3,V4,V5,V6
-0.01952,0.04392,-0.06832,-0.05856,-0.0488,0.01464,-0.00976,-0.0976,-0.07808,-0.0976,-0.05856,-0.0488
-0.0244,0.0488,-0.0732,-0.061,-0.0488,0.0122,-0.00976,-0.0976,-0.07808,-0.0976,-0.06344,-0.0488
-0.02928,0.05368,-0.07808,-0.06344,-0.0488,0.00976,-0.00976,-0.0976,-0.07808,-0.0976,-0.06832,-0.0488
-0.02928,0.05612,-0.08296,-0.06832,-0.05368,0.0122,-0.00976,-0.0976,-0.07808,-0.0976,-0.06832,-0.0488
-0.02928,0.05612,-0.08296,-0.06832,-0.05368,0.0122,-0.00976,-0.0976,-0.07808,-0.0976,-0.06832,-0.0488
-0.02928,0.05856,-0.08784,-0.0732,-0.05856,0.01464,-0.00976,-0.0976,-0.07808,-0.0976,-0.06832,-0.0488
-0.01952,0.05124,-0.08296,-0.0732,-0.06344,0.02196,-0.00488,-0.08784,-0.07808,-0.08784,-0.06832,-0.04392
0.00488,0.02684,-0.05856,-0.061,-0.06344,0.03416,0,-0.06832,-0.06344,-0.0732,-0.05368,-0.03416
0.02928,-0.00244,-0.0244,-0.03904,-0.05368,0.04148,0.00976,-0.03904,-0.03904,-0.0488,-0.03904,-0.01952
0.04392,-0.01708,-0.00976,-0.03172,-0.05368,0.0488,0.01952,-0.00976,-0.01464,-0.01464,-0.01952,-0.00976
0.04392,-0.0244,0.00488,-0.01708,-0.03904,0.04148,0.02928,0.00488,0.00488,0,0,0.00488
0.03416,-0.02196,0.00976,-0.00732,-0.0244,0.02928,0.02928,0.00976,0.00488,0.01464,0,0.00976
0.01952,-0.01464,0.00976,0,-0.00976,0.01464,0.04392,0.01952,0.01464,0.01952,0.00488,0.00976
0.03416,-0.02196,0.00976,-0.00732,-0.0244,0.02928,0.04392,0.03904,0.01952,0.02928,0.00976,0.01464
0.05368,-0.02928,0.00488,-0.02196,-0.0488,0.05124,0.03904,0.05856,0.02928,0.03904,0.01952,0.01952
0.06344,-0.03416,0.00488,-0.02684,-0.05856,0.061,0.01464,0.05856,0.0244,0.03904,0.01464,0.0244
0.06344,-0.03416,0.00488,-0.02684,-0.05856,0.061,-0.02928,0.04392,0.01952,0.03416,0.00488,0.0244
0.06344,-0.0244,-0.01464,-0.04636,-0.07808,0.07076,-0.0732,0,0.00976,0.00488,0.00488,0.0244
0.0488,-0.00488,-0.03904,-0.06344,-0.08784,0.06832,-0.0732,-0.0488,-0.02928,-0.0488,-0.0244,0.00488
0.05368,0.00488,-0.06344,-0.09028,-0.11712,0.0854,-0.06344,-0.06344,-0.05856,-0.0732,-0.03416,-0.00976
0.04392,0.00976,-0.06344,-0.0854,-0.10736,0.07564,-0.04392,-0.06344,-0.06344,-0.07808,-0.04392,-0.0244
0.03904,0.01708,-0.0732,-0.09272,-0.11224,0.07564,-0.04392,-0.08296,-0.0732,-0.09272,-0.05856,-0.03904
0.02928,0.02196,-0.0732,-0.08784,-0.10248,0.06588,-0.03904,-0.10248,-0.07808,-0.10248,-0.06344,-0.03904
0.0244,0.0244,-0.0732,-0.0854,-0.0976,0.061,-0.03904,-0.10248,-0.08296,-0.10248,-0.05856,-0.03416
0.01952,0.02684,-0.0732,-0.08296,-0.09272,0.05612,-0.03416,-0.09272,-0.08296,-0.10248,-0.05368,-0.02928
0.02928,0.02196,-0.0732,-0.08784,-0.10248,0.06588,-0.03416,-0.10248,-0.07808,-0.10248,-0.06344,-0.03416
0.01464,0.04392,-0.10248,-0.1098,-0.11712,0.06588,-0.03416,-0.11224,-0.08784,-0.122,-0.07808,-0.05856
0,0.05856,-0.11712,-0.11712,-0.11712,0.05856,-0.0488,-0.12688,-0.10736,-0.13176,-0.08784,-0.06832
-0.01464,0.07076,-0.12688,-0.11956,-0.11224,0.0488,-0.05368,-0.14152,-0.12688,-0.15128,-0.09272,-0.07808
-0.0244,0.06344,-0.10248,-0.09028,-0.07808,0.02684,-0.04392,-0.14152,-0.10736,-0.12688,-0.08784,-0.0732
-0.02928,0.05612,-0.08296,-0.06832,-0.05368,0.0122,-0.02928,-0.122,-0.09272,-0.11712,-0.07808,-0.06832
-0.02928,0.05612,-0.08296,-0.06832,-0.05368,0.0122,-0.01952,-0.122,-0.08784,-0.11712,-0.0732,-0.05856
-0.03416,0.06588,-0.0976,-0.08052,-0.06344,0.01464,-0.00976,-0.122,-0.0976,-0.11712,-0.07808,-0.05856
-0.03416,0.0732,-0.11224,-0.09516,-0.07808,0.02196,-0.00976,-0.122,-0.0976,-0.12688,-0.08296,-0.06832
-0.03904,0.07564,-0.11224,-0.09272,-0.0732,0.01708,-0.00976,-0.12688,-0.10248,-0.12688,-0.08296,-0.06832
-0.03904,0.07564,-0.11224,-0.09272,-0.0732,0.01708,-0.00976,-0.12688,-0.10736,-0.13176,-0.08296,-0.06344
-0.03904,0.0732,-0.10736,-0.08784,-0.06832,0.01464,-0.00976,-0.12688,-0.11224,-0.13664,-0.08296,-0.06344
-0.03904,0.0732,-0.10736,-0.08784,-0.06832,0.01464,-0.00976,-0.12688,-0.11224,-0.13664,-0.08296,-0.06344
-0.03904,0.0732,-0.10736,-0.08784,-0.06832,0.01464,-0.00976,-0.11712,-0.11224,-0.13176,-0.07808,-0.06344
-0.03416,0.06344,-0.09272,-0.07564,-0.05856,0.0122,-0.00976,-0.11224,-0.10736,-0.122,-0.07808,-0.06344
-0.03416,0.05612,-0.07808,-0.061,-0.04392,0.00488,-0.00488,-0.11224,-0.10736,-0.122,-0.07808,-0.06344
-0.03416,0.05612,-0.07808,-0.061,-0.04392,0.00488,-0.00488,-0.11712,-0.10736,-0.122,-0.07808,-0.05856
-0.03416,0.05612,-0.07808,-0.061,-0.04392,0.00488,-0.00488,-0.11712,-0.10248,-0.122,-0.08296,-0.05856
-0.04392,0.05856,-0.0732,-0.05124,-0.02928,-0.00732,-0.00488,-0.11712,-0.11224,-0.11712,-0.08784,-0.05856
-0.04392,0.04392,-0.04392,-0.02196,0,-0.02196,-0.00976,-0.11712,-0.10248,-0.10248,-0.0732,-0.0488
-0.04392,0.00488,0.03416,0.05612,0.07808,-0.061,0,-0.10736,-0.02928,-0.05368,0.00976,0.00488
-0.03904,-0.04636,0.13176,0.15128,0.1708,-0.10492,0.0244,0.03416,0.09272,0.07808,0.122,0.09272
-0.01464,-0.09028,0.1952,0.20252,0.20984,-0.11224,0.02928,0.15616,0.23424,0.1952,0.23912,0.20496
0.05368,-0.15616,0.25864,0.2318,0.20496,-0.07564,0.00976,0.15616,0.35624,0.2684,0.37088,0.3416
0.18056,-0.27816,0.37576,0.28548,0.1952,-0.00732,-0.00976,0.22448,0.55632,0.45872,0.55144,0.50264
0.3172,-0.41236,0.50752,0.34892,0.19032,0.06344,-0.18056,0.00976,0.7564,0.54656,0.76128,0.69296
0.42456,-0.51728,0.61,0.39772,0.18544,0.11956,-0.43432,-0.49288,0.89792,0.488,0.93696,0.87352
0.54656,-0.61488,0.6832,0.40992,0.13664,0.20496,-0.64904,-0.95648,0.9516,0.33184,1.03456,1.00528
0.6588,-0.6466,0.6344,0.305,-0.0244,0.3416,-0.83448,-1.20536,0.94672,0.19032,1.0248,1.01504
0.6832,-0.5978,0.5124,0.1708,-0.1708,0.427,-0.98576,-1.37616,0.81496,0.00976,0.84912,0.89792
0.62952,-0.39284,0.15616,-0.1586,-0.47336,0.55144,-1.06384,-1.57624,0.38552,-0.34648,0.40992,0.56608
0.54168,-0.22204,-0.0976,-0.36844,-0.63928,0.59048,-1.06872,-1.76168,0.01464,-0.6832,0.0732,0.30256
0.40016,-0.14884,-0.10248,-0.30256,-0.50264,0.4514,-1.02968,-1.79584,-0.1708,-0.90768,-0.00976,0.20008
0.28304,-0.09272,-0.0976,-0.23912,-0.38064,0.33184,-0.9272,-1.59576,-0.244,-0.92232,-0.06344,0.1464
0.17568,-0.05856,-0.05856,-0.1464,-0.23424,0.20496,-0.69296,-1.25416,-0.244,-0.76128,-0.0732,0.11712
0.08296,-0.01952,-0.04392,-0.0854,-0.12688,0.10492,-0.4636,-0.98088,-0.32696,-0.67344,-0.13176,0.05368
0.0244,-0.0122,0,-0.0122,-0.0244,0.0244,-0.3416,-0.7564,-0.31232,-0.55632,-0.13176,0.0244
-0.00488,-0.00976,0.0244,0.02684,0.02928,-0.01708,-0.27328,-0.56608,-0.24888,-0.4148,-0.11712,0.01952
0,0.00732,-0.01464,-0.01464,-0.01464,0.00732,-0.19032,-0.40504,-0.22448,-0.3172,-0.11712,0
-0.00488,0.0244,-0.04392,-0.04148,-0.03904,0.01708,-0.08784,-0.27816,-0.20984,-0.25376,-0.11712,-0.03416
-0.01464,0.04148,-0.06832,-0.061,-0.05368,0.01952,-0.05856,-0.2196,-0.18056,-0.21472,-0.11712,-0.05368
-0.0244,0.05124,-0.07808,-0.06588,-0.05368,0.01464,-0.05368,-0.19032,-0.16104,-0.18056,-0.11712,-0.06344
-0.0244,0.05124,-0.07808,-0.06588,-0.05368,0.01464,-0.01952,-0.122,-0.16104,-0.1464,-0.11712,-0.0732
-0.03416,0.06344,-0.09272,-0.07564,-0.05856,0.0122,0.00976,-0.09272,-0.16104,-0.14152,-0.11712,-0.08296
-0.0488,0.07564,-0.10248,-0.07808,-0.05368,0.00244,0.01952,-0.09272,-0.15616,-0.13664,-0.122,-0.09272
-0.05856,0.07808,-0.0976,-0.06832,-0.03904,-0.00976,0.01952,-0.08784,-0.15616,-0.13176,-0.12688,-0.0976
-0.06832,0.0854,-0.10248,-0.06832,-0.03416,-0.01708,0.02928,-0.0732,-0.15616,-0.122,-0.12688,-0.10736
-0.06832,0.0854,-0.10248,-0.06832,-0.03416,-0.01708,0.03904,-0.05856,-0.15128,-0.11224,-0.12688,-0.10736
-0.06344,0.07808,-0.09272,-0.061,-0.02928,-0.01708,0.04392,-0.04392,-0.1464,-0.10736,-0.12688,-0.10248
-0.05856,0.0732,-0.08784,-0.05856,-0.02928,-0.01464,0.05368,-0.03904,-0.1464,-0.10248,-0.12688,-0.10248
-0.05856,0.07564,-0.09272,-0.06344,-0.03416,-0.0122,0.05856,-0.03416,-0.1464,-0.0976,-0.122,-0.10248
-0.05856,0.07564,-0.09272,-0.06344,-0.03416,-0.0122,0.05856,-0.0244,-0.1464,-0.0976,-0.11712,-0.10736
-0.06832,0.08052,-0.09272,-0.05856,-0.0244,-0.02196,0.05856,-0.01952,-0.14152,-0.0976,-0.11712,-0.10248
-0.06832,0.08052,-0.09272,-0.05856,-0.0244,-0.02196,0.05856,-0.01464,-0.13664,-0.0976,-0.11712,-0.0976
-0.06344,0.08052,-0.0976,-0.06588,-0.03416,-0.01464,0.05856,-0.00976,-0.13664,-0.09272,-0.11712,-0.0976
-0.06344,0.08296,-0.10248,-0.07076,-0.03904,-0.0122,0.06344,-0.00976,-0.13176,-0.09272,-0.11712,-0.0976
-0.06832,0.0854,-0.10248,-0.06832,-0.03416,-0.01708,0.06344,-0.00976,-0.13176,-0.09272,-0.11712,-0.0976
-0.06832,0.0854,-0.10248,-0.06832,-0.03416,-0.01708,0.06344,-0.00976,-0.13176,-0.09272,-0.11712,-0.0976
-0.06832,0.08296,-0.0976,-0.06344,-0.02928,-0.01952,0.06832,0,-0.13176,-0.08784,-0.11224,-0.09272
-0.06832,0.08296,-0.0976,-0.06344,-0.02928,-0.01952,0.0732,0.00488,-0.13176,-0.08296,-0.11224,-0.09272
-0.05368,0.07076,-0.08784,-0.061,-0.03416,-0.00976,0.06832,0.00488,-0.12688,-0.08296,-0.10248,-0.08784
-0.04392,0.06344,-0.08296,-0.061,-0.03904,-0.00244,0.06832,0.00488,-0.122,-0.08296,-0.0976,-0.08296
-0.04392,0.06344,-0.08296,-0.061,-0.03904,-0.00244,0.06832,0.00976,-0.122,-0.08296,-0.09272,-0.07808
-0.03904,0.061,-0.08296,-0.06344,-0.04392,0.00244,0.06832,0.01464,-0.122,-0.08784,-0.09272,-0.0732
-0.04392,0.06588,-0.08784,-0.06588,-0.04392,0,0.06832,0.00976,-0.122,-0.08296,-0.0976,-0.0732
-0.05368,0.0732,-0.09272,-0.06588,-0.03904,-0.00732,0.06832,0.00976,-0.12688,-0.08296,-0.0976,-0.0732
-0.05368,0.07076,-0.08784,-0.061,-0.03416,-0.00976,0.05856,0.00976,-0.12688,-0.07808,-0.0976,-0.07808
-0.05856,0.0732,-0.08784,-0.05856,-0.02928,-0.01464,0.05368,0.01464,-0.122,-0.0732,-0.09272,-0.07808
-0.04392,0.06344,-0.08296,-0.061,-0.03904,-0.00244,0.0488,0.0244,-0.11712,-0.06832,-0.09272,-0.07808
-0.0244,0.05124,-0.07808,-0.06588,-0.05368,0.01464,0.0488,0.03416,-0.11712,-0.06832,-0.08296,-0.0732
-0.0244,0.0488,-0.0732,-0.061,-0.0488,0.0122,0.0488,0.03904,-0.11224,-0.05856,-0.07808,-0.06344
-0.01464,0.04148,-0.06832,-0.061,-0.05368,0.01952,0.0488,0.04392,-0.10736,-0.05368,-0.0732,-0.05856
-0.0244,0.04392,-0.06344,-0.05124,-0.03904,0.00732,0.0488,0.04392,-0.10248,-0.05368,-0.0732,-0.05368
-0.0244,0.04636,-0.06832,-0.05612,-0.04392,0.00976,0.04392,0.0488,-0.09272,-0.0488,-0.0732,-0.05368
-0.02928,0.0488,-0.06832,-0.05368,-0.03904,0.00488,0.03904,0.05368,-0.08296,-0.03904,-0.06832,-0.05368
-0.03416,0.0488,-0.06344,-0.04636,-0.02928,-0.00244,0.03416,0.0732,-0.08296,-0.03904,-0.06344,-0.05368
-0.02928,0.04148,-0.05368,-0.03904,-0.0244,-0.00244,0.03416,0.08296,-0.06832,-0.02928,-0.05856,-0.0488
-0.02928,0.04148,-0.05368,-0.03904,-0.0244,-0.00244,0.03416,0.09272,-0.06832,-0.0244,-0.05856,-0.0488
-0.01952,0.02928,-0.03904,-0.02928,-0.01952,0,0.03904,0.0976,-0.05856,-0.00976,-0.0488,-0.04392
-0.01464,0.02196,-0.02928,-0.02196,-0.01464,0,0.03904,0.10736,-0.05368,0,-0.04392,-0.03904
0.00488,0.00976,-0.0244,-0.02684,-0.02928,0.01708,0.03904,0.12688,-0.03904,0.01464,-0.03416,-0.03416
0.01952,-0.00244,-0.01464,-0.0244,-0.03416,0.02684,0.03416,0.14152,-0.03904,0.02928,-0.02928,-0.02928
0.00976,0,-0.00976,-0.01464,-0.01952,0.01464,0.03416,0.16104,-0.01952,0.03904,-0.01464,-0.01952
0.01464,-0.00732,0,-0.00732,-0.01464,0.01464,0.03416,0.17568,-0.01464,0.0488,-0.00488,-0.00488
0.01952,-0.0122,0.00488,-0.00488,-0.01464,0.01708,0.03416,0.19032,0,0.05856,0.00488,0.00488
0.01464,-0.00976,0.00488,-0.00244,-0.00976,0.0122,0.02928,0.20008,0.00976,0.06832,0.01464,0.01952
0.01464,-0.01708,0.01952,0.0122,0.00488,0.00488,0.02928,0.20984,0.01952,0.07808,0.02928,0.03416
0.01952,-0.02684,0.03416,0.0244,0.01464,0.00244,0.02928,0.21472,0.02928,0.08784,0.03904,0.03904
0.0244,-0.03172,0.03904,0.02684,0.01464,0.00488,0.02928,0.23424,0.03904,0.0976,0.05368,0.05368
0.0244,-0.03416,0.04392,0.03172,0.01952,0.00244,0.02928,0.244,0.04392,0.10736,0.05856,0.05368
0.03416,-0.04148,0.0488,0.03172,0.01464,0.00976,0.02928,0.25864,0.0488,0.122,0.06832,0.06344
0.04392,-0.0488,0.05368,0.03172,0.00976,0.01708,0.02928,0.27328,0.06344,0.13664,0.06832,0.06832
0.04392,-0.05124,0.05856,0.0366,0.01464,0.01464,0.0244,0.27328,0.06832,0.14152,0.07808,0.07808
0.0488,-0.05612,0.06344,0.03904,0.01464,0.01708,0.01952,0.28304,0.0732,0.1464,0.08296,0.07808
0.05368,-0.06588,0.07808,0.05124,0.0244,0.01464,0.01952,0.28792,0.08296,0.15616,0.08784,0.08784
0.05368,-0.06832,0.08296,0.05612,0.02928,0.0122,0.01952,0.2928,0.08296,0.16104,0.09272,0.08784
0.05368,-0.07076,0.08784,0.061,0.03416,0.00976,0.01464,0.2928,0.08784,0.16592,0.0976,0.09272
0.05856,-0.0732,0.08784,0.05856,0.02928,0.01464,0.01464,0.2928,0.09272,0.16592,0.09272,0.09272
0.05856,-0.0732,0.08784,0.05856,0.02928,0.01464,0.00488,0.28792,0.09272,0.16592,0.0976,0.0976
0.05856,-0.0732,0.08784,0.05856,0.02928,0.01464,0.00488,0.28304,0.09272,0.16592,0.0976,0.0976
0.06344,-0.08052,0.0976,0.06588,0.03416,0.01464,0,0.27816,0.0976,0.16592,0.10248,0.10248
0.06344,-0.08296,0.10248,0.07076,0.03904,0.0122,-0.00488,0.27328,0.0976,0.16104,0.10248,0.10248
0.06832,-0.08784,0.10736,0.0732,0.03904,0.01464,-0.00976,0.26352,0.09272,0.15616,0.10248,0.0976
0.08296,-0.09516,0.10736,0.06588,0.0244,0.02928,-0.01464,0.25376,0.08784,0.1464,0.0976,0.0976
0.08296,-0.09516,0.10736,0.06588,0.0244,0.02928,-0.01464,0.244,0.08784,0.1464,0.0976,0.10248
0.08296,-0.09272,0.10248,0.061,0.01952,0.03172,-0.0244,0.23424,0.08784,0.14152,0.0976,0.10248
0.08296,-0.09272,0.10248,0.061,0.01952,0.03172,-0.0244,0.22448,0.08296,0.13664,0.0976,0.10248
0.08296,-0.09028,0.0976,0.05612,0.01464,0.03416,-0.02928,0.20496,0.07808,0.13176,0.09272,0.10248
0.07808,-0.0854,0.09272,0.05368,0.01464,0.03172,-0.03416,0.18544,0.0732,0.11712,0.09272,0.10736
0.0732,-0.08296,0.09272,0.05612,0.01952,0.02684,-0.04392,0.1708,0.06832,0.11224,0.08784,0.10736
0.07808,-0.08784,0.0976,0.05856,0.01952,0.02928,-0.0488,0.15616,0.06832,0.10248,0.08784,0.10248
0.07808,-0.0854,0.09272,0.05368,0.01464,0.03172,-0.05368,0.13664,0.06832,0.09272,0.08296,0.10248
0.08296,-0.0854,0.08784,0.04636,0.00488,0.03904,-0.05856,0.122,0.06344,0.08784,0.08784,0.10736
0.09272,-0.09028,0.08784,0.04148,-0.00488,0.0488,-0.06344,0.10248,0.05856,0.07808,0.08296,0.10736
0.09272,-0.09028,0.08784,0.04148,-0.00488,0.0488,-0.06344,0.09272,0.06344,0.07808,0.08296,0.11224
0.08784,-0.08296,0.07808,0.03416,-0.00976,0.0488,-0.06832,0.08296,0.06344,0.06832,0.07808,0.10736
0.08784,-0.08052,0.0732,0.02928,-0.01464,0.05124,-0.06344,0.05856,0.05368,0.06832,0.0732,0.10248
0.07808,-0.0732,0.06832,0.02928,-0.00976,0.04392,-0.05856,0.04392,0.04392,0.05368,0.05368,0.09272
0.06344,-0.05368,0.04392,0.0122,-0.01952,0.04148,-0.06344,0.03416,0.03416,0.05368,0.05368,0.09272
0.06344,-0.05368,0.04392,0.0122,-0.01952,0.04148,-0.06344,0.02928,0.0244,0.04392,0.0488,0.07808
0.05368,-0.03904,0.0244,-0.00244,-0.02928,0.04148,-0.06832,0.01464,0.0244,0.03904,0.03904,0.06832
0.04392,-0.0244,0.00488,-0.01708,-0.03904,0.04148,-0.0732,0.00976,0.01952,0.03904,0.03416,0.05856
0.05856,-0.03904,0.01952,-0.00976,-0.03904,0.0488,-0.06832,0.01464,0.01952,0.04392,0.02928,0.05368
0.06832,-0.04636,0.0244,-0.00976,-0.04392,0.05612,-0.06832,0.00976,0.01464,0.04392,0.0244,0.05368
0.06344,-0.04636,0.02928,-0.00244,-0.03416,0.0488,-0.05856,0.00976,0.01464,0.04392,0.01464,0.05368
0.05856,-0.04636,0.03416,0.00488,-0.0244,0.04148,-0.05856,0.00488,0.00976,0.04392,0.00976,0.0488
0.05368,-0.04392,0.03416,0.00732,-0.01952,0.0366,-0.05368,0,0.00488,0.03416,0.00976,0.0488
0.04392,-0.03172,0.01952,-0.00244,-0.0244,0.03416,-0.0488,-0.00488,0,0.02928,0,0.03904
0.03904,-0.02928,0.01952,0,-0.01952,0.02928,-0.0488,-0.00488,0,0.02928,0,0.03416
0.03416,-0.02684,0.01952,0.00244,-0.01464,0.0244,-0.04392,-0.00976,-0.00976,0.02928,-0.00488,0.03416
0.02928,-0.01952,0.00976,-0.00488,-0.01952,0.0244,-0.04392,-0.00976,0,0.03416,-0.00488,0.03416
0.02928,-0.01708,0.00488,-0.00976,-0.0244,0.02684,-0.03904,-0.00488,0,0.03416,0,0.03904
0.02928,-0.02196,0.01464,0,-0.01464,0.02196,-0.03904,0,0,0.03416,0,0.03904
0.02928,-0.02196,0.01464,0,-0.01464,0.02196,-0.03904,0.00488,0.00488,0.03416,0,0.03904
0.03416,-0.02928,0.0244,0.00732,-0.00976,0.02196,-0.03416,0.00488,0.00976,0.03416,0.00976,0.03904
0.03416,-0.03172,0.02928,0.0122,-0.00488,0.01952,-0.02928,0.00488,0.00976,0.03416,0.01464,0.03904
0.03416,-0.03172,0.02928,0.0122,-0.00488,0.01952,-0.02928,0.00488,0.01464,0.03416,0.01952,0.03904
0.03416,-0.03416,0.03416,0.01708,0,0.01708,-0.02928,0,0.01952,0.03416,0.02928,0.03904
0.01952,-0.0244,0.02928,0.01952,0.00976,0.00488,-0.03416,0,0.0244,0.03416,0.02928,0.03904
0.00488,-0.01464,0.0244,0.02196,0.01952,-0.00732,-0.03416,0,0.02928,0.03416,0.02928,0.03904
0.00488,-0.01464,0.0244,0.02196,0.01952,-0.00732,-0.03416,-0.00488,0.02928,0.03416,0.02928,0.03904
0.00488,-0.01464,0.0244,0.02196,0.01952,-0.00732,-0.03416,-0.00976,0.02928,0.02928,0.0244,0.02928
0.00488,-0.00976,0.01464,0.0122,0.00976,-0.00244,-0.03416,-0.01464,0.01952,0.0244,0.01952,0.0244
0.00488,-0.00488,0.00488,0.00244,0,0.00244,-0.03416,-0.01952,0.01952,0.01952,0.00976,0.01952
0.00488,0.00244,-0.00976,-0.0122,-0.01464,0.00976,-0.03416,-0.01952,0.01464,0.00976,0.00488,0.01952
0,0.01464,-0.02928,-0.02928,-0.02928,0.01464,-0.03416,-0.0244,0.00976,0,0,0.01464
0.00976,-0.00732,0.00488,0,-0.00488,0.00732,-0.03416,-0.02928,0.00976,-0.00488,0.00488,0.01464
0.01464,-0.02196,0.02928,0.02196,0.01464,0,-0.03416,-0.03416,0,-0.00976,0,0.01464
0.00488,-0.01464,0.0244,0.02196,0.01952,-0.00732,-0.03416,-0.02928,0.00488,-0.00488,0.00488,0.00976
0.00488,-0.00732,0.00976,0.00732,0.00488,0,-0.03416,-0.03416,-0.00488,-0.00976,0.00488,0.00488
0,0,0,0,0,0,-0.03416,-0.04392,-0.00488,-0.01464,0,0.00488
-0.00488,0.00488,-0.00488,-0.00244,0,-0.00244,-0.03416,-0.04392,-0.00488,-0.01952,-0.00488,0.00488
-0.00488,0.00488,-0.00488,-0.00244,0,-0.00244,-0.03416,-0.05368,-0.00976,-0.0244,-0.00488,0
-0.00488,0.00488,-0.00488,-0.00244,0,-0.00244,-0.02928,-0.05856,-0.01464,-0.0244,-0.00976,0
-0.00488,0.00732,-0.00976,-0.00732,-0.00488,0,-0.0244,-0.05856,-0.0244,-0.02928,-0.00976,-0.00488
-0.00488,0.00976,-0.01464,-0.0122,-0.00976,0.00244,-0.01952,-0.06832,-0.03416,-0.03416,-0.01952,-0.00976
0,0.00976,-0.01952,-0.01952,-0.01952,0.00976,-0.01952,-0.06832,-0.03904,-0.03904,-0.0244,-0.01464
0.00488,0.00732,-0.01952,-0.02196,-0.0244,0.01464,-0.01952,-0.06832,-0.04392,-0.04392,-0.02928,-0.01464
0,0.00976,-0.01952,-0.01952,-0.01952,0.00976,-0.0244,-0.0732,-0.0488,-0.0488,-0.02928,-0.01952
0,0.00976,-0.01952,-0.01952,-0.01952,0.00976,-0.02928,-0.07808,-0.05368,-0.05368,-0.03416,-0.0244
-0.01464,0.02196,-0.02928,-0.02196,-0.01464,0,-0.02928,-0.08296,-0.05856,-0.06344,-0.03904,-0.02928
-0.01952,0.02684,-0.03416,-0.0244,-0.01464,-0.00244,-0.02928,-0.08784,-0.06344,-0.0732,-0.04392,-0.03416
-0.01464,0.0244,-0.03416,-0.02684,-0.01952,0.00244,-0.02928,-0.08784,-0.06344,-0.0732,-0.0488,-0.03416
-0.01464,0.0244,-0.03416,-0.02684,-0.01952,0.00244,-0.01952,-0.08784,-0.06832,-0.0732,-0.0488,-0.03416
-0.01464,0.0244,-0.03416,-0.02684,-0.01952,0.00244,-0.01464,-0.08784,-0.0732,-0.0732,-0.0488,-0.04392
-0.01464,0.02196,-0.02928,-0.02196,-0.01464,0,-0.00976,-0.08784,-0.0732,-0.0732,-0.05368,-0.05368
-0.01464,0.01952,-0.0244,-0.01708,-0.00976,-0.00244,-0.00976,-0.08784,-0.07808,-0.0732,-0.05856,-0.05368
-0.01464,0.01708,-0.01952,-0.0122,-0.00488,-0.00488,-0.00976,-0.08784,-0.07808,-0.0732,-0.06344,-0.05368
-0.01952,0.02684,-0.03416,-0.0244,-0.01464,-0.00244,-0.00976,-0.08784,-0.07808,-0.0732,-0.06344,-0.05856
-0.01952,0.03416,-0.0488,-0.03904,-0.02928,0.00488,-0.01464,-0.08784,-0.08296,-0.08296,-0.0732,-0.05856
-0.0244,0.03904,-0.05368,-0.04148,-0.02928,0.00244,-0.01464,-0.09272,-0.08296,-0.08296,-0.0732,-0.05856
-0.0244,0.04148,-0.05856,-0.04636,-0.03416,0.00488,-0.01464,-0.09272,-0.08784,-0.08296,-0.0732,-0.05856
-0.0244,0.04148,-0.05856,-0.04636,-0.03416,0.00488,-0.01464,-0.0976,-0.08784,-0.08296,-0.06832,-0.05368
-0.01952,0.0366,-0.05368,-0.04392,-0.03416,0.00732,-0.01464,-0.0976,-0.08784,-0.08296,-0.06344,-0.0488
-0.01464,0.03416,-0.05368,-0.04636,-0.03904,0.0122,-0.00976,-0.09272,-0.08784,-0.07808,-0.06344,-0.0488
-0.01464,0.03416,-0.05368,-0.04636,-0.03904,0.0122,-0.00976,-0.09272,-0.08784,-0.07808,-0.06344,-0.0488
-0.02928,0.04148,-0.05368,-0.03904,-0.0244,-0.00244,-0.01464,-0.09272,-0.08784,-0.08296,-0.06832,-0.0488
-0.04392,0.0488,-0.05368,-0.03172,-0.00976,-0.01708,-0.01952,-0.09272,-0.09272,-0.08784,-0.0732,-0.04392
-0.03904,0.04636,-0.05368,-0.03416,-0.01464,-0.0122,-0.01464,-0.09272,-0.09272,-0.08784,-0.0732,-0.0488
-0.02928,0.04148,-0.05368,-0.03904,-0.0244,-0.00244,-0.01464,-0.09272,-0.09272,-0.08784,-0.0732,-0.05368
-0.01952,0.03172,-0.04392,-0.03416,-0.0244,0.00244,-0.01464,-0.08784,-0.09272,-0.08296,-0.0732,-0.05368
-0.00976,0.02196,-0.03416,-0.02928,-0.0244,0.00732,-0.01464,-0.08784,-0.09272,-0.08296,-0.0732,-0.05856
-0.01952,0.03172,-0.04392,-0.03416,-0.0244,0.00244,-0.01464,-0.08784,-0.09272,-0.08296,-0.07808,-0.05856
-0.01952,0.03172,-0.04392,-0.03416,-0.0244,0.00244,-0.00976,-0.08784,-0.09272,-0.08296,-0.08296,-0.05856
-0.01464,0.02928,-0.04392,-0.0366,-0.02928,0.00732,-0.00976,-0.08784,-0.09272,-0.08296,-0.08296,-0.05856
-0.01952,0.03416,-0.0488,-0.03904,-0.02928,0.00488,-0.00976,-0.08784,-0.09272,-0.07808,-0.08296,-0.06344
-0.01952,0.03172,-0.04392,-0.03416,-0.0244,0.00244,-0.00976,-0.08296,-0.08296,-0.0732,-0.0732,-0.05856
-0.0244,0.03416,-0.04392,-0.03172,-0.01952,-0.00244,-0.00976,-0.08296,-0.0732,-0.0732,-0.06832,-0.05368
-0.01952,0.02928,-0.03904,-0.02928,-0.01952,0,-0.00976,-0.07808,-0.06832,-0.06832,-0.06832,-0.0488
-0.01952,0.02928,-0.03904,-0.02928,-0.01952,0,-0.00976,-0.07808,-0.06832,-0.06832,-0.06832,-0.0488
-0.01952,0.02928,-0.03904,-0.02928,-0.01952,0,-0.00976,-0.07808,-0.06832,-0.06832,-0.06832,-0.0488
-0.01952,0.02928,-0.03904,-0.02928,-0.01952,0,-0.00976,-0.07808,-0.06832,-0.06832,-0.06832,-0.0488
-0.01464,0.02928,-0.04392,-0.0366,-0.02928,0.00732,-0.00976,-0.07808,-0.06832,-0.06832,-0.06344,-0.04392
-0.00976,0.02684,-0.04392,-0.03904,-0.03416,0.0122,-0.00976,-0.07808,-0.06832,-0.06832,-0.05856,-0.03904
-0.00976,0.02684,-0.04392,-0.03904,-0.03416,0.0122,-0.00976,-0.07808,-0.06832,-0.06832,-0.05856,-0.03904
0,0.01708,-0.03416,-0.03416,-0.03416,0.01708,-0.00488,-0.06832,-0.06832,-0.05856,-0.05856,-0.03416
0.00976,0.00732,-0.0244,-0.02928,-0.03416,0.02196,0,-0.0488,-0.05856,-0.04392,-0.04392,-0.0244
0.01952,-0.00732,-0.00488,-0.01464,-0.0244,0.02196,0.00976,-0.01952,-0.03904,-0.01952,-0.02928,-0.00976
0.02928,-0.0244,0.01952,0.00488,-0.00976,0.01952,0.01952,0.00976,-0.01952,0.00488,-0.01464,-0.00488
0.0244,-0.03416,0.04392,0.03172,0.01952,0.00244,0.02928,0.0244,-0.00488,0.00976,0,0.00488
0.02928,-0.03904,0.0488,0.03416,0.01952,0.00488,0.02928,0.02928,-0.00488,0.03416,0,0.00976
0.02928,-0.03904,0.0488,0.03416,0.01952,0.00488,0.04392,0.03904,0.00488,0.0488,0.00488,0.00976
0.0488,-0.0488,0.0488,0.0244,0,0.0244,0.04392,0.06344,0.00976,0.05856,0.00976,0.01952
0.0732,-0.05856,0.04392,0.00732,-0.02928,0.05124,0.03904,0.08784,0.01952,0.06832,0.01952,0.02928
0.08296,-0.06588,0.0488,0.00732,-0.03416,0.05856,0.0244,0.08296,0.01952,0.06832,0.01952,0.03416
0.08296,-0.06832,0.05368,0.0122,-0.02928,0.05612,-0.00976,0.06344,0.01952,0.06344,0.01464,0.03416
0.07808,-0.05856,0.03904,0,-0.03904,0.05856,-0.05368,0.01952,0.00976,0.03416,0.01464,0.03416
0.05856,-0.03904,0.01952,-0.00976,-0.03904,0.0488,-0.05368,-0.02928,-0.02928,-0.01952,-0.01464,0.01464
0.05856,-0.0244,-0.00976,-0.03904,-0.06832,0.06344,-0.05368,-0.0488,-0.05856,-0.05368,-0.02928,0
0.04392,-0.01464,-0.01464,-0.0366,-0.05856,0.05124,-0.04392,-0.05368,-0.06344,-0.06832,-0.04392,-0.01464
0.03904,-0.00488,-0.02928,-0.0488,-0.06832,0.05368,-0.04392,-0.0732,-0.07808,-0.08784,-0.05856,-0.02928
0.02928,0.00244,-0.03416,-0.0488,-0.06344,0.04636,-0.03904,-0.09272,-0.08784,-0.10248,-0.06344,-0.02928
0.0244,0.00976,-0.04392,-0.05612,-0.06832,0.04636,-0.03904,-0.09272,-0.08784,-0.0976,-0.06832,-0.02928
0.01952,0.01708,-0.05368,-0.06344,-0.0732,0.04636,-0.03416,-0.08296,-0.08296,-0.09272,-0.0732,-0.02928
0.02928,0.0122,-0.05368,-0.06832,-0.08296,0.05612,-0.03416,-0.09272,-0.08784,-0.09272,-0.08296,-0.03416
0.01464,0.03416,-0.08296,-0.09028,-0.0976,0.05612,-0.03416,-0.10248,-0.10736,-0.11224,-0.0976,-0.05856
0.00976,0.02684,-0.06344,-0.06832,-0.0732,0.04148,-0.04392,-0.11712,-0.11224,-0.11712,-0.0976,-0.05856
0.00488,0.01708,-0.03904,-0.04148,-0.04392,0.0244,-0.04392,-0.13176,-0.11712,-0.13176,-0.09272,-0.05856
-0.00488,0.01464,-0.0244,-0.02196,-0.01952,0.00732,-0.03416,-0.13176,-0.0976,-0.10736,-0.08784,-0.05368
-0.00976,0.0122,-0.01464,-0.00976,-0.00488,-0.00244,-0.01952,-0.11224,-0.08296,-0.0976,-0.07808,-0.0488
-0.01952,0.01952,-0.01952,-0.00976,0,-0.00976,-0.01464,-0.11224,-0.08784,-0.0976,-0.07808,-0.0488
-0.03416,0.0366,-0.03904,-0.02196,-0.00488,-0.01464,-0.00976,-0.11224,-0.10736,-0.0976,-0.08784,-0.05856
-0.03416,0.04392,-0.05368,-0.0366,-0.01952,-0.00732,-0.00976,-0.10736,-0.10736,-0.10248,-0.09272,-0.06832
-0.03904,0.04636,-0.05368,-0.03416,-0.01464,-0.0122,-0.00976,-0.10736,-0.11224,-0.0976,-0.09272,-0.06832
-0.03416,0.04392,-0.05368,-0.0366,-0.01952,-0.00732,-0.00976,-0.10736,-0.10248,-0.0976,-0.09272,-0.06344
-0.02928,0.03904,-0.0488,-0.03416,-0.01952,-0.00488,-0.00976,-0.10736,-0.09272,-0.0976,-0.09272,-0.06344
-0.02928,0.04148,-0.05368,-0.03904,-0.0244,-0.00244,-0.00976,-0.10736,-0.08784,-0.0976,-0.09272,-0.06344
-0.02928,0.04392,-0.05856,-0.04392,-0.02928,0,-0.00976,-0.0976,-0.08296,-0.09272,-0.08784,-0.06344
-0.0244,0.03904,-0.05368,-0.04148,-0.02928,0.00244,-0.00976,-0.09272,-0.07808,-0.08296,-0.08784,-0.06344
-0.0244,0.0366,-0.0488,-0.0366,-0.0244,0,-0.00488,-0.09272,-0.07808,-0.08296,-0.08784,-0.06344
-0.01952,0.02928,-0.03904,-0.02928,-0.01952,0,0,-0.08784,-0.07808,-0.08296,-0.0732,-0.05368
-0.01464,0.02196,-0.02928,-0.02196,-0.01464,0,0.00488,-0.07808,-0.0732,-0.08296,-0.06344,-0.0488
-0.0244,0.02196,-0.01952,-0.00732,0.00488,-0.01464,0.00976,-0.06832,-0.05856,-0.06832,-0.05368,-0.03416
-0.0244,0.00488,0.01464,0.02684,0.03904,-0.03172,0.00976,-0.05856,-0.0244,-0.04392,-0.0244,-0.00976
-0.03416,-0.0244,0.08296,0.10004,0.11712,-0.07564,0.01952,-0.03904,0.05368,0.00488,0.05856,0.0488
-0.03904,-0.06588,0.1708,0.19032,0.20984,-0.12444,0.04392,0.11224,0.18056,0.13664,0.1708,0.14152
0.01952,-0.14152,0.26352,0.25376,0.244,-0.11224,0.04392,0.23424,0.33672,0.27328,0.31232,0.26352
0.122,-0.23912,0.35624,0.29524,0.23424,-0.05612,0.01952,0.23424,0.47336,0.366,0.46848,0.40992
0.24888,-0.33916,0.42944,0.305,0.18056,0.03416,-0.0244,0.22448,0.63928,0.50264,0.61488,0.55144
0.38552,-0.4514,0.51728,0.32452,0.13176,0.12688,-0.2196,-0.06832,0.8052,0.5368,0.79056,0.72224
0.48312,-0.54412,0.60512,0.36356,0.122,0.18056,-0.4636,-0.5368,0.9272,0.47824,0.94184,0.88816
0.59536,-0.62952,0.66368,0.366,0.06832,0.26352,-0.66856,-0.96624,0.96136,0.32208,1.01504,1.00528
0.68808,-0.63684,0.5856,0.24156,-0.10248,0.39528,-0.8296,-1.21512,0.89792,0.1464,0.9516,0.96136
0.69296,-0.56364,0.43432,0.08784,-0.25864,0.4758,-0.95648,-1.38592,0.7076,-0.06832,0.72224,0.79056
0.61488,-0.38552,0.15616,-0.15128,-0.45872,0.5368,-1.01504,-1.57624,0.32696,-0.3904,0.34648,0.50752
0.50264,-0.24156,-0.01952,-0.27084,-0.52216,0.5124,-1.0004,-1.75192,0.00488,-0.69296,0.0732,0.2928
0.37088,-0.17568,-0.01952,-0.20496,-0.3904,0.38064,-0.94184,-1.73728,-0.16592,-0.88816,0.00488,0.19032
0.26352,-0.12688,-0.00976,-0.14152,-0.27328,0.2684,-0.81984,-1.4884,-0.22448,-0.87352,-0.03416,0.13664
0.16104,-0.09516,0.02928,-0.05124,-0.13176,0.1464,-0.61,-1.15168,-0.21472,-0.68808,-0.04392,0.10736
0.0732,-0.05856,0.04392,0.00732,-0.02928,0.05124,-0.40504,-0.88328,-0.28792,-0.57584,-0.10248,0.04392
0.03904,-0.05368,0.06832,0.0488,0.02928,0.00488,-0.28304,-0.6588,-0.27328,-0.488,-0.10248,0.01464
0.03416,-0.05368,0.0732,0.05612,0.03904,-0.00244,-0.21472,-0.46848,-0.20984,-0.37576,-0.08784,0.00976
0.03416,-0.04392,0.05368,0.0366,0.01952,0.00732,-0.13176,-0.31232,-0.16592,-0.24888,-0.08296,-0.00488
0.0244,-0.03416,0.04392,0.03172,0.01952,0.00244,-0.02928,-0.19032,-0.13176,-0.15616,-0.07808,-0.03416
0.01464,-0.01464,0.01464,0.00732,0,0.00732,-0.00488,-0.13664,-0.11712,-0.14152,-0.07808,-0.04392
0.00488,-0.00244,0,-0.00244,-0.00488,0.00488,-0.00488,-0.11224,-0.11224,-0.13176,-0.07808,-0.04392
-0.00976,0.00976,-0.00976,-0.00488,0,-0.00488,0.02928,-0.05368,-0.10736,-0.09272,-0.08296,-0.05856
-0.03416,0.03416,-0.03416,-0.01708,0,-0.01708,0.05856,-0.03416,-0.10248,-0.08296,-0.08784,-0.0732
-0.03904,0.04392,-0.0488,-0.02928,-0.00976,-0.01464,0.06344,-0.03416,-0.0976,-0.07808,-0.08784,-0.07808
-0.03904,0.04392,-0.0488,-0.02928,-0.00976,-0.01464,0.05856,-0.02928,-0.0976,-0.0732,-0.08784,-0.07808
-0.0488,0.05124,-0.05368,-0.02928,-0.00488,-0.02196,0.06832,-0.01952,-0.10248,-0.0732,-0.08784,-0.08784
-0.0488,0.05124,-0.05368,-0.02928,-0.00488,-0.02196,0.07808,-0.00976,-0.10248,-0.0732,-0.08784,-0.08784
-0.04392,0.04392,-0.04392,-0.02196,0,-0.02196,0.08296,0.00488,-0.0976,-0.06832,-0.08296,-0.08296
-0.03904,0.03904,-0.03904,-0.01952,0,-0.01952,0.09272,0.00976,-0.0976,-0.06344,-0.07808,-0.08296
-0.03904,0.03904,-0.03904,-0.01952,0,-0.01952,0.0976,0.00976,-0.0976,-0.05856,-0.07808,-0.07808
-0.03904,0.0366,-0.03416,-0.01464,0.00488,-0.02196,0.0976,0.01464,-0.0976,-0.05856,-0.07808,-0.07808
-0.0488,0.04148,-0.03416,-0.00976,0.01464,-0.03172,0.0976,0.01952,-0.0976,-0.05856,-0.07808,-0.07808
-0.0488,0.04148,-0.03416,-0.00976,0.01464,-0.03172,0.0976,0.0244,-0.0976,-0.05856,-0.07808,-0.07808
-0.04392,0.03904,-0.03416,-0.0122,0.00976,-0.02684,0.09272,0.02928,-0.0976,-0.05368,-0.07808,-0.07808
-0.04392,0.03904,-0.03416,-0.0122,0.00976,-0.02684,0.09272,0.02928,-0.09272,-0.05368,-0.07808,-0.07808
-0.04392,0.03904,-0.03416,-0.0122,0.00976,-0.02684,0.09272,0.02928,-0.09272,-0.05368,-0.07808,-0.07808
-0.03904,0.0366,-0.03416,-0.01464,0.00488,-0.02196,0.09272,0.02928,-0.09272,-0.05368,-0.07808,-0.07808
-0.03904,0.03416,-0.02928,-0.00976,0.00976,-0.0244,0.09272,0.03416,-0.09272,-0.05368,-0.0732,-0.0732
-0.03904,0.03416,-0.02928,-0.00976,0.00976,-0.0244,0.09272,0.03416,-0.09272,-0.05368,-0.0732,-0.0732
-0.03416,0.02928,-0.0244,-0.00732,0.00976,-0.02196,0.08784,0.03904,-0.08296,-0.0488,-0.06832,-0.0732
-0.03416,0.02928,-0.0244,-0.00732,0.00976,-0.02196,0.08784,0.04392,-0.0732,-0.04392,-0.06832,-0.0732
-0.03416,0.02928,-0.0244,-0.00732,0.00976,-0.02196,0.08784,0.0488,-0.0732,-0.03904,-0.06344,-0.06832
-0.02928,0.02684,-0.0244,-0.00976,0.00488,-0.01708,0.08784,0.05368,-0.0732,-0.03904,-0.06344,-0.06344
-0.0244,0.0244,-0.0244,-0.0122,0,-0.0122,0.08784,0.05368,-0.06832,-0.03416,-0.06344,-0.06344
-0.0244,0.0244,-0.0244,-0.0122,0,-0.0122,0.08784,0.05856,-0.06832,-0.03416,-0.05856,-0.06344
-0.0244,0.02196,-0.01952,-0.00732,0.00488,-0.01464,0.08784,0.05368,-0.06832,-0.03416,-0.05856,-0.06344
-0.02928,0.0244,-0.01952,-0.00488,0.00976,-0.01952,0.09272,0.05368,-0.06344,-0.03416,-0.05368,-0.05856
-0.02928,0.0244,-0.01952,-0.00488,0.00976,-0.01952,0.08784,0.05856,-0.05856,-0.02928,-0.05368,-0.05856
-0.0244,0.02196,-0.01952,-0.00732,0.00488,-0.01464,0.08784,0.06344,-0.05856,-0.02928,-0.04392,-0.05368
-0.0244,0.01952,-0.01464,-0.00244,0.00976,-0.01708,0.08784,0.0732,-0.05368,-0.01952,-0.03904,-0.04392
-0.01464,0.0122,-0.00976,-0.00244,0.00488,-0.00976,0.08784,0.08296,-0.0488,-0.01464,-0.03416,-0.03904
-0.01464,0.00732,0,0.00732,0.01464,-0.01464,0.08784,0.08784,-0.04392,-0.00976,-0.02928,-0.03416
-0.00488,0.00244,0,0.00244,0.00488,-0.00488,0.08296,0.0976,-0.03416,0,-0.0244,-0.03416
0,0,0,0,0,0,0.08296,0.10248,-0.0244,0.00976,-0.01464,-0.03416
0.00488,-0.00488,0.00488,0.00244,0,0.00244,0.08296,0.122,-0.0244,0.00976,-0.00488,-0.03416
0.00976,-0.0122,0.01464,0.00976,0.00488,0.00244,0.08296,0.13176,-0.00976,0.01952,0,-0.0244
0.00976,-0.0122,0.01464,0.00976,0.00488,0.00244,0.08296,0.14152,-0.00976,0.0244,0,-0.01952
0.01464,-0.01952,0.0244,0.01708,0.00976,0.00244,0.08296,0.1464,0,0.03416,0.00488,-0.01464
0.01464,-0.02196,0.02928,0.02196,0.01464,0,0.07808,0.15616,0.00488,0.03904,0.00488,-0.00976
0.00976,-0.02196,0.03416,0.02928,0.0244,-0.00732,0.0732,0.1708,0.01464,0.0488,0.01464,-0.00488
0,-0.02196,0.04392,0.04392,0.04392,-0.02196,0.06344,0.18056,0.00976,0.05856,0.01952,0
0.00976,-0.02928,0.0488,0.04392,0.03904,-0.01464,0.06344,0.20008,0.0244,0.06832,0.03416,0.00976
0.03416,-0.04636,0.05856,0.04148,0.0244,0.00488,0.06344,0.21472,0.0244,0.07808,0.04392,0.0244
0.04392,-0.05856,0.0732,0.05124,0.02928,0.00732,0.06344,0.22448,0.03904,0.08784,0.05368,0.02928
0.04392,-0.06344,0.08296,0.061,0.03904,0.00244,0.05856,0.22936,0.0488,0.0976,0.06344,0.03904
0.04392,-0.06588,0.08784,0.06588,0.04392,0,0.05856,0.23912,0.05368,0.10736,0.0732,0.0488
0.0488,-0.07076,0.09272,0.06832,0.04392,0.00244,0.05856,0.244,0.05856,0.11712,0.07808,0.0488
0.05368,-0.07808,0.10248,0.07564,0.0488,0.00244,0.05368,0.26352,0.0732,0.12688,0.09272,0.06344
0.05368,-0.08296,0.11224,0.0854,0.05856,-0.00244,0.0488,0.27328,0.08296,0.13664,0.0976,0.06344
0.05856,-0.08784,0.11712,0.08784,0.05856,0,0.0488,0.28304,0.08784,0.1464,0.10736,0.0732
0.06344,-0.09272,0.122,0.09028,0.05856,0.00244,0.0488,0.2928,0.10248,0.15616,0.10736,0.07808
0.06344,-0.09516,0.12688,0.09516,0.06344,0,0.04392,0.2928,0.10248,0.16104,0.11224,0.08784
0.06832,-0.10004,0.13176,0.0976,0.06344,0.00244,0.03904,0.30256,0.10248,0.16592,0.11224,0.08784
0.07808,-0.11224,0.1464,0.10736,0.06832,0.00488,0.03904,0.30744,0.11224,0.17568,0.11224,0.0976
0.08296,-0.11712,0.15128,0.1098,0.06832,0.00732,0.03904,0.31232,0.11224,0.18056,0.11224,0.0976
0.08296,-0.11956,0.15616,0.11468,0.0732,0.00488,0.03904,0.31232,0.11712,0.18544,0.122,0.10736
0.08784,-0.122,0.15616,0.11224,0.06832,0.00976,0.04392,0.31232,0.122,0.18544,0.122,0.11224
0.08296,-0.11712,0.15128,0.1098,0.06832,0.00732,0.03416,0.30744,0.122,0.18544,0.12688,0.11712
0.07808,-0.11224,0.1464,0.10736,0.06832,0.00488,0.03416,0.30256,0.122,0.18544,0.12688,0.11712
0.08296,-0.11712,0.15128,0.1098,0.06832,0.00732,0.02928,0.29768,0.12688,0.19032,0.13176,0.122
0.08296,-0.11712,0.15128,0.1098,0.06832,0.00732,0.0244,0.2928,0.12688,0.19032,0.13176,0.122
0.08784,-0.12444,0.16104,0.11712,0.0732,0.00732,0.0244,0.28792,0.12688,0.19032,0.14152,0.122
0.10248,-0.1342,0.16592,0.11468,0.06344,0.01952,0.0244,0.28304,0.12688,0.18544,0.1464,0.12688
0.11224,-0.14152,0.1708,0.11468,0.05856,0.02684,0.0244,0.27328,0.12688,0.18544,0.1464,0.13176
0.122,-0.1464,0.1708,0.1098,0.0488,0.0366,0.01464,0.26352,0.12688,0.18056,0.1464,0.13176
0.11224,-0.13908,0.16592,0.1098,0.05368,0.02928,0.01464,0.25376,0.122,0.1708,0.14152,0.13176
0.10248,-0.12932,0.15616,0.10492,0.05368,0.0244,0.00976,0.23424,0.11712,0.16104,0.13176,0.13176
0.10248,-0.12688,0.15128,0.10004,0.0488,0.02684,0.00488,0.21472,0.11224,0.14152,0.13176,0.13176
0.10248,-0.12688,0.15128,0.10004,0.0488,0.02684,-0.00488,0.20008,0.10736,0.13176,0.12688,0.12688
0.10736,-0.12932,0.15128,0.0976,0.04392,0.03172,-0.01464,0.18544,0.10248,0.12688,0.12688,0.122
0.10736,-0.12444,0.14152,0.08784,0.03416,0.0366,-0.0244,0.16592,0.0976,0.122,0.122,0.122
0.10248,-0.11956,0.13664,0.0854,0.03416,0.03416,-0.02928,0.1464,0.09272,0.11712,0.122,0.122
0.10248,-0.11956,0.13664,0.0854,0.03416,0.03416,-0.03416,0.122,0.08784,0.10736,0.11224,0.11712
0.11224,-0.12688,0.14152,0.0854,0.02928,0.04148,-0.03416,0.11712,0.08784,0.10736,0.11224,0.11712
0.11712,-0.12688,0.13664,0.07808,0.01952,0.0488,-0.03904,0.11224,0.08296,0.0976,0.10736,0.10736
0.12688,-0.12932,0.13176,0.06832,0.00488,0.061,-0.04392,0.08784,0.0732,0.0976,0.10248,0.10736
0.12688,-0.12688,0.12688,0.06344,0,0.06344,-0.0488,0.0732,0.06344,0.08296,0.08296,0.10248
0.10248,-0.10004,0.0976,0.04636,-0.00488,0.05368,-0.05368,0.06344,0.05856,0.08296,0.08784,0.11224
0.09272,-0.09272,0.09272,0.04636,0,0.04636,-0.05368,0.05856,0.05368,0.0732,0.08784,0.10736
0.09272,-0.09272,0.09272,0.04636,0,0.04636,-0.0488,0.0488,0.05856,0.06832,0.07808,0.10248
0.09272,-0.09272,0.09272,0.04636,0,0.04636,-0.04392,0.0488,0.05856,0.06832,0.0732,0.0976
0.09272,-0.09028,0.08784,0.04148,-0.00488,0.0488,-0.03904,0.0488,0.05856,0.06832,0.06832,0.08296
0.08784,-0.08052,0.0732,0.02928,-0.01464,0.05124,-0.03904,0.03904,0.05368,0.06344,0.06344,0.0732
0.08296,-0.07808,0.0732,0.03172,-0.00976,0.04636,-0.02928,0.03904,0.05368,0.06344,0.05856,0.06344
0.07808,-0.07564,0.0732,0.03416,-0.00488,0.04148,-0.02928,0.03416,0.0488,0.06344,0.05856,0.0488
0.0732,-0.07808,0.08296,0.04636,0.00976,0.03172,-0.0244,0.02928,0.0488,0.06344,0.05856,0.05856
0.06344,-0.07076,0.07808,0.04636,0.01464,0.0244,-0.01952,0.0244,0.0488,0.06832,0.0488,0.05856
0.05856,-0.06832,0.07808,0.0488,0.01952,0.01952,-0.01952,0.0244,0.0488,0.06832,0.0488,0.05368
0.05368,-0.06588,0.07808,0.05124,0.0244,0.01464,-0.01464,0.01952,0.03904,0.06832,0.04392,0.05368
0.04392,-0.05612,0.06832,0.04636,0.0244,0.00976,-0.01952,0.01464,0.04392,0.0732,0.03904,0.05368
0.03904,-0.05124,0.06344,0.04392,0.0244,0.00732,-0.01952,0.01464,0.03904,0.0732,0.03904,0.05856
0.03904,-0.05612,0.0732,0.05368,0.03416,0.00244,-0.01952,0.00976,0.03416,0.06832,0.03904,0.05856
0.03904,-0.05612,0.0732,0.05368,0.03416,0.00244,-0.01952,0.00488,0.03416,0.06344,0.03904,0.05856
0.04392,-0.06588,0.08784,0.06588,0.04392,0,-0.01952,0.00488,0.03904,0.06344,0.04392,0.05856
0.04392,-0.07076,0.0976,0.07564,0.05368,-0.00488,-0.01952,0.00488,0.03904,0.06344,0.04392,0.05856
0.05368,-0.07564,0.0976,0.07076,0.04392,0.00488,-0.01952,0.00488,0.03904,0.06344,0.04392,0.05856
0.06344,-0.08296,0.10248,0.07076,0.03904,0.0122,-0.01952,0,0.03904,0.06344,0.0488,0.05856
0.05856,-0.08052,0.10248,0.0732,0.04392,0.00732,-0.01952,0,0.03904,0.06344,0.04392,0.05856
0.05368,-0.07808,0.10248,0.07564,0.0488,0.00244,-0.01464,0,0.03904,0.06344,0.03904,0.05856
0.0488,-0.0732,0.0976,0.0732,0.0488,0,-0.01464,-0.00488,0.03904,0.06344,0.03904,0.05856
0.04392,-0.06832,0.09272,0.07076,0.0488,-0.00244,-0.01464,-0.00976,0.03904,0.05856,0.03416,0.0488
0.04392,-0.06588,0.08784,0.06588,0.04392,0,-0.01464,-0.01464,0.02928,0.05368,0.03904,0.0488
0.04392,-0.06344,0.08296,0.061,0.03904,0.00244,-0.01464,-0.01952,0.02928,0.0488,0.03904,0.0488
0.04392,-0.06344,0.08296,0.061,0.03904,0.00244,-0.01464,-0.01952,0.0244,0.04392,0.03416,0.0488
0.03904,-0.05856,0.07808,0.05856,0.03904,0,-0.01464,-0.0244,0.01952,0.03904,0.02928,0.04392
0.03904,-0.05856,0.07808,0.05856,0.03904,0,-0.01464,-0.02928,0.01952,0.03416,0.0244,0.03416
0.03416,-0.05124,0.06832,0.05124,0.03416,0,-0.01464,-0.03416,0.00976,0.02928,0.00976,0.0244
0.01952,-0.04148,0.06344,0.05368,0.04392,-0.0122,-0.01464,-0.03416,0.00488,0.0244,0.00976,0.01952
0.01464,-0.03172,0.0488,0.04148,0.03416,-0.00976,-0.01464,-0.04392,-0.01464,0.00976,0.00488,0.01464
0.00976,-0.02684,0.04392,0.03904,0.03416,-0.0122,-0.01464,-0.05368,-0.01952,0.00488,0,0.01464
0.00488,-0.0244,0.04392,0.04148,0.03904,-0.01708,-0.01464,-0.05368,-0.0244,0,-0.00488,0.01464
0,-0.01952,0.03904,0.03904,0.03904,-0.01952,-0.01952,-0.06344,-0.02928,-0.00976,-0.00488,0.00976
-0.00488,-0.01464,0.03416,0.0366,0.03904,-0.02196,-0.01952,-0.06832,-0.03416,-0.01464,-0.00976,0.00976
-0.00488,-0.00732,0.01952,0.02196,0.0244,-0.01464,-0.01952,-0.06832,-0.03904,-0.01952,-0.01464,-0.00488
-0.00488,0,0.00488,0.00732,0.00976,-0.00732,-0.01952,-0.07808,-0.04392,-0.0244,-0.02928,-0.01952
0.00488,-0.00732,0.00976,0.00732,0.00488,0,-0.01952,-0.07808,-0.0488,-0.02928,-0.03416,-0.0244
0.01464,-0.01708,0.01952,0.0122,0.00488,0.00488,-0.01952,-0.07808,-0.05368,-0.03416,-0.03904,-0.0244
0.01952,-0.01952,0.01952,0.00976,0,0.00976,-0.01464,-0.07808,-0.05856,-0.03416,-0.03416,-0.01952
0.02928,-0.0244,0.01952,0.00488,-0.00976,0.01952,-0.00976,-0.07808,-0.06344,-0.03416,-0.03416,-0.01464
0.00488,-0.00488,0.00488,0.00244,0,0.00244,-0.00976,-0.08296,-0.06832,-0.03904,-0.03904,-0.01952
-0.00976,0.00732,-0.00488,0,0.00488,-0.00732,-0.00976,-0.08784,-0.0732,-0.04392,-0.04392,-0.0244
-0.00976,0.00976,-0.00976,-0.00488,0,-0.00488,-0.01464,-0.08784,-0.0732,-0.04392,-0.0488,-0.0244
-0.01464,0.01464,-0.01464,-0.00732,0,-0.00732,-0.00976,-0.08784,-0.07808,-0.04392,-0.0488,-0.0244
-0.01464,0.01708,-0.01952,-0.0122,-0.00488,-0.00488,-0.00976,-0.08784,-0.08296,-0.04392,-0.0488,-0.02928
-0.01464,0.01708,-0.01952,-0.0122,-0.00488,-0.00488,-0.00976,-0.08784,-0.08296,-0.04392,-0.05368,-0.03416
-0.00976,0.00976,-0.00976,-0.00488,0,-0.00488,-0.00976,-0.08784,-0.08784,-0.0488,-0.05368,-0.03416
-0.00488,0.00244,0,0.00244,0.00488,-0.00488,-0.00976,-0.08784,-0.08784,-0.05368,-0.05368,-0.03416
-0.00488,0.00244,0,0.00244,0.00488,-0.00488,-0.00488,-0.08784,-0.08296,-0.05368,-0.05368,-0.03904
0,0,0,0,0,0,-0.00488,-0.08784,-0.08296,-0.06344,-0.06344,-0.03904
-0.00488,0.00976,-0.01464,-0.0122,-0.00976,0.00244,-0.00488,-0.08784,-0.08296,-0.06344,-0.06344,-0.03904
-0.00488,0.01708,-0.02928,-0.02684,-0.0244,0.00976,-0.00488,-0.08296,-0.08784,-0.06344,-0.06344,-0.03904
-0.00976,0.02196,-0.03416,-0.02928,-0.0244,0.00732,-0.00488,-0.08784,-0.08784,-0.06344,-0.06344,-0.03904
-0.00976,0.02196,-0.03416,-0.02928,-0.0244,0.00732,-0.00488,-0.08784,-0.08784,-0.06344,-0.06344,-0.03904
-0.00488,0.01952,-0.03416,-0.03172,-0.02928,0.0122,-0.00488,-0.08296,-0.08296,-0.05856,-0.06344,-0.03904
-0.00488,0.01952,-0.03416,-0.03172,-0.02928,0.0122,-0.00976,-0.08296,-0.07808,-0.05856,-0.06344,-0.03904
0,0.01464,-0.02928,-0.02928,-0.02928,0.01464,-0.00976,-0.08296,-0.07808,-0.05856,-0.06344,-0.03904
0.00488,0.00976,-0.0244,-0.02684,-0.02928,0.01708,-0.00976,-0.08296,-0.08296,-0.05856,-0.06344,-0.03416
0,0.0122,-0.0244,-0.0244,-0.0244,0.0122,-0.00488,-0.08784,-0.08784,-0.06344,-0.06832,-0.03904
0,0.0122,-0.0244,-0.0244,-0.0244,0.0122,-0.00488,-0.09272,-0.09272,-0.06832,-0.0732,-0.04392
-0.00488,0.01708,-0.02928,-0.02684,-0.0244,0.00976,-0.00976,-0.09272,-0.09272,-0.06832,-0.0732,-0.04392
-0.00976,0.02196,-0.03416,-0.02928,-0.0244,0.00732,-0.01464,-0.0976,-0.09272,-0.0732,-0.0732,-0.0488
-0.01952,0.03172,-0.04392,-0.03416,-0.0244,0.00244,-0.01464,-0.09272,-0.09272,-0.06832,-0.0732,-0.04392
-0.01952,0.03172,-0.04392,-0.03416,-0.0244,0.00244,-0.00976,-0.08784,-0.09272,-0.06344,-0.0732,-0.03904
-0.00976,0.0244,-0.03904,-0.03416,-0.02928,0.00976,-0.00976,-0.08296,-0.09272,-0.06344,-0.0732,-0.03904
-0.00976,0.0244,-0.03904,-0.03416,-0.02928,0.00976,-0.00976,-0.07808,-0.09272,-0.05856,-0.0732,-0.04392
-0.00488,0.01952,-0.03416,-0.03172,-0.02928,0.0122,-0.00488,-0.08296,-0.09272,-0.05856,-0.0732,-0.04392
0,0.01464,-0.02928,-0.02928,-0.02928,0.01464,0,-0.08784,-0.0976,-0.05856,-0.07808,-0.0488
0,0.0122,-0.0244,-0.0244,-0.0244,0.0122,0,-0.08784,-0.10248,-0.05856,-0.07808,-0.0488
0,0.00976,-0.01952,-0.01952,-0.01952,0.00976,0,-0.08784,-0.10736,-0.05856,-0.07808,-0.0488
0,0.00732,-0.01464,-0.01464,-0.01464,0.00732,0,-0.08784,-0.10736,-0.05856,-0.07808,-0.0488
0,0.00732,-0.01464,-0.01464,-0.01464,0.00732,0,-0.08784,-0.10248,-0.05856,-0.0732,-0.0488
0,0.00976,-0.01952,-0.01952,-0.01952,0.00976,-0.00488,-0.08784,-0.10248,-0.05856,-0.0732,-0.0488
0,0.00976,-0.01952,-0.01952,-0.01952,0.00976,-0.00488,-0.08784,-0.0976,-0.05856,-0.06832,-0.0488
0.00488,0.00976,-0.0244,-0.02684,-0.02928,0.01708,-0.00976,-0.07808,-0.0976,-0.0488,-0.06832,-0.04392
0.00976,0.00732,-0.0244,-0.02928,-0.03416,0.02196,-0.00976,-0.05856,-0.08296,-0.03416,-0.05368,-0.03416
0.01952,0,-0.01952,-0.02928,-0.03904,0.02928,0,-0.02928,-0.05856,-0.00976,-0.03904,-0.01464
0.03416,-0.01464,-0.00488,-0.02196,-0.03904,0.0366,0.01464,0,-0.03416,0.0244,-0.01952,0.00488
0.03416,-0.0366,0.03904,0.02196,0.00488,0.01464,0.02928,0.01464,-0.00976,0.03904,0,0.0244
0.03904,-0.0488,0.05856,0.03904,0.01952,0.00976,0.02928,0.01952,-0.00488,0.05368,0,0.02928
0.03904,-0.05612,0.0732,0.05368,0.03416,0.00244,0.0488,0.02928,0.00976,0.06832,0.00488,0.02928
0.05368,-0.07076,0.08784,0.061,0.03416,0.00976,0.05368,0.05368,0.01952,0.08784,0.00976,0.03416
0.0732,-0.0732,0.0732,0.0366,0,0.0366,0.05856,0.08296,0.02928,0.0976,0.0244,0.03904
0.08296,-0.0732,0.06344,0.02196,-0.01952,0.05124,0.0488,0.08784,0.02928,0.0976,0.02928,0.04392
0.08296,-0.0732,0.06344,0.02196,-0.01952,0.05124,0,0.0732,0.02928,0.09272,0.0244,0.04392
0.07808,-0.061,0.04392,0.00488,-0.03416,0.05612,-0.05368,0.02928,0.01952,0.06344,0.0244,0.04392
0.05856,-0.03904,0.01952,-0.00976,-0.03904,0.0488,-0.05368,-0.01952,-0.0244,0.00976,-0.00488,0.0244
0.05856,-0.0244,-0.00976,-0.03904,-0.06832,0.06344,-0.05368,-0.03904,-0.05856,-0.01464,-0.01952,0.00976
0.04392,-0.00732,-0.02928,-0.05124,-0.0732,0.05856,-0.04392,-0.04392,-0.06344,-0.0244,-0.03904,-0.00488
0.03904,0.00976,-0.05856,-0.07808,-0.0976,0.06832,-0.04392,-0.06344,-0.07808,-0.0488,-0.05856,-0.01952
0.03416,0.00732,-0.0488,-0.06588,-0.08296,0.05856,-0.03904,-0.08784,-0.08784,-0.06344,-0.06344,-0.0244
0.03904,-0.00244,-0.03416,-0.05368,-0.0732,0.05612,-0.03904,-0.09272,-0.09272,-0.06344,-0.06344,-0.02928
0.03904,-0.00244,-0.03416,-0.05368,-0.0732,0.05612,-0.03416,-0.08296,-0.09272,-0.06344,-0.06344,-0.02928
0.0488,-0.00732,-0.03416,-0.05856,-0.08296,0.06588,-0.03416,-0.09272,-0.0976,-0.06344,-0.0732,-0.03416
0.02928,0.01708,-0.06344,-0.07808,-0.09272,0.061,-0.03416,-0.10248,-0.11712,-0.08784,-0.08784,-0.05856
0.01464,0.02684,-0.06832,-0.07564,-0.08296,0.0488,-0.04392,-0.11712,-0.12688,-0.10248,-0.09272,-0.05856
0.00488,0.03172,-0.06832,-0.07076,-0.0732,0.03904,-0.0488,-0.13176,-0.13664,-0.122,-0.09272,-0.05856
-0.00488,0.0244,-0.04392,-0.04148,-0.03904,0.01708,-0.04392,-0.13176,-0.11712,-0.0976,-0.08784,-0.05368
-0.01952,0.02684,-0.03416,-0.0244,-0.01464,-0.00244,-0.02928,-0.11224,-0.10248,-0.08784,-0.07808,-0.0488
-0.03416,0.03904,-0.04392,-0.02684,-0.00976,-0.0122,-0.0244,-0.11224,-0.10248,-0.08784,-0.07808,-0.0488
-0.04392,0.05124,-0.05856,-0.0366,-0.01464,-0.01464,-0.01952,-0.11224,-0.11712,-0.08784,-0.08784,-0.05856
-0.04392,0.05856,-0.0732,-0.05124,-0.02928,-0.00732,-0.01952,-0.11224,-0.11712,-0.0976,-0.09272,-0.06832
-0.03416,0.04636,-0.05856,-0.04148,-0.0244,-0.00488,-0.01464,-0.11224,-0.122,-0.09272,-0.09272,-0.06832
-0.01952,0.03172,-0.04392,-0.03416,-0.0244,0.00244,-0.00976,-0.10736,-0.122,-0.08784,-0.09272,-0.06344
-0.00976,0.0244,-0.03904,-0.03416,-0.02928,0.00976,-0.00976,-0.10736,-0.122,-0.08784,-0.09272,-0.06344
0,0.01952,-0.03904,-0.03904,-0.03904,0.01952,-0.00976,-0.10736,-0.122,-0.08784,-0.09272,-0.06344
-0.01464,0.03172,-0.0488,-0.04148,-0.03416,0.00976,-0.00976,-0.0976,-0.122,-0.08296,-0.09272,-0.06344
-0.0244,0.03904,-0.05368,-0.04148,-0.02928,0.00244,-0.00976,-0.09272,-0.11712,-0.0732,-0.0976,-0.06344
-0.02928,0.03904,-0.0488,-0.03416,-0.01952,-0.00488,-0.00488,-0.09272,-0.11712,-0.0732,-0.0976,-0.06344
-0.03416,0.04148,-0.0488,-0.03172,-0.01464,-0.00976,-0.00488,-0.09272,-0.11712,-0.0732,-0.09272,-0.05856
-0.03416,0.04148,-0.0488,-0.03172,-0.01464,-0.00976,-0.01464,-0.09272,-0.11224,-0.07808,-0.09272,-0.06344
-0.04392,0.04148,-0.03904,-0.01708,0.00488,-0.0244,-0.01952,-0.0976,-0.11224,-0.07808,-0.09272,-0.06344
-0.03416,0.01952,-0.00488,0.0122,0.02928,-0.03172,-0.01952,-0.11712,-0.11224,-0.0732,-0.08296,-0.05368
-0.0244,-0.0244,0.0732,0.0854,0.0976,-0.061,-0.00976,-0.122,-0.05368,-0.03416,-0.00976,0
-0.02928,-0.07076,0.1708,0.18544,0.20008,-0.11468,0.02928,0.03904,0.0732,0.0976,0.09272,0.08296
-0.00488,-0.11956,0.244,0.24644,0.24888,-0.12688,0.04392,0.17568,0.21472,0.22448,0.20984,0.18544
0.0488,-0.16836,0.28792,0.26352,0.23912,-0.09516,0.03416,0.2196,0.32208,0.30744,0.3416,0.30744
0.15128,-0.24888,0.34648,0.27084,0.1952,-0.02196,0.0244,0.30256,0.49776,0.47336,0.49776,0.44408
0.29768,-0.38064,0.4636,0.31476,0.16592,0.06588,-0.13664,0.10248,0.7076,0.57096,0.70272,0.6344
0.40992,-0.49532,0.58072,0.37576,0.1708,0.11956,-0.37576,-0.33672,0.86376,0.54656,0.88328,0.82472
0.53192,-0.60512,0.67832,0.41236,0.1464,0.19276,-0.60512,-0.81496,0.94184,0.39528,1.01992,0.99064
0.64904,-0.65148,0.65392,0.3294,0.00488,0.32208,-0.79056,-1.098,0.95648,0.25864,1.03944,1.0248
0.71736,-0.6466,0.57584,0.21716,-0.14152,0.42944,-0.93696,-1.2688,0.84912,0.11712,0.8784,0.93208
0.69296,-0.49044,0.28792,-0.05856,-0.40504,0.549,-1.01992,-1.464,0.4636,-0.19032,0.488,0.64416
0.58072,-0.29768,0.01464,-0.27572,-0.56608,0.5734,-1.0492,-1.72264,0.05856,-0.5856,0.122,0.35136
0.42944,-0.20008,-0.02928,-0.244,-0.45872,0.44408,-1.03944,-1.83488,-0.1708,-0.8784,-0.00976,0.20984
0.31232,-0.14396,-0.0244,-0.18056,-0.33672,0.32452,-0.96136,-1.6592,-0.25376,-0.91256,-0.06832,0.15616
0.20984,-0.1098,0.00976,-0.09516,-0.20008,0.20496,-0.7564,-1.33712,-0.26352,-0.77104,-0.08296,0.12688
0.10736,-0.06588,0.0244,-0.02928,-0.08296,0.09516,-0.5124,-1.03944,-0.35136,-0.6832,-0.14152,0.05368
0.04392,-0.05124,0.05856,0.0366,0.01464,0.01464,-0.37088,-0.79544,-0.3416,-0.56608,-0.14152,0.01464
0.01952,-0.04636,0.0732,0.06344,0.05368,-0.01708,-0.30256,-0.59048,-0.27816,-0.4148,-0.13176,0.00976
0.00976,-0.02196,0.03416,0.02928,0.0244,-0.00732,-0.2196,-0.4148,-0.25376,-0.30744,-0.13664,-0.01952
-0.00488,0,0.00488,0.00732,0.00976,-0.00732,-0.08784,-0.27328,-0.23424,-0.23424,-0.13664,-0.06344
-0.01464,0.01464,-0.01464,-0.00732,0,-0.00732,-0.02928,-0.20008,-0.20008,-0.18544,-0.13664,-0.0732
-0.0244,0.01952,-0.01464,-0.00244,0.00976,-0.01708,-0.03416,-0.16592,-0.18056,-0.15128,-0.13176,-0.06832
-0.0244,0.01708,-0.00976,0.00244,0.01464,-0.01952,-0.00976,-0.09272,-0.17568,-0.11224,-0.12688,-0.0732
-0.03416,0.02928,-0.0244,-0.00732,0.00976,-0.02196,0.01952,-0.06344,-0.1708,-0.10248,-0.12688,-0.08296
-0.03904,0.03904,-0.03904,-0.01952,0,-0.01952,0.02928,-0.06344,-0.16592,-0.0976,-0.12688,-0.08784
-0.03904,0.03904,-0.03904,-0.01952,0,-0.01952,0.02928,-0.05856,-0.16592,-0.09272,-0.12688,-0.08784
-0.0488,0.04636,-0.04392,-0.01952,0.00488,-0.02684,0.03904,-0.04392,-0.16592,-0.08784,-0.12688,-0.0976
-0.06344,0.05856,-0.05368,-0.02196,0.00976,-0.0366,0.0488,-0.02928,-0.16104,-0.08296,-0.12688,-0.0976
-0.07808,0.06832,-0.05856,-0.01952,0.01952,-0.0488,0.0488,-0.01464,-0.15616,-0.07808,-0.12688,-0.09272
-0.06832,0.06344,-0.05856,-0.0244,0.00976,-0.03904,0.05368,-0.00976,-0.15616,-0.0732,-0.12688,-0.09272
-0.05856,0.061,-0.06344,-0.03416,-0.00488,-0.02684,0.05856,-0.00976,-0.15616,-0.06832,-0.12688,-0.09272
-0.05368,0.05612,-0.05856,-0.03172,-0.00488,-0.0244,0.06344,-0.00488,-0.15616,-0.06832,-0.12688,-0.0976
-0.05856,0.05612,-0.05368,-0.0244,0.00488,-0.03172,0.06832,0,-0.15616,-0.06832,-0.12688,-0.0976
-0.05856,0.05612,-0.05368,-0.0244,0.00488,-0.03172,0.06832,0.00488,-0.15616,-0.0732,-0.12688,-0.0976
-0.05368,0.05368,-0.05368,-0.02684,0,-0.02684,0.06832,0.00976,-0.15616,-0.0732,-0.12688,-0.0976
-0.05856,0.05612,-0.05368,-0.0244,0.00488,-0.03172,0.06832,0.00976,-0.15128,-0.0732,-0.12688,-0.10248
-0.06344,0.05856,-0.05368,-0.02196,0.00976,-0.0366,0.06344,0.00976,-0.15128,-0.0732,-0.12688,-0.10736
-0.05856,0.05856,-0.05856,-0.02928,0,-0.02928,0.06344,0.00976,-0.1464,-0.06832,-0.12688,-0.10736
-0.05856,0.05856,-0.05856,-0.02928,0,-0.02928,0.06344,0.01464,-0.14152,-0.06344,-0.122,-0.10248
-0.05856,0.05856,-0.05856,-0.02928,0,-0.02928,0.06344,0.01464,-0.14152,-0.06344,-0.122,-0.0976
-0.05368,0.05368,-0.05368,-0.02684,0,-0.02684,0.05856,0.01464,-0.14152,-0.06344,-0.11712,-0.09272
-0.05368,0.05124,-0.0488,-0.02196,0.00488,-0.02928,0.05856,0.01464,-0.1464,-0.06344,-0.11712,-0.09272
-0.05368,0.0488,-0.04392,-0.01708,0.00976,-0.03172,0.05856,0.01952,-0.15128,-0.05856,-0.11224,-0.08784
-0.0488,0.04636,-0.04392,-0.01952,0.00488,-0.02684,0.05856,0.0244,-0.15128,-0.05856,-0.11224,-0.08784
-0.04392,0.04392,-0.04392,-0.02196,0,-0.02196,0.05856,0.0244,-0.1464,-0.05368,-0.11224,-0.09272
-0.04392,0.04392,-0.04392,-0.02196,0,-0.02196,0.06344,0.02928,-0.1464,-0.0488,-0.10736,-0.09272
-0.04392,0.04148,-0.03904,-0.01708,0.00488,-0.0244,0.06344,0.02928,-0.1464,-0.04392,-0.10736,-0.09272
-0.0488,0.04392,-0.03904,-0.01464,0.00976,-0.02928,0.06344,0.03416,-0.14152,-0.04392,-0.10736,-0.08784
-0.0488,0.04392,-0.03904,-0.01464,0.00976,-0.02928,0.05856,0.03904,-0.13664,-0.03904,-0.11224,-0.08784
-0.0244,0.02684,-0.02928,-0.01708,-0.00488,-0.00976,0.05856,0.0488,-0.13664,-0.03904,-0.10248,-0.08296
-0.00488,0.00976,-0.01464,-0.0122,-0.00976,0.00244,0.05856,0.05856,-0.13176,-0.02928,-0.0976,-0.0732
-0.00976,0.01464,-0.01952,-0.01464,-0.00976,0,0.05856,0.06344,-0.12688,-0.0244,-0.08784,-0.06832
-0.0244,0.02196,-0.01952,-0.00732,0.00488,-0.01464,0.05856,0.06832,-0.122,-0.01952,-0.07808,-0.06344
-0.0244,0.02684,-0.02928,-0.01708,-0.00488,-0.00976,0.05368,0.07808,-0.11224,-0.00976,-0.0732,-0.06344
-0.03416,0.0366,-0.03904,-0.02196,-0.00488,-0.01464,0.05368,0.08296,-0.10248,0,-0.06832,-0.06344
-0.03416,0.03416,-0.03416,-0.01708,0,-0.01708,0.05368,0.10248,-0.10248,0,-0.06344,-0.05856
-0.02928,0.02684,-0.0244,-0.00976,0.00488,-0.01708,0.05368,0.11224,-0.08784,0.00976,-0.05856,-0.04392
-0.01952,0.01464,-0.00976,0,0.00976,-0.01464,0.05368,0.122,-0.08784,0.00488,-0.05368,-0.03904
0,-0.00732,0.01464,0.01464,0.01464,-0.00732,0.05368,0.12688,-0.07808,0.00976,-0.03904,-0.03416
0.00488,-0.0122,0.01952,0.01708,0.01464,-0.00488,0.0488,0.13664,-0.0732,0.01952,-0.03416,-0.02928
0.00976,-0.01708,0.0244,0.01952,0.01464,-0.00244,0.0488,0.15128,-0.05856,0.02928,-0.0244,-0.0244
0,-0.01464,0.02928,0.02928,0.02928,-0.01464,0.03904,0.15616,-0.05856,0.03904,-0.0244,-0.01952
-0.00976,-0.00976,0.02928,0.03416,0.03904,-0.0244,0.03416,0.1708,-0.03904,0.0488,-0.01464,-0.00976
-0.00488,-0.0122,0.02928,0.03172,0.03416,-0.01952,0.03416,0.18544,-0.03416,0.05856,-0.00488,0
-0.00488,-0.01464,0.03416,0.0366,0.03904,-0.02196,0.03416,0.20008,-0.01952,0.06832,0.00488,0
-0.00488,-0.01952,0.04392,0.04636,0.0488,-0.02684,0.02928,0.20984,-0.00976,0.07808,0.00976,0.00488
-0.00488,-0.02196,0.0488,0.05124,0.05368,-0.02928,0.02928,0.22448,0,0.09272,0.01464,0.00976
0.01464,-0.03904,0.06344,0.05612,0.0488,-0.01708,0.03416,0.23424,0.00976,0.11224,0.01952,0.00976
0.03416,-0.05612,0.07808,0.061,0.04392,-0.00488,0.03904,0.25376,0.0244,0.12688,0.03416,0.0244
0.03416,-0.05856,0.08296,0.06588,0.0488,-0.00732,0.03904,0.26352,0.03416,0.14152,0.04392,0.02928
0.03904,-0.06344,0.08784,0.06832,0.0488,-0.00488,0.03904,0.27328,0.03904,0.15616,0.05856,0.04392
0.04392,-0.06832,0.09272,0.07076,0.0488,-0.00244,0.03904,0.28304,0.05368,0.16592,0.05856,0.0488
0.04392,-0.07076,0.0976,0.07564,0.05368,-0.00488,0.03416,0.28304,0.05856,0.1708,0.06832,0.06344
0.0488,-0.07564,0.10248,0.07808,0.05368,-0.00244,0.02928,0.2928,0.06344,0.16592,0.06832,0.06344
0.05368,-0.0854,0.11712,0.09028,0.06344,-0.00488,0.02928,0.29768,0.0732,0.16592,0.06832,0.06832
0.0488,-0.08296,0.11712,0.09272,0.06832,-0.00976,0.03416,0.30256,0.0732,0.1708,0.0732,0.06832
0.04392,-0.08052,0.11712,0.09516,0.0732,-0.01464,0.03416,0.30256,0.07808,0.17568,0.08296,0.0732
0.0488,-0.08052,0.11224,0.08784,0.06344,-0.00732,0.03416,0.30256,0.07808,0.17568,0.08296,0.0732
0.0488,-0.07808,0.10736,0.08296,0.05856,-0.00488,0.0244,0.30256,0.0732,0.17568,0.08784,0.07808
0.0488,-0.07808,0.10736,0.08296,0.05856,-0.00488,0.01952,0.30256,0.0732,0.17568,0.08784,0.08296
0.05368,-0.08296,0.11224,0.0854,0.05856,-0.00244,0.00976,0.29768,0.07808,0.18056,0.09272,0.09272
0.05368,-0.0854,0.11712,0.09028,0.06344,-0.00488,0.00488,0.2928,0.07808,0.18056,0.0976,0.0976
0.05368,-0.09028,0.12688,0.10004,0.0732,-0.00976,0.00488,0.28792,0.07808,0.18056,0.10736,0.10248
0.06344,-0.0976,0.13176,0.10004,0.06832,-0.00244,0.00488,0.28792,0.08296,0.17568,0.11224,0.10736
0.06344,-0.10248,0.14152,0.1098,0.07808,-0.00732,0.00488,0.28304,0.08784,0.17568,0.11712,0.11224
0.06344,-0.10248,0.14152,0.1098,0.07808,-0.00732,-0.00488,0.27816,0.09272,0.17568,0.11712,0.11224
0.06344,-0.10248,0.14152,0.1098,0.07808,-0.00732,-0.00488,0.27328,0.09272,0.17568,0.11712,0.11224
0.0732,-0.10492,0.13664,0.10004,0.06344,0.00488,-0.00976,0.25376,0.08784,0.1708,0.11224,0.11224
0.08296,-0.10736,0.13176,0.09028,0.0488,0.01708,-0.01464,0.23424,0.08296,0.15128,0.11224,0.11712
0.08296,-0.10736,0.13176,0.09028,0.0488,0.01708,-0.0244,0.2196,0.07808,0.1464,0.10736,0.11712
0.08784,-0.1098,0.13176,0.08784,0.04392,0.02196,-0.02928,0.20496,0.0732,0.14152,0.10736,0.11224
0.07808,-0.09516,0.11224,0.0732,0.03416,0.02196,-0.02928,0.19032,0.06832,0.13176,0.0976,0.10248
0.0732,-0.0854,0.0976,0.061,0.0244,0.0244,-0.02928,0.17568,0.06344,0.12688,0.09272,0.09272
0.08296,-0.09028,0.0976,0.05612,0.01464,0.03416,-0.03416,0.15128,0.05856,0.11712,0.08296,0.08784
0.08296,-0.08784,0.09272,0.05124,0.00976,0.0366,-0.03416,0.14152,0.05856,0.11712,0.08296,0.08784
0.08296,-0.08296,0.08296,0.04148,0,0.04148,-0.03904,0.13176,0.05368,0.10736,0.07808,0.08296
0.08784,-0.0854,0.08296,0.03904,-0.00488,0.04636,-0.04392,0.10736,0.04392,0.10736,0.0732,0.08296
0.07808,-0.07808,0.07808,0.03904,0,0.03904,-0.0488,0.09272,0.03416,0.08784,0.05368,0.0732
0.06344,-0.05856,0.05368,0.02196,-0.00976,0.0366,-0.05368,0.08296,0.02928,0.08296,0.05368,0.0732
0.05368,-0.05368,0.05368,0.02684,0,0.02684,-0.05368,0.07808,0.0244,0.0732,0.05368,0.05856
0.04392,-0.0488,0.05368,0.03172,0.00976,0.01708,-0.05368,0.06344,0.0244,0.06832,0.0488,0.05368
0.06344,-0.06344,0.06344,0.03172,0,0.03172,-0.05368,0.05856,0.0244,0.0732,0.0488,0.0488
0.08296,-0.07808,0.0732,0.03172,-0.00976,0.04636,-0.0488,0.05856,0.02928,0.07808,0.0488,0.04392
0.06832,-0.061,0.05368,0.01952,-0.01464,0.04148,-0.05368,0.0488,0.0244,0.0732,0.04392,0.04392
0.05368,-0.0488,0.04392,0.01708,-0.00976,0.03172,-0.0488,0.0488,0.0244,0.0732,0.03904,0.04392
0.04392,-0.04392,0.04392,0.02196,0,0.02196,-0.0488,0.04392,0.01952,0.0732,0.03904,0.04392
0.03416,-0.03904,0.04392,0.02684,0.00976,0.0122,-0.0488,0.03904,0.01952,0.06832,0.03904,0.0488
0.0244,-0.02684,0.02928,0.01708,0.00488,0.00976,-0.0488,0.02928,0.01952,0.06832,0.02928,0.03904
0.01952,-0.0244,0.02928,0.01952,0.00976,0.00488,-0.0488,0.0244,0.01952,0.06832,0.02928,0.03416
0.01464,-0.01952,0.0244,0.01708,0.00976,0.00244,-0.03904,0.01952,0.00488,0.06344,0.0244,0.02928
0.01464,-0.01708,0.01952,0.0122,0.00488,0.00488,-0.03416,0.01952,0.00976,0.06344,0.0244,0.0244
0.01952,-0.02196,0.0244,0.01464,0.00488,0.00732,-0.02928,0.0244,0.00976,0.06344,0.02928,0.02928
0.01952,-0.02684,0.03416,0.0244,0.01464,0.00244,-0.02928,0.0244,0.00976,0.06344,0.02928,0.02928
0.01952,-0.02684,0.03416,0.0244,0.01464,0.00244,-0.02928,0.0244,0.01952,0.06832,0.0244,0.02928
0.01952,-0.02928,0.03904,0.02928,0.01952,0,-0.02928,0.0244,0.02928,0.0732,0.0244,0.02928
0.01464,-0.0244,0.03416,0.02684,0.01952,-0.00244,-0.02928,0.0244,0.02928,0.0732,0.0244,0.03416
0.01464,-0.02196,0.02928,0.02196,0.01464,0,-0.02928,0.0244,0.02928,0.0732,0.0244,0.03904
0.01464,-0.0244,0.03416,0.02684,0.01952,-0.00244,-0.02928,0.01952,0.0244,0.0732,0.03416,0.03904
0.00976,-0.02196,0.03416,0.02928,0.0244,-0.00732,-0.02928,0.01952,0.01952,0.0732,0.03904,0.03904
0.00488,-0.01952,0.03416,0.03172,0.02928,-0.0122,-0.0244,0.01464,0.01464,0.0732,0.03904,0.03904
0.00488,-0.01952,0.03416,0.03172,0.02928,-0.0122,-0.0244,0.00488,0.00976,0.0732,0.03904,0.03904
0,-0.01464,0.02928,0.02928,0.02928,-0.01464,-0.0244,0,0.00976,0.06344,0.03416,0.02928
-0.00488,-0.00976,0.0244,0.02684,0.02928,-0.01708,-0.0244,-0.00488,0,0.05368,0.03416,0.02928
-0.00488,-0.00976,0.0244,0.02684,0.02928,-0.01708,-0.0244,-0.00976,0,0.0488,0.0244,0.0244
-0.00488,-0.00976,0.0244,0.02684,0.02928,-0.01708,-0.0244,-0.00976,-0.00488,0.04392,0.01464,0.01952
-0.00976,-0.00732,0.0244,0.02928,0.03416,-0.02196,-0.0244,-0.01464,-0.00976,0.03904,0.00976,0.01464
-0.00976,-0.00976,0.02928,0.03416,0.03904,-0.0244,-0.0244,-0.01952,-0.00976,0.03416,0.00976,0.00976
-0.01464,-0.00244,0.01952,0.02684,0.03416,-0.0244,-0.0244,-0.0244,-0.01952,0.02928,0,0.00488
-0.0244,0.00488,0.01464,0.02684,0.03904,-0.03172,-0.0244,-0.0244,-0.01952,0.0244,0,0
-0.0244,0.01464,-0.00488,0.00732,0.01952,-0.02196,-0.02928,-0.03416,-0.03904,0.00976,-0.00976,-0.00976
-0.0244,0.01952,-0.01464,-0.00244,0.00976,-0.01708,-0.03416,-0.04392,-0.04392,0.00488,-0.01952,-0.01464
-0.01952,0.01708,-0.01464,-0.00488,0.00488,-0.0122,-0.03416,-0.04392,-0.04392,-0.00488,-0.0244,-0.01464
-0.01464,0.01464,-0.01464,-0.00732,0,-0.00732,-0.03416,-0.0488,-0.0488,-0.01464,-0.0244,-0.01952
-0.01464,0.0122,-0.00976,-0.00244,0.00488,-0.00976,-0.02928,-0.0488,-0.0488,-0.01464,-0.0244,-0.01952
-0.01464,0.0122,-0.00976,-0.00244,0.00488,-0.00976,-0.02928,-0.0488,-0.0488,-0.01952,-0.01952,-0.0244
-0.01952,0.01708,-0.01464,-0.00488,0.00488,-0.0122,-0.02928,-0.05856,-0.05368,-0.01952,-0.02928,-0.02928
-0.0244,0.02196,-0.01952,-0.00732,0.00488,-0.01464,-0.02928,-0.05856,-0.05856,-0.01952,-0.03416,-0.03416
-0.0244,0.0244,-0.0244,-0.0122,0,-0.0122,-0.02928,-0.05856,-0.06344,-0.0244,-0.04392,-0.03416
-0.02928,0.02928,-0.02928,-0.01464,0,-0.01464,-0.02928,-0.06344,-0.06832,-0.02928,-0.0488,-0.03904
-0.0244,0.02684,-0.02928,-0.01708,-0.00488,-0.00976,-0.02928,-0.06832,-0.0732,-0.03416,-0.05368,-0.04392
-0.02928,0.03416,-0.03904,-0.0244,-0.00976,-0.00976,-0.02928,-0.0732,-0.07808,-0.03904,-0.05856,-0.0488
-0.02928,0.0366,-0.04392,-0.02928,-0.01464,-0.00732,-0.02928,-0.07808,-0.08296,-0.04392,-0.06344,-0.05368
-0.0244,0.03416,-0.04392,-0.03172,-0.01952,-0.00244,-0.02928,-0.07808,-0.08296,-0.04392,-0.06832,-0.05368
-0.0244,0.03416,-0.04392,-0.03172,-0.01952,-0.00244,-0.0244,-0.08296,-0.08784,-0.05368,-0.06832,-0.05368
-0.0244,0.0366,-0.0488,-0.0366,-0.0244,0,-0.02928,-0.08784,-0.09272,-0.06344,-0.06832,-0.05368
-0.0244,0.0366,-0.0488,-0.0366,-0.0244,0,-0.02928,-0.08784,-0.0976,-0.06344,-0.0732,-0.05368
-0.02928,0.04148,-0.05368,-0.03904,-0.0244,-0.00244,-0.02928,-0.09272,-0.10248,-0.0732,-0.0732,-0.05368
-0.03416,0.04636,-0.05856,-0.04148,-0.0244,-0.00488,-0.01952,-0.08784,-0.0976,-0.0732,-0.06344,-0.05368
-0.03904,0.0488,-0.05856,-0.03904,-0.01952,-0.00976,-0.00488,-0.07808,-0.09272,-0.06344,-0.05368,-0.05856
-0.03904,0.0488,-0.05856,-0.03904,-0.01952,-0.00976,-0.00488,-0.07808,-0.09272,-0.0732,-0.06344,-0.05856
-0.04392,0.05368,-0.06344,-0.04148,-0.01952,-0.0122,-0.00488,-0.08296,-0.09272,-0.0732,-0.06344,-0.05856
-0.04392,0.05612,-0.06832,-0.04636,-0.0244,-0.00976,-0.00976,-0.08784,-0.10248,-0.0732,-0.0732,-0.06344
-0.04392,0.05612,-0.06832,-0.04636,-0.0244,-0.00976,-0.01464,-0.0976,-0.10736,-0.0732,-0.08296,-0.06832
-0.03416,0.0488,-0.06344,-0.04636,-0.02928,-0.00244,-0.01464,-0.0976,-0.10736,-0.07808,-0.08296,-0.06832
-0.0244,0.04392,-0.06344,-0.05124,-0.03904,0.00732,-0.00976,-0.09272,-0.10736,-0.07808,-0.08296,-0.06832
-0.0244,0.04148,-0.05856,-0.04636,-0.03416,0.00488,-0.01464,-0.09272,-0.10736,-0.07808,-0.08296,-0.06832
-0.0244,0.03904,-0.05368,-0.04148,-0.02928,0.00244,-0.01952,-0.09272,-0.10736,-0.07808,-0.08296,-0.06832
-0.0244,0.03904,-0.05368,-0.04148,-0.02928,0.00244,-0.01952,-0.09272,-0.10736,-0.07808,-0.08296,-0.06344
-0.02928,0.04148,-0.05368,-0.03904,-0.0244,-0.00244,-0.01464,-0.09272,-0.10248,-0.07808,-0.08296,-0.06344
-0.03416,0.04636,-0.05856,-0.04148,-0.0244,-0.00488,-0.01952,-0.09272,-0.10248,-0.07808,-0.08296,-0.06344
-0.03904,0.05124,-0.06344,-0.04392,-0.0244,-0.00732,-0.0244,-0.09272,-0.10248,-0.07808,-0.08296,-0.06344
-0.03904,0.05124,-0.06344,-0.04392,-0.0244,-0.00732,-0.0244,-0.0976,-0.10248,-0.08296,-0.08296,-0.06832
-0.0488,0.061,-0.0732,-0.0488,-0.0244,-0.0122,-0.0244,-0.0976,-0.10248,-0.08296,-0.08296,-0.06832
-0.03904,0.05612,-0.0732,-0.05368,-0.03416,-0.00244,-0.01464,-0.0976,-0.0976,-0.08296,-0.07808,-0.05856
-0.01952,0.04392,-0.06832,-0.05856,-0.0488,0.01464,-0.00976,-0.09272,-0.09272,-0.07808,-0.0732,-0.05368
-0.01464,0.03904,-0.06344,-0.05612,-0.0488,0.01708,-0.00488,-0.08296,-0.09272,-0.0732,-0.06832,-0.05368
-0.00976,0.03416,-0.05856,-0.05368,-0.0488,0.01952,0,-0.07808,-0.0976,-0.06832,-0.06832,-0.05856
-0.0244,0.04392,-0.06344,-0.05124,-0.03904,0.00732,0,-0.07808,-0.0976,-0.06832,-0.06832,-0.05856
-0.03904,0.05368,-0.06832,-0.0488,-0.02928,-0.00488,0,-0.07808,-0.0976,-0.06832,-0.06832,-0.05856
-0.03904,0.05368,-0.06832,-0.0488,-0.02928,-0.00488,0,-0.07808,-0.0976,-0.06832,-0.06832,-0.05856
-0.03904,0.05368,-0.06832,-0.0488,-0.02928,-0.00488,-0.00488,-0.07808,-0.0976,-0.06832,-0.06832,-0.05856
-0.03904,0.05612,-0.0732,-0.05368,-0.03416,-0.00244,-0.00976,-0.07808,-0.0976,-0.06832,-0.0732,-0.06344
-0.03904,0.05368,-0.06832,-0.0488,-0.02928,-0.00488,-0.01464,-0.07808,-0.0976,-0.06832,-0.07808,-0.06832
-0.02928,0.04636,-0.06344,-0.0488,-0.03416,0.00244,-0.01464,-0.06832,-0.0976,-0.05856,-0.07808,-0.06344
-0.01952,0.0366,-0.05368,-0.04392,-0.03416,0.00732,-0.00976,-0.0488,-0.08296,-0.04392,-0.06344,-0.05368
-0.00976,0.02196,-0.03416,-0.02928,-0.0244,0.00732,0,-0.01952,-0.05856,-0.01952,-0.0488,-0.03904
0.00488,0,-0.00488,-0.00732,-0.00976,0.00732,0.01464,0.00976,-0.03416,0.01464,-0.02928,-0.0244
0.01464,-0.02196,0.02928,0.02196,0.01464,0,0.02928,0.0244,-0.01464,0.02928,-0.00488,0
0.02928,-0.03416,0.03904,0.0244,0.00976,0.00976,0.02928,0.02928,-0.01464,0.04392,0,0.00976
0.02928,-0.03416,0.03904,0.0244,0.00976,0.00976,0.04392,0.03904,-0.00488,0.0488,0.00488,0.00976
0.04392,-0.04148,0.03904,0.01708,-0.00488,0.0244,0.04392,0.06344,0,0.05856,0.00976,0.01464
0.05856,-0.04148,0.0244,-0.00488,-0.03416,0.04636,0.03904,0.07808,0.00488,0.06344,0.01952,0.01952
0.06344,-0.03904,0.01464,-0.01708,-0.0488,0.05612,0.01952,0.06832,0,0.05856,0.01952,0.0244
0.05856,-0.0366,0.01464,-0.01464,-0.04392,0.05124,-0.01952,0.05368,0,0.05368,0.00976,0.01952
0.0488,-0.02196,-0.00488,-0.02928,-0.05368,0.05124,-0.06344,0.00976,-0.00976,0.0244,0.00488,0.01464
0.02928,0,-0.02928,-0.04392,-0.05856,0.04392,-0.06344,-0.03416,-0.0488,-0.02928,-0.0244,-0.00976
0.02928,0.01464,-0.05856,-0.0732,-0.08784,0.05856,-0.06344,-0.0488,-0.07808,-0.05368,-0.03904,-0.02928
0.01952,0.01708,-0.05368,-0.06344,-0.0732,0.04636,-0.0488,-0.05368,-0.08296,-0.05368,-0.05368,-0.04392
0.01952,0.01952,-0.05856,-0.06832,-0.07808,0.0488,-0.04392,-0.0732,-0.0976,-0.06832,-0.06832,-0.05856
0.00976,0.02684,-0.06344,-0.06832,-0.0732,0.04148,-0.03904,-0.09272,-0.10736,-0.08296,-0.0732,-0.05856
0.00976,0.02684,-0.06344,-0.06832,-0.0732,0.04148,-0.03904,-0.09272,-0.11224,-0.08296,-0.0732,-0.05856
0.00488,0.03416,-0.0732,-0.07564,-0.07808,0.04148,-0.03904,-0.08296,-0.11224,-0.08784,-0.0732,-0.05368
0.00976,0.0366,-0.08296,-0.08784,-0.09272,0.05124,-0.04392,-0.09272,-0.11712,-0.09272,-0.08296,-0.05368
-0.00488,0.05856,-0.11224,-0.1098,-0.10736,0.05124,-0.04392,-0.10248,-0.13664,-0.11224,-0.0976,-0.07808
-0.01464,0.06588,-0.11712,-0.1098,-0.10248,0.04392,-0.05368,-0.11712,-0.1464,-0.122,-0.10248,-0.07808
-0.01952,0.06832,-0.11712,-0.10736,-0.0976,0.03904,-0.05368,-0.13176,-0.15616,-0.14152,-0.10248,-0.07808
-0.0244,0.05856,-0.09272,-0.08052,-0.06832,0.02196,-0.04392,-0.13176,-0.13664,-0.11712,-0.0976,-0.0732
-0.02928,0.05124,-0.0732,-0.05856,-0.04392,0.00732,-0.02928,-0.11224,-0.122,-0.10736,-0.08784,-0.06832
-0.03416,0.05368,-0.0732,-0.05612,-0.03904,0.00244,-0.0244,-0.11224,-0.122,-0.10736,-0.08784,-0.06832
-0.04392,0.06588,-0.08784,-0.06588,-0.04392,0,-0.01952,-0.11224,-0.13176,-0.10248,-0.0976,-0.07808
-0.04392,0.0732,-0.10248,-0.08052,-0.05856,0.00732,-0.01952,-0.11224,-0.12688,-0.10736,-0.10248,-0.08784
-0.0488,0.07564,-0.10248,-0.07808,-0.05368,0.00244,-0.01952,-0.11224,-0.13176,-0.10736,-0.10248,-0.08784
-0.0488,0.07564,-0.10248,-0.07808,-0.05368,0.00244,-0.01952,-0.10736,-0.13176,-0.10736,-0.10248,-0.08296
-0.0488,0.07076,-0.09272,-0.06832,-0.04392,-0.00244,-0.01464,-0.10736,-0.13176,-0.10736,-0.10248,-0.08296
-0.0488,0.06832,-0.08784,-0.06344,-0.03904,-0.00488,-0.00976,-0.10736,-0.13176,-0.10736,-0.10248,-0.08296
-0.0488,0.06832,-0.08784,-0.06344,-0.03904,-0.00488,-0.00976,-0.0976,-0.13176,-0.10736,-0.0976,-0.08296
-0.04392,0.06344,-0.08296,-0.061,-0.03904,-0.00244,-0.00976,-0.09272,-0.12688,-0.10248,-0.0976,-0.08296
-0.0488,0.06344,-0.07808,-0.05368,-0.02928,-0.00976,-0.00976,-0.0976,-0.13176,-0.10736,-0.10248,-0.09272
-0.05368,0.06588,-0.07808,-0.05124,-0.0244,-0.01464,-0.01464,-0.10248,-0.13664,-0.11224,-0.10248,-0.0976
-0.05368,0.06588,-0.07808,-0.05124,-0.0244,-0.01464,-0.01952,-0.0976,-0.13176,-0.11224,-0.10248,-0.0976
-0.06344,0.06588,-0.06832,-0.0366,-0.00488,-0.02928,-0.01952,-0.0976,-0.13176,-0.10736,-0.10248,-0.09272
-0.06344,0.0488,-0.03416,-0.00244,0.02928,-0.04636,-0.01952,-0.09272,-0.10248,-0.08296,-0.0732,-0.06344
-0.06344,0.00976,0.04392,0.07564,0.10736,-0.0854,-0.00976,-0.0732,-0.01464,-0.0244,0.01952,0.00976
-0.03416,-0.06588,0.16592,0.183,0.20008,-0.11712,0.01464,0.0732,0.122,0.10736,0.1464,0.11224
0.0244,-0.14396,0.26352,0.25132,0.23912,-0.10736,0.01464,0.1952,0.27328,0.23424,0.28792,0.23424
0.08784,-0.20008,0.31232,0.2684,0.22448,-0.06832,-0.03416,0.15616,0.39528,0.31232,0.42944,0.37088
0.20008,-0.28792,0.37576,0.27572,0.17568,0.0122,-0.08296,0.15616,0.5856,0.47336,0.59536,0.52216
0.33672,-0.41724,0.49776,0.3294,0.16104,0.08784,-0.25864,-0.10248,0.77592,0.51728,0.79056,0.71736
0.4392,-0.52948,0.61976,0.40016,0.18056,0.12932,-0.5124,-0.60024,0.91256,0.4392,0.96136,0.91256
0.54656,-0.60024,0.65392,0.38064,0.10736,0.2196,-0.72224,-1.00528,0.9272,0.27816,1.01016,1.00528
0.64904,-0.60756,0.56608,0.24156,-0.08296,0.366,-0.88816,-1.21512,0.8784,0.13176,0.94184,0.96624
0.6588,-0.55144,0.44408,0.11468,-0.21472,0.43676,-1.01016,-1.3664,0.72224,-0.0488,0.75152,0.81984
0.57584,-0.34404,0.11224,-0.17568,-0.4636,0.51972,-1.06872,-1.54208,0.28792,-0.39528,0.33184,0.47824
0.47336,-0.183,-0.10736,-0.34404,-0.58072,0.52704,-1.0492,-1.69336,-0.05368,-0.7076,0.0244,0.24888
0.33184,-0.11712,-0.0976,-0.26352,-0.42944,0.38064,-0.99064,-1.69824,-0.2196,-0.91744,-0.0488,0.1708
0.21472,-0.06344,-0.08784,-0.1952,-0.30256,0.25864,-0.87352,-1.49816,-0.28792,-0.91256,-0.0976,0.10248
0.11224,-0.03172,-0.0488,-0.10492,-0.16104,0.13664,-0.62952,-1.15168,-0.28304,-0.732,-0.10248,0.05856
0.0488,-0.01464,-0.01952,-0.04392,-0.06832,0.05856,-0.41968,-0.88816,-0.35136,-0.64416,-0.16104,0.00488
0.0244,-0.02684,0.02928,0.01708,0.00488,0.00976,-0.31232,-0.67832,-0.32208,-0.52704,-0.16104,-0.01464
-0.00488,-0.0122,0.02928,0.03172,0.03416,-0.01952,-0.24888,-0.49288,-0.2684,-0.38552,-0.1464,-0.01952
-0.01952,0.02196,-0.0244,-0.01464,-0.00488,-0.00732,-0.1708,-0.33672,-0.25376,-0.28792,-0.1464,-0.0488
-0.03416,0.04392,-0.05368,-0.0366,-0.01952,-0.00732,-0.0732,-0.22448,-0.23912,-0.23424,-0.1464,-0.08784
-0.04392,0.05856,-0.0732,-0.05124,-0.02928,-0.00732,-0.0488,-0.18056,-0.20984,-0.20496,-0.1464,-0.09272
-0.05368,0.06588,-0.07808,-0.05124,-0.0244,-0.01464,-0.04392,-0.15128,-0.19032,-0.1708,-0.1464,-0.09272
-0.05368,0.06588,-0.07808,-0.05124,-0.0244,-0.01464,-0.00976,-0.08296,-0.18544,-0.13176,-0.1464,-0.10248
-0.06832,0.08052,-0.09272,-0.05856,-0.0244,-0.02196,0.01464,-0.05368,-0.18056,-0.122,-0.14152,-0.11224
-0.07808,0.09272,-0.10736,-0.06832,-0.02928,-0.0244,0.01952,-0.05368,-0.17568,-0.11712,-0.13664,-0.11712
-0.07808,0.09028,-0.10248,-0.06344,-0.0244,-0.02684,0.01952,-0.0488,-0.17568,-0.11712,-0.13664,-0.11224
-0.08784,0.09516,-0.10248,-0.05856,-0.01464,-0.0366,0.02928,-0.03416,-0.17568,-0.11712,-0.13664,-0.11712
-0.07808,0.09028,-0.10248,-0.06344,-0.0244,-0.02684,0.03904,-0.0244,-0.16592,-0.11224,-0.13176,-0.11712
-0.06832,0.08296,-0.0976,-0.06344,-0.02928,-0.01952,0.03904,-0.01464,-0.15616,-0.10736,-0.12688,-0.11224
-0.06832,0.08296,-0.0976,-0.06344,-0.02928,-0.01952,0.04392,-0.00976,-0.15616,-0.10248,-0.12688,-0.11224
-0.06832,0.0854,-0.10248,-0.06832,-0.03416,-0.01708,0.0488,-0.00976,-0.15616,-0.0976,-0.12688,-0.11224
-0.06832,0.0854,-0.10248,-0.06832,-0.03416,-0.01708,0.0488,-0.00976,-0.16104,-0.0976,-0.12688,-0.11712
-0.07808,0.09028,-0.10248,-0.06344,-0.0244,-0.02684,0.0488,-0.00976,-0.16592,-0.0976,-0.12688,-0.11712
-0.08296,0.09272,-0.10248,-0.061,-0.01952,-0.03172,0.0488,-0.00488,-0.16592,-0.0976,-0.13176,-0.11712
-0.08296,0.09272,-0.10248,-0.061,-0.01952,-0.03172,0.0488,0,-0.16592,-0.09272,-0.13664,-0.11712
-0.08296,0.09272,-0.10248,-0.061,-0.01952,-0.03172,0.05368,0.00488,-0.16104,-0.09272,-0.13664,-0.11712
-0.08296,0.09272,-0.10248,-0.061,-0.01952,-0.03172,0.05368,0.00976,-0.16104,-0.09272,-0.13664,-0.11712
-0.07808,0.08784,-0.0976,-0.05856,-0.01952,-0.02928,0.05368,0.00976,-0.16104,-0.09272,-0.13664,-0.11712
-0.07808,0.08296,-0.08784,-0.0488,-0.00976,-0.03416,0.05368,0.01464,-0.16104,-0.09272,-0.13176,-0.11224
-0.07808,0.08296,-0.08784,-0.0488,-0.00976,-0.03416,0.05368,0.01464,-0.16104,-0.09272,-0.13176,-0.11224
-0.0732,0.07808,-0.08296,-0.04636,-0.00976,-0.03172,0.0488,0.01464,-0.16104,-0.09272,-0.12688,-0.11224
-0.0732,0.07808,-0.08296,-0.04636,-0.00976,-0.03172,0.0488,0.01464,-0.16592,-0.0976,-0.12688,-0.11712
-0.0732,0.07808,-0.08296,-0.04636,-0.00976,-0.03172,0.0488,0.01952,-0.1708,-0.0976,-0.122,-0.11712
-0.06344,0.0732,-0.08296,-0.05124,-0.01952,-0.02196,0.04392,0.01952,-0.1708,-0.0976,-0.122,-0.11224
-0.05368,0.06832,-0.08296,-0.05612,-0.02928,-0.0122,0.03904,0.01464,-0.16592,-0.09272,-0.122,-0.11224
-0.05368,0.07076,-0.08784,-0.061,-0.03416,-0.00976,0.03904,0.01952,-0.16592,-0.09272,-0.11712,-0.11224
-0.05368,0.07076,-0.08784,-0.061,-0.03416,-0.00976,0.03416,0.01952,-0.16592,-0.09272,-0.11712,-0.11224
-0.06344,0.07564,-0.08784,-0.05612,-0.0244,-0.01952,0.03416,0.0244,-0.16104,-0.09272,-0.11712,-0.10736
-0.06832,0.07808,-0.08784,-0.05368,-0.01952,-0.0244,0.02928,0.02928,-0.15616,-0.08784,-0.122,-0.10736
-0.06344,0.07564,-0.08784,-0.05612,-0.0244,-0.01952,0.02928,0.03416,-0.15128,-0.08784,-0.11224,-0.10736
-0.06344,0.0732,-0.08296,-0.05124,-0.01952,-0.02196,0.02928,0.03904,-0.14152,-0.07808,-0.10736,-0.10248
-0.0488,0.06344,-0.07808,-0.05368,-0.02928,-0.00976,0.02928,0.04392,-0.13664,-0.06832,-0.0976,-0.0976
-0.04392,0.05612,-0.06832,-0.04636,-0.0244,-0.00976,0.02928,0.0488,-0.13176,-0.05856,-0.08784,-0.09272
-0.03416,0.0488,-0.06344,-0.04636,-0.02928,-0.00244,0.0244,0.05856,-0.122,-0.0488,-0.08296,-0.08784
-0.03416,0.04636,-0.05856,-0.04148,-0.0244,-0.00488,0.0244,0.06344,-0.11224,-0.03904,-0.07808,-0.08296
-0.03904,0.04636,-0.05368,-0.03416,-0.01464,-0.0122,0.0244,0.08296,-0.11224,-0.03904,-0.0732,-0.08296
-0.03904,0.04148,-0.04392,-0.0244,-0.00488,-0.01708,0.0244,0.09272,-0.0976,-0.02928,-0.06832,-0.0732
-0.04392,0.04636,-0.0488,-0.02684,-0.00488,-0.01952,0.0244,0.10736,-0.0976,-0.02928,-0.06832,-0.06832
-0.03904,0.04148,-0.04392,-0.0244,-0.00488,-0.01708,0.0244,0.11712,-0.08784,-0.01952,-0.05856,-0.06344
-0.03416,0.0366,-0.03904,-0.02196,-0.00488,-0.01464,0.0244,0.12688,-0.08296,-0.00976,-0.05368,-0.05368
-0.02928,0.03172,-0.03416,-0.01952,-0.00488,-0.0122,0.02928,0.14152,-0.06832,0,-0.04392,-0.04392
-0.01952,0.01708,-0.01464,-0.00488,0.00488,-0.0122,0.0244,0.1464,-0.06832,0.00976,-0.04392,-0.03904
-0.00976,0.00488,0,0.00488,0.00976,-0.00976,0.0244,0.16104,-0.0488,0.01952,-0.03416,-0.02928
0.00488,-0.00732,0.00976,0.00732,0.00488,0,0.0244,0.17568,-0.04392,0.03416,-0.0244,-0.01464
0.01464,-0.01952,0.0244,0.01708,0.00976,0.00244,0.0244,0.19032,-0.02928,0.0488,-0.01464,-0.00976
0.00976,-0.01708,0.0244,0.01952,0.01464,-0.00244,0.01464,0.20008,-0.01952,0.05856,-0.00488,0
0.00488,-0.0122,0.01952,0.01708,0.01464,-0.00488,0.00976,0.21472,-0.00976,0.0732,0.00488,0.00976
0.00976,-0.01708,0.0244,0.01952,0.01464,-0.00244,0.00976,0.22448,-0.00488,0.08296,0.00976,0.00488
0.01464,-0.02196,0.02928,0.02196,0.01464,0,0.00976,0.244,0.00488,0.08784,0.0244,0.01464
0.01464,-0.0244,0.03416,0.02684,0.01952,-0.00244,0.00976,0.24888,0.01464,0.09272,0.02928,0.01464
0.01952,-0.02928,0.03904,0.02928,0.01952,0,0.00976,0.25376,0.01952,0.0976,0.03904,0.0244
0.0244,-0.03416,0.04392,0.03172,0.01952,0.00244,0.00976,0.26352,0.03416,0.10736,0.03904,0.01952
0.0244,-0.0366,0.0488,0.0366,0.0244,0,0.00488,0.26352,0.03904,0.11224,0.0488,0.0244
0.02928,-0.04148,0.05368,0.03904,0.0244,0.00244,0,0.27328,0.04392,0.11712,0.05368,0.02928
0.03416,-0.05124,0.06832,0.05124,0.03416,0,0,0.27816,0.05368,0.12688,0.05856,0.03904
0.03416,-0.05368,0.0732,0.05612,0.03904,-0.00244,0.00488,0.28792,0.05856,0.13664,0.06344,0.0488
0.03416,-0.05612,0.07808,0.061,0.04392,-0.00488,0.00488,0.2928,0.06832,0.1464,0.0732,0.06344
0.03904,-0.05856,0.07808,0.05856,0.03904,0,0.00488,0.2928,0.0732,0.1464,0.0732,0.06344
0.03904,-0.05856,0.07808,0.05856,0.03904,0,-0.00488,0.2928,0.0732,0.1464,0.07808,0.06832
0.03904,-0.05856,0.07808,0.05856,0.03904,0,-0.00488,0.2928,0.0732,0.1464,0.08296,0.0732
0.04392,-0.06344,0.08296,0.061,0.03904,0.00244,-0.00976,0.28792,0.07808,0.15128,0.09272,0.08296
0.03904,-0.05856,0.07808,0.05856,0.03904,0,-0.01464,0.27816,0.07808,0.1464,0.09272,0.08296
0.03416,-0.05612,0.07808,0.061,0.04392,-0.00488,-0.01464,0.2684,0.07808,0.14152,0.0976,0.08296
0.04392,-0.05856,0.0732,0.05124,0.02928,0.00732,-0.01464,0.26352,0.07808,0.13664,0.0976,0.08784
0.04392,-0.05856,0.0732,0.05124,0.02928,0.00732,-0.01464,0.25376,0.07808,0.13664,0.0976,0.09272
0.04392,-0.05856,0.0732,0.05124,0.02928,0.00732,-0.0244,0.244,0.0732,0.13176,0.0976,0.08784
0.04392,-0.05856,0.0732,0.05124,0.02928,0.00732,-0.0244,0.23424,0.06344,0.12688,0.0976,0.08296
0.0488,-0.06344,0.07808,0.05368,0.02928,0.00976,-0.02928,0.2196,0.05856,0.12688,0.09272,0.08296
0.05368,-0.06832,0.08296,0.05612,0.02928,0.0122,-0.03416,0.20496,0.05368,0.11224,0.09272,0.08784
0.06344,-0.0732,0.08296,0.05124,0.01952,0.02196,-0.04392,0.19032,0.0488,0.10248,0.08784,0.08784
0.07808,-0.08052,0.08296,0.04392,0.00488,0.0366,-0.0488,0.17568,0.04392,0.09272,0.08784,0.08296
0.06832,-0.07076,0.0732,0.03904,0.00488,0.03172,-0.05368,0.1464,0.03904,0.07808,0.07808,0.08296
0.06344,-0.06588,0.06832,0.0366,0.00488,0.02928,-0.05856,0.11712,0.03416,0.06832,0.0732,0.08296
0.0732,-0.06832,0.06344,0.02684,-0.00976,0.04148,-0.06832,0.09272,0.0244,0.05856,0.06344,0.07808
0.0732,-0.06344,0.05368,0.01708,-0.01952,0.04636,-0.0732,0.08296,0.01952,0.05856,0.06344,0.07808
0.06344,-0.05124,0.03904,0.00732,-0.0244,0.04392,-0.07808,0.07808,0.01464,0.0488,0.05856,0.06832
0.05856,-0.04636,0.03416,0.00488,-0.0244,0.04148,-0.08296,0.05856,0.00488,0.0488,0.05368,0.06344
0.0488,-0.03904,0.02928,0.00488,-0.01952,0.03416,-0.08784,0.04392,0,0.03416,0.03416,0.05368
0.03416,-0.01952,0.00488,-0.0122,-0.02928,0.03172,-0.09272,0.03416,0,0.03416,0.03416,0.05368
0.03904,-0.0244,0.00976,-0.00976,-0.02928,0.03416,-0.08784,0.03416,-0.00488,0.02928,0.03416,0.04392
0.04392,-0.02928,0.01464,-0.00732,-0.02928,0.0366,-0.08296,0.0244,-0.00488,0.02928,0.02928,0.04392
0.04392,-0.02928,0.01464,-0.00732,-0.02928,0.0366,-0.07808,0.01952,-0.00976,0.02928,0.0244,0.03904
0.04392,-0.02928,0.01464,-0.00732,-0.02928,0.0366,-0.06832,0.01952,-0.00976,0.02928,0.01952,0.03416
0.03904,-0.01952,0,-0.01952,-0.03904,0.03904,-0.06832,0.00976,-0.01464,0.0244,0.01464,0.02928
0.03416,-0.01464,-0.00488,-0.02196,-0.03904,0.0366,-0.05856,0.00976,-0.01464,0.0244,0.00976,0.0244
0.02928,-0.0122,-0.00488,-0.01952,-0.03416,0.03172,-0.06344,0.00488,-0.01952,0.01952,0.00976,0.01952
0.0244,-0.00976,-0.00488,-0.01708,-0.02928,0.02684,-0.06832,0,-0.01952,0.00976,0.00976,0.01952
0.01464,0.00244,-0.01952,-0.02684,-0.03416,0.0244,-0.06832,-0.00976,-0.01952,0.00976,0,0.00976
0.00976,0.00488,-0.01952,-0.0244,-0.02928,0.01952,-0.06832,-0.01464,-0.01952,0.00976,0,0.00488
0.00488,0.00732,-0.01952,-0.02196,-0.0244,0.01464,-0.06344,-0.01952,-0.02928,0.00976,-0.00488,0.00488
0.00488,0.00732,-0.01952,-0.02196,-0.0244,0.01464,-0.06344,-0.01952,-0.01952,0.01464,-0.00488,0.00488
0.00976,0,-0.00976,-0.01464,-0.01952,0.01464,-0.05856,-0.00976,-0.00976,0.01464,0,0.00976
0.00976,-0.00732,0.00488,0,-0.00488,0.00732,-0.05856,-0.00488,0,0.01464,0,0.00976
0.00976,-0.00732,0.00488,0,-0.00488,0.00732,-0.05856,0,0.00488,0.01952,0.00488,0.01464
0.00976,-0.00976,0.00976,0.00488,0,0.00488,-0.05856,0.00488,0.00976,0.0244,0.01464,0.01952
0.00488,-0.00732,0.00976,0.00732,0.00488,0,-0.05856,0.00488,0.00488,0.0244,0.01464,0.01952
0.00488,-0.00732,0.00976,0.00732,0.00488,0,-0.05856,0.00488,0,0.0244,0.01464,0.01952
0.00488,-0.00976,0.01464,0.0122,0.00976,-0.00244,-0.05856,-0.00488,0,0.01952,0.01952,0.01952
0,-0.00732,0.01464,0.01464,0.01464,-0.00732,-0.05856,-0.00976,0,0.01464,0.01952,0.01952
-0.00488,-0.00244,0.00976,0.0122,0.01464,-0.00976,-0.05856,-0.00976,0,0.00976,0.01952,0.01464
-0.00488,0,0.00488,0.00732,0.00976,-0.00732,-0.06344,-0.01464,0,0.00488,0.01952,0.00976
-0.00488,0,0.00488,0.00732,0.00976,-0.00732,-0.06344,-0.01952,0,0,0.01464,0
-0.00488,0,0.00488,0.00732,0.00976,-0.00732,-0.06344,-0.0244,-0.00976,-0.00488,0.01464,0
0,-0.00732,0.01464,0.01464,0.01464,-0.00732,-0.05856,-0.0244,-0.00488,-0.00488,0.00976,0
0.00488,-0.01464,0.0244,0.02196,0.01952,-0.00732,-0.05368,-0.01952,-0.00488,-0.00488,0.00488,0
0.00488,-0.0122,0.01952,0.01708,0.01464,-0.00488,-0.05368,-0.0244,-0.00976,-0.00976,0,-0.00488
0.00976,-0.01464,0.01952,0.01464,0.00976,0,-0.05368,-0.02928,-0.00976,-0.01464,0,-0.00976
0.00488,-0.00488,0.00488,0.00244,0,0.00244,-0.05856,-0.03904,-0.0244,-0.01952,-0.01464,-0.00976
-0.00488,0.00488,-0.00488,-0.00244,0,-0.00244,-0.06344,-0.04392,-0.02928,-0.0244,-0.01952,-0.00976
-0.00976,0.01464,-0.01952,-0.01464,-0.00976,0,-0.06344,-0.05368,-0.0488,-0.03904,-0.0244,-0.01464
-0.01464,0.01952,-0.0244,-0.01708,-0.00976,-0.00244,-0.06344,-0.06344,-0.05368,-0.04392,-0.02928,-0.01464
-0.01952,0.0244,-0.02928,-0.01952,-0.00976,-0.00488,-0.06344,-0.06344,-0.05368,-0.05368,-0.03416,-0.01952
-0.0244,0.02928,-0.03416,-0.02196,-0.00976,-0.00732,-0.06344,-0.06832,-0.05856,-0.06344,-0.03416,-0.02928
-0.0244,0.02928,-0.03416,-0.02196,-0.00976,-0.00732,-0.05856,-0.06832,-0.06344,-0.06344,-0.03904,-0.02928
-0.0244,0.03172,-0.03904,-0.02684,-0.01464,-0.00488,-0.05856,-0.06832,-0.06832,-0.06832,-0.03904,-0.03416
-0.01464,0.0244,-0.03416,-0.02684,-0.01952,0.00244,-0.05856,-0.07808,-0.06832,-0.0732,-0.0488,-0.03904
-0.00488,0.01708,-0.02928,-0.02684,-0.0244,0.00976,-0.05856,-0.07808,-0.06832,-0.07808,-0.05368,-0.04392
-0.00488,0.01708,-0.02928,-0.02684,-0.0244,0.00976,-0.05368,-0.0732,-0.0732,-0.07808,-0.05368,-0.04392
-0.00976,0.01952,-0.02928,-0.0244,-0.01952,0.00488,-0.0488,-0.0732,-0.07808,-0.07808,-0.0488,-0.0488
-0.01464,0.02196,-0.02928,-0.02196,-0.01464,0,-0.0488,-0.07808,-0.08296,-0.07808,-0.05368,-0.05368
-0.02928,0.03416,-0.03904,-0.0244,-0.00976,-0.00976,-0.0488,-0.08296,-0.08784,-0.07808,-0.05856,-0.05856
-0.03904,0.04636,-0.05368,-0.03416,-0.01464,-0.0122,-0.0488,-0.08784,-0.09272,-0.08296,-0.06344,-0.06832
-0.04392,0.05368,-0.06344,-0.04148,-0.01952,-0.0122,-0.0488,-0.08784,-0.09272,-0.08296,-0.06832,-0.0732
-0.04392,0.05368,-0.06344,-0.04148,-0.01952,-0.0122,-0.04392,-0.09272,-0.0976,-0.09272,-0.0732,-0.0732
-0.04392,0.05612,-0.06832,-0.04636,-0.0244,-0.00976,-0.0488,-0.0976,-0.10248,-0.10248,-0.07808,-0.0732
-0.03416,0.0488,-0.06344,-0.04636,-0.02928,-0.00244,-0.0488,-0.0976,-0.10736,-0.09272,-0.08296,-0.06832
-0.02928,0.04636,-0.06344,-0.0488,-0.03416,0.00244,-0.0488,-0.10248,-0.11224,-0.09272,-0.08296,-0.06344
-0.01952,0.03904,-0.05856,-0.0488,-0.03904,0.00976,-0.0488,-0.10248,-0.10736,-0.10248,-0.08296,-0.06344
-0.00976,0.02928,-0.0488,-0.04392,-0.03904,0.01464,-0.04392,-0.0976,-0.10248,-0.10248,-0.08296,-0.06832
-0.00976,0.02928,-0.0488,-0.04392,-0.03904,0.01464,-0.04392,-0.0976,-0.10736,-0.11224,-0.08784,-0.06832
-0.01464,0.03416,-0.05368,-0.04636,-0.03904,0.0122,-0.04392,-0.10248,-0.11224,-0.11224,-0.08296,-0.06832
-0.0244,0.04392,-0.06344,-0.05124,-0.03904,0.00732,-0.04392,-0.10248,-0.11712,-0.11712,-0.08296,-0.06832
-0.03416,0.05124,-0.06832,-0.05124,-0.03416,0,-0.04392,-0.10736,-0.11712,-0.122,-0.08296,-0.06832
-0.03416,0.05124,-0.06832,-0.05124,-0.03416,0,-0.04392,-0.10736,-0.11712,-0.122,-0.08296,-0.0732
-0.03416,0.05368,-0.0732,-0.05612,-0.03904,0.00244,-0.03904,-0.10248,-0.11712,-0.11712,-0.08296,-0.07808
-0.03416,0.05368,-0.0732,-0.05612,-0.03904,0.00244,-0.03416,-0.10248,-0.11712,-0.11712,-0.08296,-0.07808
-0.03416,0.05368,-0.0732,-0.05612,-0.03904,0.00244,-0.02928,-0.10248,-0.11712,-0.11712,-0.08296,-0.07808
-0.03416,0.05368,-0.0732,-0.05612,-0.03904,0.00244,-0.02928,-0.10248,-0.11712,-0.11224,-0.08296,-0.0732
-0.03904,0.05612,-0.0732,-0.05368,-0.03416,-0.00244,-0.0244,-0.10248,-0.11224,-0.10736,-0.08296,-0.0732
-0.03416,0.05368,-0.0732,-0.05612,-0.03904,0.00244,-0.0244,-0.0976,-0.11224,-0.10736,-0.08296,-0.0732
-0.02928,0.05124,-0.0732,-0.05856,-0.04392,0.00732,-0.0244,-0.09272,-0.11224,-0.10736,-0.08296,-0.0732
-0.02928,0.05124,-0.0732,-0.05856,-0.04392,0.00732,-0.0244,-0.0976,-0.11224,-0.11224,-0.08296,-0.07808
-0.03904,0.061,-0.08296,-0.06344,-0.04392,0.00244,-0.01952,-0.0976,-0.11224,-0.11224,-0.08296,-0.07808
-0.03416,0.05856,-0.08296,-0.06588,-0.0488,0.00732,-0.01952,-0.09272,-0.11224,-0.10736,-0.08296,-0.07808
-0.03416,0.05856,-0.08296,-0.06588,-0.0488,0.00732,-0.01952,-0.09272,-0.11712,-0.10248,-0.08784,-0.08296
-0.02928,0.05368,-0.07808,-0.06344,-0.0488,0.00976,-0.01952,-0.09272,-0.11712,-0.10248,-0.09272,-0.08296
-0.02928,0.05368,-0.07808,-0.06344,-0.0488,0.00976,-0.01952,-0.0976,-0.11712,-0.10736,-0.0976,-0.08784
-0.02928,0.05368,-0.07808,-0.06344,-0.0488,0.00976,-0.01952,-0.0976,-0.11712,-0.10736,-0.0976,-0.08296
-0.02928,0.05368,-0.07808,-0.06344,-0.0488,0.00976,-0.01952,-0.0976,-0.11712,-0.10736,-0.0976,-0.07808
-0.02928,0.05368,-0.07808,-0.06344,-0.0488,0.00976,-0.01464,-0.09272,-0.11224,-0.10736,-0.09272,-0.07808
-0.02928,0.05368,-0.07808,-0.06344,-0.0488,0.00976,-0.00976,-0.08784,-0.10736,-0.10736,-0.08784,-0.07808
-0.02928,0.05368,-0.07808,-0.06344,-0.0488,0.00976,-0.00976,-0.08784,-0.10736,-0.10736,-0.08784,-0.07808
-0.01952,0.04636,-0.0732,-0.06344,-0.05368,0.01708,-0.00488,-0.07808,-0.10736,-0.0976,-0.08784,-0.0732
-0.00976,0.03904,-0.06832,-0.06344,-0.05856,0.0244,0,-0.05856,-0.09272,-0.08296,-0.0732,-0.06344
0,0.02684,-0.05368,-0.05368,-0.05368,0.02684,0.00976,-0.02928,-0.06832,-0.05856,-0.05856,-0.0488
0.01464,0.00488,-0.0244,-0.03172,-0.03904,0.02684,0.01952,0,-0.04392,-0.0244,-0.03904,-0.03416
0.01464,-0.00976,0.00488,-0.00244,-0.00976,0.0122,0.02928,0.01464,-0.0244,-0.00976,-0.01952,-0.01464
0.01952,-0.01708,0.01464,0.00488,-0.00488,0.0122,0.02928,0.01464,-0.0244,0.00488,-0.01952,-0.00976
0.01952,-0.01952,0.01952,0.00976,0,0.00976,0.04392,0.01952,-0.01464,0.00976,-0.01464,-0.00976
0.03416,-0.03172,0.02928,0.0122,-0.00488,0.01952,0.04392,0.04392,-0.00976,0.01952,-0.00976,0
0.05368,-0.04392,0.03416,0.00732,-0.01952,0.0366,0.03904,0.06832,0,0.02928,0,0.00976
0.06344,-0.0488,0.03416,0.00244,-0.02928,0.04636,0.01464,0.06832,0,0.02928,0,0.01464
0.06344,-0.0488,0.03416,0.00244,-0.02928,0.04636,-0.02928,0.05368,0,0.0244,-0.00488,0.01464
0.05368,-0.03416,0.01464,-0.0122,-0.03904,0.04636,-0.0732,0.00976,-0.00976,-0.00488,-0.00488,0.01464
0.02928,-0.00976,-0.00976,-0.0244,-0.03904,0.03416,-0.0732,-0.03904,-0.0488,-0.05856,-0.03416,-0.00488
0.02928,0.00732,-0.04392,-0.05856,-0.0732,0.05124,-0.06832,-0.06344,-0.08784,-0.08784,-0.0488,-0.01952
0.01464,0.01952,-0.05368,-0.061,-0.06832,0.04148,-0.05368,-0.0732,-0.10248,-0.0976,-0.06344,-0.03416
0.00976,0.03172,-0.0732,-0.07808,-0.08296,0.04636,-0.05368,-0.09272,-0.11712,-0.11712,-0.07808,-0.05368
0,0.04148,-0.08296,-0.08296,-0.08296,0.04148,-0.0488,-0.11224,-0.12688,-0.13176,-0.08296,-0.05856
0.00488,0.03904,-0.08296,-0.0854,-0.08784,0.04636,-0.0488,-0.11224,-0.122,-0.12688,-0.08296,-0.05856
0.00976,0.0366,-0.08296,-0.08784,-0.09272,0.05124,-0.04392,-0.10248,-0.11224,-0.122,-0.08296,-0.05856
0.0244,0.02684,-0.07808,-0.09028,-0.10248,0.06344,-0.04392,-0.11224,-0.11712,-0.122,-0.09272,-0.06344
0.01464,0.04392,-0.10248,-0.1098,-0.11712,0.06588,-0.04392,-0.122,-0.13664,-0.14152,-0.10736,-0.08784
0.00488,0.05124,-0.10736,-0.1098,-0.11224,0.05856,-0.05856,-0.13664,-0.15128,-0.15616,-0.11224,-0.08784
-0.00488,0.05612,-0.10736,-0.10492,-0.10248,0.0488,-0.06344,-0.15128,-0.16592,-0.18056,-0.11224,-0.08784
-0.01952,0.05124,-0.08296,-0.0732,-0.06344,0.02196,-0.05368,-0.15128,-0.1464,-0.15616,-0.11224,-0.08784
-0.02928,0.04636,-0.06344,-0.0488,-0.03416,0.00244,-0.03904,-0.13176,-0.13176,-0.1464,-0.10736,-0.08784
-0.03904,0.05368,-0.06832,-0.0488,-0.02928,-0.00488,-0.03416,-0.13176,-0.13176,-0.1464,-0.10736,-0.08784
-0.05368,0.07076,-0.08784,-0.061,-0.03416,-0.00976,-0.02928,-0.13176,-0.1464,-0.1464,-0.11712,-0.0976
-0.05368,0.08052,-0.10736,-0.08052,-0.05368,0,-0.02928,-0.13176,-0.1464,-0.15616,-0.122,-0.10736
-0.05856,0.0854,-0.11224,-0.08296,-0.05368,-0.00244,-0.02928,-0.13664,-0.15128,-0.15616,-0.122,-0.10736
-0.05856,0.0854,-0.11224,-0.08296,-0.05368,-0.00244,-0.02928,-0.13176,-0.15128,-0.15616,-0.122,-0.09272
-0.05856,0.08296,-0.10736,-0.07808,-0.0488,-0.00488,-0.02928,-0.12688,-0.15128,-0.15616,-0.122,-0.08296
-0.05368,0.07564,-0.0976,-0.07076,-0.04392,-0.00488,-0.0244,-0.12688,-0.1464,-0.15616,-0.11712,-0.08296
-0.0488,0.06832,-0.08784,-0.06344,-0.03904,-0.00488,-0.01952,-0.11712,-0.14152,-0.15128,-0.10736,-0.08296
-0.03904,0.061,-0.08296,-0.06344,-0.04392,0.00244,-0.01952,-0.11224,-0.13664,-0.14152,-0.10736,-0.08296
-0.03416,0.05612,-0.07808,-0.061,-0.04392,0.00488,-0.01464,-0.11224,-0.13664,-0.14152,-0.10736,-0.08296
-0.03416,0.05856,-0.08296,-0.06588,-0.0488,0.00732,-0.01952,-0.11712,-0.14152,-0.14152,-0.10248,-0.07808
-0.03416,0.061,-0.08784,-0.07076,-0.05368,0.00976,-0.0244,-0.11712,-0.14152,-0.14152,-0.10248,-0.07808
-0.0488,0.06344,-0.07808,-0.05368,-0.02928,-0.00976,-0.01952,-0.11712,-0.14152,-0.13664,-0.10248,-0.0732
-0.05368,0.0488,-0.04392,-0.01708,0.00976,-0.03172,-0.01952,-0.11712,-0.122,-0.122,-0.08296,-0.05856
-0.05368,0.00976,0.03416,0.061,0.08784,-0.07076,-0.00976,-0.10248,-0.03904,-0.0732,0,0
-0.0488,-0.04148,0.13176,0.15616,0.18056,-0.11468,0.01464,0.04392,0.09272,0.05856,0.11224,0.09272
-0.00976,-0.10004,0.20984,0.21472,0.2196,-0.11468,0.01464,0.16592,0.23424,0.18544,0.23912,0.20496
0.0732,-0.18056,0.28792,0.25132,0.21472,-0.07076,-0.00976,0.16592,0.35624,0.2684,0.38064,0.3416
0.20008,-0.29524,0.3904,0.29036,0.19032,0.00488,-0.03416,0.1952,0.54656,0.43432,0.54168,0.49288
0.33672,-0.42212,0.50752,0.33916,0.1708,0.08296,-0.20984,-0.05856,0.73688,0.49776,0.732,0.67344
0.43432,-0.51484,0.59536,0.3782,0.16104,0.13664,-0.4636,-0.54656,0.87352,0.4392,0.9028,0.84912
0.54656,-0.60024,0.65392,0.38064,0.10736,0.2196,-0.67832,-0.99552,0.92232,0.28304,0.99552,0.976
0.64904,-0.61976,0.59048,0.26596,-0.05856,0.3538,-0.84912,-1.2444,0.88816,0.13176,0.96624,0.96624
0.66368,-0.55876,0.45384,0.122,-0.20984,0.43676,-0.98576,-1.4152,0.72712,-0.05856,0.77104,0.8296
0.60512,-0.36356,0.122,-0.18056,-0.48312,0.54412,-1.05896,-1.60552,0.3172,-0.40504,0.35136,0.51728
0.5124,-0.20252,-0.10736,-0.36356,-0.61976,0.56608,-1.05896,-1.7812,-0.03416,-0.732,0.03416,0.27328
0.37576,-0.14396,-0.08784,-0.27572,-0.4636,0.41968,-1.01504,-1.79584,-0.2196,-0.94672,-0.03904,0.1708
0.26352,-0.10248,-0.05856,-0.19032,-0.32208,0.2928,-0.90768,-1.57624,-0.2928,-0.9516,-0.08296,0.11712
0.16104,-0.06588,-0.02928,-0.1098,-0.19032,0.17568,-0.67832,-1.2444,-0.28792,-0.79056,-0.09272,0.08784
0.0732,-0.0244,-0.0244,-0.061,-0.0976,0.0854,-0.45384,-0.98088,-0.366,-0.70272,-0.15128,0.0244
0.01464,-0.00976,0.00488,-0.00244,-0.00976,0.0122,-0.33184,-0.7564,-0.35136,-0.5856,-0.15128,-0.00488
-0.01464,0,0.01464,0.02196,0.02928,-0.02196,-0.26352,-0.56608,-0.28792,-0.44408,-0.13664,-0.00976
-0.01952,0.02196,-0.0244,-0.01464,-0.00488,-0.00732,-0.18056,-0.40504,-0.25864,-0.34648,-0.13664,-0.03904
-0.03416,0.04392,-0.05368,-0.0366,-0.01952,-0.00732,-0.07808,-0.27816,-0.23912,-0.28304,-0.13664,-0.08296
-0.0488,0.06832,-0.08784,-0.06344,-0.03904,-0.00488,-0.0488,-0.2196,-0.20984,-0.24888,-0.13664,-0.0976
-0.06344,0.0854,-0.10736,-0.07564,-0.04392,-0.00976,-0.04392,-0.19032,-0.19032,-0.2196,-0.13664,-0.10248
-0.06344,0.08052,-0.0976,-0.06588,-0.03416,-0.01464,-0.00976,-0.122,-0.18544,-0.18056,-0.13664,-0.11224
-0.0732,0.08784,-0.10248,-0.06588,-0.02928,-0.02196,0.01952,-0.09272,-0.18056,-0.1708,-0.13664,-0.122
-0.06832,0.08784,-0.10736,-0.0732,-0.03904,-0.01464,0.02928,-0.08784,-0.17568,-0.16104,-0.13664,-0.122
-0.05856,0.07808,-0.0976,-0.06832,-0.03904,-0.00976,0.02928,-0.07808,-0.17568,-0.15128,-0.13664,-0.11712
-0.06832,0.0854,-0.10248,-0.06832,-0.03416,-0.01708,0.03904,-0.06344,-0.18056,-0.1464,-0.13664,-0.12688
-0.06832,0.0854,-0.10248,-0.06832,-0.03416,-0.01708,0.0488,-0.0488,-0.18056,-0.14152,-0.13664,-0.12688
-0.0732,0.0854,-0.0976,-0.061,-0.0244,-0.0244,0.04392,-0.03904,-0.17568,-0.14152,-0.13664,-0.12688
-0.07808,0.08784,-0.0976,-0.05856,-0.01952,-0.02928,0.04392,-0.03904,-0.17568,-0.14152,-0.13664,-0.13176
-0.07808,0.09272,-0.10736,-0.06832,-0.02928,-0.0244,0.0488,-0.03904,-0.17568,-0.13664,-0.14152,-0.13176
-0.07808,0.09516,-0.11224,-0.0732,-0.03416,-0.02196,0.0488,-0.03416,-0.17568,-0.13664,-0.1464,-0.13664
-0.08784,0.10004,-0.11224,-0.06832,-0.0244,-0.03172,0.0488,-0.02928,-0.17568,-0.13664,-0.1464,-0.13664
-0.08784,0.10004,-0.11224,-0.06832,-0.0244,-0.03172,0.0488,-0.0244,-0.17568,-0.13664,-0.1464,-0.13664
-0.07808,0.09516,-0.11224,-0.0732,-0.03416,-0.02196,0.05368,-0.00976,-0.17568,-0.13176,-0.14152,-0.13176
-0.0732,0.09272,-0.11224,-0.07564,-0.03904,-0.01708,0.06344,0,-0.1708,-0.13176,-0.13664,-0.12688
-0.0732,0.09028,-0.10736,-0.07076,-0.03416,-0.01952,0.06344,0,-0.1708,-0.12688,-0.13664,-0.12688
-0.06832,0.0854,-0.10248,-0.06832,-0.03416,-0.01708,0.06344,0,-0.1708,-0.122,-0.13664,-0.12688
-0.06832,0.08296,-0.0976,-0.06344,-0.02928,-0.01952,0.05856,0,-0.1708,-0.122,-0.13176,-0.122
-0.06832,0.08296,-0.0976,-0.06344,-0.02928,-0.01952,0.05368,-0.00488,-0.1708,-0.122,-0.13176,-0.122
-0.06832,0.08052,-0.09272,-0.05856,-0.0244,-0.02196,0.0488,-0.00976,-0.17568,-0.12688,-0.13176,-0.122
-0.0732,0.08296,-0.09272,-0.05612,-0.01952,-0.02684,0.0488,-0.01464,-0.18056,-0.13176,-0.13664,-0.122
-0.07808,0.09028,-0.10248,-0.06344,-0.0244,-0.02684,0.0488,-0.00976,-0.18056,-0.12688,-0.13176,-0.11712
-0.07808,0.09516,-0.11224,-0.0732,-0.03416,-0.02196,0.0488,-0.00488,-0.18056,-0.12688,-0.13176,-0.11224
-0.0732,0.09272,-0.11224,-0.07564,-0.03904,-0.01708,0.0488,0,-0.1708,-0.122,-0.13176,-0.11224
-0.0732,0.09272,-0.11224,-0.07564,-0.03904,-0.01708,0.0488,0.00976,-0.16592,-0.122,-0.12688,-0.11224
-0.06344,0.08052,-0.0976,-0.06588,-0.03416,-0.01464,0.0488,0.00976,-0.16592,-0.122,-0.11712,-0.11224
-0.05856,0.0732,-0.08784,-0.05856,-0.02928,-0.01464,0.05368,0.01464,-0.16104,-0.122,-0.10248,-0.10736
-0.05856,0.0732,-0.08784,-0.05856,-0.02928,-0.01464,0.0488,0.01952,-0.15616,-0.11712,-0.11224,-0.10736
-0.05368,0.07076,-0.08784,-0.061,-0.03416,-0.00976,0.0488,0.0244,-0.15616,-0.11712,-0.11224,-0.10248
-0.05856,0.07564,-0.09272,-0.06344,-0.03416,-0.0122,0.04392,0.02928,-0.15128,-0.10736,-0.10736,-0.09272
-0.05368,0.07564,-0.0976,-0.07076,-0.04392,-0.00488,0.03904,0.03416,-0.1464,-0.10248,-0.10248,-0.08784
-0.05368,0.07076,-0.08784,-0.061,-0.03416,-0.00976,0.03904,0.03904,-0.14152,-0.0976,-0.10248,-0.08296
-0.04392,0.06588,-0.08784,-0.06588,-0.04392,0,0.03416,0.0488,-0.13176,-0.08784,-0.10248,-0.08296
-0.04392,0.06588,-0.08784,-0.06588,-0.04392,0,0.03416,0.05368,-0.122,-0.07808,-0.0976,-0.08296
-0.04392,0.06344,-0.08296,-0.061,-0.03904,-0.00244,0.03416,0.0732,-0.122,-0.07808,-0.09272,-0.08296
-0.03904,0.05368,-0.06832,-0.0488,-0.02928,-0.00488,0.03904,0.08296,-0.10736,-0.06832,-0.08296,-0.06832
-0.03904,0.05124,-0.06344,-0.04392,-0.0244,-0.00732,0.04392,0.09272,-0.10736,-0.06344,-0.07808,-0.05856
-0.02928,0.04148,-0.05368,-0.03904,-0.0244,-0.00244,0.04392,0.0976,-0.0976,-0.0488,-0.06832,-0.05368
-0.0244,0.0366,-0.0488,-0.0366,-0.0244,0,0.03904,0.10736,-0.09272,-0.03904,-0.06344,-0.0488
-0.01952,0.03172,-0.04392,-0.03416,-0.0244,0.00244,0.03904,0.122,-0.07808,-0.02928,-0.05368,-0.0488
-0.01952,0.02684,-0.03416,-0.0244,-0.01464,-0.00244,0.03416,0.13176,-0.07808,-0.01952,-0.0488,-0.0488
-0.01952,0.02684,-0.03416,-0.0244,-0.01464,-0.00244,0.02928,0.15128,-0.05856,-0.00976,-0.03416,-0.03904
-0.00488,0.01708,-0.02928,-0.02684,-0.0244,0.00976,0.0244,0.16592,-0.05368,0,-0.0244,-0.0244
0.00488,0.00488,-0.01464,-0.01708,-0.01952,0.0122,0.0244,0.18544,-0.03904,0.00976,-0.01464,-0.01952
0.00488,0,-0.00488,-0.00732,-0.00976,0.00732,0.01952,0.20008,-0.02928,0.01952,-0.00488,-0.00976
0.00976,-0.00732,0.00488,0,-0.00488,0.00732,0.01952,0.21472,-0.01952,0.03904,0.00488,0
0.01952,-0.01708,0.01464,0.00488,-0.00488,0.0122,0.01952,0.22448,-0.00976,0.05856,0.00976,0
0.0244,-0.02196,0.01952,0.00732,-0.00488,0.01464,0.01952,0.244,0.00488,0.06832,0.0244,0.01464
0.0244,-0.0244,0.0244,0.0122,0,0.0122,0.01952,0.25376,0.01464,0.07808,0.02928,0.01464
0.02928,-0.02928,0.02928,0.01464,0,0.01464,0.01464,0.25864,0.01464,0.08296,0.03904,0.01952
0.03416,-0.03416,0.03416,0.01708,0,0.01708,0.00976,0.26352,0.0244,0.08784,0.03904,0.01952
0.03416,-0.0366,0.03904,0.02196,0.00488,0.01464,0.00488,0.26352,0.02928,0.08784,0.04392,0.02928
0.03904,-0.04148,0.04392,0.0244,0.00488,0.01708,0,0.27328,0.03416,0.08784,0.04392,0.02928
0.03904,-0.04636,0.05368,0.03416,0.01464,0.0122,0,0.27816,0.04392,0.0976,0.0488,0.03904
0.03416,-0.04392,0.05368,0.0366,0.01952,0.00732,0,0.28304,0.04392,0.10248,0.05368,0.03904
0.03416,-0.04636,0.05856,0.04148,0.0244,0.00488,-0.00488,0.28304,0.0488,0.10736,0.06344,0.0488
0.03904,-0.0488,0.05856,0.03904,0.01952,0.00976,-0.00488,0.28304,0.05368,0.10736,0.06344,0.05368
0.04392,-0.05856,0.0732,0.05124,0.02928,0.00732,-0.00488,0.28792,0.06344,0.11224,0.0732,0.06832
0.0488,-0.06832,0.08784,0.06344,0.03904,0.00488,0.00488,0.2928,0.0732,0.11712,0.07808,0.07808
0.05368,-0.0732,0.09272,0.06588,0.03904,0.00732,0,0.28792,0.07808,0.122,0.08296,0.08296
0.05368,-0.0732,0.09272,0.06588,0.03904,0.00732,-0.00488,0.28304,0.07808,0.122,0.08296,0.08296
0.0488,-0.07076,0.09272,0.06832,0.04392,0.00244,-0.00976,0.27328,0.06832,0.11712,0.08784,0.08296
0.05368,-0.07076,0.08784,0.061,0.03416,0.00976,-0.01464,0.26352,0.05856,0.10736,0.08784,0.08784
0.05368,-0.07076,0.08784,0.061,0.03416,0.00976,-0.01464,0.24888,0.05856,0.10248,0.08296,0.08784
0.05368,-0.06832,0.08296,0.05612,0.02928,0.0122,-0.0244,0.23424,0.05856,0.09272,0.07808,0.08296
0.05368,-0.06832,0.08296,0.05612,0.02928,0.0122,-0.0244,0.22448,0.05368,0.08784,0.07808,0.08296
0.05368,-0.06588,0.07808,0.05124,0.0244,0.01464,-0.02928,0.20496,0.0488,0.08296,0.0732,0.08296
0.05368,-0.06588,0.07808,0.05124,0.0244,0.01464,-0.03416,0.18544,0.0488,0.06832,0.07808,0.08784
0.05368,-0.06832,0.08296,0.05612,0.02928,0.0122,-0.04392,0.1708,0.0488,0.06344,0.07808,0.08784
0.05856,-0.07076,0.08296,0.05368,0.0244,0.01708,-0.0488,0.15616,0.04392,0.05368,0.07808,0.08296
0.05856,-0.06588,0.0732,0.04392,0.01464,0.02196,-0.05368,0.13664,0.03904,0.04392,0.0732,0.08296
0.06344,-0.06588,0.06832,0.0366,0.00488,0.02928,-0.06344,0.11712,0.02928,0.03416,0.0732,0.08296
0.0732,-0.07076,0.06832,0.03172,-0.00488,0.03904,-0.0732,0.09272,0.01952,0.01952,0.06344,0.07808
0.0732,-0.06832,0.06344,0.02684,-0.00976,0.04148,-0.0732,0.08296,0.01952,0.01464,0.05856,0.07808
0.06832,-0.05856,0.0488,0.01464,-0.01952,0.04392,-0.07808,0.0732,0.01464,0,0.0488,0.06832
0.06832,-0.05612,0.04392,0.00976,-0.0244,0.04636,-0.07808,0.0488,0.00488,0,0.04392,0.06344
0.05856,-0.0488,0.03904,0.00976,-0.01952,0.03904,-0.07808,0.03416,-0.00488,-0.01464,0.0244,0.05368
0.04392,-0.02928,0.01464,-0.00732,-0.02928,0.0366,-0.08296,0.0244,-0.00976,-0.01464,0.0244,0.05856
0.04392,-0.02928,0.01464,-0.00732,-0.02928,0.0366,-0.08296,0.01952,-0.01464,-0.0244,0.01952,0.0488
0.04392,-0.02928,0.01464,-0.00732,-0.02928,0.0366,-0.08296,0.00976,-0.01464,-0.0244,0.01464,0.04392
0.04392,-0.02928,0.01464,-0.00732,-0.02928,0.0366,-0.08296,0.00976,-0.01952,-0.01952,0.01464,0.03904
0.04392,-0.02928,0.01464,-0.00732,-0.02928,0.0366,-0.07808,0.00976,-0.01464,-0.01464,0.00976,0.02928
0.03904,-0.02196,0.00488,-0.01464,-0.03416,0.0366,-0.07808,0,-0.01464,-0.01464,0.00488,0.0244
0.03416,-0.01708,0,-0.01708,-0.03416,0.03416,-0.06832,0,-0.01464,-0.01464,0,0.0244
0.02928,-0.0122,-0.00488,-0.01952,-0.03416,0.03172,-0.06832,-0.00488,-0.01952,-0.01464,0,0.01952
0.0244,-0.00976,-0.00488,-0.01708,-0.02928,0.02684,-0.06344,-0.00976,-0.01952,-0.01464,0,0.01952
0.01464,0.00244,-0.01952,-0.02684,-0.03416,0.0244,-0.05856,-0.01464,-0.01952,-0.00976,-0.00976,0.00976
0.01464,0,-0.01464,-0.02196,-0.02928,0.02196,-0.05856,-0.00976,-0.01952,-0.00976,-0.00976,0.00488
0.01464,-0.00244,-0.00976,-0.01708,-0.0244,0.01952,-0.05368,-0.00976,-0.02928,-0.00976,-0.01464,0.00488
0.01464,-0.00244,-0.00976,-0.01708,-0.0244,0.01952,-0.05856,-0.00976,-0.01952,-0.00976,-0.01464,0
0.01952,-0.00732,-0.00488,-0.01464,-0.0244,0.02196,-0.05856,-0.00488,-0.01952,-0.01464,-0.00976,0
0.01464,-0.00732,0,-0.00732,-0.01464,0.01464,-0.05856,-0.00488,-0.01952,-0.01464,-0.00976,0
0.00976,-0.00244,-0.00488,-0.00976,-0.01464,0.0122,-0.05856,-0.00488,-0.01464,-0.01464,-0.00976,0
0.00488,-0.00244,0,-0.00244,-0.00488,0.00488,-0.05856,-0.00488,-0.00976,-0.00976,-0.00488,0
-0.00488,0.00244,0,0.00244,0.00488,-0.00488,-0.05856,-0.00488,-0.00976,-0.00488,-0.00488,0
-0.00488,0,0.00488,0.00732,0.00976,-0.00732,-0.05856,-0.00488,-0.00976,0,-0.00488,0
-0.00488,-0.00488,0.01464,0.01708,0.01952,-0.0122,-0.05856,-0.00976,-0.00976,0.00488,0,0
0.00488,-0.01464,0.0244,0.02196,0.01952,-0.00732,-0.05368,-0.00488,-0.00488,0.00488,0,0.00488
0.01464,-0.0244,0.03416,0.02684,0.01952,-0.00244,-0.04392,0,0,0.00488,0,0.00976
0.01464,-0.0244,0.03416,0.02684,0.01952,-0.00244,-0.04392,-0.00488,0,0.00488,0.00488,0.01952
0.01464,-0.0244,0.03416,0.02684,0.01952,-0.00244,-0.04392,-0.00976,0,0,0.00488,0.01952
0.00976,-0.01952,0.02928,0.0244,0.01952,-0.00488,-0.0488,-0.01464,-0.01464,-0.00976,0.00488,0.00976
0.00488,-0.01464,0.0244,0.02196,0.01952,-0.00732,-0.05368,-0.01952,-0.01952,-0.01952,0,0
0.00488,-0.01464,0.0244,0.02196,0.01952,-0.00732,-0.05368,-0.0244,-0.0244,-0.0244,-0.00488,0
0,-0.00976,0.01952,0.01952,0.01952,-0.00976,-0.05368,-0.03416,-0.02928,-0.02928,-0.00976,-0.00488
-0.00488,-0.00732,0.01952,0.02196,0.0244,-0.01464,-0.05368,-0.04392,-0.03416,-0.03416,-0.00976,-0.00976
-0.01464,0.00244,0.00976,0.01708,0.0244,-0.01952,-0.05368,-0.05368,-0.0488,-0.03904,-0.01952,-0.01464
-0.0244,0.00976,0.00488,0.01708,0.02928,-0.02684,-0.05856,-0.05368,-0.0488,-0.04392,-0.01952,-0.01952
-0.0244,0.01708,-0.00976,0.00244,0.01464,-0.01952,-0.06344,-0.06344,-0.06344,-0.05856,-0.0244,-0.0244
-0.01952,0.01708,-0.01464,-0.00488,0.00488,-0.0122,-0.06344,-0.06832,-0.05856,-0.05856,-0.02928,-0.01952
-0.01464,0.01464,-0.01464,-0.00732,0,-0.00732,-0.06344,-0.06344,-0.05368,-0.05856,-0.03416,-0.01464
-0.00488,0.00732,-0.00976,-0.00732,-0.00488,0,-0.06344,-0.06832,-0.05856,-0.06344,-0.03416,-0.01952
0.00488,0,-0.00488,-0.00732,-0.00976,0.00732,-0.05856,-0.06832,-0.06344,-0.06344,-0.03904,-0.01952
-0.00488,0.00732,-0.00976,-0.00732,-0.00488,0,-0.05368,-0.06832,-0.06832,-0.06832,-0.03904,-0.02928
-0.01464,0.01464,-0.01464,-0.00732,0,-0.00732,-0.0488,-0.07808,-0.0732,-0.0732,-0.0488,-0.03904
-0.01464,0.01952,-0.0244,-0.01708,-0.00976,-0.00244,-0.0488,-0.07808,-0.07808,-0.07808,-0.05368,-0.04392
-0.01464,0.02196,-0.02928,-0.02196,-0.01464,0,-0.0488,-0.07808,-0.08296,-0.08296,-0.05856,-0.04392
-0.01952,0.0244,-0.02928,-0.01952,-0.00976,-0.00488,-0.0488,-0.08296,-0.08784,-0.08784,-0.05856,-0.0488
-0.01952,0.0244,-0.02928,-0.01952,-0.00976,-0.00488,-0.0488,-0.08784,-0.09272,-0.09272,-0.06344,-0.05368
-0.02928,0.03172,-0.03416,-0.01952,-0.00488,-0.0122,-0.0488,-0.09272,-0.0976,-0.0976,-0.06832,-0.05856
-0.02928,0.03172,-0.03416,-0.01952,-0.00488,-0.0122,-0.0488,-0.0976,-0.10248,-0.10248,-0.0732,-0.06344
-0.01952,0.02684,-0.03416,-0.0244,-0.01464,-0.00244,-0.05368,-0.0976,-0.0976,-0.10248,-0.0732,-0.05856
-0.01464,0.0244,-0.03416,-0.02684,-0.01952,0.00244,-0.0488,-0.0976,-0.0976,-0.10248,-0.06832,-0.05368
-0.01464,0.02928,-0.04392,-0.0366,-0.02928,0.00732,-0.0488,-0.0976,-0.10248,-0.0976,-0.06832,-0.05368
-0.01464,0.03172,-0.0488,-0.04148,-0.03416,0.00976,-0.0488,-0.0976,-0.10248,-0.09272,-0.0732,-0.05368
-0.01952,0.0366,-0.05368,-0.04392,-0.03416,0.00732,-0.0488,-0.0976,-0.10736,-0.0976,-0.0732,-0.05368
-0.0244,0.04148,-0.05856,-0.04636,-0.03416,0.00488,-0.0488,-0.0976,-0.10736,-0.10248,-0.0732,-0.05368
-0.02928,0.04392,-0.05856,-0.04392,-0.02928,0,-0.04392,-0.0976,-0.10248,-0.10248,-0.0732,-0.06344
-0.02928,0.04392,-0.05856,-0.04392,-0.02928,0,-0.04392,-0.0976,-0.10248,-0.11224,-0.08296,-0.06832
-0.0244,0.03904,-0.05368,-0.04148,-0.02928,0.00244,-0.03904,-0.10248,-0.10248,-0.11224,-0.08296,-0.06832
-0.01464,0.03172,-0.0488,-0.04148,-0.03416,0.00976,-0.03416,-0.10248,-0.10736,-0.11224,-0.08296,-0.06832
-0.01464,0.03172,-0.0488,-0.04148,-0.03416,0.00976,-0.03416,-0.10736,-0.11224,-0.11712,-0.08296,-0.06344
-0.00976,0.02684,-0.04392,-0.03904,-0.03416,0.0122,-0.03416,-0.10736,-0.11712,-0.122,-0.08296,-0.05856
-0.00488,0.02684,-0.0488,-0.04636,-0.04392,0.01952,-0.02928,-0.10248,-0.11712,-0.11712,-0.08296,-0.05856
-0.00488,0.02928,-0.05368,-0.05124,-0.0488,0.02196,-0.02928,-0.10248,-0.11712,-0.11712,-0.08296,-0.05856
-0.00976,0.03172,-0.05368,-0.0488,-0.04392,0.01708,-0.02928,-0.10248,-0.11712,-0.11712,-0.08296,-0.06344
-0.01464,0.03416,-0.05368,-0.04636,-0.03904,0.0122,-0.02928,-0.10248,-0.122,-0.11712,-0.08296,-0.06344
-0.0244,0.04148,-0.05856,-0.04636,-0.03416,0.00488,-0.0244,-0.10248,-0.122,-0.11712,-0.08784,-0.06344
-0.02928,0.04636,-0.06344,-0.0488,-0.03416,0.00244,-0.0244,-0.10248,-0.122,-0.11712,-0.09272,-0.06344
-0.02928,0.04636,-0.06344,-0.0488,-0.03416,0.00244,-0.0244,-0.10248,-0.122,-0.11224,-0.09272,-0.06344
-0.02928,0.04636,-0.06344,-0.0488,-0.03416,0.00244,-0.0244,-0.10736,-0.122,-0.11224,-0.09272,-0.06832
-0.03904,0.05612,-0.0732,-0.05368,-0.03416,-0.00244,-0.0244,-0.10736,-0.122,-0.11224,-0.09272,-0.06832
-0.03416,0.05124,-0.06832,-0.05124,-0.03416,0,-0.01952,-0.10248,-0.122,-0.11224,-0.09272,-0.06832
-0.0244,0.04392,-0.06344,-0.05124,-0.03904,0.00732,-0.01464,-0.0976,-0.11224,-0.10736,-0.08784,-0.06832
-0.01952,0.03904,-0.05856,-0.0488,-0.03904,0.00976,-0.00976,-0.0976,-0.10736,-0.10736,-0.08784,-0.06832
-0.01952,0.03904,-0.05856,-0.0488,-0.03904,0.00976,-0.00976,-0.0976,-0.10736,-0.10736,-0.08784,-0.06832
-0.01952,0.03904,-0.05856,-0.0488,-0.03904,0.00976,-0.00976,-0.0976,-0.10736,-0.10736,-0.08784,-0.06832
-0.02928,0.04392,-0.05856,-0.04392,-0.02928,0,-0.00976,-0.0976,-0.10736,-0.10736,-0.08784,-0.06832
-0.03416,0.0488,-0.06344,-0.04636,-0.02928,-0.00244,-0.00976,-0.0976,-0.10736,-0.10736,-0.08296,-0.06344
-0.03904,0.05368,-0.06832,-0.0488,-0.02928,-0.00488,-0.00976,-0.0976,-0.10736,-0.10736,-0.08296,-0.06344
-0.03904,0.05368,-0.06832,-0.0488,-0.02928,-0.00488,-0.00488,-0.0976,-0.10736,-0.10736,-0.07808,-0.05856
-0.00976,0.03416,-0.05856,-0.05368,-0.0488,0.01952,-0.00488,-0.08296,-0.10736,-0.09272,-0.07808,-0.05368
0.01952,0.0122,-0.04392,-0.05368,-0.06344,0.04148,0,-0.05856,-0.09272,-0.0732,-0.06344,-0.04392
0.02928,-0.00244,-0.0244,-0.03904,-0.05368,0.04148,0.00976,-0.02928,-0.06832,-0.0488,-0.0488,-0.02928
0.04392,-0.0244,0.00488,-0.01708,-0.03904,0.04148,0.0244,0,-0.04392,-0.01464,-0.02928,-0.01464
0.03416,-0.03172,0.02928,0.0122,-0.00488,0.01952,0.03904,0.01464,-0.0244,-0.00488,-0.00976,0
0.02928,-0.02928,0.02928,0.01464,0,0.01464,0.03904,0.01952,-0.0244,0.00488,-0.00976,0
0.02928,-0.02684,0.0244,0.00976,-0.00488,0.01708,0.05368,0.0244,-0.01464,0.00976,-0.00976,0
0.04392,-0.03172,0.01952,-0.00244,-0.0244,0.03416,0.05368,0.04392,-0.00976,0.01952,-0.00976,0.00488
0.06344,-0.03904,0.01464,-0.01708,-0.0488,0.05612,0.0488,0.06832,0,0.02928,0,0.01464
0.0732,-0.04392,0.01464,-0.02196,-0.05856,0.06588,0.02928,0.06832,0,0.02928,0,0.0244
0.07808,-0.0488,0.01952,-0.01952,-0.05856,0.06832,-0.00976,0.05856,0,0.02928,-0.00488,0.0244
0.07808,-0.04148,0.00488,-0.03416,-0.0732,0.07564,-0.05368,0.01952,-0.00976,0.00488,-0.00488,0.0244
0.05856,-0.01952,-0.01952,-0.0488,-0.07808,0.06832,-0.05368,-0.02928,-0.0488,-0.0488,-0.03904,-0.00488
0.05856,-0.00488,-0.0488,-0.07808,-0.10736,0.08296,-0.05368,-0.0488,-0.07808,-0.0732,-0.05856,-0.02928
0.03904,0.00976,-0.05856,-0.07808,-0.0976,0.06832,-0.04392,-0.06344,-0.08296,-0.08296,-0.0732,-0.04392
0.02928,0.0244,-0.07808,-0.09272,-0.10736,0.06832,-0.04392,-0.09272,-0.0976,-0.10736,-0.08784,-0.05856
0.01952,0.03172,-0.08296,-0.09272,-0.10248,0.061,-0.03904,-0.11224,-0.10736,-0.122,-0.09272,-0.05856
0.01952,0.03172,-0.08296,-0.09272,-0.10248,0.061,-0.03904,-0.11224,-0.11224,-0.122,-0.09272,-0.05856
0.01464,0.03416,-0.08296,-0.09028,-0.0976,0.05612,-0.03416,-0.10248,-0.11224,-0.122,-0.09272,-0.05856
0.01952,0.03172,-0.08296,-0.09272,-0.10248,0.061,-0.03416,-0.11224,-0.11712,-0.122,-0.10248,-0.06344
0.00488,0.05368,-0.11224,-0.11468,-0.11712,0.061,-0.03416,-0.122,-0.13664,-0.14152,-0.11712,-0.08784
-0.00488,0.061,-0.11712,-0.11468,-0.11224,0.05368,-0.04392,-0.13664,-0.1464,-0.15128,-0.122,-0.08784
-0.01464,0.06344,-0.11224,-0.10492,-0.0976,0.04148,-0.04392,-0.1464,-0.15616,-0.1708,-0.11224,-0.08296
-0.0244,0.05368,-0.08296,-0.07076,-0.05856,0.01708,-0.03416,-0.14152,-0.13664,-0.1464,-0.0976,-0.0732
-0.0244,0.04148,-0.05856,-0.04636,-0.03416,0.00488,-0.01952,-0.122,-0.122,-0.13664,-0.08784,-0.06832
-0.0244,0.03904,-0.05368,-0.04148,-0.02928,0.00244,-0.01464,-0.122,-0.122,-0.13664,-0.08784,-0.06832
-0.03416,0.05124,-0.06832,-0.05124,-0.03416,0,-0.01464,-0.12688,-0.13664,-0.13664,-0.10248,-0.0732
-0.03416,0.05856,-0.08296,-0.06588,-0.0488,0.00732,-0.01952,-0.13176,-0.13664,-0.1464,-0.11224,-0.07808
-0.04392,0.06588,-0.08784,-0.06588,-0.04392,0,-0.01952,-0.13664,-0.14152,-0.1464,-0.11224,-0.07808
-0.0488,0.07076,-0.09272,-0.06832,-0.04392,-0.00244,-0.01952,-0.13664,-0.14152,-0.1464,-0.11224,-0.0732
-0.0488,0.06832,-0.08784,-0.06344,-0.03904,-0.00488,-0.01952,-0.13664,-0.14152,-0.1464,-0.11224,-0.0732
-0.0488,0.06832,-0.08784,-0.06344,-0.03904,-0.00488,-0.01952,-0.13664,-0.14152,-0.1464,-0.11224,-0.0732
-0.04392,0.06588,-0.08784,-0.06588,-0.04392,0,-0.01464,-0.122,-0.13664,-0.14152,-0.10736,-0.0732
-0.03416,0.05856,-0.08296,-0.06588,-0.0488,0.00732,-0.00976,-0.11224,-0.12688,-0.13176,-0.10736,-0.0732
-0.03416,0.05612,-0.07808,-0.061,-0.04392,0.00488,-0.00488,-0.11224,-0.12688,-0.12688,-0.10736,-0.0732
-0.03416,0.05612,-0.07808,-0.061,-0.04392,0.00488,-0.00488,-0.11224,-0.12688,-0.122,-0.10248,-0.06832
-0.03904,0.061,-0.08296,-0.06344,-0.04392,0.00244,-0.00976,-0.10736,-0.122,-0.122,-0.10248,-0.0732
-0.05368,0.06588,-0.07808,-0.05124,-0.0244,-0.01464,-0.00976,-0.10736,-0.122,-0.11712,-0.10248,-0.0732
-0.05368,0.0488,-0.04392,-0.01708,0.00976,-0.03172,-0.00976,-0.10248,-0.10736,-0.10248,-0.08296,-0.05856
-0.05368,0.00976,0.03416,0.061,0.08784,-0.07076,0,-0.08296,-0.03416,-0.05368,0,0
-0.04392,-0.04636,0.13664,0.1586,0.18056,-0.11224,0.0244,0.06344,0.09272,0.07808,0.11712,0.0976
-0.00488,-0.10492,0.21472,0.21716,0.2196,-0.11224,0.0244,0.18544,0.23424,0.20496,0.24888,0.21472
0.08296,-0.18544,0.28792,0.24644,0.20496,-0.061,0,0.18544,0.35624,0.28792,0.3904,0.35136
0.2196,-0.29768,0.37576,0.26596,0.15616,0.03172,-0.0244,0.22448,0.54656,0.45384,0.55632,0.50264
0.35624,-0.4148,0.47336,0.29524,0.11712,0.11956,-0.20008,-0.03904,0.72712,0.50752,0.74664,0.6832
0.45872,-0.51484,0.57096,0.3416,0.11224,0.17324,-0.45384,-0.54168,0.854,0.4392,0.91256,0.86376
0.56608,-0.5978,0.62952,0.34648,0.06344,0.25132,-0.66856,-0.98576,0.89304,0.27328,0.99064,0.98088
0.66856,-0.61732,0.56608,0.2318,-0.10248,0.38552,-0.83936,-1.23464,0.86864,0.122,0.9516,0.96624
0.68808,-0.56608,0.44408,0.10004,-0.244,0.46604,-0.976,-1.4152,0.71736,-0.05856,0.76128,0.8296
0.61488,-0.36356,0.11224,-0.1952,-0.50264,0.55876,-1.0492,-1.62016,0.28792,-0.40504,0.3416,0.49776
0.50752,-0.20008,-0.10736,-0.36112,-0.61488,0.5612,-1.03944,-1.78608,-0.05368,-0.72224,0.02928,0.25864
0.36112,-0.13176,-0.0976,-0.27816,-0.45872,0.40992,-0.99064,-1.8056,-0.2196,-0.93696,-0.0488,0.1708
0.244,-0.08296,-0.07808,-0.20008,-0.32208,0.28304,-0.88816,-1.59576,-0.28792,-0.94672,-0.0976,0.122
0.14152,-0.05612,-0.02928,-0.10004,-0.1708,0.15616,-0.6588,-1.23952,-0.28304,-0.7808,-0.10248,0.0976
0.06344,-0.0244,-0.01464,-0.04636,-0.07808,0.07076,-0.4392,-0.96136,-0.35136,-0.6832,-0.15616,0.04392
0.0244,-0.02196,0.01952,0.00732,-0.00488,0.01464,-0.32208,-0.73688,-0.32208,-0.55632,-0.15128,0.0244
0.00488,-0.01952,0.03416,0.03172,0.02928,-0.0122,-0.25864,-0.54656,-0.25864,-0.4148,-0.13664,0.00488
0,0.00244,-0.00488,-0.00488,-0.00488,0.00244,-0.18056,-0.38552,-0.23424,-0.3172,-0.13664,-0.03904
-0.01952,0.02928,-0.03904,-0.02928,-0.01952,0,-0.07808,-0.25864,-0.22936,-0.25864,-0.13664,-0.08296
-0.03416,0.0488,-0.06344,-0.04636,-0.02928,-0.00244,-0.0488,-0.20008,-0.20984,-0.22448,-0.13664,-0.09272
-0.04392,0.05612,-0.06832,-0.04636,-0.0244,-0.00976,-0.03904,-0.16592,-0.19032,-0.19032,-0.13176,-0.08784
-0.04392,0.05612,-0.06832,-0.04636,-0.0244,-0.00976,0,-0.09272,-0.18544,-0.15128,-0.12688,-0.09272
-0.0488,0.061,-0.0732,-0.0488,-0.0244,-0.0122,0.02928,-0.06344,-0.18056,-0.14152,-0.12688,-0.10248
-0.0488,0.06344,-0.07808,-0.05368,-0.02928,-0.00976,0.03904,-0.06344,-0.17568,-0.13664,-0.12688,-0.10736
-0.0488,0.07076,-0.09272,-0.06832,-0.04392,-0.00244,0.03416,-0.06344,-0.17568,-0.13664,-0.13176,-0.10736
-0.05856,0.0854,-0.11224,-0.08296,-0.05368,-0.00244,0.03904,-0.05368,-0.17568,-0.13664,-0.13664,-0.11712
-0.06344,0.08784,-0.11224,-0.08052,-0.0488,-0.00732,0.0488,-0.03904,-0.1708,-0.13176,-0.13664,-0.11712
-0.06832,0.08784,-0.10736,-0.0732,-0.03904,-0.01464,0.0488,-0.0244,-0.16592,-0.12688,-0.13664,-0.11224
-0.06832,0.08784,-0.10736,-0.0732,-0.03904,-0.01464,0.05368,-0.01952,-0.16592,-0.122,-0.13664,-0.11224
-0.06832,0.09028,-0.11224,-0.07808,-0.04392,-0.0122,0.05856,-0.01952,-0.16592,-0.11712,-0.13664,-0.11224
-0.0732,0.09272,-0.11224,-0.07564,-0.03904,-0.01708,0.05856,-0.01464,-0.16592,-0.122,-0.13664,-0.122
-0.08784,0.10004,-0.11224,-0.06832,-0.0244,-0.03172,0.05856,-0.00976,-0.16592,-0.12688,-0.13664,-0.12688
-0.08784,0.10004,-0.11224,-0.06832,-0.0244,-0.03172,0.05856,-0.00488,-0.16592,-0.12688,-0.13664,-0.12688
-0.08296,0.0976,-0.11224,-0.07076,-0.02928,-0.02684,0.05856,0,-0.16592,-0.122,-0.13664,-0.12688
-0.0732,0.08784,-0.10248,-0.06588,-0.02928,-0.02196,0.06344,0,-0.16104,-0.122,-0.13176,-0.122
-0.06344,0.07808,-0.09272,-0.061,-0.02928,-0.01708,0.06344,0,-0.16104,-0.122,-0.12688,-0.11712
-0.0488,0.07076,-0.09272,-0.06832,-0.04392,-0.00244,0.06344,0.00488,-0.16104,-0.11712,-0.12688,-0.11712
-0.03904,0.06344,-0.08784,-0.06832,-0.0488,0.00488,0.06344,0.01464,-0.16104,-0.11224,-0.122,-0.11224
-0.05368,0.0732,-0.09272,-0.06588,-0.03904,-0.00732,0.06344,0.01464,-0.15616,-0.11224,-0.12688,-0.11224
-0.06344,0.07808,-0.09272,-0.061,-0.02928,-0.01708,0.05856,0.01464,-0.15128,-0.11224,-0.12688,-0.11224
-0.06344,0.07808,-0.09272,-0.061,-0.02928,-0.01708,0.05856,0.00976,-0.15128,-0.11224,-0.12688,-0.11224
-0.06344,0.07808,-0.09272,-0.061,-0.02928,-0.01708,0.05856,0.00976,-0.15128,-0.10736,-0.122,-0.10736
-0.05368,0.07076,-0.08784,-0.061,-0.03416,-0.00976,0.05856,0.01464,-0.15616,-0.10736,-0.122,-0.10248
-0.04392,0.06344,-0.08296,-0.061,-0.03904,-0.00244,0.05856,0.01464,-0.15616,-0.10248,-0.122,-0.10248
-0.04392,0.06344,-0.08296,-0.061,-0.03904,-0.00244,0.05856,0.01952,-0.16104,-0.10736,-0.11712,-0.10736
-0.04392,0.061,-0.07808,-0.05612,-0.03416,-0.00488,0.05368,0.01952,-0.16592,-0.11224,-0.11712,-0.11224
-0.05368,0.06832,-0.08296,-0.05612,-0.02928,-0.0122,0.05368,0.0244,-0.16104,-0.11224,-0.11224,-0.10736
-0.05856,0.0732,-0.08784,-0.05856,-0.02928,-0.01464,0.0488,0.02928,-0.15616,-0.10736,-0.11224,-0.10736
-0.05368,0.07076,-0.08784,-0.061,-0.03416,-0.00976,0.0488,0.03416,-0.15128,-0.10736,-0.10248,-0.10248
-0.05368,0.06832,-0.08296,-0.05612,-0.02928,-0.0122,0.0488,0.03904,-0.14152,-0.0976,-0.0976,-0.09272
-0.0488,0.06344,-0.07808,-0.05368,-0.02928,-0.00976,0.0488,0.04392,-0.13664,-0.09272,-0.09272,-0.08784
-0.05368,0.061,-0.06832,-0.04148,-0.01464,-0.01952,0.0488,0.0488,-0.13176,-0.08784,-0.08784,-0.08296
-0.04392,0.05612,-0.06832,-0.04636,-0.0244,-0.00976,0.04392,0.05856,-0.12688,-0.07808,-0.08296,-0.07808
-0.04392,0.05612,-0.06832,-0.04636,-0.0244,-0.00976,0.04392,0.06344,-0.122,-0.06832,-0.07808,-0.0732
-0.03416,0.04636,-0.05856,-0.04148,-0.0244,-0.00488,0.04392,0.08296,-0.122,-0.06832,-0.0732,-0.0732
-0.01952,0.03172,-0.04392,-0.03416,-0.0244,0.00244,0.04392,0.09272,-0.10736,-0.05856,-0.06832,-0.06344
-0.01952,0.03172,-0.04392,-0.03416,-0.0244,0.00244,0.04392,0.10248,-0.10248,-0.05368,-0.06832,-0.05856
-0.00976,0.02196,-0.03416,-0.02928,-0.0244,0.00732,0.04392,0.10736,-0.08784,-0.03904,-0.05856,-0.05368
-0.00488,0.01952,-0.03416,-0.03172,-0.02928,0.0122,0.03904,0.11712,-0.08296,-0.0244,-0.05368,-0.0488
0,0.01708,-0.03416,-0.03416,-0.03416,0.01708,0.03904,0.13176,-0.06832,-0.00976,-0.04392,-0.04392
-0.00488,0.01708,-0.02928,-0.02684,-0.0244,0.00976,0.03416,0.14152,-0.06832,0.00488,-0.03904,-0.04392
-0.00976,0.01952,-0.02928,-0.0244,-0.01952,0.00488,0.03416,0.16104,-0.0488,0.01952,-0.0244,-0.03904
0.00488,0.00732,-0.01952,-0.02196,-0.0244,0.01464,0.03416,0.17568,-0.04392,0.02928,-0.01952,-0.0244
0.01464,-0.00488,-0.00488,-0.0122,-0.01952,0.01708,0.03416,0.19032,-0.02928,0.03904,-0.01464,-0.01952
0.01952,-0.01464,0.00976,0,-0.00976,0.01464,0.02928,0.20008,-0.01952,0.04392,-0.00488,-0.00976
0.0244,-0.02196,0.01952,0.00732,-0.00488,0.01464,0.02928,0.21472,-0.00976,0.05368,0.00488,0
0.02928,-0.02684,0.0244,0.00976,-0.00488,0.01708,0.0244,0.22448,0,0.06344,0.00976,0
0.03416,-0.03172,0.02928,0.0122,-0.00488,0.01952,0.01952,0.244,0.01464,0.06832,0.0244,0.01464
0.03416,-0.03416,0.03416,0.01708,0,0.01708,0.01952,0.25376,0.0244,0.07808,0.03416,0.0244
0.03904,-0.03904,0.03904,0.01952,0,0.01952,0.01952,0.26352,0.02928,0.08784,0.0488,0.04392
0.0488,-0.0488,0.0488,0.0244,0,0.0244,0.0244,0.27816,0.0488,0.10736,0.05856,0.0488
0.05368,-0.05612,0.05856,0.03172,0.00488,0.0244,0.0244,0.28304,0.05856,0.122,0.07808,0.06344
0.05856,-0.061,0.06344,0.03416,0.00488,0.02684,0.01952,0.2928,0.06344,0.12688,0.08296,0.06832
0.06344,-0.07076,0.07808,0.04636,0.01464,0.0244,0.01952,0.29768,0.0732,0.13664,0.08784,0.07808
0.05856,-0.07076,0.08296,0.05368,0.0244,0.01708,0.01952,0.30256,0.0732,0.14152,0.08784,0.07808
0.05368,-0.07076,0.08784,0.061,0.03416,0.00976,0.01464,0.30256,0.07808,0.1464,0.09272,0.08296
0.05856,-0.0732,0.08784,0.05856,0.02928,0.01464,0.01464,0.30256,0.07808,0.14152,0.09272,0.07808
0.05856,-0.0732,0.08784,0.05856,0.02928,0.01464,0.00488,0.30256,0.0732,0.13664,0.0976,0.07808
0.05856,-0.0732,0.08784,0.05856,0.02928,0.01464,0.00488,0.29768,0.0732,0.13664,0.09272,0.0732
0.06344,-0.07808,0.09272,0.061,0.02928,0.01708,0,0.28792,0.07808,0.14152,0.09272,0.0732
0.05368,-0.0732,0.09272,0.06588,0.03904,0.00732,-0.00488,0.28304,0.07808,0.14152,0.09272,0.0732
0.04392,-0.07076,0.0976,0.07564,0.05368,-0.00488,-0.00488,0.27816,0.07808,0.14152,0.0976,0.0732
0.06344,-0.08052,0.0976,0.06588,0.03416,0.01464,-0.00488,0.27816,0.08296,0.13664,0.0976,0.08296
0.0732,-0.08784,0.10248,0.06588,0.02928,0.02196,-0.00488,0.27328,0.08784,0.13664,0.0976,0.09272
0.07808,-0.09028,0.10248,0.06344,0.0244,0.02684,-0.01464,0.26352,0.08784,0.13176,0.0976,0.09272
0.08296,-0.09272,0.10248,0.061,0.01952,0.03172,-0.01464,0.25376,0.08296,0.12688,0.0976,0.09272
0.08296,-0.09028,0.0976,0.05612,0.01464,0.03416,-0.01464,0.23424,0.0732,0.122,0.09272,0.09272
0.08296,-0.08784,0.09272,0.05124,0.00976,0.0366,-0.01464,0.21472,0.06344,0.10248,0.09272,0.0976
0.07808,-0.08052,0.08296,0.04392,0.00488,0.0366,-0.0244,0.20008,0.05856,0.0976,0.08784,0.0976
0.07808,-0.07564,0.0732,0.03416,-0.00488,0.04148,-0.02928,0.18544,0.05368,0.09272,0.08784,0.09272
0.07808,-0.07076,0.06344,0.0244,-0.01464,0.04636,-0.03416,0.16592,0.0488,0.08296,0.08296,0.09272
0.08296,-0.07076,0.05856,0.01708,-0.0244,0.05368,-0.03904,0.1464,0.04392,0.07808,0.08296,0.09272
0.0976,-0.08052,0.06344,0.01464,-0.03416,0.06588,-0.04392,0.12688,0.03904,0.06344,0.0732,0.08784
0.10248,-0.08296,0.06344,0.0122,-0.03904,0.07076,-0.04392,0.122,0.03904,0.05856,0.0732,0.08784
0.0976,-0.0732,0.0488,0,-0.0488,0.0732,-0.0488,0.11224,0.03416,0.0488,0.06832,0.08296
0.0976,-0.07076,0.04392,-0.00488,-0.05368,0.07564,-0.05368,0.08784,0.0244,0.0488,0.06344,0.08296
0.08296,-0.061,0.03904,-0.00244,-0.04392,0.06344,-0.05368,0.0732,0.01464,0.02928,0.04392,0.0732
0.06344,-0.03904,0.01464,-0.01708,-0.0488,0.05612,-0.05368,0.06344,0.00976,0.0244,0.04392,0.0732
0.06344,-0.03904,0.01464,-0.01708,-0.0488,0.05612,-0.05368,0.05368,0.00488,0.01464,0.03904,0.05856
0.06344,-0.03904,0.01464,-0.01708,-0.0488,0.05612,-0.05368,0.03416,0.00488,0.00976,0.02928,0.05368
0.06344,-0.03904,0.01464,-0.01708,-0.0488,0.05612,-0.05856,0.02928,-0.00488,0.00976,0.0244,0.04392
0.06344,-0.03904,0.01464,-0.01708,-0.0488,0.05612,-0.05856,0.02928,-0.00976,0.00976,0.01952,0.03416
0.06344,-0.0366,0.00976,-0.02196,-0.05368,0.05856,-0.05856,0.01952,-0.01464,0.00488,0.01464,0.03416
0.06344,-0.03904,0.01464,-0.01708,-0.0488,0.05612,-0.0488,0.01952,-0.01464,0.00488,0.00976,0.03416
0.05856,-0.0366,0.01464,-0.01464,-0.04392,0.05124,-0.0488,0.01464,-0.01464,0.00976,0.00976,0.02928
0.05368,-0.03416,0.01464,-0.0122,-0.03904,0.04636,-0.0488,0.00976,-0.00976,0.00976,0.00976,0.02928
0.04392,-0.02196,0,-0.02196,-0.04392,0.04392,-0.0488,0.00488,-0.00976,0.00976,0,0.01952
0.03904,-0.01952,0,-0.01952,-0.03904,0.03904,-0.0488,0.00488,-0.00976,0.00976,0,0.01464
0.03416,-0.0122,-0.00976,-0.02684,-0.04392,0.03904,-0.04392,0,-0.01952,0.00976,-0.00488,0.01464
