i,aVR,ii,aVF,iii,aVL,V1,V2,V3,V4,V5,V6
-0.0488,0.04392,-0.03904,-0.01464,0.00976,-0.02928,0.17568,0.18056,0.08784,-0.0488,-0.05856,-0.08296
-0.05368,0.04392,-0.03416,-0.00732,0.01952,-0.0366,0.17568,0.17568,0.08784,-0.0488,-0.05856,-0.08296
-0.05368,0.03904,-0.0244,0.00244,0.02928,-0.04148,0.17568,0.18056,0.08296,-0.0488,-0.05856,-0.08296
-0.0488,0.0366,-0.0244,0,0.0244,-0.0366,0.17568,0.18056,0.08784,-0.05368,-0.06344,-0.08784
-0.0488,0.0366,-0.0244,0,0.0244,-0.0366,0.17568,0.18544,0.09272,-0.05856,-0.06832,-0.09272
-0.0488,0.03904,-0.02928,-0.00488,0.01952,-0.03416,0.17568,0.1952,0.09272,-0.05856,-0.06832,-0.09272
-0.0488,0.04148,-0.03416,-0.00976,0.01464,-0.03172,0.17568,0.20008,0.0976,-0.05856,-0.06832,-0.09272
-0.05368,0.04392,-0.03416,-0.00732,0.01952,-0.0366,0.18056,0.20008,0.10736,-0.05856,-0.06832,-0.09272
-0.05368,0.04392,-0.03416,-0.00732,0.01952,-0.0366,0.18544,0.20984,0.11224,-0.05856,-0.06832,-0.09272
-0.05368,0.04392,-0.03416,-0.00732,0.01952,-0.0366,0.18544,0.20984,0.11224,-0.05856,-0.0732,-0.0976
-0.05368,0.04392,-0.03416,-0.00732,0.01952,-0.0366,0.18544,0.2196,0.11224,-0.05856,-0.0732,-0.0976
-0.05856,0.04392,-0.02928,0,0.02928,-0.04392,0.19032,0.2196,0.11712,-0.05856,-0.0732,-0.0976
-0.05856,0.04392,-0.02928,0,0.02928,-0.04392,0.1952,0.22448,0.122,-0.05368,-0.0732,-0.0976
-0.05856,0.04392,-0.02928,0,0.02928,-0.04392,0.1952,0.22936,0.122,-0.06344,-0.07808,-0.0976
-0.06344,0.04636,-0.02928,0.00244,0.03416,-0.0488,0.20008,0.23424,0.13176,-0.06344,-0.07808,-0.10736
-0.06344,0.05124,-0.03904,-0.00732,0.0244,-0.04392,0.20496,0.244,0.14152,-0.06344,-0.08784,-0.11224
-0.06344,0.05368,-0.04392,-0.0122,0.01952,-0.04148,0.20984,0.25864,0.1464,-0.06832,-0.08784,-0.11224
-0.06344,0.05124,-0.03904,-0.00732,0.0244,-0.04392,0.21472,0.26352,0.1464,-0.06832,-0.08784,-0.11712
-0.06344,0.05124,-0.03904,-0.00732,0.0244,-0.04392,0.22448,0.2684,0.15128,-0.0732,-0.10248,-0.122
-0.06832,0.05368,-0.03904,-0.00488,0.02928,-0.0488,0.22936,0.27328,0.15128,-0.08296,-0.10736,-0.12688
-0.07808,0.05612,-0.03416,0.00488,0.04392,-0.061,0.22936,0.27816,0.1464,-0.08784,-0.10736,-0.12688
-0.08296,0.061,-0.03904,0.00244,0.04392,-0.06344,0.23424,0.28304,0.15128,-0.0976,-0.11224,-0.13176
-0.09272,0.06588,-0.03904,0.00732,0.05368,-0.0732,0.23912,0.28792,0.15128,-0.10736,-0.122,-0.14152
-0.09272,0.06588,-0.03904,0.00732,0.05368,-0.0732,0.23912,0.2928,0.15128,-0.11224,-0.122,-0.14152
-0.09272,0.06588,-0.03904,0.00732,0.05368,-0.0732,0.23912,0.29768,0.15128,-0.11712,-0.122,-0.14152
-0.09272,0.06832,-0.04392,0.00244,0.0488,-0.07076,0.23912,0.30256,0.15616,-0.11224,-0.11712,-0.14152
-0.09272,0.06832,-0.04392,0.00244,0.0488,-0.07076,0.23912,0.30256,0.16104,-0.10736,-0.11712,-0.14152
-0.09272,0.06588,-0.03904,0.00732,0.05368,-0.0732,0.23912,0.30256,0.16104,-0.10736,-0.11712,-0.14152
-0.08784,0.05856,-0.02928,0.01464,0.05856,-0.0732,0.23912,0.30256,0.16104,-0.10248,-0.11224,-0.13664
-0.08296,0.05124,-0.01952,0.02196,0.06344,-0.0732,0.22936,0.29768,0.16592,-0.10736,-0.11224,-0.12688
-0.07808,0.04392,-0.00976,0.02928,0.06832,-0.0732,0.2196,0.2928,0.16592,-0.0976,-0.10736,-0.122
-0.06832,0.03172,0.00488,0.03904,0.0732,-0.07076,0.20984,0.27816,0.1708,-0.08784,-0.0976,-0.11224
-0.05856,0.02196,0.01464,0.04392,0.0732,-0.06588,0.20496,0.27328,0.17568,-0.07808,-0.08296,-0.10248
-0.05368,0.01464,0.0244,0.05124,0.07808,-0.06588,0.20008,0.26352,0.18056,-0.06344,-0.0732,-0.08784
-0.0488,0.00488,0.03904,0.06344,0.08784,-0.06832,0.18544,0.25864,0.18544,-0.04392,-0.05368,-0.0732
-0.0244,-0.01708,0.05856,0.07076,0.08296,-0.05368,0.16592,0.244,0.19032,-0.0244,-0.03416,-0.05856
-0.00488,-0.0366,0.07808,0.08052,0.08296,-0.04392,0.15616,0.23424,0.19032,0,-0.01952,-0.04392
0.00488,-0.05124,0.0976,0.09516,0.09272,-0.04392,0.13664,0.2196,0.19032,0.01464,0,-0.0244
0.01952,-0.06588,0.11224,0.10248,0.09272,-0.0366,0.11712,0.1952,0.18544,0.03416,0.01952,-0.01464
0.02928,-0.07564,0.122,0.10736,0.09272,-0.03172,0.0976,0.1708,0.17568,0.0488,0.02928,-0.00488
0.03904,-0.08784,0.13664,0.11712,0.0976,-0.02928,0.08784,0.15128,0.16592,0.05368,0.03904,0.00976
0.03904,-0.0854,0.13176,0.11224,0.09272,-0.02684,0.0732,0.13176,0.15616,0.06344,0.04392,0.01952
0.04392,-0.0854,0.12688,0.10492,0.08296,-0.01952,0.06344,0.11224,0.13176,0.06344,0.0488,0.01952
0.04392,-0.0854,0.12688,0.10492,0.08296,-0.01952,0.05368,0.09272,0.11224,0.06344,0.05368,0.02928
0.0488,-0.08784,0.12688,0.10248,0.07808,-0.01464,0.03904,0.0732,0.09272,0.06344,0.05368,0.03416
0.05368,-0.09272,0.13176,0.10492,0.07808,-0.0122,0.02928,0.05368,0.0732,0.05856,0.0488,0.03416
0.05368,-0.09272,0.13176,0.10492,0.07808,-0.0122,0.01952,0.0244,0.0488,0.04392,0.03904,0.02928
0.05368,-0.08784,0.122,0.09516,0.06832,-0.00732,0.01952,0.01464,0.02928,0.03904,0.03904,0.02928
0.04392,-0.08052,0.11712,0.09516,0.0732,-0.01464,0.0244,0.00488,0.01952,0.03416,0.02928,0.0244
0.04392,-0.07564,0.10736,0.0854,0.06344,-0.00976,0.0244,0,0.00976,0.0244,0.01952,0.01464
0.04392,-0.0732,0.10248,0.08052,0.05856,-0.00732,0.0244,-0.00488,-0.00488,0.01464,0.01464,0.00976
0.03904,-0.06588,0.09272,0.0732,0.05368,-0.00732,0.0244,-0.00488,-0.00976,0.01464,0.01464,0.00488
0.03416,-0.05856,0.08296,0.06588,0.0488,-0.00732,0.02928,-0.00976,-0.01464,0.00976,0.00976,-0.00488
0.03416,-0.05612,0.07808,0.061,0.04392,-0.00488,0.02928,-0.00976,-0.01952,-0.00488,0,-0.00488
0.03416,-0.05124,0.06832,0.05124,0.03416,0,0.02928,-0.00976,-0.01952,-0.00976,-0.00488,-0.00976
0.03416,-0.0488,0.06344,0.04636,0.02928,0.00244,0.02928,-0.01464,-0.0244,-0.00976,-0.00488,-0.01464
0.03416,-0.0488,0.06344,0.04636,0.02928,0.00244,0.02928,-0.01464,-0.0244,-0.00976,-0.00488,-0.01952
0.02928,-0.04392,0.05856,0.04392,0.02928,0,0.02928,-0.01464,-0.0244,-0.00976,-0.00976,-0.0244
0.02928,-0.04392,0.05856,0.04392,0.02928,0,0.02928,-0.01952,-0.0244,-0.01464,-0.00976,-0.0244
0.0244,-0.04148,0.05856,0.04636,0.03416,-0.00488,0.02928,-0.01952,-0.02928,-0.01464,-0.00488,-0.0244
0.01952,-0.03904,0.05856,0.0488,0.03904,-0.00976,0.02928,-0.01464,-0.02928,-0.01464,-0.00488,-0.0244
0.01952,-0.03904,0.05856,0.0488,0.03904,-0.00976,0.02928,-0.01464,-0.0244,-0.01952,-0.00488,-0.0244
0.01952,-0.03904,0.05856,0.0488,0.03904,-0.00976,0.02928,-0.00976,-0.0244,-0.01952,-0.00488,-0.02928
0.0244,-0.04148,0.05856,0.04636,0.03416,-0.00488,0.02928,-0.00976,-0.02928,-0.01952,-0.00976,-0.02928
0.02928,-0.04392,0.05856,0.04392,0.02928,0,0.02928,-0.00976,-0.03416,-0.01952,-0.01464,-0.02928
0.02928,-0.04148,0.05368,0.03904,0.0244,0.00244,0.03416,-0.00976,-0.03416,-0.01952,-0.01464,-0.0244
0.02928,-0.03904,0.0488,0.03416,0.01952,0.00488,0.03904,-0.00488,-0.03416,-0.01952,-0.01952,-0.0244
0.02928,-0.03904,0.0488,0.03416,0.01952,0.00488,0.03904,-0.00488,-0.02928,-0.01952,-0.01952,-0.0244
0.0244,-0.0366,0.0488,0.0366,0.0244,0,0.03904,-0.00488,-0.01952,-0.01952,-0.01952,-0.01952
0.01464,-0.02928,0.04392,0.0366,0.02928,-0.00732,0.04392,0.00488,-0.01952,-0.0244,-0.01952,-0.0244
0.00976,-0.0244,0.03904,0.03416,0.02928,-0.00976,0.04392,0.01464,-0.01464,-0.0244,-0.01952,-0.03416
0.01464,-0.0244,0.03416,0.02684,0.01952,-0.00244,0.0488,0.01464,-0.01464,-0.0244,-0.01952,-0.03416
0.01464,-0.02196,0.02928,0.02196,0.01464,0,0.05368,0.01464,-0.00976,-0.02928,-0.01952,-0.03904
0.00976,-0.01952,0.02928,0.0244,0.01952,-0.00488,0.05368,0.01952,-0.00976,-0.02928,-0.01952,-0.03416
0.00488,-0.01952,0.03416,0.03172,0.02928,-0.0122,0.05368,0.0244,-0.00976,-0.02928,-0.01952,-0.03416
0,-0.01708,0.03416,0.03416,0.03416,-0.01708,0.05368,0.0244,-0.00976,-0.02928,-0.01952,-0.03416
0,-0.01708,0.03416,0.03416,0.03416,-0.01708,0.05856,0.0244,-0.00976,-0.02928,-0.01952,-0.03416
0.00488,-0.01708,0.02928,0.02684,0.0244,-0.00976,0.05368,0.0244,-0.00488,-0.0244,-0.01952,-0.03904
0.00488,-0.01708,0.02928,0.02684,0.0244,-0.00976,0.05368,0.02928,-0.00488,-0.01952,-0.01952,-0.03904
0.00488,-0.01708,0.02928,0.02684,0.0244,-0.00976,0.05368,0.03416,-0.00488,-0.01952,-0.0244,-0.03904
0,-0.01464,0.02928,0.02928,0.02928,-0.01464,0.05856,0.03904,0,-0.01952,-0.0244,-0.03904
0,-0.00976,0.01952,0.01952,0.01952,-0.00976,0.06344,0.03904,0,-0.01952,-0.0244,-0.03904
0,-0.00732,0.01464,0.01464,0.01464,-0.00732,0.06344,0.03904,0,-0.0244,-0.0244,-0.04392
-0.00488,-0.00244,0.00976,0.0122,0.01464,-0.00976,0.06344,0.03904,0.00488,-0.0244,-0.0244,-0.04392
-0.01464,0.00244,0.00976,0.01708,0.0244,-0.01952,0.06344,0.03904,0.00976,-0.0244,-0.0244,-0.04392
-0.01464,0.00488,0.00488,0.0122,0.01952,-0.01708,0.06344,0.03904,0.00976,-0.0244,-0.0244,-0.04392
-0.01464,0.00488,0.00488,0.0122,0.01952,-0.01708,0.06344,0.03904,0.00488,-0.0244,-0.03416,-0.05368
-0.00976,0.00244,0.00488,0.00976,0.01464,-0.0122,0.06344,0.03904,0,-0.02928,-0.03904,-0.05368
-0.00976,0.00244,0.00488,0.00976,0.01464,-0.0122,0.06344,0.03416,-0.00488,-0.03904,-0.04392,-0.0488
-0.01464,0.00488,0.00488,0.0122,0.01952,-0.01708,0.06344,0.03416,-0.00488,-0.03904,-0.04392,-0.0488
-0.01464,0.00732,0,0.00732,0.01464,-0.01464,0.06344,0.03416,-0.00488,-0.03904,-0.04392,-0.05368
-0.01464,0.00732,0,0.00732,0.01464,-0.01464,0.06344,0.03416,-0.00976,-0.03904,-0.04392,-0.05368
-0.01464,0.00732,0,0.00732,0.01464,-0.01464,0.06344,0.02928,-0.00976,-0.04392,-0.0488,-0.05856
-0.01464,0.0122,-0.00976,-0.00244,0.00488,-0.00976,0.06344,0.02928,-0.00976,-0.04392,-0.0488,-0.06344
-0.01464,0.01464,-0.01464,-0.00732,0,-0.00732,0.06344,0.02928,-0.01464,-0.04392,-0.0488,-0.06344
-0.01464,0.0122,-0.00976,-0.00244,0.00488,-0.00976,0.06344,0.02928,-0.01464,-0.04392,-0.0488,-0.06344
-0.01952,0.01464,-0.00976,0,0.00976,-0.01464,0.06344,0.02928,-0.01464,-0.04392,-0.05368,-0.06344
-0.0244,0.01952,-0.01464,-0.00244,0.00976,-0.01708,0.06832,0.02928,-0.01464,-0.04392,-0.0488,-0.05856
-0.02928,0.02196,-0.01464,0,0.01464,-0.02196,0.0732,0.01952,-0.01464,-0.04392,-0.04392,-0.05368
-0.0244,0.01952,-0.01464,-0.00244,0.00976,-0.01708,0.06832,0.01952,-0.01464,-0.0488,-0.04392,-0.05368
-0.0244,0.01708,-0.00976,0.00244,0.01464,-0.01952,0.06832,0.01464,-0.01952,-0.0488,-0.04392,-0.05368
-0.0244,0.0122,0,0.0122,0.0244,-0.0244,0.06344,0.01464,-0.01952,-0.0488,-0.0488,-0.05368
-0.01952,0.00732,0.00488,0.01464,0.0244,-0.02196,0.06344,0.01464,-0.01952,-0.0488,-0.0488,-0.05368
-0.01952,0.01464,-0.00976,0,0.00976,-0.01464,0.06344,0.01464,-0.0244,-0.0488,-0.0488,-0.05856
-0.01952,0.01952,-0.01952,-0.00976,0,-0.00976,0.06344,0.00976,-0.0244,-0.05368,-0.0488,-0.05856
-0.02928,0.0244,-0.01952,-0.00488,0.00976,-0.01952,0.06344,0.00976,-0.02928,-0.05368,-0.04392,-0.05856
-0.0244,0.01952,-0.01464,-0.00244,0.00976,-0.01708,0.06344,0.00976,-0.02928,-0.05368,-0.04392,-0.05856
-0.01952,0.00976,0,0.00976,0.01952,-0.01952,0.06832,0.01464,-0.01952,-0.04392,-0.03904,-0.0488
-0.01464,0.00244,0.00976,0.01708,0.0244,-0.01952,0.07808,0.01952,-0.00976,-0.03416,-0.03416,-0.04392
-0.01464,-0.00488,0.0244,0.03172,0.03904,-0.02684,0.08296,0.0244,-0.00488,-0.0244,-0.0244,-0.03416
-0.01952,-0.00976,0.03904,0.0488,0.05856,-0.03904,0.08784,0.02928,0,-0.01952,-0.01952,-0.02928
-0.00976,-0.01708,0.04392,0.0488,0.05368,-0.03172,0.08784,0.02928,0,-0.01952,-0.01952,-0.02928
0,-0.0244,0.0488,0.0488,0.0488,-0.0244,0.08784,0.02928,0,-0.01952,-0.01952,-0.02928
0,-0.0244,0.0488,0.0488,0.0488,-0.0244,0.08784,0.02928,0,-0.01952,-0.01952,-0.02928
0,-0.02684,0.05368,0.05368,0.05368,-0.02684,0.08784,0.02928,0,-0.01952,-0.01464,-0.0244
0,-0.02928,0.05856,0.05856,0.05856,-0.02928,0.08784,0.02928,0.00488,-0.01952,-0.00976,-0.01952
-0.00488,-0.03416,0.0732,0.07564,0.07808,-0.04148,0.08784,0.0244,0.00976,-0.00976,-0.00488,-0.01464
-0.00488,-0.03904,0.08296,0.0854,0.08784,-0.04636,0.06832,0.00976,0.00976,-0.00488,0.00976,0
0,-0.05124,0.10248,0.10248,0.10248,-0.05124,0.03416,-0.0244,0,-0.00488,0.00976,0.00488
0.00976,-0.05124,0.09272,0.08784,0.08296,-0.0366,0.0244,-0.02928,-0.01464,-0.00976,0,0
0.01464,-0.05368,0.09272,0.0854,0.07808,-0.03172,0.00976,-0.03904,-0.02928,-0.00976,-0.00488,-0.01464
0.02928,-0.06588,0.10248,0.08784,0.0732,-0.02196,0,-0.04392,-0.02928,-0.00488,-0.00488,-0.00488
0.03416,-0.08052,0.12688,0.1098,0.09272,-0.02928,-0.00976,-0.0488,-0.02928,0.00488,0,0.00488
0.03416,-0.0854,0.13664,0.11956,0.10248,-0.03416,-0.0244,-0.05368,-0.03904,0.00488,0.00976,0.01464
0.03904,-0.09272,0.1464,0.12688,0.10736,-0.03416,-0.02928,-0.05368,-0.03904,0.00976,0.01464,0.01952
0.03904,-0.09272,0.1464,0.12688,0.10736,-0.03416,-0.0244,-0.05368,-0.03904,0.00976,0.01464,0.01952
0.03904,-0.09028,0.14152,0.122,0.10248,-0.03172,-0.0244,-0.05368,-0.04392,0.00488,0.01464,0.01952
0.03416,-0.08296,0.13176,0.11468,0.0976,-0.03172,-0.01952,-0.05368,-0.04392,0,0.00976,0.01952
0.02928,-0.07076,0.11224,0.0976,0.08296,-0.02684,-0.01952,-0.05368,-0.0488,-0.00488,0,0.01464
0.02928,-0.06588,0.10248,0.08784,0.0732,-0.02196,-0.01952,-0.05856,-0.05856,-0.01952,-0.00976,0
0.02928,-0.06588,0.10248,0.08784,0.0732,-0.02196,-0.01464,-0.05856,-0.05856,-0.01952,-0.01464,-0.00488
0.0244,-0.05856,0.09272,0.08052,0.06832,-0.02196,-0.01464,-0.05856,-0.05856,-0.01952,-0.01464,-0.00976
0.01952,-0.0488,0.07808,0.06832,0.05856,-0.01952,-0.00976,-0.05368,-0.05368,-0.02928,-0.01464,-0.01464
0.01952,-0.03904,0.05856,0.0488,0.03904,-0.00976,0,-0.04392,-0.05368,-0.03904,-0.02928,-0.02928
0.00976,-0.01708,0.0244,0.01952,0.01464,-0.00244,0.0244,-0.02928,-0.05368,-0.0488,-0.03904,-0.03904
-0.00488,-0.00244,0.00976,0.0122,0.01464,-0.00976,0.02928,-0.01952,-0.05368,-0.05368,-0.0488,-0.04392
-0.00976,0.01708,-0.0244,-0.01952,-0.01464,0.00244,0.03416,-0.01952,-0.06344,-0.06832,-0.06832,-0.05856
-0.01952,0.03416,-0.0488,-0.03904,-0.02928,0.00488,0.04392,-0.01952,-0.0732,-0.08296,-0.08296,-0.0732
-0.01952,0.0366,-0.05368,-0.04392,-0.03416,0.00732,0.04392,-0.01952,-0.0732,-0.08784,-0.08296,-0.0732
-0.01952,0.0366,-0.05368,-0.04392,-0.03416,0.00732,0.0488,-0.01952,-0.0732,-0.08784,-0.08296,-0.0732
-0.0244,0.03904,-0.05368,-0.04148,-0.02928,0.00244,0.0488,-0.01952,-0.0732,-0.08784,-0.08296,-0.0732
-0.03416,0.04636,-0.05856,-0.04148,-0.0244,-0.00488,0.0488,-0.0244,-0.07808,-0.09272,-0.08784,-0.07808
-0.03416,0.05124,-0.06832,-0.05124,-0.03416,0,0.0488,-0.0244,-0.07808,-0.09272,-0.08784,-0.08296
-0.03416,0.05612,-0.07808,-0.061,-0.04392,0.00488,0.05856,-0.01952,-0.07808,-0.0976,-0.08784,-0.08296
-0.03416,0.05612,-0.07808,-0.061,-0.04392,0.00488,0.05856,-0.01464,-0.07808,-0.0976,-0.08784,-0.08296
-0.03416,0.05612,-0.07808,-0.061,-0.04392,0.00488,0.05856,-0.01464,-0.07808,-0.0976,-0.09272,-0.08296
-0.03416,0.05612,-0.07808,-0.061,-0.04392,0.00488,0.06344,-0.01464,-0.07808,-0.0976,-0.09272,-0.08784
-0.03416,0.05612,-0.07808,-0.061,-0.04392,0.00488,0.06344,-0.00976,-0.0732,-0.0976,-0.09272,-0.08784
-0.03416,0.05612,-0.07808,-0.061,-0.04392,0.00488,0.06832,-0.00976,-0.0732,-0.0976,-0.09272,-0.08784
-0.03904,0.05856,-0.07808,-0.05856,-0.03904,0,0.06832,-0.00976,-0.0732,-0.0976,-0.09272,-0.08784
-0.04392,0.061,-0.07808,-0.05612,-0.03416,-0.00488,0.06832,-0.00976,-0.0732,-0.0976,-0.08784,-0.08784
-0.04392,0.061,-0.07808,-0.05612,-0.03416,-0.00488,0.06832,-0.00976,-0.0732,-0.09272,-0.08784,-0.08296
-0.04392,0.05856,-0.0732,-0.05124,-0.02928,-0.00732,0.0732,-0.00976,-0.06832,-0.09272,-0.08784,-0.07808
-0.0488,0.061,-0.0732,-0.0488,-0.0244,-0.0122,0.0732,-0.00976,-0.06344,-0.09272,-0.08784,-0.07808
-0.06344,0.06832,-0.0732,-0.04148,-0.00976,-0.02684,0.09272,0.00976,-0.05368,-0.09272,-0.08784,-0.0732
-0.06344,0.05368,-0.04392,-0.0122,0.01952,-0.04148,0.0976,0.00488,-0.03904,-0.05856,-0.05856,-0.05856
-0.05368,0.01952,0.01464,0.04148,0.06832,-0.061,0.0732,-0.00976,-0.00976,0,0.00488,-0.00488
-0.00488,-0.05368,0.11224,0.11468,0.11712,-0.061,0,-0.0488,0.03416,0.122,0.11224,0.08784
0.0976,-0.1708,0.244,0.1952,0.1464,-0.0244,-0.1708,-0.22448,0.00976,0.28304,0.26352,0.2196
0.23424,-0.3172,0.40016,0.28304,0.16592,0.03416,-0.38064,-0.4636,-0.09272,0.44896,0.42456,0.37088
0.40504,-0.488,0.57096,0.36844,0.16592,0.11956,-0.58072,-0.67344,-0.1708,0.63928,0.61488,0.53192
0.59048,-0.6588,0.72712,0.43188,0.13664,0.22692,-0.81984,-0.88816,-0.22448,0.84424,0.8052,0.7076
0.8052,-0.88572,0.96624,0.56364,0.16104,0.32208,-1.11264,-1.1468,-0.23424,1.11752,1.06872,0.9272
0.9516,-1.0736,1.1956,0.7198,0.244,0.3538,-1.35176,-1.42496,-0.35136,1.26392,1.23464,1.098
1.04432,-1.23464,1.42496,0.9028,0.38064,0.33184,-1.55184,-1.63968,-0.44408,1.38104,1.37616,1.25416
1.01504,-1.17608,1.33712,0.8296,0.32208,0.34648,-1.52744,-1.68848,-0.66368,1.07848,1.15168,1.10776
0.7808,-0.85644,0.93208,0.54168,0.15128,0.31476,-1.33224,-1.66408,-1.03456,0.33672,0.5368,0.65392
0.53192,-0.48556,0.4392,0.17324,-0.09272,0.31232,-1.05896,-1.50792,-1.28344,-0.26352,-0.00488,0.20496
0.32208,-0.14884,-0.0244,-0.18544,-0.34648,0.33428,-0.71736,-1.21512,-1.29808,-0.67832,-0.40504,-0.16592
0.21472,0.00976,-0.23424,-0.3416,-0.44896,0.33184,-0.53192,-0.99552,-1.13216,-0.71736,-0.49776,-0.30256
0.122,0.04392,-0.20984,-0.27084,-0.33184,0.22692,-0.38064,-0.78568,-0.88328,-0.57096,-0.4148,-0.25864
0.00488,0.0732,-0.15128,-0.15372,-0.15616,0.08052,-0.1952,-0.51728,-0.57096,-0.38552,-0.28304,-0.18544
-0.03904,0.10248,-0.16592,-0.1464,-0.12688,0.04392,-0.08296,-0.32696,-0.38064,-0.27816,-0.22936,-0.17568
-0.08784,0.10736,-0.12688,-0.08296,-0.03904,-0.0244,0,-0.20008,-0.24888,-0.20496,-0.1708,-0.13664
-0.07808,0.10492,-0.13176,-0.09272,-0.05368,-0.0122,0.06832,-0.07808,-0.13176,-0.15128,-0.13664,-0.12688
-0.07808,0.10736,-0.13664,-0.0976,-0.05856,-0.00976,0.11712,0.01952,-0.04392,-0.11712,-0.11712,-0.11712
-0.06344,0.09028,-0.11712,-0.0854,-0.05368,-0.00488,0.13176,0.05856,-0.00488,-0.0976,-0.10248,-0.10248
-0.05856,0.08784,-0.11712,-0.08784,-0.05856,0,0.14152,0.07808,0.00488,-0.0976,-0.10248,-0.10248
-0.05856,0.08784,-0.11712,-0.08784,-0.05856,0,0.1464,0.08784,0.01464,-0.0976,-0.10248,-0.10248
-0.06344,0.09028,-0.11712,-0.0854,-0.05368,-0.00488,0.15128,0.0976,0.0244,-0.08784,-0.0976,-0.10248
-0.06832,0.09516,-0.122,-0.08784,-0.05368,-0.00732,0.16104,0.11224,0.03416,-0.08296,-0.0976,-0.10248
-0.06344,0.09272,-0.122,-0.09028,-0.05856,-0.00244,0.16104,0.122,0.04392,-0.0732,-0.08784,-0.10248
-0.05856,0.09028,-0.122,-0.09272,-0.06344,0.00244,0.16104,0.13176,0.05368,-0.06832,-0.08296,-0.0976
-0.05856,0.08784,-0.11712,-0.08784,-0.05856,0,0.16104,0.14152,0.06344,-0.06832,-0.07808,-0.0976
-0.05856,0.08784,-0.11712,-0.08784,-0.05856,0,0.16104,0.14152,0.06832,-0.06832,-0.07808,-0.0976
-0.05856,0.0854,-0.11224,-0.08296,-0.05368,-0.00244,0.16104,0.14152,0.06832,-0.06832,-0.0732,-0.09272
-0.05856,0.08052,-0.10248,-0.0732,-0.04392,-0.00732,0.16592,0.1464,0.0732,-0.06832,-0.0732,-0.08784
-0.05368,0.07808,-0.10248,-0.07564,-0.0488,-0.00244,0.16592,0.1464,0.07808,-0.06832,-0.0732,-0.08296
-0.05368,0.07808,-0.10248,-0.07564,-0.0488,-0.00244,0.16592,0.15128,0.07808,-0.06832,-0.0732,-0.08296
-0.05856,0.08052,-0.10248,-0.0732,-0.04392,-0.00732,0.16592,0.15616,0.08296,-0.05856,-0.06832,-0.08296
-0.05856,0.08052,-0.10248,-0.0732,-0.04392,-0.00732,0.16592,0.16104,0.08784,-0.0488,-0.06832,-0.07808
-0.05856,0.07808,-0.0976,-0.06832,-0.03904,-0.00976,0.16592,0.15616,0.09272,-0.0488,-0.06832,-0.07808
-0.05856,0.07808,-0.0976,-0.06832,-0.03904,-0.00976,0.16592,0.15128,0.09272,-0.05368,-0.06832,-0.07808
-0.05856,0.07808,-0.0976,-0.06832,-0.03904,-0.00976,0.16592,0.16104,0.09272,-0.05368,-0.0732,-0.08296
-0.05856,0.07808,-0.0976,-0.06832,-0.03904,-0.00976,0.16592,0.16104,0.0976,-0.0488,-0.07808,-0.08784
-0.05856,0.07808,-0.0976,-0.06832,-0.03904,-0.00976,0.16592,0.16104,0.10248,-0.0488,-0.0732,-0.08784
-0.05856,0.07808,-0.0976,-0.06832,-0.03904,-0.00976,0.16592,0.16592,0.10248,-0.0488,-0.0732,-0.08784
-0.05368,0.07564,-0.0976,-0.07076,-0.04392,-0.00488,0.16592,0.16592,0.10736,-0.0488,-0.0732,-0.08296
-0.0488,0.0732,-0.0976,-0.0732,-0.0488,0,0.16592,0.1708,0.10736,-0.0488,-0.06832,-0.08296
-0.05368,0.07808,-0.10248,-0.07564,-0.0488,-0.00244,0.16592,0.1708,0.11224,-0.0488,-0.06832,-0.08296
-0.05368,0.07808,-0.10248,-0.07564,-0.0488,-0.00244,0.16592,0.18056,0.11224,-0.0488,-0.06832,-0.08296
-0.05368,0.07808,-0.10248,-0.07564,-0.0488,-0.00244,0.1708,0.18056,0.11712,-0.0488,-0.06832,-0.08296
-0.05856,0.08052,-0.10248,-0.0732,-0.04392,-0.00732,0.17568,0.18544,0.122,-0.0488,-0.06832,-0.08296
-0.05856,0.08296,-0.10736,-0.07808,-0.0488,-0.00488,0.17568,0.1952,0.122,-0.05368,-0.0732,-0.08296
-0.05856,0.0854,-0.11224,-0.08296,-0.05368,-0.00244,0.17568,0.20008,0.12688,-0.05856,-0.07808,-0.08296
-0.06344,0.08784,-0.11224,-0.08052,-0.0488,-0.00732,0.18056,0.20008,0.13664,-0.05856,-0.07808,-0.08784
-0.06344,0.08784,-0.11224,-0.08052,-0.0488,-0.00732,0.18544,0.20984,0.14152,-0.05856,-0.07808,-0.09272
-0.06344,0.08784,-0.11224,-0.08052,-0.0488,-0.00732,0.18544,0.20984,0.14152,-0.05856,-0.07808,-0.0976
-0.06344,0.08784,-0.11224,-0.08052,-0.0488,-0.00732,0.18544,0.2196,0.14152,-0.05856,-0.0732,-0.0976
-0.06832,0.08784,-0.10736,-0.0732,-0.03904,-0.01464,0.19032,0.22448,0.1464,-0.05856,-0.0732,-0.0976
-0.06832,0.08784,-0.10736,-0.0732,-0.03904,-0.01464,0.1952,0.23424,0.15128,-0.05368,-0.0732,-0.0976
-0.06832,0.08784,-0.10736,-0.0732,-0.03904,-0.01464,0.1952,0.23912,0.15128,-0.06344,-0.07808,-0.0976
-0.0732,0.09028,-0.10736,-0.07076,-0.03416,-0.01952,0.20008,0.244,0.16104,-0.06344,-0.07808,-0.10736
-0.0732,0.09272,-0.11224,-0.07564,-0.03904,-0.01708,0.20496,0.24888,0.16592,-0.06832,-0.08784,-0.11224
-0.0732,0.09272,-0.11224,-0.07564,-0.03904,-0.01708,0.20984,0.25864,0.16592,-0.07808,-0.08784,-0.11224
-0.07808,0.09272,-0.10736,-0.06832,-0.02928,-0.0244,0.20984,0.26352,0.16592,-0.07808,-0.08784,-0.11712
-0.08296,0.09516,-0.10736,-0.06588,-0.0244,-0.02928,0.21472,0.2684,0.1708,-0.08296,-0.10248,-0.122
-0.08296,0.0976,-0.11224,-0.07076,-0.02928,-0.02684,0.2196,0.27328,0.17568,-0.09272,-0.11224,-0.12688
-0.08784,0.10004,-0.11224,-0.06832,-0.0244,-0.03172,0.2196,0.27816,0.17568,-0.0976,-0.11712,-0.12688
-0.08784,0.10492,-0.122,-0.07808,-0.03416,-0.02684,0.22936,0.28304,0.18056,-0.10248,-0.122,-0.13176
-0.09272,0.1098,-0.12688,-0.08052,-0.03416,-0.02928,0.23912,0.28792,0.18056,-0.10736,-0.13176,-0.14152
-0.09272,0.1098,-0.12688,-0.08052,-0.03416,-0.02928,0.23912,0.28792,0.18056,-0.11224,-0.13176,-0.14152
-0.09272,0.1098,-0.12688,-0.08052,-0.03416,-0.02928,0.23912,0.28792,0.18056,-0.11712,-0.13176,-0.14152
-0.09272,0.10736,-0.122,-0.07564,-0.02928,-0.03172,0.23424,0.2928,0.18056,-0.11712,-0.12688,-0.14152
-0.09272,0.10248,-0.11224,-0.06588,-0.01952,-0.0366,0.22936,0.2928,0.18056,-0.11712,-0.12688,-0.14152
-0.09272,0.10004,-0.10736,-0.061,-0.01464,-0.03904,0.22936,0.2928,0.18544,-0.11224,-0.12688,-0.14152
-0.08784,0.09272,-0.0976,-0.05368,-0.00976,-0.03904,0.22936,0.2928,0.19032,-0.10248,-0.122,-0.13664
-0.08296,0.08296,-0.08296,-0.04148,0,-0.04148,0.2196,0.28792,0.1952,-0.10248,-0.11224,-0.11712
-0.07808,0.0732,-0.06832,-0.02928,0.00976,-0.04392,0.20984,0.28304,0.1952,-0.08784,-0.0976,-0.10248
-0.06832,0.061,-0.05368,-0.01952,0.01464,-0.04148,0.20496,0.2684,0.20008,-0.0732,-0.08784,-0.09272
-0.05856,0.05124,-0.04392,-0.01464,0.01464,-0.0366,0.20496,0.26352,0.20496,-0.05856,-0.0732,-0.08296
-0.0488,0.03904,-0.02928,-0.00488,0.01952,-0.03416,0.1952,0.24888,0.20984,-0.04392,-0.06344,-0.06832
-0.03904,0.0244,-0.00976,0.00976,0.02928,-0.03416,0.17568,0.23912,0.21472,-0.0244,-0.04392,-0.05368
-0.01952,0.00488,0.00976,0.01952,0.02928,-0.0244,0.15616,0.22448,0.21472,-0.00976,-0.0244,-0.03904
-0.00488,-0.0122,0.02928,0.03172,0.03416,-0.01952,0.1464,0.21472,0.20984,0.00976,-0.00976,-0.0244
0,-0.02196,0.04392,0.04392,0.04392,-0.02196,0.12688,0.20008,0.20496,0.0244,0.00976,-0.00488
0.00976,-0.03172,0.05368,0.0488,0.04392,-0.01708,0.10736,0.17568,0.1952,0.04392,0.02928,0.00488
0.01952,-0.03904,0.05856,0.0488,0.03904,-0.00976,0.08784,0.15128,0.18544,0.05368,0.03904,0.00976
0.02928,-0.0488,0.06832,0.05368,0.03904,-0.00488,0.07808,0.13176,0.17568,0.05368,0.0488,0.01952
0.02928,-0.0488,0.06832,0.05368,0.03904,-0.00488,0.06344,0.11224,0.16592,0.06344,0.05368,0.02928
0.03416,-0.05124,0.06832,0.05124,0.03416,0,0.05368,0.09272,0.14152,0.06344,0.05856,0.02928
0.02928,-0.0488,0.06832,0.05368,0.03904,-0.00488,0.05368,0.07808,0.122,0.06344,0.06344,0.03416
0.02928,-0.0488,0.06832,0.05368,0.03904,-0.00488,0.0488,0.06344,0.10248,0.06344,0.06344,0.03416
0.02928,-0.0488,0.06832,0.05368,0.03904,-0.00488,0.03904,0.05368,0.08296,0.05856,0.05856,0.03416
0.0244,-0.04392,0.06344,0.05124,0.03904,-0.00732,0.02928,0.03416,0.05856,0.04392,0.0488,0.02928
0.0244,-0.03904,0.05368,0.04148,0.02928,-0.00244,0.02928,0.0244,0.04392,0.03904,0.0488,0.02928
0.01464,-0.03172,0.0488,0.04148,0.03416,-0.00976,0.03416,0.01464,0.03904,0.03416,0.03904,0.0244
0.01464,-0.02684,0.03904,0.03172,0.0244,-0.00488,0.03416,0.00976,0.02928,0.0244,0.02928,0.01952
0.01464,-0.0244,0.03416,0.02684,0.01952,-0.00244,0.03416,0.00488,0.01464,0.01464,0.0244,0.01952
0.01464,-0.0244,0.03416,0.02684,0.01952,-0.00244,0.03416,0.00488,0.00976,0.01952,0.0244,0.01952
0.01464,-0.0244,0.03416,0.02684,0.01952,-0.00244,0.03904,0,0.00488,0.01952,0.01952,0.01464
0.01464,-0.0244,0.03416,0.02684,0.01952,-0.00244,0.03904,0,0,0.00976,0.01464,0.01464
0.01464,-0.02196,0.02928,0.02196,0.01464,0,0.03904,0,0,0.00976,0.01464,0.00976
0.01464,-0.01952,0.0244,0.01708,0.00976,0.00244,0.03904,-0.00488,-0.00488,0.00488,0.00976,0.00488
0.01464,-0.01952,0.0244,0.01708,0.00976,0.00244,0.03904,-0.00488,-0.00488,0,0.00488,0
0.00488,-0.00976,0.01464,0.0122,0.00976,-0.00244,0.03904,0,-0.00488,0,0,-0.00488
0,-0.00488,0.00976,0.00976,0.00976,-0.00488,0.03904,0,-0.00488,-0.00488,0,-0.00488
0,-0.00488,0.00976,0.00976,0.00976,-0.00488,0.03904,0,-0.00976,-0.00488,0,-0.00488
0,-0.00488,0.00976,0.00976,0.00976,-0.00488,0.03904,0.00488,-0.00976,-0.00488,-0.00488,-0.00488
0,-0.00488,0.00976,0.00976,0.00976,-0.00488,0.04392,0.00488,-0.00488,-0.00976,-0.00488,0
0,-0.00488,0.00976,0.00976,0.00976,-0.00488,0.0488,0.00976,-0.00488,-0.00976,-0.00488,0
0,-0.00488,0.00976,0.00976,0.00976,-0.00488,0.0488,0.00976,-0.00488,-0.00976,-0.00488,0
0,-0.00488,0.00976,0.00976,0.00976,-0.00488,0.0488,0.00976,-0.00488,-0.00976,-0.00488,0
0.00488,-0.00732,0.00976,0.00732,0.00488,0,0.05368,0.00976,-0.00488,-0.00976,-0.00488,0
0.00976,-0.00976,0.00976,0.00488,0,0.00488,0.05856,0.01464,-0.00488,-0.00976,-0.00976,-0.00488
0.00976,-0.00976,0.00976,0.00488,0,0.00488,0.05856,0.01464,-0.00488,-0.00976,-0.00976,-0.00488
0.00488,-0.00732,0.00976,0.00732,0.00488,0,0.05856,0.01464,0,-0.00976,-0.00976,0
0,-0.00488,0.00976,0.00976,0.00976,-0.00488,0.06344,0.01952,0,-0.01464,-0.00976,0
0,-0.00488,0.00976,0.00976,0.00976,-0.00488,0.06344,0.0244,0.00488,-0.01464,-0.00976,-0.00488
0.00488,-0.00488,0.00488,0.00244,0,0.00244,0.06832,0.0244,0.00488,-0.01464,-0.01464,-0.00488
0.00488,-0.00244,0,-0.00244,-0.00488,0.00488,0.0732,0.0244,0.00976,-0.01952,-0.01952,-0.00976
0,0.00244,-0.00488,-0.00488,-0.00488,0.00244,0.0732,0.02928,0.00976,-0.01952,-0.01952,-0.00976
-0.00488,0.00488,-0.00488,-0.00244,0,-0.00244,0.0732,0.03416,0.00976,-0.01952,-0.01952,-0.01464
-0.00976,0.00732,-0.00488,0,0.00488,-0.00732,0.0732,0.03416,0.00976,-0.01952,-0.01952,-0.01464
-0.00976,0.00732,-0.00488,0,0.00488,-0.00732,0.07808,0.03416,0.00976,-0.01952,-0.01952,-0.01464
-0.00976,0.0122,-0.01464,-0.00976,-0.00488,-0.00244,0.07808,0.03416,0.01464,-0.01952,-0.01952,-0.0244
-0.01464,0.01708,-0.01952,-0.0122,-0.00488,-0.00488,0.08296,0.03904,0.01464,-0.01952,-0.01952,-0.02928
-0.01464,0.01708,-0.01952,-0.0122,-0.00488,-0.00488,0.08784,0.04392,0.01464,-0.01952,-0.0244,-0.02928
-0.01952,0.01952,-0.01952,-0.00976,0,-0.00976,0.0976,0.0488,0.01952,-0.01952,-0.0244,-0.02928
-0.01464,0.01952,-0.0244,-0.01708,-0.00976,-0.00244,0.10248,0.04392,0.01952,-0.01952,-0.0244,-0.02928
-0.00976,0.01708,-0.0244,-0.01952,-0.01464,0.00244,0.10248,0.03904,0.01952,-0.0244,-0.0244,-0.03416
-0.00976,0.01708,-0.0244,-0.01952,-0.01464,0.00244,0.10248,0.03904,0.01952,-0.0244,-0.01952,-0.02928
-0.01464,0.01708,-0.01952,-0.0122,-0.00488,-0.00488,0.10248,0.03904,0.01952,-0.0244,-0.01464,-0.0244
-0.01464,0.01952,-0.0244,-0.01708,-0.00976,-0.00244,0.10248,0.03904,0.01952,-0.0244,-0.01464,-0.0244
-0.01464,0.01952,-0.0244,-0.01708,-0.00976,-0.00244,0.10248,0.03904,0.01464,-0.0244,-0.0244,-0.03416
-0.00976,0.01464,-0.01952,-0.01464,-0.00976,0,0.10248,0.03904,0.01464,-0.01952,-0.0244,-0.03416
-0.00976,0.0122,-0.01464,-0.00976,-0.00488,-0.00244,0.10248,0.03416,0.01464,-0.01952,-0.0244,-0.02928
-0.0244,0.01952,-0.01464,-0.00244,0.00976,-0.01708,0.10736,0.03904,0.01464,-0.01952,-0.0244,-0.02928
-0.03416,0.02684,-0.01952,-0.00244,0.01464,-0.0244,0.11224,0.04392,0.01464,-0.01952,-0.0244,-0.03416
-0.03416,0.02928,-0.0244,-0.00732,0.00976,-0.02196,0.11224,0.04392,0.00976,-0.0244,-0.0244,-0.03416
-0.03416,0.03172,-0.02928,-0.0122,0.00488,-0.01952,0.11224,0.03904,0.00976,-0.03416,-0.02928,-0.03904
-0.03416,0.03416,-0.03416,-0.01708,0,-0.01708,0.11712,0.03416,0.00976,-0.03416,-0.02928,-0.03904
-0.03416,0.03416,-0.03416,-0.01708,0,-0.01708,0.122,0.02928,0.00488,-0.03416,-0.02928,-0.03416
-0.03416,0.03172,-0.02928,-0.0122,0.00488,-0.01952,0.122,0.02928,0.00488,-0.03416,-0.02928,-0.03416
-0.03904,0.03416,-0.02928,-0.00976,0.00976,-0.0244,0.122,0.02928,0.00488,-0.03416,-0.03416,-0.03416
-0.03904,0.0366,-0.03416,-0.01464,0.00488,-0.02196,0.122,0.03416,0,-0.03416,-0.03416,-0.03904
-0.03904,0.0366,-0.03416,-0.01464,0.00488,-0.02196,0.122,0.02928,-0.00488,-0.03416,-0.03416,-0.04392
-0.03416,0.0366,-0.03904,-0.02196,-0.00488,-0.01464,0.11712,0.02928,-0.00488,-0.03904,-0.03416,-0.04392
-0.03416,0.0366,-0.03904,-0.02196,-0.00488,-0.01464,0.11712,0.0244,-0.00976,-0.03904,-0.03416,-0.04392
-0.03904,0.03904,-0.03904,-0.01952,0,-0.01952,0.11712,0.0244,-0.00976,-0.03904,-0.03904,-0.03904
-0.03904,0.04148,-0.04392,-0.0244,-0.00488,-0.01708,0.122,0.0244,-0.00976,-0.03904,-0.03904,-0.03416
-0.03904,0.04392,-0.0488,-0.02928,-0.00976,-0.01464,0.122,0.0244,-0.01464,-0.03904,-0.04392,-0.03904
-0.04392,0.04636,-0.0488,-0.02684,-0.00488,-0.01952,0.122,0.01952,-0.01464,-0.04392,-0.04392,-0.03904
-0.03416,0.03416,-0.03416,-0.01708,0,-0.01708,0.122,0.01952,-0.00976,-0.04392,-0.03416,-0.03416
-0.02928,0.02684,-0.0244,-0.00976,0.00488,-0.01708,0.12688,0.01952,-0.00976,-0.04392,-0.02928,-0.03416
-0.02928,0.01708,-0.00488,0.00976,0.0244,-0.02684,0.13664,0.02928,0,-0.03416,-0.0244,-0.0244
-0.02928,0.00976,0.00976,0.0244,0.03904,-0.03416,0.1464,0.03904,0.00976,-0.02928,-0.01952,-0.01952
-0.01952,0.00488,0.00976,0.01952,0.02928,-0.0244,0.15128,0.03904,0.00976,-0.0244,-0.01952,-0.01952
-0.00976,0,0.00976,0.01464,0.01952,-0.01464,0.15616,0.03904,0.00976,-0.01952,-0.01952,-0.01952
-0.00976,-0.00244,0.01464,0.01952,0.0244,-0.01708,0.16104,0.04392,0.00976,-0.01464,-0.01952,-0.01952
-0.00976,-0.00488,0.01952,0.0244,0.02928,-0.01952,0.16104,0.04392,0.00976,-0.00976,-0.00976,-0.01464
-0.01464,-0.00732,0.02928,0.0366,0.04392,-0.02928,0.16592,0.0488,0.01464,-0.00976,-0.00488,-0.00976
-0.0244,-0.00976,0.04392,0.05612,0.06832,-0.04636,0.16592,0.04392,0.01952,0,0.00488,-0.00488
-0.0244,-0.01952,0.06344,0.07564,0.08784,-0.05612,0.1464,0.0244,0.01952,0.00488,0.01952,0.01464
-0.01952,-0.0366,0.09272,0.10248,0.11224,-0.06588,0.11224,-0.01464,0.00976,0.00488,0.01952,0.0244
-0.00976,-0.0366,0.08296,0.08784,0.09272,-0.05124,0.10248,-0.01952,0,0,0.01464,0.0244
-0.00488,-0.03904,0.08296,0.0854,0.08784,-0.04636,0.08784,-0.02928,-0.00976,0,0.01464,0.01464
0.00976,-0.05124,0.09272,0.08784,0.08296,-0.0366,0.08296,-0.03416,-0.00976,0,0.01464,0.0244
0.01464,-0.06588,0.11712,0.1098,0.10248,-0.04392,0.07808,-0.03904,-0.00976,0.00488,0.01952,0.03416
0.01464,-0.06832,0.122,0.11468,0.10736,-0.04636,0.06832,-0.04392,-0.01952,0.00976,0.0244,0.03904
0.01952,-0.0732,0.12688,0.11712,0.10736,-0.04392,0.06832,-0.04392,-0.01952,0.01952,0.0244,0.03904
0.01952,-0.0732,0.12688,0.11712,0.10736,-0.04392,0.07808,-0.04392,-0.01952,0.01952,0.0244,0.03904
0.01952,-0.07076,0.122,0.11224,0.10248,-0.04148,0.08296,-0.04392,-0.0244,0.01464,0.0244,0.03904
0.01464,-0.06588,0.11712,0.1098,0.10248,-0.04392,0.08784,-0.04392,-0.0244,0.01464,0.0244,0.03904
0.00976,-0.05612,0.10248,0.0976,0.09272,-0.04148,0.08784,-0.04392,-0.02928,0.01464,0.01952,0.03416
0.00976,-0.05124,0.09272,0.08784,0.08296,-0.0366,0.08296,-0.05856,-0.04392,0,0.00976,0.0244
0.00976,-0.05124,0.09272,0.08784,0.08296,-0.0366,0.08296,-0.06832,-0.0488,0,0.00488,0.0244
0.00488,-0.04636,0.08784,0.0854,0.08296,-0.03904,0.08296,-0.06832,-0.0488,0,0.00488,0.01952
0,-0.03904,0.07808,0.07808,0.07808,-0.03904,0.08784,-0.06344,-0.04392,-0.00976,0.00488,0.01464
-0.00488,-0.02684,0.05856,0.061,0.06344,-0.03416,0.0976,-0.05368,-0.04392,-0.01952,-0.00976,0
-0.01952,-0.00244,0.0244,0.03416,0.04392,-0.03172,0.122,-0.03904,-0.04392,-0.02928,-0.01952,-0.00976
-0.03416,0.0122,0.00976,0.02684,0.04392,-0.03904,0.13176,-0.0244,-0.04392,-0.03904,-0.02928,-0.01952
-0.03904,0.03172,-0.0244,-0.00488,0.01464,-0.02684,0.14152,-0.01952,-0.05368,-0.05856,-0.0488,-0.03904
-0.0488,0.05124,-0.05368,-0.02928,-0.00488,-0.02196,0.15128,-0.01952,-0.06344,-0.0732,-0.06344,-0.05368
-0.0488,0.05612,-0.06344,-0.03904,-0.01464,-0.01708,0.15128,-0.01952,-0.06344,-0.07808,-0.06344,-0.05368
-0.0488,0.05612,-0.06344,-0.03904,-0.01464,-0.01708,0.15616,-0.01952,-0.06344,-0.07808,-0.06344,-0.05368
-0.05368,0.05856,-0.06344,-0.0366,-0.00976,-0.02196,0.15616,-0.01952,-0.06344,-0.07808,-0.06344,-0.05368
-0.06344,0.06588,-0.06832,-0.0366,-0.00488,-0.02928,0.16104,-0.0244,-0.06832,-0.08296,-0.0732,-0.05856
-0.06344,0.07076,-0.07808,-0.04636,-0.01464,-0.0244,0.16592,-0.0244,-0.06832,-0.08296,-0.07808,-0.06344
-0.05856,0.07564,-0.09272,-0.06344,-0.03416,-0.0122,0.18056,-0.01952,-0.0732,-0.08784,-0.07808,-0.06344
-0.05368,0.07564,-0.0976,-0.07076,-0.04392,-0.00488,0.18544,-0.01464,-0.07808,-0.08784,-0.07808,-0.06344
-0.05368,0.07564,-0.0976,-0.07076,-0.04392,-0.00488,0.18544,-0.01464,-0.07808,-0.08784,-0.07808,-0.06344
-0.05368,0.07564,-0.0976,-0.07076,-0.04392,-0.00488,0.19032,-0.01464,-0.07808,-0.08784,-0.0732,-0.06832
-0.05368,0.07564,-0.0976,-0.07076,-0.04392,-0.00488,0.19032,-0.00976,-0.0732,-0.08784,-0.0732,-0.06832
-0.05368,0.07564,-0.0976,-0.07076,-0.04392,-0.00488,0.1952,-0.00976,-0.0732,-0.08784,-0.0732,-0.06832
-0.05368,0.07564,-0.0976,-0.07076,-0.04392,-0.00488,0.20008,-0.00976,-0.0732,-0.08784,-0.07808,-0.0732
-0.05368,0.07564,-0.0976,-0.07076,-0.04392,-0.00488,0.20496,-0.00976,-0.0732,-0.08784,-0.07808,-0.07808
-0.05368,0.07564,-0.0976,-0.07076,-0.04392,-0.00488,0.20496,-0.00976,-0.0732,-0.08296,-0.07808,-0.07808
-0.05368,0.0732,-0.09272,-0.06588,-0.03904,-0.00732,0.20984,-0.00976,-0.06832,-0.08296,-0.07808,-0.07808
-0.06344,0.07808,-0.09272,-0.061,-0.02928,-0.01708,0.20984,-0.00976,-0.06832,-0.08296,-0.07808,-0.07808
-0.08296,0.08784,-0.09272,-0.05124,-0.00976,-0.0366,0.22936,0.00976,-0.06344,-0.08296,-0.07808,-0.0732
-0.0976,0.08784,-0.07808,-0.02928,0.01952,-0.05856,0.25864,0.01952,-0.0488,-0.06832,-0.06832,-0.06832
-0.10248,0.06832,-0.03416,0.01708,0.06832,-0.0854,0.25864,0.01952,-0.01952,-0.02928,-0.0244,-0.0244
-0.06344,0.00732,0.0488,0.08052,0.11224,-0.08784,0.20984,0.00976,0.03416,0.0732,0.06344,0.0488
0.02928,-0.0976,0.16592,0.15128,0.13664,-0.05368,0.06344,-0.13664,0.01952,0.21472,0.1952,0.16104
0.12688,-0.2196,0.31232,0.24888,0.18544,-0.02928,-0.12688,-0.366,-0.08296,0.366,0.3416,0.30256
0.25864,-0.366,0.47336,0.34404,0.21472,0.02196,-0.30744,-0.56608,-0.16104,0.54168,0.51728,0.45384
0.47336,-0.52948,0.5856,0.34892,0.11224,0.18056,-0.53192,-0.74664,-0.19032,0.71248,0.67344,0.59048
0.71736,-0.74908,0.7808,0.42212,0.06344,0.32696,-0.81008,-0.97112,-0.17568,0.9516,0.9028,0.77104
0.9272,-1.00772,1.08824,0.62464,0.16104,0.38308,-1.1224,-1.28344,-0.20496,1.27856,1.21512,1.04432
1.08336,-1.23952,1.39568,0.854,0.31232,0.38552,-1.39568,-1.53232,-0.20984,1.57624,1.50304,1.30296
1.13704,-1.31028,1.48352,0.915,0.34648,0.39528,-1.4884,-1.6836,-0.42456,1.43472,1.43472,1.30296
0.98576,-1.11996,1.25416,0.76128,0.2684,0.35868,-1.41032,-1.76168,-0.79056,0.854,0.976,0.99552
0.70272,-0.68808,0.67344,0.32208,-0.02928,0.366,-1.098,-1.62504,-1.18584,0.05368,0.27816,0.44408
0.45872,-0.29036,0.122,-0.10736,-0.33672,0.39772,-0.71736,-1.35176,-1.34688,-0.5612,-0.27816,-0.02928
0.32208,-0.06344,-0.1952,-0.35624,-0.51728,0.41968,-0.51728,-1.1468,-1.23464,-0.68808,-0.45384,-0.244
0.20008,0.03904,-0.27816,-0.3782,-0.47824,0.33916,-0.35136,-0.9516,-1.03944,-0.62952,-0.45384,-0.27816
0.06344,0.05368,-0.1708,-0.20252,-0.23424,0.14884,-0.14152,-0.65392,-0.69296,-0.42456,-0.29768,-0.17568
0,0.06832,-0.13664,-0.13664,-0.13664,0.06832,-0.00488,-0.43432,-0.46848,-0.29768,-0.2196,-0.13664
-0.0732,0.08784,-0.10248,-0.06588,-0.02928,-0.02196,0.0976,-0.28792,-0.3172,-0.2196,-0.16592,-0.10736
-0.08784,0.10004,-0.11224,-0.06832,-0.0244,-0.03172,0.18544,-0.1464,-0.18056,-0.16104,-0.13664,-0.10736
-0.08784,0.10492,-0.122,-0.07808,-0.03416,-0.02684,0.24888,-0.0244,-0.07808,-0.11712,-0.11224,-0.10248
-0.0732,0.09028,-0.10736,-0.07076,-0.03416,-0.01952,0.27816,0.03904,-0.0244,-0.08784,-0.09272,-0.09272
-0.06832,0.09028,-0.11224,-0.07808,-0.04392,-0.0122,0.2928,0.06344,-0.00976,-0.08784,-0.08784,-0.09272
-0.06832,0.09272,-0.11712,-0.08296,-0.0488,-0.00976,0.30256,0.07808,0.00488,-0.08784,-0.08296,-0.09272
-0.0732,0.09516,-0.11712,-0.08052,-0.04392,-0.01464,0.30744,0.08784,0.01464,-0.08296,-0.07808,-0.08784
-0.07808,0.10004,-0.122,-0.08296,-0.04392,-0.01708,0.3172,0.10248,0.0244,-0.08296,-0.07808,-0.08296
-0.07808,0.10004,-0.122,-0.08296,-0.04392,-0.01708,0.3172,0.10736,0.02928,-0.0732,-0.0732,-0.08296
-0.07808,0.10004,-0.122,-0.08296,-0.04392,-0.01708,0.3172,0.11224,0.03416,-0.06832,-0.0732,-0.07808
-0.06832,0.09028,-0.11224,-0.07808,-0.04392,-0.0122,0.31232,0.122,0.04392,-0.06832,-0.06832,-0.07808
-0.05856,0.08296,-0.10736,-0.07808,-0.0488,-0.00488,0.30744,0.122,0.0488,-0.06832,-0.06832,-0.07808
-0.06832,0.08784,-0.10736,-0.0732,-0.03904,-0.01464,0.30744,0.122,0.05368,-0.06344,-0.06344,-0.07808
-0.07808,0.09028,-0.10248,-0.06344,-0.0244,-0.02684,0.31232,0.12688,0.06344,-0.05856,-0.06344,-0.07808
-0.0732,0.08784,-0.10248,-0.06588,-0.02928,-0.02196,0.31232,0.12688,0.06832,-0.05856,-0.06344,-0.07808
-0.0732,0.08784,-0.10248,-0.06588,-0.02928,-0.02196,0.31232,0.13176,0.06832,-0.05856,-0.06344,-0.08296
-0.07808,0.09272,-0.10736,-0.06832,-0.02928,-0.0244,0.31232,0.13664,0.06832,-0.05368,-0.06344,-0.08296
-0.07808,0.09516,-0.11224,-0.0732,-0.03416,-0.02196,0.31232,0.14152,0.06832,-0.0488,-0.06832,-0.07808
-0.07808,0.09272,-0.10736,-0.06832,-0.02928,-0.0244,0.31232,0.14152,0.0732,-0.0488,-0.06832,-0.07808
-0.07808,0.09272,-0.10736,-0.06832,-0.02928,-0.0244,0.31232,0.14152,0.0732,-0.05368,-0.06832,-0.07808
-0.07808,0.09028,-0.10248,-0.06344,-0.0244,-0.02684,0.30744,0.15128,0.0732,-0.05368,-0.06832,-0.07808
-0.07808,0.08784,-0.0976,-0.05856,-0.01952,-0.02928,0.30256,0.15128,0.07808,-0.0488,-0.06832,-0.07808
-0.07808,0.08784,-0.0976,-0.05856,-0.01952,-0.02928,0.30256,0.15128,0.08296,-0.0488,-0.06344,-0.07808
-0.07808,0.08784,-0.0976,-0.05856,-0.01952,-0.02928,0.30256,0.15616,0.08296,-0.0488,-0.06344,-0.07808
-0.07808,0.09028,-0.10248,-0.06344,-0.0244,-0.02684,0.30256,0.15616,0.08784,-0.0488,-0.06832,-0.07808
-0.07808,0.09272,-0.10736,-0.06832,-0.02928,-0.0244,0.30256,0.16104,0.08784,-0.0488,-0.06832,-0.08296
-0.08296,0.09516,-0.10736,-0.06588,-0.0244,-0.02928,0.30256,0.16104,0.09272,-0.0488,-0.06832,-0.08296
-0.08296,0.09272,-0.10248,-0.061,-0.01952,-0.03172,0.30256,0.1708,0.09272,-0.0488,-0.06832,-0.08296
-0.07808,0.09028,-0.10248,-0.06344,-0.0244,-0.02684,0.29768,0.1708,0.0976,-0.0488,-0.06832,-0.08296
-0.07808,0.09028,-0.10248,-0.06344,-0.0244,-0.02684,0.2928,0.17568,0.10248,-0.0488,-0.06832,-0.08296
-0.07808,0.09028,-0.10248,-0.06344,-0.0244,-0.02684,0.2928,0.18544,0.10248,-0.05368,-0.06832,-0.08296
-0.07808,0.09028,-0.10248,-0.06344,-0.0244,-0.02684,0.2928,0.19032,0.10736,-0.05856,-0.06832,-0.08296
-0.08296,0.09272,-0.10248,-0.061,-0.01952,-0.03172,0.2928,0.19032,0.11712,-0.05856,-0.06832,-0.08296
-0.08296,0.09272,-0.10248,-0.061,-0.01952,-0.03172,0.2928,0.20008,0.122,-0.05856,-0.06832,-0.08296
-0.08296,0.09272,-0.10248,-0.061,-0.01952,-0.03172,0.2928,0.20008,0.12688,-0.05368,-0.0732,-0.08784
-0.08296,0.09272,-0.10248,-0.061,-0.01952,-0.03172,0.2928,0.20984,0.13176,-0.0488,-0.0732,-0.08784
-0.08784,0.09516,-0.10248,-0.05856,-0.01464,-0.0366,0.2928,0.21472,0.13664,-0.05368,-0.0732,-0.08784
-0.08784,0.0976,-0.10736,-0.06344,-0.01952,-0.03416,0.2928,0.22448,0.14152,-0.05368,-0.0732,-0.08784
-0.08784,0.10004,-0.11224,-0.06832,-0.0244,-0.03172,0.2928,0.22936,0.14152,-0.06344,-0.07808,-0.08784
-0.09272,0.10492,-0.11712,-0.07076,-0.0244,-0.03416,0.29768,0.23424,0.15128,-0.06344,-0.07808,-0.0976
-0.09272,0.10736,-0.122,-0.07564,-0.02928,-0.03172,0.30256,0.23912,0.15616,-0.06832,-0.09272,-0.10736
-0.09272,0.10736,-0.122,-0.07564,-0.02928,-0.03172,0.30744,0.24888,0.15616,-0.07808,-0.0976,-0.11224
-0.0976,0.10736,-0.11712,-0.06832,-0.01952,-0.03904,0.30744,0.25376,0.15616,-0.08296,-0.0976,-0.11712
-0.10248,0.1098,-0.11712,-0.06588,-0.01464,-0.04392,0.31232,0.25864,0.16104,-0.09272,-0.11224,-0.122
-0.10736,0.11468,-0.122,-0.06832,-0.01464,-0.04636,0.3172,0.2684,0.16592,-0.10248,-0.11712,-0.12688
-0.11712,0.11956,-0.122,-0.06344,-0.00488,-0.05612,0.3172,0.27816,0.16592,-0.10736,-0.11712,-0.12688
-0.11712,0.122,-0.12688,-0.06832,-0.00976,-0.05368,0.32208,0.28304,0.16592,-0.11224,-0.122,-0.13176
-0.122,0.12444,-0.12688,-0.06588,-0.00488,-0.05856,0.32696,0.28792,0.16104,-0.11712,-0.13176,-0.14152
-0.122,0.12444,-0.12688,-0.06588,-0.00488,-0.05856,0.32208,0.28792,0.16104,-0.122,-0.13664,-0.14152
-0.122,0.12444,-0.12688,-0.06588,-0.00488,-0.05856,0.3172,0.28792,0.16104,-0.12688,-0.14152,-0.14152
-0.122,0.12444,-0.12688,-0.06588,-0.00488,-0.05856,0.3172,0.2928,0.16104,-0.12688,-0.14152,-0.14152
-0.122,0.122,-0.122,-0.061,0,-0.061,0.3172,0.2928,0.16104,-0.12688,-0.1464,-0.14152
-0.122,0.122,-0.122,-0.061,0,-0.061,0.3172,0.2928,0.16104,-0.13176,-0.1464,-0.14152
-0.11712,0.11712,-0.11712,-0.05856,0,-0.05856,0.3172,0.2928,0.16104,-0.13176,-0.14152,-0.13664
-0.11712,0.11224,-0.10736,-0.0488,0.00976,-0.06344,0.30744,0.28792,0.16592,-0.13176,-0.13664,-0.12688
-0.11712,0.10736,-0.0976,-0.03904,0.01952,-0.06832,0.29768,0.28304,0.16592,-0.11712,-0.12688,-0.122
-0.10736,0.09516,-0.08296,-0.02928,0.0244,-0.06588,0.28304,0.2684,0.1708,-0.10736,-0.11712,-0.11224
-0.0976,0.0854,-0.0732,-0.0244,0.0244,-0.061,0.27328,0.26352,0.17568,-0.0976,-0.10248,-0.10248
-0.08784,0.0732,-0.05856,-0.01464,0.02928,-0.05856,0.26352,0.25376,0.17568,-0.08296,-0.08784,-0.08784
-0.07808,0.05856,-0.03904,0,0.03904,-0.05856,0.244,0.24888,0.17568,-0.06344,-0.06344,-0.0732
-0.05368,0.0366,-0.01952,0.00732,0.03416,-0.04392,0.2196,0.23424,0.18056,-0.04392,-0.04392,-0.05856
-0.03416,0.01708,0,0.01708,0.03416,-0.03416,0.20496,0.22448,0.18056,-0.01952,-0.02928,-0.04392
-0.02928,0.00732,0.01464,0.02928,0.04392,-0.0366,0.18544,0.20984,0.18056,-0.00488,-0.00976,-0.0244
-0.01952,-0.00244,0.0244,0.03416,0.04392,-0.03172,0.16592,0.18544,0.17568,0.01464,0.00976,-0.01464
-0.00976,-0.01464,0.03904,0.04392,0.0488,-0.02928,0.14152,0.16104,0.16592,0.02928,0.01952,-0.00488
0,-0.02928,0.05856,0.05856,0.05856,-0.02928,0.12688,0.14152,0.15616,0.03416,0.02928,0.00976
0.00488,-0.03416,0.06344,0.061,0.05856,-0.02684,0.11224,0.11712,0.1464,0.0488,0.03904,0.0244
0.01464,-0.04148,0.06832,0.061,0.05368,-0.01952,0.10248,0.09272,0.122,0.05368,0.0488,0.02928
0.01464,-0.04148,0.06832,0.061,0.05368,-0.01952,0.09272,0.07808,0.10248,0.05368,0.05368,0.03416
0.01952,-0.04392,0.06832,0.05856,0.0488,-0.01464,0.07808,0.06344,0.08296,0.05368,0.05368,0.03416
0.01952,-0.04392,0.06832,0.05856,0.0488,-0.01464,0.06832,0.0488,0.06832,0.0488,0.0488,0.03416
0.01464,-0.03904,0.06344,0.05612,0.0488,-0.01708,0.05856,0.0244,0.0488,0.03416,0.03904,0.02928
0.01952,-0.0366,0.05368,0.04392,0.03416,-0.00732,0.05368,0.01464,0.02928,0.02928,0.03904,0.02928
0.01464,-0.03172,0.0488,0.04148,0.03416,-0.00976,0.05368,0.00488,0.01952,0.0244,0.02928,0.0244
0.01464,-0.02684,0.03904,0.03172,0.0244,-0.00488,0.0488,-0.00488,0.00976,0.01952,0.0244,0.01952
0.01464,-0.0244,0.03416,0.02684,0.01952,-0.00244,0.04392,-0.01464,-0.00488,0.01464,0.0244,0.01952
0.00976,-0.01952,0.02928,0.0244,0.01952,-0.00488,0.04392,-0.01464,-0.00976,0.01464,0.0244,0.01952
0.00488,-0.01464,0.0244,0.02196,0.01952,-0.00732,0.0488,-0.01952,-0.01464,0.00976,0.01952,0.01464
0.00488,-0.01464,0.0244,0.02196,0.01952,-0.00732,0.0488,-0.01952,-0.01952,0,0.00976,0.01464
0.00488,-0.0122,0.01952,0.01708,0.01464,-0.00488,0.0488,-0.01952,-0.01952,0,0.00488,0.00976
0.00488,-0.00976,0.01464,0.0122,0.00976,-0.00244,0.0488,-0.01952,-0.0244,0,0.00488,0.00976
0.00488,-0.00976,0.01464,0.0122,0.00976,-0.00244,0.0488,-0.01464,-0.0244,0,0.00488,0.00976
-0.00488,-0.00244,0.00976,0.0122,0.01464,-0.00976,0.0488,-0.01464,-0.0244,0,0.00488,0.00488
-0.00976,0,0.00976,0.01464,0.01952,-0.01464,0.0488,-0.01952,-0.0244,-0.00488,0.00976,0.00488
-0.00976,0,0.00976,0.01464,0.01952,-0.01464,0.0488,-0.01952,-0.02928,-0.00488,0.00976,0.00488
-0.00976,0,0.00976,0.01464,0.01952,-0.01464,0.0488,-0.01464,-0.02928,-0.00488,0.00488,0.00488
-0.00976,0,0.00976,0.01464,0.01952,-0.01464,0.0488,-0.01464,-0.0244,-0.00976,0,0
-0.00976,0,0.00976,0.01464,0.01952,-0.01464,0.0488,-0.00976,-0.0244,-0.00976,-0.00488,-0.00976
-0.00976,0,0.00976,0.01464,0.01952,-0.01464,0.0488,-0.00976,-0.0244,-0.00976,-0.00488,-0.00976
-0.00976,0,0.00976,0.01464,0.01952,-0.01464,0.0488,-0.00976,-0.0244,-0.00976,-0.00488,-0.00976
-0.00976,0.00244,0.00488,0.00976,0.01464,-0.0122,0.05368,-0.00976,-0.0244,-0.00976,-0.00488,-0.00976
-0.00976,0.00488,0,0.00488,0.00976,-0.00976,0.05856,-0.00488,-0.0244,-0.00976,-0.00976,-0.01464
-0.00976,0.00488,0,0.00488,0.00976,-0.00976,0.05368,-0.00488,-0.0244,-0.00976,-0.00976,-0.01464
-0.01464,0.00732,0,0.00732,0.01464,-0.01464,0.0488,-0.00488,-0.01952,-0.00976,-0.00976,-0.00976
-0.01952,0.00976,0,0.00976,0.01952,-0.01952,0.05368,0,-0.01952,-0.01464,-0.00488,-0.00976
-0.01952,0.00976,0,0.00976,0.01952,-0.01952,0.05368,0.00488,-0.01464,-0.01464,0,-0.01464
-0.01464,0.00976,-0.00488,0.00244,0.00976,-0.0122,0.05856,0.00488,-0.01464,-0.01464,-0.00488,-0.01464
-0.01464,0.0122,-0.00976,-0.00244,0.00488,-0.00976,0.06344,0.00488,-0.00976,-0.01952,-0.00976,-0.01952
-0.01952,0.01708,-0.01464,-0.00488,0.00488,-0.0122,0.06344,0.00976,-0.00976,-0.01952,-0.00976,-0.01464
-0.0244,0.01952,-0.01464,-0.00244,0.00976,-0.01708,0.06344,0.01464,-0.00976,-0.01952,-0.00976,-0.01464
-0.02928,0.02196,-0.01464,0,0.01464,-0.02196,0.06344,0.01464,-0.00976,-0.01952,-0.00976,-0.01464
-0.02928,0.02196,-0.01464,0,0.01464,-0.02196,0.06832,0.01464,-0.00976,-0.01952,-0.00976,-0.01464
-0.0244,0.02196,-0.01952,-0.00732,0.00488,-0.01464,0.06344,0.01464,-0.00488,-0.01952,-0.00976,-0.0244
-0.0244,0.02196,-0.01952,-0.00732,0.00488,-0.01464,0.06344,0.01952,-0.00488,-0.01952,-0.00976,-0.02928
-0.0244,0.02196,-0.01952,-0.00732,0.00488,-0.01464,0.06344,0.0244,-0.00488,-0.01952,-0.01464,-0.02928
-0.02928,0.0244,-0.01952,-0.00488,0.00976,-0.01952,0.06832,0.02928,0,-0.01952,-0.01464,-0.02928
-0.02928,0.02684,-0.0244,-0.00976,0.00488,-0.01708,0.0732,0.02928,0.00488,-0.01952,-0.01464,-0.02928
-0.02928,0.02684,-0.0244,-0.00976,0.00488,-0.01708,0.0732,0.02928,0.00976,-0.0244,-0.01464,-0.03416
-0.03416,0.03172,-0.02928,-0.0122,0.00488,-0.01952,0.07808,0.02928,0.00976,-0.0244,-0.01464,-0.02928
-0.04392,0.0366,-0.02928,-0.00732,0.01464,-0.02928,0.08296,0.02928,0.00976,-0.0244,-0.01464,-0.0244
-0.04392,0.03904,-0.03416,-0.0122,0.00976,-0.02684,0.08296,0.02928,0.00976,-0.0244,-0.01464,-0.0244
-0.04392,0.03904,-0.03416,-0.0122,0.00976,-0.02684,0.08296,0.02928,0.00488,-0.0244,-0.0244,-0.03416
-0.03904,0.0366,-0.03416,-0.01464,0.00488,-0.02196,0.07808,0.02928,0.00488,-0.0244,-0.0244,-0.03416
-0.03904,0.0366,-0.03416,-0.01464,0.00488,-0.02196,0.0732,0.0244,0.00488,-0.02928,-0.0244,-0.02928
-0.04392,0.03904,-0.03416,-0.0122,0.00976,-0.02684,0.0732,0.0244,0.00488,-0.02928,-0.0244,-0.02928
-0.04392,0.04148,-0.03904,-0.01708,0.00488,-0.0244,0.0732,0.0244,0.00488,-0.02928,-0.0244,-0.03416
-0.03904,0.0366,-0.03416,-0.01464,0.00488,-0.02196,0.0732,0.0244,0,-0.02928,-0.0244,-0.03416
-0.03416,0.03172,-0.02928,-0.0122,0.00488,-0.01952,0.0732,0.01952,0,-0.03416,-0.02928,-0.03904
-0.03416,0.03416,-0.03416,-0.01708,0,-0.01708,0.0732,0.01952,0,-0.03416,-0.02928,-0.03904
-0.03416,0.03416,-0.03416,-0.01708,0,-0.01708,0.0732,0.01952,-0.00488,-0.03416,-0.02928,-0.03416
-0.03416,0.03416,-0.03416,-0.01708,0,-0.01708,0.0732,0.01952,-0.00488,-0.03416,-0.02928,-0.03416
-0.03904,0.03904,-0.03904,-0.01952,0,-0.01952,0.0732,0.01952,-0.00488,-0.03416,-0.03416,-0.03416
-0.03904,0.04148,-0.04392,-0.0244,-0.00488,-0.01708,0.0732,0.01952,-0.00976,-0.03416,-0.03416,-0.03416
-0.03904,0.04148,-0.04392,-0.0244,-0.00488,-0.01708,0.0732,0.00976,-0.01464,-0.03416,-0.03416,-0.03416
-0.03416,0.03904,-0.04392,-0.02684,-0.00976,-0.0122,0.06832,0.00976,-0.01464,-0.03904,-0.03416,-0.03416
-0.03416,0.0366,-0.03904,-0.02196,-0.00488,-0.01464,0.06832,0.00488,-0.01952,-0.03904,-0.03416,-0.03416
-0.03904,0.0366,-0.03416,-0.01464,0.00488,-0.02196,0.06344,0.00488,-0.01952,-0.03904,-0.03904,-0.03416
-0.03904,0.0366,-0.03416,-0.01464,0.00488,-0.02196,0.06344,0.00488,-0.01952,-0.03904,-0.03904,-0.03416
-0.03904,0.03904,-0.03904,-0.01952,0,-0.01952,0.06344,0.00488,-0.0244,-0.03904,-0.04392,-0.03904
-0.03904,0.03904,-0.03904,-0.01952,0,-0.01952,0.06344,0,-0.0244,-0.04392,-0.0488,-0.03904
-0.0488,0.04392,-0.03904,-0.01464,0.00976,-0.02928,0.06344,0,-0.02928,-0.03904,-0.04392,-0.03904
-0.0488,0.04148,-0.03416,-0.00976,0.01464,-0.03172,0.06344,0,-0.02928,-0.03416,-0.04392,-0.03904
-0.03904,0.03904,-0.03904,-0.01952,0,-0.01952,0.06344,0,-0.02928,-0.03416,-0.0488,-0.03904
-0.03416,0.03172,-0.02928,-0.0122,0.00488,-0.01952,0.06832,0,-0.0244,-0.02928,-0.04392,-0.03416
-0.0244,0.01952,-0.01464,-0.00244,0.00976,-0.01708,0.0732,0.00488,-0.00976,-0.01952,-0.02928,-0.01952
-0.01952,0.00976,0,0.00976,0.01952,-0.01952,0.07808,0.00976,0,-0.00976,-0.01952,-0.00976
-0.01952,0.00488,0.00976,0.01952,0.02928,-0.0244,0.07808,0.01952,0,-0.00976,-0.01464,-0.00976
-0.01952,0,0.01952,0.02928,0.03904,-0.02928,0.07808,0.02928,0,-0.00976,-0.00976,-0.00976
-0.01464,-0.00488,0.0244,0.03172,0.03904,-0.02684,0.08296,0.02928,0,-0.00976,-0.00976,-0.00976
-0.00976,-0.00976,0.02928,0.03416,0.03904,-0.0244,0.08296,0.02928,0,-0.00488,-0.00488,-0.00488
-0.00976,-0.01464,0.03904,0.04392,0.0488,-0.02928,0.08296,0.02928,0.00488,-0.00488,-0.00488,-0.00488
-0.00976,-0.01952,0.0488,0.05368,0.05856,-0.03416,0.08296,0.02928,0.00976,0,0,0
-0.01952,-0.02196,0.06344,0.0732,0.08296,-0.05124,0.07808,0.0244,0.00976,0.00976,0.00488,0.00488
-0.0244,-0.0244,0.0732,0.0854,0.0976,-0.061,0.05856,0.00976,0.00976,0.01464,0.01952,0.01952
-0.01952,-0.0366,0.09272,0.10248,0.11224,-0.06588,0.0244,-0.0244,0,0.01464,0.01952,0.0244
-0.00976,-0.0366,0.08296,0.08784,0.09272,-0.05124,0.01464,-0.02928,-0.00976,0.00976,0.01464,0.0244
0,-0.04148,0.08296,0.08296,0.08296,-0.04148,-0.00488,-0.03904,-0.01952,0.00976,0.01464,0.01464
0.01952,-0.05612,0.09272,0.08296,0.0732,-0.02684,-0.01952,-0.0488,-0.01952,0.00976,0.01464,0.0244
0.0244,-0.07076,0.11712,0.10492,0.09272,-0.03416,-0.02928,-0.05856,-0.01952,0.01464,0.01952,0.03416
0.0244,-0.0732,0.122,0.1098,0.0976,-0.0366,-0.03904,-0.06344,-0.02928,0.01464,0.0244,0.03904
0.02928,-0.07808,0.12688,0.11224,0.0976,-0.03416,-0.03904,-0.06344,-0.02928,0.01952,0.0244,0.03904
0.02928,-0.07808,0.12688,0.11224,0.0976,-0.03416,-0.03416,-0.06344,-0.02928,0.01952,0.0244,0.03904
0.02928,-0.07564,0.122,0.10736,0.09272,-0.03172,-0.03416,-0.06344,-0.03416,0.01464,0.0244,0.03904
0.0244,-0.07076,0.11712,0.10492,0.09272,-0.03416,-0.02928,-0.06344,-0.03416,0.01464,0.0244,0.03904
0.01952,-0.061,0.10248,0.09272,0.08296,-0.03172,-0.02928,-0.06344,-0.03904,0.01464,0.01952,0.03416
0.01952,-0.05612,0.09272,0.08296,0.0732,-0.02684,-0.03416,-0.0732,-0.05368,0,0.00976,0.0244
0.01952,-0.05612,0.09272,0.08296,0.0732,-0.02684,-0.03416,-0.0732,-0.05856,0,0.00488,0.0244
0.01464,-0.0488,0.08296,0.07564,0.06832,-0.02684,-0.03416,-0.06832,-0.05856,0,0.00488,0.01952
0.00976,-0.03904,0.06832,0.06344,0.05856,-0.0244,-0.03416,-0.06344,-0.05856,-0.00976,0.00488,0.01464
0.00488,-0.02684,0.0488,0.04636,0.04392,-0.01952,-0.02928,-0.05368,-0.06344,-0.01952,-0.00976,0
-0.00488,-0.00488,0.01464,0.01708,0.01952,-0.0122,-0.00488,-0.04392,-0.06344,-0.02928,-0.01952,-0.00976
-0.01464,0.00732,0,0.00732,0.01464,-0.01464,0,-0.03904,-0.06344,-0.03416,-0.02928,-0.01952
-0.01952,0.02684,-0.03416,-0.0244,-0.01464,-0.00244,0.00488,-0.03904,-0.0732,-0.0488,-0.0488,-0.03904
-0.02928,0.04392,-0.05856,-0.04392,-0.02928,0,0.01464,-0.03904,-0.08296,-0.06344,-0.06344,-0.05368
-0.03416,0.0488,-0.06344,-0.04636,-0.02928,-0.00244,0.01464,-0.03904,-0.08296,-0.06832,-0.06344,-0.05368
-0.03904,0.05124,-0.06344,-0.04392,-0.0244,-0.00732,0.01952,-0.03904,-0.08296,-0.06832,-0.06344,-0.05368
-0.04392,0.05368,-0.06344,-0.04148,-0.01952,-0.0122,0.01952,-0.03904,-0.07808,-0.06832,-0.06344,-0.05368
-0.05368,0.061,-0.06832,-0.04148,-0.01464,-0.01952,0.01952,-0.04392,-0.07808,-0.0732,-0.06832,-0.05856
-0.05368,0.06588,-0.07808,-0.05124,-0.0244,-0.01464,0.01952,-0.04392,-0.07808,-0.07808,-0.06832,-0.06344
-0.05368,0.07076,-0.08784,-0.061,-0.03416,-0.00976,0.02928,-0.03904,-0.07808,-0.08784,-0.06832,-0.06344
-0.05368,0.07076,-0.08784,-0.061,-0.03416,-0.00976,0.02928,-0.03416,-0.07808,-0.08784,-0.06832,-0.06344
-0.05368,0.07076,-0.08784,-0.061,-0.03416,-0.00976,0.02928,-0.03416,-0.07808,-0.08784,-0.0732,-0.06344
-0.0488,0.06832,-0.08784,-0.06344,-0.03904,-0.00488,0.03416,-0.03416,-0.08296,-0.08784,-0.0732,-0.06832
-0.04392,0.06588,-0.08784,-0.06588,-0.04392,0,0.03416,-0.02928,-0.08296,-0.08784,-0.0732,-0.06832
-0.04392,0.06588,-0.08784,-0.06588,-0.04392,0,0.03904,-0.0244,-0.08296,-0.08784,-0.0732,-0.06832
-0.04392,0.06588,-0.08784,-0.06588,-0.04392,0,0.03904,-0.01952,-0.08296,-0.08784,-0.0732,-0.06832
-0.05368,0.0732,-0.09272,-0.06588,-0.03904,-0.00732,0.03904,-0.01952,-0.08296,-0.08784,-0.06832,-0.06832
-0.06344,0.08052,-0.0976,-0.06588,-0.03416,-0.01464,0.03904,-0.01952,-0.08296,-0.08296,-0.06832,-0.06832
-0.05368,0.0732,-0.09272,-0.06588,-0.03904,-0.00732,0.04392,-0.01952,-0.07808,-0.08296,-0.06832,-0.06832
-0.05368,0.0732,-0.09272,-0.06588,-0.03904,-0.00732,0.04392,-0.01952,-0.07808,-0.08296,-0.06832,-0.06832
-0.0732,0.08052,-0.08784,-0.05124,-0.01464,-0.02928,0.05856,0,-0.06344,-0.07808,-0.06832,-0.06344
-0.08296,0.0732,-0.06344,-0.02196,0.01952,-0.05124,0.0732,0.00976,-0.03904,-0.05856,-0.05856,-0.05856
-0.08296,0.04636,-0.00976,0.03172,0.0732,-0.07808,0.05856,0,-0.01952,-0.00976,-0.00488,-0.00488
-0.03904,-0.01952,0.07808,0.0976,0.11712,-0.07808,-0.00976,-0.04392,0.0244,0.10248,0.09272,0.07808
0.06344,-0.13176,0.20008,0.16836,0.13664,-0.0366,-0.1708,-0.21472,0.00976,0.24888,0.22936,0.19032
0.18056,-0.26352,0.34648,0.2562,0.16592,0.00732,-0.37088,-0.45384,-0.09272,0.3904,0.366,0.3172
0.33672,-0.42212,0.50752,0.33916,0.1708,0.08296,-0.57096,-0.6588,-0.16104,0.55632,0.52704,0.4636
0.57096,-0.5978,0.62464,0.33916,0.05368,0.25864,-0.81984,-0.84912,-0.18056,0.732,0.6832,0.60512
0.81496,-0.8174,0.81984,0.41236,0.00488,0.40504,-1.11264,-1.08336,-0.16592,0.98088,0.92232,0.7808
1.0248,-1.06384,1.10288,0.59048,0.07808,0.47336,-1.42496,-1.3908,-0.20496,1.25904,1.1956,1.01992
1.19072,-1.281,1.37128,0.77592,0.18056,0.50508,-1.68848,-1.62992,-0.2196,1.48352,1.42008,1.22976
1.21512,-1.30052,1.38592,0.77836,0.1708,0.52216,-1.7324,-1.74216,-0.44896,1.29808,1.30784,1.18584
1.03456,-1.0614,1.08824,0.57096,0.05368,0.49044,-1.60552,-1.7812,-0.8296,0.66856,0.8052,0.83936
0.74664,-0.63928,0.53192,0.1586,-0.21472,0.48068,-1.28344,-1.62504,-1.20048,-0.05856,0.16592,0.32696
0.49288,-0.25864,0.0244,-0.22204,-0.46848,0.48068,-0.9028,-1.35176,-1.32736,-0.56608,-0.30256,-0.08784
0.35136,-0.05856,-0.23424,-0.40992,-0.5856,0.46848,-0.7076,-1.14192,-1.18096,-0.65392,-0.43432,-0.25864
0.22936,0.01708,-0.26352,-0.3782,-0.49288,0.36112,-0.54656,-0.93208,-0.96136,-0.57096,-0.40504,-0.25376
0.08296,0.03416,-0.15128,-0.19276,-0.23424,0.1586,-0.33672,-0.6344,-0.62464,-0.366,-0.24888,-0.1464
0.00976,0.05368,-0.11712,-0.122,-0.12688,0.06832,-0.20008,-0.4148,-0.4148,-0.244,-0.17568,-0.10736
-0.06344,0.07564,-0.08784,-0.05612,-0.0244,-0.01952,-0.09272,-0.26352,-0.27328,-0.17568,-0.13176,-0.07808
-0.07808,0.09028,-0.10248,-0.06344,-0.0244,-0.02684,0,-0.122,-0.1464,-0.122,-0.11224,-0.08296
-0.07808,0.09516,-0.11224,-0.0732,-0.03416,-0.02196,0.06344,-0.00488,-0.05368,-0.08784,-0.0976,-0.08296
-0.0732,0.08784,-0.10248,-0.06588,-0.02928,-0.02196,0.09272,0.05368,-0.00976,-0.0732,-0.08296,-0.07808
-0.07808,0.09272,-0.10736,-0.06832,-0.02928,-0.0244,0.10736,0.06832,-0.00488,-0.07808,-0.08296,-0.08296
-0.06832,0.08784,-0.10736,-0.0732,-0.03904,-0.01464,0.11712,0.07808,0.00488,-0.07808,-0.08296,-0.08296
-0.06344,0.0854,-0.10736,-0.07564,-0.04392,-0.00976,0.122,0.08784,0.01464,-0.0732,-0.07808,-0.08296
-0.06832,0.09028,-0.11224,-0.07808,-0.04392,-0.0122,0.13176,0.10248,0.0244,-0.07808,-0.07808,-0.08296
-0.06832,0.09028,-0.11224,-0.07808,-0.04392,-0.0122,0.13176,0.11224,0.03416,-0.0732,-0.0732,-0.08296
-0.06832,0.09028,-0.11224,-0.07808,-0.04392,-0.0122,0.13176,0.122,0.04392,-0.06832,-0.0732,-0.07808
-0.06832,0.08784,-0.10736,-0.0732,-0.03904,-0.01464,0.13664,0.13176,0.05368,-0.06832,-0.06832,-0.07808
-0.06832,0.08784,-0.10736,-0.0732,-0.03904,-0.01464,0.14152,0.13176,0.05856,-0.06832,-0.06832,-0.07808
-0.06832,0.08784,-0.10736,-0.0732,-0.03904,-0.01464,0.14152,0.13176,0.05856,-0.06344,-0.06344,-0.07808
-0.06832,0.0854,-0.10248,-0.06832,-0.03416,-0.01708,0.1464,0.13664,0.06344,-0.05856,-0.06344,-0.07808
-0.06344,0.08296,-0.10248,-0.07076,-0.03904,-0.0122,0.1464,0.13664,0.06832,-0.05856,-0.06344,-0.0732
-0.06832,0.0854,-0.10248,-0.06832,-0.03416,-0.01708,0.1464,0.14152,0.06832,-0.05856,-0.06344,-0.0732
-0.07808,0.09028,-0.10248,-0.06344,-0.0244,-0.02684,0.1464,0.1464,0.0732,-0.05368,-0.05856,-0.0732
-0.07808,0.09028,-0.10248,-0.06344,-0.0244,-0.02684,0.1464,0.15128,0.07808,-0.04392,-0.06344,-0.06832
-0.07808,0.08784,-0.0976,-0.05856,-0.01952,-0.02928,0.1464,0.15128,0.08296,-0.03904,-0.06832,-0.06832
-0.07808,0.08784,-0.0976,-0.05856,-0.01952,-0.02928,0.1464,0.15128,0.08296,-0.04392,-0.06832,-0.0732
-0.07808,0.08784,-0.0976,-0.05856,-0.01952,-0.02928,0.1464,0.16104,0.08296,-0.04392,-0.06832,-0.07808
-0.07808,0.08784,-0.0976,-0.05856,-0.01952,-0.02928,0.1464,0.16104,0.08784,-0.03904,-0.06832,-0.07808
-0.07808,0.08784,-0.0976,-0.05856,-0.01952,-0.02928,0.1464,0.16104,0.09272,-0.03904,-0.06344,-0.07808
-0.07808,0.09028,-0.10248,-0.06344,-0.0244,-0.02684,0.1464,0.16592,0.09272,-0.03904,-0.05856,-0.0732
-0.07808,0.09272,-0.10736,-0.06832,-0.02928,-0.0244,0.1464,0.16592,0.0976,-0.03904,-0.05856,-0.06832
-0.07808,0.09272,-0.10736,-0.06832,-0.02928,-0.0244,0.1464,0.1708,0.0976,-0.03904,-0.05856,-0.0732
-0.08296,0.09516,-0.10736,-0.06588,-0.0244,-0.02928,0.1464,0.1708,0.10248,-0.03904,-0.05856,-0.0732
-0.08296,0.09272,-0.10248,-0.061,-0.01952,-0.03172,0.15128,0.18056,0.10248,-0.03904,-0.05856,-0.0732
-0.07808,0.09028,-0.10248,-0.06344,-0.0244,-0.02684,0.15616,0.18056,0.10736,-0.03904,-0.05856,-0.0732
-0.07808,0.09028,-0.10248,-0.06344,-0.0244,-0.02684,0.15616,0.18544,0.11224,-0.03904,-0.05856,-0.07808
-0.07808,0.09028,-0.10248,-0.06344,-0.0244,-0.02684,0.15616,0.1952,0.11224,-0.03904,-0.05856,-0.08296
-0.07808,0.09028,-0.10248,-0.06344,-0.0244,-0.02684,0.15616,0.20008,0.11712,-0.04392,-0.05856,-0.08296
-0.08296,0.09272,-0.10248,-0.061,-0.01952,-0.03172,0.16104,0.20008,0.12688,-0.0488,-0.05856,-0.08296
-0.08296,0.09272,-0.10248,-0.061,-0.01952,-0.03172,0.16592,0.20984,0.13176,-0.0488,-0.05856,-0.08296
-0.08296,0.09272,-0.10248,-0.061,-0.01952,-0.03172,0.16592,0.20984,0.13176,-0.0488,-0.06344,-0.08784
-0.08296,0.09272,-0.10248,-0.061,-0.01952,-0.03172,0.16592,0.2196,0.13176,-0.0488,-0.06832,-0.08784
-0.08784,0.09516,-0.10248,-0.05856,-0.01464,-0.0366,0.1708,0.22448,0.13664,-0.05368,-0.0732,-0.08784
-0.08784,0.0976,-0.10736,-0.06344,-0.01952,-0.03416,0.17568,0.23424,0.14152,-0.05368,-0.0732,-0.08784
-0.08784,0.0976,-0.10736,-0.06344,-0.01952,-0.03416,0.17568,0.23912,0.14152,-0.06344,-0.07808,-0.08784
-0.09272,0.10004,-0.10736,-0.061,-0.01464,-0.03904,0.18056,0.244,0.15128,-0.06832,-0.07808,-0.09272
-0.09272,0.10248,-0.11224,-0.06588,-0.01952,-0.0366,0.18544,0.24888,0.15616,-0.0732,-0.08784,-0.09272
-0.09272,0.10248,-0.11224,-0.06588,-0.01952,-0.0366,0.19032,0.25864,0.15616,-0.07808,-0.08784,-0.09272
-0.0976,0.10248,-0.10736,-0.05856,-0.00976,-0.04392,0.19032,0.26352,0.15616,-0.07808,-0.08784,-0.0976
-0.10248,0.10492,-0.10736,-0.05612,-0.00488,-0.0488,0.1952,0.2684,0.16104,-0.07808,-0.10248,-0.10248
-0.10736,0.1098,-0.11224,-0.05856,-0.00488,-0.05124,0.20008,0.27816,0.16592,-0.08296,-0.10736,-0.10736
-0.11712,0.11468,-0.11224,-0.05368,0.00488,-0.061,0.20008,0.28792,0.16592,-0.08784,-0.10736,-0.10736
-0.11712,0.11712,-0.11712,-0.05856,0,-0.05856,0.20984,0.2928,0.1708,-0.09272,-0.11224,-0.11224
-0.122,0.11956,-0.11712,-0.05612,0.00488,-0.06344,0.2196,0.29768,0.16592,-0.0976,-0.122,-0.122
-0.122,0.11956,-0.11712,-0.05612,0.00488,-0.06344,0.2196,0.29768,0.16104,-0.10248,-0.122,-0.122
-0.122,0.11956,-0.11712,-0.05612,0.00488,-0.06344,0.2196,0.29768,0.16104,-0.11224,-0.122,-0.122
-0.122,0.11956,-0.11712,-0.05612,0.00488,-0.06344,0.2196,0.30256,0.16104,-0.11712,-0.122,-0.122
-0.122,0.11712,-0.11224,-0.05124,0.00976,-0.06588,0.2196,0.30256,0.16592,-0.11712,-0.12688,-0.122
-0.122,0.11468,-0.10736,-0.04636,0.01464,-0.06832,0.2196,0.30256,0.1708,-0.11712,-0.12688,-0.122
-0.11712,0.10736,-0.0976,-0.03904,0.01952,-0.06832,0.2196,0.30256,0.1708,-0.11224,-0.122,-0.11712
-0.11224,0.10004,-0.08784,-0.03172,0.0244,-0.06832,0.20984,0.29768,0.17568,-0.11224,-0.11712,-0.10736
-0.10736,0.09028,-0.0732,-0.01952,0.03416,-0.07076,0.20008,0.29768,0.17568,-0.0976,-0.10736,-0.10248
-0.0976,0.07564,-0.05368,-0.00488,0.04392,-0.07076,0.19032,0.28792,0.18056,-0.08784,-0.0976,-0.09272
-0.08784,0.06588,-0.04392,0,0.04392,-0.06588,0.18544,0.28304,0.18544,-0.07808,-0.08296,-0.08296
-0.07808,0.05368,-0.02928,0.00976,0.0488,-0.06344,0.17568,0.27328,0.19032,-0.06344,-0.0732,-0.06832
-0.06832,0.03904,-0.00976,0.0244,0.05856,-0.06344,0.15616,0.26352,0.19032,-0.03904,-0.05368,-0.05368
-0.04392,0.01708,0.00976,0.03172,0.05368,-0.0488,0.13664,0.244,0.19032,-0.01952,-0.03416,-0.03904
-0.01952,-0.00488,0.02928,0.03904,0.0488,-0.03416,0.122,0.22936,0.19032,0,-0.01952,-0.0244
-0.00976,-0.01708,0.04392,0.0488,0.05368,-0.03172,0.0976,0.20984,0.19032,0.01464,0,-0.00488
0,-0.02684,0.05368,0.05368,0.05368,-0.02684,0.07808,0.18544,0.18544,0.03416,0.01952,0.00488
0.00976,-0.0366,0.06344,0.05856,0.05368,-0.02196,0.05856,0.16104,0.17568,0.0488,0.02928,0.01464
0.01464,-0.04636,0.07808,0.07076,0.06344,-0.0244,0.0488,0.14152,0.16592,0.05368,0.03904,0.02928
0.01464,-0.04636,0.07808,0.07076,0.06344,-0.0244,0.03416,0.11712,0.15616,0.06344,0.04392,0.03904
0.0244,-0.0488,0.0732,0.061,0.0488,-0.0122,0.0244,0.09272,0.13176,0.06344,0.0488,0.03904
0.0244,-0.04636,0.06832,0.05612,0.04392,-0.00976,0.01464,0.0732,0.11224,0.06344,0.05368,0.04392
0.02928,-0.0488,0.06832,0.05368,0.03904,-0.00488,0,0.05368,0.09272,0.06344,0.05368,0.04392
0.02928,-0.0488,0.06832,0.05368,0.03904,-0.00488,-0.00976,0.03904,0.0732,0.05856,0.0488,0.04392
0.0244,-0.04636,0.06832,0.05612,0.04392,-0.00976,-0.01952,0.01464,0.0488,0.04392,0.03904,0.03904
0.0244,-0.04392,0.06344,0.05124,0.03904,-0.00732,-0.01952,0.00488,0.02928,0.03904,0.03904,0.03904
0.01464,-0.0366,0.05856,0.05124,0.04392,-0.01464,-0.01464,-0.00488,0.01952,0.03416,0.02928,0.03416
0.01464,-0.03172,0.0488,0.04148,0.03416,-0.00976,-0.01464,-0.00976,0.00976,0.0244,0.01952,0.0244
0.01464,-0.02928,0.04392,0.0366,0.02928,-0.00732,-0.01464,-0.01464,-0.00488,0.01464,0.01464,0.01952
0.00976,-0.0244,0.03904,0.03416,0.02928,-0.00976,-0.01464,-0.01464,-0.00976,0.01464,0.01464,0.01952
0.00488,-0.01708,0.02928,0.02684,0.0244,-0.00976,-0.00976,-0.01952,-0.01464,0.00976,0.00976,0.01464
0.00488,-0.01464,0.0244,0.02196,0.01952,-0.00732,-0.00976,-0.01952,-0.01952,0,0.00488,0.01464
0.00488,-0.0122,0.01952,0.01708,0.01464,-0.00488,-0.00976,-0.01952,-0.01952,0,0.00488,0.00976
0.00488,-0.00976,0.01464,0.0122,0.00976,-0.00244,-0.00976,-0.0244,-0.0244,0,0.00488,0.00976
0.00488,-0.00976,0.01464,0.0122,0.00976,-0.00244,-0.00976,-0.0244,-0.0244,0,0.00488,0.00976
0,-0.00488,0.00976,0.00976,0.00976,-0.00488,-0.00976,-0.0244,-0.0244,0,0,0.00488
0,-0.00488,0.00976,0.00976,0.00976,-0.00488,-0.00976,-0.02928,-0.01952,-0.00488,0,0.00488
0,-0.00488,0.00976,0.00976,0.00976,-0.00488,-0.00976,-0.02928,-0.01952,-0.00488,0,0.00488
0,-0.00488,0.00976,0.00976,0.00976,-0.00488,-0.00976,-0.0244,-0.01952,-0.00488,-0.00488,0.00488
0,-0.00488,0.00976,0.00976,0.00976,-0.00488,-0.00976,-0.0244,-0.01464,-0.00976,-0.00488,0.00488
0,-0.00488,0.00976,0.00976,0.00976,-0.00488,-0.00976,-0.01952,-0.01464,-0.00976,-0.00488,0
0,-0.00488,0.00976,0.00976,0.00976,-0.00488,-0.00976,-0.01952,-0.01464,-0.00976,-0.00488,0
0.00488,-0.00976,0.01464,0.0122,0.00976,-0.00244,-0.00976,-0.01952,-0.01464,-0.00976,-0.00488,0
0.00976,-0.0122,0.01464,0.00976,0.00488,0.00244,-0.00488,-0.01952,-0.01464,-0.00976,-0.00488,0
0.00976,-0.00976,0.00976,0.00488,0,0.00488,0,-0.01464,-0.01464,-0.00976,-0.00976,-0.00488
0.00976,-0.00976,0.00976,0.00488,0,0.00488,0,-0.01464,-0.01464,-0.00976,-0.00976,-0.00488
0,-0.00488,0.00976,0.00976,0.00976,-0.00488,0,-0.01464,-0.00976,-0.00976,-0.00976,0
-0.00976,0,0.00976,0.01464,0.01952,-0.01464,0.00488,-0.00976,-0.00976,-0.01464,-0.00976,0
-0.00976,0,0.00976,0.01464,0.01952,-0.01464,0.00488,-0.00488,-0.00976,-0.01464,-0.00976,-0.00488
-0.00488,0,0.00488,0.00732,0.00976,-0.00732,0.00976,-0.00488,-0.01464,-0.01464,-0.01464,-0.00488
-0.00488,0.00244,0,0.00244,0.00488,-0.00488,0.01464,-0.00488,-0.00976,-0.01952,-0.01952,-0.00976
-0.00976,0.00732,-0.00488,0,0.00488,-0.00732,0.01464,0,-0.00976,-0.01952,-0.01952,-0.00976
-0.00976,0.00732,-0.00488,0,0.00488,-0.00732,0.01464,0.00488,-0.00976,-0.01952,-0.01952,-0.01464
-0.00976,0.00732,-0.00488,0,0.00488,-0.00732,0.01464,0.00488,-0.00976,-0.01952,-0.01952,-0.01464
-0.00976,0.00732,-0.00488,0,0.00488,-0.00732,0.01952,0.00488,-0.00976,-0.01952,-0.01952,-0.01464
-0.00976,0.00976,-0.00976,-0.00488,0,-0.00488,0.01952,0.00488,-0.00488,-0.01952,-0.01952,-0.01952
-0.01464,0.0122,-0.00976,-0.00244,0.00488,-0.00976,0.0244,0.00976,0,-0.01952,-0.01952,-0.01952
-0.01464,0.0122,-0.00976,-0.00244,0.00488,-0.00976,0.0244,0.01464,0.00488,-0.01952,-0.0244,-0.01952
-0.01952,0.0122,-0.00488,0.00488,0.01464,-0.01708,0.0244,0.01952,0.00976,-0.01952,-0.0244,-0.01952
-0.01952,0.0122,-0.00488,0.00488,0.01464,-0.01708,0.0244,0.01952,0.00976,-0.01952,-0.0244,-0.01952
-0.01952,0.0122,-0.00488,0.00488,0.01464,-0.01708,0.0244,0.01952,0.00976,-0.0244,-0.0244,-0.0244
-0.01952,0.01464,-0.00976,0,0.00976,-0.01464,0.0244,0.01952,0.00976,-0.0244,-0.0244,-0.0244
-0.0244,0.01708,-0.00976,0.00244,0.01464,-0.01952,0.02928,0.01952,0.00976,-0.0244,-0.0244,-0.0244
-0.0244,0.01952,-0.01464,-0.00244,0.00976,-0.01708,0.03416,0.01952,0.00976,-0.0244,-0.0244,-0.0244
-0.0244,0.02196,-0.01952,-0.00732,0.00488,-0.01464,0.03416,0.0244,0.00488,-0.0244,-0.03416,-0.03416
-0.01952,0.02196,-0.0244,-0.01464,-0.00488,-0.00732,0.03416,0.02928,0.00488,-0.0244,-0.03416,-0.03416
-0.01952,0.02196,-0.0244,-0.01464,-0.00488,-0.00732,0.02928,0.0244,0.00488,-0.02928,-0.03416,-0.02928
-0.0244,0.0244,-0.0244,-0.0122,0,-0.0122,0.0244,0.0244,0.00488,-0.02928,-0.03416,-0.02928
-0.0244,0.0244,-0.0244,-0.0122,0,-0.0122,0.0244,0.0244,0.00488,-0.02928,-0.03416,-0.03416
-0.0244,0.02196,-0.01952,-0.00732,0.00488,-0.01464,0.0244,0.0244,0,-0.02928,-0.03416,-0.03416
-0.0244,0.02196,-0.01952,-0.00732,0.00488,-0.01464,0.0244,0.01952,0,-0.03416,-0.03904,-0.03904
-0.0244,0.0244,-0.0244,-0.0122,0,-0.0122,0.0244,0.01952,0,-0.03416,-0.03904,-0.03904
-0.0244,0.02684,-0.02928,-0.01708,-0.00488,-0.00976,0.0244,0.01952,-0.00488,-0.03416,-0.03904,-0.03416
-0.0244,0.02684,-0.02928,-0.01708,-0.00488,-0.00976,0.0244,0.01952,-0.00488,-0.03416,-0.03904,-0.03416
-0.02928,0.02928,-0.02928,-0.01464,0,-0.01464,0.0244,0.01952,-0.00488,-0.03416,-0.04392,-0.03416
-0.02928,0.03172,-0.03416,-0.01952,-0.00488,-0.0122,0.0244,0.01952,-0.00976,-0.03416,-0.04392,-0.03416
-0.02928,0.03172,-0.03416,-0.01952,-0.00488,-0.0122,0.0244,0.00976,-0.01464,-0.03416,-0.03904,-0.03416
-0.0244,0.02928,-0.03416,-0.02196,-0.00976,-0.00732,0.01952,0.00976,-0.01464,-0.03904,-0.03416,-0.03416
-0.0244,0.02684,-0.02928,-0.01708,-0.00488,-0.00976,0.01464,0.00488,-0.0244,-0.03904,-0.03416,-0.03416
-0.02928,0.02928,-0.02928,-0.01464,0,-0.01464,0.00488,0.00488,-0.02928,-0.03904,-0.03904,-0.03416
-0.02928,0.03172,-0.03416,-0.01952,-0.00488,-0.0122,0.00488,0.00488,-0.02928,-0.03904,-0.04392,-0.03416
-0.02928,0.03416,-0.03904,-0.0244,-0.00976,-0.00976,0.00488,0.00488,-0.03416,-0.03904,-0.0488,-0.03904
-0.01952,0.02928,-0.03904,-0.02928,-0.01952,0,0.00488,-0.00488,-0.03416,-0.04392,-0.0488,-0.03904
-0.01952,0.02928,-0.03904,-0.02928,-0.01952,0,0.00488,-0.00976,-0.03904,-0.04392,-0.04392,-0.03904
-0.02928,0.03172,-0.03416,-0.01952,-0.00488,-0.0122,0.00488,-0.00976,-0.03904,-0.04392,-0.04392,-0.03904
-0.02928,0.02928,-0.02928,-0.01464,0,-0.01464,0.00976,-0.00976,-0.03904,-0.03904,-0.0488,-0.03904
-0.01952,0.01708,-0.01464,-0.00488,0.00488,-0.0122,0.00976,-0.00976,-0.03416,-0.03416,-0.04392,-0.03416
-0.00976,0.00488,0,0.00488,0.00976,-0.00976,0.00976,-0.00976,-0.02928,-0.02928,-0.03904,-0.02928
-0.00976,-0.00244,0.01464,0.01952,0.0244,-0.01708,0.01952,0,-0.01464,-0.01952,-0.02928,-0.01952
-0.00976,-0.00976,0.02928,0.03416,0.03904,-0.0244,0.02928,0.00976,0,-0.00976,-0.01952,-0.00976
-0.00976,-0.00976,0.02928,0.03416,0.03904,-0.0244,0.02928,0.01952,0,-0.00488,-0.01952,-0.00976
-0.00488,-0.01464,0.03416,0.0366,0.03904,-0.02196,0.0244,0.0244,0,0,-0.01464,-0.00488
-0.00488,-0.01708,0.03904,0.04148,0.04392,-0.0244,0.0244,0.02928,0,0,-0.01464,-0.00488
0,-0.0244,0.0488,0.0488,0.0488,-0.0244,0.0244,0.02928,0,0,-0.00976,0
-0.00488,-0.02928,0.06344,0.06588,0.06832,-0.0366,0.02928,0.0244,0.00488,0.00976,-0.00488,0.00488
-0.00488,-0.03416,0.0732,0.07564,0.07808,-0.04148,0.01952,0.00976,0.00976,0.01464,0.00976,0.01952
0,-0.04636,0.09272,0.09272,0.09272,-0.04636,-0.0244,-0.0244,0,0.01464,0.00976,0.0244
0.00976,-0.04636,0.08296,0.07808,0.0732,-0.03172,-0.04392,-0.02928,-0.00976,0.00976,0.00488,0.0244
0.01464,-0.0488,0.08296,0.07564,0.06832,-0.02684,-0.05856,-0.03904,-0.0244,0.00976,0.00488,0.01464
0.02928,-0.061,0.09272,0.07808,0.06344,-0.01708,-0.06832,-0.0488,-0.02928,0.00976,0.00488,0.0244
0.03416,-0.07564,0.11712,0.10004,0.08296,-0.0244,-0.08296,-0.06344,-0.02928,0.01464,0.00976,0.03416
0.03416,-0.07808,0.122,0.10492,0.08784,-0.02684,-0.0976,-0.0732,-0.03904,0.01464,0.01464,0.03904
0.03904,-0.08296,0.12688,0.10736,0.08784,-0.0244,-0.0976,-0.0732,-0.03904,0.01952,0.01464,0.03904
0.03904,-0.08296,0.12688,0.10736,0.08784,-0.0244,-0.09272,-0.0732,-0.03904,0.01952,0.01464,0.03904
0.04392,-0.0854,0.12688,0.10492,0.08296,-0.01952,-0.09272,-0.0732,-0.04392,0.01464,0.01464,0.03904
0.04392,-0.0854,0.12688,0.10492,0.08296,-0.01952,-0.08784,-0.0732,-0.04392,0.01464,0.01464,0.03904
0.03904,-0.07564,0.11224,0.09272,0.0732,-0.01708,-0.08784,-0.0732,-0.0488,0.01464,0.01464,0.03416
0.03904,-0.07076,0.10248,0.08296,0.06344,-0.0122,-0.09272,-0.08296,-0.06344,0,0.00976,0.0244
0.03904,-0.0732,0.10736,0.08784,0.06832,-0.01464,-0.0976,-0.08784,-0.06832,0,0.00976,0.02928
0.03416,-0.06832,0.10248,0.0854,0.06832,-0.01708,-0.10248,-0.08784,-0.06832,0,0.01464,0.02928
0.02928,-0.05856,0.08784,0.0732,0.05856,-0.01464,-0.0976,-0.08296,-0.06344,-0.00488,0.01464,0.0244
0.0244,-0.04636,0.06832,0.05612,0.04392,-0.00976,-0.08784,-0.0732,-0.06344,-0.00976,0,0.00976
0.00976,-0.02196,0.03416,0.02928,0.0244,-0.00732,-0.06344,-0.05856,-0.06344,-0.01952,-0.01464,0
-0.00488,-0.00732,0.01952,0.02196,0.0244,-0.01464,-0.05856,-0.0488,-0.06344,-0.0244,-0.02928,-0.00976
-0.00976,0.0122,-0.01464,-0.00976,-0.00488,-0.00244,-0.05368,-0.0488,-0.0732,-0.04392,-0.05368,-0.03416
-0.01952,0.02928,-0.03904,-0.02928,-0.01952,0,-0.04392,-0.0488,-0.08296,-0.06344,-0.0732,-0.05368
-0.01952,0.0366,-0.05368,-0.04392,-0.03416,0.00732,-0.04392,-0.04392,-0.08296,-0.06832,-0.0732,-0.05368
-0.01952,0.04148,-0.06344,-0.05368,-0.04392,0.0122,-0.03904,-0.03904,-0.08296,-0.06832,-0.0732,-0.05368
-0.0244,0.04392,-0.06344,-0.05124,-0.03904,0.00732,-0.03904,-0.03904,-0.08296,-0.06832,-0.0732,-0.05368
-0.03416,0.05124,-0.06832,-0.05124,-0.03416,0,-0.03904,-0.04392,-0.08784,-0.0732,-0.07808,-0.05856
-0.03416,0.05612,-0.07808,-0.061,-0.04392,0.00488,-0.03904,-0.0488,-0.08784,-0.0732,-0.07808,-0.06344
-0.03416,0.061,-0.08784,-0.07076,-0.05368,0.00976,-0.02928,-0.0488,-0.08784,-0.07808,-0.07808,-0.06344
-0.03904,0.06344,-0.08784,-0.06832,-0.0488,0.00488,-0.02928,-0.04392,-0.08784,-0.07808,-0.0732,-0.06344
-0.04392,0.06588,-0.08784,-0.06588,-0.04392,0,-0.02928,-0.04392,-0.08784,-0.07808,-0.0732,-0.06344
-0.04392,0.06588,-0.08784,-0.06588,-0.04392,0,-0.0244,-0.04392,-0.08784,-0.07808,-0.0732,-0.06832
-0.04392,0.06588,-0.08784,-0.06588,-0.04392,0,-0.0244,-0.03904,-0.08296,-0.07808,-0.0732,-0.06832
-0.04392,0.06588,-0.08784,-0.06588,-0.04392,0,-0.01952,-0.03904,-0.08296,-0.07808,-0.0732,-0.06832
-0.04392,0.06588,-0.08784,-0.06588,-0.04392,0,-0.01952,-0.03904,-0.08296,-0.07808,-0.0732,-0.06832
-0.04392,0.06588,-0.08784,-0.06588,-0.04392,0,-0.01952,-0.03904,-0.08296,-0.07808,-0.06832,-0.06832
-0.04392,0.06588,-0.08784,-0.06588,-0.04392,0,-0.01952,-0.03904,-0.08296,-0.0732,-0.06832,-0.06832
-0.03904,0.061,-0.08296,-0.06344,-0.04392,0.00244,-0.01464,-0.03904,-0.07808,-0.0732,-0.0732,-0.06832
-0.04392,0.06344,-0.08296,-0.061,-0.03904,-0.00244,-0.01464,-0.03904,-0.07808,-0.0732,-0.07808,-0.06832
-0.06344,0.07564,-0.08784,-0.05612,-0.0244,-0.01952,0.00488,-0.01952,-0.0732,-0.07808,-0.08296,-0.06832
-0.0732,0.0732,-0.0732,-0.0366,0,-0.0366,0.0244,-0.00976,-0.05856,-0.06832,-0.07808,-0.06832
-0.09272,0.06588,-0.03904,0.00732,0.05368,-0.0732,0.0488,0.0244,-0.0244,-0.05368,-0.05368,-0.04392
-0.06832,0.01952,0.02928,0.06344,0.0976,-0.08296,0.01952,0.0244,0.03416,0.0244,0.01464,0.00976
0.01464,-0.0732,0.13176,0.12444,0.11712,-0.05124,-0.12688,-0.13664,0.02928,0.15128,0.13176,0.11224
0.11224,-0.18544,0.25864,0.20252,0.1464,-0.01708,-0.31232,-0.366,-0.06344,0.27328,0.24888,0.22936
0.22936,-0.31964,0.40992,0.29524,0.18056,0.0244,-0.49288,-0.57584,-0.16104,0.4148,0.3904,0.35624
0.42456,-0.47092,0.51728,0.305,0.09272,0.16592,-0.72224,-0.77104,-0.20984,0.56608,0.52704,0.47824
0.7076,-0.69296,0.67832,0.32452,-0.02928,0.36844,-1.0248,-1.01016,-0.1952,0.79056,0.73688,0.62952
0.95648,-0.94184,0.9272,0.44896,-0.02928,0.49288,-1.34688,-1.32248,-0.23424,1.04432,0.98088,0.84424
1.21024,-1.27368,1.33712,0.732,0.12688,0.54168,-1.71776,-1.62016,-0.1464,1.49816,1.40056,1.20048
1.32248,-1.40788,1.49328,0.83204,0.1708,0.57584,-1.86904,-1.79096,-0.27328,1.54208,1.48352,1.30296
1.18584,-1.23464,1.28344,0.69052,0.0976,0.54412,-1.82512,-1.91784,-0.69784,0.9516,1.03456,1.01504
0.94184,-0.8784,0.81496,0.34404,-0.12688,0.53436,-1.586,-1.84952,-1.11264,0.26352,0.44896,0.5612
0.65392,-0.42456,0.1952,-0.13176,-0.45872,0.55632,-1.15168,-1.55672,-1.36152,-0.42456,-0.16592,0.03904
0.47824,-0.15128,-0.17568,-0.4148,-0.65392,0.56608,-0.9028,-1.32736,-1.33712,-0.69296,-0.44408,-0.23912
0.3416,-0.04636,-0.24888,-0.41968,-0.59048,0.46604,-0.73688,-1.11752,-1.11752,-0.62952,-0.4392,-0.26352
0.18056,0,-0.18056,-0.27084,-0.36112,0.27084,-0.52216,-0.81984,-0.7808,-0.44408,-0.30744,-0.18544
0.07808,0.02196,-0.122,-0.16104,-0.20008,0.13908,-0.36112,-0.56608,-0.53192,-0.2928,-0.20984,-0.13664
-0.0244,0.04636,-0.06832,-0.05612,-0.04392,0.00976,-0.22936,-0.38064,-0.35136,-0.1952,-0.14152,-0.0976
-0.05856,0.07564,-0.09272,-0.06344,-0.03416,-0.0122,-0.10736,-0.20984,-0.20496,-0.14152,-0.11712,-0.0976
-0.07808,0.09516,-0.11224,-0.0732,-0.03416,-0.02196,-0.01464,-0.06344,-0.09272,-0.10736,-0.0976,-0.09272
-0.06344,0.08052,-0.0976,-0.06588,-0.03416,-0.01464,0.0244,0.01464,-0.02928,-0.08296,-0.08296,-0.08296
-0.05856,0.07808,-0.0976,-0.06832,-0.03904,-0.00976,0.0488,0.0488,-0.00488,-0.07808,-0.08296,-0.08296
-0.05856,0.07808,-0.0976,-0.06832,-0.03904,-0.00976,0.05856,0.06344,0.00488,-0.07808,-0.08296,-0.08296
-0.06344,0.08052,-0.0976,-0.06588,-0.03416,-0.01464,0.06344,0.07808,0.01464,-0.0732,-0.07808,-0.08296
-0.06832,0.0854,-0.10248,-0.06832,-0.03416,-0.01708,0.0732,0.09272,0.0244,-0.0732,-0.07808,-0.08296
-0.06832,0.0854,-0.10248,-0.06832,-0.03416,-0.01708,0.0732,0.10248,0.03416,-0.06344,-0.0732,-0.08296
-0.06832,0.0854,-0.10248,-0.06832,-0.03416,-0.01708,0.0732,0.11224,0.03904,-0.05856,-0.0732,-0.0732
-0.06832,0.08296,-0.0976,-0.06344,-0.02928,-0.01952,0.07808,0.122,0.04392,-0.05856,-0.06832,-0.06832
-0.06832,0.08296,-0.0976,-0.06344,-0.02928,-0.01952,0.08296,0.122,0.0488,-0.05856,-0.06832,-0.06832
-0.06832,0.08296,-0.0976,-0.06344,-0.02928,-0.01952,0.08296,0.122,0.0488,-0.05368,-0.06344,-0.06832
-0.06832,0.08052,-0.09272,-0.05856,-0.0244,-0.02196,0.08784,0.12688,0.05856,-0.0488,-0.06344,-0.0732
-0.06344,0.07808,-0.09272,-0.061,-0.02928,-0.01708,0.08784,0.12688,0.06832,-0.0488,-0.06344,-0.0732
-0.06344,0.07808,-0.09272,-0.061,-0.02928,-0.01708,0.08784,0.13176,0.06832,-0.0488,-0.06344,-0.0732
-0.06832,0.08052,-0.09272,-0.05856,-0.0244,-0.02196,0.08784,0.13664,0.0732,-0.04392,-0.05856,-0.0732
-0.06832,0.08296,-0.0976,-0.06344,-0.02928,-0.01952,0.08784,0.14152,0.07808,-0.03904,-0.05856,-0.06832
-0.06832,0.08296,-0.0976,-0.06344,-0.02928,-0.01952,0.08784,0.14152,0.08296,-0.03904,-0.05856,-0.06832
-0.06832,0.08296,-0.0976,-0.06344,-0.02928,-0.01952,0.08784,0.14152,0.08784,-0.04392,-0.05856,-0.06832
-0.06832,0.08296,-0.0976,-0.06344,-0.02928,-0.01952,0.08784,0.15128,0.09272,-0.04392,-0.05856,-0.06832
-0.06344,0.08052,-0.0976,-0.06588,-0.03416,-0.01464,0.08784,0.15128,0.0976,-0.03904,-0.05856,-0.06832
-0.05856,0.07808,-0.0976,-0.06832,-0.03904,-0.00976,0.08784,0.15128,0.10248,-0.03904,-0.05368,-0.06832
-0.05856,0.07808,-0.0976,-0.06832,-0.03904,-0.00976,0.08784,0.15616,0.0976,-0.03904,-0.05368,-0.06832
-0.05856,0.07808,-0.0976,-0.06832,-0.03904,-0.00976,0.08784,0.15616,0.0976,-0.03904,-0.05856,-0.06832
-0.06832,0.08296,-0.0976,-0.06344,-0.02928,-0.01952,0.08784,0.16592,0.0976,-0.03904,-0.05856,-0.0732
-0.08296,0.09028,-0.0976,-0.05612,-0.01464,-0.03416,0.08784,0.1708,0.10248,-0.03904,-0.05856,-0.0732
-0.08296,0.08784,-0.09272,-0.05124,-0.00976,-0.0366,0.08784,0.18056,0.10248,-0.03904,-0.05856,-0.0732
-0.07808,0.0854,-0.09272,-0.05368,-0.01464,-0.03172,0.08784,0.18056,0.10736,-0.03904,-0.05856,-0.0732
-0.07808,0.0854,-0.09272,-0.05368,-0.01464,-0.03172,0.08784,0.18544,0.11224,-0.04392,-0.06344,-0.0732
-0.07808,0.0854,-0.09272,-0.05368,-0.01464,-0.03172,0.08784,0.1952,0.11224,-0.0488,-0.06832,-0.0732
-0.07808,0.0854,-0.09272,-0.05368,-0.01464,-0.03172,0.08784,0.20008,0.11712,-0.0488,-0.06832,-0.0732
-0.08296,0.08784,-0.09272,-0.05124,-0.00976,-0.0366,0.09272,0.20008,0.12688,-0.0488,-0.06832,-0.0732
-0.08296,0.08784,-0.09272,-0.05124,-0.00976,-0.0366,0.0976,0.20496,0.13176,-0.04392,-0.06832,-0.0732
-0.08296,0.08784,-0.09272,-0.05124,-0.00976,-0.0366,0.0976,0.20008,0.13176,-0.03904,-0.0732,-0.07808
-0.08296,0.08784,-0.09272,-0.05124,-0.00976,-0.0366,0.0976,0.20984,0.13176,-0.03904,-0.0732,-0.07808
-0.08784,0.09028,-0.09272,-0.0488,-0.00488,-0.04148,0.10248,0.21472,0.13664,-0.04392,-0.0732,-0.07808
-0.08784,0.09272,-0.0976,-0.05368,-0.00976,-0.03904,0.10736,0.22936,0.1464,-0.04392,-0.0732,-0.07808
-0.08784,0.09272,-0.0976,-0.05368,-0.00976,-0.03904,0.10736,0.23912,0.15128,-0.05368,-0.07808,-0.07808
-0.0976,0.0976,-0.0976,-0.0488,0,-0.0488,0.11224,0.244,0.16104,-0.05368,-0.0732,-0.08784
-0.10248,0.10248,-0.10248,-0.05124,0,-0.05124,0.11712,0.24888,0.16592,-0.05368,-0.07808,-0.09272
-0.10248,0.10248,-0.10248,-0.05124,0,-0.05124,0.122,0.25864,0.16592,-0.05856,-0.07808,-0.08784
-0.10736,0.10248,-0.0976,-0.04392,0.00976,-0.05856,0.122,0.26352,0.16592,-0.05856,-0.07808,-0.08784
-0.10736,0.10248,-0.0976,-0.04392,0.00976,-0.05856,0.12688,0.2684,0.1708,-0.06344,-0.09272,-0.09272
-0.10736,0.10492,-0.10248,-0.0488,0.00488,-0.05612,0.13176,0.27816,0.17568,-0.0732,-0.0976,-0.0976
-0.11712,0.1098,-0.10248,-0.04392,0.01464,-0.06588,0.13176,0.28792,0.17568,-0.07808,-0.0976,-0.10248
-0.11712,0.11224,-0.10736,-0.0488,0.00976,-0.06344,0.14152,0.2928,0.18056,-0.08296,-0.10248,-0.11224
-0.12688,0.11712,-0.10736,-0.04392,0.01952,-0.0732,0.15616,0.30256,0.18056,-0.08784,-0.11712,-0.122
-0.13176,0.11956,-0.10736,-0.04148,0.0244,-0.07808,0.16104,0.30744,0.18056,-0.09272,-0.122,-0.122
-0.13176,0.11956,-0.10736,-0.04148,0.0244,-0.07808,0.16104,0.30744,0.18056,-0.10248,-0.122,-0.122
-0.13176,0.11956,-0.10736,-0.04148,0.0244,-0.07808,0.16104,0.31232,0.18056,-0.10736,-0.122,-0.122
-0.13176,0.11712,-0.10248,-0.0366,0.02928,-0.08052,0.16104,0.31232,0.18056,-0.10736,-0.12688,-0.122
-0.13176,0.11468,-0.0976,-0.03172,0.03416,-0.08296,0.16104,0.31232,0.18056,-0.10736,-0.12688,-0.122
-0.12688,0.10736,-0.08784,-0.0244,0.03904,-0.08296,0.16104,0.31232,0.18056,-0.10248,-0.122,-0.11712
-0.122,0.10004,-0.07808,-0.01708,0.04392,-0.08296,0.15128,0.30744,0.18544,-0.10248,-0.11712,-0.10736
-0.11712,0.09516,-0.0732,-0.01464,0.04392,-0.08052,0.14152,0.30256,0.18544,-0.08784,-0.11224,-0.10736
-0.10736,0.0854,-0.06344,-0.00976,0.04392,-0.07564,0.13176,0.28792,0.19032,-0.07808,-0.10736,-0.10248
-0.10248,0.07808,-0.05368,-0.00244,0.0488,-0.07564,0.13176,0.28304,0.1952,-0.06832,-0.09272,-0.09272
-0.0976,0.06832,-0.03904,0.00976,0.05856,-0.07808,0.12688,0.27328,0.20008,-0.05368,-0.08296,-0.07808
-0.08784,0.05368,-0.01952,0.0244,0.06832,-0.07808,0.10736,0.2684,0.20008,-0.03416,-0.06344,-0.06344
-0.06344,0.03172,0,0.03172,0.06344,-0.06344,0.08784,0.25376,0.20008,-0.01952,-0.04392,-0.0488
-0.04392,0.0122,0.01952,0.04148,0.06344,-0.05368,0.07808,0.244,0.20008,0,-0.02928,-0.03416
-0.03904,0.00244,0.03416,0.05368,0.0732,-0.05612,0.05856,0.22936,0.20008,0.01464,-0.00976,-0.01464
-0.0244,-0.00976,0.04392,0.05612,0.06832,-0.04636,0.03416,0.20496,0.20008,0.03416,0.00976,-0.00488
-0.00976,-0.02196,0.05368,0.05856,0.06344,-0.0366,0.00976,0.18056,0.1952,0.0488,0.01952,0.00488
0.00488,-0.0366,0.06832,0.06588,0.06344,-0.02928,0,0.16104,0.18544,0.05368,0.03416,0.01952
0.01464,-0.04148,0.06832,0.061,0.05368,-0.01952,-0.01464,0.13664,0.17568,0.06344,0.04392,0.02928
0.0244,-0.04636,0.06832,0.05612,0.04392,-0.00976,-0.0244,0.10736,0.15128,0.06344,0.0488,0.02928
0.0244,-0.04636,0.06832,0.05612,0.04392,-0.00976,-0.03416,0.08296,0.13176,0.06344,0.05368,0.03416
0.02928,-0.0488,0.06832,0.05368,0.03904,-0.00488,-0.0488,0.05856,0.11224,0.06832,0.05368,0.03416
0.02928,-0.0488,0.06832,0.05368,0.03904,-0.00488,-0.05856,0.03904,0.09272,0.06832,0.0488,0.03416
0.0244,-0.04392,0.06344,0.05124,0.03904,-0.00732,-0.0732,0.01464,0.06344,0.05368,0.03904,0.02928
0.0244,-0.03904,0.05368,0.04148,0.02928,-0.00244,-0.07808,0.00488,0.03904,0.0488,0.03904,0.02928
0.01464,-0.03172,0.0488,0.04148,0.03416,-0.00976,-0.0732,-0.00488,0.02928,0.04392,0.02928,0.0244
0.01464,-0.02684,0.03904,0.03172,0.0244,-0.00488,-0.0732,-0.00976,0.01952,0.03416,0.01952,0.01464
0.0244,-0.02928,0.03416,0.02196,0.00976,0.00732,-0.0732,-0.01952,0.00488,0.01952,0.01464,0.00976
0.02928,-0.02928,0.02928,0.01464,0,0.01464,-0.0732,-0.0244,0,0.01464,0.01464,0.00976
0.01464,-0.01952,0.0244,0.01708,0.00976,0.00244,-0.06832,-0.02928,-0.00488,0.00976,0.00976,0.00976
0.00488,-0.01464,0.0244,0.02196,0.01952,-0.00732,-0.06832,-0.02928,-0.00976,0,0.00488,0.01464
0.00488,-0.0122,0.01952,0.01708,0.01464,-0.00488,-0.0732,-0.02928,-0.00976,0,0.00488,0.00976
0.00488,-0.00976,0.01464,0.0122,0.00976,-0.00244,-0.07808,-0.03416,-0.01464,0,0.00488,0.00976
0.00976,-0.0122,0.01464,0.00976,0.00488,0.00244,-0.07808,-0.02928,-0.01464,0.00488,0.00976,0.00976
0.00976,-0.00976,0.00976,0.00488,0,0.00488,-0.07808,-0.0244,-0.01464,0.00976,0.00976,0.00488
0.00976,-0.00976,0.00976,0.00488,0,0.00488,-0.0732,-0.02928,-0.01952,0.00488,0.00976,0.00488
0.00976,-0.00976,0.00976,0.00488,0,0.00488,-0.06832,-0.02928,-0.02928,0.00488,0.00976,0.00488
0.00976,-0.00976,0.00976,0.00488,0,0.00488,-0.06832,-0.0244,-0.02928,0.00488,0,0.00488
0.00976,-0.00976,0.00976,0.00488,0,0.00488,-0.06832,-0.0244,-0.0244,0,-0.00488,0.00488
0.00976,-0.00976,0.00976,0.00488,0,0.00488,-0.06832,-0.01952,-0.0244,0,-0.00488,0
0.00976,-0.00976,0.00976,0.00488,0,0.00488,-0.06832,-0.01952,-0.0244,0,-0.00488,0
0.00488,-0.00732,0.00976,0.00732,0.00488,0,-0.06832,-0.01952,-0.0244,0,-0.00488,0
0,-0.00244,0.00488,0.00488,0.00488,-0.00244,-0.06344,-0.01952,-0.0244,0,-0.00488,0
0,0,0,0,0,0,-0.05856,-0.01464,-0.0244,0,-0.00976,-0.00488
0,0,0,0,0,0,-0.05856,-0.01464,-0.0244,0,-0.00976,-0.00488
-0.00488,0,0.00488,0.00732,0.00976,-0.00732,-0.05856,-0.01952,-0.01952,0,-0.00976,0
-0.00976,0,0.00976,0.01464,0.01952,-0.01464,-0.05368,-0.01952,-0.01952,-0.00488,-0.00976,0
-0.00976,0,0.00976,0.01464,0.01952,-0.01464,-0.05368,-0.01464,-0.01464,-0.00488,-0.00976,-0.00488
-0.00488,0,0.00488,0.00732,0.00976,-0.00732,-0.0488,-0.01464,-0.01464,-0.00488,-0.01464,-0.00488
-0.00488,0.00488,-0.00488,-0.00244,0,-0.00244,-0.04392,-0.01464,-0.00976,-0.00976,-0.01952,-0.00976
-0.00976,0.0122,-0.01464,-0.00976,-0.00488,-0.00244,-0.04392,-0.00976,-0.00976,-0.00976,-0.01952,-0.00976
-0.01464,0.01464,-0.01464,-0.00732,0,-0.00732,-0.04392,-0.00488,-0.00976,-0.00976,-0.01952,-0.01464
-0.01952,0.01708,-0.01464,-0.00488,0.00488,-0.0122,-0.04392,-0.00488,-0.00976,-0.00976,-0.01952,-0.01464
-0.01952,0.01708,-0.01464,-0.00488,0.00488,-0.0122,-0.03904,-0.00488,-0.00976,-0.00976,-0.01464,-0.01464
-0.01952,0.01952,-0.01952,-0.00976,0,-0.00976,-0.03904,-0.00488,-0.00488,-0.00976,-0.00976,-0.01952
-0.0244,0.02196,-0.01952,-0.00732,0.00488,-0.01464,-0.03416,0,-0.00488,-0.01464,-0.00976,-0.01952
-0.0244,0.02196,-0.01952,-0.00732,0.00488,-0.01464,-0.03416,0.00488,-0.00488,-0.01952,-0.01464,-0.01952
-0.03904,0.02928,-0.01952,0,0.01952,-0.02928,-0.02928,0.01464,0,-0.01952,-0.01952,-0.01952
-0.0488,0.0366,-0.0244,0,0.0244,-0.0366,-0.0244,0.01952,0,-0.01952,-0.0244,-0.01952
-0.0488,0.0366,-0.0244,0,0.0244,-0.0366,-0.0244,0.01952,0,-0.0244,-0.0244,-0.0244
-0.0488,0.03904,-0.02928,-0.00488,0.01952,-0.03416,-0.0244,0.01952,0,-0.0244,-0.0244,-0.0244
-0.05368,0.04148,-0.02928,-0.00244,0.0244,-0.03904,-0.0244,0.01464,0,-0.0244,-0.0244,-0.0244
-0.05368,0.04392,-0.03416,-0.00732,0.01952,-0.0366,-0.0244,0.00976,0,-0.0244,-0.0244,-0.0244
-0.05368,0.04392,-0.03416,-0.00732,0.01952,-0.0366,-0.0244,0.00976,-0.00488,-0.0244,-0.03416,-0.03416
-0.0488,0.04148,-0.03416,-0.00976,0.01464,-0.03172,-0.0244,0.00976,-0.00488,-0.0244,-0.03416,-0.03416
-0.04392,0.03904,-0.03416,-0.0122,0.00976,-0.02684,-0.02928,0.00488,-0.00488,-0.02928,-0.03416,-0.02928
-0.04392,0.03904,-0.03416,-0.0122,0.00976,-0.02684,-0.03416,0.00488,-0.00488,-0.02928,-0.03416,-0.02928
-0.04392,0.04148,-0.03904,-0.01708,0.00488,-0.0244,-0.03416,0.00488,-0.00488,-0.02928,-0.03416,-0.03904
-0.04392,0.04148,-0.03904,-0.01708,0.00488,-0.0244,-0.03416,0.00488,-0.00976,-0.02928,-0.03416,-0.04392
-0.04392,0.04148,-0.03904,-0.01708,0.00488,-0.0244,-0.02928,0,-0.00976,-0.03416,-0.03904,-0.0488
-0.04392,0.04392,-0.04392,-0.02196,0,-0.02196,-0.0244,0,-0.00976,-0.03416,-0.03904,-0.0488
-0.04392,0.04392,-0.04392,-0.02196,0,-0.02196,-0.0244,0,-0.01464,-0.03416,-0.03904,-0.04392
-0.04392,0.04148,-0.03904,-0.01708,0.00488,-0.0244,-0.0244,0,-0.01464,-0.03416,-0.03904,-0.04392
-0.0488,0.04392,-0.03904,-0.01464,0.00976,-0.02928,-0.0244,0,-0.01464,-0.03416,-0.04392,-0.04392
-0.0488,0.04636,-0.04392,-0.01952,0.00488,-0.02684,-0.0244,0,-0.01952,-0.03416,-0.04392,-0.04392
-0.0488,0.04636,-0.04392,-0.01952,0.00488,-0.02684,-0.0244,-0.00976,-0.0244,-0.03416,-0.04392,-0.04392
-0.04392,0.04392,-0.04392,-0.02196,0,-0.02196,-0.02928,-0.00976,-0.0244,-0.03904,-0.04392,-0.04392
-0.04392,0.04148,-0.03904,-0.01708,0.00488,-0.0244,-0.02928,-0.01464,-0.02928,-0.03904,-0.04392,-0.04392
-0.0488,0.04392,-0.03904,-0.01464,0.00976,-0.02928,-0.03416,-0.01464,-0.02928,-0.03904,-0.0488,-0.04392
-0.0488,0.04636,-0.04392,-0.01952,0.00488,-0.02684,-0.03416,-0.01464,-0.02928,-0.03904,-0.0488,-0.03904
-0.0488,0.0488,-0.0488,-0.0244,0,-0.0244,-0.03416,-0.01464,-0.03416,-0.03904,-0.0488,-0.03904
-0.04392,0.04392,-0.04392,-0.02196,0,-0.02196,-0.03416,-0.01952,-0.03416,-0.04392,-0.0488,-0.03904
-0.0488,0.04392,-0.03904,-0.01464,0.00976,-0.02928,-0.03416,-0.01952,-0.03904,-0.04392,-0.04392,-0.03904
-0.0488,0.04148,-0.03416,-0.00976,0.01464,-0.03172,-0.03416,-0.01952,-0.03904,-0.04392,-0.04392,-0.03904
-0.03904,0.03416,-0.02928,-0.00976,0.00976,-0.0244,-0.02928,-0.01952,-0.03904,-0.03904,-0.0488,-0.03904
-0.02928,0.02196,-0.01464,0,0.01464,-0.02196,-0.01952,-0.01464,-0.0244,-0.02928,-0.03416,-0.02928
-0.01952,0.00976,0,0.00976,0.01952,-0.01952,-0.00976,-0.00976,-0.00976,-0.01952,-0.01952,-0.01952
-0.01952,0.00488,0.00976,0.01952,0.02928,-0.0244,-0.00976,0,-0.00976,-0.01952,-0.01952,-0.01952
-0.01952,0,0.01952,0.02928,0.03904,-0.02928,-0.00976,0.00976,-0.00976,-0.01952,-0.01952,-0.01952
-0.01952,0,0.01952,0.02928,0.03904,-0.02928,-0.00976,0.00976,-0.00488,-0.01464,-0.01952,-0.01464
-0.0244,0.00244,0.01952,0.03172,0.04392,-0.03416,-0.00976,0.00976,0,-0.00976,-0.01464,-0.00976
-0.02928,0.00244,0.0244,0.03904,0.05368,-0.04148,-0.00976,0.00976,0,-0.00976,-0.01464,-0.00488
-0.03904,0.00488,0.02928,0.0488,0.06832,-0.05368,-0.00488,0.00976,0,-0.00976,-0.00976,0
-0.03416,-0.00732,0.0488,0.06588,0.08296,-0.05856,-0.00976,0.00488,0,0.00488,0,0.00488
-0.0244,-0.01952,0.06344,0.07564,0.08784,-0.05612,-0.02928,-0.00976,0,0.01464,0.01952,0.01952
-0.01952,-0.03416,0.08784,0.0976,0.10736,-0.06344,-0.06344,-0.04392,-0.00976,0.01464,0.01952,0.0244
-0.00976,-0.0366,0.08296,0.08784,0.09272,-0.05124,-0.0732,-0.0488,-0.01952,0.00976,0.01464,0.0244
-0.00488,-0.03904,0.08296,0.0854,0.08784,-0.04636,-0.08784,-0.05856,-0.02928,0.00976,0.01464,0.01464
0.00976,-0.05124,0.09272,0.08784,0.08296,-0.0366,-0.0976,-0.06832,-0.02928,0.00976,0.01464,0.0244
0.01464,-0.06588,0.11712,0.1098,0.10248,-0.04392,-0.10736,-0.07808,-0.02928,0.00976,0.01464,0.03416
0.01464,-0.06832,0.122,0.11468,0.10736,-0.04636,-0.11712,-0.08296,-0.03904,0.00488,0.01464,0.03904
0.01952,-0.0732,0.12688,0.11712,0.10736,-0.04392,-0.11712,-0.08296,-0.03904,0.00976,0.01464,0.03416
0.01952,-0.0732,0.12688,0.11712,0.10736,-0.04392,-0.11224,-0.08296,-0.03904,0.00976,0.01464,0.02928
0.01952,-0.07076,0.122,0.11224,0.10248,-0.04148,-0.10736,-0.07808,-0.04392,0.00488,0.01464,0.02928
0.01464,-0.06588,0.11712,0.1098,0.10248,-0.04392,-0.0976,-0.0732,-0.04392,0.00488,0.01464,0.02928
0.00976,-0.05612,0.10248,0.0976,0.09272,-0.04148,-0.0976,-0.0732,-0.0488,0.00488,0.00976,0.0244
0.00976,-0.05124,0.09272,0.08784,0.08296,-0.0366,-0.10248,-0.08296,-0.06344,-0.00976,0,0.01464
0.00976,-0.0488,0.08784,0.08296,0.07808,-0.03416,-0.10248,-0.08784,-0.06832,-0.00976,-0.00488,0.01464
0.00488,-0.03904,0.0732,0.07076,0.06832,-0.03172,-0.10248,-0.08784,-0.06832,-0.00976,-0.00488,0.00976
0.00488,-0.03172,0.05856,0.05612,0.05368,-0.0244,-0.0976,-0.08296,-0.06344,-0.01952,-0.00488,0.00488
0.00488,-0.02196,0.03904,0.0366,0.03416,-0.01464,-0.08784,-0.0732,-0.06344,-0.02928,-0.01952,-0.00976
-0.00976,0.00244,0.00488,0.00976,0.01464,-0.0122,-0.06344,-0.05856,-0.06344,-0.03904,-0.0244,-0.01952
-0.0244,0.01708,-0.00976,0.00244,0.01464,-0.01952,-0.05856,-0.0488,-0.06344,-0.04392,-0.02928,-0.02928
-0.03904,0.04148,-0.04392,-0.0244,-0.00488,-0.01708,-0.0488,-0.0488,-0.0732,-0.05856,-0.0488,-0.0488
-0.05856,0.06344,-0.06832,-0.03904,-0.00976,-0.0244,-0.03416,-0.0488,-0.08296,-0.0732,-0.06344,-0.06344
-0.06832,0.07076,-0.0732,-0.03904,-0.00488,-0.03172,-0.03416,-0.0488,-0.08296,-0.08296,-0.06344,-0.06344
-0.07808,0.07564,-0.0732,-0.03416,0.00488,-0.04148,-0.02928,-0.0488,-0.08296,-0.08784,-0.06344,-0.06344
-0.0732,0.0732,-0.0732,-0.0366,0,-0.0366,-0.02928,-0.0488,-0.08296,-0.08784,-0.06344,-0.06344
-0.0732,0.07564,-0.07808,-0.04148,-0.00488,-0.03416,-0.02928,-0.05368,-0.08784,-0.09272,-0.06832,-0.06832
-0.0732,0.08052,-0.08784,-0.05124,-0.01464,-0.02928,-0.02928,-0.05368,-0.08784,-0.08784,-0.06832,-0.06832
-0.0732,0.0854,-0.0976,-0.061,-0.0244,-0.0244,-0.01952,-0.0488,-0.08784,-0.08784,-0.06832,-0.06344
-0.0732,0.0854,-0.0976,-0.061,-0.0244,-0.0244,-0.01952,-0.04392,-0.08784,-0.08784,-0.06832,-0.06344
-0.0732,0.0854,-0.0976,-0.061,-0.0244,-0.0244,-0.01952,-0.04392,-0.08784,-0.08784,-0.0732,-0.06344
-0.0732,0.0854,-0.0976,-0.061,-0.0244,-0.0244,-0.01464,-0.04392,-0.08784,-0.08784,-0.07808,-0.06832
-0.0732,0.0854,-0.0976,-0.061,-0.0244,-0.0244,-0.01464,-0.03904,-0.08296,-0.08784,-0.08296,-0.06832
-0.07808,0.08784,-0.0976,-0.05856,-0.01952,-0.02928,-0.00976,-0.03904,-0.08296,-0.08784,-0.08296,-0.06832
-0.08296,0.09028,-0.0976,-0.05612,-0.01464,-0.03416,-0.00976,-0.03904,-0.08296,-0.08784,-0.08296,-0.06832
-0.08296,0.09028,-0.0976,-0.05612,-0.01464,-0.03416,-0.00976,-0.03904,-0.08296,-0.08296,-0.07808,-0.06832
-0.08296,0.09028,-0.0976,-0.05612,-0.01464,-0.03416,-0.00976,-0.03904,-0.08296,-0.0732,-0.07808,-0.06832
-0.07808,0.0854,-0.09272,-0.05368,-0.01464,-0.03172,-0.00488,-0.03904,-0.07808,-0.0732,-0.07808,-0.06832
-0.08296,0.08784,-0.09272,-0.05124,-0.00976,-0.0366,-0.00488,-0.03904,-0.07808,-0.0732,-0.07808,-0.06832
-0.10248,0.0976,-0.09272,-0.04148,0.00976,-0.05612,0.01464,-0.01952,-0.0732,-0.0732,-0.07808,-0.06344
-0.11224,0.09272,-0.0732,-0.01708,0.03904,-0.07564,0.03416,-0.00976,-0.05856,-0.05856,-0.06832,-0.05856
-0.10736,0.06344,-0.01952,0.03416,0.08784,-0.0976,0.01952,-0.01464,-0.02928,-0.01464,-0.01464,-0.01464
-0.05856,-0.00488,0.06832,0.0976,0.12688,-0.09272,-0.0488,-0.05368,0.0244,0.09272,0.08296,0.05856
0.03904,-0.11224,0.18544,0.16592,0.1464,-0.05368,-0.20984,-0.22448,0.00976,0.244,0.2196,0.18056
0.15128,-0.23912,0.32696,0.25132,0.17568,-0.0122,-0.40992,-0.4636,-0.09272,0.3904,0.35624,0.3172
0.29768,-0.3904,0.48312,0.33428,0.18544,0.05612,-0.60024,-0.67832,-0.17568,0.5368,0.51728,0.45384
0.52216,-0.55876,0.59536,0.33428,0.0732,0.22448,-0.83936,-0.8784,-0.20984,0.69296,0.67344,0.5856
0.76616,-0.7808,0.79544,0.41236,0.02928,0.36844,-1.12728,-1.11752,-0.20984,0.93208,0.89792,0.76128
0.976,-1.02968,1.08336,0.59536,0.10736,0.43432,-1.43472,-1.42984,-0.26352,1.20048,1.15656,1.0004
1.13704,-1.25172,1.3664,0.79788,0.22936,0.45384,-1.69824,-1.67872,-0.2928,1.42984,1.38592,1.22
1.15656,-1.27612,1.39568,0.8174,0.23912,0.45872,-1.74216,-1.80072,-0.5368,1.24928,1.27856,1.18584
0.976,-1.03456,1.09312,0.60512,0.11712,0.42944,-1.62016,-1.83,-0.89304,0.62952,0.7808,0.83936
0.68808,-0.61,0.53192,0.18788,-0.15616,0.42212,-1.30296,-1.66408,-1.23952,-0.08784,0.1464,0.32696
0.4392,-0.22692,0.01464,-0.20496,-0.42456,0.43188,-0.92232,-1.38104,-1.3664,-0.60024,-0.32696,-0.0976
0.30256,-0.0244,-0.25376,-0.40504,-0.55632,0.42944,-0.72712,-1.16144,-1.22,-0.69296,-0.4636,-0.27816
0.18544,0.05124,-0.28792,-0.38064,-0.47336,0.3294,-0.57584,-0.95648,-1.0004,-0.61,-0.43432,-0.27816
0.04392,0.06832,-0.18056,-0.20252,-0.22448,0.1342,-0.37576,-0.66368,-0.66368,-0.40504,-0.27816,-0.17568
-0.02928,0.08784,-0.1464,-0.13176,-0.11712,0.04392,-0.23912,-0.44408,-0.44896,-0.27816,-0.20008,-0.13664
-0.10248,0.1098,-0.11712,-0.06588,-0.01464,-0.04392,-0.13176,-0.2928,-0.30256,-0.20496,-0.15128,-0.10736
-0.11712,0.12444,-0.13176,-0.0732,-0.01464,-0.05124,-0.03904,-0.15128,-0.1708,-0.15128,-0.12688,-0.10736
-0.11712,0.12932,-0.14152,-0.08296,-0.0244,-0.04636,0.0244,-0.03416,-0.0732,-0.11712,-0.10736,-0.10248
-0.0976,0.1098,-0.122,-0.0732,-0.0244,-0.0366,0.0488,0.02928,-0.0244,-0.09272,-0.09272,-0.09272
-0.08784,0.10248,-0.11712,-0.0732,-0.02928,-0.02928,0.05856,0.0488,-0.01464,-0.08784,-0.09272,-0.09272
-0.08784,0.10248,-0.11712,-0.0732,-0.02928,-0.02928,0.06832,0.05856,-0.00488,-0.08784,-0.09272,-0.09272
-0.09272,0.10492,-0.11712,-0.07076,-0.0244,-0.03416,0.0732,0.06832,0.00488,-0.08296,-0.08784,-0.09272
-0.0976,0.11224,-0.12688,-0.07808,-0.02928,-0.03416,0.08296,0.08296,0.01464,-0.08296,-0.08784,-0.09272
-0.0976,0.11468,-0.13176,-0.08296,-0.03416,-0.03172,0.08296,0.09272,0.0244,-0.0732,-0.08296,-0.09272
-0.0976,0.11468,-0.13176,-0.08296,-0.03416,-0.03172,0.08296,0.10248,0.03416,-0.06832,-0.08296,-0.08784
-0.0976,0.11224,-0.12688,-0.07808,-0.02928,-0.03416,0.08784,0.11224,0.04392,-0.06832,-0.07808,-0.08784
-0.0976,0.11224,-0.12688,-0.07808,-0.02928,-0.03416,0.09272,0.11224,0.0488,-0.06832,-0.07808,-0.08784
-0.0976,0.11224,-0.12688,-0.07808,-0.02928,-0.03416,0.09272,0.11224,0.0488,-0.06344,-0.0732,-0.08784
-0.0976,0.10736,-0.11712,-0.06832,-0.01952,-0.03904,0.0976,0.11712,0.05368,-0.05856,-0.06832,-0.08784
-0.09272,0.10248,-0.11224,-0.06588,-0.01952,-0.0366,0.0976,0.11712,0.05856,-0.05856,-0.06344,-0.08296
-0.09272,0.10248,-0.11224,-0.06588,-0.01952,-0.0366,0.0976,0.122,0.05368,-0.05856,-0.06344,-0.08296
-0.0976,0.10492,-0.11224,-0.06344,-0.01464,-0.04148,0.0976,0.12688,0.05368,-0.05368,-0.05856,-0.08296
-0.0976,0.10492,-0.11224,-0.06344,-0.01464,-0.04148,0.0976,0.13176,0.05856,-0.0488,-0.06344,-0.07808
-0.0976,0.10248,-0.10736,-0.05856,-0.00976,-0.04392,0.0976,0.13176,0.06344,-0.0488,-0.06832,-0.07808
-0.0976,0.10248,-0.10736,-0.05856,-0.00976,-0.04392,0.0976,0.13176,0.06832,-0.05368,-0.06832,-0.07808
-0.0976,0.10248,-0.10736,-0.05856,-0.00976,-0.04392,0.0976,0.14152,0.0732,-0.05368,-0.06832,-0.07808
-0.0976,0.10248,-0.10736,-0.05856,-0.00976,-0.04392,0.0976,0.14152,0.07808,-0.0488,-0.06832,-0.07808
-0.0976,0.10248,-0.10736,-0.05856,-0.00976,-0.04392,0.0976,0.14152,0.08296,-0.0488,-0.06344,-0.07808
-0.09272,0.10004,-0.10736,-0.061,-0.01464,-0.03904,0.0976,0.1464,0.08296,-0.0488,-0.06344,-0.07808
-0.08784,0.0976,-0.10736,-0.06344,-0.01952,-0.03416,0.0976,0.1464,0.08784,-0.0488,-0.06832,-0.07808
-0.08784,0.0976,-0.10736,-0.06344,-0.01952,-0.03416,0.10248,0.15128,0.08784,-0.0488,-0.06832,-0.08296
-0.09272,0.10004,-0.10736,-0.061,-0.01464,-0.03904,0.10736,0.15128,0.09272,-0.0488,-0.06832,-0.08296
-0.09272,0.0976,-0.10248,-0.05612,-0.00976,-0.04148,0.10736,0.16104,0.09272,-0.0488,-0.06832,-0.08296
-0.08784,0.09516,-0.10248,-0.05856,-0.01464,-0.0366,0.10736,0.16104,0.0976,-0.0488,-0.06832,-0.08296
-0.08784,0.09516,-0.10248,-0.05856,-0.01464,-0.0366,0.10736,0.16104,0.10248,-0.0488,-0.06832,-0.08296
-0.08784,0.09516,-0.10248,-0.05856,-0.01464,-0.0366,0.10736,0.16592,0.10248,-0.0488,-0.06832,-0.08296
-0.08784,0.09516,-0.10248,-0.05856,-0.01464,-0.0366,0.10736,0.1708,0.10736,-0.0488,-0.06344,-0.07808
-0.09272,0.0976,-0.10248,-0.05612,-0.00976,-0.04148,0.11224,0.1708,0.11712,-0.0488,-0.05856,-0.0732
-0.09272,0.0976,-0.10248,-0.05612,-0.00976,-0.04148,0.11712,0.18056,0.122,-0.0488,-0.05856,-0.0732
-0.09272,0.0976,-0.10248,-0.05612,-0.00976,-0.04148,0.11712,0.18056,0.122,-0.0488,-0.06344,-0.07808
-0.09272,0.0976,-0.10248,-0.05612,-0.00976,-0.04148,0.11712,0.19032,0.122,-0.0488,-0.06832,-0.07808
-0.0976,0.10004,-0.10248,-0.05368,-0.00488,-0.04636,0.122,0.1952,0.12688,-0.05368,-0.0732,-0.07808
-0.0976,0.10248,-0.10736,-0.05856,-0.00976,-0.04392,0.12688,0.20984,0.13176,-0.05368,-0.0732,-0.07808
-0.0976,0.10248,-0.10736,-0.05856,-0.00976,-0.04392,0.12688,0.2196,0.13176,-0.06344,-0.07808,-0.07808
-0.10248,0.10492,-0.10736,-0.05612,-0.00488,-0.0488,0.13176,0.22448,0.14152,-0.06832,-0.07808,-0.09272
-0.10248,0.10736,-0.11224,-0.061,-0.00976,-0.04636,0.13664,0.22936,0.1464,-0.0732,-0.08784,-0.10248
-0.10248,0.1098,-0.11712,-0.06588,-0.01464,-0.04392,0.14152,0.23912,0.15128,-0.07808,-0.08784,-0.10248
-0.10736,0.11224,-0.11712,-0.06344,-0.00976,-0.0488,0.14152,0.244,0.15616,-0.07808,-0.08784,-0.10736
-0.11224,0.11468,-0.11712,-0.061,-0.00488,-0.05368,0.15128,0.24888,0.16104,-0.07808,-0.10248,-0.11224
-0.11712,0.11956,-0.122,-0.06344,-0.00488,-0.05612,0.16104,0.25864,0.16592,-0.08296,-0.10736,-0.11712
-0.12688,0.12444,-0.122,-0.05856,0.00488,-0.06588,0.16104,0.2684,0.16104,-0.08784,-0.10736,-0.11712
-0.12688,0.12688,-0.12688,-0.06344,0,-0.06344,0.1708,0.27328,0.16104,-0.09272,-0.11224,-0.122
-0.13176,0.12932,-0.12688,-0.061,0.00488,-0.06832,0.18056,0.27816,0.16104,-0.0976,-0.122,-0.13176
-0.13176,0.12932,-0.12688,-0.061,0.00488,-0.06832,0.18056,0.27816,0.16104,-0.10248,-0.122,-0.13176
-0.13664,0.13176,-0.12688,-0.05856,0.00976,-0.0732,0.18056,0.27816,0.16592,-0.10736,-0.122,-0.13176
-0.14152,0.1342,-0.12688,-0.05612,0.01464,-0.07808,0.18056,0.28304,0.1708,-0.10736,-0.122,-0.13176
-0.14152,0.13176,-0.122,-0.05124,0.01952,-0.08052,0.18056,0.28304,0.1708,-0.10736,-0.12688,-0.13176
-0.14152,0.12932,-0.11712,-0.04636,0.0244,-0.08296,0.18056,0.28304,0.1708,-0.10736,-0.12688,-0.13176
-0.13664,0.122,-0.10736,-0.03904,0.02928,-0.08296,0.18544,0.28304,0.1708,-0.11224,-0.122,-0.12688
-0.13176,0.11468,-0.0976,-0.03172,0.03416,-0.08296,0.18056,0.27816,0.17568,-0.122,-0.11712,-0.11712
-0.12688,0.10736,-0.08784,-0.0244,0.03904,-0.08296,0.1708,0.27816,0.17568,-0.0976,-0.10736,-0.10736
-0.11712,0.09516,-0.0732,-0.01464,0.04392,-0.08052,0.16104,0.2684,0.18056,-0.07808,-0.0976,-0.09272
-0.10736,0.0854,-0.06344,-0.00976,0.04392,-0.07564,0.15128,0.26352,0.18544,-0.06832,-0.08296,-0.08296
-0.0976,0.0732,-0.0488,0,0.0488,-0.0732,0.13664,0.25376,0.19032,-0.05368,-0.0732,-0.06832
-0.08784,0.05612,-0.0244,0.01952,0.06344,-0.07564,0.11712,0.24888,0.1952,-0.03416,-0.05368,-0.05368
-0.06344,0.03172,0,0.03172,0.06344,-0.06344,0.0976,0.23424,0.20008,-0.01952,-0.03416,-0.03904
-0.04392,0.0122,0.01952,0.04148,0.06344,-0.05368,0.08784,0.2196,0.1952,0,-0.01952,-0.0244
-0.03904,0.00244,0.03416,0.05368,0.0732,-0.05612,0.06832,0.20008,0.19032,0.01464,0,-0.00488
-0.02928,-0.00732,0.04392,0.05856,0.0732,-0.05124,0.05368,0.17568,0.18544,0.03416,0.01952,0.00488
-0.01952,-0.01708,0.05368,0.06344,0.0732,-0.04636,0.03904,0.15128,0.17568,0.0488,0.02928,0.01464
-0.00488,-0.03172,0.06832,0.07076,0.0732,-0.03904,0.02928,0.13176,0.16592,0.05368,0.03904,0.02928
0.00488,-0.0366,0.06832,0.06588,0.06344,-0.02928,0.01464,0.10736,0.15616,0.06344,0.04392,0.03904
0.01464,-0.04148,0.06832,0.061,0.05368,-0.01952,0.00488,0.08296,0.12688,0.06344,0.0488,0.03904
0.01464,-0.04148,0.06832,0.061,0.05368,-0.01952,-0.00488,0.06344,0.10248,0.06344,0.05368,0.04392
0.01952,-0.04392,0.06832,0.05856,0.0488,-0.01464,-0.01952,0.04392,0.08296,0.06344,0.05368,0.04392
0.01952,-0.04392,0.06832,0.05856,0.0488,-0.01464,-0.02928,0.02928,0.06344,0.05856,0.0488,0.04392
0.01464,-0.03904,0.06344,0.05612,0.0488,-0.01708,-0.04392,0.00488,0.04392,0.04392,0.03904,0.03904
0.01464,-0.03416,0.05368,0.04636,0.03904,-0.0122,-0.0488,-0.00488,0.02928,0.03904,0.03904,0.03904
0.00488,-0.02684,0.0488,0.04636,0.04392,-0.01952,-0.04392,-0.01464,0.01952,0.03416,0.02928,0.03416
0.00488,-0.02196,0.03904,0.0366,0.03416,-0.01464,-0.04392,-0.01952,0.00976,0.0244,0.01952,0.0244
0.00488,-0.01952,0.03416,0.03172,0.02928,-0.0122,-0.04392,-0.01952,-0.00488,0.01464,0.01464,0.01952
0,-0.01464,0.02928,0.02928,0.02928,-0.01464,-0.04392,-0.01464,-0.00976,0.01464,0.01464,0.01952
-0.00488,-0.00976,0.0244,0.02684,0.02928,-0.01708,-0.03416,-0.01952,-0.01464,0.00976,0.00976,0.01464
-0.00488,-0.00976,0.0244,0.02684,0.02928,-0.01708,-0.02928,-0.01952,-0.01952,0,0.00488,0.01464
-0.00488,-0.00976,0.0244,0.02684,0.02928,-0.01708,-0.02928,-0.01952,-0.01952,0,0.00488,0.00976
-0.00488,-0.00976,0.0244,0.02684,0.02928,-0.01708,-0.02928,-0.0244,-0.0244,0,0.00488,0.00976
-0.00488,-0.00976,0.0244,0.02684,0.02928,-0.01708,-0.03416,-0.0244,-0.0244,0,0.00488,0.00976
-0.00976,-0.00488,0.01952,0.0244,0.02928,-0.01952,-0.03904,-0.0244,-0.0244,0,0,0.00488
-0.00976,-0.00488,0.01952,0.0244,0.02928,-0.01952,-0.03904,-0.02928,-0.0244,-0.00488,0,0.00488
-0.00976,-0.00488,0.01952,0.0244,0.02928,-0.01952,-0.03904,-0.02928,-0.02928,-0.00488,0,0.00488
-0.00976,-0.00488,0.01952,0.0244,0.02928,-0.01952,-0.03904,-0.0244,-0.02928,-0.00488,-0.00488,0.00488
-0.00976,-0.00488,0.01952,0.0244,0.02928,-0.01952,-0.03904,-0.0244,-0.0244,-0.00976,-0.00488,0.00488
-0.00976,-0.00244,0.01464,0.01952,0.0244,-0.01708,-0.03416,-0.01952,-0.02928,-0.00976,-0.00488,0
-0.00976,0,0.00976,0.01464,0.01952,-0.01464,-0.02928,-0.01952,-0.03416,-0.00976,-0.00488,0
-0.00976,0,0.00976,0.01464,0.01952,-0.01464,-0.02928,-0.01952,-0.03416,-0.00976,-0.00488,0
-0.00976,0.00244,0.00488,0.00976,0.01464,-0.0122,-0.0244,-0.01952,-0.03416,-0.00976,-0.00488,0
-0.01464,0.00732,0,0.00732,0.01464,-0.01464,-0.01952,-0.00976,-0.02928,-0.00976,-0.00976,-0.00488
-0.01952,0.00976,0,0.00976,0.01952,-0.01952,-0.01952,-0.00488,-0.0244,-0.00976,-0.00976,-0.00488
-0.0244,0.00976,0.00488,0.01708,0.02928,-0.02684,-0.01952,-0.00488,-0.01952,-0.00976,-0.00976,0
-0.02928,0.00976,0.00976,0.0244,0.03904,-0.03416,-0.01464,0,-0.01952,-0.01464,-0.00976,0
-0.02928,0.00976,0.00976,0.0244,0.03904,-0.03416,-0.01464,0.00488,-0.01464,-0.01464,-0.00976,-0.00488
-0.0244,0.00976,0.00488,0.01708,0.02928,-0.02684,-0.00976,0.00488,-0.01464,-0.01464,-0.01464,-0.00488
-0.0244,0.01464,-0.00488,0.00732,0.01952,-0.02196,-0.00488,0.00488,-0.00976,-0.01952,-0.01952,-0.00976
-0.02928,0.02196,-0.01464,0,0.01464,-0.02196,-0.00488,0.00976,-0.00976,-0.01952,-0.01952,-0.00976
-0.02928,0.02196,-0.01464,0,0.01464,-0.02196,-0.00488,0.01464,-0.00976,-0.01952,-0.01952,-0.01464
-0.02928,0.02196,-0.01464,0,0.01464,-0.02196,-0.00488,0.01464,-0.00976,-0.01952,-0.01952,-0.01464
-0.02928,0.02196,-0.01464,0,0.01464,-0.02196,0,0.01464,-0.00976,-0.01952,-0.01952,-0.01464
-0.02928,0.0244,-0.01952,-0.00488,0.00976,-0.01952,0,0.01464,-0.00488,-0.01952,-0.01952,-0.01952
-0.03416,0.02684,-0.01952,-0.00244,0.01464,-0.0244,0.00488,0.01952,-0.00488,-0.01952,-0.01464,-0.01952
-0.03416,0.02684,-0.01952,-0.00244,0.01464,-0.0244,0.00488,0.0244,-0.00488,-0.01952,-0.01464,-0.01952
-0.03904,0.02928,-0.01952,0,0.01952,-0.02928,0.00976,0.02928,0,-0.01464,-0.01464,-0.01952
-0.03904,0.03172,-0.0244,-0.00488,0.01464,-0.02684,0.01464,0.02928,0,-0.00976,-0.01464,-0.01952
-0.04392,0.03416,-0.0244,-0.00244,0.01952,-0.03172,0.01464,0.02928,0.00488,-0.01464,-0.01464,-0.0244
-0.0488,0.03904,-0.02928,-0.00488,0.01952,-0.03416,0.01464,0.02928,0.00976,-0.01464,-0.01464,-0.0244
-0.05368,0.04148,-0.02928,-0.00244,0.0244,-0.03904,0.01464,0.02928,0.00976,-0.01464,-0.01464,-0.01952
-0.05368,0.04392,-0.03416,-0.00732,0.01952,-0.0366,0.01464,0.02928,0.00976,-0.01464,-0.01464,-0.01464
-0.05368,0.04392,-0.03416,-0.00732,0.01952,-0.0366,0.01464,0.02928,0.00488,-0.01952,-0.0244,-0.0244
-0.0488,0.04148,-0.03416,-0.00976,0.01464,-0.03172,0.01464,0.02928,0.00488,-0.0244,-0.0244,-0.0244
-0.0488,0.04148,-0.03416,-0.00976,0.01464,-0.03172,0.01464,0.0244,0.00488,-0.02928,-0.0244,-0.0244
-0.05368,0.04392,-0.03416,-0.00732,0.01952,-0.0366,0.01464,0.0244,0.00488,-0.02928,-0.0244,-0.02928
-0.05368,0.04636,-0.03904,-0.0122,0.01464,-0.03416,0.01952,0.0244,0.00488,-0.02928,-0.0244,-0.03416
-0.05368,0.04636,-0.03904,-0.0122,0.01464,-0.03416,0.0244,0.0244,0,-0.02928,-0.0244,-0.03416
-0.05368,0.04636,-0.03904,-0.0122,0.01464,-0.03416,0.0244,0.01952,0,-0.03416,-0.02928,-0.03904
-0.05368,0.0488,-0.04392,-0.01708,0.00976,-0.03172,0.0244,0.01952,0,-0.03416,-0.02928,-0.03904
-0.05368,0.0488,-0.04392,-0.01708,0.00976,-0.03172,0.0244,0.01952,-0.00488,-0.03416,-0.02928,-0.03416
-0.05368,0.04636,-0.03904,-0.0122,0.01464,-0.03416,0.0244,0.01952,-0.00488,-0.03416,-0.02928,-0.03416
-0.05856,0.04636,-0.03416,-0.00488,0.0244,-0.04148,0.0244,0.01952,-0.00976,-0.03416,-0.03416,-0.03416
-0.05856,0.04636,-0.03416,-0.00488,0.0244,-0.04148,0.0244,0.01952,-0.01952,-0.03416,-0.03416,-0.03416
-0.05856,0.04636,-0.03416,-0.00488,0.0244,-0.04148,0.0244,0.00976,-0.0244,-0.03416,-0.03416,-0.03416
-0.05368,0.04392,-0.03416,-0.00732,0.01952,-0.0366,0.01952,0.00976,-0.0244,-0.03904,-0.03416,-0.03416
-0.0488,0.03904,-0.02928,-0.00488,0.01952,-0.03416,0.01952,0.00488,-0.02928,-0.03904,-0.03416,-0.03416
-0.0488,0.03904,-0.02928,-0.00488,0.01952,-0.03416,0.01464,0.00488,-0.02928,-0.03904,-0.03904,-0.03416
-0.0488,0.04148,-0.03416,-0.00976,0.01464,-0.03172,0.01464,0.00488,-0.0244,-0.03904,-0.03904,-0.03416
-0.0488,0.04392,-0.03904,-0.01464,0.00976,-0.02928,0.01464,0.00488,-0.0244,-0.03904,-0.03904,-0.03904
-0.0488,0.04392,-0.03904,-0.01464,0.00976,-0.02928,0.01952,0,-0.0244,-0.03904,-0.03904,-0.03416
-0.05856,0.0488,-0.03904,-0.00976,0.01952,-0.03904,0.0244,0,-0.02928,-0.03416,-0.03416,-0.02928
-0.05856,0.04636,-0.03416,-0.00488,0.0244,-0.04148,0.0244,0,-0.02928,-0.03416,-0.03416,-0.02928
-0.0488,0.03904,-0.02928,-0.00488,0.01952,-0.03416,0.02928,0,-0.02928,-0.02928,-0.03904,-0.02928
-0.03904,0.0244,-0.00976,0.00976,0.02928,-0.03416,0.03416,0.00976,-0.0244,-0.02928,-0.0244,-0.01952
-0.02928,0.00976,0.00976,0.0244,0.03904,-0.03416,0.03904,0.01952,-0.01952,-0.02928,-0.00976,-0.00976
-0.02928,0.00488,0.01952,0.03416,0.0488,-0.03904,0.03904,0.01952,-0.00976,-0.01952,-0.00976,-0.00976
-0.02928,0,0.02928,0.04392,0.05856,-0.04392,0.03904,0.01952,0,-0.00976,-0.00976,-0.00976
-0.02928,-0.00244,0.03416,0.0488,0.06344,-0.04636,0.04392,0.0244,0,-0.00976,-0.00976,-0.00976
-0.0244,-0.00732,0.03904,0.05124,0.06344,-0.04392,0.04392,0.0244,0,-0.00488,-0.00488,-0.00488
-0.0244,-0.0122,0.0488,0.061,0.0732,-0.0488,0.04392,0.02928,0,-0.00488,-0.00488,-0.00488
-0.01952,-0.01952,0.05856,0.06832,0.07808,-0.0488,0.04392,0.02928,0,0,0,0
-0.0244,-0.0244,0.0732,0.0854,0.0976,-0.061,0.03904,0.01952,0,0.00976,0.00488,0.00488
-0.0244,-0.02928,0.08296,0.09516,0.10736,-0.06588,0.01952,0,0,0.01464,0.01952,0.01952
-0.01952,-0.04148,0.10248,0.11224,0.122,-0.07076,-0.01464,-0.03416,-0.00976,0.00976,0.01952,0.0244
-0.00976,-0.04148,0.09272,0.0976,0.10248,-0.05612,-0.0244,-0.03904,-0.01952,0,0.01464,0.0244
-0.00488,-0.04392,0.09272,0.09516,0.0976,-0.05124,-0.03904,-0.03904,-0.02928,0,0.01464,0.01464
0.00976,-0.05612,0.10248,0.0976,0.09272,-0.04148,-0.0488,-0.03904,-0.02928,0,0.01464,0.0244
0.01464,-0.07076,0.12688,0.11956,0.11224,-0.0488,-0.05856,-0.0488,-0.0244,0.00488,0.01952,0.03416
0.01464,-0.0732,0.13176,0.12444,0.11712,-0.05124,-0.06832,-0.05368,-0.02928,0.00488,0.0244,0.03904
0.01952,-0.07808,0.13664,0.12688,0.11712,-0.0488,-0.06832,-0.05368,-0.02928,0.00976,0.0244,0.03904
0.01952,-0.07808,0.13664,0.12688,0.11712,-0.0488,-0.06344,-0.05368,-0.02928,0.00976,0.0244,0.03904
0.01952,-0.07564,0.13176,0.122,0.11224,-0.04636,-0.06344,-0.05368,-0.03416,0.00976,0.0244,0.03904
0.01464,-0.07076,0.12688,0.11956,0.11224,-0.0488,-0.05856,-0.05368,-0.03416,0.01464,0.0244,0.03904
0.00976,-0.061,0.11224,0.10736,0.10248,-0.04636,-0.05856,-0.05368,-0.03904,0.01464,0.01952,0.03416
0.00976,-0.05612,0.10248,0.0976,0.09272,-0.04148,-0.06344,-0.06344,-0.05368,0,0.00976,0.0244
0.00976,-0.05612,0.10248,0.0976,0.09272,-0.04148,-0.06344,-0.06832,-0.05856,0,0.00488,0.0244
0.00488,-0.0488,0.09272,0.09028,0.08784,-0.04148,-0.06344,-0.06832,-0.05856,0,0.00488,0.01952
0,-0.03904,0.07808,0.07808,0.07808,-0.03904,-0.05856,-0.06344,-0.05368,-0.00976,0.00488,0.01464
-0.00488,-0.02684,0.05856,0.061,0.06344,-0.03416,-0.0488,-0.05368,-0.05368,-0.01952,-0.00976,0
-0.01464,-0.00488,0.0244,0.03172,0.03904,-0.02684,-0.0244,-0.03904,-0.05368,-0.02928,-0.01952,-0.00976
-0.0244,0.00732,0.00976,0.02196,0.03416,-0.02928,-0.01952,-0.02928,-0.05368,-0.03416,-0.02928,-0.01952
-0.02928,0.02684,-0.0244,-0.00976,0.00488,-0.01708,-0.01464,-0.02928,-0.06832,-0.0488,-0.0488,-0.03904
-0.03904,0.04392,-0.0488,-0.02928,-0.00976,-0.01464,-0.00488,-0.02928,-0.08296,-0.06344,-0.06344,-0.05368
-0.03904,0.04636,-0.05368,-0.03416,-0.01464,-0.0122,-0.00488,-0.02928,-0.08296,-0.06832,-0.06344,-0.05368
-0.03904,0.04636,-0.05368,-0.03416,-0.01464,-0.0122,0,-0.02928,-0.08296,-0.06832,-0.06344,-0.05368
-0.04392,0.0488,-0.05368,-0.03172,-0.00976,-0.01708,0,-0.02928,-0.08296,-0.06832,-0.06344,-0.05368
-0.05368,0.05612,-0.05856,-0.03172,-0.00488,-0.0244,0,-0.03416,-0.08784,-0.0732,-0.06832,-0.05856
-0.05368,0.06344,-0.0732,-0.04636,-0.01952,-0.01708,0,-0.03416,-0.08784,-0.0732,-0.0732,-0.06344
-0.05368,0.07076,-0.08784,-0.061,-0.03416,-0.00976,0.00976,-0.02928,-0.08784,-0.07808,-0.07808,-0.06344
-0.05368,0.07076,-0.08784,-0.061,-0.03416,-0.00976,0.00976,-0.0244,-0.08784,-0.07808,-0.07808,-0.06344
-0.05368,0.07076,-0.08784,-0.061,-0.03416,-0.00976,0.00976,-0.0244,-0.08784,-0.07808,-0.08296,-0.06344
-0.05368,0.06832,-0.08296,-0.05612,-0.02928,-0.0122,0.01464,-0.0244,-0.08296,-0.07808,-0.07808,-0.06832
-0.05368,0.06588,-0.07808,-0.05124,-0.0244,-0.01464,0.01464,-0.01952,-0.0732,-0.07808,-0.0732,-0.06832
-0.05368,0.06588,-0.07808,-0.05124,-0.0244,-0.01464,0.01952,-0.01952,-0.0732,-0.07808,-0.0732,-0.06832
-0.05368,0.06588,-0.07808,-0.05124,-0.0244,-0.01464,0.01952,-0.01952,-0.0732,-0.07808,-0.0732,-0.06832
-0.05368,0.06588,-0.07808,-0.05124,-0.0244,-0.01464,0.01952,-0.01952,-0.0732,-0.08296,-0.06832,-0.06832
-0.05368,0.06588,-0.07808,-0.05124,-0.0244,-0.01464,0.01952,-0.01952,-0.0732,-0.08296,-0.06832,-0.06832
-0.05368,0.06588,-0.07808,-0.05124,-0.0244,-0.01464,0.02928,-0.01952,-0.06832,-0.08296,-0.06832,-0.06832
-0.06344,0.0732,-0.08296,-0.05124,-0.01952,-0.02196,0.03416,-0.01952,-0.06832,-0.08296,-0.06832,-0.06832
-0.07808,0.08052,-0.08296,-0.04392,-0.00488,-0.0366,0.05368,-0.00488,-0.06344,-0.07808,-0.06832,-0.06344
-0.08296,0.0732,-0.06344,-0.02196,0.01952,-0.05124,0.0732,0,-0.0488,-0.05856,-0.05856,-0.05856
-0.08296,0.04392,-0.00488,0.0366,0.07808,-0.08052,0.05856,0,-0.01952,-0.01464,-0.00976,-0.00976
-0.03904,-0.0244,0.08784,0.10736,0.12688,-0.08296,-0.00976,-0.03416,0.03416,0.09272,0.08296,0.06832
0.05856,-0.13176,0.20496,0.17568,0.1464,-0.04392,-0.1708,-0.1952,0.01952,0.23912,0.2196,0.18544
0.1708,-0.25864,0.34648,0.26108,0.17568,-0.00244,-0.37088,-0.42456,-0.08296,0.38064,0.35624,0.3172
0.3172,-0.40992,0.50264,0.34404,0.18544,0.06588,-0.5612,-0.6344,-0.15128,0.54656,0.52216,0.45872
0.54168,-0.57828,0.61488,0.34404,0.0732,0.23424,-0.80032,-0.8296,-0.1708,0.72224,0.6832,0.59536
0.79544,-0.8052,0.81496,0.41724,0.01952,0.38796,-1.09312,-1.06872,-0.15616,0.96624,0.91744,0.77592
1.01504,-1.05896,1.10288,0.59536,0.08784,0.4636,-1.40544,-1.38104,-0.1952,1.23952,1.18584,1.01992
1.17608,-1.281,1.38592,0.79788,0.20984,0.48312,-1.67872,-1.62504,-0.2196,1.47864,1.42496,1.2444
1.1956,-1.3054,1.4152,0.8174,0.2196,0.488,-1.7324,-1.74216,-0.45872,1.30784,1.32736,1.21512
1.01504,-1.06872,1.1224,0.61488,0.10736,0.45384,-1.61528,-1.79096,-0.83936,0.6832,0.81984,0.86864
0.72712,-0.64904,0.57096,0.2074,-0.15616,0.44164,-1.30296,-1.64456,-1.21024,-0.03904,0.17568,0.35624
0.48312,-0.2684,0.05368,-0.18788,-0.42944,0.45628,-0.92232,-1.36152,-1.342,-0.5612,-0.29768,-0.06832
0.35136,-0.06832,-0.21472,-0.3904,-0.56608,0.45872,-0.72712,-1.14192,-1.20048,-0.66368,-0.43432,-0.24888
0.22936,0.00976,-0.24888,-0.36356,-0.47824,0.3538,-0.56608,-0.93696,-0.98088,-0.58072,-0.40504,-0.24888
0.08296,0.02928,-0.14152,-0.183,-0.22448,0.15372,-0.35624,-0.64416,-0.64416,-0.37576,-0.24888,-0.1464
0.00976,0.05124,-0.11224,-0.11712,-0.122,0.06588,-0.21472,-0.42456,-0.42944,-0.24888,-0.17568,-0.11224
-0.06344,0.07564,-0.08784,-0.05612,-0.0244,-0.01952,-0.10248,-0.27328,-0.28304,-0.17568,-0.13176,-0.08784
-0.07808,0.09028,-0.10248,-0.06344,-0.0244,-0.02684,-0.00976,-0.12688,-0.15128,-0.122,-0.10736,-0.08784
-0.07808,0.09516,-0.11224,-0.0732,-0.03416,-0.02196,0.05368,-0.00488,-0.05368,-0.08784,-0.08784,-0.08296
-0.06344,0.08052,-0.0976,-0.06588,-0.03416,-0.01464,0.08296,0.05856,-0.00488,-0.06832,-0.0732,-0.0732
-0.05856,0.07808,-0.0976,-0.06832,-0.03904,-0.00976,0.0976,0.07808,0.00488,-0.06832,-0.0732,-0.0732
-0.05856,0.07808,-0.0976,-0.06832,-0.03904,-0.00976,0.10736,0.08784,0.00976,-0.06832,-0.07808,-0.07808
-0.06344,0.08052,-0.0976,-0.06588,-0.03416,-0.01464,0.11224,0.0976,0.01464,-0.06344,-0.07808,-0.08296
-0.06832,0.08296,-0.0976,-0.06344,-0.02928,-0.01952,0.122,0.10736,0.0244,-0.06344,-0.07808,-0.08296
-0.06832,0.08052,-0.09272,-0.05856,-0.0244,-0.02196,0.122,0.11224,0.03416,-0.05368,-0.0732,-0.08296
-0.06832,0.08052,-0.09272,-0.05856,-0.0244,-0.02196,0.122,0.122,0.04392,-0.0488,-0.06832,-0.07808
-0.06832,0.07808,-0.08784,-0.05368,-0.01952,-0.0244,0.12688,0.13176,0.05368,-0.0488,-0.05856,-0.07808
-0.06832,0.07808,-0.08784,-0.05368,-0.01952,-0.0244,0.13176,0.13664,0.05856,-0.0488,-0.05856,-0.0732
-0.06832,0.07808,-0.08784,-0.05368,-0.01952,-0.0244,0.13176,0.14152,0.05856,-0.04392,-0.05368,-0.06832
-0.06832,0.07564,-0.08296,-0.0488,-0.01464,-0.02684,0.13664,0.1464,0.06344,-0.03904,-0.05368,-0.06832
-0.06344,0.0732,-0.08296,-0.05124,-0.01952,-0.02196,0.13664,0.1464,0.06832,-0.03904,-0.05368,-0.06344
-0.06344,0.0732,-0.08296,-0.05124,-0.01952,-0.02196,0.13664,0.15128,0.06832,-0.03904,-0.05368,-0.06832
-0.06832,0.07564,-0.08296,-0.0488,-0.01464,-0.02684,0.13664,0.15616,0.0732,-0.03416,-0.0488,-0.0732
-0.06832,0.07564,-0.08296,-0.0488,-0.01464,-0.02684,0.13664,0.16104,0.07808,-0.02928,-0.0488,-0.06832
-0.06832,0.0732,-0.07808,-0.04392,-0.00976,-0.02928,0.13664,0.16104,0.08296,-0.02928,-0.0488,-0.06832
-0.06832,0.0732,-0.07808,-0.04392,-0.00976,-0.02928,0.13664,0.16104,0.08296,-0.03416,-0.0488,-0.06832
-0.06832,0.0732,-0.07808,-0.04392,-0.00976,-0.02928,0.13664,0.1708,0.08296,-0.03416,-0.0488,-0.06832
-0.06832,0.0732,-0.07808,-0.04392,-0.00976,-0.02928,0.13664,0.1708,0.08784,-0.02928,-0.0488,-0.06344
-0.06832,0.0732,-0.07808,-0.04392,-0.00976,-0.02928,0.13664,0.1708,0.09272,-0.02928,-0.04392,-0.05856
-0.06832,0.0732,-0.07808,-0.04392,-0.00976,-0.02928,0.13664,0.17568,0.09272,-0.02928,-0.04392,-0.05856
-0.06832,0.0732,-0.07808,-0.04392,-0.00976,-0.02928,0.13664,0.17568,0.0976,-0.02928,-0.0488,-0.05856
-0.06832,0.0732,-0.07808,-0.04392,-0.00976,-0.02928,0.13664,0.18056,0.0976,-0.02928,-0.0488,-0.06344
-0.0732,0.07564,-0.07808,-0.04148,-0.00488,-0.03416,0.13664,0.18056,0.10248,-0.02928,-0.0488,-0.06344
-0.06832,0.07076,-0.0732,-0.03904,-0.00488,-0.03172,0.14152,0.18544,0.10248,-0.02928,-0.0488,-0.06344
-0.05856,0.06588,-0.0732,-0.04392,-0.01464,-0.02196,0.1464,0.18056,0.10736,-0.02928,-0.0488,-0.06344
-0.05856,0.06588,-0.0732,-0.04392,-0.01464,-0.02196,0.1464,0.18544,0.11224,-0.02928,-0.0488,-0.06344
-0.05856,0.06588,-0.0732,-0.04392,-0.01464,-0.02196,0.1464,0.1952,0.11224,-0.02928,-0.0488,-0.06344
-0.05856,0.06588,-0.0732,-0.04392,-0.01464,-0.02196,0.1464,0.20008,0.11712,-0.02928,-0.0488,-0.06344
-0.06344,0.06832,-0.0732,-0.04148,-0.00976,-0.02684,0.15128,0.20008,0.12688,-0.02928,-0.0488,-0.06344
-0.06344,0.06832,-0.0732,-0.04148,-0.00976,-0.02684,0.15616,0.20984,0.13176,-0.02928,-0.0488,-0.06344
-0.06344,0.06832,-0.0732,-0.04148,-0.00976,-0.02684,0.15616,0.20984,0.13176,-0.02928,-0.05368,-0.06832
-0.06344,0.06832,-0.0732,-0.04148,-0.00976,-0.02684,0.15616,0.2196,0.13176,-0.02928,-0.05368,-0.0732
-0.06832,0.07076,-0.0732,-0.03904,-0.00488,-0.03172,0.16104,0.22448,0.13664,-0.03416,-0.05368,-0.07808
-0.0732,0.07564,-0.07808,-0.04148,-0.00488,-0.03416,0.16592,0.23912,0.14152,-0.03416,-0.05368,-0.07808
-0.07808,0.07808,-0.07808,-0.03904,0,-0.03904,0.16592,0.24888,0.14152,-0.04392,-0.05856,-0.07808
-0.08296,0.08052,-0.07808,-0.0366,0.00488,-0.04392,0.1708,0.25376,0.15128,-0.04392,-0.05856,-0.08296
-0.08296,0.08296,-0.08296,-0.04148,0,-0.04148,0.17568,0.25864,0.15616,-0.04392,-0.06832,-0.08296
-0.08296,0.08296,-0.08296,-0.04148,0,-0.04148,0.18056,0.2684,0.15616,-0.0488,-0.06832,-0.08296
-0.08784,0.08296,-0.07808,-0.03416,0.00976,-0.0488,0.18056,0.27328,0.15616,-0.0488,-0.06832,-0.08784
-0.09272,0.0854,-0.07808,-0.03172,0.01464,-0.05368,0.18544,0.27328,0.16104,-0.05856,-0.08296,-0.09272
-0.0976,0.09028,-0.08296,-0.03416,0.01464,-0.05612,0.19032,0.27816,0.16592,-0.0732,-0.08784,-0.0976
-0.10736,0.09516,-0.08296,-0.02928,0.0244,-0.06588,0.19032,0.28792,0.16592,-0.07808,-0.08784,-0.10248
-0.10736,0.0976,-0.08784,-0.03416,0.01952,-0.06344,0.20008,0.2928,0.1708,-0.08296,-0.09272,-0.11224
-0.11224,0.10248,-0.09272,-0.0366,0.01952,-0.06588,0.20984,0.30256,0.1708,-0.08784,-0.10736,-0.122
-0.11224,0.10492,-0.0976,-0.04148,0.01464,-0.06344,0.20984,0.30744,0.1708,-0.09272,-0.11224,-0.122
-0.11224,0.10492,-0.0976,-0.04148,0.01464,-0.06344,0.20984,0.30744,0.1708,-0.0976,-0.11224,-0.122
-0.11224,0.10492,-0.0976,-0.04148,0.01464,-0.06344,0.20984,0.31232,0.1708,-0.0976,-0.11224,-0.122
-0.11224,0.10248,-0.09272,-0.0366,0.01952,-0.06588,0.20984,0.31232,0.1708,-0.0976,-0.11712,-0.122
-0.11224,0.10004,-0.08784,-0.03172,0.0244,-0.06832,0.20984,0.31232,0.1708,-0.0976,-0.11712,-0.122
-0.10736,0.09272,-0.07808,-0.0244,0.02928,-0.06832,0.20984,0.31232,0.1708,-0.09272,-0.11224,-0.11712
-0.10248,0.0854,-0.06832,-0.01708,0.03416,-0.06832,0.20008,0.30744,0.17568,-0.09272,-0.10736,-0.10736
-0.0976,0.07808,-0.05856,-0.00976,0.03904,-0.06832,0.1952,0.30256,0.17568,-0.07808,-0.0976,-0.10248
