i,aVR,ii,aVF,iii,aVL,V1,V2,V3,V4,V5,V6
0.01952,-0.01952,0.01952,0.00976,0,0.00976,-0.05856,-0.04392,-0.15616,-0.10736,-0.06344,-0.01952
0,-0.0122,0.0244,0.0244,0.0244,-0.0122,-0.0488,-0.0244,-0.13664,-0.0976,-0.06832,-0.01952
0.00488,-0.0122,0.01952,0.01708,0.01464,-0.00488,-0.0488,-0.0244,-0.15128,-0.11224,-0.06832,-0.02928
0.01464,-0.00488,-0.00488,-0.0122,-0.01952,0.01708,-0.0488,-0.03416,-0.18544,-0.11224,-0.06344,-0.03416
0.01952,-0.00244,-0.01464,-0.0244,-0.03416,0.02684,-0.03416,-0.02928,-0.18544,-0.10736,-0.06344,-0.01952
-0.00488,0.00976,-0.01464,-0.0122,-0.00976,0.00244,-0.02928,-0.02928,-0.18544,-0.12688,-0.07808,-0.0244
-0.00976,0.01708,-0.0244,-0.01952,-0.01464,0.00244,-0.02928,-0.03904,-0.20984,-0.15128,-0.08784,-0.02928
-0.0244,0.01952,-0.01464,-0.00244,0.00976,-0.01708,-0.02928,-0.05368,-0.21472,-0.1708,-0.10736,-0.06832
-0.03416,0.0366,-0.03904,-0.02196,-0.00488,-0.01464,-0.01464,-0.05368,-0.21472,-0.18056,-0.11712,-0.06832
-0.06344,0.06588,-0.06832,-0.0366,-0.00488,-0.02928,0,-0.04392,-0.21472,-0.1952,-0.122,-0.08296
-0.08296,0.08296,-0.08296,-0.04148,0,-0.04148,0.01464,-0.03904,-0.21472,-0.18544,-0.12688,-0.0732
-0.05856,0.07564,-0.09272,-0.06344,-0.03416,-0.0122,0.01952,-0.02928,-0.22448,-0.18544,-0.13664,-0.08296
-0.04392,0.07076,-0.0976,-0.07564,-0.05368,0.00488,0.0244,-0.02928,-0.22936,-0.18544,-0.14152,-0.08784
-0.0732,0.09028,-0.10736,-0.07076,-0.03416,-0.01952,0.02928,-0.01952,-0.22936,-0.20496,-0.14152,-0.08784
-0.08296,0.09272,-0.10248,-0.061,-0.01952,-0.03172,0.02928,-0.01952,-0.23424,-0.20984,-0.1464,-0.08784
-0.05856,0.07808,-0.0976,-0.06832,-0.03904,-0.00976,0.03416,-0.01952,-0.22448,-0.20496,-0.14152,-0.08296
-0.06832,0.08296,-0.0976,-0.06344,-0.02928,-0.01952,0.03416,-0.01952,-0.22448,-0.19032,-0.14152,-0.07808
-0.0732,0.08296,-0.09272,-0.05612,-0.01952,-0.02684,0.02928,-0.02928,-0.22936,-0.20008,-0.15128,-0.09272
-0.0732,0.08052,-0.08784,-0.05124,-0.01464,-0.02928,0.03416,-0.0244,-0.22936,-0.20496,-0.15616,-0.0976
-0.03904,0.06832,-0.0976,-0.07808,-0.05856,0.00976,0.04392,-0.0244,-0.2196,-0.1952,-0.1464,-0.08784
-0.09272,0.10248,-0.11224,-0.06588,-0.01952,-0.0366,0.03904,-0.01464,-0.2196,-0.1952,-0.14152,-0.08784
-0.11224,0.10736,-0.10248,-0.04636,0.00976,-0.061,0.04392,-0.01464,-0.2196,-0.19032,-0.14152,-0.08784
-0.09272,0.09516,-0.0976,-0.05124,-0.00488,-0.04392,0.04392,-0.00976,-0.20984,-0.19032,-0.1464,-0.08296
-0.07808,0.09028,-0.10248,-0.06344,-0.0244,-0.02684,0.04392,-0.00976,-0.2196,-0.20008,-0.15616,-0.08784
-0.0732,0.08784,-0.10248,-0.06588,-0.02928,-0.02196,0.04392,-0.00976,-0.2196,-0.1952,-0.15616,-0.10248
-0.06344,0.07808,-0.09272,-0.061,-0.02928,-0.01708,0.03904,-0.01464,-0.21472,-0.20008,-0.15128,-0.10248
-0.0732,0.07808,-0.08296,-0.04636,-0.00976,-0.03172,0.03904,-0.01464,-0.20984,-0.20008,-0.15128,-0.0976
-0.1464,0.12932,-0.11224,-0.03904,0.03416,-0.09028,0.0488,-0.00976,-0.20008,-0.20984,-0.15616,-0.0976
-0.0976,0.10492,-0.11224,-0.06344,-0.01464,-0.04148,0.04392,-0.00976,-0.20984,-0.20496,-0.15616,-0.0976
-0.0488,0.08052,-0.11224,-0.08784,-0.06344,0.00732,0.06344,0.00488,-0.18056,-0.20008,-0.17568,-0.11712
-0.09272,0.0854,-0.07808,-0.03172,0.01464,-0.05368,0.12688,0.0732,-0.03904,-0.20008,-0.21472,-0.15616
-0.17568,0.11956,-0.06344,0.0244,0.11224,-0.14396,0.19032,0.16104,0.07808,-0.22448,-0.2684,-0.20008
-0.19032,0.10248,-0.01464,0.08052,0.17568,-0.183,0.20496,0.20008,0.20008,-0.1708,-0.23912,-0.20008
-0.06832,0.00732,0.05368,0.08784,0.122,-0.09516,0.16104,0.22448,0.2928,0.01952,-0.11224,-0.12688
0.12688,-0.122,0.11712,0.05368,-0.00976,0.06832,0.11224,0.2928,0.40016,0.27816,0.08296,0.00976
0.32696,-0.3294,0.33184,0.16836,0.00488,0.16104,-0.0976,0.23912,0.60024,0.78568,0.50752,0.28792
0.5124,-0.54656,0.58072,0.32452,0.06832,0.22204,-0.27328,0.1708,1.0736,1.3908,0.99552,0.60512
0.72224,-0.81008,0.89792,0.5368,0.17568,0.27328,-0.5612,-0.16592,1.10288,1.83488,1.44936,0.89792
0.83936,-0.94672,1.05408,0.6344,0.21472,0.31232,-0.78568,-0.49288,0.65392,2.12768,1.78608,1.15656
0.8296,-0.91744,1.00528,0.59048,0.17568,0.32696,-0.9028,-0.69784,0.08784,2.06912,1.89344,1.24928
0.71736,-0.732,0.74664,0.38796,0.02928,0.34404,-0.69784,-0.58072,-0.33672,1.60064,1.6592,1.16144
0.52704,-0.55632,0.5856,0.32208,0.05856,0.23424,-0.4636,-0.4392,-0.30744,1.15168,1.28832,0.9028
0.33184,-0.33916,0.34648,0.18056,0.01464,0.1586,-0.20496,-0.24888,-0.56608,0.488,0.81984,0.61976
0.06832,-0.06588,0.06344,0.02928,-0.00488,0.0366,0.01952,-0.14152,-0.88816,-0.33184,0.22448,0.26352
-0.03904,0.04636,-0.05368,-0.03416,-0.01464,-0.0122,0.10736,-0.11712,-0.83936,-0.39528,0.0244,0.09272
-0.10736,0.11712,-0.12688,-0.0732,-0.01952,-0.04392,0.18056,-0.06832,-0.76616,-0.40992,-0.10248,0
-0.11224,0.122,-0.13176,-0.07564,-0.01952,-0.04636,0.22448,0.01952,-0.63928,-0.366,-0.1464,-0.06344
-0.10248,0.11956,-0.13664,-0.0854,-0.03416,-0.03416,0.23912,0.05856,-0.5124,-0.30256,-0.15616,-0.08784
-0.16592,0.17568,-0.18544,-0.10248,-0.01952,-0.0732,0.244,0.0976,-0.40992,-0.27816,-0.15616,-0.08784
-0.11224,0.12444,-0.13664,-0.08052,-0.0244,-0.04392,0.20496,0.122,-0.32208,-0.20984,-0.11224,-0.03904
-0.06832,0.09028,-0.11224,-0.07808,-0.04392,-0.0122,0.1708,0.122,-0.244,-0.1708,-0.11712,-0.0488
-0.06832,0.08052,-0.09272,-0.05856,-0.0244,-0.02196,0.15128,0.122,-0.18544,-0.1464,-0.0976,-0.04392
-0.05368,0.07564,-0.0976,-0.07076,-0.04392,-0.00488,0.11224,0.08784,-0.16104,-0.1464,-0.10736,-0.05368
-0.0488,0.06832,-0.08784,-0.06344,-0.03904,-0.00488,0.07808,0.06344,-0.16592,-0.14152,-0.11224,-0.06344
-0.03904,0.061,-0.08296,-0.06344,-0.04392,0.00244,0.06832,0.0488,-0.13176,-0.12688,-0.10248,-0.05368
-0.03904,0.06344,-0.08784,-0.06832,-0.0488,0.00488,0.06832,0.04392,-0.12688,-0.11712,-0.10736,-0.06344
-0.06832,0.0854,-0.10248,-0.06832,-0.03416,-0.01708,0.06832,0.04392,-0.11712,-0.122,-0.11712,-0.0732
-0.0488,0.0732,-0.0976,-0.0732,-0.0488,0,0.06344,0.04392,-0.10736,-0.122,-0.11224,-0.0732
-0.02928,0.05368,-0.07808,-0.06344,-0.0488,0.00976,0.05368,0.04392,-0.10248,-0.10736,-0.10248,-0.05856
-0.03416,0.05368,-0.0732,-0.05612,-0.03904,0.00244,0.05368,0.04392,-0.09272,-0.10248,-0.10248,-0.05856
-0.04392,0.06588,-0.08784,-0.06588,-0.04392,0,0.0488,0.04392,-0.0732,-0.0976,-0.10736,-0.05856
-0.0488,0.06832,-0.08784,-0.06344,-0.03904,-0.00488,0.04392,0.03904,-0.0732,-0.08296,-0.10248,-0.05856
-0.02928,0.05856,-0.08784,-0.0732,-0.05856,0.01464,0.03416,0.03904,-0.06832,-0.06832,-0.08784,-0.05368
-0.01464,0.04636,-0.07808,-0.07076,-0.06344,0.0244,0.03416,0.03904,-0.05856,-0.06344,-0.08296,-0.05368
-0.04392,0.05856,-0.0732,-0.05124,-0.02928,-0.00732,0.03416,0.03416,-0.04392,-0.06832,-0.08296,-0.05856
-0.01464,0.0366,-0.05856,-0.05124,-0.04392,0.01464,0.0244,0.03416,-0.04392,-0.0732,-0.08784,-0.06344
-0.01952,0.03904,-0.05856,-0.0488,-0.03904,0.00976,0.0244,0.02928,-0.03416,-0.06344,-0.06832,-0.0488
-0.01952,0.03904,-0.05856,-0.0488,-0.03904,0.00976,0.01464,0.03416,-0.0244,-0.03904,-0.06344,-0.03904
-0.04392,0.04636,-0.0488,-0.02684,-0.00488,-0.01952,0.03416,0.04392,-0.00488,-0.03904,-0.06832,-0.04392
-0.01952,0.02928,-0.03904,-0.02928,-0.01952,0,0.0244,0.04392,0.00488,-0.03416,-0.06832,-0.03904
0.00488,0.02196,-0.0488,-0.05124,-0.05368,0.02928,0.00976,0.04392,0.00488,-0.01952,-0.05856,-0.03904
-0.00488,0.02196,-0.03904,-0.0366,-0.03416,0.01464,0.01464,0.04392,0.01952,-0.00976,-0.0488,-0.02928
-0.00976,0.01464,-0.01952,-0.01464,-0.00976,0,0.00976,0.04392,0.0244,0,-0.05368,-0.02928
-0.00488,0.0122,-0.01952,-0.01708,-0.01464,0.00488,0.00976,0.0488,0.03416,0.00976,-0.05368,-0.0244
0.01952,-0.00488,-0.00976,-0.01952,-0.02928,0.0244,0,0.03904,0.0488,0.03416,-0.04392,-0.0244
0.01952,-0.00488,-0.00976,-0.01952,-0.02928,0.0244,0.00488,0.03904,0.05856,0.05368,-0.02928,-0.0244
0.0244,-0.01952,0.01464,0.00244,-0.00976,0.01708,-0.00976,0.03904,0.0732,0.05368,-0.02928,-0.01952
0.03416,-0.0244,0.01464,-0.00244,-0.01952,0.02684,-0.00976,0.04392,0.08296,0.07808,-0.00976,-0.00976
0.03416,-0.02684,0.01952,0.00244,-0.01464,0.0244,0.00488,0.05368,0.10248,0.10248,0.0244,0.00976
0.02928,-0.03172,0.03416,0.01952,0.00488,0.0122,0.00976,0.06344,0.12688,0.12688,0.03416,0.01952
0.01464,-0.02928,0.04392,0.0366,0.02928,-0.00732,-0.00488,0.05368,0.13176,0.12688,0.03416,0.01952
0.01952,-0.03416,0.0488,0.03904,0.02928,-0.00488,-0.01952,0.05856,0.15616,0.15616,0.0488,0.03416
0.03904,-0.04636,0.05368,0.03416,0.01464,0.0122,-0.0244,0.05856,0.16104,0.17568,0.06832,0.03416
0.0244,-0.0366,0.0488,0.0366,0.0244,0,-0.03416,0.05368,0.1708,0.18544,0.07808,0.03416
0.04392,-0.05368,0.06344,0.04148,0.01952,0.0122,-0.0244,0.06344,0.20496,0.22448,0.09272,0.05368
0.05856,-0.06832,0.07808,0.0488,0.01952,0.01952,-0.03416,0.05856,0.2196,0.244,0.10248,0.05856
0.08296,-0.09272,0.10248,0.061,0.01952,0.03172,-0.04392,0.05856,0.23424,0.25376,0.10248,0.05856
0.06344,-0.08784,0.11224,0.08052,0.0488,0.00732,-0.04392,0.05856,0.25864,0.28792,0.13664,0.06832
0.08296,-0.10248,0.122,0.08052,0.03904,0.02196,-0.05368,0.06344,0.28304,0.33184,0.16104,0.08296
0.11712,-0.12688,0.13664,0.07808,0.01952,0.0488,-0.0732,0.06344,0.30744,0.35624,0.18056,0.09272
0.10248,-0.11956,0.13664,0.0854,0.03416,0.03416,-0.06344,0.07808,0.33184,0.3904,0.20984,0.11224
0.11224,-0.12932,0.1464,0.09028,0.03416,0.03904,-0.06344,0.0732,0.35624,0.40992,0.2196,0.13176
0.11224,-0.14884,0.18544,0.12932,0.0732,0.01952,-0.08296,0.0732,0.37576,0.4392,0.244,0.14152
0.13664,-0.1708,0.20496,0.13664,0.06832,0.03416,-0.08296,0.0732,0.39528,0.4636,0.25864,0.15616
0.13176,-0.17324,0.21472,0.14884,0.08296,0.0244,-0.10736,0.05856,0.39528,0.47336,0.26352,0.15128
0.14152,-0.18056,0.2196,0.14884,0.07808,0.03172,-0.11712,0.05368,0.40016,0.488,0.27816,0.15616
0.15616,-0.19032,0.22448,0.1464,0.06832,0.04392,-0.10736,0.05368,0.43432,0.53192,0.30256,0.17568
0.18056,-0.2074,0.23424,0.14396,0.05368,0.06344,-0.122,0.04392,0.42944,0.5368,0.30744,0.17568
0.15128,-0.19276,0.23424,0.1586,0.08296,0.03416,-0.122,0.0488,0.4392,0.5368,0.30744,0.1952
0.12688,-0.18788,0.24888,0.18544,0.122,0.00244,-0.122,0.04392,0.44408,0.55144,0.3172,0.20496
0.15616,-0.2074,0.25864,0.18056,0.10248,0.02684,-0.13176,0.03904,0.44408,0.56608,0.32696,0.20008
0.17568,-0.22692,0.27816,0.19032,0.10248,0.0366,-0.14152,0.02928,0.4392,0.5612,0.32696,0.20008
0.14152,-0.20252,0.26352,0.19276,0.122,0.00976,-0.14152,0.0244,0.43432,0.54168,0.32208,0.1952
0.13664,-0.20252,0.2684,0.20008,0.13176,0.00244,-0.14152,0.01464,0.4148,0.5368,0.32208,0.1952
0.15616,-0.21472,0.27328,0.1952,0.11712,0.01952,-0.15128,0,0.40016,0.52704,0.33184,0.20008
0.15616,-0.2074,0.25864,0.18056,0.10248,0.02684,-0.15616,-0.01464,0.38064,0.5124,0.31232,0.1952
0.13664,-0.19276,0.24888,0.18056,0.11224,0.0122,-0.1464,-0.00976,0.36112,0.46848,0.28304,0.16592
0.10736,-0.17568,0.244,0.19032,0.13664,-0.01464,-0.14152,-0.01464,0.34648,0.43432,0.2684,0.16104
0.11224,-0.16836,0.22448,0.16836,0.11224,0,-0.13176,-0.01952,0.32208,0.40992,0.25864,0.15616
0.0976,-0.14884,0.20008,0.15128,0.10248,-0.00244,-0.11712,-0.0244,0.2928,0.37088,0.22936,0.13664
0.06344,-0.122,0.18056,0.14884,0.11712,-0.02684,-0.0976,-0.0244,0.26352,0.3172,0.1952,0.11224
0.04392,-0.10248,0.16104,0.13908,0.11712,-0.0366,-0.09272,-0.03416,0.23424,0.25864,0.16592,0.09272
0.05856,-0.0976,0.13664,0.10736,0.07808,-0.00976,-0.0976,-0.03904,0.19032,0.22936,0.13664,0.06832
0.05856,-0.09272,0.12688,0.0976,0.06832,-0.00488,-0.08296,-0.05368,0.15616,0.17568,0.10736,0.0488
0.01952,-0.06344,0.10736,0.0976,0.08784,-0.03416,-0.06344,-0.03904,0.13664,0.13176,0.06832,0.02928
-0.00976,-0.0366,0.08296,0.08784,0.09272,-0.05124,-0.0488,-0.03904,0.10248,0.09272,0.03904,0.01464
0.00488,-0.03416,0.06344,0.061,0.05856,-0.02684,-0.04392,-0.03416,0.08784,0.0732,0.0244,0.00976
-0.00976,-0.01708,0.04392,0.0488,0.05368,-0.03172,-0.04392,-0.03416,0.05856,0.04392,0.00976,-0.00488
-0.03904,0.00732,0.0244,0.04392,0.06344,-0.05124,-0.0244,-0.01952,0.02928,0.00488,-0.00976,-0.00488
-0.03904,0.01708,0.00488,0.0244,0.04392,-0.04148,-0.00976,-0.01952,0.00976,-0.01464,-0.0244,-0.01464
-0.03416,0.02196,-0.00976,0.00732,0.0244,-0.02928,-0.00976,-0.02928,-0.00976,-0.02928,-0.04392,-0.03416
-0.05368,0.03904,-0.0244,0.00244,0.02928,-0.04148,-0.00976,-0.02928,-0.02928,-0.0488,-0.05368,-0.04392
-0.0488,0.03416,-0.01952,0.00488,0.02928,-0.03904,0.00488,-0.02928,-0.03416,-0.06832,-0.07808,-0.0488
-0.04392,0.03416,-0.0244,-0.00244,0.01952,-0.03172,0,-0.0244,-0.04392,-0.0732,-0.07808,-0.05368
-0.01952,0.02928,-0.03904,-0.02928,-0.01952,0,-0.00976,-0.03416,-0.05856,-0.08784,-0.09272,-0.06344
-0.03416,0.04392,-0.05368,-0.0366,-0.01952,-0.00732,0,-0.03416,-0.08296,-0.09272,-0.0976,-0.07808
-0.04392,0.04148,-0.03904,-0.01708,0.00488,-0.0244,0.00488,-0.0244,-0.07808,-0.0976,-0.08784,-0.05856
-0.06344,0.05124,-0.03904,-0.00732,0.0244,-0.04392,0.00976,-0.0244,-0.0732,-0.10736,-0.09272,-0.06344
-0.05856,0.05612,-0.05368,-0.0244,0.00488,-0.03172,0.00976,-0.0244,-0.07808,-0.10248,-0.09272,-0.05856
-0.05856,0.05612,-0.05368,-0.0244,0.00488,-0.03172,0.00976,-0.0244,-0.08784,-0.10736,-0.09272,-0.06344
-0.0488,0.04636,-0.04392,-0.01952,0.00488,-0.02684,0.01464,-0.01952,-0.08784,-0.11224,-0.0976,-0.05368
-0.05856,0.05612,-0.05368,-0.0244,0.00488,-0.03172,0.01464,-0.01952,-0.07808,-0.11224,-0.0976,-0.05856
-0.05368,0.061,-0.06832,-0.04148,-0.01464,-0.01952,0.01464,-0.01952,-0.08784,-0.10736,-0.0976,-0.06344
-0.04392,0.05124,-0.05856,-0.0366,-0.01464,-0.01464,0.01464,-0.01952,-0.0976,-0.11224,-0.0976,-0.05856
-0.04392,0.04636,-0.0488,-0.02684,-0.00488,-0.01952,0.01464,-0.01952,-0.09272,-0.11712,-0.10736,-0.0732
-0.03416,0.03904,-0.04392,-0.02684,-0.00976,-0.0122,0.01464,-0.01952,-0.09272,-0.11224,-0.10736,-0.06832
-0.0488,0.05368,-0.05856,-0.03416,-0.00976,-0.01952,0.00488,-0.02928,-0.09272,-0.122,-0.10248,-0.07808
-0.06832,0.07076,-0.0732,-0.03904,-0.00488,-0.03172,0.00488,-0.0244,-0.08784,-0.122,-0.10248,-0.0732
-0.05856,0.06588,-0.0732,-0.04392,-0.01464,-0.02196,0.01464,-0.01464,-0.08296,-0.11224,-0.09272,-0.06832
-0.03416,0.04636,-0.05856,-0.04148,-0.0244,-0.00488,0.01952,-0.01464,-0.07808,-0.10248,-0.08296,-0.05856
-0.0488,0.05856,-0.06832,-0.04392,-0.01952,-0.01464,0.01952,-0.00976,-0.07808,-0.10736,-0.08784,-0.06344
-0.04392,0.05856,-0.0732,-0.05124,-0.02928,-0.00732,0.01952,-0.00976,-0.0732,-0.11224,-0.09272,-0.06832
-0.04392,0.05124,-0.05856,-0.0366,-0.01464,-0.01464,0.01952,-0.00976,-0.06344,-0.10736,-0.08784,-0.05856
-0.03904,0.0488,-0.05856,-0.03904,-0.01952,-0.00976,0.01952,-0.00976,-0.05368,-0.0976,-0.08784,-0.05856
-0.06832,0.06832,-0.06832,-0.03416,0,-0.03416,0.02928,-0.00976,-0.05368,-0.10248,-0.0976,-0.05856
-0.08784,0.08296,-0.07808,-0.03416,0.00976,-0.0488,0.0244,-0.00976,-0.05368,-0.10248,-0.0976,-0.05856
-0.07808,0.07076,-0.06344,-0.0244,0.01464,-0.04636,0.01464,-0.00488,-0.0488,-0.08784,-0.08296,-0.05856
-0.03904,0.05124,-0.06344,-0.04392,-0.0244,-0.00732,0.01952,-0.00488,-0.04392,-0.08784,-0.08784,-0.05856
-0.06344,0.06344,-0.06344,-0.03172,0,-0.03172,0.0244,-0.00976,-0.0488,-0.10248,-0.0976,-0.06344
-0.0732,0.06588,-0.05856,-0.02196,0.01464,-0.04392,0.0244,-0.00488,-0.0488,-0.0976,-0.0976,-0.05856
-0.05856,0.05124,-0.04392,-0.01464,0.01464,-0.0366,0.01464,-0.01464,-0.0488,-0.08784,-0.08784,-0.0488
-0.02928,0.03904,-0.0488,-0.03416,-0.01952,-0.00488,0.01464,-0.00488,-0.0488,-0.08784,-0.08784,-0.05368
-0.05368,0.05612,-0.05856,-0.03172,-0.00488,-0.0244,0.01464,-0.00488,-0.0488,-0.0976,-0.10248,-0.06344
-0.06832,0.061,-0.05368,-0.01952,0.01464,-0.04148,0.01464,-0.00976,-0.05368,-0.10736,-0.10736,-0.06832
-0.02928,0.0366,-0.04392,-0.02928,-0.01464,-0.00732,0,-0.01952,-0.06344,-0.0976,-0.0976,-0.06344
-0.02928,0.0366,-0.04392,-0.02928,-0.01464,-0.00732,0.00488,-0.01952,-0.05368,-0.10248,-0.10248,-0.06344
-0.05368,0.05368,-0.05368,-0.02684,0,-0.02684,0.01464,-0.00976,-0.04392,-0.0976,-0.08784,-0.05368
-0.05856,0.0488,-0.03904,-0.00976,0.01952,-0.03904,0.01464,0,-0.04392,-0.0976,-0.08784,-0.05368
-0.0488,0.0488,-0.0488,-0.0244,0,-0.0244,0.01464,-0.00976,-0.04392,-0.08296,-0.08784,-0.0488
-0.0488,0.05124,-0.05368,-0.02928,-0.00488,-0.02196,0.01464,-0.01952,-0.05368,-0.08784,-0.09272,-0.05368
-0.0488,0.05124,-0.05368,-0.02928,-0.00488,-0.02196,0.01464,-0.00976,-0.0488,-0.0976,-0.10248,-0.06344
-0.05368,0.05368,-0.05368,-0.02684,0,-0.02684,0.00976,-0.00976,-0.0488,-0.10248,-0.0976,-0.06344
-0.01952,0.04148,-0.06344,-0.05368,-0.04392,0.0122,0.00976,-0.00976,-0.05368,-0.09272,-0.08784,-0.05368
-0.0488,0.061,-0.0732,-0.0488,-0.0244,-0.0122,0.01952,-0.01952,-0.05368,-0.09272,-0.08784,-0.06344
-0.08296,0.08052,-0.07808,-0.0366,0.00488,-0.04392,0.01952,-0.00976,-0.04392,-0.0976,-0.10248,-0.0732
-0.0488,0.05124,-0.05368,-0.02928,-0.00488,-0.02196,0.01952,-0.00976,-0.05368,-0.0976,-0.0976,-0.0732
-0.0244,0.03904,-0.05368,-0.04148,-0.02928,0.00244,0.00976,-0.01952,-0.06344,-0.10248,-0.0976,-0.06344
-0.01952,0.0366,-0.05368,-0.04392,-0.03416,0.00732,0.00976,-0.01952,-0.06832,-0.10736,-0.10248,-0.06344
-0.07808,0.07076,-0.06344,-0.0244,0.01464,-0.04636,0.01952,-0.01952,-0.06344,-0.122,-0.10736,-0.06832
-0.07808,0.0732,-0.06832,-0.02928,0.00976,-0.04392,0.01952,-0.01952,-0.06832,-0.122,-0.10736,-0.06832
-0.05856,0.06588,-0.0732,-0.04392,-0.01464,-0.02196,0.01952,-0.01952,-0.06344,-0.11224,-0.0976,-0.06344
-0.05368,0.06344,-0.0732,-0.04636,-0.01952,-0.01708,0.01952,-0.0244,-0.06832,-0.11712,-0.10248,-0.06832
-0.0732,0.07076,-0.06832,-0.03172,0.00488,-0.03904,0.00976,-0.01952,-0.0732,-0.11712,-0.11224,-0.06832
-0.04392,0.05368,-0.06344,-0.04148,-0.01952,-0.0122,0.00976,-0.0244,-0.08784,-0.122,-0.11224,-0.07808
-0.03416,0.04636,-0.05856,-0.04148,-0.0244,-0.00488,0.00488,-0.0244,-0.09272,-0.11712,-0.11224,-0.06832
-0.02928,0.04148,-0.05368,-0.03904,-0.0244,-0.00244,0.00976,-0.0244,-0.08296,-0.12688,-0.11712,-0.0732
-0.06832,0.07076,-0.0732,-0.03904,-0.00488,-0.03172,0.0244,-0.00976,-0.0732,-0.122,-0.10736,-0.05856
-0.05856,0.06588,-0.0732,-0.04392,-0.01464,-0.02196,0.01464,-0.01952,-0.09272,-0.12688,-0.10736,-0.06344
-0.03904,0.0488,-0.05856,-0.03904,-0.01952,-0.00976,0.00976,-0.0244,-0.09272,-0.13176,-0.11712,-0.06832
-0.0488,0.05612,-0.06344,-0.03904,-0.01464,-0.01708,0.00976,-0.0244,-0.08784,-0.13664,-0.122,-0.0732
-0.08296,0.0732,-0.06344,-0.02196,0.01952,-0.05124,0.01952,-0.01952,-0.09272,-0.13664,-0.11712,-0.06832
-0.07808,0.0732,-0.06832,-0.02928,0.00976,-0.04392,0.0244,-0.01952,-0.0976,-0.13176,-0.10736,-0.06344
-0.05856,0.07076,-0.08296,-0.05368,-0.0244,-0.01708,0.00976,-0.01952,-0.0976,-0.13176,-0.12688,-0.0732
-0.04392,0.061,-0.07808,-0.05612,-0.03416,-0.00488,0.01952,-0.00976,-0.09272,-0.13176,-0.11712,-0.08296
-0.06344,0.07076,-0.07808,-0.04636,-0.01464,-0.0244,0.00976,-0.0244,-0.10248,-0.14152,-0.12688,-0.08296
-0.0488,0.05612,-0.06344,-0.03904,-0.01464,-0.01708,0.01464,-0.01952,-0.10248,-0.13664,-0.12688,-0.08296
-0.05856,0.06588,-0.0732,-0.04392,-0.01464,-0.02196,0.01952,-0.01952,-0.10248,-0.13176,-0.11712,-0.07808
-0.06832,0.07564,-0.08296,-0.0488,-0.01464,-0.02684,0.01464,-0.0244,-0.10248,-0.13664,-0.11712,-0.07808
-0.0732,0.0732,-0.0732,-0.0366,0,-0.0366,0.02928,-0.01464,-0.09272,-0.13664,-0.11224,-0.06832
-0.06832,0.06588,-0.06344,-0.02928,0.00488,-0.0366,0.02928,-0.01464,-0.09272,-0.122,-0.10248,-0.06832
-0.07808,0.07808,-0.07808,-0.03904,0,-0.03904,0.01952,-0.0244,-0.10248,-0.13176,-0.11712,-0.0732
-0.06344,0.07564,-0.08784,-0.05612,-0.0244,-0.01952,0.01952,-0.0244,-0.11224,-0.1464,-0.12688,-0.08784
-0.05856,0.06344,-0.06832,-0.03904,-0.00976,-0.0244,0.00976,-0.01952,-0.11224,-0.13664,-0.11712,-0.07808
-0.04392,0.05124,-0.05856,-0.0366,-0.01464,-0.01464,0.01464,-0.01952,-0.11712,-0.14152,-0.122,-0.07808
-0.06832,0.07564,-0.08296,-0.0488,-0.01464,-0.02684,0.01952,-0.01952,-0.10736,-0.1464,-0.13176,-0.0732
-0.07808,0.07564,-0.0732,-0.03416,0.00488,-0.04148,0.01952,-0.0244,-0.10248,-0.1464,-0.12688,-0.0732
-0.0488,0.05612,-0.06344,-0.03904,-0.01464,-0.01708,0.00976,-0.0244,-0.11712,-0.1464,-0.122,-0.07808
-0.02928,0.04636,-0.06344,-0.0488,-0.03416,0.00244,0.00976,-0.0244,-0.11712,-0.15128,-0.12688,-0.07808
-0.04392,0.06344,-0.08296,-0.061,-0.03904,-0.00244,0.00488,-0.01464,-0.11224,-0.15616,-0.13176,-0.08296
-0.07808,0.08296,-0.08784,-0.0488,-0.00976,-0.03416,0.01952,-0.01464,-0.10736,-0.15128,-0.11712,-0.0732
-0.06344,0.07076,-0.07808,-0.04636,-0.01464,-0.0244,0.01464,-0.0244,-0.11224,-0.1464,-0.12688,-0.07808
-0.03904,0.05856,-0.07808,-0.05856,-0.03904,0,0.0244,-0.0244,-0.11712,-0.13664,-0.122,-0.07808
-0.06832,0.0732,-0.07808,-0.04392,-0.00976,-0.02928,0.01952,-0.01464,-0.11712,-0.14152,-0.12688,-0.07808
-0.09272,0.08784,-0.08296,-0.0366,0.00976,-0.05124,0.01952,-0.01464,-0.11224,-0.15128,-0.122,-0.08296
-0.06832,0.06832,-0.06832,-0.03416,0,-0.03416,0.01464,-0.0244,-0.11712,-0.1464,-0.12688,-0.07808
-0.0488,0.05368,-0.05856,-0.03416,-0.00976,-0.01952,0.01952,-0.0244,-0.11224,-0.1464,-0.12688,-0.0732
-0.05856,0.061,-0.06344,-0.03416,-0.00488,-0.02684,0.01952,-0.01464,-0.10248,-0.15616,-0.13664,-0.08296
-0.05856,0.07076,-0.08296,-0.05368,-0.0244,-0.01708,0.01952,-0.01952,-0.11224,-0.15616,-0.13176,-0.07808
-0.0488,0.06832,-0.08784,-0.06344,-0.03904,-0.00488,0.00976,-0.02928,-0.10736,-0.1464,-0.12688,-0.07808
-0.05856,0.07564,-0.09272,-0.06344,-0.03416,-0.0122,0.01464,-0.01952,-0.11224,-0.1464,-0.12688,-0.07808
-0.0732,0.08052,-0.08784,-0.05124,-0.01464,-0.02928,0.01952,-0.0244,-0.122,-0.16592,-0.14152,-0.08296
-0.05856,0.061,-0.06344,-0.03416,-0.00488,-0.02684,0.0244,-0.0244,-0.122,-0.15128,-0.12688,-0.07808
-0.06344,0.06344,-0.06344,-0.03172,0,-0.03172,0.00976,-0.02928,-0.122,-0.14152,-0.122,-0.0732
-0.06344,0.06832,-0.0732,-0.04148,-0.00976,-0.02684,0.00976,-0.0244,-0.11712,-0.1464,-0.122,-0.08784
-0.10248,0.09272,-0.08296,-0.03172,0.01952,-0.061,0.01952,-0.01464,-0.11712,-0.15128,-0.13664,-0.08296
-0.06344,0.07076,-0.07808,-0.04636,-0.01464,-0.0244,0.01952,-0.01464,-0.122,-0.15128,-0.14152,-0.08296
-0.03904,0.05612,-0.0732,-0.05368,-0.03416,-0.00244,0.01464,-0.0244,-0.11712,-0.1464,-0.13176,-0.08296
-0.04392,0.06588,-0.08784,-0.06588,-0.04392,0,0.00488,-0.0244,-0.12688,-0.1464,-0.13664,-0.09272
-0.05368,0.05856,-0.06344,-0.0366,-0.00976,-0.02196,0.01464,-0.01952,-0.11224,-0.15616,-0.12688,-0.07808
-0.07808,0.07808,-0.07808,-0.03904,0,-0.03904,0.01952,-0.01952,-0.11712,-0.1464,-0.12688,-0.07808
-0.07808,0.07808,-0.07808,-0.03904,0,-0.03904,0.01952,-0.01952,-0.11712,-0.1464,-0.12688,-0.07808
-0.0732,0.07564,-0.07808,-0.04148,-0.00488,-0.03416,0.01952,-0.01952,-0.11712,-0.1464,-0.12688,-0.07808
-0.06344,0.07076,-0.07808,-0.04636,-0.01464,-0.0244,0.01952,-0.01952,-0.11712,-0.1464,-0.12688,-0.07808
-0.06344,0.0732,-0.08296,-0.05124,-0.01952,-0.02196,0.01952,-0.02928,-0.12688,-0.15616,-0.13664,-0.08784
-0.0732,0.08296,-0.09272,-0.05612,-0.01952,-0.02684,0.01952,-0.02928,-0.12688,-0.15616,-0.13664,-0.08784
-0.0732,0.07808,-0.08296,-0.04636,-0.00976,-0.03172,0.01952,-0.02928,-0.12688,-0.1464,-0.12688,-0.07808
-0.06344,0.06832,-0.0732,-0.04148,-0.00976,-0.02684,0.01952,-0.02928,-0.12688,-0.1464,-0.12688,-0.07808
-0.06832,0.07076,-0.0732,-0.03904,-0.00488,-0.03172,0.02928,-0.02928,-0.11712,-0.1464,-0.12688,-0.07808
-0.06832,0.07564,-0.08296,-0.0488,-0.01464,-0.02684,0.02928,-0.02928,-0.11712,-0.1464,-0.12688,-0.07808
-0.05368,0.06832,-0.08296,-0.05612,-0.02928,-0.0122,0.02928,-0.01952,-0.11712,-0.13664,-0.11712,-0.06832
-0.04392,0.05856,-0.0732,-0.05124,-0.02928,-0.00732,0.02928,-0.01952,-0.11712,-0.13664,-0.11712,-0.06832
-0.04392,0.061,-0.07808,-0.05612,-0.03416,-0.00488,0.02928,-0.01952,-0.11712,-0.14152,-0.12688,-0.0732
-0.05368,0.061,-0.06832,-0.04148,-0.01464,-0.01952,0.01952,-0.02928,-0.10736,-0.15128,-0.12688,-0.08784
-0.05368,0.05612,-0.05856,-0.03172,-0.00488,-0.0244,0,-0.04392,-0.10248,-0.14152,-0.11712,-0.0732
-0.01952,0.02928,-0.03904,-0.02928,-0.01952,0,-0.00488,-0.0488,-0.08296,-0.11712,-0.10736,-0.06832
-0.05856,0.03904,-0.01952,0.00976,0.03904,-0.0488,0,-0.0488,-0.08296,-0.11712,-0.10736,-0.06832
-0.07808,0.04148,-0.00488,0.03416,0.0732,-0.07564,-0.0244,-0.0732,-0.08296,-0.11712,-0.10736,-0.06832
-0.0732,0.03416,0.00488,0.04148,0.07808,-0.07564,-0.0244,-0.06832,-0.07808,-0.10248,-0.09272,-0.06344
-0.00488,-0.00976,0.0244,0.02684,0.02928,-0.01708,-0.01952,-0.06344,-0.06344,-0.09272,-0.08296,-0.05856
-0.00488,-0.00732,0.01952,0.02196,0.0244,-0.01464,-0.02928,-0.05368,-0.06832,-0.09272,-0.08784,-0.05368
-0.0732,0.04148,-0.00976,0.02684,0.06344,-0.06832,-0.03416,-0.05368,-0.06832,-0.0976,-0.09272,-0.05856
-0.0244,0.01464,-0.00488,0.00732,0.01952,-0.02196,-0.06832,-0.0732,-0.08296,-0.0976,-0.08296,-0.0488
0.01952,-0.00976,0,-0.00976,-0.01952,0.01952,-0.06344,-0.05856,-0.0732,-0.08296,-0.0732,-0.04392
0.02928,-0.01464,0,-0.01464,-0.02928,0.02928,-0.03416,-0.03416,-0.05856,-0.08784,-0.06344,-0.02928
-0.01952,0.0122,-0.00488,0.00488,0.01464,-0.01708,-0.02928,-0.0244,-0.0488,-0.08296,-0.05856,-0.02928
-0.02928,0.01708,-0.00488,0.00976,0.0244,-0.02684,-0.03904,-0.0244,-0.05368,-0.06832,-0.05856,-0.01464
0.01464,0.00244,-0.01952,-0.02684,-0.03416,0.0244,-0.03904,-0.03416,-0.08296,-0.09272,-0.06344,-0.01952
0.04392,-0.0122,-0.01952,-0.04148,-0.06344,0.05368,-0.02928,-0.02928,-0.08784,-0.0976,-0.0732,-0.0244
-0.01464,0.01952,-0.0244,-0.01708,-0.00976,-0.00244,-0.0244,-0.02928,-0.09272,-0.10248,-0.0732,-0.0244
-0.0244,0.03172,-0.03904,-0.02684,-0.01464,-0.00488,-0.02928,-0.03904,-0.122,-0.11224,-0.07808,-0.0244
0,0.0122,-0.0244,-0.0244,-0.0244,0.0122,-0.02928,-0.05368,-0.13664,-0.12688,-0.08784,-0.04392
-0.02928,0.04636,-0.06344,-0.0488,-0.03416,0.00244,-0.00488,-0.04392,-0.13664,-0.13176,-0.11224,-0.05856
-0.06344,0.06832,-0.0732,-0.04148,-0.00976,-0.02684,0.01464,-0.04392,-0.14152,-0.15128,-0.12688,-0.06832
-0.09272,0.09028,-0.08784,-0.04148,0.00488,-0.0488,0.01952,-0.03904,-0.1464,-0.15128,-0.122,-0.06832
-0.03904,0.06832,-0.0976,-0.07808,-0.05856,0.00976,0.01952,-0.02928,-0.1464,-0.15128,-0.12688,-0.0732
-0.03416,0.061,-0.08784,-0.07076,-0.05368,0.00976,0.0244,-0.02928,-0.14152,-0.15128,-0.13664,-0.08296
-0.06832,0.07564,-0.08296,-0.0488,-0.01464,-0.02684,0.03416,-0.01952,-0.14152,-0.16592,-0.14152,-0.08784
-0.08784,0.09516,-0.10248,-0.05856,-0.01464,-0.0366,0.03904,-0.01952,-0.1464,-0.16592,-0.14152,-0.07808
-0.06832,0.09272,-0.11712,-0.08296,-0.0488,-0.00976,0.03904,-0.01952,-0.1464,-0.15616,-0.13664,-0.07808
-0.05368,0.08052,-0.10736,-0.08052,-0.05368,0,0.03416,-0.01952,-0.15616,-0.15616,-0.13664,-0.08784
-0.0732,0.09028,-0.10736,-0.07076,-0.03416,-0.01952,0.03416,-0.01952,-0.15616,-0.16104,-0.1464,-0.09272
-0.08784,0.10492,-0.122,-0.07808,-0.03416,-0.02684,0.04392,-0.01464,-0.15128,-0.16592,-0.15128,-0.0976
-0.0732,0.0976,-0.122,-0.0854,-0.0488,-0.0122,0.04392,-0.01464,-0.15128,-0.16592,-0.15616,-0.0976
-0.04392,0.08296,-0.122,-0.10004,-0.07808,0.01708,0.03904,-0.01952,-0.15128,-0.17568,-0.15616,-0.0976
-0.08784,0.09516,-0.10248,-0.05856,-0.01464,-0.0366,0.0488,-0.01464,-0.15128,-0.1708,-0.15128,-0.0976
-0.10248,0.10736,-0.11224,-0.061,-0.00976,-0.04636,0.05368,-0.00976,-0.14152,-0.16104,-0.14152,-0.09272
-0.09272,0.10248,-0.11224,-0.06588,-0.01952,-0.0366,0.05368,-0.00976,-0.14152,-0.16104,-0.1464,-0.09272
-0.08784,0.10004,-0.11224,-0.06832,-0.0244,-0.03172,0.05368,-0.00976,-0.14152,-0.15616,-0.1464,-0.0976
-0.07808,0.09272,-0.10736,-0.06832,-0.02928,-0.0244,0.0488,-0.01464,-0.14152,-0.16104,-0.1464,-0.0976
-0.08784,0.10248,-0.11712,-0.0732,-0.02928,-0.02928,0.0488,-0.01464,-0.1464,-0.1708,-0.16104,-0.11224
-0.0976,0.1098,-0.122,-0.0732,-0.0244,-0.0366,0.0488,-0.00976,-0.14152,-0.1708,-0.15616,-0.10736
-0.06832,0.0854,-0.10248,-0.06832,-0.03416,-0.01708,0.0488,-0.00976,-0.14152,-0.16104,-0.13664,-0.08784
-0.07808,0.09028,-0.10248,-0.06344,-0.0244,-0.02684,0.05856,-0.00976,-0.14152,-0.18544,-0.1708,-0.11712
-0.11712,0.10248,-0.08784,-0.02928,0.02928,-0.0732,0.122,0.05368,-0.03416,-0.1708,-0.18056,-0.12688
-0.16592,0.12688,-0.08784,-0.00488,0.07808,-0.122,0.18056,0.12688,0.09272,-0.18056,-0.244,-0.18544
-0.13664,0.09272,-0.0488,0.01952,0.08784,-0.11224,0.20984,0.19032,0.18056,-0.1708,-0.24888,-0.20984
-0.11224,0.03904,0.03416,0.09028,0.1464,-0.12932,0.20984,0.2196,0.31232,-0.03416,-0.1708,-0.16104
-0.04392,0.00732,0.02928,0.05124,0.0732,-0.05856,0.16104,0.2928,0.39528,0.13176,-0.06344,-0.08784
0.23424,-0.1952,0.15616,0.03904,-0.07808,0.15616,0.01952,0.30744,0.52216,0.54656,0.2928,0.14152
0.49776,-0.48312,0.46848,0.2196,-0.02928,0.26352,-0.1952,0.24888,0.9272,1.16144,0.79544,0.47824
0.69784,-0.72956,0.76128,0.41236,0.06344,0.3172,-0.40504,0.0488,1.2444,1.69336,1.27368,0.80032
0.81984,-0.91012,1.0004,0.59048,0.18056,0.31964,-0.71248,-0.32696,0.9028,2.0008,1.64944,1.06384
0.89792,-0.95892,1.01992,0.57096,0.122,0.38796,-0.91256,-0.65392,0.40504,2.18136,1.91296,1.25416
0.94672,-0.8784,0.81008,0.33672,-0.13664,0.54168,-0.83448,-0.6344,-0.20984,1.84464,1.82024,1.2688
0.732,-0.70272,0.67344,0.30744,-0.05856,0.39528,-0.59536,-0.50264,-0.24888,1.39568,1.48352,1.05896
0.42456,-0.41968,0.4148,0.20252,-0.00976,0.21716,-0.3172,-0.33184,-0.37088,0.8296,1.02968,0.7564
0.19032,-0.17568,0.16104,0.06588,-0.02928,0.1098,-0.08296,-0.20008,-0.72712,0.01464,0.47336,0.42944
0,0.01952,-0.03904,-0.03904,-0.03904,0.01952,0.09272,-0.13176,-0.81008,-0.32208,0.15616,0.21472
-0.06344,0.07076,-0.07808,-0.04636,-0.01464,-0.0244,0.16592,-0.10736,-0.70272,-0.31232,0.01952,0.10248
-0.1708,0.1464,-0.122,-0.0366,0.0488,-0.1098,0.20984,-0.05856,-0.64904,-0.35624,-0.13176,-0.03416
-0.1708,0.17324,-0.17568,-0.09028,-0.00488,-0.08296,0.2684,0.03904,-0.48312,-0.27816,-0.12688,-0.06832
-0.10736,0.14152,-0.17568,-0.122,-0.06832,-0.01952,0.25864,0.05856,-0.37088,-0.2196,-0.11712,-0.06832
-0.04392,0.09028,-0.13664,-0.11468,-0.09272,0.0244,0.21472,0.07808,-0.28792,-0.18544,-0.10736,-0.05368
-0.0976,0.12932,-0.16104,-0.11224,-0.06344,-0.01708,0.17568,0.0976,-0.23424,-0.18544,-0.122,-0.07808
-0.07808,0.11468,-0.15128,-0.11224,-0.0732,-0.00244,0.16592,0.11224,-0.1708,-0.15616,-0.12688,-0.0732
-0.04392,0.08052,-0.11712,-0.09516,-0.0732,0.01464,0.11224,0.08784,-0.11712,-0.122,-0.10736,-0.06832
-0.01464,0.05368,-0.09272,-0.0854,-0.07808,0.03172,0.08784,0.06832,-0.0976,-0.10248,-0.09272,-0.05856
-0.00976,0.0488,-0.08784,-0.08296,-0.07808,0.03416,0.06832,0.0488,-0.09272,-0.10248,-0.10736,-0.06832
-0.0732,0.08784,-0.10248,-0.06588,-0.02928,-0.02196,0.06832,0.04392,-0.08296,-0.11224,-0.12688,-0.07808
-0.08296,0.09516,-0.10736,-0.06588,-0.0244,-0.02928,0.06832,0.05368,-0.06344,-0.10248,-0.13176,-0.07808
-0.03904,0.06832,-0.0976,-0.07808,-0.05856,0.00976,0.06344,0.05368,-0.05368,-0.08784,-0.122,-0.06832
-0.02928,0.061,-0.09272,-0.07808,-0.06344,0.01708,0.06344,0.04392,-0.0488,-0.08296,-0.11712,-0.06344
-0.05368,0.07076,-0.08784,-0.061,-0.03416,-0.00976,0.05368,0.04392,-0.04392,-0.09272,-0.12688,-0.0732
-0.05368,0.07564,-0.0976,-0.07076,-0.04392,-0.00488,0.05368,0.04392,-0.02928,-0.08296,-0.11712,-0.06832
-0.02928,0.06344,-0.0976,-0.08296,-0.06832,0.01952,0.04392,0.04392,-0.0244,-0.06832,-0.11712,-0.06832
-0.02928,0.05856,-0.08784,-0.0732,-0.05856,0.01464,0.0488,0.0488,-0.01952,-0.06344,-0.11712,-0.06344
-0.04392,0.061,-0.07808,-0.05612,-0.03416,-0.00488,0.05856,0.0488,-0.00488,-0.05856,-0.11712,-0.06344
-0.05368,0.07076,-0.08784,-0.061,-0.03416,-0.00976,0.05856,0.05368,0.00488,-0.03904,-0.09272,-0.0488
-0.02928,0.061,-0.09272,-0.07808,-0.06344,0.01708,0.0488,0.05368,0.01464,-0.0244,-0.08784,-0.04392
-0.00976,0.03904,-0.06832,-0.06344,-0.05856,0.0244,0.04392,0.0488,0.0244,-0.03416,-0.0976,-0.05368
0.00976,0.02928,-0.06832,-0.0732,-0.07808,0.04392,0.04392,0.05368,0.02928,-0.0244,-0.08784,-0.0488
-0.0244,0.04636,-0.06832,-0.05612,-0.04392,0.00976,0.04392,0.05368,0.03904,0,-0.0732,-0.0488
-0.00488,0.03172,-0.05856,-0.05612,-0.05368,0.0244,0.04392,0.05368,0.0488,0.00488,-0.06832,-0.04392
0,0.03416,-0.06832,-0.06832,-0.06832,0.03416,0.02928,0.05368,0.0488,0.00976,-0.07808,-0.03904
0,0.03172,-0.06344,-0.06344,-0.06344,0.03172,0.03416,0.05368,0.05856,0.00976,-0.06344,-0.03416
-0.01952,0.0366,-0.05368,-0.04392,-0.03416,0.00732,0.02928,0.05368,0.0732,0.02928,-0.04392,-0.02928
-0.00488,0.02684,-0.0488,-0.04636,-0.04392,0.01952,0.02928,0.05856,0.07808,0.02928,-0.04392,-0.02928
0.01952,0.00732,-0.03416,-0.04392,-0.05368,0.0366,0.0244,0.05856,0.10248,0.04392,-0.03904,-0.01952
0.01952,0.00244,-0.0244,-0.03416,-0.04392,0.03172,0.01952,0.05856,0.11224,0.05856,-0.02928,-0.01464
0.00488,0.00976,-0.0244,-0.02684,-0.02928,0.01708,0.01464,0.0488,0.11224,0.0732,-0.02928,-0.01464
0.03416,-0.00732,-0.01952,-0.0366,-0.05368,0.04392,0.00976,0.0488,0.12688,0.07808,-0.01952,-0.00976
0.00976,0,-0.00976,-0.01464,-0.01952,0.01464,0.00976,0.06344,0.1464,0.0976,-0.00976,0.00488
0.03416,-0.01952,0.00488,-0.0122,-0.02928,0.03172,0,0.06344,0.15616,0.11224,0.00488,0.00976
0.02928,-0.0244,0.01952,0.00488,-0.00976,0.01952,0,0.05368,0.16104,0.122,-0.00488,0.00488
0.03904,-0.02684,0.01464,-0.00488,-0.0244,0.03172,-0.00488,0.05368,0.18056,0.14152,0.00976,0
0.0488,-0.0366,0.0244,0,-0.0244,0.0366,-0.00976,0.06832,0.21472,0.1708,0.03416,0.0244
0.0732,-0.05612,0.03904,0.00244,-0.03416,0.05368,-0.01464,0.06832,0.22936,0.20008,0.05368,0.03904
0.0488,-0.04392,0.03904,0.01464,-0.00976,0.02928,-0.01464,0.0732,0.244,0.2196,0.06832,0.04392
0.03416,-0.03904,0.04392,0.02684,0.00976,0.0122,-0.01464,0.08296,0.2684,0.24888,0.08296,0.05856
0.06832,-0.07076,0.0732,0.03904,0.00488,0.03172,-0.03904,0.07808,0.27816,0.2684,0.10248,0.06344
0.0976,-0.09516,0.09272,0.04392,-0.00488,0.05124,-0.04392,0.07808,0.29768,0.2928,0.11712,0.07808
0.09272,-0.08784,0.08296,0.0366,-0.00976,0.05124,-0.04392,0.07808,0.31232,0.32208,0.13664,0.08784
0.09272,-0.09516,0.0976,0.05124,0.00488,0.04392,-0.05368,0.08296,0.33184,0.33672,0.1464,0.07808
0.13176,-0.13176,0.13176,0.06588,0,0.06588,-0.06344,0.08784,0.36112,0.366,0.1708,0.09272
0.14152,-0.14152,0.14152,0.07076,0,0.07076,-0.06832,0.08296,0.38064,0.40504,0.20008,0.11712
0.14152,-0.14884,0.15616,0.0854,0.01464,0.06344,-0.0732,0.08296,0.40016,0.42944,0.22448,0.13176
0.13176,-0.14884,0.16592,0.10004,0.03416,0.0488,-0.0732,0.08296,0.42456,0.45384,0.244,0.1464
0.13664,-0.15372,0.1708,0.10248,0.03416,0.05124,-0.08296,0.08296,0.4392,0.488,0.27328,0.15128
0.1708,-0.18056,0.19032,0.10492,0.01952,0.07564,-0.09272,0.0732,0.44408,0.49776,0.27816,0.17568
0.15616,-0.17324,0.19032,0.11224,0.03416,0.061,-0.0976,0.08296,0.4636,0.5124,0.28304,0.18056
0.12688,-0.16592,0.20496,0.14152,0.07808,0.0244,-0.0976,0.07808,0.47336,0.53192,0.29768,0.18544
0.14152,-0.18056,0.2196,0.14884,0.07808,0.03172,-0.122,0.05856,0.46848,0.54168,0.30744,0.18544
0.20008,-0.21716,0.23424,0.1342,0.03416,0.08296,-0.13664,0.05368,0.46848,0.55632,0.32208,0.20008
0.20496,-0.22448,0.244,0.14152,0.03904,0.08296,-0.13176,0.05368,0.47336,0.5612,0.32208,0.20008
0.1708,-0.2074,0.244,0.1586,0.0732,0.0488,-0.13176,0.04392,0.47336,0.55144,0.32696,0.20008
0.15128,-0.19276,0.23424,0.1586,0.08296,0.03416,-0.13176,0.04392,0.47336,0.54168,0.32696,0.20984
0.18544,-0.21472,0.244,0.15128,0.05856,0.06344,-0.13176,0.03904,0.46848,0.5612,0.33672,0.2196
0.18544,-0.2196,0.25376,0.16104,0.06832,0.05856,-0.122,0.03416,0.45384,0.54656,0.33184,0.21472
0.13664,-0.19032,0.244,0.17568,0.10736,0.01464,-0.12688,0.01952,0.44408,0.52216,0.32208,0.20496
0.13664,-0.18788,0.23912,0.1708,0.10248,0.01708,-0.122,0.00976,0.40992,0.49776,0.30256,0.18544
0.15128,-0.19032,0.22936,0.15372,0.07808,0.0366,-0.14152,-0.00976,0.38064,0.4636,0.28304,0.1708
0.1464,-0.183,0.2196,0.1464,0.0732,0.0366,-0.13176,-0.01464,0.37088,0.42456,0.25864,0.15616
0.0976,-0.1464,0.1952,0.1464,0.0976,0,-0.12688,-0.0244,0.33672,0.37576,0.22936,0.13176
0.09272,-0.1342,0.17568,0.12932,0.08296,0.00488,-0.11224,-0.01464,0.31232,0.35136,0.20008,0.12688
0.10248,-0.13176,0.16104,0.1098,0.05856,0.02196,-0.0976,-0.0244,0.28792,0.3172,0.18544,0.11712
0.08784,-0.11468,0.14152,0.0976,0.05368,0.01708,-0.08784,-0.02928,0.25376,0.27328,0.15616,0.10248
0.0488,-0.0854,0.122,0.0976,0.0732,-0.0122,-0.07808,-0.03416,0.21472,0.20984,0.11712,0.07808
0.01464,-0.05368,0.09272,0.0854,0.07808,-0.03172,-0.06832,-0.04392,0.19032,0.18056,0.0976,0.0488
0.0244,-0.04636,0.06832,0.05612,0.04392,-0.00976,-0.05368,-0.03904,0.16104,0.14152,0.06344,0.02928
0.01464,-0.03172,0.0488,0.04148,0.03416,-0.00976,-0.04392,-0.03904,0.122,0.10736,0.03904,0.00976
0.00976,-0.02196,0.03416,0.02928,0.0244,-0.00732,-0.03416,-0.03416,0.10248,0.07808,0.01952,0
-0.03416,0.01708,0,0.01708,0.03416,-0.03416,-0.02928,-0.03416,0.0732,0.04392,0.00976,0
-0.03904,0.0244,-0.00976,0.00976,0.02928,-0.03416,-0.01952,-0.02928,0.06344,0.0244,-0.01464,-0.01464
-0.0244,0.02196,-0.01952,-0.00732,0.00488,-0.01464,-0.01952,-0.02928,0.03904,-0.00488,-0.02928,-0.03416
-0.02928,0.02928,-0.02928,-0.01464,0,-0.01464,-0.00488,-0.02928,0.01952,-0.01952,-0.05368,-0.03904
-0.04392,0.04636,-0.0488,-0.02684,-0.00488,-0.01952,0.00488,-0.02928,0.00488,-0.04392,-0.07808,-0.0488
-0.03416,0.04148,-0.0488,-0.03172,-0.01464,-0.00976,0.00488,-0.0244,-0.00488,-0.0488,-0.07808,-0.05368
-0.02928,0.0366,-0.04392,-0.02928,-0.01464,-0.00732,0.00976,-0.0244,-0.00976,-0.05368,-0.08296,-0.04392
-0.02928,0.03416,-0.03904,-0.0244,-0.00976,-0.00976,0.00976,-0.0244,-0.01952,-0.06344,-0.09272,-0.0488
-0.03904,0.04148,-0.04392,-0.0244,-0.00488,-0.01708,0.00976,-0.0244,-0.02928,-0.06832,-0.0976,-0.05856
-0.05856,0.06588,-0.0732,-0.04392,-0.01464,-0.02196,0.00488,-0.0244,-0.03416,-0.07808,-0.10248,-0.06344
-0.0488,0.061,-0.0732,-0.0488,-0.0244,-0.0122,0.00976,-0.03416,-0.03416,-0.08296,-0.10248,-0.05856
-0.0488,0.05856,-0.06832,-0.04392,-0.01952,-0.01464,0.00976,-0.03416,-0.0488,-0.08296,-0.10248,-0.06344
-0.03904,0.04636,-0.05368,-0.03416,-0.01464,-0.0122,0.00488,-0.03416,-0.0488,-0.08784,-0.10248,-0.06344
-0.0488,0.05368,-0.05856,-0.03416,-0.00976,-0.01952,0.00488,-0.02928,-0.0488,-0.09272,-0.10736,-0.06832
-0.04392,0.061,-0.07808,-0.05612,-0.03416,-0.00488,0.01464,-0.01952,-0.0488,-0.08296,-0.10736,-0.06344
-0.03904,0.05368,-0.06832,-0.0488,-0.02928,-0.00488,0.01464,-0.01952,-0.05368,-0.07808,-0.0976,-0.05856
-0.0488,0.05856,-0.06832,-0.04392,-0.01952,-0.01464,0.01464,-0.01952,-0.05368,-0.08784,-0.10736,-0.05856
-0.0488,0.06344,-0.07808,-0.05368,-0.02928,-0.00976,0.01464,-0.01952,-0.05368,-0.08296,-0.10736,-0.06344
-0.03416,0.06344,-0.09272,-0.07564,-0.05856,0.0122,0.01464,-0.01952,-0.05368,-0.09272,-0.09272,-0.06832
-0.02928,0.05612,-0.08296,-0.06832,-0.05368,0.0122,0.01464,-0.01464,-0.05368,-0.09272,-0.09272,-0.06344
-0.0488,0.061,-0.0732,-0.0488,-0.0244,-0.0122,0.0244,-0.01464,-0.0488,-0.09272,-0.10248,-0.06832
-0.06344,0.0732,-0.08296,-0.05124,-0.01952,-0.02196,0.02928,-0.01464,-0.03904,-0.09272,-0.10248,-0.06832
-0.05856,0.06344,-0.06832,-0.03904,-0.00976,-0.0244,0.01952,-0.01464,-0.03904,-0.07808,-0.10248,-0.05856
-0.05368,0.06344,-0.0732,-0.04636,-0.01952,-0.01708,0.01952,-0.00976,-0.03904,-0.0732,-0.09272,-0.05368
-0.04392,0.061,-0.07808,-0.05612,-0.03416,-0.00488,0.02928,-0.00976,-0.03416,-0.08296,-0.0976,-0.05856
-0.05856,0.06832,-0.07808,-0.0488,-0.01952,-0.01952,0.02928,-0.00976,-0.03416,-0.08784,-0.0976,-0.06832
-0.04392,0.061,-0.07808,-0.05612,-0.03416,-0.00488,0.01952,-0.00976,-0.03416,-0.0732,-0.09272,-0.05368
-0.0244,0.05124,-0.07808,-0.06588,-0.05368,0.01464,0.01464,-0.00976,-0.03416,-0.0732,-0.08296,-0.0488
-0.03416,0.05368,-0.0732,-0.05612,-0.03904,0.00244,0.0244,-0.00976,-0.03416,-0.08296,-0.08296,-0.05856
-0.06832,0.07076,-0.0732,-0.03904,-0.00488,-0.03172,0.02928,-0.00488,-0.0244,-0.07808,-0.08784,-0.05856
-0.05368,0.05856,-0.06344,-0.0366,-0.00976,-0.02196,0.0244,-0.00488,-0.02928,-0.0732,-0.08784,-0.05368
-0.02928,0.04636,-0.06344,-0.0488,-0.03416,0.00244,0.0244,-0.00976,-0.02928,-0.06832,-0.08784,-0.0488
-0.05368,0.05856,-0.06344,-0.0366,-0.00976,-0.02196,0.0244,-0.00488,-0.02928,-0.07808,-0.0976,-0.05856
-0.06344,0.06588,-0.06832,-0.0366,-0.00488,-0.02928,0.0244,-0.00488,-0.02928,-0.07808,-0.0976,-0.06344
-0.04392,0.05856,-0.0732,-0.05124,-0.02928,-0.00732,0.01464,-0.00488,-0.02928,-0.07808,-0.09272,-0.06344
-0.00488,0.03416,-0.06344,-0.061,-0.05856,0.02684,0.01464,-0.00488,-0.03416,-0.07808,-0.09272,-0.05856
0,0.02684,-0.05368,-0.05368,-0.05368,0.02684,0.01952,-0.00976,-0.03416,-0.08784,-0.0976,-0.05368
-0.04392,0.05368,-0.06344,-0.04148,-0.01952,-0.0122,0.0244,-0.00976,-0.02928,-0.07808,-0.0976,-0.05368
-0.08784,0.0854,-0.08296,-0.03904,0.00488,-0.04636,0.0244,0,-0.0244,-0.0732,-0.0976,-0.04392
-0.04392,0.061,-0.07808,-0.05612,-0.03416,-0.00488,0.0244,0,-0.0244,-0.06832,-0.08296,-0.04392
-0.03416,0.04636,-0.05856,-0.04148,-0.0244,-0.00488,0.0244,0,-0.0244,-0.0732,-0.08784,-0.0488
-0.06344,0.06344,-0.06344,-0.03172,0,-0.03172,0.0244,0,-0.0244,-0.07808,-0.08784,-0.05368
-0.0488,0.061,-0.0732,-0.0488,-0.0244,-0.0122,0.01464,-0.00976,-0.03904,-0.07808,-0.08296,-0.06344
-0.02928,0.05124,-0.0732,-0.05856,-0.04392,0.00732,0.01464,-0.00976,-0.03904,-0.07808,-0.07808,-0.06344
-0.0244,0.04392,-0.06344,-0.05124,-0.03904,0.00732,0.00976,-0.00976,-0.05368,-0.08784,-0.09272,-0.06832
-0.04392,0.05368,-0.06344,-0.04148,-0.01952,-0.0122,0.01464,-0.01464,-0.06344,-0.0976,-0.10248,-0.08296
-0.06344,0.06832,-0.0732,-0.04148,-0.00976,-0.02684,0.02928,-0.00976,-0.04392,-0.0976,-0.0976,-0.08296
-0.03416,0.05612,-0.07808,-0.061,-0.04392,0.00488,0.02928,-0.00976,-0.04392,-0.08296,-0.08296,-0.06344
-0.0244,0.0488,-0.0732,-0.061,-0.0488,0.0122,0.02928,0,-0.05368,-0.08784,-0.08296,-0.06344
-0.0488,0.061,-0.0732,-0.0488,-0.0244,-0.0122,0.02928,0,-0.05856,-0.09272,-0.0976,-0.06344
-0.07808,0.0732,-0.06832,-0.02928,0.00976,-0.04392,0.01952,-0.00976,-0.05856,-0.08784,-0.0976,-0.06344
-0.05368,0.05856,-0.06344,-0.0366,-0.00976,-0.02196,0.01952,-0.00976,-0.06344,-0.09272,-0.0976,-0.06832
-0.03904,0.0488,-0.05856,-0.03904,-0.01952,-0.00976,0.01952,-0.00976,-0.06832,-0.10248,-0.0976,-0.06832
-0.04392,0.05612,-0.06832,-0.04636,-0.0244,-0.00976,0.01952,-0.01464,-0.07808,-0.10736,-0.10248,-0.06344
-0.04392,0.05856,-0.0732,-0.05124,-0.02928,-0.00732,0.02928,-0.00976,-0.06344,-0.0976,-0.09272,-0.05856
-0.06344,0.0732,-0.08296,-0.05124,-0.01952,-0.02196,0.02928,-0.01464,-0.06344,-0.10248,-0.09272,-0.05856
-0.03904,0.05612,-0.0732,-0.05368,-0.03416,-0.00244,0.02928,-0.01464,-0.08296,-0.0976,-0.09272,-0.05856
-0.0488,0.05856,-0.06832,-0.04392,-0.01952,-0.01464,0.0244,-0.01464,-0.07808,-0.0976,-0.09272,-0.05856
-0.05368,0.061,-0.06832,-0.04148,-0.01464,-0.01952,0.02928,-0.01464,-0.0732,-0.10736,-0.10736,-0.06344
-0.06832,0.07808,-0.08784,-0.05368,-0.01952,-0.0244,0.03416,-0.00976,-0.08296,-0.10248,-0.10736,-0.05856
-0.02928,0.05856,-0.08784,-0.0732,-0.05856,0.01464,0.0244,-0.01952,-0.08296,-0.11712,-0.10736,-0.06344
-0.03416,0.0488,-0.06344,-0.04636,-0.02928,-0.00244,0.02928,-0.01464,-0.06832,-0.11224,-0.10736,-0.05856
-0.06344,0.06588,-0.06832,-0.0366,-0.00488,-0.02928,0.01952,-0.01952,-0.07808,-0.122,-0.11224,-0.07808
-0.0732,0.07808,-0.08296,-0.04636,-0.00976,-0.03172,0.0244,-0.01952,-0.08296,-0.12688,-0.11712,-0.0732
-0.06832,0.07564,-0.08296,-0.0488,-0.01464,-0.02684,0.01952,-0.0244,-0.07808,-0.11224,-0.10248,-0.06832
-0.04392,0.06344,-0.08296,-0.061,-0.03904,-0.00244,0.0244,-0.00976,-0.0732,-0.11224,-0.09272,-0.05856
-0.05368,0.07076,-0.08784,-0.061,-0.03416,-0.00976,0.02928,-0.00976,-0.08784,-0.11712,-0.09272,-0.05856
-0.06344,0.08052,-0.0976,-0.06588,-0.03416,-0.01464,0.03416,-0.01464,-0.09272,-0.122,-0.10248,-0.06832
-0.03904,0.061,-0.08296,-0.06344,-0.04392,0.00244,0.03416,-0.00976,-0.09272,-0.11224,-0.0976,-0.06344
-0.02928,0.05612,-0.08296,-0.06832,-0.05368,0.0122,0.0244,-0.01464,-0.09272,-0.11712,-0.0976,-0.06832
-0.06344,0.0732,-0.08296,-0.05124,-0.01952,-0.02196,0.02928,-0.01464,-0.09272,-0.13176,-0.10736,-0.07808
-0.05856,0.07076,-0.08296,-0.05368,-0.0244,-0.01708,0.02928,-0.01464,-0.10248,-0.13664,-0.11712,-0.07808
-0.0488,0.06588,-0.08296,-0.05856,-0.03416,-0.00732,0.02928,-0.00488,-0.09272,-0.122,-0.11224,-0.06832
-0.03416,0.061,-0.08784,-0.07076,-0.05368,0.00976,0.02928,-0.00488,-0.09272,-0.11224,-0.10248,-0.06344
-0.05368,0.07076,-0.08784,-0.061,-0.03416,-0.00976,0.03904,-0.01464,-0.08296,-0.12688,-0.10248,-0.06832
-0.0732,0.08296,-0.09272,-0.05612,-0.01952,-0.02684,0.04392,-0.00976,-0.08296,-0.13176,-0.11224,-0.06832
-0.0732,0.0854,-0.0976,-0.061,-0.0244,-0.0244,0.03904,-0.01952,-0.0976,-0.12688,-0.11224,-0.0732
-0.03904,0.061,-0.08296,-0.06344,-0.04392,0.00244,0.0244,-0.0244,-0.10248,-0.12688,-0.11224,-0.08296
-0.04392,0.06344,-0.08296,-0.061,-0.03904,-0.00244,0.02928,-0.0244,-0.10248,-0.13664,-0.11224,-0.0732
-0.0732,0.08052,-0.08784,-0.05124,-0.01464,-0.02928,0.01952,-0.0244,-0.10736,-0.14152,-0.12688,-0.07808
-0.06832,0.07564,-0.08296,-0.0488,-0.01464,-0.02684,0.01952,-0.01464,-0.0976,-0.14152,-0.12688,-0.07808
-0.04392,0.061,-0.07808,-0.05612,-0.03416,-0.00488,0.03416,-0.01464,-0.08296,-0.11712,-0.10736,-0.06344
-0.06832,0.07808,-0.08784,-0.05368,-0.01952,-0.0244,0.0244,-0.0244,-0.08784,-0.12688,-0.10248,-0.06832
-0.07808,0.0854,-0.09272,-0.05368,-0.01464,-0.03172,0.02928,-0.0244,-0.10248,-0.14152,-0.122,-0.08296
-0.07808,0.09272,-0.10736,-0.06832,-0.02928,-0.0244,0.03416,-0.01464,-0.08784,-0.14152,-0.11712,-0.0732
-0.04392,0.07076,-0.0976,-0.07564,-0.05368,0.00488,0.02928,-0.01464,-0.08296,-0.12688,-0.11224,-0.06344
-0.03904,0.06588,-0.09272,-0.0732,-0.05368,0.00732,0.0244,-0.01464,-0.10736,-0.12688,-0.10736,-0.0732
-0.0732,0.08052,-0.08784,-0.05124,-0.01464,-0.02928,0.02928,-0.01464,-0.10736,-0.14152,-0.122,-0.07808
-0.06344,0.0732,-0.08296,-0.05124,-0.01952,-0.02196,0.02928,-0.01464,-0.09272,-0.14152,-0.122,-0.0732
-0.05368,0.0732,-0.09272,-0.06588,-0.03904,-0.00732,0.02928,-0.01952,-0.10248,-0.13176,-0.11224,-0.0732
-0.03416,0.061,-0.08784,-0.07076,-0.05368,0.00976,0.03904,-0.01952,-0.09272,-0.13664,-0.11224,-0.06832
-0.08296,0.08784,-0.09272,-0.05124,-0.00976,-0.0366,0.04392,-0.01464,-0.08784,-0.13664,-0.11712,-0.06832
-0.06832,0.08296,-0.0976,-0.06344,-0.02928,-0.01952,0.03416,-0.00976,-0.09272,-0.13664,-0.122,-0.0732
-0.04392,0.06832,-0.09272,-0.07076,-0.0488,0.00244,0.02928,-0.01464,-0.09272,-0.13664,-0.10736,-0.06832
-0.04392,0.06344,-0.08296,-0.061,-0.03904,-0.00244,0.04392,-0.00488,-0.08784,-0.13176,-0.11224,-0.0732
-0.05856,0.0732,-0.08784,-0.05856,-0.02928,-0.01464,0.03904,-0.00976,-0.0976,-0.14152,-0.11712,-0.08296
-0.05856,0.08296,-0.10736,-0.07808,-0.0488,-0.00488,0.0244,-0.01952,-0.10248,-0.15616,-0.13664,-0.09272
-0.01464,0.06344,-0.11224,-0.10492,-0.0976,0.04148,0.01464,-0.02928,-0.11712,-0.15128,-0.13176,-0.0976
-0.01464,0.05124,-0.08784,-0.08052,-0.0732,0.02928,0.0244,-0.02928,-0.10736,-0.1464,-0.122,-0.08784
-0.07808,0.08052,-0.08296,-0.04392,-0.00488,-0.0366,0.03904,-0.00976,-0.09272,-0.13176,-0.10736,-0.06832
-0.0732,0.08784,-0.10248,-0.06588,-0.02928,-0.02196,0.03904,-0.01464,-0.0976,-0.1464,-0.122,-0.08296
0,0.02928,-0.05856,-0.05856,-0.05856,0.02928,0.02928,-0.00976,-0.0976,-0.11712,-0.10736,-0.06832
-0.03904,0.05368,-0.06832,-0.0488,-0.02928,-0.00488,0.02928,-0.01952,-0.0976,-0.12688,-0.10736,-0.06832
-0.06832,0.0732,-0.07808,-0.04392,-0.00976,-0.02928,0.02928,-0.01952,-0.0976,-0.13664,-0.10736,-0.06832
-0.07808,0.08784,-0.0976,-0.05856,-0.01952,-0.02928,0.03904,-0.00976,-0.0976,-0.1464,-0.11712,-0.07808
-0.08784,0.0976,-0.10736,-0.06344,-0.01952,-0.03416,0.03904,-0.00976,-0.0976,-0.1464,-0.11712,-0.07808
-0.05856,0.07808,-0.0976,-0.06832,-0.03904,-0.00976,0.02928,-0.01952,-0.10736,-0.13664,-0.11712,-0.06832
-0.03904,0.06344,-0.08784,-0.06832,-0.0488,0.00488,0.02928,-0.01952,-0.10736,-0.13664,-0.11712,-0.06832
-0.0488,0.06832,-0.08784,-0.06344,-0.03904,-0.00488,0.02928,-0.01952,-0.10736,-0.1464,-0.12688,-0.07808
-0.0488,0.06832,-0.08784,-0.06344,-0.03904,-0.00488,0.02928,-0.01952,-0.10736,-0.1464,-0.12688,-0.07808
-0.0488,0.06832,-0.08784,-0.06344,-0.03904,-0.00488,0.02928,-0.00976,-0.10736,-0.13664,-0.11712,-0.07808
-0.0488,0.06832,-0.08784,-0.06344,-0.03904,-0.00488,0.02928,-0.00976,-0.10736,-0.13664,-0.11712,-0.07808
-0.05856,0.0732,-0.08784,-0.05856,-0.02928,-0.01464,0.03904,-0.00976,-0.0976,-0.1464,-0.11712,-0.07808
-0.06832,0.07808,-0.08784,-0.05368,-0.01952,-0.0244,0.03904,-0.00976,-0.0976,-0.1464,-0.11712,-0.07808
-0.03904,0.06832,-0.0976,-0.07808,-0.05856,0.00976,0.02928,-0.00976,-0.10736,-0.13664,-0.10736,-0.06832
-0.01952,0.05368,-0.08784,-0.07808,-0.06832,0.0244,0.01952,-0.01952,-0.0976,-0.13664,-0.10736,-0.0732
-0.03904,0.05368,-0.06832,-0.0488,-0.02928,-0.00488,0.01952,-0.0244,-0.09272,-0.13664,-0.10736,-0.0732
-0.03416,0.04148,-0.0488,-0.03172,-0.01464,-0.00976,0.01464,-0.02928,-0.0732,-0.13176,-0.10736,-0.07808
-0.06832,0.0488,-0.02928,0.00488,0.03904,-0.05368,0.00976,-0.02928,-0.06344,-0.11712,-0.08784,-0.05856
-0.06832,0.04148,-0.01464,0.01952,0.05368,-0.061,-0.01464,-0.05368,-0.05368,-0.10736,-0.07808,-0.0488
-0.07808,0.05124,-0.0244,0.01464,0.05368,-0.06588,-0.01464,-0.03904,-0.05856,-0.11224,-0.08296,-0.06344
-0.0488,0.03172,-0.01464,0.00976,0.03416,-0.04148,-0.00976,-0.03416,-0.04392,-0.10248,-0.08296,-0.05856
-0.00488,0,0.00488,0.00732,0.00976,-0.00732,-0.01952,-0.03416,-0.0488,-0.0976,-0.09272,-0.05856
-0.0244,0.01464,-0.00488,0.00732,0.01952,-0.02196,-0.0244,-0.04392,-0.05856,-0.09272,-0.08784,-0.05368
-0.01464,0.01464,-0.01464,-0.00732,0,-0.00732,-0.05856,-0.05368,-0.0732,-0.10736,-0.09272,-0.05856
-0.00976,0.00976,-0.00976,-0.00488,0,-0.00488,-0.05368,-0.03904,-0.06344,-0.10248,-0.08296,-0.05368
0.03416,-0.01708,0,-0.01708,-0.03416,0.03416,-0.03416,-0.0244,-0.0488,-0.08784,-0.06344,-0.02928
0.0244,-0.00976,-0.00488,-0.01708,-0.02928,0.02684,-0.02928,-0.01464,-0.03904,-0.0732,-0.0488,-0.01952
0,0.00732,-0.01464,-0.01464,-0.01464,0.00732,-0.02928,-0.00488,-0.04392,-0.06832,-0.0488,-0.0244
0.00488,0.0122,-0.02928,-0.03172,-0.03416,0.01952,-0.02928,-0.01464,-0.0732,-0.09272,-0.05368,-0.02928
0.03904,-0.00488,-0.02928,-0.0488,-0.06832,0.05368,-0.01952,-0.01952,-0.06832,-0.07808,-0.04392,-0.01464
0.00976,0.0122,-0.03416,-0.03904,-0.04392,0.02684,-0.01464,-0.01952,-0.0732,-0.08296,-0.04392,-0.01464
-0.01952,0.03416,-0.0488,-0.03904,-0.02928,0.00488,0,-0.00976,-0.09272,-0.10248,-0.06832,-0.01464
-0.0244,0.0244,-0.0244,-0.0122,0,-0.0122,0,-0.0244,-0.10736,-0.11712,-0.07808,-0.03416
-0.04392,0.05368,-0.06344,-0.04148,-0.01952,-0.0122,0.00976,-0.03416,-0.10736,-0.11224,-0.08296,-0.0488
-0.0488,0.061,-0.0732,-0.0488,-0.0244,-0.0122,0.01952,-0.03416,-0.11224,-0.13176,-0.0976,-0.05856
-0.06832,0.07808,-0.08784,-0.05368,-0.01952,-0.0244,0.02928,-0.02928,-0.12688,-0.15128,-0.11224,-0.07808
-0.03416,0.06588,-0.0976,-0.08052,-0.06344,0.01464,0.02928,-0.01952,-0.12688,-0.16104,-0.12688,-0.08296
-0.02928,0.06832,-0.10736,-0.09272,-0.07808,0.0244,0.04392,-0.01952,-0.122,-0.16592,-0.12688,-0.08296
-0.05368,0.07808,-0.10248,-0.07564,-0.0488,-0.00244,0.05368,-0.00976,-0.122,-0.1708,-0.13176,-0.08784
-0.09272,0.10248,-0.11224,-0.06588,-0.01952,-0.0366,0.0488,-0.00976,-0.11712,-0.1708,-0.13664,-0.07808
-0.09272,0.1098,-0.12688,-0.08052,-0.03416,-0.02928,0.0488,-0.00976,-0.11712,-0.1708,-0.14152,-0.07808
-0.06344,0.09028,-0.11712,-0.0854,-0.05368,-0.00488,0.04392,-0.00976,-0.12688,-0.1708,-0.14152,-0.09272
-0.05368,0.0854,-0.11712,-0.09028,-0.06344,0.00488,0.04392,-0.00976,-0.12688,-0.16592,-0.14152,-0.08784
-0.06344,0.08784,-0.11224,-0.08052,-0.0488,-0.00732,0.06344,0.00488,-0.11224,-0.16592,-0.13176,-0.08784
-0.05856,0.0854,-0.11224,-0.08296,-0.05368,-0.00244,0.06344,0.00488,-0.11224,-0.16592,-0.13664,-0.08784
-0.05856,0.0976,-0.13664,-0.10736,-0.07808,0.00976,0.05856,0,-0.11224,-0.17568,-0.1464,-0.0976
-0.11224,0.12444,-0.13664,-0.08052,-0.0244,-0.04392,0.06832,0.00488,-0.11224,-0.1708,-0.14152,-0.0976
-0.0976,0.11468,-0.13176,-0.08296,-0.03416,-0.03172,0.06344,0,-0.10248,-0.16104,-0.13176,-0.08296
-0.07808,0.10004,-0.122,-0.08296,-0.04392,-0.01708,0.06344,0,-0.10248,-0.16104,-0.13664,-0.08296
-0.07808,0.10004,-0.122,-0.08296,-0.04392,-0.01708,0.0732,0.00976,-0.10248,-0.15616,-0.13664,-0.0976
-0.07808,0.0976,-0.11712,-0.07808,-0.03904,-0.01952,0.06832,0.00488,-0.10248,-0.16104,-0.13664,-0.0976
-0.07808,0.0976,-0.11712,-0.07808,-0.03904,-0.01952,0.05856,-0.00488,-0.10736,-0.1708,-0.14152,-0.10248
-0.07808,0.10004,-0.122,-0.08296,-0.04392,-0.01708,0.0488,0,-0.10248,-0.1708,-0.13664,-0.0976
-0.0976,0.10492,-0.11224,-0.06344,-0.01464,-0.04148,0.06832,0.00976,-0.10248,-0.18056,-0.1464,-0.0976
-0.06832,0.09028,-0.11224,-0.07808,-0.04392,-0.0122,0.06832,0.00976,-0.09272,-0.16592,-0.14152,-0.08784
-0.06832,0.08296,-0.0976,-0.06344,-0.02928,-0.01952,0.122,0.0732,-0.00488,-0.15128,-0.15128,-0.10736
-0.16592,0.13176,-0.0976,-0.01464,0.06832,-0.11712,0.1708,0.12688,0.122,-0.20008,-0.244,-0.20496
-0.16592,0.13176,-0.0976,-0.01464,0.06832,-0.11712,0.2196,0.20984,0.22936,-0.18056,-0.25864,-0.2196
-0.11224,0.06344,-0.01464,0.04148,0.0976,-0.10492,0.20984,0.2196,0.3416,-0.04392,-0.16104,-0.1708
0.04392,-0.04636,0.0488,0.02684,0.00488,0.01952,0.16104,0.30256,0.44408,0.15128,-0.01464,-0.07808
0.23424,-0.20008,0.16592,0.0488,-0.06832,0.15128,0.02928,0.3172,0.54168,0.5368,0.30256,0.15128
0.49776,-0.47824,0.45872,0.20984,-0.03904,0.2684,-0.18544,0.24888,0.90768,1.1224,0.79544,0.46848
0.69784,-0.72956,0.76128,0.41236,0.06344,0.3172,-0.4148,0.05856,1.25416,1.65432,1.25416,0.7808
0.81984,-0.89548,0.97112,0.5612,0.15128,0.33428,-0.69296,-0.30744,0.98088,2.02032,1.69824,1.09312
0.90768,-0.97844,1.0492,0.59536,0.14152,0.38308,-0.87352,-0.61488,0.50264,2.19112,1.94224,1.27368
0.83936,-0.81008,0.7808,0.36112,-0.05856,0.44896,-0.8052,-0.61488,-0.122,1.81536,1.83,1.2688
0.67344,-0.6588,0.64416,0.30744,-0.02928,0.35136,-0.57584,-0.48312,-0.19032,1.37616,1.49328,1.05896
0.47336,-0.4636,0.45384,0.21716,-0.01952,0.24644,-0.29768,-0.31232,-0.28304,0.84912,1.07848,0.77592
0.18056,-0.16104,0.14152,0.05124,-0.03904,0.1098,-0.0732,-0.18056,-0.63928,0.00488,0.49288,0.42944
-0.0488,0.03416,-0.01952,0.00488,0.02928,-0.03904,0.11224,-0.09272,-0.732,-0.35136,0.1464,0.18544
-0.08296,0.0854,-0.08784,-0.04636,-0.00488,-0.03904,0.17568,-0.06832,-0.64416,-0.3416,0.00976,0.06344
-0.09272,0.11712,-0.14152,-0.09516,-0.0488,-0.02196,0.20984,-0.02928,-0.59048,-0.35624,-0.11224,-0.03416
-0.10248,0.1342,-0.16592,-0.11468,-0.06344,-0.01952,0.2684,0.07808,-0.44408,-0.29768,-0.13664,-0.07808
-0.16592,0.1708,-0.17568,-0.09272,-0.00976,-0.07808,0.2684,0.08784,-0.33184,-0.24888,-0.13664,-0.08784
-0.10248,0.1342,-0.16592,-0.11468,-0.06344,-0.01952,0.22448,0.0976,-0.25864,-0.22448,-0.11712,-0.0732
-0.02928,0.08052,-0.13176,-0.11712,-0.10248,0.0366,0.18544,0.11712,-0.17568,-0.17568,-0.09272,-0.0488
-0.0488,0.0854,-0.122,-0.0976,-0.0732,0.0122,0.16592,0.13176,-0.122,-0.15616,-0.07808,-0.04392
-0.09272,0.11712,-0.14152,-0.09516,-0.0488,-0.02196,0.13176,0.0976,-0.06832,-0.14152,-0.09272,-0.06344
-0.08296,0.10492,-0.12688,-0.0854,-0.04392,-0.01952,0.10736,0.07808,-0.0488,-0.122,-0.08784,-0.06344
-0.04392,0.08052,-0.11712,-0.09516,-0.0732,0.01464,0.08296,0.05856,-0.04392,-0.11712,-0.10248,-0.06344
-0.01952,0.06588,-0.11224,-0.10248,-0.09272,0.0366,0.0732,0.05368,-0.03416,-0.11712,-0.11224,-0.06344
-0.03416,0.07076,-0.10736,-0.09028,-0.0732,0.01952,0.07808,0.06344,-0.01464,-0.11712,-0.11712,-0.0732
-0.0488,0.0732,-0.0976,-0.0732,-0.0488,0,0.0732,0.06344,-0.00488,-0.11224,-0.11712,-0.0732
-0.03416,0.06588,-0.0976,-0.08052,-0.06344,0.01464,0.06344,0.06344,0,-0.08784,-0.0976,-0.06832
-0.02928,0.05612,-0.08296,-0.06832,-0.05368,0.0122,0.05368,0.06344,0.00488,-0.08784,-0.08784,-0.06832
-0.04392,0.07076,-0.0976,-0.07564,-0.05368,0.00488,0.05856,0.06344,0.02928,-0.08296,-0.09272,-0.06832
-0.05856,0.07808,-0.0976,-0.06832,-0.03904,-0.00976,0.05856,0.06344,0.03416,-0.08784,-0.10248,-0.06832
-0.05368,0.07076,-0.08784,-0.061,-0.03416,-0.00976,0.05856,0.0488,0.03904,-0.0732,-0.08784,-0.0732
-0.01952,0.0488,-0.07808,-0.06832,-0.05856,0.01952,0.0488,0.0488,0.05368,-0.06832,-0.08784,-0.0732
-0.0244,0.05612,-0.08784,-0.07564,-0.06344,0.01952,0.05368,0.06344,0.06344,-0.06832,-0.0732,-0.05856
-0.03904,0.06588,-0.09272,-0.0732,-0.05368,0.00732,0.05368,0.06344,0.0732,-0.05368,-0.06832,-0.05368
-0.0244,0.05612,-0.08784,-0.07564,-0.06344,0.01952,0.04392,0.05856,0.08296,-0.0488,-0.05856,-0.04392
0.00488,0.04148,-0.08784,-0.09028,-0.09272,0.0488,0.04392,0.06344,0.08784,-0.02928,-0.0488,-0.03904
-0.0244,0.05124,-0.07808,-0.06588,-0.05368,0.01464,0.04392,0.06344,0.10736,-0.01952,-0.05368,-0.0488
-0.00488,0.02684,-0.0488,-0.04636,-0.04392,0.01952,0.04392,0.06344,0.11712,-0.01464,-0.0488,-0.04392
0.00488,0.02196,-0.0488,-0.05124,-0.05368,0.02928,0.01952,0.05368,0.122,-0.01464,-0.0488,-0.03904
0.01464,0.0244,-0.06344,-0.07076,-0.07808,0.04636,0.0244,0.05368,0.122,-0.00488,-0.03416,-0.03416
-0.00976,0.03172,-0.05368,-0.0488,-0.04392,0.01708,0.02928,0.05368,0.14152,0.00976,-0.0244,-0.02928
-0.01464,0.03172,-0.0488,-0.04148,-0.03416,0.00976,0.02928,0.05856,0.1464,0.00976,-0.0244,-0.02928
0.01952,0.0122,-0.04392,-0.05368,-0.06344,0.04148,0.0244,0.06832,0.16104,0.04392,-0.01952,-0.01952
0.01952,0.01708,-0.05368,-0.06344,-0.0732,0.04636,0.01952,0.06832,0.1708,0.05856,-0.00976,-0.01464
0.00488,0.0244,-0.05368,-0.05612,-0.05856,0.03172,0.03416,0.06832,0.18056,0.0732,0.00976,-0.00488
0.03416,-0.00244,-0.02928,-0.04636,-0.06344,0.0488,0.02928,0.06832,0.1952,0.07808,0.01952,0
0.00976,0.00488,-0.01952,-0.0244,-0.02928,0.01952,0.01952,0.0732,0.20496,0.0976,0.01952,0.00488
0.03416,-0.01464,-0.00488,-0.02196,-0.03904,0.0366,0.00976,0.0732,0.21472,0.11224,0.03416,0.00976
0.02928,-0.0244,0.01952,0.00488,-0.00976,0.01952,0.00976,0.0732,0.22936,0.122,0.03416,0.01952
0.03904,-0.0366,0.03416,0.01464,-0.00488,0.02196,0.00488,0.0732,0.24888,0.14152,0.0488,0.0244
0.04392,-0.03904,0.03416,0.0122,-0.00976,0.02684,0,0.07808,0.26352,0.16592,0.05856,0.03416
0.05856,-0.04392,0.02928,0,-0.02928,0.04392,-0.00488,0.07808,0.27816,0.18544,0.06832,0.02928
0.04392,-0.03904,0.03416,0.0122,-0.00976,0.02684,-0.0244,0.06344,0.2928,0.20984,0.0976,0.03416
0.05856,-0.05368,0.0488,0.01952,-0.00976,0.03416,-0.0244,0.0732,0.3172,0.23912,0.11224,0.0488
0.08784,-0.0732,0.05856,0.01464,-0.02928,0.05856,-0.03904,0.06832,0.32696,0.25864,0.13176,0.04392
0.0976,-0.08296,0.06832,0.01952,-0.02928,0.06344,-0.04392,0.06832,0.34648,0.28304,0.1464,0.05856
0.0976,-0.0854,0.0732,0.0244,-0.0244,0.061,-0.04392,0.07808,0.38064,0.32696,0.18056,0.08784
0.10736,-0.10736,0.10736,0.05368,0,0.05368,-0.05368,0.08296,0.40016,0.35136,0.20008,0.0976
0.122,-0.12932,0.13664,0.07564,0.01464,0.05368,-0.05368,0.0976,0.41968,0.37088,0.21472,0.10736
0.11224,-0.12444,0.13664,0.08052,0.0244,0.04392,-0.05856,0.09272,0.4392,0.40016,0.23424,0.122
0.13176,-0.14396,0.15616,0.09028,0.0244,0.05368,-0.08296,0.08784,0.45384,0.42944,0.244,0.14152
0.14152,-0.15372,0.16592,0.09516,0.0244,0.05856,-0.08296,0.07808,0.46848,0.45384,0.26352,0.15616
0.13664,-0.14884,0.16104,0.09272,0.0244,0.05612,-0.08296,0.0732,0.48312,0.47824,0.2928,0.15616
0.15128,-0.16592,0.18056,0.10492,0.02928,0.061,-0.09272,0.06344,0.49776,0.488,0.29768,0.1708
0.15616,-0.18056,0.20496,0.12688,0.0488,0.05368,-0.0976,0.0732,0.52216,0.51728,0.32208,0.19032
0.16592,-0.19764,0.22936,0.1464,0.06344,0.05124,-0.0976,0.06832,0.53192,0.54656,0.33672,0.1952
0.1708,-0.20008,0.22936,0.14396,0.05856,0.05612,-0.12688,0.0488,0.51728,0.55144,0.32208,0.18056
0.1708,-0.19764,0.22448,0.13908,0.05368,0.05856,-0.13176,0.04392,0.51728,0.54656,0.32696,0.18544
0.18056,-0.20984,0.23912,0.14884,0.05856,0.061,-0.13176,0.04392,0.53192,0.5612,0.33672,0.1952
0.17568,-0.21228,0.24888,0.16104,0.0732,0.05124,-0.13176,0.03416,0.53192,0.57096,0.35136,0.20496
0.15616,-0.1952,0.23424,0.15616,0.07808,0.03904,-0.15128,0.0244,0.52216,0.55632,0.34648,0.20008
0.16104,-0.20252,0.244,0.16348,0.08296,0.03904,-0.15128,0.01952,0.51728,0.54656,0.33672,0.19032
0.18056,-0.22204,0.26352,0.17324,0.08296,0.0488,-0.15128,0.01464,0.50264,0.54168,0.33672,0.20008
0.16104,-0.2074,0.25376,0.17324,0.09272,0.03416,-0.15616,0,0.49288,0.52704,0.33672,0.20008
0.15616,-0.20008,0.244,0.16592,0.08784,0.03416,-0.14152,-0.00488,0.47336,0.49776,0.31232,0.18544
0.13176,-0.17812,0.22448,0.1586,0.09272,0.01952,-0.14152,-0.01464,0.45384,0.4636,0.2928,0.1708
0.12688,-0.1708,0.21472,0.15128,0.08784,0.01952,-0.13176,-0.01464,0.4392,0.44408,0.28304,0.17568
0.11712,-0.1586,0.20008,0.14152,0.08296,0.01708,-0.12688,-0.0244,0.40504,0.39528,0.26352,0.15128
0.09272,-0.12932,0.16592,0.11956,0.0732,0.00976,-0.11224,-0.0244,0.37088,0.3416,0.2196,0.122
0.06344,-0.10736,0.15128,0.11956,0.08784,-0.0122,-0.0976,-0.03416,0.34648,0.28792,0.18544,0.10248
0.05856,-0.10004,0.14152,0.11224,0.08296,-0.0122,-0.07808,-0.02928,0.32208,0.25376,0.16104,0.08784
0.05856,-0.09028,0.122,0.09272,0.06344,-0.00244,-0.06832,-0.03416,0.28304,0.20984,0.13176,0.0732
0.01952,-0.05612,0.09272,0.08296,0.0732,-0.02684,-0.05856,-0.0244,0.2684,0.1708,0.11712,0.0488
0,-0.03416,0.06832,0.06832,0.06832,-0.03416,-0.04392,-0.01952,0.23912,0.13176,0.08296,0.02928
-0.00488,-0.01708,0.03904,0.04148,0.04392,-0.0244,-0.03416,-0.02928,0.20008,0.0976,0.05856,0.00976
0.00976,-0.01708,0.0244,0.01952,0.01464,-0.00244,-0.0244,-0.0244,0.18056,0.06832,0.03904,0
-0.0244,0.00732,0.00976,0.02196,0.03416,-0.02928,-0.01952,-0.0244,0.14152,0.01952,0.00488,-0.01464
-0.02928,0.01464,0,0.01464,0.02928,-0.02928,-0.00976,-0.01952,0.13176,-0.00976,-0.02928,-0.03904
-0.01464,0.01708,-0.01952,-0.0122,-0.00488,-0.00488,-0.01952,-0.01952,0.10736,-0.03904,-0.05368,-0.05368
0,0.01464,-0.02928,-0.02928,-0.02928,0.01464,-0.00488,-0.01952,0.08784,-0.04392,-0.06832,-0.05856
-0.03416,0.03416,-0.03416,-0.01708,0,-0.01708,0.01464,-0.00976,0.0732,-0.06344,-0.07808,-0.06344
-0.06344,0.04392,-0.0244,0.00732,0.03904,-0.05124,0.01464,-0.00488,0.06344,-0.06832,-0.07808,-0.05856
-0.05368,0.04636,-0.03904,-0.0122,0.01464,-0.03416,0.00976,-0.01464,0.0488,-0.0732,-0.07808,-0.05368
-0.04392,0.04392,-0.04392,-0.02196,0,-0.02196,0.00976,-0.01464,0.03904,-0.08296,-0.07808,-0.05856
-0.02928,0.0366,-0.04392,-0.02928,-0.01464,-0.00732,0.01952,-0.00488,0.03904,-0.08784,-0.08784,-0.05856
-0.02928,0.04148,-0.05368,-0.03904,-0.0244,-0.00244,0.01464,-0.00488,0.03416,-0.0976,-0.09272,-0.06344
-0.03416,0.05368,-0.0732,-0.05612,-0.03904,0.00244,0.01952,-0.00976,0.03416,-0.10248,-0.09272,-0.05856
-0.06344,0.07564,-0.08784,-0.05612,-0.0244,-0.01952,0.01952,-0.01952,0.01952,-0.10248,-0.09272,-0.06344
-0.06344,0.07076,-0.07808,-0.04636,-0.01464,-0.0244,0.0244,-0.01464,0.00976,-0.10736,-0.09272,-0.06344
-0.06344,0.06832,-0.0732,-0.04148,-0.00976,-0.02684,0.0244,-0.00976,0.00976,-0.11224,-0.0976,-0.06832
-0.05856,0.0732,-0.08784,-0.05856,-0.02928,-0.01464,0.0244,-0.00976,0.01952,-0.11224,-0.08784,-0.06344
-0.04392,0.061,-0.07808,-0.05612,-0.03416,-0.00488,0.0244,-0.00976,0.01464,-0.10736,-0.07808,-0.05856
-0.04392,0.05612,-0.06832,-0.04636,-0.0244,-0.00976,0.0244,-0.00976,0.01464,-0.11712,-0.08784,-0.05856
-0.05368,0.06588,-0.07808,-0.05124,-0.0244,-0.01464,0.0244,-0.00976,0.01464,-0.11224,-0.08784,-0.06344
-0.04392,0.05856,-0.0732,-0.05124,-0.02928,-0.00732,0.0244,0,0.0244,-0.11224,-0.09272,-0.06832
-0.03904,0.05124,-0.06344,-0.04392,-0.0244,-0.00732,0.0244,0.00488,0.0244,-0.11224,-0.09272,-0.06344
-0.03904,0.05612,-0.0732,-0.05368,-0.03416,-0.00244,0.0244,-0.00488,0.01952,-0.11224,-0.09272,-0.05856
-0.03416,0.05856,-0.08296,-0.06588,-0.0488,0.00732,0.02928,-0.00488,0.02928,-0.11224,-0.09272,-0.05856
-0.04392,0.06588,-0.08784,-0.06588,-0.04392,0,0.03904,0.00488,0.03904,-0.11712,-0.09272,-0.06832
-0.06832,0.08052,-0.09272,-0.05856,-0.0244,-0.02196,0.03904,0.00976,0.03904,-0.11224,-0.08296,-0.06344
-0.05856,0.06832,-0.07808,-0.0488,-0.01952,-0.01952,0.02928,0,0.05368,-0.10736,-0.07808,-0.0488
-0.04392,0.05124,-0.05856,-0.0366,-0.01464,-0.01464,0.02928,0,0.05368,-0.10248,-0.07808,-0.05856
-0.03904,0.05124,-0.06344,-0.04392,-0.0244,-0.00732,0.01952,-0.00976,0.04392,-0.10736,-0.09272,-0.06344
-0.0488,0.061,-0.0732,-0.0488,-0.0244,-0.0122,0.01464,-0.00976,0.04392,-0.11712,-0.10248,-0.07808
-0.0488,0.05612,-0.06344,-0.03904,-0.01464,-0.01708,0.0244,0,0.0488,-0.11712,-0.09272,-0.07808
-0.05368,0.05856,-0.06344,-0.0366,-0.00976,-0.02196,0.02928,0.00488,0.06832,-0.10248,-0.07808,-0.05856
-0.0488,0.06344,-0.07808,-0.05368,-0.02928,-0.00976,0.03416,0.01464,0.06832,-0.10248,-0.07808,-0.06344
-0.05368,0.07076,-0.08784,-0.061,-0.03416,-0.00976,0.03416,0.00976,0.06832,-0.0976,-0.07808,-0.05856
-0.05368,0.06832,-0.08296,-0.05612,-0.02928,-0.0122,0.02928,0.00976,0.05856,-0.10736,-0.08784,-0.05856
-0.0244,0.04636,-0.06832,-0.05612,-0.04392,0.00976,0.01952,0,0.05856,-0.10736,-0.08784,-0.06344
-0.03416,0.05612,-0.07808,-0.061,-0.04392,0.00488,0.01952,0,0.06832,-0.0976,-0.09272,-0.05368
-0.05368,0.06588,-0.07808,-0.05124,-0.0244,-0.01464,0.02928,0.00976,0.06344,-0.0976,-0.09272,-0.0488
-0.0488,0.05368,-0.05856,-0.03416,-0.00976,-0.01952,0.01952,0,0.06344,-0.0976,-0.07808,-0.05368
-0.03416,0.04636,-0.05856,-0.04148,-0.0244,-0.00488,0.0244,0,0.06832,-0.08784,-0.07808,-0.05368
-0.06832,0.06832,-0.06832,-0.03416,0,-0.03416,0.0244,0,0.06344,-0.0976,-0.08784,-0.05856
-0.06344,0.06832,-0.0732,-0.04148,-0.00976,-0.02684,0.0244,0,0.06344,-0.10248,-0.09272,-0.06832
-0.05368,0.05368,-0.05368,-0.02684,0,-0.02684,0.0244,0,0.0732,-0.0976,-0.09272,-0.06344
-0.04392,0.04636,-0.0488,-0.02684,-0.00488,-0.01952,0.0244,0,0.0732,-0.09272,-0.08296,-0.05856
-0.04392,0.0488,-0.05368,-0.03172,-0.00976,-0.01708,0.03416,0,0.05856,-0.09272,-0.09272,-0.06344
-0.05368,0.05368,-0.05368,-0.02684,0,-0.02684,0.03416,0,0.05856,-0.10248,-0.08784,-0.06344
-0.0488,0.05368,-0.05856,-0.03416,-0.00976,-0.01952,0.01952,0,0.06344,-0.11224,-0.08784,-0.06344
-0.03904,0.05368,-0.06832,-0.0488,-0.02928,-0.00488,0.0244,-0.00488,0.05368,-0.11224,-0.08784,-0.06832
-0.0732,0.07564,-0.07808,-0.04148,-0.00488,-0.03416,0.01952,0,0.05856,-0.11712,-0.0976,-0.0732
-0.06344,0.06832,-0.0732,-0.04148,-0.00976,-0.02684,0.01952,0,0.0488,-0.122,-0.10248,-0.0732
-0.03416,0.05368,-0.0732,-0.05612,-0.03904,0.00244,0.01952,-0.00976,0.04392,-0.122,-0.0976,-0.0732
-0.01952,0.04636,-0.0732,-0.06344,-0.05368,0.01708,0.01952,-0.00976,0.03904,-0.11712,-0.10248,-0.0732
-0.04392,0.05368,-0.06344,-0.04148,-0.01952,-0.0122,0.02928,0,0.03904,-0.11712,-0.0976,-0.06344
-0.0488,0.05856,-0.06832,-0.04392,-0.01952,-0.01464,0.02928,0,0.03416,-0.122,-0.0976,-0.06832
-0.03904,0.05124,-0.06344,-0.04392,-0.0244,-0.00732,0.02928,-0.00976,0.03904,-0.11224,-0.0976,-0.06832
-0.04392,0.05368,-0.06344,-0.04148,-0.01952,-0.0122,0.02928,-0.01464,0.02928,-0.11712,-0.10248,-0.06344
-0.06344,0.06344,-0.06344,-0.03172,0,-0.03172,0.02928,0,0.0244,-0.12688,-0.10248,-0.05856
-0.08296,0.07808,-0.0732,-0.03172,0.00976,-0.04636,0.02928,-0.00488,0.0244,-0.13176,-0.10248,-0.05856
-0.05368,0.06588,-0.07808,-0.05124,-0.0244,-0.01464,0.02928,-0.01464,0.00488,-0.13664,-0.10248,-0.06832
-0.05368,0.06832,-0.08296,-0.05612,-0.02928,-0.0122,0.0244,-0.01464,0.00976,-0.13664,-0.10248,-0.06832
-0.06344,0.07076,-0.07808,-0.04636,-0.01464,-0.0244,0.02928,-0.00488,0.01464,-0.13664,-0.0976,-0.06344
-0.07808,0.07808,-0.07808,-0.03904,0,-0.03904,0.03416,0,0.00488,-0.13176,-0.0976,-0.05856
-0.0488,0.06588,-0.08296,-0.05856,-0.03416,-0.00732,0.0244,-0.00976,-0.00488,-0.13664,-0.10736,-0.0732
-0.05368,0.061,-0.06832,-0.04148,-0.01464,-0.01952,0.02928,-0.00488,0.00976,-0.13176,-0.10736,-0.06832
-0.06344,0.06588,-0.06832,-0.0366,-0.00488,-0.02928,0.01952,0,0.00976,-0.14152,-0.11224,-0.06832
-0.0732,0.06832,-0.06344,-0.02684,0.00976,-0.04148,0.0244,0,0.00488,-0.1464,-0.11712,-0.06344
-0.06832,0.06832,-0.06832,-0.03416,0,-0.03416,0.0244,-0.01952,-0.00976,-0.15128,-0.10736,-0.0732
-0.04392,0.061,-0.07808,-0.05612,-0.03416,-0.00488,0.01952,-0.01464,-0.00488,-0.15128,-0.10736,-0.0732
-0.05856,0.06832,-0.07808,-0.0488,-0.01952,-0.01952,0.02928,0,0,-0.1464,-0.10736,-0.06344
-0.05856,0.0732,-0.08784,-0.05856,-0.02928,-0.01464,0.03416,-0.00488,-0.00488,-0.15128,-0.10736,-0.06344
-0.04392,0.06344,-0.08296,-0.061,-0.03904,-0.00244,0.03416,0,-0.01464,-0.1464,-0.11224,-0.06832
-0.04392,0.06344,-0.08296,-0.061,-0.03904,-0.00244,0.0244,-0.00488,-0.01464,-0.16104,-0.122,-0.08296
-0.05856,0.06588,-0.0732,-0.04392,-0.01464,-0.02196,0.0244,-0.01464,-0.0244,-0.16104,-0.122,-0.08784
-0.04392,0.05856,-0.0732,-0.05124,-0.02928,-0.00732,0.01464,-0.01464,-0.03416,-0.16592,-0.122,-0.08784
-0.0488,0.061,-0.0732,-0.0488,-0.0244,-0.0122,0.01464,-0.00488,-0.01464,-0.16104,-0.11712,-0.08296
-0.05368,0.06588,-0.07808,-0.05124,-0.0244,-0.01464,0.0244,-0.00488,-0.01464,-0.15128,-0.11712,-0.06832
-0.06344,0.0732,-0.08296,-0.05124,-0.01952,-0.02196,0.02928,-0.00488,-0.01464,-0.15128,-0.11224,-0.05856
-0.06344,0.07076,-0.07808,-0.04636,-0.01464,-0.0244,0.03416,0,-0.01464,-0.1464,-0.10248,-0.05856
-0.06832,0.07564,-0.08296,-0.0488,-0.01464,-0.02684,0.03416,-0.00976,-0.01952,-0.14152,-0.11712,-0.06832
-0.06344,0.07076,-0.07808,-0.04636,-0.01464,-0.0244,0.02928,-0.01464,-0.0244,-0.15128,-0.12688,-0.08784
-0.0488,0.05612,-0.06344,-0.03904,-0.01464,-0.01708,0.02928,-0.00488,-0.0244,-0.1464,-0.11224,-0.06832
-0.0488,0.05856,-0.06832,-0.04392,-0.01952,-0.01464,0.01952,-0.00488,-0.02928,-0.15128,-0.10736,-0.06344
-0.05368,0.06832,-0.08296,-0.05612,-0.02928,-0.0122,0.0244,-0.01464,-0.03416,-0.1708,-0.11712,-0.06832
-0.07808,0.08784,-0.0976,-0.05856,-0.01952,-0.02928,0.02928,-0.01464,-0.02928,-0.16592,-0.11712,-0.0732
-0.09272,0.09272,-0.09272,-0.04636,0,-0.04636,0.0244,-0.00488,-0.02928,-0.16592,-0.11224,-0.06832
-0.05368,0.07076,-0.08784,-0.061,-0.03416,-0.00976,0.02928,-0.00488,-0.0244,-0.16104,-0.11224,-0.06344
-0.05856,0.0732,-0.08784,-0.05856,-0.02928,-0.01464,0.0244,-0.00488,-0.01952,-0.16104,-0.11712,-0.0732
-0.06344,0.07076,-0.07808,-0.04636,-0.01464,-0.0244,0.01952,-0.00488,-0.01464,-0.16592,-0.13176,-0.08296
-0.03904,0.05612,-0.0732,-0.05368,-0.03416,-0.00244,0.01464,-0.01464,-0.02928,-0.16104,-0.122,-0.09272
-0.03416,0.05124,-0.06832,-0.05124,-0.03416,0,0.01952,-0.01464,-0.02928,-0.16592,-0.12688,-0.07808
-0.03904,0.05856,-0.07808,-0.05856,-0.03904,0,0.02928,-0.00488,-0.01464,-0.17568,-0.12688,-0.0732
-0.07808,0.08784,-0.0976,-0.05856,-0.01952,-0.02928,0.02928,-0.00976,-0.0244,-0.17568,-0.12688,-0.0732
-0.06344,0.07808,-0.09272,-0.061,-0.02928,-0.01708,0.01952,-0.00976,-0.0244,-0.16592,-0.11224,-0.06832
-0.0732,0.08052,-0.08784,-0.05124,-0.01464,-0.02928,0.0244,-0.00488,-0.01952,-0.16592,-0.11712,-0.06832
-0.06344,0.07564,-0.08784,-0.05612,-0.0244,-0.01952,0.03416,-0.00976,-0.01464,-0.17568,-0.13176,-0.0732
-0.06832,0.07564,-0.08296,-0.0488,-0.01464,-0.02684,0.02928,-0.01464,-0.01464,-0.17568,-0.11712,-0.06832
-0.05856,0.07076,-0.08296,-0.05368,-0.0244,-0.01708,0.0244,-0.01464,-0.02928,-0.1708,-0.122,-0.0732
-0.04392,0.06588,-0.08784,-0.06588,-0.04392,0,0.01952,-0.01952,-0.03904,-0.18056,-0.12688,-0.08296
-0.06344,0.07808,-0.09272,-0.061,-0.02928,-0.01708,0.02928,-0.00488,-0.03416,-0.17568,-0.12688,-0.07808
-0.06832,0.07808,-0.08784,-0.05368,-0.01952,-0.0244,0.02928,-0.00488,-0.02928,-0.1708,-0.122,-0.0732
-0.0488,0.061,-0.0732,-0.0488,-0.0244,-0.0122,0.01952,-0.01464,-0.01952,-0.16104,-0.12688,-0.0732
-0.06344,0.07076,-0.07808,-0.04636,-0.01464,-0.0244,0.0244,-0.00488,-0.0244,-0.15616,-0.122,-0.06344
-0.05368,0.06832,-0.08296,-0.05612,-0.02928,-0.0122,0.02928,-0.00488,-0.02928,-0.16592,-0.122,-0.0732
-0.07808,0.08296,-0.08784,-0.0488,-0.00976,-0.03416,0.01952,-0.00976,-0.02928,-0.18544,-0.13664,-0.08784
-0.05856,0.06832,-0.07808,-0.0488,-0.01952,-0.01952,0.01952,-0.01952,-0.02928,-0.17568,-0.12688,-0.08784
-0.0488,0.06344,-0.07808,-0.05368,-0.02928,-0.00976,0.01952,-0.01952,-0.02928,-0.17568,-0.12688,-0.08784
-0.0488,0.05856,-0.06832,-0.04392,-0.01952,-0.01464,0.01952,-0.01952,-0.03904,-0.18544,-0.13664,-0.07808
-0.0488,0.05856,-0.06832,-0.04392,-0.01952,-0.01464,0.01952,-0.01952,-0.03904,-0.18544,-0.13664,-0.07808
-0.06832,0.07808,-0.08784,-0.05368,-0.01952,-0.0244,0.02928,-0.00976,-0.02928,-0.17568,-0.12688,-0.06832
-0.08784,0.09272,-0.0976,-0.05368,-0.00976,-0.03904,0.03904,-0.00976,-0.01952,-0.17568,-0.11712,-0.06832
-0.06832,0.0732,-0.07808,-0.04392,-0.00976,-0.02928,0.02928,0,-0.02928,-0.16592,-0.11712,-0.06832
-0.0488,0.05856,-0.06832,-0.04392,-0.01952,-0.01464,0.0244,-0.00976,-0.0244,-0.16592,-0.11712,-0.0732
-0.05856,0.061,-0.06344,-0.03416,-0.00488,-0.02684,0.0244,-0.00976,-0.01952,-0.17568,-0.122,-0.08296
-0.0488,0.04636,-0.04392,-0.01952,0.00488,-0.02684,0.01464,-0.01952,0,-0.15128,-0.11224,-0.06832
-0.04392,0.03172,-0.01952,0.00244,0.0244,-0.03416,0,-0.03416,0.00488,-0.14152,-0.0976,-0.05856
-0.05856,0.03172,-0.00488,0.0244,0.05368,-0.05612,-0.01464,-0.05368,0.00488,-0.1464,-0.08784,-0.0488
-0.07808,0.05124,-0.0244,0.01464,0.05368,-0.06588,-0.0244,-0.05368,0,-0.1464,-0.0976,-0.06344
-0.0488,0.02684,-0.00488,0.01952,0.04392,-0.04636,-0.0244,-0.0488,0.00976,-0.13664,-0.0976,-0.05856
-0.01464,0.00488,0.00488,0.0122,0.01952,-0.01708,-0.01952,-0.04392,0.00976,-0.14152,-0.10248,-0.06832
-0.04392,0.02196,0,0.02196,0.04392,-0.04392,-0.0244,-0.04392,0.00976,-0.13176,-0.0976,-0.05368
-0.04392,0.0244,-0.00488,0.01708,0.03904,-0.04148,-0.05368,-0.05368,0.01464,-0.13664,-0.0976,-0.05368
-0.0244,0.01464,-0.00488,0.00732,0.01952,-0.02196,-0.06832,-0.06344,0.00488,-0.13664,-0.08296,-0.04392
0.04392,-0.02684,0.00976,-0.0122,-0.03416,0.03904,-0.0488,-0.02928,0.01952,-0.10736,-0.06832,-0.03416
0.0488,-0.03416,0.01952,-0.00488,-0.02928,0.03904,-0.04392,-0.0244,0.01952,-0.10736,-0.06344,-0.02928
-0.00976,0.00244,0.00488,0.00976,0.01464,-0.0122,-0.02928,-0.01464,0.02928,-0.10736,-0.06832,-0.0244
-0.0244,0.0122,0,0.0122,0.0244,-0.0244,-0.02928,-0.01464,0.01464,-0.122,-0.06832,-0.0244
0.0244,-0.0122,0,-0.0122,-0.0244,0.0244,-0.03904,-0.03416,-0.00976,-0.122,-0.06344,-0.01952
0.05856,-0.02928,0,-0.02928,-0.05856,0.05856,-0.0244,-0.02928,-0.00976,-0.11712,-0.06344,-0.01464
-0.00488,0.0122,-0.01952,-0.01708,-0.01464,0.00488,-0.00976,-0.01952,-0.01952,-0.12688,-0.06832,-0.0244
-0.02928,0.03416,-0.03904,-0.0244,-0.00976,-0.00976,-0.00976,-0.01952,-0.04392,-0.15128,-0.07808,-0.02928
-0.0244,0.02928,-0.03416,-0.02196,-0.00976,-0.00732,-0.00976,-0.03416,-0.05856,-0.16104,-0.0976,-0.0488
-0.0244,0.04148,-0.05856,-0.04636,-0.03416,0.00488,0.00488,-0.04392,-0.05856,-0.1708,-0.10736,-0.0488
-0.06832,0.06832,-0.06832,-0.03416,0,-0.03416,0.0244,-0.03416,-0.06832,-0.20008,-0.122,-0.06832
-0.08784,0.0854,-0.08296,-0.03904,0.00488,-0.04636,0.02928,-0.02928,-0.06832,-0.20008,-0.12688,-0.06832
-0.05368,0.06588,-0.07808,-0.05124,-0.0244,-0.01464,0.01952,-0.02928,-0.06832,-0.18544,-0.12688,-0.0732
-0.03904,0.05612,-0.0732,-0.05368,-0.03416,-0.00244,0.0244,-0.02928,-0.0732,-0.18544,-0.13176,-0.07808
-0.08296,0.09272,-0.10248,-0.061,-0.01952,-0.03172,0.03904,-0.00976,-0.08296,-0.20496,-0.14152,-0.08784
-0.09272,0.10492,-0.11712,-0.07076,-0.0244,-0.03416,0.03904,-0.00976,-0.08784,-0.2196,-0.15616,-0.0976
-0.05368,0.0854,-0.11712,-0.09028,-0.06344,0.00488,0.03416,-0.00976,-0.08784,-0.20984,-0.14152,-0.09272
-0.05368,0.0854,-0.11712,-0.09028,-0.06344,0.00488,0.03416,-0.00976,-0.08784,-0.1952,-0.13176,-0.07808
-0.0732,0.09028,-0.10736,-0.07076,-0.03416,-0.01952,0.03904,-0.01952,-0.08296,-0.20984,-0.14152,-0.08296
-0.10248,0.10736,-0.11224,-0.061,-0.00976,-0.04636,0.04392,-0.01464,-0.08296,-0.21472,-0.1464,-0.08784
-0.03904,0.08052,-0.122,-0.10248,-0.08296,0.02196,0.04392,-0.01952,-0.08296,-0.20496,-0.1464,-0.0976
-0.04392,0.0854,-0.12688,-0.10492,-0.08296,0.01952,0.03904,-0.01952,-0.08296,-0.20496,-0.14152,-0.0976
-0.07808,0.09272,-0.10736,-0.06832,-0.02928,-0.0244,0.06344,-0.00488,-0.0732,-0.20984,-0.14152,-0.08784
-0.0976,0.10492,-0.11224,-0.06344,-0.01464,-0.04148,0.06344,0.00976,-0.06344,-0.20984,-0.1464,-0.08296
-0.08296,0.0976,-0.11224,-0.07076,-0.02928,-0.02684,0.05368,0,-0.0732,-0.20984,-0.15616,-0.09272
-0.06832,0.09028,-0.11224,-0.07808,-0.04392,-0.0122,0.05368,-0.00976,-0.0732,-0.20496,-0.15616,-0.0976
-0.06832,0.08784,-0.10736,-0.0732,-0.03904,-0.01464,0.05856,-0.00488,-0.07808,-0.20984,-0.14152,-0.09272
-0.08784,0.0976,-0.10736,-0.06344,-0.01952,-0.03416,0.05856,-0.00488,-0.0732,-0.20984,-0.13176,-0.08784
-0.05856,0.09028,-0.122,-0.09272,-0.06344,0.00244,0.05856,0,-0.08296,-0.20984,-0.13664,-0.08784
-0.0488,0.0854,-0.122,-0.0976,-0.0732,0.0122,0.06344,0,-0.08296,-0.21472,-0.13664,-0.08784
-0.08784,0.10004,-0.11224,-0.06832,-0.0244,-0.03172,0.0732,0.01464,-0.05368,-0.20984,-0.15616,-0.0976
-0.18056,0.1342,-0.08784,0.00244,0.09272,-0.13664,0.1464,0.08296,0.06832,-0.23912,-0.21472,-0.15616
-0.16592,0.13908,-0.11224,-0.02928,0.05368,-0.1098,0.20984,0.18056,0.20496,-0.22448,-0.25864,-0.20008
-0.10248,0.08784,-0.0732,-0.02196,0.02928,-0.06588,0.20496,0.20984,0.3172,-0.1708,-0.23912,-0.19032
-0.0488,0.01708,0.01464,0.03904,0.06344,-0.05612,0.18056,0.244,0.41968,-0.00976,-0.122,-0.12688
0.0488,-0.05856,0.06832,0.04392,0.01952,0.01464,0.13176,0.32208,0.51728,0.22936,0.06344,0
0.29768,-0.2806,0.26352,0.11468,-0.03416,0.16592,-0.06832,0.23912,0.66856,0.73688,0.49776,0.28792
0.57096,-0.55632,0.54168,0.2562,-0.02928,0.30012,-0.26352,0.18056,1.11264,1.37128,1.00528,0.60512
0.74176,-0.81008,0.8784,0.50752,0.13664,0.30256,-0.53192,-0.12688,1.23952,1.8056,1.44936,0.89792
0.76128,-0.88328,1.00528,0.62464,0.244,0.25864,-0.7564,-0.44408,0.8296,2.10816,1.78608,1.13704
0.84912,-0.91744,0.98576,0.5612,0.13664,0.35624,-0.87352,-0.6588,0.31232,2.10816,1.93248,1.2688
0.71736,-0.72712,0.73688,0.3782,0.01952,0.34892,-0.69784,-0.5612,-0.18056,1.60064,1.68848,1.1712
0.51728,-0.57096,0.62464,0.366,0.10736,0.20496,-0.48312,-0.45872,-0.14152,1.18096,1.32736,0.91256
0.28304,-0.33428,0.38552,0.244,0.10248,0.09028,-0.20496,-0.25864,-0.38064,0.488,0.81984,0.61
0.06832,-0.08052,0.09272,0.05856,0.0244,0.02196,0,-0.14152,-0.71248,-0.33184,0.23424,0.25376
-0.03904,0.0366,-0.03416,-0.01464,0.00488,-0.02196,0.12688,-0.05856,-0.67344,-0.37576,0.0732,0.13176
-0.07808,0.08784,-0.0976,-0.05856,-0.01952,-0.02928,0.19032,-0.0488,-0.61976,-0.41968,-0.09272,0.00976
-0.15128,0.14152,-0.13176,-0.05612,0.01952,-0.0854,0.25376,0.0488,-0.52216,-0.38552,-0.1464,-0.05368
-0.20984,0.2074,-0.20496,-0.10004,0.00488,-0.10736,0.27816,0.11712,-0.38552,-0.33184,-0.16592,-0.07808
-0.08784,0.12688,-0.16592,-0.122,-0.07808,-0.00488,0.25376,0.0976,-0.31232,-0.29768,-0.15616,-0.08784
-0.08296,0.12444,-0.16592,-0.12444,-0.08296,0,0.20496,0.10248,-0.23424,-0.25864,-0.13176,-0.06832
-0.0488,0.0854,-0.122,-0.0976,-0.0732,0.0122,0.18056,0.13176,-0.16592,-0.22936,-0.12688,-0.06832
-0.07808,0.10004,-0.122,-0.08296,-0.04392,-0.01708,0.16104,0.13176,-0.10736,-0.1952,-0.12688,-0.06344
-0.04392,0.08052,-0.11712,-0.09516,-0.0732,0.01464,0.122,0.0976,-0.06344,-0.17568,-0.10736,-0.05368
-0.02928,0.06344,-0.0976,-0.08296,-0.06832,0.01952,0.08784,0.0732,-0.05856,-0.16104,-0.10248,-0.05368
-0.03904,0.06588,-0.09272,-0.0732,-0.05368,0.00732,0.07808,0.05856,-0.04392,-0.16592,-0.11224,-0.06344
-0.0488,0.0732,-0.0976,-0.0732,-0.0488,0,0.07808,0.04392,-0.03904,-0.16592,-0.12688,-0.0732
-0.06832,0.09028,-0.11224,-0.07808,-0.04392,-0.0122,0.06832,0.05368,-0.02928,-0.16104,-0.12688,-0.0732
-0.03904,0.07808,-0.11712,-0.0976,-0.07808,0.01952,0.06344,0.05368,-0.01952,-0.15128,-0.122,-0.0732
-0.01952,0.05856,-0.0976,-0.08784,-0.07808,0.02928,0.06344,0.05368,-0.00488,-0.13664,-0.11224,-0.05856
-0.03416,0.05856,-0.08296,-0.06588,-0.0488,0.00732,0.06344,0.05368,0.00488,-0.122,-0.10248,-0.05856
-0.04392,0.07076,-0.0976,-0.07564,-0.05368,0.00488,0.05856,0.05368,0.00488,-0.12688,-0.10736,-0.06832
-0.03904,0.06832,-0.0976,-0.07808,-0.05856,0.00976,0.05368,0.0488,0.00488,-0.11224,-0.11224,-0.06832
-0.02928,0.05856,-0.08784,-0.0732,-0.05856,0.01464,0.04392,0.03904,0.01952,-0.10736,-0.0976,-0.05368
-0.01464,0.04636,-0.07808,-0.07076,-0.06344,0.0244,0.04392,0.03904,0.02928,-0.10248,-0.09272,-0.05368
-0.04392,0.06832,-0.09272,-0.07076,-0.0488,0.00244,0.05368,0.04392,0.04392,-0.0976,-0.08296,-0.0488
-0.0244,0.05612,-0.08784,-0.07564,-0.06344,0.01952,0.04392,0.04392,0.04392,-0.09272,-0.07808,-0.04392
0,0.02928,-0.05856,-0.05856,-0.05856,0.02928,0.03416,0.03904,0.05368,-0.08296,-0.05856,-0.03904
0.01952,0.00976,-0.03904,-0.0488,-0.05856,0.03904,0.0244,0.04392,0.06344,-0.06832,-0.05368,-0.03904
-0.03416,0.05124,-0.06832,-0.05124,-0.03416,0,0.03416,0.04392,0.06344,-0.06832,-0.05856,-0.04392
-0.03904,0.05856,-0.07808,-0.05856,-0.03904,0,0.0244,0.04392,0.0732,-0.06344,-0.06832,-0.03904
-0.00488,0.0366,-0.06832,-0.06588,-0.06344,0.02928,0.01952,0.04392,0.08296,-0.03904,-0.0488,-0.02928
-0.00488,0.02684,-0.0488,-0.04636,-0.04392,0.01952,0.0244,0.04392,0.0976,-0.02928,-0.03904,-0.01952
-0.00976,0.0244,-0.03904,-0.03416,-0.02928,0.00976,0.01952,0.05368,0.10248,-0.00976,-0.0244,-0.01952
-0.00488,0.02196,-0.03904,-0.0366,-0.03416,0.01464,0.01952,0.05856,0.11224,0,-0.0244,-0.01464
0.01952,0.00488,-0.02928,-0.03904,-0.0488,0.03416,0.00976,0.0488,0.11712,0.01464,-0.01464,-0.00488
0.01952,0.00488,-0.02928,-0.03904,-0.0488,0.03416,0.01464,0.0488,0.11712,0.03416,0,-0.00488
-0.00488,0.00976,-0.01464,-0.0122,-0.00976,0.00244,0.00976,0.0488,0.122,0.03416,-0.00976,-0.00976
-0.01464,0.01464,-0.01464,-0.00732,0,-0.00732,0.00976,0.05368,0.122,0.0488,0,0
0.0244,-0.00732,-0.00976,-0.02196,-0.03416,0.02928,0.00488,0.05368,0.13176,0.0732,0.0244,0.01952
0.0488,-0.02684,0.00488,-0.01952,-0.04392,0.04636,0,0.05368,0.1464,0.08784,0.0244,0.01952
0.01464,-0.01464,0.01464,0.00732,0,0.00732,-0.00488,0.05368,0.15128,0.0976,0.03416,0.00976
0.00976,-0.01464,0.01952,0.01464,0.00976,0,-0.00976,0.05856,0.17568,0.12688,0.0488,0.0244
0.06832,-0.061,0.05368,0.01952,-0.01464,0.04148,-0.0244,0.05856,0.18056,0.16592,0.07808,0.04392
0.08296,-0.07564,0.06832,0.02684,-0.01464,0.0488,-0.03416,0.05368,0.19032,0.18544,0.0976,0.05368
0.05368,-0.05368,0.05368,0.02684,0,0.02684,-0.03416,0.05368,0.20496,0.1952,0.10248,0.04392
0.02928,-0.03904,0.0488,0.03416,0.01952,0.00488,-0.04392,0.0488,0.20984,0.1952,0.09272,0.03904
0.08296,-0.08296,0.08296,0.04148,0,0.04148,-0.04392,0.05856,0.23424,0.23424,0.11224,0.05856
0.08296,-0.09272,0.10248,0.061,0.01952,0.03172,-0.04392,0.05856,0.25864,0.27816,0.15616,0.08784
0.0732,-0.08784,0.10248,0.06588,0.02928,0.02196,-0.04392,0.06344,0.27328,0.30256,0.1708,0.09272
0.07808,-0.0976,0.11712,0.07808,0.03904,0.01952,-0.06344,0.06344,0.29768,0.3172,0.18056,0.10248
0.122,-0.12932,0.13664,0.07564,0.01464,0.05368,-0.0732,0.05856,0.30256,0.36112,0.20984,0.10248
0.18056,-0.16836,0.15616,0.06588,-0.0244,0.10248,-0.08296,0.04392,0.3172,0.38064,0.2196,0.122
0.13176,-0.15372,0.17568,0.1098,0.04392,0.04392,-0.08296,0.05368,0.34648,0.41968,0.25376,0.14152
0.10736,-0.14152,0.17568,0.122,0.06832,0.01952,-0.08296,0.06344,0.366,0.44408,0.2684,0.15616
0.13176,-0.1586,0.18544,0.11956,0.05368,0.03904,-0.0976,0.05856,0.37576,0.47336,0.28304,0.1708
0.16104,-0.18056,0.20008,0.11956,0.03904,0.061,-0.10736,0.05368,0.38064,0.49776,0.29768,0.18544
0.1464,-0.18544,0.22448,0.15128,0.07808,0.03416,-0.11712,0.05368,0.40504,0.52216,0.30256,0.18544
0.15128,-0.19276,0.23424,0.1586,0.08296,0.03416,-0.13176,0.04392,0.40016,0.51728,0.30744,0.18544
0.18056,-0.2074,0.23424,0.14396,0.05368,0.06344,-0.13176,0.02928,0.40016,0.5368,0.32696,0.1952
0.20496,-0.22692,0.24888,0.1464,0.04392,0.08052,-0.13176,0.0244,0.40504,0.55144,0.33672,0.20496
0.15616,-0.19764,0.23912,0.16104,0.08296,0.0366,-0.13176,0.02928,0.40504,0.54656,0.34648,0.20984
0.10736,-0.17812,0.24888,0.1952,0.14152,-0.01708,-0.13176,0.01952,0.40016,0.54168,0.34648,0.20984
0.13176,-0.183,0.23424,0.16836,0.10248,0.01464,-0.14152,0.01464,0.38552,0.54168,0.3416,0.20496
0.17568,-0.2074,0.23912,0.15128,0.06344,0.05612,-0.14152,0.00488,0.366,0.5368,0.3416,0.20496
0.16592,-0.21472,0.26352,0.18056,0.0976,0.03416,-0.14152,0,0.36112,0.51728,0.33184,0.19032
0.13664,-0.19764,0.25864,0.19032,0.122,0.00732,-0.1464,-0.01464,0.3416,0.49288,0.31232,0.18544
0.1464,-0.19276,0.23912,0.16592,0.09272,0.02684,-0.1464,-0.02928,0.30256,0.44896,0.2928,0.15616
0.13664,-0.18056,0.22448,0.15616,0.08784,0.0244,-0.14152,-0.03416,0.28792,0.4148,0.27816,0.15128
0.11224,-0.16348,0.21472,0.1586,0.10248,0.00488,-0.13176,-0.03904,0.26352,0.38064,0.25864,0.1464
0.07808,-0.1342,0.19032,0.15128,0.11224,-0.01708,-0.11712,-0.04392,0.23424,0.33184,0.2196,0.12688
0.0732,-0.11712,0.16104,0.12444,0.08784,-0.00732,-0.0976,-0.03416,0.20496,0.29768,0.1952,0.10248
0.08296,-0.11224,0.14152,0.10004,0.05856,0.0122,-0.09272,-0.04392,0.17568,0.24888,0.16592,0.08296
0.05856,-0.09272,0.12688,0.0976,0.06832,-0.00488,-0.08784,-0.03904,0.14152,0.20984,0.1464,0.07808
0.01952,-0.06832,0.11712,0.10736,0.0976,-0.03904,-0.0732,-0.04392,0.10736,0.15616,0.11712,0.06832
0,-0.04392,0.08784,0.08784,0.08784,-0.04392,-0.05368,-0.02928,0.08784,0.122,0.08784,0.0488
-0.00976,-0.02684,0.06344,0.06832,0.0732,-0.04148,-0.03904,-0.02928,0.06344,0.08296,0.05856,0.03416
0.01464,-0.03904,0.06344,0.05612,0.0488,-0.01708,-0.03416,-0.0244,0.02928,0.05368,0.03416,0.01952
0,-0.02684,0.05368,0.05368,0.05368,-0.02684,-0.03416,-0.0244,0,0.0244,0.00976,0.00488
-0.03904,0.0122,0.01464,0.03416,0.05368,-0.04636,-0.0244,-0.02928,-0.02928,-0.01464,-0.00976,-0.01464
-0.0488,0.03172,-0.01464,0.00976,0.03416,-0.04148,-0.01952,-0.02928,-0.0488,-0.03416,-0.03416,-0.0244
-0.03416,0.02196,-0.00976,0.00732,0.0244,-0.02928,-0.00976,-0.02928,-0.06832,-0.0488,-0.04392,-0.0244
-0.04392,0.02928,-0.01464,0.00732,0.02928,-0.0366,0,-0.02928,-0.08784,-0.06832,-0.05368,-0.03416
-0.05856,0.04392,-0.02928,0,0.02928,-0.04392,0.00488,-0.01952,-0.09272,-0.08784,-0.07808,-0.0488
-0.06344,0.05368,-0.04392,-0.0122,0.01952,-0.04148,0,-0.01464,-0.10248,-0.09272,-0.07808,-0.05368
-0.03904,0.04392,-0.0488,-0.02928,-0.00976,-0.01464,0,-0.0244,-0.11712,-0.08784,-0.08296,-0.04392
-0.04392,0.0488,-0.05368,-0.03172,-0.00976,-0.01708,0.00976,-0.0244,-0.13176,-0.09272,-0.08784,-0.05856
-0.05368,0.05124,-0.0488,-0.02196,0.00488,-0.02928,0.01464,-0.0244,-0.13664,-0.10736,-0.0976,-0.05856
-0.0732,0.06588,-0.05856,-0.02196,0.01464,-0.04392,0.01952,-0.0244,-0.14152,-0.12688,-0.10248,-0.06344
-0.03904,0.04636,-0.05368,-0.03416,-0.01464,-0.0122,0.01952,-0.01464,-0.13664,-0.11224,-0.09272,-0.0488
-0.01952,0.03172,-0.04392,-0.03416,-0.0244,0.00244,0.01952,-0.01464,-0.1464,-0.10736,-0.08296,-0.04392
-0.0488,0.05124,-0.05368,-0.02928,-0.00488,-0.02196,0.01464,-0.01952,-0.15616,-0.122,-0.0976,-0.05368
-0.07808,0.07076,-0.06344,-0.0244,0.01464,-0.04636,0.01464,-0.01952,-0.1464,-0.13176,-0.10736,-0.06832
-0.04392,0.05612,-0.06832,-0.04636,-0.0244,-0.00976,0.0244,-0.01952,-0.15616,-0.11712,-0.08784,-0.06344
-0.01464,0.0366,-0.05856,-0.05124,-0.04392,0.01464,0.0244,-0.01952,-0.16592,-0.122,-0.08784,-0.05856
-0.06344,0.07076,-0.07808,-0.04636,-0.01464,-0.0244,0.0244,-0.01952,-0.16104,-0.13664,-0.10736,-0.08296
-0.09272,0.08784,-0.08296,-0.0366,0.00976,-0.05124,0.0244,-0.01952,-0.16104,-0.14152,-0.11712,-0.07808
-0.03904,0.05368,-0.06832,-0.0488,-0.02928,-0.00488,0.0244,-0.01952,-0.16104,-0.13176,-0.10248,-0.06832
-0.00976,0.03172,-0.05368,-0.0488,-0.04392,0.01708,0.0244,-0.01464,-0.15616,-0.122,-0.09272,-0.06344
-0.0488,0.061,-0.0732,-0.0488,-0.0244,-0.0122,0.0244,-0.00488,-0.15128,-0.13176,-0.10248,-0.06832
-0.06344,0.06588,-0.06832,-0.0366,-0.00488,-0.02928,0.02928,-0.00488,-0.1464,-0.13176,-0.10248,-0.06832
-0.0488,0.05856,-0.06832,-0.04392,-0.01952,-0.01464,0.02928,0,-0.1464,-0.11712,-0.08784,-0.05368
-0.03416,0.05368,-0.0732,-0.05612,-0.03904,0.00244,0.02928,0,-0.14152,-0.10248,-0.0732,-0.0488
-0.06344,0.06588,-0.06832,-0.0366,-0.00488,-0.02928,0.02928,0,-0.14152,-0.11712,-0.08784,-0.05856
-0.08784,0.07808,-0.06832,-0.0244,0.01952,-0.05368,0.02928,0,-0.14152,-0.11712,-0.08784,-0.06832
-0.05856,0.05856,-0.05856,-0.02928,0,-0.02928,0.02928,-0.00976,-0.13176,-0.11224,-0.08784,-0.05856
-0.02928,0.04392,-0.05856,-0.04392,-0.02928,0,0.0244,-0.00976,-0.13176,-0.11224,-0.08784,-0.05856
-0.05856,0.05612,-0.05368,-0.0244,0.00488,-0.03172,0.0244,0.00488,-0.12688,-0.10736,-0.08296,-0.05856
-0.0488,0.05124,-0.05368,-0.02928,-0.00488,-0.02196,0.02928,0.00488,-0.122,-0.10736,-0.08784,-0.05856
-0.03416,0.0488,-0.06344,-0.04636,-0.02928,-0.00244,0.01464,-0.00976,-0.12688,-0.10248,-0.08784,-0.05368
-0.0244,0.04148,-0.05856,-0.04636,-0.03416,0.00488,0.01464,-0.00488,-0.12688,-0.0976,-0.08784,-0.0488
-0.0488,0.05124,-0.05368,-0.02928,-0.00488,-0.02196,0.0244,-0.00488,-0.12688,-0.10736,-0.08784,-0.05856
-0.0488,0.05368,-0.05856,-0.03416,-0.00976,-0.01952,0.0244,0.00488,-0.12688,-0.10736,-0.08784,-0.06344
-0.04392,0.04636,-0.0488,-0.02684,-0.00488,-0.01952,0.0244,-0.00488,-0.11712,-0.0976,-0.09272,-0.0732
-0.03904,0.04148,-0.04392,-0.0244,-0.00488,-0.01708,0.0244,-0.00976,-0.122,-0.0976,-0.08784,-0.06832
-0.03904,0.04148,-0.04392,-0.0244,-0.00488,-0.01708,0.01952,0,-0.122,-0.0976,-0.08784,-0.06344
-0.06832,0.05612,-0.04392,-0.00976,0.0244,-0.04636,0.0244,0,-0.11224,-0.10248,-0.09272,-0.06344
-0.06344,0.06344,-0.06344,-0.03172,0,-0.03172,0.01464,-0.00976,-0.122,-0.10736,-0.0976,-0.06344
-0.03904,0.0488,-0.05856,-0.03904,-0.01952,-0.00976,0.01464,-0.00976,-0.13176,-0.10736,-0.0976,-0.06344
-0.0488,0.0488,-0.0488,-0.0244,0,-0.0244,0.0244,0,-0.122,-0.10248,-0.08784,-0.05856
-0.06832,0.05612,-0.04392,-0.00976,0.0244,-0.04636,0.0244,0,-0.13176,-0.10736,-0.09272,-0.06344
-0.05856,0.05612,-0.05368,-0.0244,0.00488,-0.03172,0.01464,-0.00976,-0.13664,-0.10736,-0.10248,-0.06344
-0.05368,0.05368,-0.05368,-0.02684,0,-0.02684,0.00976,-0.00976,-0.13664,-0.11224,-0.0976,-0.06344
-0.01952,0.03172,-0.04392,-0.03416,-0.0244,0.00244,0.01952,0,-0.14152,-0.11224,-0.0976,-0.06344
-0.0488,0.04636,-0.04392,-0.01952,0.00488,-0.02684,0.02928,-0.00976,-0.14152,-0.11224,-0.0976,-0.0732
-0.08296,0.07564,-0.06832,-0.02684,0.01464,-0.0488,0.01952,-0.00976,-0.13176,-0.11712,-0.09272,-0.06344
-0.0488,0.05124,-0.05368,-0.02928,-0.00488,-0.02196,0.00976,-0.00976,-0.15128,-0.11712,-0.08784,-0.06344
-0.03416,0.04392,-0.05368,-0.0366,-0.01952,-0.00732,0.01952,0,-0.14152,-0.11224,-0.08784,-0.05368
-0.03904,0.04636,-0.05368,-0.03416,-0.01464,-0.0122,0.01952,0,-0.1464,-0.11712,-0.09272,-0.05368
-0.06832,0.07076,-0.0732,-0.03904,-0.00488,-0.03172,0.01952,-0.00976,-0.16104,-0.13176,-0.10736,-0.06832
-0.03904,0.06344,-0.08784,-0.06832,-0.0488,0.00488,0.01952,-0.00976,-0.16592,-0.13176,-0.10736,-0.07808
-0.01952,0.04148,-0.06344,-0.05368,-0.04392,0.0122,0.00976,-0.01952,-0.16104,-0.122,-0.10736,-0.06344
-0.01464,0.02928,-0.04392,-0.0366,-0.02928,0.00732,0.00976,-0.0244,-0.16592,-0.12688,-0.11224,-0.06832
-0.0732,0.06588,-0.05856,-0.02196,0.01464,-0.04392,0.01952,-0.00976,-0.16104,-0.13664,-0.11224,-0.06832
-0.0732,0.06832,-0.06344,-0.02684,0.00976,-0.04148,0.01952,-0.01464,-0.16592,-0.14152,-0.11224,-0.07808
-0.05368,0.05612,-0.05856,-0.03172,-0.00488,-0.0244,0.01464,-0.01464,-0.1708,-0.12688,-0.10248,-0.06832
-0.03904,0.04636,-0.05368,-0.03416,-0.01464,-0.0122,0.01952,-0.01464,-0.16104,-0.13664,-0.10736,-0.0732
-0.06832,0.07076,-0.0732,-0.03904,-0.00488,-0.03172,0.0244,-0.00976,-0.1708,-0.14152,-0.11712,-0.06832
-0.05856,0.06588,-0.0732,-0.04392,-0.01464,-0.02196,0.01464,-0.01952,-0.19032,-0.1464,-0.11712,-0.0732
-0.03904,0.0488,-0.05856,-0.03904,-0.01952,-0.00976,0.02928,-0.01464,-0.18056,-0.13176,-0.10736,-0.06832
-0.0488,0.05612,-0.06344,-0.03904,-0.01464,-0.01708,0.02928,-0.01464,-0.17568,-0.13664,-0.11224,-0.0732
-0.0732,0.06832,-0.06344,-0.02684,0.00976,-0.04148,0.01952,-0.01952,-0.19032,-0.15616,-0.12688,-0.08784
-0.06832,0.06832,-0.06832,-0.03416,0,-0.03416,0.0244,-0.01952,-0.1952,-0.16104,-0.12688,-0.09272
-0.03904,0.05612,-0.0732,-0.05368,-0.03416,-0.00244,0.00976,-0.02928,-0.1952,-0.15128,-0.13664,-0.08296
-0.01464,0.04148,-0.06832,-0.061,-0.05368,0.01952,0.01952,-0.01952,-0.19032,-0.15128,-0.12688,-0.08296
-0.0732,0.07564,-0.07808,-0.04148,-0.00488,-0.03416,0.02928,-0.01464,-0.19032,-0.16104,-0.11712,-0.0732
-0.08784,0.08052,-0.0732,-0.02928,0.01464,-0.05124,0.03416,-0.00976,-0.19032,-0.15616,-0.11712,-0.0732
-0.0488,0.05612,-0.06344,-0.03904,-0.01464,-0.01708,0.01952,-0.01952,-0.19032,-0.15128,-0.10736,-0.06832
-0.02928,0.04636,-0.06344,-0.0488,-0.03416,0.00244,0.01464,-0.0244,-0.19032,-0.15616,-0.10736,-0.06832
-0.05368,0.05856,-0.06344,-0.0366,-0.00976,-0.02196,0.01952,-0.01464,-0.18056,-0.16592,-0.122,-0.07808
-0.05856,0.061,-0.06344,-0.03416,-0.00488,-0.02684,0.01952,-0.01464,-0.18056,-0.16104,-0.122,-0.07808
-0.0488,0.05368,-0.05856,-0.03416,-0.00976,-0.01952,0.01952,-0.01464,-0.19032,-0.15128,-0.12688,-0.08296
-0.0244,0.04148,-0.05856,-0.04636,-0.03416,0.00488,0.01952,-0.01464,-0.19032,-0.15616,-0.12688,-0.08784
-0.05856,0.05856,-0.05856,-0.02928,0,-0.02928,0.02928,-0.00976,-0.19032,-0.15616,-0.11712,-0.07808
-0.08296,0.07076,-0.05856,-0.01708,0.0244,-0.05368,0.03416,-0.00976,-0.1952,-0.16104,-0.122,-0.07808
-0.06832,0.07564,-0.08296,-0.0488,-0.01464,-0.02684,0.01952,-0.01952,-0.18544,-0.15616,-0.11224,-0.06344
-0.03904,0.05612,-0.0732,-0.05368,-0.03416,-0.00244,0.01952,-0.0244,-0.19032,-0.15616,-0.10736,-0.06344
-0.0488,0.05612,-0.06344,-0.03904,-0.01464,-0.01708,0.01952,-0.01464,-0.1952,-0.16592,-0.122,-0.07808
-0.06832,0.07076,-0.0732,-0.03904,-0.00488,-0.03172,0.02928,-0.01464,-0.1952,-0.1708,-0.12688,-0.08784
-0.05368,0.06832,-0.08296,-0.05612,-0.02928,-0.0122,0.01464,-0.0244,-0.20008,-0.16592,-0.13176,-0.09272
-0.0488,0.06832,-0.08784,-0.06344,-0.03904,-0.00488,0.01952,-0.0244,-0.1952,-0.16104,-0.11712,-0.08296
-0.06344,0.07076,-0.07808,-0.04636,-0.01464,-0.0244,0.0244,-0.01464,-0.19032,-0.16592,-0.12688,-0.07808
-0.06832,0.0732,-0.07808,-0.04392,-0.00976,-0.02928,0.03416,-0.01464,-0.18544,-0.16592,-0.122,-0.07808
-0.05856,0.06344,-0.06832,-0.03904,-0.00976,-0.0244,0.01952,-0.01464,-0.18544,-0.15128,-0.11712,-0.07808
-0.05368,0.06344,-0.0732,-0.04636,-0.01952,-0.01708,0.01952,-0.01464,-0.18056,-0.15128,-0.11224,-0.08296
-0.06832,0.06832,-0.06832,-0.03416,0,-0.03416,0.0244,-0.00488,-0.18544,-0.15616,-0.12688,-0.08784
-0.07808,0.0732,-0.06832,-0.02928,0.00976,-0.04392,0.02928,-0.00488,-0.18056,-0.15616,-0.12688,-0.08296
-0.06832,0.07076,-0.0732,-0.03904,-0.00488,-0.03172,0.01952,-0.01464,-0.19032,-0.16592,-0.12688,-0.08296
-0.0488,0.06588,-0.08296,-0.05856,-0.03416,-0.00732,0.00976,-0.02928,-0.20008,-0.16592,-0.122,-0.07808
-0.03904,0.05368,-0.06832,-0.0488,-0.02928,-0.00488,0.01952,-0.01952,-0.18544,-0.16592,-0.12688,-0.08784
-0.05856,0.061,-0.06344,-0.03416,-0.00488,-0.02684,0.0244,-0.00976,-0.19032,-0.16592,-0.12688,-0.08784
-0.06344,0.07076,-0.07808,-0.04636,-0.01464,-0.0244,0.01952,-0.01464,-0.20008,-0.17568,-0.13176,-0.08296
-0.03904,0.05124,-0.06344,-0.04392,-0.0244,-0.00732,0.0244,-0.01464,-0.20008,-0.16104,-0.11712,-0.07808
-0.04392,0.0488,-0.05368,-0.03172,-0.00976,-0.01708,0.00976,-0.02928,-0.20008,-0.16104,-0.122,-0.08296
-0.04392,0.05368,-0.06344,-0.04148,-0.01952,-0.0122,0.00976,-0.0244,-0.20496,-0.17568,-0.13176,-0.0976
-0.08296,0.08296,-0.08296,-0.04148,0,-0.04148,0.01952,-0.0244,-0.1952,-0.18056,-0.1464,-0.09272
-0.05368,0.07076,-0.08784,-0.061,-0.03416,-0.00976,0.01952,-0.0244,-0.20008,-0.18056,-0.14152,-0.09272
-0.03904,0.05124,-0.06344,-0.04392,-0.0244,-0.00732,0.01464,-0.01464,-0.1952,-0.16592,-0.122,-0.0732
-0.04392,0.061,-0.07808,-0.05612,-0.03416,-0.00488,0.01464,-0.01464,-0.1952,-0.16592,-0.12688,-0.08296
-0.08296,0.07808,-0.0732,-0.03172,0.00976,-0.04636,0.01464,-0.02928,-0.20984,-0.1952,-0.1464,-0.10736
-0.06344,0.06588,-0.06832,-0.0366,-0.00488,-0.02928,0.01952,-0.01952,-0.1952,-0.16592,-0.12688,-0.08296
-0.05368,0.061,-0.06832,-0.04148,-0.01464,-0.01952,0.01952,-0.01952,-0.1952,-0.16592,-0.12688,-0.0732
-0.05856,0.06832,-0.07808,-0.0488,-0.01952,-0.01952,0.01952,-0.00976,-0.18544,-0.16592,-0.13664,-0.07808
-0.07808,0.07808,-0.07808,-0.03904,0,-0.03904,0.01952,-0.00976,-0.18544,-0.16592,-0.13664,-0.07808
-0.06832,0.07076,-0.0732,-0.03904,-0.00488,-0.03172,0.00976,-0.01952,-0.1952,-0.16592,-0.13664,-0.08784
-0.0488,0.05612,-0.06344,-0.03904,-0.01464,-0.01708,0.00976,-0.01952,-0.1952,-0.16592,-0.13664,-0.08784
-0.04392,0.05368,-0.06344,-0.04148,-0.01952,-0.0122,0.01952,-0.01952,-0.1952,-0.17568,-0.1464,-0.0976
-0.05368,0.06344,-0.0732,-0.04636,-0.01952,-0.01708,0.01952,-0.01952,-0.1952,-0.17568,-0.1464,-0.0976
-0.04392,0.05856,-0.0732,-0.05124,-0.02928,-0.00732,0.00976,-0.01952,-0.18544,-0.16592,-0.13664,-0.08784
-0.03416,0.0488,-0.06344,-0.04636,-0.02928,-0.00244,0.00976,-0.01952,-0.18544,-0.16592,-0.13664,-0.08784
-0.03416,0.03904,-0.04392,-0.02684,-0.00976,-0.0122,0.00976,-0.0244,-0.17568,-0.15616,-0.13664,-0.08296
-0.04392,0.03416,-0.0244,-0.00244,0.01952,-0.03172,0,-0.01952,-0.1708,-0.1464,-0.12688,-0.0732
-0.03416,0.02196,-0.00976,0.00732,0.0244,-0.02928,-0.01464,-0.03416,-0.16104,-0.13176,-0.10736,-0.05856
-0.05856,0.03904,-0.01952,0.00976,0.03904,-0.0488,-0.01952,-0.05368,-0.16104,-0.13664,-0.10736,-0.05856
-0.05368,0.02928,-0.00488,0.02196,0.0488,-0.05124,-0.03416,-0.0732,-0.16104,-0.1464,-0.11712,-0.06832
-0.04392,0.01464,0.01464,0.0366,0.05856,-0.05124,-0.03416,-0.06832,-0.15616,-0.14152,-0.11224,-0.0732
-0.00488,-0.01464,0.03416,0.0366,0.03904,-0.02196,-0.03904,-0.06344,-0.14152,-0.13176,-0.10248,-0.06832
-0.00976,-0.00732,0.0244,0.02928,0.03416,-0.02196,-0.03904,-0.05368,-0.13664,-0.12688,-0.10248,-0.05856
-0.0732,0.03416,0.00488,0.04148,0.07808,-0.07564,-0.03416,-0.04392,-0.12688,-0.11224,-0.09272,-0.0488
-0.03416,0.00488,0.0244,0.04148,0.05856,-0.04636,-0.06832,-0.06344,-0.14152,-0.11712,-0.07808,-0.03416
0,-0.0122,0.0244,0.0244,0.0244,-0.0122,-0.06344,-0.05856,-0.14152,-0.10248,-0.0732,-0.03904
0.04392,-0.02928,0.01464,-0.00732,-0.02928,0.0366,-0.04392,-0.03416,-0.13664,-0.0976,-0.06344,-0.03416
0.0244,-0.01952,0.01464,0.00244,-0.00976,0.01708,-0.03904,-0.0244,-0.12688,-0.10248,-0.05856,-0.03416
-0.00976,-0.00244,0.01464,0.01952,0.0244,-0.01708,-0.03904,-0.0244,-0.13176,-0.0976,-0.05856,-0.01952
-0.00976,0.00732,-0.00488,0,0.00488,-0.00732,-0.03904,-0.04392,-0.16104,-0.122,-0.06832,-0.0244
0.03416,-0.00976,-0.01464,-0.03172,-0.0488,0.04148,-0.02928,-0.03904,-0.16592,-0.11712,-0.07808,-0.02928
0.01464,0,-0.01464,-0.02196,-0.02928,0.02196,-0.0244,-0.02928,-0.1708,-0.122,-0.08296,-0.03416
0.00488,0.00732,-0.01952,-0.02196,-0.0244,0.01464,-0.01952,-0.02928,-0.19032,-0.14152,-0.0976,-0.03416
-0.00488,0.00732,-0.00976,-0.00732,-0.00488,0,-0.01952,-0.05368,-0.21472,-0.16592,-0.10736,-0.06344
-0.04392,0.04636,-0.0488,-0.02684,-0.00488,-0.01952,0,-0.05368,-0.21472,-0.1708,-0.122,-0.07808
-0.0488,0.05124,-0.05368,-0.02928,-0.00488,-0.02196,0.01952,-0.0488,-0.21472,-0.17568,-0.122,-0.0732
-0.07808,0.07808,-0.07808,-0.03904,0,-0.03904,0.02928,-0.03416,-0.20984,-0.17568,-0.11712,-0.0732
-0.05856,0.07808,-0.0976,-0.06832,-0.03904,-0.00976,0.02928,-0.02928,-0.21472,-0.17568,-0.122,-0.07808
-0.06344,0.08052,-0.0976,-0.06588,-0.03416,-0.01464,0.03416,-0.02928,-0.2196,-0.18056,-0.13176,-0.08784
-0.0732,0.07808,-0.08296,-0.04636,-0.00976,-0.03172,0.03416,-0.01952,-0.2196,-0.18056,-0.13176,-0.08784
-0.0732,0.08296,-0.09272,-0.05612,-0.01952,-0.02684,0.03904,-0.01952,-0.22448,-0.19032,-0.13664,-0.08784
-0.0732,0.09516,-0.11712,-0.08052,-0.04392,-0.01464,0.0488,-0.01952,-0.21472,-0.20008,-0.15128,-0.0976
-0.0732,0.09028,-0.10736,-0.07076,-0.03416,-0.01952,0.04392,-0.01952,-0.21472,-0.20008,-0.15128,-0.10248
-0.06832,0.0854,-0.10248,-0.06832,-0.03416,-0.01708,0.03904,-0.01952,-0.22448,-0.18544,-0.14152,-0.08784
-0.05856,0.07808,-0.0976,-0.06832,-0.03904,-0.00976,0.03904,-0.01464,-0.2196,-0.1952,-0.14152,-0.0976
-0.05368,0.07808,-0.10248,-0.07564,-0.0488,-0.00244,0.04392,-0.01464,-0.2196,-0.20496,-0.15128,-0.10736
-0.05368,0.08052,-0.10736,-0.08052,-0.05368,0,0.03904,-0.01952,-0.2196,-0.20496,-0.16104,-0.10736
-0.08784,0.08784,-0.08784,-0.04392,0,-0.04392,0.03904,-0.0244,-0.2196,-0.19032,-0.15616,-0.0976
-0.0732,0.08296,-0.09272,-0.05612,-0.01952,-0.02684,0.04392,-0.01952,-0.20984,-0.19032,-0.1464,-0.09272
-0.07808,0.09028,-0.10248,-0.06344,-0.0244,-0.02684,0.05368,-0.00976,-0.20008,-0.20008,-0.15616,-0.10248
-0.08784,0.09516,-0.10248,-0.05856,-0.01464,-0.0366,0.05368,-0.00976,-0.20008,-0.1952,-0.15616,-0.10736
-0.06832,0.07808,-0.08784,-0.05368,-0.01952,-0.0244,0.0488,-0.01464,-0.20984,-0.19032,-0.1464,-0.0976
-0.05856,0.0732,-0.08784,-0.05856,-0.02928,-0.01464,0.0488,-0.01464,-0.21472,-0.19032,-0.15128,-0.10248
-0.0732,0.08784,-0.10248,-0.06588,-0.02928,-0.02196,0.0488,-0.01952,-0.20984,-0.20008,-0.15616,-0.10736
-0.08296,0.09272,-0.10248,-0.061,-0.01952,-0.03172,0.0488,-0.01952,-0.20984,-0.20008,-0.15616,-0.10736
-0.08784,0.1098,-0.13176,-0.08784,-0.04392,-0.02196,0.05856,0,-0.19032,-0.20496,-0.16104,-0.11712
-0.0976,0.08784,-0.07808,-0.02928,0.01952,-0.05856,0.122,0.06344,-0.0732,-0.20008,-0.20008,-0.1464
-0.16592,0.12688,-0.08784,-0.00488,0.07808,-0.122,0.19032,0.1464,0.06344,-0.20984,-0.25376,-0.1952
-0.16592,0.07808,0.00976,0.09272,0.17568,-0.1708,0.20984,0.20984,0.1708,-0.20008,-0.25864,-0.2196
-0.09272,0.01952,0.05368,0.10004,0.1464,-0.11956,0.1708,0.20984,0.28304,-0.0244,-0.14152,-0.15128
0.05368,-0.07076,0.08784,0.061,0.03416,0.00976,0.122,0.2928,0.366,0.20984,0.0244,-0.03904
0.31232,-0.28792,0.26352,0.10736,-0.0488,0.18056,-0.05856,0.2684,0.54168,0.69296,0.42944,0.23912
0.49776,-0.5124,0.52704,0.27816,0.02928,0.23424,-0.23424,0.20984,0.98576,1.29808,0.92232,0.55632
0.67832,-0.76372,0.84912,0.50996,0.1708,0.25376,-0.50264,-0.07808,1.13704,1.76168,1.36152,0.83936
0.84912,-0.93452,1.01992,0.59536,0.1708,0.33916,-0.76128,-0.43432,0.71736,2.07888,1.73728,1.10288
0.8784,-0.9638,1.0492,0.61,0.1708,0.3538,-0.9028,-0.69296,0.20984,2.15208,1.92272,1.26392
0.79056,-0.7808,0.77104,0.37576,-0.01952,0.40504,-0.76616,-0.61488,-0.35624,1.66896,1.70312,1.18096
0.56608,-0.59536,0.62464,0.3416,0.05856,0.25376,-0.51728,-0.4636,-0.30744,1.2688,1.38592,0.97112
0.39528,-0.40504,0.4148,0.21716,0.01952,0.18788,-0.25864,-0.2928,-0.51728,0.64416,0.92232,0.67832
0.1708,-0.14152,0.11224,0.02684,-0.05856,0.11468,-0.03416,-0.1708,-0.86376,-0.2196,0.32696,0.33184
-0.05856,0.03904,-0.01952,0.00976,0.03904,-0.0488,0.122,-0.08296,-0.8296,-0.36112,0.0976,0.16592
-0.13176,0.09516,-0.05856,0.00732,0.0732,-0.10248,0.17568,-0.07808,-0.7808,-0.3904,-0.07808,0.00488
-0.14152,0.15128,-0.16104,-0.09028,-0.01952,-0.061,0.20984,0,-0.68808,-0.37576,-0.15128,-0.0732
-0.14152,0.14396,-0.1464,-0.07564,-0.00488,-0.06832,0.25864,0.07808,-0.52216,-0.28792,-0.1464,-0.06832
-0.12688,0.13176,-0.13664,-0.0732,-0.00976,-0.05856,0.23912,0.07808,-0.4392,-0.27816,-0.15616,-0.08784
-0.10248,0.11468,-0.12688,-0.07564,-0.0244,-0.03904,0.1952,0.0976,-0.35624,-0.244,-0.13664,-0.08296
-0.03904,0.0854,-0.13176,-0.11224,-0.09272,0.02684,0.16592,0.10736,-0.27328,-0.1952,-0.122,-0.06832
-0.02928,0.061,-0.09272,-0.07808,-0.06344,0.01708,0.1464,0.11224,-0.2196,-0.15616,-0.10736,-0.05368
-0.0488,0.0732,-0.0976,-0.0732,-0.0488,0,0.10248,0.07808,-0.18544,-0.15616,-0.11224,-0.06832
-0.0488,0.07076,-0.09272,-0.06832,-0.04392,-0.00244,0.07808,0.05856,-0.16592,-0.1464,-0.10736,-0.07808
-0.02928,0.05612,-0.08296,-0.06832,-0.05368,0.0122,0.05856,0.03904,-0.15128,-0.14152,-0.10248,-0.07808
-0.03416,0.05124,-0.06832,-0.05124,-0.03416,0,0.05856,0.03416,-0.14152,-0.13176,-0.11224,-0.06832
-0.0488,0.06344,-0.07808,-0.05368,-0.02928,-0.00976,0.06832,0.04392,-0.13176,-0.13664,-0.12688,-0.08296
-0.05368,0.07076,-0.08784,-0.061,-0.03416,-0.00976,0.06344,0.04392,-0.122,-0.13176,-0.12688,-0.08296
-0.02928,0.05856,-0.08784,-0.0732,-0.05856,0.01464,0.05368,0.03416,-0.12688,-0.10736,-0.11224,-0.07808
-0.01464,0.04392,-0.0732,-0.06588,-0.05856,0.02196,0.04392,0.03416,-0.122,-0.10736,-0.11224,-0.07808
-0.0244,0.05124,-0.07808,-0.06588,-0.05368,0.01464,0.05368,0.04392,-0.0976,-0.10736,-0.11712,-0.07808
-0.03904,0.05856,-0.07808,-0.05856,-0.03904,0,0.04392,0.04392,-0.09272,-0.10248,-0.11712,-0.07808
-0.03416,0.05368,-0.0732,-0.05612,-0.03904,0.00244,0.03904,0.02928,-0.08784,-0.09272,-0.10736,-0.0732
0,0.02684,-0.05368,-0.05368,-0.05368,0.02684,0.02928,0.02928,-0.0732,-0.08784,-0.10736,-0.0732
-0.01464,0.03172,-0.0488,-0.04148,-0.03416,0.00976,0.03904,0.03904,-0.04392,-0.06832,-0.08784,-0.06344
-0.02928,0.04148,-0.05368,-0.03904,-0.0244,-0.00244,0.0488,0.0488,-0.03416,-0.05368,-0.0732,-0.0488
-0.01464,0.03416,-0.05368,-0.04636,-0.03904,0.0122,0.02928,0.03416,-0.03904,-0.06344,-0.0732,-0.05856
0.01464,0.0244,-0.06344,-0.07076,-0.07808,0.04636,0.01952,0.02928,-0.04392,-0.05368,-0.0732,-0.06344
-0.03416,0.04392,-0.05368,-0.0366,-0.01952,-0.00732,0.0244,0.02928,-0.02928,-0.03904,-0.06344,-0.06344
-0.01464,0.0244,-0.03416,-0.02684,-0.01952,0.00244,0.0244,0.03904,-0.01952,-0.03416,-0.05856,-0.0488
-0.00488,0.02196,-0.03904,-0.0366,-0.03416,0.01464,0.00976,0.04392,-0.00976,-0.01464,-0.05856,-0.03904
0.00488,0.01464,-0.03416,-0.0366,-0.03904,0.02196,0.01464,0.04392,0,-0.00488,-0.04392,-0.03416
-0.00488,0.00976,-0.01464,-0.0122,-0.00976,0.00244,0.00976,0.04392,0.01464,0,-0.03904,-0.03904
0,0.00488,-0.00976,-0.00976,-0.00976,0.00488,0.00976,0.0488,0.01952,0,-0.0488,-0.03904
0.02928,-0.00976,-0.00976,-0.0244,-0.03904,0.03416,-0.00488,0.0488,0.03416,0.03416,-0.03904,-0.02928
0.02928,-0.00976,-0.00976,-0.0244,-0.03904,0.03416,-0.00976,0.0488,0.04392,0.0488,-0.02928,-0.0244
0,0.00244,-0.00488,-0.00488,-0.00488,0.00244,0.00488,0.05856,0.05368,0.06344,-0.00976,-0.01464
0.01952,-0.01952,0.01952,0.00976,0,0.00976,0,0.05856,0.06832,0.06832,0,-0.00976
0,-0.0122,0.0244,0.0244,0.0244,-0.0122,-0.00976,0.05856,0.07808,0.08784,0,-0.00488
0.04392,-0.0366,0.02928,0.00732,-0.01464,0.02928,-0.01952,0.0488,0.08784,0.10248,0.01464,0
0.03416,-0.04148,0.0488,0.03172,0.01464,0.00976,-0.01952,0.0488,0.10248,0.11712,0.01952,0.00488
0.03416,-0.0488,0.06344,0.04636,0.02928,0.00244,-0.0244,0.05856,0.122,0.1464,0.04392,0.01952
0.04392,-0.05368,0.06344,0.04148,0.01952,0.0122,-0.01952,0.05856,0.1464,0.16592,0.06832,0.02928
0.07808,-0.07808,0.07808,0.03904,0,0.03904,-0.0244,0.05856,0.16104,0.18544,0.07808,0.03416
0.05368,-0.061,0.06832,0.04148,0.01464,0.01952,-0.04392,0.05368,0.16592,0.20984,0.08784,0.04392
0.0488,-0.061,0.0732,0.0488,0.0244,0.0122,-0.04392,0.06344,0.19032,0.23912,0.10248,0.05856
0.08296,-0.08784,0.09272,0.05124,0.00976,0.0366,-0.05856,0.05856,0.20008,0.24888,0.11224,0.05856
0.10248,-0.10736,0.11224,0.061,0.00976,0.04636,-0.06344,0.05856,0.2196,0.27328,0.12688,0.06344
0.09272,-0.10492,0.11712,0.07076,0.0244,0.03416,-0.06344,0.06832,0.24888,0.31232,0.16104,0.07808
0.09272,-0.11712,0.14152,0.09516,0.0488,0.02196,-0.0732,0.0732,0.27816,0.34648,0.18056,0.08784
0.11224,-0.13908,0.16592,0.1098,0.05368,0.02928,-0.08296,0.0732,0.2928,0.366,0.19032,0.09272
0.122,-0.14396,0.16592,0.10492,0.04392,0.03904,-0.08784,0.05856,0.31232,0.38552,0.20008,0.0976
0.13664,-0.16104,0.18544,0.11712,0.0488,0.04392,-0.09272,0.06344,0.33184,0.42456,0.22936,0.12688
0.13664,-0.16592,0.1952,0.12688,0.05856,0.03904,-0.09272,0.06344,0.35624,0.45872,0.25864,0.15128
0.13664,-0.16836,0.20008,0.13176,0.06344,0.0366,-0.10248,0.06344,0.37088,0.47824,0.27816,0.1464
0.15128,-0.18544,0.2196,0.14396,0.06832,0.04148,-0.11224,0.05368,0.37576,0.488,0.27328,0.16104
0.15616,-0.19764,0.23912,0.16104,0.08296,0.0366,-0.12688,0.05368,0.38552,0.5124,0.28792,0.18056
0.16592,-0.20984,0.25376,0.1708,0.08784,0.03904,-0.12688,0.0488,0.39528,0.53192,0.31232,0.18544
0.16592,-0.21472,0.26352,0.18056,0.0976,0.03416,-0.13664,0.03904,0.40016,0.5368,0.31232,0.18056
0.17568,-0.22204,0.2684,0.18056,0.09272,0.04148,-0.14152,0.03416,0.40016,0.54168,0.3172,0.18544
0.18056,-0.22936,0.27816,0.18788,0.0976,0.04148,-0.15128,0.03416,0.40504,0.55144,0.33184,0.1952
0.17568,-0.2318,0.28792,0.20008,0.11224,0.03172,-0.15128,0.0244,0.40504,0.5612,0.33672,0.20496
0.1464,-0.20496,0.26352,0.19032,0.11712,0.01464,-0.15128,0.00488,0.38552,0.54656,0.32696,0.20008
0.15128,-0.21228,0.27328,0.19764,0.122,0.01464,-0.15128,0,0.38064,0.5368,0.3172,0.19032
0.16592,-0.22936,0.2928,0.20984,0.12688,0.01952,-0.16104,0.00488,0.37576,0.52216,0.32696,0.1952
0.15616,-0.2196,0.28304,0.20496,0.12688,0.01464,-0.16592,-0.00976,0.366,0.50752,0.32696,0.18544
0.1464,-0.21228,0.27816,0.20496,0.13176,0.00732,-0.1464,-0.01464,0.3416,0.47824,0.30744,0.17568
0.122,-0.1952,0.2684,0.2074,0.1464,-0.0122,-0.15616,-0.0244,0.31232,0.44408,0.27816,0.16104
0.12688,-0.19032,0.25376,0.19032,0.12688,0,-0.14152,-0.0244,0.30256,0.4148,0.2684,0.15616
0.11712,-0.16836,0.2196,0.16104,0.10248,0.00732,-0.13664,-0.03416,0.2684,0.366,0.23912,0.13176
0.10248,-0.14396,0.18544,0.1342,0.08296,0.00976,-0.11224,-0.03416,0.23424,0.3172,0.20008,0.11224
0.0732,-0.122,0.1708,0.1342,0.0976,-0.0122,-0.0976,-0.04392,0.20984,0.27328,0.16592,0.09272
0.0732,-0.11224,0.15128,0.11468,0.07808,-0.00244,-0.0976,-0.0488,0.17568,0.22936,0.13176,0.06832
0.06344,-0.0976,0.13176,0.10004,0.06832,-0.00244,-0.08784,-0.05368,0.13664,0.17568,0.10248,0.05368
0.03416,-0.0732,0.11224,0.09516,0.07808,-0.02196,-0.07808,-0.05368,0.11224,0.14152,0.06832,0.02928
0.0244,-0.05612,0.08784,0.07564,0.06344,-0.01952,-0.06344,-0.0488,0.08296,0.10248,0.03416,0.00976
0,-0.03904,0.07808,0.07808,0.07808,-0.03904,-0.05368,-0.0488,0.0488,0.07808,0.01464,0
0.00488,-0.03416,0.06344,0.061,0.05856,-0.02684,-0.04392,-0.04392,0.03904,0.0488,0.00488,-0.00976
-0.0244,-0.00244,0.02928,0.04148,0.05368,-0.03904,-0.03904,-0.03416,0.00488,0.00488,-0.01952,-0.02928
-0.02928,0.00488,0.01952,0.03416,0.0488,-0.03904,-0.02928,-0.02928,-0.00488,-0.01464,-0.04392,-0.04392
-0.0244,0.01708,-0.00976,0.00244,0.01464,-0.01952,-0.03904,-0.03904,-0.02928,-0.04392,-0.06344,-0.05368
-0.02928,0.0244,-0.01952,-0.00488,0.00976,-0.01952,-0.0244,-0.03904,-0.0488,-0.05856,-0.07808,-0.05856
-0.05856,0.04148,-0.0244,0.00488,0.03416,-0.04636,-0.00488,-0.03904,-0.06344,-0.0732,-0.09272,-0.06344
-0.05856,0.0366,-0.01464,0.01464,0.04392,-0.05124,-0.00488,-0.03416,-0.0732,-0.07808,-0.08296,-0.05856
-0.03416,0.03172,-0.02928,-0.0122,0.00488,-0.01952,0,-0.0244,-0.07808,-0.08296,-0.0732,-0.05368
-0.0244,0.02928,-0.03416,-0.02196,-0.00976,-0.00732,0,-0.0244,-0.08784,-0.09272,-0.08296,-0.05856
-0.02928,0.02684,-0.0244,-0.00976,0.00488,-0.01708,0,-0.0244,-0.0976,-0.0976,-0.0976,-0.05856
-0.0488,0.04148,-0.03416,-0.00976,0.01464,-0.03172,-0.00488,-0.0244,-0.10248,-0.10736,-0.10248,-0.06344
-0.05368,0.0488,-0.04392,-0.01708,0.00976,-0.03172,0.00976,-0.0244,-0.09272,-0.11224,-0.10248,-0.06832
-0.06344,0.061,-0.05856,-0.02684,0.00488,-0.03416,0.00976,-0.0244,-0.10736,-0.11224,-0.10248,-0.0732
-0.05368,0.0488,-0.04392,-0.01708,0.00976,-0.03172,0.00976,-0.03416,-0.10736,-0.10736,-0.09272,-0.06344
-0.05368,0.05124,-0.0488,-0.02196,0.00488,-0.02928,0,-0.02928,-0.10736,-0.11224,-0.0976,-0.06832
-0.0488,0.05124,-0.05368,-0.02928,-0.00488,-0.02196,0.00488,-0.02928,-0.10736,-0.11224,-0.0976,-0.0732
-0.03416,0.03416,-0.03416,-0.01708,0,-0.01708,0.00488,-0.02928,-0.11224,-0.10736,-0.08784,-0.06832
-0.03416,0.03416,-0.03416,-0.01708,0,-0.01708,0.00488,-0.01952,-0.11712,-0.10736,-0.0976,-0.06832
-0.04392,0.0488,-0.05368,-0.03172,-0.00976,-0.01708,0.00488,-0.01952,-0.10736,-0.10248,-0.0976,-0.0732
-0.0488,0.05612,-0.06344,-0.03904,-0.01464,-0.01708,0.00488,-0.02928,-0.11224,-0.10736,-0.0976,-0.0732
-0.05368,0.05368,-0.05368,-0.02684,0,-0.02684,0.00488,-0.0244,-0.11224,-0.11712,-0.10736,-0.07808
-0.0488,0.04636,-0.04392,-0.01952,0.00488,-0.02684,0.00488,-0.0244,-0.11712,-0.122,-0.11224,-0.07808
-0.04392,0.0488,-0.05368,-0.03172,-0.00976,-0.01708,0.00976,-0.0244,-0.10736,-0.122,-0.11224,-0.07808
-0.04392,0.04636,-0.0488,-0.02684,-0.00488,-0.01952,0.00976,-0.0244,-0.0976,-0.11712,-0.11224,-0.08784
-0.06832,0.061,-0.05368,-0.01952,0.01464,-0.04148,0.00976,-0.01952,-0.0976,-0.11224,-0.10248,-0.08296
-0.05368,0.04636,-0.03904,-0.0122,0.01464,-0.03416,0.00976,-0.00976,-0.09272,-0.10736,-0.10248,-0.06344
-0.0488,0.04392,-0.03904,-0.01464,0.00976,-0.02928,0.00976,-0.00976,-0.09272,-0.10248,-0.09272,-0.06344
-0.03904,0.04392,-0.0488,-0.02928,-0.00976,-0.01464,0.00976,-0.01952,-0.08296,-0.0976,-0.0976,-0.05856
-0.02928,0.03904,-0.0488,-0.03416,-0.01952,-0.00488,0.00488,-0.01952,-0.08296,-0.10736,-0.0976,-0.06344
-0.0244,0.02928,-0.03416,-0.02196,-0.00976,-0.00732,0.00488,-0.00976,-0.0732,-0.10248,-0.08784,-0.05856
-0.03904,0.0366,-0.03416,-0.01464,0.00488,-0.02196,0.00976,-0.00488,-0.06344,-0.0976,-0.08296,-0.05856
-0.0488,0.0488,-0.0488,-0.0244,0,-0.0244,0.01464,-0.00488,-0.07808,-0.11224,-0.10248,-0.06832
-0.05368,0.05612,-0.05856,-0.03172,-0.00488,-0.0244,0.01464,-0.00976,-0.07808,-0.10736,-0.11224,-0.0732
-0.06344,0.05612,-0.0488,-0.01708,0.01464,-0.03904,0.00488,-0.01464,-0.07808,-0.0976,-0.11224,-0.06832
-0.03416,0.03904,-0.04392,-0.02684,-0.00976,-0.0122,0.00488,-0.01464,-0.07808,-0.0976,-0.10248,-0.0732
-0.02928,0.0366,-0.04392,-0.02928,-0.01464,-0.00732,0.01464,-0.00488,-0.06832,-0.0976,-0.10248,-0.0732
-0.03904,0.0366,-0.03416,-0.01464,0.00488,-0.02196,0.01464,-0.00488,-0.0732,-0.0976,-0.10248,-0.06832
-0.0244,0.02684,-0.02928,-0.01708,-0.00488,-0.00976,0,-0.01952,-0.08296,-0.0976,-0.0976,-0.0732
-0.01952,0.03416,-0.0488,-0.03904,-0.02928,0.00488,0.00488,-0.01952,-0.07808,-0.08784,-0.0976,-0.0732
-0.05856,0.05612,-0.05368,-0.0244,0.00488,-0.03172,0.01464,-0.01952,-0.0732,-0.0976,-0.10736,-0.08296
-0.05368,0.05124,-0.0488,-0.02196,0.00488,-0.02928,0.01464,-0.01952,-0.0732,-0.10248,-0.11224,-0.08296
-0.03904,0.03904,-0.03904,-0.01952,0,-0.01952,0.00488,-0.02928,-0.0732,-0.10248,-0.11224,-0.0732
-0.03904,0.04148,-0.04392,-0.0244,-0.00488,-0.01708,0.00488,-0.02928,-0.0732,-0.10736,-0.10248,-0.06832
-0.03904,0.04148,-0.04392,-0.0244,-0.00488,-0.01708,0.00976,-0.01464,-0.08296,-0.0976,-0.09272,-0.06344
-0.05856,0.05124,-0.04392,-0.01464,0.01464,-0.0366,0.01952,-0.00488,-0.0732,-0.0976,-0.08784,-0.06344
-0.0488,0.04392,-0.03904,-0.01464,0.00976,-0.02928,0.01464,-0.00488,-0.08296,-0.11224,-0.0976,-0.06344
-0.01952,0.0244,-0.02928,-0.01952,-0.00976,-0.00488,0.00976,-0.01952,-0.09272,-0.11224,-0.0976,-0.06832
-0.05368,0.0488,-0.04392,-0.01708,0.00976,-0.03172,0.00976,-0.01952,-0.09272,-0.122,-0.11224,-0.0732
-0.06344,0.05612,-0.0488,-0.01708,0.01464,-0.03904,0.00976,-0.01952,-0.09272,-0.11712,-0.10736,-0.0732
-0.04392,0.0488,-0.05368,-0.03172,-0.00976,-0.01708,0.00976,-0.01952,-0.09272,-0.10736,-0.0976,-0.0732
-0.02928,0.04148,-0.05368,-0.03904,-0.0244,-0.00244,0.00976,-0.01952,-0.0976,-0.11224,-0.10248,-0.0732
-0.0488,0.0488,-0.0488,-0.0244,0,-0.0244,0.00976,-0.01952,-0.0976,-0.11712,-0.10736,-0.06344
-0.04392,0.04392,-0.04392,-0.02196,0,-0.02196,0.00976,-0.01952,-0.10248,-0.122,-0.10736,-0.06832
-0.03416,0.0366,-0.03904,-0.02196,-0.00488,-0.01464,0.00976,-0.01952,-0.0976,-0.122,-0.10736,-0.07808
-0.0488,0.0488,-0.0488,-0.0244,0,-0.0244,0.00976,-0.0244,-0.10736,-0.12688,-0.11224,-0.0732
-0.05368,0.0488,-0.04392,-0.01708,0.00976,-0.03172,0.00976,-0.01952,-0.10248,-0.13664,-0.122,-0.07808
-0.0732,0.06344,-0.05368,-0.01708,0.01952,-0.04636,0.00976,-0.0244,-0.10248,-0.14152,-0.122,-0.07808
-0.03904,0.05124,-0.06344,-0.04392,-0.0244,-0.00732,0,-0.0244,-0.122,-0.13664,-0.122,-0.07808
-0.02928,0.04392,-0.05856,-0.04392,-0.02928,0,-0.00488,-0.0244,-0.11712,-0.13664,-0.122,-0.07808
-0.03904,0.04392,-0.0488,-0.02928,-0.00976,-0.01464,0.00976,-0.01464,-0.10248,-0.13664,-0.11712,-0.0732
-0.06344,0.05612,-0.0488,-0.01708,0.01464,-0.03904,0.01464,-0.00976,-0.11224,-0.13176,-0.11712,-0.06832
-0.03904,0.05124,-0.06344,-0.04392,-0.0244,-0.00732,0.00488,-0.02928,-0.13176,-0.1464,-0.11712,-0.08296
-0.04392,0.05612,-0.06832,-0.04636,-0.0244,-0.00976,0.00976,-0.0244,-0.11712,-0.14152,-0.11712,-0.07808
-0.05856,0.06588,-0.0732,-0.04392,-0.01464,-0.02196,0.01952,-0.00976,-0.11224,-0.1464,-0.11712,-0.0732
-0.05856,0.05856,-0.05856,-0.02928,0,-0.02928,0.0244,-0.00976,-0.10736,-0.14152,-0.11224,-0.05856
-0.0488,0.05124,-0.05368,-0.02928,-0.00488,-0.02196,0.00488,-0.02928,-0.11224,-0.1464,-0.11224,-0.06832
-0.04392,0.0488,-0.05368,-0.03172,-0.00976,-0.01708,0,-0.0244,-0.11712,-0.15616,-0.122,-0.07808
-0.05856,0.05368,-0.0488,-0.01952,0.00976,-0.03416,0.00976,-0.01952,-0.11712,-0.15128,-0.11712,-0.0732
-0.05856,0.05856,-0.05856,-0.02928,0,-0.02928,0.01464,-0.0244,-0.122,-0.1464,-0.11712,-0.0732
-0.05368,0.05856,-0.06344,-0.0366,-0.00976,-0.02196,0.01464,-0.01952,-0.122,-0.13664,-0.12688,-0.08296
-0.05368,0.05856,-0.06344,-0.0366,-0.00976,-0.02196,0.00488,-0.0244,-0.122,-0.15128,-0.12688,-0.08784
-0.06832,0.06344,-0.05856,-0.0244,0.00976,-0.03904,0.01952,-0.01464,-0.11224,-0.15128,-0.12688,-0.07808
-0.03416,0.04148,-0.0488,-0.03172,-0.01464,-0.00976,0.01952,-0.01464,-0.122,-0.15616,-0.11712,-0.07808
-0.03904,0.0488,-0.05856,-0.03904,-0.01952,-0.00976,0.00976,-0.0244,-0.11712,-0.15616,-0.11224,-0.08296
-0.04392,0.05856,-0.0732,-0.05124,-0.02928,-0.00732,0.00976,-0.0244,-0.12688,-0.15616,-0.122,-0.08784
-0.0488,0.05612,-0.06344,-0.03904,-0.01464,-0.01708,0,-0.0244,-0.13176,-0.16104,-0.11712,-0.08784
-0.03904,0.0488,-0.05856,-0.03904,-0.01952,-0.00976,0.00488,-0.01952,-0.13176,-0.15616,-0.11712,-0.08784
-0.05368,0.06832,-0.08296,-0.05612,-0.02928,-0.0122,0.00976,-0.00976,-0.13176,-0.15616,-0.122,-0.0732
-0.05856,0.06832,-0.07808,-0.0488,-0.01952,-0.01952,0.01464,-0.01464,-0.12688,-0.15616,-0.122,-0.08296
-0.05368,0.061,-0.06832,-0.04148,-0.01464,-0.01952,0.01952,-0.01464,-0.11224,-0.1464,-0.10736,-0.06344
-0.06344,0.06344,-0.06344,-0.03172,0,-0.03172,0.00976,-0.01464,-0.11712,-0.15128,-0.11224,-0.06832
-0.06344,0.06344,-0.06344,-0.03172,0,-0.03172,0.01464,-0.01464,-0.11712,-0.17568,-0.13176,-0.07808
-0.06832,0.06344,-0.05856,-0.0244,0.00976,-0.03904,0.01952,-0.01464,-0.122,-0.16104,-0.122,-0.08296
-0.07808,0.06832,-0.05856,-0.01952,0.01952,-0.0488,0.01464,-0.01464,-0.122,-0.15128,-0.11712,-0.07808
-0.0488,0.05612,-0.06344,-0.03904,-0.01464,-0.01708,0.01952,-0.01464,-0.12688,-0.15616,-0.12688,-0.0732
-0.05856,0.06344,-0.06832,-0.03904,-0.00976,-0.0244,0.01464,-0.0244,-0.122,-0.16104,-0.13176,-0.08296
-0.06344,0.061,-0.05856,-0.02684,0.00488,-0.03416,0.00976,-0.0244,-0.12688,-0.16592,-0.13664,-0.09272
-0.05368,0.06344,-0.0732,-0.04636,-0.01952,-0.01708,0.00488,-0.0244,-0.14152,-0.15616,-0.122,-0.10248
-0.05856,0.06344,-0.06832,-0.03904,-0.00976,-0.0244,0.00976,-0.0244,-0.13176,-0.15128,-0.12688,-0.08784
-0.05856,0.05612,-0.05368,-0.0244,0.00488,-0.03172,0.01952,-0.01464,-0.122,-0.15128,-0.12688,-0.09272
-0.07808,0.07076,-0.06344,-0.0244,0.01464,-0.04636,0.01952,-0.01952,-0.13176,-0.16104,-0.12688,-0.09272
-0.05368,0.06344,-0.0732,-0.04636,-0.01952,-0.01708,0.00976,-0.01952,-0.122,-0.16104,-0.11712,-0.07808
-0.06344,0.07564,-0.08784,-0.05612,-0.0244,-0.01952,0.01464,-0.01464,-0.11712,-0.15128,-0.11224,-0.07808
-0.05856,0.0732,-0.08784,-0.05856,-0.02928,-0.01464,0.01464,-0.01952,-0.13176,-0.15128,-0.11712,-0.09272
-0.05368,0.06832,-0.08296,-0.05612,-0.02928,-0.0122,0.00976,-0.0244,-0.13176,-0.16104,-0.11224,-0.08784
-0.03416,0.05368,-0.0732,-0.05612,-0.03904,0.00244,0.01464,-0.01464,-0.12688,-0.16104,-0.122,-0.08296
-0.02928,0.05368,-0.07808,-0.06344,-0.0488,0.00976,0.00976,-0.01952,-0.13664,-0.1708,-0.12688,-0.09272
-0.05856,0.06588,-0.0732,-0.04392,-0.01464,-0.02196,0.01952,-0.01464,-0.13176,-0.17568,-0.13664,-0.08784
-0.05368,0.061,-0.06832,-0.04148,-0.01464,-0.01952,0.01952,-0.01464,-0.12688,-0.1708,-0.13176,-0.08296
-0.04392,0.0488,-0.05368,-0.03172,-0.00976,-0.01708,0.00976,-0.0244,-0.122,-0.1708,-0.12688,-0.08296
-0.06832,0.06344,-0.05856,-0.0244,0.00976,-0.03904,0.01464,-0.01464,-0.11712,-0.16592,-0.122,-0.0732
-0.03416,0.03904,-0.04392,-0.02684,-0.00976,-0.0122,0.00976,-0.01464,-0.11712,-0.15616,-0.13176,-0.08296
-0.07808,0.06832,-0.05856,-0.01952,0.01952,-0.0488,0.01952,-0.00976,-0.11712,-0.17568,-0.13664,-0.0976
-0.06832,0.0732,-0.07808,-0.04392,-0.00976,-0.02928,0.00976,-0.01952,-0.12688,-0.17568,-0.12688,-0.08784
-0.05856,0.0732,-0.08784,-0.05856,-0.02928,-0.01464,0.00976,-0.01952,-0.12688,-0.17568,-0.12688,-0.08784
-0.0488,0.06344,-0.07808,-0.05368,-0.02928,-0.00976,0.01952,-0.00976,-0.11712,-0.16592,-0.11712,-0.07808
-0.0488,0.06344,-0.07808,-0.05368,-0.02928,-0.00976,0.01952,-0.00976,-0.11712,-0.16592,-0.11712,-0.07808
-0.0488,0.06832,-0.08784,-0.06344,-0.03904,-0.00488,0.00976,-0.01952,-0.12688,-0.17568,-0.12688,-0.08784
-0.0488,0.06832,-0.08784,-0.06344,-0.03904,-0.00488,0.00976,-0.01952,-0.12688,-0.17568,-0.13664,-0.0976
-0.03904,0.05856,-0.07808,-0.05856,-0.03904,0,0.01952,-0.00976,-0.11712,-0.17568,-0.12688,-0.08784
-0.02928,0.0488,-0.06832,-0.05368,-0.03904,0.00488,0.01952,-0.00976,-0.11712,-0.17568,-0.12688,-0.08784
-0.06832,0.0732,-0.07808,-0.04392,-0.00976,-0.02928,0.01952,-0.00976,-0.11712,-0.16592,-0.12688,-0.07808
-0.0976,0.09272,-0.08784,-0.03904,0.00976,-0.05368,0.01952,-0.00976,-0.11712,-0.16592,-0.12688,-0.07808
-0.06832,0.0732,-0.07808,-0.04392,-0.00976,-0.02928,0.01952,-0.01952,-0.11712,-0.16592,-0.11712,-0.07808
-0.03904,0.05368,-0.06832,-0.0488,-0.02928,-0.00488,0.01952,-0.01952,-0.11712,-0.16592,-0.11712,-0.07808
