i,aVR,ii,aVF,iii,aVL,V1,V2,V3,V4,V5,V6
-0.0244,0.03904,-0.05368,-0.04148,-0.02928,0.00244,0.0244,0.02928,-0.00976,-0.00976,-0.0488,-0.03416
-0.0244,0.03904,-0.05368,-0.04148,-0.02928,0.00244,0.0244,0.02928,-0.00976,-0.00976,-0.0488,-0.03416
-0.0244,0.04148,-0.05856,-0.04636,-0.03416,0.00488,0.03416,0.03416,-0.01952,-0.01464,-0.05368,-0.05856
-0.01464,0.03416,-0.05368,-0.04636,-0.03904,0.0122,0.03416,0.03416,-0.01952,-0.01464,-0.05368,-0.05856
-0.03416,0.04392,-0.05368,-0.0366,-0.01952,-0.00732,0.03904,0.02928,-0.01952,-0.01464,-0.05368,-0.0488
-0.0244,0.03904,-0.05368,-0.04148,-0.02928,0.00244,0.03904,0.02928,-0.01952,-0.01952,-0.05856,-0.04392
-0.0244,0.04148,-0.05856,-0.04636,-0.03416,0.00488,0.03904,0.03904,-0.0244,-0.01952,-0.0488,-0.03904
-0.02928,0.04148,-0.05368,-0.03904,-0.0244,-0.00244,0.03904,0.03904,-0.0244,-0.01952,-0.0488,-0.03904
-0.03904,0.05124,-0.06344,-0.04392,-0.0244,-0.00732,0.03904,0.02928,-0.01464,-0.00976,-0.03904,-0.03904
-0.03904,0.05368,-0.06832,-0.0488,-0.02928,-0.00488,0.03904,0.02928,-0.01464,-0.01464,-0.03904,-0.03904
-0.04392,0.05368,-0.06344,-0.04148,-0.01952,-0.0122,0.0488,0.03904,-0.01464,-0.01952,-0.0488,-0.03904
-0.03416,0.0488,-0.06344,-0.04636,-0.02928,-0.00244,0.0488,0.03904,-0.01464,-0.01952,-0.0488,-0.04392
-0.02928,0.04636,-0.06344,-0.0488,-0.03416,0.00244,0.0488,0.03416,-0.01464,-0.01952,-0.05856,-0.04392
-0.03416,0.0488,-0.06344,-0.04636,-0.02928,-0.00244,0.0488,0.03416,-0.01464,-0.01952,-0.05856,-0.0488
-0.01952,0.0366,-0.05368,-0.04392,-0.03416,0.00732,0.03904,0.0244,-0.01464,-0.00976,-0.0488,-0.04392
-0.01464,0.02928,-0.04392,-0.0366,-0.02928,0.00732,0.03904,0.0244,-0.01464,-0.00976,-0.0488,-0.03416
-0.02928,0.04392,-0.05856,-0.04392,-0.02928,0,0.03904,0.03416,-0.01952,-0.01952,-0.06344,-0.03904
-0.02928,0.04392,-0.05856,-0.04392,-0.02928,0,0.03904,0.03416,-0.01952,-0.0244,-0.06344,-0.04392
-0.02928,0.04392,-0.05856,-0.04392,-0.02928,0,0.0488,0.04392,-0.01952,-0.0244,-0.06344,-0.04392
-0.02928,0.04148,-0.05368,-0.03904,-0.0244,-0.00244,0.0488,0.04392,-0.01952,-0.0244,-0.06344,-0.04392
-0.02928,0.04636,-0.06344,-0.0488,-0.03416,0.00244,0.0488,0.03416,-0.01952,-0.0244,-0.06344,-0.04392
-0.0244,0.04148,-0.05856,-0.04636,-0.03416,0.00488,0.0488,0.03904,-0.01952,-0.0244,-0.06344,-0.04392
-0.03416,0.05124,-0.06832,-0.05124,-0.03416,0,0.0488,0.0488,-0.01952,-0.02928,-0.06344,-0.04392
-0.03416,0.05368,-0.0732,-0.05612,-0.03904,0.00244,0.0488,0.0488,-0.01464,-0.02928,-0.06344,-0.0488
-0.0244,0.04392,-0.06344,-0.05124,-0.03904,0.00732,0.05368,0.03904,-0.0244,-0.01952,-0.06344,-0.03904
-0.01952,0.0366,-0.05368,-0.04392,-0.03416,0.00732,0.0488,0.03904,-0.0244,-0.01952,-0.06344,-0.03904
-0.02928,0.04392,-0.05856,-0.04392,-0.02928,0,0.0488,0.03904,-0.01952,-0.01952,-0.06344,-0.03904
-0.0244,0.04148,-0.05856,-0.04636,-0.03416,0.00488,0.0488,0.03904,-0.01952,-0.01952,-0.06344,-0.03904
-0.0244,0.03904,-0.05368,-0.04148,-0.02928,0.00244,0.0488,0.0488,-0.02928,-0.02928,-0.05856,-0.0488
-0.0244,0.03904,-0.05368,-0.04148,-0.02928,0.00244,0.04392,0.0488,-0.03416,-0.03416,-0.05856,-0.04392
-0.01464,0.03172,-0.0488,-0.04148,-0.03416,0.00976,0.04392,0.0488,-0.0244,-0.0244,-0.0488,-0.03416
-0.01464,0.0244,-0.03416,-0.02684,-0.01952,0.00244,0.04392,0.0488,-0.01464,-0.0244,-0.0488,-0.03416
-0.01464,0.03416,-0.05368,-0.04636,-0.03904,0.0122,0.04392,0.0488,-0.0244,-0.00976,-0.04392,-0.01952
-0.01464,0.03904,-0.06344,-0.05612,-0.0488,0.01708,0.04392,0.0488,-0.01952,-0.00976,-0.04392,-0.01952
-0.01952,0.04148,-0.06344,-0.05368,-0.04392,0.0122,0.04392,0.03904,-0.01952,-0.01952,-0.05368,-0.0244
-0.0244,0.04392,-0.06344,-0.05124,-0.03904,0.00732,0.04392,0.03904,-0.01952,-0.01464,-0.06344,-0.03416
-0.01952,0.0366,-0.05368,-0.04392,-0.03416,0.00732,0.03416,0.0488,-0.01464,-0.01464,-0.0488,-0.0244
-0.00488,0.02928,-0.05368,-0.05124,-0.0488,0.02196,0.0244,0.0488,-0.01464,-0.01464,-0.0488,-0.01464
-0.00488,0.0244,-0.04392,-0.04148,-0.03904,0.01708,0.02928,0.03904,-0.00976,-0.0244,-0.05856,-0.0244
-0.00976,0.02684,-0.04392,-0.03904,-0.03416,0.0122,0.02928,0.03904,-0.00976,-0.0244,-0.06832,-0.03904
-0.00488,0.02196,-0.03904,-0.0366,-0.03416,0.01464,0.03904,0.03904,-0.01952,-0.01952,-0.0488,-0.02928
-0.00488,0.02684,-0.0488,-0.04636,-0.04392,0.01952,0.03904,0.03416,-0.01952,-0.02928,-0.0488,-0.0244
0.00488,0.01708,-0.03904,-0.04148,-0.04392,0.0244,0.03416,0.04392,-0.00976,-0.01952,-0.0488,-0.01464
0.00488,0.01708,-0.03904,-0.04148,-0.04392,0.0244,0.03416,0.05368,-0.00976,-0.01952,-0.0488,-0.01464
0.00976,0.00976,-0.02928,-0.03416,-0.03904,0.0244,0.03416,0.04392,0,-0.01952,-0.0488,-0.01952
0.00976,0.0122,-0.03416,-0.03904,-0.04392,0.02684,0.03416,0.04392,0,-0.01952,-0.0488,-0.01952
0.00488,0.01708,-0.03904,-0.04148,-0.04392,0.0244,0.03416,0.0488,-0.00488,-0.00976,-0.03904,-0.01952
0,0.02196,-0.04392,-0.04392,-0.04392,0.02196,0.03416,0.05368,-0.00488,-0.00976,-0.03904,-0.0244
0,0.02196,-0.04392,-0.04392,-0.04392,0.02196,0.02928,0.04392,-0.01464,-0.01952,-0.05368,-0.02928
0,0.02196,-0.04392,-0.04392,-0.04392,0.02196,0.02928,0.04392,-0.01464,-0.03416,-0.06344,-0.0488
-0.00488,0.0244,-0.04392,-0.04148,-0.03904,0.01708,0.02928,0.03416,-0.01464,-0.03416,-0.06344,-0.03904
-0.01464,0.02928,-0.04392,-0.0366,-0.02928,0.00732,0.03416,0.03904,-0.01464,-0.03416,-0.06344,-0.03904
-0.01464,0.03416,-0.05368,-0.04636,-0.03904,0.0122,0.02928,0.03904,-0.0244,-0.04392,-0.0732,-0.03904
-0.01952,0.04148,-0.06344,-0.05368,-0.04392,0.0122,0.03416,0.03904,-0.0244,-0.0488,-0.0732,-0.03904
-0.01464,0.03416,-0.05368,-0.04636,-0.03904,0.0122,0.03416,0.03904,-0.01952,-0.03904,-0.06344,-0.02928
0,0.01952,-0.03904,-0.03904,-0.03904,0.01952,0.03416,0.03416,-0.00488,-0.02928,-0.06832,-0.02928
-0.00488,0.02196,-0.03904,-0.0366,-0.03416,0.01464,0.03416,0.05368,-0.01464,-0.03904,-0.07808,-0.03904
0.00488,0.01708,-0.03904,-0.04148,-0.04392,0.0244,0.03416,0.05368,-0.01464,-0.03904,-0.07808,-0.03904
0.00488,0.01708,-0.03904,-0.04148,-0.04392,0.0244,0.03904,0.04392,-0.01464,-0.03904,-0.07808,-0.03904
0,0.02196,-0.04392,-0.04392,-0.04392,0.02196,0.03904,0.03416,-0.01952,-0.04392,-0.08296,-0.04392
-0.00488,0.0244,-0.04392,-0.04148,-0.03904,0.01708,0.03416,0.03904,-0.01952,-0.04392,-0.07808,-0.04392
0,0.02196,-0.04392,-0.04392,-0.04392,0.02196,0.03904,0.03904,-0.01952,-0.03904,-0.07808,-0.04392
0,0.0244,-0.0488,-0.0488,-0.0488,0.0244,0.03904,0.03904,-0.01464,-0.03904,-0.08784,-0.04392
-0.00488,0.02684,-0.0488,-0.04636,-0.04392,0.01952,0.03416,0.03904,-0.01952,-0.04392,-0.08296,-0.04392
0.00976,0.0122,-0.03416,-0.03904,-0.04392,0.02684,0.02928,0.04392,-0.02928,-0.05368,-0.08296,-0.03904
0.0244,0,-0.0244,-0.0366,-0.0488,0.0366,0.03416,0.0488,-0.0244,-0.05368,-0.08296,-0.03904
0,0.01952,-0.03904,-0.03904,-0.03904,0.01952,0.03416,0.03904,-0.03416,-0.06344,-0.0976,-0.05368
0.00976,0.0122,-0.03416,-0.03904,-0.04392,0.02684,0.03416,0.03416,-0.03416,-0.0732,-0.10736,-0.06344
-0.00976,0.03172,-0.05368,-0.0488,-0.04392,0.01708,0.03416,0.03416,-0.03416,-0.06832,-0.10736,-0.06344
-0.00488,0.02928,-0.05368,-0.05124,-0.0488,0.02196,0.03416,0.03416,-0.03416,-0.06344,-0.10736,-0.06344
0,0.01952,-0.03904,-0.03904,-0.03904,0.01952,0.01952,0.02928,-0.04392,-0.06344,-0.10736,-0.06344
0,0.01952,-0.03904,-0.03904,-0.03904,0.01952,0.0244,0.03416,-0.03904,-0.06344,-0.10248,-0.06832
0.00488,0.01708,-0.03904,-0.04148,-0.04392,0.0244,0.03904,0.04392,-0.03416,-0.06344,-0.10736,-0.05856
0.00488,0.01952,-0.04392,-0.04636,-0.0488,0.02684,0.03416,0.03904,-0.03904,-0.06832,-0.10736,-0.05856
0.00488,0.01952,-0.04392,-0.04636,-0.0488,0.02684,0.03904,0.02928,-0.04392,-0.06832,-0.10736,-0.05856
0.00488,0.01952,-0.04392,-0.04636,-0.0488,0.02684,0.04392,0.04392,-0.04392,-0.06832,-0.11224,-0.06344
0.01464,0.0122,-0.03904,-0.04636,-0.05368,0.03416,0.03416,0.03416,-0.04392,-0.06832,-0.10736,-0.06832
0.00976,0.00976,-0.02928,-0.03416,-0.03904,0.0244,0.02928,0.02928,-0.0488,-0.0732,-0.11224,-0.07808
0.00976,0.00976,-0.02928,-0.03416,-0.03904,0.0244,0.02928,0.02928,-0.0488,-0.08296,-0.122,-0.07808
0.00976,0.00732,-0.0244,-0.02928,-0.03416,0.02196,0.02928,0.03904,-0.03904,-0.0732,-0.122,-0.0732
0.00976,0.00244,-0.01464,-0.01952,-0.0244,0.01708,0.02928,0.03904,-0.03904,-0.06344,-0.11224,-0.06344
0.01952,0,-0.01952,-0.02928,-0.03904,0.02928,0.03904,0.03904,-0.03904,-0.06832,-0.10736,-0.05856
0.01952,0,-0.01952,-0.02928,-0.03904,0.02928,0.03904,0.03904,-0.03904,-0.06832,-0.10736,-0.05856
0.00488,0.00976,-0.0244,-0.02684,-0.02928,0.01708,0.02928,0.03904,-0.0488,-0.06832,-0.11712,-0.06832
-0.00488,0.01952,-0.03416,-0.03172,-0.02928,0.0122,0.02928,0.03904,-0.0488,-0.06832,-0.11712,-0.06832
-0.00488,0.01952,-0.03416,-0.03172,-0.02928,0.0122,0.02928,0.03904,-0.0488,-0.07808,-0.11712,-0.06832
0.00488,0.00976,-0.0244,-0.02684,-0.02928,0.01708,0.02928,0.03904,-0.0488,-0.07808,-0.11712,-0.06832
0,0.00488,-0.00976,-0.00976,-0.00976,0.00488,0.02928,0.02928,-0.05856,-0.08784,-0.12688,-0.07808
0,0.00488,-0.00976,-0.00976,-0.00976,0.00488,0.02928,0.02928,-0.05856,-0.08784,-0.12688,-0.07808
0,0.00488,-0.00976,-0.00976,-0.00976,0.00488,0.03904,0.03904,-0.0488,-0.08784,-0.13664,-0.07808
0,0.00488,-0.00976,-0.00976,-0.00976,0.00488,0.03904,0.03904,-0.0488,-0.08784,-0.13664,-0.07808
0,0.00732,-0.01464,-0.01464,-0.01464,0.00732,0.03904,0.03904,-0.0488,-0.07808,-0.13176,-0.06832
0,0.0122,-0.0244,-0.0244,-0.0244,0.0122,0.03904,0.03904,-0.0488,-0.07808,-0.122,-0.06832
0,0.00976,-0.01952,-0.01952,-0.01952,0.00976,0.03904,0.02928,-0.05856,-0.08784,-0.12688,-0.05856
0,0.00976,-0.01952,-0.01952,-0.01952,0.00976,0.03904,0.02928,-0.05856,-0.08784,-0.12688,-0.05856
0.00976,0,-0.00976,-0.01464,-0.01952,0.01464,0.0488,0.03416,-0.05368,-0.07808,-0.11712,-0.05856
0.00976,0,-0.00976,-0.01464,-0.01952,0.01464,0.0488,0.04392,-0.04392,-0.07808,-0.11712,-0.05856
0.00488,0.00488,-0.01464,-0.01708,-0.01952,0.0122,0.03904,0.03904,-0.0488,-0.08784,-0.122,-0.06344
-0.00488,0.01464,-0.0244,-0.02196,-0.01952,0.00732,0.03904,0.03904,-0.0488,-0.08784,-0.13176,-0.0732
0,0.00976,-0.01952,-0.01952,-0.01952,0.00976,0.03904,0.02928,-0.05856,-0.08784,-0.13664,-0.07808
0,0.00976,-0.01952,-0.01952,-0.01952,0.00976,0.03904,0.02928,-0.05856,-0.08784,-0.13664,-0.07808
0,0.00976,-0.01952,-0.01952,-0.01952,0.00976,0.03904,0.03416,-0.0488,-0.07808,-0.12688,-0.06832
0,0.00976,-0.01952,-0.01952,-0.01952,0.00976,0.03904,0.04392,-0.0488,-0.07808,-0.12688,-0.06832
0,0.00976,-0.01952,-0.01952,-0.01952,0.00976,0.03904,0.0488,-0.0488,-0.08784,-0.11712,-0.05856
0,0.00976,-0.01952,-0.01952,-0.01952,0.00976,0.03904,0.0488,-0.0488,-0.08784,-0.11712,-0.05856
-0.00976,0.01464,-0.01952,-0.01464,-0.00976,0,0.03904,0.0488,-0.03904,-0.07808,-0.11712,-0.05856
-0.00976,0.01464,-0.01952,-0.01464,-0.00976,0,0.03904,0.0488,-0.03904,-0.07808,-0.11712,-0.05856
-0.00976,0.0122,-0.01464,-0.00976,-0.00488,-0.00244,0.03904,0.03904,-0.02928,-0.06832,-0.11712,-0.0488
-0.00976,0.00732,-0.00488,0,0.00488,-0.00732,0.03904,0.03904,-0.02928,-0.06832,-0.11712,-0.0488
-0.00976,0,0.00976,0.01464,0.01952,-0.01464,0.03904,0.03904,-0.0244,-0.06832,-0.11712,-0.0488
-0.00976,0,0.00976,0.01464,0.01952,-0.01464,0.03904,0.03904,-0.00488,-0.06344,-0.11712,-0.0488
-0.01464,-0.00244,0.01952,0.02684,0.03416,-0.0244,0.02928,0.0244,-0.00488,-0.0732,-0.11712,-0.04392
-0.00976,-0.01464,0.03904,0.04392,0.0488,-0.02928,0.02928,0.01952,0.00488,-0.05856,-0.10248,-0.03904
-0.00488,-0.0244,0.05368,0.05612,0.05856,-0.03172,0.03416,0.02928,0.02928,-0.04392,-0.08784,-0.02928
0,-0.02684,0.05368,0.05368,0.05368,-0.02684,0.02928,0.03416,0.02928,-0.03904,-0.08784,-0.0244
0.00976,-0.02684,0.04392,0.03904,0.03416,-0.0122,0.0244,0.03416,0.01952,-0.04392,-0.08296,-0.0244
0.00488,-0.02196,0.03904,0.0366,0.03416,-0.01464,0.01464,0.03416,0.01952,-0.0488,-0.08296,-0.01952
0.01952,-0.02928,0.03904,0.02928,0.01952,0,-0.00488,0.02928,0.01464,-0.03904,-0.08296,-0.00976
0.00976,-0.02684,0.04392,0.03904,0.03416,-0.0122,-0.01952,0.01952,0.01464,-0.03904,-0.08296,-0.01464
0.0244,-0.0366,0.0488,0.0366,0.0244,0,-0.01464,0.00976,0.0244,-0.02928,-0.0732,-0.01952
0.01464,-0.02684,0.03904,0.03172,0.0244,-0.00488,-0.01952,0.00488,0.00976,-0.04392,-0.08784,-0.0244
0,-0.01464,0.02928,0.02928,0.02928,-0.01464,-0.0244,0.00488,-0.00488,-0.05856,-0.08784,-0.01464
0,-0.0122,0.0244,0.0244,0.0244,-0.0122,-0.0244,0.00488,-0.00488,-0.05368,-0.08784,-0.01952
0,-0.01464,0.02928,0.02928,0.02928,-0.01464,-0.01952,0,-0.00976,-0.06344,-0.09272,-0.02928
0.00488,-0.02684,0.0488,0.04636,0.04392,-0.01952,-0.0244,-0.00488,-0.00976,-0.06344,-0.08784,-0.0244
0.0244,-0.03904,0.05368,0.04148,0.02928,-0.00244,-0.03416,0.00488,-0.00976,-0.06344,-0.08784,-0.0244
0.01464,-0.02684,0.03904,0.03172,0.0244,-0.00488,-0.01952,0.01464,-0.01952,-0.0732,-0.09272,-0.0244
0.01464,-0.0244,0.03416,0.02684,0.01952,-0.00244,-0.00488,0.01952,-0.01952,-0.0732,-0.08784,-0.01952
0.00488,-0.00976,0.01464,0.0122,0.00976,-0.00244,0.01464,0.0244,-0.01952,-0.0732,-0.09272,-0.01952
0.00488,-0.01464,0.0244,0.02196,0.01952,-0.00732,0.01464,0.0244,-0.01952,-0.06832,-0.08296,-0.01952
-0.00488,-0.00976,0.0244,0.02684,0.02928,-0.01708,0.01952,0.02928,-0.01952,-0.06832,-0.08296,-0.01952
0,0.00244,-0.00488,-0.00488,-0.00488,0.00244,0.02928,0.02928,-0.03416,-0.08296,-0.08296,-0.03904
0,0.01708,-0.03416,-0.03416,-0.03416,0.01708,0.03904,0.04392,-0.04392,-0.09272,-0.10248,-0.0488
0,0.0366,-0.0732,-0.0732,-0.0732,0.0366,0.05856,0.05368,-0.06344,-0.11224,-0.10736,-0.06832
0.00488,0.0366,-0.07808,-0.08052,-0.08296,0.04392,0.05856,0.05856,-0.06832,-0.11224,-0.09272,-0.06344
0.00976,0.03172,-0.0732,-0.07808,-0.08296,0.04636,0.05856,0.06344,-0.05368,-0.122,-0.08784,-0.06344
-0.00488,0.0366,-0.06832,-0.06588,-0.06344,0.02928,0.06344,0.06344,-0.05368,-0.122,-0.08784,-0.06832
-0.00976,0.04636,-0.08296,-0.07808,-0.0732,0.03172,0.0732,0.06344,-0.06832,-0.13664,-0.10248,-0.08784
-0.01464,0.0488,-0.08296,-0.07564,-0.06832,0.02684,0.0732,0.06344,-0.0732,-0.13176,-0.0976,-0.08784
-0.01464,0.05124,-0.08784,-0.08052,-0.0732,0.02928,0.07808,0.06344,-0.0732,-0.1464,-0.11224,-0.08784
-0.01952,0.05368,-0.08784,-0.07808,-0.06832,0.0244,0.07808,0.06344,-0.08296,-0.15128,-0.11224,-0.10248
-0.0244,0.05612,-0.08784,-0.07564,-0.06344,0.01952,0.08296,0.06832,-0.08296,-0.14152,-0.11224,-0.09272
-0.01952,0.05612,-0.09272,-0.08296,-0.0732,0.02684,0.08296,0.06344,-0.08784,-0.15128,-0.11224,-0.0976
-0.03416,0.07076,-0.10736,-0.09028,-0.0732,0.01952,0.08296,0.06344,-0.07808,-0.14152,-0.10736,-0.08784
-0.03416,0.06832,-0.10248,-0.0854,-0.06832,0.01708,0.08296,0.06832,-0.07808,-0.14152,-0.10736,-0.08296
-0.0244,0.06344,-0.10248,-0.09028,-0.07808,0.02684,0.08296,0.07808,-0.07808,-0.13664,-0.09272,-0.0732
-0.03416,0.06832,-0.10248,-0.0854,-0.06832,0.01708,0.08296,0.0732,-0.0732,-0.13176,-0.09272,-0.0732
-0.03416,0.06832,-0.10248,-0.0854,-0.06832,0.01708,0.08296,0.0732,-0.0732,-0.13664,-0.0976,-0.0732
-0.03416,0.06832,-0.10248,-0.0854,-0.06832,0.01708,0.08296,0.0732,-0.06832,-0.13664,-0.0976,-0.0732
-0.01952,0.05856,-0.0976,-0.08784,-0.07808,0.02928,0.07808,0.06832,-0.07808,-0.13176,-0.10736,-0.08784
-0.01952,0.061,-0.10248,-0.09272,-0.08296,0.03172,0.08296,0.0732,-0.0732,-0.13664,-0.10736,-0.08784
0,0.06344,-0.12688,-0.12688,-0.12688,0.06344,0.10248,0.122,-0.0976,-0.16104,-0.13176,-0.122
0.02928,0.08052,-0.19032,-0.20496,-0.2196,0.12444,0.1464,0.21472,-0.10736,-0.20496,-0.1708,-0.15128
0.08296,0.05368,-0.19032,-0.2318,-0.27328,0.17812,0.18056,0.27816,-0.03904,-0.13176,-0.15616,-0.14152
0.13176,-0.01464,-0.10248,-0.16836,-0.23424,0.183,0.16104,0.27328,0.17568,0.10736,0.0488,0.01464
0.21472,-0.1708,0.12688,0.01952,-0.08784,0.15128,0.00488,0.17568,0.45384,0.49776,0.40504,0.35624
0.33672,-0.36844,0.40016,0.2318,0.06344,0.13664,-0.1464,0.08784,0.77592,0.93696,0.8052,0.72224
0.45384,-0.54412,0.6344,0.40748,0.18056,0.13664,-0.27328,-0.00488,1.13704,1.45424,1.23464,1.0736
0.52704,-0.67344,0.81984,0.55632,0.2928,0.11712,-0.366,-0.07808,1.44936,1.86904,1.586,1.35664
0.51728,-0.7442,0.97112,0.71248,0.45384,0.03172,-0.40504,-0.15128,1.76656,2.20576,1.78608,1.51768
0.49776,-0.78812,1.07848,0.8296,0.58072,-0.04148,-0.4392,-0.20496,1.78608,2.28872,1.88856,1.60552
0.32696,-0.75396,1.18096,1.01748,0.854,-0.26352,-0.52216,-0.40016,1.62504,2.14232,1.83976,1.59576
0.15616,-0.6954,1.23464,1.15656,1.07848,-0.46116,-0.49288,-0.51728,1.2688,1.65432,1.54696,1.3908
-0.0244,-0.51972,1.06384,1.07604,1.08824,-0.55632,-0.4148,-0.53192,0.45872,0.6832,0.9272,0.9516
-0.09272,-0.33428,0.76128,0.80764,0.854,-0.47336,-0.28792,-0.38552,-0.20008,-0.0244,0.40504,0.55144
-0.13176,-0.14396,0.41968,0.48556,0.55144,-0.3416,-0.122,-0.1952,-0.60512,-0.488,-0.02928,0.17568
-0.11712,-0.04148,0.20008,0.25864,0.3172,-0.21716,-0.01952,-0.05368,-0.74664,-0.62952,-0.1952,-0.00976
-0.10736,0.07808,-0.0488,0.00488,0.05856,-0.08296,0.11712,0.11712,-0.76616,-0.70272,-0.35136,-0.18544
-0.10248,0.16592,-0.22936,-0.17812,-0.12688,0.0122,0.23424,0.27328,-0.71736,-0.67344,-0.41968,-0.2928
-0.01952,0.1098,-0.20008,-0.19032,-0.18056,0.08052,0.23424,0.33672,-0.56608,-0.52216,-0.32208,-0.21472
-0.00488,0.122,-0.23912,-0.23668,-0.23424,0.11468,0.27328,0.40992,-0.42456,-0.4148,-0.27816,-0.21472
0.03904,0.07808,-0.1952,-0.21472,-0.23424,0.13664,0.25376,0.40504,-0.28304,-0.31232,-0.20984,-0.15616
0.00976,0.07076,-0.15128,-0.15616,-0.16104,0.0854,0.2196,0.3416,-0.19032,-0.23912,-0.1708,-0.13176
0.0244,0.0488,-0.122,-0.1342,-0.1464,0.0854,0.18056,0.28792,-0.13664,-0.18056,-0.122,-0.10248
-0.00976,0.07076,-0.13176,-0.12688,-0.122,0.05612,0.16104,0.22936,-0.11712,-0.16592,-0.10736,-0.08296
-0.00976,0.0732,-0.13664,-0.13176,-0.12688,0.05856,0.14152,0.1952,-0.10248,-0.1464,-0.10736,-0.08296
0,0.05368,-0.10736,-0.10736,-0.10736,0.05368,0.122,0.15616,-0.07808,-0.15128,-0.10248,-0.08784
-0.0244,0.061,-0.0976,-0.0854,-0.0732,0.0244,0.09272,0.12688,-0.07808,-0.13664,-0.08784,-0.08296
-0.0244,0.06344,-0.10248,-0.09028,-0.07808,0.02684,0.08784,0.09272,-0.06832,-0.12688,-0.09272,-0.0732
-0.01952,0.05856,-0.0976,-0.08784,-0.07808,0.02928,0.07808,0.09272,-0.06832,-0.12688,-0.09272,-0.06344
-0.02928,0.06588,-0.10248,-0.08784,-0.0732,0.02196,0.08784,0.0976,-0.06832,-0.13176,-0.0976,-0.0732
-0.01952,0.061,-0.10248,-0.09272,-0.08296,0.03172,0.08784,0.0976,-0.06344,-0.122,-0.09272,-0.0732
-0.0244,0.06344,-0.10248,-0.09028,-0.07808,0.02684,0.09272,0.09272,-0.05368,-0.11712,-0.08784,-0.07808
-0.01952,0.05856,-0.0976,-0.08784,-0.07808,0.02928,0.08784,0.09272,-0.0488,-0.11712,-0.08784,-0.07808
-0.02928,0.06588,-0.10248,-0.08784,-0.0732,0.02196,0.08296,0.08784,-0.05856,-0.11224,-0.09272,-0.08784
-0.02928,0.06344,-0.0976,-0.08296,-0.06832,0.01952,0.08296,0.08784,-0.05856,-0.10736,-0.0976,-0.08784
-0.02928,0.06832,-0.10736,-0.09272,-0.07808,0.0244,0.09272,0.08784,-0.05856,-0.11712,-0.09272,-0.0732
-0.02928,0.06832,-0.10736,-0.09272,-0.07808,0.0244,0.09272,0.08784,-0.05368,-0.10736,-0.09272,-0.0732
-0.03904,0.0732,-0.10736,-0.08784,-0.06832,0.01464,0.08296,0.08784,-0.05368,-0.10736,-0.08296,-0.06344
-0.02928,0.06832,-0.10736,-0.09272,-0.07808,0.0244,0.08784,0.08296,-0.05368,-0.10736,-0.08296,-0.05368
-0.03416,0.07076,-0.10736,-0.09028,-0.0732,0.01952,0.09272,0.09272,-0.04392,-0.10736,-0.0732,-0.06344
-0.03904,0.07564,-0.11224,-0.09272,-0.0732,0.01708,0.09272,0.0976,-0.04392,-0.10736,-0.0732,-0.06344
-0.0244,0.06588,-0.10736,-0.09516,-0.08296,0.02928,0.09272,0.0976,-0.03416,-0.10248,-0.0732,-0.06344
-0.0244,0.06344,-0.10248,-0.09028,-0.07808,0.02684,0.0976,0.0976,-0.03416,-0.10736,-0.0732,-0.06344
-0.0244,0.06832,-0.11224,-0.10004,-0.08784,0.03172,0.0976,0.0976,-0.03416,-0.09272,-0.08296,-0.06344
-0.01952,0.06344,-0.10736,-0.0976,-0.08784,0.03416,0.0976,0.0976,-0.03416,-0.08784,-0.07808,-0.05368
-0.02928,0.07808,-0.12688,-0.11224,-0.0976,0.03416,0.10248,0.10248,-0.03416,-0.09272,-0.0732,-0.05368
-0.03904,0.08296,-0.12688,-0.10736,-0.08784,0.0244,0.11224,0.0976,-0.03416,-0.09272,-0.06344,-0.0488
-0.0244,0.0732,-0.122,-0.1098,-0.0976,0.0366,0.10248,0.0976,-0.04392,-0.0976,-0.0732,-0.06344
-0.02928,0.07564,-0.122,-0.10736,-0.09272,0.03172,0.10248,0.10248,-0.04392,-0.0976,-0.0732,-0.05856
-0.03904,0.07564,-0.11224,-0.09272,-0.0732,0.01708,0.10248,0.10248,-0.03904,-0.08296,-0.06832,-0.06344
-0.03416,0.0732,-0.11224,-0.09516,-0.07808,0.02196,0.10248,0.10248,-0.03416,-0.08784,-0.05856,-0.06344
-0.0244,0.07076,-0.11712,-0.10492,-0.09272,0.03416,0.10736,0.11224,-0.03416,-0.0976,-0.0732,-0.05368
-0.0244,0.07076,-0.11712,-0.10492,-0.09272,0.03416,0.10736,0.11712,-0.03416,-0.0976,-0.0732,-0.05368
-0.02928,0.07564,-0.122,-0.10736,-0.09272,0.03172,0.10736,0.10736,-0.02928,-0.08784,-0.05856,-0.03904
-0.0244,0.07564,-0.12688,-0.11468,-0.10248,0.03904,0.10736,0.10736,-0.02928,-0.07808,-0.05856,-0.03416
-0.03416,0.08052,-0.12688,-0.1098,-0.09272,0.02928,0.11224,0.10736,-0.03904,-0.07808,-0.05856,-0.0488
-0.01952,0.06832,-0.11712,-0.10736,-0.0976,0.03904,0.11224,0.10248,-0.03904,-0.0732,-0.05856,-0.04392
-0.01952,0.06832,-0.11712,-0.10736,-0.0976,0.03904,0.0976,0.10248,-0.02928,-0.06832,-0.05856,-0.0488
-0.01464,0.06344,-0.11224,-0.10492,-0.0976,0.04148,0.10248,0.10736,-0.02928,-0.06832,-0.05856,-0.04392
-0.0244,0.06344,-0.10248,-0.09028,-0.07808,0.02684,0.0976,0.10736,-0.03416,-0.06832,-0.0488,-0.04392
-0.01952,0.05856,-0.0976,-0.08784,-0.07808,0.02928,0.0976,0.10248,-0.03416,-0.06832,-0.0488,-0.03416
-0.01952,0.05612,-0.09272,-0.08296,-0.0732,0.02684,0.0976,0.11224,-0.03416,-0.06832,-0.04392,-0.02928
-0.01464,0.05368,-0.09272,-0.0854,-0.07808,0.03172,0.0976,0.11712,-0.02928,-0.06344,-0.03904,-0.0244
-0.01464,0.05612,-0.0976,-0.09028,-0.08296,0.03416,0.09272,0.11224,-0.0244,-0.06344,-0.03416,-0.0244
-0.00976,0.05856,-0.10736,-0.10248,-0.0976,0.04392,0.08296,0.11224,-0.0244,-0.06344,-0.03904,-0.0244
0,0.0488,-0.0976,-0.0976,-0.0976,0.0488,0.09272,0.11712,-0.0244,-0.05856,-0.02928,-0.01464
0.00488,0.04392,-0.09272,-0.09516,-0.0976,0.05124,0.0976,0.11712,-0.0244,-0.0488,-0.0244,-0.00976
0.00488,0.04148,-0.08784,-0.09028,-0.09272,0.0488,0.0976,0.11712,-0.0244,-0.03904,-0.00976,-0.00976
0.00488,0.03904,-0.08296,-0.0854,-0.08784,0.04636,0.09272,0.11224,-0.02928,-0.03416,-0.00488,-0.00976
0.00488,0.03904,-0.08296,-0.0854,-0.08784,0.04636,0.08296,0.10736,-0.03904,-0.04392,-0.01464,-0.00488
0.00976,0.03416,-0.07808,-0.08296,-0.08784,0.0488,0.08296,0.10736,-0.04392,-0.04392,-0.01464,0.00488
0.00976,0.03172,-0.0732,-0.07808,-0.08296,0.04636,0.07808,0.09272,-0.05368,-0.03416,-0.00488,0.00488
0.01952,0.0244,-0.06832,-0.07808,-0.08784,0.05368,0.06832,0.09272,-0.05368,-0.02928,-0.00488,0.01464
0.0244,0.01952,-0.06344,-0.07564,-0.08784,0.05612,0.05856,0.0976,-0.05368,-0.03416,0,0.0244
0.0244,0.01708,-0.05856,-0.07076,-0.08296,0.05368,0.05856,0.10736,-0.05368,-0.03416,0.00488,0.03416
0.03416,0.00732,-0.0488,-0.06588,-0.08296,0.05856,0.05368,0.10248,-0.06344,-0.0244,0.00976,0.03904
0.03416,0.0122,-0.05856,-0.07564,-0.09272,0.06344,0.0488,0.0976,-0.06344,-0.0244,0.01952,0.03904
0.05368,-0.00976,-0.03416,-0.061,-0.08784,0.07076,0.0488,0.0976,-0.06344,-0.01952,0.02928,0.05856
0.06344,-0.01952,-0.0244,-0.05612,-0.08784,0.07564,0.03904,0.09272,-0.06344,-0.01952,0.02928,0.06832
0.05368,-0.00976,-0.03416,-0.061,-0.08784,0.07076,0.02928,0.09272,-0.07808,-0.01952,0.03416,0.0732
0.05368,-0.01464,-0.0244,-0.05124,-0.07808,0.06588,0.02928,0.09272,-0.07808,-0.01464,0.04392,0.0732
0.05856,-0.0244,-0.00976,-0.03904,-0.06832,0.06344,0.01464,0.08296,-0.07808,-0.01464,0.05368,0.08784
0.05368,-0.01952,-0.01464,-0.04148,-0.06832,0.061,0.01464,0.07808,-0.07808,0.00976,0.06344,0.0976
0.05368,-0.02196,-0.00976,-0.0366,-0.06344,0.05856,0.01464,0.08296,-0.0732,0.00976,0.07808,0.11712
0.05856,-0.0244,-0.00976,-0.03904,-0.06832,0.06344,0.00976,0.08784,-0.06832,0.01464,0.07808,0.11712
0.05856,-0.02684,-0.00488,-0.03416,-0.06344,0.061,0,0.08296,-0.05856,0.0244,0.08784,0.11712
0.06832,-0.04148,0.01464,-0.01952,-0.05368,0.061,-0.00488,0.08296,-0.04392,0.03416,0.0976,0.122
0.0732,-0.05124,0.02928,-0.00732,-0.04392,0.05856,0.00488,0.0732,-0.04392,0.04392,0.10248,0.13176
0.0732,-0.05368,0.03416,-0.00244,-0.03904,0.05612,-0.00488,0.06832,-0.03904,0.06344,0.11224,0.1464
0.0732,-0.061,0.0488,0.0122,-0.0244,0.0488,-0.00976,0.06344,-0.03904,0.05856,0.11224,0.1464
0.0732,-0.061,0.0488,0.0122,-0.0244,0.0488,0,0.0732,-0.01952,0.07808,0.122,0.1464
0.07808,-0.06344,0.0488,0.00976,-0.02928,0.05368,-0.00976,0.06344,-0.0244,0.0732,0.122,0.1464
0.08296,-0.06832,0.05368,0.0122,-0.02928,0.05612,-0.00976,0.06832,-0.00976,0.08296,0.122,0.15128
0.08784,-0.0732,0.05856,0.01464,-0.02928,0.05856,-0.00976,0.06832,-0.01952,0.0732,0.122,0.14152
0.08296,-0.06588,0.0488,0.00732,-0.03416,0.05856,-0.00976,0.06832,-0.00488,0.07808,0.122,0.13664
0.0732,-0.05856,0.04392,0.00732,-0.02928,0.05124,0,0.06832,0.00488,0.08784,0.12688,0.14152
0.0732,-0.05124,0.02928,-0.00732,-0.04392,0.05856,0,0.0732,0.01464,0.0976,0.12688,0.14152
0.0488,-0.03904,0.02928,0.00488,-0.01952,0.03416,0.00976,0.0732,0.0244,0.08784,0.10248,0.122
0.04392,-0.03416,0.0244,0.00244,-0.01952,0.03172,0.01464,0.0732,0.03416,0.07808,0.09272,0.10736
0.03904,-0.03416,0.02928,0.00976,-0.00976,0.0244,0.00976,0.06832,0.03416,0.07808,0.09272,0.08784
0.02928,-0.0244,0.01952,0.00488,-0.00976,0.01952,0.01464,0.06832,0.03416,0.06832,0.08296,0.06832
0.02928,-0.02684,0.0244,0.00976,-0.00488,0.01708,0.02928,0.07808,0.04392,0.06344,0.0732,0.06344
0.01952,-0.01708,0.01464,0.00488,-0.00488,0.0122,0.02928,0.07808,0.04392,0.05368,0.05368,0.05368
0.00488,-0.00488,0.00488,0.00244,0,0.00244,0.05368,0.08296,0.04392,0.0488,0.0488,0.05368
-0.00488,0.00976,-0.01464,-0.0122,-0.00976,0.00244,0.05368,0.08296,0.04392,0.03904,0.04392,0.05368
0.01464,0,-0.01464,-0.02196,-0.02928,0.02196,0.06832,0.08784,0.03904,0.03904,0.04392,0.03904
0.01952,-0.00244,-0.01464,-0.0244,-0.03416,0.02684,0.0732,0.08784,0.02928,0.03416,0.03416,0.03416
0.00488,0.00244,-0.00976,-0.0122,-0.01464,0.00976,0.06832,0.08784,0.02928,0.01464,0.01952,0.01952
0.00488,0.00732,-0.01952,-0.02196,-0.0244,0.01464,0.06832,0.09272,0.0244,0.00488,0.00976,0.0244
-0.00488,0.01708,-0.02928,-0.02684,-0.0244,0.00976,0.0732,0.09272,0.01464,0.00976,0.00976,0.00488
-0.00976,0.0244,-0.03904,-0.03416,-0.02928,0.00976,0.0732,0.09272,0.00488,0.00488,0,-0.00488
-0.00488,0.01708,-0.02928,-0.02684,-0.0244,0.00976,0.06832,0.08296,0.00488,0.00488,-0.00488,0
-0.00488,0.01464,-0.0244,-0.02196,-0.01952,0.00732,0.0732,0.08784,0,0.00488,-0.00976,-0.00488
-0.01464,0.02928,-0.04392,-0.0366,-0.02928,0.00732,0.08296,0.07808,0,0,0,-0.00488
-0.01464,0.02928,-0.04392,-0.0366,-0.02928,0.00732,0.08296,0.07808,0,0,0,-0.00488
-0.0244,0.03172,-0.03904,-0.02684,-0.01464,-0.00488,0.0732,0.0732,0,-0.00488,-0.00488,-0.00976
-0.01464,0.0244,-0.03416,-0.02684,-0.01952,0.00244,0.0732,0.0732,0,-0.00488,-0.00488,-0.00976
-0.0244,0.02928,-0.03416,-0.02196,-0.00976,-0.00732,0.07808,0.08784,0,-0.00488,-0.00488,-0.00976
-0.01464,0.0244,-0.03416,-0.02684,-0.01952,0.00244,0.07808,0.08784,0,-0.00976,-0.00976,-0.00488
-0.00488,0.01708,-0.02928,-0.02684,-0.0244,0.00976,0.07808,0.07808,-0.00488,-0.00976,-0.00976,-0.00976
-0.00976,0.01708,-0.0244,-0.01952,-0.01464,0.00244,0.07808,0.07808,-0.00488,-0.00976,-0.00976,-0.00976
-0.01952,0.02684,-0.03416,-0.0244,-0.01464,-0.00244,0.08784,0.08784,-0.00488,-0.00976,0,0
-0.01952,0.02928,-0.03904,-0.02928,-0.01952,0,0.08784,0.08784,-0.00488,-0.01464,0,0
-0.01464,0.01952,-0.0244,-0.01708,-0.00976,-0.00244,0.07808,0.08784,-0.00488,0,-0.00976,-0.00976
0.00488,0.00976,-0.0244,-0.02684,-0.02928,0.01708,0.07808,0.08784,-0.00488,0,-0.00976,-0.01464
0,0.0122,-0.0244,-0.0244,-0.0244,0.0122,0.07808,0.0732,-0.00488,-0.00976,-0.00976,-0.00488
-0.00488,0.01464,-0.0244,-0.02196,-0.01952,0.00732,0.07808,0.0732,-0.00488,-0.00976,-0.00976,-0.00976
0,0.0122,-0.0244,-0.0244,-0.0244,0.0122,0.07808,0.08296,-0.01464,-0.00976,-0.00976,-0.0244
0.00488,0.00976,-0.0244,-0.02684,-0.02928,0.01708,0.07808,0.08296,-0.01464,-0.00976,-0.00976,-0.01464
0,0.01464,-0.02928,-0.02928,-0.02928,0.01464,0.07808,0.0732,-0.01952,-0.00976,-0.01464,-0.02928
0,0.01464,-0.02928,-0.02928,-0.02928,0.01464,0.07808,0.0732,-0.01952,-0.01464,-0.01464,-0.03416
0,0.01464,-0.02928,-0.02928,-0.02928,0.01464,0.07808,0.0732,-0.01952,-0.01464,-0.0244,-0.03416
0,0.0122,-0.0244,-0.0244,-0.0244,0.0122,0.07808,0.0732,-0.01952,-0.01464,-0.0244,-0.03416
-0.00976,0.02196,-0.03416,-0.02928,-0.0244,0.00732,0.07808,0.0732,-0.02928,-0.01464,-0.03416,-0.0244
-0.00488,0.01708,-0.02928,-0.02684,-0.0244,0.00976,0.07808,0.07808,-0.02928,-0.01464,-0.03416,-0.0244
0.00488,0.00732,-0.01952,-0.02196,-0.0244,0.01464,0.07808,0.07808,-0.01952,-0.02928,-0.0244,-0.03416
0.00488,0.00976,-0.0244,-0.02684,-0.02928,0.01708,0.07808,0.07808,-0.01464,-0.02928,-0.0244,-0.03904
0.00488,0.00488,-0.01464,-0.01708,-0.01952,0.0122,0.0732,0.06832,-0.0244,-0.02928,-0.03416,-0.0488
0.00976,-0.00244,-0.00488,-0.00976,-0.01464,0.0122,0.06832,0.06832,-0.0244,-0.02928,-0.03416,-0.0488
0.01952,-0.00488,-0.00976,-0.01952,-0.02928,0.0244,0.05856,0.06832,-0.03904,-0.01952,-0.03416,-0.0488
0.0244,-0.00732,-0.00976,-0.02196,-0.03416,0.02928,0.05856,0.06832,-0.03904,-0.01952,-0.03416,-0.0488
0.03416,-0.01952,0.00488,-0.0122,-0.02928,0.03172,0.0488,0.05856,-0.03904,-0.02928,-0.03904,-0.0488
0.03416,-0.0244,0.01464,-0.00244,-0.01952,0.02684,0.04392,0.05856,-0.03416,-0.0244,-0.03904,-0.04392
0.03416,-0.01708,0,-0.01708,-0.03416,0.03416,0.04392,0.05856,-0.04392,-0.03416,-0.0488,-0.05368
0.03416,-0.01952,0.00488,-0.0122,-0.02928,0.03172,0.04392,0.05856,-0.04392,-0.03416,-0.0488,-0.05368
0.04392,-0.02928,0.01464,-0.00732,-0.02928,0.0366,0.04392,0.05856,-0.03416,-0.02928,-0.04392,-0.0488
0.04392,-0.02928,0.01464,-0.00732,-0.02928,0.0366,0.04392,0.05856,-0.02928,-0.02928,-0.04392,-0.0488
0.03904,-0.02684,0.01464,-0.00488,-0.0244,0.03172,0.05368,0.05856,-0.02928,-0.01952,-0.03416,-0.04392
0.03416,-0.0244,0.01464,-0.00244,-0.01952,0.02684,0.05368,0.05856,-0.02928,-0.01464,-0.03416,-0.04392
0.01952,-0.0122,0.00488,-0.00488,-0.01464,0.01708,0.04392,0.05856,-0.0244,-0.0244,-0.02928,-0.04392
0.0244,-0.01464,0.00488,-0.00732,-0.01952,0.02196,0.03416,0.05856,-0.0244,-0.0244,-0.02928,-0.03416
0.03416,-0.0244,0.01464,-0.00244,-0.01952,0.02684,0.03904,0.05856,-0.02928,-0.01464,-0.02928,-0.03416
0.02928,-0.02196,0.01464,0,-0.01464,0.02196,0.03904,0.05856,-0.02928,-0.01464,-0.02928,-0.03904
0.03416,-0.02684,0.01952,0.00244,-0.01464,0.0244,0.03904,0.05856,-0.02928,-0.00976,-0.02928,-0.03904
0.0244,-0.01708,0.00976,-0.00244,-0.01464,0.01952,0.03904,0.05368,-0.02928,-0.01952,-0.02928,-0.03416
0.03416,-0.03172,0.02928,0.0122,-0.00488,0.01952,0.03416,0.05368,-0.01952,-0.00976,-0.01952,-0.03416
0.04392,-0.0366,0.02928,0.00732,-0.01464,0.02928,0.03416,0.06344,-0.01952,-0.00976,-0.01952,-0.03416
0.02928,-0.0244,0.01952,0.00488,-0.00976,0.01952,0.04392,0.06344,-0.01952,-0.00976,-0.01952,-0.03904
0.02928,-0.02196,0.01464,0,-0.01464,0.02196,0.04392,0.06344,-0.01952,-0.00976,-0.01952,-0.03904
0.0244,-0.01708,0.00976,-0.00244,-0.01464,0.01952,0.04392,0.05856,-0.0244,-0.01952,-0.01952,-0.03904
0.00976,-0.00732,0.00488,0,-0.00488,0.00732,0.04392,0.06344,-0.0244,-0.01952,-0.01952,-0.04392
0.00976,-0.00732,0.00488,0,-0.00488,0.00732,0.03904,0.06344,-0.0244,-0.01952,-0.0244,-0.03904
0.00976,-0.00732,0.00488,0,-0.00488,0.00732,0.03904,0.06344,-0.0244,-0.0244,-0.0244,-0.0488
0.00488,-0.00976,0.01464,0.0122,0.00976,-0.00244,0.03904,0.05368,-0.0244,-0.03416,-0.03416,-0.05856
-0.00488,-0.00488,0.01464,0.01708,0.01952,-0.0122,0.04392,0.05856,-0.0244,-0.03416,-0.03416,-0.05856
-0.00488,0,0.00488,0.00732,0.00976,-0.00732,0.03904,0.05856,-0.01464,-0.03416,-0.03416,-0.05856
-0.00976,0.00732,-0.00488,0,0.00488,-0.00732,0.04392,0.05856,-0.01464,-0.03904,-0.03416,-0.05856
-0.0244,0.00976,0.00488,0.01708,0.02928,-0.02684,0.04392,0.05856,-0.01952,-0.03904,-0.03416,-0.0488
-0.01952,0.00488,0.00976,0.01952,0.02928,-0.0244,0.04392,0.05368,-0.01464,-0.03904,-0.03904,-0.0488
-0.03416,0.01708,0,0.01708,0.03416,-0.03416,0.04392,0.06344,-0.01464,-0.02928,-0.02928,-0.0488
-0.0244,0.0122,0,0.0122,0.0244,-0.0244,0.04392,0.06344,-0.01464,-0.02928,-0.02928,-0.0488
-0.0244,0.0122,0,0.0122,0.0244,-0.0244,0.0488,0.06344,-0.01464,-0.02928,-0.02928,-0.0488
-0.02928,0.01708,-0.00488,0.00976,0.0244,-0.02684,0.0488,0.06344,-0.01952,-0.03416,-0.03416,-0.05368
-0.04392,0.02928,-0.01464,0.00732,0.02928,-0.0366,0.05368,0.06832,-0.00976,-0.0244,-0.01952,-0.05368
-0.03904,0.03172,-0.0244,-0.00488,0.01464,-0.02684,0.06832,0.06832,-0.00976,-0.01952,-0.01952,-0.05368
-0.03904,0.02928,-0.01952,0,0.01952,-0.02928,0.05856,0.06832,-0.00488,-0.02928,-0.02928,-0.05368
-0.04392,0.02684,-0.00976,0.0122,0.03416,-0.03904,0.05368,0.06832,-0.00976,-0.03416,-0.0244,-0.05368
-0.0488,0.03172,-0.01464,0.00976,0.03416,-0.04148,0.0488,0.06344,-0.00976,-0.03416,-0.03416,-0.05856
-0.05368,0.03416,-0.01464,0.0122,0.03904,-0.04636,0.05368,0.06832,-0.00488,-0.03416,-0.03416,-0.05856
-0.06832,0.04392,-0.01952,0.01464,0.0488,-0.05856,0.05368,0.06832,-0.00488,-0.04392,-0.02928,-0.05368
-0.0488,0.03172,-0.01464,0.00976,0.03416,-0.04148,0.05368,0.06344,-0.00488,-0.05368,-0.02928,-0.05368
-0.05856,0.04148,-0.0244,0.00488,0.03416,-0.04636,0.05368,0.06344,-0.01464,-0.0488,-0.03904,-0.05368
-0.05368,0.03904,-0.0244,0.00244,0.02928,-0.04148,0.05368,0.06344,-0.01464,-0.04392,-0.03904,-0.05368
-0.0488,0.03416,-0.01952,0.00488,0.02928,-0.03904,0.0488,0.05856,-0.01464,-0.04392,-0.03904,-0.05368
-0.0488,0.03416,-0.01952,0.00488,0.02928,-0.03904,0.05368,0.06344,-0.00976,-0.04392,-0.03416,-0.05856
-0.05368,0.0366,-0.01952,0.00732,0.03416,-0.04392,0.05856,0.06344,-0.01464,-0.04392,-0.0488,-0.05856
-0.05368,0.03904,-0.0244,0.00244,0.02928,-0.04148,0.05368,0.05856,-0.01952,-0.0488,-0.0488,-0.05856
-0.05368,0.03416,-0.01464,0.0122,0.03904,-0.04636,0.0488,0.0488,-0.0244,-0.0488,-0.0488,-0.06832
-0.05368,0.03416,-0.01464,0.0122,0.03904,-0.04636,0.05368,0.06344,-0.0244,-0.0488,-0.05368,-0.0732
-0.04392,0.03172,-0.01952,0.00244,0.0244,-0.03416,0.06344,0.06344,-0.01464,-0.03904,-0.03904,-0.05856
-0.05856,0.03416,-0.00976,0.01952,0.0488,-0.05368,0.0488,0.0488,-0.01952,-0.0488,-0.04392,-0.07808
-0.05856,0.03416,-0.00976,0.01952,0.0488,-0.05368,0.0488,0.0488,-0.01952,-0.0488,-0.05368,-0.07808
-0.0488,0.03416,-0.01952,0.00488,0.02928,-0.03904,0.0488,0.05856,-0.01952,-0.0488,-0.0488,-0.06832
-0.0488,0.03416,-0.01952,0.00488,0.02928,-0.03904,0.0488,0.05856,-0.01952,-0.0488,-0.0488,-0.06832
-0.0488,0.03416,-0.01952,0.00488,0.02928,-0.03904,0.0488,0.0488,-0.01952,-0.0488,-0.0488,-0.07808
-0.0488,0.03416,-0.01952,0.00488,0.02928,-0.03904,0.0488,0.0488,-0.01952,-0.0488,-0.0488,-0.07808
-0.03904,0.02928,-0.01952,0,0.01952,-0.02928,0.0488,0.0488,-0.01952,-0.0488,-0.05856,-0.06832
-0.03904,0.02928,-0.01952,0,0.01952,-0.02928,0.0488,0.0488,-0.01952,-0.0488,-0.05856,-0.06832
-0.0488,0.03416,-0.01952,0.00488,0.02928,-0.03904,0.03904,0.0488,-0.0244,-0.0488,-0.05856,-0.07808
-0.0488,0.03416,-0.01952,0.00488,0.02928,-0.03904,0.03904,0.0488,-0.03416,-0.0488,-0.05856,-0.07808
-0.05856,0.03904,-0.01952,0.00976,0.03904,-0.0488,0.03904,0.0488,-0.03904,-0.0488,-0.06832,-0.07808
-0.05856,0.03904,-0.01952,0.00976,0.03904,-0.0488,0.03904,0.0488,-0.03904,-0.0488,-0.06832,-0.07808
-0.0488,0.03172,-0.01464,0.00976,0.03416,-0.04148,0.0488,0.0488,-0.02928,-0.05856,-0.06832,-0.07808
-0.0488,0.02684,-0.00488,0.01952,0.04392,-0.04636,0.0488,0.0488,-0.02928,-0.05856,-0.06832,-0.07808
-0.05856,0.03172,-0.00488,0.0244,0.05368,-0.05612,0.03904,0.0488,-0.03904,-0.05856,-0.05856,-0.07808
-0.05856,0.0366,-0.01464,0.01464,0.04392,-0.05124,0.03904,0.0488,-0.03904,-0.05856,-0.05856,-0.07808
-0.05856,0.03904,-0.01952,0.00976,0.03904,-0.0488,0.0488,0.0488,-0.03904,-0.05856,-0.06832,-0.07808
-0.05856,0.03904,-0.01952,0.00976,0.03904,-0.0488,0.0488,0.0488,-0.03904,-0.05856,-0.06832,-0.07808
-0.0488,0.03416,-0.01952,0.00488,0.02928,-0.03904,0.03904,0.0488,-0.02928,-0.0488,-0.05856,-0.07808
-0.0488,0.03416,-0.01952,0.00488,0.02928,-0.03904,0.03904,0.0488,-0.02928,-0.0488,-0.05856,-0.07808
-0.0488,0.03416,-0.01952,0.00488,0.02928,-0.03904,0.0488,0.0488,-0.01952,-0.0488,-0.0488,-0.0732
-0.0488,0.03416,-0.01952,0.00488,0.02928,-0.03904,0.0488,0.0488,-0.01952,-0.0488,-0.0488,-0.06344
-0.0488,0.03416,-0.01952,0.00488,0.02928,-0.03904,0.03904,0.0488,-0.02928,-0.05856,-0.05856,-0.06344
-0.0488,0.03416,-0.01952,0.00488,0.02928,-0.03904,0.03904,0.0488,-0.02928,-0.05856,-0.05856,-0.0732
-0.0488,0.03904,-0.02928,-0.00488,0.01952,-0.03416,0.03904,0.0488,-0.01952,-0.0488,-0.0488,-0.07808
-0.0488,0.03904,-0.02928,-0.00488,0.01952,-0.03416,0.03904,0.0488,-0.01952,-0.0488,-0.0488,-0.07808
-0.0488,0.03904,-0.02928,-0.00488,0.01952,-0.03416,0.0488,0.0488,-0.02928,-0.0488,-0.0488,-0.07808
-0.0488,0.03904,-0.02928,-0.00488,0.01952,-0.03416,0.0488,0.0488,-0.02928,-0.0488,-0.0488,-0.07808
-0.0488,0.03416,-0.01952,0.00488,0.02928,-0.03904,0.0488,0.0488,-0.0244,-0.0488,-0.0488,-0.0732
-0.0488,0.03416,-0.01952,0.00488,0.02928,-0.03904,0.0488,0.0488,-0.01464,-0.0488,-0.0488,-0.06344
-0.03904,0.02684,-0.01464,0.00488,0.0244,-0.03172,0.03904,0.03904,-0.00976,-0.0488,-0.03904,-0.05856
-0.03904,0.02196,-0.00488,0.01464,0.03416,-0.0366,0.03904,0.03904,-0.00976,-0.0488,-0.03904,-0.05856
-0.03904,0.01464,0.00976,0.02928,0.0488,-0.04392,0.02928,0.03904,0,-0.03904,-0.03904,-0.05856
-0.03904,0.01464,0.00976,0.02928,0.0488,-0.04392,0.02928,0.03904,0,-0.03904,-0.03904,-0.05856
-0.0488,0.01952,0.00976,0.03416,0.05856,-0.05368,0.02928,0.03904,0.00976,-0.03904,-0.02928,-0.05856
-0.0488,0.01952,0.00976,0.03416,0.05856,-0.05368,0.02928,0.03416,0.01952,-0.03416,-0.02928,-0.05368
-0.04392,0.0122,0.01952,0.04148,0.06344,-0.05368,0.02928,0.03416,0.02928,-0.01952,-0.01952,-0.05368
-0.03904,0.00732,0.0244,0.04392,0.06344,-0.05124,0.02928,0.02928,0.04392,-0.00488,-0.00976,-0.0488
-0.03904,0,0.03904,0.05856,0.07808,-0.05856,0.01952,0.03416,0.0488,-0.00488,-0.00976,-0.03416
-0.01464,-0.01952,0.05368,0.061,0.06832,-0.04148,0.01952,0.03416,0.0488,0.00488,-0.00976,-0.03416
-0.01464,-0.01952,0.05368,0.061,0.06832,-0.04148,0.00976,0.0244,0.0488,0.00488,0.00488,-0.03416
-0.00976,-0.02196,0.05368,0.05856,0.06344,-0.0366,0,0.0244,0.0488,0,0.00488,-0.02928
-0.00976,-0.0244,0.05856,0.06344,0.06832,-0.03904,-0.0244,0,0.04392,-0.00976,0,-0.04392
-0.01952,-0.0244,0.06832,0.07808,0.08784,-0.05368,-0.02928,-0.00488,0.04392,-0.00976,-0.00976,-0.03904
-0.00488,-0.03172,0.06832,0.07076,0.0732,-0.03904,-0.03904,-0.01464,0.0244,-0.00976,-0.01464,-0.0488
-0.01952,-0.01464,0.0488,0.05856,0.06832,-0.04392,-0.03416,-0.01464,0.01464,-0.01952,-0.02928,-0.05368
-0.01952,-0.01952,0.05856,0.06832,0.07808,-0.0488,-0.03416,-0.0244,0.01464,-0.0244,-0.01952,-0.0488
-0.01952,-0.01708,0.05368,0.06344,0.0732,-0.04636,-0.02928,-0.01952,0.01464,-0.03416,-0.01952,-0.0488
-0.01464,-0.01464,0.04392,0.05124,0.05856,-0.0366,-0.03416,-0.00976,0.00976,-0.01464,-0.01464,-0.03904
-0.00976,-0.02196,0.05368,0.05856,0.06344,-0.0366,-0.03416,-0.01464,0.00976,-0.01464,-0.00976,-0.03416
-0.00488,-0.02196,0.0488,0.05124,0.05368,-0.02928,-0.03416,-0.01464,0.00488,-0.02928,-0.01464,-0.04392
-0.01464,-0.0122,0.03904,0.04636,0.05368,-0.03416,-0.0244,-0.01464,-0.00488,-0.03416,-0.01464,-0.04392
-0.00976,-0.01708,0.04392,0.0488,0.05368,-0.03172,-0.01464,-0.00488,-0.01952,-0.03416,-0.03416,-0.05856
-0.00976,-0.01464,0.03904,0.04392,0.0488,-0.02928,-0.00488,-0.00488,-0.01952,-0.03416,-0.03416,-0.05856
-0.01952,-0.00976,0.03904,0.0488,0.05856,-0.03904,-0.01464,-0.00488,-0.02928,-0.0488,-0.03416,-0.05856
-0.01952,0.00244,0.01464,0.0244,0.03416,-0.02684,0,0,-0.03904,-0.05856,-0.04392,-0.06832
-0.02928,0.0122,0.00488,0.01952,0.03416,-0.03172,0.00488,0.00976,-0.0488,-0.06344,-0.05368,-0.09272
-0.01952,0.0244,-0.02928,-0.01952,-0.00976,-0.00488,0.01464,0.01952,-0.06832,-0.08784,-0.0732,-0.11224
-0.01952,0.03172,-0.04392,-0.03416,-0.0244,0.00244,0.00976,0.0244,-0.07808,-0.10248,-0.09272,-0.10736
-0.00976,0.01952,-0.02928,-0.0244,-0.01952,0.00488,0.00976,0.01464,-0.0732,-0.10248,-0.08784,-0.10248
-0.00488,0.01952,-0.03416,-0.03172,-0.02928,0.0122,0.01952,0.0244,-0.06344,-0.0976,-0.08296,-0.10248
-0.03416,0.04392,-0.05368,-0.0366,-0.01952,-0.00732,0.02928,0.02928,-0.0732,-0.09272,-0.08296,-0.11224
-0.02928,0.04148,-0.05368,-0.03904,-0.0244,-0.00244,0.03416,0.03416,-0.08296,-0.10736,-0.09272,-0.12688
-0.03416,0.04636,-0.05856,-0.04148,-0.0244,-0.00488,0.03904,0.03416,-0.07808,-0.10248,-0.08784,-0.12688
-0.05856,0.05856,-0.05856,-0.02928,0,-0.02928,0.02928,0.0244,-0.08296,-0.11712,-0.10248,-0.11712
-0.06344,0.06588,-0.06832,-0.0366,-0.00488,-0.02928,0.02928,0.01952,-0.09272,-0.122,-0.10736,-0.13176
-0.0488,0.05368,-0.05856,-0.03416,-0.00976,-0.01952,0.03416,0.01952,-0.09272,-0.11224,-0.10736,-0.13176
-0.05368,0.061,-0.06832,-0.04148,-0.01464,-0.01952,0.03416,0.01464,-0.0976,-0.122,-0.11712,-0.13664
-0.05368,0.061,-0.06832,-0.04148,-0.01464,-0.01952,0.03416,0.00976,-0.0976,-0.13176,-0.11712,-0.1464
-0.05368,0.05856,-0.06344,-0.0366,-0.00976,-0.02196,0.03416,0.00976,-0.0976,-0.12688,-0.11224,-0.14152
-0.05368,0.05124,-0.0488,-0.02196,0.00488,-0.02928,0.0244,0.01952,-0.09272,-0.12688,-0.10248,-0.14152
-0.05368,0.05124,-0.0488,-0.02196,0.00488,-0.02928,0.0244,0.01464,-0.09272,-0.122,-0.10248,-0.14152
-0.04392,0.04392,-0.04392,-0.02196,0,-0.02196,0.0244,0.00488,-0.09272,-0.11712,-0.10736,-0.15128
-0.04392,0.04148,-0.03904,-0.01708,0.00488,-0.0244,0.0244,0.00976,-0.08784,-0.11224,-0.10736,-0.15128
-0.05856,0.06832,-0.07808,-0.0488,-0.01952,-0.01952,0.01952,0.01952,-0.09272,-0.11712,-0.11712,-0.1464
-0.00488,0.02684,-0.0488,-0.04636,-0.04392,0.01952,0.06344,0.06344,-0.08296,-0.12688,-0.10736,-0.1464
-0.00488,0.07808,-0.15128,-0.14884,-0.1464,0.07076,0.0732,0.122,-0.13664,-0.18544,-0.17568,-0.20008
0.06344,0.0488,-0.16104,-0.19276,-0.22448,0.14396,0.12688,0.2196,-0.11712,-0.18544,-0.20984,-0.23912
0.07808,0.01708,-0.11224,-0.15128,-0.19032,0.1342,0.122,0.24888,0.04392,-0.01952,-0.10736,-0.15616
0.18544,-0.14396,0.10248,0.00976,-0.08296,0.1342,-0.00488,0.15616,0.2928,0.28304,0.19032,0.10248
0.28304,-0.31476,0.34648,0.20496,0.06344,0.1098,-0.122,0.06832,0.5856,0.69784,0.56608,0.45872
0.40504,-0.50508,0.60512,0.4026,0.20008,0.10248,-0.27328,-0.02928,0.96624,1.20536,0.976,0.81984
0.5124,-0.64172,0.77104,0.51484,0.25864,0.12688,-0.38552,-0.0976,1.25904,1.61528,1.32736,1.11752
0.50752,-0.74176,0.976,0.72224,0.46848,0.01952,-0.4636,-0.20008,1.59576,1.99592,1.62016,1.342
0.50752,-0.80276,1.098,0.84424,0.59048,-0.04148,-0.50264,-0.24888,1.74216,2.20088,1.78608,1.47376
0.4392,-0.82228,1.20536,0.98576,0.76616,-0.16348,-0.57096,-0.40016,1.6104,2.11792,1.7812,1.50792
0.23912,-0.7808,1.32248,1.20292,1.08336,-0.42212,-0.61,-0.61,1.3908,1.83488,1.64944,1.44448
0.04392,-0.64416,1.2444,1.22244,1.20048,-0.57828,-0.54656,-0.63928,0.69296,1.03456,1.1712,1.1224
-0.08296,-0.44164,0.96624,1.00772,1.0492,-0.56608,-0.44408,-0.5612,-0.05856,0.23424,0.63928,0.71248
-0.122,-0.2684,0.6588,0.7198,0.7808,-0.4514,-0.2684,-0.3904,-0.52216,-0.30256,0.18056,0.33672
-0.11224,-0.14152,0.39528,0.4514,0.50752,-0.30988,-0.16104,-0.244,-0.72224,-0.5368,-0.08784,0.09272
-0.13664,-0.01464,0.16592,0.23424,0.30256,-0.2196,-0.02928,-0.05856,-0.76616,-0.61976,-0.24888,-0.11712
-0.10736,0.07808,-0.0488,0.00488,0.05856,-0.08296,0.10736,0.1464,-0.73688,-0.6344,-0.37088,-0.2928
-0.04392,0.08784,-0.13176,-0.1098,-0.08784,0.02196,0.14152,0.244,-0.61976,-0.5368,-0.3416,-0.30256
-0.03904,0.09272,-0.1464,-0.12688,-0.10736,0.03416,0.20008,0.32696,-0.44896,-0.40504,-0.28304,-0.25376
0.02928,0.04148,-0.11224,-0.12688,-0.14152,0.0854,0.1952,0.35624,-0.32696,-0.2928,-0.2196,-0.22448
0.00976,0.03416,-0.07808,-0.08296,-0.08784,0.0488,0.15128,0.29768,-0.23912,-0.22936,-0.17568,-0.1952
0.01464,0.01464,-0.04392,-0.05124,-0.05856,0.0366,0.11712,0.22936,-0.18056,-0.18544,-0.1464,-0.1708
0,0.02684,-0.05368,-0.05368,-0.05368,0.02684,0.10248,0.15616,-0.15616,-0.15616,-0.13664,-0.15128
-0.00976,0.03172,-0.05368,-0.0488,-0.04392,0.01708,0.06344,0.0976,-0.13664,-0.1464,-0.12688,-0.15128
-0.00976,0.03172,-0.05368,-0.0488,-0.04392,0.01708,0.02928,0.08784,-0.122,-0.14152,-0.11712,-0.1464
-0.00488,0.0244,-0.04392,-0.04148,-0.03904,0.01708,0.0244,0.06344,-0.11224,-0.12688,-0.11224,-0.1464
-0.03904,0.0366,-0.03416,-0.01464,0.00488,-0.02196,0.0244,0.01464,-0.11224,-0.12688,-0.10736,-0.15128
-0.02928,0.03172,-0.03416,-0.01952,-0.00488,-0.0122,0.01464,0.00488,-0.10736,-0.12688,-0.11224,-0.15128
-0.02928,0.03416,-0.03904,-0.0244,-0.00976,-0.00976,0,0.00976,-0.10736,-0.13176,-0.11712,-0.15128
-0.02928,0.0366,-0.04392,-0.02928,-0.01464,-0.00732,0,0.00976,-0.10736,-0.12688,-0.11224,-0.15128
-0.0244,0.02928,-0.03416,-0.02196,-0.00976,-0.00732,0.01464,0,-0.09272,-0.11712,-0.11224,-0.13664
-0.01952,0.02684,-0.03416,-0.0244,-0.01464,-0.00244,0.00976,-0.00488,-0.09272,-0.11712,-0.10736,-0.13664
-0.01952,0.02928,-0.03904,-0.02928,-0.01952,0,0.00976,0,-0.08784,-0.10736,-0.10248,-0.1464
-0.01952,0.03172,-0.04392,-0.03416,-0.0244,0.00244,0.00488,0,-0.08784,-0.11224,-0.10736,-0.1464
-0.0244,0.03416,-0.04392,-0.03172,-0.01952,-0.00244,-0.00488,0,-0.08784,-0.11712,-0.10248,-0.1464
-0.03416,0.04392,-0.05368,-0.0366,-0.01952,-0.00732,-0.00488,0,-0.08296,-0.11224,-0.10248,-0.14152
-0.03416,0.04148,-0.0488,-0.03172,-0.01464,-0.00976,0.00488,0,-0.08296,-0.10736,-0.09272,-0.13176
-0.01464,0.03172,-0.0488,-0.04148,-0.03416,0.00976,0.00976,0,-0.08296,-0.10736,-0.09272,-0.13176
-0.01464,0.03172,-0.0488,-0.04148,-0.03416,0.00976,0.00488,0.00488,-0.08296,-0.10736,-0.09272,-0.14152
-0.01464,0.03172,-0.0488,-0.04148,-0.03416,0.00976,0.00488,0.00488,-0.08296,-0.10736,-0.09272,-0.14152
-0.01952,0.0366,-0.05368,-0.04392,-0.03416,0.00732,0.00488,0,-0.08296,-0.10248,-0.09272,-0.13176
-0.01464,0.03172,-0.0488,-0.04148,-0.03416,0.00976,0.00976,0,-0.08296,-0.10248,-0.09272,-0.13176
-0.0244,0.0366,-0.0488,-0.0366,-0.0244,0,0.00976,0.00976,-0.07808,-0.0976,-0.08296,-0.13176
-0.01952,0.0366,-0.05368,-0.04392,-0.03416,0.00732,0.00976,0.00976,-0.06832,-0.08784,-0.07808,-0.12688
-0.01952,0.04392,-0.06832,-0.05856,-0.0488,0.01464,0.01464,0.00976,-0.06344,-0.09272,-0.09272,-0.11224
-0.01952,0.04392,-0.06832,-0.05856,-0.0488,0.01464,0.01464,0.01464,-0.06344,-0.09272,-0.09272,-0.10736
-0.0244,0.04636,-0.06832,-0.05612,-0.04392,0.00976,0.01464,0.00976,-0.06344,-0.10248,-0.08296,-0.11224
-0.02928,0.04636,-0.06344,-0.0488,-0.03416,0.00244,0.01464,0.01464,-0.06344,-0.0976,-0.08296,-0.10736
-0.01952,0.04148,-0.06344,-0.05368,-0.04392,0.0122,0.0244,0.00488,-0.06832,-0.08784,-0.08784,-0.11712
-0.01464,0.03904,-0.06344,-0.05612,-0.0488,0.01708,0.0244,0.00488,-0.06344,-0.08296,-0.08296,-0.11224
-0.01952,0.0488,-0.07808,-0.06832,-0.05856,0.01952,0.01464,0.01464,-0.06344,-0.08784,-0.07808,-0.10248
-0.02928,0.05368,-0.07808,-0.06344,-0.0488,0.00976,0.01952,0.01464,-0.06344,-0.08784,-0.08296,-0.10248
-0.0244,0.04392,-0.06344,-0.05124,-0.03904,0.00732,0.02928,0.01952,-0.05856,-0.08784,-0.08296,-0.10248
-0.02928,0.0488,-0.06832,-0.05368,-0.03904,0.00488,0.02928,0.01952,-0.06832,-0.08784,-0.07808,-0.0976
-0.03416,0.05612,-0.07808,-0.061,-0.04392,0.00488,0.01464,0.01952,-0.05856,-0.08784,-0.07808,-0.10248
-0.02928,0.05124,-0.0732,-0.05856,-0.04392,0.00732,0.01464,0.01952,-0.05856,-0.08296,-0.07808,-0.10736
-0.02928,0.0488,-0.06832,-0.05368,-0.03904,0.00488,0.01952,0.01464,-0.0488,-0.0732,-0.0732,-0.0976
-0.02928,0.0488,-0.06832,-0.05368,-0.03904,0.00488,0.0244,0.01952,-0.0488,-0.06832,-0.06832,-0.09272
-0.03416,0.05612,-0.07808,-0.061,-0.04392,0.00488,0.0244,0.01952,-0.04392,-0.06832,-0.06344,-0.09272
-0.02928,0.05856,-0.08784,-0.0732,-0.05856,0.01464,0.01952,0.01952,-0.04392,-0.06832,-0.05368,-0.08784
-0.02928,0.05368,-0.07808,-0.06344,-0.0488,0.00976,0.01952,0.0244,-0.03416,-0.05856,-0.04392,-0.06832
-0.02928,0.05612,-0.08296,-0.06832,-0.05368,0.0122,0.01952,0.0244,-0.02928,-0.05856,-0.04392,-0.06832
-0.01464,0.0488,-0.08296,-0.07564,-0.06832,0.02684,0.01952,0.02928,-0.04392,-0.06344,-0.03416,-0.0732
-0.01464,0.04636,-0.07808,-0.07076,-0.06344,0.0244,0.01464,0.01952,-0.04392,-0.06344,-0.03904,-0.0732
-0.01952,0.0488,-0.07808,-0.06832,-0.05856,0.01952,0.01464,0.01464,-0.03416,-0.06344,-0.02928,-0.06344
-0.01464,0.04392,-0.0732,-0.06588,-0.05856,0.02196,0.01952,0.0244,-0.03416,-0.05368,-0.0244,-0.0488
-0.01464,0.04392,-0.0732,-0.06588,-0.05856,0.02196,0,0.0244,-0.04392,-0.0488,-0.0244,-0.05856
-0.01464,0.03904,-0.06344,-0.05612,-0.0488,0.01708,0,0.01464,-0.04392,-0.05368,-0.01952,-0.05856
-0.01464,0.03904,-0.06344,-0.05612,-0.0488,0.01708,-0.00488,0.01464,-0.0488,-0.04392,-0.0244,-0.05368
-0.01464,0.03904,-0.06344,-0.05612,-0.0488,0.01708,-0.00488,0.01952,-0.0488,-0.04392,-0.01952,-0.04392
0,0.02684,-0.05368,-0.05368,-0.05368,0.02684,-0.00488,0.00976,-0.05368,-0.04392,-0.01464,-0.03416
0,0.0244,-0.0488,-0.0488,-0.0488,0.0244,-0.01952,0.00488,-0.05368,-0.03904,-0.01464,-0.03416
0.01464,0.01464,-0.04392,-0.05124,-0.05856,0.0366,-0.01952,0,-0.05368,-0.04392,0,-0.02928
0.00488,0.01952,-0.04392,-0.04636,-0.0488,0.02684,-0.01952,0,-0.05368,-0.04392,0,-0.01952
0.01952,0.00244,-0.0244,-0.03416,-0.04392,0.03172,-0.02928,-0.00488,-0.05856,-0.04392,0,-0.00976
0.0244,-0.00244,-0.01952,-0.03172,-0.04392,0.03416,-0.03416,-0.00976,-0.06344,-0.04392,0.00488,-0.00976
0.02928,-0.0122,-0.00488,-0.01952,-0.03416,0.03172,-0.03904,-0.00976,-0.0732,-0.03904,0.00976,-0.00488
0.03416,-0.0244,0.01464,-0.00244,-0.01952,0.02684,-0.04392,-0.01464,-0.0732,-0.03904,0.00976,0
0.03416,-0.0244,0.01464,-0.00244,-0.01952,0.02684,-0.05856,-0.0244,-0.0732,-0.03904,0.01464,0.00976
0.03904,-0.02684,0.01464,-0.00488,-0.0244,0.03172,-0.05856,-0.0244,-0.07808,-0.03416,0.01952,0.01464
0.0488,-0.04148,0.03416,0.00976,-0.01464,0.03172,-0.06832,-0.0244,-0.07808,-0.04392,0.01464,0.00976
0.04392,-0.04148,0.03904,0.01708,-0.00488,0.0244,-0.0732,-0.02928,-0.07808,-0.0244,0.02928,0.0244
0.05368,-0.05124,0.0488,0.02196,-0.00488,0.02928,-0.0732,-0.03416,-0.06344,-0.01952,0.04392,0.04392
0.05856,-0.06588,0.0732,0.04392,0.01464,0.02196,-0.07808,-0.03904,-0.06344,-0.01952,0.0488,0.0488
0.0488,-0.06344,0.07808,0.05368,0.02928,0.00976,-0.08296,-0.0488,-0.06832,-0.01464,0.04392,0.05368
0.0488,-0.0732,0.0976,0.0732,0.0488,0,-0.09272,-0.05368,-0.06832,-0.00976,0.05368,0.0488
0.06344,-0.07808,0.09272,0.061,0.02928,0.01708,-0.09272,-0.05368,-0.06344,-0.00488,0.06344,0.05368
0.06344,-0.08296,0.10248,0.07076,0.03904,0.0122,-0.0976,-0.05856,-0.05856,0.00488,0.0732,0.06344
0.06344,-0.08296,0.10248,0.07076,0.03904,0.0122,-0.10736,-0.06344,-0.05856,0.01464,0.06344,0.05856
0.06344,-0.0854,0.10736,0.07564,0.04392,0.00976,-0.10248,-0.05856,-0.0488,0.01464,0.07808,0.06832
0.06344,-0.0854,0.10736,0.07564,0.04392,0.00976,-0.10736,-0.05368,-0.04392,0.01952,0.08296,0.06832
0.0732,-0.09272,0.11224,0.07564,0.03904,0.01708,-0.10736,-0.05368,-0.03416,0.02928,0.09272,0.06832
0.0732,-0.09516,0.11712,0.08052,0.04392,0.01464,-0.10736,-0.05856,-0.03904,0.03416,0.08296,0.0732
0.06344,-0.08784,0.11224,0.08052,0.0488,0.00732,-0.10736,-0.05856,-0.02928,0.03904,0.08296,0.0732
0.06344,-0.09028,0.11712,0.0854,0.05368,0.00488,-0.0976,-0.0488,-0.00976,0.0488,0.09272,0.06344
0.06344,-0.09272,0.122,0.09028,0.05856,0.00244,-0.08784,-0.04392,0,0.0488,0.08784,0.05856
0.0488,-0.0732,0.0976,0.0732,0.0488,0,-0.09272,-0.05368,-0.00488,0.03904,0.06832,0.03904
0.04392,-0.06832,0.09272,0.07076,0.0488,-0.00244,-0.08784,-0.05368,-0.00488,0.02928,0.05856,0.02928
0.03416,-0.06588,0.0976,0.08052,0.06344,-0.01464,-0.08296,-0.0488,0.00488,0.01952,0.03904,0.0244
0.0244,-0.05856,0.09272,0.08052,0.06832,-0.02196,-0.07808,-0.0488,0.00488,0.01464,0.02928,0.01464
0.02928,-0.061,0.09272,0.07808,0.06344,-0.01708,-0.0732,-0.0488,-0.00488,0.01464,0.02928,-0.00976
0.0244,-0.05612,0.08784,0.07564,0.06344,-0.01952,-0.06832,-0.0488,-0.00488,0.00976,0.01464,-0.01952
0.00488,-0.0488,0.09272,0.09028,0.08784,-0.04148,-0.06832,-0.05856,-0.01464,0,-0.00488,-0.01952
0,-0.04148,0.08296,0.08296,0.08296,-0.04148,-0.06344,-0.05368,-0.01464,-0.01952,-0.01464,-0.02928
0.00488,-0.04392,0.08296,0.08052,0.07808,-0.0366,-0.06344,-0.05856,-0.01952,-0.0244,-0.01952,-0.0488
0.00488,-0.03904,0.0732,0.07076,0.06832,-0.03172,-0.05368,-0.05856,-0.01952,-0.03416,-0.02928,-0.06344
0.00488,-0.04148,0.07808,0.07564,0.0732,-0.03416,-0.06344,-0.0488,-0.02928,-0.03904,-0.03904,-0.06832
0.00488,-0.04148,0.07808,0.07564,0.0732,-0.03416,-0.05856,-0.0488,-0.02928,-0.04392,-0.04392,-0.06344
-0.00976,-0.02928,0.06832,0.0732,0.07808,-0.04392,-0.05368,-0.05368,-0.04392,-0.05856,-0.05856,-0.0732
-0.01952,-0.02196,0.06344,0.0732,0.08296,-0.05124,-0.05368,-0.05368,-0.05368,-0.06344,-0.05856,-0.07808
-0.01952,-0.01952,0.05856,0.06832,0.07808,-0.0488,-0.0488,-0.05368,-0.04392,-0.06344,-0.05856,-0.08296
-0.01464,-0.0244,0.06344,0.07076,0.07808,-0.04636,-0.0488,-0.05368,-0.0488,-0.06344,-0.05368,-0.07808
-0.01464,-0.01952,0.05368,0.061,0.06832,-0.04148,-0.04392,-0.0488,-0.0488,-0.06344,-0.05856,-0.09272
-0.01464,-0.01952,0.05368,0.061,0.06832,-0.04148,-0.04392,-0.0488,-0.0488,-0.06832,-0.05856,-0.09272
-0.00976,-0.0244,0.05856,0.06344,0.06832,-0.03904,-0.04392,-0.0488,-0.04392,-0.06832,-0.06344,-0.0976
-0.01464,-0.0244,0.06344,0.07076,0.07808,-0.04636,-0.04392,-0.05368,-0.0488,-0.0732,-0.06344,-0.09272
-0.00488,-0.0244,0.05368,0.05612,0.05856,-0.03172,-0.04392,-0.05368,-0.05856,-0.0732,-0.06344,-0.08784
-0.00488,-0.0244,0.05368,0.05612,0.05856,-0.03172,-0.03904,-0.0488,-0.05856,-0.0732,-0.06344,-0.08784
-0.01464,-0.01952,0.05368,0.061,0.06832,-0.04148,-0.03904,-0.0488,-0.06344,-0.07808,-0.05856,-0.08784
-0.01464,-0.01708,0.0488,0.05612,0.06344,-0.03904,-0.03904,-0.0488,-0.06344,-0.07808,-0.05856,-0.08784
-0.00976,-0.02684,0.06344,0.06832,0.0732,-0.04148,-0.03904,-0.0488,-0.06344,-0.06832,-0.06832,-0.08784
-0.00976,-0.0244,0.05856,0.06344,0.06832,-0.03904,-0.03904,-0.05856,-0.06344,-0.0732,-0.06832,-0.08784
-0.01464,-0.02196,0.05856,0.06588,0.0732,-0.04392,-0.03904,-0.0488,-0.06344,-0.07808,-0.06832,-0.08784
-0.00976,-0.02684,0.06344,0.06832,0.0732,-0.04148,-0.03904,-0.0488,-0.06344,-0.07808,-0.06832,-0.08784
-0.01464,-0.02196,0.05856,0.06588,0.0732,-0.04392,-0.0488,-0.05856,-0.06344,-0.07808,-0.06832,-0.08296
-0.0244,-0.0122,0.0488,0.061,0.0732,-0.0488,-0.0488,-0.06344,-0.06344,-0.07808,-0.06832,-0.08296
-0.02928,-0.0122,0.05368,0.06832,0.08296,-0.05612,-0.03904,-0.06344,-0.06344,-0.06832,-0.06832,-0.10248
-0.02928,-0.00732,0.04392,0.05856,0.0732,-0.05124,-0.03904,-0.06344,-0.06344,-0.06832,-0.06832,-0.0976
-0.0244,-0.00976,0.04392,0.05612,0.06832,-0.04636,-0.0488,-0.06344,-0.06832,-0.07808,-0.06344,-0.09272
-0.02928,-0.00488,0.03904,0.05368,0.06832,-0.0488,-0.0488,-0.06344,-0.06832,-0.07808,-0.06344,-0.0976
-0.03904,0.00488,0.02928,0.0488,0.06832,-0.05368,-0.03904,-0.05368,-0.06832,-0.0732,-0.0732,-0.09272
-0.03904,0.00244,0.03416,0.05368,0.0732,-0.05612,-0.03904,-0.05368,-0.06832,-0.0732,-0.0732,-0.09272
-0.03904,0.0122,0.01464,0.03416,0.05368,-0.04636,-0.03904,-0.05368,-0.06344,-0.0732,-0.06344,-0.09272
-0.03904,0.00976,0.01952,0.03904,0.05856,-0.0488,-0.03904,-0.0488,-0.05368,-0.0732,-0.06344,-0.09272
-0.03416,0.00732,0.01952,0.0366,0.05368,-0.04392,-0.02928,-0.03904,-0.0488,-0.06344,-0.06344,-0.08296
-0.03416,0.00732,0.01952,0.0366,0.05368,-0.04392,-0.02928,-0.03904,-0.0488,-0.06832,-0.06344,-0.08784
-0.03416,0.01464,0.00488,0.02196,0.03904,-0.0366,-0.01952,-0.03904,-0.04392,-0.06832,-0.05368,-0.08784
-0.03416,0.01464,0.00488,0.02196,0.03904,-0.0366,-0.01464,-0.03904,-0.04392,-0.06832,-0.05368,-0.08784
-0.03904,0.0122,0.01464,0.03416,0.05368,-0.04636,-0.02928,-0.0488,-0.04392,-0.06832,-0.06344,-0.07808
-0.03904,0.01464,0.00976,0.02928,0.0488,-0.04392,-0.02928,-0.0488,-0.0488,-0.06832,-0.06344,-0.07808
-0.04392,0.01952,0.00488,0.02684,0.0488,-0.04636,-0.02928,-0.0488,-0.0488,-0.06832,-0.05856,-0.08784
-0.04392,0.01952,0.00488,0.02684,0.0488,-0.04636,-0.02928,-0.0488,-0.0488,-0.06344,-0.05856,-0.08784
-0.03416,0.0122,0.00976,0.02684,0.04392,-0.03904,-0.03416,-0.03904,-0.03416,-0.05368,-0.0488,-0.0732
-0.03416,0.0122,0.00976,0.02684,0.04392,-0.03904,-0.03416,-0.03904,-0.03416,-0.05368,-0.0488,-0.0732
-0.03416,0.00976,0.01464,0.03172,0.0488,-0.04148,-0.03416,-0.03904,-0.03416,-0.05368,-0.04392,-0.06832
-0.03416,0.00976,0.01464,0.03172,0.0488,-0.04148,-0.03416,-0.03904,-0.02928,-0.0488,-0.04392,-0.06832
-0.03416,0.00976,0.01464,0.03172,0.0488,-0.04148,-0.03416,-0.03904,-0.02928,-0.0488,-0.04392,-0.06832
-0.02928,0.00732,0.01464,0.02928,0.04392,-0.0366,-0.03416,-0.03904,-0.02928,-0.0488,-0.04392,-0.06344
-0.0244,0.00976,0.00488,0.01708,0.02928,-0.02684,-0.02928,-0.03416,-0.0244,-0.03416,-0.03904,-0.05368
-0.02928,0.0122,0.00488,0.01952,0.03416,-0.03172,-0.02928,-0.0244,-0.0244,-0.03416,-0.03904,-0.0488
-0.0244,0.00976,0.00488,0.01708,0.02928,-0.02684,-0.02928,-0.02928,-0.01952,-0.04392,-0.03904,-0.04392
-0.02928,0.0122,0.00488,0.01952,0.03416,-0.03172,-0.02928,-0.02928,-0.01952,-0.04392,-0.03904,-0.0488
-0.02928,0.00976,0.00976,0.0244,0.03904,-0.03416,-0.0244,-0.01952,-0.01952,-0.02928,-0.03416,-0.0488
-0.0244,0.00732,0.00976,0.02196,0.03416,-0.02928,-0.01952,-0.01952,-0.01952,-0.02928,-0.02928,-0.0488
-0.0244,0.0122,0,0.0122,0.0244,-0.0244,-0.0244,-0.03416,-0.01952,-0.03904,-0.03904,-0.05368
-0.0244,0.0122,0,0.0122,0.0244,-0.0244,-0.0244,-0.02928,-0.01952,-0.03904,-0.03904,-0.05368
-0.02928,0.01464,0,0.01464,0.02928,-0.02928,-0.0244,-0.03416,-0.01952,-0.03904,-0.03904,-0.04392
-0.02928,0.01708,-0.00488,0.00976,0.0244,-0.02684,-0.0244,-0.03416,-0.01952,-0.03904,-0.03904,-0.0488
-0.0244,0.0122,0,0.0122,0.0244,-0.0244,-0.0244,-0.03904,-0.0244,-0.03904,-0.03904,-0.0488
-0.0244,0.0122,0,0.0122,0.0244,-0.0244,-0.0244,-0.03416,-0.0244,-0.03904,-0.03904,-0.05368
-0.03904,0.02684,-0.01464,0.00488,0.0244,-0.03172,-0.01952,-0.0244,-0.01464,-0.03904,-0.03416,-0.03904
-0.03904,0.02684,-0.01464,0.00488,0.0244,-0.03172,-0.01952,-0.0244,-0.01464,-0.03904,-0.03416,-0.0488
-0.03904,0.02684,-0.01464,0.00488,0.0244,-0.03172,-0.01464,-0.02928,-0.01464,-0.04392,-0.03416,-0.0488
-0.03904,0.02684,-0.01464,0.00488,0.0244,-0.03172,-0.01952,-0.03416,-0.01464,-0.04392,-0.03416,-0.0488
-0.03904,0.02684,-0.01464,0.00488,0.0244,-0.03172,-0.00976,-0.02928,-0.00488,-0.03416,-0.0244,-0.03904
-0.03904,0.02684,-0.01464,0.00488,0.0244,-0.03172,-0.00976,-0.02928,-0.00488,-0.03904,-0.0244,-0.03904
-0.05368,0.04392,-0.03416,-0.00732,0.01952,-0.0366,-0.01464,-0.01952,-0.01952,-0.0488,-0.02928,-0.03904
-0.0488,0.04148,-0.03416,-0.00976,0.01464,-0.03172,-0.01464,-0.0244,-0.01464,-0.0488,-0.03904,-0.03904
-0.05856,0.0488,-0.03904,-0.00976,0.01952,-0.03904,-0.01464,-0.0244,-0.01464,-0.0488,-0.0488,-0.03904
-0.06344,0.05124,-0.03904,-0.00732,0.0244,-0.04392,-0.01464,-0.02928,-0.01464,-0.0488,-0.0488,-0.03904
-0.06344,0.05124,-0.03904,-0.00732,0.0244,-0.04392,-0.00488,-0.0244,-0.01464,-0.0488,-0.03904,-0.0488
-0.06344,0.05124,-0.03904,-0.00732,0.0244,-0.04392,0,-0.0244,-0.01464,-0.0488,-0.03904,-0.05368
-0.06344,0.05368,-0.04392,-0.0122,0.01952,-0.04148,-0.00488,-0.0244,-0.00976,-0.04392,-0.05368,-0.04392
-0.06344,0.05368,-0.04392,-0.0122,0.01952,-0.04148,-0.00488,-0.01952,-0.00976,-0.04392,-0.0488,-0.04392
-0.05856,0.05124,-0.04392,-0.01464,0.01464,-0.0366,0,-0.02928,-0.00488,-0.03904,-0.0488,-0.04392
-0.06344,0.05612,-0.0488,-0.01708,0.01464,-0.03904,-0.00488,-0.02928,-0.00976,-0.04392,-0.05856,-0.04392
-0.0488,0.0488,-0.0488,-0.0244,0,-0.0244,0,-0.0244,-0.00976,-0.04392,-0.04392,-0.04392
-0.04392,0.04392,-0.04392,-0.02196,0,-0.02196,0,-0.0244,-0.00488,-0.04392,-0.04392,-0.0488
-0.0488,0.04636,-0.04392,-0.01952,0.00488,-0.02684,0.00488,-0.01952,-0.01464,-0.04392,-0.03904,-0.03904
-0.05856,0.05368,-0.0488,-0.01952,0.00976,-0.03416,0.00488,-0.0244,-0.01464,-0.0488,-0.03904,-0.04392
-0.03904,0.0366,-0.03416,-0.01464,0.00488,-0.02196,0.00488,-0.0244,-0.01464,-0.04392,-0.02928,-0.04392
-0.0488,0.04636,-0.04392,-0.01952,0.00488,-0.02684,0.00488,-0.0244,-0.01464,-0.0488,-0.03904,-0.04392
-0.04392,0.04148,-0.03904,-0.01708,0.00488,-0.0244,0,-0.02928,-0.01464,-0.05368,-0.03904,-0.05368
-0.05368,0.04636,-0.03904,-0.0122,0.01464,-0.03416,0.00488,-0.0244,-0.01464,-0.05368,-0.03416,-0.05368
-0.05368,0.05124,-0.0488,-0.02196,0.00488,-0.02928,0.00488,-0.0244,-0.01464,-0.05368,-0.03416,-0.0488
-0.05368,0.05368,-0.05368,-0.02684,0,-0.02684,0.00976,-0.0244,-0.01952,-0.05368,-0.03904,-0.0488
-0.0488,0.05612,-0.06344,-0.03904,-0.01464,-0.01708,0,-0.02928,-0.00976,-0.0488,-0.03904,-0.05856
-0.05368,0.05856,-0.06344,-0.0366,-0.00976,-0.02196,0.00488,-0.01952,-0.01464,-0.0488,-0.03904,-0.05856
-0.05368,0.05612,-0.05856,-0.03172,-0.00488,-0.0244,0.00488,-0.01464,-0.01464,-0.0488,-0.03416,-0.05368
-0.03904,0.03904,-0.03904,-0.01952,0,-0.01952,0,-0.01952,-0.01952,-0.05856,-0.02928,-0.05856
-0.0488,0.0488,-0.0488,-0.0244,0,-0.0244,0,-0.02928,-0.01952,-0.05856,-0.03904,-0.0488
-0.0488,0.0488,-0.0488,-0.0244,0,-0.0244,0,-0.02928,-0.01952,-0.05856,-0.0488,-0.0488
-0.05856,0.05856,-0.05856,-0.02928,0,-0.02928,0,-0.01952,-0.01952,-0.0488,-0.0488,-0.0488
-0.05856,0.05856,-0.05856,-0.02928,0,-0.02928,0,-0.01952,-0.01952,-0.0488,-0.0488,-0.0488
-0.05856,0.05368,-0.0488,-0.01952,0.00976,-0.03416,0.00976,-0.01952,-0.00976,-0.0488,-0.03904,-0.0488
-0.05856,0.05368,-0.0488,-0.01952,0.00976,-0.03416,0.00976,-0.01952,-0.00976,-0.0488,-0.03904,-0.0488
-0.05856,0.05856,-0.05856,-0.02928,0,-0.02928,0.00976,-0.01952,-0.00976,-0.0488,-0.0488,-0.0488
-0.05856,0.05856,-0.05856,-0.02928,0,-0.02928,0.00976,-0.01952,-0.00976,-0.0488,-0.0488,-0.0488
-0.05856,0.06344,-0.06832,-0.03904,-0.00976,-0.0244,0.00976,-0.01952,-0.01952,-0.0488,-0.03904,-0.0488
-0.05856,0.06344,-0.06832,-0.03904,-0.00976,-0.0244,0.00976,-0.01952,-0.01952,-0.0488,-0.03904,-0.0488
-0.05856,0.06344,-0.06832,-0.03904,-0.00976,-0.0244,0.00976,-0.01952,-0.01952,-0.0488,-0.03904,-0.0488
-0.05856,0.06344,-0.06832,-0.03904,-0.00976,-0.0244,0.00976,-0.01952,-0.01952,-0.0488,-0.03904,-0.0488
-0.05856,0.06344,-0.06832,-0.03904,-0.00976,-0.0244,0.00976,-0.01952,-0.01952,-0.0488,-0.03904,-0.05856
-0.05856,0.06344,-0.06832,-0.03904,-0.00976,-0.0244,0.00976,-0.01952,-0.01952,-0.0488,-0.03904,-0.05856
-0.05856,0.06832,-0.07808,-0.0488,-0.01952,-0.01952,0.00976,-0.01952,-0.00976,-0.03904,-0.03904,-0.0488
-0.05856,0.06832,-0.07808,-0.0488,-0.01952,-0.01952,0.00976,-0.01952,-0.00976,-0.03904,-0.03904,-0.0488
-0.06832,0.0732,-0.07808,-0.04392,-0.00976,-0.02928,0.00976,-0.02928,-0.01952,-0.0488,-0.0488,-0.0488
-0.06832,0.0732,-0.07808,-0.04392,-0.00976,-0.02928,0.00976,-0.02928,-0.01952,-0.0488,-0.0488,-0.0488
-0.05856,0.06344,-0.06832,-0.03904,-0.00976,-0.0244,0.00976,-0.01952,-0.00976,-0.03904,-0.03904,-0.0488
-0.05856,0.06344,-0.06832,-0.03904,-0.00976,-0.0244,0.00976,-0.01952,-0.00976,-0.03904,-0.03904,-0.0488
-0.05856,0.06832,-0.07808,-0.0488,-0.01952,-0.01952,0.00976,-0.01952,-0.01952,-0.0488,-0.03904,-0.05856
-0.05856,0.06832,-0.07808,-0.0488,-0.01952,-0.01952,0.00976,-0.01952,-0.01952,-0.05856,-0.03904,-0.05856
-0.06832,0.0732,-0.07808,-0.04392,-0.00976,-0.02928,0.00976,-0.01952,-0.01952,-0.0488,-0.03904,-0.05856
-0.06832,0.0732,-0.07808,-0.04392,-0.00976,-0.02928,0.00976,-0.01952,-0.01952,-0.0488,-0.03904,-0.05856
-0.06832,0.07808,-0.08784,-0.05368,-0.01952,-0.0244,0.01952,-0.01952,-0.00976,-0.0488,-0.03904,-0.0488
-0.06832,0.07808,-0.08784,-0.05368,-0.01952,-0.0244,0.01952,-0.01952,-0.00976,-0.0488,-0.03904,-0.0488
-0.05856,0.06832,-0.07808,-0.0488,-0.01952,-0.01952,0.00976,-0.01952,-0.00976,-0.03904,-0.03904,-0.0488
-0.05856,0.06832,-0.07808,-0.0488,-0.01952,-0.01952,0.00976,-0.01952,-0.00976,-0.03904,-0.03904,-0.0488
-0.05856,0.06344,-0.06832,-0.03904,-0.00976,-0.0244,0,-0.02928,-0.01952,-0.03904,-0.03904,-0.0488
-0.05856,0.06344,-0.06832,-0.03904,-0.00976,-0.0244,0,-0.02928,-0.01952,-0.03904,-0.03904,-0.0488
-0.0488,0.05368,-0.05856,-0.03416,-0.00976,-0.01952,0.00976,-0.01952,-0.00976,-0.03904,-0.02928,-0.03904
-0.0488,0.05368,-0.05856,-0.03416,-0.00976,-0.01952,0.00976,-0.01952,0,-0.03904,-0.02928,-0.03904
-0.0488,0.0488,-0.0488,-0.0244,0,-0.0244,0,-0.02928,0,-0.02928,-0.02928,-0.03904
-0.0488,0.0488,-0.0488,-0.0244,0,-0.0244,-0.00976,-0.03904,0,-0.02928,-0.02928,-0.03904
-0.05856,0.0488,-0.03904,-0.00976,0.01952,-0.03904,0,-0.03904,0.00976,-0.01952,-0.01952,-0.02928
-0.05856,0.0488,-0.03904,-0.00976,0.01952,-0.03904,0,-0.04392,0.01952,-0.01464,-0.00976,-0.0244
-0.05368,0.03172,-0.00976,0.01708,0.04392,-0.0488,0,-0.04392,0.02928,-0.00976,-0.00976,-0.0244
-0.0488,0.02684,-0.00488,0.01952,0.04392,-0.04636,0,-0.0488,0.04392,0.00488,0,-0.01952
-0.04392,0.01952,0.00488,0.02684,0.0488,-0.04636,-0.00976,-0.03416,0.03904,0.00488,0.00976,-0.01464
-0.02928,0.00976,0.00976,0.0244,0.03904,-0.03416,-0.00976,-0.03416,0.03904,0.01464,0.00976,-0.01464
-0.0244,0,0.0244,0.0366,0.0488,-0.0366,-0.01952,-0.04392,0.0488,0.01464,0.01464,-0.01464
-0.01952,-0.00244,0.0244,0.03416,0.04392,-0.03172,-0.02928,-0.04392,0.0488,0.00976,0.01464,-0.00976
-0.01952,0,0.01952,0.02928,0.03904,-0.02928,-0.05368,-0.05856,0.03416,0.00976,0.00488,-0.01464
-0.02928,0.00488,0.01952,0.03416,0.0488,-0.03904,-0.05856,-0.06344,0.03416,0.00976,0.00488,-0.00976
-0.0244,0.00244,0.01952,0.03172,0.04392,-0.03416,-0.07808,-0.0732,0.03416,0,0.01464,-0.00976
-0.03904,0.01952,0,0.01952,0.03904,-0.03904,-0.0732,-0.0732,0.0244,-0.00976,0,-0.01464
-0.02928,0.00976,0.00976,0.0244,0.03904,-0.03416,-0.0732,-0.08296,0.0244,-0.00488,0,-0.01952
-0.02928,0.0122,0.00488,0.01952,0.03416,-0.03172,-0.06832,-0.07808,0.0244,-0.01464,0,-0.01952
-0.01464,0.00488,0.00488,0.0122,0.01952,-0.01708,-0.06344,-0.07808,0.01952,-0.01464,-0.00488,-0.01952
-0.00976,-0.00244,0.01464,0.01952,0.0244,-0.01708,-0.06344,-0.08296,0.01952,-0.01464,0,-0.01464
-0.01464,0.00732,0,0.00732,0.01464,-0.01464,-0.06344,-0.06344,0.01464,-0.00976,-0.00488,-0.00488
-0.0244,0.01708,-0.00976,0.00244,0.01464,-0.01952,-0.05368,-0.06344,0.00488,-0.01464,-0.00488,-0.00488
-0.00976,0.00732,-0.00488,0,0.00488,-0.00732,-0.04392,-0.06344,-0.00976,-0.0244,-0.01464,-0.01952
-0.00976,0.00488,0,0.00488,0.00976,-0.00976,-0.03416,-0.06344,-0.00976,-0.0244,-0.01464,-0.01952
-0.01952,0.00488,0.00976,0.01952,0.02928,-0.0244,-0.03416,-0.06344,0,-0.01952,-0.00488,-0.01952
-0.01952,0.01708,-0.01464,-0.00488,0.00488,-0.0122,-0.01952,-0.05856,-0.00976,-0.02928,-0.01464,-0.02928
-0.02928,0.02684,-0.0244,-0.00976,0.00488,-0.01708,-0.0244,-0.0488,-0.02928,-0.04392,-0.03416,-0.05368
-0.01952,0.03904,-0.05856,-0.0488,-0.03904,0.00976,-0.01464,-0.03904,-0.0488,-0.06832,-0.05368,-0.0732
-0.02928,0.0488,-0.06832,-0.05368,-0.03904,0.00488,-0.00976,-0.02928,-0.05856,-0.0732,-0.06344,-0.06832
-0.01952,0.04148,-0.06344,-0.05368,-0.04392,0.0122,-0.00976,-0.02928,-0.05368,-0.0732,-0.05856,-0.06344
0,0.02928,-0.05856,-0.05856,-0.05856,0.02928,-0.00976,-0.03416,-0.05368,-0.0732,-0.05856,-0.06344
-0.01952,0.04392,-0.06832,-0.05856,-0.0488,0.01464,0,-0.02928,-0.06344,-0.07808,-0.06832,-0.0732
-0.01952,0.04636,-0.0732,-0.06344,-0.05368,0.01708,0.00488,-0.0244,-0.06344,-0.08784,-0.08296,-0.07808
-0.0244,0.05124,-0.07808,-0.06588,-0.05368,0.01464,0.00976,-0.0244,-0.05856,-0.08296,-0.07808,-0.07808
-0.0488,0.06344,-0.07808,-0.05368,-0.02928,-0.00976,0.00976,-0.0244,-0.06344,-0.08784,-0.0732,-0.07808
-0.05368,0.07076,-0.08784,-0.061,-0.03416,-0.00976,0.00976,-0.02928,-0.0732,-0.09272,-0.07808,-0.09272
-0.03904,0.05856,-0.07808,-0.05856,-0.03904,0,0.00488,-0.02928,-0.0732,-0.09272,-0.08784,-0.09272
-0.04392,0.06588,-0.08784,-0.06588,-0.04392,0,0.00488,-0.03416,-0.07808,-0.10248,-0.0976,-0.0976
-0.05368,0.07564,-0.0976,-0.07076,-0.04392,-0.00488,0.00488,-0.03904,-0.07808,-0.10248,-0.08784,-0.0976
-0.05368,0.0732,-0.09272,-0.06588,-0.03904,-0.00732,0.00488,-0.03904,-0.07808,-0.0976,-0.08296,-0.09272
-0.05368,0.0732,-0.09272,-0.06588,-0.03904,-0.00732,0.01464,-0.02928,-0.0732,-0.10736,-0.08296,-0.10248
-0.05368,0.07808,-0.10248,-0.07564,-0.0488,-0.00244,0.01464,-0.03416,-0.0732,-0.10248,-0.08296,-0.10248
-0.05368,0.0732,-0.09272,-0.06588,-0.03904,-0.00732,0.01464,-0.03416,-0.0732,-0.0976,-0.07808,-0.09272
-0.05368,0.07076,-0.08784,-0.061,-0.03416,-0.00976,0.01464,-0.02928,-0.06832,-0.09272,-0.07808,-0.09272
-0.03904,0.06344,-0.08784,-0.06832,-0.0488,0.00488,0.01952,-0.02928,-0.06344,-0.08784,-0.07808,-0.08784
-0.05368,0.08052,-0.10736,-0.08052,-0.05368,0,0.0244,-0.01464,-0.06344,-0.0976,-0.08784,-0.0976
-0.00488,0.08296,-0.16104,-0.1586,-0.15616,0.07564,0.05368,0.05368,-0.08784,-0.13664,-0.1464,-0.14152
0.0244,0.09272,-0.20984,-0.22204,-0.23424,0.12932,0.11712,0.18056,-0.10736,-0.15616,-0.18056,-0.18056
0.03904,0.07564,-0.19032,-0.20984,-0.22936,0.1342,0.13176,0.22936,0.01464,-0.05856,-0.11712,-0.1464
0.13664,-0.05612,-0.0244,-0.09272,-0.16104,0.14884,0.05368,0.16592,0.23424,0.20496,0.10248,0.04392
0.244,-0.22692,0.20984,0.08784,-0.03416,0.13908,-0.09272,0.06832,0.52704,0.59048,0.44896,0.37088
0.34648,-0.4026,0.45872,0.28548,0.11224,0.11712,-0.23424,-0.02928,0.8784,1.0492,0.83936,0.72224
0.47336,-0.56852,0.66368,0.427,0.19032,0.14152,-0.366,-0.10736,1.18096,1.45912,1.20048,1.02968
0.51728,-0.70272,0.88816,0.62952,0.37088,0.0732,-0.47336,-0.20984,1.4884,1.83,1.50304,1.28344
0.50752,-0.7686,1.02968,0.77592,0.52216,-0.00732,-0.50264,-0.25864,1.71288,2.09352,1.68848,1.44448
0.46848,-0.78812,1.10776,0.87352,0.63928,-0.0854,-0.57096,-0.40016,1.62016,2.05936,1.72264,1.49816
0.27816,-0.7808,1.28344,1.14436,1.00528,-0.36356,-0.62952,-0.63928,1.46888,1.88368,1.68848,1.50304
0.0732,-0.6588,1.2444,1.2078,1.1712,-0.549,-0.5856,-0.7076,0.91744,1.27856,1.33712,1.28832
-0.06344,-0.48556,1.03456,1.06628,1.098,-0.58072,-0.49288,-0.66856,0.16592,0.47824,0.84424,0.93696
-0.11224,-0.30256,0.71736,0.77348,0.8296,-0.47092,-0.366,-0.51728,-0.34648,-0.05856,0.40504,0.58072
-0.122,-0.16104,0.44408,0.50508,0.56608,-0.34404,-0.2196,-0.35136,-0.61488,-0.3904,0.08784,0.27816
-0.1464,-0.04392,0.23424,0.30744,0.38064,-0.26352,-0.08784,-0.15616,-0.66856,-0.49288,-0.08296,0.08784
-0.12688,0.06832,-0.00976,0.05368,0.11712,-0.122,0.06832,0.05856,-0.66856,-0.5368,-0.23424,-0.11712
-0.09272,0.13664,-0.18056,-0.1342,-0.08784,-0.00244,0.15128,0.21472,-0.5612,-0.46848,-0.28304,-0.20496
-0.03904,0.0976,-0.15616,-0.13664,-0.11712,0.03904,0.18056,0.28792,-0.40992,-0.34648,-0.21472,-0.17568
-0.02928,0.10492,-0.18056,-0.16592,-0.15128,0.061,0.21472,0.34648,-0.28792,-0.26352,-0.19032,-0.15616
0,0.05368,-0.10736,-0.10736,-0.10736,0.05368,0.18056,0.29768,-0.19032,-0.18056,-0.13664,-0.12688
-0.01464,0.05856,-0.10248,-0.09516,-0.08784,0.0366,0.12688,0.20984,-0.13176,-0.12688,-0.0976,-0.10248
-0.00976,0.05612,-0.10248,-0.0976,-0.09272,0.04148,0.10248,0.13664,-0.08784,-0.08784,-0.06832,-0.08296
-0.01952,0.05124,-0.08296,-0.0732,-0.06344,0.02196,0.08296,0.0976,-0.08784,-0.0976,-0.07808,-0.09272
-0.03904,0.061,-0.08296,-0.06344,-0.04392,0.00244,0.05856,0.06832,-0.08296,-0.09272,-0.08784,-0.08784
-0.01464,0.04392,-0.0732,-0.06588,-0.05856,0.02196,0.0244,0.0244,-0.0732,-0.08784,-0.08296,-0.08784
-0.03904,0.05612,-0.0732,-0.05368,-0.03416,-0.00244,0.0244,-0.01464,-0.06344,-0.07808,-0.06832,-0.0732
-0.0488,0.061,-0.0732,-0.0488,-0.0244,-0.0122,0.01464,-0.0244,-0.05856,-0.07808,-0.0732,-0.0732
-0.0488,0.05856,-0.06832,-0.04392,-0.01952,-0.01464,0.00976,-0.02928,-0.05856,-0.08296,-0.07808,-0.0732
-0.0488,0.061,-0.0732,-0.0488,-0.0244,-0.0122,0.00976,-0.02928,-0.05856,-0.07808,-0.0732,-0.0732
-0.03904,0.05612,-0.0732,-0.05368,-0.03416,-0.00244,0.00488,-0.03904,-0.04392,-0.06832,-0.0732,-0.06832
-0.04392,0.05856,-0.0732,-0.05124,-0.02928,-0.00732,0,-0.04392,-0.04392,-0.06832,-0.06832,-0.06832
-0.0488,0.05856,-0.06832,-0.04392,-0.01952,-0.01464,0,-0.03904,-0.0488,-0.06832,-0.0732,-0.06832
-0.0488,0.061,-0.0732,-0.0488,-0.0244,-0.0122,-0.00488,-0.03904,-0.0488,-0.0732,-0.07808,-0.06832
-0.03904,0.0488,-0.05856,-0.03904,-0.01952,-0.00976,0.00488,-0.0488,-0.0488,-0.07808,-0.0732,-0.06832
-0.03904,0.0488,-0.05856,-0.03904,-0.01952,-0.00976,0.00488,-0.0488,-0.04392,-0.0732,-0.0732,-0.06344
-0.0488,0.05856,-0.06832,-0.04392,-0.01952,-0.01464,0.00488,-0.03904,-0.04392,-0.05856,-0.0732,-0.06344
-0.03904,0.05368,-0.06832,-0.0488,-0.02928,-0.00488,0.00976,-0.03904,-0.04392,-0.05856,-0.0732,-0.06344
-0.03416,0.05612,-0.07808,-0.061,-0.04392,0.00488,-0.00488,-0.05368,-0.04392,-0.06832,-0.06832,-0.0732
-0.03416,0.05612,-0.07808,-0.061,-0.04392,0.00488,-0.00488,-0.05368,-0.04392,-0.06832,-0.05856,-0.0732
-0.03904,0.05612,-0.0732,-0.05368,-0.03416,-0.00244,0.00488,-0.03904,-0.03416,-0.06832,-0.05368,-0.06344
-0.03416,0.05124,-0.06832,-0.05124,-0.03416,0,0.00976,-0.03904,-0.03416,-0.05856,-0.05368,-0.06344
-0.03416,0.0488,-0.06344,-0.04636,-0.02928,-0.00244,0.00976,-0.03904,-0.03416,-0.06832,-0.06344,-0.0732
-0.02928,0.04392,-0.05856,-0.04392,-0.02928,0,0.00976,-0.03904,-0.03416,-0.05856,-0.05856,-0.06832
-0.03904,0.0488,-0.05856,-0.03904,-0.01952,-0.00976,-0.00488,-0.0488,-0.04392,-0.06344,-0.06344,-0.06344
-0.03904,0.0488,-0.05856,-0.03904,-0.01952,-0.00976,-0.00488,-0.04392,-0.04392,-0.06344,-0.06344,-0.05856
-0.04392,0.05368,-0.06344,-0.04148,-0.01952,-0.0122,0.00488,-0.03904,-0.04392,-0.0732,-0.06344,-0.06344
-0.0488,0.05856,-0.06832,-0.04392,-0.01952,-0.01464,0.00488,-0.03416,-0.04392,-0.06832,-0.06344,-0.05856
-0.04392,0.05856,-0.0732,-0.05124,-0.02928,-0.00732,0.00488,-0.03416,-0.03904,-0.06344,-0.05856,-0.0488
-0.02928,0.05124,-0.0732,-0.05856,-0.04392,0.00732,0.00488,-0.03416,-0.03416,-0.0488,-0.05368,-0.04392
-0.0244,0.04636,-0.06832,-0.05612,-0.04392,0.00976,-0.00488,-0.03416,-0.03416,-0.0488,-0.0488,-0.04392
-0.0244,0.04636,-0.06832,-0.05612,-0.04392,0.00976,0,-0.03416,-0.03416,-0.0488,-0.05368,-0.04392
-0.03416,0.05368,-0.0732,-0.05612,-0.03904,0.00244,0.00976,-0.02928,-0.02928,-0.0488,-0.04392,-0.03416
-0.03904,0.05856,-0.07808,-0.05856,-0.03904,0,0.00976,-0.02928,-0.03904,-0.0488,-0.03904,-0.02928
-0.03416,0.05612,-0.07808,-0.061,-0.04392,0.00488,0.00488,-0.03904,-0.02928,-0.0488,-0.03904,-0.0244
-0.02928,0.05124,-0.0732,-0.05856,-0.04392,0.00732,0.00488,-0.03904,-0.02928,-0.04392,-0.03904,-0.02928
-0.01952,0.0488,-0.07808,-0.06832,-0.05856,0.01952,-0.00976,-0.04392,-0.03904,-0.05368,-0.03904,-0.01952
-0.01952,0.0488,-0.07808,-0.06832,-0.05856,0.01952,-0.00488,-0.03904,-0.03904,-0.0488,-0.04392,-0.01464
-0.01464,0.03904,-0.06344,-0.05612,-0.0488,0.01708,-0.00488,-0.03904,-0.04392,-0.0488,-0.03904,-0.01464
-0.00976,0.0366,-0.06344,-0.05856,-0.05368,0.02196,-0.00976,-0.03904,-0.04392,-0.0488,-0.03904,-0.00976
-0.01952,0.03904,-0.05856,-0.0488,-0.03904,0.00976,-0.00976,-0.04392,-0.03416,-0.0488,-0.03416,-0.00976
-0.01952,0.04148,-0.06344,-0.05368,-0.04392,0.0122,-0.00976,-0.04392,-0.02928,-0.0488,-0.03416,-0.00976
-0.00488,0.03416,-0.06344,-0.061,-0.05856,0.02684,-0.00976,-0.03416,-0.03416,-0.04392,-0.03416,-0.00488
-0.00488,0.03172,-0.05856,-0.05612,-0.05368,0.0244,-0.01464,-0.03416,-0.03416,-0.04392,-0.03904,-0.00488
-0.00976,0.03904,-0.06832,-0.06344,-0.05856,0.0244,-0.0244,-0.0488,-0.0244,-0.0488,-0.03904,-0.01464
-0.00488,0.03416,-0.06344,-0.061,-0.05856,0.02684,-0.01952,-0.0488,-0.0244,-0.0488,-0.03416,0
-0.00488,0.03416,-0.06344,-0.061,-0.05856,0.02684,-0.01952,-0.03904,-0.0244,-0.04392,-0.02928,0.00976
-0.00488,0.02928,-0.05368,-0.05124,-0.0488,0.02196,-0.01952,-0.03904,-0.0244,-0.03904,-0.01464,0.00976
0,0.02196,-0.04392,-0.04392,-0.04392,0.02196,-0.03416,-0.05368,-0.02928,-0.03416,-0.01464,0.00488
0.00976,0.01708,-0.04392,-0.0488,-0.05368,0.03172,-0.03416,-0.0488,-0.02928,-0.03416,-0.00976,0.01464
0.00976,0.0122,-0.03416,-0.03904,-0.04392,0.02684,-0.03416,-0.0488,-0.03416,-0.0244,-0.00488,0.0244
0.00976,0.00976,-0.02928,-0.03416,-0.03904,0.0244,-0.0488,-0.05368,-0.03416,-0.01952,-0.00488,0.0244
0.01464,0.00976,-0.03416,-0.04148,-0.0488,0.03172,-0.03904,-0.0488,-0.04392,-0.0244,0,0.02928
0.00488,0.01464,-0.03416,-0.0366,-0.03904,0.02196,-0.03904,-0.0488,-0.04392,-0.0244,0,0.03904
0.02928,-0.00244,-0.0244,-0.03904,-0.05368,0.04148,-0.04392,-0.05368,-0.0488,-0.01464,0.00976,0.05856
0.03416,-0.00732,-0.01952,-0.0366,-0.05368,0.04392,-0.05856,-0.05856,-0.05368,-0.01464,0.01464,0.05856
0.02928,-0.00488,-0.01952,-0.03416,-0.0488,0.03904,-0.06832,-0.05856,-0.05368,-0.01952,0.01952,0.06344
0.03416,-0.0122,-0.00976,-0.02684,-0.04392,0.03904,-0.0732,-0.06344,-0.05368,-0.01952,0.01952,0.06832
0.04392,-0.0244,0.00488,-0.01708,-0.03904,0.04148,-0.07808,-0.06344,-0.04392,-0.00976,0.0244,0.07808
0.0488,-0.02684,0.00488,-0.01952,-0.04392,0.04636,-0.07808,-0.06344,-0.0488,-0.00488,0.02928,0.08296
0.05856,-0.04392,0.02928,0,-0.02928,0.04392,-0.08784,-0.06344,-0.03904,-0.00488,0.04392,0.08784
0.05368,-0.03904,0.0244,-0.00244,-0.02928,0.04148,-0.09272,-0.06832,-0.03904,0.01464,0.05856,0.10248
0.05368,-0.03904,0.0244,-0.00244,-0.02928,0.04148,-0.09272,-0.08296,-0.04392,0.00976,0.05368,0.11224
0.05856,-0.0488,0.03904,0.00976,-0.01952,0.03904,-0.0976,-0.08784,-0.04392,0.00976,0.05856,0.11712
0.05856,-0.04392,0.02928,0,-0.02928,0.04392,-0.10736,-0.07808,-0.02928,0.0244,0.0732,0.12688
0.05856,-0.05368,0.0488,0.01952,-0.00976,0.03416,-0.10736,-0.08296,-0.02928,0.02928,0.08296,0.13176
0.0732,-0.06344,0.05368,0.01708,-0.01952,0.04636,-0.11224,-0.09272,-0.0244,0.03416,0.08296,0.13176
0.0732,-0.06832,0.06344,0.02684,-0.00976,0.04148,-0.11712,-0.0976,-0.01952,0.04392,0.09272,0.14152
0.0732,-0.06832,0.06344,0.02684,-0.00976,0.04148,-0.12688,-0.10248,-0.01952,0.0488,0.08296,0.1464
0.0732,-0.07076,0.06832,0.03172,-0.00488,0.03904,-0.122,-0.0976,-0.00976,0.05856,0.0976,0.15616
0.08296,-0.08052,0.07808,0.0366,-0.00488,0.04392,-0.12688,-0.10248,0,0.06344,0.09272,0.15616
0.09272,-0.08784,0.08296,0.0366,-0.00976,0.05124,-0.12688,-0.10248,0,0.06344,0.10248,0.15616
0.08296,-0.08052,0.07808,0.0366,-0.00488,0.04392,-0.11712,-0.0976,0,0.06344,0.10248,0.15128
0.0732,-0.0732,0.0732,0.0366,0,0.0366,-0.11712,-0.0976,0.00976,0.06832,0.10248,0.15128
0.0732,-0.07564,0.07808,0.04148,0.00488,0.03416,-0.11712,-0.08784,0.02928,0.06832,0.09272,0.14152
0.0732,-0.07808,0.08296,0.04636,0.00976,0.03172,-0.10736,-0.08296,0.03904,0.06832,0.08784,0.13664
0.0488,-0.05368,0.05856,0.03416,0.00976,0.01952,-0.10248,-0.09272,0.03416,0.06832,0.08784,0.11712
0.04392,-0.0488,0.05368,0.03172,0.00976,0.01708,-0.0976,-0.09272,0.03416,0.05856,0.07808,0.10736
0.04392,-0.04636,0.0488,0.02684,0.00488,0.01952,-0.09272,-0.0976,0.04392,0.05856,0.06832,0.11224
0.03416,-0.03904,0.04392,0.02684,0.00976,0.0122,-0.08784,-0.0976,0.04392,0.05368,0.05856,0.10248
0.02928,-0.03172,0.03416,0.01952,0.00488,0.0122,-0.0732,-0.08784,0.04392,0.04392,0.0488,0.07808
0.0244,-0.02684,0.02928,0.01708,0.00488,0.00976,-0.06832,-0.08784,0.04392,0.03904,0.03416,0.06832
0.0244,-0.0244,0.0244,0.0122,0,0.0122,-0.05856,-0.08784,0.04392,0.03416,0.0244,0.05856
0.01952,-0.01708,0.01464,0.00488,-0.00488,0.0122,-0.05368,-0.08296,0.04392,0.0244,0.01464,0.0488
0.00488,-0.00976,0.01464,0.0122,0.00976,-0.00244,-0.05368,-0.07808,0.02928,0.01464,0.00976,0.03904
0.00488,-0.00488,0.00488,0.00244,0,0.00244,-0.04392,-0.07808,0.02928,0.00488,0,0.0244
-0.00488,0.00244,0,0.00244,0.00488,-0.00488,-0.04392,-0.07808,0.01952,0,-0.00976,0.01952
-0.00488,0.00244,0,0.00244,0.00488,-0.00488,-0.03904,-0.07808,0.01952,-0.00488,-0.01464,0.0244
-0.01464,0.01708,-0.01952,-0.0122,-0.00488,-0.00488,-0.03416,-0.06344,0.0244,-0.01464,-0.01952,0.01464
-0.01464,0.01952,-0.0244,-0.01708,-0.00976,-0.00244,-0.03416,-0.06344,0.01464,-0.00976,-0.01952,0.00976
-0.01464,0.01708,-0.01952,-0.0122,-0.00488,-0.00488,-0.01952,-0.06344,0.01464,-0.01464,-0.02928,0.00488
0,0.00732,-0.01464,-0.01464,-0.01464,0.00732,-0.01952,-0.06344,0.00976,-0.01464,-0.0244,0.00976
-0.00976,0.01952,-0.02928,-0.0244,-0.01952,0.00488,-0.01464,-0.05856,0.00976,-0.00488,-0.02928,0.00488
-0.01952,0.02928,-0.03904,-0.02928,-0.01952,0,-0.01464,-0.05856,0.00976,-0.00976,-0.02928,0.00488
-0.01952,0.02928,-0.03904,-0.02928,-0.01952,0,-0.0244,-0.05856,-0.00488,-0.01952,-0.03416,-0.00488
-0.0244,0.02928,-0.03416,-0.02196,-0.00976,-0.00732,-0.0244,-0.06344,-0.00976,-0.0244,-0.03416,-0.00976
-0.0244,0.0244,-0.0244,-0.0122,0,-0.0122,-0.0244,-0.06344,0,-0.01464,-0.03416,-0.00976
-0.0244,0.0244,-0.0244,-0.0122,0,-0.0122,-0.01952,-0.05856,0,-0.01464,-0.03416,-0.00976
-0.03416,0.02928,-0.0244,-0.00732,0.00976,-0.02196,-0.01952,-0.05856,-0.00488,-0.02928,-0.03904,-0.00488
-0.03416,0.03172,-0.02928,-0.0122,0.00488,-0.01952,-0.01952,-0.05856,-0.00488,-0.02928,-0.03904,-0.01464
-0.02928,0.03172,-0.03416,-0.01952,-0.00488,-0.0122,-0.01952,-0.05856,-0.00488,-0.02928,-0.0488,-0.00976
-0.02928,0.03416,-0.03904,-0.0244,-0.00976,-0.00976,-0.01952,-0.06832,-0.00488,-0.03416,-0.0488,-0.00976
-0.03416,0.0366,-0.03904,-0.02196,-0.00488,-0.01464,-0.01952,-0.05856,-0.00488,-0.02928,-0.03904,0
-0.02928,0.03172,-0.03416,-0.01952,-0.00488,-0.0122,-0.01952,-0.05856,-0.00488,-0.02928,-0.03904,0
-0.0244,0.02928,-0.03416,-0.02196,-0.00976,-0.00732,-0.01952,-0.05856,-0.00488,-0.01952,-0.02928,-0.01464
-0.03416,0.03416,-0.03416,-0.01708,0,-0.01708,-0.01952,-0.06344,-0.00488,-0.01952,-0.02928,-0.01464
-0.02928,0.03172,-0.03416,-0.01952,-0.00488,-0.0122,-0.01952,-0.06344,-0.00488,-0.01952,-0.03904,-0.01464
-0.02928,0.0366,-0.04392,-0.02928,-0.01464,-0.00732,-0.01952,-0.06344,-0.00488,-0.01952,-0.03904,-0.00976
-0.0244,0.03416,-0.04392,-0.03172,-0.01952,-0.00244,-0.01952,-0.06344,0,-0.01952,-0.03416,-0.00488
-0.02928,0.03904,-0.0488,-0.03416,-0.01952,-0.00488,-0.01952,-0.06344,0,-0.01952,-0.03416,-0.00976
-0.02928,0.0366,-0.04392,-0.02928,-0.01464,-0.00732,-0.01952,-0.06344,-0.00976,-0.0244,-0.04392,-0.01464
-0.02928,0.02928,-0.02928,-0.01464,0,-0.01464,-0.01952,-0.06344,-0.00976,-0.0244,-0.04392,-0.01464
-0.02928,0.03172,-0.03416,-0.01952,-0.00488,-0.0122,-0.01952,-0.06344,0,-0.0244,-0.03416,-0.01464
-0.02928,0.02928,-0.02928,-0.01464,0,-0.01464,-0.01952,-0.05856,0,-0.0244,-0.03416,-0.01464
-0.0244,0.02684,-0.02928,-0.01708,-0.00488,-0.00976,-0.01952,-0.05856,-0.00488,-0.0244,-0.04392,-0.00488
-0.0244,0.02684,-0.02928,-0.01708,-0.00488,-0.00976,-0.01952,-0.05856,-0.01464,-0.02928,-0.04392,-0.00976
-0.0244,0.03416,-0.04392,-0.03172,-0.01952,-0.00244,-0.01952,-0.05856,-0.00488,-0.01952,-0.03416,-0.00976
-0.0244,0.03416,-0.04392,-0.03172,-0.01952,-0.00244,-0.01464,-0.05856,-0.00488,-0.01952,-0.03416,-0.00976
-0.01952,0.02196,-0.0244,-0.01464,-0.00488,-0.00732,-0.01952,-0.05856,-0.00488,-0.02928,-0.0244,-0.00976
-0.01952,0.0244,-0.02928,-0.01952,-0.00976,-0.00488,-0.01952,-0.05856,-0.00976,-0.02928,-0.0244,-0.00976
-0.01464,0.01952,-0.0244,-0.01708,-0.00976,-0.00244,-0.01952,-0.05856,0,-0.01952,-0.02928,-0.00976
-0.01464,0.01952,-0.0244,-0.01708,-0.00976,-0.00244,-0.01952,-0.05856,0,-0.01464,-0.02928,-0.00976
-0.01464,0.02684,-0.03904,-0.03172,-0.0244,0.00488,-0.03416,-0.06832,0,-0.0244,-0.03904,-0.01464
-0.01464,0.02684,-0.03904,-0.03172,-0.0244,0.00488,-0.03416,-0.06832,-0.00976,-0.0244,-0.03904,-0.01464
-0.01464,0.01952,-0.0244,-0.01708,-0.00976,-0.00244,-0.0244,-0.05856,-0.00488,-0.03416,-0.03416,-0.01952
-0.01464,0.01952,-0.0244,-0.01708,-0.00976,-0.00244,-0.0244,-0.05856,0,-0.02928,-0.03416,-0.01952
-0.00488,0.01464,-0.0244,-0.02196,-0.01952,0.00732,-0.0244,-0.05856,0,-0.01952,-0.03416,-0.01952
0,0.0122,-0.0244,-0.0244,-0.0244,0.0122,-0.0244,-0.05856,0,-0.01952,-0.03416,-0.01464
-0.01464,0.0244,-0.03416,-0.02684,-0.01952,0.00244,-0.0244,-0.05856,-0.00488,-0.0244,-0.02928,-0.0244
-0.01952,0.02684,-0.03416,-0.0244,-0.01464,-0.00244,-0.03416,-0.05856,-0.00488,-0.0244,-0.02928,-0.01952
-0.00488,0.01952,-0.03416,-0.03172,-0.02928,0.0122,-0.02928,-0.05856,0,-0.01952,-0.01952,-0.00488
-0.00976,0.02196,-0.03416,-0.02928,-0.0244,0.00732,-0.02928,-0.05856,0,-0.00976,-0.01952,-0.00976
-0.00976,0.01464,-0.01952,-0.01464,-0.00976,0,-0.01464,-0.05856,0.00976,-0.00488,-0.01464,-0.00976
-0.00488,0.0122,-0.01952,-0.01708,-0.01464,0.00488,-0.00976,-0.05856,0.00976,-0.01464,-0.00976,-0.00976
-0.00488,0.01708,-0.02928,-0.02684,-0.0244,0.00976,-0.01464,-0.06344,0,-0.01952,-0.01952,-0.01464
-0.00488,0.01708,-0.02928,-0.02684,-0.0244,0.00976,-0.01464,-0.05856,0,-0.01952,-0.01952,-0.01464
-0.00976,0.0244,-0.03904,-0.03416,-0.02928,0.00976,-0.0244,-0.06344,0,-0.02928,-0.02928,-0.01464
-0.00976,0.02684,-0.04392,-0.03904,-0.03416,0.0122,-0.0244,-0.06344,0,-0.02928,-0.02928,-0.01952
-0.00488,0.02196,-0.03904,-0.0366,-0.03416,0.01464,-0.0244,-0.06832,0.00488,-0.01952,-0.02928,-0.01952
-0.00488,0.02196,-0.03904,-0.0366,-0.03416,0.01464,-0.0244,-0.06344,0.00488,-0.01952,-0.02928,-0.0244
-0.01952,0.02684,-0.03416,-0.0244,-0.01464,-0.00244,-0.00976,-0.05368,0.00488,-0.01952,-0.0244,-0.01952
-0.01952,0.02684,-0.03416,-0.0244,-0.01464,-0.00244,-0.00976,-0.05368,0.00488,-0.01952,-0.0244,-0.02928
-0.01952,0.02196,-0.0244,-0.01464,-0.00488,-0.00732,-0.0244,-0.05856,0.00488,-0.0244,-0.0244,-0.01952
-0.01952,0.02196,-0.0244,-0.01464,-0.00488,-0.00732,-0.02928,-0.06344,0.00488,-0.0244,-0.0244,-0.01952
-0.01464,0.01952,-0.0244,-0.01708,-0.00976,-0.00244,-0.02928,-0.05856,-0.00488,-0.0244,-0.0244,-0.02928
-0.00488,0.01464,-0.0244,-0.02196,-0.01952,0.00732,-0.02928,-0.05856,-0.00488,-0.02928,-0.0244,-0.02928
-0.01464,0.0244,-0.03416,-0.02684,-0.01952,0.00244,-0.0244,-0.05856,-0.00976,-0.03904,-0.03416,-0.02928
-0.00976,0.02196,-0.03416,-0.02928,-0.0244,0.00732,-0.0244,-0.06344,-0.00488,-0.03904,-0.03416,-0.02928
-0.01464,0.02196,-0.02928,-0.02196,-0.01464,0,-0.0244,-0.06832,-0.00488,-0.02928,-0.03904,-0.02928
-0.00976,0.01952,-0.02928,-0.0244,-0.01952,0.00488,-0.0244,-0.06344,-0.00488,-0.02928,-0.03904,-0.02928
-0.00488,0.01708,-0.02928,-0.02684,-0.0244,0.00976,-0.0244,-0.06344,0.00488,-0.02928,-0.03904,-0.02928
-0.00488,0.01708,-0.02928,-0.02684,-0.0244,0.00976,-0.01952,-0.06344,0.00488,-0.02928,-0.03904,-0.03416
-0.0244,0.03416,-0.04392,-0.03172,-0.01952,-0.00244,-0.0244,-0.06344,-0.00976,-0.03416,-0.04392,-0.03416
-0.0244,0.03416,-0.04392,-0.03172,-0.01952,-0.00244,-0.0244,-0.05856,-0.00976,-0.03416,-0.03904,-0.03416
-0.00976,0.02684,-0.04392,-0.03904,-0.03416,0.0122,-0.01952,-0.05856,-0.00488,-0.03904,-0.0488,-0.03416
-0.01464,0.03172,-0.0488,-0.04148,-0.03416,0.00976,-0.0244,-0.05856,-0.00976,-0.04392,-0.05856,-0.03416
-0.01952,0.02928,-0.03904,-0.02928,-0.01952,0,-0.01952,-0.06344,-0.00976,-0.03416,-0.04392,-0.03416
-0.01464,0.0244,-0.03416,-0.02684,-0.01952,0.00244,-0.01952,-0.06344,-0.00488,-0.03416,-0.04392,-0.03904
-0.01952,0.02684,-0.03416,-0.0244,-0.01464,-0.00244,-0.0244,-0.06832,-0.00488,-0.03416,-0.0488,-0.03904
-0.02928,0.03416,-0.03904,-0.0244,-0.00976,-0.00976,-0.0244,-0.0732,-0.00488,-0.03904,-0.0488,-0.04392
-0.02928,0.0366,-0.04392,-0.02928,-0.01464,-0.00732,-0.01464,-0.06344,-0.01464,-0.04392,-0.0488,-0.04392
-0.03904,0.04636,-0.05368,-0.03416,-0.01464,-0.0122,-0.01464,-0.06344,-0.01464,-0.0488,-0.05856,-0.04392
-0.01952,0.03416,-0.0488,-0.03904,-0.02928,0.00488,-0.01952,-0.05856,-0.01464,-0.04392,-0.05856,-0.04392
-0.01952,0.03416,-0.0488,-0.03904,-0.02928,0.00488,-0.01464,-0.05368,-0.01464,-0.04392,-0.05368,-0.04392
-0.01464,0.03172,-0.0488,-0.04148,-0.03416,0.00976,-0.01464,-0.05368,-0.00488,-0.04392,-0.05368,-0.0488
-0.01464,0.03416,-0.05368,-0.04636,-0.03904,0.0122,-0.00976,-0.05368,-0.00976,-0.04392,-0.05856,-0.0488
-0.02928,0.0366,-0.04392,-0.02928,-0.01464,-0.00732,-0.01952,-0.06832,-0.00976,-0.0488,-0.05856,-0.05856
-0.03416,0.03904,-0.04392,-0.02684,-0.00976,-0.0122,-0.01464,-0.05856,-0.01464,-0.0488,-0.05856,-0.05856
-0.0244,0.03172,-0.03904,-0.02684,-0.01464,-0.00488,-0.01464,-0.06344,-0.01464,-0.0488,-0.06344,-0.05368
-0.01952,0.03416,-0.0488,-0.03904,-0.02928,0.00488,-0.01952,-0.05856,-0.00976,-0.0488,-0.05856,-0.0488
-0.01952,0.03416,-0.0488,-0.03904,-0.02928,0.00488,-0.01952,-0.05856,-0.01952,-0.0488,-0.05856,-0.05856
-0.01952,0.03416,-0.0488,-0.03904,-0.02928,0.00488,-0.01952,-0.05856,-0.01952,-0.0488,-0.05856,-0.05856
-0.02928,0.03904,-0.0488,-0.03416,-0.01952,-0.00488,-0.01952,-0.06832,-0.01952,-0.0488,-0.05856,-0.0488
-0.02928,0.03904,-0.0488,-0.03416,-0.01952,-0.00488,-0.01952,-0.06832,-0.01952,-0.0488,-0.05856,-0.0488
-0.02928,0.03416,-0.03904,-0.0244,-0.00976,-0.00976,-0.00976,-0.06832,-0.01952,-0.03904,-0.05856,-0.0488
-0.02928,0.03416,-0.03904,-0.0244,-0.00976,-0.00976,-0.00976,-0.06832,-0.01952,-0.03904,-0.05856,-0.0488
-0.01952,0.03416,-0.0488,-0.03904,-0.02928,0.00488,-0.00976,-0.05856,-0.01952,-0.0488,-0.05856,-0.0488
-0.01952,0.03904,-0.05856,-0.0488,-0.03904,0.00976,-0.00976,-0.05856,-0.01952,-0.0488,-0.05856,-0.0488
-0.02928,0.03904,-0.0488,-0.03416,-0.01952,-0.00488,-0.01952,-0.06832,-0.01952,-0.03904,-0.05856,-0.0488
-0.02928,0.03904,-0.0488,-0.03416,-0.01952,-0.00488,-0.01952,-0.06832,-0.01952,-0.03904,-0.05856,-0.0488
-0.03904,0.0488,-0.05856,-0.03904,-0.01952,-0.00976,-0.01952,-0.06832,-0.02928,-0.0488,-0.05856,-0.05856
-0.03904,0.0488,-0.05856,-0.03904,-0.01952,-0.00976,-0.01952,-0.06832,-0.02928,-0.0488,-0.05856,-0.05856
-0.02928,0.03904,-0.0488,-0.03416,-0.01952,-0.00488,-0.00976,-0.05856,-0.01952,-0.0488,-0.06832,-0.0488
-0.02928,0.03904,-0.0488,-0.03416,-0.01952,-0.00488,0,-0.05856,-0.01952,-0.0488,-0.06832,-0.0488
-0.02928,0.03416,-0.03904,-0.0244,-0.00976,-0.00976,-0.00976,-0.05856,-0.01952,-0.0488,-0.06832,-0.05856
-0.02928,0.03416,-0.03904,-0.0244,-0.00976,-0.00976,-0.00976,-0.05856,-0.01952,-0.0488,-0.06832,-0.05856
-0.03904,0.04392,-0.0488,-0.02928,-0.00976,-0.01464,-0.00976,-0.06832,-0.01952,-0.0488,-0.06832,-0.05856
-0.0488,0.05368,-0.05856,-0.03416,-0.00976,-0.01952,-0.00976,-0.06832,-0.01952,-0.0488,-0.06832,-0.05856
-0.03904,0.0488,-0.05856,-0.03904,-0.01952,-0.00976,-0.00976,-0.05856,-0.01952,-0.0488,-0.05856,-0.05856
-0.03904,0.0488,-0.05856,-0.03904,-0.01952,-0.00976,-0.00976,-0.05856,-0.01952,-0.0488,-0.05856,-0.05856
-0.03904,0.0488,-0.05856,-0.03904,-0.01952,-0.00976,0,-0.05856,-0.01952,-0.05856,-0.05856,-0.05856
-0.03904,0.0488,-0.05856,-0.03904,-0.01952,-0.00976,0,-0.05856,-0.01952,-0.05856,-0.05856,-0.05856
-0.03904,0.04392,-0.0488,-0.02928,-0.00976,-0.01464,-0.00976,-0.05856,-0.02928,-0.05856,-0.06832,-0.06832
-0.03904,0.04392,-0.0488,-0.02928,-0.00976,-0.01464,-0.00976,-0.05856,-0.02928,-0.05856,-0.06832,-0.06832
-0.02928,0.04392,-0.05856,-0.04392,-0.02928,0,-0.00976,-0.05856,-0.01952,-0.0488,-0.06832,-0.06832
-0.02928,0.04392,-0.05856,-0.04392,-0.02928,0,-0.00976,-0.05856,-0.01952,-0.0488,-0.06832,-0.06832
-0.03904,0.0488,-0.05856,-0.03904,-0.01952,-0.00976,-0.00976,-0.05856,-0.00976,-0.0488,-0.06832,-0.06832
-0.03904,0.0488,-0.05856,-0.03904,-0.01952,-0.00976,-0.00976,-0.05856,-0.00976,-0.0488,-0.06832,-0.06832
-0.03904,0.04392,-0.0488,-0.02928,-0.00976,-0.01464,-0.00976,-0.05856,-0.01952,-0.0488,-0.06832,-0.06832
-0.03904,0.04392,-0.0488,-0.02928,-0.00976,-0.01464,-0.00976,-0.05856,-0.01952,-0.0488,-0.06832,-0.06832
-0.03904,0.03904,-0.03904,-0.01952,0,-0.01952,-0.00976,-0.05856,-0.00976,-0.03904,-0.05856,-0.05856
-0.03904,0.03904,-0.03904,-0.01952,0,-0.01952,-0.00976,-0.05856,-0.00976,-0.03904,-0.05856,-0.05856
-0.02928,0.03416,-0.03904,-0.0244,-0.00976,-0.00976,-0.01952,-0.05856,0,-0.02928,-0.0488,-0.05856
-0.02928,0.03416,-0.03904,-0.0244,-0.00976,-0.00976,-0.01952,-0.05856,0,-0.02928,-0.0488,-0.05856
-0.02928,0.0244,-0.01952,-0.00488,0.00976,-0.01952,-0.01952,-0.06832,0.00976,-0.03416,-0.0488,-0.05856
-0.03416,0.02196,-0.00976,0.00732,0.0244,-0.02928,-0.01952,-0.0732,0.01464,-0.03416,-0.0488,-0.05368
-0.02928,0.01464,0,0.01464,0.02928,-0.02928,-0.01952,-0.06832,0.0244,-0.00976,-0.03416,-0.03904
-0.03416,0.01464,0.00488,0.02196,0.03904,-0.0366,-0.0244,-0.06832,0.03904,-0.00488,-0.02928,-0.02928
-0.02928,0.0122,0.00488,0.01952,0.03416,-0.03172,-0.01952,-0.06344,0.0488,0,-0.02928,-0.0244
-0.01464,0.00244,0.00976,0.01708,0.0244,-0.01952,-0.0244,-0.06344,0.0488,0.00488,-0.0244,-0.0244
-0.00976,-0.00244,0.01464,0.01952,0.0244,-0.01708,-0.03416,-0.05368,0.03904,0,-0.0244,-0.02928
0,-0.00976,0.01952,0.01952,0.01952,-0.00976,-0.05368,-0.06832,0.03416,0,-0.0244,-0.02928
-0.00976,-0.00732,0.0244,0.02928,0.03416,-0.02196,-0.06832,-0.08784,0.03416,0,-0.0244,-0.03416
-0.00488,-0.0122,0.02928,0.03172,0.03416,-0.01952,-0.0732,-0.0976,0.03416,0,-0.0244,-0.02928
-0.01464,-0.00244,0.01952,0.02684,0.03416,-0.0244,-0.08784,-0.10248,0.01952,-0.00488,-0.02928,-0.03416
-0.01952,0.00488,0.00976,0.01952,0.02928,-0.0244,-0.08296,-0.10248,0.01464,-0.00976,-0.02928,-0.03416
-0.00976,-0.00244,0.01464,0.01952,0.0244,-0.01708,-0.0732,-0.10248,0.00488,-0.01464,-0.03904,-0.03904
-0.00976,-0.00244,0.01464,0.01952,0.0244,-0.01708,-0.06832,-0.0976,0,-0.0244,-0.03416,-0.03904
-0.00488,-0.00976,0.0244,0.02684,0.02928,-0.01708,-0.0732,-0.09272,0.00976,-0.01464,-0.02928,-0.03416
0.00488,-0.01464,0.0244,0.02196,0.01952,-0.00732,-0.0732,-0.09272,0.01952,-0.01464,-0.02928,-0.03416
-0.01464,0.00732,0,0.00732,0.01464,-0.01464,-0.06832,-0.09272,0.00976,-0.0244,-0.03416,-0.03416
-0.00976,0.00976,-0.00976,-0.00488,0,-0.00488,-0.05856,-0.08784,0,-0.0244,-0.03904,-0.03904
-0.00976,0.01464,-0.01952,-0.01464,-0.00976,0,-0.03904,-0.0732,-0.00976,-0.0244,-0.04392,-0.03904
-0.00976,0.01464,-0.01952,-0.01464,-0.00976,0,-0.03416,-0.0732,-0.00976,-0.02928,-0.04392,-0.03904
-0.02928,0.02928,-0.02928,-0.01464,0,-0.01464,-0.02928,-0.06832,-0.00976,-0.01952,-0.04392,-0.02928
-0.01952,0.03416,-0.0488,-0.03904,-0.02928,0.00488,-0.01952,-0.06832,-0.0244,-0.03416,-0.05368,-0.0488
-0.00976,0.03416,-0.05856,-0.05368,-0.0488,0.01952,-0.00976,-0.05368,-0.0244,-0.04392,-0.06344,-0.05856
-0.01952,0.05612,-0.09272,-0.08296,-0.0732,0.02684,0,-0.04392,-0.04392,-0.06344,-0.08296,-0.07808
-0.0244,0.061,-0.0976,-0.0854,-0.0732,0.0244,0.00976,-0.02928,-0.0488,-0.06344,-0.07808,-0.0732
-0.00976,0.05124,-0.09272,-0.08784,-0.08296,0.0366,0.00976,-0.0244,-0.04392,-0.06344,-0.07808,-0.0732
-0.01464,0.05612,-0.0976,-0.09028,-0.08296,0.03416,0.00488,-0.03416,-0.04392,-0.05368,-0.08784,-0.07808
-0.01952,0.06588,-0.11224,-0.10248,-0.09272,0.0366,0.01464,-0.0244,-0.05368,-0.06832,-0.10248,-0.08784
-0.03416,0.0732,-0.11224,-0.09516,-0.07808,0.02196,0.01464,-0.0244,-0.05856,-0.0732,-0.0976,-0.0976
-0.04392,0.08052,-0.11712,-0.09516,-0.0732,0.01464,0.01952,-0.0244,-0.06344,-0.08784,-0.10248,-0.0976
-0.0488,0.08296,-0.11712,-0.09272,-0.06832,0.00976,0.01952,-0.03416,-0.06344,-0.08296,-0.11224,-0.122
-0.05368,0.09028,-0.12688,-0.10004,-0.0732,0.00976,0.0244,-0.03904,-0.06344,-0.08296,-0.11712,-0.122
-0.03904,0.0854,-0.13176,-0.11224,-0.09272,0.02684,0.03416,-0.03416,-0.07808,-0.10248,-0.13664,-0.12688
-0.04392,0.09028,-0.13664,-0.11468,-0.09272,0.0244,0.03416,-0.03416,-0.07808,-0.10248,-0.13664,-0.12688
-0.04392,0.08784,-0.13176,-0.1098,-0.08784,0.02196,0.03416,-0.02928,-0.07808,-0.09272,-0.12688,-0.11224
-0.03416,0.08296,-0.13176,-0.11468,-0.0976,0.03172,0.03416,-0.02928,-0.07808,-0.08784,-0.122,-0.11224
-0.05368,0.09272,-0.13176,-0.10492,-0.07808,0.0122,0.0244,-0.03416,-0.06344,-0.08296,-0.11224,-0.10248
-0.05368,0.09272,-0.13176,-0.10492,-0.07808,0.0122,0.0244,-0.03416,-0.06344,-0.08784,-0.10736,-0.10248
-0.06344,0.10248,-0.14152,-0.1098,-0.07808,0.00732,0.0244,-0.03416,-0.05856,-0.08784,-0.10736,-0.10248
-0.05856,0.0976,-0.13664,-0.10736,-0.07808,0.00976,0.01952,-0.02928,-0.05856,-0.08296,-0.11712,-0.0976
-0.00976,0.05612,-0.10248,-0.0976,-0.09272,0.04148,0.03416,-0.01464,-0.04392,-0.05856,-0.0976,-0.08784
-0.01952,0.08784,-0.15616,-0.1464,-0.13664,0.05856,0.05368,0.01464,-0.07808,-0.10248,-0.13176,-0.122
0.02928,0.0854,-0.20008,-0.21472,-0.22936,0.12932,0.08784,0.10736,-0.0976,-0.12688,-0.18056,-0.16104
0.04392,0.10248,-0.24888,-0.27084,-0.2928,0.16836,0.13176,0.20008,-0.06832,-0.122,-0.1952,-0.18056
0.08296,0.0488,-0.18056,-0.22204,-0.26352,0.17324,0.11224,0.20496,0.10736,0.0488,-0.07808,-0.09272
0.20496,-0.13176,0.05856,-0.04392,-0.1464,0.17568,-0.00488,0.11712,0.366,0.3904,0.24888,0.20008
0.3172,-0.30988,0.30256,0.14396,-0.01464,0.16592,-0.1464,0.01952,0.64904,0.79056,0.61,0.5368
0.43432,-0.49044,0.54656,0.3294,0.11224,0.16104,-0.2928,-0.06344,1.01992,1.2688,1.01016,0.88816
0.50752,-0.61488,0.72224,0.46848,0.21472,0.1464,-0.39528,-0.12688,1.30296,1.65432,1.33224,1.19072
0.52704,-0.72468,0.92232,0.6588,0.39528,0.06588,-0.4636,-0.22936,1.6104,1.99104,1.59088,1.38104
0.51728,-0.77348,1.02968,0.77104,0.5124,0.00244,-0.49776,-0.28304,1.68848,2.13256,1.72264,1.49816
0.39528,-0.7686,1.14192,0.94428,0.74664,-0.17568,-0.5612,-0.46848,1.55672,2.04472,1.72264,1.5372
0.17568,-0.71004,1.2444,1.15656,1.06872,-0.44652,-0.59048,-0.65392,1.33712,1.7324,1.57624,1.44936
-0.01464,-0.55876,1.13216,1.13948,1.1468,-0.58072,-0.53192,-0.68808,0.64416,0.94672,1.08336,1.11752
-0.11224,-0.36356,0.83936,0.89548,0.9516,-0.53192,-0.40504,-0.57096,-0.04392,0.24888,0.59048,0.73688
-0.14152,-0.19764,0.5368,0.60756,0.67832,-0.40992,-0.2196,-0.38064,-0.46848,-0.25376,0.15616,0.3416
-0.1464,-0.06588,0.27816,0.35136,0.42456,-0.28548,-0.11712,-0.22936,-0.64904,-0.45384,-0.06832,0.1464
-0.1464,0.05368,0.03904,0.11224,0.18544,-0.16592,0.00976,-0.03904,-0.68808,-0.56608,-0.25376,-0.07808
-0.11224,0.1464,-0.18056,-0.12444,-0.06832,-0.02196,0.16592,0.17568,-0.6588,-0.56608,-0.36112,-0.244
-0.06832,0.13908,-0.20984,-0.17568,-0.14152,0.0366,0.18544,0.25864,-0.5368,-0.44408,-0.31232,-0.22448
-0.03416,0.13664,-0.23912,-0.22204,-0.20496,0.0854,0.22448,0.33184,-0.38552,-0.33672,-0.27816,-0.21472
0.00976,0.0976,-0.20496,-0.20984,-0.21472,0.11224,0.21472,0.34648,-0.27328,-0.25376,-0.22936,-0.17568
0.00976,0.07564,-0.16104,-0.16592,-0.1708,0.09028,0.1708,0.2928,-0.20008,-0.19032,-0.19032,-0.15128
-0.00488,0.06832,-0.13176,-0.12932,-0.12688,0.061,0.14152,0.2196,-0.13664,-0.13176,-0.15128,-0.13176
-0.00976,0.07564,-0.14152,-0.13664,-0.13176,0.061,0.122,0.14152,-0.10736,-0.11712,-0.13664,-0.122
-0.02928,0.07808,-0.12688,-0.11224,-0.0976,0.03416,0.0732,0.0976,-0.08296,-0.0976,-0.13664,-0.11224
-0.01952,0.07808,-0.13664,-0.12688,-0.11712,0.0488,0.06344,0.07808,-0.07808,-0.09272,-0.122,-0.10736
-0.0244,0.06588,-0.10736,-0.09516,-0.08296,0.02928,0.06344,0.0488,-0.05856,-0.05856,-0.10736,-0.10248
-0.04392,0.07808,-0.11224,-0.09028,-0.06832,0.0122,0.0488,0.00488,-0.05856,-0.06832,-0.122,-0.10248
-0.03904,0.07808,-0.11712,-0.0976,-0.07808,0.01952,0.03904,-0.00488,-0.06832,-0.07808,-0.122,-0.10248
-0.02928,0.07564,-0.122,-0.10736,-0.09272,0.03172,0.02928,0.00976,-0.06832,-0.08296,-0.12688,-0.11224
-0.01952,0.07076,-0.122,-0.11224,-0.10248,0.04148,0.02928,0.00976,-0.06344,-0.0732,-0.122,-0.11224
-0.03416,0.0732,-0.11224,-0.09516,-0.07808,0.02196,0.03416,-0.01464,-0.06344,-0.07808,-0.12688,-0.11712
-0.02928,0.06832,-0.10736,-0.09272,-0.07808,0.0244,0.02928,-0.0244,-0.05856,-0.07808,-0.12688,-0.11712
-0.02928,0.07076,-0.11224,-0.0976,-0.08296,0.02684,0.0244,-0.00976,-0.05856,-0.0732,-0.11224,-0.10736
-0.02928,0.06832,-0.10736,-0.09272,-0.07808,0.0244,0.0244,-0.00976,-0.05856,-0.06832,-0.11712,-0.10736
-0.03904,0.0732,-0.10736,-0.08784,-0.06832,0.01464,0.03416,-0.00976,-0.05856,-0.06832,-0.11224,-0.10248
-0.03904,0.0732,-0.10736,-0.08784,-0.06832,0.01464,0.03416,-0.00976,-0.05368,-0.05856,-0.11224,-0.10248
-0.02928,0.06344,-0.0976,-0.08296,-0.06832,0.01952,0.0244,-0.00976,-0.04392,-0.05856,-0.11224,-0.10248
-0.01952,0.05368,-0.08784,-0.07808,-0.06832,0.0244,0.02928,-0.01464,-0.04392,-0.05856,-0.11224,-0.10248
-0.03416,0.06588,-0.0976,-0.08052,-0.06344,0.01464,0.0244,-0.00488,-0.04392,-0.05856,-0.11224,-0.11224
-0.03904,0.07564,-0.11224,-0.09272,-0.0732,0.01708,0.0244,0,-0.04392,-0.05856,-0.11224,-0.11224
-0.03416,0.07076,-0.10736,-0.09028,-0.0732,0.01952,0.0244,-0.00976,-0.05368,-0.0732,-0.122,-0.11224
-0.03416,0.06832,-0.10248,-0.0854,-0.06832,0.01708,0.02928,-0.00976,-0.05368,-0.07808,-0.122,-0.11224
-0.0244,0.05856,-0.09272,-0.08052,-0.06832,0.02196,0.02928,-0.00976,-0.05368,-0.0732,-0.11224,-0.11224
-0.01952,0.05368,-0.08784,-0.07808,-0.06832,0.0244,0.02928,-0.00976,-0.05368,-0.06832,-0.10736,-0.10248
-0.02928,0.06832,-0.10736,-0.09272,-0.07808,0.0244,0.03416,-0.00488,-0.06344,-0.06344,-0.10248,-0.10248
-0.02928,0.06832,-0.10736,-0.09272,-0.07808,0.0244,0.03416,-0.00976,-0.06344,-0.06344,-0.10248,-0.0976
-0.0244,0.06344,-0.10248,-0.09028,-0.07808,0.02684,0.03416,0,-0.05368,-0.05856,-0.10248,-0.10248
-0.02928,0.06588,-0.10248,-0.08784,-0.0732,0.02196,0.03416,0.00488,-0.05368,-0.05856,-0.10248,-0.0976
-0.01952,0.05612,-0.09272,-0.08296,-0.0732,0.02684,0.03416,-0.00488,-0.06832,-0.06344,-0.10736,-0.10248
-0.01464,0.05368,-0.09272,-0.0854,-0.07808,0.03172,0.03416,-0.00488,-0.06344,-0.06832,-0.0976,-0.10248
-0.0244,0.061,-0.0976,-0.0854,-0.0732,0.0244,0.02928,0.00488,-0.06344,-0.06832,-0.11224,-0.10248
-0.0244,0.061,-0.0976,-0.0854,-0.0732,0.0244,0.02928,0.00976,-0.06344,-0.06832,-0.122,-0.10248
-0.01952,0.05612,-0.09272,-0.08296,-0.0732,0.02684,0.02928,0,-0.05856,-0.05856,-0.10736,-0.0976
-0.01464,0.05612,-0.0976,-0.09028,-0.08296,0.03416,0.02928,0,-0.05856,-0.05856,-0.10736,-0.09272
-0.01464,0.061,-0.10736,-0.10004,-0.09272,0.03904,0.0244,0,-0.05856,-0.06832,-0.10736,-0.0976
0,0.0488,-0.0976,-0.0976,-0.0976,0.0488,0.0244,-0.00488,-0.05856,-0.06344,-0.10736,-0.09272
0,0.04392,-0.08784,-0.08784,-0.08784,0.04392,0.01952,-0.00488,-0.05856,-0.0488,-0.08784,-0.08784
0.00488,0.03904,-0.08296,-0.0854,-0.08784,0.04636,0.0244,0,-0.05856,-0.0488,-0.08784,-0.08296
-0.00488,0.04392,-0.08296,-0.08052,-0.07808,0.0366,0.01952,0,-0.05368,-0.05856,-0.0976,-0.08296
0,0.03904,-0.07808,-0.07808,-0.07808,0.03904,0.01952,-0.00488,-0.05368,-0.05856,-0.0976,-0.0732
0,0.0366,-0.0732,-0.0732,-0.0732,0.0366,0.00976,-0.00488,-0.06344,-0.05856,-0.09272,-0.07808
0.00488,0.03416,-0.0732,-0.07564,-0.07808,0.04148,0.00976,0,-0.06832,-0.05368,-0.08784,-0.08296
0.01464,0.03172,-0.07808,-0.0854,-0.09272,0.05368,0.01464,0.01464,-0.06344,-0.05368,-0.09272,-0.0732
0.01952,0.02928,-0.07808,-0.08784,-0.0976,0.05856,0.01464,0.01464,-0.06344,-0.05368,-0.0976,-0.0732
0.00976,0.03904,-0.08784,-0.09272,-0.0976,0.05368,0.00488,0,-0.0732,-0.05856,-0.0976,-0.0732
0.00488,0.03904,-0.08296,-0.0854,-0.08784,0.04636,0.00976,0,-0.0732,-0.05856,-0.09272,-0.06832
0.01464,0.03172,-0.07808,-0.0854,-0.09272,0.05368,0.00976,-0.00976,-0.0732,-0.0488,-0.08784,-0.06832
0.01464,0.02928,-0.0732,-0.08052,-0.08784,0.05124,0.00488,-0.01464,-0.07808,-0.04392,-0.08296,-0.06832
0.01464,0.0244,-0.06344,-0.07076,-0.07808,0.04636,-0.00488,0,-0.07808,-0.04392,-0.09272,-0.06344
0.01952,0.01952,-0.05856,-0.06832,-0.07808,0.0488,-0.00488,0,-0.08296,-0.04392,-0.08296,-0.05368
0.01952,0.01708,-0.05368,-0.06344,-0.0732,0.04636,0,-0.00488,-0.08296,-0.04392,-0.0732,-0.04392
0.02928,0.00976,-0.0488,-0.06344,-0.07808,0.05368,-0.00976,-0.00488,-0.08296,-0.03904,-0.06344,-0.0244
0.04392,-0.00488,-0.03416,-0.05612,-0.07808,0.061,-0.00976,0,-0.08296,-0.03416,-0.05856,-0.01464
0.05368,-0.0122,-0.02928,-0.05612,-0.08296,0.06832,-0.00976,0,-0.08296,-0.03416,-0.05368,-0.00488
0.05368,-0.01708,-0.01952,-0.04636,-0.0732,0.06344,-0.0244,-0.00488,-0.09272,-0.04392,-0.0488,-0.00976
0.04392,-0.00732,-0.02928,-0.05124,-0.0732,0.05856,-0.02928,-0.00976,-0.09272,-0.04392,-0.03904,-0.01952
0.05368,-0.0244,-0.00488,-0.03172,-0.05856,0.05612,-0.02928,-0.00976,-0.09272,-0.02928,-0.02928,-0.00976
0.05368,-0.02928,0.00488,-0.02196,-0.0488,0.05124,-0.03904,-0.01464,-0.09272,-0.02928,-0.02928,0
0.06344,-0.02928,-0.00488,-0.0366,-0.06832,0.06588,-0.0488,-0.00488,-0.10736,-0.03904,-0.03416,0.01464
0.0732,-0.03904,0.00488,-0.03172,-0.06832,0.07076,-0.0488,-0.00488,-0.10736,-0.03416,-0.0244,0.0244
0.06832,-0.03416,0,-0.03416,-0.06832,0.06832,-0.05368,-0.01464,-0.10736,-0.04392,-0.00488,0.03904
0.06344,-0.02928,-0.00488,-0.0366,-0.06832,0.06588,-0.05368,-0.01952,-0.10736,-0.01952,0.00488,0.0488
0.0732,-0.04148,0.00976,-0.02684,-0.06344,0.06832,-0.06344,-0.01464,-0.10248,-0.00976,0.00976,0.05856
0.07808,-0.04392,0.00976,-0.02928,-0.06832,0.0732,-0.06832,-0.01952,-0.0976,-0.00488,0.00976,0.05856
0.06832,-0.04636,0.0244,-0.00976,-0.04392,0.05612,-0.06832,-0.0244,-0.08784,-0.00488,0.01952,0.05856
0.07808,-0.061,0.04392,0.00488,-0.03416,0.05612,-0.0732,-0.0244,-0.0732,0.00488,0.02928,0.06344
0.08296,-0.06588,0.0488,0.00732,-0.03416,0.05856,-0.06344,-0.0244,-0.08296,0.00488,0.03416,0.0732
0.08296,-0.06832,0.05368,0.0122,-0.02928,0.05612,-0.0732,-0.02928,-0.07808,0.0244,0.04392,0.08784
0.08296,-0.07076,0.05856,0.01708,-0.0244,0.05368,-0.08784,-0.03416,-0.07808,0.01952,0.04392,0.08784
0.08296,-0.07076,0.05856,0.01708,-0.0244,0.05368,-0.07808,-0.0244,-0.05856,0.02928,0.05368,0.08784
0.0976,-0.08296,0.06832,0.01952,-0.02928,0.06344,-0.08784,-0.0244,-0.06344,0.04392,0.06344,0.0976
0.11224,-0.0976,0.08296,0.02684,-0.02928,0.07076,-0.08784,-0.01952,-0.0488,0.05368,0.06344,0.10248
0.0976,-0.08784,0.07808,0.02928,-0.01952,0.05856,-0.07808,-0.01952,-0.03904,0.06344,0.06344,0.11224
0.09272,-0.08052,0.06832,0.02196,-0.0244,0.05856,-0.07808,-0.01952,-0.0244,0.06832,0.06344,0.10736
0.09272,-0.07808,0.06344,0.01708,-0.02928,0.061,-0.06832,-0.01952,-0.0244,0.07808,0.06832,0.11224
0.09272,-0.07564,0.05856,0.0122,-0.03416,0.06344,-0.06832,-0.01464,-0.01464,0.07808,0.06832,0.10248
0.07808,-0.06344,0.0488,0.00976,-0.02928,0.05368,-0.05856,-0.01464,-0.01464,0.06832,0.05368,0.08296
0.0732,-0.05856,0.04392,0.00732,-0.02928,0.05124,-0.05368,-0.01464,-0.00488,0.05856,0.04392,0.07808
0.0488,-0.04392,0.03904,0.01464,-0.00976,0.02928,-0.0488,-0.00976,-0.00488,0.05856,0.0244,0.05856
0.03904,-0.03416,0.02928,0.00976,-0.00976,0.0244,-0.04392,-0.00976,-0.00488,0.0488,0.00488,0.02928
0.02928,-0.02196,0.01464,0,-0.01464,0.02196,-0.01952,0,0.00488,0.05368,0.00488,0.0244
0.01952,-0.0122,0.00488,-0.00488,-0.01464,0.01708,-0.01952,0,0.00488,0.04392,-0.01464,0.0244
0.0244,-0.01464,0.00488,-0.00732,-0.01952,0.02196,-0.01464,0.00488,0.01464,0.02928,-0.01952,0.00488
0.01464,-0.00488,-0.00488,-0.0122,-0.01952,0.01708,-0.01464,0.00488,0.01464,0.01952,-0.0244,-0.00488
0.00488,0.00488,-0.01464,-0.01708,-0.01952,0.0122,-0.00976,0.00976,0,0.00976,-0.03416,-0.01952
0,0.00732,-0.01464,-0.01464,-0.01464,0.00732,-0.00488,0.00976,-0.00976,0.00488,-0.04392,-0.0244
-0.00488,0.00732,-0.00976,-0.00732,-0.00488,0,0.00976,0,0,0.00488,-0.0488,-0.03904
-0.00488,0.0122,-0.01952,-0.01708,-0.01464,0.00488,0.00976,0.00488,-0.00488,-0.00488,-0.05856,-0.03416
-0.00488,0.00732,-0.00976,-0.00732,-0.00488,0,0.00488,0.00488,-0.00488,-0.00976,-0.06832,-0.04392
-0.00976,0.01464,-0.01952,-0.01464,-0.00976,0,0.00488,0.00488,-0.01464,-0.01464,-0.07808,-0.05368
-0.01464,0.02196,-0.02928,-0.02196,-0.01464,0,0.01952,0.01464,-0.01464,-0.01464,-0.06344,-0.03904
-0.01464,0.01952,-0.0244,-0.01708,-0.00976,-0.00244,0.0244,0.01952,-0.01952,-0.01464,-0.06832,-0.04392
-0.0244,0.0244,-0.0244,-0.0122,0,-0.0122,0.0244,0.01952,-0.01952,-0.01952,-0.07808,-0.04392
-0.0244,0.0244,-0.0244,-0.0122,0,-0.0122,0.0244,0.01952,-0.01952,-0.01952,-0.07808,-0.04392
-0.03416,0.0366,-0.03904,-0.02196,-0.00488,-0.01464,0.0244,0.01464,-0.02928,-0.0244,-0.08296,-0.05856
-0.0244,0.03416,-0.04392,-0.03172,-0.01952,-0.00244,0.0244,0.01464,-0.02928,-0.0244,-0.08296,-0.05856
-0.04392,0.04392,-0.04392,-0.02196,0,-0.02196,0.02928,0.01952,-0.02928,-0.03416,-0.08296,-0.06832
-0.03416,0.03904,-0.04392,-0.02684,-0.00976,-0.0122,0.02928,0.01952,-0.02928,-0.03904,-0.08784,-0.06344
-0.03416,0.0366,-0.03904,-0.02196,-0.00488,-0.01464,0.02928,0.01952,-0.04392,-0.03904,-0.0976,-0.06832
-0.03904,0.0366,-0.03416,-0.01464,0.00488,-0.02196,0.02928,0.01952,-0.04392,-0.03904,-0.0976,-0.07808
-0.02928,0.03172,-0.03416,-0.01952,-0.00488,-0.0122,0.02928,0.02928,-0.03416,-0.03904,-0.08784,-0.06832
-0.02928,0.03416,-0.03904,-0.0244,-0.00976,-0.00976,0.02928,0.02928,-0.03416,-0.04392,-0.08784,-0.05856
-0.03416,0.03904,-0.04392,-0.02684,-0.00976,-0.0122,0.03904,0.02928,-0.0244,-0.02928,-0.07808,-0.05856
-0.0244,0.03416,-0.04392,-0.03172,-0.01952,-0.00244,0.03904,0.02928,-0.0244,-0.02928,-0.07808,-0.06344
-0.03904,0.04636,-0.05368,-0.03416,-0.01464,-0.0122,0.02928,0.0244,-0.03416,-0.03904,-0.08784,-0.0732
-0.04392,0.0488,-0.05368,-0.03172,-0.00976,-0.01708,0.02928,0.0244,-0.04392,-0.0488,-0.08784,-0.07808
-0.03904,0.04148,-0.04392,-0.0244,-0.00488,-0.01708,0.03904,0.03416,-0.03416,-0.03904,-0.08784,-0.0732
-0.03416,0.03416,-0.03416,-0.01708,0,-0.01708,0.03904,0.03416,-0.03416,-0.03904,-0.08784,-0.06344
-0.03904,0.04392,-0.0488,-0.02928,-0.00976,-0.01464,0.03904,0.03416,-0.02928,-0.03904,-0.09272,-0.06832
-0.03904,0.04392,-0.0488,-0.02928,-0.00976,-0.01464,0.03904,0.03416,-0.02928,-0.04392,-0.09272,-0.0732
-0.03904,0.04392,-0.0488,-0.02928,-0.00976,-0.01464,0.03904,0.0244,-0.03904,-0.04392,-0.09272,-0.0732
-0.03904,0.04148,-0.04392,-0.0244,-0.00488,-0.01708,0.03904,0.0244,-0.03904,-0.04392,-0.09272,-0.0732
-0.03904,0.04636,-0.05368,-0.03416,-0.01464,-0.0122,0.03904,0.03416,-0.03904,-0.04392,-0.08296,-0.06344
-0.03416,0.04148,-0.0488,-0.03172,-0.01464,-0.00976,0.03904,0.03904,-0.03904,-0.04392,-0.08296,-0.06344
-0.04392,0.05124,-0.05856,-0.0366,-0.01464,-0.01464,0.0488,0.03904,-0.03904,-0.03904,-0.0732,-0.06344
-0.04392,0.05368,-0.06344,-0.04148,-0.01952,-0.0122,0.0488,0.03904,-0.03416,-0.03904,-0.0732,-0.06832
-0.03416,0.04392,-0.05368,-0.0366,-0.01952,-0.00732,0.04392,0.02928,-0.03416,-0.0488,-0.0732,-0.07808
-0.02928,0.03172,-0.03416,-0.01952,-0.00488,-0.0122,0.03904,0.02928,-0.03416,-0.0488,-0.0732,-0.07808
-0.03904,0.04392,-0.0488,-0.02928,-0.00976,-0.01464,0.03904,0.03904,-0.03904,-0.0488,-0.08296,-0.07808
-0.03416,0.04636,-0.05856,-0.04148,-0.0244,-0.00488,0.03904,0.03904,-0.03904,-0.0488,-0.08296,-0.07808
-0.0244,0.03416,-0.04392,-0.03172,-0.01952,-0.00244,0.0488,0.0488,-0.03904,-0.03904,-0.06832,-0.06832
-0.01464,0.02928,-0.04392,-0.0366,-0.02928,0.00732,0.05368,0.0488,-0.03416,-0.03416,-0.06832,-0.06344
-0.0244,0.04148,-0.05856,-0.04636,-0.03416,0.00488,0.04392,0.03904,-0.03416,-0.03416,-0.05856,-0.05368
-0.03416,0.04392,-0.05368,-0.0366,-0.01952,-0.00732,0.04392,0.03904,-0.03416,-0.03416,-0.05856,-0.05368
-0.0244,0.03416,-0.04392,-0.03172,-0.01952,-0.00244,0.03416,0.03904,-0.04392,-0.03904,-0.06344,-0.05856
-0.0244,0.03416,-0.04392,-0.03172,-0.01952,-0.00244,0.03416,0.03904,-0.03904,-0.03904,-0.06344,-0.05856
-0.00976,0.02684,-0.04392,-0.03904,-0.03416,0.0122,0.03416,0.03904,-0.03904,-0.03904,-0.05368,-0.06344
-0.01464,0.02928,-0.04392,-0.0366,-0.02928,0.00732,0.03416,0.03904,-0.03904,-0.03416,-0.05368,-0.06344
-0.02928,0.04148,-0.05368,-0.03904,-0.0244,-0.00244,0.04392,0.03904,-0.03416,-0.03416,-0.0488,-0.06344
-0.0244,0.03904,-0.05368,-0.04148,-0.02928,0.00244,0.03416,0.03904,-0.03416,-0.03416,-0.0488,-0.05368
-0.01464,0.02928,-0.04392,-0.0366,-0.02928,0.00732,0.03904,0.03904,-0.03904,-0.04392,-0.05856,-0.06344
-0.01952,0.03172,-0.04392,-0.03416,-0.0244,0.00244,0.03904,0.03904,-0.03904,-0.04392,-0.05856,-0.06832
-0.01464,0.02684,-0.03904,-0.03172,-0.0244,0.00488,0.0488,0.0488,-0.02928,-0.03904,-0.0488,-0.05856
-0.01464,0.03172,-0.0488,-0.04148,-0.03416,0.00976,0.0488,0.04392,-0.02928,-0.0488,-0.0488,-0.04392
-0.01464,0.02684,-0.03904,-0.03172,-0.0244,0.00488,0.04392,0.04392,-0.03904,-0.03904,-0.0488,-0.05368
-0.01464,0.02684,-0.03904,-0.03172,-0.0244,0.00488,0.04392,0.05368,-0.03904,-0.03904,-0.0488,-0.05368
-0.00976,0.0244,-0.03904,-0.03416,-0.02928,0.00976,0.04392,0.04392,-0.02928,-0.02928,-0.03904,-0.0488
-0.00976,0.02684,-0.04392,-0.03904,-0.03416,0.0122,0.04392,0.04392,-0.02928,-0.02928,-0.03904,-0.0488
0.00488,0.0122,-0.02928,-0.03172,-0.03416,0.01952,0.04392,0.03904,-0.0244,-0.02928,-0.0488,-0.05856
0,0.0122,-0.0244,-0.0244,-0.0244,0.0122,0.04392,0.04392,-0.0244,-0.02928,-0.0488,-0.06344
0,0.0122,-0.0244,-0.0244,-0.0244,0.0122,0.0488,0.04392,-0.0244,-0.02928,-0.05368,-0.0488
0,0.0122,-0.0244,-0.0244,-0.0244,0.0122,0.0488,0.04392,-0.0244,-0.03416,-0.05368,-0.05856
-0.01464,0.0244,-0.03416,-0.02684,-0.01952,0.00244,0.03904,0.04392,-0.0244,-0.04392,-0.05368,-0.06832
-0.03416,0.03904,-0.04392,-0.02684,-0.00976,-0.0122,0.04392,0.0488,-0.0244,-0.04392,-0.05368,-0.06832
-0.01464,0.02928,-0.04392,-0.0366,-0.02928,0.00732,0.0488,0.0488,-0.03416,-0.04392,-0.06344,-0.06832
-0.00976,0.03172,-0.05368,-0.0488,-0.04392,0.01708,0.05368,0.0488,-0.03416,-0.0488,-0.06344,-0.06832
-0.01464,0.02928,-0.04392,-0.0366,-0.02928,0.00732,0.04392,0.0488,-0.03904,-0.0488,-0.06344,-0.06832
-0.00976,0.0244,-0.03904,-0.03416,-0.02928,0.00976,0.04392,0.04392,-0.03416,-0.0488,-0.06832,-0.06832
-0.0244,0.03172,-0.03904,-0.02684,-0.01464,-0.00488,0.04392,0.04392,-0.03416,-0.0488,-0.06832,-0.06832
-0.01464,0.02684,-0.03904,-0.03172,-0.0244,0.00488,0.04392,0.04392,-0.03416,-0.0488,-0.06832,-0.06832
-0.00488,0.02196,-0.03904,-0.0366,-0.03416,0.01464,0.05856,0.04392,-0.04392,-0.0488,-0.06832,-0.06832
-0.00976,0.02684,-0.04392,-0.03904,-0.03416,0.0122,0.05856,0.04392,-0.0488,-0.05368,-0.0732,-0.0732
-0.0244,0.03416,-0.04392,-0.03172,-0.01952,-0.00244,0.04392,0.0488,-0.03904,-0.05368,-0.05856,-0.06344
-0.01952,0.03172,-0.04392,-0.03416,-0.0244,0.00244,0.0488,0.0488,-0.03904,-0.0488,-0.05856,-0.06344
-0.00976,0.0244,-0.03904,-0.03416,-0.02928,0.00976,0.05856,0.05856,-0.0244,-0.03904,-0.05856,-0.06344
-0.01464,0.02684,-0.03904,-0.03172,-0.0244,0.00488,0.05368,0.05856,-0.02928,-0.04392,-0.05368,-0.06344
-0.00976,0.02684,-0.04392,-0.03904,-0.03416,0.0122,0.05856,0.05368,-0.03904,-0.05368,-0.06344,-0.06832
-0.00488,0.0244,-0.04392,-0.04148,-0.03904,0.01708,0.06344,0.05856,-0.03416,-0.05368,-0.06344,-0.06832
-0.03904,0.04392,-0.0488,-0.02928,-0.00976,-0.01464,0.05368,0.05856,-0.04392,-0.06344,-0.07808,-0.08296
-0.02928,0.0366,-0.04392,-0.02928,-0.01464,-0.00732,0.05368,0.05368,-0.04392,-0.0732,-0.07808,-0.09272
-0.02928,0.04148,-0.05368,-0.03904,-0.0244,-0.00244,0.05368,0.05368,-0.05368,-0.07808,-0.0976,-0.09272
-0.0244,0.03904,-0.05368,-0.04148,-0.02928,0.00244,0.05368,0.05368,-0.05368,-0.0732,-0.0976,-0.09272
-0.02928,0.04392,-0.05856,-0.04392,-0.02928,0,0.05856,0.05856,-0.04392,-0.06344,-0.08784,-0.08296
-0.02928,0.04392,-0.05856,-0.04392,-0.02928,0,0.06344,0.06344,-0.02928,-0.06344,-0.08296,-0.08784
-0.01464,0.03172,-0.0488,-0.04148,-0.03416,0.00976,0.05856,0.05368,-0.03416,-0.06344,-0.08784,-0.07808
-0.01464,0.03416,-0.05368,-0.04636,-0.03904,0.0122,0.05368,0.0488,-0.03904,-0.06832,-0.08784,-0.07808
-0.0244,0.03904,-0.05368,-0.04148,-0.02928,0.00244,0.0488,0.0488,-0.05368,-0.07808,-0.07808,-0.07808
-0.0244,0.03904,-0.05368,-0.04148,-0.02928,0.00244,0.05368,0.06344,-0.05368,-0.07808,-0.08296,-0.08296
-0.0244,0.0366,-0.0488,-0.0366,-0.0244,0,0.06344,0.06344,-0.04392,-0.06832,-0.07808,-0.06832
-0.01464,0.03172,-0.0488,-0.04148,-0.03416,0.00976,0.05856,0.0488,-0.03416,-0.07808,-0.08784,-0.06344
-0.0244,0.0366,-0.0488,-0.0366,-0.0244,0,0.05856,0.0488,-0.04392,-0.07808,-0.08784,-0.0732
-0.01952,0.03904,-0.05856,-0.0488,-0.03904,0.00976,0.06832,0.05856,-0.0488,-0.07808,-0.08784,-0.08784
-0.01952,0.03904,-0.05856,-0.0488,-0.03904,0.00976,0.06832,0.05856,-0.0488,-0.07808,-0.08784,-0.08784
-0.02928,0.0488,-0.06832,-0.05368,-0.03904,0.00488,0.06832,0.0488,-0.05856,-0.08784,-0.08784,-0.08784
-0.02928,0.0488,-0.06832,-0.05368,-0.03904,0.00488,0.06832,0.0488,-0.05856,-0.08784,-0.08784,-0.08784
-0.02928,0.04392,-0.05856,-0.04392,-0.02928,0,0.06832,0.05856,-0.0488,-0.07808,-0.08784,-0.08784
-0.02928,0.04392,-0.05856,-0.04392,-0.02928,0,0.06832,0.05856,-0.0488,-0.07808,-0.08784,-0.08784
-0.01952,0.04392,-0.06832,-0.05856,-0.0488,0.01464,0.07808,0.05856,-0.0488,-0.07808,-0.0976,-0.08784
-0.01952,0.04392,-0.06832,-0.05856,-0.0488,0.01464,0.07808,0.05856,-0.0488,-0.07808,-0.0976,-0.08784
-0.02928,0.0488,-0.06832,-0.05368,-0.03904,0.00488,0.06832,0.05856,-0.0488,-0.07808,-0.0976,-0.0976
-0.02928,0.0488,-0.06832,-0.05368,-0.03904,0.00488,0.06832,0.05856,-0.0488,-0.07808,-0.0976,-0.0976
-0.02928,0.0488,-0.06832,-0.05368,-0.03904,0.00488,0.06832,0.05856,-0.0488,-0.07808,-0.0976,-0.08784
-0.02928,0.0488,-0.06832,-0.05368,-0.03904,0.00488,0.06832,0.05856,-0.0488,-0.07808,-0.0976,-0.08784
-0.02928,0.0488,-0.06832,-0.05368,-0.03904,0.00488,0.06832,0.05856,-0.05856,-0.08784,-0.0976,-0.0976
-0.02928,0.0488,-0.06832,-0.05368,-0.03904,0.00488,0.06832,0.05856,-0.05856,-0.08784,-0.0976,-0.0976
-0.03904,0.05856,-0.07808,-0.05856,-0.03904,0,0.06832,0.05856,-0.05856,-0.08784,-0.0976,-0.0976
-0.03904,0.05856,-0.07808,-0.05856,-0.03904,0,0.06832,0.05856,-0.05856,-0.08784,-0.0976,-0.0976
-0.03904,0.05612,-0.0732,-0.05368,-0.03416,-0.00244,0.06832,0.06832,-0.0488,-0.08784,-0.10736,-0.0976
-0.03904,0.05124,-0.06344,-0.04392,-0.0244,-0.00732,0.06832,0.06832,-0.0488,-0.08784,-0.10736,-0.0976
-0.03904,0.05368,-0.06832,-0.0488,-0.02928,-0.00488,0.06832,0.05856,-0.0488,-0.08784,-0.0976,-0.08784
-0.03904,0.05368,-0.06832,-0.0488,-0.02928,-0.00488,0.06832,0.05856,-0.0488,-0.08784,-0.0976,-0.08784
-0.03904,0.0488,-0.05856,-0.03904,-0.01952,-0.00976,0.06832,0.06832,-0.05856,-0.08784,-0.0976,-0.08784
-0.03904,0.0488,-0.05856,-0.03904,-0.01952,-0.00976,0.06832,0.06832,-0.05856,-0.08784,-0.0976,-0.08784
-0.03416,0.04636,-0.05856,-0.04148,-0.0244,-0.00488,0.06832,0.06832,-0.0488,-0.07808,-0.0976,-0.08784
-0.0244,0.04148,-0.05856,-0.04636,-0.03416,0.00488,0.06832,0.06832,-0.0488,-0.07808,-0.0976,-0.08784
-0.03416,0.0488,-0.06344,-0.04636,-0.02928,-0.00244,0.07808,0.06832,-0.0488,-0.08784,-0.10736,-0.0976
-0.04392,0.05856,-0.0732,-0.05124,-0.02928,-0.00732,0.07808,0.06832,-0.0488,-0.08784,-0.10736,-0.0976
-0.04392,0.05856,-0.0732,-0.05124,-0.02928,-0.00732,0.07808,0.07808,-0.03904,-0.07808,-0.10248,-0.08784
-0.03416,0.0488,-0.06344,-0.04636,-0.02928,-0.00244,0.07808,0.07808,-0.03904,-0.07808,-0.09272,-0.08784
-0.01952,0.03172,-0.04392,-0.03416,-0.0244,0.00244,0.07808,0.06832,-0.02928,-0.07808,-0.08784,-0.07808
-0.01952,0.02684,-0.03416,-0.0244,-0.01464,-0.00244,0.07808,0.06832,-0.02928,-0.07808,-0.08784,-0.07808
-0.02928,0.03416,-0.03904,-0.0244,-0.00976,-0.00976,0.0732,0.05856,-0.02928,-0.06832,-0.07808,-0.07808
-0.02928,0.03416,-0.03904,-0.0244,-0.00976,-0.00976,0.06344,0.05856,-0.02928,-0.06832,-0.07808,-0.07808
-0.02928,0.03416,-0.03904,-0.0244,-0.00976,-0.00976,0.06832,0.06832,-0.00976,-0.06344,-0.06832,-0.07808
-0.03416,0.0366,-0.03904,-0.02196,-0.00488,-0.01464,0.06832,0.06344,-0.00488,-0.06344,-0.06832,-0.0732
-0.02928,0.01952,-0.00976,0.00488,0.01952,-0.0244,0.06832,0.05856,0.01464,-0.0488,-0.05368,-0.06832
-0.03416,0.01952,-0.00488,0.0122,0.02928,-0.03172,0.06344,0.05856,0.02928,-0.04392,-0.0488,-0.05856
-0.02928,0.01708,-0.00488,0.00976,0.0244,-0.02684,0.05856,0.06344,0.01952,-0.03904,-0.0488,-0.05368
-0.01464,0.00732,0,0.00732,0.01464,-0.01464,0.05368,0.06344,0.01952,-0.03416,-0.04392,-0.05368
-0.00976,-0.00244,0.01464,0.01952,0.0244,-0.01708,0.03416,0.06344,0.01952,-0.03904,-0.05368,-0.0488
0,-0.00976,0.01952,0.01952,0.01952,-0.00976,0.01464,0.0488,0.01464,-0.03904,-0.05368,-0.0488
-0.00976,-0.00732,0.0244,0.02928,0.03416,-0.02196,0,0.03904,0.0244,-0.03904,-0.05368,-0.05368
-0.00488,-0.0122,0.02928,0.03172,0.03416,-0.01952,-0.00488,0.02928,0.0244,-0.03904,-0.05368,-0.0488
-0.01464,-0.00244,0.01952,0.02684,0.03416,-0.0244,0,0.0244,0,-0.05368,-0.05856,-0.05368
-0.01952,0.00488,0.00976,0.01952,0.02928,-0.0244,0.00488,0.0244,-0.00488,-0.05856,-0.05856,-0.05368
-0.01952,0.0122,-0.00488,0.00488,0.01464,-0.01708,0.00488,0.0244,0.00488,-0.04392,-0.0488,-0.0488
-0.01952,0.0122,-0.00488,0.00488,0.01464,-0.01708,0.00976,0.02928,0,-0.04392,-0.04392,-0.0488
-0.01464,0.00488,0.00488,0.0122,0.01952,-0.01708,0.00488,0.03416,-0.00976,-0.04392,-0.03904,-0.04392
-0.00488,0,0.00488,0.00732,0.00976,-0.00732,0.00488,0.03416,-0.00976,-0.04392,-0.03904,-0.04392
-0.0244,0.01708,-0.00976,0.00244,0.01464,-0.01952,0.00976,0.03416,-0.01952,-0.05856,-0.05368,-0.05368
-0.01952,0.01464,-0.00976,0,0.00976,-0.01464,0.01952,0.03904,-0.02928,-0.06832,-0.05856,-0.05856
-0.01464,0.0122,-0.00976,-0.00244,0.00488,-0.00976,0.02928,0.04392,-0.01952,-0.06344,-0.06344,-0.05856
-0.00488,0.00732,-0.00976,-0.00732,-0.00488,0,0.03416,0.04392,-0.01952,-0.06832,-0.06344,-0.05856
-0.02928,0.0244,-0.01952,-0.00488,0.00976,-0.01952,0.0488,0.0488,-0.02928,-0.07808,-0.0732,-0.0488
-0.01952,0.02928,-0.03904,-0.02928,-0.01952,0,0.05856,0.0488,-0.04392,-0.09272,-0.08296,-0.06832
-0.0244,0.04392,-0.06344,-0.05124,-0.03904,0.00732,0.06832,0.06344,-0.04392,-0.09272,-0.0976,-0.07808
-0.04392,0.07564,-0.10736,-0.0854,-0.06344,0.00976,0.07808,0.0732,-0.06344,-0.11224,-0.10736,-0.0976
-0.03416,0.07076,-0.10736,-0.09028,-0.0732,0.01952,0.07808,0.07808,-0.07808,-0.11224,-0.10736,-0.10248
-0.01952,0.061,-0.10248,-0.09272,-0.08296,0.03172,0.07808,0.08296,-0.0732,-0.11224,-0.10736,-0.10248
-0.03416,0.07076,-0.10736,-0.09028,-0.0732,0.01952,0.08296,0.08296,-0.06344,-0.10248,-0.10736,-0.10736
-0.03904,0.08052,-0.122,-0.10248,-0.08296,0.02196,0.09272,0.09272,-0.0732,-0.11712,-0.122,-0.11712
-0.03416,0.0732,-0.11224,-0.09516,-0.07808,0.02196,0.09272,0.10248,-0.06832,-0.122,-0.11712,-0.10736
-0.04392,0.08052,-0.11712,-0.09516,-0.0732,0.01464,0.0976,0.10248,-0.0732,-0.12688,-0.122,-0.10736
