i,aVR,ii,aVF,iii,aVL,V1,V2,V3,V4,V5,V6
0.03416,-0.03904,0.04392,0.02684,0.00976,0.0122,0.17568,0.3172,0.3416,0.28304,0.08784,0.0488
0.03904,-0.04392,0.0488,0.02928,0.00976,0.01464,0.19032,0.32696,0.36112,0.30744,0.10248,0.05856
0.04392,-0.04148,0.03904,0.01708,-0.00488,0.0244,0.20008,0.35136,0.38064,0.32208,0.122,0.06832
0.0488,-0.04636,0.04392,0.01952,-0.00488,0.02684,0.20984,0.366,0.39528,0.33184,0.13664,0.06832
0.05368,-0.05368,0.05368,0.02684,0,0.02684,0.20496,0.366,0.40016,0.35624,0.15128,0.0732
0.05856,-0.061,0.06344,0.03416,0.00488,0.02684,0.20496,0.37088,0.40016,0.36112,0.15616,0.07808
0.05368,-0.05368,0.05368,0.02684,0,0.02684,0.21472,0.37088,0.40504,0.36112,0.1464,0.08296
0.05368,-0.05612,0.05856,0.03172,0.00488,0.0244,0.21472,0.37088,0.40504,0.366,0.15128,0.08296
0.05368,-0.061,0.06832,0.04148,0.01464,0.01952,0.20496,0.37088,0.40504,0.36112,0.1464,0.08296
0.05368,-0.061,0.06832,0.04148,0.01464,0.01952,0.20008,0.366,0.38552,0.35136,0.1464,0.08296
0.06832,-0.06588,0.06344,0.02928,-0.00488,0.0366,0.20008,0.34648,0.38064,0.34648,0.14152,0.08296
0.06344,-0.06344,0.06344,0.03172,0,0.03172,0.19032,0.3416,0.366,0.32696,0.14152,0.08296
0.06344,-0.05856,0.05368,0.02196,-0.00976,0.0366,0.18544,0.32696,0.3416,0.31232,0.1464,0.09272
0.06344,-0.05856,0.05368,0.02196,-0.00976,0.0366,0.17568,0.30256,0.32208,0.28792,0.13664,0.09272
0.05368,-0.0488,0.04392,0.01708,-0.00976,0.03172,0.1708,0.28304,0.2928,0.2684,0.11712,0.07808
0.0488,-0.04392,0.03904,0.01464,-0.00976,0.02928,0.15128,0.24888,0.26352,0.23912,0.0976,0.06344
0.03416,-0.0366,0.03904,0.02196,0.00488,0.01464,0.13664,0.21472,0.22936,0.20008,0.07808,0.05856
0.01952,-0.0244,0.02928,0.01952,0.00976,0.00488,0.122,0.19032,0.19032,0.16592,0.05856,0.0488
0.0244,-0.02684,0.02928,0.01708,0.00488,0.00976,0.10736,0.16104,0.16592,0.13176,0.05368,0.03904
0.0244,-0.0244,0.0244,0.0122,0,0.0122,0.0976,0.13176,0.14152,0.10248,0.03904,0.0244
0.0244,-0.01952,0.01464,0.00244,-0.00976,0.01708,0.08296,0.10736,0.11712,0.0732,0.01952,0.01952
0.01952,-0.01952,0.01952,0.00976,0,0.00976,0.0732,0.08784,0.09272,0.04392,0.00488,0.01464
0.00488,-0.0122,0.01952,0.01708,0.01464,-0.00488,0.06344,0.06832,0.06832,0.01952,-0.0244,0
0,-0.00732,0.01464,0.01464,0.01464,-0.00732,0.05368,0.05368,0.05368,0.00488,-0.03416,-0.00976
0.01464,-0.00976,0.00488,-0.00244,-0.00976,0.0122,0.04392,0.0244,0.01952,-0.0244,-0.03904,-0.01952
0.00488,0.00244,-0.00976,-0.0122,-0.01464,0.00976,0.03904,0.01464,0.01464,-0.03904,-0.0488,-0.01952
0.00976,0.00244,-0.01464,-0.01952,-0.0244,0.01708,0.02928,-0.00488,-0.00976,-0.0488,-0.06832,-0.03904
0.00976,0.00488,-0.01952,-0.0244,-0.02928,0.01952,0.0244,-0.00976,-0.0244,-0.06344,-0.0732,-0.04392
-0.00488,0.01464,-0.0244,-0.02196,-0.01952,0.00732,0.0244,-0.01464,-0.01952,-0.0732,-0.06832,-0.03904
-0.00488,0.01952,-0.03416,-0.03172,-0.02928,0.0122,0.0244,-0.0244,-0.02928,-0.07808,-0.0732,-0.04392
-0.00488,0.01464,-0.0244,-0.02196,-0.01952,0.00732,0.01952,-0.0244,-0.03416,-0.08784,-0.08296,-0.05368
-0.00976,0.01952,-0.02928,-0.0244,-0.01952,0.00488,0.01952,-0.0244,-0.03416,-0.08784,-0.08784,-0.0488
-0.00488,0.01952,-0.03416,-0.03172,-0.02928,0.0122,0.01952,-0.02928,-0.03416,-0.07808,-0.08296,-0.06344
0,0.01952,-0.03904,-0.03904,-0.03904,0.01952,0.01952,-0.03416,-0.04392,-0.08296,-0.08296,-0.06344
-0.00976,0.02928,-0.0488,-0.04392,-0.03904,0.01464,0.00976,-0.04392,-0.04392,-0.09272,-0.0976,-0.06344
-0.01952,0.03416,-0.0488,-0.03904,-0.02928,0.00488,-0.00488,-0.03904,-0.04392,-0.10248,-0.0976,-0.06344
-0.01952,0.02928,-0.03904,-0.02928,-0.01952,0,0.00488,-0.02928,-0.04392,-0.0976,-0.0976,-0.05856
-0.01464,0.02684,-0.03904,-0.03172,-0.0244,0.00488,0.00488,-0.02928,-0.03904,-0.08784,-0.0976,-0.0488
-0.01952,0.03416,-0.0488,-0.03904,-0.02928,0.00488,0.00976,-0.02928,-0.03904,-0.08296,-0.09272,-0.0488
-0.01952,0.03416,-0.0488,-0.03904,-0.02928,0.00488,0.00488,-0.02928,-0.03416,-0.08784,-0.08784,-0.0488
-0.0244,0.03416,-0.04392,-0.03172,-0.01952,-0.00244,0.01464,-0.01952,-0.03416,-0.07808,-0.0976,-0.0488
-0.01952,0.03416,-0.0488,-0.03904,-0.02928,0.00488,0.02928,-0.01952,-0.03416,-0.0732,-0.09272,-0.0488
-0.01464,0.01952,-0.0244,-0.01708,-0.00976,-0.00244,0.01952,-0.02928,-0.03416,-0.07808,-0.08296,-0.0488
-0.00976,0.01708,-0.0244,-0.01952,-0.01464,0.00244,0.01952,-0.0244,-0.02928,-0.08296,-0.08296,-0.04392
-0.02928,0.03172,-0.03416,-0.01952,-0.00488,-0.0122,0.01952,-0.0244,-0.02928,-0.07808,-0.08296,-0.05368
-0.03904,0.04148,-0.04392,-0.0244,-0.00488,-0.01708,0.0244,-0.01464,-0.01952,-0.07808,-0.08296,-0.05368
-0.01952,0.02684,-0.03416,-0.0244,-0.01464,-0.00244,0.02928,-0.01464,-0.01464,-0.07808,-0.07808,-0.03904
-0.0244,0.0244,-0.0244,-0.0122,0,-0.0122,0.02928,-0.01464,-0.01464,-0.07808,-0.07808,-0.03904
-0.00488,0.00976,-0.01464,-0.0122,-0.00976,0.00244,0.02928,-0.01464,-0.0244,-0.06832,-0.0732,-0.03904
-0.00488,0.00976,-0.01464,-0.0122,-0.00976,0.00244,0.02928,-0.01464,-0.01952,-0.06832,-0.0732,-0.03904
-0.0244,0.02196,-0.01952,-0.00732,0.00488,-0.01464,0.0244,-0.00976,-0.01952,-0.06832,-0.06832,-0.03416
-0.03416,0.02684,-0.01952,-0.00244,0.01464,-0.0244,0.01952,-0.00976,-0.01464,-0.06832,-0.06832,-0.02928
-0.0244,0.01952,-0.01464,-0.00244,0.00976,-0.01708,0.01952,-0.01464,-0.0244,-0.06832,-0.06832,-0.04392
-0.01952,0.01464,-0.00976,0,0.00976,-0.01464,0.01952,-0.00976,-0.0244,-0.06344,-0.06832,-0.03904
-0.00488,0.00488,-0.00488,-0.00244,0,-0.00244,0.01952,-0.01464,-0.01464,-0.06344,-0.06832,-0.03904
0.00488,-0.00488,0.00488,0.00244,0,0.00244,0.01952,-0.01952,-0.01952,-0.06344,-0.06344,-0.03904
-0.00976,0.00976,-0.00976,-0.00488,0,-0.00488,0.01952,-0.01464,-0.01464,-0.05856,-0.06832,-0.02928
-0.0244,0.01464,-0.00488,0.00732,0.01952,-0.02196,0.01952,-0.01464,-0.00976,-0.05368,-0.06344,-0.02928
-0.01464,0.01952,-0.0244,-0.01708,-0.00976,-0.00244,0.01952,-0.01464,-0.00976,-0.0488,-0.06344,-0.02928
-0.00976,0.01708,-0.0244,-0.01952,-0.01464,0.00244,0.01952,-0.01952,-0.01464,-0.0488,-0.06344,-0.02928
-0.02928,0.02196,-0.01464,0,0.01464,-0.02196,0.0244,-0.00976,-0.01464,-0.06344,-0.05856,-0.02928
-0.03416,0.01952,-0.00488,0.0122,0.02928,-0.03172,0.0244,-0.00976,-0.01464,-0.06344,-0.06344,-0.02928
-0.02928,0.01464,0,0.01464,0.02928,-0.02928,0.01464,-0.01952,-0.02928,-0.06832,-0.0732,-0.03904
-0.01952,0.0122,-0.00488,0.00488,0.01464,-0.01708,0.00488,-0.03416,-0.02928,-0.06832,-0.0732,-0.03904
-0.02928,0.0244,-0.01952,-0.00488,0.00976,-0.01952,0.00976,-0.0244,-0.01952,-0.05856,-0.06344,-0.02928
-0.02928,0.02684,-0.0244,-0.00976,0.00488,-0.01708,0.01952,-0.01952,-0.01464,-0.0488,-0.05368,-0.01952
-0.01952,0.01952,-0.01952,-0.00976,0,-0.00976,0.01464,-0.02928,-0.02928,-0.06344,-0.05856,-0.03416
-0.00976,0.01464,-0.01952,-0.01464,-0.00976,0,0.01464,-0.03416,-0.02928,-0.06344,-0.05856,-0.03416
-0.00488,0.00976,-0.01464,-0.0122,-0.00976,0.00244,0.00488,-0.04392,-0.03904,-0.0732,-0.0732,-0.04392
-0.00488,0.00488,-0.00488,-0.00244,0,-0.00244,0.00488,-0.0488,-0.04392,-0.07808,-0.07808,-0.04392
-0.01464,0.0122,-0.00976,-0.00244,0.00488,-0.00976,0.01464,-0.03904,-0.03904,-0.06832,-0.06344,-0.03416
-0.01464,0.0122,-0.00976,-0.00244,0.00488,-0.00976,0.00976,-0.02928,-0.02928,-0.06832,-0.06344,-0.03904
-0.01952,0.01952,-0.01952,-0.00976,0,-0.00976,0.00488,-0.04392,-0.03904,-0.08296,-0.0732,-0.0488
-0.0244,0.02928,-0.03416,-0.02196,-0.00976,-0.00732,0.00976,-0.03904,-0.0488,-0.08296,-0.08296,-0.0488
-0.01952,0.02196,-0.0244,-0.01464,-0.00488,-0.00732,0,-0.03904,-0.04392,-0.0732,-0.0732,-0.03904
-0.01464,0.01708,-0.01952,-0.0122,-0.00488,-0.00488,-0.00976,-0.04392,-0.0488,-0.0732,-0.0732,-0.03904
-0.01464,0.0122,-0.00976,-0.00244,0.00488,-0.00976,-0.00488,-0.05368,-0.0488,-0.08784,-0.0732,-0.03904
-0.01952,0.01708,-0.01464,-0.00488,0.00488,-0.0122,-0.00488,-0.05856,-0.0488,-0.08784,-0.0732,-0.03904
-0.01464,0.01952,-0.0244,-0.01708,-0.00976,-0.00244,0,-0.0488,-0.0488,-0.08296,-0.07808,-0.03904
-0.01464,0.01952,-0.0244,-0.01708,-0.00976,-0.00244,-0.00976,-0.05368,-0.05368,-0.08784,-0.0732,-0.04392
-0.01464,0.01708,-0.01952,-0.0122,-0.00488,-0.00488,-0.00488,-0.06344,-0.05856,-0.0976,-0.08296,-0.04392
-0.03904,0.0366,-0.03416,-0.01464,0.00488,-0.02196,-0.01952,-0.06832,-0.06832,-0.0976,-0.08784,-0.05856
-0.03904,0.04148,-0.04392,-0.0244,-0.00488,-0.01708,-0.01952,-0.06832,-0.06832,-0.0976,-0.08784,-0.05856
-0.02928,0.0366,-0.04392,-0.02928,-0.01464,-0.00732,-0.01464,-0.05856,-0.06344,-0.08296,-0.07808,-0.0488
-0.01952,0.02196,-0.0244,-0.01464,-0.00488,-0.00732,-0.00488,-0.05856,-0.05368,-0.08296,-0.07808,-0.0488
-0.00488,0.00244,0,0.00244,0.00488,-0.00488,-0.00488,-0.05368,-0.05368,-0.08784,-0.07808,-0.03904
0,-0.00976,0.01952,0.01952,0.01952,-0.00976,-0.00488,-0.05368,-0.03904,-0.08296,-0.06344,-0.03904
0,-0.00976,0.01952,0.01952,0.01952,-0.00976,0,-0.0488,-0.03904,-0.07808,-0.06344,-0.03416
-0.00488,-0.00732,0.01952,0.02196,0.0244,-0.01464,0,-0.0488,-0.03904,-0.07808,-0.06344,-0.03416
0.00488,-0.01464,0.0244,0.02196,0.01952,-0.00732,0,-0.0488,-0.03416,-0.0732,-0.06344,-0.03904
0.00976,-0.02196,0.03416,0.02928,0.0244,-0.00732,0.00488,-0.04392,-0.03416,-0.06832,-0.05856,-0.03416
0.01464,-0.03172,0.0488,0.04148,0.03416,-0.00976,0.00488,-0.04392,-0.02928,-0.06832,-0.05368,-0.0244
0.01464,-0.0366,0.05856,0.05124,0.04392,-0.01464,0.00488,-0.04392,-0.01952,-0.06344,-0.05368,-0.01952
0.01952,-0.03904,0.05856,0.0488,0.03904,-0.00976,0.00488,-0.03904,-0.01952,-0.05368,-0.0488,-0.0244
0.03416,-0.05612,0.07808,0.061,0.04392,-0.00488,0,-0.03904,-0.01464,-0.03904,-0.03416,-0.00488
0.04392,-0.05856,0.0732,0.05124,0.02928,0.00732,-0.00488,-0.03904,-0.00488,-0.03904,-0.01464,0.00976
0.05856,-0.06832,0.07808,0.0488,0.01952,0.01952,-0.01464,-0.0488,-0.00976,-0.03416,-0.00976,0.00976
0.05368,-0.061,0.06832,0.04148,0.01464,0.01952,-0.0244,-0.0732,-0.01952,-0.0488,-0.0244,0.00488
0.06344,-0.07808,0.09272,0.061,0.02928,0.01708,-0.03416,-0.0732,-0.01952,-0.0488,-0.01952,0.00976
0.06344,-0.06832,0.0732,0.04148,0.00976,0.02684,-0.02928,-0.05368,-0.01464,-0.03416,0,0.00976
0.06344,-0.07076,0.07808,0.04636,0.01464,0.0244,-0.02928,-0.0488,-0.00976,-0.03416,0.00488,0.01952
0.0732,-0.07564,0.07808,0.04148,0.00488,0.03416,-0.0244,-0.04392,-0.00976,-0.0244,0.00488,0.01952
0.05856,-0.061,0.06344,0.03416,0.00488,0.02684,-0.03416,-0.05368,-0.02928,-0.04392,-0.01464,0.00488
0.0488,-0.04148,0.03416,0.00976,-0.01464,0.03172,-0.03904,-0.07808,-0.06344,-0.0732,-0.04392,-0.01952
0.04392,-0.03172,0.01952,-0.00244,-0.0244,0.03416,-0.0488,-0.08296,-0.06832,-0.08784,-0.05368,-0.02928
0.0244,-0.01708,0.00976,-0.00244,-0.01464,0.01952,-0.03904,-0.08784,-0.07808,-0.09272,-0.06344,-0.02928
0.01464,0.00488,-0.0244,-0.03172,-0.03904,0.02684,-0.03416,-0.08784,-0.07808,-0.10248,-0.0732,-0.03904
-0.01952,0.03172,-0.04392,-0.03416,-0.0244,0.00244,-0.0244,-0.07808,-0.08296,-0.10736,-0.0732,-0.04392
-0.03904,0.04392,-0.0488,-0.02928,-0.00976,-0.01464,-0.01464,-0.07808,-0.08296,-0.11712,-0.08784,-0.05368
-0.0488,0.05612,-0.06344,-0.03904,-0.01464,-0.01708,-0.01464,-0.07808,-0.08784,-0.11712,-0.10248,-0.07808
-0.04392,0.05856,-0.0732,-0.05124,-0.02928,-0.00732,-0.01952,-0.07808,-0.08296,-0.122,-0.10248,-0.07808
-0.03904,0.05368,-0.06832,-0.0488,-0.02928,-0.00488,-0.01952,-0.08296,-0.0976,-0.13176,-0.10736,-0.08784
-0.0488,0.05612,-0.06344,-0.03904,-0.01464,-0.01708,-0.01952,-0.08296,-0.09272,-0.14152,-0.11224,-0.09272
-0.03416,0.05124,-0.06832,-0.05124,-0.03416,0,-0.01952,-0.08296,-0.10248,-0.13664,-0.11712,-0.10248
-0.03416,0.04636,-0.05856,-0.04148,-0.0244,-0.00488,-0.0244,-0.08296,-0.10248,-0.13664,-0.11224,-0.10248
-0.04392,0.05368,-0.06344,-0.04148,-0.01952,-0.0122,-0.0244,-0.08784,-0.11224,-0.14152,-0.11712,-0.11224
-0.03904,0.05368,-0.06832,-0.0488,-0.02928,-0.00488,-0.03416,-0.09272,-0.11224,-0.15128,-0.12688,-0.11712
-0.05368,0.06588,-0.07808,-0.05124,-0.0244,-0.01464,-0.03416,-0.08784,-0.10248,-0.15128,-0.13176,-0.10736
-0.05368,0.06588,-0.07808,-0.05124,-0.0244,-0.01464,-0.0244,-0.08784,-0.10248,-0.1464,-0.122,-0.10736
-0.0488,0.061,-0.0732,-0.0488,-0.0244,-0.0122,-0.01952,-0.09272,-0.0976,-0.14152,-0.11712,-0.0976
-0.04392,0.05856,-0.0732,-0.05124,-0.02928,-0.00732,-0.01952,-0.08784,-0.09272,-0.13664,-0.11224,-0.0976
-0.05856,0.06832,-0.07808,-0.0488,-0.01952,-0.01952,-0.01952,-0.08296,-0.09272,-0.13664,-0.11224,-0.08784
-0.06344,0.07076,-0.07808,-0.04636,-0.01464,-0.0244,-0.01464,-0.08296,-0.09272,-0.13664,-0.11224,-0.08784
-0.05856,0.06832,-0.07808,-0.0488,-0.01952,-0.01952,-0.02928,-0.09272,-0.10248,-0.1464,-0.122,-0.0976
-0.05856,0.06832,-0.07808,-0.0488,-0.01952,-0.01952,-0.02928,-0.09272,-0.10248,-0.1464,-0.122,-0.09272
-0.0488,0.061,-0.0732,-0.0488,-0.0244,-0.0122,-0.01464,-0.08784,-0.08784,-0.13176,-0.11224,-0.08784
-0.0488,0.05368,-0.05856,-0.03416,-0.00976,-0.01952,-0.01464,-0.08784,-0.08784,-0.13176,-0.11224,-0.07808
-0.04392,0.0488,-0.05368,-0.03172,-0.00976,-0.01708,0.00488,-0.0732,-0.0732,-0.11712,-0.10736,-0.06344
-0.06832,0.05368,-0.03904,-0.00488,0.02928,-0.0488,0,-0.06832,-0.06344,-0.122,-0.10736,-0.0732
-0.09272,0.04636,0,0.04636,0.09272,-0.09272,0.02928,-0.0488,-0.00488,-0.08296,-0.0976,-0.07808
-0.09272,0.03172,0.02928,0.07564,0.122,-0.10736,0.03416,-0.03904,0.03904,-0.03416,-0.0244,-0.0244
-0.03904,-0.02928,0.0976,0.11712,0.13664,-0.08784,0.08784,0.06344,0.15616,0.15128,0.1464,0.122
0.05368,-0.09028,0.12688,0.10004,0.0732,-0.00976,0.13664,0.22448,0.30744,0.41968,0.4148,0.33184
0.22936,-0.19276,0.15616,0.04148,-0.0732,0.15128,0.20008,0.4392,0.5124,0.80032,0.79056,0.61488
0.37088,-0.28792,0.20496,0.01952,-0.16592,0.2684,0.25864,0.62952,0.7076,1.17608,1.16144,0.89304
0.49288,-0.35624,0.2196,-0.02684,-0.27328,0.38308,0.31232,0.74176,0.86864,1.5128,1.42984,1.0736
0.57584,-0.30744,0.03904,-0.24888,-0.5368,0.55632,0.25864,0.66856,0.81496,1.58112,1.40544,1.02968
0.61976,-0.30988,0,-0.30988,-0.61976,0.61976,-0.00488,0.22448,0.48312,1.3176,1.13704,0.81984
0.4392,-0.17812,-0.08296,-0.30256,-0.52216,0.48068,-0.28304,-0.33184,-0.04392,0.55632,0.40992,0.30256
0.22936,-0.08052,-0.06832,-0.183,-0.29768,0.26352,-0.45872,-0.74176,-0.50264,-0.122,-0.09272,-0.02928
0.06832,0.04636,-0.16104,-0.1952,-0.22936,0.14884,-0.50264,-0.86864,-0.77592,-0.57096,-0.40016,-0.24888
-0.0244,0.11224,-0.20008,-0.18788,-0.17568,0.07564,-0.46848,-0.86864,-0.86864,-0.8052,-0.54168,-0.35136
-0.0244,0.11468,-0.20496,-0.19276,-0.18056,0.07808,-0.45872,-0.78568,-0.80032,-0.74664,-0.51728,-0.35624
-0.05856,0.11224,-0.16592,-0.13664,-0.10736,0.0244,-0.40016,-0.64904,-0.64416,-0.61,-0.4392,-0.30744
-0.05856,0.09028,-0.122,-0.09272,-0.06344,0.00244,-0.2684,-0.43432,-0.44408,-0.42456,-0.29768,-0.1952
-0.00976,0.03904,-0.06832,-0.06344,-0.05856,0.0244,-0.15616,-0.26352,-0.27328,-0.28304,-0.19032,-0.12688
-0.01952,0.03416,-0.0488,-0.03904,-0.02928,0.00488,-0.09272,-0.16104,-0.16592,-0.18544,-0.15128,-0.10248
-0.02928,0.03904,-0.0488,-0.03416,-0.01952,-0.00488,-0.05368,-0.122,-0.12688,-0.1708,-0.1464,-0.11712
-0.03904,0.04392,-0.0488,-0.02928,-0.00976,-0.01464,-0.0244,-0.08784,-0.0976,-0.15128,-0.13664,-0.11224
-0.0488,0.05124,-0.05368,-0.02928,-0.00488,-0.02196,0,-0.05368,-0.07808,-0.13176,-0.13176,-0.0976
-0.0488,0.05612,-0.06344,-0.03904,-0.01464,-0.01708,0,-0.0488,-0.07808,-0.12688,-0.12688,-0.0976
-0.04392,0.05856,-0.0732,-0.05124,-0.02928,-0.00732,0.00488,-0.0488,-0.06832,-0.13176,-0.122,-0.09272
-0.0488,0.061,-0.0732,-0.0488,-0.0244,-0.0122,0.00976,-0.0488,-0.06832,-0.13176,-0.122,-0.0976
-0.05856,0.05368,-0.0488,-0.01952,0.00976,-0.03416,0.01464,-0.04392,-0.06344,-0.122,-0.11224,-0.10248
-0.05856,0.05368,-0.0488,-0.01952,0.00976,-0.03416,0.01464,-0.03904,-0.06344,-0.11712,-0.11224,-0.0976
-0.06832,0.06588,-0.06344,-0.02928,0.00488,-0.0366,0.01464,-0.02928,-0.05856,-0.12688,-0.11224,-0.0976
-0.06832,0.06588,-0.06344,-0.02928,0.00488,-0.0366,0.01952,-0.02928,-0.05368,-0.122,-0.11224,-0.0976
-0.06344,0.06344,-0.06344,-0.03172,0,-0.03172,0.02928,-0.0244,-0.0488,-0.11224,-0.10736,-0.08296
-0.05368,0.05856,-0.06344,-0.0366,-0.00976,-0.02196,0.03416,-0.01952,-0.03904,-0.10736,-0.10736,-0.08296
-0.0488,0.0488,-0.0488,-0.0244,0,-0.0244,0.03416,-0.00488,-0.02928,-0.10736,-0.0976,-0.07808
-0.0488,0.0488,-0.0488,-0.0244,0,-0.0244,0.03904,0,-0.02928,-0.10248,-0.0976,-0.07808
-0.0488,0.0488,-0.0488,-0.0244,0,-0.0244,0.03904,-0.00488,-0.01952,-0.0976,-0.10248,-0.09272
-0.0488,0.0488,-0.0488,-0.0244,0,-0.0244,0.04392,-0.00488,-0.01952,-0.09272,-0.10248,-0.08784
-0.05856,0.061,-0.06344,-0.03416,-0.00488,-0.02684,0.03904,0.00488,-0.01952,-0.08784,-0.0976,-0.07808
-0.05856,0.061,-0.06344,-0.03416,-0.00488,-0.02684,0.03904,0.00488,-0.01952,-0.08784,-0.0976,-0.07808
-0.0488,0.05124,-0.05368,-0.02928,-0.00488,-0.02196,0.03904,0.00976,-0.0244,-0.08296,-0.0976,-0.07808
-0.04392,0.04392,-0.04392,-0.02196,0,-0.02196,0.03904,0.00976,-0.01952,-0.08296,-0.0976,-0.07808
-0.05368,0.05612,-0.05856,-0.03172,-0.00488,-0.0244,0.04392,0.01464,-0.00488,-0.07808,-0.0976,-0.07808
-0.05368,0.05612,-0.05856,-0.03172,-0.00488,-0.0244,0.04392,0.01952,0,-0.06832,-0.09272,-0.07808
-0.04392,0.04636,-0.0488,-0.02684,-0.00488,-0.01952,0.0488,0.02928,0,-0.05856,-0.09272,-0.06344
-0.03904,0.04148,-0.04392,-0.0244,-0.00488,-0.01708,0.05368,0.03416,0.00488,-0.05856,-0.08784,-0.06344
-0.03904,0.0366,-0.03416,-0.01464,0.00488,-0.02196,0.05368,0.03904,0.01952,-0.05368,-0.08784,-0.06344
-0.04392,0.03904,-0.03416,-0.0122,0.00976,-0.02684,0.05368,0.0488,0.03416,-0.03904,-0.08296,-0.05856
-0.04392,0.04148,-0.03904,-0.01708,0.00488,-0.0244,0.05856,0.05856,0.04392,-0.03416,-0.07808,-0.06344
-0.03904,0.03904,-0.03904,-0.01952,0,-0.01952,0.05856,0.06344,0.05368,-0.02928,-0.06832,-0.06344
-0.05368,0.04392,-0.03416,-0.00732,0.01952,-0.0366,0.06832,0.0732,0.06832,-0.00488,-0.06344,-0.0488
-0.0488,0.04636,-0.04392,-0.01952,0.00488,-0.02684,0.0732,0.08296,0.07808,0.00976,-0.05856,-0.0488
-0.03416,0.0366,-0.03904,-0.02196,-0.00488,-0.01464,0.07808,0.10736,0.08784,0.01464,-0.05368,-0.0488
-0.0244,0.02928,-0.03416,-0.02196,-0.00976,-0.00732,0.09272,0.12688,0.10736,0.03416,-0.04392,-0.04392
-0.01952,0.01952,-0.01952,-0.00976,0,-0.00976,0.10248,0.13176,0.11712,0.05856,-0.02928,-0.02928
-0.00976,0.00976,-0.00976,-0.00488,0,-0.00488,0.11224,0.15128,0.13664,0.08296,-0.01464,-0.01952
-0.01952,0.00976,0,0.00976,0.01952,-0.01952,0.122,0.17568,0.16104,0.0976,-0.00488,-0.01464
-0.01464,0.00488,0.00488,0.0122,0.01952,-0.01708,0.13176,0.20008,0.1952,0.122,0.00976,0
0,0.00244,-0.00488,-0.00488,-0.00488,0.00244,0.13176,0.20984,0.2196,0.1464,0.02928,0.00976
0.00976,-0.0122,0.01464,0.00976,0.00488,0.00244,0.14152,0.22936,0.22936,0.1708,0.04392,0.01464
0.01464,-0.0122,0.00976,0.00244,-0.00488,0.00976,0.15128,0.244,0.244,0.20008,0.06344,0.0244
0.01952,-0.01708,0.01464,0.00488,-0.00488,0.0122,0.16104,0.25864,0.2684,0.2196,0.07808,0.03904
0.0244,-0.01952,0.01464,0.00244,-0.00976,0.01708,0.16592,0.28304,0.2928,0.25376,0.0976,0.04392
0.02928,-0.02684,0.0244,0.00976,-0.00488,0.01708,0.17568,0.30744,0.31232,0.28304,0.10248,0.05368
0.03416,-0.02684,0.01952,0.00244,-0.01464,0.0244,0.18056,0.32696,0.33672,0.2928,0.122,0.06832
0.03904,-0.02928,0.01952,0,-0.01952,0.02928,0.1952,0.34648,0.35136,0.31232,0.1464,0.07808
0.03416,-0.02928,0.0244,0.00732,-0.00976,0.02196,0.19032,0.3416,0.35624,0.3172,0.1464,0.0732
0.02928,-0.02684,0.0244,0.00976,-0.00488,0.01708,0.18544,0.35136,0.36112,0.33184,0.13664,0.07808
0.03416,-0.0366,0.03904,0.02196,0.00488,0.01464,0.1952,0.35136,0.36112,0.33184,0.1464,0.08296
0.0488,-0.0488,0.0488,0.0244,0,0.0244,0.1952,0.35136,0.366,0.33672,0.15128,0.08296
0.06344,-0.06588,0.06832,0.0366,0.00488,0.02928,0.1952,0.35136,0.37576,0.34648,0.1464,0.08296
0.06344,-0.06588,0.06832,0.0366,0.00488,0.02928,0.1952,0.35136,0.36112,0.33672,0.1464,0.08296
0.05856,-0.05368,0.0488,0.01952,-0.00976,0.03416,0.19032,0.34648,0.36112,0.33184,0.15616,0.09272
0.05856,-0.0488,0.03904,0.00976,-0.01952,0.03904,0.19032,0.33184,0.35136,0.32208,0.15128,0.09272
0.04392,-0.04392,0.04392,0.02196,0,0.02196,0.18544,0.32696,0.33184,0.31232,0.1464,0.09272
0.04392,-0.04392,0.04392,0.02196,0,0.02196,0.18056,0.30256,0.31232,0.28792,0.14152,0.09272
0.04392,-0.03904,0.03416,0.0122,-0.00976,0.02684,0.17568,0.2928,0.2928,0.25864,0.13176,0.09272
0.03904,-0.0366,0.03416,0.01464,-0.00488,0.02196,0.16592,0.26352,0.2684,0.23424,0.122,0.08296
0.03904,-0.02928,0.01952,0,-0.01952,0.02928,0.15128,0.22936,0.23424,0.20496,0.10736,0.07808
0.0244,-0.01952,0.01464,0.00244,-0.00976,0.01708,0.14152,0.20496,0.20496,0.16592,0.08784,0.0732
0.0244,-0.01464,0.00488,-0.00732,-0.01952,0.02196,0.11712,0.17568,0.18056,0.14152,0.06832,0.05368
0.0244,-0.01708,0.00976,-0.00244,-0.01464,0.01952,0.10248,0.14152,0.15128,0.10736,0.05368,0.04392
0.03416,-0.01952,0.00488,-0.0122,-0.02928,0.03172,0.0976,0.11712,0.11712,0.08296,0.03904,0.01952
0.02928,-0.01952,0.00976,-0.00488,-0.01952,0.0244,0.08296,0.09272,0.08784,0.0488,0.0244,0.01464
0.0244,-0.01708,0.00976,-0.00244,-0.01464,0.01952,0.06832,0.06832,0.06832,0.01952,0.00488,0.00976
0.00488,0.00244,-0.00976,-0.0122,-0.01464,0.00976,0.05856,0.05856,0.05368,0.00488,-0.00488,0.00488
0.00488,0.00488,-0.01464,-0.01708,-0.01952,0.0122,0.0488,0.03416,0.0244,-0.01464,-0.01952,-0.00488
0,0.0122,-0.0244,-0.0244,-0.0244,0.0122,0.03904,0.0244,0.00488,-0.03904,-0.02928,-0.00976
-0.01464,0.02684,-0.03904,-0.03172,-0.0244,0.00488,0.04392,0.00976,0.00488,-0.02928,-0.03416,-0.0244
-0.00976,0.02196,-0.03416,-0.02928,-0.0244,0.00732,0.03416,-0.00488,-0.00488,-0.05368,-0.04392,-0.03416
0,0.01708,-0.03416,-0.03416,-0.03416,0.01708,0.0244,-0.01464,-0.0244,-0.06832,-0.05368,-0.03416
-0.01464,0.0244,-0.03416,-0.02684,-0.01952,0.00244,0.0244,-0.01952,-0.03416,-0.0732,-0.06832,-0.03904
-0.0244,0.02928,-0.03416,-0.02196,-0.00976,-0.00732,0.01952,-0.03416,-0.03416,-0.08296,-0.06832,-0.04392
-0.02928,0.03416,-0.03904,-0.0244,-0.00976,-0.00976,0.01952,-0.03416,-0.03416,-0.08784,-0.07808,-0.05368
-0.01464,0.03172,-0.0488,-0.04148,-0.03416,0.00976,0.01952,-0.0244,-0.03416,-0.07808,-0.0732,-0.03904
-0.00976,0.02684,-0.04392,-0.03904,-0.03416,0.0122,0.01952,-0.02928,-0.04392,-0.08296,-0.0732,-0.04392
-0.00976,0.02928,-0.0488,-0.04392,-0.03904,0.01464,0.01952,-0.04392,-0.05368,-0.09272,-0.08784,-0.05368
-0.01464,0.03172,-0.0488,-0.04148,-0.03416,0.00976,0.01464,-0.03904,-0.05368,-0.09272,-0.08784,-0.05368
-0.00976,0.0244,-0.03904,-0.03416,-0.02928,0.00976,0.01464,-0.02928,-0.05368,-0.0976,-0.08784,-0.05856
-0.00488,0.02196,-0.03904,-0.0366,-0.03416,0.01464,0.01464,-0.02928,-0.05368,-0.0976,-0.08784,-0.05856
-0.01464,0.03172,-0.0488,-0.04148,-0.03416,0.00976,0.02928,-0.02928,-0.03904,-0.10248,-0.08784,-0.05368
-0.01952,0.03416,-0.0488,-0.03904,-0.02928,0.00488,0.02928,-0.02928,-0.03904,-0.10248,-0.0732,-0.04392
-0.02928,0.04148,-0.05368,-0.03904,-0.0244,-0.00244,0.0244,-0.03904,-0.04392,-0.10248,-0.07808,-0.0488
-0.03416,0.04636,-0.05856,-0.04148,-0.0244,-0.00488,0.0244,-0.03904,-0.04392,-0.08784,-0.0732,-0.0488
-0.01952,0.03416,-0.0488,-0.03904,-0.02928,0.00488,0.02928,-0.02928,-0.03416,-0.07808,-0.0732,-0.0488
-0.00976,0.01952,-0.02928,-0.0244,-0.01952,0.00488,0.02928,-0.02928,-0.03416,-0.08296,-0.0732,-0.04392
-0.01464,0.02196,-0.02928,-0.02196,-0.01464,0,0.01952,-0.0244,-0.02928,-0.08296,-0.06344,-0.04392
-0.01952,0.02928,-0.03904,-0.02928,-0.01952,0,0.0244,-0.01952,-0.0244,-0.07808,-0.06344,-0.04392
-0.01952,0.02684,-0.03416,-0.0244,-0.01464,-0.00244,0.01464,-0.0244,-0.0244,-0.07808,-0.06344,-0.04392
-0.0244,0.02928,-0.03416,-0.02196,-0.00976,-0.00732,0.01952,-0.0244,-0.0244,-0.07808,-0.0732,-0.03904
-0.01952,0.01708,-0.01464,-0.00488,0.00488,-0.0122,0.01952,-0.0244,-0.0244,-0.0732,-0.06344,-0.03904
-0.01464,0.01464,-0.01464,-0.00732,0,-0.00732,0.01952,-0.0244,-0.01952,-0.06832,-0.06344,-0.03904
-0.01464,0.01708,-0.01952,-0.0122,-0.00488,-0.00488,0.02928,-0.0244,-0.01952,-0.05856,-0.06344,-0.0244
-0.01464,0.01708,-0.01952,-0.0122,-0.00488,-0.00488,0.03416,-0.01952,-0.01952,-0.05856,-0.05856,-0.01952
-0.0244,0.01952,-0.01464,-0.00244,0.00976,-0.01708,0.02928,-0.01952,-0.01464,-0.06832,-0.0488,-0.01952
-0.0244,0.01952,-0.01464,-0.00244,0.00976,-0.01708,0.02928,-0.0244,-0.01464,-0.06344,-0.0488,-0.0244
-0.01464,0.01464,-0.01464,-0.00732,0,-0.00732,0.02928,-0.01952,-0.01464,-0.0732,-0.05856,-0.02928
-0.01464,0.0122,-0.00976,-0.00244,0.00488,-0.00976,0.02928,-0.0244,-0.01464,-0.0732,-0.05368,-0.02928
-0.01464,0.00976,-0.00488,0.00244,0.00976,-0.0122,0.01952,-0.02928,-0.02928,-0.0732,-0.05856,-0.03904
-0.01952,0.00488,0.00976,0.01952,0.02928,-0.0244,0.01952,-0.0244,-0.0244,-0.07808,-0.05368,-0.03904
-0.0244,0.01464,-0.00488,0.00732,0.01952,-0.02196,0.02928,-0.01952,-0.00976,-0.05856,-0.04392,-0.03416
-0.0244,0.02196,-0.01952,-0.00732,0.00488,-0.01464,0.02928,-0.00976,-0.00976,-0.05856,-0.04392,-0.0244
-0.00976,0.01708,-0.0244,-0.01952,-0.01464,0.00244,0.01952,-0.01464,-0.0244,-0.06832,-0.0488,-0.01952
-0.00488,0.01464,-0.0244,-0.02196,-0.01952,0.00732,0.01464,-0.0244,-0.0244,-0.0732,-0.0488,-0.01952
-0.00488,0.00488,-0.00488,-0.00244,0,-0.00244,0.0244,-0.01952,-0.01464,-0.06344,-0.04392,-0.02928
-0.00976,0.00488,0,0.00488,0.00976,-0.00976,0.0244,-0.0244,-0.01952,-0.06832,-0.04392,-0.02928
-0.00976,0.00976,-0.00976,-0.00488,0,-0.00488,0.01464,-0.03416,-0.02928,-0.06832,-0.05368,-0.02928
-0.00976,0.00976,-0.00976,-0.00488,0,-0.00488,0.00976,-0.03416,-0.03416,-0.06832,-0.05368,-0.02928
-0.01952,0.01708,-0.01464,-0.00488,0.00488,-0.0122,0.01464,-0.03904,-0.03416,-0.06832,-0.05368,-0.02928
-0.01952,0.01464,-0.00976,0,0.00976,-0.01464,0.01464,-0.04392,-0.03904,-0.0732,-0.0488,-0.03416
-0.03416,0.02928,-0.0244,-0.00732,0.00976,-0.02196,0.01464,-0.03416,-0.02928,-0.0732,-0.0488,-0.0244
-0.03416,0.0366,-0.03904,-0.02196,-0.00488,-0.01464,0.01464,-0.03416,-0.02928,-0.0732,-0.05368,-0.0244
-0.03416,0.04148,-0.0488,-0.03172,-0.01464,-0.00976,0.01464,-0.0488,-0.03416,-0.07808,-0.05856,-0.03416
-0.03416,0.04148,-0.0488,-0.03172,-0.01464,-0.00976,0.01464,-0.0488,-0.03904,-0.07808,-0.05368,-0.03416
-0.02928,0.03172,-0.03416,-0.01952,-0.00488,-0.0122,0,-0.03904,-0.0488,-0.07808,-0.05368,-0.02928
-0.01464,0.01952,-0.0244,-0.01708,-0.00976,-0.00244,0.00488,-0.04392,-0.0488,-0.08296,-0.06344,-0.02928
-0.01952,0.02684,-0.03416,-0.0244,-0.01464,-0.00244,0.01952,-0.03904,-0.04392,-0.08296,-0.05368,-0.02928
-0.01952,0.02684,-0.03416,-0.0244,-0.01464,-0.00244,0.01464,-0.04392,-0.04392,-0.08296,-0.05368,-0.02928
-0.01952,0.02684,-0.03416,-0.0244,-0.01464,-0.00244,0.00488,-0.05368,-0.05856,-0.08784,-0.05856,-0.03904
-0.03416,0.03904,-0.04392,-0.02684,-0.00976,-0.0122,0.00488,-0.05368,-0.05856,-0.08784,-0.06832,-0.03904
-0.02928,0.03416,-0.03904,-0.0244,-0.00976,-0.00976,-0.00488,-0.05856,-0.05856,-0.09272,-0.07808,-0.03904
-0.0244,0.02684,-0.02928,-0.01708,-0.00488,-0.00976,0,-0.05856,-0.06344,-0.0976,-0.0732,-0.0488
-0.03416,0.0366,-0.03904,-0.02196,-0.00488,-0.01464,0.00976,-0.05368,-0.06344,-0.0976,-0.06832,-0.03416
-0.01952,0.02684,-0.03416,-0.0244,-0.01464,-0.00244,0.00976,-0.05856,-0.05856,-0.0976,-0.05856,-0.03904
-0.01952,0.02196,-0.0244,-0.01464,-0.00488,-0.00732,0.00976,-0.05856,-0.05856,-0.0976,-0.05856,-0.03904
-0.0244,0.0244,-0.0244,-0.0122,0,-0.0122,0,-0.05856,-0.05856,-0.09272,-0.06832,-0.0488
-0.0244,0.0244,-0.0244,-0.0122,0,-0.0122,0,-0.05856,-0.05856,-0.09272,-0.06832,-0.0488
-0.0244,0.02196,-0.01952,-0.00732,0.00488,-0.01464,0.01464,-0.05368,-0.05368,-0.0976,-0.06832,-0.03904
-0.01952,0.00976,0,0.00976,0.01952,-0.01952,0.01464,-0.05368,-0.03904,-0.09272,-0.05368,-0.03904
-0.01464,0,0.01464,0.02196,0.02928,-0.02196,0.00976,-0.05856,-0.03904,-0.07808,-0.04392,-0.0244
-0.00976,-0.00732,0.0244,0.02928,0.03416,-0.02196,0.00976,-0.05856,-0.03904,-0.07808,-0.04392,-0.0244
0,-0.00732,0.01464,0.01464,0.01464,-0.00732,0.01952,-0.05856,-0.03416,-0.0732,-0.03416,-0.01952
0.01464,-0.01952,0.0244,0.01708,0.00976,0.00244,0.0244,-0.05368,-0.03416,-0.06832,-0.02928,-0.01464
0.00976,-0.01464,0.01952,0.01464,0.00976,0,0.0244,-0.04392,-0.01952,-0.06832,-0.03416,-0.01464
0,-0.01464,0.02928,0.02928,0.02928,-0.01464,0.0244,-0.04392,-0.00976,-0.06344,-0.03416,-0.00976
0.01464,-0.02684,0.03904,0.03172,0.0244,-0.00488,0.0244,-0.03904,-0.01952,-0.06344,-0.02928,-0.01464
0.03904,-0.0488,0.05856,0.03904,0.01952,0.00976,0.01952,-0.03904,-0.01464,-0.0488,-0.01464,0.00488
0.0488,-0.05124,0.05368,0.02928,0.00488,0.02196,0.00488,-0.03904,-0.00488,-0.03904,-0.00488,0.01952
0.05368,-0.05612,0.05856,0.03172,0.00488,0.0244,-0.00488,-0.0488,-0.00976,-0.03416,0,0.01952
0.04392,-0.05124,0.05856,0.0366,0.01464,0.01464,-0.01464,-0.0732,-0.01952,-0.0488,0.00488,0.0244
0.05368,-0.06832,0.08296,0.05612,0.02928,0.0122,-0.0244,-0.0732,-0.01952,-0.0488,0.00976,0.02928
0.06344,-0.06588,0.06832,0.0366,0.00488,0.02928,-0.02928,-0.06344,-0.01464,-0.03416,0.00976,0.02928
0.06344,-0.0732,0.08296,0.05124,0.01952,0.02196,-0.02928,-0.05856,-0.00976,-0.03416,0.01464,0.03904
0.06344,-0.07076,0.07808,0.04636,0.01464,0.0244,-0.0244,-0.05368,-0.01952,-0.03416,0.01464,0.03904
0.0488,-0.05612,0.06344,0.03904,0.01464,0.01708,-0.03416,-0.06344,-0.03904,-0.05368,-0.00488,0.0244
0.03904,-0.03172,0.0244,0.00488,-0.01464,0.02684,-0.03416,-0.08784,-0.05368,-0.06344,-0.0244,0.00976
0.03416,-0.02196,0.00976,-0.00732,-0.0244,0.02928,-0.03416,-0.09272,-0.05856,-0.07808,-0.03416,0
0.0244,-0.0122,0,-0.0122,-0.0244,0.0244,-0.02928,-0.08784,-0.07808,-0.09272,-0.04392,0
0.01464,0.00976,-0.03416,-0.04148,-0.0488,0.03172,-0.0244,-0.08784,-0.07808,-0.10248,-0.05368,-0.00976
-0.01952,0.0366,-0.05368,-0.04392,-0.03416,0.00732,-0.01464,-0.08784,-0.08296,-0.0976,-0.05368,-0.0244
-0.03904,0.0488,-0.05856,-0.03904,-0.01952,-0.00976,-0.00488,-0.08784,-0.08296,-0.10736,-0.06832,-0.03416
-0.04392,0.05368,-0.06344,-0.04148,-0.01952,-0.0122,-0.01464,-0.08784,-0.09272,-0.122,-0.07808,-0.05856
-0.0488,0.061,-0.0732,-0.0488,-0.0244,-0.0122,-0.01952,-0.08784,-0.0976,-0.13664,-0.08784,-0.05856
-0.05856,0.07564,-0.09272,-0.06344,-0.03416,-0.0122,-0.01952,-0.09272,-0.10736,-0.13176,-0.08784,-0.05856
-0.06832,0.08296,-0.0976,-0.06344,-0.02928,-0.01952,-0.01952,-0.09272,-0.10248,-0.14152,-0.09272,-0.06344
-0.0488,0.07076,-0.09272,-0.06832,-0.04392,-0.00244,-0.00976,-0.08296,-0.10248,-0.12688,-0.08784,-0.06344
-0.03904,0.05612,-0.0732,-0.05368,-0.03416,-0.00244,-0.01464,-0.08296,-0.10248,-0.12688,-0.08296,-0.06344
-0.04392,0.05612,-0.06832,-0.04636,-0.0244,-0.00976,-0.00976,-0.08296,-0.10248,-0.12688,-0.09272,-0.05368
-0.03904,0.061,-0.08296,-0.06344,-0.04392,0.00244,-0.00976,-0.07808,-0.10248,-0.12688,-0.09272,-0.05856
-0.03416,0.061,-0.08784,-0.07076,-0.05368,0.00976,-0.01952,-0.08784,-0.10248,-0.13664,-0.08784,-0.05856
-0.03416,0.061,-0.08784,-0.07076,-0.05368,0.00976,-0.01952,-0.08784,-0.10248,-0.14152,-0.08784,-0.05856
-0.03904,0.061,-0.08296,-0.06344,-0.04392,0.00244,-0.01952,-0.08296,-0.10736,-0.14152,-0.0976,-0.05856
-0.03416,0.05856,-0.08296,-0.06588,-0.0488,0.00732,-0.01952,-0.07808,-0.10248,-0.13664,-0.09272,-0.05856
-0.0488,0.06832,-0.08784,-0.06344,-0.03904,-0.00488,-0.01952,-0.09272,-0.11224,-0.13664,-0.09272,-0.05856
-0.05368,0.07076,-0.08784,-0.061,-0.03416,-0.00976,-0.01464,-0.09272,-0.11224,-0.13664,-0.09272,-0.05856
-0.05856,0.06832,-0.07808,-0.0488,-0.01952,-0.01952,-0.01952,-0.09272,-0.10248,-0.12688,-0.08296,-0.05856
-0.05856,0.06832,-0.07808,-0.0488,-0.01952,-0.01952,-0.01952,-0.09272,-0.10248,-0.12688,-0.08296,-0.05368
-0.0488,0.06344,-0.07808,-0.05368,-0.02928,-0.00976,-0.01464,-0.08784,-0.0976,-0.122,-0.08296,-0.04392
-0.0488,0.061,-0.0732,-0.0488,-0.0244,-0.0122,-0.01464,-0.08784,-0.0976,-0.122,-0.08296,-0.04392
-0.03416,0.05856,-0.08296,-0.06588,-0.0488,0.00732,-0.01464,-0.08296,-0.09272,-0.11712,-0.07808,-0.05368
-0.07808,0.06344,-0.0488,-0.00976,0.02928,-0.05368,0,-0.05856,-0.0732,-0.122,-0.08784,-0.05368
-0.08296,0.0366,0.00976,0.05124,0.09272,-0.08784,0.03904,-0.0488,-0.00488,-0.06344,-0.05856,-0.03904
-0.08296,0.01708,0.0488,0.09028,0.13176,-0.10736,0.03416,-0.02928,0.03904,-0.00488,0.00488,0.00488
-0.02928,-0.0244,0.07808,0.09272,0.10736,-0.06832,0.07808,0.0732,0.1464,0.1708,0.1952,0.16104
0.06344,-0.08052,0.0976,0.06588,0.03416,0.01464,0.13664,0.20496,0.28792,0.41968,0.43432,0.36112
0.20984,-0.183,0.15616,0.05124,-0.05368,0.13176,0.19032,0.40992,0.49288,0.80032,0.83936,0.66368
0.37088,-0.27328,0.17568,-0.00976,-0.1952,0.28304,0.24888,0.59048,0.68808,1.16632,1.19072,0.94184
0.5124,-0.33672,0.16104,-0.09516,-0.35136,0.43188,0.28304,0.71248,0.83936,1.49328,1.44936,1.11264
0.59536,-0.30744,0.01952,-0.27816,-0.57584,0.5856,0.27816,0.67832,0.8052,1.57136,1.4152,1.0492
0.58072,-0.27084,-0.03904,-0.3294,-0.61976,0.60024,0.06344,0.2928,0.54168,1.35664,1.18584,0.86864
0.41968,-0.14884,-0.122,-0.33184,-0.54168,0.48068,-0.17568,-0.21472,0.03416,0.61488,0.44896,0.33184
0.25864,-0.0854,-0.08784,-0.21716,-0.34648,0.30256,-0.40992,-0.67344,-0.45384,-0.05368,-0.04392,0.00976
0.07808,0.04148,-0.16104,-0.20008,-0.23912,0.1586,-0.42456,-0.80032,-0.68808,-0.47336,-0.31232,-0.16104
-0.0244,0.09272,-0.16104,-0.14884,-0.13664,0.05612,-0.42944,-0.8296,-0.81984,-0.72712,-0.48312,-0.28304
-0.05368,0.12444,-0.1952,-0.16836,-0.14152,0.04392,-0.37088,-0.74664,-0.75152,-0.69784,-0.47824,-0.30744
-0.06832,0.122,-0.17568,-0.14152,-0.10736,0.01952,-0.37088,-0.6588,-0.65392,-0.60024,-0.41968,-0.27816
-0.07808,0.11956,-0.16104,-0.122,-0.08296,0.00244,-0.27816,-0.47336,-0.48312,-0.44408,-0.29768,-0.18544
-0.05856,0.07808,-0.0976,-0.06832,-0.03904,-0.00976,-0.1952,-0.30256,-0.31232,-0.2928,-0.20008,-0.11712
-0.01952,0.03416,-0.0488,-0.03904,-0.02928,0.00488,-0.09272,-0.19032,-0.1952,-0.1952,-0.122,-0.08296
-0.02928,0.05368,-0.07808,-0.06344,-0.0488,0.00976,-0.04392,-0.13176,-0.13664,-0.15128,-0.11712,-0.07808
-0.01952,0.0244,-0.02928,-0.01952,-0.00976,-0.00488,-0.01464,-0.0976,-0.11712,-0.14152,-0.10736,-0.06344
-0.04392,0.0366,-0.02928,-0.00732,0.01464,-0.02928,0,-0.0732,-0.09272,-0.13176,-0.08784,-0.0488
-0.05368,0.05124,-0.0488,-0.02196,0.00488,-0.02928,0,-0.06832,-0.08296,-0.12688,-0.09272,-0.0488
-0.05368,0.05856,-0.06344,-0.0366,-0.00976,-0.02196,-0.00488,-0.05856,-0.08784,-0.122,-0.09272,-0.05368
-0.05856,0.061,-0.06344,-0.03416,-0.00488,-0.02684,0,-0.05856,-0.08784,-0.122,-0.09272,-0.05856
-0.05368,0.05124,-0.0488,-0.02196,0.00488,-0.02928,0.00488,-0.04392,-0.06344,-0.11224,-0.08296,-0.04392
-0.04392,0.04636,-0.0488,-0.02684,-0.00488,-0.01952,0.00488,-0.03904,-0.06344,-0.10736,-0.08296,-0.03904
-0.02928,0.0366,-0.04392,-0.02928,-0.01464,-0.00732,0.00488,-0.03904,-0.06832,-0.10736,-0.08296,-0.0488
-0.02928,0.0366,-0.04392,-0.02928,-0.01464,-0.00732,0.00976,-0.03904,-0.06344,-0.10248,-0.08296,-0.0488
-0.03416,0.04392,-0.05368,-0.0366,-0.01952,-0.00732,0.01952,-0.03416,-0.0488,-0.10248,-0.06832,-0.03416
-0.04392,0.0488,-0.05368,-0.03172,-0.00976,-0.01708,0.0244,-0.02928,-0.03904,-0.0976,-0.06832,-0.03416
-0.03904,0.04392,-0.0488,-0.02928,-0.00976,-0.01464,0.01952,-0.03416,-0.0488,-0.0976,-0.07808,-0.03416
-0.03904,0.04392,-0.0488,-0.02928,-0.00976,-0.01464,0.01464,-0.02928,-0.0488,-0.09272,-0.07808,-0.04392
-0.0488,0.04392,-0.03904,-0.01464,0.00976,-0.02928,0.01952,-0.0244,-0.03904,-0.08784,-0.06344,-0.04392
-0.0488,0.04392,-0.03904,-0.01464,0.00976,-0.02928,0.0244,-0.0244,-0.03904,-0.08296,-0.06344,-0.03904
-0.05856,0.05124,-0.04392,-0.01464,0.01464,-0.0366,0.02928,-0.01464,-0.02928,-0.08784,-0.05856,-0.03904
-0.05856,0.05124,-0.04392,-0.01464,0.01464,-0.0366,0.02928,-0.01464,-0.02928,-0.08784,-0.05856,-0.03904
-0.05856,0.05612,-0.05368,-0.0244,0.00488,-0.03172,0.02928,-0.00976,-0.03416,-0.08296,-0.06832,-0.03904
-0.05368,0.0488,-0.04392,-0.01708,0.00976,-0.03172,0.02928,-0.00976,-0.02928,-0.08296,-0.06832,-0.03904
-0.04392,0.04636,-0.0488,-0.02684,-0.00488,-0.01952,0.03416,0.00488,-0.0244,-0.06832,-0.05856,-0.03904
-0.04392,0.04636,-0.0488,-0.02684,-0.00488,-0.01952,0.03416,0.00976,-0.01952,-0.05856,-0.05368,-0.03904
-0.04392,0.0488,-0.05368,-0.03172,-0.00976,-0.01708,0.03904,0.01952,-0.00976,-0.0488,-0.05368,-0.0244
-0.03904,0.0488,-0.05856,-0.03904,-0.01952,-0.00976,0.04392,0.0244,-0.00488,-0.0488,-0.0488,-0.0244
-0.03416,0.04636,-0.05856,-0.04148,-0.0244,-0.00488,0.03416,0.01952,-0.00976,-0.05368,-0.05856,-0.03416
-0.0488,0.0488,-0.0488,-0.0244,0,-0.0244,0.03416,0.02928,0.00488,-0.03904,-0.05368,-0.02928
-0.03904,0.0366,-0.03416,-0.01464,0.00488,-0.02196,0.03904,0.02928,0.00488,-0.0244,-0.05856,-0.0244
-0.0244,0.0244,-0.0244,-0.0122,0,-0.0122,0.03904,0.03416,0.01464,-0.01952,-0.0488,-0.0244
-0.03416,0.02684,-0.01952,-0.00244,0.01464,-0.0244,0.05856,0.05368,0.03904,-0.00488,-0.03904,-0.00976
-0.02928,0.03416,-0.03904,-0.0244,-0.00976,-0.00976,0.06344,0.06344,0.0488,0.00976,-0.0244,-0.00976
-0.0244,0.03172,-0.03904,-0.02684,-0.01464,-0.00488,0.06344,0.06832,0.05856,0.01464,-0.01464,-0.00976
-0.03416,0.03416,-0.03416,-0.01708,0,-0.01708,0.06832,0.08784,0.07808,0.03416,-0.00488,-0.00488
-0.0244,0.01952,-0.01464,-0.00244,0.00976,-0.01708,0.0732,0.09272,0.0976,0.05856,0,0
-0.00488,0.00976,-0.01464,-0.0122,-0.00976,0.00244,0.08296,0.11224,0.11712,0.08296,0.01464,0.00976
0,0.00488,-0.00976,-0.00976,-0.00976,0.00488,0.08296,0.12688,0.13664,0.10248,0.0244,0.01464
0.00488,0,-0.00488,-0.00732,-0.00976,0.00732,0.09272,0.15128,0.16104,0.11712,0.03904,0.02928
0.00488,-0.00488,0.00488,0.00244,0,0.00244,0.10248,0.18056,0.19032,0.15616,0.05856,0.03904
0.00488,-0.01464,0.0244,0.02196,0.01952,-0.00732,0.11224,0.20008,0.20008,0.18056,0.0732,0.04392
0.01464,-0.01708,0.01952,0.0122,0.00488,0.00488,0.11224,0.20984,0.21472,0.20008,0.09272,0.05368
0.01952,-0.02196,0.0244,0.01464,0.00488,0.00732,0.122,0.21472,0.23912,0.2196,0.10736,0.06832
0.0244,-0.02196,0.01952,0.00732,-0.00488,0.01464,0.13664,0.23424,0.25376,0.25376,0.12688,0.0732
0.02928,-0.0244,0.01952,0.00488,-0.00976,0.01952,0.1464,0.25864,0.27328,0.28304,0.13176,0.08296
0.04392,-0.03416,0.0244,0.00244,-0.01952,0.03172,0.14152,0.2684,0.28792,0.2928,0.1464,0.0976
0.0488,-0.04148,0.03416,0.00976,-0.01464,0.03172,0.15616,0.28792,0.30256,0.31232,0.16104,0.10736
0.03904,-0.04148,0.04392,0.0244,0.00488,0.01708,0.1708,0.2928,0.32696,0.32696,0.18056,0.11224
0.04392,-0.04392,0.04392,0.02196,0,0.02196,0.16592,0.30256,0.33184,0.3416,0.18056,0.11712
0.03904,-0.03416,0.02928,0.00976,-0.00976,0.0244,0.16592,0.30256,0.33184,0.3416,0.18544,0.11224
0.04392,-0.03172,0.01952,-0.00244,-0.0244,0.03416,0.16592,0.30256,0.33672,0.34648,0.19032,0.11224
0.05368,-0.04148,0.02928,0.00244,-0.0244,0.03904,0.16592,0.30256,0.33672,0.34648,0.18544,0.11224
0.05368,-0.04148,0.02928,0.00244,-0.0244,0.03904,0.16592,0.30256,0.32208,0.33672,0.18544,0.11224
0.05856,-0.04148,0.0244,-0.00488,-0.03416,0.04636,0.16104,0.2928,0.32208,0.33184,0.17568,0.11224
0.05856,-0.04148,0.0244,-0.00488,-0.03416,0.04636,0.16104,0.28792,0.31232,0.32208,0.1708,0.11224
0.04392,-0.03416,0.0244,0.00244,-0.01952,0.03172,0.1464,0.27816,0.30256,0.31232,0.16592,0.122
0.04392,-0.03416,0.0244,0.00244,-0.01952,0.03172,0.14152,0.25376,0.28304,0.28792,0.16104,0.122
0.05368,-0.04392,0.03416,0.00732,-0.01952,0.0366,0.1464,0.23912,0.26352,0.25864,0.15128,0.122
0.0488,-0.04148,0.03416,0.00976,-0.01464,0.03172,0.13664,0.2196,0.23912,0.23424,0.14152,0.11224
0.05856,-0.0488,0.03904,0.00976,-0.01952,0.03904,0.122,0.20008,0.22448,0.20496,0.12688,0.0976
0.04392,-0.03904,0.03416,0.0122,-0.00976,0.02684,0.11224,0.17568,0.1952,0.16592,0.10736,0.09272
0.03904,-0.02928,0.01952,0,-0.01952,0.02928,0.0976,0.15616,0.1708,0.15128,0.08784,0.08296
0.02928,-0.02196,0.01464,0,-0.01464,0.02196,0.08296,0.122,0.14152,0.11712,0.0732,0.0732
0.0244,-0.01952,0.01464,0.00244,-0.00976,0.01708,0.08784,0.10736,0.11712,0.09272,0.06832,0.05856
0.01952,-0.01952,0.01952,0.00976,0,0.00976,0.0732,0.08296,0.08784,0.05856,0.05368,0.05368
0.01464,-0.0122,0.00976,0.00244,-0.00488,0.00976,0.06832,0.05856,0.05856,0.02928,0.03416,0.03904
-0.00488,0.00732,-0.00976,-0.00732,-0.00488,0,0.05856,0.0488,0.04392,0.01464,0.0244,0.03416
-0.01464,0.01464,-0.01464,-0.00732,0,-0.00732,0.0488,0.0244,0.0244,0.00488,0.00976,0.01464
-0.01952,0.02196,-0.0244,-0.01464,-0.00488,-0.00732,0.03904,0.01464,0.00488,-0.01952,0,0.00976
-0.01464,0.02196,-0.02928,-0.02196,-0.01464,0,0.03416,0,-0.00488,-0.02928,-0.01464,0.00488
-0.00976,0.01708,-0.0244,-0.01952,-0.01464,0.00244,0.0244,-0.01464,-0.01464,-0.05368,-0.0244,-0.00488
0,0.01708,-0.03416,-0.03416,-0.03416,0.01708,0.01464,-0.0244,-0.0244,-0.05856,-0.03904,-0.00488
-0.01464,0.0244,-0.03416,-0.02684,-0.01952,0.00244,0.01464,-0.02928,-0.03416,-0.06344,-0.04392,-0.00976
-0.0244,0.03904,-0.05368,-0.04148,-0.02928,0.00244,0.00976,-0.04392,-0.05368,-0.08296,-0.05856,-0.01464
-0.02928,0.04392,-0.05856,-0.04392,-0.02928,0,0.00976,-0.04392,-0.05368,-0.08784,-0.06832,-0.0244
-0.0244,0.0366,-0.0488,-0.0366,-0.0244,0,0.00976,-0.04392,-0.05368,-0.08784,-0.05368,-0.01952
-0.01952,0.03172,-0.04392,-0.03416,-0.0244,0.00244,0.00976,-0.0488,-0.06344,-0.09272,-0.05368,-0.0244
-0.00976,0.03416,-0.05856,-0.05368,-0.0488,0.01952,0.00976,-0.04392,-0.05368,-0.08296,-0.05856,-0.01464
-0.01464,0.0366,-0.05856,-0.05124,-0.04392,0.01464,0.00488,-0.03904,-0.05368,-0.08296,-0.05856,-0.01464
-0.02928,0.03904,-0.0488,-0.03416,-0.01952,-0.00488,0.01464,-0.03904,-0.05368,-0.08784,-0.05856,-0.01952
-0.0244,0.0366,-0.0488,-0.0366,-0.0244,0,0.01464,-0.03904,-0.05368,-0.08784,-0.05856,-0.01952
-0.01952,0.02928,-0.03904,-0.02928,-0.01952,0,0.00976,-0.03904,-0.0488,-0.0732,-0.05368,-0.01952
-0.01464,0.02684,-0.03904,-0.03172,-0.0244,0.00488,0.00976,-0.03904,-0.0488,-0.0732,-0.0488,-0.01952
-0.00976,0.02196,-0.03416,-0.02928,-0.0244,0.00732,0.00488,-0.0488,-0.04392,-0.08784,-0.05856,-0.01952
-0.01464,0.02684,-0.03904,-0.03172,-0.0244,0.00488,0.00488,-0.0488,-0.04392,-0.08296,-0.05368,-0.01952
-0.01464,0.02928,-0.04392,-0.0366,-0.02928,0.00732,0,-0.0488,-0.04392,-0.07808,-0.05368,-0.01952
-0.01464,0.0244,-0.03416,-0.02684,-0.01952,0.00244,0,-0.0488,-0.04392,-0.08296,-0.05368,-0.01464
-0.0244,0.02928,-0.03416,-0.02196,-0.00976,-0.00732,0.00976,-0.04392,-0.0488,-0.08296,-0.05368,-0.00488
-0.02928,0.03172,-0.03416,-0.01952,-0.00488,-0.0122,0.01464,-0.03904,-0.04392,-0.07808,-0.05368,-0.00488
-0.01952,0.02196,-0.0244,-0.01464,-0.00488,-0.00732,0.00488,-0.03416,-0.03416,-0.06832,-0.0488,-0.00488
-0.0244,0.0244,-0.0244,-0.0122,0,-0.0122,0.00976,-0.03416,-0.03416,-0.06832,-0.0488,0
-0.01952,0.01952,-0.01952,-0.00976,0,-0.00976,0,-0.03416,-0.0244,-0.0732,-0.04392,0.00976
-0.01464,0.02196,-0.02928,-0.02196,-0.01464,0,0,-0.03416,-0.01952,-0.06832,-0.04392,0.00976
-0.0244,0.02684,-0.02928,-0.01708,-0.00488,-0.00976,0.00976,-0.03416,-0.01952,-0.05856,-0.04392,0.00488
-0.0244,0.02684,-0.02928,-0.01708,-0.00488,-0.00976,0.01464,-0.02928,-0.01952,-0.05856,-0.03904,0.00976
-0.01952,0.0244,-0.02928,-0.01952,-0.00976,-0.00488,0.00976,-0.03904,-0.0244,-0.05856,-0.03904,0.00976
-0.00976,0.01464,-0.01952,-0.01464,-0.00976,0,0.00976,-0.04392,-0.0244,-0.05368,-0.03904,0.00488
0,0.00976,-0.01952,-0.01952,-0.01952,0.00976,0,-0.02928,-0.0244,-0.04392,-0.03904,0.00976
-0.00976,0.00732,-0.00488,0,0.00488,-0.00732,0,-0.03416,-0.0244,-0.04392,-0.03416,0.00976
-0.00488,0.0122,-0.01952,-0.01708,-0.01464,0.00488,0.00976,-0.03904,-0.01952,-0.04392,-0.02928,0.00976
-0.00976,0.0122,-0.01464,-0.00976,-0.00488,-0.00244,0.00976,-0.03416,-0.01464,-0.0488,-0.0244,0.00976
-0.01464,0.0122,-0.00976,-0.00244,0.00488,-0.00976,0,-0.03416,-0.01952,-0.03904,-0.0244,0.01952
-0.01464,0.01464,-0.01464,-0.00732,0,-0.00732,0,-0.03416,-0.01952,-0.03904,-0.0244,0.01952
-0.01952,0.02196,-0.0244,-0.01464,-0.00488,-0.00732,0,-0.0488,-0.0244,-0.03904,-0.02928,0.01464
-0.01464,0.01952,-0.0244,-0.01708,-0.00976,-0.00244,-0.00488,-0.0488,-0.0244,-0.04392,-0.02928,0.00488
-0.00488,0.01464,-0.0244,-0.02196,-0.01952,0.00732,-0.00488,-0.03904,-0.0244,-0.04392,-0.0244,0.00976
-0.00976,0.01464,-0.01952,-0.01464,-0.00976,0,-0.00488,-0.04392,-0.02928,-0.0488,-0.0244,0.00976
0,0.00732,-0.01464,-0.01464,-0.01464,0.00732,-0.00488,-0.04392,-0.02928,-0.0488,-0.0244,0
0,0.00244,-0.00488,-0.00488,-0.00488,0.00244,-0.00976,-0.04392,-0.03416,-0.0488,-0.0244,0
-0.01464,0.01464,-0.01464,-0.00732,0,-0.00732,-0.00488,-0.05856,-0.03416,-0.05368,-0.03416,0.00976
-0.0244,0.01708,-0.00976,0.00244,0.01464,-0.01952,-0.00488,-0.06344,-0.03904,-0.06832,-0.02928,0.00488
-0.04392,0.02928,-0.01464,0.00732,0.02928,-0.0366,-0.01464,-0.06344,-0.03904,-0.06344,-0.02928,0.01464
-0.04392,0.0366,-0.02928,-0.00732,0.01464,-0.02928,-0.01464,-0.06344,-0.03904,-0.06344,-0.03416,0.01464
-0.0244,0.02684,-0.02928,-0.01708,-0.00488,-0.00976,-0.00488,-0.06832,-0.04392,-0.06832,-0.03904,0.01464
-0.00488,0.01708,-0.02928,-0.02684,-0.0244,0.00976,-0.00488,-0.06832,-0.0488,-0.06832,-0.03416,0.01464
-0.00976,0.01464,-0.01952,-0.01464,-0.00976,0,-0.00976,-0.06832,-0.03904,-0.06832,-0.0244,0.00976
-0.01464,0.01708,-0.01952,-0.0122,-0.00488,-0.00488,-0.00488,-0.0732,-0.03904,-0.0732,-0.03416,0.00976
-0.02928,0.02196,-0.01464,0,0.01464,-0.02196,-0.00976,-0.07808,-0.0488,-0.08296,-0.04392,0
-0.02928,0.02196,-0.01464,0,0.01464,-0.02196,-0.01464,-0.08296,-0.05856,-0.08296,-0.04392,0
-0.02928,0.02684,-0.0244,-0.00976,0.00488,-0.01708,-0.01464,-0.07808,-0.05856,-0.08296,-0.03416,0.00976
-0.04392,0.03904,-0.03416,-0.0122,0.00976,-0.02684,-0.01464,-0.06832,-0.05856,-0.0732,-0.03416,0.00976
-0.02928,0.02684,-0.0244,-0.00976,0.00488,-0.01708,-0.0244,-0.06832,-0.05856,-0.08296,-0.03904,0.00976
-0.01464,0.01464,-0.01464,-0.00732,0,-0.00732,-0.02928,-0.07808,-0.0732,-0.08784,-0.04392,0
-0.02928,0.03416,-0.03904,-0.0244,-0.00976,-0.00976,-0.02928,-0.07808,-0.06832,-0.08784,-0.03904,0
-0.02928,0.03416,-0.03904,-0.0244,-0.00976,-0.00976,-0.02928,-0.07808,-0.06832,-0.08784,-0.03904,0
-0.03416,0.0366,-0.03904,-0.02196,-0.00488,-0.01464,-0.01952,-0.07808,-0.06832,-0.08296,-0.0488,0
-0.03416,0.03172,-0.02928,-0.0122,0.00488,-0.01952,-0.01952,-0.07808,-0.06832,-0.08296,-0.0488,0
-0.0244,0.01952,-0.01464,-0.00244,0.00976,-0.01708,-0.0244,-0.08296,-0.05368,-0.07808,-0.03904,0.01952
-0.01952,0.00244,0.01464,0.0244,0.03416,-0.02684,-0.0244,-0.08296,-0.03904,-0.0732,-0.0244,0.01952
-0.00488,-0.00732,0.01952,0.02196,0.0244,-0.01464,-0.01952,-0.07808,-0.03904,-0.06832,-0.0244,0.0244
0,-0.00976,0.01952,0.01952,0.01952,-0.00976,-0.01952,-0.07808,-0.03904,-0.06832,-0.0244,0.0244
-0.00488,0,0.00488,0.00732,0.00976,-0.00732,-0.01952,-0.07808,-0.04392,-0.0732,-0.03416,0.02928
0,-0.00732,0.01464,0.01464,0.01464,-0.00732,-0.01464,-0.0732,-0.04392,-0.06832,-0.02928,0.03416
0.00488,-0.01708,0.02928,0.02684,0.0244,-0.00976,-0.01464,-0.06344,-0.02928,-0.05856,-0.0244,0.03416
0.00488,-0.02196,0.03904,0.0366,0.03416,-0.01464,-0.01464,-0.06344,-0.01952,-0.05368,-0.0244,0.03904
0.01464,-0.03172,0.0488,0.04148,0.03416,-0.00976,-0.01464,-0.06832,-0.01952,-0.04392,-0.00976,0.04392
0.03904,-0.05368,0.06832,0.0488,0.02928,0.00488,-0.01952,-0.06832,-0.01464,-0.02928,0.00488,0.06344
0.03904,-0.05368,0.06832,0.0488,0.02928,0.00488,-0.0244,-0.06832,-0.01464,-0.03904,0.0244,0.07808
0.04392,-0.05368,0.06344,0.04148,0.01952,0.0122,-0.03416,-0.07808,-0.01952,-0.03416,0.02928,0.07808
0.05368,-0.05856,0.06344,0.0366,0.00976,0.02196,-0.04392,-0.09272,-0.01952,-0.03416,0.0244,0.09272
0.06344,-0.08052,0.0976,0.06588,0.03416,0.01464,-0.05368,-0.09272,-0.01952,-0.0244,0.02928,0.0976
0.0732,-0.08052,0.08784,0.05124,0.01464,0.02928,-0.0488,-0.09272,-0.0244,-0.00976,0.02928,0.09272
0.0732,-0.08784,0.10248,0.06588,0.02928,0.02196,-0.0488,-0.08784,-0.01952,-0.01952,0.03416,0.09272
0.06832,-0.07808,0.08784,0.05368,0.01952,0.0244,-0.05368,-0.08296,-0.0244,-0.0244,0.03416,0.07808
0.04392,-0.05856,0.0732,0.05124,0.02928,0.00732,-0.06344,-0.09272,-0.05368,-0.04392,0.01464,0.06344
0.02928,-0.03172,0.03416,0.01952,0.00488,0.0122,-0.05368,-0.0976,-0.07808,-0.05368,0.00488,0.05856
0.0244,-0.0122,0,-0.0122,-0.0244,0.0244,-0.05368,-0.10248,-0.0732,-0.06832,-0.00488,0.0488
-0.00488,0.0122,-0.01952,-0.01708,-0.01464,0.00488,-0.03904,-0.0976,-0.07808,-0.06344,-0.00488,0.0488
-0.01464,0.03416,-0.05368,-0.04636,-0.03904,0.0122,-0.03416,-0.0976,-0.07808,-0.0732,-0.01464,0.03904
-0.03416,0.04392,-0.05368,-0.0366,-0.01952,-0.00732,-0.04392,-0.10736,-0.08784,-0.08296,-0.02928,0.01952
-0.04392,0.05124,-0.05856,-0.0366,-0.01464,-0.01464,-0.03416,-0.10736,-0.0976,-0.10248,-0.05368,0
-0.03904,0.04636,-0.05368,-0.03416,-0.01464,-0.0122,-0.03416,-0.10736,-0.10248,-0.11712,-0.06344,-0.00976
-0.03416,0.0488,-0.06344,-0.04636,-0.02928,-0.00244,-0.03904,-0.10736,-0.10736,-0.122,-0.06344,-0.00976
-0.03904,0.05124,-0.06344,-0.04392,-0.0244,-0.00732,-0.02928,-0.10736,-0.10736,-0.11224,-0.06832,0
-0.0488,0.05856,-0.06832,-0.04392,-0.01952,-0.01464,-0.02928,-0.0976,-0.10248,-0.122,-0.0732,-0.00488
-0.05368,0.06588,-0.07808,-0.05124,-0.0244,-0.01464,-0.02928,-0.10248,-0.10248,-0.11712,-0.06832,-0.00488
-0.05368,0.061,-0.06832,-0.04148,-0.01464,-0.01952,-0.03416,-0.10248,-0.10248,-0.11712,-0.06344,-0.00488
-0.05368,0.05856,-0.06344,-0.0366,-0.00976,-0.02196,-0.03904,-0.11224,-0.11224,-0.11712,-0.0732,-0.01464
-0.0488,0.05856,-0.06832,-0.04392,-0.01952,-0.01464,-0.03904,-0.10736,-0.11224,-0.11712,-0.0732,-0.01952
-0.0488,0.06588,-0.08296,-0.05856,-0.03416,-0.00732,-0.02928,-0.10736,-0.10248,-0.11712,-0.07808,-0.01952
-0.03904,0.06588,-0.09272,-0.0732,-0.05368,0.00732,-0.02928,-0.10736,-0.10248,-0.122,-0.07808,-0.01952
-0.0488,0.06588,-0.08296,-0.05856,-0.03416,-0.00732,-0.02928,-0.11224,-0.11712,-0.13176,-0.07808,-0.01952
-0.04392,0.06344,-0.08296,-0.061,-0.03904,-0.00244,-0.02928,-0.10736,-0.11224,-0.12688,-0.0732,-0.01952
-0.03904,0.05856,-0.07808,-0.05856,-0.03904,0,-0.03904,-0.11224,-0.11224,-0.12688,-0.0732,-0.01952
-0.04392,0.061,-0.07808,-0.05612,-0.03416,-0.00488,-0.03416,-0.11224,-0.11224,-0.12688,-0.0732,-0.01952
-0.05368,0.06588,-0.07808,-0.05124,-0.0244,-0.01464,-0.0488,-0.11224,-0.11224,-0.12688,-0.08296,-0.01952
-0.06344,0.07076,-0.07808,-0.04636,-0.01464,-0.0244,-0.0488,-0.11224,-0.11224,-0.12688,-0.08296,-0.01464
-0.06344,0.07076,-0.07808,-0.04636,-0.01464,-0.0244,-0.04392,-0.10736,-0.10736,-0.122,-0.0732,-0.01464
-0.05368,0.06344,-0.0732,-0.04636,-0.01952,-0.01708,-0.04392,-0.10736,-0.10736,-0.122,-0.0732,-0.01464
-0.04392,0.05368,-0.06344,-0.04148,-0.01952,-0.0122,-0.03416,-0.09272,-0.08296,-0.11712,-0.05856,-0.01464
-0.06832,0.05856,-0.0488,-0.01464,0.01952,-0.04392,0.00976,-0.06832,-0.04392,-0.0732,-0.03904,-0.00488
-0.0732,0.01708,0.03904,0.07564,0.11224,-0.09272,0.01952,-0.0488,0.00488,-0.0244,-0.00976,0.00976
-0.06344,0.00244,0.05856,0.09028,0.122,-0.09272,0.03416,-0.02928,0.06832,0.05368,0.08296,0.08296
-0.02928,-0.0244,0.07808,0.09272,0.10736,-0.06832,0.08784,0.10248,0.22448,0.28792,0.31232,0.25864
0.10248,-0.11468,0.12688,0.07564,0.0244,0.03904,0.12688,0.25376,0.38552,0.5856,0.61976,0.50752
0.27816,-0.2318,0.18544,0.04636,-0.09272,0.18544,0.19032,0.47824,0.59048,1.00528,1.03456,0.83936
0.41968,-0.32208,0.22448,0.01464,-0.1952,0.30744,0.23912,0.61,0.77592,1.37128,1.38592,1.11752
0.53192,-0.3172,0.10248,-0.16348,-0.42944,0.48068,0.30256,0.76128,0.9272,1.67872,1.60552,1.22
0.57584,-0.28304,-0.00976,-0.29768,-0.5856,0.58072,0.19032,0.54168,0.78568,1.66896,1.53232,1.13704
0.54168,-0.23668,-0.06832,-0.33916,-0.61,0.57584,-0.01464,0.15616,0.45384,1.3176,1.13704,0.85888
0.38064,-0.14884,-0.08296,-0.27328,-0.4636,0.42212,-0.30256,-0.40992,-0.16104,0.4392,0.32208,0.2928
0.20008,-0.05612,-0.08784,-0.18788,-0.28792,0.244,-0.4392,-0.74176,-0.55144,-0.14152,-0.0732,0.02928
0.03904,0.05612,-0.15128,-0.1708,-0.19032,0.11468,-0.4636,-0.83936,-0.77592,-0.59048,-0.36112,-0.19032
-0.0732,0.122,-0.1708,-0.1342,-0.0976,0.0122,-0.40992,-0.79056,-0.80032,-0.7076,-0.43432,-0.22448
-0.04392,0.10492,-0.16592,-0.14396,-0.122,0.03904,-0.3904,-0.71736,-0.732,-0.6588,-0.42944,-0.23912
-0.0488,0.10736,-0.16592,-0.14152,-0.11712,0.03416,-0.36112,-0.60024,-0.61488,-0.53192,-0.35136,-0.20008
-0.01952,0.07564,-0.13176,-0.122,-0.11224,0.04636,-0.27816,-0.42456,-0.42456,-0.35624,-0.2196,-0.10736
-0.02928,0.04392,-0.05856,-0.04392,-0.02928,0,-0.16592,-0.26352,-0.26352,-0.23424,-0.13176,-0.0488
-0.01952,0.04392,-0.06832,-0.05856,-0.0488,0.01464,-0.08296,-0.16104,-0.16592,-0.1464,-0.09272,-0.0244
-0.02928,0.0488,-0.06832,-0.05368,-0.03904,0.00488,-0.03416,-0.11224,-0.12688,-0.122,-0.07808,-0.01952
-0.0488,0.06344,-0.07808,-0.05368,-0.02928,-0.00976,-0.0244,-0.08784,-0.0976,-0.11224,-0.06832,-0.01464
-0.0488,0.06344,-0.07808,-0.05368,-0.02928,-0.00976,-0.01952,-0.0732,-0.08784,-0.10736,-0.05368,-0.01952
-0.0488,0.06344,-0.07808,-0.05368,-0.02928,-0.00976,-0.01952,-0.06832,-0.08784,-0.11224,-0.06832,-0.01952
-0.05368,0.07076,-0.08784,-0.061,-0.03416,-0.00976,-0.00488,-0.07808,-0.07808,-0.11224,-0.0732,-0.01464
-0.05856,0.07808,-0.0976,-0.06832,-0.03904,-0.00976,0,-0.07808,-0.07808,-0.11224,-0.0732,-0.01952
-0.0488,0.061,-0.0732,-0.0488,-0.0244,-0.0122,-0.00488,-0.06344,-0.0732,-0.11224,-0.05368,-0.0244
-0.0488,0.05612,-0.06344,-0.03904,-0.01464,-0.01708,-0.00488,-0.05856,-0.0732,-0.10736,-0.05368,-0.01952
-0.0488,0.061,-0.0732,-0.0488,-0.0244,-0.0122,-0.00488,-0.0488,-0.05856,-0.0976,-0.05368,-0.00976
-0.0488,0.061,-0.0732,-0.0488,-0.0244,-0.0122,0,-0.0488,-0.05368,-0.09272,-0.05368,-0.00976
-0.0488,0.061,-0.0732,-0.0488,-0.0244,-0.0122,0.00976,-0.04392,-0.0488,-0.08296,-0.03904,-0.00488
-0.0488,0.061,-0.0732,-0.0488,-0.0244,-0.0122,0.01464,-0.03904,-0.03904,-0.07808,-0.03904,-0.00488
-0.05856,0.06832,-0.07808,-0.0488,-0.01952,-0.01952,0.01464,-0.04392,-0.03904,-0.08784,-0.0488,-0.00976
-0.05856,0.06832,-0.07808,-0.0488,-0.01952,-0.01952,0.01952,-0.03904,-0.03904,-0.08296,-0.0488,-0.00976
-0.05368,0.05856,-0.06344,-0.0366,-0.00976,-0.02196,0.00976,-0.03416,-0.01952,-0.06832,-0.04392,-0.01464
-0.04392,0.0488,-0.05368,-0.03172,-0.00976,-0.01708,0.01464,-0.03416,-0.01952,-0.06344,-0.04392,-0.00976
-0.0488,0.05612,-0.06344,-0.03904,-0.01464,-0.01708,0.01952,-0.03416,-0.01952,-0.05856,-0.02928,0
-0.0488,0.05612,-0.06344,-0.03904,-0.01464,-0.01708,0.01952,-0.03416,-0.01952,-0.05856,-0.02928,0
-0.05856,0.05612,-0.05368,-0.0244,0.00488,-0.03172,0.00976,-0.02928,-0.0244,-0.06344,-0.02928,-0.00976
-0.05368,0.0488,-0.04392,-0.01708,0.00976,-0.03172,0.00976,-0.02928,-0.01952,-0.06344,-0.02928,-0.00976
-0.04392,0.05124,-0.05856,-0.0366,-0.01464,-0.01464,0.01464,-0.0244,-0.01464,-0.06832,-0.03904,-0.00976
-0.04392,0.05124,-0.05856,-0.0366,-0.01464,-0.01464,0.01464,-0.01952,-0.00976,-0.05856,-0.03416,-0.00976
-0.03416,0.04636,-0.05856,-0.04148,-0.0244,-0.00488,0.0244,0,0.00976,-0.04392,-0.0244,0.00488
-0.02928,0.04148,-0.05368,-0.03904,-0.0244,-0.00244,0.03904,0.00488,0.01464,-0.03416,-0.01952,0.00488
-0.01952,0.0366,-0.05368,-0.04392,-0.03416,0.00732,0.03416,0,0.01952,-0.0244,-0.01952,-0.00488
-0.0244,0.03904,-0.05368,-0.04148,-0.02928,0.00244,0.03416,0.00976,0.03416,-0.00976,-0.01464,0
-0.03904,0.04392,-0.0488,-0.02928,-0.00976,-0.01464,0.03904,0.01952,0.04392,-0.00488,-0.01952,0.00488
-0.04392,0.04636,-0.0488,-0.02684,-0.00488,-0.01952,0.03904,0.0244,0.05368,0,-0.00976,0.00488
-0.03904,0.04392,-0.0488,-0.02928,-0.00976,-0.01464,0.0488,0.03416,0.05856,0.01464,0.00488,0.00976
-0.0244,0.0366,-0.0488,-0.0366,-0.0244,0,0.05368,0.04392,0.06832,0.02928,0.00976,0.00976
-0.0244,0.03904,-0.05368,-0.04148,-0.02928,0.00244,0.05856,0.05856,0.08784,0.05368,0.0244,0.02928
-0.03416,0.04636,-0.05856,-0.04148,-0.0244,-0.00488,0.0732,0.07808,0.10736,0.0732,0.03416,0.03416
-0.02928,0.03904,-0.0488,-0.03416,-0.01952,-0.00488,0.06344,0.0732,0.11712,0.07808,0.03904,0.02928
-0.01952,0.02928,-0.03904,-0.02928,-0.01952,0,0.0732,0.09272,0.13664,0.10248,0.05368,0.03904
-0.00976,0.01952,-0.02928,-0.0244,-0.01952,0.00488,0.08296,0.10736,0.15128,0.13664,0.0732,0.05368
-0.00488,0.01464,-0.0244,-0.02196,-0.01952,0.00732,0.09272,0.13176,0.18544,0.16104,0.08784,0.06832
0,0.0122,-0.0244,-0.0244,-0.0244,0.0122,0.10248,0.16104,0.20984,0.18544,0.10736,0.07808
0.00976,-0.00244,-0.00488,-0.00976,-0.01464,0.0122,0.11224,0.18056,0.2196,0.20984,0.122,0.08296
0.00488,-0.00244,0,-0.00244,-0.00488,0.00488,0.11224,0.18544,0.244,0.23912,0.13176,0.09272
0.00976,-0.00732,0.00488,0,-0.00488,0.00732,0.122,0.20008,0.2684,0.25864,0.1464,0.10736
0.01464,-0.00976,0.00488,-0.00244,-0.00976,0.0122,0.13664,0.22448,0.2928,0.2928,0.16592,0.10248
0.01952,-0.01708,0.01464,0.00488,-0.00488,0.0122,0.1464,0.24888,0.31232,0.32208,0.1708,0.11224
0.03416,-0.02196,0.00976,-0.00732,-0.0244,0.02928,0.15128,0.25864,0.32696,0.3416,0.1952,0.11712
0.03904,-0.0244,0.00976,-0.00976,-0.02928,0.03416,0.16592,0.27816,0.3416,0.36112,0.20984,0.12688
0.03416,-0.02928,0.0244,0.00732,-0.00976,0.02196,0.1708,0.27328,0.35624,0.35624,0.20984,0.14152
0.02928,-0.02684,0.0244,0.00976,-0.00488,0.01708,0.16592,0.28304,0.36112,0.37088,0.20984,0.1464
0.03416,-0.02928,0.0244,0.00732,-0.00976,0.02196,0.16592,0.27328,0.35624,0.36112,0.20496,0.1464
0.0488,-0.0366,0.0244,0,-0.0244,0.0366,0.16592,0.27328,0.35136,0.366,0.20984,0.13664
0.0488,-0.0366,0.0244,0,-0.0244,0.0366,0.15616,0.27328,0.34648,0.37576,0.20496,0.13176
0.03904,-0.02684,0.01464,-0.00488,-0.0244,0.03172,0.15616,0.27328,0.33184,0.366,0.20496,0.13176
0.03904,-0.02684,0.01464,-0.00488,-0.0244,0.03172,0.15616,0.26352,0.32696,0.37088,0.21472,0.14152
0.03904,-0.02684,0.01464,-0.00488,-0.0244,0.03172,0.16592,0.25864,0.32696,0.36112,0.20984,0.14152
0.04392,-0.03416,0.0244,0.00244,-0.01952,0.03172,0.15616,0.2684,0.32208,0.3416,0.20496,0.14152
0.04392,-0.03416,0.0244,0.00244,-0.01952,0.03172,0.15128,0.244,0.30256,0.3172,0.20008,0.14152
0.03416,-0.0244,0.01464,-0.00244,-0.01952,0.02684,0.1464,0.21472,0.27328,0.27816,0.18056,0.13176
0.02928,-0.02196,0.01464,0,-0.01464,0.02196,0.13664,0.18544,0.24888,0.25376,0.1708,0.122
0.03416,-0.0244,0.01464,-0.00244,-0.01952,0.02684,0.122,0.16592,0.23424,0.23424,0.15616,0.10736
0.02928,-0.0244,0.01952,0.00488,-0.00976,0.01952,0.11224,0.15128,0.20496,0.1952,0.13664,0.10248
0.01952,-0.01952,0.01952,0.00976,0,0.00976,0.10736,0.11712,0.16104,0.16104,0.10736,0.08296
0.00976,-0.0122,0.01464,0.00976,0.00488,0.00244,0.09272,0.08296,0.13176,0.12688,0.09272,0.0732
-0.00488,0.00732,-0.00976,-0.00732,-0.00488,0,0.07808,0.06832,0.10736,0.11224,0.06832,0.0488
-0.00976,0.0122,-0.01464,-0.00976,-0.00488,-0.00244,0.06344,0.04392,0.07808,0.07808,0.05368,0.04392
0,0.00976,-0.01952,-0.01952,-0.01952,0.00976,0.05368,0.02928,0.05368,0.05856,0.03904,0.03904
-0.00976,0.0244,-0.03904,-0.03416,-0.02928,0.00976,0.05368,0.01952,0.0488,0.04392,0.03904,0.03416
-0.01464,0.02928,-0.04392,-0.0366,-0.02928,0.00732,0.0488,-0.00488,0.0244,0.01464,0.01952,0.01464
-0.01952,0.0366,-0.05368,-0.04392,-0.03416,0.00732,0.03904,-0.01464,0.00488,-0.00976,0.00976,0.00976
-0.0244,0.04148,-0.05856,-0.04636,-0.03416,0.00488,0.03416,-0.01952,0.00488,0,-0.00488,-0.00488
-0.01952,0.0366,-0.05368,-0.04392,-0.03416,0.00732,0.0244,-0.03416,-0.00488,-0.0244,-0.01464,-0.01464
-0.01952,0.04148,-0.06344,-0.05368,-0.04392,0.0122,0.01464,-0.05368,-0.01464,-0.03904,-0.02928,-0.01464
-0.03416,0.0488,-0.06344,-0.04636,-0.02928,-0.00244,0.01464,-0.05856,-0.0244,-0.04392,-0.03416,-0.01952
-0.03416,0.05856,-0.08296,-0.06588,-0.0488,0.00732,0.00976,-0.05368,-0.03416,-0.05368,-0.02928,-0.0244
-0.03904,0.06344,-0.08784,-0.06832,-0.0488,0.00488,0.00976,-0.05368,-0.03416,-0.05856,-0.03904,-0.03416
-0.03416,0.05612,-0.07808,-0.061,-0.04392,0.00488,0,-0.05368,-0.03416,-0.06832,-0.04392,-0.02928
-0.02928,0.05124,-0.0732,-0.05856,-0.04392,0.00732,0,-0.05856,-0.04392,-0.0732,-0.04392,-0.03416
-0.03904,0.05856,-0.07808,-0.05856,-0.03904,0,0.00976,-0.06344,-0.05368,-0.0732,-0.0488,-0.04392
-0.04392,0.061,-0.07808,-0.05612,-0.03416,-0.00488,0.00488,-0.05856,-0.05368,-0.0732,-0.0488,-0.04392
-0.0488,0.06344,-0.07808,-0.05368,-0.02928,-0.00976,-0.00488,-0.06832,-0.05368,-0.07808,-0.05856,-0.0488
-0.04392,0.061,-0.07808,-0.05612,-0.03416,-0.00488,-0.00488,-0.06832,-0.05368,-0.07808,-0.05856,-0.0488
-0.05368,0.06588,-0.07808,-0.05124,-0.0244,-0.01464,0.00976,-0.05856,-0.0488,-0.0732,-0.05368,-0.03904
-0.05856,0.06832,-0.07808,-0.0488,-0.01952,-0.01952,0.00976,-0.05856,-0.0488,-0.0732,-0.0488,-0.03904
-0.06832,0.0732,-0.07808,-0.04392,-0.00976,-0.02928,-0.00488,-0.06832,-0.04392,-0.07808,-0.0488,-0.0488
-0.0732,0.08296,-0.09272,-0.05612,-0.01952,-0.02684,-0.00488,-0.06832,-0.04392,-0.0732,-0.04392,-0.0488
-0.0488,0.06344,-0.07808,-0.05368,-0.02928,-0.00976,0.00976,-0.05856,-0.03416,-0.05856,-0.03416,-0.04392
-0.01952,0.03904,-0.05856,-0.0488,-0.03904,0.00976,0.00976,-0.05856,-0.03416,-0.06344,-0.03416,-0.02928
-0.0244,0.04392,-0.06344,-0.05124,-0.03904,0.00732,0.00976,-0.04392,-0.02928,-0.06344,-0.03416,-0.0244
-0.02928,0.04636,-0.06344,-0.0488,-0.03416,0.00244,0.01464,-0.03904,-0.0244,-0.05856,-0.03416,-0.0244
-0.0244,0.04392,-0.06344,-0.05124,-0.03904,0.00732,0.00488,-0.04392,-0.01952,-0.05856,-0.03904,-0.03416
-0.03904,0.05124,-0.06344,-0.04392,-0.0244,-0.00732,0.00976,-0.04392,-0.02928,-0.05856,-0.03904,-0.02928
-0.02928,0.03904,-0.0488,-0.03416,-0.01952,-0.00488,0.00976,-0.04392,-0.0244,-0.06344,-0.03416,-0.02928
-0.0244,0.03172,-0.03904,-0.02684,-0.01464,-0.00488,0.00976,-0.04392,-0.01952,-0.05856,-0.03416,-0.02928
-0.03904,0.03416,-0.02928,-0.00976,0.00976,-0.0244,0.00976,-0.04392,-0.00976,-0.05368,-0.0244,-0.01464
-0.0488,0.03904,-0.02928,-0.00488,0.01952,-0.03416,0.01464,-0.03904,-0.00976,-0.04392,-0.01952,-0.00976
-0.04392,0.04392,-0.04392,-0.02196,0,-0.02196,0.00976,-0.03904,-0.01464,-0.0488,-0.02928,-0.01952
-0.0244,0.03416,-0.04392,-0.03172,-0.01952,-0.00244,0.00976,-0.04392,-0.01464,-0.04392,-0.02928,-0.0244
-0.00488,0.02684,-0.0488,-0.04636,-0.04392,0.01952,0.00976,-0.03904,-0.01464,-0.04392,-0.01952,-0.01952
-0.00488,0.01952,-0.03416,-0.03172,-0.02928,0.0122,0.00976,-0.04392,-0.01464,-0.04392,-0.01464,-0.01952
-0.00976,0.01952,-0.02928,-0.0244,-0.01952,0.00488,0.00976,-0.03904,-0.00976,-0.03904,-0.00976,-0.01952
-0.0244,0.0244,-0.0244,-0.0122,0,-0.0122,0.00976,-0.03416,-0.00488,-0.03416,-0.00488,-0.01952
-0.0244,0.02196,-0.01952,-0.00732,0.00488,-0.01464,0.00976,-0.04392,-0.00976,-0.0244,-0.00488,-0.00976
-0.0244,0.0244,-0.0244,-0.0122,0,-0.0122,0.00976,-0.04392,-0.00976,-0.03416,-0.00488,-0.00976
-0.01952,0.02684,-0.03416,-0.0244,-0.01464,-0.00244,0.00976,-0.0488,-0.00488,-0.03904,-0.00976,-0.01952
-0.01464,0.0244,-0.03416,-0.02684,-0.01952,0.00244,0.00488,-0.0488,-0.00488,-0.04392,-0.00976,-0.01952
-0.0244,0.03172,-0.03904,-0.02684,-0.01464,-0.00488,0.00488,-0.0488,-0.01464,-0.03416,-0.00488,-0.01952
-0.02928,0.0366,-0.04392,-0.02928,-0.01464,-0.00732,0.00488,-0.05368,-0.01952,-0.03904,-0.00488,-0.01952
-0.02928,0.0366,-0.04392,-0.02928,-0.01464,-0.00732,-0.00488,-0.05368,-0.01952,-0.0488,-0.01464,-0.02928
-0.02928,0.03172,-0.03416,-0.01952,-0.00488,-0.0122,-0.00976,-0.05368,-0.0244,-0.0488,-0.01464,-0.02928
-0.02928,0.03172,-0.03416,-0.01952,-0.00488,-0.0122,-0.00488,-0.05856,-0.0244,-0.0488,-0.01464,-0.02928
-0.02928,0.02928,-0.02928,-0.01464,0,-0.01464,-0.00488,-0.06344,-0.02928,-0.05368,-0.00976,-0.03416
-0.03416,0.03416,-0.03416,-0.01708,0,-0.01708,-0.00488,-0.06344,-0.03904,-0.05368,-0.00976,-0.03416
-0.03416,0.04148,-0.0488,-0.03172,-0.01464,-0.00976,-0.00488,-0.06344,-0.03904,-0.05368,-0.01464,-0.03416
-0.03416,0.04148,-0.0488,-0.03172,-0.01464,-0.00976,-0.00488,-0.06832,-0.03416,-0.05856,-0.02928,-0.03416
-0.03416,0.04148,-0.0488,-0.03172,-0.01464,-0.00976,-0.00488,-0.06832,-0.03904,-0.05856,-0.0244,-0.03416
-0.04392,0.04636,-0.0488,-0.02684,-0.00488,-0.01952,-0.01952,-0.06832,-0.0488,-0.06832,-0.0244,-0.02928
-0.03904,0.04392,-0.0488,-0.02928,-0.00976,-0.01464,-0.01464,-0.0732,-0.0488,-0.0732,-0.03416,-0.02928
-0.0488,0.05124,-0.05368,-0.02928,-0.00488,-0.02196,-0.00976,-0.07808,-0.05368,-0.0732,-0.04392,-0.03904
-0.0488,0.05124,-0.05368,-0.02928,-0.00488,-0.02196,-0.01464,-0.08296,-0.05368,-0.0732,-0.04392,-0.03904
-0.03904,0.04392,-0.0488,-0.02928,-0.00976,-0.01464,-0.0244,-0.08296,-0.05856,-0.07808,-0.03416,-0.03904
-0.03416,0.04148,-0.0488,-0.03172,-0.01464,-0.00976,-0.0244,-0.08296,-0.05856,-0.07808,-0.03416,-0.03904
-0.01952,0.02196,-0.0244,-0.01464,-0.00488,-0.00732,-0.00488,-0.07808,-0.05856,-0.06344,-0.02928,-0.02928
-0.04392,0.03904,-0.03416,-0.0122,0.00976,-0.02684,-0.00976,-0.07808,-0.05368,-0.06832,-0.0244,-0.03904
-0.0488,0.05124,-0.05368,-0.02928,-0.00488,-0.02196,-0.01464,-0.08784,-0.06832,-0.08784,-0.0488,-0.0488
-0.0488,0.05612,-0.06344,-0.03904,-0.01464,-0.01708,-0.0244,-0.08784,-0.06832,-0.08784,-0.0488,-0.0488
-0.03416,0.0488,-0.06344,-0.04636,-0.02928,-0.00244,-0.01952,-0.07808,-0.05856,-0.0732,-0.04392,-0.03904
-0.03416,0.03904,-0.04392,-0.02684,-0.00976,-0.0122,-0.01952,-0.07808,-0.05856,-0.0732,-0.03416,-0.03904
-0.0244,0.02684,-0.02928,-0.01708,-0.00488,-0.00976,-0.01464,-0.08296,-0.05368,-0.06832,-0.03904,-0.03904
-0.01952,0.01464,-0.00976,0,0.00976,-0.01464,-0.01464,-0.08296,-0.03904,-0.06344,-0.0244,-0.03904
-0.01952,0.01708,-0.01464,-0.00488,0.00488,-0.0122,-0.01952,-0.07808,-0.03904,-0.06832,-0.0244,-0.03416
-0.0244,0.01464,-0.00488,0.00732,0.01952,-0.02196,-0.01952,-0.07808,-0.03904,-0.06832,-0.0244,-0.03416
-0.01952,0.00732,0.00488,0.01464,0.0244,-0.02196,-0.01952,-0.07808,-0.03416,-0.06344,-0.0244,-0.01952
-0.00488,-0.00488,0.01464,0.01708,0.01952,-0.0122,-0.01464,-0.0732,-0.03416,-0.05856,-0.01952,-0.01464
-0.00488,-0.00732,0.01952,0.02196,0.0244,-0.01464,-0.00488,-0.0732,-0.02928,-0.0488,-0.01464,-0.01464
-0.00488,-0.0122,0.02928,0.03172,0.03416,-0.01952,-0.00488,-0.0732,-0.01952,-0.04392,-0.01464,-0.00976
-0.00488,-0.0122,0.02928,0.03172,0.03416,-0.01952,-0.01464,-0.06832,-0.01952,-0.04392,-0.00976,-0.01464
0.01952,-0.03416,0.0488,0.03904,0.02928,-0.00488,-0.01952,-0.06832,-0.01464,-0.02928,0.00488,0.00488
0.02928,-0.04636,0.06344,0.0488,0.03416,-0.00244,-0.0244,-0.07808,-0.01464,-0.03904,0.0244,0.01952
0.03416,-0.05124,0.06832,0.05124,0.03416,0,-0.03416,-0.08784,-0.01952,-0.03416,0.02928,0.01952
0.03416,-0.04392,0.05368,0.0366,0.01952,0.00732,-0.04392,-0.09272,-0.01952,-0.02928,0.0244,0.0244
0.04392,-0.05612,0.06832,0.04636,0.0244,0.00976,-0.05368,-0.09272,-0.01952,-0.02928,0.02928,0.02928
0.05368,-0.05124,0.0488,0.02196,-0.00488,0.02928,-0.05856,-0.09272,-0.0244,-0.0244,0.02928,0.01952
0.05368,-0.05856,0.06344,0.0366,0.00976,0.02196,-0.05856,-0.08784,-0.01952,-0.0244,0.03416,0.02928
0.04392,-0.05124,0.05856,0.0366,0.01464,0.01464,-0.04392,-0.08296,-0.01952,-0.0244,0.03416,0.02928
0.02928,-0.0366,0.04392,0.02928,0.01464,0.00732,-0.05368,-0.09272,-0.03904,-0.04392,0.01464,0.01464
0.01952,-0.01464,0.00976,0,-0.00976,0.01464,-0.05368,-0.10736,-0.06344,-0.06344,-0.00488,0.00976
0.01464,0,-0.01464,-0.02196,-0.02928,0.02196,-0.05368,-0.11224,-0.06832,-0.07808,-0.01464,0
0,0.01708,-0.03416,-0.03416,-0.03416,0.01708,-0.0488,-0.10736,-0.08296,-0.08296,-0.03416,-0.01464
0,0.02928,-0.05856,-0.05856,-0.05856,0.02928,-0.04392,-0.10736,-0.09272,-0.09272,-0.04392,-0.03416
-0.02928,0.04636,-0.06344,-0.0488,-0.03416,0.00244,-0.04392,-0.0976,-0.09272,-0.08784,-0.04392,-0.04392
-0.0488,0.05856,-0.06832,-0.04392,-0.01952,-0.01464,-0.03416,-0.0976,-0.09272,-0.0976,-0.05856,-0.05368
-0.05856,0.07076,-0.08296,-0.05368,-0.0244,-0.01708,-0.03416,-0.10736,-0.09272,-0.10736,-0.06344,-0.06832
-0.05368,0.0732,-0.09272,-0.06588,-0.03904,-0.00732,-0.03904,-0.10736,-0.0976,-0.11224,-0.06344,-0.06832
-0.05856,0.07564,-0.09272,-0.06344,-0.03416,-0.0122,-0.03904,-0.11224,-0.11712,-0.11224,-0.06832,-0.05856
-0.06832,0.08296,-0.0976,-0.06344,-0.02928,-0.01952,-0.03904,-0.11224,-0.11224,-0.122,-0.0732,-0.06344
-0.05856,0.07564,-0.09272,-0.06344,-0.03416,-0.0122,-0.03904,-0.10248,-0.10248,-0.12688,-0.06832,-0.0732
-0.0488,0.061,-0.0732,-0.0488,-0.0244,-0.0122,-0.04392,-0.10248,-0.10248,-0.12688,-0.06344,-0.0732
-0.04392,0.05612,-0.06832,-0.04636,-0.0244,-0.00976,-0.03904,-0.11224,-0.10248,-0.11712,-0.0732,-0.0732
-0.03904,0.061,-0.08296,-0.06344,-0.04392,0.00244,-0.03904,-0.10736,-0.10248,-0.11712,-0.0732,-0.07808
-0.05368,0.08052,-0.10736,-0.08052,-0.05368,0,-0.03904,-0.10736,-0.11224,-0.12688,-0.07808,-0.07808
-0.05368,0.08052,-0.10736,-0.08052,-0.05368,0,-0.03904,-0.10736,-0.11224,-0.13176,-0.07808,-0.07808
-0.05856,0.07564,-0.09272,-0.06344,-0.03416,-0.0122,-0.03904,-0.11224,-0.11712,-0.13176,-0.07808,-0.07808
-0.05368,0.0732,-0.09272,-0.06588,-0.03904,-0.00732,-0.03904,-0.10736,-0.11224,-0.12688,-0.0732,-0.07808
-0.0488,0.06344,-0.07808,-0.05368,-0.02928,-0.00976,-0.03904,-0.10248,-0.11224,-0.11712,-0.0732,-0.07808
-0.05368,0.06588,-0.07808,-0.05124,-0.0244,-0.01464,-0.03416,-0.10248,-0.11224,-0.11712,-0.0732,-0.07808
-0.0488,0.06832,-0.08784,-0.06344,-0.03904,-0.00488,-0.02928,-0.10248,-0.10248,-0.11712,-0.0732,-0.07808
-0.0488,0.06832,-0.08784,-0.06344,-0.03904,-0.00488,-0.02928,-0.10248,-0.10248,-0.11712,-0.0732,-0.0732
-0.05856,0.0732,-0.08784,-0.05856,-0.02928,-0.01464,-0.03416,-0.0976,-0.0976,-0.11224,-0.0732,-0.0732
-0.05856,0.07076,-0.08296,-0.05368,-0.0244,-0.01708,-0.03416,-0.0976,-0.0976,-0.11224,-0.0732,-0.0732
-0.06344,0.0732,-0.08296,-0.05124,-0.01952,-0.02196,-0.0244,-0.09272,-0.09272,-0.10736,-0.05856,-0.06344
-0.06832,0.05856,-0.0488,-0.01464,0.01952,-0.04392,0,-0.07808,-0.06344,-0.09272,-0.06832,-0.0732
-0.0732,0.03172,0.00976,0.04636,0.08296,-0.07808,0.01952,-0.05856,0.01464,-0.04392,-0.02928,-0.0488
-0.0732,0.0122,0.0488,0.0854,0.122,-0.0976,0.03416,-0.03904,0.06832,0.03416,0.06344,0.0244
-0.02928,-0.03416,0.0976,0.11224,0.12688,-0.07808,0.07808,0.08296,0.1952,0.2684,0.2928,0.19032
0.0732,-0.1098,0.1464,0.1098,0.0732,0,0.1464,0.27328,0.38552,0.59536,0.60024,0.4392
0.25864,-0.2074,0.15616,0.02684,-0.10248,0.18056,0.2196,0.49776,0.61976,1.0248,1.00528,0.75152
0.41968,-0.32696,0.23424,0.0244,-0.18544,0.30256,0.25864,0.63928,0.81496,1.41032,1.37616,1.02968
0.54168,-0.3416,0.14152,-0.12932,-0.40016,0.47092,0.32208,0.7808,0.96624,1.73728,1.61528,1.15168
0.60512,-0.3172,0.02928,-0.27328,-0.57584,0.59048,0.19032,0.5612,0.82472,1.74704,1.5616,1.098
0.58072,-0.27084,-0.03904,-0.3294,-0.61976,0.60024,-0.0732,0.11712,0.45384,1.39568,1.18584,0.83936
0.35136,-0.14396,-0.06344,-0.23912,-0.4148,0.38308,-0.35136,-0.44896,-0.1708,0.49776,0.3904,0.28304
0.23912,-0.07564,-0.08784,-0.2074,-0.32696,0.28304,-0.49776,-0.7808,-0.58072,-0.16104,-0.0732,-0.01952
0.02928,0.05612,-0.14152,-0.15616,-0.1708,0.10004,-0.52216,-0.86864,-0.84424,-0.61976,-0.38064,-0.23912
-0.01464,0.10736,-0.20008,-0.19276,-0.18544,0.0854,-0.44896,-0.81008,-0.84912,-0.74664,-0.4636,-0.2928
-0.0244,0.10492,-0.18544,-0.17324,-0.16104,0.06832,-0.4392,-0.73688,-0.76128,-0.6588,-0.42944,-0.29768
-0.02928,0.10248,-0.17568,-0.16104,-0.1464,0.05856,-0.38064,-0.60024,-0.61488,-0.52216,-0.3416,-0.23912
-0.02928,0.061,-0.09272,-0.07808,-0.06344,0.01708,-0.2684,-0.39528,-0.39528,-0.34648,-0.20984,-0.15616
-0.02928,0.04392,-0.05856,-0.04392,-0.02928,0,-0.15616,-0.23424,-0.244,-0.22448,-0.13176,-0.10736
-0.01952,0.03904,-0.05856,-0.0488,-0.03904,0.00976,-0.08296,-0.16104,-0.16592,-0.16592,-0.11224,-0.09272
-0.02928,0.0488,-0.06832,-0.05368,-0.03904,0.00488,-0.04392,-0.11224,-0.13664,-0.15128,-0.0976,-0.08784
-0.0488,0.05856,-0.06832,-0.04392,-0.01952,-0.01464,-0.01464,-0.07808,-0.0976,-0.122,-0.07808,-0.08296
-0.05856,0.05612,-0.05368,-0.0244,0.00488,-0.03172,-0.00976,-0.0732,-0.08784,-0.11224,-0.07808,-0.08784
-0.05856,0.061,-0.06344,-0.03416,-0.00488,-0.02684,-0.00976,-0.06832,-0.08784,-0.10736,-0.08296,-0.08784
-0.04392,0.05368,-0.06344,-0.04148,-0.01952,-0.0122,-0.01464,-0.06832,-0.07808,-0.11224,-0.08296,-0.08296
-0.0488,0.05612,-0.06344,-0.03904,-0.01464,-0.01708,-0.00976,-0.06832,-0.07808,-0.11224,-0.08296,-0.08784
-0.05856,0.05612,-0.05368,-0.0244,0.00488,-0.03172,-0.00488,-0.05368,-0.06344,-0.11224,-0.08296,-0.08296
-0.05856,0.061,-0.06344,-0.03416,-0.00488,-0.02684,-0.00488,-0.0488,-0.06344,-0.10736,-0.08296,-0.07808
-0.05856,0.05856,-0.05856,-0.02928,0,-0.02928,-0.00488,-0.0488,-0.06832,-0.10736,-0.08296,-0.08784
-0.05856,0.05368,-0.0488,-0.01952,0.00976,-0.03416,0,-0.0488,-0.06344,-0.10248,-0.08296,-0.08784
-0.05368,0.05368,-0.05368,-0.02684,0,-0.02684,0,-0.03416,-0.0488,-0.09272,-0.0732,-0.0732
-0.04392,0.0488,-0.05368,-0.03172,-0.00976,-0.01708,0.00488,-0.02928,-0.03904,-0.08784,-0.06344,-0.0732
-0.0488,0.04392,-0.03904,-0.01464,0.00976,-0.02928,0.00488,-0.0244,-0.03904,-0.08784,-0.06832,-0.06832
-0.0488,0.04392,-0.03904,-0.01464,0.00976,-0.02928,0.00976,-0.01952,-0.03904,-0.08296,-0.06832,-0.06832
-0.05856,0.05368,-0.0488,-0.01952,0.00976,-0.03416,0.00976,-0.0244,-0.03904,-0.08784,-0.06344,-0.08296
-0.05856,0.05368,-0.0488,-0.01952,0.00976,-0.03416,0.01464,-0.0244,-0.03904,-0.08296,-0.06344,-0.07808
-0.06832,0.06588,-0.06344,-0.02928,0.00488,-0.0366,0.01952,-0.01464,-0.02928,-0.07808,-0.05856,-0.07808
-0.06832,0.06588,-0.06344,-0.02928,0.00488,-0.0366,0.01952,-0.01464,-0.02928,-0.07808,-0.05856,-0.07808
-0.06832,0.061,-0.05368,-0.01952,0.01464,-0.04148,0.01952,0,-0.01464,-0.06344,-0.05856,-0.07808
-0.06344,0.05368,-0.04392,-0.0122,0.01952,-0.04148,0.01952,0,-0.00976,-0.06344,-0.05856,-0.07808
-0.05856,0.05368,-0.0488,-0.01952,0.00976,-0.03416,0.03416,0.01464,0.00488,-0.05856,-0.0488,-0.06832
-0.0488,0.0488,-0.0488,-0.0244,0,-0.0244,0.03416,0.01952,0.00976,-0.0488,-0.04392,-0.06832
-0.04392,0.04636,-0.0488,-0.02684,-0.00488,-0.01952,0.02928,0.02928,0.00976,-0.03904,-0.0488,-0.0732
-0.03904,0.04148,-0.04392,-0.0244,-0.00488,-0.01708,0.03416,0.03416,0.01464,-0.03904,-0.05368,-0.0732
-0.02928,0.03416,-0.03904,-0.0244,-0.00976,-0.00976,0.03416,0.02928,0.01952,-0.04392,-0.05856,-0.0732
-0.03416,0.03172,-0.02928,-0.0122,0.00488,-0.01952,0.03416,0.03904,0.03416,-0.02928,-0.05368,-0.06832
-0.04392,0.0366,-0.02928,-0.00732,0.01464,-0.02928,0.0488,0.0488,0.03416,-0.00488,-0.03904,-0.06344
-0.03904,0.03416,-0.02928,-0.00976,0.00976,-0.0244,0.0488,0.05368,0.04392,0,-0.02928,-0.06344
-0.03416,0.03172,-0.02928,-0.0122,0.00488,-0.01952,0.05856,0.08296,0.06832,0.01464,-0.0244,-0.0488
-0.02928,0.02928,-0.02928,-0.01464,0,-0.01464,0.06344,0.09272,0.07808,0.02928,-0.01952,-0.0488
-0.02928,0.02928,-0.02928,-0.01464,0,-0.01464,0.06832,0.10736,0.10736,0.05368,-0.01464,-0.03904
-0.02928,0.02684,-0.0244,-0.00976,0.00488,-0.01708,0.08296,0.12688,0.12688,0.0732,-0.00488,-0.03416
-0.02928,0.02196,-0.01464,0,0.01464,-0.02196,0.0732,0.14152,0.13664,0.07808,0,-0.02928
-0.01952,0.01708,-0.01464,-0.00488,0.00488,-0.0122,0.08296,0.16104,0.15616,0.10248,0.01464,-0.01952
-0.00488,0.00488,-0.00488,-0.00244,0,-0.00244,0.09272,0.18056,0.17568,0.12688,0.0244,-0.0244
0.00976,-0.00976,0.00976,0.00488,0,0.00488,0.10248,0.1952,0.20008,0.15128,0.03904,-0.00976
0.00488,-0.00732,0.00976,0.00732,0.00488,0,0.122,0.2196,0.22936,0.17568,0.06832,0.00976
0.00488,-0.0122,0.01952,0.01708,0.01464,-0.00488,0.13176,0.23912,0.23912,0.20008,0.08296,0.01464
0.00488,-0.01708,0.02928,0.02684,0.0244,-0.00976,0.14152,0.26352,0.27328,0.23424,0.10248,0.01464
0.00976,-0.02196,0.03416,0.02928,0.0244,-0.00732,0.15128,0.27816,0.29768,0.26352,0.11712,0.02928
0.0244,-0.02928,0.03416,0.02196,0.00976,0.00732,0.15616,0.2928,0.31232,0.28304,0.13664,0.03416
0.02928,-0.0366,0.04392,0.02928,0.01464,0.00732,0.16592,0.3172,0.33184,0.31232,0.14152,0.04392
0.0244,-0.0366,0.0488,0.0366,0.0244,0,0.16104,0.32696,0.34648,0.33184,0.1464,0.0488
0.02928,-0.03904,0.0488,0.03416,0.01952,0.00488,0.17568,0.34648,0.36112,0.35136,0.16104,0.05856
0.02928,-0.04148,0.05368,0.03904,0.0244,0.00244,0.19032,0.3416,0.37576,0.35624,0.18056,0.06344
0.03416,-0.04392,0.05368,0.0366,0.01952,0.00732,0.18544,0.35136,0.38064,0.37088,0.18056,0.06832
0.03904,-0.04148,0.04392,0.0244,0.00488,0.01708,0.18544,0.36112,0.38064,0.37088,0.18544,0.08296
0.04392,-0.04392,0.04392,0.02196,0,0.02196,0.18544,0.36112,0.38552,0.37576,0.19032,0.08296
0.04392,-0.05124,0.05856,0.0366,0.01464,0.01464,0.18544,0.35136,0.38552,0.37576,0.17568,0.0732
0.04392,-0.05124,0.05856,0.0366,0.01464,0.01464,0.18544,0.35136,0.37088,0.366,0.17568,0.0732
0.03904,-0.04148,0.04392,0.0244,0.00488,0.01708,0.1708,0.33672,0.35136,0.35136,0.17568,0.06344
0.03904,-0.04148,0.04392,0.0244,0.00488,0.01708,0.1708,0.32208,0.3416,0.3416,0.1708,0.06344
0.04392,-0.04392,0.04392,0.02196,0,0.02196,0.1464,0.30744,0.32208,0.32208,0.16592,0.05368
0.04392,-0.04392,0.04392,0.02196,0,0.02196,0.14152,0.28304,0.30256,0.29768,0.16104,0.05368
0.03416,-0.04148,0.0488,0.03172,0.01464,0.00976,0.1464,0.27328,0.28304,0.27816,0.15128,0.05856
0.02928,-0.04392,0.05856,0.04392,0.02928,0,0.13664,0.244,0.25864,0.25376,0.14152,0.05856
0.03416,-0.04148,0.0488,0.03172,0.01464,0.00976,0.122,0.2196,0.22448,0.21472,0.11712,0.0488
0.02928,-0.0366,0.04392,0.02928,0.01464,0.00732,0.11224,0.1952,0.1952,0.17568,0.0976,0.04392
0.02928,-0.02928,0.02928,0.01464,0,0.01464,0.0976,0.16592,0.1708,0.16104,0.08784,0.03416
0.01952,-0.02196,0.0244,0.01464,0.00488,0.00732,0.08296,0.13176,0.14152,0.12688,0.0732,0.0244
0.00488,-0.01464,0.0244,0.02196,0.01952,-0.00732,0.07808,0.10736,0.11712,0.09272,0.0488,0.00976
0,-0.01464,0.02928,0.02928,0.02928,-0.01464,0.06344,0.08296,0.08784,0.05856,0.03416,0.00488
0,-0.01464,0.02928,0.02928,0.02928,-0.01464,0.03904,0.05856,0.0488,0.02928,0.01464,-0.01952
-0.00976,0,0.00976,0.01464,0.01952,-0.01464,0.02928,0.0488,0.03416,0.01464,0.00488,-0.0244
-0.00488,0.00488,-0.00488,-0.00244,0,-0.00244,0.02928,0.0244,0.01464,-0.00488,-0.00976,-0.03416
-0.00976,0.0122,-0.01464,-0.00976,-0.00488,-0.00244,0.01952,0.01464,-0.00488,-0.02928,-0.01952,-0.03904
-0.0244,0.01708,-0.00976,0.00244,0.01464,-0.01952,0.01464,0,-0.01464,-0.02928,-0.03416,-0.04392
-0.01952,0.0122,-0.00488,0.00488,0.01464,-0.01708,0.00488,-0.01464,-0.0244,-0.05368,-0.04392,-0.05368
-0.01952,0.0122,-0.00488,0.00488,0.01464,-0.01708,0.00488,-0.01952,-0.03416,-0.05856,-0.03904,-0.05368
-0.03416,0.01952,-0.00488,0.0122,0.02928,-0.03172,0.00488,-0.01464,-0.04392,-0.06344,-0.04392,-0.05856
-0.0244,0.0244,-0.0244,-0.0122,0,-0.0122,-0.00976,-0.0244,-0.05368,-0.06344,-0.0488,-0.06344
-0.02928,0.02928,-0.02928,-0.01464,0,-0.01464,-0.00976,-0.0244,-0.05368,-0.06832,-0.05856,-0.0732
-0.03416,0.0366,-0.03904,-0.02196,-0.00488,-0.01464,-0.00976,-0.0244,-0.05368,-0.07808,-0.06344,-0.06832
-0.02928,0.03172,-0.03416,-0.01952,-0.00488,-0.0122,-0.00976,-0.02928,-0.06344,-0.08296,-0.06344,-0.0732
-0.01952,0.0244,-0.02928,-0.01952,-0.00976,-0.00488,0,-0.0244,-0.05368,-0.08296,-0.05856,-0.06344
-0.0244,0.02684,-0.02928,-0.01708,-0.00488,-0.00976,-0.00488,-0.01952,-0.05368,-0.08296,-0.05856,-0.06344
-0.02928,0.03416,-0.03904,-0.0244,-0.00976,-0.00976,-0.01464,-0.0244,-0.06344,-0.08784,-0.06832,-0.07808
-0.0244,0.03172,-0.03904,-0.02684,-0.01464,-0.00488,-0.01464,-0.03416,-0.06344,-0.08784,-0.06832,-0.07808
-0.03416,0.03172,-0.02928,-0.0122,0.00488,-0.01952,-0.00976,-0.02928,-0.06832,-0.08296,-0.0732,-0.06832
-0.03904,0.03416,-0.02928,-0.00976,0.00976,-0.0244,-0.00976,-0.02928,-0.06832,-0.08296,-0.06832,-0.06832
-0.02928,0.03172,-0.03416,-0.01952,-0.00488,-0.0122,-0.01464,-0.02928,-0.05368,-0.08784,-0.06832,-0.06832
-0.03416,0.0366,-0.03904,-0.02196,-0.00488,-0.01464,-0.01464,-0.02928,-0.05368,-0.08296,-0.06344,-0.06832
-0.02928,0.03172,-0.03416,-0.01952,-0.00488,-0.0122,-0.00976,-0.02928,-0.05368,-0.08784,-0.06344,-0.07808
-0.01952,0.02196,-0.0244,-0.01464,-0.00488,-0.00732,-0.00976,-0.02928,-0.05368,-0.09272,-0.06344,-0.0732
-0.01464,0.01464,-0.01464,-0.00732,0,-0.00732,0,-0.01464,-0.0488,-0.08784,-0.05368,-0.06832
-0.01952,0.01708,-0.01464,-0.00488,0.00488,-0.0122,0.00488,-0.00976,-0.04392,-0.0732,-0.05368,-0.05856
-0.01952,0.02196,-0.0244,-0.01464,-0.00488,-0.00732,-0.00488,-0.00976,-0.03416,-0.07808,-0.05856,-0.06344
-0.0244,0.0244,-0.0244,-0.0122,0,-0.0122,0,-0.01952,-0.03416,-0.07808,-0.05856,-0.05856
-0.01952,0.01464,-0.00976,0,0.00976,-0.01464,-0.00488,-0.03416,-0.04392,-0.07808,-0.05856,-0.06832
-0.01464,0.00732,0,0.00732,0.01464,-0.01464,-0.01464,-0.03416,-0.03904,-0.08296,-0.06832,-0.06832
-0.01464,0.00732,0,0.00732,0.01464,-0.01464,-0.01952,-0.03416,-0.03904,-0.07808,-0.0732,-0.0732
-0.01464,0.00732,0,0.00732,0.01464,-0.01464,-0.01464,-0.02928,-0.03904,-0.07808,-0.06832,-0.06832
-0.0244,0.01952,-0.01464,-0.00244,0.00976,-0.01708,-0.00976,-0.01952,-0.03416,-0.06832,-0.05856,-0.06344
-0.0244,0.01952,-0.01464,-0.00244,0.00976,-0.01708,-0.00976,-0.0244,-0.03416,-0.06344,-0.05856,-0.05856
-0.01952,0.01952,-0.01952,-0.00976,0,-0.00976,-0.00976,-0.01952,-0.03416,-0.06344,-0.05856,-0.0488
-0.02928,0.01708,-0.00488,0.00976,0.0244,-0.02684,-0.00976,-0.0244,-0.03416,-0.06344,-0.05368,-0.0488
-0.02928,0.01464,0,0.01464,0.02928,-0.02928,-0.00976,-0.02928,-0.03904,-0.05368,-0.05856,-0.05856
-0.0244,0.00976,0.00488,0.01708,0.02928,-0.02684,-0.00976,-0.0244,-0.03416,-0.05856,-0.05368,-0.05856
-0.03416,0.0122,0.00976,0.02684,0.04392,-0.03904,-0.01952,-0.0244,-0.02928,-0.05856,-0.05368,-0.05856
-0.03416,0.01464,0.00488,0.02196,0.03904,-0.0366,-0.01952,-0.0244,-0.02928,-0.05856,-0.05368,-0.05856
-0.02928,0.0122,0.00488,0.01952,0.03416,-0.03172,-0.01952,-0.02928,-0.03416,-0.06832,-0.0488,-0.05856
-0.0244,0.00976,0.00488,0.01708,0.02928,-0.02684,-0.0244,-0.02928,-0.03416,-0.0732,-0.0488,-0.05856
-0.01464,0.00488,0.00488,0.0122,0.01952,-0.01708,-0.0244,-0.02928,-0.03416,-0.06344,-0.05368,-0.05856
-0.01952,0.00488,0.00976,0.01952,0.02928,-0.0244,-0.0244,-0.03416,-0.03904,-0.06832,-0.05368,-0.05856
-0.02928,0.00976,0.00976,0.0244,0.03904,-0.03416,-0.01464,-0.03416,-0.03904,-0.06832,-0.05368,-0.05856
-0.02928,0.00976,0.00976,0.0244,0.03904,-0.03416,-0.01952,-0.03416,-0.04392,-0.06832,-0.05368,-0.05856
-0.01952,0.00732,0.00488,0.01464,0.0244,-0.02196,-0.03416,-0.03904,-0.05368,-0.07808,-0.06344,-0.05856
-0.01952,0.00488,0.00976,0.01952,0.02928,-0.0244,-0.03416,-0.04392,-0.05856,-0.08296,-0.05856,-0.06344
-0.0244,0.00732,0.00976,0.02196,0.03416,-0.02928,-0.03416,-0.04392,-0.05856,-0.0732,-0.0488,-0.05368
-0.0244,0.00976,0.00488,0.01708,0.02928,-0.02684,-0.03416,-0.04392,-0.05856,-0.0732,-0.05368,-0.05368
-0.01464,0.00244,0.00976,0.01708,0.0244,-0.01952,-0.0244,-0.0488,-0.05368,-0.06832,-0.05856,-0.05368
-0.01464,0.00244,0.00976,0.01708,0.0244,-0.01952,-0.0244,-0.0488,-0.05856,-0.06832,-0.05368,-0.05368
-0.01952,0.00732,0.00488,0.01464,0.0244,-0.02196,-0.03904,-0.0488,-0.06832,-0.07808,-0.05368,-0.06832
-0.0244,0.01464,-0.00488,0.00732,0.01952,-0.02196,-0.03416,-0.05368,-0.06832,-0.08296,-0.06344,-0.06832
-0.02928,0.01952,-0.00976,0.00488,0.01952,-0.0244,-0.02928,-0.0488,-0.0732,-0.08296,-0.06344,-0.05856
-0.02928,0.01464,0,0.01464,0.02928,-0.02928,-0.03416,-0.05368,-0.0732,-0.08296,-0.06344,-0.05856
-0.01464,0.00732,0,0.00732,0.01464,-0.01464,-0.03416,-0.04392,-0.06832,-0.08784,-0.06344,-0.05856
-0.01952,0.00976,0,0.00976,0.01952,-0.01952,-0.03416,-0.04392,-0.06832,-0.08784,-0.06344,-0.05856
-0.01952,0.0122,-0.00488,0.00488,0.01464,-0.01708,-0.03416,-0.05856,-0.07808,-0.08296,-0.06832,-0.05856
-0.01464,0.00976,-0.00488,0.00244,0.00976,-0.0122,-0.02928,-0.05856,-0.08296,-0.08784,-0.06344,-0.06832
-0.0244,0.0122,0,0.0122,0.0244,-0.0244,-0.03904,-0.06344,-0.08296,-0.0976,-0.07808,-0.0732
-0.02928,0.01464,0,0.01464,0.02928,-0.02928,-0.03904,-0.05856,-0.08784,-0.0976,-0.06832,-0.06832
-0.02928,0.01464,0,0.01464,0.02928,-0.02928,-0.03904,-0.05856,-0.08784,-0.0976,-0.06832,-0.06832
-0.03416,0.01952,-0.00488,0.0122,0.02928,-0.03172,-0.02928,-0.05856,-0.07808,-0.09272,-0.06832,-0.05856
-0.03416,0.01952,-0.00488,0.0122,0.02928,-0.03172,-0.02928,-0.05856,-0.07808,-0.09272,-0.06832,-0.05856
-0.02928,0.01952,-0.00976,0.00488,0.01952,-0.0244,-0.0244,-0.05368,-0.08296,-0.08784,-0.06832,-0.05856
-0.01464,0.00244,0.00976,0.01708,0.0244,-0.01952,-0.0244,-0.05368,-0.06832,-0.08296,-0.05368,-0.05856
-0.01464,-0.00244,0.01952,0.02684,0.03416,-0.0244,-0.01952,-0.0488,-0.06832,-0.06832,-0.05368,-0.05368
-0.00976,-0.01464,0.03904,0.04392,0.0488,-0.02928,-0.01952,-0.0488,-0.06832,-0.06832,-0.05368,-0.05368
-0.00976,-0.0122,0.03416,0.03904,0.04392,-0.02684,-0.01952,-0.03904,-0.05368,-0.06344,-0.0488,-0.03904
-0.01464,-0.01464,0.04392,0.05124,0.05856,-0.0366,-0.01464,-0.03416,-0.05368,-0.05856,-0.03416,-0.03416
0,-0.02684,0.05368,0.05368,0.05368,-0.02684,-0.0244,-0.04392,-0.05856,-0.06344,-0.02928,-0.04392
0.00976,-0.04148,0.0732,0.06832,0.06344,-0.02684,-0.0244,-0.04392,-0.0488,-0.06832,-0.03904,-0.03904
0.01464,-0.04148,0.06832,0.061,0.05368,-0.01952,-0.0244,-0.0488,-0.05856,-0.0732,-0.0488,-0.04392
0.03904,-0.06344,0.08784,0.06832,0.0488,-0.00488,-0.02928,-0.0488,-0.05368,-0.05856,-0.03416,-0.0244
0.03904,-0.06588,0.09272,0.0732,0.05368,-0.00732,-0.04392,-0.0488,-0.04392,-0.05856,-0.0244,-0.01952
0.04392,-0.07076,0.0976,0.07564,0.05368,-0.00488,-0.05368,-0.05856,-0.0488,-0.05368,-0.01952,-0.01952
0.0488,-0.0732,0.0976,0.0732,0.0488,0,-0.06344,-0.08296,-0.05856,-0.05856,-0.0244,-0.01464
0.06832,-0.09516,0.122,0.08784,0.05368,0.00732,-0.0732,-0.08296,-0.05856,-0.05856,-0.01952,-0.00976
0.06344,-0.07808,0.09272,0.061,0.02928,0.01708,-0.05856,-0.06344,-0.04392,-0.03416,0,0
0.06344,-0.08052,0.0976,0.06588,0.03416,0.01464,-0.05856,-0.05856,-0.03904,-0.03416,0.00488,0.00976
0.06344,-0.07564,0.08784,0.05612,0.0244,0.01952,-0.06344,-0.05368,-0.03904,-0.03416,0.00488,0
0.0488,-0.061,0.0732,0.0488,0.0244,0.0122,-0.0732,-0.06344,-0.05856,-0.05368,-0.01464,-0.01464
0.03904,-0.04148,0.04392,0.0244,0.00488,0.01708,-0.06344,-0.06832,-0.0732,-0.0732,-0.03416,-0.01952
0.03416,-0.03172,0.02928,0.0122,-0.00488,0.01952,-0.06344,-0.0732,-0.07808,-0.08784,-0.04392,-0.02928
0.01464,-0.01708,0.01952,0.0122,0.00488,0.00488,-0.05856,-0.06832,-0.0976,-0.10248,-0.05368,-0.0488
0.00488,0.00488,-0.01464,-0.01708,-0.01952,0.0122,-0.05368,-0.06832,-0.0976,-0.11224,-0.06344,-0.05856
-0.02928,0.03172,-0.03416,-0.01952,-0.00488,-0.0122,-0.05368,-0.06832,-0.10248,-0.10736,-0.0732,-0.0732
-0.0488,0.04392,-0.03904,-0.01464,0.00976,-0.02928,-0.04392,-0.06832,-0.10248,-0.11712,-0.08784,-0.08296
-0.0488,0.04636,-0.04392,-0.01952,0.00488,-0.02684,-0.05368,-0.07808,-0.10248,-0.12688,-0.09272,-0.08784
-0.04392,0.0488,-0.05368,-0.03172,-0.00976,-0.01708,-0.05856,-0.07808,-0.10736,-0.13176,-0.09272,-0.08784
-0.03416,0.0488,-0.06344,-0.04636,-0.02928,-0.00244,-0.05856,-0.08296,-0.11712,-0.14152,-0.0976,-0.08784
-0.03416,0.05124,-0.06832,-0.05124,-0.03416,0,-0.05856,-0.08296,-0.11224,-0.15128,-0.10248,-0.09272
-0.03416,0.05124,-0.06832,-0.05124,-0.03416,0,-0.05856,-0.08296,-0.11224,-0.1464,-0.10736,-0.10248
-0.03416,0.04636,-0.05856,-0.04148,-0.0244,-0.00488,-0.06344,-0.08296,-0.11224,-0.1464,-0.10248,-0.10248
-0.03904,0.04392,-0.0488,-0.02928,-0.00976,-0.01464,-0.0488,-0.08296,-0.11224,-0.1464,-0.11224,-0.10248
-0.04392,0.04392,-0.04392,-0.02196,0,-0.02196,-0.0488,-0.07808,-0.11224,-0.1464,-0.11224,-0.10736
-0.05368,0.05612,-0.05856,-0.03172,-0.00488,-0.0244,-0.05856,-0.07808,-0.11224,-0.13664,-0.10736,-0.10736
-0.05368,0.05612,-0.05856,-0.03172,-0.00488,-0.0244,-0.05856,-0.07808,-0.11224,-0.14152,-0.10736,-0.10736
-0.05368,0.05368,-0.05368,-0.02684,0,-0.02684,-0.05368,-0.0732,-0.10736,-0.14152,-0.10736,-0.0976
-0.03904,0.04636,-0.05368,-0.03416,-0.01464,-0.0122,-0.04392,-0.06832,-0.10248,-0.13664,-0.10248,-0.0976
-0.0488,0.04392,-0.03904,-0.01464,0.00976,-0.02928,-0.0488,-0.0732,-0.10248,-0.13664,-0.10248,-0.0976
-0.05368,0.04636,-0.03904,-0.0122,0.01464,-0.03416,-0.04392,-0.0732,-0.10248,-0.13664,-0.10248,-0.0976
-0.05856,0.05368,-0.0488,-0.01952,0.00976,-0.03416,-0.0488,-0.0732,-0.10248,-0.13664,-0.10248,-0.0976
-0.05856,0.05368,-0.0488,-0.01952,0.00976,-0.03416,-0.0488,-0.0732,-0.10248,-0.13664,-0.10248,-0.09272
-0.05368,0.04636,-0.03904,-0.0122,0.01464,-0.03416,-0.05368,-0.06832,-0.0976,-0.13176,-0.10248,-0.09272
-0.04392,0.03904,-0.03416,-0.0122,0.00976,-0.02684,-0.05368,-0.06832,-0.0976,-0.13176,-0.10248,-0.09272
-0.03416,0.03416,-0.03416,-0.01708,0,-0.01708,-0.04392,-0.06344,-0.08296,-0.12688,-0.0976,-0.10248
-0.07808,0.04392,-0.00976,0.02928,0.06832,-0.0732,-0.02928,-0.05856,-0.06344,-0.122,-0.0976,-0.10248
-0.08296,0.01708,0.0488,0.09028,0.13176,-0.10736,-0.00976,-0.03904,-0.00488,-0.0732,-0.05856,-0.06832
-0.08296,-0.00732,0.0976,0.13908,0.18056,-0.13176,0.00488,-0.00976,0.03904,-0.00488,0.01464,-0.00488
-0.02928,-0.05856,0.1464,0.16104,0.17568,-0.10248,0.05856,0.11224,0.18544,0.2196,0.23424,0.15128
0.06344,-0.11468,0.16592,0.1342,0.10248,-0.01952,0.12688,0.30256,0.366,0.52704,0.53192,0.40016
0.23912,-0.2318,0.22448,0.10492,-0.01464,0.12688,0.20984,0.51728,0.59048,0.94672,0.9272,0.69296
0.3904,-0.32696,0.26352,0.06832,-0.12688,0.25864,0.24888,0.66856,0.79544,1.342,1.29808,0.97112
0.5124,-0.34648,0.18056,-0.07564,-0.33184,0.42212,0.30256,0.80032,0.94672,1.6592,1.50792,1.09312
0.59536,-0.32696,0.05856,-0.23912,-0.5368,0.56608,0.1708,0.61,0.81496,1.68848,1.47376,1.03944
0.61,-0.31476,0.01952,-0.28548,-0.59048,0.60024,-0.11224,0.1464,0.43432,1.34688,1.12728,0.80032
0.41968,-0.183,-0.05368,-0.26352,-0.47336,0.44652,-0.40016,-0.44896,-0.18056,0.45872,0.33184,0.26352
0.23912,-0.0854,-0.06832,-0.18788,-0.30744,0.27328,-0.52704,-0.7808,-0.58072,-0.18056,-0.11224,-0.0488
0.05856,0.04148,-0.14152,-0.1708,-0.20008,0.12932,-0.57096,-0.8784,-0.854,-0.63928,-0.41968,-0.25864
-0.03416,0.0976,-0.16104,-0.14396,-0.12688,0.04636,-0.51728,-0.84912,-0.8784,-0.79544,-0.5124,-0.32208
-0.04392,0.10492,-0.16592,-0.14396,-0.122,0.03904,-0.47824,-0.74664,-0.7808,-0.7076,-0.47824,-0.32696
-0.02928,0.0732,-0.11712,-0.10248,-0.08784,0.02928,-0.40992,-0.59048,-0.61488,-0.55144,-0.38064,-0.2684
-0.03904,0.04636,-0.05368,-0.03416,-0.01464,-0.0122,-0.29768,-0.38552,-0.40504,-0.37576,-0.25864,-0.18544
-0.01952,0.02928,-0.03904,-0.02928,-0.01952,0,-0.16592,-0.22448,-0.25376,-0.244,-0.1708,-0.12688
-0.02928,0.03416,-0.03904,-0.0244,-0.00976,-0.00976,-0.10248,-0.14152,-0.16592,-0.18544,-0.13176,-0.11224
-0.02928,0.0244,-0.01952,-0.00488,0.00976,-0.01952,-0.05368,-0.08296,-0.11712,-0.15128,-0.12688,-0.0976
-0.05856,0.03904,-0.01952,0.00976,0.03904,-0.0488,-0.03416,-0.05856,-0.0976,-0.14152,-0.11712,-0.09272
-0.04392,0.02928,-0.01464,0.00732,0.02928,-0.0366,-0.02928,-0.05368,-0.08784,-0.14152,-0.10736,-0.0976
-0.03416,0.02928,-0.0244,-0.00732,0.00976,-0.02196,-0.02928,-0.0488,-0.08784,-0.13664,-0.11224,-0.0976
-0.03904,0.0366,-0.03416,-0.01464,0.00488,-0.02196,-0.0244,-0.0488,-0.07808,-0.14152,-0.122,-0.10248
-0.05368,0.04392,-0.03416,-0.00732,0.01952,-0.0366,-0.01952,-0.0488,-0.07808,-0.14152,-0.122,-0.10736
-0.05856,0.03904,-0.01952,0.00976,0.03904,-0.0488,-0.01464,-0.02928,-0.06344,-0.122,-0.10736,-0.09272
-0.05856,0.03904,-0.01952,0.00976,0.03904,-0.0488,-0.01464,-0.01464,-0.06344,-0.11712,-0.0976,-0.08784
-0.0488,0.0366,-0.0244,0,0.0244,-0.0366,-0.01464,-0.01952,-0.05856,-0.12688,-0.10248,-0.0976
-0.0488,0.0366,-0.0244,0,0.0244,-0.0366,-0.00976,-0.01952,-0.05368,-0.122,-0.10248,-0.0976
-0.05856,0.0366,-0.01464,0.01464,0.04392,-0.05124,-0.00976,-0.01464,-0.05856,-0.122,-0.10736,-0.09272
-0.05856,0.0366,-0.01464,0.01464,0.04392,-0.05124,-0.00488,-0.00976,-0.0488,-0.11712,-0.10736,-0.09272
-0.05856,0.03904,-0.01952,0.00976,0.03904,-0.0488,-0.00488,0.00488,-0.03904,-0.10736,-0.0976,-0.08784
-0.05856,0.03904,-0.01952,0.00976,0.03904,-0.0488,0,0.00976,-0.03904,-0.10248,-0.0976,-0.08784
-0.05856,0.04392,-0.02928,0,0.02928,-0.04392,0,0.00488,-0.02928,-0.10736,-0.09272,-0.08296
-0.05856,0.04392,-0.02928,0,0.02928,-0.04392,0.00488,0.00488,-0.02928,-0.10248,-0.09272,-0.07808
-0.06832,0.04636,-0.0244,0.00976,0.04392,-0.05612,0.00976,0.01464,-0.02928,-0.0976,-0.0976,-0.07808
-0.06832,0.04636,-0.0244,0.00976,0.04392,-0.05612,0.00976,0.01464,-0.02928,-0.0976,-0.0976,-0.07808
-0.06344,0.04148,-0.01952,0.0122,0.04392,-0.05368,0.00976,0.01952,-0.0244,-0.08296,-0.08784,-0.08784
-0.0488,0.0244,0,0.0244,0.0488,-0.0488,0.00976,0.01952,-0.01952,-0.08296,-0.08784,-0.08784
-0.0488,0.02928,-0.00976,0.01464,0.03904,-0.04392,0.0244,0.03416,-0.00488,-0.07808,-0.08784,-0.07808
-0.05856,0.03416,-0.00976,0.01952,0.0488,-0.05368,0.0244,0.03904,0,-0.06832,-0.08296,-0.07808
-0.06344,0.0366,-0.00976,0.02196,0.05368,-0.05856,0.02928,0.04392,0,-0.06832,-0.08296,-0.08296
-0.05856,0.03172,-0.00488,0.0244,0.05368,-0.05612,0.03416,0.03904,0.00488,-0.06832,-0.07808,-0.08296
-0.03904,0.02684,-0.01464,0.00488,0.0244,-0.03172,0.03416,0.0488,0.00976,-0.06344,-0.08784,-0.08296
-0.04392,0.02928,-0.01464,0.00732,0.02928,-0.0366,0.03416,0.05856,0.0244,-0.0488,-0.08296,-0.07808
-0.0488,0.03416,-0.01952,0.00488,0.02928,-0.03904,0.0488,0.07808,0.04392,-0.03416,-0.06832,-0.06344
-0.05368,0.0366,-0.01952,0.00732,0.03416,-0.04392,0.0488,0.08296,0.05368,-0.02928,-0.05856,-0.06344
-0.0488,0.02684,-0.00488,0.01952,0.04392,-0.04636,0.05856,0.10248,0.06832,-0.00488,-0.05368,-0.05856
-0.03416,0.01464,0.00488,0.02196,0.03904,-0.0366,0.06344,0.11224,0.07808,0.00976,-0.0488,-0.05856
-0.02928,0.01464,0,0.01464,0.02928,-0.02928,0.06832,0.11712,0.08784,0.01464,-0.03416,-0.05856
-0.02928,0.0122,0.00488,0.01952,0.03416,-0.03172,0.08296,0.13664,0.10736,0.03416,-0.0244,-0.05368
-0.01952,-0.00244,0.0244,0.03416,0.04392,-0.03172,0.08296,0.1464,0.12688,0.05856,-0.01952,-0.03904
-0.00976,-0.00732,0.0244,0.02928,0.03416,-0.02196,0.09272,0.17568,0.1464,0.08296,-0.00488,-0.02928
-0.01952,-0.00244,0.0244,0.03416,0.04392,-0.03172,0.11224,0.1952,0.1708,0.0976,-0.00488,-0.0244
-0.01464,-0.00244,0.01952,0.02684,0.03416,-0.0244,0.122,0.2196,0.20496,0.122,0.00976,-0.00976
-0.01952,-0.00244,0.0244,0.03416,0.04392,-0.03172,0.122,0.23912,0.22936,0.15616,0.03904,-0.00976
-0.00976,-0.01708,0.04392,0.0488,0.05368,-0.03172,0.13176,0.25864,0.23912,0.18056,0.05368,-0.00488
0,-0.0244,0.0488,0.0488,0.0488,-0.0244,0.1464,0.27816,0.27328,0.2196,0.0732,0.01464
0.01464,-0.03416,0.05368,0.04636,0.03904,-0.0122,0.16592,0.30256,0.29768,0.23912,0.08784,0.02928
0.01464,-0.03416,0.05368,0.04636,0.03904,-0.0122,0.17568,0.32208,0.31232,0.25376,0.10736,0.03416
0.01952,-0.04148,0.06344,0.05368,0.04392,-0.0122,0.18544,0.34648,0.33184,0.28304,0.11224,0.04392
0.0244,-0.05124,0.07808,0.06588,0.05368,-0.01464,0.18544,0.34648,0.33672,0.30256,0.11712,0.04392
0.02928,-0.05368,0.07808,0.06344,0.0488,-0.00976,0.19032,0.366,0.35136,0.32208,0.13176,0.04392
0.02928,-0.05124,0.0732,0.05856,0.04392,-0.00732,0.19032,0.37088,0.37576,0.32696,0.14152,0.05368
0.03416,-0.05368,0.0732,0.05612,0.03904,-0.00244,0.18544,0.38064,0.38064,0.3416,0.14152,0.05856
0.02928,-0.05124,0.0732,0.05856,0.04392,-0.00732,0.1952,0.3904,0.37088,0.35136,0.1464,0.06344
0.03416,-0.05368,0.0732,0.05612,0.03904,-0.00244,0.1952,0.3904,0.37576,0.35624,0.15128,0.06344
0.03904,-0.06344,0.08784,0.06832,0.0488,-0.00488,0.18544,0.38552,0.37576,0.34648,0.1464,0.06344
0.0488,-0.06832,0.08784,0.06344,0.03904,0.00488,0.18544,0.37576,0.36112,0.33672,0.1464,0.06344
0.0488,-0.061,0.0732,0.0488,0.0244,0.0122,0.18544,0.36112,0.36112,0.33672,0.15128,0.0732
0.0488,-0.061,0.0732,0.0488,0.0244,0.0122,0.1952,0.35624,0.35136,0.33672,0.15616,0.0732
0.05368,-0.05856,0.06344,0.0366,0.00976,0.02196,0.18056,0.35136,0.32696,0.3172,0.15128,0.06344
0.05368,-0.05856,0.06344,0.0366,0.00976,0.02196,0.16592,0.3172,0.29768,0.28304,0.13664,0.06344
0.04392,-0.05612,0.06832,0.04636,0.0244,0.00976,0.15616,0.2928,0.27328,0.24888,0.122,0.06344
0.03904,-0.05856,0.07808,0.05856,0.03904,0,0.1464,0.26352,0.24888,0.22448,0.11224,0.05368
0.02928,-0.05124,0.0732,0.05856,0.04392,-0.00732,0.122,0.23912,0.21472,0.1952,0.08784,0.03904
0.01464,-0.0366,0.05856,0.05124,0.04392,-0.01464,0.11224,0.21472,0.18544,0.15616,0.06832,0.03416
0.01952,-0.02928,0.03904,0.02928,0.01952,0,0.0976,0.17568,0.15128,0.122,0.05856,0.0244
0.00976,-0.02196,0.03416,0.02928,0.0244,-0.00732,0.08296,0.14152,0.122,0.08784,0.04392,0.01464
0.00488,-0.01464,0.0244,0.02196,0.01952,-0.00732,0.07808,0.11712,0.0976,0.0732,0.01952,-0.00976
0,-0.01464,0.02928,0.02928,0.02928,-0.01464,0.06344,0.09272,0.06832,0.03904,0.00488,-0.01464
0.00976,-0.0244,0.03904,0.03416,0.02928,-0.00976,0.05856,0.07808,0.03904,0.01952,-0.01464,-0.01952
0,-0.00976,0.01952,0.01952,0.01952,-0.00976,0.0488,0.06832,0.0244,0.00488,-0.0244,-0.0244
0,-0.00732,0.01464,0.01464,0.01464,-0.00732,0.03904,0.04392,-0.00488,-0.0244,-0.02928,-0.03416
-0.01464,0.00488,0.00488,0.0122,0.01952,-0.01708,0.02928,0.03416,-0.0244,-0.0488,-0.03904,-0.03904
-0.0244,0.01708,-0.00976,0.00244,0.01464,-0.01952,0.01464,0.01952,-0.03416,-0.0488,-0.05368,-0.04392
-0.01952,0.0122,-0.00488,0.00488,0.01464,-0.01708,0.00488,0.00488,-0.04392,-0.0732,-0.06344,-0.05368
-0.00976,0.00732,-0.00488,0,0.00488,-0.00732,0.00488,-0.00488,-0.04392,-0.07808,-0.06832,-0.06344
-0.0244,0.01464,-0.00488,0.00732,0.01952,-0.02196,0.00488,-0.00976,-0.05368,-0.08296,-0.0732,-0.06832
-0.0244,0.01952,-0.01464,-0.00244,0.00976,-0.01708,0,-0.01464,-0.06344,-0.08296,-0.07808,-0.06344
-0.02928,0.0244,-0.01952,-0.00488,0.00976,-0.01952,0,-0.01464,-0.06344,-0.08784,-0.08784,-0.0732
-0.0244,0.02684,-0.02928,-0.01708,-0.00488,-0.00976,-0.00976,-0.01464,-0.06344,-0.0976,-0.09272,-0.07808
-0.01952,0.02196,-0.0244,-0.01464,-0.00488,-0.00732,-0.00976,-0.01952,-0.0732,-0.10248,-0.09272,-0.08296
-0.02928,0.02928,-0.02928,-0.01464,0,-0.01464,0,-0.0244,-0.06344,-0.09272,-0.08784,-0.0732
-0.03416,0.03172,-0.02928,-0.0122,0.00488,-0.01952,-0.00488,-0.01952,-0.06344,-0.09272,-0.08784,-0.0732
-0.03416,0.02684,-0.01952,-0.00244,0.01464,-0.0244,-0.00488,-0.00976,-0.06344,-0.0976,-0.08784,-0.07808
-0.01952,0.01952,-0.01952,-0.00976,0,-0.00976,-0.00488,-0.00976,-0.06344,-0.0976,-0.08784,-0.07808
-0.01952,0.0244,-0.02928,-0.01952,-0.00976,-0.00488,0.00976,-0.00976,-0.05856,-0.09272,-0.09272,-0.07808
-0.03416,0.03172,-0.02928,-0.0122,0.00488,-0.01952,0.00976,-0.00976,-0.05856,-0.09272,-0.08784,-0.07808
-0.03904,0.02684,-0.01464,0.00488,0.0244,-0.03172,0.00488,-0.01952,-0.05368,-0.10736,-0.08784,-0.06832
-0.04392,0.03172,-0.01952,0.00244,0.0244,-0.03416,0.00488,-0.01952,-0.05368,-0.10248,-0.08296,-0.06832
-0.0244,0.0244,-0.0244,-0.0122,0,-0.0122,0.00488,-0.01952,-0.06344,-0.0976,-0.09272,-0.07808
-0.00488,0.00976,-0.01464,-0.0122,-0.00976,0.00244,-0.00488,-0.01952,-0.06344,-0.10248,-0.09272,-0.0732
-0.00488,0.00976,-0.01464,-0.0122,-0.00976,0.00244,0,-0.00488,-0.0488,-0.10248,-0.08296,-0.0732
-0.00976,0.0122,-0.01464,-0.00976,-0.00488,-0.00244,0.00488,0,-0.04392,-0.0976,-0.08296,-0.0732
-0.01464,0.01952,-0.0244,-0.01708,-0.00976,-0.00244,0.00488,0.00488,-0.04392,-0.08784,-0.07808,-0.0732
-0.02928,0.02684,-0.0244,-0.00976,0.00488,-0.01708,0.00976,0.00488,-0.04392,-0.08784,-0.07808,-0.06832
-0.0244,0.0122,0,0.0122,0.0244,-0.0244,0.00488,0,-0.05368,-0.08784,-0.07808,-0.07808
-0.00976,0,0.00976,0.01464,0.01952,-0.01464,-0.00488,-0.00976,-0.0488,-0.09272,-0.08784,-0.07808
-0.0244,0.00732,0.00976,0.02196,0.03416,-0.02928,0,-0.01464,-0.0488,-0.09272,-0.08296,-0.06344
-0.0244,0.00732,0.00976,0.02196,0.03416,-0.02928,0.00488,-0.00976,-0.0488,-0.08296,-0.07808,-0.05856
-0.0244,0.0122,0,0.0122,0.0244,-0.0244,0.00976,0,-0.03416,-0.07808,-0.06832,-0.0488
-0.0244,0.01708,-0.00976,0.00244,0.01464,-0.01952,0.00976,-0.00488,-0.03416,-0.0732,-0.06832,-0.05368
-0.0244,0.01464,-0.00488,0.00732,0.01952,-0.02196,0,-0.00976,-0.03416,-0.08296,-0.06832,-0.05856
-0.0244,0.00244,0.01952,0.03172,0.04392,-0.03416,0,-0.01464,-0.03416,-0.08296,-0.06344,-0.05856
-0.0244,0.00488,0.01464,0.02684,0.03904,-0.03172,0,-0.01952,-0.0488,-0.08296,-0.07808,-0.05856
-0.02928,0.00976,0.00976,0.0244,0.03904,-0.03416,0,-0.01464,-0.04392,-0.08784,-0.0732,-0.05856
-0.03416,0.01464,0.00488,0.02196,0.03904,-0.0366,-0.00976,-0.0244,-0.0488,-0.08784,-0.08296,-0.06832
-0.03416,0.0122,0.00976,0.02684,0.04392,-0.03904,-0.00976,-0.0244,-0.0488,-0.08784,-0.08296,-0.06832
-0.01952,0.00244,0.01464,0.0244,0.03416,-0.02684,0,-0.01952,-0.04392,-0.07808,-0.07808,-0.06832
-0.01464,0,0.01464,0.02196,0.02928,-0.02196,-0.00488,-0.01952,-0.04392,-0.08296,-0.07808,-0.06832
-0.0244,0.00488,0.01464,0.02684,0.03904,-0.03172,0.00488,-0.00976,-0.03416,-0.08296,-0.0732,-0.05856
-0.02928,0.00488,0.01952,0.03416,0.0488,-0.03904,0.00488,-0.01464,-0.03904,-0.08784,-0.0732,-0.05856
-0.02928,0.0122,0.00488,0.01952,0.03416,-0.03172,-0.00488,-0.01464,-0.03904,-0.07808,-0.0732,-0.06832
-0.02928,0.01708,-0.00488,0.00976,0.0244,-0.02684,-0.00976,-0.01464,-0.04392,-0.07808,-0.0732,-0.06832
-0.02928,0.01952,-0.00976,0.00488,0.01952,-0.0244,-0.01464,-0.01952,-0.04392,-0.08784,-0.08296,-0.06832
-0.02928,0.0122,0.00488,0.01952,0.03416,-0.03172,-0.01464,-0.0244,-0.0488,-0.09272,-0.07808,-0.0732
-0.03416,0.0122,0.00976,0.02684,0.04392,-0.03904,-0.01464,-0.03416,-0.0488,-0.08296,-0.06832,-0.0732
-0.03416,0.01464,0.00488,0.02196,0.03904,-0.0366,-0.01464,-0.03416,-0.0488,-0.08296,-0.0732,-0.0732
-0.03416,0.01464,0.00488,0.02196,0.03904,-0.0366,-0.0244,-0.03904,-0.05368,-0.0976,-0.08784,-0.08296
-0.03416,0.00976,0.01464,0.03172,0.0488,-0.04148,-0.0244,-0.03904,-0.05856,-0.0976,-0.08296,-0.08296
-0.03416,0.0122,0.00976,0.02684,0.04392,-0.03904,-0.02928,-0.03904,-0.05856,-0.10736,-0.08296,-0.08784
-0.02928,0.00976,0.00976,0.0244,0.03904,-0.03416,-0.0244,-0.04392,-0.05856,-0.11224,-0.09272,-0.08784
-0.02928,0.01464,0,0.01464,0.02928,-0.02928,-0.00976,-0.03904,-0.05368,-0.10248,-0.08296,-0.07808
-0.02928,0.01952,-0.00976,0.00488,0.01952,-0.0244,-0.01464,-0.04392,-0.05368,-0.10248,-0.08296,-0.07808
-0.0244,0.0122,0,0.0122,0.0244,-0.0244,-0.01464,-0.03416,-0.05856,-0.10736,-0.08296,-0.07808
-0.02928,0.01464,0,0.01464,0.02928,-0.02928,-0.01464,-0.03416,-0.05856,-0.10736,-0.08296,-0.07808
-0.03904,0.01708,0.00488,0.0244,0.04392,-0.04148,-0.0244,-0.0488,-0.06832,-0.11224,-0.0976,-0.07808
-0.03416,0.01464,0.00488,0.02196,0.03904,-0.0366,-0.01952,-0.0488,-0.0732,-0.11712,-0.09272,-0.08784
-0.0244,0.0122,0,0.0122,0.0244,-0.0244,-0.02928,-0.05368,-0.0732,-0.11712,-0.0976,-0.08296
-0.01952,0.00732,0.00488,0.01464,0.0244,-0.02196,-0.01464,-0.04392,-0.07808,-0.11224,-0.09272,-0.08296
-0.01952,0.00976,0,0.00976,0.01952,-0.01952,-0.01952,-0.0488,-0.06832,-0.10736,-0.08784,-0.07808
-0.02928,0.01952,-0.00976,0.00488,0.01952,-0.0244,-0.01952,-0.05856,-0.06832,-0.11712,-0.08784,-0.08784
-0.02928,0.0244,-0.01952,-0.00488,0.00976,-0.01952,-0.01952,-0.05856,-0.06832,-0.11712,-0.08784,-0.08784
-0.03416,0.01708,0,0.01708,0.03416,-0.03416,-0.01952,-0.0488,-0.07808,-0.122,-0.0976,-0.0976
-0.04392,0.01952,0.00488,0.02684,0.0488,-0.04636,-0.01464,-0.04392,-0.0732,-0.11712,-0.0976,-0.09272
-0.03904,0.01464,0.00976,0.02928,0.0488,-0.04392,-0.00488,-0.03416,-0.06344,-0.10736,-0.08296,-0.07808
-0.03416,0.00488,0.0244,0.04148,0.05856,-0.04636,0,-0.0244,-0.03904,-0.09272,-0.06344,-0.06344
-0.03416,-0.00488,0.04392,0.061,0.07808,-0.05612,-0.00976,-0.02928,-0.0488,-0.0976,-0.0732,-0.0732
-0.02928,-0.0122,0.05368,0.06832,0.08296,-0.05612,-0.00976,-0.03904,-0.04392,-0.0976,-0.0732,-0.0732
-0.01464,-0.01464,0.04392,0.05124,0.05856,-0.0366,-0.00976,-0.03904,-0.03416,-0.08784,-0.06344,-0.05856
-0.00976,-0.01464,0.03904,0.04392,0.0488,-0.02928,-0.00488,-0.03416,-0.02928,-0.08784,-0.05856,-0.05368
-0.00488,-0.02684,0.05856,0.061,0.06344,-0.03416,0.00488,-0.03416,-0.03416,-0.08296,-0.06344,-0.06344
-0.00488,-0.02684,0.05856,0.061,0.06344,-0.03416,0.00488,-0.03416,-0.02928,-0.08296,-0.05856,-0.05856
0.00488,-0.04148,0.07808,0.07564,0.0732,-0.03416,0.00488,-0.01952,-0.01464,-0.0732,-0.04392,-0.04392
0.02928,-0.061,0.09272,0.07808,0.06344,-0.01708,-0.00976,-0.01952,-0.01464,-0.06832,-0.02928,-0.03416
0.03904,-0.06588,0.09272,0.0732,0.05368,-0.00732,-0.02928,-0.03416,-0.02928,-0.0732,-0.02928,-0.01952
0.05368,-0.07564,0.0976,0.07076,0.04392,0.00488,-0.03904,-0.04392,-0.03416,-0.0732,-0.03416,-0.01952
0.04392,-0.08052,0.11712,0.09516,0.0732,-0.01464,-0.06344,-0.06344,-0.03904,-0.07808,-0.03904,-0.0244
0.05368,-0.08784,0.122,0.09516,0.06832,-0.00732,-0.06344,-0.05856,-0.03904,-0.06832,-0.03416,-0.02928
0.05368,-0.0732,0.09272,0.06588,0.03904,0.00732,-0.0488,-0.0488,-0.02928,-0.06344,-0.0244,-0.00976
0.05368,-0.07076,0.08784,0.061,0.03416,0.00976,-0.04392,-0.04392,-0.02928,-0.06344,-0.0244,-0.00976
0.04392,-0.06588,0.08784,0.06588,0.04392,0,-0.05368,-0.0488,-0.04392,-0.0732,-0.03416,-0.01952
0.02928,-0.04636,0.06344,0.0488,0.03416,-0.00244,-0.06344,-0.05856,-0.06832,-0.09272,-0.05368,-0.02928
0.03904,-0.0488,0.05856,0.03904,0.01952,0.00976,-0.06344,-0.06344,-0.07808,-0.10248,-0.05856,-0.03904
0.0244,-0.03416,0.04392,0.03172,0.01952,0.00244,-0.06344,-0.05856,-0.07808,-0.11224,-0.06832,-0.05368
0.00488,-0.00244,0,-0.00244,-0.00488,0.00488,-0.0488,-0.05856,-0.08784,-0.11712,-0.07808,-0.06344
-0.01464,0.01464,-0.01464,-0.00732,0,-0.00732,-0.04392,-0.05856,-0.09272,-0.12688,-0.08784,-0.08296
-0.02928,0.02684,-0.0244,-0.00976,0.00488,-0.01708,-0.0488,-0.06832,-0.10248,-0.13664,-0.0976,-0.0976
-0.03904,0.0366,-0.03416,-0.01464,0.00488,-0.02196,-0.04392,-0.06832,-0.10736,-0.14152,-0.11224,-0.11224
-0.03416,0.02928,-0.0244,-0.00732,0.00976,-0.02196,-0.0488,-0.06832,-0.10736,-0.16104,-0.122,-0.11712
-0.03904,0.03904,-0.03904,-0.01952,0,-0.01952,-0.0488,-0.0732,-0.10736,-0.16104,-0.122,-0.11712
-0.03904,0.0488,-0.05856,-0.03904,-0.01952,-0.00976,-0.0488,-0.08296,-0.11712,-0.16104,-0.13176,-0.11224
-0.0488,0.05368,-0.05856,-0.03416,-0.00976,-0.01952,-0.0488,-0.08296,-0.11224,-0.15616,-0.13176,-0.11224
-0.05368,0.04636,-0.03904,-0.0122,0.01464,-0.03416,-0.04392,-0.0732,-0.11224,-0.15616,-0.13664,-0.122
-0.05368,0.04392,-0.03416,-0.00732,0.01952,-0.0366,-0.04392,-0.0732,-0.11224,-0.15616,-0.13176,-0.122
-0.0488,0.0488,-0.0488,-0.0244,0,-0.0244,-0.03904,-0.06832,-0.10248,-0.15616,-0.122,-0.11224
-0.0488,0.05368,-0.05856,-0.03416,-0.00976,-0.01952,-0.03904,-0.06832,-0.10248,-0.15616,-0.122,-0.11712
-0.05368,0.05612,-0.05856,-0.03172,-0.00488,-0.0244,-0.0488,-0.07808,-0.11224,-0.16592,-0.12688,-0.12688
-0.05856,0.05856,-0.05856,-0.02928,0,-0.02928,-0.0488,-0.08296,-0.12688,-0.1708,-0.12688,-0.12688
-0.06344,0.05856,-0.05368,-0.02196,0.00976,-0.0366,-0.03904,-0.07808,-0.11712,-0.16592,-0.13664,-0.12688
-0.06832,0.061,-0.05368,-0.01952,0.01464,-0.04148,-0.03904,-0.08296,-0.11224,-0.16592,-0.13176,-0.12688
-0.05856,0.05368,-0.0488,-0.01952,0.00976,-0.03416,-0.03416,-0.0732,-0.11224,-0.15616,-0.122,-0.11712
-0.05368,0.05124,-0.0488,-0.02196,0.00488,-0.02928,-0.03416,-0.0732,-0.11224,-0.15616,-0.122,-0.11712
-0.05856,0.05856,-0.05856,-0.02928,0,-0.02928,-0.03904,-0.0732,-0.11224,-0.15616,-0.13176,-0.11712
-0.05856,0.05856,-0.05856,-0.02928,0,-0.02928,-0.03904,-0.06832,-0.11224,-0.15128,-0.13176,-0.11224
-0.06832,0.06344,-0.05856,-0.0244,0.00976,-0.03904,-0.03416,-0.06832,-0.10736,-0.16104,-0.122,-0.11224
-0.06344,0.05856,-0.05368,-0.02196,0.00976,-0.0366,-0.03416,-0.06344,-0.10248,-0.16104,-0.122,-0.11224
-0.0732,0.05124,-0.02928,0.00732,0.04392,-0.05856,-0.02928,-0.06344,-0.0976,-0.15128,-0.12688,-0.11224
-0.07808,0.03416,0.00976,0.0488,0.08784,-0.08296,-0.00488,-0.04392,-0.03904,-0.11712,-0.0976,-0.11224
-0.09272,0.00976,0.0732,0.11956,0.16592,-0.12932,0.01952,-0.02928,0.00488,-0.07808,-0.06344,-0.07808
-0.05368,-0.03416,0.122,0.14884,0.17568,-0.11468,0.03416,0.01464,0.06832,0.03904,0.05856,0.0244
-0.01464,-0.06832,0.15128,0.1586,0.16592,-0.09028,0.09272,0.17568,0.23424,0.29768,0.28792,0.20008
0.14152,-0.16348,0.18544,0.11468,0.04392,0.0488,0.15128,0.36112,0.43432,0.64904,0.6344,0.47336
0.29768,-0.25132,0.20496,0.05612,-0.09272,0.1952,0.22448,0.58072,0.64416,1.03944,1.02968,0.7564
0.45384,-0.35868,0.26352,0.0366,-0.19032,0.32208,0.26352,0.7076,0.83448,1.4152,1.36152,1.01016
0.52704,-0.3172,0.10736,-0.15616,-0.41968,0.47336,0.32208,0.81008,0.91744,1.66408,1.47864,1.06384
0.55632,-0.29036,0.0244,-0.25376,-0.53192,0.54412,0.08784,0.4392,0.67344,1.5372,1.33712,0.9516
0.50752,-0.23668,-0.03416,-0.28792,-0.54168,0.5246,-0.21472,-0.08296,0.19032,0.96136,0.7564,0.54168
0.33672,-0.15616,-0.0244,-0.19276,-0.36112,0.34892,-0.44896,-0.61976,-0.38552,0.10736,0.05368,0.05856
0.13664,-0.01952,-0.0976,-0.16592,-0.23424,0.18544,-0.54168,-0.8296,-0.69296,-0.37576,-0.27328,-0.15616
0.0244,0.06588,-0.15616,-0.16836,-0.18056,0.10248,-0.5368,-0.8784,-0.89792,-0.7808,-0.52704,-0.35136
-0.03416,0.10004,-0.16592,-0.14884,-0.13176,0.0488,-0.49288,-0.81496,-0.85888,-0.79056,-0.55144,-0.37088
-0.01952,0.08784,-0.15616,-0.1464,-0.13664,0.05856,-0.44408,-0.69296,-0.72712,-0.67832,-0.47336,-0.32696
-0.02928,0.0732,-0.11712,-0.10248,-0.08784,0.02928,-0.35624,-0.5124,-0.54656,-0.50264,-0.36112,-0.26352
-0.02928,0.04636,-0.06344,-0.0488,-0.03416,0.00244,-0.21472,-0.2928,-0.3172,-0.32696,-0.22936,-0.16592
-0.01952,0.02684,-0.03416,-0.0244,-0.01464,-0.00244,-0.12688,-0.18056,-0.20984,-0.23424,-0.16592,-0.12688
-0.0244,0.02196,-0.01952,-0.00732,0.00488,-0.01464,-0.0732,-0.11224,-0.1464,-0.1952,-0.16104,-0.13176
-0.03416,0.03172,-0.02928,-0.0122,0.00488,-0.01952,-0.04392,-0.07808,-0.12688,-0.18056,-0.1464,-0.12688
-0.06344,0.04392,-0.0244,0.00732,0.03904,-0.05124,-0.01952,-0.0488,-0.09272,-0.15128,-0.13664,-0.10736
-0.05856,0.04148,-0.0244,0.00488,0.03416,-0.04636,-0.01952,-0.03904,-0.08784,-0.1464,-0.13664,-0.11712
-0.05368,0.04392,-0.03416,-0.00732,0.01952,-0.0366,-0.01952,-0.03904,-0.08784,-0.15128,-0.14152,-0.122
-0.05856,0.04636,-0.03416,-0.00488,0.0244,-0.04148,-0.00976,-0.03904,-0.0976,-0.15128,-0.14152,-0.12688
-0.05856,0.03904,-0.01952,0.00976,0.03904,-0.0488,-0.00488,-0.02928,-0.08784,-0.1464,-0.14152,-0.122
-0.05856,0.03416,-0.00976,0.01952,0.0488,-0.05368,-0.00488,-0.01952,-0.0732,-0.1464,-0.13176,-0.12688
-0.05856,0.0366,-0.01464,0.01464,0.04392,-0.05124,-0.00488,-0.01952,-0.06832,-0.1464,-0.13176,-0.12688
-0.05856,0.04148,-0.0244,0.00488,0.03416,-0.04636,0.00488,-0.00976,-0.06832,-0.13664,-0.13176,-0.11712
-0.05856,0.04148,-0.0244,0.00488,0.03416,-0.04636,0.00976,-0.00488,-0.06344,-0.13176,-0.13176,-0.11224
-0.05856,0.04148,-0.0244,0.00488,0.03416,-0.04636,0,-0.00976,-0.06344,-0.12688,-0.12688,-0.122
-0.06832,0.04636,-0.0244,0.00976,0.04392,-0.05612,0.00488,-0.00976,-0.05856,-0.12688,-0.12688,-0.122
-0.05856,0.04392,-0.02928,0,0.02928,-0.04392,-0.00488,-0.00488,-0.0488,-0.122,-0.12688,-0.10736
-0.05856,0.04392,-0.02928,0,0.02928,-0.04392,0,0,-0.04392,-0.11712,-0.122,-0.11224
-0.0488,0.03416,-0.01952,0.00488,0.02928,-0.03904,0.00976,0.00488,-0.0488,-0.122,-0.122,-0.10736
-0.0488,0.03416,-0.01952,0.00488,0.02928,-0.03904,0.01464,0.00976,-0.04392,-0.11712,-0.11712,-0.10736
-0.05856,0.04148,-0.0244,0.00488,0.03416,-0.04636,0.01952,0.01464,-0.02928,-0.10736,-0.11712,-0.10736
-0.06832,0.04636,-0.0244,0.00976,0.04392,-0.05612,0.01952,0.01464,-0.0244,-0.10248,-0.11712,-0.10736
-0.05856,0.0366,-0.01464,0.01464,0.04392,-0.05124,0.01952,0.01952,-0.0244,-0.10248,-0.11712,-0.10736
-0.05368,0.0366,-0.01952,0.00732,0.03416,-0.04392,0.0244,0.0244,-0.01464,-0.0976,-0.11712,-0.10736
-0.05368,0.03172,-0.00976,0.01708,0.04392,-0.0488,0.0244,0.0244,-0.01464,-0.09272,-0.11712,-0.10736
-0.05368,0.03172,-0.00976,0.01708,0.04392,-0.0488,0.0244,0.03416,-0.00488,-0.08296,-0.11224,-0.10248
-0.0488,0.02928,-0.00976,0.01464,0.03904,-0.04392,0.02928,0.04392,0.00488,-0.07808,-0.10736,-0.10248
-0.04392,0.0244,-0.00488,0.01708,0.03904,-0.04148,0.03416,0.04392,0.00488,-0.0732,-0.10736,-0.10248
-0.0488,0.03172,-0.01464,0.00976,0.03416,-0.04148,0.04392,0.05368,0.01464,-0.06344,-0.09272,-0.10248
-0.05368,0.03172,-0.00976,0.01708,0.04392,-0.0488,0.0488,0.06344,0.02928,-0.05368,-0.08784,-0.09272
-0.05856,0.03904,-0.01952,0.00976,0.03904,-0.0488,0.0488,0.0732,0.03904,-0.04392,-0.0976,-0.09272
-0.06344,0.04148,-0.01952,0.0122,0.04392,-0.05368,0.05856,0.08296,0.0488,-0.02928,-0.08296,-0.08784
-0.0488,0.0244,0,0.0244,0.0488,-0.0488,0.05856,0.0976,0.06344,-0.01464,-0.08296,-0.08784
-0.03904,0.01464,0.00976,0.02928,0.0488,-0.04392,0.06832,0.10248,0.07808,0,-0.06832,-0.07808
-0.01952,0.00244,0.01464,0.0244,0.03416,-0.02684,0.0732,0.13176,0.0976,0.01464,-0.05856,-0.0732
-0.00976,0.00244,0.00488,0.00976,0.01464,-0.0122,0.08296,0.15128,0.11224,0.03416,-0.0488,-0.06832
-0.01464,-0.00488,0.0244,0.03172,0.03904,-0.02684,0.0732,0.1464,0.122,0.03416,-0.05368,-0.07808
-0.01952,-0.00244,0.0244,0.03416,0.04392,-0.03172,0.08784,0.16592,0.1464,0.06832,-0.03904,-0.06344
-0.02928,0.00244,0.0244,0.03904,0.05368,-0.04148,0.10736,0.1952,0.18056,0.0976,-0.01464,-0.04392
-0.01952,-0.00244,0.0244,0.03416,0.04392,-0.03172,0.11712,0.2196,0.21472,0.12688,0.00488,-0.03416
-0.00976,-0.0122,0.03416,0.03904,0.04392,-0.02684,0.12688,0.23912,0.2196,0.1464,0.01952,-0.0244
0.00488,-0.0244,0.04392,0.04148,0.03904,-0.01708,0.13664,0.25376,0.23912,0.17568,0.02928,-0.01952
0.00488,-0.03172,0.05856,0.05612,0.05368,-0.0244,0.1464,0.28304,0.26352,0.20008,0.03416,-0.01464
0.00976,-0.0366,0.06344,0.05856,0.05368,-0.02196,0.15616,0.30256,0.2928,0.22448,0.05856,-0.00976
0.01464,-0.04392,0.0732,0.06588,0.05856,-0.02196,0.15616,0.3172,0.31232,0.244,0.06832,0
0.01952,-0.0488,0.07808,0.06832,0.05856,-0.01952,0.1708,0.32696,0.33184,0.2684,0.08296,0.00976
0.01464,-0.05124,0.08784,0.08052,0.0732,-0.02928,0.1708,0.3416,0.35136,0.30256,0.10248,0.02928
0.01952,-0.05612,0.09272,0.08296,0.0732,-0.02684,0.18056,0.35624,0.366,0.31232,0.11712,0.02928
0.03416,-0.05368,0.0732,0.05612,0.03904,-0.00244,0.18544,0.37576,0.37088,0.32696,0.13176,0.04392
0.03904,-0.04636,0.05368,0.03416,0.01464,0.0122,0.1952,0.38064,0.37088,0.33184,0.13664,0.0488
0.04392,-0.05368,0.06344,0.04148,0.01952,0.0122,0.1952,0.37088,0.37576,0.33184,0.12688,0.04392
0.04392,-0.05612,0.06832,0.04636,0.0244,0.00976,0.1952,0.37088,0.37576,0.33672,0.13176,0.03416
0.04392,-0.061,0.07808,0.05612,0.03416,0.00488,0.1952,0.37088,0.38552,0.3416,0.12688,0.04392
0.04392,-0.061,0.07808,0.05612,0.03416,0.00488,0.19032,0.366,0.366,0.33184,0.12688,0.04392
0.05856,-0.07076,0.08296,0.05368,0.0244,0.01708,0.18056,0.35624,0.35136,0.3172,0.11224,0.04392
0.05368,-0.0732,0.09272,0.06588,0.03904,0.00732,0.1708,0.35136,0.33672,0.29768,0.11224,0.04392
0.04392,-0.06344,0.08296,0.061,0.03904,0.00244,0.17568,0.32696,0.31232,0.28304,0.11712,0.04392
0.03416,-0.05856,0.08296,0.06588,0.0488,-0.00732,0.16592,0.30256,0.2928,0.25864,0.10736,0.04392
0.04392,-0.05856,0.0732,0.05124,0.02928,0.00732,0.15128,0.2928,0.27328,0.23912,0.10736,0.03904
0.03904,-0.05368,0.06832,0.0488,0.02928,0.00488,0.13176,0.25864,0.25376,0.20984,0.08784,0.0244
0.03416,-0.05612,0.07808,0.061,0.04392,-0.00488,0.12688,0.22448,0.2196,0.19032,0.06832,0.01952
0.01952,-0.04392,0.06832,0.05856,0.0488,-0.01464,0.11224,0.20008,0.18056,0.15616,0.0488,0.00976
0.01464,-0.03172,0.0488,0.04148,0.03416,-0.00976,0.10736,0.18056,0.16592,0.11224,0.03416,0
0.00488,-0.0244,0.04392,0.04148,0.03904,-0.01708,0.0976,0.15128,0.14152,0.08296,0.01952,-0.01464
-0.00488,-0.01464,0.03416,0.0366,0.03904,-0.02196,0.0732,0.11712,0.0976,0.05368,-0.00976,-0.02928
-0.00976,-0.01464,0.03904,0.04392,0.0488,-0.02928,0.05368,0.0976,0.06344,0.0244,-0.0244,-0.03416
-0.00488,-0.00732,0.01952,0.02196,0.0244,-0.01464,0.04392,0.06832,0.03904,0,-0.04392,-0.0488
-0.00976,0.00244,0.00488,0.00976,0.01464,-0.0122,0.03416,0.05368,0.0244,-0.01464,-0.05368,-0.05856
-0.00488,-0.00488,0.01464,0.01708,0.01952,-0.0122,0.01464,0.0244,-0.00976,-0.04392,-0.06832,-0.06832
-0.01464,0.00732,0,0.00732,0.01464,-0.01464,0.00976,0.00488,-0.01464,-0.05856,-0.07808,-0.06832
-0.00976,-0.00244,0.01464,0.01952,0.0244,-0.01708,0.00976,-0.00488,-0.01952,-0.06832,-0.07808,-0.07808
-0.00976,0,0.00976,0.01464,0.01952,-0.01464,0.00488,0,-0.03416,-0.08296,-0.08296,-0.08296
-0.03416,0.01952,-0.00488,0.0122,0.02928,-0.03172,0.00488,-0.00488,-0.02928,-0.08296,-0.07808,-0.07808
-0.03416,0.02928,-0.0244,-0.00732,0.00976,-0.02196,0.00488,-0.01464,-0.03904,-0.07808,-0.08296,-0.08296
-0.01464,0.01464,-0.01464,-0.00732,0,-0.00732,-0.00976,-0.0244,-0.05368,-0.0976,-0.10248,-0.09272
-0.00976,0.01464,-0.01952,-0.01464,-0.00976,0,-0.00976,-0.0244,-0.05368,-0.0976,-0.10736,-0.08784
-0.01464,0.01952,-0.0244,-0.01708,-0.00976,-0.00244,-0.00976,-0.03904,-0.05368,-0.0976,-0.11224,-0.10248
-0.00976,0.01952,-0.02928,-0.0244,-0.01952,0.00488,-0.00976,-0.04392,-0.06344,-0.10248,-0.11224,-0.10248
-0.01952,0.0244,-0.02928,-0.01952,-0.00976,-0.00488,-0.00976,-0.03416,-0.06344,-0.11224,-0.11712,-0.10248
-0.03904,0.03416,-0.02928,-0.00976,0.00976,-0.0244,-0.01464,-0.02928,-0.06344,-0.11224,-0.11712,-0.10248
-0.02928,0.02928,-0.02928,-0.01464,0,-0.01464,-0.01464,-0.03904,-0.0732,-0.11712,-0.11712,-0.10736
-0.01464,0.02196,-0.02928,-0.02196,-0.01464,0,-0.01464,-0.03904,-0.06832,-0.11712,-0.11712,-0.10736
-0.02928,0.02928,-0.02928,-0.01464,0,-0.01464,0,-0.02928,-0.05856,-0.10248,-0.11224,-0.0976
-0.02928,0.02928,-0.02928,-0.01464,0,-0.01464,-0.00488,-0.01952,-0.05368,-0.10736,-0.10736,-0.0976
-0.0244,0.0244,-0.0244,-0.0122,0,-0.0122,-0.00488,-0.02928,-0.05368,-0.10736,-0.10736,-0.0976
-0.01952,0.0244,-0.02928,-0.01952,-0.00976,-0.00488,0,-0.02928,-0.05368,-0.10248,-0.10248,-0.0976
-0.0244,0.0244,-0.0244,-0.0122,0,-0.0122,0,-0.02928,-0.05368,-0.10736,-0.10248,-0.0976
-0.01952,0.02196,-0.0244,-0.01464,-0.00488,-0.00732,0,-0.0244,-0.0488,-0.11224,-0.10248,-0.09272
-0.02928,0.02196,-0.01464,0,0.01464,-0.02196,0,-0.0244,-0.03904,-0.10736,-0.10248,-0.09272
-0.02928,0.02196,-0.01464,0,0.01464,-0.02196,0.00488,-0.01464,-0.02928,-0.10736,-0.10248,-0.09272
-0.02928,0.02684,-0.0244,-0.00976,0.00488,-0.01708,0.00976,-0.01464,-0.03416,-0.0976,-0.0976,-0.08784
-0.03416,0.0244,-0.01464,0.00244,0.01952,-0.02684,0.00976,-0.01464,-0.03416,-0.0976,-0.0976,-0.08784
-0.03416,0.01952,-0.00488,0.0122,0.02928,-0.03172,0.00976,-0.01464,-0.03416,-0.0976,-0.09272,-0.07808
-0.03416,0.01464,0.00488,0.02196,0.03904,-0.0366,0.00976,-0.01464,-0.02928,-0.0976,-0.09272,-0.07808
-0.0244,0.0122,0,0.0122,0.0244,-0.0244,0.00488,-0.01952,-0.02928,-0.0976,-0.08784,-0.08296
-0.01464,0.0122,-0.00976,-0.00244,0.00488,-0.00976,0,-0.01952,-0.0244,-0.0976,-0.08784,-0.07808
-0.0244,0.01952,-0.01464,-0.00244,0.00976,-0.01708,0,-0.0244,-0.03416,-0.10736,-0.08784,-0.08296
-0.01952,0.01464,-0.00976,0,0.00976,-0.01464,0,-0.01952,-0.03416,-0.10248,-0.08784,-0.07808
-0.0244,0.01464,-0.00488,0.00732,0.01952,-0.02196,0,-0.0244,-0.0244,-0.09272,-0.08784,-0.07808
-0.0244,0.00976,0.00488,0.01708,0.02928,-0.02684,0,-0.02928,-0.02928,-0.09272,-0.08296,-0.07808
-0.01952,0.00976,0,0.00976,0.01952,-0.01952,-0.00976,-0.0244,-0.0244,-0.10736,-0.08784,-0.07808
-0.0244,0.00976,0.00488,0.01708,0.02928,-0.02684,-0.00976,-0.0244,-0.01952,-0.10248,-0.08296,-0.07808
-0.03416,0.0244,-0.01464,0.00244,0.01952,-0.02684,0,-0.01464,-0.01952,-0.0976,-0.08296,-0.06832
-0.02928,0.02196,-0.01464,0,0.01464,-0.02196,0,-0.01952,-0.0244,-0.0976,-0.08296,-0.06832
-0.01952,0.00732,0.00488,0.01464,0.0244,-0.02196,-0.01464,-0.02928,-0.03416,-0.10248,-0.08784,-0.07808
-0.01464,-0.00488,0.0244,0.03172,0.03904,-0.02684,-0.01464,-0.02928,-0.03416,-0.10248,-0.09272,-0.08784
-0.00976,-0.00488,0.01952,0.0244,0.02928,-0.01952,-0.01464,-0.02928,-0.02928,-0.0976,-0.08296,-0.07808
-0.00976,-0.00244,0.01464,0.01952,0.0244,-0.01708,-0.01464,-0.03416,-0.02928,-0.0976,-0.08296,-0.07808
-0.01952,0.00488,0.00976,0.01952,0.02928,-0.0244,-0.01952,-0.03416,-0.02928,-0.0976,-0.08296,-0.07808
-0.01952,0.00732,0.00488,0.01464,0.0244,-0.02196,-0.01952,-0.03904,-0.03416,-0.0976,-0.08296,-0.07808
-0.02928,0.01464,0,0.01464,0.02928,-0.02928,-0.0244,-0.03904,-0.03904,-0.11224,-0.07808,-0.08296
-0.02928,0.01464,0,0.01464,0.02928,-0.02928,-0.0244,-0.04392,-0.03904,-0.11224,-0.07808,-0.08296
-0.0244,0.00976,0.00488,0.01708,0.02928,-0.02684,-0.01464,-0.04392,-0.03904,-0.11224,-0.08296,-0.0732
-0.0244,0.00976,0.00488,0.01708,0.02928,-0.02684,-0.00488,-0.0488,-0.04392,-0.11712,-0.08784,-0.0732
-0.0244,0.00732,0.00976,0.02196,0.03416,-0.02928,-0.00488,-0.03904,-0.03904,-0.11712,-0.0732,-0.0732
-0.0244,0.00732,0.00976,0.02196,0.03416,-0.02928,-0.00976,-0.03904,-0.03904,-0.11712,-0.0732,-0.07808
-0.02928,0.00976,0.00976,0.0244,0.03904,-0.03416,-0.01464,-0.04392,-0.0488,-0.122,-0.08296,-0.07808
-0.03416,0.01464,0.00488,0.02196,0.03904,-0.0366,-0.00976,-0.03904,-0.0488,-0.122,-0.09272,-0.07808
-0.02928,0.01708,-0.00488,0.00976,0.0244,-0.02684,-0.00976,-0.03904,-0.04392,-0.11224,-0.09272,-0.07808
-0.0244,0.01708,-0.00976,0.00244,0.01464,-0.01952,-0.01952,-0.04392,-0.0488,-0.11224,-0.09272,-0.07808
-0.01464,0.00732,0,0.00732,0.01464,-0.01464,-0.0244,-0.05368,-0.05856,-0.12688,-0.09272,-0.08784
-0.01952,0.0122,-0.00488,0.00488,0.01464,-0.01708,-0.0244,-0.05856,-0.05856,-0.12688,-0.09272,-0.08784
-0.0244,0.01952,-0.01464,-0.00244,0.00976,-0.01708,-0.01952,-0.05856,-0.06832,-0.13176,-0.0976,-0.08784
-0.0244,0.01952,-0.01464,-0.00244,0.00976,-0.01708,-0.02928,-0.06344,-0.0732,-0.13664,-0.09272,-0.09272
-0.01464,0.00732,0,0.00732,0.01464,-0.01464,-0.0244,-0.06344,-0.06832,-0.13664,-0.09272,-0.08296
-0.00976,0.00488,0,0.00488,0.00976,-0.00976,-0.02928,-0.05856,-0.05856,-0.13664,-0.07808,-0.07808
-0.01952,0.00976,0,0.00976,0.01952,-0.01952,-0.01952,-0.05856,-0.05856,-0.13664,-0.08784,-0.07808
-0.02928,0.01464,0,0.01464,0.02928,-0.02928,-0.01952,-0.05856,-0.05856,-0.13664,-0.08784,-0.07808
