i,aVR,ii,aVF,iii,aVL,V1,V2,V3,V4,V5,V6
-0.01464,0.03416,-0.05368,-0.04636,-0.03904,0.0122,-0.0488,-0.03416,-0.0244,-0.0732,-0.0488,-0.0244
-0.01464,0.0366,-0.05856,-0.05124,-0.04392,0.01464,-0.05856,-0.03416,-0.02928,-0.0732,-0.05368,-0.02928
-0.0244,0.03416,-0.04392,-0.03172,-0.01952,-0.00244,-0.06344,-0.0244,-0.02928,-0.07808,-0.05856,-0.03416
-0.0244,0.04148,-0.05856,-0.04636,-0.03416,0.00488,-0.06344,-0.0244,-0.03416,-0.07808,-0.05856,-0.03416
-0.02928,0.04392,-0.05856,-0.04392,-0.02928,0,-0.06344,-0.03416,-0.03416,-0.07808,-0.05856,-0.03416
-0.02928,0.0488,-0.06832,-0.05368,-0.03904,0.00488,-0.06344,-0.03416,-0.03416,-0.08296,-0.05856,-0.03416
-0.01952,0.03904,-0.05856,-0.0488,-0.03904,0.00976,-0.06344,-0.03416,-0.03416,-0.07808,-0.05856,-0.03416
-0.02928,0.04636,-0.06344,-0.0488,-0.03416,0.00244,-0.06344,-0.03416,-0.03904,-0.08296,-0.06344,-0.03904
-0.01952,0.03416,-0.0488,-0.03904,-0.02928,0.00488,-0.05856,-0.02928,-0.04392,-0.08296,-0.06344,-0.03904
-0.01952,0.0366,-0.05368,-0.04392,-0.03416,0.00732,-0.06344,-0.02928,-0.04392,-0.07808,-0.05856,-0.03904
-0.02928,0.05124,-0.0732,-0.05856,-0.04392,0.00732,-0.05856,-0.02928,-0.03904,-0.07808,-0.05368,-0.03416
-0.02928,0.0488,-0.06832,-0.05368,-0.03904,0.00488,-0.06344,-0.02928,-0.04392,-0.08296,-0.05368,-0.03416
-0.01952,0.0488,-0.07808,-0.06832,-0.05856,0.01952,-0.05368,-0.01952,-0.03416,-0.08296,-0.04392,-0.0244
-0.01952,0.06588,-0.11224,-0.10248,-0.09272,0.0366,-0.05368,-0.01952,-0.03416,-0.07808,-0.05368,-0.02928
-0.02928,0.0488,-0.06832,-0.05368,-0.03904,0.00488,-0.06344,-0.02928,-0.0488,-0.09272,-0.06344,-0.0488
-0.02928,0.03416,-0.03904,-0.0244,-0.00976,-0.00976,-0.0732,-0.03904,-0.05856,-0.10248,-0.0732,-0.05368
-0.01952,0.03172,-0.04392,-0.03416,-0.0244,0.00244,-0.06832,-0.03416,-0.04392,-0.0976,-0.06344,-0.04392
-0.01952,0.03904,-0.05856,-0.0488,-0.03904,0.00976,-0.06832,-0.0244,-0.04392,-0.07808,-0.06344,-0.04392
-0.02928,0.04392,-0.05856,-0.04392,-0.02928,0,-0.05856,-0.0244,-0.04392,-0.08784,-0.05368,-0.03416
-0.0244,0.04392,-0.06344,-0.05124,-0.03904,0.00732,-0.05368,-0.0244,-0.04392,-0.08784,-0.0488,-0.01952
-0.0244,0.04148,-0.05856,-0.04636,-0.03416,0.00488,-0.05368,-0.0244,-0.03904,-0.08784,-0.05368,-0.0244
-0.02928,0.0366,-0.04392,-0.02928,-0.01464,-0.00732,-0.05856,-0.0244,-0.04392,-0.08784,-0.05368,-0.02928
-0.01952,0.03416,-0.0488,-0.03904,-0.02928,0.00488,-0.06832,-0.01952,-0.04392,-0.08784,-0.04392,-0.02928
-0.01952,0.03416,-0.0488,-0.03904,-0.02928,0.00488,-0.06832,-0.0244,-0.03904,-0.08784,-0.0488,-0.02928
-0.0244,0.04148,-0.05856,-0.04636,-0.03416,0.00488,-0.06344,-0.0244,-0.0488,-0.08784,-0.05368,-0.03904
-0.0244,0.04148,-0.05856,-0.04636,-0.03416,0.00488,-0.06344,-0.01952,-0.04392,-0.08784,-0.06344,-0.03904
-0.0244,0.03904,-0.05368,-0.04148,-0.02928,0.00244,-0.06832,-0.01952,-0.03904,-0.08296,-0.05856,-0.02928
-0.01952,0.03416,-0.0488,-0.03904,-0.02928,0.00488,-0.06344,-0.01952,-0.03904,-0.08296,-0.05856,-0.0244
-0.00976,0.0244,-0.03904,-0.03416,-0.02928,0.00976,-0.05368,-0.00976,-0.03416,-0.06832,-0.04392,-0.0244
-0.00976,0.02684,-0.04392,-0.03904,-0.03416,0.0122,-0.0488,-0.00976,-0.02928,-0.0732,-0.03904,-0.0244
-0.01464,0.02684,-0.03904,-0.03172,-0.0244,0.00488,-0.06344,-0.01952,-0.03904,-0.08296,-0.0488,-0.03904
-0.01464,0.0244,-0.03416,-0.02684,-0.01952,0.00244,-0.06344,-0.01952,-0.03904,-0.08296,-0.05368,-0.03416
-0.0244,0.0366,-0.0488,-0.0366,-0.0244,0,-0.05368,-0.00976,-0.03416,-0.08296,-0.05368,-0.0244
-0.0244,0.0488,-0.0732,-0.061,-0.0488,0.0122,-0.05368,-0.00976,-0.03416,-0.07808,-0.0488,-0.0244
-0.0244,0.04148,-0.05856,-0.04636,-0.03416,0.00488,-0.05368,-0.00976,-0.02928,-0.0732,-0.05368,-0.0244
-0.0244,0.0366,-0.0488,-0.0366,-0.0244,0,-0.05368,-0.00488,-0.02928,-0.06832,-0.05368,-0.0244
-0.00976,0.0244,-0.03904,-0.03416,-0.02928,0.00976,-0.06344,-0.00976,-0.02928,-0.06832,-0.05368,-0.0244
-0.00976,0.01464,-0.01952,-0.01464,-0.00976,0,-0.06344,-0.00488,-0.02928,-0.06832,-0.05368,-0.0244
-0.0244,0.03172,-0.03904,-0.02684,-0.01464,-0.00488,-0.06344,-0.00488,-0.03904,-0.07808,-0.05368,-0.03416
-0.0244,0.03172,-0.03904,-0.02684,-0.01464,-0.00488,-0.06344,-0.00488,-0.03904,-0.08296,-0.05368,-0.03416
-0.03416,0.04148,-0.0488,-0.03172,-0.01464,-0.00976,-0.06344,-0.00488,-0.02928,-0.08296,-0.0488,-0.03416
-0.02928,0.04636,-0.06344,-0.0488,-0.03416,0.00244,-0.05856,-0.00488,-0.0244,-0.07808,-0.0488,-0.0244
-0.01952,0.03904,-0.05856,-0.0488,-0.03904,0.00976,-0.0488,0.00488,-0.02928,-0.0732,-0.04392,-0.01952
-0.02928,0.04636,-0.06344,-0.0488,-0.03416,0.00244,-0.0488,0.00488,-0.02928,-0.0732,-0.03904,-0.01952
-0.0244,0.03904,-0.05368,-0.04148,-0.02928,0.00244,-0.05856,-0.00976,-0.02928,-0.08296,-0.05368,-0.02928
-0.01952,0.02928,-0.03904,-0.02928,-0.01952,0,-0.05856,-0.00976,-0.03416,-0.08784,-0.06344,-0.02928
-0.0244,0.03416,-0.04392,-0.03172,-0.01952,-0.00244,-0.05856,-0.00976,-0.04392,-0.0976,-0.06344,-0.03416
-0.0244,0.03904,-0.05368,-0.04148,-0.02928,0.00244,-0.06344,-0.01464,-0.03904,-0.0976,-0.06832,-0.03904
-0.0244,0.03416,-0.04392,-0.03172,-0.01952,-0.00244,-0.06344,-0.00488,-0.03416,-0.08784,-0.06832,-0.03904
-0.01952,0.02684,-0.03416,-0.0244,-0.01464,-0.00244,-0.06344,-0.00976,-0.03416,-0.08784,-0.06832,-0.04392
-0.02928,0.03904,-0.0488,-0.03416,-0.01952,-0.00488,-0.06344,-0.00976,-0.03904,-0.08296,-0.05856,-0.03416
-0.0244,0.0366,-0.0488,-0.0366,-0.0244,0,-0.06344,-0.00976,-0.04392,-0.07808,-0.06832,-0.03416
-0.0244,0.04392,-0.06344,-0.05124,-0.03904,0.00732,-0.05368,-0.00976,-0.04392,-0.09272,-0.05368,-0.0244
-0.0244,0.0488,-0.0732,-0.061,-0.0488,0.0122,-0.05856,-0.00976,-0.04392,-0.09272,-0.05368,-0.0244
-0.0244,0.0366,-0.0488,-0.0366,-0.0244,0,-0.05856,-0.01464,-0.05368,-0.0976,-0.06344,-0.03416
-0.0244,0.04148,-0.05856,-0.04636,-0.03416,0.00488,-0.05368,-0.00976,-0.05368,-0.09272,-0.06344,-0.04392
-0.03416,0.05368,-0.0732,-0.05612,-0.03904,0.00244,-0.06344,-0.01952,-0.05856,-0.0976,-0.06344,-0.04392
-0.03904,0.05612,-0.0732,-0.05368,-0.03416,-0.00244,-0.06344,-0.01952,-0.05856,-0.0976,-0.06344,-0.04392
-0.0244,0.05368,-0.08296,-0.07076,-0.05856,0.01708,-0.06344,-0.00976,-0.05368,-0.10248,-0.0732,-0.03904
-0.0244,0.05124,-0.07808,-0.06588,-0.05368,0.01464,-0.06832,-0.01464,-0.05856,-0.10736,-0.07808,-0.03904
-0.0244,0.05124,-0.07808,-0.06588,-0.05368,0.01464,-0.06832,-0.00488,-0.05368,-0.0976,-0.06832,-0.03416
-0.02928,0.05368,-0.07808,-0.06344,-0.0488,0.00976,-0.06832,-0.00488,-0.05368,-0.09272,-0.06832,-0.03904
-0.02928,0.05856,-0.08784,-0.0732,-0.05856,0.01464,-0.06832,-0.00488,-0.04392,-0.0976,-0.06344,-0.04392
-0.0244,0.05612,-0.08784,-0.07564,-0.06344,0.01952,-0.06832,0,-0.0488,-0.09272,-0.06344,-0.04392
-0.01464,0.05124,-0.08784,-0.08052,-0.0732,0.02928,-0.06344,0,-0.05856,-0.09272,-0.06344,-0.02928
-0.01952,0.0488,-0.07808,-0.06832,-0.05856,0.01952,-0.06344,0,-0.05368,-0.09272,-0.05856,-0.02928
-0.01464,0.03904,-0.06344,-0.05612,-0.0488,0.01708,-0.06344,-0.01464,-0.06344,-0.0976,-0.06832,-0.03904
-0.01464,0.0366,-0.05856,-0.05124,-0.04392,0.01464,-0.06832,-0.01464,-0.06832,-0.0976,-0.06832,-0.05368
-0.0244,0.0488,-0.0732,-0.061,-0.0488,0.0122,-0.06832,-0.01464,-0.06832,-0.10736,-0.07808,-0.0488
-0.02928,0.05856,-0.08784,-0.0732,-0.05856,0.01464,-0.06832,-0.01464,-0.06344,-0.10248,-0.07808,-0.0488
-0.02928,0.05856,-0.08784,-0.0732,-0.05856,0.01464,-0.0732,0,-0.06832,-0.09272,-0.0732,-0.0488
-0.03416,0.061,-0.08784,-0.07076,-0.05368,0.00976,-0.0732,-0.00488,-0.06832,-0.0976,-0.0732,-0.05368
-0.02928,0.05368,-0.07808,-0.06344,-0.0488,0.00976,-0.06344,0,-0.06832,-0.0976,-0.0732,-0.05368
-0.02928,0.05368,-0.07808,-0.06344,-0.0488,0.00976,-0.06832,0,-0.06344,-0.0976,-0.0732,-0.05368
-0.01464,0.0488,-0.08296,-0.07564,-0.06832,0.02684,-0.06344,0,-0.05368,-0.08296,-0.05856,-0.03904
-0.01464,0.05368,-0.09272,-0.0854,-0.07808,0.03172,-0.06344,0,-0.05368,-0.08784,-0.05856,-0.03904
-0.02928,0.05368,-0.07808,-0.06344,-0.0488,0.00976,-0.06832,-0.00488,-0.05856,-0.0976,-0.06344,-0.0488
-0.02928,0.05124,-0.0732,-0.05856,-0.04392,0.00732,-0.06344,-0.00488,-0.05368,-0.0976,-0.06344,-0.03904
-0.02928,0.05612,-0.08296,-0.06832,-0.05368,0.0122,-0.06832,-0.00488,-0.06344,-0.0976,-0.0732,-0.0488
-0.02928,0.05856,-0.08784,-0.0732,-0.05856,0.01464,-0.06344,0.00488,-0.06344,-0.0976,-0.0732,-0.05368
-0.03904,0.06344,-0.08784,-0.06832,-0.0488,0.00488,-0.06344,0.00488,-0.05368,-0.10736,-0.0732,-0.05368
-0.03904,0.05856,-0.07808,-0.05856,-0.03904,0,-0.06344,-0.00488,-0.05856,-0.10736,-0.0732,-0.05368
-0.03904,0.06344,-0.08784,-0.06832,-0.0488,0.00488,-0.06344,0.00488,-0.05368,-0.10736,-0.06832,-0.04392
-0.03904,0.06344,-0.08784,-0.06832,-0.0488,0.00488,-0.06344,0.00488,-0.05856,-0.10736,-0.06832,-0.04392
-0.02928,0.061,-0.09272,-0.07808,-0.06344,0.01708,-0.06344,0.00488,-0.05856,-0.10736,-0.07808,-0.0488
-0.02928,0.05124,-0.0732,-0.05856,-0.04392,0.00732,-0.06832,0,-0.05856,-0.10736,-0.07808,-0.05368
-0.03416,0.05612,-0.07808,-0.061,-0.04392,0.00488,-0.06344,0.00488,-0.06344,-0.10736,-0.07808,-0.05368
-0.02928,0.05856,-0.08784,-0.0732,-0.05856,0.01464,-0.06344,0.00488,-0.06344,-0.10736,-0.07808,-0.05368
-0.02928,0.05368,-0.07808,-0.06344,-0.0488,0.00976,-0.05368,0.00488,-0.05368,-0.0976,-0.06832,-0.04392
-0.0244,0.05612,-0.08784,-0.07564,-0.06344,0.01952,-0.05368,0.00488,-0.05368,-0.0976,-0.06832,-0.04392
-0.01952,0.061,-0.10248,-0.09272,-0.08296,0.03172,-0.0488,0.00976,-0.04392,-0.08784,-0.05856,-0.03416
-0.02928,0.06344,-0.0976,-0.08296,-0.06832,0.01952,-0.05856,0.00976,-0.06344,-0.09272,-0.0732,-0.03416
-0.01952,0.05368,-0.08784,-0.07808,-0.06832,0.0244,-0.06344,0,-0.06344,-0.10248,-0.07808,-0.04392
-0.01464,0.04392,-0.0732,-0.06588,-0.05856,0.02196,-0.0732,0,-0.05856,-0.10248,-0.07808,-0.06344
-0.01952,0.05856,-0.0976,-0.08784,-0.07808,0.02928,-0.0488,0.00976,-0.03904,-0.0976,-0.06832,-0.0488
-0.02928,0.05856,-0.08784,-0.0732,-0.05856,0.01464,-0.05856,0,-0.0488,-0.10736,-0.07808,-0.0488
-0.02928,0.05856,-0.08784,-0.0732,-0.05856,0.01464,-0.05856,0,-0.05856,-0.10736,-0.07808,-0.0488
-0.02928,0.06344,-0.0976,-0.08296,-0.06832,0.01952,-0.05856,0.00976,-0.05856,-0.0976,-0.06832,-0.0488
-0.02928,0.06344,-0.0976,-0.08296,-0.06832,0.01952,-0.05856,0.00976,-0.05856,-0.0976,-0.06832,-0.0488
-0.02928,0.05856,-0.08784,-0.0732,-0.05856,0.01464,-0.06832,0.00976,-0.0488,-0.0976,-0.06832,-0.0488
-0.02928,0.05856,-0.08784,-0.0732,-0.05856,0.01464,-0.06832,0.00976,-0.0488,-0.0976,-0.06832,-0.0488
-0.02928,0.05856,-0.08784,-0.0732,-0.05856,0.01464,-0.06832,0.00976,-0.0488,-0.10736,-0.07808,-0.05856
-0.02928,0.05856,-0.08784,-0.0732,-0.05856,0.01464,-0.06832,0.00976,-0.0488,-0.10736,-0.07808,-0.05856
-0.02928,0.06344,-0.0976,-0.08296,-0.06832,0.01952,-0.06832,0.00976,-0.05856,-0.0976,-0.07808,-0.0488
-0.02928,0.06344,-0.0976,-0.08296,-0.06832,0.01952,-0.06832,0.00976,-0.05856,-0.0976,-0.07808,-0.0488
-0.03904,0.06832,-0.0976,-0.07808,-0.05856,0.00976,-0.06832,0,-0.0488,-0.10736,-0.07808,-0.05856
-0.03904,0.06832,-0.0976,-0.07808,-0.05856,0.00976,-0.06832,0,-0.0488,-0.11712,-0.07808,-0.05856
-0.02928,0.05856,-0.08784,-0.0732,-0.05856,0.01464,-0.06832,0.00976,-0.05856,-0.10736,-0.08784,-0.05856
-0.02928,0.05368,-0.07808,-0.06344,-0.0488,0.00976,-0.06832,0.00976,-0.05856,-0.10736,-0.08784,-0.05856
-0.02928,0.05856,-0.08784,-0.0732,-0.05856,0.01464,-0.06832,0.00976,-0.0488,-0.10736,-0.07808,-0.05856
-0.02928,0.05856,-0.08784,-0.0732,-0.05856,0.01464,-0.06832,0.00976,-0.0488,-0.10736,-0.06832,-0.05856
-0.02928,0.06344,-0.0976,-0.08296,-0.06832,0.01952,-0.05856,0.01952,-0.0488,-0.10736,-0.06832,-0.0488
-0.02928,0.06344,-0.0976,-0.08296,-0.06832,0.01952,-0.05856,0.01952,-0.0488,-0.10736,-0.06832,-0.0488
-0.02928,0.06832,-0.10736,-0.09272,-0.07808,0.0244,-0.06832,0.00976,-0.0488,-0.10736,-0.06832,-0.0488
-0.02928,0.06832,-0.10736,-0.09272,-0.07808,0.0244,-0.06832,0.00976,-0.0488,-0.11224,-0.0732,-0.0488
-0.02928,0.061,-0.09272,-0.07808,-0.06344,0.01708,-0.07808,0,-0.06344,-0.11224,-0.07808,-0.05856
-0.02928,0.05856,-0.08784,-0.0732,-0.05856,0.01464,-0.07808,0,-0.06344,-0.11224,-0.07808,-0.05856
-0.02928,0.06344,-0.0976,-0.08296,-0.06832,0.01952,-0.0732,0.00976,-0.0488,-0.10248,-0.0732,-0.0488
-0.02928,0.06344,-0.0976,-0.08296,-0.06832,0.01952,-0.06344,0.00976,-0.05368,-0.10248,-0.0732,-0.0488
-0.02928,0.05856,-0.08784,-0.0732,-0.05856,0.01464,-0.06832,0.00976,-0.06344,-0.11224,-0.0732,-0.05856
-0.02928,0.05124,-0.0732,-0.05856,-0.04392,0.00732,-0.06832,0.00976,-0.06344,-0.11224,-0.0732,-0.05856
-0.02928,0.05856,-0.08784,-0.0732,-0.05856,0.01464,-0.06832,0.01952,-0.0488,-0.10248,-0.06832,-0.04392
-0.0244,0.05612,-0.08784,-0.07564,-0.06344,0.01952,-0.06832,0.01464,-0.03904,-0.10248,-0.06832,-0.04392
-0.01952,0.04392,-0.06832,-0.05856,-0.0488,0.01464,-0.06832,0.01464,-0.04392,-0.10736,-0.07808,-0.05368
-0.01952,0.03172,-0.04392,-0.03416,-0.0244,0.00244,-0.06832,0.01952,-0.03416,-0.0976,-0.0732,-0.05368
-0.01464,0.02684,-0.03904,-0.03172,-0.0244,0.00488,-0.05368,0.0244,-0.03416,-0.08784,-0.06344,-0.04392
-0.01464,0.02928,-0.04392,-0.0366,-0.02928,0.00732,-0.0488,0.02928,-0.02928,-0.08296,-0.06344,-0.04392
-0.01952,0.03904,-0.05856,-0.0488,-0.03904,0.00976,-0.0488,0.02928,-0.02928,-0.08296,-0.0488,-0.03416
-0.01952,0.0366,-0.05368,-0.04392,-0.03416,0.00732,-0.05856,0.0244,-0.02928,-0.08296,-0.0488,-0.03416
-0.00976,0.03172,-0.05368,-0.0488,-0.04392,0.01708,-0.06344,0.0244,-0.02928,-0.09272,-0.06344,-0.04392
0.00488,0.01464,-0.03416,-0.0366,-0.03904,0.02196,-0.06344,0.03904,-0.01952,-0.08296,-0.05856,-0.03904
0,0.00244,-0.00488,-0.00488,-0.00488,0.00244,-0.0732,0.02928,-0.01952,-0.08296,-0.04392,-0.03416
0.00488,-0.00732,0.00976,0.00732,0.00488,0,-0.08784,0.01464,-0.02928,-0.08296,-0.0488,-0.02928
0.0244,-0.01952,0.01464,0.00244,-0.00976,0.01708,-0.10248,-0.00488,-0.03416,-0.0732,-0.03416,-0.01952
0.03416,-0.0122,-0.00976,-0.02684,-0.04392,0.03904,-0.11224,-0.00976,-0.0488,-0.08784,-0.03904,-0.02928
0.01464,0.0122,-0.03904,-0.04636,-0.05368,0.03416,-0.10736,0,-0.03904,-0.0976,-0.0488,-0.01952
0.00488,0.02196,-0.0488,-0.05124,-0.05368,0.02928,-0.10248,0.00488,-0.03904,-0.09272,-0.04392,-0.0244
0.01464,0.00488,-0.0244,-0.03172,-0.03904,0.02684,-0.11224,-0.00488,-0.04392,-0.09272,-0.05368,-0.02928
0.01464,0.00488,-0.0244,-0.03172,-0.03904,0.02684,-0.10736,-0.00488,-0.05368,-0.09272,-0.05368,-0.01952
0.01464,0.00976,-0.03416,-0.04148,-0.0488,0.03172,-0.0976,0.00488,-0.04392,-0.08784,-0.03904,-0.00976
0.00488,0.0244,-0.05368,-0.05612,-0.05856,0.03172,-0.09272,0.00976,-0.04392,-0.08784,-0.03904,-0.01464
0.00488,0.0366,-0.07808,-0.08052,-0.08296,0.04392,-0.09272,0.00488,-0.03904,-0.08784,-0.03904,-0.00976
0,0.0488,-0.0976,-0.0976,-0.0976,0.0488,-0.09272,-0.00488,-0.0488,-0.10736,-0.0488,-0.01952
-0.01952,0.05856,-0.0976,-0.08784,-0.07808,0.02928,-0.08784,-0.00488,-0.06832,-0.122,-0.06832,-0.03904
-0.02928,0.06588,-0.10248,-0.08784,-0.0732,0.02196,-0.08296,-0.00488,-0.06832,-0.13176,-0.08784,-0.05856
-0.02928,0.06832,-0.10736,-0.09272,-0.07808,0.0244,-0.08784,0,-0.05856,-0.13176,-0.07808,-0.06344
-0.03416,0.06832,-0.10248,-0.0854,-0.06832,0.01708,-0.08784,0.00488,-0.05368,-0.13176,-0.08296,-0.06832
-0.0244,0.06344,-0.10248,-0.09028,-0.07808,0.02684,-0.07808,0.01464,-0.06344,-0.122,-0.08296,-0.05856
-0.01464,0.05124,-0.08784,-0.08052,-0.0732,0.02928,-0.0732,0.01464,-0.06344,-0.122,-0.08296,-0.05856
-0.0244,0.06832,-0.11224,-0.10004,-0.08784,0.03172,-0.08296,0,-0.05856,-0.14152,-0.08784,-0.06832
-0.03904,0.0854,-0.13176,-0.11224,-0.09272,0.02684,-0.08296,0,-0.05368,-0.14152,-0.08784,-0.0732
-0.04392,0.08052,-0.11712,-0.09516,-0.0732,0.01464,-0.08296,-0.00976,-0.0732,-0.15616,-0.0976,-0.06832
-0.05368,0.10004,-0.1464,-0.11956,-0.09272,0.01952,-0.06832,0.00976,-0.05368,-0.1464,-0.10736,-0.07808
-0.02928,0.09028,-0.15128,-0.13664,-0.122,0.04636,-0.03416,0.05368,-0.01464,-0.10736,-0.0976,-0.0732
-0.03904,0.07808,-0.11712,-0.0976,-0.07808,0.01952,-0.01464,0.0732,0.01464,-0.0976,-0.11224,-0.09272
-0.03904,0.08784,-0.13664,-0.11712,-0.0976,0.02928,0.00976,0.10248,0.06344,-0.05368,-0.10248,-0.08296
-0.04392,0.0732,-0.10248,-0.08052,-0.05856,0.00732,-0.00976,0.0976,0.04392,-0.01952,-0.09272,-0.08784
-0.00488,0.0244,-0.04392,-0.04148,-0.03904,0.01708,-0.00976,0.11712,0.10248,0.122,-0.00488,-0.04392
0,-0.02928,0.05856,0.05856,0.05856,-0.02928,-0.0244,0.14152,0.1708,0.29768,0.06832,0.00976
0.0732,-0.12444,0.17568,0.13908,0.10248,-0.01464,-0.0244,0.20984,0.2928,0.57584,0.25864,0.122
0.1464,-0.24644,0.34648,0.27328,0.20008,-0.02684,-0.122,0.0732,0.18056,0.854,0.51728,0.30744
0.2196,-0.36844,0.51728,0.40748,0.29768,-0.03904,-0.25864,-0.16592,-0.10248,1.0492,0.77592,0.47336
0.244,-0.44896,0.65392,0.53192,0.40992,-0.08296,-0.41968,-0.40992,-0.36112,1.14192,0.94184,0.61488
0.25376,-0.53436,0.81496,0.68808,0.5612,-0.15372,-0.57584,-0.62952,-0.60024,1.05408,0.99552,0.69296
0.20496,-0.427,0.64904,0.54656,0.44408,-0.11956,-0.54656,-0.6588,-0.71736,0.5612,0.7564,0.59048
0.04392,-0.305,0.56608,0.54412,0.52216,-0.23912,-0.5124,-0.8296,-1.00528,-0.1464,0.29768,0.3416
-0.09272,-0.16592,0.42456,0.47092,0.51728,-0.305,-0.51728,-0.97112,-1.25904,-0.66368,-0.0488,0.12688
-0.16104,-0.02196,0.20496,0.28548,0.366,-0.26352,-0.47824,-0.93696,-1.22,-0.72712,-0.1952,0.00976
-0.1952,0.04148,0.11224,0.20984,0.30744,-0.25132,-0.45384,-0.83448,-1.07848,-0.6832,-0.23912,-0.08296
-0.16592,0.07808,0.00976,0.09272,0.17568,-0.1708,-0.38064,-0.65392,-0.83448,-0.57584,-0.23424,-0.10248
-0.14152,0.08296,-0.0244,0.04636,0.11712,-0.12932,-0.37576,-0.54168,-0.67832,-0.4636,-0.21472,-0.11224
-0.12688,0.07076,-0.01464,0.0488,0.11224,-0.11956,-0.3416,-0.42944,-0.52704,-0.33672,-0.18056,-0.11224
-0.10736,0.04148,0.0244,0.07808,0.13176,-0.11956,-0.28792,-0.30256,-0.38064,-0.244,-0.122,-0.07808
-0.06832,0.01464,0.03904,0.0732,0.10736,-0.08784,-0.1952,-0.17568,-0.23912,-0.1708,-0.07808,-0.04392
-0.0488,0.01464,0.01952,0.04392,0.06832,-0.05856,-0.15128,-0.09272,-0.15128,-0.13176,-0.06832,-0.03904
-0.05368,0.0488,-0.04392,-0.01708,0.00976,-0.03172,-0.13664,-0.06344,-0.11224,-0.10736,-0.06832,-0.02928
-0.0488,0.0488,-0.0488,-0.0244,0,-0.0244,-0.122,-0.0244,-0.07808,-0.10248,-0.06832,-0.05368
-0.03904,0.05368,-0.06832,-0.0488,-0.02928,-0.00488,-0.0976,0.00976,-0.02928,-0.08296,-0.05856,-0.04392
-0.02928,0.0366,-0.04392,-0.02928,-0.01464,-0.00732,-0.07808,0.02928,-0.00488,-0.0732,-0.0488,-0.03416
-0.0244,0.03904,-0.05368,-0.04148,-0.02928,0.00244,-0.0732,0.03416,0,-0.06832,-0.0488,-0.03416
-0.0244,0.04392,-0.06344,-0.05124,-0.03904,0.00732,-0.07808,0.03416,-0.00976,-0.06344,-0.05856,-0.0488
-0.01952,0.04148,-0.06344,-0.05368,-0.04392,0.0122,-0.0732,0.03904,-0.00488,-0.06344,-0.05368,-0.0488
-0.02928,0.04636,-0.06344,-0.0488,-0.03416,0.00244,-0.08296,0.0488,0.01464,-0.06832,-0.05856,-0.0488
-0.02928,0.04636,-0.06344,-0.0488,-0.03416,0.00244,-0.0732,0.05856,0.01952,-0.06832,-0.05856,-0.0488
-0.0244,0.0488,-0.0732,-0.061,-0.0488,0.0122,-0.06832,0.05368,0.01952,-0.05856,-0.05856,-0.0488
-0.0244,0.05856,-0.09272,-0.08052,-0.06832,0.02196,-0.06832,0.05368,0.01952,-0.05368,-0.05368,-0.04392
-0.0244,0.05368,-0.08296,-0.07076,-0.05856,0.01708,-0.06832,0.06344,0.0244,-0.05368,-0.04392,-0.04392
-0.0244,0.05124,-0.07808,-0.06588,-0.05368,0.01464,-0.06832,0.06832,0.02928,-0.0488,-0.0488,-0.04392
-0.01464,0.04148,-0.06832,-0.061,-0.05368,0.01952,-0.06344,0.06832,0.03416,-0.0488,-0.04392,-0.04392
-0.00488,0.03172,-0.05856,-0.05612,-0.05368,0.0244,-0.06344,0.0732,0.03904,-0.04392,-0.03904,-0.04392
-0.00976,0.03416,-0.05856,-0.05368,-0.0488,0.01952,-0.06344,0.06832,0.03904,-0.03904,-0.0488,-0.04392
-0.00976,0.02928,-0.0488,-0.04392,-0.03904,0.01464,-0.06344,0.06832,0.04392,-0.03416,-0.0488,-0.03904
-0.0244,0.0366,-0.0488,-0.0366,-0.0244,0,-0.0732,0.0732,0.05368,-0.03416,-0.04392,-0.03904
-0.01952,0.03416,-0.0488,-0.03904,-0.02928,0.00488,-0.06832,0.0732,0.05368,-0.02928,-0.03904,-0.03904
-0.02928,0.0488,-0.06832,-0.05368,-0.03904,0.00488,-0.06344,0.08296,0.06344,-0.00976,-0.0244,-0.02928
-0.02928,0.04636,-0.06344,-0.0488,-0.03416,0.00244,-0.06832,0.08296,0.06344,-0.00976,-0.0244,-0.03904
-0.01952,0.0366,-0.05368,-0.04392,-0.03416,0.00732,-0.06832,0.09272,0.0732,0,-0.0244,-0.0244
-0.00488,0.02684,-0.0488,-0.04636,-0.04392,0.01952,-0.06832,0.0976,0.08296,0.00976,-0.01464,-0.01952
0.00488,0.0122,-0.02928,-0.03172,-0.03416,0.01952,-0.06832,0.10248,0.07808,0.01952,-0.00488,-0.01464
0.00488,0.00488,-0.01464,-0.01708,-0.01952,0.0122,-0.0732,0.11224,0.08784,0.0244,-0.00488,-0.01464
0,0.0122,-0.0244,-0.0244,-0.0244,0.0122,-0.06344,0.10736,0.0976,0.0244,0,-0.01952
0,0.0122,-0.0244,-0.0244,-0.0244,0.0122,-0.06344,0.10736,0.10248,0.03416,0.00488,-0.01464
-0.00488,0.00976,-0.01464,-0.0122,-0.00976,0.00244,-0.0732,0.11224,0.10736,0.03904,-0.00488,-0.01464
0,0.00488,-0.00976,-0.00976,-0.00976,0.00488,-0.08296,0.11224,0.122,0.05368,0.00488,-0.00488
0,0.00488,-0.00976,-0.00976,-0.00976,0.00488,-0.08296,0.11712,0.122,0.05368,0.01464,-0.00488
0.00976,-0.00488,0,-0.00488,-0.00976,0.00976,-0.08296,0.122,0.13176,0.06344,0.01952,0
0.00976,0,-0.00976,-0.01464,-0.01952,0.01464,-0.07808,0.14152,0.15128,0.08784,0.03904,0.01952
0.01464,-0.00244,-0.00976,-0.01708,-0.0244,0.01952,-0.06344,0.15616,0.16592,0.10248,0.04392,0.01952
0.01952,-0.01464,0.00976,0,-0.00976,0.01464,-0.0732,0.15616,0.18056,0.11712,0.05368,0.01464
0.01952,-0.01952,0.01952,0.00976,0,0.00976,-0.06832,0.16592,0.20496,0.13664,0.06832,0.02928
0.02928,-0.0366,0.04392,0.02928,0.01464,0.00732,-0.07808,0.1708,0.20496,0.14152,0.07808,0.03904
0.03904,-0.04636,0.05368,0.03416,0.01464,0.0122,-0.07808,0.18056,0.23424,0.16592,0.08784,0.04392
0.03904,-0.04636,0.05368,0.03416,0.01464,0.0122,-0.07808,0.19032,0.25376,0.1952,0.0976,0.0488
0.0488,-0.06344,0.07808,0.05368,0.02928,0.00976,-0.07808,0.20008,0.27328,0.2196,0.10248,0.05856
0.05856,-0.0732,0.08784,0.05856,0.02928,0.01464,-0.0732,0.2196,0.30744,0.244,0.13664,0.0732
0.06832,-0.0854,0.10248,0.06832,0.03416,0.01708,-0.07808,0.23424,0.32208,0.27816,0.15128,0.08296
0.0732,-0.10004,0.12688,0.09028,0.05368,0.00976,-0.06832,0.244,0.3416,0.31232,0.1708,0.0976
0.0732,-0.10248,0.13176,0.09516,0.05856,0.00732,-0.06832,0.2684,0.37576,0.35136,0.20008,0.10736
0.07808,-0.10736,0.13664,0.0976,0.05856,0.00976,-0.07808,0.27328,0.3904,0.40016,0.23912,0.13176
0.09272,-0.1342,0.17568,0.12932,0.08296,0.00488,-0.08296,0.28304,0.40016,0.42944,0.25864,0.1464
0.10248,-0.14884,0.1952,0.14396,0.09272,0.00488,-0.08296,0.2928,0.42944,0.45384,0.27816,0.15616
0.11712,-0.16836,0.2196,0.16104,0.10248,0.00732,-0.08784,0.30744,0.45384,0.488,0.30256,0.1708
0.122,-0.17568,0.22936,0.16836,0.10736,0.00732,-0.0976,0.31232,0.46848,0.53192,0.32696,0.1952
0.12688,-0.18544,0.244,0.18056,0.11712,0.00488,-0.10736,0.3172,0.47824,0.5612,0.35136,0.21472
0.1464,-0.20496,0.26352,0.19032,0.11712,0.01464,-0.09272,0.3172,0.488,0.58072,0.366,0.2196
0.15616,-0.22448,0.2928,0.21472,0.13664,0.00976,-0.10248,0.31232,0.48312,0.61,0.37576,0.23424
0.1464,-0.22204,0.29768,0.22448,0.15128,-0.00244,-0.10248,0.31232,0.49288,0.62464,0.40016,0.23912
0.15128,-0.23668,0.32208,0.24644,0.1708,-0.00976,-0.11224,0.30256,0.49288,0.62952,0.40504,0.244
0.16104,-0.23668,0.31232,0.2318,0.15128,0.00488,-0.11712,0.30744,0.48312,0.64904,0.41968,0.26352
0.16592,-0.23424,0.30256,0.2196,0.13664,0.01464,-0.11712,0.2928,0.46848,0.66368,0.42944,0.26352
0.15128,-0.23424,0.3172,0.24156,0.16592,-0.00732,-0.122,0.2684,0.44896,0.64416,0.42456,0.26352
0.1464,-0.23668,0.32696,0.25376,0.18056,-0.01708,-0.122,0.24888,0.42944,0.61488,0.40504,0.23912
0.13664,-0.21472,0.2928,0.22448,0.15616,-0.00976,-0.10736,0.23912,0.40504,0.58072,0.38552,0.23424
0.12688,-0.19032,0.25376,0.19032,0.12688,0,-0.11224,0.2196,0.36112,0.52704,0.35136,0.22448
0.10736,-0.17568,0.244,0.19032,0.13664,-0.01464,-0.11712,0.18056,0.32696,0.4636,0.30256,0.19032
0.0732,-0.14152,0.20984,0.17324,0.13664,-0.03172,-0.10736,0.16592,0.28792,0.40992,0.25864,0.15616
0.07808,-0.13664,0.1952,0.15616,0.11712,-0.01952,-0.0976,0.14152,0.25376,0.35136,0.21472,0.13664
0.06832,-0.13176,0.1952,0.16104,0.12688,-0.02928,-0.09272,0.11712,0.20496,0.28304,0.16592,0.10248
0.05368,-0.0976,0.14152,0.11468,0.08784,-0.01708,-0.08784,0.10736,0.17568,0.23912,0.1464,0.09272
0.03416,-0.061,0.08784,0.07076,0.05368,-0.00976,-0.07808,0.09272,0.14152,0.18056,0.11224,0.05856
0.0244,-0.04392,0.06344,0.05124,0.03904,-0.00732,-0.0732,0.0732,0.12688,0.13664,0.09272,0.04392
0.00976,-0.03172,0.05368,0.0488,0.04392,-0.01708,-0.06832,0.06344,0.0976,0.09272,0.05368,0.01952
0.00976,-0.00976,0.00976,0.00488,0,0.00488,-0.06832,0.05856,0.07808,0.0488,0.01952,0.00488
0.00488,-0.00244,0,-0.00244,-0.00488,0.00488,-0.0732,0.0488,0.0488,0.0244,0.00488,0
-0.01952,0.01708,-0.01464,-0.00488,0.00488,-0.0122,-0.06344,0.0244,0.03416,0,-0.00976,-0.00976
-0.01952,0.01708,-0.01464,-0.00488,0.00488,-0.0122,-0.06832,0.00976,0.01464,-0.01952,-0.01952,-0.01952
-0.00976,0.01952,-0.02928,-0.0244,-0.01952,0.00488,-0.05856,0.01464,0.01464,-0.02928,-0.02928,-0.0244
-0.00488,0.00976,-0.01464,-0.0122,-0.00976,0.00244,-0.06344,0.00488,0.00488,-0.03416,-0.03904,-0.02928
-0.00976,0.01952,-0.02928,-0.0244,-0.01952,0.00488,-0.06344,-0.00488,-0.00976,-0.05856,-0.05368,-0.03904
-0.00976,0.02928,-0.0488,-0.04392,-0.03904,0.01464,-0.05856,-0.00488,-0.01952,-0.0732,-0.05368,-0.03904
-0.0244,0.03904,-0.05368,-0.04148,-0.02928,0.00244,-0.05856,-0.00488,-0.01464,-0.0732,-0.0488,-0.03416
-0.0244,0.04636,-0.06832,-0.05612,-0.04392,0.00976,-0.05856,-0.00488,-0.01952,-0.0732,-0.05368,-0.03904
-0.0244,0.03904,-0.05368,-0.04148,-0.02928,0.00244,-0.05368,-0.01464,-0.02928,-0.08784,-0.05856,-0.04392
-0.0244,0.04636,-0.06832,-0.05612,-0.04392,0.00976,-0.05368,-0.01464,-0.03416,-0.08784,-0.05856,-0.04392
-0.02928,0.04392,-0.05856,-0.04392,-0.02928,0,-0.05368,-0.00488,-0.03416,-0.07808,-0.05856,-0.04392
-0.02928,0.04392,-0.05856,-0.04392,-0.02928,0,-0.05368,-0.00488,-0.03416,-0.08296,-0.05856,-0.04392
-0.01952,0.03904,-0.05856,-0.0488,-0.03904,0.00976,-0.04392,0.00488,-0.0244,-0.07808,-0.05856,-0.03416
-0.02928,0.04636,-0.06344,-0.0488,-0.03416,0.00244,-0.03416,0.00488,-0.02928,-0.08296,-0.06344,-0.03904
-0.02928,0.04392,-0.05856,-0.04392,-0.02928,0,-0.03904,-0.00976,-0.03416,-0.09272,-0.0732,-0.0488
-0.02928,0.04636,-0.06344,-0.0488,-0.03416,0.00244,-0.05368,-0.01952,-0.03416,-0.08784,-0.06832,-0.0488
-0.02928,0.05124,-0.0732,-0.05856,-0.04392,0.00732,-0.0488,-0.00976,-0.03904,-0.08784,-0.06344,-0.04392
-0.02928,0.0488,-0.06832,-0.05368,-0.03904,0.00488,-0.05368,-0.00976,-0.04392,-0.09272,-0.06344,-0.04392
-0.02928,0.04392,-0.05856,-0.04392,-0.02928,0,-0.04392,-0.00976,-0.03416,-0.09272,-0.05368,-0.04392
-0.02928,0.05124,-0.0732,-0.05856,-0.04392,0.00732,-0.03416,-0.00976,-0.03416,-0.08784,-0.06344,-0.0488
-0.01952,0.03416,-0.0488,-0.03904,-0.02928,0.00488,-0.03416,-0.00976,-0.03904,-0.09272,-0.06344,-0.0488
-0.01952,0.03416,-0.0488,-0.03904,-0.02928,0.00488,-0.03416,-0.00976,-0.03904,-0.09272,-0.06344,-0.04392
-0.02928,0.0366,-0.04392,-0.02928,-0.01464,-0.00732,-0.03904,-0.00488,-0.04392,-0.0976,-0.06344,-0.04392
-0.02928,0.03904,-0.0488,-0.03416,-0.01952,-0.00488,-0.03904,-0.00488,-0.04392,-0.08784,-0.06344,-0.04392
-0.01952,0.03904,-0.05856,-0.0488,-0.03904,0.00976,-0.02928,-0.00488,-0.03416,-0.07808,-0.05368,-0.03416
-0.01464,0.04392,-0.0732,-0.06588,-0.05856,0.02196,-0.0244,-0.00488,-0.03416,-0.07808,-0.0488,-0.02928
-0.0244,0.04636,-0.06832,-0.05612,-0.04392,0.00976,-0.03416,-0.01464,-0.03904,-0.08784,-0.05368,-0.03416
-0.02928,0.04148,-0.05368,-0.03904,-0.0244,-0.00244,-0.03904,-0.01464,-0.04392,-0.08784,-0.06344,-0.0488
-0.02928,0.04392,-0.05856,-0.04392,-0.02928,0,-0.02928,-0.00976,-0.04392,-0.0976,-0.06344,-0.03904
-0.02928,0.04392,-0.05856,-0.04392,-0.02928,0,-0.02928,-0.01464,-0.03904,-0.0976,-0.06832,-0.03904
-0.03416,0.04636,-0.05856,-0.04148,-0.0244,-0.00488,-0.0244,-0.01464,-0.03904,-0.08784,-0.06344,-0.0488
-0.03416,0.04148,-0.0488,-0.03172,-0.01464,-0.00976,-0.0244,-0.00976,-0.03416,-0.08784,-0.06344,-0.0488
-0.0244,0.03416,-0.04392,-0.03172,-0.01952,-0.00244,-0.02928,-0.00976,-0.02928,-0.0732,-0.05856,-0.03904
-0.00976,0.0244,-0.03904,-0.03416,-0.02928,0.00976,-0.0244,-0.00976,-0.02928,-0.0732,-0.0488,-0.03416
-0.00976,0.01952,-0.02928,-0.0244,-0.01952,0.00488,-0.0244,-0.00976,-0.0244,-0.07808,-0.04392,-0.0244
-0.00976,0.02196,-0.03416,-0.02928,-0.0244,0.00732,-0.01952,-0.00976,-0.01952,-0.08296,-0.03904,-0.0244
-0.0244,0.04148,-0.05856,-0.04636,-0.03416,0.00488,-0.01464,0,-0.01952,-0.0732,-0.03904,-0.02928
-0.0244,0.0488,-0.0732,-0.061,-0.0488,0.0122,-0.00488,0,-0.01952,-0.0732,-0.04392,-0.0244
-0.01464,0.03172,-0.0488,-0.04148,-0.03416,0.00976,-0.01464,0,-0.0244,-0.08296,-0.05368,-0.03416
-0.01464,0.0244,-0.03416,-0.02684,-0.01952,0.00244,-0.0244,0,-0.0244,-0.07808,-0.05856,-0.04392
-0.0244,0.03172,-0.03904,-0.02684,-0.01464,-0.00488,-0.01464,-0.00976,-0.02928,-0.08296,-0.05368,-0.04392
-0.0244,0.02684,-0.02928,-0.01708,-0.00488,-0.00976,-0.01464,-0.00488,-0.02928,-0.07808,-0.05368,-0.04392
-0.01952,0.02928,-0.03904,-0.02928,-0.01952,0,-0.01464,-0.00976,-0.02928,-0.07808,-0.05368,-0.04392
-0.01952,0.01952,-0.01952,-0.00976,0,-0.00976,-0.01464,-0.00488,-0.02928,-0.07808,-0.05368,-0.04392
-0.01464,0.02684,-0.03904,-0.03172,-0.0244,0.00488,-0.01464,-0.00488,-0.01952,-0.07808,-0.05368,-0.03416
-0.01464,0.02684,-0.03904,-0.03172,-0.0244,0.00488,-0.01464,-0.00488,-0.01952,-0.08296,-0.05368,-0.03416
-0.0244,0.0366,-0.0488,-0.0366,-0.0244,0,-0.00488,0.00488,-0.01952,-0.0732,-0.03904,-0.04392
-0.01952,0.04148,-0.06344,-0.05368,-0.04392,0.0122,0,0.00488,-0.01464,-0.05856,-0.03904,-0.03416
-0.00976,0.02928,-0.0488,-0.04392,-0.03904,0.01464,-0.00976,0.00488,-0.01952,-0.0732,-0.05368,-0.03904
-0.01952,0.0366,-0.05368,-0.04392,-0.03416,0.00732,-0.00976,0.00488,-0.01952,-0.0732,-0.05856,-0.03904
-0.0244,0.03904,-0.05368,-0.04148,-0.02928,0.00244,-0.00976,-0.00976,-0.02928,-0.08296,-0.05368,-0.0488
-0.01952,0.02928,-0.03904,-0.02928,-0.01952,0,-0.00976,-0.00976,-0.04392,-0.08784,-0.05368,-0.0488
-0.0244,0.03416,-0.04392,-0.03172,-0.01952,-0.00244,-0.00976,0.00976,-0.03416,-0.07808,-0.05368,-0.04392
-0.0244,0.04392,-0.06344,-0.05124,-0.03904,0.00732,-0.01464,0.00488,-0.02928,-0.07808,-0.05856,-0.0488
-0.01464,0.03416,-0.05368,-0.04636,-0.03904,0.0122,-0.00488,-0.00488,-0.03416,-0.08784,-0.05856,-0.03904
-0.00976,0.03172,-0.05368,-0.0488,-0.04392,0.01708,-0.00488,-0.00976,-0.03416,-0.08784,-0.05856,-0.04392
-0.02928,0.0488,-0.06832,-0.05368,-0.03904,0.00488,0.00488,0,-0.02928,-0.08296,-0.0488,-0.03416
-0.0244,0.04148,-0.05856,-0.04636,-0.03416,0.00488,0.00488,0,-0.03416,-0.07808,-0.05856,-0.03416
-0.0244,0.03904,-0.05368,-0.04148,-0.02928,0.00244,-0.00488,-0.00976,-0.04392,-0.09272,-0.06344,-0.04392
-0.0244,0.04392,-0.06344,-0.05124,-0.03904,0.00732,-0.00976,-0.00976,-0.04392,-0.09272,-0.06344,-0.04392
-0.0244,0.04148,-0.05856,-0.04636,-0.03416,0.00488,0,-0.00488,-0.03416,-0.0976,-0.05368,-0.04392
-0.0244,0.05124,-0.07808,-0.06588,-0.05368,0.01464,0.00488,0,-0.03416,-0.09272,-0.05368,-0.04392
-0.0244,0.0488,-0.0732,-0.061,-0.0488,0.0122,-0.00488,-0.00976,-0.0488,-0.0976,-0.06344,-0.04392
-0.02928,0.05124,-0.0732,-0.05856,-0.04392,0.00732,-0.00488,-0.00976,-0.0488,-0.0976,-0.0732,-0.04392
-0.01464,0.03904,-0.06344,-0.05612,-0.0488,0.01708,-0.00488,-0.01952,-0.04392,-0.09272,-0.06344,-0.0488
-0.01464,0.03172,-0.0488,-0.04148,-0.03416,0.00976,-0.00976,-0.0244,-0.0488,-0.0976,-0.06832,-0.0488
-0.0244,0.05124,-0.07808,-0.06588,-0.05368,0.01464,0,-0.01464,-0.04392,-0.0976,-0.05856,-0.04392
-0.02928,0.05856,-0.08784,-0.0732,-0.05856,0.01464,0.00976,-0.01464,-0.04392,-0.09272,-0.05856,-0.0488
-0.02928,0.05368,-0.07808,-0.06344,-0.0488,0.00976,0,-0.0244,-0.04392,-0.10736,-0.0732,-0.05368
-0.0244,0.04148,-0.05856,-0.04636,-0.03416,0.00488,0,-0.01952,-0.0488,-0.10248,-0.0732,-0.05368
-0.0244,0.04148,-0.05856,-0.04636,-0.03416,0.00488,-0.00488,-0.01952,-0.05856,-0.10248,-0.08296,-0.05856
-0.02928,0.03904,-0.0488,-0.03416,-0.01952,-0.00488,-0.00488,-0.01952,-0.05368,-0.10248,-0.07808,-0.05856
-0.03416,0.0488,-0.06344,-0.04636,-0.02928,-0.00244,0.00488,-0.0244,-0.04392,-0.10736,-0.07808,-0.0488
-0.03416,0.05612,-0.07808,-0.061,-0.04392,0.00488,0,-0.0244,-0.0488,-0.10736,-0.07808,-0.05368
-0.0244,0.0488,-0.0732,-0.061,-0.0488,0.0122,0,-0.01464,-0.05856,-0.10736,-0.06832,-0.0488
-0.02928,0.0488,-0.06832,-0.05368,-0.03904,0.00488,0,-0.01464,-0.05368,-0.10248,-0.06832,-0.0488
-0.02928,0.05368,-0.07808,-0.06344,-0.0488,0.00976,0.00488,-0.01952,-0.0488,-0.09272,-0.06344,-0.0488
-0.03416,0.061,-0.08784,-0.07076,-0.05368,0.00976,0.00488,-0.0244,-0.0488,-0.0976,-0.06344,-0.05368
-0.02928,0.05856,-0.08784,-0.0732,-0.05856,0.01464,0.01464,-0.00976,-0.0488,-0.0976,-0.06344,-0.05368
-0.02928,0.05856,-0.08784,-0.0732,-0.05856,0.01464,0.00976,-0.00976,-0.04392,-0.0976,-0.06344,-0.05368
-0.0244,0.05368,-0.08296,-0.07076,-0.05856,0.01708,0.00488,-0.01952,-0.05368,-0.10248,-0.07808,-0.05856
-0.0244,0.05368,-0.08296,-0.07076,-0.05856,0.01708,-0.00488,-0.02928,-0.05368,-0.11712,-0.08784,-0.05856
-0.03904,0.05368,-0.06832,-0.0488,-0.02928,-0.00488,0,-0.0244,-0.05856,-0.10736,-0.08296,-0.06832
-0.03904,0.04636,-0.05368,-0.03416,-0.01464,-0.0122,0.00488,-0.0244,-0.05368,-0.10736,-0.08296,-0.05856
-0.02928,0.04636,-0.06344,-0.0488,-0.03416,0.00244,0.00976,-0.01464,-0.04392,-0.0976,-0.0732,-0.0488
-0.01952,0.04392,-0.06832,-0.05856,-0.0488,0.01464,0.01464,-0.00488,-0.04392,-0.0976,-0.0732,-0.05368
-0.01952,0.0488,-0.07808,-0.06832,-0.05856,0.01952,0.01464,-0.01464,-0.04392,-0.0976,-0.06344,-0.05368
-0.01952,0.04392,-0.06832,-0.05856,-0.0488,0.01464,0.01464,-0.0244,-0.0488,-0.0976,-0.06344,-0.05368
-0.02928,0.05856,-0.08784,-0.0732,-0.05856,0.01464,0.01464,-0.01464,-0.04392,-0.0976,-0.07808,-0.04392
-0.03904,0.0732,-0.10736,-0.08784,-0.06832,0.01464,0.01464,-0.00488,-0.0488,-0.0976,-0.07808,-0.04392
-0.02928,0.061,-0.09272,-0.07808,-0.06344,0.01708,0.00488,-0.01464,-0.0488,-0.0976,-0.07808,-0.0488
-0.02928,0.04636,-0.06344,-0.0488,-0.03416,0.00244,0,-0.01952,-0.0488,-0.0976,-0.07808,-0.06344
-0.03416,0.05124,-0.06832,-0.05124,-0.03416,0,0.01464,-0.0244,-0.04392,-0.10736,-0.07808,-0.05368
-0.02928,0.05368,-0.07808,-0.06344,-0.0488,0.00976,0.01464,-0.0244,-0.04392,-0.10736,-0.07808,-0.05368
-0.02928,0.04392,-0.05856,-0.04392,-0.02928,0,0.01464,-0.0244,-0.05368,-0.10736,-0.07808,-0.06344
-0.0244,0.04636,-0.06832,-0.05612,-0.04392,0.00976,0.01464,-0.0244,-0.05368,-0.10736,-0.07808,-0.06344
-0.02928,0.05612,-0.08296,-0.06832,-0.05368,0.0122,0.01952,-0.00976,-0.03416,-0.0976,-0.06832,-0.05368
-0.03904,0.06344,-0.08784,-0.06832,-0.0488,0.00488,0.00976,-0.00976,-0.05368,-0.10248,-0.08296,-0.05368
-0.02928,0.05368,-0.07808,-0.06344,-0.0488,0.00976,0.01464,-0.00976,-0.05368,-0.10248,-0.07808,-0.04392
-0.0244,0.0488,-0.0732,-0.061,-0.0488,0.0122,0.00488,-0.00976,-0.03904,-0.10248,-0.07808,-0.05368
-0.02928,0.05856,-0.08784,-0.0732,-0.05856,0.01464,0.01952,-0.00976,-0.03904,-0.10736,-0.07808,-0.0488
-0.03904,0.06832,-0.0976,-0.07808,-0.05856,0.00976,0.00976,-0.00976,-0.03904,-0.10736,-0.07808,-0.05856
-0.0488,0.0732,-0.0976,-0.0732,-0.0488,0,0.00976,-0.00976,-0.03904,-0.10736,-0.07808,-0.05856
-0.03904,0.06344,-0.08784,-0.06832,-0.0488,0.00488,0,-0.01952,-0.0488,-0.10736,-0.07808,-0.05856
-0.02928,0.05368,-0.07808,-0.06344,-0.0488,0.00976,0,-0.01952,-0.0488,-0.10736,-0.07808,-0.05856
-0.02928,0.0488,-0.06832,-0.05368,-0.03904,0.00488,0.00976,-0.00976,-0.0488,-0.0976,-0.07808,-0.0488
-0.02928,0.0488,-0.06832,-0.05368,-0.03904,0.00488,0.00976,-0.00976,-0.0488,-0.0976,-0.07808,-0.0488
-0.01952,0.03904,-0.05856,-0.0488,-0.03904,0.00976,0.00976,-0.01952,-0.0488,-0.10736,-0.07808,-0.05856
-0.01952,0.03904,-0.05856,-0.0488,-0.03904,0.00976,0.00976,-0.01952,-0.0488,-0.10736,-0.07808,-0.05856
-0.02928,0.05368,-0.07808,-0.06344,-0.0488,0.00976,0.01952,-0.00976,-0.03904,-0.10736,-0.07808,-0.05856
-0.02928,0.05856,-0.08784,-0.0732,-0.05856,0.01464,0.01952,-0.00976,-0.03904,-0.10736,-0.07808,-0.05856
-0.03904,0.06832,-0.0976,-0.07808,-0.05856,0.00976,0.01952,-0.00976,-0.0488,-0.10736,-0.07808,-0.05856
-0.03904,0.06832,-0.0976,-0.07808,-0.05856,0.00976,0.01952,-0.00976,-0.0488,-0.10736,-0.07808,-0.05856
-0.03904,0.06344,-0.08784,-0.06832,-0.0488,0.00488,0.00976,-0.01952,-0.0488,-0.11712,-0.08784,-0.05856
-0.03904,0.06344,-0.08784,-0.06832,-0.0488,0.00488,0.00976,-0.01952,-0.0488,-0.11712,-0.08784,-0.05856
-0.02928,0.05368,-0.07808,-0.06344,-0.0488,0.00976,0.01952,-0.00976,-0.03904,-0.10736,-0.07808,-0.05856
-0.01952,0.04392,-0.06832,-0.05856,-0.0488,0.01464,0.01952,-0.00976,-0.03904,-0.0976,-0.07808,-0.05856
-0.01952,0.04636,-0.0732,-0.06344,-0.05368,0.01708,0.00976,-0.01952,-0.03904,-0.10248,-0.08296,-0.05856
-0.01952,0.04636,-0.0732,-0.06344,-0.05368,0.01708,0.00976,-0.01952,-0.04392,-0.10248,-0.07808,-0.05856
-0.02928,0.05856,-0.08784,-0.0732,-0.05856,0.01464,0.00488,-0.01952,-0.03904,-0.11224,-0.08784,-0.05856
-0.03904,0.06344,-0.08784,-0.06832,-0.0488,0.00488,0.00488,-0.01952,-0.04392,-0.11224,-0.09272,-0.05856
-0.02928,0.05856,-0.08784,-0.0732,-0.05856,0.01464,0.00976,-0.01952,-0.04392,-0.10248,-0.08296,-0.0488
-0.02928,0.05856,-0.08784,-0.0732,-0.05856,0.01464,0.00976,-0.01952,-0.04392,-0.10248,-0.0732,-0.0488
-0.03904,0.061,-0.08296,-0.06344,-0.04392,0.00244,0.01952,-0.01464,-0.03904,-0.10248,-0.07808,-0.05856
-0.03416,0.061,-0.08784,-0.07076,-0.05368,0.00976,0.01952,-0.00976,-0.03904,-0.10248,-0.07808,-0.05368
-0.0244,0.04148,-0.05856,-0.04636,-0.03416,0.00488,0.01952,-0.01464,-0.0488,-0.10736,-0.07808,-0.05368
-0.01952,0.02928,-0.03904,-0.02928,-0.01952,0,0.01952,-0.01464,-0.04392,-0.10736,-0.07808,-0.05368
-0.00488,0.01952,-0.03416,-0.03172,-0.02928,0.0122,0.01952,-0.00976,-0.0244,-0.08296,-0.0732,-0.0488
-0.00488,0.0244,-0.04392,-0.04148,-0.03904,0.01708,0.0244,0,-0.01952,-0.0732,-0.06344,-0.04392
-0.01464,0.03172,-0.0488,-0.04148,-0.03416,0.00976,0.01952,0,-0.01952,-0.08296,-0.06832,-0.05368
-0.01952,0.03904,-0.05856,-0.0488,-0.03904,0.00976,0.01952,-0.00488,-0.01952,-0.09272,-0.06832,-0.05368
-0.0244,0.04148,-0.05856,-0.04636,-0.03416,0.00488,0.01952,-0.00488,-0.01952,-0.09272,-0.06344,-0.04392
-0.01464,0.03416,-0.05368,-0.04636,-0.03904,0.0122,0.0244,0,-0.01464,-0.08784,-0.06344,-0.04392
0.00976,0.00244,-0.01464,-0.01952,-0.0244,0.01708,0.03416,0.00976,-0.00976,-0.06344,-0.05856,-0.02928
0.00976,-0.00488,0,-0.00488,-0.00976,0.00976,0.01464,0,-0.01464,-0.06344,-0.04392,-0.0244
0.00488,-0.0122,0.01952,0.01708,0.01464,-0.00488,-0.00488,-0.0244,-0.03416,-0.0732,-0.05856,-0.02928
0.00488,-0.00732,0.00976,0.00732,0.00488,0,-0.01952,-0.03904,-0.03904,-0.08296,-0.05368,-0.02928
0.01464,0,-0.01464,-0.02196,-0.02928,0.02196,-0.0244,-0.02928,-0.03904,-0.09272,-0.05856,-0.01952
0.01464,0.00244,-0.01952,-0.02684,-0.03416,0.0244,-0.02928,-0.02928,-0.03904,-0.0976,-0.05368,-0.0244
0.0244,-0.00488,-0.01464,-0.02684,-0.03904,0.03172,-0.0244,-0.0244,-0.0488,-0.09272,-0.05368,-0.0244
0.0244,-0.00976,-0.00488,-0.01708,-0.02928,0.02684,-0.01952,-0.0244,-0.04392,-0.09272,-0.05368,-0.02928
0.01464,0,-0.01464,-0.02196,-0.02928,0.02196,-0.01952,-0.0244,-0.04392,-0.08296,-0.05368,-0.01952
0.01464,0.00488,-0.0244,-0.03172,-0.03904,0.02684,-0.00488,-0.01952,-0.04392,-0.07808,-0.0488,-0.01952
-0.01464,0.03904,-0.06344,-0.05612,-0.0488,0.01708,-0.00488,-0.01952,-0.03416,-0.08296,-0.0488,-0.0244
-0.01464,0.0488,-0.08296,-0.07564,-0.06832,0.02684,-0.00488,-0.02928,-0.04392,-0.10248,-0.06344,-0.03416
-0.01464,0.05124,-0.08784,-0.08052,-0.0732,0.02928,-0.00488,-0.03416,-0.05856,-0.11712,-0.0732,-0.03416
-0.02928,0.061,-0.09272,-0.07808,-0.06344,0.01708,0,-0.03416,-0.06832,-0.12688,-0.08296,-0.05368
-0.02928,0.06832,-0.10736,-0.09272,-0.07808,0.0244,0.00976,-0.02928,-0.05856,-0.122,-0.08784,-0.06832
-0.02928,0.06588,-0.10248,-0.08784,-0.0732,0.02196,0.00976,-0.0244,-0.05368,-0.122,-0.08784,-0.06344
-0.04392,0.08784,-0.13176,-0.1098,-0.08784,0.02196,0.01952,-0.0244,-0.05368,-0.13176,-0.09272,-0.06832
-0.04392,0.0854,-0.12688,-0.10492,-0.08296,0.01952,0.0244,-0.0244,-0.05368,-0.13176,-0.09272,-0.06832
-0.03416,0.0732,-0.11224,-0.09516,-0.07808,0.02196,0.01464,-0.02928,-0.06344,-0.13176,-0.0976,-0.06832
-0.03904,0.07564,-0.11224,-0.09272,-0.0732,0.01708,0.00488,-0.02928,-0.06832,-0.14152,-0.0976,-0.0732
-0.0488,0.08296,-0.11712,-0.09272,-0.06832,0.00976,0.01464,-0.02928,-0.05368,-0.13664,-0.10736,-0.06832
-0.03416,0.07564,-0.11712,-0.10004,-0.08296,0.0244,0.0244,-0.01952,-0.05368,-0.13664,-0.10736,-0.06832
-0.04392,0.08052,-0.11712,-0.09516,-0.0732,0.01464,0.03904,0,-0.03904,-0.12688,-0.11224,-0.08784
-0.05368,0.09272,-0.13176,-0.10492,-0.07808,0.0122,0.06344,0.0244,-0.00976,-0.122,-0.11712,-0.09272
-0.06832,0.0976,-0.12688,-0.09272,-0.05856,-0.00488,0.07808,0.05368,0.02928,-0.0976,-0.13176,-0.10248
-0.05856,0.08784,-0.11712,-0.08784,-0.05856,0,0.08296,0.06344,0.04392,-0.04392,-0.10248,-0.10248
-0.03904,0.05124,-0.06344,-0.04392,-0.0244,-0.00732,0.07808,0.0732,0.06344,0.01464,-0.07808,-0.08784
-0.0244,0.00244,0.01952,0.03172,0.04392,-0.03416,0.06832,0.08296,0.11712,0.16592,0.00488,-0.02928
0.03904,-0.07076,0.10248,0.08296,0.06344,-0.0122,0.09272,0.16104,0.244,0.4148,0.16104,0.06344
0.11224,-0.1586,0.20496,0.14884,0.09272,0.00976,0.05856,0.14152,0.25376,0.69784,0.3904,0.21472
0.16104,-0.2928,0.42456,0.34404,0.26352,-0.05124,-0.122,-0.10736,0.01952,0.9272,0.62952,0.37576
0.23424,-0.38796,0.54168,0.42456,0.30744,-0.0366,-0.25864,-0.31232,-0.20984,1.11264,0.84912,0.55632
0.2684,-0.52704,0.78568,0.65148,0.51728,-0.12444,-0.42456,-0.56608,-0.44408,1.21024,1.00528,0.6832
0.28304,-0.50752,0.732,0.59048,0.44896,-0.08296,-0.488,-0.6588,-0.58072,0.95648,0.98088,0.72712
0.1708,-0.37088,0.57096,0.48556,0.40016,-0.11468,-0.45384,-0.74664,-0.7808,0.33672,0.61,0.51728
-0.00488,-0.26596,0.5368,0.53924,0.54168,-0.27328,-0.46848,-0.98576,-1.16144,-0.38064,0.18056,0.28792
-0.13176,-0.11468,0.36112,0.427,0.49288,-0.31232,-0.46848,-1.06872,-1.30784,-0.71736,-0.08296,0.122
-0.17568,-0.00976,0.1952,0.28304,0.37088,-0.27328,-0.42944,-1.0004,-1.21512,-0.70272,-0.19032,0
-0.16104,0.04148,0.07808,0.1586,0.23912,-0.20008,-0.35136,-0.81008,-0.98576,-0.61488,-0.21472,-0.06832
-0.15616,0.07808,0,0.07808,0.15616,-0.15616,-0.33184,-0.66368,-0.7808,-0.50752,-0.21472,-0.08784
-0.1464,0.10492,-0.06344,0.00976,0.08296,-0.11468,-0.27328,-0.50752,-0.59536,-0.37576,-0.19032,-0.08296
-0.10736,0.061,-0.01464,0.03904,0.09272,-0.10004,-0.23912,-0.39528,-0.44408,-0.2684,-0.1464,-0.08296
-0.0976,0.0488,0,0.0488,0.0976,-0.0976,-0.14152,-0.25864,-0.30256,-0.18056,-0.09272,-0.06832
-0.06344,0.03416,-0.00488,0.02684,0.05856,-0.061,-0.07808,-0.15616,-0.1708,-0.13664,-0.05368,-0.03416
-0.02928,0.0122,0.00488,0.01952,0.03416,-0.03172,-0.03416,-0.07808,-0.11224,-0.10248,-0.05856,-0.02928
-0.03416,0.04148,-0.0488,-0.03172,-0.01464,-0.00976,-0.02928,-0.05368,-0.0732,-0.09272,-0.05856,-0.03904
-0.00976,0.00976,-0.00976,-0.00488,0,-0.00488,0,-0.01464,-0.03904,-0.0732,-0.0488,-0.04392
-0.00976,0.02196,-0.03416,-0.02928,-0.0244,0.00732,0.01952,0,-0.01464,-0.0732,-0.05856,-0.03416
-0.03416,0.05612,-0.07808,-0.061,-0.04392,0.00488,0.03416,0.01464,0,-0.0732,-0.05856,-0.03416
-0.03416,0.061,-0.08784,-0.07076,-0.05368,0.00976,0.01952,0.01464,0,-0.06832,-0.07808,-0.04392
-0.02928,0.05368,-0.07808,-0.06344,-0.0488,0.00976,0.01952,0.01952,0,-0.06344,-0.07808,-0.0488
-0.03904,0.05612,-0.0732,-0.05368,-0.03416,-0.00244,0.0244,0.01952,0.00488,-0.05856,-0.06344,-0.0488
-0.03904,0.05612,-0.0732,-0.05368,-0.03416,-0.00244,0.02928,0.0244,0.01952,-0.05856,-0.05856,-0.0488
-0.02928,0.05612,-0.08296,-0.06832,-0.05368,0.0122,0.03904,0.03416,0.02928,-0.05856,-0.06832,-0.0488
-0.0244,0.0488,-0.0732,-0.061,-0.0488,0.0122,0.03904,0.03416,0.02928,-0.05856,-0.06832,-0.0488
-0.0244,0.0488,-0.0732,-0.061,-0.0488,0.0122,0.03904,0.04392,0.03416,-0.05368,-0.05368,-0.04392
-0.0244,0.04148,-0.05856,-0.04636,-0.03416,0.00488,0.03904,0.04392,0.03904,-0.05368,-0.05856,-0.04392
-0.0244,0.04148,-0.05856,-0.04636,-0.03416,0.00488,0.03416,0.03904,0.03416,-0.0488,-0.05368,-0.04392
-0.0244,0.04148,-0.05856,-0.04636,-0.03416,0.00488,0.03416,0.03904,0.03904,-0.04392,-0.0488,-0.04392
-0.01952,0.04636,-0.0732,-0.06344,-0.05368,0.01708,0.03904,0.05368,0.0488,-0.03416,-0.03904,-0.03416
-0.01952,0.05124,-0.08296,-0.0732,-0.06344,0.02196,0.0488,0.05856,0.05368,-0.02928,-0.03904,-0.03416
-0.01952,0.04636,-0.0732,-0.06344,-0.05368,0.01708,0.05368,0.05856,0.06344,-0.03416,-0.04392,-0.03904
-0.0244,0.0488,-0.0732,-0.061,-0.0488,0.0122,0.05368,0.06344,0.06344,-0.03416,-0.04392,-0.03904
-0.01952,0.03904,-0.05856,-0.0488,-0.03904,0.00976,0.05368,0.06832,0.06832,-0.01952,-0.03904,-0.03416
-0.01952,0.03416,-0.0488,-0.03904,-0.02928,0.00488,0.0488,0.05856,0.0732,-0.01952,-0.03416,-0.02928
-0.01952,0.03172,-0.04392,-0.03416,-0.0244,0.00244,0.0488,0.06344,0.06344,-0.01952,-0.03416,-0.03904
-0.01464,0.02684,-0.03904,-0.03172,-0.0244,0.00488,0.0488,0.06832,0.06832,-0.00488,-0.02928,-0.03416
-0.0244,0.03416,-0.04392,-0.03172,-0.01952,-0.00244,0.05856,0.06832,0.08784,0,-0.0244,-0.02928
-0.0244,0.0366,-0.0488,-0.0366,-0.0244,0,0.05368,0.0732,0.08784,0,-0.0244,-0.0244
-0.01952,0.03172,-0.04392,-0.03416,-0.0244,0.00244,0.05856,0.08784,0.10248,0.00976,-0.0244,-0.01952
-0.01952,0.02684,-0.03416,-0.0244,-0.01464,-0.00244,0.0488,0.08784,0.10736,0.0244,-0.01464,-0.01952
-0.01464,0.01952,-0.0244,-0.01708,-0.00976,-0.00244,0.0488,0.0976,0.11712,0.0244,-0.00488,-0.01464
0.00488,0.00244,-0.00976,-0.0122,-0.01464,0.00976,0.05856,0.10248,0.12688,0.02928,-0.00488,-0.01464
0.00488,0.00732,-0.01952,-0.02196,-0.0244,0.01464,0.05856,0.10248,0.12688,0.0488,0,-0.01464
-0.00488,0.0122,-0.01952,-0.01708,-0.01464,0.00488,0.0488,0.10736,0.13176,0.05856,0.00976,-0.00976
0,0.00244,-0.00488,-0.00488,-0.00488,0.00244,0.0488,0.11712,0.15616,0.07808,0.01952,0
0.00488,-0.00732,0.00976,0.00732,0.00488,0,0.05368,0.122,0.1708,0.08784,0.03416,0
0.01952,-0.01708,0.01464,0.00488,-0.00488,0.0122,0.06344,0.13664,0.18544,0.0976,0.03416,0.01464
0.01952,-0.0122,0.00488,-0.00488,-0.01464,0.01708,0.06832,0.15128,0.20496,0.11712,0.0488,0.0244
0.01952,-0.01464,0.00976,0,-0.00976,0.01464,0.05856,0.15616,0.22448,0.13664,0.06344,0.03416
0.0244,-0.02684,0.02928,0.01708,0.00488,0.00976,0.0488,0.16592,0.23912,0.15616,0.0732,0.03904
0.02928,-0.0366,0.04392,0.02928,0.01464,0.00732,0.06832,0.18544,0.26352,0.17568,0.08296,0.0488
0.03904,-0.05368,0.06832,0.0488,0.02928,0.00488,0.06832,0.1952,0.28304,0.20984,0.10736,0.05856
0.0488,-0.061,0.0732,0.0488,0.0244,0.0122,0.0732,0.20496,0.30744,0.23424,0.122,0.05856
0.05368,-0.06344,0.0732,0.04636,0.01952,0.01708,0.06832,0.22448,0.32208,0.26352,0.1464,0.0732
0.05856,-0.07808,0.0976,0.06832,0.03904,0.00976,0.05856,0.23424,0.33672,0.28792,0.15128,0.07808
0.0732,-0.1098,0.1464,0.1098,0.0732,0,0.05856,0.24888,0.37088,0.32696,0.1708,0.09272
0.08296,-0.11468,0.1464,0.10492,0.06344,0.00976,0.05856,0.2684,0.40992,0.366,0.20984,0.11224
0.09272,-0.12444,0.15616,0.1098,0.06344,0.01464,0.05856,0.28304,0.42944,0.39528,0.22936,0.13176
0.10248,-0.13664,0.1708,0.11956,0.06832,0.01708,0.06344,0.28792,0.4392,0.43432,0.25864,0.15128
0.10248,-0.1464,0.19032,0.13908,0.08784,0.00732,0.05856,0.30256,0.4636,0.46848,0.27816,0.16104
0.10736,-0.16104,0.21472,0.16104,0.10736,0,0.05856,0.30256,0.46848,0.49776,0.2928,0.17568
0.11224,-0.17324,0.23424,0.17812,0.122,-0.00488,0.05856,0.30256,0.488,0.5368,0.3172,0.20008
0.122,-0.19276,0.26352,0.20252,0.14152,-0.00976,0.0488,0.31232,0.49776,0.56608,0.35136,0.20496
0.15128,-0.20984,0.2684,0.19276,0.11712,0.01708,0.05368,0.33184,0.52704,0.60024,0.38064,0.22448
0.1464,-0.20984,0.27328,0.20008,0.12688,0.00976,0.05368,0.32208,0.52216,0.61488,0.38064,0.23424
0.1464,-0.2196,0.2928,0.2196,0.1464,0,0.04392,0.32208,0.52216,0.62952,0.3904,0.23912
0.15128,-0.2318,0.31232,0.23668,0.16104,-0.00488,0.02928,0.30744,0.52704,0.64416,0.40992,0.23912
0.15616,-0.23912,0.32208,0.244,0.16592,-0.00488,0.01952,0.30256,0.51728,0.65392,0.40992,0.244
0.16592,-0.24156,0.3172,0.23424,0.15128,0.00732,0.01952,0.28792,0.49776,0.64904,0.42456,0.25864
0.15616,-0.23668,0.3172,0.23912,0.16104,-0.00244,0.01464,0.2684,0.47336,0.63928,0.4148,0.26352
0.15128,-0.22448,0.29768,0.22204,0.1464,0.00244,0.01952,0.24888,0.44896,0.60512,0.40016,0.244
0.12688,-0.20008,0.27328,0.20984,0.1464,-0.00976,0.01464,0.22936,0.4148,0.55632,0.37088,0.22448
0.11224,-0.17812,0.244,0.18788,0.13176,-0.00976,0.01952,0.1952,0.36112,0.50264,0.32208,0.18544
0.10248,-0.1586,0.21472,0.16348,0.11224,-0.00488,0.02928,0.18056,0.32696,0.45384,0.28304,0.16592
0.07808,-0.12444,0.1708,0.13176,0.09272,-0.00732,0.01952,0.16104,0.30256,0.38064,0.244,0.1464
0.07808,-0.1098,0.14152,0.10248,0.06344,0.00732,0.0244,0.1464,0.25864,0.3172,0.20496,0.12688
0.05856,-0.0976,0.13664,0.10736,0.07808,-0.00976,0.01952,0.10736,0.20496,0.244,0.15128,0.0976
0.03904,-0.07076,0.10248,0.08296,0.06344,-0.0122,0.01952,0.08296,0.16592,0.20008,0.11224,0.06832
0.03416,-0.05612,0.07808,0.061,0.04392,-0.00488,0.03416,0.05856,0.14152,0.15616,0.08296,0.0488
0.01952,-0.03904,0.05856,0.0488,0.03904,-0.00976,0.03416,0.05368,0.11224,0.10736,0.06832,0.03416
0,-0.00732,0.01464,0.01464,0.01464,-0.00732,0.03904,0.03416,0.07808,0.05856,0.03416,0.00488
-0.00488,0.00244,0,0.00244,0.00488,-0.00488,0.03416,0.01952,0.05368,0.0244,0.00976,-0.00488
-0.00488,0.00244,0,0.00244,0.00488,-0.00488,0.0244,0.01952,0.03416,0,-0.00488,-0.01952
-0.00976,0.01464,-0.01952,-0.01464,-0.00976,0,0.0244,0.00976,0.0244,-0.01952,-0.01464,-0.0244
-0.00976,0.02684,-0.04392,-0.03904,-0.03416,0.0122,0.0244,0,0.01952,-0.02928,-0.0244,-0.0244
-0.00976,0.02928,-0.0488,-0.04392,-0.03904,0.01464,0.02928,-0.00488,0.00488,-0.03904,-0.03416,-0.02928
-0.01952,0.0366,-0.05368,-0.04392,-0.03416,0.00732,0.0244,-0.00488,0,-0.04392,-0.03416,-0.02928
-0.01952,0.04148,-0.06344,-0.05368,-0.04392,0.0122,0.02928,-0.00488,-0.00488,-0.05368,-0.03416,-0.02928
-0.01952,0.04392,-0.06832,-0.05856,-0.0488,0.01464,0.01952,-0.01464,-0.01464,-0.06832,-0.0488,-0.03416
-0.0244,0.04392,-0.06344,-0.05124,-0.03904,0.00732,0.01952,-0.0244,-0.01952,-0.0732,-0.05368,-0.03904
-0.0244,0.04636,-0.06832,-0.05612,-0.04392,0.00976,0.01464,-0.0244,-0.02928,-0.0732,-0.05368,-0.04392
-0.0244,0.04392,-0.06344,-0.05124,-0.03904,0.00732,0.01464,-0.0244,-0.03416,-0.07808,-0.05856,-0.04392
-0.03416,0.05856,-0.08296,-0.06588,-0.0488,0.00732,0.01464,-0.0244,-0.03416,-0.07808,-0.06832,-0.04392
-0.03904,0.061,-0.08296,-0.06344,-0.04392,0.00244,0.01464,-0.0244,-0.04392,-0.08296,-0.06832,-0.04392
-0.01952,0.05124,-0.08296,-0.0732,-0.06344,0.02196,0.01464,-0.0244,-0.03416,-0.08296,-0.06344,-0.04392
-0.0244,0.05124,-0.07808,-0.06588,-0.05368,0.01464,0.01464,-0.0244,-0.03904,-0.09272,-0.05856,-0.04392
-0.01952,0.04636,-0.0732,-0.06344,-0.05368,0.01708,0.01464,-0.02928,-0.03416,-0.08296,-0.06344,-0.03904
-0.01952,0.05124,-0.08296,-0.0732,-0.06344,0.02196,0.01952,-0.02928,-0.03416,-0.08296,-0.06344,-0.03904
-0.02928,0.05612,-0.08296,-0.06832,-0.05368,0.0122,0.01464,-0.02928,-0.03416,-0.08784,-0.05856,-0.03904
-0.02928,0.05368,-0.07808,-0.06344,-0.0488,0.00976,0.01952,-0.02928,-0.02928,-0.08784,-0.06344,-0.0488
-0.02928,0.04392,-0.05856,-0.04392,-0.02928,0,0.00488,-0.03904,-0.04392,-0.10248,-0.0732,-0.06344
-0.02928,0.04636,-0.06344,-0.0488,-0.03416,0.00244,0.00488,-0.03904,-0.04392,-0.0976,-0.0732,-0.06344
-0.03904,0.05856,-0.07808,-0.05856,-0.03904,0,0.01464,-0.02928,-0.03416,-0.09272,-0.06344,-0.06344
-0.03904,0.061,-0.08296,-0.06344,-0.04392,0.00244,0.01464,-0.02928,-0.03904,-0.09272,-0.06344,-0.0488
-0.03416,0.05124,-0.06832,-0.05124,-0.03416,0,0.00488,-0.03904,-0.0488,-0.0976,-0.06344,-0.05368
-0.0244,0.03416,-0.04392,-0.03172,-0.01952,-0.00244,0,-0.04392,-0.04392,-0.09272,-0.06344,-0.05368
-0.02928,0.04148,-0.05368,-0.03904,-0.0244,-0.00244,0.00976,-0.02928,-0.03416,-0.0976,-0.06344,-0.04392
-0.02928,0.0488,-0.06832,-0.05368,-0.03904,0.00488,0.00976,-0.0244,-0.03416,-0.0976,-0.05856,-0.03904
-0.0244,0.04392,-0.06344,-0.05124,-0.03904,0.00732,0.00488,-0.03416,-0.03416,-0.0976,-0.06344,-0.04392
-0.02928,0.0488,-0.06832,-0.05368,-0.03904,0.00488,0.00488,-0.03416,-0.04392,-0.0976,-0.06344,-0.04392
-0.02928,0.04148,-0.05368,-0.03904,-0.0244,-0.00244,0.00488,-0.0244,-0.0488,-0.08784,-0.05368,-0.0488
-0.02928,0.04636,-0.06344,-0.0488,-0.03416,0.00244,0.01464,-0.01952,-0.03904,-0.08784,-0.05856,-0.0488
-0.02928,0.05124,-0.0732,-0.05856,-0.04392,0.00732,0.01464,-0.0244,-0.02928,-0.08784,-0.05856,-0.03904
-0.0244,0.04392,-0.06344,-0.05124,-0.03904,0.00732,0.01464,-0.01952,-0.02928,-0.08784,-0.05368,-0.03904
-0.0244,0.04636,-0.06832,-0.05612,-0.04392,0.00976,0.0244,-0.01952,-0.03416,-0.08296,-0.05856,-0.03904
-0.0244,0.04148,-0.05856,-0.04636,-0.03416,0.00488,0.01952,-0.01952,-0.03904,-0.08296,-0.05856,-0.03904
-0.02928,0.0488,-0.06832,-0.05368,-0.03904,0.00488,0.01464,-0.01952,-0.02928,-0.08296,-0.06344,-0.03416
-0.02928,0.05124,-0.0732,-0.05856,-0.04392,0.00732,0.01464,-0.00976,-0.01952,-0.07808,-0.05856,-0.03416
-0.03416,0.05124,-0.06832,-0.05124,-0.03416,0,0.01952,-0.01952,-0.01952,-0.08296,-0.05856,-0.04392
-0.03416,0.0488,-0.06344,-0.04636,-0.02928,-0.00244,0.01464,-0.01952,-0.01952,-0.08296,-0.05856,-0.0488
-0.03416,0.04148,-0.0488,-0.03172,-0.01464,-0.00976,0.01464,-0.01952,-0.03416,-0.08296,-0.06344,-0.04392
-0.03416,0.04148,-0.0488,-0.03172,-0.01464,-0.00976,0.01464,-0.01952,-0.03416,-0.08296,-0.06344,-0.04392
-0.0244,0.03904,-0.05368,-0.04148,-0.02928,0.00244,0.01464,-0.01952,-0.01952,-0.08784,-0.05856,-0.03416
-0.0244,0.03172,-0.03904,-0.02684,-0.01464,-0.00488,0.01464,-0.01464,-0.01952,-0.09272,-0.06344,-0.03416
-0.01952,0.03904,-0.05856,-0.0488,-0.03904,0.00976,0.01464,-0.00488,-0.01952,-0.07808,-0.05856,-0.03416
-0.01952,0.04148,-0.06344,-0.05368,-0.04392,0.0122,0.01464,-0.00976,-0.01952,-0.07808,-0.0488,-0.03416
-0.0244,0.0488,-0.0732,-0.061,-0.0488,0.0122,0.01464,-0.01464,-0.01952,-0.08784,-0.05368,-0.04392
-0.0244,0.04148,-0.05856,-0.04636,-0.03416,0.00488,0.01464,-0.01464,-0.01952,-0.09272,-0.05368,-0.04392
-0.01464,0.02684,-0.03904,-0.03172,-0.0244,0.00488,0.01464,-0.01464,-0.01952,-0.08296,-0.05368,-0.04392
-0.00976,0.02684,-0.04392,-0.03904,-0.03416,0.0122,0.01952,-0.01464,-0.01952,-0.07808,-0.0488,-0.04392
-0.01464,0.0244,-0.03416,-0.02684,-0.01952,0.00244,0.01952,-0.01464,-0.01464,-0.07808,-0.0488,-0.04392
-0.02928,0.03904,-0.0488,-0.03416,-0.01952,-0.00488,0.01952,-0.01464,-0.02928,-0.08296,-0.05856,-0.0488
-0.03904,0.04636,-0.05368,-0.03416,-0.01464,-0.0122,0.00976,-0.01464,-0.02928,-0.09272,-0.06344,-0.0488
-0.02928,0.04148,-0.05368,-0.03904,-0.0244,-0.00244,0.00976,-0.01952,-0.03416,-0.09272,-0.06344,-0.0488
-0.0244,0.03904,-0.05368,-0.04148,-0.02928,0.00244,0.01952,-0.01464,-0.0244,-0.08784,-0.05368,-0.03904
-0.0244,0.04148,-0.05856,-0.04636,-0.03416,0.00488,0.01464,-0.00976,-0.01952,-0.08784,-0.05368,-0.03416
-0.0244,0.04392,-0.06344,-0.05124,-0.03904,0.00732,0.01464,-0.01464,-0.03416,-0.0976,-0.05856,-0.03904
-0.01952,0.04148,-0.06344,-0.05368,-0.04392,0.0122,0.01464,-0.01464,-0.03416,-0.0976,-0.05856,-0.04392
-0.02928,0.04636,-0.06344,-0.0488,-0.03416,0.00244,0.01464,-0.01952,-0.03904,-0.10248,-0.05856,-0.04392
-0.02928,0.0488,-0.06832,-0.05368,-0.03904,0.00488,0.01464,-0.01952,-0.03904,-0.0976,-0.06344,-0.04392
-0.0244,0.0366,-0.0488,-0.0366,-0.0244,0,0.01464,-0.01952,-0.03416,-0.10248,-0.06832,-0.05368
-0.0244,0.04392,-0.06344,-0.05124,-0.03904,0.00732,0.01464,-0.01952,-0.03416,-0.10248,-0.06344,-0.05368
-0.03416,0.04392,-0.05368,-0.0366,-0.01952,-0.00732,0.00976,-0.0244,-0.04392,-0.10736,-0.0732,-0.05368
-0.03416,0.05368,-0.0732,-0.05612,-0.03904,0.00244,0.01464,-0.01952,-0.04392,-0.10736,-0.0732,-0.05368
-0.0244,0.04636,-0.06832,-0.05612,-0.04392,0.00976,0.01464,-0.01952,-0.03904,-0.10248,-0.06344,-0.05368
-0.02928,0.05124,-0.0732,-0.05856,-0.04392,0.00732,0.01464,-0.01952,-0.03904,-0.10736,-0.06344,-0.05368
-0.01952,0.04148,-0.06344,-0.05368,-0.04392,0.0122,0.01464,-0.01952,-0.04392,-0.10248,-0.06344,-0.0488
-0.01464,0.03904,-0.06344,-0.05612,-0.0488,0.01708,0.01464,-0.01952,-0.04392,-0.10248,-0.06832,-0.0488
-0.0244,0.04636,-0.06832,-0.05612,-0.04392,0.00976,0.00976,-0.01464,-0.03904,-0.10736,-0.05856,-0.0488
-0.0244,0.05124,-0.07808,-0.06588,-0.05368,0.01464,0.00976,-0.01464,-0.03416,-0.10248,-0.05856,-0.04392
-0.02928,0.05124,-0.0732,-0.05856,-0.04392,0.00732,0,-0.02928,-0.03904,-0.10736,-0.06344,-0.06344
-0.02928,0.04148,-0.05368,-0.03904,-0.0244,-0.00244,0,-0.03416,-0.05368,-0.122,-0.07808,-0.06344
-0.0244,0.04148,-0.05856,-0.04636,-0.03416,0.00488,0.00488,-0.0244,-0.05856,-0.11224,-0.0732,-0.05368
-0.02928,0.05124,-0.0732,-0.05856,-0.04392,0.00732,0.00488,-0.01952,-0.05856,-0.11224,-0.06832,-0.0488
-0.01464,0.03904,-0.06344,-0.05612,-0.0488,0.01708,0.01464,-0.0244,-0.04392,-0.10736,-0.07808,-0.05856
-0.01464,0.03904,-0.06344,-0.05612,-0.0488,0.01708,0.00976,-0.0244,-0.04392,-0.10736,-0.07808,-0.05856
-0.01464,0.0488,-0.08296,-0.07564,-0.06832,0.02684,0.00976,-0.01464,-0.0488,-0.10736,-0.06832,-0.05368
-0.01952,0.05124,-0.08296,-0.0732,-0.06344,0.02196,0.00976,-0.01464,-0.0488,-0.10736,-0.06832,-0.0488
-0.02928,0.05856,-0.08784,-0.0732,-0.05856,0.01464,0.00488,-0.01952,-0.05368,-0.11224,-0.0732,-0.05856
-0.02928,0.05856,-0.08784,-0.0732,-0.05856,0.01464,0.00488,-0.0244,-0.05856,-0.11712,-0.0732,-0.06344
-0.04392,0.061,-0.07808,-0.05612,-0.03416,-0.00488,0.01464,-0.01952,-0.0488,-0.11712,-0.08296,-0.06344
-0.03904,0.05368,-0.06832,-0.0488,-0.02928,-0.00488,0.00976,-0.01952,-0.04392,-0.11712,-0.08296,-0.06344
-0.03416,0.04636,-0.05856,-0.04148,-0.0244,-0.00488,0,-0.01952,-0.05368,-0.12688,-0.07808,-0.06344
-0.03416,0.05368,-0.0732,-0.05612,-0.03904,0.00244,0.00488,-0.01952,-0.05368,-0.122,-0.07808,-0.05856
-0.02928,0.05368,-0.07808,-0.06344,-0.0488,0.00976,0.01464,-0.01952,-0.04392,-0.11712,-0.06832,-0.05856
-0.02928,0.05368,-0.07808,-0.06344,-0.0488,0.00976,0.00976,-0.0244,-0.0488,-0.11712,-0.0732,-0.05856
-0.02928,0.061,-0.09272,-0.07808,-0.06344,0.01708,0.00488,-0.0244,-0.05368,-0.10736,-0.0732,-0.05856
-0.02928,0.061,-0.09272,-0.07808,-0.06344,0.01708,0,-0.0244,-0.05368,-0.10736,-0.0732,-0.06344
-0.02928,0.061,-0.09272,-0.07808,-0.06344,0.01708,0.00488,-0.01464,-0.04392,-0.11712,-0.08296,-0.06344
-0.02928,0.05124,-0.0732,-0.05856,-0.04392,0.00732,0.00488,-0.0244,-0.0488,-0.11712,-0.08296,-0.06344
-0.02928,0.05368,-0.07808,-0.06344,-0.0488,0.00976,0.00488,-0.0244,-0.04392,-0.11712,-0.0732,-0.05368
-0.02928,0.05368,-0.07808,-0.06344,-0.0488,0.00976,0.00488,-0.0244,-0.04392,-0.11712,-0.07808,-0.05368
-0.02928,0.05124,-0.0732,-0.05856,-0.04392,0.00732,0.01464,-0.0244,-0.0488,-0.11712,-0.07808,-0.06344
-0.02928,0.04636,-0.06344,-0.0488,-0.03416,0.00244,0.00976,-0.0244,-0.0488,-0.11712,-0.07808,-0.05856
-0.02928,0.04392,-0.05856,-0.04392,-0.02928,0,0.01464,-0.02928,-0.0488,-0.10736,-0.07808,-0.05368
-0.03416,0.05856,-0.08296,-0.06588,-0.0488,0.00732,0.01464,-0.0244,-0.04392,-0.10736,-0.07808,-0.05368
-0.02928,0.05368,-0.07808,-0.06344,-0.0488,0.00976,0.00488,-0.0244,-0.05368,-0.11712,-0.08784,-0.06344
-0.0244,0.04636,-0.06832,-0.05612,-0.04392,0.00976,0.00488,-0.0244,-0.05368,-0.11712,-0.08784,-0.06344
-0.02928,0.06344,-0.0976,-0.08296,-0.06832,0.01952,0.01952,-0.01952,-0.03416,-0.11712,-0.06832,-0.05368
-0.03416,0.06344,-0.09272,-0.07564,-0.05856,0.0122,0.01464,-0.01952,-0.04392,-0.122,-0.07808,-0.05368
-0.02928,0.061,-0.09272,-0.07808,-0.06344,0.01708,0,-0.01952,-0.04392,-0.122,-0.08296,-0.06344
-0.0244,0.05368,-0.08296,-0.07076,-0.05856,0.01708,0.00488,-0.01952,-0.05368,-0.122,-0.08784,-0.06344
-0.0244,0.061,-0.0976,-0.0854,-0.0732,0.0244,0.00976,-0.00976,-0.04392,-0.11224,-0.0732,-0.05856
-0.02928,0.06588,-0.10248,-0.08784,-0.0732,0.02196,0,-0.02928,-0.05856,-0.11712,-0.08784,-0.06832
-0.02928,0.05124,-0.0732,-0.05856,-0.04392,0.00732,0,-0.02928,-0.05856,-0.11712,-0.08784,-0.06832
-0.02928,0.05124,-0.0732,-0.05856,-0.04392,0.00732,0.00488,-0.0244,-0.05368,-0.10736,-0.07808,-0.06344
-0.02928,0.05612,-0.08296,-0.06832,-0.05368,0.0122,0.01464,-0.01464,-0.04392,-0.10736,-0.07808,-0.05368
-0.02928,0.05368,-0.07808,-0.06344,-0.0488,0.00976,0.00976,-0.01952,-0.0488,-0.11712,-0.07808,-0.05856
-0.02928,0.05368,-0.07808,-0.06344,-0.0488,0.00976,0.00976,-0.01952,-0.0488,-0.11712,-0.07808,-0.05856
-0.02928,0.05612,-0.08296,-0.06832,-0.05368,0.0122,0.00976,-0.01952,-0.03904,-0.11712,-0.07808,-0.05856
-0.02928,0.061,-0.09272,-0.07808,-0.06344,0.01708,0.00976,-0.01952,-0.03904,-0.11712,-0.07808,-0.05856
-0.01952,0.05124,-0.08296,-0.0732,-0.06344,0.02196,0.01952,-0.01952,-0.0488,-0.11712,-0.07808,-0.05856
-0.01952,0.04636,-0.0732,-0.06344,-0.05368,0.01708,0.01952,-0.01952,-0.0488,-0.11712,-0.07808,-0.05856
-0.02928,0.05368,-0.07808,-0.06344,-0.0488,0.00976,0.00976,-0.00976,-0.0488,-0.11712,-0.08784,-0.05856
-0.02928,0.05368,-0.07808,-0.06344,-0.0488,0.00976,0.00976,-0.00976,-0.0488,-0.11712,-0.08784,-0.05856
-0.02928,0.05368,-0.07808,-0.06344,-0.0488,0.00976,0.00976,-0.01464,-0.0488,-0.12688,-0.08784,-0.06832
-0.02928,0.05368,-0.07808,-0.06344,-0.0488,0.00976,0.00976,-0.0244,-0.0488,-0.12688,-0.08784,-0.06832
-0.02928,0.05856,-0.08784,-0.0732,-0.05856,0.01464,0,-0.01952,-0.0488,-0.11712,-0.08784,-0.06832
-0.02928,0.05856,-0.08784,-0.0732,-0.05856,0.01464,0,-0.01952,-0.0488,-0.11712,-0.08784,-0.06832
-0.02928,0.05856,-0.08784,-0.0732,-0.05856,0.01464,0.00976,-0.02928,-0.0488,-0.12688,-0.07808,-0.05856
-0.02928,0.05856,-0.08784,-0.0732,-0.05856,0.01464,0.00976,-0.02928,-0.0488,-0.12688,-0.07808,-0.05856
-0.02928,0.05368,-0.07808,-0.06344,-0.0488,0.00976,0.00976,-0.01952,-0.0488,-0.11712,-0.08784,-0.06832
-0.02928,0.05368,-0.07808,-0.06344,-0.0488,0.00976,0.00976,-0.01952,-0.0488,-0.11712,-0.08784,-0.06832
-0.02928,0.05124,-0.0732,-0.05856,-0.04392,0.00732,0.00976,-0.00976,-0.0488,-0.11224,-0.08296,-0.05856
-0.02928,0.05124,-0.0732,-0.05856,-0.04392,0.00732,0.00976,-0.00976,-0.05368,-0.11224,-0.07808,-0.05856
-0.01952,0.0488,-0.07808,-0.06832,-0.05856,0.01952,0.00488,-0.01952,-0.0488,-0.11224,-0.07808,-0.05856
-0.01952,0.0488,-0.07808,-0.06832,-0.05856,0.01952,0.00488,-0.01952,-0.05368,-0.11224,-0.08296,-0.05856
-0.0244,0.05368,-0.08296,-0.07076,-0.05856,0.01708,0.00976,-0.00976,-0.04392,-0.122,-0.08296,-0.06832
-0.03416,0.06344,-0.09272,-0.07564,-0.05856,0.0122,0.00976,-0.00976,-0.04392,-0.122,-0.08296,-0.06832
-0.03416,0.05856,-0.08296,-0.06588,-0.0488,0.00732,0.00976,-0.01464,-0.03904,-0.10248,-0.08784,-0.05856
-0.01952,0.05368,-0.08784,-0.07808,-0.06832,0.0244,0.00976,-0.00976,-0.03904,-0.10248,-0.08784,-0.05368
-0.0244,0.0488,-0.0732,-0.061,-0.0488,0.0122,0.01952,-0.00488,-0.03904,-0.0976,-0.07808,-0.05368
-0.01952,0.04148,-0.06344,-0.05368,-0.04392,0.0122,0.01952,-0.00488,-0.03416,-0.0976,-0.07808,-0.05368
-0.0244,0.0366,-0.0488,-0.0366,-0.0244,0,0.00976,-0.00976,-0.03416,-0.08784,-0.08296,-0.0488
-0.0244,0.0366,-0.0488,-0.0366,-0.0244,0,0.01464,0,-0.02928,-0.08784,-0.0732,-0.04392
-0.0244,0.0366,-0.0488,-0.0366,-0.0244,0,0.01952,0,-0.02928,-0.09272,-0.06832,-0.05368
-0.02928,0.04392,-0.05856,-0.04392,-0.02928,0,0.01952,-0.00488,-0.02928,-0.10248,-0.06832,-0.05368
-0.01952,0.02928,-0.03904,-0.02928,-0.01952,0,0.00976,-0.00488,-0.02928,-0.09272,-0.06832,-0.04392
0,0.0122,-0.0244,-0.0244,-0.0244,0.0122,0.01464,0,-0.0244,-0.08784,-0.05856,-0.04392
0.00976,-0.00244,-0.00488,-0.00976,-0.01464,0.0122,0.0244,0.00976,-0.00976,-0.06344,-0.0488,-0.02928
0.00976,-0.00976,0.00976,0.00488,0,0.00488,0.00488,0,-0.01464,-0.06344,-0.03416,-0.0244
0.00488,-0.00976,0.01464,0.0122,0.00976,-0.00244,-0.01464,-0.01464,-0.03416,-0.0732,-0.04392,-0.01952
0.00488,0.00488,-0.01464,-0.01708,-0.01952,0.0122,-0.01952,-0.01952,-0.03904,-0.08296,-0.0488,-0.01952
0.01464,0.01708,-0.0488,-0.05612,-0.06344,0.03904,-0.0244,-0.02928,-0.0488,-0.09272,-0.05856,-0.02928
0.01464,0.01464,-0.04392,-0.05124,-0.05856,0.0366,-0.02928,-0.02928,-0.0488,-0.0976,-0.05368,-0.03416
0.01464,0.00976,-0.03416,-0.04148,-0.0488,0.03172,-0.0244,-0.0244,-0.03904,-0.09272,-0.05368,-0.03416
0.01464,0.00488,-0.0244,-0.03172,-0.03904,0.02684,-0.01952,-0.0244,-0.03416,-0.09272,-0.05368,-0.03904
0.01464,0.00488,-0.0244,-0.03172,-0.03904,0.02684,-0.02928,-0.0244,-0.03416,-0.10248,-0.05368,-0.01952
0.01464,0.00488,-0.0244,-0.03172,-0.03904,0.02684,-0.01464,-0.01952,-0.03416,-0.0976,-0.0488,-0.01952
-0.00488,0.0244,-0.04392,-0.04148,-0.03904,0.01708,-0.01464,-0.02928,-0.04392,-0.10248,-0.05856,-0.03416
-0.00488,0.03416,-0.06344,-0.061,-0.05856,0.02684,-0.01464,-0.03904,-0.05368,-0.122,-0.0732,-0.04392
-0.01464,0.0488,-0.08296,-0.07564,-0.06832,0.02684,-0.00488,-0.03904,-0.0488,-0.122,-0.07808,-0.0488
-0.02928,0.06344,-0.0976,-0.08296,-0.06832,0.01952,0,-0.02928,-0.05856,-0.122,-0.07808,-0.05856
-0.03904,0.06832,-0.0976,-0.07808,-0.05856,0.00976,0,-0.0244,-0.06832,-0.13176,-0.08296,-0.06832
-0.03904,0.06588,-0.09272,-0.0732,-0.05368,0.00732,0,-0.02928,-0.06344,-0.13176,-0.09272,-0.06344
-0.04392,0.07808,-0.11224,-0.09028,-0.06832,0.0122,0,-0.03416,-0.06344,-0.14152,-0.10248,-0.07808
-0.04392,0.07564,-0.10736,-0.0854,-0.06344,0.00976,0.00488,-0.03416,-0.06344,-0.14152,-0.10248,-0.07808
-0.03416,0.06832,-0.10248,-0.0854,-0.06832,0.01708,0.00488,-0.02928,-0.05368,-0.13176,-0.0976,-0.06832
-0.03904,0.07564,-0.11224,-0.09272,-0.0732,0.01708,0.00488,-0.02928,-0.05856,-0.14152,-0.0976,-0.0732
-0.03904,0.08296,-0.12688,-0.10736,-0.08784,0.0244,0.01464,-0.01952,-0.05368,-0.12688,-0.0976,-0.06832
-0.03416,0.08052,-0.12688,-0.1098,-0.09272,0.02928,0.01464,-0.00976,-0.04392,-0.12688,-0.0976,-0.05856
-0.04392,0.09028,-0.13664,-0.11468,-0.09272,0.0244,0.03904,0,-0.02928,-0.13664,-0.10248,-0.08784
-0.05368,0.0976,-0.14152,-0.11468,-0.08784,0.01708,0.06344,0.0244,0,-0.122,-0.10736,-0.09272
-0.05856,0.07808,-0.0976,-0.06832,-0.03904,-0.00976,0.07808,0.05368,0.03904,-0.0976,-0.122,-0.122
-0.05856,0.06344,-0.06832,-0.03904,-0.00976,-0.0244,0.0732,0.05368,0.04392,-0.05368,-0.122,-0.11224
-0.0488,0.061,-0.0732,-0.0488,-0.0244,-0.0122,0.08784,0.08296,0.0732,0.06344,-0.06832,-0.06832
-0.0244,0.0122,0,0.0122,0.0244,-0.0244,0.07808,0.08296,0.13664,0.22448,0.04392,0.00976
0.0488,-0.10492,0.16104,0.13664,0.11224,-0.03172,0.06344,0.15128,0.26352,0.4636,0.19032,0.08296
0.13176,-0.21228,0.2928,0.22692,0.16104,-0.01464,-0.00976,0.0732,0.20496,0.76616,0.42944,0.26352
0.19032,-0.31232,0.43432,0.33916,0.244,-0.02684,-0.15128,-0.15616,-0.03904,1.0248,0.69784,0.44408
0.27328,-0.4514,0.62952,0.49288,0.35624,-0.04148,-0.30744,-0.38064,-0.2684,1.1712,0.90768,0.60512
0.30744,-0.56608,0.82472,0.671,0.51728,-0.10492,-0.4636,-0.62464,-0.49288,1.21024,1.05408,0.732
0.27328,-0.48312,0.69296,0.55632,0.41968,-0.0732,-0.50752,-0.68808,-0.61976,0.81984,0.91256,0.68808
0.122,-0.3416,0.5612,0.5002,0.4392,-0.1586,-0.4636,-0.82472,-0.88816,0.15128,0.50264,0.45872
-0.0732,-0.19764,0.46848,0.50508,0.54168,-0.30744,-0.49776,-1.0736,-1.2688,-0.51728,0.11224,0.24888
-0.14152,-0.07564,0.2928,0.36356,0.43432,-0.28792,-0.47824,-1.08824,-1.30784,-0.71736,-0.08296,0.11224
-0.16592,0,0.16592,0.24888,0.33184,-0.24888,-0.44896,-0.98088,-1.16632,-0.67344,-0.18056,0
-0.1708,0.05612,0.05856,0.14396,0.22936,-0.20008,-0.36112,-0.77104,-0.93696,-0.5856,-0.22448,-0.07808
-0.15616,0.06832,0.01952,0.0976,0.17568,-0.16592,-0.33184,-0.64416,-0.76128,-0.47824,-0.21472,-0.0976
-0.12688,0.08052,-0.03416,0.02928,0.09272,-0.1098,-0.28304,-0.49776,-0.55632,-0.33672,-0.16104,-0.08296
-0.0976,0.02196,0.05368,0.10248,0.15128,-0.12444,-0.22936,-0.37576,-0.40504,-0.24888,-0.12688,-0.08296
-0.05856,0.00488,0.0488,0.07808,0.10736,-0.08296,-0.122,-0.22936,-0.25376,-0.16104,-0.09272,-0.05856
-0.04392,0.0244,-0.00488,0.01708,0.03904,-0.04148,-0.0488,-0.12688,-0.15128,-0.10736,-0.05368,-0.01464
-0.01952,0.01708,-0.01464,-0.00488,0.00488,-0.0122,-0.03416,-0.07808,-0.09272,-0.09272,-0.0488,-0.01952
-0.03416,0.02684,-0.01952,-0.00244,0.01464,-0.0244,-0.02928,-0.06344,-0.0732,-0.09272,-0.05856,-0.03904
-0.03904,0.03904,-0.03904,-0.01952,0,-0.01952,-0.00976,-0.0244,-0.03904,-0.09272,-0.06832,-0.05368
-0.03904,0.03172,-0.0244,-0.00488,0.01464,-0.02684,-0.00976,-0.01952,-0.01952,-0.09272,-0.07808,-0.05368
-0.04392,0.04636,-0.0488,-0.02684,-0.00488,-0.01952,0.00488,-0.00488,-0.01464,-0.09272,-0.07808,-0.05368
-0.04392,0.05124,-0.05856,-0.0366,-0.01464,-0.01464,0.00976,0.00488,-0.01464,-0.07808,-0.08296,-0.05368
-0.03904,0.05368,-0.06832,-0.0488,-0.02928,-0.00488,0.00976,0.00976,-0.00488,-0.0732,-0.0732,-0.05856
-0.02928,0.0488,-0.06832,-0.05368,-0.03904,0.00488,0.0244,0.01952,0.00976,-0.06832,-0.0732,-0.05856
-0.02928,0.04392,-0.05856,-0.04392,-0.02928,0,0.02928,0.0244,0.01464,-0.06832,-0.06832,-0.05856
-0.02928,0.05368,-0.07808,-0.06344,-0.0488,0.00976,0.0488,0.04392,0.0244,-0.05368,-0.06344,-0.05368
-0.0244,0.05124,-0.07808,-0.06588,-0.05368,0.01464,0.0488,0.04392,0.03416,-0.04392,-0.05368,-0.04392
-0.0244,0.05124,-0.07808,-0.06588,-0.05368,0.01464,0.03904,0.03416,0.03904,-0.03904,-0.05368,-0.04392
-0.0244,0.03904,-0.05368,-0.04148,-0.02928,0.00244,0.03904,0.03416,0.03416,-0.0488,-0.05856,-0.04392
-0.0244,0.0366,-0.0488,-0.0366,-0.0244,0,0.04392,0.03904,0.03416,-0.05856,-0.06344,-0.05368
-0.0244,0.0366,-0.0488,-0.0366,-0.0244,0,0.04392,0.03904,0.03904,-0.05368,-0.05856,-0.05368
-0.02928,0.04392,-0.05856,-0.04392,-0.02928,0,0.03416,0.03416,0.03904,-0.05368,-0.05856,-0.05368
-0.02928,0.04392,-0.05856,-0.04392,-0.02928,0,0.03416,0.03904,0.04392,-0.0488,-0.05856,-0.05368
-0.02928,0.04392,-0.05856,-0.04392,-0.02928,0,0.04392,0.0488,0.06344,-0.03904,-0.0488,-0.04392
-0.03416,0.05124,-0.06832,-0.05124,-0.03416,0,0.04392,0.05368,0.06344,-0.02928,-0.03904,-0.03416
-0.02928,0.0488,-0.06832,-0.05368,-0.03904,0.00488,0.04392,0.06344,0.05856,-0.01464,-0.03416,-0.03416
-0.02928,0.04392,-0.05856,-0.04392,-0.02928,0,0.03904,0.06344,0.06344,-0.0244,-0.03904,-0.02928
-0.01952,0.02928,-0.03904,-0.02928,-0.01952,0,0.03904,0.06344,0.0732,-0.01952,-0.03416,-0.03904
-0.01464,0.01952,-0.0244,-0.01708,-0.00976,-0.00244,0.03904,0.06832,0.07808,-0.00488,-0.02928,-0.03416
-0.00488,0.01464,-0.0244,-0.02196,-0.01952,0.00732,0.0488,0.06832,0.08784,0,-0.0244,-0.01952
-0.00488,0.01708,-0.02928,-0.02684,-0.0244,0.00976,0.04392,0.0732,0.08784,0,-0.0244,-0.01464
-0.00488,0.0244,-0.04392,-0.04148,-0.03904,0.01708,0.04392,0.08784,0.10248,0.00976,-0.0244,-0.01952
-0.01464,0.0244,-0.03416,-0.02684,-0.01952,0.00244,0.04392,0.08784,0.10736,0.0244,-0.01464,-0.01952
-0.01464,0.01708,-0.01952,-0.0122,-0.00488,-0.00488,0.04392,0.08784,0.11712,0.0244,-0.01464,-0.0244
0.00488,-0.00488,0.00488,0.00244,0,0.00244,0.04392,0.09272,0.12688,0.02928,-0.01464,-0.0244
0,-0.00488,0.00976,0.00976,0.00976,-0.00488,0.04392,0.10248,0.13664,0.0488,0.00976,-0.00488
0,-0.00488,0.00976,0.00976,0.00976,-0.00488,0.04392,0.10736,0.14152,0.05856,0.01952,0
0.00976,-0.00976,0.00976,0.00488,0,0.00488,0.03904,0.11712,0.15616,0.06832,0.00976,0.00488
0.01464,-0.01464,0.01464,0.00732,0,0.00732,0.04392,0.122,0.1708,0.07808,0.0244,-0.00488
0.00976,-0.01708,0.0244,0.01952,0.01464,-0.00244,0.04392,0.13664,0.18544,0.09272,0.02928,0
0.00976,-0.0122,0.01464,0.00976,0.00488,0.00244,0.0488,0.15128,0.20496,0.122,0.05368,0.01952
0.00976,-0.00976,0.00976,0.00488,0,0.00488,0.0488,0.16592,0.23424,0.13664,0.06344,0.03416
0.01464,-0.02196,0.02928,0.02196,0.01464,0,0.03904,0.17568,0.24888,0.15616,0.0732,0.03904
0.02928,-0.03416,0.03904,0.0244,0.00976,0.00976,0.05856,0.1952,0.26352,0.18544,0.09272,0.03904
0.03904,-0.05612,0.0732,0.05368,0.03416,0.00244,0.05856,0.20496,0.28304,0.2196,0.11712,0.0488
0.05856,-0.0732,0.08784,0.05856,0.02928,0.01464,0.06344,0.22448,0.3172,0.23424,0.122,0.06832
0.06344,-0.08052,0.0976,0.06588,0.03416,0.01464,0.05856,0.244,0.33184,0.26352,0.1464,0.08296
0.05856,-0.0854,0.11224,0.08296,0.05368,0.00244,0.0488,0.244,0.34648,0.29768,0.16104,0.07808
0.0732,-0.11224,0.15128,0.11468,0.07808,-0.00244,0.0488,0.25864,0.38064,0.33672,0.18056,0.09272
0.0732,-0.1098,0.1464,0.1098,0.0732,0,0.05856,0.28792,0.41968,0.38552,0.2196,0.122
0.08296,-0.11956,0.15616,0.11468,0.0732,0.00488,0.05856,0.30256,0.4392,0.4148,0.23912,0.14152
0.10248,-0.1464,0.19032,0.13908,0.08784,0.00732,0.04392,0.30256,0.44896,0.43432,0.25864,0.14152
0.10248,-0.15616,0.20984,0.1586,0.10736,-0.00244,0.03904,0.30744,0.47336,0.46848,0.27816,0.15128
0.11712,-0.1708,0.22448,0.16592,0.10736,0.00488,0.03904,0.32208,0.488,0.51728,0.31232,0.17568
0.122,-0.183,0.244,0.183,0.122,0,0.03904,0.32208,0.50752,0.55632,0.33672,0.20008
0.13664,-0.20252,0.2684,0.20008,0.13176,0.00244,0.02928,0.32696,0.5124,0.56608,0.35624,0.1952
0.15616,-0.2196,0.28304,0.20496,0.12688,0.01464,0.03416,0.33672,0.53192,0.60024,0.37576,0.21472
0.15616,-0.22448,0.2928,0.21472,0.13664,0.00976,0.03416,0.3416,0.54168,0.6344,0.3904,0.23424
0.15616,-0.22448,0.2928,0.21472,0.13664,0.00976,0.0244,0.3416,0.54168,0.64904,0.40016,0.23912
0.16104,-0.2318,0.30256,0.22204,0.14152,0.00976,0.01952,0.3172,0.52704,0.64416,0.40992,0.24888
0.16592,-0.24888,0.33184,0.24888,0.16592,0,0.00976,0.31232,0.51728,0.65392,0.40992,0.25376
0.16592,-0.24644,0.32696,0.244,0.16104,0.00244,0.00976,0.28792,0.49776,0.6588,0.42456,0.26352
0.15616,-0.24156,0.32696,0.24888,0.1708,-0.00732,0.00488,0.2684,0.47336,0.64904,0.4148,0.25864
0.1464,-0.22692,0.30744,0.23424,0.16104,-0.00732,0.00976,0.25864,0.44896,0.60512,0.3904,0.23424
0.13176,-0.2074,0.28304,0.21716,0.15128,-0.00976,0.00488,0.23912,0.4148,0.55632,0.36112,0.21472
0.13176,-0.19764,0.26352,0.19764,0.13176,0,0,0.20496,0.36112,0.50264,0.32208,0.18544
0.122,-0.17812,0.23424,0.17324,0.11224,0.00488,0.00976,0.19032,0.32696,0.45384,0.28304,0.16592
0.08296,-0.13176,0.18056,0.13908,0.0976,-0.00732,0.01952,0.16104,0.28304,0.37576,0.23424,0.14152
0.0732,-0.11224,0.15128,0.11468,0.07808,-0.00244,0.0244,0.1464,0.23912,0.30256,0.1952,0.11224
0.0488,-0.0854,0.122,0.0976,0.0732,-0.0122,0.00976,0.10736,0.20008,0.244,0.15128,0.08296
0.02928,-0.05368,0.07808,0.06344,0.0488,-0.00976,0.00976,0.08296,0.1708,0.20008,0.11224,0.06344
0.0244,-0.04392,0.06344,0.05124,0.03904,-0.00732,0.01464,0.05856,0.14152,0.1464,0.08784,0.03904
0.00976,-0.03172,0.05368,0.0488,0.04392,-0.01708,0.01464,0.05368,0.11224,0.0976,0.06344,0.0244
0.00976,-0.01952,0.02928,0.0244,0.01952,-0.00488,0.01952,0.04392,0.07808,0.06832,0.0244,0.00488
0.00488,-0.01464,0.0244,0.02196,0.01952,-0.00732,0.01464,0.02928,0.05368,0.03416,0,-0.00488
-0.00488,0,0.00488,0.00732,0.00976,-0.00732,0.0244,0.01952,0.04392,0.01952,-0.00976,-0.00976
-0.00976,0.02684,-0.04392,-0.03904,-0.03416,0.0122,0.0244,0.00976,0.03416,0,-0.00976,-0.01464
-0.01464,0.03416,-0.05368,-0.04636,-0.03904,0.0122,0.01952,0,0.00976,-0.02928,-0.0244,-0.0244
-0.0244,0.03172,-0.03904,-0.02684,-0.01464,-0.00488,0.01464,-0.00488,-0.00488,-0.03904,-0.03416,-0.02928
-0.02928,0.03172,-0.03416,-0.01952,-0.00488,-0.0122,0.00488,-0.01464,-0.00488,-0.05368,-0.04392,-0.03904
-0.02928,0.0366,-0.04392,-0.02928,-0.01464,-0.00732,0.00976,-0.01464,0,-0.06344,-0.04392,-0.03904
-0.02928,0.03904,-0.0488,-0.03416,-0.01952,-0.00488,0.00976,-0.01464,-0.01464,-0.06832,-0.05856,-0.05368
-0.03416,0.03904,-0.04392,-0.02684,-0.00976,-0.0122,0.00976,-0.0244,-0.01952,-0.0732,-0.06344,-0.05856
-0.0244,0.0366,-0.0488,-0.0366,-0.0244,0,0.00488,-0.0244,-0.01952,-0.0732,-0.05368,-0.05368
-0.0244,0.03416,-0.04392,-0.03172,-0.01952,-0.00244,0.00488,-0.0244,-0.0244,-0.07808,-0.05856,-0.05368
-0.01464,0.04148,-0.06832,-0.061,-0.05368,0.01952,0.01464,-0.0244,-0.0244,-0.06832,-0.0488,-0.0488
-0.01952,0.03904,-0.05856,-0.0488,-0.03904,0.00976,0.01464,-0.0244,-0.03416,-0.0732,-0.0488,-0.03904
-0.01464,0.03172,-0.0488,-0.04148,-0.03416,0.00976,0.00488,-0.0244,-0.03416,-0.08296,-0.05856,-0.04392
-0.02928,0.04148,-0.05368,-0.03904,-0.0244,-0.00244,0.00488,-0.0244,-0.03904,-0.09272,-0.06344,-0.04392
-0.02928,0.04392,-0.05856,-0.04392,-0.02928,0,0.00488,-0.02928,-0.03416,-0.08296,-0.06344,-0.0488
-0.02928,0.04392,-0.05856,-0.04392,-0.02928,0,0.00976,-0.02928,-0.03416,-0.08296,-0.06344,-0.0488
-0.02928,0.0488,-0.06832,-0.05368,-0.03904,0.00488,0.00488,-0.02928,-0.03416,-0.07808,-0.05856,-0.05368
-0.02928,0.05124,-0.0732,-0.05856,-0.04392,0.00732,0.00976,-0.02928,-0.02928,-0.07808,-0.06344,-0.05368
-0.03904,0.0488,-0.05856,-0.03904,-0.01952,-0.00976,-0.00488,-0.01952,-0.03416,-0.09272,-0.06344,-0.05368
-0.03904,0.05124,-0.06344,-0.04392,-0.0244,-0.00732,-0.00488,-0.01952,-0.03416,-0.08784,-0.06344,-0.05368
-0.02928,0.05124,-0.0732,-0.05856,-0.04392,0.00732,0.00488,-0.02928,-0.0244,-0.08296,-0.05368,-0.0488
-0.02928,0.0488,-0.06832,-0.05368,-0.03904,0.00488,0.00488,-0.02928,-0.02928,-0.08296,-0.05368,-0.04392
-0.01952,0.04148,-0.06344,-0.05368,-0.04392,0.0122,-0.00488,-0.02928,-0.03416,-0.0976,-0.06344,-0.05368
-0.01952,0.03416,-0.0488,-0.03904,-0.02928,0.00488,-0.00976,-0.03416,-0.03904,-0.09272,-0.06344,-0.05368
-0.02928,0.04148,-0.05368,-0.03904,-0.0244,-0.00244,0,-0.02928,-0.03416,-0.08784,-0.06344,-0.05368
-0.02928,0.0488,-0.06832,-0.05368,-0.03904,0.00488,0,-0.0244,-0.03416,-0.08784,-0.05856,-0.0488
-0.01464,0.04148,-0.06832,-0.061,-0.05368,0.01952,0.01464,-0.01464,-0.02928,-0.07808,-0.04392,-0.03416
-0.01952,0.04148,-0.06344,-0.05368,-0.04392,0.0122,0.01464,-0.01464,-0.02928,-0.07808,-0.04392,-0.03416
-0.02928,0.03904,-0.0488,-0.03416,-0.01952,-0.00488,0,-0.0244,-0.03416,-0.08784,-0.05368,-0.03904
-0.02928,0.03904,-0.0488,-0.03416,-0.01952,-0.00488,0,-0.01952,-0.03416,-0.08784,-0.05856,-0.03904
-0.02928,0.04392,-0.05856,-0.04392,-0.02928,0,0.00488,-0.0244,-0.02928,-0.07808,-0.05856,-0.0488
-0.0244,0.04148,-0.05856,-0.04636,-0.03416,0.00488,0.00488,-0.01952,-0.02928,-0.07808,-0.05368,-0.0488
-0.0244,0.04148,-0.05856,-0.04636,-0.03416,0.00488,0.00488,-0.01952,-0.0244,-0.0732,-0.05856,-0.03904
-0.0244,0.0366,-0.0488,-0.0366,-0.0244,0,0,-0.01952,-0.02928,-0.0732,-0.05856,-0.03904
-0.01952,0.02928,-0.03904,-0.02928,-0.01952,0,0.00488,-0.01952,-0.03904,-0.07808,-0.05368,-0.04392
-0.01952,0.03172,-0.04392,-0.03416,-0.0244,0.00244,0.00488,-0.00976,-0.02928,-0.08296,-0.0488,-0.04392
-0.0244,0.02928,-0.03416,-0.02196,-0.00976,-0.00732,0,-0.01952,-0.02928,-0.08296,-0.05856,-0.04392
-0.0244,0.03172,-0.03904,-0.02684,-0.01464,-0.00488,-0.00488,-0.01952,-0.02928,-0.08296,-0.05856,-0.0488
-0.0244,0.03172,-0.03904,-0.02684,-0.01464,-0.00488,-0.00488,-0.00976,-0.0244,-0.08296,-0.05368,-0.04392
-0.0244,0.03172,-0.03904,-0.02684,-0.01464,-0.00488,-0.00488,-0.00976,-0.0244,-0.08296,-0.05368,-0.04392
-0.01464,0.02928,-0.04392,-0.0366,-0.02928,0.00732,0.00488,-0.00976,-0.01952,-0.06832,-0.03904,-0.03416
-0.01464,0.02196,-0.02928,-0.02196,-0.01464,0,0.00488,-0.00488,-0.01952,-0.0732,-0.04392,-0.03416
-0.01464,0.03416,-0.05368,-0.04636,-0.03904,0.0122,0.00488,-0.01464,-0.01952,-0.07808,-0.05368,-0.04392
-0.0244,0.0366,-0.0488,-0.0366,-0.0244,0,0.00488,-0.01952,-0.01952,-0.07808,-0.05368,-0.04392
-0.0244,0.04148,-0.05856,-0.04636,-0.03416,0.00488,0.00488,-0.01464,-0.01952,-0.07808,-0.06344,-0.04392
-0.0244,0.03904,-0.05368,-0.04148,-0.02928,0.00244,0.00488,-0.01464,-0.01952,-0.08296,-0.06344,-0.04392
-0.01464,0.02684,-0.03904,-0.03172,-0.0244,0.00488,0.00488,-0.00488,-0.01952,-0.0732,-0.05368,-0.03416
-0.00976,0.02684,-0.04392,-0.03904,-0.03416,0.0122,0.00976,-0.00488,-0.01952,-0.06832,-0.0488,-0.03416
-0.01952,0.02928,-0.03904,-0.02928,-0.01952,0,0,-0.01464,-0.0244,-0.07808,-0.0488,-0.04392
-0.0244,0.03416,-0.04392,-0.03172,-0.01952,-0.00244,0,-0.01464,-0.03904,-0.08296,-0.05856,-0.0488
-0.02928,0.04636,-0.06344,-0.0488,-0.03416,0.00244,0.00488,-0.00488,-0.01952,-0.08296,-0.04392,-0.03904
-0.01952,0.04148,-0.06344,-0.05368,-0.04392,0.0122,0.01464,-0.00976,-0.0244,-0.08296,-0.04392,-0.03904
-0.01952,0.03416,-0.0488,-0.03904,-0.02928,0.00488,0.00976,-0.01464,-0.0244,-0.07808,-0.05368,-0.0488
-0.00976,0.02684,-0.04392,-0.03904,-0.03416,0.0122,0.00488,-0.00976,-0.01952,-0.07808,-0.05368,-0.04392
-0.00976,0.02684,-0.04392,-0.03904,-0.03416,0.0122,-0.00488,-0.01464,-0.03416,-0.08784,-0.06832,-0.05856
-0.01464,0.02928,-0.04392,-0.0366,-0.02928,0.00732,-0.00488,-0.01464,-0.03416,-0.08784,-0.06832,-0.06344
-0.03904,0.04392,-0.0488,-0.02928,-0.00976,-0.01464,0.00488,-0.01952,-0.03904,-0.09272,-0.06832,-0.06344
-0.03904,0.05124,-0.06344,-0.04392,-0.0244,-0.00732,0.00488,-0.01952,-0.03904,-0.08784,-0.0732,-0.06344
-0.0244,0.03416,-0.04392,-0.03172,-0.01952,-0.00244,0,-0.02928,-0.05368,-0.10248,-0.07808,-0.06344
-0.0244,0.0366,-0.0488,-0.0366,-0.0244,0,-0.00976,-0.02928,-0.05368,-0.10248,-0.0732,-0.06344
-0.01464,0.02196,-0.02928,-0.02196,-0.01464,0,-0.01464,-0.0244,-0.0488,-0.10248,-0.06832,-0.05368
-0.01464,0.02684,-0.03904,-0.03172,-0.0244,0.00488,0,-0.01952,-0.03904,-0.09272,-0.05856,-0.05368
-0.01464,0.03172,-0.0488,-0.04148,-0.03416,0.00976,-0.00488,-0.01952,-0.0488,-0.09272,-0.06344,-0.05368
-0.01952,0.0366,-0.05368,-0.04392,-0.03416,0.00732,-0.00488,-0.01952,-0.0488,-0.0976,-0.06344,-0.05368
-0.02928,0.04148,-0.05368,-0.03904,-0.0244,-0.00244,-0.00488,-0.02928,-0.04392,-0.10248,-0.0732,-0.05856
-0.0244,0.03904,-0.05368,-0.04148,-0.02928,0.00244,-0.00488,-0.02928,-0.04392,-0.10248,-0.07808,-0.05856
-0.02928,0.04148,-0.05368,-0.03904,-0.0244,-0.00244,-0.00976,-0.03416,-0.05856,-0.10736,-0.07808,-0.06832
-0.03904,0.05612,-0.0732,-0.05368,-0.03416,-0.00244,-0.00976,-0.03416,-0.05368,-0.10248,-0.07808,-0.06344
-0.04392,0.05856,-0.0732,-0.05124,-0.02928,-0.00732,-0.00976,-0.02928,-0.05368,-0.10248,-0.06832,-0.06344
-0.03416,0.04392,-0.05368,-0.0366,-0.01952,-0.00732,-0.00976,-0.03416,-0.05856,-0.10736,-0.0732,-0.06344
-0.0244,0.03416,-0.04392,-0.03172,-0.01952,-0.00244,0.00488,-0.0244,-0.0488,-0.09272,-0.06344,-0.06344
-0.02928,0.03904,-0.0488,-0.03416,-0.01952,-0.00488,0.00488,-0.01952,-0.0488,-0.09272,-0.05856,-0.05856
-0.0244,0.0366,-0.0488,-0.0366,-0.0244,0,0.00488,-0.0244,-0.04392,-0.0976,-0.05856,-0.05856
-0.0244,0.04148,-0.05856,-0.04636,-0.03416,0.00488,0,-0.0244,-0.04392,-0.0976,-0.05856,-0.05856
-0.03416,0.05368,-0.0732,-0.05612,-0.03904,0.00244,-0.00976,-0.0244,-0.05856,-0.10736,-0.0732,-0.0732
-0.03904,0.05612,-0.0732,-0.05368,-0.03416,-0.00244,-0.00976,-0.0244,-0.05856,-0.10736,-0.08296,-0.06832
-0.02928,0.0488,-0.06832,-0.05368,-0.03904,0.00488,0.00488,-0.01952,-0.04392,-0.09272,-0.08784,-0.05856
-0.02928,0.0488,-0.06832,-0.05368,-0.03904,0.00488,0.00488,-0.0244,-0.0488,-0.0976,-0.07808,-0.06344
-0.0244,0.04636,-0.06832,-0.05612,-0.04392,0.00976,-0.00488,-0.01952,-0.0488,-0.10736,-0.0732,-0.05368
-0.01952,0.03904,-0.05856,-0.0488,-0.03904,0.00976,-0.00976,-0.01952,-0.04392,-0.10736,-0.0732,-0.05368
-0.0244,0.04636,-0.06832,-0.05612,-0.04392,0.00976,0,-0.01952,-0.04392,-0.0976,-0.06832,-0.06344
-0.0244,0.05368,-0.08296,-0.07076,-0.05856,0.01708,0.00488,-0.01952,-0.04392,-0.09272,-0.06832,-0.05856
-0.02928,0.0488,-0.06832,-0.05368,-0.03904,0.00488,-0.00488,-0.02928,-0.05368,-0.10736,-0.07808,-0.06832
-0.02928,0.03904,-0.0488,-0.03416,-0.01952,-0.00488,-0.00976,-0.03416,-0.05856,-0.10736,-0.08296,-0.06832
-0.02928,0.03904,-0.0488,-0.03416,-0.01952,-0.00488,-0.00488,-0.0244,-0.04392,-0.10736,-0.08296,-0.06832
-0.02928,0.04392,-0.05856,-0.04392,-0.02928,0,-0.00976,-0.0244,-0.04392,-0.10736,-0.08296,-0.0732
-0.03904,0.061,-0.08296,-0.06344,-0.04392,0.00244,0.00488,-0.00488,-0.03416,-0.10248,-0.0732,-0.06832
-0.03904,0.061,-0.08296,-0.06344,-0.04392,0.00244,0.00488,-0.01464,-0.03904,-0.09272,-0.0732,-0.05856
-0.03416,0.05124,-0.06832,-0.05124,-0.03416,0,0,-0.01952,-0.0488,-0.09272,-0.0732,-0.06344
-0.0244,0.0366,-0.0488,-0.0366,-0.0244,0,-0.00976,-0.02928,-0.05856,-0.10248,-0.07808,-0.06344
-0.02928,0.03904,-0.0488,-0.03416,-0.01952,-0.00488,-0.00488,-0.03416,-0.05856,-0.10736,-0.07808,-0.0732
-0.02928,0.03904,-0.0488,-0.03416,-0.01952,-0.00488,-0.00976,-0.03416,-0.05856,-0.10736,-0.07808,-0.06832
-0.02928,0.03904,-0.0488,-0.03416,-0.01952,-0.00488,-0.00488,-0.02928,-0.05856,-0.10736,-0.07808,-0.06344
-0.03416,0.05368,-0.0732,-0.05612,-0.03904,0.00244,-0.00488,-0.0244,-0.05368,-0.10736,-0.07808,-0.06344
-0.02928,0.05124,-0.0732,-0.05856,-0.04392,0.00732,-0.00488,-0.0244,-0.05368,-0.10736,-0.08784,-0.06344
-0.0244,0.03904,-0.05368,-0.04148,-0.02928,0.00244,-0.00488,-0.0244,-0.05368,-0.10736,-0.08784,-0.06344
-0.02928,0.05856,-0.08784,-0.0732,-0.05856,0.01464,0.00976,-0.00976,-0.03904,-0.10248,-0.0732,-0.06344
-0.03416,0.05856,-0.08296,-0.06588,-0.0488,0.00732,0.00488,-0.00976,-0.03904,-0.0976,-0.0732,-0.06344
-0.03904,0.05612,-0.0732,-0.05368,-0.03416,-0.00244,0,-0.01464,-0.04392,-0.0976,-0.08296,-0.06344
-0.03416,0.0488,-0.06344,-0.04636,-0.02928,-0.00244,0.00488,-0.0244,-0.05368,-0.10736,-0.08784,-0.06344
-0.01464,0.02684,-0.03904,-0.03172,-0.0244,0.00488,0,-0.02928,-0.05368,-0.11224,-0.08296,-0.06832
-0.02928,0.05856,-0.08784,-0.0732,-0.05856,0.01464,0.00488,-0.01952,-0.0488,-0.10736,-0.07808,-0.06832
-0.02928,0.05856,-0.08784,-0.0732,-0.05856,0.01464,-0.00488,-0.01952,-0.0488,-0.10736,-0.07808,-0.06832
-0.02928,0.05124,-0.0732,-0.05856,-0.04392,0.00732,0,-0.01952,-0.0488,-0.0976,-0.06832,-0.06832
-0.02928,0.04636,-0.06344,-0.0488,-0.03416,0.00244,0,-0.01952,-0.0488,-0.0976,-0.06832,-0.06832
-0.01952,0.04392,-0.06832,-0.05856,-0.0488,0.01464,-0.00976,-0.01952,-0.0488,-0.0976,-0.06832,-0.05856
-0.01952,0.04392,-0.06832,-0.05856,-0.0488,0.01464,-0.00976,-0.01952,-0.0488,-0.0976,-0.06832,-0.05856
-0.01952,0.0488,-0.07808,-0.06832,-0.05856,0.01952,0,-0.01952,-0.03904,-0.0976,-0.07808,-0.05856
-0.01952,0.0488,-0.07808,-0.06832,-0.05856,0.01952,0,-0.01952,-0.03904,-0.0976,-0.07808,-0.05856
-0.01952,0.04392,-0.06832,-0.05856,-0.0488,0.01464,0,-0.02928,-0.0488,-0.10736,-0.07808,-0.05856
-0.01952,0.04392,-0.06832,-0.05856,-0.0488,0.01464,0,-0.02928,-0.0488,-0.10736,-0.07808,-0.05856
-0.01952,0.04392,-0.06832,-0.05856,-0.0488,0.01464,0,-0.01952,-0.03904,-0.10736,-0.07808,-0.06832
-0.01952,0.04392,-0.06832,-0.05856,-0.0488,0.01464,0,-0.01952,-0.03904,-0.10736,-0.07808,-0.06832
-0.02928,0.0488,-0.06832,-0.05368,-0.03904,0.00488,-0.00976,-0.01952,-0.0488,-0.10736,-0.07808,-0.06832
-0.02928,0.0488,-0.06832,-0.05368,-0.03904,0.00488,-0.00976,-0.01952,-0.0488,-0.10736,-0.07808,-0.06832
-0.02928,0.05612,-0.08296,-0.06832,-0.05368,0.0122,0,-0.01952,-0.0488,-0.0976,-0.07808,-0.05856
-0.02928,0.061,-0.09272,-0.07808,-0.06344,0.01708,0,-0.01952,-0.0488,-0.0976,-0.07808,-0.05856
-0.02928,0.05856,-0.08784,-0.0732,-0.05856,0.01464,-0.00976,-0.02928,-0.0488,-0.10248,-0.08784,-0.06832
-0.02928,0.0488,-0.06832,-0.05368,-0.03904,0.00488,-0.00976,-0.02928,-0.0488,-0.11224,-0.08784,-0.06832
-0.02928,0.0488,-0.06832,-0.05368,-0.03904,0.00488,-0.00976,-0.01952,-0.0488,-0.10736,-0.08784,-0.06832
-0.02928,0.0488,-0.06832,-0.05368,-0.03904,0.00488,-0.00976,-0.01952,-0.0488,-0.10736,-0.08784,-0.06832
-0.02928,0.0488,-0.06832,-0.05368,-0.03904,0.00488,0,-0.01952,-0.0488,-0.10736,-0.08784,-0.07808
-0.02928,0.0488,-0.06832,-0.05368,-0.03904,0.00488,0,-0.01952,-0.0488,-0.10736,-0.08784,-0.07808
-0.02928,0.05368,-0.07808,-0.06344,-0.0488,0.00976,0,-0.01952,-0.0488,-0.10736,-0.07808,-0.06832
-0.02928,0.05368,-0.07808,-0.06344,-0.0488,0.00976,0,-0.01952,-0.0488,-0.10736,-0.07808,-0.06832
-0.02928,0.05612,-0.08296,-0.06832,-0.05368,0.0122,0,-0.01952,-0.03904,-0.0976,-0.07808,-0.05856
-0.02928,0.061,-0.09272,-0.07808,-0.06344,0.01708,0,-0.01952,-0.03904,-0.0976,-0.07808,-0.05856
-0.02928,0.061,-0.09272,-0.07808,-0.06344,0.01708,0,-0.02928,-0.0488,-0.11224,-0.09272,-0.06832
-0.02928,0.05368,-0.07808,-0.06344,-0.0488,0.00976,0,-0.02928,-0.05368,-0.11224,-0.08784,-0.06832
-0.02928,0.05856,-0.08784,-0.0732,-0.05856,0.01464,0.00976,-0.01952,-0.04392,-0.11224,-0.07808,-0.06832
-0.02928,0.05856,-0.08784,-0.0732,-0.05856,0.01464,0.00488,-0.01952,-0.03904,-0.11224,-0.08296,-0.06832
-0.02928,0.05368,-0.07808,-0.06344,-0.0488,0.00976,-0.00488,-0.01952,-0.04392,-0.11224,-0.08296,-0.06832
-0.02928,0.05368,-0.07808,-0.06344,-0.0488,0.00976,0,-0.01952,-0.04392,-0.11224,-0.08296,-0.06832
-0.02928,0.04636,-0.06344,-0.0488,-0.03416,0.00244,-0.00976,-0.02928,-0.04392,-0.11224,-0.09272,-0.07808
-0.02928,0.0488,-0.06832,-0.05368,-0.03904,0.00488,-0.00976,-0.01952,-0.03904,-0.10248,-0.08784,-0.0732
-0.0244,0.0488,-0.0732,-0.061,-0.0488,0.0122,-0.00488,-0.01464,-0.03904,-0.09272,-0.08296,-0.06344
-0.01952,0.04148,-0.06344,-0.05368,-0.04392,0.0122,0.00488,-0.01464,-0.03416,-0.0976,-0.0732,-0.06344
-0.02928,0.03172,-0.03416,-0.01952,-0.00488,-0.0122,0,-0.01952,-0.02928,-0.0976,-0.06832,-0.0732
-0.0244,0.03172,-0.03904,-0.02684,-0.01464,-0.00488,0.00488,-0.01464,-0.03904,-0.08784,-0.06832,-0.06344
-0.01464,0.0244,-0.03416,-0.02684,-0.01952,0.00244,0.01952,-0.00976,-0.02928,-0.08296,-0.06344,-0.05368
-0.01952,0.03416,-0.0488,-0.03904,-0.02928,0.00488,0.01952,-0.00976,-0.02928,-0.09272,-0.05856,-0.05368
-0.00976,0.02684,-0.04392,-0.03904,-0.03416,0.0122,0.00976,-0.00488,-0.01952,-0.08296,-0.05856,-0.04392
0,0.01708,-0.03416,-0.03416,-0.03416,0.01708,0.01464,-0.00488,-0.01952,-0.08296,-0.06344,-0.04392
0.00976,-0.00488,0,-0.00488,-0.00976,0.00976,0.00488,0.00488,-0.01952,-0.08296,-0.06832,-0.04392
0.00488,-0.01708,0.02928,0.02684,0.0244,-0.00976,-0.00488,-0.01464,-0.01952,-0.0732,-0.05368,-0.03904
0.00976,-0.02196,0.03416,0.02928,0.0244,-0.00732,-0.01952,-0.02928,-0.01952,-0.0732,-0.0488,-0.02928
0.01952,-0.01952,0.01952,0.00976,0,0.00976,-0.0244,-0.02928,-0.0244,-0.0732,-0.04392,-0.02928
0.01464,0.00732,-0.02928,-0.0366,-0.04392,0.02928,-0.03416,-0.02928,-0.03904,-0.08784,-0.0488,-0.0488
0.01464,0.01708,-0.0488,-0.05612,-0.06344,0.03904,-0.03904,-0.02928,-0.03904,-0.0976,-0.05856,-0.03904
0.0244,0.00976,-0.04392,-0.05612,-0.06832,0.04636,-0.0244,-0.01464,-0.02928,-0.09272,-0.05368,-0.04392
0.0244,-0.00244,-0.01952,-0.03172,-0.04392,0.03416,-0.0244,-0.01464,-0.0244,-0.09272,-0.05368,-0.0488
0.0244,0,-0.0244,-0.0366,-0.0488,0.0366,-0.01952,-0.0244,-0.02928,-0.08296,-0.05368,-0.02928
0.0244,0,-0.0244,-0.0366,-0.0488,0.0366,-0.01952,-0.0244,-0.03904,-0.07808,-0.0488,-0.02928
0.00488,0.01952,-0.04392,-0.04636,-0.0488,0.02684,-0.01464,-0.01952,-0.03416,-0.08784,-0.05856,-0.04392
-0.00488,0.04148,-0.07808,-0.07564,-0.0732,0.03416,-0.01464,-0.0244,-0.03904,-0.0976,-0.06832,-0.0488
-0.01464,0.05124,-0.08784,-0.08052,-0.0732,0.02928,-0.01464,-0.03416,-0.05856,-0.11712,-0.07808,-0.05856
-0.03416,0.061,-0.08784,-0.07076,-0.05368,0.00976,-0.00976,-0.03416,-0.06832,-0.122,-0.08784,-0.06832
-0.04392,0.06344,-0.08296,-0.061,-0.03904,-0.00244,-0.01464,-0.03416,-0.05856,-0.13176,-0.10736,-0.0976
-0.03416,0.061,-0.08784,-0.07076,-0.05368,0.00976,-0.00976,-0.02928,-0.05856,-0.13176,-0.10736,-0.09272
-0.03416,0.05856,-0.08296,-0.06588,-0.0488,0.00732,-0.00976,-0.03416,-0.06344,-0.13176,-0.10248,-0.08784
-0.03416,0.06832,-0.10248,-0.0854,-0.06832,0.01708,-0.00976,-0.03416,-0.06344,-0.13176,-0.10248,-0.08784
-0.03904,0.07564,-0.11224,-0.09272,-0.0732,0.01708,-0.00488,-0.0244,-0.05368,-0.13176,-0.10248,-0.07808
-0.0488,0.08784,-0.12688,-0.10248,-0.07808,0.01464,-0.00488,-0.02928,-0.05856,-0.14152,-0.10736,-0.07808
-0.05856,0.09516,-0.13176,-0.10248,-0.0732,0.00732,-0.00488,-0.01952,-0.06344,-0.14152,-0.0976,-0.09272
-0.0244,0.05612,-0.08784,-0.07564,-0.06344,0.01952,-0.00488,-0.02928,-0.05368,-0.12688,-0.0976,-0.07808
-0.04392,0.0854,-0.12688,-0.10492,-0.08296,0.01952,0.02928,0,-0.0244,-0.12688,-0.08784,-0.08784
-0.0488,0.0854,-0.122,-0.0976,-0.0732,0.0122,0.04392,0.01464,-0.01464,-0.12688,-0.11712,-0.11224
-0.05856,0.09272,-0.12688,-0.0976,-0.06832,0.00488,0.06344,0.05368,0.0244,-0.0976,-0.13176,-0.11224
-0.0488,0.0976,-0.1464,-0.122,-0.0976,0.0244,0.08784,0.08296,0.06344,-0.03416,-0.10248,-0.10248
-0.06344,0.05856,-0.05368,-0.02196,0.00976,-0.0366,0.05856,0.05856,0.04392,-0.01952,-0.11224,-0.11712
-0.0244,0,0.0244,0.0366,0.0488,-0.0366,0.0488,0.06832,0.08296,0.11224,-0.00488,-0.05368
0.02928,-0.0732,0.11712,0.10248,0.08784,-0.02928,0.06344,0.13176,0.20984,0.34648,0.11712,0.03904
0.09272,-0.14884,0.20496,0.1586,0.11224,-0.00976,0.03416,0.122,0.25376,0.6344,0.30744,0.15128
0.17568,-0.28548,0.39528,0.30744,0.2196,-0.02196,-0.09272,-0.0732,0.08296,0.91256,0.57584,0.34648
0.24888,-0.4026,0.55632,0.43188,0.30744,-0.02928,-0.24888,-0.30256,-0.18056,1.098,0.82472,0.52216
0.27328,-0.49776,0.72224,0.5856,0.44896,-0.08784,-0.40992,-0.52704,-0.3904,1.22976,1.01016,0.6832
0.28304,-0.54412,0.8052,0.66368,0.52216,-0.11956,-0.52704,-0.7076,-0.59048,1.04432,1.01504,0.72224
0.1952,-0.38796,0.58072,0.48312,0.38552,-0.09516,-0.47824,-0.74664,-0.73688,0.4636,0.69784,0.55144
0.0244,-0.2562,0.488,0.4758,0.4636,-0.2196,-0.47336,-0.98576,-1.11264,-0.244,0.30744,0.35136
-0.09272,-0.17568,0.44408,0.49044,0.5368,-0.31476,-0.50752,-1.11752,-1.34688,-0.67344,0,0.16592
-0.15128,-0.03172,0.21472,0.29036,0.366,-0.25864,-0.45872,-1.04432,-1.24928,-0.67832,-0.12688,0.0488
-0.16592,0.03172,0.10248,0.18544,0.2684,-0.21716,-0.38552,-0.88328,-1.0492,-0.62464,-0.20008,-0.05368
-0.16592,0.05856,0.0488,0.13176,0.21472,-0.19032,-0.35136,-0.72224,-0.84424,-0.54656,-0.21472,-0.09272
-0.14152,0.0732,-0.00488,0.06588,0.13664,-0.13908,-0.30744,-0.58072,-0.63928,-0.40504,-0.17568,-0.09272
-0.13664,0.0854,-0.03416,0.03416,0.10248,-0.11956,-0.27328,-0.44896,-0.47824,-0.27816,-0.14152,-0.08296
-0.11712,0.04636,0.0244,0.08296,0.14152,-0.12932,-0.18056,-0.32208,-0.35136,-0.20496,-0.13176,-0.0976
-0.05856,0.01464,0.02928,0.05856,0.08784,-0.0732,-0.08784,-0.17568,-0.20008,-0.14152,-0.06832,-0.06344
-0.01952,0,0.01952,0.02928,0.03904,-0.02928,-0.04392,-0.10248,-0.10248,-0.10248,-0.0488,-0.02928
-0.03416,0.03904,-0.04392,-0.02684,-0.00976,-0.0122,-0.02928,-0.06344,-0.06344,-0.07808,-0.05856,-0.02928
-0.01952,0.02928,-0.03904,-0.02928,-0.01952,0,-0.00488,-0.0244,-0.03904,-0.05368,-0.0488,-0.04392
-0.02928,0.01464,0,0.01464,0.02928,-0.02928,-0.00976,-0.02928,-0.02928,-0.08296,-0.06832,-0.08296
-0.02928,0.02196,-0.01464,0,0.01464,-0.02196,0.00976,-0.00976,-0.00488,-0.08296,-0.06832,-0.0732
-0.03416,0.0488,-0.06344,-0.04636,-0.02928,-0.00244,0.01464,-0.00488,0,-0.07808,-0.06832,-0.06344
-0.03416,0.03904,-0.04392,-0.02684,-0.00976,-0.0122,0,-0.01464,-0.00976,-0.0732,-0.07808,-0.06832
-0.02928,0.03172,-0.03416,-0.01952,-0.00488,-0.0122,0.00488,-0.00976,-0.00488,-0.0732,-0.0732,-0.06832
-0.03904,0.05124,-0.06344,-0.04392,-0.0244,-0.00732,0.01464,0.01952,0.0244,-0.05856,-0.05856,-0.05856
-0.03904,0.06588,-0.09272,-0.0732,-0.05368,0.00732,0.03416,0.03904,0.03904,-0.0488,-0.05856,-0.0488
-0.03416,0.0488,-0.06344,-0.04636,-0.02928,-0.00244,0.02928,0.0244,0.02928,-0.0488,-0.06832,-0.05856
-0.03416,0.04392,-0.05368,-0.0366,-0.01952,-0.00732,0.01952,0.01464,0.01952,-0.05368,-0.06344,-0.06344
-0.0244,0.03416,-0.04392,-0.03172,-0.01952,-0.00244,0.01952,0.01464,0.0244,-0.05368,-0.06344,-0.06344
-0.0244,0.03172,-0.03904,-0.02684,-0.01464,-0.00488,0.01952,0.01952,0.02928,-0.0488,-0.06832,-0.06344
-0.0244,0.0366,-0.0488,-0.0366,-0.0244,0,0.0244,0.02928,0.04392,-0.03904,-0.05368,-0.06344
-0.0244,0.04148,-0.05856,-0.04636,-0.03416,0.00488,0.0244,0.03416,0.0488,-0.03416,-0.0488,-0.06344
-0.01952,0.03904,-0.05856,-0.0488,-0.03904,0.00976,0.03416,0.03904,0.0488,-0.02928,-0.0488,-0.05368
-0.01952,0.03416,-0.0488,-0.03904,-0.02928,0.00488,0.03416,0.03904,0.05368,-0.0244,-0.0488,-0.0488
-0.0244,0.0366,-0.0488,-0.0366,-0.0244,0,0.03416,0.04392,0.06344,-0.0244,-0.05368,-0.05856
-0.01952,0.02928,-0.03904,-0.02928,-0.01952,0,0.03904,0.04392,0.06344,-0.01952,-0.0488,-0.05856
-0.02928,0.03904,-0.0488,-0.03416,-0.01952,-0.00488,0.03416,0.05368,0.0732,-0.00976,-0.04392,-0.0488
-0.02928,0.0366,-0.04392,-0.02928,-0.01464,-0.00732,0.02928,0.05368,0.0732,-0.00976,-0.04392,-0.05856
-0.02928,0.03172,-0.03416,-0.01952,-0.00488,-0.0122,0.03904,0.05368,0.0732,-0.00976,-0.03416,-0.05368
-0.0244,0.02684,-0.02928,-0.01708,-0.00488,-0.00976,0.03904,0.05856,0.08296,0,-0.0244,-0.0488
-0.0244,0.03172,-0.03904,-0.02684,-0.01464,-0.00488,0.0488,0.06344,0.08784,0.00976,-0.03416,-0.03416
-0.0244,0.03416,-0.04392,-0.03172,-0.01952,-0.00244,0.04392,0.0732,0.0976,0.01464,-0.03416,-0.03416
-0.00976,0.02196,-0.03416,-0.02928,-0.0244,0.00732,0.04392,0.07808,0.10736,0.0244,-0.01952,-0.02928
-0.00976,0.0122,-0.01464,-0.00976,-0.00488,-0.00244,0.04392,0.07808,0.11224,0.03416,-0.01464,-0.0244
-0.00488,0.00488,-0.00488,-0.00244,0,-0.00244,0.04392,0.09272,0.11712,0.03904,-0.01464,-0.03416
0,0,0,0,0,0,0.04392,0.09272,0.13176,0.05368,-0.00488,-0.0244
-0.00976,0.00976,-0.00976,-0.00488,0,-0.00488,0.05368,0.10736,0.14152,0.05368,0.00488,-0.01464
0,0.00488,-0.00976,-0.00976,-0.00976,0.00488,0.05368,0.11224,0.15128,0.06344,0.00976,-0.00976
0.00976,-0.00976,0.00976,0.00488,0,0.00488,0.0488,0.122,0.16104,0.08784,0.01952,0
0.01464,-0.02684,0.03904,0.03172,0.0244,-0.00488,0.05368,0.12688,0.17568,0.10248,0.0244,0
0.01952,-0.02928,0.03904,0.02928,0.01952,0,0.05368,0.13664,0.20008,0.10736,0.04392,0.00488
0.01952,-0.0244,0.02928,0.01952,0.00976,0.00488,0.05856,0.1464,0.22448,0.12688,0.05856,0.01952
0.02928,-0.04148,0.05368,0.03904,0.0244,0.00244,0.06832,0.1708,0.23424,0.15128,0.06832,0.02928
0.03904,-0.05124,0.06344,0.04392,0.0244,0.00732,0.06832,0.18056,0.26352,0.17568,0.07808,0.03416
0.03904,-0.04636,0.05368,0.03416,0.01464,0.0122,0.06832,0.19032,0.27328,0.1952,0.0976,0.03904
0.0488,-0.05856,0.06832,0.04392,0.01952,0.01464,0.06832,0.20008,0.2928,0.2196,0.11224,0.0488
0.0488,-0.06344,0.07808,0.05368,0.02928,0.00976,0.06344,0.2196,0.33672,0.25376,0.13664,0.06344
0.05856,-0.08052,0.10248,0.0732,0.04392,0.00732,0.05856,0.244,0.36112,0.29768,0.15128,0.0732
0.0732,-0.1098,0.1464,0.1098,0.0732,0,0.05856,0.244,0.38064,0.32208,0.1708,0.08784
0.0732,-0.11712,0.16104,0.12444,0.08784,-0.00732,0.05856,0.2684,0.40504,0.35136,0.20008,0.0976
0.08784,-0.122,0.15616,0.11224,0.06832,0.00976,0.05856,0.28304,0.42944,0.3904,0.2196,0.11224
0.10248,-0.14884,0.1952,0.14396,0.09272,0.00488,0.05368,0.2928,0.4392,0.41968,0.23912,0.12688
0.11224,-0.1586,0.20496,0.14884,0.09272,0.00976,0.05368,0.2928,0.45872,0.45384,0.2684,0.1464
0.11712,-0.16836,0.2196,0.16104,0.10248,0.00732,0.0488,0.30744,0.48312,0.488,0.2928,0.16104
0.122,-0.17568,0.22936,0.16836,0.10736,0.00732,0.0488,0.32208,0.50752,0.53192,0.3172,0.16592
0.11712,-0.18056,0.244,0.18544,0.12688,-0.00488,0.03904,0.32696,0.51728,0.5612,0.3416,0.18544
0.13664,-0.20496,0.27328,0.20496,0.13664,0,0.04392,0.33672,0.5368,0.59048,0.366,0.20984
0.1464,-0.22448,0.30256,0.22936,0.15616,-0.00488,0.03416,0.33184,0.54168,0.61976,0.38552,0.22448
0.15616,-0.2318,0.30744,0.22936,0.15128,0.00244,0.03416,0.33184,0.53192,0.64416,0.40016,0.22936
0.1708,-0.25132,0.33184,0.24644,0.16104,0.00488,0.0244,0.32208,0.53192,0.64904,0.40504,0.23424
0.1708,-0.25132,0.33184,0.24644,0.16104,0.00488,0.01952,0.30744,0.53192,0.66856,0.41968,0.25376
0.17568,-0.25376,0.33184,0.244,0.15616,0.00976,0.01952,0.2928,0.51728,0.67344,0.42944,0.25376
0.16104,-0.24888,0.33672,0.2562,0.17568,-0.00732,0.00488,0.2684,0.488,0.65392,0.42456,0.25376
0.15616,-0.24644,0.33672,0.25864,0.18056,-0.0122,0.00488,0.24888,0.46848,0.62464,0.39528,0.22936
0.13664,-0.22448,0.31232,0.244,0.17568,-0.01952,0,0.22936,0.42456,0.58072,0.366,0.22448
0.11712,-0.20008,0.28304,0.22448,0.16592,-0.0244,-0.00488,0.20984,0.38064,0.52704,0.33184,0.20496
0.11712,-0.18544,0.25376,0.1952,0.13664,-0.00976,0,0.18056,0.34648,0.4636,0.2928,0.18056
0.09272,-0.15128,0.20984,0.16348,0.11712,-0.0122,0.00976,0.16592,0.30744,0.40992,0.25864,0.15616
0.07808,-0.122,0.16592,0.12688,0.08784,-0.00488,0.00976,0.13176,0.27328,0.35136,0.21472,0.12688
0.05856,-0.10248,0.1464,0.11712,0.08784,-0.01464,0.01464,0.10736,0.22448,0.28304,0.16592,0.09272
0.06344,-0.09272,0.122,0.09028,0.05856,0.00244,0.00976,0.08784,0.17568,0.22936,0.13664,0.0732
0.04392,-0.07076,0.0976,0.07564,0.05368,-0.00488,0.00976,0.06344,0.14152,0.1708,0.09272,0.03904
0.0244,-0.04392,0.06344,0.05124,0.03904,-0.00732,0.01464,0.04392,0.12688,0.12688,0.0732,0.04392
0.00976,-0.02684,0.04392,0.03904,0.03416,-0.0122,0.01952,0.03416,0.0976,0.08296,0.03416,0.02928
0.00976,-0.00976,0.00976,0.00488,0,0.00488,0.01952,0.02928,0.06832,0.0488,0.01952,0.00488
0.00488,-0.00244,0,-0.00244,-0.00488,0.00488,0.01464,0.01952,0.03904,0.0244,0.00488,-0.00976
0,0.00244,-0.00488,-0.00488,-0.00488,0.00244,0.01464,-0.00488,0.03416,0,-0.01952,-0.01952
0,0.00244,-0.00488,-0.00488,-0.00488,0.00244,0.00976,-0.00976,0.01464,-0.01952,-0.03904,-0.02928
-0.00976,0.01952,-0.02928,-0.0244,-0.01952,0.00488,0.00976,-0.0244,0.00488,-0.0488,-0.03904,-0.03416
-0.01464,0.01464,-0.01464,-0.00732,0,-0.00732,0.00488,-0.03416,-0.00488,-0.05368,-0.0488,-0.03904
-0.01952,0.02928,-0.03904,-0.02928,-0.01952,0,0.00488,-0.0244,-0.00976,-0.05856,-0.05368,-0.03904
-0.01952,0.03904,-0.05856,-0.0488,-0.03904,0.00976,0.00976,-0.0244,-0.01952,-0.06344,-0.05368,-0.03904
-0.01464,0.03416,-0.05368,-0.04636,-0.03904,0.0122,0.00976,-0.0244,-0.01464,-0.06344,-0.0488,-0.03416
-0.01464,0.0366,-0.05856,-0.05124,-0.04392,0.01464,0.00976,-0.0244,-0.01952,-0.06344,-0.05368,-0.03904
-0.0244,0.04392,-0.06344,-0.05124,-0.03904,0.00732,0.00488,-0.03416,-0.01952,-0.06832,-0.0488,-0.04392
-0.0244,0.05124,-0.07808,-0.06588,-0.05368,0.01464,0.00488,-0.03416,-0.0244,-0.06832,-0.0488,-0.04392
-0.02928,0.04392,-0.05856,-0.04392,-0.02928,0,-0.00488,-0.04392,-0.03416,-0.07808,-0.05856,-0.05368
-0.02928,0.04392,-0.05856,-0.04392,-0.02928,0,-0.00488,-0.04392,-0.03416,-0.09272,-0.06832,-0.05368
-0.02928,0.03416,-0.03904,-0.0244,-0.00976,-0.00976,-0.00488,-0.04392,-0.04392,-0.08784,-0.07808,-0.06344
-0.03904,0.03172,-0.0244,-0.00488,0.01464,-0.02684,-0.00488,-0.04392,-0.0488,-0.09272,-0.08296,-0.06832
-0.02928,0.03416,-0.03904,-0.0244,-0.00976,-0.00976,0,-0.0488,-0.04392,-0.09272,-0.0732,-0.05856
-0.01952,0.0366,-0.05368,-0.04392,-0.03416,0.00732,-0.00488,-0.0488,-0.04392,-0.08784,-0.06832,-0.0488
-0.01952,0.0366,-0.05368,-0.04392,-0.03416,0.00732,0,-0.0488,-0.03904,-0.08784,-0.0732,-0.04392
-0.01952,0.03416,-0.0488,-0.03904,-0.02928,0.00488,-0.00488,-0.0488,-0.04392,-0.09272,-0.0732,-0.04392
-0.02928,0.03904,-0.0488,-0.03416,-0.01952,-0.00488,0.00488,-0.03904,-0.03416,-0.09272,-0.05368,-0.04392
-0.02928,0.05124,-0.0732,-0.05856,-0.04392,0.00732,0.00488,-0.03904,-0.03416,-0.08784,-0.06344,-0.0488
-0.01952,0.03416,-0.0488,-0.03904,-0.02928,0.00488,-0.00488,-0.0488,-0.03904,-0.09272,-0.0732,-0.0488
-0.01952,0.03416,-0.0488,-0.03904,-0.02928,0.00488,-0.00488,-0.0488,-0.03904,-0.09272,-0.0732,-0.04392
-0.02928,0.04148,-0.05368,-0.03904,-0.0244,-0.00244,0,-0.04392,-0.03416,-0.08784,-0.06344,-0.04392
-0.02928,0.04392,-0.05856,-0.04392,-0.02928,0,0.00976,-0.04392,-0.03416,-0.07808,-0.06344,-0.04392
-0.01952,0.03416,-0.0488,-0.03904,-0.02928,0.00488,0,-0.04392,-0.03416,-0.08784,-0.0732,-0.05368
-0.01464,0.03416,-0.05368,-0.04636,-0.03904,0.0122,-0.00488,-0.04392,-0.03416,-0.08784,-0.06832,-0.0488
-0.0244,0.04636,-0.06832,-0.05612,-0.04392,0.00976,0.00488,-0.03416,-0.03904,-0.08784,-0.06344,-0.03416
-0.02928,0.04636,-0.06344,-0.0488,-0.03416,0.00244,0,-0.03416,-0.04392,-0.08784,-0.06344,-0.03904
-0.01952,0.02928,-0.03904,-0.02928,-0.01952,0,-0.00976,-0.03904,-0.04392,-0.0976,-0.06344,-0.0488
-0.01952,0.01952,-0.01952,-0.00976,0,-0.00976,-0.00976,-0.04392,-0.03904,-0.0976,-0.06832,-0.0488
-0.0244,0.03172,-0.03904,-0.02684,-0.01464,-0.00488,0.00488,-0.03416,-0.02928,-0.08784,-0.05368,-0.03904
-0.0244,0.0366,-0.0488,-0.0366,-0.0244,0,0.00488,-0.02928,-0.0244,-0.07808,-0.05368,-0.03904
-0.0244,0.02928,-0.03416,-0.02196,-0.00976,-0.00732,-0.00976,-0.03904,-0.03904,-0.08296,-0.05856,-0.0488
-0.01952,0.0244,-0.02928,-0.01952,-0.00976,-0.00488,-0.00488,-0.03904,-0.03904,-0.08296,-0.05856,-0.04392
-0.01952,0.02928,-0.03904,-0.02928,-0.01952,0,0.00488,-0.02928,-0.0244,-0.06832,-0.05368,-0.03416
-0.01952,0.0366,-0.05368,-0.04392,-0.03416,0.00732,0.00976,-0.02928,-0.01952,-0.0732,-0.0488,-0.03416
-0.01464,0.03172,-0.0488,-0.04148,-0.03416,0.00976,-0.00488,-0.02928,-0.02928,-0.08296,-0.05856,-0.03904
-0.01464,0.0244,-0.03416,-0.02684,-0.01952,0.00244,-0.00488,-0.02928,-0.03904,-0.08296,-0.06344,-0.03416
-0.0244,0.03172,-0.03904,-0.02684,-0.01464,-0.00488,0.00488,-0.02928,-0.03416,-0.0732,-0.05368,-0.03416
-0.0244,0.03416,-0.04392,-0.03172,-0.01952,-0.00244,0.00488,-0.02928,-0.0244,-0.06832,-0.0488,-0.03416
-0.01464,0.03172,-0.0488,-0.04148,-0.03416,0.00976,0.00488,-0.01952,-0.01952,-0.0732,-0.04392,-0.03416
-0.01464,0.02684,-0.03904,-0.03172,-0.0244,0.00488,0.00488,-0.01464,-0.01952,-0.06832,-0.04392,-0.03416
-0.00976,0.01952,-0.02928,-0.0244,-0.01952,0.00488,-0.00488,-0.02928,-0.02928,-0.07808,-0.05368,-0.04392
-0.00976,0.00488,0,0.00488,0.00976,-0.00976,-0.00488,-0.0244,-0.02928,-0.07808,-0.06344,-0.04392
-0.0244,0.03172,-0.03904,-0.02684,-0.01464,-0.00488,0.00488,-0.01464,-0.02928,-0.07808,-0.06344,-0.04392
-0.0244,0.0366,-0.0488,-0.0366,-0.0244,0,0.00488,-0.01464,-0.02928,-0.08296,-0.06344,-0.04392
-0.0244,0.03172,-0.03904,-0.02684,-0.01464,-0.00488,-0.00488,-0.0244,-0.02928,-0.08296,-0.05856,-0.05368
-0.01952,0.02684,-0.03416,-0.0244,-0.01464,-0.00244,0,-0.0244,-0.0244,-0.07808,-0.05856,-0.04392
-0.00976,0.01952,-0.02928,-0.0244,-0.01952,0.00488,0,-0.0244,-0.02928,-0.0732,-0.05368,-0.03904
-0.01952,0.02684,-0.03416,-0.0244,-0.01464,-0.00244,0,-0.0244,-0.02928,-0.0732,-0.05856,-0.03904
-0.0244,0.03416,-0.04392,-0.03172,-0.01952,-0.00244,0.00976,-0.01952,-0.02928,-0.08296,-0.05368,-0.02928
-0.01952,0.02928,-0.03904,-0.02928,-0.01952,0,0.00976,-0.01952,-0.03416,-0.08784,-0.05368,-0.02928
-0.01464,0.0244,-0.03416,-0.02684,-0.01952,0.00244,0,-0.01952,-0.04392,-0.08784,-0.05368,-0.03416
-0.01464,0.02928,-0.04392,-0.0366,-0.02928,0.00732,-0.00488,-0.0244,-0.03904,-0.08784,-0.05856,-0.03904
-0.0244,0.03904,-0.05368,-0.04148,-0.02928,0.00244,0.00488,-0.01464,-0.03416,-0.07808,-0.05856,-0.03904
-0.01952,0.04148,-0.06344,-0.05368,-0.04392,0.0122,0.00488,-0.01952,-0.03416,-0.07808,-0.05856,-0.04392
-0.01952,0.03904,-0.05856,-0.0488,-0.03904,0.00976,0.00488,-0.02928,-0.03904,-0.09272,-0.06832,-0.05368
-0.01464,0.02684,-0.03904,-0.03172,-0.0244,0.00488,0.00488,-0.02928,-0.04392,-0.08784,-0.07808,-0.05368
-0.01464,0.02928,-0.04392,-0.0366,-0.02928,0.00732,0.00488,-0.02928,-0.04392,-0.09272,-0.06344,-0.04392
-0.01464,0.03416,-0.05368,-0.04636,-0.03904,0.0122,0,-0.02928,-0.04392,-0.09272,-0.06344,-0.04392
-0.01464,0.02684,-0.03904,-0.03172,-0.0244,0.00488,0,-0.03416,-0.04392,-0.0976,-0.06344,-0.04392
-0.01464,0.03172,-0.0488,-0.04148,-0.03416,0.00976,0.00488,-0.02928,-0.04392,-0.09272,-0.06344,-0.04392
-0.0244,0.04392,-0.06344,-0.05124,-0.03904,0.00732,-0.00488,-0.02928,-0.03904,-0.0976,-0.06344,-0.04392
-0.02928,0.05124,-0.0732,-0.05856,-0.04392,0.00732,-0.00488,-0.02928,-0.03904,-0.0976,-0.06344,-0.04392
-0.0244,0.04392,-0.06344,-0.05124,-0.03904,0.00732,-0.00488,-0.02928,-0.05368,-0.10248,-0.06344,-0.0488
-0.0244,0.04148,-0.05856,-0.04636,-0.03416,0.00488,-0.00976,-0.03416,-0.05856,-0.10736,-0.06832,-0.0488
-0.0244,0.04148,-0.05856,-0.04636,-0.03416,0.00488,-0.00976,-0.03416,-0.05368,-0.10736,-0.07808,-0.04392
-0.02928,0.03904,-0.0488,-0.03416,-0.01952,-0.00488,-0.00976,-0.03416,-0.05368,-0.10248,-0.07808,-0.0488
-0.01952,0.03904,-0.05856,-0.0488,-0.03904,0.00976,0,-0.03416,-0.05368,-0.10736,-0.08296,-0.04392
-0.01464,0.0366,-0.05856,-0.05124,-0.04392,0.01464,0,-0.02928,-0.05856,-0.10248,-0.08296,-0.04392
-0.0244,0.04148,-0.05856,-0.04636,-0.03416,0.00488,-0.00488,-0.02928,-0.05856,-0.10248,-0.0732,-0.0488
-0.02928,0.04392,-0.05856,-0.04392,-0.02928,0,-0.00488,-0.03904,-0.05368,-0.10248,-0.06832,-0.0488
-0.01464,0.03416,-0.05368,-0.04636,-0.03904,0.0122,-0.00488,-0.03416,-0.05368,-0.10736,-0.07808,-0.0488
-0.01464,0.0366,-0.05856,-0.05124,-0.04392,0.01464,-0.00976,-0.03416,-0.05856,-0.10736,-0.07808,-0.05368
-0.0244,0.04392,-0.06344,-0.05124,-0.03904,0.00732,0,-0.03416,-0.05856,-0.10736,-0.07808,-0.0488
-0.02928,0.0488,-0.06832,-0.05368,-0.03904,0.00488,0,-0.03416,-0.05368,-0.10248,-0.07808,-0.0488
-0.02928,0.04392,-0.05856,-0.04392,-0.02928,0,-0.00488,-0.02928,-0.05856,-0.10248,-0.08296,-0.0488
-0.03416,0.04636,-0.05856,-0.04148,-0.0244,-0.00488,-0.00488,-0.03416,-0.05856,-0.10736,-0.08296,-0.05368
-0.01952,0.03416,-0.0488,-0.03904,-0.02928,0.00488,-0.00488,-0.02928,-0.05856,-0.10736,-0.0732,-0.05368
-0.01952,0.03416,-0.0488,-0.03904,-0.02928,0.00488,-0.00976,-0.02928,-0.05368,-0.10736,-0.0732,-0.05368
-0.01464,0.03416,-0.05368,-0.04636,-0.03904,0.0122,-0.00488,-0.02928,-0.05368,-0.10248,-0.07808,-0.0488
-0.01464,0.03904,-0.06344,-0.05612,-0.0488,0.01708,-0.00488,-0.02928,-0.05368,-0.10736,-0.07808,-0.0488
-0.02928,0.04392,-0.05856,-0.04392,-0.02928,0,-0.00976,-0.03416,-0.06832,-0.10736,-0.08296,-0.06832
-0.03904,0.04636,-0.05368,-0.03416,-0.01464,-0.0122,-0.00488,-0.03416,-0.06344,-0.10736,-0.08296,-0.05856
-0.02928,0.05124,-0.0732,-0.05856,-0.04392,0.00732,0,-0.0244,-0.05368,-0.0976,-0.0732,-0.0488
-0.02928,0.06344,-0.0976,-0.08296,-0.06832,0.01952,0.00488,-0.01464,-0.05368,-0.0976,-0.0732,-0.05368
-0.02928,0.05856,-0.08784,-0.0732,-0.05856,0.01464,-0.00488,-0.0244,-0.05368,-0.10736,-0.08296,-0.05368
-0.02928,0.0488,-0.06832,-0.05368,-0.03904,0.00488,-0.00488,-0.03416,-0.05856,-0.10736,-0.08296,-0.05368
-0.02928,0.05368,-0.07808,-0.06344,-0.0488,0.00976,-0.00488,-0.0244,-0.05368,-0.10736,-0.07808,-0.05368
-0.02928,0.05368,-0.07808,-0.06344,-0.0488,0.00976,-0.00488,-0.0244,-0.05856,-0.10736,-0.07808,-0.05368
-0.01952,0.05124,-0.08296,-0.0732,-0.06344,0.02196,-0.00488,-0.0244,-0.0488,-0.10736,-0.07808,-0.0488
-0.01952,0.04148,-0.06344,-0.05368,-0.04392,0.0122,-0.00976,-0.02928,-0.0488,-0.10736,-0.07808,-0.05368
-0.0244,0.04148,-0.05856,-0.04636,-0.03416,0.00488,-0.00488,-0.03416,-0.05368,-0.10736,-0.07808,-0.05368
-0.01952,0.04392,-0.06832,-0.05856,-0.0488,0.01464,-0.00488,-0.03416,-0.05368,-0.10736,-0.07808,-0.05368
-0.02928,0.05368,-0.07808,-0.06344,-0.0488,0.00976,0.00488,-0.0244,-0.04392,-0.0976,-0.06832,-0.04392
-0.0244,0.06588,-0.10736,-0.09516,-0.08296,0.02928,0.00488,-0.01464,-0.04392,-0.0976,-0.06832,-0.04392
-0.03904,0.06588,-0.09272,-0.0732,-0.05368,0.00732,0,-0.01952,-0.04392,-0.10736,-0.07808,-0.06344
-0.0488,0.05856,-0.06832,-0.04392,-0.01952,-0.01464,-0.00976,-0.02928,-0.0732,-0.122,-0.10248,-0.0732
-0.03904,0.05856,-0.07808,-0.05856,-0.03904,0,0.00488,-0.02928,-0.0732,-0.11224,-0.08784,-0.06344
-0.0244,0.0488,-0.0732,-0.061,-0.0488,0.0122,-0.00488,-0.02928,-0.05856,-0.10248,-0.07808,-0.06344
-0.02928,0.05856,-0.08784,-0.0732,-0.05856,0.01464,0.00976,-0.00976,-0.02928,-0.08784,-0.06832,-0.03904
-0.01952,0.04392,-0.06832,-0.05856,-0.0488,0.01464,0.00976,-0.01952,-0.03904,-0.0976,-0.06832,-0.0488
-0.00976,0.03416,-0.05856,-0.05368,-0.0488,0.01952,0.00976,-0.02928,-0.03904,-0.0976,-0.06832,-0.0488
-0.01952,0.04392,-0.06832,-0.05856,-0.0488,0.01464,0,-0.02928,-0.0488,-0.10736,-0.07808,-0.05856
-0.02928,0.0488,-0.06832,-0.05368,-0.03904,0.00488,0,-0.02928,-0.05856,-0.10736,-0.08784,-0.05856
-0.02928,0.05368,-0.07808,-0.06344,-0.0488,0.00976,0.00976,-0.01952,-0.0488,-0.10736,-0.08784,-0.05856
-0.02928,0.05368,-0.07808,-0.06344,-0.0488,0.00976,0.00976,-0.01952,-0.0488,-0.10736,-0.08784,-0.05856
-0.01952,0.0488,-0.07808,-0.06832,-0.05856,0.01952,0.00976,-0.01952,-0.0488,-0.10736,-0.07808,-0.05856
-0.01952,0.0488,-0.07808,-0.06832,-0.05856,0.01952,0.00976,-0.01952,-0.0488,-0.10736,-0.07808,-0.05856
-0.02928,0.05368,-0.07808,-0.06344,-0.0488,0.00976,0,-0.02928,-0.0488,-0.10736,-0.08784,-0.05856
-0.02928,0.05368,-0.07808,-0.06344,-0.0488,0.00976,0,-0.02928,-0.0488,-0.10736,-0.08784,-0.05856
-0.02928,0.05368,-0.07808,-0.06344,-0.0488,0.00976,0,-0.01952,-0.0488,-0.10736,-0.07808,-0.0488
-0.02928,0.05368,-0.07808,-0.06344,-0.0488,0.00976,0,-0.01952,-0.0488,-0.10736,-0.07808,-0.0488
-0.01952,0.0488,-0.07808,-0.06832,-0.05856,0.01952,0,-0.01952,-0.0488,-0.10736,-0.07808,-0.05856
-0.01952,0.0488,-0.07808,-0.06832,-0.05856,0.01952,0,-0.01952,-0.0488,-0.10736,-0.07808,-0.05856
-0.02928,0.05856,-0.08784,-0.0732,-0.05856,0.01464,0,-0.02928,-0.05856,-0.11712,-0.08784,-0.05856
-0.02928,0.05856,-0.08784,-0.0732,-0.05856,0.01464,0,-0.02928,-0.05856,-0.11712,-0.08784,-0.05856
-0.03904,0.05856,-0.07808,-0.05856,-0.03904,0,0,-0.02928,-0.05856,-0.11712,-0.08784,-0.05856
-0.03904,0.05856,-0.07808,-0.05856,-0.03904,0,0,-0.02928,-0.05856,-0.11712,-0.08784,-0.05856
-0.02928,0.05856,-0.08784,-0.0732,-0.05856,0.01464,0.00976,-0.01952,-0.0488,-0.10736,-0.07808,-0.0488
-0.02928,0.05856,-0.08784,-0.0732,-0.05856,0.01464,0.00976,-0.01952,-0.03904,-0.0976,-0.07808,-0.0488
-0.02928,0.05856,-0.08784,-0.0732,-0.05856,0.01464,0,-0.02928,-0.0488,-0.10736,-0.07808,-0.0488
-0.02928,0.05856,-0.08784,-0.0732,-0.05856,0.01464,0,-0.02928,-0.0488,-0.10736,-0.07808,-0.0488
-0.03904,0.06832,-0.0976,-0.07808,-0.05856,0.00976,0,-0.02928,-0.0488,-0.10736,-0.07808,-0.05856
-0.0488,0.07076,-0.09272,-0.06832,-0.04392,-0.00244,0,-0.02928,-0.0488,-0.11224,-0.08296,-0.05856
-0.03904,0.061,-0.08296,-0.06344,-0.04392,0.00244,0,-0.01952,-0.04392,-0.11224,-0.07808,-0.05856
-0.02928,0.05856,-0.08784,-0.0732,-0.05856,0.01464,-0.00488,-0.01952,-0.03904,-0.11224,-0.07808,-0.05856
-0.02928,0.05856,-0.08784,-0.0732,-0.05856,0.01464,0.00488,-0.01952,-0.04392,-0.11224,-0.08296,-0.05856
-0.02928,0.05856,-0.08784,-0.0732,-0.05856,0.01464,0.00976,-0.01952,-0.04392,-0.11224,-0.08296,-0.05856
-0.02928,0.06344,-0.0976,-0.08296,-0.06832,0.01952,0,-0.01952,-0.04392,-0.11224,-0.08296,-0.05856
-0.02928,0.061,-0.09272,-0.07808,-0.06344,0.01708,0,-0.01464,-0.03904,-0.10248,-0.07808,-0.05856
-0.01464,0.05124,-0.08784,-0.08052,-0.0732,0.02928,0.00976,-0.00976,-0.0488,-0.10248,-0.07808,-0.05368
-0.01464,0.0366,-0.05856,-0.05124,-0.04392,0.01464,0.00976,-0.01464,-0.0488,-0.10736,-0.07808,-0.05368
-0.01952,0.03416,-0.0488,-0.03904,-0.02928,0.00488,0,-0.01464,-0.04392,-0.10736,-0.07808,-0.05368
-0.01464,0.0244,-0.03416,-0.02684,-0.01952,0.00244,0,-0.00976,-0.03416,-0.09272,-0.0732,-0.0488
-0.01464,0.02928,-0.04392,-0.0366,-0.02928,0.00732,0.00488,-0.00976,-0.02928,-0.08296,-0.06344,-0.04392
-0.01464,0.03172,-0.0488,-0.04148,-0.03416,0.00976,0.00976,-0.00976,-0.02928,-0.08296,-0.05856,-0.04392
-0.01952,0.04392,-0.06832,-0.05856,-0.0488,0.01464,0.00976,-0.00488,-0.02928,-0.09272,-0.05856,-0.04392
-0.01464,0.0366,-0.05856,-0.05124,-0.04392,0.01464,0,-0.00488,-0.02928,-0.09272,-0.06344,-0.04392
-0.00488,0.01952,-0.03416,-0.03172,-0.02928,0.0122,-0.00488,-0.00976,-0.03416,-0.08784,-0.06344,-0.04392
0.00976,-0.00732,0.00488,0,-0.00488,0.00732,-0.00488,-0.00976,-0.02928,-0.0732,-0.05856,-0.02928
0.01952,-0.01952,0.01952,0.00976,0,0.00976,-0.01464,-0.00976,-0.0244,-0.06344,-0.04392,-0.0244
0.0244,-0.02684,0.02928,0.01708,0.00488,0.00976,-0.0244,-0.01464,-0.0244,-0.06344,-0.0488,-0.01952
0.01464,-0.00732,0,-0.00732,-0.01464,0.01464,-0.03904,-0.02928,-0.02928,-0.08296,-0.05368,-0.01952
0.01464,0.01464,-0.04392,-0.05124,-0.05856,0.0366,-0.04392,-0.02928,-0.03904,-0.09272,-0.06832,-0.01952
0.01464,0.01708,-0.0488,-0.05612,-0.06344,0.03904,-0.03904,-0.02928,-0.0488,-0.0976,-0.05368,-0.0244
0.01464,0.01464,-0.04392,-0.05124,-0.05856,0.0366,-0.0244,-0.0244,-0.0488,-0.09272,-0.05368,-0.0244
0.01464,0.00976,-0.03416,-0.04148,-0.0488,0.03172,-0.02928,-0.0244,-0.04392,-0.09272,-0.06344,-0.02928
0.01464,0.00976,-0.03416,-0.04148,-0.0488,0.03172,-0.03904,-0.0244,-0.04392,-0.09272,-0.06344,-0.01952
0.0244,0,-0.0244,-0.0366,-0.0488,0.0366,-0.0244,-0.00976,-0.04392,-0.08784,-0.0488,-0.00976
0.00488,0.01952,-0.04392,-0.04636,-0.0488,0.02684,-0.0244,0,-0.04392,-0.09272,-0.0488,-0.01464
0.00488,0.02928,-0.06344,-0.06588,-0.06832,0.0366,-0.01464,-0.01952,-0.05368,-0.10248,-0.06344,-0.03416
-0.00488,0.04148,-0.07808,-0.07564,-0.0732,0.03416,-0.01464,-0.0244,-0.05856,-0.10736,-0.0732,-0.04392
-0.02928,0.05612,-0.08296,-0.06832,-0.05368,0.0122,-0.01952,-0.0244,-0.06832,-0.11712,-0.08296,-0.06344
-0.02928,0.05856,-0.08784,-0.0732,-0.05856,0.01464,-0.00976,-0.01952,-0.06832,-0.122,-0.08784,-0.06832
-0.02928,0.06588,-0.10248,-0.08784,-0.0732,0.02196,0,-0.00488,-0.05368,-0.122,-0.07808,-0.05368
-0.03416,0.08784,-0.14152,-0.12444,-0.10736,0.0366,0,0.00488,-0.05368,-0.122,-0.08296,-0.05856
-0.03416,0.07564,-0.11712,-0.10004,-0.08296,0.0244,-0.00488,-0.01464,-0.06344,-0.13176,-0.09272,-0.06832
-0.03416,0.0732,-0.11224,-0.09516,-0.07808,0.02196,-0.00488,-0.02928,-0.0732,-0.13176,-0.0976,-0.06832
-0.02928,0.07564,-0.122,-0.10736,-0.09272,0.03172,-0.00488,-0.01952,-0.06832,-0.14152,-0.08784,-0.06344
-0.02928,0.0732,-0.11712,-0.10248,-0.08784,0.02928,-0.00488,-0.00976,-0.06344,-0.13664,-0.08784,-0.05856
-0.04392,0.0854,-0.12688,-0.10492,-0.08296,0.01952,0.01464,0,-0.05368,-0.12688,-0.0976,-0.06832
-0.04392,0.07076,-0.0976,-0.07564,-0.05368,0.00488,0.00976,0.00976,-0.0488,-0.13664,-0.11224,-0.07808
-0.06344,0.09272,-0.122,-0.09028,-0.05856,-0.00244,0.04392,0.0244,-0.01952,-0.13176,-0.12688,-0.10248
-0.05856,0.07808,-0.0976,-0.06832,-0.03904,-0.00976,0.06832,0.0732,0.01952,-0.0976,-0.13176,-0.10248
-0.05856,0.0976,-0.13664,-0.10736,-0.07808,0.00976,0.09272,0.09272,0.04392,-0.03416,-0.10248,-0.09272
-0.05856,0.06588,-0.0732,-0.04392,-0.01464,-0.02196,0.05856,0.0732,0.06344,0.01464,-0.0976,-0.08784
-0.00488,-0.00732,0.01952,0.02196,0.0244,-0.01464,0.05856,0.09272,0.10736,0.17568,0.01464,-0.01952
0.02928,-0.05612,0.08296,0.06832,0.05368,-0.0122,0.0732,0.18056,0.25376,0.43432,0.16104,0.0732
0.10248,-0.16836,0.23424,0.183,0.13176,-0.01464,0.03904,0.1708,0.26352,0.7076,0.37088,0.22448
0.19032,-0.30744,0.42456,0.3294,0.23424,-0.02196,-0.10248,-0.05856,0.05856,0.96624,0.64904,0.40504
0.244,-0.38796,0.53192,0.40992,0.28792,-0.02196,-0.25864,-0.31232,-0.22936,1.10288,0.8784,0.56608
0.27816,-0.54168,0.8052,0.66612,0.52704,-0.12444,-0.42456,-0.57584,-0.49288,1.18096,1.0248,0.70272
0.27328,-0.51728,0.76128,0.62464,0.488,-0.10736,-0.488,-0.6588,-0.63928,0.91744,0.96136,0.7076
0.18056,-0.37576,0.57096,0.48068,0.3904,-0.10492,-0.44408,-0.74664,-0.81984,0.28792,0.60024,0.52704
-0.0244,-0.24156,0.50752,0.51972,0.53192,-0.27816,-0.4392,-0.976,-1.19072,-0.41968,0.1708,0.27816
-0.122,-0.12444,0.37088,0.43188,0.49288,-0.30744,-0.45872,-1.06872,-1.32736,-0.71736,-0.09272,0.11224
-0.18544,0.01464,0.15616,0.24888,0.3416,-0.26352,-0.41968,-0.96136,-1.20536,-0.69296,-0.19032,0.00976
-0.1708,0.04636,0.07808,0.16348,0.24888,-0.20984,-0.35136,-0.80032,-1.00528,-0.62464,-0.23424,-0.07808
-0.15616,0.08784,-0.01952,0.05856,0.13664,-0.1464,-0.2928,-0.64416,-0.79056,-0.52704,-0.21472,-0.08784
-0.13664,0.07076,-0.00488,0.06344,0.13176,-0.1342,-0.2928,-0.52704,-0.62464,-0.4148,-0.20008,-0.10248
-0.11712,0.05612,0.00488,0.06344,0.122,-0.11956,-0.22936,-0.38552,-0.4636,-0.2684,-0.15616,-0.08296
-0.07808,0.02928,0.01952,0.05856,0.0976,-0.08784,-0.13176,-0.23912,-0.30256,-0.18056,-0.09272,-0.05856
-0.05368,0.02928,-0.00488,0.02196,0.0488,-0.05124,-0.06832,-0.1464,-0.19032,-0.13664,-0.06344,-0.03416
-0.0488,0.04148,-0.03416,-0.00976,0.01464,-0.03172,-0.03416,-0.08784,-0.11224,-0.10248,-0.0488,-0.01952
-0.03416,0.02684,-0.01952,-0.00244,0.01464,-0.0244,-0.01952,-0.04392,-0.08296,-0.0732,-0.05856,-0.02928
-0.03904,0.04392,-0.0488,-0.02928,-0.00976,-0.01464,0,-0.0244,-0.06832,-0.0732,-0.07808,-0.04392
-0.01952,0.04148,-0.06344,-0.05368,-0.04392,0.0122,0.00976,0.00976,-0.0244,-0.0732,-0.0488,-0.03416
-0.0244,0.04636,-0.06832,-0.05612,-0.04392,0.00976,0.0244,0.0244,-0.00976,-0.0732,-0.0488,-0.03416
-0.02928,0.0488,-0.06832,-0.05368,-0.03904,0.00488,0.00976,0.0244,-0.00976,-0.07808,-0.06832,-0.04392
-0.03416,0.05612,-0.07808,-0.061,-0.04392,0.00488,0.00976,0.02928,-0.00976,-0.0732,-0.06832,-0.0488
-0.03904,0.05612,-0.0732,-0.05368,-0.03416,-0.00244,0.01464,0.03416,0,-0.07808,-0.06344,-0.0488
-0.03904,0.05612,-0.0732,-0.05368,-0.03416,-0.00244,0.01952,0.02928,0.00488,-0.07808,-0.05856,-0.0488
-0.03416,0.05612,-0.07808,-0.061,-0.04392,0.00488,0.02928,0.03904,0.00488,-0.05368,-0.0488,-0.03904
-0.01952,0.03904,-0.05856,-0.0488,-0.03904,0.00976,0.02928,0.0488,0.01464,-0.04392,-0.0488,-0.03904
-0.0244,0.04392,-0.06344,-0.05124,-0.03904,0.00732,0.03904,0.04392,0.0244,-0.03904,-0.05368,-0.03416
-0.0244,0.0366,-0.0488,-0.0366,-0.0244,0,0.03904,0.04392,0.02928,-0.0488,-0.05856,-0.03416
-0.0244,0.04148,-0.05856,-0.04636,-0.03416,0.00488,0.04392,0.05856,0.03416,-0.03904,-0.04392,-0.03416
-0.0244,0.05124,-0.07808,-0.06588,-0.05368,0.01464,0.04392,0.05856,0.03904,-0.03416,-0.03904,-0.03416
-0.01952,0.04392,-0.06832,-0.05856,-0.0488,0.01464,0.03416,0.05856,0.02928,-0.04392,-0.0488,-0.04392
-0.01952,0.03416,-0.0488,-0.03904,-0.02928,0.00488,0.03416,0.05368,0.03416,-0.03904,-0.0488,-0.04392
-0.01952,0.02928,-0.03904,-0.02928,-0.01952,0,0.04392,0.05856,0.05368,-0.0244,-0.04392,-0.02928
-0.0244,0.04636,-0.06832,-0.05612,-0.04392,0.00976,0.04392,0.06344,0.05368,-0.0244,-0.04392,-0.02928
-0.00976,0.04148,-0.0732,-0.06832,-0.06344,0.02684,0.05368,0.0732,0.05856,-0.01952,-0.03904,-0.0244
