i,aVR,ii,aVF,iii,aVL,V1,V2,V3,V4,V5,V6
-0.01952,0.02684,-0.03416,-0.0244,-0.01464,-0.00244,-0.00976,-0.08784,-0.10736,-0.08784,-0.0732,-0.03904
-0.02928,0.03416,-0.03904,-0.0244,-0.00976,-0.00976,-0.01952,-0.08784,-0.11712,-0.08784,-0.0732,-0.03904
-0.02928,0.03416,-0.03904,-0.0244,-0.00976,-0.00976,-0.01952,-0.08784,-0.11712,-0.08784,-0.0732,-0.03904
-0.02928,0.03904,-0.0488,-0.03416,-0.01952,-0.00488,-0.00976,-0.0976,-0.11712,-0.08784,-0.0732,-0.03904
-0.02928,0.03904,-0.0488,-0.03416,-0.01952,-0.00488,-0.00976,-0.0976,-0.11712,-0.08784,-0.07808,-0.03904
-0.0244,0.0366,-0.0488,-0.0366,-0.0244,0,-0.00976,-0.08784,-0.11712,-0.0976,-0.0732,-0.0488
-0.0244,0.0366,-0.0488,-0.0366,-0.0244,0,-0.00976,-0.08784,-0.122,-0.10736,-0.0732,-0.0488
-0.0244,0.0366,-0.0488,-0.0366,-0.0244,0,-0.01952,-0.08784,-0.122,-0.0976,-0.0732,-0.0488
-0.0244,0.0366,-0.0488,-0.0366,-0.0244,0,-0.01952,-0.09272,-0.122,-0.0976,-0.07808,-0.0488
-0.03416,0.04392,-0.05368,-0.0366,-0.01952,-0.00732,-0.01952,-0.09272,-0.122,-0.0976,-0.08784,-0.05368
-0.03416,0.04392,-0.05368,-0.0366,-0.01952,-0.00732,-0.01952,-0.09272,-0.11712,-0.0976,-0.08784,-0.05368
-0.03416,0.04392,-0.05368,-0.0366,-0.01952,-0.00732,-0.0244,-0.09272,-0.12688,-0.10736,-0.08784,-0.05368
-0.03416,0.04392,-0.05368,-0.0366,-0.01952,-0.00732,-0.0244,-0.0976,-0.12688,-0.10736,-0.09272,-0.05368
-0.03416,0.04392,-0.05368,-0.0366,-0.01952,-0.00732,-0.01464,-0.09272,-0.13176,-0.10736,-0.08784,-0.05368
-0.03904,0.0488,-0.05856,-0.03904,-0.01952,-0.00976,-0.01464,-0.09272,-0.13176,-0.10736,-0.08784,-0.05368
-0.02928,0.04392,-0.05856,-0.04392,-0.02928,0,-0.0244,-0.09272,-0.13664,-0.10736,-0.08784,-0.06344
-0.02928,0.04392,-0.05856,-0.04392,-0.02928,0,-0.0244,-0.09272,-0.13664,-0.10736,-0.08296,-0.06344
-0.02928,0.04392,-0.05856,-0.04392,-0.02928,0,-0.0244,-0.0976,-0.12688,-0.10736,-0.08784,-0.05368
-0.02928,0.04392,-0.05856,-0.04392,-0.02928,0,-0.0244,-0.0976,-0.13176,-0.10736,-0.08784,-0.05368
-0.02928,0.04392,-0.05856,-0.04392,-0.02928,0,-0.0244,-0.0976,-0.13664,-0.10736,-0.09272,-0.05856
-0.02928,0.04392,-0.05856,-0.04392,-0.02928,0,-0.0244,-0.10248,-0.13664,-0.10736,-0.09272,-0.05856
-0.03904,0.0488,-0.05856,-0.03904,-0.01952,-0.00976,-0.01464,-0.10248,-0.13664,-0.11224,-0.09272,-0.05856
-0.04392,0.05124,-0.05856,-0.0366,-0.01464,-0.01464,-0.01464,-0.10248,-0.13664,-0.11224,-0.08784,-0.05856
-0.03416,0.04636,-0.05856,-0.04148,-0.0244,-0.00488,-0.0244,-0.0976,-0.13176,-0.11224,-0.0976,-0.05856
-0.03416,0.04636,-0.05856,-0.04148,-0.0244,-0.00488,-0.0244,-0.09272,-0.13664,-0.11224,-0.0976,-0.06344
-0.04392,0.05612,-0.06832,-0.04636,-0.0244,-0.00976,-0.01952,-0.10248,-0.13664,-0.11224,-0.10736,-0.06344
-0.04392,0.05612,-0.06832,-0.04636,-0.0244,-0.00976,-0.01952,-0.10248,-0.13664,-0.11712,-0.10736,-0.06344
-0.03416,0.0488,-0.06344,-0.04636,-0.02928,-0.00244,-0.01952,-0.10248,-0.13664,-0.11712,-0.10736,-0.06344
-0.03416,0.0488,-0.06344,-0.04636,-0.02928,-0.00244,-0.01952,-0.10736,-0.14152,-0.11712,-0.11224,-0.06344
-0.03416,0.05368,-0.0732,-0.05612,-0.03904,0.00244,-0.01952,-0.10736,-0.14152,-0.11712,-0.10248,-0.06344
-0.03416,0.05368,-0.0732,-0.05612,-0.03904,0.00244,-0.01952,-0.10736,-0.14152,-0.11712,-0.10248,-0.06344
-0.04392,0.05368,-0.06344,-0.04148,-0.01952,-0.0122,-0.01952,-0.10248,-0.14152,-0.11712,-0.10248,-0.06344
-0.04392,0.05368,-0.06344,-0.04148,-0.01952,-0.0122,-0.01952,-0.10248,-0.14152,-0.11712,-0.10248,-0.06344
-0.03416,0.05124,-0.06832,-0.05124,-0.03416,0,-0.01952,-0.10248,-0.14152,-0.11712,-0.10248,-0.06344
-0.02928,0.0488,-0.06832,-0.05368,-0.03904,0.00488,-0.01952,-0.10248,-0.1464,-0.11712,-0.10248,-0.06344
-0.04392,0.05612,-0.06832,-0.04636,-0.0244,-0.00976,-0.01952,-0.10248,-0.1464,-0.11712,-0.10248,-0.06344
-0.04392,0.05612,-0.06832,-0.04636,-0.0244,-0.00976,-0.0244,-0.10736,-0.1464,-0.11712,-0.10248,-0.06344
-0.03416,0.05124,-0.06832,-0.05124,-0.03416,0,-0.01952,-0.10736,-0.1464,-0.12688,-0.10248,-0.06344
-0.03416,0.05368,-0.0732,-0.05612,-0.03904,0.00244,-0.01952,-0.10736,-0.15128,-0.12688,-0.10248,-0.06344
-0.04392,0.05856,-0.0732,-0.05124,-0.02928,-0.00732,-0.01952,-0.10736,-0.14152,-0.11712,-0.10248,-0.06344
-0.04392,0.05856,-0.0732,-0.05124,-0.02928,-0.00732,-0.01952,-0.10736,-0.14152,-0.11712,-0.10248,-0.06344
-0.04392,0.05368,-0.06344,-0.04148,-0.01952,-0.0122,-0.01952,-0.0976,-0.15128,-0.13176,-0.10248,-0.06344
-0.04392,0.05368,-0.06344,-0.04148,-0.01952,-0.0122,-0.01952,-0.10248,-0.15128,-0.12688,-0.10248,-0.06344
-0.03904,0.05124,-0.06344,-0.04392,-0.0244,-0.00732,-0.01952,-0.11224,-0.15128,-0.12688,-0.10248,-0.0732
-0.03904,0.05124,-0.06344,-0.04392,-0.0244,-0.00732,-0.01952,-0.11224,-0.15128,-0.13176,-0.10248,-0.0732
-0.03416,0.05124,-0.06832,-0.05124,-0.03416,0,-0.01952,-0.10248,-0.15128,-0.122,-0.10248,-0.06344
-0.03416,0.05124,-0.06832,-0.05124,-0.03416,0,-0.0244,-0.10248,-0.15128,-0.122,-0.10248,-0.06344
-0.04392,0.05612,-0.06832,-0.04636,-0.0244,-0.00976,-0.01464,-0.10736,-0.15128,-0.122,-0.11224,-0.06344
-0.04392,0.05856,-0.0732,-0.05124,-0.02928,-0.00732,-0.01464,-0.10248,-0.15128,-0.122,-0.11224,-0.06344
-0.04392,0.05856,-0.0732,-0.05124,-0.02928,-0.00732,-0.01464,-0.09272,-0.14152,-0.122,-0.11224,-0.06344
-0.04392,0.05856,-0.0732,-0.05124,-0.02928,-0.00732,-0.01464,-0.09272,-0.14152,-0.122,-0.11224,-0.06344
-0.03416,0.05124,-0.06832,-0.05124,-0.03416,0,-0.01464,-0.0976,-0.15128,-0.122,-0.10248,-0.06344
-0.03416,0.05124,-0.06832,-0.05124,-0.03416,0,-0.00976,-0.0976,-0.14152,-0.122,-0.10248,-0.06344
-0.03904,0.05368,-0.06832,-0.0488,-0.02928,-0.00488,-0.01952,-0.0976,-0.1464,-0.12688,-0.10736,-0.05856
-0.03904,0.05368,-0.06832,-0.0488,-0.02928,-0.00488,-0.01952,-0.0976,-0.1464,-0.12688,-0.10736,-0.05856
-0.03904,0.05368,-0.06832,-0.0488,-0.02928,-0.00488,-0.01952,-0.0976,-0.15616,-0.12688,-0.10736,-0.06832
-0.03904,0.05368,-0.06832,-0.0488,-0.02928,-0.00488,-0.01952,-0.0976,-0.15616,-0.12688,-0.10736,-0.06832
-0.03904,0.05856,-0.07808,-0.05856,-0.03904,0,-0.01952,-0.0976,-0.1464,-0.12688,-0.10736,-0.06832
-0.03904,0.05856,-0.07808,-0.05856,-0.03904,0,-0.01952,-0.0976,-0.1464,-0.12688,-0.10736,-0.06832
-0.03904,0.05368,-0.06832,-0.0488,-0.02928,-0.00488,-0.01952,-0.0976,-0.15616,-0.12688,-0.11712,-0.06832
-0.03904,0.05368,-0.06832,-0.0488,-0.02928,-0.00488,-0.01952,-0.0976,-0.15616,-0.12688,-0.11712,-0.06832
-0.03904,0.05368,-0.06832,-0.0488,-0.02928,-0.00488,-0.01952,-0.0976,-0.15616,-0.12688,-0.11712,-0.06832
-0.03904,0.05368,-0.06832,-0.0488,-0.02928,-0.00488,-0.01952,-0.0976,-0.15616,-0.12688,-0.11712,-0.06832
-0.03904,0.05856,-0.07808,-0.05856,-0.03904,0,-0.01952,-0.0976,-0.15616,-0.12688,-0.10736,-0.06832
-0.03904,0.05856,-0.07808,-0.05856,-0.03904,0,-0.01952,-0.0976,-0.15616,-0.12688,-0.10736,-0.06832
-0.03904,0.05856,-0.07808,-0.05856,-0.03904,0,-0.01952,-0.0976,-0.1464,-0.12688,-0.11712,-0.05856
-0.03904,0.05856,-0.07808,-0.05856,-0.03904,0,-0.01952,-0.0976,-0.1464,-0.12688,-0.11712,-0.05856
-0.03904,0.05856,-0.07808,-0.05856,-0.03904,0,-0.01952,-0.0976,-0.15616,-0.12688,-0.11712,-0.06832
-0.03904,0.05856,-0.07808,-0.05856,-0.03904,0,-0.01952,-0.0976,-0.15616,-0.12688,-0.11712,-0.06832
-0.03904,0.05856,-0.07808,-0.05856,-0.03904,0,-0.00976,-0.10736,-0.1464,-0.12688,-0.11712,-0.05856
-0.03904,0.05856,-0.07808,-0.05856,-0.03904,0,-0.00976,-0.10736,-0.1464,-0.12688,-0.11712,-0.05856
-0.03904,0.05856,-0.07808,-0.05856,-0.03904,0,-0.01952,-0.10736,-0.1464,-0.13664,-0.11712,-0.05856
-0.03904,0.05856,-0.07808,-0.05856,-0.03904,0,-0.01952,-0.10736,-0.1464,-0.13664,-0.11712,-0.05856
-0.0488,0.06344,-0.07808,-0.05368,-0.02928,-0.00976,-0.01952,-0.0976,-0.1464,-0.13664,-0.11712,-0.05856
-0.0488,0.06344,-0.07808,-0.05368,-0.02928,-0.00976,-0.01952,-0.0976,-0.1464,-0.13664,-0.11712,-0.05856
-0.03904,0.05856,-0.07808,-0.05856,-0.03904,0,-0.01952,-0.10736,-0.15616,-0.12688,-0.11712,-0.06832
-0.03904,0.05856,-0.07808,-0.05856,-0.03904,0,-0.01952,-0.10736,-0.15616,-0.12688,-0.11712,-0.06832
-0.03904,0.05368,-0.06832,-0.0488,-0.02928,-0.00488,-0.01952,-0.10736,-0.15616,-0.13664,-0.11712,-0.06832
-0.03904,0.05368,-0.06832,-0.0488,-0.02928,-0.00488,-0.01952,-0.10736,-0.15616,-0.13664,-0.11712,-0.06832
-0.03904,0.05856,-0.07808,-0.05856,-0.03904,0,-0.01952,-0.10736,-0.1464,-0.13664,-0.11712,-0.06832
-0.03904,0.05856,-0.07808,-0.05856,-0.03904,0,-0.01952,-0.10736,-0.1464,-0.13664,-0.11712,-0.06832
-0.03904,0.05856,-0.07808,-0.05856,-0.03904,0,-0.01952,-0.10736,-0.15616,-0.12688,-0.12688,-0.05856
-0.03904,0.05856,-0.07808,-0.05856,-0.03904,0,-0.01952,-0.10736,-0.15616,-0.12688,-0.12688,-0.05856
-0.03904,0.06344,-0.08784,-0.06832,-0.0488,0.00488,-0.01952,-0.10736,-0.1464,-0.12688,-0.11712,-0.06832
-0.03904,0.06344,-0.08784,-0.06832,-0.0488,0.00488,-0.01952,-0.10736,-0.1464,-0.12688,-0.11712,-0.06832
-0.03904,0.05856,-0.07808,-0.05856,-0.03904,0,-0.01952,-0.10736,-0.15616,-0.12688,-0.11712,-0.06832
-0.03904,0.05856,-0.07808,-0.05856,-0.03904,0,-0.01952,-0.10736,-0.15616,-0.12688,-0.11712,-0.06832
-0.03904,0.05612,-0.0732,-0.05368,-0.03416,-0.00244,-0.01952,-0.0976,-0.15128,-0.122,-0.11712,-0.06344
-0.03416,0.05368,-0.0732,-0.05612,-0.03904,0.00244,-0.00488,-0.09272,-0.15128,-0.122,-0.11712,-0.06344
-0.0244,0.04392,-0.06344,-0.05124,-0.03904,0.00732,0.00488,-0.08296,-0.14152,-0.122,-0.11224,-0.05368
-0.01952,0.0366,-0.05368,-0.04392,-0.03416,0.00732,0.00976,-0.08296,-0.13176,-0.122,-0.11224,-0.0488
-0.01952,0.03172,-0.04392,-0.03416,-0.0244,0.00244,0.01464,-0.06832,-0.13176,-0.11712,-0.10736,-0.0488
-0.01464,0.0244,-0.03416,-0.02684,-0.01952,0.00244,0.02928,-0.05856,-0.11712,-0.10736,-0.0976,-0.04392
-0.01464,0.01464,-0.01464,-0.00732,0,-0.00732,0.03904,-0.05368,-0.10248,-0.09272,-0.0976,-0.04392
-0.00976,0.00976,-0.00976,-0.00488,0,-0.00488,0.03904,-0.04392,-0.10248,-0.0976,-0.09272,-0.03904
0,0.00732,-0.01464,-0.01464,-0.01464,0.00732,0.04392,-0.04392,-0.10248,-0.0976,-0.09272,-0.03904
0.00488,0.00488,-0.01464,-0.01708,-0.01952,0.0122,0.04392,-0.04392,-0.0976,-0.0976,-0.09272,-0.03904
0.00976,0.00244,-0.01464,-0.01952,-0.0244,0.01708,0.0244,-0.05368,-0.10736,-0.09272,-0.08784,-0.03416
0.01952,-0.00244,-0.01464,-0.0244,-0.03416,0.02684,0.00976,-0.05856,-0.10736,-0.09272,-0.08784,-0.02928
0.01952,-0.00488,-0.00976,-0.01952,-0.02928,0.0244,-0.01952,-0.06832,-0.10736,-0.08784,-0.07808,-0.0244
0.02928,-0.01464,0,-0.01464,-0.02928,0.02928,-0.02928,-0.08296,-0.10736,-0.08784,-0.07808,-0.01464
0.03904,-0.02196,0.00488,-0.01464,-0.03416,0.0366,-0.0244,-0.08296,-0.0976,-0.07808,-0.06832,-0.01464
0.04392,-0.02684,0.00976,-0.0122,-0.03416,0.03904,-0.02928,-0.08296,-0.0976,-0.0732,-0.06832,-0.00976
0.03416,-0.02196,0.00976,-0.00732,-0.0244,0.02928,-0.03904,-0.08296,-0.10736,-0.07808,-0.07808,-0.01464
0.03904,-0.01952,0,-0.01952,-0.03904,0.03904,-0.04392,-0.08784,-0.11224,-0.08296,-0.0732,-0.01464
0.03416,-0.00732,-0.01952,-0.0366,-0.05368,0.04392,-0.0488,-0.09272,-0.122,-0.10248,-0.06832,-0.01464
0.03416,0.00244,-0.03904,-0.05612,-0.0732,0.05368,-0.0488,-0.09272,-0.13176,-0.10736,-0.08296,-0.01952
0.03904,0.00488,-0.0488,-0.06832,-0.08784,0.06344,-0.06832,-0.09272,-0.13664,-0.11224,-0.08784,-0.01952
0.04392,0.00488,-0.05368,-0.07564,-0.0976,0.07076,-0.06832,-0.09272,-0.13664,-0.11224,-0.09272,-0.0244
0.04392,0.00732,-0.05856,-0.08052,-0.10248,0.0732,-0.0732,-0.10248,-0.15128,-0.122,-0.09272,-0.02928
0.02928,0.01708,-0.06344,-0.07808,-0.09272,0.061,-0.06832,-0.0976,-0.15128,-0.11712,-0.0976,-0.02928
0.00976,0.02684,-0.06344,-0.06832,-0.0732,0.04148,-0.05856,-0.07808,-0.13664,-0.11712,-0.0976,-0.03904
-0.00488,0.03904,-0.0732,-0.07076,-0.06832,0.03172,-0.04392,-0.0732,-0.13176,-0.11224,-0.10736,-0.03904
-0.0244,0.05368,-0.08296,-0.07076,-0.05856,0.01708,-0.0244,-0.06344,-0.13176,-0.11712,-0.10736,-0.05368
-0.02928,0.05856,-0.08784,-0.0732,-0.05856,0.01464,-0.02928,-0.07808,-0.1464,-0.122,-0.122,-0.06344
-0.03904,0.06832,-0.0976,-0.07808,-0.05856,0.00976,-0.03416,-0.11712,-0.1708,-0.1464,-0.12688,-0.06344
-0.03904,0.0732,-0.10736,-0.08784,-0.06832,0.01464,-0.03416,-0.122,-0.1708,-0.1464,-0.12688,-0.06344
-0.0488,0.07564,-0.10248,-0.07808,-0.05368,0.00244,-0.04392,-0.11712,-0.1708,-0.1464,-0.13176,-0.06344
-0.04392,0.07564,-0.10736,-0.0854,-0.06344,0.00976,-0.04392,-0.11224,-0.16592,-0.1464,-0.13176,-0.06344
-0.03904,0.07076,-0.10248,-0.08296,-0.06344,0.0122,-0.03416,-0.10736,-0.16592,-0.1464,-0.13176,-0.06832
-0.04392,0.0732,-0.10248,-0.08052,-0.05856,0.00732,-0.02928,-0.10248,-0.16104,-0.1464,-0.13176,-0.06344
-0.05368,0.07808,-0.10248,-0.07564,-0.0488,-0.00244,-0.0244,-0.10248,-0.16104,-0.13664,-0.13176,-0.06344
-0.05856,0.08052,-0.10248,-0.0732,-0.04392,-0.00732,-0.0244,-0.10248,-0.16104,-0.13664,-0.13176,-0.06832
-0.0488,0.0732,-0.0976,-0.0732,-0.0488,0,-0.01952,-0.10736,-0.16104,-0.1464,-0.13176,-0.06832
-0.05368,0.07564,-0.0976,-0.07076,-0.04392,-0.00488,-0.01952,-0.10248,-0.15616,-0.14152,-0.13176,-0.06832
-0.05368,0.08052,-0.10736,-0.08052,-0.05368,0,-0.01952,-0.08784,-0.15616,-0.14152,-0.13176,-0.05856
-0.05368,0.07808,-0.10248,-0.07564,-0.0488,-0.00244,-0.01464,-0.08296,-0.15616,-0.13664,-0.12688,-0.05856
-0.05368,0.0732,-0.09272,-0.06588,-0.03904,-0.00732,-0.00976,-0.07808,-0.15128,-0.12688,-0.122,-0.05856
-0.0732,0.08784,-0.10248,-0.06588,-0.02928,-0.02196,0.01464,-0.10248,-0.1708,-0.14152,-0.13664,-0.06832
-0.08296,0.10004,-0.11712,-0.07564,-0.03416,-0.0244,0.03416,-0.09272,-0.24888,-0.20008,-0.1708,-0.10248
-0.10736,0.11712,-0.12688,-0.0732,-0.01952,-0.04392,0.11224,-0.01952,-0.22936,-0.20496,-0.18544,-0.0976
-0.11224,0.1098,-0.10736,-0.05124,0.00488,-0.05856,0.21472,0.05856,-0.0732,-0.10736,-0.14152,-0.08784
0,-0.03172,0.06344,0.06344,0.06344,-0.03172,0.13176,0.0732,0.23424,0.13664,0.03904,0.0488
0.20984,-0.27328,0.33672,0.2318,0.12688,0.04148,-0.15616,0.19032,0.67832,0.5124,0.30744,0.24888
0.47336,-0.55144,0.62952,0.39284,0.15616,0.1586,-0.54656,0.49288,1.25904,0.98088,0.65392,0.50264
0.74176,-0.83448,0.9272,0.55632,0.18544,0.27816,-1.01016,0.81008,1.79584,1.40056,0.96136,0.74176
1.04432,-1.13948,1.23464,0.71248,0.19032,0.427,-1.3664,1.23464,2.46928,1.83976,1.29808,1.0004
1.27856,-1.39812,1.51768,0.8784,0.23912,0.51972,-1.74704,1.2932,2.99144,2.1472,1.54696,1.21024
1.3664,-1.42008,1.47376,0.79056,0.10736,0.62952,-1.85928,1.342,3.25008,2.20088,1.59576,1.26392
1.25416,-1.18584,1.11752,0.49044,-0.13664,0.6954,-1.70312,1.06384,2.928,1.82024,1.37128,1.11264
0.99552,-0.84912,0.70272,0.20496,-0.2928,0.64416,-1.45424,0.46848,2.03008,1.18584,0.976,0.84912
0.6588,-0.5246,0.3904,0.061,-0.2684,0.4636,-1.14192,-0.06832,0.99064,0.61488,0.59048,0.56608
0.31232,-0.2928,0.27328,0.11712,-0.03904,0.17568,-0.86864,-0.69784,0.03416,0.1708,0.25376,0.33184
0.18056,-0.17812,0.17568,0.0854,-0.00488,0.09272,-0.61,-0.56608,-0.23912,-0.01464,0.08296,0.20496
0.13176,-0.12688,0.122,0.05612,-0.00976,0.07076,-0.42456,-0.366,-0.13664,-0.01464,0.0488,0.14152
0.10248,-0.07564,0.0488,-0.00244,-0.05368,0.07808,-0.2684,-0.20984,-0.05856,-0.0244,0.01952,0.09272
0.05856,-0.04636,0.03416,0.00488,-0.0244,0.04148,-0.14152,-0.10248,-0.0244,-0.01952,-0.00976,0.05368
0.0244,-0.02196,0.01952,0.00732,-0.00488,0.01464,-0.06832,-0.06344,-0.01952,-0.0244,-0.03416,0.03904
0.00488,0.00976,-0.0244,-0.02684,-0.02928,0.01708,-0.02928,-0.02928,-0.01952,-0.05368,-0.05368,0.01464
-0.01464,0.03904,-0.06344,-0.05612,-0.0488,0.01708,0.00488,0,-0.03904,-0.06832,-0.06832,-0.01464
-0.02928,0.04636,-0.06344,-0.0488,-0.03416,0.00244,0.03416,0,-0.06832,-0.0732,-0.07808,-0.02928
-0.03416,0.0488,-0.06344,-0.04636,-0.02928,-0.00244,0.04392,-0.00976,-0.0732,-0.08784,-0.08296,-0.02928
-0.03904,0.05368,-0.06832,-0.0488,-0.02928,-0.00488,0.04392,-0.00976,-0.08296,-0.0976,-0.09272,-0.03416
-0.04392,0.06588,-0.08784,-0.06588,-0.04392,0,0.05856,0,-0.09272,-0.0976,-0.10248,-0.04392
-0.04392,0.06588,-0.08784,-0.06588,-0.04392,0,0.06832,0.00488,-0.09272,-0.10248,-0.10736,-0.03904
-0.0488,0.06832,-0.08784,-0.06344,-0.03904,-0.00488,0.08296,0.00976,-0.09272,-0.10248,-0.10736,-0.03904
-0.05368,0.07076,-0.08784,-0.061,-0.03416,-0.00976,0.08784,0.01464,-0.09272,-0.10248,-0.10736,-0.03904
-0.05368,0.0732,-0.09272,-0.06588,-0.03904,-0.00732,0.08296,0.01952,-0.09272,-0.10736,-0.10248,-0.04392
-0.05368,0.0732,-0.09272,-0.06588,-0.03904,-0.00732,0.08784,0.02928,-0.09272,-0.10736,-0.10736,-0.04392
-0.05856,0.07564,-0.09272,-0.06344,-0.03416,-0.0122,0.08296,0.03416,-0.09272,-0.10248,-0.10736,-0.0488
-0.05368,0.0732,-0.09272,-0.06588,-0.03904,-0.00732,0.08784,0.03416,-0.08784,-0.10248,-0.10248,-0.04392
-0.04392,0.06832,-0.09272,-0.07076,-0.0488,0.00244,0.08784,0.03904,-0.08784,-0.10248,-0.0976,-0.04392
-0.04392,0.06832,-0.09272,-0.07076,-0.0488,0.00244,0.08784,0.04392,-0.08296,-0.0976,-0.10248,-0.04392
-0.04392,0.06832,-0.09272,-0.07076,-0.0488,0.00244,0.0976,0.06344,-0.08296,-0.0976,-0.10248,-0.04392
-0.04392,0.06832,-0.09272,-0.07076,-0.0488,0.00244,0.0976,0.06344,-0.08296,-0.09272,-0.0976,-0.03904
-0.0488,0.07076,-0.09272,-0.06832,-0.04392,-0.00244,0.10248,0.05856,-0.07808,-0.09272,-0.10248,-0.03904
-0.0488,0.07076,-0.09272,-0.06832,-0.04392,-0.00244,0.10736,0.05856,-0.0732,-0.09272,-0.10248,-0.03904
-0.0488,0.07076,-0.09272,-0.06832,-0.04392,-0.00244,0.10736,0.06344,-0.0732,-0.09272,-0.11224,-0.04392
-0.0488,0.07076,-0.09272,-0.06832,-0.04392,-0.00244,0.10736,0.06832,-0.0732,-0.09272,-0.10736,-0.03904
-0.04392,0.06832,-0.09272,-0.07076,-0.0488,0.00244,0.10736,0.0732,-0.06832,-0.08784,-0.0976,-0.03904
-0.04392,0.06588,-0.08784,-0.06588,-0.04392,0,0.10736,0.0732,-0.06832,-0.08784,-0.10248,-0.04392
-0.04392,0.06588,-0.08784,-0.06588,-0.04392,0,0.11712,0.0732,-0.06344,-0.09272,-0.10248,-0.03904
-0.04392,0.06588,-0.08784,-0.06588,-0.04392,0,0.11712,0.07808,-0.05856,-0.08784,-0.10248,-0.03904
-0.04392,0.06588,-0.08784,-0.06588,-0.04392,0,0.122,0.08784,-0.06344,-0.08784,-0.0976,-0.03904
-0.03904,0.06344,-0.08784,-0.06832,-0.0488,0.00488,0.12688,0.08784,-0.06344,-0.08296,-0.0976,-0.03904
-0.03904,0.06344,-0.08784,-0.06832,-0.0488,0.00488,0.12688,0.0976,-0.05368,-0.08296,-0.0976,-0.02928
-0.03904,0.06344,-0.08784,-0.06832,-0.0488,0.00488,0.13664,0.0976,-0.0488,-0.08296,-0.0976,-0.02928
-0.0488,0.06588,-0.08296,-0.05856,-0.03416,-0.00732,0.13664,0.10248,-0.04392,-0.08296,-0.08784,-0.03416
-0.0488,0.06588,-0.08296,-0.05856,-0.03416,-0.00732,0.13664,0.11224,-0.04392,-0.08296,-0.09272,-0.03416
-0.03904,0.061,-0.08296,-0.06344,-0.04392,0.00244,0.15128,0.122,-0.04392,-0.08296,-0.10248,-0.02928
-0.03904,0.06344,-0.08784,-0.06832,-0.0488,0.00488,0.15128,0.13176,-0.03904,-0.07808,-0.10248,-0.02928
-0.03904,0.06344,-0.08784,-0.06832,-0.0488,0.00488,0.16104,0.13664,-0.03416,-0.07808,-0.10248,-0.03416
-0.03416,0.05856,-0.08296,-0.06588,-0.0488,0.00732,0.16592,0.15128,-0.02928,-0.07808,-0.10248,-0.02928
-0.03416,0.05856,-0.08296,-0.06588,-0.0488,0.00732,0.18544,0.16104,-0.02928,-0.07808,-0.10248,-0.02928
-0.03416,0.05856,-0.08296,-0.06588,-0.0488,0.00732,0.1952,0.1708,-0.02928,-0.07808,-0.0976,-0.02928
-0.03416,0.05856,-0.08296,-0.06588,-0.0488,0.00732,0.20496,0.19032,-0.0244,-0.07808,-0.08784,-0.02928
-0.03416,0.05856,-0.08296,-0.06588,-0.0488,0.00732,0.2196,0.20008,-0.01464,-0.0732,-0.08784,-0.0244
-0.03904,0.061,-0.08296,-0.06344,-0.04392,0.00244,0.23912,0.2196,-0.01464,-0.07808,-0.08296,-0.0244
-0.03904,0.061,-0.08296,-0.06344,-0.04392,0.00244,0.25376,0.23912,-0.00488,-0.07808,-0.08296,-0.01952
-0.02928,0.05612,-0.08296,-0.06832,-0.05368,0.0122,0.2684,0.25864,0.00488,-0.06344,-0.07808,-0.01464
-0.02928,0.05612,-0.08296,-0.06832,-0.05368,0.0122,0.27816,0.27816,0.00976,-0.05856,-0.07808,-0.00976
-0.03904,0.05612,-0.0732,-0.05368,-0.03416,-0.00244,0.30256,0.2928,0.00976,-0.05856,-0.07808,-0.00976
-0.03416,0.05368,-0.0732,-0.05612,-0.03904,0.00244,0.3172,0.31232,0.0244,-0.0488,-0.06832,-0.00976
-0.03416,0.05124,-0.06832,-0.05124,-0.03416,0,0.32696,0.3416,0.03904,-0.05368,-0.05856,0
-0.02928,0.0488,-0.06832,-0.05368,-0.03904,0.00488,0.3416,0.366,0.0488,-0.05368,-0.05856,0.00488
-0.01952,0.04148,-0.06344,-0.05368,-0.04392,0.0122,0.35624,0.3904,0.05856,-0.03416,-0.05856,0.00976
-0.01464,0.03904,-0.06344,-0.05612,-0.0488,0.01708,0.366,0.40992,0.0732,-0.02928,-0.0488,0.01952
0.00488,0.02928,-0.06344,-0.06588,-0.06832,0.0366,0.37576,0.4392,0.08784,-0.02928,-0.04392,0.00976
0.00976,0.02196,-0.05368,-0.05856,-0.06344,0.0366,0.38064,0.4636,0.09272,-0.01464,-0.03416,0.01952
0.00488,0.0244,-0.05368,-0.05612,-0.05856,0.03172,0.37088,0.47824,0.10736,-0.00488,-0.02928,0.0244
0.01952,0.00976,-0.03904,-0.0488,-0.05856,0.03904,0.37088,0.47824,0.12688,0,-0.01952,0.03416
0.03416,-0.00244,-0.02928,-0.04636,-0.06344,0.0488,0.35624,0.49776,0.13664,0.00976,-0.00976,0.04392
0.04392,-0.00976,-0.0244,-0.04636,-0.06832,0.05612,0.3416,0.50264,0.15128,0.01464,0,0.0488
0.0488,-0.01708,-0.01464,-0.03904,-0.06344,0.05612,0.32696,0.51728,0.17568,0.02928,0.00976,0.06832
0.05856,-0.02684,-0.00488,-0.03416,-0.06344,0.061,0.29768,0.51728,0.18544,0.03904,0.01464,0.06832
0.06344,-0.02928,-0.00488,-0.0366,-0.06832,0.06588,0.2684,0.50264,0.1952,0.03904,0.01952,0.06832
0.06344,-0.03172,0,-0.03172,-0.06344,0.06344,0.23424,0.48312,0.19032,0.04392,0.01952,0.06832
0.06344,-0.03172,0,-0.03172,-0.06344,0.06344,0.21472,0.44896,0.19032,0.04392,0.01952,0.06832
0.05856,-0.03172,0.00488,-0.0244,-0.05368,0.05612,0.19032,0.3904,0.16592,0.03416,0.00488,0.05368
0.0488,-0.02684,0.00488,-0.01952,-0.04392,0.04636,0.15128,0.33672,0.13664,0.01952,-0.01464,0.04392
0.03416,-0.01952,0.00488,-0.0122,-0.02928,0.03172,0.13176,0.28304,0.10248,-0.00488,-0.02928,0.03416
0.01464,-0.00244,-0.00976,-0.01708,-0.0244,0.01952,0.11224,0.2196,0.07808,-0.01464,-0.03904,0.02928
0.00488,0.00732,-0.01952,-0.02196,-0.0244,0.01464,0.08784,0.17568,0.05368,-0.0244,-0.0488,0.01464
0,0.01464,-0.02928,-0.02928,-0.02928,0.01464,0.0732,0.1464,0.01952,-0.03904,-0.06344,0.00488
-0.00976,0.02196,-0.03416,-0.02928,-0.0244,0.00732,0.06344,0.10736,-0.00976,-0.05856,-0.07808,-0.00488
-0.01464,0.0244,-0.03416,-0.02684,-0.01952,0.00244,0.0488,0.08296,-0.0244,-0.06344,-0.08784,-0.01464
-0.01952,0.02928,-0.03904,-0.02928,-0.01952,0,0.03904,0.04392,-0.03904,-0.07808,-0.0976,-0.0244
-0.03904,0.04392,-0.0488,-0.02928,-0.00976,-0.01464,0.02928,0.0244,-0.05856,-0.08784,-0.0976,-0.02928
-0.03416,0.04392,-0.05368,-0.0366,-0.01952,-0.00732,0.01952,0.00976,-0.0732,-0.0976,-0.10736,-0.03416
-0.03904,0.04636,-0.05368,-0.03416,-0.01464,-0.0122,0.01464,0.00488,-0.07808,-0.10248,-0.122,-0.03904
-0.04392,0.05124,-0.05856,-0.0366,-0.01464,-0.01464,0.01464,-0.00488,-0.08784,-0.10736,-0.11712,-0.04392
-0.04392,0.05368,-0.06344,-0.04148,-0.01952,-0.0122,0.00976,-0.00976,-0.0976,-0.10736,-0.11224,-0.03904
-0.0488,0.05612,-0.06344,-0.03904,-0.01464,-0.01708,0.00976,-0.01952,-0.10248,-0.10736,-0.11712,-0.03904
-0.03904,0.05368,-0.06832,-0.0488,-0.02928,-0.00488,0.00488,-0.02928,-0.10248,-0.11224,-0.11712,-0.0488
-0.04392,0.05612,-0.06832,-0.04636,-0.0244,-0.00976,0.00488,-0.03416,-0.10248,-0.122,-0.122,-0.0488
-0.04392,0.05368,-0.06344,-0.04148,-0.01952,-0.0122,0,-0.02928,-0.11712,-0.11712,-0.12688,-0.0488
-0.04392,0.05368,-0.06344,-0.04148,-0.01952,-0.0122,0,-0.03416,-0.11712,-0.11712,-0.13176,-0.05368
-0.04392,0.05368,-0.06344,-0.04148,-0.01952,-0.0122,0,-0.03416,-0.11224,-0.122,-0.13176,-0.05368
-0.04392,0.05368,-0.06344,-0.04148,-0.01952,-0.0122,0,-0.03416,-0.11224,-0.122,-0.12688,-0.05368
-0.03904,0.05612,-0.0732,-0.05368,-0.03416,-0.00244,-0.00488,-0.03904,-0.122,-0.12688,-0.13176,-0.0488
-0.03904,0.05612,-0.0732,-0.05368,-0.03416,-0.00244,-0.00488,-0.03904,-0.122,-0.12688,-0.13176,-0.0488
-0.03904,0.05856,-0.07808,-0.05856,-0.03904,0,-0.00488,-0.03904,-0.122,-0.12688,-0.13176,-0.0488
-0.03904,0.05856,-0.07808,-0.05856,-0.03904,0,-0.00488,-0.03904,-0.122,-0.12688,-0.13176,-0.04392
-0.03904,0.05368,-0.06832,-0.0488,-0.02928,-0.00488,-0.00488,-0.03904,-0.11224,-0.12688,-0.13176,-0.05856
-0.04392,0.05612,-0.06832,-0.04636,-0.0244,-0.00976,-0.00488,-0.03904,-0.11224,-0.122,-0.13176,-0.05856
-0.04392,0.05612,-0.06832,-0.04636,-0.0244,-0.00976,-0.00976,-0.03904,-0.11712,-0.122,-0.13664,-0.0488
-0.0488,0.05856,-0.06832,-0.04392,-0.01952,-0.01464,-0.00976,-0.03904,-0.11712,-0.12688,-0.13176,-0.0488
-0.04392,0.05612,-0.06832,-0.04636,-0.0244,-0.00976,-0.00976,-0.03904,-0.11712,-0.122,-0.13176,-0.0488
-0.04392,0.05612,-0.06832,-0.04636,-0.0244,-0.00976,-0.00976,-0.03904,-0.11712,-0.122,-0.13176,-0.0488
-0.04392,0.061,-0.07808,-0.05612,-0.03416,-0.00488,-0.00976,-0.03904,-0.11712,-0.122,-0.13176,-0.0488
-0.04392,0.061,-0.07808,-0.05612,-0.03416,-0.00488,-0.00976,-0.03904,-0.11224,-0.122,-0.13176,-0.0488
-0.04392,0.061,-0.07808,-0.05612,-0.03416,-0.00488,0,-0.02928,-0.11712,-0.11224,-0.13176,-0.0488
-0.04392,0.061,-0.07808,-0.05612,-0.03416,-0.00488,0,-0.02928,-0.11712,-0.11224,-0.12688,-0.0488
-0.04392,0.05612,-0.06832,-0.04636,-0.0244,-0.00976,0,-0.02928,-0.11712,-0.122,-0.14152,-0.03904
-0.04392,0.05612,-0.06832,-0.04636,-0.0244,-0.00976,0,-0.02928,-0.11712,-0.122,-0.1464,-0.03904
-0.04392,0.05612,-0.06832,-0.04636,-0.0244,-0.00976,0,-0.03416,-0.11712,-0.12688,-0.13664,-0.0488
-0.04392,0.05368,-0.06344,-0.04148,-0.01952,-0.0122,0,-0.03416,-0.11712,-0.122,-0.13664,-0.0488
-0.05368,0.05856,-0.06344,-0.0366,-0.00976,-0.02196,0,-0.03416,-0.11712,-0.122,-0.13176,-0.03904
-0.0488,0.05612,-0.06344,-0.03904,-0.01464,-0.01708,-0.00488,-0.03416,-0.11712,-0.122,-0.13176,-0.03904
-0.03904,0.05124,-0.06344,-0.04392,-0.0244,-0.00732,-0.00488,-0.03416,-0.11712,-0.122,-0.13176,-0.0488
-0.03904,0.05124,-0.06344,-0.04392,-0.0244,-0.00732,-0.00488,-0.03416,-0.11224,-0.11712,-0.12688,-0.0488
-0.0488,0.05612,-0.06344,-0.03904,-0.01464,-0.01708,-0.00488,-0.03416,-0.11224,-0.11712,-0.12688,-0.03416
-0.0488,0.05612,-0.06344,-0.03904,-0.01464,-0.01708,-0.00488,-0.03416,-0.11224,-0.11712,-0.122,-0.03416
-0.03904,0.05124,-0.06344,-0.04392,-0.0244,-0.00732,-0.00488,-0.02928,-0.10736,-0.11712,-0.13176,-0.03416
-0.03904,0.0488,-0.05856,-0.03904,-0.01952,-0.00976,-0.00488,-0.02928,-0.10736,-0.11712,-0.13176,-0.03416
-0.03416,0.04636,-0.05856,-0.04148,-0.0244,-0.00488,-0.00488,-0.02928,-0.11224,-0.12688,-0.13176,-0.04392
-0.03416,0.04636,-0.05856,-0.04148,-0.0244,-0.00488,-0.00488,-0.02928,-0.11224,-0.12688,-0.12688,-0.03904
-0.04392,0.05124,-0.05856,-0.0366,-0.01464,-0.01464,0.00488,-0.03904,-0.11224,-0.12688,-0.13176,-0.03904
-0.04392,0.05124,-0.05856,-0.0366,-0.01464,-0.01464,0.00488,-0.03416,-0.11224,-0.12688,-0.13176,-0.03904
-0.04392,0.05124,-0.05856,-0.0366,-0.01464,-0.01464,0.00976,-0.03416,-0.122,-0.11712,-0.13176,-0.03904
-0.04392,0.05124,-0.05856,-0.0366,-0.01464,-0.01464,0.00976,-0.03416,-0.11712,-0.11224,-0.12688,-0.03904
-0.03416,0.04392,-0.05368,-0.0366,-0.01952,-0.00732,0,-0.03416,-0.11712,-0.122,-0.13176,-0.0488
-0.03416,0.04392,-0.05368,-0.0366,-0.01952,-0.00732,0,-0.03416,-0.11712,-0.122,-0.13176,-0.0488
-0.04392,0.0488,-0.05368,-0.03172,-0.00976,-0.01708,0,-0.02928,-0.11712,-0.11712,-0.13176,-0.0488
-0.04392,0.0488,-0.05368,-0.03172,-0.00976,-0.01708,0,-0.02928,-0.11712,-0.11712,-0.13176,-0.0488
-0.03904,0.0488,-0.05856,-0.03904,-0.01952,-0.00976,0,-0.02928,-0.11712,-0.12688,-0.13176,-0.0488
-0.03904,0.0488,-0.05856,-0.03904,-0.01952,-0.00976,0,-0.02928,-0.11712,-0.12688,-0.13176,-0.0488
-0.03904,0.0488,-0.05856,-0.03904,-0.01952,-0.00976,0,-0.02928,-0.11712,-0.12688,-0.13176,-0.03904
-0.03904,0.0488,-0.05856,-0.03904,-0.01952,-0.00976,0,-0.02928,-0.11712,-0.12688,-0.13176,-0.03904
-0.04392,0.05124,-0.05856,-0.0366,-0.01464,-0.01464,0,-0.03904,-0.11712,-0.11712,-0.13664,-0.03904
-0.04392,0.05124,-0.05856,-0.0366,-0.01464,-0.01464,0,-0.03904,-0.11712,-0.122,-0.13176,-0.03904
-0.04392,0.05612,-0.06832,-0.04636,-0.0244,-0.00976,0,-0.03904,-0.122,-0.12688,-0.122,-0.0488
-0.04392,0.05612,-0.06832,-0.04636,-0.0244,-0.00976,0,-0.03904,-0.122,-0.12688,-0.12688,-0.0488
-0.04392,0.05612,-0.06832,-0.04636,-0.0244,-0.00976,0,-0.04392,-0.12688,-0.12688,-0.13664,-0.03904
-0.04392,0.05856,-0.0732,-0.05124,-0.02928,-0.00732,0,-0.04392,-0.13176,-0.12688,-0.13664,-0.04392
-0.03416,0.0488,-0.06344,-0.04636,-0.02928,-0.00244,0,-0.04392,-0.12688,-0.122,-0.13664,-0.04392
-0.03416,0.0488,-0.06344,-0.04636,-0.02928,-0.00244,-0.00488,-0.0488,-0.12688,-0.12688,-0.13664,-0.04392
-0.03416,0.0488,-0.06344,-0.04636,-0.02928,-0.00244,-0.00488,-0.0488,-0.14152,-0.13664,-0.13664,-0.04392
-0.03416,0.05124,-0.06832,-0.05124,-0.03416,0,-0.00488,-0.05368,-0.14152,-0.13664,-0.13664,-0.04392
-0.0488,0.05856,-0.06832,-0.04392,-0.01952,-0.01464,-0.00488,-0.05368,-0.14152,-0.13664,-0.1464,-0.05368
-0.0488,0.05856,-0.06832,-0.04392,-0.01952,-0.01464,-0.00488,-0.05368,-0.1464,-0.13664,-0.14152,-0.05368
-0.0488,0.05856,-0.06832,-0.04392,-0.01952,-0.01464,-0.01464,-0.05368,-0.1464,-0.13664,-0.1464,-0.05368
-0.0488,0.05856,-0.06832,-0.04392,-0.01952,-0.01464,-0.01464,-0.05856,-0.15128,-0.13664,-0.1464,-0.05368
-0.03904,0.05368,-0.06832,-0.0488,-0.02928,-0.00488,-0.01464,-0.05856,-0.14152,-0.13664,-0.14152,-0.05856
-0.03904,0.05368,-0.06832,-0.0488,-0.02928,-0.00488,-0.01464,-0.05856,-0.1464,-0.13664,-0.14152,-0.05856
-0.03904,0.0488,-0.05856,-0.03904,-0.01952,-0.00976,-0.01464,-0.06344,-0.1464,-0.15128,-0.15128,-0.05856
-0.03904,0.0488,-0.05856,-0.03904,-0.01952,-0.00976,-0.01464,-0.06344,-0.1464,-0.15128,-0.15128,-0.05856
-0.05368,0.05612,-0.05856,-0.03172,-0.00488,-0.0244,-0.01464,-0.06344,-0.15616,-0.15128,-0.15616,-0.05856
-0.05368,0.05612,-0.05856,-0.03172,-0.00488,-0.0244,-0.01464,-0.06832,-0.15128,-0.15128,-0.15616,-0.06344
-0.04392,0.05124,-0.05856,-0.0366,-0.01464,-0.01464,-0.01464,-0.06344,-0.15616,-0.15128,-0.1464,-0.06344
-0.04392,0.05124,-0.05856,-0.0366,-0.01464,-0.01464,-0.01952,-0.06344,-0.15616,-0.15128,-0.1464,-0.06344
-0.04392,0.05368,-0.06344,-0.04148,-0.01952,-0.0122,-0.01952,-0.06344,-0.1464,-0.1464,-0.1464,-0.06344
-0.04392,0.05368,-0.06344,-0.04148,-0.01952,-0.0122,-0.01952,-0.06832,-0.15128,-0.1464,-0.1464,-0.06344
-0.04392,0.05368,-0.06344,-0.04148,-0.01952,-0.0122,-0.01952,-0.06832,-0.15128,-0.1464,-0.15128,-0.06344
-0.04392,0.05368,-0.06344,-0.04148,-0.01952,-0.0122,-0.01952,-0.06832,-0.15128,-0.1464,-0.15128,-0.06344
-0.04392,0.05368,-0.06344,-0.04148,-0.01952,-0.0122,-0.01952,-0.06832,-0.15128,-0.15616,-0.15128,-0.06344
-0.04392,0.05368,-0.06344,-0.04148,-0.01952,-0.0122,-0.01952,-0.0732,-0.15128,-0.15616,-0.15128,-0.06344
-0.05368,0.061,-0.06832,-0.04148,-0.01464,-0.01952,-0.01952,-0.06344,-0.15128,-0.1464,-0.15128,-0.06344
-0.05368,0.061,-0.06832,-0.04148,-0.01464,-0.01952,-0.01952,-0.06344,-0.15616,-0.1464,-0.15128,-0.06344
-0.0488,0.05856,-0.06832,-0.04392,-0.01952,-0.01464,-0.01952,-0.0732,-0.15616,-0.1464,-0.15128,-0.06344
-0.05368,0.061,-0.06832,-0.04148,-0.01464,-0.01952,-0.0244,-0.07808,-0.15616,-0.1464,-0.15128,-0.06344
-0.04392,0.05612,-0.06832,-0.04636,-0.0244,-0.00976,-0.00976,-0.07808,-0.15616,-0.1464,-0.15128,-0.06344
-0.04392,0.05856,-0.0732,-0.05124,-0.02928,-0.00732,-0.00976,-0.07808,-0.15616,-0.1464,-0.15128,-0.06344
-0.04392,0.05856,-0.0732,-0.05124,-0.02928,-0.00732,-0.01952,-0.07808,-0.16104,-0.1464,-0.15128,-0.06344
-0.04392,0.05856,-0.0732,-0.05124,-0.02928,-0.00732,-0.01952,-0.07808,-0.16104,-0.1464,-0.15128,-0.06344
-0.04392,0.05368,-0.06344,-0.04148,-0.01952,-0.0122,-0.00976,-0.07808,-0.16104,-0.14152,-0.15128,-0.06344
-0.04392,0.05368,-0.06344,-0.04148,-0.01952,-0.0122,-0.00976,-0.08296,-0.16104,-0.13664,-0.15128,-0.06344
-0.04392,0.05368,-0.06344,-0.04148,-0.01952,-0.0122,-0.01952,-0.08296,-0.15128,-0.1464,-0.14152,-0.06344
-0.0488,0.05612,-0.06344,-0.03904,-0.01464,-0.01708,-0.01952,-0.08296,-0.15128,-0.15128,-0.14152,-0.06344
-0.04392,0.05612,-0.06832,-0.04636,-0.0244,-0.00976,-0.01952,-0.08296,-0.16104,-0.15128,-0.14152,-0.06344
-0.04392,0.05612,-0.06832,-0.04636,-0.0244,-0.00976,-0.0244,-0.08296,-0.16104,-0.15128,-0.14152,-0.06344
-0.05368,0.05612,-0.05856,-0.03172,-0.00488,-0.0244,-0.0244,-0.08296,-0.16104,-0.15128,-0.15128,-0.06344
-0.05368,0.05856,-0.06344,-0.0366,-0.00976,-0.02196,-0.0244,-0.08784,-0.16104,-0.15128,-0.15128,-0.06344
-0.05368,0.05856,-0.06344,-0.0366,-0.00976,-0.02196,-0.0244,-0.08296,-0.16104,-0.15128,-0.14152,-0.06344
-0.05368,0.05856,-0.06344,-0.0366,-0.00976,-0.02196,-0.0244,-0.08296,-0.16104,-0.15128,-0.14152,-0.06344
-0.05368,0.05856,-0.06344,-0.0366,-0.00976,-0.02196,-0.0244,-0.08296,-0.16104,-0.15128,-0.14152,-0.05368
-0.05368,0.05612,-0.05856,-0.03172,-0.00488,-0.0244,-0.01952,-0.09272,-0.15616,-0.14152,-0.13176,-0.06344
-0.0488,0.05368,-0.05856,-0.03416,-0.00976,-0.01952,-0.01952,-0.08784,-0.15616,-0.1464,-0.1464,-0.06832
-0.0488,0.05856,-0.06832,-0.04392,-0.01952,-0.01464,-0.01952,-0.08784,-0.15616,-0.1464,-0.1464,-0.06832
-0.0488,0.05856,-0.06832,-0.04392,-0.01952,-0.01464,-0.01952,-0.08784,-0.15616,-0.1464,-0.1464,-0.06832
-0.05856,0.06344,-0.06832,-0.03904,-0.00976,-0.0244,-0.01952,-0.0976,-0.16592,-0.15616,-0.1464,-0.05856
-0.05856,0.06344,-0.06832,-0.03904,-0.00976,-0.0244,-0.01952,-0.0976,-0.16592,-0.15616,-0.1464,-0.05856
-0.0488,0.05856,-0.06832,-0.04392,-0.01952,-0.01464,-0.01952,-0.0976,-0.16592,-0.15616,-0.1464,-0.05856
-0.0488,0.05856,-0.06832,-0.04392,-0.01952,-0.01464,-0.01952,-0.0976,-0.16592,-0.15616,-0.1464,-0.05856
-0.0488,0.05856,-0.06832,-0.04392,-0.01952,-0.01464,-0.02928,-0.0976,-0.16592,-0.1464,-0.13664,-0.06832
-0.0488,0.05856,-0.06832,-0.04392,-0.01952,-0.01464,-0.02928,-0.0976,-0.16592,-0.1464,-0.13664,-0.06832
-0.05856,0.05856,-0.05856,-0.02928,0,-0.02928,-0.01952,-0.0976,-0.16592,-0.1464,-0.1464,-0.06832
-0.05856,0.05856,-0.05856,-0.02928,0,-0.02928,-0.01952,-0.0976,-0.16592,-0.1464,-0.1464,-0.06832
-0.05856,0.05856,-0.05856,-0.02928,0,-0.02928,-0.01952,-0.0976,-0.16592,-0.1464,-0.1464,-0.06832
-0.05856,0.05856,-0.05856,-0.02928,0,-0.02928,-0.01952,-0.0976,-0.16592,-0.1464,-0.1464,-0.06832
-0.05856,0.06344,-0.06832,-0.03904,-0.00976,-0.0244,-0.01952,-0.10736,-0.15616,-0.1464,-0.13664,-0.06832
-0.05856,0.06344,-0.06832,-0.03904,-0.00976,-0.0244,-0.01952,-0.10736,-0.15616,-0.1464,-0.13664,-0.06832
-0.0488,0.05856,-0.06832,-0.04392,-0.01952,-0.01464,-0.01952,-0.0976,-0.16592,-0.1464,-0.13664,-0.06832
-0.0488,0.05856,-0.06832,-0.04392,-0.01952,-0.01464,-0.01952,-0.0976,-0.16592,-0.1464,-0.13664,-0.06832
-0.05856,0.06344,-0.06832,-0.03904,-0.00976,-0.0244,-0.01952,-0.0976,-0.16592,-0.1464,-0.12688,-0.05856
-0.05856,0.06344,-0.06832,-0.03904,-0.00976,-0.0244,-0.01952,-0.0976,-0.16592,-0.1464,-0.12688,-0.05856
-0.05856,0.06344,-0.06832,-0.03904,-0.00976,-0.0244,-0.02928,-0.10736,-0.17568,-0.1464,-0.13664,-0.05856
-0.05856,0.06344,-0.06832,-0.03904,-0.00976,-0.0244,-0.02928,-0.10736,-0.17568,-0.1464,-0.13664,-0.05856
-0.05856,0.06344,-0.06832,-0.03904,-0.00976,-0.0244,-0.01952,-0.10736,-0.16592,-0.1464,-0.13664,-0.05856
-0.05856,0.06344,-0.06832,-0.03904,-0.00976,-0.0244,-0.01952,-0.10736,-0.16592,-0.1464,-0.13664,-0.05856
-0.05856,0.05856,-0.05856,-0.02928,0,-0.02928,-0.02928,-0.10736,-0.16592,-0.13664,-0.13664,-0.05856
-0.05856,0.05856,-0.05856,-0.02928,0,-0.02928,-0.02928,-0.10736,-0.16592,-0.13664,-0.13664,-0.05856
-0.05856,0.05856,-0.05856,-0.02928,0,-0.02928,-0.02928,-0.11712,-0.16592,-0.1464,-0.13664,-0.06832
-0.05856,0.05856,-0.05856,-0.02928,0,-0.02928,-0.02928,-0.11712,-0.16592,-0.1464,-0.13664,-0.06832
-0.05856,0.05856,-0.05856,-0.02928,0,-0.02928,-0.02928,-0.11712,-0.16592,-0.1464,-0.12688,-0.05856
-0.05856,0.05856,-0.05856,-0.02928,0,-0.02928,-0.02928,-0.11712,-0.16592,-0.1464,-0.12688,-0.05856
-0.05856,0.05856,-0.05856,-0.02928,0,-0.02928,-0.02928,-0.11712,-0.16592,-0.13664,-0.13664,-0.05856
-0.05856,0.05856,-0.05856,-0.02928,0,-0.02928,-0.02928,-0.11712,-0.16592,-0.13664,-0.13664,-0.05856
-0.05856,0.05856,-0.05856,-0.02928,0,-0.02928,-0.01952,-0.11712,-0.15616,-0.12688,-0.12688,-0.05856
-0.05856,0.05856,-0.05856,-0.02928,0,-0.02928,-0.01952,-0.11712,-0.15616,-0.12688,-0.12688,-0.05856
-0.05856,0.06344,-0.06832,-0.03904,-0.00976,-0.0244,-0.01952,-0.11712,-0.15616,-0.12688,-0.12688,-0.05856
-0.05856,0.06344,-0.06832,-0.03904,-0.00976,-0.0244,-0.01952,-0.11712,-0.15616,-0.12688,-0.12688,-0.05856
-0.0488,0.05856,-0.06832,-0.04392,-0.01952,-0.01464,-0.02928,-0.11712,-0.15616,-0.12688,-0.12688,-0.06832
-0.0488,0.05856,-0.06832,-0.04392,-0.01952,-0.01464,-0.02928,-0.11712,-0.15616,-0.12688,-0.12688,-0.06832
-0.0488,0.05368,-0.05856,-0.03416,-0.00976,-0.01952,-0.02928,-0.11712,-0.15616,-0.12688,-0.11712,-0.05856
-0.0488,0.05368,-0.05856,-0.03416,-0.00976,-0.01952,-0.02928,-0.11712,-0.15616,-0.12688,-0.11712,-0.05856
-0.0488,0.05368,-0.05856,-0.03416,-0.00976,-0.01952,-0.03904,-0.11712,-0.15616,-0.12688,-0.11712,-0.05856
-0.0488,0.05368,-0.05856,-0.03416,-0.00976,-0.01952,-0.03904,-0.11712,-0.15616,-0.12688,-0.11712,-0.05856
-0.0488,0.05368,-0.05856,-0.03416,-0.00976,-0.01952,-0.02928,-0.12688,-0.15616,-0.12688,-0.11712,-0.05856
-0.0488,0.05368,-0.05856,-0.03416,-0.00976,-0.01952,-0.02928,-0.12688,-0.15616,-0.12688,-0.11712,-0.05856
-0.05856,0.06344,-0.06832,-0.03904,-0.00976,-0.0244,-0.02928,-0.12688,-0.15616,-0.12688,-0.11712,-0.05856
-0.05856,0.06344,-0.06832,-0.03904,-0.00976,-0.0244,-0.02928,-0.12688,-0.15616,-0.12688,-0.11712,-0.05856
-0.05856,0.05856,-0.05856,-0.02928,0,-0.02928,-0.02928,-0.12688,-0.16592,-0.12688,-0.10736,-0.05856
-0.05856,0.05856,-0.05856,-0.02928,0,-0.02928,-0.02928,-0.12688,-0.16592,-0.12688,-0.10736,-0.05856
-0.05856,0.05856,-0.05856,-0.02928,0,-0.02928,-0.02928,-0.12688,-0.16592,-0.13664,-0.11712,-0.05856
-0.05856,0.05856,-0.05856,-0.02928,0,-0.02928,-0.02928,-0.12688,-0.16592,-0.13664,-0.11712,-0.05856
-0.05856,0.05856,-0.05856,-0.02928,0,-0.02928,-0.02928,-0.12688,-0.15616,-0.12688,-0.11712,-0.05856
-0.05856,0.05856,-0.05856,-0.02928,0,-0.02928,-0.02928,-0.12688,-0.15616,-0.12688,-0.11712,-0.05856
-0.05856,0.05856,-0.05856,-0.02928,0,-0.02928,-0.02928,-0.12688,-0.1464,-0.11712,-0.10736,-0.05856
-0.05856,0.05856,-0.05856,-0.02928,0,-0.02928,-0.02928,-0.12688,-0.1464,-0.11712,-0.10736,-0.05856
-0.05856,0.05612,-0.05368,-0.0244,0.00488,-0.03172,-0.02928,-0.12688,-0.15616,-0.122,-0.10736,-0.04392
-0.05856,0.05612,-0.05368,-0.0244,0.00488,-0.03172,-0.01952,-0.12688,-0.15128,-0.122,-0.10736,-0.04392
-0.05368,0.05368,-0.05368,-0.02684,0,-0.02684,-0.01464,-0.122,-0.1464,-0.11224,-0.0976,-0.05368
-0.05368,0.04636,-0.03904,-0.0122,0.01464,-0.03416,-0.00976,-0.11224,-0.13664,-0.11224,-0.09272,-0.05368
-0.05856,0.04392,-0.02928,0,0.02928,-0.04392,-0.00488,-0.11712,-0.13176,-0.10736,-0.09272,-0.0488
-0.04392,0.03172,-0.01952,0.00244,0.0244,-0.03416,0,-0.10736,-0.122,-0.09272,-0.07808,-0.0488
-0.03416,0.01708,0,0.01708,0.03416,-0.03416,0.00488,-0.10736,-0.11712,-0.08296,-0.08784,-0.04392
-0.02928,0.0122,0.00488,0.01952,0.03416,-0.03172,0.00976,-0.0976,-0.11224,-0.08784,-0.08296,-0.04392
-0.02928,0.01464,0,0.01464,0.02928,-0.02928,0.0244,-0.08784,-0.11224,-0.08784,-0.0732,-0.03904
-0.02928,0.0122,0.00488,0.01952,0.03416,-0.03172,0.0244,-0.08296,-0.10736,-0.08784,-0.0732,-0.03904
-0.01952,0.00732,0.00488,0.01464,0.0244,-0.02196,0.0244,-0.08296,-0.10736,-0.07808,-0.06832,-0.03416
-0.01464,0.00488,0.00488,0.0122,0.01952,-0.01708,0.01464,-0.08784,-0.10736,-0.0732,-0.06832,-0.03416
-0.00976,0,0.00976,0.01464,0.01952,-0.01464,-0.0244,-0.10248,-0.10736,-0.0732,-0.06344,-0.0244
0.00488,-0.0122,0.01952,0.01708,0.01464,-0.00488,-0.0488,-0.11224,-0.10736,-0.06832,-0.05856,-0.0244
0.00976,-0.01464,0.01952,0.01464,0.00976,0,-0.03904,-0.11712,-0.10736,-0.05856,-0.0488,-0.01464
0.01464,-0.02196,0.02928,0.02196,0.01464,0,-0.0488,-0.11712,-0.10736,-0.05368,-0.03904,-0.00976
0.01464,-0.02196,0.02928,0.02196,0.01464,0,-0.05368,-0.13176,-0.11712,-0.06832,-0.0488,-0.00976
0.01952,-0.02196,0.0244,0.01464,0.00488,0.00732,-0.05856,-0.13664,-0.122,-0.06832,-0.04392,-0.01464
0.01464,-0.01464,0.01464,0.00732,0,0.00732,-0.07808,-0.14152,-0.13176,-0.06832,-0.03904,-0.01464
0.01464,-0.00976,0.00488,-0.00244,-0.00976,0.0122,-0.07808,-0.14152,-0.13664,-0.07808,-0.0488,-0.01464
0.00976,0.00244,-0.01464,-0.01952,-0.0244,0.01708,-0.07808,-0.14152,-0.15616,-0.09272,-0.06344,-0.01952
0.01464,0.00488,-0.0244,-0.03172,-0.03904,0.02684,-0.07808,-0.14152,-0.15616,-0.09272,-0.05856,-0.0244
0.01464,0.00488,-0.0244,-0.03172,-0.03904,0.02684,-0.07808,-0.15128,-0.15128,-0.10248,-0.06344,-0.02928
0.00976,0.00976,-0.02928,-0.03416,-0.03904,0.0244,-0.08296,-0.15128,-0.15128,-0.0976,-0.06344,-0.02928
-0.00488,0.01952,-0.03416,-0.03172,-0.02928,0.0122,-0.0732,-0.14152,-0.1464,-0.08784,-0.06832,-0.03904
-0.0244,0.02928,-0.03416,-0.02196,-0.00976,-0.00732,-0.05856,-0.13176,-0.14152,-0.08296,-0.06832,-0.03904
-0.04392,0.04392,-0.04392,-0.02196,0,-0.02196,-0.0488,-0.13176,-0.14152,-0.08784,-0.06832,-0.0488
-0.05856,0.05856,-0.05856,-0.02928,0,-0.02928,-0.04392,-0.14152,-0.15128,-0.0976,-0.07808,-0.05856
-0.06832,0.06588,-0.06344,-0.02928,0.00488,-0.0366,-0.0488,-0.16592,-0.1708,-0.122,-0.08784,-0.05368
-0.06832,0.07076,-0.0732,-0.03904,-0.00488,-0.03172,-0.05368,-0.17568,-0.18056,-0.12688,-0.08784,-0.05368
-0.05856,0.06344,-0.06832,-0.03904,-0.00976,-0.0244,-0.06344,-0.18056,-0.18056,-0.12688,-0.08784,-0.05368
-0.05368,0.05856,-0.06344,-0.0366,-0.00976,-0.02196,-0.06344,-0.17568,-0.18056,-0.12688,-0.09272,-0.05368
-0.06832,0.0732,-0.07808,-0.04392,-0.00976,-0.02928,-0.06344,-0.15616,-0.16592,-0.11712,-0.09272,-0.05856
-0.0732,0.0732,-0.0732,-0.0366,0,-0.0366,-0.05856,-0.15128,-0.16104,-0.11712,-0.09272,-0.05368
-0.0732,0.0732,-0.0732,-0.0366,0,-0.0366,-0.04392,-0.15128,-0.16104,-0.11712,-0.09272,-0.05368
-0.07808,0.07564,-0.0732,-0.03416,0.00488,-0.04148,-0.04392,-0.15128,-0.16104,-0.11712,-0.09272,-0.05856
-0.07808,0.07564,-0.0732,-0.03416,0.00488,-0.04148,-0.0488,-0.1464,-0.16104,-0.10736,-0.08296,-0.05856
-0.08296,0.07564,-0.06832,-0.02684,0.01464,-0.0488,-0.0488,-0.14152,-0.16104,-0.10248,-0.08296,-0.05856
-0.08296,0.07076,-0.05856,-0.01708,0.0244,-0.05368,-0.03904,-0.13664,-0.16592,-0.10248,-0.08296,-0.05856
-0.08296,0.07076,-0.05856,-0.01708,0.0244,-0.05368,-0.03416,-0.13664,-0.15616,-0.0976,-0.08296,-0.05856
-0.0732,0.06344,-0.05368,-0.01708,0.01952,-0.04636,-0.03416,-0.13176,-0.14152,-0.0976,-0.0732,-0.05856
-0.08296,0.06832,-0.05368,-0.0122,0.02928,-0.05612,-0.01952,-0.12688,-0.15128,-0.10248,-0.08296,-0.06832
-0.11224,0.08784,-0.06344,-0.00732,0.0488,-0.08052,0,-0.122,-0.22936,-0.16592,-0.12688,-0.09272
-0.12688,0.10736,-0.08784,-0.0244,0.03904,-0.08296,0.04392,-0.05856,-0.24888,-0.20008,-0.1464,-0.10736
-0.12688,0.10492,-0.08296,-0.01952,0.04392,-0.0854,0.14152,0.0244,-0.11712,-0.13176,-0.11712,-0.0976
-0.0732,0.02684,0.01952,0.05612,0.09272,-0.08296,0.1708,0.02928,0.13664,0.08296,0.00488,-0.01464
0.07808,-0.16348,0.24888,0.20984,0.1708,-0.04636,-0.0244,0.03416,0.52704,0.40992,0.24888,0.1708
0.29768,-0.41236,0.52704,0.3782,0.22936,0.03416,-0.27328,0.20984,1.02968,0.85888,0.57096,0.41968
0.5368,-0.66368,0.79056,0.52216,0.25376,0.14152,-0.71736,0.3904,1.55184,1.3176,0.90768,0.66368
0.81496,-0.95648,1.098,0.69052,0.28304,0.26596,-1.1224,0.61976,2.1716,1.78608,1.25416,0.91744
1.0736,-1.25416,1.43472,0.89792,0.36112,0.35624,-1.57624,0.66368,2.77672,2.19112,1.54696,1.15656
1.20536,-1.38104,1.55672,0.95404,0.35136,0.427,-1.86416,0.47824,3.1232,2.34728,1.6836,1.2932
1.17608,-1.22732,1.27856,0.69052,0.10248,0.5368,-1.82024,0.33672,3.13296,2.15208,1.57624,1.20536
0.95648,-0.91012,0.86376,0.38552,-0.09272,0.5246,-1.586,-0.11712,2.45464,1.57136,1.22488,0.96136
0.6588,-0.57584,0.49288,0.16348,-0.16592,0.41236,-1.2688,-0.36112,1.40056,0.89792,0.78568,0.66368
0.29768,-0.28792,0.27816,0.12932,-0.01952,0.1586,-0.9516,-0.7808,0.25864,0.31232,0.37088,0.38064
0.12688,-0.15372,0.18056,0.11712,0.05368,0.0366,-0.67832,-0.74176,-0.28304,-0.00488,0.13664,0.20496
0.0976,-0.11956,0.14152,0.09272,0.04392,0.02684,-0.49288,-0.5612,-0.23424,-0.0244,0.08784,0.14152
0.05368,-0.06588,0.07808,0.05124,0.0244,0.01464,-0.32696,-0.33672,-0.11224,0.00488,0.06344,0.10248
0.03416,-0.0488,0.06344,0.04636,0.02928,0.00244,-0.20496,-0.20008,-0.04392,0.00488,0.04392,0.06832
0.00488,-0.02928,0.05368,0.05124,0.0488,-0.02196,-0.11224,-0.14152,-0.01952,0.00488,0.02928,0.03416
-0.00488,-0.01708,0.03904,0.04148,0.04392,-0.0244,-0.06832,-0.10736,-0.01952,0,0.01464,0.01952
-0.03416,0.01952,-0.00488,0.0122,0.02928,-0.03172,-0.03416,-0.07808,-0.01952,-0.00488,-0.00488,-0.00488
-0.03904,0.02684,-0.01464,0.00488,0.0244,-0.03172,0,-0.05856,-0.03416,-0.01952,-0.01464,-0.00488
-0.04392,0.02928,-0.01464,0.00732,0.02928,-0.0366,0.01464,-0.0488,-0.05856,-0.0244,-0.01952,-0.00488
-0.05856,0.04148,-0.0244,0.00488,0.03416,-0.04636,0.01464,-0.0488,-0.07808,-0.04392,-0.01952,-0.01952
-0.06832,0.05124,-0.03416,0,0.03416,-0.05124,0.01952,-0.03904,-0.08296,-0.0488,-0.0244,-0.02928
-0.0732,0.061,-0.0488,-0.0122,0.0244,-0.0488,0.03416,-0.03416,-0.08296,-0.0488,-0.02928,-0.0244
-0.0732,0.061,-0.0488,-0.0122,0.0244,-0.0488,0.04392,-0.02928,-0.08296,-0.05368,-0.02928,-0.01952
-0.0732,0.05612,-0.03904,-0.00244,0.03416,-0.05368,0.05856,-0.0244,-0.08296,-0.05368,-0.02928,-0.01952
-0.0732,0.05856,-0.04392,-0.00732,0.02928,-0.05124,0.05368,-0.01952,-0.08296,-0.05856,-0.03416,-0.0244
-0.0732,0.05856,-0.04392,-0.00732,0.02928,-0.05124,0.05856,-0.01952,-0.0732,-0.0488,-0.02928,-0.0244
-0.07808,0.061,-0.04392,-0.00488,0.03416,-0.05612,0.06344,-0.00488,-0.0732,-0.0488,-0.02928,-0.02928
-0.0732,0.05856,-0.04392,-0.00732,0.02928,-0.05124,0.07808,-0.00488,-0.06832,-0.03416,-0.01464,-0.0244
-0.0732,0.05856,-0.04392,-0.00732,0.02928,-0.05124,0.07808,-0.00488,-0.06832,-0.03416,-0.01464,-0.0244
-0.06344,0.05368,-0.04392,-0.0122,0.01952,-0.04148,0.06832,0,-0.06344,-0.03904,-0.00976,-0.0244
-0.06344,0.05368,-0.04392,-0.0122,0.01952,-0.04148,0.06832,0.00488,-0.06344,-0.03904,-0.01464,-0.0244
-0.06344,0.0488,-0.03416,-0.00244,0.02928,-0.04636,0.06832,0.01464,-0.05368,-0.03416,-0.00976,-0.01464
-0.06344,0.0488,-0.03416,-0.00244,0.02928,-0.04636,0.0732,0.01464,-0.05368,-0.03416,-0.01464,-0.00976
-0.06832,0.05124,-0.03416,0,0.03416,-0.05124,0.08784,0.02928,-0.0488,-0.03416,-0.01464,-0.00976
-0.06832,0.05124,-0.03416,0,0.03416,-0.05124,0.08784,0.03416,-0.04392,-0.03416,-0.01464,-0.00976
-0.06832,0.05612,-0.04392,-0.00976,0.0244,-0.04636,0.08784,0.0244,-0.04392,-0.03416,-0.00488,-0.0244
-0.06832,0.05612,-0.04392,-0.00976,0.0244,-0.04636,0.09272,0.02928,-0.04392,-0.03416,0,-0.01952
-0.06344,0.05124,-0.03904,-0.00732,0.0244,-0.04392,0.08784,0.03416,-0.03904,-0.01952,-0.00488,-0.01952
-0.06344,0.05124,-0.03904,-0.00732,0.0244,-0.04392,0.08784,0.03416,-0.03416,-0.0244,-0.00488,-0.0244
-0.05368,0.05124,-0.0488,-0.02196,0.00488,-0.02928,0.0976,0.03904,-0.02928,-0.01952,-0.00488,-0.00976
-0.05368,0.05124,-0.0488,-0.02196,0.00488,-0.02928,0.10248,0.0488,-0.02928,-0.01952,0,-0.00976
-0.06344,0.05124,-0.03904,-0.00732,0.0244,-0.04392,0.09272,0.0488,-0.0244,-0.01952,0,-0.00976
-0.05856,0.0488,-0.03904,-0.00976,0.01952,-0.03904,0.0976,0.05856,-0.0244,-0.01464,0,-0.00976
-0.05856,0.0488,-0.03904,-0.00976,0.01952,-0.03904,0.0976,0.05856,-0.0244,-0.01464,0,-0.00976
-0.05856,0.0488,-0.03904,-0.00976,0.01952,-0.03904,0.10736,0.06344,-0.01464,-0.01464,0.00488,-0.00488
-0.05856,0.04636,-0.03416,-0.00488,0.0244,-0.04148,0.11712,0.0732,-0.01464,-0.01464,0.00976,-0.00488
-0.05856,0.04636,-0.03416,-0.00488,0.0244,-0.04148,0.11712,0.07808,-0.01464,-0.01464,0.00488,-0.00488
-0.05856,0.04636,-0.03416,-0.00488,0.0244,-0.04148,0.13176,0.08784,-0.01464,-0.01464,0.00488,0
-0.05856,0.0488,-0.03904,-0.00976,0.01952,-0.03904,0.14152,0.0976,-0.00976,-0.00976,0.00488,-0.00488
-0.05856,0.04392,-0.02928,0,0.02928,-0.04392,0.14152,0.11712,0,-0.00976,0.01464,0
-0.05368,0.03904,-0.0244,0.00244,0.02928,-0.04148,0.15128,0.12688,0,-0.00976,0.01464,0
-0.05368,0.03904,-0.0244,0.00244,0.02928,-0.04148,0.1708,0.13664,0.00976,0,0.01464,0
-0.05368,0.03904,-0.0244,0.00244,0.02928,-0.04148,0.18056,0.1464,0.00976,0,0.01952,0
-0.05368,0.03904,-0.0244,0.00244,0.02928,-0.04148,0.19032,0.16592,0.01952,0,0.01952,0.00488
-0.05368,0.03904,-0.0244,0.00244,0.02928,-0.04148,0.20984,0.18056,0.0244,0.00976,0.01952,0.00488
-0.0488,0.0366,-0.0244,0,0.0244,-0.0366,0.2196,0.20984,0.03904,0,0.0244,0.00976
-0.0488,0.0366,-0.0244,0,0.0244,-0.0366,0.23424,0.22936,0.04392,0.00488,0.0244,0.01464
-0.0488,0.0366,-0.0244,0,0.0244,-0.0366,0.25864,0.24888,0.05856,0.00488,0.01952,0.00488
-0.0488,0.0366,-0.0244,0,0.0244,-0.0366,0.27328,0.2684,0.06344,0.00976,0.02928,0.00976
-0.03416,0.0244,-0.01464,0.00244,0.01952,-0.02684,0.2928,0.2928,0.06832,0.01464,0.02928,0.00976
-0.03416,0.0244,-0.01464,0.00244,0.01952,-0.02684,0.30256,0.3172,0.08296,0.0244,0.03904,0.01464
-0.02928,0.0244,-0.01952,-0.00488,0.00976,-0.01952,0.31232,0.34648,0.09272,0.03416,0.0488,0.02928
-0.0244,0.02196,-0.01952,-0.00732,0.00488,-0.01464,0.33184,0.37576,0.10248,0.03416,0.0488,0.03904
-0.0244,0.01952,-0.01464,-0.00244,0.00976,-0.01708,0.3416,0.40504,0.122,0.04392,0.05368,0.02928
-0.01464,0.01464,-0.01464,-0.00732,0,-0.00732,0.35136,0.41968,0.15128,0.05368,0.06344,0.03904
-0.00488,0.00732,-0.00976,-0.00732,-0.00488,0,0.36112,0.4392,0.16104,0.05368,0.07808,0.04392
0,0.00244,-0.00488,-0.00488,-0.00488,0.00244,0.36112,0.4636,0.16104,0.06832,0.08784,0.0488
0.00488,0,-0.00488,-0.00732,-0.00976,0.00732,0.37088,0.47824,0.18544,0.08296,0.0976,0.05368
0.00976,-0.00732,0.00488,0,-0.00488,0.00732,0.36112,0.488,0.2196,0.09272,0.11224,0.06832
0.01952,-0.01708,0.01464,0.00488,-0.00488,0.0122,0.35624,0.488,0.2196,0.10248,0.11224,0.07808
0.03416,-0.02684,0.01952,0.00244,-0.01464,0.0244,0.3416,0.49288,0.22448,0.10736,0.122,0.08296
0.03416,-0.03172,0.02928,0.0122,-0.00488,0.01952,0.30744,0.488,0.25376,0.122,0.13176,0.08784
0.04392,-0.03904,0.03416,0.0122,-0.00976,0.02684,0.27816,0.488,0.26352,0.12688,0.13176,0.09272
0.04392,-0.03904,0.03416,0.0122,-0.00976,0.02684,0.25864,0.4636,0.27328,0.12688,0.13664,0.0976
0.04392,-0.04148,0.03904,0.01708,-0.00488,0.0244,0.22936,0.4392,0.2684,0.13176,0.13664,0.0976
0.04392,-0.04148,0.03904,0.01708,-0.00488,0.0244,0.20496,0.38552,0.24888,0.11712,0.12688,0.07808
0.03416,-0.03904,0.04392,0.02684,0.00976,0.0122,0.17568,0.32208,0.21472,0.11224,0.11712,0.06832
0.01464,-0.03416,0.05368,0.04636,0.03904,-0.0122,0.1464,0.27328,0.1708,0.10248,0.10736,0.06832
0,-0.0244,0.0488,0.0488,0.0488,-0.0244,0.12688,0.22448,0.13176,0.08296,0.08784,0.05368
0,-0.02196,0.04392,0.04392,0.04392,-0.02196,0.10248,0.16592,0.10736,0.05856,0.05856,0.03904
-0.01464,-0.00976,0.03416,0.04148,0.0488,-0.03172,0.08296,0.122,0.08296,0.05368,0.05368,0.02928
-0.0244,-0.00244,0.02928,0.04148,0.05368,-0.03904,0.0732,0.0976,0.03904,0.03904,0.04392,0.01952
-0.03904,0.00732,0.0244,0.04392,0.06344,-0.05124,0.05368,0.06344,-0.00488,0.0244,0.03416,0.00976
-0.04392,0.0122,0.01952,0.04148,0.06344,-0.05368,0.05368,0.03416,-0.01464,0.00976,0.01464,0
-0.05368,0.02196,0.00976,0.0366,0.06344,-0.05856,0.04392,0.00488,-0.02928,-0.00488,0.00488,-0.00488
-0.0488,0.02196,0.00488,0.02928,0.05368,-0.05124,0.04392,0,-0.0488,-0.01464,0.00488,-0.01464
-0.04392,0.01952,0.00488,0.02684,0.0488,-0.04636,0.03904,-0.00976,-0.06832,-0.01952,-0.00488,-0.01952
-0.05368,0.02684,0,0.02684,0.05368,-0.05368,0.0244,-0.02928,-0.07808,-0.03904,-0.00976,-0.01952
-0.05368,0.02684,0,0.02684,0.05368,-0.05368,0.01952,-0.0488,-0.08296,-0.04392,-0.01464,-0.0244
-0.05368,0.02928,-0.00488,0.02196,0.0488,-0.05124,0.01952,-0.04392,-0.08784,-0.0488,-0.00488,-0.02928
-0.05856,0.03416,-0.00976,0.01952,0.0488,-0.05368,0.01952,-0.0488,-0.10248,-0.0488,-0.00976,-0.02928
-0.05856,0.03416,-0.00976,0.01952,0.0488,-0.05368,0.01464,-0.0488,-0.10248,-0.05368,-0.01952,-0.02928
-0.06344,0.03904,-0.01464,0.01708,0.0488,-0.05612,0.01464,-0.05368,-0.10248,-0.0488,-0.02928,-0.02928
-0.06344,0.03904,-0.01464,0.01708,0.0488,-0.05612,0.00976,-0.05856,-0.0976,-0.0488,-0.01952,-0.03416
-0.06344,0.03904,-0.01464,0.01708,0.0488,-0.05612,0.00976,-0.06344,-0.10248,-0.0488,-0.0244,-0.03416
-0.0732,0.04392,-0.01464,0.02196,0.05856,-0.06588,0.00976,-0.06344,-0.09272,-0.04392,-0.01464,-0.0244
-0.06832,0.04148,-0.01464,0.01952,0.05368,-0.061,0.00976,-0.06344,-0.09272,-0.0488,-0.00976,-0.0244
-0.05856,0.04148,-0.0244,0.00488,0.03416,-0.04636,0.00488,-0.05856,-0.10248,-0.0488,-0.01464,-0.02928
-0.05856,0.04148,-0.0244,0.00488,0.03416,-0.04636,0.00488,-0.05856,-0.10248,-0.0488,-0.01464,-0.02928
-0.05856,0.03904,-0.01952,0.00976,0.03904,-0.0488,0.00488,-0.05856,-0.10248,-0.0488,-0.01464,-0.0244
-0.05856,0.03904,-0.01952,0.00976,0.03904,-0.0488,0.00488,-0.05856,-0.10248,-0.0488,-0.01464,-0.02928
-0.05856,0.03904,-0.01952,0.00976,0.03904,-0.0488,0.00488,-0.06832,-0.10248,-0.05368,-0.01464,-0.02928
-0.06344,0.04148,-0.01952,0.0122,0.04392,-0.05368,0,-0.06832,-0.10248,-0.05368,-0.01952,-0.02928
-0.05368,0.0366,-0.01952,0.00732,0.03416,-0.04392,0,-0.06832,-0.10736,-0.05856,-0.01952,-0.02928
-0.05856,0.03904,-0.01952,0.00976,0.03904,-0.0488,0,-0.06832,-0.10736,-0.05368,-0.01464,-0.02928
-0.05368,0.0366,-0.01952,0.00732,0.03416,-0.04392,0,-0.06832,-0.10736,-0.05368,-0.01464,-0.02928
-0.05368,0.0366,-0.01952,0.00732,0.03416,-0.04392,0,-0.06832,-0.10736,-0.05368,-0.01464,-0.02928
-0.05368,0.0366,-0.01952,0.00732,0.03416,-0.04392,0.00976,-0.06832,-0.10248,-0.05368,-0.0244,-0.02928
-0.05368,0.0366,-0.01952,0.00732,0.03416,-0.04392,0.00976,-0.06832,-0.10736,-0.05368,-0.0244,-0.02928
-0.05368,0.03172,-0.00976,0.01708,0.04392,-0.0488,0.00976,-0.07808,-0.10736,-0.05368,-0.0244,-0.03904
-0.05368,0.03172,-0.00976,0.01708,0.04392,-0.0488,0.00976,-0.07808,-0.10736,-0.05368,-0.01952,-0.03904
-0.06344,0.0366,-0.00976,0.02196,0.05368,-0.05856,0.00976,-0.07808,-0.10736,-0.05368,-0.01952,-0.02928
-0.06344,0.0366,-0.00976,0.02196,0.05368,-0.05856,0.00976,-0.07808,-0.10736,-0.05856,-0.01952,-0.02928
-0.05368,0.03416,-0.01464,0.0122,0.03904,-0.04636,0,-0.0732,-0.10736,-0.0488,-0.01952,-0.03904
-0.05368,0.03416,-0.01464,0.0122,0.03904,-0.04636,0,-0.0732,-0.10736,-0.04392,-0.01464,-0.03904
-0.06344,0.04392,-0.0244,0.00732,0.03904,-0.05124,0.00488,-0.06344,-0.10736,-0.04392,-0.01464,-0.02928
-0.05856,0.04148,-0.0244,0.00488,0.03416,-0.04636,0.00488,-0.06344,-0.10736,-0.04392,-0.01464,-0.02928
-0.0488,0.0366,-0.0244,0,0.0244,-0.0366,0.00488,-0.06344,-0.10736,-0.04392,-0.00976,-0.02928
-0.0488,0.0366,-0.0244,0,0.0244,-0.0366,0.00488,-0.06344,-0.10248,-0.03904,-0.00976,-0.02928
-0.0488,0.03172,-0.01464,0.00976,0.03416,-0.04148,0.00488,-0.06344,-0.10248,-0.03904,-0.00488,-0.0244
-0.0488,0.03172,-0.01464,0.00976,0.03416,-0.04148,0.00488,-0.06344,-0.0976,-0.03904,-0.00488,-0.0244
-0.0488,0.03172,-0.01464,0.00976,0.03416,-0.04148,0.00488,-0.05856,-0.0976,-0.03904,-0.01464,-0.01464
-0.0488,0.02928,-0.00976,0.01464,0.03904,-0.04392,0.00488,-0.05856,-0.10248,-0.03904,-0.01464,-0.01464
-0.05368,0.03172,-0.00976,0.01708,0.04392,-0.0488,0.00488,-0.05856,-0.10248,-0.0488,-0.00976,-0.01952
-0.05368,0.03172,-0.00976,0.01708,0.04392,-0.0488,0.00488,-0.05856,-0.10248,-0.0488,-0.01464,-0.01952
-0.05368,0.03172,-0.00976,0.01708,0.04392,-0.0488,0.00488,-0.0488,-0.09272,-0.03904,-0.00488,-0.01952
-0.05368,0.03172,-0.00976,0.01708,0.04392,-0.0488,0.00976,-0.04392,-0.09272,-0.03904,-0.00488,-0.01952
-0.04392,0.03172,-0.01952,0.00244,0.0244,-0.03416,0.00976,-0.04392,-0.08784,-0.03416,0,-0.01952
-0.04392,0.03172,-0.01952,0.00244,0.0244,-0.03416,0.00976,-0.04392,-0.08784,-0.03416,0,-0.01952
-0.04392,0.02928,-0.01464,0.00732,0.02928,-0.0366,0,-0.04392,-0.0976,-0.04392,-0.00488,-0.01952
-0.04392,0.02928,-0.01464,0.00732,0.02928,-0.0366,0,-0.04392,-0.0976,-0.04392,-0.00488,-0.01952
-0.04392,0.02928,-0.01464,0.00732,0.02928,-0.0366,0.00976,-0.03904,-0.0976,-0.03904,-0.00488,-0.01952
-0.03904,0.02684,-0.01464,0.00488,0.0244,-0.03172,0.00976,-0.03904,-0.0976,-0.03904,-0.00488,-0.01952
-0.03904,0.02928,-0.01952,0,0.01952,-0.02928,0.00976,-0.03904,-0.0976,-0.03904,-0.00488,-0.01952
-0.03904,0.02928,-0.01952,0,0.01952,-0.02928,0.00976,-0.03904,-0.0976,-0.03904,-0.00488,-0.01952
-0.03904,0.02928,-0.01952,0,0.01952,-0.02928,0.00976,-0.03904,-0.0976,-0.0488,-0.00488,-0.02928
-0.03904,0.02928,-0.01952,0,0.01952,-0.02928,0.00976,-0.03904,-0.0976,-0.0488,-0.00976,-0.02928
-0.04392,0.03172,-0.01952,0.00244,0.0244,-0.03416,0.00976,-0.03904,-0.0976,-0.03904,-0.01464,-0.01952
-0.04392,0.03172,-0.01952,0.00244,0.0244,-0.03416,0.00976,-0.03904,-0.10248,-0.0488,-0.01464,-0.01952
-0.04392,0.03172,-0.01952,0.00244,0.0244,-0.03416,0.00976,-0.02928,-0.10248,-0.03904,-0.00488,-0.01952
-0.04392,0.03172,-0.01952,0.00244,0.0244,-0.03416,0.00976,-0.03416,-0.10248,-0.03904,-0.00976,-0.01952
-0.05368,0.03904,-0.0244,0.00244,0.02928,-0.04148,0.00976,-0.03416,-0.11224,-0.0488,-0.00976,-0.01464
-0.05368,0.03904,-0.0244,0.00244,0.02928,-0.04148,0.00976,-0.03416,-0.10736,-0.0488,-0.00976,-0.01464
-0.05368,0.03904,-0.0244,0.00244,0.02928,-0.04148,0.00488,-0.04392,-0.10736,-0.0488,-0.01952,-0.0244
-0.05368,0.03904,-0.0244,0.00244,0.02928,-0.04148,0.00488,-0.0488,-0.10736,-0.0488,-0.0244,-0.0244
-0.04392,0.03416,-0.0244,-0.00244,0.01952,-0.03172,0.00488,-0.04392,-0.11224,-0.05856,-0.02928,-0.0244
-0.0488,0.03904,-0.02928,-0.00488,0.01952,-0.03416,0.00488,-0.04392,-0.11224,-0.05856,-0.02928,-0.0244
-0.0488,0.03416,-0.01952,0.00488,0.02928,-0.03904,0.00488,-0.04392,-0.11712,-0.0488,-0.02928,-0.0244
-0.0488,0.03416,-0.01952,0.00488,0.02928,-0.03904,0.00488,-0.04392,-0.11712,-0.0488,-0.0244,-0.0244
-0.05856,0.04392,-0.02928,0,0.02928,-0.04392,0.00488,-0.0488,-0.11712,-0.05856,-0.02928,-0.0244
-0.05856,0.04392,-0.02928,0,0.02928,-0.04392,0.00488,-0.0488,-0.122,-0.05856,-0.02928,-0.0244
-0.0488,0.03904,-0.02928,-0.00488,0.01952,-0.03416,0.00488,-0.0488,-0.11712,-0.05856,-0.0244,-0.01952
-0.0488,0.03904,-0.02928,-0.00488,0.01952,-0.03416,0.00488,-0.05368,-0.11712,-0.05856,-0.0244,-0.01952
-0.0488,0.03904,-0.02928,-0.00488,0.01952,-0.03416,0.00488,-0.05368,-0.12688,-0.06344,-0.03416,-0.01952
-0.05368,0.04148,-0.02928,-0.00244,0.0244,-0.03904,0.00488,-0.05368,-0.12688,-0.06344,-0.02928,-0.01952
-0.05368,0.04148,-0.02928,-0.00244,0.0244,-0.03904,0.00488,-0.05856,-0.122,-0.06344,-0.02928,-0.02928
-0.05368,0.04148,-0.02928,-0.00244,0.0244,-0.03904,0.00488,-0.05368,-0.12688,-0.06344,-0.02928,-0.03416
-0.05368,0.04148,-0.02928,-0.00244,0.0244,-0.03904,0,-0.06344,-0.12688,-0.06344,-0.02928,-0.03416
-0.05368,0.04148,-0.02928,-0.00244,0.0244,-0.03904,0,-0.06344,-0.12688,-0.06832,-0.02928,-0.03416
-0.05368,0.04392,-0.03416,-0.00732,0.01952,-0.0366,0,-0.06344,-0.12688,-0.06832,-0.02928,-0.03416
-0.05368,0.04392,-0.03416,-0.00732,0.01952,-0.0366,0,-0.06832,-0.13176,-0.06832,-0.03416,-0.03416
-0.05368,0.04392,-0.03416,-0.00732,0.01952,-0.0366,0,-0.06832,-0.122,-0.06832,-0.03416,-0.03416
-0.05368,0.04392,-0.03416,-0.00732,0.01952,-0.0366,0,-0.06832,-0.122,-0.06832,-0.03416,-0.03416
-0.05368,0.04392,-0.03416,-0.00732,0.01952,-0.0366,0,-0.0732,-0.13176,-0.06832,-0.03416,-0.03416
-0.05368,0.04392,-0.03416,-0.00732,0.01952,-0.0366,0,-0.0732,-0.13176,-0.06832,-0.03416,-0.03416
-0.05368,0.04636,-0.03904,-0.0122,0.01464,-0.03416,-0.00976,-0.0732,-0.13176,-0.06832,-0.03416,-0.03416
-0.0488,0.04392,-0.03904,-0.01464,0.00976,-0.02928,-0.00976,-0.0732,-0.13664,-0.06832,-0.03416,-0.03416
-0.05368,0.04636,-0.03904,-0.0122,0.01464,-0.03416,0,-0.0732,-0.12688,-0.06832,-0.03416,-0.03416
-0.05368,0.04636,-0.03904,-0.0122,0.01464,-0.03416,-0.00488,-0.07808,-0.12688,-0.06832,-0.03416,-0.03416
-0.05368,0.04636,-0.03904,-0.0122,0.01464,-0.03416,0,-0.07808,-0.12688,-0.06832,-0.03416,-0.03416
-0.05368,0.0488,-0.04392,-0.01708,0.00976,-0.03172,0,-0.07808,-0.13176,-0.06832,-0.03416,-0.03416
-0.05368,0.0488,-0.04392,-0.01708,0.00976,-0.03172,0,-0.07808,-0.122,-0.06832,-0.03416,-0.03416
-0.05368,0.0488,-0.04392,-0.01708,0.00976,-0.03172,0,-0.07808,-0.122,-0.06832,-0.03416,-0.03416
-0.06344,0.0488,-0.03416,-0.00244,0.02928,-0.04636,0,-0.07808,-0.13176,-0.0732,-0.03416,-0.03416
-0.06344,0.0488,-0.03416,-0.00244,0.02928,-0.04636,0,-0.08296,-0.13176,-0.06832,-0.03416,-0.03416
-0.06832,0.05124,-0.03416,0,0.03416,-0.05124,0,-0.0732,-0.13176,-0.06832,-0.03416,-0.03416
-0.06832,0.05124,-0.03416,0,0.03416,-0.05124,0,-0.0732,-0.13176,-0.0732,-0.03416,-0.03416
-0.05368,0.04636,-0.03904,-0.0122,0.01464,-0.03416,0,-0.0732,-0.13176,-0.0732,-0.03416,-0.03416
-0.05368,0.04636,-0.03904,-0.0122,0.01464,-0.03416,-0.00488,-0.0732,-0.13176,-0.0732,-0.03416,-0.03416
-0.05368,0.04636,-0.03904,-0.0122,0.01464,-0.03416,-0.00488,-0.07808,-0.13176,-0.06344,-0.03416,-0.03416
-0.05368,0.0488,-0.04392,-0.01708,0.00976,-0.03172,-0.00488,-0.0732,-0.13176,-0.06344,-0.03416,-0.03416
-0.05368,0.0488,-0.04392,-0.01708,0.00976,-0.03172,0.00488,-0.0732,-0.13176,-0.0732,-0.03416,-0.03416
-0.05368,0.0488,-0.04392,-0.01708,0.00976,-0.03172,0.00488,-0.0732,-0.13176,-0.0732,-0.03416,-0.03416
-0.05368,0.04636,-0.03904,-0.0122,0.01464,-0.03416,0.00488,-0.06832,-0.13176,-0.06344,-0.03416,-0.0244
-0.05368,0.04636,-0.03904,-0.0122,0.01464,-0.03416,0,-0.06832,-0.13176,-0.06344,-0.03416,-0.0244
-0.0488,0.0488,-0.0488,-0.0244,0,-0.0244,0,-0.06832,-0.13664,-0.06832,-0.02928,-0.02928
-0.0488,0.0488,-0.0488,-0.0244,0,-0.0244,0,-0.06832,-0.13664,-0.06832,-0.02928,-0.02928
-0.05856,0.0488,-0.03904,-0.00976,0.01952,-0.03904,0,-0.06832,-0.12688,-0.06832,-0.03904,-0.02928
-0.05856,0.0488,-0.03904,-0.00976,0.01952,-0.03904,0,-0.06832,-0.12688,-0.06832,-0.03904,-0.02928
-0.05856,0.0488,-0.03904,-0.00976,0.01952,-0.03904,-0.00976,-0.06832,-0.13664,-0.05856,-0.03904,-0.02928
-0.05856,0.0488,-0.03904,-0.00976,0.01952,-0.03904,-0.00976,-0.06832,-0.13664,-0.05856,-0.03904,-0.02928
-0.05856,0.0488,-0.03904,-0.00976,0.01952,-0.03904,-0.00976,-0.06832,-0.13664,-0.06832,-0.03904,-0.02928
-0.05856,0.0488,-0.03904,-0.00976,0.01952,-0.03904,-0.00976,-0.06832,-0.13664,-0.06832,-0.03904,-0.02928
-0.0488,0.04392,-0.03904,-0.01464,0.00976,-0.02928,-0.00976,-0.06832,-0.13664,-0.07808,-0.0488,-0.02928
-0.0488,0.04392,-0.03904,-0.01464,0.00976,-0.02928,-0.00976,-0.06832,-0.13664,-0.07808,-0.0488,-0.02928
-0.0488,0.04392,-0.03904,-0.01464,0.00976,-0.02928,-0.00976,-0.07808,-0.13664,-0.06832,-0.03904,-0.02928
-0.0488,0.04392,-0.03904,-0.01464,0.00976,-0.02928,-0.00976,-0.07808,-0.13664,-0.06832,-0.03904,-0.02928
-0.05856,0.04392,-0.02928,0,0.02928,-0.04392,0,-0.07808,-0.13664,-0.06832,-0.0488,-0.03904
-0.05856,0.04392,-0.02928,0,0.02928,-0.04392,0,-0.07808,-0.13664,-0.06832,-0.0488,-0.03904
-0.05856,0.0488,-0.03904,-0.00976,0.01952,-0.03904,-0.00976,-0.06832,-0.13664,-0.06832,-0.03904,-0.03904
-0.05856,0.0488,-0.03904,-0.00976,0.01952,-0.03904,-0.00976,-0.06832,-0.13664,-0.06832,-0.03904,-0.03904
-0.05856,0.0488,-0.03904,-0.00976,0.01952,-0.03904,0,-0.06832,-0.13664,-0.06832,-0.03904,-0.0488
-0.05856,0.0488,-0.03904,-0.00976,0.01952,-0.03904,0,-0.06832,-0.13664,-0.06832,-0.03904,-0.0488
-0.05856,0.0488,-0.03904,-0.00976,0.01952,-0.03904,-0.00976,-0.07808,-0.13664,-0.06832,-0.03904,-0.05856
-0.05856,0.0488,-0.03904,-0.00976,0.01952,-0.03904,-0.00976,-0.07808,-0.13664,-0.06832,-0.03904,-0.05856
-0.05856,0.0488,-0.03904,-0.00976,0.01952,-0.03904,-0.00976,-0.07808,-0.13664,-0.06832,-0.03904,-0.05856
-0.05856,0.0488,-0.03904,-0.00976,0.01952,-0.03904,-0.00976,-0.07808,-0.13664,-0.06832,-0.03904,-0.05856
-0.05856,0.0488,-0.03904,-0.00976,0.01952,-0.03904,-0.00976,-0.07808,-0.12688,-0.06832,-0.03904,-0.05856
-0.05856,0.0488,-0.03904,-0.00976,0.01952,-0.03904,-0.00976,-0.07808,-0.12688,-0.06832,-0.03904,-0.05856
-0.0488,0.04392,-0.03904,-0.01464,0.00976,-0.02928,-0.00976,-0.07808,-0.13664,-0.06832,-0.03904,-0.06832
-0.0488,0.04392,-0.03904,-0.01464,0.00976,-0.02928,-0.00976,-0.07808,-0.13664,-0.06832,-0.03904,-0.06832
-0.0488,0.03904,-0.02928,-0.00488,0.01952,-0.03416,-0.00976,-0.07808,-0.13664,-0.06832,-0.0488,-0.07808
-0.0488,0.03904,-0.02928,-0.00488,0.01952,-0.03416,-0.00976,-0.07808,-0.13664,-0.06832,-0.0488,-0.07808
-0.0488,0.03904,-0.02928,-0.00488,0.01952,-0.03416,-0.00976,-0.07808,-0.13664,-0.07808,-0.03904,-0.07808
-0.0488,0.03904,-0.02928,-0.00488,0.01952,-0.03416,-0.00976,-0.07808,-0.13664,-0.07808,-0.03904,-0.07808
-0.0488,0.04392,-0.03904,-0.01464,0.00976,-0.02928,-0.00976,-0.07808,-0.13664,-0.07808,-0.0488,-0.07808
-0.0488,0.04392,-0.03904,-0.01464,0.00976,-0.02928,-0.00976,-0.07808,-0.13664,-0.07808,-0.0488,-0.07808
-0.05856,0.04392,-0.02928,0,0.02928,-0.04392,-0.00976,-0.07808,-0.13664,-0.07808,-0.0488,-0.07808
-0.05856,0.04392,-0.02928,0,0.02928,-0.04392,-0.00976,-0.07808,-0.13664,-0.07808,-0.0488,-0.07808
-0.05856,0.04392,-0.02928,0,0.02928,-0.04392,-0.00976,-0.07808,-0.12688,-0.07808,-0.0488,-0.07808
-0.05856,0.04392,-0.02928,0,0.02928,-0.04392,-0.00976,-0.07808,-0.12688,-0.07808,-0.0488,-0.07808
-0.05856,0.04392,-0.02928,0,0.02928,-0.04392,-0.00976,-0.07808,-0.13664,-0.06832,-0.0488,-0.07808
-0.05856,0.04392,-0.02928,0,0.02928,-0.04392,-0.00976,-0.07808,-0.13664,-0.06832,-0.0488,-0.07808
-0.05856,0.04392,-0.02928,0,0.02928,-0.04392,-0.00976,-0.07808,-0.13664,-0.06832,-0.0488,-0.07808
-0.05856,0.04392,-0.02928,0,0.02928,-0.04392,-0.00976,-0.07808,-0.13664,-0.06832,-0.0488,-0.07808
-0.05856,0.0488,-0.03904,-0.00976,0.01952,-0.03904,-0.00976,-0.07808,-0.13664,-0.06832,-0.0488,-0.07808
-0.05856,0.0488,-0.03904,-0.00976,0.01952,-0.03904,-0.00976,-0.07808,-0.13664,-0.06832,-0.0488,-0.07808
-0.0488,0.03904,-0.02928,-0.00488,0.01952,-0.03416,-0.00976,-0.06832,-0.12688,-0.06832,-0.0488,-0.07808
-0.0488,0.03904,-0.02928,-0.00488,0.01952,-0.03416,-0.00976,-0.06832,-0.12688,-0.06832,-0.0488,-0.07808
-0.05856,0.04392,-0.02928,0,0.02928,-0.04392,-0.00976,-0.06832,-0.13664,-0.06832,-0.0488,-0.06832
-0.05856,0.04392,-0.02928,0,0.02928,-0.04392,-0.00976,-0.06832,-0.13664,-0.06832,-0.0488,-0.06832
-0.0488,0.03904,-0.02928,-0.00488,0.01952,-0.03416,-0.00976,-0.06832,-0.13664,-0.06832,-0.0488,-0.06832
-0.0488,0.03904,-0.02928,-0.00488,0.01952,-0.03416,-0.00976,-0.06832,-0.13664,-0.06832,-0.0488,-0.06832
-0.0488,0.03904,-0.02928,-0.00488,0.01952,-0.03416,-0.00976,-0.06832,-0.13664,-0.06832,-0.0488,-0.06832
-0.0488,0.03904,-0.02928,-0.00488,0.01952,-0.03416,-0.00976,-0.06832,-0.13664,-0.06832,-0.0488,-0.06832
-0.0488,0.03904,-0.02928,-0.00488,0.01952,-0.03416,-0.00976,-0.06832,-0.13664,-0.06832,-0.0488,-0.06832
-0.0488,0.03904,-0.02928,-0.00488,0.01952,-0.03416,-0.00976,-0.06832,-0.13664,-0.06832,-0.0488,-0.06832
-0.0488,0.03904,-0.02928,-0.00488,0.01952,-0.03416,-0.00976,-0.06832,-0.13664,-0.07808,-0.0488,-0.07808
-0.0488,0.03904,-0.02928,-0.00488,0.01952,-0.03416,-0.00976,-0.06832,-0.13664,-0.07808,-0.0488,-0.07808
-0.0488,0.03904,-0.02928,-0.00488,0.01952,-0.03416,-0.00976,-0.06832,-0.13664,-0.06832,-0.0488,-0.07808
-0.0488,0.03904,-0.02928,-0.00488,0.01952,-0.03416,-0.00976,-0.06832,-0.13664,-0.06832,-0.0488,-0.07808
-0.0488,0.03904,-0.02928,-0.00488,0.01952,-0.03416,-0.00976,-0.06832,-0.13664,-0.06832,-0.0488,-0.07808
-0.0488,0.0366,-0.0244,0,0.0244,-0.0366,-0.00976,-0.06832,-0.13176,-0.06344,-0.0488,-0.0732
-0.03416,0.0244,-0.01464,0.00244,0.01952,-0.02684,0.00488,-0.06344,-0.13176,-0.06344,-0.0488,-0.0732
-0.03416,0.01952,-0.00488,0.0122,0.02928,-0.03172,0.00488,-0.05368,-0.122,-0.05368,-0.04392,-0.0732
-0.02928,0.01708,-0.00488,0.00976,0.0244,-0.02684,0.00976,-0.04392,-0.11224,-0.05368,-0.03416,-0.06832
-0.01952,0.00732,0.00488,0.01464,0.0244,-0.02196,0.01464,-0.03904,-0.11224,-0.03904,-0.02928,-0.06832
-0.0244,0.00488,0.01464,0.02684,0.03904,-0.03172,0.02928,-0.02928,-0.0976,-0.03904,-0.02928,-0.05368
-0.0244,0,0.0244,0.0366,0.0488,-0.0366,0.03904,-0.0244,-0.09272,-0.03416,-0.02928,-0.05368
-0.01952,0,0.01952,0.02928,0.03904,-0.02928,0.03904,-0.0244,-0.09272,-0.02928,-0.0244,-0.0488
-0.01952,-0.00244,0.0244,0.03416,0.04392,-0.03172,0.04392,-0.01464,-0.09272,-0.02928,-0.0244,-0.0488
-0.00488,-0.01464,0.03416,0.0366,0.03904,-0.02196,0.04392,-0.00488,-0.07808,-0.03904,-0.0244,-0.05856
0,-0.01708,0.03416,0.03416,0.03416,-0.01708,0.03416,-0.00488,-0.07808,-0.03416,-0.01952,-0.05368
0.00976,-0.02196,0.03416,0.02928,0.0244,-0.00732,0.00976,-0.01952,-0.08784,-0.0244,-0.01952,-0.03904
0.01952,-0.02928,0.03904,0.02928,0.01952,0,-0.01952,-0.02928,-0.08784,-0.01952,-0.00976,-0.03416
0.02928,-0.03904,0.0488,0.03416,0.01952,0.00488,-0.01952,-0.04392,-0.08784,-0.01952,0,-0.03416
0.02928,-0.04148,0.05368,0.03904,0.0244,0.00244,-0.0244,-0.0488,-0.08784,-0.01952,0,-0.03416
0.03416,-0.04636,0.05856,0.04148,0.0244,0.00488,-0.03904,-0.05856,-0.0976,-0.0244,-0.00976,-0.02928
0.03416,-0.04636,0.05856,0.04148,0.0244,0.00488,-0.0488,-0.06344,-0.10736,-0.02928,-0.00976,-0.03416
0.03904,-0.03904,0.03904,0.01952,0,0.01952,-0.04392,-0.06832,-0.10248,-0.03416,-0.01464,-0.0244
0.03416,-0.03172,0.02928,0.0122,-0.00488,0.01952,-0.0488,-0.0732,-0.11224,-0.04392,-0.01952,-0.0244
0.03416,-0.02196,0.00976,-0.00732,-0.0244,0.02928,-0.0488,-0.06344,-0.122,-0.0488,-0.03416,-0.03904
0.03904,-0.01952,0,-0.01952,-0.03904,0.03904,-0.05856,-0.06344,-0.12688,-0.05368,-0.02928,-0.03904
0.03416,-0.01952,0.00488,-0.0122,-0.02928,0.03172,-0.06832,-0.0732,-0.12688,-0.05368,-0.03416,-0.04392
0.03416,-0.01708,0,-0.01708,-0.03416,0.03416,-0.0732,-0.0732,-0.13176,-0.06344,-0.03416,-0.0488
0.01952,-0.00732,-0.00488,-0.01464,-0.0244,0.02196,-0.05856,-0.05856,-0.13176,-0.0488,-0.03904,-0.0488
0,0.00244,-0.00488,-0.00488,-0.00488,0.00244,-0.0488,-0.0488,-0.12688,-0.0488,-0.03904,-0.05856
-0.00488,0.01464,-0.0244,-0.02196,-0.01952,0.00732,-0.03416,-0.05368,-0.122,-0.05368,-0.0488,-0.05856
-0.0244,0.02928,-0.03416,-0.02196,-0.00976,-0.00732,-0.0244,-0.05368,-0.122,-0.06832,-0.0488,-0.0732
-0.02928,0.03416,-0.03904,-0.0244,-0.00976,-0.00976,-0.02928,-0.06832,-0.13664,-0.0732,-0.05368,-0.08296
-0.03904,0.04392,-0.0488,-0.02928,-0.00976,-0.01464,-0.03416,-0.0976,-0.16104,-0.08784,-0.05856,-0.08296
-0.03904,0.0488,-0.05856,-0.03904,-0.01952,-0.00976,-0.03416,-0.10248,-0.16104,-0.08784,-0.06832,-0.08296
-0.03904,0.04636,-0.05368,-0.03416,-0.01464,-0.0122,-0.03416,-0.0976,-0.16104,-0.08784,-0.0732,-0.08296
-0.04392,0.04636,-0.0488,-0.02684,-0.00488,-0.01952,-0.03416,-0.09272,-0.15616,-0.07808,-0.06344,-0.08296
-0.0488,0.04636,-0.04392,-0.01952,0.00488,-0.02684,-0.03416,-0.08784,-0.15616,-0.07808,-0.06344,-0.08784
-0.05368,0.05368,-0.05368,-0.02684,0,-0.02684,-0.02928,-0.08296,-0.15128,-0.08784,-0.06344,-0.08296
-0.05368,0.05368,-0.05368,-0.02684,0,-0.02684,-0.0244,-0.08296,-0.15128,-0.08784,-0.06344,-0.08296
-0.05856,0.05124,-0.04392,-0.01464,0.01464,-0.0366,-0.01464,-0.08296,-0.15128,-0.08784,-0.06344,-0.08784
-0.05856,0.0488,-0.03904,-0.00976,0.01952,-0.03904,-0.00976,-0.08784,-0.15128,-0.08784,-0.06344,-0.08784
-0.05368,0.04636,-0.03904,-0.0122,0.01464,-0.03416,-0.01952,-0.08296,-0.13664,-0.08296,-0.06344,-0.08784
-0.05368,0.04636,-0.03904,-0.0122,0.01464,-0.03416,-0.01952,-0.07808,-0.12688,-0.08296,-0.06344,-0.08784
-0.05368,0.04392,-0.03416,-0.00732,0.01952,-0.0366,-0.01464,-0.0732,-0.12688,-0.07808,-0.05856,-0.08784
-0.05368,0.03904,-0.0244,0.00244,0.02928,-0.04148,-0.00976,-0.07808,-0.122,-0.07808,-0.06344,-0.0976
-0.0732,0.0488,-0.0244,0.0122,0.0488,-0.061,0.00488,-0.08296,-0.19032,-0.11224,-0.08784,-0.0976
-0.09272,0.07564,-0.05856,-0.0122,0.03416,-0.06344,0.04392,-0.04392,-0.24888,-0.16104,-0.122,-0.122
-0.10736,0.08296,-0.05856,-0.00488,0.0488,-0.07808,0.13176,0.02928,-0.16104,-0.12688,-0.11712,-0.13664
-0.08296,0.04148,0,0.04148,0.08296,-0.08296,0.21472,0.07808,0.05368,0.00976,-0.04392,-0.08784
0.06832,-0.14396,0.2196,0.18544,0.15128,-0.04148,0.03416,0.09272,0.40016,0.31232,0.18544,0.0976
0.27816,-0.38552,0.49288,0.3538,0.21472,0.03172,-0.23424,0.24888,0.89304,0.73688,0.49288,0.3172
0.54168,-0.66368,0.78568,0.51484,0.244,0.14884,-0.6832,0.52216,1.45424,1.20536,0.8296,0.57096
0.81008,-0.94184,1.0736,0.66856,0.26352,0.27328,-1.098,0.81984,2.03984,1.6348,1.1468,0.80032
1.09312,-1.24196,1.3908,0.84424,0.29768,0.39772,-1.5128,1.098,2.71328,2.06424,1.47376,1.07848
1.27856,-1.43716,1.59576,0.95648,0.3172,0.48068,-1.8544,0.99064,3.13784,2.30336,1.67384,1.23952
1.30784,-1.37616,1.44448,0.79056,0.13664,0.5856,-1.85928,1.0004,3.29888,2.24968,1.64456,1.22488
1.13704,-1.08824,1.03944,0.47092,-0.0976,0.61732,-1.65432,0.51728,2.76208,1.7324,1.33224,1.00528
0.85888,-0.74664,0.6344,0.20496,-0.22448,0.54168,-1.37616,0.0976,1.78608,1.08824,0.9272,0.74176
0.49288,-0.43676,0.38064,0.1342,-0.11224,0.30256,-1.06384,-0.42944,0.67832,0.51728,0.52216,0.46848
0.23424,-0.24888,0.26352,0.1464,0.02928,0.10248,-0.7808,-0.72712,-0.13176,0.13176,0.23424,0.244
0.15128,-0.17812,0.20496,0.12932,0.05368,0.0488,-0.55144,-0.54656,-0.2196,0.01464,0.11224,0.13664
0.11224,-0.12688,0.14152,0.0854,0.02928,0.04148,-0.366,-0.32696,-0.0976,0.0244,0.07808,0.09272
0.0732,-0.08052,0.08784,0.05124,0.01464,0.02928,-0.23912,-0.1708,-0.03904,0.03416,0.06832,0.06344
0.0488,-0.06588,0.08296,0.05856,0.03416,0.00732,-0.122,-0.09272,-0.01464,0.02928,0.0488,0.0244
0.0244,-0.04636,0.06832,0.05612,0.04392,-0.00976,-0.06832,-0.0732,-0.00976,0.01464,0.0244,-0.00976
0.00488,-0.00976,0.01464,0.0122,0.00976,-0.00244,-0.02928,-0.02928,-0.00976,0.00488,0.01464,-0.01464
-0.01464,0.00976,-0.00488,0.00244,0.00976,-0.0122,0.00488,0,-0.02928,0,0,-0.0244
-0.01952,0.0122,-0.00488,0.00488,0.01464,-0.01708,0.0244,-0.00976,-0.0488,-0.0244,-0.00976,-0.02928
-0.0244,0.01952,-0.01464,-0.00244,0.00976,-0.01708,0.03416,-0.01952,-0.06344,-0.02928,-0.0244,-0.0488
-0.02928,0.0244,-0.01952,-0.00488,0.00976,-0.01952,0.03416,-0.01952,-0.0732,-0.03904,-0.03416,-0.05368
-0.04392,0.0366,-0.02928,-0.00732,0.01464,-0.02928,0.0488,0,-0.0732,-0.03904,-0.03416,-0.06344
-0.04392,0.0366,-0.02928,-0.00732,0.01464,-0.02928,0.05856,0.00488,-0.0732,-0.04392,-0.03904,-0.05856
-0.03904,0.03416,-0.02928,-0.00976,0.00976,-0.0244,0.0732,0.00976,-0.0732,-0.04392,-0.03904,-0.05856
-0.04392,0.0366,-0.02928,-0.00732,0.01464,-0.02928,0.07808,0.01464,-0.0732,-0.04392,-0.03904,-0.05856
-0.04392,0.03904,-0.03416,-0.0122,0.00976,-0.02684,0.0732,0.01952,-0.0732,-0.0488,-0.03416,-0.06344
-0.04392,0.03904,-0.03416,-0.0122,0.00976,-0.02684,0.07808,0.02928,-0.0732,-0.0488,-0.03904,-0.06344
-0.0488,0.04148,-0.03416,-0.00976,0.01464,-0.03172,0.08296,0.03416,-0.06344,-0.04392,-0.03904,-0.05856
-0.04392,0.03904,-0.03416,-0.0122,0.00976,-0.02684,0.08784,0.03416,-0.05856,-0.04392,-0.03416,-0.05368
-0.04392,0.03904,-0.03416,-0.0122,0.00976,-0.02684,0.08784,0.03904,-0.06832,-0.04392,-0.03904,-0.05368
-0.04392,0.03904,-0.03416,-0.0122,0.00976,-0.02684,0.08784,0.04392,-0.06344,-0.03904,-0.04392,-0.05368
-0.04392,0.03904,-0.03416,-0.0122,0.00976,-0.02684,0.08784,0.05368,-0.06344,-0.03904,-0.04392,-0.06344
-0.04392,0.03904,-0.03416,-0.0122,0.00976,-0.02684,0.08784,0.05368,-0.06344,-0.03416,-0.03904,-0.05856
-0.03904,0.0366,-0.03416,-0.01464,0.00488,-0.02196,0.09272,0.05856,-0.05856,-0.03416,-0.03416,-0.05856
-0.03904,0.0366,-0.03416,-0.01464,0.00488,-0.02196,0.0976,0.05856,-0.05368,-0.03416,-0.03416,-0.05856
-0.03904,0.0366,-0.03416,-0.01464,0.00488,-0.02196,0.0976,0.06344,-0.05368,-0.0244,-0.03416,-0.06344
-0.03904,0.0366,-0.03416,-0.01464,0.00488,-0.02196,0.0976,0.06832,-0.05368,-0.0244,-0.02928,-0.05856
-0.03416,0.03416,-0.03416,-0.01708,0,-0.01708,0.10736,0.0732,-0.0488,-0.02928,-0.02928,-0.05856
-0.03416,0.03172,-0.02928,-0.0122,0.00488,-0.01952,0.10736,0.0732,-0.0488,-0.02928,-0.03416,-0.06344
-0.03416,0.03172,-0.02928,-0.0122,0.00488,-0.01952,0.10736,0.0732,-0.03416,-0.03416,-0.03416,-0.0488
-0.03416,0.03172,-0.02928,-0.0122,0.00488,-0.01952,0.10736,0.07808,-0.02928,-0.02928,-0.03416,-0.0488
-0.03416,0.03172,-0.02928,-0.0122,0.00488,-0.01952,0.11224,0.07808,-0.03416,-0.02928,-0.02928,-0.0488
-0.02928,0.02928,-0.02928,-0.01464,0,-0.01464,0.11712,0.07808,-0.03416,-0.0244,-0.02928,-0.0488
-0.02928,0.02928,-0.02928,-0.01464,0,-0.01464,0.11712,0.0976,-0.03416,-0.0244,-0.02928,-0.05856
-0.02928,0.02928,-0.02928,-0.01464,0,-0.01464,0.12688,0.0976,-0.02928,-0.0244,-0.02928,-0.05856
-0.02928,0.03172,-0.03416,-0.01952,-0.00488,-0.0122,0.13664,0.09272,-0.0244,-0.0244,-0.01952,-0.05368
-0.02928,0.03172,-0.03416,-0.01952,-0.00488,-0.0122,0.13664,0.10248,-0.0244,-0.0244,-0.0244,-0.05368
-0.02928,0.02684,-0.0244,-0.00976,0.00488,-0.01708,0.14152,0.11224,-0.0244,-0.01464,-0.0244,-0.0488
-0.02928,0.02928,-0.02928,-0.01464,0,-0.01464,0.14152,0.122,-0.01952,-0.00976,-0.0244,-0.0488
-0.02928,0.03416,-0.03904,-0.0244,-0.00976,-0.00976,0.1708,0.12688,-0.01464,-0.01952,-0.01464,-0.05368
-0.0244,0.02928,-0.03416,-0.02196,-0.00976,-0.00732,0.17568,0.14152,-0.00976,-0.01952,-0.01464,-0.0488
-0.0244,0.02928,-0.03416,-0.02196,-0.00976,-0.00732,0.18544,0.15128,-0.00976,-0.01952,-0.0244,-0.0488
-0.0244,0.02928,-0.03416,-0.02196,-0.00976,-0.00732,0.1952,0.16104,-0.00976,-0.01952,-0.01952,-0.0488
-0.03416,0.03416,-0.03416,-0.01708,0,-0.01708,0.20496,0.18056,-0.00488,-0.00976,-0.01952,-0.0488
-0.03416,0.03416,-0.03416,-0.01708,0,-0.01708,0.2196,0.19032,0.00488,-0.00488,-0.01952,-0.04392
-0.02928,0.02684,-0.0244,-0.00976,0.00488,-0.01708,0.23912,0.20984,0.01464,-0.00976,-0.01464,-0.04392
-0.02928,0.02684,-0.0244,-0.00976,0.00488,-0.01708,0.25376,0.22936,0.0244,-0.00976,-0.01464,-0.03904
-0.01952,0.02684,-0.03416,-0.0244,-0.01464,-0.00244,0.2684,0.25864,0.0244,0.00488,0,-0.0244
-0.01952,0.02684,-0.03416,-0.0244,-0.01464,-0.00244,0.27816,0.27816,0.02928,0.00976,0,-0.01952
-0.02928,0.03172,-0.03416,-0.01952,-0.00488,-0.0122,0.30256,0.30256,0.03904,0,0,-0.02928
-0.0244,0.02928,-0.03416,-0.02196,-0.00976,-0.00732,0.3172,0.32208,0.05368,0.00976,0.00976,-0.02928
-0.01464,0.01708,-0.01952,-0.0122,-0.00488,-0.00488,0.32696,0.35136,0.06832,0.01464,0.00976,-0.01952
-0.00976,0.01464,-0.01952,-0.01464,-0.00976,0,0.3416,0.37576,0.07808,0.01464,0.00976,-0.01464
-0.00976,0.0122,-0.01464,-0.00976,-0.00488,-0.00244,0.35624,0.40016,0.08784,0.0244,0.01952,0
-0.00488,0.00976,-0.01464,-0.0122,-0.00976,0.00244,0.366,0.41968,0.10248,0.02928,0.02928,0.00976
0.01464,0,-0.01464,-0.02196,-0.02928,0.02196,0.37576,0.44896,0.12688,0.03904,0.03416,0
0.01952,-0.00732,-0.00488,-0.01464,-0.0244,0.02196,0.38064,0.47336,0.13176,0.05368,0.04392,0.00976
0.0244,-0.00976,-0.00488,-0.01708,-0.02928,0.02684,0.37088,0.488,0.1464,0.06344,0.0488,0.0244
0.03904,-0.0244,0.00976,-0.00976,-0.02928,0.03416,0.37088,0.488,0.16592,0.06832,0.05856,0.03416
0.04392,-0.02684,0.00976,-0.0122,-0.03416,0.03904,0.34648,0.49776,0.18544,0.07808,0.07808,0.03416
0.05368,-0.03416,0.01464,-0.0122,-0.03904,0.04636,0.33184,0.50264,0.20008,0.08296,0.08784,0.03904
0.06832,-0.05124,0.03416,0,-0.03416,0.05124,0.3172,0.50752,0.21472,0.0976,0.08784,0.05856
0.07808,-0.061,0.04392,0.00488,-0.03416,0.05612,0.28792,0.50752,0.22448,0.10736,0.09272,0.05856
0.08296,-0.06344,0.04392,0.00244,-0.03904,0.061,0.2684,0.50264,0.244,0.11712,0.0976,0.05856
0.08296,-0.06588,0.0488,0.00732,-0.03416,0.05856,0.23424,0.48312,0.23912,0.122,0.0976,0.05856
0.0732,-0.061,0.0488,0.0122,-0.0244,0.0488,0.21472,0.44896,0.23912,0.11224,0.0976,0.05856
0.06832,-0.061,0.05368,0.01952,-0.01464,0.04148,0.19032,0.3904,0.21472,0.10248,0.08296,0.04392
0.05856,-0.05612,0.05368,0.0244,-0.00488,0.03172,0.15128,0.33672,0.16592,0.0976,0.06344,0.0244
0.04392,-0.0488,0.05368,0.03172,0.00976,0.01708,0.13176,0.28304,0.13176,0.0732,0.0488,0.01464
0.03416,-0.04148,0.0488,0.03172,0.01464,0.00976,0.11224,0.2196,0.10736,0.05368,0.03904,0.00976
0.0244,-0.03172,0.03904,0.02684,0.01464,0.00488,0.08784,0.17568,0.08296,0.04392,0.02928,-0.00488
0.00976,-0.01464,0.01952,0.01464,0.00976,0,0.08296,0.13664,0.0488,0.02928,0.00488,-0.01464
0,-0.00732,0.01464,0.01464,0.01464,-0.00732,0.0732,0.0976,0.01952,0.00976,-0.00976,-0.0244
-0.00488,0,0.00488,0.00732,0.00976,-0.00732,0.05856,0.08296,0.00488,0.00488,-0.00976,-0.03416
-0.00976,0.00488,0,0.00488,0.00976,-0.00976,0.0488,0.04392,-0.00976,-0.00976,-0.01952,-0.04392
-0.01952,0.01464,-0.00976,0,0.00976,-0.01464,0.03904,0.0244,-0.02928,-0.01952,-0.02928,-0.03904
-0.01464,0.01464,-0.01464,-0.00732,0,-0.00732,0.02928,0.00976,-0.04392,-0.02928,-0.03904,-0.04392
-0.02928,0.02196,-0.01464,0,0.01464,-0.02196,0.0244,-0.00488,-0.05856,-0.03416,-0.04392,-0.0488
-0.03416,0.02684,-0.01952,-0.00244,0.01464,-0.0244,0.0244,-0.01464,-0.06832,-0.03904,-0.03904,-0.05368
-0.0244,0.0244,-0.0244,-0.0122,0,-0.0122,0.01952,-0.01952,-0.07808,-0.0488,-0.04392,-0.05856
-0.02928,0.02684,-0.0244,-0.00976,0.00488,-0.01708,0.01952,-0.02928,-0.08296,-0.0488,-0.0488,-0.05856
-0.02928,0.02928,-0.02928,-0.01464,0,-0.01464,0.01464,-0.02928,-0.09272,-0.05368,-0.0488,-0.05856
-0.03416,0.03172,-0.02928,-0.0122,0.00488,-0.01952,0.01464,-0.03416,-0.09272,-0.06344,-0.05368,-0.05856
-0.03416,0.03416,-0.03416,-0.01708,0,-0.01708,0,-0.03904,-0.0976,-0.05856,-0.0488,-0.05856
-0.03416,0.03416,-0.03416,-0.01708,0,-0.01708,0,-0.04392,-0.0976,-0.05856,-0.05368,-0.06344
-0.03416,0.03416,-0.03416,-0.01708,0,-0.01708,0,-0.04392,-0.10248,-0.06344,-0.06344,-0.06344
-0.03416,0.03416,-0.03416,-0.01708,0,-0.01708,0,-0.04392,-0.10248,-0.06344,-0.05856,-0.06344
-0.02928,0.03172,-0.03416,-0.01952,-0.00488,-0.0122,0.00488,-0.0488,-0.10248,-0.06832,-0.06344,-0.06832
-0.02928,0.03172,-0.03416,-0.01952,-0.00488,-0.0122,0.00488,-0.0488,-0.10248,-0.06832,-0.06344,-0.06832
-0.02928,0.02928,-0.02928,-0.01464,0,-0.01464,-0.00488,-0.0488,-0.10248,-0.05856,-0.06344,-0.06832
-0.02928,0.02928,-0.02928,-0.01464,0,-0.01464,-0.00488,-0.0488,-0.10248,-0.05856,-0.06344,-0.06344
-0.02928,0.02928,-0.02928,-0.01464,0,-0.01464,-0.00488,-0.05856,-0.10248,-0.06832,-0.05368,-0.05856
-0.03416,0.03172,-0.02928,-0.0122,0.00488,-0.01952,-0.00488,-0.05856,-0.10248,-0.06344,-0.05368,-0.05856
-0.03416,0.0366,-0.03904,-0.02196,-0.00488,-0.01464,0,-0.05856,-0.0976,-0.06344,-0.06832,-0.06832
-0.03904,0.03904,-0.03904,-0.01952,0,-0.01952,0,-0.05856,-0.0976,-0.06832,-0.06344,-0.06832
-0.03416,0.0366,-0.03904,-0.02196,-0.00488,-0.01464,0,-0.0488,-0.0976,-0.06344,-0.06344,-0.06832
-0.03416,0.0366,-0.03904,-0.02196,-0.00488,-0.01464,0,-0.0488,-0.0976,-0.06344,-0.06344,-0.06832
-0.03416,0.0366,-0.03904,-0.02196,-0.00488,-0.01464,0,-0.0488,-0.0976,-0.06344,-0.06344,-0.06832
-0.03416,0.0366,-0.03904,-0.02196,-0.00488,-0.01464,0,-0.0488,-0.09272,-0.06344,-0.06344,-0.06832
-0.0244,0.03172,-0.03904,-0.02684,-0.01464,-0.00488,0,-0.0488,-0.0976,-0.05368,-0.06344,-0.05856
-0.0244,0.03172,-0.03904,-0.02684,-0.01464,-0.00488,0,-0.0488,-0.0976,-0.05368,-0.05856,-0.05856
-0.0244,0.03172,-0.03904,-0.02684,-0.01464,-0.00488,0,-0.05856,-0.0976,-0.05368,-0.05368,-0.05856
-0.0244,0.03172,-0.03904,-0.02684,-0.01464,-0.00488,0,-0.05856,-0.0976,-0.05368,-0.05856,-0.05856
-0.0244,0.03172,-0.03904,-0.02684,-0.01464,-0.00488,0,-0.06344,-0.0976,-0.05856,-0.05856,-0.05856
-0.0244,0.02928,-0.03416,-0.02196,-0.00976,-0.00732,0,-0.06344,-0.0976,-0.05368,-0.05856,-0.05856
-0.0244,0.02928,-0.03416,-0.02196,-0.00976,-0.00732,0,-0.06344,-0.0976,-0.06344,-0.05368,-0.05856
-0.01952,0.02684,-0.03416,-0.0244,-0.01464,-0.00244,-0.00488,-0.06344,-0.0976,-0.06344,-0.05368,-0.05856
-0.02928,0.03172,-0.03416,-0.01952,-0.00488,-0.0122,-0.01464,-0.06344,-0.0976,-0.06344,-0.06344,-0.05856
-0.02928,0.03172,-0.03416,-0.01952,-0.00488,-0.0122,-0.01464,-0.06344,-0.09272,-0.05856,-0.05856,-0.05856
-0.01952,0.02196,-0.0244,-0.01464,-0.00488,-0.00732,-0.00488,-0.05368,-0.09272,-0.05856,-0.05856,-0.05368
-0.01952,0.02196,-0.0244,-0.01464,-0.00488,-0.00732,-0.00488,-0.05368,-0.09272,-0.05856,-0.05368,-0.05368
-0.01952,0.02196,-0.0244,-0.01464,-0.00488,-0.00732,-0.00488,-0.05856,-0.0976,-0.05856,-0.05368,-0.05368
-0.01952,0.01952,-0.01952,-0.00976,0,-0.00976,-0.00488,-0.05856,-0.0976,-0.05856,-0.05368,-0.05368
-0.0244,0.02684,-0.02928,-0.01708,-0.00488,-0.00976,-0.00488,-0.0488,-0.09272,-0.0488,-0.05368,-0.05368
-0.0244,0.02684,-0.02928,-0.01708,-0.00488,-0.00976,-0.00488,-0.0488,-0.09272,-0.0488,-0.0488,-0.0488
-0.01464,0.02196,-0.02928,-0.02196,-0.01464,0,-0.00488,-0.05856,-0.09272,-0.0488,-0.05368,-0.0488
-0.01464,0.02196,-0.02928,-0.02196,-0.01464,0,-0.00488,-0.05368,-0.09272,-0.0488,-0.05368,-0.0488
-0.0244,0.02684,-0.02928,-0.01708,-0.00488,-0.00976,0,-0.05368,-0.09272,-0.05856,-0.05368,-0.0488
-0.0244,0.02684,-0.02928,-0.01708,-0.00488,-0.00976,0,-0.05368,-0.08784,-0.05368,-0.0488,-0.0488
-0.01464,0.01952,-0.0244,-0.01708,-0.00976,-0.00244,0,-0.05368,-0.0976,-0.05368,-0.05368,-0.0488
-0.01464,0.01952,-0.0244,-0.01708,-0.00976,-0.00244,0,-0.05368,-0.0976,-0.05368,-0.05368,-0.0488
-0.0244,0.0244,-0.0244,-0.0122,0,-0.0122,0,-0.0488,-0.08784,-0.0488,-0.05368,-0.0488
-0.0244,0.0244,-0.0244,-0.0122,0,-0.0122,0,-0.0488,-0.08784,-0.0488,-0.05368,-0.0488
-0.01952,0.0244,-0.02928,-0.01952,-0.00976,-0.00488,0,-0.03904,-0.0976,-0.0488,-0.05368,-0.0488
-0.01952,0.0244,-0.02928,-0.01952,-0.00976,-0.00488,0,-0.03904,-0.0976,-0.0488,-0.05368,-0.0488
-0.02928,0.02928,-0.02928,-0.01464,0,-0.01464,0,-0.03904,-0.0976,-0.0488,-0.05368,-0.0488
-0.02928,0.02928,-0.02928,-0.01464,0,-0.01464,0,-0.03904,-0.0976,-0.0488,-0.05368,-0.0488
-0.0244,0.02684,-0.02928,-0.01708,-0.00488,-0.00976,0,-0.03904,-0.08784,-0.0488,-0.05856,-0.0488
-0.0244,0.02684,-0.02928,-0.01708,-0.00488,-0.00976,0,-0.03904,-0.08784,-0.05368,-0.05368,-0.0488
-0.0244,0.02684,-0.02928,-0.01708,-0.00488,-0.00976,0,-0.0488,-0.09272,-0.05856,-0.05368,-0.0488
-0.0244,0.02684,-0.02928,-0.01708,-0.00488,-0.00976,0,-0.0488,-0.09272,-0.05856,-0.05856,-0.0488
-0.0244,0.02684,-0.02928,-0.01708,-0.00488,-0.00976,0,-0.05368,-0.0976,-0.05856,-0.0488,-0.0488
-0.0244,0.02928,-0.03416,-0.02196,-0.00976,-0.00732,0,-0.05368,-0.10248,-0.05856,-0.0488,-0.05368
-0.0244,0.02928,-0.03416,-0.02196,-0.00976,-0.00732,0,-0.05368,-0.10736,-0.06344,-0.05856,-0.04392
-0.0244,0.02928,-0.03416,-0.02196,-0.00976,-0.00732,-0.00488,-0.05856,-0.10736,-0.06832,-0.05856,-0.04392
-0.0244,0.02928,-0.03416,-0.02196,-0.00976,-0.00732,-0.00488,-0.0488,-0.10248,-0.06832,-0.06832,-0.04392
-0.0244,0.03172,-0.03904,-0.02684,-0.01464,-0.00488,-0.00488,-0.05368,-0.10248,-0.06832,-0.06832,-0.04392
-0.01952,0.02928,-0.03904,-0.02928,-0.01952,0,-0.00488,-0.05368,-0.10248,-0.06832,-0.06832,-0.04392
-0.01952,0.02928,-0.03904,-0.02928,-0.01952,0,-0.00488,-0.05368,-0.10736,-0.06832,-0.06344,-0.04392
-0.01952,0.03416,-0.0488,-0.03904,-0.02928,0.00488,-0.01464,-0.05368,-0.10736,-0.06832,-0.06832,-0.04392
-0.01952,0.03416,-0.0488,-0.03904,-0.02928,0.00488,-0.01464,-0.05856,-0.11224,-0.06832,-0.06832,-0.04392
-0.01952,0.02928,-0.03904,-0.02928,-0.01952,0,-0.01464,-0.05856,-0.11224,-0.06832,-0.0732,-0.03904
-0.01952,0.02928,-0.03904,-0.02928,-0.01952,0,-0.01464,-0.05856,-0.11712,-0.06832,-0.0732,-0.03904
-0.01952,0.03416,-0.0488,-0.03904,-0.02928,0.00488,-0.00488,-0.06344,-0.11712,-0.0732,-0.0732,-0.03904
-0.01952,0.03416,-0.0488,-0.03904,-0.02928,0.00488,-0.00488,-0.06344,-0.11712,-0.0732,-0.0732,-0.03904
-0.03416,0.04148,-0.0488,-0.03172,-0.01464,-0.00976,-0.00488,-0.06344,-0.11712,-0.0732,-0.06832,-0.0488
-0.03416,0.04148,-0.0488,-0.03172,-0.01464,-0.00976,-0.00488,-0.06832,-0.11224,-0.0732,-0.06832,-0.05368
-0.03416,0.04148,-0.0488,-0.03172,-0.01464,-0.00976,-0.00488,-0.06344,-0.11712,-0.0732,-0.06832,-0.04392
-0.03416,0.04148,-0.0488,-0.03172,-0.01464,-0.00976,-0.00976,-0.06344,-0.11712,-0.0732,-0.06832,-0.04392
-0.0244,0.03904,-0.05368,-0.04148,-0.02928,0.00244,-0.00976,-0.06344,-0.11712,-0.07808,-0.05856,-0.04392
-0.0244,0.03904,-0.05368,-0.04148,-0.02928,0.00244,-0.00976,-0.06832,-0.122,-0.07808,-0.05856,-0.04392
-0.03416,0.04392,-0.05368,-0.0366,-0.01952,-0.00732,-0.00976,-0.06832,-0.122,-0.07808,-0.06344,-0.05368
-0.03416,0.04392,-0.05368,-0.0366,-0.01952,-0.00732,-0.00976,-0.06832,-0.122,-0.07808,-0.06344,-0.05368
-0.03416,0.04392,-0.05368,-0.0366,-0.01952,-0.00732,-0.00976,-0.06832,-0.11224,-0.07808,-0.06344,-0.04392
-0.03416,0.04392,-0.05368,-0.0366,-0.01952,-0.00732,-0.00976,-0.0732,-0.11224,-0.07808,-0.06344,-0.04392
-0.0244,0.0366,-0.0488,-0.0366,-0.0244,0,-0.00976,-0.0732,-0.122,-0.07808,-0.06344,-0.05368
-0.0244,0.0366,-0.0488,-0.0366,-0.0244,0,-0.00976,-0.0732,-0.12688,-0.07808,-0.06344,-0.05368
-0.02928,0.04392,-0.05856,-0.04392,-0.02928,0,-0.00976,-0.0732,-0.12688,-0.07808,-0.0732,-0.04392
-0.03416,0.04636,-0.05856,-0.04148,-0.0244,-0.00488,-0.01464,-0.07808,-0.12688,-0.07808,-0.0732,-0.04392
-0.0244,0.0366,-0.0488,-0.0366,-0.0244,0,-0.00976,-0.06832,-0.11712,-0.06832,-0.06344,-0.04392
-0.0244,0.03904,-0.05368,-0.04148,-0.02928,0.00244,-0.00976,-0.06832,-0.11712,-0.06832,-0.06344,-0.04392
-0.0244,0.03904,-0.05368,-0.04148,-0.02928,0.00244,-0.00976,-0.07808,-0.122,-0.07808,-0.0732,-0.04392
-0.0244,0.03904,-0.05368,-0.04148,-0.02928,0.00244,-0.00976,-0.07808,-0.122,-0.07808,-0.0732,-0.04392
-0.0244,0.03904,-0.05368,-0.04148,-0.02928,0.00244,-0.00976,-0.06832,-0.122,-0.08296,-0.0732,-0.04392
-0.0244,0.03904,-0.05368,-0.04148,-0.02928,0.00244,-0.00976,-0.0732,-0.122,-0.07808,-0.0732,-0.04392
-0.0244,0.03904,-0.05368,-0.04148,-0.02928,0.00244,-0.01952,-0.08296,-0.13176,-0.07808,-0.0732,-0.04392
-0.02928,0.04148,-0.05368,-0.03904,-0.0244,-0.00244,-0.01952,-0.08296,-0.13176,-0.08296,-0.0732,-0.04392
-0.03416,0.04636,-0.05856,-0.04148,-0.0244,-0.00488,-0.00976,-0.0732,-0.122,-0.08296,-0.0732,-0.04392
-0.03416,0.04636,-0.05856,-0.04148,-0.0244,-0.00488,-0.01464,-0.0732,-0.122,-0.08296,-0.0732,-0.04392
-0.0244,0.04148,-0.05856,-0.04636,-0.03416,0.00488,-0.01464,-0.0732,-0.13176,-0.08296,-0.0732,-0.04392
-0.0244,0.04392,-0.06344,-0.05124,-0.03904,0.00732,-0.01464,-0.07808,-0.13176,-0.08296,-0.0732,-0.04392
-0.03416,0.0488,-0.06344,-0.04636,-0.02928,-0.00244,-0.01464,-0.0732,-0.122,-0.08296,-0.06344,-0.04392
-0.03416,0.0488,-0.06344,-0.04636,-0.02928,-0.00244,-0.01464,-0.0732,-0.122,-0.08296,-0.06344,-0.04392
-0.03416,0.0488,-0.06344,-0.04636,-0.02928,-0.00244,-0.00488,-0.0732,-0.122,-0.0732,-0.06344,-0.04392
-0.0244,0.04148,-0.05856,-0.04636,-0.03416,0.00488,-0.00976,-0.0732,-0.12688,-0.0732,-0.06344,-0.03416
-0.02928,0.04392,-0.05856,-0.04392,-0.02928,0,-0.00976,-0.07808,-0.12688,-0.07808,-0.06832,-0.03904
-0.02928,0.04392,-0.05856,-0.04392,-0.02928,0,-0.00976,-0.07808,-0.12688,-0.07808,-0.06832,-0.0488
-0.02928,0.04392,-0.05856,-0.04392,-0.02928,0,-0.00976,-0.07808,-0.12688,-0.07808,-0.06832,-0.0488
-0.02928,0.04392,-0.05856,-0.04392,-0.02928,0,-0.00976,-0.07808,-0.12688,-0.07808,-0.06832,-0.0488
-0.02928,0.04392,-0.05856,-0.04392,-0.02928,0,-0.00976,-0.07808,-0.12688,-0.07808,-0.06832,-0.0488
-0.02928,0.0488,-0.06832,-0.05368,-0.03904,0.00488,-0.00976,-0.07808,-0.12688,-0.07808,-0.06832,-0.03904
-0.02928,0.0488,-0.06832,-0.05368,-0.03904,0.00488,-0.00976,-0.07808,-0.12688,-0.07808,-0.06832,-0.03904
-0.02928,0.0488,-0.06832,-0.05368,-0.03904,0.00488,-0.00976,-0.07808,-0.12688,-0.07808,-0.06832,-0.0488
-0.02928,0.0488,-0.06832,-0.05368,-0.03904,0.00488,-0.00976,-0.07808,-0.12688,-0.07808,-0.06832,-0.0488
-0.02928,0.0488,-0.06832,-0.05368,-0.03904,0.00488,-0.00976,-0.07808,-0.12688,-0.07808,-0.06832,-0.03904
-0.02928,0.0488,-0.06832,-0.05368,-0.03904,0.00488,-0.00976,-0.07808,-0.12688,-0.07808,-0.06832,-0.03904
-0.01952,0.03904,-0.05856,-0.0488,-0.03904,0.00976,-0.00976,-0.08784,-0.12688,-0.08784,-0.06832,-0.0488
-0.01952,0.03904,-0.05856,-0.0488,-0.03904,0.00976,-0.00976,-0.08784,-0.12688,-0.08784,-0.06832,-0.0488
-0.01952,0.03904,-0.05856,-0.0488,-0.03904,0.00976,-0.00976,-0.07808,-0.13664,-0.08784,-0.06832,-0.03904
-0.01952,0.03904,-0.05856,-0.0488,-0.03904,0.00976,-0.00976,-0.07808,-0.13664,-0.08784,-0.06832,-0.03904
-0.02928,0.0488,-0.06832,-0.05368,-0.03904,0.00488,-0.00976,-0.07808,-0.12688,-0.07808,-0.06832,-0.03904
-0.02928,0.05368,-0.07808,-0.06344,-0.0488,0.00976,-0.00976,-0.07808,-0.12688,-0.07808,-0.06832,-0.03904
-0.02928,0.0488,-0.06832,-0.05368,-0.03904,0.00488,-0.00976,-0.08784,-0.12688,-0.07808,-0.06832,-0.03904
-0.02928,0.0488,-0.06832,-0.05368,-0.03904,0.00488,-0.00976,-0.08784,-0.12688,-0.07808,-0.06832,-0.03904
-0.02928,0.0488,-0.06832,-0.05368,-0.03904,0.00488,-0.00976,-0.08784,-0.12688,-0.08784,-0.06832,-0.03904
-0.02928,0.0488,-0.06832,-0.05368,-0.03904,0.00488,-0.00976,-0.08784,-0.12688,-0.08784,-0.06832,-0.03904
-0.02928,0.0488,-0.06832,-0.05368,-0.03904,0.00488,-0.00976,-0.07808,-0.12688,-0.07808,-0.07808,-0.03904
-0.02928,0.0488,-0.06832,-0.05368,-0.03904,0.00488,-0.00976,-0.07808,-0.12688,-0.07808,-0.07808,-0.03904
-0.02928,0.0488,-0.06832,-0.05368,-0.03904,0.00488,-0.00976,-0.08784,-0.12688,-0.08784,-0.06832,-0.03904
-0.02928,0.0488,-0.06832,-0.05368,-0.03904,0.00488,-0.00976,-0.08784,-0.12688,-0.08784,-0.06832,-0.03904
-0.02928,0.0488,-0.06832,-0.05368,-0.03904,0.00488,-0.00976,-0.08784,-0.12688,-0.08784,-0.07808,-0.03904
-0.02928,0.0488,-0.06832,-0.05368,-0.03904,0.00488,-0.00976,-0.08784,-0.12688,-0.08784,-0.07808,-0.03904
-0.02928,0.0488,-0.06832,-0.05368,-0.03904,0.00488,-0.00976,-0.08784,-0.12688,-0.08784,-0.07808,-0.03904
-0.02928,0.0488,-0.06832,-0.05368,-0.03904,0.00488,-0.00976,-0.08784,-0.12688,-0.08784,-0.07808,-0.03904
-0.02928,0.0488,-0.06832,-0.05368,-0.03904,0.00488,-0.00976,-0.07808,-0.12688,-0.08784,-0.07808,-0.03904
-0.02928,0.0488,-0.06832,-0.05368,-0.03904,0.00488,-0.00976,-0.07808,-0.12688,-0.08784,-0.07808,-0.03904
-0.02928,0.0488,-0.06832,-0.05368,-0.03904,0.00488,-0.00976,-0.08784,-0.12688,-0.08784,-0.07808,-0.03904
-0.02928,0.0488,-0.06832,-0.05368,-0.03904,0.00488,-0.00976,-0.08784,-0.12688,-0.08784,-0.07808,-0.03904
-0.02928,0.05368,-0.07808,-0.06344,-0.0488,0.00976,-0.00976,-0.08784,-0.12688,-0.08784,-0.07808,-0.03904
-0.02928,0.05368,-0.07808,-0.06344,-0.0488,0.00976,-0.00976,-0.08784,-0.12688,-0.08784,-0.07808,-0.03904
-0.02928,0.05368,-0.07808,-0.06344,-0.0488,0.00976,-0.00976,-0.08784,-0.12688,-0.08784,-0.07808,-0.03904
-0.02928,0.05368,-0.07808,-0.06344,-0.0488,0.00976,-0.00976,-0.08784,-0.12688,-0.08784,-0.07808,-0.03904
-0.02928,0.05368,-0.07808,-0.06344,-0.0488,0.00976,-0.00976,-0.08784,-0.12688,-0.08784,-0.07808,-0.03904
-0.02928,0.05368,-0.07808,-0.06344,-0.0488,0.00976,-0.00976,-0.08784,-0.12688,-0.08784,-0.07808,-0.03904
-0.02928,0.05368,-0.07808,-0.06344,-0.0488,0.00976,-0.00976,-0.08784,-0.12688,-0.08784,-0.07808,-0.03904
-0.02928,0.05368,-0.07808,-0.06344,-0.0488,0.00976,-0.00976,-0.08784,-0.12688,-0.08784,-0.07808,-0.03904
-0.02928,0.05368,-0.07808,-0.06344,-0.0488,0.00976,-0.00976,-0.08784,-0.12688,-0.08784,-0.07808,-0.03904
-0.02928,0.05368,-0.07808,-0.06344,-0.0488,0.00976,-0.00976,-0.08784,-0.12688,-0.08784,-0.07808,-0.03904
-0.02928,0.05368,-0.07808,-0.06344,-0.0488,0.00976,-0.00976,-0.08784,-0.12688,-0.08784,-0.07808,-0.03904
-0.02928,0.05368,-0.07808,-0.06344,-0.0488,0.00976,-0.00976,-0.08784,-0.12688,-0.08784,-0.07808,-0.03904
-0.01952,0.0488,-0.07808,-0.06832,-0.05856,0.01952,-0.00976,-0.08784,-0.13664,-0.08784,-0.08784,-0.0488
-0.01952,0.0488,-0.07808,-0.06832,-0.05856,0.01952,-0.00976,-0.08784,-0.13664,-0.08784,-0.08784,-0.0488
-0.02928,0.0488,-0.06832,-0.05368,-0.03904,0.00488,-0.00976,-0.0976,-0.12688,-0.08784,-0.08784,-0.0488
-0.02928,0.0488,-0.06832,-0.05368,-0.03904,0.00488,-0.00976,-0.0976,-0.12688,-0.08784,-0.08784,-0.0488
-0.02928,0.0488,-0.06832,-0.05368,-0.03904,0.00488,-0.00976,-0.08784,-0.12688,-0.08784,-0.07808,-0.03904
-0.02928,0.0488,-0.06832,-0.05368,-0.03904,0.00488,-0.00976,-0.08784,-0.12688,-0.08784,-0.07808,-0.03904
-0.02928,0.05368,-0.07808,-0.06344,-0.0488,0.00976,-0.00976,-0.08784,-0.13664,-0.08784,-0.07808,-0.03904
-0.02928,0.05368,-0.07808,-0.06344,-0.0488,0.00976,-0.00976,-0.08784,-0.13664,-0.08784,-0.07808,-0.03904
-0.02928,0.0488,-0.06832,-0.05368,-0.03904,0.00488,-0.00976,-0.08784,-0.13664,-0.08784,-0.07808,-0.0488
-0.02928,0.0488,-0.06832,-0.05368,-0.03904,0.00488,-0.00976,-0.08784,-0.13664,-0.08784,-0.07808,-0.0488
-0.02928,0.05368,-0.07808,-0.06344,-0.0488,0.00976,-0.00976,-0.08784,-0.13664,-0.08784,-0.07808,-0.0488
-0.02928,0.05368,-0.07808,-0.06344,-0.0488,0.00976,-0.00976,-0.08784,-0.13664,-0.08784,-0.07808,-0.0488
-0.02928,0.0488,-0.06832,-0.05368,-0.03904,0.00488,-0.00976,-0.08784,-0.13664,-0.0976,-0.07808,-0.0488
-0.02928,0.0488,-0.06832,-0.05368,-0.03904,0.00488,-0.00976,-0.08784,-0.13664,-0.0976,-0.07808,-0.0488
-0.01952,0.0488,-0.07808,-0.06832,-0.05856,0.01952,-0.00976,-0.08784,-0.13664,-0.0976,-0.08784,-0.0488
-0.01952,0.04636,-0.0732,-0.06344,-0.05368,0.01708,-0.00976,-0.08784,-0.13664,-0.09272,-0.08784,-0.04392
-0.02928,0.04636,-0.06344,-0.0488,-0.03416,0.00244,0,-0.08784,-0.13176,-0.09272,-0.07808,-0.04392
-0.0244,0.04392,-0.06344,-0.05124,-0.03904,0.00732,0.00488,-0.08296,-0.12688,-0.08296,-0.07808,-0.04392
-0.0244,0.0366,-0.0488,-0.0366,-0.0244,0,0.01952,-0.0732,-0.11712,-0.0732,-0.0732,-0.03416
-0.01952,0.02928,-0.03904,-0.02928,-0.01952,0,0.0244,-0.06832,-0.11224,-0.06832,-0.0732,-0.02928
-0.00488,0.01708,-0.02928,-0.02684,-0.0244,0.00976,0.02928,-0.0488,-0.10248,-0.06344,-0.05856,-0.02928
-0.00488,0.0122,-0.01952,-0.01708,-0.01464,0.00488,0.04392,-0.0488,-0.0976,-0.05368,-0.05856,-0.0244
0,0.00732,-0.01464,-0.01464,-0.01464,0.00732,0.0488,-0.0488,-0.09272,-0.05856,-0.05368,-0.0244
0,0.00488,-0.00976,-0.00976,-0.00976,0.00488,0.05368,-0.03904,-0.09272,-0.05856,-0.05368,-0.01952
0,0.00732,-0.01464,-0.01464,-0.01464,0.00732,0.05368,-0.03416,-0.08784,-0.0488,-0.05368,-0.01952
0.00976,0.00244,-0.01464,-0.01952,-0.0244,0.01708,0.05368,-0.03416,-0.08784,-0.0488,-0.0488,-0.01464
0.01464,0,-0.01464,-0.02196,-0.02928,0.02196,0.03416,-0.03904,-0.08784,-0.04392,-0.0488,-0.01464
0.01952,-0.00488,-0.00976,-0.01952,-0.02928,0.0244,0.00488,-0.04392,-0.08784,-0.04392,-0.04392,-0.00488
0.03416,-0.02196,0.00976,-0.00732,-0.0244,0.02928,-0.01952,-0.05368,-0.07808,-0.0488,-0.03904,-0.00488
0.03904,-0.0244,0.00976,-0.00976,-0.02928,0.03416,-0.01952,-0.06832,-0.07808,-0.0488,-0.03904,0.00488
0.05368,-0.03172,0.00976,-0.01708,-0.04392,0.0488,-0.02928,-0.05856,-0.08784,-0.04392,-0.03904,0
0.05368,-0.03172,0.00976,-0.01708,-0.04392,0.0488,-0.03416,-0.0732,-0.0976,-0.0488,-0.03904,0
0.05856,-0.03172,0.00488,-0.0244,-0.05368,0.05612,-0.03904,-0.08784,-0.10248,-0.0488,-0.03416,-0.00488
0.05368,-0.0244,-0.00488,-0.03172,-0.05856,0.05612,-0.0488,-0.09272,-0.11224,-0.05856,-0.03904,-0.00488
0.05368,-0.01952,-0.01464,-0.04148,-0.06832,0.061,-0.0488,-0.09272,-0.11712,-0.05856,-0.0488,-0.00488
0.05856,-0.0122,-0.03416,-0.06344,-0.09272,0.07564,-0.05856,-0.09272,-0.12688,-0.06344,-0.05368,-0.00976
0.05368,-0.00488,-0.04392,-0.07076,-0.0976,0.07564,-0.05856,-0.09272,-0.12688,-0.06344,-0.05856,-0.0244
0.05368,-0.00488,-0.04392,-0.07076,-0.0976,0.07564,-0.05856,-0.09272,-0.13176,-0.0732,-0.06344,-0.02928
0.03904,0.00976,-0.05856,-0.07808,-0.0976,0.06832,-0.05368,-0.09272,-0.122,-0.06832,-0.06344,-0.01952
0.0244,0.01952,-0.06344,-0.07564,-0.08784,0.05612,-0.04392,-0.08296,-0.11712,-0.06832,-0.06832,-0.02928
0.00488,0.0244,-0.05368,-0.05612,-0.05856,0.03172,-0.03904,-0.0732,-0.122,-0.0732,-0.06832,-0.02928
-0.01464,0.03904,-0.06344,-0.05612,-0.0488,0.01708,-0.02928,-0.0732,-0.122,-0.07808,-0.07808,-0.03904
-0.01952,0.0488,-0.07808,-0.06832,-0.05856,0.01952,-0.0244,-0.09272,-0.14152,-0.08784,-0.08784,-0.0488
-0.02928,0.05612,-0.08296,-0.06832,-0.05368,0.0122,-0.02928,-0.11712,-0.16104,-0.10248,-0.0976,-0.05368
-0.02928,0.061,-0.09272,-0.07808,-0.06344,0.01708,-0.03416,-0.11712,-0.16104,-0.10736,-0.0976,-0.05368
-0.02928,0.06344,-0.0976,-0.08296,-0.06832,0.01952,-0.03416,-0.122,-0.15128,-0.10736,-0.0976,-0.05368
-0.0244,0.05856,-0.09272,-0.08052,-0.06832,0.02196,-0.03416,-0.10736,-0.16104,-0.10736,-0.10248,-0.05368
-0.02928,0.06344,-0.0976,-0.08296,-0.06832,0.01952,-0.03416,-0.0976,-0.15616,-0.10736,-0.10248,-0.05856
-0.03416,0.06344,-0.09272,-0.07564,-0.05856,0.0122,-0.02928,-0.10248,-0.14152,-0.10736,-0.10248,-0.05368
-0.03416,0.06344,-0.09272,-0.07564,-0.05856,0.0122,-0.0244,-0.10248,-0.14152,-0.10736,-0.10248,-0.05368
-0.02928,0.061,-0.09272,-0.07808,-0.06344,0.01708,-0.0244,-0.10248,-0.15128,-0.10736,-0.10248,-0.05856
-0.02928,0.061,-0.09272,-0.07808,-0.06344,0.01708,-0.01952,-0.10736,-0.15128,-0.10736,-0.10248,-0.05856
-0.03416,0.061,-0.08784,-0.07076,-0.05368,0.00976,-0.01952,-0.10248,-0.15128,-0.10248,-0.10248,-0.05856
-0.03416,0.061,-0.08784,-0.07076,-0.05368,0.00976,-0.01952,-0.0976,-0.1464,-0.10248,-0.10248,-0.05856
-0.04392,0.06588,-0.08784,-0.06588,-0.04392,0,-0.01464,-0.0976,-0.13664,-0.08784,-0.10248,-0.0488
-0.04392,0.06344,-0.08296,-0.061,-0.03904,-0.00244,-0.01464,-0.09272,-0.13176,-0.08784,-0.09272,-0.0488
-0.04392,0.06344,-0.08296,-0.061,-0.03904,-0.00244,0,-0.10736,-0.15128,-0.10248,-0.10248,-0.05856
-0.06344,0.07808,-0.09272,-0.061,-0.02928,-0.01708,0.01952,-0.11224,-0.2196,-0.13664,-0.1464,-0.08296
-0.07808,0.09272,-0.10736,-0.06832,-0.02928,-0.0244,0.08296,-0.02928,-0.2196,-0.1708,-0.15616,-0.0976
-0.07808,0.09028,-0.10248,-0.06344,-0.0244,-0.02684,0.20008,0.05368,-0.06832,-0.09272,-0.11712,-0.07808
-0.01464,-0.01708,0.0488,0.05612,0.06344,-0.03904,0.18056,0.05856,0.20496,0.122,0.0244,0.03416
0.18544,-0.24156,0.29768,0.20496,0.11224,0.0366,-0.10248,0.14152,0.61488,0.49776,0.28792,0.23912
0.43432,-0.51484,0.59536,0.3782,0.16104,0.13664,-0.4392,0.40504,1.16632,0.94672,0.61976,0.47824
0.70272,-0.79544,0.88816,0.5368,0.18544,0.25864,-0.91256,0.67344,1.68848,1.3664,0.93696,0.72224
0.99064,-1.08824,1.18584,0.69052,0.1952,0.39772,-1.2688,1.06872,2.3668,1.81536,1.27368,0.976
1.23952,-1.35664,1.47376,0.854,0.23424,0.50264,-1.6836,1.16144,2.89384,2.16184,1.54696,1.20536
1.36152,-1.42984,1.49816,0.8174,0.13664,0.61244,-1.84464,1.16144,3.19152,2.25944,1.6348,1.28344
1.28344,-1.2322,1.18096,0.53924,-0.10248,0.69296,-1.72264,1.01016,3.03536,1.95688,1.45912,1.15656
1.04432,-0.90036,0.7564,0.23424,-0.28792,0.66612,-1.4884,0.41968,2.2204,1.34688,1.07848,0.9028
0.72712,-0.58072,0.43432,0.07076,-0.2928,0.50996,-1.19072,-0.01952,1.1956,0.75152,0.68808,0.6344
0.35624,-0.32208,0.28792,0.1098,-0.06832,0.21228,-0.9028,-0.67344,0.1708,0.27328,0.33184,0.3904
0.21472,-0.20252,0.19032,0.08296,-0.0244,0.11956,-0.63928,-0.61488,-0.21472,0.03416,0.13664,0.22448
0.15616,-0.15372,0.15128,0.0732,-0.00488,0.08052,-0.44408,-0.43432,-0.13664,0.00488,0.07808,0.16104
0.122,-0.09516,0.06832,0.00732,-0.05368,0.08784,-0.30744,-0.25864,-0.06344,0.01464,0.04392,0.11224
0.09272,-0.0732,0.05368,0.00732,-0.03904,0.06588,-0.17568,-0.13176,-0.01464,0.0244,0.0244,0.08784
0.06344,-0.0488,0.03416,0.00244,-0.02928,0.04636,-0.08296,-0.08296,0,0.00488,-0.00976,0.05368
0.04392,-0.02196,0,-0.02196,-0.04392,0.04392,-0.0488,-0.05856,-0.00976,-0.00976,-0.0244,0.02928
0.01464,0.01464,-0.04392,-0.05124,-0.05856,0.0366,-0.01464,-0.02928,-0.02928,-0.01464,-0.03416,0.00488
0,0.02684,-0.05368,-0.05368,-0.05368,0.02684,0.01952,-0.01952,-0.04392,-0.02928,-0.04392,0.00488
-0.00488,0.02928,-0.05368,-0.05124,-0.0488,0.02196,0.04392,-0.02928,-0.05856,-0.05368,-0.0488,-0.00488
-0.01952,0.04148,-0.06344,-0.05368,-0.04392,0.0122,0.04392,-0.02928,-0.06832,-0.06344,-0.05856,-0.00976
-0.01952,0.04636,-0.0732,-0.06344,-0.05368,0.01708,0.0488,-0.01952,-0.0732,-0.06832,-0.06344,-0.01952
-0.0244,0.05124,-0.07808,-0.06588,-0.05368,0.01464,0.06344,-0.00488,-0.0732,-0.05856,-0.06832,-0.0244
-0.0244,0.05124,-0.07808,-0.06588,-0.05368,0.01464,0.0732,0,-0.0732,-0.06344,-0.06832,-0.01952
-0.03416,0.05612,-0.07808,-0.061,-0.04392,0.00488,0.08784,-0.00488,-0.0732,-0.06344,-0.06832,-0.02928
-0.03416,0.05856,-0.08296,-0.06588,-0.0488,0.00732,0.08296,0,-0.0732,-0.06832,-0.0732,-0.03416
-0.0244,0.05368,-0.08296,-0.07076,-0.05856,0.01708,0.08784,0,-0.08296,-0.06832,-0.07808,-0.03416
-0.02928,0.05612,-0.08296,-0.06832,-0.05368,0.0122,0.09272,0.01464,-0.08296,-0.06832,-0.07808,-0.03904
-0.0244,0.05368,-0.08296,-0.07076,-0.05856,0.01708,0.0976,0.01464,-0.06832,-0.06344,-0.0732,-0.03416
-0.0244,0.05368,-0.08296,-0.07076,-0.05856,0.01708,0.0976,0.01464,-0.06832,-0.06344,-0.0732,-0.03416
-0.03416,0.05368,-0.0732,-0.05612,-0.03904,0.00244,0.0976,0.01952,-0.06344,-0.05856,-0.06832,-0.03416
-0.03416,0.05368,-0.0732,-0.05612,-0.03904,0.00244,0.0976,0.0244,-0.06344,-0.05856,-0.0732,-0.03416
-0.0244,0.0488,-0.0732,-0.061,-0.0488,0.0122,0.08784,0.03416,-0.06344,-0.05368,-0.06832,-0.03416
-0.0244,0.0488,-0.0732,-0.061,-0.0488,0.0122,0.09272,0.03416,-0.06344,-0.05368,-0.0732,-0.02928
-0.02928,0.04636,-0.06344,-0.0488,-0.03416,0.00244,0.0976,0.02928,-0.06832,-0.05368,-0.0732,-0.02928
-0.02928,0.04636,-0.06344,-0.0488,-0.03416,0.00244,0.0976,0.03416,-0.06344,-0.05368,-0.0732,-0.02928
-0.01952,0.04636,-0.0732,-0.06344,-0.05368,0.01708,0.0976,0.03416,-0.06344,-0.05368,-0.0732,-0.03416
-0.01952,0.04636,-0.0732,-0.06344,-0.05368,0.01708,0.10248,0.03904,-0.06344,-0.05368,-0.06832,-0.02928
-0.0244,0.04636,-0.06832,-0.05612,-0.04392,0.00976,0.10736,0.05368,-0.05856,-0.0488,-0.0732,-0.02928
-0.0244,0.04636,-0.06832,-0.05612,-0.04392,0.00976,0.10736,0.05368,-0.05368,-0.05368,-0.0732,-0.03416
-0.0244,0.04636,-0.06832,-0.05612,-0.04392,0.00976,0.10736,0.0488,-0.0488,-0.0488,-0.06344,-0.02928
-0.0244,0.04636,-0.06832,-0.05612,-0.04392,0.00976,0.11224,0.05856,-0.0488,-0.0488,-0.05856,-0.02928
-0.0244,0.04636,-0.06832,-0.05612,-0.04392,0.00976,0.122,0.05856,-0.04392,-0.05856,-0.06832,-0.02928
-0.01952,0.04392,-0.06832,-0.05856,-0.0488,0.01464,0.12688,0.06832,-0.04392,-0.05368,-0.06832,-0.02928
-0.01952,0.03904,-0.05856,-0.0488,-0.03904,0.00976,0.11712,0.06832,-0.05368,-0.05368,-0.06832,-0.02928
-0.01952,0.03904,-0.05856,-0.0488,-0.03904,0.00976,0.12688,0.0732,-0.04392,-0.05368,-0.06344,-0.0244
-0.01952,0.04148,-0.06344,-0.05368,-0.04392,0.0122,0.13664,0.08296,-0.03416,-0.05368,-0.06832,-0.0244
-0.01952,0.04148,-0.06344,-0.05368,-0.04392,0.0122,0.13664,0.08784,-0.03416,-0.05368,-0.0732,-0.0244
-0.00976,0.03172,-0.05368,-0.0488,-0.04392,0.01708,0.14152,0.0976,-0.03416,-0.05368,-0.0732,-0.01952
-0.00976,0.03416,-0.05856,-0.05368,-0.0488,0.01952,0.15128,0.10736,-0.02928,-0.0488,-0.0732,-0.0244
-0.00976,0.03416,-0.05856,-0.05368,-0.0488,0.01952,0.16104,0.10736,-0.01952,-0.0488,-0.06344,-0.02928
-0.00488,0.02928,-0.05368,-0.05124,-0.0488,0.02196,0.1708,0.11712,-0.01952,-0.0488,-0.06344,-0.02928
-0.01464,0.03904,-0.06344,-0.05612,-0.0488,0.01708,0.18056,0.13664,-0.01952,-0.0488,-0.06344,-0.01952
-0.01464,0.03904,-0.06344,-0.05612,-0.0488,0.01708,0.19032,0.1464,-0.01952,-0.0488,-0.05856,-0.01952
-0.01464,0.03416,-0.05368,-0.04636,-0.03904,0.0122,0.20008,0.16592,-0.00976,-0.0488,-0.05856,-0.0244
-0.01464,0.03416,-0.05368,-0.04636,-0.03904,0.0122,0.2196,0.18056,-0.00488,-0.03904,-0.05856,-0.0244
-0.00976,0.03172,-0.05368,-0.0488,-0.04392,0.01708,0.22936,0.20008,0,-0.03904,-0.05368,-0.01952
-0.00976,0.03172,-0.05368,-0.0488,-0.04392,0.01708,0.244,0.2196,0.00488,-0.03416,-0.05368,-0.01464
-0.00976,0.0366,-0.06344,-0.05856,-0.05368,0.02196,0.2684,0.22936,0.01952,-0.03416,-0.0488,-0.01464
-0.00976,0.0366,-0.06344,-0.05856,-0.05368,0.02196,0.28304,0.24888,0.0244,-0.02928,-0.03904,-0.00976
-0.00488,0.02928,-0.05368,-0.05124,-0.0488,0.02196,0.30256,0.27328,0.03904,-0.03416,-0.0488,-0.00976
-0.00488,0.02928,-0.05368,-0.05124,-0.0488,0.02196,0.31232,0.29768,0.05368,-0.0244,-0.03904,-0.00488
0,0.0244,-0.0488,-0.0488,-0.0488,0.0244,0.32208,0.33672,0.05368,-0.01464,-0.02928,0
0.00488,0.02196,-0.0488,-0.05124,-0.05368,0.02928,0.3416,0.366,0.06344,-0.01464,-0.02928,0.00976
0.01464,0.00976,-0.03416,-0.04148,-0.0488,0.03172,0.35136,0.37576,0.0732,-0.00488,-0.01464,0.00976
0.0244,0.00488,-0.03416,-0.04636,-0.05856,0.04148,0.36112,0.3904,0.09272,0.00488,-0.00488,0.01952
0.0244,0.00244,-0.02928,-0.04148,-0.05368,0.03904,0.36112,0.41968,0.11224,0.00488,0,0.03416
0.02928,-0.00244,-0.0244,-0.03904,-0.05368,0.04148,0.36112,0.44408,0.122,0.01952,0.00976,0.03904
0.04392,-0.01464,-0.01464,-0.0366,-0.05856,0.05124,0.37088,0.45872,0.13664,0.0244,0.00976,0.04392
0.0488,-0.02196,-0.00488,-0.02928,-0.05368,0.05124,0.36112,0.46848,0.16104,0.03416,0.0244,0.05856
0.05856,-0.03172,0.00488,-0.0244,-0.05368,0.05612,0.34648,0.47824,0.1708,0.05368,0.03416,0.05856
0.0732,-0.04148,0.00976,-0.02684,-0.06344,0.06832,0.33184,0.48312,0.18544,0.05856,0.04392,0.06344
0.08296,-0.05124,0.01952,-0.02196,-0.06344,0.0732,0.30744,0.488,0.20496,0.06344,0.05368,0.07808
0.09272,-0.05856,0.0244,-0.02196,-0.06832,0.08052,0.27816,0.488,0.21472,0.06832,0.05368,0.08296
0.10248,-0.06832,0.03416,-0.01708,-0.06832,0.0854,0.24888,0.48312,0.22448,0.07808,0.0488,0.07808
0.10248,-0.07076,0.03904,-0.0122,-0.06344,0.08296,0.2196,0.45872,0.2196,0.08296,0.0488,0.07808
0.09272,-0.06588,0.03904,-0.00732,-0.05368,0.0732,0.1952,0.4148,0.20984,0.06832,0.03904,0.06832
0.08296,-0.06344,0.04392,0.00244,-0.03904,0.061,0.16592,0.35136,0.17568,0.06344,0.02928,0.05856
0.0732,-0.05368,0.03416,-0.00244,-0.03904,0.05612,0.1464,0.2928,0.14152,0.04392,0.01952,0.0488
0.05856,-0.04392,0.02928,0,-0.02928,0.04392,0.12688,0.244,0.10248,0.0244,0,0.03416
0.0488,-0.03172,0.01464,-0.00976,-0.03416,0.04148,0.10248,0.1952,0.08784,0.00976,-0.01952,0.01952
0.03416,-0.01952,0.00488,-0.0122,-0.02928,0.03172,0.08296,0.15128,0.06344,0.00488,-0.0244,0.00976
0.0244,-0.0122,0,-0.0122,-0.0244,0.0244,0.0732,0.10736,0.02928,-0.01952,-0.04392,0
0.00976,-0.00244,-0.00488,-0.00976,-0.01464,0.0122,0.05368,0.0732,-0.00488,-0.03416,-0.05368,-0.00976
0.00488,0.00244,-0.00976,-0.0122,-0.01464,0.00976,0.04392,0.04392,-0.01464,-0.0488,-0.05368,-0.01952
-0.00488,0.0122,-0.01952,-0.01708,-0.01464,0.00488,0.03416,0.01464,-0.02928,-0.06344,-0.06344,-0.0244
-0.00976,0.01708,-0.0244,-0.01952,-0.01464,0.00244,0.0244,0,-0.05856,-0.06344,-0.0732,-0.03416
-0.00488,0.01464,-0.0244,-0.02196,-0.01952,0.00732,0.01952,-0.00976,-0.07808,-0.06832,-0.08296,-0.03904
-0.01464,0.02196,-0.02928,-0.02196,-0.01464,0,0.0244,-0.02928,-0.07808,-0.08784,-0.07808,-0.0488
-0.01464,0.02196,-0.02928,-0.02196,-0.01464,0,0.01952,-0.0488,-0.08296,-0.09272,-0.08296,-0.05368
-0.01464,0.0244,-0.03416,-0.02684,-0.01952,0.00244,0.00976,-0.05368,-0.08784,-0.08784,-0.09272,-0.0488
-0.01952,0.02928,-0.03904,-0.02928,-0.01952,0,0.00976,-0.05856,-0.10248,-0.08784,-0.0976,-0.0488
-0.01952,0.02928,-0.03904,-0.02928,-0.01952,0,0.00488,-0.05856,-0.10248,-0.10248,-0.0976,-0.0488
-0.0244,0.03416,-0.04392,-0.03172,-0.01952,-0.00244,0.00488,-0.06344,-0.10248,-0.0976,-0.10736,-0.0488
-0.0244,0.02928,-0.03416,-0.02196,-0.00976,-0.00732,0.00976,-0.06832,-0.10736,-0.0976,-0.10736,-0.05368
-0.0244,0.02928,-0.03416,-0.02196,-0.00976,-0.00732,0.00976,-0.0732,-0.11224,-0.0976,-0.11224,-0.05368
-0.0244,0.02928,-0.03416,-0.02196,-0.00976,-0.00732,0.00976,-0.0732,-0.11224,-0.10248,-0.11224,-0.06344
-0.01952,0.02684,-0.03416,-0.0244,-0.01464,-0.00244,0.00976,-0.0732,-0.11224,-0.10736,-0.10736,-0.06344
-0.01952,0.03172,-0.04392,-0.03416,-0.0244,0.00244,0.00488,-0.06832,-0.11224,-0.0976,-0.10248,-0.06832
-0.01952,0.03172,-0.04392,-0.03416,-0.0244,0.00244,0.00488,-0.06832,-0.11224,-0.0976,-0.10248,-0.06832
-0.01952,0.02928,-0.03904,-0.02928,-0.01952,0,0.00488,-0.07808,-0.11224,-0.10736,-0.11224,-0.05368
-0.01952,0.02928,-0.03904,-0.02928,-0.01952,0,0.00488,-0.07808,-0.11224,-0.10736,-0.11224,-0.05856
-0.01952,0.03416,-0.0488,-0.03904,-0.02928,0.00488,-0.00488,-0.07808,-0.11224,-0.10248,-0.11224,-0.05856
-0.0244,0.0366,-0.0488,-0.0366,-0.0244,0,-0.00976,-0.07808,-0.11224,-0.10248,-0.11712,-0.05856
-0.0244,0.0366,-0.0488,-0.0366,-0.0244,0,0,-0.06832,-0.11712,-0.10736,-0.11712,-0.05856
-0.02928,0.03904,-0.0488,-0.03416,-0.01952,-0.00488,0,-0.06832,-0.11712,-0.10248,-0.11224,-0.05856
-0.0244,0.0366,-0.0488,-0.0366,-0.0244,0,0,-0.07808,-0.11712,-0.10248,-0.11224,-0.0488
-0.0244,0.0366,-0.0488,-0.0366,-0.0244,0,0,-0.07808,-0.11712,-0.10248,-0.11224,-0.0488
-0.0244,0.0366,-0.0488,-0.0366,-0.0244,0,-0.00976,-0.07808,-0.11224,-0.10248,-0.11224,-0.0488
-0.0244,0.0366,-0.0488,-0.0366,-0.0244,0,-0.00976,-0.07808,-0.11712,-0.10248,-0.11224,-0.0488
-0.0244,0.0366,-0.0488,-0.0366,-0.0244,0,-0.00976,-0.06832,-0.10736,-0.10248,-0.11224,-0.0488
-0.0244,0.0366,-0.0488,-0.0366,-0.0244,0,-0.00976,-0.05856,-0.10736,-0.10248,-0.10736,-0.0488
-0.0244,0.03172,-0.03904,-0.02684,-0.01464,-0.00488,0,-0.06832,-0.11712,-0.10248,-0.11712,-0.0488
-0.0244,0.03172,-0.03904,-0.02684,-0.01464,-0.00488,0,-0.06832,-0.11712,-0.10736,-0.11712,-0.0488
-0.01464,0.0244,-0.03416,-0.02684,-0.01952,0.00244,-0.00976,-0.0732,-0.11712,-0.10736,-0.11712,-0.0488
-0.01464,0.0244,-0.03416,-0.02684,-0.01952,0.00244,-0.00976,-0.0732,-0.11712,-0.10248,-0.11224,-0.0488
-0.0244,0.02928,-0.03416,-0.02196,-0.00976,-0.00732,-0.00488,-0.0732,-0.11712,-0.10248,-0.11224,-0.05856
-0.01952,0.02684,-0.03416,-0.0244,-0.01464,-0.00244,-0.00488,-0.0732,-0.11712,-0.10248,-0.11224,-0.05856
-0.01952,0.02684,-0.03416,-0.0244,-0.01464,-0.00244,-0.00488,-0.0732,-0.11712,-0.10248,-0.11712,-0.0488
-0.01952,0.02684,-0.03416,-0.0244,-0.01464,-0.00244,-0.00488,-0.0732,-0.11224,-0.0976,-0.11712,-0.0488
-0.01952,0.02684,-0.03416,-0.0244,-0.01464,-0.00244,-0.00488,-0.0732,-0.11224,-0.0976,-0.11224,-0.04392
-0.01952,0.02684,-0.03416,-0.0244,-0.01464,-0.00244,-0.00488,-0.0732,-0.10736,-0.0976,-0.11224,-0.04392
-0.01952,0.03172,-0.04392,-0.03416,-0.0244,0.00244,-0.00488,-0.06832,-0.10736,-0.0976,-0.11224,-0.04392
-0.01952,0.02928,-0.03904,-0.02928,-0.01952,0,-0.00488,-0.06832,-0.11224,-0.0976,-0.11224,-0.04392
-0.01464,0.02684,-0.03904,-0.03172,-0.0244,0.00488,-0.00488,-0.06832,-0.11224,-0.0976,-0.10736,-0.0488
-0.01464,0.02684,-0.03904,-0.03172,-0.0244,0.00488,-0.00488,-0.06832,-0.11224,-0.0976,-0.11224,-0.0488
-0.01464,0.02684,-0.03904,-0.03172,-0.0244,0.00488,-0.00488,-0.06832,-0.10248,-0.08784,-0.10248,-0.0488
-0.01464,0.02684,-0.03904,-0.03172,-0.0244,0.00488,0,-0.06344,-0.10248,-0.08784,-0.10248,-0.0488
-0.01464,0.02196,-0.02928,-0.02196,-0.01464,0,0,-0.06344,-0.10736,-0.08296,-0.10736,-0.0488
-0.01464,0.02196,-0.02928,-0.02196,-0.01464,0,0,-0.06344,-0.10736,-0.08296,-0.10736,-0.0488
-0.01464,0.0244,-0.03416,-0.02684,-0.01952,0.00244,0,-0.06344,-0.10736,-0.09272,-0.11224,-0.0488
-0.01464,0.0244,-0.03416,-0.02684,-0.01952,0.00244,0,-0.06344,-0.10736,-0.09272,-0.11224,-0.0488
-0.01464,0.0244,-0.03416,-0.02684,-0.01952,0.00244,0,-0.06832,-0.10736,-0.08784,-0.10248,-0.0488
-0.00976,0.02196,-0.03416,-0.02928,-0.0244,0.00732,0,-0.06832,-0.10736,-0.08784,-0.10248,-0.0488
-0.00976,0.01952,-0.02928,-0.0244,-0.01952,0.00488,0,-0.06832,-0.10736,-0.08784,-0.11224,-0.0488
-0.00976,0.01952,-0.02928,-0.0244,-0.01952,0.00488,0,-0.06832,-0.10736,-0.08784,-0.11224,-0.0488
-0.00976,0.01952,-0.02928,-0.0244,-0.01952,0.00488,0,-0.05856,-0.10736,-0.0976,-0.10248,-0.0488
-0.00976,0.01952,-0.02928,-0.0244,-0.01952,0.00488,0,-0.05856,-0.10736,-0.0976,-0.10736,-0.0488
-0.01464,0.02196,-0.02928,-0.02196,-0.01464,0,0,-0.06832,-0.10736,-0.0976,-0.10248,-0.0488
-0.01464,0.02196,-0.02928,-0.02196,-0.01464,0,0,-0.06832,-0.11224,-0.10736,-0.10248,-0.0488
-0.01464,0.02196,-0.02928,-0.02196,-0.01464,0,-0.00976,-0.06832,-0.11224,-0.0976,-0.11224,-0.0488
-0.01464,0.02196,-0.02928,-0.02196,-0.01464,0,-0.00976,-0.0732,-0.11224,-0.0976,-0.11712,-0.0488
-0.01464,0.01952,-0.0244,-0.01708,-0.00976,-0.00244,-0.00976,-0.0732,-0.122,-0.10736,-0.11712,-0.05368
-0.01464,0.01952,-0.0244,-0.01708,-0.00976,-0.00244,-0.00976,-0.0732,-0.11712,-0.10736,-0.11712,-0.05368
-0.01464,0.01952,-0.0244,-0.01708,-0.00976,-0.00244,-0.00488,-0.0732,-0.12688,-0.10736,-0.11712,-0.05368
-0.01464,0.01952,-0.0244,-0.01708,-0.00976,-0.00244,-0.00488,-0.07808,-0.12688,-0.10736,-0.122,-0.05368
-0.01464,0.0244,-0.03416,-0.02684,-0.01952,0.00244,-0.00488,-0.0732,-0.122,-0.10736,-0.11712,-0.05368
-0.01952,0.02928,-0.03904,-0.02928,-0.01952,0,-0.00488,-0.0732,-0.122,-0.10736,-0.11712,-0.05368
-0.01952,0.0244,-0.02928,-0.01952,-0.00976,-0.00488,-0.00488,-0.08296,-0.12688,-0.10736,-0.12688,-0.05368
-0.01952,0.0244,-0.02928,-0.01952,-0.00976,-0.00488,-0.00488,-0.08296,-0.12688,-0.10736,-0.122,-0.05368
-0.02928,0.02928,-0.02928,-0.01464,0,-0.01464,-0.00488,-0.08784,-0.12688,-0.10736,-0.12688,-0.05368
-0.02928,0.02928,-0.02928,-0.01464,0,-0.01464,-0.00488,-0.08784,-0.13176,-0.10736,-0.12688,-0.05368
-0.02928,0.03416,-0.03904,-0.0244,-0.00976,-0.00976,-0.01464,-0.07808,-0.13664,-0.11712,-0.122,-0.05856
-0.02928,0.03416,-0.03904,-0.0244,-0.00976,-0.00976,-0.01464,-0.08296,-0.13664,-0.11712,-0.122,-0.05856
-0.02928,0.02928,-0.02928,-0.01464,0,-0.01464,-0.01464,-0.08296,-0.12688,-0.11224,-0.13176,-0.05856
-0.03416,0.03172,-0.02928,-0.0122,0.00488,-0.01952,-0.01464,-0.08296,-0.12688,-0.11224,-0.12688,-0.05856
-0.0244,0.03172,-0.03904,-0.02684,-0.01464,-0.00488,-0.00488,-0.08784,-0.13176,-0.11224,-0.12688,-0.05856
-0.0244,0.03172,-0.03904,-0.02684,-0.01464,-0.00488,-0.00488,-0.08296,-0.13664,-0.11224,-0.12688,-0.06344
-0.0244,0.03172,-0.03904,-0.02684,-0.01464,-0.00488,-0.01952,-0.08296,-0.13664,-0.11224,-0.12688,-0.06344
-0.0244,0.03172,-0.03904,-0.02684,-0.01464,-0.00488,-0.01952,-0.08296,-0.13664,-0.11712,-0.12688,-0.06344
-0.03416,0.03416,-0.03416,-0.01708,0,-0.01708,-0.00976,-0.09272,-0.13664,-0.11712,-0.12688,-0.06344
-0.03416,0.03416,-0.03416,-0.01708,0,-0.01708,-0.00976,-0.0976,-0.14152,-0.11712,-0.13176,-0.06344
-0.03416,0.03416,-0.03416,-0.01708,0,-0.01708,-0.00976,-0.08784,-0.14152,-0.11712,-0.13176,-0.06344
-0.03416,0.03416,-0.03416,-0.01708,0,-0.01708,-0.00976,-0.08784,-0.14152,-0.11712,-0.13176,-0.06344
-0.03416,0.03904,-0.04392,-0.02684,-0.00976,-0.0122,-0.00976,-0.09272,-0.14152,-0.11712,-0.13176,-0.06344
-0.03416,0.03904,-0.04392,-0.02684,-0.00976,-0.0122,-0.00976,-0.09272,-0.14152,-0.11712,-0.13176,-0.06344
-0.0244,0.03172,-0.03904,-0.02684,-0.01464,-0.00488,-0.01952,-0.09272,-0.14152,-0.12688,-0.13176,-0.0732
-0.01952,0.02928,-0.03904,-0.02928,-0.01952,0,-0.01952,-0.09272,-0.1464,-0.12688,-0.13176,-0.0732
-0.03416,0.0366,-0.03904,-0.02196,-0.00488,-0.01464,-0.01952,-0.09272,-0.1464,-0.12688,-0.13176,-0.0732
-0.03416,0.0366,-0.03904,-0.02196,-0.00488,-0.01464,-0.0244,-0.0976,-0.1464,-0.12688,-0.13176,-0.0732
-0.03416,0.0366,-0.03904,-0.02196,-0.00488,-0.01464,-0.01952,-0.0976,-0.1464,-0.12688,-0.14152,-0.0732
-0.03416,0.03904,-0.04392,-0.02684,-0.00976,-0.0122,-0.01952,-0.0976,-0.15128,-0.12688,-0.14152,-0.0732
-0.03416,0.03416,-0.03416,-0.01708,0,-0.01708,-0.01952,-0.0976,-0.14152,-0.12688,-0.13176,-0.06344
-0.03416,0.03416,-0.03416,-0.01708,0,-0.01708,-0.01952,-0.0976,-0.14152,-0.12688,-0.13176,-0.06344
-0.0244,0.02928,-0.03416,-0.02196,-0.00976,-0.00732,-0.01952,-0.0976,-0.15128,-0.13176,-0.13176,-0.06344
-0.0244,0.02928,-0.03416,-0.02196,-0.00976,-0.00732,-0.01952,-0.10248,-0.15128,-0.12688,-0.13176,-0.06344
-0.03904,0.04148,-0.04392,-0.0244,-0.00488,-0.01708,-0.01952,-0.10248,-0.14152,-0.12688,-0.13176,-0.06344
-0.03904,0.04148,-0.04392,-0.0244,-0.00488,-0.01708,-0.01952,-0.10248,-0.14152,-0.13176,-0.13176,-0.06344
-0.03416,0.0366,-0.03904,-0.02196,-0.00488,-0.01464,-0.01952,-0.10248,-0.15128,-0.122,-0.13176,-0.06344
-0.03416,0.0366,-0.03904,-0.02196,-0.00488,-0.01464,-0.0244,-0.10248,-0.15128,-0.122,-0.13176,-0.06344
-0.0244,0.02684,-0.02928,-0.01708,-0.00488,-0.00976,-0.0244,-0.10736,-0.15128,-0.13176,-0.14152,-0.06344
-0.0244,0.02928,-0.03416,-0.02196,-0.00976,-0.00732,-0.0244,-0.10248,-0.15128,-0.13176,-0.14152,-0.06344
-0.03416,0.03904,-0.04392,-0.02684,-0.00976,-0.0122,-0.0244,-0.10248,-0.15128,-0.122,-0.14152,-0.06344
-0.03416,0.03904,-0.04392,-0.02684,-0.00976,-0.0122,-0.0244,-0.10248,-0.15128,-0.122,-0.14152,-0.06344
-0.03416,0.03172,-0.02928,-0.0122,0.00488,-0.01952,-0.01464,-0.0976,-0.14152,-0.122,-0.13176,-0.06344
-0.0244,0.03172,-0.03904,-0.02684,-0.01464,-0.00488,-0.01952,-0.10736,-0.15128,-0.122,-0.14152,-0.06344
-0.02928,0.03416,-0.03904,-0.0244,-0.00976,-0.00976,-0.02928,-0.10736,-0.1464,-0.12688,-0.13664,-0.06832
-0.02928,0.03416,-0.03904,-0.0244,-0.00976,-0.00976,-0.02928,-0.10736,-0.1464,-0.12688,-0.13664,-0.06832
-0.02928,0.03416,-0.03904,-0.0244,-0.00976,-0.00976,-0.02928,-0.10736,-0.1464,-0.12688,-0.13664,-0.06832
-0.02928,0.03416,-0.03904,-0.0244,-0.00976,-0.00976,-0.02928,-0.10736,-0.1464,-0.12688,-0.13664,-0.06832
-0.02928,0.02928,-0.02928,-0.01464,0,-0.01464,-0.01952,-0.10736,-0.1464,-0.13664,-0.1464,-0.06832
-0.02928,0.02928,-0.02928,-0.01464,0,-0.01464,-0.01952,-0.10736,-0.1464,-0.13664,-0.1464,-0.06832
-0.02928,0.02928,-0.02928,-0.01464,0,-0.01464,-0.01952,-0.10736,-0.1464,-0.13664,-0.13664,-0.06832
-0.02928,0.02928,-0.02928,-0.01464,0,-0.01464,-0.01952,-0.10736,-0.1464,-0.13664,-0.13664,-0.06832
-0.02928,0.03416,-0.03904,-0.0244,-0.00976,-0.00976,-0.01952,-0.10736,-0.1464,-0.12688,-0.1464,-0.06832
-0.02928,0.03416,-0.03904,-0.0244,-0.00976,-0.00976,-0.01952,-0.10736,-0.1464,-0.12688,-0.1464,-0.06832
-0.02928,0.03416,-0.03904,-0.0244,-0.00976,-0.00976,-0.01952,-0.10736,-0.1464,-0.13664,-0.1464,-0.06832
-0.02928,0.03416,-0.03904,-0.0244,-0.00976,-0.00976,-0.01952,-0.10736,-0.1464,-0.13664,-0.1464,-0.06832
-0.03904,0.03904,-0.03904,-0.01952,0,-0.01952,-0.01952,-0.10736,-0.1464,-0.13664,-0.1464,-0.06832
-0.03904,0.03904,-0.03904,-0.01952,0,-0.01952,-0.01952,-0.10736,-0.1464,-0.13664,-0.1464,-0.06832
-0.02928,0.03416,-0.03904,-0.0244,-0.00976,-0.00976,-0.01952,-0.10736,-0.1464,-0.13664,-0.13664,-0.06832
-0.02928,0.03416,-0.03904,-0.0244,-0.00976,-0.00976,-0.01952,-0.10736,-0.1464,-0.13664,-0.13664,-0.06832
