i,aVR,ii,aVF,iii,aVL,V1,V2,V3,V4,V5,V6
-0.07808,0.10248,-0.12688,-0.08784,-0.0488,-0.01464,-0.05368,-0.08784,-0.08296,-0.06344,-0.03904,-0.0488
-0.07808,0.0854,-0.09272,-0.05368,-0.01464,-0.03172,-0.04392,-0.0732,-0.06344,-0.0488,-0.02928,-0.02928
-0.0732,0.06344,-0.05368,-0.01708,0.01952,-0.04636,-0.03416,-0.05856,-0.03904,-0.03904,-0.01464,-0.00488
-0.06344,0.04148,-0.01952,0.0122,0.04392,-0.05368,-0.01952,-0.0488,-0.01464,-0.00976,0.00976,0.01464
-0.05856,0.02928,0,0.02928,0.05856,-0.05856,-0.00488,-0.02928,0,0.00488,0.01952,0.0244
-0.05368,0.02684,0,0.02684,0.05368,-0.05368,0.00488,-0.0244,0.00488,0.00976,0.01464,0.0244
-0.0488,0.02196,0.00488,0.02928,0.05368,-0.05124,0.00488,-0.01464,0.00488,0.00976,0.01464,0.0244
-0.03416,0.01708,0,0.01708,0.03416,-0.03416,-0.00488,-0.00488,0.00488,0.00976,0.01464,0.01952
-0.0244,0.01464,-0.00488,0.00732,0.01952,-0.02196,-0.01464,0.00488,0,0.00976,0.01464,0.01952
-0.00976,0.00488,0,0.00488,0.00976,-0.00976,-0.0488,0.01464,0.00488,0.01464,0.0244,0.02928
0.00976,-0.00488,0,-0.00488,-0.00976,0.00976,-0.05856,0.01464,0.00488,0.01464,0.02928,0.02928
0.00976,0.00244,-0.01464,-0.01952,-0.0244,0.01708,-0.06344,-0.00488,-0.00976,0.00488,0.02928,0.02928
0,0.0122,-0.0244,-0.0244,-0.0244,0.0122,-0.0732,-0.03416,-0.03416,0,0.01952,0.0244
-0.00976,0.0366,-0.06344,-0.05856,-0.05368,0.02196,-0.07808,-0.05368,-0.0488,-0.0244,-0.00488,0.00976
-0.01952,0.0488,-0.07808,-0.06832,-0.05856,0.01952,-0.07808,-0.05368,-0.05856,-0.03416,-0.00976,0
-0.02928,0.05124,-0.0732,-0.05856,-0.04392,0.00732,-0.06344,-0.0488,-0.05856,-0.03416,-0.01464,-0.00488
-0.03904,0.06588,-0.09272,-0.0732,-0.05368,0.00732,-0.05856,-0.0488,-0.06344,-0.04392,-0.0244,-0.01464
-0.05368,0.0854,-0.11712,-0.09028,-0.06344,0.00488,-0.05368,-0.05856,-0.06832,-0.0488,-0.03416,-0.0244
-0.06344,0.0976,-0.13176,-0.10004,-0.06832,0.00244,-0.0488,-0.06832,-0.0732,-0.05856,-0.04392,-0.03416
-0.09272,0.12688,-0.16104,-0.11468,-0.06832,-0.0122,-0.0488,-0.08784,-0.0976,-0.07808,-0.05856,-0.05368
-0.10248,0.13908,-0.17568,-0.12444,-0.0732,-0.01464,-0.0488,-0.0976,-0.10248,-0.08784,-0.0732,-0.05368
-0.10248,0.14884,-0.1952,-0.14396,-0.09272,-0.00488,-0.0488,-0.10248,-0.11224,-0.09272,-0.07808,-0.06832
-0.10736,0.16104,-0.21472,-0.16104,-0.10736,0,-0.0488,-0.11224,-0.122,-0.0976,-0.08784,-0.07808
-0.10736,0.16592,-0.22448,-0.1708,-0.11712,0.00488,-0.0488,-0.11224,-0.12688,-0.0976,-0.08784,-0.07808
-0.10736,0.16836,-0.22936,-0.17568,-0.122,0.00732,-0.04392,-0.11224,-0.12688,-0.0976,-0.08784,-0.07808
-0.11224,0.1708,-0.22936,-0.17324,-0.11712,0.00244,-0.04392,-0.11224,-0.12688,-0.10248,-0.0976,-0.08296
-0.11224,0.1708,-0.22936,-0.17324,-0.11712,0.00244,-0.04392,-0.11224,-0.12688,-0.10248,-0.10248,-0.08296
-0.12688,0.18056,-0.23424,-0.1708,-0.10736,-0.00976,-0.04392,-0.10736,-0.12688,-0.10248,-0.10248,-0.08296
-0.122,0.17812,-0.23424,-0.17324,-0.11224,-0.00488,-0.0488,-0.10736,-0.12688,-0.10248,-0.10248,-0.08296
-0.122,0.18056,-0.23912,-0.17812,-0.11712,-0.00244,-0.0488,-0.10248,-0.13664,-0.11712,-0.10736,-0.10248
-0.13176,0.19764,-0.26352,-0.19764,-0.13176,0,-0.00488,-0.06832,-0.15128,-0.14152,-0.13664,-0.12688
-0.13176,0.2318,-0.33184,-0.26596,-0.20008,0.03416,0.08296,0.0244,-0.15128,-0.18056,-0.17568,-0.17568
-0.13176,0.2318,-0.33184,-0.26596,-0.20008,0.03416,0.13176,0.15616,-0.0976,-0.16104,-0.17568,-0.18544
-0.10736,0.20252,-0.29768,-0.244,-0.19032,0.04148,0.19032,0.34648,0.01952,-0.08784,-0.14152,-0.1708
-0.06344,0.1342,-0.20496,-0.17324,-0.14152,0.03904,0.25376,0.52704,0.19032,0.05856,-0.03904,-0.10248
-0.00488,0,0.00488,0.00732,0.00976,-0.00732,0.20496,0.58072,0.37576,0.26352,0.15616,0.05368
0,-0.13176,0.26352,0.26352,0.26352,-0.13176,-0.08784,0.23424,0.4148,0.39528,0.35624,0.27328
-0.01464,-0.11224,0.23912,0.24644,0.25376,-0.1342,-0.54656,-0.51728,0.04392,0.18544,0.25864,0.27328
-0.08296,0.0854,-0.08784,-0.04636,-0.00488,-0.03904,-0.96136,-1.60064,-0.66856,-0.30744,-0.0732,0.06344
-0.18544,0.26108,-0.33672,-0.244,-0.15128,-0.01708,-1.22488,-2.3424,-1.10776,-0.62464,-0.30256,-0.07808
-0.13176,0.32696,-0.52216,-0.45628,-0.3904,0.12932,-1.1956,-1.96664,-1.15656,-0.72712,-0.41968,-0.20008
-0.08296,0.30012,-0.51728,-0.4758,-0.43432,0.17568,-0.94672,-1.4396,-0.96136,-0.63928,-0.40016,-0.22448
-0.05368,0.20008,-0.34648,-0.31964,-0.2928,0.11956,-0.68808,-0.96624,-0.64904,-0.42456,-0.26352,-0.1464
-0.0488,0.13176,-0.21472,-0.19032,-0.16592,0.05856,-0.48312,-0.6344,-0.40504,-0.244,-0.13176,-0.05368
-0.0732,0.12444,-0.17568,-0.13908,-0.10248,0.01464,-0.31232,-0.40504,-0.28304,-0.18056,-0.09272,-0.0244
-0.09272,0.13664,-0.18056,-0.1342,-0.08784,-0.00244,-0.19032,-0.22936,-0.20008,-0.1464,-0.07808,-0.0244
-0.09272,0.13176,-0.1708,-0.12444,-0.07808,-0.00732,-0.13176,-0.12688,-0.11712,-0.08784,-0.0488,-0.0244
-0.0976,0.12932,-0.16104,-0.11224,-0.06344,-0.01708,-0.07808,-0.05856,-0.05856,-0.04392,-0.0244,-0.0244
-0.10248,0.13908,-0.17568,-0.12444,-0.0732,-0.01464,-0.03416,-0.01464,-0.06344,-0.04392,-0.0244,-0.0244
-0.10736,0.14152,-0.17568,-0.122,-0.06832,-0.01952,-0.03416,0,-0.06832,-0.0488,-0.02928,-0.0244
-0.10736,0.14152,-0.17568,-0.122,-0.06832,-0.01952,-0.03416,0,-0.05856,-0.05368,-0.03416,-0.03416
-0.10248,0.13908,-0.17568,-0.12444,-0.0732,-0.01464,-0.0244,0.01464,-0.05368,-0.05368,-0.03416,-0.04392
-0.11224,0.14884,-0.18544,-0.12932,-0.0732,-0.01952,-0.00976,0.02928,-0.0488,-0.05368,-0.02928,-0.0488
-0.11224,0.14884,-0.18544,-0.12932,-0.0732,-0.01952,0.00488,0.03904,-0.03904,-0.04392,-0.02928,-0.04392
-0.11224,0.14884,-0.18544,-0.12932,-0.0732,-0.01952,0.00976,0.0488,-0.02928,-0.03904,-0.02928,-0.04392
-0.11224,0.15128,-0.19032,-0.1342,-0.07808,-0.01708,0.01464,0.05856,-0.0244,-0.03904,-0.02928,-0.03904
-0.10248,0.1464,-0.19032,-0.13908,-0.08784,-0.00732,0.01952,0.06832,-0.01952,-0.03416,-0.0244,-0.03416
-0.0976,0.13908,-0.18056,-0.13176,-0.08296,-0.00732,0.0244,0.07808,-0.00976,-0.03416,-0.0244,-0.03416
-0.0976,0.1342,-0.1708,-0.122,-0.0732,-0.0122,0.02928,0.08296,-0.00976,-0.0244,-0.01952,-0.03416
-0.09272,0.12688,-0.16104,-0.11468,-0.06832,-0.0122,0.02928,0.09272,-0.00488,-0.01952,-0.01464,-0.02928
-0.08784,0.122,-0.15616,-0.11224,-0.06832,-0.00976,0.03416,0.10248,0.00488,-0.01464,-0.01464,-0.02928
-0.08784,0.122,-0.15616,-0.11224,-0.06832,-0.00976,0.03416,0.11224,0.00976,-0.00488,-0.00488,-0.02928
-0.07808,0.11468,-0.15128,-0.11224,-0.0732,-0.00244,0.03416,0.12688,0.01464,0,0,-0.0244
-0.07808,0.11224,-0.1464,-0.10736,-0.06832,-0.00488,0.03904,0.13664,0.01952,0.00976,0.00488,-0.0244
-0.0732,0.1098,-0.1464,-0.1098,-0.0732,0,0.03904,0.1464,0.02928,0.01464,0.00488,-0.01952
-0.0732,0.10736,-0.14152,-0.10492,-0.06832,-0.00244,0.04392,0.16104,0.03904,0.01952,0.00976,-0.00976
-0.0732,0.10736,-0.14152,-0.10492,-0.06832,-0.00244,0.04392,0.1708,0.04392,0.01952,0.00976,-0.00488
-0.0732,0.10492,-0.13664,-0.10004,-0.06344,-0.00488,0.04392,0.18056,0.0488,0.0244,0.01952,0
-0.0732,0.10248,-0.13176,-0.09516,-0.05856,-0.00732,0.04392,0.19032,0.05368,0.02928,0.0244,0.00488
-0.06832,0.0976,-0.12688,-0.09272,-0.05856,-0.00488,0.05368,0.20008,0.05856,0.03416,0.02928,0.00976
-0.0732,0.0976,-0.122,-0.0854,-0.0488,-0.0122,0.05368,0.20496,0.06832,0.03904,0.03416,0.01464
-0.0732,0.09028,-0.10736,-0.07076,-0.03416,-0.01952,0.0488,0.21472,0.06832,0.0488,0.03904,0.01952
-0.07808,0.0854,-0.09272,-0.05368,-0.01464,-0.03172,0.04392,0.22936,0.0732,0.05856,0.0488,0.0244
-0.0732,0.08052,-0.08784,-0.05124,-0.01464,-0.02928,0.03904,0.23912,0.08296,0.06344,0.0488,0.0244
-0.06832,0.07076,-0.0732,-0.03904,-0.00488,-0.03172,0.03416,0.25376,0.08296,0.06832,0.0488,0.0244
-0.06344,0.06344,-0.06344,-0.03172,0,-0.03172,0.03416,0.25864,0.08784,0.07808,0.05368,0.02928
-0.05856,0.05856,-0.05856,-0.02928,0,-0.02928,0.02928,0.26352,0.09272,0.07808,0.06344,0.03904
-0.05856,0.05368,-0.0488,-0.01952,0.00976,-0.03416,0.0244,0.27816,0.0976,0.08296,0.06832,0.0488
-0.05856,0.05124,-0.04392,-0.01464,0.01464,-0.0366,0.0244,0.28792,0.11224,0.08784,0.0732,0.05856
-0.05856,0.04636,-0.03416,-0.00488,0.0244,-0.04148,0.0244,0.30256,0.11224,0.0976,0.08296,0.06344
-0.05856,0.04392,-0.02928,0,0.02928,-0.04392,0.01952,0.3172,0.122,0.10248,0.08784,0.06832
-0.05368,0.04148,-0.02928,-0.00244,0.0244,-0.03904,0.01464,0.32208,0.12688,0.10736,0.08784,0.0732
-0.05368,0.0366,-0.01952,0.00732,0.03416,-0.04392,0.00976,0.33184,0.13176,0.11224,0.09272,0.0732
-0.0488,0.03416,-0.01952,0.00488,0.02928,-0.03904,0.00488,0.33184,0.13664,0.11712,0.0976,0.07808
-0.03904,0.02684,-0.01464,0.00488,0.0244,-0.03172,0,0.3416,0.13664,0.11712,0.10248,0.08296
-0.03416,0.01464,0.00488,0.02196,0.03904,-0.0366,-0.00488,0.34648,0.14152,0.122,0.11224,0.09272
-0.02928,0.00732,0.01464,0.02928,0.04392,-0.0366,-0.00488,0.35136,0.1464,0.12688,0.12688,0.10248
-0.01952,-0.00244,0.0244,0.03416,0.04392,-0.03172,-0.01464,0.35136,0.1464,0.13664,0.13176,0.11224
-0.01464,-0.00976,0.03416,0.04148,0.0488,-0.03172,-0.01952,0.35136,0.1464,0.14152,0.13664,0.11712
-0.00976,-0.01464,0.03904,0.04392,0.0488,-0.02928,-0.0244,0.34648,0.1464,0.14152,0.14152,0.122
-0.00976,-0.01708,0.04392,0.0488,0.05368,-0.03172,-0.02928,0.33672,0.1464,0.14152,0.1464,0.12688
0,-0.0244,0.0488,0.0488,0.0488,-0.0244,-0.03416,0.33184,0.1464,0.1464,0.1464,0.13664
0.00488,-0.03172,0.05856,0.05612,0.05368,-0.0244,-0.03904,0.32696,0.1464,0.15128,0.15128,0.13664
0.01952,-0.04148,0.06344,0.05368,0.04392,-0.0122,-0.04392,0.32208,0.1464,0.15128,0.15128,0.13664
0.03416,-0.05124,0.06832,0.05124,0.03416,0,-0.05856,0.30744,0.14152,0.1464,0.15128,0.14152
0.03416,-0.06344,0.09272,0.07564,0.05856,-0.0122,-0.06344,0.29768,0.13664,0.1464,0.15128,0.14152
0.03416,-0.07076,0.10736,0.09028,0.0732,-0.01952,-0.0732,0.28304,0.13176,0.14152,0.15128,0.15128
0.03416,-0.07076,0.10736,0.09028,0.0732,-0.01952,-0.08296,0.25864,0.122,0.13176,0.1464,0.15128
0.03904,-0.07808,0.11712,0.0976,0.07808,-0.01952,-0.09272,0.23424,0.11712,0.122,0.1464,0.15128
0.03904,-0.07808,0.11712,0.0976,0.07808,-0.01952,-0.11712,0.2196,0.11224,0.122,0.1464,0.15128
0.03904,-0.07808,0.11712,0.0976,0.07808,-0.01952,-0.12688,0.20008,0.0976,0.122,0.1464,0.15128
0.03904,-0.0732,0.10736,0.08784,0.06832,-0.01464,-0.13176,0.18056,0.0976,0.11712,0.15128,0.15128
0.03416,-0.061,0.08784,0.07076,0.05368,-0.00976,-0.13664,0.16104,0.08784,0.122,0.1464,0.1464
0.0244,-0.0488,0.0732,0.061,0.0488,-0.0122,-0.13664,0.14152,0.0732,0.11712,0.14152,0.1464
0.00976,-0.02684,0.04392,0.03904,0.03416,-0.0122,-0.14152,0.11224,0.06832,0.10248,0.122,0.13176
0,-0.00976,0.01952,0.01952,0.01952,-0.00976,-0.14152,0.09272,0.0488,0.07808,0.10248,0.11224
-0.01464,0.0122,-0.00976,-0.00244,0.00488,-0.00976,-0.13664,0.06832,0.03416,0.05368,0.0732,0.0976
-0.02928,0.0366,-0.04392,-0.02928,-0.01464,-0.00732,-0.13664,0.04392,0.01952,0.04392,0.05368,0.06832
-0.04392,0.061,-0.07808,-0.05612,-0.03416,-0.00488,-0.12688,0.02928,0.00488,0.0244,0.03416,0.0488
-0.05856,0.08296,-0.10736,-0.07808,-0.0488,-0.00488,-0.11712,0.01464,-0.00488,0.00488,0.01952,0.03416
-0.0732,0.10248,-0.13176,-0.09516,-0.05856,-0.00732,-0.10736,0,-0.01952,-0.01464,0.00488,0.00976
-0.08784,0.11712,-0.1464,-0.10248,-0.05856,-0.01464,-0.10248,-0.01952,-0.03416,-0.0244,-0.00976,0.00488
-0.09272,0.1342,-0.17568,-0.12932,-0.08296,-0.00488,-0.0976,-0.02928,-0.03416,-0.03904,-0.01952,-0.00488
-0.10248,0.14884,-0.1952,-0.14396,-0.09272,-0.00488,-0.09272,-0.03904,-0.04392,-0.05368,-0.03416,-0.01952
-0.11224,0.1586,-0.20496,-0.14884,-0.09272,-0.00976,-0.09272,-0.05368,-0.05368,-0.05856,-0.03904,-0.0244
-0.11224,0.16104,-0.20984,-0.15372,-0.0976,-0.00732,-0.0976,-0.05856,-0.06344,-0.06832,-0.0488,-0.02928
-0.11712,0.16592,-0.21472,-0.15616,-0.0976,-0.00976,-0.0976,-0.06832,-0.06344,-0.06832,-0.0488,-0.03416
-0.122,0.16592,-0.20984,-0.14884,-0.08784,-0.01708,-0.09272,-0.0732,-0.0732,-0.06832,-0.05368,-0.03416
-0.12688,0.16592,-0.20496,-0.14152,-0.07808,-0.0244,-0.09272,-0.0732,-0.0732,-0.0732,-0.06344,-0.03904
-0.12688,0.16836,-0.20984,-0.1464,-0.08296,-0.02196,-0.0976,-0.07808,-0.08296,-0.0732,-0.06344,-0.03904
-0.12688,0.1708,-0.21472,-0.15128,-0.08784,-0.01952,-0.0976,-0.07808,-0.08784,-0.0732,-0.06344,-0.03904
-0.122,0.16836,-0.21472,-0.15372,-0.09272,-0.01464,-0.10248,-0.08296,-0.08784,-0.07808,-0.06344,-0.03904
-0.11712,0.16592,-0.21472,-0.15616,-0.0976,-0.00976,-0.10248,-0.08296,-0.08784,-0.08296,-0.06344,-0.03904
-0.11712,0.16348,-0.20984,-0.15128,-0.09272,-0.0122,-0.10248,-0.08296,-0.08784,-0.08296,-0.06832,-0.04392
-0.11712,0.16104,-0.20496,-0.1464,-0.08784,-0.01464,-0.10248,-0.08296,-0.08784,-0.08296,-0.06832,-0.04392
-0.11712,0.16104,-0.20496,-0.1464,-0.08784,-0.01464,-0.10248,-0.08296,-0.08296,-0.07808,-0.06832,-0.04392
-0.11712,0.16104,-0.20496,-0.1464,-0.08784,-0.01464,-0.10248,-0.08296,-0.08296,-0.07808,-0.06832,-0.04392
-0.122,0.16348,-0.20496,-0.14396,-0.08296,-0.01952,-0.0976,-0.08784,-0.08296,-0.0732,-0.06344,-0.03416
-0.122,0.16592,-0.20984,-0.14884,-0.08784,-0.01708,-0.09272,-0.08784,-0.08296,-0.0732,-0.05856,-0.02928
-0.122,0.16592,-0.20984,-0.14884,-0.08784,-0.01708,-0.09272,-0.09272,-0.08296,-0.0732,-0.05856,-0.02928
-0.13176,0.1708,-0.20984,-0.14396,-0.07808,-0.02684,-0.08784,-0.09272,-0.08296,-0.0732,-0.05856,-0.02928
-0.13176,0.1708,-0.20984,-0.14396,-0.07808,-0.02684,-0.08784,-0.09272,-0.07808,-0.06832,-0.05856,-0.02928
-0.13176,0.17324,-0.21472,-0.14884,-0.08296,-0.0244,-0.09272,-0.09272,-0.07808,-0.06832,-0.05368,-0.02928
-0.13176,0.17324,-0.21472,-0.14884,-0.08296,-0.0244,-0.09272,-0.0976,-0.07808,-0.06832,-0.05368,-0.02928
-0.13176,0.1708,-0.20984,-0.14396,-0.07808,-0.02684,-0.09272,-0.0976,-0.07808,-0.06832,-0.05368,-0.0244
-0.13176,0.1708,-0.20984,-0.14396,-0.07808,-0.02684,-0.0976,-0.0976,-0.07808,-0.06832,-0.05368,-0.0244
-0.12688,0.16836,-0.20984,-0.1464,-0.08296,-0.02196,-0.0976,-0.09272,-0.07808,-0.06832,-0.05368,-0.0244
-0.122,0.16348,-0.20496,-0.14396,-0.08296,-0.01952,-0.09272,-0.0976,-0.08296,-0.06832,-0.05368,-0.02928
-0.122,0.16104,-0.20008,-0.13908,-0.07808,-0.02196,-0.09272,-0.0976,-0.08296,-0.06832,-0.05368,-0.03416
-0.11712,0.1586,-0.20008,-0.14152,-0.08296,-0.01708,-0.09272,-0.10248,-0.08296,-0.0732,-0.05368,-0.03416
-0.11712,0.1586,-0.20008,-0.14152,-0.08296,-0.01708,-0.09272,-0.10248,-0.08296,-0.07808,-0.05368,-0.03416
-0.122,0.16104,-0.20008,-0.13908,-0.07808,-0.02196,-0.09272,-0.10248,-0.08784,-0.07808,-0.05368,-0.02928
-0.122,0.16104,-0.20008,-0.13908,-0.07808,-0.02196,-0.0976,-0.10248,-0.08784,-0.07808,-0.05856,-0.0244
-0.12688,0.16348,-0.20008,-0.13664,-0.0732,-0.02684,-0.0976,-0.10248,-0.08784,-0.07808,-0.05856,-0.0244
-0.12688,0.16592,-0.20496,-0.14152,-0.07808,-0.0244,-0.0976,-0.10736,-0.09272,-0.07808,-0.05856,-0.0244
-0.12688,0.16836,-0.20984,-0.1464,-0.08296,-0.02196,-0.0976,-0.10736,-0.08784,-0.07808,-0.05856,-0.0244
-0.12688,0.17324,-0.2196,-0.15616,-0.09272,-0.01708,-0.0976,-0.11224,-0.08784,-0.07808,-0.05856,-0.02928
-0.12688,0.17324,-0.2196,-0.15616,-0.09272,-0.01708,-0.09272,-0.11224,-0.08784,-0.07808,-0.05856,-0.02928
-0.12688,0.17568,-0.22448,-0.16104,-0.0976,-0.01464,-0.08784,-0.11712,-0.08784,-0.07808,-0.05856,-0.02928
-0.12688,0.17324,-0.2196,-0.15616,-0.09272,-0.01708,-0.08784,-0.11712,-0.09272,-0.07808,-0.05856,-0.02928
-0.12688,0.1708,-0.21472,-0.15128,-0.08784,-0.01952,-0.08784,-0.11712,-0.0976,-0.07808,-0.05856,-0.02928
-0.12688,0.1708,-0.21472,-0.15128,-0.08784,-0.01952,-0.08784,-0.11712,-0.0976,-0.07808,-0.05856,-0.02928
-0.122,0.16836,-0.21472,-0.15372,-0.09272,-0.01464,-0.08784,-0.11712,-0.0976,-0.07808,-0.05856,-0.02928
-0.122,0.16836,-0.21472,-0.15372,-0.09272,-0.01464,-0.08784,-0.11712,-0.0976,-0.07808,-0.05856,-0.02928
-0.122,0.16592,-0.20984,-0.14884,-0.08784,-0.01708,-0.08296,-0.122,-0.0976,-0.07808,-0.05856,-0.02928
-0.11712,0.16592,-0.21472,-0.15616,-0.0976,-0.00976,-0.08296,-0.122,-0.0976,-0.0732,-0.05856,-0.0244
-0.11224,0.16592,-0.2196,-0.16348,-0.10736,-0.00244,-0.08296,-0.122,-0.0976,-0.06832,-0.06344,-0.0244
-0.11224,0.16592,-0.2196,-0.16348,-0.10736,-0.00244,-0.08296,-0.122,-0.09272,-0.06832,-0.06344,-0.0244
-0.11224,0.16592,-0.2196,-0.16348,-0.10736,-0.00244,-0.08296,-0.122,-0.08784,-0.06832,-0.06344,-0.0244
-0.11224,0.16592,-0.2196,-0.16348,-0.10736,-0.00244,-0.08296,-0.122,-0.08784,-0.06832,-0.05368,-0.0244
-0.10736,0.16348,-0.2196,-0.16592,-0.11224,0.00244,-0.08296,-0.122,-0.08784,-0.06832,-0.0488,-0.01952
-0.10736,0.16104,-0.21472,-0.16104,-0.10736,0,-0.0732,-0.11712,-0.0732,-0.06344,-0.03904,-0.00976
-0.10736,0.15128,-0.1952,-0.14152,-0.08784,-0.00976,-0.06344,-0.10248,-0.05856,-0.0488,-0.02928,0
-0.10248,0.122,-0.14152,-0.09028,-0.03904,-0.03172,-0.05368,-0.08784,-0.04392,-0.03904,-0.01464,0.00488
-0.09272,0.09028,-0.08784,-0.04148,0.00488,-0.0488,-0.04392,-0.07808,-0.0244,-0.00976,0.00976,0.01464
-0.08784,0.08296,-0.07808,-0.03416,0.00976,-0.0488,-0.02928,-0.05856,-0.00976,0,0.01464,0.0244
-0.08296,0.0854,-0.08784,-0.04636,-0.00488,-0.03904,-0.01464,-0.05368,-0.00488,0,0.00976,0.0244
-0.07808,0.08052,-0.08296,-0.04392,-0.00488,-0.0366,-0.01464,-0.04392,-0.00488,0,0.01464,0.02928
-0.06344,0.0732,-0.08296,-0.05124,-0.01952,-0.02196,-0.01952,-0.03416,0,0,0.01464,0.03416
-0.05368,0.06832,-0.08296,-0.05612,-0.02928,-0.0122,-0.0244,-0.02928,0,0,0.01464,0.03904
-0.04392,0.061,-0.07808,-0.05612,-0.03416,-0.00488,-0.05856,-0.0244,0.00488,0.00488,0.01952,0.0488
-0.02928,0.05368,-0.07808,-0.06344,-0.0488,0.00976,-0.06832,-0.0244,0.00488,0.00488,0.01952,0.0488
-0.02928,0.061,-0.09272,-0.07808,-0.06344,0.01708,-0.0732,-0.04392,-0.00976,-0.00488,0.01952,0.04392
-0.03904,0.06832,-0.0976,-0.07808,-0.05856,0.00976,-0.07808,-0.0732,-0.03416,-0.00976,0.00976,0.03416
-0.0488,0.09028,-0.13176,-0.10736,-0.08296,0.01708,-0.07808,-0.09272,-0.0488,-0.03416,-0.01464,0.01952
-0.05368,0.10004,-0.1464,-0.11956,-0.09272,0.01952,-0.07808,-0.09272,-0.05856,-0.04392,-0.01952,0.00488
-0.05856,0.10248,-0.1464,-0.11712,-0.08784,0.01464,-0.06344,-0.08784,-0.05856,-0.04392,-0.0244,-0.00488
-0.06832,0.11956,-0.1708,-0.13664,-0.10248,0.01708,-0.05856,-0.08296,-0.06344,-0.05368,-0.03416,-0.01464
-0.08296,0.13908,-0.1952,-0.15372,-0.11224,0.01464,-0.05368,-0.08296,-0.06832,-0.05856,-0.04392,-0.0244
-0.08296,0.14152,-0.20008,-0.1586,-0.11712,0.01708,-0.0488,-0.08784,-0.06832,-0.06344,-0.0488,-0.02928
-0.09272,0.15372,-0.21472,-0.16836,-0.122,0.01464,-0.0488,-0.10736,-0.08784,-0.07808,-0.05856,-0.04392
-0.09272,0.1586,-0.22448,-0.17812,-0.13176,0.01952,-0.0488,-0.11712,-0.09272,-0.08784,-0.0732,-0.04392
-0.09272,0.16592,-0.23912,-0.19276,-0.1464,0.02684,-0.0488,-0.122,-0.10248,-0.0976,-0.07808,-0.05856
-0.0976,0.17324,-0.24888,-0.20008,-0.15128,0.02684,-0.04392,-0.12688,-0.11224,-0.10736,-0.08784,-0.06832
-0.0976,0.17324,-0.24888,-0.20008,-0.15128,0.02684,-0.04392,-0.122,-0.11712,-0.10736,-0.08784,-0.06832
-0.09272,0.1708,-0.24888,-0.20252,-0.15616,0.03172,-0.04392,-0.122,-0.11712,-0.10736,-0.08784,-0.06832
-0.09272,0.1708,-0.24888,-0.20252,-0.15616,0.03172,-0.04392,-0.122,-0.11712,-0.11224,-0.09272,-0.0732
-0.09272,0.16836,-0.244,-0.19764,-0.15128,0.02928,-0.04392,-0.122,-0.11224,-0.11224,-0.0976,-0.0732
-0.10248,0.17324,-0.244,-0.19276,-0.14152,0.01952,-0.03904,-0.11712,-0.10736,-0.11224,-0.10248,-0.0732
-0.09272,0.16836,-0.244,-0.19764,-0.15128,0.02928,-0.03904,-0.11712,-0.10736,-0.11224,-0.10248,-0.0732
-0.09272,0.1708,-0.24888,-0.20252,-0.15616,0.03172,-0.03416,-0.10736,-0.10736,-0.11224,-0.10248,-0.08296
-0.10248,0.18788,-0.27328,-0.22204,-0.1708,0.03416,0.01464,-0.06344,-0.10736,-0.11712,-0.122,-0.0976
-0.10248,0.22204,-0.3416,-0.29036,-0.23912,0.06832,0.10248,0.03416,-0.10248,-0.15128,-0.15616,-0.1464
-0.10248,0.2196,-0.33672,-0.28548,-0.23424,0.06588,0.15128,0.16592,-0.03904,-0.11224,-0.1464,-0.14152
-0.08296,0.18788,-0.2928,-0.25132,-0.20984,0.06344,0.20008,0.32696,0.08784,-0.01952,-0.0976,-0.11224
-0.03416,0.10492,-0.17568,-0.1586,-0.14152,0.05368,0.26352,0.47336,0.244,0.11224,0.00976,-0.03416
0.02928,-0.04392,0.05856,0.04392,0.02928,0,0.27328,0.5612,0.44896,0.3172,0.20496,0.12688
0.00488,-0.1342,0.26352,0.26108,0.25864,-0.12688,0.04392,0.19032,0.45872,0.40992,0.366,0.30256
-0.03416,-0.0732,0.18056,0.19764,0.21472,-0.12444,-0.366,-0.57096,0.0244,0.1464,0.22936,0.26352
-0.10248,0.11956,-0.13664,-0.0854,-0.03416,-0.03416,-0.74664,-1.54696,-0.62952,-0.31232,-0.08784,0.05368
-0.20496,0.2928,-0.38064,-0.27816,-0.17568,-0.01464,-1.05896,-2.2936,-1.06872,-0.62952,-0.32208,-0.09272
-0.14152,0.35624,-0.57096,-0.5002,-0.42944,0.14396,-1.098,-1.9764,-1.17608,-0.76128,-0.45384,-0.20984
-0.07808,0.3294,-0.58072,-0.54168,-0.50264,0.21228,-0.89792,-1.46888,-0.98088,-0.66856,-0.42944,-0.22448
-0.03416,0.22936,-0.42456,-0.40748,-0.3904,0.17812,-0.66856,-1.0004,-0.66856,-0.45384,-0.28792,-0.1464
-0.00976,0.14396,-0.27816,-0.27328,-0.2684,0.12932,-0.44896,-0.63928,-0.4148,-0.26352,-0.1464,-0.05368
-0.0244,0.11956,-0.21472,-0.20252,-0.19032,0.08296,-0.26352,-0.39528,-0.28304,-0.19032,-0.10248,-0.01952
-0.04392,0.12444,-0.20496,-0.183,-0.16104,0.05856,-0.15616,-0.2196,-0.20008,-0.15616,-0.08784,-0.01464
-0.04392,0.1098,-0.17568,-0.15372,-0.13176,0.04392,-0.122,-0.12688,-0.12688,-0.10248,-0.05856,-0.01464
-0.04392,0.09516,-0.1464,-0.12444,-0.10248,0.02928,-0.06832,-0.06344,-0.0732,-0.06344,-0.03416,-0.01464
-0.03904,0.0976,-0.15616,-0.13664,-0.11712,0.03904,-0.01464,-0.01464,-0.0732,-0.06344,-0.03416,-0.01464
-0.03904,0.0976,-0.15616,-0.13664,-0.11712,0.03904,-0.01464,0,-0.0732,-0.06344,-0.03904,-0.01464
-0.02928,0.09272,-0.15616,-0.14152,-0.12688,0.0488,-0.01464,0,-0.05368,-0.06344,-0.04392,-0.0244
-0.01952,0.08784,-0.15616,-0.1464,-0.13664,0.05856,-0.00488,0.01464,-0.04392,-0.06344,-0.04392,-0.02928
-0.03416,0.10004,-0.16592,-0.14884,-0.13176,0.0488,0.00976,0.0244,-0.03904,-0.06344,-0.03904,-0.02928
-0.03416,0.10004,-0.16592,-0.14884,-0.13176,0.0488,0.01952,0.02928,-0.03416,-0.05856,-0.03904,-0.0244
-0.04392,0.10492,-0.16592,-0.14396,-0.122,0.03904,0.01464,0.03416,-0.02928,-0.05856,-0.03904,-0.0244
-0.05368,0.11224,-0.1708,-0.14396,-0.11712,0.03172,0.01464,0.03904,-0.0244,-0.05856,-0.03904,-0.0244
-0.0488,0.11224,-0.17568,-0.15128,-0.12688,0.03904,0.01952,0.0488,-0.0244,-0.05368,-0.03904,-0.0244
-0.0488,0.11224,-0.17568,-0.15128,-0.12688,0.03904,0.0244,0.05856,-0.01952,-0.05368,-0.04392,-0.0244
-0.05368,0.11712,-0.18056,-0.15372,-0.12688,0.0366,0.0244,0.06344,-0.01952,-0.04392,-0.03904,-0.0244
-0.05368,0.11956,-0.18544,-0.1586,-0.13176,0.03904,0.01952,0.0732,-0.01464,-0.03904,-0.03416,-0.01952
-0.05368,0.11956,-0.18544,-0.1586,-0.13176,0.03904,0.0244,0.08296,-0.00488,-0.03416,-0.03416,-0.01952
-0.05856,0.122,-0.18544,-0.15616,-0.12688,0.03416,0.0244,0.09272,0,-0.02928,-0.02928,-0.01952
-0.0488,0.11712,-0.18544,-0.16104,-0.13664,0.04392,0.0244,0.10248,0.00488,-0.03416,-0.02928,-0.01464
-0.0488,0.11468,-0.18056,-0.15616,-0.13176,0.04148,0.02928,0.10736,0.00976,-0.02928,-0.0244,-0.01464
-0.04392,0.1098,-0.17568,-0.15372,-0.13176,0.04392,0.0244,0.11224,0.01952,-0.0244,-0.0244,-0.01464
-0.03904,0.10248,-0.16592,-0.1464,-0.12688,0.04392,0.02928,0.122,0.02928,-0.01464,-0.01464,-0.00976
-0.03416,0.09516,-0.15616,-0.13908,-0.122,0.04392,0.03416,0.13176,0.03416,-0.00488,-0.00976,-0.00488
-0.03416,0.09028,-0.1464,-0.12932,-0.11224,0.03904,0.03416,0.14152,0.03904,0.00488,0,0
-0.03416,0.08784,-0.14152,-0.12444,-0.10736,0.0366,0.03416,0.15128,0.04392,0.00976,0.00488,0.00488
-0.0244,0.07808,-0.13176,-0.11956,-0.10736,0.04148,0.04392,0.16592,0.0488,0.01464,0.00976,0.00976
-0.02928,0.07808,-0.12688,-0.11224,-0.0976,0.03416,0.04392,0.17568,0.05368,0.01952,0.01464,0.01464
-0.0244,0.07076,-0.11712,-0.10492,-0.09272,0.03416,0.04392,0.18544,0.05368,0.02928,0.01952,0.01952
-0.01952,0.061,-0.10248,-0.09272,-0.08296,0.03172,0.04392,0.20008,0.06344,0.03904,0.02928,0.02928
-0.01464,0.05612,-0.0976,-0.09028,-0.08296,0.03416,0.04392,0.20984,0.07808,0.0488,0.03416,0.03904
-0.00488,0.04392,-0.08296,-0.08052,-0.07808,0.0366,0.03904,0.22448,0.08296,0.05856,0.03904,0.04392
0,0.0366,-0.0732,-0.0732,-0.0732,0.0366,0.03904,0.23424,0.08784,0.06832,0.04392,0.0488
0.00488,0.0244,-0.05368,-0.05612,-0.05856,0.03172,0.03904,0.23912,0.08784,0.06832,0.05368,0.05368
0.00976,0.00976,-0.02928,-0.03416,-0.03904,0.0244,0.03416,0.24888,0.08784,0.0732,0.05856,0.05368
0.01464,0.00488,-0.0244,-0.03172,-0.03904,0.02684,0.02928,0.25864,0.10248,0.07808,0.06344,0.05856
0.01952,-0.00488,-0.00976,-0.01952,-0.02928,0.0244,0.0244,0.2684,0.10248,0.08784,0.0732,0.06344
0.01952,-0.00976,0,-0.00976,-0.01952,0.01952,0.01952,0.27816,0.11224,0.09272,0.07808,0.06832
0.0244,-0.01464,0.00488,-0.00732,-0.01952,0.02196,0.01952,0.28304,0.11712,0.0976,0.08296,0.07808
0.0244,-0.02196,0.01952,0.00732,-0.00488,0.01464,0.01952,0.2928,0.122,0.0976,0.09272,0.08296
0.02928,-0.0244,0.01952,0.00488,-0.00976,0.01952,0.01464,0.2928,0.13176,0.10248,0.0976,0.08784
0.04392,-0.03172,0.01952,-0.00244,-0.0244,0.03416,0.00488,0.30256,0.13664,0.10736,0.10248,0.0976
0.05368,-0.04392,0.03416,0.00732,-0.01952,0.0366,-0.00488,0.30744,0.14152,0.11224,0.10736,0.10736
0.05856,-0.05124,0.04392,0.01464,-0.01464,0.0366,-0.00488,0.31232,0.1464,0.122,0.11712,0.11224
0.06832,-0.061,0.05368,0.01952,-0.01464,0.04148,-0.01464,0.31232,0.1464,0.13176,0.122,0.122
0.0732,-0.07076,0.06832,0.03172,-0.00488,0.03904,-0.01952,0.31232,0.1464,0.13176,0.12688,0.12688
0.08296,-0.08296,0.08296,0.04148,0,0.04148,-0.0244,0.30744,0.1464,0.13176,0.13176,0.13176
0.08784,-0.09028,0.09272,0.0488,0.00488,0.04148,-0.02928,0.29768,0.1464,0.13176,0.13664,0.13664
0.0976,-0.10004,0.10248,0.05368,0.00488,0.04636,-0.03416,0.2928,0.1464,0.13664,0.13664,0.1464
0.10248,-0.1098,0.11712,0.06588,0.01464,0.04392,-0.03904,0.28792,0.15128,0.1464,0.1464,0.15128
0.10736,-0.11468,0.122,0.06832,0.01464,0.04636,-0.04392,0.28304,0.15128,0.15128,0.15128,0.15616
0.11712,-0.122,0.12688,0.06832,0.00976,0.05368,-0.05856,0.2684,0.14152,0.1464,0.15128,0.16104
0.122,-0.12932,0.13664,0.07564,0.01464,0.05368,-0.06344,0.25864,0.13664,0.1464,0.15616,0.16104
0.122,-0.1342,0.1464,0.0854,0.0244,0.0488,-0.0732,0.24888,0.13664,0.14152,0.16104,0.16592
0.122,-0.13908,0.15616,0.09516,0.03416,0.04392,-0.08296,0.23424,0.13176,0.14152,0.16104,0.16592
0.12688,-0.1464,0.16592,0.10248,0.03904,0.04392,-0.08296,0.2196,0.12688,0.1464,0.16592,0.1708
0.12688,-0.1464,0.16592,0.10248,0.03904,0.04392,-0.0976,0.20984,0.122,0.15128,0.16592,0.1708
0.122,-0.13664,0.15128,0.09028,0.02928,0.04636,-0.10736,0.19032,0.10736,0.15128,0.16592,0.17568
0.11712,-0.12688,0.13664,0.07808,0.01952,0.0488,-0.11712,0.1708,0.10736,0.14152,0.16592,0.18056
0.11224,-0.11956,0.12688,0.07076,0.01464,0.0488,-0.122,0.1464,0.0976,0.14152,0.15616,0.17568
0.10248,-0.10736,0.11224,0.061,0.00976,0.04636,-0.11712,0.12688,0.07808,0.13176,0.15128,0.1708
0.08296,-0.08296,0.08296,0.04148,0,0.04148,-0.122,0.0976,0.06344,0.10736,0.13176,0.1464
0.06832,-0.06588,0.06344,0.02928,-0.00488,0.0366,-0.122,0.0732,0.03904,0.07808,0.11224,0.122
0.0488,-0.04392,0.03904,0.01464,-0.00976,0.02928,-0.11712,0.0488,0.0244,0.05368,0.08296,0.10736
0.02928,-0.01708,0.00488,-0.00976,-0.0244,0.02684,-0.11712,0.0244,0.00976,0.03904,0.06344,0.08296
0.01464,0.00732,-0.02928,-0.0366,-0.04392,0.02928,-0.10248,0.01464,-0.00488,0.01464,0.03904,0.06832
0,0.02928,-0.05856,-0.05856,-0.05856,0.02928,-0.09272,0,-0.01952,-0.00488,0.01464,0.05368
-0.01464,0.0488,-0.08296,-0.07564,-0.06832,0.02684,-0.08296,-0.01464,-0.03416,-0.0244,-0.00488,0.02928
-0.02928,0.06344,-0.0976,-0.08296,-0.06832,0.01952,-0.0732,-0.02928,-0.04392,-0.03416,-0.01952,0.01952
-0.03416,0.08052,-0.12688,-0.1098,-0.09272,0.02928,-0.06832,-0.03904,-0.04392,-0.0488,-0.02928,0.00488
-0.04392,0.09516,-0.1464,-0.12444,-0.10248,0.02928,-0.06344,-0.0488,-0.05368,-0.05856,-0.04392,-0.00976
-0.05368,0.10736,-0.16104,-0.1342,-0.10736,0.02684,-0.05368,-0.06344,-0.06344,-0.05856,-0.0488,-0.01464
-0.05368,0.11224,-0.1708,-0.14396,-0.11712,0.03172,-0.0488,-0.06832,-0.0732,-0.06832,-0.05856,-0.01952
-0.0488,0.11224,-0.17568,-0.15128,-0.12688,0.03904,-0.0488,-0.07808,-0.0732,-0.06832,-0.05856,-0.02928
-0.04392,0.1098,-0.17568,-0.15372,-0.13176,0.04392,-0.04392,-0.08296,-0.08296,-0.0732,-0.06344,-0.03416
-0.0488,0.11224,-0.17568,-0.15128,-0.12688,0.03904,-0.04392,-0.07808,-0.08296,-0.08296,-0.06832,-0.03904
-0.0488,0.11468,-0.18056,-0.15616,-0.13176,0.04148,-0.04392,-0.07808,-0.08784,-0.08296,-0.06344,-0.03904
-0.04392,0.11224,-0.18056,-0.1586,-0.13664,0.04636,-0.03904,-0.07808,-0.08296,-0.07808,-0.06344,-0.03416
-0.03904,0.10736,-0.17568,-0.15616,-0.13664,0.0488,-0.03904,-0.08296,-0.07808,-0.0732,-0.06344,-0.02928
-0.03904,0.10492,-0.1708,-0.15128,-0.13176,0.04636,-0.03416,-0.08296,-0.07808,-0.0732,-0.05856,-0.02928
-0.03904,0.10248,-0.16592,-0.1464,-0.12688,0.04392,-0.03416,-0.08296,-0.07808,-0.0732,-0.05856,-0.03416
-0.03904,0.10248,-0.16592,-0.1464,-0.12688,0.04392,-0.03904,-0.08296,-0.08296,-0.0732,-0.05856,-0.03416
-0.03904,0.10248,-0.16592,-0.1464,-0.12688,0.04392,-0.04392,-0.08296,-0.08296,-0.06832,-0.05856,-0.03416
-0.03904,0.10248,-0.16592,-0.1464,-0.12688,0.04392,-0.04392,-0.08296,-0.08296,-0.06832,-0.06344,-0.03416
-0.04392,0.10492,-0.16592,-0.14396,-0.122,0.03904,-0.04392,-0.08784,-0.08296,-0.06832,-0.06344,-0.02928
-0.03904,0.10492,-0.1708,-0.15128,-0.13176,0.04636,-0.03904,-0.08784,-0.08784,-0.0732,-0.05856,-0.02928
-0.03416,0.10248,-0.1708,-0.15372,-0.13664,0.05124,-0.03904,-0.09272,-0.09272,-0.0732,-0.05856,-0.02928
-0.04392,0.10736,-0.1708,-0.14884,-0.12688,0.04148,-0.03904,-0.09272,-0.09272,-0.07808,-0.05856,-0.02928
-0.04392,0.10492,-0.16592,-0.14396,-0.122,0.03904,-0.03904,-0.09272,-0.09272,-0.07808,-0.05856,-0.02928
-0.04392,0.10736,-0.1708,-0.14884,-0.12688,0.04148,-0.04392,-0.08784,-0.0976,-0.07808,-0.05368,-0.02928
-0.04392,0.1098,-0.17568,-0.15372,-0.13176,0.04392,-0.04392,-0.08784,-0.0976,-0.07808,-0.05368,-0.02928
-0.0488,0.1098,-0.1708,-0.1464,-0.122,0.0366,-0.03904,-0.08784,-0.0976,-0.07808,-0.05368,-0.0244
-0.05368,0.11224,-0.1708,-0.14396,-0.11712,0.03172,-0.03904,-0.09272,-0.0976,-0.07808,-0.05368,-0.0244
-0.0488,0.1098,-0.1708,-0.1464,-0.122,0.0366,-0.03904,-0.0976,-0.0976,-0.07808,-0.05856,-0.0244
-0.04392,0.10736,-0.1708,-0.14884,-0.12688,0.04148,-0.03904,-0.10736,-0.10248,-0.07808,-0.06344,-0.0244
-0.04392,0.10736,-0.1708,-0.14884,-0.12688,0.04148,-0.04392,-0.10736,-0.10248,-0.07808,-0.06344,-0.0244
-0.04392,0.10736,-0.1708,-0.14884,-0.12688,0.04148,-0.04392,-0.11224,-0.10248,-0.07808,-0.06344,-0.0244
-0.04392,0.10736,-0.1708,-0.14884,-0.12688,0.04148,-0.04392,-0.11224,-0.10248,-0.07808,-0.05856,-0.0244
-0.04392,0.10736,-0.1708,-0.14884,-0.12688,0.04148,-0.04392,-0.11712,-0.10736,-0.07808,-0.05368,-0.0244
-0.04392,0.10492,-0.16592,-0.14396,-0.122,0.03904,-0.0488,-0.122,-0.10736,-0.07808,-0.05856,-0.0244
-0.04392,0.10248,-0.16104,-0.13908,-0.11712,0.0366,-0.0488,-0.122,-0.10736,-0.07808,-0.05856,-0.0244
-0.03416,0.0976,-0.16104,-0.14396,-0.12688,0.04636,-0.0488,-0.122,-0.11224,-0.07808,-0.05856,-0.0244
-0.02928,0.10004,-0.1708,-0.15616,-0.14152,0.05612,-0.0488,-0.11712,-0.11224,-0.08296,-0.05856,-0.0244
-0.03416,0.10736,-0.18056,-0.16348,-0.1464,0.05612,-0.0488,-0.11712,-0.11224,-0.08784,-0.06344,-0.02928
-0.03416,0.1098,-0.18544,-0.16836,-0.15128,0.05856,-0.0488,-0.122,-0.11224,-0.09272,-0.06832,-0.02928
-0.03904,0.11468,-0.19032,-0.1708,-0.15128,0.05612,-0.04392,-0.122,-0.11712,-0.09272,-0.06832,-0.02928
-0.04392,0.12444,-0.20496,-0.183,-0.16104,0.05856,-0.03904,-0.122,-0.11712,-0.09272,-0.06832,-0.02928
-0.03904,0.11956,-0.20008,-0.18056,-0.16104,0.061,-0.03904,-0.122,-0.11712,-0.09272,-0.06832,-0.03416
-0.03904,0.11712,-0.1952,-0.17568,-0.15616,0.05856,-0.03904,-0.12688,-0.11712,-0.0976,-0.06832,-0.03904
-0.04392,0.11956,-0.1952,-0.17324,-0.15128,0.05368,-0.03904,-0.12688,-0.11712,-0.0976,-0.0732,-0.03904
-0.0488,0.122,-0.1952,-0.1708,-0.1464,0.0488,-0.03904,-0.12688,-0.11712,-0.0976,-0.07808,-0.03904
-0.0488,0.122,-0.1952,-0.1708,-0.1464,0.0488,-0.03904,-0.12688,-0.11712,-0.0976,-0.07808,-0.04392
-0.0488,0.122,-0.1952,-0.1708,-0.1464,0.0488,-0.03904,-0.12688,-0.11712,-0.0976,-0.07808,-0.04392
-0.0488,0.122,-0.1952,-0.1708,-0.1464,0.0488,-0.03904,-0.12688,-0.11712,-0.0976,-0.07808,-0.0488
-0.04392,0.11956,-0.1952,-0.17324,-0.15128,0.05368,-0.03904,-0.12688,-0.11712,-0.0976,-0.07808,-0.0488
-0.04392,0.11712,-0.19032,-0.16836,-0.1464,0.05124,-0.03416,-0.13176,-0.11712,-0.10248,-0.0732,-0.04392
-0.04392,0.11712,-0.19032,-0.16836,-0.1464,0.05124,-0.03416,-0.13176,-0.11712,-0.10736,-0.06832,-0.03904
-0.03904,0.11468,-0.19032,-0.1708,-0.15128,0.05612,-0.03416,-0.12688,-0.11712,-0.10736,-0.0732,-0.03904
-0.03416,0.11224,-0.19032,-0.17324,-0.15616,0.061,-0.03416,-0.122,-0.11712,-0.10736,-0.0732,-0.03416
-0.03416,0.11224,-0.19032,-0.17324,-0.15616,0.061,-0.02928,-0.122,-0.11712,-0.10248,-0.0732,-0.03416
-0.03416,0.11224,-0.19032,-0.17324,-0.15616,0.061,-0.0244,-0.122,-0.11712,-0.0976,-0.06832,-0.03416
-0.02928,0.1098,-0.19032,-0.17568,-0.16104,0.06588,-0.0244,-0.122,-0.11712,-0.0976,-0.06832,-0.02928
-0.02928,0.10248,-0.17568,-0.16104,-0.1464,0.05856,-0.01464,-0.11712,-0.10248,-0.09272,-0.05856,-0.01952
-0.0244,0.08052,-0.13664,-0.12444,-0.11224,0.04392,-0.00488,-0.10736,-0.09272,-0.07808,-0.0488,-0.00976
-0.01464,0.05368,-0.09272,-0.0854,-0.07808,0.03172,0.00488,-0.0976,-0.07808,-0.06832,-0.03416,0.00488
-0.00488,0.03172,-0.05856,-0.05612,-0.05368,0.0244,0.01464,-0.08784,-0.05368,-0.03904,-0.00488,0.0244
0,0.01952,-0.03904,-0.03904,-0.03904,0.01952,0.0244,-0.06832,-0.03904,-0.0244,0.00976,0.03416
0,0.01952,-0.03904,-0.03904,-0.03904,0.01952,0.03416,-0.05856,-0.02928,-0.01464,0.00976,0.03416
0,0.01708,-0.03416,-0.03416,-0.03416,0.01708,0.03416,-0.04392,-0.0244,-0.00976,0.01464,0.03416
0.01464,0.00976,-0.03416,-0.04148,-0.0488,0.03172,0.02928,-0.03416,-0.01952,-0.00976,0.01952,0.03416
0.0244,0.00488,-0.03416,-0.04636,-0.05856,0.04148,0.0244,-0.0244,-0.01952,-0.00976,0.0244,0.03904
0.04392,-0.0122,-0.01952,-0.04148,-0.06344,0.05368,-0.00976,-0.01464,-0.00976,-0.00488,0.02928,0.05368
0.06832,-0.02928,-0.00976,-0.04392,-0.07808,0.0732,-0.01952,-0.01464,-0.00488,-0.00488,0.02928,0.05856
0.06832,-0.02196,-0.0244,-0.05856,-0.09272,0.08052,-0.0244,-0.02928,-0.01952,-0.00976,0.02928,0.05368
0.05856,-0.0122,-0.03416,-0.06344,-0.09272,0.07564,-0.03416,-0.05368,-0.04392,-0.00976,0.01952,0.04392
0.0488,0.01708,-0.08296,-0.10736,-0.13176,0.09028,-0.04392,-0.0732,-0.05856,-0.03416,-0.00488,0.02928
0.03904,0.03416,-0.10736,-0.12688,-0.1464,0.09272,-0.0488,-0.0732,-0.06832,-0.04392,-0.00976,0.01952
0.02928,0.03172,-0.09272,-0.10736,-0.122,0.07564,-0.03416,-0.06832,-0.06832,-0.04392,-0.01464,0.01464
0.01952,0.04148,-0.10248,-0.11224,-0.122,0.07076,-0.02928,-0.06832,-0.0732,-0.05368,-0.0244,0.00488
0.00488,0.05856,-0.122,-0.12444,-0.12688,0.06588,-0.0244,-0.0732,-0.07808,-0.05856,-0.03416,-0.00488
-0.00488,0.06832,-0.13176,-0.12932,-0.12688,0.061,-0.01952,-0.07808,-0.08296,-0.06832,-0.04392,-0.01464
-0.01952,0.0854,-0.15128,-0.14152,-0.13176,0.05612,-0.01952,-0.0976,-0.10248,-0.08784,-0.05856,-0.03416
-0.01464,0.0854,-0.15616,-0.14884,-0.14152,0.06344,-0.01952,-0.10736,-0.10248,-0.0976,-0.0732,-0.03416
-0.01464,0.09028,-0.16592,-0.1586,-0.15128,0.06832,-0.01952,-0.11224,-0.11224,-0.10736,-0.08296,-0.0488
-0.01952,0.0976,-0.17568,-0.16592,-0.15616,0.06832,-0.01952,-0.122,-0.122,-0.11712,-0.0976,-0.05856
-0.01952,0.10004,-0.18056,-0.1708,-0.16104,0.07076,-0.0244,-0.122,-0.12688,-0.11712,-0.0976,-0.06344
-0.01952,0.10004,-0.18056,-0.1708,-0.16104,0.07076,-0.0244,-0.122,-0.12688,-0.11712,-0.0976,-0.06832
-0.0244,0.10248,-0.18056,-0.16836,-0.15616,0.06588,-0.0244,-0.122,-0.122,-0.122,-0.10248,-0.0732
-0.0244,0.10248,-0.18056,-0.16836,-0.15616,0.06588,-0.0244,-0.122,-0.11712,-0.122,-0.10248,-0.0732
-0.03416,0.1098,-0.18544,-0.16836,-0.15128,0.05856,-0.01952,-0.11712,-0.11712,-0.122,-0.10248,-0.0732
-0.0244,0.10492,-0.18544,-0.17324,-0.16104,0.06832,-0.01952,-0.11712,-0.11712,-0.122,-0.10248,-0.0732
-0.0244,0.10492,-0.18544,-0.17324,-0.16104,0.06832,-0.01464,-0.10736,-0.11224,-0.11712,-0.0976,-0.07808
-0.03416,0.11956,-0.20496,-0.18788,-0.1708,0.06832,0.03416,-0.06832,-0.11224,-0.122,-0.11712,-0.08784
-0.03904,0.15616,-0.27328,-0.25376,-0.23424,0.0976,0.122,0.0244,-0.11224,-0.16104,-0.15616,-0.13664
-0.04392,0.1586,-0.27328,-0.25132,-0.22936,0.09272,0.1708,0.15616,-0.05856,-0.14152,-0.15616,-0.1464
-0.0244,0.12688,-0.22936,-0.21716,-0.20496,0.09028,0.2196,0.30744,0.05856,-0.06832,-0.11712,-0.13176
0.01464,0.05612,-0.12688,-0.1342,-0.14152,0.07808,0.27328,0.44896,0.22936,0.07808,-0.00976,-0.06344
0.06832,-0.08784,0.10736,0.0732,0.03904,0.01464,0.3416,0.61976,0.50752,0.3416,0.20008,0.08784
0.06832,-0.22936,0.3904,0.35624,0.32208,-0.12688,0.16592,0.3904,0.63928,0.53192,0.4148,0.30256
0.05368,-0.20984,0.366,0.33916,0.31232,-0.12932,-0.23912,-0.2684,0.2684,0.30744,0.3172,0.30256
-0.01464,-0.0122,0.03904,0.04636,0.05368,-0.03416,-0.60024,-1.25904,-0.44408,-0.20008,-0.01464,0.09272
-0.14152,0.20252,-0.26352,-0.19276,-0.122,-0.00976,-0.99064,-2.20576,-1.02968,-0.60512,-0.29768,-0.0732
-0.11224,0.30744,-0.50264,-0.44652,-0.3904,0.13908,-1.08824,-2.03496,-1.22488,-0.79544,-0.46848,-0.2196
-0.04392,0.29524,-0.54656,-0.5246,-0.50264,0.22936,-0.89304,-1.51768,-1.0492,-0.72224,-0.4636,-0.25376
0.00488,0.20984,-0.42456,-0.427,-0.42944,0.21716,-0.68808,-1.05408,-0.7564,-0.52216,-0.3416,-0.18544
0.0244,0.10736,-0.23912,-0.25132,-0.26352,0.14396,-0.45872,-0.69296,-0.47336,-0.30256,-0.18056,-0.0732
0.01464,0.06588,-0.1464,-0.15372,-0.16104,0.08784,-0.26352,-0.43432,-0.31232,-0.20008,-0.11224,-0.0244
-0.00488,0.07564,-0.1464,-0.14396,-0.14152,0.06832,-0.15616,-0.244,-0.22448,-0.16592,-0.0976,-0.0244
-0.00488,0.06832,-0.13176,-0.12932,-0.12688,0.061,-0.11224,-0.12688,-0.13664,-0.10736,-0.06832,-0.0244
-0.00488,0.05856,-0.11224,-0.1098,-0.10736,0.05124,-0.0488,-0.05368,-0.06832,-0.05856,-0.04392,-0.01952
-0.00488,0.061,-0.11712,-0.11468,-0.11224,0.05368,0.00488,-0.00488,-0.06344,-0.05368,-0.04392,-0.01464
-0.00976,0.061,-0.11224,-0.10736,-0.10248,0.04636,0.00488,0.01464,-0.06344,-0.0488,-0.04392,-0.01464
-0.00976,0.05856,-0.10736,-0.10248,-0.0976,0.04392,0.00488,0.01952,-0.0488,-0.04392,-0.04392,-0.0244
-0.00488,0.05612,-0.10736,-0.10492,-0.10248,0.0488,0.01952,0.03416,-0.04392,-0.04392,-0.04392,-0.02928
-0.01464,0.06588,-0.11712,-0.1098,-0.10248,0.04392,0.03904,0.0488,-0.03904,-0.04392,-0.03904,-0.02928
-0.01464,0.06832,-0.122,-0.11468,-0.10736,0.04636,0.0488,0.05368,-0.03416,-0.03904,-0.03904,-0.02928
-0.01464,0.07076,-0.12688,-0.11956,-0.11224,0.0488,0.0488,0.05856,-0.02928,-0.03904,-0.03904,-0.03416
-0.01464,0.0732,-0.13176,-0.12444,-0.11712,0.05124,0.05368,0.06832,-0.0244,-0.03904,-0.03904,-0.03416
-0.00488,0.06832,-0.13176,-0.12932,-0.12688,0.061,0.05856,0.07808,-0.01952,-0.03416,-0.03416,-0.03416
0.00488,0.05856,-0.122,-0.12444,-0.12688,0.06588,0.06344,0.08784,-0.00976,-0.02928,-0.03416,-0.03416
0.00976,0.05124,-0.11224,-0.11712,-0.122,0.06588,0.06832,0.09272,-0.00976,-0.01464,-0.02928,-0.03416
0.01464,0.03904,-0.09272,-0.10004,-0.10736,0.061,0.0732,0.10736,-0.00488,-0.00976,-0.0244,-0.02928
0.01952,0.02928,-0.07808,-0.08784,-0.0976,0.05856,0.08296,0.122,0.00488,-0.00488,-0.0244,-0.02928
0.0244,0.02684,-0.07808,-0.09028,-0.10248,0.06344,0.08784,0.13176,0.01464,0,-0.01464,-0.0244
0.03904,0.01708,-0.0732,-0.09272,-0.11224,0.07564,0.09272,0.1464,0.0244,0,-0.00976,-0.01464
0.04392,0.00976,-0.06344,-0.0854,-0.10736,0.07564,0.0976,0.15616,0.02928,0.00976,-0.00488,-0.01464
0.05368,0.00244,-0.05856,-0.0854,-0.11224,0.08296,0.0976,0.16592,0.03904,0.01464,-0.00488,-0.00976
0.05856,-0.00732,-0.04392,-0.0732,-0.10248,0.08052,0.10736,0.18056,0.0488,0.0244,0.00488,0
0.06344,-0.01464,-0.03416,-0.06588,-0.0976,0.08052,0.11224,0.19032,0.05368,0.02928,0.00976,0.00488
0.06344,-0.01708,-0.02928,-0.061,-0.09272,0.07808,0.11224,0.20008,0.05856,0.03416,0.01464,0.00976
0.06344,-0.01952,-0.0244,-0.05612,-0.08784,0.07564,0.11224,0.20984,0.06344,0.03904,0.01464,0.01464
0.06832,-0.0244,-0.01952,-0.05368,-0.08784,0.07808,0.122,0.2196,0.06832,0.04392,0.01952,0.01952
0.06344,-0.0244,-0.01464,-0.04636,-0.07808,0.07076,0.122,0.22448,0.07808,0.0488,0.0244,0.0244
0.06832,-0.03416,0,-0.03416,-0.06832,0.06832,0.12688,0.23424,0.08296,0.05856,0.02928,0.02928
0.06832,-0.04148,0.01464,-0.01952,-0.05368,0.061,0.13176,0.24888,0.09272,0.06832,0.03904,0.03416
0.0732,-0.04392,0.01464,-0.02196,-0.05856,0.06588,0.13176,0.25864,0.10736,0.07808,0.0488,0.03904
0.07808,-0.05124,0.0244,-0.01464,-0.05368,0.06588,0.13176,0.27328,0.11224,0.08784,0.05856,0.04392
0.07808,-0.05368,0.02928,-0.00976,-0.0488,0.06344,0.13664,0.28304,0.11712,0.0976,0.06344,0.0488
0.07808,-0.05368,0.02928,-0.00976,-0.0488,0.06344,0.13664,0.2928,0.122,0.0976,0.0732,0.05856
0.07808,-0.05856,0.03904,0,-0.03904,0.05856,0.13176,0.30744,0.12688,0.10248,0.07808,0.06344
0.07808,-0.061,0.04392,0.00488,-0.03416,0.05612,0.13176,0.3172,0.14152,0.10736,0.08296,0.06832
0.08296,-0.07076,0.05856,0.01708,-0.0244,0.05368,0.12688,0.32696,0.14152,0.11712,0.08784,0.0732
0.08784,-0.07808,0.06832,0.0244,-0.01952,0.05368,0.11712,0.33672,0.15128,0.122,0.08784,0.07808
0.09272,-0.08296,0.0732,0.02684,-0.01952,0.05612,0.11712,0.3416,0.15616,0.12688,0.09272,0.08296
0.09272,-0.09028,0.08784,0.04148,-0.00488,0.0488,0.11712,0.35136,0.16104,0.13176,0.10248,0.08296
0.0976,-0.0976,0.0976,0.0488,0,0.0488,0.11712,0.35136,0.1708,0.1464,0.11224,0.08784
0.10736,-0.1098,0.11224,0.05856,0.00488,0.05124,0.11712,0.36112,0.17568,0.15616,0.122,0.09272
0.11712,-0.12444,0.13176,0.0732,0.01464,0.05124,0.11224,0.37088,0.18056,0.16104,0.12688,0.0976
0.12688,-0.1342,0.14152,0.07808,0.01464,0.05612,0.11224,0.38064,0.18544,0.16592,0.13664,0.10248
0.13664,-0.14396,0.15128,0.08296,0.01464,0.061,0.10248,0.38064,0.18544,0.1708,0.14152,0.11224
0.14152,-0.15128,0.16104,0.09028,0.01952,0.061,0.0976,0.38064,0.18544,0.1708,0.1464,0.11712
0.1464,-0.16104,0.17568,0.10248,0.02928,0.05856,0.08784,0.37576,0.18544,0.1708,0.1464,0.122
0.1464,-0.16836,0.19032,0.11712,0.04392,0.05124,0.07808,0.366,0.18544,0.1708,0.1464,0.12688
0.15128,-0.17568,0.20008,0.12444,0.0488,0.05124,0.0732,0.36112,0.18544,0.17568,0.1464,0.13664
0.15128,-0.183,0.21472,0.13908,0.06344,0.04392,0.06832,0.35624,0.18544,0.18056,0.15128,0.13664
0.15616,-0.18544,0.21472,0.13664,0.05856,0.0488,0.06344,0.35136,0.18056,0.18056,0.15616,0.14152
0.16104,-0.18788,0.21472,0.1342,0.05368,0.05368,0.0488,0.33672,0.1708,0.17568,0.16104,0.15128
0.16104,-0.19276,0.22448,0.14396,0.06344,0.0488,0.04392,0.32696,0.16592,0.17568,0.16592,0.15128
0.16104,-0.19276,0.22448,0.14396,0.06344,0.0488,0.03416,0.31232,0.16104,0.1708,0.1708,0.16104
0.15616,-0.19032,0.22448,0.1464,0.06832,0.04392,0.0244,0.2928,0.15128,0.1708,0.1708,0.16592
0.15616,-0.1952,0.23424,0.15616,0.07808,0.03904,0.01464,0.27328,0.1464,0.1708,0.17568,0.1708
0.15616,-0.19764,0.23912,0.16104,0.08296,0.0366,-0.00976,0.26352,0.14152,0.1708,0.17568,0.1708
0.15616,-0.20008,0.244,0.16592,0.08784,0.03416,-0.01952,0.24888,0.12688,0.1708,0.17568,0.1708
0.15616,-0.20008,0.244,0.16592,0.08784,0.03416,-0.0244,0.22936,0.13176,0.16592,0.18056,0.17568
0.15128,-0.19276,0.23424,0.1586,0.08296,0.03416,-0.02928,0.20984,0.12688,0.1708,0.17568,0.17568
0.1464,-0.183,0.2196,0.1464,0.0732,0.0366,-0.02928,0.1952,0.11224,0.1708,0.18056,0.17568
0.13664,-0.16348,0.19032,0.122,0.05368,0.04148,-0.03416,0.1708,0.10736,0.16104,0.1708,0.16104
0.12688,-0.15372,0.18056,0.11712,0.05368,0.0366,-0.03904,0.15128,0.08784,0.14152,0.15128,0.14152
0.11224,-0.13908,0.16592,0.1098,0.05368,0.02928,-0.03904,0.12688,0.0732,0.122,0.122,0.12688
0.10736,-0.12444,0.14152,0.08784,0.03416,0.0366,-0.03904,0.10248,0.05856,0.10736,0.10248,0.10248
0.10248,-0.1098,0.11712,0.06588,0.01464,0.04392,-0.02928,0.08784,0.04392,0.08296,0.08296,0.08784
0.08784,-0.08784,0.08784,0.04392,0,0.04392,-0.0244,0.06832,0.02928,0.06344,0.06344,0.07808
0.0732,-0.06832,0.06344,0.02684,-0.00976,0.04148,-0.01952,0.0488,0.00976,0.04392,0.04392,0.05856
0.05856,-0.05612,0.05368,0.0244,-0.00488,0.03172,-0.01464,0.02928,-0.00976,0.03416,0.02928,0.0488
0.05368,-0.04148,0.02928,0.00244,-0.0244,0.03904,-0.00976,0.01952,-0.01464,0.01952,0.01952,0.03416
0.04392,-0.02928,0.01464,-0.00732,-0.02928,0.0366,-0.00488,0.00488,-0.0244,0.00488,0.00488,0.01464
0.03416,-0.02196,0.00976,-0.00732,-0.0244,0.02928,-0.00488,-0.01464,-0.03416,0,0,0.00488
0.03904,-0.02196,0.00488,-0.01464,-0.03416,0.0366,-0.00976,-0.0244,-0.04392,-0.00976,-0.00976,0
0.03904,-0.01952,0,-0.01952,-0.03904,0.03904,-0.00976,-0.03904,-0.04392,-0.00976,-0.00976,-0.00488
0.03416,-0.01708,0,-0.01708,-0.03416,0.03416,-0.00488,-0.04392,-0.05368,-0.01464,-0.01464,-0.00488
0.02928,-0.01464,0,-0.01464,-0.02928,0.02928,-0.00488,-0.04392,-0.05368,-0.0244,-0.0244,-0.00976
0.0244,-0.00976,-0.00488,-0.01708,-0.02928,0.02684,-0.00976,-0.0488,-0.05856,-0.0244,-0.0244,-0.01464
0.01952,-0.00488,-0.00976,-0.01952,-0.02928,0.0244,-0.00976,-0.0488,-0.05856,-0.0244,-0.0244,-0.01952
0.01952,-0.00488,-0.00976,-0.01952,-0.02928,0.0244,-0.01464,-0.05368,-0.05856,-0.0244,-0.0244,-0.01952
0.01952,-0.00488,-0.00976,-0.01952,-0.02928,0.0244,-0.01464,-0.05368,-0.05856,-0.0244,-0.0244,-0.01952
0.01952,-0.00488,-0.00976,-0.01952,-0.02928,0.0244,-0.01464,-0.05368,-0.06344,-0.0244,-0.02928,-0.0244
0.01952,-0.00488,-0.00976,-0.01952,-0.02928,0.0244,-0.01464,-0.05368,-0.06832,-0.0244,-0.02928,-0.0244
0.01952,-0.00488,-0.00976,-0.01952,-0.02928,0.0244,-0.01464,-0.05368,-0.06344,-0.01952,-0.03416,-0.0244
0.01952,-0.00488,-0.00976,-0.01952,-0.02928,0.0244,-0.01464,-0.05368,-0.06344,-0.01952,-0.03904,-0.0244
0.01464,0,-0.01464,-0.02196,-0.02928,0.02196,-0.00976,-0.05368,-0.05856,-0.01464,-0.03416,-0.01952
0.01464,0.00488,-0.0244,-0.03172,-0.03904,0.02684,-0.00488,-0.0488,-0.05368,-0.01464,-0.02928,-0.01952
0.01464,0.00488,-0.0244,-0.03172,-0.03904,0.02684,-0.00976,-0.05368,-0.05368,-0.01464,-0.02928,-0.01952
0.00488,0.00976,-0.0244,-0.02684,-0.02928,0.01708,-0.00976,-0.05368,-0.05368,-0.01464,-0.02928,-0.01952
0.00488,0.00732,-0.01952,-0.02196,-0.0244,0.01464,-0.00976,-0.05368,-0.05368,-0.01464,-0.03416,-0.01952
0.00488,0.00732,-0.01952,-0.02196,-0.0244,0.01464,-0.01464,-0.05368,-0.05856,-0.01952,-0.03416,-0.01952
0,0.00976,-0.01952,-0.01952,-0.01952,0.00976,-0.01464,-0.05856,-0.05856,-0.01952,-0.03416,-0.0244
-0.00488,0.00976,-0.01464,-0.0122,-0.00976,0.00244,-0.01464,-0.05856,-0.05856,-0.01952,-0.03416,-0.0244
-0.00976,0.0122,-0.01464,-0.00976,-0.00488,-0.00244,-0.01952,-0.05856,-0.05856,-0.01952,-0.03416,-0.0244
-0.00976,0.0122,-0.01464,-0.00976,-0.00488,-0.00244,-0.01952,-0.05368,-0.05856,-0.01952,-0.03416,-0.0244
-0.00488,0.00976,-0.01464,-0.0122,-0.00976,0.00244,-0.01464,-0.05856,-0.06344,-0.01952,-0.03416,-0.0244
-0.00488,0.00976,-0.01464,-0.0122,-0.00976,0.00244,-0.01464,-0.05856,-0.06344,-0.01952,-0.03416,-0.0244
-0.00488,0.00976,-0.01464,-0.0122,-0.00976,0.00244,-0.00976,-0.06344,-0.06344,-0.01952,-0.03416,-0.02928
-0.00976,0.0122,-0.01464,-0.00976,-0.00488,-0.00244,-0.00488,-0.06344,-0.06344,-0.01952,-0.03416,-0.03416
-0.01464,0.01464,-0.01464,-0.00732,0,-0.00732,0,-0.06832,-0.06344,-0.01952,-0.03416,-0.03416
-0.01464,0.01464,-0.01464,-0.00732,0,-0.00732,0,-0.0732,-0.05856,-0.01952,-0.03904,-0.03416
-0.01464,0.01464,-0.01464,-0.00732,0,-0.00732,0,-0.06832,-0.05856,-0.01952,-0.03416,-0.03416
-0.00976,0.0122,-0.01464,-0.00976,-0.00488,-0.00244,0,-0.06832,-0.06344,-0.01952,-0.02928,-0.03416
-0.00976,0.01464,-0.01952,-0.01464,-0.00976,0,0,-0.06832,-0.06344,-0.0244,-0.02928,-0.03416
-0.01464,0.01708,-0.01952,-0.0122,-0.00488,-0.00488,0,-0.0732,-0.06344,-0.0244,-0.02928,-0.03904
-0.00976,0.01464,-0.01952,-0.01464,-0.00976,0,0,-0.0732,-0.05856,-0.01952,-0.02928,-0.03904
-0.00976,0.01464,-0.01952,-0.01464,-0.00976,0,0,-0.07808,-0.05856,-0.01952,-0.02928,-0.03904
-0.00976,0.01464,-0.01952,-0.01464,-0.00976,0,0,-0.07808,-0.05856,-0.01952,-0.02928,-0.03904
-0.00976,0.01464,-0.01952,-0.01464,-0.00976,0,0,-0.07808,-0.05856,-0.01952,-0.02928,-0.03904
-0.00976,0.01464,-0.01952,-0.01464,-0.00976,0,0,-0.07808,-0.05856,-0.01952,-0.03416,-0.03416
-0.00976,0.01464,-0.01952,-0.01464,-0.00976,0,0,-0.07808,-0.05856,-0.01952,-0.03416,-0.02928
-0.00976,0.01708,-0.0244,-0.01952,-0.01464,0.00244,0,-0.07808,-0.05856,-0.01952,-0.03904,-0.02928
-0.00488,0.01708,-0.02928,-0.02684,-0.0244,0.00976,0,-0.07808,-0.05856,-0.01952,-0.03904,-0.02928
-0.00488,0.01464,-0.0244,-0.02196,-0.01952,0.00732,0.00488,-0.08296,-0.05368,-0.01952,-0.03904,-0.02928
-0.00488,0.01464,-0.0244,-0.02196,-0.01952,0.00732,0.00488,-0.08296,-0.0488,-0.01952,-0.03904,-0.02928
-0.00488,0.01464,-0.0244,-0.02196,-0.01952,0.00732,0.00488,-0.08296,-0.0488,-0.01952,-0.04392,-0.03416
-0.00488,0.01464,-0.0244,-0.02196,-0.01952,0.00732,0.00488,-0.08296,-0.0488,-0.01952,-0.04392,-0.03416
-0.00976,0.01708,-0.0244,-0.01952,-0.01464,0.00244,0.00488,-0.08296,-0.0488,-0.01952,-0.04392,-0.03416
-0.01464,0.01952,-0.0244,-0.01708,-0.00976,-0.00244,0.00488,-0.08296,-0.0488,-0.01952,-0.03904,-0.03416
-0.00976,0.01708,-0.0244,-0.01952,-0.01464,0.00244,0,-0.07808,-0.0488,-0.01952,-0.03904,-0.03416
-0.00976,0.00976,-0.00976,-0.00488,0,-0.00488,0.00488,-0.06832,-0.03416,-0.01464,-0.02928,-0.02928
-0.01464,-0.00244,0.01952,0.02684,0.03416,-0.0244,0.01464,-0.05368,-0.01952,0,-0.01464,-0.01952
-0.01464,-0.01952,0.05368,0.061,0.06832,-0.04148,0.0244,-0.03904,0,0.00976,0.00488,-0.00488
-0.00488,-0.04392,0.09272,0.09516,0.0976,-0.05124,0.03416,-0.03416,0.0244,0.03904,0.02928,0.01952
0,-0.05856,0.11712,0.11712,0.11712,-0.05856,0.04392,-0.01952,0.03904,0.05368,0.03904,0.03416
0,-0.05856,0.11712,0.11712,0.11712,-0.05856,0.05368,-0.01464,0.04392,0.05856,0.03904,0.03416
0,-0.061,0.122,0.122,0.122,-0.061,0.05368,-0.00488,0.04392,0.05856,0.04392,0.03416
0.01464,-0.06832,0.122,0.11468,0.10736,-0.04636,0.0488,0.00488,0.0488,0.05856,0.04392,0.02928
0.0244,-0.0732,0.122,0.1098,0.0976,-0.0366,0.04392,0.01464,0.0488,0.05856,0.04392,0.02928
0.03416,-0.08296,0.13176,0.11468,0.0976,-0.03172,0.00976,0.0244,0.05368,0.06832,0.0488,0.03904
0.0488,-0.09272,0.13664,0.11224,0.08784,-0.01952,0,0.0244,0.05368,0.0732,0.0488,0.03904
0.0488,-0.0854,0.122,0.0976,0.0732,-0.0122,-0.00488,0.00488,0.03904,0.06344,0.0488,0.03416
0.03904,-0.07564,0.11224,0.09272,0.0732,-0.01708,-0.01464,-0.0244,0.01464,0.05856,0.03904,0.0244
0.02928,-0.05124,0.0732,0.05856,0.04392,-0.00732,-0.01952,-0.04392,0,0.03416,0.01464,0.00976
0.01952,-0.03904,0.05856,0.0488,0.03904,-0.00976,-0.01952,-0.04392,-0.00976,0.0244,0.00976,0
0.00976,-0.03416,0.05856,0.05368,0.0488,-0.01952,-0.00488,-0.03904,-0.00976,0.0244,0,-0.00488
0,-0.01708,0.03416,0.03416,0.03416,-0.01708,0,-0.03904,-0.01464,0.01464,-0.01464,-0.01464
-0.01952,0.00732,0.00488,0.01464,0.0244,-0.02196,0.00488,-0.04392,-0.01952,0.00488,-0.0244,-0.0244
-0.03416,0.0244,-0.01464,0.00244,0.01952,-0.02684,0.00976,-0.0488,-0.0244,-0.00976,-0.03416,-0.03416
-0.05856,0.05856,-0.05856,-0.02928,0,-0.02928,0.00976,-0.06832,-0.0488,-0.02928,-0.05368,-0.05856
-0.06344,0.07564,-0.08784,-0.05612,-0.0244,-0.01952,0.00976,-0.07808,-0.05368,-0.03904,-0.0732,-0.06344
-0.06344,0.07564,-0.08784,-0.05612,-0.0244,-0.01952,0.00976,-0.08296,-0.06832,-0.05368,-0.07808,-0.07808
-0.06832,0.07808,-0.08784,-0.05368,-0.01952,-0.0244,0.00976,-0.09272,-0.08296,-0.06832,-0.08784,-0.08784
-0.0732,0.08296,-0.09272,-0.05612,-0.01952,-0.02684,0.00488,-0.0976,-0.08784,-0.06832,-0.08784,-0.09272
-0.07808,0.0854,-0.09272,-0.05368,-0.01464,-0.03172,0.00488,-0.10248,-0.08784,-0.06832,-0.08784,-0.0976
-0.08296,0.09028,-0.0976,-0.05612,-0.01464,-0.03416,0.00488,-0.10248,-0.08784,-0.06832,-0.09272,-0.10248
-0.08296,0.09272,-0.10248,-0.061,-0.01952,-0.03172,0.00488,-0.10248,-0.08784,-0.06344,-0.09272,-0.10248
-0.08784,0.0976,-0.10736,-0.06344,-0.01952,-0.03416,0.00976,-0.0976,-0.08784,-0.06344,-0.09272,-0.10248
-0.0732,0.09028,-0.10736,-0.07076,-0.03416,-0.01952,0.00976,-0.0976,-0.08784,-0.06344,-0.09272,-0.10248
-0.0732,0.09516,-0.11712,-0.08052,-0.04392,-0.01464,0.01464,-0.09272,-0.09272,-0.06832,-0.09272,-0.11224
-0.08296,0.11468,-0.1464,-0.10492,-0.06344,-0.00976,0.06344,-0.05856,-0.10248,-0.08296,-0.11712,-0.12688
-0.08296,0.14884,-0.21472,-0.17324,-0.13176,0.0244,0.15128,0.03416,-0.10248,-0.13176,-0.16592,-0.17568
-0.08296,0.14884,-0.21472,-0.17324,-0.13176,0.0244,0.20008,0.16592,-0.0488,-0.122,-0.17568,-0.18544
-0.06344,0.11712,-0.1708,-0.13908,-0.10736,0.02196,0.24888,0.32696,0.06832,-0.0488,-0.13664,-0.18056
-0.0244,0.04636,-0.06832,-0.05612,-0.04392,0.00976,0.30256,0.47824,0.23912,0.0976,-0.02928,-0.122
0.03416,-0.10004,0.16592,0.14884,0.13176,-0.0488,0.28304,0.57096,0.47336,0.33672,0.18056,0.03904
0.03904,-0.244,0.44896,0.42944,0.40992,-0.18544,0.01952,0.26352,0.5612,0.50264,0.39528,0.26352
0.02928,-0.22692,0.42456,0.40992,0.39528,-0.183,-0.4148,-0.42944,0.18056,0.2928,0.29768,0.2684
-0.03416,-0.03172,0.0976,0.11468,0.13176,-0.08296,-0.8052,-1.45424,-0.54168,-0.20008,-0.03416,0.06344
-0.13664,0.15372,-0.1708,-0.10248,-0.03416,-0.05124,-1.10288,-2.24968,-1.03944,-0.55632,-0.28304,-0.08296
-0.08296,0.22936,-0.37576,-0.33428,-0.2928,0.10492,-1.10776,-1.9276,-1.1468,-0.69784,-0.41968,-0.20984
-0.02928,0.20008,-0.37088,-0.35624,-0.3416,0.15616,-0.87352,-1.42008,-0.94672,-0.61,-0.40016,-0.23424
0.00488,0.0976,-0.20008,-0.20252,-0.20496,0.10492,-0.62952,-0.96624,-0.62952,-0.39528,-0.26352,-0.15616
0.01952,0.01708,-0.05368,-0.06344,-0.0732,0.04636,-0.40992,-0.62464,-0.37576,-0.20496,-0.12688,-0.06344
0.00488,-0.00244,0,-0.00244,-0.00488,0.00488,-0.22448,-0.38552,-0.244,-0.13176,-0.08296,-0.03416
-0.01464,0.00976,-0.00488,0.00244,0.00976,-0.0122,-0.11712,-0.20984,-0.15616,-0.0976,-0.06832,-0.03416
-0.01464,0.00488,0.00488,0.0122,0.01952,-0.01708,-0.0732,-0.10736,-0.06832,-0.03904,-0.03904,-0.03416
-0.01952,0,0.01952,0.02928,0.03904,-0.02928,-0.00976,-0.03416,-0.00488,0.00488,-0.01464,-0.03416
-0.0244,0.00732,0.00976,0.02196,0.03416,-0.02928,0.04392,0.01464,-0.00488,0.00488,-0.01464,-0.03416
-0.02928,0.00976,0.00976,0.0244,0.03904,-0.03416,0.04392,0.02928,-0.00976,0.00488,-0.01952,-0.03416
-0.02928,0.00976,0.00976,0.0244,0.03904,-0.03416,0.04392,0.02928,0,0.00488,-0.0244,-0.04392
-0.0244,0.00732,0.00976,0.02196,0.03416,-0.02928,0.05368,0.04392,0.00488,0.00488,-0.0244,-0.05368
-0.03416,0.01708,0,0.01708,0.03416,-0.03416,0.06832,0.05856,0.00976,0.00488,-0.01952,-0.05856
-0.03416,0.01708,0,0.01708,0.03416,-0.03416,0.07808,0.06832,0.01464,0.00976,-0.01952,-0.05368
-0.03416,0.01708,0,0.01708,0.03416,-0.03416,0.07808,0.07808,0.01952,0.00976,-0.01952,-0.05368
-0.03904,0.02196,-0.00488,0.01464,0.03416,-0.0366,0.08296,0.08784,0.0244,0.00976,-0.01952,-0.05368
-0.03416,0.01952,-0.00488,0.0122,0.02928,-0.03172,0.08784,0.0976,0.02928,0.01464,-0.01464,-0.05368
-0.02928,0.01708,-0.00488,0.00976,0.0244,-0.02684,0.09272,0.10736,0.03904,0.01464,-0.01464,-0.05368
-0.02928,0.01708,-0.00488,0.00976,0.0244,-0.02684,0.0976,0.11224,0.03904,0.0244,-0.00976,-0.05368
-0.02928,0.01464,0,0.01464,0.02928,-0.02928,0.0976,0.11712,0.04392,0.0244,-0.00976,-0.0488
-0.02928,0.01464,0,0.01464,0.02928,-0.02928,0.10248,0.122,0.05368,0.0244,-0.01464,-0.0488
-0.02928,0.01464,0,0.01464,0.02928,-0.02928,0.10248,0.13176,0.05856,0.02928,-0.00976,-0.0488
-0.01952,0.00732,0.00488,0.01464,0.0244,-0.02196,0.10248,0.1464,0.06344,0.02928,-0.00976,-0.04392
-0.01952,0.00244,0.01464,0.0244,0.03416,-0.02684,0.10736,0.15616,0.06832,0.03904,-0.00488,-0.04392
-0.01464,-0.00244,0.01952,0.02684,0.03416,-0.0244,0.10736,0.16592,0.07808,0.04392,-0.00488,-0.03904
-0.00488,-0.01464,0.03416,0.0366,0.03904,-0.02196,0.11224,0.18056,0.08784,0.05368,0.00488,-0.02928
0.00488,-0.0244,0.04392,0.04148,0.03904,-0.01708,0.11224,0.19032,0.09272,0.05856,0.00976,-0.0244
0.00488,-0.02928,0.05368,0.05124,0.0488,-0.02196,0.11224,0.20008,0.0976,0.06344,0.01952,-0.01952
0.00488,-0.03416,0.06344,0.061,0.05856,-0.02684,0.11224,0.20984,0.10248,0.06832,0.0244,-0.01464
0.01464,-0.04392,0.0732,0.06588,0.05856,-0.02196,0.122,0.22448,0.11224,0.07808,0.03416,-0.00976
0.01464,-0.0488,0.08296,0.07564,0.06832,-0.02684,0.122,0.23424,0.12688,0.08784,0.04392,-0.00488
0.0244,-0.06344,0.10248,0.09028,0.07808,-0.02684,0.122,0.244,0.13176,0.0976,0.0488,0.00488
0.02928,-0.07564,0.122,0.10736,0.09272,-0.03172,0.122,0.25864,0.14152,0.10736,0.05856,0.01464
0.03416,-0.08052,0.12688,0.1098,0.09272,-0.02928,0.122,0.2684,0.15616,0.11712,0.06344,0.01952
0.03904,-0.09028,0.14152,0.122,0.10248,-0.03172,0.122,0.28304,0.16104,0.12688,0.06832,0.0244
0.03904,-0.09516,0.15128,0.13176,0.11224,-0.0366,0.12688,0.2928,0.16592,0.13664,0.0732,0.02928
0.03904,-0.0976,0.15616,0.13664,0.11712,-0.03904,0.12688,0.30256,0.1708,0.13664,0.08296,0.03904
0.03904,-0.10004,0.16104,0.14152,0.122,-0.04148,0.122,0.3172,0.1708,0.14152,0.08784,0.04392
0.03904,-0.10004,0.16104,0.14152,0.122,-0.04148,0.122,0.32696,0.18056,0.1464,0.09272,0.0488
0.03904,-0.10736,0.17568,0.15616,0.13664,-0.0488,0.122,0.33672,0.18056,0.15616,0.10736,0.05368
0.03904,-0.11224,0.18544,0.16592,0.1464,-0.05368,0.11712,0.34648,0.19032,0.16104,0.11712,0.05856
0.04392,-0.11712,0.19032,0.16836,0.1464,-0.05124,0.11712,0.35136,0.1952,0.16592,0.122,0.06832
0.04392,-0.12444,0.20496,0.183,0.16104,-0.05856,0.11712,0.36112,0.20008,0.1708,0.13176,0.0732
0.0488,-0.12444,0.20008,0.17568,0.15128,-0.05124,0.11712,0.36112,0.20984,0.18056,0.13664,0.07808
0.05856,-0.12932,0.20008,0.1708,0.14152,-0.04148,0.11712,0.37088,0.21472,0.18544,0.14152,0.08296
0.05856,-0.13908,0.2196,0.19032,0.16104,-0.05124,0.11224,0.37576,0.21472,0.19032,0.14152,0.08784
0.05856,-0.14396,0.22936,0.20008,0.1708,-0.05612,0.11224,0.38064,0.21472,0.1952,0.1464,0.09272
0.06832,-0.15616,0.244,0.20984,0.17568,-0.05368,0.0976,0.38064,0.21472,0.20008,0.15128,0.10248
0.0732,-0.16592,0.25864,0.22204,0.18544,-0.05612,0.08784,0.38064,0.21472,0.20008,0.15616,0.10736
0.08296,-0.17568,0.2684,0.22692,0.18544,-0.05124,0.08296,0.37576,0.21472,0.20008,0.16104,0.11224
0.08784,-0.183,0.27816,0.23424,0.19032,-0.05124,0.07808,0.366,0.21472,0.20008,0.16592,0.11712
0.09272,-0.19032,0.28792,0.24156,0.1952,-0.05124,0.0732,0.36112,0.20984,0.20496,0.16592,0.12688
0.09272,-0.19764,0.30256,0.2562,0.20984,-0.05856,0.06832,0.35624,0.20496,0.20984,0.1708,0.12688
0.0976,-0.20252,0.30744,0.25864,0.20984,-0.05612,0.06344,0.35136,0.20008,0.20984,0.1708,0.12688
0.10248,-0.2074,0.31232,0.26108,0.20984,-0.05368,0.0488,0.33672,0.19032,0.20496,0.1708,0.13176
0.10736,-0.21716,0.32696,0.27328,0.2196,-0.05612,0.03904,0.32696,0.18544,0.20008,0.17568,0.13176
0.11224,-0.22204,0.33184,0.27572,0.2196,-0.05368,0.0244,0.31232,0.18056,0.19032,0.18056,0.14152
0.11712,-0.22448,0.33184,0.27328,0.21472,-0.0488,0.01464,0.2928,0.1708,0.19032,0.18056,0.1464
0.12688,-0.23424,0.3416,0.27816,0.21472,-0.04392,0.00488,0.27328,0.16592,0.19032,0.18544,0.15128
0.12688,-0.23668,0.34648,0.28304,0.2196,-0.04636,-0.0244,0.24888,0.16104,0.19032,0.18544,0.15128
0.12688,-0.23912,0.35136,0.28792,0.22448,-0.0488,-0.03904,0.2196,0.1464,0.19032,0.18544,0.15128
0.12688,-0.24156,0.35624,0.2928,0.22936,-0.05124,-0.0488,0.20008,0.1464,0.18056,0.18056,0.1464
0.122,-0.23668,0.35136,0.29036,0.22936,-0.05368,-0.05856,0.18056,0.13664,0.18056,0.16592,0.13664
0.11224,-0.22448,0.33672,0.2806,0.22448,-0.05612,-0.05856,0.16592,0.11712,0.1708,0.16104,0.13176
0.0976,-0.20252,0.30744,0.25864,0.20984,-0.05612,-0.06344,0.14152,0.10736,0.15128,0.14152,0.11224
0.08784,-0.18788,0.28792,0.244,0.20008,-0.05612,-0.06832,0.122,0.08784,0.12688,0.122,0.09272
0.0732,-0.16836,0.26352,0.22692,0.19032,-0.05856,-0.06832,0.0976,0.0732,0.10248,0.09272,0.07808
0.05856,-0.14152,0.22448,0.1952,0.16592,-0.05368,-0.06832,0.0732,0.05856,0.08784,0.0732,0.05368
0.04392,-0.11468,0.18544,0.16348,0.14152,-0.0488,-0.05856,0.05856,0.04392,0.06344,0.05368,0.03904
0.02928,-0.09272,0.15616,0.14152,0.12688,-0.0488,-0.05368,0.03904,0.02928,0.04392,0.03416,0.0244
0.01464,-0.0732,0.13176,0.12444,0.11712,-0.05124,-0.0488,0.01952,0.00976,0.0244,0.01464,0
0,-0.05856,0.11712,0.11712,0.11712,-0.05856,-0.04392,-0.00488,-0.00976,0.00976,0,-0.00976
-0.00488,-0.04148,0.08784,0.09028,0.09272,-0.0488,-0.03904,-0.01952,-0.01464,-0.00976,-0.00976,-0.0244
-0.00976,-0.02928,0.06832,0.0732,0.07808,-0.04392,-0.02928,-0.02928,-0.0244,-0.01952,-0.0244,-0.03904
-0.01464,-0.02196,0.05856,0.06588,0.0732,-0.04392,-0.0244,-0.04392,-0.03416,-0.01952,-0.02928,-0.04392
-0.01464,-0.01952,0.05368,0.061,0.06832,-0.04148,-0.02928,-0.0488,-0.0488,-0.02928,-0.03904,-0.05368
-0.01952,-0.01464,0.0488,0.05856,0.06832,-0.04392,-0.02928,-0.05856,-0.05368,-0.02928,-0.03904,-0.06344
-0.0244,-0.00976,0.04392,0.05612,0.06832,-0.04636,-0.0244,-0.06344,-0.06344,-0.03416,-0.04392,-0.06344
-0.02928,-0.00488,0.03904,0.05368,0.06832,-0.0488,-0.0244,-0.06344,-0.06344,-0.04392,-0.05368,-0.06832
-0.02928,-0.00244,0.03416,0.0488,0.06344,-0.04636,-0.0244,-0.0732,-0.06832,-0.0488,-0.05856,-0.06832
-0.02928,0,0.02928,0.04392,0.05856,-0.04392,-0.01952,-0.07808,-0.06832,-0.05368,-0.06344,-0.06832
-0.02928,0,0.02928,0.04392,0.05856,-0.04392,-0.0244,-0.08296,-0.0732,-0.05368,-0.06344,-0.06832
-0.02928,0,0.02928,0.04392,0.05856,-0.04392,-0.0244,-0.08296,-0.07808,-0.05368,-0.06344,-0.06832
-0.02928,0.00244,0.0244,0.03904,0.05368,-0.04148,-0.0244,-0.08296,-0.07808,-0.05368,-0.06344,-0.0732
-0.02928,0.00488,0.01952,0.03416,0.0488,-0.03904,-0.0244,-0.08296,-0.07808,-0.05368,-0.05856,-0.0732
-0.02928,0.00488,0.01952,0.03416,0.0488,-0.03904,-0.0244,-0.08296,-0.0732,-0.0488,-0.05856,-0.0732
-0.02928,0.00488,0.01952,0.03416,0.0488,-0.03904,-0.0244,-0.08296,-0.0732,-0.0488,-0.05856,-0.0732
-0.02928,0.00488,0.01952,0.03416,0.0488,-0.03904,-0.0244,-0.08784,-0.0732,-0.0488,-0.05856,-0.06832
-0.0244,0.00488,0.01464,0.02684,0.03904,-0.03172,-0.0244,-0.08784,-0.0732,-0.05368,-0.05856,-0.06832
-0.0244,0.00488,0.01464,0.02684,0.03904,-0.03172,-0.02928,-0.09272,-0.0732,-0.05368,-0.05856,-0.0732
-0.03416,0.00976,0.01464,0.03172,0.0488,-0.04148,-0.02928,-0.09272,-0.0732,-0.05368,-0.05856,-0.07808
-0.03416,0.00732,0.01952,0.0366,0.05368,-0.04392,-0.02928,-0.09272,-0.0732,-0.05368,-0.05856,-0.07808
-0.03416,0.00732,0.01952,0.0366,0.05368,-0.04392,-0.03416,-0.09272,-0.07808,-0.05856,-0.05368,-0.07808
-0.03416,0.0122,0.00976,0.02684,0.04392,-0.03904,-0.03416,-0.0976,-0.07808,-0.05856,-0.05368,-0.07808
-0.03416,0.01464,0.00488,0.02196,0.03904,-0.0366,-0.03416,-0.0976,-0.07808,-0.05856,-0.05368,-0.0732
-0.03904,0.01952,0,0.01952,0.03904,-0.03904,-0.03904,-0.10248,-0.07808,-0.05856,-0.05368,-0.0732
-0.03904,0.02196,-0.00488,0.01464,0.03416,-0.0366,-0.03904,-0.10248,-0.07808,-0.05856,-0.05368,-0.0732
-0.03416,0.01952,-0.00488,0.0122,0.02928,-0.03172,-0.03416,-0.10248,-0.07808,-0.05856,-0.05368,-0.0732
-0.03416,0.01952,-0.00488,0.0122,0.02928,-0.03172,-0.03416,-0.0976,-0.0732,-0.05856,-0.05368,-0.0732
-0.02928,0.01708,-0.00488,0.00976,0.0244,-0.02684,-0.02928,-0.10248,-0.0732,-0.05368,-0.05368,-0.06832
-0.02928,0.01708,-0.00488,0.00976,0.0244,-0.02684,-0.0244,-0.10248,-0.0732,-0.0488,-0.05368,-0.06344
-0.03416,0.01952,-0.00488,0.0122,0.02928,-0.03172,-0.0244,-0.10248,-0.07808,-0.0488,-0.05368,-0.05856
-0.03416,0.01952,-0.00488,0.0122,0.02928,-0.03172,-0.02928,-0.10248,-0.07808,-0.0488,-0.05856,-0.05368
-0.03416,0.01952,-0.00488,0.0122,0.02928,-0.03172,-0.02928,-0.10248,-0.07808,-0.0488,-0.05856,-0.05368
-0.02928,0.01708,-0.00488,0.00976,0.0244,-0.02684,-0.02928,-0.10736,-0.08296,-0.0488,-0.05856,-0.05368
-0.0244,0.01952,-0.01464,-0.00244,0.00976,-0.01708,-0.02928,-0.10736,-0.08296,-0.05368,-0.05856,-0.05368
-0.0244,0.02196,-0.01952,-0.00732,0.00488,-0.01464,-0.02928,-0.10736,-0.08296,-0.05368,-0.05856,-0.05856
-0.0244,0.02196,-0.01952,-0.00732,0.00488,-0.01464,-0.02928,-0.11224,-0.08296,-0.05368,-0.05856,-0.06344
-0.0244,0.01952,-0.01464,-0.00244,0.00976,-0.01708,-0.02928,-0.11224,-0.08784,-0.05368,-0.05856,-0.06832
-0.01952,0.01708,-0.01464,-0.00488,0.00488,-0.0122,-0.02928,-0.11224,-0.08784,-0.0488,-0.05856,-0.06832
-0.01952,0.01952,-0.01952,-0.00976,0,-0.00976,-0.02928,-0.11712,-0.08784,-0.0488,-0.05856,-0.06832
-0.0244,0.02196,-0.01952,-0.00732,0.00488,-0.01464,-0.02928,-0.11712,-0.08784,-0.0488,-0.05368,-0.06344
-0.02928,0.0244,-0.01952,-0.00488,0.00976,-0.01952,-0.02928,-0.11712,-0.08784,-0.0488,-0.0488,-0.05856
-0.02928,0.0244,-0.01952,-0.00488,0.00976,-0.01952,-0.02928,-0.11712,-0.08784,-0.05368,-0.0488,-0.05856
-0.02928,0.0244,-0.01952,-0.00488,0.00976,-0.01952,-0.02928,-0.11712,-0.08784,-0.05368,-0.0488,-0.05856
-0.02928,0.0244,-0.01952,-0.00488,0.00976,-0.01952,-0.02928,-0.11712,-0.08784,-0.05856,-0.05368,-0.06344
-0.0244,0.02196,-0.01952,-0.00732,0.00488,-0.01464,-0.02928,-0.11712,-0.08784,-0.05856,-0.05856,-0.06832
-0.02928,0.02196,-0.01464,0,0.01464,-0.02196,-0.0244,-0.122,-0.08784,-0.05856,-0.05856,-0.06832
-0.03416,0.0244,-0.01464,0.00244,0.01952,-0.02684,-0.0244,-0.122,-0.08784,-0.05856,-0.05856,-0.06832
-0.03416,0.0244,-0.01464,0.00244,0.01952,-0.02684,-0.0244,-0.122,-0.08784,-0.05856,-0.06344,-0.0732
-0.03416,0.0244,-0.01464,0.00244,0.01952,-0.02684,-0.0244,-0.122,-0.08784,-0.05856,-0.06344,-0.0732
-0.03416,0.0244,-0.01464,0.00244,0.01952,-0.02684,-0.0244,-0.122,-0.08784,-0.05856,-0.06344,-0.0732
-0.03416,0.0244,-0.01464,0.00244,0.01952,-0.02684,-0.0244,-0.122,-0.08784,-0.05856,-0.05856,-0.0732
-0.02928,0.01952,-0.00976,0.00488,0.01952,-0.0244,-0.0244,-0.11712,-0.08296,-0.0488,-0.05368,-0.06832
-0.02928,0.00976,0.00976,0.0244,0.03904,-0.03416,-0.01464,-0.10736,-0.06344,-0.03416,-0.03904,-0.05856
-0.02928,-0.00488,0.03904,0.05368,0.06832,-0.0488,0,-0.09272,-0.0488,-0.01952,-0.0244,-0.03904
-0.0244,-0.0244,0.0732,0.0854,0.0976,-0.061,0.01464,-0.07808,-0.02928,-0.00976,-0.00488,-0.01464
-0.00976,-0.0488,0.10736,0.11224,0.11712,-0.06344,0.0244,-0.06832,-0.00488,0.01952,0.01952,0.00488
0,-0.06344,0.12688,0.12688,0.12688,-0.06344,0.03416,-0.0488,0.00976,0.03416,0.02928,0.01464
0.00488,-0.061,0.11712,0.11468,0.11224,-0.05368,0.03904,-0.04392,0.01464,0.03904,0.0244,0.01464
0.00976,-0.061,0.11224,0.10736,0.10248,-0.04636,0.03416,-0.03416,0.01464,0.03904,0.0244,0.01464
0.0244,-0.06832,0.11224,0.10004,0.08784,-0.03172,0.02928,-0.0244,0.01464,0.03416,0.0244,0.00976
0.03416,-0.0732,0.11224,0.09516,0.07808,-0.02196,0.0244,-0.01464,0.00976,0.02928,0.0244,0.00976
0.0488,-0.08296,0.11712,0.09272,0.06832,-0.00976,-0.00976,-0.00488,0.01464,0.03416,0.0244,0.01952
0.06832,-0.09272,0.11712,0.08296,0.0488,0.00976,-0.01952,-0.00488,0.01464,0.03416,0.01952,0.01952
0.0732,-0.08784,0.10248,0.06588,0.02928,0.02196,-0.0244,-0.0244,0,0.0244,0.01952,0.01464
0.06832,-0.08052,0.09272,0.05856,0.0244,0.02196,-0.03416,-0.05368,-0.0244,0.01952,0.00976,0.00488
0.05856,-0.061,0.06344,0.03416,0.00488,0.02684,-0.03416,-0.0732,-0.03904,0,-0.00976,-0.00976
0.0488,-0.05368,0.05856,0.03416,0.00976,0.01952,-0.02928,-0.0732,-0.0488,-0.00488,-0.00976,-0.01952
0.03904,-0.05368,0.06832,0.0488,0.02928,0.00488,-0.01464,-0.06832,-0.0488,-0.00488,-0.01464,-0.0244
0.02928,-0.04148,0.05368,0.03904,0.0244,0.00244,-0.00976,-0.06832,-0.05368,-0.01464,-0.0244,-0.03416
0.00976,-0.0122,0.01464,0.00976,0.00488,0.00244,-0.00488,-0.0732,-0.05856,-0.01952,-0.03416,-0.04392
-0.00488,0.00976,-0.01464,-0.0122,-0.00976,0.00244,0,-0.07808,-0.06344,-0.02928,-0.04392,-0.05368
-0.0244,0.03172,-0.03904,-0.02684,-0.01464,-0.00488,-0.00488,-0.0976,-0.08784,-0.0488,-0.05856,-0.0732
-0.0244,0.0366,-0.0488,-0.0366,-0.0244,0,-0.00976,-0.10736,-0.09272,-0.05856,-0.0732,-0.0732
-0.02928,0.04636,-0.06344,-0.0488,-0.03416,0.00244,-0.00976,-0.11712,-0.10248,-0.06832,-0.07808,-0.08784
-0.03904,0.05856,-0.07808,-0.05856,-0.03904,0,-0.00976,-0.13176,-0.11224,-0.07808,-0.08784,-0.0976
-0.03904,0.061,-0.08296,-0.06344,-0.04392,0.00244,-0.01464,-0.13176,-0.11712,-0.07808,-0.08784,-0.0976
-0.03904,0.061,-0.08296,-0.06344,-0.04392,0.00244,-0.01464,-0.13176,-0.11712,-0.07808,-0.08784,-0.0976
-0.04392,0.06344,-0.08296,-0.061,-0.03904,-0.00244,-0.01464,-0.13176,-0.11712,-0.08784,-0.09272,-0.10248
-0.04392,0.06344,-0.08296,-0.061,-0.03904,-0.00244,-0.01464,-0.13176,-0.11712,-0.09272,-0.09272,-0.10248
-0.05368,0.07076,-0.08784,-0.061,-0.03416,-0.00976,-0.00976,-0.12688,-0.11712,-0.0976,-0.0976,-0.10248
-0.04392,0.06588,-0.08784,-0.06588,-0.04392,0,-0.00976,-0.12688,-0.11712,-0.10248,-0.10248,-0.10248
-0.04392,0.0732,-0.10248,-0.08052,-0.05856,0.00732,0.00976,-0.10248,-0.11712,-0.10248,-0.10248,-0.122
-0.05368,0.09516,-0.13664,-0.1098,-0.08296,0.01464,0.0732,-0.0488,-0.122,-0.11224,-0.12688,-0.1464
-0.03904,0.11224,-0.18544,-0.16592,-0.1464,0.05368,0.16104,0.06344,-0.10248,-0.13176,-0.15128,-0.18056
-0.0244,0.09516,-0.16592,-0.15372,-0.14152,0.05856,0.20984,0.21472,-0.02928,-0.09272,-0.13664,-0.17568
-0.00488,0.04636,-0.08784,-0.0854,-0.08296,0.03904,0.23912,0.36112,0.10248,0,-0.06832,-0.12688
0.03416,-0.04148,0.0488,0.03172,0.01464,0.00976,0.27328,0.49776,0.28792,0.16592,0.06832,-0.0244
0.08784,-0.14884,0.20984,0.16592,0.122,-0.01708,0.16104,0.41968,0.38552,0.30256,0.20496,0.08784
0.08784,-0.25376,0.41968,0.37576,0.33184,-0.122,-0.1952,-0.05856,0.33672,0.366,0.34648,0.26352
0.07808,-0.21716,0.35624,0.3172,0.27816,-0.10004,-0.61976,-0.72712,-0.04392,0.1464,0.23424,0.24888
0.01464,-0.00244,-0.00976,-0.01708,-0.0244,0.01952,-1.0004,-1.72752,-0.76616,-0.35624,-0.11224,0.0244
-0.06832,0.12688,-0.18544,-0.15128,-0.11712,0.0244,-1.16144,-2.28872,-1.098,-0.60512,-0.30256,-0.0976
0.00488,0.1464,-0.29768,-0.30012,-0.30256,0.15372,-1.02968,-1.7324,-1.03944,-0.63928,-0.38064,-0.20008
0.03904,0.11956,-0.27816,-0.29768,-0.3172,0.17812,-0.79544,-1.26392,-0.84424,-0.55144,-0.34648,-0.20008
0.05368,0.01952,-0.09272,-0.11956,-0.1464,0.10004,-0.55144,-0.84912,-0.53192,-0.33672,-0.1952,-0.0976
0.05856,-0.0366,0.01464,-0.01464,-0.04392,0.05124,-0.35624,-0.54168,-0.3172,-0.1708,-0.08296,-0.02928
0.03416,-0.03172,0.02928,0.0122,-0.00488,0.01952,-0.1952,-0.33672,-0.22448,-0.122,-0.06344,-0.0244
0.00976,-0.0122,0.01464,0.00976,0.00488,0.00244,-0.09272,-0.17568,-0.15128,-0.09272,-0.05368,-0.0244
0.00488,-0.00976,0.01464,0.0122,0.00976,-0.00244,-0.05368,-0.08784,-0.07808,-0.03904,-0.02928,-0.0244
0.00488,-0.01708,0.02928,0.02684,0.0244,-0.00976,0,-0.02928,-0.0244,-0.00488,-0.00976,-0.02928
0.00488,-0.0122,0.01952,0.01708,0.01464,-0.00488,0.04392,0.00488,-0.03416,-0.01464,-0.01464,-0.03416
-0.00488,-0.00244,0.00976,0.0122,0.01464,-0.00976,0.04392,0.01952,-0.03416,-0.01464,-0.01952,-0.03416
-0.00976,0.00488,0,0.00488,0.00976,-0.00976,0.04392,0.01952,-0.01952,-0.01464,-0.0244,-0.04392
-0.00976,0.00488,0,0.00488,0.00976,-0.00976,0.05368,0.03416,-0.01464,-0.01464,-0.0244,-0.0488
-0.0244,0.01708,-0.00976,0.00244,0.01464,-0.01952,0.06832,0.0488,-0.00976,-0.01464,-0.01952,-0.0488
-0.0244,0.01464,-0.00488,0.00732,0.01952,-0.02196,0.07808,0.05368,-0.00976,-0.01464,-0.01952,-0.0488
-0.0244,0.0122,0,0.0122,0.0244,-0.0244,0.07808,0.05856,-0.00976,-0.01952,-0.01952,-0.05368
-0.0244,0.00976,0.00488,0.01708,0.02928,-0.02684,0.07808,0.06832,-0.00488,-0.01952,-0.01952,-0.05368
-0.01464,0,0.01464,0.02196,0.02928,-0.02196,0.07808,0.07808,0,-0.01464,-0.01464,-0.05368
-0.00976,-0.00488,0.01952,0.0244,0.02928,-0.01952,0.08296,0.09272,0.00976,-0.01464,-0.01464,-0.0488
-0.00976,-0.00732,0.0244,0.02928,0.03416,-0.02196,0.08784,0.10248,0.00976,-0.00488,-0.00976,-0.04392
-0.00488,-0.00976,0.0244,0.02684,0.02928,-0.01708,0.08784,0.11224,0.01464,0,-0.00488,-0.03904
0,-0.00976,0.01952,0.01952,0.01952,-0.00976,0.09272,0.122,0.0244,0.00488,-0.00488,-0.03904
-0.00488,-0.00732,0.01952,0.02196,0.0244,-0.01464,0.09272,0.13176,0.02928,0.00976,-0.00488,-0.03904
0,-0.0122,0.0244,0.0244,0.0244,-0.0122,0.09272,0.1464,0.03416,0.00976,-0.00976,-0.03416
0,-0.01708,0.03416,0.03416,0.03416,-0.01708,0.0976,0.15616,0.03416,0.01464,-0.00488,-0.03904
0.00488,-0.02196,0.03904,0.0366,0.03416,-0.01464,0.0976,0.16592,0.03904,0.01464,-0.00488,-0.03904
0.00976,-0.02684,0.04392,0.03904,0.03416,-0.0122,0.10736,0.17568,0.0488,0.0244,0.00488,-0.02928
0.01464,-0.02928,0.04392,0.0366,0.02928,-0.00732,0.11224,0.18056,0.05368,0.02928,0.00976,-0.0244
0.01464,-0.03172,0.0488,0.04148,0.03416,-0.00976,0.11224,0.19032,0.05856,0.03904,0.01952,-0.01952
0.01464,-0.03416,0.05368,0.04636,0.03904,-0.0122,0.11224,0.20008,0.06344,0.0488,0.0244,-0.01464
0.01952,-0.04148,0.06344,0.05368,0.04392,-0.0122,0.11712,0.21472,0.06832,0.05368,0.02928,-0.00976
0.01464,-0.04392,0.0732,0.06588,0.05856,-0.02196,0.11224,0.22448,0.07808,0.05856,0.03416,-0.00488
0.01952,-0.05368,0.08784,0.07808,0.06832,-0.0244,0.11224,0.22936,0.07808,0.06344,0.03904,0
0.01952,-0.061,0.10248,0.09272,0.08296,-0.03172,0.11224,0.23912,0.08296,0.06832,0.0488,0.00488
0.0244,-0.06344,0.10248,0.09028,0.07808,-0.02684,0.11224,0.24888,0.0976,0.07808,0.05368,0.00976
0.02928,-0.07076,0.11224,0.0976,0.08296,-0.02684,0.11224,0.26352,0.10248,0.08784,0.05856,0.01464
0.02928,-0.07564,0.122,0.10736,0.09272,-0.03172,0.11712,0.27328,0.10736,0.0976,0.06344,0.01952
0.02928,-0.07808,0.12688,0.11224,0.0976,-0.03416,0.11712,0.28304,0.11224,0.0976,0.0732,0.02928
0.02928,-0.08296,0.13664,0.122,0.10736,-0.03904,0.11224,0.29768,0.11712,0.10248,0.0732,0.03416
0.02928,-0.0854,0.14152,0.12688,0.11224,-0.04148,0.11224,0.30744,0.13176,0.10736,0.0732,0.03904
0.0244,-0.0854,0.1464,0.1342,0.122,-0.0488,0.11224,0.3172,0.13176,0.11712,0.08296,0.04392
0.01952,-0.08296,0.1464,0.13664,0.12688,-0.05368,0.10736,0.32696,0.14152,0.122,0.08784,0.0488
0.0244,-0.08784,0.15128,0.13908,0.12688,-0.05124,0.10736,0.33184,0.1464,0.12688,0.09272,0.05856
0.0244,-0.09516,0.16592,0.15372,0.14152,-0.05856,0.10736,0.3416,0.15128,0.13176,0.10248,0.06344
0.02928,-0.0976,0.16592,0.15128,0.13664,-0.05368,0.10248,0.3416,0.16104,0.14152,0.10736,0.06344
0.03904,-0.10492,0.1708,0.15128,0.13176,-0.04636,0.0976,0.35136,0.16592,0.1464,0.11224,0.06344
0.03904,-0.11224,0.18544,0.16592,0.1464,-0.05368,0.09272,0.35624,0.1708,0.15128,0.11712,0.06832
0.03904,-0.11468,0.19032,0.1708,0.15128,-0.05612,0.09272,0.36112,0.17568,0.15616,0.12688,0.0732
0.0488,-0.12444,0.20008,0.17568,0.15128,-0.05124,0.08296,0.36112,0.1708,0.16104,0.13176,0.08296
0.05368,-0.13176,0.20984,0.183,0.15616,-0.05124,0.07808,0.36112,0.16592,0.16104,0.13664,0.08784
0.06344,-0.14152,0.2196,0.18788,0.15616,-0.04636,0.0732,0.35624,0.16592,0.16104,0.14152,0.09272
0.06832,-0.14884,0.22936,0.1952,0.16104,-0.04636,0.06832,0.34648,0.16592,0.16104,0.1464,0.0976
0.07808,-0.1586,0.23912,0.20008,0.16104,-0.04148,0.06344,0.3416,0.16592,0.16592,0.1464,0.10736
0.08296,-0.16836,0.25376,0.21228,0.1708,-0.04392,0.05856,0.33672,0.16592,0.1708,0.15128,0.10736
0.08784,-0.17324,0.25864,0.21472,0.1708,-0.04148,0.05368,0.33184,0.16104,0.1708,0.15128,0.10736
0.09272,-0.17812,0.26352,0.21716,0.1708,-0.03904,0.03904,0.3172,0.15128,0.16592,0.15128,0.11224
0.09272,-0.18056,0.2684,0.22204,0.17568,-0.04148,0.03416,0.30256,0.1464,0.16104,0.15128,0.10736
0.09272,-0.17812,0.26352,0.21716,0.1708,-0.03904,0.0244,0.28304,0.14152,0.15128,0.15128,0.11224
0.09272,-0.17812,0.26352,0.21716,0.1708,-0.03904,0.00976,0.25864,0.13176,0.1464,0.15128,0.11712
0.0976,-0.18544,0.27328,0.22448,0.17568,-0.03904,-0.00488,0.23424,0.12688,0.14152,0.15616,0.122
0.0976,-0.18544,0.27328,0.22448,0.17568,-0.03904,-0.02928,0.2196,0.122,0.14152,0.15616,0.122
0.0976,-0.18544,0.27328,0.22448,0.17568,-0.03904,-0.03904,0.20008,0.10736,0.14152,0.15616,0.122
0.09272,-0.183,0.27328,0.22692,0.18056,-0.04392,-0.04392,0.17568,0.10736,0.13176,0.15616,0.122
0.08296,-0.17324,0.26352,0.22204,0.18056,-0.0488,-0.0488,0.15128,0.0976,0.13176,0.1464,0.11712
0.06832,-0.1586,0.24888,0.21472,0.18056,-0.05612,-0.0488,0.13664,0.07808,0.12688,0.14152,0.11224
0.0488,-0.1342,0.2196,0.1952,0.1708,-0.061,-0.05368,0.11224,0.06832,0.11224,0.122,0.09272
0.03904,-0.11468,0.19032,0.1708,0.15128,-0.05612,-0.05368,0.09272,0.0488,0.08784,0.10248,0.06832
0.0244,-0.09028,0.15616,0.14396,0.13176,-0.05368,-0.0488,0.06832,0.03416,0.06344,0.0732,0.0488
0.00976,-0.06588,0.122,0.11712,0.11224,-0.05124,-0.0488,0.0488,0.0244,0.05368,0.05368,0.0244
-0.00488,-0.04148,0.08784,0.09028,0.09272,-0.0488,-0.03904,0.03904,0.01464,0.03416,0.03416,0.00976
-0.01952,-0.01952,0.05856,0.06832,0.07808,-0.0488,-0.03416,0.01952,0,0.01464,0.01952,0
-0.03416,0,0.03416,0.05124,0.06832,-0.05124,-0.02928,0,-0.01952,-0.00488,0.00488,-0.01952
-0.0488,0.0122,0.0244,0.0488,0.0732,-0.061,-0.02928,-0.01952,-0.03416,-0.01464,-0.00976,-0.02928
-0.05368,0.02684,0,0.02684,0.05368,-0.05368,-0.02928,-0.02928,-0.03416,-0.02928,-0.01952,-0.04392
-0.06344,0.04148,-0.01952,0.0122,0.04392,-0.05368,-0.0244,-0.03416,-0.04392,-0.03904,-0.03904,-0.05856
-0.0732,0.05124,-0.02928,0.00732,0.04392,-0.05856,-0.0244,-0.04392,-0.05368,-0.03904,-0.0488,-0.06344
-0.0732,0.05368,-0.03416,0.00244,0.03904,-0.05612,-0.02928,-0.0488,-0.06344,-0.0488,-0.05856,-0.06832
-0.07808,0.05856,-0.03904,0,0.03904,-0.05856,-0.02928,-0.05856,-0.06344,-0.0488,-0.05856,-0.0732
-0.08296,0.06344,-0.04392,-0.00244,0.03904,-0.061,-0.0244,-0.06344,-0.0732,-0.05368,-0.05856,-0.0732
-0.08784,0.06832,-0.0488,-0.00488,0.03904,-0.06344,-0.0244,-0.06344,-0.0732,-0.06344,-0.06344,-0.07808
-0.08784,0.07076,-0.05368,-0.00976,0.03416,-0.061,-0.0244,-0.06832,-0.07808,-0.06344,-0.06344,-0.08296
-0.08784,0.0732,-0.05856,-0.01464,0.02928,-0.05856,-0.01952,-0.06832,-0.07808,-0.06344,-0.06344,-0.08784
-0.08784,0.07076,-0.05368,-0.00976,0.03416,-0.061,-0.0244,-0.0732,-0.08296,-0.06344,-0.06344,-0.08784
-0.08784,0.06832,-0.0488,-0.00488,0.03904,-0.06344,-0.0244,-0.0732,-0.08784,-0.06344,-0.06344,-0.08784
-0.08784,0.06832,-0.0488,-0.00488,0.03904,-0.06344,-0.0244,-0.07808,-0.08784,-0.06344,-0.06832,-0.08784
-0.08784,0.06832,-0.0488,-0.00488,0.03904,-0.06344,-0.0244,-0.08296,-0.08784,-0.06344,-0.06832,-0.08296
-0.08784,0.0732,-0.05856,-0.01464,0.02928,-0.05856,-0.0244,-0.08296,-0.08296,-0.05856,-0.0732,-0.08296
-0.08784,0.07808,-0.06832,-0.0244,0.01952,-0.05368,-0.0244,-0.08296,-0.08296,-0.05856,-0.07808,-0.08296
-0.09272,0.08052,-0.06832,-0.02196,0.0244,-0.05856,-0.0244,-0.08296,-0.08784,-0.05856,-0.0732,-0.08296
-0.09272,0.08296,-0.0732,-0.02684,0.01952,-0.05612,-0.0244,-0.07808,-0.09272,-0.06344,-0.06832,-0.08784
-0.0976,0.08784,-0.07808,-0.02928,0.01952,-0.05856,-0.02928,-0.08296,-0.09272,-0.06832,-0.06832,-0.08784
-0.11224,0.0976,-0.08296,-0.02684,0.02928,-0.07076,-0.02928,-0.08296,-0.09272,-0.0732,-0.06832,-0.08784
-0.11224,0.09516,-0.07808,-0.02196,0.03416,-0.0732,-0.02928,-0.08784,-0.08784,-0.06832,-0.0732,-0.08784
-0.11224,0.09516,-0.07808,-0.02196,0.03416,-0.0732,-0.03416,-0.09272,-0.08784,-0.06832,-0.0732,-0.08784
-0.11224,0.09516,-0.07808,-0.02196,0.03416,-0.0732,-0.03416,-0.0976,-0.08784,-0.06832,-0.0732,-0.09272
-0.11224,0.09272,-0.0732,-0.01708,0.03904,-0.07564,-0.03416,-0.0976,-0.08784,-0.06832,-0.0732,-0.09272
-0.11712,0.09516,-0.0732,-0.01464,0.04392,-0.08052,-0.03416,-0.0976,-0.08784,-0.06832,-0.0732,-0.09272
-0.11712,0.09516,-0.0732,-0.01464,0.04392,-0.08052,-0.02928,-0.09272,-0.08784,-0.06832,-0.0732,-0.09272
-0.11712,0.10004,-0.08296,-0.0244,0.03416,-0.07564,-0.0244,-0.0976,-0.08784,-0.06832,-0.0732,-0.08784
-0.122,0.10736,-0.09272,-0.03172,0.02928,-0.07564,-0.0244,-0.0976,-0.08296,-0.06832,-0.0732,-0.08296
-0.122,0.10736,-0.09272,-0.03172,0.02928,-0.07564,-0.0244,-0.10248,-0.08296,-0.06832,-0.06832,-0.08296
-0.12688,0.1098,-0.09272,-0.02928,0.03416,-0.08052,-0.0244,-0.10248,-0.08296,-0.06832,-0.06344,-0.08296
-0.13176,0.1098,-0.08784,-0.02196,0.04392,-0.08784,-0.0244,-0.10248,-0.08784,-0.06832,-0.06344,-0.08296
-0.13176,0.10736,-0.08296,-0.01708,0.0488,-0.09028,-0.02928,-0.10248,-0.08784,-0.06832,-0.06832,-0.08296
-0.122,0.10004,-0.07808,-0.01708,0.04392,-0.08296,-0.02928,-0.10248,-0.08784,-0.06832,-0.06832,-0.08296
-0.10736,0.09028,-0.0732,-0.01952,0.03416,-0.07076,-0.02928,-0.10736,-0.09272,-0.06832,-0.06832,-0.08296
-0.10736,0.09272,-0.07808,-0.0244,0.02928,-0.06832,-0.02928,-0.10736,-0.09272,-0.0732,-0.06832,-0.08296
-0.11224,0.09516,-0.07808,-0.02196,0.03416,-0.0732,-0.02928,-0.11224,-0.09272,-0.0732,-0.06832,-0.08784
-0.10736,0.09272,-0.07808,-0.0244,0.02928,-0.06832,-0.02928,-0.11224,-0.08296,-0.06832,-0.06832,-0.08296
-0.10736,0.09272,-0.07808,-0.0244,0.02928,-0.06832,-0.02928,-0.11712,-0.07808,-0.06832,-0.06832,-0.07808
-0.10736,0.09272,-0.07808,-0.0244,0.02928,-0.06832,-0.02928,-0.11712,-0.07808,-0.06832,-0.06344,-0.07808
-0.10736,0.09272,-0.07808,-0.0244,0.02928,-0.06832,-0.02928,-0.11712,-0.07808,-0.06832,-0.05856,-0.07808
-0.11224,0.0976,-0.08296,-0.02684,0.02928,-0.07076,-0.02928,-0.11712,-0.07808,-0.06832,-0.05856,-0.07808
-0.11224,0.10004,-0.08784,-0.03172,0.0244,-0.06832,-0.02928,-0.11712,-0.07808,-0.06832,-0.05856,-0.07808
-0.11712,0.10492,-0.09272,-0.03416,0.0244,-0.07076,-0.03416,-0.11712,-0.07808,-0.06832,-0.05856,-0.07808
-0.11224,0.10492,-0.0976,-0.04148,0.01464,-0.06344,-0.03904,-0.11712,-0.07808,-0.06832,-0.05856,-0.07808
-0.11224,0.10492,-0.0976,-0.04148,0.01464,-0.06344,-0.03416,-0.122,-0.07808,-0.06832,-0.05856,-0.07808
-0.11224,0.10736,-0.10248,-0.04636,0.00976,-0.061,-0.03416,-0.122,-0.07808,-0.06832,-0.05856,-0.07808
-0.11224,0.10736,-0.10248,-0.04636,0.00976,-0.061,-0.03416,-0.122,-0.07808,-0.06832,-0.06344,-0.08296
-0.11224,0.10736,-0.10248,-0.04636,0.00976,-0.061,-0.03416,-0.122,-0.07808,-0.06832,-0.06344,-0.08296
-0.11224,0.10736,-0.10248,-0.04636,0.00976,-0.061,-0.03416,-0.12688,-0.07808,-0.06832,-0.06344,-0.08296
-0.11224,0.10736,-0.10248,-0.04636,0.00976,-0.061,-0.03416,-0.13176,-0.07808,-0.06832,-0.05856,-0.08296
-0.10736,0.10492,-0.10248,-0.0488,0.00488,-0.05612,-0.03416,-0.13176,-0.07808,-0.06832,-0.05856,-0.07808
-0.10736,0.0976,-0.08784,-0.03416,0.01952,-0.06344,-0.0244,-0.12688,-0.06344,-0.06344,-0.0488,-0.06832
-0.10736,0.07564,-0.04392,0.00976,0.06344,-0.0854,-0.01464,-0.11712,-0.0488,-0.0488,-0.03904,-0.05856
-0.10248,0.0488,0.00488,0.05612,0.10736,-0.10492,-0.00488,-0.10736,-0.02928,-0.03904,-0.0244,-0.04392
-0.09272,0.03172,0.02928,0.07564,0.122,-0.10736,0.00488,-0.0976,-0.00488,-0.00976,0,-0.0244
-0.08784,0.0244,0.03904,0.08296,0.12688,-0.10736,0.01464,-0.07808,0.00976,0.00488,0.00976,-0.01464
-0.08296,0.0244,0.03416,0.07564,0.11712,-0.10004,0.01952,-0.0732,0.01464,0.00976,0.00976,-0.01464
-0.07808,0.02196,0.03416,0.0732,0.11224,-0.09516,0.01464,-0.06344,0.01464,0.00976,0.01464,-0.01464
-0.06344,0.01464,0.03416,0.06588,0.0976,-0.08052,0.00976,-0.05856,0.01952,0.00976,0.01464,-0.01464
-0.05368,0.00976,0.03416,0.061,0.08784,-0.07076,0.00488,-0.05368,0.01952,0.00976,0.01464,-0.00976
-0.04392,0.00488,0.03416,0.05612,0.07808,-0.061,-0.02928,-0.0488,0.01952,0.01464,0.01952,0
-0.02928,0,0.02928,0.04392,0.05856,-0.04392,-0.03904,-0.05368,0.01464,0.01464,0.01952,0
-0.02928,0.00976,0.00976,0.0244,0.03904,-0.03416,-0.0488,-0.0732,0,0.00488,0.01952,-0.00488
-0.03904,0.02196,-0.00488,0.01464,0.03416,-0.0366,-0.06344,-0.10248,-0.0244,0,0.00976,-0.01464
-0.0488,0.04636,-0.04392,-0.01952,0.00488,-0.02684,-0.06832,-0.122,-0.03904,-0.0244,-0.01464,-0.02928
-0.05856,0.05856,-0.05856,-0.02928,0,-0.02928,-0.06832,-0.122,-0.0488,-0.03416,-0.01952,-0.03904
-0.06832,0.06344,-0.05856,-0.0244,0.00976,-0.03904,-0.05368,-0.11712,-0.0488,-0.03416,-0.02928,-0.04392
-0.07808,0.08052,-0.08296,-0.04392,-0.00488,-0.0366,-0.0488,-0.11712,-0.05368,-0.04392,-0.04392,-0.05368
-0.09272,0.10004,-0.10736,-0.061,-0.01464,-0.03904,-0.04392,-0.122,-0.05856,-0.0488,-0.05368,-0.06344
-0.10248,0.11224,-0.122,-0.07076,-0.01952,-0.04148,-0.03904,-0.12688,-0.06344,-0.05856,-0.06344,-0.0732
-0.122,0.1342,-0.1464,-0.0854,-0.0244,-0.0488,-0.03904,-0.1464,-0.08784,-0.07808,-0.0732,-0.09272
-0.122,0.13908,-0.15616,-0.09516,-0.03416,-0.04392,-0.03904,-0.15616,-0.09272,-0.08784,-0.08296,-0.09272
-0.122,0.1464,-0.1708,-0.1098,-0.0488,-0.0366,-0.03904,-0.15616,-0.10248,-0.0976,-0.08784,-0.10248
-0.12688,0.15616,-0.18544,-0.122,-0.05856,-0.03416,-0.03904,-0.16104,-0.11224,-0.10736,-0.0976,-0.10736
-0.12688,0.1586,-0.19032,-0.12688,-0.06344,-0.03172,-0.04392,-0.16104,-0.11712,-0.10736,-0.0976,-0.10736
-0.12688,0.1586,-0.19032,-0.12688,-0.06344,-0.03172,-0.04392,-0.16104,-0.11712,-0.10736,-0.0976,-0.10736
-0.13176,0.16104,-0.19032,-0.12444,-0.05856,-0.0366,-0.0488,-0.16592,-0.11224,-0.11224,-0.10248,-0.11712
-0.13176,0.16104,-0.19032,-0.12444,-0.05856,-0.0366,-0.05368,-0.1708,-0.10736,-0.11224,-0.10248,-0.122
-0.14152,0.16836,-0.1952,-0.12444,-0.05368,-0.04392,-0.0488,-0.16592,-0.10736,-0.11224,-0.10736,-0.122
-0.13176,0.16348,-0.1952,-0.12932,-0.06344,-0.03416,-0.0488,-0.16592,-0.10736,-0.11224,-0.11224,-0.122
-0.12688,0.1708,-0.21472,-0.15128,-0.08784,-0.01952,-0.03416,-0.13664,-0.10736,-0.122,-0.11224,-0.13176
-0.13176,0.19276,-0.25376,-0.18788,-0.122,-0.00488,0.0244,-0.07808,-0.11224,-0.14152,-0.13664,-0.1464
-0.12688,0.21228,-0.29768,-0.23424,-0.1708,0.02196,0.11224,0.0244,-0.08784,-0.15128,-0.16104,-0.19032
-0.122,0.19764,-0.27328,-0.21228,-0.15128,0.01464,0.16104,0.16592,-0.00976,-0.10248,-0.1464,-0.1952
-0.09272,0.15128,-0.20984,-0.16348,-0.11712,0.0122,0.20984,0.32696,0.10736,-0.01952,-0.08784,-0.15128
-0.04392,0.06588,-0.08784,-0.06588,-0.04392,0,0.26352,0.47824,0.27816,0.13664,0.03904,-0.05368
0,-0.04148,0.08296,0.08296,0.08296,-0.04148,0.20496,0.44408,0.40016,0.27816,0.17568,0.05856
-0.00976,-0.1464,0.30256,0.30744,0.31232,-0.16104,-0.0976,0.00976,0.37576,0.34648,0.3172,0.23424
-0.04392,-0.0976,0.23912,0.26108,0.28304,-0.16348,-0.52216,-0.69784,0.00488,0.13664,0.20984,0.22448
-0.13176,0.12932,-0.12688,-0.061,0.00488,-0.06832,-0.9028,-1.73728,-0.7076,-0.35624,-0.13176,0.00488
-0.20496,0.26596,-0.32696,-0.22448,-0.122,-0.04148,-1.15168,-2.37168,-1.08336,-0.6344,-0.33672,-0.13176
-0.122,0.2928,-0.4636,-0.4026,-0.3416,0.1098,-1.10776,-1.88856,-1.06872,-0.69784,-0.42944,-0.24888
-0.08784,0.27328,-0.45872,-0.4148,-0.37088,0.14152,-0.85888,-1.38104,-0.87352,-0.60024,-0.3904,-0.23912
-0.0732,0.18056,-0.28792,-0.25132,-0.21472,0.07076,-0.60024,-0.9272,-0.5612,-0.37576,-0.23424,-0.12688
-0.05856,0.11224,-0.16592,-0.13664,-0.10736,0.0244,-0.40992,-0.61,-0.33672,-0.20984,-0.122,-0.05368
-0.0732,0.10492,-0.13664,-0.10004,-0.06344,-0.00488,-0.25376,-0.39528,-0.23424,-0.16104,-0.10248,-0.04392
-0.09272,0.11468,-0.13664,-0.09028,-0.04392,-0.0244,-0.1464,-0.23424,-0.16592,-0.12688,-0.08784,-0.0488
-0.09272,0.10736,-0.122,-0.07564,-0.02928,-0.03172,-0.10248,-0.1464,-0.0976,-0.06832,-0.05856,-0.05368
-0.09272,0.10248,-0.11224,-0.06588,-0.01952,-0.0366,-0.05368,-0.07808,-0.03904,-0.03416,-0.03416,-0.05368
-0.09272,0.1098,-0.12688,-0.08052,-0.03416,-0.02928,-0.01464,-0.03416,-0.04392,-0.04392,-0.03416,-0.05368
-0.0976,0.11224,-0.12688,-0.07808,-0.02928,-0.03416,-0.00488,-0.01952,-0.04392,-0.04392,-0.03904,-0.05368
-0.0976,0.11224,-0.12688,-0.07808,-0.02928,-0.03416,0.00488,-0.01952,-0.02928,-0.04392,-0.04392,-0.06344
-0.09272,0.1098,-0.12688,-0.08052,-0.03416,-0.02928,0.01464,-0.00976,-0.0244,-0.04392,-0.04392,-0.06832
-0.10248,0.11956,-0.13664,-0.0854,-0.03416,-0.03416,0.02928,0,-0.01952,-0.04392,-0.03904,-0.06832
-0.10248,0.11956,-0.13664,-0.0854,-0.03416,-0.03416,0.03416,0.00976,-0.01952,-0.03904,-0.03904,-0.06344
-0.10248,0.11956,-0.13664,-0.0854,-0.03416,-0.03416,0.02928,0.01952,-0.01952,-0.03904,-0.03904,-0.06344
-0.10248,0.122,-0.14152,-0.09028,-0.03904,-0.03172,0.03416,0.02928,-0.01464,-0.03904,-0.03904,-0.05856
-0.09272,0.11712,-0.14152,-0.09516,-0.0488,-0.02196,0.03904,0.03904,-0.00976,-0.03416,-0.03416,-0.05368
-0.08784,0.11224,-0.13664,-0.09272,-0.0488,-0.01952,0.03904,0.0488,0.00488,-0.03416,-0.03416,-0.05368
-0.08784,0.1098,-0.13176,-0.08784,-0.04392,-0.02196,0.03904,0.05368,0.00976,-0.0244,-0.02928,-0.05368
-0.08296,0.10492,-0.12688,-0.0854,-0.04392,-0.01952,0.03904,0.06344,0.01464,-0.01952,-0.0244,-0.0488
-0.07808,0.10248,-0.12688,-0.08784,-0.0488,-0.01464,0.04392,0.0732,0.0244,-0.01464,-0.0244,-0.0488
-0.07808,0.10004,-0.122,-0.08296,-0.04392,-0.01708,0.04392,0.08296,0.02928,-0.00976,-0.01952,-0.05368
-0.06832,0.09028,-0.11224,-0.07808,-0.04392,-0.0122,0.04392,0.0976,0.03416,-0.00976,-0.01952,-0.05368
-0.06344,0.08052,-0.0976,-0.06588,-0.03416,-0.01464,0.0488,0.10736,0.03416,0,-0.01464,-0.05368
-0.05368,0.07076,-0.08784,-0.061,-0.03416,-0.00976,0.0488,0.11712,0.03904,0.00488,-0.01464,-0.0488
-0.0488,0.06344,-0.07808,-0.05368,-0.02928,-0.00976,0.05856,0.13176,0.0488,0.00976,-0.00976,-0.03904
-0.04392,0.05856,-0.0732,-0.05124,-0.02928,-0.00732,0.06344,0.14152,0.05368,0.00976,-0.00976,-0.03416
-0.04392,0.05612,-0.06832,-0.04636,-0.0244,-0.00976,0.06344,0.15128,0.06344,0.01464,0,-0.02928
-0.04392,0.05368,-0.06344,-0.04148,-0.01952,-0.0122,0.06344,0.16104,0.0732,0.01952,0.00488,-0.0244
-0.03416,0.04392,-0.05368,-0.0366,-0.01952,-0.00732,0.06832,0.1708,0.07808,0.0244,0.00976,-0.01952
-0.03416,0.03904,-0.04392,-0.02684,-0.00976,-0.0122,0.06344,0.17568,0.08784,0.02928,0.01464,-0.01464
-0.0244,0.02928,-0.03416,-0.02196,-0.00976,-0.00732,0.06344,0.18544,0.08784,0.03904,0.01952,-0.00976
-0.01952,0.02196,-0.0244,-0.01464,-0.00488,-0.00732,0.06344,0.20008,0.09272,0.0488,0.02928,-0.00488
-0.01464,0.01952,-0.0244,-0.01708,-0.00976,-0.00244,0.06344,0.20984,0.10736,0.05368,0.03416,0
-0.00976,0.0122,-0.01464,-0.00976,-0.00488,-0.00244,0.06344,0.22448,0.11224,0.05856,0.03904,0.00488
-0.00976,0.00976,-0.00976,-0.00488,0,-0.00488,0.06832,0.23424,0.11712,0.06832,0.04392,0.00976
-0.00976,0.00976,-0.00976,-0.00488,0,-0.00488,0.06832,0.244,0.122,0.06832,0.05368,0.01952
-0.00976,0.00488,0,0.00488,0.00976,-0.00976,0.05856,0.25376,0.122,0.0732,0.05856,0.0244
-0.00976,0.00244,0.00488,0.00976,0.01464,-0.0122,0.05368,0.25864,0.13176,0.07808,0.06344,0.02928
-0.00976,-0.00488,0.01952,0.0244,0.02928,-0.01952,0.05368,0.2684,0.13176,0.08784,0.0732,0.02928
-0.00976,-0.00976,0.02928,0.03416,0.03904,-0.0244,0.0488,0.27816,0.14152,0.09272,0.07808,0.02928
0,-0.01708,0.03416,0.03416,0.03416,-0.01708,0.0488,0.28304,0.14152,0.09272,0.07808,0.03904
0.00488,-0.02684,0.0488,0.04636,0.04392,-0.01952,0.0488,0.2928,0.14152,0.09272,0.08296,0.04392
0.00976,-0.02928,0.0488,0.04392,0.03904,-0.01464,0.04392,0.2928,0.15128,0.10248,0.08784,0.0488
0.01952,-0.0366,0.05368,0.04392,0.03416,-0.00732,0.03904,0.30256,0.15616,0.10736,0.09272,0.05368
0.01952,-0.04636,0.0732,0.06344,0.05368,-0.01708,0.03416,0.30744,0.16104,0.11224,0.0976,0.05856
0.01952,-0.05124,0.08296,0.0732,0.06344,-0.02196,0.03416,0.31232,0.16592,0.11712,0.10736,0.06344
0.02928,-0.061,0.09272,0.07808,0.06344,-0.01708,0.0244,0.31232,0.16592,0.12688,0.11224,0.0732
0.03416,-0.06832,0.10248,0.0854,0.06832,-0.01708,0.01952,0.31232,0.16592,0.13176,0.11712,0.07808
0.04392,-0.08296,0.122,0.10004,0.07808,-0.01708,0.00976,0.30744,0.16592,0.13176,0.122,0.08296
0.0488,-0.09516,0.14152,0.11712,0.09272,-0.02196,0,0.29768,0.16592,0.13176,0.12688,0.08784
0.05856,-0.10004,0.14152,0.11224,0.08296,-0.0122,-0.00976,0.28792,0.16104,0.13176,0.12688,0.0976
0.06344,-0.10492,0.1464,0.11468,0.08296,-0.00976,-0.01952,0.27816,0.15616,0.13176,0.13176,0.0976
0.06832,-0.1098,0.15128,0.11712,0.08296,-0.00732,-0.0244,0.27328,0.15128,0.13176,0.13176,0.0976
0.0732,-0.11468,0.15616,0.11956,0.08296,-0.00488,-0.03904,0.25864,0.14152,0.12688,0.13176,0.10248
0.0732,-0.11956,0.16592,0.12932,0.09272,-0.00976,-0.04392,0.25376,0.14152,0.13176,0.13664,0.0976
0.0732,-0.11956,0.16592,0.12932,0.09272,-0.00976,-0.05368,0.244,0.14152,0.13176,0.14152,0.10248
0.06832,-0.11468,0.16104,0.12688,0.09272,-0.0122,-0.06344,0.22448,0.13176,0.13176,0.14152,0.10736
0.06832,-0.11712,0.16592,0.13176,0.0976,-0.01464,-0.0732,0.20496,0.12688,0.13176,0.1464,0.11224
0.06832,-0.11468,0.16104,0.12688,0.09272,-0.0122,-0.09272,0.19032,0.12688,0.13176,0.1464,0.11712
0.06832,-0.11224,0.15616,0.122,0.08784,-0.00976,-0.0976,0.1708,0.11712,0.13176,0.1464,0.122
0.06344,-0.1098,0.15616,0.12444,0.09272,-0.01464,-0.10736,0.1464,0.11712,0.11712,0.1464,0.122
0.05368,-0.10004,0.1464,0.11956,0.09272,-0.01952,-0.11712,0.122,0.10736,0.11224,0.13664,0.11712
0.04392,-0.08784,0.13176,0.1098,0.08784,-0.02196,-0.11712,0.10248,0.08784,0.10248,0.12688,0.10736
0.02928,-0.06588,0.10248,0.08784,0.0732,-0.02196,-0.122,0.0732,0.07808,0.08296,0.10248,0.08296
0.01952,-0.05612,0.09272,0.08296,0.0732,-0.02684,-0.122,0.05368,0.05856,0.06344,0.08296,0.05856
0.00488,-0.04148,0.07808,0.07564,0.0732,-0.03416,-0.11712,0.02928,0.04392,0.04392,0.05368,0.03904
-0.01464,-0.01464,0.04392,0.05124,0.05856,-0.0366,-0.11712,0.00488,0.02928,0.02928,0.03416,0.01464
-0.03416,0.0122,0.00976,0.02684,0.04392,-0.03904,-0.10736,-0.00976,0.01464,0.00488,0.01464,0
-0.0488,0.03904,-0.02928,-0.00488,0.01952,-0.03416,-0.0976,-0.02928,0,-0.01464,0,-0.00976
-0.06344,0.06344,-0.06344,-0.03172,0,-0.03172,-0.08784,-0.0488,-0.01952,-0.03416,-0.01464,-0.02928
-0.07808,0.07808,-0.07808,-0.03904,0,-0.03904,-0.08296,-0.06832,-0.03416,-0.03904,-0.02928,-0.03416
-0.08296,0.09516,-0.10736,-0.06588,-0.0244,-0.02928,-0.07808,-0.07808,-0.03416,-0.0488,-0.03904,-0.04392
-0.08784,0.10248,-0.11712,-0.0732,-0.02928,-0.02928,-0.0732,-0.08784,-0.04392,-0.05856,-0.05368,-0.05856
-0.09272,0.10492,-0.11712,-0.07076,-0.0244,-0.03416,-0.0732,-0.10248,-0.05368,-0.05856,-0.05856,-0.06344
-0.08784,0.10248,-0.11712,-0.0732,-0.02928,-0.02928,-0.0732,-0.10736,-0.06344,-0.06832,-0.06832,-0.06832
-0.08784,0.10248,-0.11712,-0.0732,-0.02928,-0.02928,-0.06832,-0.11712,-0.06344,-0.06832,-0.06832,-0.0732
-0.08784,0.10248,-0.11712,-0.0732,-0.02928,-0.02928,-0.06344,-0.122,-0.0732,-0.0732,-0.0732,-0.07808
-0.08784,0.10248,-0.11712,-0.0732,-0.02928,-0.02928,-0.06344,-0.122,-0.0732,-0.08296,-0.08296,-0.08784
-0.08784,0.10492,-0.122,-0.07808,-0.03416,-0.02684,-0.06832,-0.12688,-0.07808,-0.08296,-0.08296,-0.08784
-0.08784,0.10736,-0.12688,-0.08296,-0.03904,-0.0244,-0.06832,-0.12688,-0.07808,-0.08296,-0.08296,-0.08784
-0.08296,0.10492,-0.12688,-0.0854,-0.04392,-0.01952,-0.06832,-0.13176,-0.07808,-0.08296,-0.08296,-0.08296
-0.07808,0.10248,-0.12688,-0.08784,-0.0488,-0.01464,-0.06344,-0.13176,-0.07808,-0.08296,-0.08296,-0.07808
-0.07808,0.10248,-0.12688,-0.08784,-0.0488,-0.01464,-0.06344,-0.13176,-0.07808,-0.08296,-0.08296,-0.08296
-0.07808,0.10248,-0.12688,-0.08784,-0.0488,-0.01464,-0.06344,-0.13176,-0.07808,-0.08296,-0.07808,-0.08296
-0.07808,0.10004,-0.122,-0.08296,-0.04392,-0.01708,-0.06344,-0.13176,-0.0732,-0.07808,-0.07808,-0.08296
-0.07808,0.0976,-0.11712,-0.07808,-0.03904,-0.01952,-0.06344,-0.13176,-0.0732,-0.07808,-0.07808,-0.08296
-0.08296,0.10004,-0.11712,-0.07564,-0.03416,-0.0244,-0.06344,-0.13176,-0.0732,-0.07808,-0.07808,-0.07808
-0.08296,0.10248,-0.122,-0.08052,-0.03904,-0.02196,-0.06344,-0.12688,-0.0732,-0.08296,-0.07808,-0.07808
-0.08296,0.10248,-0.122,-0.08052,-0.03904,-0.02196,-0.06832,-0.13176,-0.0732,-0.08296,-0.07808,-0.07808
-0.09272,0.10736,-0.122,-0.07564,-0.02928,-0.03172,-0.06832,-0.13176,-0.0732,-0.08296,-0.07808,-0.07808
-0.09272,0.10492,-0.11712,-0.07076,-0.0244,-0.03416,-0.06832,-0.13176,-0.0732,-0.07808,-0.07808,-0.08296
-0.09272,0.10492,-0.11712,-0.07076,-0.0244,-0.03416,-0.0732,-0.13176,-0.07808,-0.07808,-0.0732,-0.08784
-0.09272,0.10492,-0.11712,-0.07076,-0.0244,-0.03416,-0.0732,-0.13664,-0.08296,-0.07808,-0.0732,-0.08784
-0.09272,0.10248,-0.11224,-0.06588,-0.01952,-0.0366,-0.0732,-0.13664,-0.08784,-0.07808,-0.0732,-0.08296
-0.0976,0.10492,-0.11224,-0.06344,-0.01464,-0.04148,-0.07808,-0.1464,-0.08784,-0.08296,-0.07808,-0.08296
-0.0976,0.10492,-0.11224,-0.06344,-0.01464,-0.04148,-0.07808,-0.15128,-0.08784,-0.08784,-0.08296,-0.08296
-0.09272,0.10492,-0.11712,-0.07076,-0.0244,-0.03416,-0.07808,-0.15616,-0.09272,-0.09272,-0.08784,-0.08784
-0.09272,0.10736,-0.122,-0.07564,-0.02928,-0.03172,-0.08296,-0.15616,-0.09272,-0.0976,-0.09272,-0.09272
-0.09272,0.1098,-0.12688,-0.08052,-0.03416,-0.02928,-0.08296,-0.16104,-0.09272,-0.0976,-0.09272,-0.09272
-0.0976,0.11468,-0.13176,-0.08296,-0.03416,-0.03172,-0.08296,-0.16104,-0.09272,-0.0976,-0.09272,-0.09272
-0.10248,0.11712,-0.13176,-0.08052,-0.02928,-0.0366,-0.07808,-0.16104,-0.0976,-0.0976,-0.08784,-0.09272
-0.10248,0.11712,-0.13176,-0.08052,-0.02928,-0.0366,-0.07808,-0.16104,-0.0976,-0.0976,-0.08784,-0.09272
-0.10248,0.11712,-0.13176,-0.08052,-0.02928,-0.0366,-0.07808,-0.16104,-0.09272,-0.0976,-0.08784,-0.09272
-0.0976,0.11712,-0.13664,-0.08784,-0.03904,-0.02928,-0.07808,-0.16592,-0.09272,-0.0976,-0.08784,-0.09272
-0.0976,0.11712,-0.13664,-0.08784,-0.03904,-0.02928,-0.07808,-0.16592,-0.09272,-0.10248,-0.09272,-0.09272
-0.0976,0.11712,-0.13664,-0.08784,-0.03904,-0.02928,-0.07808,-0.16592,-0.0976,-0.10736,-0.0976,-0.0976
-0.09272,0.11956,-0.1464,-0.10004,-0.05368,-0.01952,-0.07808,-0.16592,-0.0976,-0.10736,-0.0976,-0.09272
-0.08784,0.122,-0.15616,-0.11224,-0.06832,-0.00976,-0.07808,-0.16592,-0.0976,-0.10736,-0.0976,-0.08784
-0.08784,0.122,-0.15616,-0.11224,-0.06832,-0.00976,-0.07808,-0.16592,-0.0976,-0.10736,-0.0976,-0.08784
-0.08784,0.11956,-0.15128,-0.10736,-0.06344,-0.0122,-0.07808,-0.16592,-0.0976,-0.10736,-0.0976,-0.08784
-0.08784,0.11712,-0.1464,-0.10248,-0.05856,-0.01464,-0.07808,-0.1708,-0.0976,-0.11224,-0.10248,-0.09272
-0.08296,0.1098,-0.13664,-0.09516,-0.05368,-0.01464,-0.07808,-0.17568,-0.0976,-0.11712,-0.10736,-0.0976
-0.08296,0.10492,-0.12688,-0.0854,-0.04392,-0.01952,-0.07808,-0.18056,-0.10248,-0.11712,-0.10736,-0.10248
-0.08296,0.10248,-0.122,-0.08052,-0.03904,-0.02196,-0.08296,-0.18056,-0.10736,-0.11712,-0.10736,-0.10736
-0.08296,0.10248,-0.122,-0.08052,-0.03904,-0.02196,-0.08296,-0.18056,-0.10736,-0.11712,-0.11224,-0.11224
-0.08296,0.10248,-0.122,-0.08052,-0.03904,-0.02196,-0.08296,-0.18056,-0.10736,-0.11712,-0.11224,-0.11224
-0.08296,0.10736,-0.13176,-0.09028,-0.0488,-0.01708,-0.08296,-0.18056,-0.10736,-0.11224,-0.11224,-0.10736
-0.08296,0.11224,-0.14152,-0.10004,-0.05856,-0.0122,-0.08296,-0.18056,-0.10736,-0.10736,-0.10736,-0.10248
-0.07808,0.11224,-0.1464,-0.10736,-0.06832,-0.00488,-0.08296,-0.18056,-0.10736,-0.10736,-0.10736,-0.0976
-0.07808,0.10736,-0.13664,-0.0976,-0.05856,-0.00976,-0.0732,-0.17568,-0.09272,-0.10248,-0.0976,-0.08784
-0.07808,0.09272,-0.10736,-0.06832,-0.02928,-0.0244,-0.05856,-0.16592,-0.08296,-0.08784,-0.08784,-0.07808
-0.0732,0.0732,-0.0732,-0.0366,0,-0.0366,-0.04392,-0.15616,-0.06832,-0.07808,-0.0732,-0.06344
-0.06832,0.05368,-0.03904,-0.00488,0.02928,-0.0488,-0.03416,-0.1464,-0.04392,-0.0488,-0.0488,-0.04392
-0.06832,0.04392,-0.01952,0.01464,0.0488,-0.05856,-0.0244,-0.12688,-0.02928,-0.03416,-0.03904,-0.03416
-0.06344,0.04148,-0.01952,0.0122,0.04392,-0.05368,-0.00976,-0.11712,-0.01952,-0.0244,-0.03416,-0.02928
-0.05856,0.0366,-0.01464,0.01464,0.04392,-0.05124,-0.00488,-0.10248,-0.01464,-0.01952,-0.0244,-0.0244
-0.03904,0.02684,-0.01464,0.00488,0.0244,-0.03172,-0.00976,-0.09272,-0.00488,-0.01952,-0.01952,-0.0244
-0.0244,0.01952,-0.01464,-0.00244,0.00976,-0.01708,-0.01464,-0.08296,0,-0.01952,-0.01464,-0.01952
-0.00976,0.00732,-0.00488,0,0.00488,-0.00732,-0.0488,-0.06832,0.00488,-0.00976,-0.00976,-0.00976
0.00976,-0.00488,0,-0.00488,-0.00976,0.00976,-0.05856,-0.06344,0.00488,-0.00488,-0.00976,-0.00976
0.00976,0.00244,-0.01464,-0.01952,-0.0244,0.01708,-0.05856,-0.07808,-0.00488,-0.00976,-0.00488,-0.00976
0,0.0122,-0.0244,-0.0244,-0.0244,0.0122,-0.06344,-0.10248,-0.0244,-0.00976,-0.00976,-0.01464
-0.00976,0.04392,-0.07808,-0.0732,-0.06832,0.02928,-0.06832,-0.122,-0.03904,-0.03416,-0.03416,-0.02928
-0.01952,0.06344,-0.10736,-0.0976,-0.08784,0.03416,-0.06832,-0.122,-0.0488,-0.04392,-0.03904,-0.03904
-0.02928,0.061,-0.09272,-0.07808,-0.06344,0.01708,-0.05368,-0.11712,-0.0488,-0.04392,-0.04392,-0.04392
-0.03904,0.07076,-0.10248,-0.08296,-0.06344,0.0122,-0.0488,-0.11712,-0.05368,-0.05368,-0.05368,-0.05368
-0.05368,0.0854,-0.11712,-0.09028,-0.06344,0.00488,-0.03904,-0.122,-0.05856,-0.05856,-0.05856,-0.06344
-0.06344,0.09272,-0.122,-0.09028,-0.05856,-0.00244,-0.02928,-0.12688,-0.06344,-0.06832,-0.06344,-0.0732
-0.08296,0.11468,-0.1464,-0.10492,-0.06344,-0.00976,-0.02928,-0.1464,-0.08784,-0.08784,-0.07808,-0.08784
-0.08296,0.11956,-0.15616,-0.11468,-0.0732,-0.00488,-0.02928,-0.15616,-0.09272,-0.0976,-0.09272,-0.08296
-0.08296,0.13176,-0.18056,-0.13908,-0.0976,0.00732,-0.02928,-0.16104,-0.10248,-0.10736,-0.0976,-0.0976
-0.08784,0.1464,-0.20496,-0.16104,-0.11712,0.01464,-0.02928,-0.1708,-0.11224,-0.11712,-0.10736,-0.10736
-0.08784,0.14884,-0.20984,-0.16592,-0.122,0.01708,-0.02928,-0.1708,-0.11712,-0.11712,-0.10736,-0.10248
-0.08784,0.14884,-0.20984,-0.16592,-0.122,0.01708,-0.0244,-0.1708,-0.11712,-0.11712,-0.10736,-0.0976
-0.09272,0.15128,-0.20984,-0.16348,-0.11712,0.0122,-0.0244,-0.1708,-0.122,-0.11712,-0.10736,-0.10248
-0.09272,0.15128,-0.20984,-0.16348,-0.11712,0.0122,-0.0244,-0.1708,-0.12688,-0.11224,-0.10248,-0.10248
-0.10248,0.1586,-0.21472,-0.16348,-0.11224,0.00488,-0.01952,-0.16592,-0.12688,-0.11224,-0.10248,-0.10248
-0.09272,0.15372,-0.21472,-0.16836,-0.122,0.01464,-0.01952,-0.16592,-0.12688,-0.11224,-0.10248,-0.10248
-0.09272,0.15128,-0.20984,-0.16348,-0.11712,0.0122,-0.0244,-0.16592,-0.12688,-0.11224,-0.09272,-0.10248
-0.10248,0.16348,-0.22448,-0.17324,-0.122,0.00976,0.01464,-0.13664,-0.13176,-0.122,-0.10736,-0.10736
-0.10248,0.20252,-0.30256,-0.25132,-0.20008,0.0488,0.10248,-0.0488,-0.14152,-0.16592,-0.15616,-0.15616
-0.10248,0.2074,-0.31232,-0.26108,-0.20984,0.05368,0.15128,0.07808,-0.0976,-0.15128,-0.16592,-0.16592
-0.09272,0.19764,-0.30256,-0.2562,-0.20984,0.05856,0.20496,0.23912,0.00976,-0.0976,-0.15128,-0.17568
-0.06344,0.14884,-0.23424,-0.20252,-0.1708,0.05368,0.26352,0.3904,0.1708,0.02928,-0.06832,-0.13176
0,-0.0122,0.0244,0.0244,0.0244,-0.0122,0.38552,0.64904,0.49288,0.32208,0.1708,0.03904
0.00976,-0.1708,0.33184,0.32696,0.32208,-0.15616,0.26352,0.50752,0.66856,0.54168,0.4148,0.27328
-0.00488,-0.16592,0.33672,0.33916,0.3416,-0.17324,-0.1464,-0.15128,0.3416,0.366,0.35136,0.30744
-0.0732,0.01708,0.03904,0.07564,0.11224,-0.09272,-0.5124,-1.14192,-0.32696,-0.09272,0.05368,0.13176
-0.20496,0.23424,-0.26352,-0.16104,-0.05856,-0.0732,-0.96136,-2.22528,-0.98088,-0.5368,-0.24888,-0.04392
-0.18056,0.3416,-0.50264,-0.41236,-0.32208,0.07076,-1.11752,-2.19112,-1.2444,-0.76616,-0.4392,-0.20008
-0.11712,0.34648,-0.57584,-0.51728,-0.45872,0.1708,-0.94672,-1.69336,-1.09312,-0.732,-0.46848,-0.26352
-0.0732,0.27816,-0.48312,-0.44652,-0.40992,0.16836,-0.76616,-1.24928,-0.82472,-0.57096,-0.38064,-0.22448
-0.03904,0.1586,-0.27816,-0.25864,-0.23912,0.10004,-0.5124,-0.8296,-0.52216,-0.33184,-0.20496,-0.10736
-0.03416,0.10004,-0.16592,-0.14884,-0.13176,0.0488,-0.2928,-0.5124,-0.3416,-0.20984,-0.122,-0.05368
-0.05368,0.10736,-0.16104,-0.1342,-0.10736,0.02684,-0.18056,-0.33184,-0.244,-0.1708,-0.10736,-0.0488
-0.05368,0.0976,-0.14152,-0.11468,-0.08784,0.01708,-0.13176,-0.22448,-0.1464,-0.10736,-0.07808,-0.04392
-0.0488,0.0854,-0.122,-0.0976,-0.0732,0.0122,-0.05368,-0.12688,-0.07808,-0.06344,-0.04392,-0.03904
-0.04392,0.0854,-0.12688,-0.10492,-0.08296,0.01952,0.01464,-0.05368,-0.0732,-0.06344,-0.03416,-0.03416
-0.04392,0.0854,-0.12688,-0.10492,-0.08296,0.01952,0.01464,-0.03904,-0.06832,-0.05856,-0.03904,-0.03416
-0.03904,0.08296,-0.12688,-0.10736,-0.08784,0.0244,0.01464,-0.03904,-0.0488,-0.05368,-0.04392,-0.04392
-0.02928,0.07808,-0.12688,-0.11224,-0.0976,0.03416,0.0244,-0.0244,-0.04392,-0.0488,-0.04392,-0.0488
-0.03416,0.0854,-0.13664,-0.11956,-0.10248,0.03416,0.03904,-0.00976,-0.03904,-0.04392,-0.03904,-0.0488
-0.03416,0.0854,-0.13664,-0.11956,-0.10248,0.03416,0.0488,0,-0.03416,-0.03904,-0.03904,-0.04392
-0.03416,0.0854,-0.13664,-0.11956,-0.10248,0.03416,0.0488,0.00976,-0.02928,-0.03904,-0.03904,-0.04392
-0.03904,0.09028,-0.14152,-0.122,-0.10248,0.03172,0.05368,0.01952,-0.0244,-0.04392,-0.03904,-0.04392
-0.03416,0.08784,-0.14152,-0.12444,-0.10736,0.0366,0.05856,0.02928,-0.01952,-0.04392,-0.03416,-0.04392
-0.02928,0.08296,-0.13664,-0.122,-0.10736,0.03904,0.05856,0.03904,-0.00976,-0.04392,-0.03416,-0.04392
-0.02928,0.08052,-0.13176,-0.11712,-0.10248,0.0366,0.05856,0.04392,-0.00976,-0.03416,-0.02928,-0.04392
-0.02928,0.07808,-0.12688,-0.11224,-0.0976,0.03416,0.05856,0.05368,-0.00488,-0.02928,-0.0244,-0.03904
-0.02928,0.07808,-0.12688,-0.11224,-0.0976,0.03416,0.06344,0.06344,0.00488,-0.0244,-0.0244,-0.03904
-0.02928,0.07808,-0.12688,-0.11224,-0.0976,0.03416,0.06344,0.0732,0.00976,-0.01952,-0.01952,-0.04392
-0.01952,0.07076,-0.122,-0.11224,-0.10248,0.04148,0.06344,0.08784,0.01464,-0.01952,-0.01952,-0.04392
-0.01952,0.06344,-0.10736,-0.0976,-0.08784,0.03416,0.06832,0.0976,0.01952,-0.00976,-0.01464,-0.04392
-0.01464,0.05612,-0.0976,-0.09028,-0.08296,0.03416,0.06832,0.10736,0.02928,-0.00488,-0.01464,-0.03904
-0.00488,0.04636,-0.08784,-0.0854,-0.08296,0.03904,0.07808,0.122,0.03904,0.00976,-0.00488,-0.0244
0.00488,0.03904,-0.08296,-0.0854,-0.08784,0.04636,0.08296,0.13176,0.04392,0.01952,0,-0.01464
0.00488,0.0366,-0.07808,-0.08052,-0.08296,0.04392,0.08784,0.14152,0.0488,0.0244,0.00976,-0.00976
0.00488,0.03416,-0.0732,-0.07564,-0.07808,0.04148,0.09272,0.15128,0.05368,0.02928,0.01464,-0.00488
0.01464,0.0244,-0.06344,-0.07076,-0.07808,0.04636,0.10248,0.16592,0.05856,0.03416,0.01952,0
0.01464,0.01952,-0.05368,-0.061,-0.06832,0.04148,0.10248,0.17568,0.06832,0.03904,0.0244,0.00488
0.0244,0.00732,-0.03904,-0.05124,-0.06344,0.04392,0.10248,0.18544,0.0732,0.0488,0.02928,0.00976
0.02928,-0.00244,-0.0244,-0.03904,-0.05368,0.04148,0.10248,0.20008,0.08296,0.05856,0.03904,0.01464
0.03416,-0.00732,-0.01952,-0.0366,-0.05368,0.04392,0.0976,0.20984,0.0976,0.06832,0.04392,0.01952
0.03904,-0.01708,-0.00488,-0.0244,-0.04392,0.04148,0.09272,0.22448,0.10248,0.07808,0.0488,0.0244
0.04392,-0.0244,0.00488,-0.01708,-0.03904,0.04148,0.0976,0.23424,0.10736,0.09272,0.05368,0.02928
0.0488,-0.02928,0.00976,-0.01464,-0.03904,0.04392,0.0976,0.244,0.11224,0.0976,0.06344,0.03904
0.0488,-0.03416,0.01952,-0.00488,-0.02928,0.03904,0.09272,0.25864,0.11712,0.10248,0.0732,0.0488
0.0488,-0.0366,0.0244,0,-0.0244,0.0366,0.09272,0.2684,0.13176,0.10736,0.08296,0.05856
0.0488,-0.04392,0.03904,0.01464,-0.00976,0.02928,0.09272,0.27328,0.13176,0.11224,0.09272,0.06344
0.0488,-0.0488,0.0488,0.0244,0,0.0244,0.08784,0.27816,0.14152,0.11224,0.0976,0.06832
0.05368,-0.05368,0.05368,0.02684,0,0.02684,0.08296,0.28304,0.1464,0.11712,0.10248,0.0732
0.05368,-0.061,0.06832,0.04148,0.01464,0.01952,0.07808,0.2928,0.15128,0.122,0.11224,0.0732
0.05856,-0.06344,0.06832,0.03904,0.00976,0.0244,0.0732,0.29768,0.16104,0.13176,0.11712,0.07808
0.06832,-0.07076,0.0732,0.03904,0.00488,0.03172,0.06832,0.31232,0.16592,0.13664,0.122,0.08296
0.0732,-0.08296,0.09272,0.05612,0.01952,0.02684,0.06344,0.3172,0.1708,0.14152,0.12688,0.09272
0.07808,-0.09028,0.10248,0.06344,0.0244,0.02684,0.06344,0.32208,0.17568,0.1464,0.13664,0.10248
0.08784,-0.10004,0.11224,0.06832,0.0244,0.03172,0.05856,0.32208,0.17568,0.15128,0.14152,0.11224
0.09272,-0.10736,0.122,0.07564,0.02928,0.03172,0.05856,0.32208,0.17568,0.15128,0.1464,0.11712
0.0976,-0.11468,0.13176,0.08296,0.03416,0.03172,0.05368,0.3172,0.17568,0.15616,0.15128,0.122
0.0976,-0.11956,0.14152,0.09272,0.04392,0.02684,0.0488,0.30744,0.17568,0.16104,0.15616,0.12688
0.10736,-0.12444,0.14152,0.08784,0.03416,0.0366,0.04392,0.30256,0.18056,0.16592,0.16592,0.14152
0.11224,-0.12932,0.1464,0.09028,0.03416,0.03904,0.03904,0.29768,0.18544,0.1708,0.18056,0.1464
0.11712,-0.13908,0.16104,0.10248,0.04392,0.0366,0.02928,0.2928,0.18056,0.17568,0.18056,0.1464
0.122,-0.14884,0.17568,0.11468,0.05368,0.03416,0.00976,0.27816,0.1708,0.17568,0.18056,0.15128
0.122,-0.15616,0.19032,0.12932,0.06832,0.02684,0.00488,0.2684,0.16592,0.17568,0.18056,0.1464
0.122,-0.1586,0.1952,0.1342,0.0732,0.0244,-0.00488,0.25376,0.16104,0.1708,0.18056,0.15128
0.122,-0.1586,0.1952,0.1342,0.0732,0.0244,-0.01464,0.244,0.15128,0.1708,0.18056,0.15616
0.12688,-0.16592,0.20496,0.14152,0.07808,0.0244,-0.0244,0.23424,0.1464,0.1708,0.18544,0.16104
0.12688,-0.16592,0.20496,0.14152,0.07808,0.0244,-0.04392,0.2196,0.1464,0.1708,0.19032,0.16592
0.12688,-0.16592,0.20496,0.14152,0.07808,0.0244,-0.0488,0.20008,0.13664,0.1708,0.1952,0.1708
0.12688,-0.16592,0.20496,0.14152,0.07808,0.0244,-0.05856,0.18056,0.13664,0.16104,0.20008,0.1708
0.122,-0.1586,0.1952,0.1342,0.0732,0.0244,-0.06832,0.16104,0.12688,0.16104,0.1952,0.16592
0.11712,-0.15128,0.18544,0.12688,0.06832,0.0244,-0.06832,0.14152,0.10736,0.15616,0.19032,0.16592
0.10736,-0.1342,0.16104,0.10736,0.05368,0.02684,-0.0732,0.11224,0.0976,0.14152,0.1708,0.15128
0.0976,-0.11956,0.14152,0.09272,0.04392,0.02684,-0.0732,0.09272,0.07808,0.122,0.15128,0.13176
0.08296,-0.10004,0.11712,0.07564,0.03416,0.0244,-0.06832,0.06832,0.06344,0.10248,0.122,0.11712
0.06344,-0.07076,0.07808,0.04636,0.01464,0.0244,-0.06832,0.03904,0.0488,0.08784,0.10248,0.09272
0.04392,-0.04148,0.03904,0.01708,-0.00488,0.0244,-0.05856,0.01952,0.03416,0.06344,0.08296,0.07808
0.02928,-0.01952,0.00976,-0.00488,-0.01952,0.0244,-0.05368,0,0.01952,0.03904,0.06344,0.05856
0.01464,0,-0.01464,-0.02196,-0.02928,0.02196,-0.0488,-0.01952,0,0.01464,0.04392,0.02928
0,0.01464,-0.02928,-0.02928,-0.02928,0.01464,-0.04392,-0.03904,-0.01464,0.00488,0.0244,0.01952
-0.00488,0.03172,-0.05856,-0.05612,-0.05368,0.0244,-0.03904,-0.0488,-0.01464,-0.00976,0.00976,0.00488
-0.01464,0.04636,-0.07808,-0.07076,-0.06344,0.0244,-0.02928,-0.05856,-0.0244,-0.02928,-0.00488,-0.00976
-0.0244,0.05612,-0.08784,-0.07564,-0.06344,0.01952,-0.0244,-0.0732,-0.03416,-0.03904,-0.00976,-0.01464
-0.0244,0.061,-0.0976,-0.0854,-0.0732,0.0244,-0.0244,-0.07808,-0.0488,-0.0488,-0.01952,-0.01952
-0.02928,0.06832,-0.10736,-0.09272,-0.07808,0.0244,-0.01952,-0.08784,-0.05368,-0.0488,-0.01952,-0.0244
-0.03416,0.07076,-0.10736,-0.09028,-0.0732,0.01952,-0.01464,-0.09272,-0.06344,-0.0488,-0.0244,-0.02928
-0.03904,0.0732,-0.10736,-0.08784,-0.06832,0.01464,-0.01464,-0.09272,-0.06344,-0.05368,-0.03416,-0.03904
-0.03416,0.0732,-0.11224,-0.09516,-0.07808,0.02196,-0.01464,-0.09272,-0.06832,-0.05368,-0.03416,-0.03904
-0.02928,0.0732,-0.11712,-0.10248,-0.08784,0.02928,-0.00976,-0.08784,-0.06832,-0.05368,-0.03416,-0.03904
-0.02928,0.0732,-0.11712,-0.10248,-0.08784,0.02928,-0.01464,-0.09272,-0.06832,-0.05368,-0.03416,-0.03904
-0.02928,0.0732,-0.11712,-0.10248,-0.08784,0.02928,-0.01464,-0.09272,-0.06832,-0.05368,-0.03416,-0.03904
-0.02928,0.0732,-0.11712,-0.10248,-0.08784,0.02928,-0.01464,-0.0976,-0.06832,-0.05856,-0.03904,-0.04392
-0.02928,0.0732,-0.11712,-0.10248,-0.08784,0.02928,-0.01464,-0.10248,-0.06832,-0.06344,-0.03904,-0.04392
-0.02928,0.0732,-0.11712,-0.10248,-0.08784,0.02928,-0.01464,-0.10248,-0.06832,-0.05856,-0.03904,-0.04392
-0.02928,0.0732,-0.11712,-0.10248,-0.08784,0.02928,-0.01464,-0.10248,-0.0732,-0.05856,-0.03904,-0.04392
-0.03416,0.0732,-0.11224,-0.09516,-0.07808,0.02196,-0.01464,-0.10736,-0.0732,-0.05368,-0.03416,-0.03904
-0.03416,0.0732,-0.11224,-0.09516,-0.07808,0.02196,-0.01464,-0.10736,-0.0732,-0.05368,-0.02928,-0.03904
-0.02928,0.07076,-0.11224,-0.0976,-0.08296,0.02684,-0.01952,-0.11224,-0.06832,-0.05368,-0.03416,-0.03904
-0.03416,0.0732,-0.11224,-0.09516,-0.07808,0.02196,-0.01952,-0.11224,-0.06344,-0.05368,-0.03904,-0.03904
-0.03416,0.07076,-0.10736,-0.09028,-0.0732,0.01952,-0.01464,-0.11224,-0.06344,-0.05368,-0.03904,-0.03904
-0.03416,0.07076,-0.10736,-0.09028,-0.0732,0.01952,-0.01464,-0.11224,-0.06832,-0.05856,-0.03416,-0.03904
-0.03416,0.07076,-0.10736,-0.09028,-0.0732,0.01952,-0.01464,-0.11712,-0.06832,-0.05856,-0.03416,-0.03904
-0.03416,0.06832,-0.10248,-0.0854,-0.06832,0.01708,-0.01464,-0.11712,-0.06832,-0.05856,-0.03416,-0.03416
-0.03416,0.07076,-0.10736,-0.09028,-0.0732,0.01952,-0.01952,-0.122,-0.06832,-0.05856,-0.03416,-0.03416
-0.02928,0.07076,-0.11224,-0.0976,-0.08296,0.02684,-0.01952,-0.122,-0.06832,-0.05856,-0.03416,-0.03416
-0.0244,0.07076,-0.11712,-0.10492,-0.09272,0.03416,-0.01464,-0.12688,-0.0732,-0.05856,-0.03416,-0.03416
-0.0244,0.0732,-0.122,-0.1098,-0.0976,0.0366,-0.01464,-0.12688,-0.0732,-0.05856,-0.03416,-0.03416
-0.01952,0.07076,-0.122,-0.11224,-0.10248,0.04148,-0.01464,-0.13176,-0.0732,-0.05856,-0.03416,-0.03416
-0.01952,0.07076,-0.122,-0.11224,-0.10248,0.04148,-0.01464,-0.13176,-0.0732,-0.05856,-0.03416,-0.03416
-0.0244,0.07076,-0.11712,-0.10492,-0.09272,0.03416,-0.00976,-0.13664,-0.07808,-0.05856,-0.03416,-0.03904
-0.0244,0.06832,-0.11224,-0.10004,-0.08784,0.03172,-0.00976,-0.14152,-0.07808,-0.05856,-0.03904,-0.04392
-0.02928,0.07076,-0.11224,-0.0976,-0.08296,0.02684,-0.00976,-0.14152,-0.07808,-0.05856,-0.03904,-0.04392
-0.02928,0.0732,-0.11712,-0.10248,-0.08784,0.02928,-0.00976,-0.1464,-0.08296,-0.05856,-0.03904,-0.04392
-0.02928,0.0732,-0.11712,-0.10248,-0.08784,0.02928,-0.00976,-0.15128,-0.08296,-0.05856,-0.03904,-0.03904
-0.02928,0.0732,-0.11712,-0.10248,-0.08784,0.02928,-0.00976,-0.15616,-0.08784,-0.05856,-0.03904,-0.03904
-0.02928,0.0732,-0.11712,-0.10248,-0.08784,0.02928,-0.00976,-0.15616,-0.08784,-0.05856,-0.03904,-0.03904
-0.02928,0.0732,-0.11712,-0.10248,-0.08784,0.02928,-0.00976,-0.15616,-0.08784,-0.05856,-0.03904,-0.03904
-0.0244,0.07076,-0.11712,-0.10492,-0.09272,0.03416,-0.00976,-0.15616,-0.08784,-0.05856,-0.03904,-0.03904
-0.01952,0.06832,-0.11712,-0.10736,-0.0976,0.03904,-0.00976,-0.15616,-0.08784,-0.05856,-0.03904,-0.03904
-0.01952,0.06832,-0.11712,-0.10736,-0.0976,0.03904,-0.00976,-0.15616,-0.08784,-0.05856,-0.03904,-0.03904
-0.01464,0.06588,-0.11712,-0.1098,-0.10248,0.04392,-0.00976,-0.15616,-0.08784,-0.05856,-0.03904,-0.03904
-0.01464,0.06588,-0.11712,-0.1098,-0.10248,0.04392,-0.00488,-0.15616,-0.08784,-0.05856,-0.03904,-0.03904
-0.01464,0.06832,-0.122,-0.11468,-0.10736,0.04636,-0.00488,-0.15128,-0.08784,-0.05856,-0.03904,-0.03904
-0.01464,0.06832,-0.122,-0.11468,-0.10736,0.04636,-0.00488,-0.15128,-0.08784,-0.05856,-0.04392,-0.04392
-0.01464,0.06832,-0.122,-0.11468,-0.10736,0.04636,-0.00488,-0.15128,-0.08784,-0.05856,-0.04392,-0.04392
-0.01464,0.06832,-0.122,-0.11468,-0.10736,0.04636,-0.00976,-0.15128,-0.08784,-0.05856,-0.04392,-0.04392
-0.01464,0.06832,-0.122,-0.11468,-0.10736,0.04636,-0.01464,-0.15128,-0.08784,-0.05856,-0.03904,-0.04392
-0.00488,0.061,-0.11712,-0.11468,-0.11224,0.05368,-0.01464,-0.15128,-0.08784,-0.05368,-0.03416,-0.03904
0,0.0488,-0.0976,-0.0976,-0.0976,0.0488,-0.00488,-0.1464,-0.0732,-0.04392,-0.01952,-0.02928
0,0.03416,-0.06832,-0.06832,-0.06832,0.03416,0.00488,-0.13176,-0.05856,-0.02928,-0.00976,-0.01464
0.00488,0.01464,-0.03416,-0.0366,-0.03904,0.02196,0.01464,-0.11712,-0.03904,-0.01952,0.00488,0.00488
0.01464,-0.00976,0.00488,-0.00244,-0.00976,0.0122,0.0244,-0.10736,-0.01464,0.00976,0.02928,0.0244
0.01952,-0.0244,0.02928,0.01952,0.00976,0.00488,0.03416,-0.08784,0,0.0244,0.03904,0.03416
0.02928,-0.02928,0.02928,0.01464,0,0.01464,0.04392,-0.08296,0.00976,0.03416,0.03904,0.03416
0.03904,-0.0366,0.03416,0.01464,-0.00488,0.02196,0.04392,-0.0732,0.01464,0.03904,0.04392,0.03416
0.05368,-0.04636,0.03904,0.0122,-0.01464,0.03416,0.03904,-0.06344,0.01952,0.04392,0.0488,0.03416
0.06344,-0.05368,0.04392,0.0122,-0.01952,0.04148,0.03416,-0.05368,0.01952,0.0488,0.05368,0.03904
0.0732,-0.061,0.0488,0.0122,-0.0244,0.0488,0.00488,-0.03904,0.0244,0.05368,0.05856,0.0488
0.08784,-0.06832,0.0488,0.00488,-0.03904,0.06344,0,-0.03416,0.0244,0.05368,0.05856,0.0488
0.08784,-0.061,0.03416,-0.00976,-0.05368,0.07076,-0.00488,-0.05368,0.00976,0.04392,0.05856,0.04392
0.07808,-0.05124,0.0244,-0.01464,-0.05368,0.06588,-0.01464,-0.08296,-0.01464,0.03904,0.0488,0.03416
0.06344,-0.0244,-0.01464,-0.04636,-0.07808,0.07076,-0.01952,-0.10736,-0.03416,0.01464,0.0244,0.01952
0.0488,-0.00976,-0.02928,-0.05368,-0.07808,0.06344,-0.01952,-0.11224,-0.0488,0.00488,0.01952,0.00976
0.03904,0,-0.03904,-0.05856,-0.07808,0.05856,-0.00488,-0.10736,-0.0488,0.00488,0.01464,0.00488
0.02928,0.02196,-0.0732,-0.08784,-0.10248,0.06588,0,-0.10736,-0.05368,-0.00488,0.00488,-0.00488
0.01952,0.03416,-0.08784,-0.0976,-0.10736,0.06344,0.00488,-0.10736,-0.05856,-0.00976,-0.00488,-0.01464
0.01464,0.03904,-0.09272,-0.10004,-0.10736,0.061,0.00976,-0.10736,-0.06344,-0.01952,-0.01464,-0.0244
-0.00488,0.061,-0.11712,-0.11468,-0.11224,0.05368,0.00976,-0.12688,-0.08784,-0.03904,-0.02928,-0.04392
-0.00488,0.06588,-0.12688,-0.12444,-0.122,0.05856,0.00976,-0.13664,-0.09272,-0.0488,-0.04392,-0.04392
-0.00488,0.07808,-0.15128,-0.14884,-0.1464,0.07076,0.00976,-0.14152,-0.10248,-0.05856,-0.0488,-0.05856
-0.00976,0.09272,-0.17568,-0.1708,-0.16592,0.07808,0.00976,-0.15128,-0.11224,-0.06832,-0.05856,-0.06832
-0.00976,0.09028,-0.1708,-0.16592,-0.16104,0.07564,0.00488,-0.15128,-0.11224,-0.06832,-0.05856,-0.06832
-0.00976,0.0854,-0.16104,-0.15616,-0.15128,0.07076,0.00488,-0.15128,-0.10736,-0.06832,-0.05856,-0.06832
-0.01464,0.08784,-0.16104,-0.15372,-0.1464,0.06588,0.00488,-0.15128,-0.10736,-0.0732,-0.06344,-0.0732
-0.01464,0.08784,-0.16104,-0.15372,-0.1464,0.06588,0.00488,-0.15128,-0.10736,-0.0732,-0.06344,-0.0732
-0.0244,0.09516,-0.16592,-0.15372,-0.14152,0.05856,0.00976,-0.1464,-0.10736,-0.0732,-0.06344,-0.06832
-0.01464,0.09028,-0.16592,-0.1586,-0.15128,0.06832,0.00976,-0.1464,-0.10736,-0.0732,-0.06344,-0.06344
-0.00976,0.09028,-0.1708,-0.16592,-0.16104,0.07564,0.01464,-0.13664,-0.10736,-0.0732,-0.06344,-0.0732
-0.01464,0.10492,-0.1952,-0.18788,-0.18056,0.08296,0.06344,-0.0976,-0.11224,-0.08296,-0.08784,-0.08784
-0.01464,0.13908,-0.26352,-0.2562,-0.24888,0.11712,0.15128,-0.00976,-0.11224,-0.122,-0.12688,-0.13664
-0.01464,0.13908,-0.26352,-0.2562,-0.24888,0.11712,0.20008,0.11712,-0.05856,-0.10248,-0.12688,-0.1464
0,0.11224,-0.22448,-0.22448,-0.22448,0.11224,0.25376,0.2684,0.05856,-0.0244,-0.08784,-0.13176
0.03416,0.04636,-0.12688,-0.14396,-0.16104,0.0976,0.31232,0.40992,0.22936,0.12688,0.01952,-0.06344
0.08784,-0.09516,0.10248,0.05856,0.01464,0.0366,0.34648,0.54168,0.49288,0.37088,0.23424,0.0976
0.08784,-0.23424,0.38064,0.33672,0.2928,-0.10248,0.13664,0.27328,0.61,0.54168,0.45384,0.32208
0.06832,-0.21228,0.35624,0.32208,0.28792,-0.1098,-0.26352,-0.38064,0.22448,0.3172,0.34648,0.31232
-0.00488,-0.0122,0.02928,0.03172,0.03416,-0.01952,-0.61976,-1.3664,-0.50264,-0.19032,0.00488,0.09272
-0.10736,0.17568,-0.244,-0.19032,-0.13664,0.01464,-0.98088,-2.2448,-1.0492,-0.57096,-0.2684,-0.06344
-0.05368,0.25376,-0.45384,-0.427,-0.40016,0.17324,-1.0492,-2.00568,-1.20536,-0.73688,-0.42944,-0.20008
0.00488,0.22936,-0.4636,-0.46604,-0.46848,0.23668,-0.84424,-1.49816,-1.01016,-0.64904,-0.40992,-0.22448
0.04392,0.13176,-0.30744,-0.3294,-0.35136,0.19764,-0.62952,-1.04432,-0.69784,-0.43432,-0.27328,-0.1464
0.06344,0.04636,-0.15616,-0.18788,-0.2196,0.14152,-0.40992,-0.69296,-0.42944,-0.22936,-0.122,-0.04392
0.05368,0.02196,-0.0976,-0.12444,-0.15128,0.10248,-0.22448,-0.44408,-0.28304,-0.14152,-0.06344,-0.00488
0.03416,0.03172,-0.0976,-0.11468,-0.13176,0.08296,-0.11712,-0.26352,-0.20008,-0.10248,-0.0488,-0.00488
0.03416,0.0244,-0.08296,-0.10004,-0.11712,0.07564,-0.0732,-0.15616,-0.11712,-0.03904,-0.01952,-0.00488
0.02928,0.01952,-0.06832,-0.08296,-0.0976,0.06344,-0.00976,-0.08296,-0.0488,0.00488,0.00976,-0.00488
0.0244,0.02684,-0.07808,-0.09028,-0.10248,0.06344,0.04392,-0.03416,-0.04392,0.00488,0.01464,-0.00488
0.01952,0.02928,-0.07808,-0.08784,-0.0976,0.05856,0.04392,-0.01952,-0.04392,0.00488,0.00976,0
0.01952,0.02928,-0.07808,-0.08784,-0.0976,0.05856,0.04392,-0.01952,-0.02928,0.00488,0.00488,-0.00488
0.02928,0.02196,-0.0732,-0.08784,-0.10248,0.06588,0.05368,-0.00488,-0.0244,0.00488,0,-0.00976
0.0244,0.02684,-0.07808,-0.09028,-0.10248,0.06344,0.06832,0.00976,-0.01952,0.00488,0,-0.00976
0.0244,0.0244,-0.0732,-0.0854,-0.0976,0.061,0.07808,0.01952,-0.01464,0.00976,0,-0.00976
0.0244,0.02196,-0.06832,-0.08052,-0.09272,0.05856,0.07808,0.02928,-0.00976,0.00976,0,-0.01464
0.01952,0.02684,-0.0732,-0.08296,-0.09272,0.05612,0.08296,0.03904,-0.00488,0.00976,0.00488,-0.01464
0.0244,0.0244,-0.0732,-0.0854,-0.0976,0.061,0.08784,0.0488,0,0.01464,0.01464,-0.01464
0.02928,0.01952,-0.06832,-0.08296,-0.0976,0.06344,0.09272,0.05856,0.00976,0.01464,0.01464,-0.00976
0.02928,0.01708,-0.06344,-0.07808,-0.09272,0.061,0.0976,0.06344,0.00976,0.0244,0.01952,-0.00488
0.03416,0.00976,-0.05368,-0.07076,-0.08784,0.061,0.0976,0.0732,0.01464,0.02928,0.0244,0
0.03904,0.00488,-0.0488,-0.06832,-0.08784,0.06344,0.10248,0.08296,0.0244,0.03416,0.0244,0
0.04392,0,-0.04392,-0.06588,-0.08784,0.06588,0.10248,0.08784,0.02928,0.03904,0.02928,-0.00488
0.05856,-0.0122,-0.03416,-0.06344,-0.09272,0.07564,0.10248,0.0976,0.03416,0.03904,0.02928,-0.00488
0.05856,-0.01952,-0.01952,-0.0488,-0.07808,0.06832,0.10736,0.10736,0.03904,0.0488,0.03416,-0.00488
0.06344,-0.02684,-0.00976,-0.04148,-0.0732,0.06832,0.10736,0.11712,0.0488,0.05368,0.03416,0
0.06832,-0.0366,0.00488,-0.02928,-0.06344,0.06588,0.11712,0.13176,0.05856,0.06344,0.04392,0.00976
0.0732,-0.04392,0.01464,-0.02196,-0.05856,0.06588,0.122,0.14152,0.06344,0.06832,0.0488,0.01464
0.0732,-0.04636,0.01952,-0.01708,-0.05368,0.06344,0.122,0.15128,0.06832,0.07808,0.05856,0.01952
0.0732,-0.0488,0.0244,-0.0122,-0.0488,0.061,0.122,0.16104,0.0732,0.08784,0.06344,0.0244
0.08296,-0.05856,0.03416,-0.00732,-0.0488,0.06588,0.13176,0.17568,0.08296,0.09272,0.06832,0.02928
0.08296,-0.06344,0.04392,0.00244,-0.03904,0.061,0.13176,0.18544,0.0976,0.0976,0.0732,0.03416
