i,aVR,ii,aVF,iii,aVL,V1,V2,V3,V4,V5,V6
0.02928,-0.02684,0.0244,0.00976,-0.00488,0.01708,0.00976,0.0244,-0.03904,0.01464,0.01464,0.01952
0.03416,-0.0366,0.03904,0.02196,0.00488,0.01464,0.00488,0.0244,-0.03416,0.01464,0.01464,0.0244
0.03904,-0.0366,0.03416,0.01464,-0.00488,0.02196,0,0.03904,-0.01464,0.03904,0.02928,0.02928
0.03904,-0.0366,0.03416,0.01464,-0.00488,0.02196,-0.00488,0.03416,-0.00488,0.04392,0.03416,0.03904
0.05856,-0.05856,0.05856,0.02928,0,0.02928,-0.00488,0.03416,0,0.05856,0.0488,0.05368
0.06344,-0.06344,0.06344,0.03172,0,0.03172,-0.00976,0.02928,0,0.06344,0.05368,0.05368
0.06832,-0.06588,0.06344,0.02928,-0.00488,0.0366,-0.01464,0.02928,0.00488,0.06344,0.05368,0.05856
0.06832,-0.07076,0.0732,0.03904,0.00488,0.03172,-0.01464,0.01952,0.01952,0.06832,0.05856,0.05856
0.06832,-0.07076,0.0732,0.03904,0.00488,0.03172,-0.01952,0.02928,0.02928,0.07808,0.06832,0.0732
0.06832,-0.07808,0.08784,0.05368,0.01952,0.0244,-0.0244,0.0244,0.02928,0.08784,0.0732,0.0732
0.0732,-0.0854,0.0976,0.061,0.0244,0.0244,-0.0244,0.01952,0.04392,0.08296,0.0732,0.08296
0.07808,-0.09028,0.10248,0.06344,0.0244,0.02684,-0.02928,0.01952,0.04392,0.08784,0.07808,0.08296
0.07808,-0.0854,0.09272,0.05368,0.01464,0.03172,-0.0244,0.01952,0.04392,0.09272,0.07808,0.08784
0.08296,-0.09028,0.0976,0.05612,0.01464,0.03416,-0.0244,0.00976,0.04392,0.09272,0.08296,0.08784
0.0732,-0.0854,0.0976,0.061,0.0244,0.0244,-0.0244,0.01464,0.0488,0.09272,0.0732,0.09272
0.0732,-0.0854,0.0976,0.061,0.0244,0.0244,-0.0244,0.00976,0.0488,0.09272,0.0732,0.09272
0.0732,-0.08296,0.09272,0.05612,0.01952,0.02684,-0.01952,0.00488,0.05856,0.0976,0.07808,0.07808
0.06344,-0.07808,0.09272,0.061,0.02928,0.01708,-0.01952,0,0.05368,0.0976,0.0732,0.0732
0.05856,-0.0732,0.08784,0.05856,0.02928,0.01464,-0.01952,-0.00976,0.0488,0.08296,0.06344,0.06344
0.05368,-0.06832,0.08296,0.05612,0.02928,0.0122,-0.01952,-0.01952,0.04392,0.07808,0.05856,0.05856
0.04392,-0.06344,0.08296,0.061,0.03904,0.00244,-0.01464,-0.02928,0.0244,0.05856,0.04392,0.04392
0.03416,-0.05368,0.0732,0.05612,0.03904,-0.00244,-0.01464,-0.03904,0.01464,0.05368,0.0244,0.03904
0.03904,-0.05124,0.06344,0.04392,0.0244,0.00732,-0.00488,-0.04392,-0.00488,0.0488,0.0244,0.0244
0.03904,-0.04392,0.0488,0.02928,0.00976,0.01464,-0.00488,-0.04392,-0.00976,0.02928,0.01464,0.01464
0.02928,-0.03416,0.03904,0.0244,0.00976,0.00976,-0.00488,-0.05856,-0.0244,0.01952,0,0.01464
0.01952,-0.02684,0.03416,0.0244,0.01464,0.00244,0,-0.05856,-0.03416,0.00976,-0.00488,0
0.00488,-0.0122,0.01952,0.01708,0.01464,-0.00488,0.00488,-0.05856,-0.03904,-0.00488,-0.01464,-0.01952
0.00488,-0.00732,0.00976,0.00732,0.00488,0,0.00488,-0.05856,-0.04392,-0.00976,-0.01952,-0.0244
0,-0.00732,0.01464,0.01464,0.01464,-0.00732,0.01464,-0.05856,-0.05368,-0.01464,-0.03416,-0.0244
-0.00488,0,0.00488,0.00732,0.00976,-0.00732,0.0244,-0.05856,-0.05856,-0.0244,-0.03904,-0.02928
0.00488,0.00244,-0.00976,-0.0122,-0.01464,0.00976,0.0244,-0.06832,-0.0732,-0.03416,-0.0488,-0.03416
0,0.00244,-0.00488,-0.00488,-0.00488,0.00244,0.0244,-0.06832,-0.0732,-0.04392,-0.0488,-0.03904
0,0.00488,-0.00976,-0.00976,-0.00976,0.00488,0.01464,-0.06832,-0.07808,-0.04392,-0.0488,-0.03904
0,0.00488,-0.00976,-0.00976,-0.00976,0.00488,0.01464,-0.06832,-0.08784,-0.0488,-0.05368,-0.0488
-0.00488,0.00976,-0.01464,-0.0122,-0.00976,0.00244,0.01464,-0.06832,-0.08784,-0.05368,-0.05368,-0.0488
-0.00488,0.00976,-0.01464,-0.0122,-0.00976,0.00244,0.01952,-0.06344,-0.09272,-0.05368,-0.05856,-0.0488
0,0.00976,-0.01952,-0.01952,-0.01952,0.00976,0.00488,-0.06344,-0.10248,-0.05368,-0.05856,-0.03904
-0.00488,0.00976,-0.01464,-0.0122,-0.00976,0.00244,0.00488,-0.06344,-0.10248,-0.05856,-0.05856,-0.03904
-0.00488,0.0122,-0.01952,-0.01708,-0.01464,0.00488,0.01464,-0.05368,-0.09272,-0.05856,-0.05856,-0.0488
-0.00488,0.0122,-0.01952,-0.01708,-0.01464,0.00488,0.01952,-0.0488,-0.08784,-0.05856,-0.05856,-0.0488
0,0.01464,-0.02928,-0.02928,-0.02928,0.01464,0.01464,-0.05856,-0.08784,-0.0488,-0.05856,-0.0488
0,0.01464,-0.02928,-0.02928,-0.02928,0.01464,0.01464,-0.0488,-0.08784,-0.0488,-0.06344,-0.0488
-0.00976,0.01464,-0.01952,-0.01464,-0.00976,0,0.01464,-0.05368,-0.08784,-0.0488,-0.05368,-0.0488
-0.00976,0.01464,-0.01952,-0.01464,-0.00976,0,0.00976,-0.0488,-0.08784,-0.0488,-0.05368,-0.0488
-0.00488,0.00732,-0.00976,-0.00732,-0.00488,0,0.00488,-0.05856,-0.08784,-0.05856,-0.06344,-0.05856
-0.00488,0.00732,-0.00976,-0.00732,-0.00488,0,0,-0.0488,-0.09272,-0.05856,-0.06344,-0.05856
-0.00488,0.0122,-0.01952,-0.01708,-0.01464,0.00488,0.00976,-0.0488,-0.07808,-0.05856,-0.06344,-0.0488
-0.00488,0.01464,-0.0244,-0.02196,-0.01952,0.00732,0.01952,-0.0488,-0.07808,-0.05368,-0.05368,-0.03416
-0.01464,0.02196,-0.02928,-0.02196,-0.01464,0,0.01952,-0.04392,-0.07808,-0.04392,-0.04392,-0.0244
-0.01464,0.02196,-0.02928,-0.02196,-0.01464,0,0.01952,-0.02928,-0.07808,-0.03416,-0.04392,-0.0244
-0.00488,0.0122,-0.01952,-0.01708,-0.01464,0.00488,0.01952,-0.02928,-0.0732,-0.03904,-0.05368,-0.03416
-0.00976,0.00976,-0.00976,-0.00488,0,-0.00488,0.01952,-0.0244,-0.06832,-0.03904,-0.05368,-0.02928
-0.00976,0.00976,-0.00976,-0.00488,0,-0.00488,0.01952,-0.01952,-0.07808,-0.03416,-0.0488,-0.02928
-0.00488,0.00732,-0.00976,-0.00732,-0.00488,0,0.01952,-0.01464,-0.07808,-0.03416,-0.0488,-0.02928
0.00488,0,-0.00488,-0.00732,-0.00976,0.00732,0.01952,-0.00976,-0.07808,-0.0244,-0.03904,-0.01952
0.00488,0,-0.00488,-0.00732,-0.00976,0.00732,0.01464,-0.00488,-0.07808,-0.0244,-0.03416,-0.01952
-0.00488,0.00976,-0.01464,-0.0122,-0.00976,0.00244,0.00976,0,-0.06832,-0.02928,-0.03416,-0.02928
0,0.00732,-0.01464,-0.01464,-0.01464,0.00732,0.00976,0,-0.06344,-0.02928,-0.02928,-0.0244
0,0.00976,-0.01952,-0.01952,-0.01952,0.00976,0.00976,-0.00976,-0.0732,-0.0244,-0.03904,-0.0244
0,0.0122,-0.0244,-0.0244,-0.0244,0.0122,0.00976,-0.01464,-0.0732,-0.0244,-0.03904,-0.0244
0.00976,0.00244,-0.01464,-0.01952,-0.0244,0.01708,0.00976,-0.01464,-0.06344,-0.0244,-0.03416,-0.01952
0.00976,0.00244,-0.01464,-0.01952,-0.0244,0.01708,0.00976,-0.01464,-0.05856,-0.0244,-0.03416,-0.01952
0,0.00244,-0.00488,-0.00488,-0.00488,0.00244,0.00976,-0.0244,-0.05856,-0.0244,-0.0244,-0.01464
0,0,0,0,0,0,0.00976,-0.0244,-0.05368,-0.0244,-0.0244,-0.01464
0,0.00488,-0.00976,-0.00976,-0.00976,0.00488,0.00976,-0.01464,-0.06344,-0.03416,-0.03416,-0.01952
0,0.00488,-0.00976,-0.00976,-0.00976,0.00488,0.00976,-0.01952,-0.06344,-0.02928,-0.03416,-0.01464
0,0.00976,-0.01952,-0.01952,-0.01952,0.00976,0.01952,-0.00976,-0.06344,-0.02928,-0.04392,-0.0244
0,0.00976,-0.01952,-0.01952,-0.01952,0.00976,0.0244,-0.01464,-0.06344,-0.02928,-0.04392,-0.0244
0,0.00488,-0.00976,-0.00976,-0.00976,0.00488,0.01952,-0.01952,-0.05368,-0.02928,-0.04392,-0.0244
-0.00488,0.00732,-0.00976,-0.00732,-0.00488,0,0.01952,-0.0244,-0.05368,-0.0244,-0.03904,-0.0244
0.00488,0.00244,-0.00976,-0.0122,-0.01464,0.00976,0.0244,-0.01952,-0.06344,-0.02928,-0.03904,-0.02928
0.00488,0.00244,-0.00976,-0.0122,-0.01464,0.00976,0.0244,-0.01952,-0.06344,-0.02928,-0.04392,-0.02928
-0.00488,0.00732,-0.00976,-0.00732,-0.00488,0,0.0244,-0.0244,-0.06344,-0.01952,-0.03416,-0.02928
-0.00488,0.00732,-0.00976,-0.00732,-0.00488,0,0.0244,-0.0244,-0.06344,-0.01952,-0.03416,-0.0244
-0.00488,0.00732,-0.00976,-0.00732,-0.00488,0,0.0244,-0.0244,-0.05856,-0.02928,-0.03416,-0.01464
-0.00488,0.00976,-0.01464,-0.0122,-0.00976,0.00244,0.0244,-0.02928,-0.05856,-0.03416,-0.03416,-0.01952
-0.00488,0.01464,-0.0244,-0.02196,-0.01952,0.00732,0.03416,-0.01952,-0.06832,-0.03416,-0.0488,-0.03416
-0.00976,0.01708,-0.0244,-0.01952,-0.01464,0.00244,0.03416,-0.01952,-0.06832,-0.03416,-0.0488,-0.03416
-0.01952,0.02196,-0.0244,-0.01464,-0.00488,-0.00732,0.02928,-0.01952,-0.06832,-0.03904,-0.03904,-0.03416
-0.01952,0.02196,-0.0244,-0.01464,-0.00488,-0.00732,0.02928,-0.0244,-0.0732,-0.03904,-0.03904,-0.03416
-0.00976,0.01708,-0.0244,-0.01952,-0.01464,0.00244,0.02928,-0.01464,-0.0732,-0.0488,-0.05368,-0.03904
-0.01464,0.02196,-0.02928,-0.02196,-0.01464,0,0.02928,-0.01464,-0.07808,-0.0488,-0.05368,-0.03904
-0.01464,0.02196,-0.02928,-0.02196,-0.01464,0,0.0244,-0.00976,-0.07808,-0.05368,-0.06344,-0.03904
-0.01464,0.02196,-0.02928,-0.02196,-0.01464,0,0.02928,-0.00976,-0.07808,-0.05368,-0.06832,-0.03904
-0.01464,0.01708,-0.01952,-0.0122,-0.00488,-0.00488,0.0244,-0.01952,-0.08296,-0.0488,-0.05856,-0.04392
-0.01464,0.01708,-0.01952,-0.0122,-0.00488,-0.00488,0.01952,-0.01952,-0.08296,-0.0488,-0.05856,-0.04392
-0.00488,0.01464,-0.0244,-0.02196,-0.01952,0.00732,0.02928,-0.00976,-0.07808,-0.0488,-0.0488,-0.03416
-0.00488,0.01464,-0.0244,-0.02196,-0.01952,0.00732,0.02928,-0.00976,-0.07808,-0.05368,-0.05368,-0.03904
-0.01464,0.01952,-0.0244,-0.01708,-0.00976,-0.00244,0.03416,0,-0.08296,-0.05368,-0.06344,-0.0488
-0.01464,0.01952,-0.0244,-0.01708,-0.00976,-0.00244,0.03416,0,-0.08296,-0.05368,-0.06832,-0.0488
-0.0244,0.0244,-0.0244,-0.0122,0,-0.0122,0.03416,0,-0.09272,-0.05856,-0.05856,-0.0488
-0.0244,0.02684,-0.02928,-0.01708,-0.00488,-0.00976,0.03904,0,-0.09272,-0.05856,-0.05856,-0.0488
-0.01464,0.01952,-0.0244,-0.01708,-0.00976,-0.00244,0.02928,0,-0.0976,-0.05856,-0.06832,-0.05368
-0.01464,0.01952,-0.0244,-0.01708,-0.00976,-0.00244,0.02928,0,-0.0976,-0.05856,-0.0732,-0.05368
-0.01464,0.0244,-0.03416,-0.02684,-0.01952,0.00244,0.0244,0.00488,-0.08784,-0.06344,-0.0732,-0.05368
-0.01464,0.0244,-0.03416,-0.02684,-0.01952,0.00244,0.0244,0.00488,-0.09272,-0.06344,-0.0732,-0.05368
-0.0244,0.02928,-0.03416,-0.02196,-0.00976,-0.00732,0.03416,0.00488,-0.08784,-0.06344,-0.0732,-0.05368
-0.0244,0.02928,-0.03416,-0.02196,-0.00976,-0.00732,0.03904,0.00488,-0.09272,-0.06344,-0.0732,-0.05368
-0.01464,0.01952,-0.0244,-0.01708,-0.00976,-0.00244,0.02928,0.00488,-0.09272,-0.06832,-0.07808,-0.05856
-0.01464,0.02196,-0.02928,-0.02196,-0.01464,0,0.02928,0.00488,-0.09272,-0.06832,-0.07808,-0.05856
-0.01464,0.02684,-0.03904,-0.03172,-0.0244,0.00488,0.0244,-0.00976,-0.0976,-0.06832,-0.07808,-0.06832
-0.01464,0.02684,-0.03904,-0.03172,-0.0244,0.00488,0.0244,-0.00976,-0.0976,-0.06832,-0.07808,-0.06832
-0.01464,0.02196,-0.02928,-0.02196,-0.01464,0,0.01464,0,-0.0976,-0.05856,-0.07808,-0.06344
-0.01952,0.02684,-0.03416,-0.0244,-0.01464,-0.00244,0.01952,0,-0.09272,-0.05856,-0.07808,-0.05368
-0.01952,0.02684,-0.03416,-0.0244,-0.01464,-0.00244,0.01952,0,-0.0976,-0.06832,-0.07808,-0.05368
-0.01952,0.02684,-0.03416,-0.0244,-0.01464,-0.00244,0.01952,-0.00488,-0.0976,-0.0732,-0.07808,-0.05368
-0.01952,0.02684,-0.03416,-0.0244,-0.01464,-0.00244,0.01952,-0.00488,-0.0976,-0.05856,-0.06832,-0.06344
-0.01952,0.0244,-0.02928,-0.01952,-0.00976,-0.00488,0.0244,-0.00488,-0.0976,-0.06344,-0.0732,-0.06344
-0.01952,0.02928,-0.03904,-0.02928,-0.01952,0,0.0244,-0.00488,-0.0976,-0.0732,-0.0732,-0.06344
-0.01952,0.02684,-0.03416,-0.0244,-0.01464,-0.00244,0.0244,-0.00488,-0.0976,-0.0732,-0.0732,-0.06344
-0.0244,0.03416,-0.04392,-0.03172,-0.01952,-0.00244,0.03416,-0.00488,-0.0976,-0.0732,-0.08296,-0.0732
-0.0244,0.03416,-0.04392,-0.03172,-0.01952,-0.00244,0.03416,-0.00976,-0.0976,-0.0732,-0.08296,-0.0732
-0.01952,0.03172,-0.04392,-0.03416,-0.0244,0.00244,0.03416,0,-0.0976,-0.0732,-0.08296,-0.06344
-0.01464,0.02928,-0.04392,-0.0366,-0.02928,0.00732,0.03416,0,-0.0976,-0.0732,-0.08296,-0.06344
-0.01952,0.03172,-0.04392,-0.03416,-0.0244,0.00244,0.0244,-0.00976,-0.0976,-0.0732,-0.08296,-0.06344
-0.01952,0.03172,-0.04392,-0.03416,-0.0244,0.00244,0.0244,-0.00976,-0.0976,-0.0732,-0.08296,-0.06344
-0.00976,0.02684,-0.04392,-0.03904,-0.03416,0.0122,0.0244,-0.00976,-0.0976,-0.0732,-0.08296,-0.06344
-0.00976,0.02684,-0.04392,-0.03904,-0.03416,0.0122,0.0244,-0.00976,-0.0976,-0.0732,-0.08296,-0.06344
-0.01952,0.02684,-0.03416,-0.0244,-0.01464,-0.00244,0.02928,-0.00976,-0.0976,-0.06344,-0.07808,-0.06344
-0.01952,0.02928,-0.03904,-0.02928,-0.01952,0,0.02928,-0.01464,-0.0976,-0.06344,-0.07808,-0.06344
-0.01952,0.03172,-0.04392,-0.03416,-0.0244,0.00244,0.01952,-0.01464,-0.0976,-0.0732,-0.08296,-0.0732
-0.01952,0.03172,-0.04392,-0.03416,-0.0244,0.00244,0.01952,-0.00976,-0.0976,-0.0732,-0.07808,-0.0732
-0.01952,0.0366,-0.05368,-0.04392,-0.03416,0.00732,0.02928,-0.01464,-0.0976,-0.0732,-0.07808,-0.0732
-0.01952,0.0366,-0.05368,-0.04392,-0.03416,0.00732,0.02928,-0.01464,-0.0976,-0.0732,-0.07808,-0.0732
-0.01952,0.0366,-0.05368,-0.04392,-0.03416,0.00732,0.0244,-0.00488,-0.08784,-0.0732,-0.08784,-0.06344
-0.01952,0.0366,-0.05368,-0.04392,-0.03416,0.00732,0.0244,0,-0.08784,-0.0732,-0.08784,-0.06344
-0.01952,0.0366,-0.05368,-0.04392,-0.03416,0.00732,0.02928,0,-0.09272,-0.0732,-0.08296,-0.06344
-0.00976,0.02928,-0.0488,-0.04392,-0.03904,0.01464,0.02928,0.00976,-0.08784,-0.06832,-0.08784,-0.06832
-0.01952,0.03416,-0.0488,-0.03904,-0.02928,0.00488,0.02928,0,-0.08784,-0.07808,-0.08784,-0.06832
-0.01952,0.03416,-0.0488,-0.03904,-0.02928,0.00488,0.02928,-0.00976,-0.08784,-0.07808,-0.08784,-0.06832
-0.01952,0.03416,-0.0488,-0.03904,-0.02928,0.00488,0.01952,0,-0.0976,-0.07808,-0.08784,-0.07808
-0.01952,0.03416,-0.0488,-0.03904,-0.02928,0.00488,0.01952,0,-0.0976,-0.07808,-0.08784,-0.07808
-0.02928,0.03416,-0.03904,-0.0244,-0.00976,-0.00976,0.01952,-0.00976,-0.0976,-0.06832,-0.08784,-0.06832
-0.02928,0.03416,-0.03904,-0.0244,-0.00976,-0.00976,0.01952,-0.00976,-0.0976,-0.06832,-0.08784,-0.06832
-0.01952,0.03416,-0.0488,-0.03904,-0.02928,0.00488,0.01952,0,-0.08784,-0.06832,-0.07808,-0.06832
-0.01952,0.03416,-0.0488,-0.03904,-0.02928,0.00488,0.01952,0,-0.08784,-0.06832,-0.07808,-0.06832
-0.01952,0.03904,-0.05856,-0.0488,-0.03904,0.00976,0.01952,0,-0.0976,-0.07808,-0.08784,-0.06832
-0.01952,0.03904,-0.05856,-0.0488,-0.03904,0.00976,0.01952,0,-0.0976,-0.07808,-0.0976,-0.06832
-0.01952,0.03416,-0.0488,-0.03904,-0.02928,0.00488,0.01952,0,-0.08784,-0.06832,-0.08784,-0.06832
-0.01952,0.03172,-0.04392,-0.03416,-0.0244,0.00244,0.0244,0,-0.08296,-0.06832,-0.08784,-0.06832
-0.01952,0.02684,-0.03416,-0.0244,-0.01464,-0.00244,0.01464,0.00488,-0.0732,-0.05856,-0.08296,-0.05856
-0.00976,0.00976,-0.00976,-0.00488,0,-0.00488,0.01464,0.01464,-0.06344,-0.0488,-0.0732,-0.05368
-0.00488,0.00732,-0.00976,-0.00732,-0.00488,0,0.0244,0.0244,-0.05856,-0.0488,-0.0732,-0.05368
0.00488,-0.00732,0.00976,0.00732,0.00488,0,0.0244,0.0244,-0.03416,-0.0244,-0.05856,-0.03904
0.00976,-0.01708,0.0244,0.01952,0.01464,-0.00244,0.02928,0.0244,-0.01952,-0.00488,-0.0488,-0.0244
0.01464,-0.01952,0.0244,0.01708,0.00976,0.00244,0.02928,0.03416,-0.01464,-0.00488,-0.04392,-0.01952
0.00488,-0.00976,0.01464,0.0122,0.00976,-0.00244,0.0244,0.04392,-0.00488,-0.01464,-0.04392,-0.01952
0.00488,-0.00488,0.00488,0.00244,0,0.00244,0.0244,0.05368,-0.00488,-0.01464,-0.03904,-0.0244
0.00976,0,-0.00976,-0.01464,-0.01952,0.01464,0.03904,0.05368,-0.01464,-0.01464,-0.04392,-0.0244
0.00976,0.00244,-0.01464,-0.01952,-0.0244,0.01708,0.04392,0.05368,-0.01464,-0.01464,-0.04392,-0.0244
0.00976,0.00488,-0.01952,-0.0244,-0.02928,0.01952,0.03416,0.05856,-0.02928,-0.0244,-0.05368,-0.03416
0.00976,0.00732,-0.0244,-0.02928,-0.03416,0.02196,0.03416,0.0488,-0.03904,-0.02928,-0.06344,-0.03904
0.00976,0.0122,-0.03416,-0.03904,-0.04392,0.02684,0.01952,0.03904,-0.06832,-0.0488,-0.0732,-0.04392
0.00488,0.02196,-0.0488,-0.05124,-0.05368,0.02928,0.01464,0.02928,-0.08296,-0.06832,-0.08296,-0.05368
0.00488,0.0244,-0.05368,-0.05612,-0.05856,0.03172,0,0.01464,-0.0976,-0.0732,-0.08784,-0.06344
0,0.02928,-0.05856,-0.05856,-0.05856,0.02928,0.01464,0.00976,-0.08784,-0.05856,-0.09272,-0.06344
0,0.02196,-0.04392,-0.04392,-0.04392,0.02196,0.00488,0,-0.09272,-0.06832,-0.0976,-0.06344
0,0.01708,-0.03416,-0.03416,-0.03416,0.01708,0.00488,0,-0.09272,-0.06344,-0.09272,-0.05856
0,0.0244,-0.0488,-0.0488,-0.0488,0.0244,0.01464,0.01464,-0.08784,-0.06344,-0.09272,-0.05856
0,0.02928,-0.05856,-0.05856,-0.05856,0.02928,0.01952,0.0244,-0.0976,-0.06832,-0.0976,-0.06832
-0.00976,0.03416,-0.05856,-0.05368,-0.0488,0.01952,0.0244,0.01952,-0.10248,-0.0732,-0.10248,-0.0732
-0.00976,0.03904,-0.06832,-0.06344,-0.05856,0.0244,0.0244,0.01464,-0.10248,-0.07808,-0.10248,-0.0732
0,0.02684,-0.05368,-0.05368,-0.05368,0.02684,0.00976,0.0244,-0.10248,-0.07808,-0.0976,-0.0732
-0.00488,0.02928,-0.05368,-0.05124,-0.0488,0.02196,0.00976,0.0244,-0.0976,-0.0732,-0.09272,-0.06832
-0.01464,0.0244,-0.03416,-0.02684,-0.01952,0.00244,0.01464,0.0244,-0.07808,-0.05856,-0.0732,-0.05368
-0.02928,0.03172,-0.03416,-0.01952,-0.00488,-0.0122,0.01952,0.0244,-0.0732,-0.04392,-0.06832,-0.0488
-0.03416,0.04148,-0.0488,-0.03172,-0.01464,-0.00976,0.01952,0.03416,-0.09272,-0.05368,-0.08784,-0.05856
-0.04392,0.05124,-0.05856,-0.0366,-0.01464,-0.01464,0.0244,0.03416,-0.10248,-0.08296,-0.10736,-0.07808
-0.0488,0.05856,-0.06832,-0.04392,-0.01952,-0.01464,0.02928,0.02928,-0.11224,-0.08784,-0.11712,-0.08296
-0.0488,0.06344,-0.07808,-0.05368,-0.02928,-0.00976,0.02928,0.02928,-0.11712,-0.09272,-0.122,-0.09272
-0.0488,0.061,-0.0732,-0.0488,-0.0244,-0.0122,0.02928,0.0244,-0.10736,-0.08296,-0.11224,-0.07808
-0.05368,0.06344,-0.0732,-0.04636,-0.01952,-0.01708,0.02928,0.02928,-0.10248,-0.07808,-0.11224,-0.07808
-0.05856,0.06588,-0.0732,-0.04392,-0.01464,-0.02196,0.02928,0.02928,-0.11224,-0.08784,-0.11712,-0.08784
-0.05856,0.06832,-0.07808,-0.0488,-0.01952,-0.01952,0.02928,0.02928,-0.11224,-0.08784,-0.11712,-0.08784
-0.05856,0.06344,-0.06832,-0.03904,-0.00976,-0.0244,0.02928,0.01952,-0.11224,-0.07808,-0.11712,-0.08784
-0.05856,0.061,-0.06344,-0.03416,-0.00488,-0.02684,0.02928,0.01952,-0.10736,-0.07808,-0.11712,-0.08296
-0.05368,0.061,-0.06832,-0.04148,-0.01464,-0.01952,0.02928,0.01952,-0.10736,-0.0732,-0.11712,-0.08296
-0.05368,0.061,-0.06832,-0.04148,-0.01464,-0.01952,0.0244,0.01464,-0.10736,-0.0732,-0.11224,-0.08296
-0.0488,0.05856,-0.06832,-0.04392,-0.01952,-0.01464,0.02928,0.01464,-0.0976,-0.0732,-0.11224,-0.08296
-0.0488,0.05612,-0.06344,-0.03904,-0.01464,-0.01708,0.02928,0.00976,-0.09272,-0.0732,-0.11224,-0.07808
-0.05856,0.06344,-0.06832,-0.03904,-0.00976,-0.0244,0.04392,0.01952,-0.08784,-0.07808,-0.10248,-0.07808
-0.08296,0.07564,-0.06832,-0.02684,0.01464,-0.0488,0.06344,0.04392,-0.0732,-0.06832,-0.12688,-0.09272
-0.10736,0.09516,-0.08296,-0.02928,0.0244,-0.06588,0.09272,0.0488,-0.05856,-0.08296,-0.1464,-0.1464
-0.09272,0.08296,-0.0732,-0.02684,0.01952,-0.05612,0.11224,0.08784,-0.01464,-0.04392,-0.122,-0.13176
-0.0732,0.07808,-0.08296,-0.04636,-0.00976,-0.03172,0.14152,0.15128,0.0488,-0.00488,-0.08296,-0.09272
0.00488,0.0122,-0.02928,-0.03172,-0.03416,0.01952,0.12688,0.22936,0.17568,0.12688,0.04392,0.03904
0.16104,-0.11712,0.0732,-0.00732,-0.08784,0.12444,0.06832,0.32208,0.34648,0.30744,0.244,0.23424
0.366,-0.33672,0.30744,0.12444,-0.05856,0.21228,-0.06344,0.37576,0.5856,0.58072,0.5368,0.51728
0.5612,-0.57096,0.58072,0.30012,0.01952,0.27084,-0.27816,0.31232,0.74176,0.85888,0.84912,0.84912
0.7076,-0.71248,0.71736,0.36356,0.00976,0.34892,-0.4392,0.22936,0.72712,0.97112,1.0248,1.0492
0.70272,-0.7198,0.73688,0.38552,0.03416,0.33428,-0.52704,0.10736,0.69296,1.01992,1.08824,1.13704
0.58072,-0.60268,0.62464,0.33428,0.04392,0.2684,-0.5124,-0.03904,0.61488,0.93696,1.01504,1.03944
0.40504,-0.39528,0.38552,0.183,-0.01952,0.21228,-0.44408,-0.20008,0.11712,0.44408,0.57096,0.66368
0.122,-0.14884,0.17568,0.11468,0.05368,0.03416,-0.27328,-0.28304,-0.2928,-0.01952,0.122,0.28792
-0.03904,0.02684,-0.01464,0.00488,0.0244,-0.03172,-0.18544,-0.32208,-0.57584,-0.31232,-0.18056,0.00488
-0.06832,0.10004,-0.13176,-0.0976,-0.06344,-0.00244,-0.08296,-0.23912,-0.60024,-0.3904,-0.27816,-0.10736
-0.06832,0.11468,-0.16104,-0.12688,-0.09272,0.0122,-0.01952,-0.11224,-0.52704,-0.34648,-0.27816,-0.1464
-0.06832,0.10736,-0.1464,-0.11224,-0.07808,0.00488,0.03904,-0.01952,-0.35624,-0.244,-0.20496,-0.122
-0.04392,0.08052,-0.11712,-0.09516,-0.0732,0.01464,0.05856,0.03904,-0.20984,-0.15128,-0.15616,-0.09272
-0.03416,0.06588,-0.0976,-0.08052,-0.06344,0.01464,0.05368,0.05856,-0.13176,-0.10248,-0.13176,-0.07808
-0.0244,0.04148,-0.05856,-0.04636,-0.03416,0.00488,0.04392,0.04392,-0.12688,-0.08296,-0.10736,-0.06344
-0.03904,0.03904,-0.03904,-0.01952,0,-0.01952,0.03416,0.0244,-0.10736,-0.06344,-0.08784,-0.0488
-0.04392,0.04392,-0.04392,-0.02196,0,-0.02196,0.0244,0.00488,-0.08784,-0.05856,-0.09272,-0.0488
-0.04392,0.04392,-0.04392,-0.02196,0,-0.02196,0.01464,-0.00976,-0.0732,-0.05368,-0.08296,-0.04392
-0.0488,0.05124,-0.05368,-0.02928,-0.00488,-0.02196,0.01952,-0.0244,-0.0732,-0.06344,-0.08784,-0.05856
-0.05368,0.05368,-0.05368,-0.02684,0,-0.02684,0.0244,-0.02928,-0.07808,-0.06344,-0.08784,-0.06344
-0.05368,0.0488,-0.04392,-0.01708,0.00976,-0.03172,0.01952,-0.03904,-0.07808,-0.06344,-0.09272,-0.06344
-0.05368,0.0488,-0.04392,-0.01708,0.00976,-0.03172,0.01952,-0.0488,-0.06832,-0.06344,-0.09272,-0.06344
-0.04392,0.04636,-0.0488,-0.02684,-0.00488,-0.01952,0.01952,-0.05368,-0.06832,-0.05368,-0.08296,-0.05368
-0.0488,0.0488,-0.0488,-0.0244,0,-0.0244,0.0244,-0.05368,-0.06832,-0.03904,-0.07808,-0.0488
-0.06344,0.05856,-0.05368,-0.02196,0.00976,-0.0366,0.0244,-0.05368,-0.06832,-0.0488,-0.08296,-0.05368
-0.06344,0.05856,-0.05368,-0.02196,0.00976,-0.0366,0.0244,-0.0488,-0.06832,-0.0488,-0.08296,-0.05368
-0.06344,0.05856,-0.05368,-0.02196,0.00976,-0.0366,0.0244,-0.0488,-0.06832,-0.05856,-0.09272,-0.06344
-0.06344,0.05856,-0.05368,-0.02196,0.00976,-0.0366,0.0244,-0.03904,-0.06832,-0.06344,-0.09272,-0.06344
-0.06832,0.05612,-0.04392,-0.00976,0.0244,-0.04636,0.0244,-0.0244,-0.06832,-0.05368,-0.09272,-0.05368
-0.06832,0.05368,-0.03904,-0.00488,0.02928,-0.0488,0.0244,-0.01464,-0.06832,-0.05368,-0.09272,-0.05368
-0.06832,0.05856,-0.0488,-0.01464,0.01952,-0.04392,0.03416,-0.00976,-0.06344,-0.0488,-0.08784,-0.05368
-0.06832,0.05856,-0.0488,-0.01464,0.01952,-0.04392,0.03416,-0.00488,-0.06832,-0.05368,-0.08296,-0.05368
-0.06832,0.05368,-0.03904,-0.00488,0.02928,-0.0488,0.0244,0.00488,-0.05368,-0.05368,-0.08296,-0.04392
-0.06344,0.05124,-0.03904,-0.00732,0.0244,-0.04392,0.0244,0,-0.05368,-0.05368,-0.07808,-0.04392
-0.06344,0.05612,-0.0488,-0.01708,0.01464,-0.03904,0.0244,-0.01952,-0.05368,-0.03904,-0.07808,-0.0488
-0.05856,0.05368,-0.0488,-0.01952,0.00976,-0.03416,0.02928,-0.0244,-0.0488,-0.03904,-0.07808,-0.0488
-0.05856,0.05368,-0.0488,-0.01952,0.00976,-0.03416,0.02928,-0.04392,-0.0488,-0.03416,-0.07808,-0.0488
-0.05856,0.05368,-0.0488,-0.01952,0.00976,-0.03416,0.02928,-0.04392,-0.0488,-0.03416,-0.07808,-0.0488
-0.05856,0.0488,-0.03904,-0.00976,0.01952,-0.03904,0.02928,-0.0488,-0.0488,-0.03416,-0.07808,-0.03904
-0.05368,0.04148,-0.02928,-0.00244,0.0244,-0.03904,0.02928,-0.0488,-0.04392,-0.03416,-0.07808,-0.03904
-0.05368,0.04636,-0.03904,-0.0122,0.01464,-0.03416,0.01952,-0.06344,-0.03904,-0.02928,-0.0732,-0.04392
-0.0488,0.04392,-0.03904,-0.01464,0.00976,-0.02928,0.0244,-0.06344,-0.03904,-0.02928,-0.0732,-0.04392
-0.0488,0.04392,-0.03904,-0.01464,0.00976,-0.02928,0.0244,-0.06832,-0.03904,-0.02928,-0.0732,-0.03416
-0.04392,0.04148,-0.03904,-0.01708,0.00488,-0.0244,0.0244,-0.0732,-0.03904,-0.0244,-0.0732,-0.02928
-0.04392,0.0366,-0.02928,-0.00732,0.01464,-0.02928,0.0244,-0.06344,-0.03416,-0.01952,-0.06832,-0.02928
-0.04392,0.0366,-0.02928,-0.00732,0.01464,-0.02928,0.0244,-0.05856,-0.0244,-0.01464,-0.06344,-0.02928
-0.03904,0.03172,-0.0244,-0.00488,0.01464,-0.02684,0.01952,-0.04392,-0.01952,-0.00488,-0.05856,-0.0244
-0.03416,0.02928,-0.0244,-0.00732,0.00976,-0.02196,0.0244,-0.02928,-0.01952,0,-0.05368,-0.01952
-0.03416,0.02684,-0.01952,-0.00244,0.01464,-0.0244,0.01464,-0.01952,-0.00488,0.00976,-0.03904,-0.00488
-0.02928,0.02196,-0.01464,0,0.01464,-0.02196,0.00976,-0.01464,0,0.01464,-0.02928,0.00488
-0.0244,0.01464,-0.00488,0.00732,0.01952,-0.02196,0.00976,0.00488,0,0.0244,-0.0244,0.00488
-0.0244,0.0122,0,0.0122,0.0244,-0.0244,0.00976,0.0244,0.00976,0.02928,-0.01952,0.01952
0,-0.00488,0.00976,0.00976,0.00976,-0.00488,0.00976,0.03416,0.0244,0.03904,-0.00488,0.0244
0,-0.00732,0.01464,0.01464,0.01464,-0.00732,0.00488,0.0488,0.03416,0.04392,0.00488,0.0244
0.00488,-0.00976,0.01464,0.0122,0.00976,-0.00244,0.00488,0.04392,0.03904,0.04392,0.00488,0.03416
0.00488,-0.0122,0.01952,0.01708,0.01464,-0.00488,-0.00488,0.05856,0.03904,0.0488,0.00976,0.03904
0.00976,-0.01708,0.0244,0.01952,0.01464,-0.00244,-0.00976,0.06344,0.05856,0.06344,0.0244,0.0488
0.01464,-0.02684,0.03904,0.03172,0.0244,-0.00488,-0.01464,0.06344,0.06344,0.06344,0.03416,0.05368
0.02928,-0.04148,0.05368,0.03904,0.0244,0.00244,-0.01952,0.06832,0.06344,0.07808,0.03904,0.05856
0.02928,-0.04148,0.05368,0.03904,0.0244,0.00244,-0.0244,0.06344,0.0732,0.08296,0.04392,0.06832
0.02928,-0.0488,0.06832,0.05368,0.03904,-0.00488,-0.03416,0.0732,0.07808,0.08784,0.0488,0.08296
0.0244,-0.0488,0.0732,0.061,0.0488,-0.0122,-0.03904,0.06832,0.07808,0.09272,0.05368,0.08296
0.02928,-0.05612,0.08296,0.06832,0.05368,-0.0122,-0.03416,0.05856,0.08296,0.10248,0.06344,0.0976
0.02928,-0.061,0.09272,0.07808,0.06344,-0.01708,-0.03416,0.0488,0.0976,0.10736,0.06832,0.0976
0.0488,-0.07076,0.09272,0.06832,0.04392,0.00244,-0.0488,0.0488,0.10736,0.10736,0.06832,0.10248
0.0488,-0.07808,0.10736,0.08296,0.05856,-0.00488,-0.05368,0.04392,0.10736,0.11712,0.0732,0.10248
0.05368,-0.08052,0.10736,0.08052,0.05368,0,-0.05368,0.03904,0.122,0.122,0.08296,0.122
0.05856,-0.0854,0.11224,0.08296,0.05368,0.00244,-0.05856,0.03904,0.122,0.12688,0.08784,0.122
0.0488,-0.08052,0.11224,0.08784,0.06344,-0.00732,-0.05368,0.03904,0.13176,0.13176,0.08784,0.12688
0.05368,-0.09028,0.12688,0.10004,0.0732,-0.00976,-0.05368,0.02928,0.13176,0.13176,0.09272,0.12688
0.05368,-0.0854,0.11712,0.09028,0.06344,-0.00488,-0.05368,0.03416,0.12688,0.13176,0.09272,0.122
0.05368,-0.08052,0.10736,0.08052,0.05368,0,-0.05368,0.02928,0.12688,0.13176,0.09272,0.122
0.04392,-0.0732,0.10248,0.08052,0.05856,-0.00732,-0.03904,0.0244,0.12688,0.12688,0.07808,0.10736
0.03416,-0.06832,0.10248,0.0854,0.06832,-0.01708,-0.03904,0.01952,0.122,0.11712,0.0732,0.10248
0.03904,-0.06344,0.08784,0.06832,0.0488,-0.00488,-0.02928,0.01952,0.10736,0.10248,0.05368,0.08296
0.03416,-0.05856,0.08296,0.06588,0.0488,-0.00732,-0.02928,0.00976,0.10248,0.0976,0.0488,0.07808
0.0244,-0.0488,0.0732,0.061,0.0488,-0.0122,-0.0244,0.00976,0.08296,0.07808,0.04392,0.0732
0.01464,-0.03904,0.06344,0.05612,0.0488,-0.01708,-0.0244,0.00976,0.0732,0.0732,0.0244,0.06832
0,-0.02196,0.04392,0.04392,0.04392,-0.02196,-0.01464,-0.00488,0.04392,0.05856,0.00488,0.04392
0,-0.01464,0.02928,0.02928,0.02928,-0.01464,-0.01464,-0.00488,0.03904,0.03904,-0.00488,0.0244
0,-0.00976,0.01952,0.01952,0.01952,-0.00976,-0.01464,-0.00976,0.03416,0.03904,-0.00976,0.0244
-0.00976,-0.00244,0.01464,0.01952,0.0244,-0.01708,-0.00976,-0.00976,0.0244,0.02928,-0.01464,0.00976
-0.01464,0.00244,0.00976,0.01708,0.0244,-0.01952,-0.00488,-0.01952,0.00976,0.01464,-0.03416,0
-0.01464,0.00732,0,0.00732,0.01464,-0.01464,-0.00488,-0.01952,0.00488,0.00976,-0.03904,-0.00488
-0.01952,0.0122,-0.00488,0.00488,0.01464,-0.01708,-0.00488,-0.02928,-0.00488,-0.00488,-0.04392,-0.01464
-0.0244,0.01952,-0.01464,-0.00244,0.00976,-0.01708,0.00488,-0.02928,-0.00976,-0.01464,-0.0488,-0.01952
-0.01464,0.01708,-0.01952,-0.0122,-0.00488,-0.00488,0.00488,-0.02928,-0.01464,-0.01464,-0.05856,-0.0244
-0.01952,0.01708,-0.01464,-0.00488,0.00488,-0.0122,0.00488,-0.02928,-0.01464,-0.0244,-0.05856,-0.02928
-0.01952,0.0244,-0.02928,-0.01952,-0.00976,-0.00488,0.00488,-0.02928,-0.01952,-0.01464,-0.05856,-0.02928
-0.01952,0.0244,-0.02928,-0.01952,-0.00976,-0.00488,0.00488,-0.02928,-0.02928,-0.01952,-0.06344,-0.03904
-0.0244,0.02928,-0.03416,-0.02196,-0.00976,-0.00732,0.00488,-0.02928,-0.02928,-0.0244,-0.06344,-0.03904
-0.0244,0.02928,-0.03416,-0.02196,-0.00976,-0.00732,0.00976,-0.0244,-0.03416,-0.0244,-0.06832,-0.03904
-0.01952,0.02928,-0.03904,-0.02928,-0.01952,0,0.00488,-0.0244,-0.03416,-0.0244,-0.06832,-0.02928
-0.0244,0.02928,-0.03416,-0.02196,-0.00976,-0.00732,0.00488,-0.0244,-0.03416,-0.02928,-0.06832,-0.02928
-0.0244,0.03172,-0.03904,-0.02684,-0.01464,-0.00488,-0.00488,-0.0244,-0.03416,-0.02928,-0.07808,-0.03904
-0.0244,0.03172,-0.03904,-0.02684,-0.01464,-0.00488,0,-0.01952,-0.03904,-0.02928,-0.07808,-0.0488
-0.01952,0.0244,-0.02928,-0.01952,-0.00976,-0.00488,-0.00488,-0.00976,-0.02928,-0.01952,-0.06832,-0.03904
-0.01952,0.0244,-0.02928,-0.01952,-0.00976,-0.00488,-0.00488,0,-0.02928,-0.01952,-0.06344,-0.03904
-0.01952,0.0244,-0.02928,-0.01952,-0.00976,-0.00488,-0.00488,-0.00488,-0.03904,-0.01952,-0.0732,-0.03904
-0.01952,0.0244,-0.02928,-0.01952,-0.00976,-0.00488,-0.00976,-0.00976,-0.03904,-0.01952,-0.0732,-0.03904
-0.01464,0.02684,-0.03904,-0.03172,-0.0244,0.00488,0.00488,0,-0.03904,-0.02928,-0.0732,-0.03904
-0.01464,0.02684,-0.03904,-0.03172,-0.0244,0.00488,0,0.00976,-0.04392,-0.02928,-0.0732,-0.03904
-0.01464,0.02684,-0.03904,-0.03172,-0.0244,0.00488,0,0.00976,-0.02928,-0.01952,-0.0732,-0.03904
-0.01464,0.02928,-0.04392,-0.0366,-0.02928,0.00732,0,0.00976,-0.02928,-0.01464,-0.06344,-0.03416
-0.01464,0.02196,-0.02928,-0.02196,-0.01464,0,0,0.01464,-0.02928,-0.01464,-0.06344,-0.0244
-0.01464,0.02196,-0.02928,-0.02196,-0.01464,0,0,0.01952,-0.02928,-0.01464,-0.06344,-0.0244
-0.01464,0.02196,-0.02928,-0.02196,-0.01464,0,0,0.01952,-0.0244,-0.00976,-0.05368,-0.0244
-0.01952,0.0244,-0.02928,-0.01952,-0.00976,-0.00488,0,0.0244,-0.01952,-0.00976,-0.05368,-0.01952
-0.01952,0.0244,-0.02928,-0.01952,-0.00976,-0.00488,0,0.01952,-0.01952,-0.01464,-0.0488,-0.01952
-0.01464,0.02196,-0.02928,-0.02196,-0.01464,0,0,0.01464,-0.01952,-0.01464,-0.0488,-0.01952
-0.01464,0.01952,-0.0244,-0.01708,-0.00976,-0.00244,0,0.01952,-0.00976,-0.00488,-0.0488,-0.00976
-0.01464,0.01952,-0.0244,-0.01708,-0.00976,-0.00244,-0.00488,0.0244,-0.00976,0.00488,-0.04392,-0.00976
-0.01464,0.01464,-0.01464,-0.00732,0,-0.00732,0,0.02928,-0.01952,0,-0.04392,-0.01952
-0.00976,0.0122,-0.01464,-0.00976,-0.00488,-0.00244,0,0.02928,-0.01464,0,-0.03904,-0.01464
-0.00976,0.00976,-0.00976,-0.00488,0,-0.00488,-0.00976,0.03904,-0.01464,0.00488,-0.03904,-0.01464
-0.00976,0.0122,-0.01464,-0.00976,-0.00488,-0.00244,-0.00976,0.04392,-0.01464,0.00488,-0.03904,-0.01464
-0.01952,0.02196,-0.0244,-0.01464,-0.00488,-0.00732,-0.00976,0.04392,-0.01464,0.00488,-0.04392,-0.00976
-0.01952,0.02196,-0.0244,-0.01464,-0.00488,-0.00732,-0.00976,0.04392,-0.00976,0.00488,-0.04392,-0.00976
-0.00976,0.01708,-0.0244,-0.01952,-0.01464,0.00244,0,0.03416,-0.00976,-0.00488,-0.04392,-0.01464
-0.00976,0.01464,-0.01952,-0.01464,-0.00976,0,0,0.03416,-0.00488,-0.00488,-0.04392,-0.01464
-0.01952,0.01952,-0.01952,-0.00976,0,-0.00976,0,0.0244,-0.00488,-0.00488,-0.03416,-0.01952
-0.01952,0.01952,-0.01952,-0.00976,0,-0.00976,0,0.01952,-0.00488,0,-0.03416,-0.01464
-0.00976,0.01464,-0.01952,-0.01464,-0.00976,0,-0.00976,0.00976,-0.01464,0,-0.04392,-0.01464
-0.00976,0.01464,-0.01952,-0.01464,-0.00976,0,-0.00488,0.00488,-0.01464,0,-0.04392,-0.01464
-0.00976,0.00976,-0.00976,-0.00488,0,-0.00488,-0.00976,0.00976,-0.00488,0,-0.04392,-0.0244
-0.01464,0.0122,-0.00976,-0.00244,0.00488,-0.00976,-0.00976,0.01464,-0.00488,0.00488,-0.03904,-0.0244
-0.01464,0.0122,-0.00976,-0.00244,0.00488,-0.00976,-0.00488,0.00976,-0.00488,0,-0.03904,-0.01952
-0.01464,0.0122,-0.00976,-0.00244,0.00488,-0.00976,-0.00488,0.00976,-0.00488,0,-0.04392,-0.01952
-0.01464,0.0122,-0.00976,-0.00244,0.00488,-0.00976,-0.00488,0.00488,-0.00488,0,-0.04392,-0.01952
-0.01464,0.0122,-0.00976,-0.00244,0.00488,-0.00976,-0.00488,0.00488,-0.00488,0,-0.04392,-0.01464
-0.0244,0.01708,-0.00976,0.00244,0.01464,-0.01952,-0.00488,0.00488,-0.00976,0,-0.04392,-0.01464
-0.0244,0.01952,-0.01464,-0.00244,0.00976,-0.01708,-0.00488,0,-0.00976,-0.00488,-0.04392,-0.01952
-0.0244,0.01952,-0.01464,-0.00244,0.00976,-0.01708,0.00488,0,-0.00976,-0.00488,-0.0488,-0.0244
-0.02928,0.02196,-0.01464,0,0.01464,-0.02196,0.00488,0,-0.00976,-0.00488,-0.0488,-0.0244
-0.02928,0.02196,-0.01464,0,0.01464,-0.02196,0,0.00976,-0.00976,-0.00976,-0.0488,-0.0244
-0.02928,0.02196,-0.01464,0,0.01464,-0.02196,0,0.00488,-0.01464,-0.00976,-0.0488,-0.0244
-0.02928,0.02684,-0.0244,-0.00976,0.00488,-0.01708,0,0.01464,-0.0244,-0.00976,-0.05368,-0.01952
-0.03416,0.03172,-0.02928,-0.0122,0.00488,-0.01952,0,0.01464,-0.02928,-0.00976,-0.05368,-0.01952
-0.0244,0.02684,-0.02928,-0.01708,-0.00488,-0.00976,0.00488,0.00976,-0.02928,-0.01464,-0.05368,-0.02928
-0.0244,0.02684,-0.02928,-0.01708,-0.00488,-0.00976,0.00976,0.00976,-0.02928,-0.01464,-0.05856,-0.02928
-0.0244,0.02684,-0.02928,-0.01708,-0.00488,-0.00976,0.00488,0.01952,-0.0244,-0.01952,-0.05856,-0.03416
-0.0244,0.02684,-0.02928,-0.01708,-0.00488,-0.00976,0,0.01952,-0.0244,-0.01952,-0.05856,-0.03416
-0.0244,0.02928,-0.03416,-0.02196,-0.00976,-0.00732,0,0.01952,-0.02928,-0.02928,-0.05856,-0.0244
-0.0244,0.02928,-0.03416,-0.02196,-0.00976,-0.00732,0,0.01952,-0.02928,-0.03416,-0.06344,-0.02928
-0.03416,0.02928,-0.0244,-0.00732,0.00976,-0.02196,-0.00488,0.01952,-0.03416,-0.03416,-0.05368,-0.03904
-0.03416,0.02928,-0.0244,-0.00732,0.00976,-0.02196,-0.00488,0.01952,-0.03416,-0.03416,-0.05856,-0.03904
-0.03416,0.03416,-0.03416,-0.01708,0,-0.01708,0.00488,0.01952,-0.03416,-0.02928,-0.06832,-0.03904
-0.03416,0.0366,-0.03904,-0.02196,-0.00488,-0.01464,0.00976,0.01952,-0.03416,-0.02928,-0.06832,-0.03904
-0.03416,0.02928,-0.0244,-0.00732,0.00976,-0.02196,0,0.02928,-0.03904,-0.03904,-0.06832,-0.03416
-0.03416,0.02928,-0.0244,-0.00732,0.00976,-0.02196,0,0.02928,-0.03904,-0.03904,-0.0732,-0.03416
-0.03416,0.03416,-0.03416,-0.01708,0,-0.01708,-0.00488,0.0244,-0.03904,-0.03416,-0.06344,-0.03416
-0.03416,0.03416,-0.03416,-0.01708,0,-0.01708,-0.00488,0.0244,-0.04392,-0.03416,-0.06344,-0.03416
-0.04392,0.03904,-0.03416,-0.0122,0.00976,-0.02684,-0.00488,0.0244,-0.03904,-0.03416,-0.06344,-0.04392
-0.04392,0.03904,-0.03416,-0.0122,0.00976,-0.02684,0,0.0244,-0.04392,-0.03416,-0.06344,-0.04392
-0.03416,0.03416,-0.03416,-0.01708,0,-0.01708,0,0.0244,-0.04392,-0.02928,-0.06832,-0.03904
-0.03416,0.0366,-0.03904,-0.02196,-0.00488,-0.01464,0,0.0244,-0.04392,-0.02928,-0.06832,-0.03904
-0.03416,0.03172,-0.02928,-0.0122,0.00488,-0.01952,0.00488,0.02928,-0.05856,-0.03904,-0.07808,-0.0488
-0.03416,0.03172,-0.02928,-0.0122,0.00488,-0.01952,0.00488,0.02928,-0.05856,-0.03904,-0.07808,-0.0488
-0.03416,0.0366,-0.03904,-0.02196,-0.00488,-0.01464,-0.00488,0.02928,-0.05856,-0.03904,-0.07808,-0.04392
-0.03904,0.04148,-0.04392,-0.0244,-0.00488,-0.01708,0,0.02928,-0.05368,-0.03904,-0.07808,-0.04392
-0.03904,0.0366,-0.03416,-0.01464,0.00488,-0.02196,0,0.02928,-0.0488,-0.02928,-0.06832,-0.04392
-0.03904,0.0366,-0.03416,-0.01464,0.00488,-0.02196,0,0.0244,-0.0488,-0.03416,-0.06832,-0.04392
-0.02928,0.0366,-0.04392,-0.02928,-0.01464,-0.00732,0,0.03416,-0.0488,-0.03904,-0.06832,-0.04392
-0.02928,0.03416,-0.03904,-0.0244,-0.00976,-0.00976,0.00488,0.03416,-0.0488,-0.04392,-0.0732,-0.04392
-0.02928,0.03904,-0.0488,-0.03416,-0.01952,-0.00488,-0.00488,0.0244,-0.0488,-0.04392,-0.0732,-0.04392
-0.02928,0.0366,-0.04392,-0.02928,-0.01464,-0.00732,-0.00488,0.0244,-0.0488,-0.04392,-0.0732,-0.04392
-0.03416,0.03904,-0.04392,-0.02684,-0.00976,-0.0122,0.00488,0.0244,-0.0488,-0.04392,-0.0732,-0.05368
-0.03416,0.03904,-0.04392,-0.02684,-0.00976,-0.0122,0.00488,0.01952,-0.0488,-0.04392,-0.0732,-0.05368
-0.03904,0.04148,-0.04392,-0.0244,-0.00488,-0.01708,0.00488,0.01952,-0.0488,-0.04392,-0.0732,-0.04392
-0.03416,0.03904,-0.04392,-0.02684,-0.00976,-0.0122,0.00488,0.01952,-0.0488,-0.04392,-0.0732,-0.04392
-0.03904,0.04148,-0.04392,-0.0244,-0.00488,-0.01708,0.00488,0.01952,-0.0488,-0.03416,-0.0732,-0.04392
-0.03904,0.04148,-0.04392,-0.0244,-0.00488,-0.01708,0.00488,0.01952,-0.0488,-0.03416,-0.0732,-0.04392
-0.03904,0.0366,-0.03416,-0.01464,0.00488,-0.02196,-0.00488,0.01952,-0.0488,-0.03416,-0.0732,-0.04392
-0.03904,0.0366,-0.03416,-0.01464,0.00488,-0.02196,-0.00488,0.01952,-0.0488,-0.03416,-0.0732,-0.04392
-0.02928,0.03172,-0.03416,-0.01952,-0.00488,-0.0122,0,0.00976,-0.0488,-0.04392,-0.07808,-0.04392
-0.02928,0.03416,-0.03904,-0.0244,-0.00976,-0.00976,0,0.00488,-0.0488,-0.04392,-0.07808,-0.04392
-0.02928,0.0366,-0.04392,-0.02928,-0.01464,-0.00732,0.00976,0.00488,-0.0488,-0.04392,-0.0732,-0.04392
-0.02928,0.0366,-0.04392,-0.02928,-0.01464,-0.00732,0.00976,0.00976,-0.0488,-0.04392,-0.06832,-0.04392
-0.02928,0.0366,-0.04392,-0.02928,-0.01464,-0.00732,0,0.01464,-0.0488,-0.04392,-0.07808,-0.04392
-0.02928,0.0366,-0.04392,-0.02928,-0.01464,-0.00732,0,0.01464,-0.0488,-0.04392,-0.07808,-0.04392
-0.02928,0.0366,-0.04392,-0.02928,-0.01464,-0.00732,0.00488,0.00488,-0.0488,-0.03416,-0.07808,-0.04392
-0.02928,0.0366,-0.04392,-0.02928,-0.01464,-0.00732,0.00488,0.00976,-0.0488,-0.03416,-0.07808,-0.04392
-0.03904,0.04148,-0.04392,-0.0244,-0.00488,-0.01708,0.00976,0.01952,-0.04392,-0.03416,-0.0732,-0.04392
-0.02928,0.03416,-0.03904,-0.0244,-0.00976,-0.00976,0,0.01952,-0.0488,-0.03904,-0.07808,-0.0488
-0.02928,0.03904,-0.0488,-0.03416,-0.01952,-0.00488,0,0.01952,-0.05856,-0.0488,-0.07808,-0.0488
-0.02928,0.03904,-0.0488,-0.03416,-0.01952,-0.00488,0,0.01952,-0.05856,-0.0488,-0.07808,-0.0488
-0.02928,0.03904,-0.0488,-0.03416,-0.01952,-0.00488,0,0.01952,-0.05856,-0.0488,-0.07808,-0.0488
-0.02928,0.03904,-0.0488,-0.03416,-0.01952,-0.00488,0,0.01952,-0.05856,-0.0488,-0.07808,-0.0488
-0.02928,0.03416,-0.03904,-0.0244,-0.00976,-0.00976,0,0.00976,-0.0488,-0.0488,-0.07808,-0.0488
-0.02928,0.03416,-0.03904,-0.0244,-0.00976,-0.00976,0,0.00976,-0.0488,-0.0488,-0.07808,-0.0488
-0.02928,0.03904,-0.0488,-0.03416,-0.01952,-0.00488,0,0.00976,-0.05856,-0.03904,-0.08784,-0.05856
-0.02928,0.03904,-0.0488,-0.03416,-0.01952,-0.00488,0,0.00976,-0.05856,-0.03904,-0.08784,-0.05856
-0.03904,0.04392,-0.0488,-0.02928,-0.00976,-0.01464,0,0.00976,-0.0488,-0.03904,-0.07808,-0.0488
-0.03904,0.04392,-0.0488,-0.02928,-0.00976,-0.01464,0,0.00976,-0.0488,-0.03904,-0.07808,-0.0488
-0.03904,0.04392,-0.0488,-0.02928,-0.00976,-0.01464,0,0.00976,-0.0488,-0.03904,-0.07808,-0.0488
-0.03904,0.04392,-0.0488,-0.02928,-0.00976,-0.01464,0,0.00976,-0.0488,-0.03904,-0.07808,-0.0488
-0.03904,0.04392,-0.0488,-0.02928,-0.00976,-0.01464,0,0.00976,-0.0488,-0.03904,-0.07808,-0.0488
-0.03904,0.04392,-0.0488,-0.02928,-0.00976,-0.01464,0,0.00976,-0.0488,-0.03904,-0.07808,-0.0488
-0.02928,0.03904,-0.0488,-0.03416,-0.01952,-0.00488,0,0.00976,-0.05856,-0.0488,-0.07808,-0.0488
-0.02928,0.03904,-0.0488,-0.03416,-0.01952,-0.00488,0,0.00976,-0.05856,-0.0488,-0.07808,-0.0488
-0.03904,0.0488,-0.05856,-0.03904,-0.01952,-0.00976,0,0.00976,-0.05856,-0.0488,-0.07808,-0.05856
-0.03904,0.0488,-0.05856,-0.03904,-0.01952,-0.00976,0,0.00976,-0.05856,-0.0488,-0.07808,-0.05856
-0.02928,0.03904,-0.0488,-0.03416,-0.01952,-0.00488,0,0.00976,-0.05856,-0.0488,-0.07808,-0.0488
-0.02928,0.03904,-0.0488,-0.03416,-0.01952,-0.00488,0,0.00976,-0.05368,-0.0488,-0.07808,-0.0488
-0.02928,0.0366,-0.04392,-0.02928,-0.01464,-0.00732,0.00488,0.00488,-0.05368,-0.04392,-0.0732,-0.0488
-0.01952,0.02684,-0.03416,-0.0244,-0.01464,-0.00244,0.00488,0.01464,-0.03904,-0.03904,-0.0732,-0.03904
-0.01952,0.01952,-0.01952,-0.00976,0,-0.00976,-0.00488,0.0244,-0.02928,-0.0244,-0.0488,-0.02928
-0.01464,0.00732,0,0.00732,0.01464,-0.01464,-0.00488,0.03416,-0.00976,-0.00976,-0.03416,-0.01952
-0.00488,-0.00976,0.0244,0.02684,0.02928,-0.01708,0.00976,0.03416,0.01464,0.00488,-0.03416,-0.00488
-0.00976,-0.0122,0.03416,0.03904,0.04392,-0.02684,0.00976,0.03416,0.0244,0.01464,-0.0244,-0.00488
-0.00488,-0.00976,0.0244,0.02684,0.02928,-0.01708,0.01464,0.04392,0.0244,0.0244,-0.01464,0
-0.00488,-0.00976,0.0244,0.02684,0.02928,-0.01708,0.01464,0.04392,0.0244,0.0244,-0.00976,0
-0.00488,0.00488,-0.00488,-0.00244,0,-0.00244,0.01952,0.05856,0.0244,0.0244,-0.02928,-0.00488
0,0.00732,-0.01464,-0.01464,-0.01464,0.00732,0.0244,0.06344,0.0244,0.01464,-0.03416,-0.00488
0,0.00732,-0.01464,-0.01464,-0.01464,0.00732,0.0244,0.05856,0.0244,0.00976,-0.03416,-0.00488
0,0.00976,-0.01952,-0.01952,-0.01952,0.00976,0.0244,0.05368,0.00488,0,-0.03904,-0.01952
0,0.00976,-0.01952,-0.01952,-0.01952,0.00976,0.00488,0.05368,-0.00488,-0.00488,-0.03904,-0.01952
0,0.01708,-0.03416,-0.03416,-0.03416,0.01708,-0.00488,0.04392,-0.0244,-0.0244,-0.0488,-0.02928
-0.00488,0.02196,-0.03904,-0.0366,-0.03416,0.01464,-0.00976,0.01464,-0.05856,-0.0488,-0.06832,-0.0488
-0.00488,0.02684,-0.0488,-0.04636,-0.04392,0.01952,-0.01952,0,-0.06832,-0.05368,-0.08296,-0.05368
-0.00976,0.03416,-0.05856,-0.05368,-0.0488,0.01952,-0.01464,0.00976,-0.06344,-0.03904,-0.07808,-0.05368
-0.00976,0.02684,-0.04392,-0.03904,-0.03416,0.0122,-0.01464,0.00976,-0.06344,-0.03416,-0.0732,-0.05368
-0.00976,0.02928,-0.0488,-0.04392,-0.03904,0.01464,-0.01464,0.00976,-0.0488,-0.03416,-0.0732,-0.03904
-0.00976,0.02928,-0.0488,-0.04392,-0.03904,0.01464,-0.00976,0.01464,-0.0488,-0.03416,-0.07808,-0.04392
-0.00976,0.03416,-0.05856,-0.05368,-0.0488,0.01952,-0.00976,0.00976,-0.0732,-0.05368,-0.08296,-0.0488
-0.00976,0.03904,-0.06832,-0.06344,-0.05856,0.0244,-0.00488,0.00488,-0.0732,-0.05856,-0.08296,-0.05368
-0.01952,0.03416,-0.0488,-0.03904,-0.02928,0.00488,-0.00488,0.01464,-0.06344,-0.0488,-0.07808,-0.05368
-0.0244,0.03416,-0.04392,-0.03172,-0.01952,-0.00244,-0.00976,0.01464,-0.06344,-0.0488,-0.07808,-0.0488
-0.01464,0.02196,-0.02928,-0.02196,-0.01464,0,-0.00488,0.01464,-0.05856,-0.0488,-0.07808,-0.04392
-0.02928,0.02684,-0.0244,-0.00976,0.00488,-0.01708,-0.00488,0.01464,-0.0488,-0.0488,-0.06832,-0.03904
-0.03416,0.03416,-0.03416,-0.01708,0,-0.01708,0,0.01464,-0.04392,-0.04392,-0.06832,-0.03904
-0.04392,0.04392,-0.04392,-0.02196,0,-0.02196,0.00488,0.01464,-0.05856,-0.05368,-0.08296,-0.0488
-0.0488,0.05124,-0.05368,-0.02928,-0.00488,-0.02196,0.00976,0.0244,-0.06832,-0.06832,-0.09272,-0.06832
-0.0488,0.05612,-0.06344,-0.03904,-0.01464,-0.01708,0.00976,0.01952,-0.07808,-0.0732,-0.0976,-0.07808
-0.05856,0.06832,-0.07808,-0.0488,-0.01952,-0.01952,0.00976,0.01464,-0.07808,-0.0732,-0.10248,-0.0732
-0.06344,0.06832,-0.0732,-0.04148,-0.00976,-0.02684,0.00976,0.01464,-0.07808,-0.0732,-0.10248,-0.06832
-0.05368,0.05856,-0.06344,-0.0366,-0.00976,-0.02196,0.00976,0.01952,-0.08296,-0.06832,-0.08784,-0.07808
-0.05856,0.061,-0.06344,-0.03416,-0.00488,-0.02684,0.00976,0.01952,-0.08296,-0.06832,-0.08784,-0.07808
-0.05856,0.05856,-0.05856,-0.02928,0,-0.02928,0,0.00976,-0.0732,-0.06832,-0.0976,-0.06832
-0.05856,0.05612,-0.05368,-0.0244,0.00488,-0.03172,0,0.00976,-0.0732,-0.06832,-0.0976,-0.06344
-0.05856,0.061,-0.06344,-0.03416,-0.00488,-0.02684,0,0.00976,-0.06832,-0.05368,-0.08784,-0.06344
-0.05368,0.05612,-0.05856,-0.03172,-0.00488,-0.0244,-0.00488,0.00488,-0.06832,-0.05368,-0.08784,-0.06344
-0.05368,0.05612,-0.05856,-0.03172,-0.00488,-0.0244,0,0.00488,-0.07808,-0.05368,-0.08296,-0.06344
-0.05856,0.05856,-0.05856,-0.02928,0,-0.02928,0,0.00488,-0.0732,-0.05368,-0.08296,-0.05856
-0.06832,0.061,-0.05368,-0.01952,0.01464,-0.04148,0.00976,0,-0.06344,-0.05856,-0.08296,-0.06832
-0.07808,0.06832,-0.05856,-0.01952,0.01952,-0.0488,0.03904,0.00976,-0.05368,-0.0488,-0.0976,-0.07808
-0.08784,0.07808,-0.06832,-0.0244,0.01952,-0.05368,0.06344,0.02928,-0.0488,-0.06832,-0.122,-0.10736
-0.0976,0.0854,-0.0732,-0.0244,0.0244,-0.061,0.0976,0.06832,-0.0244,-0.06344,-0.13664,-0.12688
-0.08296,0.08296,-0.08296,-0.04148,0,-0.04148,0.11224,0.11224,0.02928,-0.01952,-0.10248,-0.0976
-0.0488,0.05124,-0.05368,-0.02928,-0.00488,-0.02196,0.14152,0.18544,0.13664,0.0732,-0.00488,-0.0244
0.07808,-0.04392,0.00976,-0.02928,-0.06832,0.0732,0.08784,0.26352,0.24888,0.20008,0.13664,0.10736
0.27328,-0.22692,0.18056,0.04392,-0.09272,0.183,-0.00976,0.3416,0.4392,0.41968,0.34648,0.3416
0.45872,-0.45628,0.45384,0.22448,-0.00488,0.2318,-0.18544,0.35136,0.6588,0.70272,0.67344,0.6588
0.66368,-0.67832,0.69296,0.36112,0.02928,0.3172,-0.40992,0.23424,0.72712,0.90768,0.93208,0.94672
0.74176,-0.74664,0.75152,0.38064,0.00976,0.366,-0.5368,0.14152,0.6832,0.97112,1.05408,1.08336
0.69784,-0.72712,0.7564,0.40748,0.05856,0.31964,-0.59536,-0.00488,0.65392,0.99064,1.09312,1.12728
0.54656,-0.55388,0.5612,0.28792,0.01464,0.26596,-0.54656,-0.15616,0.42456,0.75152,0.85888,0.93208
0.28792,-0.30744,0.32696,0.183,0.03904,0.12444,-0.43432,-0.32696,-0.11712,0.2196,0.38064,0.5368
0.0488,-0.08296,0.11712,0.09272,0.06832,-0.00976,-0.27328,-0.366,-0.42456,-0.1464,0.03416,0.2196
-0.03416,0.02928,-0.0244,-0.00732,0.00976,-0.02196,-0.20008,-0.35136,-0.61,-0.33672,-0.1708,0.02928
-0.0488,0.061,-0.0732,-0.0488,-0.0244,-0.0122,-0.10736,-0.22936,-0.54168,-0.3416,-0.22936,-0.06344
-0.0488,0.07076,-0.09272,-0.06832,-0.04392,-0.00244,-0.01952,-0.10736,-0.40992,-0.25864,-0.18544,-0.06344
-0.05856,0.0732,-0.08784,-0.05856,-0.02928,-0.01464,0.02928,-0.0244,-0.23912,-0.1708,-0.13664,-0.06344
-0.00976,0.04392,-0.07808,-0.0732,-0.06832,0.02928,0.0244,0.03904,-0.13664,-0.10248,-0.11712,-0.06344
-0.01464,0.03904,-0.06344,-0.05612,-0.0488,0.01708,0.0244,0.03904,-0.09272,-0.06344,-0.08784,-0.0488
-0.0244,0.02928,-0.03416,-0.02196,-0.00976,-0.00732,0.0244,0.01464,-0.07808,-0.04392,-0.05856,-0.03904
-0.04392,0.03904,-0.03416,-0.0122,0.00976,-0.02684,0.01464,-0.00976,-0.05856,-0.0488,-0.06344,-0.03904
-0.04392,0.03904,-0.03416,-0.0122,0.00976,-0.02684,0.00976,-0.01952,-0.03904,-0.03416,-0.05368,-0.03416
-0.0488,0.04148,-0.03416,-0.00976,0.01464,-0.03172,0,-0.03904,-0.04392,-0.03416,-0.05856,-0.04392
-0.0488,0.04148,-0.03416,-0.00976,0.01464,-0.03172,0,-0.04392,-0.0488,-0.03416,-0.05856,-0.0488
-0.05368,0.04392,-0.03416,-0.00732,0.01952,-0.0366,0.00976,-0.04392,-0.0488,-0.04392,-0.06344,-0.05368
-0.05368,0.04392,-0.03416,-0.00732,0.01952,-0.0366,0.00976,-0.05856,-0.0488,-0.04392,-0.06344,-0.05368
-0.05368,0.0488,-0.04392,-0.01708,0.00976,-0.03172,0.00976,-0.06344,-0.03904,-0.04392,-0.06344,-0.05368
-0.05856,0.05368,-0.0488,-0.01952,0.00976,-0.03416,0.00976,-0.06344,-0.03904,-0.04392,-0.05856,-0.0488
-0.05856,0.05124,-0.04392,-0.01464,0.01464,-0.0366,0.01464,-0.06344,-0.03904,-0.03904,-0.06832,-0.04392
-0.06344,0.05368,-0.04392,-0.0122,0.01952,-0.04148,0.01464,-0.06344,-0.03904,-0.03904,-0.0732,-0.04392
-0.0732,0.05368,-0.03416,0.00244,0.03904,-0.05612,0.01464,-0.05856,-0.03904,-0.03904,-0.06344,-0.04392
-0.0732,0.05368,-0.03416,0.00244,0.03904,-0.05612,0.01464,-0.05368,-0.03904,-0.03904,-0.06344,-0.04392
-0.06832,0.05612,-0.04392,-0.00976,0.0244,-0.04636,0.01464,-0.03904,-0.03904,-0.04392,-0.06344,-0.04392
-0.06832,0.05612,-0.04392,-0.00976,0.0244,-0.04636,0.01464,-0.02928,-0.03904,-0.04392,-0.06344,-0.04392
-0.06832,0.05856,-0.0488,-0.01464,0.01952,-0.04392,0.01464,-0.00976,-0.03416,-0.03904,-0.06344,-0.04392
-0.06832,0.05856,-0.0488,-0.01464,0.01952,-0.04392,0.01464,-0.00488,-0.03904,-0.03904,-0.06832,-0.04392
-0.06832,0.05368,-0.03904,-0.00488,0.02928,-0.0488,0.01464,-0.00488,-0.03904,-0.03416,-0.06344,-0.04392
-0.06344,0.05124,-0.03904,-0.00732,0.0244,-0.04392,0.01464,-0.00976,-0.03416,-0.03416,-0.05856,-0.04392
-0.06344,0.05124,-0.03904,-0.00732,0.0244,-0.04392,0.0244,-0.01952,-0.03416,-0.02928,-0.05856,-0.03904
-0.05856,0.0488,-0.03904,-0.00976,0.01952,-0.03904,0.0244,-0.0244,-0.02928,-0.02928,-0.05856,-0.03904
-0.06832,0.05368,-0.03904,-0.00488,0.02928,-0.0488,0.02928,-0.01464,-0.01952,-0.02928,-0.05856,-0.03904
-0.06832,0.05368,-0.03904,-0.00488,0.02928,-0.0488,0.02928,-0.0244,-0.01952,-0.0244,-0.05856,-0.03904
-0.05856,0.0488,-0.03904,-0.00976,0.01952,-0.03904,0.01952,-0.0244,-0.01952,-0.0244,-0.0488,-0.03904
-0.05368,0.04392,-0.03416,-0.00732,0.01952,-0.0366,0.01952,-0.02928,-0.01952,-0.0244,-0.0488,-0.03904
-0.05368,0.04148,-0.02928,-0.00244,0.0244,-0.03904,0.00976,-0.03904,-0.0244,-0.02928,-0.05368,-0.03416
-0.0488,0.03904,-0.02928,-0.00488,0.01952,-0.03416,0.01464,-0.04392,-0.01952,-0.02928,-0.05368,-0.03416
-0.05856,0.03904,-0.01952,0.00976,0.03904,-0.0488,0.01464,-0.0488,-0.00976,-0.01952,-0.05368,-0.04392
-0.05856,0.03904,-0.01952,0.00976,0.03904,-0.0488,0.01464,-0.0488,-0.00976,-0.01952,-0.05368,-0.04392
-0.04392,0.0366,-0.02928,-0.00732,0.01464,-0.02928,0.01464,-0.05368,-0.00488,-0.01952,-0.03904,-0.02928
-0.04392,0.0366,-0.02928,-0.00732,0.01464,-0.02928,0.01464,-0.05368,-0.00488,-0.01952,-0.03904,-0.02928
-0.04392,0.03416,-0.0244,-0.00244,0.01952,-0.03172,0.00976,-0.05368,-0.00488,-0.00488,-0.03904,-0.0244
-0.03904,0.03172,-0.0244,-0.00488,0.01464,-0.02684,0.00976,-0.05368,0,-0.00488,-0.03416,-0.01952
-0.03416,0.02196,-0.00976,0.00732,0.0244,-0.02928,0.01464,-0.0244,0.00488,0.00488,-0.01952,-0.01464
-0.02928,0.01952,-0.00976,0.00488,0.01952,-0.0244,0.00976,-0.01952,0.01952,0.01464,-0.01952,-0.01464
-0.03904,0.02196,-0.00488,0.01464,0.03416,-0.0366,0.00976,-0.00976,0.02928,0.01464,-0.00976,-0.00488
-0.03416,0.01464,0.00488,0.02196,0.03904,-0.0366,0.00976,0.00488,0.03904,0.0244,0,0
-0.02928,0.00488,0.01952,0.03416,0.0488,-0.03904,0.00488,0.00976,0.03904,0.03904,0.00488,0.00976
-0.01952,0,0.01952,0.02928,0.03904,-0.02928,0,0.01952,0.04392,0.03904,0.00488,0.01464
-0.01952,-0.00244,0.0244,0.03416,0.04392,-0.03172,-0.01464,0.0244,0.05856,0.04392,0.01464,0.01464
-0.01464,-0.00488,0.0244,0.03172,0.03904,-0.02684,-0.01464,0.03416,0.05856,0.05856,0.0244,0.02928
0.00488,-0.01708,0.02928,0.02684,0.0244,-0.00976,-0.01464,0.05368,0.06832,0.05856,0.03904,0.03904
0.01464,-0.02928,0.04392,0.0366,0.02928,-0.00732,-0.00976,0.05368,0.0732,0.06344,0.04392,0.05368
0.01952,-0.0366,0.05368,0.04392,0.03416,-0.00732,-0.01464,0.05856,0.07808,0.06832,0.0488,0.05856
0.01952,-0.0366,0.05368,0.04392,0.03416,-0.00732,-0.01952,0.05368,0.08784,0.07808,0.05856,0.05856
0.03904,-0.0488,0.05856,0.03904,0.01952,0.00976,-0.03904,0.05856,0.09272,0.08296,0.05368,0.0732
0.04392,-0.05856,0.0732,0.05124,0.02928,0.00732,-0.0488,0.06344,0.0976,0.09272,0.06344,0.0732
0.03904,-0.05856,0.07808,0.05856,0.03904,0,-0.03904,0.06832,0.10736,0.10248,0.0732,0.08296
0.03904,-0.06344,0.08784,0.06832,0.0488,-0.00488,-0.04392,0.06344,0.122,0.11224,0.08784,0.08784
0.05856,-0.07564,0.09272,0.06344,0.03416,0.0122,-0.04392,0.0488,0.12688,0.10736,0.08784,0.0976
0.05856,-0.08052,0.10248,0.0732,0.04392,0.00732,-0.0488,0.04392,0.12688,0.10736,0.08784,0.10248
0.06344,-0.09028,0.11712,0.0854,0.05368,0.00488,-0.05368,0.03904,0.13664,0.13176,0.0976,0.10248
0.06344,-0.09028,0.11712,0.0854,0.05368,0.00488,-0.05856,0.03904,0.14152,0.13664,0.10736,0.11224
0.05856,-0.09028,0.122,0.09272,0.06344,-0.00244,-0.06344,0.03416,0.15128,0.13664,0.11712,0.122
0.05856,-0.09272,0.12688,0.0976,0.06832,-0.00488,-0.06344,0.0244,0.15128,0.14152,0.11712,0.12688
0.06344,-0.09516,0.12688,0.09516,0.06344,0,-0.0732,0.00976,0.15128,0.14152,0.11224,0.122
0.06344,-0.09516,0.12688,0.09516,0.06344,0,-0.0732,0.01464,0.15616,0.14152,0.11224,0.122
0.06344,-0.09272,0.122,0.09028,0.05856,0.00244,-0.06344,0.01952,0.15616,0.13176,0.10248,0.11224
0.05856,-0.09028,0.122,0.09272,0.06344,-0.00244,-0.05856,0.00976,0.15616,0.13664,0.0976,0.10736
0.0488,-0.08052,0.11224,0.08784,0.06344,-0.00732,-0.05856,0.00976,0.13664,0.11712,0.08784,0.0976
0.0488,-0.07808,0.10736,0.08296,0.05856,-0.00488,-0.0488,0,0.13176,0.11224,0.08296,0.09272
0.02928,-0.06344,0.0976,0.08296,0.06832,-0.01952,-0.0488,0,0.11712,0.10248,0.07808,0.08296
0.01952,-0.05368,0.08784,0.07808,0.06832,-0.0244,-0.04392,-0.01464,0.10248,0.0976,0.05856,0.06832
0.01464,-0.04148,0.06832,0.061,0.05368,-0.01952,-0.03904,-0.00976,0.0976,0.08296,0.05368,0.0488
0.00976,-0.03172,0.05368,0.0488,0.04392,-0.01708,-0.03416,-0.01464,0.08296,0.06344,0.03904,0.03904
0.00488,-0.02928,0.05368,0.05124,0.0488,-0.02196,-0.01952,-0.0244,0.0732,0.05368,0.02928,0.0244
-0.00488,-0.01952,0.04392,0.04636,0.0488,-0.02684,-0.01464,-0.02928,0.05368,0.04392,0.01464,0.01952
-0.01464,-0.00488,0.0244,0.03172,0.03904,-0.02684,-0.01952,-0.0244,0.05368,0.01464,0,0.00488
-0.01464,0,0.01464,0.02196,0.02928,-0.02196,-0.01464,-0.02928,0.04392,0.01464,-0.00976,-0.00488
-0.00976,-0.00244,0.01464,0.01952,0.0244,-0.01708,-0.01464,-0.03904,0.02928,0.00488,-0.01952,-0.00976
-0.00976,0,0.00976,0.01464,0.01952,-0.01464,-0.00976,-0.03904,0.0244,0,-0.0244,-0.01952
-0.01464,0.0122,-0.00976,-0.00244,0.00488,-0.00976,-0.00488,-0.03904,0.00488,-0.01464,-0.0244,-0.0244
-0.01952,0.0122,-0.00488,0.00488,0.01464,-0.01708,-0.00488,-0.03904,0.00488,-0.0244,-0.02928,-0.0244
-0.01952,0.01464,-0.00976,0,0.00976,-0.01464,-0.00488,-0.03904,0.00488,-0.01464,-0.03904,-0.02928
-0.01952,0.01464,-0.00976,0,0.00976,-0.01464,-0.00488,-0.03904,-0.00976,-0.01952,-0.04392,-0.03416
-0.01952,0.01708,-0.01464,-0.00488,0.00488,-0.0122,-0.00488,-0.03904,0,-0.00976,-0.04392,-0.02928
-0.0244,0.01952,-0.01464,-0.00244,0.00976,-0.01708,-0.00488,-0.03904,-0.00488,-0.01464,-0.04392,-0.02928
-0.0244,0.02196,-0.01952,-0.00732,0.00488,-0.01464,0,-0.04392,-0.00488,-0.0244,-0.0488,-0.03904
-0.01952,0.01708,-0.01464,-0.00488,0.00488,-0.0122,-0.00488,-0.04392,-0.00488,-0.02928,-0.0488,-0.03904
-0.0244,0.02196,-0.01952,-0.00732,0.00488,-0.01464,-0.00488,-0.03416,-0.00488,-0.02928,-0.0488,-0.03904
-0.0244,0.02196,-0.01952,-0.00732,0.00488,-0.01464,0,-0.02928,-0.00488,-0.02928,-0.0488,-0.03904
-0.01952,0.01952,-0.01952,-0.00976,0,-0.00976,-0.00488,-0.02928,-0.01952,-0.02928,-0.0488,-0.03904
-0.01952,0.01952,-0.01952,-0.00976,0,-0.00976,-0.00488,-0.02928,-0.01952,-0.02928,-0.0488,-0.03904
-0.01952,0.01952,-0.01952,-0.00976,0,-0.00976,-0.00488,-0.01464,-0.00976,-0.02928,-0.04392,-0.03904
-0.01952,0.01952,-0.01952,-0.00976,0,-0.00976,-0.00976,-0.01464,-0.00976,-0.02928,-0.04392,-0.03904
-0.01952,0.0244,-0.02928,-0.01952,-0.00976,-0.00488,-0.00488,-0.00976,-0.00976,-0.02928,-0.04392,-0.02928
-0.01464,0.02196,-0.02928,-0.02196,-0.01464,0,-0.00488,-0.00488,-0.00976,-0.02928,-0.04392,-0.02928
-0.01464,0.01708,-0.01952,-0.0122,-0.00488,-0.00488,-0.00976,0,-0.01464,-0.02928,-0.05368,-0.03904
-0.01464,0.01952,-0.0244,-0.01708,-0.00976,-0.00244,-0.00976,0,-0.00976,-0.02928,-0.04392,-0.03904
-0.0244,0.02684,-0.02928,-0.01708,-0.00488,-0.00976,-0.00976,0.00488,-0.00976,-0.0244,-0.03416,-0.03416
-0.0244,0.02684,-0.02928,-0.01708,-0.00488,-0.00976,-0.00976,0.00488,-0.00976,-0.0244,-0.03416,-0.03416
-0.01464,0.02196,-0.02928,-0.02196,-0.01464,0,0,0.00488,-0.00488,-0.01464,-0.03416,-0.03416
-0.01464,0.02196,-0.02928,-0.02196,-0.01464,0,0,-0.00488,-0.00488,-0.00976,-0.03416,-0.02928
-0.01952,0.01952,-0.01952,-0.00976,0,-0.00976,0,-0.01464,0,-0.01952,-0.02928,-0.02928
-0.01464,0.01708,-0.01952,-0.0122,-0.00488,-0.00488,0,-0.00488,0,-0.01464,-0.02928,-0.02928
-0.0244,0.01952,-0.01464,-0.00244,0.00976,-0.01708,0,-0.00488,0.00976,-0.00488,-0.02928,-0.01952
-0.0244,0.01952,-0.01464,-0.00244,0.00976,-0.01708,0,0,0.00976,-0.00488,-0.02928,-0.01952
-0.01464,0.01464,-0.01464,-0.00732,0,-0.00732,-0.01464,-0.00488,0,-0.00976,-0.0244,-0.02928
-0.00976,0.0122,-0.01464,-0.00976,-0.00488,-0.00244,-0.00976,0,0.00488,-0.00976,-0.0244,-0.0244
-0.01952,0.02196,-0.0244,-0.01464,-0.00488,-0.00732,-0.00976,0.00976,0.01464,-0.00976,-0.01952,-0.0244
-0.01952,0.01952,-0.01952,-0.00976,0,-0.00976,-0.00976,0.01464,0.01464,-0.00488,-0.01952,-0.0244
-0.00976,0.0122,-0.01464,-0.00976,-0.00488,-0.00244,-0.00976,0.0244,0.01464,-0.00488,-0.02928,-0.01952
-0.00976,0.0122,-0.01464,-0.00976,-0.00488,-0.00244,-0.00976,0.0244,0.01464,-0.00488,-0.0244,-0.01952
-0.01952,0.01708,-0.01464,-0.00488,0.00488,-0.0122,-0.00976,0.0244,0.01952,0.00488,-0.01464,-0.01464
-0.01952,0.01708,-0.01464,-0.00488,0.00488,-0.0122,-0.00976,0.0244,0.01952,0.00488,-0.01464,-0.01464
-0.01952,0.01464,-0.00976,0,0.00976,-0.01464,-0.00976,0.0244,0.01464,0.00488,-0.00488,-0.01464
-0.01952,0.01464,-0.00976,0,0.00976,-0.01464,-0.00976,0.01952,0.01464,0.00976,-0.00488,-0.01952
-0.01952,0.01464,-0.00976,0,0.00976,-0.01464,-0.00976,0.01952,0.0244,0.00976,-0.00488,-0.00488
-0.01952,0.01464,-0.00976,0,0.00976,-0.01464,-0.00976,0.01464,0.0244,0.00976,-0.00488,-0.00488
-0.01952,0.01464,-0.00976,0,0.00976,-0.01464,-0.00488,0.01464,0.0244,0,-0.01464,-0.00488
-0.0244,0.01708,-0.00976,0.00244,0.01464,-0.01952,-0.00976,0.0244,0.0244,0,-0.00976,-0.00488
-0.0244,0.01708,-0.00976,0.00244,0.01464,-0.01952,-0.00976,0.00976,0.0244,0.00488,-0.01952,-0.00488
-0.0244,0.01708,-0.00976,0.00244,0.01464,-0.01952,-0.00488,0.00976,0.0244,0,-0.01952,-0.00976
-0.01464,0.0122,-0.00976,-0.00244,0.00488,-0.00976,-0.00488,0.00976,0.01464,0,-0.01464,-0.01952
-0.01464,0.0122,-0.00976,-0.00244,0.00488,-0.00976,-0.00488,0.00488,0.01464,0,-0.01464,-0.01952
-0.0244,0.01708,-0.00976,0.00244,0.01464,-0.01952,-0.00488,0.00488,0.01464,0,-0.0244,-0.01464
-0.0244,0.01952,-0.01464,-0.00244,0.00976,-0.01708,-0.00488,0.00488,0.00976,0,-0.0244,-0.01952
-0.0244,0.01952,-0.01464,-0.00244,0.00976,-0.01708,-0.00488,0,0.00976,-0.00488,-0.01952,-0.01952
-0.0244,0.01952,-0.01464,-0.00244,0.00976,-0.01708,-0.00488,0,0.00976,-0.00488,-0.01952,-0.0244
-0.01952,0.01708,-0.01464,-0.00488,0.00488,-0.0122,0,0.00976,0.01952,-0.00488,-0.02928,-0.01464
-0.01952,0.01708,-0.01464,-0.00488,0.00488,-0.0122,0,0.00488,0.01464,-0.00976,-0.02928,-0.01464
-0.01952,0.01708,-0.01464,-0.00488,0.00488,-0.0122,0,0.00488,0.01464,-0.00976,-0.02928,-0.01464
-0.0244,0.02196,-0.01952,-0.00732,0.00488,-0.01464,0,0.00488,0.00976,-0.00976,-0.03416,-0.01952
-0.0244,0.01708,-0.00976,0.00244,0.01464,-0.01952,0.00976,0.00976,0.00976,-0.01464,-0.03416,-0.02928
-0.0244,0.01708,-0.00976,0.00244,0.01464,-0.01952,0.00488,0.00976,0.00976,-0.01464,-0.03416,-0.02928
-0.0244,0.02196,-0.01952,-0.00732,0.00488,-0.01464,0.00488,0.00976,0.00488,-0.00976,-0.03904,-0.0244
-0.0244,0.02196,-0.01952,-0.00732,0.00488,-0.01464,0,0.00976,0.00488,-0.00976,-0.03904,-0.0244
-0.0244,0.0244,-0.0244,-0.0122,0,-0.0122,0.00976,0.01952,0,-0.01952,-0.03904,-0.0244
-0.0244,0.0244,-0.0244,-0.0122,0,-0.0122,0.00976,0.01952,0,-0.01952,-0.04392,-0.02928
-0.03416,0.02928,-0.0244,-0.00732,0.00976,-0.02196,0.00488,0.00976,0,-0.01464,-0.03416,-0.03904
-0.03416,0.02928,-0.0244,-0.00732,0.00976,-0.02196,0.00488,0.00976,-0.00488,-0.01464,-0.03904,-0.03904
-0.03416,0.03416,-0.03416,-0.01708,0,-0.01708,0.00488,0.01952,-0.00488,-0.02928,-0.03904,-0.03904
-0.03416,0.03416,-0.03416,-0.01708,0,-0.01708,0.00488,0.01952,-0.00488,-0.02928,-0.03904,-0.03904
-0.03416,0.0366,-0.03904,-0.02196,-0.00488,-0.01464,0.00976,0.02928,0,-0.01952,-0.03904,-0.03904
-0.03416,0.03416,-0.03416,-0.01708,0,-0.01708,0.00976,0.02928,0,-0.01952,-0.03904,-0.04392
-0.03416,0.02928,-0.0244,-0.00732,0.00976,-0.02196,0.00976,0.01952,-0.00976,-0.02928,-0.04392,-0.04392
-0.03416,0.02928,-0.0244,-0.00732,0.00976,-0.02196,0.00488,0.0244,-0.01464,-0.03416,-0.04392,-0.04392
-0.03416,0.03416,-0.03416,-0.01708,0,-0.01708,0.00488,0.01464,-0.01464,-0.03416,-0.04392,-0.04392
-0.03416,0.03416,-0.03416,-0.01708,0,-0.01708,0.00488,0.01464,-0.00976,-0.03416,-0.04392,-0.04392
-0.03416,0.03416,-0.03416,-0.01708,0,-0.01708,0,0.01464,-0.01464,-0.02928,-0.04392,-0.03904
-0.03416,0.0366,-0.03904,-0.02196,-0.00488,-0.01464,0,0.01464,-0.01464,-0.02928,-0.0488,-0.03904
-0.0244,0.02684,-0.02928,-0.01708,-0.00488,-0.00976,0.00488,0.01464,-0.01952,-0.03904,-0.0488,-0.0488
-0.0244,0.02684,-0.02928,-0.01708,-0.00488,-0.00976,0.00488,0.0244,-0.01952,-0.03904,-0.0488,-0.0488
-0.03416,0.03172,-0.02928,-0.0122,0.00488,-0.01952,-0.00488,0.01952,-0.02928,-0.03904,-0.0488,-0.04392
-0.03904,0.0366,-0.03416,-0.01464,0.00488,-0.02196,0,0.01952,-0.0244,-0.03904,-0.0488,-0.04392
-0.03904,0.0366,-0.03416,-0.01464,0.00488,-0.02196,0,0.02928,-0.0244,-0.03904,-0.0488,-0.04392
-0.03904,0.0366,-0.03416,-0.01464,0.00488,-0.02196,0,0.0244,-0.02928,-0.03904,-0.0488,-0.04392
-0.02928,0.0366,-0.04392,-0.02928,-0.01464,-0.00732,0,0.0244,-0.02928,-0.04392,-0.05856,-0.04392
-0.02928,0.03416,-0.03904,-0.0244,-0.00976,-0.00976,0.00488,0.0244,-0.02928,-0.03904,-0.05856,-0.04392
-0.03904,0.0366,-0.03416,-0.01464,0.00488,-0.02196,0.00488,0.01464,-0.02928,-0.04392,-0.05368,-0.05368
-0.03904,0.03904,-0.03904,-0.01952,0,-0.01952,0.00488,0.01464,-0.02928,-0.04392,-0.05368,-0.05368
-0.03904,0.0366,-0.03416,-0.01464,0.00488,-0.02196,0.00488,0.01464,-0.02928,-0.04392,-0.05368,-0.04392
-0.04392,0.03904,-0.03416,-0.0122,0.00976,-0.02684,0.00488,0.01464,-0.02928,-0.04392,-0.05368,-0.04392
-0.04392,0.03904,-0.03416,-0.0122,0.00976,-0.02684,0.00488,0.00976,-0.02928,-0.04392,-0.05368,-0.05368
-0.03416,0.03416,-0.03416,-0.01708,0,-0.01708,0.00488,0.00976,-0.02928,-0.04392,-0.05368,-0.05368
-0.03904,0.04148,-0.04392,-0.0244,-0.00488,-0.01708,0.01464,0.00976,-0.02928,-0.04392,-0.06344,-0.04392
-0.03904,0.04148,-0.04392,-0.0244,-0.00488,-0.01708,0.01464,0.00976,-0.02928,-0.04392,-0.06344,-0.04392
-0.02928,0.03172,-0.03416,-0.01952,-0.00488,-0.0122,0.00976,0,-0.02928,-0.04392,-0.05368,-0.05368
-0.02928,0.03172,-0.03416,-0.01952,-0.00488,-0.0122,0.00488,0,-0.02928,-0.04392,-0.05368,-0.05368
-0.02928,0.03172,-0.03416,-0.01952,-0.00488,-0.0122,0.00976,0,-0.02928,-0.04392,-0.06344,-0.05368
-0.02928,0.03416,-0.03904,-0.0244,-0.00976,-0.00976,0.00976,-0.00488,-0.02928,-0.04392,-0.05856,-0.05368
-0.02928,0.03172,-0.03416,-0.01952,-0.00488,-0.0122,0.00976,0.00488,-0.02928,-0.04392,-0.05368,-0.05368
-0.02928,0.03172,-0.03416,-0.01952,-0.00488,-0.0122,0.00976,0.00976,-0.02928,-0.04392,-0.0488,-0.05368
-0.02928,0.03172,-0.03416,-0.01952,-0.00488,-0.0122,0,0,-0.02928,-0.04392,-0.0488,-0.05368
-0.02928,0.03172,-0.03416,-0.01952,-0.00488,-0.0122,0,-0.00488,-0.02928,-0.04392,-0.0488,-0.05368
-0.02928,0.03172,-0.03416,-0.01952,-0.00488,-0.0122,0.00488,-0.00488,-0.02928,-0.04392,-0.05856,-0.05368
-0.02928,0.03172,-0.03416,-0.01952,-0.00488,-0.0122,0.00488,-0.00488,-0.02928,-0.04392,-0.05856,-0.05368
-0.02928,0.03172,-0.03416,-0.01952,-0.00488,-0.0122,0.00976,0,-0.01952,-0.04392,-0.06344,-0.05368
-0.02928,0.03172,-0.03416,-0.01952,-0.00488,-0.0122,0.00976,0.00976,-0.0244,-0.03416,-0.05368,-0.05368
-0.02928,0.03416,-0.03904,-0.0244,-0.00976,-0.00976,0.00976,0,-0.02928,-0.03904,-0.05856,-0.0488
-0.02928,0.03416,-0.03904,-0.0244,-0.00976,-0.00976,0.00976,0,-0.02928,-0.03904,-0.05856,-0.0488
-0.03904,0.03904,-0.03904,-0.01952,0,-0.01952,0,0,-0.02928,-0.0488,-0.05856,-0.0488
-0.03904,0.03904,-0.03904,-0.01952,0,-0.01952,0,0,-0.02928,-0.0488,-0.05856,-0.0488
-0.03904,0.03904,-0.03904,-0.01952,0,-0.01952,0.00976,0,-0.03904,-0.03904,-0.0488,-0.0488
-0.03904,0.03904,-0.03904,-0.01952,0,-0.01952,0.00976,0,-0.03904,-0.03904,-0.0488,-0.0488
-0.03904,0.03904,-0.03904,-0.01952,0,-0.01952,0.00976,0,-0.03904,-0.0488,-0.05856,-0.0488
-0.03904,0.03904,-0.03904,-0.01952,0,-0.01952,0.00976,0,-0.03904,-0.0488,-0.05856,-0.0488
-0.03904,0.03904,-0.03904,-0.01952,0,-0.01952,0.00976,0,-0.02928,-0.0488,-0.05856,-0.0488
-0.03904,0.03904,-0.03904,-0.01952,0,-0.01952,0.00976,0,-0.02928,-0.0488,-0.05856,-0.0488
-0.03904,0.03904,-0.03904,-0.01952,0,-0.01952,0.00976,0,-0.03904,-0.0488,-0.05856,-0.05856
-0.03904,0.03904,-0.03904,-0.01952,0,-0.01952,0.00976,0,-0.03904,-0.0488,-0.05856,-0.05856
-0.02928,0.03416,-0.03904,-0.0244,-0.00976,-0.00976,0.00976,0,-0.03904,-0.03904,-0.05856,-0.0488
-0.02928,0.03416,-0.03904,-0.0244,-0.00976,-0.00976,0.00976,0,-0.03904,-0.03904,-0.05856,-0.0488
-0.03904,0.04392,-0.0488,-0.02928,-0.00976,-0.01464,0.00976,-0.00976,-0.03904,-0.03904,-0.05856,-0.0488
-0.03904,0.04392,-0.0488,-0.02928,-0.00976,-0.01464,0.00976,-0.00976,-0.03904,-0.03904,-0.05856,-0.0488
-0.03904,0.04392,-0.0488,-0.02928,-0.00976,-0.01464,0.00976,-0.00976,-0.02928,-0.0488,-0.05856,-0.05856
-0.03904,0.04392,-0.0488,-0.02928,-0.00976,-0.01464,0.00976,-0.00976,-0.02928,-0.0488,-0.05856,-0.05856
-0.02928,0.03416,-0.03904,-0.0244,-0.00976,-0.00976,0.00976,0,-0.02928,-0.0488,-0.05856,-0.0488
-0.02928,0.03416,-0.03904,-0.0244,-0.00976,-0.00976,0.00976,0,-0.0244,-0.0488,-0.05856,-0.0488
-0.02928,0.0366,-0.04392,-0.02928,-0.01464,-0.00732,0.01464,0.00488,-0.0244,-0.04392,-0.05368,-0.0488
-0.01952,0.02684,-0.03416,-0.0244,-0.01464,-0.00244,0.01464,0.01464,-0.00976,-0.03904,-0.05368,-0.03904
-0.01952,0.01952,-0.01952,-0.00976,0,-0.00976,0.01464,0.00488,-0.00976,-0.0244,-0.03904,-0.03904
-0.01464,0.00732,0,0.00732,0.01464,-0.01464,0.01464,0.01464,0.00976,-0.00976,-0.0244,-0.02928
-0.00488,-0.00976,0.0244,0.02684,0.02928,-0.01708,0.01952,0.0244,0.03416,0.00488,-0.01464,-0.00488
-0.00976,-0.0122,0.03416,0.03904,0.04392,-0.02684,0.01952,0.0244,0.04392,0.01464,-0.00488,-0.00488
0.00488,-0.01464,0.0244,0.02196,0.01952,-0.00732,0.0244,0.03416,0.04392,0.01464,-0.00488,-0.00976
0.00488,-0.01464,0.0244,0.02196,0.01952,-0.00732,0.0244,0.03416,0.04392,0.01464,0,-0.00976
0.00488,-0.00488,0.00488,0.00244,0,0.00244,0.02928,0.03904,0.04392,0.01464,0,-0.00488
0.00976,-0.00244,-0.00488,-0.00976,-0.01464,0.0122,0.03416,0.04392,0.04392,0.00488,-0.00488,-0.00488
0,-0.00244,0.00488,0.00488,0.00488,-0.00244,0.03416,0.0488,0.04392,0.00976,-0.00488,-0.00488
0,0,0,0,0,0,0.03416,0.04392,0.0244,0,-0.00976,-0.01952
0,0.00976,-0.01952,-0.01952,-0.01952,0.00976,0.0244,0.03416,0.00488,-0.01464,-0.01952,-0.02928
0,0.01708,-0.03416,-0.03416,-0.03416,0.01708,0.01464,0.0244,-0.01464,-0.03416,-0.02928,-0.03904
-0.00488,0.02196,-0.03904,-0.0366,-0.03416,0.01464,0,0.00488,-0.03904,-0.0488,-0.0488,-0.0488
-0.00488,0.02684,-0.0488,-0.04636,-0.04392,0.01952,-0.00976,-0.00976,-0.0488,-0.05368,-0.06344,-0.05368
-0.00976,0.03416,-0.05856,-0.05368,-0.0488,0.01952,-0.00488,-0.00976,-0.03416,-0.0488,-0.0488,-0.04392
-0.00976,0.02684,-0.04392,-0.03904,-0.03416,0.0122,-0.00488,-0.00976,-0.03416,-0.04392,-0.04392,-0.04392
-0.00976,0.0244,-0.03904,-0.03416,-0.02928,0.00976,-0.00488,-0.00976,-0.02928,-0.04392,-0.03416,-0.03904
-0.00976,0.0244,-0.03904,-0.03416,-0.02928,0.00976,0,-0.00488,-0.02928,-0.04392,-0.03904,-0.04392
-0.00976,0.02928,-0.0488,-0.04392,-0.03904,0.01464,0,0,-0.04392,-0.05368,-0.0488,-0.05856
-0.00976,0.03416,-0.05856,-0.05368,-0.0488,0.01952,0.00488,-0.00488,-0.04392,-0.05856,-0.05856,-0.06344
-0.00976,0.02928,-0.0488,-0.04392,-0.03904,0.01464,0.00488,-0.00488,-0.04392,-0.0488,-0.05856,-0.05368
-0.01464,0.02928,-0.04392,-0.0366,-0.02928,0.00732,0,-0.00488,-0.04392,-0.0488,-0.05856,-0.0488
-0.01464,0.02196,-0.02928,-0.02196,-0.01464,0,0.00488,-0.00488,-0.03904,-0.0488,-0.05856,-0.04392
-0.02928,0.02684,-0.0244,-0.00976,0.00488,-0.01708,0.00488,-0.00488,-0.02928,-0.0488,-0.0488,-0.03904
-0.03416,0.02928,-0.0244,-0.00732,0.00976,-0.02196,0.00976,-0.00488,-0.0244,-0.04392,-0.0488,-0.03904
-0.04392,0.03904,-0.03416,-0.0122,0.00976,-0.02684,0.01464,-0.00488,-0.03904,-0.05368,-0.06344,-0.0488
-0.0488,0.05124,-0.05368,-0.02928,-0.00488,-0.02196,0.01952,-0.01464,-0.0488,-0.06832,-0.06344,-0.05856
-0.0488,0.05612,-0.06344,-0.03904,-0.01464,-0.01708,0.01952,-0.01952,-0.05856,-0.0732,-0.06832,-0.06832
-0.05856,0.06344,-0.06832,-0.03904,-0.00976,-0.0244,0.01952,-0.01464,-0.06832,-0.0732,-0.0732,-0.08296
-0.06344,0.06344,-0.06344,-0.03172,0,-0.03172,0.01952,-0.01464,-0.06832,-0.0732,-0.0732,-0.07808
-0.06344,0.05856,-0.05368,-0.02196,0.00976,-0.0366,0.01952,-0.01952,-0.05368,-0.06832,-0.06832,-0.06832
-0.06832,0.061,-0.05368,-0.01952,0.01464,-0.04148,0.01952,-0.01952,-0.05368,-0.06832,-0.06832,-0.06832
-0.05856,0.05856,-0.05856,-0.02928,0,-0.02928,0.01952,-0.00976,-0.05368,-0.06832,-0.07808,-0.07808
-0.05856,0.05612,-0.05368,-0.0244,0.00488,-0.03172,0.01952,-0.00976,-0.05368,-0.06832,-0.07808,-0.0732
-0.05856,0.05612,-0.05368,-0.0244,0.00488,-0.03172,0.01952,-0.01952,-0.0488,-0.0732,-0.06832,-0.06344
-0.05368,0.05124,-0.0488,-0.02196,0.00488,-0.02928,0.01464,-0.0244,-0.0488,-0.0732,-0.06832,-0.06344
-0.06344,0.061,-0.05856,-0.02684,0.00488,-0.03416,0.01952,-0.0244,-0.05856,-0.06344,-0.06344,-0.06344
-0.06832,0.06344,-0.05856,-0.0244,0.00976,-0.03904,0.01952,-0.0244,-0.05368,-0.06344,-0.06344,-0.05856
-0.05856,0.05612,-0.05368,-0.0244,0.00488,-0.03172,0.01952,-0.02928,-0.04392,-0.05856,-0.06344,-0.05856
-0.07808,0.06832,-0.05856,-0.01952,0.01952,-0.0488,0.03904,-0.01952,-0.04392,-0.0488,-0.06832,-0.06832
-0.0976,0.07808,-0.05856,-0.00976,0.03904,-0.06832,0.08296,0,-0.01952,-0.05856,-0.0732,-0.08784
-0.10736,0.09516,-0.08296,-0.02928,0.0244,-0.06588,0.10736,0.03904,-0.00488,-0.05368,-0.0976,-0.12688
-0.09272,0.08296,-0.0732,-0.02684,0.01952,-0.05612,0.122,0.08296,0.02928,-0.03904,-0.09272,-0.11712
-0.06832,0.06588,-0.06344,-0.02928,0.00488,-0.0366,0.15128,0.1464,0.10736,0.0244,-0.03416,-0.06344
0.03904,-0.01952,0,-0.01952,-0.03904,0.03904,0.11712,0.23424,0.22936,0.15128,0.10736,0.06832
0.20496,-0.1586,0.11224,0.00976,-0.09272,0.14884,0.0488,0.33184,0.3904,0.3416,0.30744,0.26352
0.42944,-0.4026,0.37576,0.16104,-0.05368,0.24156,-0.12688,0.3416,0.57096,0.57584,0.55632,0.54168
0.64416,-0.63928,0.6344,0.31232,-0.00976,0.32696,-0.36112,0.23424,0.64904,0.7808,0.82472,0.8296
0.7808,-0.75152,0.72224,0.33184,-0.05856,0.41968,-0.52704,0.14152,0.62464,0.86376,0.94672,0.99552
0.7564,-0.75152,0.74664,0.36844,-0.00976,0.38308,-0.60512,-0.00488,0.59536,0.88328,1.0248,1.06872
0.60512,-0.60268,0.60024,0.29768,-0.00488,0.305,-0.56608,-0.15616,0.44408,0.74176,0.86864,0.92232
0.38552,-0.38064,0.37576,0.183,-0.00976,0.19764,-0.4636,-0.34648,-0.06832,0.23912,0.41968,0.55632
0.0976,-0.13664,0.17568,0.12688,0.07808,0.00976,-0.31232,-0.40504,-0.38552,-0.10736,0.09272,0.2684
-0.03416,0.01464,0.00488,0.02196,0.03904,-0.0366,-0.2196,-0.40992,-0.57096,-0.30744,-0.11224,0.06832
-0.05856,0.05124,-0.04392,-0.01464,0.01464,-0.0366,-0.13664,-0.3172,-0.53192,-0.33184,-0.18056,-0.03416
-0.05856,0.05124,-0.04392,-0.01464,0.01464,-0.0366,-0.03904,-0.17568,-0.42944,-0.2684,-0.16592,-0.05368
-0.0488,0.03904,-0.02928,-0.00488,0.01952,-0.03416,0.00976,-0.0732,-0.25864,-0.18056,-0.11712,-0.04392
-0.02928,0.04392,-0.05856,-0.04392,-0.02928,0,0.03416,0,-0.11712,-0.09272,-0.08784,-0.03416
-0.0244,0.03416,-0.04392,-0.03172,-0.01952,-0.00244,0.03416,0.00976,-0.0732,-0.0732,-0.05856,-0.02928
-0.03416,0.02928,-0.0244,-0.00732,0.00976,-0.02196,0.03416,-0.00488,-0.06832,-0.05368,-0.0488,-0.03904
-0.04392,0.03172,-0.01952,0.00244,0.0244,-0.03416,0.0244,-0.01952,-0.0488,-0.0488,-0.04392,-0.0488
-0.04392,0.0366,-0.02928,-0.00732,0.01464,-0.02928,0.01952,-0.02928,-0.02928,-0.03416,-0.03416,-0.04392
-0.0488,0.0366,-0.0244,0,0.0244,-0.0366,0.01952,-0.04392,-0.0244,-0.03416,-0.03904,-0.03416
-0.0488,0.0366,-0.0244,0,0.0244,-0.0366,0.01952,-0.05856,-0.02928,-0.03416,-0.03904,-0.03904
-0.06344,0.04636,-0.02928,0.00244,0.03416,-0.0488,0.02928,-0.05856,-0.02928,-0.04392,-0.04392,-0.04392
-0.06344,0.05124,-0.03904,-0.00732,0.0244,-0.04392,0.02928,-0.06344,-0.02928,-0.04392,-0.04392,-0.04392
-0.05368,0.04392,-0.03416,-0.00732,0.01952,-0.0366,0.01952,-0.08296,-0.02928,-0.04392,-0.04392,-0.05368
-0.05856,0.0488,-0.03904,-0.00976,0.01952,-0.03904,0.01952,-0.08296,-0.02928,-0.04392,-0.03904,-0.0488
-0.05856,0.05124,-0.04392,-0.01464,0.01464,-0.0366,0.0244,-0.08296,-0.02928,-0.03904,-0.0488,-0.04392
-0.06344,0.05368,-0.04392,-0.0122,0.01952,-0.04148,0.0244,-0.08296,-0.02928,-0.03904,-0.05368,-0.04392
-0.0732,0.05856,-0.04392,-0.00732,0.02928,-0.05124,0.03416,-0.06832,-0.01952,-0.03904,-0.04392,-0.05368
-0.0732,0.05856,-0.04392,-0.00732,0.02928,-0.05124,0.03416,-0.06344,-0.01952,-0.03904,-0.04392,-0.05368
-0.07808,0.061,-0.04392,-0.00488,0.03416,-0.05612,0.03416,-0.03904,-0.01952,-0.03416,-0.05368,-0.04392
-0.07808,0.061,-0.04392,-0.00488,0.03416,-0.05612,0.03416,-0.02928,-0.01952,-0.03416,-0.05368,-0.04392
-0.07808,0.05856,-0.03904,0,0.03904,-0.05856,0.03416,-0.00976,-0.00488,-0.02928,-0.04392,-0.04392
-0.07808,0.05856,-0.03904,0,0.03904,-0.05856,0.03416,-0.00488,-0.00976,-0.02928,-0.0488,-0.04392
-0.07808,0.06344,-0.0488,-0.00976,0.02928,-0.05368,0.03416,-0.01464,-0.01952,-0.03416,-0.04392,-0.04392
-0.0732,0.061,-0.0488,-0.0122,0.0244,-0.0488,0.03416,-0.01952,-0.01464,-0.03416,-0.03904,-0.04392
-0.0732,0.05612,-0.03904,-0.00244,0.03416,-0.05368,0.03416,-0.01952,-0.01464,-0.02928,-0.0488,-0.03904
-0.06832,0.05368,-0.03904,-0.00488,0.02928,-0.0488,0.03416,-0.0244,-0.00976,-0.02928,-0.0488,-0.03904
-0.06832,0.05368,-0.03904,-0.00488,0.02928,-0.0488,0.03904,-0.01464,-0.00976,-0.02928,-0.03904,-0.03904
-0.06832,0.05368,-0.03904,-0.00488,0.02928,-0.0488,0.03904,-0.0244,-0.00976,-0.0244,-0.03904,-0.03904
-0.06832,0.05368,-0.03904,-0.00488,0.02928,-0.0488,0.03904,-0.03416,-0.00976,-0.0244,-0.03904,-0.03904
-0.06344,0.0488,-0.03416,-0.00244,0.02928,-0.04636,0.03904,-0.03904,-0.00976,-0.0244,-0.03904,-0.03904
-0.06344,0.05124,-0.03904,-0.00732,0.0244,-0.04392,0.02928,-0.02928,-0.00488,-0.01952,-0.03416,-0.03416
-0.05856,0.0488,-0.03904,-0.00976,0.01952,-0.03904,0.03416,-0.03416,0,-0.01952,-0.03416,-0.03416
-0.05856,0.0488,-0.03904,-0.00976,0.01952,-0.03904,0.03416,-0.0488,0,-0.01952,-0.03416,-0.03416
-0.05856,0.0488,-0.03904,-0.00976,0.01952,-0.03904,0.03416,-0.0488,0,-0.01952,-0.03416,-0.03416
-0.05368,0.04636,-0.03904,-0.0122,0.01464,-0.03416,0.03416,-0.04392,0.00488,-0.01952,-0.02928,-0.02928
-0.05368,0.04636,-0.03904,-0.0122,0.01464,-0.03416,0.03416,-0.04392,0.00488,-0.01952,-0.02928,-0.02928
-0.05368,0.03904,-0.0244,0.00244,0.02928,-0.04148,0.02928,-0.03904,0.01464,-0.01464,-0.01952,-0.0244
-0.0488,0.0366,-0.0244,0,0.0244,-0.0366,0.02928,-0.0488,0.01952,-0.01464,-0.01464,-0.01952
-0.05368,0.04148,-0.02928,-0.00244,0.0244,-0.03904,0.03416,-0.03416,0.02928,0.00488,-0.01952,-0.01464
-0.0488,0.03904,-0.02928,-0.00488,0.01952,-0.03416,0.02928,-0.02928,0.03416,0.01464,-0.01952,-0.01464
-0.03904,0.02684,-0.01464,0.00488,0.0244,-0.03172,0.02928,-0.01952,0.03904,0.01464,-0.00976,-0.00488
-0.03416,0.01952,-0.00488,0.0122,0.02928,-0.03172,0.02928,-0.00488,0.0488,0.0244,0,0
-0.03904,0.01952,0,0.01952,0.03904,-0.03904,0.03416,0.00976,0.03904,0.02928,0.01464,0
-0.02928,0.01464,0,0.01464,0.02928,-0.02928,0.02928,0.01952,0.04392,0.02928,0.01464,0.00488
-0.01952,0.00732,0.00488,0.01464,0.0244,-0.02196,0.0244,0.04392,0.05856,0.03416,0.0244,0.00488
-0.01464,0.00488,0.00488,0.0122,0.01952,-0.01708,0.0244,0.05368,0.05856,0.0488,0.03416,0.01952
-0.00488,-0.00732,0.01952,0.02196,0.0244,-0.01464,0.00488,0.05368,0.07808,0.0488,0.03904,0.02928
0.00488,-0.01952,0.03416,0.03172,0.02928,-0.0122,0.00976,0.05368,0.08296,0.05368,0.04392,0.04392
0.00976,-0.02684,0.04392,0.03904,0.03416,-0.0122,-0.00488,0.05856,0.07808,0.05856,0.0488,0.0488
0.00976,-0.02684,0.04392,0.03904,0.03416,-0.0122,-0.00976,0.05368,0.08784,0.06832,0.05856,0.0488
0.01952,-0.02928,0.03904,0.02928,0.01952,0,-0.00976,0.05856,0.10248,0.0732,0.06344,0.06344
0.0244,-0.03904,0.05368,0.04148,0.02928,-0.00244,-0.01952,0.06344,0.10736,0.08296,0.0732,0.06344
0.02928,-0.04392,0.05856,0.04392,0.02928,0,-0.01952,0.05856,0.0976,0.08296,0.0732,0.0732
0.02928,-0.0488,0.06832,0.05368,0.03904,-0.00488,-0.0244,0.05368,0.11224,0.09272,0.08784,0.07808
0.0488,-0.06588,0.08296,0.05856,0.03416,0.00732,-0.03416,0.05856,0.12688,0.0976,0.08784,0.08784
0.0488,-0.07076,0.09272,0.06832,0.04392,0.00244,-0.03904,0.05368,0.12688,0.0976,0.08784,0.09272
0.05368,-0.07564,0.0976,0.07076,0.04392,0.00488,-0.04392,0.0488,0.12688,0.10248,0.0976,0.09272
0.05368,-0.07564,0.0976,0.07076,0.04392,0.00488,-0.0488,0.0488,0.13176,0.10736,0.10736,0.10248
0.05856,-0.08052,0.10248,0.0732,0.04392,0.00732,-0.05368,0.04392,0.14152,0.11712,0.10736,0.10248
0.05856,-0.08296,0.10736,0.07808,0.0488,0.00488,-0.05368,0.03416,0.14152,0.122,0.10736,0.10736
0.0732,-0.09516,0.11712,0.08052,0.04392,0.01464,-0.05368,0.01952,0.14152,0.122,0.122,0.11224
0.0732,-0.09516,0.11712,0.08052,0.04392,0.01464,-0.05368,0.0244,0.1464,0.122,0.122,0.11224
0.06344,-0.08784,0.11224,0.08052,0.0488,0.00732,-0.05368,0.00976,0.1464,0.122,0.11224,0.122
0.05856,-0.0854,0.11224,0.08296,0.05368,0.00244,-0.0488,0,0.1464,0.12688,0.10736,0.11712
0.0488,-0.08052,0.11224,0.08784,0.06344,-0.00732,-0.0488,0.00976,0.13664,0.11712,0.0976,0.0976
0.0488,-0.07808,0.10736,0.08296,0.05856,-0.00488,-0.03904,0,0.13176,0.11224,0.09272,0.09272
0.03904,-0.06344,0.08784,0.06832,0.0488,-0.00488,-0.03904,0,0.11712,0.0976,0.08784,0.08296
0.02928,-0.05368,0.07808,0.06344,0.0488,-0.00976,-0.03416,-0.01464,0.10248,0.08296,0.06832,0.06832
0.01464,-0.04636,0.07808,0.07076,0.06344,-0.0244,-0.02928,-0.01952,0.0976,0.0732,0.06344,0.05856
0.00976,-0.0366,0.06344,0.05856,0.05368,-0.02196,-0.0244,-0.0244,0.08296,0.05368,0.0488,0.0488
0.00488,-0.0244,0.04392,0.04148,0.03904,-0.01708,-0.01952,-0.0244,0.0732,0.04392,0.03904,0.03416
-0.00488,-0.01464,0.03416,0.0366,0.03904,-0.02196,-0.01464,-0.02928,0.05368,0.03416,0.0244,0.02928
-0.00488,-0.01464,0.03416,0.0366,0.03904,-0.02196,-0.00976,-0.04392,0.04392,0.0244,0.01952,0.01464
-0.00488,-0.00976,0.0244,0.02684,0.02928,-0.01708,-0.00488,-0.0488,0.03416,0.0244,0.00976,0.00488
-0.01952,0.00244,0.01464,0.0244,0.03416,-0.02684,-0.00488,-0.0488,0.02928,0.00976,-0.00976,0
-0.01952,0.00488,0.00976,0.01952,0.02928,-0.0244,0,-0.0488,0.0244,-0.00488,-0.01464,-0.00976
-0.0244,0.01708,-0.00976,0.00244,0.01464,-0.01952,0.01464,-0.0488,0.00488,-0.00488,-0.01464,-0.0244
-0.02928,0.01708,-0.00488,0.00976,0.0244,-0.02684,0.01464,-0.0488,0.00488,-0.01464,-0.01952,-0.0244
-0.02928,0.01952,-0.00976,0.00488,0.01952,-0.0244,0.01464,-0.0488,0.01464,-0.01464,-0.02928,-0.02928
-0.02928,0.01952,-0.00976,0.00488,0.01952,-0.0244,0.01464,-0.0488,0,-0.01952,-0.03416,-0.03416
-0.02928,0.02196,-0.01464,0,0.01464,-0.02196,0.01464,-0.0488,0,-0.01952,-0.03416,-0.03904
-0.03416,0.0244,-0.01464,0.00244,0.01952,-0.02684,0.01464,-0.0488,-0.00488,-0.0244,-0.03416,-0.03904
-0.03416,0.02684,-0.01952,-0.00244,0.01464,-0.0244,0.01952,-0.04392,-0.01464,-0.0244,-0.03904,-0.02928
-0.02928,0.02196,-0.01464,0,0.01464,-0.02196,0.01464,-0.04392,-0.01464,-0.02928,-0.03904,-0.02928
-0.03416,0.02684,-0.01952,-0.00244,0.01464,-0.0244,0.01464,-0.04392,-0.01464,-0.02928,-0.03904,-0.02928
-0.03416,0.02684,-0.01952,-0.00244,0.01464,-0.0244,0.01952,-0.03904,-0.01464,-0.02928,-0.03904,-0.02928
-0.02928,0.0244,-0.01952,-0.00488,0.00976,-0.01952,0.00488,-0.03904,-0.00976,-0.02928,-0.03904,-0.02928
-0.02928,0.0244,-0.01952,-0.00488,0.00976,-0.01952,0.00488,-0.03904,-0.00976,-0.02928,-0.03904,-0.02928
-0.02928,0.0244,-0.01952,-0.00488,0.00976,-0.01952,0.00488,-0.0244,-0.01952,-0.02928,-0.04392,-0.03904
-0.02928,0.0244,-0.01952,-0.00488,0.00976,-0.01952,0,-0.0244,-0.01952,-0.02928,-0.04392,-0.03904
-0.02928,0.02928,-0.02928,-0.01464,0,-0.01464,0.00488,-0.01952,-0.01952,-0.03904,-0.04392,-0.02928
-0.0244,0.02684,-0.02928,-0.01708,-0.00488,-0.00976,0.00488,-0.01464,-0.01952,-0.03904,-0.04392,-0.02928
-0.0244,0.02196,-0.01952,-0.00732,0.00488,-0.01464,0,-0.00976,-0.0244,-0.02928,-0.03416,-0.02928
-0.0244,0.0244,-0.0244,-0.0122,0,-0.0122,0,-0.00976,-0.01952,-0.02928,-0.0244,-0.02928
-0.01464,0.01708,-0.01952,-0.0122,-0.00488,-0.00488,0,-0.00488,-0.00976,-0.0244,-0.03416,-0.03416
-0.01464,0.01708,-0.01952,-0.0122,-0.00488,-0.00488,0,-0.00488,-0.00976,-0.0244,-0.03416,-0.03416
-0.0244,0.02196,-0.01952,-0.00732,0.00488,-0.01464,0,-0.00976,-0.01464,-0.0244,-0.03416,-0.0244
-0.0244,0.02196,-0.01952,-0.00732,0.00488,-0.01464,0,-0.00976,-0.01464,-0.01952,-0.03416,-0.01952
-0.01952,0.01464,-0.00976,0,0.00976,-0.01464,0,-0.00488,-0.00976,-0.01952,-0.02928,-0.02928
-0.01464,0.0122,-0.00976,-0.00244,0.00488,-0.00976,0,0.00488,-0.00976,-0.01464,-0.02928,-0.02928
-0.01464,0.01464,-0.01464,-0.00732,0,-0.00732,0,0.00488,0,-0.01464,-0.02928,-0.01952
-0.01464,0.01464,-0.01464,-0.00732,0,-0.00732,0,0.00976,0,-0.01464,-0.02928,-0.01952
-0.0244,0.01952,-0.01464,-0.00244,0.00976,-0.01708,-0.00488,0.01464,0,-0.01952,-0.0244,-0.01952
-0.01952,0.01708,-0.01464,-0.00488,0.00488,-0.0122,0,0.01952,0.00488,-0.01952,-0.0244,-0.01464
-0.01952,0.01708,-0.01464,-0.00488,0.00488,-0.0122,0,0.01952,0.00488,-0.01952,-0.01952,-0.01464
-0.01952,0.01464,-0.00976,0,0.00976,-0.01464,0,0.0244,0.00488,-0.01464,-0.01952,-0.01464
-0.01952,0.01708,-0.01464,-0.00488,0.00488,-0.0122,0,0.03416,0.00488,-0.00488,-0.00976,-0.01952
-0.01952,0.01708,-0.01464,-0.00488,0.00488,-0.0122,0,0.03416,0.00488,-0.00488,-0.00488,-0.01952
-0.01952,0.01708,-0.01464,-0.00488,0.00488,-0.0122,0,0.03416,0,-0.00488,-0.01464,-0.00488
-0.01952,0.01708,-0.01464,-0.00488,0.00488,-0.0122,0,0.03416,0,-0.00488,-0.01464,-0.00488
-0.00976,0.00976,-0.00976,-0.00488,0,-0.00488,0.00976,0.04392,0.00488,-0.00488,-0.01464,-0.01464
-0.00976,0.00976,-0.00976,-0.00488,0,-0.00488,0.00976,0.03904,0.00488,0,-0.01464,-0.01952
-0.01952,0.01464,-0.00976,0,0.00976,-0.01464,0.00976,0.03904,0.01464,0,-0.01464,-0.01464
-0.01952,0.01464,-0.00976,0,0.00976,-0.01464,0.00976,0.03416,0.01464,0,-0.01464,-0.01464
-0.01952,0.01464,-0.00976,0,0.00976,-0.01464,0.01464,0.02928,0.01464,0,-0.01464,-0.01464
-0.0244,0.01708,-0.00976,0.00244,0.01464,-0.01952,0.00976,0.02928,0.01464,0,-0.00976,-0.01464
-0.0244,0.01708,-0.00976,0.00244,0.01464,-0.01952,0.00976,0.01952,0.01464,0.00488,-0.00976,-0.00488
-0.0244,0.01708,-0.00976,0.00244,0.01464,-0.01952,0.01464,0.01952,0.01464,0,-0.00976,-0.00976
-0.0244,0.01708,-0.00976,0.00244,0.01464,-0.01952,0.01464,0.01952,0.01464,0,-0.01464,-0.01952
-0.0244,0.01708,-0.00976,0.00244,0.01464,-0.01952,0.01464,0.01464,0.01464,0,-0.01464,-0.01952
-0.0244,0.01708,-0.00976,0.00244,0.01464,-0.01952,0.01464,0.00488,0.01464,0,-0.01464,-0.01464
-0.0244,0.01952,-0.01464,-0.00244,0.00976,-0.01708,0.01464,0.00488,0.00976,0,-0.01464,-0.01952
-0.01464,0.00976,-0.00488,0.00244,0.00976,-0.0122,0.01464,0.00976,0.00976,-0.00488,-0.00976,-0.00976
-0.01464,0.00976,-0.00488,0.00244,0.00976,-0.0122,0.01464,0.00976,0.00976,-0.00488,-0.00976,-0.01464
-0.01952,0.01708,-0.01464,-0.00488,0.00488,-0.0122,0.01952,0.00976,0.00976,-0.00488,-0.00976,-0.01464
-0.01952,0.01708,-0.01464,-0.00488,0.00488,-0.0122,0.01952,0.00488,0.00488,-0.00976,-0.00976,-0.01464
-0.01952,0.01708,-0.01464,-0.00488,0.00488,-0.0122,0.01952,0.00488,0.00488,-0.00976,-0.01952,-0.01464
-0.0244,0.02196,-0.01952,-0.00732,0.00488,-0.01464,0.01952,0.00488,0,-0.00976,-0.0244,-0.01952
-0.03416,0.02684,-0.01952,-0.00244,0.01464,-0.0244,0.01952,0.00976,0,-0.01464,-0.0244,-0.01952
-0.03416,0.02684,-0.01952,-0.00244,0.01464,-0.0244,0.01464,0.00976,0,-0.01464,-0.0244,-0.01952
-0.03416,0.03172,-0.02928,-0.0122,0.00488,-0.01952,0.01464,0.00976,0.00488,-0.00976,-0.01952,-0.0244
-0.03416,0.03172,-0.02928,-0.0122,0.00488,-0.01952,0.00976,0.00976,0.00488,-0.00976,-0.01952,-0.0244
-0.0244,0.0244,-0.0244,-0.0122,0,-0.0122,0.00976,0.00976,-0.00976,-0.01952,-0.02928,-0.03416
-0.0244,0.0244,-0.0244,-0.0122,0,-0.0122,0.00976,0.00976,-0.00976,-0.01952,-0.03416,-0.03904
-0.0244,0.02928,-0.03416,-0.02196,-0.00976,-0.00732,0.01464,0.00976,-0.00976,-0.0244,-0.0244,-0.02928
-0.0244,0.02928,-0.03416,-0.02196,-0.00976,-0.00732,0.01464,0.00976,-0.01464,-0.0244,-0.02928,-0.02928
-0.03416,0.03416,-0.03416,-0.01708,0,-0.01708,0.01464,0.00976,-0.01464,-0.01952,-0.02928,-0.03904
-0.03416,0.03416,-0.03416,-0.01708,0,-0.01708,0.01464,0.00976,-0.01464,-0.01952,-0.02928,-0.03904
-0.03416,0.0366,-0.03904,-0.02196,-0.00488,-0.01464,0.00976,0.00976,-0.00976,-0.02928,-0.02928,-0.02928
-0.03416,0.03416,-0.03416,-0.01708,0,-0.01708,0.00976,0.00976,-0.00976,-0.02928,-0.02928,-0.03416
-0.0244,0.02928,-0.03416,-0.02196,-0.00976,-0.00732,0.00976,0.00976,-0.01952,-0.02928,-0.03416,-0.03416
-0.0244,0.02928,-0.03416,-0.02196,-0.00976,-0.00732,0.00488,0.01464,-0.0244,-0.03416,-0.03416,-0.03416
-0.0244,0.02928,-0.03416,-0.02196,-0.00976,-0.00732,0.01464,0.0244,-0.0244,-0.03416,-0.04392,-0.04392
-0.0244,0.02928,-0.03416,-0.02196,-0.00976,-0.00732,0.01464,0.0244,-0.01952,-0.03416,-0.04392,-0.04392
-0.0244,0.02928,-0.03416,-0.02196,-0.00976,-0.00732,0.00976,0.01464,-0.0244,-0.03904,-0.04392,-0.03904
-0.0244,0.03172,-0.03904,-0.02684,-0.01464,-0.00488,0.00976,0.01464,-0.0244,-0.03904,-0.0488,-0.03904
-0.03416,0.0366,-0.03904,-0.02196,-0.00488,-0.01464,0.01464,0.01952,-0.02928,-0.03904,-0.03904,-0.03904
-0.03416,0.0366,-0.03904,-0.02196,-0.00488,-0.01464,0.01464,0.01952,-0.02928,-0.03904,-0.03904,-0.03904
-0.0244,0.03172,-0.03904,-0.02684,-0.01464,-0.00488,0.00488,0.00976,-0.02928,-0.03904,-0.0488,-0.05368
-0.02928,0.0366,-0.04392,-0.02928,-0.01464,-0.00732,0.00976,0.00976,-0.0244,-0.03904,-0.0488,-0.05368
-0.02928,0.0366,-0.04392,-0.02928,-0.01464,-0.00732,0.00976,0.00976,-0.0244,-0.03904,-0.0488,-0.04392
-0.02928,0.0366,-0.04392,-0.02928,-0.01464,-0.00732,0.00976,0.00488,-0.02928,-0.03904,-0.0488,-0.04392
-0.02928,0.0366,-0.04392,-0.02928,-0.01464,-0.00732,0.00976,0.00488,-0.02928,-0.04392,-0.0488,-0.04392
-0.02928,0.03416,-0.03904,-0.0244,-0.00976,-0.00976,0.01464,0.00488,-0.02928,-0.03904,-0.0488,-0.04392
-0.02928,0.0366,-0.04392,-0.02928,-0.01464,-0.00732,0.01464,0.00488,-0.02928,-0.03416,-0.05368,-0.04392
-0.02928,0.03904,-0.0488,-0.03416,-0.01952,-0.00488,0.01464,0.00488,-0.02928,-0.03416,-0.05368,-0.04392
-0.02928,0.0366,-0.04392,-0.02928,-0.01464,-0.00732,0.01464,0.00488,-0.02928,-0.03416,-0.05368,-0.04392
-0.03416,0.03904,-0.04392,-0.02684,-0.00976,-0.0122,0.01464,0.00488,-0.02928,-0.03416,-0.05368,-0.04392
-0.03416,0.03904,-0.04392,-0.02684,-0.00976,-0.0122,0.01464,0,-0.02928,-0.04392,-0.05368,-0.05368
-0.0244,0.03416,-0.04392,-0.03172,-0.01952,-0.00244,0.01464,0,-0.02928,-0.04392,-0.05368,-0.05368
-0.02928,0.0366,-0.04392,-0.02928,-0.01464,-0.00732,0.01464,0,-0.02928,-0.04392,-0.04392,-0.04392
-0.02928,0.0366,-0.04392,-0.02928,-0.01464,-0.00732,0.01464,0,-0.02928,-0.04392,-0.04392,-0.04392
-0.02928,0.0366,-0.04392,-0.02928,-0.01464,-0.00732,0.01952,0,-0.02928,-0.04392,-0.04392,-0.04392
-0.02928,0.0366,-0.04392,-0.02928,-0.01464,-0.00732,0.01464,0,-0.02928,-0.04392,-0.04392,-0.04392
-0.02928,0.03172,-0.03416,-0.01952,-0.00488,-0.0122,0.00976,-0.00976,-0.02928,-0.04392,-0.05368,-0.05368
-0.02928,0.03416,-0.03904,-0.0244,-0.00976,-0.00976,0.00976,-0.01464,-0.02928,-0.04392,-0.0488,-0.05368
-0.02928,0.0366,-0.04392,-0.02928,-0.01464,-0.00732,0.00976,-0.00488,-0.02928,-0.04392,-0.05368,-0.05368
-0.02928,0.0366,-0.04392,-0.02928,-0.01464,-0.00732,0.00976,0,-0.02928,-0.04392,-0.0488,-0.05368
-0.02928,0.0366,-0.04392,-0.02928,-0.01464,-0.00732,0.00976,0,-0.02928,-0.04392,-0.0488,-0.05368
-0.02928,0.0366,-0.04392,-0.02928,-0.01464,-0.00732,0.00976,-0.00488,-0.02928,-0.04392,-0.0488,-0.05368
-0.02928,0.03172,-0.03416,-0.01952,-0.00488,-0.0122,0.01464,-0.00488,-0.02928,-0.04392,-0.0488,-0.05368
-0.02928,0.03172,-0.03416,-0.01952,-0.00488,-0.0122,0.01464,-0.00488,-0.02928,-0.04392,-0.0488,-0.05368
-0.02928,0.0366,-0.04392,-0.02928,-0.01464,-0.00732,0.01952,0,-0.02928,-0.04392,-0.04392,-0.05368
-0.02928,0.0366,-0.04392,-0.02928,-0.01464,-0.00732,0.00976,0,-0.03416,-0.04392,-0.04392,-0.04392
-0.02928,0.03416,-0.03904,-0.0244,-0.00976,-0.00976,0.00976,-0.00976,-0.03904,-0.0488,-0.0488,-0.0488
-0.02928,0.03416,-0.03904,-0.0244,-0.00976,-0.00976,0.00976,-0.00976,-0.03904,-0.0488,-0.0488,-0.0488
-0.02928,0.03416,-0.03904,-0.0244,-0.00976,-0.00976,0.00976,-0.00976,-0.02928,-0.03904,-0.0488,-0.0488
-0.02928,0.03416,-0.03904,-0.0244,-0.00976,-0.00976,0.00976,-0.00976,-0.02928,-0.03904,-0.0488,-0.0488
-0.02928,0.03416,-0.03904,-0.0244,-0.00976,-0.00976,0.00976,-0.00976,-0.02928,-0.0488,-0.0488,-0.0488
-0.02928,0.03416,-0.03904,-0.0244,-0.00976,-0.00976,0.00976,-0.00976,-0.02928,-0.0488,-0.0488,-0.0488
-0.02928,0.03416,-0.03904,-0.0244,-0.00976,-0.00976,0.00976,-0.00976,-0.02928,-0.0488,-0.0488,-0.0488
-0.02928,0.03416,-0.03904,-0.0244,-0.00976,-0.00976,0.00976,-0.00976,-0.02928,-0.0488,-0.0488,-0.0488
-0.02928,0.03416,-0.03904,-0.0244,-0.00976,-0.00976,0.00976,0,-0.02928,-0.03904,-0.0488,-0.0488
-0.02928,0.03416,-0.03904,-0.0244,-0.00976,-0.00976,0.00976,0,-0.02928,-0.03904,-0.0488,-0.0488
-0.02928,0.03904,-0.0488,-0.03416,-0.01952,-0.00488,0.00976,-0.00976,-0.02928,-0.0488,-0.0488,-0.0488
-0.02928,0.03904,-0.0488,-0.03416,-0.01952,-0.00488,0.00976,-0.00976,-0.02928,-0.0488,-0.0488,-0.0488
-0.02928,0.03416,-0.03904,-0.0244,-0.00976,-0.00976,0.00976,-0.00976,-0.02928,-0.0488,-0.0488,-0.0488
-0.02928,0.03416,-0.03904,-0.0244,-0.00976,-0.00976,0.00976,-0.00976,-0.02928,-0.0488,-0.0488,-0.0488
-0.02928,0.03416,-0.03904,-0.0244,-0.00976,-0.00976,0.00976,-0.00976,-0.02928,-0.0488,-0.0488,-0.05856
-0.02928,0.03416,-0.03904,-0.0244,-0.00976,-0.00976,0.00976,-0.00976,-0.02928,-0.0488,-0.0488,-0.05856
-0.02928,0.03904,-0.0488,-0.03416,-0.01952,-0.00488,0.01952,-0.00976,-0.02928,-0.03904,-0.0488,-0.05856
-0.02928,0.03904,-0.0488,-0.03416,-0.01952,-0.00488,0.01952,-0.00976,-0.02928,-0.03904,-0.0488,-0.05856
-0.01952,0.03416,-0.0488,-0.03904,-0.02928,0.00488,0.01952,0,-0.03904,-0.0488,-0.05856,-0.05856
-0.01952,0.03416,-0.0488,-0.03904,-0.02928,0.00488,0.01952,0,-0.03904,-0.0488,-0.05856,-0.05856
-0.01952,0.03172,-0.04392,-0.03416,-0.0244,0.00244,0.0244,0,-0.03416,-0.0488,-0.05368,-0.0488
-0.01952,0.03172,-0.04392,-0.03416,-0.0244,0.00244,0.0244,0.00488,-0.0244,-0.03904,-0.03904,-0.03904
-0.00976,0.01464,-0.01952,-0.01464,-0.00976,0,0.01464,0.00488,-0.01464,-0.01952,-0.03416,-0.03416
-0.00488,0.00732,-0.00976,-0.00732,-0.00488,0,0.01464,0.01464,0,-0.00976,-0.0244,-0.0244
0.01464,-0.0122,0.00976,0.00244,-0.00488,0.00976,0.01464,0.0244,0.0244,0.00488,-0.00976,-0.01952
0.00976,-0.01708,0.0244,0.01952,0.01464,-0.00244,0.01952,0.0244,0.02928,0.01464,0,-0.01464
0.01464,-0.01952,0.0244,0.01708,0.00976,0.00244,0.02928,0.0244,0.03416,0.01464,0.00488,-0.00976
0.01464,-0.01952,0.0244,0.01708,0.00976,0.00244,0.03416,0.0244,0.03416,0.01464,0.00488,-0.00976
0.01464,-0.01952,0.0244,0.01708,0.00976,0.00244,0.0244,0.03416,0.03416,0.01464,0.01952,-0.00488
0.01952,-0.01464,0.00976,0,-0.00976,0.01464,0.02928,0.04392,0.03416,0.00488,0.00488,-0.00488
0.01952,-0.0122,0.00488,-0.00488,-0.01464,0.01708,0.03416,0.05368,0.03416,0.00488,-0.00488,-0.00488
0.01952,-0.00976,0,-0.00976,-0.01952,0.01952,0.03416,0.0488,0.01952,-0.00488,-0.00488,-0.01464
0.00976,0.00244,-0.01464,-0.01952,-0.0244,0.01708,0.04392,0.02928,0.01952,-0.00976,-0.01464,-0.02928
0.00976,0.00732,-0.0244,-0.02928,-0.03416,0.02196,0.02928,0.01952,0,-0.01952,-0.0244,-0.03416
0.00488,0.01708,-0.03904,-0.04148,-0.04392,0.0244,0.01952,0.00976,-0.0244,-0.03904,-0.04392,-0.04392
0.00488,0.01952,-0.04392,-0.04636,-0.0488,0.02684,-0.01464,-0.01464,-0.0488,-0.05368,-0.05856,-0.05368
-0.00976,0.02928,-0.0488,-0.04392,-0.03904,0.01464,-0.00488,-0.01952,-0.0488,-0.0488,-0.05368,-0.05368
-0.00976,0.02684,-0.04392,-0.03904,-0.03416,0.0122,-0.00488,-0.01952,-0.04392,-0.0488,-0.0488,-0.05368
0,0.01708,-0.03416,-0.03416,-0.03416,0.01708,-0.00488,-0.00976,-0.04392,-0.04392,-0.04392,-0.0488
0,0.01952,-0.03904,-0.03904,-0.03904,0.01952,-0.00488,-0.00488,-0.03904,-0.04392,-0.04392,-0.0488
0,0.0244,-0.0488,-0.0488,-0.0488,0.0244,0,-0.00976,-0.0488,-0.0488,-0.0488,-0.0488
0,0.0244,-0.0488,-0.0488,-0.0488,0.0244,0.00488,-0.01464,-0.05368,-0.05368,-0.05368,-0.05368
0,0.02928,-0.05856,-0.05856,-0.05856,0.02928,0.00488,-0.0244,-0.05368,-0.05856,-0.05368,-0.06344
0,0.02196,-0.04392,-0.04392,-0.04392,0.02196,0,-0.0244,-0.05368,-0.05856,-0.05856,-0.06344
-0.00488,0.01952,-0.03416,-0.03172,-0.02928,0.0122,0,-0.0244,-0.0488,-0.05368,-0.06344,-0.05856
-0.01464,0.01952,-0.0244,-0.01708,-0.00976,-0.00244,0.00488,-0.0244,-0.03904,-0.0488,-0.05368,-0.05368
-0.02928,0.03172,-0.03416,-0.01952,-0.00488,-0.0122,0,-0.0244,-0.03416,-0.04392,-0.0488,-0.0488
-0.03416,0.0366,-0.03904,-0.02196,-0.00488,-0.01464,0,-0.0244,-0.04392,-0.04392,-0.05856,-0.0488
-0.05368,0.05124,-0.0488,-0.02196,0.00488,-0.02928,0.01464,-0.0244,-0.04392,-0.06344,-0.05856,-0.05856
-0.05856,0.05856,-0.05856,-0.02928,0,-0.02928,0.01952,-0.02928,-0.05368,-0.06832,-0.06832,-0.06344
-0.0488,0.05856,-0.06832,-0.04392,-0.01952,-0.01464,0.01952,-0.01952,-0.06832,-0.0732,-0.08296,-0.08296
-0.0488,0.05612,-0.06344,-0.03904,-0.01464,-0.01708,0.01952,-0.0244,-0.06832,-0.0732,-0.08296,-0.07808
-0.05368,0.05368,-0.05368,-0.02684,0,-0.02684,0.01952,-0.01952,-0.06344,-0.06832,-0.08296,-0.07808
-0.05856,0.05612,-0.05368,-0.0244,0.00488,-0.03172,0.01952,-0.01952,-0.06344,-0.06832,-0.07808,-0.07808
-0.05856,0.06344,-0.06832,-0.03904,-0.00976,-0.0244,0.01952,-0.01952,-0.06344,-0.06832,-0.07808,-0.07808
-0.05856,0.06344,-0.06832,-0.03904,-0.00976,-0.0244,0.01952,-0.01952,-0.06344,-0.06832,-0.07808,-0.07808
-0.05856,0.061,-0.06344,-0.03416,-0.00488,-0.02684,0.01952,-0.02928,-0.05856,-0.07808,-0.07808,-0.06344
-0.05368,0.05612,-0.05856,-0.03172,-0.00488,-0.0244,0.01952,-0.02928,-0.05856,-0.0732,-0.07808,-0.06344
-0.05368,0.05612,-0.05856,-0.03172,-0.00488,-0.0244,0.01464,-0.0244,-0.05856,-0.0732,-0.06344,-0.06344
-0.05856,0.05856,-0.05856,-0.02928,0,-0.02928,0.01952,-0.0244,-0.05856,-0.0732,-0.06344,-0.06344
-0.05856,0.05124,-0.04392,-0.01464,0.01464,-0.0366,0.01952,-0.02928,-0.04392,-0.05368,-0.06344,-0.06832
-0.0488,0.0488,-0.0488,-0.0244,0,-0.0244,0.01464,-0.02928,-0.03904,-0.05856,-0.06344,-0.06832
-0.0732,0.06588,-0.05856,-0.02196,0.01464,-0.04392,0.05368,-0.00488,-0.0244,-0.05856,-0.06832,-0.08296
-0.0976,0.08052,-0.06344,-0.01464,0.03416,-0.06588,0.08296,0.00976,-0.01952,-0.06344,-0.0976,-0.11712
-0.09272,0.08296,-0.0732,-0.02684,0.01952,-0.05612,0.11224,0.05856,0.00488,-0.05368,-0.09272,-0.11224
-0.0732,0.0732,-0.0732,-0.0366,0,-0.0366,0.14152,0.11224,0.06832,-0.01464,-0.06344,-0.09272
-0.00488,0.02196,-0.03904,-0.0366,-0.03416,0.01464,0.1464,0.20008,0.15616,0.08784,0.03416,0
0.15128,-0.0976,0.04392,-0.03172,-0.10736,0.12932,0.07808,0.2928,0.29768,0.23912,0.20496,0.16592
0.37576,-0.32208,0.2684,0.08052,-0.10736,0.24156,-0.06344,0.35624,0.47824,0.44408,0.4392,0.40016
0.59048,-0.57096,0.55144,0.2562,-0.03904,0.31476,-0.27816,0.28304,0.60512,0.67344,0.70272,0.69296
0.76616,-0.73688,0.7076,0.32452,-0.05856,0.41236,-0.47824,0.1708,0.61,0.81496,0.88816,0.92232
0.81008,-0.77836,0.74664,0.3416,-0.06344,0.43676,-0.59536,0.05856,0.56608,0.854,0.98088,1.02968
0.69784,-0.69052,0.6832,0.33428,-0.01464,0.35624,-0.60024,-0.10736,0.52704,0.81008,0.94672,1.01016
0.50264,-0.49288,0.48312,0.2318,-0.01952,0.26108,-0.54168,-0.28792,0.13664,0.42456,0.60024,0.69296
0.20984,-0.23668,0.26352,0.1586,0.05368,0.07808,-0.38064,-0.41968,-0.2928,0,0.20008,0.35624
0.00976,-0.05124,0.09272,0.08784,0.08296,-0.0366,-0.26352,-0.45872,-0.50752,-0.23424,-0.04392,0.13176
-0.05856,0.03172,-0.00488,0.0244,0.05368,-0.05612,-0.1708,-0.38552,-0.55144,-0.33184,-0.15128,0.00976
-0.0488,0.04148,-0.03416,-0.00976,0.01464,-0.03172,-0.08784,-0.25864,-0.488,-0.30744,-0.18056,-0.05856
-0.0488,0.03904,-0.02928,-0.00488,0.01952,-0.03416,-0.02928,-0.10736,-0.32696,-0.20496,-0.12688,-0.04392
-0.03416,0.0366,-0.03904,-0.02196,-0.00488,-0.01464,0.00976,-0.02928,-0.18056,-0.122,-0.08784,-0.04392
-0.0244,0.03172,-0.03904,-0.02684,-0.01464,-0.00488,0.0244,0,-0.09272,-0.08296,-0.06344,-0.03904
-0.0244,0.02196,-0.01952,-0.00732,0.00488,-0.01464,0.0244,-0.01464,-0.07808,-0.06344,-0.0488,-0.04392
-0.03904,0.02928,-0.01952,0,0.01952,-0.02928,0.03416,-0.0244,-0.05856,-0.05368,-0.0488,-0.03904
-0.04392,0.03416,-0.0244,-0.00244,0.01952,-0.03172,0.0244,-0.03416,-0.0488,-0.0488,-0.04392,-0.03904
-0.04392,0.03416,-0.0244,-0.00244,0.01952,-0.03172,0.01464,-0.0488,-0.03416,-0.04392,-0.03416,-0.03416
-0.0488,0.04148,-0.03416,-0.00976,0.01464,-0.03172,0.00976,-0.06344,-0.03416,-0.04392,-0.03904,-0.0488
-0.05368,0.04392,-0.03416,-0.00732,0.01952,-0.0366,0.01464,-0.06832,-0.03904,-0.04392,-0.03904,-0.05368
-0.05368,0.04392,-0.03416,-0.00732,0.01952,-0.0366,0.01952,-0.06832,-0.03904,-0.04392,-0.04392,-0.05368
-0.05368,0.04392,-0.03416,-0.00732,0.01952,-0.0366,0.01952,-0.07808,-0.02928,-0.04392,-0.04392,-0.05368
-0.05368,0.04636,-0.03904,-0.0122,0.01464,-0.03416,0.01952,-0.09272,-0.02928,-0.04392,-0.05368,-0.05368
-0.05856,0.0488,-0.03904,-0.00976,0.01952,-0.03904,0.0244,-0.09272,-0.02928,-0.03904,-0.0488,-0.0488
-0.06344,0.0488,-0.03416,-0.00244,0.02928,-0.04636,0.0244,-0.08296,-0.02928,-0.03904,-0.04392,-0.05368
-0.06344,0.0488,-0.03416,-0.00244,0.02928,-0.04636,0.0244,-0.07808,-0.02928,-0.03904,-0.04392,-0.05368
-0.0732,0.05856,-0.04392,-0.00732,0.02928,-0.05124,0.0244,-0.06832,-0.02928,-0.0488,-0.04392,-0.05368
-0.0732,0.05856,-0.04392,-0.00732,0.02928,-0.05124,0.0244,-0.05856,-0.02928,-0.05368,-0.04392,-0.05368
-0.07808,0.061,-0.04392,-0.00488,0.03416,-0.05612,0.0244,-0.04392,-0.02928,-0.04392,-0.04392,-0.05368
-0.07808,0.05856,-0.03904,0,0.03904,-0.05856,0.0244,-0.03416,-0.02928,-0.04392,-0.04392,-0.05368
-0.07808,0.05856,-0.03904,0,0.03904,-0.05856,0.0244,-0.01952,-0.0244,-0.03904,-0.0488,-0.05368
-0.07808,0.05856,-0.03904,0,0.03904,-0.05856,0.0244,-0.01464,-0.02928,-0.04392,-0.04392,-0.05368
-0.06832,0.05368,-0.03904,-0.00488,0.02928,-0.0488,0.03416,-0.01464,-0.03416,-0.04392,-0.05368,-0.04392
-0.06344,0.05124,-0.03904,-0.00732,0.0244,-0.04392,0.03416,-0.01952,-0.03416,-0.04392,-0.0488,-0.04392
-0.06344,0.05124,-0.03904,-0.00732,0.0244,-0.04392,0.03416,-0.02928,-0.03416,-0.03904,-0.03904,-0.0488
-0.05856,0.0488,-0.03904,-0.00976,0.01952,-0.03904,0.03904,-0.03416,-0.02928,-0.03904,-0.03904,-0.0488
-0.05856,0.04392,-0.02928,0,0.02928,-0.04392,0.03904,-0.04392,-0.01952,-0.03416,-0.03904,-0.0488
-0.05856,0.04392,-0.02928,0,0.02928,-0.04392,0.03904,-0.04392,-0.01952,-0.03416,-0.03904,-0.0488
-0.05856,0.0488,-0.03904,-0.00976,0.01952,-0.03904,0.02928,-0.03904,-0.01952,-0.03416,-0.03904,-0.03904
-0.05368,0.04148,-0.02928,-0.00244,0.0244,-0.03904,0.02928,-0.03904,-0.01464,-0.03416,-0.03904,-0.03904
-0.05368,0.04148,-0.02928,-0.00244,0.0244,-0.03904,0.02928,-0.04392,-0.00976,-0.02928,-0.03416,-0.04392
-0.0488,0.03904,-0.02928,-0.00488,0.01952,-0.03416,0.03416,-0.04392,-0.00976,-0.02928,-0.03416,-0.04392
-0.0488,0.03904,-0.02928,-0.00488,0.01952,-0.03416,0.0244,-0.0488,-0.00976,-0.02928,-0.04392,-0.04392
-0.04392,0.0366,-0.02928,-0.00732,0.01464,-0.02928,0.0244,-0.05368,-0.00976,-0.0244,-0.04392,-0.03904
-0.04392,0.0366,-0.02928,-0.00732,0.01464,-0.02928,0.0244,-0.05368,-0.01464,-0.01952,-0.02928,-0.03904
-0.04392,0.0366,-0.02928,-0.00732,0.01464,-0.02928,0.0244,-0.0488,-0.00488,-0.01464,-0.0244,-0.03904
-0.03904,0.03172,-0.0244,-0.00488,0.01464,-0.02684,0.02928,-0.05368,0,-0.01464,-0.01952,-0.03416
-0.03416,0.02928,-0.0244,-0.00732,0.00976,-0.02196,0.03416,-0.03904,0,-0.00976,-0.01464,-0.02928
-0.03416,0.02684,-0.01952,-0.00244,0.01464,-0.0244,0.03416,-0.03904,0.00488,0,-0.00976,-0.0244
-0.02928,0.02196,-0.01464,0,0.01464,-0.02196,0.02928,-0.03416,0.00976,0.00488,0,-0.01464
-0.03416,0.01952,-0.00488,0.0122,0.02928,-0.03172,0.02928,-0.01464,0.01952,0.01464,0.00488,-0.01464
-0.03416,0.01708,0,0.01708,0.03416,-0.03416,0.02928,0.00488,0.02928,0.01952,0.00976,0
-0.01952,0.00976,0,0.00976,0.01952,-0.01952,0.01952,0.01464,0.03416,0.00976,0.01464,0.00488
-0.01952,0.00732,0.00488,0.01464,0.0244,-0.02196,0.01464,0.02928,0.04392,0.01464,0.0244,0.00488
0.00488,-0.00976,0.01464,0.0122,0.00976,-0.00244,0.00488,0.03416,0.03904,0.03416,0.03416,0.01464
0.00488,-0.0122,0.01952,0.01708,0.01464,-0.00488,-0.00488,0.0488,0.03904,0.03904,0.03904,0.01952
0.01952,-0.02196,0.0244,0.01464,0.00488,0.00732,0,0.06344,0.05856,0.04392,0.03416,0.02928
0.0244,-0.03172,0.03904,0.02684,0.01464,0.00488,-0.00488,0.06344,0.06344,0.04392,0.03416,0.03416
0.03904,-0.04148,0.04392,0.0244,0.00488,0.01708,-0.00976,0.06832,0.0732,0.05856,0.05856,0.03904
0.03904,-0.04148,0.04392,0.0244,0.00488,0.01708,-0.01464,0.06344,0.08296,0.06344,0.06344,0.0488
0.03904,-0.04392,0.0488,0.02928,0.00976,0.01464,-0.01464,0.06344,0.08784,0.05856,0.06832,0.05368
0.04392,-0.0488,0.05368,0.03172,0.00976,0.01708,-0.01952,0.05856,0.08784,0.06344,0.0732,0.05368
0.0488,-0.05612,0.06344,0.03904,0.01464,0.01708,-0.03416,0.05856,0.09272,0.08296,0.08296,0.06832
0.0488,-0.061,0.0732,0.0488,0.0244,0.0122,-0.03416,0.0488,0.10736,0.08784,0.08784,0.06832
0.05856,-0.06588,0.0732,0.04392,0.01464,0.02196,-0.03904,0.0488,0.10736,0.07808,0.08784,0.08296
0.05856,-0.0732,0.08784,0.05856,0.02928,0.01464,-0.04392,0.04392,0.10736,0.08784,0.09272,0.08296
0.06344,-0.07564,0.08784,0.05612,0.0244,0.01952,-0.03416,0.03904,0.122,0.09272,0.09272,0.09272
0.06832,-0.08052,0.09272,0.05856,0.0244,0.02196,-0.03904,0.03904,0.122,0.0976,0.0976,0.09272
0.07808,-0.09028,0.10248,0.06344,0.0244,0.02684,-0.05368,0.03904,0.122,0.11224,0.10736,0.0976
0.08296,-0.10004,0.11712,0.07564,0.03416,0.0244,-0.05368,0.02928,0.122,0.11224,0.11224,0.0976
0.08296,-0.09516,0.10736,0.06588,0.0244,0.02928,-0.04392,0.0244,0.13664,0.11224,0.11224,0.10248
0.08296,-0.09516,0.10736,0.06588,0.0244,0.02928,-0.04392,0.01952,0.13664,0.11224,0.11224,0.10248
0.06344,-0.08296,0.10248,0.07076,0.03904,0.0122,-0.03904,0.01464,0.13664,0.11712,0.11712,0.10736
0.05368,-0.07808,0.10248,0.07564,0.0488,0.00244,-0.03904,0.00976,0.13176,0.11712,0.11224,0.10248
0.0488,-0.0732,0.0976,0.0732,0.0488,0,-0.02928,0.00976,0.12688,0.10248,0.09272,0.08296
0.04392,-0.06832,0.09272,0.07076,0.0488,-0.00244,-0.02928,0,0.122,0.0976,0.08784,0.07808
0.03416,-0.05856,0.08296,0.06588,0.0488,-0.00732,-0.0244,-0.00976,0.11224,0.08784,0.08296,0.0732
0.0244,-0.0488,0.0732,0.061,0.0488,-0.0122,-0.0244,-0.01952,0.10248,0.08296,0.06344,0.06832
0.01952,-0.04148,0.06344,0.05368,0.04392,-0.0122,-0.01464,-0.01464,0.08296,0.06832,0.06344,0.05368
0.01952,-0.03416,0.0488,0.03904,0.02928,-0.00488,-0.01464,-0.01464,0.07808,0.0488,0.05368,0.04392
0.00976,-0.0244,0.03904,0.03416,0.02928,-0.00976,-0.01464,-0.02928,0.05368,0.03904,0.03904,0.03416
0,-0.01708,0.03416,0.03416,0.03416,-0.01708,-0.00976,-0.02928,0.04392,0.02928,0.03416,0.01952
-0.00488,-0.00732,0.01952,0.02196,0.0244,-0.01464,-0.00488,-0.03904,0.03904,0.01464,0.01464,0
-0.00488,-0.00244,0.00976,0.0122,0.01464,-0.00976,-0.00488,-0.03904,0.03416,0.00976,0.00976,-0.00488
-0.00976,0.00244,0.00488,0.00976,0.01464,-0.0122,0.00488,-0.0488,0.0244,0.00488,0.00488,-0.00488
-0.01464,0.00976,-0.00488,0.00244,0.00976,-0.0122,0.01464,-0.0488,0.01952,-0.00488,0,-0.00976
-0.0244,0.02196,-0.01952,-0.00732,0.00488,-0.01464,0.01464,-0.0488,0.01464,-0.00488,-0.00976,-0.0244
-0.02928,0.02196,-0.01464,0,0.01464,-0.02196,0.01464,-0.0488,0.01464,-0.01464,-0.00976,-0.02928
-0.02928,0.0244,-0.01952,-0.00488,0.00976,-0.01952,0.01464,-0.0488,0,-0.01464,-0.00976,-0.01952
-0.02928,0.0244,-0.01952,-0.00488,0.00976,-0.01952,0.01464,-0.0488,-0.00976,-0.01952,-0.01464,-0.02928
-0.03416,0.02928,-0.0244,-0.00732,0.00976,-0.02196,0.01464,-0.0488,0,-0.0244,-0.0244,-0.02928
-0.03416,0.02928,-0.0244,-0.00732,0.00976,-0.02196,0.01952,-0.04392,-0.00488,-0.0244,-0.02928,-0.02928
-0.01952,0.0244,-0.02928,-0.01952,-0.00976,-0.00488,0.00488,-0.04392,-0.01464,-0.0244,-0.01952,-0.02928
-0.0244,0.0244,-0.0244,-0.0122,0,-0.0122,0.00488,-0.04392,-0.01464,-0.02928,-0.01952,-0.02928
-0.0244,0.02684,-0.02928,-0.01708,-0.00488,-0.00976,0.00488,-0.03416,-0.00488,-0.02928,-0.02928,-0.02928
-0.0244,0.02684,-0.02928,-0.01708,-0.00488,-0.00976,0.00976,-0.02928,-0.00976,-0.02928,-0.02928,-0.02928
-0.01952,0.0244,-0.02928,-0.01952,-0.00976,-0.00488,0.00488,-0.02928,-0.00976,-0.02928,-0.03904,-0.03904
-0.01952,0.0244,-0.02928,-0.01952,-0.00976,-0.00488,0.00488,-0.01952,-0.00976,-0.02928,-0.04392,-0.03904
-0.01952,0.0244,-0.02928,-0.01952,-0.00976,-0.00488,0.00488,-0.01464,-0.00976,-0.02928,-0.03416,-0.03904
-0.01952,0.0244,-0.02928,-0.01952,-0.00976,-0.00488,0,-0.00976,-0.00976,-0.02928,-0.0244,-0.03904
-0.01464,0.02196,-0.02928,-0.02196,-0.01464,0,0.00488,-0.00976,-0.00976,-0.02928,-0.0244,-0.03904
-0.01464,0.02196,-0.02928,-0.02196,-0.01464,0,0,0,-0.01464,-0.02928,-0.0244,-0.03904
-0.00488,0.0122,-0.01952,-0.01708,-0.01464,0.00488,0,0,-0.00976,-0.02928,-0.03416,-0.03904
-0.00488,0.01464,-0.0244,-0.02196,-0.01952,0.00732,0,0,-0.00976,-0.0244,-0.0244,-0.03416
-0.00488,0.01708,-0.02928,-0.02684,-0.0244,0.00976,0,-0.01464,-0.00976,-0.0244,-0.03416,-0.03416
-0.00488,0.01708,-0.02928,-0.02684,-0.0244,0.00976,0,-0.00976,-0.00976,-0.0244,-0.03416,-0.03416
-0.01464,0.02196,-0.02928,-0.02196,-0.01464,0,0.00976,-0.00976,-0.00488,-0.01952,-0.0244,-0.03416
-0.01952,0.0244,-0.02928,-0.01952,-0.00976,-0.00488,0.00976,-0.00488,0,-0.01952,-0.01464,-0.02928
-0.01952,0.0244,-0.02928,-0.01952,-0.00976,-0.00488,0,0,0,-0.0244,-0.00976,-0.02928
-0.01464,0.02196,-0.02928,-0.02196,-0.01464,0,0,0.00488,0,-0.0244,-0.00976,-0.02928
-0.01464,0.01952,-0.0244,-0.01708,-0.00976,-0.00244,0.00976,0.01952,0,-0.01464,-0.01952,-0.02928
-0.01464,0.01952,-0.0244,-0.01708,-0.00976,-0.00244,0.00488,0.0244,0,-0.01464,-0.01464,-0.02928
-0.01464,0.01952,-0.0244,-0.01708,-0.00976,-0.00244,0,0.02928,0,-0.01952,-0.01464,-0.02928
-0.00976,0.01708,-0.0244,-0.01952,-0.01464,0.00244,0,0.02928,0.00488,-0.01952,-0.00976,-0.0244
-0.00976,0.01464,-0.01952,-0.01464,-0.00976,0,0,0.02928,0.00488,-0.00488,-0.00976,-0.0244
-0.00976,0.01708,-0.0244,-0.01952,-0.01464,0.00244,0,0.03416,0.00488,-0.00488,-0.00976,-0.0244
-0.00976,0.01708,-0.0244,-0.01952,-0.01464,0.00244,0.00976,0.04392,0.00488,-0.00488,-0.00488,-0.01952
-0.00976,0.01708,-0.0244,-0.01952,-0.01464,0.00244,0.00976,0.04392,0.00976,-0.00488,-0.00488,-0.01952
-0.00976,0.01708,-0.0244,-0.01952,-0.01464,0.00244,0.00976,0.04392,0.00976,-0.00488,-0.00488,-0.01464
-0.00976,0.01464,-0.01952,-0.01464,-0.00976,0,0.00976,0.04392,0.01464,-0.00488,-0.00488,-0.01464
0,0.00488,-0.00976,-0.00976,-0.00976,0.00488,0.00976,0.04392,0.01464,-0.00488,-0.00488,-0.01952
0,0.00488,-0.00976,-0.00976,-0.00976,0.00488,0.00976,0.03904,0.01464,0,-0.00488,-0.01464
-0.00976,0.00976,-0.00976,-0.00488,0,-0.00488,0,0.03904,0.01464,0,-0.00488,-0.0244
-0.00976,0.00976,-0.00976,-0.00488,0,-0.00488,0.00488,0.03416,0.01464,0,-0.00488,-0.0244
-0.00976,0.00976,-0.00976,-0.00488,0,-0.00488,0.00976,0.02928,0.01464,-0.00976,-0.00488,-0.0244
-0.01464,0.0122,-0.00976,-0.00244,0.00488,-0.00976,0.00976,0.03416,0.01464,-0.00488,0,-0.0244
-0.01464,0.0122,-0.00976,-0.00244,0.00488,-0.00976,0.01464,0.01952,0.01464,0,0,-0.01952
-0.01464,0.0122,-0.00976,-0.00244,0.00488,-0.00976,0.01464,0.01952,0.01464,0,-0.00488,-0.01952
-0.01464,0.0122,-0.00976,-0.00244,0.00488,-0.00976,0.00488,0.01464,0.01464,-0.00976,-0.01464,-0.02928
-0.01464,0.0122,-0.00976,-0.00244,0.00488,-0.00976,0.00488,0.01464,0.01464,-0.00976,-0.01464,-0.0244
-0.01464,0.0122,-0.00976,-0.00244,0.00488,-0.00976,0.00488,0.0244,0.00976,-0.00976,-0.01464,-0.0244
-0.01464,0.01464,-0.01464,-0.00732,0,-0.00732,0.00488,0.01952,0.00976,-0.01464,-0.01464,-0.02928
-0.01464,0.01464,-0.01464,-0.00732,0,-0.00732,0.00488,0.01952,0.00976,-0.01464,-0.00976,-0.03416
-0.01952,0.01708,-0.01464,-0.00488,0.00488,-0.0122,0.00488,0.01952,0.00976,-0.01464,-0.00976,-0.03416
-0.01952,0.02196,-0.0244,-0.01464,-0.00488,-0.00732,0.00976,0.01952,0.00976,-0.00976,-0.00976,-0.0244
-0.01952,0.02196,-0.0244,-0.01464,-0.00488,-0.00732,0.00976,0.01464,0.00488,-0.00976,-0.00976,-0.0244
-0.01952,0.01708,-0.01464,-0.00488,0.00488,-0.0122,0.00976,0.01464,0.00488,-0.01952,-0.0244,-0.02928
-0.0244,0.02196,-0.01952,-0.00732,0.00488,-0.01464,0.00976,0.01464,0,-0.01952,-0.0244,-0.02928
-0.0244,0.02684,-0.02928,-0.01708,-0.00488,-0.00976,0.01464,0.01952,0,-0.0244,-0.01464,-0.02928
-0.0244,0.02684,-0.02928,-0.01708,-0.00488,-0.00976,0.01952,0.01952,0,-0.0244,-0.01952,-0.02928
-0.0244,0.02196,-0.01952,-0.00732,0.00488,-0.01464,0.01464,0.01952,-0.00488,-0.02928,-0.01952,-0.03416
-0.0244,0.02196,-0.01952,-0.00732,0.00488,-0.01464,0.00976,0.01952,-0.00488,-0.02928,-0.01952,-0.03416
-0.0244,0.0244,-0.0244,-0.0122,0,-0.0122,0.00976,0.01952,-0.01952,-0.02928,-0.02928,-0.03416
-0.0244,0.0244,-0.0244,-0.0122,0,-0.0122,0.00976,0.01952,-0.01952,-0.03416,-0.03416,-0.03904
-0.0244,0.02928,-0.03416,-0.02196,-0.00976,-0.00732,0.01464,0.00976,-0.01464,-0.03416,-0.03416,-0.03904
-0.0244,0.02928,-0.03416,-0.02196,-0.00976,-0.00732,0.01464,0.00976,-0.01464,-0.03416,-0.03904,-0.03904
-0.0244,0.03416,-0.04392,-0.03172,-0.01952,-0.00244,0.00488,0.01952,-0.01464,-0.02928,-0.03904,-0.03904
-0.0244,0.0366,-0.0488,-0.0366,-0.0244,0,0.00976,0.01952,-0.01464,-0.02928,-0.03904,-0.03904
-0.0244,0.03416,-0.04392,-0.03172,-0.01952,-0.00244,0.01952,0.01952,-0.01952,-0.03904,-0.03904,-0.04392
-0.0244,0.03416,-0.04392,-0.03172,-0.01952,-0.00244,0.01952,0.01952,-0.01952,-0.03904,-0.04392,-0.04392
-0.0244,0.03416,-0.04392,-0.03172,-0.01952,-0.00244,0.0244,0.0244,-0.01952,-0.04392,-0.03416,-0.04392
-0.0244,0.03416,-0.04392,-0.03172,-0.01952,-0.00244,0.0244,0.0244,-0.0244,-0.04392,-0.03416,-0.04392
-0.0244,0.02928,-0.03416,-0.02196,-0.00976,-0.00732,0.01464,0.01464,-0.01952,-0.04392,-0.04392,-0.04392
-0.0244,0.02928,-0.03416,-0.02196,-0.00976,-0.00732,0.01952,0.01464,-0.0244,-0.04392,-0.04392,-0.04392
-0.0244,0.03416,-0.04392,-0.03172,-0.01952,-0.00244,0.00976,0.01464,-0.0244,-0.03904,-0.0488,-0.0488
-0.0244,0.0366,-0.0488,-0.0366,-0.0244,0,0.00976,0.01464,-0.0244,-0.03904,-0.0488,-0.0488
-0.0244,0.03172,-0.03904,-0.02684,-0.01464,-0.00488,0.01464,0.01952,-0.02928,-0.0488,-0.0488,-0.0488
-0.0244,0.03172,-0.03904,-0.02684,-0.01464,-0.00488,0.01464,0.01952,-0.02928,-0.0488,-0.0488,-0.0488
-0.0244,0.03172,-0.03904,-0.02684,-0.01464,-0.00488,0.00488,0.00976,-0.02928,-0.0488,-0.0488,-0.05368
-0.02928,0.0366,-0.04392,-0.02928,-0.01464,-0.00732,0.00976,0.00976,-0.0244,-0.0488,-0.0488,-0.05368
-0.02928,0.0366,-0.04392,-0.02928,-0.01464,-0.00732,0.00976,0.00976,-0.02928,-0.03904,-0.0488,-0.05368
-0.02928,0.0366,-0.04392,-0.02928,-0.01464,-0.00732,0.00976,0.00488,-0.02928,-0.04392,-0.0488,-0.05368
-0.02928,0.04148,-0.05368,-0.03904,-0.0244,-0.00244,0.00976,0.00488,-0.01952,-0.0488,-0.0488,-0.05368
-0.02928,0.03904,-0.0488,-0.03416,-0.01952,-0.00488,0.01464,0.00488,-0.01952,-0.05368,-0.05368,-0.05368
-0.02928,0.03904,-0.0488,-0.03416,-0.01952,-0.00488,0.01464,0.00488,-0.01952,-0.04392,-0.04392,-0.05368
-0.02928,0.0366,-0.04392,-0.02928,-0.01464,-0.00732,0.01464,0.00488,-0.01952,-0.04392,-0.04392,-0.05368
-0.03416,0.03904,-0.04392,-0.02684,-0.00976,-0.0122,0.01464,0.00488,-0.01952,-0.04392,-0.05368,-0.05368
-0.03416,0.03904,-0.04392,-0.02684,-0.00976,-0.0122,0.01464,0,-0.01952,-0.04392,-0.05368,-0.05368
-0.03904,0.04148,-0.04392,-0.0244,-0.00488,-0.01708,0.01464,0,-0.01952,-0.04392,-0.05368,-0.05368
-0.03416,0.03904,-0.04392,-0.02684,-0.00976,-0.0122,0.01464,0,-0.01952,-0.04392,-0.05368,-0.05368
-0.03904,0.04148,-0.04392,-0.0244,-0.00488,-0.01708,0.01464,0,-0.01952,-0.04392,-0.04392,-0.05368
-0.03904,0.04148,-0.04392,-0.0244,-0.00488,-0.01708,0.01464,0,-0.01952,-0.04392,-0.04392,-0.05368
-0.02928,0.0366,-0.04392,-0.02928,-0.01464,-0.00732,0.01464,0,-0.01952,-0.05368,-0.04392,-0.05368
-0.02928,0.0366,-0.04392,-0.02928,-0.01464,-0.00732,0.01464,0,-0.01952,-0.05368,-0.04392,-0.05368
-0.02928,0.0366,-0.04392,-0.02928,-0.01464,-0.00732,0.01952,0,-0.02928,-0.05368,-0.0488,-0.05368
-0.02928,0.03904,-0.0488,-0.03416,-0.01952,-0.00488,0.01952,-0.00488,-0.02928,-0.05368,-0.0488,-0.05368
-0.02928,0.0366,-0.04392,-0.02928,-0.01464,-0.00732,0.01952,0.00488,-0.02928,-0.05368,-0.05368,-0.05368
-0.02928,0.0366,-0.04392,-0.02928,-0.01464,-0.00732,0.01952,0.00976,-0.02928,-0.05368,-0.0488,-0.05368
-0.02928,0.04148,-0.05368,-0.03904,-0.0244,-0.00244,0.01952,0.00488,-0.02928,-0.05368,-0.0488,-0.05368
-0.02928,0.04148,-0.05368,-0.03904,-0.0244,-0.00244,0.01952,0.00488,-0.02928,-0.05368,-0.0488,-0.05368
-0.02928,0.0366,-0.04392,-0.02928,-0.01464,-0.00732,0.01464,0.00488,-0.02928,-0.05368,-0.0488,-0.05368
-0.02928,0.0366,-0.04392,-0.02928,-0.01464,-0.00732,0.01464,0.00976,-0.02928,-0.05368,-0.0488,-0.05368
-0.02928,0.0366,-0.04392,-0.02928,-0.01464,-0.00732,0.00976,0.00976,-0.0244,-0.05368,-0.05368,-0.05368
-0.02928,0.03904,-0.0488,-0.03416,-0.01952,-0.00488,0.01952,0,-0.02928,-0.0488,-0.0488,-0.0488
-0.02928,0.03904,-0.0488,-0.03416,-0.01952,-0.00488,0.00976,0,-0.02928,-0.05856,-0.05856,-0.05856
-0.02928,0.03904,-0.0488,-0.03416,-0.01952,-0.00488,0.00976,0,-0.02928,-0.05856,-0.05856,-0.05856
-0.02928,0.03904,-0.0488,-0.03416,-0.01952,-0.00488,0.00976,0,-0.02928,-0.05856,-0.05856,-0.05856
-0.02928,0.03904,-0.0488,-0.03416,-0.01952,-0.00488,0.00976,0,-0.02928,-0.05856,-0.05856,-0.05856
-0.02928,0.03904,-0.0488,-0.03416,-0.01952,-0.00488,0.00976,0,-0.02928,-0.05856,-0.05856,-0.05856
-0.02928,0.03904,-0.0488,-0.03416,-0.01952,-0.00488,0.00976,0,-0.02928,-0.05856,-0.05856,-0.05856
-0.03904,0.04392,-0.0488,-0.02928,-0.00976,-0.01464,0.00976,0,-0.02928,-0.0488,-0.0488,-0.05856
-0.03904,0.04392,-0.0488,-0.02928,-0.00976,-0.01464,0.00976,0,-0.02928,-0.0488,-0.0488,-0.05856
-0.03904,0.04392,-0.0488,-0.02928,-0.00976,-0.01464,0.00976,0,-0.02928,-0.05856,-0.05856,-0.05856
-0.03904,0.04392,-0.0488,-0.02928,-0.00976,-0.01464,0.00976,0,-0.02928,-0.05856,-0.05856,-0.05856
-0.03904,0.04392,-0.0488,-0.02928,-0.00976,-0.01464,0.00976,0,-0.02928,-0.05856,-0.05856,-0.05856
-0.03904,0.04392,-0.0488,-0.02928,-0.00976,-0.01464,0.00976,0,-0.02928,-0.05856,-0.05856,-0.05856
-0.03904,0.04392,-0.0488,-0.02928,-0.00976,-0.01464,0.00976,0,-0.02928,-0.05856,-0.05856,-0.05856
-0.03904,0.04392,-0.0488,-0.02928,-0.00976,-0.01464,0.00976,0,-0.02928,-0.05856,-0.05856,-0.05856
-0.03904,0.0488,-0.05856,-0.03904,-0.01952,-0.00976,0.00976,0,-0.02928,-0.05856,-0.05856,-0.05856
-0.03904,0.0488,-0.05856,-0.03904,-0.01952,-0.00976,0.00976,0,-0.02928,-0.05856,-0.05856,-0.05856
-0.02928,0.03904,-0.0488,-0.03416,-0.01952,-0.00488,0.00976,0,-0.02928,-0.05856,-0.05856,-0.05856
-0.02928,0.03904,-0.0488,-0.03416,-0.01952,-0.00488,0.00976,0,-0.02928,-0.05856,-0.05856,-0.05856
-0.02928,0.03904,-0.0488,-0.03416,-0.01952,-0.00488,0.01952,0,-0.02928,-0.0488,-0.05856,-0.05856
-0.02928,0.03904,-0.0488,-0.03416,-0.01952,-0.00488,0.01952,0,-0.02928,-0.0488,-0.05856,-0.05856
-0.02928,0.04148,-0.05368,-0.03904,-0.0244,-0.00244,0.01464,0.00976,-0.0244,-0.05856,-0.05856,-0.05856
-0.02928,0.04148,-0.05368,-0.03904,-0.0244,-0.00244,0.01464,0.01464,-0.01464,-0.0488,-0.05368,-0.0488
-0.01952,0.0244,-0.02928,-0.01952,-0.00976,-0.00488,0.01464,0.01464,-0.00488,-0.02928,-0.03416,-0.04392
-0.01464,0.01708,-0.01952,-0.0122,-0.00488,-0.00488,0.01464,0.0244,0.00976,-0.01952,-0.0244,-0.03416
-0.00488,0.00244,0,0.00244,0.00488,-0.00488,0.01464,0.0244,0.0244,0.00488,-0.00976,-0.01952
-0.00976,-0.00244,0.01464,0.01952,0.0244,-0.01708,0.01952,0.0244,0.02928,0.01464,0,-0.01464
0.00488,-0.00976,0.01464,0.0122,0.00976,-0.00244,0.02928,0.04392,0.04392,0.01464,0.00488,-0.00976
0.00488,-0.00976,0.01464,0.0122,0.00976,-0.00244,0.03416,0.04392,0.04392,0.01464,0.00488,-0.00976
0.00488,-0.00488,0.00488,0.00244,0,0.00244,0.03416,0.04392,0.04392,0.01464,0.00976,-0.01464
0.00976,0,-0.00976,-0.01464,-0.01952,0.01464,0.03904,0.05368,0.04392,0.00488,-0.00488,-0.01464
0.00976,-0.00244,-0.00488,-0.00976,-0.01464,0.0122,0.03416,0.05368,0.04392,0.00488,-0.00488,-0.01464
0.00976,0,-0.00976,-0.01464,-0.01952,0.01464,0.03416,0.0488,0.02928,-0.00488,-0.00488,-0.0244
0.00976,0.00244,-0.01464,-0.01952,-0.0244,0.01708,0.04392,0.0488,0.01952,-0.00976,-0.01464,-0.02928
0.00976,0.00732,-0.0244,-0.02928,-0.03416,0.02196,0.02928,0.03904,0,-0.01952,-0.0244,-0.03416
-0.00488,0.02684,-0.0488,-0.04636,-0.04392,0.01952,0.01464,0.01952,-0.01464,-0.03904,-0.03416,-0.04392
-0.00488,0.02928,-0.05368,-0.05124,-0.0488,0.02196,-0.00976,-0.00488,-0.03904,-0.05368,-0.0488,-0.05368
-0.00976,0.03416,-0.05856,-0.05368,-0.0488,0.01952,-0.00488,-0.01952,-0.03904,-0.05856,-0.05368,-0.05368
-0.00976,0.03172,-0.05368,-0.0488,-0.04392,0.01708,-0.00488,-0.01952,-0.03416,-0.05856,-0.0488,-0.05368
0,0.02196,-0.04392,-0.04392,-0.04392,0.02196,-0.00488,-0.00976,-0.03416,-0.04392,-0.04392,-0.0488
0,0.0244,-0.0488,-0.0488,-0.0488,0.0244,-0.00488,-0.00488,-0.02928,-0.04392,-0.04392,-0.0488
-0.00976,0.02928,-0.0488,-0.04392,-0.03904,0.01464,0,-0.00488,-0.03904,-0.05856,-0.0488,-0.05856
-0.00976,0.02928,-0.0488,-0.04392,-0.03904,0.01464,0.00488,0,-0.04392,-0.06344,-0.05368,-0.06344
0,0.02928,-0.05856,-0.05856,-0.05856,0.02928,0.00488,-0.01464,-0.04392,-0.06832,-0.05368,-0.06344
0,0.02196,-0.04392,-0.04392,-0.04392,0.02196,0,-0.01464,-0.04392,-0.06832,-0.05856,-0.06344
-0.00488,0.02928,-0.05368,-0.05124,-0.0488,0.02196,0,-0.01464,-0.0488,-0.06344,-0.06344,-0.05856
-0.01464,0.02928,-0.04392,-0.0366,-0.02928,0.00732,0.00488,-0.01464,-0.03904,-0.05856,-0.05368,-0.05368
-0.03904,0.04148,-0.04392,-0.0244,-0.00488,-0.01708,0.00976,-0.00488,-0.03416,-0.04392,-0.03904,-0.0488
-0.04392,0.04636,-0.0488,-0.02684,-0.00488,-0.01952,0.00976,-0.00488,-0.04392,-0.04392,-0.0488,-0.0488
-0.05368,0.05612,-0.05856,-0.03172,-0.00488,-0.0244,0.01464,-0.01464,-0.04392,-0.06344,-0.05856,-0.06832
-0.05856,0.06344,-0.06832,-0.03904,-0.00976,-0.0244,0.01952,-0.01952,-0.04392,-0.06832,-0.06832,-0.0732
-0.05856,0.06344,-0.06832,-0.03904,-0.00976,-0.0244,0.00976,-0.01952,-0.0488,-0.08296,-0.0732,-0.0732
-0.05856,0.061,-0.06344,-0.03416,-0.00488,-0.02684,0.00976,-0.0244,-0.0488,-0.08296,-0.0732,-0.06832
-0.06344,0.06344,-0.06344,-0.03172,0,-0.03172,0.01952,-0.01952,-0.05368,-0.06832,-0.0732,-0.07808
-0.06832,0.06588,-0.06344,-0.02928,0.00488,-0.0366,0.01952,-0.01952,-0.05368,-0.06832,-0.06832,-0.07808
-0.06832,0.06832,-0.06832,-0.03416,0,-0.03416,0.01952,-0.01952,-0.05368,-0.06832,-0.06832,-0.07808
-0.06832,0.06832,-0.06832,-0.03416,0,-0.03416,0.01952,-0.01952,-0.05368,-0.06832,-0.06832,-0.07808
-0.06832,0.06588,-0.06344,-0.02928,0.00488,-0.0366,0.00976,-0.01952,-0.0488,-0.06832,-0.06832,-0.0732
-0.06344,0.061,-0.05856,-0.02684,0.00488,-0.03416,0.00976,-0.01952,-0.0488,-0.06344,-0.06832,-0.0732
-0.06344,0.061,-0.05856,-0.02684,0.00488,-0.03416,0.01464,-0.0244,-0.0488,-0.0732,-0.06344,-0.0732
-0.06832,0.06344,-0.05856,-0.0244,0.00976,-0.03904,0.01952,-0.0244,-0.0488,-0.0732,-0.06344,-0.0732
-0.06832,0.061,-0.05368,-0.01952,0.01464,-0.04148,0.01952,-0.02928,-0.04392,-0.0732,-0.06344,-0.06832
-0.06832,0.06344,-0.05856,-0.0244,0.00976,-0.03904,0.0244,-0.02928,-0.03904,-0.06832,-0.06344,-0.06832
-0.0732,0.06588,-0.05856,-0.02196,0.01464,-0.04392,0.04392,-0.01464,-0.0244,-0.06832,-0.06832,-0.08296
-0.11712,0.10004,-0.08296,-0.0244,0.03416,-0.07564,0.09272,0.02928,0,-0.05368,-0.07808,-0.10736
-0.10248,0.08784,-0.0732,-0.02196,0.02928,-0.06588,0.11224,0.06832,0.0244,-0.05368,-0.08296,-0.122
-0.09272,0.08784,-0.08296,-0.0366,0.00976,-0.05124,0.14152,0.11224,0.06832,-0.03416,-0.06344,-0.09272
-0.01464,0.03172,-0.0488,-0.04148,-0.03416,0.00976,0.13664,0.20984,0.16592,0.07808,0.03416,-0.00976
0.14152,-0.08296,0.0244,-0.04636,-0.11712,0.12932,0.07808,0.30256,0.29768,0.22936,0.20496,0.1464
0.35624,-0.29768,0.23912,0.061,-0.11712,0.23668,-0.04392,0.38552,0.47824,0.43432,0.42944,0.3904
0.58072,-0.54656,0.5124,0.22204,-0.06832,0.32452,-0.27816,0.31232,0.6344,0.66368,0.69296,0.6832
0.78568,-0.74664,0.7076,0.31476,-0.07808,0.43188,-0.488,0.18056,0.62952,0.78568,0.86864,0.9028
0.8296,-0.78812,0.74664,0.33184,-0.08296,0.45628,-0.59536,0.06832,0.5856,0.83448,0.97112,1.01016
0.69784,-0.6954,0.69296,0.34404,-0.00488,0.35136,-0.60024,-0.0976,0.52704,0.79056,0.93696,0.99064
0.50264,-0.49776,0.49288,0.24156,-0.00976,0.2562,-0.54168,-0.29768,0.16592,0.42456,0.60024,0.70272
0.19032,-0.24156,0.2928,0.19764,0.10248,0.04392,-0.3904,-0.4392,-0.25376,0.01952,0.20984,0.37576
-0.01952,-0.04636,0.11224,0.122,0.13176,-0.07564,-0.27328,-0.46848,-0.44896,-0.20496,-0.01464,0.14152
-0.07808,0.04148,-0.00488,0.03416,0.0732,-0.07564,-0.19032,-0.40504,-0.53192,-0.32208,-0.14152,0.00976
-0.08784,0.06588,-0.04392,0,0.04392,-0.06588,-0.0976,-0.2684,-0.46848,-0.3172,-0.18056,-0.06832
-0.05856,0.05368,-0.0488,-0.01952,0.00976,-0.03416,-0.02928,-0.12688,-0.3172,-0.22448,-0.13664,-0.05368
-0.04392,0.04636,-0.0488,-0.02684,-0.00488,-0.01952,0.01952,-0.01952,-0.1708,-0.13176,-0.08784,-0.05368
-0.0244,0.04148,-0.05856,-0.04636,-0.03416,0.00488,0.03416,0.01952,-0.08296,-0.0732,-0.06344,-0.0488
-0.0244,0.0366,-0.0488,-0.0366,-0.0244,0,0.03416,-0.00488,-0.05856,-0.06344,-0.0488,-0.04392
-0.02928,0.02928,-0.02928,-0.01464,0,-0.01464,0.0244,-0.0244,-0.05856,-0.0732,-0.03904,-0.0488
-0.04392,0.03904,-0.03416,-0.0122,0.00976,-0.02684,0.0244,-0.0244,-0.02928,-0.0488,-0.03416,-0.0488
-0.05368,0.0488,-0.04392,-0.01708,0.00976,-0.03172,0.01464,-0.03904,-0.01464,-0.04392,-0.0244,-0.04392
-0.0488,0.04148,-0.03416,-0.00976,0.01464,-0.03172,0.00976,-0.06344,-0.0244,-0.05368,-0.03904,-0.0488
-0.05368,0.04392,-0.03416,-0.00732,0.01952,-0.0366,0.01464,-0.06832,-0.02928,-0.05368,-0.03904,-0.05368
-0.06344,0.05368,-0.04392,-0.0122,0.01952,-0.04148,0.01952,-0.07808,-0.02928,-0.05368,-0.04392,-0.05368
-0.0732,0.05856,-0.04392,-0.00732,0.02928,-0.05124,0.01952,-0.08784,-0.01952,-0.05368,-0.04392,-0.05368
-0.06344,0.05612,-0.0488,-0.01708,0.01464,-0.03904,0.01952,-0.08296,-0.01952,-0.04392,-0.04392,-0.04392
-0.06832,0.05856,-0.0488,-0.01464,0.01952,-0.04392,0.0244,-0.08296,-0.01952,-0.03904,-0.03904,-0.03904
-0.0732,0.05856,-0.04392,-0.00732,0.02928,-0.05124,0.0244,-0.08296,-0.01952,-0.0488,-0.04392,-0.04392
-0.0732,0.05856,-0.04392,-0.00732,0.02928,-0.05124,0.0244,-0.07808,-0.01952,-0.0488,-0.04392,-0.04392
-0.0732,0.05856,-0.04392,-0.00732,0.02928,-0.05124,0.0244,-0.06832,-0.01952,-0.03904,-0.04392,-0.05368
-0.0732,0.05856,-0.04392,-0.00732,0.02928,-0.05124,0.0244,-0.05856,-0.01952,-0.04392,-0.04392,-0.05368
-0.07808,0.061,-0.04392,-0.00488,0.03416,-0.05612,0.0244,-0.04392,-0.00976,-0.04392,-0.04392,-0.05368
-0.07808,0.05856,-0.03904,0,0.03904,-0.05856,0.0244,-0.03416,-0.00976,-0.04392,-0.04392,-0.05368
-0.06832,0.05856,-0.0488,-0.01464,0.01952,-0.04392,0.0244,-0.02928,-0.01464,-0.0488,-0.05856,-0.05368
