i,aVR,ii,aVF,iii,aVL,V1,V2,V3,V4,V5,V6
0.00488,0.00976,-0.0244,-0.02684,-0.02928,0.01708,0.16104,0.20496,0.18056,0.06344,0.03904,0.00488
0.01464,0,-0.01464,-0.02196,-0.02928,0.02196,0.16592,0.2196,0.20008,0.06832,0.03904,0.00976
0.01952,-0.00976,0,-0.00976,-0.01952,0.01952,0.18544,0.23424,0.2196,0.08296,0.0488,0.00976
0.0244,-0.00732,-0.00976,-0.02196,-0.03416,0.02928,0.1952,0.25864,0.23912,0.10248,0.05856,0.01952
0.0244,-0.00976,-0.00488,-0.01708,-0.02928,0.02684,0.20496,0.27328,0.26352,0.122,0.06344,0.02928
0.02928,-0.01952,0.00976,-0.00488,-0.01952,0.0244,0.2196,0.2928,0.28792,0.14152,0.07808,0.03904
0.0244,-0.01708,0.00976,-0.00244,-0.01464,0.01952,0.22936,0.3172,0.3172,0.15616,0.08784,0.0488
0.02928,-0.0244,0.01952,0.00488,-0.00976,0.01952,0.23912,0.3416,0.3416,0.17568,0.10736,0.05856
0.03904,-0.03416,0.02928,0.00976,-0.00976,0.0244,0.25376,0.37576,0.37576,0.20008,0.13176,0.06832
0.04392,-0.04392,0.04392,0.02196,0,0.02196,0.26352,0.39528,0.40992,0.22448,0.15128,0.07808
0.0488,-0.05612,0.06344,0.03904,0.01464,0.01708,0.27328,0.4148,0.44408,0.24888,0.16592,0.08296
0.05856,-0.0732,0.08784,0.05856,0.02928,0.01464,0.27816,0.44408,0.47824,0.2684,0.17568,0.0976
0.06344,-0.0854,0.10736,0.07564,0.04392,0.00976,0.28792,0.46848,0.5124,0.29768,0.1952,0.10736
0.06832,-0.0976,0.12688,0.09272,0.05856,0.00488,0.2928,0.488,0.54656,0.33184,0.2196,0.12688
0.06832,-0.1098,0.15128,0.11712,0.08296,-0.00732,0.30256,0.50752,0.57584,0.37088,0.24888,0.1464
0.0732,-0.12444,0.17568,0.13908,0.10248,-0.01464,0.30256,0.52216,0.61488,0.40016,0.2684,0.16592
0.08784,-0.14152,0.1952,0.15128,0.10736,-0.00976,0.29768,0.53192,0.64416,0.42456,0.28304,0.18056
0.0976,-0.1586,0.2196,0.1708,0.122,-0.0122,0.29768,0.54656,0.67344,0.45384,0.3172,0.20984
0.10736,-0.17324,0.23912,0.18544,0.13176,-0.0122,0.28792,0.55632,0.70272,0.47824,0.33672,0.2196
0.10248,-0.18056,0.25864,0.2074,0.15616,-0.02684,0.28304,0.55632,0.72712,0.50264,0.35624,0.23912
0.10248,-0.19032,0.27816,0.22692,0.17568,-0.0366,0.27328,0.55632,0.74176,0.52216,0.37088,0.24888
0.10736,-0.20496,0.30256,0.24888,0.1952,-0.04392,0.2684,0.55144,0.75152,0.54168,0.38552,0.25864
0.11224,-0.2196,0.32696,0.27084,0.21472,-0.05124,0.25376,0.54168,0.75152,0.55632,0.39528,0.2684
0.122,-0.2318,0.3416,0.2806,0.2196,-0.0488,0.244,0.51728,0.75152,0.5612,0.40992,0.27816
0.13176,-0.244,0.35624,0.29036,0.22448,-0.04636,0.22448,0.49776,0.74176,0.56608,0.41968,0.28304
0.122,-0.24644,0.37088,0.30988,0.24888,-0.06344,0.20496,0.46848,0.71736,0.55632,0.40504,0.28304
0.122,-0.25132,0.38064,0.31964,0.25864,-0.06832,0.18544,0.42944,0.6832,0.54168,0.40016,0.27816
0.122,-0.25132,0.38064,0.31964,0.25864,-0.06832,0.16592,0.3904,0.63928,0.5124,0.38064,0.2684
0.11224,-0.24644,0.38064,0.32452,0.2684,-0.07808,0.1464,0.34648,0.59048,0.47336,0.34648,0.24888
0.10248,-0.23424,0.366,0.31476,0.26352,-0.08052,0.10248,0.2928,0.51728,0.4148,0.31232,0.2196
0.09272,-0.22448,0.35624,0.30988,0.26352,-0.0854,0.0732,0.244,0.44896,0.366,0.2684,0.19032
0.08296,-0.20984,0.33672,0.29524,0.25376,-0.0854,0.05856,0.20008,0.38064,0.30744,0.22936,0.16104
0.06832,-0.19276,0.3172,0.28304,0.24888,-0.09028,0.0488,0.15616,0.30744,0.244,0.18056,0.12688
0.0488,-0.16348,0.27816,0.25376,0.22936,-0.09028,0.02928,0.0976,0.22936,0.17568,0.12688,0.08784
0.02928,-0.1342,0.23912,0.22448,0.20984,-0.09028,0.00976,0.05856,0.16592,0.12688,0.08784,0.05856
0.01952,-0.12444,0.22936,0.2196,0.20984,-0.09516,-0.00488,0.02928,0.10736,0.07808,0.0488,0.02928
0.01464,-0.1098,0.20496,0.19764,0.19032,-0.08784,-0.00976,0.00976,0.05856,0.02928,0.01464,0
0,-0.0976,0.1952,0.1952,0.1952,-0.0976,-0.01952,-0.00976,0.01952,-0.00488,-0.01952,-0.03416
-0.00976,-0.08052,0.1708,0.17568,0.18056,-0.09516,-0.01952,-0.04392,-0.01952,-0.04392,-0.0488,-0.05856
-0.01464,-0.06588,0.1464,0.15372,0.16104,-0.08784,-0.0244,-0.06832,-0.05856,-0.07808,-0.07808,-0.07808
-0.01952,-0.05612,0.13176,0.14152,0.15128,-0.0854,-0.0244,-0.07808,-0.08296,-0.10248,-0.0976,-0.09272
-0.01952,-0.05612,0.13176,0.14152,0.15128,-0.0854,-0.02928,-0.09272,-0.10736,-0.122,-0.11224,-0.10248
-0.02928,-0.05124,0.13176,0.1464,0.16104,-0.09516,-0.03904,-0.10248,-0.13176,-0.14152,-0.12688,-0.11712
-0.02928,-0.04392,0.11712,0.13176,0.1464,-0.08784,-0.04392,-0.10736,-0.13664,-0.1464,-0.14152,-0.13176
-0.02928,-0.04148,0.11224,0.12688,0.14152,-0.0854,-0.04392,-0.11224,-0.15128,-0.15616,-0.15616,-0.13664
-0.03904,-0.03172,0.10248,0.122,0.14152,-0.09028,-0.03904,-0.11712,-0.16104,-0.16592,-0.15616,-0.13664
-0.03904,-0.03172,0.10248,0.122,0.14152,-0.09028,-0.03904,-0.11712,-0.1708,-0.18056,-0.16592,-0.15128
-0.03904,-0.03172,0.10248,0.122,0.14152,-0.09028,-0.0488,-0.13176,-0.18056,-0.18544,-0.17568,-0.15616
-0.03904,-0.03172,0.10248,0.122,0.14152,-0.09028,-0.05368,-0.14152,-0.19032,-0.19032,-0.17568,-0.16104
-0.03904,-0.03172,0.10248,0.122,0.14152,-0.09028,-0.05368,-0.14152,-0.1952,-0.1952,-0.1708,-0.16104
-0.03904,-0.03172,0.10248,0.122,0.14152,-0.09028,-0.04392,-0.14152,-0.20008,-0.20496,-0.1708,-0.16104
-0.03904,-0.03172,0.10248,0.122,0.14152,-0.09028,-0.04392,-0.13664,-0.20008,-0.20496,-0.17568,-0.15616
-0.04392,-0.0244,0.09272,0.11468,0.13664,-0.09028,-0.05368,-0.14152,-0.20984,-0.20984,-0.18056,-0.15616
-0.04392,-0.0244,0.09272,0.11468,0.13664,-0.09028,-0.05368,-0.13664,-0.20984,-0.20984,-0.18544,-0.16104
-0.04392,-0.0244,0.09272,0.11468,0.13664,-0.09028,-0.05368,-0.13176,-0.20984,-0.20984,-0.18056,-0.16104
-0.04392,-0.01952,0.08296,0.10492,0.12688,-0.0854,-0.05856,-0.14152,-0.21472,-0.20984,-0.18056,-0.16592
-0.04392,-0.01708,0.07808,0.10004,0.122,-0.08296,-0.05856,-0.14152,-0.21472,-0.20984,-0.18056,-0.1708
-0.04392,-0.01708,0.07808,0.10004,0.122,-0.08296,-0.05368,-0.14152,-0.21472,-0.20984,-0.18544,-0.1708
-0.04392,-0.01708,0.07808,0.10004,0.122,-0.08296,-0.05368,-0.1464,-0.21472,-0.20496,-0.18544,-0.1708
-0.04392,-0.01464,0.0732,0.09516,0.11712,-0.08052,-0.05368,-0.1464,-0.2196,-0.20984,-0.18544,-0.17568
-0.04392,-0.0122,0.06832,0.09028,0.11224,-0.07808,-0.05368,-0.1464,-0.2196,-0.21472,-0.18544,-0.17568
-0.04392,-0.0122,0.06832,0.09028,0.11224,-0.07808,-0.05368,-0.1464,-0.2196,-0.21472,-0.18544,-0.17568
-0.04392,-0.00976,0.06344,0.0854,0.10736,-0.07564,-0.05368,-0.1464,-0.2196,-0.21472,-0.18544,-0.17568
-0.04392,-0.00976,0.06344,0.0854,0.10736,-0.07564,-0.05368,-0.1464,-0.2196,-0.21472,-0.19032,-0.17568
-0.04392,-0.00732,0.05856,0.08052,0.10248,-0.0732,-0.0488,-0.14152,-0.2196,-0.21472,-0.19032,-0.17568
-0.04392,-0.00732,0.05856,0.08052,0.10248,-0.0732,-0.0488,-0.13664,-0.21472,-0.21472,-0.19032,-0.1708
-0.04392,-0.00732,0.05856,0.08052,0.10248,-0.0732,-0.04392,-0.13664,-0.20984,-0.20984,-0.19032,-0.1708
-0.04392,-0.00732,0.05856,0.08052,0.10248,-0.0732,-0.04392,-0.13176,-0.21472,-0.21472,-0.19032,-0.1708
-0.04392,-0.00488,0.05368,0.07564,0.0976,-0.07076,-0.03416,-0.13176,-0.21472,-0.21472,-0.18544,-0.1708
-0.04392,0,0.04392,0.06588,0.08784,-0.06588,-0.03416,-0.12688,-0.20984,-0.21472,-0.18544,-0.1708
-0.04392,0,0.04392,0.06588,0.08784,-0.06588,-0.02928,-0.122,-0.20984,-0.2196,-0.18544,-0.1708
-0.04392,-0.00244,0.0488,0.07076,0.09272,-0.06832,-0.02928,-0.11224,-0.20984,-0.2196,-0.18544,-0.17568
-0.04392,-0.00488,0.05368,0.07564,0.0976,-0.07076,-0.03416,-0.10736,-0.20984,-0.2196,-0.18544,-0.17568
-0.04392,-0.00244,0.0488,0.07076,0.09272,-0.06832,-0.02928,-0.10736,-0.20984,-0.2196,-0.18544,-0.17568
-0.04392,0,0.04392,0.06588,0.08784,-0.06588,-0.01952,-0.10248,-0.20984,-0.2196,-0.18544,-0.1708
-0.0488,0.00488,0.03904,0.06344,0.08784,-0.06832,-0.01952,-0.10248,-0.20984,-0.2196,-0.18544,-0.1708
-0.0488,0.00488,0.03904,0.06344,0.08784,-0.06832,-0.01952,-0.10248,-0.21472,-0.2196,-0.18544,-0.1708
-0.0488,0.00244,0.04392,0.06832,0.09272,-0.07076,-0.01952,-0.10248,-0.21472,-0.2196,-0.18544,-0.17568
-0.04392,0,0.04392,0.06588,0.08784,-0.06588,-0.01952,-0.10736,-0.21472,-0.22448,-0.19032,-0.17568
-0.04392,0,0.04392,0.06588,0.08784,-0.06588,-0.01952,-0.11224,-0.21472,-0.22448,-0.19032,-0.17568
-0.03904,-0.00244,0.04392,0.06344,0.08296,-0.061,-0.01952,-0.11224,-0.20984,-0.22448,-0.19032,-0.17568
-0.03904,0,0.03904,0.05856,0.07808,-0.05856,-0.01952,-0.10248,-0.20984,-0.21472,-0.18056,-0.1708
-0.03904,0.00244,0.03416,0.05368,0.0732,-0.05612,-0.01952,-0.0976,-0.20984,-0.20984,-0.17568,-0.16592
-0.03904,0,0.03904,0.05856,0.07808,-0.05856,-0.0244,-0.10248,-0.20984,-0.20984,-0.17568,-0.16592
-0.03904,0,0.03904,0.05856,0.07808,-0.05856,-0.0244,-0.10736,-0.20984,-0.20984,-0.17568,-0.16592
-0.0488,0.00732,0.03416,0.05856,0.08296,-0.06588,-0.0244,-0.11224,-0.20496,-0.20984,-0.18056,-0.16104
-0.0488,0.00732,0.03416,0.05856,0.08296,-0.06588,-0.0244,-0.10736,-0.20496,-0.20984,-0.18056,-0.16104
-0.04392,0.00244,0.03904,0.061,0.08296,-0.06344,-0.02928,-0.10736,-0.20496,-0.20984,-0.18056,-0.15616
-0.03904,0,0.03904,0.05856,0.07808,-0.05856,-0.02928,-0.10736,-0.20496,-0.20984,-0.18056,-0.15616
-0.03904,-0.00244,0.04392,0.06344,0.08296,-0.061,-0.02928,-0.10736,-0.20496,-0.20496,-0.1708,-0.15616
-0.04392,0,0.04392,0.06588,0.08784,-0.06588,-0.02928,-0.10736,-0.20496,-0.20008,-0.16592,-0.15616
-0.04392,0.00244,0.03904,0.061,0.08296,-0.06344,-0.02928,-0.10736,-0.20008,-0.20008,-0.16592,-0.15616
-0.04392,0.00488,0.03416,0.05612,0.07808,-0.061,-0.02928,-0.10736,-0.20008,-0.1952,-0.16592,-0.15616
-0.04392,0.00488,0.03416,0.05612,0.07808,-0.061,-0.02928,-0.10736,-0.20008,-0.1952,-0.16104,-0.15128
-0.04392,0.00488,0.03416,0.05612,0.07808,-0.061,-0.03416,-0.11224,-0.1952,-0.19032,-0.15616,-0.1464
-0.0488,0.00732,0.03416,0.05856,0.08296,-0.06588,-0.03416,-0.10736,-0.19032,-0.19032,-0.15616,-0.1464
-0.0488,0.00732,0.03416,0.05856,0.08296,-0.06588,-0.03416,-0.10248,-0.19032,-0.19032,-0.15616,-0.1464
-0.0488,0.00732,0.03416,0.05856,0.08296,-0.06588,-0.02928,-0.10248,-0.19032,-0.18544,-0.15616,-0.14152
-0.05368,0.00732,0.03904,0.06588,0.09272,-0.0732,-0.02928,-0.10248,-0.19032,-0.18056,-0.15616,-0.14152
-0.0488,0.00732,0.03416,0.05856,0.08296,-0.06588,-0.02928,-0.10248,-0.19032,-0.18056,-0.15616,-0.14152
-0.04392,0.00732,0.02928,0.05124,0.0732,-0.05856,-0.02928,-0.0976,-0.19032,-0.18056,-0.15616,-0.13176
-0.04392,0.00732,0.02928,0.05124,0.0732,-0.05856,-0.02928,-0.0976,-0.19032,-0.18544,-0.15616,-0.14152
-0.03904,0.00488,0.02928,0.0488,0.06832,-0.05368,-0.03416,-0.0976,-0.19032,-0.18544,-0.15616,-0.14152
-0.03904,0.00488,0.02928,0.0488,0.06832,-0.05368,-0.03416,-0.10248,-0.1952,-0.18544,-0.15128,-0.13664
-0.04392,0.00732,0.02928,0.05124,0.0732,-0.05856,-0.03416,-0.10736,-0.1952,-0.19032,-0.1464,-0.13176
-0.04392,0.00976,0.0244,0.04636,0.06832,-0.05612,-0.03904,-0.11224,-0.1952,-0.18544,-0.15128,-0.13664
-0.04392,0.0122,0.01952,0.04148,0.06344,-0.05368,-0.03416,-0.11224,-0.20008,-0.18056,-0.15128,-0.13664
-0.04392,0.01464,0.01464,0.0366,0.05856,-0.05124,-0.03416,-0.11224,-0.1952,-0.18056,-0.15128,-0.13664
-0.04392,0.01952,0.00488,0.02684,0.0488,-0.04636,-0.02928,-0.11224,-0.1952,-0.18544,-0.15128,-0.13664
-0.04392,0.01952,0.00488,0.02684,0.0488,-0.04636,-0.02928,-0.11224,-0.1952,-0.19032,-0.15128,-0.13176
-0.04392,0.01952,0.00488,0.02684,0.0488,-0.04636,-0.02928,-0.10736,-0.1952,-0.19032,-0.1464,-0.13176
-0.04392,0.02196,0,0.02196,0.04392,-0.04392,-0.03416,-0.10736,-0.20008,-0.18056,-0.14152,-0.13176
-0.04392,0.02196,0,0.02196,0.04392,-0.04392,-0.03904,-0.10248,-0.20008,-0.17568,-0.14152,-0.13176
-0.04392,0.02684,-0.00976,0.0122,0.03416,-0.03904,-0.03904,-0.10248,-0.20008,-0.18056,-0.14152,-0.12688
-0.05368,0.0366,-0.01952,0.00732,0.03416,-0.04392,-0.03904,-0.10736,-0.20008,-0.18056,-0.14152,-0.12688
-0.05368,0.0366,-0.01952,0.00732,0.03416,-0.04392,-0.03904,-0.10736,-0.1952,-0.18544,-0.13664,-0.122
-0.0488,0.03416,-0.01952,0.00488,0.02928,-0.03904,-0.03416,-0.10736,-0.1952,-0.18544,-0.13176,-0.11712
-0.0488,0.03172,-0.01464,0.00976,0.03416,-0.04148,-0.02928,-0.10736,-0.1952,-0.18544,-0.13176,-0.11712
-0.0488,0.03172,-0.01464,0.00976,0.03416,-0.04148,-0.0244,-0.10248,-0.1952,-0.18544,-0.13664,-0.11712
-0.0488,0.03904,-0.02928,-0.00488,0.01952,-0.03416,-0.01952,-0.10248,-0.1952,-0.18056,-0.13664,-0.122
-0.0488,0.04392,-0.03904,-0.01464,0.00976,-0.02928,-0.01464,-0.10248,-0.1952,-0.17568,-0.13664,-0.122
-0.03904,0.04148,-0.04392,-0.0244,-0.00488,-0.01708,-0.01464,-0.10248,-0.1952,-0.17568,-0.13664,-0.122
-0.03416,0.03904,-0.04392,-0.02684,-0.00976,-0.0122,-0.01464,-0.10736,-0.1952,-0.17568,-0.13664,-0.122
-0.03416,0.03904,-0.04392,-0.02684,-0.00976,-0.0122,-0.00976,-0.10736,-0.19032,-0.17568,-0.13664,-0.122
-0.03416,0.03904,-0.04392,-0.02684,-0.00976,-0.0122,-0.00976,-0.10736,-0.19032,-0.17568,-0.13664,-0.122
-0.03904,0.04392,-0.0488,-0.02928,-0.00976,-0.01464,-0.00976,-0.09272,-0.19032,-0.17568,-0.13664,-0.122
-0.04392,0.04636,-0.0488,-0.02684,-0.00488,-0.01952,-0.00976,-0.08784,-0.19032,-0.17568,-0.13664,-0.122
-0.04392,0.05368,-0.06344,-0.04148,-0.01952,-0.0122,-0.00976,-0.0976,-0.18544,-0.17568,-0.13664,-0.11224
-0.04392,0.061,-0.07808,-0.05612,-0.03416,-0.00488,-0.00976,-0.0976,-0.18544,-0.18056,-0.13664,-0.10736
-0.04392,0.061,-0.07808,-0.05612,-0.03416,-0.00488,-0.00976,-0.0976,-0.19032,-0.18056,-0.13664,-0.10736
-0.04392,0.061,-0.07808,-0.05612,-0.03416,-0.00488,-0.00976,-0.0976,-0.19032,-0.17568,-0.13664,-0.11224
-0.04392,0.05612,-0.06832,-0.04636,-0.0244,-0.00976,-0.00976,-0.0976,-0.19032,-0.17568,-0.13176,-0.11224
-0.04392,0.05368,-0.06344,-0.04148,-0.01952,-0.0122,-0.01464,-0.0976,-0.19032,-0.17568,-0.12688,-0.11224
-0.04392,0.05124,-0.05856,-0.0366,-0.01464,-0.01464,-0.01464,-0.10248,-0.19032,-0.18056,-0.12688,-0.11224
-0.04392,0.05124,-0.05856,-0.0366,-0.01464,-0.01464,-0.00976,-0.10248,-0.19032,-0.18056,-0.12688,-0.11224
-0.04392,0.05124,-0.05856,-0.0366,-0.01464,-0.01464,-0.00976,-0.0976,-0.19032,-0.1708,-0.12688,-0.10736
-0.0488,0.05368,-0.05856,-0.03416,-0.00976,-0.01952,-0.00976,-0.0976,-0.19032,-0.16592,-0.13176,-0.10248
-0.0488,0.05368,-0.05856,-0.03416,-0.00976,-0.01952,-0.00976,-0.0976,-0.19032,-0.1708,-0.13176,-0.10248
-0.0488,0.05368,-0.05856,-0.03416,-0.00976,-0.01952,-0.00976,-0.0976,-0.1952,-0.17568,-0.13664,-0.10736
-0.0488,0.0488,-0.0488,-0.0244,0,-0.0244,-0.00976,-0.0976,-0.1952,-0.17568,-0.13664,-0.10736
-0.0488,0.04392,-0.03904,-0.01464,0.00976,-0.02928,-0.00976,-0.0976,-0.1952,-0.17568,-0.13664,-0.10736
-0.03904,0.0366,-0.03416,-0.01464,0.00488,-0.02196,0,-0.0976,-0.18544,-0.1708,-0.12688,-0.10248
-0.03416,0.02928,-0.0244,-0.00732,0.00976,-0.02196,0.00976,-0.09272,-0.17568,-0.15616,-0.122,-0.0976
-0.02928,0.02196,-0.01464,0,0.01464,-0.02196,0.01952,-0.09272,-0.1708,-0.1464,-0.11712,-0.0976
-0.02928,0.01464,0,0.01464,0.02928,-0.02928,0.01952,-0.08784,-0.16104,-0.14152,-0.10736,-0.09272
-0.0244,0.0122,0,0.0122,0.0244,-0.0244,0.01952,-0.08784,-0.15616,-0.1464,-0.10736,-0.08296
-0.02928,0.01708,-0.00488,0.00976,0.0244,-0.02684,0.02928,-0.08296,-0.15616,-0.15616,-0.11224,-0.08296
-0.02928,0.01952,-0.00976,0.00488,0.01952,-0.0244,0.02928,-0.07808,-0.15616,-0.13664,-0.10736,-0.07808
-0.02928,0.02196,-0.01464,0,0.01464,-0.02196,0.03904,-0.07808,-0.15128,-0.12688,-0.10736,-0.0732
-0.02928,0.02196,-0.01464,0,0.01464,-0.02196,0.03904,-0.0732,-0.1464,-0.12688,-0.0976,-0.0732
-0.01952,0.01464,-0.00976,0,0.00976,-0.01464,0.0244,-0.07808,-0.1464,-0.12688,-0.09272,-0.06344
-0.01952,0.00488,0.00976,0.01952,0.02928,-0.0244,0.00488,-0.0976,-0.15128,-0.12688,-0.09272,-0.06344
-0.01952,0.00244,0.01464,0.0244,0.03416,-0.02684,-0.01464,-0.10248,-0.16104,-0.13176,-0.09272,-0.06832
-0.01464,0,0.01464,0.02196,0.02928,-0.02196,-0.01952,-0.11224,-0.15616,-0.13176,-0.08784,-0.06832
-0.00976,0.00244,0.00488,0.00976,0.01464,-0.0122,-0.02928,-0.11224,-0.16104,-0.12688,-0.08296,-0.06344
-0.00488,0,0.00488,0.00732,0.00976,-0.00732,-0.0244,-0.11224,-0.16104,-0.12688,-0.08296,-0.06344
0,-0.00732,0.01464,0.01464,0.01464,-0.00732,-0.01952,-0.11224,-0.15616,-0.12688,-0.07808,-0.05856
-0.00488,-0.00488,0.01464,0.01708,0.01952,-0.0122,-0.0244,-0.10736,-0.15128,-0.11224,-0.06832,-0.0488
0,0,0,0,0,0,-0.02928,-0.0976,-0.1464,-0.10736,-0.06344,-0.03416
-0.00488,0.00732,-0.00976,-0.00732,-0.00488,0,-0.02928,-0.09272,-0.1464,-0.10248,-0.06344,-0.02928
-0.00488,0.01708,-0.02928,-0.02684,-0.0244,0.00976,-0.02928,-0.08784,-0.14152,-0.0976,-0.05368,-0.0244
-0.00488,0.0244,-0.04392,-0.04148,-0.03904,0.01708,-0.01464,-0.0732,-0.12688,-0.09272,-0.0488,-0.00976
-0.01952,0.04392,-0.06832,-0.05856,-0.0488,0.01464,-0.00488,-0.06832,-0.122,-0.08784,-0.04392,-0.01464
-0.03416,0.06588,-0.0976,-0.08052,-0.06344,0.01464,0,-0.0732,-0.13664,-0.10248,-0.06344,-0.02928
-0.04392,0.0854,-0.12688,-0.10492,-0.08296,0.01952,0,-0.07808,-0.15616,-0.122,-0.08296,-0.0488
-0.0488,0.09272,-0.13664,-0.11224,-0.08784,0.01952,0,-0.07808,-0.16104,-0.13176,-0.08784,-0.05856
-0.0488,0.10004,-0.15128,-0.12688,-0.10248,0.02684,0,-0.07808,-0.1708,-0.13664,-0.0976,-0.06832
-0.03416,0.10248,-0.1708,-0.15372,-0.13664,0.05124,0.00488,-0.0732,-0.17568,-0.13664,-0.0976,-0.0732
-0.03904,0.11468,-0.19032,-0.1708,-0.15128,0.05612,0.00488,-0.06344,-0.17568,-0.14152,-0.09272,-0.07808
-0.03904,0.122,-0.20496,-0.18544,-0.16592,0.06344,0.00976,-0.06344,-0.17568,-0.14152,-0.09272,-0.0732
-0.03904,0.12688,-0.21472,-0.1952,-0.17568,0.06832,0.01464,-0.06344,-0.17568,-0.1464,-0.08784,-0.06832
-0.04392,0.1342,-0.22448,-0.20252,-0.18056,0.06832,0.01464,-0.05856,-0.17568,-0.1464,-0.08784,-0.0732
-0.04392,0.14152,-0.23912,-0.21716,-0.1952,0.07564,0.01464,-0.0488,-0.17568,-0.1464,-0.09272,-0.0732
-0.04392,0.14396,-0.244,-0.22204,-0.20008,0.07808,0.0244,-0.0488,-0.1708,-0.14152,-0.09272,-0.0732
-0.04392,0.15372,-0.26352,-0.24156,-0.2196,0.08784,0.02928,-0.04392,-0.16592,-0.13664,-0.09272,-0.0732
-0.04392,0.15372,-0.26352,-0.24156,-0.2196,0.08784,0.02928,-0.03416,-0.16104,-0.13176,-0.08784,-0.06832
-0.04392,0.15128,-0.25864,-0.23668,-0.21472,0.0854,0.03416,-0.02928,-0.15616,-0.12688,-0.08296,-0.06344
-0.0488,0.1586,-0.2684,-0.244,-0.2196,0.0854,0.03416,-0.02928,-0.15128,-0.12688,-0.08296,-0.05856
-0.05856,0.17324,-0.28792,-0.25864,-0.22936,0.0854,0.03416,-0.02928,-0.15128,-0.12688,-0.08784,-0.05856
-0.05856,0.17568,-0.2928,-0.26352,-0.23424,0.08784,0.03904,-0.0244,-0.15128,-0.12688,-0.08784,-0.05856
-0.05856,0.17812,-0.29768,-0.2684,-0.23912,0.09028,0.03904,-0.0244,-0.15128,-0.12688,-0.08784,-0.05856
-0.05856,0.17568,-0.2928,-0.26352,-0.23424,0.08784,0.03904,-0.0244,-0.15128,-0.12688,-0.08784,-0.05856
-0.06344,0.1708,-0.27816,-0.24644,-0.21472,0.07564,0.0488,-0.0244,-0.15128,-0.12688,-0.08296,-0.05856
-0.06344,0.15372,-0.244,-0.21228,-0.18056,0.05856,0.05856,-0.01952,-0.13664,-0.11712,-0.07808,-0.05856
-0.0488,0.11468,-0.18056,-0.15616,-0.13176,0.04148,0.07808,0.01952,-0.05856,-0.0488,-0.01952,-0.01952
-0.03416,0.06832,-0.10248,-0.0854,-0.06832,0.01708,0.122,0.12688,0.11224,0.07808,0.06832,0.0488
0.01464,0.00244,-0.01952,-0.02684,-0.03416,0.0244,0.16104,0.25376,0.31232,0.24888,0.19032,0.14152
0.06344,-0.08296,0.10248,0.07076,0.03904,0.0122,0.06832,0.22448,0.43432,0.43432,0.3416,0.244
0.13176,-0.2074,0.28304,0.21716,0.15128,-0.00976,-0.10736,0.10248,0.56608,0.68808,0.5612,0.41968
0.1952,-0.36356,0.53192,0.43432,0.33672,-0.07076,-0.3416,-0.0976,0.72712,1.01016,0.84912,0.64904
0.28792,-0.51972,0.75152,0.60756,0.4636,-0.08784,-0.67344,-0.25864,0.94672,1.3908,1.16632,0.90768
0.35136,-0.53436,0.71736,0.54168,0.366,-0.00732,-0.92232,-0.35624,1.00528,1.54208,1.2932,1.00528
0.35136,-0.50508,0.6588,0.48312,0.30744,0.02196,-1.09312,-0.53192,0.81984,1.3908,1.19072,0.96624
0.27816,-0.3172,0.35624,0.21716,0.07808,0.10004,-1.098,-0.6344,0.49288,0.96624,0.84912,0.74176
0.19032,-0.18544,0.18056,0.0854,-0.00976,0.10004,-1.06384,-0.74176,0.03904,0.48312,0.49776,0.50752
0.08296,-0.05368,0.0244,-0.01708,-0.05856,0.07076,-0.93208,-0.77104,-0.4392,-0.01464,0.13664,0.2684
-0.0244,0.05368,-0.08296,-0.07076,-0.05856,0.01708,-0.72712,-0.72224,-0.71248,-0.35136,-0.12688,0.05368
-0.0488,0.05612,-0.06344,-0.03904,-0.01464,-0.01708,-0.52704,-0.58072,-0.64904,-0.35624,-0.1708,-0.00976
-0.04392,0.02928,-0.01464,0.00732,0.02928,-0.0366,-0.37576,-0.42456,-0.42944,-0.23912,-0.10736,0.00976
-0.04392,0.02684,-0.00976,0.0122,0.03416,-0.03904,-0.26352,-0.2928,-0.3172,-0.18544,-0.09272,-0.00976
-0.04392,0.03416,-0.0244,-0.00244,0.01952,-0.03172,-0.16592,-0.19032,-0.23424,-0.14152,-0.08784,-0.02928
-0.03416,0.04636,-0.05856,-0.04148,-0.0244,-0.00488,-0.09272,-0.11224,-0.1708,-0.11712,-0.0732,-0.02928
-0.02928,0.05368,-0.07808,-0.06344,-0.0488,0.00976,-0.03904,-0.05368,-0.12688,-0.10248,-0.06832,-0.03416
-0.02928,0.05124,-0.0732,-0.05856,-0.04392,0.00732,-0.00976,-0.01464,-0.09272,-0.0976,-0.05856,-0.03904
-0.0244,0.04392,-0.06344,-0.05124,-0.03904,0.00732,0,0.01464,-0.06832,-0.08296,-0.0488,-0.03904
-0.01952,0.0488,-0.07808,-0.06832,-0.05856,0.01952,-0.00488,0.02928,-0.05856,-0.0732,-0.0488,-0.03904
-0.01952,0.05612,-0.09272,-0.08296,-0.0732,0.02684,0,0.02928,-0.05368,-0.0732,-0.0488,-0.0488
-0.02928,0.05612,-0.08296,-0.06832,-0.05368,0.0122,0.00976,0.03416,-0.05368,-0.0732,-0.05368,-0.0488
-0.03416,0.05124,-0.06832,-0.05124,-0.03416,0,0.01952,0.0488,-0.04392,-0.0732,-0.05368,-0.0488
-0.02928,0.04636,-0.06344,-0.0488,-0.03416,0.00244,0.04392,0.05856,-0.03416,-0.06832,-0.0488,-0.05368
-0.02928,0.04636,-0.06344,-0.0488,-0.03416,0.00244,0.06344,0.06344,-0.03416,-0.06832,-0.05368,-0.05856
-0.0244,0.04392,-0.06344,-0.05124,-0.03904,0.00732,0.06344,0.06344,-0.02928,-0.06344,-0.05368,-0.06344
-0.0244,0.04392,-0.06344,-0.05124,-0.03904,0.00732,0.05856,0.06832,-0.02928,-0.06344,-0.05368,-0.06832
-0.01952,0.0366,-0.05368,-0.04392,-0.03416,0.00732,0.05856,0.0732,-0.01952,-0.05368,-0.05856,-0.06344
-0.01464,0.02928,-0.04392,-0.0366,-0.02928,0.00732,0.05856,0.0732,-0.01952,-0.0488,-0.06344,-0.06344
-0.01464,0.02928,-0.04392,-0.0366,-0.02928,0.00732,0.06832,0.0732,-0.01464,-0.04392,-0.05368,-0.06344
-0.01952,0.02684,-0.03416,-0.0244,-0.01464,-0.00244,0.0732,0.08296,-0.00488,-0.04392,-0.04392,-0.06344
-0.01952,0.0244,-0.02928,-0.01952,-0.00976,-0.00488,0.08296,0.08784,0.01464,-0.03904,-0.03416,-0.06344
-0.01464,0.01464,-0.01464,-0.00732,0,-0.00732,0.08784,0.0976,0.0244,-0.03416,-0.03416,-0.06344
-0.01464,0.01952,-0.0244,-0.01708,-0.00976,-0.00244,0.09272,0.10248,0.0244,-0.02928,-0.03416,-0.05856
-0.01464,0.01952,-0.0244,-0.01708,-0.00976,-0.00244,0.10248,0.10736,0.03904,-0.01952,-0.03416,-0.05856
-0.00976,0.0122,-0.01464,-0.00976,-0.00488,-0.00244,0.10248,0.11712,0.0488,-0.01464,-0.02928,-0.04392
-0.00488,0.0122,-0.01952,-0.01708,-0.01464,0.00488,0.10248,0.12688,0.05856,-0.00488,-0.01952,-0.03904
-0.00488,0.00732,-0.00976,-0.00732,-0.00488,0,0.10248,0.12688,0.06832,0,-0.01464,-0.03416
0.00976,-0.00244,-0.00488,-0.00976,-0.01464,0.0122,0.10248,0.13176,0.0732,0.00488,-0.01464,-0.03416
0.00976,-0.00244,-0.00488,-0.00976,-0.01464,0.0122,0.11224,0.14152,0.08784,0.01464,-0.00488,-0.02928
0.00488,0,-0.00488,-0.00732,-0.00976,0.00732,0.11712,0.1464,0.0976,0.0244,0.00976,-0.01952
0.00488,0.00244,-0.00976,-0.0122,-0.01464,0.00976,0.11712,0.16104,0.11712,0.03904,0.01464,-0.01952
0.00976,0,-0.00976,-0.01464,-0.01952,0.01464,0.12688,0.1708,0.13664,0.05368,0.01952,-0.00976
0.00976,-0.00244,-0.00488,-0.00976,-0.01464,0.0122,0.14152,0.18544,0.15128,0.05856,0.02928,-0.00488
0.00976,-0.00244,-0.00488,-0.00976,-0.01464,0.0122,0.15616,0.20984,0.17568,0.07808,0.04392,0.01464
0.01464,-0.00488,-0.00488,-0.0122,-0.01952,0.01708,0.1708,0.22448,0.19032,0.08296,0.0488,0.01464
0.01952,-0.00732,-0.00488,-0.01464,-0.0244,0.02196,0.17568,0.244,0.21472,0.09272,0.05368,0.01952
0.01464,-0.00488,-0.00488,-0.0122,-0.01952,0.01708,0.20008,0.26352,0.23912,0.11712,0.06832,0.01952
0.01464,-0.00488,-0.00488,-0.0122,-0.01952,0.01708,0.21472,0.2928,0.26352,0.14152,0.08296,0.03416
0.01464,-0.0122,0.00976,0.00244,-0.00488,0.00976,0.22448,0.31232,0.2928,0.16104,0.09272,0.0488
0.0244,-0.02196,0.01952,0.00732,-0.00488,0.01464,0.23912,0.33184,0.3172,0.18056,0.10736,0.05856
0.02928,-0.0244,0.01952,0.00488,-0.00976,0.01952,0.24888,0.36112,0.35136,0.1952,0.11712,0.0732
0.03904,-0.03416,0.02928,0.00976,-0.00976,0.0244,0.25864,0.3904,0.38064,0.21472,0.13664,0.08784
0.05368,-0.04148,0.02928,0.00244,-0.0244,0.03904,0.27816,0.42456,0.41968,0.244,0.16592,0.0976
0.06344,-0.04636,0.02928,-0.00244,-0.03416,0.0488,0.2928,0.44408,0.45872,0.27816,0.19032,0.11224
0.06832,-0.05612,0.04392,0.00976,-0.0244,0.04636,0.30256,0.46848,0.49288,0.30744,0.20496,0.122
0.07808,-0.07076,0.06344,0.0244,-0.01464,0.04636,0.30744,0.50264,0.52704,0.32696,0.2196,0.14152
0.08296,-0.08052,0.07808,0.0366,-0.00488,0.04392,0.3172,0.52704,0.5612,0.35624,0.24888,0.15616
0.08784,-0.09028,0.09272,0.0488,0.00488,0.04148,0.3172,0.54656,0.60024,0.3904,0.27816,0.17568
0.08296,-0.0976,0.11224,0.07076,0.02928,0.02684,0.32696,0.56608,0.6344,0.42944,0.30744,0.1952
0.08296,-0.1098,0.13664,0.09516,0.05368,0.01464,0.33184,0.58072,0.67344,0.45872,0.33184,0.21472
0.0976,-0.12688,0.15616,0.10736,0.05856,0.01952,0.32696,0.59048,0.70272,0.48312,0.35136,0.22936
0.10736,-0.14396,0.18056,0.12688,0.0732,0.01708,0.32696,0.60512,0.732,0.51728,0.38552,0.25864
0.11712,-0.16348,0.20984,0.15128,0.09272,0.0122,0.3172,0.61,0.76128,0.54656,0.40016,0.2684
0.11712,-0.17568,0.23424,0.17568,0.11712,0,0.31232,0.60512,0.7808,0.57096,0.4148,0.28792
0.122,-0.18788,0.25376,0.19276,0.13176,-0.00488,0.30256,0.60512,0.79056,0.59048,0.42944,0.2928
0.12688,-0.20008,0.27328,0.20984,0.1464,-0.00976,0.29768,0.59536,0.80032,0.60512,0.44408,0.29768
0.13176,-0.20984,0.28792,0.22204,0.15616,-0.0122,0.27328,0.58072,0.80032,0.61,0.45384,0.30744
0.13176,-0.21228,0.2928,0.22692,0.16104,-0.01464,0.25376,0.55632,0.79056,0.60512,0.45872,0.31232
0.13176,-0.21472,0.29768,0.2318,0.16592,-0.01708,0.23424,0.5368,0.77104,0.60512,0.45872,0.31232
0.122,-0.21228,0.30256,0.24156,0.18056,-0.02928,0.21472,0.50264,0.74664,0.59048,0.44408,0.31232
0.122,-0.21472,0.30744,0.24644,0.18544,-0.03172,0.1952,0.45384,0.7076,0.57096,0.43432,0.30744
0.11712,-0.20984,0.30256,0.244,0.18544,-0.03416,0.17568,0.40992,0.65392,0.54168,0.40992,0.29768
0.10248,-0.19764,0.2928,0.24156,0.19032,-0.04392,0.15128,0.366,0.60024,0.50264,0.37576,0.27816
0.09272,-0.17812,0.26352,0.21716,0.1708,-0.03904,0.11712,0.3172,0.52704,0.44408,0.3416,0.24888
0.08784,-0.17324,0.25864,0.21472,0.1708,-0.04148,0.10248,0.2684,0.45872,0.3904,0.29768,0.21472
0.08296,-0.16592,0.24888,0.2074,0.16592,-0.04148,0.08784,0.2196,0.3904,0.32696,0.25864,0.18056
0.06832,-0.1464,0.22448,0.19032,0.15616,-0.04392,0.07808,0.17568,0.30744,0.26352,0.20496,0.14152
0.05368,-0.11956,0.18544,0.1586,0.13176,-0.03904,0.06832,0.13176,0.22936,0.20008,0.15128,0.10248
0.03904,-0.09028,0.14152,0.122,0.10248,-0.03172,0.05856,0.10736,0.17568,0.15616,0.11712,0.07808
0.02928,-0.08052,0.13176,0.11712,0.10248,-0.0366,0.0488,0.07808,0.122,0.11224,0.08296,0.0488
0.01464,-0.06344,0.11224,0.10492,0.0976,-0.04148,0.0488,0.05856,0.07808,0.06832,0.05856,0.0244
-0.00488,-0.04636,0.0976,0.10004,0.10248,-0.05368,0.03904,0.03904,0.03904,0.03416,0.02928,0.00488
-0.00976,-0.03416,0.07808,0.08296,0.08784,-0.0488,0.03904,0.00488,0,-0.00488,0,-0.00976
-0.01464,-0.0244,0.06344,0.07076,0.07808,-0.04636,0.03904,-0.01464,-0.02928,-0.02928,-0.0244,-0.0244
-0.01952,-0.00732,0.03416,0.04392,0.05368,-0.0366,0.04392,-0.01952,-0.04392,-0.04392,-0.04392,-0.03904
-0.01952,0.00244,0.01464,0.0244,0.03416,-0.02684,0.04392,-0.02928,-0.06832,-0.06344,-0.05856,-0.0488
-0.02928,0.0122,0.00488,0.01952,0.03416,-0.03172,0.03904,-0.03416,-0.09272,-0.08784,-0.06832,-0.05856
-0.02928,0.02196,-0.01464,0,0.01464,-0.02196,0.03416,-0.03904,-0.0976,-0.0976,-0.07808,-0.06832
-0.0244,0.0244,-0.0244,-0.0122,0,-0.0122,0.02928,-0.04392,-0.11224,-0.10736,-0.08784,-0.06832
-0.02928,0.03172,-0.03416,-0.01952,-0.00488,-0.0122,0.02928,-0.0488,-0.122,-0.11224,-0.08784,-0.06832
-0.02928,0.03172,-0.03416,-0.01952,-0.00488,-0.0122,0.02928,-0.05368,-0.13176,-0.11712,-0.0976,-0.08296
-0.02928,0.03172,-0.03416,-0.01952,-0.00488,-0.0122,0.01952,-0.06344,-0.13664,-0.11712,-0.10736,-0.08296
-0.03416,0.03416,-0.03416,-0.01708,0,-0.01708,0.01464,-0.06344,-0.13664,-0.122,-0.10736,-0.08296
-0.03904,0.03904,-0.03904,-0.01952,0,-0.01952,0.01464,-0.06344,-0.13176,-0.122,-0.10248,-0.08296
-0.03904,0.04148,-0.04392,-0.0244,-0.00488,-0.01708,0.0244,-0.05856,-0.13176,-0.122,-0.0976,-0.07808
-0.03904,0.04148,-0.04392,-0.0244,-0.00488,-0.01708,0.0244,-0.05368,-0.13176,-0.11712,-0.0976,-0.07808
-0.04392,0.05124,-0.05856,-0.0366,-0.01464,-0.01464,0.01464,-0.06344,-0.14152,-0.122,-0.0976,-0.08784
-0.04392,0.05368,-0.06344,-0.04148,-0.01952,-0.0122,0.01464,-0.06344,-0.14152,-0.122,-0.10248,-0.09272
-0.03904,0.05124,-0.06344,-0.04392,-0.0244,-0.00732,0.0244,-0.05856,-0.14152,-0.122,-0.10248,-0.09272
-0.03416,0.0488,-0.06344,-0.04636,-0.02928,-0.00244,0.02928,-0.06344,-0.1464,-0.122,-0.10248,-0.09272
-0.03416,0.04636,-0.05856,-0.04148,-0.0244,-0.00488,0.02928,-0.06344,-0.1464,-0.122,-0.10248,-0.09272
-0.03416,0.04636,-0.05856,-0.04148,-0.0244,-0.00488,0.03416,-0.06344,-0.1464,-0.12688,-0.10736,-0.09272
-0.03416,0.0488,-0.06344,-0.04636,-0.02928,-0.00244,0.03416,-0.06832,-0.1464,-0.12688,-0.10736,-0.09272
-0.03416,0.05124,-0.06832,-0.05124,-0.03416,0,0.03416,-0.06832,-0.15128,-0.13176,-0.10736,-0.0976
-0.03416,0.05368,-0.0732,-0.05612,-0.03904,0.00244,0.03904,-0.06344,-0.15128,-0.13664,-0.10736,-0.09272
-0.03416,0.05612,-0.07808,-0.061,-0.04392,0.00488,0.04392,-0.05856,-0.15128,-0.13664,-0.10736,-0.08784
-0.03904,0.06588,-0.09272,-0.0732,-0.05368,0.00732,0.04392,-0.05856,-0.15128,-0.13664,-0.10736,-0.08784
-0.04392,0.0732,-0.10248,-0.08052,-0.05856,0.00732,0.04392,-0.05856,-0.15128,-0.13664,-0.11224,-0.08784
-0.04392,0.07564,-0.10736,-0.0854,-0.06344,0.00976,0.0488,-0.05368,-0.15128,-0.13664,-0.11224,-0.08784
-0.04392,0.07564,-0.10736,-0.0854,-0.06344,0.00976,0.0488,-0.0488,-0.15128,-0.14152,-0.11224,-0.08784
-0.04392,0.07564,-0.10736,-0.0854,-0.06344,0.00976,0.05368,-0.0488,-0.1464,-0.13176,-0.10736,-0.09272
-0.04392,0.07808,-0.11224,-0.09028,-0.06832,0.0122,0.05368,-0.04392,-0.1464,-0.12688,-0.10736,-0.09272
-0.04392,0.0854,-0.12688,-0.10492,-0.08296,0.01952,0.06344,-0.04392,-0.1464,-0.12688,-0.10736,-0.09272
-0.04392,0.09272,-0.14152,-0.11956,-0.0976,0.02684,0.06344,-0.03904,-0.14152,-0.12688,-0.10736,-0.09272
-0.04392,0.09516,-0.1464,-0.12444,-0.10248,0.02928,0.06344,-0.03416,-0.14152,-0.13176,-0.10736,-0.08296
-0.04392,0.09516,-0.1464,-0.12444,-0.10248,0.02928,0.05856,-0.02928,-0.14152,-0.13176,-0.10736,-0.07808
-0.04392,0.09272,-0.14152,-0.11956,-0.0976,0.02684,0.05368,-0.02928,-0.14152,-0.13176,-0.10736,-0.07808
-0.04392,0.09272,-0.14152,-0.11956,-0.0976,0.02684,0.05368,-0.02928,-0.14152,-0.13176,-0.10736,-0.07808
-0.03904,0.09028,-0.14152,-0.122,-0.10248,0.03172,0.05856,-0.0244,-0.14152,-0.13176,-0.10736,-0.07808
-0.03904,0.09272,-0.1464,-0.12688,-0.10736,0.03416,0.05856,-0.0244,-0.14152,-0.13176,-0.10736,-0.08296
-0.03904,0.09272,-0.1464,-0.12688,-0.10736,0.03416,0.05856,-0.0244,-0.1464,-0.12688,-0.10736,-0.08296
-0.03904,0.09028,-0.14152,-0.122,-0.10248,0.03172,0.05856,-0.01952,-0.1464,-0.122,-0.10736,-0.08296
-0.03416,0.08784,-0.14152,-0.12444,-0.10736,0.0366,0.05856,-0.01952,-0.1464,-0.12688,-0.10736,-0.0732
-0.03416,0.08784,-0.14152,-0.12444,-0.10736,0.0366,0.05856,-0.0244,-0.1464,-0.12688,-0.10248,-0.06832
-0.02928,0.0854,-0.14152,-0.12688,-0.11224,0.04148,0.05856,-0.0244,-0.14152,-0.12688,-0.10248,-0.06832
-0.02928,0.0854,-0.14152,-0.12688,-0.11224,0.04148,0.05856,-0.01952,-0.14152,-0.122,-0.0976,-0.06832
-0.02928,0.0854,-0.14152,-0.12688,-0.11224,0.04148,0.06344,-0.01952,-0.14152,-0.122,-0.0976,-0.06832
-0.02928,0.08296,-0.13664,-0.122,-0.10736,0.03904,0.06344,-0.0244,-0.14152,-0.122,-0.0976,-0.06832
-0.02928,0.0854,-0.14152,-0.12688,-0.11224,0.04148,0.06832,-0.02928,-0.14152,-0.122,-0.0976,-0.06832
-0.03904,0.09272,-0.1464,-0.12688,-0.10736,0.03416,0.0732,-0.02928,-0.13664,-0.11712,-0.0976,-0.06344
-0.03904,0.09272,-0.1464,-0.12688,-0.10736,0.03416,0.08296,-0.01952,-0.13176,-0.11224,-0.08784,-0.06344
-0.03416,0.09028,-0.1464,-0.12932,-0.11224,0.03904,0.08784,-0.01952,-0.12688,-0.11224,-0.08296,-0.05856
-0.02928,0.09028,-0.15128,-0.13664,-0.122,0.04636,0.08784,-0.01952,-0.12688,-0.10736,-0.08296,-0.05856
-0.02928,0.09028,-0.15128,-0.13664,-0.122,0.04636,0.08784,-0.01952,-0.12688,-0.10248,-0.07808,-0.05856
-0.03416,0.09516,-0.15616,-0.13908,-0.122,0.04392,0.08296,-0.01952,-0.12688,-0.09272,-0.06832,-0.05856
-0.03416,0.0976,-0.16104,-0.14396,-0.12688,0.04636,0.07808,-0.01952,-0.122,-0.08296,-0.05856,-0.05856
-0.03416,0.0976,-0.16104,-0.14396,-0.12688,0.04636,0.07808,-0.01952,-0.122,-0.08784,-0.06832,-0.05856
-0.03416,0.0976,-0.16104,-0.14396,-0.12688,0.04636,0.07808,-0.01952,-0.122,-0.0976,-0.0732,-0.05368
-0.03416,0.0976,-0.16104,-0.14396,-0.12688,0.04636,0.0732,-0.01952,-0.11224,-0.09272,-0.06832,-0.04392
-0.03416,0.0976,-0.16104,-0.14396,-0.12688,0.04636,0.0732,-0.01464,-0.10736,-0.09272,-0.06832,-0.03904
-0.03416,0.10004,-0.16592,-0.14884,-0.13176,0.0488,0.0732,-0.01464,-0.11224,-0.09272,-0.06344,-0.03904
-0.03904,0.10492,-0.1708,-0.15128,-0.13176,0.04636,0.0732,-0.01464,-0.11224,-0.09272,-0.05856,-0.03904
-0.04392,0.10492,-0.16592,-0.14396,-0.122,0.03904,0.06832,-0.00976,-0.11224,-0.09272,-0.05856,-0.04392
-0.04392,0.10492,-0.16592,-0.14396,-0.122,0.03904,0.06832,-0.00976,-0.11224,-0.09272,-0.05856,-0.04392
-0.03904,0.10004,-0.16104,-0.14152,-0.122,0.04148,0.0732,-0.00976,-0.11224,-0.08784,-0.05856,-0.03416
-0.03416,0.09516,-0.15616,-0.13908,-0.122,0.04392,0.07808,-0.00976,-0.11224,-0.08296,-0.05856,-0.04392
-0.02928,0.09272,-0.15616,-0.14152,-0.12688,0.0488,0.0732,-0.00488,-0.10736,-0.07808,-0.05856,-0.03904
-0.02928,0.09272,-0.15616,-0.14152,-0.12688,0.0488,0.0732,-0.00488,-0.10736,-0.07808,-0.05856,-0.03416
-0.03416,0.10004,-0.16592,-0.14884,-0.13176,0.0488,0.0732,-0.00976,-0.10736,-0.08296,-0.05856,-0.03416
-0.03416,0.10492,-0.17568,-0.1586,-0.14152,0.05368,0.06344,-0.01464,-0.10736,-0.08296,-0.06344,-0.03904
-0.03416,0.0976,-0.16104,-0.14396,-0.12688,0.04636,0.06344,-0.01464,-0.10736,-0.08296,-0.06344,-0.03904
-0.03416,0.08784,-0.14152,-0.12444,-0.10736,0.0366,0.05856,-0.01464,-0.10248,-0.08296,-0.06344,-0.03904
-0.03416,0.09272,-0.15128,-0.1342,-0.11712,0.04148,0.05856,-0.01464,-0.10736,-0.08784,-0.06344,-0.03904
-0.03416,0.0976,-0.16104,-0.14396,-0.12688,0.04636,0.05856,-0.01952,-0.10736,-0.09272,-0.06832,-0.03416
-0.02928,0.09516,-0.16104,-0.1464,-0.13176,0.05124,0.05856,-0.01952,-0.11224,-0.09272,-0.06832,-0.03416
-0.0244,0.09516,-0.16592,-0.15372,-0.14152,0.05856,0.05856,-0.0244,-0.122,-0.08784,-0.06344,-0.03416
-0.0244,0.09028,-0.15616,-0.14396,-0.13176,0.05368,0.05856,-0.0244,-0.122,-0.08784,-0.06344,-0.03904
-0.0244,0.0854,-0.1464,-0.1342,-0.122,0.0488,0.05856,-0.0244,-0.122,-0.09272,-0.06344,-0.04392
-0.03416,0.09028,-0.1464,-0.12932,-0.11224,0.03904,0.05856,-0.03416,-0.122,-0.09272,-0.06344,-0.0488
-0.03416,0.09028,-0.1464,-0.12932,-0.11224,0.03904,0.05368,-0.03904,-0.122,-0.0976,-0.06344,-0.0488
-0.02928,0.08784,-0.1464,-0.13176,-0.11712,0.04392,0.05368,-0.03904,-0.12688,-0.0976,-0.06832,-0.0488
-0.02928,0.0854,-0.14152,-0.12688,-0.11224,0.04148,0.05368,-0.03904,-0.12688,-0.0976,-0.0732,-0.0488
-0.03416,0.09028,-0.1464,-0.12932,-0.11224,0.03904,0.05856,-0.03416,-0.12688,-0.0976,-0.07808,-0.04392
-0.03904,0.0976,-0.15616,-0.13664,-0.11712,0.03904,0.06344,-0.03416,-0.12688,-0.0976,-0.07808,-0.04392
-0.03904,0.0976,-0.15616,-0.13664,-0.11712,0.03904,0.06344,-0.03904,-0.12688,-0.0976,-0.0732,-0.04392
-0.03416,0.09516,-0.15616,-0.13908,-0.122,0.04392,0.06344,-0.04392,-0.12688,-0.0976,-0.06832,-0.04392
-0.03416,0.09272,-0.15128,-0.1342,-0.11712,0.04148,0.05856,-0.0488,-0.12688,-0.0976,-0.06832,-0.0488
-0.03416,0.09272,-0.15128,-0.1342,-0.11712,0.04148,0.05856,-0.0488,-0.12688,-0.0976,-0.06832,-0.05368
-0.03416,0.09028,-0.1464,-0.12932,-0.11224,0.03904,0.05856,-0.0488,-0.13176,-0.0976,-0.06832,-0.05368
-0.03416,0.09028,-0.1464,-0.12932,-0.11224,0.03904,0.05856,-0.03904,-0.13176,-0.0976,-0.06832,-0.05368
-0.03416,0.09028,-0.1464,-0.12932,-0.11224,0.03904,0.05856,-0.03904,-0.13176,-0.0976,-0.0732,-0.05368
-0.03416,0.09028,-0.1464,-0.12932,-0.11224,0.03904,0.05856,-0.0488,-0.12688,-0.0976,-0.07808,-0.0488
-0.03416,0.09272,-0.15128,-0.1342,-0.11712,0.04148,0.05856,-0.0488,-0.12688,-0.10248,-0.07808,-0.0488
-0.03416,0.09516,-0.15616,-0.13908,-0.122,0.04392,0.05856,-0.0488,-0.13176,-0.10248,-0.07808,-0.0488
-0.03416,0.09516,-0.15616,-0.13908,-0.122,0.04392,0.05856,-0.0488,-0.13176,-0.10248,-0.07808,-0.05368
-0.03416,0.09272,-0.15128,-0.1342,-0.11712,0.04148,0.05856,-0.0488,-0.13176,-0.10736,-0.07808,-0.05368
-0.03416,0.09028,-0.1464,-0.12932,-0.11224,0.03904,0.06344,-0.0488,-0.12688,-0.10248,-0.0732,-0.0488
-0.03904,0.09272,-0.1464,-0.12688,-0.10736,0.03416,0.06832,-0.0488,-0.12688,-0.0976,-0.0732,-0.04392
-0.03904,0.09028,-0.14152,-0.122,-0.10248,0.03172,0.05856,-0.05368,-0.13176,-0.10248,-0.0732,-0.04392
-0.03904,0.08784,-0.13664,-0.11712,-0.0976,0.02928,0.0488,-0.05856,-0.13664,-0.10736,-0.07808,-0.0488
-0.03904,0.08784,-0.13664,-0.11712,-0.0976,0.02928,0.0488,-0.05856,-0.13664,-0.10736,-0.07808,-0.0488
-0.03904,0.08784,-0.13664,-0.11712,-0.0976,0.02928,0.0488,-0.05856,-0.13664,-0.10736,-0.07808,-0.0488
-0.03904,0.08296,-0.12688,-0.10736,-0.08784,0.0244,0.05368,-0.05856,-0.13176,-0.11224,-0.07808,-0.0488
-0.03416,0.07076,-0.10736,-0.09028,-0.0732,0.01952,0.05856,-0.05368,-0.12688,-0.10248,-0.07808,-0.0488
-0.03416,0.06344,-0.09272,-0.07564,-0.05856,0.0122,0.06832,-0.05368,-0.122,-0.0976,-0.07808,-0.0488
-0.02928,0.0488,-0.06832,-0.05368,-0.03904,0.00488,0.06832,-0.0488,-0.11224,-0.09272,-0.06832,-0.04392
-0.00976,0.03416,-0.05856,-0.05368,-0.0488,0.01952,0.06344,-0.0488,-0.10736,-0.08784,-0.06344,-0.03416
0,0.02684,-0.05368,-0.05368,-0.05368,0.02684,0.06832,-0.04392,-0.10736,-0.08784,-0.06344,-0.03416
-0.01464,0.02684,-0.03904,-0.03172,-0.0244,0.00488,0.06344,-0.03904,-0.11224,-0.08296,-0.06344,-0.03904
-0.02928,0.02684,-0.0244,-0.00976,0.00488,-0.01708,0.06832,-0.03904,-0.11224,-0.08784,-0.06832,-0.04392
-0.02928,0.02196,-0.01464,0,0.01464,-0.02196,0.06832,-0.03904,-0.11224,-0.08784,-0.06344,-0.04392
-0.01952,0.00976,0,0.00976,0.01952,-0.01952,0.05368,-0.0488,-0.11712,-0.08784,-0.06344,-0.03416
-0.01952,-0.00244,0.0244,0.03416,0.04392,-0.03172,0.03416,-0.0732,-0.122,-0.08784,-0.06344,-0.03416
-0.01952,-0.00732,0.03416,0.04392,0.05368,-0.0366,0.01464,-0.08296,-0.13176,-0.09272,-0.06344,-0.03904
-0.01952,-0.01708,0.05368,0.06344,0.0732,-0.04636,0,-0.10248,-0.13664,-0.10248,-0.06832,-0.04392
-0.01952,-0.02196,0.06344,0.0732,0.08296,-0.05124,-0.01952,-0.11224,-0.15128,-0.10736,-0.0732,-0.04392
-0.01464,-0.03172,0.07808,0.0854,0.09272,-0.05368,-0.0244,-0.11712,-0.15616,-0.11224,-0.07808,-0.0488
-0.00976,-0.04636,0.10248,0.10736,0.11224,-0.061,-0.02928,-0.122,-0.15616,-0.11712,-0.07808,-0.0488
-0.00976,-0.0488,0.10736,0.11224,0.11712,-0.06344,-0.03416,-0.122,-0.15616,-0.10736,-0.0732,-0.0488
0,-0.0488,0.0976,0.0976,0.0976,-0.0488,-0.03904,-0.11712,-0.15616,-0.10736,-0.0732,-0.04392
0,-0.05368,0.10736,0.10736,0.10736,-0.05368,-0.04392,-0.11712,-0.15616,-0.10248,-0.07808,-0.04392
0.00488,-0.05612,0.10736,0.10492,0.10248,-0.0488,-0.0488,-0.11712,-0.15128,-0.0976,-0.0732,-0.04392
0.00976,-0.061,0.11224,0.10736,0.10248,-0.04636,-0.03904,-0.10736,-0.14152,-0.0976,-0.0732,-0.03416
0,-0.05368,0.10736,0.10736,0.10736,-0.05368,-0.03416,-0.10736,-0.14152,-0.0976,-0.0732,-0.04392
-0.01464,-0.0366,0.08784,0.09516,0.10248,-0.05856,-0.02928,-0.11224,-0.15616,-0.11712,-0.09272,-0.05856
-0.0244,-0.02196,0.06832,0.08052,0.09272,-0.05856,-0.02928,-0.11712,-0.17568,-0.14152,-0.11224,-0.07808
-0.02928,-0.01464,0.05856,0.0732,0.08784,-0.05856,-0.02928,-0.122,-0.18056,-0.15128,-0.11712,-0.08784
-0.02928,-0.00732,0.04392,0.05856,0.0732,-0.05124,-0.02928,-0.12688,-0.19032,-0.15616,-0.12688,-0.0976
-0.01952,-0.00732,0.03416,0.04392,0.05368,-0.0366,-0.0244,-0.12688,-0.20008,-0.16104,-0.13176,-0.10248
-0.02928,0.00244,0.0244,0.03904,0.05368,-0.04148,-0.0244,-0.122,-0.20496,-0.1708,-0.13176,-0.10736
-0.02928,0.00732,0.01464,0.02928,0.04392,-0.0366,-0.02928,-0.122,-0.20984,-0.17568,-0.14152,-0.11224
-0.02928,0.00976,0.00976,0.0244,0.03904,-0.03416,-0.03416,-0.122,-0.21472,-0.18544,-0.1464,-0.11712
-0.03416,0.0122,0.00976,0.02684,0.04392,-0.03904,-0.03416,-0.122,-0.21472,-0.18544,-0.1464,-0.122
-0.03416,0.01464,0.00488,0.02196,0.03904,-0.0366,-0.03416,-0.11712,-0.21472,-0.18544,-0.15128,-0.122
-0.03904,0.01708,0.00488,0.0244,0.04392,-0.04148,-0.02928,-0.11712,-0.21472,-0.18544,-0.15128,-0.122
-0.04392,0.02684,-0.00976,0.0122,0.03416,-0.03904,-0.02928,-0.11224,-0.21472,-0.18544,-0.15128,-0.122
-0.04392,0.02684,-0.00976,0.0122,0.03416,-0.03904,-0.02928,-0.10736,-0.21472,-0.18544,-0.15128,-0.122
-0.04392,0.0244,-0.00488,0.01708,0.03904,-0.04148,-0.0244,-0.10736,-0.21472,-0.18544,-0.15128,-0.122
-0.03904,0.02196,-0.00488,0.01464,0.03416,-0.0366,-0.02928,-0.10736,-0.20984,-0.18544,-0.15128,-0.122
-0.03904,0.02684,-0.01464,0.00488,0.0244,-0.03172,-0.03416,-0.10736,-0.20984,-0.18544,-0.15616,-0.12688
-0.03416,0.0244,-0.01464,0.00244,0.01952,-0.02684,-0.02928,-0.10248,-0.20984,-0.18544,-0.15616,-0.12688
-0.02928,0.02196,-0.01464,0,0.01464,-0.02196,-0.02928,-0.10248,-0.20984,-0.18544,-0.15616,-0.12688
-0.02928,0.0244,-0.01952,-0.00488,0.00976,-0.01952,-0.02928,-0.10248,-0.20984,-0.18544,-0.15616,-0.12688
-0.03416,0.0244,-0.01464,0.00244,0.01952,-0.02684,-0.01952,-0.10248,-0.20984,-0.18544,-0.15128,-0.12688
-0.04392,0.01708,0.00976,0.03172,0.05368,-0.0488,-0.0244,-0.11224,-0.2196,-0.1952,-0.16104,-0.13664
-0.03904,-0.0122,0.06344,0.08296,0.10248,-0.07076,-0.01952,-0.08784,-0.16592,-0.1464,-0.11712,-0.10736
-0.02928,-0.0488,0.12688,0.14152,0.15616,-0.09272,0.05368,0.03904,0.01464,-0.02928,-0.03416,-0.04392
0.01464,-0.10492,0.1952,0.18788,0.18056,-0.08296,0.122,0.18544,0.22448,0.13176,0.08296,0.04392
0.05856,-0.16836,0.27816,0.24888,0.2196,-0.08052,0.07808,0.20496,0.35136,0.29768,0.20984,0.13176
0.122,-0.27084,0.41968,0.35868,0.29768,-0.08784,-0.0488,0.13176,0.488,0.53192,0.40504,0.2928
0.18544,-0.44164,0.69784,0.60512,0.5124,-0.16348,-0.25864,-0.08296,0.65392,0.88816,0.71248,0.5368
0.27816,-0.61244,0.94672,0.80764,0.66856,-0.1952,-0.56608,-0.25864,0.8784,1.30296,1.0492,0.81008
0.36112,-0.65148,0.94184,0.76128,0.58072,-0.1098,-0.854,-0.35136,1.01992,1.55672,1.26392,0.96624
0.38064,-0.6466,0.91256,0.72224,0.53192,-0.07564,-1.06384,-0.52216,0.91744,1.50792,1.24928,0.98576
0.3172,-0.45384,0.59048,0.43188,0.27328,0.02196,-1.098,-0.63928,0.61976,1.098,0.91744,0.76616
0.23912,-0.3172,0.39528,0.27572,0.15616,0.04148,-1.09312,-0.76128,0.1952,0.62952,0.57584,0.5368
0.11712,-0.14884,0.18056,0.122,0.06344,0.02684,-0.99064,-0.81984,-0.366,0.05368,0.15616,0.26352
-0.00488,-0.00488,0.01464,0.01708,0.01952,-0.0122,-0.81496,-0.80032,-0.72224,-0.36112,-0.16592,0.01464
-0.03416,-0.00732,0.0488,0.06588,0.08296,-0.05856,-0.61,-0.6588,-0.69296,-0.3904,-0.20984,-0.0488
-0.03416,-0.03904,0.11224,0.12932,0.1464,-0.09028,-0.45384,-0.50264,-0.50752,-0.29768,-0.1464,-0.02928
-0.03904,-0.03904,0.11712,0.13664,0.15616,-0.0976,-0.33184,-0.36112,-0.37576,-0.23424,-0.12688,-0.04392
-0.04392,-0.02928,0.10248,0.12444,0.1464,-0.09516,-0.22448,-0.24888,-0.27328,-0.18056,-0.11712,-0.05856
-0.03416,-0.01708,0.06832,0.0854,0.10248,-0.06832,-0.14152,-0.16592,-0.20008,-0.1464,-0.10248,-0.05368
-0.02928,-0.00976,0.0488,0.06344,0.07808,-0.05368,-0.07808,-0.10248,-0.1464,-0.122,-0.0976,-0.05368
-0.02928,-0.00732,0.04392,0.05856,0.0732,-0.05124,-0.04392,-0.05856,-0.10736,-0.10736,-0.08296,-0.05368
-0.0244,-0.00976,0.04392,0.05612,0.06832,-0.04636,-0.02928,-0.0244,-0.07808,-0.08296,-0.06832,-0.0488
-0.01952,-0.00488,0.02928,0.03904,0.0488,-0.03416,-0.0244,-0.00976,-0.06832,-0.0732,-0.06832,-0.0488
-0.01952,0.00244,0.01464,0.0244,0.03416,-0.02684,-0.00976,-0.00976,-0.06344,-0.0732,-0.06832,-0.05856
-0.0244,0.00488,0.01464,0.02684,0.03904,-0.03172,0,-0.00488,-0.06344,-0.0732,-0.0732,-0.05856
-0.0244,0.00244,0.01952,0.03172,0.04392,-0.03416,0.00976,0.00976,-0.05368,-0.0732,-0.0732,-0.05856
-0.01952,-0.00244,0.0244,0.03416,0.04392,-0.03172,0.02928,0.01952,-0.04392,-0.06832,-0.06344,-0.05856
-0.01952,-0.00244,0.0244,0.03416,0.04392,-0.03172,0.04392,0.0244,-0.04392,-0.06832,-0.06344,-0.05856
-0.00976,-0.0122,0.03416,0.03904,0.04392,-0.02684,0.03904,0.01952,-0.03904,-0.06344,-0.06344,-0.05856
-0.00488,-0.01952,0.04392,0.04636,0.0488,-0.02684,0.02928,0.01952,-0.03904,-0.06344,-0.06344,-0.05856
0,-0.02684,0.05368,0.05368,0.05368,-0.02684,0.02928,0.02928,-0.0244,-0.05368,-0.05856,-0.05368
0.00488,-0.03416,0.06344,0.061,0.05856,-0.02684,0.02928,0.03416,-0.01952,-0.0488,-0.05368,-0.05368
0.00488,-0.03416,0.06344,0.061,0.05856,-0.02684,0.03904,0.03416,-0.01464,-0.04392,-0.05368,-0.05368
0,-0.0366,0.0732,0.0732,0.0732,-0.0366,0.04392,0.04392,-0.00488,-0.04392,-0.05368,-0.05368
0,-0.03904,0.07808,0.07808,0.07808,-0.03904,0.0488,0.0488,0.00976,-0.03904,-0.04392,-0.05368
0.00488,-0.0488,0.09272,0.09028,0.08784,-0.04148,0.0488,0.05856,0.01464,-0.03416,-0.04392,-0.05368
0.01464,-0.0488,0.08296,0.07564,0.06832,-0.02684,0.0488,0.05856,0.00976,-0.02928,-0.04392,-0.05368
0.0244,-0.05368,0.08296,0.07076,0.05856,-0.01708,0.05368,0.05856,0.01952,-0.01952,-0.04392,-0.05856
0.01464,-0.05124,0.08784,0.08052,0.0732,-0.02928,0.05368,0.06832,0.02928,-0.01464,-0.04392,-0.0488
0.00488,-0.04148,0.07808,0.07564,0.0732,-0.03416,0.05368,0.07808,0.03904,-0.00488,-0.03904,-0.0488
0.00488,-0.04636,0.08784,0.0854,0.08296,-0.03904,0.05368,0.07808,0.0488,-0.00488,-0.03416,-0.04392
0.01952,-0.05612,0.09272,0.08296,0.0732,-0.02684,0.05368,0.08296,0.05368,-0.00488,-0.03416,-0.04392
0.01952,-0.05856,0.0976,0.08784,0.07808,-0.02928,0.06344,0.09272,0.06832,0.00488,-0.02928,-0.04392
0.01464,-0.05856,0.10248,0.09516,0.08784,-0.0366,0.06832,0.0976,0.07808,0.01464,-0.01952,-0.03904
0.01464,-0.05856,0.10248,0.09516,0.08784,-0.0366,0.06832,0.10736,0.09272,0.0244,-0.01464,-0.03904
0.01952,-0.06344,0.10736,0.0976,0.08784,-0.03416,0.07808,0.11224,0.10736,0.03416,-0.00976,-0.02928
0.01952,-0.06588,0.11224,0.10248,0.09272,-0.0366,0.09272,0.122,0.122,0.03904,0,-0.0244
0.01952,-0.06588,0.11224,0.10248,0.09272,-0.0366,0.10736,0.14152,0.1464,0.05856,0.01464,-0.00488
0.0244,-0.07076,0.11712,0.10492,0.09272,-0.03416,0.122,0.15616,0.16104,0.07808,0.02928,-0.00488
0.02928,-0.07564,0.122,0.10736,0.09272,-0.03172,0.12688,0.17568,0.18544,0.10248,0.04392,0
0.02928,-0.07808,0.12688,0.11224,0.0976,-0.03416,0.13664,0.18544,0.20008,0.10248,0.0488,-0.00488
0.03416,-0.08296,0.13176,0.11468,0.0976,-0.03172,0.13664,0.20496,0.21472,0.10248,0.05368,0.00488
0.03904,-0.09516,0.15128,0.13176,0.11224,-0.0366,0.1464,0.22448,0.244,0.122,0.06344,0.01952
0.05368,-0.1098,0.16592,0.13908,0.11224,-0.02928,0.16104,0.244,0.2684,0.14152,0.07808,0.02928
0.05368,-0.1098,0.16592,0.13908,0.11224,-0.02928,0.1708,0.2684,0.29768,0.16104,0.08784,0.03904
0.05856,-0.11712,0.17568,0.1464,0.11712,-0.02928,0.18056,0.2928,0.32208,0.18544,0.10736,0.0488
0.05856,-0.11712,0.17568,0.1464,0.11712,-0.02928,0.1952,0.32696,0.35624,0.20984,0.13176,0.05856
0.05368,-0.11468,0.17568,0.14884,0.122,-0.03416,0.20496,0.34648,0.3904,0.23912,0.15128,0.0732
0.05856,-0.12444,0.19032,0.16104,0.13176,-0.0366,0.21472,0.37088,0.42456,0.2684,0.16592,0.08784
0.06832,-0.13908,0.20984,0.17568,0.14152,-0.0366,0.2196,0.40504,0.45872,0.28792,0.18056,0.11224
0.08296,-0.15616,0.22936,0.18788,0.1464,-0.03172,0.22936,0.42944,0.49288,0.3172,0.20496,0.12688
0.0976,-0.17324,0.24888,0.20008,0.15128,-0.02684,0.22936,0.44896,0.53192,0.35136,0.22936,0.1464
0.0976,-0.183,0.2684,0.2196,0.1708,-0.0366,0.23424,0.46848,0.56608,0.3904,0.25864,0.16104
0.10248,-0.19764,0.2928,0.24156,0.19032,-0.04392,0.23424,0.48312,0.60512,0.41968,0.28304,0.17568
0.11712,-0.21472,0.31232,0.25376,0.1952,-0.03904,0.22936,0.49288,0.6344,0.44408,0.30256,0.19032
0.12688,-0.2318,0.33672,0.27328,0.20984,-0.04148,0.22936,0.50752,0.66368,0.47824,0.33672,0.2196
0.13664,-0.24888,0.36112,0.2928,0.22448,-0.04392,0.2196,0.52216,0.69784,0.50752,0.35624,0.22936
0.13664,-0.25864,0.38064,0.31232,0.244,-0.05368,0.21472,0.52704,0.72224,0.53192,0.37576,0.24888
0.14152,-0.2684,0.39528,0.32452,0.25376,-0.05612,0.20496,0.52704,0.732,0.55144,0.3904,0.25864
0.1464,-0.27816,0.40992,0.33672,0.26352,-0.05856,0.20008,0.51728,0.74176,0.56608,0.40504,0.2684
0.14152,-0.27816,0.4148,0.34404,0.27328,-0.06588,0.19032,0.50264,0.75152,0.57584,0.4148,0.27816
0.13176,-0.27084,0.40992,0.34404,0.27816,-0.0732,0.18544,0.47824,0.75152,0.57584,0.41968,0.28304
0.13176,-0.27328,0.4148,0.34892,0.28304,-0.07564,0.16592,0.46848,0.732,0.5856,0.42456,0.28304
0.122,-0.27084,0.41968,0.35868,0.29768,-0.08784,0.1464,0.44408,0.7076,0.58072,0.4148,0.28304
0.12688,-0.27328,0.41968,0.35624,0.2928,-0.08296,0.12688,0.40016,0.6832,0.56608,0.4148,0.28304
0.12688,-0.2684,0.40992,0.34648,0.28304,-0.07808,0.10736,0.36112,0.64416,0.54168,0.40016,0.27816
0.11224,-0.25376,0.39528,0.33916,0.28304,-0.0854,0.0976,0.32208,0.59536,0.50752,0.37088,0.26352
0.10248,-0.2318,0.36112,0.30988,0.25864,-0.07808,0.07808,0.27816,0.52704,0.45384,0.3416,0.23912
0.09272,-0.2074,0.32208,0.27572,0.22936,-0.06832,0.06344,0.23424,0.45872,0.40992,0.30256,0.21472
0.08296,-0.18056,0.27816,0.23668,0.1952,-0.05612,0.0488,0.19032,0.3904,0.35624,0.2684,0.19032
0.06832,-0.1586,0.24888,0.21472,0.18056,-0.05612,0.04392,0.1464,0.3172,0.2928,0.22448,0.16104
0.05368,-0.12932,0.20496,0.17812,0.15128,-0.0488,0.03904,0.10248,0.24888,0.22936,0.18056,0.13176
0.03904,-0.09028,0.14152,0.122,0.10248,-0.03172,0.02928,0.07808,0.1952,0.18544,0.1464,0.11224
0.02928,-0.07076,0.11224,0.0976,0.08296,-0.02684,0.01952,0.0488,0.14152,0.14152,0.11224,0.08784
0.0244,-0.05612,0.08784,0.07564,0.06344,-0.01952,0.01952,0.03416,0.10248,0.10248,0.08784,0.05856
0.01464,-0.04148,0.06832,0.061,0.05368,-0.01952,0.00976,0.01952,0.06832,0.0732,0.05856,0.03416
0.00488,-0.01952,0.03416,0.03172,0.02928,-0.0122,0.00976,-0.01464,0.02928,0.03416,0.02928,0.01952
-0.00488,0,0.00488,0.00732,0.00976,-0.00732,0.00976,-0.03416,0,0.00976,0.00488,0.00488
-0.00976,0.01708,-0.0244,-0.01952,-0.01464,0.00244,0.01464,-0.03904,-0.00976,-0.00488,-0.00976,-0.00488
-0.00976,0.02684,-0.04392,-0.03904,-0.03416,0.0122,0.01464,-0.0488,-0.02928,-0.0244,-0.01952,-0.00976
-0.01952,0.03904,-0.05856,-0.0488,-0.03904,0.00976,0.01464,-0.0488,-0.05368,-0.03904,-0.0244,-0.01952
-0.01952,0.05124,-0.08296,-0.0732,-0.06344,0.02196,0.01464,-0.0488,-0.05856,-0.03904,-0.02928,-0.02928
-0.01952,0.061,-0.10248,-0.09272,-0.08296,0.03172,0.01464,-0.05368,-0.06344,-0.0488,-0.03904,-0.02928
-0.02928,0.07564,-0.122,-0.10736,-0.09272,0.03172,0.01952,-0.05856,-0.06344,-0.05368,-0.03904,-0.02928
-0.02928,0.08296,-0.13664,-0.122,-0.10736,0.03904,0.0244,-0.05368,-0.0732,-0.06344,-0.0488,-0.03904
-0.02928,0.09028,-0.15128,-0.13664,-0.122,0.04636,0.01952,-0.05368,-0.07808,-0.06832,-0.05856,-0.03416
-0.02928,0.09272,-0.15616,-0.14152,-0.12688,0.0488,0.01464,-0.05368,-0.08296,-0.06832,-0.05856,-0.03416
-0.02928,0.0976,-0.16592,-0.15128,-0.13664,0.05368,0.01464,-0.05368,-0.08296,-0.06344,-0.05368,-0.03416
-0.02928,0.1098,-0.19032,-0.17568,-0.16104,0.06588,0.02928,-0.0488,-0.07808,-0.06832,-0.04392,-0.0244
-0.02928,0.11956,-0.20984,-0.1952,-0.18056,0.07564,0.03416,-0.04392,-0.0732,-0.06832,-0.03904,-0.01952
-0.03416,0.13664,-0.23912,-0.22204,-0.20496,0.0854,0.03416,-0.04392,-0.0732,-0.05856,-0.03416,-0.01952
-0.03416,0.1464,-0.25864,-0.24156,-0.22448,0.09516,0.04392,-0.03416,-0.06344,-0.04392,-0.03416,-0.01464
-0.03416,0.14884,-0.26352,-0.24644,-0.22936,0.0976,0.0488,-0.0244,-0.06344,-0.04392,-0.02928,-0.00976
-0.03416,0.15128,-0.2684,-0.25132,-0.23424,0.10004,0.0488,-0.0244,-0.06832,-0.04392,-0.0244,-0.00488
-0.03416,0.15616,-0.27816,-0.26108,-0.244,0.10492,0.0488,-0.0244,-0.06832,-0.04392,-0.0244,-0.00488
-0.03416,0.16348,-0.2928,-0.27572,-0.25864,0.11224,0.05368,-0.0244,-0.06832,-0.0488,-0.02928,-0.00488
-0.03416,0.16836,-0.30256,-0.28548,-0.2684,0.11712,0.05856,-0.0244,-0.06344,-0.04392,-0.0244,0
-0.03416,0.17324,-0.31232,-0.29524,-0.27816,0.122,0.06344,-0.01952,-0.06344,-0.04392,-0.01952,0
-0.03416,0.17324,-0.31232,-0.29524,-0.27816,0.122,0.06344,-0.01952,-0.06344,-0.0488,-0.01952,0
-0.03416,0.17324,-0.31232,-0.29524,-0.27816,0.122,0.06344,-0.01952,-0.06344,-0.0488,-0.01952,0
-0.03416,0.17568,-0.3172,-0.30012,-0.28304,0.12444,0.06344,-0.01952,-0.06344,-0.0488,-0.01952,-0.00488
-0.03416,0.17568,-0.3172,-0.30012,-0.28304,0.12444,0.06344,-0.01952,-0.06344,-0.0488,-0.0244,-0.00976
-0.03416,0.17568,-0.3172,-0.30012,-0.28304,0.12444,0.06832,-0.01952,-0.06344,-0.0488,-0.0244,-0.00976
-0.03416,0.17324,-0.31232,-0.29524,-0.27816,0.122,0.06832,-0.01952,-0.06344,-0.05368,-0.0244,-0.00976
-0.03416,0.16836,-0.30256,-0.28548,-0.2684,0.11712,0.0732,-0.01952,-0.06344,-0.05368,-0.0244,-0.01464
-0.03416,0.16592,-0.29768,-0.2806,-0.26352,0.11468,0.0732,-0.01464,-0.06832,-0.05856,-0.02928,-0.01464
-0.03416,0.16348,-0.2928,-0.27572,-0.25864,0.11224,0.08296,-0.01464,-0.06832,-0.05856,-0.03416,-0.01464
-0.03416,0.16104,-0.28792,-0.27084,-0.25376,0.1098,0.08296,-0.00976,-0.06344,-0.05856,-0.03904,-0.01464
-0.03416,0.1586,-0.28304,-0.26596,-0.24888,0.10736,0.08784,-0.00976,-0.06832,-0.06832,-0.04392,-0.01464
-0.03416,0.15372,-0.27328,-0.2562,-0.23912,0.10248,0.08784,-0.00976,-0.0732,-0.0732,-0.0488,-0.01952
-0.03416,0.14884,-0.26352,-0.24644,-0.22936,0.0976,0.0732,-0.00976,-0.07808,-0.07808,-0.05368,-0.0244
-0.03416,0.1464,-0.25864,-0.24156,-0.22448,0.09516,0.06344,-0.00976,-0.08296,-0.08296,-0.05856,-0.02928
-0.03416,0.14396,-0.25376,-0.23668,-0.2196,0.09272,0.06344,-0.00976,-0.08784,-0.08296,-0.05856,-0.02928
-0.03904,0.1464,-0.25376,-0.23424,-0.21472,0.08784,0.05856,-0.01464,-0.09272,-0.08296,-0.05856,-0.03416
-0.03904,0.13664,-0.23424,-0.21472,-0.1952,0.07808,0.05368,-0.01952,-0.0976,-0.08296,-0.06344,-0.04392
-0.03904,0.12444,-0.20984,-0.19032,-0.1708,0.06588,0.0488,-0.01952,-0.0976,-0.08296,-0.06832,-0.05368
-0.03416,0.11712,-0.20008,-0.183,-0.16592,0.06588,0.04392,-0.01952,-0.10248,-0.0976,-0.07808,-0.0488
-0.03416,0.11224,-0.19032,-0.17324,-0.15616,0.061,0.03904,-0.0244,-0.10736,-0.10736,-0.08296,-0.0488
-0.02928,0.1098,-0.19032,-0.17568,-0.16104,0.06588,0.02928,-0.02928,-0.10248,-0.10736,-0.08784,-0.0488
-0.02928,0.1098,-0.19032,-0.17568,-0.16104,0.06588,0.01952,-0.02928,-0.10248,-0.10248,-0.08784,-0.0488
-0.02928,0.10492,-0.18056,-0.16592,-0.15128,0.061,0.01952,-0.02928,-0.10736,-0.10248,-0.08784,-0.05368
-0.02928,0.0976,-0.16592,-0.15128,-0.13664,0.05368,0.01464,-0.03416,-0.11224,-0.10248,-0.08784,-0.05856
-0.02928,0.09272,-0.15616,-0.14152,-0.12688,0.0488,0.01464,-0.0488,-0.11712,-0.11224,-0.08784,-0.06344
-0.03904,0.09272,-0.1464,-0.12688,-0.10736,0.03416,0.01464,-0.05856,-0.11712,-0.11712,-0.08784,-0.06344
-0.03904,0.08052,-0.122,-0.10248,-0.08296,0.02196,0.01464,-0.05856,-0.11712,-0.11224,-0.08784,-0.06832
-0.03416,0.06588,-0.0976,-0.08052,-0.06344,0.01464,0.00976,-0.06832,-0.11712,-0.11224,-0.09272,-0.06832
-0.02928,0.06344,-0.0976,-0.08296,-0.06832,0.01952,0.00976,-0.06832,-0.11712,-0.11224,-0.09272,-0.06832
-0.02928,0.061,-0.09272,-0.07808,-0.06344,0.01708,0.00976,-0.06832,-0.11712,-0.11224,-0.08784,-0.06832
-0.03416,0.06344,-0.09272,-0.07564,-0.05856,0.0122,0.00976,-0.06832,-0.11712,-0.11224,-0.08784,-0.06832
-0.03416,0.06344,-0.09272,-0.07564,-0.05856,0.0122,0.00976,-0.06832,-0.11224,-0.11224,-0.08784,-0.06832
-0.03416,0.061,-0.08784,-0.07076,-0.05368,0.00976,0.00488,-0.06832,-0.11712,-0.11224,-0.09272,-0.0732
-0.03416,0.05856,-0.08296,-0.06588,-0.0488,0.00732,0,-0.06832,-0.122,-0.11712,-0.09272,-0.0732
-0.02928,0.05368,-0.07808,-0.06344,-0.0488,0.00976,-0.00488,-0.0732,-0.11712,-0.11224,-0.08784,-0.06832
-0.0244,0.0488,-0.0732,-0.061,-0.0488,0.0122,-0.00488,-0.0732,-0.11712,-0.11224,-0.08784,-0.06832
-0.01952,0.04636,-0.0732,-0.06344,-0.05368,0.01708,-0.00488,-0.0732,-0.122,-0.11224,-0.09272,-0.0732
-0.01952,0.04636,-0.0732,-0.06344,-0.05368,0.01708,-0.00488,-0.0732,-0.122,-0.11224,-0.0976,-0.07808
-0.02928,0.0488,-0.06832,-0.05368,-0.03904,0.00488,-0.00976,-0.0732,-0.12688,-0.11712,-0.0976,-0.08296
-0.03416,0.05124,-0.06832,-0.05124,-0.03416,0,-0.00976,-0.07808,-0.13176,-0.122,-0.0976,-0.08296
-0.03416,0.05124,-0.06832,-0.05124,-0.03416,0,-0.00976,-0.07808,-0.13176,-0.122,-0.0976,-0.0732
-0.03416,0.05124,-0.06832,-0.05124,-0.03416,0,-0.00976,-0.07808,-0.13176,-0.122,-0.0976,-0.08296
-0.02928,0.05124,-0.0732,-0.05856,-0.04392,0.00732,-0.01464,-0.0732,-0.12688,-0.11224,-0.08784,-0.0732
-0.02928,0.05368,-0.07808,-0.06344,-0.0488,0.00976,-0.01464,-0.0732,-0.12688,-0.10736,-0.07808,-0.06344
-0.03416,0.05612,-0.07808,-0.061,-0.04392,0.00488,-0.01464,-0.07808,-0.12688,-0.11224,-0.07808,-0.06344
-0.03416,0.05612,-0.07808,-0.061,-0.04392,0.00488,-0.0244,-0.08296,-0.12688,-0.11224,-0.08296,-0.06832
-0.03904,0.061,-0.08296,-0.06344,-0.04392,0.00244,-0.0244,-0.08296,-0.13176,-0.11224,-0.08296,-0.0732
-0.04392,0.06344,-0.08296,-0.061,-0.03904,-0.00244,-0.02928,-0.08296,-0.13176,-0.11224,-0.08296,-0.07808
-0.04392,0.06344,-0.08296,-0.061,-0.03904,-0.00244,-0.02928,-0.08296,-0.13664,-0.11712,-0.08296,-0.07808
-0.04392,0.06344,-0.08296,-0.061,-0.03904,-0.00244,-0.02928,-0.08784,-0.13664,-0.122,-0.08784,-0.0732
-0.04392,0.06344,-0.08296,-0.061,-0.03904,-0.00244,-0.02928,-0.08296,-0.13664,-0.122,-0.08784,-0.0732
-0.04392,0.06588,-0.08784,-0.06588,-0.04392,0,-0.02928,-0.08296,-0.14152,-0.11712,-0.08296,-0.0732
-0.03904,0.06344,-0.08784,-0.06832,-0.0488,0.00488,-0.02928,-0.08296,-0.14152,-0.11712,-0.08296,-0.06832
-0.03416,0.061,-0.08784,-0.07076,-0.05368,0.00976,-0.02928,-0.08296,-0.14152,-0.122,-0.08296,-0.06344
-0.04392,0.06832,-0.09272,-0.07076,-0.0488,0.00244,-0.0244,-0.08784,-0.13664,-0.122,-0.08784,-0.06832
-0.04392,0.07076,-0.0976,-0.07564,-0.05368,0.00488,-0.0244,-0.08784,-0.13176,-0.12688,-0.09272,-0.06832
-0.04392,0.07076,-0.0976,-0.07564,-0.05368,0.00488,-0.0244,-0.08784,-0.13664,-0.122,-0.09272,-0.06832
-0.0488,0.07076,-0.09272,-0.06832,-0.04392,-0.00244,-0.0244,-0.08784,-0.13664,-0.11712,-0.09272,-0.06832
-0.0488,0.07076,-0.09272,-0.06832,-0.04392,-0.00244,-0.0244,-0.08296,-0.13664,-0.11712,-0.09272,-0.06832
-0.0488,0.0732,-0.0976,-0.0732,-0.0488,0,-0.0244,-0.08296,-0.13664,-0.11712,-0.08784,-0.0732
-0.04392,0.07808,-0.11224,-0.09028,-0.06832,0.0122,-0.0244,-0.08296,-0.13664,-0.122,-0.08784,-0.0732
-0.03416,0.08052,-0.12688,-0.1098,-0.09272,0.02928,-0.0244,-0.08296,-0.13664,-0.12688,-0.08784,-0.0732
-0.03416,0.0732,-0.11224,-0.09516,-0.07808,0.02196,-0.02928,-0.08784,-0.13664,-0.12688,-0.08784,-0.0732
-0.03416,0.06832,-0.10248,-0.0854,-0.06832,0.01708,-0.02928,-0.08784,-0.13664,-0.12688,-0.08784,-0.0732
-0.03416,0.06588,-0.0976,-0.08052,-0.06344,0.01464,-0.02928,-0.09272,-0.1464,-0.12688,-0.08784,-0.0732
-0.03416,0.06588,-0.0976,-0.08052,-0.06344,0.01464,-0.02928,-0.08784,-0.15128,-0.12688,-0.08784,-0.0732
-0.03416,0.06588,-0.0976,-0.08052,-0.06344,0.01464,-0.02928,-0.08784,-0.15128,-0.122,-0.08784,-0.0732
-0.03416,0.06588,-0.0976,-0.08052,-0.06344,0.01464,-0.02928,-0.0976,-0.1464,-0.11712,-0.08784,-0.06832
-0.03416,0.06588,-0.0976,-0.08052,-0.06344,0.01464,-0.0244,-0.0976,-0.1464,-0.122,-0.09272,-0.06832
-0.03416,0.06588,-0.0976,-0.08052,-0.06344,0.01464,-0.01952,-0.0976,-0.15128,-0.122,-0.0976,-0.06832
-0.03416,0.06344,-0.09272,-0.07564,-0.05856,0.0122,-0.01952,-0.0976,-0.15128,-0.122,-0.0976,-0.0732
-0.03416,0.05856,-0.08296,-0.06588,-0.0488,0.00732,-0.01952,-0.0976,-0.15128,-0.12688,-0.0976,-0.0732
-0.02928,0.05612,-0.08296,-0.06832,-0.05368,0.0122,-0.0244,-0.0976,-0.15128,-0.13176,-0.0976,-0.06832
-0.02928,0.05856,-0.08784,-0.0732,-0.05856,0.01464,-0.02928,-0.0976,-0.15616,-0.13664,-0.10248,-0.06344
-0.02928,0.05856,-0.08784,-0.0732,-0.05856,0.01464,-0.0244,-0.10248,-0.15616,-0.13664,-0.0976,-0.06832
-0.02928,0.05856,-0.08784,-0.0732,-0.05856,0.01464,-0.01952,-0.10736,-0.15616,-0.13664,-0.0976,-0.07808
-0.02928,0.05368,-0.07808,-0.06344,-0.0488,0.00976,-0.0244,-0.10736,-0.15616,-0.13664,-0.0976,-0.07808
-0.02928,0.0488,-0.06832,-0.05368,-0.03904,0.00488,-0.02928,-0.10736,-0.15616,-0.13664,-0.0976,-0.07808
-0.03416,0.0488,-0.06344,-0.04636,-0.02928,-0.00244,-0.0244,-0.10736,-0.15128,-0.13664,-0.0976,-0.0732
-0.03416,0.04392,-0.05368,-0.0366,-0.01952,-0.00732,-0.01464,-0.10248,-0.1464,-0.12688,-0.0976,-0.06832
-0.03904,0.04148,-0.04392,-0.0244,-0.00488,-0.01708,-0.00976,-0.10248,-0.14152,-0.11712,-0.0976,-0.06832
-0.03904,0.03416,-0.02928,-0.00976,0.00976,-0.0244,-0.00976,-0.0976,-0.13176,-0.11224,-0.08784,-0.06344
-0.02928,0.0244,-0.01952,-0.00488,0.00976,-0.01952,-0.00976,-0.0976,-0.12688,-0.11224,-0.08296,-0.05368
-0.02928,0.02196,-0.01464,0,0.01464,-0.02196,0,-0.09272,-0.12688,-0.11712,-0.08296,-0.05368
-0.02928,0.01952,-0.00976,0.00488,0.01952,-0.0244,0,-0.08784,-0.12688,-0.10736,-0.07808,-0.05368
-0.02928,0.01708,-0.00488,0.00976,0.0244,-0.02684,0.00976,-0.08784,-0.122,-0.10736,-0.07808,-0.05368
-0.02928,0.02196,-0.01464,0,0.01464,-0.02196,0.00976,-0.08296,-0.11712,-0.10248,-0.0732,-0.05368
-0.01952,0.01952,-0.01952,-0.00976,0,-0.00976,-0.00488,-0.08784,-0.11712,-0.0976,-0.0732,-0.04392
-0.01464,0.00976,-0.00488,0.00244,0.00976,-0.0122,-0.0244,-0.10736,-0.11712,-0.08784,-0.06832,-0.03416
-0.00976,0.00732,-0.00488,0,0.00488,-0.00732,-0.04392,-0.11224,-0.122,-0.08296,-0.06344,-0.02928
-0.00976,0.00244,0.00488,0.00976,0.01464,-0.0122,-0.05368,-0.12688,-0.12688,-0.0976,-0.06344,-0.02928
-0.00976,0.00244,0.00488,0.00976,0.01464,-0.0122,-0.06832,-0.13176,-0.14152,-0.10736,-0.06344,-0.0244
-0.00488,-0.00244,0.00976,0.0122,0.01464,-0.00976,-0.06832,-0.13176,-0.1464,-0.10736,-0.06344,-0.02928
0,-0.0122,0.0244,0.0244,0.0244,-0.0122,-0.06832,-0.13176,-0.1464,-0.10736,-0.05856,-0.02928
0,-0.01464,0.02928,0.02928,0.02928,-0.01464,-0.0732,-0.12688,-0.14152,-0.0976,-0.05368,-0.02928
0.00976,-0.01464,0.01952,0.01464,0.00976,0,-0.07808,-0.11712,-0.13664,-0.0976,-0.05368,-0.0244
0.00976,-0.01708,0.0244,0.01952,0.01464,-0.00244,-0.07808,-0.11712,-0.13664,-0.09272,-0.05368,-0.0244
0.01464,-0.01708,0.01952,0.0122,0.00488,0.00488,-0.07808,-0.11712,-0.13176,-0.08784,-0.04392,-0.0244
0.01464,-0.01464,0.01464,0.00732,0,0.00732,-0.06832,-0.10736,-0.122,-0.08784,-0.04392,-0.01464
0,0,0,0,0,0,-0.06344,-0.10736,-0.122,-0.08784,-0.04392,-0.0244
-0.01464,0.01708,-0.01952,-0.0122,-0.00488,-0.00488,-0.05856,-0.11712,-0.14152,-0.10736,-0.06832,-0.03904
-0.0244,0.03172,-0.03904,-0.02684,-0.01464,-0.00488,-0.05856,-0.12688,-0.16592,-0.13176,-0.09272,-0.05856
-0.02928,0.03904,-0.0488,-0.03416,-0.01952,-0.00488,-0.06344,-0.12688,-0.1708,-0.1464,-0.10248,-0.0732
-0.02928,0.04636,-0.06344,-0.0488,-0.03416,0.00244,-0.06832,-0.12688,-0.18056,-0.15616,-0.11712,-0.08784
-0.01952,0.03904,-0.05856,-0.0488,-0.03904,0.00976,-0.06344,-0.13176,-0.18544,-0.16104,-0.122,-0.09272
-0.02928,0.04148,-0.05368,-0.03904,-0.0244,-0.00244,-0.06344,-0.13176,-0.18544,-0.1708,-0.122,-0.0976
-0.02928,0.04392,-0.05856,-0.04392,-0.02928,0,-0.06344,-0.13176,-0.19032,-0.1708,-0.13176,-0.10248
-0.02928,0.04392,-0.05856,-0.04392,-0.02928,0,-0.06344,-0.13176,-0.1952,-0.17568,-0.13664,-0.10736
-0.03416,0.04392,-0.05368,-0.0366,-0.01952,-0.00732,-0.06344,-0.13176,-0.1952,-0.17568,-0.13664,-0.11224
-0.03416,0.04392,-0.05368,-0.0366,-0.01952,-0.00732,-0.06344,-0.12688,-0.1952,-0.17568,-0.14152,-0.11224
-0.02928,0.03904,-0.0488,-0.03416,-0.01952,-0.00488,-0.05856,-0.12688,-0.20008,-0.17568,-0.14152,-0.10736
-0.0244,0.04148,-0.05856,-0.04636,-0.03416,0.00488,-0.05856,-0.122,-0.20496,-0.17568,-0.14152,-0.10248
-0.0244,0.04148,-0.05856,-0.04636,-0.03416,0.00488,-0.05856,-0.11712,-0.20496,-0.18056,-0.14152,-0.10248
-0.0244,0.03904,-0.05368,-0.04148,-0.02928,0.00244,-0.05368,-0.11712,-0.20496,-0.18544,-0.14152,-0.10248
-0.0244,0.04636,-0.06832,-0.05612,-0.04392,0.00976,-0.05368,-0.11712,-0.20008,-0.18544,-0.14152,-0.10248
-0.02928,0.061,-0.09272,-0.07808,-0.06344,0.01708,-0.05368,-0.11712,-0.20008,-0.18544,-0.1464,-0.10736
-0.02928,0.06344,-0.0976,-0.08296,-0.06832,0.01952,-0.0488,-0.10736,-0.20008,-0.18056,-0.13664,-0.10736
-0.02928,0.06588,-0.10248,-0.08784,-0.0732,0.02196,-0.0488,-0.10248,-0.20008,-0.17568,-0.12688,-0.10736
-0.03416,0.06832,-0.10248,-0.0854,-0.06832,0.01708,-0.04392,-0.10248,-0.1952,-0.1708,-0.12688,-0.10248
-0.04392,0.06832,-0.09272,-0.07076,-0.0488,0.00244,-0.02928,-0.10248,-0.19032,-0.16592,-0.122,-0.0976
-0.04392,0.05124,-0.05856,-0.0366,-0.01464,-0.01464,-0.01952,-0.0976,-0.1708,-0.15128,-0.11712,-0.09272
-0.02928,0.0122,0.00488,0.01952,0.03416,-0.03172,0,-0.05856,-0.08784,-0.07808,-0.05856,-0.0488
-0.01464,-0.0366,0.08784,0.09516,0.10248,-0.05856,0.0488,0.0488,0.08296,0.0488,0.03416,0.01464
0.03416,-0.10492,0.17568,0.1586,0.14152,-0.05368,0.09272,0.17568,0.28304,0.2196,0.16104,0.10248
0.08296,-0.18056,0.27816,0.23668,0.1952,-0.05612,0,0.1464,0.40504,0.40992,0.3172,0.21472
0.15128,-0.29524,0.4392,0.36356,0.28792,-0.06832,-0.17568,0.0244,0.5368,0.66856,0.54168,0.40016
0.21472,-0.44164,0.66856,0.5612,0.45384,-0.11956,-0.39528,-0.17568,0.70272,1.00528,0.8296,0.62952
0.30744,-0.58804,0.86864,0.71492,0.5612,-0.12688,-0.71248,-0.33672,0.9272,1.40056,1.1468,0.88816
0.37088,-0.59536,0.81984,0.6344,0.44896,-0.03904,-0.95648,-0.42944,0.99064,1.5372,1.2688,0.98088
0.37088,-0.55876,0.74664,0.5612,0.37576,-0.00244,-1.1224,-0.60024,0.81008,1.37128,1.16144,0.93696
0.2928,-0.36844,0.44408,0.29768,0.15128,0.07076,-1.12728,-0.70272,0.48312,0.94184,0.81984,0.7076
0.20008,-0.23424,0.2684,0.16836,0.06832,0.06588,-1.09312,-0.81008,0.02928,0.45384,0.46848,0.46848
0.09272,-0.10248,0.11224,0.06588,0.01952,0.0366,-0.96136,-0.83448,-0.44896,-0.04392,0.10736,0.22936
-0.01464,0.00488,0.00488,0.0122,0.01952,-0.01708,-0.7564,-0.7808,-0.72224,-0.38064,-0.15616,0.01464
-0.04392,0.00976,0.0244,0.04636,0.06832,-0.05612,-0.5612,-0.63928,-0.6588,-0.38064,-0.1952,-0.04392
-0.04392,-0.01464,0.0732,0.09516,0.11712,-0.08052,-0.4148,-0.48312,-0.4392,-0.25864,-0.12688,-0.01952
-0.04392,-0.01464,0.0732,0.09516,0.11712,-0.08052,-0.30744,-0.34648,-0.32696,-0.20496,-0.10736,-0.03416
-0.04392,-0.00488,0.05368,0.07564,0.0976,-0.07076,-0.21472,-0.23912,-0.244,-0.16104,-0.0976,-0.0488
-0.03416,0.00732,0.01952,0.0366,0.05368,-0.04392,-0.14152,-0.16104,-0.18056,-0.13176,-0.08296,-0.0488
-0.02928,0.01464,0,0.01464,0.02928,-0.02928,-0.08784,-0.10248,-0.13664,-0.11224,-0.07808,-0.05368
-0.0244,0.0122,0,0.0122,0.0244,-0.0244,-0.05856,-0.06344,-0.10248,-0.10736,-0.0732,-0.05368
-0.01464,0.00488,0.00488,0.0122,0.01952,-0.01708,-0.0488,-0.03416,-0.07808,-0.09272,-0.06832,-0.0488
-0.00976,0.00976,-0.00976,-0.00488,0,-0.00488,-0.04392,-0.01952,-0.06832,-0.08296,-0.06832,-0.05368
-0.00976,0.01708,-0.0244,-0.01952,-0.01464,0.00244,-0.02928,-0.01952,-0.06344,-0.08296,-0.06832,-0.06832
-0.01464,0.01464,-0.01464,-0.00732,0,-0.00732,-0.0244,-0.01952,-0.06832,-0.08296,-0.0732,-0.06832
-0.01464,0.00732,0,0.00732,0.01464,-0.01464,-0.01952,-0.00976,-0.06344,-0.08296,-0.0732,-0.06832
-0.00976,-0.00244,0.01464,0.01952,0.0244,-0.01708,0,0,-0.05368,-0.07808,-0.06344,-0.06832
-0.00976,-0.00732,0.0244,0.02928,0.03416,-0.02196,0.01464,0.00488,-0.05368,-0.07808,-0.06344,-0.06832
0,-0.01464,0.02928,0.02928,0.02928,-0.01464,0.00976,0.00488,-0.0488,-0.07808,-0.06344,-0.06832
0.00488,-0.01952,0.03416,0.03172,0.02928,-0.0122,0,0.00976,-0.0488,-0.08296,-0.06344,-0.06832
0.00976,-0.02684,0.04392,0.03904,0.03416,-0.0122,0,0.01952,-0.03416,-0.0732,-0.05856,-0.06344
0.01464,-0.03416,0.05368,0.04636,0.03904,-0.0122,0,0.0244,-0.02928,-0.06832,-0.05368,-0.06344
0.01464,-0.03416,0.05368,0.04636,0.03904,-0.0122,0.00976,0.0244,-0.0244,-0.06344,-0.05856,-0.06344
0.00976,-0.0366,0.06344,0.05856,0.05368,-0.02196,0.01464,0.03416,-0.01464,-0.06344,-0.06344,-0.06344
0.00976,-0.03416,0.05856,0.05368,0.0488,-0.01952,0.0244,0.03904,0,-0.05856,-0.05368,-0.06344
0.01464,-0.03904,0.06344,0.05612,0.0488,-0.01708,0.02928,0.0488,0.00488,-0.05368,-0.05368,-0.06344
0.01464,-0.03416,0.05368,0.04636,0.03904,-0.0122,0.02928,0.05856,0.00488,-0.04392,-0.0488,-0.05368
0.01464,-0.03416,0.05368,0.04636,0.03904,-0.0122,0.03416,0.06832,0.01952,-0.02928,-0.04392,-0.0488
0.01464,-0.03416,0.05368,0.04636,0.03904,-0.0122,0.03904,0.07808,0.02928,-0.0244,-0.03904,-0.03904
0.01464,-0.02684,0.03904,0.03172,0.0244,-0.00488,0.04392,0.08784,0.03904,-0.01464,-0.02928,-0.03904
0.00976,-0.02928,0.0488,0.04392,0.03904,-0.01464,0.04392,0.08784,0.0488,-0.00976,-0.0244,-0.03416
0.01952,-0.0366,0.05368,0.04392,0.03416,-0.00732,0.04392,0.09272,0.05368,-0.00488,-0.0244,-0.03416
0.01952,-0.03904,0.05856,0.0488,0.03904,-0.00976,0.0488,0.10248,0.06832,0.00488,-0.01952,-0.03416
0.01464,-0.03904,0.06344,0.05612,0.0488,-0.01708,0.0488,0.10736,0.07808,0.01464,-0.00976,-0.02928
0.01464,-0.0366,0.05856,0.05124,0.04392,-0.01464,0.0488,0.11712,0.0976,0.0244,-0.00488,-0.02928
0.01952,-0.03904,0.05856,0.0488,0.03904,-0.00976,0.05856,0.122,0.11712,0.03416,0,-0.01952
0.01464,-0.03904,0.06344,0.05612,0.0488,-0.01708,0.0732,0.13176,0.13176,0.03904,0.00976,-0.01952
0.00976,-0.0366,0.06344,0.05856,0.05368,-0.02196,0.08784,0.15128,0.15616,0.05856,0.0244,-0.00488
0.01464,-0.03904,0.06344,0.05612,0.0488,-0.01708,0.10248,0.16592,0.1708,0.06344,0.02928,-0.00488
0.01952,-0.04148,0.06344,0.05368,0.04392,-0.0122,0.10736,0.18544,0.1952,0.0732,0.03416,0
0.0244,-0.04636,0.06832,0.05612,0.04392,-0.00976,0.12688,0.20496,0.2196,0.09272,0.0488,0
0.03416,-0.05368,0.0732,0.05612,0.03904,-0.00244,0.13664,0.23424,0.244,0.11224,0.06344,0.01464
0.03416,-0.06344,0.09272,0.07564,0.05856,-0.0122,0.1464,0.25376,0.27328,0.13176,0.0732,0.02928
0.04392,-0.07564,0.10736,0.0854,0.06344,-0.00976,0.16104,0.27328,0.29768,0.15128,0.08784,0.03904
0.04392,-0.07564,0.10736,0.0854,0.06344,-0.00976,0.1708,0.29768,0.32696,0.16592,0.0976,0.0488
0.0488,-0.08296,0.11712,0.09272,0.06832,-0.00976,0.18056,0.32208,0.35136,0.18544,0.11712,0.05856
0.05856,-0.09516,0.13176,0.10248,0.0732,-0.00732,0.1952,0.35624,0.38552,0.20984,0.14152,0.06832
0.06344,-0.10492,0.1464,0.11468,0.08296,-0.00976,0.20496,0.37576,0.41968,0.23912,0.16104,0.08296
0.06832,-0.11468,0.16104,0.12688,0.09272,-0.0122,0.21472,0.39528,0.45384,0.2684,0.17568,0.09272
0.07808,-0.12932,0.18056,0.14152,0.10248,-0.0122,0.2196,0.42456,0.488,0.28792,0.19032,0.11224
0.08784,-0.14152,0.1952,0.15128,0.10736,-0.00976,0.22936,0.44896,0.52216,0.3172,0.21472,0.11712
0.0976,-0.15372,0.20984,0.16104,0.11224,-0.00732,0.22936,0.46848,0.5612,0.35136,0.23912,0.12688
0.0976,-0.16348,0.22936,0.18056,0.13176,-0.01708,0.23424,0.488,0.59536,0.3904,0.2684,0.15616
0.10248,-0.17812,0.25376,0.20252,0.15128,-0.0244,0.23424,0.50264,0.6344,0.41968,0.2928,0.18544
0.11712,-0.19276,0.2684,0.20984,0.15128,-0.01708,0.22936,0.5124,0.66368,0.44408,0.31232,0.20008
0.12688,-0.2074,0.28792,0.22448,0.16104,-0.01708,0.22936,0.52704,0.69296,0.47824,0.34648,0.22936
0.13176,-0.2196,0.30744,0.24156,0.17568,-0.02196,0.22448,0.5368,0.72224,0.50752,0.366,0.23912
0.12688,-0.22448,0.32208,0.25864,0.1952,-0.03416,0.22448,0.5368,0.74176,0.53192,0.38552,0.25864
0.13176,-0.23424,0.33672,0.27084,0.20496,-0.0366,0.21472,0.5368,0.75152,0.55144,0.40016,0.27328
0.13664,-0.244,0.35136,0.28304,0.21472,-0.03904,0.20984,0.52704,0.76128,0.56608,0.4148,0.28792
0.14152,-0.25376,0.366,0.29524,0.22448,-0.04148,0.1952,0.5124,0.76128,0.57584,0.42456,0.29768
0.14152,-0.2562,0.37088,0.30012,0.22936,-0.04392,0.18544,0.488,0.75152,0.57584,0.42944,0.30256
0.14152,-0.25132,0.36112,0.29036,0.2196,-0.03904,0.16592,0.46848,0.732,0.58072,0.42944,0.29768
0.13176,-0.24156,0.35136,0.28548,0.2196,-0.04392,0.1464,0.43432,0.7076,0.57096,0.4148,0.2928
0.13176,-0.24156,0.35136,0.28548,0.2196,-0.04392,0.13176,0.3904,0.67344,0.55144,0.40992,0.28792
0.12688,-0.23424,0.3416,0.27816,0.21472,-0.04392,0.11712,0.35136,0.62464,0.52216,0.3904,0.27816
0.10736,-0.2196,0.33184,0.27816,0.22448,-0.05856,0.0976,0.30744,0.57096,0.48312,0.35624,0.25864
0.09272,-0.19764,0.30256,0.2562,0.20984,-0.05856,0.06832,0.25864,0.49776,0.42456,0.32208,0.22936
0.08296,-0.18056,0.27816,0.23668,0.1952,-0.05612,0.05368,0.21472,0.42944,0.37576,0.27816,0.20496
0.0732,-0.16104,0.24888,0.21228,0.17568,-0.05124,0.03904,0.1708,0.36112,0.3172,0.23912,0.18056
0.06344,-0.14152,0.2196,0.18788,0.15616,-0.04636,0.02928,0.12688,0.28792,0.25376,0.19032,0.1464
0.05368,-0.11468,0.17568,0.14884,0.122,-0.03416,0.01952,0.08296,0.2196,0.19032,0.14152,0.11224
0.03904,-0.0854,0.13176,0.11224,0.09272,-0.02684,0.00976,0.05856,0.16592,0.14152,0.10736,0.08784
0.02928,-0.07564,0.122,0.10736,0.09272,-0.03172,0,0.02928,0.11224,0.09272,0.0732,0.05856
0.0244,-0.061,0.0976,0.0854,0.0732,-0.0244,0,0.00976,0.06832,0.0488,0.04392,0.02928
0.01464,-0.04636,0.07808,0.07076,0.06344,-0.0244,-0.00976,-0.00976,0.02928,0.01464,0.00976,0.00488
0.00488,-0.0244,0.04392,0.04148,0.03904,-0.01708,-0.00976,-0.03904,-0.00488,-0.01952,-0.01464,-0.01464
-0.00488,-0.00488,0.01464,0.01708,0.01952,-0.0122,-0.00976,-0.05368,-0.02928,-0.03904,-0.03416,-0.03416
-0.01464,0.00976,-0.00488,0.00244,0.00976,-0.0122,-0.00488,-0.05856,-0.03904,-0.05368,-0.0488,-0.04392
-0.01952,0.01708,-0.01464,-0.00488,0.00488,-0.0122,-0.00488,-0.06832,-0.05856,-0.0732,-0.05856,-0.0488
-0.02928,0.02684,-0.0244,-0.00976,0.00488,-0.01708,-0.00976,-0.0732,-0.08296,-0.09272,-0.06832,-0.05856
-0.02928,0.0366,-0.04392,-0.02928,-0.01464,-0.00732,-0.01464,-0.07808,-0.08784,-0.0976,-0.07808,-0.06832
-0.02928,0.04148,-0.05368,-0.03904,-0.0244,-0.00244,-0.01464,-0.08296,-0.10248,-0.10736,-0.08296,-0.06832
-0.03904,0.05124,-0.06344,-0.04392,-0.0244,-0.00732,-0.00976,-0.08784,-0.11224,-0.11224,-0.07808,-0.06832
-0.03904,0.05124,-0.06344,-0.04392,-0.0244,-0.00732,-0.00976,-0.08784,-0.122,-0.122,-0.08784,-0.08296
-0.03904,0.05124,-0.06344,-0.04392,-0.0244,-0.00732,-0.01952,-0.09272,-0.12688,-0.12688,-0.0976,-0.08296
-0.03904,0.04636,-0.05368,-0.03416,-0.01464,-0.0122,-0.0244,-0.09272,-0.13176,-0.13176,-0.10248,-0.08296
-0.03904,0.04392,-0.0488,-0.02928,-0.00976,-0.01464,-0.0244,-0.09272,-0.13176,-0.13176,-0.10248,-0.08296
-0.03904,0.04636,-0.05368,-0.03416,-0.01464,-0.0122,-0.01952,-0.09272,-0.13664,-0.13664,-0.10248,-0.08296
-0.03904,0.04636,-0.05368,-0.03416,-0.01464,-0.0122,-0.0244,-0.09272,-0.14152,-0.13664,-0.10736,-0.08784
-0.03904,0.04392,-0.0488,-0.02928,-0.00976,-0.01464,-0.03416,-0.10248,-0.15128,-0.1464,-0.11224,-0.0976
-0.03416,0.03416,-0.03416,-0.01708,0,-0.01708,-0.03416,-0.10248,-0.15128,-0.15128,-0.122,-0.10248
-0.03416,0.03416,-0.03416,-0.01708,0,-0.01708,-0.03416,-0.10248,-0.15616,-0.15128,-0.12688,-0.10736
-0.03416,0.03416,-0.03416,-0.01708,0,-0.01708,-0.03904,-0.11224,-0.16592,-0.15128,-0.13176,-0.11224
-0.03416,0.03172,-0.02928,-0.0122,0.00488,-0.01952,-0.04392,-0.11224,-0.16592,-0.15128,-0.13176,-0.11224
-0.03416,0.03172,-0.02928,-0.0122,0.00488,-0.01952,-0.04392,-0.11224,-0.16592,-0.15616,-0.13664,-0.11224
-0.03416,0.03172,-0.02928,-0.0122,0.00488,-0.01952,-0.04392,-0.122,-0.16592,-0.15616,-0.13664,-0.11224
-0.03416,0.03172,-0.02928,-0.0122,0.00488,-0.01952,-0.04392,-0.12688,-0.1708,-0.16104,-0.13664,-0.11712
-0.03904,0.03416,-0.02928,-0.00976,0.00976,-0.0244,-0.04392,-0.12688,-0.1708,-0.16592,-0.14152,-0.122
-0.04392,0.0366,-0.02928,-0.00732,0.01464,-0.02928,-0.04392,-0.12688,-0.1708,-0.16592,-0.1464,-0.12688
-0.04392,0.03904,-0.03416,-0.0122,0.00976,-0.02684,-0.04392,-0.122,-0.1708,-0.16592,-0.1464,-0.12688
-0.04392,0.03904,-0.03416,-0.0122,0.00976,-0.02684,-0.04392,-0.11712,-0.1708,-0.16592,-0.15128,-0.12688
-0.03904,0.03904,-0.03904,-0.01952,0,-0.01952,-0.03904,-0.11224,-0.1708,-0.16592,-0.1464,-0.122
-0.03416,0.0366,-0.03904,-0.02196,-0.00488,-0.01464,-0.03904,-0.10736,-0.1708,-0.1708,-0.14152,-0.11712
-0.03416,0.03904,-0.04392,-0.02684,-0.00976,-0.0122,-0.03416,-0.10736,-0.1708,-0.1708,-0.14152,-0.122
-0.03416,0.04392,-0.05368,-0.0366,-0.01952,-0.00732,-0.03416,-0.10248,-0.17568,-0.17568,-0.1464,-0.122
-0.03416,0.05124,-0.06832,-0.05124,-0.03416,0,-0.01952,-0.10248,-0.17568,-0.17568,-0.1464,-0.122
-0.03416,0.05856,-0.08296,-0.06588,-0.0488,0.00732,-0.01464,-0.0976,-0.1708,-0.17568,-0.1464,-0.122
-0.03416,0.05856,-0.08296,-0.06588,-0.0488,0.00732,-0.00976,-0.09272,-0.16592,-0.17568,-0.1464,-0.122
-0.03416,0.05612,-0.07808,-0.061,-0.04392,0.00488,-0.00976,-0.08784,-0.16104,-0.1708,-0.1464,-0.12688
-0.03416,0.05856,-0.08296,-0.06588,-0.0488,0.00732,-0.01464,-0.08296,-0.16104,-0.1708,-0.14152,-0.122
-0.03416,0.06344,-0.09272,-0.07564,-0.05856,0.0122,-0.01464,-0.07808,-0.16104,-0.1708,-0.13664,-0.11712
-0.03416,0.07076,-0.10736,-0.09028,-0.0732,0.01952,-0.00488,-0.0732,-0.15616,-0.1708,-0.13664,-0.11224
-0.03904,0.08296,-0.12688,-0.10736,-0.08784,0.0244,0,-0.0732,-0.15128,-0.1708,-0.13664,-0.11224
-0.0488,0.09516,-0.14152,-0.11712,-0.09272,0.02196,0,-0.0732,-0.15616,-0.16104,-0.13176,-0.10736
-0.05856,0.10492,-0.15128,-0.122,-0.09272,0.01708,0,-0.06832,-0.15616,-0.15128,-0.12688,-0.10248
-0.05368,0.10492,-0.15616,-0.12932,-0.10248,0.0244,0.00488,-0.05856,-0.15128,-0.15616,-0.12688,-0.0976
-0.05368,0.10736,-0.16104,-0.1342,-0.10736,0.02684,0.00976,-0.05368,-0.1464,-0.15616,-0.122,-0.0976
-0.0488,0.10492,-0.16104,-0.13664,-0.11224,0.03172,0.00976,-0.05368,-0.14152,-0.15616,-0.122,-0.09272
-0.0488,0.10492,-0.16104,-0.13664,-0.11224,0.03172,0.00976,-0.0488,-0.14152,-0.15128,-0.11712,-0.08784
-0.0488,0.10736,-0.16592,-0.14152,-0.11712,0.03416,0.00976,-0.0488,-0.14152,-0.15128,-0.11712,-0.08784
-0.0488,0.10736,-0.16592,-0.14152,-0.11712,0.03416,0.00488,-0.05368,-0.14152,-0.15128,-0.11712,-0.08784
-0.04392,0.10492,-0.16592,-0.14396,-0.122,0.03904,0.00488,-0.05856,-0.14152,-0.1464,-0.11224,-0.08784
-0.0488,0.10736,-0.16592,-0.14152,-0.11712,0.03416,0.00488,-0.05856,-0.13664,-0.13664,-0.10736,-0.08296
-0.0488,0.10736,-0.16592,-0.14152,-0.11712,0.03416,0.00976,-0.0488,-0.13176,-0.13176,-0.10248,-0.08296
-0.04392,0.10492,-0.16592,-0.14396,-0.122,0.03904,0.00976,-0.0488,-0.12688,-0.13176,-0.10248,-0.07808
-0.03904,0.10248,-0.16592,-0.1464,-0.12688,0.04392,0.00976,-0.0488,-0.12688,-0.13176,-0.10248,-0.07808
-0.03904,0.10004,-0.16104,-0.14152,-0.122,0.04148,0.00976,-0.0488,-0.12688,-0.13176,-0.0976,-0.07808
-0.04392,0.09516,-0.1464,-0.12444,-0.10248,0.02928,0.00976,-0.0488,-0.12688,-0.13664,-0.0976,-0.07808
-0.04392,0.08784,-0.13176,-0.1098,-0.08784,0.02196,0.00976,-0.0488,-0.122,-0.14152,-0.0976,-0.07808
-0.04392,0.08784,-0.13176,-0.1098,-0.08784,0.02196,0.00488,-0.0488,-0.122,-0.13664,-0.10736,-0.08296
-0.04392,0.08784,-0.13176,-0.1098,-0.08784,0.02196,0,-0.0488,-0.122,-0.13664,-0.11224,-0.08296
-0.03904,0.07808,-0.11712,-0.0976,-0.07808,0.01952,-0.00488,-0.05856,-0.12688,-0.13664,-0.10736,-0.08296
-0.03416,0.06832,-0.10248,-0.0854,-0.06832,0.01708,-0.00488,-0.06344,-0.13664,-0.14152,-0.10736,-0.08784
-0.02928,0.06344,-0.0976,-0.08296,-0.06832,0.01952,-0.00488,-0.06344,-0.14152,-0.14152,-0.10736,-0.08784
-0.02928,0.061,-0.09272,-0.07808,-0.06344,0.01708,-0.00488,-0.06344,-0.14152,-0.14152,-0.10736,-0.08784
-0.03416,0.05612,-0.07808,-0.061,-0.04392,0.00488,-0.00976,-0.06344,-0.1464,-0.14152,-0.10736,-0.09272
-0.03416,0.05124,-0.06832,-0.05124,-0.03416,0,-0.00976,-0.06832,-0.15128,-0.14152,-0.10736,-0.09272
-0.03416,0.04392,-0.05368,-0.0366,-0.01952,-0.00732,-0.01464,-0.07808,-0.15616,-0.15128,-0.11224,-0.08784
-0.03416,0.0366,-0.03904,-0.02196,-0.00488,-0.01464,-0.01952,-0.08784,-0.16104,-0.16104,-0.11712,-0.10248
-0.02928,0.03172,-0.03416,-0.01952,-0.00488,-0.0122,-0.0244,-0.08784,-0.16104,-0.15616,-0.122,-0.10248
-0.02928,0.02928,-0.02928,-0.01464,0,-0.01464,-0.0244,-0.09272,-0.16592,-0.15616,-0.12688,-0.10248
-0.03416,0.02684,-0.01952,-0.00244,0.01464,-0.0244,-0.02928,-0.0976,-0.16592,-0.16592,-0.12688,-0.10736
-0.03416,0.02196,-0.00976,0.00732,0.0244,-0.02928,-0.04392,-0.10248,-0.16592,-0.1708,-0.13176,-0.11712
-0.03416,0.01708,0,0.01708,0.03416,-0.03416,-0.0488,-0.11224,-0.18056,-0.17568,-0.14152,-0.122
-0.03416,0.00976,0.01464,0.03172,0.0488,-0.04148,-0.05856,-0.122,-0.19032,-0.18056,-0.15128,-0.12688
-0.03416,0.00244,0.02928,0.04636,0.06344,-0.0488,-0.06344,-0.122,-0.1952,-0.18544,-0.15128,-0.13664
-0.03416,-0.00488,0.04392,0.061,0.07808,-0.05612,-0.06832,-0.12688,-0.1952,-0.19032,-0.15616,-0.14152
-0.03416,-0.00732,0.0488,0.06588,0.08296,-0.05856,-0.06832,-0.12688,-0.20008,-0.1952,-0.16104,-0.14152
-0.03416,-0.00732,0.0488,0.06588,0.08296,-0.05856,-0.06832,-0.13176,-0.20984,-0.1952,-0.16104,-0.14152
-0.03416,-0.00732,0.0488,0.06588,0.08296,-0.05856,-0.0732,-0.13176,-0.20984,-0.1952,-0.16592,-0.14152
-0.03416,-0.00732,0.0488,0.06588,0.08296,-0.05856,-0.07808,-0.13176,-0.20984,-0.20008,-0.1708,-0.14152
-0.04392,-0.00732,0.05856,0.08052,0.10248,-0.0732,-0.07808,-0.14152,-0.20984,-0.20008,-0.1708,-0.1464
-0.04392,-0.0122,0.06832,0.09028,0.11224,-0.07808,-0.08296,-0.1464,-0.20984,-0.20496,-0.1708,-0.1464
-0.03904,-0.01464,0.06832,0.08784,0.10736,-0.0732,-0.08296,-0.15128,-0.2196,-0.20984,-0.1708,-0.1464
-0.03904,-0.01708,0.0732,0.09272,0.11224,-0.07564,-0.08296,-0.15616,-0.22448,-0.21472,-0.1708,-0.1464
-0.03904,-0.01952,0.07808,0.0976,0.11712,-0.07808,-0.08296,-0.15128,-0.22448,-0.21472,-0.17568,-0.1464
-0.03904,-0.01952,0.07808,0.0976,0.11712,-0.07808,-0.08296,-0.15128,-0.22448,-0.21472,-0.17568,-0.15128
-0.03904,-0.02196,0.08296,0.10248,0.122,-0.08052,-0.08296,-0.15128,-0.22448,-0.21472,-0.17568,-0.15128
-0.03416,-0.02684,0.08784,0.10492,0.122,-0.07808,-0.08296,-0.15128,-0.22448,-0.21472,-0.17568,-0.15128
-0.03416,-0.02928,0.09272,0.1098,0.12688,-0.08052,-0.08784,-0.15616,-0.22448,-0.21472,-0.17568,-0.15128
-0.03416,-0.02928,0.09272,0.1098,0.12688,-0.08052,-0.08784,-0.15616,-0.22448,-0.21472,-0.17568,-0.15128
-0.03416,-0.03172,0.0976,0.11468,0.13176,-0.08296,-0.08784,-0.15616,-0.22936,-0.21472,-0.17568,-0.15128
-0.03416,-0.03172,0.0976,0.11468,0.13176,-0.08296,-0.08784,-0.1464,-0.22936,-0.21472,-0.17568,-0.15128
-0.03416,-0.03172,0.0976,0.11468,0.13176,-0.08296,-0.08784,-0.1464,-0.23424,-0.21472,-0.18056,-0.15616
-0.03416,-0.03172,0.0976,0.11468,0.13176,-0.08296,-0.08784,-0.15616,-0.23424,-0.21472,-0.18544,-0.15616
-0.03416,-0.03172,0.0976,0.11468,0.13176,-0.08296,-0.08784,-0.15616,-0.23424,-0.22448,-0.18544,-0.16104
-0.03416,-0.03172,0.0976,0.11468,0.13176,-0.08296,-0.08784,-0.15616,-0.23912,-0.22936,-0.18544,-0.16592
-0.03416,-0.03172,0.0976,0.11468,0.13176,-0.08296,-0.08784,-0.15616,-0.23912,-0.22448,-0.19032,-0.1708
-0.03416,-0.03416,0.10248,0.11956,0.13664,-0.0854,-0.08784,-0.15616,-0.23912,-0.22448,-0.1952,-0.1708
-0.03416,-0.03172,0.0976,0.11468,0.13176,-0.08296,-0.08784,-0.15616,-0.23912,-0.22448,-0.19032,-0.1708
-0.03904,-0.02928,0.0976,0.11712,0.13664,-0.08784,-0.08784,-0.15616,-0.244,-0.22448,-0.19032,-0.1708
-0.04392,-0.0244,0.09272,0.11468,0.13664,-0.09028,-0.08784,-0.15616,-0.244,-0.22936,-0.18544,-0.16592
-0.0488,-0.01952,0.08784,0.11224,0.13664,-0.09272,-0.08784,-0.15616,-0.244,-0.23424,-0.18544,-0.16592
-0.0488,-0.01952,0.08784,0.11224,0.13664,-0.09272,-0.08784,-0.15616,-0.244,-0.22448,-0.18544,-0.16592
-0.0488,-0.01952,0.08784,0.11224,0.13664,-0.09272,-0.08784,-0.15616,-0.244,-0.21472,-0.18544,-0.16592
-0.04392,-0.0244,0.09272,0.11468,0.13664,-0.09028,-0.08296,-0.15128,-0.23424,-0.21472,-0.17568,-0.15616
-0.03904,-0.02928,0.0976,0.11712,0.13664,-0.08784,-0.06832,-0.1464,-0.22448,-0.20496,-0.1708,-0.15128
-0.03904,-0.03172,0.10248,0.122,0.14152,-0.09028,-0.05856,-0.14152,-0.2196,-0.1952,-0.16592,-0.1464
-0.03904,-0.03416,0.10736,0.12688,0.1464,-0.09272,-0.0488,-0.13664,-0.20984,-0.19032,-0.15616,-0.14152
-0.02928,-0.0366,0.10248,0.11712,0.13176,-0.08052,-0.0488,-0.13176,-0.20008,-0.18056,-0.15128,-0.12688
-0.02928,-0.03172,0.09272,0.10736,0.122,-0.07564,-0.03904,-0.122,-0.1952,-0.17568,-0.15128,-0.122
-0.02928,-0.03172,0.09272,0.10736,0.122,-0.07564,-0.03904,-0.11712,-0.1952,-0.16592,-0.14152,-0.11712
-0.02928,-0.03172,0.09272,0.10736,0.122,-0.07564,-0.02928,-0.11712,-0.19032,-0.16592,-0.13664,-0.11224
-0.02928,-0.0244,0.07808,0.09272,0.10736,-0.06832,-0.01952,-0.10736,-0.18056,-0.16104,-0.12688,-0.11224
-0.01952,-0.0244,0.06832,0.07808,0.08784,-0.05368,-0.0244,-0.10736,-0.17568,-0.15616,-0.122,-0.10248
-0.0244,-0.02196,0.06832,0.08052,0.09272,-0.05856,-0.03904,-0.122,-0.1708,-0.1464,-0.11224,-0.08784
-0.02928,-0.0122,0.05368,0.06832,0.08296,-0.05612,-0.05368,-0.122,-0.1708,-0.14152,-0.10248,-0.07808
-0.02928,-0.00488,0.03904,0.05368,0.06832,-0.0488,-0.05368,-0.12688,-0.16592,-0.14152,-0.0976,-0.0732
-0.02928,0.00732,0.01464,0.02928,0.04392,-0.0366,-0.05856,-0.122,-0.1708,-0.13664,-0.09272,-0.06344
-0.0244,0.01708,-0.00976,0.00244,0.01464,-0.01952,-0.0488,-0.11224,-0.16104,-0.122,-0.07808,-0.0488
-0.01952,0.02196,-0.0244,-0.01464,-0.00488,-0.00732,-0.03904,-0.10248,-0.1464,-0.10736,-0.05856,-0.02928
-0.01952,0.03416,-0.0488,-0.03904,-0.02928,0.00488,-0.03416,-0.09272,-0.13664,-0.09272,-0.04392,-0.01952
-0.00976,0.0488,-0.08784,-0.08296,-0.07808,0.03416,-0.02928,-0.07808,-0.12688,-0.08784,-0.03416,-0.00488
-0.00976,0.061,-0.11224,-0.10736,-0.10248,0.04636,-0.02928,-0.0732,-0.11712,-0.07808,-0.03416,0
-0.00488,0.07564,-0.1464,-0.14396,-0.14152,0.06832,-0.02928,-0.06832,-0.10248,-0.06832,-0.0244,0.00488
0,0.08052,-0.16104,-0.16104,-0.16104,0.08052,-0.00976,-0.0488,-0.08784,-0.05856,-0.01464,0.0244
-0.00976,0.0976,-0.18544,-0.18056,-0.17568,0.08296,0.00488,-0.03904,-0.08296,-0.0488,-0.00488,0.0244
-0.0244,0.122,-0.2196,-0.2074,-0.1952,0.0854,0.01464,-0.04392,-0.09272,-0.06344,-0.01952,0.00976
-0.03416,0.14396,-0.25376,-0.23668,-0.2196,0.09272,0.01952,-0.0488,-0.10736,-0.08296,-0.03416,-0.00976
-0.0488,0.16348,-0.27816,-0.25376,-0.22936,0.09028,0.0244,-0.04392,-0.11224,-0.09272,-0.03904,-0.01464
-0.05856,0.183,-0.30744,-0.27816,-0.24888,0.09516,0.02928,-0.03904,-0.122,-0.0976,-0.0488,-0.01952
-0.0488,0.18544,-0.32208,-0.29768,-0.27328,0.11224,0.03416,-0.03416,-0.12688,-0.09272,-0.05368,-0.0244
-0.05856,0.19764,-0.33672,-0.30744,-0.27816,0.1098,0.03416,-0.0244,-0.12688,-0.09272,-0.05368,-0.02928
-0.05368,0.20252,-0.35136,-0.32452,-0.29768,0.122,0.03416,-0.0244,-0.12688,-0.09272,-0.05368,-0.02928
-0.0488,0.20496,-0.36112,-0.33672,-0.31232,0.13176,0.03416,-0.0244,-0.12688,-0.0976,-0.0488,-0.02928
-0.05368,0.2074,-0.36112,-0.33428,-0.30744,0.12688,0.03416,-0.02928,-0.12688,-0.0976,-0.0488,-0.03416
-0.05368,0.20984,-0.366,-0.33916,-0.31232,0.12932,0.03416,-0.02928,-0.12688,-0.0976,-0.05368,-0.03416
-0.0488,0.2074,-0.366,-0.3416,-0.3172,0.1342,0.03904,-0.02928,-0.12688,-0.0976,-0.05856,-0.03416
-0.04392,0.21228,-0.38064,-0.35868,-0.33672,0.1464,0.03904,-0.0244,-0.12688,-0.0976,-0.06344,-0.03416
-0.04392,0.21228,-0.38064,-0.35868,-0.33672,0.1464,0.04392,-0.01952,-0.12688,-0.0976,-0.06344,-0.03416
-0.04392,0.20984,-0.37576,-0.3538,-0.33184,0.14396,0.05368,-0.01952,-0.12688,-0.0976,-0.06344,-0.03416
-0.04392,0.20984,-0.37576,-0.3538,-0.33184,0.14396,0.05368,-0.01952,-0.122,-0.10248,-0.05856,-0.03416
-0.0488,0.21716,-0.38552,-0.36112,-0.33672,0.14396,0.05368,-0.01952,-0.122,-0.10736,-0.05856,-0.03904
-0.0488,0.21716,-0.38552,-0.36112,-0.33672,0.14396,0.05856,-0.01464,-0.122,-0.10736,-0.05856,-0.03904
-0.0488,0.21716,-0.38552,-0.36112,-0.33672,0.14396,0.05856,-0.01464,-0.122,-0.10736,-0.05856,-0.03904
-0.0488,0.21472,-0.38064,-0.35624,-0.33184,0.14152,0.05856,-0.01952,-0.12688,-0.11224,-0.06344,-0.03904
-0.05368,0.20984,-0.366,-0.33916,-0.31232,0.12932,0.06832,-0.0244,-0.13176,-0.11712,-0.06344,-0.03904
-0.05856,0.19276,-0.32696,-0.29768,-0.2684,0.10492,0.06832,-0.02928,-0.13176,-0.11224,-0.0732,-0.04392
-0.0488,0.15372,-0.25864,-0.23424,-0.20984,0.08052,0.07808,0,-0.06832,-0.0488,-0.02928,-0.00976
-0.03904,0.11224,-0.18544,-0.16592,-0.1464,0.05368,0.13664,0.11712,0.10248,0.06832,0.05856,0.0488
0.00488,0.05124,-0.10736,-0.1098,-0.11224,0.05856,0.19032,0.25376,0.30256,0.22936,0.18056,0.13176
0.05368,-0.02684,0,-0.02684,-0.05368,0.05368,0.10736,0.24888,0.42456,0.40016,0.3172,0.23424
0.122,-0.14396,0.16592,0.10492,0.04392,0.03904,-0.05856,0.15128,0.55632,0.63928,0.52216,0.40992
0.1708,-0.29036,0.40992,0.32452,0.23912,-0.03416,-0.28304,-0.06344,0.72224,0.98576,0.81984,0.63928
0.24888,-0.43676,0.62464,0.5002,0.37576,-0.06344,-0.60512,-0.23912,0.94672,1.3908,1.1468,0.89792
0.3416,-0.48556,0.62952,0.45872,0.28792,0.02684,-0.8784,-0.33184,1.06384,1.60552,1.33224,1.03944
0.37088,-0.49044,0.61,0.42456,0.23912,0.06588,-1.0736,-0.50264,0.93696,1.51768,1.28832,1.04432
0.32208,-0.32208,0.32208,0.16104,0,0.16104,-1.09312,-0.61488,0.62952,1.11264,0.96136,0.8296
0.25864,-0.20984,0.16104,0.03172,-0.0976,0.17812,-1.0736,-0.732,0.1952,0.64904,0.62464,0.60512
0.13176,-0.05856,-0.01464,-0.08052,-0.1464,0.13908,-0.95648,-0.78568,-0.35136,0.07808,0.20984,0.33672
0.00488,0.06832,-0.14152,-0.14396,-0.1464,0.07564,-0.76616,-0.76128,-0.69296,-0.33184,-0.10736,0.09272
-0.03416,0.07808,-0.122,-0.10492,-0.08784,0.02684,-0.55632,-0.61976,-0.64904,-0.34648,-0.15616,0.0244
-0.04392,0.05856,-0.0732,-0.05124,-0.02928,-0.00732,-0.39528,-0.4636,-0.44896,-0.23912,-0.0976,0.03904
-0.04392,0.05368,-0.06344,-0.04148,-0.01952,-0.0122,-0.27816,-0.32208,-0.32696,-0.18544,-0.07808,0.01464
-0.04392,0.05856,-0.0732,-0.05124,-0.02928,-0.00732,-0.17568,-0.20984,-0.23424,-0.14152,-0.06832,-0.00976
-0.03416,0.06588,-0.0976,-0.08052,-0.06344,0.01464,-0.10248,-0.13176,-0.1708,-0.11712,-0.06344,-0.01464
-0.02928,0.06832,-0.10736,-0.09272,-0.07808,0.0244,-0.0488,-0.0732,-0.12688,-0.10248,-0.06832,-0.0244
-0.02928,0.06588,-0.10248,-0.08784,-0.0732,0.02196,-0.01952,-0.03416,-0.09272,-0.09272,-0.05856,-0.03416
-0.0244,0.05856,-0.09272,-0.08052,-0.06832,0.02196,-0.00976,-0.00488,-0.06832,-0.0732,-0.0488,-0.03904
-0.01952,0.05612,-0.09272,-0.08296,-0.0732,0.02684,-0.00976,0.00976,-0.06344,-0.06344,-0.05368,-0.03904
-0.01952,0.05612,-0.09272,-0.08296,-0.0732,0.02684,0,0.00976,-0.06344,-0.06344,-0.05856,-0.0488
-0.0244,0.05612,-0.08784,-0.07564,-0.06344,0.01952,0.00976,0.00976,-0.06344,-0.0732,-0.06344,-0.0488
-0.0244,0.05124,-0.07808,-0.06588,-0.05368,0.01464,0.01952,0.01952,-0.05368,-0.08296,-0.06344,-0.0488
-0.01952,0.04148,-0.06344,-0.05368,-0.04392,0.0122,0.03416,0.02928,-0.0488,-0.07808,-0.05856,-0.05856
-0.01952,0.0366,-0.05368,-0.04392,-0.03416,0.00732,0.04392,0.03416,-0.05368,-0.07808,-0.06344,-0.06832
-0.01464,0.03172,-0.0488,-0.04148,-0.03416,0.00976,0.04392,0.02928,-0.0488,-0.07808,-0.06832,-0.0732
-0.01464,0.02928,-0.04392,-0.0366,-0.02928,0.00732,0.03904,0.02928,-0.0488,-0.08296,-0.0732,-0.07808
-0.01464,0.0244,-0.03416,-0.02684,-0.01952,0.00244,0.03904,0.03904,-0.03416,-0.0732,-0.0732,-0.0732
-0.01464,0.01952,-0.0244,-0.01708,-0.00976,-0.00244,0.03904,0.04392,-0.02928,-0.06832,-0.0732,-0.0732
-0.01464,0.01952,-0.0244,-0.01708,-0.00976,-0.00244,0.0488,0.04392,-0.0244,-0.06344,-0.0732,-0.0732
-0.01952,0.01708,-0.01464,-0.00488,0.00488,-0.0122,0.05368,0.05368,-0.01464,-0.06344,-0.0732,-0.0732
-0.01464,0.00976,-0.00488,0.00244,0.00976,-0.0122,0.06344,0.06344,0,-0.05856,-0.05856,-0.0732
-0.00488,-0.00488,0.01464,0.01708,0.01952,-0.0122,0.06832,0.07808,0.00488,-0.05368,-0.05368,-0.0732
-0.00488,0,0.00488,0.00732,0.00976,-0.00732,0.06832,0.08296,0,-0.05368,-0.05368,-0.06832
-0.00488,0,0.00488,0.00732,0.00976,-0.00732,0.0732,0.08784,0.00976,-0.0488,-0.05368,-0.06832
-0.00976,-0.00488,0.01952,0.0244,0.02928,-0.01952,0.0732,0.0976,0.01952,-0.04392,-0.05368,-0.05856
-0.01464,-0.00244,0.01952,0.02684,0.03416,-0.0244,0.0732,0.10736,0.02928,-0.03416,-0.0488,-0.05856
-0.01464,-0.00732,0.02928,0.0366,0.04392,-0.02928,0.0732,0.10248,0.03904,-0.03416,-0.04392,-0.05368
0,-0.01708,0.03416,0.03416,0.03416,-0.01708,0.0732,0.10248,0.04392,-0.03416,-0.04392,-0.05368
0,-0.01952,0.03904,0.03904,0.03904,-0.01952,0.07808,0.11224,0.05856,-0.0244,-0.03904,-0.05368
-0.00488,-0.01952,0.04392,0.04636,0.0488,-0.02684,0.07808,0.11712,0.06832,-0.01464,-0.02928,-0.0488
0,-0.02196,0.04392,0.04392,0.04392,-0.02196,0.07808,0.12688,0.07808,-0.00488,-0.0244,-0.05368
0.00976,-0.02928,0.0488,0.04392,0.03904,-0.01464,0.08784,0.13176,0.08784,0.00488,-0.01952,-0.0488
0.00976,-0.03416,0.05856,0.05368,0.0488,-0.01952,0.09272,0.13664,0.10248,0.00976,-0.00976,-0.0488
0.00976,-0.0366,0.06344,0.05856,0.05368,-0.02196,0.0976,0.15128,0.12688,0.02928,0.00488,-0.03416
0.01464,-0.03904,0.06344,0.05612,0.0488,-0.01708,0.11224,0.16592,0.14152,0.03904,0.00976,-0.03416
0.01952,-0.04148,0.06344,0.05368,0.04392,-0.0122,0.11712,0.18544,0.16592,0.05368,0.01464,-0.02928
0.01952,-0.04392,0.06832,0.05856,0.0488,-0.01464,0.13664,0.20496,0.19032,0.0732,0.02928,-0.02928
0.0244,-0.0488,0.0732,0.061,0.0488,-0.0122,0.1464,0.23424,0.21472,0.09272,0.04392,-0.01464
0.01952,-0.05368,0.08784,0.07808,0.06832,-0.0244,0.15616,0.25376,0.244,0.11224,0.05368,0
0.0244,-0.061,0.0976,0.0854,0.0732,-0.0244,0.1708,0.27328,0.2684,0.13176,0.06832,0.00976
0.0244,-0.061,0.0976,0.0854,0.0732,-0.0244,0.18544,0.29768,0.30256,0.1464,0.07808,0.0244
0.02928,-0.06832,0.10736,0.09272,0.07808,-0.0244,0.20008,0.32208,0.33184,0.16592,0.0976,0.03904
0.03904,-0.07808,0.11712,0.0976,0.07808,-0.01952,0.21472,0.35624,0.366,0.19032,0.122,0.0488
0.04392,-0.0854,0.12688,0.10492,0.08296,-0.01952,0.22448,0.37576,0.40016,0.2196,0.14152,0.06344
0.0488,-0.0854,0.122,0.0976,0.0732,-0.0122,0.244,0.40504,0.43432,0.24888,0.15616,0.0732
0.05856,-0.09028,0.122,0.09272,0.06344,-0.00244,0.25864,0.44408,0.46848,0.2684,0.1708,0.09272
0.06344,-0.10004,0.13664,0.10492,0.0732,-0.00488,0.27328,0.46848,0.50752,0.30744,0.20496,0.11224
0.06832,-0.1098,0.15128,0.11712,0.08296,-0.00732,0.27816,0.488,0.55144,0.35136,0.23912,0.13664
0.06832,-0.11468,0.16104,0.12688,0.09272,-0.0122,0.28792,0.51728,0.59048,0.3904,0.2684,0.15616
0.0732,-0.12444,0.17568,0.13908,0.10248,-0.01464,0.2928,0.54168,0.6344,0.41968,0.2928,0.17568
0.08784,-0.13664,0.18544,0.14152,0.0976,-0.00488,0.28792,0.55144,0.66368,0.44408,0.31232,0.19032
0.0976,-0.14884,0.20008,0.15128,0.10248,-0.00244,0.28792,0.56608,0.69296,0.47824,0.34648,0.2196
0.10736,-0.16348,0.2196,0.16592,0.11224,-0.00244,0.28304,0.57584,0.72224,0.5124,0.37088,0.23424
0.10736,-0.1708,0.23424,0.18056,0.12688,-0.00976,0.28304,0.57584,0.74176,0.54168,0.39528,0.25864
0.11224,-0.18056,0.24888,0.19276,0.13664,-0.0122,0.27328,0.58072,0.7564,0.5612,0.40992,0.27328
0.11712,-0.19032,0.26352,0.20496,0.1464,-0.01464,0.2684,0.57584,0.77104,0.57584,0.42456,0.28792
0.122,-0.20008,0.27816,0.21716,0.15616,-0.01708,0.25376,0.5612,0.77592,0.59048,0.43432,0.29768
0.122,-0.20252,0.28304,0.22204,0.16104,-0.01952,0.244,0.5368,0.77104,0.59536,0.4392,0.30256
0.12688,-0.2074,0.28792,0.22448,0.16104,-0.01708,0.22448,0.51728,0.7564,0.59536,0.44408,0.30256
0.122,-0.2074,0.2928,0.2318,0.1708,-0.0244,0.20496,0.48312,0.73688,0.58072,0.43432,0.30256
0.12688,-0.20984,0.2928,0.22936,0.16592,-0.01952,0.18056,0.4392,0.70272,0.56608,0.43432,0.29768
0.12688,-0.20496,0.28304,0.2196,0.15616,-0.01464,0.15616,0.40016,0.65392,0.54168,0.41968,0.28792
0.11224,-0.1952,0.27816,0.22204,0.16592,-0.02684,0.13664,0.35136,0.60024,0.50264,0.38552,0.2684
0.10248,-0.17812,0.25376,0.20252,0.15128,-0.0244,0.10736,0.29768,0.52704,0.44408,0.35136,0.23912
0.08784,-0.1586,0.22936,0.18544,0.14152,-0.02684,0.09272,0.25376,0.45384,0.39528,0.30744,0.20984
0.0732,-0.13664,0.20008,0.16348,0.12688,-0.02684,0.07808,0.20984,0.38064,0.33672,0.2684,0.18056
0.05856,-0.11712,0.17568,0.1464,0.11712,-0.02928,0.06344,0.16592,0.30744,0.27328,0.2196,0.1464
0.04392,-0.09028,0.13664,0.11468,0.09272,-0.0244,0.0488,0.122,0.23912,0.20984,0.1708,0.11224
0.0244,-0.05856,0.09272,0.08052,0.06832,-0.02196,0.03904,0.09272,0.18544,0.16104,0.13176,0.08784
0.00976,-0.04636,0.08296,0.07808,0.0732,-0.03172,0.02928,0.05856,0.13176,0.11224,0.09272,0.05856
0.00488,-0.03416,0.06344,0.061,0.05856,-0.02684,0.02928,0.03904,0.08784,0.06832,0.06344,0.0244
-0.00488,-0.02196,0.0488,0.05124,0.05368,-0.02928,0.01952,0.01952,0.0488,0.03416,0.02928,-0.00488
-0.00976,-0.00976,0.02928,0.03416,0.03904,-0.0244,0.00976,-0.01464,0.00488,-0.00488,0,-0.01952
-0.01464,0,0.01464,0.02196,0.02928,-0.02196,0,-0.03416,-0.02928,-0.02928,-0.0244,-0.03416
-0.01952,0.00732,0.00488,0.01464,0.0244,-0.02196,0,-0.04392,-0.04392,-0.04392,-0.03904,-0.0488
-0.01952,0.00732,0.00488,0.01464,0.0244,-0.02196,-0.00488,-0.05856,-0.06832,-0.06344,-0.0488,-0.05856
-0.02928,0.0122,0.00488,0.01952,0.03416,-0.03172,-0.00976,-0.06344,-0.0976,-0.09272,-0.06832,-0.07808
-0.02928,0.01708,-0.00488,0.00976,0.0244,-0.02684,-0.01464,-0.06832,-0.10736,-0.10736,-0.08784,-0.0976
-0.02928,0.01952,-0.00976,0.00488,0.01952,-0.0244,-0.01464,-0.07808,-0.122,-0.122,-0.0976,-0.0976
-0.03904,0.02684,-0.01464,0.00488,0.0244,-0.03172,-0.00976,-0.08784,-0.13176,-0.13176,-0.0976,-0.0976
-0.03904,0.02684,-0.01464,0.00488,0.0244,-0.03172,-0.00976,-0.08784,-0.1464,-0.14152,-0.11224,-0.11224
-0.03904,0.02684,-0.01464,0.00488,0.0244,-0.03172,-0.01952,-0.09272,-0.15616,-0.1464,-0.12688,-0.11224
-0.03904,0.02196,-0.00488,0.01464,0.03416,-0.0366,-0.02928,-0.0976,-0.16104,-0.15616,-0.13176,-0.11712
-0.03904,0.01952,0,0.01952,0.03904,-0.03904,-0.03416,-0.10248,-0.16104,-0.16104,-0.13176,-0.122
-0.03904,0.01952,0,0.01952,0.03904,-0.03904,-0.0244,-0.10248,-0.16592,-0.16592,-0.13176,-0.122
-0.03904,0.01708,0.00488,0.0244,0.04392,-0.04148,-0.0244,-0.10248,-0.1708,-0.16592,-0.13664,-0.12688
-0.04392,0.02196,0,0.02196,0.04392,-0.04392,-0.03416,-0.11224,-0.18056,-0.1708,-0.13664,-0.13176
-0.04392,0.01952,0.00488,0.02684,0.0488,-0.04636,-0.03416,-0.11224,-0.18056,-0.1708,-0.14152,-0.13176
-0.04392,0.01952,0.00488,0.02684,0.0488,-0.04636,-0.03416,-0.11224,-0.18056,-0.1708,-0.14152,-0.13176
-0.04392,0.01952,0.00488,0.02684,0.0488,-0.04636,-0.03904,-0.122,-0.18544,-0.1708,-0.14152,-0.13176
-0.03904,0.01464,0.00976,0.02928,0.0488,-0.04392,-0.03904,-0.122,-0.18544,-0.1708,-0.14152,-0.13176
-0.03416,0.0122,0.00976,0.02684,0.04392,-0.03904,-0.03416,-0.122,-0.18544,-0.17568,-0.1464,-0.13176
-0.03416,0.0122,0.00976,0.02684,0.04392,-0.03904,-0.03416,-0.122,-0.18544,-0.1708,-0.1464,-0.13176
-0.03416,0.0122,0.00976,0.02684,0.04392,-0.03904,-0.03416,-0.11712,-0.19032,-0.1708,-0.1464,-0.13664
-0.03416,0.0122,0.00976,0.02684,0.04392,-0.03904,-0.03416,-0.11712,-0.19032,-0.17568,-0.1464,-0.13664
-0.03416,0.0122,0.00976,0.02684,0.04392,-0.03904,-0.03416,-0.11712,-0.19032,-0.17568,-0.1464,-0.13664
-0.03416,0.01464,0.00488,0.02196,0.03904,-0.0366,-0.03416,-0.11712,-0.19032,-0.17568,-0.1464,-0.13664
-0.03416,0.01464,0.00488,0.02196,0.03904,-0.0366,-0.03416,-0.11712,-0.19032,-0.17568,-0.15128,-0.13664
-0.03416,0.02196,-0.00976,0.00732,0.0244,-0.02928,-0.0244,-0.10736,-0.18544,-0.17568,-0.1464,-0.13664
-0.03416,0.02684,-0.01952,-0.00244,0.01464,-0.0244,-0.01952,-0.0976,-0.18056,-0.18056,-0.14152,-0.13664
-0.03416,0.02684,-0.01952,-0.00244,0.01464,-0.0244,-0.01464,-0.0976,-0.18056,-0.17568,-0.14152,-0.14152
-0.03416,0.02928,-0.0244,-0.00732,0.00976,-0.02196,-0.01464,-0.09272,-0.18544,-0.17568,-0.1464,-0.14152
-0.03416,0.03416,-0.03416,-0.01708,0,-0.01708,-0.00488,-0.09272,-0.18544,-0.17568,-0.1464,-0.14152
-0.03416,0.03904,-0.04392,-0.02684,-0.00976,-0.0122,-0.00488,-0.08784,-0.18056,-0.17568,-0.1464,-0.14152
-0.03416,0.04636,-0.05856,-0.04148,-0.0244,-0.00488,0,-0.08296,-0.1708,-0.17568,-0.1464,-0.13664
-0.03416,0.05124,-0.06832,-0.05124,-0.03416,0,0,-0.07808,-0.16104,-0.1708,-0.1464,-0.13664
-0.03416,0.05368,-0.0732,-0.05612,-0.03904,0.00244,0,-0.0732,-0.16104,-0.1708,-0.14152,-0.13176
-0.03416,0.05856,-0.08296,-0.06588,-0.0488,0.00732,0.00488,-0.06832,-0.16104,-0.1708,-0.13664,-0.12688
-0.03416,0.06344,-0.09272,-0.07564,-0.05856,0.0122,0.01464,-0.05856,-0.15616,-0.16592,-0.13176,-0.11712
-0.03904,0.0732,-0.10736,-0.08784,-0.06832,0.01464,0.01952,-0.05368,-0.15128,-0.16104,-0.12688,-0.11224
-0.03904,0.08052,-0.122,-0.10248,-0.08296,0.02196,0.01952,-0.0488,-0.15128,-0.16104,-0.12688,-0.11224
-0.03904,0.0854,-0.13176,-0.11224,-0.09272,0.02684,0.01952,-0.03904,-0.1464,-0.16104,-0.12688,-0.11224
-0.03416,0.08296,-0.13176,-0.11468,-0.0976,0.03172,0.01952,-0.03904,-0.1464,-0.16592,-0.12688,-0.10736
-0.03416,0.08296,-0.13176,-0.11468,-0.0976,0.03172,0.01952,-0.04392,-0.1464,-0.16592,-0.122,-0.10736
-0.03416,0.09028,-0.1464,-0.12932,-0.11224,0.03904,0.0244,-0.04392,-0.14152,-0.16104,-0.122,-0.10248
-0.03904,0.10004,-0.16104,-0.14152,-0.122,0.04148,0.02928,-0.03904,-0.14152,-0.15128,-0.11712,-0.0976
-0.03904,0.10248,-0.16592,-0.1464,-0.12688,0.04392,0.02928,-0.03904,-0.14152,-0.15128,-0.11712,-0.0976
-0.03904,0.10248,-0.16592,-0.1464,-0.12688,0.04392,0.0244,-0.04392,-0.14152,-0.15128,-0.11712,-0.0976
-0.03904,0.10492,-0.1708,-0.15128,-0.13176,0.04636,0.02928,-0.0488,-0.14152,-0.15128,-0.11224,-0.0976
-0.0488,0.11224,-0.17568,-0.15128,-0.12688,0.03904,0.03416,-0.0488,-0.13664,-0.1464,-0.10736,-0.09272
-0.0488,0.11224,-0.17568,-0.15128,-0.12688,0.03904,0.03416,-0.03904,-0.13664,-0.14152,-0.10248,-0.09272
-0.04392,0.1098,-0.17568,-0.15372,-0.13176,0.04392,0.02928,-0.03904,-0.13664,-0.14152,-0.10248,-0.08784
-0.03904,0.10736,-0.17568,-0.15616,-0.13664,0.0488,0.02928,-0.03904,-0.13664,-0.14152,-0.10248,-0.08296
-0.03904,0.10492,-0.1708,-0.15128,-0.13176,0.04636,0.02928,-0.03904,-0.13664,-0.14152,-0.0976,-0.07808
-0.04392,0.10736,-0.1708,-0.14884,-0.12688,0.04148,0.02928,-0.03904,-0.13664,-0.14152,-0.0976,-0.07808
-0.04392,0.10736,-0.1708,-0.14884,-0.12688,0.04148,0.02928,-0.03904,-0.13176,-0.14152,-0.0976,-0.07808
-0.04392,0.10736,-0.1708,-0.14884,-0.12688,0.04148,0.02928,-0.03904,-0.13176,-0.13664,-0.0976,-0.07808
-0.04392,0.10736,-0.1708,-0.14884,-0.12688,0.04148,0.02928,-0.03904,-0.13176,-0.13664,-0.09272,-0.0732
-0.04392,0.10492,-0.16592,-0.14396,-0.122,0.03904,0.0244,-0.04392,-0.12688,-0.13176,-0.08784,-0.06832
-0.04392,0.10248,-0.16104,-0.13908,-0.11712,0.0366,0.0244,-0.04392,-0.12688,-0.13176,-0.08784,-0.06832
-0.03904,0.0976,-0.15616,-0.13664,-0.11712,0.03904,0.0244,-0.04392,-0.13176,-0.13176,-0.08784,-0.06832
-0.03904,0.09516,-0.15128,-0.13176,-0.11224,0.0366,0.0244,-0.04392,-0.13176,-0.13176,-0.08784,-0.06832
-0.04392,0.09516,-0.1464,-0.12444,-0.10248,0.02928,0.01952,-0.04392,-0.13176,-0.13176,-0.08784,-0.07808
-0.04392,0.09516,-0.1464,-0.12444,-0.10248,0.02928,0.01952,-0.0488,-0.13176,-0.13176,-0.08784,-0.08296
-0.04392,0.09272,-0.14152,-0.11956,-0.0976,0.02684,0.01952,-0.0488,-0.13664,-0.13176,-0.08784,-0.0732
-0.04392,0.09028,-0.13664,-0.11468,-0.09272,0.0244,0.01952,-0.0488,-0.14152,-0.13176,-0.08784,-0.08296
-0.03416,0.07808,-0.122,-0.10492,-0.08784,0.02684,0.01464,-0.0488,-0.14152,-0.12688,-0.09272,-0.08296
-0.02928,0.06832,-0.10736,-0.09272,-0.07808,0.0244,0.01464,-0.05368,-0.1464,-0.12688,-0.0976,-0.08296
-0.03416,0.07076,-0.10736,-0.09028,-0.0732,0.01952,0.01464,-0.05856,-0.1464,-0.13176,-0.0976,-0.08296
-0.03416,0.07076,-0.10736,-0.09028,-0.0732,0.01952,0.00488,-0.06344,-0.1464,-0.13176,-0.10248,-0.08784
-0.03416,0.07076,-0.10736,-0.09028,-0.0732,0.01952,0,-0.06832,-0.15128,-0.13664,-0.10248,-0.08784
-0.03416,0.06832,-0.10248,-0.0854,-0.06832,0.01708,-0.00976,-0.0732,-0.15128,-0.14152,-0.10248,-0.08784
-0.03904,0.06832,-0.0976,-0.07808,-0.05856,0.00976,-0.00976,-0.0732,-0.16104,-0.1464,-0.10248,-0.09272
-0.04392,0.06832,-0.09272,-0.07076,-0.0488,0.00244,-0.00976,-0.07808,-0.16592,-0.15128,-0.10736,-0.09272
-0.04392,0.06344,-0.08296,-0.061,-0.03904,-0.00244,-0.00976,-0.07808,-0.1708,-0.15616,-0.11224,-0.09272
-0.04392,0.061,-0.07808,-0.05612,-0.03416,-0.00488,-0.00976,-0.08296,-0.18056,-0.15616,-0.11224,-0.09272
-0.04392,0.05856,-0.0732,-0.05124,-0.02928,-0.00732,-0.00976,-0.08296,-0.18056,-0.15616,-0.11224,-0.09272
-0.04392,0.05612,-0.06832,-0.04636,-0.0244,-0.00976,-0.00976,-0.08296,-0.18056,-0.16104,-0.11224,-0.09272
-0.05368,0.061,-0.06832,-0.04148,-0.01464,-0.01952,-0.01464,-0.09272,-0.18056,-0.16104,-0.122,-0.10248
-0.05368,0.061,-0.06832,-0.04148,-0.01464,-0.01952,-0.0244,-0.0976,-0.18056,-0.16592,-0.13176,-0.10736
-0.0488,0.05612,-0.06344,-0.03904,-0.01464,-0.01708,-0.0244,-0.10248,-0.18544,-0.16592,-0.13176,-0.10736
-0.0488,0.05124,-0.05368,-0.02928,-0.00488,-0.02196,-0.0244,-0.10736,-0.18544,-0.16592,-0.13176,-0.10736
-0.04392,0.0488,-0.05368,-0.03172,-0.00976,-0.01708,-0.0244,-0.10248,-0.18544,-0.16592,-0.13664,-0.10736
-0.03904,0.0488,-0.05856,-0.03904,-0.01952,-0.00976,-0.0244,-0.10248,-0.18544,-0.16592,-0.13664,-0.11224
-0.03904,0.05124,-0.06344,-0.04392,-0.0244,-0.00732,-0.01952,-0.0976,-0.18544,-0.16592,-0.13176,-0.10736
-0.03416,0.05124,-0.06832,-0.05124,-0.03416,0,-0.01464,-0.09272,-0.18544,-0.16592,-0.12688,-0.10248
-0.03416,0.05124,-0.06832,-0.05124,-0.03416,0,-0.01464,-0.0976,-0.18056,-0.16592,-0.122,-0.10248
-0.03416,0.05368,-0.0732,-0.05612,-0.03904,0.00244,-0.00976,-0.0976,-0.17568,-0.16592,-0.11712,-0.10248
-0.03416,0.061,-0.08784,-0.07076,-0.05368,0.00976,-0.00488,-0.0976,-0.17568,-0.16592,-0.11712,-0.10248
-0.03416,0.07076,-0.10736,-0.09028,-0.0732,0.01952,0,-0.08784,-0.1708,-0.16592,-0.11712,-0.10248
-0.03904,0.08052,-0.122,-0.10248,-0.08296,0.02196,0,-0.08296,-0.1708,-0.15616,-0.11224,-0.0976
-0.04392,0.09028,-0.13664,-0.11468,-0.09272,0.0244,0,-0.08784,-0.16592,-0.1464,-0.10736,-0.08784
-0.04392,0.09272,-0.14152,-0.11956,-0.0976,0.02684,0.00488,-0.08784,-0.16104,-0.15128,-0.10736,-0.08296
-0.04392,0.09516,-0.1464,-0.12444,-0.10248,0.02928,0.00976,-0.08784,-0.16104,-0.15128,-0.10736,-0.07808
-0.03904,0.09272,-0.1464,-0.12688,-0.10736,0.03416,0.00976,-0.08296,-0.16104,-0.14152,-0.10248,-0.08296
-0.03416,0.08784,-0.14152,-0.12444,-0.10736,0.0366,0.00976,-0.07808,-0.16104,-0.13664,-0.0976,-0.08296
-0.03416,0.09028,-0.1464,-0.12932,-0.11224,0.03904,0.00488,-0.07808,-0.16104,-0.13664,-0.0976,-0.07808
-0.03416,0.09272,-0.15128,-0.1342,-0.11712,0.04148,0.00488,-0.08296,-0.16104,-0.14152,-0.0976,-0.0732
-0.03904,0.0976,-0.15616,-0.13664,-0.11712,0.03904,0.00976,-0.08296,-0.16104,-0.14152,-0.0976,-0.0732
-0.04392,0.10492,-0.16592,-0.14396,-0.122,0.03904,0.00976,-0.07808,-0.16592,-0.14152,-0.0976,-0.0732
-0.04392,0.10492,-0.16592,-0.14396,-0.122,0.03904,0.00488,-0.07808,-0.16592,-0.13664,-0.0976,-0.0732
-0.0488,0.10736,-0.16592,-0.14152,-0.11712,0.03416,0,-0.07808,-0.16592,-0.13664,-0.0976,-0.07808
-0.04392,0.10004,-0.15616,-0.1342,-0.11224,0.03416,0,-0.08296,-0.1708,-0.14152,-0.10248,-0.08296
-0.03904,0.09272,-0.1464,-0.12688,-0.10736,0.03416,0,-0.08784,-0.17568,-0.1464,-0.10736,-0.08784
-0.03904,0.08784,-0.13664,-0.11712,-0.0976,0.02928,-0.00488,-0.08784,-0.17568,-0.1464,-0.10736,-0.08784
-0.03904,0.08052,-0.122,-0.10248,-0.08296,0.02196,0,-0.08784,-0.1708,-0.1464,-0.10736,-0.08296
-0.04392,0.07808,-0.11224,-0.09028,-0.06832,0.0122,0.00488,-0.09272,-0.16592,-0.1464,-0.10736,-0.08296
-0.0488,0.07564,-0.10248,-0.07808,-0.05368,0.00244,0.00976,-0.09272,-0.16104,-0.13664,-0.10736,-0.08784
-0.0488,0.06344,-0.07808,-0.05368,-0.02928,-0.00976,0.00976,-0.08784,-0.15128,-0.13176,-0.0976,-0.08296
-0.03904,0.0488,-0.05856,-0.03904,-0.01952,-0.00976,0.00976,-0.08784,-0.1464,-0.12688,-0.09272,-0.0732
-0.03416,0.03416,-0.03416,-0.01708,0,-0.01708,0.01952,-0.08296,-0.1464,-0.13176,-0.09272,-0.0732
-0.02928,0.01952,-0.00976,0.00488,0.01952,-0.0244,0.01952,-0.07808,-0.1464,-0.12688,-0.08784,-0.0732
-0.02928,0.01464,0,0.01464,0.02928,-0.02928,0.02928,-0.07808,-0.1464,-0.12688,-0.09272,-0.07808
-0.02928,0.0122,0.00488,0.01952,0.03416,-0.03172,0.02928,-0.07808,-0.1464,-0.12688,-0.09272,-0.08296
-0.01952,0.00488,0.00976,0.01952,0.02928,-0.0244,0.01464,-0.08784,-0.1464,-0.12688,-0.09272,-0.0732
-0.01952,-0.00488,0.02928,0.03904,0.0488,-0.03416,-0.00488,-0.10736,-0.15128,-0.12688,-0.09272,-0.0732
-0.01952,-0.00976,0.03904,0.0488,0.05856,-0.03904,-0.0244,-0.11224,-0.16104,-0.13664,-0.0976,-0.07808
-0.01952,-0.01708,0.05368,0.06344,0.0732,-0.04636,-0.03416,-0.12688,-0.16592,-0.1464,-0.10248,-0.07808
-0.01952,-0.01708,0.05368,0.06344,0.0732,-0.04636,-0.05368,-0.13664,-0.18056,-0.1464,-0.10248,-0.0732
-0.01464,-0.02196,0.05856,0.06588,0.0732,-0.04392,-0.05856,-0.14152,-0.18056,-0.1464,-0.10248,-0.0732
0,-0.0488,0.0976,0.0976,0.0976,-0.0488,-0.05856,-0.14152,-0.17568,-0.1464,-0.0976,-0.06832
0.00976,-0.06588,0.122,0.11712,0.11224,-0.05124,-0.06344,-0.13664,-0.1708,-0.13664,-0.09272,-0.06344
0.00976,-0.06344,0.11712,0.11224,0.10736,-0.0488,-0.07808,-0.13664,-0.17568,-0.13664,-0.0976,-0.05856
0,-0.061,0.122,0.122,0.122,-0.061,-0.08784,-0.1464,-0.18544,-0.13176,-0.10248,-0.06344
0.00488,-0.05612,0.10736,0.10492,0.10248,-0.0488,-0.09272,-0.1464,-0.18056,-0.12688,-0.09272,-0.06344
0.00488,-0.05368,0.10248,0.10004,0.0976,-0.04636,-0.08784,-0.13664,-0.1708,-0.12688,-0.09272,-0.05368
-0.00488,-0.04392,0.09272,0.09516,0.0976,-0.05124,-0.08296,-0.13664,-0.1708,-0.13176,-0.09272,-0.06344
-0.01464,-0.02928,0.0732,0.08052,0.08784,-0.05124,-0.07808,-0.14152,-0.18544,-0.15128,-0.11224,-0.07808
-0.0244,-0.01464,0.05368,0.06588,0.07808,-0.05124,-0.07808,-0.1464,-0.20496,-0.1708,-0.13176,-0.0976
-0.02928,-0.00976,0.0488,0.06344,0.07808,-0.05368,-0.07808,-0.1464,-0.20984,-0.18056,-0.13664,-0.10736
-0.02928,-0.00244,0.03416,0.0488,0.06344,-0.04636,-0.07808,-0.1464,-0.22448,-0.18544,-0.1464,-0.122
-0.01952,-0.00244,0.0244,0.03416,0.04392,-0.03172,-0.0732,-0.1464,-0.23424,-0.19032,-0.15128,-0.13176
-0.03416,0.0122,0.00976,0.02684,0.04392,-0.03904,-0.0732,-0.14152,-0.23424,-0.20008,-0.15616,-0.13664
-0.03904,0.02196,-0.00488,0.01464,0.03416,-0.0366,-0.0732,-0.14152,-0.23912,-0.20008,-0.16592,-0.13664
-0.04392,0.02928,-0.01464,0.00732,0.02928,-0.0366,-0.0732,-0.14152,-0.244,-0.20496,-0.16592,-0.13664
-0.05368,0.0366,-0.01952,0.00732,0.03416,-0.04392,-0.0732,-0.14152,-0.244,-0.20496,-0.16592,-0.14152
-0.05368,0.03904,-0.0244,0.00244,0.02928,-0.04148,-0.0732,-0.14152,-0.244,-0.20496,-0.1708,-0.14152
-0.05368,0.03904,-0.0244,0.00244,0.02928,-0.04148,-0.06832,-0.1464,-0.244,-0.20496,-0.1708,-0.14152
-0.0488,0.04636,-0.04392,-0.01952,0.00488,-0.02684,-0.06832,-0.14152,-0.244,-0.20984,-0.1708,-0.14152
-0.04392,0.04636,-0.0488,-0.02684,-0.00488,-0.01952,-0.06832,-0.13664,-0.244,-0.21472,-0.1708,-0.14152
-0.04392,0.04392,-0.04392,-0.02196,0,-0.02196,-0.06344,-0.13664,-0.244,-0.21472,-0.1708,-0.14152
-0.04392,0.04392,-0.04392,-0.02196,0,-0.02196,-0.06344,-0.13664,-0.23912,-0.21472,-0.1708,-0.14152
-0.0488,0.05612,-0.06344,-0.03904,-0.01464,-0.01708,-0.06344,-0.13176,-0.23912,-0.20984,-0.17568,-0.1464
-0.0488,0.061,-0.0732,-0.0488,-0.0244,-0.0122,-0.05856,-0.122,-0.23912,-0.20496,-0.17568,-0.1464
-0.0488,0.06344,-0.07808,-0.05368,-0.02928,-0.00976,-0.05856,-0.122,-0.23912,-0.20496,-0.17568,-0.1464
-0.0488,0.06344,-0.07808,-0.05368,-0.02928,-0.00976,-0.05856,-0.122,-0.23912,-0.20496,-0.17568,-0.1464
-0.06344,0.07564,-0.08784,-0.05612,-0.0244,-0.01952,-0.0488,-0.13176,-0.25864,-0.22448,-0.18056,-0.15616
-0.0732,0.07564,-0.07808,-0.04148,-0.00488,-0.03416,-0.03904,-0.13664,-0.25864,-0.22936,-0.18544,-0.16104
-0.06832,0.04392,-0.01952,0.01464,0.0488,-0.05856,-0.01952,-0.122,-0.20984,-0.18544,-0.1464,-0.12688
-0.06344,0.00732,0.0488,0.08052,0.11224,-0.08784,0.0244,-0.03904,-0.0732,-0.08784,-0.0732,-0.06832
-0.0244,-0.02196,0.06832,0.08052,0.09272,-0.05856,0.13176,0.16592,0.1464,0.05368,0.0244,0
0.01464,-0.07076,0.12688,0.11956,0.11224,-0.0488,0.10736,0.21472,0.28792,0.21472,0.15128,0.08784
0.08296,-0.18056,0.27816,0.23668,0.1952,-0.05612,-0.02928,0.122,0.39528,0.42944,0.3416,0.24888
0.1464,-0.31476,0.48312,0.40992,0.33672,-0.09516,-0.21472,-0.0488,0.53192,0.71736,0.59536,0.45384
0.25376,-0.51728,0.7808,0.65392,0.52704,-0.13664,-0.57096,-0.2196,0.86376,1.2688,1.03944,0.81008
0.33184,-0.58072,0.8296,0.66368,0.49776,-0.08296,-0.84912,-0.32208,1.03456,1.56648,1.28832,1.0004
0.366,-0.58804,0.81008,0.62708,0.44408,-0.03904,-1.08336,-0.50264,0.96624,1.55672,1.31272,1.0492
0.32696,-0.44408,0.5612,0.39772,0.23424,0.04636,-1.15168,-0.61488,0.7564,1.28832,1.10288,0.91256
0.25376,-0.29768,0.3416,0.21472,0.08784,0.08296,-1.16144,-0.76616,0.28304,0.78568,0.73688,0.67344
0.16104,-0.15128,0.14152,0.061,-0.01952,0.09028,-1.07848,-0.83448,-0.20496,0.2684,0.36112,0.43432
0.00976,0.01464,-0.03904,-0.04392,-0.0488,0.02928,-0.85888,-0.81496,-0.64416,-0.22936,-0.01952,0.14152
-0.06344,0.07808,-0.09272,-0.061,-0.02928,-0.01708,-0.64904,-0.7076,-0.7564,-0.3904,-0.17568,0.00488
-0.06344,0.05368,-0.04392,-0.0122,0.01952,-0.04148,-0.47824,-0.54168,-0.51728,-0.2684,-0.10736,0.02928
-0.06344,0.05368,-0.04392,-0.0122,0.01952,-0.04148,-0.3416,-0.39528,-0.38552,-0.21472,-0.08784,0.01464
-0.06344,0.06344,-0.06344,-0.03172,0,-0.03172,-0.22448,-0.26352,-0.27816,-0.16592,-0.07808,-0.00976
-0.05368,0.07564,-0.0976,-0.07076,-0.04392,-0.00488,-0.13176,-0.16104,-0.19032,-0.13176,-0.06344,-0.01952
-0.0488,0.08296,-0.11712,-0.09272,-0.06832,0.00976,-0.06832,-0.09272,-0.14152,-0.10248,-0.05856,-0.0244
-0.0488,0.0854,-0.122,-0.0976,-0.0732,0.0122,-0.02928,-0.04392,-0.10248,-0.08296,-0.0488,-0.0244
-0.04392,0.08296,-0.122,-0.10004,-0.07808,0.01708,-0.01464,-0.00488,-0.06832,-0.06344,-0.02928,-0.01952
-0.03904,0.08784,-0.13664,-0.11712,-0.0976,0.02928,-0.00488,0.01952,-0.0488,-0.05368,-0.01952,-0.01952
-0.03904,0.09516,-0.15128,-0.13176,-0.11224,0.0366,0.00976,0.01952,-0.04392,-0.05368,-0.02928,-0.03416
-0.04392,0.0976,-0.15128,-0.12932,-0.10736,0.03172,0.01952,0.0244,-0.04392,-0.05368,-0.04392,-0.03904
-0.03904,0.09272,-0.1464,-0.12688,-0.10736,0.03416,0.02928,0.03904,-0.03416,-0.05368,-0.04392,-0.03904
-0.02928,0.0854,-0.14152,-0.12688,-0.11224,0.04148,0.0488,0.0488,-0.0244,-0.0488,-0.03416,-0.03904
-0.02928,0.08296,-0.13664,-0.122,-0.10736,0.03904,0.06832,0.05368,-0.0244,-0.0488,-0.03416,-0.03904
-0.0244,0.07808,-0.13176,-0.11956,-0.10736,0.04148,0.0732,0.05368,-0.01952,-0.04392,-0.03416,-0.03904
-0.03416,0.08052,-0.12688,-0.1098,-0.09272,0.02928,0.06832,0.05856,-0.0244,-0.0488,-0.03904,-0.04392
-0.03904,0.07564,-0.11224,-0.09272,-0.0732,0.01708,0.06832,0.06832,-0.01464,-0.04392,-0.03904,-0.04392
-0.03416,0.06588,-0.0976,-0.08052,-0.06344,0.01464,0.05856,0.06832,-0.00976,-0.04392,-0.03416,-0.04392
-0.03416,0.06344,-0.09272,-0.07564,-0.05856,0.0122,0.05856,0.06344,-0.00488,-0.04392,-0.03416,-0.04392
-0.03416,0.05124,-0.06832,-0.05124,-0.03416,0,0.05856,0.06832,-0.00488,-0.0488,-0.03904,-0.0488
-0.02928,0.04148,-0.05368,-0.03904,-0.0244,-0.00244,0.06344,0.06832,0,-0.0488,-0.03416,-0.05368
-0.0244,0.02928,-0.03416,-0.02196,-0.00976,-0.00732,0.06832,0.07808,0.00488,-0.04392,-0.03416,-0.05856
-0.0244,0.02928,-0.03416,-0.02196,-0.00976,-0.00732,0.06832,0.08296,0.00488,-0.03904,-0.03416,-0.05856
-0.02928,0.03172,-0.03416,-0.01952,-0.00488,-0.0122,0.0732,0.08784,0.01952,-0.03416,-0.04392,-0.06344
-0.03416,0.02684,-0.01952,-0.00244,0.01464,-0.0244,0.0732,0.0976,0.02928,-0.03416,-0.0488,-0.05856
-0.03904,0.02684,-0.01464,0.00488,0.0244,-0.03172,0.0732,0.10736,0.03416,-0.0244,-0.03904,-0.05856
-0.04392,0.02196,0,0.02196,0.04392,-0.04392,0.0732,0.10736,0.03904,-0.01952,-0.03416,-0.05368
-0.02928,0.00732,0.01464,0.02928,0.04392,-0.0366,0.06832,0.10736,0.03904,-0.01952,-0.03904,-0.05368
-0.02928,0,0.02928,0.04392,0.05856,-0.04392,0.06832,0.11224,0.0488,-0.01464,-0.03904,-0.05368
-0.0244,-0.00732,0.03904,0.05124,0.06344,-0.04392,0.06832,0.11224,0.05368,-0.00488,-0.02928,-0.05368
-0.01464,-0.01464,0.04392,0.05124,0.05856,-0.0366,0.06832,0.11712,0.06344,0.00488,-0.0244,-0.05856
-0.00976,-0.02196,0.05368,0.05856,0.06344,-0.0366,0.0732,0.122,0.07808,0.00976,-0.0244,-0.05368
-0.00976,-0.02684,0.06344,0.06832,0.0732,-0.04148,0.08296,0.13176,0.09272,0.00976,-0.01952,-0.05856
-0.01464,-0.02684,0.06832,0.07564,0.08296,-0.0488,0.09272,0.1464,0.11712,0.02928,-0.00488,-0.04392
-0.01464,-0.02928,0.0732,0.08052,0.08784,-0.05124,0.10248,0.15616,0.13176,0.03416,0,-0.04392
-0.00976,-0.03172,0.0732,0.07808,0.08296,-0.04636,0.10736,0.1708,0.15128,0.04392,0.00488,-0.03904
-0.00976,-0.03416,0.07808,0.08296,0.08784,-0.0488,0.12688,0.18544,0.1708,0.06344,0.01952,-0.03904
0,-0.03904,0.07808,0.07808,0.07808,-0.03904,0.13664,0.21472,0.1952,0.07808,0.03416,-0.0244
0.00488,-0.0488,0.09272,0.09028,0.08784,-0.04148,0.1464,0.23424,0.22448,0.09272,0.04392,-0.00976
0.01464,-0.061,0.10736,0.10004,0.09272,-0.03904,0.16104,0.25376,0.24888,0.11224,0.05856,0
0.01464,-0.061,0.10736,0.10004,0.09272,-0.03904,0.1708,0.27816,0.27816,0.12688,0.06832,0.00976
0.01952,-0.06832,0.11712,0.10736,0.0976,-0.03904,0.18056,0.30256,0.30256,0.1464,0.08784,0.01952
0.02928,-0.07808,0.12688,0.11224,0.0976,-0.03416,0.1952,0.33672,0.33672,0.1708,0.11224,0.02928
0.02928,-0.07808,0.12688,0.11224,0.0976,-0.03416,0.20496,0.35624,0.37088,0.20008,0.13176,0.0488
0.02928,-0.08052,0.13176,0.11712,0.10248,-0.0366,0.21472,0.37576,0.40504,0.22936,0.1464,0.06344
0.03904,-0.0854,0.13176,0.11224,0.09272,-0.02684,0.23424,0.4148,0.44896,0.25864,0.16592,0.08296
0.04392,-0.0854,0.12688,0.10492,0.08296,-0.01952,0.25864,0.44896,0.49288,0.29768,0.1952,0.0976
0.05368,-0.08784,0.122,0.09516,0.06832,-0.00732,0.26352,0.47336,0.5368,0.33184,0.2196,0.122
0.05856,-0.09028,0.122,0.09272,0.06344,-0.00244,0.27328,0.49776,0.57584,0.37088,0.24888,0.1464
0.06344,-0.10248,0.14152,0.1098,0.07808,-0.00732,0.27816,0.51728,0.61976,0.40504,0.27816,0.1708
0.07808,-0.11712,0.15616,0.11712,0.07808,0,0.27816,0.53192,0.65392,0.43432,0.30256,0.19032
0.08784,-0.13176,0.17568,0.13176,0.08784,0,0.28304,0.55144,0.6832,0.47336,0.3416,0.2196
0.0976,-0.14396,0.19032,0.14152,0.09272,0.00244,0.27816,0.56608,0.71248,0.50752,0.366,0.22936
0.0976,-0.15128,0.20496,0.15616,0.10736,-0.00488,0.27816,0.57096,0.73688,0.5368,0.3904,0.25376
0.10248,-0.16104,0.2196,0.16836,0.11712,-0.00732,0.27328,0.57584,0.75152,0.5612,0.40992,0.2684
0.10736,-0.1708,0.23424,0.18056,0.12688,-0.00976,0.2684,0.57096,0.77592,0.58072,0.42944,0.28792
0.11224,-0.18056,0.24888,0.19276,0.13664,-0.0122,0.25376,0.5612,0.79056,0.59536,0.44408,0.30744
0.11224,-0.18544,0.25864,0.20252,0.1464,-0.01708,0.244,0.5368,0.7808,0.60024,0.45384,0.31232
0.11224,-0.19032,0.2684,0.21228,0.15616,-0.02196,0.22448,0.51728,0.76128,0.60512,0.45872,0.31232
0.10248,-0.18788,0.27328,0.22204,0.1708,-0.03416,0.20496,0.49288,0.74664,0.59536,0.44896,0.31232
0.10248,-0.18788,0.27328,0.22204,0.1708,-0.03416,0.18544,0.45872,0.72224,0.58072,0.44896,0.30744
0.0976,-0.183,0.2684,0.2196,0.1708,-0.0366,0.16592,0.41968,0.67832,0.5612,0.43432,0.30256
0.08296,-0.17324,0.26352,0.22204,0.18056,-0.0488,0.1464,0.37576,0.62952,0.53192,0.40504,0.28792
0.08296,-0.16348,0.244,0.20252,0.16104,-0.03904,0.11224,0.32696,0.5612,0.47824,0.37576,0.26352
0.08296,-0.15616,0.22936,0.18788,0.1464,-0.03172,0.09272,0.28304,0.49776,0.43432,0.33672,0.23912
0.0732,-0.13664,0.20008,0.16348,0.12688,-0.02684,0.07808,0.23912,0.42944,0.37576,0.29768,0.20984
0.05856,-0.11468,0.1708,0.14152,0.11224,-0.02684,0.06832,0.1952,0.35624,0.31232,0.24888,0.17568
0.03416,-0.08052,0.12688,0.1098,0.09272,-0.02928,0.05368,0.14152,0.27328,0.23912,0.1952,0.13664
0.00976,-0.04636,0.08296,0.07808,0.0732,-0.03172,0.03904,0.10736,0.20496,0.18544,0.15616,0.10736
0,-0.0366,0.0732,0.0732,0.0732,-0.0366,0.02928,0.0732,0.15128,0.14152,0.122,0.07808
-0.00488,-0.02196,0.0488,0.05124,0.05368,-0.02928,0.02928,0.0488,0.10736,0.0976,0.09272,0.0488
-0.01464,-0.01464,0.04392,0.05124,0.05856,-0.0366,0.00976,0.02928,0.06344,0.05856,0.05368,0.01464
-0.01952,-0.00244,0.0244,0.03416,0.04392,-0.03172,0,-0.00488,0.01952,0.01464,0.01952,-0.00976
-0.0244,0.00732,0.00976,0.02196,0.03416,-0.02928,-0.00488,-0.02928,-0.01464,-0.01464,-0.00976,-0.0244
-0.02928,0.0122,0.00488,0.01952,0.03416,-0.03172,-0.00488,-0.03904,-0.03416,-0.03416,-0.02928,-0.03416
-0.03904,0.02196,-0.00488,0.01464,0.03416,-0.0366,-0.00488,-0.05368,-0.06344,-0.05856,-0.04392,-0.0488
-0.05856,0.0366,-0.01464,0.01464,0.04392,-0.05124,-0.00976,-0.06344,-0.09272,-0.08296,-0.05856,-0.06832
-0.0488,0.03172,-0.01464,0.00976,0.03416,-0.04148,-0.01952,-0.0732,-0.10248,-0.0976,-0.0732,-0.08296
-0.03904,0.02196,-0.00488,0.01464,0.03416,-0.0366,-0.0244,-0.08296,-0.122,-0.11712,-0.08784,-0.08784
-0.0488,0.03172,-0.01464,0.00976,0.03416,-0.04148,-0.01952,-0.08784,-0.13176,-0.122,-0.08784,-0.08784
-0.0488,0.03172,-0.01464,0.00976,0.03416,-0.04148,-0.01952,-0.08784,-0.14152,-0.13176,-0.0976,-0.10248
-0.05368,0.0366,-0.01952,0.00732,0.03416,-0.04392,-0.02928,-0.09272,-0.1464,-0.13664,-0.11224,-0.10248
-0.05856,0.04148,-0.0244,0.00488,0.03416,-0.04636,-0.03416,-0.09272,-0.15128,-0.14152,-0.11712,-0.10248
-0.05856,0.04392,-0.02928,0,0.02928,-0.04392,-0.04392,-0.0976,-0.16104,-0.1464,-0.11712,-0.10736
-0.05856,0.04636,-0.03416,-0.00488,0.0244,-0.04148,-0.04392,-0.10248,-0.1708,-0.15616,-0.122,-0.11224
-0.05856,0.04148,-0.0244,0.00488,0.03416,-0.04636,-0.04392,-0.10248,-0.1708,-0.15616,-0.12688,-0.11712
-0.06344,0.04392,-0.0244,0.00732,0.03904,-0.05124,-0.05368,-0.11224,-0.18056,-0.16104,-0.13176,-0.12688
-0.06344,0.04392,-0.0244,0.00732,0.03904,-0.05124,-0.0488,-0.10736,-0.1708,-0.16104,-0.14152,-0.12688
-0.06344,0.04392,-0.0244,0.00732,0.03904,-0.05124,-0.04392,-0.10248,-0.16104,-0.16104,-0.14152,-0.122
