i,aVR,ii,aVF,iii,aVL,V1,V2,V3,V4,V5,V6
-0.03416,0.01952,-0.00488,0.0122,0.02928,-0.03172,0.05368,0.07808,0.0488,0.05368,0.04392,0.00488
-0.04392,0.0244,-0.00488,0.01708,0.03904,-0.04148,0.03416,0.06344,0.03904,0.05368,0.04392,0.00488
-0.05368,0.03172,-0.00976,0.01708,0.04392,-0.0488,0.01952,0.06344,0.02928,0.0488,0.0488,0.01952
-0.06344,0.03904,-0.01464,0.01708,0.0488,-0.05612,0.01952,0.06344,0.02928,0.0488,0.05856,0.01952
-0.04392,0.02928,-0.01464,0.00732,0.02928,-0.0366,0.00488,0.05368,0.01952,0.04392,0.05856,0.01952
-0.03904,0.02684,-0.01464,0.00488,0.0244,-0.03172,0.00488,0.0488,0.01952,0.03904,0.0488,0.01952
-0.02928,0.01952,-0.00976,0.00488,0.01952,-0.0244,0.00488,0.0488,0.01464,0.03416,0.03416,0.00976
-0.02928,0.0244,-0.01952,-0.00488,0.00976,-0.01952,0.00488,0.03904,0.01952,0.03416,0.02928,0
-0.00976,0.01464,-0.01952,-0.01464,-0.00976,0,0.00488,0.0244,0.00976,0.02928,0.02928,0
-0.00488,0.00976,-0.01464,-0.0122,-0.00976,0.00244,0,0.01952,0.01464,0.02928,0.0244,-0.00488
0.00488,0,-0.00488,-0.00732,-0.00976,0.00732,0,0.00976,0.00488,0.0244,0.00976,-0.00976
0.00488,0,-0.00488,-0.00732,-0.00976,0.00732,-0.00488,0.00976,0.00976,0.01464,0.00976,-0.01952
0.00488,-0.00244,0,-0.00244,-0.00488,0.00488,0,0.00976,0,0.00976,-0.00488,-0.01952
0.00976,-0.00976,0.00976,0.00488,0,0.00488,0,0,0,0,-0.00976,-0.02928
0.00976,-0.00976,0.00976,0.00488,0,0.00488,0,0,0,0.00976,-0.00976,-0.01952
0.00976,-0.00976,0.00976,0.00488,0,0.00488,0,0,0,0.00976,-0.00976,-0.01952
0.0244,-0.0122,0,-0.0122,-0.0244,0.0244,0.00976,0.00488,-0.00976,0.00976,-0.01464,-0.03416
0.0244,-0.01464,0.00488,-0.00732,-0.01952,0.02196,0,0.00488,-0.00976,0.01464,0,-0.03416
-0.00488,0.00488,-0.00488,-0.00244,0,-0.00244,0.01464,0.01464,-0.00976,0.00488,0.01464,-0.01464
-0.0244,0.01952,-0.01464,-0.00244,0.00976,-0.01708,0.0244,0.01464,-0.01464,0.00488,0.01464,0
-0.01464,0.0122,-0.00976,-0.00244,0.00488,-0.00976,0.01952,0.00488,-0.00976,-0.00488,0.00976,-0.00488
-0.00488,0.00976,-0.01464,-0.0122,-0.00976,0.00244,0.0244,0.00488,-0.00976,-0.00488,0,-0.01464
0.0244,-0.00976,-0.00488,-0.01708,-0.02928,0.02684,0.00976,-0.00976,-0.01952,-0.01952,-0.01952,-0.03416
0.0488,-0.0244,0,-0.0244,-0.0488,0.0488,0.00976,-0.01952,-0.0244,-0.02928,-0.03904,-0.04392
0.03904,-0.02196,0.00488,-0.01464,-0.03416,0.0366,0.00976,-0.01952,-0.02928,-0.0244,-0.0244,-0.03904
0.04392,-0.0244,0.00488,-0.01708,-0.03904,0.04148,0.00976,-0.01952,-0.02928,-0.02928,-0.0244,-0.04392
0.0488,-0.0244,0,-0.0244,-0.0488,0.0488,0.00976,-0.01952,-0.03416,-0.01952,-0.01464,-0.03904
0.05856,-0.02928,0,-0.02928,-0.05856,0.05856,0.00976,-0.01952,-0.03416,-0.01952,-0.01464,-0.03904
0.05856,-0.03416,0.00976,-0.01952,-0.0488,0.05368,0.01952,-0.01952,-0.0244,-0.00488,-0.00976,-0.02928
0.05856,-0.0366,0.01464,-0.01464,-0.04392,0.05124,0.01952,-0.01952,-0.01952,-0.00488,-0.00976,-0.02928
0.03904,-0.02196,0.00488,-0.01464,-0.03416,0.0366,0.0244,-0.00488,-0.0244,-0.00488,-0.00488,-0.03416
0.02928,-0.01464,0,-0.01464,-0.02928,0.02928,0.01952,0.00488,-0.0244,-0.00488,-0.00488,-0.02928
0.01952,0,-0.01952,-0.02928,-0.03904,0.02928,0.02928,0.00488,-0.0244,-0.00976,0,-0.02928
0.01952,0.00488,-0.02928,-0.03904,-0.0488,0.03416,0.03904,0.00976,-0.0244,-0.00976,-0.01952,-0.03416
0.01952,0,-0.01952,-0.02928,-0.03904,0.02928,0.0488,0.00488,-0.01464,-0.00488,-0.01952,-0.03904
0.0244,-0.00732,-0.00976,-0.02196,-0.03416,0.02928,0.0488,0.00488,-0.01464,-0.00488,-0.00976,-0.03904
0.00976,0,-0.00976,-0.01464,-0.01952,0.01464,0.0488,0.00976,-0.0244,-0.00488,-0.01464,-0.03416
0,0.00732,-0.01464,-0.01464,-0.01464,0.00732,0.0488,0.00976,-0.0244,-0.00976,-0.00976,-0.02928
0.00488,-0.00244,0,-0.00244,-0.00488,0.00488,0.06344,0.01464,-0.01464,0,-0.00488,-0.0244
0.00488,-0.00976,0.01464,0.0122,0.00976,-0.00244,0.06344,0.01464,-0.01464,0.00488,-0.00488,-0.0244
-0.0244,0,0.0244,0.0366,0.0488,-0.0366,0.0732,0.0244,0.00976,0.0244,0.00976,-0.00976
-0.05368,0.01464,0.0244,0.05124,0.07808,-0.06588,0.07808,0.03416,0.01464,0.03416,0.02928,0.00976
-0.03904,0.01464,0.00976,0.02928,0.0488,-0.04392,0.05856,0.03416,0.01464,0.0244,0.01952,0
-0.03904,0.01708,0.00488,0.0244,0.04392,-0.04148,0.0488,0.03416,0.01464,0.0244,0.01464,0
0.00976,-0.0122,0.01464,0.00976,0.00488,0.00244,0.03904,0.01464,-0.00976,0.00488,0.00488,-0.01464
0.06344,-0.03904,0.01464,-0.01708,-0.0488,0.05612,0.03416,-0.00976,-0.01952,-0.00976,0.00488,-0.0244
0.05856,-0.03172,0.00488,-0.0244,-0.05368,0.05612,0.0244,0,-0.01952,0,-0.00488,-0.0244
0.0488,-0.02684,0.00488,-0.01952,-0.04392,0.04636,0.01464,0,-0.01952,0.01464,0,-0.01952
0.03416,-0.01708,0,-0.01708,-0.03416,0.03416,0.00976,0,-0.00976,0.00976,-0.00976,-0.02928
0.01464,-0.00732,0,-0.00732,-0.01464,0.01464,0.00488,0,-0.00976,0.00976,-0.00976,-0.02928
-0.00976,0.00732,-0.00488,0,0.00488,-0.00732,0,0.00976,0,0.01464,-0.01464,-0.01952
-0.02928,0.01952,-0.00976,0.00488,0.01952,-0.0244,-0.00976,0.00976,0.00488,0.01464,-0.01464,-0.01952
-0.01464,0.01952,-0.0244,-0.01708,-0.00976,-0.00244,-0.00976,0.00488,-0.00976,0.00488,-0.0244,-0.03904
-0.00488,0.01708,-0.02928,-0.02684,-0.0244,0.00976,-0.01952,0.00488,-0.00976,-0.00488,-0.03416,-0.04392
-0.0244,0.02684,-0.02928,-0.01708,-0.00488,-0.00976,0,0.00488,-0.00976,0.00488,-0.0244,-0.03416
-0.04392,0.04148,-0.03904,-0.01708,0.00488,-0.0244,0.00976,0.01952,-0.0244,-0.00488,-0.00976,-0.0244
-0.06832,0.08052,-0.09272,-0.05856,-0.0244,-0.02196,0.01464,0.04392,-0.0488,-0.02928,-0.03904,-0.0488
-0.06344,0.09516,-0.12688,-0.09516,-0.06344,0,0.03416,0.05856,-0.07808,-0.07808,-0.08296,-0.0976
-0.04392,0.08052,-0.11712,-0.09516,-0.0732,0.01464,0.0244,0.05856,-0.05856,-0.0488,-0.06832,-0.08784
-0.02928,0.04636,-0.06344,-0.0488,-0.03416,0.00244,0.00488,0.08296,0.01952,0.04392,0.03904,0.01952
-0.06344,0.06832,-0.0732,-0.04148,-0.00976,-0.02684,0.00976,0.12688,0.0976,0.13176,0.12688,0.0976
-0.08784,0.06344,-0.03904,0.00488,0.0488,-0.06832,-0.0244,0.122,0.19032,0.25376,0.24888,0.244
-0.11224,0.0244,0.06344,0.11956,0.17568,-0.14396,-0.06344,0.01464,0.3172,0.42944,0.41968,0.40016
-0.23912,0.0976,0.04392,0.16348,0.28304,-0.26108,-0.14152,-0.10736,0.42456,0.55144,0.5368,0.5368
-0.3172,0.11224,0.09272,0.25132,0.40992,-0.36356,-0.25864,-0.20984,0.52704,0.68808,0.6832,0.69784
-0.39528,0.12444,0.1464,0.34404,0.54168,-0.46848,-0.3172,-0.20984,0.65392,0.83936,0.84424,0.8784
-0.37576,0.0854,0.20496,0.39284,0.58072,-0.47824,-0.30256,-0.16104,0.66856,0.85888,0.854,0.88816
-0.1952,-0.061,0.3172,0.4148,0.5124,-0.3538,-0.24888,-0.19032,0.55144,0.70272,0.70272,0.74664
0.11712,-0.30988,0.50264,0.44408,0.38552,-0.1342,-0.16104,-0.32208,0.43432,0.5368,0.57584,0.60512
0.2928,-0.40504,0.51728,0.37088,0.22448,0.03416,-0.13176,-0.41968,0.22936,0.30256,0.366,0.40504
0.29768,-0.3416,0.38552,0.23668,0.08784,0.10492,-0.10736,-0.41968,0.06344,0.11712,0.1708,0.22448
0.28304,-0.2684,0.25376,0.11224,-0.02928,0.15616,-0.08784,-0.39528,-0.03904,-0.01952,0.03904,0.06832
0.19032,-0.13664,0.08296,-0.0122,-0.10736,0.14884,-0.05368,-0.23912,-0.06344,-0.0488,-0.03904,-0.0244
0.122,-0.0732,0.0244,-0.0366,-0.0976,0.1098,0.00976,-0.10736,-0.05368,-0.0488,-0.05368,-0.04392
0.06344,-0.03416,0.00488,-0.02684,-0.05856,0.061,0.00976,-0.0244,-0.03904,-0.01464,-0.03416,-0.01952
0.00488,0.00976,-0.0244,-0.02684,-0.02928,0.01708,0.02928,0.00976,-0.01952,-0.01464,-0.01952,-0.01464
0.00976,0.00488,-0.01952,-0.0244,-0.02928,0.01952,0.03416,0.00976,-0.0244,-0.00488,-0.01952,-0.02928
0.03416,-0.01464,-0.00488,-0.02196,-0.03904,0.0366,0.03416,-0.00488,-0.02928,-0.01952,-0.03416,-0.03416
0.04392,-0.02196,0,-0.02196,-0.04392,0.04392,0.03416,-0.01952,-0.04392,-0.04392,-0.04392,-0.0488
0.05368,-0.0244,-0.00488,-0.03172,-0.05856,0.05612,0.03416,-0.01464,-0.05368,-0.04392,-0.05368,-0.06344
0.05368,-0.02196,-0.00976,-0.0366,-0.06344,0.05856,0.03416,-0.01464,-0.05856,-0.03904,-0.0732,-0.08296
0.0488,-0.01464,-0.01952,-0.04392,-0.06832,0.05856,0.03904,-0.01464,-0.05368,-0.03904,-0.08296,-0.08784
0.0488,-0.01952,-0.00976,-0.03416,-0.05856,0.05368,0.03904,-0.0244,-0.05368,-0.05368,-0.07808,-0.08296
0.0488,-0.01952,-0.00976,-0.03416,-0.05856,0.05368,0.02928,-0.0244,-0.06832,-0.06344,-0.08296,-0.0732
0.05856,-0.02684,-0.00488,-0.03416,-0.06344,0.061,0.02928,-0.0244,-0.0732,-0.07808,-0.07808,-0.05856
0.05856,-0.02196,-0.01464,-0.04392,-0.0732,0.06588,0.01952,-0.02928,-0.06344,-0.07808,-0.05856,-0.05368
0.05856,-0.0244,-0.00976,-0.03904,-0.06832,0.06344,0.01464,-0.02928,-0.05368,-0.0732,-0.04392,-0.0488
0.05368,-0.02928,0.00488,-0.02196,-0.0488,0.05124,0.00976,-0.03416,-0.0732,-0.06832,-0.0488,-0.0488
0.04392,-0.03172,0.01952,-0.00244,-0.0244,0.03416,0,-0.03416,-0.06832,-0.0488,-0.03904,-0.04392
0.05856,-0.04636,0.03416,0.00488,-0.0244,0.04148,0,-0.03904,-0.05856,-0.04392,-0.03904,-0.05368
0.05856,-0.05124,0.04392,0.01464,-0.01464,0.0366,-0.00488,-0.05368,-0.05368,-0.03416,-0.03416,-0.04392
0.05368,-0.0488,0.04392,0.01708,-0.00976,0.03172,-0.01952,-0.05856,-0.04392,-0.03416,-0.03416,-0.04392
0.05368,-0.0488,0.04392,0.01708,-0.00976,0.03172,-0.0244,-0.06344,-0.04392,-0.05368,-0.0488,-0.0488
0.05368,-0.04636,0.03904,0.0122,-0.01464,0.03416,-0.0244,-0.06344,-0.05856,-0.0488,-0.04392,-0.05368
0.0732,-0.05612,0.03904,0.00244,-0.03416,0.05368,-0.01952,-0.05856,-0.06344,-0.0488,-0.05368,-0.06344
0.08296,-0.06344,0.04392,0.00244,-0.03904,0.061,-0.01952,-0.06344,-0.06344,-0.05368,-0.06344,-0.06832
0.07808,-0.061,0.04392,0.00488,-0.03416,0.05612,-0.01952,-0.06344,-0.06832,-0.05368,-0.05856,-0.0732
0.06344,-0.05368,0.04392,0.0122,-0.01952,0.04148,-0.0244,-0.05856,-0.06832,-0.05368,-0.06344,-0.06832
0.05368,-0.0488,0.04392,0.01708,-0.00976,0.03172,-0.01464,-0.05856,-0.0732,-0.05856,-0.05856,-0.05368
0.0488,-0.04636,0.04392,0.01952,-0.00488,0.02684,-0.01952,-0.05856,-0.07808,-0.06344,-0.05856,-0.05856
0.06344,-0.05368,0.04392,0.0122,-0.01952,0.04148,-0.01952,-0.05856,-0.06832,-0.07808,-0.07808,-0.06832
0.06344,-0.05124,0.03904,0.00732,-0.0244,0.04392,-0.01464,-0.05856,-0.06832,-0.07808,-0.07808,-0.0732
0.05368,-0.04636,0.03904,0.0122,-0.01464,0.03416,-0.01952,-0.0732,-0.06832,-0.06344,-0.07808,-0.0732
0.0488,-0.04636,0.04392,0.01952,-0.00488,0.02684,-0.00976,-0.0732,-0.06832,-0.06344,-0.0732,-0.06832
0.04392,-0.04392,0.04392,0.02196,0,0.02196,-0.00976,-0.06344,-0.07808,-0.06832,-0.07808,-0.07808
0.0488,-0.04636,0.04392,0.01952,-0.00488,0.02684,-0.01464,-0.06832,-0.07808,-0.06832,-0.07808,-0.07808
0.05368,-0.04392,0.03416,0.00732,-0.01952,0.0366,-0.00488,-0.06832,-0.08296,-0.08784,-0.08296,-0.07808
0.06344,-0.04392,0.0244,-0.00732,-0.03904,0.05124,-0.00976,-0.06832,-0.08296,-0.07808,-0.08784,-0.08296
0.06344,-0.03416,0.00488,-0.02684,-0.05856,0.061,-0.00488,-0.06832,-0.08784,-0.07808,-0.08296,-0.0732
0.08296,-0.0488,0.01464,-0.02684,-0.06832,0.07564,-0.00488,-0.06344,-0.08784,-0.08784,-0.08296,-0.0732
0.08296,-0.04636,0.00976,-0.03172,-0.0732,0.07808,0,-0.05856,-0.0976,-0.08784,-0.09272,-0.08296
0.0732,-0.04392,0.01464,-0.02196,-0.05856,0.06588,0,-0.05856,-0.09272,-0.08784,-0.08784,-0.08296
0.05368,-0.0244,-0.00488,-0.03172,-0.05856,0.05612,0.00488,-0.05368,-0.08784,-0.08296,-0.08784,-0.08784
0.04392,-0.0122,-0.01952,-0.04148,-0.06344,0.05368,0.01464,-0.04392,-0.07808,-0.08296,-0.08784,-0.08296
0.0244,0.00488,-0.03416,-0.04636,-0.05856,0.04148,0.01464,-0.0244,-0.08296,-0.08784,-0.08784,-0.08296
0.01952,0.01708,-0.05368,-0.06344,-0.0732,0.04636,0.01952,-0.0244,-0.08784,-0.09272,-0.08296,-0.07808
0.02928,0.0122,-0.05368,-0.06832,-0.08296,0.05612,0.01464,-0.03416,-0.0976,-0.07808,-0.08784,-0.07808
0.01952,0.01464,-0.0488,-0.05856,-0.06832,0.04392,0.00976,-0.02928,-0.09272,-0.07808,-0.08784,-0.07808
0.01464,0.01464,-0.04392,-0.05124,-0.05856,0.0366,-0.00488,-0.0244,-0.0976,-0.07808,-0.07808,-0.07808
-0.00488,0.02928,-0.05368,-0.05124,-0.0488,0.02196,-0.00976,-0.01952,-0.0976,-0.07808,-0.07808,-0.07808
-0.01464,0.04148,-0.06832,-0.061,-0.05368,0.01952,-0.02928,-0.01952,-0.10248,-0.08296,-0.08784,-0.09272
-0.02928,0.05612,-0.08296,-0.06832,-0.05368,0.0122,-0.02928,-0.01952,-0.11224,-0.08784,-0.08784,-0.09272
-0.0488,0.08052,-0.11224,-0.08784,-0.06344,0.00732,-0.03904,-0.00976,-0.11712,-0.0976,-0.0976,-0.10736
-0.05368,0.08784,-0.122,-0.09516,-0.06832,0.00732,-0.03904,-0.00488,-0.11712,-0.10736,-0.11224,-0.10736
-0.06832,0.10004,-0.13176,-0.0976,-0.06344,-0.00244,-0.05368,-0.00976,-0.11712,-0.10248,-0.11224,-0.0976
-0.0732,0.10492,-0.13664,-0.10004,-0.06344,-0.00488,-0.0732,-0.00488,-0.12688,-0.11224,-0.11224,-0.10736
-0.07808,0.11224,-0.1464,-0.10736,-0.06832,-0.00488,-0.08296,-0.01464,-0.12688,-0.11224,-0.10736,-0.10736
-0.08296,0.11468,-0.1464,-0.10492,-0.06344,-0.00976,-0.10736,-0.00976,-0.13176,-0.11224,-0.10736,-0.10248
-0.08296,0.11468,-0.1464,-0.10492,-0.06344,-0.00976,-0.12688,-0.01952,-0.122,-0.11712,-0.11224,-0.10248
-0.08784,0.122,-0.15616,-0.11224,-0.06832,-0.00976,-0.14152,-0.01464,-0.122,-0.11712,-0.10736,-0.10248
-0.10736,0.13664,-0.16592,-0.11224,-0.05856,-0.0244,-0.1464,-0.01464,-0.13176,-0.10248,-0.0976,-0.0976
-0.10248,0.13664,-0.1708,-0.11956,-0.06832,-0.01708,-0.15128,-0.01464,-0.122,-0.10248,-0.10248,-0.09272
-0.122,0.14396,-0.16592,-0.10492,-0.04392,-0.03904,-0.16104,-0.00976,-0.11712,-0.10248,-0.09272,-0.09272
-0.12688,0.1464,-0.16592,-0.10248,-0.03904,-0.04392,-0.15616,-0.00976,-0.11224,-0.0976,-0.08296,-0.08296
-0.13176,0.14396,-0.15616,-0.09028,-0.0244,-0.05368,-0.15616,-0.00488,-0.0976,-0.08296,-0.06832,-0.0732
-0.13176,0.13908,-0.1464,-0.08052,-0.01464,-0.05856,-0.15128,0,-0.0976,-0.06344,-0.06344,-0.05856
-0.13664,0.13176,-0.12688,-0.05856,0.00976,-0.0732,-0.12688,0.00976,-0.07808,-0.05368,-0.0488,-0.04392
-0.122,0.11712,-0.11224,-0.05124,0.00976,-0.06588,-0.09272,0.01464,-0.06832,-0.03904,-0.03904,-0.03904
-0.11224,0.1098,-0.10736,-0.05124,0.00488,-0.05856,-0.06344,0.01952,-0.0488,-0.02928,-0.03904,-0.03416
-0.11224,0.10736,-0.10248,-0.04636,0.00976,-0.061,-0.05368,0.03416,-0.03904,-0.01952,-0.02928,-0.01464
-0.10736,0.10248,-0.0976,-0.04392,0.00976,-0.05856,-0.02928,0.04392,-0.02928,-0.00976,-0.01464,-0.00976
-0.09272,0.08784,-0.08296,-0.0366,0.00976,-0.05124,-0.01464,0.03904,-0.01464,0,-0.00976,-0.00976
-0.07808,0.07076,-0.06344,-0.0244,0.01464,-0.04636,-0.00976,0.03904,-0.01464,0.01464,-0.00976,-0.01952
-0.0732,0.061,-0.0488,-0.0122,0.0244,-0.0488,0,0.05368,-0.00976,0.00976,-0.00976,-0.01464
-0.06344,0.04636,-0.02928,0.00244,0.03416,-0.0488,0.01952,0.04392,-0.00976,0.00976,-0.00976,-0.01464
-0.05368,0.03904,-0.0244,0.00244,0.02928,-0.04148,0.02928,0.0488,-0.00488,0.01464,0.00488,-0.00488
-0.0488,0.03904,-0.02928,-0.00488,0.01952,-0.03416,0.0488,0.06344,-0.00488,0.00488,0.00488,-0.00488
-0.0488,0.0366,-0.0244,0,0.0244,-0.0366,0.0488,0.06832,0,0.00976,0.00488,-0.00488
-0.04392,0.03172,-0.01952,0.00244,0.0244,-0.03416,0.05856,0.06832,0.00976,0.01952,0.01464,0.00488
-0.04392,0.02928,-0.01464,0.00732,0.02928,-0.0366,0.06832,0.06832,0.00976,0.0244,0.01952,0
-0.0244,0.01708,-0.00976,0.00244,0.01464,-0.01952,0.06832,0.06832,0.00976,0.00976,0.00976,0
-0.00488,0.00244,0,0.00244,0.00488,-0.00488,0.0732,0.05856,0.00976,0.00976,0.00488,0
-0.00488,0.00732,-0.00976,-0.00732,-0.00488,0,0.07808,0.06344,0.00976,0,-0.00976,0
-0.01464,0.01708,-0.01952,-0.0122,-0.00488,-0.00488,0.07808,0.06344,0.01464,0,-0.00488,0
-0.01952,0.01464,-0.00976,0,0.00976,-0.01464,0.07808,0.06344,0.00488,0.00976,0.00976,0
-0.03416,0.02196,-0.00976,0.00732,0.0244,-0.02928,0.0732,0.0732,0.00976,0.01952,0.00976,0
-0.02928,0.01952,-0.00976,0.00488,0.01952,-0.0244,0.05368,0.0732,0.01464,0.0244,0.01952,0
-0.02928,0.01952,-0.00976,0.00488,0.01952,-0.0244,0.03416,0.06344,0.00488,0.01952,0.01952,-0.00488
-0.00976,0.00976,-0.00976,-0.00488,0,-0.00488,0.0244,0.05368,-0.00488,0.01464,0.01464,-0.00488
-0.01464,0.00732,0,0.00732,0.01464,-0.01464,0.01464,0.04392,0,0.00488,0.00976,-0.00488
-0.01952,0.0122,-0.00488,0.00488,0.01464,-0.01708,0.00976,0.02928,0,0.01464,0,-0.00488
-0.02928,0.01708,-0.00488,0.00976,0.0244,-0.02684,0.00976,0.03904,0,0.00976,0.00488,0.00976
-0.03904,0.0244,-0.00976,0.00976,0.02928,-0.03416,0.01464,0.03904,0.00976,0.01952,0.00976,0.01464
-0.04392,0.0244,-0.00488,0.01708,0.03904,-0.04148,0.00488,0.03416,0.00976,0.01952,0.00976,0.00488
-0.03904,0.02196,-0.00488,0.01464,0.03416,-0.0366,-0.00488,0.03416,0.00976,0.01952,0.00488,0.00488
-0.03904,0.02196,-0.00488,0.01464,0.03416,-0.0366,0,0.03416,0.01464,0.00976,0,0.00488
-0.0244,0.0122,0,0.0122,0.0244,-0.0244,0.00488,0.03416,0.00488,0,-0.01464,0.00976
-0.0244,0.01464,-0.00488,0.00732,0.01952,-0.02196,0,0.03416,0.00488,0.00488,-0.01464,0.00488
-0.01464,0.00488,0.00488,0.0122,0.01952,-0.01708,-0.00976,0.01952,-0.00488,0,-0.01952,-0.00488
-0.00976,0.00244,0.00488,0.00976,0.01464,-0.0122,-0.0244,0.01464,-0.00488,-0.00488,-0.02928,-0.01952
-0.00976,0.00244,0.00488,0.00976,0.01464,-0.0122,-0.02928,0.01464,0,0,-0.0244,-0.01464
-0.01464,0.00732,0,0.00732,0.01464,-0.01464,-0.02928,0.02928,0,0.01464,-0.01952,-0.01464
-0.01952,0.00732,0.00488,0.01464,0.0244,-0.02196,-0.0244,0.03416,0.00976,0.01952,0.00488,0
-0.02928,0.0122,0.00488,0.01952,0.03416,-0.03172,-0.01952,0.03416,0.00976,0.01952,0.0244,0.00976
-0.02928,0.00976,0.00976,0.0244,0.03904,-0.03416,-0.01464,0.0244,-0.00488,0.01464,0.02928,0.00488
-0.01464,0.00244,0.00976,0.01708,0.0244,-0.01952,-0.01464,0.02928,-0.00488,0.00976,0.00976,0.00488
0,0,0,0,0,0,0,0.03904,-0.00976,0.00976,0,0
0,0.00488,-0.00976,-0.00976,-0.00976,0.00488,0.00976,0.03904,-0.00976,0,0.00488,-0.00976
-0.01464,0.01464,-0.01464,-0.00732,0,-0.00732,0.02928,0.03904,-0.00976,-0.00488,-0.00488,-0.00488
-0.02928,0.01952,-0.00976,0.00488,0.01952,-0.0244,0.02928,0.0488,-0.00488,-0.00488,-0.00976,-0.00488
-0.03416,0.02196,-0.00976,0.00732,0.0244,-0.02928,0.03904,0.06344,0.00976,0.00488,0,-0.00976
-0.02928,0.0244,-0.01952,-0.00488,0.00976,-0.01952,0.0488,0.06344,0.00976,0.00488,-0.00976,-0.00976
-0.02928,0.02196,-0.01464,0,0.01464,-0.02196,0.06344,0.06832,0.00976,0,-0.01464,-0.00488
-0.01952,0.0122,-0.00488,0.00488,0.01464,-0.01708,0.06832,0.06344,0.00976,-0.00488,-0.00488,-0.00976
-0.00976,0.00244,0.00488,0.00976,0.01464,-0.0122,0.0732,0.06344,0,0,-0.00488,-0.0244
-0.00488,0.00244,0,0.00244,0.00488,-0.00488,0.0732,0.06344,0.00488,-0.00976,-0.02928,-0.02928
-0.00488,0.00488,-0.00488,-0.00244,0,-0.00244,0.0732,0.06344,0.00488,-0.00488,-0.03416,-0.03416
-0.01464,0.00976,-0.00488,0.00244,0.00976,-0.0122,0.0732,0.05856,0.00488,-0.00488,-0.03416,-0.03416
-0.01464,0.01464,-0.01464,-0.00732,0,-0.00732,0.07808,0.06344,0.00976,0,-0.01952,-0.0244
-0.0244,0.01708,-0.00976,0.00244,0.01464,-0.01952,0.07808,0.06344,0.00976,0,-0.00976,-0.01464
-0.01952,0.01464,-0.00976,0,0.00976,-0.01464,0.06344,0.06344,0.00976,-0.00488,-0.01464,-0.00976
-0.0244,0.02196,-0.01952,-0.00732,0.00488,-0.01464,0.06344,0.05856,0.00976,-0.00976,-0.01464,-0.00976
-0.03904,0.02684,-0.01464,0.00488,0.0244,-0.03172,0.0488,0.06344,0.00488,-0.00488,-0.02928,-0.01464
-0.03904,0.02684,-0.01464,0.00488,0.0244,-0.03172,0.03904,0.06344,0.00976,-0.00488,-0.0244,-0.01464
-0.01952,0.0122,-0.00488,0.00488,0.01464,-0.01708,0.0244,0.04392,0,-0.00488,-0.00976,-0.00976
-0.01464,0.0122,-0.00976,-0.00244,0.00488,-0.00976,0.01952,0.03904,0.00488,0.00488,-0.01464,-0.01464
-0.0244,0.00976,0.00488,0.01708,0.02928,-0.02684,0.01952,0.02928,0.00488,0.00976,-0.01464,-0.00488
-0.0244,0.00976,0.00488,0.01708,0.02928,-0.02684,0.01464,0.02928,0.00976,0.00976,-0.00488,-0.00488
-0.03416,0.01708,0,0.01708,0.03416,-0.03416,0,0.02928,0.00976,0,-0.00976,-0.00976
-0.0244,0.0122,0,0.0122,0.0244,-0.0244,0.00976,0.0244,0,-0.00488,-0.01952,-0.01464
-0.00976,0,0.00976,0.01464,0.01952,-0.01464,0,0.01952,-0.00488,-0.00488,-0.0244,-0.0244
0.00488,-0.0122,0.01952,0.01708,0.01464,-0.00488,0,0.00488,-0.00488,-0.00488,-0.01952,-0.0244
0.01464,-0.01952,0.0244,0.01708,0.00976,0.00244,0.00976,0.00976,-0.00488,0,-0.0244,-0.03416
0.01464,-0.02684,0.03904,0.03172,0.0244,-0.00488,0.00976,0.00488,-0.00488,0,-0.0244,-0.02928
0.01952,-0.02928,0.03904,0.02928,0.01952,0,0.01464,0.00488,0,-0.01464,-0.0244,-0.02928
0.01952,-0.02928,0.03904,0.02928,0.01952,0,0.00976,0.00488,0,-0.0244,-0.0244,-0.03416
-0.00488,-0.01708,0.03904,0.04148,0.04392,-0.0244,0.01464,0.00488,0.00488,-0.01952,-0.01952,-0.0244
-0.03904,0.00976,0.01952,0.03904,0.05856,-0.0488,0.02928,0.01952,0,-0.00976,0,-0.00976
-0.03904,0.01464,0.00976,0.02928,0.0488,-0.04392,0.02928,0.01952,0,-0.00976,-0.00976,-0.01952
-0.03904,0.01464,0.00976,0.02928,0.0488,-0.04392,0.02928,0.01952,0,-0.00976,-0.00976,-0.01952
-0.00488,-0.00244,0.00976,0.0122,0.01464,-0.00976,0.02928,0.00488,-0.00976,-0.01952,-0.03416,-0.03416
0.00488,-0.00976,0.01464,0.0122,0.00976,-0.00244,0.01952,0.00488,0,-0.0244,-0.03904,-0.04392
0.01464,-0.01952,0.0244,0.01708,0.00976,0.00244,0.01464,-0.00488,-0.00976,-0.03416,-0.04392,-0.05368
0.03416,-0.02928,0.0244,0.00732,-0.00976,0.02196,0.01464,-0.00488,-0.01464,-0.03416,-0.04392,-0.0488
0.0244,-0.02196,0.01952,0.00732,-0.00488,0.01464,0.01952,0.00488,-0.00976,-0.03416,-0.02928,-0.03416
0.0244,-0.01952,0.01464,0.00244,-0.00976,0.01708,0.0244,0.00488,-0.00976,-0.03416,-0.01952,-0.0244
0.01464,-0.00976,0.00488,-0.00244,-0.00976,0.0122,0.00976,0,-0.00976,-0.02928,-0.02928,-0.03416
0.01952,-0.01464,0.00976,0,-0.00976,0.01464,0.00976,0,-0.00488,-0.01952,-0.03904,-0.04392
0.02928,-0.02684,0.0244,0.00976,-0.00488,0.01708,0,-0.00976,-0.01952,-0.03416,-0.05368,-0.05856
0.03416,-0.02928,0.0244,0.00732,-0.00976,0.02196,0,-0.00976,-0.02928,-0.0488,-0.06344,-0.06344
0.02928,-0.02928,0.02928,0.01464,0,0.01464,0.00976,-0.00976,-0.03416,-0.05856,-0.05368,-0.0488
0.03904,-0.03416,0.02928,0.00976,-0.00976,0.0244,0.00976,-0.00976,-0.03416,-0.05856,-0.05368,-0.0488
0.03904,-0.02928,0.01952,0,-0.01952,0.02928,0.01952,-0.00976,-0.03416,-0.04392,-0.0488,-0.0488
0.03904,-0.03172,0.0244,0.00488,-0.01464,0.02684,0.01952,-0.00976,-0.02928,-0.04392,-0.0488,-0.0488
0.0488,-0.0366,0.0244,0,-0.0244,0.0366,0.0244,-0.01464,-0.04392,-0.05368,-0.05368,-0.05368
0.05856,-0.04392,0.02928,0,-0.02928,0.04392,0.01952,-0.01464,-0.04392,-0.06344,-0.05368,-0.05856
0.0488,-0.03416,0.01952,-0.00488,-0.02928,0.03904,0.02928,-0.01464,-0.04392,-0.0488,-0.0488,-0.06832
0.0488,-0.03416,0.01952,-0.00488,-0.02928,0.03904,0.02928,-0.00976,-0.04392,-0.0488,-0.06832,-0.0732
0.0488,-0.02928,0.00976,-0.01464,-0.03904,0.04392,0.03904,-0.00488,-0.03416,-0.04392,-0.07808,-0.07808
0.04392,-0.02684,0.00976,-0.0122,-0.03416,0.03904,0.03904,-0.00488,-0.03416,-0.04392,-0.06832,-0.07808
0.02928,-0.01464,0,-0.01464,-0.02928,0.02928,0.02928,0,-0.03416,-0.03416,-0.05368,-0.06344
0.00976,-0.00244,-0.00488,-0.00976,-0.01464,0.0122,0.02928,0.00976,-0.0244,-0.03904,-0.0488,-0.05856
-0.00488,0.00244,0,0.00244,0.00488,-0.00488,0.01464,0.00488,-0.03416,-0.0488,-0.04392,-0.04392
-0.00488,0,0.00488,0.00732,0.00976,-0.00732,-0.00488,0.00488,-0.03416,-0.04392,-0.03416,-0.03416
0.00488,-0.00976,0.01464,0.0122,0.00976,-0.00244,-0.00488,-0.00488,-0.01952,-0.05368,-0.03904,-0.03904
0.01464,-0.01952,0.0244,0.01708,0.00976,0.00244,0,-0.00488,-0.0244,-0.05368,-0.03904,-0.03904
0.00976,-0.01464,0.01952,0.01464,0.00976,0,0,-0.00488,-0.01464,-0.04392,-0.02928,-0.03904
0,-0.0122,0.0244,0.0244,0.0244,-0.0122,0,-0.00488,-0.01464,-0.03416,-0.03416,-0.03904
-0.00976,-0.00244,0.01464,0.01952,0.0244,-0.01708,0,0.00488,-0.00976,-0.0244,-0.0244,-0.03416
-0.00488,-0.00488,0.01464,0.01708,0.01952,-0.0122,0.00488,0,-0.00976,-0.01952,-0.01464,-0.03416
0.01952,-0.02684,0.03416,0.0244,0.01464,0.00244,0.00488,-0.00976,-0.00976,-0.02928,-0.03416,-0.03416
0.02928,-0.04148,0.05368,0.03904,0.0244,0.00244,0.00488,-0.00976,-0.00976,-0.0244,-0.03904,-0.02928
0.0244,-0.04148,0.05856,0.04636,0.03416,-0.00488,0.01952,0,0,-0.01952,-0.03904,-0.03904
0.0244,-0.04148,0.05856,0.04636,0.03416,-0.00488,0.0244,0,0,-0.01952,-0.03904,-0.03904
0.01952,-0.0366,0.05368,0.04392,0.03416,-0.00732,0.02928,0,-0.00976,-0.01464,-0.03416,-0.02928
0.00976,-0.02928,0.0488,0.04392,0.03904,-0.01464,0.02928,0,-0.00488,-0.01464,-0.0244,-0.02928
0.0244,-0.03904,0.05368,0.04148,0.02928,-0.00244,0.02928,-0.00488,-0.01952,-0.0244,-0.01464,-0.03904
0.04392,-0.05124,0.05856,0.0366,0.01464,0.01464,0.01952,-0.00488,-0.01952,-0.04392,-0.0244,-0.04392
0.05368,-0.061,0.06832,0.04148,0.01464,0.01952,0.02928,-0.01464,-0.01952,-0.04392,-0.04392,-0.06344
0.0244,-0.02684,0.02928,0.01708,0.00488,0.00976,0.03904,0,-0.03416,-0.04392,-0.05856,-0.05368
0.00976,-0.00244,-0.00488,-0.00976,-0.01464,0.0122,0.04392,0.00488,-0.03904,-0.07808,-0.0976,-0.0976
-0.00488,0.03172,-0.05856,-0.05612,-0.05368,0.0244,0.06344,0.02928,-0.08784,-0.12688,-0.14152,-0.1464
-0.00488,0.02684,-0.0488,-0.04636,-0.04392,0.01952,0.0732,0.03904,-0.06832,-0.08784,-0.07808,-0.0976
-0.02928,0.02196,-0.01464,0,0.01464,-0.02196,0.0732,0.08296,0.02928,0.01464,0.01952,0.01952
-0.0732,0.0488,-0.0244,0.0122,0.0488,-0.061,0.05856,0.12688,0.0976,0.10248,0.08784,0.08784
-0.07808,0.0244,0.02928,0.06832,0.10736,-0.09272,0.00488,0.10248,0.19032,0.22448,0.20008,0.20496
-0.0732,-0.02928,0.13176,0.16836,0.20496,-0.13908,-0.04392,-0.01464,0.29768,0.35136,0.3416,0.35136
-0.1708,0.03416,0.10248,0.18788,0.27328,-0.22204,-0.13176,-0.1464,0.39528,0.47336,0.46848,0.49776
-0.27816,0.06832,0.14152,0.2806,0.41968,-0.34892,-0.24888,-0.24888,0.52704,0.63928,0.66368,0.68808
-0.34648,0.06588,0.21472,0.38796,0.5612,-0.45384,-0.3172,-0.25864,0.64416,0.7808,0.82472,0.85888
-0.32696,0.0366,0.25376,0.41724,0.58072,-0.45384,-0.32208,-0.20984,0.6588,0.81008,0.84424,0.8784
-0.16592,-0.10004,0.366,0.44896,0.53192,-0.34892,-0.25864,-0.2196,0.5612,0.67344,0.70272,0.73688
0.1464,-0.34892,0.55144,0.47824,0.40504,-0.12932,-0.19032,-0.3416,0.44408,0.51728,0.55632,0.59536
0.32208,-0.44408,0.56608,0.40504,0.244,0.03904,-0.1708,-0.42944,0.25864,0.2928,0.33672,0.38552
0.35624,-0.38552,0.4148,0.23668,0.05856,0.14884,-0.15616,-0.4392,0.08296,0.0976,0.13176,0.18544
0.33184,-0.30256,0.27328,0.10736,-0.05856,0.1952,-0.13664,-0.4148,-0.0488,-0.03904,0.00976,0.0488
0.20984,-0.16104,0.11224,0.00732,-0.0976,0.15372,-0.09272,-0.25864,-0.0732,-0.08784,-0.0488,-0.0244
0.13176,-0.08296,0.03416,-0.03172,-0.0976,0.11468,-0.0488,-0.13664,-0.06344,-0.07808,-0.0732,-0.04392
0.08296,-0.0488,0.01464,-0.02684,-0.06832,0.07564,-0.03904,-0.0732,-0.0488,-0.06344,-0.08296,-0.07808
0.03416,-0.00976,-0.01464,-0.03172,-0.0488,0.04148,-0.03904,-0.03904,-0.03904,-0.06344,-0.07808,-0.0732
0.01464,-0.00244,-0.00976,-0.01708,-0.0244,0.01952,-0.03416,-0.0244,-0.03904,-0.05856,-0.0488,-0.04392
0.02928,-0.01708,0.00488,-0.00976,-0.0244,0.02684,-0.03416,-0.02928,-0.03416,-0.06344,-0.04392,-0.03904
0.0244,-0.02196,0.01952,0.00732,-0.00488,0.01464,-0.04392,-0.02928,-0.03904,-0.06832,-0.02928,-0.04392
0.01464,-0.01464,0.01464,0.00732,0,0.00732,-0.04392,-0.0244,-0.03904,-0.05856,-0.02928,-0.0488
0.01952,-0.01708,0.01464,0.00488,-0.00488,0.0122,-0.03904,-0.0244,-0.03904,-0.0488,-0.02928,-0.04392
0.0244,-0.01952,0.01464,0.00244,-0.00976,0.01708,-0.0244,-0.0244,-0.03416,-0.0488,-0.02928,-0.0488
0.02928,-0.03172,0.03416,0.01952,0.00488,0.0122,-0.00488,-0.0244,-0.01952,-0.05856,-0.03904,-0.03904
0.02928,-0.0366,0.04392,0.02928,0.01464,0.00732,-0.00488,-0.0244,-0.0244,-0.05856,-0.04392,-0.03904
0.02928,-0.04148,0.05368,0.03904,0.0244,0.00244,0.00488,-0.0244,-0.02928,-0.05856,-0.05368,-0.05368
0.02928,-0.0366,0.04392,0.02928,0.01464,0.00732,0.00488,-0.02928,-0.02928,-0.05856,-0.06344,-0.05856
0.04392,-0.04148,0.03904,0.01708,-0.00488,0.0244,0.01464,-0.02928,-0.0244,-0.05856,-0.06832,-0.05856
0.0488,-0.05124,0.05368,0.02928,0.00488,0.02196,0.00976,-0.03416,-0.04392,-0.06344,-0.06344,-0.05856
0.03904,-0.04148,0.04392,0.0244,0.00488,0.01708,0.01952,-0.0244,-0.03416,-0.05368,-0.05856,-0.05368
0.04392,-0.04636,0.0488,0.02684,0.00488,0.01952,0.01952,-0.02928,-0.03416,-0.05856,-0.05856,-0.06344
0.05368,-0.0488,0.04392,0.01708,-0.00976,0.03172,0.02928,-0.04392,-0.0488,-0.06832,-0.06832,-0.06832
0.05856,-0.05124,0.04392,0.01464,-0.01464,0.0366,0.0244,-0.0488,-0.0488,-0.07808,-0.07808,-0.07808
0.06344,-0.05124,0.03904,0.00732,-0.0244,0.04392,0.0244,-0.03416,-0.0488,-0.09272,-0.0976,-0.08784
0.06344,-0.04392,0.0244,-0.00732,-0.03904,0.05124,0.0244,-0.03416,-0.05368,-0.08784,-0.09272,-0.09272
0.0732,-0.0488,0.0244,-0.0122,-0.0488,0.061,0.02928,-0.0488,-0.05368,-0.08784,-0.0976,-0.10248
0.08296,-0.061,0.03904,-0.00244,-0.04392,0.06344,0.02928,-0.05368,-0.05368,-0.09272,-0.0976,-0.10736
0.08296,-0.05856,0.03416,-0.00732,-0.0488,0.06588,0.0244,-0.04392,-0.05368,-0.09272,-0.09272,-0.10248
0.07808,-0.05612,0.03416,-0.00488,-0.04392,0.061,0.02928,-0.03904,-0.06344,-0.09272,-0.08784,-0.0976
0.0732,-0.0488,0.0244,-0.0122,-0.0488,0.061,0.03416,-0.03904,-0.06344,-0.10248,-0.08296,-0.09272
0.06832,-0.04636,0.0244,-0.00976,-0.04392,0.05612,0.02928,-0.03904,-0.06832,-0.0976,-0.09272,-0.0976
0.08296,-0.05856,0.03416,-0.00732,-0.0488,0.06588,0.03416,-0.05856,-0.07808,-0.10736,-0.10736,-0.0976
0.08296,-0.05612,0.02928,-0.0122,-0.05368,0.06832,0.02928,-0.05856,-0.07808,-0.10736,-0.10736,-0.10248
0.07808,-0.0488,0.01952,-0.01952,-0.05856,0.06832,0.0244,-0.06344,-0.08784,-0.11224,-0.0976,-0.10248
0.08296,-0.05368,0.0244,-0.01708,-0.05856,0.07076,0.0244,-0.06344,-0.08784,-0.11224,-0.09272,-0.0976
0.0732,-0.04392,0.01464,-0.02196,-0.05856,0.06588,0,-0.06344,-0.08784,-0.10736,-0.0976,-0.10736
0.07808,-0.04636,0.01464,-0.0244,-0.06344,0.07076,-0.00488,-0.06832,-0.08784,-0.10736,-0.0976,-0.10736
0.06832,-0.03904,0.00976,-0.0244,-0.05856,0.06344,-0.00488,-0.05856,-0.08296,-0.11224,-0.10248,-0.10736
0.0488,-0.02928,0.00976,-0.01464,-0.03904,0.04392,-0.00976,-0.05856,-0.08296,-0.09272,-0.10736,-0.11224
0.02928,-0.0122,-0.00488,-0.01952,-0.03416,0.03172,-0.01952,-0.05856,-0.06832,-0.09272,-0.11224,-0.11224
0.03904,-0.02196,0.00488,-0.01464,-0.03416,0.0366,-0.02928,-0.05368,-0.06832,-0.09272,-0.11224,-0.11224
0.06344,-0.03172,0,-0.03172,-0.06344,0.06344,-0.03904,-0.05368,-0.08296,-0.0976,-0.11224,-0.11224
0.0732,-0.03904,0.00488,-0.03172,-0.06832,0.07076,-0.05856,-0.06344,-0.08784,-0.11712,-0.10736,-0.11224
0.06344,-0.0366,0.00976,-0.02196,-0.05368,0.05856,-0.07808,-0.06832,-0.07808,-0.11712,-0.10248,-0.10248
0.05368,-0.02928,0.00488,-0.02196,-0.0488,0.05124,-0.07808,-0.06832,-0.06832,-0.10736,-0.09272,-0.08784
0.03416,-0.02196,0.00976,-0.00732,-0.0244,0.02928,-0.08296,-0.06344,-0.05856,-0.09272,-0.07808,-0.07808
0.00976,-0.01464,0.01952,0.01464,0.00976,0,-0.07808,-0.06344,-0.05368,-0.08784,-0.0732,-0.06344
-0.00488,-0.00244,0.00976,0.0122,0.01464,-0.00976,-0.06832,-0.05856,-0.03904,-0.06832,-0.07808,-0.06344
-0.0244,0.00976,0.00488,0.01708,0.02928,-0.02684,-0.06344,-0.04392,-0.03416,-0.06832,-0.07808,-0.0732
-0.03904,0.01708,0.00488,0.0244,0.04392,-0.04148,-0.06344,-0.03416,-0.02928,-0.06832,-0.06832,-0.0732
-0.0488,0.02684,-0.00488,0.01952,0.04392,-0.04636,-0.06832,-0.02928,-0.02928,-0.06832,-0.06832,-0.06344
-0.03904,0.02684,-0.01464,0.00488,0.0244,-0.03172,-0.06344,-0.01952,-0.04392,-0.0732,-0.06832,-0.05368
-0.04392,0.03172,-0.01952,0.00244,0.0244,-0.03416,-0.05368,-0.01952,-0.05368,-0.07808,-0.0488,-0.05368
-0.03904,0.03904,-0.03904,-0.01952,0,-0.01952,-0.0488,-0.01952,-0.05856,-0.08296,-0.0488,-0.06832
-0.04392,0.04148,-0.03904,-0.01708,0.00488,-0.0244,-0.0488,-0.01464,-0.05856,-0.08296,-0.06344,-0.06832
-0.05856,0.05368,-0.0488,-0.01952,0.00976,-0.03416,-0.0488,-0.00976,-0.05856,-0.09272,-0.0732,-0.07808
-0.06344,0.06344,-0.06344,-0.03172,0,-0.03172,-0.05856,-0.00488,-0.06832,-0.10248,-0.09272,-0.08784
-0.06344,0.0732,-0.08296,-0.05124,-0.01952,-0.02196,-0.0488,-0.01464,-0.0732,-0.10736,-0.11224,-0.0976
-0.05856,0.07564,-0.09272,-0.06344,-0.03416,-0.0122,-0.06344,-0.00976,-0.08784,-0.11712,-0.122,-0.11224
-0.0732,0.09028,-0.10736,-0.07076,-0.03416,-0.01952,-0.06344,0,-0.09272,-0.12688,-0.13176,-0.11224
-0.07808,0.0976,-0.11712,-0.07808,-0.03904,-0.01952,-0.06832,0.00488,-0.09272,-0.12688,-0.12688,-0.11224
-0.09272,0.10736,-0.122,-0.07564,-0.02928,-0.03172,-0.05368,0.01464,-0.10248,-0.11712,-0.11224,-0.0976
-0.0976,0.10736,-0.11712,-0.06832,-0.01952,-0.03904,-0.0488,0.01464,-0.09272,-0.10736,-0.10736,-0.09272
-0.0976,0.10736,-0.11712,-0.06832,-0.01952,-0.03904,-0.04392,0.00976,-0.07808,-0.09272,-0.08784,-0.09272
-0.09272,0.10492,-0.11712,-0.07076,-0.0244,-0.03416,-0.03904,0.00976,-0.0732,-0.08784,-0.06832,-0.08296
-0.0732,0.09516,-0.11712,-0.08052,-0.04392,-0.01464,-0.0488,0.01464,-0.07808,-0.08784,-0.06344,-0.07808
-0.0732,0.10004,-0.12688,-0.09028,-0.05368,-0.00976,-0.04392,0.01952,-0.07808,-0.07808,-0.06832,-0.0732
-0.09272,0.11468,-0.13664,-0.09028,-0.04392,-0.0244,-0.03416,0.01952,-0.06344,-0.08296,-0.06832,-0.06344
-0.08784,0.11468,-0.14152,-0.0976,-0.05368,-0.01708,-0.02928,0.0244,-0.06344,-0.06832,-0.05856,-0.05856
-0.08296,0.11224,-0.14152,-0.10004,-0.05856,-0.0122,-0.01952,0.0244,-0.05856,-0.06832,-0.05368,-0.05856
-0.08296,0.10492,-0.12688,-0.0854,-0.04392,-0.01952,-0.01952,0.02928,-0.0488,-0.05856,-0.05368,-0.0488
-0.07808,0.0976,-0.11712,-0.07808,-0.03904,-0.01952,-0.00488,0.04392,-0.03904,-0.0488,-0.04392,-0.04392
-0.06344,0.08296,-0.10248,-0.07076,-0.03904,-0.0122,0,0.03904,-0.0244,-0.03904,-0.03904,-0.03416
-0.06344,0.07564,-0.08784,-0.05612,-0.0244,-0.01952,0.00976,0.03904,-0.0244,-0.03416,-0.02928,-0.03904
-0.06832,0.07564,-0.08296,-0.0488,-0.01464,-0.02684,0.01952,0.05368,-0.01952,-0.03904,-0.02928,-0.03416
-0.05856,0.06344,-0.06832,-0.03904,-0.00976,-0.0244,0.01952,0.04392,-0.00976,-0.02928,-0.03416,-0.04392
-0.05856,0.061,-0.06344,-0.03416,-0.00488,-0.02684,0.00976,0.0488,-0.00488,-0.0244,-0.02928,-0.03416
-0.05368,0.05124,-0.0488,-0.02196,0.00488,-0.02928,0.01464,0.05368,-0.00488,-0.0244,-0.0244,-0.03416
-0.06344,0.05368,-0.04392,-0.0122,0.01952,-0.04148,0.00488,0.05856,0,-0.01952,-0.0244,-0.03416
-0.0732,0.05856,-0.04392,-0.00732,0.02928,-0.05124,-0.00488,0.05856,0.00976,-0.01952,-0.00976,-0.0244
-0.0732,0.061,-0.0488,-0.0122,0.0244,-0.0488,-0.00488,0.05856,0.00976,-0.01464,0.00488,-0.00976
-0.0488,0.04148,-0.03416,-0.00976,0.01464,-0.03172,-0.01952,0.04392,0.01952,-0.00976,0.00976,0.00976
-0.03904,0.02684,-0.01464,0.00488,0.0244,-0.03172,-0.03416,0.0244,0.01952,-0.00976,0.00488,0.00976
-0.03904,0.01952,0,0.01952,0.03904,-0.03904,-0.0488,0.01464,0.0244,-0.00488,0,0.00976
-0.03904,0.01464,0.00976,0.02928,0.0488,-0.04392,-0.0488,0.01464,0.03904,0.00488,0.00488,0.00976
-0.04392,0.00976,0.0244,0.04636,0.06832,-0.05612,-0.04392,0.01952,0.03416,0.01464,0.00976,0.00976
-0.0488,0.01708,0.01464,0.03904,0.06344,-0.05612,-0.03904,0.01952,0.03904,0.01464,0.00976,0.00976
-0.04392,0.01708,0.00976,0.03172,0.05368,-0.0488,-0.02928,0.01952,0.05368,0.01464,0,0.00976
-0.03416,0.0122,0.00976,0.02684,0.04392,-0.03904,-0.03904,0.01952,0.04392,0.00976,0,0.00488
-0.0244,0.00244,0.01952,0.03172,0.04392,-0.03416,-0.0244,0.02928,0.05368,0.0244,0.00976,0.01464
-0.03904,0.00488,0.02928,0.0488,0.06832,-0.05368,-0.01464,0.02928,0.05856,0.03416,0.01464,0.01464
-0.04392,0.00976,0.0244,0.04636,0.06832,-0.05612,0,0.03416,0.06832,0.04392,0.00976,0.00488
-0.04392,0.00976,0.0244,0.04636,0.06832,-0.05612,0,0.05368,0.06832,0.03904,0.01464,0.01952
-0.0244,0,0.0244,0.0366,0.0488,-0.0366,0,0.0488,0.05856,0.03416,0.01464,0.0244
-0.01952,0,0.01952,0.02928,0.03904,-0.02928,0,0.04392,0.05856,0.0244,0.00488,0.01464
-0.01952,-0.00244,0.0244,0.03416,0.04392,-0.03172,0.01464,0.05368,0.05856,0.0244,0.00976,0.0244
-0.03904,0.00732,0.0244,0.04392,0.06344,-0.05124,0.01952,0.05368,0.06344,0.0244,0.01464,0.0244
-0.05368,0.0122,0.02928,0.05612,0.08296,-0.06832,0.02928,0.05856,0.0732,0.03416,0.0244,0.02928
-0.05368,0.01464,0.0244,0.05124,0.07808,-0.06588,0.03416,0.06832,0.0732,0.0488,0.0244,0.0244
-0.06344,0.02196,0.01952,0.05124,0.08296,-0.0732,0.04392,0.06832,0.0732,0.03904,0.03416,0.02928
-0.05856,0.0244,0.00976,0.03904,0.06832,-0.06344,0.03904,0.06344,0.0732,0.03416,0.03416,0.0244
-0.05368,0.0244,0.00488,0.03172,0.05856,-0.05612,0.03904,0.05856,0.06344,0.02928,0.0244,0.01464
-0.0488,0.0244,0,0.0244,0.0488,-0.0488,0.03904,0.06344,0.05368,0.0244,0.02928,0.01464
-0.03416,0.01464,0.00488,0.02196,0.03904,-0.0366,0.04392,0.05368,0.0488,0.00976,0.01952,0.00976
-0.01464,0.00488,0.00488,0.0122,0.01952,-0.01708,0.0488,0.05368,0.0488,0.00976,0.00976,0
-0.01464,0.00732,0,0.00732,0.01464,-0.01464,0.06344,0.06344,0.03416,0.01464,0.00488,-0.01464
-0.00976,0.00488,0,0.00488,0.00976,-0.00976,0.06344,0.06832,0.03416,0.00976,-0.00488,-0.01464
0,0.00244,-0.00488,-0.00488,-0.00488,0.00244,0.06344,0.05856,0.03904,0,-0.00976,-0.01464
0,0.00244,-0.00488,-0.00488,-0.00488,0.00244,0.06344,0.05856,0.03904,-0.00976,-0.00488,-0.01464
0,0.00488,-0.00976,-0.00976,-0.00976,0.00488,0.06832,0.06344,0.0244,-0.00488,-0.00976,-0.01464
-0.00488,0.00976,-0.01464,-0.0122,-0.00976,0.00244,0.06832,0.06344,0.01952,-0.00488,-0.00488,-0.01464
-0.01464,0.01708,-0.01952,-0.0122,-0.00488,-0.00488,0.08296,0.0732,0.02928,-0.00488,0,-0.01952
-0.00976,0.01952,-0.02928,-0.0244,-0.01952,0.00488,0.08296,0.0732,0.02928,-0.00488,-0.00976,-0.01952
-0.00488,0.01464,-0.0244,-0.02196,-0.01952,0.00732,0.07808,0.05856,0.01952,-0.01952,-0.01952,-0.0244
-0.00488,0.00976,-0.01464,-0.0122,-0.00976,0.00244,0.0732,0.05368,0.01952,-0.0244,-0.01952,-0.02928
-0.01464,0.01464,-0.01464,-0.00732,0,-0.00732,0.0732,0.06344,0.01952,-0.01464,-0.01464,-0.01952
-0.01952,0.01952,-0.01952,-0.00976,0,-0.00976,0.0732,0.06344,0.0244,-0.01464,-0.01952,-0.01464
-0.0244,0.01464,-0.00488,0.00732,0.01952,-0.02196,0.06832,0.05368,0.0244,-0.00976,-0.00488,-0.0244
-0.03416,0.01952,-0.00488,0.0122,0.02928,-0.03172,0.05856,0.0488,0.0244,0,-0.00488,-0.0244
-0.02928,0.01464,0,0.01464,0.02928,-0.02928,0.02928,0.03904,0.03416,0.00976,-0.01464,-0.00976
-0.02928,0.00732,0.01464,0.02928,0.04392,-0.0366,0.00976,0.02928,0.04392,0.00976,-0.01464,-0.00976
-0.01952,0.00244,0.01464,0.0244,0.03416,-0.02684,-0.01464,0.01464,0.02928,0.00488,-0.01464,-0.00976
-0.0244,0.00488,0.01464,0.02684,0.03904,-0.03172,-0.03416,0.00976,0.02928,0,-0.01464,-0.00976
-0.02928,0.00976,0.00976,0.0244,0.03904,-0.03416,-0.04392,0.00488,0.01464,-0.01464,-0.01952,-0.0244
-0.02928,0.01464,0,0.01464,0.02928,-0.02928,-0.04392,0.00488,0.01952,-0.01464,-0.01464,-0.0244
-0.01464,0.00976,-0.00488,0.00244,0.00976,-0.0122,-0.03416,0.00488,0.01952,-0.02928,-0.01952,-0.01952
0,0.00488,-0.00976,-0.00976,-0.00976,0.00488,-0.03904,0,0.0244,-0.02928,-0.0244,-0.0244
-0.00488,0.00976,-0.01464,-0.0122,-0.00976,0.00244,-0.02928,0.00976,0.01464,-0.01952,-0.0244,-0.0244
-0.00488,0.00976,-0.01464,-0.0122,-0.00976,0.00244,-0.03416,0.00976,0.01952,-0.01952,-0.01464,-0.0244
-0.0244,0.01708,-0.00976,0.00244,0.01464,-0.01952,-0.02928,0.0244,0.0244,-0.00488,0.00488,-0.01464
-0.03416,0.02196,-0.00976,0.00732,0.0244,-0.02928,-0.01952,0.02928,0.0244,0,0.00488,-0.00976
-0.02928,0.02196,-0.01464,0,0.01464,-0.02196,-0.01952,0.0244,0.02928,-0.00488,-0.00488,-0.00488
-0.01464,0.01464,-0.01464,-0.00732,0,-0.00732,-0.01952,0.01952,0.01952,-0.00488,0,-0.00488
0.00976,0,-0.00976,-0.01464,-0.01952,0.01464,-0.00976,0.01464,0.01952,-0.01952,-0.01464,-0.00976
0.01952,-0.01708,0.01464,0.00488,-0.00488,0.0122,-0.00976,0,0.00976,-0.01952,-0.01464,-0.01464
0.0244,-0.01708,0.00976,-0.00244,-0.01464,0.01952,0.00488,0.00488,0.01952,-0.00976,-0.01464,-0.00976
0.01464,-0.0122,0.00976,0.00244,-0.00488,0.00976,0,0.00488,0.01952,-0.00976,-0.01464,-0.01464
-0.00488,0.00244,0,0.00244,0.00488,-0.00488,0.01464,0.01952,0.03416,-0.00976,-0.01952,-0.01464
-0.02928,0.01708,-0.00488,0.00976,0.0244,-0.02684,0.01952,0.0244,0.03416,-0.00976,-0.01952,-0.00976
-0.0488,0.01708,0.01464,0.03904,0.06344,-0.05612,0.02928,0.01952,0.0244,-0.00488,-0.01464,-0.00488
-0.04392,0.0122,0.01952,0.04148,0.06344,-0.05368,0.02928,0.01952,0.01952,-0.01464,-0.00976,-0.00976
-0.0244,0,0.0244,0.0366,0.0488,-0.0366,0.02928,0.00976,0.01952,-0.00488,-0.00976,-0.01464
-0.00488,-0.01464,0.03416,0.0366,0.03904,-0.02196,0.02928,0.00488,0.01464,-0.00488,-0.01952,-0.01464
0.01464,-0.02684,0.03904,0.03172,0.0244,-0.00488,0.04392,0.01464,0.01464,-0.01464,-0.03416,-0.0244
0.01952,-0.02928,0.03904,0.02928,0.01952,0,0.04392,0.01464,0.01464,-0.01464,-0.03904,-0.03416
0.01464,-0.0244,0.03416,0.02684,0.01952,-0.00244,0.04392,0.00976,0.00488,-0.01952,-0.03416,-0.03416
0.00976,-0.01708,0.0244,0.01952,0.01464,-0.00244,0.03904,0.00976,0.00488,-0.03416,-0.03416,-0.03416
0.01952,-0.01708,0.01464,0.00488,-0.00488,0.0122,0.0488,0.00976,0.00488,-0.03416,-0.04392,-0.02928
0.01952,-0.01464,0.00976,0,-0.00976,0.01464,0.0488,0.00976,-0.00976,-0.03416,-0.03904,-0.02928
0.01464,-0.01708,0.01952,0.0122,0.00488,0.00488,0.03904,0,-0.00976,-0.0244,-0.02928,-0.0244
0.01952,-0.02928,0.03904,0.02928,0.01952,0,0.03904,0,-0.00488,-0.0244,-0.01952,-0.01952
0.03416,-0.04636,0.05856,0.04148,0.0244,0.00488,0.02928,-0.00488,0.00488,-0.02928,-0.00488,-0.01464
0.0244,-0.05124,0.07808,0.06588,0.05368,-0.01464,0.03416,-0.00488,0.00976,-0.02928,-0.00976,-0.00976
0.01952,-0.05124,0.08296,0.0732,0.06344,-0.02196,0.0244,0.00488,0.00976,-0.02928,-0.03904,-0.01952
0.01952,-0.04636,0.0732,0.06344,0.05368,-0.01708,0.0244,0.00488,0.00976,-0.03416,-0.03416,-0.0244
0.00976,-0.03172,0.05368,0.0488,0.04392,-0.01708,0.0244,0.00488,0.01952,-0.02928,-0.0244,-0.01952
0.00488,-0.03172,0.05856,0.05612,0.05368,-0.0244,0.02928,0.00488,0.01952,-0.01464,-0.0244,-0.01952
-0.00488,-0.02684,0.05856,0.061,0.06344,-0.03416,0.01464,0.00488,0.00488,-0.01464,-0.01464,-0.00976
-0.01464,-0.0244,0.06344,0.07076,0.07808,-0.04636,0.00976,-0.00488,0.00488,-0.0244,-0.01464,-0.00976
-0.01464,-0.0244,0.06344,0.07076,0.07808,-0.04636,0.00976,-0.00488,0,-0.02928,-0.0244,-0.01952
0,-0.03172,0.06344,0.06344,0.06344,-0.03172,0.01464,-0.00488,0.00488,-0.02928,-0.0244,-0.02928
0.01952,-0.04148,0.06344,0.05368,0.04392,-0.0122,0,-0.01952,-0.00488,-0.03416,-0.03416,-0.03416
0.02928,-0.04636,0.06344,0.0488,0.03416,-0.00244,-0.00976,-0.02928,-0.00488,-0.0244,-0.03416,-0.03416
0.0244,-0.04392,0.06344,0.05124,0.03904,-0.00732,-0.01464,-0.02928,-0.01464,-0.03416,-0.04392,-0.04392
0.01952,-0.04392,0.06832,0.05856,0.0488,-0.01464,-0.01464,-0.02928,-0.01464,-0.03416,-0.03416,-0.03904
-0.01952,-0.0244,0.06832,0.07808,0.08784,-0.05368,-0.01952,-0.01952,0,-0.0244,-0.0488,-0.03416
0.00976,-0.0366,0.06344,0.05856,0.05368,-0.02196,-0.01952,-0.02928,-0.00976,-0.03904,-0.03904,-0.02928
0.00976,-0.03172,0.05368,0.0488,0.04392,-0.01708,-0.01952,-0.02928,-0.00976,-0.03904,-0.03904,-0.02928
0.01464,-0.02684,0.03904,0.03172,0.0244,-0.00488,-0.01952,-0.02928,-0.01952,-0.0488,-0.03416,-0.01952
0.0244,-0.03172,0.03904,0.02684,0.01464,0.00488,-0.01952,-0.02928,-0.01952,-0.0488,-0.0244,-0.01952
0.0244,-0.02684,0.02928,0.01708,0.00488,0.00976,-0.01952,-0.0244,-0.01952,-0.04392,-0.01952,-0.02928
0.01464,-0.02196,0.02928,0.02196,0.01464,0,-0.01952,-0.01464,-0.01952,-0.03416,-0.01952,-0.02928
0,-0.01464,0.02928,0.02928,0.02928,-0.01464,-0.00976,-0.00976,-0.01952,-0.03904,-0.0244,-0.03904
0,-0.01464,0.02928,0.02928,0.02928,-0.01464,-0.00976,-0.00976,-0.01952,-0.03904,-0.03416,-0.03904
0.00976,-0.0244,0.03904,0.03416,0.02928,-0.00976,0,-0.00976,-0.01952,-0.0488,-0.02928,-0.02928
0.00976,-0.0244,0.03904,0.03416,0.02928,-0.00976,0,-0.00976,-0.01952,-0.0488,-0.02928,-0.02928
0.01464,-0.0244,0.03416,0.02684,0.01952,-0.00244,0.00976,-0.00976,-0.01952,-0.05856,-0.02928,-0.03904
0.0244,-0.0244,0.0244,0.0122,0,0.0122,0.00976,-0.00976,-0.01952,-0.05856,-0.02928,-0.03904
0.02928,-0.0244,0.01952,0.00488,-0.00976,0.01952,0,-0.00976,-0.02928,-0.05856,-0.03416,-0.0488
0.02928,-0.0244,0.01952,0.00488,-0.00976,0.01952,0,-0.00976,-0.02928,-0.05856,-0.04392,-0.0488
0.01952,-0.01952,0.01952,0.00976,0,0.00976,0.00976,-0.00976,-0.03904,-0.05856,-0.0488,-0.0488
0.01952,-0.01952,0.01952,0.00976,0,0.00976,0.00976,-0.00976,-0.03904,-0.05856,-0.0488,-0.0488
0.00488,-0.0122,0.01952,0.01708,0.01464,-0.00488,0.01952,0,-0.02928,-0.0488,-0.0488,-0.05856
-0.00488,-0.00732,0.01952,0.02196,0.0244,-0.01464,0.01952,0,-0.02928,-0.0488,-0.0488,-0.05856
-0.00488,-0.00244,0.00976,0.0122,0.01464,-0.00976,0.0244,0,-0.02928,-0.05856,-0.05368,-0.05856
0.00488,-0.00732,0.00976,0.00732,0.00488,0,0.03416,0,-0.02928,-0.05856,-0.06344,-0.05856
0.01952,-0.01952,0.01952,0.00976,0,0.00976,0.03904,0,-0.02928,-0.05856,-0.06344,-0.0488
0.01952,-0.02928,0.03904,0.02928,0.01952,0,0.03904,0,-0.02928,-0.05856,-0.05368,-0.0488
0.00976,-0.03172,0.05368,0.0488,0.04392,-0.01708,0.03904,0,-0.01464,-0.05368,-0.04392,-0.04392
0.00976,-0.0366,0.06344,0.05856,0.05368,-0.02196,0.03904,0,-0.00488,-0.04392,-0.03416,-0.03416
0,-0.03416,0.06832,0.06832,0.06832,-0.03416,0.03416,0,-0.00976,-0.02928,-0.0244,-0.0244
0,-0.03416,0.06832,0.06832,0.06832,-0.03416,0.0244,0,-0.00976,-0.02928,-0.01464,-0.01464
0.01464,-0.04636,0.07808,0.07076,0.06344,-0.0244,0.01464,-0.00488,-0.01952,-0.03416,-0.01464,-0.01464
0.0244,-0.05124,0.07808,0.06588,0.05368,-0.01464,0.00488,-0.01464,-0.01952,-0.04392,-0.0244,-0.0244
0.03904,-0.05368,0.06832,0.0488,0.02928,0.00488,-0.00488,-0.02928,-0.01952,-0.0488,-0.03416,-0.03904
0.03904,-0.05368,0.06832,0.0488,0.02928,0.00488,-0.01464,-0.02928,-0.01952,-0.0488,-0.04392,-0.03904
0.03416,-0.05612,0.07808,0.061,0.04392,-0.00488,-0.01952,-0.02928,-0.02928,-0.03904,-0.03904,-0.02928
0.0244,-0.05124,0.07808,0.06588,0.05368,-0.01464,-0.01952,-0.02928,-0.02928,-0.03904,-0.03904,-0.02928
0.01464,-0.04636,0.07808,0.07076,0.06344,-0.0244,-0.01952,-0.02928,-0.01952,-0.03904,-0.02928,-0.02928
0.00488,-0.04148,0.07808,0.07564,0.0732,-0.03416,-0.01952,-0.02928,-0.01952,-0.03904,-0.02928,-0.02928
-0.00976,-0.02928,0.06832,0.0732,0.07808,-0.04392,-0.01952,-0.01952,-0.01952,-0.02928,-0.01952,-0.01952
-0.00976,-0.02928,0.06832,0.0732,0.07808,-0.04392,-0.01952,-0.01952,-0.01952,-0.02928,-0.01952,-0.01952
0,-0.03172,0.06344,0.06344,0.06344,-0.03172,-0.00976,-0.01952,-0.01952,-0.02928,-0.01952,-0.01952
0,-0.02684,0.05368,0.05368,0.05368,-0.02684,-0.00976,-0.01952,-0.01952,-0.02928,-0.01952,-0.01952
0.00976,-0.02928,0.0488,0.04392,0.03904,-0.01464,-0.01464,-0.01952,-0.02928,-0.03416,-0.03416,-0.0244
0.00976,-0.02928,0.0488,0.04392,0.03904,-0.01464,-0.0244,-0.01952,-0.02928,-0.04392,-0.04392,-0.03416
0.00976,-0.03172,0.05368,0.0488,0.04392,-0.01708,-0.03904,-0.0244,-0.02928,-0.05856,-0.05856,-0.0488
0.00976,-0.0366,0.06344,0.05856,0.05368,-0.02196,-0.03904,-0.03416,-0.02928,-0.05856,-0.05856,-0.0488
0,-0.02928,0.05856,0.05856,0.05856,-0.02928,-0.03904,-0.02928,-0.02928,-0.05368,-0.0488,-0.03904
0,-0.02928,0.05856,0.05856,0.05856,-0.02928,-0.03904,-0.02928,-0.02928,-0.04392,-0.0488,-0.03904
-0.00488,-0.0244,0.05368,0.05612,0.05856,-0.03172,-0.03416,-0.0244,-0.01952,-0.0488,-0.03904,-0.03416
-0.01464,-0.01464,0.04392,0.05124,0.05856,-0.0366,-0.0244,-0.01464,-0.01952,-0.0488,-0.03904,-0.0244
-0.01952,-0.00976,0.03904,0.0488,0.05856,-0.03904,-0.00976,0,-0.02928,-0.0488,-0.0488,-0.02928
-0.01952,-0.00976,0.03904,0.0488,0.05856,-0.03904,-0.00976,0,-0.02928,-0.0488,-0.0488,-0.02928
-0.00488,-0.01464,0.03416,0.0366,0.03904,-0.02196,-0.00976,-0.00488,-0.03904,-0.05856,-0.05856,-0.03904
0.0244,-0.0244,0.0244,0.0122,0,0.0122,-0.00976,-0.01464,-0.03904,-0.05856,-0.05856,-0.05856
0.02928,-0.01952,0.00976,-0.00488,-0.01952,0.0244,-0.00488,-0.00976,-0.0488,-0.06832,-0.04392,-0.06344
0.02928,-0.01952,0.00976,-0.00488,-0.01952,0.0244,0.00488,-0.00976,-0.0488,-0.06832,-0.03416,-0.05368
0.01952,-0.00976,0,-0.00976,-0.01952,0.01952,0.01952,0,-0.05856,-0.06832,-0.03904,-0.0488
0.01952,-0.00976,0,-0.00976,-0.01952,0.01952,0.01952,0,-0.05856,-0.06832,-0.03904,-0.0488
0.00976,-0.00732,0.00488,0,-0.00488,0.00732,0.02928,0,-0.05856,-0.06832,-0.0488,-0.05856
0.01952,-0.01708,0.01464,0.00488,-0.00488,0.0122,0.02928,-0.00488,-0.05856,-0.06832,-0.05856,-0.06344
0.01952,-0.0244,0.02928,0.01952,0.00976,0.00488,0.03416,-0.00488,-0.05368,-0.05368,-0.05856,-0.0488
0.00976,-0.0244,0.03904,0.03416,0.02928,-0.00976,0.02928,-0.00488,-0.03416,-0.03904,-0.03904,-0.03904
0.00488,-0.0244,0.04392,0.04148,0.03904,-0.01708,0.0244,-0.00488,-0.0244,-0.04392,-0.0244,-0.02928
0.00488,-0.0244,0.04392,0.04148,0.03904,-0.01708,0.01952,-0.00488,-0.01952,-0.04392,-0.01952,-0.0244
0.00488,-0.03172,0.05856,0.05612,0.05368,-0.0244,0.01464,-0.00488,-0.01952,-0.04392,-0.01952,-0.03416
0.00488,-0.02928,0.05368,0.05124,0.0488,-0.02196,0.00976,-0.00488,-0.01952,-0.04392,-0.01952,-0.03416
0.00488,-0.02684,0.0488,0.04636,0.04392,-0.01952,0.00976,-0.00976,-0.01952,-0.0488,-0.01952,-0.03416
0.00976,-0.03172,0.05368,0.0488,0.04392,-0.01708,0.00976,-0.00976,-0.02928,-0.04392,-0.02928,-0.03904
0.00976,-0.02684,0.04392,0.03904,0.03416,-0.0122,0.00488,-0.01952,-0.02928,-0.05368,-0.02928,-0.05368
0.01464,-0.02684,0.03904,0.03172,0.0244,-0.00488,-0.00488,-0.01952,-0.03416,-0.06344,-0.03904,-0.0488
0.02928,-0.03904,0.0488,0.03416,0.01952,0.00488,-0.01952,-0.02928,-0.03416,-0.06832,-0.05368,-0.0488
0.02928,-0.03904,0.0488,0.03416,0.01952,0.00488,-0.01952,-0.02928,-0.03416,-0.06832,-0.05368,-0.0488
0.01952,-0.03172,0.04392,0.03416,0.0244,-0.00244,-0.00976,-0.01952,-0.02928,-0.06344,-0.03904,-0.03904
0.01464,-0.02928,0.04392,0.0366,0.02928,-0.00732,-0.00488,-0.01952,-0.02928,-0.06344,-0.03904,-0.03904
-0.00488,-0.01708,0.03904,0.04148,0.04392,-0.0244,0.00488,-0.01464,-0.03416,-0.05368,-0.0244,-0.0244
-0.01464,-0.0122,0.03904,0.04636,0.05368,-0.03416,0,-0.01464,-0.02928,-0.05368,-0.01952,-0.01952
-0.01464,-0.01708,0.0488,0.05612,0.06344,-0.03904,-0.00976,-0.01952,-0.03416,-0.05856,-0.03416,-0.0244
0,-0.02196,0.04392,0.04392,0.04392,-0.02196,-0.00976,-0.0244,-0.03416,-0.06344,-0.05368,-0.03904
0.01464,-0.02684,0.03904,0.03172,0.0244,-0.00488,0,-0.01464,-0.03416,-0.0732,-0.05856,-0.05856
0.01464,-0.02684,0.03904,0.03172,0.0244,-0.00488,0,-0.01464,-0.04392,-0.0732,-0.05856,-0.05856
0.02928,-0.03416,0.03904,0.0244,0.00976,0.00976,-0.00976,-0.02928,-0.04392,-0.06832,-0.06344,-0.05368
0.02928,-0.03172,0.03416,0.01952,0.00488,0.0122,-0.00488,-0.02928,-0.04392,-0.06832,-0.05856,-0.0488
0.03416,-0.03904,0.04392,0.02684,0.00976,0.0122,-0.01464,-0.03416,-0.04392,-0.0732,-0.06344,-0.06344
0.03416,-0.04636,0.05856,0.04148,0.0244,0.00488,-0.01464,-0.03416,-0.04392,-0.0732,-0.06832,-0.06344
0.0244,-0.04392,0.06344,0.05124,0.03904,-0.00732,-0.01464,-0.0244,-0.0488,-0.0732,-0.05368,-0.06344
0.02928,-0.04392,0.05856,0.04392,0.02928,0,-0.00976,-0.0244,-0.05368,-0.0732,-0.04392,-0.05368
0.00976,-0.03416,0.05856,0.05368,0.0488,-0.01952,-0.00976,-0.01464,-0.0488,-0.05856,-0.03904,-0.04392
-0.00976,-0.01952,0.0488,0.05368,0.05856,-0.03416,-0.00976,-0.01464,-0.03904,-0.0488,-0.02928,-0.03904
-0.02928,-0.00488,0.03904,0.05368,0.06832,-0.0488,-0.00976,-0.00976,-0.03416,-0.04392,-0.0244,-0.0244
-0.03416,0.00244,0.02928,0.04636,0.06344,-0.0488,-0.00488,-0.00488,-0.0244,-0.03416,-0.0244,-0.0244
-0.03416,0.00488,0.0244,0.04148,0.05856,-0.04636,-0.00488,0.00976,-0.01952,-0.02928,-0.02928,-0.02928
-0.01952,-0.00488,0.02928,0.03904,0.0488,-0.03416,0,0.00976,-0.01952,-0.0244,-0.02928,-0.02928
0,-0.01464,0.02928,0.02928,0.02928,-0.01464,0,0,-0.02928,-0.03416,-0.0244,-0.01952
0.00976,-0.01952,0.02928,0.0244,0.01952,-0.00488,0.01464,0,-0.02928,-0.04392,-0.01952,-0.01952
-0.00488,-0.01464,0.03416,0.0366,0.03904,-0.02196,0.0244,0.00976,-0.03904,-0.04392,-0.0244,-0.02928
-0.02928,0.00244,0.0244,0.03904,0.05368,-0.04148,0.03416,0.00976,-0.03416,-0.04392,-0.0244,-0.03416
-0.01952,0,0.01952,0.02928,0.03904,-0.02928,0.03416,0.01464,-0.0488,-0.05368,-0.03904,-0.05368
-0.00976,0.00244,0.00488,0.00976,0.01464,-0.0122,0.02928,0.00976,-0.0488,-0.06344,-0.0488,-0.05856
0.01464,-0.00976,0.00488,-0.00244,-0.00976,0.0122,0.01952,0.00488,-0.0488,-0.05856,-0.06344,-0.05368
-0.00488,0,0.00488,0.00732,0.00976,-0.00732,0.00976,0.00488,-0.0488,-0.06344,-0.05368,-0.05856
0,0.01464,-0.02928,-0.02928,-0.02928,0.01464,0.01464,0,-0.07808,-0.0976,-0.0976,-0.11224
-0.04392,0.05612,-0.06832,-0.04636,-0.0244,-0.00976,0.0244,0.02928,-0.0976,-0.11712,-0.122,-0.13664
-0.0488,0.04636,-0.04392,-0.01952,0.00488,-0.02684,0.0244,0.05856,-0.05856,-0.09272,-0.0732,-0.08296
-0.06832,0.04148,-0.01464,0.01952,0.05368,-0.061,0.01464,0.10248,0.02928,0.00976,0.02928,0.03904
-0.11224,0.05856,-0.00488,0.05124,0.10736,-0.1098,0.00488,0.11712,0.11712,0.11712,0.13664,0.13176
-0.14152,0.0244,0.09272,0.16348,0.23424,-0.18788,-0.0244,0.07808,0.24888,0.30256,0.28792,0.29768
-0.15128,-0.01952,0.19032,0.26596,0.3416,-0.24644,-0.07808,-0.08784,0.37088,0.44408,0.44408,0.45872
-0.2196,0.01952,0.18056,0.29036,0.40016,-0.30988,-0.18056,-0.20984,0.44896,0.53192,0.55632,0.57096
-0.23424,-0.02196,0.27816,0.39528,0.5124,-0.37332,-0.32696,-0.33672,0.57096,0.67832,0.72224,0.76128
-0.32208,0.01952,0.28304,0.44408,0.60512,-0.4636,-0.37576,-0.30256,0.66856,0.8296,0.87352,0.90768
-0.27328,-0.0366,0.34648,0.48312,0.61976,-0.44652,-0.35624,-0.23912,0.67344,0.81984,0.86376,0.9028
-0.09272,-0.1586,0.40992,0.45628,0.50264,-0.29768,-0.29768,-0.28792,0.55144,0.64904,0.69784,0.732
0.18056,-0.366,0.55144,0.46116,0.37088,-0.09516,-0.22936,-0.38552,0.38064,0.44896,0.52704,0.57096
0.2684,-0.38796,0.50752,0.37332,0.23912,0.01464,-0.21472,-0.4392,0.17568,0.22936,0.28792,0.35136
0.30744,-0.33428,0.36112,0.2074,0.05368,0.12688,-0.1952,-0.42944,0.01464,0.05368,0.11712,0.16592
0.27816,-0.24888,0.2196,0.08052,-0.05856,0.16836,-0.15616,-0.3904,-0.07808,-0.0732,-0.0244,0.01464
0.18544,-0.15128,0.11712,0.0244,-0.06832,0.12688,-0.08784,-0.23912,-0.0732,-0.10736,-0.08296,-0.05368
0.11224,-0.09028,0.06832,0.0122,-0.04392,0.07808,-0.04392,-0.12688,-0.06832,-0.09272,-0.09272,-0.06344
0.0244,-0.03416,0.04392,0.03172,0.01952,0.00244,-0.01952,-0.0488,-0.05368,-0.06832,-0.05856,-0.04392
-0.00488,0,0.00488,0.00732,0.00976,-0.00732,-0.01464,-0.0244,-0.0488,-0.06832,-0.0488,-0.03904
0.00976,-0.01952,0.02928,0.0244,0.01952,-0.00488,-0.00976,-0.03416,-0.0488,-0.06344,-0.04392,-0.05368
0.02928,-0.03172,0.03416,0.01952,0.00488,0.0122,0.00488,-0.03904,-0.04392,-0.05856,-0.0488,-0.05368
0.03904,-0.04392,0.0488,0.02928,0.00976,0.01464,0.00488,-0.03416,-0.05856,-0.0732,-0.0488,-0.06344
0.03904,-0.04636,0.05368,0.03416,0.01464,0.0122,0.00488,-0.03416,-0.06832,-0.0732,-0.05368,-0.06832
0.0488,-0.05124,0.05368,0.02928,0.00488,0.02196,0.00976,-0.04392,-0.06832,-0.07808,-0.0488,-0.06832
0.06832,-0.06344,0.05856,0.0244,-0.00976,0.03904,0.01464,-0.04392,-0.06832,-0.08296,-0.0488,-0.06832
0.0488,-0.05856,0.06832,0.04392,0.01952,0.01464,0.01464,-0.03416,-0.05856,-0.07808,-0.0488,-0.05856
0.02928,-0.04636,0.06344,0.0488,0.03416,-0.00244,0.01952,-0.03416,-0.05368,-0.06832,-0.05856,-0.05856
0.01952,-0.03172,0.04392,0.03416,0.0244,-0.00244,0.01464,-0.02928,-0.0488,-0.06832,-0.06832,-0.06344
0.00976,-0.02684,0.04392,0.03904,0.03416,-0.0122,0.01464,-0.02928,-0.04392,-0.06832,-0.06832,-0.06832
0.03416,-0.0366,0.03904,0.02196,0.00488,0.01464,0.00976,-0.03416,-0.05856,-0.07808,-0.08296,-0.07808
0.05368,-0.05368,0.05368,0.02684,0,0.02684,0.00976,-0.03416,-0.0732,-0.08296,-0.08784,-0.08296
0.06344,-0.06344,0.06344,0.03172,0,0.03172,0.02928,-0.02928,-0.0732,-0.09272,-0.08784,-0.0976
0.07808,-0.0732,0.06832,0.02928,-0.00976,0.04392,0.03904,-0.03416,-0.07808,-0.0976,-0.09272,-0.10248
0.07808,-0.07564,0.0732,0.03416,-0.00488,0.04148,0.04392,-0.02928,-0.06832,-0.09272,-0.0732,-0.08296
0.0732,-0.07076,0.06832,0.03172,-0.00488,0.03904,0.0488,-0.0244,-0.06832,-0.09272,-0.06344,-0.0732
0.0488,-0.05368,0.05856,0.03416,0.00976,0.01952,0.05368,-0.0244,-0.06344,-0.08296,-0.0488,-0.05856
0.02928,-0.03904,0.0488,0.03416,0.01952,0.00488,0.05856,-0.02928,-0.06344,-0.06832,-0.03416,-0.05368
0.0244,-0.04392,0.06344,0.05124,0.03904,-0.00732,0.02928,-0.04392,-0.05368,-0.07808,-0.05856,-0.06832
0.03416,-0.0488,0.06344,0.04636,0.02928,0.00244,0.00976,-0.04392,-0.05368,-0.08296,-0.06832,-0.06344
0.0244,-0.04392,0.06344,0.05124,0.03904,-0.00732,-0.01464,-0.0488,-0.05856,-0.08296,-0.0732,-0.0732
0.01464,-0.03904,0.06344,0.05612,0.0488,-0.01708,-0.01464,-0.0488,-0.05856,-0.08296,-0.06832,-0.06344
0.01952,-0.0366,0.05368,0.04392,0.03416,-0.00732,-0.01464,-0.05856,-0.06344,-0.08784,-0.05856,-0.05856
0.0244,-0.03904,0.05368,0.04148,0.02928,-0.00244,-0.0244,-0.05856,-0.06832,-0.08784,-0.05856,-0.06832
0.04392,-0.05368,0.06344,0.04148,0.01952,0.0122,-0.03904,-0.07808,-0.07808,-0.0976,-0.07808,-0.08296
0.05368,-0.05612,0.05856,0.03172,0.00488,0.0244,-0.0488,-0.08296,-0.08784,-0.09272,-0.07808,-0.08296
0.06344,-0.05612,0.0488,0.01708,-0.01464,0.03904,-0.05368,-0.08296,-0.08784,-0.10248,-0.0976,-0.0976
0.06344,-0.05856,0.05368,0.02196,-0.00976,0.0366,-0.06344,-0.08296,-0.08784,-0.11224,-0.11224,-0.10736
0.05856,-0.05124,0.04392,0.01464,-0.01464,0.0366,-0.06344,-0.0732,-0.0976,-0.12688,-0.10736,-0.10736
0.05856,-0.04392,0.02928,0,-0.02928,0.04392,-0.05368,-0.07808,-0.10248,-0.12688,-0.11224,-0.10736
0.05856,-0.04392,0.02928,0,-0.02928,0.04392,-0.05368,-0.07808,-0.11224,-0.11712,-0.10736,-0.11224
0.0488,-0.0366,0.0244,0,-0.0244,0.0366,-0.05856,-0.07808,-0.11224,-0.11224,-0.09272,-0.11224
0.04392,-0.03904,0.03416,0.0122,-0.00976,0.02684,-0.05368,-0.0732,-0.0976,-0.11224,-0.09272,-0.11224
0.05368,-0.0366,0.01952,-0.00732,-0.03416,0.04392,-0.05368,-0.0732,-0.10248,-0.11224,-0.09272,-0.11224
0.05368,-0.03416,0.01464,-0.0122,-0.03904,0.04636,-0.0488,-0.06832,-0.0976,-0.12688,-0.0976,-0.11224
0.03904,-0.01952,0,-0.01952,-0.03904,0.03904,-0.0488,-0.06832,-0.09272,-0.13176,-0.10736,-0.11224
0.03904,-0.01708,-0.00488,-0.0244,-0.04392,0.04148,-0.03904,-0.06832,-0.09272,-0.122,-0.10736,-0.11712
0.03904,-0.01708,-0.00488,-0.0244,-0.04392,0.04148,-0.03904,-0.06832,-0.09272,-0.11712,-0.10736,-0.11224
0.02928,-0.01708,0.00488,-0.00976,-0.0244,0.02684,-0.03416,-0.05368,-0.09272,-0.122,-0.10248,-0.11224
0.02928,-0.01708,0.00488,-0.00976,-0.0244,0.02684,-0.02928,-0.05368,-0.0976,-0.122,-0.10736,-0.10736
0.00488,0,-0.00488,-0.00732,-0.00976,0.00732,-0.01952,-0.03904,-0.09272,-0.11712,-0.0976,-0.0976
-0.00976,0.0122,-0.01464,-0.00976,-0.00488,-0.00244,-0.00488,-0.03416,-0.0976,-0.11712,-0.08784,-0.08784
-0.01464,0.01708,-0.01952,-0.0122,-0.00488,-0.00488,-0.00488,-0.02928,-0.0976,-0.11712,-0.08784,-0.0976
-0.01952,0.0244,-0.02928,-0.01952,-0.00976,-0.00488,-0.01464,-0.02928,-0.0976,-0.11712,-0.08784,-0.0976
-0.01464,0.01952,-0.0244,-0.01708,-0.00976,-0.00244,-0.00976,-0.01952,-0.0976,-0.11712,-0.10248,-0.10248
-0.00976,0.01464,-0.01952,-0.01464,-0.00976,0,-0.00976,-0.01952,-0.10248,-0.122,-0.09272,-0.10248
0.00976,0.00488,-0.01952,-0.0244,-0.02928,0.01952,-0.01952,-0.0244,-0.0976,-0.13176,-0.09272,-0.0976
0.00976,0.00488,-0.01952,-0.0244,-0.02928,0.01952,-0.01952,-0.02928,-0.0976,-0.13176,-0.0976,-0.0976
0,0.01952,-0.03904,-0.03904,-0.03904,0.01952,-0.01464,-0.01952,-0.0976,-0.13176,-0.08784,-0.0976
-0.00488,0.02928,-0.05368,-0.05124,-0.0488,0.02196,-0.01952,-0.01464,-0.10736,-0.122,-0.10248,-0.10248
-0.04392,0.05124,-0.05856,-0.0366,-0.01464,-0.01464,-0.0244,0,-0.09272,-0.11224,-0.0976,-0.0976
-0.05856,0.05856,-0.05856,-0.02928,0,-0.02928,-0.01952,0.00976,-0.08296,-0.10248,-0.08784,-0.08784
-0.05856,0.06588,-0.0732,-0.04392,-0.01464,-0.02196,-0.02928,0.01464,-0.09272,-0.11712,-0.10248,-0.10248
-0.06344,0.0732,-0.08296,-0.05124,-0.01952,-0.02196,-0.0244,0.01464,-0.10248,-0.12688,-0.0976,-0.11224
-0.05856,0.06832,-0.07808,-0.0488,-0.01952,-0.01952,-0.01464,0.01464,-0.10248,-0.122,-0.11224,-0.11712
-0.05368,0.06588,-0.07808,-0.05124,-0.0244,-0.01464,-0.00488,0.01952,-0.11224,-0.122,-0.10736,-0.11224
-0.08296,0.07564,-0.06832,-0.02684,0.01464,-0.0488,-0.0244,0.01952,-0.08784,-0.0976,-0.08296,-0.0976
-0.0976,0.08296,-0.06832,-0.01952,0.02928,-0.06344,-0.02928,0.0244,-0.0732,-0.08296,-0.08296,-0.08784
-0.08296,0.07808,-0.0732,-0.03172,0.00976,-0.04636,-0.04392,0.01464,-0.06832,-0.08296,-0.0732,-0.0732
-0.08784,0.08052,-0.0732,-0.02928,0.01464,-0.05124,-0.06344,0.01952,-0.05856,-0.07808,-0.0732,-0.0732
-0.09272,0.07808,-0.06344,-0.01708,0.02928,-0.061,-0.06832,0.0244,-0.06344,-0.06832,-0.05368,-0.05856
-0.08784,0.0732,-0.05856,-0.01464,0.02928,-0.05856,-0.06832,0.02928,-0.05368,-0.05368,-0.0488,-0.0488
-0.10248,0.07564,-0.0488,0.00244,0.05368,-0.07808,-0.07808,0.02928,-0.04392,-0.05856,-0.03904,-0.02928
-0.10736,0.07564,-0.04392,0.00976,0.06344,-0.0854,-0.07808,0.02928,-0.03416,-0.04392,-0.01952,-0.00976
-0.09272,0.06832,-0.04392,0.00244,0.0488,-0.07076,-0.0732,0.03416,-0.0244,-0.04392,-0.0244,-0.00976
-0.08296,0.06344,-0.04392,-0.00244,0.03904,-0.061,-0.06832,0.02928,-0.01464,-0.03416,-0.01952,-0.00976
-0.08296,0.06344,-0.04392,-0.00244,0.03904,-0.061,-0.05856,0.03416,-0.00976,-0.01952,-0.00976,0
-0.08784,0.06588,-0.04392,0,0.04392,-0.06588,-0.04392,0.04392,-0.00976,-0.00976,-0.00976,0.00488
-0.10736,0.07808,-0.0488,0.00488,0.05856,-0.08296,-0.04392,0.0488,0.00488,0.00488,0.00976,0.0244
-0.10736,0.0732,-0.03904,0.01464,0.06832,-0.08784,-0.03416,0.05368,0.00488,0.00488,0.0244,0.0244
-0.0976,0.0732,-0.0488,0,0.0488,-0.0732,-0.01952,0.05368,0.00976,0,0.01464,0.01464
-0.0976,0.07564,-0.05368,-0.00488,0.04392,-0.07076,-0.01952,0.05856,0.00976,0.00488,0.01464,0.01464
-0.0732,0.06588,-0.05856,-0.02196,0.01464,-0.04392,-0.01464,0.0488,0,-0.00488,0.00488,0
-0.04392,0.0488,-0.05368,-0.03172,-0.00976,-0.01708,-0.00976,0.0488,0,-0.0244,0,-0.00976
-0.04392,0.04148,-0.03904,-0.01708,0.00488,-0.0244,-0.00976,0.03904,0,-0.01952,0,-0.00976
-0.03904,0.03416,-0.02928,-0.00976,0.00976,-0.0244,0,0.03904,0,-0.01952,-0.00976,-0.00976
-0.0488,0.04636,-0.04392,-0.01952,0.00488,-0.02684,0.00976,0.04392,-0.00488,-0.01952,-0.00976,-0.00976
-0.04392,0.0366,-0.02928,-0.00732,0.01464,-0.02928,0.00976,0.04392,-0.00488,-0.01464,0,-0.00488
-0.05368,0.04148,-0.02928,-0.00244,0.0244,-0.03904,0.01952,0.0488,-0.00488,-0.00488,0,0
-0.05856,0.04392,-0.02928,0,0.02928,-0.04392,0.01952,0.0488,0.00488,0,0,0
-0.0488,0.03904,-0.02928,-0.00488,0.01952,-0.03416,0.01952,0.0488,0.00976,0.00488,0,0
-0.03416,0.03172,-0.02928,-0.0122,0.00488,-0.01952,0.02928,0.0488,0.00488,0,0,-0.00488
-0.01952,0.0244,-0.02928,-0.01952,-0.00976,-0.00488,0.03904,0.0488,0.00488,-0.00976,-0.00976,-0.01464
-0.01464,0.0244,-0.03416,-0.02684,-0.01952,0.00244,0.03904,0.0488,0.00976,-0.00976,-0.01464,-0.01464
-0.0244,0.0244,-0.0244,-0.0122,0,-0.0122,0.0488,0.06344,0.00976,0.00488,0,0
-0.02928,0.02684,-0.0244,-0.00976,0.00488,-0.01708,0.05368,0.06832,0.00976,0.00976,0.01952,0.0244
-0.03904,0.03172,-0.0244,-0.00488,0.01464,-0.02684,0.05856,0.0732,0.01952,0.01952,0.02928,0.01952
-0.05368,0.04392,-0.03416,-0.00732,0.01952,-0.0366,0.06344,0.0732,0.02928,0.01952,0.02928,0.01464
-0.04392,0.03416,-0.0244,-0.00244,0.01952,-0.03172,0.05856,0.06344,0.03416,0.01464,0.01464,0.00488
-0.03416,0.02684,-0.01952,-0.00244,0.01464,-0.0244,0.05368,0.06832,0.03416,0.00976,0.00488,0.00488
-0.0244,0.01952,-0.01464,-0.00244,0.00976,-0.01708,0.02928,0.06344,0.0244,0.00976,0.01464,0.01952
-0.01464,0.01464,-0.01464,-0.00732,0,-0.00732,0.01464,0.05856,0.0244,0.01464,0.0244,0.0244
-0.01952,0.0122,-0.00488,0.00488,0.01464,-0.01708,-0.00976,0.04392,0.03416,0.01952,0.01464,0.01464
-0.01952,0.00732,0.00488,0.01464,0.0244,-0.02196,-0.02928,0.02928,0.02928,0.01464,0.01464,0.01464
-0.03416,0.0122,0.00976,0.02684,0.04392,-0.03904,-0.02928,0.03904,0.03904,0.02928,0.02928,0.0244
-0.04392,0.01708,0.00976,0.03172,0.05368,-0.0488,-0.02928,0.04392,0.03904,0.02928,0.03904,0.03416
-0.05368,0.01952,0.01464,0.04148,0.06832,-0.061,-0.01464,0.05368,0.0488,0.02928,0.04392,0.04392
-0.06344,0.02684,0.00976,0.04148,0.0732,-0.06832,-0.00488,0.05368,0.04392,0.03416,0.0488,0.05368
-0.06832,0.02928,0.00976,0.04392,0.07808,-0.0732,0.00488,0.06832,0.05368,0.04392,0.02928,0.03416
-0.06344,0.02928,0.00488,0.0366,0.06832,-0.06588,0.01464,0.06832,0.05856,0.03904,0.01952,0.0244
-0.05856,0.02928,0,0.02928,0.05856,-0.05856,0.0244,0.07808,0.05856,0.03904,0.01464,0.01464
-0.05856,0.02684,0.00488,0.03416,0.06344,-0.061,0.0244,0.0732,0.05856,0.02928,0,0.01464
-0.0488,0.02684,-0.00488,0.01952,0.04392,-0.04636,0.0244,0.0732,0.04392,0.01464,0.00488,0.01464
-0.05368,0.02684,0,0.02684,0.05368,-0.05368,0.01464,0.0732,0.02928,0.00976,0.00976,0.01464
-0.0488,0.03172,-0.01464,0.00976,0.03416,-0.04148,0.0244,0.0732,0.01952,0.0244,0.0244,0.01952
-0.0488,0.03416,-0.01952,0.00488,0.02928,-0.03904,0.0244,0.0732,0.01952,0.01952,0.02928,0.01952
-0.05368,0.04148,-0.02928,-0.00244,0.0244,-0.03904,0.0244,0.0732,0.01952,0.0244,0.00976,0.01464
-0.05856,0.04636,-0.03416,-0.00488,0.0244,-0.04148,0.02928,0.0732,0.01952,0.02928,0.01464,0.00976
-0.04392,0.04392,-0.04392,-0.02196,0,-0.02196,0.0244,0.06344,0.00976,0.00488,0,0.00488
-0.0244,0.0366,-0.0488,-0.0366,-0.0244,0,0.0244,0.06344,0.01464,-0.01464,0.00488,0
-0.03904,0.04148,-0.04392,-0.0244,-0.00488,-0.01708,0.0244,0.05856,0.00488,-0.00488,-0.01464,-0.0244
-0.04392,0.04392,-0.04392,-0.02196,0,-0.02196,0.01952,0.05856,0.00976,-0.00488,-0.0244,-0.02928
-0.05368,0.04636,-0.03904,-0.0122,0.01464,-0.03416,0.02928,0.06344,0.00976,0,-0.03416,-0.03904
-0.04392,0.03904,-0.03416,-0.0122,0.00976,-0.02684,0.03416,0.06344,0.00488,-0.00488,-0.03416,-0.03904
-0.04392,0.03904,-0.03416,-0.0122,0.00976,-0.02684,0.03416,0.06344,0.00976,-0.00488,-0.0244,-0.02928
-0.03904,0.03416,-0.02928,-0.00976,0.00976,-0.0244,0.03416,0.05856,0.01464,-0.01464,-0.01464,-0.0244
-0.02928,0.03172,-0.03416,-0.01952,-0.00488,-0.0122,0.04392,0.05368,0.00976,-0.0244,-0.00976,-0.01464
-0.0244,0.02928,-0.03416,-0.02196,-0.00976,-0.00732,0.04392,0.04392,0.00976,-0.0244,0,-0.00976
-0.01952,0.02196,-0.0244,-0.01464,-0.00488,-0.00732,0.03904,0.04392,0,-0.02928,-0.01464,-0.01952
-0.01464,0.02196,-0.02928,-0.02196,-0.01464,0,0.03904,0.03904,-0.00488,-0.0244,-0.02928,-0.03416
-0.01464,0.01952,-0.0244,-0.01708,-0.00976,-0.00244,0.0488,0.03904,-0.00488,-0.02928,-0.02928,-0.0244
-0.01952,0.01952,-0.01952,-0.00976,0,-0.00976,0.0488,0.03904,0,-0.03904,-0.0244,-0.0244
-0.0244,0.02684,-0.02928,-0.01708,-0.00488,-0.00976,0.05368,0.03416,0.00976,-0.01952,-0.01464,-0.00976
-0.01464,0.02196,-0.02928,-0.02196,-0.01464,0,0.05856,0.03416,0,-0.0244,-0.00488,-0.01464
-0.0244,0.0244,-0.0244,-0.0122,0,-0.0122,0.03904,0.04392,0.01464,-0.01464,-0.00976,-0.01464
-0.02928,0.02684,-0.0244,-0.00976,0.00488,-0.01708,0.01952,0.03904,0.01464,-0.01952,-0.01464,-0.01464
-0.03416,0.0244,-0.01464,0.00244,0.01952,-0.02684,0.00976,0.03416,0.01464,-0.00976,-0.01464,-0.00976
-0.03904,0.0244,-0.00976,0.00976,0.02928,-0.03416,0.00488,0.03416,0.01952,0,-0.01464,-0.00976
-0.03904,0.01952,0,0.01952,0.03904,-0.03904,0.00488,0.03416,0.01952,0.00976,0.00488,-0.00488
-0.04392,0.02196,0,0.02196,0.04392,-0.04392,0,0.03416,0.01952,0.01952,0.01952,0.00488
-0.02928,0.02196,-0.01464,0,0.01464,-0.02196,0,0.02928,0.01464,0.00976,0.01952,0.00976
-0.00976,0.00732,-0.00488,0,0.00488,-0.00732,0,0.02928,0.01464,0.00488,0.01952,0.00976
-0.01464,0.00976,-0.00488,0.00244,0.00976,-0.0122,0,0.01952,0.01464,-0.00976,-0.01464,-0.00976
-0.00488,0.00244,0,0.00244,0.00488,-0.00488,0,0.01952,0.00976,-0.01464,-0.03416,-0.01464
-0.0244,0.0122,0,0.0122,0.0244,-0.0244,0.00976,0.01464,0.00976,-0.00488,-0.0244,-0.01464
-0.03416,0.01708,0,0.01708,0.03416,-0.03416,0.01464,0.01464,0.00488,-0.00488,-0.0244,-0.01464
-0.01464,0.00732,0,0.00732,0.01464,-0.01464,0.00488,0.00488,-0.00488,-0.01464,-0.0244,-0.00976
0.00976,-0.00488,0,-0.00488,-0.00976,0.00976,0.00488,0.00976,-0.00488,-0.01464,-0.03416,-0.01464
0.0244,-0.01708,0.00976,-0.00244,-0.01464,0.01952,0.01464,0.00976,-0.01464,-0.02928,-0.0244,-0.00488
0.01952,-0.01464,0.00976,0,-0.00976,0.01464,0.00976,0.00976,-0.00976,-0.03416,-0.01464,-0.00488
0.01952,-0.0122,0.00488,-0.00488,-0.01464,0.01708,0.01952,0.00976,-0.00976,-0.0244,-0.0244,-0.01952
0.01464,-0.00488,-0.00488,-0.0122,-0.01952,0.01708,0.01952,0.00976,-0.01464,-0.0244,-0.0244,-0.03416
0.01464,-0.00244,-0.00976,-0.01708,-0.0244,0.01952,0.01952,0.00976,-0.01464,-0.03416,-0.03416,-0.03904
0.0244,-0.00732,-0.00976,-0.02196,-0.03416,0.02928,0.01952,0.00488,-0.01952,-0.03416,-0.03416,-0.04392
-0.00976,0.00976,-0.00976,-0.00488,0,-0.00488,0.02928,0.01952,-0.00976,-0.02928,-0.01952,-0.01952
-0.01952,0.01952,-0.01952,-0.00976,0,-0.00976,0.01952,0.01952,-0.00976,-0.03904,-0.01952,-0.01952
-0.02928,0.0244,-0.01952,-0.00488,0.00976,-0.01952,0.01952,0.01952,-0.00976,-0.03904,-0.01952,-0.01952
0.00488,0.00732,-0.01952,-0.02196,-0.0244,0.01464,0.00976,0.00488,-0.02928,-0.0488,-0.04392,-0.03416
0.0244,-0.00488,-0.01464,-0.02684,-0.03904,0.03172,0,-0.00488,-0.02928,-0.05368,-0.0488,-0.04392
0.03416,-0.00976,-0.01464,-0.03172,-0.0488,0.04148,0.01464,-0.00488,-0.03904,-0.05368,-0.05368,-0.05368
0.04392,-0.01464,-0.01464,-0.0366,-0.05856,0.05124,0.01464,-0.00488,-0.04392,-0.05368,-0.06344,-0.05856
0.03416,-0.0122,-0.00976,-0.02684,-0.04392,0.03904,0.01952,0.00488,-0.02928,-0.04392,-0.06832,-0.05368
0.0244,-0.00488,-0.01464,-0.02684,-0.03904,0.03172,0.0244,0.00488,-0.02928,-0.04392,-0.06832,-0.05368
0.0244,0,-0.0244,-0.0366,-0.0488,0.0366,0.01952,0,-0.03904,-0.0488,-0.05856,-0.06344
0.02928,-0.00488,-0.01952,-0.03416,-0.0488,0.03904,0.01952,0,-0.03416,-0.0488,-0.06832,-0.06344
0.01952,-0.00244,-0.01464,-0.0244,-0.03416,0.02684,0.02928,0,-0.02928,-0.04392,-0.05368,-0.0488
0.0244,-0.00488,-0.01464,-0.02684,-0.03904,0.03172,0.02928,0,-0.02928,-0.0488,-0.04392,-0.04392
0.02928,-0.00976,-0.00976,-0.0244,-0.03904,0.03416,0.01952,-0.00976,-0.03416,-0.0488,-0.03416,-0.03904
0.03904,-0.01464,-0.00976,-0.02928,-0.0488,0.04392,0.01952,-0.00976,-0.03416,-0.0488,-0.03416,-0.03904
0.03904,-0.01464,-0.00976,-0.02928,-0.0488,0.04392,0.00976,-0.00976,-0.04392,-0.05368,-0.0488,-0.0488
0.03904,-0.01708,-0.00488,-0.0244,-0.04392,0.04148,0.00976,-0.00976,-0.03904,-0.05368,-0.06832,-0.05856
0.01952,-0.0122,0.00488,-0.00488,-0.01464,0.01708,0.0244,-0.00488,-0.03416,-0.04392,-0.05368,-0.04392
0.00976,-0.01464,0.01952,0.01464,0.00976,0,0.02928,-0.00488,-0.0244,-0.04392,-0.04392,-0.03904
0.00976,-0.0244,0.03904,0.03416,0.02928,-0.00976,0.01952,-0.01464,-0.00488,-0.02928,-0.01952,-0.02928
0.01952,-0.03904,0.05856,0.0488,0.03904,-0.00976,0.01952,-0.01952,0.00488,-0.02928,-0.02928,-0.0244
0.00976,-0.02928,0.0488,0.04392,0.03904,-0.01464,0.00976,-0.01464,0.01464,-0.01464,-0.01952,-0.01952
0.00488,-0.02684,0.0488,0.04636,0.04392,-0.01952,0,-0.00488,0.01464,-0.00488,0,-0.00976
-0.00976,-0.01464,0.03904,0.04392,0.0488,-0.02928,0,0,0.01464,-0.00488,0.00488,0.00488
-0.02928,-0.00244,0.03416,0.0488,0.06344,-0.04636,0,0.00976,0.01464,-0.00976,0.00976,0.00976
-0.0244,-0.0122,0.0488,0.061,0.0732,-0.0488,0.00488,0.01464,0.0244,-0.00976,0.00488,-0.00488
-0.0244,-0.01952,0.06344,0.07564,0.08784,-0.05612,0.00488,0.01464,0.0244,-0.00488,0.00488,-0.00488
-0.0244,-0.01464,0.05368,0.06588,0.07808,-0.05124,0.01464,0.01464,0.01952,-0.01464,0,-0.00976
-0.0244,-0.00976,0.04392,0.05612,0.06832,-0.04636,0.01952,0.01464,0.01464,-0.01464,0,-0.00976
0,-0.01464,0.02928,0.02928,0.02928,-0.01464,0.01952,0.00488,0.00488,-0.01464,-0.00976,-0.01952
0.00976,-0.02196,0.03416,0.02928,0.0244,-0.00732,0.01952,0.00488,-0.00488,-0.01464,-0.01464,-0.02928
0,-0.01708,0.03416,0.03416,0.03416,-0.01708,0.01952,0.01464,0,-0.01464,-0.01464,-0.0244
-0.00488,-0.01464,0.03416,0.0366,0.03904,-0.02196,0.0244,0.00976,0,-0.01952,-0.01464,-0.0244
-0.00976,-0.00244,0.01464,0.01952,0.0244,-0.01708,0.01464,0.00976,-0.00976,-0.02928,-0.01464,-0.01464
-0.00976,-0.00244,0.01464,0.01952,0.0244,-0.01708,0.01464,0.00976,-0.00976,-0.0244,-0.00976,-0.00976
0.01464,-0.01708,0.01952,0.0122,0.00488,0.00488,0.00976,0,-0.01952,-0.03904,-0.01952,-0.02928
0.0244,-0.02196,0.01952,0.00732,-0.00488,0.01464,0.00488,0,-0.01952,-0.0488,-0.02928,-0.03904
0.00976,-0.0122,0.01464,0.00976,0.00488,0.00244,0.01952,0.00976,-0.01952,-0.03416,-0.03416,-0.03904
-0.00976,0.00488,0,0.00488,0.00976,-0.00976,0.01952,0.00976,-0.01464,-0.03416,-0.03416,-0.03904
-0.00488,0.00488,-0.00488,-0.00244,0,-0.00244,0.02928,0.01464,-0.00976,-0.03416,-0.04392,-0.03904
-0.00488,0.00732,-0.00976,-0.00732,-0.00488,0,0.01952,0.01464,-0.00976,-0.04392,-0.05368,-0.04392
0.05368,-0.02684,0,-0.02684,-0.05368,0.05368,0.01952,-0.00488,-0.01952,-0.06344,-0.06344,-0.06344
0.06344,-0.02196,-0.01952,-0.05124,-0.08296,0.0732,0.00976,0,-0.06344,-0.08296,-0.0976,-0.08296
0.03904,0.01708,-0.0732,-0.09272,-0.11224,0.07564,0.01464,0.00488,-0.07808,-0.10736,-0.10736,-0.0976
0.00488,0.04636,-0.0976,-0.10004,-0.10248,0.05368,0.03416,0.02928,-0.10736,-0.12688,-0.15128,-0.15616
-0.03416,0.07076,-0.10736,-0.09028,-0.0732,0.01952,0.04392,0.05856,-0.07808,-0.10736,-0.10736,-0.11712
-0.06832,0.06588,-0.06344,-0.02928,0.00488,-0.0366,0.0244,0.08296,0.01952,0.01464,0.00976,0
-0.10248,0.09272,-0.08296,-0.03172,0.01952,-0.061,0.02928,0.13664,0.08784,0.08296,0.08784,0.07808
-0.11712,0.07808,-0.03904,0.01952,0.07808,-0.0976,-0.00488,0.122,0.18056,0.21472,0.20984,0.20496
-0.10248,0.01464,0.0732,0.12444,0.17568,-0.13908,-0.04392,0.01464,0.30744,0.35136,0.37088,0.36112
-0.1708,0.04392,0.08296,0.16836,0.25376,-0.21228,-0.122,-0.13664,0.39528,0.45384,0.488,0.50752
-0.2684,0.06832,0.13176,0.26596,0.40016,-0.33428,-0.2196,-0.23912,0.51728,0.60024,0.6344,0.67832
-0.34648,0.061,0.22448,0.39772,0.57096,-0.45872,-0.27816,-0.25864,0.64416,0.7808,0.81496,0.86864
-0.30744,0.02196,0.26352,0.41724,0.57096,-0.4392,-0.28304,-0.2196,0.6588,0.79056,0.82472,0.8784
-0.11712,-0.1342,0.38552,0.44408,0.50264,-0.30988,-0.23912,-0.24888,0.54168,0.64416,0.67344,0.71736
0.18544,-0.37332,0.5612,0.46848,0.37576,-0.09516,-0.19032,-0.37088,0.43432,0.50752,0.54656,0.59536
0.3416,-0.4636,0.5856,0.4148,0.244,0.0488,-0.18056,-0.46848,0.25864,0.2928,0.34648,0.39528
0.34648,-0.40016,0.45384,0.2806,0.10736,0.11956,-0.1464,-0.45872,0.11224,0.11712,0.19032,0.22448
0.32208,-0.33672,0.35136,0.19032,0.02928,0.1464,-0.13664,-0.43432,0,-0.00976,0.05856,0.07808
0.19032,-0.18056,0.1708,0.07564,-0.01952,0.10492,-0.09272,-0.25864,-0.0244,-0.02928,-0.01952,0.00488
0.10248,-0.10248,0.10248,0.05124,0,0.05124,-0.0488,-0.1464,-0.0244,-0.02928,-0.04392,-0.03416
0.04392,-0.05368,0.06344,0.04148,0.01952,0.0122,-0.03904,-0.06344,-0.01952,-0.03416,-0.0244,-0.02928
0.00488,-0.01952,0.03416,0.03172,0.02928,-0.0122,-0.0488,-0.02928,-0.00976,-0.03416,-0.01952,-0.01464
0.00976,-0.01952,0.02928,0.0244,0.01952,-0.00488,-0.02928,-0.0244,-0.00976,-0.02928,-0.00488,0
0.03416,-0.03904,0.04392,0.02684,0.00976,0.0122,-0.01952,-0.02928,-0.00488,-0.03416,-0.00976,-0.00488
0.03904,-0.04636,0.05368,0.03416,0.01464,0.0122,-0.00976,-0.02928,-0.00976,-0.03416,-0.01952,-0.01464
0.03904,-0.0488,0.05856,0.03904,0.01952,0.00976,0,-0.0244,-0.00976,-0.03416,-0.01952,-0.01952
0.02928,-0.03904,0.0488,0.03416,0.01952,0.00488,-0.00488,-0.01464,-0.01464,-0.03904,-0.03904,-0.0244
0.03416,-0.0366,0.03904,0.02196,0.00488,0.01464,0,-0.01464,-0.01952,-0.03904,-0.03904,-0.02928
0.0244,-0.03172,0.03904,0.02684,0.01464,0.00488,0.01464,-0.00488,-0.00976,-0.0488,-0.03904,-0.02928
0.01464,-0.01708,0.01952,0.0122,0.00488,0.00488,0.01464,-0.00488,-0.01464,-0.0488,-0.04392,-0.02928
0.00488,-0.00488,0.00488,0.00244,0,0.00244,0.01464,0,-0.01464,-0.03904,-0.05856,-0.04392
-0.00488,0.00488,-0.00488,-0.00244,0,-0.00244,0.01464,0.00488,-0.00488,-0.03904,-0.05856,-0.0488
-0.00488,0.00732,-0.00976,-0.00732,-0.00488,0,0.01464,0,-0.01464,-0.0488,-0.05368,-0.0488
0,-0.00244,0.00488,0.00488,0.00488,-0.00244,0.00976,-0.00488,-0.03416,-0.05368,-0.05856,-0.0488
0.01464,-0.00488,-0.00488,-0.0122,-0.01952,0.01708,0.00976,-0.01464,-0.03904,-0.05856,-0.06832,-0.06344
0.0488,-0.0244,0,-0.0244,-0.0488,0.0488,0.00976,-0.01952,-0.0488,-0.0732,-0.06832,-0.0732
0.06344,-0.03172,0,-0.03172,-0.06344,0.06344,0.01952,-0.0244,-0.05856,-0.09272,-0.0732,-0.08296
0.06832,-0.02928,-0.00976,-0.04392,-0.07808,0.0732,0.01464,-0.02928,-0.05856,-0.09272,-0.0732,-0.08296
0.06832,-0.02928,-0.00976,-0.04392,-0.07808,0.0732,0.0244,-0.0244,-0.0488,-0.09272,-0.08296,-0.07808
0.05856,-0.01708,-0.0244,-0.05368,-0.08296,0.07076,0.0244,-0.0244,-0.05368,-0.08784,-0.08784,-0.08296
0.06344,-0.01708,-0.02928,-0.061,-0.09272,0.07808,0.02928,-0.02928,-0.05856,-0.0976,-0.0976,-0.08296
0.0732,-0.0244,-0.0244,-0.061,-0.0976,0.0854,0.02928,-0.03416,-0.06832,-0.10248,-0.0976,-0.08784
0.0732,-0.0244,-0.0244,-0.061,-0.0976,0.0854,0.02928,-0.03416,-0.07808,-0.09272,-0.08784,-0.08784
0.06832,-0.02196,-0.0244,-0.05856,-0.09272,0.08052,0.0244,-0.02928,-0.07808,-0.09272,-0.09272,-0.09272
0.0488,-0.01708,-0.01464,-0.03904,-0.06344,0.05612,0.02928,-0.01952,-0.07808,-0.09272,-0.08784,-0.08296
0.03416,-0.00976,-0.01464,-0.03172,-0.0488,0.04148,0.03416,-0.01952,-0.0732,-0.08784,-0.08784,-0.08784
0.0488,-0.0122,-0.0244,-0.0488,-0.0732,0.061,0.04392,-0.02928,-0.06832,-0.10736,-0.0976,-0.08784
0.05856,-0.01464,-0.02928,-0.05856,-0.08784,0.0732,0.03904,-0.02928,-0.06832,-0.10736,-0.0976,-0.09272
0.06832,-0.01708,-0.03416,-0.06832,-0.10248,0.0854,0.02928,-0.03416,-0.07808,-0.11224,-0.10736,-0.0976
0.0732,-0.01708,-0.03904,-0.07564,-0.11224,0.09272,0.03904,-0.03416,-0.07808,-0.11224,-0.10248,-0.10248
0.06344,-0.01708,-0.02928,-0.061,-0.09272,0.07808,0.0244,-0.0488,-0.08784,-0.11712,-0.0976,-0.10736
0.06832,-0.0244,-0.01952,-0.05368,-0.08784,0.07808,0.00976,-0.06344,-0.08784,-0.11712,-0.0976,-0.10736
0.05856,-0.0244,-0.00976,-0.03904,-0.06832,0.06344,-0.01464,-0.07808,-0.08784,-0.122,-0.08784,-0.09272
0.05856,-0.03416,0.00976,-0.01952,-0.0488,0.05368,-0.03904,-0.07808,-0.07808,-0.10248,-0.08296,-0.08784
0.04392,-0.02928,0.01464,-0.00732,-0.02928,0.0366,-0.05368,-0.07808,-0.05856,-0.08296,-0.0732,-0.07808
0.04392,-0.03416,0.0244,0.00244,-0.01952,0.03172,-0.05368,-0.0732,-0.05856,-0.08296,-0.0732,-0.06832
0.0488,-0.03416,0.01952,-0.00488,-0.02928,0.03904,-0.05856,-0.07808,-0.06832,-0.08296,-0.08296,-0.06832
0.0488,-0.0366,0.0244,0,-0.0244,0.0366,-0.05856,-0.07808,-0.06344,-0.09272,-0.07808,-0.07808
0.05856,-0.03416,0.00976,-0.01952,-0.0488,0.05368,-0.0488,-0.06832,-0.05368,-0.08296,-0.07808,-0.08784
0.05856,-0.03172,0.00488,-0.0244,-0.05368,0.05612,-0.0488,-0.06832,-0.05368,-0.08296,-0.07808,-0.08296
0.0488,-0.02196,-0.00488,-0.02928,-0.05368,0.05124,-0.04392,-0.05368,-0.04392,-0.07808,-0.06832,-0.07808
0.03416,-0.01464,-0.00488,-0.02196,-0.03904,0.0366,-0.03904,-0.05368,-0.0488,-0.08296,-0.06344,-0.06344
0.03416,-0.01708,0,-0.01708,-0.03416,0.03416,-0.0488,-0.05368,-0.05856,-0.07808,-0.06832,-0.05856
0.01464,-0.00488,-0.00488,-0.0122,-0.01952,0.01708,-0.04392,-0.0488,-0.05368,-0.07808,-0.06832,-0.05856
0,0.0122,-0.0244,-0.0244,-0.0244,0.0122,-0.03416,-0.03416,-0.05856,-0.08784,-0.07808,-0.06832
-0.00976,0.02196,-0.03416,-0.02928,-0.0244,0.00732,-0.03904,-0.02928,-0.05856,-0.08784,-0.07808,-0.06832
-0.01464,0.03172,-0.0488,-0.04148,-0.03416,0.00976,-0.03904,-0.02928,-0.06344,-0.09272,-0.0732,-0.0732
-0.02928,0.04636,-0.06344,-0.0488,-0.03416,0.00244,-0.03904,-0.02928,-0.0732,-0.0976,-0.06344,-0.0732
-0.05368,0.06832,-0.08296,-0.05612,-0.02928,-0.0122,-0.0488,-0.0244,-0.05856,-0.08784,-0.06344,-0.07808
-0.06832,0.08052,-0.09272,-0.05856,-0.0244,-0.02196,-0.0488,-0.00976,-0.05856,-0.07808,-0.06832,-0.07808
-0.07808,0.09272,-0.10736,-0.06832,-0.02928,-0.0244,-0.0488,0,-0.06832,-0.08296,-0.07808,-0.07808
-0.08296,0.10248,-0.122,-0.08052,-0.03904,-0.02196,-0.05856,0.00488,-0.07808,-0.09272,-0.08784,-0.08784
-0.08296,0.1098,-0.13664,-0.09516,-0.05368,-0.01464,-0.0488,-0.00488,-0.07808,-0.10248,-0.0976,-0.09272
-0.07808,0.10736,-0.13664,-0.0976,-0.05856,-0.00976,-0.06344,0,-0.08296,-0.10248,-0.0976,-0.0976
-0.06832,0.10736,-0.1464,-0.11224,-0.07808,0.00488,-0.06344,0,-0.09272,-0.11712,-0.10736,-0.0976
-0.06344,0.1098,-0.15616,-0.12444,-0.09272,0.01464,-0.06832,0.00488,-0.09272,-0.11712,-0.11224,-0.10736
-0.06832,0.11712,-0.16592,-0.13176,-0.0976,0.01464,-0.0732,0.00488,-0.0976,-0.122,-0.0976,-0.10736
-0.06344,0.11712,-0.1708,-0.13908,-0.10736,0.02196,-0.06832,0.00488,-0.0976,-0.122,-0.10248,-0.10248
-0.08296,0.13664,-0.19032,-0.14884,-0.10736,0.0122,-0.06344,0.00976,-0.0976,-0.122,-0.09272,-0.08296
-0.08784,0.14396,-0.20008,-0.15616,-0.11224,0.0122,-0.05856,0.00976,-0.09272,-0.11712,-0.08296,-0.0732
-0.0976,0.15372,-0.20984,-0.16104,-0.11224,0.00732,-0.05856,0.0244,-0.08784,-0.0976,-0.06832,-0.06832
-0.10736,0.1586,-0.20984,-0.15616,-0.10248,-0.00244,-0.05368,0.02928,-0.08784,-0.08784,-0.06344,-0.06344
-0.11224,0.1586,-0.20496,-0.14884,-0.09272,-0.00976,-0.05368,0.0244,-0.08296,-0.09272,-0.06832,-0.06832
-0.10736,0.14884,-0.19032,-0.13664,-0.08296,-0.0122,-0.0488,0.01952,-0.08296,-0.07808,-0.05856,-0.0732
-0.0976,0.13664,-0.17568,-0.12688,-0.07808,-0.00976,-0.0488,0.01464,-0.07808,-0.0732,-0.05368,-0.06832
-0.08784,0.12932,-0.1708,-0.12688,-0.08296,-0.00244,-0.0488,0.01952,-0.06832,-0.0732,-0.05368,-0.05856
-0.08784,0.11956,-0.15128,-0.10736,-0.06344,-0.0122,-0.0488,0.01464,-0.05368,-0.06344,-0.04392,-0.05368
-0.0732,0.10004,-0.12688,-0.09028,-0.05368,-0.00976,-0.05368,0.00976,-0.02928,-0.04392,-0.03904,-0.04392
-0.06344,0.0854,-0.10736,-0.07564,-0.04392,-0.00976,-0.06832,0.00976,-0.01464,-0.0244,-0.03416,-0.03416
-0.06832,0.0854,-0.10248,-0.06832,-0.03416,-0.01708,-0.05856,0.0244,-0.00976,-0.02928,-0.0244,-0.01952
-0.07808,0.0854,-0.09272,-0.05368,-0.01464,-0.03172,-0.03904,0.03416,0.00976,-0.01464,-0.01464,-0.00976
-0.07808,0.07808,-0.07808,-0.03904,0,-0.03904,-0.02928,0.03904,0.01464,0,0.00976,0.00976
-0.06832,0.06832,-0.06832,-0.03416,0,-0.03416,-0.00976,0.05368,0.01464,-0.00488,0.00488,0.00976
-0.06832,0.06588,-0.06344,-0.02928,0.00488,-0.0366,-0.00976,0.05856,0.01952,0,0.00488,0
-0.0488,0.0488,-0.0488,-0.0244,0,-0.0244,-0.00488,0.0488,0.00976,0.00488,0,-0.00488
-0.03904,0.04148,-0.04392,-0.0244,-0.00488,-0.01708,-0.00488,0.0488,0.00976,0,-0.00488,-0.00976
-0.00976,0.01952,-0.02928,-0.0244,-0.01952,0.00488,0.00976,0.0488,0.01952,-0.00488,0,-0.00488
0,0.00976,-0.01952,-0.01952,-0.01952,0.00976,0.01464,0.03904,0.01952,0.00488,-0.00488,0.00488
-0.00488,0.01464,-0.0244,-0.02196,-0.01952,0.00732,0.01952,0.04392,0.02928,0.00976,0.00488,0.01952
-0.01464,0.01952,-0.0244,-0.01708,-0.00976,-0.00244,0.01952,0.04392,0.03416,0.00976,0.01952,0.01952
-0.02928,0.0244,-0.01952,-0.00488,0.00976,-0.01952,0.0244,0.04392,0.04392,0.01464,0.02928,0.02928
-0.04392,0.03172,-0.01952,0.00244,0.0244,-0.03416,0.02928,0.05368,0.0488,0.01464,0.02928,0.02928
-0.05368,0.0366,-0.01952,0.00732,0.03416,-0.04392,0.03416,0.05856,0.04392,0.03416,0.03904,0.02928
-0.06344,0.04148,-0.01952,0.0122,0.04392,-0.05368,0.03416,0.05856,0.03416,0.02928,0.03904,0.0244
-0.04392,0.03416,-0.0244,-0.00244,0.01952,-0.03172,0.03904,0.05856,0.03416,0.01952,0.02928,0.0244
-0.03904,0.03172,-0.0244,-0.00488,0.01464,-0.02684,0.03904,0.05856,0.03904,0.01952,0.03416,0.0244
-0.03416,0.03416,-0.03416,-0.01708,0,-0.01708,0.0488,0.05856,0.02928,0.01464,0.0244,0.00976
-0.03416,0.03416,-0.03416,-0.01708,0,-0.01708,0.0488,0.06832,0.02928,0.00976,0.01952,0.01464
-0.03416,0.03904,-0.04392,-0.02684,-0.00976,-0.0122,0.05368,0.07808,0.02928,0,0.00976,0.00488
-0.0488,0.0488,-0.0488,-0.0244,0,-0.0244,0.04392,0.0732,0.02928,0,0.00976,-0.00488
-0.04392,0.05368,-0.06344,-0.04148,-0.01952,-0.0122,0.03416,0.0732,0.01952,0.01464,0.00976,0.00488
-0.05368,0.05856,-0.06344,-0.0366,-0.00976,-0.02196,0.03904,0.0732,0.0244,0.01464,0.01464,0.00488
-0.04392,0.05368,-0.06344,-0.04148,-0.01952,-0.0122,0.03904,0.07808,0.0244,0.00976,0.01464,0.01952
-0.04392,0.061,-0.07808,-0.05612,-0.03416,-0.00488,0.04392,0.08784,0.0244,0.01464,0.01464,0.01464
-0.03904,0.05612,-0.0732,-0.05368,-0.03416,-0.00244,0.04392,0.08784,0.03416,0.01952,0.01464,0.00976
-0.0244,0.0488,-0.0732,-0.061,-0.0488,0.0122,0.03904,0.08296,0.03416,0.01464,0.01464,0.00488
-0.01952,0.04148,-0.06344,-0.05368,-0.04392,0.0122,0.03904,0.06832,0.01952,0.00488,0.00488,-0.00488
-0.0244,0.04636,-0.06832,-0.05612,-0.04392,0.00976,0.03904,0.0732,0.01952,0.00976,0.00976,-0.00488
-0.0244,0.04392,-0.06344,-0.05124,-0.03904,0.00732,0.03904,0.06344,0.00976,0.00488,0.00488,-0.00976
-0.0244,0.04392,-0.06344,-0.05124,-0.03904,0.00732,0.03416,0.06344,0.00976,-0.00488,-0.01464,-0.01952
-0.03416,0.0488,-0.06344,-0.04636,-0.02928,-0.00244,0.03416,0.0732,0.00488,0.00488,-0.01464,-0.0244
-0.02928,0.05124,-0.0732,-0.05856,-0.04392,0.00732,0.03416,0.07808,0.00488,0,-0.0244,-0.0244
-0.03416,0.061,-0.08784,-0.07076,-0.05368,0.00976,0.02928,0.07808,0.00976,0,-0.01464,-0.01464
-0.04392,0.07076,-0.0976,-0.07564,-0.05368,0.00488,0.01952,0.07808,0.00976,-0.00976,0,-0.01464
-0.05856,0.08052,-0.10248,-0.0732,-0.04392,-0.00732,0.00976,0.06344,0.01464,-0.00488,0,-0.00488
-0.06344,0.08052,-0.0976,-0.06588,-0.03416,-0.01464,-0.00976,0.06344,0.00976,-0.00488,0.00488,-0.00488
-0.0488,0.06588,-0.08296,-0.05856,-0.03416,-0.00732,-0.01464,0.05856,0.01464,0.00488,0.01952,0
-0.03416,0.05856,-0.08296,-0.06588,-0.0488,0.00732,-0.01464,0.0488,0.0244,0.00488,0.00976,0
-0.0244,0.04392,-0.06344,-0.05124,-0.03904,0.00732,-0.00976,0.0488,0.02928,0.00488,0.00976,0.01464
-0.0244,0.03904,-0.05368,-0.04148,-0.02928,0.00244,0.00488,0.04392,0.02928,0.00976,0.00976,0.00976
-0.03416,0.03416,-0.03416,-0.01708,0,-0.01708,0.01464,0.05368,0.02928,0.0244,0.01464,0.00976
-0.03904,0.03904,-0.03904,-0.01952,0,-0.01952,0.01464,0.05368,0.03416,0.0244,0.00976,0.01464
-0.03416,0.02928,-0.0244,-0.00732,0.00976,-0.02196,0.0244,0.05368,0.03416,0.0244,0.0244,0.01464
-0.04392,0.03416,-0.0244,-0.00244,0.01952,-0.03172,0.0244,0.0488,0.03416,0.0244,0.0244,0.01464
-0.03904,0.03172,-0.0244,-0.00488,0.01464,-0.02684,0.01952,0.04392,0.02928,0.01952,0.01952,0.01464
-0.03904,0.02928,-0.01952,0,0.01952,-0.02928,0.01952,0.04392,0.02928,0.01952,0.00976,0.00488
-0.01464,0.00976,-0.00488,0.00244,0.00976,-0.0122,0.01464,0.03904,0.01952,0.00488,-0.00488,-0.00976
0.00976,-0.00244,-0.00488,-0.00976,-0.01464,0.0122,0.01464,0.0244,0.01952,0,-0.00488,-0.00976
0.01952,-0.01708,0.01464,0.00488,-0.00488,0.0122,0.0244,0.0244,0.0244,0.00488,-0.00488,-0.00976
0.01952,-0.01708,0.01464,0.00488,-0.00488,0.0122,0.0244,0.0244,0.02928,0.00488,0.00976,0
0.00976,-0.00732,0.00488,0,-0.00488,0.00732,0.03416,0.01952,0.03904,0,0.02928,0.01464
-0.00488,0.00244,0,0.00244,0.00488,-0.00488,0.02928,0.0244,0.04392,0,0.0244,0.01952
-0.01952,0.00976,0,0.00976,0.01952,-0.01952,0.03904,0.03904,0.04392,0.01952,0.00976,0.01464
-0.02928,0.01952,-0.00976,0.00488,0.01952,-0.0244,0.03416,0.03904,0.0488,0.01952,0.00976,0.01464
-0.02928,0.0244,-0.01952,-0.00488,0.00976,-0.01952,0.03904,0.03904,0.03904,0.01952,0.00488,0.01464
-0.00976,0.01464,-0.01952,-0.01464,-0.00976,0,0.0488,0.03416,0.02928,0.01464,0.00488,0
0,0.0122,-0.0244,-0.0244,-0.0244,0.0122,0.03904,0.03416,0.01952,0.00976,0,-0.00976
0.01464,0.00488,-0.0244,-0.03172,-0.03904,0.02684,0.03904,0.02928,0.00976,0,-0.00488,-0.01952
0.01952,0.00976,-0.03904,-0.0488,-0.05856,0.03904,0.03904,0.03904,0,-0.00976,-0.00488,-0.01464
0.00976,0.0122,-0.03416,-0.03904,-0.04392,0.02684,0.03904,0.03416,-0.00976,-0.00976,-0.00488,-0.00976
-0.00488,0.02684,-0.0488,-0.04636,-0.04392,0.01952,0.04392,0.03416,-0.00488,0,-0.00488,0
-0.01464,0.03172,-0.0488,-0.04148,-0.03416,0.00976,0.03904,0.03416,0.00488,0,-0.00488,-0.00488
-0.00976,0.0244,-0.03904,-0.03416,-0.02928,0.00976,0.03904,0.03416,0.01464,0,-0.01464,-0.00976
-0.00488,0.0244,-0.04392,-0.04148,-0.03904,0.01708,0.03416,0.02928,0.01464,0,-0.0244,-0.01464
0,0.01708,-0.03416,-0.03416,-0.03416,0.01708,0.03904,0.02928,0.00488,-0.00488,-0.0244,-0.01464
0.00488,0.0122,-0.02928,-0.03172,-0.03416,0.01952,0.03904,0.02928,0,-0.01464,-0.01952,-0.01952
0.02928,0.00244,-0.03416,-0.0488,-0.06344,0.04636,0.03416,0.0244,-0.00488,-0.01952,-0.0244,-0.01952
0.03904,0.00244,-0.04392,-0.06344,-0.08296,0.061,0.0244,0.00976,-0.01952,-0.02928,-0.0244,-0.02928
0.05368,0.00244,-0.05856,-0.0854,-0.11224,0.08296,0.03416,0.01464,-0.0244,-0.04392,-0.03416,-0.03904
0.05856,0,-0.05856,-0.08784,-0.11712,0.08784,0.03416,0.01464,-0.0244,-0.04392,-0.03904,-0.03904
0.0488,0.00488,-0.05856,-0.08296,-0.10736,0.07808,0.03416,0.02928,-0.01952,-0.03904,-0.03904,-0.03416
0.01464,0.02196,-0.05856,-0.06588,-0.0732,0.04392,0.02928,0.02928,-0.00976,-0.03416,-0.02928,-0.03416
-0.01952,0.03416,-0.0488,-0.03904,-0.02928,0.00488,0.0244,0.02928,0.00488,-0.01952,-0.01952,-0.0244
-0.03904,0.04148,-0.04392,-0.0244,-0.00488,-0.01708,0.01464,0.02928,0.00976,-0.00976,-0.00488,-0.01464
-0.04392,0.0366,-0.02928,-0.00732,0.01464,-0.02928,0,0.02928,0.01464,-0.00488,-0.00488,-0.01464
-0.01952,0.01952,-0.01952,-0.00976,0,-0.00976,-0.00488,0.01464,0.00488,-0.00488,-0.00488,-0.02928
0,0.00976,-0.01952,-0.01952,-0.01952,0.00976,-0.01464,0.00488,-0.00488,-0.01464,-0.01464,-0.02928
0.01952,-0.00488,-0.00976,-0.01952,-0.02928,0.0244,-0.01464,-0.00488,-0.00976,-0.02928,-0.01952,-0.03416
0.0244,-0.00976,-0.00488,-0.01708,-0.02928,0.02684,-0.00976,-0.00488,-0.00976,-0.02928,-0.0244,-0.03416
0.01952,-0.00732,-0.00488,-0.01464,-0.0244,0.02196,0,0.00488,0,-0.0244,-0.0244,-0.02928
0,0.00244,-0.00488,-0.00488,-0.00488,0.00244,0.00488,0.00488,-0.00488,-0.0244,-0.0244,-0.01464
-0.00488,0.00488,-0.00488,-0.00244,0,-0.00244,0.00488,0.00488,0,-0.01464,-0.01952,-0.01464
-0.00488,0.00244,0,0.00244,0.00488,-0.00488,0.01952,0.00488,0,-0.01464,-0.01952,-0.01464
-0.00488,0,0.00488,0.00732,0.00976,-0.00732,0.01952,0.01464,0.00976,-0.01464,-0.01952,-0.0244
-0.00488,-0.00244,0.00976,0.0122,0.01464,-0.00976,0.01952,0.00976,0.01464,-0.01952,-0.01952,-0.0244
0.00976,-0.00976,0.00976,0.00488,0,0.00488,0.01952,0,0.01464,-0.01464,-0.02928,-0.02928
0.00976,-0.00488,0,-0.00488,-0.00976,0.00976,0.01952,0,0.00976,-0.01952,-0.0244,-0.03416
0.0244,-0.01464,0.00488,-0.00732,-0.01952,0.02196,0.01952,-0.00976,0.00488,-0.01952,-0.0244,-0.02928
0.02928,-0.02196,0.01464,0,-0.01464,0.02196,0.01952,-0.00976,0.00488,-0.01952,-0.0244,-0.02928
0.0244,-0.02684,0.02928,0.01708,0.00488,0.00976,0.02928,-0.00488,0.01464,-0.01464,-0.01464,-0.01952
0.01464,-0.0244,0.03416,0.02684,0.01952,-0.00244,0.02928,0.00488,0.01952,0,0.00976,0
0,-0.01464,0.02928,0.02928,0.02928,-0.01464,0.04392,0.01464,0.0244,0.01464,0.01952,0.00976
-0.01952,-0.00244,0.0244,0.03416,0.04392,-0.03172,0.04392,0.02928,0.02928,0.01464,0.0244,0.01464
-0.02928,0.00732,0.01464,0.02928,0.04392,-0.0366,0.0488,0.0244,0.02928,0.00488,0.01464,0.00488
-0.0244,0.00976,0.00488,0.01708,0.02928,-0.02684,0.0488,0.02928,0.03416,0.00976,-0.00488,-0.00488
0,-0.00244,0.00488,0.00488,0.00488,-0.00244,0.0488,0.01464,0.0244,-0.00488,-0.00976,-0.00488
0.01952,-0.00976,0,-0.00976,-0.01952,0.01952,0.0488,0.01464,0.0244,-0.00488,0,-0.00976
0.0244,-0.00732,-0.00976,-0.02196,-0.03416,0.02928,0.05856,0.01464,0.01464,-0.00488,-0.00976,-0.01952
0.02928,-0.00976,-0.00976,-0.0244,-0.03904,0.03416,0.05856,0.00976,0.01464,-0.00976,-0.00488,-0.01464
0.02928,-0.00732,-0.01464,-0.02928,-0.04392,0.0366,0.05368,0.01952,0.00488,-0.01952,-0.00976,-0.01464
0.0244,-0.00732,-0.00976,-0.02196,-0.03416,0.02928,0.05368,0.0244,0.00488,-0.01464,-0.01464,-0.02928
0.0244,-0.00488,-0.01464,-0.02684,-0.03904,0.03172,0.05368,0.01464,-0.00488,-0.01464,-0.02928,-0.04392
0.0244,-0.00488,-0.01464,-0.02684,-0.03904,0.03172,0.05368,0.01464,0,-0.01464,-0.02928,-0.0488
0.01952,0.00488,-0.02928,-0.03904,-0.0488,0.03416,0.06832,0.01952,0.00488,-0.00488,-0.0244,-0.03416
0,0.0122,-0.0244,-0.0244,-0.0244,0.0122,0.06832,0.02928,0.00488,-0.00488,-0.01952,-0.0244
-0.00488,0.01952,-0.03416,-0.03172,-0.02928,0.0122,0.05856,0.0244,-0.00488,-0.01464,-0.01464,-0.03416
0.00976,0.0122,-0.03416,-0.03904,-0.04392,0.02684,0.05856,0.0244,-0.00976,-0.01952,-0.01464,-0.03416
0.03416,0,-0.03416,-0.05124,-0.06832,0.05124,0.0488,0.00976,-0.00976,-0.01952,-0.0244,-0.04392
0.04392,0,-0.04392,-0.06588,-0.08784,0.06588,0.03904,0.00976,-0.00976,-0.01952,-0.01952,-0.03904
0.04392,-0.00488,-0.03416,-0.05612,-0.07808,0.061,0.03904,0.01952,-0.00488,-0.00976,-0.00488,-0.0244
0.0244,0,-0.0244,-0.0366,-0.0488,0.0366,0.03416,0.01952,0.00488,-0.00488,0.00488,-0.01464
0.00488,0.00732,-0.01952,-0.02196,-0.0244,0.01464,0.02928,0.01952,0.01952,-0.00976,0.01464,0
0,0.00732,-0.01464,-0.01464,-0.01464,0.00732,0.02928,0.01952,0.01952,-0.00488,0.01464,0
-0.00976,0.0122,-0.01464,-0.00976,-0.00488,-0.00244,0.01952,0.01464,0.01952,-0.00488,0.00976,-0.00488
0,0.00732,-0.01464,-0.01464,-0.01464,0.00732,-0.00488,0.00976,0.00488,-0.00488,-0.00976,-0.01464
-0.00488,0.0122,-0.01952,-0.01708,-0.01464,0.00488,-0.00976,0.00976,0.00976,-0.00488,-0.01464,-0.02928
-0.00488,0.01952,-0.03416,-0.03172,-0.02928,0.0122,-0.00976,0.00488,0.00976,-0.00976,-0.0244,-0.04392
-0.04392,0.05856,-0.0732,-0.05124,-0.02928,-0.00732,-0.00976,0.0244,0,-0.0244,-0.06344,-0.05856
-0.05856,0.09272,-0.12688,-0.0976,-0.06832,0.00488,0.00488,0.0488,-0.03904,-0.06832,-0.08784,-0.08296
-0.04392,0.09516,-0.1464,-0.12444,-0.10248,0.02928,0.01464,0.06832,-0.05856,-0.07808,-0.09272,-0.0976
-0.0488,0.07564,-0.10248,-0.07808,-0.05368,0.00244,0.00488,0.07808,0.00976,-0.00488,0.00488,-0.01464
-0.08784,0.0854,-0.08296,-0.03904,0.00488,-0.04636,-0.00488,0.13176,0.10736,0.10736,0.08784,0.08784
-0.122,0.0976,-0.0732,-0.0122,0.0488,-0.0854,-0.0244,0.13664,0.17568,0.1952,0.18544,0.19032
-0.13176,0.05856,0.01464,0.08052,0.1464,-0.13908,-0.04392,0.08784,0.29768,0.3416,0.33672,0.35624
-0.16104,0.0488,0.06344,0.14396,0.22448,-0.19276,-0.10736,-0.07808,0.40016,0.48312,0.49288,0.488
-0.30744,0.122,0.06344,0.21716,0.37088,-0.33916,-0.20008,-0.1708,0.50752,0.61,0.61488,0.61976
-0.35136,0.09028,0.1708,0.34648,0.52216,-0.43676,-0.27816,-0.2684,0.64904,0.78568,0.79056,0.8296
-0.40016,0.10736,0.18544,0.38552,0.5856,-0.49288,-0.30744,-0.21472,0.71736,0.86864,0.89304,0.9272
-0.26352,-0.01708,0.29768,0.42944,0.5612,-0.41236,-0.2684,-0.20008,0.66368,0.7808,0.79544,0.83448
0.00488,-0.2318,0.45872,0.45628,0.45384,-0.22448,-0.20008,-0.27816,0.54168,0.62952,0.6588,0.71248
0.24888,-0.39528,0.54168,0.41724,0.2928,-0.02196,-0.14152,-0.37576,0.36112,0.41968,0.45872,0.5124
0.29768,-0.36844,0.4392,0.29036,0.14152,0.07808,-0.12688,-0.41968,0.18544,0.20984,0.2684,0.30256
0.32696,-0.32452,0.32208,0.1586,-0.00488,0.16592,-0.10736,-0.41968,0.05368,0.05368,0.11712,0.15616
0.24888,-0.20008,0.15128,0.02684,-0.0976,0.17324,-0.07808,-0.30256,-0.01952,-0.0244,0.00488,0.03416
0.17568,-0.11224,0.0488,-0.03904,-0.12688,0.15128,-0.02928,-0.1708,-0.04392,-0.03904,-0.03416,-0.0244
0.09272,-0.05124,0.00976,-0.0366,-0.08296,0.08784,0.00488,-0.05856,-0.01952,-0.0244,-0.0244,-0.0244
0.0244,0.00488,-0.03416,-0.04636,-0.05856,0.04148,0.00976,-0.00976,0.00488,-0.01952,-0.01952,-0.01464
0.01464,0.00488,-0.0244,-0.03172,-0.03904,0.02684,0.01464,0.00488,0.00976,-0.00976,-0.01952,-0.01952
0.02928,-0.00976,-0.00976,-0.0244,-0.03904,0.03416,0.01952,0.00488,0,-0.01464,-0.0244,-0.0244
0.03904,-0.01708,-0.00488,-0.0244,-0.04392,0.04148,0.03416,0,0.00488,-0.01952,-0.02928,-0.0244
0.02928,-0.00976,-0.00976,-0.0244,-0.03904,0.03416,0.03416,-0.00488,-0.00976,-0.03416,-0.02928,-0.0244
0.02928,-0.00732,-0.01464,-0.02928,-0.04392,0.0366,0.03416,-0.00488,-0.00976,-0.03416,-0.03416,-0.02928
0.01952,-0.00732,-0.00488,-0.01464,-0.0244,0.02196,0.03904,-0.00488,-0.00976,-0.03904,-0.03904,-0.03904
0.02928,-0.01464,0,-0.01464,-0.02928,0.02928,0.04392,-0.00488,-0.00976,-0.04392,-0.03904,-0.03904
0.02928,-0.01464,0,-0.01464,-0.02928,0.02928,0.03416,-0.00488,-0.00976,-0.03904,-0.03904,-0.03904
0.02928,-0.0122,-0.00488,-0.01952,-0.03416,0.03172,0.03904,-0.00488,-0.01464,-0.02928,-0.0488,-0.03904
0.0488,-0.02196,-0.00488,-0.02928,-0.05368,0.05124,0.03416,-0.01952,-0.01952,-0.03904,-0.0488,-0.04392
0.05856,-0.03172,0.00488,-0.0244,-0.05368,0.05612,0.03416,-0.02928,-0.01464,-0.0488,-0.0488,-0.0488
0.0732,-0.04148,0.00976,-0.02684,-0.06344,0.06832,0.03904,-0.0244,-0.01952,-0.03904,-0.05368,-0.0488
0.08296,-0.05368,0.0244,-0.01708,-0.05856,0.07076,0.0488,-0.0244,-0.03416,-0.04392,-0.05856,-0.05368
0.05368,-0.03416,0.01464,-0.0122,-0.03904,0.04636,0.03904,-0.01952,-0.0244,-0.04392,-0.0488,-0.0488
0.0488,-0.03416,0.01952,-0.00488,-0.02928,0.03904,0.03904,-0.0244,-0.01952,-0.0488,-0.04392,-0.05368
0.05856,-0.0366,0.01464,-0.01464,-0.04392,0.05124,0.00488,-0.03904,-0.01952,-0.04392,-0.04392,-0.04392
0.06344,-0.0366,0.00976,-0.02196,-0.05368,0.05856,-0.00976,-0.03416,-0.01952,-0.04392,-0.04392,-0.04392
0.06832,-0.03416,0,-0.03416,-0.06832,0.06832,-0.0244,-0.04392,-0.03416,-0.05368,-0.03904,-0.03904
0.05856,-0.0244,-0.00976,-0.03904,-0.06832,0.06344,-0.02928,-0.0488,-0.03416,-0.0488,-0.03416,-0.04392
0.04392,-0.01464,-0.01464,-0.0366,-0.05856,0.05124,-0.03904,-0.04392,-0.03416,-0.0488,-0.03904,-0.03904
0.04392,-0.01464,-0.01464,-0.0366,-0.05856,0.05124,-0.03904,-0.04392,-0.03416,-0.05368,-0.03904,-0.03416
0.04392,-0.00976,-0.0244,-0.04636,-0.06832,0.05612,-0.04392,-0.03904,-0.02928,-0.05368,-0.05368,-0.04392
0.03416,-0.00488,-0.0244,-0.04148,-0.05856,0.04636,-0.03416,-0.03904,-0.02928,-0.05368,-0.0488,-0.03416
0.02928,-0.00244,-0.0244,-0.03904,-0.05368,0.04148,-0.0244,-0.03904,-0.03416,-0.05856,-0.05856,-0.0488
0.03416,-0.00488,-0.0244,-0.04148,-0.05856,0.04636,-0.0244,-0.03904,-0.03904,-0.06832,-0.05856,-0.05856
0.03416,-0.00488,-0.0244,-0.04148,-0.05856,0.04636,-0.01952,-0.03904,-0.0488,-0.06832,-0.05856,-0.06344
0.03416,-0.00244,-0.02928,-0.04636,-0.06344,0.0488,-0.02928,-0.04392,-0.0488,-0.06344,-0.0488,-0.06344
0.04392,-0.00732,-0.02928,-0.05124,-0.0732,0.05856,-0.0244,-0.04392,-0.05856,-0.0732,-0.05856,-0.06832
0.04392,-0.00976,-0.0244,-0.04636,-0.06832,0.05612,-0.0244,-0.04392,-0.05856,-0.0732,-0.06344,-0.06832
0.0488,-0.00732,-0.03416,-0.05856,-0.08296,0.06588,-0.0244,-0.04392,-0.05856,-0.07808,-0.06832,-0.07808
0.0488,-0.00488,-0.03904,-0.06344,-0.08784,0.06832,-0.01464,-0.0488,-0.06344,-0.07808,-0.08296,-0.07808
0.0488,-0.00488,-0.03904,-0.06344,-0.08784,0.06832,-0.00488,-0.03904,-0.06344,-0.08784,-0.08784,-0.08296
0.03904,0.00244,-0.04392,-0.06344,-0.08296,0.061,-0.00976,-0.03904,-0.06344,-0.08296,-0.08296,-0.08296
0.03416,0.00488,-0.04392,-0.061,-0.07808,0.05612,0.00488,-0.0244,-0.0488,-0.0732,-0.08296,-0.08296
0.03416,0.0122,-0.05856,-0.07564,-0.09272,0.06344,0.00488,-0.0244,-0.04392,-0.0732,-0.08296,-0.08296
0.01464,0.01952,-0.05368,-0.061,-0.06832,0.04148,0.01952,-0.00976,-0.0488,-0.06832,-0.05856,-0.06344
-0.00976,0.03416,-0.05856,-0.05368,-0.0488,0.01952,0.01952,-0.00976,-0.04392,-0.06344,-0.05856,-0.05368
0,0.02684,-0.05368,-0.05368,-0.05368,0.02684,0.01952,-0.00976,-0.04392,-0.0732,-0.0488,-0.05856
0.00976,0.02196,-0.05368,-0.05856,-0.06344,0.0366,0.01952,-0.00976,-0.04392,-0.06832,-0.03904,-0.05368
0.00976,0.01708,-0.04392,-0.0488,-0.05368,0.03172,0.01464,-0.01464,-0.03416,-0.06344,-0.04392,-0.05368
0.00976,0.0122,-0.03416,-0.03904,-0.04392,0.02684,0.01952,-0.01464,-0.03904,-0.05368,-0.05856,-0.0488
-0.00488,0.01952,-0.03416,-0.03172,-0.02928,0.0122,0.02928,-0.00976,-0.0244,-0.0488,-0.05856,-0.0488
-0.01952,0.03172,-0.04392,-0.03416,-0.0244,0.00244,0.03416,-0.00488,-0.02928,-0.0488,-0.05856,-0.0488
-0.00488,0.02196,-0.03904,-0.0366,-0.03416,0.01464,0.01464,-0.00976,-0.03904,-0.05856,-0.05856,-0.05856
0,0.0244,-0.0488,-0.0488,-0.0488,0.0244,-0.00488,-0.00976,-0.03904,-0.06832,-0.05856,-0.05856
-0.00488,0.03416,-0.06344,-0.061,-0.05856,0.02684,-0.01952,-0.01952,-0.0488,-0.07808,-0.06344,-0.06344
-0.00976,0.03904,-0.06832,-0.06344,-0.05856,0.0244,-0.01952,-0.01952,-0.05368,-0.08296,-0.05368,-0.06344
-0.02928,0.05368,-0.07808,-0.06344,-0.0488,0.00976,-0.02928,-0.01464,-0.0488,-0.0732,-0.05368,-0.05856
-0.0488,0.06344,-0.07808,-0.05368,-0.02928,-0.00976,-0.02928,-0.01952,-0.0488,-0.0732,-0.05856,-0.05856
-0.05856,0.0732,-0.08784,-0.05856,-0.02928,-0.01464,-0.04392,-0.00976,-0.0488,-0.08296,-0.06832,-0.07808
-0.06344,0.07808,-0.09272,-0.061,-0.02928,-0.01708,-0.05856,-0.00488,-0.05856,-0.08296,-0.09272,-0.09272
-0.0732,0.09028,-0.10736,-0.07076,-0.03416,-0.01952,-0.0732,0,-0.06344,-0.09272,-0.08784,-0.08784
-0.07808,0.0976,-0.11712,-0.07808,-0.03904,-0.01952,-0.07808,0,-0.06344,-0.09272,-0.08784,-0.08784
-0.08784,0.1098,-0.13176,-0.08784,-0.04392,-0.02196,-0.08784,0.00488,-0.06344,-0.08784,-0.08296,-0.0732
-0.09272,0.122,-0.15128,-0.10492,-0.05856,-0.01708,-0.08296,0.00488,-0.06344,-0.08784,-0.06832,-0.0732
-0.10736,0.13176,-0.15616,-0.10248,-0.0488,-0.02928,-0.09272,0.01464,-0.06344,-0.09272,-0.0732,-0.07808
-0.10248,0.12932,-0.15616,-0.10492,-0.05368,-0.0244,-0.08296,0.01952,-0.06344,-0.09272,-0.06832,-0.0732
-0.10248,0.1342,-0.16592,-0.11468,-0.06344,-0.01952,-0.09272,0.00976,-0.06832,-0.08784,-0.06344,-0.06832
-0.0976,0.13176,-0.16592,-0.11712,-0.06832,-0.01464,-0.08784,0.00488,-0.0732,-0.09272,-0.06344,-0.06832
-0.08296,0.12688,-0.1708,-0.12932,-0.08784,0.00244,-0.09272,-0.00488,-0.06832,-0.09272,-0.06344,-0.0732
-0.08784,0.12932,-0.1708,-0.12688,-0.08296,-0.00244,-0.09272,0,-0.05856,-0.08784,-0.0732,-0.0732
-0.11224,0.14152,-0.1708,-0.11468,-0.05856,-0.02684,-0.07808,0.01464,-0.04392,-0.06832,-0.05368,-0.0488
-0.11712,0.14152,-0.16592,-0.10736,-0.0488,-0.03416,-0.06832,0.01952,-0.03416,-0.05368,-0.03904,-0.02928
-0.11224,0.1342,-0.15616,-0.10004,-0.04392,-0.03416,-0.05856,0.02928,-0.03416,-0.0488,-0.01952,-0.01952
-0.10736,0.12932,-0.15128,-0.0976,-0.04392,-0.03172,-0.05856,0.03904,-0.03416,-0.03416,0.00976,0
-0.09272,0.122,-0.15128,-0.10492,-0.05856,-0.01708,-0.04392,0.04392,-0.01464,-0.0244,0.00488,-0.00976
-0.08296,0.11224,-0.14152,-0.10004,-0.05856,-0.0122,-0.02928,0.03904,-0.00488,-0.01464,0,-0.01952
-0.08296,0.11224,-0.14152,-0.10004,-0.05856,-0.0122,-0.01952,0.05368,0,-0.01952,0,-0.01952
-0.0976,0.11956,-0.14152,-0.09272,-0.04392,-0.02684,0.00488,0.06344,0,-0.01952,0,-0.01464
-0.07808,0.10248,-0.12688,-0.08784,-0.0488,-0.01464,0.01464,0.05856,0.00488,-0.0244,-0.00976,-0.01464
-0.05856,0.08784,-0.11712,-0.08784,-0.05856,0,0.0244,0.06344,0.00488,-0.0244,-0.01464,-0.0244
-0.05856,0.08296,-0.10736,-0.07808,-0.0488,-0.00488,0.03904,0.06344,0.01952,-0.00976,-0.00488,-0.01464
-0.05856,0.07564,-0.09272,-0.06344,-0.03416,-0.0122,0.03904,0.06832,0.01952,0.00488,-0.00488,-0.01464
-0.06344,0.07564,-0.08784,-0.05612,-0.0244,-0.01952,0.05368,0.07808,0.01952,0.00488,0.00488,-0.00976
-0.05368,0.06832,-0.08296,-0.05612,-0.02928,-0.0122,0.05856,0.07808,0.01952,0.00488,0.00976,-0.00976
-0.05368,0.07076,-0.08784,-0.061,-0.03416,-0.00976,0.05856,0.07808,0.01952,-0.00976,0,-0.00976
-0.0488,0.06832,-0.08784,-0.06344,-0.03904,-0.00488,0.06832,0.07808,0.01952,-0.00976,-0.00976,-0.00976
-0.03904,0.061,-0.08296,-0.06344,-0.04392,0.00244,0.05856,0.0732,0.0244,-0.00976,0,0
-0.03416,0.04636,-0.05856,-0.04148,-0.0244,-0.00488,0.05856,0.0732,0.0244,-0.00488,0.00976,0.00488
-0.03416,0.0366,-0.03904,-0.02196,-0.00488,-0.01464,0.06832,0.05856,0.03416,0.01464,0.01952,0.00976
-0.03904,0.03416,-0.02928,-0.00976,0.00976,-0.0244,0.06832,0.05856,0.05368,0.02928,0.02928,0.00976
-0.02928,0.0244,-0.01952,-0.00488,0.00976,-0.01952,0.05856,0.05856,0.05856,0.03416,0.02928,0.00976
-0.0244,0.01708,-0.00976,0.00244,0.01464,-0.01952,0.05856,0.05856,0.05368,0.02928,0.02928,0.00488
-0.00976,0.00976,-0.00976,-0.00488,0,-0.00488,0.05856,0.05856,0.05368,0.01952,0.01952,0.00488
-0.01464,0.01952,-0.0244,-0.01708,-0.00976,-0.00244,0.05856,0.05856,0.05856,0.01952,0.0244,0.00488
-0.00488,0.01464,-0.0244,-0.02196,-0.01952,0.00732,0.0488,0.05368,0.0488,0.0244,0.02928,0.01952
0,0.0122,-0.0244,-0.0244,-0.0244,0.0122,0.03416,0.05856,0.0488,0.01952,0.03904,0.03416
-0.01952,0.02196,-0.0244,-0.01464,-0.00488,-0.00732,0.02928,0.05368,0.05856,0.02928,0.0488,0.02928
-0.03416,0.02928,-0.0244,-0.00732,0.00976,-0.02196,0.0244,0.05368,0.05856,0.03904,0.0488,0.0244
-0.04392,0.02928,-0.01464,0.00732,0.02928,-0.0366,0.01952,0.06344,0.06344,0.04392,0.04392,0.0244
-0.04392,0.02684,-0.00976,0.0122,0.03416,-0.03904,0.0244,0.06832,0.06344,0.03904,0.03416,0.0244
-0.04392,0.03416,-0.0244,-0.00244,0.01952,-0.03172,0.01952,0.0732,0.06344,0.02928,0.03416,0.02928
-0.04392,0.03904,-0.03416,-0.0122,0.00976,-0.02684,0.01464,0.07808,0.06344,0.0244,0.03416,0.0244
-0.0488,0.04636,-0.04392,-0.01952,0.00488,-0.02684,0,0.0732,0.05368,0.01952,0.03416,0.0244
-0.0488,0.04636,-0.04392,-0.01952,0.00488,-0.02684,0,0.06832,0.0488,0.01464,0.03416,0.0244
-0.05368,0.05124,-0.0488,-0.02196,0.00488,-0.02928,0.00976,0.06832,0.0488,0.02928,0.0488,0.03416
-0.05368,0.05124,-0.0488,-0.02196,0.00488,-0.02928,0.00976,0.0732,0.0488,0.02928,0.0488,0.03416
-0.05368,0.05368,-0.05368,-0.02684,0,-0.02684,0.00488,0.0732,0.03904,0.02928,0.04392,0.0244
-0.05368,0.05612,-0.05856,-0.03172,-0.00488,-0.0244,0.01464,0.0732,0.03416,0.03416,0.03904,0.0244
-0.03904,0.05368,-0.06832,-0.0488,-0.02928,-0.00488,0.00488,0.06832,0.0244,0.0244,0.01952,0.00488
-0.0244,0.0488,-0.0732,-0.061,-0.0488,0.0122,0.00488,0.05856,0.02928,0.00976,0.00976,-0.00488
-0.00976,0.04392,-0.07808,-0.0732,-0.06832,0.02928,0.00488,0.05856,0.01952,0,0.00488,-0.0244
-0.00976,0.04148,-0.0732,-0.06832,-0.06344,0.02684,0.00488,0.05368,0.00976,-0.00976,0,-0.03416
-0.01952,0.05124,-0.08296,-0.0732,-0.06344,0.02196,0.01464,0.06344,0.01464,-0.00488,-0.00488,-0.03416
-0.0244,0.05612,-0.08784,-0.07564,-0.06344,0.01952,0.00488,0.06344,0.00976,0,0,-0.03416
-0.00976,0.04636,-0.08296,-0.07808,-0.0732,0.03172,0.01464,0.06344,0.00976,-0.00488,-0.01464,-0.02928
-0.00976,0.04392,-0.07808,-0.0732,-0.06832,0.02928,0.01464,0.06344,0.00976,-0.00976,-0.01952,-0.02928
-0.0244,0.05124,-0.07808,-0.06588,-0.05368,0.01464,0.0244,0.06344,0.00976,-0.01464,-0.01952,-0.0244
-0.02928,0.05124,-0.0732,-0.05856,-0.04392,0.00732,0.02928,0.06344,0.00976,-0.00976,-0.00488,-0.02928
-0.0244,0.05368,-0.08296,-0.07076,-0.05856,0.01708,0.03416,0.05368,0,-0.01464,-0.01952,-0.03416
-0.01464,0.05124,-0.08784,-0.08052,-0.0732,0.02928,0.03416,0.05368,-0.00488,-0.01464,-0.01464,-0.03904
0,0.04148,-0.08296,-0.08296,-0.08296,0.04148,0.03416,0.05856,-0.00488,-0.0244,-0.0244,-0.04392
0.00488,0.03904,-0.08296,-0.0854,-0.08784,0.04636,0.02928,0.05856,0,-0.0244,-0.0244,-0.03904
-0.0244,0.04636,-0.06832,-0.05612,-0.04392,0.00976,0.03904,0.06344,0.00976,-0.00976,-0.01464,-0.02928
-0.03416,0.04392,-0.05368,-0.0366,-0.01952,-0.00732,0.03416,0.06344,0.00488,-0.00488,-0.00488,-0.01952
-0.04392,0.0488,-0.05368,-0.03172,-0.00976,-0.01708,0.04392,0.0732,0.01952,0.00488,0.00488,0
-0.0488,0.0488,-0.0488,-0.0244,0,-0.0244,0.05368,0.06832,0.0244,0.00488,0.01464,0.00488
-0.03904,0.0366,-0.03416,-0.01464,0.00488,-0.02196,0.05368,0.05368,0.02928,0.01464,0.01952,0.00488
-0.0244,0.0244,-0.0244,-0.0122,0,-0.0122,0.05368,0.04392,0.02928,0.01464,0.02928,0.00976
-0.00976,0.0122,-0.01464,-0.00976,-0.00488,-0.00244,0.03904,0.04392,0.02928,0.01952,0.01464,0
-0.00488,0.0122,-0.01952,-0.01708,-0.01464,0.00488,0.03904,0.03904,0.03416,0.0244,0.00976,-0.00488
-0.01464,0.01952,-0.0244,-0.01708,-0.00976,-0.00244,0.03904,0.03904,0.03416,0.02928,0.01952,0.00488
-0.02928,0.0244,-0.01952,-0.00488,0.00976,-0.01952,0.02928,0.03904,0.03904,0.01952,0.0244,0.00488
-0.03416,0.02196,-0.00976,0.00732,0.0244,-0.02928,0.0244,0.03416,0.03904,0.01952,0.01464,0
-0.0244,0.01708,-0.00976,0.00244,0.01464,-0.01952,0.01952,0.03416,0.02928,0.01464,0.01464,-0.00488
-0.0244,0.01464,-0.00488,0.00732,0.01952,-0.02196,0.00976,0.0244,0.0244,0.00488,0.01952,0.00488
-0.01952,0.00732,0.00488,0.01464,0.0244,-0.02196,0.00976,0.01952,0.0244,0,0.01464,0.00488
0.00488,-0.00488,0.00488,0.00244,0,0.00244,0.01952,0.0244,0.0244,0.00976,0.01464,0.00976
0.00976,0,-0.00976,-0.01464,-0.01952,0.01464,0.01952,0.01952,0.00976,0,0.00976,-0.00976
0.00976,0,-0.00976,-0.01464,-0.01952,0.01464,0.01952,0.01952,0.00976,0,0.00976,-0.00976
0.00488,0.00732,-0.01952,-0.02196,-0.0244,0.01464,0.02928,0.0244,0,0,0,-0.01464
0,0.00732,-0.01464,-0.01464,-0.01464,0.00732,0.0244,0.0244,0,0,-0.00488,-0.01464
-0.01952,0.01952,-0.01952,-0.00976,0,-0.00976,0.0244,0.02928,0.01952,0.00488,0.00488,-0.00488
-0.03904,0.03416,-0.02928,-0.00976,0.00976,-0.0244,0.03904,0.03904,0.01464,0.00488,0.00488,0
-0.02928,0.03172,-0.03416,-0.01952,-0.00488,-0.0122,0.03904,0.03416,0.00976,-0.00488,0.00488,0
-0.01952,0.0244,-0.02928,-0.01952,-0.00976,-0.00488,0.04392,0.03416,0.00976,-0.00488,-0.00488,-0.00976
-0.01464,0.01952,-0.0244,-0.01708,-0.00976,-0.00244,0.03904,0.03416,0.00976,-0.00488,-0.00976,-0.01464
-0.01464,0.01708,-0.01952,-0.0122,-0.00488,-0.00488,0.03904,0.02928,0.01464,-0.00976,-0.00976,-0.01464
0,0.00976,-0.01952,-0.01952,-0.01952,0.00976,0.02928,0.03904,0.00488,-0.01464,-0.02928,-0.02928
0,0.01464,-0.02928,-0.02928,-0.02928,0.01464,0.02928,0.03904,0,-0.01952,-0.0244,-0.03416
0.00488,0.02196,-0.0488,-0.05124,-0.05368,0.02928,0.02928,0.02928,-0.00488,-0.00976,-0.03416,-0.03904
0.00976,0.01952,-0.0488,-0.05368,-0.05856,0.03416,0.02928,0.02928,-0.00488,-0.00976,-0.03416,-0.03904
0.01952,0.01464,-0.0488,-0.05856,-0.06832,0.04392,0.02928,0.01952,-0.01464,-0.01952,-0.01952,-0.0244
0.01952,0.0122,-0.04392,-0.05368,-0.06344,0.04148,0.02928,0.01952,-0.00976,-0.01464,-0.00488,-0.01464
0.0244,0.00976,-0.04392,-0.05612,-0.06832,0.04636,0.0244,0.00976,-0.00976,-0.0244,-0.00488,-0.01464
0.01464,0.0122,-0.03904,-0.04636,-0.05368,0.03416,0.0244,0.01464,-0.01464,-0.0244,-0.00976,-0.01952
-0.00488,0.0244,-0.04392,-0.04148,-0.03904,0.01708,0.00976,0.01464,-0.00976,-0.0244,-0.01952,-0.02928
-0.00976,0.03172,-0.05368,-0.0488,-0.04392,0.01708,0.00976,0.01952,-0.00488,-0.01952,-0.02928,-0.02928
-0.01464,0.0366,-0.05856,-0.05124,-0.04392,0.01464,0.00976,0.01464,0.00488,-0.0244,-0.03904,-0.02928
-0.00488,0.02928,-0.05368,-0.05124,-0.0488,0.02196,0.00976,0.01464,0.00488,-0.0244,-0.02928,-0.0244
0.00976,0.01464,-0.03904,-0.04392,-0.0488,0.02928,0.00976,0.00976,-0.00488,-0.01464,-0.02928,-0.00976
0.0244,-0.00244,-0.01952,-0.03172,-0.04392,0.03416,0.00976,-0.00488,-0.00488,-0.01952,-0.0244,-0.00488
0.01952,-0.00244,-0.01464,-0.0244,-0.03416,0.02684,0.0244,0,-0.00488,-0.00976,-0.01464,0
0.01464,-0.00244,-0.00976,-0.01708,-0.0244,0.01952,0.0244,0.00488,-0.00488,-0.00488,-0.00976,-0.00488
0.00488,0,-0.00488,-0.00732,-0.00976,0.00732,0.01464,0.00488,-0.00488,-0.00488,0,-0.00488
0.00488,0,-0.00488,-0.00732,-0.00976,0.00732,0.01464,0.00488,0,-0.00488,0,-0.00976
0.00976,-0.00244,-0.00488,-0.00976,-0.01464,0.0122,0.00976,0.00488,0.00488,0.00488,0.01464,-0.00488
0.00976,-0.00976,0.00976,0.00488,0,0.00488,0.00976,0.00488,0.00488,0.00488,0.01952,0.00488
0.01464,-0.01464,0.01464,0.00732,0,0.00732,0.01952,-0.00488,0,-0.00488,0.01952,-0.00488
0.02928,-0.02196,0.01464,0,-0.01464,0.02196,0.01952,-0.00488,-0.01464,-0.00976,0.00976,-0.00488
0.03416,-0.0244,0.01464,-0.00244,-0.01952,0.02684,0.0244,0,-0.00976,-0.01952,0,-0.01464
0.0244,-0.01464,0.00488,-0.00732,-0.01952,0.02196,0.0244,0,-0.00976,-0.01952,-0.00488,-0.00976
0.03416,-0.01708,0,-0.01708,-0.03416,0.03416,0.01952,0,-0.00976,-0.0244,0,-0.00976
0.03416,-0.01708,0,-0.01708,-0.03416,0.03416,0.01464,0,-0.00976,-0.02928,0,-0.00976
0.04392,-0.02196,0,-0.02196,-0.04392,0.04392,0.00976,0,-0.00976,-0.02928,0.00488,-0.00976
0.03904,-0.02196,0.00488,-0.01464,-0.03416,0.0366,0.00976,0,-0.00976,-0.0244,0.00488,-0.00976
0.01952,-0.00732,-0.00488,-0.01464,-0.0244,0.02196,0.01464,0,-0.00488,-0.01952,0,-0.0244
0.00976,-0.00244,-0.00488,-0.00976,-0.01464,0.0122,0.01952,0.00488,-0.00976,-0.00976,-0.01952,-0.03416
0.01464,-0.00244,-0.00976,-0.01708,-0.0244,0.01952,0.02928,0.00976,-0.00976,-0.0244,-0.03416,-0.0488
0.0244,-0.00488,-0.01464,-0.02684,-0.03904,0.03172,0.02928,0.00488,-0.02928,-0.03904,-0.04392,-0.04392
0.0244,0.01952,-0.06344,-0.07564,-0.08784,0.05612,0.01952,0.01464,-0.05856,-0.06344,-0.0732,-0.06832
-0.00976,0.06832,-0.12688,-0.122,-0.11712,0.05368,0.05368,0.03904,-0.07808,-0.08784,-0.0976,-0.11224
-0.01464,0.07564,-0.13664,-0.12932,-0.122,0.05368,0.06344,0.05856,-0.0976,-0.0976,-0.10248,-0.13664
-0.02928,0.06588,-0.10248,-0.08784,-0.0732,0.02196,0.05368,0.07808,0,0.00488,-0.01464,-0.03416
-0.06832,0.0854,-0.10248,-0.06832,-0.03416,-0.01708,0.05368,0.14152,0.06832,0.07808,0.07808,0.06832
-0.11224,0.10736,-0.10248,-0.04636,0.00976,-0.061,0.03416,0.15616,0.1464,0.17568,0.17568,0.1708
-0.122,0.06832,-0.01464,0.04636,0.10736,-0.11468,0.01464,0.11712,0.27816,0.33184,0.32696,0.32696
-0.20008,0.09272,0.01464,0.11468,0.21472,-0.2074,-0.05856,-0.01952,0.3904,0.47336,0.4636,0.47824
-0.28792,0.13664,0.01464,0.1586,0.30256,-0.29524,-0.16104,-0.13176,0.46848,0.58072,0.5856,0.61976
-0.3416,0.11468,0.11224,0.28304,0.45384,-0.39772,-0.24888,-0.2196,0.61976,0.76616,0.7808,0.81984
-0.38064,0.10248,0.17568,0.366,0.55632,-0.46848,-0.27816,-0.16592,0.69784,0.85888,0.87352,0.91744
-0.23424,-0.0366,0.30744,0.42456,0.54168,-0.38796,-0.23912,-0.1708,0.61488,0.74176,0.76616,0.8052
0.0732,-0.2806,0.488,0.4514,0.4148,-0.1708,-0.18056,-0.27816,0.50264,0.58072,0.61,0.66368
0.3172,-0.4392,0.5612,0.4026,0.244,0.0366,-0.122,-0.40504,0.31232,0.38064,0.42944,0.48312
0.366,-0.41724,0.46848,0.28548,0.10248,0.13176,-0.13664,-0.44896,0.13664,0.1708,0.23912,0.28304
0.366,-0.35868,0.35136,0.16836,-0.01464,0.19032,-0.12688,-0.4392,0.0244,0.01464,0.08784,0.13664
0.24888,-0.20008,0.15128,0.02684,-0.0976,0.17324,-0.0976,-0.30256,-0.03904,-0.06344,-0.00488,0.03416
0.1464,-0.0976,0.0488,-0.0244,-0.0976,0.122,-0.03904,-0.1708,-0.05368,-0.06832,-0.03416,-0.0244
0.06344,-0.03172,0,-0.03172,-0.06344,0.06344,-0.01464,-0.05856,-0.0488,-0.05368,-0.01464,-0.01464
0.00488,0.00488,-0.01464,-0.01708,-0.01952,0.0122,-0.01952,-0.00976,-0.03416,-0.02928,0,0.00488
-0.00488,0.00976,-0.01464,-0.0122,-0.00976,0.00244,-0.01464,-0.00488,-0.01952,0,0.00976,0
0.00976,-0.00976,0.00976,0.00488,0,0.00488,-0.00976,-0.01464,-0.02928,-0.01464,0.00488,-0.01464
0.02928,-0.02196,0.01464,0,-0.01464,0.02196,0.00488,-0.01952,-0.0244,-0.01952,-0.00976,-0.0244
0.01952,-0.01464,0.00976,0,-0.00976,0.01464,0.00488,-0.00488,-0.01952,-0.0244,-0.00976,-0.01464
0.01952,-0.0122,0.00488,-0.00488,-0.01464,0.01708,0.00488,-0.00488,-0.01952,-0.0244,-0.01464,-0.01952
0.00976,-0.00732,0.00488,0,-0.00488,0.00732,0.01952,-0.00488,-0.01952,-0.01952,-0.01952,-0.01952
0.01952,-0.01464,0.00976,0,-0.00976,0.01464,0.0244,-0.00488,-0.01952,-0.0244,-0.01952,-0.01952
0.03904,-0.02928,0.01952,0,-0.01952,0.02928,0.01464,-0.01464,-0.02928,-0.03904,-0.02928,-0.02928
0.0488,-0.03172,0.01464,-0.00976,-0.03416,0.04148,0.01952,-0.0244,-0.03416,-0.0488,-0.03904,-0.02928
0.05856,-0.03172,0.00488,-0.0244,-0.05368,0.05612,0.01464,-0.02928,-0.03904,-0.0488,-0.03904,-0.03416
0.05856,-0.03172,0.00488,-0.0244,-0.05368,0.05612,0.00488,-0.02928,-0.03416,-0.0488,-0.03904,-0.03904
0.05368,-0.03172,0.00976,-0.01708,-0.04392,0.0488,0,-0.03416,-0.03904,-0.0488,-0.04392,-0.03904
0.06344,-0.04392,0.0244,-0.00732,-0.03904,0.05124,0,-0.03416,-0.05368,-0.05368,-0.0488,-0.04392
0.0732,-0.04392,0.01464,-0.02196,-0.05856,0.06588,0,-0.03904,-0.05368,-0.05368,-0.05856,-0.0488
0.08784,-0.0488,0.00976,-0.03416,-0.07808,0.08296,0,-0.04392,-0.05856,-0.05856,-0.06344,-0.05368
0.07808,-0.04148,0.00488,-0.03416,-0.0732,0.07564,0.00488,-0.0488,-0.05856,-0.06344,-0.05368,-0.06344
0.0732,-0.03172,-0.00976,-0.04636,-0.08296,0.07808,0.00976,-0.04392,-0.05856,-0.06344,-0.05368,-0.06344
0.07808,-0.03416,-0.00976,-0.0488,-0.08784,0.08296,0.00488,-0.03416,-0.0732,-0.0732,-0.05856,-0.06832
0.06832,-0.0244,-0.01952,-0.05368,-0.08784,0.07808,0.00976,-0.03904,-0.0732,-0.06832,-0.05368,-0.08296
0.0732,-0.02928,-0.01464,-0.05124,-0.08784,0.08052,0.00976,-0.04392,-0.06344,-0.07808,-0.07808,-0.0976
0.08296,-0.03416,-0.01464,-0.05612,-0.0976,0.09028,0.00976,-0.04392,-0.06344,-0.08296,-0.0976,-0.09272
0.0732,-0.03416,-0.00488,-0.04148,-0.07808,0.07564,0.00488,-0.03904,-0.06832,-0.08296,-0.09272,-0.08296
0.06344,-0.03416,0.00488,-0.02684,-0.05856,0.061,0.01464,-0.03904,-0.06832,-0.08296,-0.07808,-0.06344
0.0488,-0.03172,0.01464,-0.00976,-0.03416,0.04148,0.01464,-0.03904,-0.06344,-0.06832,-0.05856,-0.05856
0.05368,-0.03416,0.01464,-0.0122,-0.03904,0.04636,0.00488,-0.03904,-0.06832,-0.06832,-0.0488,-0.05856
0.05368,-0.02928,0.00488,-0.02196,-0.0488,0.05124,0.00976,-0.03904,-0.06832,-0.07808,-0.06832,-0.0732
0.04392,-0.01708,-0.00976,-0.03172,-0.05368,0.0488,0,-0.04392,-0.06832,-0.0732,-0.06832,-0.0732
0.04392,-0.00732,-0.02928,-0.05124,-0.0732,0.05856,-0.01464,-0.04392,-0.05856,-0.0732,-0.06832,-0.06832
0.04392,-0.00488,-0.03416,-0.05612,-0.07808,0.061,-0.0244,-0.04392,-0.05856,-0.0732,-0.06344,-0.06832
0.05856,-0.02196,-0.01464,-0.04392,-0.0732,0.06588,-0.03416,-0.04392,-0.06832,-0.06832,-0.0488,-0.06832
0.05856,-0.0244,-0.00976,-0.03904,-0.06832,0.06344,-0.03416,-0.0488,-0.08296,-0.06832,-0.05368,-0.06832
0.05856,-0.01952,-0.01952,-0.0488,-0.07808,0.06832,-0.0244,-0.03904,-0.0732,-0.07808,-0.05856,-0.0732
0.0488,-0.00732,-0.03416,-0.05856,-0.08296,0.06588,-0.01952,-0.03904,-0.0732,-0.0732,-0.05368,-0.0732
0.04392,0,-0.04392,-0.06588,-0.08784,0.06588,-0.00488,-0.03416,-0.06832,-0.0732,-0.06344,-0.08296
0.04392,0.00732,-0.05856,-0.08052,-0.10248,0.0732,-0.00488,-0.03416,-0.0732,-0.0732,-0.06344,-0.08296
0.05368,-0.00488,-0.04392,-0.07076,-0.0976,0.07564,-0.00976,-0.03904,-0.06832,-0.07808,-0.06832,-0.08296
0.03904,0,-0.03904,-0.05856,-0.07808,0.05856,-0.01952,-0.03904,-0.06344,-0.08296,-0.07808,-0.08296
0.02928,0.0122,-0.05368,-0.06832,-0.08296,0.05612,-0.00976,-0.02928,-0.06344,-0.08296,-0.07808,-0.08784
0.02928,0.01708,-0.06344,-0.07808,-0.09272,0.061,-0.00976,-0.02928,-0.06344,-0.07808,-0.07808,-0.08296
0.00976,0.02684,-0.06344,-0.06832,-0.0732,0.04148,-0.01464,-0.03416,-0.0732,-0.08296,-0.06344,-0.0732
0.00976,0.02684,-0.06344,-0.06832,-0.0732,0.04148,-0.00976,-0.03416,-0.07808,-0.08296,-0.06832,-0.06832
0.00488,0.02928,-0.06344,-0.06588,-0.06832,0.0366,-0.01952,-0.03904,-0.0732,-0.07808,-0.05856,-0.06832
-0.00976,0.0366,-0.06344,-0.05856,-0.05368,0.02196,-0.0244,-0.03416,-0.07808,-0.07808,-0.05856,-0.06832
-0.00488,0.04148,-0.07808,-0.07564,-0.0732,0.03416,-0.0244,-0.02928,-0.07808,-0.07808,-0.06832,-0.07808
0,0.04392,-0.08784,-0.08784,-0.08784,0.04392,-0.03416,-0.02928,-0.07808,-0.07808,-0.06832,-0.07808
-0.00488,0.0488,-0.09272,-0.09028,-0.08784,0.04148,-0.02928,-0.02928,-0.08784,-0.0976,-0.08296,-0.08296
-0.00976,0.05368,-0.0976,-0.09272,-0.08784,0.03904,-0.02928,-0.02928,-0.09272,-0.11224,-0.0732,-0.08296
0,0.0488,-0.0976,-0.0976,-0.0976,0.0488,-0.02928,-0.0244,-0.0976,-0.10248,-0.08296,-0.0976
-0.00976,0.05368,-0.0976,-0.09272,-0.08784,0.03904,-0.02928,-0.02928,-0.0976,-0.10248,-0.08784,-0.0976
0,0.0488,-0.0976,-0.0976,-0.0976,0.0488,-0.04392,-0.03904,-0.0976,-0.11224,-0.08784,-0.10736
-0.00488,0.05368,-0.10248,-0.10004,-0.0976,0.04636,-0.0488,-0.03416,-0.10736,-0.11224,-0.10248,-0.11224
-0.03416,0.07076,-0.10736,-0.09028,-0.0732,0.01952,-0.06344,-0.02928,-0.10248,-0.10248,-0.0976,-0.10736
-0.03904,0.07808,-0.11712,-0.0976,-0.07808,0.01952,-0.06832,-0.02928,-0.10248,-0.10248,-0.08784,-0.10736
-0.0488,0.07564,-0.10248,-0.07808,-0.05368,0.00244,-0.07808,-0.0244,-0.09272,-0.0976,-0.08296,-0.08296
-0.05368,0.07808,-0.10248,-0.07564,-0.0488,-0.00244,-0.0732,-0.0244,-0.09272,-0.0976,-0.05856,-0.0732
-0.05856,0.0732,-0.08784,-0.05856,-0.02928,-0.01464,-0.06344,-0.0244,-0.0732,-0.08296,-0.05368,-0.05856
-0.05368,0.07076,-0.08784,-0.061,-0.03416,-0.00976,-0.05368,-0.01952,-0.0732,-0.08296,-0.0488,-0.05368
-0.0732,0.0854,-0.0976,-0.061,-0.0244,-0.0244,-0.06344,-0.00976,-0.06832,-0.06832,-0.04392,-0.0488
-0.07808,0.08784,-0.0976,-0.05856,-0.01952,-0.02928,-0.05856,-0.00488,-0.06344,-0.06344,-0.04392,-0.03904
-0.0732,0.08296,-0.09272,-0.05612,-0.01952,-0.02684,-0.04392,-0.01464,-0.05856,-0.06344,-0.04392,-0.04392
-0.07808,0.0854,-0.09272,-0.05368,-0.01464,-0.03172,-0.04392,-0.00976,-0.0488,-0.05856,-0.04392,-0.04392
-0.0732,0.08296,-0.09272,-0.05612,-0.01952,-0.02684,-0.0488,-0.00488,-0.05368,-0.05856,-0.03416,-0.02928
-0.05856,0.0732,-0.08784,-0.05856,-0.02928,-0.01464,-0.0488,0,-0.04392,-0.04392,-0.02928,-0.01952
-0.0732,0.0854,-0.0976,-0.061,-0.0244,-0.0244,-0.0488,0.00976,-0.0244,-0.02928,-0.00976,-0.01952
-0.08784,0.09028,-0.09272,-0.0488,-0.00488,-0.04148,-0.0488,0.01952,-0.01464,-0.01464,0.00976,0
-0.09272,0.09272,-0.09272,-0.04636,0,-0.04636,-0.04392,0.03416,-0.01464,-0.00488,0.01464,0
-0.08296,0.08296,-0.08296,-0.04148,0,-0.04148,-0.03904,0.02928,-0.00488,0.00488,0.01952,0
-0.04392,0.05368,-0.06344,-0.04148,-0.01952,-0.0122,-0.0488,0.01464,-0.00976,-0.00976,0.00976,-0.00976
-0.01952,0.0366,-0.05368,-0.04392,-0.03416,0.00732,-0.03416,0.01464,-0.00976,-0.00976,0,-0.00488
-0.02928,0.04392,-0.05856,-0.04392,-0.02928,0,-0.03416,0.02928,-0.00488,0.00488,0.01952,0.01464
-0.02928,0.04392,-0.05856,-0.04392,-0.02928,0,-0.03416,0.03416,-0.00488,0.00488,0.03416,0.0244
-0.0488,0.05856,-0.06832,-0.04392,-0.01952,-0.01464,-0.01952,0.04392,0.00976,0.00976,0.0244,0.01464
-0.05856,0.061,-0.06344,-0.03416,-0.00488,-0.02684,-0.01952,0.0488,0.00976,0.01464,0.0244,0.01464
-0.04392,0.05124,-0.05856,-0.0366,-0.01464,-0.01464,-0.01464,0.0488,0,0.01464,0.01464,0
-0.0244,0.03904,-0.05368,-0.04148,-0.02928,0.00244,-0.00976,0.0488,-0.00976,0.00488,0.01952,-0.00976
-0.00488,0.03172,-0.05856,-0.05612,-0.05368,0.0244,0,0.03904,0,0,0.02928,0
0,0.0244,-0.0488,-0.0488,-0.0488,0.0244,0.00976,0.03904,0,0,0.01952,0
0,0.02684,-0.05368,-0.05368,-0.05368,0.02684,0.00976,0.04392,-0.00488,-0.00976,0.01952,-0.00976
