i,aVR,ii,aVF,iii,aVL,V1,V2,V3,V4,V5,V6
-0.08784,0.06832,-0.0488,-0.00488,0.03904,-0.06344,0.06344,0.03416,-0.0488,-0.02928,-0.01464,-0.05368
-0.08784,0.07076,-0.05368,-0.00976,0.03416,-0.061,0.06832,0.04392,-0.0488,-0.02928,-0.01952,-0.05368
-0.08296,0.07076,-0.05856,-0.01708,0.0244,-0.05368,0.0732,0.04392,-0.0488,-0.02928,-0.0244,-0.05368
-0.09272,0.07564,-0.05856,-0.0122,0.03416,-0.06344,0.0732,0.03904,-0.0488,-0.02928,-0.0244,-0.0488
-0.0976,0.07564,-0.05368,-0.00488,0.04392,-0.07076,0.0732,0.03904,-0.04392,-0.0244,-0.0244,-0.03904
-0.07808,0.06588,-0.05368,-0.01464,0.0244,-0.05124,0.0732,0.04392,-0.04392,-0.0244,-0.01952,-0.03904
-0.08296,0.06832,-0.05368,-0.0122,0.02928,-0.05612,0.0732,0.0488,-0.04392,-0.0244,-0.01952,-0.03904
-0.08296,0.06588,-0.0488,-0.00732,0.03416,-0.05856,0.06832,0.05368,-0.03904,-0.0244,-0.0244,-0.03416
-0.06832,0.05856,-0.0488,-0.01464,0.01952,-0.04392,0.06832,0.05856,-0.03904,-0.02928,-0.0244,-0.03416
-0.06344,0.05612,-0.0488,-0.01708,0.01464,-0.03904,0.06832,0.05856,-0.03904,-0.02928,-0.0244,-0.03416
-0.06344,0.05368,-0.04392,-0.0122,0.01952,-0.04148,0.06832,0.05856,-0.03416,-0.0244,-0.01952,-0.02928
-0.06832,0.05612,-0.04392,-0.00976,0.0244,-0.04636,0.06344,0.06344,-0.03416,-0.0244,-0.01952,-0.02928
-0.07808,0.06344,-0.0488,-0.00976,0.02928,-0.05368,0.06344,0.06344,-0.03416,-0.01952,-0.01952,-0.02928
-0.0732,0.061,-0.0488,-0.0122,0.0244,-0.0488,0.06344,0.06344,-0.03416,-0.01464,-0.00976,-0.01464
-0.06832,0.05612,-0.04392,-0.00976,0.0244,-0.04636,0.06344,0.06344,-0.02928,-0.00488,-0.00488,-0.00488
-0.05368,0.04392,-0.03416,-0.00732,0.01952,-0.0366,0.06344,0.05856,-0.02928,0,0,-0.00976
-0.03416,0.0244,-0.01464,0.00244,0.01952,-0.02684,0.05368,0.0488,-0.0244,0,0,-0.01464
-0.02928,0.01952,-0.00976,0.00488,0.01952,-0.0244,0.05368,0.0488,-0.0244,0.00488,0.00976,-0.00976
-0.0244,0.01708,-0.00976,0.00244,0.01464,-0.01952,0.0488,0.05368,-0.01952,0.00976,0.01464,-0.00488
-0.02928,0.02684,-0.0244,-0.00976,0.00488,-0.01708,0.0488,0.05368,-0.01952,0.00976,0.01464,-0.00488
-0.03416,0.03172,-0.02928,-0.0122,0.00488,-0.01952,0.0488,0.05368,-0.01464,0.00976,0.01952,0
-0.01952,0.02196,-0.0244,-0.01464,-0.00488,-0.00732,0.03904,0.05368,-0.01464,0.00976,0.02928,0.00488
-0.01952,0.01952,-0.01952,-0.00976,0,-0.00976,0.03904,0.05368,-0.00976,0.0244,0.03416,0.01464
0,0,0,0,0,0,0.03416,0.06344,-0.00488,0.0244,0.03904,0.01952
0.00488,-0.01464,0.0244,0.02196,0.01952,-0.00732,0.02928,0.06832,-0.00488,0.02928,0.0488,0.02928
0.02928,-0.03172,0.03416,0.01952,0.00488,0.0122,0.0244,0.06344,0,0.03416,0.05856,0.03416
0.03416,-0.0366,0.03904,0.02196,0.00488,0.01464,0.01464,0.06344,0.00488,0.04392,0.06344,0.0488
0.0488,-0.04148,0.03416,0.00976,-0.01464,0.03172,0.00976,0.06344,0.00488,0.0488,0.06832,0.0488
0.05368,-0.04148,0.02928,0.00244,-0.0244,0.03904,0.00488,0.05856,0.00488,0.05368,0.06832,0.0488
0.05856,-0.05124,0.04392,0.01464,-0.01464,0.0366,-0.00488,0.05368,0.00976,0.05856,0.0732,0.05856
0.07808,-0.06588,0.05368,0.01464,-0.0244,0.05124,-0.00976,0.05368,0.00976,0.06344,0.08296,0.06832
0.07808,-0.06832,0.05856,0.01952,-0.01952,0.0488,-0.01464,0.05856,0.01464,0.06832,0.08784,0.0732
0.08784,-0.07564,0.06344,0.01952,-0.0244,0.05612,-0.0244,0.05368,0.01952,0.06832,0.09272,0.0732
0.09272,-0.08296,0.0732,0.02684,-0.01952,0.05612,-0.02928,0.0488,0.01952,0.0732,0.0976,0.08296
0.11224,-0.09516,0.07808,0.02196,-0.03416,0.0732,-0.03416,0.03904,0.01952,0.0732,0.0976,0.08296
0.122,-0.10248,0.08296,0.02196,-0.03904,0.08052,-0.03904,0.03904,0.00488,0.0732,0.0976,0.08784
0.13176,-0.1098,0.08784,0.02196,-0.04392,0.08784,-0.04392,0.03416,0.00488,0.0732,0.0976,0.08784
0.13664,-0.11712,0.0976,0.02928,-0.03904,0.08784,-0.05368,0.0244,0.00976,0.0732,0.0976,0.09272
0.12688,-0.11224,0.0976,0.03416,-0.02928,0.07808,-0.05856,0.01952,0.00976,0.06832,0.0976,0.0976
0.13176,-0.11468,0.0976,0.03172,-0.03416,0.08296,-0.06344,0.01464,0.00976,0.05856,0.09272,0.09272
0.13176,-0.11468,0.0976,0.03172,-0.03416,0.08296,-0.06344,0.00976,0.00976,0.05856,0.09272,0.09272
0.12688,-0.11468,0.10248,0.03904,-0.0244,0.07564,-0.0732,-0.00488,0.00488,0.05368,0.10248,0.0976
0.11712,-0.1098,0.10248,0.04392,-0.01464,0.06588,-0.0732,-0.00976,0.00488,0.05368,0.10736,0.10248
0.122,-0.10736,0.09272,0.03172,-0.02928,0.07564,-0.07808,-0.00976,0,0.05368,0.10248,0.09272
0.122,-0.10492,0.08784,0.02684,-0.03416,0.07808,-0.08296,-0.01464,-0.00488,0.04392,0.09272,0.09272
0.11712,-0.10248,0.08784,0.02928,-0.02928,0.0732,-0.08296,-0.01464,-0.00488,0.04392,0.08784,0.08784
0.10736,-0.0976,0.08784,0.03416,-0.01952,0.06344,-0.07808,-0.01952,-0.00488,0.04392,0.08784,0.08296
0.10248,-0.09028,0.07808,0.02684,-0.0244,0.06344,-0.06832,-0.01952,-0.00488,0.03904,0.07808,0.07808
0.09272,-0.08296,0.0732,0.02684,-0.01952,0.05612,-0.06344,-0.01952,-0.00976,0.03416,0.0732,0.0732
0.09272,-0.08296,0.0732,0.02684,-0.01952,0.05612,-0.05856,-0.01952,-0.00976,0.02928,0.0732,0.06832
0.0732,-0.06588,0.05856,0.02196,-0.01464,0.04392,-0.05856,-0.01952,-0.00976,0.0244,0.0732,0.05856
0.06832,-0.061,0.05368,0.01952,-0.01464,0.04148,-0.05368,-0.01952,-0.01464,0.01952,0.06832,0.05856
0.05856,-0.05612,0.05368,0.0244,-0.00488,0.03172,-0.04392,-0.01464,-0.01464,0.01464,0.05856,0.0488
0.03416,-0.0366,0.03904,0.02196,0.00488,0.01464,-0.03904,-0.01464,-0.01464,0.00488,0.0488,0.04392
0.03416,-0.03416,0.03416,0.01708,0,0.01708,-0.03904,-0.01464,-0.01952,-0.00488,0.03904,0.03416
0.0244,-0.0244,0.0244,0.0122,0,0.0122,-0.0244,-0.00976,-0.01952,-0.01464,0.03416,0.01952
0.00976,-0.00976,0.00976,0.00488,0,0.00488,-0.01952,-0.00976,-0.0244,-0.01464,0.0244,0.00488
0,0,0,0,0,0,-0.00976,-0.00488,-0.0244,-0.00976,0.0244,0.00976
-0.00976,0.00732,-0.00488,0,0.00488,-0.00732,-0.00976,0,-0.0244,-0.00976,0.0244,0.01952
-0.0244,0.01708,-0.00976,0.00244,0.01464,-0.01952,-0.00488,0,-0.0244,-0.00976,0.0244,0.00976
-0.02928,0.0244,-0.01952,-0.00488,0.00976,-0.01952,0.00488,0,-0.02928,-0.01952,0.01952,0.00488
-0.04392,0.0366,-0.02928,-0.00732,0.01464,-0.02928,0.00488,0,-0.03416,-0.01952,0.00488,0
-0.0488,0.03904,-0.02928,-0.00488,0.01952,-0.03416,0.00488,0,-0.03416,-0.02928,0.00488,0
-0.03904,0.03416,-0.02928,-0.00976,0.00976,-0.0244,0.00488,0,-0.03904,-0.02928,0.00488,0
-0.0488,0.03904,-0.02928,-0.00488,0.01952,-0.03416,0.00488,0,-0.03904,-0.02928,0,0
-0.06344,0.05368,-0.04392,-0.0122,0.01952,-0.04148,0.00976,0,-0.03904,-0.02928,0,0
-0.06832,0.05856,-0.0488,-0.01464,0.01952,-0.04392,0.01464,0,-0.03904,-0.02928,0,-0.00488
-0.06832,0.05612,-0.04392,-0.00976,0.0244,-0.04636,0.01952,0,-0.03416,-0.02928,0,-0.00976
-0.06832,0.05612,-0.04392,-0.00976,0.0244,-0.04636,0.0244,0,-0.03416,-0.03904,-0.00488,-0.00976
-0.05856,0.05124,-0.04392,-0.01464,0.01464,-0.0366,0.0244,0.00488,-0.02928,-0.03904,0,-0.00976
-0.0488,0.04392,-0.03904,-0.01464,0.00976,-0.02928,0.01952,0.00976,-0.0244,-0.03416,0.00488,-0.00488
-0.0488,0.03904,-0.02928,-0.00488,0.01952,-0.03416,0.01952,0.00976,-0.0244,-0.03416,0.00488,0
-0.05368,0.04636,-0.03904,-0.0122,0.01464,-0.03416,0.01952,0.00976,-0.0244,-0.03416,0.00488,0
-0.05368,0.04636,-0.03904,-0.0122,0.01464,-0.03416,0.0244,0.00976,-0.0244,-0.04392,-0.00488,-0.00488
-0.05368,0.04392,-0.03416,-0.00732,0.01952,-0.0366,0.0244,0.00976,-0.0244,-0.0488,-0.00976,-0.00976
-0.05368,0.04392,-0.03416,-0.00732,0.01952,-0.0366,0.0244,0.00976,-0.0244,-0.04392,-0.00976,-0.00976
-0.05368,0.04636,-0.03904,-0.0122,0.01464,-0.03416,0.0244,0.00976,-0.0244,-0.04392,-0.00976,-0.00488
-0.05368,0.04636,-0.03904,-0.0122,0.01464,-0.03416,0.0244,0.00976,-0.0244,-0.03416,0,-0.00488
-0.05368,0.04392,-0.03416,-0.00732,0.01952,-0.0366,0.01952,0.00976,-0.01952,-0.0244,0.01464,0
-0.0488,0.04148,-0.03416,-0.00976,0.01464,-0.03172,0.01464,0.00488,-0.01952,-0.03416,0.00488,0
-0.0488,0.04148,-0.03416,-0.00976,0.01464,-0.03172,0.00976,0.00488,-0.01464,-0.03904,0,0
-0.0488,0.04148,-0.03416,-0.00976,0.01464,-0.03172,0.0244,0.00976,-0.01464,-0.03904,0,0.00488
-0.0488,0.04148,-0.03416,-0.00976,0.01464,-0.03172,0.01464,0.00976,-0.01464,-0.03904,0,0.00488
-0.0488,0.03904,-0.02928,-0.00488,0.01952,-0.03416,0.01464,0.01464,-0.01464,-0.02928,0.00976,0.00976
-0.0488,0.03416,-0.01952,0.00488,0.02928,-0.03904,0.01464,0.01952,-0.00976,-0.0244,0.01952,0.00976
-0.0488,0.03416,-0.01952,0.00488,0.02928,-0.03904,0.01952,0.01952,-0.00488,-0.01952,0.01952,0.01464
-0.0488,0.03172,-0.01464,0.00976,0.03416,-0.04148,0.01952,0.01952,-0.00488,-0.01952,0.01952,0.01952
-0.0488,0.03172,-0.01464,0.00976,0.03416,-0.04148,0.01952,0.01952,-0.00488,-0.01464,0.02928,0.0244
-0.0488,0.03172,-0.01464,0.00976,0.03416,-0.04148,0.01952,0.0244,-0.00488,-0.01464,0.02928,0.0244
-0.03904,0.02928,-0.01952,0,0.01952,-0.02928,0.01464,0.0244,0,-0.01464,0.0244,0.01952
-0.0488,0.03904,-0.02928,-0.00488,0.01952,-0.03416,0.01464,0.01952,0,-0.01952,0.0244,0.01464
-0.0488,0.03904,-0.02928,-0.00488,0.01952,-0.03416,0.01464,0.01952,0.00488,-0.01952,0.02928,0.01952
-0.03904,0.02928,-0.01952,0,0.01952,-0.02928,0.01952,0.0244,0.01464,-0.00976,0.03416,0.02928
-0.03904,0.02928,-0.01952,0,0.01952,-0.02928,0.01952,0.0244,0.01464,-0.00488,0.03904,0.02928
-0.03904,0.02928,-0.01952,0,0.01952,-0.02928,0.01464,0.0244,0.01464,0,0.03904,0.02928
-0.03416,0.0244,-0.01464,0.00244,0.01952,-0.02684,0.01464,0.02928,0.01464,0,0.03904,0.02928
-0.02928,0.02196,-0.01464,0,0.01464,-0.02196,0.01464,0.03416,0.01952,0.00488,0.04392,0.03416
-0.02928,0.02196,-0.01464,0,0.01464,-0.02196,0.01464,0.03416,0.01952,0,0.04392,0.03416
-0.02928,0.02196,-0.01464,0,0.01464,-0.02196,0.01464,0.03416,0.01952,-0.00488,0.04392,0.02928
-0.02928,0.02196,-0.01464,0,0.01464,-0.02196,0.01464,0.03416,0.01952,-0.00488,0.0488,0.03416
-0.02928,0.02196,-0.01464,0,0.01464,-0.02196,0.01464,0.03416,0.01952,0,0.05368,0.03904
-0.02928,0.01952,-0.00976,0.00488,0.01952,-0.0244,0.01464,0.03416,0.01952,0,0.05368,0.03904
-0.02928,0.01952,-0.00976,0.00488,0.01952,-0.0244,0.01464,0.03416,0.01952,0,0.05368,0.03904
-0.02928,0.02196,-0.01464,0,0.01464,-0.02196,0.01464,0.0244,0.01952,-0.00488,0.0488,0.03904
-0.01952,0.01708,-0.01464,-0.00488,0.00488,-0.0122,0.00976,0.01952,0.01464,-0.00488,0.04392,0.03904
-0.02928,0.0244,-0.01952,-0.00488,0.00976,-0.01952,0.00976,0.01952,0.01464,-0.00488,0.04392,0.03904
-0.02928,0.02928,-0.02928,-0.01464,0,-0.01464,0.01464,0.01952,0.01464,-0.00488,0.04392,0.04392
-0.04392,0.0366,-0.02928,-0.00732,0.01464,-0.02928,0.01464,0.0244,0.01464,-0.00488,0.04392,0.04392
-0.0244,0.01708,-0.00976,0.00244,0.01464,-0.01952,0.01464,0.0244,0.01464,-0.00488,0.0488,0.04392
-0.01952,0.01464,-0.00976,0,0.00976,-0.01464,0.01464,0.0244,0.00976,-0.00488,0.0488,0.04392
-0.01952,0.01708,-0.01464,-0.00488,0.00488,-0.0122,0.01464,0.0244,0.00976,-0.00976,0.03904,0.04392
-0.0244,0.01952,-0.01464,-0.00244,0.00976,-0.01708,0.01464,0.01464,0.00976,-0.00976,0.03904,0.03904
-0.0244,0.01952,-0.01464,-0.00244,0.00976,-0.01708,0.01464,0.01464,0.00976,-0.00976,0.03904,0.03904
-0.0244,0.01952,-0.01464,-0.00244,0.00976,-0.01708,0.01952,0.01464,0.01464,-0.01952,0.03416,0.03904
-0.0244,0.0244,-0.0244,-0.0122,0,-0.0122,0.01952,0.01952,0.01464,-0.01952,0.02928,0.03416
-0.03416,0.03416,-0.03416,-0.01708,0,-0.01708,0.01952,0.01952,0.01464,-0.01952,0.02928,0.02928
-0.03904,0.0366,-0.03416,-0.01464,0.00488,-0.02196,0.0244,0.01952,0.00976,-0.01952,0.02928,0.02928
-0.03904,0.03172,-0.0244,-0.00488,0.01464,-0.02684,0.0244,0.01952,0.01464,-0.01952,0.02928,0.03416
-0.03904,0.03172,-0.0244,-0.00488,0.01464,-0.02684,0.0244,0.01952,0.01464,-0.01952,0.02928,0.03416
-0.04392,0.04148,-0.03904,-0.01708,0.00488,-0.0244,0.0244,0.01464,0.01464,-0.0244,0.0244,0.01952
-0.0488,0.0488,-0.0488,-0.0244,0,-0.0244,0.0244,0.01464,0.01464,-0.0244,0.0244,0.01952
-0.0488,0.04148,-0.03416,-0.00976,0.01464,-0.03172,0.0244,0.0244,0.01464,-0.01952,0.0244,0.03904
-0.0488,0.0366,-0.0244,0,0.0244,-0.0366,0.0244,0.03416,0.00976,-0.0244,0.0244,0.02928
-0.05856,0.04636,-0.03416,-0.00488,0.0244,-0.04148,0.0244,0.0244,0.00976,-0.03416,0.0244,0.02928
-0.05856,0.05124,-0.04392,-0.01464,0.01464,-0.0366,0.01952,0.01464,0.00976,-0.03416,0.0244,0.02928
-0.05856,0.05124,-0.04392,-0.01464,0.01464,-0.0366,0.01952,0.01464,0.00976,-0.02928,0.02928,0.02928
-0.0488,0.04636,-0.04392,-0.01952,0.00488,-0.02684,0.01952,0.01952,0.00488,-0.0244,0.02928,0.02928
-0.05856,0.05124,-0.04392,-0.01464,0.01464,-0.0366,0.01952,0.01952,0.00488,-0.0244,0.01952,0.01952
-0.05856,0.05124,-0.04392,-0.01464,0.01464,-0.0366,0.01952,0.01952,0.00488,-0.0244,0.01464,0.01952
-0.05856,0.05124,-0.04392,-0.01464,0.01464,-0.0366,0.01952,0.01952,0.00488,-0.0244,0.01464,0.01952
-0.06832,0.05612,-0.04392,-0.00976,0.0244,-0.04636,0.01952,0.01952,0.00488,-0.0244,0.01464,0.01952
-0.05856,0.05124,-0.04392,-0.01464,0.01464,-0.0366,0.01952,0.01464,0,-0.03416,0.00488,0.01464
-0.05856,0.05368,-0.0488,-0.01952,0.00976,-0.03416,0.01952,0.00976,0,-0.03904,0,0.00488
-0.05368,0.05124,-0.0488,-0.02196,0.00488,-0.02928,0.01952,0.00976,0,-0.03904,0,0.00488
-0.0488,0.0488,-0.0488,-0.0244,0,-0.0244,0.01952,0.00976,0,-0.04392,0,0.01952
-0.05368,0.05368,-0.05368,-0.02684,0,-0.02684,0.01952,0.00976,0,-0.04392,-0.00488,0.00976
-0.05368,0.05368,-0.05368,-0.02684,0,-0.02684,0.01952,0.01464,0,-0.03904,-0.00488,0.00976
-0.05856,0.05612,-0.05368,-0.0244,0.00488,-0.03172,0.01952,0.01464,0,-0.03904,-0.00488,0.00976
-0.05856,0.05368,-0.0488,-0.01952,0.00976,-0.03416,0.01952,0.01464,0,-0.04392,0,0.00976
-0.05856,0.05368,-0.0488,-0.01952,0.00976,-0.03416,0.01952,0.01464,0,-0.04392,0,0.00976
-0.05856,0.05856,-0.05856,-0.02928,0,-0.02928,0.01952,0.01464,0,-0.04392,-0.00976,0
-0.05856,0.05856,-0.05856,-0.02928,0,-0.02928,0.01952,0.00976,-0.00488,-0.04392,-0.00976,0
-0.06832,0.061,-0.05368,-0.01952,0.01464,-0.04148,0.01952,0.00976,-0.00488,-0.04392,0.00488,0
-0.06832,0.061,-0.05368,-0.01952,0.01464,-0.04148,0.01952,0.01464,0,-0.04392,-0.00488,0
-0.0732,0.06344,-0.05368,-0.01708,0.01952,-0.04636,0.0244,0.01464,0,-0.0488,-0.00488,0
-0.06832,0.05856,-0.0488,-0.01464,0.01952,-0.04392,0.02928,0.01952,0,-0.03904,0,0
-0.06344,0.05368,-0.04392,-0.0122,0.01952,-0.04148,0.03904,0.02928,0.00488,-0.03416,0,0.00488
-0.06344,0.05612,-0.0488,-0.01708,0.01464,-0.03904,0.03416,0.0244,0.00488,-0.02928,0,0
-0.06832,0.06344,-0.05856,-0.0244,0.00976,-0.03904,0.02928,0.01952,0.00976,-0.02928,0,0
-0.06832,0.06344,-0.05856,-0.0244,0.00976,-0.03904,0.02928,0.01952,0.00488,-0.03904,0,0
-0.06832,0.06344,-0.05856,-0.0244,0.00976,-0.03904,0.02928,0.01952,0,-0.0488,0,0
-0.06832,0.06344,-0.05856,-0.0244,0.00976,-0.03904,0.02928,0.01952,0,-0.0488,0,0
-0.06832,0.06344,-0.05856,-0.0244,0.00976,-0.03904,0.02928,0.01952,0,-0.0488,0,0
-0.0732,0.06588,-0.05856,-0.02196,0.01464,-0.04392,0.02928,0.01952,0,-0.04392,0,0
-0.07808,0.06832,-0.05856,-0.01952,0.01952,-0.0488,0.02928,0.01952,0,-0.03904,0,0
-0.07808,0.06832,-0.05856,-0.01952,0.01952,-0.0488,0.02928,0.01952,0,-0.03904,0,0.00488
-0.07808,0.06832,-0.05856,-0.01952,0.01952,-0.0488,0.02928,0.01952,0,-0.03904,0,0.00976
-0.0732,0.06344,-0.05368,-0.01708,0.01952,-0.04636,0.02928,0.01952,0,-0.03904,0,0.00976
-0.06832,0.05856,-0.0488,-0.01464,0.01952,-0.04392,0.02928,0.01952,0,-0.03904,0,0.00976
-0.06832,0.05856,-0.0488,-0.01464,0.01952,-0.04392,0.02928,0.01952,0,-0.03904,0,0.00488
-0.06832,0.05856,-0.0488,-0.01464,0.01952,-0.04392,0.02928,0.01952,0,-0.03904,0,0
-0.06832,0.061,-0.05368,-0.01952,0.01464,-0.04148,0.02928,0.01952,0,-0.03904,0,0
-0.06832,0.06344,-0.05856,-0.0244,0.00976,-0.03904,0.02928,0.01952,0,-0.03904,0,0
-0.05368,0.05612,-0.05856,-0.03172,-0.00488,-0.0244,0.0244,0.01952,-0.00488,-0.04392,-0.00488,0
-0.03904,0.0488,-0.05856,-0.03904,-0.01952,-0.00976,0.01952,0.01952,-0.00976,-0.0488,-0.00976,0
-0.05368,0.05612,-0.05856,-0.03172,-0.00488,-0.0244,0.01952,0.01952,-0.00976,-0.0488,-0.00976,-0.00976
-0.06832,0.06344,-0.05856,-0.0244,0.00976,-0.03904,0.01952,0.01952,-0.00976,-0.0488,-0.00976,-0.01952
-0.06832,0.06344,-0.05856,-0.0244,0.00976,-0.03904,0.01952,0.01952,-0.00488,-0.04392,-0.00976,-0.00976
-0.06832,0.06344,-0.05856,-0.0244,0.00976,-0.03904,0.01952,0.01952,0,-0.03904,-0.00976,0
-0.08784,0.0732,-0.05856,-0.01464,0.02928,-0.05856,0.01952,0.01952,0,-0.03904,-0.00976,0
-0.10736,0.08296,-0.05856,-0.00488,0.0488,-0.07808,0.01952,0.01952,0,-0.03904,-0.00976,0
-0.08296,0.07076,-0.05856,-0.01708,0.0244,-0.05368,0.01952,0.01464,0,-0.04392,-0.00976,-0.00488
-0.05856,0.05856,-0.05856,-0.02928,0,-0.02928,0.01952,0.00976,0,-0.0488,-0.00976,-0.00976
-0.05856,0.05856,-0.05856,-0.02928,0,-0.02928,0.01952,0.00976,0,-0.0488,-0.00976,-0.00976
-0.05856,0.05856,-0.05856,-0.02928,0,-0.02928,0.01952,0.00976,0,-0.0488,-0.00976,-0.00976
-0.05856,0.05856,-0.05856,-0.02928,0,-0.02928,0.01952,0.00976,0,-0.0488,-0.00976,-0.00976
-0.05856,0.05856,-0.05856,-0.02928,0,-0.02928,0.01952,0.00976,0,-0.0488,-0.00976,-0.00976
-0.06344,0.06344,-0.06344,-0.03172,0,-0.03172,0.01952,0.01464,0,-0.0488,-0.00976,-0.00976
-0.06832,0.06832,-0.06832,-0.03416,0,-0.03416,0.01952,0.01952,0,-0.0488,-0.00976,-0.00976
-0.06832,0.06832,-0.06832,-0.03416,0,-0.03416,0.01952,0.01952,0.00488,-0.0488,-0.00976,-0.00488
-0.06832,0.06832,-0.06832,-0.03416,0,-0.03416,0.01952,0.01952,0.00976,-0.0488,-0.00976,0
-0.06832,0.06588,-0.06344,-0.02928,0.00488,-0.0366,0.01952,0.0244,0.01952,-0.04392,-0.00488,0
-0.06832,0.06344,-0.05856,-0.0244,0.00976,-0.03904,0.01952,0.02928,0.02928,-0.03904,0,0
-0.0488,0.04392,-0.03904,-0.01464,0.00976,-0.02928,0.01952,0.02928,0.02928,-0.03416,0.00488,0.00488
-0.02928,0.0244,-0.01952,-0.00488,0.00976,-0.01952,0.01952,0.02928,0.02928,-0.02928,0.00976,0.00976
-0.02928,0.02196,-0.01464,0,0.01464,-0.02196,0.0244,0.03416,0.03416,-0.01952,0.01952,0.01952
-0.02928,0.01952,-0.00976,0.00488,0.01952,-0.0244,0.02928,0.03904,0.03904,-0.00976,0.02928,0.02928
-0.04392,0.0244,-0.00488,0.01708,0.03904,-0.04148,0.03904,0.04392,0.05368,-0.00488,0.03416,0.02928
-0.05856,0.02928,0,0.02928,0.05856,-0.05856,0.0488,0.0488,0.06832,0,0.03904,0.02928
-0.03904,0.01952,0,0.01952,0.03904,-0.03904,0.0488,0.0488,0.06832,0,0.03904,0.03416
-0.03416,0.01708,0,0.01708,0.03416,-0.03416,0.03904,0.0488,0.06832,0,0.03904,0.03904
-0.03416,0.01464,0.00488,0.02196,0.03904,-0.0366,0.03416,0.0488,0.06832,0,0.04392,0.04392
-0.03416,0.0122,0.00976,0.02684,0.04392,-0.03904,0.0244,0.04392,0.06832,0.00488,0.0488,0.04392
-0.00976,-0.00488,0.01952,0.0244,0.02928,-0.01952,0.00488,0.03904,0.0732,0.00976,0.05368,0.0488
0.00488,-0.01464,0.0244,0.02196,0.01952,-0.00732,-0.00488,0.03416,0.07808,0.01952,0.05368,0.05368
0.01464,-0.02684,0.03904,0.03172,0.0244,-0.00488,-0.0244,0.01952,0.07808,0.02928,0.06344,0.06832
0.02928,-0.03416,0.03904,0.0244,0.00976,0.00976,-0.03416,0.00976,0.06832,0.03416,0.06832,0.06832
0.01464,-0.01952,0.0244,0.01708,0.00976,0.00244,-0.03904,0.00976,0.0488,0.01464,0.05368,0.05856
0.00488,-0.00976,0.01464,0.0122,0.00976,-0.00244,-0.03904,0,0.02928,0,0.04392,0.0488
0.00488,-0.00976,0.01464,0.0122,0.00976,-0.00244,-0.03904,0,0.02928,0,0.03904,0.0488
0.00488,-0.00976,0.01464,0.0122,0.00976,-0.00244,-0.04392,0,0.02928,0,0.03416,0.0488
0.00488,-0.00244,0,-0.00244,-0.00488,0.00488,-0.03904,0,0.01952,-0.00976,0.03416,0.0488
0.00488,0.00488,-0.01464,-0.01708,-0.01952,0.0122,-0.03904,-0.00488,0,-0.0244,0.01952,0.03416
-0.00976,0.01708,-0.0244,-0.01952,-0.01464,0.00244,-0.03416,-0.00976,-0.00976,-0.03904,0.00976,0.01952
-0.0244,0.02684,-0.02928,-0.01708,-0.00488,-0.00976,-0.03416,-0.01952,-0.01464,-0.0488,0,0.00976
-0.02928,0.0366,-0.04392,-0.02928,-0.01464,-0.00732,-0.02928,-0.01952,-0.01464,-0.05856,-0.00976,0.00488
-0.02928,0.04148,-0.05368,-0.03904,-0.0244,-0.00244,-0.01952,-0.00976,-0.01464,-0.05856,-0.01464,0
-0.03416,0.04148,-0.0488,-0.03172,-0.01464,-0.00976,-0.00488,0.00488,-0.00488,-0.05368,-0.01464,0
-0.03416,0.03904,-0.04392,-0.02684,-0.00976,-0.0122,0.00488,0.00976,0.00976,-0.0488,-0.01464,0
-0.04392,0.0488,-0.05368,-0.03172,-0.00976,-0.01708,0.01464,0.01952,0.00976,-0.0488,-0.01464,0
-0.05368,0.06344,-0.0732,-0.04636,-0.01952,-0.01708,0.01952,0.01952,-0.00488,-0.06344,-0.02928,-0.01952
-0.08296,0.0854,-0.08784,-0.04636,-0.00488,-0.03904,0.0244,0.01464,-0.01464,-0.06832,-0.03904,-0.02928
-0.08784,0.09028,-0.09272,-0.0488,-0.00488,-0.04148,0.0244,0.01464,-0.01952,-0.0732,-0.03904,-0.03416
-0.09272,0.0976,-0.10248,-0.05612,-0.00976,-0.04148,0.02928,0.00976,-0.0244,-0.07808,-0.04392,-0.03904
-0.09272,0.0976,-0.10248,-0.05612,-0.00976,-0.04148,0.03416,0.00488,-0.02928,-0.08296,-0.03904,-0.03904
-0.09272,0.09516,-0.0976,-0.05124,-0.00488,-0.04392,0.03416,0.00488,-0.02928,-0.08296,-0.03904,-0.03904
-0.08784,0.09516,-0.10248,-0.05856,-0.01464,-0.0366,0.03904,0.00488,-0.02928,-0.08296,-0.03904,-0.03904
-0.08784,0.09516,-0.10248,-0.05856,-0.01464,-0.0366,0.03904,0.00976,-0.02928,-0.08784,-0.04392,-0.04392
-0.08784,0.09516,-0.10248,-0.05856,-0.01464,-0.0366,0.03904,0.00976,-0.02928,-0.08784,-0.04392,-0.04392
-0.09272,0.0976,-0.10248,-0.05612,-0.00976,-0.04148,0.03416,0.00488,-0.02928,-0.08784,-0.04392,-0.04392
-0.0976,0.10004,-0.10248,-0.05368,-0.00488,-0.04636,0.02928,0.00488,-0.02928,-0.08784,-0.04392,-0.04392
-0.0976,0.10004,-0.10248,-0.05368,-0.00488,-0.04636,0.02928,0.00488,-0.02928,-0.08784,-0.04392,-0.04392
-0.10248,0.10492,-0.10736,-0.05612,-0.00488,-0.0488,0.02928,0.00488,-0.0244,-0.08784,-0.04392,-0.04392
-0.10248,0.10492,-0.10736,-0.05612,-0.00488,-0.0488,0.02928,0.00488,-0.0244,-0.08784,-0.04392,-0.04392
-0.10248,0.10492,-0.10736,-0.05612,-0.00488,-0.0488,0.02928,0.00488,-0.02928,-0.08784,-0.04392,-0.04392
-0.10248,0.10492,-0.10736,-0.05612,-0.00488,-0.0488,0.02928,0.00488,-0.02928,-0.08784,-0.04392,-0.04392
-0.10248,0.10492,-0.10736,-0.05612,-0.00488,-0.0488,0.02928,0.00488,-0.0244,-0.08296,-0.03904,-0.0488
-0.0976,0.10248,-0.10736,-0.05856,-0.00976,-0.04392,0.0244,0.00488,-0.0244,-0.08296,-0.04392,-0.0488
-0.09272,0.10004,-0.10736,-0.061,-0.01464,-0.03904,0.0244,0.00488,-0.0244,-0.08296,-0.0488,-0.03904
-0.09272,0.10004,-0.10736,-0.061,-0.01464,-0.03904,0.03416,0.00488,-0.01952,-0.07808,-0.05368,-0.03904
-0.09272,0.10004,-0.10736,-0.061,-0.01464,-0.03904,0.03904,0.00976,-0.01464,-0.07808,-0.05856,-0.0488
-0.10248,0.1098,-0.11712,-0.06588,-0.01464,-0.04392,0.0488,0.0244,-0.01464,-0.07808,-0.06832,-0.06832
-0.11712,0.11712,-0.11712,-0.05856,0,-0.05856,0.08296,0.06344,0.00976,-0.0732,-0.06832,-0.06832
-0.12688,0.11712,-0.10736,-0.04392,0.01952,-0.0732,0.09272,0.09272,0.05368,-0.03904,-0.03904,-0.06832
-0.11224,0.09516,-0.07808,-0.02196,0.03416,-0.0732,0.08784,0.11224,0.08784,0.01464,0.01952,-0.01952
-0.00488,0.01952,-0.03416,-0.03172,-0.02928,0.0122,0.07808,0.15616,0.13176,0.09272,0.10736,0.08784
0.11712,-0.09272,0.06832,0.00976,-0.0488,0.08296,0.03416,0.16592,0.20496,0.2196,0.25376,0.24888
0.28304,-0.2562,0.22936,0.08784,-0.05368,0.16836,-0.11224,0.03416,0.2196,0.32208,0.40504,0.4392
0.49776,-0.44408,0.3904,0.14152,-0.10736,0.30256,-0.30744,-0.16104,0.17568,0.38064,0.5368,0.62464
0.7076,-0.6222,0.5368,0.183,-0.1708,0.4392,-0.51728,-0.37576,0.08296,0.4148,0.64416,0.79544
0.90768,-0.79544,0.6832,0.22936,-0.22448,0.56608,-0.74176,-0.60024,-0.03904,0.42944,0.74176,0.95648
1.03944,-0.89792,0.7564,0.23668,-0.28304,0.66124,-0.86864,-0.732,-0.19032,0.35624,0.72712,1.0004
1.01016,-0.81008,0.61,0.10492,-0.40016,0.70516,-0.83448,-0.72712,-0.40016,0.06832,0.43432,0.72712
0.80032,-0.58316,0.366,-0.03416,-0.43432,0.61732,-0.66856,-0.63928,-0.54656,-0.27328,0.0244,0.30256
0.47824,-0.33916,0.20008,-0.03904,-0.27816,0.3782,-0.44408,-0.49288,-0.53192,-0.42456,-0.20984,0
0.25864,-0.19276,0.12688,-0.00244,-0.13176,0.1952,-0.28792,-0.36112,-0.43432,-0.38552,-0.22936,-0.06344
0.08296,-0.06832,0.05368,0.0122,-0.02928,0.05612,-0.1708,-0.2196,-0.33672,-0.33672,-0.2196,-0.10248
0.00976,-0.00244,-0.00488,-0.00976,-0.01464,0.0122,-0.0732,-0.08296,-0.23912,-0.25864,-0.17568,-0.10248
-0.00976,0.01708,-0.0244,-0.01952,-0.01464,0.00244,-0.01464,0,-0.15128,-0.17568,-0.11712,-0.07808
-0.02928,0.02928,-0.02928,-0.01464,0,-0.01464,0.00976,0.01952,-0.08296,-0.122,-0.06832,-0.05856
-0.04392,0.03904,-0.03416,-0.0122,0.00976,-0.02684,0.0244,0.0244,-0.03416,-0.08784,-0.03416,-0.03416
-0.0488,0.04392,-0.03904,-0.01464,0.00976,-0.02928,0.03904,0.03904,-0.00488,-0.06344,-0.01952,-0.01952
-0.06344,0.05368,-0.04392,-0.0122,0.01952,-0.04148,0.0488,0.04392,0.01464,-0.04392,-0.00976,-0.00976
-0.06344,0.05612,-0.0488,-0.01708,0.01464,-0.03904,0.0488,0.0488,0.01952,-0.0488,-0.01464,-0.01464
-0.07808,0.07076,-0.06344,-0.0244,0.01464,-0.04636,0.0488,0.0488,0.01952,-0.05368,-0.0244,-0.01952
-0.07808,0.07076,-0.06344,-0.0244,0.01464,-0.04636,0.05368,0.0488,0.02928,-0.05368,-0.0244,-0.0244
-0.07808,0.0732,-0.06832,-0.02928,0.00976,-0.04392,0.05368,0.04392,0.02928,-0.05368,-0.0244,-0.0244
-0.07808,0.07076,-0.06344,-0.0244,0.01464,-0.04636,0.05856,0.04392,0.02928,-0.05368,-0.0244,-0.0244
-0.08784,0.0732,-0.05856,-0.01464,0.02928,-0.05856,0.05856,0.0488,0.03904,-0.0488,-0.01952,-0.0244
-0.08296,0.06832,-0.05368,-0.0122,0.02928,-0.05612,0.05856,0.0488,0.03904,-0.04392,-0.01952,-0.0244
-0.06832,0.05612,-0.04392,-0.00976,0.0244,-0.04636,0.05856,0.0488,0.03904,-0.03904,-0.01952,-0.02928
-0.06832,0.05612,-0.04392,-0.00976,0.0244,-0.04636,0.05856,0.0488,0.03904,-0.03904,-0.0244,-0.03416
-0.06832,0.05856,-0.0488,-0.01464,0.01952,-0.04392,0.05856,0.05368,0.04392,-0.03416,-0.0244,-0.03416
-0.0732,0.06344,-0.05368,-0.01708,0.01952,-0.04636,0.06344,0.05368,0.04392,-0.03904,-0.01952,-0.03416
-0.0732,0.06588,-0.05856,-0.02196,0.01464,-0.04392,0.06344,0.05856,0.04392,-0.04392,-0.01464,-0.02928
-0.0732,0.06344,-0.05368,-0.01708,0.01952,-0.04636,0.06344,0.05856,0.0488,-0.04392,-0.01464,-0.02928
-0.08296,0.06832,-0.05368,-0.0122,0.02928,-0.05612,0.06344,0.05856,0.05368,-0.03904,-0.01464,-0.02928
-0.0732,0.06344,-0.05368,-0.01708,0.01952,-0.04636,0.05856,0.05856,0.05368,-0.03904,-0.01952,-0.02928
-0.06832,0.061,-0.05368,-0.01952,0.01464,-0.04148,0.05368,0.05856,0.0488,-0.03904,-0.0244,-0.02928
-0.06832,0.061,-0.05368,-0.01952,0.01464,-0.04148,0.05368,0.05856,0.04392,-0.03904,-0.0244,-0.02928
-0.06832,0.061,-0.05368,-0.01952,0.01464,-0.04148,0.05368,0.06344,0.04392,-0.03904,-0.01952,-0.0244
-0.0732,0.06588,-0.05856,-0.02196,0.01464,-0.04392,0.05856,0.05856,0.04392,-0.03904,-0.01952,-0.0244
-0.0732,0.06588,-0.05856,-0.02196,0.01464,-0.04392,0.06344,0.05368,0.04392,-0.03416,-0.01952,-0.0244
-0.0732,0.06344,-0.05368,-0.01708,0.01952,-0.04636,0.06344,0.05368,0.04392,-0.03416,-0.01952,-0.0244
-0.07808,0.06344,-0.0488,-0.00976,0.02928,-0.05368,0.06344,0.05368,0.0488,-0.02928,-0.01464,-0.0244
-0.07808,0.06344,-0.0488,-0.00976,0.02928,-0.05368,0.05856,0.06344,0.0488,-0.02928,-0.01464,-0.0244
-0.0732,0.061,-0.0488,-0.0122,0.0244,-0.0488,0.05368,0.06344,0.0488,-0.02928,-0.01464,-0.0244
-0.06832,0.05856,-0.0488,-0.01464,0.01952,-0.04392,0.05368,0.05856,0.0488,-0.02928,-0.01464,-0.0244
-0.05856,0.05124,-0.04392,-0.01464,0.01464,-0.0366,0.05368,0.05856,0.05368,-0.0244,-0.01464,-0.01952
-0.0488,0.04636,-0.04392,-0.01952,0.00488,-0.02684,0.05368,0.06344,0.05368,-0.0244,-0.00976,-0.01952
-0.06344,0.05368,-0.04392,-0.0122,0.01952,-0.04148,0.05368,0.06832,0.05368,-0.0244,-0.00976,-0.01952
-0.06832,0.05612,-0.04392,-0.00976,0.0244,-0.04636,0.0488,0.06832,0.05856,-0.01952,-0.00976,-0.01464
-0.05856,0.05368,-0.0488,-0.01952,0.00976,-0.03416,0.0488,0.06832,0.05856,-0.01952,-0.00488,-0.01464
-0.05368,0.05124,-0.0488,-0.02196,0.00488,-0.02928,0.0488,0.06832,0.05856,-0.01952,-0.00488,-0.01952
-0.05368,0.0488,-0.04392,-0.01708,0.00976,-0.03172,0.0488,0.06832,0.06344,-0.01464,0,-0.01952
-0.0488,0.04392,-0.03904,-0.01464,0.00976,-0.02928,0.04392,0.0732,0.06344,-0.01464,0,-0.01952
-0.0488,0.04392,-0.03904,-0.01464,0.00976,-0.02928,0.04392,0.0732,0.06344,-0.00976,0,-0.01952
-0.04392,0.04148,-0.03904,-0.01708,0.00488,-0.0244,0.04392,0.0732,0.06344,-0.00976,0.00488,-0.01464
-0.03904,0.0366,-0.03416,-0.01464,0.00488,-0.02196,0.04392,0.0732,0.06832,-0.00488,0.00488,-0.01464
-0.03904,0.0366,-0.03416,-0.01464,0.00488,-0.02196,0.0488,0.07808,0.06832,0,0.00976,-0.00976
-0.03416,0.02928,-0.0244,-0.00732,0.00976,-0.02196,0.04392,0.07808,0.0732,0,0.00976,-0.00488
-0.02928,0.0244,-0.01952,-0.00488,0.00976,-0.01952,0.04392,0.07808,0.0732,0.00488,0.01464,0
-0.0244,0.02196,-0.01952,-0.00732,0.00488,-0.01464,0.03904,0.08296,0.07808,0.00976,0.01464,0.00488
-0.01464,0.01708,-0.01952,-0.0122,-0.00488,-0.00488,0.03904,0.08296,0.07808,0.01464,0.01464,0.00488
-0.00488,0.00732,-0.00976,-0.00732,-0.00488,0,0.03904,0.08296,0.08296,0.01952,0.01952,0.00976
0.00976,-0.00488,0,-0.00488,-0.00976,0.00976,0.02928,0.08296,0.08296,0.01952,0.02928,0.01464
0.00976,-0.00976,0.00976,0.00488,0,0.00488,0.02928,0.08296,0.08784,0.03416,0.03416,0.0244
0.0244,-0.01952,0.01464,0.00244,-0.00976,0.01708,0.0244,0.08784,0.09272,0.02928,0.03904,0.02928
0.0244,-0.0244,0.0244,0.0122,0,0.0122,0.01952,0.08784,0.09272,0.02928,0.0488,0.03904
0.04392,-0.0366,0.02928,0.00732,-0.01464,0.02928,0.01464,0.08296,0.09272,0.03416,0.06344,0.04392
0.04392,-0.0366,0.02928,0.00732,-0.01464,0.02928,0.00488,0.08296,0.09272,0.04392,0.0732,0.05856
0.05856,-0.04636,0.03416,0.00488,-0.0244,0.04148,-0.00488,0.07808,0.09272,0.0488,0.07808,0.05856
0.06344,-0.05124,0.03904,0.00732,-0.0244,0.04392,-0.01464,0.06832,0.09272,0.05368,0.07808,0.05856
0.0732,-0.06344,0.05368,0.01708,-0.01952,0.04636,-0.0244,0.06344,0.0976,0.05856,0.07808,0.06832
0.0976,-0.08052,0.06344,0.01464,-0.03416,0.06588,-0.02928,0.06344,0.0976,0.06344,0.08296,0.07808
0.0976,-0.08296,0.06832,0.01952,-0.02928,0.06344,-0.03416,0.06344,0.0976,0.06832,0.08784,0.08296
0.10736,-0.09028,0.0732,0.01952,-0.03416,0.07076,-0.04392,0.05368,0.0976,0.06832,0.09272,0.08296
0.11224,-0.0976,0.08296,0.02684,-0.02928,0.07076,-0.05368,0.0488,0.0976,0.0732,0.0976,0.09272
0.13176,-0.1098,0.08784,0.02196,-0.04392,0.08784,-0.06344,0.03904,0.0976,0.0732,0.0976,0.09272
0.13176,-0.11224,0.09272,0.02684,-0.03904,0.0854,-0.06832,0.03904,0.08296,0.0732,0.0976,0.0976
0.13176,-0.11468,0.0976,0.03172,-0.03416,0.08296,-0.0732,0.03416,0.08296,0.0732,0.0976,0.0976
0.1464,-0.12688,0.10736,0.03416,-0.03904,0.09272,-0.07808,0.0244,0.08784,0.07808,0.0976,0.10248
0.1464,-0.12688,0.10736,0.03416,-0.03904,0.09272,-0.07808,0.01952,0.08784,0.07808,0.0976,0.10736
0.15128,-0.12932,0.10736,0.03172,-0.04392,0.0976,-0.08296,0.01464,0.08784,0.06832,0.09272,0.10248
0.15128,-0.12932,0.10736,0.03172,-0.04392,0.0976,-0.08296,0.00976,0.08784,0.06832,0.09272,0.10248
0.1464,-0.12932,0.11224,0.03904,-0.03416,0.09028,-0.08784,0,0.08296,0.06344,0.09272,0.10248
0.13664,-0.12444,0.11224,0.04392,-0.0244,0.08052,-0.08296,0,0.08296,0.06344,0.08784,0.10248
0.13664,-0.11956,0.10248,0.03416,-0.03416,0.0854,-0.08296,0,0.07808,0.06344,0.08296,0.08784
0.13176,-0.11468,0.0976,0.03172,-0.03416,0.08296,-0.08296,-0.00488,0.0732,0.05368,0.0732,0.08296
0.12688,-0.1098,0.09272,0.02928,-0.03416,0.08052,-0.08296,-0.00488,0.0732,0.0488,0.06832,0.07808
0.11712,-0.10248,0.08784,0.02928,-0.02928,0.0732,-0.07808,-0.00976,0.0732,0.04392,0.06832,0.0732
0.11224,-0.09516,0.07808,0.02196,-0.03416,0.0732,-0.06832,-0.00976,0.0732,0.03904,0.05856,0.06832
0.10248,-0.08784,0.0732,0.02196,-0.02928,0.06588,-0.06344,-0.00976,0.06832,0.03416,0.05368,0.06344
0.10248,-0.09028,0.07808,0.02684,-0.0244,0.06344,-0.05856,-0.00976,0.05856,0.02928,0.0488,0.05856
0.08296,-0.07564,0.06832,0.02684,-0.01464,0.0488,-0.05856,-0.00976,0.0488,0.0244,0.04392,0.0488
0.0732,-0.06588,0.05856,0.02196,-0.01464,0.04392,-0.05368,-0.00976,0.04392,0.01952,0.04392,0.0488
0.05856,-0.05612,0.05368,0.0244,-0.00488,0.03172,-0.04392,-0.00488,0.04392,0.01464,0.03904,0.03904
0.03416,-0.0366,0.03904,0.02196,0.00488,0.01464,-0.03904,-0.00488,0.0488,0.00976,0.03416,0.03416
0.03416,-0.03416,0.03416,0.01708,0,0.01708,-0.03904,-0.00488,0.0488,0.00488,0.02928,0.0244
0.0244,-0.02684,0.02928,0.01708,0.00488,0.00976,-0.0244,0,0.0488,-0.00488,0.0244,0.01952
0.00976,-0.01464,0.01952,0.01464,0.00976,0,-0.01952,0,0.04392,-0.00488,0.01464,0.01464
0.00488,-0.00732,0.00976,0.00732,0.00488,0,-0.00976,0,0.04392,-0.00488,0.01464,0.00976
0,-0.00244,0.00488,0.00488,0.00488,-0.00244,-0.00976,0,0.04392,-0.00976,0.01464,0.00976
-0.00488,0.00244,0,0.00244,0.00488,-0.00488,-0.00488,0,0.04392,-0.00976,0.01464,0
0,0.00488,-0.00976,-0.00976,-0.00976,0.00488,0.00488,0,0.03904,-0.01952,0.00976,-0.00488
-0.01952,0.01952,-0.01952,-0.00976,0,-0.00976,0.00976,0.00488,0.03416,-0.01464,-0.00488,-0.00976
-0.02928,0.0244,-0.01952,-0.00488,0.00976,-0.01952,0.01464,0.00976,0.03416,-0.01952,-0.00488,-0.00976
-0.01952,0.01952,-0.01952,-0.00976,0,-0.00976,0.01464,0.00976,0.03416,-0.01952,-0.00488,-0.00976
-0.02928,0.0244,-0.01952,-0.00488,0.00976,-0.01952,0.01464,0.00976,0.03904,-0.01952,-0.00976,-0.00976
-0.03904,0.03416,-0.02928,-0.00976,0.00976,-0.0244,0.00976,0.00488,0.03904,-0.0244,-0.00976,-0.00976
-0.03904,0.03416,-0.02928,-0.00976,0.00976,-0.0244,0.00488,0,0.03904,-0.02928,-0.00976,-0.01464
-0.03904,0.03172,-0.0244,-0.00488,0.01464,-0.02684,0.00488,0,0.03904,-0.02928,-0.00976,-0.01952
-0.03904,0.03172,-0.0244,-0.00488,0.01464,-0.02684,0.00488,0,0.03416,-0.03904,-0.01464,-0.01952
-0.03904,0.03172,-0.0244,-0.00488,0.01464,-0.02684,0.00976,0,0.03416,-0.03416,-0.01464,-0.0244
-0.03904,0.02928,-0.01952,0,0.01952,-0.02928,0.00976,0,0.03416,-0.0244,-0.01464,-0.0244
-0.03904,0.0244,-0.00976,0.00976,0.02928,-0.03416,0.00976,0,0.03416,-0.01952,-0.01464,-0.01952
-0.04392,0.03172,-0.01952,0.00244,0.0244,-0.03416,0.00976,0,0.03416,-0.01464,-0.01464,-0.01952
-0.03904,0.02928,-0.01952,0,0.01952,-0.02928,0.01464,0.00488,0.03416,-0.01952,-0.01952,-0.0244
-0.03416,0.0244,-0.01464,0.00244,0.01952,-0.02684,0.01464,0.00976,0.03416,-0.01952,-0.01952,-0.02928
-0.03416,0.0244,-0.01464,0.00244,0.01952,-0.02684,0.01464,0.00976,0.03416,-0.01464,-0.01952,-0.02928
-0.03416,0.02684,-0.01952,-0.00244,0.01464,-0.0244,0.01464,0.00976,0.03416,-0.01464,-0.01952,-0.0244
-0.03416,0.02684,-0.01952,-0.00244,0.01464,-0.0244,0.01952,0.01464,0.03416,-0.01464,-0.01952,-0.0244
-0.03416,0.0244,-0.01464,0.00244,0.01952,-0.02684,0.01952,0.01952,0.03904,-0.01464,-0.01464,-0.01952
-0.02928,0.02196,-0.01464,0,0.01464,-0.02196,0.01952,0.01952,0.03904,-0.01464,-0.01464,-0.01952
-0.02928,0.02196,-0.01464,0,0.01464,-0.02196,0.01952,0.0244,0.04392,-0.00976,-0.00976,-0.01952
-0.02928,0.02196,-0.01464,0,0.01464,-0.02196,0.02928,0.02928,0.04392,-0.01952,-0.00976,-0.01464
-0.02928,0.02196,-0.01464,0,0.01464,-0.02196,0.01464,0.02928,0.04392,-0.02928,-0.00976,-0.01464
-0.02928,0.02196,-0.01464,0,0.01464,-0.02196,0.01464,0.02928,0.04392,-0.01464,0,-0.00488
-0.02928,0.01952,-0.00976,0.00488,0.01952,-0.0244,0.01464,0.02928,0.0488,-0.00488,0.00976,0
-0.02928,0.01952,-0.00976,0.00488,0.01952,-0.0244,0.01952,0.02928,0.05368,0,0.00976,0
-0.02928,0.01708,-0.00488,0.00976,0.0244,-0.02684,0.01952,0.02928,0.05368,0,0.00976,0
-0.02928,0.01708,-0.00488,0.00976,0.0244,-0.02684,0.01952,0.02928,0.05368,0.00488,0.01952,0.00488
-0.02928,0.01708,-0.00488,0.00976,0.0244,-0.02684,0.01952,0.03416,0.05368,0.00488,0.01952,0.00488
-0.01464,0.00976,-0.00488,0.00244,0.00976,-0.0122,0.01464,0.03416,0.05856,0.00488,0.01464,0.00488
-0.01952,0.01464,-0.00976,0,0.00976,-0.01464,0.01464,0.02928,0.05856,0,0.01464,0.00488
-0.01952,0.01464,-0.00976,0,0.00976,-0.01464,0.01464,0.02928,0.05856,0,0.01464,0.00976
-0.00976,0.00488,0,0.00488,0.00976,-0.00976,0.01952,0.03416,0.06344,0.00976,0.01464,0.01952
-0.00976,0.00488,0,0.00488,0.00976,-0.00976,0.01952,0.03416,0.06344,0.00976,0.01952,0.01952
-0.00976,0.00488,0,0.00488,0.00976,-0.00976,0.01464,0.03416,0.06344,0.00976,0.01952,0.01952
-0.01464,0.00976,-0.00488,0.00244,0.00976,-0.0122,0.01464,0.02928,0.06344,0.00976,0.01952,0.01952
-0.01952,0.01708,-0.01464,-0.00488,0.00488,-0.0122,0.01464,0.0244,0.06832,0.01464,0.0244,0.0244
-0.01952,0.01708,-0.01464,-0.00488,0.00488,-0.0122,0.01464,0.0244,0.06832,0.01464,0.0244,0.0244
-0.01952,0.01708,-0.01464,-0.00488,0.00488,-0.0122,0.01464,0.0244,0.06832,0.01464,0.0244,0.01952
-0.01464,0.01464,-0.01464,-0.00732,0,-0.00732,0.01464,0.0244,0.06832,0.01464,0.0244,0.01952
-0.00976,0.0122,-0.01464,-0.00976,-0.00488,-0.00244,0.01464,0.0244,0.06832,0.01952,0.0244,0.01952
-0.00976,0.00976,-0.00976,-0.00488,0,-0.00488,0.01464,0.0244,0.06832,0.01952,0.0244,0.01952
-0.00976,0.00976,-0.00976,-0.00488,0,-0.00488,0.01464,0.0244,0.06832,0.01952,0.0244,0.01952
-0.00976,0.0122,-0.01464,-0.00976,-0.00488,-0.00244,0.01464,0.01952,0.06832,0.01464,0.01952,0.01464
0,0.00732,-0.01464,-0.01464,-0.01464,0.00732,0.00976,0.01952,0.06344,0.01464,0.01464,0.00976
0,0.00244,-0.00488,-0.00488,-0.00488,0.00244,0.00976,0.01952,0.06344,0.01464,0.01464,0.00976
0.00976,-0.00488,0,-0.00488,-0.00976,0.00976,0.01464,0.01952,0.06344,0.01464,0.01464,0.01464
-0.01464,0.0122,-0.00976,-0.00244,0.00488,-0.00976,0.01464,0.01952,0.06344,0.00976,0.01464,0.01464
-0.00488,0.00244,0,0.00244,0.00488,-0.00488,0.01464,0.01464,0.06344,0.00488,0.01952,0.01464
0,0,0,0,0,0,0.01464,0.01464,0.05856,0.00488,0.01952,0.01464
0,0.00244,-0.00488,-0.00488,-0.00488,0.00244,0.01464,0.01464,0.05856,0,0.00976,0.01464
-0.00488,0.00488,-0.00488,-0.00244,0,-0.00244,0.01464,0.00976,0.05856,0.00488,0.00976,0.00976
-0.00488,0.00488,-0.00488,-0.00244,0,-0.00244,0.01464,0.01464,0.05856,0.00976,0.00976,0.00976
-0.00488,0.00488,-0.00488,-0.00244,0,-0.00244,0.01464,0.00976,0.05856,0,0.00488,0.00488
-0.00488,0.00976,-0.01464,-0.0122,-0.00976,0.00244,0.00976,0.00976,0.05368,0,0,-0.00488
-0.01952,0.0244,-0.02928,-0.01952,-0.00976,-0.00488,0.00976,0.00976,0.0488,-0.00488,-0.00488,-0.00976
-0.02928,0.03172,-0.03416,-0.01952,-0.00488,-0.0122,0.01464,0.00976,0.03904,-0.00976,-0.00976,-0.00976
-0.02928,0.02684,-0.0244,-0.00976,0.00488,-0.01708,0.01464,0.00976,0.03904,-0.00976,-0.00976,0
-0.02928,0.02684,-0.0244,-0.00976,0.00488,-0.01708,0.01464,0.00976,0.03416,-0.00976,-0.00976,0.00488
-0.0244,0.02684,-0.02928,-0.01708,-0.00488,-0.00976,0.01464,0,0.03416,-0.01464,-0.01464,-0.00976
-0.01952,0.0244,-0.02928,-0.01952,-0.00976,-0.00488,0.01464,-0.00488,0.03416,-0.01464,-0.01464,-0.00976
-0.01952,0.02196,-0.0244,-0.01464,-0.00488,-0.00732,0.01464,-0.00488,0.03416,-0.00976,-0.01464,0.00488
-0.01952,0.02196,-0.0244,-0.01464,-0.00488,-0.00732,0.01464,-0.00488,0.02928,-0.01464,-0.01464,-0.00976
-0.02928,0.03172,-0.03416,-0.01952,-0.00488,-0.0122,0.01952,-0.00488,0.02928,-0.0244,-0.01464,-0.00976
-0.02928,0.0366,-0.04392,-0.02928,-0.01464,-0.00732,0.01952,-0.00488,0.02928,-0.0244,-0.01464,-0.00976
-0.02928,0.0366,-0.04392,-0.02928,-0.01464,-0.00732,0.01952,-0.00488,0.02928,-0.0244,-0.01464,-0.00976
-0.01952,0.03172,-0.04392,-0.03416,-0.0244,0.00244,0.01952,0,0.0244,-0.0244,-0.01952,-0.00976
-0.03416,0.0366,-0.03904,-0.02196,-0.00488,-0.01464,0.01952,0,0.0244,-0.0244,-0.0244,-0.01952
-0.03904,0.0366,-0.03416,-0.01464,0.00488,-0.02196,0.01952,0,0.0244,-0.0244,-0.0244,-0.01952
-0.03904,0.0366,-0.03416,-0.01464,0.00488,-0.02196,0.01952,0,0.0244,-0.0244,-0.0244,-0.01952
-0.0488,0.04148,-0.03416,-0.00976,0.01464,-0.03172,0.01952,0,0.0244,-0.0244,-0.0244,-0.01952
-0.02928,0.02684,-0.0244,-0.00976,0.00488,-0.01708,0.01952,0,0.01952,-0.02928,-0.02928,-0.01952
-0.01952,0.01952,-0.01952,-0.00976,0,-0.00976,0.01952,0,0.01952,-0.02928,-0.02928,-0.0244
-0.03416,0.03172,-0.02928,-0.0122,0.00488,-0.01952,0.01952,0,0.01952,-0.02928,-0.02928,-0.02928
-0.0488,0.04392,-0.03904,-0.01464,0.00976,-0.02928,0.01952,0,0.01952,-0.03416,-0.02928,-0.01952
-0.05368,0.0488,-0.04392,-0.01708,0.00976,-0.03172,0.01952,-0.00488,0.01952,-0.03416,-0.03416,-0.02928
-0.05368,0.0488,-0.04392,-0.01708,0.00976,-0.03172,0.01952,-0.00488,0.01952,-0.02928,-0.03416,-0.02928
-0.04392,0.04148,-0.03904,-0.01708,0.00488,-0.0244,0.01952,-0.00488,0.01952,-0.02928,-0.03416,-0.02928
-0.02928,0.02928,-0.02928,-0.01464,0,-0.01464,0.01952,-0.00488,0.01952,-0.03416,-0.02928,-0.02928
-0.02928,0.02928,-0.02928,-0.01464,0,-0.01464,0.01952,-0.00488,0.01952,-0.03416,-0.02928,-0.02928
-0.02928,0.03416,-0.03904,-0.0244,-0.00976,-0.00976,0.01952,-0.00488,0.01952,-0.03416,-0.03904,-0.03904
-0.02928,0.03416,-0.03904,-0.0244,-0.00976,-0.00976,0.01952,-0.00976,0.01464,-0.03416,-0.03904,-0.03904
-0.03904,0.0366,-0.03416,-0.01464,0.00488,-0.02196,0.01952,-0.00976,0.01464,-0.03416,-0.0244,-0.03904
-0.03904,0.0366,-0.03416,-0.01464,0.00488,-0.02196,0.01952,-0.00488,0.01952,-0.03416,-0.03416,-0.03904
-0.04392,0.03904,-0.03416,-0.0122,0.00976,-0.02684,0.0244,-0.00488,0.01952,-0.03904,-0.03416,-0.03904
-0.04392,0.04148,-0.03904,-0.01708,0.00488,-0.0244,0.0244,0,0.01464,-0.03416,-0.03416,-0.03416
-0.04392,0.04392,-0.04392,-0.02196,0,-0.02196,0.02928,0,0.01464,-0.03416,-0.03904,-0.03416
-0.03416,0.03416,-0.03416,-0.01708,0,-0.01708,0.0244,-0.00488,0.01464,-0.02928,-0.03416,-0.02928
-0.02928,0.02928,-0.02928,-0.01464,0,-0.01464,0.01952,-0.00976,0.01952,-0.02928,-0.02928,-0.02928
-0.02928,0.02928,-0.02928,-0.01464,0,-0.01464,0.01952,-0.00976,0.01952,-0.02928,-0.03416,-0.03416
-0.02928,0.02928,-0.02928,-0.01464,0,-0.01464,0.01952,-0.00976,0.01952,-0.02928,-0.03904,-0.03904
-0.03904,0.03416,-0.02928,-0.00976,0.00976,-0.0244,0.01952,-0.00976,0.01952,-0.03416,-0.03904,-0.03904
-0.0488,0.03904,-0.02928,-0.00488,0.01952,-0.03416,0.01952,-0.00976,0.01952,-0.03904,-0.03904,-0.03904
-0.0488,0.04148,-0.03416,-0.00976,0.01464,-0.03172,0.01952,-0.00976,0.01464,-0.03904,-0.03416,-0.03416
-0.0488,0.04392,-0.03904,-0.01464,0.00976,-0.02928,0.01952,-0.00976,0.00976,-0.03904,-0.02928,-0.02928
-0.04392,0.04148,-0.03904,-0.01708,0.00488,-0.0244,0.01952,-0.00976,0.00976,-0.03904,-0.02928,-0.02928
-0.03904,0.03904,-0.03904,-0.01952,0,-0.01952,0.01952,-0.00976,0.00976,-0.03904,-0.02928,-0.02928
-0.03904,0.03904,-0.03904,-0.01952,0,-0.01952,0.01952,-0.00976,0.00976,-0.03904,-0.03416,-0.03416
-0.03904,0.03904,-0.03904,-0.01952,0,-0.01952,0.01952,-0.00976,0.00976,-0.03904,-0.03904,-0.03904
-0.03904,0.03904,-0.03904,-0.01952,0,-0.01952,0.01952,-0.00976,0.00976,-0.03904,-0.03904,-0.03904
-0.03904,0.03904,-0.03904,-0.01952,0,-0.01952,0.01952,-0.00976,0.00976,-0.03904,-0.03904,-0.03904
-0.03904,0.03904,-0.03904,-0.01952,0,-0.01952,0.01952,-0.01464,0.00976,-0.03904,-0.03904,-0.03904
-0.03904,0.03904,-0.03904,-0.01952,0,-0.01952,0.01952,-0.01952,0.00976,-0.03904,-0.03904,-0.03904
-0.04392,0.04148,-0.03904,-0.01708,0.00488,-0.0244,0.01952,-0.01952,0.00976,-0.03416,-0.03904,-0.03904
-0.0488,0.04392,-0.03904,-0.01464,0.00976,-0.02928,0.01952,-0.01952,0.00976,-0.02928,-0.03904,-0.03904
-0.0488,0.04392,-0.03904,-0.01464,0.00976,-0.02928,0.01952,-0.01464,0.00976,-0.02928,-0.03904,-0.03904
-0.0488,0.04392,-0.03904,-0.01464,0.00976,-0.02928,0.01952,-0.00976,0.00976,-0.02928,-0.03904,-0.03904
-0.03904,0.03904,-0.03904,-0.01952,0,-0.01952,0.01952,-0.00976,0.00488,-0.02928,-0.03904,-0.03416
-0.02928,0.03416,-0.03904,-0.0244,-0.00976,-0.00976,0.01952,-0.00976,0,-0.02928,-0.03904,-0.02928
-0.04392,0.04148,-0.03904,-0.01708,0.00488,-0.0244,0.01952,-0.00976,0,-0.02928,-0.03904,-0.02928
-0.05856,0.0488,-0.03904,-0.00976,0.01952,-0.03904,0.01952,-0.00976,0,-0.02928,-0.03904,-0.02928
-0.0488,0.04392,-0.03904,-0.01464,0.00976,-0.02928,0.01952,-0.00976,0,-0.02928,-0.03904,-0.02928
-0.03904,0.03904,-0.03904,-0.01952,0,-0.01952,0.01952,-0.00976,0,-0.02928,-0.03904,-0.02928
-0.03904,0.03904,-0.03904,-0.01952,0,-0.01952,0.01952,-0.00976,0,-0.03416,-0.03904,-0.03416
-0.03904,0.03904,-0.03904,-0.01952,0,-0.01952,0.01952,-0.00976,0,-0.03904,-0.03904,-0.03904
-0.03904,0.03904,-0.03904,-0.01952,0,-0.01952,0.01952,-0.00976,0,-0.03904,-0.03904,-0.03904
-0.03904,0.03904,-0.03904,-0.01952,0,-0.01952,0.01952,-0.00976,0,-0.03904,-0.03904,-0.03904
-0.04392,0.04148,-0.03904,-0.01708,0.00488,-0.0244,0.01952,-0.00976,0,-0.03904,-0.03904,-0.03904
-0.0488,0.04392,-0.03904,-0.01464,0.00976,-0.02928,0.01952,-0.00976,0,-0.03904,-0.03904,-0.03904
-0.0488,0.04392,-0.03904,-0.01464,0.00976,-0.02928,0.01952,-0.00976,0,-0.03904,-0.03904,-0.03904
-0.0488,0.04392,-0.03904,-0.01464,0.00976,-0.02928,0.01952,-0.00976,0,-0.03904,-0.03904,-0.03904
-0.04392,0.03904,-0.03416,-0.0122,0.00976,-0.02684,0.01952,-0.00976,0,-0.03416,-0.03904,-0.03904
-0.03904,0.03416,-0.02928,-0.00976,0.00976,-0.0244,0.01952,-0.00976,0,-0.02928,-0.03904,-0.03904
-0.03904,0.03416,-0.02928,-0.00976,0.00976,-0.0244,0.01952,-0.00488,0.00488,-0.02928,-0.03904,-0.03904
-0.03904,0.03416,-0.02928,-0.00976,0.00976,-0.0244,0.01952,0,0.00976,-0.02928,-0.03904,-0.03904
-0.03416,0.02196,-0.00976,0.00732,0.0244,-0.02928,0.0244,0.00488,0.01952,-0.01952,-0.02928,-0.03416
-0.02928,0.00976,0.00976,0.0244,0.03904,-0.03416,0.02928,0.00976,0.02928,-0.00976,-0.01952,-0.02928
-0.02928,0.00976,0.00976,0.0244,0.03904,-0.03416,0.02928,0.00976,0.02928,-0.00976,-0.01952,-0.0244
-0.02928,0.00976,0.00976,0.0244,0.03904,-0.03416,0.02928,0.00976,0.02928,-0.00976,-0.01952,-0.01952
-0.01464,0,0.01464,0.02196,0.02928,-0.02196,0.02928,0.00976,0.03416,-0.00488,-0.01464,-0.01464
0,-0.00976,0.01952,0.01952,0.01952,-0.00976,0.02928,0.00976,0.03904,0,-0.00976,-0.00976
0,-0.0122,0.0244,0.0244,0.0244,-0.0122,0.03416,0.01464,0.0488,0.00488,-0.00488,-0.00488
0,-0.01464,0.02928,0.02928,0.02928,-0.01464,0.03904,0.01952,0.05856,0.00976,0,0
-0.00976,-0.00976,0.02928,0.03416,0.03904,-0.0244,0.03416,0.01952,0.06344,0.01464,0,0
0,-0.01708,0.03416,0.03416,0.03416,-0.01708,0.0244,0.01952,0.06344,0.01952,0.00488,0
0.00488,-0.02196,0.03904,0.0366,0.03416,-0.01464,0.01464,0.01952,0.06832,0.0244,0.00976,0.00488
0.01952,-0.03416,0.0488,0.03904,0.02928,-0.00488,-0.00488,0.01464,0.06832,0.0244,0.01464,0.00976
0.0244,-0.03904,0.05368,0.04148,0.02928,-0.00244,-0.01464,0.00488,0.06832,0.02928,0.01952,0.01464
0.03416,-0.05124,0.06832,0.05124,0.03416,0,-0.03416,-0.00976,0.06832,0.03416,0.02928,0.02928
0.05856,-0.06344,0.06832,0.03904,0.00976,0.0244,-0.04392,-0.01952,0.05856,0.03416,0.02928,0.02928
0.05368,-0.05368,0.05368,0.02684,0,0.02684,-0.0488,-0.01952,0.03904,0.01464,0.01464,0.01952
0.04392,-0.04148,0.03904,0.01708,-0.00488,0.0244,-0.0488,-0.02928,0.01952,0,0,0.00976
0.03904,-0.0366,0.03416,0.01464,-0.00488,0.02196,-0.04392,-0.02928,0.01952,0,-0.00488,0.00976
0.0244,-0.02928,0.03416,0.02196,0.00976,0.00732,-0.04392,-0.0244,0.01952,0,-0.00488,0.00976
0.01464,-0.01708,0.01952,0.0122,0.00488,0.00488,-0.03904,-0.01952,0.00976,-0.00976,-0.00488,0.00976
0.0244,-0.01464,0.00488,-0.00732,-0.01952,0.02196,-0.03904,-0.0244,-0.01464,-0.0244,-0.01952,-0.00488
0.02928,-0.0122,-0.00488,-0.01952,-0.03416,0.03172,-0.03416,-0.02928,-0.02928,-0.03416,-0.02928,-0.01464
0.0244,-0.00732,-0.00976,-0.02196,-0.03416,0.02928,-0.03416,-0.04392,-0.03416,-0.03904,-0.03904,-0.0244
0.00976,0.00732,-0.0244,-0.02928,-0.03416,0.02196,-0.02928,-0.0488,-0.03416,-0.0488,-0.04392,-0.03416
0,0.01708,-0.03416,-0.03416,-0.03416,0.01708,-0.01952,-0.03904,-0.03416,-0.0488,-0.04392,-0.03904
-0.00488,0.01952,-0.03416,-0.03172,-0.02928,0.0122,-0.00488,-0.0244,-0.02928,-0.04392,-0.04392,-0.03904
-0.00488,0.01952,-0.03416,-0.03172,-0.02928,0.0122,0.00488,-0.01952,-0.01464,-0.03904,-0.04392,-0.03416
-0.01464,0.02928,-0.04392,-0.0366,-0.02928,0.00732,0.01464,-0.00976,-0.00976,-0.03904,-0.04392,-0.02928
-0.0244,0.04392,-0.06344,-0.05124,-0.03904,0.00732,0.0244,-0.00488,-0.0244,-0.05368,-0.05856,-0.0488
-0.05368,0.06344,-0.0732,-0.04636,-0.01952,-0.01708,0.03416,-0.00488,-0.02928,-0.05856,-0.06832,-0.05856
-0.06344,0.06832,-0.0732,-0.04148,-0.00976,-0.02684,0.03416,-0.00488,-0.02928,-0.06344,-0.06832,-0.06344
-0.0732,0.07808,-0.08296,-0.04636,-0.00976,-0.03172,0.03416,-0.00976,-0.03416,-0.06832,-0.07808,-0.06832
-0.0732,0.07808,-0.08296,-0.04636,-0.00976,-0.03172,0.03416,-0.01952,-0.03904,-0.0732,-0.07808,-0.06832
-0.07808,0.08052,-0.08296,-0.04392,-0.00488,-0.0366,0.03416,-0.0244,-0.03904,-0.0732,-0.07808,-0.06832
-0.0732,0.08052,-0.08784,-0.05124,-0.01464,-0.02928,0.03904,-0.0244,-0.03904,-0.0732,-0.07808,-0.06832
-0.06832,0.07564,-0.08296,-0.0488,-0.01464,-0.02684,0.03904,-0.01952,-0.03904,-0.07808,-0.08296,-0.0732
-0.06832,0.07564,-0.08296,-0.0488,-0.01464,-0.02684,0.03904,-0.01952,-0.03904,-0.07808,-0.08784,-0.0732
-0.06832,0.0732,-0.07808,-0.04392,-0.00976,-0.02928,0.03904,-0.0244,-0.03904,-0.07808,-0.09272,-0.0732
-0.0732,0.07808,-0.08296,-0.04636,-0.00976,-0.03172,0.03416,-0.0244,-0.03904,-0.07808,-0.09272,-0.0732
-0.07808,0.0854,-0.09272,-0.05368,-0.01464,-0.03172,0.02928,-0.0244,-0.03904,-0.07808,-0.09272,-0.0732
-0.08296,0.09028,-0.0976,-0.05612,-0.01464,-0.03416,0.02928,-0.0244,-0.03416,-0.07808,-0.09272,-0.0732
-0.08296,0.09028,-0.0976,-0.05612,-0.01464,-0.03416,0.02928,-0.0244,-0.03416,-0.07808,-0.09272,-0.0732
-0.08296,0.09028,-0.0976,-0.05612,-0.01464,-0.03416,0.03416,-0.0244,-0.04392,-0.07808,-0.09272,-0.0732
-0.08296,0.09028,-0.0976,-0.05612,-0.01464,-0.03416,0.03904,-0.0244,-0.0488,-0.07808,-0.09272,-0.0732
-0.08296,0.08784,-0.09272,-0.05124,-0.00976,-0.0366,0.03904,-0.0244,-0.04392,-0.0732,-0.08784,-0.07808
-0.08296,0.0854,-0.08784,-0.04636,-0.00488,-0.03904,0.03416,-0.0244,-0.04392,-0.0732,-0.08784,-0.07808
-0.08296,0.0854,-0.08784,-0.04636,-0.00488,-0.03904,0.02928,-0.02928,-0.04392,-0.0732,-0.07808,-0.06832
-0.08296,0.0854,-0.08784,-0.04636,-0.00488,-0.03904,0.02928,-0.03904,-0.04392,-0.0732,-0.0732,-0.06832
-0.08296,0.08784,-0.09272,-0.05124,-0.00976,-0.0366,0.02928,-0.03904,-0.0488,-0.07808,-0.08784,-0.07808
-0.09272,0.10004,-0.10736,-0.061,-0.01464,-0.03904,0.03904,-0.0244,-0.05368,-0.07808,-0.10736,-0.0976
-0.11224,0.1098,-0.10736,-0.05124,0.00488,-0.05856,0.07808,0.01464,-0.02928,-0.08296,-0.11712,-0.10736
-0.13176,0.11468,-0.0976,-0.03172,0.03416,-0.08296,0.0976,0.04392,0.01464,-0.05856,-0.10248,-0.11712
-0.1464,0.11468,-0.08296,-0.00976,0.06344,-0.10492,0.10248,0.06832,0.0488,-0.01952,-0.06344,-0.09272
-0.0732,0.06832,-0.06344,-0.02684,0.00976,-0.04148,0.0976,0.11712,0.08784,0.03416,0,-0.0244
0.03416,-0.02684,0.01952,0.00244,-0.01464,0.0244,0.08296,0.15616,0.1708,0.16104,0.13664,0.11712
0.1952,-0.17324,0.15128,0.05368,-0.04392,0.11956,-0.02928,0.06344,0.1952,0.26352,0.27816,0.28792
0.39528,-0.34404,0.2928,0.09516,-0.10248,0.24888,-0.20984,-0.10736,0.16104,0.32696,0.40504,0.45872
0.59536,-0.51728,0.4392,0.14152,-0.15616,0.37576,-0.40992,-0.3172,0.07808,0.36112,0.50264,0.61976
0.85888,-0.74908,0.63928,0.20984,-0.2196,0.53924,-0.67832,-0.59048,-0.03416,0.40504,0.64904,0.84424
1.07848,-0.92476,0.77104,0.2318,-0.30744,0.69296,-0.87352,-0.78568,-0.1708,0.3904,0.71248,0.98576
1.1468,-0.89304,0.63928,0.06588,-0.50752,0.82716,-0.90768,-0.83448,-0.42456,0.10248,0.43432,0.74664
1.02968,-0.7198,0.40992,-0.10492,-0.61976,0.82472,-0.79544,-0.77592,-0.62952,-0.25376,0.0244,0.33184
0.69784,-0.46604,0.23424,-0.11468,-0.4636,0.58072,-0.57096,-0.62952,-0.64904,-0.44408,-0.25376,-0.00976
0.41968,-0.28792,0.15616,-0.05368,-0.26352,0.3416,-0.39528,-0.488,-0.5612,-0.4392,-0.30744,-0.10736
0.18544,-0.12932,0.0732,-0.01952,-0.11224,0.14884,-0.24888,-0.33672,-0.45384,-0.39528,-0.29768,-0.15616
0.05856,-0.02684,-0.00488,-0.03416,-0.06344,0.061,-0.12688,-0.20008,-0.34648,-0.32696,-0.26352,-0.1708
0.01464,0.00488,-0.0244,-0.03172,-0.03904,0.02684,-0.05368,-0.0976,-0.23912,-0.23424,-0.20496,-0.1464
-0.00976,0.01952,-0.02928,-0.0244,-0.01952,0.00488,-0.01464,-0.04392,-0.15128,-0.16104,-0.15616,-0.122
-0.0244,0.02928,-0.03416,-0.02196,-0.00976,-0.00732,0.00488,-0.01952,-0.08296,-0.11224,-0.11712,-0.08784
-0.02928,0.03172,-0.03416,-0.01952,-0.00488,-0.0122,0.01952,0,-0.04392,-0.08296,-0.09272,-0.06832
-0.0488,0.04392,-0.03904,-0.01464,0.00976,-0.02928,0.02928,0.00488,-0.0244,-0.05856,-0.0732,-0.05856
-0.05368,0.0488,-0.04392,-0.01708,0.00976,-0.03172,0.03416,0.00976,-0.01952,-0.0488,-0.06344,-0.05856
-0.06832,0.061,-0.05368,-0.01952,0.01464,-0.04148,0.03904,0.00976,-0.01952,-0.04392,-0.06344,-0.05856
-0.06832,0.061,-0.05368,-0.01952,0.01464,-0.04148,0.04392,0.01464,-0.00976,-0.04392,-0.06344,-0.06344
-0.0732,0.06588,-0.05856,-0.02196,0.01464,-0.04392,0.0488,0.01464,-0.00976,-0.04392,-0.06344,-0.06344
-0.07808,0.06832,-0.05856,-0.01952,0.01952,-0.0488,0.05856,0.01464,-0.00976,-0.04392,-0.06344,-0.06344
-0.08784,0.0732,-0.05856,-0.01464,0.02928,-0.05856,0.05856,0.01952,0,-0.03904,-0.05856,-0.06344
-0.08784,0.0732,-0.05856,-0.01464,0.02928,-0.05856,0.05856,0.01952,0,-0.03904,-0.05856,-0.06344
-0.06832,0.061,-0.05368,-0.01952,0.01464,-0.04148,0.05856,0.01952,0,-0.03904,-0.05856,-0.06832
-0.05856,0.05612,-0.05368,-0.0244,0.00488,-0.03172,0.05856,0.01952,0,-0.03904,-0.06344,-0.06832
-0.05856,0.05856,-0.05856,-0.02928,0,-0.02928,0.05856,0.0244,0.00488,-0.03416,-0.06344,-0.06344
-0.06344,0.061,-0.05856,-0.02684,0.00488,-0.03416,0.06344,0.0244,0.00488,-0.03416,-0.05856,-0.06344
-0.06344,0.061,-0.05856,-0.02684,0.00488,-0.03416,0.06344,0.02928,0.00488,-0.03416,-0.05368,-0.05856
-0.06344,0.05856,-0.05368,-0.02196,0.00976,-0.0366,0.06344,0.02928,0.00976,-0.03416,-0.05368,-0.05856
-0.08296,0.06832,-0.05368,-0.0122,0.02928,-0.05612,0.06344,0.02928,0.01952,-0.02928,-0.05368,-0.05856
-0.08296,0.06832,-0.05368,-0.0122,0.02928,-0.05612,0.06344,0.02928,0.0244,-0.02928,-0.05368,-0.05856
-0.07808,0.06588,-0.05368,-0.01464,0.0244,-0.05124,0.06344,0.02928,0.01952,-0.02928,-0.05368,-0.05856
-0.07808,0.06588,-0.05368,-0.01464,0.0244,-0.05124,0.06344,0.02928,0.01952,-0.02928,-0.05368,-0.05856
-0.07808,0.06588,-0.05368,-0.01464,0.0244,-0.05124,0.06344,0.03416,0.01952,-0.02928,-0.0488,-0.05368
-0.08296,0.07076,-0.05856,-0.01708,0.0244,-0.05368,0.06344,0.03416,0.01464,-0.02928,-0.0488,-0.05368
-0.08296,0.07076,-0.05856,-0.01708,0.0244,-0.05368,0.06344,0.03416,0.01464,-0.0244,-0.0488,-0.05368
-0.07808,0.06588,-0.05368,-0.01464,0.0244,-0.05124,0.06344,0.03416,0.01464,-0.0244,-0.0488,-0.05368
-0.07808,0.06344,-0.0488,-0.00976,0.02928,-0.05368,0.06344,0.03416,0.01952,-0.01952,-0.04392,-0.05368
-0.07808,0.06344,-0.0488,-0.00976,0.02928,-0.05368,0.06344,0.04392,0.01952,-0.01952,-0.04392,-0.05368
-0.06344,0.05612,-0.0488,-0.01708,0.01464,-0.03904,0.06344,0.04392,0.01952,-0.01952,-0.04392,-0.05368
-0.05368,0.05124,-0.0488,-0.02196,0.00488,-0.02928,0.06344,0.03904,0.01952,-0.01952,-0.04392,-0.05368
-0.0488,0.04636,-0.04392,-0.01952,0.00488,-0.02684,0.06344,0.03904,0.0244,-0.01464,-0.04392,-0.0488
-0.03904,0.04148,-0.04392,-0.0244,-0.00488,-0.01708,0.06344,0.04392,0.0244,-0.01464,-0.03904,-0.0488
-0.05856,0.05124,-0.04392,-0.01464,0.01464,-0.0366,0.06344,0.0488,0.0244,-0.01464,-0.03904,-0.0488
-0.06344,0.05124,-0.03904,-0.00732,0.0244,-0.04392,0.05856,0.0488,0.02928,-0.00976,-0.03904,-0.04392
-0.0488,0.04392,-0.03904,-0.01464,0.00976,-0.02928,0.05856,0.0488,0.02928,-0.00976,-0.03416,-0.04392
-0.04392,0.04148,-0.03904,-0.01708,0.00488,-0.0244,0.05856,0.0488,0.02928,-0.00976,-0.03416,-0.04392
-0.04392,0.03904,-0.03416,-0.0122,0.00976,-0.02684,0.05368,0.0488,0.03416,-0.00488,-0.02928,-0.03904
-0.03904,0.03416,-0.02928,-0.00976,0.00976,-0.0244,0.04392,0.05368,0.03416,-0.00488,-0.02928,-0.03904
-0.03904,0.03416,-0.02928,-0.00976,0.00976,-0.0244,0.04392,0.05368,0.03416,0,-0.02928,-0.03904
-0.03416,0.03172,-0.02928,-0.0122,0.00488,-0.01952,0.04392,0.05368,0.03416,0,-0.0244,-0.03416
-0.02928,0.02684,-0.0244,-0.00976,0.00488,-0.01708,0.0488,0.05368,0.03904,0.00488,-0.0244,-0.03416
-0.02928,0.02684,-0.0244,-0.00976,0.00488,-0.01708,0.05368,0.05856,0.03904,0.00976,-0.01952,-0.02928
-0.02928,0.02196,-0.01464,0,0.01464,-0.02196,0.04392,0.05856,0.04392,0.00976,-0.01952,-0.0244
-0.02928,0.01952,-0.00976,0.00488,0.01952,-0.0244,0.04392,0.05856,0.04392,0.01464,-0.00976,-0.01952
-0.0244,0.01708,-0.00976,0.00244,0.01464,-0.01952,0.03904,0.06344,0.0488,0.01952,-0.00488,-0.01464
-0.01952,0.01464,-0.00976,0,0.00976,-0.01464,0.03904,0.06344,0.0488,0.0244,-0.00488,-0.01464
-0.01464,0.00732,0,0.00732,0.01464,-0.01464,0.03904,0.06344,0.05368,0.02928,0,-0.00976
0,-0.00244,0.00488,0.00488,0.00488,-0.00244,0.02928,0.06344,0.05368,0.02928,0.00976,-0.00488
0.00976,-0.00976,0.00976,0.00488,0,0.00488,0.02928,0.06344,0.05856,0.04392,0.01464,0.00488
0.03416,-0.0244,0.01464,-0.00244,-0.01952,0.02684,0.0244,0.06832,0.06344,0.04392,0.01952,0.00976
0.03416,-0.03172,0.02928,0.0122,-0.00488,0.01952,0.01952,0.06832,0.06344,0.0488,0.02928,0.01952
0.05856,-0.05124,0.04392,0.01464,-0.01464,0.0366,0.01464,0.06344,0.06832,0.05368,0.03904,0.0244
0.05856,-0.05368,0.0488,0.01952,-0.00976,0.03416,0.00488,0.06344,0.0732,0.06344,0.04392,0.03904
0.06832,-0.061,0.05368,0.01952,-0.01464,0.04148,0,0.06344,0.0732,0.06832,0.0488,0.03904
0.0732,-0.06588,0.05856,0.02196,-0.01464,0.04392,-0.00488,0.05856,0.0732,0.0732,0.0488,0.03904
0.08296,-0.07808,0.0732,0.03172,-0.00976,0.04636,-0.01464,0.05368,0.07808,0.07808,0.05368,0.0488
0.10736,-0.09516,0.08296,0.02928,-0.0244,0.06588,-0.01952,0.05368,0.07808,0.08296,0.05856,0.05856
0.10736,-0.0976,0.08784,0.03416,-0.01952,0.06344,-0.0244,0.05368,0.07808,0.08784,0.05856,0.06344
0.122,-0.10736,0.09272,0.03172,-0.02928,0.07564,-0.03416,0.04392,0.07808,0.08784,0.06344,0.06344
0.13176,-0.11712,0.10248,0.0366,-0.02928,0.08052,-0.04392,0.03904,0.07808,0.09272,0.06832,0.0732
0.15128,-0.12932,0.10736,0.03172,-0.04392,0.0976,-0.05368,0.02928,0.07808,0.09272,0.06832,0.06832
0.15128,-0.12932,0.10736,0.03172,-0.04392,0.0976,-0.05856,0.02928,0.06344,0.09272,0.06832,0.06832
0.15128,-0.12932,0.10736,0.03172,-0.04392,0.0976,-0.06344,0.0244,0.06344,0.09272,0.06344,0.06832
0.16592,-0.14152,0.11712,0.03416,-0.0488,0.10736,-0.06832,0.01464,0.06344,0.09272,0.05856,0.06832
0.15616,-0.13664,0.11712,0.03904,-0.03904,0.0976,-0.06832,0.00976,0.05368,0.08784,0.05856,0.06832
0.15128,-0.1342,0.11712,0.04148,-0.03416,0.09272,-0.0732,0.00488,0.0488,0.07808,0.05368,0.06344
0.16104,-0.13908,0.11712,0.0366,-0.04392,0.10248,-0.0732,0,0.0488,0.07808,0.05368,0.06344
0.16592,-0.14396,0.122,0.03904,-0.04392,0.10492,-0.08296,-0.00976,0.04392,0.0732,0.05368,0.06344
0.15616,-0.13908,0.122,0.04392,-0.03416,0.09516,-0.08296,-0.00976,0.04392,0.0732,0.0488,0.06344
0.15616,-0.1342,0.11224,0.03416,-0.04392,0.10004,-0.08296,-0.00976,0.03904,0.0732,0.04392,0.05368
0.15128,-0.12688,0.10248,0.02684,-0.0488,0.10004,-0.08296,-0.01464,0.03416,0.06344,0.03416,0.05368
0.1464,-0.122,0.0976,0.0244,-0.0488,0.0976,-0.08296,-0.01464,0.03416,0.05856,0.02928,0.0488
0.13176,-0.11468,0.0976,0.03172,-0.03416,0.08296,-0.07808,-0.01952,0.03416,0.05368,0.03416,0.04392
0.122,-0.10492,0.08784,0.02684,-0.03416,0.07808,-0.06832,-0.01952,0.03416,0.0488,0.02928,0.03904
0.11224,-0.0976,0.08296,0.02684,-0.02928,0.07076,-0.06344,-0.01952,0.02928,0.04392,0.0244,0.03416
0.11224,-0.0976,0.08296,0.02684,-0.02928,0.07076,-0.05856,-0.01952,0.0244,0.03904,0.01952,0.02928
0.10248,-0.0854,0.06832,0.01708,-0.03416,0.06832,-0.05856,-0.01952,0.01952,0.03416,0.01464,0.01952
0.10248,-0.08052,0.05856,0.00732,-0.04392,0.0732,-0.05368,-0.01952,0.01464,0.02928,0.00976,0.01952
0.0732,-0.06344,0.05368,0.01708,-0.01952,0.04636,-0.04392,-0.01464,0.01464,0.0244,0,0.00976
0.03416,-0.0366,0.03904,0.02196,0.00488,0.01464,-0.03904,-0.01464,0.01464,0.01952,-0.00488,0.00488
0.0488,-0.04148,0.03416,0.00976,-0.01464,0.03172,-0.04392,-0.01464,0.00976,0.01464,-0.00976,-0.00488
0.05368,-0.04148,0.02928,0.00244,-0.0244,0.03904,-0.03416,-0.00976,0.00976,0.00488,-0.01464,-0.00976
0.0244,-0.02196,0.01952,0.00732,-0.00488,0.01464,-0.02928,-0.00976,0.00488,0.00488,-0.0244,-0.01464
0.00488,-0.00732,0.00976,0.00732,0.00488,0,-0.01952,-0.00976,0.00488,0.00488,-0.0244,-0.01952
0.00976,-0.00976,0.00976,0.00488,0,0.00488,-0.01952,-0.00976,0.00488,0.00488,-0.0244,-0.01952
0.00488,-0.00732,0.00976,0.00732,0.00488,0,-0.01464,-0.00976,0.00488,0.00976,-0.0244,-0.02928
0,0,0,0,0,0,-0.00488,-0.00488,0,0,-0.02928,-0.03416
-0.00976,0.00976,-0.00976,-0.00488,0,-0.00488,-0.00488,0,-0.00488,0,-0.04392,-0.03904
-0.00976,0.00976,-0.00976,-0.00488,0,-0.00488,-0.00488,0,-0.00488,-0.01464,-0.04392,-0.03904
0,0.00488,-0.00976,-0.00976,-0.00976,0.00488,-0.00488,0,-0.00976,-0.01952,-0.04392,-0.03904
-0.01464,0.01708,-0.01952,-0.0122,-0.00488,-0.00488,-0.00488,0,-0.00976,-0.01952,-0.0488,-0.03904
-0.02928,0.03416,-0.03904,-0.0244,-0.00976,-0.00976,0,0,-0.00976,-0.01952,-0.0488,-0.03904
-0.02928,0.02928,-0.02928,-0.01464,0,-0.01464,0.00976,0,-0.00976,-0.01464,-0.0488,-0.03904
-0.02928,0.02196,-0.01464,0,0.01464,-0.02196,0.01464,0,-0.00976,-0.00976,-0.0488,-0.03904
-0.0244,0.01952,-0.01464,-0.00244,0.00976,-0.01708,0.01464,-0.00488,-0.01464,-0.01952,-0.05368,-0.03904
-0.01952,0.01952,-0.01952,-0.00976,0,-0.00976,0.01464,-0.00976,-0.01464,-0.01952,-0.05368,-0.04392
-0.01952,0.01952,-0.01952,-0.00976,0,-0.00976,0.00488,-0.00976,-0.01464,-0.01952,-0.05368,-0.0488
-0.01952,0.01464,-0.00976,0,0.00976,-0.01464,0,-0.00976,-0.01464,-0.0244,-0.05368,-0.0488
-0.02928,0.02684,-0.0244,-0.00976,0.00488,-0.01708,0,-0.00976,-0.01464,-0.0244,-0.05368,-0.0488
-0.03416,0.03172,-0.02928,-0.0122,0.00488,-0.01952,0.00488,-0.00976,-0.01464,-0.02928,-0.05856,-0.05368
-0.03416,0.02928,-0.0244,-0.00732,0.00976,-0.02196,0.00976,-0.00488,-0.01464,-0.02928,-0.05856,-0.05856
-0.03416,0.02928,-0.0244,-0.00732,0.00976,-0.02196,0.01464,0,-0.01464,-0.0244,-0.05856,-0.05856
-0.03416,0.03416,-0.03416,-0.01708,0,-0.01708,0.01464,0,-0.01464,-0.0244,-0.05856,-0.05368
-0.03416,0.0366,-0.03904,-0.02196,-0.00488,-0.01464,0.01464,0,-0.01464,-0.0244,-0.05856,-0.05368
-0.03416,0.03416,-0.03416,-0.01708,0,-0.01708,0.00976,-0.00488,-0.00976,-0.0244,-0.05368,-0.0488
-0.02928,0.03172,-0.03416,-0.01952,-0.00488,-0.0122,0.00976,-0.00976,-0.00976,-0.0244,-0.05368,-0.0488
-0.0244,0.0244,-0.0244,-0.0122,0,-0.0122,0.00976,-0.00488,-0.00488,-0.01952,-0.0488,-0.0488
-0.01952,0.01708,-0.01464,-0.00488,0.00488,-0.0122,0.0244,0,-0.00488,-0.01952,-0.0488,-0.04392
-0.01952,0.01708,-0.01464,-0.00488,0.00488,-0.0122,0.01464,0,-0.00488,-0.01952,-0.05368,-0.0488
-0.01952,0.01708,-0.01464,-0.00488,0.00488,-0.0122,0.01464,0,-0.00488,-0.01464,-0.05368,-0.0488
-0.01952,0.01708,-0.01464,-0.00488,0.00488,-0.0122,0.01464,0,0,-0.01464,-0.0488,-0.0488
-0.01952,0.01952,-0.01952,-0.00976,0,-0.00976,0.01952,0,0.00488,-0.00976,-0.0488,-0.0488
-0.01952,0.01708,-0.01464,-0.00488,0.00488,-0.0122,0.01952,0.00488,0.00488,-0.00976,-0.0488,-0.04392
-0.01952,0.01708,-0.01464,-0.00488,0.00488,-0.0122,0.01952,0.00976,0.00488,-0.00488,-0.03904,-0.03416
-0.01952,0.01708,-0.01464,-0.00488,0.00488,-0.0122,0.01952,0.01464,0,-0.00488,-0.03416,-0.03416
-0.00976,0.0122,-0.01464,-0.00976,-0.00488,-0.00244,0.01464,0.01464,0,0,-0.03416,-0.03416
-0.0244,0.02196,-0.01952,-0.00732,0.00488,-0.01464,0.01464,0.00976,0,0,-0.03416,-0.03416
-0.02928,0.0244,-0.01952,-0.00488,0.00976,-0.01952,0.01464,0.00976,0,0,-0.02928,-0.02928
-0.01952,0.01464,-0.00976,0,0.00976,-0.01464,0.01952,0.01464,0.00488,0.00976,-0.0244,-0.01952
-0.01952,0.01464,-0.00976,0,0.00976,-0.01464,0.01952,0.01464,0.00488,0.00976,-0.01952,-0.01952
-0.01952,0.01464,-0.00976,0,0.00976,-0.01464,0.01464,0.01464,0.00488,0.00976,-0.01952,-0.01952
-0.01952,0.0122,-0.00488,0.00488,0.01464,-0.01708,0.01464,0.01464,0.00488,0.00976,-0.01952,-0.01952
-0.01952,0.0122,-0.00488,0.00488,0.01464,-0.01708,0.01464,0.01464,0.00976,0.01464,-0.01464,-0.01464
-0.01952,0.0122,-0.00488,0.00488,0.01464,-0.01708,0.01464,0.01464,0.00976,0.01464,-0.01464,-0.01464
-0.01952,0.0122,-0.00488,0.00488,0.01464,-0.01708,0.01464,0.01464,0.00976,0.01464,-0.01464,-0.01952
-0.01952,0.0122,-0.00488,0.00488,0.01464,-0.01708,0.01464,0.01464,0.00976,0.01464,-0.01464,-0.01952
-0.01952,0.01464,-0.00976,0,0.00976,-0.01464,0.01464,0.01464,0.00976,0.01952,-0.01464,-0.01952
-0.01952,0.01464,-0.00976,0,0.00976,-0.01464,0.01464,0.01464,0.00976,0.01952,-0.01464,-0.01952
-0.01464,0.0122,-0.00976,-0.00244,0.00488,-0.00976,0.01464,0.01464,0.00976,0.01952,-0.01464,-0.01952
-0.00976,0.0122,-0.01464,-0.00976,-0.00488,-0.00244,0.01464,0.00976,0.00976,0.01464,-0.01464,-0.01952
0,0.00488,-0.00976,-0.00976,-0.00976,0.00488,0.00976,0.00488,0.00488,0.01464,-0.01464,-0.01952
0,0,0,0,0,0,0.00976,0,0.00488,0.01464,-0.01464,-0.01952
0.00976,-0.00488,0,-0.00488,-0.00976,0.00976,0.01464,0,0.00488,0.01464,-0.01952,-0.01952
-0.01464,0.0122,-0.00976,-0.00244,0.00488,-0.00976,0.01464,0.00488,0.00488,0.01464,-0.0244,-0.0244
-0.00488,0.00244,0,0.00244,0.00488,-0.00488,0.01464,0.00488,0.00488,0.01464,-0.01952,-0.0244
0,0,0,0,0,0,0.01464,0.00488,0,0.01464,-0.01952,-0.0244
0,0.00244,-0.00488,-0.00488,-0.00488,0.00244,0.01464,0.00488,0,0.00976,-0.02928,-0.0244
-0.00488,0.00488,-0.00488,-0.00244,0,-0.00244,0.01464,-0.00488,0,0.00976,-0.02928,-0.02928
-0.00488,0.00488,-0.00488,-0.00244,0,-0.00244,0.01464,-0.00488,0,0.01464,-0.02928,-0.02928
-0.00488,0.00488,-0.00488,-0.00244,0,-0.00244,0.01464,-0.00976,0,0.00976,-0.03416,-0.02928
-0.00488,0.00976,-0.01464,-0.0122,-0.00976,0.00244,0.00976,-0.00976,-0.00488,0.00976,-0.03904,-0.03416
-0.01464,0.01952,-0.0244,-0.01708,-0.00976,-0.00244,0.00976,-0.00976,-0.00488,0.00976,-0.03904,-0.03904
-0.0244,0.0244,-0.0244,-0.0122,0,-0.0122,0.01464,-0.00976,-0.00976,0.00976,-0.03904,-0.03904
-0.02928,0.02196,-0.01464,0,0.01464,-0.02196,0.01464,-0.00976,-0.00976,0.00976,-0.03904,-0.03416
-0.02928,0.02196,-0.01464,0,0.01464,-0.02196,0.01464,-0.00976,-0.01464,0.00976,-0.03904,-0.02928
-0.02928,0.0244,-0.01952,-0.00488,0.00976,-0.01952,0.01464,-0.01464,-0.01464,0.00488,-0.04392,-0.03904
-0.01464,0.01464,-0.01464,-0.00732,0,-0.00732,0.01464,-0.01464,-0.01464,0.00488,-0.04392,-0.03904
0,0.00488,-0.00976,-0.00976,-0.00976,0.00488,0.01464,-0.01464,-0.01464,0.00488,-0.04392,-0.0244
0,0.00732,-0.01464,-0.01464,-0.01464,0.00732,0.00976,-0.00488,-0.01952,-0.00488,-0.0488,-0.04392
-0.01464,0.01952,-0.0244,-0.01708,-0.00976,-0.00244,0.00976,-0.00488,-0.01952,-0.01464,-0.05368,-0.0488
-0.0244,0.02684,-0.02928,-0.01708,-0.00488,-0.00976,0.00976,-0.01464,-0.01952,-0.01464,-0.05368,-0.0488
-0.02928,0.02684,-0.0244,-0.00976,0.00488,-0.01708,0.00976,-0.01464,-0.01952,-0.01464,-0.0488,-0.0488
-0.01952,0.02196,-0.0244,-0.01464,-0.00488,-0.00732,0.00976,-0.00976,-0.0244,-0.01464,-0.0488,-0.04392
-0.02928,0.02684,-0.0244,-0.00976,0.00488,-0.01708,0.00976,-0.00976,-0.0244,-0.01464,-0.05368,-0.0488
-0.02928,0.02684,-0.0244,-0.00976,0.00488,-0.01708,0.00976,-0.00976,-0.0244,-0.00976,-0.05368,-0.0488
-0.02928,0.02684,-0.0244,-0.00976,0.00488,-0.01708,0.00976,-0.00976,-0.0244,-0.00488,-0.05368,-0.0488
-0.0488,0.0366,-0.0244,0,0.0244,-0.0366,0.01464,-0.00976,-0.0244,-0.00488,-0.0488,-0.0488
-0.0488,0.0366,-0.0244,0,0.0244,-0.0366,0.01952,-0.00976,-0.02928,-0.00976,-0.0488,-0.0488
-0.03904,0.03416,-0.02928,-0.00976,0.00976,-0.0244,0.01952,-0.00976,-0.02928,-0.00976,-0.0488,-0.05856
-0.02928,0.02928,-0.02928,-0.01464,0,-0.01464,0.01952,-0.00976,-0.02928,-0.00976,-0.0488,-0.06344
-0.02928,0.02928,-0.02928,-0.01464,0,-0.01464,0.01952,-0.00976,-0.02928,-0.01952,-0.05368,-0.0488
-0.03416,0.03416,-0.03416,-0.01708,0,-0.01708,0.01952,-0.01464,-0.02928,-0.0244,-0.06344,-0.05856
-0.03416,0.03416,-0.03416,-0.01708,0,-0.01708,0.01952,-0.01464,-0.02928,-0.01952,-0.06344,-0.05856
-0.03416,0.03416,-0.03416,-0.01708,0,-0.01708,0.01952,-0.01464,-0.02928,-0.01952,-0.06344,-0.05856
-0.02928,0.02928,-0.02928,-0.01464,0,-0.01464,0.01952,-0.01464,-0.02928,-0.0244,-0.05856,-0.05856
-0.02928,0.02928,-0.02928,-0.01464,0,-0.01464,0.01952,-0.01464,-0.02928,-0.0244,-0.05856,-0.05856
-0.03416,0.0366,-0.03904,-0.02196,-0.00488,-0.01464,0.01952,-0.01464,-0.02928,-0.0244,-0.06832,-0.06832
-0.03904,0.03904,-0.03904,-0.01952,0,-0.01952,0.01952,-0.01952,-0.03416,-0.0244,-0.06832,-0.06832
-0.0488,0.04148,-0.03416,-0.00976,0.01464,-0.03172,0.01952,-0.01952,-0.03416,-0.01464,-0.05368,-0.06832
-0.0488,0.04148,-0.03416,-0.00976,0.01464,-0.03172,0.01952,-0.01464,-0.02928,-0.00488,-0.06344,-0.06832
-0.0488,0.04636,-0.04392,-0.01952,0.00488,-0.02684,0.0244,-0.01464,-0.02928,-0.01952,-0.06832,-0.0732
-0.05368,0.05124,-0.0488,-0.02196,0.00488,-0.02928,0.0244,-0.01464,-0.03416,-0.0244,-0.0732,-0.0732
-0.03904,0.03904,-0.03904,-0.01952,0,-0.01952,0.0244,-0.00976,-0.03416,-0.01952,-0.06344,-0.06344
-0.02928,0.02928,-0.02928,-0.01464,0,-0.01464,0.02928,-0.00976,-0.03904,-0.01952,-0.05856,-0.05856
-0.03416,0.03416,-0.03416,-0.01708,0,-0.01708,0.02928,-0.00976,-0.03904,-0.01952,-0.06344,-0.05856
-0.03904,0.03904,-0.03904,-0.01952,0,-0.01952,0.02928,-0.00976,-0.03904,-0.01952,-0.06832,-0.05856
-0.03904,0.03904,-0.03904,-0.01952,0,-0.01952,0.02928,-0.00976,-0.03904,-0.01952,-0.06832,-0.05856
-0.03904,0.03904,-0.03904,-0.01952,0,-0.01952,0.02928,-0.00976,-0.03904,-0.01952,-0.06832,-0.05856
-0.03904,0.03904,-0.03904,-0.01952,0,-0.01952,0.02928,-0.01464,-0.03904,-0.0244,-0.06832,-0.06344
-0.03904,0.03904,-0.03904,-0.01952,0,-0.01952,0.02928,-0.01952,-0.03904,-0.02928,-0.06832,-0.06832
-0.03904,0.03904,-0.03904,-0.01952,0,-0.01952,0.0244,-0.01952,-0.04392,-0.02928,-0.06832,-0.06832
-0.03904,0.03904,-0.03904,-0.01952,0,-0.01952,0.01952,-0.01952,-0.0488,-0.02928,-0.06832,-0.06832
-0.03904,0.03904,-0.03904,-0.01952,0,-0.01952,0.01952,-0.01952,-0.0488,-0.02928,-0.06832,-0.06832
-0.03904,0.03904,-0.03904,-0.01952,0,-0.01952,0.01952,-0.01952,-0.0488,-0.02928,-0.06832,-0.06832
-0.04392,0.04148,-0.03904,-0.01708,0.00488,-0.0244,0.0244,-0.01952,-0.0488,-0.02928,-0.06832,-0.06832
-0.0488,0.04392,-0.03904,-0.01464,0.00976,-0.02928,0.02928,-0.01952,-0.0488,-0.02928,-0.06832,-0.06832
-0.0488,0.04392,-0.03904,-0.01464,0.00976,-0.02928,0.02928,-0.01952,-0.0488,-0.02928,-0.0732,-0.0732
-0.0488,0.04392,-0.03904,-0.01464,0.00976,-0.02928,0.02928,-0.01952,-0.0488,-0.02928,-0.07808,-0.07808
-0.04392,0.03904,-0.03416,-0.0122,0.00976,-0.02684,0.02928,-0.01952,-0.0488,-0.02928,-0.07808,-0.07808
-0.03904,0.03416,-0.02928,-0.00976,0.00976,-0.0244,0.02928,-0.01952,-0.0488,-0.02928,-0.07808,-0.07808
-0.03904,0.03416,-0.02928,-0.00976,0.00976,-0.0244,0.02928,-0.01952,-0.0488,-0.02928,-0.07808,-0.07808
-0.03904,0.03416,-0.02928,-0.00976,0.00976,-0.0244,0.02928,-0.01952,-0.0488,-0.02928,-0.07808,-0.07808
-0.04392,0.03904,-0.03416,-0.0122,0.00976,-0.02684,0.0244,-0.01952,-0.05368,-0.02928,-0.07808,-0.07808
-0.0488,0.04392,-0.03904,-0.01464,0.00976,-0.02928,0.01952,-0.01952,-0.05856,-0.02928,-0.07808,-0.07808
-0.0488,0.04392,-0.03904,-0.01464,0.00976,-0.02928,0.01952,-0.01952,-0.05856,-0.02928,-0.07808,-0.07808
-0.0488,0.04392,-0.03904,-0.01464,0.00976,-0.02928,0.01952,-0.01952,-0.05856,-0.02928,-0.07808,-0.07808
-0.04392,0.03904,-0.03416,-0.0122,0.00976,-0.02684,0.01952,-0.01952,-0.05368,-0.02928,-0.07808,-0.07808
-0.03904,0.03416,-0.02928,-0.00976,0.00976,-0.0244,0.01952,-0.01952,-0.0488,-0.02928,-0.07808,-0.07808
-0.02928,0.02928,-0.02928,-0.01464,0,-0.01464,0.01952,-0.01952,-0.0488,-0.02928,-0.07808,-0.07808
-0.01952,0.0244,-0.02928,-0.01952,-0.00976,-0.00488,0.01952,-0.01952,-0.0488,-0.02928,-0.07808,-0.07808
-0.02928,0.02928,-0.02928,-0.01464,0,-0.01464,0.01952,-0.0244,-0.0488,-0.02928,-0.0732,-0.07808
-0.03904,0.03416,-0.02928,-0.00976,0.00976,-0.0244,0.01952,-0.02928,-0.0488,-0.02928,-0.06832,-0.07808
-0.03904,0.0366,-0.03416,-0.01464,0.00488,-0.02196,0.01952,-0.02928,-0.05368,-0.02928,-0.06832,-0.07808
-0.03904,0.03904,-0.03904,-0.01952,0,-0.01952,0.01952,-0.02928,-0.05856,-0.02928,-0.06832,-0.07808
-0.03904,0.03904,-0.03904,-0.01952,0,-0.01952,0.01952,-0.02928,-0.05856,-0.02928,-0.0732,-0.07808
-0.03904,0.03904,-0.03904,-0.01952,0,-0.01952,0.01952,-0.02928,-0.05856,-0.02928,-0.07808,-0.07808
-0.03904,0.03904,-0.03904,-0.01952,0,-0.01952,0.01952,-0.02928,-0.05856,-0.02928,-0.08296,-0.08296
-0.03904,0.03904,-0.03904,-0.01952,0,-0.01952,0.01952,-0.02928,-0.05856,-0.02928,-0.08784,-0.08784
-0.03904,0.04148,-0.04392,-0.0244,-0.00488,-0.01708,0.01952,-0.02928,-0.05856,-0.02928,-0.08784,-0.08784
-0.03904,0.04392,-0.0488,-0.02928,-0.00976,-0.01464,0.01952,-0.02928,-0.05856,-0.02928,-0.08784,-0.08784
-0.04392,0.04636,-0.0488,-0.02684,-0.00488,-0.01952,0.0244,-0.0244,-0.05856,-0.02928,-0.08296,-0.08296
-0.0488,0.0488,-0.0488,-0.0244,0,-0.0244,0.02928,-0.01952,-0.05856,-0.02928,-0.07808,-0.07808
-0.0488,0.0488,-0.0488,-0.0244,0,-0.0244,0.02928,-0.01952,-0.05856,-0.02928,-0.07808,-0.07808
-0.0488,0.0488,-0.0488,-0.0244,0,-0.0244,0.02928,-0.01952,-0.05856,-0.02928,-0.07808,-0.07808
-0.0488,0.0488,-0.0488,-0.0244,0,-0.0244,0.02928,-0.01952,-0.05856,-0.0244,-0.0732,-0.07808
-0.0488,0.0488,-0.0488,-0.0244,0,-0.0244,0.02928,-0.01952,-0.05856,-0.01952,-0.06832,-0.07808
-0.04392,0.04148,-0.03904,-0.01708,0.00488,-0.0244,0.02928,-0.01952,-0.05368,-0.01464,-0.06344,-0.0732
-0.03904,0.03416,-0.02928,-0.00976,0.00976,-0.0244,0.02928,-0.01952,-0.0488,-0.00976,-0.05856,-0.06832
-0.02928,0.02196,-0.01464,0,0.01464,-0.02196,0.02928,-0.01952,-0.03904,0,-0.05368,-0.06344
-0.01952,0.00976,0,0.00976,0.01952,-0.01952,0.02928,-0.01952,-0.02928,0.00976,-0.0488,-0.05856
-0.01952,0.00976,0,0.00976,0.01952,-0.01952,0.02928,-0.01952,-0.02928,0.00976,-0.04392,-0.05856
-0.01952,0.00976,0,0.00976,0.01952,-0.01952,0.02928,-0.01952,-0.02928,0.00976,-0.03904,-0.05856
-0.01464,0.00732,0,0.00732,0.01464,-0.01464,0.03904,-0.00976,-0.01952,0.01464,-0.03904,-0.05856
-0.00976,0.00488,0,0.00488,0.00976,-0.00976,0.0488,0,-0.00976,0.01952,-0.03904,-0.05856
-0.00976,0.00244,0.00488,0.00976,0.01464,-0.0122,0.0488,0.00976,-0.00488,0.0244,-0.03904,-0.05368
-0.00976,0,0.00976,0.01464,0.01952,-0.01464,0.03904,0.01464,0,0.0244,-0.03416,-0.0488
-0.00976,-0.00244,0.01464,0.01952,0.0244,-0.01708,0.03416,0.01952,0,0.02928,-0.03416,-0.04392
0.00488,-0.0122,0.01952,0.01708,0.01464,-0.00488,0.0244,0.01464,0,0.03416,-0.02928,-0.04392
0.01952,-0.0244,0.02928,0.01952,0.00976,0.00488,0.00488,0.00488,0,0.03416,-0.0244,-0.03904
0.0244,-0.02928,0.03416,0.02196,0.00976,0.00732,-0.00488,-0.00488,0,0.03904,-0.0244,-0.03416
0.04392,-0.04636,0.0488,0.02684,0.00488,0.01952,-0.02928,-0.01952,0.00976,0.0488,-0.01464,-0.01464
0.06832,-0.05856,0.0488,0.01464,-0.01952,0.04392,-0.04392,-0.02928,0.00976,0.05368,-0.00976,-0.00976
0.06344,-0.05124,0.03904,0.00732,-0.0244,0.04392,-0.0488,-0.02928,-0.00976,0.03416,-0.0244,-0.01952
0.06344,-0.0488,0.03416,0.00244,-0.02928,0.04636,-0.0488,-0.03904,-0.02928,0.01952,-0.03416,-0.02928
0.05856,-0.04636,0.03416,0.00488,-0.0244,0.04148,-0.04392,-0.03904,-0.03416,0.01952,-0.03416,-0.02928
0.05368,-0.04392,0.03416,0.00732,-0.01952,0.0366,-0.04392,-0.03904,-0.03904,0.01952,-0.03416,-0.02928
0.03904,-0.02684,0.01464,-0.00488,-0.0244,0.03172,-0.03904,-0.03416,-0.0488,0.00976,-0.03416,-0.0244
0.0244,-0.00976,-0.00488,-0.01708,-0.02928,0.02684,-0.03904,-0.03416,-0.06832,-0.00488,-0.0488,-0.03416
0.01952,-0.00244,-0.01464,-0.0244,-0.03416,0.02684,-0.03416,-0.03904,-0.07808,-0.01464,-0.05856,-0.04392
0.01464,0.00244,-0.01952,-0.02684,-0.03416,0.0244,-0.03416,-0.0488,-0.08296,-0.01952,-0.06832,-0.0488
0.00488,0.01464,-0.03416,-0.0366,-0.03904,0.02196,-0.02928,-0.06344,-0.08296,-0.03904,-0.0732,-0.05856
0,0.02196,-0.04392,-0.04392,-0.04392,0.02196,-0.01952,-0.06832,-0.08296,-0.0488,-0.0732,-0.06832
-0.00488,0.02196,-0.03904,-0.0366,-0.03416,0.01464,-0.00488,-0.05368,-0.07808,-0.03416,-0.0732,-0.06832
-0.00488,0.01952,-0.03416,-0.03172,-0.02928,0.0122,0.00488,-0.0488,-0.06832,-0.01952,-0.0732,-0.06832
-0.01464,0.02928,-0.04392,-0.0366,-0.02928,0.00732,0.01464,-0.03416,-0.06832,-0.01952,-0.06832,-0.06344
-0.0244,0.04392,-0.06344,-0.05124,-0.03904,0.00732,0.01952,-0.02928,-0.08296,-0.03416,-0.07808,-0.07808
-0.05368,0.06344,-0.0732,-0.04636,-0.01952,-0.01708,0.0244,-0.03416,-0.08784,-0.03904,-0.08784,-0.08784
-0.05856,0.06588,-0.0732,-0.04392,-0.01464,-0.02196,0.0244,-0.03416,-0.08784,-0.04392,-0.08784,-0.09272
-0.0732,0.07808,-0.08296,-0.04636,-0.00976,-0.03172,0.0244,-0.03904,-0.09272,-0.0488,-0.0976,-0.0976
-0.08296,0.08296,-0.08296,-0.04148,0,-0.04148,0.0244,-0.04392,-0.0976,-0.05368,-0.0976,-0.0976
-0.08784,0.0854,-0.08296,-0.03904,0.00488,-0.04636,0.0244,-0.04392,-0.0976,-0.05368,-0.10248,-0.10248
-0.08784,0.09028,-0.09272,-0.0488,-0.00488,-0.04148,0.02928,-0.04392,-0.0976,-0.05368,-0.10736,-0.10736
-0.08784,0.09028,-0.09272,-0.0488,-0.00488,-0.04148,0.02928,-0.03904,-0.0976,-0.06344,-0.11224,-0.11224
-0.08784,0.09028,-0.09272,-0.0488,-0.00488,-0.04148,0.02928,-0.03904,-0.0976,-0.06832,-0.11224,-0.11224
-0.08784,0.08784,-0.08784,-0.04392,0,-0.04392,0.02928,-0.04392,-0.10248,-0.06832,-0.11224,-0.11224
-0.08784,0.0854,-0.08296,-0.03904,0.00488,-0.04636,0.02928,-0.04392,-0.10736,-0.06832,-0.11224,-0.11224
-0.08296,0.08296,-0.08296,-0.04148,0,-0.04148,0.02928,-0.04392,-0.10736,-0.06832,-0.11224,-0.11224
-0.08296,0.0854,-0.08784,-0.04636,-0.00488,-0.03904,0.02928,-0.04392,-0.10248,-0.06832,-0.11224,-0.11224
-0.08296,0.0854,-0.08784,-0.04636,-0.00488,-0.03904,0.02928,-0.04392,-0.10248,-0.06832,-0.11224,-0.11224
-0.08296,0.0854,-0.08784,-0.04636,-0.00488,-0.03904,0.02928,-0.04392,-0.10736,-0.06832,-0.11224,-0.11224
-0.08296,0.0854,-0.08784,-0.04636,-0.00488,-0.03904,0.02928,-0.04392,-0.10736,-0.06832,-0.11224,-0.11224
-0.08296,0.0854,-0.08784,-0.04636,-0.00488,-0.03904,0.02928,-0.04392,-0.10248,-0.06344,-0.10736,-0.11712
-0.08296,0.0854,-0.08784,-0.04636,-0.00488,-0.03904,0.0244,-0.04392,-0.10248,-0.05856,-0.10248,-0.11712
-0.08296,0.0854,-0.08784,-0.04636,-0.00488,-0.03904,0.0244,-0.04392,-0.10248,-0.05368,-0.0976,-0.10736
-0.07808,0.07808,-0.07808,-0.03904,0,-0.03904,0.0244,-0.05368,-0.10248,-0.05368,-0.10248,-0.10248
-0.0732,0.07076,-0.06832,-0.03172,0.00488,-0.03904,0.01952,-0.05856,-0.10248,-0.05856,-0.10736,-0.10736
-0.08296,0.0854,-0.08784,-0.04636,-0.00488,-0.03904,0.01952,-0.05856,-0.11712,-0.06832,-0.122,-0.12688
-0.0976,0.0976,-0.0976,-0.0488,0,-0.0488,0.04392,-0.03416,-0.10736,-0.0732,-0.12688,-0.12688
-0.15128,0.12932,-0.10736,-0.03172,0.04392,-0.0976,0.0732,-0.00488,-0.06832,-0.06832,-0.14152,-0.1708
-0.18056,0.13908,-0.0976,-0.00732,0.08296,-0.13176,0.08784,0.01464,-0.03904,-0.04392,-0.12688,-0.16592
-0.13176,0.11956,-0.10736,-0.04148,0.0244,-0.07808,0.12688,0.10248,0,-0.00488,-0.08296,-0.122
-0.06832,0.06344,-0.05856,-0.0244,0.00976,-0.03904,0.13176,0.15616,0.06832,0.08296,0.01952,-0.0244
0.0732,-0.07076,0.06832,0.03172,-0.00488,0.03904,0.0488,0.11712,0.13664,0.20984,0.16104,0.14152
0.26352,-0.22936,0.1952,0.06344,-0.06832,0.16592,-0.08296,0.01464,0.1464,0.2928,0.28304,0.30256
0.50264,-0.42212,0.3416,0.09028,-0.16104,0.33184,-0.30744,-0.22448,0.06832,0.32696,0.38552,0.4636
0.732,-0.61,0.488,0.122,-0.244,0.488,-0.54656,-0.47336,-0.03904,0.3416,0.47824,0.61488
1.0492,-0.8784,0.7076,0.183,-0.3416,0.6954,-0.84912,-0.76128,-0.18056,0.41968,0.67832,0.91256
1.20536,-0.95648,0.7076,0.10492,-0.49776,0.85156,-0.99064,-0.91256,-0.38064,0.28304,0.60024,0.89304
1.11264,-0.77104,0.42944,-0.12688,-0.6832,0.89792,-0.88328,-0.8784,-0.66856,-0.19032,0.0732,0.38064
0.90768,-0.56852,0.22936,-0.22448,-0.67832,0.793,-0.71736,-0.78568,-0.79544,-0.47336,-0.27816,-0.00976
0.59048,-0.37332,0.15616,-0.13908,-0.43432,0.5124,-0.5124,-0.6344,-0.69784,-0.4636,-0.33672,-0.11224
0.3172,-0.20008,0.08296,-0.07564,-0.23424,0.27572,-0.34648,-0.47336,-0.60024,-0.44408,-0.366,-0.19032
0.15616,-0.08296,0.00976,-0.06832,-0.1464,0.15128,-0.20008,-0.28792,-0.47336,-0.366,-0.32208,-0.20008
0.0488,-0.0122,-0.0244,-0.0488,-0.0732,0.061,-0.09272,-0.15616,-0.35624,-0.28304,-0.26352,-0.18544
0.01464,0.00732,-0.02928,-0.0366,-0.04392,0.02928,-0.0488,-0.10248,-0.24888,-0.19032,-0.20008,-0.16104
-0.01464,0.0244,-0.03416,-0.02684,-0.01952,0.00244,-0.01464,-0.06344,-0.16104,-0.11712,-0.15128,-0.13176
-0.0244,0.02928,-0.03416,-0.02196,-0.00976,-0.00732,0.00488,-0.03904,-0.11712,-0.08296,-0.11712,-0.11224
-0.04392,0.03904,-0.03416,-0.0122,0.00976,-0.02684,0.01952,-0.0244,-0.08296,-0.05368,-0.08784,-0.0976
-0.0488,0.04148,-0.03416,-0.00976,0.01464,-0.03172,0.02928,-0.01952,-0.0732,-0.04392,-0.08296,-0.09272
-0.06832,0.05612,-0.04392,-0.00976,0.0244,-0.04636,0.03904,-0.01952,-0.06832,-0.03416,-0.08296,-0.08784
-0.0732,0.06344,-0.05368,-0.01708,0.01952,-0.04636,0.04392,-0.01464,-0.05856,-0.03416,-0.08296,-0.09272
-0.07808,0.0732,-0.06832,-0.02928,0.00976,-0.04392,0.04392,-0.01464,-0.05856,-0.03416,-0.08296,-0.09272
-0.07808,0.0732,-0.06832,-0.02928,0.00976,-0.04392,0.0488,-0.01464,-0.05368,-0.02928,-0.07808,-0.08784
-0.08784,0.07808,-0.06832,-0.0244,0.01952,-0.05368,0.0488,-0.00976,-0.03904,-0.01952,-0.06832,-0.08296
-0.08784,0.07564,-0.06344,-0.01952,0.0244,-0.05612,0.0488,-0.00976,-0.03904,-0.01952,-0.06832,-0.08296
-0.07808,0.06588,-0.05368,-0.01464,0.0244,-0.05124,0.0488,-0.00976,-0.03904,-0.01952,-0.06832,-0.08784
-0.06832,0.061,-0.05368,-0.01952,0.01464,-0.04148,0.0488,-0.00976,-0.03904,-0.0244,-0.07808,-0.09272
-0.05856,0.05856,-0.05856,-0.02928,0,-0.02928,0.0488,-0.00488,-0.03416,-0.0244,-0.08296,-0.09272
-0.0732,0.06588,-0.05856,-0.02196,0.01464,-0.04392,0.05368,0,-0.03416,-0.0244,-0.07808,-0.09272
-0.08296,0.07076,-0.05856,-0.01708,0.0244,-0.05368,0.05368,0.00976,-0.03416,-0.0244,-0.0732,-0.08784
-0.08296,0.06832,-0.05368,-0.0122,0.02928,-0.05612,0.05368,0.00976,-0.02928,-0.0244,-0.0732,-0.08296
-0.09272,0.0732,-0.05368,-0.00732,0.03904,-0.06588,0.05368,0.00976,-0.0244,-0.01952,-0.0732,-0.07808
-0.0732,0.06344,-0.05368,-0.01708,0.01952,-0.04636,0.05368,0.00976,-0.0244,-0.01952,-0.0732,-0.07808
-0.05856,0.05612,-0.05368,-0.0244,0.00488,-0.03172,0.05368,0.00976,-0.02928,-0.01952,-0.0732,-0.07808
-0.06832,0.061,-0.05368,-0.01952,0.01464,-0.04148,0.05368,0.00976,-0.02928,-0.01952,-0.06832,-0.07808
-0.07808,0.06588,-0.05368,-0.01464,0.0244,-0.05124,0.05368,0.01464,-0.0244,-0.01952,-0.05856,-0.0732
-0.08296,0.07076,-0.05856,-0.01708,0.0244,-0.05368,0.05368,0.01464,-0.0244,-0.01952,-0.05856,-0.0732
-0.08296,0.07076,-0.05856,-0.01708,0.0244,-0.05368,0.05368,0.01464,-0.0244,-0.01464,-0.05856,-0.0732
-0.07808,0.06588,-0.05368,-0.01464,0.0244,-0.05124,0.05368,0.01464,-0.0244,-0.01464,-0.05856,-0.0732
-0.07808,0.06344,-0.0488,-0.00976,0.02928,-0.05368,0.05368,0.01464,-0.01952,-0.00976,-0.05368,-0.0732
-0.0732,0.061,-0.0488,-0.0122,0.0244,-0.0488,0.05368,0.0244,-0.01952,-0.00976,-0.05368,-0.0732
-0.06344,0.05612,-0.0488,-0.01708,0.01464,-0.03904,0.05368,0.0244,-0.01952,-0.00976,-0.05368,-0.0732
-0.06344,0.05612,-0.0488,-0.01708,0.01464,-0.03904,0.05368,0.01952,-0.01952,-0.00976,-0.05368,-0.0732
-0.05856,0.05124,-0.04392,-0.01464,0.01464,-0.0366,0.05368,0.01952,-0.01464,-0.00488,-0.05368,-0.06832
-0.0488,0.04636,-0.04392,-0.01952,0.00488,-0.02684,0.05368,0.0244,-0.01464,0,-0.0488,-0.06832
-0.06344,0.05368,-0.04392,-0.0122,0.01952,-0.04148,0.05368,0.02928,-0.01464,0.00488,-0.0488,-0.06832
-0.06344,0.0488,-0.03416,-0.00244,0.02928,-0.04636,0.0488,0.02928,-0.00976,0.00976,-0.0488,-0.06344
-0.0488,0.03904,-0.02928,-0.00488,0.01952,-0.03416,0.0488,0.02928,-0.00976,0.00976,-0.04392,-0.06344
-0.04392,0.0366,-0.02928,-0.00732,0.01464,-0.02928,0.0488,0.02928,-0.00976,0.00976,-0.04392,-0.06344
-0.04392,0.03416,-0.0244,-0.00244,0.01952,-0.03172,0.0488,0.02928,-0.00488,0.01464,-0.03904,-0.05856
-0.04392,0.03172,-0.01952,0.00244,0.0244,-0.03416,0.04392,0.03416,-0.00488,0.01464,-0.03904,-0.05856
-0.0488,0.03416,-0.01952,0.00488,0.02928,-0.03904,0.04392,0.03416,-0.00488,0.01952,-0.03904,-0.05856
-0.04392,0.03416,-0.0244,-0.00244,0.01952,-0.03172,0.04392,0.03416,-0.00488,0.01464,-0.03904,-0.05856
-0.03904,0.03172,-0.0244,-0.00488,0.01464,-0.02684,0.04392,0.03416,0,0.01464,-0.04392,-0.06344
-0.03904,0.03172,-0.0244,-0.00488,0.01464,-0.02684,0.04392,0.03904,0,0.01464,-0.03904,-0.05856
-0.03416,0.0244,-0.01464,0.00244,0.01952,-0.02684,0.03416,0.03904,0.00488,0.00976,-0.03904,-0.05368
-0.02928,0.01952,-0.00976,0.00488,0.01952,-0.0244,0.03416,0.03904,0.00488,0.01464,-0.02928,-0.0488
-0.0244,0.01708,-0.00976,0.00244,0.01464,-0.01952,0.02928,0.04392,0.00976,0.01952,-0.0244,-0.04392
-0.01464,0.0122,-0.00976,-0.00244,0.00488,-0.00976,0.02928,0.04392,0.00976,0.02928,-0.01952,-0.03904
-0.00488,0.00244,0,0.00244,0.00488,-0.00488,0.02928,0.04392,0.01464,0.03904,-0.00976,-0.02928
0.00976,-0.00732,0.00488,0,-0.00488,0.00732,0.0244,0.04392,0.01464,0.03904,0,-0.0244
0.00976,-0.00976,0.00976,0.00488,0,0.00488,0.02928,0.04392,0.01952,0.05368,0.00488,-0.01464
0.00976,-0.0122,0.01464,0.00976,0.00488,0.00244,0.0244,0.0488,0.0244,0.05368,0.00976,-0.00976
-0.00488,-0.00976,0.0244,0.02684,0.02928,-0.01708,0.01952,0.0488,0.0244,0.05856,0.01952,0
0.03904,-0.0366,0.03416,0.01464,-0.00488,0.02196,0.01464,0.04392,0.02928,0.06344,0.02928,0.00488
0.06344,-0.05124,0.03904,0.00732,-0.0244,0.04392,0.00488,0.04392,0.03416,0.0732,0.03416,0.01952
0.06832,-0.05612,0.04392,0.00976,-0.0244,0.04636,0,0.0488,0.03416,0.07808,0.03904,0.01952
0.06344,-0.05612,0.0488,0.01708,-0.01464,0.03904,-0.00488,0.0488,0.03416,0.08296,0.03904,0.01952
0.0732,-0.06832,0.06344,0.02684,-0.00976,0.04148,-0.01464,0.04392,0.03904,0.08784,0.04392,0.02928
0.0976,-0.0854,0.0732,0.0244,-0.0244,0.061,-0.01952,0.04392,0.03904,0.09272,0.05368,0.03904
0.0976,-0.08784,0.07808,0.02928,-0.01952,0.05856,-0.0244,0.04392,0.03904,0.0976,0.05856,0.04392
0.10736,-0.09516,0.08296,0.02928,-0.0244,0.06588,-0.03416,0.03416,0.03904,0.0976,0.06344,0.04392
0.11712,-0.10736,0.0976,0.03904,-0.01952,0.06832,-0.04392,0.02928,0.03904,0.10736,0.0732,0.05368
0.14152,-0.12444,0.10736,0.0366,-0.03416,0.08784,-0.05368,0.01952,0.03904,0.11224,0.07808,0.05368
0.14152,-0.12444,0.10736,0.0366,-0.03416,0.08784,-0.06344,0.01952,0.0244,0.11224,0.07808,0.05856
0.14152,-0.12444,0.10736,0.0366,-0.03416,0.08784,-0.0732,0.01464,0.0244,0.11224,0.07808,0.05856
0.15616,-0.13664,0.11712,0.03904,-0.03904,0.0976,-0.07808,0.00976,0.0244,0.11224,0.0732,0.05856
0.15616,-0.13664,0.11712,0.03904,-0.03904,0.0976,-0.07808,0.00976,0.01952,0.10736,0.06832,0.05856
0.16104,-0.1342,0.10736,0.02684,-0.05368,0.10736,-0.08296,0.00488,0.01952,0.09272,0.06344,0.05368
0.16104,-0.12932,0.0976,0.01708,-0.06344,0.11224,-0.08296,0,0.01952,0.08784,0.06344,0.05368
0.16592,-0.14152,0.11712,0.03416,-0.0488,0.10736,-0.09272,-0.00976,0.01464,0.08296,0.06344,0.05856
0.16592,-0.14884,0.13176,0.0488,-0.03416,0.10004,-0.09272,-0.00976,0.01464,0.08296,0.05856,0.06344
0.16592,-0.14396,0.122,0.03904,-0.04392,0.10492,-0.09272,-0.00976,0.00976,0.08296,0.05856,0.05368
0.16104,-0.13908,0.11712,0.0366,-0.04392,0.10248,-0.09272,-0.01464,0.00488,0.0732,0.05368,0.05368
0.15616,-0.13664,0.11712,0.03904,-0.03904,0.0976,-0.0976,-0.01952,0.00488,0.06832,0.0488,0.0488
0.1464,-0.13176,0.11712,0.04392,-0.02928,0.08784,-0.0976,-0.02928,0.00488,0.06344,0.0488,0.04392
0.13176,-0.11956,0.10736,0.04148,-0.0244,0.07808,-0.08784,-0.02928,0.00488,0.06344,0.04392,0.03904
0.11224,-0.10736,0.10248,0.04636,-0.00976,0.061,-0.08296,-0.02928,0,0.06344,0.04392,0.03416
0.122,-0.11224,0.10248,0.04148,-0.01952,0.07076,-0.07808,-0.03416,-0.00488,0.06344,0.03904,0.03416
0.11224,-0.10004,0.08784,0.03172,-0.0244,0.06832,-0.07808,-0.03904,-0.00976,0.06344,0.03416,0.02928
0.10248,-0.09028,0.07808,0.02684,-0.0244,0.06344,-0.0732,-0.03904,-0.01464,0.05856,0.02928,0.02928
0.08784,-0.08052,0.0732,0.02928,-0.01464,0.05124,-0.06344,-0.03416,-0.01464,0.05368,0.01952,0.01952
0.0488,-0.0488,0.0488,0.0244,0,0.0244,-0.05856,-0.03416,-0.01464,0.04392,0.00976,0.01464
0.03416,-0.03416,0.03416,0.01708,0,0.01708,-0.05856,-0.03416,-0.01952,0.03416,0,0.00488
0.04392,-0.04392,0.04392,0.02196,0,0.02196,-0.04392,-0.03416,-0.01952,0.0244,-0.00488,0
0.0488,-0.0488,0.0488,0.0244,0,0.0244,-0.03904,-0.03904,-0.0244,0.0244,-0.01464,-0.00488
0.03416,-0.0366,0.03904,0.02196,0.00488,0.01464,-0.02928,-0.03904,-0.0244,0.0244,-0.00976,-0.00976
0.01952,-0.02684,0.03416,0.0244,0.01464,0.00244,-0.02928,-0.03904,-0.0244,0.01952,-0.00488,-0.00976
0.00488,-0.01708,0.02928,0.02684,0.0244,-0.00976,-0.0244,-0.03416,-0.0244,0.01952,-0.00488,-0.01952
0,-0.00976,0.01952,0.01952,0.01952,-0.00976,-0.01464,-0.02928,-0.02928,0.00976,-0.00976,-0.0244
-0.00976,0.00244,0.00488,0.00976,0.01464,-0.0122,-0.00976,-0.02928,-0.03416,0.00976,-0.0244,-0.03416
-0.00976,0.00488,0,0.00488,0.00976,-0.00976,-0.00488,-0.02928,-0.03416,0,-0.0244,-0.03904
0,0,0,0,0,0,-0.00488,-0.02928,-0.03904,0,-0.0244,-0.03904
-0.00976,0.00488,0,0.00488,0.00976,-0.00976,-0.00488,-0.02928,-0.03904,0,-0.02928,-0.03904
-0.01952,0.01464,-0.00976,0,0.00976,-0.01464,-0.00488,-0.03416,-0.03904,0,-0.02928,-0.03416
-0.01952,0.01464,-0.00976,0,0.00976,-0.01464,-0.00488,-0.03904,-0.03904,0,-0.02928,-0.03416
-0.02928,0.01952,-0.00976,0.00488,0.01952,-0.0244,-0.00488,-0.03904,-0.03904,0,-0.02928,-0.03904
-0.03904,0.02684,-0.01464,0.00488,0.0244,-0.03172,-0.00488,-0.03904,-0.04392,-0.00976,-0.03416,-0.03904
-0.03904,0.02928,-0.01952,0,0.01952,-0.02928,-0.00488,-0.03416,-0.04392,-0.01464,-0.03904,-0.0488
-0.03904,0.02928,-0.01952,0,0.01952,-0.02928,-0.00976,-0.02928,-0.04392,-0.01464,-0.04392,-0.05368
-0.03904,0.02684,-0.01464,0.00488,0.0244,-0.03172,-0.00976,-0.02928,-0.04392,-0.01464,-0.0488,-0.0488
-0.04392,0.0366,-0.02928,-0.00732,0.01464,-0.02928,-0.00976,-0.02928,-0.04392,-0.01464,-0.05368,-0.0488
-0.04392,0.0366,-0.02928,-0.00732,0.01464,-0.02928,-0.00488,-0.02928,-0.04392,-0.01952,-0.05856,-0.05368
-0.04392,0.03416,-0.0244,-0.00244,0.01952,-0.03172,-0.00488,-0.02928,-0.04392,-0.01952,-0.05856,-0.05856
-0.04392,0.03172,-0.01952,0.00244,0.0244,-0.03416,-0.00488,-0.02928,-0.04392,-0.01464,-0.05856,-0.05856
-0.04392,0.03172,-0.01952,0.00244,0.0244,-0.03416,-0.00488,-0.02928,-0.04392,-0.01464,-0.05856,-0.05368
-0.04392,0.03172,-0.01952,0.00244,0.0244,-0.03416,-0.00488,-0.02928,-0.04392,-0.01464,-0.05856,-0.05368
-0.04392,0.02928,-0.01464,0.00732,0.02928,-0.0366,-0.00976,-0.02928,-0.03904,-0.01464,-0.05368,-0.0488
-0.03904,0.02684,-0.01464,0.00488,0.0244,-0.03172,-0.00976,-0.02928,-0.03904,-0.01464,-0.05368,-0.0488
-0.03904,0.02684,-0.01464,0.00488,0.0244,-0.03172,-0.00976,-0.0244,-0.03416,-0.00976,-0.0488,-0.0488
-0.03904,0.02684,-0.01464,0.00488,0.0244,-0.03172,0.00488,-0.01952,-0.03416,-0.00976,-0.04392,-0.03904
-0.03904,0.02684,-0.01464,0.00488,0.0244,-0.03172,-0.00488,-0.01952,-0.03416,-0.00976,-0.03904,-0.03416
-0.03904,0.02928,-0.01952,0,0.01952,-0.02928,-0.00488,-0.01952,-0.03416,-0.00488,-0.03416,-0.02928
-0.03904,0.02928,-0.01952,0,0.01952,-0.02928,-0.00488,-0.01952,-0.02928,-0.00488,-0.02928,-0.02928
-0.03904,0.02928,-0.01952,0,0.01952,-0.02928,0,-0.01952,-0.0244,0,-0.02928,-0.02928
-0.03904,0.02684,-0.01464,0.00488,0.0244,-0.03172,0,-0.01952,-0.0244,0,-0.02928,-0.02928
-0.04392,0.02928,-0.01464,0.00732,0.02928,-0.0366,0,-0.01952,-0.0244,0.00488,-0.01952,-0.0244
-0.0488,0.03172,-0.01464,0.00976,0.03416,-0.04148,0,-0.01464,-0.0244,0.00488,-0.01952,-0.0244
-0.03904,0.02684,-0.01464,0.00488,0.0244,-0.03172,-0.00488,-0.01464,-0.01952,0.00976,-0.0244,-0.02928
-0.0488,0.03416,-0.01952,0.00488,0.02928,-0.03904,-0.00488,-0.01952,-0.01952,0.00976,-0.0244,-0.03416
-0.04392,0.03172,-0.01952,0.00244,0.0244,-0.03416,-0.00488,-0.01952,-0.01952,0.00976,-0.01952,-0.02928
-0.02928,0.01952,-0.00976,0.00488,0.01952,-0.0244,0,-0.01464,-0.01464,0.01952,-0.01464,-0.01952
-0.02928,0.01952,-0.00976,0.00488,0.01952,-0.0244,0,-0.01464,-0.01464,0.01952,-0.00976,-0.01952
-0.02928,0.01952,-0.00976,0.00488,0.01952,-0.0244,-0.00488,-0.01464,-0.01464,0.01952,-0.00976,-0.01952
-0.02928,0.01708,-0.00488,0.00976,0.0244,-0.02684,-0.00488,-0.01464,-0.01464,0.01952,-0.00976,-0.01952
-0.02928,0.01708,-0.00488,0.00976,0.0244,-0.02684,-0.00488,-0.01464,-0.00976,0.0244,-0.00488,-0.01464
-0.02928,0.01464,0,0.01464,0.02928,-0.02928,-0.00488,-0.01464,-0.00976,0.0244,-0.00488,-0.01464
-0.02928,0.0122,0.00488,0.01952,0.03416,-0.03172,-0.00488,-0.01464,-0.00976,0.0244,-0.00488,-0.01952
-0.02928,0.0122,0.00488,0.01952,0.03416,-0.03172,-0.00488,-0.01464,-0.00488,0.02928,0,-0.01464
-0.02928,0.0122,0.00488,0.01952,0.03416,-0.03172,-0.00488,-0.01464,0,0.03904,0.00488,-0.00976
-0.02928,0.00976,0.00976,0.0244,0.03904,-0.03416,-0.00488,-0.01464,0,0.03904,0.00488,-0.00976
-0.02928,0.00976,0.00976,0.0244,0.03904,-0.03416,-0.00488,-0.01464,0,0.03904,0.00488,-0.00976
-0.02928,0.0122,0.00488,0.01952,0.03416,-0.03172,-0.00488,-0.01952,0,0.02928,0.00488,-0.00976
-0.01952,0.00732,0.00488,0.01464,0.0244,-0.02196,-0.00976,-0.01952,-0.00488,0.0244,0.00488,-0.00976
-0.01952,0.00488,0.00976,0.01952,0.02928,-0.0244,-0.00976,-0.01952,-0.00488,0.0244,0.00488,-0.00488
-0.00976,0,0.00976,0.01464,0.01952,-0.01464,-0.00488,-0.01952,-0.00488,0.0244,0.00488,0.00488
-0.03416,0.01708,0,0.01708,0.03416,-0.03416,-0.00488,-0.01464,-0.00488,0.0244,0.00488,0.00488
-0.0244,0.00732,0.00976,0.02196,0.03416,-0.02928,-0.00488,-0.01464,-0.00488,0.0244,0.00976,0.00488
-0.01952,0.00488,0.00976,0.01952,0.02928,-0.0244,-0.00488,-0.01464,-0.00976,0.0244,0.00976,0.00488
-0.01952,0.00732,0.00488,0.01464,0.0244,-0.02196,-0.00488,-0.01464,-0.00976,0.01952,0,0.00488
-0.0244,0.0122,0,0.0122,0.0244,-0.0244,-0.00488,-0.0244,-0.00976,0.01952,0,0
-0.0244,0.01464,-0.00488,0.00732,0.01952,-0.02196,-0.00488,-0.0244,-0.00976,0.01952,0,0
-0.0244,0.01464,-0.00488,0.00732,0.01952,-0.02196,-0.00488,-0.02928,-0.00976,0.00976,-0.00488,0
-0.0244,0.01952,-0.01464,-0.00244,0.00976,-0.01708,-0.00976,-0.02928,-0.01464,0.00976,-0.00976,-0.00488
-0.01952,0.01952,-0.01952,-0.00976,0,-0.00976,-0.00976,-0.02928,-0.01464,0.00976,-0.00976,-0.00976
-0.00976,0.0122,-0.01464,-0.00976,-0.00488,-0.00244,-0.00488,-0.02928,-0.01952,0.00976,-0.00976,-0.00976
-0.02928,0.01708,-0.00488,0.00976,0.0244,-0.02684,-0.00488,-0.02928,-0.01464,0.00976,-0.00976,-0.00488
-0.0488,0.02684,-0.00488,0.01952,0.04392,-0.04636,-0.00488,-0.02928,-0.01464,0.00976,-0.00976,-0.00488
-0.03904,0.0244,-0.00976,0.00976,0.02928,-0.03416,-0.00488,-0.03416,-0.01464,0.00488,-0.01464,-0.01952
-0.02928,0.01952,-0.00976,0.00488,0.01952,-0.0244,-0.00488,-0.03416,-0.01464,0.00488,-0.01464,-0.01952
-0.0244,0.01464,-0.00488,0.00732,0.01952,-0.02196,-0.00488,-0.02928,-0.01464,0.00976,-0.01464,-0.00488
-0.01952,0.0122,-0.00488,0.00488,0.01464,-0.01708,-0.00488,-0.0244,-0.01952,0.00488,-0.01464,-0.01952
-0.03416,0.0244,-0.01464,0.00244,0.01952,-0.02684,0,-0.03416,-0.01952,-0.00488,-0.0244,-0.01952
-0.03904,0.03172,-0.0244,-0.00488,0.01464,-0.02684,0,-0.04392,-0.01952,-0.00488,-0.03416,-0.01952
-0.03904,0.03172,-0.0244,-0.00488,0.01464,-0.02684,0,-0.04392,-0.01952,-0.00488,-0.02928,-0.01952
-0.02928,0.02684,-0.0244,-0.00976,0.00488,-0.01708,0,-0.03904,-0.0244,-0.00488,-0.02928,-0.01952
-0.03904,0.03172,-0.0244,-0.00488,0.01464,-0.02684,0,-0.03416,-0.02928,-0.00488,-0.03416,-0.0244
-0.03904,0.03172,-0.0244,-0.00488,0.01464,-0.02684,0,-0.02928,-0.03416,-0.00488,-0.03416,-0.01952
-0.04392,0.03416,-0.0244,-0.00244,0.01952,-0.03172,0,-0.02928,-0.03416,-0.00488,-0.02928,-0.01952
-0.05856,0.04148,-0.0244,0.00488,0.03416,-0.04636,0,-0.02928,-0.03416,-0.00488,-0.0244,-0.01952
-0.0488,0.0366,-0.0244,0,0.0244,-0.0366,0,-0.02928,-0.03904,-0.00976,-0.02928,-0.01952
-0.0488,0.03904,-0.02928,-0.00488,0.01952,-0.03416,0,-0.02928,-0.03904,-0.00976,-0.02928,-0.0244
-0.04392,0.0366,-0.02928,-0.00732,0.01464,-0.02928,0,-0.02928,-0.03904,-0.00976,-0.0244,-0.02928
-0.03904,0.03416,-0.02928,-0.00976,0.00976,-0.0244,0,-0.02928,-0.03904,-0.01464,-0.01952,-0.01952
-0.04392,0.03904,-0.03416,-0.0122,0.00976,-0.02684,0,-0.02928,-0.03416,-0.01464,-0.0244,-0.02928
-0.04392,0.03904,-0.03416,-0.0122,0.00976,-0.02684,0,-0.0244,-0.02928,-0.00976,-0.0244,-0.02928
-0.05368,0.04148,-0.02928,-0.00244,0.0244,-0.03904,0,-0.0244,-0.02928,-0.00976,-0.0244,-0.0244
-0.05856,0.03904,-0.01952,0.00976,0.03904,-0.0488,0,-0.0244,-0.02928,-0.01464,-0.01952,-0.01952
-0.0488,0.03416,-0.01952,0.00488,0.02928,-0.03904,0,-0.02928,-0.02928,-0.01464,-0.01952,-0.01952
-0.03904,0.03416,-0.02928,-0.00976,0.00976,-0.0244,0,-0.03416,-0.02928,-0.01464,-0.02928,-0.02928
-0.03904,0.03416,-0.02928,-0.00976,0.00976,-0.0244,0,-0.03904,-0.03416,-0.01464,-0.03416,-0.03416
-0.0488,0.0366,-0.0244,0,0.0244,-0.0366,0,-0.03904,-0.03416,-0.01464,-0.0244,-0.03904
-0.0488,0.04148,-0.03416,-0.00976,0.01464,-0.03172,-0.00488,-0.03416,-0.03416,-0.0244,-0.04392,-0.04392
-0.05368,0.0488,-0.04392,-0.01708,0.00976,-0.03172,-0.00488,-0.03416,-0.03904,-0.03904,-0.05368,-0.0488
-0.0488,0.03904,-0.02928,-0.00488,0.01952,-0.03416,0,-0.02928,-0.02928,-0.01952,-0.03416,-0.03416
-0.04392,0.02928,-0.01464,0.00732,0.02928,-0.0366,0,-0.02928,-0.0244,-0.00488,-0.01952,-0.0244
-0.02928,0.01952,-0.00976,0.00488,0.01952,-0.0244,0,-0.02928,-0.0244,-0.00488,-0.01464,-0.01952
-0.01952,0.01464,-0.00976,0,0.00976,-0.01464,0,-0.02928,-0.02928,-0.00976,-0.00976,-0.01952
-0.02928,0.0244,-0.01952,-0.00488,0.00976,-0.01952,0,-0.02928,-0.02928,-0.01464,-0.01952,-0.01952
-0.03904,0.03416,-0.02928,-0.00976,0.00976,-0.0244,0,-0.02928,-0.02928,-0.01952,-0.02928,-0.01952
-0.03904,0.0366,-0.03416,-0.01464,0.00488,-0.02196,0,-0.02928,-0.02928,-0.01952,-0.02928,-0.01952
-0.03904,0.03904,-0.03904,-0.01952,0,-0.01952,0,-0.02928,-0.02928,-0.01952,-0.02928,-0.01952
-0.03904,0.03904,-0.03904,-0.01952,0,-0.01952,0,-0.02928,-0.02928,-0.01952,-0.02928,-0.02928
-0.03904,0.03904,-0.03904,-0.01952,0,-0.01952,0,-0.02928,-0.02928,-0.01952,-0.02928,-0.03904
-0.03904,0.03904,-0.03904,-0.01952,0,-0.01952,0,-0.02928,-0.02928,-0.01952,-0.02928,-0.02928
-0.03904,0.03904,-0.03904,-0.01952,0,-0.01952,0,-0.02928,-0.02928,-0.01952,-0.02928,-0.01952
-0.0488,0.04392,-0.03904,-0.01464,0.00976,-0.02928,0,-0.02928,-0.02928,-0.01952,-0.02928,-0.01952
-0.05856,0.0488,-0.03904,-0.00976,0.01952,-0.03904,0,-0.02928,-0.02928,-0.01952,-0.02928,-0.01952
-0.06832,0.05368,-0.03904,-0.00488,0.02928,-0.0488,0,-0.02928,-0.02928,-0.01952,-0.02928,-0.01952
-0.07808,0.05856,-0.03904,0,0.03904,-0.05856,0,-0.02928,-0.02928,-0.01952,-0.02928,-0.01952
-0.06344,0.05124,-0.03904,-0.00732,0.0244,-0.04392,0,-0.02928,-0.02928,-0.01952,-0.0244,-0.01952
-0.0488,0.04392,-0.03904,-0.01464,0.00976,-0.02928,0,-0.02928,-0.02928,-0.01952,-0.01952,-0.01952
-0.0488,0.04392,-0.03904,-0.01464,0.00976,-0.02928,0,-0.02928,-0.02928,-0.01952,-0.01952,-0.01952
-0.0488,0.04392,-0.03904,-0.01464,0.00976,-0.02928,0,-0.02928,-0.02928,-0.01952,-0.01952,-0.01952
-0.0488,0.04392,-0.03904,-0.01464,0.00976,-0.02928,0,-0.02928,-0.02928,-0.01952,-0.01952,-0.01952
-0.0488,0.04392,-0.03904,-0.01464,0.00976,-0.02928,0,-0.02928,-0.02928,-0.01952,-0.01952,-0.01952
-0.05368,0.04636,-0.03904,-0.0122,0.01464,-0.03416,0,-0.02928,-0.0244,-0.01952,-0.01952,-0.01464
-0.05856,0.0488,-0.03904,-0.00976,0.01952,-0.03904,0,-0.02928,-0.01952,-0.01952,-0.01952,-0.00976
-0.05856,0.0488,-0.03904,-0.00976,0.01952,-0.03904,0,-0.02928,-0.01952,-0.01952,-0.01952,-0.00976
-0.05856,0.0488,-0.03904,-0.00976,0.01952,-0.03904,0,-0.02928,-0.01952,-0.01952,-0.01952,-0.00976
-0.05856,0.0488,-0.03904,-0.00976,0.01952,-0.03904,-0.00488,-0.02928,-0.0244,-0.0244,-0.01952,-0.01464
-0.05856,0.0488,-0.03904,-0.00976,0.01952,-0.03904,-0.00976,-0.02928,-0.02928,-0.02928,-0.01952,-0.01952
-0.0488,0.04392,-0.03904,-0.01464,0.00976,-0.02928,-0.00976,-0.02928,-0.02928,-0.02928,-0.01952,-0.01952
-0.03904,0.03904,-0.03904,-0.01952,0,-0.01952,-0.00976,-0.02928,-0.02928,-0.02928,-0.01952,-0.01952
-0.03904,0.03416,-0.02928,-0.00976,0.00976,-0.0244,-0.00976,-0.02928,-0.0244,-0.0244,-0.01952,-0.01952
-0.03904,0.02928,-0.01952,0,0.01952,-0.02928,-0.00976,-0.02928,-0.01952,-0.01952,-0.01952,-0.01952
-0.03904,0.03416,-0.02928,-0.00976,0.00976,-0.0244,-0.00976,-0.02928,-0.01952,-0.01952,-0.0244,-0.01952
-0.03904,0.03904,-0.03904,-0.01952,0,-0.01952,-0.00976,-0.02928,-0.01952,-0.01952,-0.02928,-0.01952
-0.04392,0.04148,-0.03904,-0.01708,0.00488,-0.0244,-0.00488,-0.0244,-0.01952,-0.01952,-0.02928,-0.01952
-0.0488,0.04392,-0.03904,-0.01464,0.00976,-0.02928,0,-0.01952,-0.01952,-0.01952,-0.02928,-0.01952
-0.0488,0.03904,-0.02928,-0.00488,0.01952,-0.03416,0,-0.01952,-0.00976,-0.01952,-0.01464,-0.00976
-0.0488,0.03416,-0.01952,0.00488,0.02928,-0.03904,0,-0.01952,0,-0.01952,0,0
-0.03904,0.0244,-0.00976,0.00976,0.02928,-0.03416,0,-0.01464,0.00488,-0.00976,0,0.00488
-0.02928,0.01464,0,0.01464,0.02928,-0.02928,0,-0.00976,0.00976,0,0,0.00976
-0.02928,0.01464,0,0.01464,0.02928,-0.02928,0,-0.00976,0.00976,0,0,0.00976
-0.02928,0.01464,0,0.01464,0.02928,-0.02928,0,-0.00976,0.00976,0,0,0.00976
-0.02928,0.01464,0,0.01464,0.02928,-0.02928,0,-0.00488,0.0244,0.00976,0.01464,0.01464
-0.02928,0.01464,0,0.01464,0.02928,-0.02928,0,0,0.03904,0.01952,0.02928,0.01952
-0.02928,0.01464,0,0.01464,0.02928,-0.02928,0,0.00488,0.03904,0.01952,0.02928,0.01952
-0.02928,0.01464,0,0.01464,0.02928,-0.02928,0,0.00976,0.03904,0.01952,0.02928,0.01952
-0.0244,0.00732,0.00976,0.02196,0.03416,-0.02928,-0.00488,0.00976,0.04392,0.01952,0.02928,0.01952
-0.00976,-0.00488,0.01952,0.0244,0.02928,-0.01952,-0.01464,0.00488,0.04392,0.0244,0.03416,0.0244
0.00488,-0.01708,0.02928,0.02684,0.0244,-0.00976,-0.0244,0.00488,0.0488,0.02928,0.03904,0.02928
0.01952,-0.02928,0.03904,0.02928,0.01952,0,-0.04392,-0.00488,0.0488,0.03416,0.04392,0.03904
0.0244,-0.03416,0.04392,0.03172,0.01952,0.00244,-0.0488,-0.01952,0.0488,0.03904,0.04392,0.04392
0.03416,-0.04636,0.05856,0.04148,0.0244,0.00488,-0.06344,-0.03904,0.0488,0.04392,0.0488,0.05856
0.04392,-0.0488,0.05368,0.03172,0.00976,0.01708,-0.0732,-0.0488,0.03904,0.04392,0.0488,0.0488
0.0244,-0.02928,0.03416,0.02196,0.00976,0.00732,-0.07808,-0.0488,0.01952,0.0244,0.03416,0.02928
0.01464,-0.01952,0.0244,0.01708,0.00976,0.00244,-0.07808,-0.0488,0,0.00976,0.0244,0.03416
0.00976,-0.01708,0.0244,0.01952,0.01464,-0.00244,-0.0732,-0.03904,0,0.00976,0.0244,0.0488
0.00488,-0.01464,0.0244,0.02196,0.01952,-0.00732,-0.0732,-0.03904,0,0.00976,0.02928,0.0488
0.00488,-0.00732,0.00976,0.00732,0.00488,0,-0.06832,-0.03904,-0.00976,0,0.03416,0.0488
0.00488,-0.00488,0.00488,0.00244,0,0.00244,-0.06832,-0.04392,-0.0244,-0.01464,0.0244,0.03416
0,-0.00244,0.00488,0.00488,0.00488,-0.00244,-0.06344,-0.0488,-0.02928,-0.0244,0.01952,0.0244
-0.00488,0.00732,-0.00976,-0.00732,-0.00488,0,-0.05856,-0.05368,-0.03416,-0.02928,0.00976,0.01952
-0.01952,0.02684,-0.03416,-0.0244,-0.01464,-0.00244,-0.0488,-0.0488,-0.03416,-0.03904,0.00488,0.01464
-0.03416,0.04148,-0.0488,-0.03172,-0.01464,-0.00976,-0.03904,-0.03904,-0.03416,-0.03904,0.00488,0.00976
-0.04392,0.0488,-0.05368,-0.03172,-0.00976,-0.01708,-0.0244,-0.0244,-0.02928,-0.03416,0.00488,0.00976
-0.04392,0.0488,-0.05368,-0.03172,-0.00976,-0.01708,-0.01464,-0.01952,-0.0244,-0.03416,-0.00488,0.00488
-0.05368,0.05856,-0.06344,-0.0366,-0.00976,-0.02196,-0.00488,-0.00976,-0.02928,-0.03904,-0.01464,0
-0.05368,0.06588,-0.07808,-0.05124,-0.0244,-0.01464,0,-0.01464,-0.04392,-0.06344,-0.02928,-0.01952
-0.0732,0.07808,-0.08296,-0.04636,-0.00976,-0.03172,0.00488,-0.0244,-0.0488,-0.07808,-0.03904,-0.02928
-0.07808,0.07808,-0.07808,-0.03904,0,-0.03904,0.00488,-0.0244,-0.04392,-0.06344,-0.03416,-0.02928
-0.08296,0.08296,-0.08296,-0.04148,0,-0.04148,0.00488,-0.02928,-0.04392,-0.0488,-0.03904,-0.02928
-0.08296,0.08296,-0.08296,-0.04148,0,-0.04148,0.00488,-0.03416,-0.0488,-0.06344,-0.03904,-0.02928
-0.08784,0.0854,-0.08296,-0.03904,0.00488,-0.04636,0.00488,-0.03416,-0.0488,-0.0732,-0.03904,-0.02928
-0.08784,0.09272,-0.0976,-0.05368,-0.00976,-0.03904,0.00488,-0.03416,-0.05368,-0.07808,-0.0488,-0.03416
-0.08784,0.09516,-0.10248,-0.05856,-0.01464,-0.0366,0,-0.02928,-0.05856,-0.08784,-0.06344,-0.04392
-0.08784,0.09516,-0.10248,-0.05856,-0.01464,-0.0366,0,-0.02928,-0.05856,-0.08784,-0.06344,-0.0488
-0.08784,0.09272,-0.0976,-0.05368,-0.00976,-0.03904,0,-0.03416,-0.05856,-0.08784,-0.06344,-0.05368
-0.08784,0.09028,-0.09272,-0.0488,-0.00488,-0.04148,0.00488,-0.03416,-0.05856,-0.09272,-0.06344,-0.05368
-0.08784,0.09028,-0.09272,-0.0488,-0.00488,-0.04148,0.00976,-0.03416,-0.05856,-0.0976,-0.06344,-0.05368
-0.09272,0.09516,-0.0976,-0.05124,-0.00488,-0.04392,0.00976,-0.03416,-0.05368,-0.0976,-0.05856,-0.0488
-0.09272,0.09516,-0.0976,-0.05124,-0.00488,-0.04392,0.00976,-0.03416,-0.05368,-0.0976,-0.05368,-0.04392
-0.09272,0.09516,-0.0976,-0.05124,-0.00488,-0.04392,0.00976,-0.03416,-0.05856,-0.08784,-0.0488,-0.03904
-0.09272,0.09516,-0.0976,-0.05124,-0.00488,-0.04392,0.00976,-0.03416,-0.05856,-0.07808,-0.04392,-0.03416
-0.0976,0.0976,-0.0976,-0.0488,0,-0.0488,0.00976,-0.03416,-0.05368,-0.0732,-0.03904,-0.03904
-0.10248,0.10004,-0.0976,-0.04636,0.00488,-0.05368,0.00488,-0.03416,-0.05368,-0.0732,-0.03904,-0.03904
-0.10248,0.10004,-0.0976,-0.04636,0.00488,-0.05368,0.00488,-0.0244,-0.0488,-0.0732,-0.03904,-0.03904
-0.10248,0.10004,-0.0976,-0.04636,0.00488,-0.05368,0.00976,-0.01952,-0.04392,-0.0732,-0.04392,-0.0488
-0.10248,0.10004,-0.0976,-0.04636,0.00488,-0.05368,0.01952,-0.01952,-0.03904,-0.0732,-0.0488,-0.05856
-0.11224,0.1098,-0.10736,-0.05124,0.00488,-0.05856,0.03904,-0.00488,-0.03416,-0.06832,-0.05856,-0.07808
-0.10248,0.0976,-0.09272,-0.04148,0.00976,-0.05612,0.06344,0.03416,0,-0.0488,-0.03416,-0.04392
-0.09272,0.08052,-0.06832,-0.02196,0.0244,-0.05856,0.06832,0.06344,0.05368,0,0.01464,-0.00976
-0.0488,0.02684,-0.00488,0.01952,0.04392,-0.04636,0.04392,0.06832,0.0976,0.07808,0.10248,0.07808
0.08296,-0.0732,0.06344,0.02196,-0.01952,0.05124,0.00976,0.0976,0.1464,0.1708,0.21472,0.20984
0.21472,-0.20252,0.19032,0.08296,-0.0244,0.11956,-0.0732,0.05856,0.1952,0.28792,0.366,0.3904
0.40016,-0.38308,0.366,0.16592,-0.03416,0.21716,-0.25376,-0.11224,0.18544,0.38064,0.52216,0.60024
0.60512,-0.56608,0.52704,0.22448,-0.07808,0.3416,-0.44408,-0.29768,0.122,0.42944,0.64416,0.78568
0.81008,-0.75152,0.69296,0.28792,-0.11712,0.4636,-0.65392,-0.52216,0.00976,0.44896,0.73688,0.96136
0.89792,-0.81496,0.732,0.28304,-0.16592,0.53192,-0.7808,-0.67344,-0.11712,0.36112,0.70272,0.96136
0.94184,-0.82228,0.70272,0.2318,-0.23912,0.59048,-0.83448,-0.74664,-0.2684,0.21472,0.5856,0.8784
0.84912,-0.70272,0.55632,0.13176,-0.2928,0.57096,-0.77104,-0.732,-0.41968,-0.00976,0.33184,0.62952
0.57096,-0.44164,0.31232,0.02684,-0.25864,0.4148,-0.5612,-0.61,-0.52216,-0.30256,-0.05368,0.20496
0.32696,-0.23912,0.15128,-0.0122,-0.17568,0.25132,-0.37088,-0.4636,-0.5124,-0.42456,-0.244,-0.05368
0.13664,-0.11224,0.08784,0.01952,-0.0488,0.09272,-0.22936,-0.32208,-0.39528,-0.35136,-0.20984,-0.06832
0.00976,-0.0244,0.03904,0.03416,0.02928,-0.00976,-0.13664,-0.20008,-0.30256,-0.29768,-0.19032,-0.09272
-0.00976,0.00732,-0.00488,0,0.00488,-0.00732,-0.06832,-0.09272,-0.20984,-0.2196,-0.1464,-0.08296
-0.03416,0.02928,-0.0244,-0.00732,0.00976,-0.02196,-0.0244,-0.02928,-0.14152,-0.15616,-0.0976,-0.05856
-0.03904,0.03416,-0.02928,-0.00976,0.00976,-0.0244,-0.01464,-0.01464,-0.09272,-0.11224,-0.05856,-0.03416
-0.05368,0.04392,-0.03416,-0.00732,0.01952,-0.0366,0,-0.00488,-0.04392,-0.07808,-0.03416,-0.01464
-0.05856,0.04636,-0.03416,-0.00488,0.0244,-0.04148,0.00976,0,-0.0244,-0.06344,-0.0244,-0.00976
-0.06344,0.04392,-0.0244,0.00732,0.03904,-0.05124,0.01952,0.00488,-0.00488,-0.0488,-0.01464,-0.00488
-0.05368,0.03416,-0.01464,0.0122,0.03904,-0.04636,0.0244,0.00976,0,-0.0488,-0.01464,-0.00976
-0.06832,0.04636,-0.0244,0.00976,0.04392,-0.05612,0.0244,0.00976,0,-0.04392,-0.01464,-0.00976
-0.06832,0.04636,-0.0244,0.00976,0.04392,-0.05612,0.0244,0.01464,0.00976,-0.04392,-0.01464,-0.01464
-0.06832,0.0488,-0.02928,0.00488,0.03904,-0.05368,0.0244,0.01464,0.00488,-0.0488,-0.01464,-0.01464
-0.06832,0.0488,-0.02928,0.00488,0.03904,-0.05368,0.02928,0.01464,0,-0.05368,-0.01464,-0.01464
-0.07808,0.05856,-0.03904,0,0.03904,-0.05856,0.02928,0.01952,0.00976,-0.0488,-0.00976,-0.01464
-0.07808,0.06344,-0.0488,-0.00976,0.02928,-0.05368,0.02928,0.01952,0.00976,-0.0488,-0.00976,-0.01464
-0.07808,0.061,-0.04392,-0.00488,0.03416,-0.05612,0.02928,0.01952,0.00976,-0.0488,-0.00976,-0.01952
-0.08784,0.06588,-0.04392,0,0.04392,-0.06588,0.02928,0.01952,0.00976,-0.0488,-0.01464,-0.01952
-0.08784,0.06832,-0.0488,-0.00488,0.03904,-0.06344,0.02928,0.0244,0.01464,-0.04392,-0.01464,-0.01464
-0.09272,0.07076,-0.0488,-0.00244,0.04392,-0.06832,0.03416,0.0244,0.01464,-0.04392,-0.00976,-0.01464
-0.09272,0.07076,-0.0488,-0.00244,0.04392,-0.06832,0.03416,0.02928,0.01952,-0.04392,-0.00488,-0.00976
-0.09272,0.06832,-0.04392,0.00244,0.0488,-0.07076,0.03416,0.02928,0.02928,-0.04392,-0.00488,-0.00976
-0.07808,0.05856,-0.03904,0,0.03904,-0.05856,0.03416,0.02928,0.03416,-0.03904,-0.00488,-0.00976
-0.04392,0.03904,-0.03416,-0.0122,0.00976,-0.02684,0.03416,0.02928,0.03416,-0.03904,-0.00488,-0.00976
-0.0488,0.04148,-0.03416,-0.00976,0.01464,-0.03172,0.03416,0.02928,0.0244,-0.03904,-0.00488,-0.00976
-0.05856,0.04636,-0.03416,-0.00488,0.0244,-0.04148,0.03416,0.02928,0.01952,-0.03904,-0.00488,-0.00976
-0.06344,0.0488,-0.03416,-0.00244,0.02928,-0.04636,0.03416,0.03416,0.0244,-0.04392,0,-0.00488
-0.0732,0.05612,-0.03904,-0.00244,0.03416,-0.05368,0.03416,0.03416,0.0244,-0.0488,0,-0.00488
-0.0732,0.05612,-0.03904,-0.00244,0.03416,-0.05368,0.03416,0.03416,0.0244,-0.04392,-0.00488,-0.00488
-0.06832,0.05124,-0.03416,0,0.03416,-0.05124,0.03416,0.03416,0.0244,-0.04392,-0.00976,-0.00488
-0.06832,0.0488,-0.02928,0.00488,0.03904,-0.05368,0.03416,0.03416,0.03416,-0.03904,-0.00488,-0.00488
-0.06832,0.0488,-0.02928,0.00488,0.03904,-0.05368,0.03416,0.04392,0.03904,-0.03904,-0.00488,-0.00488
-0.06344,0.04636,-0.02928,0.00244,0.03416,-0.0488,0.03416,0.04392,0.03904,-0.03904,-0.00488,-0.00488
-0.06344,0.04636,-0.02928,0.00244,0.03416,-0.0488,0.03416,0.03904,0.03904,-0.03904,-0.00488,-0.00488
-0.05856,0.04148,-0.0244,0.00488,0.03416,-0.04636,0.03416,0.03416,0.04392,-0.03416,-0.00488,0
-0.0488,0.0366,-0.0244,0,0.0244,-0.0366,0.03416,0.03416,0.04392,-0.03416,0,0
-0.06344,0.04392,-0.0244,0.00732,0.03904,-0.05124,0.03416,0.03904,0.04392,-0.02928,0,0
-0.06344,0.04148,-0.01952,0.0122,0.04392,-0.05368,0.02928,0.03904,0.0488,-0.01952,0,0.00488
-0.0488,0.02928,-0.00976,0.01464,0.03904,-0.04392,0.02928,0.04392,0.0488,-0.01952,0.00976,0.00488
-0.04392,0.02196,0,0.02196,0.04392,-0.04392,0.02928,0.0488,0.0488,-0.01952,0.01464,0.00488
-0.0488,0.02684,-0.00488,0.01952,0.04392,-0.04636,0.02928,0.0488,0.05368,-0.01464,0.01952,0.00976
-0.0488,0.02928,-0.00976,0.01464,0.03904,-0.04392,0.0244,0.05368,0.05368,-0.01464,0.01952,0.00976
-0.0488,0.02928,-0.00976,0.01464,0.03904,-0.04392,0.02928,0.05368,0.05368,-0.00976,0.01952,0.00976
-0.04392,0.02684,-0.00976,0.0122,0.03416,-0.03904,0.03416,0.05368,0.05368,-0.00976,0.0244,0.01464
-0.03904,0.02196,-0.00488,0.01464,0.03416,-0.0366,0.03416,0.05368,0.05856,-0.00976,0.0244,0.01464
-0.03904,0.02196,-0.00488,0.01464,0.03416,-0.0366,0.03416,0.05856,0.05856,-0.00976,0.02928,0.01952
-0.01952,0.00732,0.00488,0.01464,0.0244,-0.02196,0.01952,0.05856,0.06344,-0.00976,0.0244,0.01952
0,-0.00488,0.00976,0.00976,0.00976,-0.00488,0.01464,0.05856,0.06344,-0.00488,0.02928,0.01952
-0.00488,-0.00244,0.00976,0.0122,0.01464,-0.00976,0.00976,0.06344,0.06832,0,0.03416,0.0244
-0.00976,0,0.00976,0.01464,0.01952,-0.01464,0.00976,0.06344,0.06832,0.00488,0.03416,0.0244
-0.00488,-0.00732,0.01952,0.02196,0.0244,-0.01464,0.00976,0.05856,0.0732,0.00976,0.04392,0.03416
0.00976,-0.01708,0.0244,0.01952,0.01464,-0.00244,0,0.05368,0.0732,0.00976,0.05856,0.04392
0.00976,-0.01952,0.02928,0.0244,0.01952,-0.00488,0,0.05368,0.07808,0.02928,0.06344,0.05368
0.0244,-0.02928,0.03416,0.02196,0.00976,0.00732,-0.00488,0.05856,0.08296,0.03416,0.06832,0.05856
0.0244,-0.03416,0.04392,0.03172,0.01952,0.00244,-0.00976,0.05856,0.08296,0.03904,0.07808,0.06832
0.0488,-0.05124,0.05368,0.02928,0.00488,0.02196,-0.01464,0.05368,0.08784,0.04392,0.08784,0.0732
0.05368,-0.05612,0.05856,0.03172,0.00488,0.0244,-0.0244,0.05368,0.09272,0.05368,0.09272,0.08784
0.06832,-0.06588,0.06344,0.02928,-0.00488,0.0366,-0.02928,0.05368,0.09272,0.05856,0.0976,0.08784
0.0732,-0.07076,0.06832,0.03172,-0.00488,0.03904,-0.03416,0.0488,0.09272,0.06344,0.0976,0.08784
0.08296,-0.08296,0.08296,0.04148,0,0.04148,-0.04392,0.04392,0.0976,0.06832,0.10248,0.0976
0.10736,-0.10248,0.0976,0.04392,-0.00976,0.05856,-0.0488,0.04392,0.0976,0.0732,0.11224,0.10736
0.10736,-0.10736,0.10736,0.05368,0,0.05368,-0.05368,0.04392,0.0976,0.07808,0.11712,0.11224
0.11712,-0.11468,0.11224,0.05368,-0.00488,0.061,-0.06344,0.03416,0.0976,0.0732,0.122,0.11224
0.122,-0.122,0.122,0.061,0,0.061,-0.0732,0.02928,0.0976,0.0732,0.12688,0.122
0.13664,-0.12932,0.122,0.05368,-0.01464,0.07564,-0.08296,0.01952,0.0976,0.06832,0.12688,0.122
0.13176,-0.12444,0.11712,0.05124,-0.01464,0.0732,-0.08784,0.01952,0.08296,0.06344,0.12688,0.12688
0.13176,-0.12444,0.11712,0.05124,-0.01464,0.0732,-0.09272,0.01464,0.08296,0.06344,0.12688,0.12688
0.1464,-0.13664,0.12688,0.05368,-0.01952,0.08296,-0.0976,0.00488,0.08296,0.06344,0.12688,0.12688
0.14152,-0.1342,0.12688,0.05612,-0.01464,0.07808,-0.0976,0,0.07808,0.06832,0.12688,0.12688
0.14152,-0.1342,0.12688,0.05612,-0.01464,0.07808,-0.10248,-0.00488,0.07808,0.06832,0.122,0.122
0.14152,-0.1342,0.12688,0.05612,-0.01464,0.07808,-0.0976,-0.00976,0.07808,0.06832,0.11712,0.122
0.13664,-0.1342,0.13176,0.06344,-0.00488,0.07076,-0.10248,-0.01952,0.0732,0.06344,0.11224,0.122
0.12688,-0.12932,0.13176,0.06832,0.00488,0.061,-0.10248,-0.01952,0.07808,0.05368,0.10736,0.122
0.12688,-0.12444,0.122,0.05856,-0.00488,0.06588,-0.10248,-0.01952,0.07808,0.04392,0.10248,0.11224
0.11224,-0.11712,0.122,0.06588,0.00976,0.05124,-0.10736,-0.0244,0.0732,0.04392,0.10248,0.11224
0.0976,-0.11224,0.12688,0.07808,0.02928,0.03416,-0.11224,-0.0244,0.0732,0.0488,0.10736,0.10736
0.0976,-0.11224,0.12688,0.07808,0.02928,0.03416,-0.10736,-0.02928,0.0732,0.04392,0.10736,0.10248
0.10248,-0.1098,0.11712,0.06588,0.01464,0.04392,-0.0976,-0.02928,0.0732,0.03904,0.0976,0.0976
0.10248,-0.10736,0.11224,0.061,0.00976,0.04636,-0.08784,-0.02928,0.06832,0.02928,0.08296,0.09272
0.11224,-0.11224,0.11224,0.05612,0,0.05612,-0.07808,-0.02928,0.06344,0.01952,0.06832,0.08784
0.08296,-0.08784,0.09272,0.05124,0.00976,0.0366,-0.07808,-0.0244,0.05856,0.01464,0.06344,0.07808
0.06344,-0.07076,0.07808,0.04636,0.01464,0.0244,-0.0732,-0.01952,0.05368,0.00976,0.05856,0.07808
0.0488,-0.05856,0.06832,0.04392,0.01952,0.01464,-0.05856,-0.01464,0.05368,0.00488,0.0488,0.06344
0.0244,-0.0366,0.0488,0.0366,0.0244,0,-0.0488,-0.01464,0.05368,0,0.04392,0.05368
0.0244,-0.03416,0.04392,0.03172,0.01952,0.00244,-0.0488,-0.01464,0.0488,-0.00488,0.03904,0.04392
0.01464,-0.02684,0.03904,0.03172,0.0244,-0.00488,-0.03416,-0.00976,0.0488,-0.01464,0.03416,0.03904
0,-0.01464,0.02928,0.02928,0.02928,-0.01464,-0.03416,-0.00976,0.04392,-0.01464,0.0244,0.03416
-0.00488,-0.00732,0.01952,0.02196,0.0244,-0.01464,-0.02928,-0.00976,0.04392,-0.01464,0.0244,0.02928
-0.00976,-0.00244,0.01464,0.01952,0.0244,-0.01708,-0.02928,-0.00976,0.04392,-0.01952,0.01952,0.02928
-0.0244,0.00732,0.00976,0.02196,0.03416,-0.02928,-0.0244,-0.00976,0.04392,-0.01952,0.01464,0.01952
-0.02928,0.01464,0,0.01464,0.02928,-0.02928,-0.01464,-0.00976,0.03904,-0.02928,0.00976,0.01464
-0.03904,0.0244,-0.00976,0.00976,0.02928,-0.03416,-0.01464,-0.00976,0.03416,-0.02928,-0.00488,0.00976
-0.03904,0.02196,-0.00488,0.01464,0.03416,-0.0366,-0.01464,-0.00976,0.03416,-0.03904,-0.00488,0.01464
-0.02928,0.01464,0,0.01464,0.02928,-0.02928,-0.01464,-0.00976,0.02928,-0.03904,-0.00488,0.01952
-0.03904,0.01464,0.00976,0.02928,0.0488,-0.04392,-0.01464,-0.00976,0.02928,-0.03904,-0.00976,0.01952
-0.0488,0.01952,0.00976,0.03416,0.05856,-0.05368,-0.00976,-0.00976,0.02928,-0.03904,-0.00976,0.01952
-0.0488,0.0244,0,0.0244,0.0488,-0.0488,-0.00488,-0.00976,0.02928,-0.03904,-0.00976,0.00976
-0.0488,0.02684,-0.00488,0.01952,0.04392,-0.04636,-0.00488,-0.00976,0.02928,-0.03904,-0.00976,0
-0.0488,0.02684,-0.00488,0.01952,0.04392,-0.04636,-0.00488,-0.00976,0.02928,-0.0488,-0.01464,0
-0.0488,0.02928,-0.00976,0.01464,0.03904,-0.04392,-0.00488,-0.00976,0.03416,-0.0488,-0.01464,-0.00488
-0.05856,0.03416,-0.00976,0.01952,0.0488,-0.05368,-0.00976,-0.00976,0.03416,-0.03416,-0.00976,-0.00488
-0.06832,0.03416,0,0.03416,0.06832,-0.06832,-0.00976,-0.00976,0.03416,-0.0244,-0.00488,0
-0.05856,0.03172,-0.00488,0.0244,0.05368,-0.05612,-0.00976,-0.00976,0.03416,-0.03416,-0.00488,0
-0.04392,0.02196,0,0.02196,0.04392,-0.04392,-0.00488,-0.00976,0.03416,-0.0488,-0.00976,-0.00488
-0.04392,0.01952,0.00488,0.02684,0.0488,-0.04636,-0.00488,-0.00976,0.03416,-0.0488,-0.00976,-0.00976
-0.04392,0.01952,0.00488,0.02684,0.0488,-0.04636,-0.00488,-0.00976,0.03416,-0.04392,-0.00976,-0.00976
-0.0488,0.02684,-0.00488,0.01952,0.04392,-0.04636,0,-0.00488,0.03416,-0.03904,-0.00976,-0.00488
-0.05368,0.03172,-0.00976,0.01708,0.04392,-0.0488,0.00488,0,0.03416,-0.03416,-0.00976,-0.00488
-0.05368,0.02928,-0.00488,0.02196,0.0488,-0.05124,0,0,0.03904,-0.03416,-0.00488,0
-0.0488,0.02684,-0.00488,0.01952,0.04392,-0.04636,0,0,0.03904,-0.03416,-0.00488,0
-0.0488,0.0244,0,0.0244,0.0488,-0.0488,-0.00488,0.00488,0.04392,-0.02928,0,0.00488
-0.0488,0.02196,0.00488,0.02928,0.05368,-0.05124,0.00488,0.00976,0.04392,-0.02928,0,0.01464
-0.0488,0.02196,0.00488,0.02928,0.05368,-0.05124,-0.00488,0.00976,0.04392,-0.02928,0,0.01464
-0.0488,0.02196,0.00488,0.02928,0.05368,-0.05124,-0.00488,0.00976,0.04392,-0.0244,0.00488,0.01952
-0.04392,0.01952,0.00488,0.02684,0.0488,-0.04636,-0.00488,0.00488,0.0488,-0.0244,0.00976,0.01464
-0.03904,0.01952,0,0.01952,0.03904,-0.03904,0,0,0.05368,-0.01952,0.00976,0.00976
-0.03904,0.01708,0.00488,0.0244,0.04392,-0.04148,0,0,0.05368,-0.01952,0.00976,0.00976
-0.03904,0.01708,0.00488,0.0244,0.04392,-0.04148,0,0,0.05368,-0.01464,0.01952,0.01464
-0.03904,0.01708,0.00488,0.0244,0.04392,-0.04148,0,0.00488,0.05368,-0.01464,0.01952,0.01952
-0.02928,0.0122,0.00488,0.01952,0.03416,-0.03172,-0.00488,0.00488,0.05856,-0.00976,0.01464,0.0244
-0.03904,0.01708,0.00488,0.0244,0.04392,-0.04148,-0.00488,0,0.05856,-0.00976,0.01464,0.0244
-0.03904,0.01464,0.00976,0.02928,0.0488,-0.04392,-0.00488,0,0.05856,-0.00976,0.01952,0.02928
-0.02928,0.00488,0.01952,0.03416,0.0488,-0.03904,0,0.00488,0.06344,0,0.0244,0.03904
-0.02928,0.00488,0.01952,0.03416,0.0488,-0.03904,0,0.00488,0.06344,0,0.02928,0.03904
-0.02928,0.00732,0.01464,0.02928,0.04392,-0.0366,-0.00488,0.00488,0.06344,0,0.02928,0.03416
-0.02928,0.00732,0.01464,0.02928,0.04392,-0.0366,-0.00488,0.00488,0.06344,0,0.02928,0.02928
-0.02928,0.00732,0.01464,0.02928,0.04392,-0.0366,-0.00488,0.00976,0.06832,0.00488,0.02928,0.03416
-0.02928,0.00732,0.01464,0.02928,0.04392,-0.0366,-0.00488,0.01464,0.06832,0.00488,0.0244,0.03416
-0.03416,0.00976,0.01464,0.03172,0.0488,-0.04148,-0.00488,0.01464,0.06832,0,0.0244,0.02928
-0.03904,0.0122,0.01464,0.03416,0.05368,-0.04636,-0.00488,0.01464,0.06832,-0.00488,0.0244,0.02928
-0.03904,0.0122,0.01464,0.03416,0.05368,-0.04636,-0.00488,0.00976,0.06832,0,0.02928,0.02928
-0.03904,0.00976,0.01952,0.03904,0.05856,-0.0488,-0.00488,0.00488,0.06832,0,0.03416,0.02928
-0.03416,0.00488,0.0244,0.04148,0.05856,-0.04636,-0.00488,0.00488,0.06832,0.00488,0.03416,0.02928
-0.02928,0.00244,0.0244,0.03904,0.05368,-0.04148,-0.00488,0,0.06832,0.00488,0.03416,0.02928
-0.01952,-0.00244,0.0244,0.03416,0.04392,-0.03172,-0.00976,0,0.06344,0.00488,0.03416,0.02928
-0.01952,-0.00488,0.02928,0.03904,0.0488,-0.03416,-0.00976,0,0.06344,0.00488,0.03416,0.02928
-0.01464,-0.00488,0.0244,0.03172,0.03904,-0.02684,-0.00488,0,0.06344,0,0.02928,0.03416
-0.04392,0.01708,0.00976,0.03172,0.05368,-0.0488,-0.00488,0.00488,0.06344,-0.00488,0.0244,0.03416
-0.03416,0.00732,0.01952,0.0366,0.05368,-0.04392,-0.00488,0.00488,0.06344,-0.00488,0.02928,0.03416
-0.02928,0.00488,0.01952,0.03416,0.0488,-0.03904,-0.00488,0.00488,0.05856,-0.00488,0.02928,0.03416
-0.0244,0.00488,0.01464,0.02684,0.03904,-0.03172,-0.00488,0.00488,0.05856,-0.00976,0.01952,0.02928
-0.0244,0.00488,0.01464,0.02684,0.03904,-0.03172,-0.00488,-0.00488,0.05856,-0.00976,0.01952,0.01952
-0.0244,0.00488,0.01464,0.02684,0.03904,-0.03172,-0.00488,-0.00488,0.05368,-0.00976,0.01952,0.01952
-0.0244,0.00488,0.01464,0.02684,0.03904,-0.03172,-0.00488,-0.00976,0.0488,-0.01952,0.01464,0.01952
-0.02928,0.0122,0.00488,0.01952,0.03416,-0.03172,-0.00976,-0.00976,0.04392,-0.01464,0.00976,0.01464
-0.04392,0.0244,-0.00488,0.01708,0.03904,-0.04148,-0.00976,-0.00976,0.04392,-0.00976,0.00976,0.00976
-0.0488,0.02684,-0.00488,0.01952,0.04392,-0.04636,-0.00488,-0.00976,0.04392,-0.00976,0.00976,0.01464
-0.0488,0.02196,0.00488,0.02928,0.05368,-0.05124,-0.00488,-0.00976,0.0488,-0.00976,0.00976,0.0244
-0.0488,0.02196,0.00488,0.02928,0.05368,-0.05124,-0.00488,-0.00976,0.04392,-0.00976,0.00488,0.0244
-0.0488,0.0244,0,0.0244,0.0488,-0.0488,-0.00488,-0.01464,0.04392,-0.01464,-0.00488,0.00976
-0.0488,0.0244,0,0.0244,0.0488,-0.0488,-0.00488,-0.01464,0.04392,-0.01464,-0.00488,0.00488
-0.0488,0.0244,0,0.0244,0.0488,-0.0488,-0.00488,-0.01464,0.04392,-0.01464,-0.00488,0.01464
-0.03904,0.01708,0.00488,0.0244,0.04392,-0.04148,-0.00488,-0.00488,0.03904,-0.0244,-0.00488,0
-0.04392,0.01952,0.00488,0.02684,0.0488,-0.04636,0,-0.00488,0.03904,-0.03416,-0.00488,0
-0.0488,0.02684,-0.00488,0.01952,0.04392,-0.04636,0,-0.01464,0.03904,-0.03416,-0.01464,0
-0.0488,0.02684,-0.00488,0.01952,0.04392,-0.04636,0,-0.01464,0.03904,-0.03416,-0.01952,0
-0.04392,0.02684,-0.00976,0.0122,0.03416,-0.03904,0,-0.00976,0.02928,-0.03904,-0.01952,0
-0.05856,0.0366,-0.01464,0.01464,0.04392,-0.05124,0,-0.00976,0.0244,-0.04392,-0.0244,-0.00976
-0.05856,0.0366,-0.01464,0.01464,0.04392,-0.05124,0,-0.00976,0.0244,-0.04392,-0.0244,-0.00976
-0.05856,0.0366,-0.01464,0.01464,0.04392,-0.05124,0,-0.00976,0.0244,-0.04392,-0.0244,-0.00976
