i,aVR,ii,aVF,iii,aVL,V1,V2,V3,V4,V5,V6
-0.03416,0.061,-0.08784,-0.07076,-0.05368,0.00976,0.05368,0,-0.06832,-0.0976,-0.07808,-0.03904
-0.03416,0.061,-0.08784,-0.07076,-0.05368,0.00976,0.05368,0.00488,-0.06344,-0.0976,-0.07808,-0.03904
-0.03416,0.061,-0.08784,-0.07076,-0.05368,0.00976,0.0488,0.00488,-0.0488,-0.0976,-0.06344,-0.03904
-0.03416,0.06344,-0.09272,-0.07564,-0.05856,0.0122,0.06344,0.0244,-0.01464,-0.06832,-0.0488,-0.03904
-0.0244,0.05124,-0.07808,-0.06588,-0.05368,0.01464,0.07808,0.04392,0.05368,-0.01952,-0.01952,-0.01952
-0.00488,0.02928,-0.05368,-0.05124,-0.0488,0.02196,0.07808,0.06344,0.13176,0.06344,0.05856,0.03416
0.0488,-0.01952,-0.00976,-0.03416,-0.05856,0.05368,0.07808,0.09272,0.23424,0.18056,0.18056,0.13664
0.16104,-0.10492,0.0488,-0.03172,-0.11224,0.13664,0.06344,0.16104,0.36112,0.366,0.38064,0.31232
0.32696,-0.22936,0.13176,-0.03172,-0.1952,0.26108,0.03416,0.2684,0.57096,0.63928,0.67832,0.57096
0.54656,-0.4026,0.25864,-0.01464,-0.28792,0.41724,-0.0244,0.37576,0.85888,0.98088,1.06384,0.91256
0.7808,-0.61488,0.44896,0.05856,-0.33184,0.55632,-0.11712,0.4636,1.15168,1.342,1.45424,1.25904
0.88816,-0.73444,0.58072,0.13664,-0.30744,0.5978,-0.17568,0.46848,1.33712,1.52744,1.64456,1.44936
0.80032,-0.71736,0.6344,0.23424,-0.16592,0.48312,-0.22448,0.3172,1.2444,1.37128,1.46888,1.32736
0.5124,-0.55632,0.60024,0.34404,0.08784,0.21228,-0.23424,0.03416,0.83936,0.8784,0.95648,0.93208
0.13176,-0.32696,0.52216,0.45628,0.3904,-0.12932,-0.19032,-0.28304,0.28792,0.244,0.3172,0.42944
-0.17568,-0.14884,0.47336,0.5612,0.64904,-0.41236,-0.19032,-0.55144,-0.25376,-0.30744,-0.20984,0.00488
-0.29768,-0.0854,0.46848,0.61732,0.76616,-0.53192,-0.244,-0.6832,-0.57584,-0.57096,-0.44896,-0.20008
-0.29768,-0.07808,0.45384,0.60268,0.75152,-0.5246,-0.28792,-0.67344,-0.7076,-0.64416,-0.49288,-0.25864
-0.2196,-0.09516,0.40992,0.51972,0.62952,-0.42456,-0.29768,-0.5612,-0.6832,-0.5856,-0.44408,-0.22936
-0.13176,-0.10004,0.33184,0.39772,0.4636,-0.29768,-0.27328,-0.4392,-0.59536,-0.52704,-0.366,-0.19032
-0.07808,-0.07564,0.22936,0.2684,0.30744,-0.19276,-0.20008,-0.30256,-0.49776,-0.45384,-0.31232,-0.1464
-0.04392,-0.0488,0.14152,0.16348,0.18544,-0.11468,-0.13664,-0.20496,-0.39528,-0.3904,-0.26352,-0.12688
-0.02928,-0.02196,0.0732,0.08784,0.10248,-0.06588,-0.06832,-0.13664,-0.2928,-0.31232,-0.20008,-0.09272
-0.02928,-0.00488,0.03904,0.05368,0.06832,-0.0488,-0.04392,-0.10736,-0.2196,-0.25376,-0.16104,-0.07808
-0.03904,0.01464,0.00976,0.02928,0.0488,-0.04392,-0.01952,-0.07808,-0.15128,-0.1952,-0.11712,-0.06344
-0.03416,0.02928,-0.0244,-0.00732,0.00976,-0.02196,0.00488,-0.05368,-0.10736,-0.16592,-0.0976,-0.05368
-0.02928,0.03416,-0.03904,-0.0244,-0.00976,-0.00976,0.01952,-0.03904,-0.09272,-0.15128,-0.08296,-0.03904
-0.0244,0.03904,-0.05368,-0.04148,-0.02928,0.00244,0.03904,-0.01952,-0.06832,-0.13664,-0.0732,-0.03416
-0.0244,0.04392,-0.06344,-0.05124,-0.03904,0.00732,0.0488,-0.00976,-0.05856,-0.12688,-0.06344,-0.02928
-0.01952,0.04392,-0.06832,-0.05856,-0.0488,0.01464,0.0488,-0.00976,-0.06344,-0.11712,-0.05856,-0.03416
-0.01952,0.04392,-0.06832,-0.05856,-0.0488,0.01464,0.05368,-0.01952,-0.05856,-0.11712,-0.05368,-0.02928
-0.01952,0.04392,-0.06832,-0.05856,-0.0488,0.01464,0.06344,-0.00976,-0.0488,-0.122,-0.05368,-0.01952
-0.01464,0.04148,-0.06832,-0.061,-0.05368,0.01952,0.06344,-0.00976,-0.0488,-0.11224,-0.0488,-0.01464
-0.00488,0.0366,-0.06832,-0.06588,-0.06344,0.02928,0.05368,-0.00488,-0.04392,-0.10736,-0.03904,-0.01464
0,0.03416,-0.06832,-0.06832,-0.06832,0.03416,0.05368,-0.00488,-0.03904,-0.0976,-0.03416,-0.00976
0.00488,0.02928,-0.06344,-0.06588,-0.06832,0.0366,0.05368,0,-0.03416,-0.10736,-0.03904,-0.00488
0.00488,0.02928,-0.06344,-0.06588,-0.06832,0.0366,0.0488,0,-0.0244,-0.10248,-0.0244,0
0.00976,0.02684,-0.06344,-0.06832,-0.0732,0.04148,0.0488,0.00976,-0.0244,-0.0976,-0.0244,0.00976
0.00976,0.02684,-0.06344,-0.06832,-0.0732,0.04148,0.0488,0.00976,-0.01952,-0.09272,-0.01464,0.01464
0.00976,0.02684,-0.06344,-0.06832,-0.0732,0.04148,0.0488,0,-0.00976,-0.08784,-0.00488,0.01952
0.01464,0.02196,-0.05856,-0.06588,-0.0732,0.04392,0.0488,0.00488,-0.00488,-0.08296,-0.00488,0.0244
0.00976,0.0244,-0.05856,-0.06344,-0.06832,0.03904,0.05368,0.00488,0,-0.07808,0,0.03904
0.01464,0.02196,-0.05856,-0.06588,-0.0732,0.04392,0.05368,0.00488,0.00976,-0.0732,0.00976,0.0488
0.0244,0.0122,-0.0488,-0.061,-0.0732,0.0488,0.05368,0.00488,0.00976,-0.0732,0.01464,0.0488
0.0244,0.00976,-0.04392,-0.05612,-0.06832,0.04636,0.05368,0.00976,0.01464,-0.0732,0.0244,0.06344
0.02928,0.00488,-0.03904,-0.05368,-0.06832,0.0488,0.05856,0.00976,0.01952,-0.0732,0.0244,0.06344
0.03416,0,-0.03416,-0.05124,-0.06832,0.05124,0.05856,0.00976,0.0244,-0.06344,0.02928,0.0732
0.02928,0.00488,-0.03904,-0.05368,-0.06832,0.0488,0.0488,0.00976,0.02928,-0.05856,0.03416,0.06344
0.03416,0,-0.03416,-0.05124,-0.06832,0.05124,0.04392,0.00976,0.03416,-0.05856,0.03904,0.06832
0.03416,-0.00244,-0.02928,-0.04636,-0.06344,0.0488,0.02928,0.00488,0.03904,-0.05856,0.03904,0.07808
0.03904,-0.00732,-0.0244,-0.04392,-0.06344,0.05124,0.02928,0.00488,0.04392,-0.0488,0.05368,0.07808
0.05368,-0.01952,-0.01464,-0.04148,-0.06832,0.061,0.0244,0.00488,0.05368,-0.03904,0.06344,0.08784
0.05368,-0.02196,-0.00976,-0.0366,-0.06344,0.05856,0.01952,0.00488,0.06344,-0.02928,0.0732,0.09272
0.06344,-0.0244,-0.01464,-0.04636,-0.07808,0.07076,0.02928,0.01952,0.07808,-0.01464,0.08296,0.10248
0.06832,-0.02928,-0.00976,-0.04392,-0.07808,0.0732,0.0244,0.0244,0.08784,-0.00488,0.08784,0.11224
0.06344,-0.0244,-0.01464,-0.04636,-0.07808,0.07076,0.03416,0.0244,0.0976,0.00488,0.0976,0.11712
0.06832,-0.03172,-0.00488,-0.03904,-0.0732,0.07076,0.03904,0.0244,0.10736,0.00976,0.10736,0.13176
0.07808,-0.04148,0.00488,-0.03416,-0.0732,0.07564,0.03416,0.01952,0.11712,0.0244,0.12688,0.14152
0.08296,-0.0488,0.01464,-0.02684,-0.06832,0.07564,0.02928,0.0244,0.12688,0.03416,0.14152,0.1464
0.09272,-0.05856,0.0244,-0.02196,-0.06832,0.08052,0.0244,0.03416,0.13664,0.04392,0.15128,0.15616
0.09272,-0.05856,0.0244,-0.02196,-0.06832,0.08052,0.0244,0.04392,0.15128,0.05856,0.16592,0.16592
0.10736,-0.07076,0.03416,-0.01952,-0.0732,0.09028,0.00976,0.04392,0.16104,0.06832,0.17568,0.1708
0.11712,-0.08052,0.04392,-0.01464,-0.0732,0.09516,0.00488,0.0488,0.17568,0.08784,0.20008,0.18056
0.122,-0.08052,0.03904,-0.02196,-0.08296,0.10248,0.00488,0.05368,0.17568,0.0976,0.20984,0.1952
0.13176,-0.09028,0.0488,-0.01708,-0.08296,0.10736,0,0.05368,0.1952,0.10736,0.22448,0.20496
0.1464,-0.10248,0.05856,-0.01464,-0.08784,0.11712,0,0.06832,0.21472,0.13176,0.23912,0.22936
0.15128,-0.10736,0.06344,-0.0122,-0.08784,0.11956,-0.00488,0.0732,0.244,0.1464,0.2684,0.23912
0.15616,-0.11712,0.07808,0,-0.07808,0.11712,-0.00976,0.06832,0.244,0.16592,0.27816,0.23912
0.16104,-0.12444,0.08784,0.00732,-0.0732,0.11712,-0.00976,0.06832,0.25864,0.18056,0.28792,0.24888
0.15616,-0.11956,0.08296,0.00488,-0.0732,0.11468,-0.01952,0.05856,0.25864,0.17568,0.2928,0.24888
0.16104,-0.12444,0.08784,0.00732,-0.0732,0.11712,-0.03416,0.06344,0.27328,0.19032,0.30256,0.26352
0.16104,-0.122,0.08296,0.00244,-0.07808,0.11956,-0.03416,0.05856,0.28792,0.20496,0.30744,0.26352
0.1708,-0.12932,0.08784,0.00244,-0.08296,0.12688,-0.03904,0.06344,0.29768,0.2196,0.3172,0.27816
0.18056,-0.1342,0.08784,-0.00244,-0.09272,0.13664,-0.02928,0.08784,0.30744,0.22936,0.32696,0.27816
0.18056,-0.13908,0.0976,0.00732,-0.08296,0.13176,-0.02928,0.0976,0.3172,0.22936,0.32696,0.28304
0.19032,-0.14152,0.09272,-0.00244,-0.0976,0.14396,-0.03904,0.10248,0.32208,0.23424,0.3416,0.2928
0.19032,-0.14152,0.09272,-0.00244,-0.0976,0.14396,-0.03904,0.0976,0.32208,0.23912,0.34648,0.2928
0.18056,-0.13664,0.09272,0.00244,-0.08784,0.1342,-0.0488,0.07808,0.30744,0.23424,0.33184,0.27816
0.1708,-0.13176,0.09272,0.00732,-0.07808,0.12444,-0.0488,0.0732,0.30256,0.2196,0.32208,0.27328
0.1708,-0.1342,0.0976,0.0122,-0.0732,0.122,-0.03416,0.0732,0.2928,0.20984,0.29768,0.25864
0.16104,-0.12932,0.0976,0.01708,-0.06344,0.11224,-0.03416,0.06344,0.27328,0.18056,0.27816,0.23424
0.1464,-0.11712,0.08784,0.01464,-0.05856,0.10248,-0.02928,0.04392,0.25376,0.16104,0.24888,0.20984
0.122,-0.10004,0.07808,0.01708,-0.04392,0.08296,-0.0244,0.0244,0.22936,0.13664,0.2196,0.18544
0.10736,-0.08052,0.05368,0,-0.05368,0.08052,-0.03416,0.00976,0.20008,0.10736,0.18056,0.1464
0.09272,-0.06832,0.04392,-0.00244,-0.0488,0.07076,-0.0244,0,0.1708,0.07808,0.15128,0.13176
0.08296,-0.05856,0.03416,-0.00732,-0.0488,0.06588,-0.01464,0,0.1464,0.05856,0.12688,0.11224
0.06832,-0.04636,0.0244,-0.00976,-0.04392,0.05612,-0.01464,0.00488,0.122,0.04392,0.0976,0.09272
0.04392,-0.0244,0.00488,-0.01708,-0.03904,0.04148,-0.01952,0.00976,0.0976,0.0244,0.08296,0.0732
0.03904,-0.01464,-0.00976,-0.02928,-0.0488,0.04392,-0.01464,0.00488,0.07808,0.00488,0.05856,0.05368
0.02928,-0.00488,-0.01952,-0.03416,-0.0488,0.03904,-0.01952,-0.00488,0.06344,0,0.04392,0.04392
0.0244,0.00488,-0.03416,-0.04636,-0.05856,0.04148,-0.01464,-0.00488,0.05368,-0.00976,0.03416,0.03416
0.02928,0.00244,-0.03416,-0.0488,-0.06344,0.04636,-0.00976,-0.01464,0.03416,-0.00976,0.0244,0.0244
0.02928,0,-0.02928,-0.04392,-0.05856,0.04392,-0.00488,-0.0244,0.0244,-0.01952,0.01952,0.01464
0.01464,0.0122,-0.03904,-0.04636,-0.05368,0.03416,0.00488,-0.0244,0.01464,-0.0244,0.00976,0.00976
0.01464,0.0122,-0.03904,-0.04636,-0.05368,0.03416,0.00488,-0.0244,0.01464,-0.0244,0.00976,0.00976
0.00976,0.01464,-0.03904,-0.04392,-0.0488,0.02928,0.01464,-0.0244,0.01952,-0.00976,0.01952,0.00488
0.00976,0.0122,-0.03416,-0.03904,-0.04392,0.02684,0.01464,-0.0244,0.01952,0,0.01464,0.00488
0.00976,0.01464,-0.03904,-0.04392,-0.0488,0.02928,0.01952,-0.01464,0.02928,0.00976,0.00488,0.00488
0.00976,0.01464,-0.03904,-0.04392,-0.0488,0.02928,0.01952,-0.00488,0.02928,0.00976,0.00488,0
0.00976,0.01952,-0.0488,-0.05368,-0.05856,0.03416,0.00976,-0.00488,0.02928,0.00976,-0.00976,-0.00976
0.00976,0.02196,-0.05368,-0.05856,-0.06344,0.0366,0.00976,-0.00488,0.0244,0.00976,-0.00976,-0.00976
0.01952,0.0122,-0.04392,-0.05368,-0.06344,0.04148,0,-0.01952,0.03416,0.00976,-0.01952,-0.00976
0.01952,0.0122,-0.04392,-0.05368,-0.06344,0.04148,0,-0.02928,0.03416,0.00976,-0.0244,-0.00976
0.0244,0.00732,-0.03904,-0.05124,-0.06344,0.04392,0.00976,-0.01952,0.03416,0.01952,-0.00976,0
0.03416,0.00244,-0.03904,-0.05612,-0.0732,0.05368,0.00976,-0.01952,0.03416,0.01952,-0.00976,0
0.03416,0.00244,-0.03904,-0.05612,-0.0732,0.05368,0.01952,-0.00976,0.02928,0.01952,0,0
0.03416,0.00244,-0.03904,-0.05612,-0.0732,0.05368,0.01952,-0.01464,0.02928,0.01952,0,0
0.0244,0.00732,-0.03904,-0.05124,-0.06344,0.04392,0.00488,-0.0244,0.01952,0.01952,0,0
0.0244,0.00732,-0.03904,-0.05124,-0.06344,0.04392,0.00488,-0.03416,0.01464,0.01952,0,0
0.01464,0.01708,-0.0488,-0.05612,-0.06344,0.03904,0.01464,-0.0244,0.01464,0.01952,0,-0.00976
0.01464,0.01464,-0.04392,-0.05124,-0.05856,0.0366,0.01464,-0.0244,0.01464,0.01952,0,-0.00976
0.01464,0.01952,-0.05368,-0.061,-0.06832,0.04148,0.00488,-0.03416,0.01464,0.00976,-0.00976,-0.01952
0.01464,0.02196,-0.05856,-0.06588,-0.0732,0.04392,-0.00488,-0.04392,0.00976,0.00488,-0.01464,-0.01952
0.01464,0.01708,-0.0488,-0.05612,-0.06344,0.03904,-0.00488,-0.0488,0.00976,0.01464,-0.01464,-0.01952
0.01464,0.01708,-0.0488,-0.05612,-0.06344,0.03904,-0.00488,-0.0488,0.00976,0.01464,-0.01464,-0.01952
0.0244,0.0122,-0.0488,-0.061,-0.0732,0.0488,0,-0.04392,0.01464,0.00976,-0.01464,-0.01464
0.0244,0.0122,-0.0488,-0.061,-0.0732,0.0488,0,-0.04392,0.01464,0.00976,-0.01952,-0.01464
0.01952,0.01464,-0.0488,-0.05856,-0.06832,0.04392,0.00488,-0.04392,0.01464,0.00976,-0.00976,-0.0244
0.01952,0.01464,-0.0488,-0.05856,-0.06832,0.04392,0.01464,-0.0488,0.00976,0.00488,-0.00976,-0.0244
0.01952,0.0122,-0.04392,-0.05368,-0.06344,0.04148,0.01464,-0.05856,0.00976,0.00488,-0.0244,-0.02928
0.01952,0.0122,-0.04392,-0.05368,-0.06344,0.04148,0.01464,-0.05856,0,0.00488,-0.0244,-0.02928
0.00976,0.02196,-0.05368,-0.05856,-0.06344,0.0366,0.00488,-0.06344,-0.00976,0,-0.02928,-0.02928
0.00976,0.01952,-0.0488,-0.05368,-0.05856,0.03416,0.00488,-0.06344,-0.02928,-0.00488,-0.03416,-0.03416
0.01464,0.02196,-0.05856,-0.06588,-0.0732,0.04392,0.01464,-0.06344,-0.02928,-0.00488,-0.0244,-0.02928
0.01464,0.0244,-0.06344,-0.07076,-0.07808,0.04636,0.01952,-0.06344,-0.02928,-0.00976,-0.0244,-0.02928
0.00488,0.0244,-0.05368,-0.05612,-0.05856,0.03172,0.01952,-0.06344,-0.0244,-0.01464,-0.0244,-0.02928
0,0.02928,-0.05856,-0.05856,-0.05856,0.02928,0.01952,-0.06832,-0.0244,-0.01464,-0.02928,-0.02928
0,0.03416,-0.06832,-0.06832,-0.06832,0.03416,0.00976,-0.08784,-0.02928,-0.01464,-0.02928,-0.03904
0,0.03416,-0.06832,-0.06832,-0.06832,0.03416,0.00976,-0.0976,-0.02928,-0.01952,-0.02928,-0.04392
0.00976,0.02684,-0.06344,-0.06832,-0.0732,0.04148,0.01952,-0.0976,-0.02928,-0.00976,-0.02928,-0.03416
0.00976,0.02684,-0.06344,-0.06832,-0.0732,0.04148,0.01952,-0.0976,-0.03416,-0.01464,-0.03416,-0.03416
0.00976,0.02684,-0.06344,-0.06832,-0.0732,0.04148,0.0244,-0.07808,-0.03416,-0.01464,-0.0244,-0.03904
0.00488,0.02684,-0.05856,-0.061,-0.06344,0.03416,0.0244,-0.0732,-0.03904,-0.01464,-0.02928,-0.03904
0.00488,0.03172,-0.06832,-0.07076,-0.0732,0.03904,0.02928,-0.0732,-0.0488,-0.01952,-0.03904,-0.0488
0.00488,0.03416,-0.0732,-0.07564,-0.07808,0.04148,0.02928,-0.0732,-0.0488,-0.01952,-0.03904,-0.0488
-0.00488,0.04148,-0.07808,-0.07564,-0.0732,0.03416,0.01952,-0.06344,-0.0488,-0.01952,-0.04392,-0.0488
-0.00488,0.04148,-0.07808,-0.07564,-0.0732,0.03416,0.01952,-0.06344,-0.05368,-0.01952,-0.04392,-0.0488
0.00488,0.03172,-0.06832,-0.07076,-0.0732,0.03904,0.01952,-0.05368,-0.04392,-0.0244,-0.04392,-0.04392
0.00488,0.03172,-0.06832,-0.07076,-0.0732,0.03904,0.0244,-0.04392,-0.04392,-0.0244,-0.04392,-0.04392
0.00488,0.03416,-0.0732,-0.07564,-0.07808,0.04148,0.0244,-0.04392,-0.04392,-0.0244,-0.04392,-0.0488
0.00488,0.03416,-0.0732,-0.07564,-0.07808,0.04148,0.0244,-0.03904,-0.0488,-0.0244,-0.04392,-0.0488
0.00488,0.03416,-0.0732,-0.07564,-0.07808,0.04148,0.0244,-0.0488,-0.05368,-0.0244,-0.05368,-0.0488
0.00488,0.03416,-0.0732,-0.07564,-0.07808,0.04148,0.0244,-0.0488,-0.05368,-0.02928,-0.05368,-0.05368
0.00488,0.03172,-0.06832,-0.07076,-0.0732,0.03904,0.04392,-0.02928,-0.05368,-0.01952,-0.04392,-0.05368
0.00488,0.03172,-0.06832,-0.07076,-0.0732,0.03904,0.05368,-0.01952,-0.05368,-0.01952,-0.04392,-0.05856
0,0.04148,-0.08296,-0.08296,-0.08296,0.04148,0.05368,-0.02928,-0.05856,-0.01952,-0.04392,-0.05368
0,0.04148,-0.08296,-0.08296,-0.08296,0.04148,0.04392,-0.03904,-0.06832,-0.01952,-0.04392,-0.0488
0,0.03904,-0.07808,-0.07808,-0.07808,0.03904,0.03904,-0.03904,-0.06832,-0.00976,-0.03904,-0.0488
0,0.03904,-0.07808,-0.07808,-0.07808,0.03904,0.03904,-0.03904,-0.06832,-0.00976,-0.03904,-0.0488
0.00976,0.03416,-0.07808,-0.08296,-0.08784,0.0488,0.03904,-0.0244,-0.05856,-0.00976,-0.03904,-0.0488
0.00976,0.03172,-0.0732,-0.07808,-0.08296,0.04636,0.03904,-0.0244,-0.05368,-0.01464,-0.03904,-0.0488
0.00488,0.03416,-0.0732,-0.07564,-0.07808,0.04148,0.04392,-0.0244,-0.05856,-0.01952,-0.0488,-0.0488
0.00488,0.03416,-0.0732,-0.07564,-0.07808,0.04148,0.03904,-0.02928,-0.05856,-0.02928,-0.0488,-0.05368
0.01464,0.02684,-0.06832,-0.07564,-0.08296,0.0488,0.03904,-0.02928,-0.0488,-0.0244,-0.03904,-0.0488
0.01464,0.02196,-0.05856,-0.06588,-0.0732,0.04392,0.02928,-0.03416,-0.03904,-0.00976,-0.03416,-0.04392
0.00488,0.02196,-0.0488,-0.05124,-0.05368,0.02928,0.0244,-0.03416,-0.03416,-0.00976,-0.01464,-0.03904
0.00976,0.00976,-0.02928,-0.03416,-0.03904,0.0244,0.02928,-0.04392,-0.0244,0,-0.00488,-0.02928
0.00976,0.00488,-0.01952,-0.0244,-0.02928,0.01952,0.02928,-0.0488,-0.00488,0,0.00488,-0.02928
0.01464,-0.00488,-0.00488,-0.0122,-0.01952,0.01708,0.01952,-0.05856,0,-0.00488,0.00976,-0.0244
0.0244,-0.01952,0.01464,0.00244,-0.00976,0.01708,0.00488,-0.0488,-0.00488,-0.01952,0.01464,-0.01464
0.02928,-0.0244,0.01952,0.00488,-0.00976,0.01952,0,-0.05368,0,-0.0244,0.01464,-0.00976
0.03904,-0.03416,0.02928,0.00976,-0.00976,0.0244,-0.00976,-0.04392,0,-0.0244,0.01952,-0.00488
0.03904,-0.03904,0.03904,0.01952,0,0.01952,-0.01952,-0.03904,0.00976,-0.02928,0.03416,0
0.0488,-0.0488,0.0488,0.0244,0,0.0244,-0.03904,-0.04392,0.0244,-0.02928,0.03904,0.00976
0.0488,-0.05612,0.06344,0.03904,0.01464,0.01708,-0.0488,-0.05856,0.0244,-0.03904,0.04392,0.00976
0.06344,-0.0732,0.08296,0.05124,0.01952,0.02196,-0.05368,-0.05856,0.02928,-0.04392,0.04392,0.01464
0.06344,-0.07564,0.08784,0.05612,0.0244,0.01952,-0.05856,-0.06344,0.01464,-0.05368,0.04392,0.01464
0.06832,-0.07808,0.08784,0.05368,0.01952,0.0244,-0.0488,-0.06832,0.00488,-0.05856,0.03904,0.0244
0.06832,-0.0854,0.10248,0.06832,0.03416,0.01708,-0.05368,-0.06832,0.00488,-0.06344,0.03904,0.01952
0.08296,-0.09028,0.0976,0.05612,0.01464,0.03416,-0.04392,-0.05856,-0.00488,-0.06344,0.03904,0.01464
0.09272,-0.09516,0.0976,0.05124,0.00488,0.04392,-0.03904,-0.04392,-0.00488,-0.06344,0.03904,0.01952
0.09272,-0.08784,0.08296,0.0366,-0.00976,0.05124,-0.02928,-0.03904,-0.0244,-0.0732,0.03416,0.0244
0.09272,-0.07564,0.05856,0.0122,-0.03416,0.06344,-0.01952,-0.02928,-0.04392,-0.08784,0.0244,0.01464
0.09272,-0.05856,0.0244,-0.02196,-0.06832,0.08052,-0.01952,-0.0244,-0.06344,-0.11224,0.01952,0.00976
0.07808,-0.04148,0.00488,-0.03416,-0.0732,0.07564,-0.00976,-0.0244,-0.07808,-0.12688,0.00488,0
0.06832,-0.03416,0,-0.03416,-0.06832,0.06832,-0.00976,-0.02928,-0.0732,-0.14152,-0.01464,-0.01952
0.0488,-0.0122,-0.0244,-0.0488,-0.0732,0.061,0.00488,-0.02928,-0.0732,-0.1464,-0.01952,-0.0244
0.0244,0.00244,-0.02928,-0.04148,-0.05368,0.03904,0.0244,-0.01952,-0.08296,-0.1464,-0.03416,-0.03904
0.01464,0.01708,-0.0488,-0.05612,-0.06344,0.03904,0.02928,-0.01464,-0.08296,-0.15616,-0.04392,-0.04392
0,0.03416,-0.06832,-0.06832,-0.06832,0.03416,0.04392,-0.01464,-0.07808,-0.1708,-0.05368,-0.05368
-0.00976,0.04392,-0.07808,-0.0732,-0.06832,0.02928,0.05368,-0.01464,-0.07808,-0.18056,-0.05856,-0.06344
-0.00976,0.04392,-0.07808,-0.0732,-0.06832,0.02928,0.06344,0.00488,-0.08296,-0.18056,-0.05856,-0.06832
-0.00976,0.04636,-0.08296,-0.07808,-0.0732,0.03172,0.06344,0.00488,-0.08784,-0.1708,-0.05856,-0.06832
-0.00976,0.04636,-0.08296,-0.07808,-0.0732,0.03172,0.07808,0.01464,-0.08784,-0.16104,-0.05856,-0.06832
-0.00976,0.0488,-0.08784,-0.08296,-0.07808,0.03416,0.0732,0.01952,-0.09272,-0.16104,-0.05856,-0.06832
-0.01952,0.05368,-0.08784,-0.07808,-0.06832,0.0244,0.06832,0.01952,-0.09272,-0.16104,-0.05856,-0.06832
-0.01952,0.05612,-0.09272,-0.08296,-0.0732,0.02684,0.06344,0.01952,-0.09272,-0.15616,-0.05368,-0.06832
-0.00976,0.05124,-0.09272,-0.08784,-0.08296,0.0366,0.05368,0.02928,-0.10248,-0.16104,-0.05368,-0.06832
-0.00976,0.05124,-0.09272,-0.08784,-0.08296,0.0366,0.05856,0.02928,-0.0976,-0.16592,-0.05856,-0.06832
-0.01464,0.05856,-0.10248,-0.09516,-0.08784,0.0366,0.06832,0.03904,-0.08784,-0.15616,-0.0488,-0.05856
-0.01464,0.061,-0.10736,-0.10004,-0.09272,0.03904,0.07808,0.03904,-0.08784,-0.15616,-0.0488,-0.05856
-0.01464,0.05612,-0.0976,-0.09028,-0.08296,0.03416,0.08296,0.04392,-0.06832,-0.15616,-0.0488,-0.05856
-0.01464,0.061,-0.10736,-0.10004,-0.09272,0.03904,0.0976,0.06832,-0.03416,-0.12688,-0.0244,-0.0488
-0.01464,0.05856,-0.10248,-0.09516,-0.08784,0.0366,0.10736,0.0732,0.01952,-0.08296,0.00976,-0.03904
0.00488,0.03416,-0.0732,-0.07564,-0.07808,0.04148,0.10736,0.08296,0.08296,-0.00976,0.06832,0.00976
0.04392,0,-0.04392,-0.06588,-0.08784,0.06588,0.10248,0.122,0.15616,0.08784,0.1464,0.0732
0.1464,-0.07808,0.00976,-0.06344,-0.13664,0.14152,0.08784,0.17568,0.25376,0.22448,0.30256,0.21472
0.29768,-0.17568,0.05368,-0.09516,-0.244,0.27084,0.06344,0.28304,0.39528,0.42456,0.52704,0.41968
0.50264,-0.32452,0.1464,-0.10492,-0.35624,0.42944,0.0244,0.39528,0.62952,0.7076,0.83448,0.69784
0.73688,-0.5124,0.28792,-0.08052,-0.44896,0.59292,-0.03904,0.5124,0.90768,1.04432,1.20048,1.03456
0.9272,-0.68808,0.44896,-0.01464,-0.47824,0.70272,-0.122,0.56608,1.16632,1.32736,1.48352,1.2932
0.91744,-0.7198,0.52216,0.06344,-0.39528,0.65636,-0.15128,0.48312,1.19072,1.30296,1.4396,1.28832
0.70272,-0.61976,0.5368,0.18544,-0.16592,0.43432,-0.18544,0.22936,0.94184,0.97112,1.07848,1.00528
0.35136,-0.42456,0.49776,0.32208,0.1464,0.10248,-0.17568,-0.10248,0.48312,0.4392,0.52704,0.56608
-0.00488,-0.22692,0.45872,0.46116,0.4636,-0.23424,-0.18056,-0.41968,-0.03416,-0.11712,-0.01464,0.13176
-0.20496,-0.12932,0.4636,0.56608,0.66856,-0.43676,-0.22448,-0.60024,-0.4148,-0.44408,-0.2928,-0.10736
-0.24888,-0.1098,0.46848,0.59292,0.71736,-0.48312,-0.27328,-0.64416,-0.5856,-0.5368,-0.38064,-0.18544
-0.19032,-0.11956,0.42944,0.5246,0.61976,-0.40504,-0.30744,-0.57584,-0.64416,-0.55144,-0.37576,-0.20496
-0.11712,-0.11468,0.34648,0.40504,0.4636,-0.29036,-0.28792,-0.44408,-0.60512,-0.50264,-0.32696,-0.1708
-0.03416,-0.10248,0.23912,0.2562,0.27328,-0.15372,-0.22936,-0.2928,-0.52704,-0.44896,-0.28304,-0.15128
0.00976,-0.0732,0.13664,0.13176,0.12688,-0.05856,-0.15128,-0.15616,-0.45384,-0.40504,-0.24888,-0.122
0.0244,-0.04636,0.06832,0.05612,0.04392,-0.00976,-0.07808,-0.0732,-0.35624,-0.33672,-0.19032,-0.10248
0.01952,-0.02684,0.03416,0.0244,0.01464,0.00244,-0.0244,-0.01464,-0.25864,-0.26352,-0.1464,-0.08784
0,0,0,0,0,0,0.00976,0.00488,-0.18544,-0.20496,-0.10736,-0.07808
-0.01464,0.02684,-0.03904,-0.03172,-0.0244,0.00488,0.0244,0.01464,-0.13176,-0.1708,-0.08296,-0.06344
-0.01464,0.03904,-0.06344,-0.05612,-0.0488,0.01708,0.02928,0.01952,-0.10248,-0.13664,-0.05856,-0.06344
-0.00976,0.04148,-0.0732,-0.06832,-0.06344,0.02684,0.05368,0.01952,-0.08784,-0.11712,-0.05856,-0.04392
-0.00488,0.04636,-0.08784,-0.0854,-0.08296,0.03904,0.06344,0.02928,-0.07808,-0.11224,-0.05368,-0.04392
-0.00488,0.04636,-0.08784,-0.0854,-0.08296,0.03904,0.0732,0.05856,-0.06344,-0.0976,-0.03904,-0.02928
0,0.04392,-0.08784,-0.08784,-0.08784,0.04392,0.08784,0.0732,-0.05856,-0.08296,-0.03904,-0.03416
0,0.04392,-0.08784,-0.08784,-0.08784,0.04392,0.09272,0.08784,-0.05368,-0.08296,-0.03416,-0.03904
0.00488,0.04148,-0.08784,-0.09028,-0.09272,0.0488,0.09272,0.08784,-0.0488,-0.07808,-0.02928,-0.03904
0.00488,0.04148,-0.08784,-0.09028,-0.09272,0.0488,0.08296,0.07808,-0.0488,-0.06832,-0.02928,-0.03416
0.00488,0.04148,-0.08784,-0.09028,-0.09272,0.0488,0.08296,0.08296,-0.03904,-0.06832,-0.0244,-0.02928
0.00976,0.0366,-0.08296,-0.08784,-0.09272,0.05124,0.0732,0.08296,-0.03416,-0.0488,-0.00976,-0.02928
0.01464,0.03416,-0.08296,-0.09028,-0.0976,0.05612,0.0732,0.08784,-0.02928,-0.04392,0,-0.0244
0.01464,0.03416,-0.08296,-0.09028,-0.0976,0.05612,0.06832,0.07808,-0.0244,-0.03904,0.00488,-0.01952
0.01952,0.03172,-0.08296,-0.09272,-0.10248,0.061,0.06832,0.07808,-0.01952,-0.03416,0.00976,-0.01464
0.01952,0.03172,-0.08296,-0.09272,-0.10248,0.061,0.06832,0.07808,-0.01952,-0.02928,0.00488,-0.01952
0.01952,0.03172,-0.08296,-0.09272,-0.10248,0.061,0.06832,0.08296,-0.01464,-0.0244,0.00488,-0.01464
0.0244,0.02684,-0.07808,-0.09028,-0.10248,0.06344,0.07808,0.08296,-0.00976,-0.01952,0.01952,0
0.02928,0.0244,-0.07808,-0.09272,-0.10736,0.06832,0.0732,0.08296,0,-0.01464,0.02928,0.00488
0.0244,0.02684,-0.07808,-0.09028,-0.10248,0.06344,0.08296,0.09272,0.00976,-0.00488,0.01952,0.00976
0.0244,0.02684,-0.07808,-0.09028,-0.10248,0.06344,0.08296,0.09272,0.01464,-0.00488,0.02928,0.01464
0.01464,0.02928,-0.0732,-0.08052,-0.08784,0.05124,0.0732,0.08784,0.00976,-0.00488,0.03416,0.01464
0.01952,0.0244,-0.06832,-0.07808,-0.08784,0.05368,0.06832,0.08784,0.01464,0.00488,0.03904,0.01464
0.0244,0.0244,-0.0732,-0.0854,-0.0976,0.061,0.05856,0.07808,0.01952,0.00488,0.03904,0.0244
0.02928,0.01952,-0.06832,-0.08296,-0.0976,0.06344,0.05368,0.07808,0.01952,0.00976,0.04392,0.0244
0.04392,0.00244,-0.0488,-0.07076,-0.09272,0.06832,0.0488,0.08296,0.0244,0.01952,0.05856,0.03416
0.04392,0,-0.04392,-0.06588,-0.08784,0.06588,0.0488,0.0976,0.03416,0.0244,0.06832,0.03904
0.05856,-0.0122,-0.03416,-0.06344,-0.09272,0.07564,0.04392,0.09272,0.04392,0.0244,0.07808,0.05368
0.06344,-0.01464,-0.03416,-0.06588,-0.0976,0.08052,0.04392,0.09272,0.0488,0.03416,0.08784,0.06344
0.06832,-0.01464,-0.03904,-0.0732,-0.10736,0.08784,0.03904,0.08296,0.06832,0.02928,0.0976,0.06344
0.0732,-0.02196,-0.02928,-0.06588,-0.10248,0.08784,0.03904,0.09272,0.0732,0.03904,0.10248,0.07808
0.07808,-0.0244,-0.02928,-0.06832,-0.10736,0.09272,0.04392,0.09272,0.08296,0.03416,0.11224,0.07808
0.0732,-0.0244,-0.0244,-0.061,-0.0976,0.0854,0.04392,0.09272,0.09272,0.03416,0.122,0.08296
0.0732,-0.03172,-0.00976,-0.04636,-0.08296,0.07808,0.03904,0.10736,0.10248,0.03416,0.13176,0.0976
0.08296,-0.04148,0,-0.04148,-0.08296,0.08296,0.02928,0.11224,0.11224,0.03416,0.14152,0.10248
0.0976,-0.05368,0.00976,-0.03904,-0.08784,0.09272,0.01464,0.11224,0.122,0.0244,0.15616,0.11224
0.10248,-0.05856,0.01464,-0.0366,-0.08784,0.09516,0.01464,0.11712,0.13176,0.02928,0.17568,0.122
0.10248,-0.05612,0.00976,-0.04148,-0.09272,0.0976,0,0.11224,0.1464,0.02928,0.18544,0.1464
0.11224,-0.06588,0.01952,-0.0366,-0.09272,0.10248,0,0.11712,0.16104,0.03416,0.20984,0.15616
0.12688,-0.08052,0.03416,-0.02928,-0.09272,0.1098,0.00488,0.12688,0.18056,0.03416,0.2196,0.16592
0.13664,-0.09028,0.04392,-0.0244,-0.09272,0.11468,0,0.13176,0.1952,0.0488,0.23912,0.18056
0.1464,-0.10248,0.05856,-0.01464,-0.08784,0.11712,0.00976,0.1464,0.20984,0.05368,0.24888,0.20496
0.1464,-0.10492,0.06344,-0.00976,-0.08296,0.11468,0.00488,0.15128,0.22448,0.06832,0.2684,0.21472
0.15616,-0.11468,0.0732,-0.00488,-0.08296,0.11956,0.00488,0.1464,0.23912,0.08296,0.28792,0.22448
0.15616,-0.11712,0.07808,0,-0.07808,0.11712,0,0.1464,0.24888,0.0976,0.30256,0.23424
0.16592,-0.12688,0.08784,0.00488,-0.07808,0.122,-0.00976,0.15616,0.26352,0.10248,0.3172,0.244
0.16592,-0.12932,0.09272,0.00976,-0.0732,0.11956,-0.01464,0.16104,0.28304,0.11712,0.32696,0.25864
0.16592,-0.12932,0.09272,0.00976,-0.0732,0.11956,-0.03416,0.15616,0.28304,0.12688,0.33672,0.26352
0.1708,-0.13176,0.09272,0.00732,-0.07808,0.12444,-0.03904,0.15616,0.2928,0.12688,0.33672,0.2684
0.18056,-0.1342,0.08784,-0.00244,-0.09272,0.13664,-0.03904,0.15128,0.30256,0.13664,0.3416,0.2684
0.18056,-0.13664,0.09272,0.00244,-0.08784,0.1342,-0.03904,0.15616,0.31232,0.14152,0.34648,0.2684
0.18544,-0.13908,0.09272,0,-0.09272,0.13908,-0.03904,0.1708,0.32696,0.1464,0.34648,0.27328
0.1952,-0.14396,0.09272,-0.00488,-0.10248,0.14884,-0.03904,0.1708,0.33184,0.15128,0.35624,0.27328
0.19032,-0.14152,0.09272,-0.00244,-0.0976,0.14396,-0.02928,0.16104,0.33184,0.1464,0.34648,0.2684
0.18056,-0.13664,0.09272,0.00244,-0.08784,0.1342,-0.02928,0.15616,0.32696,0.13664,0.33672,0.25864
0.16592,-0.12688,0.08784,0.00488,-0.07808,0.122,-0.0244,0.15616,0.30744,0.11712,0.3172,0.244
0.15616,-0.11712,0.07808,0,-0.07808,0.11712,-0.00976,0.1464,0.28792,0.0976,0.29768,0.22448
0.13176,-0.10248,0.0732,0.00732,-0.05856,0.09516,0,0.14152,0.26352,0.0732,0.27328,0.20496
0.11224,-0.08784,0.06344,0.00732,-0.0488,0.08052,0,0.122,0.23912,0.04392,0.22936,0.17568
0.0976,-0.07564,0.05368,0.00488,-0.04392,0.07076,-0.00488,0.10736,0.20008,0.00488,0.18544,0.14152
0.08296,-0.061,0.03904,-0.00244,-0.04392,0.06344,0,0.09272,0.17568,-0.0244,0.15616,0.122
0.0732,-0.05124,0.02928,-0.00732,-0.04392,0.05856,0.00976,0.08784,0.15128,-0.04392,0.13664,0.10248
0.06832,-0.04392,0.01952,-0.01464,-0.0488,0.05856,0.01464,0.09272,0.13176,-0.06832,0.11224,0.08296
0.05368,-0.03172,0.00976,-0.01708,-0.04392,0.0488,0.00488,0.08296,0.11712,-0.07808,0.09272,0.0732
0.04392,-0.02196,0,-0.02196,-0.04392,0.04392,0.00976,0.07808,0.09272,-0.10248,0.08296,0.05368
0.03416,-0.00976,-0.01464,-0.03172,-0.0488,0.04148,0.01464,0.06344,0.08296,-0.122,0.06344,0.04392
0.02928,0,-0.02928,-0.04392,-0.05856,0.04392,0.01952,0.06344,0.06344,-0.13664,0.04392,0.03416
0.01464,0.0122,-0.03904,-0.04636,-0.05368,0.03416,0.03416,0.06344,0.05856,-0.13176,0.03904,0.0244
0.00488,0.01952,-0.04392,-0.04636,-0.0488,0.02684,0.03904,0.06344,0.0488,-0.14152,0.03416,0.01952
0,0.01952,-0.03904,-0.03904,-0.03904,0.01952,0.04392,0.0732,0.03904,-0.14152,0.03416,0.01952
-0.00488,0.02196,-0.03904,-0.0366,-0.03416,0.01464,0.04392,0.0732,0.03416,-0.14152,0.02928,0.01952
0.00488,0.02196,-0.0488,-0.05124,-0.05368,0.02928,0.03416,0.06344,0.02928,-0.13664,0.01952,0.01464
0,0.02196,-0.04392,-0.04392,-0.04392,0.02196,0.03416,0.06344,0.02928,-0.13664,0.01464,0.01464
0,0.0244,-0.0488,-0.0488,-0.0488,0.0244,0.03904,0.06344,0.02928,-0.12688,0.00488,0.00488
0,0.0244,-0.0488,-0.0488,-0.0488,0.0244,0.03904,0.06344,0.02928,-0.12688,0.00488,0.00488
0,0.0244,-0.0488,-0.0488,-0.0488,0.0244,0.02928,0.05368,0.02928,-0.122,0,0
0,0.0244,-0.0488,-0.0488,-0.0488,0.0244,0.02928,0.05368,0.02928,-0.11224,0,0
0,0.02684,-0.05368,-0.05368,-0.05368,0.02684,0.02928,0.05368,0.0244,-0.10248,0.00976,0
0,0.02684,-0.05368,-0.05368,-0.05368,0.02684,0.02928,0.0488,0.0244,-0.09272,0.00976,0
0.00488,0.0244,-0.05368,-0.05612,-0.05856,0.03172,0.03416,0.05368,0.03416,-0.08296,0.01464,0.00976
0.00488,0.02196,-0.0488,-0.05124,-0.05368,0.02928,0.04392,0.06344,0.03416,-0.0732,0.01952,0.00976
0,0.01952,-0.03904,-0.03904,-0.03904,0.01952,0.0488,0.06832,0.03416,-0.05856,0.01952,0.00976
-0.00976,0.0244,-0.03904,-0.03416,-0.02928,0.00976,0.0488,0.06344,0.02928,-0.05856,0.01952,0.00976
-0.01464,0.02684,-0.03904,-0.03172,-0.0244,0.00488,0.04392,0.0488,0.01952,-0.0488,0.00976,0.00976
-0.01464,0.02684,-0.03904,-0.03172,-0.0244,0.00488,0.02928,0.03904,0.01952,-0.0488,0.00976,0.00976
-0.00976,0.01952,-0.02928,-0.0244,-0.01952,0.00488,0.01464,0.04392,0.01464,-0.03904,0.00976,0.00976
0,0.0122,-0.0244,-0.0244,-0.0244,0.0122,0.01464,0.04392,0.01464,-0.03904,0.00976,0.00976
-0.00488,0.01708,-0.02928,-0.02684,-0.0244,0.00976,0.0244,0.05368,0.0244,-0.02928,0.00976,0.00976
-0.00488,0.02196,-0.03904,-0.0366,-0.03416,0.01464,0.0244,0.05368,0.0244,-0.03416,0.00976,0.00976
-0.00488,0.02684,-0.0488,-0.04636,-0.04392,0.01952,0.0244,0.0488,0.01952,-0.03416,-0.00488,0
-0.00488,0.02684,-0.0488,-0.04636,-0.04392,0.01952,0.0244,0.0488,0.01952,-0.03416,-0.00488,0
-0.01464,0.03172,-0.0488,-0.04148,-0.03416,0.00976,0.02928,0.06344,0.01952,-0.02928,0.00488,0.00976
-0.01464,0.03172,-0.0488,-0.04148,-0.03416,0.00976,0.04392,0.06344,0.01464,-0.0244,0,0.00488
-0.01952,0.03904,-0.05856,-0.0488,-0.03904,0.00976,0.03416,0.05368,0.01464,-0.00976,0,0.00488
-0.01952,0.03904,-0.05856,-0.0488,-0.03904,0.00976,0.03416,0.0488,0.01464,-0.00976,0,0.00488
-0.01952,0.0366,-0.05368,-0.04392,-0.03416,0.00732,0.0244,0.0488,0.00976,-0.00488,0.00976,0.00976
-0.01952,0.0366,-0.05368,-0.04392,-0.03416,0.00732,0.0244,0.0488,0,-0.00488,0.00488,0.00976
-0.01952,0.0366,-0.05368,-0.04392,-0.03416,0.00732,0.0244,0.05856,0,-0.00976,-0.00976,0.00976
-0.01952,0.0366,-0.05368,-0.04392,-0.03416,0.00732,0.0244,0.05368,0,-0.00976,-0.00976,0.00976
-0.01952,0.03904,-0.05856,-0.0488,-0.03904,0.00976,0.01464,0.05368,-0.01952,-0.0244,-0.0244,0
-0.0244,0.04392,-0.06344,-0.05124,-0.03904,0.00732,0.01952,0.05368,-0.01952,-0.02928,-0.0244,0
-0.0244,0.03904,-0.05368,-0.04148,-0.02928,0.00244,0.01952,0.05368,-0.0244,-0.01952,-0.01464,0
-0.0244,0.03904,-0.05368,-0.04148,-0.02928,0.00244,0.01952,0.05368,-0.0244,-0.0244,-0.01952,0
-0.02928,0.0488,-0.06832,-0.05368,-0.03904,0.00488,0.02928,0.0488,-0.01464,-0.01464,-0.01952,0
-0.02928,0.0488,-0.06832,-0.05368,-0.03904,0.00488,0.02928,0.0488,-0.01952,-0.01464,-0.01952,0
-0.02928,0.04392,-0.05856,-0.04392,-0.02928,0,0.03904,0.0488,-0.00976,-0.01952,-0.01952,-0.00488
-0.02928,0.04636,-0.06344,-0.0488,-0.03416,0.00244,0.03904,0.0488,-0.01464,-0.0244,-0.01952,-0.00488
-0.01952,0.04148,-0.06344,-0.05368,-0.04392,0.0122,0.05368,0.05368,-0.01464,-0.0244,-0.0244,0
-0.0244,0.04148,-0.05856,-0.04636,-0.03416,0.00488,0.05368,0.05856,-0.01464,-0.0244,-0.0244,0
-0.03416,0.04636,-0.05856,-0.04148,-0.0244,-0.00488,0.04392,0.05368,-0.02928,-0.0244,-0.02928,-0.00976
-0.03416,0.0488,-0.06344,-0.04636,-0.02928,-0.00244,0.03416,0.05368,-0.02928,-0.02928,-0.02928,-0.00976
-0.03416,0.0488,-0.06344,-0.04636,-0.02928,-0.00244,0.0244,0.05368,-0.03904,-0.03904,-0.03904,-0.01464
-0.03416,0.05124,-0.06832,-0.05124,-0.03416,0,0.01464,0.05368,-0.04392,-0.03904,-0.04392,-0.0244
-0.0244,0.04636,-0.06832,-0.05612,-0.04392,0.00976,0.01952,0.05368,-0.03416,-0.03904,-0.04392,-0.0244
-0.0244,0.04636,-0.06832,-0.05612,-0.04392,0.00976,0.0244,0.05368,-0.03416,-0.04392,-0.04392,-0.0244
-0.0244,0.0488,-0.0732,-0.061,-0.0488,0.0122,0.0244,0.05368,-0.03416,-0.04392,-0.04392,-0.0244
-0.0244,0.0488,-0.0732,-0.061,-0.0488,0.0122,0.0244,0.05368,-0.03904,-0.04392,-0.04392,-0.01952
-0.0244,0.0488,-0.0732,-0.061,-0.0488,0.0122,0.03416,0.05856,-0.03416,-0.03416,-0.03416,-0.00976
-0.0244,0.0488,-0.0732,-0.061,-0.0488,0.0122,0.03416,0.05856,-0.03416,-0.03416,-0.03416,-0.01464
-0.02928,0.05124,-0.0732,-0.05856,-0.04392,0.00732,0.03416,0.0488,-0.03416,-0.03904,-0.0244,-0.00488
-0.03904,0.05368,-0.06832,-0.0488,-0.02928,-0.00488,0.03416,0.0488,-0.03416,-0.03904,-0.0244,-0.00976
-0.0488,0.05856,-0.06832,-0.04392,-0.01952,-0.01464,0.03416,0.05856,-0.03416,-0.03904,-0.03416,-0.01464
-0.05856,0.06832,-0.07808,-0.0488,-0.01952,-0.01952,0.02928,0.05856,-0.02928,-0.0488,-0.03904,-0.01952
-0.05856,0.06832,-0.07808,-0.0488,-0.01952,-0.01952,0.02928,0.05856,-0.02928,-0.0488,-0.03904,-0.01952
-0.05368,0.061,-0.06832,-0.04148,-0.01464,-0.01952,0.02928,0.06344,-0.03904,-0.0488,-0.0488,-0.02928
-0.04392,0.05368,-0.06344,-0.04148,-0.01952,-0.0122,0.02928,0.06344,-0.03416,-0.05368,-0.0488,-0.02928
-0.03416,0.0488,-0.06344,-0.04636,-0.02928,-0.00244,0.0244,0.0732,-0.02928,-0.05368,-0.0488,-0.01952
-0.03416,0.0488,-0.06344,-0.04636,-0.02928,-0.00244,0.01952,0.06832,-0.02928,-0.05368,-0.0488,-0.0244
-0.03416,0.05124,-0.06832,-0.05124,-0.03416,0,0.02928,0.05856,-0.01952,-0.04392,-0.03904,-0.01952
-0.03416,0.04636,-0.05856,-0.04148,-0.0244,-0.00488,0.01952,0.05368,-0.00976,-0.02928,-0.03416,-0.01464
-0.03416,0.04148,-0.0488,-0.03172,-0.01464,-0.00976,0.01952,0.06344,0.01464,-0.0244,-0.01464,0
-0.02928,0.02928,-0.02928,-0.01464,0,-0.01464,0.01464,0.05368,0.0244,-0.00488,-0.00488,0.00976
-0.01952,0.00976,0,0.00976,0.01952,-0.01952,0,0.03904,0.0244,0.01464,0.00488,0.01952
-0.01464,0,0.01464,0.02196,0.02928,-0.02196,-0.00976,0.02928,0.02928,0.01952,0.00976,0.0244
-0.01464,0,0.01464,0.02196,0.02928,-0.02196,-0.0244,0.01952,0.03416,0.0244,0.00488,0.0244
-0.00976,-0.00488,0.01952,0.0244,0.02928,-0.01952,-0.02928,0.01464,0.03904,0.02928,0.00488,0.02928
0,-0.01464,0.02928,0.02928,0.02928,-0.01464,-0.02928,0.00488,0.03904,0.03904,0,0.0244
0,-0.01952,0.03904,0.03904,0.03904,-0.01952,-0.03904,0.00976,0.0488,0.04392,0.01464,0.02928
0.00976,-0.02928,0.0488,0.04392,0.03904,-0.01464,-0.05856,0.00488,0.06344,0.05368,0.01952,0.02928
0.00976,-0.0366,0.06344,0.05856,0.05368,-0.02196,-0.06832,-0.00976,0.06344,0.05368,0.0244,0.02928
0.01464,-0.04392,0.0732,0.06588,0.05856,-0.02196,-0.0732,-0.01952,0.06832,0.06344,0.03416,0.04392
0.01464,-0.04636,0.07808,0.07076,0.06344,-0.0244,-0.07808,-0.0244,0.05368,0.05368,0.03416,0.04392
0.01952,-0.0488,0.07808,0.06832,0.05856,-0.01952,-0.0732,-0.01952,0.04392,0.05856,0.02928,0.05368
0.01952,-0.05612,0.09272,0.08296,0.0732,-0.02684,-0.06832,-0.01952,0.04392,0.05368,0.02928,0.0488
0.0244,-0.05612,0.08784,0.07564,0.06344,-0.01952,-0.05368,-0.02928,0.04392,0.06344,0.02928,0.04392
0.03416,-0.061,0.08784,0.07076,0.05368,-0.00976,-0.0488,-0.01464,0.04392,0.06344,0.02928,0.0488
0.04392,-0.06344,0.08296,0.061,0.03904,0.00244,-0.04392,-0.00976,0.0244,0.05368,0.0244,0.04392
0.04392,-0.05124,0.05856,0.0366,0.01464,0.01464,-0.04392,0,0.00488,0.03904,0.01464,0.03416
0.04392,-0.04392,0.04392,0.02196,0,0.02196,-0.03904,0.00488,-0.01464,0.0244,-0.00976,0.01952
0.02928,-0.02684,0.0244,0.00976,-0.00488,0.01708,-0.02928,0.00488,-0.02928,0.00976,-0.0244,0.00976
0.01952,-0.01464,0.00976,0,-0.00976,0.01464,-0.01952,0.00976,-0.03416,0.00488,-0.03416,0
0,0.00732,-0.01464,-0.01464,-0.01464,0.00732,-0.00488,0.00976,-0.03416,0,-0.03904,-0.00488
-0.01464,0.02196,-0.02928,-0.02196,-0.01464,0,0.01464,0.00976,-0.03416,0,-0.03416,-0.00976
-0.0244,0.0366,-0.0488,-0.0366,-0.0244,0,0.01952,0.01464,-0.03416,-0.00976,-0.04392,-0.01464
-0.02928,0.0488,-0.06832,-0.05368,-0.03904,0.00488,0.03416,0.01464,-0.03904,-0.01464,-0.05368,-0.0244
-0.03904,0.05856,-0.07808,-0.05856,-0.03904,0,0.04392,0.01464,-0.03904,-0.0244,-0.05856,-0.03416
-0.0488,0.06344,-0.07808,-0.05368,-0.02928,-0.00976,0.05368,0.0244,-0.04392,-0.02928,-0.06832,-0.03904
-0.0488,0.06588,-0.08296,-0.05856,-0.03416,-0.00732,0.05368,0.0244,-0.0488,-0.02928,-0.06832,-0.03904
-0.0488,0.06588,-0.08296,-0.05856,-0.03416,-0.00732,0.05856,0.01952,-0.0488,-0.0244,-0.06832,-0.03904
-0.0488,0.06832,-0.08784,-0.06344,-0.03904,-0.00488,0.05368,0.01464,-0.05368,-0.0244,-0.06832,-0.03904
-0.0488,0.06832,-0.08784,-0.06344,-0.03904,-0.00488,0.05856,0,-0.04392,-0.01464,-0.06832,-0.03904
-0.0488,0.07076,-0.09272,-0.06832,-0.04392,-0.00244,0.05368,0,-0.04392,-0.00976,-0.06344,-0.03904
-0.05856,0.08052,-0.10248,-0.0732,-0.04392,-0.00732,0.05368,0,-0.04392,-0.01464,-0.06344,-0.03904
-0.05856,0.08052,-0.10248,-0.0732,-0.04392,-0.00732,0.05856,0,-0.03904,-0.01952,-0.06832,-0.03904
-0.05368,0.07808,-0.10248,-0.07564,-0.0488,-0.00244,0.0732,0.00488,-0.03904,-0.00976,-0.06832,-0.03904
-0.05368,0.08052,-0.10736,-0.08052,-0.05368,0,0.0732,0.01464,-0.03904,-0.00976,-0.06832,-0.03904
-0.05368,0.07564,-0.0976,-0.07076,-0.04392,-0.00488,0.08296,0.03416,-0.02928,0.00976,-0.05856,-0.03904
-0.05368,0.08052,-0.10736,-0.08052,-0.05368,0,0.08784,0.05856,0.00488,0.02928,-0.05368,-0.03904
-0.05368,0.08296,-0.11224,-0.0854,-0.05856,0.00244,0.0976,0.08296,0.05856,0.0732,-0.01952,-0.01952
-0.0244,0.05368,-0.08296,-0.07076,-0.05856,0.01708,0.0976,0.11224,0.13176,0.1464,0.05856,0.02928
0.01464,0.01464,-0.04392,-0.05124,-0.05856,0.0366,0.09272,0.14152,0.21472,0.244,0.15616,0.11224
0.10736,-0.05368,0,-0.05368,-0.10736,0.10736,0.07808,0.20496,0.31232,0.3904,0.31232,0.25376
0.25864,-0.15616,0.05368,-0.07564,-0.20496,0.2318,0.05368,0.30256,0.47336,0.60024,0.55632,0.47824
0.4636,-0.305,0.1464,-0.0854,-0.3172,0.3904,0.01464,0.4148,0.71736,0.91256,0.9028,0.78568
0.69784,-0.49776,0.29768,-0.05124,-0.40016,0.549,-0.05856,0.52216,1.01504,1.2688,1.28832,1.13216
0.85888,-0.65392,0.44896,0.01952,-0.40992,0.6344,-0.122,0.56608,1.25416,1.50304,1.53232,1.36152
0.8296,-0.671,0.5124,0.0976,-0.3172,0.5734,-0.15128,0.49288,1.27856,1.47864,1.47864,1.33712
0.59536,-0.5612,0.52704,0.22936,-0.06832,0.33184,-0.16592,0.24888,1.0004,1.098,1.06872,1.03456
0.25376,-0.37088,0.488,0.36112,0.23424,0.00976,-0.16592,-0.0732,0.5124,0.52704,0.47824,0.55632
-0.0732,-0.18788,0.44896,0.48556,0.52216,-0.29768,-0.18056,-0.36112,0.00488,-0.00976,-0.06344,0.13176
-0.244,-0.1098,0.4636,0.5856,0.7076,-0.4758,-0.22448,-0.53192,-0.35624,-0.3172,-0.33184,-0.0976
-0.27816,-0.10004,0.47824,0.61732,0.7564,-0.51728,-0.26352,-0.56608,-0.54656,-0.42944,-0.42944,-0.1952
-0.22936,-0.1098,0.44896,0.56364,0.67832,-0.45384,-0.28792,-0.488,-0.57584,-0.42456,-0.40504,-0.1952
-0.1464,-0.1098,0.366,0.4392,0.5124,-0.3294,-0.2684,-0.35624,-0.5368,-0.366,-0.35624,-0.1708
-0.08296,-0.08296,0.24888,0.29036,0.33184,-0.2074,-0.20984,-0.21472,-0.46848,-0.31232,-0.30256,-0.14152
-0.05856,-0.04392,0.1464,0.17568,0.20496,-0.13176,-0.14152,-0.0976,-0.38552,-0.25864,-0.25864,-0.122
-0.04392,-0.0122,0.06832,0.09028,0.11224,-0.07808,-0.08784,-0.0244,-0.29768,-0.20008,-0.2196,-0.09272
-0.03904,0.00244,0.03416,0.05368,0.0732,-0.05612,-0.03416,0.0244,-0.20008,-0.12688,-0.16592,-0.06832
-0.03904,0.01464,0.00976,0.02928,0.0488,-0.04392,-0.00976,0.05368,-0.12688,-0.07808,-0.12688,-0.05856
-0.03416,0.03172,-0.02928,-0.0122,0.00488,-0.01952,0.0244,0.08296,-0.08296,-0.04392,-0.10248,-0.04392
-0.03416,0.04392,-0.05368,-0.0366,-0.01952,-0.00732,0.03904,0.0976,-0.05368,-0.01952,-0.08784,-0.03416
-0.03904,0.05124,-0.06344,-0.04392,-0.0244,-0.00732,0.05368,0.11712,-0.03904,0,-0.06832,-0.0244
-0.03416,0.05612,-0.07808,-0.061,-0.04392,0.00488,0.06344,0.12688,-0.02928,0.00488,-0.06344,-0.0244
-0.04392,0.06588,-0.08784,-0.06588,-0.04392,0,0.06832,0.13176,-0.0244,0.01464,-0.05856,-0.01952
-0.03904,0.06344,-0.08784,-0.06832,-0.0488,0.00488,0.0732,0.13664,-0.01952,0.01952,-0.05856,-0.0244
-0.03904,0.06344,-0.08784,-0.06832,-0.0488,0.00488,0.06344,0.1464,-0.01464,0.0244,-0.05368,-0.01952
-0.03416,0.061,-0.08784,-0.07076,-0.05368,0.00976,0.06344,0.1464,-0.00976,0.02928,-0.0488,-0.01952
-0.0244,0.05612,-0.08784,-0.07564,-0.06344,0.01952,0.06344,0.1464,-0.00976,0.02928,-0.03904,-0.0244
-0.0244,0.05612,-0.08784,-0.07564,-0.06344,0.01952,0.06344,0.15128,0,0.02928,-0.03416,-0.01952
-0.02928,0.05124,-0.0732,-0.05856,-0.04392,0.00732,0.05368,0.14152,0.00488,0.0488,-0.03904,-0.01952
-0.0244,0.0488,-0.0732,-0.061,-0.0488,0.0122,0.05368,0.1464,0.00976,0.05368,-0.02928,-0.01464
-0.0244,0.0488,-0.0732,-0.061,-0.0488,0.0122,0.05856,0.15616,0.01464,0.05856,-0.01464,0
-0.01952,0.04636,-0.0732,-0.06344,-0.05368,0.01708,0.05856,0.15616,0.01952,0.06344,-0.00976,0.00488
-0.00976,0.04636,-0.08296,-0.07808,-0.0732,0.03172,0.06832,0.15616,0.02928,0.05856,-0.01464,0
-0.00976,0.04636,-0.08296,-0.07808,-0.0732,0.03172,0.06832,0.16104,0.03416,0.06344,-0.01464,0.00488
-0.00488,0.04148,-0.07808,-0.07564,-0.0732,0.03416,0.06832,0.15616,0.03904,0.06832,-0.00976,0.00976
0,0.03904,-0.07808,-0.07808,-0.07808,0.03904,0.06344,0.1464,0.0488,0.0732,0,0.01464
0.00488,0.0366,-0.07808,-0.08052,-0.08296,0.04392,0.05368,0.15128,0.03904,0.08296,0.00976,0.02928
0.00488,0.0366,-0.07808,-0.08052,-0.08296,0.04392,0.05368,0.15128,0.04392,0.08296,0.01952,0.03416
0.00488,0.02928,-0.06344,-0.06588,-0.06832,0.0366,0.06344,0.15616,0.03904,0.08296,0.01464,0.03416
0.00976,0.0244,-0.05856,-0.06344,-0.06832,0.03904,0.05856,0.15616,0.04392,0.09272,0.01952,0.03416
0.01464,0.01952,-0.05368,-0.061,-0.06832,0.04148,0.05368,0.1464,0.0488,0.10248,0.02928,0.04392
0.01952,0.01464,-0.0488,-0.05856,-0.06832,0.04392,0.03904,0.1464,0.0488,0.10736,0.03416,0.04392
0.03416,0.00244,-0.03904,-0.05612,-0.0732,0.05368,0.02928,0.15616,0.06344,0.11712,0.0488,0.05368
0.03416,0,-0.03416,-0.05124,-0.06832,0.05124,0.02928,0.16104,0.0732,0.122,0.05856,0.05856
0.03904,-0.00732,-0.0244,-0.04392,-0.06344,0.05124,0.03416,0.16104,0.08296,0.13176,0.06832,0.06344
0.04392,-0.00976,-0.0244,-0.04636,-0.06832,0.05612,0.03416,0.16104,0.08784,0.14152,0.07808,0.0732
0.0488,-0.01464,-0.01952,-0.04392,-0.06832,0.05856,0.02928,0.15128,0.0976,0.1464,0.07808,0.0732
0.05368,-0.02196,-0.00976,-0.0366,-0.06344,0.05856,0.02928,0.16104,0.10248,0.15616,0.08296,0.08784
0.05368,-0.02196,-0.00976,-0.0366,-0.06344,0.05856,0.0244,0.16104,0.10248,0.17568,0.10248,0.0976
0.05856,-0.02684,-0.00488,-0.03416,-0.06344,0.061,0.0244,0.16104,0.11224,0.18544,0.11224,0.10248
0.06344,-0.03172,0,-0.03172,-0.06344,0.06344,0.02928,0.16592,0.122,0.18544,0.122,0.10736
0.0732,-0.04148,0.00976,-0.02684,-0.06344,0.06832,0.01952,0.1708,0.13176,0.1952,0.13176,0.11224
0.07808,-0.04392,0.00976,-0.02928,-0.06832,0.0732,0.00976,0.16104,0.14152,0.20496,0.1464,0.122
0.08296,-0.0488,0.01464,-0.02684,-0.06832,0.07564,0,0.16592,0.15128,0.2196,0.16592,0.13176
0.09272,-0.05612,0.01952,-0.02684,-0.0732,0.08296,-0.01952,0.1708,0.17568,0.23912,0.17568,0.15616
0.10248,-0.06588,0.02928,-0.02196,-0.0732,0.08784,-0.01952,0.17568,0.19032,0.25376,0.20008,0.16592
0.10736,-0.07076,0.03416,-0.01952,-0.0732,0.09028,-0.01464,0.18544,0.20008,0.27816,0.2196,0.17568
0.11712,-0.08052,0.04392,-0.01464,-0.0732,0.09516,-0.01952,0.19032,0.21472,0.2928,0.23912,0.19032
0.12688,-0.09272,0.05856,-0.00488,-0.06832,0.0976,-0.01952,0.20496,0.23912,0.30744,0.25376,0.21472
0.12688,-0.09516,0.06344,0,-0.06344,0.09516,-0.0244,0.20984,0.25376,0.32208,0.26352,0.22448
0.13664,-0.10492,0.0732,0.00488,-0.06344,0.10004,-0.01464,0.21472,0.2684,0.33672,0.27816,0.23424
0.13664,-0.10736,0.07808,0.00976,-0.05856,0.0976,-0.01952,0.21472,0.27816,0.35136,0.2928,0.244
0.1464,-0.11712,0.08784,0.01464,-0.05856,0.10248,-0.01952,0.20984,0.2928,0.366,0.30744,0.244
0.1464,-0.11956,0.09272,0.01952,-0.05368,0.10004,-0.0244,0.20496,0.31232,0.38064,0.3172,0.25864
0.15616,-0.12932,0.10248,0.0244,-0.05368,0.10492,-0.04392,0.20496,0.31232,0.38552,0.32208,0.25864
0.16104,-0.13176,0.10248,0.02196,-0.05856,0.1098,-0.0488,0.20496,0.32208,0.39528,0.33184,0.27328
0.1708,-0.13908,0.10736,0.02196,-0.06344,0.11712,-0.0488,0.20008,0.33184,0.40992,0.35136,0.28792
0.1708,-0.14152,0.11224,0.02684,-0.05856,0.11468,-0.0488,0.20496,0.3416,0.4148,0.35624,0.28792
0.1708,-0.14152,0.11224,0.02684,-0.05856,0.11468,-0.0488,0.20984,0.33672,0.41968,0.34648,0.2928
0.1708,-0.14152,0.11224,0.02684,-0.05856,0.11468,-0.0488,0.20984,0.3416,0.42456,0.35624,0.2928
0.1708,-0.13664,0.10248,0.01708,-0.06832,0.11956,-0.0488,0.1952,0.3416,0.4148,0.33672,0.28792
0.16104,-0.13176,0.10248,0.02196,-0.05856,0.1098,-0.0488,0.18056,0.33672,0.39528,0.32696,0.27816
0.1464,-0.122,0.0976,0.0244,-0.0488,0.0976,-0.03904,0.16104,0.3172,0.366,0.29768,0.25376
0.13664,-0.11224,0.08784,0.01952,-0.0488,0.09272,-0.03416,0.14152,0.29768,0.33672,0.27816,0.23424
0.122,-0.10736,0.09272,0.03172,-0.02928,0.07564,-0.02928,0.13176,0.28304,0.2928,0.25864,0.21472
0.10248,-0.09272,0.08296,0.03172,-0.01952,0.061,-0.02928,0.11224,0.25864,0.25376,0.22448,0.18544
0.08784,-0.08052,0.0732,0.02928,-0.01464,0.05124,-0.03416,0.10248,0.22936,0.1952,0.18544,0.15128
0.0732,-0.06588,0.05856,0.02196,-0.01464,0.04392,-0.02928,0.07808,0.20496,0.13664,0.15616,0.13176
0.05368,-0.04636,0.03904,0.0122,-0.01464,0.03416,-0.02928,0.05368,0.17568,0.07808,0.12688,0.11224
0.0488,-0.03904,0.02928,0.00488,-0.01952,0.03416,-0.0244,0.0488,0.1464,0.04392,0.10248,0.09272
0.04392,-0.0366,0.02928,0.00732,-0.01464,0.02928,-0.01464,0.04392,0.11712,0.00976,0.07808,0.08296
0.03416,-0.02684,0.01952,0.00244,-0.01464,0.0244,-0.00976,0.03904,0.09272,-0.01464,0.05856,0.06344
0.01464,-0.01464,0.01464,0.00732,0,0.00732,-0.00488,0.0244,0.08296,-0.03416,0.05368,0.05368
0.00976,-0.00488,0,-0.00488,-0.00976,0.00976,0,0.0244,0.06344,-0.0488,0.03416,0.04392
0,0.00976,-0.01952,-0.01952,-0.01952,0.00976,0.00976,0.01464,0.06832,-0.05368,0.03904,0.04392
0,0.0122,-0.0244,-0.0244,-0.0244,0.0122,0.0244,0.01464,0.05856,-0.06344,0.03416,0.03904
-0.00976,0.0244,-0.03904,-0.03416,-0.02928,0.00976,0.0244,0.00488,0.0488,-0.0732,0.0244,0.02928
-0.01464,0.02684,-0.03904,-0.03172,-0.0244,0.00488,0.0244,0.00488,0.04392,-0.0732,0.01952,0.02928
-0.01464,0.02684,-0.03904,-0.03172,-0.0244,0.00488,0.01952,0.00488,0.02928,-0.07808,0.00976,0.01464
-0.01952,0.02684,-0.03416,-0.0244,-0.01464,-0.00244,0.00976,0.00488,0.02928,-0.07808,0.00488,0.01464
-0.01952,0.02928,-0.03904,-0.02928,-0.01952,0,0.00976,0.00488,0.02928,-0.07808,0.00488,0.00488
-0.01952,0.02928,-0.03904,-0.02928,-0.01952,0,0.00976,0.00488,0.02928,-0.07808,0.00488,0.00488
-0.00976,0.01952,-0.02928,-0.0244,-0.01952,0.00488,0.01952,-0.00488,0.02928,-0.08784,-0.00976,0
-0.00976,0.01952,-0.02928,-0.0244,-0.01952,0.00488,0.01952,-0.00488,0.02928,-0.08784,-0.00976,0
0,0.01708,-0.03416,-0.03416,-0.03416,0.01708,0.00976,0.00488,0.03416,-0.08784,-0.00976,0
0,0.01708,-0.03416,-0.03416,-0.03416,0.01708,0.00976,0,0.03416,-0.08784,-0.00976,0
0.00488,0.00976,-0.0244,-0.02684,-0.02928,0.01708,0.01952,0.00976,0.03416,-0.08296,-0.00976,0.00976
0.00488,0.00732,-0.01952,-0.02196,-0.0244,0.01464,0.01952,0.00976,0.03416,-0.0732,0.00488,0.00976
0.00488,0.00732,-0.01952,-0.02196,-0.0244,0.01464,0.02928,0.00976,0.03416,-0.05856,0.01952,0.01952
0.00488,0.00732,-0.01952,-0.02196,-0.0244,0.01464,0.02928,0.00488,0.02928,-0.05856,0.01952,0.01952
0,0.01464,-0.02928,-0.02928,-0.02928,0.01464,0.01952,-0.00488,0.02928,-0.05856,0.00976,0.01952
-0.00976,0.01952,-0.02928,-0.0244,-0.01952,0.00488,0.01464,-0.00488,0.02928,-0.05856,0.00976,0.01952
-0.01464,0.02684,-0.03904,-0.03172,-0.0244,0.00488,0.00488,-0.00488,0.0244,-0.06832,0,0.01952
-0.01464,0.0244,-0.03416,-0.02684,-0.01952,0.00244,0.00488,-0.00488,0.0244,-0.06832,0,0.01952
-0.00976,0.02196,-0.03416,-0.02928,-0.0244,0.00732,0.00976,0.00488,0.0244,-0.06832,0,0.01952
0,0.01708,-0.03416,-0.03416,-0.03416,0.01708,0.01952,0.00488,0.0244,-0.0732,0,0.01952
-0.00488,0.02196,-0.03904,-0.0366,-0.03416,0.01464,0.0244,0,0.00976,-0.06344,0.00488,0.00976
-0.00488,0.02196,-0.03904,-0.0366,-0.03416,0.01464,0.0244,0,0.00976,-0.06344,0.00488,0.00976
-0.00488,0.01708,-0.02928,-0.02684,-0.0244,0.00976,0.00976,0,0.01952,-0.05368,0.00488,0.00976
-0.00488,0.01708,-0.02928,-0.02684,-0.0244,0.00976,0.00488,-0.00976,0.01464,-0.05856,0,0.00488
-0.00976,0.01952,-0.02928,-0.0244,-0.01952,0.00488,0,-0.01464,0.01464,-0.05856,0.00976,0.00488
-0.00976,0.01952,-0.02928,-0.0244,-0.01952,0.00488,0.00976,-0.01952,0.01464,-0.05856,0.00976,0.00488
-0.00976,0.02196,-0.03416,-0.02928,-0.0244,0.00732,0.01464,-0.00976,0.00976,-0.06344,0,0.00976
-0.00976,0.02196,-0.03416,-0.02928,-0.0244,0.00732,0.01464,-0.00976,0,-0.06344,-0.00488,0.00976
-0.00976,0.02196,-0.03416,-0.02928,-0.0244,0.00732,0.00488,-0.00976,-0.00976,-0.06832,-0.00976,0
-0.00976,0.02196,-0.03416,-0.02928,-0.0244,0.00732,0.00488,-0.01464,-0.00976,-0.06832,-0.00976,0
-0.00976,0.0244,-0.03904,-0.03416,-0.02928,0.00976,0.01464,-0.00976,-0.01952,-0.0732,-0.01464,-0.00488
-0.01464,0.02928,-0.04392,-0.0366,-0.02928,0.00732,0.01952,0,-0.01952,-0.07808,-0.01464,0.00488
-0.01464,0.0244,-0.03416,-0.02684,-0.01952,0.00244,0.00976,-0.00488,-0.01464,-0.07808,-0.01464,0
-0.01464,0.0244,-0.03416,-0.02684,-0.01952,0.00244,0.00976,-0.00488,-0.01464,-0.08296,-0.01952,0
-0.01464,0.02196,-0.02928,-0.02196,-0.01464,0,0.00976,-0.01952,-0.01464,-0.08296,-0.01952,0
-0.00488,0.01708,-0.02928,-0.02684,-0.0244,0.00976,0.00976,-0.01952,-0.01952,-0.08296,-0.01952,0
-0.00976,0.01952,-0.02928,-0.0244,-0.01952,0.00488,0.01952,-0.01952,-0.02928,-0.08784,-0.01952,-0.00488
-0.00976,0.02196,-0.03416,-0.02928,-0.0244,0.00732,0.01952,-0.01952,-0.03416,-0.09272,-0.01952,-0.00488
-0.01952,0.02928,-0.03904,-0.02928,-0.01952,0,0.0244,-0.01952,-0.03416,-0.09272,-0.0244,-0.01952
-0.0244,0.03416,-0.04392,-0.03172,-0.01952,-0.00244,0.0244,-0.0244,-0.03416,-0.09272,-0.0244,-0.01952
-0.01464,0.02684,-0.03904,-0.03172,-0.0244,0.00488,0.00976,-0.0244,-0.03904,-0.08296,-0.02928,-0.01952
-0.01464,0.02928,-0.04392,-0.0366,-0.02928,0.00732,0.00976,-0.0244,-0.03904,-0.08784,-0.02928,-0.01952
-0.01464,0.0244,-0.03416,-0.02684,-0.01952,0.00244,0.00976,-0.01464,-0.03904,-0.07808,-0.01952,-0.01952
-0.01464,0.02684,-0.03904,-0.03172,-0.0244,0.00488,0.00976,-0.01464,-0.04392,-0.07808,-0.0244,-0.01952
-0.01464,0.02684,-0.03904,-0.03172,-0.0244,0.00488,0,-0.01464,-0.04392,-0.07808,-0.0244,-0.0244
-0.01464,0.02684,-0.03904,-0.03172,-0.0244,0.00488,0.00488,-0.01464,-0.04392,-0.08296,-0.0244,-0.0244
-0.00488,0.0244,-0.04392,-0.04148,-0.03904,0.01708,0.00488,-0.01464,-0.03416,-0.08296,-0.0244,-0.01464
-0.00488,0.0244,-0.04392,-0.04148,-0.03904,0.01708,0.00488,-0.01464,-0.03904,-0.08296,-0.0244,-0.00976
-0.01464,0.03416,-0.05368,-0.04636,-0.03904,0.0122,0.01464,-0.00976,-0.04392,-0.08296,-0.0244,-0.00976
-0.01464,0.03416,-0.05368,-0.04636,-0.03904,0.0122,0.01464,-0.00976,-0.04392,-0.08296,-0.0244,-0.01464
-0.0244,0.03904,-0.05368,-0.04148,-0.02928,0.00244,0.01464,-0.00976,-0.04392,-0.08784,-0.0244,-0.01464
-0.0244,0.0366,-0.0488,-0.0366,-0.0244,0,0.01464,-0.00976,-0.04392,-0.08784,-0.0244,-0.01952
-0.01952,0.03416,-0.0488,-0.03904,-0.02928,0.00488,0.01464,-0.00976,-0.03416,-0.08784,-0.03416,-0.01464
-0.01952,0.0366,-0.05368,-0.04392,-0.03416,0.00732,0.01464,-0.00976,-0.03904,-0.08784,-0.03416,-0.01952
-0.02928,0.04148,-0.05368,-0.03904,-0.0244,-0.00244,0,-0.01952,-0.0488,-0.08784,-0.03416,-0.0244
-0.0244,0.03904,-0.05368,-0.04148,-0.02928,0.00244,-0.00488,-0.0244,-0.04392,-0.08784,-0.03416,-0.0244
-0.0244,0.04148,-0.05856,-0.04636,-0.03416,0.00488,0.01464,-0.01464,-0.04392,-0.08296,-0.03416,-0.01464
-0.00976,0.02928,-0.0488,-0.04392,-0.03904,0.01464,0.01952,0,-0.0488,-0.08784,-0.02928,-0.01952
-0.00976,0.02928,-0.0488,-0.04392,-0.03904,0.01464,0.01952,0,-0.0488,-0.08784,-0.02928,-0.01952
0,0.01952,-0.03904,-0.03904,-0.03904,0.01952,0.01952,0.00488,-0.03904,-0.08296,-0.01952,-0.00976
0,0.01708,-0.03416,-0.03416,-0.03416,0.01708,0.01952,0.00488,-0.03416,-0.07808,-0.01952,-0.00976
-0.00488,0.0244,-0.04392,-0.04148,-0.03904,0.01708,0.01464,0.00488,-0.0488,-0.0732,-0.02928,-0.00976
-0.00488,0.0244,-0.04392,-0.04148,-0.03904,0.01708,0.00976,0,-0.0488,-0.0732,-0.02928,-0.01464
-0.00488,0.02196,-0.03904,-0.0366,-0.03416,0.01464,0.00976,0,-0.0488,-0.0732,-0.02928,-0.00976
-0.00488,0.01708,-0.02928,-0.02684,-0.0244,0.00976,0,-0.00488,-0.03904,-0.05856,-0.0244,-0.00488
-0.01464,0.01708,-0.01952,-0.0122,-0.00488,-0.00488,-0.01952,-0.01464,-0.0244,-0.05856,-0.01464,-0.00976
-0.00976,0.00488,0,0.00488,0.00976,-0.00976,-0.0244,-0.0244,-0.01464,-0.0488,-0.00488,0
0,-0.01464,0.02928,0.02928,0.02928,-0.01464,-0.03904,-0.02928,-0.00488,-0.04392,-0.00488,0
0.00488,-0.0244,0.04392,0.04148,0.03904,-0.01708,-0.0488,-0.03904,0,-0.03904,0,0.00488
0.01464,-0.03416,0.05368,0.04636,0.03904,-0.0122,-0.04392,-0.02928,0.01464,-0.0244,0.01464,0.00488
0.01952,-0.03904,0.05856,0.0488,0.03904,-0.00976,-0.0488,-0.03416,0.01952,-0.01952,0.01464,0.00976
0.01952,-0.03904,0.05856,0.0488,0.03904,-0.00976,-0.03904,-0.03416,0.01952,-0.00976,0.01952,0.01464
0.01952,-0.04392,0.06832,0.05856,0.0488,-0.01464,-0.0488,-0.02928,0.02928,-0.00488,0.03416,0.01952
0.02928,-0.05368,0.07808,0.06344,0.0488,-0.00976,-0.05856,-0.03416,0.03416,0.00488,0.03904,0.02928
0.02928,-0.061,0.09272,0.07808,0.06344,-0.01708,-0.06832,-0.0488,0.03416,0.00488,0.04392,0.02928
0.03416,-0.06832,0.10248,0.0854,0.06832,-0.01708,-0.08296,-0.0488,0.02928,0.01464,0.03416,0.03416
0.03416,-0.07076,0.10736,0.09028,0.0732,-0.01952,-0.08784,-0.05368,0.01464,0.00488,0.03416,0.03416
0.03904,-0.06832,0.0976,0.07808,0.05856,-0.00976,-0.08784,-0.05856,0.00488,0,0.01952,0.03416
0.03904,-0.07564,0.11224,0.09272,0.0732,-0.01708,-0.09272,-0.05856,0.00488,-0.00488,0.01952,0.02928
0.04392,-0.08052,0.11712,0.09516,0.0732,-0.01464,-0.09272,-0.05856,0.00488,0.00488,0.01952,0.03416
0.05368,-0.0854,0.11712,0.09028,0.06344,-0.00488,-0.08784,-0.04392,0.00488,0.00488,0.01952,0.03904
0.06344,-0.08296,0.10248,0.07076,0.03904,0.0122,-0.08784,-0.02928,-0.01464,-0.00488,0.01464,0.03416
0.06344,-0.07076,0.07808,0.04636,0.01464,0.0244,-0.07808,-0.01952,-0.03416,-0.01952,0.00488,0.0244
0.06344,-0.05856,0.05368,0.02196,-0.00976,0.0366,-0.05856,-0.01464,-0.05368,-0.03416,0,0.01952
0.0488,-0.04148,0.03416,0.00976,-0.01464,0.03172,-0.0488,-0.01464,-0.06832,-0.0488,-0.01464,0.00976
0.03904,-0.03904,0.03904,0.01952,0,0.01952,-0.03904,0,-0.06344,-0.04392,-0.0244,0.00976
0.01952,-0.01708,0.01464,0.00488,-0.00488,0.0122,-0.0244,0,-0.06344,-0.0488,-0.02928,0.00488
-0.00488,0.00732,-0.00976,-0.00732,-0.00488,0,-0.00488,0,-0.0732,-0.05856,-0.03416,-0.00976
-0.01464,0.02196,-0.02928,-0.02196,-0.01464,0,0,0.00488,-0.0732,-0.06832,-0.04392,-0.01464
-0.02928,0.04392,-0.05856,-0.04392,-0.02928,0,0.00488,0.01464,-0.08784,-0.0732,-0.05368,-0.03416
-0.03904,0.05368,-0.06832,-0.0488,-0.02928,-0.00488,0.01464,0.01464,-0.08784,-0.08296,-0.05856,-0.04392
-0.02928,0.0488,-0.06832,-0.05368,-0.03904,0.00488,0.01464,0.0244,-0.08296,-0.08784,-0.07808,-0.0488
-0.02928,0.05124,-0.0732,-0.05856,-0.04392,0.00732,0.01464,0.0244,-0.08784,-0.08784,-0.07808,-0.0488
-0.02928,0.05124,-0.0732,-0.05856,-0.04392,0.00732,0.01952,0.0244,-0.08784,-0.08296,-0.07808,-0.0488
-0.02928,0.05368,-0.07808,-0.06344,-0.0488,0.00976,0.01464,0.02928,-0.09272,-0.08296,-0.07808,-0.0488
-0.02928,0.05368,-0.07808,-0.06344,-0.0488,0.00976,0.02928,0.02928,-0.09272,-0.08296,-0.07808,-0.0488
-0.02928,0.05612,-0.08296,-0.06832,-0.05368,0.0122,0.0244,0.02928,-0.09272,-0.07808,-0.0732,-0.0488
-0.02928,0.05612,-0.08296,-0.06832,-0.05368,0.0122,0.0244,0.03904,-0.09272,-0.0732,-0.06344,-0.0488
-0.02928,0.05612,-0.08296,-0.06832,-0.05368,0.0122,0.02928,0.03904,-0.08784,-0.07808,-0.06832,-0.0488
-0.0244,0.05856,-0.09272,-0.08052,-0.06832,0.02196,0.03416,0.0488,-0.08784,-0.06832,-0.06832,-0.05856
-0.0244,0.061,-0.0976,-0.0854,-0.0732,0.0244,0.03416,0.0488,-0.08784,-0.06832,-0.06832,-0.05856
-0.03416,0.06588,-0.0976,-0.08052,-0.06344,0.01464,0.04392,0.06344,-0.06832,-0.05856,-0.06832,-0.05856
-0.03416,0.07076,-0.10736,-0.09028,-0.0732,0.01952,0.0488,0.07808,-0.05368,-0.0488,-0.0732,-0.06832
-0.03416,0.06832,-0.10248,-0.0854,-0.06832,0.01708,0.0488,0.09272,0,-0.00488,-0.0488,-0.05856
-0.01464,0.0488,-0.08296,-0.07564,-0.06832,0.02684,0.0488,0.11224,0.0732,0.06832,0.00976,-0.02928
0.0244,0.01464,-0.05368,-0.06588,-0.07808,0.05124,0.04392,0.14152,0.15616,0.16592,0.10736,0.05368
0.10736,-0.0488,-0.00976,-0.06344,-0.11712,0.11224,0.02928,0.18544,0.27328,0.31232,0.27328,0.18544
0.25864,-0.16104,0.06344,-0.06588,-0.1952,0.22692,0.01464,0.28304,0.44408,0.53192,0.51728,0.41968
0.45384,-0.305,0.15616,-0.07076,-0.29768,0.37576,-0.0244,0.39528,0.68808,0.854,0.86376,0.71736
0.68808,-0.49776,0.30744,-0.0366,-0.38064,0.53436,-0.08784,0.5124,0.98576,1.21024,1.25904,1.0736
0.85888,-0.67344,0.488,0.05856,-0.37088,0.61488,-0.15128,0.55632,1.26392,1.52256,1.58112,1.36152
0.85888,-0.71004,0.5612,0.13176,-0.29768,0.57828,-0.20008,0.47336,1.30784,1.51768,1.55672,1.37616
0.65392,-0.61488,0.57584,0.24888,-0.07808,0.366,-0.21472,0.24888,1.05896,1.18584,1.18584,1.10288
0.30256,-0.40992,0.51728,0.366,0.21472,0.04392,-0.21472,-0.05368,0.57096,0.60512,0.5856,0.62464
-0.03416,-0.2074,0.44896,0.46604,0.48312,-0.25864,-0.20008,-0.35136,0.01464,0,-0.0244,0.14152
-0.244,-0.10004,0.44408,0.56608,0.68808,-0.46604,-0.25376,-0.55144,-0.42456,-0.38552,-0.38064,-0.15616
-0.27816,-0.0854,0.44896,0.58804,0.72712,-0.50264,-0.30256,-0.59536,-0.62464,-0.52704,-0.488,-0.25376
-0.22936,-0.09516,0.41968,0.53436,0.64904,-0.4392,-0.33672,-0.52704,-0.67344,-0.52216,-0.47336,-0.26352
-0.1464,-0.10004,0.34648,0.41968,0.49288,-0.31964,-0.32696,-0.40504,-0.62464,-0.47336,-0.42456,-0.23912
-0.0732,-0.08784,0.24888,0.28548,0.32208,-0.19764,-0.27816,-0.27328,-0.5368,-0.40992,-0.35136,-0.20008
-0.02928,-0.05856,0.1464,0.16104,0.17568,-0.10248,-0.20008,-0.15616,-0.44408,-0.34648,-0.30744,-0.1708
-0.01464,-0.03172,0.07808,0.0854,0.09272,-0.05368,-0.13664,-0.08296,-0.34648,-0.27816,-0.25864,-0.14152
-0.00976,-0.00732,0.0244,0.02928,0.03416,-0.02196,-0.08296,-0.0244,-0.24888,-0.1952,-0.1952,-0.11712
-0.01952,0.00976,0,0.00976,0.01952,-0.01952,-0.0488,0.00488,-0.16592,-0.13664,-0.1464,-0.0976
-0.0244,0.03172,-0.03904,-0.02684,-0.01464,-0.00488,-0.01464,0.03416,-0.11224,-0.09272,-0.11224,-0.08296
-0.0244,0.04392,-0.06344,-0.05124,-0.03904,0.00732,0,0.0488,-0.08296,-0.07808,-0.0976,-0.0732
-0.01952,0.04636,-0.0732,-0.06344,-0.05368,0.01708,0.00488,0.05856,-0.06832,-0.05856,-0.08784,-0.0732
-0.01464,0.05124,-0.08784,-0.08052,-0.0732,0.02928,0.01464,0.06832,-0.05856,-0.05368,-0.08296,-0.0732
-0.01464,0.05124,-0.08784,-0.08052,-0.0732,0.02928,0.01952,0.08296,-0.05368,-0.05368,-0.07808,-0.05856
-0.00976,0.0488,-0.08784,-0.08296,-0.07808,0.03416,0.0244,0.08784,-0.0488,-0.0488,-0.07808,-0.06344
0,0.0488,-0.0976,-0.0976,-0.0976,0.0488,0.0244,0.0976,-0.03416,-0.04392,-0.0732,-0.05856
0.00488,0.04636,-0.0976,-0.10004,-0.10248,0.05368,0.0244,0.0976,-0.02928,-0.03904,-0.06832,-0.05856
0.01464,0.04148,-0.0976,-0.10492,-0.11224,0.06344,0.0244,0.0976,-0.02928,-0.02928,-0.05856,-0.04392
0.01464,0.04148,-0.0976,-0.10492,-0.11224,0.06344,0.0244,0.10248,-0.01952,-0.02928,-0.05368,-0.03904
0.00976,0.04148,-0.09272,-0.0976,-0.10248,0.05612,0.03416,0.09272,-0.01464,-0.01952,-0.0488,-0.03904
0.01464,0.03904,-0.09272,-0.10004,-0.10736,0.061,0.03416,0.0976,-0.00976,-0.01464,-0.03904,-0.03416
0.00488,0.04392,-0.09272,-0.09516,-0.0976,0.05124,0.02928,0.0976,-0.00488,-0.01952,-0.04392,-0.02928
0.00976,0.04148,-0.09272,-0.0976,-0.10248,0.05612,0.02928,0.0976,0,-0.01464,-0.03904,-0.0244
0.00976,0.04148,-0.09272,-0.0976,-0.10248,0.05612,0.03904,0.10736,0.00976,-0.01952,-0.03416,-0.02928
0.00976,0.04148,-0.09272,-0.0976,-0.10248,0.05612,0.03904,0.11224,0.01464,-0.01464,-0.03416,-0.0244
0.00488,0.04636,-0.0976,-0.10004,-0.10248,0.05368,0.03904,0.11224,0.00976,-0.01952,-0.02928,-0.01952
0.00976,0.04392,-0.0976,-0.10248,-0.10736,0.05856,0.03416,0.11224,0.01952,-0.01464,-0.01952,-0.01464
0.0244,0.03172,-0.08784,-0.10004,-0.11224,0.06832,0.0244,0.11224,0.01952,-0.00488,-0.01952,-0.00976
0.0244,0.03172,-0.08784,-0.10004,-0.11224,0.06832,0.0244,0.11224,0.0244,-0.00488,-0.00976,-0.00488
0.0244,0.02928,-0.08296,-0.09516,-0.10736,0.06588,0.03416,0.11712,0.02928,0.00488,0.00488,0.00488
0.02928,0.0244,-0.07808,-0.09272,-0.10736,0.06832,0.02928,0.11712,0.03416,0.01464,0.00976,0.00488
0.0244,0.02928,-0.08296,-0.09516,-0.10736,0.06588,0.02928,0.10736,0.03904,0.01464,0.01952,0.01464
0.02928,0.0244,-0.07808,-0.09272,-0.10736,0.06832,0.0244,0.10736,0.03904,0.01952,0.0244,0.01464
0.03416,0.0122,-0.05856,-0.07564,-0.09272,0.06344,0.02928,0.10736,0.05368,0.02928,0.02928,0.0244
0.03416,0.00976,-0.05368,-0.07076,-0.08784,0.061,0.02928,0.11224,0.06344,0.03416,0.03904,0.02928
0.03904,0.00732,-0.05368,-0.0732,-0.09272,0.06588,0.03416,0.11224,0.06344,0.05368,0.03904,0.03416
0.04392,0.00488,-0.05368,-0.07564,-0.0976,0.07076,0.03416,0.11224,0.06832,0.06344,0.0488,0.04392
0.03904,0.00488,-0.0488,-0.06832,-0.08784,0.06344,0.02928,0.10248,0.07808,0.07808,0.05856,0.04392
0.04392,-0.00244,-0.03904,-0.061,-0.08296,0.06344,0.02928,0.11224,0.08296,0.08784,0.06344,0.05856
0.05368,-0.00244,-0.0488,-0.07564,-0.10248,0.07808,0.0244,0.11224,0.09272,0.08784,0.0732,0.06832
0.05856,-0.00732,-0.04392,-0.0732,-0.10248,0.08052,0.0244,0.11224,0.10248,0.0976,0.08296,0.0732
0.0732,-0.02196,-0.02928,-0.06588,-0.10248,0.08784,0.01952,0.11712,0.11224,0.10736,0.10248,0.08784
0.08296,-0.03172,-0.01952,-0.061,-0.10248,0.09272,0.00976,0.122,0.122,0.11712,0.11224,0.09272
0.07808,-0.02928,-0.01952,-0.05856,-0.0976,0.08784,0.00488,0.11224,0.14152,0.13664,0.12688,0.10248
0.08296,-0.03416,-0.01464,-0.05612,-0.0976,0.09028,0.00488,0.11712,0.15128,0.15128,0.1464,0.11224
0.09272,-0.04636,0,-0.04636,-0.09272,0.09272,0.00976,0.122,0.16592,0.1708,0.15616,0.12688
0.10248,-0.05612,0.00976,-0.04148,-0.09272,0.0976,0.00976,0.12688,0.18056,0.18544,0.18056,0.13664
0.10736,-0.061,0.01464,-0.03904,-0.09272,0.10004,0.01464,0.12688,0.20008,0.20496,0.19032,0.1464
0.11712,-0.07076,0.0244,-0.03416,-0.09272,0.10492,0.00976,0.13176,0.21472,0.22936,0.20984,0.16104
0.11712,-0.0732,0.02928,-0.02928,-0.08784,0.10248,0,0.12688,0.2196,0.25864,0.21472,0.16592
0.11712,-0.07564,0.03416,-0.0244,-0.08296,0.10004,-0.00488,0.13176,0.23424,0.27328,0.22448,0.17568
0.13664,-0.09028,0.04392,-0.0244,-0.09272,0.11468,-0.01464,0.13664,0.24888,0.29768,0.23912,0.18544
0.13664,-0.09272,0.0488,-0.01952,-0.08784,0.11224,-0.01952,0.13664,0.25864,0.31232,0.25376,0.1952
0.1464,-0.0976,0.0488,-0.0244,-0.0976,0.122,-0.01952,0.1464,0.26352,0.33672,0.27816,0.20496
0.1464,-0.10004,0.05368,-0.01952,-0.09272,0.11956,-0.0244,0.15128,0.28304,0.35136,0.28792,0.2196
0.1464,-0.10492,0.06344,-0.00976,-0.08296,0.11468,-0.0244,0.1464,0.28304,0.366,0.2928,0.2196
0.15128,-0.10736,0.06344,-0.0122,-0.08784,0.11956,-0.02928,0.1464,0.2928,0.37576,0.30256,0.23424
0.16104,-0.11956,0.07808,-0.00244,-0.08296,0.122,-0.01952,0.16104,0.31232,0.39528,0.32208,0.24888
0.16104,-0.122,0.08296,0.00244,-0.07808,0.11956,-0.01952,0.16592,0.32208,0.40992,0.32696,0.24888
0.1708,-0.12688,0.08296,-0.00244,-0.08784,0.12932,-0.01952,0.16104,0.3172,0.42944,0.32696,0.25376
0.1708,-0.12688,0.08296,-0.00244,-0.08784,0.12932,-0.01952,0.16104,0.32208,0.43432,0.33672,0.25376
0.16104,-0.11712,0.0732,-0.00732,-0.08784,0.12444,-0.01952,0.15128,0.32208,0.42944,0.32696,0.25864
0.15128,-0.11224,0.0732,-0.00244,-0.07808,0.11468,-0.01952,0.1464,0.3172,0.41968,0.3172,0.24888
0.1464,-0.10736,0.06832,-0.00488,-0.07808,0.11224,-0.01952,0.13664,0.29768,0.40016,0.29768,0.23424
0.13664,-0.0976,0.05856,-0.00976,-0.07808,0.10736,-0.01464,0.12688,0.27816,0.38064,0.27816,0.21472
0.13176,-0.09272,0.05368,-0.0122,-0.07808,0.10492,-0.00976,0.122,0.26352,0.36112,0.25864,0.20496
0.11224,-0.07808,0.04392,-0.0122,-0.06832,0.09028,-0.00976,0.10248,0.23912,0.3416,0.22448,0.17568
0.10736,-0.07076,0.03416,-0.01952,-0.0732,0.09028,-0.00488,0.0976,0.2196,0.32208,0.1952,0.15128
0.09272,-0.05612,0.01952,-0.02684,-0.0732,0.08296,0,0.08296,0.1952,0.30256,0.16592,0.13176
0.06344,-0.0366,0.00976,-0.02196,-0.05368,0.05856,0.00976,0.08296,0.16104,0.2928,0.1464,0.11224
0.05856,-0.02928,0,-0.02928,-0.05856,0.05856,0.01464,0.07808,0.14152,0.27816,0.122,0.09272
0.04392,-0.0122,-0.01952,-0.04148,-0.06344,0.05368,0.0244,0.0732,0.11712,0.2684,0.0976,0.08296
0.03416,-0.00244,-0.02928,-0.04636,-0.06344,0.0488,0.02928,0.06832,0.09272,0.25376,0.07808,0.06344
0.0244,0.00488,-0.03416,-0.04636,-0.05856,0.04148,0.03416,0.06344,0.08296,0.23912,0.06344,0.04392
0.01952,0.01464,-0.0488,-0.05856,-0.06832,0.04392,0.03904,0.06344,0.06344,0.22448,0.04392,0.03416
0.00976,0.01952,-0.0488,-0.05368,-0.05856,0.03416,0.03416,0.06344,0.05856,0.22936,0.02928,0.03416
0.00976,0.02196,-0.05368,-0.05856,-0.06344,0.0366,0.03904,0.06344,0.0488,0.2196,0.0244,0.02928
0.00976,0.02928,-0.06832,-0.0732,-0.07808,0.04392,0.04392,0.0732,0.0488,0.20008,0.01464,0.00976
0.00488,0.03172,-0.06832,-0.07076,-0.0732,0.03904,0.04392,0.0732,0.04392,0.20008,0.00976,0.00976
0.00488,0.03172,-0.06832,-0.07076,-0.0732,0.03904,0.05368,0.0732,0.03904,0.18544,0.00976,0.00488
0,0.03172,-0.06344,-0.06344,-0.06344,0.03172,0.05368,0.0732,0.03904,0.18544,0.00488,0.00488
0.00976,0.02928,-0.06832,-0.0732,-0.07808,0.04392,0.05856,0.0732,0.03904,0.18544,0.00488,0.00488
0.00976,0.02928,-0.06832,-0.0732,-0.07808,0.04392,0.05856,0.0732,0.03904,0.18544,0.00488,0.00488
0,0.03416,-0.06832,-0.06832,-0.06832,0.03416,0.06832,0.0732,0.03904,0.17568,0.00976,0
0,0.03416,-0.06832,-0.06832,-0.06832,0.03416,0.06832,0.0732,0.03904,0.17568,0.00976,0
0,0.03172,-0.06344,-0.06344,-0.06344,0.03172,0.06832,0.08296,0.03416,0.16592,0,0
0,0.03172,-0.06344,-0.06344,-0.06344,0.03172,0.06832,0.07808,0.03416,0.16592,0,0
-0.01464,0.04148,-0.06832,-0.061,-0.05368,0.01952,0.06832,0.07808,0.0244,0.15616,-0.00488,0
-0.01464,0.04392,-0.0732,-0.06588,-0.05856,0.02196,0.06832,0.07808,0.0244,0.15616,0,0
-0.01464,0.04636,-0.07808,-0.07076,-0.06344,0.0244,0.05856,0.07808,0.0244,0.15616,0,0
-0.01464,0.04636,-0.07808,-0.07076,-0.06344,0.0244,0.05856,0.0732,0.01952,0.15616,0,0
-0.00488,0.04148,-0.07808,-0.07564,-0.0732,0.03416,0.05856,0.0732,0.01952,0.1464,0,0
-0.00488,0.04148,-0.07808,-0.07564,-0.0732,0.03416,0.05368,0.0732,0.01952,0.1464,0,0
-0.00488,0.04148,-0.07808,-0.07564,-0.0732,0.03416,0.05368,0.0732,0.01464,0.13664,0,0
-0.00488,0.03904,-0.0732,-0.07076,-0.06832,0.03172,0.05368,0.0732,0.01464,0.13664,0,0
-0.00488,0.04392,-0.08296,-0.08052,-0.07808,0.0366,0.06344,0.0732,0.0244,0.13664,0,0
-0.00488,0.04392,-0.08296,-0.08052,-0.07808,0.0366,0.06344,0.0732,0.0244,0.13176,0,0
-0.00488,0.04148,-0.07808,-0.07564,-0.0732,0.03416,0.0732,0.07808,0.01952,0.13176,0.00488,0
-0.00488,0.04148,-0.07808,-0.07564,-0.0732,0.03416,0.0732,0.07808,0.01952,0.13176,0.00488,0
-0.01464,0.05124,-0.08784,-0.08052,-0.0732,0.02928,0.0732,0.08296,0.01952,0.122,-0.00488,0
-0.01464,0.05124,-0.08784,-0.08052,-0.0732,0.02928,0.07808,0.08296,0.01464,0.11712,-0.00976,-0.00488
-0.01952,0.05368,-0.08784,-0.07808,-0.06832,0.0244,0.0732,0.09272,0.00488,0.10736,-0.01952,-0.00488
-0.01952,0.05368,-0.08784,-0.07808,-0.06832,0.0244,0.0732,0.08784,0.00488,0.10736,-0.01952,-0.00488
-0.01952,0.05124,-0.08296,-0.0732,-0.06344,0.02196,0.06344,0.07808,0,0.09272,-0.01952,-0.01952
-0.01952,0.05124,-0.08296,-0.0732,-0.06344,0.02196,0.06344,0.07808,-0.00976,0.09272,-0.0244,-0.01952
-0.01952,0.05612,-0.09272,-0.08296,-0.0732,0.02684,0.06344,0.07808,0,0.08784,-0.02928,-0.01952
-0.01952,0.05612,-0.09272,-0.08296,-0.0732,0.02684,0.06344,0.0732,0,0.08784,-0.02928,-0.01952
-0.01952,0.05856,-0.0976,-0.08784,-0.07808,0.02928,0.0732,0.0732,-0.01952,0.0732,-0.03416,-0.01952
-0.0244,0.06344,-0.10248,-0.09028,-0.07808,0.02684,0.07808,0.0732,-0.01952,0.06832,-0.03416,-0.01952
-0.0244,0.06344,-0.10248,-0.09028,-0.07808,0.02684,0.07808,0.0732,-0.0244,0.06832,-0.03416,-0.01952
-0.0244,0.06344,-0.10248,-0.09028,-0.07808,0.02684,0.07808,0.0732,-0.0244,0.06344,-0.03904,-0.01952
-0.02928,0.06832,-0.10736,-0.09272,-0.07808,0.0244,0.07808,0.07808,-0.0244,0.05368,-0.03904,-0.01952
-0.02928,0.06832,-0.10736,-0.09272,-0.07808,0.0244,0.07808,0.07808,-0.02928,0.05368,-0.03904,-0.01952
-0.03904,0.07808,-0.11712,-0.0976,-0.07808,0.01952,0.08784,0.07808,-0.02928,0.0488,-0.03904,-0.0244
-0.03904,0.08052,-0.122,-0.10248,-0.08296,0.02196,0.08784,0.07808,-0.03416,0.04392,-0.03904,-0.0244
-0.02928,0.07076,-0.11224,-0.0976,-0.08296,0.02684,0.08296,0.07808,-0.03416,0.04392,-0.03416,-0.02928
-0.03416,0.07076,-0.10736,-0.09028,-0.0732,0.01952,0.08296,0.0732,-0.03416,0.04392,-0.03416,-0.02928
-0.03416,0.07076,-0.10736,-0.09028,-0.0732,0.01952,0.08784,0.0732,-0.03904,0.03416,-0.03904,-0.02928
-0.03416,0.0732,-0.11224,-0.09516,-0.07808,0.02196,0.08784,0.0732,-0.03904,0.02928,-0.03904,-0.02928
-0.03416,0.0732,-0.11224,-0.09516,-0.07808,0.02196,0.08784,0.08296,-0.02928,0.02928,-0.03904,-0.01952
-0.03416,0.07564,-0.11712,-0.10004,-0.08296,0.0244,0.08784,0.08296,-0.03416,0.02928,-0.04392,-0.01952
-0.03416,0.07564,-0.11712,-0.10004,-0.08296,0.0244,0.08784,0.08296,-0.03416,0.01952,-0.04392,-0.0244
-0.03416,0.07564,-0.11712,-0.10004,-0.08296,0.0244,0.09272,0.08296,-0.03416,0.01464,-0.04392,-0.0244
-0.03904,0.08052,-0.122,-0.10248,-0.08296,0.02196,0.09272,0.08296,-0.03416,0.01464,-0.04392,-0.0244
-0.0488,0.0854,-0.122,-0.0976,-0.0732,0.0122,0.09272,0.08296,-0.03904,0.01464,-0.04392,-0.01952
-0.05368,0.08784,-0.122,-0.09516,-0.06832,0.00732,0.09272,0.07808,-0.04392,0.00976,-0.05368,-0.01952
-0.05368,0.08784,-0.122,-0.09516,-0.06832,0.00732,0.09272,0.07808,-0.04392,0,-0.05368,-0.0244
-0.04392,0.08784,-0.13176,-0.1098,-0.08784,0.02196,0.08296,0.07808,-0.04392,-0.01952,-0.05368,-0.0244
-0.04392,0.0854,-0.12688,-0.10492,-0.08296,0.01952,0.08296,0.07808,-0.04392,-0.01952,-0.05368,-0.02928
-0.0488,0.08784,-0.12688,-0.10248,-0.07808,0.01464,0.09272,0.07808,-0.04392,-0.01952,-0.05368,-0.0244
-0.0488,0.09028,-0.13176,-0.10736,-0.08296,0.01708,0.09272,0.07808,-0.0488,-0.01952,-0.05368,-0.02928
-0.03904,0.0854,-0.13176,-0.11224,-0.09272,0.02684,0.0976,0.07808,-0.03904,-0.02928,-0.05368,-0.0244
-0.03904,0.08296,-0.12688,-0.10736,-0.08784,0.0244,0.0976,0.08784,-0.03904,-0.02928,-0.05856,-0.02928
-0.03904,0.07808,-0.11712,-0.0976,-0.07808,0.01952,0.0976,0.07808,-0.0488,-0.02928,-0.05856,-0.02928
-0.03904,0.07808,-0.11712,-0.0976,-0.07808,0.01952,0.0976,0.07808,-0.0488,-0.02928,-0.05856,-0.02928
-0.03904,0.07564,-0.11224,-0.09272,-0.0732,0.01708,0.08784,0.08296,-0.04392,-0.02928,-0.05856,-0.02928
-0.03904,0.07564,-0.11224,-0.09272,-0.0732,0.01708,0.09272,0.08296,-0.04392,-0.03416,-0.05856,-0.02928
-0.04392,0.07808,-0.11224,-0.09028,-0.06832,0.0122,0.08784,0.07808,-0.0488,-0.03416,-0.05856,-0.02928
-0.04392,0.07808,-0.11224,-0.09028,-0.06832,0.0122,0.08784,0.07808,-0.0488,-0.03416,-0.05856,-0.03416
-0.04392,0.07808,-0.11224,-0.09028,-0.06832,0.0122,0.09272,0.08784,-0.05856,-0.03904,-0.05856,-0.02928
-0.04392,0.07564,-0.10736,-0.0854,-0.06344,0.00976,0.08296,0.08296,-0.04392,-0.02928,-0.04392,-0.0244
-0.03416,0.05368,-0.0732,-0.05612,-0.03904,0.00244,0.06832,0.0732,-0.02928,-0.03416,-0.03904,-0.01464
-0.01952,0.0366,-0.05368,-0.04392,-0.03416,0.00732,0.05856,0.0732,-0.01952,-0.01952,-0.02928,-0.00488
-0.01952,0.02928,-0.03904,-0.02928,-0.01952,0,0.05856,0.05368,0,-0.00976,-0.01952,0
-0.01464,0.02196,-0.02928,-0.02196,-0.01464,0,0.04392,0.0488,0,-0.00976,-0.01952,0.00488
-0.00976,0.01952,-0.02928,-0.0244,-0.01952,0.00488,0.03904,0.03904,0.00488,0.00488,-0.01464,0.00976
-0.00488,0.01708,-0.02928,-0.02684,-0.0244,0.00976,0.03904,0.03416,0.01464,0.00976,-0.00976,0.00976
-0.00976,0.01708,-0.0244,-0.01952,-0.01464,0.00244,0.03904,0.0488,0.01464,0.01464,0,0.01952
0,0.00732,-0.01464,-0.01464,-0.01464,0.00732,0.0244,0.04392,0.02928,0.00976,0.00488,0.0244
0,0.00244,-0.00488,-0.00488,-0.00488,0.00244,0.0244,0.0488,0.03416,0.01464,0.00488,0.02928
0.00488,-0.00732,0.00976,0.00732,0.00488,0,0.01464,0.03416,0.02928,0.01464,0.00488,0.02928
0.00488,-0.01708,0.02928,0.02684,0.0244,-0.00976,0.00488,0.0244,0.02928,0.01464,0.01464,0.03416
0.00976,-0.01952,0.02928,0.0244,0.01952,-0.00488,0,0.01952,0.01952,0.00976,0.00976,0.03416
0.00976,-0.0244,0.03904,0.03416,0.02928,-0.00976,-0.00976,0.00976,0.00488,0.00488,0.00976,0.02928
0.01952,-0.03416,0.0488,0.03904,0.02928,-0.00488,-0.0244,0.00976,0.00488,0.00488,0.00976,0.02928
0.02928,-0.04392,0.05856,0.04392,0.02928,0,-0.03416,0.00488,0.00488,0.00488,0.00976,0.03416
0.03416,-0.04636,0.05856,0.04148,0.0244,0.00488,-0.0244,0.01464,-0.00488,0.00488,0.00488,0.03904
0.04392,-0.04636,0.0488,0.02684,0.00488,0.01952,-0.01464,0.0244,-0.01952,0,0.00976,0.04392
0.04392,-0.0366,0.02928,0.00732,-0.01464,0.02928,-0.00488,0.03416,-0.0244,-0.00976,0,0.02928
0.03416,-0.01464,-0.00488,-0.02196,-0.03904,0.0366,0.01464,0.03416,-0.02928,-0.0244,-0.00976,0.03416
0.0244,-0.00488,-0.01464,-0.02684,-0.03904,0.03172,0.0244,0.03416,-0.03904,-0.02928,-0.00976,0.0244
0.00488,0.01708,-0.03904,-0.04148,-0.04392,0.0244,0.03416,0.03904,-0.05368,-0.0488,-0.0244,0.01464
-0.00976,0.03416,-0.05856,-0.05368,-0.0488,0.01952,0.0488,0.03904,-0.05368,-0.0488,-0.03416,0.00488
-0.01952,0.04392,-0.06832,-0.05856,-0.0488,0.01464,0.05368,0.03416,-0.06344,-0.06344,-0.03904,0
-0.03904,0.06344,-0.08784,-0.06832,-0.0488,0.00488,0.0732,0.04392,-0.06832,-0.0732,-0.0488,-0.00976
-0.04392,0.08052,-0.11712,-0.09516,-0.0732,0.01464,0.08296,0.04392,-0.06832,-0.0732,-0.05368,-0.02928
-0.0488,0.0854,-0.122,-0.0976,-0.0732,0.0122,0.08784,0.0488,-0.0732,-0.08784,-0.06344,-0.03416
-0.0488,0.09516,-0.14152,-0.11712,-0.09272,0.02196,0.09272,0.05368,-0.06832,-0.08784,-0.06832,-0.03904
-0.0488,0.09516,-0.14152,-0.11712,-0.09272,0.02196,0.0976,0.05368,-0.06832,-0.08784,-0.06832,-0.03904
-0.0488,0.10248,-0.15616,-0.13176,-0.10736,0.02928,0.10248,0.05856,-0.0732,-0.09272,-0.07808,-0.03904
-0.0488,0.10248,-0.15616,-0.13176,-0.10736,0.02928,0.10736,0.05856,-0.0732,-0.09272,-0.07808,-0.03904
-0.05856,0.10492,-0.15128,-0.122,-0.09272,0.01708,0.11224,0.0488,-0.0732,-0.10248,-0.07808,-0.03904
-0.05856,0.10492,-0.15128,-0.122,-0.09272,0.01708,0.11224,0.0488,-0.0732,-0.0976,-0.0732,-0.03904
-0.0488,0.09516,-0.14152,-0.11712,-0.09272,0.02196,0.11712,0.0488,-0.0732,-0.09272,-0.0732,-0.03904
-0.0488,0.09516,-0.14152,-0.11712,-0.09272,0.02196,0.122,0.0488,-0.06832,-0.0976,-0.07808,-0.03904
-0.05368,0.10004,-0.1464,-0.11956,-0.09272,0.01952,0.11224,0.0488,-0.06832,-0.0976,-0.06832,-0.03904
-0.05368,0.10004,-0.1464,-0.11956,-0.09272,0.01952,0.10248,0.05368,-0.06344,-0.0976,-0.06832,-0.03904
-0.05368,0.10004,-0.1464,-0.11956,-0.09272,0.01952,0.10736,0.05368,-0.06832,-0.0976,-0.06344,-0.03904
-0.05368,0.10248,-0.15128,-0.12444,-0.0976,0.02196,0.11224,0.06344,-0.05368,-0.07808,-0.05856,-0.03904
-0.05368,0.10492,-0.15616,-0.12932,-0.10248,0.0244,0.11712,0.08296,-0.01464,-0.0488,-0.02928,-0.02928
-0.04392,0.09272,-0.14152,-0.11956,-0.0976,0.02684,0.12688,0.10248,0.06344,0.03416,0.02928,0.00488
-0.00976,0.05368,-0.0976,-0.09272,-0.08784,0.03904,0.11712,0.122,0.15616,0.122,0.11224,0.06832
0.06344,-0.00732,-0.0488,-0.08052,-0.11224,0.08784,0.10248,0.16104,0.26352,0.25864,0.25376,0.18544
0.20008,-0.11224,0.0244,-0.07564,-0.17568,0.18788,0.08296,0.22936,0.40504,0.45384,0.47336,0.38552
0.38064,-0.25132,0.122,-0.06832,-0.25864,0.31964,0.06344,0.34648,0.6344,0.72712,0.7808,0.66856
0.62464,-0.44896,0.27328,-0.03904,-0.35136,0.488,0.00976,0.4636,0.9272,1.098,1.18096,1.01504
0.8296,-0.63684,0.44408,0.02928,-0.38552,0.60756,-0.08784,0.52704,1.20048,1.41032,1.52744,1.32248
0.88816,-0.71248,0.5368,0.09272,-0.35136,0.61976,-0.13664,0.49288,1.31272,1.51768,1.61528,1.43472
0.71736,-0.62952,0.54168,0.183,-0.17568,0.44652,-0.15616,0.29768,1.11264,1.23952,1.3176,1.20536
0.37576,-0.42944,0.48312,0.29524,0.10736,0.1342,-0.14152,-0.01952,0.6588,0.69296,0.74664,0.75152
0,-0.19764,0.39528,0.39528,0.39528,-0.19764,-0.122,-0.33672,0.06832,0.04392,0.09272,0.22936
-0.25864,-0.05612,0.37088,0.5002,0.62952,-0.44408,-0.15616,-0.57584,-0.41968,-0.4148,-0.33184,-0.122
-0.33672,-0.01464,0.366,0.53436,0.70272,-0.51972,-0.2196,-0.66368,-0.69784,-0.62464,-0.5124,-0.2684
-0.29768,-0.02196,0.3416,0.49044,0.63928,-0.46848,-0.25864,-0.61976,-0.77104,-0.65392,-0.5124,-0.27816
-0.20008,-0.04148,0.28304,0.38308,0.48312,-0.3416,-0.25376,-0.49776,-0.71248,-0.57584,-0.44408,-0.23912
-0.11712,-0.04148,0.20008,0.25864,0.3172,-0.21716,-0.20984,-0.3416,-0.59536,-0.49288,-0.36112,-0.17568
-0.0732,-0.01464,0.10248,0.13908,0.17568,-0.12444,-0.13664,-0.22448,-0.48312,-0.40992,-0.2928,-0.1464
-0.0488,0.00732,0.03416,0.05856,0.08296,-0.06588,-0.06832,-0.12688,-0.38064,-0.32208,-0.22936,-0.11224
-0.0488,0.0244,0,0.0244,0.0488,-0.0488,-0.0244,-0.08784,-0.27816,-0.25376,-0.1708,-0.08784
-0.0488,0.04392,-0.03904,-0.01464,0.00976,-0.02928,0.01952,-0.0488,-0.19032,-0.17568,-0.11712,-0.05368
-0.05368,0.05856,-0.06344,-0.0366,-0.00976,-0.02196,0.04392,-0.0244,-0.12688,-0.13664,-0.08784,-0.04392
-0.05856,0.06832,-0.07808,-0.0488,-0.01952,-0.01952,0.06832,0,-0.09272,-0.10248,-0.06344,-0.02928
-0.04392,0.06832,-0.09272,-0.07076,-0.0488,0.00244,0.07808,0.01952,-0.07808,-0.08784,-0.05368,-0.03416
-0.04392,0.0732,-0.10248,-0.08052,-0.05856,0.00732,0.08784,0.02928,-0.06832,-0.07808,-0.04392,-0.02928
-0.03904,0.0732,-0.10736,-0.08784,-0.06832,0.01464,0.08784,0.03904,-0.06344,-0.06832,-0.03904,-0.0244
-0.03904,0.0732,-0.10736,-0.08784,-0.06832,0.01464,0.09272,0.03904,-0.05856,-0.06832,-0.03416,-0.01952
-0.02928,0.06832,-0.10736,-0.09272,-0.07808,0.0244,0.09272,0.0488,-0.0488,-0.06344,-0.03416,-0.01952
-0.0244,0.06588,-0.10736,-0.09516,-0.08296,0.02928,0.09272,0.05856,-0.0488,-0.05368,-0.02928,-0.01464
-0.0244,0.06588,-0.10736,-0.09516,-0.08296,0.02928,0.09272,0.0732,-0.04392,-0.0488,-0.01952,-0.01464
-0.01952,0.06344,-0.10736,-0.0976,-0.08784,0.03416,0.09272,0.0732,-0.03904,-0.03904,-0.01464,-0.00976
-0.0244,0.06832,-0.11224,-0.10004,-0.08784,0.03172,0.10248,0.06832,-0.04392,-0.0488,-0.01952,-0.00488
-0.0244,0.06832,-0.11224,-0.10004,-0.08784,0.03172,0.0976,0.06832,-0.03416,-0.04392,-0.00488,0
-0.02928,0.06588,-0.10248,-0.08784,-0.0732,0.02196,0.08784,0.06832,-0.03416,-0.03904,-0.00488,0
-0.02928,0.06588,-0.10248,-0.08784,-0.0732,0.02196,0.08784,0.06832,-0.02928,-0.03416,0.00488,0.00488
-0.02928,0.06588,-0.10248,-0.08784,-0.0732,0.02196,0.07808,0.06832,-0.01952,-0.01952,0.01464,0
-0.0244,0.061,-0.0976,-0.0854,-0.0732,0.0244,0.07808,0.0732,-0.01464,-0.01464,0.01464,0.00488
-0.00976,0.05856,-0.10736,-0.10248,-0.0976,0.04392,0.0732,0.0732,-0.01952,-0.01952,0.01952,0.00976
-0.00488,0.05612,-0.10736,-0.10492,-0.10248,0.0488,0.0732,0.0732,-0.00976,-0.01464,0.02928,0.01952
-0.00488,0.05124,-0.0976,-0.09516,-0.09272,0.04392,0.0732,0.0732,0,0.00488,0.03416,0.02928
-0.00488,0.0488,-0.09272,-0.09028,-0.08784,0.04148,0.0732,0.07808,0.00488,0.01464,0.04392,0.04392
0.00976,0.03416,-0.07808,-0.08296,-0.08784,0.0488,0.07808,0.08784,0.00976,0.0244,0.05368,0.04392
0.01464,0.02928,-0.0732,-0.08052,-0.08784,0.05124,0.07808,0.08784,0.01464,0.03416,0.05856,0.05368
0.00976,0.03416,-0.07808,-0.08296,-0.08784,0.0488,0.07808,0.08784,0.01952,0.02928,0.05368,0.04392
0.01464,0.02928,-0.0732,-0.08052,-0.08784,0.05124,0.0732,0.08784,0.0244,0.02928,0.05856,0.0488
0.0244,0.02196,-0.06832,-0.08052,-0.09272,0.05856,0.06832,0.08296,0.01952,0.03904,0.05856,0.05856
0.02928,0.01708,-0.06344,-0.07808,-0.09272,0.061,0.06832,0.08296,0.0244,0.0488,0.0732,0.05856
0.03416,0.01464,-0.06344,-0.08052,-0.0976,0.06588,0.05368,0.09272,0.03416,0.05856,0.08296,0.06832
0.03416,0.0122,-0.05856,-0.07564,-0.09272,0.06344,0.0488,0.09272,0.04392,0.06832,0.09272,0.0732
0.03416,0.00976,-0.05368,-0.07076,-0.08784,0.061,0.0488,0.0976,0.0488,0.0732,0.10248,0.09272
0.03904,0.00488,-0.0488,-0.06832,-0.08784,0.06344,0.04392,0.10248,0.05856,0.08296,0.10736,0.10248
0.04392,0.00488,-0.05368,-0.07564,-0.0976,0.07076,0.04392,0.10248,0.06832,0.10248,0.12688,0.0976
0.0488,-0.00244,-0.04392,-0.06832,-0.09272,0.07076,0.03904,0.10248,0.07808,0.11712,0.13664,0.11224
0.05856,-0.01708,-0.0244,-0.05368,-0.08296,0.07076,0.03416,0.0976,0.0976,0.13176,0.1464,0.122
0.06344,-0.0244,-0.01464,-0.04636,-0.07808,0.07076,0.02928,0.10248,0.10736,0.14152,0.16104,0.12688
0.08296,-0.04392,0.00488,-0.0366,-0.07808,0.08052,0.0244,0.10248,0.11712,0.14152,0.1708,0.13664
0.08296,-0.04392,0.00488,-0.0366,-0.07808,0.08052,0.0244,0.11224,0.13176,0.15616,0.18544,0.1464
0.08784,-0.05124,0.01464,-0.02928,-0.0732,0.08052,0.01952,0.11224,0.14152,0.17568,0.20496,0.16104
0.0976,-0.061,0.0244,-0.0244,-0.0732,0.0854,0.01464,0.11712,0.15616,0.20496,0.22936,0.1708
0.10248,-0.061,0.01952,-0.03172,-0.08296,0.09272,0.00488,0.13176,0.16592,0.21472,0.22936,0.18544
0.11224,-0.07076,0.02928,-0.02684,-0.08296,0.0976,0,0.13176,0.18544,0.22448,0.244,0.1952
0.12688,-0.08296,0.03904,-0.0244,-0.08784,0.10736,0,0.13664,0.1952,0.24888,0.25864,0.20984
0.13176,-0.08784,0.04392,-0.02196,-0.08784,0.1098,-0.00488,0.14152,0.21472,0.26352,0.27816,0.2196
0.1464,-0.10248,0.05856,-0.01464,-0.08784,0.11712,-0.01952,0.1464,0.23424,0.28304,0.29768,0.23912
0.15128,-0.11468,0.07808,0.00244,-0.0732,0.11224,-0.01952,0.1464,0.24888,0.29768,0.30744,0.24888
0.15616,-0.11956,0.08296,0.00488,-0.0732,0.11468,-0.01952,0.1464,0.25864,0.31232,0.32208,0.25864
0.16104,-0.12444,0.08784,0.00732,-0.0732,0.11712,-0.03416,0.15128,0.27328,0.32696,0.33184,0.27328
0.16104,-0.12688,0.09272,0.0122,-0.06832,0.11468,-0.0244,0.1464,0.29768,0.3416,0.35624,0.28304
0.1708,-0.1342,0.0976,0.0122,-0.0732,0.122,-0.01952,0.15128,0.30744,0.35624,0.366,0.29768
0.18056,-0.13908,0.0976,0.00732,-0.08296,0.13176,-0.02928,0.16592,0.3172,0.366,0.38552,0.29768
0.18056,-0.14396,0.10736,0.01708,-0.0732,0.12688,-0.02928,0.16592,0.32696,0.366,0.38552,0.30256
0.18056,-0.1464,0.11224,0.02196,-0.06832,0.12444,-0.03904,0.16104,0.33184,0.37088,0.38064,0.30256
0.18056,-0.1464,0.11224,0.02196,-0.06832,0.12444,-0.03904,0.15616,0.33184,0.37576,0.38552,0.30256
0.19032,-0.15128,0.11224,0.01708,-0.07808,0.1342,-0.03904,0.15616,0.32696,0.37088,0.37088,0.29768
0.18056,-0.1464,0.11224,0.02196,-0.06832,0.12444,-0.03904,0.15128,0.32208,0.35624,0.36112,0.2928
0.1708,-0.14396,0.11712,0.03172,-0.05368,0.11224,-0.03416,0.14152,0.32208,0.35624,0.34648,0.28792
0.16104,-0.1342,0.10736,0.02684,-0.05368,0.10736,-0.03416,0.13176,0.30256,0.32696,0.32696,0.26352
0.15616,-0.122,0.08784,0.00976,-0.06832,0.11224,-0.02928,0.122,0.28304,0.30744,0.30744,0.23912
0.13176,-0.10492,0.07808,0.0122,-0.05368,0.09272,-0.0244,0.11224,0.25864,0.28304,0.27816,0.21472
0.11712,-0.09028,0.06344,0.00488,-0.05368,0.0854,-0.0244,0.0976,0.23912,0.25376,0.24888,0.1952
0.10248,-0.07808,0.05368,0.00244,-0.0488,0.07564,-0.01464,0.08784,0.20984,0.22448,0.2196,0.18056
0.08296,-0.06832,0.05368,0.0122,-0.02928,0.05612,-0.00488,0.07808,0.17568,0.18544,0.18544,0.15128
0.06832,-0.05612,0.04392,0.00976,-0.0244,0.04636,-0.00488,0.0732,0.15128,0.16104,0.15616,0.13176
0.04392,-0.03416,0.0244,0.00244,-0.01952,0.03172,0,0.05856,0.12688,0.13176,0.13176,0.10248
0.03904,-0.0244,0.00976,-0.00976,-0.02928,0.03416,0.00488,0.05368,0.0976,0.10248,0.10736,0.08296
0.02928,-0.00976,-0.00976,-0.0244,-0.03904,0.03416,0.00976,0.05368,0.08296,0.08784,0.09272,0.0732
0.0244,0,-0.0244,-0.0366,-0.0488,0.0366,0.01464,0.05368,0.0732,0.07808,0.08296,0.06344
0.02928,0.00244,-0.03416,-0.0488,-0.06344,0.04636,0.01952,0.06344,0.06344,0.06832,0.0732,0.06344
0.02928,0.00488,-0.03904,-0.05368,-0.06832,0.0488,0.0244,0.06344,0.05368,0.05856,0.06832,0.05368
0.01464,0.0122,-0.03904,-0.04636,-0.05368,0.03416,0.0244,0.06344,0.04392,0.05368,0.05856,0.0488
0.01464,0.0122,-0.03904,-0.04636,-0.05368,0.03416,0.0244,0.06344,0.04392,0.05368,0.05856,0.0488
0.01952,0.00976,-0.03904,-0.0488,-0.05856,0.03904,0.0244,0.06344,0.02928,0.03904,0.05856,0.03416
0.01952,0.00732,-0.03416,-0.04392,-0.05368,0.0366,0.0244,0.06344,0.02928,0.03904,0.05368,0.03416
0.01952,0.00976,-0.03904,-0.0488,-0.05856,0.03904,0.02928,0.06344,0.03904,0.03904,0.05368,0.04392
0.01952,0.00976,-0.03904,-0.0488,-0.05856,0.03904,0.02928,0.06344,0.03904,0.03904,0.05368,0.03904
0.00976,0.01464,-0.03904,-0.04392,-0.0488,0.02928,0.02928,0.06344,0.02928,0.03904,0.03904,0.03904
0.00976,0.01708,-0.04392,-0.0488,-0.05368,0.03172,0.02928,0.06344,0.0244,0.03904,0.03904,0.03904
0.01952,0.00732,-0.03416,-0.04392,-0.05368,0.0366,0.02928,0.0488,0.0244,0.02928,0.03904,0.02928
0.01952,0.00732,-0.03416,-0.04392,-0.05368,0.0366,0.02928,0.0488,0.0244,0.02928,0.03416,0.02928
0.01464,0.0122,-0.03904,-0.04636,-0.05368,0.03416,0.01952,0.03904,0.0244,0.02928,0.03904,0.02928
0.01464,0.0122,-0.03904,-0.04636,-0.05368,0.03416,0.01952,0.03904,0.0244,0.02928,0.03904,0.02928
0.01464,0.01708,-0.0488,-0.05612,-0.06344,0.03904,0.01952,0.03904,0.01952,0.02928,0.03904,0.02928
0.01464,0.01708,-0.0488,-0.05612,-0.06344,0.03904,0.01952,0.03416,0.01952,0.02928,0.03904,0.02928
0.01464,0.0122,-0.03904,-0.04636,-0.05368,0.03416,0.01464,0.03416,0.01952,0.01952,0.03904,0.02928
0.01464,0.0122,-0.03904,-0.04636,-0.05368,0.03416,0.01464,0.03416,0.01464,0.01952,0.03904,0.02928
0.01464,0.0122,-0.03904,-0.04636,-0.05368,0.03416,0.0244,0.03416,0.00488,0.01952,0.02928,0.01952
0.01464,0.00976,-0.03416,-0.04148,-0.0488,0.03172,0.0244,0.03416,0.00488,0.01952,0.02928,0.01952
0.00488,0.01464,-0.03416,-0.0366,-0.03904,0.02196,0.01464,0.03416,0.00488,0.01952,0.02928,0.01952
0.00488,0.01708,-0.03904,-0.04148,-0.04392,0.0244,0.01464,0.03416,0,0.01464,0.0244,0.01952
0.01464,0.0122,-0.03904,-0.04636,-0.05368,0.03416,0.01464,0.02928,0.00976,0.01464,0.0244,0.01952
0.01464,0.0122,-0.03904,-0.04636,-0.05368,0.03416,0.01464,0.02928,0.00976,0.01464,0.0244,0.01952
0.01464,0.0122,-0.03904,-0.04636,-0.05368,0.03416,0.01952,0.03416,0.00488,0.00976,0.0244,0.01464
0.01464,0.0122,-0.03904,-0.04636,-0.05368,0.03416,0.01952,0.03416,0.00488,0.00976,0.01952,0.01464
0.01952,0.00488,-0.02928,-0.03904,-0.0488,0.03416,0.00488,0.03416,0.00488,0.01952,0.02928,0.0244
0.02928,0,-0.02928,-0.04392,-0.05856,0.04392,0.00488,0.02928,0,0.01464,0.02928,0.0244
0.01952,0.00732,-0.03416,-0.04392,-0.05368,0.0366,0.00488,0.02928,0.00976,0.01464,0.0244,0.00976
0.01952,0.00732,-0.03416,-0.04392,-0.05368,0.0366,0.00488,0.02928,0,0.01464,0.0244,0.00976
0.00976,0.01708,-0.04392,-0.0488,-0.05368,0.03172,0.01464,0.0244,0,0.00976,0.01952,0.00976
0.00976,0.01464,-0.03904,-0.04392,-0.0488,0.02928,0.01464,0.0244,-0.00976,0.00488,0.01464,0.00488
0.01464,0.0122,-0.03904,-0.04636,-0.05368,0.03416,0.01464,0.0244,-0.01952,-0.00488,0.00488,0
0.01464,0.01464,-0.04392,-0.05124,-0.05856,0.0366,0.01952,0.0244,-0.01952,-0.00976,0.00488,0
0.01464,0.00976,-0.03416,-0.04148,-0.0488,0.03172,0.01952,0.0244,-0.0244,-0.00488,0.01464,0.00976
0.00976,0.01464,-0.03904,-0.04392,-0.0488,0.02928,0.01952,0.01952,-0.0244,-0.00488,0.00976,0.00976
0.00976,0.01952,-0.0488,-0.05368,-0.05856,0.03416,0.00976,0.01952,-0.02928,-0.01464,0.00976,0
0.00976,0.01952,-0.0488,-0.05368,-0.05856,0.03416,0.00976,0.01952,-0.02928,-0.01952,0.00976,-0.00488
0.00976,0.01708,-0.04392,-0.0488,-0.05368,0.03172,0.00976,0.02928,-0.01952,-0.01952,0.00976,-0.00488
0.00976,0.01708,-0.04392,-0.0488,-0.05368,0.03172,0.00976,0.02928,-0.0244,-0.0244,0.00488,-0.00488
0.00976,0.01708,-0.04392,-0.0488,-0.05368,0.03172,0.00488,0.02928,-0.0244,-0.01464,-0.00488,-0.00976
0.00488,0.01708,-0.03904,-0.04148,-0.04392,0.0244,0.00488,0.0244,-0.02928,-0.01464,-0.00976,-0.00976
0.01464,0.0122,-0.03904,-0.04636,-0.05368,0.03416,0.00976,0.0244,-0.02928,-0.01952,-0.00976,-0.01952
0.01464,0.01464,-0.04392,-0.05124,-0.05856,0.0366,0.00976,0.0244,-0.02928,-0.01952,-0.00976,-0.01952
0.01464,0.01708,-0.0488,-0.05612,-0.06344,0.03904,0.00976,0.03416,-0.03904,-0.01952,-0.00488,-0.01952
0.01464,0.01708,-0.0488,-0.05612,-0.06344,0.03904,0.00976,0.03416,-0.04392,-0.01952,-0.00488,-0.01952
0.01464,0.01708,-0.0488,-0.05612,-0.06344,0.03904,0.00976,0.03416,-0.03416,-0.01464,-0.00488,-0.01464
0.01464,0.01708,-0.0488,-0.05612,-0.06344,0.03904,0.01464,0.03416,-0.03416,-0.01464,-0.00488,-0.01464
0.01464,0.01952,-0.05368,-0.061,-0.06832,0.04148,0.01464,0.03416,-0.03416,-0.01464,-0.00488,0
0.01464,0.01952,-0.05368,-0.061,-0.06832,0.04148,0.01464,0.03904,-0.03904,-0.01464,-0.00488,0
0.01464,0.01464,-0.04392,-0.05124,-0.05856,0.0366,0.00488,0.02928,-0.03416,-0.0244,-0.01464,0
0.0244,0.00976,-0.04392,-0.05612,-0.06832,0.04636,0.00488,0.02928,-0.03416,-0.02928,-0.01464,-0.01464
0.01952,0.00976,-0.03904,-0.0488,-0.05856,0.03904,0,0.02928,-0.03904,-0.02928,-0.00976,-0.00976
0.01952,0.00976,-0.03904,-0.0488,-0.05856,0.03904,0,0.02928,-0.03904,-0.02928,-0.00976,-0.00976
0.01952,0.00976,-0.03904,-0.0488,-0.05856,0.03904,0,0.0244,-0.03904,-0.01952,0,-0.00976
0.01952,0.00732,-0.03416,-0.04392,-0.05368,0.0366,0,0.0244,-0.03416,-0.0244,0,-0.00976
0.0244,0.00488,-0.03416,-0.04636,-0.05856,0.04148,0.00488,0.0244,-0.03904,-0.0244,-0.00976,-0.00976
0.0244,0.00488,-0.03416,-0.04636,-0.05856,0.04148,0,0.01952,-0.03904,-0.0244,-0.00976,-0.01464
0.0244,0.00244,-0.02928,-0.04148,-0.05368,0.03904,-0.00976,0.01952,-0.02928,-0.0244,-0.01952,-0.01952
0.0244,-0.00244,-0.01952,-0.03172,-0.04392,0.03416,-0.01952,0.01464,-0.01952,-0.00976,-0.01464,-0.01464
0.03416,-0.0122,-0.00976,-0.02684,-0.04392,0.03904,-0.02928,0.0244,-0.00488,0,0.00488,0
0.03904,-0.0244,0.00976,-0.00976,-0.02928,0.03416,-0.03416,0.01464,0.00488,0.00976,0.01464,0.00976
0.03904,-0.03416,0.02928,0.00976,-0.00976,0.0244,-0.03904,0.01952,0.00488,0.01464,0.0244,0.01952
0.04392,-0.04392,0.04392,0.02196,0,0.02196,-0.0488,0.00976,0.00976,0.01952,0.02928,0.0244
0.04392,-0.0488,0.05368,0.03172,0.00976,0.01708,-0.05368,0.00976,0.01464,0.0244,0.03416,0.0244
0.0488,-0.05368,0.05856,0.03416,0.00976,0.01952,-0.05856,0.00488,0.01952,0.02928,0.03416,0.02928
0.05856,-0.05856,0.05856,0.02928,0,0.02928,-0.05856,0.00488,0.02928,0.02928,0.03904,0.03416
0.05856,-0.06344,0.06832,0.03904,0.00976,0.0244,-0.06832,0.00976,0.03904,0.03416,0.05368,0.03904
0.05856,-0.06832,0.07808,0.0488,0.01952,0.01952,-0.07808,-0.00488,0.05368,0.05368,0.05856,0.05856
0.05856,-0.07564,0.09272,0.06344,0.03416,0.0122,-0.08784,-0.01952,0.05368,0.05368,0.06344,0.05856
0.05368,-0.07808,0.10248,0.07564,0.0488,0.00244,-0.10248,-0.02928,0.0488,0.04392,0.06344,0.05856
0.05368,-0.08052,0.10736,0.08052,0.05368,0,-0.10736,-0.03416,0.03416,0.03416,0.06344,0.0488
0.06832,-0.09272,0.11712,0.08296,0.0488,0.00976,-0.10736,-0.03904,0.0244,0.01952,0.05368,0.04392
0.06832,-0.10004,0.13176,0.0976,0.06344,0.00244,-0.11224,-0.03904,0.0244,0.01464,0.04392,0.03904
0.09272,-0.11468,0.13664,0.09028,0.04392,0.0244,-0.11224,-0.03904,0.01464,0.01464,0.03904,0.03416
0.10248,-0.11956,0.13664,0.0854,0.03416,0.03416,-0.10736,-0.0244,0.01464,0.01464,0.03904,0.03904
0.10248,-0.10736,0.11224,0.061,0.00976,0.04636,-0.10736,-0.01952,-0.00488,0.00488,0.0244,0.03416
0.10248,-0.09516,0.08784,0.0366,-0.01464,0.05856,-0.0976,-0.00976,-0.0244,-0.00976,0.01464,0.0244
0.09272,-0.07808,0.06344,0.01708,-0.02928,0.061,-0.07808,0.00488,-0.05368,-0.03416,0,0.02928
0.07808,-0.061,0.04392,0.00488,-0.03416,0.05612,-0.06832,0.00488,-0.06832,-0.0488,-0.01464,0.01952
0.05856,-0.0488,0.03904,0.00976,-0.01952,0.03904,-0.05856,0,-0.0732,-0.04392,-0.01464,0.00976
0.03904,-0.02684,0.01464,-0.00488,-0.0244,0.03172,-0.04392,0,-0.0732,-0.0488,-0.01952,0.00488
0.01464,-0.00244,-0.00976,-0.01708,-0.0244,0.01952,-0.0244,0.00976,-0.06344,-0.05856,-0.03416,-0.00976
0.00488,0.0122,-0.02928,-0.03172,-0.03416,0.01952,-0.01952,0.01464,-0.06344,-0.06832,-0.04392,-0.01464
0,0.0244,-0.0488,-0.0488,-0.0488,0.0244,-0.00488,0.0244,-0.06832,-0.08296,-0.06344,-0.03416
-0.00976,0.03416,-0.05856,-0.05368,-0.0488,0.01952,0.00488,0.0244,-0.06832,-0.09272,-0.06832,-0.04392
-0.00976,0.03904,-0.06832,-0.06344,-0.05856,0.0244,0.01464,0.03416,-0.0732,-0.0976,-0.07808,-0.05856
-0.00976,0.04148,-0.0732,-0.06832,-0.06344,0.02684,0.01464,0.03416,-0.07808,-0.0976,-0.07808,-0.05856
-0.00976,0.04636,-0.08296,-0.07808,-0.0732,0.03172,0.01952,0.03416,-0.06832,-0.10248,-0.07808,-0.05856
-0.00976,0.0488,-0.08784,-0.08296,-0.07808,0.03416,0.01464,0.03904,-0.0732,-0.10248,-0.07808,-0.05856
0,0.04148,-0.08296,-0.08296,-0.08296,0.04148,0.02928,0.03904,-0.0732,-0.09272,-0.06832,-0.05368
0,0.03904,-0.07808,-0.07808,-0.07808,0.03904,0.0244,0.03904,-0.0732,-0.08784,-0.06344,-0.04392
0,0.0366,-0.0732,-0.0732,-0.0732,0.0366,0.0244,0.03904,-0.0732,-0.08296,-0.06344,-0.03904
0,0.0366,-0.0732,-0.0732,-0.0732,0.0366,0.02928,0.03904,-0.06832,-0.08784,-0.06832,-0.03904
-0.00488,0.04392,-0.08296,-0.08052,-0.07808,0.0366,0.03416,0.0488,-0.06832,-0.08784,-0.07808,-0.03904
-0.00488,0.04636,-0.08784,-0.0854,-0.08296,0.03904,0.03416,0.0488,-0.06832,-0.08784,-0.07808,-0.03904
-0.00488,0.04636,-0.08784,-0.0854,-0.08296,0.03904,0.04392,0.05368,-0.05856,-0.08784,-0.07808,-0.0488
-0.00488,0.05124,-0.0976,-0.09516,-0.09272,0.04392,0.0488,0.07808,-0.03416,-0.06832,-0.06344,-0.03904
0.00488,0.04392,-0.09272,-0.09516,-0.0976,0.05124,0.05856,0.09272,0.02928,-0.0244,-0.03904,-0.02928
0.01464,0.02928,-0.0732,-0.08052,-0.08784,0.05124,0.05856,0.10248,0.10248,0.05856,0.02928,0.01952
0.05368,-0.00488,-0.04392,-0.07076,-0.0976,0.07564,0.04392,0.13176,0.17568,0.15616,0.12688,0.10248
0.1464,-0.07808,0.00976,-0.06344,-0.13664,0.14152,0.01952,0.17568,0.27328,0.2928,0.28304,0.244
0.29768,-0.18544,0.0732,-0.07564,-0.22448,0.26108,-0.00488,0.26352,0.42456,0.49288,0.51728,0.45872
0.50264,-0.33428,0.16592,-0.0854,-0.33672,0.41968,-0.04392,0.37576,0.63928,0.76616,0.84424,0.74664
0.74664,-0.53192,0.3172,-0.05612,-0.42944,0.58804,-0.11712,0.4636,0.90768,1.10288,1.20048,1.09312
0.90768,-0.68808,0.46848,0.01464,-0.4392,0.67344,-0.19032,0.50752,1.13704,1.34688,1.464,1.342
0.90768,-0.72956,0.55144,0.0976,-0.35624,0.63196,-0.22936,0.43432,1.18096,1.33224,1.42008,1.33712
0.67344,-0.61976,0.56608,0.22936,-0.10736,0.3904,-0.23424,0.19032,0.94184,0.99064,1.02968,1.0248
0.31232,-0.41968,0.52704,0.37088,0.21472,0.0488,-0.21472,-0.11224,0.5124,0.46848,0.46848,0.55632
-0.04392,-0.22204,0.488,0.50996,0.53192,-0.28792,-0.20984,-0.40992,0.03416,-0.06832,-0.09272,0.10248
-0.244,-0.12444,0.49288,0.61488,0.73688,-0.49044,-0.244,-0.59048,-0.32696,-0.37576,-0.37088,-0.1464
-0.29768,-0.09516,0.488,0.63684,0.78568,-0.54168,-0.2928,-0.64416,-0.51728,-0.50752,-0.47824,-0.244
-0.25864,-0.10004,0.45872,0.58804,0.71736,-0.488,-0.3172,-0.56608,-0.55632,-0.50264,-0.4636,-0.244
-0.16592,-0.10492,0.37576,0.45872,0.54168,-0.3538,-0.29768,-0.43432,-0.5368,-0.44408,-0.39528,-0.20008
-0.08296,-0.08784,0.25864,0.30012,0.3416,-0.21228,-0.24888,-0.28304,-0.45872,-0.3904,-0.3416,-0.1708
-0.03904,-0.05856,0.15616,0.17568,0.1952,-0.11712,-0.1708,-0.15616,-0.37576,-0.32696,-0.28792,-0.13176
-0.01464,-0.03172,0.07808,0.0854,0.09272,-0.05368,-0.10736,-0.0732,-0.29768,-0.27816,-0.23912,-0.10248
-0.00976,-0.01708,0.04392,0.0488,0.05368,-0.03172,-0.0732,-0.04392,-0.2196,-0.21472,-0.1952,-0.08784
-0.01952,0,0.01952,0.02928,0.03904,-0.02928,-0.0488,-0.0244,-0.15616,-0.16592,-0.16592,-0.06832
-0.01464,0.01708,-0.01952,-0.0122,-0.00488,-0.00488,-0.01464,0.01464,-0.11224,-0.13176,-0.13176,-0.05368
-0.01464,0.02928,-0.04392,-0.0366,-0.02928,0.00732,0.00976,0.02928,-0.08296,-0.11712,-0.11712,-0.04392
-0.00488,0.03416,-0.06344,-0.061,-0.05856,0.02684,0.01464,0.03904,-0.07808,-0.10736,-0.11712,-0.03416
-0.00976,0.04392,-0.07808,-0.0732,-0.06832,0.02928,0.0244,0.0488,-0.06832,-0.10248,-0.11224,-0.03416
-0.01464,0.05124,-0.08784,-0.08052,-0.0732,0.02928,0.02928,0.05368,-0.06344,-0.10248,-0.10248,-0.03904
-0.00976,0.0488,-0.08784,-0.08296,-0.07808,0.03416,0.03416,0.05856,-0.05856,-0.0976,-0.11224,-0.04392
0,0.03904,-0.07808,-0.07808,-0.07808,0.03904,0.03416,0.06832,-0.04392,-0.08296,-0.11224,-0.03904
0.00488,0.0366,-0.07808,-0.08052,-0.08296,0.04392,0.03416,0.06832,-0.03904,-0.07808,-0.10736,-0.03904
0.00488,0.0366,-0.07808,-0.08052,-0.08296,0.04392,0.03416,0.06832,-0.0488,-0.06832,-0.0976,-0.03416
0.00488,0.0366,-0.07808,-0.08052,-0.08296,0.04392,0.03416,0.0732,-0.03904,-0.06832,-0.09272,-0.02928
0.00976,0.0366,-0.08296,-0.08784,-0.09272,0.05124,0.04392,0.0732,-0.03416,-0.05856,-0.0976,-0.02928
0.01464,0.03416,-0.08296,-0.09028,-0.0976,0.05612,0.04392,0.07808,-0.02928,-0.05368,-0.08784,-0.0244
0.01464,0.02928,-0.0732,-0.08052,-0.08784,0.05124,0.03904,0.07808,-0.0244,-0.0488,-0.09272,-0.01952
0.01952,0.02684,-0.0732,-0.08296,-0.09272,0.05612,0.03904,0.07808,-0.01952,-0.04392,-0.08784,-0.01464
0.01952,0.03172,-0.08296,-0.09272,-0.10248,0.061,0.03904,0.07808,-0.01952,-0.0488,-0.08296,-0.00976
0.01952,0.03172,-0.08296,-0.09272,-0.10248,0.061,0.03904,0.08296,-0.01464,-0.04392,-0.08296,-0.00488
0.01464,0.03172,-0.07808,-0.0854,-0.09272,0.05368,0.03904,0.0732,-0.00976,-0.03904,-0.07808,0
0.01952,0.02928,-0.07808,-0.08784,-0.0976,0.05856,0.03416,0.0732,0,-0.03416,-0.06832,0.00488
0.03416,0.01708,-0.06832,-0.0854,-0.10248,0.06832,0.0244,0.0732,0.00976,-0.0244,-0.05856,0.01952
0.03416,0.01708,-0.06832,-0.0854,-0.10248,0.06832,0.0244,0.0732,0.01464,-0.0244,-0.0488,0.0244
0.0244,0.0244,-0.0732,-0.0854,-0.0976,0.061,0.0244,0.07808,0.01952,-0.00488,-0.04392,0.03416
0.02928,0.01952,-0.06832,-0.08296,-0.0976,0.06344,0.01952,0.07808,0.0244,0.00488,-0.03904,0.03416
0.03416,0.00976,-0.05368,-0.07076,-0.08784,0.061,0.01952,0.07808,0.01952,0.00488,-0.03904,0.04392
0.03904,0.00488,-0.0488,-0.06832,-0.08784,0.06344,0.01464,0.07808,0.01952,0.00976,-0.03416,0.04392
0.05368,-0.00732,-0.03904,-0.06588,-0.09272,0.0732,0.00976,0.07808,0.0244,0.01952,-0.0244,0.04392
0.05368,-0.00976,-0.03416,-0.061,-0.08784,0.07076,0.00976,0.08296,0.03416,0.0244,-0.0244,0.0488
0.0488,-0.00732,-0.03416,-0.05856,-0.08296,0.06588,0.01464,0.08296,0.04392,0.0244,-0.01952,0.05368
0.05368,-0.00976,-0.03416,-0.061,-0.08784,0.07076,0.01464,0.08296,0.0488,0.03416,-0.00976,0.06344
0.05856,-0.01464,-0.02928,-0.05856,-0.08784,0.0732,0.00976,0.08296,0.05856,0.0488,0,0.06344
0.06344,-0.02196,-0.01952,-0.05124,-0.08296,0.0732,0.00976,0.09272,0.06344,0.05856,0.00488,0.07808
0.0732,-0.02684,-0.01952,-0.05612,-0.09272,0.08296,0.00488,0.09272,0.0732,0.06832,0.0244,0.08784
0.07808,-0.03172,-0.01464,-0.05368,-0.09272,0.0854,0.00488,0.09272,0.08296,0.07808,0.03416,0.09272
0.08296,-0.03904,-0.00488,-0.04636,-0.08784,0.0854,0.00976,0.10736,0.10248,0.0976,0.0488,0.11712
0.09272,-0.04392,-0.00488,-0.05124,-0.0976,0.09516,0,0.11224,0.11224,0.10736,0.06832,0.122
0.10736,-0.05368,0,-0.05368,-0.10736,0.10736,-0.01464,0.10248,0.122,0.12688,0.08784,0.13176
0.11224,-0.05856,0.00488,-0.05124,-0.10736,0.1098,-0.01464,0.10736,0.13176,0.14152,0.10736,0.14152
0.122,-0.07076,0.01952,-0.04148,-0.10248,0.11224,-0.02928,0.122,0.1464,0.15128,0.10736,0.16592
0.13176,-0.08052,0.02928,-0.0366,-0.10248,0.11712,-0.02928,0.12688,0.16104,0.16592,0.13176,0.17568
0.12688,-0.08052,0.03416,-0.02928,-0.09272,0.1098,-0.0244,0.12688,0.1708,0.18056,0.15128,0.1952
0.13664,-0.09028,0.04392,-0.0244,-0.09272,0.11468,-0.02928,0.13176,0.18544,0.1952,0.1708,0.20984
0.1464,-0.10248,0.05856,-0.01464,-0.08784,0.11712,-0.02928,0.13664,0.20008,0.20984,0.18544,0.21472
0.1464,-0.10492,0.06344,-0.00976,-0.08296,0.11468,-0.03416,0.14152,0.21472,0.22448,0.1952,0.22448
0.15616,-0.1098,0.06344,-0.01464,-0.09272,0.12444,-0.03416,0.13664,0.22936,0.23912,0.2196,0.244
0.15616,-0.11224,0.06832,-0.00976,-0.08784,0.122,-0.03904,0.13664,0.23912,0.25376,0.23424,0.25376
0.16592,-0.11712,0.06832,-0.01464,-0.0976,0.13176,-0.0488,0.13664,0.25376,0.2684,0.25864,0.26352
0.16592,-0.11956,0.0732,-0.00976,-0.09272,0.12932,-0.05368,0.14152,0.27328,0.28304,0.2684,0.27816
0.18544,-0.13908,0.09272,0,-0.09272,0.13908,-0.05368,0.1464,0.28304,0.30744,0.27328,0.27816
0.19032,-0.14152,0.09272,-0.00244,-0.0976,0.14396,-0.05856,0.1464,0.2928,0.3172,0.28304,0.2928
0.20008,-0.14396,0.08784,-0.0122,-0.11224,0.15616,-0.05856,0.14152,0.30256,0.33184,0.2928,0.29768
0.20008,-0.1464,0.09272,-0.00732,-0.10736,0.15372,-0.05856,0.1464,0.31232,0.33672,0.29768,0.29768
0.20008,-0.1464,0.09272,-0.00732,-0.10736,0.15372,-0.05856,0.15128,0.3172,0.33184,0.29768,0.30256
0.20008,-0.1464,0.09272,-0.00732,-0.10736,0.15372,-0.05856,0.15128,0.32208,0.33672,0.30744,0.30256
0.19032,-0.13664,0.08296,-0.0122,-0.10736,0.14884,-0.0488,0.14152,0.31232,0.32208,0.28792,0.29768
0.18056,-0.13176,0.08296,-0.00732,-0.0976,0.13908,-0.0488,0.13664,0.30744,0.31232,0.27816,0.28792
0.16592,-0.12688,0.08784,0.00488,-0.07808,0.122,-0.0488,0.12688,0.28792,0.2928,0.25864,0.26352
0.15616,-0.11712,0.07808,0,-0.07808,0.11712,-0.04392,0.11712,0.2684,0.27328,0.23912,0.244
0.14152,-0.11224,0.08296,0.0122,-0.05856,0.10004,-0.03904,0.10248,0.25376,0.24888,0.21472,0.22448
0.122,-0.0976,0.0732,0.0122,-0.0488,0.0854,-0.03904,0.08296,0.22936,0.2196,0.1708,0.1952
0.0976,-0.08052,0.06344,0.01464,-0.03416,0.06588,-0.0244,0.07808,0.20008,0.19032,0.13664,0.16104
0.08296,-0.06588,0.0488,0.00732,-0.03416,0.05856,-0.01952,0.06344,0.17568,0.16104,0.10736,0.14152
0.06344,-0.05124,0.03904,0.00732,-0.0244,0.04392,-0.00976,0.06344,0.15128,0.14152,0.08784,0.122
0.05856,-0.04392,0.02928,0,-0.02928,0.04392,-0.00488,0.05856,0.13176,0.11712,0.06344,0.10248
0.05368,-0.03172,0.00976,-0.01708,-0.04392,0.0488,0.00488,0.05368,0.11712,0.10736,0.0488,0.09272
0.04392,-0.02196,0,-0.02196,-0.04392,0.04392,0.00976,0.0488,0.09272,0.08296,0.02928,0.0732
0.03416,-0.00976,-0.01464,-0.03172,-0.0488,0.04148,0.01464,0.04392,0.08296,0.06344,0.01464,0.06344
0.02928,0,-0.02928,-0.04392,-0.05856,0.04392,0.01952,0.04392,0.06344,0.0488,-0.00488,0.05368
0.00976,0.01464,-0.03904,-0.04392,-0.0488,0.02928,0.0244,0.04392,0.05856,0.03416,-0.01952,0.04392
0.00976,0.01708,-0.04392,-0.0488,-0.05368,0.03172,0.02928,0.04392,0.0488,0.0244,-0.0244,0.03904
0,0.0244,-0.0488,-0.0488,-0.0488,0.0244,0.03416,0.03416,0.03904,0.01464,-0.03416,0.01952
-0.00488,0.02684,-0.0488,-0.04636,-0.04392,0.01952,0.03416,0.03416,0.03416,0.01464,-0.03904,0.01952
-0.00488,0.03172,-0.05856,-0.05612,-0.05368,0.0244,0.03416,0.03416,0.03904,0.00976,-0.03904,0.01464
-0.00976,0.03172,-0.05368,-0.0488,-0.04392,0.01708,0.03416,0.03416,0.03904,0.00976,-0.04392,0.01464
-0.00976,0.03416,-0.05856,-0.05368,-0.0488,0.01952,0.03904,0.03416,0.03904,0.00976,-0.03416,0.0244
-0.00976,0.03416,-0.05856,-0.05368,-0.0488,0.01952,0.03904,0.03416,0.03904,0.00976,-0.03416,0.0244
-0.00976,0.03416,-0.05856,-0.05368,-0.0488,0.01952,0.03904,0.03416,0.02928,0.00976,-0.02928,0.02928
-0.00976,0.03416,-0.05856,-0.05368,-0.0488,0.01952,0.03904,0.03416,0.02928,0.00976,-0.02928,0.02928
0,0.02684,-0.05368,-0.05368,-0.05368,0.02684,0.0488,0.04392,0.03416,0.01952,-0.01952,0.02928
0,0.02684,-0.05368,-0.05368,-0.05368,0.02684,0.0488,0.03904,0.03416,0.01952,-0.01952,0.02928
-0.00488,0.02928,-0.05368,-0.05124,-0.0488,0.02196,0.03904,0.03904,0.03416,0.01952,-0.01464,0.02928
-0.00488,0.02684,-0.0488,-0.04636,-0.04392,0.01952,0.03904,0.03904,0.03416,0.01952,-0.00976,0.02928
-0.00488,0.02684,-0.0488,-0.04636,-0.04392,0.01952,0.03904,0.03904,0.03416,0.01952,0,0.02928
-0.00488,0.02684,-0.0488,-0.04636,-0.04392,0.01952,0.03904,0.03416,0.02928,0.01952,0,0.02928
-0.00488,0.02684,-0.0488,-0.04636,-0.04392,0.01952,0.03904,0.0244,0.02928,0.02928,0,0.02928
-0.00488,0.02684,-0.0488,-0.04636,-0.04392,0.01952,0.03416,0.0244,0.02928,0.02928,0,0.02928
-0.01464,0.03416,-0.05368,-0.04636,-0.03904,0.0122,0.04392,0.03416,0.03416,0.0244,0,0.01952
-0.01464,0.0366,-0.05856,-0.05124,-0.04392,0.01464,0.04392,0.03416,0.03416,0.01464,0,0.01952
-0.01464,0.03904,-0.06344,-0.05612,-0.0488,0.01708,0.04392,0.0244,0.0244,0.00976,0,0.01952
-0.01464,0.03904,-0.06344,-0.05612,-0.0488,0.01708,0.04392,0.0244,0.0244,0.00488,0,0.01952
-0.0244,0.04148,-0.05856,-0.04636,-0.03416,0.00488,0.04392,0.01952,0.01952,0.00488,-0.01464,0.00976
-0.0244,0.04148,-0.05856,-0.04636,-0.03416,0.00488,0.04392,0.01952,0.01952,0.00488,-0.01464,0.00976
-0.0244,0.04148,-0.05856,-0.04636,-0.03416,0.00488,0.03416,0.01464,0.00976,-0.00488,-0.01464,0.00976
-0.0244,0.04148,-0.05856,-0.04636,-0.03416,0.00488,0.03904,0.01464,0.00488,-0.00976,-0.01952,0.00488
-0.01952,0.03904,-0.05856,-0.0488,-0.03904,0.00976,0.04392,0.0244,0.01464,0,-0.01464,0.01464
-0.01952,0.03904,-0.05856,-0.0488,-0.03904,0.00976,0.04392,0.01952,0.01464,0,-0.00488,0.01464
-0.01952,0.04148,-0.06344,-0.05368,-0.04392,0.0122,0.04392,0.01952,0.00976,-0.00488,-0.00976,0.00976
-0.01952,0.04148,-0.06344,-0.05368,-0.04392,0.0122,0.04392,0.01952,0,-0.00488,-0.01464,0.00976
-0.01952,0.04148,-0.06344,-0.05368,-0.04392,0.0122,0.04392,0.01952,0.00976,-0.00976,-0.01952,0.00976
-0.01952,0.04148,-0.06344,-0.05368,-0.04392,0.0122,0.04392,0.01464,0.00976,-0.00976,-0.01952,0.00976
-0.01952,0.03416,-0.0488,-0.03904,-0.02928,0.00488,0.04392,0.0244,0,-0.00488,-0.01464,0.00976
-0.0244,0.03904,-0.05368,-0.04148,-0.02928,0.00244,0.0488,0.0244,0,-0.00976,-0.01464,0.00976
-0.0244,0.03904,-0.05368,-0.04148,-0.02928,0.00244,0.0488,0.0244,-0.00488,-0.00976,-0.01464,0
-0.0244,0.03904,-0.05368,-0.04148,-0.02928,0.00244,0.0488,0.0244,-0.00488,-0.01464,-0.01952,0
-0.02928,0.0488,-0.06832,-0.05368,-0.03904,0.00488,0.0488,0.01952,-0.01464,-0.0244,-0.02928,-0.00976
-0.02928,0.0488,-0.06832,-0.05368,-0.03904,0.00488,0.0488,0.01952,-0.01952,-0.0244,-0.02928,-0.00976
-0.03904,0.05856,-0.07808,-0.05856,-0.03904,0,0.0488,0.01952,-0.02928,-0.02928,-0.02928,-0.01464
-0.03904,0.061,-0.08296,-0.06344,-0.04392,0.00244,0.0488,0.01952,-0.03416,-0.03416,-0.02928,-0.01464
-0.02928,0.05612,-0.08296,-0.06832,-0.05368,0.0122,0.04392,0.01952,-0.0244,-0.03416,-0.0244,-0.00976
-0.03416,0.05612,-0.07808,-0.061,-0.04392,0.00488,0.04392,0.01464,-0.0244,-0.03416,-0.0244,-0.00976
-0.03416,0.05612,-0.07808,-0.061,-0.04392,0.00488,0.0488,0.01464,-0.02928,-0.0244,-0.02928,-0.00976
-0.03416,0.05856,-0.08296,-0.06588,-0.0488,0.00732,0.0488,0.01464,-0.02928,-0.02928,-0.02928,-0.00976
-0.03416,0.05856,-0.08296,-0.06588,-0.0488,0.00732,0.0488,0.01464,-0.02928,-0.02928,-0.02928,-0.00976
-0.03416,0.061,-0.08784,-0.07076,-0.05368,0.00976,0.0488,0.01464,-0.03416,-0.02928,-0.03416,-0.00976
-0.03416,0.05612,-0.07808,-0.061,-0.04392,0.00488,0.05856,0.0244,-0.03416,-0.01952,-0.03416,-0.01464
-0.03416,0.05612,-0.07808,-0.061,-0.04392,0.00488,0.06344,0.0244,-0.03416,-0.0244,-0.03416,-0.01464
-0.04392,0.06344,-0.08296,-0.061,-0.03904,-0.00244,0.06344,0.0244,-0.03416,-0.0244,-0.0244,-0.01464
-0.03416,0.05856,-0.08296,-0.06588,-0.0488,0.00732,0.06344,0.03416,-0.02928,-0.0244,-0.0244,0
-0.03904,0.05856,-0.07808,-0.05856,-0.03904,0,0.06832,0.03904,-0.02928,-0.01952,-0.02928,0
-0.03904,0.06344,-0.08784,-0.06832,-0.0488,0.00488,0.05856,0.02928,-0.02928,-0.02928,-0.02928,-0.00976
-0.03904,0.06344,-0.08784,-0.06832,-0.0488,0.00488,0.05856,0.02928,-0.02928,-0.02928,-0.02928,-0.00976
-0.03904,0.06588,-0.09272,-0.0732,-0.05368,0.00732,0.05856,0.03416,-0.0244,-0.01952,-0.02928,-0.00976
-0.03904,0.06588,-0.09272,-0.0732,-0.05368,0.00732,0.06344,0.03416,-0.0244,-0.0244,-0.02928,-0.00976
-0.03416,0.06832,-0.10248,-0.0854,-0.06832,0.01708,0.05856,0.02928,-0.02928,-0.0244,-0.02928,-0.00976
-0.03416,0.06832,-0.10248,-0.0854,-0.06832,0.01708,0.05856,0.02928,-0.02928,-0.0244,-0.02928,-0.01464
-0.03416,0.06344,-0.09272,-0.07564,-0.05856,0.0122,0.06344,0.02928,-0.02928,-0.02928,-0.03904,-0.01952
-0.03416,0.061,-0.08784,-0.07076,-0.05368,0.00976,0.05368,0.0244,-0.01464,-0.01952,-0.0244,-0.01464
-0.03416,0.04392,-0.05368,-0.0366,-0.01952,-0.00732,0.0488,0.01464,-0.00976,-0.01464,-0.01952,0.00488
-0.01952,0.02684,-0.03416,-0.0244,-0.01464,-0.00244,0.03904,0.01464,0,0,-0.00976,0.01464
-0.01952,0.01464,-0.00976,0,0.00976,-0.01464,0.03904,0.01464,0.00976,0.01952,0.00976,0.01952
-0.01464,0.00732,0,0.00732,0.01464,-0.01464,0.0244,0.00976,0.00976,0.01952,0.01952,0.0244
0,-0.00488,0.00976,0.00976,0.00976,-0.00488,0.00976,0.00976,0.01464,0.0244,0.01464,0.02928
0.00488,-0.00732,0.00976,0.00732,0.00488,0,0.00976,0.00488,0.0244,0.02928,0.01952,0.02928
0,-0.00732,0.01464,0.01464,0.01464,-0.00732,0.00976,0.00976,0.0244,0.03416,0.02928,0.03904
0.00976,-0.0122,0.01464,0.00976,0.00488,0.00244,-0.00488,0.00488,0.03904,0.03904,0.03416,0.04392
0.00976,-0.02196,0.03416,0.02928,0.0244,-0.00732,-0.0244,0,0.05368,0.05368,0.04392,0.0488
0.01464,-0.03172,0.0488,0.04148,0.03416,-0.00976,-0.03416,-0.01464,0.0488,0.05368,0.04392,0.0488
0.00488,-0.0366,0.06832,0.06588,0.06344,-0.02928,-0.04392,-0.03416,0.0488,0.05368,0.05368,0.05368
0.00976,-0.03904,0.06832,0.06344,0.05856,-0.0244,-0.0488,-0.03904,0.03904,0.0488,0.0488,0.05368
0.00976,-0.03904,0.06832,0.06344,0.05856,-0.0244,-0.0488,-0.0488,0.03416,0.03416,0.0488,0.0488
0.01952,-0.0488,0.07808,0.06832,0.05856,-0.01952,-0.05368,-0.0488,0.03416,0.03416,0.0488,0.0488
0.02928,-0.05856,0.08784,0.0732,0.05856,-0.01464,-0.05368,-0.04392,0.03416,0.0244,0.03904,0.04392
0.03416,-0.05612,0.07808,0.061,0.04392,-0.00488,-0.04392,-0.03416,0.0244,0.0244,0.03416,0.0488
0.03416,-0.05124,0.06832,0.05124,0.03416,0,-0.04392,-0.03416,0.00976,0.01952,0.03904,0.05368
0.03416,-0.04148,0.0488,0.03172,0.01464,0.00976,-0.03416,-0.0244,-0.00488,0,0.02928,0.03904
0.03416,-0.03416,0.03416,0.01708,0,0.01708,-0.0244,-0.01464,-0.01952,-0.0244,0.01952,0.03416
0.0244,-0.0244,0.0244,0.0122,0,0.0122,-0.01464,-0.01464,-0.02928,-0.02928,0.00976,0.0244
0.01464,-0.00732,0,-0.00732,-0.01464,0.01464,0.00488,0,-0.03416,-0.03904,-0.00488,0.01464
0,0.00976,-0.01952,-0.01952,-0.01952,0.00976,0.01952,0,-0.03416,-0.03904,-0.01464,0.00488
-0.00976,0.0244,-0.03904,-0.03416,-0.02928,0.00976,0.03416,0.00488,-0.03416,-0.04392,-0.01952,0.00976
-0.02928,0.04392,-0.05856,-0.04392,-0.02928,0,0.05368,0.01464,-0.03904,-0.05368,-0.02928,0
-0.03416,0.05612,-0.07808,-0.061,-0.04392,0.00488,0.06344,0.01464,-0.0488,-0.05368,-0.03416,-0.00976
-0.03904,0.061,-0.08296,-0.06344,-0.04392,0.00244,0.06832,0.01952,-0.05368,-0.06832,-0.04392,-0.01464
-0.0488,0.07076,-0.09272,-0.06832,-0.04392,-0.00244,0.06344,0.0244,-0.05856,-0.06832,-0.0488,-0.02928
-0.0488,0.07076,-0.09272,-0.06832,-0.04392,-0.00244,0.06832,0.0244,-0.05856,-0.06832,-0.0488,-0.02928
-0.05856,0.07808,-0.0976,-0.06832,-0.03904,-0.00976,0.06344,0.01952,-0.0732,-0.08296,-0.0488,-0.02928
-0.05856,0.07808,-0.0976,-0.06832,-0.03904,-0.00976,0.06832,0.01952,-0.0732,-0.08296,-0.0488,-0.02928
-0.0488,0.07564,-0.10248,-0.07808,-0.05368,0.00244,0.06344,0.01952,-0.06344,-0.08296,-0.03904,-0.03904
-0.0488,0.07564,-0.10248,-0.07808,-0.05368,0.00244,0.06344,0.01952,-0.06344,-0.07808,-0.03416,-0.03904
-0.0488,0.08052,-0.11224,-0.08784,-0.06344,0.00732,0.06832,0.02928,-0.06344,-0.0732,-0.03416,-0.02928
-0.0488,0.08052,-0.11224,-0.08784,-0.06344,0.00732,0.0732,0.02928,-0.05856,-0.07808,-0.03904,-0.02928
-0.05368,0.0854,-0.11712,-0.09028,-0.06344,0.00488,0.0732,0.02928,-0.05856,-0.07808,-0.02928,-0.02928
-0.05368,0.0854,-0.11712,-0.09028,-0.06344,0.00488,0.0732,0.03416,-0.05368,-0.07808,-0.02928,-0.02928
-0.05368,0.08052,-0.10736,-0.08052,-0.05368,0,0.06832,0.03416,-0.0488,-0.06832,-0.03416,-0.02928
-0.04392,0.0732,-0.10248,-0.08052,-0.05856,0.00732,0.08296,0.04392,-0.03416,-0.0488,-0.01952,-0.02928
-0.04392,0.07564,-0.10736,-0.0854,-0.06344,0.00976,0.0976,0.06344,0.01464,-0.01952,0,-0.01952
-0.0244,0.06344,-0.10248,-0.09028,-0.07808,0.02684,0.10736,0.09272,0.0732,0.04392,0.03904,0.01464
0,0.03904,-0.07808,-0.07808,-0.07808,0.03904,0.0976,0.10248,0.1464,0.122,0.11224,0.06832
0.0732,-0.02196,-0.02928,-0.06588,-0.10248,0.08784,0.0732,0.14152,0.23424,0.24888,0.25376,0.17568
0.19032,-0.11224,0.03416,-0.061,-0.15616,0.17324,0.05368,0.20008,0.366,0.43432,0.47336,0.37576
0.37088,-0.24156,0.11224,-0.0732,-0.25864,0.31476,0.01464,0.28792,0.55632,0.69784,0.79056,0.6588
0.5856,-0.4148,0.244,-0.0488,-0.3416,0.4636,-0.0488,0.38552,0.8296,1.03944,1.1712,1.00528
0.7808,-0.5978,0.4148,0.0244,-0.366,0.5734,-0.12688,0.4392,1.11264,1.37128,1.5372,1.342
0.81984,-0.67344,0.52704,0.11712,-0.2928,0.55632,-0.17568,0.40504,1.25416,1.4884,1.62504,1.43472
0.6588,-0.61488,0.57096,0.24156,-0.08784,0.37332,-0.18544,0.23912,1.15168,1.2688,1.35664,1.22488
0.33672,-0.43432,0.53192,0.36356,0.1952,0.07076,-0.16104,-0.01952,0.78568,0.7808,0.8052,0.77104
-0.01952,-0.2318,0.48312,0.49288,0.50264,-0.26108,-0.13176,-0.28792,0.2928,0.19032,0.18056,0.2684
-0.2684,-0.09516,0.45872,0.59292,0.72712,-0.49776,-0.1464,-0.51728,-0.1464,-0.2684,-0.25376,-0.10248
-0.366,-0.0488,0.4636,0.6466,0.8296,-0.5978,-0.18056,-0.60512,-0.42456,-0.46848,-0.43432,-0.25864
-0.366,-0.04636,0.45872,0.64172,0.82472,-0.59536,-0.22936,-0.60024,-0.5368,-0.51728,-0.45384,-0.29768
-0.29768,-0.04636,0.3904,0.53924,0.68808,-0.49288,-0.244,-0.50752,-0.5368,-0.47824,-0.40504,-0.2684
-0.1952,-0.05612,0.30744,0.40504,0.50264,-0.34892,-0.2196,-0.37088,-0.47824,-0.4148,-0.33184,-0.22448
-0.13176,-0.02928,0.19032,0.2562,0.32208,-0.22692,-0.1464,-0.23424,-0.38552,-0.3416,-0.26352,-0.16592
-0.08784,-0.00244,0.09272,0.13664,0.18056,-0.1342,-0.08784,-0.12688,-0.32208,-0.2928,-0.2196,-0.13176
-0.06832,0.01952,0.02928,0.06344,0.0976,-0.08296,-0.03416,-0.06832,-0.23912,-0.23424,-0.15128,-0.0976
-0.06832,0.03416,0,0.03416,0.06832,-0.06832,-0.00976,-0.0488,-0.18056,-0.18544,-0.11712,-0.0732
-0.05368,0.04392,-0.03416,-0.00732,0.01952,-0.0366,0.01464,-0.01464,-0.11712,-0.13664,-0.07808,-0.05368
-0.0488,0.0488,-0.0488,-0.0244,0,-0.0244,0.03904,0.01952,-0.08296,-0.10248,-0.05368,-0.03904
-0.04392,0.05856,-0.0732,-0.05124,-0.02928,-0.00732,0.0488,0.02928,-0.06832,-0.08784,-0.04392,-0.03416
-0.04392,0.06344,-0.08296,-0.061,-0.03904,-0.00244,0.05856,0.03904,-0.05856,-0.07808,-0.03416,-0.02928
-0.03904,0.06832,-0.0976,-0.07808,-0.05856,0.00976,0.05856,0.0488,-0.05368,-0.06832,-0.02928,-0.03416
-0.03904,0.06832,-0.0976,-0.07808,-0.05856,0.00976,0.06344,0.0488,-0.0488,-0.06832,-0.0244,-0.02928
-0.03904,0.06832,-0.0976,-0.07808,-0.05856,0.00976,0.06344,0.05856,-0.03904,-0.06344,-0.01464,-0.01952
-0.03416,0.06588,-0.0976,-0.08052,-0.06344,0.01464,0.06344,0.05856,-0.03904,-0.05368,-0.00976,-0.01464
-0.03416,0.06588,-0.0976,-0.08052,-0.06344,0.01464,0.06344,0.06344,-0.0244,-0.05856,-0.01952,-0.0244
-0.02928,0.06344,-0.0976,-0.08296,-0.06832,0.01952,0.06344,0.06344,-0.01952,-0.0488,-0.01464,-0.01952
-0.0244,0.05856,-0.09272,-0.08052,-0.06832,0.02196,0.06344,0.07808,-0.01464,-0.0488,0,-0.01464
-0.0244,0.05856,-0.09272,-0.08052,-0.06832,0.02196,0.05856,0.07808,-0.00488,-0.04392,0.01464,-0.00976
-0.00976,0.04636,-0.08296,-0.07808,-0.0732,0.03172,0.06832,0.07808,-0.00488,-0.02928,0.01464,0
-0.00976,0.04636,-0.08296,-0.07808,-0.0732,0.03172,0.06832,0.07808,0,-0.0244,0.0244,0.00488
0,0.04148,-0.08296,-0.08296,-0.08296,0.04148,0.05856,0.07808,0,-0.01952,0.0244,0.00976
0.00488,0.0366,-0.07808,-0.08052,-0.08296,0.04392,0.05856,0.08296,0.00488,-0.01464,0.0244,0.01464
0,0.03904,-0.07808,-0.07808,-0.07808,0.03904,0.06344,0.08296,0.00976,-0.00976,0.02928,0.00976
0.00488,0.0366,-0.07808,-0.08052,-0.08296,0.04392,0.06344,0.08296,0.01952,-0.00488,0.03904,0.01952
0.01464,0.03172,-0.07808,-0.0854,-0.09272,0.05368,0.06344,0.08296,0.01952,0.00488,0.03416,0.01952
0.01464,0.02928,-0.0732,-0.08052,-0.08784,0.05124,0.06344,0.08784,0.0244,0.01464,0.04392,0.03416
0.01952,0.0244,-0.06832,-0.07808,-0.08784,0.05368,0.05856,0.08784,0.02928,0.01464,0.05368,0.03416
0.0244,0.01952,-0.06344,-0.07564,-0.08784,0.05612,0.05856,0.08784,0.03416,0.0244,0.05856,0.04392
0.01952,0.0244,-0.06832,-0.07808,-0.08784,0.05368,0.0488,0.08784,0.03904,0.02928,0.06344,0.05368
0.0244,0.01952,-0.06344,-0.07564,-0.08784,0.05612,0.04392,0.08784,0.04392,0.02928,0.06832,0.05856
0.0244,0.01708,-0.05856,-0.07076,-0.08296,0.05368,0.03904,0.09272,0.0488,0.03904,0.07808,0.05856
0.02928,0.0122,-0.05368,-0.06832,-0.08296,0.05612,0.03904,0.09272,0.05368,0.0488,0.09272,0.05856
0.03416,0.00976,-0.05368,-0.07076,-0.08784,0.061,0.03416,0.09272,0.05368,0.05856,0.09272,0.06832
0.03416,0.00732,-0.0488,-0.06588,-0.08296,0.05856,0.02928,0.09272,0.06344,0.06832,0.10248,0.0732
0.03416,0.00488,-0.04392,-0.061,-0.07808,0.05612,0.02928,0.0976,0.06832,0.06344,0.11224,0.0732
0.03904,0,-0.03904,-0.05856,-0.07808,0.05856,0.0244,0.10248,0.07808,0.0732,0.11712,0.08296
0.04392,-0.00976,-0.0244,-0.04636,-0.06832,0.05612,0.0244,0.10248,0.07808,0.09272,0.12688,0.08784
0.0488,-0.01708,-0.01464,-0.03904,-0.06344,0.05612,0.01952,0.10248,0.08784,0.0976,0.13664,0.10248
0.05856,-0.02196,-0.01464,-0.04392,-0.0732,0.06588,0.01464,0.10736,0.0976,0.11224,0.1464,0.11224
0.06344,-0.0244,-0.01464,-0.04636,-0.07808,0.07076,0.00976,0.11224,0.10736,0.122,0.16104,0.11712
0.0732,-0.03416,-0.00488,-0.04148,-0.07808,0.07564,0.00488,0.11224,0.11712,0.14152,0.1708,0.13664
0.0732,-0.03416,-0.00488,-0.04148,-0.07808,0.07564,0.00488,0.122,0.13176,0.15616,0.18544,0.1464
0.08784,-0.05124,0.01464,-0.02928,-0.0732,0.08052,-0.00976,0.122,0.14152,0.17568,0.20496,0.16104
0.0976,-0.061,0.0244,-0.0244,-0.0732,0.0854,-0.01464,0.12688,0.15616,0.1952,0.22936,0.1708
0.10248,-0.061,0.01952,-0.03172,-0.08296,0.09272,-0.01464,0.13176,0.15616,0.20496,0.23912,0.18544
0.11224,-0.07076,0.02928,-0.02684,-0.08296,0.0976,-0.01952,0.13176,0.17568,0.21472,0.25376,0.1952
0.11712,-0.07808,0.03904,-0.01952,-0.07808,0.0976,-0.01952,0.13664,0.18544,0.2196,0.25864,0.20984
0.122,-0.08296,0.04392,-0.01708,-0.07808,0.10004,-0.0244,0.14152,0.20496,0.23424,0.27816,0.2196
0.12688,-0.09272,0.05856,-0.00488,-0.06832,0.0976,-0.02928,0.1464,0.21472,0.244,0.27816,0.2196
0.13176,-0.10004,0.06832,0.00244,-0.06344,0.0976,-0.02928,0.1464,0.22936,0.25864,0.28792,0.22936
0.13664,-0.10004,0.06344,-0.00488,-0.0732,0.10492,-0.02928,0.1464,0.22936,0.26352,0.2928,0.22936
0.14152,-0.10492,0.06832,-0.00244,-0.0732,0.10736,-0.04392,0.15128,0.244,0.27816,0.30256,0.244
0.15128,-0.11712,0.08296,0.00732,-0.06832,0.1098,-0.04392,0.15616,0.25864,0.2928,0.32696,0.25376
0.16104,-0.12444,0.08784,0.00732,-0.0732,0.11712,-0.0488,0.16104,0.2684,0.30744,0.33672,0.2684
0.1708,-0.12932,0.08784,0.00244,-0.08296,0.12688,-0.0488,0.16592,0.27816,0.32696,0.34648,0.27816
0.1708,-0.1342,0.0976,0.0122,-0.0732,0.122,-0.0488,0.16592,0.28792,0.32696,0.34648,0.28304
0.1708,-0.13176,0.09272,0.00732,-0.07808,0.12444,-0.0488,0.1708,0.30256,0.33184,0.36112,0.28304
0.1708,-0.13176,0.09272,0.00732,-0.07808,0.12444,-0.0488,0.16592,0.30256,0.33672,0.366,0.28304
0.1708,-0.13664,0.10248,0.01708,-0.06832,0.11956,-0.05856,0.15616,0.30744,0.3416,0.36112,0.27816
0.16104,-0.13176,0.10248,0.02196,-0.05856,0.1098,-0.05856,0.15128,0.30256,0.33672,0.35136,0.27328
0.15128,-0.12932,0.10736,0.03172,-0.04392,0.0976,-0.05368,0.14152,0.30256,0.32696,0.33672,0.2684
0.14152,-0.11956,0.0976,0.02684,-0.04392,0.09272,-0.05368,0.13176,0.28304,0.29768,0.3172,0.244
0.12688,-0.10736,0.08784,0.0244,-0.03904,0.08296,-0.0488,0.13176,0.27328,0.27816,0.29768,0.22936
0.10248,-0.09028,0.07808,0.02684,-0.0244,0.06344,-0.04392,0.122,0.24888,0.25376,0.2684,0.20496
0.08784,-0.08052,0.0732,0.02928,-0.01464,0.05124,-0.04392,0.10736,0.22936,0.23424,0.23912,0.18544
0.0732,-0.06832,0.06344,0.02684,-0.00976,0.04148,-0.03416,0.0976,0.20984,0.20496,0.20984,0.1708
0.06344,-0.05856,0.05368,0.02196,-0.00976,0.0366,-0.0244,0.08784,0.18544,0.17568,0.17568,0.14152
0.0488,-0.04636,0.04392,0.01952,-0.00488,0.02684,-0.0244,0.08296,0.16104,0.15128,0.1464,0.11224
0.04392,-0.03904,0.03416,0.0122,-0.00976,0.02684,-0.00976,0.07808,0.13664,0.122,0.13176,0.09272
0.03904,-0.02928,0.01952,0,-0.01952,0.02928,-0.00488,0.0732,0.11712,0.10248,0.10736,0.0732
0.02928,-0.0244,0.01952,0.00488,-0.00976,0.01952,0,0.0732,0.10248,0.0976,0.08296,0.06344
0.0244,-0.01464,0.00488,-0.00732,-0.01952,0.02196,0.00488,0.0732,0.09272,0.08784,0.0732,0.05368
0.00976,-0.00244,-0.00488,-0.00976,-0.01464,0.0122,0.00976,0.08296,0.08296,0.06832,0.06344,0.05368
0.00976,0,-0.00976,-0.01464,-0.01952,0.01464,0.01464,0.08296,0.0732,0.05856,0.05856,0.04392
0.00488,0.00732,-0.01952,-0.02196,-0.0244,0.01464,0.01464,0.0732,0.06344,0.04392,0.03904,0.02928
0.00488,0.00732,-0.01952,-0.02196,-0.0244,0.01464,0.01464,0.0732,0.06344,0.04392,0.03904,0.02928
0,0.00976,-0.01952,-0.01952,-0.01952,0.00976,0.01464,0.0732,0.05856,0.03904,0.03904,0.0244
0,0.00732,-0.01464,-0.01464,-0.01464,0.00732,0.01464,0.0732,0.05856,0.03904,0.03416,0.0244
0,0.01464,-0.02928,-0.02928,-0.02928,0.01464,0.01952,0.0732,0.0488,0.02928,0.03416,0.0244
0,0.01464,-0.02928,-0.02928,-0.02928,0.01464,0.01952,0.0732,0.0488,0.02928,0.03416,0.01952
0,0.01464,-0.02928,-0.02928,-0.02928,0.01464,0.00976,0.0732,0.0488,0.03904,0.03904,0.01952
0,0.01708,-0.03416,-0.03416,-0.03416,0.01708,0.00976,0.0732,0.04392,0.03904,0.03904,0.01952
0,0.0122,-0.0244,-0.0244,-0.0244,0.0122,0.00976,0.06832,0.04392,0.03904,0.03904,0.01952
0,0.0122,-0.0244,-0.0244,-0.0244,0.0122,0.00976,0.06832,0.04392,0.03904,0.03416,0.01952
-0.00488,0.0122,-0.01952,-0.01708,-0.01464,0.00488,0.00976,0.05856,0.04392,0.02928,0.03904,0.01952
