i,aVR,ii,aVF,iii,aVL,V1,V2,V3,V4,V5,V6
-0.14152,0.06344,0.01464,0.0854,0.15616,-0.14884,0.02928,-0.03416,-0.04392,-0.03904,-0.02928,-0.07808
-0.13664,0.061,0.01464,0.08296,0.15128,-0.14396,0.03904,-0.0244,-0.04392,-0.02928,-0.03416,-0.0732
-0.13664,0.061,0.01464,0.08296,0.15128,-0.14396,0.03904,-0.0244,-0.04392,-0.02928,-0.0244,-0.06344
-0.13176,0.05856,0.01464,0.08052,0.1464,-0.13908,0.03904,-0.02928,-0.02928,-0.0244,-0.0244,-0.05856
-0.14152,0.06344,0.01464,0.0854,0.15616,-0.14884,0.04392,-0.02928,-0.03416,-0.0244,-0.02928,-0.03416
-0.1464,0.061,0.0244,0.0976,0.1708,-0.1586,0.04392,-0.02928,-0.03416,-0.0244,-0.03904,-0.01952
-0.1464,0.05856,0.02928,0.10248,0.17568,-0.16104,0.04392,-0.03416,-0.03904,-0.0244,-0.05856,0
-0.15128,0.061,0.02928,0.10492,0.18056,-0.16592,0.05368,-0.0244,-0.03904,-0.01464,-0.05368,0.00976
-0.1464,0.061,0.0244,0.0976,0.1708,-0.1586,0.0488,-0.02928,-0.04392,-0.0244,-0.05368,0.00976
-0.1464,0.061,0.0244,0.0976,0.1708,-0.1586,0.03904,-0.03904,-0.04392,-0.0244,-0.03904,-0.00488
-0.1464,0.061,0.0244,0.0976,0.1708,-0.1586,0.03904,-0.03904,-0.04392,-0.0244,-0.03904,-0.0244
-0.14152,0.06344,0.01464,0.0854,0.15616,-0.14884,0.03904,-0.03904,-0.04392,-0.0244,-0.0244,-0.0488
-0.15128,0.07076,0.00976,0.0854,0.16104,-0.15616,0.03904,-0.04392,-0.04392,-0.0244,-0.01952,-0.05856
-0.15128,0.07076,0.00976,0.0854,0.16104,-0.15616,0.03904,-0.03416,-0.04392,-0.02928,-0.0244,-0.06344
-0.16104,0.08052,0,0.08052,0.16104,-0.16104,0.03904,-0.03904,-0.04392,-0.03416,-0.01952,-0.06832
-0.15616,0.06832,0.01952,0.0976,0.17568,-0.16592,0.0488,-0.02928,-0.0488,-0.0244,-0.01952,-0.05856
-0.15616,0.06832,0.01952,0.0976,0.17568,-0.16592,0.0488,-0.03416,-0.0488,-0.02928,-0.0244,-0.03904
-0.1464,0.06832,0.00976,0.08296,0.15616,-0.15128,0.0488,-0.04392,-0.0488,-0.02928,-0.03416,-0.0244
-0.13664,0.06344,0.00976,0.07808,0.1464,-0.14152,0.03904,-0.04392,-0.05368,-0.03416,-0.04392,-0.00488
-0.14152,0.06588,0.00976,0.08052,0.15128,-0.1464,0.04392,-0.04392,-0.05368,-0.03416,-0.05856,0.00488
-0.14152,0.06344,0.01464,0.0854,0.15616,-0.14884,0.04392,-0.0488,-0.05368,-0.03416,-0.05856,0.00488
-0.15128,0.0732,0.00488,0.08052,0.15616,-0.15372,0.04392,-0.0488,-0.05856,-0.03416,-0.05368,-0.01464
-0.15128,0.0732,0.00488,0.08052,0.15616,-0.15372,0.04392,-0.0488,-0.05856,-0.03416,-0.04392,-0.01952
-0.1464,0.06832,0.00976,0.08296,0.15616,-0.15128,0.05368,-0.03904,-0.0488,-0.03904,-0.0244,-0.03416
-0.13664,0.06344,0.00976,0.07808,0.1464,-0.14152,0.05368,-0.03904,-0.0488,-0.03904,-0.01952,-0.05368
-0.13664,0.061,0.01464,0.08296,0.15128,-0.14396,0.05368,-0.03904,-0.0488,-0.03416,-0.01952,-0.06832
-0.14152,0.06344,0.01464,0.0854,0.15616,-0.14884,0.05368,-0.03904,-0.0488,-0.03416,-0.01952,-0.0732
-0.1464,0.07076,0.00488,0.07808,0.15128,-0.14884,0.06344,-0.02928,-0.0488,-0.03416,-0.01464,-0.06344
-0.16592,0.08052,0.00488,0.08784,0.1708,-0.16836,0.05856,-0.03416,-0.0488,-0.03904,-0.01952,-0.05368
-0.17568,0.08052,0.01464,0.10248,0.19032,-0.183,0.05856,-0.03416,-0.03904,-0.02928,-0.02928,-0.03904
-0.1708,0.07564,0.01952,0.10492,0.19032,-0.18056,0.06344,-0.03416,-0.03904,-0.0244,-0.02928,-0.00976
-0.16104,0.07564,0.00976,0.09028,0.1708,-0.16592,0.05368,-0.03416,-0.0488,-0.0244,-0.04392,0.01464
-0.16592,0.08296,0,0.08296,0.16592,-0.16592,0.05368,-0.03904,-0.04392,-0.0244,-0.05368,0.01952
-0.1464,0.06832,0.00976,0.08296,0.15616,-0.15128,0.05856,-0.03904,-0.0488,-0.02928,-0.03904,0.00976
-0.1464,0.06832,0.00976,0.08296,0.15616,-0.15128,0.05856,-0.03904,-0.03904,-0.01952,-0.02928,-0.00976
-0.1464,0.06832,0.00976,0.08296,0.15616,-0.15128,0.05856,-0.03904,-0.03904,-0.01952,-0.02928,-0.01952
-0.16592,0.08296,0,0.08296,0.16592,-0.16592,0.05856,-0.02928,-0.03904,-0.01952,-0.01952,-0.03904
-0.18544,0.09272,0,0.09272,0.18544,-0.18544,0.05856,-0.02928,-0.03904,-0.01952,-0.00976,-0.05856
-0.18544,0.0976,-0.00976,0.08296,0.17568,-0.18056,0.05856,-0.03904,-0.03904,-0.02928,-0.00976,-0.06832
-0.18544,0.0976,-0.00976,0.08296,0.17568,-0.18056,0.05856,-0.03904,-0.03904,-0.02928,-0.00976,-0.06832
-0.15616,0.07808,0,0.07808,0.15616,-0.15616,0.0488,-0.0488,-0.0488,-0.03904,-0.01952,-0.05856
-0.12688,0.06344,0,0.06344,0.12688,-0.12688,0.0488,-0.0488,-0.05856,-0.03904,-0.02928,-0.0488
-0.13664,0.06832,0,0.06832,0.13664,-0.13664,0.0488,-0.05856,-0.05856,-0.03904,-0.03904,-0.02928
-0.1464,0.0732,0,0.0732,0.1464,-0.1464,0.0488,-0.05856,-0.05856,-0.03904,-0.0488,-0.00976
-0.1464,0.0732,0,0.0732,0.1464,-0.1464,0.0488,-0.0488,-0.05856,-0.03904,-0.05856,0
-0.1464,0.0732,0,0.0732,0.1464,-0.1464,0.0488,-0.0488,-0.05856,-0.03904,-0.05856,0.00976
-0.1464,0.0732,0,0.0732,0.1464,-0.1464,0.05856,-0.03904,-0.0488,-0.02928,-0.0488,0
-0.1464,0.0732,0,0.0732,0.1464,-0.1464,0.05856,-0.03904,-0.03904,-0.02928,-0.03904,-0.00976
-0.1464,0.0732,0,0.0732,0.1464,-0.1464,0.05856,-0.03904,-0.03904,-0.02928,-0.02928,-0.02928
-0.1464,0.0732,0,0.0732,0.1464,-0.1464,0.05856,-0.03904,-0.03904,-0.02928,-0.01952,-0.0488
-0.1464,0.0732,0,0.0732,0.1464,-0.1464,0.05856,-0.03904,-0.03904,-0.02928,-0.01952,-0.05856
-0.1464,0.0732,0,0.0732,0.1464,-0.1464,0.05856,-0.03904,-0.03904,-0.02928,-0.01952,-0.06832
-0.1464,0.0732,0,0.0732,0.1464,-0.1464,0.05856,-0.03904,-0.03904,-0.02928,-0.02928,-0.05856
-0.1464,0.0732,0,0.0732,0.1464,-0.1464,0.05856,-0.03904,-0.03904,-0.02928,-0.02928,-0.0488
-0.15616,0.08296,-0.00976,0.06832,0.1464,-0.15128,0.05856,-0.03904,-0.0488,-0.03904,-0.03904,-0.02928
-0.16592,0.08784,-0.00976,0.0732,0.15616,-0.16104,0.05856,-0.03904,-0.0488,-0.03904,-0.0488,-0.00976
-0.16592,0.09272,-0.01952,0.06344,0.1464,-0.15616,0.0488,-0.0488,-0.0488,-0.03904,-0.0488,0.00976
-0.16592,0.09272,-0.01952,0.06344,0.1464,-0.15616,0.0488,-0.0488,-0.0488,-0.03904,-0.0488,0.01952
-0.15616,0.08784,-0.01952,0.05856,0.13664,-0.1464,0.05856,-0.03904,-0.03904,-0.02928,-0.03904,0.00976
-0.15616,0.08784,-0.01952,0.05856,0.13664,-0.1464,0.05856,-0.03904,-0.03904,-0.02928,-0.03904,0.00976
-0.15616,0.08784,-0.01952,0.05856,0.13664,-0.1464,0.05856,-0.03904,-0.02928,-0.01952,-0.02928,-0.01952
-0.15616,0.08784,-0.01952,0.05856,0.13664,-0.1464,0.05856,-0.03904,-0.02928,-0.01952,-0.01952,-0.03904
-0.15616,0.08784,-0.01952,0.05856,0.13664,-0.1464,0.05856,-0.02928,-0.02928,-0.02928,-0.00976,-0.05856
-0.15616,0.08784,-0.01952,0.05856,0.13664,-0.1464,0.05856,-0.02928,-0.02928,-0.02928,0,-0.06832
-0.1464,0.08296,-0.01952,0.05368,0.12688,-0.13664,0.0488,-0.02928,-0.02928,-0.02928,-0.00976,-0.05856
-0.1464,0.08296,-0.01952,0.05368,0.12688,-0.13664,0.0488,-0.02928,-0.02928,-0.02928,-0.00976,-0.05856
-0.15616,0.08784,-0.01952,0.05856,0.13664,-0.1464,0.0488,-0.02928,-0.02928,-0.03904,-0.02928,-0.03904
-0.15616,0.08784,-0.01952,0.05856,0.13664,-0.1464,0.0488,-0.02928,-0.02928,-0.03904,-0.03904,-0.01952
-0.15616,0.08784,-0.01952,0.05856,0.13664,-0.1464,0.0488,-0.02928,-0.01952,-0.02928,-0.03904,0
-0.15616,0.08784,-0.01952,0.05856,0.13664,-0.1464,0.0488,-0.02928,-0.01952,-0.02928,-0.03904,0.01952
-0.1464,0.08296,-0.01952,0.05368,0.12688,-0.13664,0.0488,-0.02928,-0.01952,-0.01952,-0.03904,0.01952
-0.1464,0.08296,-0.01952,0.05368,0.12688,-0.13664,0.0488,-0.02928,-0.01952,-0.01952,-0.03904,0.01952
-0.13664,0.08296,-0.02928,0.03904,0.10736,-0.122,0.0488,-0.02928,-0.01952,-0.01952,-0.02928,-0.00976
-0.13664,0.08296,-0.02928,0.03904,0.10736,-0.122,0.0488,-0.02928,-0.01952,-0.01952,-0.02928,-0.02928
-0.13664,0.08296,-0.02928,0.03904,0.10736,-0.122,0.0488,-0.03904,-0.01952,-0.02928,-0.01952,-0.0488
-0.13664,0.08296,-0.02928,0.03904,0.10736,-0.122,0.0488,-0.03904,-0.01952,-0.02928,-0.00976,-0.06832
-0.1464,0.08784,-0.02928,0.04392,0.11712,-0.13176,0.05856,-0.02928,-0.00976,-0.01952,0,-0.06832
-0.15616,0.09272,-0.02928,0.0488,0.12688,-0.14152,0.05856,-0.02928,-0.00976,-0.01952,0,-0.06832
-0.16592,0.09272,-0.01952,0.06344,0.1464,-0.15616,0.05856,-0.01952,0,-0.00976,0,-0.03904
-0.16592,0.09272,-0.01952,0.06344,0.1464,-0.15616,0.05856,-0.00976,0.00976,-0.00976,0,-0.00976
-0.15616,0.08296,-0.00976,0.06832,0.1464,-0.15128,0.05856,0,0.00976,0,-0.00976,0.00976
-0.1464,0.07808,-0.00976,0.06344,0.13664,-0.14152,0.05856,0,0.00976,0,-0.00976,0.01952
-0.15616,0.08784,-0.01952,0.05856,0.13664,-0.1464,0.05856,0,0.01952,0.00976,-0.01952,0.02928
-0.15616,0.09272,-0.02928,0.0488,0.12688,-0.14152,0.05856,0,0.01952,0.00976,-0.01952,0.02928
-0.16592,0.0976,-0.02928,0.05368,0.13664,-0.15128,0.0732,0.01464,0.03416,0.01952,0,0.00976
-0.16104,0.09516,-0.02928,0.05124,0.13176,-0.1464,0.0732,0.03416,0.03904,0.03416,0.01464,0
-0.1464,0.08296,-0.01952,0.05368,0.12688,-0.13664,0.07808,0.04392,0.0488,0.04392,0.03416,-0.01952
-0.13664,0.07564,-0.01464,0.05368,0.122,-0.12932,0.08784,0.05368,0.05368,0.0488,0.05368,-0.03904
-0.11712,0.07076,-0.0244,0.03416,0.09272,-0.10492,0.07808,0.04392,0.0488,0.03904,0.0488,-0.04392
-0.10248,0.06344,-0.0244,0.02684,0.07808,-0.09028,0.07808,0.04392,0.0488,0.03904,0.0488,-0.03904
-0.09272,0.05856,-0.0244,0.02196,0.06832,-0.08052,0.0732,0.04392,0.04392,0.03416,0.03416,-0.01952
-0.07808,0.0488,-0.01952,0.01952,0.05856,-0.06832,0.06344,0.04392,0.03904,0.03416,0.03416,0.00488
-0.06832,0.04636,-0.0244,0.00976,0.04392,-0.05612,0.06344,0.05368,0.0488,0.04392,0.02928,0.0244
-0.05368,0.03904,-0.0244,0.00244,0.02928,-0.04148,0.04392,0.04392,0.0488,0.03904,0.02928,0.0488
-0.05368,0.03904,-0.0244,0.00244,0.02928,-0.04148,0.03904,0.04392,0.03904,0.03904,0.01952,0.05856
-0.0488,0.0366,-0.0244,0,0.0244,-0.0366,0.03416,0.02928,0.01952,0.02928,0.00976,0.06344
-0.03416,0.0244,-0.01464,0.00244,0.01952,-0.02684,0.01952,0.01464,0.00976,0.01952,0.01464,0.04392
-0.01952,0.01464,-0.00976,0,0.00976,-0.01464,0.01952,0.00488,-0.00488,0.00976,0.01464,0.02928
-0.00976,0.00244,0.00488,0.00976,0.01464,-0.0122,0.01952,-0.00488,-0.01464,0,0.01952,0.00488
-0.01952,0.00732,0.00488,0.01464,0.0244,-0.02196,0.0244,-0.01464,-0.01952,-0.00976,0.01464,-0.0244
-0.05368,0.03416,-0.01464,0.0122,0.03904,-0.04636,0.02928,-0.01952,-0.02928,-0.01952,0.01464,-0.0488
-0.06832,0.04636,-0.0244,0.00976,0.04392,-0.05612,0.02928,-0.01952,-0.02928,-0.01952,0.00976,-0.06344
-0.08784,0.05612,-0.0244,0.01952,0.06344,-0.07564,0.04392,-0.03904,-0.0244,-0.0244,-0.00488,-0.05368
-0.10736,0.06588,-0.0244,0.02928,0.08296,-0.09516,0.05368,-0.03416,-0.0244,-0.0244,-0.00488,-0.03904
-0.122,0.0732,-0.0244,0.0366,0.0976,-0.1098,0.05856,-0.03416,-0.0244,-0.01464,-0.01464,-0.0244
-0.14152,0.08296,-0.0244,0.04636,0.11712,-0.12932,0.06344,-0.03416,-0.0244,-0.01464,-0.01952,-0.00488
-0.13664,0.08784,-0.03904,0.02928,0.0976,-0.11712,0.05856,-0.03416,-0.02928,-0.02928,-0.03416,-0.00488
-0.1464,0.09272,-0.03904,0.03416,0.10736,-0.12688,0.06344,-0.03416,-0.03416,-0.02928,-0.04392,0
-0.12688,0.07808,-0.02928,0.03416,0.0976,-0.11224,0.0732,-0.04392,-0.03416,-0.03904,-0.04392,-0.00976
-0.11712,0.0732,-0.02928,0.02928,0.08784,-0.10248,0.0732,-0.04392,-0.03416,-0.04392,-0.04392,-0.01952
-0.12688,0.07564,-0.0244,0.03904,0.10248,-0.11468,0.07808,-0.04392,-0.03416,-0.04392,-0.03904,-0.0488
-0.12688,0.07564,-0.0244,0.03904,0.10248,-0.11468,0.07808,-0.04392,-0.03904,-0.04392,-0.04392,-0.0732
-0.14152,0.08296,-0.0244,0.04636,0.11712,-0.12932,0.07808,-0.04392,-0.03904,-0.04392,-0.02928,-0.0976
-0.14152,0.08296,-0.0244,0.04636,0.11712,-0.12932,0.08296,-0.04392,-0.03416,-0.04392,-0.02928,-0.10248
-0.15128,0.08784,-0.0244,0.05124,0.12688,-0.13908,0.08296,-0.03416,-0.03416,-0.04392,-0.0244,-0.09272
-0.15128,0.08784,-0.0244,0.05124,0.12688,-0.13908,0.08296,-0.03416,-0.03416,-0.04392,-0.0244,-0.08296
-0.15128,0.0854,-0.01952,0.05612,0.13176,-0.14152,0.09272,-0.03416,-0.02928,-0.04392,-0.03416,-0.05856
-0.15128,0.0854,-0.01952,0.05612,0.13176,-0.14152,0.09272,-0.03416,-0.0244,-0.04392,-0.03416,-0.0488
-0.16104,0.09272,-0.0244,0.05612,0.13664,-0.14884,0.08784,-0.03416,-0.03416,-0.0488,-0.04392,-0.02928
-0.16592,0.09516,-0.0244,0.05856,0.14152,-0.15372,0.08784,-0.03416,-0.03416,-0.0488,-0.05368,-0.01464
-0.16592,0.09272,-0.01952,0.06344,0.1464,-0.15616,0.0976,-0.03416,-0.03416,-0.03904,-0.05368,-0.0244
-0.16592,0.09272,-0.01952,0.06344,0.1464,-0.15616,0.09272,-0.03416,-0.03416,-0.03416,-0.05368,-0.02928
-0.16592,0.09516,-0.0244,0.05856,0.14152,-0.15372,0.09272,-0.0244,-0.0244,-0.03416,-0.04392,-0.0488
-0.16104,0.09028,-0.01952,0.061,0.14152,-0.15128,0.0976,-0.0244,-0.0244,-0.03416,-0.03416,-0.05856
-0.1464,0.08296,-0.01952,0.05368,0.12688,-0.13664,0.0976,-0.02928,-0.03416,-0.03416,-0.03416,-0.08296
-0.13664,0.07808,-0.01952,0.0488,0.11712,-0.12688,0.0976,-0.02928,-0.03416,-0.03416,-0.02928,-0.10736
-0.122,0.0732,-0.0244,0.0366,0.0976,-0.1098,0.09272,-0.02928,-0.0244,-0.03904,-0.01952,-0.0976
-0.14152,0.08296,-0.0244,0.04636,0.11712,-0.12932,0.09272,-0.03416,-0.01464,-0.03416,-0.01952,-0.08296
-0.17568,0.10004,-0.0244,0.06344,0.15128,-0.16348,0.08784,-0.03416,0,-0.01464,-0.01464,-0.0488
-0.1952,0.1098,-0.0244,0.0732,0.1708,-0.183,0.08784,-0.03416,0.0244,0.02928,0.01464,0
-0.2196,0.122,-0.0244,0.0854,0.1952,-0.2074,0.0732,-0.03416,0.0488,0.0732,0.05368,0.05368
-0.21472,0.11712,-0.01952,0.08784,0.1952,-0.20496,0.06344,-0.02928,0.10248,0.14152,0.122,0.10736
-0.1708,0.08784,-0.00488,0.08052,0.16592,-0.16836,0.03904,0.01464,0.18056,0.25376,0.23424,0.20496
-0.09272,0.04148,0.00976,0.05612,0.10248,-0.0976,-0.00976,0.08296,0.28792,0.3904,0.38552,0.2928
0.03416,-0.02684,0.01952,0.00244,-0.01464,0.0244,-0.06832,0.19032,0.40992,0.5368,0.54656,0.38552
0.20984,-0.11468,0.01952,-0.0854,-0.19032,0.20008,-0.10736,0.35136,0.49288,0.61488,0.6344,0.42456
0.42944,-0.21716,0.00488,-0.20984,-0.42456,0.427,-0.09272,0.54168,0.47336,0.5124,0.52216,0.3172
0.62952,-0.30744,-0.01464,-0.3294,-0.64416,0.63684,0.01952,0.71736,0.33672,0.23424,0.20496,0.06832
0.73688,-0.35624,-0.0244,-0.39284,-0.76128,0.74908,0.15128,0.81008,0.10248,-0.16104,-0.23912,-0.25864
0.74176,-0.34892,-0.04392,-0.4148,-0.78568,0.76372,0.30256,0.8052,-0.14152,-0.5368,-0.65392,-0.54656
0.64904,-0.30256,-0.04392,-0.36844,-0.69296,0.671,0.4148,0.71248,-0.33672,-0.77104,-0.91744,-0.71736
0.488,-0.21716,-0.05368,-0.29768,-0.54168,0.51484,0.488,0.52216,-0.44896,-0.8784,-1.01504,-0.7808
0.29768,-0.11956,-0.05856,-0.2074,-0.35624,0.32696,0.54168,0.33184,-0.50264,-0.89304,-1.02968,-0.78568
0.15128,-0.04636,-0.05856,-0.1342,-0.20984,0.18056,0.5612,0.17568,-0.52216,-0.86376,-1.0004,-0.75152
0.03416,0.0122,-0.05856,-0.07564,-0.09272,0.06344,0.5856,0.0732,-0.50752,-0.8052,-0.93696,-0.72224
-0.05368,0.05856,-0.06344,-0.0366,-0.00976,-0.02196,0.59536,0.05856,-0.45384,-0.732,-0.85888,-0.67832
-0.12688,0.09028,-0.05368,0.00976,0.0732,-0.10004,0.61488,0.08784,-0.35624,-0.62952,-0.75152,-0.61488
-0.20984,0.13176,-0.05368,0.05124,0.15616,-0.183,0.62952,0.1464,-0.26352,-0.52216,-0.63928,-0.54656
-0.26352,0.16104,-0.05856,0.0732,0.20496,-0.23424,0.6344,0.22936,-0.16104,-0.42944,-0.5368,-0.5124
-0.28304,0.16348,-0.04392,0.0976,0.23912,-0.26108,0.64416,0.30256,-0.09272,-0.33672,-0.4392,-0.45872
-0.28792,0.16592,-0.04392,0.10004,0.244,-0.26596,0.64416,0.366,-0.02928,-0.2684,-0.35624,-0.40016
-0.28792,0.1586,-0.02928,0.11468,0.25864,-0.27328,0.64416,0.41968,0.01952,-0.20008,-0.2928,-0.3416
-0.28304,0.15616,-0.02928,0.11224,0.25376,-0.2684,0.65392,0.45384,0.04392,-0.16104,-0.25376,-0.2928
-0.28304,0.15616,-0.02928,0.11224,0.25376,-0.2684,0.67344,0.45384,0.05368,-0.13664,-0.22936,-0.244
-0.2684,0.14396,-0.01952,0.11468,0.24888,-0.25864,0.68808,0.4392,0.05368,-0.122,-0.21472,-0.18544
-0.27816,0.15128,-0.0244,0.11468,0.25376,-0.26596,0.70272,0.40992,0.05368,-0.10736,-0.20008,-0.15616
-0.27816,0.15128,-0.0244,0.11468,0.25376,-0.26596,0.72712,0.40016,0.06344,-0.09272,-0.18544,-0.13664
-0.28792,0.1586,-0.02928,0.11468,0.25864,-0.27328,0.73688,0.38552,0.06832,-0.08296,-0.18056,-0.122
-0.27816,0.15616,-0.03416,0.10492,0.244,-0.26108,0.73688,0.35136,0.0732,-0.06832,-0.15616,-0.11224
-0.25376,0.13908,-0.0244,0.10248,0.22936,-0.24156,0.68808,0.28304,0.05368,-0.06832,-0.13176,-0.122
-0.22936,0.12688,-0.0244,0.09028,0.20496,-0.21716,0.5856,0.18056,0.01464,-0.05856,-0.10736,-0.11712
-0.19032,0.10004,-0.00976,0.0854,0.18056,-0.18544,0.44408,0.07808,-0.0244,-0.06832,-0.09272,-0.11712
-0.15616,0.07808,0,0.07808,0.15616,-0.15616,0.30744,0.01952,-0.03416,-0.06344,-0.06832,-0.10736
-0.15128,0.08052,-0.00976,0.06588,0.14152,-0.1464,0.20496,0.00488,-0.02928,-0.04392,-0.0488,-0.09272
-0.1464,0.0732,0,0.0732,0.1464,-0.1464,0.14152,-0.00488,-0.00976,-0.0244,-0.02928,-0.0732
-0.16104,0.0854,-0.00976,0.07076,0.15128,-0.15616,0.11224,0,0,-0.01952,-0.01464,-0.05368
-0.17568,0.09272,-0.00976,0.07808,0.16592,-0.1708,0.0976,-0.00488,0,-0.01952,-0.00976,-0.03416
-0.16592,0.09028,-0.01464,0.06832,0.15128,-0.1586,0.08296,-0.01464,0,-0.01464,-0.02928,-0.01464
-0.14152,0.07808,-0.01464,0.05612,0.12688,-0.1342,0.0732,-0.01952,0,-0.00976,-0.03416,0.00488
-0.11712,0.06588,-0.01464,0.04392,0.10248,-0.1098,0.05368,-0.02928,-0.00976,-0.01952,-0.04392,0
-0.10248,0.05368,-0.00488,0.04636,0.0976,-0.10004,0.04392,-0.0488,-0.0244,-0.02928,-0.05368,0.00976
-0.10248,0.05124,0,0.05124,0.10248,-0.10248,0.04392,-0.03904,-0.0244,-0.02928,-0.04392,-0.00976
-0.10248,0.0488,0.00488,0.05612,0.10736,-0.10492,0.03904,-0.0488,-0.02928,-0.03416,-0.0488,-0.01952
-0.10736,0.05368,0,0.05368,0.10736,-0.10736,0.03904,-0.04392,-0.02928,-0.0244,-0.03904,-0.03904
-0.11224,0.05368,0.00488,0.061,0.11712,-0.11468,0.02928,-0.0488,-0.02928,-0.0244,-0.02928,-0.05856
-0.122,0.05856,0.00488,0.06588,0.12688,-0.12444,0.04392,-0.04392,-0.0244,-0.01952,-0.01952,-0.05856
-0.122,0.05856,0.00488,0.06588,0.12688,-0.12444,0.03904,-0.04392,-0.0244,-0.01952,-0.00976,-0.06344
-0.10736,0.05124,0.00488,0.05856,0.11224,-0.1098,0.0244,-0.0488,-0.0244,-0.01952,-0.01952,-0.05368
-0.11224,0.05368,0.00488,0.061,0.11712,-0.11468,0.0244,-0.0488,-0.0244,-0.01952,-0.01952,-0.03904
-0.0976,0.04148,0.01464,0.06344,0.11224,-0.10492,0.01464,-0.06344,-0.03416,-0.01952,-0.0244,-0.00976
-0.0976,0.04148,0.01464,0.06344,0.11224,-0.10492,0.01464,-0.06344,-0.03416,-0.01952,-0.03904,0
-0.10248,0.04148,0.01952,0.07076,0.122,-0.11224,0.01464,-0.06344,-0.02928,-0.01952,-0.03904,0.01464
-0.10248,0.04148,0.01952,0.07076,0.122,-0.11224,0.00976,-0.06344,-0.02928,-0.01952,-0.03904,0.02928
-0.10248,0.04148,0.01952,0.07076,0.122,-0.11224,0.01952,-0.05368,-0.02928,-0.01464,-0.02928,0.0244
-0.10248,0.04148,0.01952,0.07076,0.122,-0.11224,0.02928,-0.05856,-0.02928,-0.01464,-0.02928,0.00976
-0.08784,0.03416,0.01952,0.06344,0.10736,-0.0976,0.02928,-0.0488,-0.02928,-0.01464,-0.01464,-0.01464
-0.08296,0.03172,0.01952,0.061,0.10248,-0.09272,0.0244,-0.05368,-0.02928,-0.01952,-0.01464,-0.02928
-0.09272,0.04392,0.00488,0.05124,0.0976,-0.09516,0.00976,-0.06344,-0.03416,-0.01952,-0.00488,-0.04392
-0.0976,0.04636,0.00488,0.05368,0.10248,-0.10004,0.00976,-0.0732,-0.03904,-0.0244,0,-0.05856
-0.0976,0.04636,0.00488,0.05368,0.10248,-0.10004,0.00488,-0.08296,-0.03904,-0.03416,-0.00976,-0.05856
-0.0976,0.04636,0.00488,0.05368,0.10248,-0.10004,0.00488,-0.08296,-0.04392,-0.03416,-0.00976,-0.05368
-0.09272,0.04148,0.00976,0.05612,0.10248,-0.0976,0.00488,-0.07808,-0.04392,-0.03416,-0.01952,-0.02928
-0.08296,0.03416,0.01464,0.05612,0.0976,-0.09028,0,-0.07808,-0.04392,-0.03416,-0.02928,-0.00488
-0.09272,0.0366,0.01952,0.06588,0.11224,-0.10248,-0.00488,-0.08296,-0.04392,-0.0244,-0.02928,0.01464
-0.10248,0.04636,0.00976,0.061,0.11224,-0.10736,-0.00488,-0.08296,-0.04392,-0.0244,-0.02928,0.02928
-0.09272,0.03904,0.01464,0.061,0.10736,-0.10004,-0.01952,-0.09272,-0.0488,-0.0244,-0.03416,0.01952
-0.10248,0.04148,0.01952,0.07076,0.122,-0.11224,-0.0244,-0.10248,-0.0488,-0.02928,-0.03416,0.0244
-0.08296,0.02928,0.0244,0.06588,0.10736,-0.09516,-0.03904,-0.11224,-0.05856,-0.03904,-0.02928,0
-0.05368,0.01464,0.0244,0.05124,0.07808,-0.06588,-0.04392,-0.11712,-0.06344,-0.0488,-0.02928,-0.02928
-0.05368,0.01952,0.01464,0.04148,0.06832,-0.061,-0.03904,-0.122,-0.06832,-0.05368,-0.01952,-0.0488
-0.0488,0.0244,0,0.0244,0.0488,-0.0488,-0.03904,-0.12688,-0.07808,-0.06344,-0.02928,-0.06344
-0.05856,0.0244,0.00976,0.03904,0.06832,-0.06344,-0.03416,-0.122,-0.0732,-0.06344,-0.01952,-0.06344
-0.05856,0.02684,0.00488,0.03416,0.06344,-0.061,-0.04392,-0.13664,-0.08296,-0.0732,-0.02928,-0.05856
-0.05856,0.0244,0.00976,0.03904,0.06832,-0.06344,-0.05368,-0.14152,-0.0976,-0.07808,-0.04392,-0.03904
-0.05856,0.0244,0.00976,0.03904,0.06832,-0.06344,-0.05856,-0.15616,-0.10736,-0.08784,-0.06344,-0.02928
-0.05856,0.0244,0.00976,0.03904,0.06832,-0.06344,-0.06832,-0.16592,-0.11712,-0.08784,-0.07808,-0.00488
-0.05856,0.02196,0.01464,0.04392,0.0732,-0.06588,-0.06832,-0.17568,-0.12688,-0.08784,-0.08784,0
-0.04392,0.00488,0.03416,0.05612,0.07808,-0.061,-0.06832,-0.18056,-0.13176,-0.10248,-0.09272,0.01464
-0.0488,0.00976,0.02928,0.05368,0.07808,-0.06344,-0.07808,-0.19032,-0.14152,-0.10736,-0.09272,0.01464
-0.05856,0.01952,0.01952,0.0488,0.07808,-0.06832,-0.07808,-0.20984,-0.1464,-0.11224,-0.08784,-0.00488
-0.05368,0.01708,0.01952,0.04636,0.0732,-0.06344,-0.09272,-0.2196,-0.15616,-0.122,-0.0976,-0.03904
-0.05368,0.0244,0.00488,0.03172,0.05856,-0.05612,-0.08784,-0.22936,-0.16592,-0.13176,-0.09272,-0.05368
-0.0488,0.02196,0.00488,0.02928,0.05368,-0.05124,-0.0976,-0.23912,-0.17568,-0.13176,-0.08784,-0.06344
-0.03904,0.0122,0.01464,0.03416,0.05368,-0.04636,-0.10248,-0.24888,-0.17568,-0.13664,-0.08784,-0.0732
-0.0244,0.00488,0.01464,0.02684,0.03904,-0.03172,-0.10736,-0.24888,-0.18056,-0.13664,-0.08784,-0.0732
-0.01952,0,0.01952,0.02928,0.03904,-0.02928,-0.11712,-0.25864,-0.18056,-0.15128,-0.0976,-0.05856
-0.01952,0,0.01952,0.02928,0.03904,-0.02928,-0.122,-0.25864,-0.18544,-0.1464,-0.10736,-0.05368
-0.01464,0,0.01464,0.02196,0.02928,-0.02196,-0.13176,-0.25864,-0.18056,-0.14152,-0.11712,-0.03416
-0.01952,0.00244,0.01464,0.0244,0.03416,-0.02684,-0.13664,-0.25864,-0.16592,-0.13176,-0.10736,-0.00488
-0.02928,0.00976,0.00976,0.0244,0.03904,-0.03416,-0.1464,-0.25376,-0.1708,-0.11712,-0.11224,0.00488
-0.03904,0.01464,0.00976,0.02928,0.0488,-0.04392,-0.1464,-0.244,-0.15616,-0.10736,-0.10736,0.00976
-0.03416,0.0122,0.00976,0.02684,0.04392,-0.03904,-0.14152,-0.23424,-0.1464,-0.10248,-0.08296,-0.00488
-0.03904,0.01464,0.00976,0.02928,0.0488,-0.04392,-0.14152,-0.2196,-0.122,-0.08296,-0.0732,-0.00976
-0.03904,0.01708,0.00488,0.0244,0.04392,-0.04148,-0.12688,-0.20984,-0.10248,-0.06832,-0.0488,-0.0244
-0.04392,0.01708,0.00976,0.03172,0.05368,-0.0488,-0.11712,-0.18544,-0.08296,-0.05368,-0.03904,-0.03416
-0.0488,0.01952,0.00976,0.03416,0.05856,-0.05368,-0.11224,-0.16592,-0.06344,-0.04392,-0.01952,-0.04392
-0.04392,0.01952,0.00488,0.02684,0.0488,-0.04636,-0.10736,-0.1464,-0.05368,-0.0244,-0.00976,-0.0488
-0.0488,0.01708,0.01464,0.03904,0.06344,-0.05612,-0.10248,-0.13176,-0.03416,-0.01464,-0.01464,-0.02928
-0.05368,0.0244,0.00488,0.03172,0.05856,-0.05612,-0.09272,-0.11224,-0.01464,-0.00488,-0.00976,-0.02928
-0.04392,0.0122,0.01952,0.04148,0.06344,-0.05368,-0.06832,-0.0976,-0.00488,0.00976,-0.00976,-0.00488
-0.02928,0.00244,0.0244,0.03904,0.05368,-0.04148,-0.05856,-0.07808,0.00488,0.01952,-0.00488,0.01952
-0.03904,0.00976,0.01952,0.03904,0.05856,-0.0488,-0.04392,-0.0488,0.01952,0.0244,-0.01464,0.02928
-0.0488,0.01708,0.01464,0.03904,0.06344,-0.05612,-0.03416,-0.03904,0.02928,0.0244,-0.01464,0.04392
-0.03904,0.00976,0.01952,0.03904,0.05856,-0.0488,-0.0244,-0.01952,0.03416,0.03416,-0.00488,0.03416
-0.04392,0.0122,0.01952,0.04148,0.06344,-0.05368,-0.01464,-0.01464,0.03904,0.03416,-0.00488,0.0244
-0.03416,0.00488,0.0244,0.04148,0.05856,-0.04636,0,0,0.0488,0.03904,0.00488,-0.00488
-0.02928,0,0.02928,0.04392,0.05856,-0.04392,0.00976,0.00976,0.05368,0.03904,0.01464,-0.01464
-0.04392,0.0122,0.01952,0.04148,0.06344,-0.05368,0.01464,0.01952,0.0488,0.03416,0.01464,-0.0488
-0.05368,0.02196,0.00976,0.0366,0.06344,-0.05856,0.02928,0.0244,0.0488,0.01952,0.01464,-0.06344
-0.05368,0.02196,0.00976,0.0366,0.06344,-0.05856,0.03904,0.03416,0.03904,0.01952,0,-0.05368
-0.06344,0.02928,0.00488,0.0366,0.06832,-0.06588,0.0488,0.03904,0.04392,0.01952,-0.00488,-0.0488
-0.05368,0.01708,0.01952,0.04636,0.0732,-0.06344,0.05368,0.04392,0.04392,0.01952,-0.01952,-0.0244
-0.06344,0.01952,0.0244,0.05612,0.08784,-0.07564,0.05856,0.0488,0.04392,0.01464,-0.01952,-0.01464
-0.06832,0.02684,0.01464,0.0488,0.08296,-0.07564,0.05856,0.0488,0.04392,0.01464,-0.03416,0
-0.06832,0.02928,0.00976,0.04392,0.07808,-0.0732,0.05856,0.0488,0.03416,0.01464,-0.03904,0.00976
-0.07808,0.0366,0.00488,0.04392,0.08296,-0.08052,0.06832,0.0488,0.03416,0.00976,-0.0488,0.00488
-0.08784,0.04148,0.00488,0.0488,0.09272,-0.09028,0.06832,0.04392,0.02928,0.00976,-0.0488,0.00976
-0.08296,0.03904,0.00488,0.04636,0.08784,-0.0854,0.07808,0.04392,0.03904,0.00976,-0.03904,-0.01952
-0.08784,0.04148,0.00488,0.0488,0.09272,-0.09028,0.08296,0.0488,0.03904,0.00976,-0.03904,-0.03904
-0.07808,0.0366,0.00488,0.04392,0.08296,-0.08052,0.0732,0.0488,0.03904,0.00488,-0.02928,-0.06344
-0.0732,0.03416,0.00488,0.04148,0.07808,-0.07564,0.0732,0.0488,0.03904,0.00488,-0.01952,-0.07808
-0.05856,0.0244,0.00976,0.03904,0.06832,-0.06344,0.06832,0.03904,0.02928,-0.00488,-0.02928,-0.0732
-0.0488,0.01708,0.01464,0.03904,0.06344,-0.05612,0.06832,0.03904,0.02928,-0.00488,-0.02928,-0.0732
-0.06344,0.0244,0.01464,0.04636,0.07808,-0.07076,0.0732,0.0488,0.02928,-0.00488,-0.03904,-0.0488
-0.05856,0.02196,0.01464,0.04392,0.0732,-0.06588,0.0732,0.0488,0.02928,-0.00488,-0.03416,-0.02928
-0.07808,0.04148,-0.00488,0.03416,0.0732,-0.07564,0.07808,0.0488,0.02928,0.00488,-0.04392,-0.00488
-0.08784,0.04636,-0.00488,0.03904,0.08296,-0.0854,0.07808,0.0488,0.02928,0.00976,-0.04392,0.00488
-0.0976,0.05368,-0.00976,0.03904,0.08784,-0.09272,0.07808,0.05856,0.03904,0.00976,-0.04392,0.00976
-0.11224,0.061,-0.00976,0.04636,0.10248,-0.10736,0.0732,0.06344,0.04392,0.00976,-0.04392,0.01464
-0.09272,0.05368,-0.01464,0.03172,0.07808,-0.0854,0.06832,0.05368,0.03416,0,-0.04392,-0.00976
-0.08296,0.0488,-0.01464,0.02684,0.06832,-0.07564,0.06344,0.05368,0.02928,0,-0.04392,-0.03416
-0.05856,0.03416,-0.00976,0.01952,0.0488,-0.05368,0.06832,0.05368,0.02928,0,-0.02928,-0.0488
-0.05368,0.0244,0.00488,0.03172,0.05856,-0.05612,0.06832,0.05368,0.02928,0,-0.0244,-0.06344
-0.06344,0.02928,0.00488,0.0366,0.06832,-0.06588,0.07808,0.05368,0.02928,0,-0.01464,-0.06344
-0.06344,0.02928,0.00488,0.0366,0.06832,-0.06588,0.0732,0.05368,0.02928,0,-0.01464,-0.05856
-0.06832,0.03172,0.00488,0.03904,0.0732,-0.07076,0.06344,0.0488,0.03904,0.00976,-0.01952,-0.04392
-0.0732,0.03416,0.00488,0.04148,0.07808,-0.07564,0.05368,0.0488,0.03904,0.00976,-0.01952,-0.03416
-0.0732,0.03416,0.00488,0.04148,0.07808,-0.07564,0.0488,0.03904,0.02928,0,-0.02928,-0.00976
-0.0732,0.03416,0.00488,0.04148,0.07808,-0.07564,0.0488,0.03904,0.02928,0,-0.03416,0.00976
-0.0732,0.03904,-0.00488,0.03172,0.06832,-0.07076,0.0488,0.03904,0.02928,0.00488,-0.0488,0.01464
-0.0732,0.04148,-0.00976,0.02684,0.06344,-0.06832,0.0488,0.03904,0.02928,0.00488,-0.0488,0.01952
-0.0732,0.04148,-0.00976,0.02684,0.06344,-0.06832,0.06344,0.03904,0.02928,0.00488,-0.04392,0.00488
-0.07808,0.04148,-0.00488,0.03416,0.0732,-0.07564,0.05856,0.03416,0.02928,0.00488,-0.03416,-0.01464
-0.08296,0.0488,-0.01464,0.02684,0.06832,-0.07564,0.06344,0.03416,0.02928,0,-0.01952,-0.03416
-0.08784,0.05124,-0.01464,0.02928,0.0732,-0.08052,0.06344,0.03416,0.02928,0,-0.01952,-0.05368
-0.08296,0.0488,-0.01464,0.02684,0.06832,-0.07564,0.06344,0.02928,0.02928,-0.01464,-0.01464,-0.06832
-0.06832,0.03904,-0.00976,0.0244,0.05856,-0.06344,0.06344,0.02928,0.02928,-0.01464,-0.01464,-0.06832
-0.08784,0.04636,-0.00488,0.03904,0.08296,-0.0854,0.05368,0.03416,0.0244,-0.00488,-0.0244,-0.05368
-0.09272,0.05368,-0.01464,0.03172,0.07808,-0.0854,0.0488,0.03416,0.0244,-0.00488,-0.0244,-0.04392
-0.11224,0.06832,-0.0244,0.03172,0.08784,-0.10004,0.0488,0.0244,0.01952,-0.00976,-0.04392,-0.02928
-0.11224,0.06832,-0.0244,0.03172,0.08784,-0.10004,0.04392,0.01464,0.01464,-0.00976,-0.0488,-0.00976
-0.10248,0.05856,-0.01464,0.0366,0.08784,-0.09516,0.05856,0.0244,0.0244,-0.00976,-0.04392,0
-0.0976,0.05124,-0.00488,0.04392,0.09272,-0.09516,0.05856,0.0244,0.0244,0,-0.05368,0.00976
-0.08784,0.04636,-0.00488,0.03904,0.08296,-0.0854,0.06832,0.0244,0.0244,-0.00976,-0.0488,0.00976
-0.08296,0.04392,-0.00488,0.0366,0.07808,-0.08052,0.06832,0.0244,0.0244,-0.00976,-0.03904,-0.00488
-0.06832,0.0366,-0.00488,0.02928,0.06344,-0.06588,0.05856,0.01952,0.01952,-0.01464,-0.03904,-0.02928
-0.05368,0.02928,-0.00488,0.02196,0.0488,-0.05124,0.06344,0.01952,0.01464,-0.0244,-0.03416,-0.05856
-0.05856,0.02684,0.00488,0.03416,0.06344,-0.061,0.05368,0.00488,0.00976,-0.0244,-0.02928,-0.06832
-0.05368,0.02196,0.00976,0.0366,0.06344,-0.05856,0.05368,0.00488,0.00976,-0.0244,-0.03416,-0.07808
-0.06832,0.0366,-0.00488,0.02928,0.06344,-0.06588,0.05368,0.00488,0.00976,-0.02928,-0.04392,-0.06832
-0.07808,0.04636,-0.01464,0.0244,0.06344,-0.07076,0.0488,0,0.00488,-0.03416,-0.03904,-0.06832
-0.08784,0.05124,-0.01464,0.02928,0.0732,-0.08052,0.0488,0,0.00488,-0.0244,-0.0488,-0.04392
-0.08296,0.0488,-0.01464,0.02684,0.06832,-0.07564,0.0488,0,0.00488,-0.0244,-0.04392,-0.02928
-0.07808,0.04148,-0.00488,0.03416,0.0732,-0.07564,0.0488,0.00488,0.00488,-0.01464,-0.0488,-0.00488
-0.08296,0.04148,0,0.04148,0.08296,-0.08296,0.0488,0.00488,0.00488,0,-0.05368,0.01464
-0.08296,0.04636,-0.00976,0.03172,0.0732,-0.07808,0.0488,0.00488,0.00488,-0.00976,-0.05368,0.00488
-0.07808,0.03904,0,0.03904,0.07808,-0.07808,0.0488,0,0.00488,-0.01464,-0.05368,-0.01464
-0.08784,0.0488,-0.00976,0.03416,0.07808,-0.08296,0.0488,-0.00976,0,-0.0244,-0.05368,-0.04392
-0.09272,0.05612,-0.01952,0.02684,0.0732,-0.08296,0.05368,-0.01464,0,-0.02928,-0.0488,-0.05856
-0.09272,0.05612,-0.01952,0.02684,0.0732,-0.08296,0.04392,-0.01464,-0.00976,-0.03416,-0.03904,-0.0732
-0.09272,0.05856,-0.0244,0.02196,0.06832,-0.08052,0.04392,-0.01464,-0.01464,-0.03416,-0.04392,-0.08296
-0.08296,0.05124,-0.01952,0.02196,0.06344,-0.0732,0.04392,-0.01464,-0.01464,-0.03416,-0.03904,-0.08296
-0.08296,0.0488,-0.01464,0.02684,0.06832,-0.07564,0.04392,-0.01952,-0.01952,-0.03416,-0.03904,-0.08784
-0.0732,0.04392,-0.01464,0.02196,0.05856,-0.06588,0.04392,-0.01952,-0.01952,-0.04392,-0.0488,-0.06832
-0.0732,0.04392,-0.01464,0.02196,0.05856,-0.06588,0.04392,-0.01952,-0.01952,-0.04392,-0.0488,-0.0488
-0.08296,0.04636,-0.00976,0.03172,0.0732,-0.07808,0.04392,-0.01952,-0.01952,-0.02928,-0.05368,-0.03416
-0.07808,0.04636,-0.01464,0.0244,0.06344,-0.07076,0.04392,-0.01952,-0.01952,-0.02928,-0.05856,-0.01952
-0.08784,0.05124,-0.01464,0.02928,0.0732,-0.08052,0.04392,-0.01952,-0.00976,-0.0244,-0.05856,-0.01464
-0.09272,0.05368,-0.01464,0.03172,0.07808,-0.0854,0.04392,-0.01952,-0.00976,-0.0244,-0.05856,-0.01952
-0.09272,0.05368,-0.01464,0.03172,0.07808,-0.0854,0.05368,-0.01952,-0.00976,-0.0244,-0.05368,-0.03904
-0.08296,0.0488,-0.01464,0.02684,0.06832,-0.07564,0.0488,-0.0244,-0.00976,-0.02928,-0.0488,-0.05368
-0.08784,0.05368,-0.01952,0.0244,0.06832,-0.07808,0.0488,-0.0244,-0.01952,-0.03904,-0.03904,-0.0732
-0.08296,0.05124,-0.01952,0.02196,0.06344,-0.0732,0.05368,-0.0244,-0.01952,-0.03416,-0.04392,-0.08296
-0.0976,0.061,-0.0244,0.0244,0.0732,-0.0854,0.05368,-0.02928,-0.0244,-0.04392,-0.03416,-0.10248
-0.10248,0.05856,-0.01464,0.0366,0.08784,-0.09516,0.05368,-0.01952,-0.01464,-0.03416,-0.03416,-0.08784
-0.0976,0.05368,-0.00976,0.03904,0.08784,-0.09272,0.03904,-0.02928,-0.02928,-0.03904,-0.0488,-0.0732
-0.0976,0.05368,-0.00976,0.03904,0.08784,-0.09272,0.03904,-0.02928,-0.02928,-0.03904,-0.0488,-0.06344
-0.0976,0.05856,-0.01952,0.02928,0.07808,-0.08784,0.03904,-0.02928,-0.02928,-0.03904,-0.05856,-0.05368
-0.0976,0.05856,-0.01952,0.02928,0.07808,-0.08784,0.03904,-0.02928,-0.02928,-0.03904,-0.05856,-0.04392
-0.08784,0.05856,-0.02928,0.01464,0.05856,-0.0732,0.03904,-0.02928,-0.02928,-0.02928,-0.06832,-0.02928
-0.08784,0.05856,-0.02928,0.01464,0.05856,-0.0732,0.03904,-0.02928,-0.02928,-0.02928,-0.06832,-0.02928
-0.07808,0.0488,-0.01952,0.01952,0.05856,-0.06832,0.03904,-0.01952,-0.01952,-0.02928,-0.06344,-0.03416
-0.07808,0.0488,-0.01952,0.01952,0.05856,-0.06832,0.03904,-0.01952,-0.01952,-0.02928,-0.05368,-0.04392
-0.08296,0.05124,-0.01952,0.02196,0.06344,-0.0732,0.03904,-0.02928,-0.02928,-0.03904,-0.0488,-0.05856
-0.09272,0.05612,-0.01952,0.02684,0.0732,-0.08296,0.03904,-0.02928,-0.02928,-0.03904,-0.0488,-0.07808
-0.0976,0.05368,-0.00976,0.03904,0.08784,-0.09272,0.03904,-0.03904,-0.02928,-0.04392,-0.0488,-0.09272
-0.0976,0.05368,-0.00976,0.03904,0.08784,-0.09272,0.03904,-0.03904,-0.02928,-0.05368,-0.0488,-0.10248
-0.09272,0.04636,0,0.04636,0.09272,-0.09272,0.03904,-0.03904,-0.02928,-0.0488,-0.0488,-0.09272
-0.08296,0.04148,0,0.04148,0.08296,-0.08296,0.03904,-0.03904,-0.02928,-0.0488,-0.0488,-0.08296
-0.08296,0.04392,-0.00488,0.0366,0.07808,-0.08052,0.03904,-0.0488,-0.02928,-0.03904,-0.05856,-0.06832
-0.09272,0.05368,-0.01464,0.03172,0.07808,-0.0854,0.03904,-0.0488,-0.02928,-0.03904,-0.05856,-0.0488
-0.0976,0.06344,-0.02928,0.01952,0.06832,-0.08296,0.03904,-0.03904,-0.02928,-0.03904,-0.05856,-0.03416
-0.0976,0.06344,-0.02928,0.01952,0.06832,-0.08296,0.03904,-0.03904,-0.02928,-0.03904,-0.05856,-0.0244
-0.10736,0.06344,-0.01952,0.03416,0.08784,-0.0976,0.03904,-0.03904,-0.02928,-0.03904,-0.0488,-0.0244
-0.10736,0.06344,-0.01952,0.03416,0.08784,-0.0976,0.03904,-0.03904,-0.02928,-0.03904,-0.0488,-0.03416
-0.10736,0.06344,-0.01952,0.03416,0.08784,-0.0976,0.03904,-0.03904,-0.03904,-0.03904,-0.0488,-0.05856
-0.10736,0.06344,-0.01952,0.03416,0.08784,-0.0976,0.03904,-0.03904,-0.03904,-0.03904,-0.0488,-0.07808
-0.0976,0.05368,-0.00976,0.03904,0.08784,-0.09272,0.03904,-0.0488,-0.03904,-0.0488,-0.03904,-0.0976
-0.0976,0.05368,-0.00976,0.03904,0.08784,-0.09272,0.03904,-0.0488,-0.03904,-0.0488,-0.03904,-0.0976
-0.08784,0.04392,0,0.04392,0.08784,-0.08784,0.02928,-0.05856,-0.0488,-0.05856,-0.0488,-0.08784
-0.08784,0.04392,0,0.04392,0.08784,-0.08784,0.02928,-0.05856,-0.0488,-0.05856,-0.0488,-0.08784
-0.08784,0.0488,-0.00976,0.03416,0.07808,-0.08296,0.02928,-0.05856,-0.0488,-0.0488,-0.05368,-0.07808
-0.08784,0.0488,-0.00976,0.03416,0.07808,-0.08296,0.02928,-0.05856,-0.0488,-0.0488,-0.06344,-0.05856
-0.0976,0.05368,-0.00976,0.03904,0.08784,-0.09272,0.03904,-0.0488,-0.03904,-0.0488,-0.06832,-0.04392
-0.0976,0.05368,-0.00976,0.03904,0.08784,-0.09272,0.03904,-0.0488,-0.03904,-0.0488,-0.06832,-0.03416
-0.10736,0.061,-0.01464,0.03904,0.09272,-0.10004,0.03904,-0.0488,-0.03904,-0.0488,-0.06832,-0.03904
-0.10736,0.06588,-0.0244,0.02928,0.08296,-0.09516,0.03904,-0.0488,-0.03904,-0.0488,-0.06832,-0.03904
-0.10248,0.061,-0.01952,0.03172,0.08296,-0.09272,0.02928,-0.0488,-0.03904,-0.0488,-0.05856,-0.0488
-0.09272,0.05612,-0.01952,0.02684,0.0732,-0.08296,0.02928,-0.0488,-0.03904,-0.0488,-0.05856,-0.06832
-0.08296,0.0488,-0.01464,0.02684,0.06832,-0.07564,0.02928,-0.05856,-0.03904,-0.0488,-0.05368,-0.09272
-0.0732,0.03904,-0.00488,0.03172,0.06832,-0.07076,0.02928,-0.05856,-0.03904,-0.0488,-0.04392,-0.10248
-0.0732,0.0366,0,0.0366,0.0732,-0.0732,0.03904,-0.0488,-0.02928,-0.03904,-0.02928,-0.10248
-0.08296,0.04148,0,0.04148,0.08296,-0.08296,0.03904,-0.0488,-0.02928,-0.03904,-0.02928,-0.09272
-0.09272,0.04636,0,0.04636,0.09272,-0.09272,0.0488,-0.03904,-0.01952,-0.02928,-0.03904,-0.07808
-0.10248,0.05124,0,0.05124,0.10248,-0.10248,0.0488,-0.03904,-0.01952,-0.02928,-0.03904,-0.05856
-0.0976,0.0488,0,0.0488,0.0976,-0.0976,0.0488,-0.03416,-0.01464,-0.01952,-0.03904,-0.03416
-0.0976,0.0488,0,0.0488,0.0976,-0.0976,0.0488,-0.0244,-0.00488,-0.01952,-0.03904,-0.0244
-0.08784,0.04392,0,0.04392,0.08784,-0.08784,0.03904,-0.00976,0,-0.01952,-0.03904,-0.01952
-0.08784,0.04392,0,0.04392,0.08784,-0.08784,0.04392,-0.00488,0.00488,-0.01952,-0.03904,-0.01952
-0.08296,0.04636,-0.00976,0.03172,0.0732,-0.07808,0.04392,0.00488,0,-0.01464,-0.0244,-0.03416
-0.07808,0.04392,-0.00976,0.02928,0.06832,-0.0732,0.0488,0.01464,0.00976,-0.00488,-0.01464,-0.04392
-0.06832,0.03172,0.00488,0.03904,0.0732,-0.07076,0.0488,0.01464,0.01464,0,0.00488,-0.05368
-0.05856,0.02684,0.00488,0.03416,0.06344,-0.061,0.0488,0.01464,0.01952,0,0.00976,-0.05856
-0.05368,0.0244,0.00488,0.03172,0.05856,-0.05612,0.0488,0.01464,0.01952,0,0.00976,-0.06832
-0.04392,0.01952,0.00488,0.02684,0.0488,-0.04636,0.03416,0.01464,0.01464,0.00488,0.00488,-0.06832
-0.03904,0.01952,0,0.01952,0.03904,-0.03904,0.01464,0.00976,0,0.00488,0.00488,-0.03904
-0.02928,0.01708,-0.00488,0.00976,0.0244,-0.02684,0.00488,0,0,0.00488,0.00976,-0.02928
-0.00488,0.00488,-0.00488,-0.00244,0,-0.00244,-0.00488,-0.00488,0.00976,0,0,-0.00488
0.00488,0,-0.00488,-0.00732,-0.00976,0.00732,-0.01952,-0.01464,-0.00976,-0.00976,-0.00976,0.00488
0.00976,-0.00732,0.00488,0,-0.00488,0.00732,-0.0244,-0.01952,-0.02928,-0.00976,-0.01952,0.00976
0.0244,-0.01464,0.00488,-0.00732,-0.01952,0.02196,-0.02928,-0.03416,-0.03904,-0.01952,-0.0244,0.00976
0.02928,-0.01952,0.00976,-0.00488,-0.01952,0.0244,-0.01952,-0.04392,-0.05368,-0.02928,-0.0244,-0.00488
0.02928,-0.02196,0.01464,0,-0.01464,0.02196,-0.01952,-0.05368,-0.06344,-0.03904,-0.02928,-0.01952
0.0244,-0.0244,0.0244,0.0122,0,0.0122,-0.01464,-0.06344,-0.06832,-0.0488,-0.03416,-0.04392
0.00976,-0.0122,0.01464,0.00976,0.00488,0.00244,0,-0.06832,-0.06832,-0.0488,-0.03416,-0.06832
-0.00976,-0.00244,0.01464,0.01952,0.0244,-0.01708,0,-0.06832,-0.06832,-0.0488,-0.03904,-0.08296
-0.02928,0.00732,0.01464,0.02928,0.04392,-0.0366,0.00488,-0.07808,-0.0732,-0.05368,-0.04392,-0.08296
-0.05856,0.0244,0.00976,0.03904,0.06832,-0.06344,0.00488,-0.0732,-0.0732,-0.06344,-0.04392,-0.06832
-0.06344,0.03172,0,0.03172,0.06344,-0.06344,0.00976,-0.0732,-0.0732,-0.06344,-0.04392,-0.0732
-0.06344,0.02928,0.00488,0.0366,0.06832,-0.06588,0.0244,-0.0732,-0.0732,-0.06344,-0.05856,-0.06344
-0.06832,0.03416,0,0.03416,0.06832,-0.06832,0.02928,-0.0732,-0.06832,-0.06832,-0.06344,-0.05368
-0.07808,0.04392,-0.00976,0.02928,0.06832,-0.0732,0.03416,-0.0732,-0.0732,-0.06832,-0.06344,-0.03904
-0.07808,0.04392,-0.00976,0.02928,0.06832,-0.0732,0.04392,-0.0732,-0.0732,-0.06832,-0.0732,-0.03904
-0.07808,0.0488,-0.01952,0.01952,0.05856,-0.06832,0.04392,-0.0732,-0.08296,-0.0732,-0.0732,-0.04392
-0.07808,0.04636,-0.01464,0.0244,0.06344,-0.07076,0.0488,-0.0732,-0.08296,-0.0732,-0.06832,-0.06344
-0.06832,0.03416,0,0.03416,0.06832,-0.06832,0.0488,-0.0732,-0.07808,-0.0732,-0.06344,-0.08784
-0.0732,0.03172,0.00976,0.04636,0.08296,-0.07808,0.0488,-0.0732,-0.07808,-0.0732,-0.05856,-0.10248
-0.08296,0.03416,0.01464,0.05612,0.0976,-0.09028,0.05368,-0.0732,-0.0732,-0.0732,-0.0488,-0.11224
-0.09272,0.03904,0.01464,0.061,0.10736,-0.10004,0.05368,-0.0732,-0.0732,-0.0732,-0.05368,-0.11224
-0.09272,0.04148,0.00976,0.05612,0.10248,-0.0976,0.05368,-0.0732,-0.0732,-0.0732,-0.05368,-0.10248
-0.09272,0.0488,-0.00488,0.04148,0.08784,-0.09028,0.05368,-0.0732,-0.07808,-0.0732,-0.05368,-0.0976
-0.08296,0.04148,0,0.04148,0.08296,-0.08296,0.04392,-0.0732,-0.0732,-0.0732,-0.06344,-0.08296
-0.08296,0.03904,0.00488,0.04636,0.08784,-0.0854,0.0488,-0.0732,-0.0732,-0.07808,-0.06344,-0.0732
-0.07808,0.04148,-0.00488,0.03416,0.0732,-0.07564,0.0488,-0.0732,-0.0732,-0.07808,-0.0732,-0.05856
-0.07808,0.04392,-0.00976,0.02928,0.06832,-0.0732,0.0488,-0.0732,-0.0732,-0.07808,-0.0732,-0.0488
-0.08784,0.05368,-0.01952,0.0244,0.06832,-0.07808,0.04392,-0.0732,-0.0732,-0.0732,-0.0732,-0.05856
-0.08784,0.05124,-0.01464,0.02928,0.0732,-0.08052,0.04392,-0.0732,-0.0732,-0.0732,-0.0732,-0.05856
-0.08296,0.04148,0,0.04148,0.08296,-0.08296,0.0488,-0.08296,-0.0732,-0.06344,-0.06832,-0.0732
-0.07808,0.03904,0,0.03904,0.07808,-0.07808,0.0488,-0.07808,-0.0732,-0.06344,-0.05856,-0.08784
-0.08784,0.04636,-0.00488,0.03904,0.08296,-0.0854,0.05856,-0.06832,-0.0732,-0.0732,-0.0488,-0.10248
-0.09272,0.05612,-0.01952,0.02684,0.0732,-0.08296,0.05368,-0.06832,-0.0732,-0.06832,-0.0488,-0.11224
-0.11224,0.06832,-0.0244,0.03172,0.08784,-0.10004,0.05368,-0.0732,-0.06344,-0.06344,-0.03904,-0.11224
-0.12688,0.07076,-0.01464,0.0488,0.11224,-0.11956,0.0488,-0.08296,-0.03904,-0.03416,-0.01464,-0.08784
-0.13664,0.06588,0.00488,0.0732,0.14152,-0.13908,0.03904,-0.08296,-0.01464,0.01952,0.0244,-0.03904
-0.15128,0.06832,0.01464,0.09028,0.16592,-0.1586,0.0244,-0.08296,0.03904,0.08296,0.09272,0.0244
-0.15616,0.0732,0.00976,0.08784,0.16592,-0.16104,0.00488,-0.05856,0.10248,0.18056,0.18056,0.10736
-0.122,0.05856,0.00488,0.06588,0.12688,-0.12444,-0.02928,-0.00488,0.20984,0.32208,0.3416,0.22448
-0.03416,0.00732,0.01952,0.0366,0.05368,-0.04392,-0.07808,0.08296,0.33672,0.49776,0.52216,0.36112
0.11224,-0.07076,0.02928,-0.02684,-0.08296,0.0976,-0.12688,0.2196,0.46848,0.65392,0.6832,0.4636
0.32696,-0.183,0.03904,-0.12444,-0.28792,0.30744,-0.1464,0.3904,0.54168,0.6832,0.72224,0.47336
0.54656,-0.28548,0.0244,-0.24888,-0.52216,0.53436,-0.09272,0.59048,0.49288,0.5124,0.5124,0.30744
0.71736,-0.35624,-0.00488,-0.36356,-0.72224,0.7198,0.03904,0.74664,0.28792,0.11712,0.07808,-0.00976
0.8052,-0.3904,-0.0244,-0.427,-0.8296,0.8174,0.19032,0.8296,0.03416,-0.3172,-0.39528,-0.35624
0.7808,-0.3782,-0.0244,-0.4148,-0.8052,0.793,0.31232,0.78568,-0.20008,-0.66368,-0.7808,-0.64416
0.67832,-0.32208,-0.03416,-0.37332,-0.71248,0.6954,0.40504,0.65392,-0.37576,-0.8784,-0.99552,-0.79544
0.52704,-0.24644,-0.03416,-0.29768,-0.5612,0.54412,0.46848,0.4636,-0.488,-0.93696,-1.06384,-0.83936
0.38552,-0.17324,-0.03904,-0.2318,-0.42456,0.40504,0.49288,0.28304,-0.55144,-0.96136,-1.05896,-0.84424
0.24888,-0.09516,-0.05856,-0.183,-0.30744,0.27816,0.52216,0.13664,-0.57096,-0.92232,-1.01016,-0.80032
0.15128,-0.04636,-0.05856,-0.1342,-0.20984,0.18056,0.51728,0.06344,-0.55632,-0.86376,-0.94672,-0.74176
0.05368,0,-0.05368,-0.08052,-0.10736,0.08052,0.52704,0.0488,-0.48312,-0.77104,-0.85888,-0.67832
-0.03904,0.04636,-0.05368,-0.03416,-0.01464,-0.0122,0.5368,0.0976,-0.38552,-0.6588,-0.732,-0.61488
-0.11224,0.08296,-0.05368,0.00244,0.05856,-0.0854,0.5612,0.15616,-0.28304,-0.55144,-0.62952,-0.54656
-0.15616,0.0976,-0.03904,0.03904,0.11712,-0.13664,0.57584,0.23912,-0.19032,-0.44896,-0.51728,-0.48312
-0.17568,0.10492,-0.03416,0.05368,0.14152,-0.1586,0.57584,0.31232,-0.122,-0.366,-0.41968,-0.44896
-0.18056,0.10248,-0.0244,0.06588,0.15616,-0.16836,0.57584,0.366,-0.06832,-0.30744,-0.34648,-0.40016
-0.18056,0.10004,-0.01952,0.07076,0.16104,-0.1708,0.57584,0.40992,-0.02928,-0.24888,-0.27328,-0.35136
-0.17568,0.10248,-0.02928,0.05856,0.1464,-0.16104,0.59536,0.42456,-0.01464,-0.20008,-0.23424,-0.30256
-0.1952,0.11224,-0.02928,0.06832,0.16592,-0.18056,0.61488,0.39528,-0.00488,-0.18544,-0.20008,-0.28304
-0.20984,0.12444,-0.03904,0.06588,0.1708,-0.19032,0.62952,0.37088,-0.01464,-0.1708,-0.1952,-0.25376
-0.2196,0.12688,-0.03416,0.07564,0.18544,-0.20252,0.64416,0.3416,-0.01464,-0.15616,-0.18056,-0.21472
-0.2196,0.12688,-0.03416,0.07564,0.18544,-0.20252,0.6588,0.3416,-0.00488,-0.14152,-0.16592,-0.18544
-0.2196,0.12444,-0.02928,0.08052,0.19032,-0.20496,0.66856,0.3172,0,-0.13176,-0.16104,-0.1708
-0.20008,0.11224,-0.0244,0.07564,0.17568,-0.18788,0.64904,0.26352,-0.01464,-0.12688,-0.1464,-0.15128
-0.1952,0.11468,-0.03416,0.06344,0.16104,-0.17812,0.57096,0.18544,-0.04392,-0.12688,-0.14152,-0.15128
-0.1708,0.0976,-0.0244,0.061,0.1464,-0.1586,0.45872,0.0732,-0.0732,-0.13664,-0.11712,-0.1464
-0.15128,0.0854,-0.01952,0.05612,0.13176,-0.14152,0.3172,-0.01952,-0.10248,-0.12688,-0.09272,-0.1464
-0.12688,0.06832,-0.00976,0.05368,0.11712,-0.122,0.20008,-0.0488,-0.10248,-0.10248,-0.05856,-0.13664
-0.122,0.061,0,0.061,0.122,-0.122,0.10736,-0.06344,-0.07808,-0.08296,-0.02928,-0.122
-0.11712,0.06344,-0.00976,0.0488,0.10736,-0.11224,0.06344,-0.05368,-0.06832,-0.0732,-0.01952,-0.122
-0.11224,0.06588,-0.01952,0.0366,0.09272,-0.10248,0.04392,-0.05856,-0.06832,-0.06832,-0.01464,-0.10248
-0.11712,0.06832,-0.01952,0.03904,0.0976,-0.10736,0.02928,-0.06344,-0.06832,-0.06832,-0.00976,-0.09272
-0.11712,0.07076,-0.0244,0.03416,0.09272,-0.10492,0.01464,-0.0732,-0.06832,-0.06344,-0.01952,-0.08296
-0.10248,0.06344,-0.0244,0.02684,0.07808,-0.09028,0.00488,-0.07808,-0.06832,-0.05856,-0.01464,-0.0732
-0.08784,0.05124,-0.01464,0.02928,0.0732,-0.08052,-0.00488,-0.07808,-0.06832,-0.05856,-0.0244,-0.0488
-0.08296,0.04392,-0.00488,0.0366,0.07808,-0.08052,-0.01464,-0.08784,-0.0732,-0.05856,-0.0244,-0.02928
-0.08296,0.04636,-0.00976,0.03172,0.0732,-0.07808,-0.0244,-0.08784,-0.0732,-0.05856,-0.03416,-0.03904
-0.08296,0.0488,-0.01464,0.02684,0.06832,-0.07564,-0.02928,-0.0976,-0.07808,-0.06344,-0.03904,-0.0488
-0.08784,0.05368,-0.01952,0.0244,0.06832,-0.07808,-0.02928,-0.09272,-0.07808,-0.06344,-0.02928,-0.06832
-0.09272,0.05368,-0.01464,0.03172,0.07808,-0.0854,-0.03904,-0.0976,-0.07808,-0.06344,-0.01952,-0.07808
-0.09272,0.05368,-0.01464,0.03172,0.07808,-0.0854,-0.03416,-0.10248,-0.08296,-0.06832,-0.01952,-0.0976
-0.09272,0.05368,-0.01464,0.03172,0.07808,-0.0854,-0.03904,-0.10248,-0.08296,-0.06832,-0.01952,-0.11224
-0.0976,0.061,-0.0244,0.0244,0.0732,-0.0854,-0.04392,-0.10736,-0.09272,-0.06832,-0.02928,-0.11224
-0.10248,0.06344,-0.0244,0.02684,0.07808,-0.09028,-0.04392,-0.10736,-0.09272,-0.06832,-0.02928,-0.10736
-0.08784,0.05124,-0.01464,0.02928,0.0732,-0.08052,-0.03416,-0.10248,-0.08296,-0.06832,-0.03416,-0.07808
-0.08784,0.05124,-0.01464,0.02928,0.0732,-0.08052,-0.03416,-0.10248,-0.08296,-0.06832,-0.03904,-0.06832
-0.0732,0.0366,0,0.0366,0.0732,-0.0732,-0.03416,-0.10248,-0.08784,-0.05856,-0.03904,-0.04392
-0.0732,0.0366,0,0.0366,0.0732,-0.0732,-0.03904,-0.10248,-0.08784,-0.05856,-0.03904,-0.02928
-0.08296,0.04636,-0.00976,0.03172,0.0732,-0.07808,-0.03904,-0.10248,-0.07808,-0.06344,-0.03904,-0.0244
-0.09272,0.05612,-0.01952,0.02684,0.0732,-0.08296,-0.03904,-0.10736,-0.07808,-0.06344,-0.03904,-0.02928
-0.08784,0.04392,0,0.04392,0.08784,-0.08784,-0.03904,-0.0976,-0.08784,-0.05368,-0.0244,-0.04392
-0.08296,0.04148,0,0.04148,0.08296,-0.08296,-0.04392,-0.10248,-0.08784,-0.05856,-0.0244,-0.05856
-0.0732,0.04392,-0.01464,0.02196,0.05856,-0.06588,-0.05856,-0.11224,-0.10248,-0.06832,-0.03416,-0.08296
-0.07808,0.04636,-0.01464,0.0244,0.06344,-0.07076,-0.05856,-0.13176,-0.10736,-0.0732,-0.03904,-0.0976
-0.06832,0.04148,-0.01464,0.01952,0.05368,-0.061,-0.06344,-0.13176,-0.10736,-0.0732,-0.03904,-0.10736
-0.06832,0.04148,-0.01464,0.01952,0.05368,-0.061,-0.06344,-0.13176,-0.11224,-0.0732,-0.03904,-0.10248
-0.0732,0.0366,0,0.0366,0.0732,-0.0732,-0.06344,-0.12688,-0.10248,-0.06344,-0.0488,-0.08784
-0.06344,0.02928,0.00488,0.0366,0.06832,-0.06588,-0.06832,-0.12688,-0.10248,-0.06344,-0.0488,-0.0732
-0.0732,0.0366,0,0.0366,0.0732,-0.0732,-0.06344,-0.13176,-0.10248,-0.06344,-0.05856,-0.05368
-0.08296,0.04636,-0.00976,0.03172,0.0732,-0.07808,-0.06344,-0.13176,-0.10248,-0.06344,-0.05856,-0.03904
-0.09272,0.05368,-0.01464,0.03172,0.07808,-0.0854,-0.06832,-0.13176,-0.10736,-0.06344,-0.06344,-0.02928
-0.10248,0.05612,-0.00976,0.04148,0.09272,-0.0976,-0.0732,-0.14152,-0.10736,-0.06832,-0.06344,-0.0244
-0.09272,0.0488,-0.00488,0.04148,0.08784,-0.09028,-0.07808,-0.14152,-0.11712,-0.06832,-0.05856,-0.0488
-0.08296,0.04392,-0.00488,0.0366,0.07808,-0.08052,-0.08296,-0.1464,-0.122,-0.07808,-0.05856,-0.06832
-0.0732,0.03904,-0.00488,0.03172,0.06832,-0.07076,-0.08784,-0.16104,-0.12688,-0.08296,-0.05856,-0.08784
-0.06832,0.03904,-0.00976,0.0244,0.05856,-0.06344,-0.08784,-0.16592,-0.13664,-0.09272,-0.06832,-0.10248
-0.05856,0.02928,0,0.02928,0.05856,-0.05856,-0.09272,-0.18056,-0.14152,-0.10248,-0.06832,-0.11224
-0.05856,0.03172,-0.00488,0.0244,0.05368,-0.05612,-0.10248,-0.1952,-0.15128,-0.11224,-0.07808,-0.10736
-0.0488,0.0244,0,0.0244,0.0488,-0.0488,-0.10248,-0.19032,-0.16592,-0.13664,-0.09272,-0.0976
-0.0488,0.0244,0,0.0244,0.0488,-0.0488,-0.10736,-0.20496,-0.17568,-0.15616,-0.11224,-0.0976
-0.05856,0.03416,-0.00976,0.01952,0.0488,-0.05368,-0.11712,-0.20496,-0.18544,-0.16592,-0.11712,-0.0732
-0.05856,0.03172,-0.00488,0.0244,0.05368,-0.05612,-0.11712,-0.21472,-0.1952,-0.16592,-0.12688,-0.06832
-0.05368,0.02928,-0.00488,0.02196,0.0488,-0.05124,-0.11712,-0.2196,-0.19032,-0.14152,-0.11224,-0.05368
-0.05856,0.03416,-0.00976,0.01952,0.0488,-0.05368,-0.12688,-0.22936,-0.20008,-0.11712,-0.10248,-0.05368
-0.05856,0.03416,-0.00976,0.01952,0.0488,-0.05368,-0.12688,-0.23912,-0.1952,-0.11224,-0.0976,-0.06344
-0.05368,0.02684,0,0.02684,0.05368,-0.05368,-0.14152,-0.24888,-0.20496,-0.122,-0.10736,-0.07808
-0.05368,0.02928,-0.00488,0.02196,0.0488,-0.05124,-0.1464,-0.2684,-0.22448,-0.14152,-0.122,-0.10248
-0.0488,0.02684,-0.00488,0.01952,0.04392,-0.04636,-0.15616,-0.27816,-0.244,-0.15128,-0.12688,-0.11224
-0.05856,0.0366,-0.01464,0.01464,0.04392,-0.05124,-0.16104,-0.28792,-0.244,-0.16592,-0.11712,-0.13176
-0.05368,0.03416,-0.01464,0.0122,0.03904,-0.04636,-0.16592,-0.28792,-0.24888,-0.17568,-0.11712,-0.13176
-0.0488,0.0244,0,0.0244,0.0488,-0.0488,-0.15616,-0.28792,-0.23912,-0.18056,-0.12688,-0.11712
-0.0488,0.0244,0,0.0244,0.0488,-0.0488,-0.16104,-0.28792,-0.244,-0.17568,-0.12688,-0.11224
-0.04392,0.01952,0.00488,0.02684,0.0488,-0.04636,-0.16104,-0.27816,-0.23912,-0.16104,-0.12688,-0.10248
-0.03904,0.01708,0.00488,0.0244,0.04392,-0.04148,-0.16592,-0.27816,-0.22448,-0.15128,-0.11712,-0.08296
-0.02928,0.01464,0,0.01464,0.02928,-0.02928,-0.16592,-0.27328,-0.2196,-0.1464,-0.122,-0.0732
-0.02928,0.01464,0,0.01464,0.02928,-0.02928,-0.16592,-0.26352,-0.20496,-0.13664,-0.11712,-0.05856
-0.0244,0.0122,0,0.0122,0.0244,-0.0244,-0.1708,-0.25376,-0.1952,-0.122,-0.10248,-0.06344
-0.02928,0.01464,0,0.01464,0.02928,-0.02928,-0.1708,-0.23912,-0.1708,-0.10248,-0.09272,-0.05856
-0.02928,0.01708,-0.00488,0.00976,0.0244,-0.02684,-0.15616,-0.23912,-0.15128,-0.08784,-0.06832,-0.06344
-0.03416,0.01708,0,0.01708,0.03416,-0.03416,-0.1464,-0.21472,-0.13176,-0.0732,-0.05856,-0.0732
-0.03904,0.01952,0,0.01952,0.03904,-0.03904,-0.13176,-0.18544,-0.11224,-0.06344,-0.03904,-0.08296
-0.03416,0.01952,-0.00488,0.0122,0.02928,-0.03172,-0.12688,-0.16592,-0.10248,-0.04392,-0.02928,-0.08784
-0.0488,0.02684,-0.00488,0.01952,0.04392,-0.04636,-0.122,-0.16104,-0.0732,-0.03416,-0.01464,-0.08784
-0.05368,0.03416,-0.01464,0.0122,0.03904,-0.04636,-0.11224,-0.14152,-0.05368,-0.0244,-0.00976,-0.08784
-0.06344,0.0366,-0.00976,0.02196,0.05368,-0.05856,-0.0976,-0.12688,-0.05368,-0.00976,-0.00976,-0.0732
-0.05856,0.03172,-0.00488,0.0244,0.05368,-0.05612,-0.08784,-0.10736,-0.04392,0,-0.01464,-0.05856
-0.0488,0.0244,0,0.0244,0.0488,-0.0488,-0.08296,-0.08784,-0.02928,0.01464,-0.01464,-0.0488
-0.05856,0.03172,-0.00488,0.0244,0.05368,-0.05612,-0.0732,-0.07808,-0.01952,0.01464,-0.01464,-0.03416
-0.06832,0.04392,-0.01952,0.01464,0.0488,-0.05856,-0.06344,-0.05856,-0.01464,0.01464,-0.01464,-0.03416
-0.0732,0.04636,-0.01952,0.01708,0.05368,-0.06344,-0.05368,-0.05368,-0.00976,0.01464,-0.01464,-0.04392
-0.0732,0.04392,-0.01464,0.02196,0.05856,-0.06588,-0.03904,-0.0488,-0.00976,0.01952,-0.0244,-0.06344
-0.06832,0.03904,-0.00976,0.0244,0.05856,-0.06344,-0.02928,-0.03904,-0.00488,0.01952,-0.0244,-0.0732
-0.06344,0.03172,0,0.03172,0.06344,-0.06344,-0.01464,-0.02928,0,0.01464,-0.01464,-0.0976
-0.06344,0.03172,0,0.03172,0.06344,-0.06344,0,-0.0244,0,0,-0.00488,-0.10248
-0.0732,0.0366,0,0.0366,0.0732,-0.0732,0,-0.01464,0,0.00976,-0.00976,-0.11224
-0.08296,0.04392,-0.00488,0.0366,0.07808,-0.08052,0.00976,-0.00976,0.00488,0.00976,-0.01464,-0.10736
-0.09272,0.05124,-0.00976,0.0366,0.08296,-0.08784,0.01464,-0.00488,0.00488,0,-0.02928,-0.10248
-0.10248,0.05856,-0.01464,0.0366,0.08784,-0.09516,0.01952,0,0.00488,-0.00488,-0.02928,-0.10248
-0.0976,0.05124,-0.00488,0.04392,0.09272,-0.09516,0.01952,0,0.00488,0.00488,-0.04392,-0.07808
-0.08784,0.04392,0,0.04392,0.08784,-0.08784,0.01952,0,-0.00488,0.00488,-0.0488,-0.06832
-0.08784,0.04148,0.00488,0.0488,0.09272,-0.09028,0.01952,0,-0.00488,0,-0.0488,-0.06344
-0.08784,0.04148,0.00488,0.0488,0.09272,-0.09028,0.01952,-0.00488,-0.00976,0,-0.0488,-0.05856
-0.08296,0.04392,-0.00488,0.0366,0.07808,-0.08052,0.02928,0.00488,0,0,-0.03904,-0.07808
-0.08784,0.04636,-0.00488,0.03904,0.08296,-0.0854,0.03416,0.00976,0,0,-0.03904,-0.07808
-0.08784,0.04636,-0.00488,0.03904,0.08296,-0.0854,0.03416,0,-0.00976,-0.00488,-0.03904,-0.10248
-0.09272,0.0488,-0.00488,0.04148,0.08784,-0.09028,0.03416,0,-0.00976,-0.00488,-0.03904,-0.11712
-0.0976,0.05368,-0.00976,0.03904,0.08784,-0.09272,0.03904,0,-0.00976,-0.01464,-0.02928,-0.122
-0.0976,0.05612,-0.01464,0.03416,0.08296,-0.09028,0.03904,0,-0.00976,-0.01464,-0.02928,-0.13176
-0.09272,0.0488,-0.00488,0.04148,0.08784,-0.09028,0.03416,0,0,-0.01464,-0.03904,-0.11712
-0.08784,0.04636,-0.00488,0.03904,0.08296,-0.0854,0.03416,0,0,-0.01464,-0.03416,-0.10736
-0.08784,0.04636,-0.00488,0.03904,0.08296,-0.0854,0.03904,0.00976,0,-0.00488,-0.04392,-0.09272
-0.08784,0.04148,0.00488,0.0488,0.09272,-0.09028,0.03904,0.00976,0,0,-0.04392,-0.08296
-0.08784,0.04392,0,0.04392,0.08784,-0.08784,0.03904,0.00976,0,0,-0.04392,-0.06832
-0.09272,0.04636,0,0.04636,0.09272,-0.09272,0.03416,0.01464,0.00488,0,-0.04392,-0.05368
-0.09272,0.0488,-0.00488,0.04148,0.08784,-0.09028,0.03904,0.01464,0.00488,0,-0.04392,-0.06832
-0.10248,0.05368,-0.00488,0.04636,0.0976,-0.10004,0.03416,0.01464,0,0,-0.04392,-0.0732
-0.10736,0.05856,-0.00976,0.04392,0.0976,-0.10248,0.02928,0.01464,0,0,-0.02928,-0.08784
-0.11224,0.05856,-0.00488,0.05124,0.10736,-0.1098,0.02928,0.01464,0,0,-0.0244,-0.09272
-0.09272,0.04392,0.00488,0.05124,0.0976,-0.09516,0.02928,0.00488,0,-0.00976,-0.01464,-0.10248
-0.08296,0.03904,0.00488,0.04636,0.08784,-0.0854,0.0244,0.00488,0,-0.00976,-0.01464,-0.10736
-0.07808,0.0366,0.00488,0.04392,0.08296,-0.08052,0.0244,0.00976,0,-0.00976,-0.01952,-0.10248
-0.08296,0.03904,0.00488,0.04636,0.08784,-0.0854,0.0244,0.00976,0,-0.00976,-0.01952,-0.10248
-0.08296,0.03416,0.01464,0.05612,0.0976,-0.09028,0.02928,0.00976,0,0,-0.01952,-0.07808
-0.08296,0.03416,0.01464,0.05612,0.0976,-0.09028,0.02928,0.00976,0,0,-0.01464,-0.05856
-0.08296,0.03416,0.01464,0.05612,0.0976,-0.09028,0.03904,0.01952,0.00976,0.00488,-0.02928,-0.04392
-0.08296,0.0366,0.00976,0.05124,0.09272,-0.08784,0.03904,0.01952,0.00976,0.00488,-0.02928,-0.02928
-0.08296,0.04148,0,0.04148,0.08296,-0.08296,0.03416,0.00976,0,-0.00488,-0.03416,-0.04392
-0.08784,0.04148,0.00488,0.0488,0.09272,-0.09028,0.01952,0.00488,0,-0.00488,-0.03416,-0.05368
-0.08296,0.03416,0.01464,0.05612,0.0976,-0.09028,0.03416,0.00488,0,-0.00976,-0.01952,-0.06344
-0.08784,0.0366,0.01464,0.05856,0.10248,-0.09516,0.03416,0.00488,0,-0.00976,-0.01952,-0.08296
-0.08296,0.03416,0.01464,0.05612,0.0976,-0.09028,0.0244,-0.00976,-0.00976,-0.0244,-0.01464,-0.0976
-0.06832,0.0244,0.01952,0.05368,0.08784,-0.07808,0.0244,-0.00976,-0.00976,-0.0244,-0.01464,-0.0976
-0.08784,0.04148,0.00488,0.0488,0.09272,-0.09028,0.0244,-0.01464,-0.01464,-0.0244,-0.00488,-0.10248
-0.09272,0.0488,-0.00488,0.04148,0.08784,-0.09028,0.01952,-0.01464,-0.01464,-0.0244,-0.00488,-0.10248
-0.09272,0.04392,0.00488,0.05124,0.0976,-0.09516,0.02928,-0.00488,-0.00976,-0.01952,-0.01464,-0.07808
-0.09272,0.04392,0.00488,0.05124,0.0976,-0.09516,0.0244,-0.01464,-0.01464,-0.01952,-0.00976,-0.05856
-0.09272,0.0488,-0.00488,0.04148,0.08784,-0.09028,0.02928,-0.00488,-0.01464,-0.01952,-0.01464,-0.0488
-0.08784,0.04636,-0.00488,0.03904,0.08296,-0.0854,0.02928,-0.00488,-0.01464,-0.01952,-0.03416,-0.0488
-0.0976,0.05124,-0.00488,0.04392,0.09272,-0.09516,0.01952,-0.01464,-0.01464,-0.01952,-0.03904,-0.03904
-0.09272,0.0488,-0.00488,0.04148,0.08784,-0.09028,0.01952,-0.01464,-0.01464,-0.01952,-0.03904,-0.05368
-0.0976,0.05124,-0.00488,0.04392,0.09272,-0.09516,0.02928,-0.01952,-0.00976,-0.0244,-0.02928,-0.06832
-0.10248,0.05368,-0.00488,0.04636,0.0976,-0.10004,0.03416,-0.01952,-0.01464,-0.0244,-0.0244,-0.07808
-0.0976,0.05124,-0.00488,0.04392,0.09272,-0.09516,0.03416,-0.0244,-0.01952,-0.0244,-0.01952,-0.08784
-0.09272,0.04636,0,0.04636,0.09272,-0.09272,0.03416,-0.0244,-0.01952,-0.0244,-0.01464,-0.0976
-0.08784,0.04148,0.00488,0.0488,0.09272,-0.09028,0.04392,-0.01464,-0.01952,-0.02928,-0.00488,-0.0976
-0.08784,0.04148,0.00488,0.0488,0.09272,-0.09028,0.03904,-0.01952,-0.0244,-0.03416,0,-0.0976
-0.08784,0.04636,-0.00488,0.03904,0.08296,-0.0854,0.03904,-0.01952,-0.0244,-0.03416,-0.00976,-0.08296
-0.08296,0.04392,-0.00488,0.0366,0.07808,-0.08052,0.03904,-0.01952,-0.0244,-0.03416,-0.00488,-0.07808
-0.08784,0.05124,-0.01464,0.02928,0.0732,-0.08052,0.02928,-0.03416,-0.0244,-0.0244,-0.01952,-0.06344
-0.09272,0.05612,-0.01952,0.02684,0.0732,-0.08296,0.02928,-0.03416,-0.0244,-0.01952,-0.03416,-0.04392
-0.10248,0.06588,-0.02928,0.02196,0.0732,-0.08784,0.01952,-0.03416,-0.03416,-0.02928,-0.04392,-0.04392
-0.0976,0.05856,-0.01952,0.02928,0.07808,-0.08784,0.01952,-0.03904,-0.03416,-0.03416,-0.04392,-0.05368
-0.10736,0.06832,-0.02928,0.0244,0.07808,-0.09272,0.02928,-0.03904,-0.03904,-0.03416,-0.04392,-0.0732
-0.11224,0.07076,-0.02928,0.02684,0.08296,-0.0976,0.03416,-0.04392,-0.03904,-0.03904,-0.03904,-0.07808
-0.122,0.07564,-0.02928,0.03172,0.09272,-0.10736,0.0244,-0.04392,-0.02928,-0.04392,-0.02928,-0.09272
-0.122,0.07808,-0.03416,0.02684,0.08784,-0.10492,0.0244,-0.04392,-0.03416,-0.04392,-0.03416,-0.10248
-0.11224,0.07076,-0.02928,0.02684,0.08296,-0.0976,0.03416,-0.04392,-0.03416,-0.04392,-0.02928,-0.11224
-0.10248,0.06344,-0.0244,0.02684,0.07808,-0.09028,0.03416,-0.0488,-0.03904,-0.04392,-0.01952,-0.11712
-0.11224,0.06832,-0.0244,0.03172,0.08784,-0.10004,0.03416,-0.0488,-0.03904,-0.04392,-0.01952,-0.10736
-0.11224,0.06832,-0.0244,0.03172,0.08784,-0.10004,0.03416,-0.0488,-0.03904,-0.04392,-0.01952,-0.08784
-0.11224,0.06588,-0.01952,0.0366,0.09272,-0.10248,0.03416,-0.03904,-0.02928,-0.02928,-0.0244,-0.0732
-0.10736,0.06588,-0.0244,0.02928,0.08296,-0.09516,0.03416,-0.03904,-0.02928,-0.02928,-0.01952,-0.05856
-0.11712,0.07076,-0.0244,0.03416,0.09272,-0.10492,0.03416,-0.03904,-0.03904,-0.03416,-0.02928,-0.05368
-0.122,0.0732,-0.0244,0.0366,0.0976,-0.1098,0.03416,-0.03904,-0.03904,-0.03416,-0.03904,-0.0488
-0.122,0.07808,-0.03416,0.02684,0.08784,-0.10492,0.0244,-0.0488,-0.0488,-0.04392,-0.04392,-0.05856
-0.122,0.07808,-0.03416,0.02684,0.08784,-0.10492,0.01952,-0.05368,-0.0488,-0.0488,-0.0488,-0.0732
-0.11712,0.06832,-0.01952,0.03904,0.0976,-0.10736,0.02928,-0.05368,-0.03904,-0.03904,-0.03904,-0.08296
-0.11224,0.06588,-0.01952,0.0366,0.09272,-0.10248,0.03416,-0.05368,-0.03904,-0.03416,-0.03416,-0.08296
-0.10736,0.05612,-0.00488,0.0488,0.10248,-0.10492,0.03416,-0.0488,-0.03416,-0.03416,-0.01464,-0.10248
-0.11224,0.06344,-0.01464,0.04148,0.0976,-0.10492,0.03416,-0.05856,-0.04392,-0.04392,-0.0244,-0.10736
-0.12688,0.07564,-0.0244,0.03904,0.10248,-0.11468,0.01952,-0.06832,-0.05856,-0.05856,-0.03904,-0.10736
-0.12688,0.08052,-0.03416,0.02928,0.09272,-0.1098,0.01952,-0.06832,-0.05856,-0.05856,-0.03904,-0.10736
-0.11712,0.0732,-0.02928,0.02928,0.08784,-0.10248,0.02928,-0.05856,-0.0488,-0.0488,-0.03904,-0.0976
-0.11712,0.0732,-0.02928,0.02928,0.08784,-0.10248,0.02928,-0.05856,-0.0488,-0.0488,-0.03904,-0.07808
-0.11712,0.0732,-0.02928,0.02928,0.08784,-0.10248,0.02928,-0.0488,-0.0488,-0.0488,-0.03904,-0.06344
-0.11712,0.0732,-0.02928,0.02928,0.08784,-0.10248,0.02928,-0.0488,-0.0488,-0.0488,-0.03904,-0.05368
-0.10736,0.06344,-0.01952,0.03416,0.08784,-0.0976,0.02928,-0.05856,-0.0488,-0.0488,-0.0488,-0.05368
-0.10736,0.06344,-0.01952,0.03416,0.08784,-0.0976,0.02928,-0.05856,-0.0488,-0.0488,-0.0488,-0.06344
-0.10248,0.05612,-0.00976,0.04148,0.09272,-0.0976,0.02928,-0.05856,-0.0488,-0.05856,-0.03904,-0.08296
-0.09272,0.05124,-0.00976,0.0366,0.08296,-0.08784,0.02928,-0.05856,-0.0488,-0.05856,-0.03904,-0.09272
-0.09272,0.05612,-0.01952,0.02684,0.0732,-0.08296,0.02928,-0.06832,-0.0488,-0.05856,-0.02928,-0.10248
-0.10248,0.061,-0.01952,0.03172,0.08296,-0.09272,0.02928,-0.06832,-0.0488,-0.05856,-0.02928,-0.11224
-0.11712,0.0732,-0.02928,0.02928,0.08784,-0.10248,0.02928,-0.05856,-0.0488,-0.05856,-0.02928,-0.11224
-0.11712,0.0732,-0.02928,0.02928,0.08784,-0.10248,0.02928,-0.05856,-0.0488,-0.05856,-0.02928,-0.10248
-0.10736,0.06344,-0.01952,0.03416,0.08784,-0.0976,0.02928,-0.05856,-0.0488,-0.0488,-0.03904,-0.08296
-0.10736,0.06344,-0.01952,0.03416,0.08784,-0.0976,0.02928,-0.05856,-0.0488,-0.0488,-0.03904,-0.0732
-0.11712,0.0732,-0.02928,0.02928,0.08784,-0.10248,0.02928,-0.05856,-0.0488,-0.05856,-0.0488,-0.06344
-0.11712,0.0732,-0.02928,0.02928,0.08784,-0.10248,0.02928,-0.05856,-0.0488,-0.05856,-0.0488,-0.05368
-0.10736,0.06344,-0.01952,0.03416,0.08784,-0.0976,0.02928,-0.05856,-0.0488,-0.0488,-0.03904,-0.0488
-0.10736,0.06344,-0.01952,0.03416,0.08784,-0.0976,0.02928,-0.05856,-0.0488,-0.0488,-0.03904,-0.0488
-0.0976,0.05856,-0.01952,0.02928,0.07808,-0.08784,0.03904,-0.05856,-0.0488,-0.0488,-0.02928,-0.05368
-0.0976,0.05856,-0.01952,0.02928,0.07808,-0.08784,0.03904,-0.05856,-0.0488,-0.0488,-0.02928,-0.06344
-0.10736,0.06344,-0.01952,0.03416,0.08784,-0.0976,0.03904,-0.05856,-0.0488,-0.0488,-0.02928,-0.0732
-0.10736,0.06344,-0.01952,0.03416,0.08784,-0.0976,0.03904,-0.05856,-0.0488,-0.0488,-0.02928,-0.08296
-0.10736,0.06344,-0.01952,0.03416,0.08784,-0.0976,0.02928,-0.06832,-0.0488,-0.05856,-0.02928,-0.0976
-0.10736,0.06344,-0.01952,0.03416,0.08784,-0.0976,0.02928,-0.06832,-0.0488,-0.05856,-0.02928,-0.0976
-0.0976,0.05856,-0.01952,0.02928,0.07808,-0.08784,0.02928,-0.06832,-0.0488,-0.05856,-0.03904,-0.09272
-0.0976,0.05856,-0.01952,0.02928,0.07808,-0.08784,0.02928,-0.06832,-0.0488,-0.05856,-0.03904,-0.08296
-0.0976,0.06344,-0.02928,0.01952,0.06832,-0.08296,0.02928,-0.06832,-0.05856,-0.05856,-0.0488,-0.0732
-0.0976,0.06344,-0.02928,0.01952,0.06832,-0.08296,0.02928,-0.06832,-0.05856,-0.05856,-0.0488,-0.06344
-0.10736,0.06832,-0.02928,0.0244,0.07808,-0.09272,0.03904,-0.05856,-0.0488,-0.0488,-0.03904,-0.05368
-0.10736,0.06832,-0.02928,0.0244,0.07808,-0.09272,0.03904,-0.05856,-0.0488,-0.0488,-0.03904,-0.04392
-0.10736,0.06832,-0.02928,0.0244,0.07808,-0.09272,0.02928,-0.05856,-0.0488,-0.0488,-0.03904,-0.05368
-0.10736,0.06832,-0.02928,0.0244,0.07808,-0.09272,0.02928,-0.05856,-0.0488,-0.0488,-0.03904,-0.06344
-0.11712,0.0732,-0.02928,0.02928,0.08784,-0.10248,0.02928,-0.06832,-0.0488,-0.05856,-0.02928,-0.08296
-0.11712,0.0732,-0.02928,0.02928,0.08784,-0.10248,0.02928,-0.06832,-0.0488,-0.05856,-0.02928,-0.09272
-0.10736,0.06832,-0.02928,0.0244,0.07808,-0.09272,0.02928,-0.06832,-0.0488,-0.06832,-0.02928,-0.0976
-0.10736,0.06832,-0.02928,0.0244,0.07808,-0.09272,0.02928,-0.06832,-0.0488,-0.06832,-0.02928,-0.0976
-0.10736,0.06344,-0.01952,0.03416,0.08784,-0.0976,0.03904,-0.05856,-0.03904,-0.05856,-0.02928,-0.09272
-0.10736,0.06344,-0.01952,0.03416,0.08784,-0.0976,0.03904,-0.05856,-0.03904,-0.05856,-0.02928,-0.08296
-0.10736,0.06344,-0.01952,0.03416,0.08784,-0.0976,0.02928,-0.05856,-0.03904,-0.0488,-0.03904,-0.06832
-0.10736,0.06344,-0.01952,0.03416,0.08784,-0.0976,0.02928,-0.05856,-0.03904,-0.0488,-0.03904,-0.0488
-0.11224,0.07076,-0.02928,0.02684,0.08296,-0.0976,0.03904,-0.0488,-0.02928,-0.04392,-0.02928,-0.02928
-0.122,0.07564,-0.02928,0.03172,0.09272,-0.10736,0.03904,-0.0488,-0.02928,-0.03416,-0.02928,-0.02928
-0.11712,0.0732,-0.02928,0.02928,0.08784,-0.10248,0.03904,-0.04392,-0.0244,-0.01952,-0.0244,-0.03904
-0.11712,0.0732,-0.02928,0.02928,0.08784,-0.10248,0.03904,-0.03416,-0.01464,-0.01952,-0.01464,-0.03904
-0.11224,0.07076,-0.02928,0.02684,0.08296,-0.0976,0.04392,-0.0244,-0.00488,-0.01952,0,-0.04392
-0.0976,0.06344,-0.02928,0.01952,0.06832,-0.08296,0.04392,-0.01464,0,-0.01464,0.00488,-0.05368
-0.0976,0.05856,-0.01952,0.02928,0.07808,-0.08784,0.03904,-0.00488,0.00976,-0.00488,0.01464,-0.06832
-0.08784,0.05124,-0.01464,0.02928,0.0732,-0.08052,0.0488,0.00488,0.01464,0,0.0244,-0.06832
-0.08296,0.05368,-0.0244,0.01708,0.05856,-0.07076,0.0488,0.01464,0.02928,0.00976,0.01952,-0.05856
-0.07808,0.05124,-0.0244,0.01464,0.05368,-0.06588,0.0488,0.01464,0.02928,0.00976,0.01952,-0.04392
-0.0732,0.05368,-0.03416,0.00244,0.03904,-0.05612,0.04392,0.01464,0.0244,0.00488,0.01464,-0.03416
-0.05856,0.04392,-0.02928,0,0.02928,-0.04392,0.03416,0.01464,0.01952,0.00488,0.01464,-0.00976
-0.04392,0.0366,-0.02928,-0.00732,0.01464,-0.02928,0.01464,0.00488,0.00976,0.00488,0.00976,0.00488
-0.01952,0.01952,-0.01952,-0.00976,0,-0.00976,-0.00488,-0.00488,0.00976,0,0.00976,0.00976
0.00488,0,-0.00488,-0.00732,-0.00976,0.00732,-0.02928,-0.01464,-0.00976,-0.00976,0,0.00488
0.00976,-0.00244,-0.00488,-0.00976,-0.01464,0.0122,-0.03416,-0.02928,-0.02928,-0.01952,-0.00976,-0.00976
0.01464,0,-0.01464,-0.02196,-0.02928,0.02196,-0.03904,-0.04392,-0.03904,-0.03904,-0.00488,-0.02928
0.02928,-0.00976,-0.00976,-0.0244,-0.03904,0.03416,-0.03904,-0.05368,-0.05368,-0.0488,-0.01464,-0.04392
0.03904,-0.01708,-0.00488,-0.0244,-0.04392,0.04148,-0.02928,-0.06344,-0.06344,-0.05856,-0.01952,-0.05856
0.02928,-0.0122,-0.00488,-0.01952,-0.03416,0.03172,-0.0244,-0.0732,-0.06832,-0.06832,-0.0244,-0.07808
0.01464,-0.00488,-0.00488,-0.0122,-0.01952,0.01708,-0.00976,-0.07808,-0.06832,-0.06832,-0.0244,-0.07808
0,0.00244,-0.00488,-0.00488,-0.00488,0.00244,-0.00976,-0.07808,-0.06832,-0.06832,-0.02928,-0.08296
-0.02928,0.02196,-0.01464,0,0.01464,-0.02196,-0.00488,-0.08784,-0.0732,-0.06344,-0.04392,-0.06832
-0.0488,0.03172,-0.01464,0.00976,0.03416,-0.04148,0.00488,-0.08296,-0.0732,-0.06344,-0.04392,-0.05368
-0.05368,0.03904,-0.0244,0.00244,0.02928,-0.04148,0.00976,-0.0732,-0.06344,-0.06344,-0.04392,-0.0488
-0.06344,0.04392,-0.0244,0.00732,0.03904,-0.05124,0.01464,-0.0732,-0.06344,-0.06344,-0.0488,-0.03904
-0.0732,0.04636,-0.01952,0.01708,0.05368,-0.06344,0.01952,-0.0732,-0.06832,-0.05856,-0.05368,-0.04392
-0.09272,0.05612,-0.01952,0.02684,0.0732,-0.08296,0.0244,-0.0732,-0.0732,-0.05856,-0.05368,-0.0488
-0.08784,0.0488,-0.00976,0.03416,0.07808,-0.08296,0.03416,-0.0732,-0.0732,-0.06832,-0.05368,-0.06344
-0.08784,0.0488,-0.00976,0.03416,0.07808,-0.08296,0.03416,-0.0732,-0.0732,-0.0732,-0.05368,-0.0732
-0.07808,0.04148,-0.00488,0.03416,0.0732,-0.07564,0.03904,-0.08296,-0.0732,-0.08296,-0.0488,-0.09272
-0.07808,0.04148,-0.00488,0.03416,0.0732,-0.07564,0.03904,-0.08296,-0.07808,-0.08296,-0.05368,-0.10736
-0.08296,0.04392,-0.00488,0.0366,0.07808,-0.08052,0.03904,-0.08296,-0.07808,-0.08296,-0.0488,-0.11712
-0.08296,0.04392,-0.00488,0.0366,0.07808,-0.08052,0.04392,-0.08296,-0.0732,-0.08296,-0.0488,-0.11224
-0.08296,0.03904,0.00488,0.04636,0.08784,-0.0854,0.05368,-0.0732,-0.06344,-0.0732,-0.05368,-0.0976
-0.08296,0.03904,0.00488,0.04636,0.08784,-0.0854,0.05368,-0.0732,-0.06344,-0.0732,-0.05368,-0.08784
-0.09272,0.04636,0,0.04636,0.09272,-0.09272,0.05368,-0.0732,-0.07808,-0.0732,-0.05856,-0.06832
-0.09272,0.04636,0,0.04636,0.09272,-0.09272,0.05368,-0.0732,-0.0732,-0.0732,-0.06832,-0.06832
-0.0976,0.05368,-0.00976,0.03904,0.08784,-0.09272,0.05368,-0.08296,-0.08296,-0.07808,-0.08296,-0.06832
-0.11224,0.06588,-0.01952,0.0366,0.09272,-0.10248,0.04392,-0.08296,-0.08296,-0.07808,-0.08296,-0.06344
-0.10736,0.061,-0.01464,0.03904,0.09272,-0.10004,0.0488,-0.0732,-0.0732,-0.07808,-0.0732,-0.06832
-0.10736,0.05612,-0.00488,0.0488,0.10248,-0.10492,0.04392,-0.0732,-0.0732,-0.0732,-0.0732,-0.08296
-0.10248,0.04392,0.01464,0.06588,0.11712,-0.1098,0.04392,-0.0732,-0.0732,-0.0732,-0.06344,-0.09272
-0.08784,0.03416,0.01952,0.06344,0.10736,-0.0976,0.0488,-0.0732,-0.0732,-0.0732,-0.06344,-0.10248
-0.08784,0.03416,0.01952,0.06344,0.10736,-0.0976,0.0488,-0.06832,-0.06344,-0.0732,-0.06344,-0.11224
-0.08784,0.03416,0.01952,0.06344,0.10736,-0.0976,0.0488,-0.06832,-0.06344,-0.0732,-0.05856,-0.11712
-0.09272,0.03904,0.01464,0.061,0.10736,-0.10004,0.04392,-0.06832,-0.06344,-0.06832,-0.05856,-0.10736
-0.10248,0.04392,0.01464,0.06588,0.11712,-0.1098,0.05368,-0.0732,-0.05368,-0.05368,-0.0488,-0.08296
-0.12688,0.05612,0.01464,0.07808,0.14152,-0.1342,0.0488,-0.0732,-0.03904,-0.03416,-0.03416,-0.0488
-0.1464,0.06588,0.01464,0.08784,0.16104,-0.15372,0.0488,-0.08296,-0.01464,0.00976,-0.00488,-0.01952
-0.16104,0.0732,0.01464,0.09516,0.17568,-0.16836,0.03416,-0.08296,0.02928,0.06344,0.06344,0.0244
-0.15616,0.0732,0.00976,0.08784,0.16592,-0.16104,0.01464,-0.06832,0.09272,0.15128,0.15128,0.0976
-0.13176,0.05368,0.0244,0.09028,0.15616,-0.14396,-0.01952,-0.03416,0.18056,0.2928,0.2928,0.17568
-0.06344,0.0122,0.03904,0.07076,0.10248,-0.08296,-0.06832,0.03416,0.29768,0.45872,0.47336,0.2928
0.05368,-0.04636,0.03904,0.0122,-0.01464,0.03416,-0.12688,0.15128,0.44896,0.6344,0.65392,0.39528
0.23912,-0.13908,0.03904,-0.08052,-0.20008,0.2196,-0.15616,0.33184,0.53192,0.70272,0.71248,0.43432
0.45872,-0.24644,0.03416,-0.1952,-0.42456,0.44164,-0.11224,0.54168,0.52216,0.58072,0.5612,0.3172
0.64904,-0.33672,0.0244,-0.30012,-0.62464,0.63684,0.00976,0.73688,0.366,0.23424,0.16592,0.0488
0.78568,-0.40016,0.01464,-0.3782,-0.77104,0.77836,0.1708,0.84912,0.122,-0.20008,-0.3172,-0.28792
0.80032,-0.4026,0.00488,-0.39528,-0.79544,0.79788,0.31232,0.854,-0.14152,-0.59536,-0.74176,-0.5856
0.7076,-0.3416,-0.0244,-0.3782,-0.732,0.7198,0.4148,0.732,-0.34648,-0.84912,-1.00528,-0.76616
0.56608,-0.26596,-0.03416,-0.3172,-0.60024,0.58316,0.47824,0.54168,-0.47824,-0.95648,-1.10288,-0.83936
0.42456,-0.19276,-0.03904,-0.25132,-0.4636,0.44408,0.5124,0.3416,-0.5612,-0.98088,-1.11752,-0.84424
0.28792,-0.12444,-0.03904,-0.183,-0.32696,0.30744,0.54168,0.17568,-0.59048,-0.96136,-1.07848,-0.81984
0.1708,-0.07076,-0.02928,-0.11468,-0.20008,0.18544,0.55632,0.08296,-0.57584,-0.91256,-1.00528,-0.7808
0.0732,-0.02928,-0.01464,-0.05124,-0.08784,0.08052,0.56608,0.05856,-0.5124,-0.81008,-0.90768,-0.72712
-0.02928,0.01708,-0.00488,0.00976,0.0244,-0.02684,0.57584,0.08784,-0.42456,-0.7076,-0.79056,-0.67344
-0.11224,0.05368,0.00488,0.061,0.11712,-0.11468,0.58072,0.13664,-0.32208,-0.59048,-0.68808,-0.61488
-0.16592,0.08296,0,0.08296,0.16592,-0.16592,0.59536,0.20984,-0.2196,-0.488,-0.56608,-0.5612
-0.18544,0.09028,0.00488,0.0976,0.19032,-0.18788,0.5856,0.28304,-0.14152,-0.39528,-0.488,-0.49776
-0.20008,0.0976,0.00488,0.10492,0.20496,-0.20252,0.5856,0.34648,-0.07808,-0.32696,-0.39528,-0.42944
-0.20008,0.09516,0.00976,0.1098,0.20984,-0.20496,0.59536,0.40016,-0.02928,-0.25864,-0.33184,-0.35136
-0.21472,0.0976,0.01952,0.12688,0.23424,-0.22448,0.60512,0.4148,-0.00488,-0.20984,-0.28304,-0.2928
-0.22448,0.10736,0.00976,0.122,0.23424,-0.22936,0.62464,0.4148,0.01464,-0.17568,-0.25864,-0.25376
-0.22936,0.1098,0.00976,0.12444,0.23912,-0.23424,0.63928,0.38064,0.01464,-0.16104,-0.244,-0.21472
-0.22936,0.11224,0.00488,0.11956,0.23424,-0.2318,0.64416,0.37088,0.01464,-0.1464,-0.22936,-0.1952
-0.22936,0.11224,0.00488,0.11956,0.23424,-0.2318,0.66856,0.36112,0.0244,-0.13176,-0.21472,-0.18544
-0.22936,0.1098,0.00976,0.12444,0.23912,-0.23424,0.66856,0.33672,0.02928,-0.122,-0.20008,-0.18056
-0.2196,0.10736,0.00488,0.11468,0.22448,-0.22204,0.63928,0.28304,0.00488,-0.11712,-0.18544,-0.19032
-0.21472,0.10492,0.00488,0.11224,0.2196,-0.21716,0.5612,0.17568,-0.03416,-0.12688,-0.1708,-0.19032
-0.18056,0.08784,0.00488,0.09516,0.18544,-0.183,0.4392,0.0732,-0.08296,-0.13664,-0.15616,-0.17568
-0.15128,0.06588,0.01952,0.09516,0.1708,-0.16104,0.29768,-0.01952,-0.10248,-0.12688,-0.13176,-0.16592
-0.12688,0.05368,0.01952,0.08296,0.1464,-0.13664,0.19032,-0.05856,-0.10248,-0.11224,-0.10736,-0.1464
-0.11224,0.04148,0.02928,0.0854,0.14152,-0.12688,0.10736,-0.06344,-0.08784,-0.09272,-0.07808,-0.11224
-0.0976,0.03416,0.02928,0.07808,0.12688,-0.11224,0.06344,-0.06344,-0.07808,-0.0732,-0.06832,-0.08296
-0.10248,0.0366,0.02928,0.08052,0.13176,-0.11712,0.03416,-0.06832,-0.06832,-0.06832,-0.0732,-0.0732
-0.10736,0.03904,0.02928,0.08296,0.13664,-0.122,0.01952,-0.0732,-0.06832,-0.06832,-0.06832,-0.06344
-0.0976,0.03172,0.03416,0.08296,0.13176,-0.11468,0.01464,-0.0732,-0.06832,-0.05368,-0.06832,-0.05368
-0.08296,0.0244,0.03416,0.07564,0.11712,-0.10004,0.00488,-0.07808,-0.06832,-0.0488,-0.06344,-0.04392
-0.08784,0.02684,0.03416,0.07808,0.122,-0.10492,-0.00488,-0.08784,-0.06832,-0.05856,-0.06344,-0.0488
-0.09272,0.0244,0.04392,0.09028,0.13664,-0.11468,-0.01464,-0.0976,-0.0732,-0.05856,-0.06344,-0.03904
-0.10248,0.03172,0.03904,0.09028,0.14152,-0.122,-0.0244,-0.0976,-0.0732,-0.05856,-0.06344,-0.05856
-0.11224,0.03904,0.03416,0.09028,0.1464,-0.12932,-0.02928,-0.10736,-0.07808,-0.06344,-0.06832,-0.07808
-0.0976,0.03904,0.01952,0.06832,0.11712,-0.10736,-0.02928,-0.10248,-0.08784,-0.06344,-0.05856,-0.08784
-0.10248,0.03904,0.0244,0.07564,0.12688,-0.11468,-0.03904,-0.10736,-0.08784,-0.06344,-0.05856,-0.0976
-0.09272,0.02928,0.03416,0.08052,0.12688,-0.1098,-0.0244,-0.11224,-0.09272,-0.06832,-0.05856,-0.0976
-0.08296,0.0244,0.03416,0.07564,0.11712,-0.10004,-0.02928,-0.11224,-0.09272,-0.06832,-0.05856,-0.10248
-0.08784,0.03172,0.0244,0.06832,0.11224,-0.10004,-0.04392,-0.11712,-0.09272,-0.06832,-0.06832,-0.08296
-0.10248,0.03904,0.0244,0.07564,0.12688,-0.11468,-0.04392,-0.11712,-0.09272,-0.06832,-0.06832,-0.06832
-0.0976,0.0366,0.0244,0.0732,0.122,-0.1098,-0.04392,-0.122,-0.09272,-0.06832,-0.0732,-0.0488
-0.0976,0.0366,0.0244,0.0732,0.122,-0.1098,-0.04392,-0.122,-0.09272,-0.06832,-0.08784,-0.0488
-0.09272,0.03172,0.02928,0.07564,0.122,-0.10736,-0.05368,-0.13176,-0.0976,-0.06832,-0.07808,-0.04392
-0.09272,0.03172,0.02928,0.07564,0.122,-0.10736,-0.05856,-0.13176,-0.0976,-0.06832,-0.07808,-0.03904
-0.08296,0.02196,0.03904,0.08052,0.122,-0.10248,-0.05856,-0.122,-0.0976,-0.06344,-0.07808,-0.05368
-0.08296,0.01708,0.0488,0.09028,0.13176,-0.10736,-0.05856,-0.12688,-0.0976,-0.06344,-0.07808,-0.06832
-0.07808,0.01464,0.0488,0.08784,0.12688,-0.10248,-0.05856,-0.13664,-0.0976,-0.06344,-0.0732,-0.08296
-0.0732,0.0122,0.0488,0.0854,0.122,-0.0976,-0.06344,-0.14152,-0.0976,-0.06832,-0.0732,-0.0976
-0.08296,0.0244,0.03416,0.07564,0.11712,-0.10004,-0.06832,-0.14152,-0.11224,-0.07808,-0.0732,-0.10248
-0.08784,0.02684,0.03416,0.07808,0.122,-0.10492,-0.06832,-0.15128,-0.11712,-0.08296,-0.07808,-0.10736
-0.08784,0.03172,0.0244,0.06832,0.11224,-0.10004,-0.06344,-0.15128,-0.10736,-0.08296,-0.07808,-0.0976
-0.08784,0.03172,0.0244,0.06832,0.11224,-0.10004,-0.06344,-0.15128,-0.11224,-0.08296,-0.07808,-0.08296
-0.08296,0.02684,0.02928,0.07076,0.11224,-0.0976,-0.06344,-0.1464,-0.10248,-0.0732,-0.08784,-0.06832
-0.0732,0.01952,0.03416,0.07076,0.10736,-0.09028,-0.06832,-0.1464,-0.10248,-0.0732,-0.08784,-0.05368
-0.0732,0.01708,0.03904,0.07564,0.11224,-0.09272,-0.08296,-0.16104,-0.11224,-0.0732,-0.0976,-0.04392
-0.08296,0.02684,0.02928,0.07076,0.11224,-0.0976,-0.08296,-0.16104,-0.11224,-0.0732,-0.0976,-0.03904
-0.09272,0.03416,0.0244,0.07076,0.11712,-0.10492,-0.08784,-0.16104,-0.11712,-0.0732,-0.09272,-0.0488
-0.10248,0.0366,0.02928,0.08052,0.13176,-0.11712,-0.09272,-0.1708,-0.11712,-0.07808,-0.09272,-0.05368
-0.09272,0.0244,0.04392,0.09028,0.13664,-0.11468,-0.08784,-0.1708,-0.11712,-0.07808,-0.08784,-0.06832
-0.08296,0.01952,0.04392,0.0854,0.12688,-0.10492,-0.09272,-0.16592,-0.122,-0.08784,-0.08784,-0.07808
-0.0732,0.01464,0.04392,0.08052,0.11712,-0.09516,-0.08784,-0.18056,-0.12688,-0.09272,-0.08784,-0.0976
-0.06832,0.01464,0.03904,0.0732,0.10736,-0.08784,-0.08784,-0.18544,-0.13664,-0.10248,-0.0976,-0.10248
-0.05856,0.00976,0.03904,0.06832,0.0976,-0.07808,-0.10248,-0.19032,-0.14152,-0.11224,-0.10736,-0.09272
-0.05856,0.0122,0.03416,0.06344,0.09272,-0.07564,-0.11224,-0.20496,-0.15128,-0.122,-0.11712,-0.08784
-0.05856,0.00976,0.03904,0.06832,0.0976,-0.07808,-0.11224,-0.20984,-0.15616,-0.11712,-0.122,-0.06832
-0.05856,0.00488,0.0488,0.07808,0.10736,-0.08296,-0.11712,-0.22448,-0.16592,-0.12688,-0.13176,-0.05856
-0.05856,0.00976,0.03904,0.06832,0.0976,-0.07808,-0.13664,-0.23424,-0.17568,-0.13664,-0.1464,-0.05368
-0.05856,0.00732,0.04392,0.0732,0.10248,-0.08052,-0.13664,-0.244,-0.18544,-0.13664,-0.15616,-0.05856
-0.06344,0.00976,0.04392,0.07564,0.10736,-0.0854,-0.1464,-0.24888,-0.19032,-0.14152,-0.16104,-0.06344
-0.06832,0.01952,0.02928,0.06344,0.0976,-0.08296,-0.15616,-0.25864,-0.20008,-0.1464,-0.16104,-0.0732
-0.06832,0.0244,0.01952,0.05368,0.08784,-0.07808,-0.15616,-0.2684,-0.21472,-0.16104,-0.16592,-0.08296
-0.06344,0.02196,0.01952,0.05124,0.08296,-0.0732,-0.1708,-0.27816,-0.22448,-0.1708,-0.17568,-0.10736
-0.06344,0.01952,0.0244,0.05612,0.08784,-0.07564,-0.16592,-0.28792,-0.22448,-0.18056,-0.1708,-0.11224
-0.05856,0.0122,0.03416,0.06344,0.09272,-0.07564,-0.17568,-0.29768,-0.23424,-0.18056,-0.16592,-0.11224
-0.06832,0.01708,0.03416,0.06832,0.10248,-0.0854,-0.18056,-0.30744,-0.244,-0.18544,-0.17568,-0.11224
-0.06344,0.01464,0.03416,0.06588,0.0976,-0.08052,-0.18544,-0.30744,-0.24888,-0.18544,-0.17568,-0.11224
-0.06832,0.01952,0.02928,0.06344,0.0976,-0.08296,-0.18544,-0.30744,-0.23912,-0.18056,-0.17568,-0.08784
-0.06832,0.01952,0.02928,0.06344,0.0976,-0.08296,-0.19032,-0.30744,-0.244,-0.17568,-0.17568,-0.0732
-0.04392,0,0.04392,0.06588,0.08784,-0.06588,-0.19032,-0.29768,-0.23912,-0.1708,-0.17568,-0.06344
-0.02928,-0.00732,0.04392,0.05856,0.0732,-0.05124,-0.1952,-0.29768,-0.22448,-0.16104,-0.16592,-0.05368
-0.01952,-0.01464,0.0488,0.05856,0.06832,-0.04392,-0.20496,-0.30256,-0.22936,-0.15616,-0.1708,-0.05368
-0.01952,-0.01464,0.0488,0.05856,0.06832,-0.04392,-0.20496,-0.2928,-0.21472,-0.1464,-0.16592,-0.0488
-0.03416,-0.00244,0.03904,0.05612,0.0732,-0.05368,-0.20008,-0.27328,-0.1952,-0.14152,-0.14152,-0.06344
-0.0488,0.00976,0.02928,0.05368,0.07808,-0.06344,-0.20008,-0.25864,-0.1708,-0.122,-0.13176,-0.06832
-0.05856,0.01708,0.0244,0.05368,0.08296,-0.07076,-0.18544,-0.25864,-0.15128,-0.10736,-0.10736,-0.0732
-0.06344,0.01708,0.02928,0.061,0.09272,-0.07808,-0.17568,-0.23424,-0.13176,-0.09272,-0.0976,-0.08296
-0.05856,0.00976,0.03904,0.06832,0.0976,-0.07808,-0.16104,-0.21472,-0.11224,-0.0732,-0.07808,-0.0732
-0.04392,0.00488,0.03416,0.05612,0.07808,-0.061,-0.15616,-0.1952,-0.10248,-0.05368,-0.06832,-0.07808
-0.0488,0.00244,0.04392,0.06832,0.09272,-0.07076,-0.16104,-0.18056,-0.08296,-0.04392,-0.0732,-0.05856
-0.05368,0.00976,0.03416,0.061,0.08784,-0.07076,-0.15128,-0.16104,-0.06344,-0.03416,-0.06832,-0.0488
-0.06344,0.01708,0.02928,0.061,0.09272,-0.07808,-0.1464,-0.15616,-0.06344,-0.02928,-0.06832,-0.03416
-0.05856,0.0122,0.03416,0.06344,0.09272,-0.07564,-0.13664,-0.13664,-0.05368,-0.01952,-0.0732,-0.02928
-0.05856,0.00488,0.0488,0.07808,0.10736,-0.08296,-0.122,-0.11712,-0.03904,-0.01464,-0.06344,-0.02928
-0.06832,0.0122,0.04392,0.07808,0.11224,-0.09028,-0.11224,-0.10736,-0.02928,-0.01464,-0.06344,-0.0244
-0.07808,0.01952,0.03904,0.07808,0.11712,-0.0976,-0.09272,-0.08784,-0.03416,-0.01464,-0.05368,-0.04392
-0.08296,0.02196,0.03904,0.08052,0.122,-0.10248,-0.08296,-0.08296,-0.02928,-0.01464,-0.05368,-0.06344
-0.09272,0.02928,0.03416,0.08052,0.12688,-0.1098,-0.06832,-0.06832,-0.01952,-0.01952,-0.05368,-0.08296
-0.08784,0.0244,0.03904,0.08296,0.12688,-0.10736,-0.05856,-0.05856,-0.01464,-0.01952,-0.05368,-0.08296
-0.09272,0.02684,0.03904,0.0854,0.13176,-0.11224,-0.05368,-0.05856,-0.01952,-0.0244,-0.05368,-0.0976
-0.09272,0.02684,0.03904,0.0854,0.13176,-0.11224,-0.03904,-0.05368,-0.01952,-0.03904,-0.05368,-0.10248
-0.08296,0.02196,0.03904,0.08052,0.122,-0.10248,-0.03904,-0.04392,-0.02928,-0.02928,-0.06832,-0.09272
-0.09272,0.02928,0.03416,0.08052,0.12688,-0.1098,-0.02928,-0.03904,-0.0244,-0.02928,-0.0732,-0.07808
-0.08296,0.02196,0.03904,0.08052,0.122,-0.10248,-0.0244,-0.03416,-0.0244,-0.02928,-0.07808,-0.06344
-0.09272,0.0244,0.04392,0.09028,0.13664,-0.11468,-0.01952,-0.02928,-0.0244,-0.03416,-0.07808,-0.06344
-0.0976,0.03172,0.03416,0.08296,0.13176,-0.11468,-0.01952,-0.02928,-0.0244,-0.03416,-0.08296,-0.0488
-0.0976,0.03416,0.02928,0.07808,0.12688,-0.11224,-0.01952,-0.02928,-0.03416,-0.03416,-0.08784,-0.0488
-0.10736,0.04636,0.01464,0.06832,0.122,-0.11468,-0.00976,-0.02928,-0.03416,-0.03904,-0.08784,-0.06344
-0.10736,0.04636,0.01464,0.06832,0.122,-0.11468,-0.00976,-0.03416,-0.03904,-0.03904,-0.08784,-0.06832
-0.09272,0.03416,0.0244,0.07076,0.11712,-0.10492,0,-0.03416,-0.02928,-0.03904,-0.07808,-0.08784
-0.0976,0.03172,0.03416,0.08296,0.13176,-0.11468,0.00488,-0.02928,-0.02928,-0.03904,-0.07808,-0.0976
-0.08784,0.02196,0.04392,0.08784,0.13176,-0.1098,0.00488,-0.02928,-0.02928,-0.04392,-0.07808,-0.11224
-0.09272,0.0244,0.04392,0.09028,0.13664,-0.11468,0.00488,-0.02928,-0.02928,-0.04392,-0.07808,-0.11712
-0.10736,0.03416,0.03904,0.09272,0.1464,-0.12688,0.00976,-0.02928,-0.02928,-0.04392,-0.07808,-0.10248
-0.11712,0.0366,0.04392,0.10248,0.16104,-0.13908,0.00976,-0.02928,-0.02928,-0.04392,-0.07808,-0.10248
-0.122,0.03904,0.04392,0.10492,0.16592,-0.14396,0.00488,-0.02928,-0.02928,-0.04392,-0.08784,-0.07808
-0.11712,0.0366,0.04392,0.10248,0.16104,-0.13908,0.00488,-0.02928,-0.02928,-0.04392,-0.08296,-0.05856
-0.10736,0.03172,0.04392,0.0976,0.15128,-0.12932,0.00976,-0.02928,-0.02928,-0.03416,-0.09272,-0.05368
-0.0976,0.02684,0.04392,0.09272,0.14152,-0.11956,0.00976,-0.02928,-0.02928,-0.02928,-0.09272,-0.05368
-0.0976,0.02928,0.03904,0.08784,0.13664,-0.11712,0,-0.03904,-0.02928,-0.03904,-0.09272,-0.05856
-0.10248,0.03172,0.03904,0.09028,0.14152,-0.122,-0.00488,-0.03416,-0.0244,-0.03904,-0.09272,-0.06344
-0.10248,0.03416,0.03416,0.0854,0.13664,-0.11956,0,-0.03416,-0.03416,-0.03904,-0.08296,-0.07808
-0.11224,0.03904,0.03416,0.09028,0.1464,-0.12932,-0.00488,-0.03416,-0.03904,-0.03904,-0.08296,-0.09272
-0.10736,0.03416,0.03904,0.09272,0.1464,-0.12688,0,-0.03416,-0.03904,-0.0488,-0.06832,-0.10736
-0.11224,0.03416,0.04392,0.10004,0.15616,-0.1342,0,-0.03416,-0.03904,-0.0488,-0.0732,-0.11224
-0.11224,0.03904,0.03416,0.09028,0.1464,-0.12932,-0.00976,-0.03416,-0.03904,-0.0488,-0.08296,-0.10248
-0.11224,0.03904,0.03416,0.09028,0.1464,-0.12932,-0.01464,-0.03416,-0.03904,-0.0488,-0.08296,-0.08784
-0.10736,0.0366,0.03416,0.08784,0.14152,-0.12444,-0.01464,-0.03904,-0.03904,-0.03904,-0.07808,-0.0732
-0.11224,0.03904,0.03416,0.09028,0.1464,-0.12932,-0.01464,-0.03904,-0.03904,-0.03904,-0.07808,-0.06344
-0.10248,0.02928,0.04392,0.09516,0.1464,-0.12444,-0.00976,-0.02928,-0.02928,-0.02928,-0.06832,-0.0488
-0.10248,0.0244,0.05368,0.10492,0.15616,-0.12932,-0.00976,-0.02928,-0.02928,-0.02928,-0.06344,-0.02928
-0.11224,0.03416,0.04392,0.10004,0.15616,-0.1342,-0.00976,-0.02928,-0.02928,-0.0244,-0.07808,-0.03416
-0.11224,0.0366,0.03904,0.09516,0.15128,-0.13176,-0.00976,-0.02928,-0.02928,-0.0244,-0.07808,-0.03904
-0.11224,0.0366,0.03904,0.09516,0.15128,-0.13176,-0.00488,-0.02928,-0.02928,-0.03416,-0.0732,-0.05368
-0.11712,0.0366,0.04392,0.10248,0.16104,-0.13908,-0.00976,-0.03416,-0.02928,-0.03416,-0.06344,-0.0732
-0.10248,0.0244,0.05368,0.10492,0.15616,-0.12932,-0.00488,-0.04392,-0.03904,-0.03904,-0.05856,-0.08296
-0.0976,0.02196,0.05368,0.10248,0.15128,-0.12444,-0.00488,-0.04392,-0.03904,-0.03904,-0.05856,-0.09272
-0.10248,0.0244,0.05368,0.10492,0.15616,-0.12932,-0.01464,-0.05856,-0.03904,-0.05368,-0.06344,-0.0976
-0.08784,0.01464,0.05856,0.10248,0.1464,-0.11712,-0.0244,-0.05856,-0.03904,-0.05368,-0.06344,-0.0976
-0.0976,0.02196,0.05368,0.10248,0.15128,-0.12444,-0.0244,-0.05368,-0.04392,-0.05368,-0.0732,-0.0732
-0.10248,0.02928,0.04392,0.09516,0.1464,-0.12444,-0.02928,-0.05368,-0.04392,-0.05368,-0.0732,-0.06344
-0.10248,0.0244,0.05368,0.10492,0.15616,-0.12932,-0.01952,-0.05368,-0.0488,-0.0488,-0.08296,-0.0488
-0.10248,0.0244,0.05368,0.10492,0.15616,-0.12932,-0.0244,-0.06344,-0.05368,-0.0488,-0.07808,-0.03904
-0.10248,0.0244,0.05368,0.10492,0.15616,-0.12932,-0.01952,-0.05368,-0.05368,-0.0488,-0.0732,-0.03904
-0.0976,0.02196,0.05368,0.10248,0.15128,-0.12444,-0.01952,-0.05368,-0.05368,-0.0488,-0.08296,-0.03904
-0.0976,0.02196,0.05368,0.10248,0.15128,-0.12444,-0.01952,-0.05368,-0.05368,-0.0488,-0.07808,-0.0488
-0.09272,0.01952,0.05368,0.10004,0.1464,-0.11956,-0.01952,-0.05368,-0.05368,-0.0488,-0.07808,-0.0732
-0.10736,0.03172,0.04392,0.0976,0.15128,-0.12932,-0.01952,-0.05856,-0.05856,-0.05368,-0.06832,-0.08784
-0.11224,0.03416,0.04392,0.10004,0.15616,-0.1342,-0.01464,-0.05856,-0.06344,-0.05368,-0.06344,-0.0976
-0.10736,0.03172,0.04392,0.0976,0.15128,-0.12932,-0.01464,-0.06344,-0.05856,-0.05368,-0.05856,-0.0976
-0.10248,0.02684,0.0488,0.10004,0.15128,-0.12688,-0.01464,-0.06344,-0.05856,-0.05368,-0.06344,-0.0976
-0.10736,0.03172,0.04392,0.0976,0.15128,-0.12932,-0.01464,-0.06344,-0.05856,-0.05856,-0.06344,-0.08784
-0.10736,0.03172,0.04392,0.0976,0.15128,-0.12932,-0.01952,-0.06832,-0.06344,-0.06344,-0.05856,-0.07808
-0.11712,0.04148,0.03416,0.09272,0.15128,-0.1342,-0.01952,-0.06832,-0.06344,-0.06344,-0.07808,-0.06344
-0.122,0.04392,0.03416,0.09516,0.15616,-0.13908,-0.01952,-0.06832,-0.06344,-0.06344,-0.08296,-0.0488
-0.12688,0.04148,0.04392,0.10736,0.1708,-0.14884,-0.00976,-0.06344,-0.05368,-0.05368,-0.07808,-0.03416
-0.13176,0.04636,0.03904,0.10492,0.1708,-0.15128,0,-0.06344,-0.05368,-0.0488,-0.08296,-0.0244
-0.122,0.04148,0.03904,0.10004,0.16104,-0.14152,0,-0.06344,-0.05368,-0.0488,-0.08296,-0.03416
-0.10736,0.02928,0.0488,0.10248,0.15616,-0.13176,0,-0.06832,-0.05368,-0.05368,-0.08296,-0.05368
-0.10736,0.02928,0.0488,0.10248,0.15616,-0.13176,0,-0.06832,-0.06832,-0.05368,-0.0732,-0.0732
-0.10248,0.02684,0.0488,0.10004,0.15128,-0.12688,0.00488,-0.0732,-0.06832,-0.05856,-0.06832,-0.08784
-0.10248,0.02684,0.0488,0.10004,0.15128,-0.12688,-0.00488,-0.0732,-0.06832,-0.06344,-0.06832,-0.09272
-0.10248,0.02928,0.04392,0.09516,0.1464,-0.12444,-0.00488,-0.0732,-0.0732,-0.06344,-0.0732,-0.09272
-0.11224,0.03172,0.0488,0.10492,0.16104,-0.13664,-0.00488,-0.0732,-0.0732,-0.06344,-0.06832,-0.08296
-0.11224,0.02928,0.05368,0.1098,0.16592,-0.13908,-0.00488,-0.07808,-0.07808,-0.06344,-0.06832,-0.08784
-0.11224,0.03416,0.04392,0.10004,0.15616,-0.1342,0.00488,-0.07808,-0.06832,-0.06344,-0.07808,-0.06832
-0.11224,0.03416,0.04392,0.10004,0.15616,-0.1342,0.00488,-0.07808,-0.06832,-0.06344,-0.07808,-0.0488
-0.122,0.04148,0.03904,0.10004,0.16104,-0.14152,-0.00488,-0.07808,-0.06832,-0.05856,-0.08296,-0.04392
-0.11712,0.04148,0.03416,0.09272,0.15128,-0.1342,-0.00488,-0.07808,-0.06832,-0.05856,-0.08784,-0.03904
-0.11712,0.04148,0.03416,0.09272,0.15128,-0.1342,-0.00488,-0.07808,-0.06832,-0.06344,-0.07808,-0.04392
-0.122,0.04392,0.03416,0.09516,0.15616,-0.13908,-0.00488,-0.07808,-0.06832,-0.06344,-0.07808,-0.0488
-0.122,0.03904,0.04392,0.10492,0.16592,-0.14396,0.00488,-0.07808,-0.06832,-0.06344,-0.0732,-0.05856
-0.122,0.03904,0.04392,0.10492,0.16592,-0.14396,0,-0.08296,-0.06832,-0.06832,-0.07808,-0.0732
-0.10736,0.02928,0.0488,0.10248,0.15616,-0.13176,0,-0.08296,-0.06832,-0.06832,-0.06832,-0.08296
-0.10248,0.02684,0.0488,0.10004,0.15128,-0.12688,0.00488,-0.08296,-0.06832,-0.06344,-0.06344,-0.09272
-0.11712,0.03172,0.05368,0.11224,0.1708,-0.14396,-0.00488,-0.08784,-0.08296,-0.0732,-0.0732,-0.09272
-0.122,0.03904,0.04392,0.10492,0.16592,-0.14396,-0.00488,-0.08784,-0.08296,-0.0732,-0.0732,-0.07808
-0.12688,0.04392,0.03904,0.10248,0.16592,-0.1464,-0.00976,-0.08784,-0.08784,-0.07808,-0.08784,-0.0732
-0.12688,0.04392,0.03904,0.10248,0.16592,-0.1464,-0.00976,-0.08784,-0.08784,-0.07808,-0.08784,-0.06344
-0.122,0.04148,0.03904,0.10004,0.16104,-0.14152,0,-0.07808,-0.07808,-0.06832,-0.07808,-0.04392
-0.11224,0.0366,0.03904,0.09516,0.15128,-0.13176,0,-0.07808,-0.07808,-0.06832,-0.07808,-0.03416
-0.10736,0.02928,0.0488,0.10248,0.15616,-0.13176,0.00976,-0.07808,-0.07808,-0.05856,-0.07808,-0.03904
-0.10736,0.02928,0.0488,0.10248,0.15616,-0.13176,0.00976,-0.07808,-0.07808,-0.05856,-0.07808,-0.03904
-0.11712,0.02928,0.05856,0.11712,0.17568,-0.1464,0.00976,-0.07808,-0.07808,-0.06832,-0.06832,-0.05368
-0.11712,0.02928,0.05856,0.11712,0.17568,-0.1464,0.00976,-0.07808,-0.07808,-0.06832,-0.06832,-0.06344
-0.12688,0.04148,0.04392,0.10736,0.1708,-0.14884,0.00976,-0.07808,-0.06832,-0.06832,-0.05856,-0.07808
-0.12688,0.04636,0.03416,0.0976,0.16104,-0.14396,0.00976,-0.07808,-0.06832,-0.06832,-0.05856,-0.07808
-0.11712,0.04636,0.0244,0.08296,0.14152,-0.12932,0,-0.08784,-0.07808,-0.06832,-0.06832,-0.07808
-0.11712,0.05124,0.01464,0.0732,0.13176,-0.12444,0,-0.08784,-0.07808,-0.06832,-0.06832,-0.07808
-0.11712,0.0488,0.01952,0.07808,0.13664,-0.12688,0,-0.08784,-0.07808,-0.07808,-0.07808,-0.0732
-0.11712,0.0488,0.01952,0.07808,0.13664,-0.12688,0,-0.08784,-0.07808,-0.07808,-0.07808,-0.06344
-0.122,0.05124,0.01952,0.08052,0.14152,-0.13176,0,-0.08784,-0.07808,-0.06832,-0.07808,-0.05368
-0.13176,0.05612,0.01952,0.0854,0.15128,-0.14152,0,-0.08784,-0.07808,-0.06832,-0.07808,-0.04392
-0.13664,0.05856,0.01952,0.08784,0.15616,-0.1464,0,-0.08784,-0.07808,-0.06832,-0.08784,-0.03904
-0.13664,0.05856,0.01952,0.08784,0.15616,-0.1464,0,-0.08784,-0.07808,-0.06832,-0.08784,-0.03904
-0.13176,0.05124,0.02928,0.09516,0.16104,-0.1464,0,-0.07808,-0.07808,-0.05856,-0.08296,-0.0488
-0.122,0.04636,0.02928,0.09028,0.15128,-0.13664,0,-0.07808,-0.07808,-0.05856,-0.0732,-0.0488
-0.11712,0.0488,0.01952,0.07808,0.13664,-0.12688,0.00976,-0.07808,-0.06832,-0.05856,-0.05856,-0.05368
-0.11712,0.0488,0.01952,0.07808,0.13664,-0.12688,0.00976,-0.07808,-0.06832,-0.05856,-0.05856,-0.06344
-0.12688,0.05856,0.00976,0.0732,0.13664,-0.13176,0,-0.08784,-0.07808,-0.06832,-0.05856,-0.07808
-0.12688,0.05856,0.00976,0.0732,0.13664,-0.13176,0,-0.08784,-0.07808,-0.06832,-0.05856,-0.07808
-0.11712,0.0488,0.01952,0.07808,0.13664,-0.12688,0,-0.08784,-0.07808,-0.06832,-0.06832,-0.06344
-0.11712,0.0488,0.01952,0.07808,0.13664,-0.12688,0,-0.08784,-0.07808,-0.06832,-0.06832,-0.05368
-0.10736,0.0488,0.00976,0.06344,0.11712,-0.11224,0,-0.07808,-0.07808,-0.05856,-0.06832,-0.04392
-0.10736,0.0488,0.00976,0.06344,0.11712,-0.11224,0,-0.07808,-0.07808,-0.05856,-0.06832,-0.03416
-0.11712,0.05856,0,0.05856,0.11712,-0.11712,-0.00976,-0.08784,-0.07808,-0.06832,-0.07808,-0.02928
-0.11712,0.05856,0,0.05856,0.11712,-0.11712,-0.00976,-0.08784,-0.07808,-0.06832,-0.07808,-0.02928
-0.12688,0.06832,-0.00976,0.05368,0.11712,-0.122,0,-0.07808,-0.06832,-0.06832,-0.06832,-0.03904
-0.12688,0.06832,-0.00976,0.05368,0.11712,-0.122,0,-0.07808,-0.06832,-0.06832,-0.06832,-0.03904
-0.12688,0.06344,0,0.06344,0.12688,-0.12688,0.00976,-0.07808,-0.06832,-0.05856,-0.06344,-0.04392
-0.12688,0.06344,0,0.06344,0.12688,-0.12688,0.00976,-0.07808,-0.06832,-0.05856,-0.05368,-0.05368
-0.12688,0.06344,0,0.06344,0.12688,-0.12688,0.00976,-0.07808,-0.06832,-0.05856,-0.0488,-0.05856
-0.12688,0.06344,0,0.06344,0.12688,-0.12688,0.00976,-0.07808,-0.06832,-0.05856,-0.0488,-0.05856
-0.12688,0.06832,-0.00976,0.05368,0.11712,-0.122,0,-0.08784,-0.07808,-0.06832,-0.05856,-0.05856
-0.12688,0.06832,-0.00976,0.05368,0.11712,-0.122,0,-0.08784,-0.07808,-0.06832,-0.05856,-0.05856
-0.122,0.05856,0.00488,0.06588,0.12688,-0.12444,0.00976,-0.07808,-0.06832,-0.05856,-0.06832,-0.04392
-0.11224,0.0488,0.01464,0.07076,0.12688,-0.11956,0.00976,-0.07808,-0.06832,-0.05856,-0.06832,-0.03416
-0.10736,0.04392,0.01952,0.0732,0.12688,-0.11712,0.00976,-0.06832,-0.05856,-0.0488,-0.05856,-0.0244
-0.10736,0.04392,0.01952,0.0732,0.12688,-0.11712,0.00976,-0.06832,-0.05856,-0.0488,-0.05856,-0.01464
-0.11712,0.05368,0.00976,0.06832,0.12688,-0.122,0.00976,-0.06832,-0.05856,-0.0488,-0.05856,-0.01952
-0.11712,0.05368,0.00976,0.06832,0.12688,-0.122,0.00976,-0.06832,-0.05856,-0.0488,-0.05856,-0.01952
-0.12688,0.06344,0,0.06344,0.12688,-0.12688,0.00976,-0.05856,-0.0488,-0.03904,-0.05368,-0.0244
-0.12688,0.06344,0,0.06344,0.12688,-0.12688,0.00976,-0.05856,-0.0488,-0.03904,-0.04392,-0.03416
-0.12688,0.05856,0.00976,0.0732,0.13664,-0.13176,0.00976,-0.0488,-0.04392,-0.02928,-0.02928,-0.0488
-0.12688,0.05856,0.00976,0.0732,0.13664,-0.13176,0.00976,-0.0488,-0.03416,-0.02928,-0.02928,-0.0488
-0.11712,0.05368,0.00976,0.06832,0.12688,-0.122,0.00976,-0.03904,-0.01952,-0.01952,-0.01952,-0.03416
-0.11712,0.05368,0.00976,0.06832,0.12688,-0.122,0.01464,-0.03416,-0.01464,-0.01952,-0.01952,-0.0244
-0.11224,0.05612,0,0.05612,0.11224,-0.11224,0.00488,-0.0244,-0.00976,-0.01464,-0.0244,-0.00488
-0.10736,0.05368,0,0.05368,0.10736,-0.10736,0.00976,-0.01464,0,-0.00488,-0.01464,0.00488
-0.10736,0.05612,-0.00488,0.0488,0.10248,-0.10492,0.01952,0.00488,0.00488,0.00976,-0.01464,0.01464
-0.0976,0.05124,-0.00488,0.04392,0.09272,-0.09516,0.01952,0.00488,0.00976,0.00976,-0.00976,0.02928
-0.0732,0.03904,-0.00488,0.03172,0.06832,-0.07076,0.02928,0.01464,0.01952,0.00976,-0.00488,0.02928
-0.06344,0.03416,-0.00488,0.02684,0.05856,-0.061,0.01464,0.01464,0.01464,0.01464,0,0.02928
-0.0488,0.02928,-0.00976,0.01464,0.03904,-0.04392,0.00976,0.01464,0.01952,0.01464,0.01464,0.02928
-0.03904,0.02684,-0.01464,0.00488,0.0244,-0.03172,0.00976,0.01464,0.01952,0.01464,0.01952,0.01952
-0.0244,0.01952,-0.01464,-0.00244,0.00976,-0.01708,-0.00488,0.00488,0.00976,0.00976,0.02928,0.01464
-0.01464,0.01464,-0.01464,-0.00732,0,-0.00732,-0.01952,-0.00488,-0.00976,0,0.01952,0.00488
0,0.00732,-0.01464,-0.01464,-0.01464,0.00732,-0.03416,-0.02928,-0.02928,-0.01952,0,-0.00488
0.01464,0,-0.01464,-0.02196,-0.02928,0.02196,-0.03904,-0.04392,-0.03904,-0.02928,-0.00488,-0.01464
0.02928,-0.00488,-0.01952,-0.03416,-0.0488,0.03904,-0.02928,-0.04392,-0.05368,-0.03904,-0.0244,-0.00976
0.02928,-0.00732,-0.01464,-0.02928,-0.04392,0.0366,-0.02928,-0.05368,-0.06344,-0.0488,-0.02928,0.00488
0.01464,0,-0.01464,-0.02196,-0.02928,0.02196,-0.0244,-0.05368,-0.05856,-0.0488,-0.03416,0.01952
-0.01952,0.02196,-0.0244,-0.01464,-0.00488,-0.00732,-0.00976,-0.05856,-0.05856,-0.0488,-0.03416,0.0244
-0.03904,0.03172,-0.0244,-0.00488,0.01464,-0.02684,-0.00976,-0.06832,-0.06832,-0.0488,-0.0488,0.01464
-0.05856,0.04148,-0.0244,0.00488,0.03416,-0.04636,-0.00488,-0.07808,-0.0732,-0.05368,-0.05368,0.01464
-0.08784,0.061,-0.03416,0.00976,0.05368,-0.07076,-0.00488,-0.08296,-0.0732,-0.05368,-0.04392,0.00976
-0.09272,0.06344,-0.03416,0.0122,0.05856,-0.07564,0,-0.08296,-0.0732,-0.05368,-0.04392,-0.01464
-0.10248,0.06832,-0.03416,0.01708,0.06832,-0.0854,0.00488,-0.08296,-0.0732,-0.05368,-0.03904,-0.02928
-0.10736,0.0732,-0.03904,0.01464,0.06832,-0.08784,0.00976,-0.08296,-0.06832,-0.05856,-0.04392,-0.0488
-0.11712,0.08296,-0.0488,0.00976,0.06832,-0.09272,0.0244,-0.0732,-0.0732,-0.05856,-0.03416,-0.0488
-0.11712,0.08296,-0.0488,0.00976,0.06832,-0.09272,0.03416,-0.0732,-0.0732,-0.05856,-0.04392,-0.0488
-0.11712,0.08784,-0.05856,0,0.05856,-0.08784,0.03416,-0.0732,-0.0732,-0.06344,-0.0488,-0.04392
-0.11712,0.0854,-0.05368,0.00488,0.06344,-0.09028,0.03904,-0.0732,-0.0732,-0.06344,-0.05368,-0.04392
-0.10736,0.07808,-0.0488,0.00488,0.05856,-0.08296,0.03904,-0.0732,-0.06832,-0.06344,-0.0732,-0.02928
-0.11224,0.07564,-0.03904,0.01708,0.0732,-0.09272,0.03904,-0.0732,-0.06832,-0.06344,-0.06832,-0.0244
-0.122,0.0854,-0.0488,0.0122,0.0732,-0.0976,0.04392,-0.0732,-0.0732,-0.06344,-0.06832,-0.01464
-0.13176,0.09516,-0.05856,0.00732,0.0732,-0.10248,0.04392,-0.0732,-0.0732,-0.06344,-0.0732,-0.01464
-0.14152,0.10736,-0.0732,-0.00244,0.06832,-0.10492,0.04392,-0.0732,-0.0732,-0.06344,-0.06344,-0.01952
-0.14152,0.1098,-0.07808,-0.00732,0.06344,-0.10248,0.04392,-0.0732,-0.07808,-0.06344,-0.06344,-0.0244
-0.14152,0.10492,-0.06832,0.00244,0.0732,-0.10736,0.04392,-0.0732,-0.0732,-0.06344,-0.06344,-0.04392
-0.14152,0.10248,-0.06344,0.00732,0.07808,-0.1098,0.0488,-0.0732,-0.0732,-0.06832,-0.06344,-0.05368
-0.13664,0.09516,-0.05368,0.01464,0.08296,-0.1098,0.0488,-0.0732,-0.0732,-0.06832,-0.05368,-0.06344
-0.13664,0.0976,-0.05856,0.00976,0.07808,-0.10736,0.0488,-0.0732,-0.0732,-0.06832,-0.05368,-0.06344
-0.1464,0.10736,-0.06832,0.00488,0.07808,-0.11224,0.04392,-0.0732,-0.0732,-0.06344,-0.05368,-0.06344
-0.1464,0.10492,-0.06344,0.00976,0.08296,-0.11468,0.04392,-0.0732,-0.0732,-0.06344,-0.05368,-0.05368
-0.14152,0.10492,-0.06832,0.00244,0.0732,-0.10736,0.0488,-0.0732,-0.06344,-0.06344,-0.06344,-0.03416
-0.13664,0.10248,-0.06832,0,0.06832,-0.10248,0.0488,-0.06832,-0.06344,-0.06344,-0.06344,-0.02928
-0.1464,0.10248,-0.05856,0.01464,0.08784,-0.11712,0.0488,-0.06832,-0.06344,-0.06344,-0.05856,-0.01952
-0.15128,0.10736,-0.06344,0.0122,0.08784,-0.11956,0.04392,-0.06832,-0.06344,-0.05856,-0.05856,-0.01952
-0.16104,0.11712,-0.0732,0.00732,0.08784,-0.12444,0.04392,-0.0732,-0.05368,-0.04392,-0.0488,-0.01464
-0.18544,0.1342,-0.08296,0.00976,0.10248,-0.14396,0.03904,-0.08296,-0.0488,-0.0244,-0.03416,-0.00976
-0.1952,0.13908,-0.08296,0.01464,0.11224,-0.15372,0.02928,-0.08296,-0.0244,0.00976,0.01464,0
-0.2196,0.1464,-0.0732,0.0366,0.1464,-0.183,0.01464,-0.09272,0.01952,0.06344,0.0732,0.0244
-0.21472,0.13664,-0.05856,0.0488,0.15616,-0.18544,-0.01464,-0.07808,0.0732,0.15128,0.1708,0.08784
-0.18056,0.11712,-0.05368,0.0366,0.12688,-0.15372,-0.03904,-0.03416,0.1708,0.28304,0.31232,0.18544
-0.11224,0.0854,-0.05856,-0.00244,0.05368,-0.08296,-0.08784,0.04392,0.28792,0.4392,0.47336,0.32208
0.00488,0.03172,-0.06832,-0.07076,-0.0732,0.03904,-0.13664,0.16104,0.41968,0.5856,0.6344,0.44408
0.19032,-0.061,-0.06832,-0.16348,-0.25864,0.22448,-0.15616,0.3416,0.49288,0.6344,0.66368,0.48312
0.41968,-0.16836,-0.08296,-0.2928,-0.50264,0.46116,-0.122,0.53192,0.45384,0.50264,0.48312,0.35624
0.60024,-0.25864,-0.08296,-0.38308,-0.6832,0.64172,0.00976,0.7076,0.28792,0.15616,0.07808,0.08784
0.71736,-0.31232,-0.09272,-0.4514,-0.81008,0.76372,0.16104,0.81008,0.06344,-0.24888,-0.39528,-0.25864
0.70272,-0.305,-0.09272,-0.44408,-0.79544,0.74908,0.30256,0.79544,-0.18056,-0.62464,-0.79056,-0.55632
0.61,-0.25864,-0.09272,-0.39772,-0.70272,0.65636,0.40504,0.67344,-0.35624,-0.83936,-1.01504,-0.74664
0.45872,-0.17812,-0.10248,-0.33184,-0.5612,0.50996,0.46848,0.49288,-0.47824,-0.9272,-1.09312,-0.81984
0.30744,-0.10004,-0.10736,-0.26108,-0.4148,0.36112,0.5124,0.31232,-0.54168,-0.9516,-1.07848,-0.84424
0.16104,-0.02196,-0.11712,-0.19764,-0.27816,0.2196,0.55144,0.17568,-0.55144,-0.91256,-1.01992,-0.8296
0.04392,0.04636,-0.13664,-0.1586,-0.18056,0.11224,0.56608,0.09272,-0.52704,-0.86376,-0.94672,-0.7808
-0.03416,0.08296,-0.13176,-0.11468,-0.0976,0.03172,0.57584,0.08784,-0.45384,-0.76128,-0.85888,-0.71736
-0.11712,0.11468,-0.11224,-0.05368,0.00488,-0.061,0.5856,0.12688,-0.366,-0.6588,-0.74176,-0.6344
-0.20008,0.16104,-0.122,-0.02196,0.07808,-0.13908,0.59048,0.17568,-0.26352,-0.55144,-0.64904,-0.54656
-0.25376,0.17568,-0.0976,0.02928,0.15616,-0.20496,0.59536,0.25864,-0.1708,-0.4392,-0.54656,-0.45384
-0.30256,0.20252,-0.10248,0.0488,0.20008,-0.25132,0.5856,0.33184,-0.09272,-0.34648,-0.45872,-0.37088
-0.30744,0.20984,-0.11224,0.04148,0.1952,-0.25132,0.5856,0.39528,-0.03904,-0.2684,-0.37576,-0.30256
-0.28792,0.19276,-0.0976,0.04636,0.19032,-0.23912,0.59536,0.44896,0.00976,-0.20008,-0.30256,-0.244
-0.28304,0.1952,-0.10736,0.03416,0.17568,-0.22936,0.60512,0.4636,0.03416,-0.1708,-0.26352,-0.20496
-0.26352,0.17568,-0.08784,0.04392,0.17568,-0.2196,0.62464,0.47336,0.05368,-0.13664,-0.2196,-0.18544
-0.27816,0.18788,-0.0976,0.04148,0.18056,-0.22936,0.62952,0.4392,0.04392,-0.14152,-0.20496,-0.18544
-0.28792,0.1952,-0.10248,0.04148,0.18544,-0.23668,0.65392,0.42944,0.04392,-0.12688,-0.19032,-0.17568
-0.28792,0.19032,-0.09272,0.05124,0.1952,-0.24156,0.66856,0.41968,0.05368,-0.11224,-0.16592,-0.17568
-0.29768,0.19764,-0.0976,0.05124,0.20008,-0.24888,0.67832,0.39528,0.05856,-0.10248,-0.15128,-0.1708
-0.27816,0.18056,-0.08296,0.05612,0.1952,-0.23668,0.64904,0.3416,0.04392,-0.0976,-0.13664,-0.14152
-0.26352,0.17324,-0.08296,0.0488,0.18056,-0.22204,0.57096,0.23424,0.00488,-0.0976,-0.14152,-0.122
-0.23912,0.16104,-0.08296,0.0366,0.15616,-0.19764,0.44896,0.10248,-0.05368,-0.10736,-0.12688,-0.0976
-0.2196,0.14884,-0.07808,0.03172,0.14152,-0.18056,0.30744,0.00976,-0.08296,-0.10736,-0.122,-0.06832
-0.18544,0.12688,-0.06832,0.0244,0.11712,-0.15128,0.19032,-0.03904,-0.08296,-0.09272,-0.10736,-0.03904
-0.16104,0.11468,-0.06832,0.0122,0.09272,-0.12688,0.11712,-0.04392,-0.06832,-0.06344,-0.08784,-0.01464
-0.15616,0.11224,-0.06832,0.00976,0.08784,-0.122,0.06344,-0.04392,-0.05856,-0.05368,-0.06832,0.00488
-0.16104,0.11956,-0.07808,0.00244,0.08296,-0.122,0.04392,-0.0488,-0.05856,-0.0488,-0.06344,0.00488
-0.16592,0.122,-0.07808,0.00488,0.08784,-0.12688,0.02928,-0.06344,-0.05856,-0.0488,-0.05856,0.00488
-0.16592,0.12932,-0.09272,-0.00976,0.0732,-0.11956,0.0244,-0.0732,-0.05856,-0.05368,-0.0488,-0.01464
-0.15128,0.122,-0.09272,-0.01708,0.05856,-0.10492,0.01464,-0.07808,-0.05856,-0.0488,-0.04392,-0.0244
-0.15616,0.12444,-0.09272,-0.01464,0.06344,-0.1098,0.01464,-0.07808,-0.05856,-0.0488,-0.03416,-0.02928
-0.16104,0.122,-0.08296,-0.00244,0.07808,-0.11956,0.00488,-0.08784,-0.06344,-0.0488,-0.03416,-0.01952
-0.16104,0.12444,-0.08784,-0.00732,0.0732,-0.11712,-0.00488,-0.08784,-0.0732,-0.0488,-0.04392,-0.02928
-0.16104,0.122,-0.08296,-0.00244,0.07808,-0.11956,-0.00976,-0.0976,-0.07808,-0.05368,-0.0488,-0.02928
-0.15616,0.11712,-0.07808,0,0.07808,-0.11712,-0.00976,-0.09272,-0.06832,-0.05368,-0.0488,-0.00976
-0.16104,0.11712,-0.0732,0.00732,0.08784,-0.12444,-0.01952,-0.0976,-0.06832,-0.05368,-0.0488,0.00976
-0.15128,0.11224,-0.0732,0.00244,0.07808,-0.11468,-0.01464,-0.09272,-0.0732,-0.0488,-0.05856,0.01952
-0.14152,0.10736,-0.0732,-0.00244,0.06832,-0.10492,-0.01952,-0.09272,-0.0732,-0.0488,-0.05856,0.01464
-0.13664,0.10492,-0.0732,-0.00488,0.06344,-0.10004,-0.03416,-0.10736,-0.0732,-0.0488,-0.05856,0.00488
-0.14152,0.10736,-0.0732,-0.00244,0.06832,-0.10492,-0.03416,-0.10736,-0.0732,-0.0488,-0.05856,0.00976
-0.13664,0.10492,-0.0732,-0.00488,0.06344,-0.10004,-0.03416,-0.11224,-0.0732,-0.05856,-0.05368,0
-0.13664,0.10492,-0.0732,-0.00488,0.06344,-0.10004,-0.03416,-0.11224,-0.0732,-0.05856,-0.05856,-0.01952
-0.14152,0.1098,-0.07808,-0.00732,0.06344,-0.10248,-0.0244,-0.11224,-0.07808,-0.05856,-0.0488,-0.0244
-0.14152,0.1098,-0.07808,-0.00732,0.06344,-0.10248,-0.02928,-0.11224,-0.07808,-0.05856,-0.0488,-0.01952
-0.14152,0.10492,-0.06832,0.00244,0.0732,-0.10736,-0.03904,-0.11224,-0.07808,-0.05368,-0.0488,-0.0244
-0.14152,0.10492,-0.06832,0.00244,0.0732,-0.10736,-0.03904,-0.11712,-0.07808,-0.05368,-0.0488,-0.02928
-0.13664,0.10248,-0.06832,0,0.06832,-0.10248,-0.02928,-0.11712,-0.07808,-0.05368,-0.05368,-0.01464
-0.13176,0.10004,-0.06832,-0.00244,0.06344,-0.0976,-0.03416,-0.122,-0.07808,-0.05856,-0.05368,-0.00976
-0.13176,0.10736,-0.08296,-0.01708,0.0488,-0.09028,-0.03904,-0.11224,-0.0732,-0.0488,-0.05368,0.00488
-0.13664,0.1098,-0.08296,-0.01464,0.05368,-0.09516,-0.03904,-0.122,-0.07808,-0.05368,-0.05856,0.01952
-0.13664,0.1098,-0.08296,-0.01464,0.05368,-0.09516,-0.03416,-0.11224,-0.07808,-0.04392,-0.0488,0.02928
-0.13664,0.1098,-0.08296,-0.01464,0.05368,-0.09516,-0.03416,-0.11224,-0.08296,-0.04392,-0.0488,0.03416
-0.14152,0.11468,-0.08784,-0.01708,0.05368,-0.0976,-0.04392,-0.12688,-0.09272,-0.05368,-0.0488,0.01952
-0.13176,0.10736,-0.08296,-0.01708,0.0488,-0.09028,-0.0488,-0.12688,-0.09272,-0.05368,-0.0488,0.00488
-0.122,0.10004,-0.07808,-0.01708,0.04392,-0.08296,-0.05368,-0.14152,-0.09272,-0.06344,-0.0488,-0.01464
-0.13176,0.1098,-0.08784,-0.02196,0.04392,-0.08784,-0.05368,-0.14152,-0.09272,-0.06344,-0.0488,-0.02928
-0.14152,0.11224,-0.08296,-0.0122,0.05856,-0.10004,-0.05856,-0.14152,-0.0976,-0.06344,-0.04392,-0.02928
-0.15128,0.11468,-0.07808,-0.00244,0.0732,-0.11224,-0.06344,-0.15128,-0.0976,-0.06832,-0.04392,-0.0244
-0.13176,0.10248,-0.0732,-0.00732,0.05856,-0.09516,-0.06832,-0.15128,-0.10736,-0.06832,-0.05856,-0.00976
-0.11224,0.09272,-0.0732,-0.01708,0.03904,-0.07564,-0.0732,-0.15616,-0.11224,-0.07808,-0.06832,-0.00976
-0.10248,0.08296,-0.06344,-0.0122,0.03904,-0.07076,-0.07808,-0.16104,-0.10736,-0.0732,-0.06832,0
-0.0976,0.08296,-0.06832,-0.01952,0.02928,-0.06344,-0.07808,-0.16592,-0.11712,-0.08296,-0.07808,0.01464
-0.10736,0.09272,-0.07808,-0.0244,0.02928,-0.06832,-0.08296,-0.1708,-0.122,-0.08296,-0.07808,0.01464
-0.11712,0.10004,-0.08296,-0.0244,0.03416,-0.07564,-0.09272,-0.18544,-0.13176,-0.09272,-0.08784,0.01952
-0.12688,0.10736,-0.08784,-0.0244,0.03904,-0.08296,-0.09272,-0.19032,-0.13664,-0.0976,-0.08296,0.00976
-0.12688,0.10736,-0.08784,-0.0244,0.03904,-0.08296,-0.0976,-0.20496,-0.1464,-0.10736,-0.09272,0
-0.12688,0.10248,-0.07808,-0.01464,0.0488,-0.08784,-0.10736,-0.21472,-0.15616,-0.11712,-0.08784,-0.01464
-0.12688,0.10004,-0.0732,-0.00976,0.05368,-0.09028,-0.10736,-0.22448,-0.16592,-0.11712,-0.0976,-0.02928
-0.11224,0.09272,-0.0732,-0.01708,0.03904,-0.07564,-0.10736,-0.23912,-0.1708,-0.13176,-0.10248,-0.03416
-0.11712,0.0976,-0.07808,-0.01952,0.03904,-0.07808,-0.11712,-0.24888,-0.18056,-0.13664,-0.10248,-0.04392
-0.10736,0.09272,-0.07808,-0.0244,0.02928,-0.06832,-0.10736,-0.24888,-0.17568,-0.13176,-0.0976,-0.0244
-0.10248,0.0854,-0.06832,-0.01708,0.03416,-0.06832,-0.122,-0.24888,-0.18544,-0.14152,-0.10736,-0.02928
-0.11224,0.0976,-0.08296,-0.02684,0.02928,-0.07076,-0.12688,-0.25864,-0.1952,-0.14152,-0.122,-0.01464
-0.10736,0.09516,-0.08296,-0.02928,0.0244,-0.06588,-0.13664,-0.2684,-0.20496,-0.14152,-0.12688,-0.00488
-0.10736,0.09516,-0.08296,-0.02928,0.0244,-0.06588,-0.14152,-0.2684,-0.1952,-0.1464,-0.12688,0.00488
-0.10248,0.09272,-0.08296,-0.03172,0.01952,-0.061,-0.1464,-0.2684,-0.20008,-0.1464,-0.12688,0.01464
-0.0976,0.08296,-0.06832,-0.01952,0.02928,-0.06344,-0.15616,-0.27816,-0.20008,-0.15128,-0.12688,0
-0.0976,0.07808,-0.05856,-0.00976,0.03904,-0.06832,-0.16104,-0.27816,-0.20496,-0.1464,-0.12688,-0.00488
-0.09272,0.07808,-0.06344,-0.01708,0.02928,-0.061,-0.16104,-0.27816,-0.20008,-0.14152,-0.11712,-0.0244
-0.0976,0.08052,-0.06344,-0.01464,0.03416,-0.06588,-0.16592,-0.27816,-0.18544,-0.13176,-0.10736,-0.03416
-0.08784,0.08296,-0.07808,-0.03416,0.00976,-0.0488,-0.16592,-0.27328,-0.19032,-0.13664,-0.10248,-0.04392
-0.08784,0.08784,-0.08784,-0.04392,0,-0.04392,-0.16592,-0.26352,-0.17568,-0.12688,-0.0976,-0.03904
-0.08296,0.08052,-0.07808,-0.0366,0.00488,-0.04392,-0.16104,-0.25376,-0.15616,-0.10248,-0.08296,-0.0244
-0.07808,0.07808,-0.07808,-0.03904,0,-0.03904,-0.16104,-0.23912,-0.13176,-0.08296,-0.0732,-0.01952
-0.06832,0.06588,-0.06344,-0.02928,0.00488,-0.0366,-0.15616,-0.22936,-0.122,-0.06832,-0.06832,0.00488
-0.0732,0.06588,-0.05856,-0.02196,0.01464,-0.04392,-0.1464,-0.20496,-0.10248,-0.05368,-0.05856,0.01464
-0.08784,0.0732,-0.05856,-0.01464,0.02928,-0.05856,-0.14152,-0.18544,-0.08296,-0.04392,-0.0488,0.0244
-0.08296,0.0732,-0.06344,-0.02196,0.01952,-0.05124,-0.13664,-0.16592,-0.0732,-0.0244,-0.03904,0.02928
-0.0976,0.08052,-0.06344,-0.01464,0.03416,-0.06588,-0.13176,-0.15128,-0.05368,-0.01464,-0.03416,0.02928
-0.10248,0.08784,-0.0732,-0.02196,0.02928,-0.06588,-0.122,-0.13176,-0.03416,-0.00488,-0.02928,0.02928
-0.09272,0.07564,-0.05856,-0.0122,0.03416,-0.06344,-0.0976,-0.10736,-0.0244,0.00976,-0.00976,0.0244
-0.07808,0.061,-0.04392,-0.00488,0.03416,-0.05612,-0.08784,-0.08784,-0.01464,0.01952,-0.00488,0.01952
-0.06832,0.0488,-0.02928,0.00488,0.03904,-0.05368,-0.0732,-0.06832,0,0.01464,0.00488,0.00976
-0.07808,0.05612,-0.03416,0.00488,0.04392,-0.061,-0.06344,-0.05856,0.00976,0.01464,0.01464,0.00488
-0.07808,0.05368,-0.02928,0.00976,0.0488,-0.06344,-0.04392,-0.03904,0.0244,0.0244,0.00488,0.01464
-0.08296,0.05612,-0.02928,0.0122,0.05368,-0.06832,-0.03416,-0.03416,0.02928,0.0244,0.00488,0.00488
-0.09272,0.06344,-0.03416,0.0122,0.05856,-0.07564,-0.02928,-0.02928,0.02928,0.02928,-0.00488,0.01464
-0.08784,0.05856,-0.02928,0.01464,0.05856,-0.0732,-0.01952,-0.01952,0.03416,0.02928,-0.00488,0.0244
-0.08296,0.05612,-0.02928,0.0122,0.05368,-0.06832,-0.00488,0,0.03904,0.04392,-0.00488,0.02928
-0.0732,0.05124,-0.02928,0.00732,0.04392,-0.05856,0.00976,0.00488,0.03904,0.02928,-0.00488,0.03416
-0.06344,0.04148,-0.01952,0.0122,0.04392,-0.05368,0.01952,0.0244,0.03904,0.03904,-0.00976,0.03416
-0.0732,0.0488,-0.0244,0.0122,0.0488,-0.061,0.02928,0.02928,0.04392,0.03904,-0.01464,0.03904
-0.06344,0.0366,-0.00976,0.02196,0.05368,-0.05856,0.0244,0.0244,0.03416,0.02928,-0.01952,0.0244
-0.0732,0.03904,-0.00488,0.03172,0.06832,-0.07076,0.02928,0.02928,0.03416,0.0244,-0.01952,0.00488
-0.06832,0.0366,-0.00488,0.02928,0.06344,-0.06588,0.03904,0.02928,0.03416,0.01464,-0.01464,0
-0.05856,0.03416,-0.00976,0.01952,0.0488,-0.05368,0.03904,0.02928,0.0244,0.01464,-0.01952,-0.00976
-0.05856,0.03172,-0.00488,0.0244,0.05368,-0.05612,0.0488,0.02928,0.03416,0.01952,-0.00976,-0.01464
-0.05856,0.02684,0.00488,0.03416,0.06344,-0.061,0.05856,0.0244,0.02928,0.01952,-0.00976,-0.00976
-0.04392,0.01464,0.01464,0.0366,0.05856,-0.05124,0.06832,0.03416,0.03904,0.02928,-0.00976,0
-0.0488,0.0122,0.0244,0.0488,0.0732,-0.061,0.0732,0.03904,0.03904,0.02928,-0.00976,0.00976
-0.02928,-0.00244,0.03416,0.0488,0.06344,-0.04636,0.06344,0.03904,0.03904,0.0244,-0.01952,0.01464
-0.0244,-0.00976,0.04392,0.05612,0.06832,-0.04636,0.06344,0.03904,0.03904,0.0244,-0.01952,0.02928
-0.01952,-0.01464,0.0488,0.05856,0.06832,-0.04392,0.06832,0.03904,0.03904,0.0244,-0.01952,0.04392
-0.00976,-0.02196,0.05368,0.05856,0.06344,-0.0366,0.06832,0.03904,0.03904,0.0244,-0.01952,0.04392
-0.00488,-0.01952,0.04392,0.04636,0.0488,-0.02684,0.0732,0.0488,0.0488,0.03416,-0.00976,0.03904
0,-0.02196,0.04392,0.04392,0.04392,-0.02196,0.0732,0.0488,0.0488,0.03416,-0.00488,0.03904
-0.00976,-0.01708,0.04392,0.0488,0.05368,-0.03172,0.07808,0.0488,0.0488,0.03416,0.00488,0.0244
-0.00976,-0.02196,0.05368,0.05856,0.06344,-0.0366,0.07808,0.0488,0.0488,0.03904,0.00488,0.00488
-0.01952,-0.01952,0.05856,0.06832,0.07808,-0.0488,0.07808,0.0488,0.0488,0.02928,0.00488,0
-0.0244,-0.01708,0.05856,0.07076,0.08296,-0.05368,0.0732,0.05368,0.05368,0.02928,0.00488,0.00488
-0.0244,-0.01464,0.05368,0.06588,0.07808,-0.05124,0.07808,0.04392,0.04392,0.02928,-0.00488,0.00976
-0.03416,-0.00976,0.05368,0.07076,0.08784,-0.061,0.0732,0.04392,0.03904,0.02928,-0.00488,0.01464
-0.01952,-0.01464,0.0488,0.05856,0.06832,-0.04392,0.07808,0.04392,0.03904,0.02928,0,0.02928
-0.0244,-0.01464,0.05368,0.06588,0.07808,-0.05124,0.07808,0.04392,0.03904,0.02928,-0.00488,0.03416
-0.01464,-0.01952,0.05368,0.061,0.06832,-0.04148,0.07808,0.05368,0.03904,0.03904,-0.01464,0.04392
-0.01464,-0.01952,0.05368,0.061,0.06832,-0.04148,0.0732,0.05368,0.03904,0.03904,-0.01464,0.05856
-0.00976,-0.02196,0.05368,0.05856,0.06344,-0.0366,0.06344,0.0488,0.03904,0.02928,-0.00976,0.04392
-0.01464,-0.01952,0.05368,0.061,0.06832,-0.04148,0.06344,0.0488,0.03904,0.02928,-0.00976,0.03416
-0.01464,-0.0244,0.06344,0.07076,0.07808,-0.04636,0.06832,0.03904,0.03904,0.02928,0.00976,0.01952
-0.01464,-0.0244,0.06344,0.07076,0.07808,-0.04636,0.06832,0.03904,0.03904,0.02928,0.01464,0.01952
-0.0244,-0.01464,0.05368,0.06588,0.07808,-0.05124,0.05856,0.03904,0.03904,0.0244,0.00976,0.01464
-0.03416,-0.00732,0.0488,0.06588,0.08296,-0.05856,0.05856,0.03904,0.03904,0.0244,0.00976,0.00976
-0.0244,-0.0122,0.0488,0.061,0.0732,-0.0488,0.06344,0.03904,0.03904,0.0244,0.01464,0.01464
-0.02928,-0.0122,0.05368,0.06832,0.08296,-0.05612,0.05856,0.03416,0.03904,0.0244,0.01464,0.00488
-0.0244,-0.01952,0.06344,0.07564,0.08784,-0.05612,0.0732,0.03416,0.03904,0.02928,0.00976,0.0244
-0.02928,-0.01708,0.06344,0.07808,0.09272,-0.061,0.0732,0.03416,0.03904,0.02928,0.00976,0.03416
-0.03416,-0.00976,0.05368,0.07076,0.08784,-0.061,0.06344,0.01952,0.02928,0.01464,-0.00488,0.03904
-0.02928,-0.00976,0.0488,0.06344,0.07808,-0.05368,0.05368,0.01952,0.02928,0.01464,-0.00488,0.03904
-0.0488,0.00732,0.03416,0.05856,0.08296,-0.06588,0.04392,0.01464,0.01464,0.00488,-0.01464,0.03416
-0.05368,0.01464,0.0244,0.05124,0.07808,-0.06588,0.03904,0.01464,0.01464,0.00488,-0.0244,0.0244
-0.05368,0.01464,0.0244,0.05124,0.07808,-0.06588,0.0488,0.01464,0.01952,0.00976,-0.01464,0.00976
-0.05368,0.01464,0.0244,0.05124,0.07808,-0.06588,0.04392,0.00488,0.01464,0.00976,-0.00976,0.00976
-0.05368,0.00976,0.03416,0.061,0.08784,-0.07076,0.05856,0.01464,0.01464,0,0.00488,-0.00976
-0.0488,0.00244,0.04392,0.06832,0.09272,-0.07076,0.05856,0.01464,0.01464,0,-0.00488,-0.01952
-0.0488,0.00244,0.04392,0.06832,0.09272,-0.07076,0.05856,0.01464,0.01464,0.00976,0,-0.00976
-0.04392,0,0.04392,0.06588,0.08784,-0.06588,0.05856,0.01464,0.01464,0.00976,0,-0.0244
-0.0488,0.00732,0.03416,0.05856,0.08296,-0.06588,0.05856,0.00976,0.01952,0.00488,-0.00976,-0.00976
-0.05368,0.00976,0.03416,0.061,0.08784,-0.07076,0.06344,0.00976,0.01464,0.00488,-0.01464,0
-0.06832,0.02196,0.0244,0.05856,0.09272,-0.08052,0.05368,0.00488,0.00976,0.00488,-0.01952,0.00976
-0.06344,0.02196,0.01952,0.05124,0.08296,-0.0732,0.05368,0.00488,0.00976,0.00488,-0.0244,0.01952
-0.06832,0.03172,0.00488,0.03904,0.0732,-0.07076,0.05368,0.00488,0.00976,-0.00976,-0.03416,0.00976
-0.07808,0.04148,-0.00488,0.03416,0.0732,-0.07564,0.0488,0,0.00488,-0.01464,-0.02928,0.00976
-0.07808,0.0366,0.00488,0.04392,0.08296,-0.08052,0.0488,-0.00976,-0.00488,-0.01464,-0.02928,-0.00488
-0.0732,0.02928,0.01464,0.05124,0.08784,-0.08052,0.0488,-0.00976,-0.00488,-0.01464,-0.0244,-0.00976
-0.06832,0.02196,0.0244,0.05856,0.09272,-0.08052,0.05856,-0.00488,0.00488,-0.00488,-0.00976,-0.01464
-0.06344,0.01708,0.02928,0.061,0.09272,-0.07808,0.05856,-0.00488,0.00488,0,-0.01464,-0.01464
-0.0732,0.03172,0.00976,0.04636,0.08296,-0.07808,0.05856,-0.01464,-0.00488,-0.00976,-0.01464,-0.0244
-0.06832,0.0244,0.01952,0.05368,0.08784,-0.07808,0.05856,-0.01952,-0.00488,-0.01464,-0.01464,-0.03416
-0.07808,0.02928,0.01952,0.05856,0.0976,-0.08784,0.0488,-0.01952,0,-0.01464,-0.0244,-0.0244
-0.08296,0.03172,0.01952,0.061,0.10248,-0.09272,0.05368,-0.0244,0,-0.01952,-0.01952,-0.01952
-0.08296,0.03172,0.01952,0.061,0.10248,-0.09272,0.05368,-0.01464,0,-0.01464,-0.02928,-0.00488
-0.08296,0.03416,0.01464,0.05612,0.0976,-0.09028,0.05368,-0.01464,-0.00488,-0.01464,-0.03416,0.00488
-0.0732,0.0366,0,0.0366,0.0732,-0.0732,0.05368,-0.01464,-0.00488,-0.01464,-0.02928,0.00488
-0.0732,0.03416,0.00488,0.04148,0.07808,-0.07564,0.05368,-0.01952,-0.00976,-0.01464,-0.02928,0
-0.0732,0.02928,0.01464,0.05124,0.08784,-0.08052,0.05368,-0.02928,-0.01952,-0.0244,-0.03904,-0.00976
-0.0732,0.02928,0.01464,0.05124,0.08784,-0.08052,0.05368,-0.02928,-0.01952,-0.0244,-0.03904,-0.00976
-0.06344,0.02196,0.01952,0.05124,0.08296,-0.0732,0.05368,-0.02928,-0.01952,-0.01952,-0.0244,-0.0244
-0.05856,0.02196,0.01464,0.04392,0.0732,-0.06588,0.05368,-0.02928,-0.01952,-0.01952,-0.01952,-0.02928
-0.06832,0.02684,0.01464,0.0488,0.08296,-0.07564,0.05368,-0.02928,-0.01952,-0.0244,-0.02928,-0.04392
-0.08296,0.03416,0.01464,0.05612,0.0976,-0.09028,0.05368,-0.02928,-0.01952,-0.0244,-0.02928,-0.0488
-0.10248,0.0488,0.00488,0.05612,0.10736,-0.10492,0.05368,-0.02928,-0.01952,-0.03416,-0.03416,-0.03904
-0.10248,0.0488,0.00488,0.05612,0.10736,-0.10492,0.0488,-0.03416,-0.01952,-0.03904,-0.03904,-0.03416
-0.08784,0.03416,0.01952,0.06344,0.10736,-0.0976,0.05856,-0.0244,-0.01952,-0.02928,-0.03904,-0.01464
-0.08296,0.03172,0.01952,0.061,0.10248,-0.09272,0.06344,-0.0244,-0.01952,-0.0244,-0.04392,-0.00488
-0.06832,0.02196,0.0244,0.05856,0.09272,-0.08052,0.05368,-0.02928,-0.0244,-0.0244,-0.04392,0.00488
-0.0732,0.0244,0.0244,0.061,0.0976,-0.0854,0.05368,-0.02928,-0.0244,-0.0244,-0.04392,0
-0.06832,0.0244,0.01952,0.05368,0.08784,-0.07808,0.0488,-0.03904,-0.02928,-0.02928,-0.03904,-0.01464
-0.06832,0.0244,0.01952,0.05368,0.08784,-0.07808,0.0488,-0.03904,-0.02928,-0.02928,-0.03904,-0.0244
-0.06832,0.0244,0.01952,0.05368,0.08784,-0.07808,0.05856,-0.03904,-0.02928,-0.02928,-0.02928,-0.03416
-0.06832,0.0244,0.01952,0.05368,0.08784,-0.07808,0.05856,-0.03904,-0.02928,-0.02928,-0.02928,-0.04392
-0.06832,0.01952,0.02928,0.06344,0.0976,-0.08296,0.05856,-0.02928,-0.01952,-0.02928,-0.02928,-0.0488
-0.06832,0.01952,0.02928,0.06344,0.0976,-0.08296,0.05856,-0.02928,-0.01952,-0.02928,-0.02928,-0.0488
-0.08296,0.03172,0.01952,0.061,0.10248,-0.09272,0.05856,-0.03904,-0.02928,-0.03904,-0.03904,-0.0488
-0.09272,0.0366,0.01952,0.06588,0.11224,-0.10248,0.05856,-0.03904,-0.02928,-0.03904,-0.03904,-0.0488
-0.0976,0.04392,0.00976,0.05856,0.10736,-0.10248,0.05856,-0.03904,-0.02928,-0.03904,-0.03904,-0.03416
-0.0976,0.04392,0.00976,0.05856,0.10736,-0.10248,0.05856,-0.03904,-0.02928,-0.03904,-0.03904,-0.0244
-0.09272,0.0366,0.01952,0.06588,0.11224,-0.10248,0.05856,-0.03904,-0.02928,-0.02928,-0.03904,-0.00976
-0.08296,0.03172,0.01952,0.061,0.10248,-0.09272,0.05856,-0.03904,-0.02928,-0.02928,-0.03904,-0.00976
-0.08296,0.03416,0.01464,0.05612,0.0976,-0.09028,0.0488,-0.0488,-0.02928,-0.02928,-0.03904,-0.01464
-0.09272,0.04392,0.00488,0.05124,0.0976,-0.09516,0.0488,-0.0488,-0.02928,-0.02928,-0.03904,-0.0244
-0.0976,0.04392,0.00976,0.05856,0.10736,-0.10248,0.0488,-0.0488,-0.03904,-0.03904,-0.03904,-0.04392
-0.0976,0.04392,0.00976,0.05856,0.10736,-0.10248,0.0488,-0.0488,-0.03904,-0.03904,-0.03904,-0.05368
-0.08784,0.0366,0.01464,0.05856,0.10248,-0.09516,0.05856,-0.0488,-0.03904,-0.03904,-0.02928,-0.05856
-0.08784,0.03172,0.0244,0.06832,0.11224,-0.10004,0.05856,-0.0488,-0.03904,-0.03904,-0.02928,-0.05856
-0.07808,0.02928,0.01952,0.05856,0.0976,-0.08784,0.05856,-0.0488,-0.02928,-0.03904,-0.02928,-0.0488
-0.07808,0.02928,0.01952,0.05856,0.0976,-0.08784,0.05856,-0.0488,-0.02928,-0.03904,-0.02928,-0.0488
-0.07808,0.02928,0.01952,0.05856,0.0976,-0.08784,0.05856,-0.03904,-0.02928,-0.03904,-0.03904,-0.04392
-0.07808,0.02928,0.01952,0.05856,0.0976,-0.08784,0.05856,-0.03904,-0.02928,-0.03904,-0.03904,-0.03416
-0.08784,0.02928,0.02928,0.0732,0.11712,-0.10248,0.05856,-0.03904,-0.02928,-0.02928,-0.0488,-0.01952
-0.08784,0.02928,0.02928,0.0732,0.11712,-0.10248,0.05856,-0.03904,-0.02928,-0.02928,-0.0488,-0.01952
-0.0976,0.03904,0.01952,0.06832,0.11712,-0.10736,0.05856,-0.03904,-0.02928,-0.03904,-0.0488,-0.02928
-0.0976,0.03904,0.01952,0.06832,0.11712,-0.10736,0.05856,-0.03904,-0.02928,-0.03904,-0.0488,-0.02928
-0.0976,0.04392,0.00976,0.05856,0.10736,-0.10248,0.05856,-0.0488,-0.03904,-0.03904,-0.03904,-0.03416
-0.0976,0.04392,0.00976,0.05856,0.10736,-0.10248,0.05856,-0.0488,-0.03904,-0.03904,-0.03904,-0.04392
-0.0976,0.04392,0.00976,0.05856,0.10736,-0.10248,0.05856,-0.0488,-0.03904,-0.03904,-0.02928,-0.05368
-0.0976,0.04392,0.00976,0.05856,0.10736,-0.10248,0.05856,-0.0488,-0.03904,-0.03904,-0.02928,-0.06344
-0.10248,0.05124,0,0.05124,0.10248,-0.10248,0.05856,-0.0488,-0.03904,-0.03904,-0.03904,-0.05856
-0.11224,0.05612,0,0.05612,0.11224,-0.11224,0.05856,-0.0488,-0.03904,-0.03904,-0.03904,-0.05856
-0.10736,0.0488,0.00976,0.06344,0.11712,-0.11224,0.0488,-0.0488,-0.03904,-0.0488,-0.0488,-0.0488
-0.10736,0.0488,0.00976,0.06344,0.11712,-0.11224,0.0488,-0.0488,-0.03904,-0.0488,-0.0488,-0.0488
-0.10248,0.04148,0.01952,0.07076,0.122,-0.11224,0.0488,-0.0488,-0.03904,-0.03904,-0.0488,-0.04392
-0.09272,0.0366,0.01952,0.06588,0.11224,-0.10248,0.0488,-0.0488,-0.03904,-0.03904,-0.0488,-0.03416
-0.09272,0.04148,0.00976,0.05612,0.10248,-0.0976,0.0488,-0.0488,-0.03904,-0.0488,-0.0488,-0.02928
-0.10248,0.04636,0.00976,0.061,0.11224,-0.10736,0.0488,-0.0488,-0.03904,-0.0488,-0.0488,-0.02928
-0.11712,0.05856,0,0.05856,0.11712,-0.11712,0.03904,-0.05856,-0.0488,-0.0488,-0.0488,-0.04392
-0.11712,0.05856,0,0.05856,0.11712,-0.11712,0.03904,-0.05856,-0.0488,-0.0488,-0.0488,-0.05368
-0.10736,0.05124,0.00488,0.05856,0.11224,-0.1098,0.03904,-0.05856,-0.0488,-0.05856,-0.03904,-0.06344
-0.10736,0.04636,0.01464,0.06832,0.122,-0.11468,0.03904,-0.05856,-0.0488,-0.05856,-0.03904,-0.0732
-0.11712,0.05368,0.00976,0.06832,0.12688,-0.122,0.03904,-0.0488,-0.03904,-0.0488,-0.03904,-0.06832
-0.11712,0.05368,0.00976,0.06832,0.12688,-0.122,0.03904,-0.0488,-0.03904,-0.0488,-0.03904,-0.06832
-0.12688,0.06344,0,0.06344,0.12688,-0.12688,0.03904,-0.03904,-0.02928,-0.03904,-0.02928,-0.06344
-0.12688,0.06344,0,0.06344,0.12688,-0.12688,0.03904,-0.03904,-0.02928,-0.03904,-0.02928,-0.05368
-0.11712,0.05368,0.00976,0.06832,0.12688,-0.122,0.03904,-0.02928,-0.01952,-0.02928,-0.02928,-0.03416
-0.11712,0.05368,0.00976,0.06832,0.12688,-0.122,0.03904,-0.02928,-0.01952,-0.02928,-0.02928,-0.0244
-0.11712,0.05856,0,0.05856,0.11712,-0.11712,0.04392,-0.00976,-0.00976,-0.0244,-0.01952,-0.01464
-0.11224,0.05612,0,0.05612,0.11224,-0.11224,0.04392,0.00976,0.00488,-0.00976,-0.01464,-0.00488
-0.10736,0.05368,0,0.05368,0.10736,-0.10736,0.03904,0.01464,0.00976,0.00488,-0.00488,-0.00488
-0.0976,0.04636,0.00488,0.05368,0.10248,-0.10004,0.0488,0.0244,0.01464,0.00976,0.00488,-0.01464
-0.08784,0.0366,0.01464,0.05856,0.10248,-0.09516,0.0488,0.0244,0.01952,0,0.00976,-0.02928
-0.0732,0.02928,0.01464,0.05124,0.08784,-0.08052,0.0488,0.0244,0.01952,0,0.00976,-0.03416
-0.05368,0.01952,0.01464,0.04148,0.06832,-0.061,0.04392,0.0244,0.01464,0.00488,0.01464,-0.0488
-0.03904,0.00976,0.01952,0.03904,0.05856,-0.0488,0.03416,0.0244,0.00976,0.00488,0.01464,-0.03416
-0.03904,0.01708,0.00488,0.0244,0.04392,-0.04148,0.0244,0.0244,0.00976,0.00488,0.01952,-0.0244
-0.0244,0.00976,0.00488,0.01708,0.02928,-0.02684,0.00488,0.01464,0.00976,0,0.01952,-0.01952
-0.01464,0.00488,0.00488,0.0122,0.01952,-0.01708,-0.01952,-0.00488,-0.00976,-0.00976,0,-0.00488
-0.00976,0.00244,0.00488,0.00976,0.01464,-0.0122,-0.0244,-0.01952,-0.02928,-0.01952,-0.00976,0
0.00976,-0.0122,0.01464,0.00976,0.00488,0.00244,-0.01952,-0.0244,-0.03904,-0.02928,-0.01464,0
0.03416,-0.02684,0.01952,0.00244,-0.01464,0.0244,-0.01952,-0.03416,-0.05368,-0.03904,-0.0244,0.00488
0.03904,-0.02684,0.01464,-0.00488,-0.0244,0.03172,-0.01952,-0.05368,-0.06344,-0.0488,-0.02928,0
0.02928,-0.02196,0.01464,0,-0.01464,0.02196,-0.01464,-0.06344,-0.06832,-0.05856,-0.03416,-0.01952
-0.00488,0,0.00488,0.00732,0.00976,-0.00732,-0.00976,-0.06832,-0.07808,-0.05856,-0.03416,-0.03416
-0.01952,0.00732,0.00488,0.01464,0.0244,-0.02196,-0.00976,-0.06832,-0.07808,-0.05856,-0.03904,-0.0488
