i,aVR,ii,aVF,iii,aVL,V1,V2,V3,V4,V5,V6
-0.00488,-0.01708,0.03904,0.04148,0.04392,-0.0244,0.05368,0.11712,0.0732,0.06344,0.00488,-0.00976
-0.00488,-0.01464,0.03416,0.0366,0.03904,-0.02196,0.05368,0.11712,0.0732,0.06344,0.00976,-0.00976
0.00488,-0.02196,0.03904,0.0366,0.03416,-0.01464,0.06344,0.122,0.08784,0.06832,0.01952,0
-0.00488,-0.01952,0.04392,0.04636,0.0488,-0.02684,0.05368,0.12688,0.09272,0.07808,0.02928,0.00488
0.00488,-0.0244,0.04392,0.04148,0.03904,-0.01708,0.05368,0.12688,0.0976,0.08784,0.03904,0.00976
0.00488,-0.02684,0.0488,0.04636,0.04392,-0.01952,0.05368,0.13664,0.10736,0.09272,0.04392,0.0244
0.00976,-0.03172,0.05368,0.0488,0.04392,-0.01708,0.05368,0.13664,0.11224,0.10248,0.05856,0.01464
0.01464,-0.03416,0.05368,0.04636,0.03904,-0.0122,0.05368,0.13664,0.11712,0.10248,0.05856,0.00976
0.00488,-0.0244,0.04392,0.04148,0.03904,-0.01708,0.04392,0.14152,0.13664,0.12688,0.06832,0.01952
0,-0.02196,0.04392,0.04392,0.04392,-0.02196,0.03416,0.1464,0.13664,0.13664,0.07808,0.03416
0.01464,-0.03172,0.0488,0.04148,0.03416,-0.00976,0.03904,0.15616,0.14152,0.1464,0.08784,0.03416
0.01952,-0.0366,0.05368,0.04392,0.03416,-0.00732,0.03904,0.15616,0.15128,0.15128,0.10248,0.03904
0.02928,-0.04148,0.05368,0.03904,0.0244,0.00244,0.0244,0.15616,0.16104,0.16592,0.10736,0.05368
0.03904,-0.05124,0.06344,0.04392,0.0244,0.00732,0.0244,0.1708,0.1708,0.17568,0.11712,0.05856
0.0488,-0.061,0.0732,0.0488,0.0244,0.0122,0.03416,0.1708,0.18544,0.1952,0.13664,0.06344
0.05368,-0.06344,0.0732,0.04636,0.01952,0.01708,0.02928,0.18544,0.1952,0.2196,0.16104,0.0732
0.05368,-0.06832,0.08296,0.05612,0.02928,0.0122,0.0244,0.20008,0.2196,0.22936,0.16104,0.07808
0.06832,-0.07808,0.08784,0.05368,0.01952,0.0244,0.0244,0.21472,0.23424,0.25376,0.18544,0.10248
0.06832,-0.08296,0.0976,0.06344,0.02928,0.01952,0.0244,0.21472,0.24888,0.27328,0.20008,0.11224
0.08784,-0.09516,0.10248,0.05856,0.01464,0.0366,0.01464,0.2196,0.25864,0.2928,0.20984,0.11712
0.10736,-0.11224,0.11712,0.06344,0.00976,0.0488,0.00488,0.22936,0.27816,0.30744,0.23424,0.122
0.11712,-0.11712,0.11712,0.05856,0,0.05856,0.00488,0.23912,0.29768,0.32696,0.25376,0.13176
0.12688,-0.12932,0.13176,0.06832,0.00488,0.061,0,0.24888,0.32696,0.37576,0.28792,0.16104
0.14152,-0.1464,0.15128,0.08052,0.00976,0.06588,-0.00488,0.26352,0.34648,0.3904,0.30744,0.18056
0.15128,-0.1464,0.14152,0.06588,-0.00976,0.08052,-0.00488,0.27816,0.38064,0.4148,0.32696,0.1952
0.15616,-0.15128,0.1464,0.06832,-0.00976,0.08296,-0.00976,0.28792,0.39528,0.43432,0.35136,0.20008
0.19032,-0.17324,0.15616,0.061,-0.03416,0.11224,-0.02928,0.30256,0.40504,0.47336,0.35624,0.20496
0.20008,-0.18056,0.16104,0.061,-0.03904,0.11956,-0.02928,0.30744,0.42456,0.49288,0.38064,0.21472
0.2196,-0.1952,0.1708,0.061,-0.0488,0.1342,-0.0244,0.32696,0.45384,0.5124,0.39528,0.23424
0.23912,-0.20984,0.18056,0.061,-0.05856,0.14884,-0.0244,0.33672,0.47336,0.5368,0.41968,0.244
0.25376,-0.2196,0.18544,0.05856,-0.06832,0.16104,-0.04392,0.33184,0.48312,0.54656,0.41968,0.23912
0.26352,-0.22448,0.18544,0.05368,-0.07808,0.1708,-0.05368,0.32208,0.488,0.5612,0.43432,0.25376
0.2684,-0.22448,0.18056,0.04636,-0.08784,0.17812,-0.06344,0.33672,0.49288,0.56608,0.44408,0.25864
0.28304,-0.23424,0.18544,0.04392,-0.0976,0.19032,-0.06344,0.33184,0.49288,0.57096,0.44408,0.25864
0.27816,-0.2318,0.18544,0.04636,-0.09272,0.18544,-0.05856,0.32696,0.49288,0.57584,0.44896,0.2684
0.27816,-0.2318,0.18544,0.04636,-0.09272,0.18544,-0.06832,0.3172,0.49288,0.56608,0.44896,0.27328
0.27816,-0.22692,0.17568,0.0366,-0.10248,0.19032,-0.0732,0.30256,0.46848,0.54168,0.4392,0.26352
0.27816,-0.22692,0.17568,0.0366,-0.10248,0.19032,-0.0732,0.28304,0.44408,0.5124,0.41968,0.25864
0.25864,-0.21716,0.17568,0.04636,-0.08296,0.1708,-0.0732,0.25864,0.41968,0.48312,0.39528,0.23912
0.23912,-0.19764,0.15616,0.0366,-0.08296,0.16104,-0.06832,0.23912,0.3904,0.44896,0.37088,0.23424
0.22936,-0.19032,0.15128,0.0366,-0.07808,0.15372,-0.06344,0.20496,0.35136,0.40016,0.33672,0.21472
0.20496,-0.16836,0.13176,0.02928,-0.0732,0.13908,-0.05368,0.18056,0.30256,0.35136,0.29768,0.19032
0.18544,-0.15616,0.12688,0.03416,-0.05856,0.122,-0.0488,0.16104,0.2684,0.3172,0.26352,0.16104
0.16592,-0.1464,0.12688,0.04392,-0.03904,0.10248,-0.04392,0.14152,0.22936,0.27328,0.22936,0.13664
0.14152,-0.12444,0.10736,0.0366,-0.03416,0.08784,-0.03904,0.11712,0.19032,0.22448,0.20008,0.11712
0.11224,-0.10248,0.09272,0.0366,-0.01952,0.06588,-0.04392,0.0976,0.15616,0.18544,0.16592,0.09272
0.08784,-0.08296,0.07808,0.03416,-0.00976,0.0488,-0.03416,0.08784,0.13664,0.15616,0.14152,0.08296
0.04392,-0.05612,0.06832,0.04636,0.0244,0.00976,-0.0244,0.08296,0.122,0.14152,0.122,0.0732
0.03416,-0.04636,0.05856,0.04148,0.0244,0.00488,-0.00976,0.0732,0.0976,0.10248,0.08784,0.0488
0.01464,-0.03172,0.0488,0.04148,0.03416,-0.00976,-0.00976,0.05368,0.0732,0.07808,0.0732,0.03416
0.00488,-0.02196,0.03904,0.0366,0.03416,-0.01464,-0.00488,0.03904,0.06344,0.06344,0.05368,0.00976
0.00488,-0.01952,0.03416,0.03172,0.02928,-0.0122,0,0.03904,0.0488,0.04392,0.04392,0
-0.00488,-0.00488,0.01464,0.01708,0.01952,-0.0122,-0.00488,0.02928,0.03904,0.04392,0.03416,0.00488
-0.01464,0.00244,0.00976,0.01708,0.0244,-0.01952,0,0.0244,0.01952,0.03416,0.01952,-0.00488
-0.01464,0.00244,0.00976,0.01708,0.0244,-0.01952,0,0.00976,0.01464,0.00488,0.01464,-0.01464
-0.01952,0.00732,0.00488,0.01464,0.0244,-0.02196,0,0,0.00488,0,0.00488,-0.0244
-0.02928,0.01464,0,0.01464,0.02928,-0.02928,0.00488,0.00488,-0.00488,0,-0.00488,-0.0244
-0.02928,0.01464,0,0.01464,0.02928,-0.02928,0.00488,0.00488,-0.00488,-0.00976,-0.01464,-0.0244
-0.02928,0.01952,-0.00976,0.00488,0.01952,-0.0244,0,0.00488,-0.00976,-0.00488,-0.00488,-0.02928
-0.02928,0.01952,-0.00976,0.00488,0.01952,-0.0244,0.00488,0.00488,-0.00976,-0.00488,-0.00488,-0.02928
-0.03416,0.01708,0,0.01708,0.03416,-0.03416,0.00976,0.00488,0,-0.01464,-0.00488,-0.0244
-0.03416,0.01464,0.00488,0.02196,0.03904,-0.0366,0.00976,0,0,-0.00976,-0.00488,-0.0244
-0.0244,0.01464,-0.00488,0.00732,0.01952,-0.02196,0.00976,0.00488,-0.01464,-0.01952,-0.00976,-0.02928
-0.01464,0.00976,-0.00488,0.00244,0.00976,-0.0122,0.00976,0.01464,-0.01464,-0.01464,-0.00976,-0.02928
-0.03416,0.01464,0.00488,0.02196,0.03904,-0.0366,0.00976,0.00488,0,-0.00488,-0.00976,-0.02928
-0.03416,0.01464,0.00488,0.02196,0.03904,-0.0366,0.00488,0.00488,0,-0.00488,-0.01464,-0.02928
-0.01464,0.00976,-0.00488,0.00244,0.00976,-0.0122,-0.00488,0.00488,-0.00976,-0.00976,-0.00976,-0.02928
-0.0244,0.01464,-0.00488,0.00732,0.01952,-0.02196,-0.00976,0,-0.00976,-0.01464,-0.00488,-0.03416
-0.04392,0.02684,-0.00976,0.0122,0.03416,-0.03904,0.00488,0.01952,0.00976,0,-0.00488,-0.0244
-0.03904,0.01952,0,0.01952,0.03904,-0.03904,0.01952,0.0244,0.00976,0,-0.00488,-0.01464
-0.0488,0.02196,0.00488,0.02928,0.05368,-0.05124,0.00976,0.01464,0.00488,0,0.00488,-0.01464
-0.0488,0.02684,-0.00488,0.01952,0.04392,-0.04636,0.00976,0.01464,0.00976,0.00488,0.00976,-0.00488
-0.03416,0.01464,0.00488,0.02196,0.03904,-0.0366,0.00976,0.01952,0.00976,0.00488,0.01464,-0.00488
-0.02928,0.01464,0,0.01464,0.02928,-0.02928,0.00976,0.0244,0.01464,0.00976,0.01464,-0.00488
-0.02928,0.01464,0,0.01464,0.02928,-0.02928,0.01464,0.0244,0.00488,0.00976,0.00488,-0.01464
-0.02928,0.01952,-0.00976,0.00488,0.01952,-0.0244,0.01464,0.0244,0.00488,0.00976,0.00488,-0.01464
-0.02928,0.01708,-0.00488,0.00976,0.0244,-0.02684,0.0244,0.02928,0.00976,0.00976,0.01464,-0.00488
-0.0244,0.00976,0.00488,0.01708,0.02928,-0.02684,0.01464,0.02928,0.00488,0.00976,0.01464,-0.00976
-0.0244,0.00488,0.01464,0.02684,0.03904,-0.03172,0.00976,0.0244,0.00488,0.00976,0.00488,-0.00976
-0.02928,0.0122,0.00488,0.01952,0.03416,-0.03172,0.00976,0.02928,0.00976,0.01464,0.00976,-0.00488
-0.0244,0.01464,-0.00488,0.00732,0.01952,-0.02196,0.00976,0.01952,0.01464,0.01464,0.00976,-0.00976
-0.0244,0.0122,0,0.0122,0.0244,-0.0244,0.01464,0.01952,0.01464,0.00976,0.00976,-0.00488
-0.0244,0.00488,0.01464,0.02684,0.03904,-0.03172,0.00488,0.01952,0.01464,0.00976,0.00976,-0.00976
-0.02928,0.00976,0.00976,0.0244,0.03904,-0.03416,0.00976,0.01952,0.01464,0.00976,0.00976,-0.00976
-0.03416,0.01464,0.00488,0.02196,0.03904,-0.0366,0.01952,0.01952,0.01464,0.00976,0.00976,-0.01464
-0.03904,0.02196,-0.00488,0.01464,0.03416,-0.0366,0.0244,0.01952,0.01464,0.00976,0.00488,-0.01464
-0.0244,0.00732,0.00976,0.02196,0.03416,-0.02928,0.01952,0.01952,0.01464,0.00976,0.00488,-0.00976
-0.00976,0,0.00976,0.01464,0.01952,-0.01464,0.01952,0.01464,0.01464,0.00488,0,-0.00976
-0.01464,0,0.01464,0.02196,0.02928,-0.02196,0.0244,0.01464,0.00976,0.00488,0,-0.00976
-0.01952,0,0.01952,0.02928,0.03904,-0.02928,0,0.00976,0.00976,0,0,-0.00488
-0.03416,0.0122,0.00976,0.02684,0.04392,-0.03904,0.01464,0.00976,0,0,0,-0.00488
-0.03416,0.00976,0.01464,0.03172,0.0488,-0.04148,0.00976,0.00488,0,-0.00488,-0.00976,-0.00488
-0.02928,0.01464,0,0.01464,0.02928,-0.02928,0.00488,0.00488,0.00488,-0.00488,-0.00976,-0.00488
-0.02928,0.01464,0,0.01464,0.02928,-0.02928,0.00976,0.00488,0.00488,-0.00488,-0.00976,0.00488
-0.02928,0.0122,0.00488,0.01952,0.03416,-0.03172,0,-0.00976,-0.00488,-0.01952,-0.00976,-0.00976
-0.0244,0.00732,0.00976,0.02196,0.03416,-0.02928,0,-0.00488,-0.00488,-0.01952,-0.01464,-0.01952
-0.01952,0.00976,0,0.00976,0.01952,-0.01952,0.00976,0,-0.00488,-0.00976,-0.01464,-0.01464
-0.01952,0.00488,0.00976,0.01952,0.02928,-0.0244,0.01464,0,-0.00488,-0.01464,-0.01464,-0.01464
-0.03416,0.01708,0,0.01708,0.03416,-0.03416,0,0,-0.00488,-0.01464,-0.01952,-0.00976
-0.03416,0.02928,-0.0244,-0.00732,0.00976,-0.02196,0,-0.00488,0,-0.01464,-0.01952,-0.01464
-0.03904,0.0244,-0.00976,0.00976,0.02928,-0.03416,0.00976,-0.00488,-0.00488,-0.0244,-0.01952,-0.02928
-0.02928,0.0122,0.00488,0.01952,0.03416,-0.03172,0.00976,-0.00488,-0.00976,-0.03416,-0.0244,-0.0244
-0.04392,0.01952,0.00488,0.02684,0.0488,-0.04636,0.01952,-0.00976,-0.00976,-0.03416,-0.0244,-0.01464
-0.04392,0.02684,-0.00976,0.0122,0.03416,-0.03904,0.01952,-0.00488,-0.00488,-0.02928,-0.0244,-0.01464
-0.03416,0.01952,-0.00488,0.0122,0.02928,-0.03172,0.00976,-0.00976,-0.01464,-0.02928,-0.0244,-0.02928
-0.03416,0.0244,-0.01464,0.00244,0.01952,-0.02684,0.00976,-0.00976,-0.01952,-0.03416,-0.0244,-0.03416
-0.01952,0.01464,-0.00976,0,0.00976,-0.01464,0.00976,-0.00976,-0.01952,-0.03416,-0.01952,-0.02928
-0.01952,0.0122,-0.00488,0.00488,0.01464,-0.01708,0.00976,-0.00976,-0.02928,-0.03904,-0.01952,-0.02928
-0.03904,0.0244,-0.00976,0.00976,0.02928,-0.03416,0.01464,-0.00488,-0.01952,-0.03904,-0.0244,-0.02928
-0.0488,0.02684,-0.00488,0.01952,0.04392,-0.04636,0.01464,-0.00976,-0.0244,-0.03416,-0.02928,-0.03416
-0.06344,0.04148,-0.01952,0.0122,0.04392,-0.05368,0.00488,-0.01952,-0.0244,-0.04392,-0.02928,-0.03416
-0.05856,0.0366,-0.01464,0.01464,0.04392,-0.05124,0,-0.0244,-0.0244,-0.03904,-0.03416,-0.03416
-0.03416,0.01708,0,0.01708,0.03416,-0.03416,0.01464,-0.00976,-0.0244,-0.04392,-0.03416,-0.03904
-0.00976,0.0122,-0.01464,-0.00976,-0.00488,-0.00244,0.01464,-0.00976,-0.0244,-0.04392,-0.02928,-0.03904
-0.02928,0.01708,-0.00488,0.00976,0.0244,-0.02684,0.0244,-0.00976,-0.0244,-0.03416,-0.01952,-0.01952
-0.04392,0.0244,-0.00488,0.01708,0.03904,-0.04148,0.0244,-0.00488,-0.01952,-0.02928,-0.01952,-0.01952
-0.04392,0.0244,-0.00488,0.01708,0.03904,-0.04148,0.01464,-0.00976,-0.01464,-0.03416,-0.02928,-0.01952
-0.03904,0.01952,0,0.01952,0.03904,-0.03904,0.01464,-0.00976,-0.01464,-0.03416,-0.02928,-0.01464
-0.03416,0.01708,0,0.01708,0.03416,-0.03416,0.01464,-0.01952,-0.0244,-0.03904,-0.02928,-0.01952
-0.03904,0.02196,-0.00488,0.01464,0.03416,-0.0366,0.01464,-0.01952,-0.03416,-0.03416,-0.02928,-0.03904
-0.03416,0.0244,-0.01464,0.00244,0.01952,-0.02684,0.00976,-0.01464,-0.0244,-0.03904,-0.0244,-0.03416
-0.0244,0.02196,-0.01952,-0.00732,0.00488,-0.01464,0.00976,-0.01464,-0.02928,-0.0488,-0.0244,-0.03416
-0.0244,0.01464,-0.00488,0.00732,0.01952,-0.02196,0.01464,-0.01464,-0.03416,-0.04392,-0.03416,-0.0244
-0.01952,0.0122,-0.00488,0.00488,0.01464,-0.01708,0.01464,-0.00976,-0.02928,-0.0488,-0.03416,-0.0244
-0.02928,0.0244,-0.01952,-0.00488,0.00976,-0.01952,0,-0.00976,-0.02928,-0.04392,-0.03416,-0.01464
-0.03904,0.03172,-0.0244,-0.00488,0.01464,-0.02684,0,-0.01464,-0.02928,-0.04392,-0.03416,-0.0244
-0.03904,0.02684,-0.01464,0.00488,0.0244,-0.03172,0.01464,-0.0244,-0.02928,-0.03904,-0.03416,-0.02928
-0.04392,0.02928,-0.01464,0.00732,0.02928,-0.0366,0.02928,-0.0244,-0.02928,-0.03904,-0.03416,-0.0244
-0.04392,0.02928,-0.01464,0.00732,0.02928,-0.0366,0.02928,-0.01464,-0.02928,-0.04392,-0.0244,-0.03416
-0.0488,0.0244,0,0.0244,0.0488,-0.0488,0.01952,-0.00976,-0.00976,-0.01952,-0.01952,-0.01952
-0.0488,0.02928,-0.00976,0.01464,0.03904,-0.04392,0.01952,-0.00976,-0.01952,-0.02928,-0.01952,-0.01952
-0.0488,0.03416,-0.01952,0.00488,0.02928,-0.03904,0.01952,-0.00976,-0.01952,-0.02928,-0.01952,-0.01952
-0.03904,0.02928,-0.01952,0,0.01952,-0.02928,0.00976,-0.01952,-0.02928,-0.03904,-0.02928,-0.02928
-0.03904,0.02928,-0.01952,0,0.01952,-0.02928,0.00976,-0.01952,-0.02928,-0.03904,-0.02928,-0.02928
-0.03904,0.0244,-0.00976,0.00976,0.02928,-0.03416,0,-0.01952,-0.01952,-0.0488,-0.02928,-0.02928
-0.03904,0.0244,-0.00976,0.00976,0.02928,-0.03416,0,-0.01952,-0.01952,-0.0488,-0.02928,-0.02928
-0.03904,0.02928,-0.01952,0,0.01952,-0.02928,0.00976,-0.01952,-0.02928,-0.0488,-0.03904,-0.03904
-0.03904,0.02928,-0.01952,0,0.01952,-0.02928,0.00976,-0.01952,-0.02928,-0.0488,-0.03904,-0.03904
-0.0488,0.02928,-0.00976,0.01464,0.03904,-0.04392,0.00976,-0.00976,-0.02928,-0.0488,-0.03904,-0.02928
-0.0488,0.02928,-0.00976,0.01464,0.03904,-0.04392,0.00976,-0.00976,-0.02928,-0.0488,-0.03904,-0.02928
-0.03904,0.0244,-0.00976,0.00976,0.02928,-0.03416,0.00976,-0.00976,-0.01952,-0.03904,-0.02928,-0.02928
-0.03904,0.0244,-0.00976,0.00976,0.02928,-0.03416,0.00976,-0.00976,-0.01952,-0.03904,-0.02928,-0.02928
-0.02928,0.0244,-0.01952,-0.00488,0.00976,-0.01952,0.00976,-0.00976,-0.02928,-0.03904,-0.02928,-0.02928
-0.02928,0.0244,-0.01952,-0.00488,0.00976,-0.01952,0.00976,-0.00976,-0.02928,-0.03904,-0.02928,-0.02928
-0.03904,0.02928,-0.01952,0,0.01952,-0.02928,0,-0.01952,-0.02928,-0.0488,-0.02928,-0.02928
-0.03904,0.02928,-0.01952,0,0.01952,-0.02928,0,-0.01952,-0.02928,-0.0488,-0.02928,-0.02928
-0.02928,0.01952,-0.00976,0.00488,0.01952,-0.0244,0,-0.01952,-0.03904,-0.03904,-0.02928,-0.02928
-0.02928,0.01464,0,0.01464,0.02928,-0.02928,0,-0.01952,-0.03904,-0.03904,-0.02928,-0.02928
-0.03904,0.0244,-0.00976,0.00976,0.02928,-0.03416,0.00976,-0.00976,-0.02928,-0.03904,-0.02928,-0.01952
-0.03904,0.0244,-0.00976,0.00976,0.02928,-0.03416,0.00976,-0.00976,-0.02928,-0.03904,-0.02928,-0.01952
-0.03904,0.0244,-0.00976,0.00976,0.02928,-0.03416,0,-0.00976,-0.02928,-0.03904,-0.02928,-0.02928
-0.03904,0.0244,-0.00976,0.00976,0.02928,-0.03416,0,-0.00976,-0.02928,-0.03904,-0.02928,-0.02928
-0.03904,0.0244,-0.00976,0.00976,0.02928,-0.03416,0,-0.00976,-0.02928,-0.0488,-0.02928,-0.02928
-0.03904,0.0244,-0.00976,0.00976,0.02928,-0.03416,0,-0.00976,-0.02928,-0.0488,-0.02928,-0.02928
-0.03904,0.02928,-0.01952,0,0.01952,-0.02928,0.00976,-0.00976,-0.02928,-0.0488,-0.03904,-0.02928
-0.03904,0.02928,-0.01952,0,0.01952,-0.02928,0.00976,-0.00976,-0.02928,-0.0488,-0.03904,-0.02928
-0.02928,0.0244,-0.01952,-0.00488,0.00976,-0.01952,0.00976,-0.00976,-0.01952,-0.0488,-0.02928,-0.02928
-0.02928,0.0244,-0.01952,-0.00488,0.00976,-0.01952,0.00976,-0.00976,-0.01952,-0.0488,-0.02928,-0.02928
-0.03904,0.0244,-0.00976,0.00976,0.02928,-0.03416,0.00976,-0.00976,-0.02928,-0.0488,-0.02928,-0.02928
-0.03904,0.0244,-0.00976,0.00976,0.02928,-0.03416,0.00976,-0.00976,-0.02928,-0.0488,-0.02928,-0.02928
-0.03904,0.02928,-0.01952,0,0.01952,-0.02928,0.00976,-0.00976,-0.02928,-0.0488,-0.03904,-0.03904
-0.03904,0.02928,-0.01952,0,0.01952,-0.02928,0.00976,-0.00976,-0.02928,-0.0488,-0.03904,-0.03904
-0.03904,0.0244,-0.00976,0.00976,0.02928,-0.03416,0.01952,-0.00976,-0.01952,-0.03904,-0.02928,-0.02928
-0.03904,0.0244,-0.00976,0.00976,0.02928,-0.03416,0.01952,-0.00976,-0.01952,-0.03904,-0.02928,-0.02928
-0.0488,0.03416,-0.01952,0.00488,0.02928,-0.03904,0.00976,-0.00976,-0.02928,-0.0488,-0.02928,-0.02928
-0.05856,0.03904,-0.01952,0.00976,0.03904,-0.0488,0.00976,-0.00976,-0.02928,-0.0488,-0.02928,-0.02928
-0.0488,0.03904,-0.02928,-0.00488,0.01952,-0.03416,0.00976,-0.00976,-0.03904,-0.03904,-0.02928,-0.02928
-0.0488,0.03904,-0.02928,-0.00488,0.01952,-0.03416,0.00976,-0.00976,-0.03904,-0.03904,-0.02928,-0.02928
-0.03904,0.02928,-0.01952,0,0.01952,-0.02928,0.00976,-0.00976,-0.02928,-0.03904,-0.02928,-0.02928
-0.03904,0.0244,-0.00976,0.00976,0.02928,-0.03416,0.00976,-0.00976,-0.02928,-0.03904,-0.02928,-0.02928
-0.03904,0.02928,-0.01952,0,0.01952,-0.02928,0.01952,0,-0.02928,-0.03904,-0.02928,-0.02928
-0.03904,0.03416,-0.02928,-0.00976,0.00976,-0.0244,0.01952,0,-0.02928,-0.03904,-0.02928,-0.02928
-0.0488,0.03416,-0.01952,0.00488,0.02928,-0.03904,0.01952,0,-0.02928,-0.0488,-0.03904,-0.02928
-0.0488,0.03416,-0.01952,0.00488,0.02928,-0.03904,0.01952,0,-0.02928,-0.0488,-0.03904,-0.02928
-0.0488,0.03416,-0.01952,0.00488,0.02928,-0.03904,0.01952,0,-0.02928,-0.03904,-0.02928,-0.02928
-0.0488,0.03416,-0.01952,0.00488,0.02928,-0.03904,0.01952,0,-0.02928,-0.03904,-0.02928,-0.02928
-0.03904,0.02928,-0.01952,0,0.01952,-0.02928,0.01952,0,-0.01952,-0.03904,-0.02928,-0.02928
-0.03904,0.02928,-0.01952,0,0.01952,-0.02928,0.01952,0,-0.01952,-0.03904,-0.02928,-0.02928
-0.0488,0.03904,-0.02928,-0.00488,0.01952,-0.03416,0.01952,0,-0.01952,-0.03904,-0.02928,-0.02928
-0.0488,0.03904,-0.02928,-0.00488,0.01952,-0.03416,0.01952,0,-0.01952,-0.03904,-0.02928,-0.02928
-0.0488,0.03904,-0.02928,-0.00488,0.01952,-0.03416,0.01952,0,-0.02928,-0.03904,-0.03904,-0.02928
-0.0488,0.03904,-0.02928,-0.00488,0.01952,-0.03416,0.01952,0,-0.02928,-0.03904,-0.03904,-0.02928
-0.0488,0.03904,-0.02928,-0.00488,0.01952,-0.03416,0.00976,-0.00976,-0.02928,-0.03904,-0.02928,-0.02928
-0.0488,0.03904,-0.02928,-0.00488,0.01952,-0.03416,0.00976,-0.00976,-0.02928,-0.03904,-0.02928,-0.02928
-0.03904,0.02928,-0.01952,0,0.01952,-0.02928,0.01952,0,-0.02928,-0.0488,-0.03904,-0.03904
-0.03904,0.02928,-0.01952,0,0.01952,-0.02928,0.01952,0,-0.02928,-0.0488,-0.03904,-0.03904
-0.01952,0.0244,-0.02928,-0.01952,-0.00976,-0.00488,0.00976,0,-0.02928,-0.0488,-0.03904,-0.03904
-0.00976,0.01952,-0.02928,-0.0244,-0.01952,0.00488,0,0,-0.02928,-0.0488,-0.03904,-0.03904
-0.02928,0.0244,-0.01952,-0.00488,0.00976,-0.01952,0.00976,0,-0.01952,-0.03904,-0.02928,-0.02928
-0.0488,0.03416,-0.01952,0.00488,0.02928,-0.03904,0.00976,0,-0.01952,-0.03904,-0.02928,-0.02928
-0.05856,0.03904,-0.01952,0.00976,0.03904,-0.0488,0.01952,0.00976,-0.00976,-0.03904,-0.02928,-0.01952
-0.05856,0.03904,-0.01952,0.00976,0.03904,-0.0488,0.01952,0.00976,-0.00976,-0.03904,-0.02928,-0.01952
-0.0488,0.03904,-0.02928,-0.00488,0.01952,-0.03416,0.02928,0,-0.01952,-0.0488,-0.02928,-0.02928
-0.0488,0.04392,-0.03904,-0.01464,0.00976,-0.02928,0.02928,0,-0.01952,-0.0488,-0.02928,-0.02928
-0.0488,0.03904,-0.02928,-0.00488,0.01952,-0.03416,0.03904,0,-0.02928,-0.0488,-0.02928,-0.02928
-0.0488,0.03904,-0.02928,-0.00488,0.01952,-0.03416,0.03904,0,-0.02928,-0.0488,-0.02928,-0.02928
-0.0488,0.03904,-0.02928,-0.00488,0.01952,-0.03416,0.02928,0,-0.02928,-0.03904,-0.02928,-0.02928
-0.0488,0.03904,-0.02928,-0.00488,0.01952,-0.03416,0.02928,0,-0.02928,-0.03904,-0.02928,-0.02928
-0.03904,0.02928,-0.01952,0,0.01952,-0.02928,0.01952,0,-0.01952,-0.03904,-0.02928,-0.02928
-0.03904,0.02928,-0.01952,0,0.01952,-0.02928,0.00976,0,-0.01952,-0.03904,-0.02928,-0.02928
-0.03904,0.0244,-0.00976,0.00976,0.02928,-0.03416,0.01952,0,-0.01952,-0.0488,-0.03904,-0.02928
-0.03904,0.0244,-0.00976,0.00976,0.02928,-0.03416,0.01952,0,-0.01952,-0.0488,-0.03904,-0.02928
-0.03904,0.02928,-0.01952,0,0.01952,-0.02928,0.00976,0,-0.02928,-0.0488,-0.03904,-0.03904
-0.03904,0.02928,-0.01952,0,0.01952,-0.02928,0.00976,0,-0.02928,-0.0488,-0.03904,-0.03904
-0.03904,0.02928,-0.01952,0,0.01952,-0.02928,0.00976,0,-0.02928,-0.0488,-0.02928,-0.03904
-0.03904,0.02928,-0.01952,0,0.01952,-0.02928,0.00976,0,-0.02928,-0.0488,-0.02928,-0.03904
-0.03904,0.02928,-0.01952,0,0.01952,-0.02928,0.01952,0,-0.01952,-0.0488,-0.02928,-0.02928
-0.03904,0.02928,-0.01952,0,0.01952,-0.02928,0.01952,0,-0.01952,-0.0488,-0.02928,-0.02928
-0.03904,0.02928,-0.01952,0,0.01952,-0.02928,0.00976,0,-0.02928,-0.0488,-0.03904,-0.03904
-0.03904,0.02928,-0.01952,0,0.01952,-0.02928,0.00976,0,-0.02928,-0.0488,-0.03904,-0.03904
-0.0488,0.03904,-0.02928,-0.00488,0.01952,-0.03416,0.01952,0,-0.01952,-0.03904,-0.02928,-0.02928
-0.0488,0.03904,-0.02928,-0.00488,0.01952,-0.03416,0.01952,0,-0.01952,-0.03904,-0.02928,-0.02928
-0.0488,0.03416,-0.01952,0.00488,0.02928,-0.03904,0.01952,0,-0.01952,-0.03904,-0.02928,-0.02928
-0.0488,0.03416,-0.01952,0.00488,0.02928,-0.03904,0.01952,0,-0.01952,-0.03904,-0.02928,-0.02928
-0.05856,0.03904,-0.01952,0.00976,0.03904,-0.0488,0.01952,0.00976,-0.01952,-0.03904,-0.02928,-0.02928
-0.05856,0.03904,-0.01952,0.00976,0.03904,-0.0488,0.01952,0.00976,-0.01952,-0.03904,-0.02928,-0.02928
-0.0488,0.02928,-0.00976,0.01464,0.03904,-0.04392,0.01952,0.00976,-0.01952,-0.03904,-0.02928,-0.03904
-0.0488,0.02928,-0.00976,0.01464,0.03904,-0.04392,0.01952,0.00976,-0.01952,-0.03904,-0.02928,-0.03904
-0.03904,0.0244,-0.00976,0.00976,0.02928,-0.03416,0.01952,0,-0.01952,-0.0488,-0.03904,-0.03904
-0.03904,0.0244,-0.00976,0.00976,0.02928,-0.03416,0.01952,0,-0.01952,-0.0488,-0.03904,-0.03904
-0.0488,0.03416,-0.01952,0.00488,0.02928,-0.03904,0.02928,0.00976,-0.00976,-0.03904,-0.02928,-0.02928
-0.0488,0.03416,-0.01952,0.00488,0.02928,-0.03904,0.02928,0.00976,-0.00976,-0.03904,-0.02928,-0.02928
-0.03904,0.03416,-0.02928,-0.00976,0.00976,-0.0244,0.02928,0,-0.01952,-0.0488,-0.02928,-0.03904
-0.03904,0.03416,-0.02928,-0.00976,0.00976,-0.0244,0.02928,0,-0.01952,-0.0488,-0.02928,-0.03904
-0.02928,0.0244,-0.01952,-0.00488,0.00976,-0.01952,0.01952,0,-0.01952,-0.0488,-0.03904,-0.03904
-0.02928,0.0244,-0.01952,-0.00488,0.00976,-0.01952,0.00976,0,-0.01952,-0.0488,-0.03904,-0.03904
-0.03904,0.0244,-0.00976,0.00976,0.02928,-0.03416,0.01952,0,-0.01952,-0.0488,-0.03904,-0.03904
-0.0488,0.02928,-0.00976,0.01464,0.03904,-0.04392,0.01952,0,-0.01952,-0.0488,-0.03904,-0.03904
-0.05856,0.02928,0,0.02928,0.05856,-0.05856,0.02928,0.00976,-0.01952,-0.03904,-0.02928,-0.03904
-0.05856,0.02928,0,0.02928,0.05856,-0.05856,0.02928,0.00976,-0.01952,-0.03904,-0.02928,-0.03904
-0.0488,0.0244,0,0.0244,0.0488,-0.0488,0.01952,0.01952,-0.01952,-0.03904,-0.02928,-0.02928
-0.03904,0.01952,0,0.01952,0.03904,-0.03904,0.01952,0.01952,-0.01952,-0.03904,-0.02928,-0.02928
-0.03904,0.0244,-0.00976,0.00976,0.02928,-0.03416,0.01952,0.01952,-0.00976,-0.02928,-0.01952,-0.01952
-0.03904,0.0244,-0.00976,0.00976,0.02928,-0.03416,0.01952,0.01952,0,-0.02928,-0.01952,-0.01952
-0.02928,0.00976,0.00976,0.0244,0.03904,-0.03416,0.03904,0.02928,0.00976,-0.01952,-0.00976,-0.01952
-0.02928,0.00488,0.01952,0.03416,0.0488,-0.03904,0.0488,0.02928,0.01952,-0.01952,-0.00976,-0.01952
-0.03904,0,0.03904,0.05856,0.07808,-0.05856,0.05856,0.03904,0.02928,-0.00976,-0.00976,-0.00976
-0.03904,-0.00488,0.0488,0.06832,0.08784,-0.06344,0.06832,0.03904,0.02928,-0.00976,-0.00976,-0.00976
-0.03904,-0.00488,0.0488,0.06832,0.08784,-0.06344,0.07808,0.0488,0.03904,0,0,-0.00976
-0.03904,-0.00488,0.0488,0.06832,0.08784,-0.06344,0.07808,0.05856,0.03904,0,0,-0.00976
-0.02928,-0.01464,0.05856,0.0732,0.08784,-0.05856,0.06832,0.05856,0.0488,0.00976,0,0
-0.01952,-0.01952,0.05856,0.06832,0.07808,-0.0488,0.06832,0.05856,0.0488,0.00976,0,0
-0.00976,-0.02928,0.06832,0.0732,0.07808,-0.04392,0.03904,0.05856,0.0488,0.01952,0.00976,0
-0.00976,-0.03416,0.07808,0.08296,0.08784,-0.0488,0.00976,0.05856,0.0488,0.01952,0.01952,0
0,-0.02928,0.05856,0.05856,0.05856,-0.02928,-0.00976,0.0488,0.03904,0.00976,0.00976,0
0,-0.0244,0.0488,0.0488,0.0488,-0.0244,-0.01952,0.03904,0.03904,0.00976,0.00976,0
-0.00976,-0.01464,0.03904,0.04392,0.0488,-0.02928,-0.02928,0.01952,0.02928,0,0,-0.00976
-0.00976,-0.01464,0.03904,0.04392,0.0488,-0.02928,-0.03904,0.00976,0.01952,-0.00976,-0.00976,-0.00976
-0.00976,-0.01464,0.03904,0.04392,0.0488,-0.02928,-0.0488,0.00976,0.00976,-0.00976,-0.00976,-0.00976
-0.00976,-0.01464,0.03904,0.04392,0.0488,-0.02928,-0.0488,0.00976,0.00976,-0.00976,-0.00976,-0.00976
0,-0.02684,0.05368,0.05368,0.05368,-0.02684,-0.06344,-0.00488,-0.00976,-0.01952,-0.00976,-0.01464
0,-0.03416,0.06832,0.06832,0.06832,-0.03416,-0.06832,-0.0244,-0.0244,-0.0244,-0.00976,-0.01464
-0.00976,-0.0244,0.05856,0.06344,0.06832,-0.03904,-0.06832,-0.03416,-0.0244,-0.0244,-0.00976,-0.00488
-0.00976,-0.02684,0.06344,0.06832,0.0732,-0.04148,-0.0732,-0.04392,-0.0244,-0.02928,-0.00976,0
0,-0.03172,0.06344,0.06344,0.06344,-0.03172,-0.06832,-0.04392,-0.02928,-0.04392,-0.01464,-0.00488
0.00976,-0.03172,0.05368,0.0488,0.04392,-0.01708,-0.06344,-0.0488,-0.0488,-0.05368,-0.02928,-0.00488
0,-0.0244,0.0488,0.0488,0.0488,-0.0244,-0.06344,-0.05368,-0.05856,-0.05856,-0.03416,-0.01464
0,-0.0244,0.0488,0.0488,0.0488,-0.0244,-0.05856,-0.05368,-0.05368,-0.05368,-0.03416,-0.00976
0,-0.01952,0.03904,0.03904,0.03904,-0.01952,-0.03904,-0.03904,-0.04392,-0.0488,-0.01952,-0.00976
0,-0.0244,0.0488,0.0488,0.0488,-0.0244,-0.03904,-0.03904,-0.04392,-0.0488,-0.01952,-0.00976
-0.0244,-0.00976,0.04392,0.05612,0.06832,-0.04636,-0.01952,-0.02928,-0.05368,-0.05368,-0.02928,-0.01952
-0.03904,0.00488,0.02928,0.0488,0.06832,-0.05368,-0.01952,-0.02928,-0.0488,-0.06344,-0.02928,-0.01952
-0.04392,0.01464,0.01464,0.0366,0.05856,-0.05124,-0.01464,-0.04392,-0.0488,-0.06832,-0.04392,-0.0244
-0.03416,0.00976,0.01464,0.03172,0.0488,-0.04148,-0.00976,-0.04392,-0.04392,-0.06832,-0.0488,-0.03416
-0.05368,0.02684,0,0.02684,0.05368,-0.05368,0.0244,-0.01464,-0.03416,-0.05368,-0.0488,-0.02928
-0.06344,0.03416,-0.00488,0.02684,0.05856,-0.061,0.02928,0,-0.03416,-0.05368,-0.05368,-0.02928
-0.06344,0.04392,-0.0244,0.00732,0.03904,-0.05124,0.01952,0,-0.03904,-0.06832,-0.05368,-0.0488
-0.0732,0.05124,-0.02928,0.00732,0.04392,-0.05856,0.01464,0.00488,-0.03904,-0.0732,-0.06344,-0.05856
-0.0732,0.0488,-0.0244,0.0122,0.0488,-0.061,0.01464,0,-0.04392,-0.06832,-0.06344,-0.05856
-0.0732,0.0488,-0.0244,0.0122,0.0488,-0.061,0.0244,0,-0.03904,-0.06832,-0.06344,-0.05856
-0.06344,0.04392,-0.0244,0.00732,0.03904,-0.05124,0.02928,-0.00976,-0.03904,-0.07808,-0.07808,-0.06832
-0.05856,0.04148,-0.0244,0.00488,0.03416,-0.04636,0.01952,-0.01464,-0.04392,-0.07808,-0.07808,-0.0732
-0.0732,0.05124,-0.02928,0.00732,0.04392,-0.05856,0.01952,0,-0.04392,-0.06832,-0.06832,-0.06344
-0.0732,0.05124,-0.02928,0.00732,0.04392,-0.05856,0.02928,0,-0.03904,-0.06832,-0.06832,-0.06344
-0.0732,0.0488,-0.0244,0.0122,0.0488,-0.061,0.03904,-0.00488,-0.03904,-0.0732,-0.0732,-0.06344
-0.07808,0.0488,-0.01952,0.01952,0.05856,-0.06832,0.04392,0,-0.03904,-0.0732,-0.0732,-0.06832
-0.08296,0.05368,-0.0244,0.01708,0.05856,-0.07076,0.03416,-0.00976,-0.0488,-0.07808,-0.0732,-0.06344
-0.07808,0.0488,-0.01952,0.01952,0.05856,-0.06832,0.02928,-0.00488,-0.0488,-0.07808,-0.0732,-0.06832
-0.06344,0.03904,-0.01464,0.01708,0.0488,-0.05612,0.03416,-0.00488,-0.04392,-0.0732,-0.0732,-0.06832
-0.06832,0.04392,-0.01952,0.01464,0.0488,-0.05856,0.04392,-0.00488,-0.03904,-0.0732,-0.06832,-0.06344
-0.06832,0.03904,-0.00976,0.0244,0.05856,-0.06344,0.03416,-0.00488,-0.03904,-0.08296,-0.07808,-0.0732
-0.06832,0.03904,-0.00976,0.0244,0.05856,-0.06344,0.02928,-0.00488,-0.04392,-0.08296,-0.0732,-0.06832
-0.06832,0.03904,-0.00976,0.0244,0.05856,-0.06344,0.02928,-0.00488,-0.04392,-0.0732,-0.0732,-0.0732
-0.06832,0.03904,-0.00976,0.0244,0.05856,-0.06344,0.0244,-0.00488,-0.04392,-0.0732,-0.07808,-0.0732
-0.06344,0.03416,-0.00488,0.02684,0.05856,-0.061,0.0488,0.00488,-0.04392,-0.0732,-0.07808,-0.0732
-0.08296,0.04392,-0.00488,0.0366,0.07808,-0.08052,0.06344,0.01464,-0.0244,-0.0732,-0.0732,-0.0732
-0.08784,0.04392,0,0.04392,0.08784,-0.08784,0.0732,0.0488,0.00976,-0.03416,-0.05856,-0.06832
-0.09272,0.0244,0.04392,0.09028,0.13664,-0.11468,0.11712,0.11712,0.07808,0.01952,-0.0244,-0.04392
-0.0976,0.02928,0.03904,0.08784,0.13664,-0.11712,0.1464,0.17568,0.14152,0.06344,0.00976,-0.01952
-0.0976,0,0.0976,0.1464,0.1952,-0.1464,0.15128,0.2196,0.19032,0.14152,0.11712,0.06344
-0.03904,-0.0488,0.13664,0.15616,0.17568,-0.10736,0.15616,0.29768,0.2928,0.28792,0.244,0.18544
0.05368,-0.1098,0.16592,0.13908,0.11224,-0.02928,0.12688,0.32208,0.34648,0.35136,0.33184,0.27816
0.10736,-0.16348,0.2196,0.16592,0.11224,-0.00244,0.05856,0.16104,0.23424,0.2928,0.366,0.37576
0.13664,-0.1952,0.25376,0.18544,0.11712,0.00976,-0.0976,-0.16592,0,0.16104,0.39528,0.49776
0.244,-0.2928,0.3416,0.2196,0.0976,0.0732,-0.40504,-0.71248,-0.366,-0.01464,0.44408,0.64416
0.366,-0.36844,0.37088,0.18788,0.00488,0.18056,-0.76616,-1.38592,-0.81496,-0.244,0.46848,0.7564
0.53192,-0.40992,0.28792,0.02196,-0.244,0.38796,-0.92232,-1.69336,-1.10776,-0.4392,0.42944,0.7564
0.62464,-0.32696,0.02928,-0.28304,-0.59536,0.61,-0.99064,-1.83976,-1.43472,-0.74176,0.16104,0.47336
0.6588,-0.1708,-0.3172,-0.6466,-0.976,0.8174,-1.0004,-1.81048,-1.60552,-1.00528,-0.22936,0.01464
0.65392,-0.06832,-0.51728,-0.84424,-1.1712,0.91256,-0.9028,-1.64944,-1.60064,-1.10776,-0.47336,-0.24888
0.59048,0,-0.59048,-0.88572,-1.18096,0.88572,-0.84424,-1.51768,-1.55184,-1.15656,-0.66856,-0.45872
0.5124,0.04148,-0.59536,-0.85156,-1.10776,0.81008,-0.72712,-1.40056,-1.4396,-1.1468,-0.76128,-0.52704
0.39528,0.10248,-0.60024,-0.79788,-0.99552,0.6954,-0.58072,-1.21024,-1.25416,-1.09312,-0.79056,-0.55144
0.33672,0.12444,-0.5856,-0.75396,-0.92232,0.62952,-0.488,-0.99552,-1.07848,-0.98576,-0.77104,-0.58072
0.28792,0.0854,-0.45872,-0.60268,-0.74664,0.51728,-0.39528,-0.7564,-0.83936,-0.77104,-0.64904,-0.50752
0.244,0.0488,-0.3416,-0.4636,-0.5856,0.4148,-0.29768,-0.54656,-0.62464,-0.59048,-0.50752,-0.40016
0.1464,0.0488,-0.244,-0.3172,-0.3904,0.2684,-0.2196,-0.3904,-0.44408,-0.42944,-0.35136,-0.28792
0.06832,0.05124,-0.1708,-0.20496,-0.23912,0.15372,-0.1708,-0.27816,-0.32696,-0.33672,-0.27816,-0.22936
0.03416,0.03172,-0.0976,-0.11468,-0.13176,0.08296,-0.09272,-0.1952,-0.23424,-0.244,-0.22936,-0.20008
0.0244,0.00244,-0.02928,-0.04148,-0.05368,0.03904,-0.04392,-0.10736,-0.15616,-0.17568,-0.1952,-0.16592
-0.01464,0.03172,-0.0488,-0.04148,-0.03416,0.00976,0.00488,-0.0488,-0.10736,-0.13664,-0.12688,-0.12688
-0.01952,0.02684,-0.03416,-0.0244,-0.01464,-0.00244,0.01952,-0.00488,-0.05368,-0.09272,-0.07808,-0.08296
-0.01464,0.01464,-0.01464,-0.00732,0,-0.00732,0.0244,0.01952,-0.03904,-0.07808,-0.08296,-0.0976
-0.03904,0.0244,-0.00976,0.00976,0.02928,-0.03416,0.0488,0.03416,-0.01952,-0.0488,-0.08296,-0.08784
-0.03416,0.02196,-0.00976,0.00732,0.0244,-0.02928,0.0488,0.03904,-0.01952,-0.0488,-0.07808,-0.08296
-0.03904,0.01952,0,0.01952,0.03904,-0.03904,0.06344,0.04392,-0.00488,-0.04392,-0.06832,-0.0732
-0.03904,0.01708,0.00488,0.0244,0.04392,-0.04148,0.05856,0.04392,-0.00488,-0.03904,-0.0732,-0.08296
-0.03904,0.01464,0.00976,0.02928,0.0488,-0.04392,0.05856,0.05856,0.00976,-0.02928,-0.05856,-0.0732
-0.03904,0.00976,0.01952,0.03904,0.05856,-0.0488,0.05856,0.0732,0.01464,-0.01952,-0.05368,-0.0732
-0.04392,0.00732,0.02928,0.05124,0.0732,-0.05856,0.05856,0.06344,0.01952,-0.02928,-0.05368,-0.06344
-0.03904,0.00488,0.02928,0.0488,0.06832,-0.05368,0.06344,0.06344,0.01952,-0.03416,-0.05856,-0.06344
-0.03904,0.00732,0.0244,0.04392,0.06344,-0.05124,0.06344,0.0732,0.00976,-0.01464,-0.05856,-0.06344
-0.03904,0.00732,0.0244,0.04392,0.06344,-0.05124,0.06832,0.08296,0.01952,-0.00976,-0.05368,-0.06344
-0.03904,0.00488,0.02928,0.0488,0.06832,-0.05368,0.06832,0.08296,0.02928,-0.01464,-0.03904,-0.05856
-0.02928,-0.00488,0.03904,0.05368,0.06832,-0.0488,0.06832,0.08296,0.02928,-0.01464,-0.03904,-0.05856
-0.03904,0,0.03904,0.05856,0.07808,-0.05856,0.07808,0.08784,0.03904,-0.00976,-0.03904,-0.05856
-0.03904,0,0.03904,0.05856,0.07808,-0.05856,0.07808,0.08784,0.04392,-0.00488,-0.03904,-0.05856
-0.0488,0.0122,0.0244,0.0488,0.0732,-0.061,0.07808,0.08784,0.03904,-0.00488,-0.03416,-0.05856
-0.05856,0.02196,0.01464,0.04392,0.0732,-0.06588,0.07808,0.08784,0.03904,-0.00976,-0.03416,-0.05856
-0.04392,0.00732,0.02928,0.05124,0.0732,-0.05856,0.06344,0.08784,0.0244,-0.01464,-0.04392,-0.06832
-0.03416,-0.00488,0.04392,0.061,0.07808,-0.05612,0.06832,0.08784,0.0244,-0.01464,-0.04392,-0.06832
-0.03416,-0.00244,0.03904,0.05612,0.0732,-0.05368,0.06832,0.09272,0.03904,-0.00488,-0.04392,-0.05856
-0.03416,0.00244,0.02928,0.04636,0.06344,-0.0488,0.06832,0.08784,0.03904,0,-0.03904,-0.05368
-0.03416,0.00244,0.02928,0.04636,0.06344,-0.0488,0.0732,0.08784,0.01952,-0.00976,-0.03904,-0.05368
-0.03416,0,0.03416,0.05124,0.06832,-0.05124,0.0732,0.08784,0.02928,-0.00976,-0.03904,-0.05368
-0.02928,-0.00488,0.03904,0.05368,0.06832,-0.0488,0.06832,0.0976,0.03416,0,-0.03416,-0.06344
-0.03416,-0.00244,0.03904,0.05612,0.0732,-0.05368,0.06832,0.10248,0.03904,0,-0.03416,-0.05856
-0.03416,0,0.03416,0.05124,0.06832,-0.05124,0.06344,0.09272,0.03904,-0.00488,-0.03904,-0.06832
-0.03416,0,0.03416,0.05124,0.06832,-0.05124,0.05856,0.09272,0.03904,0,-0.03904,-0.06832
-0.03416,0.00488,0.0244,0.04148,0.05856,-0.04636,0.06832,0.09272,0.03904,0,-0.03416,-0.05856
-0.03416,0,0.03416,0.05124,0.06832,-0.05124,0.06832,0.09272,0.04392,0,-0.03416,-0.05856
-0.03416,0,0.03416,0.05124,0.06832,-0.05124,0.06832,0.0976,0.0488,0.01464,-0.02928,-0.05368
-0.02928,-0.00244,0.03416,0.0488,0.06344,-0.04636,0.06344,0.0976,0.0488,0.01952,-0.0244,-0.0488
-0.0244,-0.0122,0.0488,0.061,0.0732,-0.0488,0.06832,0.0976,0.05368,0.01952,-0.01464,-0.0488
-0.01952,-0.01464,0.0488,0.05856,0.06832,-0.04392,0.06832,0.10248,0.05368,0.0244,-0.00976,-0.0488
-0.01952,-0.01952,0.05856,0.06832,0.07808,-0.0488,0.06832,0.10248,0.05856,0.01464,-0.00976,-0.0488
-0.01952,-0.02196,0.06344,0.0732,0.08296,-0.05124,0.06832,0.10736,0.05856,0.01952,-0.00488,-0.0488
-0.00976,-0.02684,0.06344,0.06832,0.0732,-0.04148,0.06344,0.10736,0.06344,0.03416,0,-0.03904
-0.00488,-0.03172,0.06832,0.07076,0.0732,-0.03904,0.06344,0.11224,0.06832,0.03904,0.00976,-0.03416
-0.00488,-0.03172,0.06832,0.07076,0.0732,-0.03904,0.05856,0.11224,0.05856,0.02928,0,-0.03416
-0.00488,-0.03416,0.0732,0.07564,0.07808,-0.04148,0.06344,0.11224,0.0732,0.03904,0.00488,-0.03416
-0.00488,-0.0366,0.07808,0.08052,0.08296,-0.04392,0.06344,0.11712,0.08296,0.04392,0.01464,-0.02928
-0.00488,-0.03416,0.0732,0.07564,0.07808,-0.04148,0.06344,0.11712,0.08296,0.04392,0.01952,-0.02928
0.00488,-0.0366,0.06832,0.06588,0.06344,-0.02928,0.05368,0.122,0.08784,0.0488,0.01952,-0.02928
-0.00488,-0.03416,0.0732,0.07564,0.07808,-0.04148,0.04392,0.12688,0.09272,0.05856,0.02928,-0.0244
-0.00488,-0.02928,0.06344,0.06588,0.06832,-0.0366,0.05368,0.12688,0.08784,0.06832,0.02928,-0.02928
-0.00488,-0.03172,0.06832,0.07076,0.0732,-0.03904,0.05368,0.13664,0.0976,0.0732,0.03416,-0.01464
0.00976,-0.04636,0.08296,0.07808,0.0732,-0.03172,0.04392,0.13664,0.11224,0.09272,0.05856,-0.01464
0.01464,-0.0488,0.08296,0.07564,0.06832,-0.02684,0.04392,0.13664,0.11712,0.09272,0.05856,-0.00976
0.01464,-0.0488,0.08296,0.07564,0.06832,-0.02684,0.04392,0.14152,0.12688,0.0976,0.05856,0
0.01952,-0.05124,0.08296,0.0732,0.06344,-0.02196,0.03416,0.1464,0.12688,0.10736,0.06832,0.00488
0.0244,-0.05124,0.07808,0.06588,0.05368,-0.01464,0.02928,0.15616,0.13176,0.11712,0.07808,0.01464
0.02928,-0.05612,0.08296,0.06832,0.05368,-0.0122,0.02928,0.15616,0.14152,0.122,0.09272,0.01952
0.03904,-0.06588,0.09272,0.0732,0.05368,-0.00732,0.0244,0.15616,0.15128,0.1464,0.10736,0.0244
0.0488,-0.07564,0.10248,0.07808,0.05368,-0.00244,0.0244,0.1708,0.16104,0.15616,0.11712,0.02928
0.0488,-0.08052,0.11224,0.08784,0.06344,-0.00732,0.0244,0.1708,0.18544,0.16592,0.12688,0.04392
0.05368,-0.08296,0.11224,0.0854,0.05856,-0.00244,0.01952,0.18544,0.1952,0.19032,0.15128,0.05368
0.06344,-0.09272,0.122,0.09028,0.05856,0.00244,0.0244,0.20008,0.20984,0.20008,0.16104,0.05856
0.07808,-0.10248,0.12688,0.08784,0.0488,0.01464,0.0244,0.21472,0.22448,0.22448,0.18544,0.08296
0.07808,-0.11224,0.1464,0.10736,0.06832,0.00488,0.01464,0.22448,0.23912,0.25376,0.20008,0.09272
0.0976,-0.12444,0.15128,0.10248,0.05368,0.02196,0.00488,0.22936,0.24888,0.27328,0.20984,0.0976
0.11712,-0.13664,0.15616,0.0976,0.03904,0.03904,-0.00488,0.23912,0.27816,0.29768,0.23424,0.11224
0.12688,-0.14152,0.15616,0.09272,0.02928,0.0488,-0.00488,0.24888,0.29768,0.3172,0.25376,0.122
0.1464,-0.15372,0.16104,0.08784,0.01464,0.06588,-0.00976,0.25864,0.3172,0.34648,0.27816,0.14152
0.16104,-0.16592,0.1708,0.09028,0.00976,0.07564,-0.01464,0.27328,0.33672,0.36112,0.29768,0.15128
0.18056,-0.18056,0.18056,0.09028,0,0.09028,-0.01464,0.28792,0.37088,0.40504,0.3172,0.17568
0.18544,-0.18544,0.18544,0.09272,0,0.09272,-0.01952,0.29768,0.38552,0.42456,0.3416,0.18056
0.20984,-0.21228,0.21472,0.1098,0.00488,0.10248,-0.02928,0.31232,0.40504,0.45384,0.35624,0.1952
0.2196,-0.2196,0.2196,0.1098,0,0.1098,-0.02928,0.3172,0.42456,0.47336,0.38064,0.20496
0.22936,-0.2196,0.20984,0.09516,-0.01952,0.12444,-0.03416,0.33672,0.44408,0.48312,0.38552,0.20496
0.24888,-0.23424,0.2196,0.09516,-0.02928,0.13908,-0.03416,0.34648,0.4636,0.50752,0.40992,0.21472
0.26352,-0.24888,0.23424,0.10248,-0.02928,0.1464,-0.05368,0.3416,0.47336,0.52704,0.41968,0.2196
0.27328,-0.25376,0.23424,0.0976,-0.03904,0.15616,-0.06344,0.3416,0.47824,0.54168,0.43432,0.23424
0.27816,-0.25376,0.22936,0.09028,-0.0488,0.16348,-0.06344,0.35624,0.48312,0.5368,0.43432,0.23912
0.2928,-0.26352,0.23424,0.08784,-0.05856,0.17568,-0.06344,0.35136,0.48312,0.54168,0.43432,0.23912
0.29768,-0.26596,0.23424,0.0854,-0.06344,0.18056,-0.07808,0.32696,0.47336,0.54656,0.42944,0.23912
0.29768,-0.26596,0.23424,0.0854,-0.06344,0.18056,-0.08784,0.3172,0.47336,0.5368,0.42944,0.244
0.27816,-0.25132,0.22448,0.0854,-0.05368,0.16592,-0.08296,0.30256,0.4392,0.5124,0.40992,0.22448
0.27816,-0.25132,0.22448,0.0854,-0.05368,0.16592,-0.08296,0.28304,0.4148,0.48312,0.3904,0.2196
0.2684,-0.24644,0.22448,0.09028,-0.04392,0.15616,-0.08296,0.25864,0.3904,0.44408,0.366,0.20984
0.24888,-0.22692,0.20496,0.08052,-0.04392,0.1464,-0.07808,0.23912,0.36112,0.40992,0.35136,0.20496
0.22936,-0.21472,0.20008,0.0854,-0.02928,0.12932,-0.08296,0.20496,0.32208,0.36112,0.3172,0.18544
0.20496,-0.19276,0.18056,0.07808,-0.0244,0.11468,-0.0732,0.18056,0.28304,0.31232,0.27816,0.16104
0.18544,-0.17568,0.16592,0.0732,-0.01952,0.10248,-0.06832,0.15128,0.24888,0.27816,0.244,0.14152
0.16592,-0.16592,0.16592,0.08296,0,0.08296,-0.06344,0.13176,0.20984,0.23424,0.20984,0.11712
0.13176,-0.14396,0.15616,0.09028,0.0244,0.05368,-0.05856,0.11712,0.1708,0.18544,0.1708,0.10736
0.10248,-0.122,0.14152,0.09028,0.03904,0.03172,-0.05368,0.0976,0.13664,0.1464,0.13664,0.08296
0.0976,-0.11224,0.12688,0.07808,0.02928,0.03416,-0.04392,0.07808,0.11712,0.11712,0.122,0.06344
0.06344,-0.09028,0.11712,0.0854,0.05368,0.00488,-0.03416,0.0732,0.10248,0.10248,0.11224,0.05368
0.04392,-0.07076,0.0976,0.07564,0.05368,-0.00488,-0.01952,0.05368,0.07808,0.0732,0.07808,0.02928
0.0244,-0.05612,0.08784,0.07564,0.06344,-0.01952,-0.01952,0.03416,0.05368,0.0488,0.06344,0.01464
0.00488,-0.04148,0.07808,0.07564,0.0732,-0.03416,-0.01464,0.02928,0.04392,0.03416,0.04392,-0.00976
0.00488,-0.03904,0.0732,0.07076,0.06832,-0.03172,-0.00976,0.02928,0.02928,0.01464,0.03416,-0.01952
0.00488,-0.03904,0.0732,0.07076,0.06832,-0.03172,-0.01464,0.01952,0.01952,0.00488,0.01464,-0.01464
-0.00488,-0.03172,0.06832,0.07076,0.0732,-0.03904,-0.00976,0.01464,0,-0.00488,0,-0.0244
-0.00488,-0.03172,0.06832,0.07076,0.0732,-0.03904,-0.00976,0.00976,0.00488,-0.01464,0.00488,-0.03416
-0.00976,-0.02684,0.06344,0.06832,0.0732,-0.04148,-0.00976,0,-0.00488,-0.01952,-0.00488,-0.04392
-0.01952,-0.01464,0.0488,0.05856,0.06832,-0.04392,-0.00488,0.00488,-0.00488,-0.01952,-0.01464,-0.04392
-0.01952,-0.01464,0.0488,0.05856,0.06832,-0.04392,-0.00488,0.00488,-0.00488,-0.02928,-0.0244,-0.04392
-0.01952,-0.01464,0.0488,0.05856,0.06832,-0.04392,-0.00976,-0.00488,-0.01952,-0.03416,-0.0244,-0.0488
-0.01952,-0.01464,0.0488,0.05856,0.06832,-0.04392,-0.00488,-0.00488,-0.01952,-0.03416,-0.0244,-0.0488
-0.0244,-0.00732,0.03904,0.05124,0.06344,-0.04392,0,0.00488,-0.01952,-0.03416,-0.01464,-0.04392
-0.0244,-0.00976,0.04392,0.05612,0.06832,-0.04636,0,0,-0.01952,-0.02928,-0.01464,-0.04392
-0.0244,-0.00976,0.04392,0.05612,0.06832,-0.04636,0,-0.00488,-0.01464,-0.03904,-0.01952,-0.03904
-0.01464,-0.01464,0.04392,0.05124,0.05856,-0.0366,0,0.00488,-0.01464,-0.03416,-0.01952,-0.03904
-0.0244,-0.01464,0.05368,0.06588,0.07808,-0.05124,-0.00976,-0.00488,-0.01952,-0.03416,-0.01952,-0.0488
-0.0244,-0.01464,0.05368,0.06588,0.07808,-0.05124,-0.01464,-0.00488,-0.01952,-0.03416,-0.0244,-0.0488
-0.0244,-0.01464,0.05368,0.06588,0.07808,-0.05124,-0.00488,0.00488,-0.00976,-0.03904,-0.01952,-0.0488
-0.03416,-0.00976,0.05368,0.07076,0.08784,-0.061,-0.00976,0,-0.00976,-0.04392,-0.01464,-0.05368
-0.04392,0.00244,0.03904,0.061,0.08296,-0.06344,-0.00488,0,-0.00976,-0.02928,-0.01464,-0.05368
-0.03904,-0.00488,0.0488,0.06832,0.08784,-0.06344,0,0.00488,-0.00976,-0.02928,-0.01464,-0.04392
-0.02928,-0.01708,0.06344,0.07808,0.09272,-0.061,0,0.00488,-0.01464,-0.03904,-0.01464,-0.04392
-0.01952,-0.01708,0.05368,0.06344,0.0732,-0.04636,0,0.00488,-0.00976,-0.03416,-0.00976,-0.03416
-0.0244,-0.00976,0.04392,0.05612,0.06832,-0.04636,0,0.00976,-0.00976,-0.0244,-0.00488,-0.04392
-0.01952,-0.00976,0.03904,0.0488,0.05856,-0.03904,0,0.01464,-0.00488,-0.01952,-0.00488,-0.04392
-0.02928,-0.01464,0.05856,0.0732,0.08784,-0.05856,0.00488,0.01464,-0.00488,-0.02928,-0.00488,-0.04392
-0.02928,-0.00976,0.0488,0.06344,0.07808,-0.05368,0.00488,0.01464,-0.00488,-0.02928,-0.00488,-0.04392
-0.02928,-0.0122,0.05368,0.06832,0.08296,-0.05612,0.00488,0.01952,0,-0.01952,-0.00488,-0.04392
-0.0244,-0.01952,0.06344,0.07564,0.08784,-0.05612,-0.00488,0.01952,-0.00488,-0.01952,-0.00488,-0.0488
-0.01464,-0.01952,0.05368,0.061,0.06832,-0.04148,0,0.00488,-0.00488,-0.01952,-0.00488,-0.03904
-0.01952,-0.0122,0.04392,0.05368,0.06344,-0.04148,0,0.00976,0,-0.01464,0,-0.03416
-0.01464,-0.01464,0.04392,0.05124,0.05856,-0.0366,0,0.01952,-0.00488,-0.0244,0,-0.03904
-0.01464,-0.01708,0.0488,0.05612,0.06344,-0.03904,0.00488,0.01952,-0.00488,-0.02928,0,-0.03416
-0.01464,-0.01952,0.05368,0.061,0.06832,-0.04148,0.00488,0.00976,-0.00488,-0.01952,0,-0.03904
-0.01952,-0.01464,0.0488,0.05856,0.06832,-0.04392,0.00976,0.00976,-0.00488,-0.01952,0,-0.03904
-0.00488,-0.0244,0.05368,0.05612,0.05856,-0.03172,0.00976,0.00976,0.00488,-0.01952,0,-0.04392
-0.00976,-0.01708,0.04392,0.0488,0.05368,-0.03172,0.01464,0.00976,0.00488,-0.01952,-0.00488,-0.04392
-0.01464,-0.02196,0.05856,0.06588,0.0732,-0.04392,0,0,-0.00488,-0.02928,-0.00488,-0.03904
-0.00976,-0.0244,0.05856,0.06344,0.06832,-0.03904,-0.00976,-0.00488,-0.00488,-0.03416,-0.00976,-0.03904
-0.01464,-0.0244,0.06344,0.07076,0.07808,-0.04636,0.00488,0.00488,0,-0.0244,-0.00976,-0.03904
-0.01952,-0.0244,0.06832,0.07808,0.08784,-0.05368,-0.00976,0,0,-0.02928,-0.00976,-0.03416
-0.03416,-0.00732,0.0488,0.06588,0.08296,-0.05856,0.00488,0,-0.00976,-0.02928,0,-0.04392
-0.03416,-0.00976,0.05368,0.07076,0.08784,-0.061,0.00976,-0.00488,-0.00976,-0.03416,-0.00976,-0.04392
-0.01952,-0.00976,0.03904,0.0488,0.05856,-0.03904,-0.00488,-0.01464,-0.01464,-0.03416,-0.01952,-0.05368
-0.01952,-0.00976,0.03904,0.0488,0.05856,-0.03904,-0.00976,-0.01464,-0.01464,-0.03416,-0.01952,-0.04392
-0.01952,-0.0122,0.04392,0.05368,0.06344,-0.04148,0,-0.01952,-0.0244,-0.03904,-0.01952,-0.0488
-0.01464,-0.02196,0.05856,0.06588,0.0732,-0.04392,0.00976,-0.00488,-0.0244,-0.03904,-0.0244,-0.0488
-0.02928,-0.00488,0.03904,0.05368,0.06832,-0.0488,0,-0.00976,-0.0244,-0.03904,-0.03416,-0.06344
-0.02928,-0.00976,0.0488,0.06344,0.07808,-0.05368,0.00488,-0.00976,-0.0244,-0.04392,-0.03416,-0.06344
-0.03416,-0.00244,0.03904,0.05612,0.0732,-0.05368,0,0,-0.0244,-0.04392,-0.02928,-0.05856
-0.03416,0.00488,0.0244,0.04148,0.05856,-0.04636,0,-0.00488,-0.01952,-0.04392,-0.02928,-0.06344
-0.02928,-0.00488,0.03904,0.05368,0.06832,-0.0488,0.00976,-0.00488,-0.01464,-0.04392,-0.02928,-0.05856
-0.00976,-0.01708,0.04392,0.0488,0.05368,-0.03172,0.00976,-0.00488,-0.01952,-0.05368,-0.03416,-0.05368
-0.0244,-0.01464,0.05368,0.06588,0.07808,-0.05124,0,-0.01952,-0.01952,-0.05368,-0.0244,-0.06344
-0.0244,-0.00732,0.03904,0.05124,0.06344,-0.04392,0,-0.01464,-0.01464,-0.0488,-0.0244,-0.0732
-0.0244,-0.00488,0.03416,0.04636,0.05856,-0.04148,0,-0.00976,-0.01464,-0.0488,-0.03416,-0.06832
-0.0244,0,0.0244,0.0366,0.0488,-0.0366,0,-0.00976,-0.01952,-0.05368,-0.03416,-0.06344
-0.02928,0,0.02928,0.04392,0.05856,-0.04392,0.00976,-0.00976,-0.01952,-0.05368,-0.03904,-0.06832
-0.02928,-0.00244,0.03416,0.0488,0.06344,-0.04636,0.00976,-0.00976,-0.02928,-0.05856,-0.03904,-0.06832
-0.03904,0.00976,0.01952,0.03904,0.05856,-0.0488,0.01464,-0.00488,-0.01952,-0.0488,-0.03416,-0.06832
-0.03904,0.00732,0.0244,0.04392,0.06344,-0.05124,0.01464,-0.00976,-0.0244,-0.04392,-0.03904,-0.0732
-0.04392,0.00732,0.02928,0.05124,0.0732,-0.05856,0.00488,-0.00976,-0.03416,-0.05368,-0.03904,-0.06344
-0.02928,-0.00244,0.03416,0.0488,0.06344,-0.04636,-0.00976,-0.01464,-0.03416,-0.0488,-0.04392,-0.06344
-0.03416,0.00244,0.02928,0.04636,0.06344,-0.0488,0.00488,-0.00976,-0.0244,-0.05368,-0.03416,-0.06832
-0.03904,0.01708,0.00488,0.0244,0.04392,-0.04148,0.01464,-0.00976,-0.0244,-0.05368,-0.02928,-0.06832
-0.0488,0.01708,0.01464,0.03904,0.06344,-0.05612,0.01464,-0.00976,-0.0244,-0.06344,-0.02928,-0.06832
-0.05368,0.01464,0.0244,0.05124,0.07808,-0.06588,0.01464,-0.00488,-0.01952,-0.05856,-0.02928,-0.06832
-0.03416,0.00976,0.01464,0.03172,0.0488,-0.04148,0.00488,-0.00976,-0.0244,-0.05368,-0.03904,-0.06832
-0.02928,0.00488,0.01952,0.03416,0.0488,-0.03904,0.00488,-0.00976,-0.0244,-0.05368,-0.03904,-0.06344
-0.0244,-0.00244,0.02928,0.04148,0.05368,-0.03904,0.00488,-0.00976,-0.0244,-0.05856,-0.03904,-0.06832
-0.02928,0.00244,0.0244,0.03904,0.05368,-0.04148,0.00488,-0.00976,-0.0244,-0.05368,-0.03904,-0.07808
-0.03416,0.00488,0.0244,0.04148,0.05856,-0.04636,0,-0.01464,-0.0244,-0.0488,-0.04392,-0.0732
-0.03416,0.00244,0.02928,0.04636,0.06344,-0.0488,0,-0.01464,-0.02928,-0.05856,-0.04392,-0.0732
-0.04392,0.00976,0.0244,0.04636,0.06832,-0.05612,0.01464,-0.01464,-0.03416,-0.06344,-0.03416,-0.0732
-0.03904,0.0122,0.01464,0.03416,0.05368,-0.04636,0.01464,-0.00976,-0.02928,-0.06832,-0.03416,-0.0732
-0.02928,0.01464,0,0.01464,0.02928,-0.02928,0.01952,-0.00976,-0.02928,-0.05368,-0.03416,-0.06344
-0.02928,0.01708,-0.00488,0.00976,0.0244,-0.02684,0.01952,-0.01464,-0.02928,-0.05368,-0.03416,-0.0732
-0.02928,0.0122,0.00488,0.01952,0.03416,-0.03172,0.01464,-0.00488,-0.02928,-0.05856,-0.03416,-0.07808
-0.03416,0.01464,0.00488,0.02196,0.03904,-0.0366,0.00976,-0.00488,-0.02928,-0.05856,-0.03416,-0.0732
-0.03416,0.00488,0.0244,0.04148,0.05856,-0.04636,0.00976,-0.01464,-0.01952,-0.06344,-0.04392,-0.0732
-0.03904,0.01464,0.00976,0.02928,0.0488,-0.04392,0.00976,0,-0.01952,-0.05856,-0.03904,-0.06832
-0.03904,0.01952,0,0.01952,0.03904,-0.03904,0.00976,0,-0.01952,-0.0488,-0.02928,-0.06832
-0.03904,0.01952,0,0.01952,0.03904,-0.03904,0.00976,0,-0.01952,-0.0488,-0.02928,-0.06832
-0.02928,0.00976,0.00976,0.0244,0.03904,-0.03416,0.01952,0,-0.01952,-0.05856,-0.02928,-0.05856
-0.02928,0.00976,0.00976,0.0244,0.03904,-0.03416,0.01952,0,-0.01952,-0.05856,-0.02928,-0.05856
-0.03904,0.01952,0,0.01952,0.03904,-0.03904,0.01952,-0.00976,-0.02928,-0.0488,-0.02928,-0.05856
-0.0488,0.0244,0,0.0244,0.0488,-0.0488,0.01952,-0.00976,-0.02928,-0.0488,-0.02928,-0.05856
-0.03904,0.01464,0.00976,0.02928,0.0488,-0.04392,0.01952,0,-0.02928,-0.05856,-0.03904,-0.05856
-0.03904,0.01464,0.00976,0.02928,0.0488,-0.04392,0.01952,0,-0.02928,-0.05856,-0.03904,-0.05856
-0.03904,0.01952,0,0.01952,0.03904,-0.03904,0.02928,0,-0.01952,-0.05856,-0.03904,-0.05856
-0.03904,0.01952,0,0.01952,0.03904,-0.03904,0.02928,0,-0.01952,-0.05856,-0.03904,-0.05856
-0.02928,0.01464,0,0.01464,0.02928,-0.02928,0.01952,0,-0.01952,-0.0488,-0.02928,-0.06832
-0.02928,0.01464,0,0.01464,0.02928,-0.02928,0.01952,0,-0.01952,-0.0488,-0.02928,-0.06832
-0.02928,0.01464,0,0.01464,0.02928,-0.02928,0.01952,-0.00976,-0.01952,-0.05856,-0.03904,-0.06832
-0.02928,0.01464,0,0.01464,0.02928,-0.02928,0.01952,-0.00976,-0.01952,-0.05856,-0.03904,-0.06832
-0.03904,0.01952,0,0.01952,0.03904,-0.03904,0.01952,0,-0.01952,-0.05856,-0.03904,-0.06832
-0.0488,0.0244,0,0.0244,0.0488,-0.0488,0.01952,0,-0.01952,-0.05856,-0.03904,-0.06832
-0.05856,0.03416,-0.00976,0.01952,0.0488,-0.05368,0.01952,0,-0.01952,-0.0488,-0.02928,-0.05856
-0.05856,0.03416,-0.00976,0.01952,0.0488,-0.05368,0.01952,0,-0.01952,-0.0488,-0.02928,-0.05856
-0.0488,0.02928,-0.00976,0.01464,0.03904,-0.04392,0.01952,-0.00976,-0.01952,-0.05856,-0.02928,-0.05856
-0.03904,0.0244,-0.00976,0.00976,0.02928,-0.03416,0.01952,-0.00976,-0.01952,-0.05856,-0.02928,-0.05856
-0.03904,0.0244,-0.00976,0.00976,0.02928,-0.03416,0.02928,0,-0.01952,-0.0488,-0.01952,-0.05856
-0.03904,0.0244,-0.00976,0.00976,0.02928,-0.03416,0.02928,0,-0.01952,-0.0488,-0.01952,-0.05856
-0.0488,0.02928,-0.00976,0.01464,0.03904,-0.04392,0.01952,0,-0.01952,-0.0488,-0.02928,-0.05856
-0.0488,0.02928,-0.00976,0.01464,0.03904,-0.04392,0.01952,0,-0.01952,-0.0488,-0.02928,-0.05856
-0.03904,0.0244,-0.00976,0.00976,0.02928,-0.03416,0.01952,0,-0.01952,-0.05856,-0.02928,-0.06832
-0.03904,0.0244,-0.00976,0.00976,0.02928,-0.03416,0.01952,0,-0.01952,-0.05856,-0.02928,-0.06832
-0.0488,0.03416,-0.01952,0.00488,0.02928,-0.03904,0.02928,0.00976,-0.01952,-0.0488,-0.01952,-0.05856
-0.05856,0.04392,-0.02928,0,0.02928,-0.04392,0.02928,0.00976,-0.01952,-0.03904,-0.01952,-0.0488
-0.0488,0.03416,-0.01952,0.00488,0.02928,-0.03904,0.01952,0,-0.01952,-0.0488,-0.02928,-0.05856
-0.03904,0.02928,-0.01952,0,0.01952,-0.02928,0.01952,0,-0.01952,-0.0488,-0.02928,-0.05856
-0.0488,0.02928,-0.00976,0.01464,0.03904,-0.04392,0.02928,0,-0.01952,-0.0488,-0.02928,-0.0488
-0.0488,0.02928,-0.00976,0.01464,0.03904,-0.04392,0.02928,0,-0.01952,-0.0488,-0.02928,-0.0488
-0.0488,0.03416,-0.01952,0.00488,0.02928,-0.03904,0.02928,0,-0.00976,-0.0488,-0.02928,-0.0488
-0.0488,0.03416,-0.01952,0.00488,0.02928,-0.03904,0.02928,0,-0.00976,-0.0488,-0.02928,-0.0488
-0.03904,0.0244,-0.00976,0.00976,0.02928,-0.03416,0.02928,0,-0.01952,-0.0488,-0.03904,-0.05856
-0.03904,0.0244,-0.00976,0.00976,0.02928,-0.03416,0.02928,0,-0.01952,-0.0488,-0.03904,-0.05856
-0.0488,0.03416,-0.01952,0.00488,0.02928,-0.03904,0.02928,0,-0.01952,-0.0488,-0.02928,-0.0488
-0.0488,0.03416,-0.01952,0.00488,0.02928,-0.03904,0.02928,0,-0.01952,-0.0488,-0.02928,-0.0488
-0.05856,0.04392,-0.02928,0,0.02928,-0.04392,0.02928,0.00976,-0.00976,-0.03904,-0.02928,-0.05856
-0.05856,0.04392,-0.02928,0,0.02928,-0.04392,0.02928,0.00976,-0.00976,-0.03904,-0.02928,-0.05856
-0.05856,0.04392,-0.02928,0,0.02928,-0.04392,0.03904,0,-0.01952,-0.03904,-0.01952,-0.0488
-0.05856,0.04392,-0.02928,0,0.02928,-0.04392,0.03904,0,-0.01952,-0.03904,-0.01952,-0.0488
-0.0488,0.04392,-0.03904,-0.01464,0.00976,-0.02928,0.02928,0.00976,-0.00976,-0.03904,-0.02928,-0.05856
-0.03904,0.03904,-0.03904,-0.01952,0,-0.01952,0.02928,0.00976,-0.00976,-0.03904,-0.02928,-0.05856
-0.0488,0.03904,-0.02928,-0.00488,0.01952,-0.03416,0.02928,0,-0.00976,-0.0488,-0.02928,-0.0488
-0.0488,0.03904,-0.02928,-0.00488,0.01952,-0.03416,0.02928,0,-0.00976,-0.0488,-0.02928,-0.0488
-0.03904,0.03416,-0.02928,-0.00976,0.00976,-0.0244,0.02928,0,-0.01952,-0.03904,-0.02928,-0.0488
-0.03904,0.03416,-0.02928,-0.00976,0.00976,-0.0244,0.02928,0,-0.01952,-0.03904,-0.02928,-0.0488
-0.0488,0.04392,-0.03904,-0.01464,0.00976,-0.02928,0.03904,0.00976,-0.00976,-0.03904,-0.01952,-0.0488
-0.0488,0.04392,-0.03904,-0.01464,0.00976,-0.02928,0.03904,0.00976,-0.00976,-0.03904,-0.01952,-0.0488
-0.0488,0.04392,-0.03904,-0.01464,0.00976,-0.02928,0.03904,0.00976,-0.00976,-0.03904,-0.01952,-0.03904
-0.0488,0.04392,-0.03904,-0.01464,0.00976,-0.02928,0.03904,0.00976,-0.00976,-0.03904,-0.01952,-0.03904
-0.0488,0.0488,-0.0488,-0.0244,0,-0.0244,0.03904,0.01952,-0.00976,-0.02928,-0.00976,-0.0488
-0.0488,0.0488,-0.0488,-0.0244,0,-0.0244,0.03904,0.01952,-0.00976,-0.02928,-0.00976,-0.0488
-0.05856,0.05856,-0.05856,-0.02928,0,-0.02928,0.03904,0.00976,-0.00976,-0.03904,-0.01952,-0.03904
-0.05856,0.05856,-0.05856,-0.02928,0,-0.02928,0.03904,0.00976,-0.00976,-0.03904,-0.01952,-0.03904
-0.0488,0.05368,-0.05856,-0.03416,-0.00976,-0.01952,0.03904,0.01952,0,-0.02928,-0.00976,-0.03904
-0.0488,0.05368,-0.05856,-0.03416,-0.00976,-0.01952,0.03904,0.02928,0,-0.02928,-0.00976,-0.03904
-0.0488,0.05368,-0.05856,-0.03416,-0.00976,-0.01952,0.03904,0.01952,0,-0.02928,-0.00976,-0.0488
-0.0488,0.05368,-0.05856,-0.03416,-0.00976,-0.01952,0.03904,0.01952,0,-0.02928,-0.00976,-0.0488
-0.05856,0.05856,-0.05856,-0.02928,0,-0.02928,0.03904,0.00976,-0.00976,-0.03904,-0.01952,-0.0488
-0.06832,0.06344,-0.05856,-0.0244,0.00976,-0.03904,0.03904,0.00976,-0.00976,-0.03904,-0.01952,-0.0488
-0.05856,0.05856,-0.05856,-0.02928,0,-0.02928,0.0488,0.01952,-0.00976,-0.02928,-0.00976,-0.0488
-0.05856,0.05856,-0.05856,-0.02928,0,-0.02928,0.0488,0.01952,-0.00976,-0.02928,-0.00976,-0.0488
-0.05856,0.05856,-0.05856,-0.02928,0,-0.02928,0.0488,0.01952,0,-0.02928,-0.00976,-0.0488
-0.05856,0.05856,-0.05856,-0.02928,0,-0.02928,0.0488,0.01952,0,-0.02928,-0.00976,-0.0488
-0.0488,0.0488,-0.0488,-0.0244,0,-0.0244,0.03904,0.00976,-0.00976,-0.02928,-0.00976,-0.0488
-0.0488,0.0488,-0.0488,-0.0244,0,-0.0244,0.03904,0.00976,-0.00976,-0.02928,-0.00976,-0.0488
-0.0488,0.0488,-0.0488,-0.0244,0,-0.0244,0.03904,0.00976,0,-0.02928,-0.01952,-0.0488
-0.0488,0.0488,-0.0488,-0.0244,0,-0.0244,0.03904,0.00976,0,-0.02928,-0.01952,-0.0488
-0.05856,0.05856,-0.05856,-0.02928,0,-0.02928,0.03904,0.01952,-0.00976,-0.02928,-0.00976,-0.03904
-0.05856,0.06344,-0.06832,-0.03904,-0.00976,-0.0244,0.03904,0.01952,-0.00976,-0.02928,-0.00976,-0.03904
-0.0488,0.05368,-0.05856,-0.03416,-0.00976,-0.01952,0.03904,0.00976,-0.00976,-0.03904,-0.01952,-0.0488
-0.03904,0.04392,-0.0488,-0.02928,-0.00976,-0.01464,0.03904,0.00976,-0.00976,-0.03904,-0.02928,-0.05856
-0.0488,0.05368,-0.05856,-0.03416,-0.00976,-0.01952,0.0488,0.01952,0,-0.02928,-0.01952,-0.0488
-0.05856,0.06344,-0.06832,-0.03904,-0.00976,-0.0244,0.0488,0.01952,0,-0.02928,-0.01952,-0.0488
-0.0488,0.05856,-0.06832,-0.04392,-0.01952,-0.01464,0.03904,0.00976,-0.00976,-0.03904,-0.01952,-0.05856
-0.0488,0.05856,-0.06832,-0.04392,-0.01952,-0.01464,0.02928,0.00976,-0.00976,-0.03904,-0.01952,-0.05856
-0.05856,0.05856,-0.05856,-0.02928,0,-0.02928,0.0488,0.01952,0,-0.02928,-0.00976,-0.0488
-0.05856,0.05856,-0.05856,-0.02928,0,-0.02928,0.05856,0.01952,0,-0.02928,-0.00976,-0.03904
-0.05856,0.06344,-0.06832,-0.03904,-0.00976,-0.0244,0.05856,0.01952,0,-0.01952,-0.00976,-0.03904
-0.05856,0.06344,-0.06832,-0.03904,-0.00976,-0.0244,0.05856,0.01952,0,-0.01952,-0.00976,-0.03904
-0.0488,0.05368,-0.05856,-0.03416,-0.00976,-0.01952,0.0488,0.01952,-0.00976,-0.02928,-0.01952,-0.0488
-0.0488,0.05368,-0.05856,-0.03416,-0.00976,-0.01952,0.03904,0.01952,-0.00976,-0.02928,-0.01952,-0.05856
-0.0488,0.05368,-0.05856,-0.03416,-0.00976,-0.01952,0.03904,0.01952,0,-0.02928,-0.01952,-0.0488
-0.0488,0.05368,-0.05856,-0.03416,-0.00976,-0.01952,0.03904,0.01952,0,-0.02928,-0.01952,-0.0488
-0.05856,0.06344,-0.06832,-0.03904,-0.00976,-0.0244,0.03904,0.01952,-0.00976,-0.02928,-0.01952,-0.0488
-0.05856,0.06344,-0.06832,-0.03904,-0.00976,-0.0244,0.03904,0.01952,-0.00976,-0.02928,-0.01952,-0.0488
-0.05856,0.06344,-0.06832,-0.03904,-0.00976,-0.0244,0.0488,0.02928,0,-0.01952,-0.00976,-0.03904
-0.05856,0.06344,-0.06832,-0.03904,-0.00976,-0.0244,0.0488,0.02928,0.00976,-0.01952,-0.00976,-0.03904
-0.05856,0.05856,-0.05856,-0.02928,0,-0.02928,0.0488,0.01952,0,-0.02928,-0.01952,-0.0488
-0.05856,0.05856,-0.05856,-0.02928,0,-0.02928,0.0488,0.01952,0,-0.02928,-0.01952,-0.0488
-0.0488,0.05368,-0.05856,-0.03416,-0.00976,-0.01952,0.05856,0.01952,-0.00976,-0.02928,-0.02928,-0.0488
-0.0488,0.05368,-0.05856,-0.03416,-0.00976,-0.01952,0.05856,0.01952,-0.00976,-0.02928,-0.02928,-0.0488
-0.0488,0.05368,-0.05856,-0.03416,-0.00976,-0.01952,0.0488,0.02928,0,-0.02928,-0.01952,-0.0488
-0.0488,0.05368,-0.05856,-0.03416,-0.00976,-0.01952,0.0488,0.02928,0,-0.02928,-0.01952,-0.0488
-0.0488,0.0488,-0.0488,-0.0244,0,-0.0244,0.03904,0.03904,0.00976,-0.01952,-0.00976,-0.03904
-0.0488,0.0488,-0.0488,-0.0244,0,-0.0244,0.03904,0.03904,0.00976,-0.01952,-0.00976,-0.02928
-0.03904,0.03904,-0.03904,-0.01952,0,-0.01952,0.05856,0.03904,0.01952,-0.00976,0,-0.01952
-0.03904,0.03416,-0.02928,-0.00976,0.00976,-0.0244,0.06832,0.03904,0.01952,-0.00976,0,-0.01952
-0.0488,0.03416,-0.01952,0.00488,0.02928,-0.03904,0.07808,0.0488,0.02928,0,0.00976,-0.01952
-0.0488,0.02928,-0.00976,0.01464,0.03904,-0.04392,0.08784,0.05856,0.03904,0.00976,0.00976,-0.01952
-0.03904,0.0244,-0.00976,0.00976,0.02928,-0.03416,0.0976,0.06832,0.0488,0.01952,0.01952,-0.01952
-0.03904,0.0244,-0.00976,0.00976,0.02928,-0.03416,0.10736,0.06832,0.0488,0.01952,0.01952,-0.01952
-0.02928,0.01464,0,0.01464,0.02928,-0.02928,0.0976,0.07808,0.05856,0.01952,0.01952,-0.01952
-0.02928,0.00976,0.00976,0.0244,0.03904,-0.03416,0.0976,0.07808,0.06832,0.01952,0.01952,-0.01952
-0.01952,0,0.01952,0.02928,0.03904,-0.02928,0.06832,0.06832,0.06832,0.02928,0.02928,-0.00976
-0.00976,-0.00488,0.01952,0.0244,0.02928,-0.01952,0.0488,0.06832,0.06832,0.03904,0.02928,0
-0.01952,0.00488,0.00976,0.01952,0.02928,-0.0244,0.02928,0.05856,0.05856,0.02928,0.01952,0
-0.01952,0.00488,0.00976,0.01952,0.02928,-0.0244,0.01952,0.0488,0.0488,0.01952,0.01952,0
-0.01952,0.01464,-0.00976,0,0.00976,-0.01464,0.00976,0.03904,0.03904,0.00976,0.00976,-0.00976
-0.01952,0.0244,-0.02928,-0.01952,-0.00976,-0.00488,0,0.03904,0.02928,0.00976,0.00976,-0.00976
-0.01952,0.01952,-0.01952,-0.00976,0,-0.00976,-0.00976,0.02928,0.02928,0.00976,0,-0.01952
-0.01952,0.01464,-0.00976,0,0.00976,-0.01464,-0.00976,0.02928,0.02928,0.00976,0,-0.01952
-0.01952,0.00732,0.00488,0.01464,0.0244,-0.02196,-0.0244,0.01464,0.01952,0,0.00976,-0.01464
-0.01952,0.00488,0.00976,0.01952,0.02928,-0.0244,-0.03904,0.00488,0.01464,-0.00488,0.00976,-0.01464
-0.01952,0.00488,0.00976,0.01952,0.02928,-0.0244,-0.0488,-0.00488,-0.00488,-0.00488,0,-0.01464
-0.00976,-0.00244,0.01464,0.01952,0.0244,-0.01708,-0.05368,-0.01464,-0.01464,-0.00976,0,-0.00976
-0.00976,-0.00732,0.0244,0.02928,0.03416,-0.02196,-0.0488,-0.03416,-0.01952,-0.0244,-0.00488,-0.00488
-0.00976,-0.00244,0.01464,0.01952,0.0244,-0.01708,-0.04392,-0.03904,-0.03904,-0.03416,-0.01952,-0.00488
-0.00976,0.00488,0,0.00488,0.00976,-0.00976,-0.04392,-0.04392,-0.0488,-0.0488,-0.0244,-0.01464
-0.00976,0.00488,0,0.00488,0.00976,-0.00976,-0.03904,-0.04392,-0.04392,-0.04392,-0.0244,-0.00976
-0.00976,0.00976,-0.00976,-0.00488,0,-0.00488,-0.00976,-0.01952,-0.0244,-0.02928,-0.00976,0
-0.00976,0.00488,0,0.00488,0.00976,-0.00976,-0.00976,-0.01952,-0.0244,-0.02928,-0.00976,0
-0.01464,0.00976,-0.00488,0.00244,0.00976,-0.0122,0,-0.01952,-0.03416,-0.03416,-0.01952,-0.00976
-0.02928,0.0244,-0.01952,-0.00488,0.00976,-0.01952,-0.00976,-0.01952,-0.02928,-0.05368,-0.01952,-0.01952
-0.05368,0.03416,-0.01464,0.0122,0.03904,-0.04636,0.00488,-0.0244,-0.02928,-0.0488,-0.03416,-0.03416
-0.04392,0.02928,-0.01464,0.00732,0.02928,-0.0366,0.00976,-0.0244,-0.0244,-0.03904,-0.03904,-0.04392
-0.05368,0.04148,-0.02928,-0.00244,0.0244,-0.03904,0.03416,-0.00488,-0.0244,-0.04392,-0.02928,-0.03904
-0.05368,0.04392,-0.03416,-0.00732,0.01952,-0.0366,0.03904,0,-0.0244,-0.04392,-0.03416,-0.03904
-0.06344,0.05856,-0.05368,-0.02196,0.00976,-0.0366,0.0488,0,-0.02928,-0.0488,-0.04392,-0.05856
-0.0732,0.06588,-0.05856,-0.02196,0.01464,-0.04392,0.05368,0.00488,-0.02928,-0.05368,-0.05368,-0.05856
-0.0732,0.06832,-0.06344,-0.02684,0.00976,-0.04148,0.04392,0,-0.0244,-0.0488,-0.04392,-0.06832
-0.0732,0.06832,-0.06344,-0.02684,0.00976,-0.04148,0.05368,0,-0.01952,-0.0488,-0.04392,-0.06832
-0.0732,0.0732,-0.0732,-0.0366,0,-0.0366,0.0488,0.00976,-0.01952,-0.05856,-0.0488,-0.06832
-0.06832,0.07076,-0.0732,-0.03904,-0.00488,-0.03172,0.03904,0.00488,-0.0244,-0.05856,-0.0488,-0.0732
-0.08296,0.07564,-0.06832,-0.02684,0.01464,-0.0488,0.0488,0,-0.03416,-0.05856,-0.05856,-0.06344
-0.08296,0.07564,-0.06832,-0.02684,0.01464,-0.0488,0.05856,0,-0.02928,-0.05856,-0.05856,-0.06344
-0.08296,0.0732,-0.06344,-0.02196,0.01952,-0.05124,0.0488,0.00488,-0.02928,-0.06344,-0.05368,-0.05368
-0.08784,0.07808,-0.06832,-0.0244,0.01952,-0.05368,0.05368,0.00976,-0.02928,-0.06344,-0.05368,-0.05856
-0.08296,0.07808,-0.0732,-0.03172,0.00976,-0.04636,0.06344,0,-0.02928,-0.05856,-0.06344,-0.06344
-0.07808,0.0732,-0.06832,-0.02928,0.00976,-0.04392,0.05856,0.00488,-0.02928,-0.05856,-0.06344,-0.06832
-0.0732,0.0732,-0.0732,-0.0366,0,-0.0366,0.04392,-0.00488,-0.03416,-0.06344,-0.06344,-0.06832
-0.07808,0.07808,-0.07808,-0.03904,0,-0.03904,0.05368,-0.00488,-0.02928,-0.06344,-0.05856,-0.06344
-0.07808,0.0732,-0.06832,-0.02928,0.00976,-0.04392,0.05368,-0.00488,-0.02928,-0.06344,-0.05856,-0.0732
-0.07808,0.0732,-0.06832,-0.02928,0.00976,-0.04392,0.0488,-0.00488,-0.03416,-0.06344,-0.05368,-0.06832
-0.08784,0.0732,-0.05856,-0.01464,0.02928,-0.05856,0.0488,-0.00488,-0.03416,-0.06344,-0.06344,-0.0732
-0.08784,0.0732,-0.05856,-0.01464,0.02928,-0.05856,0.04392,-0.00488,-0.03416,-0.06344,-0.06832,-0.0732
-0.06344,0.06344,-0.06344,-0.03172,0,-0.03172,0.0488,0.00488,-0.03416,-0.06344,-0.06832,-0.08296
-0.08296,0.06344,-0.04392,-0.00244,0.03904,-0.061,0.0732,0.03416,0.00488,-0.03416,-0.05368,-0.06344
-0.08784,0.06832,-0.0488,-0.00488,0.03904,-0.06344,0.10248,0.05856,0.02928,-0.0244,-0.0488,-0.05856
-0.10248,0.06344,-0.0244,0.02684,0.07808,-0.09028,0.12688,0.0976,0.06832,0.01952,-0.0244,-0.05368
-0.10736,0.05856,-0.00976,0.04392,0.0976,-0.10248,0.1464,0.13664,0.11224,0.05368,0,-0.02928
-0.08784,0.0244,0.03904,0.08296,0.12688,-0.10736,0.15128,0.20984,0.19032,0.15128,0.0976,0.04392
-0.05856,-0.01464,0.08784,0.11712,0.1464,-0.10248,0.17568,0.28792,0.27328,0.25864,0.21472,0.15616
0.0244,-0.06588,0.10736,0.09516,0.08296,-0.02928,0.1952,0.3416,0.37576,0.38064,0.33184,0.25864
0.05856,-0.09516,0.13176,0.10248,0.0732,-0.00732,0.10736,0.24888,0.31232,0.36112,0.39528,0.34648
0.11712,-0.15128,0.18544,0.12688,0.06832,0.0244,-0.01952,0.00976,0.16592,0.2684,0.43432,0.46848
0.18544,-0.23424,0.28304,0.19032,0.0976,0.04392,-0.2196,-0.41968,-0.122,0.13176,0.47336,0.62464
0.28792,-0.30012,0.31232,0.16836,0.0244,0.13176,-0.58072,-1.11264,-0.59048,-0.08784,0.49776,0.74664
0.42456,-0.35136,0.27816,0.06588,-0.1464,0.28548,-0.81496,-1.55672,-0.91256,-0.27328,0.49776,0.78568
0.51728,-0.30744,0.0976,-0.16104,-0.41968,0.46848,-0.94184,-1.77144,-1.25904,-0.54656,0.33672,0.64904
0.54168,-0.13664,-0.2684,-0.53924,-0.81008,0.67588,-0.93208,-1.75192,-1.45912,-0.8296,-0.04392,0.20008
0.55632,-0.01464,-0.52704,-0.8052,-1.08336,0.81984,-0.9028,-1.68848,-1.5616,-1.01992,-0.34648,-0.13176
0.50264,0.0732,-0.64904,-0.90036,-1.15168,0.82716,-0.8052,-1.52744,-1.5128,-1.08824,-0.57096,-0.37088
0.4148,0.1098,-0.6344,-0.8418,-1.0492,0.732,-0.73688,-1.4396,-1.44936,-1.10776,-0.70272,-0.488
0.32696,0.14152,-0.61,-0.77348,-0.93696,0.63196,-0.59048,-1.24928,-1.26392,-1.04432,-0.72224,-0.50264
0.23912,0.19276,-0.62464,-0.7442,-0.86376,0.55144,-0.47824,-1.04432,-1.08824,-0.976,-0.74176,-0.53192
0.20008,0.17324,-0.54656,-0.6466,-0.74664,0.47336,-0.38552,-0.83448,-0.89792,-0.8296,-0.67832,-0.50752
0.18544,0.11712,-0.41968,-0.5124,-0.60512,0.39528,-0.30744,-0.62464,-0.67344,-0.61976,-0.51728,-0.41968
0.10736,0.10248,-0.31232,-0.366,-0.41968,0.26352,-0.22936,-0.42944,-0.47336,-0.44896,-0.37088,-0.30744
0.0488,0.09516,-0.23912,-0.26352,-0.28792,0.16836,-0.15128,-0.29768,-0.33672,-0.33672,-0.27816,-0.22936
0.01464,0.07564,-0.16592,-0.17324,-0.18056,0.0976,-0.10248,-0.22448,-0.25376,-0.26352,-0.24888,-0.20008
-0.03416,0.0854,-0.13664,-0.11956,-0.10248,0.03416,-0.04392,-0.13664,-0.18544,-0.17568,-0.17568,-0.16592
-0.0244,0.06588,-0.10736,-0.09516,-0.08296,0.02928,-0.00488,-0.05856,-0.0976,-0.0976,-0.10736,-0.10736
-0.01952,0.04636,-0.0732,-0.06344,-0.05368,0.01708,0.02928,-0.00488,-0.04392,-0.06344,-0.05856,-0.06344
-0.03416,0.03904,-0.04392,-0.02684,-0.00976,-0.0122,0.04392,0,-0.03904,-0.05856,-0.0732,-0.07808
-0.02928,0.03904,-0.0488,-0.03416,-0.01952,-0.00488,0.0488,0.01464,-0.01952,-0.03904,-0.0732,-0.07808
-0.03416,0.04148,-0.0488,-0.03172,-0.01464,-0.00976,0.0488,0.01952,-0.00976,-0.03904,-0.06832,-0.06344
-0.0488,0.05368,-0.05856,-0.03416,-0.00976,-0.01952,0.0732,0.04392,0.01464,-0.0244,-0.0488,-0.04392
-0.05856,0.05612,-0.05368,-0.0244,0.00488,-0.03172,0.06832,0.05368,0.01464,-0.01952,-0.05368,-0.05368
-0.06832,0.05368,-0.03904,-0.00488,0.02928,-0.0488,0.06832,0.0488,0.01952,-0.01952,-0.0488,-0.05368
-0.06832,0.04392,-0.01952,0.01464,0.0488,-0.05856,0.05856,0.06344,0.0244,-0.00976,-0.04392,-0.05368
-0.06344,0.04636,-0.02928,0.00244,0.03416,-0.0488,0.06832,0.0732,0.02928,0,-0.0244,-0.04392
-0.05856,0.0488,-0.03904,-0.00976,0.01952,-0.03904,0.0732,0.0732,0.02928,-0.00488,-0.02928,-0.04392
-0.0488,0.0366,-0.0244,0,0.0244,-0.0366,0.08296,0.0732,0.02928,0.00488,-0.03904,-0.04392
-0.0488,0.0366,-0.0244,0,0.0244,-0.0366,0.08784,0.08296,0.03904,0.00976,-0.03416,-0.04392
-0.06832,0.05368,-0.03904,-0.00488,0.02928,-0.0488,0.07808,0.0732,0.02928,-0.00488,-0.02928,-0.03904
-0.05856,0.04392,-0.02928,0,0.02928,-0.04392,0.07808,0.0732,0.02928,-0.00488,-0.02928,-0.03904
-0.0488,0.03904,-0.02928,-0.00488,0.01952,-0.03416,0.07808,0.07808,0.02928,0.00976,-0.03904,-0.0488
-0.0488,0.03904,-0.02928,-0.00488,0.01952,-0.03416,0.07808,0.07808,0.03416,0.01464,-0.03904,-0.0488
-0.05856,0.04148,-0.0244,0.00488,0.03416,-0.04636,0.08784,0.07808,0.0488,0.00488,-0.0244,-0.03904
-0.06832,0.04636,-0.0244,0.00976,0.04392,-0.05612,0.08784,0.07808,0.0488,0,-0.0244,-0.03904
-0.05368,0.04636,-0.03904,-0.0122,0.01464,-0.03416,0.08296,0.08784,0.05368,0.01464,-0.0244,-0.03904
-0.05368,0.04392,-0.03416,-0.00732,0.01952,-0.0366,0.08784,0.08784,0.05368,0.01464,-0.0244,-0.03904
-0.05368,0.0366,-0.01952,0.00732,0.03416,-0.04392,0.07808,0.08296,0.0488,0.01464,-0.0244,-0.02928
-0.05368,0.0366,-0.01952,0.00732,0.03416,-0.04392,0.07808,0.07808,0.03904,0.01952,-0.01952,-0.0244
-0.04392,0.02684,-0.00976,0.0122,0.03416,-0.03904,0.0732,0.08784,0.03904,0.01952,-0.01952,-0.0244
-0.04392,0.0244,-0.00488,0.01708,0.03904,-0.04148,0.0732,0.08784,0.0488,0.01952,-0.01952,-0.0244
-0.0488,0.03416,-0.01952,0.00488,0.02928,-0.03904,0.07808,0.07808,0.03416,0.00976,-0.0244,-0.04392
-0.05368,0.04148,-0.02928,-0.00244,0.0244,-0.03904,0.07808,0.08296,0.03904,0.00976,-0.0244,-0.03904
-0.06344,0.0488,-0.03416,-0.00244,0.02928,-0.04636,0.0732,0.08296,0.03904,0.01464,-0.01952,-0.03904
-0.06344,0.0488,-0.03416,-0.00244,0.02928,-0.04636,0.06832,0.08296,0.03904,0.01952,-0.01952,-0.03904
-0.05368,0.03904,-0.0244,0.00244,0.02928,-0.04148,0.06832,0.0732,0.03904,0.01952,-0.0244,-0.0488
-0.05368,0.03416,-0.01464,0.0122,0.03904,-0.04636,0.06832,0.0732,0.04392,0.01952,-0.0244,-0.0488
-0.06344,0.04392,-0.0244,0.00732,0.03904,-0.05124,0.07808,0.08784,0.05856,0.03416,-0.00976,-0.03416
-0.05856,0.04636,-0.03416,-0.00488,0.0244,-0.04148,0.0732,0.08784,0.05856,0.03904,-0.00488,-0.02928
-0.04392,0.03172,-0.01952,0.00244,0.0244,-0.03416,0.06832,0.07808,0.05368,0.02928,-0.01464,-0.03904
-0.03904,0.02928,-0.01952,0,0.01952,-0.02928,0.06832,0.08296,0.05368,0.03416,-0.00976,-0.03904
-0.0488,0.02928,-0.00976,0.01464,0.03904,-0.04392,0.06832,0.09272,0.06832,0.04392,0,-0.01952
-0.0488,0.02684,-0.00488,0.01952,0.04392,-0.04636,0.06832,0.0976,0.06832,0.0488,0.00488,-0.01952
-0.0488,0.02684,-0.00488,0.01952,0.04392,-0.04636,0.06344,0.0976,0.06344,0.05368,0.00976,-0.01952
-0.04392,0.02196,0,0.02196,0.04392,-0.04392,0.06344,0.10248,0.06832,0.05856,0.01952,-0.01464
-0.03416,0.02196,-0.00976,0.00732,0.0244,-0.02928,0.05856,0.10248,0.06832,0.0488,0.00976,-0.01464
-0.03416,0.0244,-0.01464,0.00244,0.01952,-0.02684,0.06344,0.10248,0.08296,0.05856,0.01464,-0.01464
-0.03416,0.02196,-0.00976,0.00732,0.0244,-0.02928,0.06344,0.10736,0.08296,0.0732,0.0244,-0.00976
-0.03416,0.0244,-0.01464,0.00244,0.01952,-0.02684,0.06344,0.10736,0.08296,0.0732,0.02928,-0.00976
-0.0244,0.0122,0,0.0122,0.0244,-0.0244,0.06344,0.11224,0.08784,0.06832,0.02928,0
-0.03416,0.01464,0.00488,0.02196,0.03904,-0.0366,0.05368,0.11712,0.09272,0.07808,0.03904,0.00488
-0.01464,0,0.01464,0.02196,0.02928,-0.02196,0.04392,0.11712,0.10736,0.0976,0.0488,0.01952
-0.01464,-0.00244,0.01952,0.02684,0.03416,-0.0244,0.04392,0.12688,0.11712,0.10248,0.06344,0.03416
-0.00976,-0.00732,0.0244,0.02928,0.03416,-0.02196,0.05368,0.11712,0.122,0.10248,0.06832,0.0244
-0.00488,-0.00976,0.0244,0.02684,0.02928,-0.01708,0.05368,0.11712,0.12688,0.10248,0.06832,0.02928
-0.01464,0,0.01464,0.02196,0.02928,-0.02196,0.05368,0.122,0.12688,0.11712,0.06832,0.01952
-0.00976,0.00244,0.00488,0.00976,0.01464,-0.0122,0.04392,0.12688,0.12688,0.12688,0.07808,0.0244
0.00488,-0.0122,0.01952,0.01708,0.01464,-0.00488,0.0488,0.13664,0.15128,0.13664,0.08784,0.03416
0.00976,-0.02196,0.03416,0.02928,0.0244,-0.00732,0.0488,0.13664,0.16104,0.14152,0.10248,0.03904
0.01952,-0.02684,0.03416,0.0244,0.01464,0.00244,0.04392,0.1464,0.16104,0.16592,0.10736,0.04392
0.02928,-0.0366,0.04392,0.02928,0.01464,0.00732,0.04392,0.16104,0.16104,0.17568,0.11712,0.0488
0.02928,-0.04148,0.05368,0.03904,0.0244,0.00244,0.03416,0.15128,0.18544,0.18544,0.12688,0.05368
0.03416,-0.04392,0.05368,0.0366,0.01952,0.00732,0.02928,0.16592,0.1952,0.20984,0.15128,0.06344
0.04392,-0.0488,0.05368,0.03172,0.00976,0.01708,0.0244,0.16104,0.20984,0.20984,0.16104,0.07808
0.05856,-0.05856,0.05856,0.02928,0,0.02928,0.0244,0.17568,0.22448,0.23424,0.18544,0.10248
0.0488,-0.05856,0.06832,0.04392,0.01952,0.01464,0.01464,0.1952,0.23912,0.26352,0.20008,0.122
0.06832,-0.07076,0.0732,0.03904,0.00488,0.03172,0.00488,0.20008,0.24888,0.28304,0.20984,0.12688
0.06832,-0.0732,0.07808,0.04392,0.00976,0.02928,0.00488,0.20008,0.27816,0.30744,0.23424,0.13176
0.07808,-0.07808,0.07808,0.03904,0,0.03904,0.00488,0.20984,0.29768,0.32696,0.25376,0.13176
0.10736,-0.10492,0.10248,0.0488,-0.00488,0.05612,0,0.2196,0.30744,0.35624,0.2684,0.15128
0.13176,-0.12688,0.122,0.05612,-0.00976,0.07076,-0.00488,0.23424,0.32696,0.37088,0.28792,0.16104
0.14152,-0.12688,0.11224,0.04148,-0.02928,0.0854,-0.01464,0.24888,0.36112,0.4148,0.3172,0.1952
0.1464,-0.13176,0.11712,0.04392,-0.02928,0.08784,-0.01952,0.25864,0.37576,0.43432,0.3416,0.20008
0.1708,-0.1586,0.1464,0.061,-0.0244,0.0976,-0.01952,0.27328,0.39528,0.45384,0.35624,0.20496
0.18056,-0.16592,0.15128,0.061,-0.02928,0.10492,-0.01952,0.27816,0.4148,0.47336,0.38064,0.21472
0.20008,-0.18056,0.16104,0.061,-0.03904,0.11956,-0.03416,0.27816,0.43432,0.49288,0.38552,0.23424
0.2196,-0.1952,0.1708,0.061,-0.0488,0.1342,-0.04392,0.28792,0.45384,0.51728,0.40992,0.244
0.22448,-0.1952,0.16592,0.05368,-0.05856,0.14152,-0.05368,0.30256,0.47336,0.54656,0.42944,0.25864
0.23424,-0.20008,0.16592,0.0488,-0.06832,0.15128,-0.06344,0.30256,0.47824,0.5612,0.44408,0.27328
0.24888,-0.20984,0.1708,0.04636,-0.07808,0.16348,-0.06344,0.29768,0.48312,0.55632,0.44408,0.2684
0.26352,-0.2196,0.17568,0.04392,-0.08784,0.17568,-0.06344,0.2928,0.48312,0.5612,0.44408,0.2684
0.2684,-0.22204,0.17568,0.04148,-0.09272,0.18056,-0.06832,0.28792,0.48312,0.57584,0.44896,0.25864
0.2684,-0.22204,0.17568,0.04148,-0.09272,0.18056,-0.07808,0.28792,0.48312,0.56608,0.44896,0.26352
0.2684,-0.21716,0.16592,0.03172,-0.10248,0.18544,-0.08296,0.26352,0.45872,0.53192,0.42944,0.26352
0.2684,-0.21716,0.16592,0.03172,-0.10248,0.18544,-0.08296,0.244,0.43432,0.50264,0.40992,0.25864
0.23912,-0.19764,0.15616,0.0366,-0.08296,0.16104,-0.08296,0.22936,0.40992,0.47336,0.38552,0.22936
0.2196,-0.17812,0.13664,0.02684,-0.08296,0.15128,-0.07808,0.2196,0.38064,0.44896,0.36112,0.22448
0.19032,-0.16592,0.14152,0.04636,-0.0488,0.11956,-0.06344,0.18544,0.35136,0.40992,0.33672,0.20496
0.16592,-0.14396,0.122,0.03904,-0.04392,0.10492,-0.05368,0.16104,0.31232,0.36112,0.30744,0.18056
0.1464,-0.122,0.0976,0.0244,-0.0488,0.0976,-0.05856,0.14152,0.27816,0.32696,0.26352,0.1708
0.12688,-0.11224,0.0976,0.03416,-0.02928,0.07808,-0.05368,0.122,0.23912,0.28304,0.22936,0.1464
0.11224,-0.10004,0.08784,0.03172,-0.0244,0.06832,-0.0488,0.10736,0.20008,0.23424,0.20008,0.12688
0.08296,-0.07808,0.0732,0.03172,-0.00976,0.04636,-0.04392,0.08784,0.16592,0.1952,0.16592,0.10248
0.06832,-0.06344,0.05856,0.0244,-0.00976,0.03904,-0.03416,0.06832,0.13664,0.1464,0.13176,0.0732
0.03416,-0.04148,0.0488,0.03172,0.01464,0.00976,-0.0244,0.06344,0.122,0.13176,0.10248,0.06344
0.0244,-0.03172,0.03904,0.02684,0.01464,0.00488,-0.01952,0.05368,0.0976,0.11224,0.08784,0.0488
0.00488,-0.01708,0.02928,0.02684,0.0244,-0.00976,-0.01952,0.03416,0.0732,0.08784,0.08296,0.04392
-0.01464,-0.00244,0.01952,0.02684,0.03416,-0.0244,-0.00488,0.02928,0.06344,0.06344,0.04392,0.01952
-0.01464,0,0.01464,0.02196,0.02928,-0.02196,0.00976,0.02928,0.0488,0.04392,0.0244,0.00976
-0.0244,0.00488,0.01464,0.02684,0.03904,-0.03172,0.00488,0.01952,0.03904,0.04392,0.0244,-0.00488
-0.03416,0.0122,0.00976,0.02684,0.04392,-0.03904,0,0.01464,0.01952,0.03416,0.00976,-0.01464
-0.03416,0.0122,0.00976,0.02684,0.04392,-0.03904,0.00976,-0.00976,0.01464,0.01464,-0.00488,-0.0244
-0.03904,0.01708,0.00488,0.0244,0.04392,-0.04148,0.00976,-0.01952,0.00488,0.00976,-0.01464,-0.03416
-0.05856,0.03904,-0.01952,0.00976,0.03904,-0.0488,0.01464,-0.00488,0.00488,0.00976,-0.01464,-0.04392
-0.05856,0.03904,-0.01952,0.00976,0.03904,-0.0488,0.01464,0.00488,0.00488,0,-0.0244,-0.04392
-0.0488,0.03416,-0.01952,0.00488,0.02928,-0.03904,0,-0.00488,0,-0.00488,-0.0244,-0.03904
-0.0488,0.03416,-0.01952,0.00488,0.02928,-0.03904,0.00488,-0.00488,0,-0.00488,-0.0244,-0.03904
-0.05368,0.0366,-0.01952,0.00732,0.03416,-0.04392,0.01952,-0.01464,-0.00976,-0.00488,-0.01464,-0.0244
-0.05368,0.03416,-0.01464,0.0122,0.03904,-0.04636,0.01952,-0.01952,-0.00976,0,-0.01464,-0.01464
-0.05368,0.03416,-0.01464,0.0122,0.03904,-0.04636,0.00976,-0.01464,-0.01464,-0.01952,-0.01952,-0.02928
-0.04392,0.02928,-0.01464,0.00732,0.02928,-0.0366,0.00976,-0.00488,-0.01464,-0.01464,-0.01952,-0.03904
-0.05368,0.03416,-0.01464,0.0122,0.03904,-0.04636,0.00976,-0.00488,-0.00976,-0.00488,-0.01952,-0.03904
-0.05368,0.03416,-0.01464,0.0122,0.03904,-0.04636,0.00488,-0.00488,-0.00976,-0.00488,-0.0244,-0.03904
-0.04392,0.02928,-0.01464,0.00732,0.02928,-0.0366,0.00488,0.00488,0,0,-0.01952,-0.02928
-0.05368,0.03416,-0.01464,0.0122,0.03904,-0.04636,0,0,0,-0.00488,-0.01464,-0.03416
-0.06344,0.04148,-0.01952,0.0122,0.04392,-0.05368,0.01464,0,0,-0.00976,-0.0244,-0.04392
-0.05856,0.03416,-0.00976,0.01952,0.0488,-0.05368,0.01952,-0.00488,0,-0.00976,-0.0244,-0.03416
-0.0488,0.03172,-0.01464,0.00976,0.03416,-0.04148,0.00976,-0.00488,-0.00488,0,-0.0244,-0.0244
-0.0488,0.04148,-0.03416,-0.00976,0.01464,-0.03172,0.00976,-0.00488,0,0.00488,-0.01952,-0.01464
-0.04392,0.03416,-0.0244,-0.00244,0.01952,-0.03172,0.01952,0,0.00976,0.00488,-0.00488,-0.00488
-0.03904,0.02928,-0.01952,0,0.01952,-0.02928,0.01952,0.00488,0.01464,0.00976,-0.00488,-0.00488
-0.0488,0.03416,-0.01952,0.00488,0.02928,-0.03904,0.0244,0.00488,0.01464,0.00976,-0.00488,-0.00488
-0.05856,0.04392,-0.02928,0,0.02928,-0.04392,0.0244,0.00488,0.01464,0.00976,-0.00488,-0.00488
-0.0488,0.03172,-0.01464,0.00976,0.03416,-0.04148,0.01464,0,0.01952,0,-0.01464,-0.01464
-0.04392,0.01952,0.00488,0.02684,0.0488,-0.04636,0.00488,0,0.01464,0,-0.01464,-0.01952
-0.04392,0.0244,-0.00488,0.01708,0.03904,-0.04148,0.01952,0.00488,0.01464,0.00976,-0.00488,-0.01952
-0.0488,0.03172,-0.01464,0.00976,0.03416,-0.04148,0.01952,0.00976,0.01952,0.01464,0,-0.01464
-0.05368,0.03904,-0.0244,0.00244,0.02928,-0.04148,0.00976,0.00976,0.01464,0.01464,0,0
-0.06344,0.04636,-0.02928,0.00244,0.03416,-0.0488,0.01464,0.00976,0.01464,0.00976,0,0.01464
-0.05368,0.03416,-0.01464,0.0122,0.03904,-0.04636,0.00488,0,0.00488,0,-0.00976,0
-0.0488,0.03416,-0.01952,0.00488,0.02928,-0.03904,0.00976,0,0.00488,0,-0.00976,0
-0.04392,0.0244,-0.00488,0.01708,0.03904,-0.04148,0,-0.00976,0.00488,0,-0.01952,-0.01464
-0.0488,0.03172,-0.01464,0.00976,0.03416,-0.04148,0.00488,-0.00976,0.00488,0,-0.0244,-0.0244
-0.05368,0.02684,0,0.02684,0.05368,-0.05368,0.00976,0,0.00488,0.00976,-0.01464,-0.01952
-0.05856,0.02928,0,0.02928,0.05856,-0.05856,0.01952,-0.00488,0.00488,0.00488,-0.01952,-0.01952
-0.05368,0.02928,-0.00488,0.02196,0.0488,-0.05124,0.03416,-0.00488,0,-0.00488,-0.01952,-0.01952
-0.05856,0.02928,0,0.02928,0.05856,-0.05856,0.01952,-0.00976,0,-0.00976,-0.01952,-0.01464
-0.05368,0.03172,-0.00976,0.01708,0.04392,-0.0488,0.01464,-0.00976,0,-0.00976,-0.02928,-0.01464
-0.04392,0.0244,-0.00488,0.01708,0.03904,-0.04148,0.00976,-0.01464,0,-0.01464,-0.03904,-0.01464
-0.0488,0.02928,-0.00976,0.01464,0.03904,-0.04392,0.01464,-0.00488,-0.00488,-0.01464,-0.02928,-0.00488
-0.05856,0.03416,-0.00976,0.01952,0.0488,-0.05368,0.01952,-0.00488,-0.00488,-0.01464,-0.02928,0.00488
-0.05856,0.0366,-0.01464,0.01464,0.04392,-0.05124,0.01952,-0.01952,-0.00488,-0.00976,-0.01952,0.00976
-0.05368,0.03172,-0.00976,0.01708,0.04392,-0.0488,0.01952,-0.01464,-0.00488,-0.00976,-0.0244,0.00976
-0.0488,0.03416,-0.01952,0.00488,0.02928,-0.03904,0.00976,-0.01952,-0.00488,-0.01952,-0.03416,-0.00488
-0.03904,0.0244,-0.00976,0.00976,0.02928,-0.03416,0.00488,-0.01952,-0.00488,-0.0244,-0.03416,-0.00488
-0.04392,0.02684,-0.00976,0.0122,0.03416,-0.03904,0.00976,-0.01952,-0.00488,-0.0244,-0.0488,-0.00976
-0.04392,0.03416,-0.0244,-0.00244,0.01952,-0.03172,0.01952,-0.0244,0,-0.0244,-0.0488,-0.0244
-0.05856,0.03416,-0.00976,0.01952,0.0488,-0.05368,0.01952,-0.01464,-0.00488,-0.0244,-0.0488,-0.01952
-0.0488,0.02684,-0.00488,0.01952,0.04392,-0.04636,0.01952,-0.01464,-0.00976,-0.03416,-0.05368,-0.01464
-0.06344,0.03416,-0.00488,0.02684,0.05856,-0.061,0.00976,-0.02928,-0.01952,-0.03416,-0.05368,-0.01464
-0.0732,0.05124,-0.02928,0.00732,0.04392,-0.05856,0.00976,-0.0244,-0.01464,-0.02928,-0.05368,-0.01464
-0.06344,0.04392,-0.0244,0.00732,0.03904,-0.05124,0.01952,-0.01952,-0.00488,-0.02928,-0.04392,-0.00976
-0.06344,0.0488,-0.03416,-0.00244,0.02928,-0.04636,0.01952,-0.01952,-0.00976,-0.03416,-0.04392,-0.01464
-0.05856,0.0488,-0.03904,-0.00976,0.01952,-0.03904,0.00976,-0.01952,-0.00976,-0.03416,-0.0488,-0.00976
-0.05856,0.04636,-0.03416,-0.00488,0.0244,-0.04148,0.00976,-0.01952,-0.01952,-0.03904,-0.0488,-0.00976
-0.05856,0.0488,-0.03904,-0.00976,0.01952,-0.03904,0.01464,-0.01464,-0.00976,-0.02928,-0.03416,0.00976
-0.05856,0.04636,-0.03416,-0.00488,0.0244,-0.04148,0.01464,-0.01952,-0.01464,-0.0244,-0.03904,0.01464
-0.06344,0.04636,-0.02928,0.00244,0.03416,-0.0488,0.01464,-0.01952,-0.01464,-0.04392,-0.0488,-0.00488
-0.05856,0.04148,-0.0244,0.00488,0.03416,-0.04636,0.00976,-0.0244,-0.01464,-0.03904,-0.05368,-0.01464
-0.06344,0.04636,-0.02928,0.00244,0.03416,-0.0488,0.01464,-0.02928,-0.0244,-0.05368,-0.06344,-0.02928
-0.06832,0.061,-0.05368,-0.01952,0.01464,-0.04148,0.01464,-0.02928,-0.0244,-0.05368,-0.06832,-0.02928
-0.07808,0.06588,-0.05368,-0.01464,0.0244,-0.05124,0.0244,-0.02928,-0.0244,-0.04392,-0.05856,-0.02928
-0.08296,0.06832,-0.05368,-0.0122,0.02928,-0.05612,0.0244,-0.0244,-0.01952,-0.03904,-0.05856,-0.02928
-0.06344,0.05856,-0.05368,-0.02196,0.00976,-0.0366,0.0244,-0.01952,-0.01464,-0.03416,-0.05856,-0.01952
-0.05856,0.05368,-0.0488,-0.01952,0.00976,-0.03416,0.0244,-0.01952,-0.01464,-0.03416,-0.05856,-0.00488
-0.05368,0.05124,-0.0488,-0.02196,0.00488,-0.02928,0.0244,-0.00976,-0.00488,-0.02928,-0.0488,0.00976
-0.05856,0.05612,-0.05368,-0.0244,0.00488,-0.03172,0.0244,-0.00976,-0.00488,-0.0244,-0.0488,0
-0.06344,0.05368,-0.04392,-0.0122,0.01952,-0.04148,0.00976,-0.0244,-0.01464,-0.03904,-0.06344,-0.00488
-0.06344,0.05124,-0.03904,-0.00732,0.0244,-0.04392,0.00976,-0.03416,-0.01952,-0.0488,-0.06344,-0.00488
-0.06344,0.05368,-0.04392,-0.0122,0.01952,-0.04148,0.00488,-0.0244,-0.0244,-0.03416,-0.06344,-0.01464
-0.05856,0.05612,-0.05368,-0.0244,0.00488,-0.03172,0.00488,-0.01952,-0.01952,-0.03904,-0.06344,-0.01464
-0.06832,0.06344,-0.05856,-0.0244,0.00976,-0.03904,0.01952,-0.01952,-0.01952,-0.03416,-0.06344,-0.00488
-0.06832,0.06588,-0.06344,-0.02928,0.00488,-0.0366,0.02928,-0.0244,-0.01952,-0.03416,-0.06344,-0.01464
-0.06832,0.06588,-0.06344,-0.02928,0.00488,-0.0366,0.0244,-0.03416,-0.02928,-0.0488,-0.0732,-0.01952
-0.0732,0.06832,-0.06344,-0.02684,0.00976,-0.04148,0.01952,-0.03416,-0.02928,-0.0488,-0.0732,-0.0244
-0.06344,0.05368,-0.04392,-0.0122,0.01952,-0.04148,0.02928,-0.0244,-0.01952,-0.03416,-0.05368,0.00488
-0.06832,0.05856,-0.0488,-0.01464,0.01952,-0.04392,0.01952,-0.02928,-0.02928,-0.03904,-0.05856,0
-0.05856,0.05856,-0.05856,-0.02928,0,-0.02928,0.02928,-0.01952,-0.01952,-0.03904,-0.05856,0.00976
-0.05856,0.05856,-0.05856,-0.02928,0,-0.02928,0.02928,-0.01952,-0.01952,-0.03904,-0.05856,0.00976
-0.05856,0.05856,-0.05856,-0.02928,0,-0.02928,0.02928,-0.01952,-0.01952,-0.03904,-0.05856,0.00976
-0.05856,0.05856,-0.05856,-0.02928,0,-0.02928,0.02928,-0.01952,-0.01952,-0.03904,-0.05856,0.00976
-0.05856,0.05856,-0.05856,-0.02928,0,-0.02928,0.01952,-0.01952,-0.01952,-0.02928,-0.0488,0.01952
-0.05856,0.05856,-0.05856,-0.02928,0,-0.02928,0.01952,-0.01952,-0.01952,-0.02928,-0.0488,0.01952
-0.05856,0.05856,-0.05856,-0.02928,0,-0.02928,0.01952,-0.01952,-0.01952,-0.03904,-0.05856,0.00976
-0.05856,0.05856,-0.05856,-0.02928,0,-0.02928,0.01952,-0.01952,-0.01952,-0.03904,-0.06832,0.00976
-0.06832,0.06832,-0.06832,-0.03416,0,-0.03416,0.01952,-0.01952,-0.01952,-0.03904,-0.05856,0
-0.06832,0.06832,-0.06832,-0.03416,0,-0.03416,0.01952,-0.01952,-0.01952,-0.03904,-0.05856,0
-0.05856,0.05856,-0.05856,-0.02928,0,-0.02928,0.01952,-0.01952,-0.01952,-0.03904,-0.05856,0.00976
-0.0488,0.0488,-0.0488,-0.0244,0,-0.0244,0.01952,-0.01952,-0.01952,-0.03904,-0.05856,0.00976
-0.05856,0.05856,-0.05856,-0.02928,0,-0.02928,0.02928,-0.01952,-0.01952,-0.03904,-0.0488,0.00976
-0.05856,0.05856,-0.05856,-0.02928,0,-0.02928,0.02928,-0.01952,-0.01952,-0.03904,-0.0488,0.00976
-0.05856,0.05856,-0.05856,-0.02928,0,-0.02928,0.01952,-0.01952,-0.02928,-0.0488,-0.05856,0
-0.05856,0.05856,-0.05856,-0.02928,0,-0.02928,0.01952,-0.01952,-0.02928,-0.0488,-0.06832,0
-0.06832,0.06832,-0.06832,-0.03416,0,-0.03416,0.01952,-0.00976,-0.01952,-0.03904,-0.05856,0.00976
-0.06832,0.06832,-0.06832,-0.03416,0,-0.03416,0.01952,-0.00976,-0.01952,-0.03904,-0.05856,0.00976
-0.05856,0.06344,-0.06832,-0.03904,-0.00976,-0.0244,0.02928,-0.00976,-0.01952,-0.03904,-0.05856,0.01952
-0.05856,0.06344,-0.06832,-0.03904,-0.00976,-0.0244,0.02928,-0.00976,-0.01952,-0.03904,-0.05856,0.01952
-0.05856,0.06344,-0.06832,-0.03904,-0.00976,-0.0244,0.02928,-0.00976,-0.01952,-0.03904,-0.05856,0.00976
-0.05856,0.06344,-0.06832,-0.03904,-0.00976,-0.0244,0.02928,-0.00976,-0.01952,-0.03904,-0.05856,0.00976
-0.06832,0.0732,-0.07808,-0.04392,-0.00976,-0.02928,0.02928,0,-0.00976,-0.03904,-0.05856,0.01952
-0.06832,0.0732,-0.07808,-0.04392,-0.00976,-0.02928,0.02928,0,-0.00976,-0.03904,-0.05856,0.01952
-0.06832,0.06832,-0.06832,-0.03416,0,-0.03416,0.01952,-0.00976,-0.01952,-0.03904,-0.05856,0.00976
-0.06832,0.06832,-0.06832,-0.03416,0,-0.03416,0.01952,-0.00976,-0.01952,-0.03904,-0.05856,0
-0.07808,0.07808,-0.07808,-0.03904,0,-0.03904,0.02928,-0.00976,-0.00976,-0.02928,-0.05856,0.00976
-0.07808,0.08296,-0.08784,-0.0488,-0.00976,-0.03416,0.02928,-0.00976,-0.00976,-0.02928,-0.05856,0.01952
-0.06832,0.0732,-0.07808,-0.04392,-0.00976,-0.02928,0.01952,-0.01952,-0.01952,-0.02928,-0.05856,0.00976
-0.06832,0.06832,-0.06832,-0.03416,0,-0.03416,0.01952,-0.01952,-0.01952,-0.02928,-0.05856,0.00976
-0.05856,0.06832,-0.07808,-0.0488,-0.01952,-0.01952,0.01952,-0.00976,-0.00976,-0.03904,-0.05856,0.00976
-0.05856,0.06832,-0.07808,-0.0488,-0.01952,-0.01952,0.01952,0,-0.00976,-0.03904,-0.05856,0.00976
-0.06832,0.0732,-0.07808,-0.04392,-0.00976,-0.02928,0.02928,-0.00976,-0.00976,-0.03904,-0.05856,0.01952
-0.07808,0.07808,-0.07808,-0.03904,0,-0.03904,0.02928,-0.00976,-0.00976,-0.03904,-0.05856,0.01952
-0.06832,0.0732,-0.07808,-0.04392,-0.00976,-0.02928,0.02928,-0.00976,-0.01952,-0.03904,-0.05856,0.00976
-0.06832,0.0732,-0.07808,-0.04392,-0.00976,-0.02928,0.02928,-0.00976,-0.01952,-0.03904,-0.05856,0.00976
-0.06832,0.06832,-0.06832,-0.03416,0,-0.03416,0.02928,0,-0.00976,-0.02928,-0.05856,0.01952
-0.06832,0.06832,-0.06832,-0.03416,0,-0.03416,0.02928,0,-0.00976,-0.02928,-0.05856,0.01952
-0.06832,0.06832,-0.06832,-0.03416,0,-0.03416,0.02928,0,-0.01952,-0.02928,-0.0488,0.01952
-0.06832,0.06832,-0.06832,-0.03416,0,-0.03416,0.02928,0,-0.01952,-0.02928,-0.0488,0.01952
-0.06832,0.0732,-0.07808,-0.04392,-0.00976,-0.02928,0.02928,0,-0.01952,-0.02928,-0.0488,0.02928
-0.06832,0.07808,-0.08784,-0.05368,-0.01952,-0.0244,0.02928,0,-0.01952,-0.02928,-0.0488,0.02928
-0.06832,0.07808,-0.08784,-0.05368,-0.01952,-0.0244,0.02928,0,-0.01952,-0.03904,-0.05856,0.01952
-0.06832,0.07808,-0.08784,-0.05368,-0.01952,-0.0244,0.02928,0,-0.01952,-0.03904,-0.05856,0.01952
-0.06832,0.0732,-0.07808,-0.04392,-0.00976,-0.02928,0.02928,0,-0.01952,-0.02928,-0.05856,0.01952
-0.06832,0.0732,-0.07808,-0.04392,-0.00976,-0.02928,0.02928,0,-0.01952,-0.02928,-0.05856,0.01952
-0.05856,0.06832,-0.07808,-0.0488,-0.01952,-0.01952,0.02928,0,-0.01952,-0.02928,-0.0488,0.02928
-0.05856,0.06832,-0.07808,-0.0488,-0.01952,-0.01952,0.02928,0,-0.01952,-0.02928,-0.0488,0.02928
-0.06832,0.07808,-0.08784,-0.05368,-0.01952,-0.0244,0.01952,0,-0.00976,-0.02928,-0.05856,0.01952
-0.06832,0.07808,-0.08784,-0.05368,-0.01952,-0.0244,0.01952,0,-0.00976,-0.02928,-0.05856,0.01952
-0.07808,0.08296,-0.08784,-0.0488,-0.00976,-0.03416,0.02928,0,-0.01952,-0.02928,-0.05856,0.01952
-0.07808,0.08296,-0.08784,-0.0488,-0.00976,-0.03416,0.02928,0,-0.01952,-0.02928,-0.05856,0.01952
-0.06832,0.0732,-0.07808,-0.04392,-0.00976,-0.02928,0.01952,0,-0.01952,-0.02928,-0.05856,0.01952
-0.06832,0.0732,-0.07808,-0.04392,-0.00976,-0.02928,0.01952,0,-0.01952,-0.02928,-0.05856,0.01952
-0.07808,0.07808,-0.07808,-0.03904,0,-0.03904,0.01952,0,-0.01952,-0.03904,-0.0488,0.01952
-0.07808,0.07808,-0.07808,-0.03904,0,-0.03904,0.01952,0,-0.01952,-0.03904,-0.0488,0.01952
-0.06832,0.07808,-0.08784,-0.05368,-0.01952,-0.0244,0.01952,0,-0.01952,-0.03904,-0.05856,0.01952
-0.05856,0.0732,-0.08784,-0.05856,-0.02928,-0.01464,0.01952,0,-0.01952,-0.03904,-0.06832,0.01952
-0.06832,0.0732,-0.07808,-0.04392,-0.00976,-0.02928,0.02928,0,-0.00976,-0.02928,-0.05856,0.01952
-0.06832,0.0732,-0.07808,-0.04392,-0.00976,-0.02928,0.03904,0,-0.00976,-0.02928,-0.05856,0.01952
-0.06832,0.07808,-0.08784,-0.05368,-0.01952,-0.0244,0.02928,0,-0.01952,-0.02928,-0.05856,0.01952
-0.06832,0.07808,-0.08784,-0.05368,-0.01952,-0.0244,0.02928,0,-0.01952,-0.02928,-0.05856,0.01952
-0.06832,0.07808,-0.08784,-0.05368,-0.01952,-0.0244,0.02928,0,-0.01952,-0.02928,-0.05856,0.01952
-0.06832,0.07808,-0.08784,-0.05368,-0.01952,-0.0244,0.02928,0,-0.01952,-0.02928,-0.05856,0.01952
-0.07808,0.08296,-0.08784,-0.0488,-0.00976,-0.03416,0.02928,0,-0.01952,-0.02928,-0.05856,0.02928
-0.07808,0.08296,-0.08784,-0.0488,-0.00976,-0.03416,0.02928,0,-0.01952,-0.02928,-0.05856,0.02928
-0.06832,0.0732,-0.07808,-0.04392,-0.00976,-0.02928,0.01952,0,-0.00976,-0.01952,-0.0488,0.02928
-0.06832,0.0732,-0.07808,-0.04392,-0.00976,-0.02928,0.01952,0,-0.00976,-0.01952,-0.0488,0.02928
-0.06832,0.07808,-0.08784,-0.05368,-0.01952,-0.0244,0.02928,0.00976,-0.00976,-0.01952,-0.0488,0.01952
-0.06832,0.07808,-0.08784,-0.05368,-0.01952,-0.0244,0.03904,0.00976,-0.00976,-0.01952,-0.0488,0.01952
-0.06832,0.0732,-0.07808,-0.04392,-0.00976,-0.02928,0.02928,0,-0.00976,-0.01952,-0.05856,0.01952
-0.06832,0.0732,-0.07808,-0.04392,-0.00976,-0.02928,0.02928,0,-0.00976,-0.01952,-0.05856,0.01952
-0.05856,0.06832,-0.07808,-0.0488,-0.01952,-0.01952,0.01952,0,-0.00976,-0.02928,-0.05856,0.01952
-0.05856,0.06832,-0.07808,-0.0488,-0.01952,-0.01952,0.01952,0,-0.00976,-0.02928,-0.05856,0.01952
-0.06832,0.06832,-0.06832,-0.03416,0,-0.03416,0.02928,0,-0.00976,-0.02928,-0.06832,0.00976
-0.06832,0.06832,-0.06832,-0.03416,0,-0.03416,0.02928,0,-0.00976,-0.02928,-0.06832,0.00976
-0.07808,0.07808,-0.07808,-0.03904,0,-0.03904,0.02928,0,-0.00976,-0.02928,-0.05856,0.00976
-0.07808,0.08296,-0.08784,-0.0488,-0.00976,-0.03416,0.02928,0,-0.00976,-0.02928,-0.05856,0.00976
-0.06832,0.0732,-0.07808,-0.04392,-0.00976,-0.02928,0.01952,0,-0.00976,-0.03904,-0.06832,0.00976
-0.06832,0.0732,-0.07808,-0.04392,-0.00976,-0.02928,0.00976,0,-0.00976,-0.03904,-0.06832,0.00976
-0.06832,0.0732,-0.07808,-0.04392,-0.00976,-0.02928,0.01952,0,-0.00976,-0.03904,-0.06832,0
-0.06832,0.0732,-0.07808,-0.04392,-0.00976,-0.02928,0.02928,0,-0.00976,-0.03904,-0.06832,0
-0.06832,0.06832,-0.06832,-0.03416,0,-0.03416,0.02928,0,-0.00976,-0.03904,-0.06832,0
-0.06832,0.06832,-0.06832,-0.03416,0,-0.03416,0.02928,0,-0.00976,-0.03904,-0.06832,0
-0.07808,0.07808,-0.07808,-0.03904,0,-0.03904,0.02928,0,-0.00976,-0.02928,-0.06832,0.00976
-0.07808,0.07808,-0.07808,-0.03904,0,-0.03904,0.02928,0,-0.00976,-0.02928,-0.06832,0.00976
-0.06832,0.06832,-0.06832,-0.03416,0,-0.03416,0.02928,0,-0.00976,-0.02928,-0.06832,0
-0.06832,0.06832,-0.06832,-0.03416,0,-0.03416,0.02928,0,-0.00976,-0.02928,-0.06832,0
-0.06832,0.06344,-0.05856,-0.0244,0.00976,-0.03904,0.01952,0,-0.00976,-0.02928,-0.06832,0
-0.06832,0.06344,-0.05856,-0.0244,0.00976,-0.03904,0.00976,0,-0.00976,-0.02928,-0.06832,0
-0.06832,0.06344,-0.05856,-0.0244,0.00976,-0.03904,0.01952,0,-0.00976,-0.02928,-0.06832,0
-0.06832,0.06344,-0.05856,-0.0244,0.00976,-0.03904,0.01952,0,-0.00976,-0.02928,-0.06832,0
-0.06832,0.06344,-0.05856,-0.0244,0.00976,-0.03904,0.02928,0.00976,-0.00976,-0.02928,-0.07808,0
-0.06832,0.06344,-0.05856,-0.0244,0.00976,-0.03904,0.02928,0.00976,-0.00976,-0.02928,-0.07808,0
-0.06832,0.06832,-0.06832,-0.03416,0,-0.03416,0.03904,0.00976,-0.00976,-0.02928,-0.06832,0
-0.06832,0.06832,-0.06832,-0.03416,0,-0.03416,0.03904,0.00976,-0.00976,-0.02928,-0.06832,0
-0.06832,0.06344,-0.05856,-0.0244,0.00976,-0.03904,0.02928,0.00976,-0.00976,-0.02928,-0.07808,-0.00976
-0.06832,0.06344,-0.05856,-0.0244,0.00976,-0.03904,0.01952,0.00976,-0.00976,-0.02928,-0.07808,-0.00976
-0.05856,0.05368,-0.0488,-0.01952,0.00976,-0.03416,0.02928,0.00976,0,-0.02928,-0.06832,-0.00976
-0.05856,0.05368,-0.0488,-0.01952,0.00976,-0.03416,0.03904,0.00976,0,-0.02928,-0.06832,-0.00976
-0.05856,0.0488,-0.03904,-0.00976,0.01952,-0.03904,0.03904,0.00976,0.00976,-0.02928,-0.05856,0
-0.05856,0.04392,-0.02928,0,0.02928,-0.04392,0.03904,0.00976,0.00976,-0.02928,-0.05856,0
-0.0488,0.03416,-0.01952,0.00488,0.02928,-0.03904,0.0488,0.01952,0.01952,-0.01952,-0.05856,0
-0.0488,0.02928,-0.00976,0.01464,0.03904,-0.04392,0.05856,0.02928,0.02928,-0.00976,-0.05856,0
-0.05856,0.02928,0,0.02928,0.05856,-0.05856,0.07808,0.03904,0.03904,-0.00976,-0.0488,0.00976
-0.06832,0.03416,0,0.03416,0.06832,-0.06832,0.08784,0.03904,0.03904,-0.00976,-0.0488,0.00976
-0.05856,0.0244,0.00976,0.03904,0.06832,-0.06344,0.08784,0.0488,0.0488,0,-0.03904,0.01952
-0.0488,0.01952,0.00976,0.03416,0.05856,-0.05368,0.08784,0.0488,0.0488,0,-0.03904,0.01952
-0.03904,0.00976,0.01952,0.03904,0.05856,-0.0488,0.06832,0.05856,0.05856,0.00976,-0.02928,0.02928
-0.03904,0.00976,0.01952,0.03904,0.05856,-0.0488,0.05856,0.05856,0.05856,0.01952,-0.02928,0.02928
-0.02928,0.00488,0.01952,0.03416,0.0488,-0.03904,0.02928,0.0488,0.0488,0.01952,-0.02928,0.02928
-0.02928,0.00488,0.01952,0.03416,0.0488,-0.03904,0,0.03904,0.0488,0.01952,-0.02928,0.02928
-0.01952,0.00488,0.00976,0.01952,0.02928,-0.0244,-0.00976,0.02928,0.03904,0.00976,-0.03904,0.02928
-0.01952,0.00488,0.00976,0.01952,0.02928,-0.0244,-0.01952,0.02928,0.03904,0.00976,-0.03904,0.02928
-0.02928,0.01464,0,0.01464,0.02928,-0.02928,-0.01952,0.01952,0.02928,0,-0.0488,0.01952
-0.03904,0.0244,-0.00976,0.00976,0.02928,-0.03416,-0.01952,0.00976,0.01952,0,-0.0488,0.00976
-0.03904,0.01464,0.00976,0.02928,0.0488,-0.04392,-0.02928,0,0.01952,0,-0.03904,0.00976
-0.03904,0.00732,0.0244,0.04392,0.06344,-0.05124,-0.04392,-0.00488,0.00976,0,-0.03904,0.01464
-0.03904,0.00976,0.01952,0.03904,0.05856,-0.0488,-0.05856,-0.01464,0.00488,-0.01464,-0.0488,0.01464
-0.03904,0.00976,0.01952,0.03904,0.05856,-0.0488,-0.06832,-0.0244,-0.00488,-0.0244,-0.0488,0.01464
-0.02928,0.00732,0.01464,0.02928,0.04392,-0.0366,-0.06344,-0.03416,-0.00488,-0.01952,-0.0488,0.01952
-0.02928,0.00244,0.0244,0.03904,0.05368,-0.04148,-0.05856,-0.04392,-0.00976,-0.0244,-0.05368,0.01464
-0.01952,-0.00244,0.0244,0.03416,0.04392,-0.03172,-0.05368,-0.0488,-0.02928,-0.04392,-0.06832,0.00488
-0.01952,0,0.01952,0.02928,0.03904,-0.02928,-0.05368,-0.05368,-0.03904,-0.05856,-0.0732,-0.00488
-0.01952,0,0.01952,0.02928,0.03904,-0.02928,-0.05856,-0.05368,-0.04392,-0.05368,-0.08296,0
-0.01952,0,0.01952,0.02928,0.03904,-0.02928,-0.03904,-0.03904,-0.03416,-0.0488,-0.07808,0
-0.01952,-0.00488,0.02928,0.03904,0.0488,-0.03416,-0.02928,-0.03904,-0.03416,-0.0488,-0.06832,0
-0.03416,0.00488,0.0244,0.04148,0.05856,-0.04636,-0.00976,-0.02928,-0.03416,-0.04392,-0.06832,0
-0.0488,0.0244,0,0.0244,0.0488,-0.0488,-0.00976,-0.02928,-0.02928,-0.04392,-0.06832,0.00976
-0.06344,0.03416,-0.00488,0.02684,0.05856,-0.061,-0.00488,-0.03416,-0.03904,-0.0488,-0.08296,-0.00488
-0.04392,0.0244,-0.00488,0.01708,0.03904,-0.04148,0.00976,-0.03416,-0.03416,-0.05856,-0.08784,-0.0244
-0.05368,0.0366,-0.01952,0.00732,0.03416,-0.04392,0.03416,-0.01464,-0.0244,-0.05368,-0.08784,-0.02928
-0.04392,0.02928,-0.01464,0.00732,0.02928,-0.0366,0.02928,-0.00976,-0.0244,-0.04392,-0.09272,-0.02928
-0.05368,0.04392,-0.03416,-0.00732,0.01952,-0.0366,0.02928,-0.00976,-0.02928,-0.0488,-0.09272,-0.03904
-0.06344,0.05124,-0.03904,-0.00732,0.0244,-0.04392,0.03416,-0.01464,-0.02928,-0.05368,-0.10248,-0.03904
-0.06344,0.05368,-0.04392,-0.0122,0.01952,-0.04148,0.0244,-0.01952,-0.03416,-0.05856,-0.10248,-0.0488
-0.0732,0.05856,-0.04392,-0.00732,0.02928,-0.05124,0.03416,-0.00976,-0.02928,-0.05856,-0.09272,-0.0488
-0.08296,0.06344,-0.04392,-0.00244,0.03904,-0.061,0.03904,-0.00976,-0.02928,-0.05856,-0.0976,-0.0488
-0.08784,0.07076,-0.05368,-0.00976,0.03416,-0.061,0.02928,-0.01464,-0.03416,-0.05856,-0.10736,-0.05368
-0.09272,0.07076,-0.0488,-0.00244,0.04392,-0.06832,0.02928,-0.00976,-0.03416,-0.05856,-0.10736,-0.05368
-0.08296,0.07076,-0.05856,-0.01708,0.0244,-0.05368,0.0488,0,-0.02928,-0.05856,-0.10736,-0.06344
-0.08296,0.0732,-0.06344,-0.02196,0.01952,-0.05124,0.0488,-0.00488,-0.02928,-0.06344,-0.11224,-0.06344
-0.08784,0.07808,-0.06832,-0.0244,0.01952,-0.05368,0.04392,-0.00976,-0.02928,-0.06344,-0.11224,-0.06832
-0.09272,0.07808,-0.06344,-0.01708,0.02928,-0.061,0.04392,-0.00976,-0.02928,-0.05856,-0.11224,-0.06344
-0.08784,0.06832,-0.0488,-0.00488,0.03904,-0.06344,0.03904,-0.00488,-0.02928,-0.06832,-0.11224,-0.06832
-0.08296,0.06344,-0.04392,-0.00244,0.03904,-0.061,0.03416,-0.00488,-0.03416,-0.0732,-0.11224,-0.06832
-0.08784,0.06832,-0.0488,-0.00488,0.03904,-0.06344,0.04392,-0.01464,-0.02928,-0.06344,-0.10736,-0.06344
-0.08784,0.06832,-0.0488,-0.00488,0.03904,-0.06344,0.04392,-0.01464,-0.02928,-0.06344,-0.11712,-0.0732
-0.08784,0.06832,-0.0488,-0.00488,0.03904,-0.06344,0.0488,-0.00488,-0.0244,-0.06344,-0.11224,-0.06832
-0.08784,0.06832,-0.0488,-0.00488,0.03904,-0.06344,0.0488,-0.00488,-0.0244,-0.06344,-0.11224,-0.0732
-0.07808,0.06344,-0.0488,-0.00976,0.02928,-0.05368,0.04392,-0.00488,-0.0244,-0.06344,-0.11712,-0.0732
-0.0732,0.05856,-0.04392,-0.00732,0.02928,-0.05124,0.0488,-0.00488,-0.0244,-0.06344,-0.11712,-0.08296
-0.08296,0.06832,-0.05368,-0.0122,0.02928,-0.05612,0.06344,0.0244,-0.00488,-0.05368,-0.11224,-0.06344
-0.08784,0.06344,-0.03904,0.00488,0.0488,-0.06832,0.08296,0.06832,0.03904,-0.01464,-0.0976,-0.06832
-0.10248,0.06344,-0.0244,0.02684,0.07808,-0.09028,0.13664,0.12688,0.10736,0.03904,-0.06344,-0.05368
-0.11712,0.05856,0,0.05856,0.11712,-0.11712,0.17568,0.18544,0.16104,0.09272,-0.00976,-0.00976
-0.08784,0.0244,0.03904,0.08296,0.12688,-0.10736,0.16104,0.22936,0.2196,0.18056,0.07808,0.0732
-0.01952,-0.03416,0.08784,0.0976,0.10736,-0.06344,0.1464,0.3172,0.33184,0.3172,0.21472,0.18544
0.06344,-0.09028,0.11712,0.0854,0.05368,0.00488,0.1464,0.33184,0.37576,0.3904,0.32208,0.29768
0.08784,-0.12444,0.16104,0.11712,0.0732,0.00732,0.06832,0.1708,0.26352,0.33184,0.35624,0.38552
0.1464,-0.18056,0.21472,0.14152,0.06832,0.03904,-0.08784,-0.16592,0.02928,0.20008,0.39528,0.51728
0.20496,-0.25864,0.31232,0.20984,0.10736,0.0488,-0.38552,-0.70272,-0.32696,0.03416,0.4636,0.69296
0.3172,-0.31964,0.32208,0.16348,0.00488,0.15616,-0.73688,-1.37616,-0.76616,-0.18544,0.488,0.81496
0.43432,-0.32696,0.2196,0.00244,-0.21472,0.32452,-0.88328,-1.69336,-1.08824,-0.38064,0.45872,0.8052
0.5368,-0.24888,-0.03904,-0.30744,-0.57584,0.55632,-0.94184,-1.7812,-1.39568,-0.67344,0.20008,0.53192
0.54168,-0.08296,-0.37576,-0.6466,-0.91744,0.72956,-0.94184,-1.74216,-1.54696,-0.91744,-0.1708,0.10248
0.52704,0.01464,-0.55632,-0.81984,-1.08336,0.8052,-0.854,-1.58112,-1.53232,-1.02968,-0.43432,-0.1708
0.44408,0.0976,-0.63928,-0.86132,-1.08336,0.76372,-0.78568,-1.45912,-1.48352,-1.07848,-0.61976,-0.37088
0.37576,0.11956,-0.61488,-0.80276,-0.99064,0.6832,-0.67832,-1.35176,-1.38104,-1.07848,-0.71248,-0.44896
0.27816,0.16592,-0.61,-0.74908,-0.88816,0.58316,-0.52216,-1.14192,-1.1956,-1.0248,-0.75152,-0.49288
0.22936,0.183,-0.59536,-0.71004,-0.82472,0.52704,-0.4392,-0.93696,-1.01992,-0.9272,-0.74176,-0.50264
0.19032,0.14396,-0.47824,-0.5734,-0.66856,0.42944,-0.35624,-0.73688,-0.80032,-0.732,-0.64904,-0.44896
0.16592,0.10248,-0.37088,-0.45384,-0.5368,0.35136,-0.25864,-0.51728,-0.57584,-0.52216,-0.47824,-0.3416
0.08784,0.09272,-0.27328,-0.3172,-0.36112,0.22448,-0.1708,-0.3416,-0.39528,-0.38064,-0.3416,-0.23912
0.03904,0.08052,-0.20008,-0.2196,-0.23912,0.13908,-0.122,-0.25864,-0.29768,-0.30744,-0.28792,-0.20984
0.00488,0.07076,-0.1464,-0.14884,-0.15128,0.07808,-0.08296,-0.18544,-0.21472,-0.22448,-0.24888,-0.18056
-0.01464,0.061,-0.10736,-0.10004,-0.09272,0.03904,-0.0244,-0.0976,-0.13664,-0.13664,-0.18544,-0.13664
-0.0244,0.05612,-0.08784,-0.07564,-0.06344,0.01952,0.01464,-0.02928,-0.07808,-0.0976,-0.12688,-0.0976
-0.03904,0.06588,-0.09272,-0.0732,-0.05368,0.00732,0.0488,0.01464,-0.03416,-0.0732,-0.10736,-0.0732
-0.04392,0.06344,-0.08296,-0.061,-0.03904,-0.00244,0.04392,0.01952,-0.01952,-0.0488,-0.11224,-0.06832
-0.03904,0.05856,-0.07808,-0.05856,-0.03904,0,0.06832,0.04392,0,-0.01952,-0.09272,-0.07808
-0.0732,0.07564,-0.07808,-0.04148,-0.00488,-0.03416,0.07808,0.06832,0.01952,-0.00976,-0.08784,-0.0732
-0.06832,0.06832,-0.06832,-0.03416,0,-0.03416,0.08296,0.0732,0.0244,-0.01464,-0.07808,-0.06344
-0.05856,0.061,-0.06344,-0.03416,-0.00488,-0.02684,0.06832,0.06344,0.0244,-0.00976,-0.09272,-0.0732
-0.0488,0.0488,-0.0488,-0.0244,0,-0.0244,0.07808,0.07808,0.02928,-0.00976,-0.08784,-0.06344
-0.0488,0.04392,-0.03904,-0.01464,0.00976,-0.02928,0.07808,0.09272,0.03416,0,-0.08296,-0.06344
-0.05368,0.05124,-0.0488,-0.02196,0.00488,-0.02928,0.08784,0.08296,0.03904,0,-0.0732,-0.05368
-0.0488,0.0488,-0.0488,-0.0244,0,-0.0244,0.09272,0.08296,0.03904,-0.00488,-0.07808,-0.05368
-0.05856,0.04636,-0.03416,-0.00488,0.0244,-0.04148,0.09272,0.09272,0.0488,0.01464,-0.06832,-0.04392
-0.05856,0.04636,-0.03416,-0.00488,0.0244,-0.04148,0.0976,0.10248,0.05856,0.01952,-0.05368,-0.04392
-0.06832,0.05856,-0.0488,-0.01464,0.01952,-0.04392,0.0976,0.11224,0.0488,0.01464,-0.05856,-0.03904
-0.05856,0.05368,-0.0488,-0.01952,0.00976,-0.03416,0.0976,0.11224,0.0488,0.01464,-0.05856,-0.03904
-0.0488,0.0488,-0.0488,-0.0244,0,-0.0244,0.08784,0.10736,0.0488,0.00976,-0.05856,-0.0488
-0.0488,0.0488,-0.0488,-0.0244,0,-0.0244,0.08784,0.10736,0.05368,0.01464,-0.05856,-0.0488
-0.03904,0.0366,-0.03416,-0.01464,0.00488,-0.02196,0.08784,0.10736,0.05856,0.01464,-0.05368,-0.03904
-0.03904,0.03172,-0.0244,-0.00488,0.01464,-0.02684,0.08784,0.10736,0.05856,0.00976,-0.05368,-0.03904
-0.04392,0.04636,-0.0488,-0.02684,-0.00488,-0.01952,0.09272,0.10736,0.04392,0.01464,-0.05368,-0.0488
-0.04392,0.0488,-0.05368,-0.03172,-0.00976,-0.01708,0.0976,0.10736,0.04392,0.01464,-0.05368,-0.0488
-0.05368,0.05124,-0.0488,-0.02196,0.00488,-0.02928,0.0976,0.11224,0.05856,0.0244,-0.05368,-0.0488
-0.05368,0.05124,-0.0488,-0.02196,0.00488,-0.02928,0.0976,0.10736,0.05856,0.02928,-0.0488,-0.04392
-0.04392,0.05124,-0.05856,-0.0366,-0.01464,-0.01464,0.10248,0.11712,0.05856,0.02928,-0.03904,-0.03416
-0.04392,0.0488,-0.05368,-0.03172,-0.00976,-0.01708,0.10248,0.11712,0.06832,0.02928,-0.03904,-0.03416
-0.03904,0.04392,-0.0488,-0.02928,-0.00976,-0.01464,0.08784,0.11712,0.06344,0.02928,-0.04392,-0.04392
-0.04392,0.04636,-0.0488,-0.02684,-0.00488,-0.01952,0.08784,0.122,0.06832,0.02928,-0.04392,-0.03904
-0.04392,0.05368,-0.06344,-0.04148,-0.01952,-0.0122,0.09272,0.11224,0.06832,0.03416,-0.03904,-0.03904
-0.04392,0.05368,-0.06344,-0.04148,-0.01952,-0.0122,0.08784,0.11224,0.06832,0.03904,-0.03904,-0.03904
-0.05368,0.05368,-0.05368,-0.02684,0,-0.02684,0.08784,0.11224,0.05856,0.03904,-0.04392,-0.0488
-0.05368,0.0488,-0.04392,-0.01708,0.00976,-0.03172,0.08784,0.11224,0.06344,0.03904,-0.04392,-0.0488
-0.05368,0.05368,-0.05368,-0.02684,0,-0.02684,0.08784,0.11712,0.06832,0.03416,-0.03904,-0.04392
-0.0488,0.05124,-0.05368,-0.02928,-0.00488,-0.02196,0.08296,0.11712,0.06832,0.03904,-0.03416,-0.03904
-0.03416,0.04148,-0.0488,-0.03172,-0.01464,-0.00976,0.08784,0.11712,0.0732,0.0488,-0.03416,-0.02928
-0.02928,0.03904,-0.0488,-0.03416,-0.01952,-0.00488,0.08784,0.122,0.0732,0.05368,-0.02928,-0.02928
-0.01952,0.02928,-0.03904,-0.02928,-0.01952,0,0.08784,0.122,0.07808,0.05368,-0.01952,-0.01952
-0.01952,0.02684,-0.03416,-0.0244,-0.01464,-0.00244,0.08784,0.12688,0.07808,0.05856,-0.01464,-0.01952
-0.01952,0.02684,-0.03416,-0.0244,-0.01464,-0.00244,0.08296,0.11712,0.08296,0.05368,-0.01952,-0.02928
-0.01464,0.02196,-0.02928,-0.02196,-0.01464,0,0.08296,0.122,0.08784,0.05856,-0.00976,-0.0244
-0.01464,0.02196,-0.02928,-0.02196,-0.01464,0,0.06832,0.13176,0.08784,0.05856,-0.00976,-0.03416
-0.01464,0.01952,-0.0244,-0.01708,-0.00976,-0.00244,0.0732,0.13176,0.10248,0.06832,-0.00488,-0.03416
-0.01464,0.01708,-0.01952,-0.0122,-0.00488,-0.00488,0.08296,0.13664,0.10248,0.08296,0.00488,-0.02928
-0.01464,0.01952,-0.0244,-0.01708,-0.00976,-0.00244,0.08296,0.13664,0.10248,0.08296,0.00976,-0.02928
-0.00488,0.01708,-0.02928,-0.02684,-0.0244,0.00976,0.08296,0.14152,0.11712,0.08784,0.01952,-0.01952
-0.01464,0.01952,-0.0244,-0.01708,-0.00976,-0.00244,0.0732,0.1464,0.122,0.0976,0.02928,-0.00488
0.00488,0.00488,-0.01464,-0.01708,-0.01952,0.0122,0.0732,0.1464,0.12688,0.10736,0.02928,-0.00976
0.01464,-0.00244,-0.00976,-0.01708,-0.0244,0.01952,0.0732,0.15616,0.13664,0.11224,0.03416,0.00488
0.00976,0.00244,-0.01464,-0.01952,-0.0244,0.01708,0.0732,0.15616,0.13176,0.122,0.03904,0.01464
0.00488,0.00488,-0.01464,-0.01708,-0.01952,0.0122,0.0732,0.15616,0.13664,0.122,0.03904,0.01952
0.00488,0,-0.00488,-0.00732,-0.00976,0.00732,0.06344,0.16104,0.15616,0.13664,0.05856,0.00976
0.00976,-0.00244,-0.00488,-0.00976,-0.01464,0.0122,0.05368,0.16592,0.15616,0.1464,0.06832,0.01464
0.0244,-0.0122,0,-0.0122,-0.0244,0.0244,0.05856,0.17568,0.1708,0.16592,0.07808,0.03416
0.02928,-0.01708,0.00488,-0.00976,-0.0244,0.02684,0.06832,0.17568,0.18056,0.1708,0.09272,0.03904
0.02928,-0.01708,0.00488,-0.00976,-0.0244,0.02684,0.05368,0.17568,0.18056,0.18544,0.0976,0.04392
0.03904,-0.02684,0.01464,-0.00488,-0.0244,0.03172,0.05368,0.19032,0.19032,0.1952,0.10736,0.0488
0.0488,-0.03172,0.01464,-0.00976,-0.03416,0.04148,0.05368,0.19032,0.21472,0.20496,0.11712,0.06344
0.05368,-0.03416,0.01464,-0.0122,-0.03904,0.04636,0.0488,0.20496,0.22448,0.22936,0.14152,0.0732
0.06344,-0.0488,0.03416,0.00244,-0.02928,0.04636,0.04392,0.20984,0.23912,0.24888,0.16104,0.07808
0.07808,-0.05856,0.03904,0,-0.03904,0.05856,0.04392,0.22448,0.25376,0.27328,0.18544,0.10248
0.07808,-0.05856,0.03904,0,-0.03904,0.05856,0.03416,0.23424,0.27816,0.2928,0.20008,0.11224
0.0976,-0.07076,0.04392,-0.00488,-0.05368,0.07564,0.0244,0.23912,0.28792,0.31232,0.20984,0.11712
0.0976,-0.07808,0.05856,0.00976,-0.03904,0.06832,0.0244,0.24888,0.30744,0.34648,0.23424,0.122
0.10736,-0.08296,0.05856,0.00488,-0.0488,0.07808,0.0244,0.25864,0.32696,0.366,0.25376,0.13176
0.12688,-0.10004,0.0732,0.00976,-0.05368,0.09028,0.01952,0.2684,0.35624,0.39528,0.27816,0.15128
0.14152,-0.11224,0.08296,0.0122,-0.05856,0.10004,0.01464,0.28304,0.37576,0.40016,0.29768,0.16104
0.16104,-0.12688,0.09272,0.0122,-0.06832,0.11468,0.00488,0.28792,0.40016,0.43432,0.30744,0.18544
0.16592,-0.13664,0.10736,0.0244,-0.05856,0.11224,0,0.29768,0.40504,0.45384,0.33184,0.19032
0.19032,-0.1586,0.12688,0.03172,-0.06344,0.12688,-0.00976,0.31232,0.42456,0.49288,0.35624,0.21472
0.20008,-0.16592,0.13176,0.03172,-0.06832,0.1342,-0.00976,0.3172,0.45384,0.5124,0.38064,0.22448
0.20984,-0.1708,0.13176,0.02684,-0.07808,0.14396,-0.0244,0.3172,0.4636,0.52216,0.38552,0.22448
0.22936,-0.18544,0.14152,0.02684,-0.08784,0.1586,-0.0244,0.32696,0.47336,0.54656,0.40992,0.23424
0.244,-0.1952,0.1464,0.0244,-0.0976,0.1708,-0.0244,0.3416,0.50264,0.56608,0.41968,0.24888
0.25376,-0.20008,0.1464,0.01952,-0.10736,0.18056,-0.03416,0.3416,0.50752,0.58072,0.43432,0.26352
0.2684,-0.21472,0.16104,0.02684,-0.10736,0.18788,-0.05368,0.33672,0.5124,0.5856,0.44408,0.2684
0.28304,-0.22936,0.17568,0.03416,-0.10736,0.1952,-0.05368,0.33184,0.5124,0.59048,0.44408,0.2684
0.28792,-0.22692,0.16592,0.02196,-0.122,0.20496,-0.05856,0.3172,0.50264,0.5856,0.4392,0.25864
0.28792,-0.22204,0.15616,0.0122,-0.13176,0.20984,-0.06832,0.30744,0.50264,0.57584,0.4392,0.26352
0.27816,-0.21716,0.15616,0.01708,-0.122,0.20008,-0.05368,0.30256,0.488,0.55144,0.42944,0.26352
0.27816,-0.21716,0.15616,0.01708,-0.122,0.20008,-0.05368,0.28304,0.4636,0.52216,0.40992,0.25864
0.24888,-0.20252,0.15616,0.03172,-0.09272,0.1708,-0.06344,0.24888,0.41968,0.48312,0.37576,0.23912
0.22936,-0.183,0.13664,0.02196,-0.09272,0.16104,-0.05856,0.22936,0.3904,0.44896,0.35136,0.23424
0.20984,-0.1708,0.13176,0.02684,-0.07808,0.14396,-0.04392,0.21472,0.36112,0.40992,0.3172,0.20496
0.18544,-0.14884,0.11224,0.01952,-0.0732,0.12932,-0.03416,0.19032,0.32208,0.36112,0.28792,0.18056
0.15616,-0.13176,0.10736,0.02928,-0.0488,0.10248,-0.03904,0.16104,0.2684,0.3172,0.244,0.16104
0.13664,-0.122,0.10736,0.03904,-0.02928,0.08296,-0.03416,0.14152,0.22936,0.27328,0.20984,0.13664
0.122,-0.10004,0.07808,0.01708,-0.04392,0.08296,-0.02928,0.12688,0.20984,0.22448,0.18056,0.10736
0.09272,-0.0732,0.05368,0.00732,-0.03904,0.06588,-0.0244,0.10736,0.17568,0.18544,0.1464,0.08296
0.07808,-0.05856,0.03904,0,-0.03904,0.05856,-0.01464,0.08784,0.1464,0.15616,0.122,0.0732
0.04392,-0.0366,0.02928,0.00732,-0.01464,0.02928,-0.00488,0.08296,0.13176,0.14152,0.10248,0.06344
0.0244,-0.02196,0.01952,0.00732,-0.00488,0.01464,0,0.0732,0.10736,0.11224,0.07808,0.03904
0.00488,-0.00732,0.00976,0.00732,0.00488,0,0,0.05368,0.08296,0.08784,0.06344,0.0244
0.00488,-0.00244,0,-0.00244,-0.00488,0.00488,-0.00488,0.0488,0.06344,0.0732,0.03416,0.00976
0.00488,0,-0.00488,-0.00732,-0.00976,0.00732,0,0.0488,0.0488,0.05368,0.0244,0
-0.00488,0.00976,-0.01464,-0.0122,-0.00976,0.00244,0.01464,0.03904,0.0488,0.03416,0.01464,-0.00488
-0.01464,0.01708,-0.01952,-0.0122,-0.00488,-0.00488,0.01952,0.03416,0.02928,0.0244,0,-0.01464
-0.01464,0.0122,-0.00976,-0.00244,0.00488,-0.00976,0.00976,0.01952,0.01464,0.00488,-0.01464,-0.0244
-0.01952,0.01708,-0.01464,-0.00488,0.00488,-0.0122,0,0.00976,0.00488,0,-0.0244,-0.03416
-0.01952,0.02928,-0.03904,-0.02928,-0.01952,0,0.01464,0.0244,0.01464,0,-0.01464,-0.03416
-0.01952,0.02928,-0.03904,-0.02928,-0.01952,0,0.0244,0.0244,0.01464,-0.00976,-0.0244,-0.03416
-0.02928,0.02928,-0.02928,-0.01464,0,-0.01464,0.00976,0.01464,0.00976,-0.00488,-0.01464,-0.03904
-0.02928,0.02928,-0.02928,-0.01464,0,-0.01464,0.01464,0.01464,0.00976,-0.00488,-0.01464,-0.03904
-0.04392,0.0366,-0.02928,-0.00732,0.01464,-0.02928,0.02928,0.01464,0,-0.01464,-0.0244,-0.04392
-0.04392,0.03416,-0.0244,-0.00244,0.01952,-0.03172,0.02928,0.00976,0,-0.00976,-0.0244,-0.04392
-0.03416,0.02928,-0.0244,-0.00732,0.00976,-0.02196,0.01952,0.00488,-0.00488,-0.01952,-0.02928,-0.0488
-0.0244,0.0244,-0.0244,-0.0122,0,-0.0122,0.01952,0.01464,-0.00488,-0.01464,-0.02928,-0.0488
-0.0244,0.0244,-0.0244,-0.0122,0,-0.0122,0.02928,0.0244,0,-0.00488,-0.01952,-0.03904
-0.0244,0.0244,-0.0244,-0.0122,0,-0.0122,0.03416,0.0244,0,-0.00488,-0.0244,-0.03904
-0.0244,0.0244,-0.0244,-0.0122,0,-0.0122,0.0244,0.0244,0,0,-0.02928,-0.03904
-0.03416,0.02928,-0.0244,-0.00732,0.00976,-0.02196,0.01952,0.01952,0,-0.00488,-0.0244,-0.04392
-0.03416,0.02684,-0.01952,-0.00244,0.01464,-0.0244,0.0244,0.01952,0.00976,0,-0.0244,-0.04392
-0.02928,0.01952,-0.00976,0.00488,0.01952,-0.0244,0.02928,0.0244,0.00976,0,-0.0244,-0.03416
-0.02928,0.01708,-0.00488,0.00976,0.0244,-0.02684,0.02928,0.01464,0.01464,0,-0.0244,-0.04392
-0.02928,0.02196,-0.01464,0,0.01464,-0.02196,0.02928,0.01464,0.01952,0.00488,-0.01952,-0.03416
-0.0244,0.01952,-0.01464,-0.00244,0.00976,-0.01708,0.01952,0.02928,0.00976,0.00488,-0.00488,-0.0244
-0.01952,0.01952,-0.01952,-0.00976,0,-0.00976,0.01952,0.03416,0.01464,0.00976,-0.00488,-0.0244
-0.01952,0.00976,0,0.00976,0.01952,-0.01952,0.0244,0.03416,0.01464,0.00976,-0.01464,-0.0244
-0.01952,0.01464,-0.00976,0,0.00976,-0.01464,0.0244,0.03416,0.01464,0.00976,-0.01464,-0.0244
-0.02928,0.02196,-0.01464,0,0.01464,-0.02196,0.0244,0.02928,0.01952,0,-0.01464,-0.03416
-0.0244,0.01464,-0.00488,0.00732,0.01952,-0.02196,0.01464,0.02928,0.01464,0,-0.01464,-0.03904
-0.01464,0.00976,-0.00488,0.00244,0.00976,-0.0122,0.02928,0.03416,0.01464,0,-0.01464,-0.02928
-0.01952,0.01708,-0.01464,-0.00488,0.00488,-0.0122,0.02928,0.03904,0.01952,0.00488,-0.00976,-0.0244
-0.0244,0.01952,-0.01464,-0.00244,0.00976,-0.01708,0.02928,0.03904,0.0244,0.01464,-0.00976,-0.02928
-0.0244,0.01708,-0.00976,0.00244,0.01464,-0.01952,0.03416,0.03904,0.0244,0.00976,-0.00976,-0.0244
-0.01464,0.00976,-0.00488,0.00244,0.00976,-0.0122,0.01464,0.02928,0.01464,0,-0.00976,-0.02928
-0.00976,0.00976,-0.00976,-0.00488,0,-0.00488,0.01952,0.02928,0.01464,0,-0.00976,-0.02928
-0.00488,0,0.00488,0.00732,0.00976,-0.00732,0.00976,0.01952,0.01464,0,-0.01952,-0.03416
-0.00976,0.00732,-0.00488,0,0.00488,-0.00732,0.01464,0.01952,0.01464,0,-0.0244,-0.03416
-0.01464,0.00732,0,0.00732,0.01464,-0.01464,0.01952,0.02928,0.00488,0,-0.01464,-0.02928
-0.01952,0.00976,0,0.00976,0.01952,-0.01952,0.01952,0.0244,0.00488,-0.00488,-0.01952,-0.02928
-0.0244,0.01464,-0.00488,0.00732,0.01952,-0.02196,0.03416,0.01464,0.00976,-0.00488,-0.01952,-0.02928
-0.02928,0.01464,0,0.01464,0.02928,-0.02928,0.01952,0.00976,0.00976,-0.00976,-0.01952,-0.0244
-0.03416,0.01708,0,0.01708,0.03416,-0.03416,0.0244,0.01952,0,-0.00976,-0.02928,-0.04392
-0.0244,0.00976,0.00488,0.01708,0.02928,-0.02684,0.01952,0.01464,0,-0.01464,-0.03904,-0.04392
-0.01952,0.01464,-0.00976,0,0.00976,-0.01464,0.01464,0.01464,-0.00488,-0.01464,-0.02928,-0.03416
-0.01952,0.01464,-0.00976,0,0.00976,-0.01464,0.01952,0.01464,-0.00488,-0.01464,-0.02928,-0.0244
-0.02928,0.02196,-0.01464,0,0.01464,-0.02196,0.02928,0,-0.01464,-0.01952,-0.03904,-0.03904
-0.0244,0.01708,-0.00976,0.00244,0.01464,-0.01952,0.02928,0.00488,-0.01464,-0.01952,-0.04392,-0.03904
-0.01952,0.01464,-0.00976,0,0.00976,-0.01464,0.01952,0.00976,-0.00488,-0.02928,-0.04392,-0.05368
-0.00976,0.00488,0,0.00488,0.00976,-0.00976,0.0244,0.00976,-0.00488,-0.03416,-0.04392,-0.05368
-0.0244,0.0122,0,0.0122,0.0244,-0.0244,0.02928,0.00976,-0.00488,-0.0244,-0.03904,-0.03904
-0.0244,0.01952,-0.01464,-0.00244,0.00976,-0.01708,0.02928,0.00488,0,-0.0244,-0.03904,-0.04392
-0.03904,0.0244,-0.00976,0.00976,0.02928,-0.03416,0.01952,0.00488,-0.01464,-0.03416,-0.03904,-0.0488
-0.02928,0.01708,-0.00488,0.00976,0.0244,-0.02684,0.01952,0.00488,-0.01952,-0.04392,-0.04392,-0.04392
-0.0244,0.00976,0.00488,0.01708,0.02928,-0.02684,0.00976,0,-0.01952,-0.03416,-0.04392,-0.05368
-0.01464,0.0122,-0.00976,-0.00244,0.00488,-0.00976,0.00976,0.00488,-0.01464,-0.02928,-0.04392,-0.05368
-0.0244,0.00976,0.00488,0.01708,0.02928,-0.02684,0.01952,0,-0.01464,-0.03904,-0.05368,-0.0488
-0.03416,0.01952,-0.00488,0.0122,0.02928,-0.03172,0.01952,0,-0.01952,-0.04392,-0.05368,-0.05368
-0.02928,0.01952,-0.00976,0.00488,0.01952,-0.0244,0.02928,0,-0.00976,-0.03416,-0.0488,-0.0488
-0.02928,0.01708,-0.00488,0.00976,0.0244,-0.02684,0.02928,0,-0.01952,-0.03904,-0.0488,-0.0488
-0.02928,0.0244,-0.01952,-0.00488,0.00976,-0.01952,0.0244,-0.00488,-0.01952,-0.0488,-0.05368,-0.0488
-0.02928,0.02196,-0.01464,0,0.01464,-0.02196,0.0244,-0.00976,-0.0244,-0.04392,-0.05856,-0.05368
-0.04392,0.0366,-0.02928,-0.00732,0.01464,-0.02928,0.0244,0,-0.0244,-0.04392,-0.0488,-0.05368
-0.03904,0.03172,-0.0244,-0.00488,0.01464,-0.02684,0.01952,0.00488,-0.0244,-0.03904,-0.05368,-0.05368
-0.03416,0.02196,-0.00976,0.00732,0.0244,-0.02928,0.01464,0,-0.01464,-0.05368,-0.05368,-0.05856
-0.02928,0.02684,-0.0244,-0.00976,0.00488,-0.01708,0.01464,0,-0.01464,-0.05368,-0.0488,-0.05856
-0.03904,0.02684,-0.01464,0.00488,0.0244,-0.03172,0.0244,0,-0.0244,-0.05368,-0.0488,-0.0488
-0.04392,0.02928,-0.01464,0.00732,0.02928,-0.0366,0.0244,0.00488,-0.01952,-0.0488,-0.0488,-0.0488
-0.04392,0.03416,-0.0244,-0.00244,0.01952,-0.03172,0.0244,0,-0.0244,-0.05368,-0.05856,-0.05856
-0.03904,0.02928,-0.01952,0,0.01952,-0.02928,0.0244,0,-0.0244,-0.05368,-0.05856,-0.05368
-0.03416,0.02684,-0.01952,-0.00244,0.01464,-0.0244,0.0244,0,-0.0244,-0.0488,-0.05856,-0.0488
-0.03904,0.03172,-0.0244,-0.00488,0.01464,-0.02684,0.0244,0,-0.0244,-0.04392,-0.05856,-0.05856
-0.03416,0.03416,-0.03416,-0.01708,0,-0.01708,0.01952,-0.00488,-0.03416,-0.0488,-0.06344,-0.05368
-0.03416,0.03172,-0.02928,-0.0122,0.00488,-0.01952,0.01952,-0.00488,-0.03904,-0.05856,-0.06344,-0.05368
-0.0244,0.01952,-0.01464,-0.00244,0.00976,-0.01708,0.03416,-0.00488,-0.03416,-0.05368,-0.05368,-0.04392
-0.01952,0.02196,-0.0244,-0.01464,-0.00488,-0.00732,0.03416,0,-0.02928,-0.05856,-0.05368,-0.04392
-0.00976,0.01464,-0.01952,-0.01464,-0.00976,0,0.01952,-0.00976,-0.03904,-0.06344,-0.06344,-0.05368
-0.00976,0.01708,-0.0244,-0.01952,-0.01464,0.00244,0.00976,-0.01464,-0.03904,-0.06344,-0.06344,-0.0732
-0.01952,0.02196,-0.0244,-0.01464,-0.00488,-0.00732,0.0244,-0.00488,-0.02928,-0.05856,-0.05368,-0.05856
-0.03416,0.02928,-0.0244,-0.00732,0.00976,-0.02196,0.02928,-0.00488,-0.02928,-0.05856,-0.05368,-0.05368
-0.05368,0.04392,-0.03416,-0.00732,0.01952,-0.0366,0.03904,0.00488,-0.02928,-0.04392,-0.05368,-0.04392
-0.0488,0.03416,-0.01952,0.00488,0.02928,-0.03904,0.03904,0.00976,-0.01952,-0.0488,-0.0488,-0.0488
-0.03904,0.02928,-0.01952,0,0.01952,-0.02928,0.02928,0,-0.02928,-0.0488,-0.05856,-0.0488
-0.03904,0.02928,-0.01952,0,0.01952,-0.02928,0.01952,0,-0.02928,-0.0488,-0.05856,-0.0488
-0.02928,0.01952,-0.00976,0.00488,0.01952,-0.0244,0.01952,-0.00976,-0.03904,-0.0488,-0.05856,-0.0488
-0.02928,0.01952,-0.00976,0.00488,0.01952,-0.0244,0.01952,-0.00976,-0.03904,-0.0488,-0.05856,-0.0488
-0.02928,0.01952,-0.00976,0.00488,0.01952,-0.0244,0.01952,-0.00976,-0.03904,-0.0488,-0.05856,-0.0488
-0.02928,0.01952,-0.00976,0.00488,0.01952,-0.0244,0.01952,-0.00976,-0.03904,-0.0488,-0.05856,-0.0488
-0.02928,0.0244,-0.01952,-0.00488,0.00976,-0.01952,0.01952,-0.00976,-0.03904,-0.05856,-0.05856,-0.05856
-0.02928,0.0244,-0.01952,-0.00488,0.00976,-0.01952,0.01952,-0.00976,-0.03904,-0.06832,-0.05856,-0.05856
-0.02928,0.01952,-0.00976,0.00488,0.01952,-0.0244,0.01952,-0.00976,-0.03904,-0.05856,-0.05856,-0.05856
-0.02928,0.01952,-0.00976,0.00488,0.01952,-0.0244,0.01952,-0.00976,-0.03904,-0.05856,-0.05856,-0.05856
-0.02928,0.01952,-0.00976,0.00488,0.01952,-0.0244,0.00976,-0.00976,-0.02928,-0.05856,-0.06832,-0.05856
-0.02928,0.01952,-0.00976,0.00488,0.01952,-0.0244,0.00976,-0.00976,-0.02928,-0.05856,-0.06832,-0.05856
-0.02928,0.0244,-0.01952,-0.00488,0.00976,-0.01952,0.01952,-0.00976,-0.02928,-0.05856,-0.06832,-0.0488
-0.02928,0.0244,-0.01952,-0.00488,0.00976,-0.01952,0.01952,-0.00976,-0.02928,-0.05856,-0.06832,-0.0488
-0.03904,0.02928,-0.01952,0,0.01952,-0.02928,0.01952,0,-0.01952,-0.0488,-0.05856,-0.0488
-0.03904,0.02928,-0.01952,0,0.01952,-0.02928,0.01952,0,-0.01952,-0.0488,-0.05856,-0.0488
-0.03904,0.0244,-0.00976,0.00976,0.02928,-0.03416,0.01952,0,-0.02928,-0.0488,-0.05856,-0.03904
-0.03904,0.0244,-0.00976,0.00976,0.02928,-0.03416,0.01952,0,-0.02928,-0.0488,-0.05856,-0.03904
-0.02928,0.0244,-0.01952,-0.00488,0.00976,-0.01952,0.00976,-0.00976,-0.02928,-0.05856,-0.05856,-0.0488
-0.02928,0.0244,-0.01952,-0.00488,0.00976,-0.01952,0.00976,-0.00976,-0.02928,-0.05856,-0.05856,-0.0488
-0.03904,0.03416,-0.02928,-0.00976,0.00976,-0.0244,0.00976,-0.00976,-0.03904,-0.05856,-0.06832,-0.0488
-0.03904,0.03416,-0.02928,-0.00976,0.00976,-0.0244,0.00976,-0.00976,-0.03904,-0.05856,-0.06832,-0.0488
-0.03904,0.02928,-0.01952,0,0.01952,-0.02928,0.01952,-0.00976,-0.03904,-0.05856,-0.05856,-0.0488
-0.03904,0.02928,-0.01952,0,0.01952,-0.02928,0.01952,-0.00976,-0.03904,-0.05856,-0.05856,-0.0488
-0.02928,0.02928,-0.02928,-0.01464,0,-0.01464,0.01952,-0.00976,-0.03904,-0.05856,-0.05856,-0.0488
-0.02928,0.03416,-0.03904,-0.0244,-0.00976,-0.00976,0.01952,-0.00976,-0.03904,-0.05856,-0.05856,-0.0488
-0.03904,0.03904,-0.03904,-0.01952,0,-0.01952,0.01952,0,-0.02928,-0.05856,-0.05856,-0.0488
-0.03904,0.03904,-0.03904,-0.01952,0,-0.01952,0.01952,0,-0.02928,-0.05856,-0.05856,-0.0488
-0.0488,0.03904,-0.02928,-0.00488,0.01952,-0.03416,0.01952,-0.00976,-0.02928,-0.0488,-0.0488,-0.03904
-0.0488,0.03904,-0.02928,-0.00488,0.01952,-0.03416,0.01952,-0.00976,-0.02928,-0.0488,-0.03904,-0.02928
-0.03904,0.03416,-0.02928,-0.00976,0.00976,-0.0244,0.01952,-0.00976,-0.02928,-0.05856,-0.0488,-0.03904
-0.03904,0.03416,-0.02928,-0.00976,0.00976,-0.0244,0.01952,-0.00976,-0.02928,-0.05856,-0.0488,-0.03904
-0.03904,0.02928,-0.01952,0,0.01952,-0.02928,0.01952,-0.00976,-0.02928,-0.0488,-0.0488,-0.03904
-0.03904,0.02928,-0.01952,0,0.01952,-0.02928,0.01952,-0.00976,-0.02928,-0.0488,-0.0488,-0.03904
-0.03904,0.03416,-0.02928,-0.00976,0.00976,-0.0244,0.01952,0,-0.02928,-0.0488,-0.0488,-0.02928
-0.03904,0.03416,-0.02928,-0.00976,0.00976,-0.0244,0.01952,0,-0.02928,-0.0488,-0.0488,-0.02928
-0.02928,0.02928,-0.02928,-0.01464,0,-0.01464,0.01952,-0.00976,-0.02928,-0.0488,-0.0488,-0.03904
-0.02928,0.02928,-0.02928,-0.01464,0,-0.01464,0.01952,-0.00976,-0.02928,-0.0488,-0.0488,-0.03904
-0.02928,0.02928,-0.02928,-0.01464,0,-0.01464,0.01952,-0.00976,-0.03904,-0.0488,-0.0488,-0.03904
-0.02928,0.02928,-0.02928,-0.01464,0,-0.01464,0.01952,-0.00976,-0.03904,-0.0488,-0.0488,-0.03904
-0.02928,0.02928,-0.02928,-0.01464,0,-0.01464,0.01952,-0.00976,-0.03904,-0.05856,-0.0488,-0.03904
-0.02928,0.02928,-0.02928,-0.01464,0,-0.01464,0.01952,-0.00976,-0.03904,-0.05856,-0.0488,-0.03904
-0.02928,0.0244,-0.01952,-0.00488,0.00976,-0.01952,0.01952,-0.00976,-0.03904,-0.0488,-0.0488,-0.03904
-0.02928,0.0244,-0.01952,-0.00488,0.00976,-0.01952,0.01952,-0.00976,-0.03904,-0.0488,-0.0488,-0.03904
-0.0488,0.03904,-0.02928,-0.00488,0.01952,-0.03416,0.01952,0,-0.02928,-0.0488,-0.03904,-0.02928
-0.05856,0.04392,-0.02928,0,0.02928,-0.04392,0.01952,0,-0.02928,-0.0488,-0.03904,-0.02928
-0.0488,0.03416,-0.01952,0.00488,0.02928,-0.03904,0.01952,0,-0.03904,-0.0488,-0.0488,-0.02928
-0.0488,0.03416,-0.01952,0.00488,0.02928,-0.03904,0.01952,0,-0.03904,-0.0488,-0.0488,-0.02928
-0.0488,0.03416,-0.01952,0.00488,0.02928,-0.03904,0.01952,-0.00976,-0.02928,-0.0488,-0.0488,-0.02928
-0.0488,0.03416,-0.01952,0.00488,0.02928,-0.03904,0.01952,-0.00976,-0.02928,-0.0488,-0.0488,-0.02928
-0.03904,0.02928,-0.01952,0,0.01952,-0.02928,0.00976,0,-0.03904,-0.0488,-0.0488,-0.02928
-0.03904,0.02928,-0.01952,0,0.01952,-0.02928,0.00976,0,-0.03904,-0.0488,-0.0488,-0.02928
-0.03904,0.02928,-0.01952,0,0.01952,-0.02928,0.00976,-0.00976,-0.02928,-0.0488,-0.0488,-0.02928
-0.03904,0.02928,-0.01952,0,0.01952,-0.02928,0.00976,-0.00976,-0.02928,-0.0488,-0.0488,-0.02928
-0.03904,0.02928,-0.01952,0,0.01952,-0.02928,0.00976,-0.01952,-0.03904,-0.05856,-0.05856,-0.03904
-0.03904,0.02928,-0.01952,0,0.01952,-0.02928,0.00976,-0.01952,-0.03904,-0.05856,-0.05856,-0.03904
-0.03904,0.02928,-0.01952,0,0.01952,-0.02928,0.00976,-0.00976,-0.03904,-0.05856,-0.0488,-0.03904
-0.03904,0.02928,-0.01952,0,0.01952,-0.02928,0.00976,-0.00976,-0.03904,-0.05856,-0.0488,-0.03904
-0.0488,0.03904,-0.02928,-0.00488,0.01952,-0.03416,0.01952,0,-0.02928,-0.05856,-0.03904,-0.02928
-0.0488,0.03904,-0.02928,-0.00488,0.01952,-0.03416,0.02928,0,-0.02928,-0.05856,-0.03904,-0.02928
-0.0488,0.03904,-0.02928,-0.00488,0.01952,-0.03416,0.01952,0,-0.02928,-0.0488,-0.0488,-0.02928
-0.0488,0.03904,-0.02928,-0.00488,0.01952,-0.03416,0.01952,0,-0.02928,-0.0488,-0.0488,-0.02928
-0.0488,0.03904,-0.02928,-0.00488,0.01952,-0.03416,0.01952,0,-0.03904,-0.0488,-0.0488,-0.03904
-0.0488,0.03904,-0.02928,-0.00488,0.01952,-0.03416,0.01952,0,-0.03904,-0.0488,-0.0488,-0.03904
-0.0488,0.03416,-0.01952,0.00488,0.02928,-0.03904,0.02928,0,-0.02928,-0.0488,-0.0488,-0.03904
-0.0488,0.03416,-0.01952,0.00488,0.02928,-0.03904,0.02928,0,-0.02928,-0.0488,-0.0488,-0.03904
