i,aVR,ii,aVF,iii,aVL,V1,V2,V3,V4,V5,V6
0.13176,-0.08784,0.04392,-0.02196,-0.08784,0.1098,0.20496,0.35136,0.5856,0.42456,0.22936,0.11224
0.14152,-0.0976,0.05368,-0.01708,-0.08784,0.11468,0.20984,0.37088,0.62464,0.44896,0.24888,0.12688
0.1464,-0.10492,0.06344,-0.00976,-0.08296,0.11468,0.20984,0.40504,0.66856,0.48312,0.2684,0.1464
0.15128,-0.10736,0.06344,-0.0122,-0.08784,0.11956,0.20496,0.43432,0.6832,0.49776,0.28304,0.15616
0.15616,-0.1098,0.06344,-0.01464,-0.09272,0.12444,0.20984,0.4636,0.7076,0.52216,0.30744,0.16592
0.16104,-0.122,0.08296,0.00244,-0.07808,0.11956,0.2196,0.48312,0.732,0.54168,0.33184,0.17568
0.18056,-0.1342,0.08784,-0.00244,-0.09272,0.13664,0.22936,0.50264,0.75152,0.56608,0.34648,0.20496
0.20008,-0.1586,0.11712,0.01708,-0.08296,0.14152,0.23424,0.5124,0.79056,0.59048,0.35624,0.22448
0.20984,-0.17324,0.13664,0.03172,-0.0732,0.14152,0.23424,0.52704,0.81496,0.61976,0.38064,0.244
0.2196,-0.17812,0.13664,0.02684,-0.08296,0.15128,0.2196,0.51728,0.8296,0.62952,0.40016,0.25376
0.22448,-0.17812,0.13176,0.01952,-0.09272,0.1586,0.20984,0.51728,0.84424,0.6344,0.41968,0.2684
0.23912,-0.19032,0.14152,0.02196,-0.0976,0.16836,0.20008,0.52704,0.85888,0.65392,0.44408,0.28792
0.24888,-0.20496,0.16104,0.0366,-0.08784,0.16836,0.19032,0.5368,0.87352,0.66368,0.45872,0.31232
0.26352,-0.22204,0.18056,0.0488,-0.08296,0.17324,0.17568,0.54168,0.87352,0.66856,0.45872,0.31232
0.2684,-0.22936,0.19032,0.05612,-0.07808,0.17324,0.1708,0.54168,0.87352,0.66856,0.4636,0.3172
0.25864,-0.22204,0.18544,0.05612,-0.0732,0.16592,0.15616,0.52704,0.86376,0.66856,0.45872,0.33184
0.25864,-0.22448,0.19032,0.061,-0.06832,0.16348,0.1464,0.50752,0.84424,0.6588,0.4636,0.33184
0.25864,-0.2318,0.20496,0.07564,-0.05368,0.15616,0.13176,0.48312,0.80032,0.6344,0.45872,0.33672
0.24888,-0.23424,0.2196,0.09516,-0.02928,0.13908,0.12688,0.44896,0.76616,0.61488,0.44408,0.3416
0.25864,-0.23424,0.20984,0.08052,-0.0488,0.15372,0.11224,0.42944,0.72712,0.59048,0.44408,0.33672
0.24888,-0.22692,0.20496,0.08052,-0.04392,0.1464,0.10736,0.39528,0.67832,0.55632,0.42944,0.33184
0.22936,-0.20496,0.18056,0.06588,-0.0488,0.13908,0.08784,0.3416,0.60512,0.52704,0.4148,0.31232
0.20984,-0.19032,0.1708,0.06588,-0.03904,0.12444,0.08296,0.30744,0.53192,0.47336,0.38064,0.28792
0.1952,-0.17568,0.15616,0.05856,-0.03904,0.11712,0.07808,0.2684,0.47336,0.43432,0.35136,0.2684
0.17568,-0.15616,0.13664,0.0488,-0.03904,0.10736,0.06344,0.22936,0.4148,0.38552,0.31232,0.244
0.15128,-0.14152,0.13176,0.05612,-0.01952,0.0854,0.04392,0.19032,0.35624,0.33672,0.28304,0.20496
0.122,-0.11712,0.11224,0.05124,-0.00976,0.06588,0.03904,0.1464,0.30256,0.2928,0.244,0.17568
0.10248,-0.09028,0.07808,0.02684,-0.0244,0.06344,0.03416,0.11712,0.26352,0.25376,0.20984,0.1464
0.08296,-0.06832,0.05368,0.0122,-0.02928,0.05612,0.02928,0.09272,0.21472,0.21472,0.17568,0.122
0.0732,-0.061,0.0488,0.0122,-0.0244,0.0488,0.01952,0.06344,0.19032,0.1708,0.1464,0.10248
0.06344,-0.0488,0.03416,0.00244,-0.02928,0.04636,0.01952,0.0488,0.16104,0.1464,0.13176,0.07808
0.0488,-0.03172,0.01464,-0.00976,-0.03416,0.04148,0.00976,0.02928,0.14152,0.11712,0.10736,0.06344
0.03904,-0.0244,0.00976,-0.00976,-0.02928,0.03416,0.00976,0.01952,0.122,0.09272,0.08784,0.04392
0.03416,-0.0122,-0.00976,-0.02684,-0.04392,0.03904,0.00976,0,0.10248,0.07808,0.06832,0.02928
0.03416,-0.00732,-0.01952,-0.0366,-0.05368,0.04392,0.00976,-0.01952,0.09272,0.05856,0.05368,0.01952
0.0244,-0.00244,-0.01952,-0.03172,-0.04392,0.03416,0.00976,-0.0244,0.07808,0.05856,0.04392,0.00976
0.02928,-0.00244,-0.0244,-0.03904,-0.05368,0.04148,0.01464,-0.03416,0.06832,0.0488,0.03416,0.00488
0.01952,0.00976,-0.03904,-0.0488,-0.05856,0.03904,0.0244,-0.03904,0.06832,0.03416,0.02928,-0.00976
0.00976,0.01464,-0.03904,-0.04392,-0.0488,0.02928,0.02928,-0.03904,0.05856,0.02928,0.0244,-0.01952
0.00976,0.01464,-0.03904,-0.04392,-0.0488,0.02928,0.01952,-0.04392,0.05856,0.0244,0.01952,-0.01464
0.00976,0.01464,-0.03904,-0.04392,-0.0488,0.02928,0.01464,-0.0488,0.05856,0.01952,0.01952,-0.00976
0,0.02196,-0.04392,-0.04392,-0.04392,0.02196,0.01464,-0.04392,0.05856,0.01464,0.01952,-0.00976
0,0.01952,-0.03904,-0.03904,-0.03904,0.01952,0.00976,-0.04392,0.05368,0.01464,0.01952,-0.00976
0.00488,0.01708,-0.03904,-0.04148,-0.04392,0.0244,0.00488,-0.01952,0.04392,0.01464,0.01952,-0.00976
0,0.02196,-0.04392,-0.04392,-0.04392,0.02196,0.01952,-0.01464,0.0488,0.01464,0.01952,-0.00488
-0.00976,0.02684,-0.04392,-0.03904,-0.03416,0.0122,0.04392,-0.00488,0.03904,0.01464,0.01952,0
-0.00976,0.02684,-0.04392,-0.03904,-0.03416,0.0122,0.04392,-0.00976,0.03904,0.01952,0.00976,0.00488
0,0.01708,-0.03416,-0.03416,-0.03416,0.01708,0.0488,0.00488,0.04392,0.01464,0.00488,0.00488
0.01464,0.00976,-0.03416,-0.04148,-0.0488,0.03172,0.0488,0.00976,0.04392,0.01952,0.00976,0
0.00488,0.01708,-0.03904,-0.04148,-0.04392,0.0244,0.01952,0.01464,0.03904,0.00976,0.00976,-0.01464
0.00488,0.01708,-0.03904,-0.04148,-0.04392,0.0244,0,0.01464,0.02928,0.00976,0.00976,-0.01952
0.00488,0.01708,-0.03904,-0.04148,-0.04392,0.0244,-0.0244,0.01464,0.03416,0.01952,0.0244,-0.0244
0.00976,0.0122,-0.03416,-0.03904,-0.04392,0.02684,-0.03904,0.00976,0.03416,0.01952,0.0244,-0.0244
0.01464,0.00244,-0.01952,-0.02684,-0.03416,0.0244,-0.03904,0.00976,0.03904,0.0244,0.01952,-0.01952
0.01952,0,-0.01952,-0.02928,-0.03904,0.02928,-0.03904,0.00976,0.04392,0.0244,0.01952,-0.00976
0.01464,0.00244,-0.01952,-0.02684,-0.03416,0.0244,-0.02928,0,0.04392,0.02928,0.01952,0
0.01464,0.00244,-0.01952,-0.02684,-0.03416,0.0244,-0.0244,0.00488,0.04392,0.02928,0.01952,0.00488
0,0.01464,-0.02928,-0.02928,-0.02928,0.01464,-0.01464,0.00488,0.0488,0.02928,0.01952,0.01464
0,0.0122,-0.0244,-0.0244,-0.0244,0.0122,-0.00976,0.00488,0.0488,0.03416,0.01952,0.01952
0.00976,0.00488,-0.01952,-0.0244,-0.02928,0.01952,-0.00976,0.00488,0.04392,0.0244,0.01464,0.00976
0.00976,0.00732,-0.0244,-0.02928,-0.03416,0.02196,-0.00488,0.00488,0.04392,0.0244,0.01464,0.00976
0,0.00488,-0.00976,-0.00976,-0.00976,0.00488,-0.00976,-0.00488,0.03904,0.0244,0.01464,0
0.00488,0,-0.00488,-0.00732,-0.00976,0.00732,-0.02928,-0.01464,0.03416,0.01952,0.01464,-0.00488
0.00976,0.00244,-0.01464,-0.01952,-0.0244,0.01708,-0.01952,-0.01464,0.03416,0.00976,0.01464,0.00488
0.00976,0.00244,-0.01464,-0.01952,-0.0244,0.01708,-0.01952,-0.00488,0.03416,0.01464,0.01464,0.00488
0.01464,-0.00732,0,-0.00732,-0.01464,0.01464,-0.00488,-0.00488,0.03904,0.0244,0.01464,0
0.01464,-0.00976,0.00488,-0.00244,-0.00976,0.0122,0.00488,0,0.03904,0.01952,0.00976,-0.00488
0.00488,-0.00244,0,-0.00244,-0.00488,0.00488,0.00976,-0.00976,0.0244,0.00976,0.00488,-0.00976
0.00488,0,-0.00488,-0.00732,-0.00976,0.00732,0.00976,-0.01464,0.0244,0.00976,0.00488,-0.00976
0.00488,0,-0.00488,-0.00732,-0.00976,0.00732,0.01952,-0.01464,0.01464,0.01464,0.00488,0
0.00488,0,-0.00488,-0.00732,-0.00976,0.00732,0.01952,-0.01464,0.01952,0.01464,0.00488,0.00488
0.01464,-0.00488,-0.00488,-0.0122,-0.01952,0.01708,0.0244,-0.01464,0.01464,0.00488,0.00488,0.00488
0.01464,-0.00244,-0.00976,-0.01708,-0.0244,0.01952,0.0244,-0.01952,0.01464,0.00488,0,0
0.00488,0.00488,-0.01464,-0.01708,-0.01952,0.0122,0.01464,-0.0244,0.00488,0,0,0
-0.00488,0.00976,-0.01464,-0.0122,-0.00976,0.00244,0.00976,-0.0244,0.00488,-0.00488,-0.00488,-0.00488
0.00976,0,-0.00976,-0.01464,-0.01952,0.01464,0.01464,-0.02928,-0.00488,-0.01464,-0.00976,-0.00488
0.00976,0,-0.00976,-0.01464,-0.01952,0.01464,0.01464,-0.02928,-0.00488,-0.01464,-0.00976,-0.00488
-0.00488,0.0122,-0.01952,-0.01708,-0.01464,0.00488,0.00488,-0.02928,-0.00976,-0.01952,-0.01464,-0.00976
-0.00488,0.0122,-0.01952,-0.01708,-0.01464,0.00488,0.00976,-0.02928,-0.01464,-0.02928,-0.01952,-0.00976
-0.00488,0.0122,-0.01952,-0.01708,-0.01464,0.00488,0,-0.03416,-0.03416,-0.01952,-0.01464,-0.00976
-0.00488,0.0122,-0.01952,-0.01708,-0.01464,0.00488,0,-0.03904,-0.03904,-0.0244,-0.01464,-0.00976
-0.00976,0.01464,-0.01952,-0.01464,-0.00976,0,0,-0.03416,-0.02928,-0.0244,-0.01464,0
-0.00976,0.01464,-0.01952,-0.01464,-0.00976,0,0,-0.03416,-0.02928,-0.0244,-0.01952,0
-0.01464,0.01708,-0.01952,-0.0122,-0.00488,-0.00488,0,-0.03904,-0.02928,-0.02928,-0.01952,0
-0.00976,0.01708,-0.0244,-0.01952,-0.01464,0.00244,0,-0.03904,-0.02928,-0.02928,-0.0244,0
0,0.01464,-0.02928,-0.02928,-0.02928,0.01464,-0.00976,-0.04392,-0.03904,-0.03904,-0.0244,-0.01464
-0.00488,0.01464,-0.0244,-0.02196,-0.01952,0.00732,-0.01464,-0.0488,-0.04392,-0.03416,-0.02928,-0.01464
-0.00488,0.00976,-0.01464,-0.0122,-0.00976,0.00244,-0.00488,-0.03904,-0.03416,-0.03904,-0.02928,-0.00976
-0.00488,0.00976,-0.01464,-0.0122,-0.00976,0.00244,-0.00488,-0.03416,-0.03416,-0.03904,-0.02928,-0.00976
-0.00488,0.01464,-0.0244,-0.02196,-0.01952,0.00732,0,-0.02928,-0.03416,-0.03416,-0.02928,-0.00976
-0.01464,0.02684,-0.03904,-0.03172,-0.0244,0.00488,0,-0.0244,-0.03416,-0.03416,-0.02928,-0.00976
-0.02928,0.0366,-0.04392,-0.02928,-0.01464,-0.00732,0.00976,-0.01952,-0.03416,-0.03416,-0.02928,-0.00976
-0.01952,0.03172,-0.04392,-0.03416,-0.0244,0.00244,0.00976,-0.01952,-0.03904,-0.03416,-0.02928,-0.00976
-0.00976,0.02684,-0.04392,-0.03904,-0.03416,0.0122,0.00976,-0.00488,-0.03904,-0.03416,-0.02928,-0.00976
-0.01952,0.03172,-0.04392,-0.03416,-0.0244,0.00244,0.01464,-0.00488,-0.03416,-0.03416,-0.0244,-0.01464
-0.01952,0.03904,-0.05856,-0.0488,-0.03904,0.00976,0.01464,-0.00976,-0.03416,-0.03416,-0.01952,-0.01464
-0.03416,0.05856,-0.08296,-0.06588,-0.0488,0.00732,0.01952,-0.00976,-0.03416,-0.03416,-0.01952,-0.01952
-0.0244,0.0488,-0.0732,-0.061,-0.0488,0.0122,0.01464,-0.0244,-0.0244,-0.03416,-0.02928,-0.01464
-0.01464,0.03904,-0.06344,-0.05612,-0.0488,0.01708,0.00976,-0.0244,-0.01952,-0.03416,-0.02928,-0.01952
-0.01464,0.04392,-0.0732,-0.06588,-0.05856,0.02196,0.01464,-0.01464,-0.00488,-0.02928,-0.01952,-0.00488
-0.00976,0.03904,-0.06832,-0.06344,-0.05856,0.0244,0.0244,-0.01464,-0.00488,-0.02928,-0.01952,-0.00488
-0.00976,0.0488,-0.08784,-0.08296,-0.07808,0.03416,0.0244,-0.01464,0,-0.0244,-0.01952,-0.00976
-0.00976,0.05124,-0.09272,-0.08784,-0.08296,0.0366,0.0244,-0.00976,0,-0.0244,-0.01952,-0.00488
-0.0244,0.06344,-0.10248,-0.09028,-0.07808,0.02684,0.03416,-0.00976,0.00976,-0.01464,-0.00976,0.00488
-0.01952,0.061,-0.10248,-0.09272,-0.08296,0.03172,0.03904,-0.01464,0.00976,-0.01464,-0.01464,0.00488
-0.00976,0.05124,-0.09272,-0.08784,-0.08296,0.0366,0.02928,-0.01952,0.00976,-0.01464,-0.00488,-0.00976
-0.00976,0.05124,-0.09272,-0.08784,-0.08296,0.0366,0.03416,-0.01952,0.00976,-0.01464,-0.00488,-0.00976
-0.01952,0.061,-0.10248,-0.09272,-0.08296,0.03172,0.03416,-0.0244,0,-0.01464,-0.00488,0
-0.0244,0.0732,-0.122,-0.1098,-0.0976,0.0366,0.0244,-0.0244,0,-0.01464,0,0
-0.01464,0.0732,-0.13176,-0.12444,-0.11712,0.05124,0.03416,-0.0244,0,-0.00488,0,0.00488
-0.01464,0.07564,-0.13664,-0.12932,-0.122,0.05368,0.02928,-0.0244,0,-0.00488,0,0.00488
-0.01464,0.06832,-0.122,-0.11468,-0.10736,0.04636,0.03416,-0.01464,0,-0.01464,-0.00976,0.00488
-0.01464,0.06832,-0.122,-0.11468,-0.10736,0.04636,0.03904,-0.00976,0,-0.01464,-0.00976,0.00488
-0.01952,0.07564,-0.13176,-0.122,-0.11224,0.04636,0.02928,-0.01952,0,-0.01464,-0.00976,-0.00488
-0.02928,0.08052,-0.13176,-0.11712,-0.10248,0.0366,0.02928,-0.01952,0,-0.01464,-0.00976,-0.00488
-0.01952,0.07076,-0.122,-0.11224,-0.10248,0.04148,0.0244,-0.01464,-0.00488,-0.01464,-0.00976,-0.00488
-0.01952,0.07076,-0.122,-0.11224,-0.10248,0.04148,0.0244,-0.00976,-0.00488,-0.01464,-0.00976,-0.00488
-0.00976,0.061,-0.11224,-0.10736,-0.10248,0.04636,0.02928,-0.00976,-0.00488,-0.01464,-0.00976,-0.00488
-0.01464,0.06344,-0.11224,-0.10492,-0.0976,0.04148,0.03416,-0.00488,-0.00488,-0.01464,-0.00976,-0.00488
-0.0244,0.0732,-0.122,-0.1098,-0.0976,0.0366,0.02928,-0.00488,-0.00488,-0.01464,-0.00976,-0.00488
-0.0244,0.0732,-0.122,-0.1098,-0.0976,0.0366,0.02928,-0.00488,-0.00976,-0.01464,-0.00488,-0.00488
-0.01464,0.06344,-0.11224,-0.10492,-0.0976,0.04148,0.01952,-0.00488,-0.00976,-0.01464,-0.01464,-0.00488
-0.00488,0.05368,-0.10248,-0.10004,-0.0976,0.04636,0.01952,-0.00488,-0.00488,-0.01464,-0.01464,0
-0.00976,0.05124,-0.09272,-0.08784,-0.08296,0.0366,0.0244,-0.00976,-0.01464,-0.01464,-0.01464,0
-0.00976,0.05368,-0.0976,-0.09272,-0.08784,0.03904,0.0244,-0.00976,-0.01464,-0.01464,-0.01952,-0.00976
-0.01952,0.061,-0.10248,-0.09272,-0.08296,0.03172,0.0244,0.00488,-0.01464,-0.01464,-0.01464,0
-0.01952,0.061,-0.10248,-0.09272,-0.08296,0.03172,0.01952,-0.00976,-0.01464,-0.01464,-0.01952,0
-0.01952,0.05368,-0.08784,-0.07808,-0.06832,0.0244,0.01952,-0.00976,-0.01464,-0.0244,-0.01952,0
-0.01952,0.05368,-0.08784,-0.07808,-0.06832,0.0244,0.01952,-0.00488,-0.01464,-0.0244,-0.01952,0
-0.0244,0.05856,-0.09272,-0.08052,-0.06832,0.02196,0.01952,-0.00488,-0.01464,-0.01464,-0.01952,0
-0.0244,0.05856,-0.09272,-0.08052,-0.06832,0.02196,0.0244,-0.00488,-0.01464,-0.01464,-0.01464,0
-0.0244,0.05612,-0.08784,-0.07564,-0.06344,0.01952,0.01952,-0.01464,-0.0244,-0.0244,-0.01464,0
-0.0244,0.05368,-0.08296,-0.07076,-0.05856,0.01708,0.0244,-0.00976,-0.0244,-0.0244,-0.01464,0
-0.01464,0.0488,-0.08296,-0.07564,-0.06832,0.02684,0.0244,0,-0.01464,-0.01464,-0.01464,0
-0.01952,0.04392,-0.06832,-0.05856,-0.0488,0.01464,0.01952,-0.00976,-0.01952,-0.02928,-0.02928,-0.00976
-0.01952,0.04392,-0.06832,-0.05856,-0.0488,0.01464,0.01952,-0.00976,-0.01952,-0.02928,-0.02928,-0.00976
-0.01952,0.0488,-0.07808,-0.06832,-0.05856,0.01952,0.01952,-0.01952,-0.01952,-0.02928,-0.02928,-0.01952
-0.01952,0.0488,-0.07808,-0.06832,-0.05856,0.01952,0.01952,-0.01952,-0.01952,-0.02928,-0.02928,-0.01952
-0.01952,0.04392,-0.06832,-0.05856,-0.0488,0.01464,0.01952,-0.01952,-0.01952,-0.02928,-0.02928,-0.01952
-0.01952,0.04392,-0.06832,-0.05856,-0.0488,0.01464,0.01952,-0.01952,-0.01952,-0.02928,-0.02928,-0.01952
-0.02928,0.04392,-0.05856,-0.04392,-0.02928,0,0.00976,-0.01952,-0.01952,-0.02928,-0.02928,-0.01952
-0.02928,0.04392,-0.05856,-0.04392,-0.02928,0,0.00976,-0.01952,-0.01952,-0.02928,-0.02928,-0.01952
-0.02928,0.03904,-0.0488,-0.03416,-0.01952,-0.00488,0,-0.02928,-0.02928,-0.02928,-0.02928,-0.02928
-0.02928,0.03904,-0.0488,-0.03416,-0.01952,-0.00488,0,-0.02928,-0.02928,-0.02928,-0.02928,-0.02928
-0.01952,0.03416,-0.0488,-0.03904,-0.02928,0.00488,0,-0.01952,-0.02928,-0.02928,-0.02928,-0.01952
-0.01952,0.03416,-0.0488,-0.03904,-0.02928,0.00488,0,-0.01952,-0.02928,-0.02928,-0.02928,-0.01952
-0.02928,0.03904,-0.0488,-0.03416,-0.01952,-0.00488,0,-0.02928,-0.02928,-0.02928,-0.02928,-0.01952
-0.02928,0.03904,-0.0488,-0.03416,-0.01952,-0.00488,0,-0.02928,-0.02928,-0.02928,-0.02928,-0.01952
-0.02928,0.03904,-0.0488,-0.03416,-0.01952,-0.00488,0.00976,-0.02928,-0.03904,-0.02928,-0.02928,-0.01952
-0.02928,0.03904,-0.0488,-0.03416,-0.01952,-0.00488,0.00976,-0.02928,-0.03904,-0.02928,-0.02928,-0.01952
-0.01952,0.02928,-0.03904,-0.02928,-0.01952,0,0.00976,-0.01952,-0.02928,-0.03904,-0.03904,-0.01952
-0.01952,0.02928,-0.03904,-0.02928,-0.01952,0,0.00976,-0.01952,-0.02928,-0.03904,-0.03904,-0.01952
-0.02928,0.03416,-0.03904,-0.0244,-0.00976,-0.00976,0.00976,-0.01952,-0.02928,-0.03904,-0.02928,-0.01952
-0.02928,0.03416,-0.03904,-0.0244,-0.00976,-0.00976,0.00976,-0.01952,-0.02928,-0.03904,-0.02928,-0.01952
-0.01952,0.02928,-0.03904,-0.02928,-0.01952,0,0.00976,-0.01952,-0.02928,-0.02928,-0.03904,-0.01952
-0.01952,0.02928,-0.03904,-0.02928,-0.01952,0,0.00976,-0.01952,-0.02928,-0.02928,-0.03904,-0.01952
-0.00976,0.01952,-0.02928,-0.0244,-0.01952,0.00488,0.00976,-0.01952,-0.02928,-0.02928,-0.02928,-0.01952
-0.00976,0.01952,-0.02928,-0.0244,-0.01952,0.00488,0.00976,-0.01952,-0.02928,-0.02928,-0.02928,-0.01952
-0.01464,0.02196,-0.02928,-0.02196,-0.01464,0,0.00976,-0.02928,-0.03904,-0.03904,-0.03904,-0.02928
-0.0244,0.02684,-0.02928,-0.01708,-0.00488,-0.00976,0.00976,-0.02928,-0.03904,-0.03904,-0.03904,-0.02928
-0.01952,0.02684,-0.03416,-0.0244,-0.01464,-0.00244,0,-0.02928,-0.03904,-0.03904,-0.03904,-0.02928
-0.01952,0.03172,-0.04392,-0.03416,-0.0244,0.00244,0,-0.02928,-0.03904,-0.03904,-0.03904,-0.02928
-0.01952,0.03172,-0.04392,-0.03416,-0.0244,0.00244,0,-0.02928,-0.02928,-0.03904,-0.03904,-0.03904
-0.01952,0.02684,-0.03416,-0.0244,-0.01464,-0.00244,0,-0.02928,-0.02928,-0.03904,-0.03904,-0.03904
-0.02928,0.02928,-0.02928,-0.01464,0,-0.01464,0.00976,-0.02928,-0.02928,-0.03416,-0.02928,-0.03416
-0.02928,0.02928,-0.02928,-0.01464,0,-0.01464,0.00488,-0.02928,-0.02928,-0.03416,-0.02928,-0.02928
-0.01952,0.0244,-0.02928,-0.01952,-0.00976,-0.00488,0.00488,-0.01952,-0.02928,-0.03416,-0.02928,-0.01464
-0.01952,0.0244,-0.02928,-0.01952,-0.00976,-0.00488,0.00976,-0.01952,-0.0244,-0.02928,-0.01952,-0.01464
-0.01464,0.01708,-0.01952,-0.0122,-0.00488,-0.00488,0.00976,-0.01464,-0.00976,-0.01952,-0.01952,-0.01464
-0.00976,0.00732,-0.00488,0,0.00488,-0.00732,0.01464,-0.01464,0.00488,-0.00976,-0.01464,-0.01464
0.00488,0,-0.00488,-0.00732,-0.00976,0.00732,0.00488,-0.01464,0.00488,0,0,-0.00488
0.00488,-0.00732,0.00976,0.00732,0.00488,0,0.01464,-0.01464,0.01464,0.00488,0,0
0.00976,-0.01952,0.02928,0.0244,0.01952,-0.00488,0.01952,0,0.01464,0.00488,0.00488,-0.00488
0.00976,-0.02196,0.03416,0.02928,0.0244,-0.00732,0.01464,0,0.01952,0.00976,0.00488,-0.00488
0.01464,-0.02928,0.04392,0.0366,0.02928,-0.00732,0.01952,-0.00488,0.01952,0.01464,0.00488,0.00488
0.01464,-0.02684,0.03904,0.03172,0.0244,-0.00488,0.01952,-0.00488,0.01952,0.01952,0.00488,0.00488
0.00488,-0.02196,0.03904,0.0366,0.03416,-0.01464,0.01464,0.00488,0.02928,0.01952,0.01952,0.00976
0.00488,-0.02928,0.05368,0.05124,0.0488,-0.02196,0.01464,0.00488,0.02928,0.02928,0.0244,0.00976
0.00976,-0.03416,0.05856,0.05368,0.0488,-0.01952,0.00488,-0.00488,0.03904,0.02928,0.0244,0.01464
0.00976,-0.03904,0.06832,0.06344,0.05856,-0.0244,-0.01952,-0.0244,0.0244,0.0244,0.0244,0.01464
0.00976,-0.04392,0.07808,0.0732,0.06832,-0.02928,-0.03904,-0.0488,0.00488,0.0244,0.0244,0.01952
0.01952,-0.05368,0.08784,0.07808,0.06832,-0.0244,-0.05368,-0.05368,0,0.0244,0.02928,0.02928
0.04392,-0.06832,0.09272,0.07076,0.0488,-0.00244,-0.05368,-0.04392,0.00976,0.03416,0.03416,0.03904
0.05856,-0.07564,0.09272,0.06344,0.03416,0.0122,-0.04392,-0.03904,0.01464,0.03904,0.03904,0.04392
0.05856,-0.0732,0.08784,0.05856,0.02928,0.01464,-0.03416,-0.02928,0,0.0244,0.03416,0.04392
0.0488,-0.06588,0.08296,0.05856,0.03416,0.00732,-0.02928,-0.02928,0,0.0244,0.03416,0.03904
0.0488,-0.06344,0.07808,0.05368,0.02928,0.00976,-0.03904,-0.03904,-0.00976,0.01952,0.02928,0.03904
0.03904,-0.05368,0.06832,0.0488,0.02928,0.00488,-0.03904,-0.04392,-0.01952,0.00976,0.01952,0.02928
0.0244,-0.03416,0.04392,0.03172,0.01952,0.00244,-0.03416,-0.04392,-0.03416,-0.01464,0.00976,0.02928
0.01464,-0.02684,0.03904,0.03172,0.0244,-0.00488,-0.03416,-0.04392,-0.03416,-0.00976,0.00976,0.0244
0.00976,-0.01708,0.0244,0.01952,0.01464,-0.00244,-0.00976,-0.0244,-0.0244,0,0.01952,0.01464
0,-0.00488,0.00976,0.00976,0.00976,-0.00488,0,-0.01464,-0.01952,0,0.00488,0.00488
-0.00976,0.00976,-0.00976,-0.00488,0,-0.00488,0.00488,-0.0244,-0.02928,-0.01464,0,0
-0.00976,0.01708,-0.0244,-0.01952,-0.01464,0.00244,0.00976,-0.01952,-0.02928,-0.0244,-0.00976,-0.00488
-0.00976,0.01708,-0.0244,-0.01952,-0.01464,0.00244,0,-0.01952,-0.03904,-0.03904,-0.0244,-0.00488
-0.00976,0.02196,-0.03416,-0.02928,-0.0244,0.00732,0,-0.0244,-0.04392,-0.03904,-0.02928,-0.00976
-0.00976,0.02684,-0.04392,-0.03904,-0.03416,0.0122,0.01464,-0.01952,-0.05856,-0.03904,-0.02928,-0.00976
-0.01952,0.0366,-0.05368,-0.04392,-0.03416,0.00732,0.01464,-0.00976,-0.05856,-0.04392,-0.03904,-0.01464
-0.01464,0.04148,-0.06832,-0.061,-0.05368,0.01952,0.01464,-0.00488,-0.05856,-0.04392,-0.03904,-0.01464
-0.01952,0.04392,-0.06832,-0.05856,-0.0488,0.01464,0.0244,0,-0.05856,-0.04392,-0.03416,-0.01464
-0.01952,0.04148,-0.06344,-0.05368,-0.04392,0.0122,0.0244,0,-0.05856,-0.04392,-0.03416,-0.01464
-0.0244,0.0488,-0.0732,-0.061,-0.0488,0.0122,0.03416,0.00488,-0.05368,-0.03416,-0.03416,-0.01464
-0.02928,0.05124,-0.0732,-0.05856,-0.04392,0.00732,0.03904,0.00976,-0.03904,-0.03416,-0.03416,-0.01952
-0.03416,0.05368,-0.0732,-0.05612,-0.03904,0.00244,0.03904,0.00976,-0.03904,-0.03416,-0.03416,-0.01952
-0.0244,0.05124,-0.07808,-0.06588,-0.05368,0.01464,0.03416,0.00976,-0.0244,-0.02928,-0.03416,-0.01952
-0.0244,0.05368,-0.08296,-0.07076,-0.05856,0.01708,0.0488,0.03416,0.00488,-0.00488,-0.01952,-0.01952
-0.01464,0.05612,-0.0976,-0.09028,-0.08296,0.03416,0.08784,0.11712,0.0976,0.06832,0.01464,-0.01952
0,0.04148,-0.08296,-0.08296,-0.08296,0.04148,0.15128,0.2196,0.25376,0.22936,0.11224,0.0244
0.06344,-0.01464,-0.03416,-0.06588,-0.0976,0.08052,0.1464,0.23912,0.35136,0.43432,0.30744,0.11712
0.11712,-0.06832,0.01952,-0.03904,-0.0976,0.10736,0.13664,0.27328,0.44896,0.66368,0.55144,0.26352
0.19032,-0.14396,0.0976,0.00244,-0.09272,0.14152,0.11712,0.31232,0.5124,0.96624,0.89792,0.488
0.36112,-0.33184,0.30256,0.122,-0.05856,0.20984,-0.04392,0.12688,0.2928,1.18584,1.33712,0.8296
0.4636,-0.48312,0.50264,0.27084,0.03904,0.21228,-0.32208,-0.25864,-0.23912,1.11264,1.64944,1.12728
0.54656,-0.61732,0.68808,0.4148,0.14152,0.20252,-0.68808,-0.75152,-0.90768,0.8784,1.84464,1.37616
0.55632,-0.66612,0.77592,0.49776,0.2196,0.16836,-0.96624,-1.13704,-1.43472,0.62952,1.88856,1.46888
0.42944,-0.55144,0.67344,0.45872,0.244,0.09272,-1.01504,-1.26392,-1.69336,0.4392,1.64944,1.27856
0.27328,-0.2928,0.31232,0.17568,0.03904,0.11712,-0.83448,-1.11752,-1.64944,0.21472,1.03944,0.79544
0.07808,-0.02196,-0.03416,-0.0732,-0.11224,0.09516,-0.72712,-1.04432,-1.72752,-0.38064,0.1708,0.244
-0.01464,0.09272,-0.1708,-0.16348,-0.15616,0.07076,-0.6344,-0.94672,-1.68848,-0.89792,-0.42944,-0.11712
-0.01464,0.13908,-0.26352,-0.2562,-0.24888,0.11712,-0.46848,-0.72224,-1.4396,-0.9272,-0.54656,-0.22936
0,0.14884,-0.29768,-0.29768,-0.29768,0.14884,-0.27328,-0.4636,-1.08336,-0.69296,-0.40016,-0.18056
0,0.1586,-0.3172,-0.3172,-0.3172,0.1586,-0.09272,-0.2196,-0.732,-0.4636,-0.27328,-0.122
0,0.1464,-0.2928,-0.2928,-0.2928,0.1464,0.0488,-0.03904,-0.45384,-0.27816,-0.1952,-0.08296
0.01952,0.10736,-0.23424,-0.244,-0.25376,0.13664,0.10248,0.0488,-0.28792,-0.15616,-0.11712,-0.05368
0.03416,0.06832,-0.1708,-0.18788,-0.20496,0.11956,0.10248,0.05856,-0.16592,-0.08296,-0.07808,-0.03416
0.01464,0.06588,-0.1464,-0.15372,-0.16104,0.08784,0.10248,0.05856,-0.06832,-0.03904,-0.05856,-0.01952
0.0244,0.0488,-0.122,-0.1342,-0.1464,0.0854,0.10248,0.0488,0.01952,0,-0.04392,-0.01464
0.00488,0.05368,-0.11224,-0.11468,-0.11712,0.061,0.07808,0.03904,0.05856,0.01464,-0.04392,-0.02928
0.00488,0.04636,-0.0976,-0.10004,-0.10248,0.05368,0.0732,0.03904,0.11224,0.03904,-0.03416,-0.0244
0,0.04636,-0.09272,-0.09272,-0.09272,0.04636,0.05856,0.05368,0.15128,0.06832,-0.01464,-0.00488
0,0.04636,-0.09272,-0.09272,-0.09272,0.04636,0.05856,0.09272,0.18056,0.09272,0.00488,0.00488
0,0.04636,-0.09272,-0.09272,-0.09272,0.04636,0.07808,0.13176,0.1952,0.09272,0.00976,0.01464
0,0.04148,-0.08296,-0.08296,-0.08296,0.04148,0.10248,0.16592,0.20496,0.10736,0.0244,0.01952
0,0.04148,-0.08296,-0.08296,-0.08296,0.04148,0.12688,0.20984,0.20496,0.11712,0.02928,0.00488
0.00488,0.0366,-0.07808,-0.08052,-0.08296,0.04392,0.14152,0.24888,0.20496,0.12688,0.03416,0.00488
0.00488,0.03172,-0.06832,-0.07076,-0.0732,0.03904,0.15616,0.27328,0.19032,0.13176,0.03416,0.00488
0,0.03172,-0.06344,-0.06344,-0.06344,0.03172,0.16592,0.28304,0.1952,0.13176,0.03904,0.00976
0.00488,0.0244,-0.05368,-0.05612,-0.05856,0.03172,0.17568,0.27328,0.20496,0.1464,0.03904,0.0244
0.01952,0.01464,-0.0488,-0.05856,-0.06832,0.04392,0.18056,0.244,0.23424,0.15616,0.05368,0.03416
0.0244,0.00732,-0.03904,-0.05124,-0.06344,0.04392,0.18056,0.2196,0.26352,0.15128,0.05368,0.02928
0.0244,0.00732,-0.03904,-0.05124,-0.06344,0.04392,0.16104,0.1952,0.28304,0.16104,0.05856,0.02928
0.03416,0.00244,-0.03904,-0.05612,-0.0732,0.05368,0.15128,0.18544,0.30744,0.16592,0.05856,0.03904
0.03904,0,-0.03904,-0.05856,-0.07808,0.05856,0.14152,0.18544,0.31232,0.18056,0.06344,0.03416
0.03416,0,-0.03416,-0.05124,-0.06832,0.05124,0.11224,0.17568,0.32696,0.18544,0.0732,0.02928
0.03904,-0.00244,-0.03416,-0.05368,-0.0732,0.05612,0.10248,0.18056,0.33672,0.1952,0.07808,0.03416
0.03416,0.00244,-0.03904,-0.05612,-0.0732,0.05368,0.08784,0.20008,0.33672,0.20984,0.08784,0.04392
0.04392,-0.00244,-0.03904,-0.061,-0.08296,0.06344,0.08784,0.20496,0.34648,0.2196,0.09272,0.0488
0.04392,-0.00244,-0.03904,-0.061,-0.08296,0.06344,0.0976,0.2196,0.36112,0.22448,0.10248,0.06344
0.04392,-0.00732,-0.02928,-0.05124,-0.0732,0.05856,0.10248,0.22448,0.37088,0.23424,0.10248,0.06344
0.0488,-0.00976,-0.02928,-0.05368,-0.07808,0.06344,0.11224,0.2196,0.3904,0.24888,0.10736,0.06832
0.04392,-0.00976,-0.0244,-0.04636,-0.06832,0.05612,0.13176,0.22936,0.40016,0.25864,0.11712,0.0732
0.05368,-0.01708,-0.01952,-0.04636,-0.0732,0.06344,0.13664,0.22936,0.40504,0.27328,0.12688,0.06344
0.06344,-0.0244,-0.01464,-0.04636,-0.07808,0.07076,0.13176,0.244,0.41968,0.28792,0.13176,0.06344
0.0732,-0.03172,-0.00976,-0.04636,-0.08296,0.07808,0.12688,0.26352,0.4392,0.29768,0.15128,0.0732
0.08296,-0.04148,0,-0.04148,-0.08296,0.08296,0.13664,0.28304,0.45872,0.31232,0.16104,0.0732
0.07808,-0.04392,0.00976,-0.02928,-0.06832,0.0732,0.14152,0.29768,0.4636,0.33184,0.16104,0.07808
0.08296,-0.04636,0.00976,-0.03172,-0.0732,0.07808,0.1464,0.30744,0.48312,0.3416,0.1708,0.07808
0.08784,-0.04636,0.00488,-0.03904,-0.08296,0.0854,0.16592,0.33672,0.50264,0.36112,0.1952,0.09272
0.09272,-0.05612,0.01952,-0.02684,-0.0732,0.08296,0.16592,0.3416,0.52704,0.38064,0.21472,0.0976
0.11224,-0.06832,0.0244,-0.03172,-0.08784,0.10004,0.1708,0.35624,0.55632,0.41968,0.22448,0.11224
0.122,-0.07564,0.02928,-0.03172,-0.09272,0.10736,0.19032,0.38552,0.5856,0.4392,0.244,0.13176
0.11224,-0.0732,0.03416,-0.02196,-0.07808,0.09516,0.19032,0.40016,0.60512,0.44408,0.26352,0.1464
0.122,-0.07808,0.03416,-0.02684,-0.08784,0.10492,0.19032,0.41968,0.63928,0.47336,0.27816,0.16592
0.13664,-0.09272,0.0488,-0.01952,-0.08784,0.11224,0.18544,0.4392,0.66368,0.50264,0.29768,0.17568
0.14152,-0.0976,0.05368,-0.01708,-0.08784,0.11468,0.18544,0.4636,0.68808,0.51728,0.31232,0.19032
0.16104,-0.11224,0.06344,-0.01708,-0.0976,0.12932,0.18056,0.49288,0.72224,0.54168,0.33672,0.20496
0.1708,-0.13176,0.09272,0.00732,-0.07808,0.12444,0.18056,0.5124,0.7564,0.57096,0.36112,0.23912
0.1708,-0.1342,0.0976,0.0122,-0.0732,0.122,0.18056,0.51728,0.77592,0.58072,0.366,0.25376
0.18544,-0.14396,0.10248,0.00976,-0.08296,0.1342,0.18544,0.5368,0.8052,0.60512,0.3904,0.27328
0.1952,-0.15372,0.11224,0.01464,-0.08296,0.13908,0.17568,0.55144,0.82472,0.62952,0.40992,0.2928
0.20984,-0.16592,0.122,0.01708,-0.08784,0.14884,0.16592,0.5612,0.84912,0.64416,0.42456,0.31232
0.22936,-0.18544,0.14152,0.02684,-0.08784,0.1586,0.16104,0.57584,0.86864,0.66368,0.44896,0.32696
0.23912,-0.1952,0.15128,0.03172,-0.08784,0.16348,0.1464,0.57584,0.87352,0.66856,0.45872,0.3416
0.244,-0.19764,0.15128,0.02928,-0.09272,0.16836,0.14152,0.57584,0.88328,0.67832,0.46848,0.34648
0.24888,-0.2074,0.16592,0.04148,-0.08296,0.16592,0.13664,0.58072,0.88328,0.67832,0.48312,0.35624
0.25864,-0.22204,0.18544,0.05612,-0.0732,0.16592,0.13176,0.58072,0.87352,0.68808,0.488,0.36112
0.25864,-0.22204,0.18544,0.05612,-0.0732,0.16592,0.122,0.5612,0.85888,0.6832,0.49288,0.36112
0.25864,-0.22692,0.1952,0.06588,-0.06344,0.16104,0.11224,0.55632,0.83448,0.66368,0.488,0.366
0.24888,-0.22204,0.1952,0.07076,-0.05368,0.15128,0.11712,0.53192,0.80032,0.64416,0.47824,0.37088
0.23912,-0.21716,0.1952,0.07564,-0.04392,0.14152,0.11224,0.49288,0.7564,0.62464,0.46848,0.37576
0.23912,-0.21228,0.18544,0.06588,-0.05368,0.1464,0.0976,0.45384,0.71248,0.59048,0.44896,0.366
0.2196,-0.19276,0.16592,0.05612,-0.05368,0.13664,0.07808,0.40992,0.66368,0.56608,0.44408,0.366
0.20496,-0.18056,0.15616,0.05368,-0.0488,0.12688,0.06832,0.36112,0.60512,0.52216,0.4148,0.35136
0.18544,-0.17324,0.16104,0.06832,-0.0244,0.10492,0.06344,0.32696,0.54656,0.47824,0.38552,0.3172
0.16592,-0.15128,0.13664,0.05368,-0.02928,0.0976,0.05368,0.30256,0.488,0.42944,0.35624,0.2928
0.1464,-0.1342,0.122,0.0488,-0.0244,0.0854,0.0488,0.27328,0.40992,0.37088,0.31232,0.26352
0.122,-0.11224,0.10248,0.04148,-0.01952,0.07076,0.03904,0.24888,0.35624,0.3172,0.27328,0.23424
0.10248,-0.09516,0.08784,0.0366,-0.01464,0.05856,0.0244,0.23424,0.31232,0.27816,0.244,0.20984
0.08296,-0.07564,0.06832,0.02684,-0.01464,0.0488,0.01952,0.22448,0.26352,0.22936,0.21472,0.17568
0.0732,-0.061,0.0488,0.0122,-0.0244,0.0488,0.02928,0.1952,0.22936,0.20008,0.17568,0.1464
0.06832,-0.05612,0.04392,0.00976,-0.0244,0.04636,0.02928,0.1708,0.19032,0.16104,0.15128,0.12688
0.0488,-0.0366,0.0244,0,-0.0244,0.0366,0.01952,0.15616,0.16104,0.14152,0.122,0.10736
0.03416,-0.0244,0.01464,-0.00244,-0.01952,0.02684,0.01952,0.14152,0.14152,0.11712,0.0976,0.09272
0.02928,-0.01708,0.00488,-0.00976,-0.0244,0.02684,0.02928,0.13176,0.13176,0.10736,0.08784,0.0732
0.0244,-0.00976,-0.00488,-0.01708,-0.02928,0.02684,0.02928,0.11712,0.11224,0.08784,0.0732,0.06344
0.01952,0,-0.01952,-0.02928,-0.03904,0.02928,0.02928,0.10248,0.0976,0.05856,0.05368,0.05368
0.01464,0.00732,-0.02928,-0.0366,-0.04392,0.02928,0.03416,0.0976,0.09272,0.05368,0.0488,0.04392
0.01952,0.00976,-0.03904,-0.0488,-0.05856,0.03904,0.03416,0.08296,0.08784,0.04392,0.03904,0.04392
0.00488,0.01708,-0.03904,-0.04148,-0.04392,0.0244,0.03416,0.08784,0.08296,0.03904,0.03904,0.03416
0.00976,0.01464,-0.03904,-0.04392,-0.0488,0.02928,0.03904,0.0732,0.0732,0.03416,0.02928,0.03416
0.00976,0.01952,-0.0488,-0.05368,-0.05856,0.03416,0.03904,0.0732,0.08296,0.02928,0.02928,0.03904
-0.00976,0.02928,-0.0488,-0.04392,-0.03904,0.01464,0.03416,0.06832,0.07808,0.0244,0.02928,0.02928
-0.00976,0.03172,-0.05368,-0.0488,-0.04392,0.01708,0.02928,0.07808,0.07808,0.0244,0.02928,0.02928
-0.01464,0.02684,-0.03904,-0.03172,-0.0244,0.00488,0.02928,0.08784,0.06344,0.0244,0.02928,0.01952
-0.01952,0.02928,-0.03904,-0.02928,-0.01952,0,0.03904,0.10248,0.06832,0.0244,0.02928,0.0244
-0.01464,0.02928,-0.04392,-0.0366,-0.02928,0.00732,0.06832,0.10736,0.06832,0.0244,0.02928,0.03904
-0.00488,0.0244,-0.04392,-0.04148,-0.03904,0.01708,0.0732,0.11712,0.06832,0.02928,0.0244,0.04392
-0.00976,0.03172,-0.05368,-0.0488,-0.04392,0.01708,0.0732,0.10736,0.07808,0.0244,0.0244,0.04392
-0.00488,0.02928,-0.05368,-0.05124,-0.0488,0.02196,0.07808,0.11224,0.0732,0.0244,0.02928,0.03904
-0.00488,0.03172,-0.05856,-0.05612,-0.05368,0.0244,0.05856,0.11224,0.06344,0.01952,0.02928,0.0488
-0.00488,0.03172,-0.05856,-0.05612,-0.05368,0.0244,0.03904,0.10736,0.05856,0.01952,0.02928,0.04392
0.00488,0.0244,-0.05368,-0.05612,-0.05856,0.03172,0.01952,0.0976,0.03904,0.01952,0.01952,0.04392
0.00488,0.01952,-0.04392,-0.04636,-0.0488,0.02684,-0.00488,0.08784,0.04392,0.01952,0.0244,0.04392
0,0.02196,-0.04392,-0.04392,-0.04392,0.02196,-0.01952,0.08784,0.03416,0.01952,0.02928,0.05856
0.00488,0.01708,-0.03904,-0.04148,-0.04392,0.0244,-0.01952,0.08784,0.04392,0.0244,0.02928,0.06344
0.00976,0.01464,-0.03904,-0.04392,-0.0488,0.02928,-0.01464,0.07808,0.04392,0.0244,0.02928,0.0732
0.00488,0.01708,-0.03904,-0.04148,-0.04392,0.0244,-0.00976,0.08296,0.04392,0.02928,0.02928,0.08296
0.00488,0.0122,-0.02928,-0.03172,-0.03416,0.01952,0.00488,0.09272,0.04392,0.03904,0.03904,0.08296
0,0.01464,-0.02928,-0.02928,-0.02928,0.01464,0.01952,0.09272,0.0488,0.03904,0.03904,0.08784
0,0.01708,-0.03416,-0.03416,-0.03416,0.01708,0.02928,0.10248,0.0488,0.03416,0.03416,0.08296
0,0.01464,-0.02928,-0.02928,-0.02928,0.01464,0.02928,0.10248,0.05368,0.03416,0.03416,0.0732
0,0.0122,-0.0244,-0.0244,-0.0244,0.0122,0.03416,0.10248,0.03904,0.03416,0.0244,0.06344
0.00488,0.00488,-0.01464,-0.01708,-0.01952,0.0122,0.0244,0.10248,0.03416,0.02928,0.0244,0.05368
0.00976,0.00732,-0.0244,-0.02928,-0.03416,0.02196,0.01952,0.08784,0.04392,0.02928,0.0244,0.05368
0.00976,0.00732,-0.0244,-0.02928,-0.03416,0.02196,0.02928,0.0976,0.04392,0.03416,0.0244,0.05368
0,0.00976,-0.01952,-0.01952,-0.01952,0.00976,0.04392,0.10248,0.04392,0.03416,0.0244,0.0488
0.00488,0.00488,-0.01464,-0.01708,-0.01952,0.0122,0.0488,0.10736,0.03904,0.02928,0.0244,0.04392
0.01464,-0.00244,-0.00976,-0.01708,-0.0244,0.01952,0.04392,0.10736,0.0488,0.02928,0.01952,0.04392
0.01464,0,-0.01464,-0.02196,-0.02928,0.02196,0.0488,0.09272,0.04392,0.02928,0.01464,0.0488
0.00488,0,-0.00488,-0.00732,-0.00976,0.00732,0.0488,0.0976,0.05368,0.0244,0.0244,0.05856
0.00488,0,-0.00488,-0.00732,-0.00976,0.00732,0.0488,0.10736,0.04392,0.0244,0.0244,0.06344
-0.00488,0.00488,-0.00488,-0.00244,0,-0.00244,0.0488,0.10248,0.03904,0.00488,0.01952,0.05368
-0.00488,0.00732,-0.00976,-0.00732,-0.00488,0,0.03416,0.10248,0.03416,0.00488,0.00976,0.0488
0.00488,0.00488,-0.01464,-0.01708,-0.01952,0.0122,0.0244,0.0976,0.02928,0.01464,0.00976,0.05856
0.00488,0.00488,-0.01464,-0.01708,-0.01952,0.0122,0.01952,0.09272,0.0244,0.00488,0.00488,0.05856
-0.00488,0.00976,-0.01464,-0.0122,-0.00976,0.00244,0.0244,0.0976,0.01464,-0.00488,0,0.05368
0,0.00976,-0.01952,-0.01952,-0.01952,0.00976,0.02928,0.0976,0.01464,-0.00488,0,0.05368
-0.00976,0.01952,-0.02928,-0.0244,-0.01952,0.00488,0.03416,0.08784,0.01952,0.00488,0.00976,0.06344
-0.01464,0.02196,-0.02928,-0.02196,-0.01464,0,0.03904,0.08784,0.01464,-0.00488,0,0.05856
-0.00488,0.0122,-0.01952,-0.01708,-0.01464,0.00488,0.0488,0.07808,0.01464,-0.01952,-0.00976,0.05856
-0.00488,0.0122,-0.01952,-0.01708,-0.01464,0.00488,0.03904,0.06832,0,-0.0244,-0.00488,0.05856
0,0.00488,-0.00976,-0.00976,-0.00976,0.00488,0.03904,0.0732,0,-0.0244,-0.01464,0.05856
0,0.00488,-0.00976,-0.00976,-0.00976,0.00488,0.03904,0.0732,0,-0.0244,-0.01464,0.05856
-0.00488,0.0122,-0.01952,-0.01708,-0.01464,0.00488,0.02928,0.0732,0.00976,-0.02928,-0.01952,0.05856
-0.00488,0.0122,-0.01952,-0.01708,-0.01464,0.00488,0.02928,0.06832,0.00976,-0.02928,-0.01952,0.05856
0,0.00976,-0.01952,-0.01952,-0.01952,0.00976,0.02928,0.06832,0.01952,-0.03904,-0.01464,0.06344
-0.00488,0.0122,-0.01952,-0.01708,-0.01464,0.00488,0.0244,0.05856,0.01464,-0.03904,-0.01952,0.06344
-0.00488,0.00976,-0.01464,-0.0122,-0.00976,0.00244,0.0244,0.05368,0.01464,-0.04392,-0.02928,0.06344
0.00488,0.00488,-0.01464,-0.01708,-0.01952,0.0122,0.0244,0.0488,0.01464,-0.0488,-0.02928,0.05368
0,0.0122,-0.0244,-0.0244,-0.0244,0.0122,0.0244,0.0488,0.01464,-0.03904,-0.01952,0.05368
-0.00976,0.01708,-0.0244,-0.01952,-0.01464,0.00244,0.02928,0.05368,0.01464,-0.04392,-0.01952,0.06344
-0.0244,0.0244,-0.0244,-0.0122,0,-0.0122,0.02928,0.05368,0.0244,-0.04392,-0.01952,0.06832
-0.00488,0.01464,-0.0244,-0.02196,-0.01952,0.00732,0.02928,0.06344,0.0244,-0.04392,-0.01952,0.06832
-0.00976,0.02196,-0.03416,-0.02928,-0.0244,0.00732,0.03904,0.07808,0.02928,-0.04392,-0.01952,0.07808
-0.01952,0.02684,-0.03416,-0.0244,-0.01464,-0.00244,0.03904,0.08296,0.02928,-0.04392,-0.01952,0.0732
-0.01952,0.03172,-0.04392,-0.03416,-0.0244,0.00244,0.03416,0.0976,0.0244,-0.04392,-0.0244,0.0732
-0.01952,0.02928,-0.03904,-0.02928,-0.01952,0,0.03904,0.0976,0.0244,-0.04392,-0.02928,0.06832
-0.0244,0.02928,-0.03416,-0.02196,-0.00976,-0.00732,0.04392,0.0976,0.0244,-0.04392,-0.01952,0.07808
-0.0244,0.02928,-0.03416,-0.02196,-0.00976,-0.00732,0.03904,0.09272,0.02928,-0.04392,-0.01952,0.08296
-0.0244,0.02928,-0.03416,-0.02196,-0.00976,-0.00732,0.04392,0.09272,0.02928,-0.0488,-0.02928,0.06832
-0.01952,0.0244,-0.02928,-0.01952,-0.00976,-0.00488,0.04392,0.09272,0.03416,-0.0488,-0.02928,0.0732
-0.01952,0.02928,-0.03904,-0.02928,-0.01952,0,0.04392,0.09272,0.03416,-0.05368,-0.02928,0.06832
-0.01952,0.02684,-0.03416,-0.0244,-0.01464,-0.00244,0.04392,0.0976,0.03904,-0.05368,-0.02928,0.06832
-0.01464,0.01708,-0.01952,-0.0122,-0.00488,-0.00488,0.03416,0.10248,0.03904,-0.05368,-0.01952,0.06344
-0.00976,0.01464,-0.01952,-0.01464,-0.00976,0,0.03904,0.0976,0.03904,-0.05368,-0.01952,0.06344
-0.00976,0.01708,-0.0244,-0.01952,-0.01464,0.00244,0.03904,0.08296,0.02928,-0.05368,-0.0244,0.06832
-0.00976,0.01952,-0.02928,-0.0244,-0.01952,0.00488,0.04392,0.08784,0.02928,-0.05368,-0.0244,0.06832
-0.00976,0.02196,-0.03416,-0.02928,-0.0244,0.00732,0.04392,0.07808,0.02928,-0.05368,-0.03416,0.05856
-0.00976,0.02196,-0.03416,-0.02928,-0.0244,0.00732,0.03904,0.08296,0.02928,-0.05368,-0.03416,0.05856
-0.01464,0.02684,-0.03904,-0.03172,-0.0244,0.00488,0.04392,0.07808,0.02928,-0.05368,-0.02928,0.05368
-0.01464,0.0244,-0.03416,-0.02684,-0.01952,0.00244,0.03904,0.0732,0.02928,-0.05368,-0.02928,0.05368
-0.01464,0.01952,-0.0244,-0.01708,-0.00976,-0.00244,0.02928,0.06344,0.01952,-0.06344,-0.02928,0.05368
-0.01464,0.01952,-0.0244,-0.01708,-0.00976,-0.00244,0.03416,0.06832,0.01952,-0.06344,-0.02928,0.05368
-0.01464,0.0244,-0.03416,-0.02684,-0.01952,0.00244,0.02928,0.05856,0.02928,-0.05368,-0.01952,0.06344
-0.00976,0.02196,-0.03416,-0.02928,-0.0244,0.00732,0.02928,0.05856,0.02928,-0.05368,-0.01952,0.06344
-0.00976,0.01708,-0.0244,-0.01952,-0.01464,0.00244,0.03904,0.06344,0.02928,-0.06344,-0.02928,0.06344
0,0.0122,-0.0244,-0.0244,-0.0244,0.0122,0.03416,0.06832,0.0244,-0.06344,-0.02928,0.06344
-0.00488,0.01464,-0.0244,-0.02196,-0.01952,0.00732,0.0488,0.08296,0.01952,-0.06344,-0.01952,0.05368
-0.01952,0.02196,-0.0244,-0.01464,-0.00488,-0.00732,0.0488,0.0976,0.00976,-0.06344,-0.01952,0.05368
-0.01952,0.01708,-0.01464,-0.00488,0.00488,-0.0122,0.05368,0.09272,0.00488,-0.0732,-0.02928,0.04392
-0.00976,0.0122,-0.01464,-0.00976,-0.00488,-0.00244,0.04392,0.09272,0.00488,-0.0732,-0.02928,0.04392
-0.00488,0.00976,-0.01464,-0.0122,-0.00976,0.00244,0.04392,0.10248,0.00976,-0.06344,-0.0244,0.05368
-0.00488,0.00976,-0.01464,-0.0122,-0.00976,0.00244,0.03904,0.10248,0.00976,-0.06344,-0.0244,0.05856
-0.00976,0.0122,-0.01464,-0.00976,-0.00488,-0.00244,0.03416,0.09272,0.00488,-0.0732,-0.0244,0.0488
-0.00976,0.0122,-0.01464,-0.00976,-0.00488,-0.00244,0.01952,0.08296,0.00488,-0.0732,-0.02928,0.0488
-0.00976,0.01952,-0.02928,-0.0244,-0.01952,0.00488,0.01464,0.09272,0.00488,-0.06344,-0.0244,0.05856
-0.00976,0.01708,-0.0244,-0.01952,-0.01464,0.00244,0.00976,0.08296,0.00488,-0.06344,-0.02928,0.05856
-0.00976,0.01708,-0.0244,-0.01952,-0.01464,0.00244,0.00976,0.08296,0.00488,-0.06344,-0.01952,0.05856
-0.00976,0.01464,-0.01952,-0.01464,-0.00976,0,0.00976,0.09272,0.00488,-0.06344,-0.01952,0.05856
-0.01464,0.01464,-0.01464,-0.00732,0,-0.00732,0.00976,0.10248,0.00488,-0.0732,-0.02928,0.0488
-0.01464,0.01464,-0.01464,-0.00732,0,-0.00732,0.01464,0.10248,0.00488,-0.0732,-0.0244,0.0488
-0.01464,0.01708,-0.01952,-0.0122,-0.00488,-0.00488,0.01952,0.10248,0.00488,-0.0732,-0.0244,0.05856
-0.01464,0.01464,-0.01464,-0.00732,0,-0.00732,0.0244,0.10248,0.00488,-0.0732,-0.0244,0.05856
-0.01464,0.0122,-0.00976,-0.00244,0.00488,-0.00976,0.03904,0.10736,0.01464,-0.06344,-0.01464,0.0488
-0.00976,0.00488,0,0.00488,0.00976,-0.00976,0.03904,0.0976,0.00976,-0.06832,-0.01952,0.0488
-0.01952,0.01464,-0.00976,0,0.00976,-0.01464,0.02928,0.08784,0,-0.07808,-0.02928,0.03904
-0.01952,0.01952,-0.01952,-0.00976,0,-0.00976,0.02928,0.08784,0,-0.07808,-0.02928,0.03904
-0.00976,0.00976,-0.00976,-0.00488,0,-0.00488,0.02928,0.08784,0,-0.06832,-0.02928,0.0488
0,0.00488,-0.00976,-0.00976,-0.00976,0.00488,0.02928,0.08784,0,-0.06832,-0.02928,0.0488
-0.00976,0.00976,-0.00976,-0.00488,0,-0.00488,0.02928,0.0976,-0.00976,-0.06832,-0.02928,0.0488
-0.00976,0.00976,-0.00976,-0.00488,0,-0.00488,0.02928,0.0976,-0.00976,-0.06832,-0.02928,0.0488
0,0.00976,-0.01952,-0.01952,-0.01952,0.00976,0.01952,0.0976,-0.01952,-0.07808,-0.01952,0.03904
0,0.00976,-0.01952,-0.01952,-0.01952,0.00976,0.01952,0.0976,-0.01952,-0.07808,-0.01952,0.03904
0,0.00976,-0.01952,-0.01952,-0.01952,0.00976,0.01952,0.0976,-0.00976,-0.06832,-0.01952,0.0488
0,0.00976,-0.01952,-0.01952,-0.01952,0.00976,0.01952,0.0976,0,-0.06832,-0.01952,0.0488
0,0.00488,-0.00976,-0.00976,-0.00976,0.00488,0.01952,0.08784,-0.00976,-0.07808,-0.02928,0.03904
0,0,0,0,0,0,0.01952,0.07808,-0.01952,-0.07808,-0.02928,0.02928
-0.00976,0.00976,-0.00976,-0.00488,0,-0.00488,0.00976,0.07808,-0.01952,-0.07808,-0.03904,0.01952
-0.00976,0.00976,-0.00976,-0.00488,0,-0.00488,0.00976,0.07808,-0.01952,-0.07808,-0.03904,0.01952
0,0,0,0,0,0,0.01952,0.07808,-0.01952,-0.07808,-0.02928,0.02928
0,0,0,0,0,0,0.01952,0.07808,-0.01952,-0.07808,-0.02928,0.02928
0,0,0,0,0,0,0.01952,0.08784,-0.01952,-0.07808,-0.02928,0.02928
0,0,0,0,0,0,0.01952,0.08784,-0.01952,-0.07808,-0.02928,0.02928
0,0,0,0,0,0,0.01952,0.08784,-0.01952,-0.07808,-0.01952,0.02928
0,0,0,0,0,0,0.01952,0.08784,-0.01952,-0.0732,-0.01952,0.0244
0,-0.00488,0.00976,0.00976,0.00976,-0.00488,0.0244,0.08784,-0.00976,-0.06344,-0.01952,0.0244
0,-0.00488,0.00976,0.00976,0.00976,-0.00488,0.02928,0.08784,-0.00488,-0.06344,-0.01464,0.0244
-0.00488,0.00244,0,0.00244,0.00488,-0.00488,0.02928,0.08784,-0.00488,-0.06344,-0.00976,0.01952
-0.00488,-0.00732,0.01952,0.02196,0.0244,-0.01464,0.02928,0.09272,0.00976,-0.05856,-0.00488,0.0244
0,-0.01464,0.02928,0.02928,0.02928,-0.01464,0.0244,0.07808,0,-0.05368,-0.00488,0.0244
0.00488,-0.02196,0.03904,0.0366,0.03416,-0.01464,0.01952,0.0732,0,-0.0488,-0.00976,0.01464
0.00976,-0.02928,0.0488,0.04392,0.03904,-0.01464,0.0244,0.07808,0.01464,-0.03904,0.00976,0.02928
0.00976,-0.0366,0.06344,0.05856,0.05368,-0.02196,0.01952,0.07808,0.01952,-0.02928,0.01464,0.03416
0.01464,-0.0366,0.05856,0.05124,0.04392,-0.01464,0.00976,0.06344,0.01952,-0.03416,0.01464,0.03416
0.01464,-0.03904,0.06344,0.05612,0.0488,-0.01708,0.00976,0.05368,0.01952,-0.03416,0.01464,0.03416
0.01464,-0.0366,0.05856,0.05124,0.04392,-0.01464,0.01464,0.04392,0.0244,-0.02928,0.01464,0.03416
0.01464,-0.03904,0.06344,0.05612,0.0488,-0.01708,0.01464,0.05368,0.02928,-0.02928,0.01952,0.03904
0.02928,-0.05612,0.08296,0.06832,0.05368,-0.0122,0.00976,0.05368,0.02928,-0.01952,0.03416,0.02928
0.02928,-0.06588,0.10248,0.08784,0.0732,-0.02196,-0.00976,0.03416,0.0244,-0.01952,0.03416,0.03416
0.01952,-0.061,0.10248,0.09272,0.08296,-0.03172,-0.03416,0.01952,0.00976,-0.01464,0.0244,0.03904
0.02928,-0.07076,0.11224,0.0976,0.08296,-0.02684,-0.05856,0.00976,0,-0.01464,0.0244,0.03904
0.04392,-0.09272,0.14152,0.11956,0.0976,-0.02684,-0.05368,0.00488,0.00976,0,0.03904,0.04392
0.06344,-0.11224,0.16104,0.12932,0.0976,-0.01708,-0.04392,0.01952,0.0244,0.00976,0.0488,0.05368
0.05856,-0.10004,0.14152,0.11224,0.08296,-0.0122,-0.04392,0.01952,0.00488,-0.00976,0.03904,0.04392
0.05368,-0.08784,0.122,0.09516,0.06832,-0.00732,-0.04392,0.01952,0,-0.0244,0.0244,0.03904
0.0488,-0.07808,0.10736,0.08296,0.05856,-0.00488,-0.0488,0.00976,-0.01464,-0.0244,0.0244,0.02928
0.0488,-0.07564,0.10248,0.07808,0.05368,-0.00244,-0.0488,0,-0.0244,-0.03416,0.01952,0.02928
0.03904,-0.05612,0.0732,0.05368,0.03416,0.00244,-0.04392,-0.01952,-0.03416,-0.04392,0.00488,0.0244
0.02928,-0.04392,0.05856,0.04392,0.02928,0,-0.04392,-0.0244,-0.0244,-0.05368,0,0.01464
0.01952,-0.03416,0.0488,0.03904,0.02928,-0.00488,-0.03416,-0.00488,-0.0244,-0.0488,0,0.00976
0.00976,-0.01952,0.02928,0.0244,0.01952,-0.00488,-0.0244,-0.00488,-0.01952,-0.0488,-0.00488,0
0,-0.00488,0.00976,0.00976,0.00976,-0.00488,-0.01464,-0.00488,-0.02928,-0.05368,-0.01464,-0.01464
0,-0.00244,0.00488,0.00488,0.00488,-0.00244,-0.00976,0,-0.03904,-0.06832,-0.0244,-0.0244
0,-0.00488,0.00976,0.00976,0.00976,-0.00488,-0.00976,-0.00976,-0.03904,-0.07808,-0.03416,-0.03416
0,0,0,0,0,0,-0.00976,-0.0244,-0.05368,-0.07808,-0.03904,-0.03904
0,0.00488,-0.00976,-0.00976,-0.00976,0.00488,0.00488,-0.0244,-0.0488,-0.08296,-0.03904,-0.03904
-0.00976,0.01464,-0.01952,-0.01464,-0.00976,0,0.00488,-0.0244,-0.0488,-0.09272,-0.0488,-0.03904
-0.00488,0.01952,-0.03416,-0.03172,-0.02928,0.0122,0.00488,-0.03416,-0.0488,-0.08296,-0.0488,-0.03416
-0.00976,0.02928,-0.0488,-0.04392,-0.03904,0.01464,0.01464,-0.02928,-0.0488,-0.08296,-0.04392,-0.03416
0,0.01952,-0.03904,-0.03904,-0.03904,0.01952,0.01952,-0.02928,-0.03904,-0.0732,-0.03416,-0.0244
-0.00488,0.02684,-0.0488,-0.04636,-0.04392,0.01952,0.02928,-0.0244,-0.0244,-0.05856,-0.03416,-0.0244
-0.00976,0.0366,-0.06344,-0.05856,-0.05368,0.02196,0.0244,-0.02928,-0.01952,-0.06344,-0.04392,-0.03416
-0.01464,0.03904,-0.06344,-0.05612,-0.0488,0.01708,0.00976,-0.03904,-0.01952,-0.06344,-0.04392,-0.03904
-0.01464,0.04392,-0.0732,-0.06588,-0.05856,0.02196,0.00976,-0.03904,-0.02928,-0.06344,-0.03416,-0.02928
-0.01464,0.04148,-0.06832,-0.061,-0.05368,0.01952,0.01952,-0.01952,-0.01952,-0.0488,-0.0244,-0.02928
-0.01464,0.061,-0.10736,-0.10004,-0.09272,0.03904,0.06832,0.06832,0.05368,0.02928,0.01464,-0.01952
0,0.06344,-0.12688,-0.12688,-0.12688,0.06344,0.122,0.16104,0.18544,0.1708,0.0976,0
0.03416,0.0244,-0.08296,-0.10004,-0.11712,0.07564,0.13176,0.2196,0.2928,0.38064,0.28792,0.08784
0.08296,-0.01464,-0.05368,-0.09516,-0.13664,0.1098,0.11712,0.22936,0.366,0.61488,0.54656,0.23424
0.17568,-0.10492,0.03416,-0.05368,-0.14152,0.1586,0.10248,0.27328,0.43432,0.9028,0.89792,0.44896
0.30744,-0.25376,0.20008,0.04636,-0.10736,0.2074,0.01464,0.18544,0.35624,1.19072,1.37128,0.7808
0.40016,-0.41968,0.4392,0.23912,0.03904,0.18056,-0.22936,-0.1464,-0.0976,1.14192,1.708,1.06872
0.48312,-0.56608,0.64904,0.40748,0.16592,0.1586,-0.56608,-0.64904,-0.79544,0.86376,1.95688,1.36152
0.46848,-0.59048,0.71248,0.47824,0.244,0.11224,-0.81984,-1.00528,-1.3176,0.57096,1.99592,1.43472
0.3904,-0.50752,0.62464,0.42944,0.23424,0.07808,-0.88816,-1.12728,-1.56648,0.38064,1.81536,1.2688
0.25864,-0.28548,0.31232,0.183,0.05368,0.10248,-0.74664,-1.0248,-1.5372,0.22936,1.28832,0.854
0.07808,-0.02928,-0.01952,-0.05856,-0.0976,0.08784,-0.60024,-0.92232,-1.5616,-0.27816,0.40992,0.27328
-0.05368,0.1098,-0.16592,-0.13908,-0.11224,0.02928,-0.59048,-0.94184,-1.67872,-1.01016,-0.50752,-0.22448
-0.04392,0.13908,-0.23424,-0.21228,-0.19032,0.0732,-0.47336,-0.76128,-1.45912,-1.01992,-0.59536,-0.31232
-0.0244,0.15128,-0.27816,-0.26596,-0.25376,0.11468,-0.30256,-0.52216,-1.14192,-0.81008,-0.4636,-0.26352
0,0.14396,-0.28792,-0.28792,-0.28792,0.14396,-0.16592,-0.33184,-0.8296,-0.57096,-0.32208,-0.21472
0,0.14152,-0.28304,-0.28304,-0.28304,0.14152,-0.01952,-0.15128,-0.5368,-0.3904,-0.23912,-0.1708
0.02928,0.09516,-0.2196,-0.23424,-0.24888,0.13908,0.04392,-0.0488,-0.33184,-0.22936,-0.15616,-0.14152
0.03416,0.06588,-0.16592,-0.183,-0.20008,0.11712,0.05368,-0.02928,-0.23912,-0.1464,-0.10736,-0.10736
0.01952,0.05368,-0.12688,-0.13664,-0.1464,0.08296,0.04392,-0.05368,-0.15616,-0.10248,-0.09272,-0.10736
0.01952,0.0366,-0.09272,-0.10248,-0.11224,0.06588,0.03416,-0.0488,-0.08296,-0.06344,-0.07808,-0.10248
-0.00488,0.03904,-0.0732,-0.07076,-0.06832,0.03172,0.00976,-0.08296,-0.03904,-0.04392,-0.07808,-0.11712
0.00488,0.03416,-0.0732,-0.07564,-0.07808,0.04148,-0.01464,-0.07808,0.0244,-0.00976,-0.05856,-0.10248
0.00488,0.02684,-0.05856,-0.061,-0.06344,0.03416,-0.03416,-0.06832,0.0732,0.01952,-0.0488,-0.0976
0.01952,0.0122,-0.04392,-0.05368,-0.06344,0.04148,-0.03904,-0.0488,0.10736,0.0488,-0.02928,-0.08784
0.01952,0.0122,-0.04392,-0.05368,-0.06344,0.04148,-0.03416,-0.03416,0.13176,0.06832,-0.01464,-0.08296
0.00976,0.01708,-0.04392,-0.0488,-0.05368,0.03172,-0.02928,0.00488,0.1464,0.07808,0,-0.08784
0.00976,0.01708,-0.04392,-0.0488,-0.05368,0.03172,-0.00488,0.03904,0.14152,0.09272,0.00488,-0.08784
0.01952,0.00488,-0.02928,-0.03904,-0.0488,0.03416,0.01952,0.06344,0.13664,0.11224,0.01464,-0.09272
0.0244,0.00244,-0.02928,-0.04148,-0.05368,0.03904,0.04392,0.0976,0.14152,0.122,0.01464,-0.09272
0.0244,-0.00488,-0.01464,-0.02684,-0.03904,0.03172,0.05368,0.08784,0.16592,0.11224,0.00976,-0.0976
0.01952,-0.00244,-0.01464,-0.0244,-0.03416,0.02684,0.05856,0.05856,0.17568,0.11224,0,-0.0976
0.0244,-0.00244,-0.01952,-0.03172,-0.04392,0.03416,0.03904,-0.00488,0.20984,0.11224,0.01952,-0.08296
0.02928,-0.00732,-0.01464,-0.02928,-0.04392,0.0366,0.03416,-0.06832,0.244,0.122,0.0244,-0.07808
0.03416,-0.0122,-0.00976,-0.02684,-0.04392,0.03904,0.01464,-0.0976,0.25376,0.13664,0.03904,-0.06832
0.03416,-0.0122,-0.00976,-0.02684,-0.04392,0.03904,0,-0.12688,0.2684,0.14152,0.03904,-0.06832
0.03904,-0.01464,-0.00976,-0.02928,-0.0488,0.04392,-0.0244,-0.12688,0.2684,0.15616,0.0488,-0.0732
0.03904,-0.01464,-0.00976,-0.02928,-0.0488,0.04392,-0.04392,-0.12688,0.27328,0.16592,0.05856,-0.0732
0.03904,-0.01708,-0.00488,-0.0244,-0.04392,0.04148,-0.05368,-0.11224,0.26352,0.1708,0.05856,-0.06832
0.03416,-0.01708,0,-0.01708,-0.03416,0.03416,-0.06832,-0.10736,0.26352,0.18056,0.06344,-0.06344
0.0488,-0.02928,0.00976,-0.01464,-0.03904,0.04392,-0.06832,-0.08784,0.26352,0.1952,0.08296,-0.0488
0.05368,-0.0366,0.01952,-0.00732,-0.03416,0.04392,-0.06832,-0.0732,0.26352,0.20984,0.08296,-0.0488
0.05368,-0.0366,0.01952,-0.00732,-0.03416,0.04392,-0.0488,-0.08296,0.2684,0.22936,0.10248,-0.03416
0.05856,-0.03416,0.00976,-0.01952,-0.0488,0.05368,-0.01952,-0.07808,0.27816,0.23424,0.10248,-0.01952
0.05368,-0.03172,0.00976,-0.01708,-0.04392,0.0488,-0.0244,-0.10248,0.28304,0.244,0.10736,-0.0244
0.06344,-0.03904,0.01464,-0.01708,-0.0488,0.05612,-0.01952,-0.10736,0.29768,0.25864,0.122,-0.0244
0.06344,-0.0366,0.00976,-0.02196,-0.05368,0.05856,-0.0244,-0.11712,0.31232,0.2684,0.122,-0.03416
0.0732,-0.04392,0.01464,-0.02196,-0.05856,0.06588,-0.01952,-0.10736,0.32696,0.28792,0.12688,-0.03416
0.06344,-0.03904,0.01464,-0.01708,-0.0488,0.05612,-0.00976,-0.11224,0.34648,0.3172,0.1464,-0.03416
0.07808,-0.04636,0.01464,-0.0244,-0.06344,0.07076,-0.00976,-0.10736,0.366,0.32696,0.16592,-0.03416
0.07808,-0.0488,0.01952,-0.01952,-0.05856,0.06832,-0.00976,-0.11712,0.38552,0.34648,0.17568,-0.03904
0.08784,-0.05612,0.0244,-0.01952,-0.06344,0.07564,-0.00976,-0.11224,0.40504,0.366,0.19032,-0.02928
0.0976,-0.05856,0.01952,-0.02928,-0.07808,0.08784,0,-0.122,0.42944,0.38064,0.20008,-0.01952
0.10736,-0.06832,0.02928,-0.0244,-0.07808,0.09272,0,-0.122,0.45872,0.40016,0.21472,-0.01464
0.10736,-0.06588,0.0244,-0.02928,-0.08296,0.09516,-0.00488,-0.122,0.47824,0.43432,0.23912,0.00488
0.11224,-0.0732,0.03416,-0.02196,-0.07808,0.09516,-0.00976,-0.10736,0.50752,0.45384,0.24888,0.0244
0.13176,-0.08784,0.04392,-0.02196,-0.08784,0.1098,-0.0244,-0.0976,0.52704,0.47824,0.2684,0.0488
0.1464,-0.10004,0.05368,-0.01952,-0.09272,0.11956,-0.0244,-0.06344,0.55144,0.5124,0.28792,0.06832
0.15128,-0.10736,0.06344,-0.0122,-0.08784,0.11956,-0.01952,-0.05368,0.57584,0.5368,0.31232,0.08784
0.15616,-0.1098,0.06344,-0.01464,-0.09272,0.12444,-0.01464,-0.04392,0.61,0.5612,0.34648,0.0976
0.15128,-0.11712,0.08296,0.00732,-0.06832,0.1098,-0.0244,-0.03416,0.6344,0.59048,0.37088,0.0976
0.1708,-0.12932,0.08784,0.00244,-0.08296,0.12688,-0.0244,-0.01464,0.65392,0.61488,0.38552,0.12688
0.19032,-0.15372,0.11712,0.02196,-0.0732,0.13176,-0.02928,-0.00488,0.67344,0.63928,0.40504,0.13664
0.20008,-0.16348,0.12688,0.02684,-0.0732,0.13664,-0.02928,0,0.68808,0.66856,0.42944,0.1464
0.2196,-0.17324,0.12688,0.01708,-0.09272,0.15616,-0.0244,0.00976,0.71248,0.68808,0.44896,0.16592
0.22448,-0.17812,0.13176,0.01952,-0.09272,0.1586,-0.03416,0.01952,0.72712,0.70272,0.46848,0.18056
0.23912,-0.18544,0.13176,0.0122,-0.10736,0.17324,-0.04392,0.00976,0.732,0.71248,0.48312,0.20984
0.24888,-0.1952,0.14152,0.01708,-0.10736,0.17812,-0.05368,0.00976,0.74664,0.72224,0.49776,0.244
0.25376,-0.20252,0.15128,0.0244,-0.10248,0.17812,-0.06832,0.00488,0.73688,0.71736,0.50752,0.244
0.25864,-0.20984,0.16104,0.03172,-0.0976,0.17812,-0.0732,-0.00488,0.72712,0.71736,0.5124,0.23912
0.24888,-0.20252,0.15616,0.03172,-0.09272,0.1708,-0.08784,-0.02928,0.72712,0.71736,0.50752,0.23424
0.24888,-0.20496,0.16104,0.0366,-0.08784,0.16836,-0.0976,-0.05856,0.7076,0.7076,0.50264,0.23424
0.23912,-0.20252,0.16592,0.04636,-0.0732,0.15616,-0.122,-0.08296,0.66368,0.6832,0.49776,0.22936
0.22936,-0.20008,0.1708,0.05612,-0.05856,0.14396,-0.13664,-0.11712,0.62952,0.65392,0.48312,0.23424
0.22936,-0.20008,0.1708,0.05612,-0.05856,0.14396,-0.16104,-0.1464,0.57096,0.61,0.4636,0.20984
0.2196,-0.19276,0.16592,0.05612,-0.05368,0.13664,-0.16592,-0.18056,0.5124,0.57584,0.44896,0.1952
0.20008,-0.18056,0.16104,0.061,-0.03904,0.11956,-0.17568,-0.21472,0.44896,0.52704,0.4148,0.18544
0.18056,-0.16592,0.15128,0.061,-0.02928,0.10492,-0.1708,-0.24888,0.38552,0.47336,0.37088,0.16104
0.15616,-0.14152,0.12688,0.0488,-0.02928,0.09272,-0.18544,-0.27816,0.32696,0.42456,0.33184,0.13176
0.13664,-0.122,0.10736,0.03904,-0.02928,0.08296,-0.20008,-0.3172,0.2684,0.366,0.28304,0.0976
0.122,-0.11224,0.10248,0.04148,-0.01952,0.07076,-0.20008,-0.33672,0.22936,0.3172,0.244,0.05856
0.10248,-0.09272,0.08296,0.03172,-0.01952,0.061,-0.1952,-0.37088,0.18544,0.27328,0.20496,0.02928
0.08296,-0.07564,0.06832,0.02684,-0.01464,0.0488,-0.19032,-0.3904,0.1464,0.21472,0.15128,-0.01952
0.06344,-0.05368,0.04392,0.0122,-0.01952,0.04148,-0.1952,-0.4148,0.0976,0.17568,0.10736,-0.04392
0.05368,-0.05124,0.0488,0.02196,-0.00488,0.02928,-0.1952,-0.43432,0.0732,0.13176,0.06832,-0.0732
0.04392,-0.03904,0.03416,0.0122,-0.00976,0.02684,-0.1952,-0.4392,0.04392,0.10736,0.05368,-0.0976
0.03904,-0.02684,0.01464,-0.00488,-0.0244,0.03172,-0.18544,-0.44896,0.03416,0.07808,0.02928,-0.10248
0.02928,-0.01952,0.00976,-0.00488,-0.01952,0.0244,-0.18544,-0.44896,0.01464,0.05368,0.00976,-0.11224
0.01464,-0.0122,0.00976,0.00244,-0.00488,0.00976,-0.17568,-0.4392,0.00488,0.0488,-0.00976,-0.11712
0.01464,-0.00732,0,-0.00732,-0.01464,0.01464,-0.17568,-0.44896,-0.00488,0.02928,-0.0244,-0.12688
0.01464,0.00244,-0.01952,-0.02684,-0.03416,0.0244,-0.16592,-0.44408,-0.00976,0.01952,-0.03416,-0.12688
0.01952,0.00732,-0.03416,-0.04392,-0.05368,0.0366,-0.16104,-0.44408,-0.00976,0.00976,-0.04392,-0.13176
0.01952,0.00488,-0.02928,-0.03904,-0.0488,0.03416,-0.15128,-0.4392,0,-0.00488,-0.0488,-0.12688
0.00976,0.00976,-0.02928,-0.03416,-0.03904,0.0244,-0.13664,-0.4392,-0.00976,-0.00976,-0.05368,-0.13664
0.00976,0.00976,-0.02928,-0.03416,-0.03904,0.0244,-0.13664,-0.43432,0.00976,-0.00488,-0.0488,-0.14152
0.00976,0.00976,-0.02928,-0.03416,-0.03904,0.0244,-0.14152,-0.4392,0.03904,0,-0.0488,-0.13664
0,0.01708,-0.03416,-0.03416,-0.03416,0.01708,-0.13176,-0.40504,0.02928,0.00488,-0.0488,-0.13664
0,0.01464,-0.02928,-0.02928,-0.02928,0.01464,-0.13664,-0.37576,0.01464,0.00488,-0.0488,-0.13664
0.01464,0.0122,-0.03904,-0.04636,-0.05368,0.03416,-0.122,-0.35136,0.00488,0.00488,-0.05856,-0.12688
0.00976,0.01708,-0.04392,-0.0488,-0.05368,0.03172,-0.10736,-0.33672,0.00976,0.00488,-0.05856,-0.122
0,0.01708,-0.03416,-0.03416,-0.03416,0.01708,-0.10248,-0.35624,0.02928,0.00488,-0.0488,-0.11712
0,0.01708,-0.03416,-0.03416,-0.03416,0.01708,-0.11224,-0.37088,0.03904,0.00976,-0.05856,-0.11224
-0.00976,0.02684,-0.04392,-0.03904,-0.03416,0.0122,-0.12688,-0.37576,0.01464,-0.00488,-0.0732,-0.122
-0.00488,0.0244,-0.04392,-0.04148,-0.03904,0.01708,-0.13664,-0.37088,0.00488,0,-0.06832,-0.12688
0.00488,0.01708,-0.03904,-0.04148,-0.04392,0.0244,-0.15616,-0.35624,-0.00976,0,-0.05856,-0.122
0.00488,0.01708,-0.03904,-0.04148,-0.04392,0.0244,-0.17568,-0.35624,-0.01952,0,-0.05856,-0.11712
-0.00488,0.02684,-0.0488,-0.04636,-0.04392,0.01952,-0.19032,-0.35624,-0.01464,0.00976,-0.05368,-0.11224
-0.00976,0.02684,-0.04392,-0.03904,-0.03416,0.0122,-0.20496,-0.35136,-0.01464,0.00976,-0.05368,-0.10248
0.00488,0.0122,-0.02928,-0.03172,-0.03416,0.01952,-0.20496,-0.35136,-0.01952,0.00488,-0.05856,-0.10736
0.00976,0.00976,-0.02928,-0.03416,-0.03904,0.0244,-0.20496,-0.35136,-0.01464,0.00488,-0.05856,-0.0976
0.00488,0.0122,-0.02928,-0.03172,-0.03416,0.01952,-0.18544,-0.35136,-0.00488,0.00976,-0.0488,-0.0976
0.00488,0.0122,-0.02928,-0.03172,-0.03416,0.01952,-0.18056,-0.34648,-0.00488,0.00976,-0.0488,-0.10248
0,0.01464,-0.02928,-0.02928,-0.02928,0.01464,-0.18056,-0.366,0,0.00976,-0.05856,-0.122
0,0.0122,-0.0244,-0.0244,-0.0244,0.0122,-0.17568,-0.37576,0,0.01464,-0.05856,-0.12688
0.00976,0.00488,-0.01952,-0.0244,-0.02928,0.01952,-0.18544,-0.37576,0.00488,0.00488,-0.06344,-0.13664
0.00976,0.00732,-0.0244,-0.02928,-0.03416,0.02196,-0.18056,-0.37576,0.00488,0.00488,-0.06344,-0.13664
0.00976,0.00976,-0.02928,-0.03416,-0.03904,0.0244,-0.18544,-0.366,-0.00976,0.01464,-0.05368,-0.13664
0.01464,0.00488,-0.0244,-0.03172,-0.03904,0.02684,-0.1952,-0.366,-0.01464,0.00976,-0.05368,-0.13176
0.00976,0.0122,-0.03416,-0.03904,-0.04392,0.02684,-0.1952,-0.37576,-0.00488,0.00976,-0.05368,-0.122
0.00976,0.0122,-0.03416,-0.03904,-0.04392,0.02684,-0.1952,-0.37576,-0.00488,0.01464,-0.05368,-0.11224
0.01464,0.00732,-0.02928,-0.0366,-0.04392,0.02928,-0.20008,-0.37576,-0.01952,0.01464,-0.05368,-0.12688
0.01464,0.00488,-0.0244,-0.03172,-0.03904,0.02684,-0.19032,-0.37088,-0.01952,0.00976,-0.05856,-0.13176
0.00488,0.00732,-0.01952,-0.02196,-0.0244,0.01464,-0.1952,-0.37088,-0.03416,0,-0.06344,-0.13664
-0.00488,0.01464,-0.0244,-0.02196,-0.01952,0.00732,-0.1952,-0.37576,-0.03416,0,-0.06344,-0.1464
-0.00488,0.01464,-0.0244,-0.02196,-0.01952,0.00732,-0.18544,-0.37576,-0.03416,0.00488,-0.06344,-0.15616
-0.00488,0.01464,-0.0244,-0.02196,-0.01952,0.00732,-0.18544,-0.37576,-0.02928,0.00488,-0.06344,-0.15128
-0.00488,0.01464,-0.0244,-0.02196,-0.01952,0.00732,-0.1708,-0.37576,-0.04392,-0.01464,-0.06344,-0.15128
-0.00488,0.01708,-0.02928,-0.02684,-0.0244,0.00976,-0.1708,-0.38064,-0.04392,-0.01464,-0.06832,-0.15616
-0.00488,0.01952,-0.03416,-0.03172,-0.02928,0.0122,-0.16104,-0.366,-0.05368,-0.01952,-0.06832,-0.15616
-0.01464,0.0244,-0.03416,-0.02684,-0.01952,0.00244,-0.15616,-0.35624,-0.05368,-0.0244,-0.0732,-0.16104
0,0.01464,-0.02928,-0.02928,-0.02928,0.01464,-0.15128,-0.36112,-0.06344,-0.0244,-0.06832,-0.16104
0,0.01464,-0.02928,-0.02928,-0.02928,0.01464,-0.15128,-0.37088,-0.06344,-0.0244,-0.06832,-0.16104
-0.00488,0.01708,-0.02928,-0.02684,-0.0244,0.00976,-0.16104,-0.36112,-0.07808,-0.02928,-0.08296,-0.15616
-0.00488,0.01708,-0.02928,-0.02684,-0.0244,0.00976,-0.15616,-0.35136,-0.08296,-0.03904,-0.08784,-0.15616
0.00488,0.0122,-0.02928,-0.03172,-0.03416,0.01952,-0.16592,-0.35624,-0.08296,-0.03904,-0.09272,-0.16592
0.00488,0.0122,-0.02928,-0.03172,-0.03416,0.01952,-0.16592,-0.36112,-0.08784,-0.04392,-0.09272,-0.16592
-0.00976,0.01464,-0.01952,-0.01464,-0.00976,0,-0.15616,-0.35624,-0.08784,-0.03416,-0.08296,-0.15616
-0.00976,0.01464,-0.01952,-0.01464,-0.00976,0,-0.15616,-0.35624,-0.08784,-0.03416,-0.08784,-0.1464
-0.00488,0.01708,-0.02928,-0.02684,-0.0244,0.00976,-0.16592,-0.35136,-0.0976,-0.0488,-0.08784,-0.13664
0,0.01708,-0.03416,-0.03416,-0.03416,0.01708,-0.16592,-0.35136,-0.0976,-0.0488,-0.09272,-0.13664
0,0.0244,-0.0488,-0.0488,-0.0488,0.0244,-0.15616,-0.33672,-0.0976,-0.0488,-0.08296,-0.122
-0.00488,0.0244,-0.04392,-0.04148,-0.03904,0.01708,-0.16104,-0.33184,-0.10248,-0.04392,-0.08784,-0.11224
-0.00488,0.0244,-0.04392,-0.04148,-0.03904,0.01708,-0.1708,-0.3416,-0.11224,-0.05856,-0.08784,-0.11712
-0.00488,0.0244,-0.04392,-0.04148,-0.03904,0.01708,-0.1708,-0.33672,-0.122,-0.05856,-0.08784,-0.12688
0.00488,0.01464,-0.03416,-0.0366,-0.03904,0.02196,-0.16592,-0.33184,-0.11224,-0.05368,-0.08784,-0.12688
-0.00488,0.02196,-0.03904,-0.0366,-0.03416,0.01464,-0.16592,-0.32696,-0.10248,-0.05368,-0.08784,-0.12688
-0.00976,0.03172,-0.05368,-0.0488,-0.04392,0.01708,-0.15616,-0.32208,-0.10248,-0.04392,-0.0976,-0.12688
0,0.02684,-0.05368,-0.05368,-0.05368,0.02684,-0.15616,-0.32208,-0.10736,-0.04392,-0.0976,-0.12688
-0.00976,0.02684,-0.04392,-0.03904,-0.03416,0.0122,-0.16592,-0.3172,-0.10736,-0.04392,-0.0976,-0.12688
-0.01952,0.02684,-0.03416,-0.0244,-0.01464,-0.00244,-0.16104,-0.3172,-0.10248,-0.04392,-0.09272,-0.13176
0,0.01952,-0.03904,-0.03904,-0.03904,0.01952,-0.1708,-0.32208,-0.10248,-0.04392,-0.08784,-0.122
0.00488,0.01952,-0.04392,-0.04636,-0.0488,0.02684,-0.16592,-0.32208,-0.10248,-0.04392,-0.07808,-0.11712
-0.00488,0.0244,-0.04392,-0.04148,-0.03904,0.01708,-0.16104,-0.32696,-0.09272,-0.04392,-0.07808,-0.122
-0.00488,0.0244,-0.04392,-0.04148,-0.03904,0.01708,-0.16592,-0.32696,-0.08784,-0.04392,-0.07808,-0.12688
-0.01464,0.03416,-0.05368,-0.04636,-0.03904,0.0122,-0.1708,-0.3172,-0.08296,-0.0488,-0.08784,-0.13176
-0.00976,0.02928,-0.0488,-0.04392,-0.03904,0.01464,-0.1708,-0.3172,-0.08296,-0.0488,-0.08784,-0.14152
0,0.02928,-0.05856,-0.05856,-0.05856,0.02928,-0.16104,-0.3172,-0.07808,-0.04392,-0.08784,-0.15616
0,0.02684,-0.05368,-0.05368,-0.05368,0.02684,-0.15128,-0.31232,-0.07808,-0.04392,-0.08784,-0.15128
-0.01464,0.03904,-0.06344,-0.05612,-0.0488,0.01708,-0.15128,-0.31232,-0.07808,-0.04392,-0.08784,-0.14152
-0.00976,0.0366,-0.06344,-0.05856,-0.05368,0.02196,-0.1464,-0.3172,-0.07808,-0.04392,-0.09272,-0.14152
-0.00976,0.03172,-0.05368,-0.0488,-0.04392,0.01708,-0.13664,-0.30256,-0.07808,-0.04392,-0.08296,-0.13664
-0.00976,0.03172,-0.05368,-0.0488,-0.04392,0.01708,-0.13176,-0.30256,-0.07808,-0.04392,-0.08296,-0.13664
-0.00976,0.02684,-0.04392,-0.03904,-0.03416,0.0122,-0.122,-0.28792,-0.06832,-0.03416,-0.0732,-0.12688
-0.01464,0.03416,-0.05368,-0.04636,-0.03904,0.0122,-0.13176,-0.28792,-0.05856,-0.03416,-0.06832,-0.11712
-0.0244,0.03904,-0.05368,-0.04148,-0.02928,0.00244,-0.122,-0.28792,-0.06832,-0.03416,-0.06832,-0.122
-0.0244,0.04148,-0.05856,-0.04636,-0.03416,0.00488,-0.11712,-0.27816,-0.06832,-0.03416,-0.06832,-0.122
-0.01464,0.03416,-0.05368,-0.04636,-0.03904,0.0122,-0.10248,-0.2684,-0.05856,-0.03416,-0.07808,-0.122
-0.01464,0.03416,-0.05368,-0.04636,-0.03904,0.0122,-0.0976,-0.26352,-0.0488,-0.03416,-0.07808,-0.122
0,0.02684,-0.05368,-0.05368,-0.05368,0.02684,-0.08784,-0.25376,-0.0488,-0.04392,-0.07808,-0.122
-0.00976,0.03172,-0.05368,-0.0488,-0.04392,0.01708,-0.08784,-0.244,-0.0488,-0.04392,-0.07808,-0.122
-0.00976,0.0366,-0.06344,-0.05856,-0.05368,0.02196,-0.08296,-0.22936,-0.04392,-0.03416,-0.06832,-0.11224
-0.00976,0.04148,-0.0732,-0.06832,-0.06344,0.02684,-0.08296,-0.21472,-0.04392,-0.03416,-0.06832,-0.11224
0,0.02684,-0.05368,-0.05368,-0.05368,0.02684,-0.06832,-0.20496,-0.04392,-0.0244,-0.06832,-0.10248
-0.00488,0.02928,-0.05368,-0.05124,-0.0488,0.02196,-0.06344,-0.20008,-0.04392,-0.0244,-0.06832,-0.10248
0.00488,0.0244,-0.05368,-0.05612,-0.05856,0.03172,-0.06832,-0.19032,-0.03416,-0.0244,-0.06832,-0.09272
0.00488,0.0244,-0.05368,-0.05612,-0.05856,0.03172,-0.06832,-0.18056,-0.03904,-0.0244,-0.06344,-0.09272
-0.00488,0.02928,-0.05368,-0.05124,-0.0488,0.02196,-0.06832,-0.1708,-0.0488,-0.0244,-0.05368,-0.09272
-0.01464,0.03416,-0.05368,-0.04636,-0.03904,0.0122,-0.06832,-0.1708,-0.04392,-0.0244,-0.05368,-0.08784
0,0.02196,-0.04392,-0.04392,-0.04392,0.02196,-0.06344,-0.16592,-0.04392,-0.0244,-0.05368,-0.07808
0,0.0244,-0.0488,-0.0488,-0.0488,0.0244,-0.06344,-0.16592,-0.04392,-0.0244,-0.05856,-0.08784
0,0.02196,-0.04392,-0.04392,-0.04392,0.02196,-0.05368,-0.14152,-0.04392,-0.0244,-0.05368,-0.07808
0,0.02196,-0.04392,-0.04392,-0.04392,0.02196,-0.05856,-0.1464,-0.04392,-0.0244,-0.05856,-0.07808
-0.00976,0.02928,-0.0488,-0.04392,-0.03904,0.01464,-0.0488,-0.12688,-0.04392,-0.0244,-0.0488,-0.07808
-0.00976,0.02928,-0.0488,-0.04392,-0.03904,0.01464,-0.03904,-0.11224,-0.04392,-0.0244,-0.0488,-0.07808
-0.00488,0.02928,-0.05368,-0.05124,-0.0488,0.02196,-0.02928,-0.09272,-0.03416,-0.01464,-0.03904,-0.06832
-0.00488,0.02928,-0.05368,-0.05124,-0.0488,0.02196,-0.01464,-0.08296,-0.03416,-0.01464,-0.03416,-0.06832
-0.00488,0.02684,-0.0488,-0.04636,-0.04392,0.01952,-0.02928,-0.09272,-0.03416,-0.01464,-0.04392,-0.05856
-0.00488,0.0244,-0.04392,-0.04148,-0.03904,0.01708,-0.0244,-0.08784,-0.03416,-0.01464,-0.04392,-0.05856
-0.01464,0.03416,-0.05368,-0.04636,-0.03904,0.0122,-0.0244,-0.08784,-0.04392,-0.01464,-0.04392,-0.05856
0,0.01952,-0.03904,-0.03904,-0.03904,0.01952,-0.02928,-0.07808,-0.03904,-0.01952,-0.03904,-0.0488
0,0.01952,-0.03904,-0.03904,-0.03904,0.01952,-0.02928,-0.07808,-0.03904,-0.01952,-0.03904,-0.0488
0,0.0244,-0.0488,-0.0488,-0.0488,0.0244,-0.01952,-0.07808,-0.02928,-0.01952,-0.03904,-0.0488
0,0.0244,-0.0488,-0.0488,-0.0488,0.0244,-0.01952,-0.07808,-0.02928,-0.01952,-0.03904,-0.0488
-0.00488,0.02684,-0.0488,-0.04636,-0.04392,0.01952,-0.01952,-0.06832,-0.02928,-0.01952,-0.02928,-0.03904
-0.01464,0.03172,-0.0488,-0.04148,-0.03416,0.00976,-0.01952,-0.06832,-0.02928,-0.01952,-0.02928,-0.03904
-0.01464,0.02684,-0.03904,-0.03172,-0.0244,0.00488,-0.00976,-0.05856,-0.01952,-0.01952,-0.02928,-0.02928
-0.00488,0.02196,-0.03904,-0.0366,-0.03416,0.01464,-0.00976,-0.05856,-0.01952,-0.01952,-0.02928,-0.02928
0,0.0244,-0.0488,-0.0488,-0.0488,0.0244,0,-0.0488,-0.00976,-0.01952,-0.02928,-0.01952
0,0.0244,-0.0488,-0.0488,-0.0488,0.0244,0,-0.0488,-0.00976,-0.01952,-0.02928,-0.01952
0,0.01952,-0.03904,-0.03904,-0.03904,0.01952,-0.00976,-0.0488,-0.01952,-0.01952,-0.01952,-0.02928
0,0.01952,-0.03904,-0.03904,-0.03904,0.01952,-0.00976,-0.0488,-0.01952,-0.01952,-0.01952,-0.02928
0.00976,0.00976,-0.02928,-0.03416,-0.03904,0.0244,0,-0.03904,-0.01952,-0.01952,-0.01952,-0.01952
0.00976,0.00976,-0.02928,-0.03416,-0.03904,0.0244,0,-0.03904,-0.01952,-0.01464,-0.01952,-0.01952
0.00488,0.01708,-0.03904,-0.04148,-0.04392,0.0244,-0.00488,-0.03904,-0.01952,-0.01464,-0.02928,-0.0244
-0.00488,0.02196,-0.03904,-0.0366,-0.03416,0.01464,-0.00488,-0.03904,-0.01952,-0.01464,-0.02928,-0.0244
0,0.01952,-0.03904,-0.03904,-0.03904,0.01952,0,-0.03416,-0.0244,-0.00976,-0.01952,-0.0244
0.00488,0.0122,-0.02928,-0.03172,-0.03416,0.01952,0,-0.01952,-0.01952,0,-0.01952,-0.01464
0.00976,0,-0.00976,-0.01464,-0.01952,0.01464,0.00488,-0.00488,-0.00488,0.00976,-0.01464,-0.01464
0.01464,-0.0122,0.00976,0.00244,-0.00488,0.00976,0.00488,0.00488,0.00488,0.01952,0,-0.00488
0.01464,-0.01952,0.0244,0.01708,0.00976,0.00244,0.01464,0.01464,0.01464,0.01464,0,0.00976
0.01952,-0.02196,0.0244,0.01464,0.00488,0.00732,0.00976,0.01952,0.01464,0.0244,0.01464,0.01464
0.01464,-0.01952,0.0244,0.01708,0.00976,0.00244,0.00488,0.02928,0.02928,0.03904,0.0244,0.0244
0.00976,-0.02196,0.03416,0.02928,0.0244,-0.00732,0,0.0244,0.02928,0.03416,0.0244,0.0244
0.00976,-0.0244,0.03904,0.03416,0.02928,-0.00976,0,0.0244,0.01952,0.02928,0.0244,0.03416
0.01952,-0.02928,0.03904,0.02928,0.01952,0,0.00488,0.03416,0.02928,0.02928,0.02928,0.03904
0.01464,-0.03416,0.05368,0.04636,0.03904,-0.0122,0.00488,0.03416,0.02928,0.03904,0.0244,0.02928
0.01952,-0.03904,0.05856,0.0488,0.03904,-0.00976,-0.00488,0.0244,0.02928,0.03904,0.0244,0.03416
0.01952,-0.04392,0.06832,0.05856,0.0488,-0.01464,-0.01952,0.00976,0.0244,0.03416,0.03416,0.04392
0.01952,-0.0488,0.07808,0.06832,0.05856,-0.01952,-0.03904,-0.00488,0.01464,0.03416,0.03416,0.0488
0.02928,-0.05856,0.08784,0.0732,0.05856,-0.01464,-0.04392,0.00488,0.00976,0.03416,0.03904,0.06832
0.04392,-0.0732,0.10248,0.08052,0.05856,-0.00732,-0.04392,0.01464,0.01952,0.04392,0.05368,0.07808
0.05856,-0.0854,0.11224,0.08296,0.05368,0.00244,-0.04392,0.01952,0.0244,0.0488,0.06832,0.09272
0.05856,-0.07808,0.0976,0.06832,0.03904,0.00976,-0.04392,0.01952,0.00976,0.03416,0.05368,0.09272
0.0488,-0.07564,0.10248,0.07808,0.05368,-0.00244,-0.0488,0.02928,0.01952,0.03416,0.05368,0.08784
0.0488,-0.0732,0.0976,0.0732,0.0488,0,-0.0488,0.02928,0.00976,0.02928,0.0488,0.08784
0.03904,-0.06344,0.08784,0.06832,0.0488,-0.00488,-0.0488,0.03416,-0.00976,0.01952,0.03904,0.08784
0.03416,-0.0488,0.06344,0.04636,0.02928,0.00244,-0.04392,0.0244,-0.0244,-0.00488,0.02928,0.07808
0.0244,-0.0366,0.0488,0.0366,0.0244,0,-0.04392,0.0244,-0.02928,-0.00488,0.02928,0.0732
0.00976,-0.01708,0.0244,0.01952,0.01464,-0.00244,-0.02928,0.03416,-0.03904,-0.01464,0.02928,0.06344
0,-0.00488,0.00976,0.00976,0.00976,-0.00488,-0.00976,0.0488,-0.02928,-0.00976,0.0244,0.05368
0,0.00244,-0.00488,-0.00488,-0.00488,0.00244,-0.00488,0.05856,-0.03904,-0.0244,0.01952,0.0488
0.00488,0.00244,-0.00976,-0.0122,-0.01464,0.00976,0.00488,0.0732,-0.0488,-0.03416,0.01952,0.03416
0.01464,0,-0.01464,-0.02196,-0.02928,0.02196,0.01464,0.08296,-0.05856,-0.03904,0.01464,0.03416
0.00976,0.00732,-0.0244,-0.02928,-0.03416,0.02196,0.01952,0.0976,-0.06344,-0.0488,0.00976,0.03904
0.00976,0.0122,-0.03416,-0.03904,-0.04392,0.02684,0.0244,0.10736,-0.06832,-0.05856,0.00976,0.03904
0.00976,0.0122,-0.03416,-0.03904,-0.04392,0.02684,0.0244,0.122,-0.06832,-0.05368,-0.00976,0.03416
0.01464,0.0122,-0.03904,-0.04636,-0.05368,0.03416,0.0244,0.122,-0.06832,-0.05368,-0.00976,0.03416
0,0.0244,-0.0488,-0.0488,-0.0488,0.0244,0.0244,0.12688,-0.06832,-0.05368,0.00488,0.03416
0,0.02684,-0.05368,-0.05368,-0.05368,0.02684,0.03416,0.12688,-0.06832,-0.05368,0.00488,0.03416
-0.01464,0.03904,-0.06344,-0.05612,-0.0488,0.01708,0.04392,0.13176,-0.07808,-0.05368,0.00488,0.04392
-0.01952,0.04148,-0.06344,-0.05368,-0.04392,0.0122,0.03904,0.13664,-0.08296,-0.05368,0.00488,0.03904
-0.00488,0.03904,-0.0732,-0.07076,-0.06832,0.03172,0.03904,0.1464,-0.0976,-0.05368,0.00488,0.02928
-0.01464,0.04148,-0.06832,-0.061,-0.05368,0.01952,0.05368,0.17568,-0.09272,-0.0488,0.00488,0.02928
-0.0244,0.05368,-0.08296,-0.07076,-0.05856,0.01708,0.05856,0.2196,-0.06344,-0.01464,0.01952,0.03904
-0.01464,0.05124,-0.08784,-0.08052,-0.0732,0.02928,0.0976,0.27328,0.00976,0.0488,0.05368,0.02928
0,0.04636,-0.09272,-0.09272,-0.09272,0.04636,0.15128,0.34648,0.1464,0.20008,0.13176,0.06344
0.04392,-0.00488,-0.03416,-0.05612,-0.07808,0.061,0.1464,0.366,0.244,0.4148,0.33672,0.1464
0.0976,-0.05856,0.01952,-0.02928,-0.07808,0.08784,0.13664,0.38064,0.31232,0.66368,0.61976,0.31232
0.20984,-0.17812,0.1464,0.04148,-0.06344,0.13664,0.0976,0.37088,0.30744,0.9272,0.976,0.52704
0.2928,-0.30744,0.32208,0.17568,0.02928,0.13176,-0.0244,0.244,0.10736,1.1468,1.40544,0.83936
0.37576,-0.44896,0.52216,0.33428,0.1464,0.11468,-0.28304,-0.0732,-0.43432,1.04432,1.69824,1.08824
0.44896,-0.58804,0.72712,0.50264,0.27816,0.0854,-0.63928,-0.56608,-1.19072,0.76128,1.94224,1.35664
0.44896,-0.6466,0.84424,0.61976,0.39528,0.02684,-0.88816,-0.9028,-1.71776,0.49288,2.01544,1.4396
0.36112,-0.53192,0.70272,0.52216,0.3416,0.00976,-0.8784,-0.92232,-1.83,0.32208,1.74704,1.21024
0.25376,-0.30744,0.36112,0.23424,0.10736,0.0732,-0.7076,-0.77592,-1.7568,0.13664,1.21512,0.81496
0.0976,-0.061,0.0244,-0.0244,-0.0732,0.0854,-0.58072,-0.6832,-1.7568,-0.3904,0.366,0.31232
-0.01464,0.08784,-0.16104,-0.15372,-0.1464,0.06588,-0.50752,-0.65392,-1.7568,-1.01504,-0.4392,-0.11712
-0.01464,0.1342,-0.25376,-0.24644,-0.23912,0.11224,-0.35136,-0.4392,-1.49816,-0.98576,-0.52704,-0.20008
0.00976,0.13908,-0.28792,-0.2928,-0.29768,0.15372,-0.17568,-0.20984,-1.15168,-0.732,-0.36112,-0.14152
0.01952,0.13908,-0.29768,-0.30744,-0.3172,0.16836,-0.04392,-0.01464,-0.83936,-0.50264,-0.23424,-0.09272
0.01952,0.13176,-0.28304,-0.2928,-0.30256,0.16104,0.07808,0.12688,-0.57096,-0.32696,-0.15616,-0.0732
0.01952,0.10736,-0.23424,-0.244,-0.25376,0.13664,0.122,0.21472,-0.38552,-0.16592,-0.06832,-0.03416
0.03416,0.0732,-0.18056,-0.19764,-0.21472,0.12444,0.10248,0.20496,-0.28304,-0.09272,-0.02928,-0.00488
0.0244,0.07076,-0.16592,-0.17812,-0.19032,0.10736,0.10248,0.22448,-0.1952,-0.0488,0,0.00976
0.0244,0.05856,-0.14152,-0.15372,-0.16592,0.09516,0.09272,0.23424,-0.12688,-0.00976,0.00488,0.00488
0.01464,0.06344,-0.14152,-0.14884,-0.15616,0.0854,0.05856,0.23912,-0.08296,0.01464,0.01464,0.00976
0.01464,0.05612,-0.12688,-0.1342,-0.14152,0.07808,0.05368,0.24888,-0.03904,0.03904,0.0244,0.01464
0.00976,0.05124,-0.11224,-0.11712,-0.122,0.06588,0.05368,0.25864,0.00488,0.05856,0.0244,0.0244
0.00976,0.05124,-0.11224,-0.11712,-0.122,0.06588,0.06344,0.27816,0.03416,0.08296,0.04392,0.03416
0.01464,0.0488,-0.11224,-0.11956,-0.12688,0.07076,0.09272,0.29768,0.03904,0.10248,0.0488,0.04392
0.0244,0.03904,-0.10248,-0.11468,-0.12688,0.07564,0.12688,0.33184,0.0488,0.11712,0.06344,0.0488
0.01952,0.0366,-0.09272,-0.10248,-0.11224,0.06588,0.15616,0.366,0.04392,0.12688,0.07808,0.03416
0.0244,0.03172,-0.08784,-0.10004,-0.11224,0.06832,0.1708,0.40504,0.05368,0.13664,0.08296,0.03416
0.0244,0.03172,-0.08784,-0.10004,-0.11224,0.06832,0.1708,0.41968,0.05856,0.15128,0.08296,0.0244
0.01952,0.03172,-0.08296,-0.09272,-0.10248,0.061,0.1708,0.40992,0.0732,0.15128,0.08784,0.02928
0.01952,0.03172,-0.08296,-0.09272,-0.10248,0.061,0.15616,0.38064,0.0976,0.1464,0.08784,0.04392
0.0244,0.02684,-0.07808,-0.09028,-0.10248,0.06344,0.16104,0.35136,0.12688,0.15616,0.10248,0.05368
0.0244,0.02196,-0.06832,-0.08052,-0.09272,0.05856,0.15128,0.32208,0.13664,0.16104,0.10248,0.05856
0.0244,0.02196,-0.06832,-0.08052,-0.09272,0.05856,0.13176,0.28792,0.15616,0.1708,0.10736,0.05856
0.0244,0.02684,-0.07808,-0.09028,-0.10248,0.06344,0.11224,0.27328,0.1708,0.17568,0.11712,0.05856
0.02928,0.0244,-0.07808,-0.09272,-0.10736,0.06832,0.10248,0.27328,0.17568,0.19032,0.122,0.05368
0.04392,0.00976,-0.06344,-0.0854,-0.10736,0.07564,0.09272,0.27816,0.19032,0.20496,0.13176,0.05856
0.0488,0.00732,-0.06344,-0.08784,-0.11224,0.08052,0.08296,0.2928,0.20008,0.21472,0.13664,0.06344
0.04392,0.00244,-0.0488,-0.07076,-0.09272,0.06832,0.08296,0.3172,0.21472,0.2196,0.1464,0.0732
0.05368,-0.00244,-0.0488,-0.07564,-0.10248,0.07808,0.09272,0.32208,0.23424,0.22936,0.15128,0.07808
0.05368,-0.00244,-0.0488,-0.07564,-0.10248,0.07808,0.11224,0.3172,0.25376,0.25376,0.16104,0.0732
0.05368,-0.00732,-0.03904,-0.06588,-0.09272,0.0732,0.12688,0.32208,0.26352,0.26352,0.16104,0.0732
0.05856,-0.01464,-0.02928,-0.05856,-0.08784,0.0732,0.14152,0.32208,0.27328,0.2684,0.16592,0.06832
0.05368,-0.01464,-0.0244,-0.05124,-0.07808,0.06588,0.16104,0.32208,0.28304,0.27816,0.17568,0.0732
0.06344,-0.01708,-0.02928,-0.061,-0.09272,0.07808,0.16104,0.3172,0.29768,0.30256,0.1952,0.0732
0.0732,-0.0244,-0.0244,-0.061,-0.0976,0.0854,0.16592,0.33184,0.31232,0.3172,0.20008,0.0732
0.06344,-0.0244,-0.01464,-0.04636,-0.07808,0.07076,0.15616,0.33184,0.32208,0.32696,0.20984,0.06344
0.0732,-0.02928,-0.01464,-0.05124,-0.08784,0.08052,0.16592,0.35136,0.3416,0.3416,0.2196,0.06344
0.07808,-0.03904,0,-0.03904,-0.07808,0.07808,0.16104,0.366,0.366,0.37088,0.22936,0.07808
0.08296,-0.04148,0,-0.04148,-0.08296,0.08296,0.16592,0.37576,0.38552,0.38064,0.23912,0.07808
0.08784,-0.04636,0.00488,-0.03904,-0.08296,0.0854,0.17568,0.38552,0.39528,0.3904,0.25376,0.09272
0.09272,-0.05612,0.01952,-0.02684,-0.0732,0.08296,0.17568,0.3904,0.41968,0.40992,0.27328,0.0976
0.10248,-0.06344,0.0244,-0.02684,-0.07808,0.09028,0.17568,0.40016,0.44896,0.44896,0.28304,0.10736
0.11224,-0.07076,0.02928,-0.02684,-0.08296,0.0976,0.18544,0.41968,0.47824,0.46848,0.30256,0.11712
0.11224,-0.08052,0.0488,-0.00732,-0.06344,0.08784,0.18056,0.42456,0.50264,0.49288,0.32208,0.13664
0.122,-0.09028,0.05856,-0.00244,-0.06344,0.09272,0.18056,0.43432,0.54656,0.52216,0.33672,0.15616
0.13664,-0.0976,0.05856,-0.00976,-0.07808,0.10736,0.17568,0.44408,0.59536,0.5612,0.366,0.17568
0.14152,-0.10248,0.06344,-0.00732,-0.07808,0.1098,0.17568,0.45872,0.61976,0.57584,0.38064,0.19032
0.15128,-0.11468,0.07808,0.00244,-0.0732,0.11224,0.16592,0.46848,0.6588,0.61,0.40504,0.20984
0.16104,-0.12932,0.0976,0.01708,-0.06344,0.11224,0.15616,0.47824,0.6832,0.63928,0.42944,0.23424
0.1708,-0.14152,0.11224,0.02684,-0.05856,0.11468,0.15128,0.47824,0.71736,0.66856,0.45384,0.244
0.18544,-0.15616,0.12688,0.03416,-0.05856,0.122,0.15616,0.49776,0.74664,0.69296,0.47824,0.26352
0.18544,-0.16348,0.14152,0.0488,-0.04392,0.11468,0.15616,0.50264,0.76616,0.7076,0.49776,0.27328
0.20008,-0.17568,0.15128,0.05124,-0.0488,0.12444,0.1464,0.5124,0.79056,0.72224,0.5124,0.2928
0.20984,-0.19032,0.1708,0.06588,-0.03904,0.12444,0.13664,0.52704,0.81008,0.75152,0.52704,0.30744
0.2196,-0.20008,0.18056,0.07076,-0.03904,0.12932,0.13176,0.52704,0.81496,0.7564,0.5368,0.32208
0.244,-0.21228,0.18056,0.05856,-0.06344,0.15372,0.13664,0.52704,0.83448,0.77592,0.55632,0.33672
0.24888,-0.22204,0.1952,0.07076,-0.05368,0.15128,0.14152,0.53192,0.83448,0.77592,0.57096,0.34648
0.23912,-0.22204,0.20496,0.0854,-0.03416,0.13664,0.122,0.52216,0.8296,0.76616,0.57584,0.36112
0.23912,-0.22204,0.20496,0.0854,-0.03416,0.13664,0.11224,0.50264,0.8052,0.76128,0.58072,0.36112
0.23912,-0.22692,0.21472,0.09516,-0.0244,0.13176,0.10736,0.49288,0.76616,0.74176,0.56608,0.35624
0.22936,-0.22204,0.21472,0.10004,-0.01464,0.122,0.10248,0.45872,0.732,0.72224,0.55632,0.36112
0.22936,-0.22936,0.22936,0.11468,0,0.11468,0.08784,0.43432,0.66856,0.6832,0.54656,0.34648
0.22936,-0.22936,0.22936,0.11468,0,0.11468,0.06344,0.39528,0.62464,0.64904,0.52704,0.33672
0.20984,-0.21716,0.22448,0.11956,0.01464,0.0976,0.04392,0.366,0.5612,0.60512,0.50264,0.3172
0.1952,-0.20496,0.21472,0.11712,0.01952,0.08784,0.0244,0.32696,0.49288,0.5612,0.47336,0.30256
0.17568,-0.19276,0.20984,0.122,0.03416,0.07076,0.01464,0.30256,0.41968,0.50752,0.4392,0.2684
0.15616,-0.1708,0.18544,0.10736,0.02928,0.06344,0.00488,0.2684,0.36112,0.45872,0.40016,0.244
0.13664,-0.14884,0.16104,0.09272,0.0244,0.05612,0,0.23912,0.2928,0.39528,0.3416,0.20984
0.11224,-0.12688,0.14152,0.0854,0.02928,0.04148,-0.00976,0.20496,0.23912,0.33184,0.30256,0.1708
0.09272,-0.10004,0.10736,0.061,0.01464,0.03904,-0.01464,0.18056,0.1952,0.28792,0.25376,0.15128
0.0732,-0.08052,0.08784,0.05124,0.01464,0.02928,-0.01952,0.16104,0.1464,0.23912,0.22448,0.11712
0.06344,-0.07076,0.07808,0.04636,0.01464,0.0244,-0.01952,0.122,0.10248,0.1952,0.17568,0.07808
0.05856,-0.06588,0.0732,0.04392,0.01464,0.02196,-0.01952,0.10736,0.06344,0.1464,0.15128,0.05856
0.0488,-0.04636,0.04392,0.01952,-0.00488,0.02684,-0.00976,0.0976,0.05368,0.122,0.122,0.03904
0.03416,-0.03416,0.03416,0.01708,0,0.01708,-0.00976,0.08296,0.03416,0.0976,0.0976,0.0244
0.03904,-0.03172,0.0244,0.00488,-0.01464,0.02684,-0.00976,0.0732,0.01464,0.07808,0.07808,0.00488
0.03416,-0.0244,0.01464,-0.00244,-0.01952,0.02684,-0.00976,0.05856,-0.00488,0.05856,0.06344,-0.00488
0.02928,-0.0244,0.01952,0.00488,-0.00976,0.01952,-0.01952,0.05368,-0.01952,0.03904,0.04392,-0.0244
0.0244,-0.01708,0.00976,-0.00244,-0.01464,0.01952,-0.01464,0.0488,-0.0244,0.03416,0.03904,-0.03416
0.02928,-0.01952,0.00976,-0.00488,-0.01952,0.0244,-0.0244,0.04392,-0.01952,0.01464,0.02928,-0.03416
0.01464,-0.0122,0.00976,0.00244,-0.00488,0.00976,-0.0244,0.0488,-0.0244,0.00976,0.02928,-0.04392
0.00976,-0.00976,0.00976,0.00488,0,0.00488,-0.01952,0.03416,-0.02928,0.00488,0.00976,-0.06344
0.00976,-0.00488,0,-0.00488,-0.00976,0.00976,-0.01952,0.03416,-0.02928,0,0.00976,-0.05856
0.00976,-0.00976,0.00976,0.00488,0,0.00488,-0.0244,0.0244,-0.02928,-0.00488,0.00976,-0.05856
0.00976,-0.00732,0.00488,0,-0.00488,0.00732,-0.02928,0.0244,-0.02928,-0.00488,0.00976,-0.05856
0,0,0,0,0,0,-0.02928,0.02928,-0.03416,0.00488,0.00976,-0.05856
0.00488,0.00732,-0.01952,-0.02196,-0.0244,0.01464,-0.01952,0.04392,-0.02928,0.00488,0.00976,-0.05368
0,0.0122,-0.0244,-0.0244,-0.0244,0.0122,0,0.0488,-0.03904,-0.00488,0,-0.0488
0,0.0122,-0.0244,-0.0244,-0.0244,0.0122,0.00488,0.05856,-0.03904,0,-0.00488,-0.04392
0,0.0122,-0.0244,-0.0244,-0.0244,0.0122,0.00976,0.06344,-0.02928,0.00488,-0.00488,-0.04392
0.00488,0.00976,-0.0244,-0.02684,-0.02928,0.01708,0.0244,0.07808,-0.03416,0.00488,0,-0.0488
-0.00488,0.0122,-0.01952,-0.01708,-0.01464,0.00488,0.01952,0.08296,-0.03416,0.00976,0,-0.03904
-0.00488,0.0122,-0.01952,-0.01708,-0.01464,0.00488,0,0.07808,-0.03904,0.00976,0,-0.04392
-0.00488,0.0122,-0.01952,-0.01708,-0.01464,0.00488,-0.02928,0.07808,-0.0488,0.01952,0.00976,-0.04392
-0.00488,0.0122,-0.01952,-0.01708,-0.01464,0.00488,-0.05368,0.06832,-0.04392,0.01952,0.01464,-0.04392
0,0.00732,-0.01464,-0.01464,-0.01464,0.00732,-0.06832,0.05856,-0.03416,0.00976,0.01952,-0.03904
0.00488,0.00244,-0.00976,-0.0122,-0.01464,0.00976,-0.06832,0.05856,-0.0244,0.01464,0.01952,-0.03416
0.00976,0.00488,-0.01952,-0.0244,-0.02928,0.01952,-0.06832,0.05368,-0.0244,0.01464,0.01952,-0.01464
0.00488,0.00732,-0.01952,-0.02196,-0.0244,0.01464,-0.0732,0.0488,-0.0244,0.01952,0.01952,-0.00488
0.00976,0,-0.00976,-0.01464,-0.01952,0.01464,-0.0732,0.03416,-0.0244,0.00976,0.01952,-0.01464
0.01464,-0.00244,-0.00976,-0.01708,-0.0244,0.01952,-0.05856,0.03416,-0.01952,0.00976,0.01952,-0.00976
0.00976,0.00244,-0.01464,-0.01952,-0.0244,0.01708,-0.05368,0.0488,-0.00976,0.0244,0.0244,0
0.00976,0,-0.00976,-0.01464,-0.01952,0.01464,-0.04392,0.05856,-0.00488,0.0244,0.0244,0
0,0.00732,-0.01464,-0.01464,-0.01464,0.00732,-0.02928,0.0732,0,0.0244,0.0244,0.00488
0.00488,0,-0.00488,-0.00732,-0.00976,0.00732,-0.02928,0.0732,-0.00488,0.01952,0.0244,-0.00488
0.00976,-0.00244,-0.00488,-0.00976,-0.01464,0.0122,-0.03904,0.06344,-0.00976,0.01952,0.03416,-0.01464
0.00976,-0.00244,-0.00488,-0.00976,-0.01464,0.0122,-0.0488,0.06344,-0.01952,0.0244,0.03416,-0.01464
0.00976,-0.00488,0,-0.00488,-0.00976,0.00976,-0.0488,0.05856,-0.0244,0.0244,0.0244,-0.00976
0.01464,-0.00976,0.00488,-0.00244,-0.00976,0.0122,-0.05368,0.05368,-0.02928,0.01952,0.0244,-0.01464
0.00488,-0.00488,0.00488,0.00244,0,0.00244,-0.04392,0.0488,-0.03904,0.01952,0.02928,-0.0244
0.00488,0.00244,-0.00976,-0.0122,-0.01464,0.00976,-0.03904,0.03416,-0.04392,0.01952,0.0244,-0.01952
0.01464,-0.00244,-0.00976,-0.01708,-0.0244,0.01952,-0.03416,0.04392,-0.03416,0.01464,0.0244,-0.01952
0.01464,-0.00732,0,-0.00732,-0.01464,0.01464,-0.0244,0.04392,-0.04392,0.01464,0.0244,-0.01464
0.01464,-0.00976,0.00488,-0.00244,-0.00976,0.0122,-0.00976,0.03416,-0.03904,0.00488,0.01464,-0.01464
0.01464,-0.00732,0,-0.00732,-0.01464,0.01464,-0.00488,0.03416,-0.04392,0.00488,0.01464,-0.01952
0.01464,-0.00976,0.00488,-0.00244,-0.00976,0.0122,-0.00976,0.02928,-0.0488,0.00488,0.00976,-0.01952
0.01464,-0.00976,0.00488,-0.00244,-0.00976,0.0122,-0.0244,0.0244,-0.05368,-0.00488,0.00488,-0.01952
0.01464,-0.01464,0.01464,0.00732,0,0.00732,-0.01952,0.01952,-0.05856,0.00488,0.00976,-0.0244
0.01952,-0.01464,0.00976,0,-0.00976,0.01464,-0.0244,0.01952,-0.0488,0.00488,0.00976,-0.0244
0.01952,-0.0122,0.00488,-0.00488,-0.01464,0.01708,-0.0244,0.00976,-0.0488,0.00488,0.00976,-0.0244
0.01464,-0.00488,-0.00488,-0.0122,-0.01952,0.01708,-0.01952,0.00976,-0.05368,-0.00488,0,-0.02928
0.00488,0.00244,-0.00976,-0.0122,-0.01464,0.00976,-0.00976,0,-0.05368,-0.00976,0,-0.03904
0.00488,0.00244,-0.00976,-0.0122,-0.01464,0.00976,-0.01952,-0.00976,-0.06832,-0.01464,0.00488,-0.03904
0.00976,0,-0.00976,-0.01464,-0.01952,0.01464,-0.02928,-0.01464,-0.06832,-0.0244,-0.00488,-0.03904
0.00976,0,-0.00976,-0.01464,-0.01952,0.01464,-0.02928,-0.01464,-0.06832,-0.0244,-0.00488,-0.03904
0.00488,-0.00244,0,-0.00244,-0.00488,0.00488,-0.03904,-0.01464,-0.06832,-0.02928,-0.00976,-0.03904
0.00488,-0.00244,0,-0.00244,-0.00488,0.00488,-0.03904,-0.01952,-0.06832,-0.02928,-0.00976,-0.03904
0.00976,0.00488,-0.01952,-0.0244,-0.02928,0.01952,-0.03904,-0.01952,-0.06832,-0.02928,-0.01464,-0.04392
0.00488,0.00732,-0.01952,-0.02196,-0.0244,0.01464,-0.04392,-0.02928,-0.0732,-0.02928,-0.01952,-0.04392
0.00488,0,-0.00488,-0.00732,-0.00976,0.00732,-0.03416,-0.02928,-0.0732,-0.0244,-0.00976,-0.02928
0.01464,-0.00488,-0.00488,-0.0122,-0.01952,0.01708,-0.03416,-0.0244,-0.0732,-0.02928,-0.00976,-0.02928
0.01464,-0.00976,0.00488,-0.00244,-0.00976,0.0122,-0.04392,-0.01952,-0.0732,-0.03904,-0.01952,-0.03904
0.01464,-0.00976,0.00488,-0.00244,-0.00976,0.0122,-0.03904,-0.01464,-0.0732,-0.04392,-0.01952,-0.03904
0,0.00732,-0.01464,-0.01464,-0.01464,0.00732,-0.03416,-0.00976,-0.06344,-0.03904,-0.00976,-0.02928
0.00976,0.00244,-0.01464,-0.01952,-0.0244,0.01708,-0.0244,-0.00976,-0.06344,-0.02928,-0.00976,-0.02928
0.00976,-0.00244,-0.00488,-0.00976,-0.01464,0.0122,-0.02928,-0.01952,-0.06832,-0.03416,-0.01464,-0.03904
0,0.00244,-0.00488,-0.00488,-0.00488,0.00244,-0.02928,-0.01464,-0.06832,-0.03416,-0.0244,-0.04392
0.00976,0.00244,-0.01464,-0.01952,-0.0244,0.01708,-0.03416,-0.01952,-0.0732,-0.03416,-0.0244,-0.04392
0.00976,0,-0.00976,-0.01464,-0.01952,0.01464,-0.02928,-0.01952,-0.0732,-0.03416,-0.02928,-0.0488
0.00488,0.00488,-0.01464,-0.01708,-0.01952,0.0122,-0.03416,-0.01952,-0.0732,-0.04392,-0.02928,-0.0488
0.00488,0.00488,-0.01464,-0.01708,-0.01952,0.0122,-0.03904,-0.0244,-0.06832,-0.04392,-0.02928,-0.04392
0.00488,0.00976,-0.0244,-0.02684,-0.02928,0.01708,-0.03416,-0.0244,-0.06832,-0.03904,-0.01952,-0.0488
0.00976,0.00488,-0.01952,-0.0244,-0.02928,0.01952,-0.03416,-0.0244,-0.06344,-0.03904,-0.01952,-0.04392
0.00488,0.00732,-0.01952,-0.02196,-0.0244,0.01464,-0.03416,-0.0244,-0.06344,-0.03416,-0.02928,-0.0488
-0.00488,0.00976,-0.01464,-0.0122,-0.00976,0.00244,-0.03416,-0.01952,-0.05856,-0.03416,-0.02928,-0.0488
-0.00976,0.00732,-0.00488,0,0.00488,-0.00732,-0.03416,-0.00976,-0.0488,-0.03416,-0.02928,-0.04392
-0.01464,0.01464,-0.01464,-0.00732,0,-0.00732,-0.02928,-0.00488,-0.0488,-0.03416,-0.02928,-0.04392
-0.00488,0.00244,0,0.00244,0.00488,-0.00488,-0.02928,-0.00488,-0.0488,-0.03416,-0.0244,-0.0488
0.00488,-0.00488,0.00488,0.00244,0,0.00244,-0.0244,0,-0.0488,-0.03416,-0.0244,-0.0488
0,0,0,0,0,0,-0.0244,0,-0.0488,-0.04392,-0.03416,-0.0488
0,0.00488,-0.00976,-0.00976,-0.00976,0.00488,-0.02928,0.00488,-0.0488,-0.04392,-0.03416,-0.0488
0.00488,0.00488,-0.01464,-0.01708,-0.01952,0.0122,-0.02928,0,-0.03904,-0.03416,-0.02928,-0.05368
0.00488,0.00732,-0.01952,-0.02196,-0.0244,0.01464,-0.0244,-0.00488,-0.03904,-0.03416,-0.02928,-0.05368
0.00488,0.00488,-0.01464,-0.01708,-0.01952,0.0122,-0.01952,-0.00488,-0.03904,-0.03416,-0.02928,-0.04392
0.00488,0.00488,-0.01464,-0.01708,-0.01952,0.0122,-0.01464,0,-0.03904,-0.03416,-0.02928,-0.04392
0,0.00732,-0.01464,-0.01464,-0.01464,0.00732,-0.01952,0,-0.03904,-0.03416,-0.02928,-0.04392
-0.00488,0.00976,-0.01464,-0.0122,-0.00976,0.00244,-0.01952,0,-0.03904,-0.03416,-0.02928,-0.04392
-0.00976,0.00732,-0.00488,0,0.00488,-0.00732,-0.01952,-0.00976,-0.03904,-0.03416,-0.02928,-0.04392
0,0.00244,-0.00488,-0.00488,-0.00488,0.00244,-0.0244,-0.01464,-0.04392,-0.03416,-0.02928,-0.04392
-0.00976,0.0122,-0.01464,-0.00976,-0.00488,-0.00244,-0.00976,-0.00976,-0.04392,-0.03416,-0.02928,-0.04392
-0.01464,0.01464,-0.01464,-0.00732,0,-0.00732,-0.00976,-0.00488,-0.04392,-0.03416,-0.02928,-0.04392
-0.00488,0.00488,-0.00488,-0.00244,0,-0.00244,-0.00488,-0.00976,-0.04392,-0.03416,-0.02928,-0.04392
-0.00488,0.00488,-0.00488,-0.00244,0,-0.00244,-0.01464,-0.01952,-0.04392,-0.03416,-0.02928,-0.04392
-0.01464,0.00976,-0.00488,0.00244,0.00976,-0.0122,-0.01464,-0.01464,-0.04392,-0.03416,-0.03416,-0.04392
-0.01464,0.00976,-0.00488,0.00244,0.00976,-0.0122,-0.01952,-0.01464,-0.03416,-0.03416,-0.03416,-0.03904
-0.00976,0.00732,-0.00488,0,0.00488,-0.00732,-0.01464,-0.00976,-0.0244,-0.0244,-0.0244,-0.03904
-0.00976,0.00732,-0.00488,0,0.00488,-0.00732,-0.00976,-0.00976,-0.0244,-0.0244,-0.02928,-0.03904
-0.00976,0.00976,-0.00976,-0.00488,0,-0.00488,-0.01464,-0.00488,-0.01464,-0.0244,-0.0244,-0.03904
-0.00976,0.00732,-0.00488,0,0.00488,-0.00732,-0.01952,-0.01464,-0.01464,-0.0244,-0.02928,-0.03904
-0.00488,0.00976,-0.01464,-0.0122,-0.00976,0.00244,-0.01952,-0.00976,-0.01464,-0.0244,-0.02928,-0.03904
0.00488,0.00244,-0.00976,-0.0122,-0.01464,0.00976,-0.01952,-0.00976,-0.01464,-0.0244,-0.02928,-0.03904
-0.00488,0.00488,-0.00488,-0.00244,0,-0.00244,-0.02928,-0.01464,-0.00488,-0.0244,-0.02928,-0.03904
-0.00488,0.00488,-0.00488,-0.00244,0,-0.00244,-0.0244,-0.01464,-0.00488,-0.0244,-0.0244,-0.03904
0.00488,0.00244,-0.00976,-0.0122,-0.01464,0.00976,-0.02928,-0.01464,-0.01464,-0.03416,-0.0244,-0.03904
0.00488,0,-0.00488,-0.00732,-0.00976,0.00732,-0.0244,-0.01464,-0.01464,-0.03416,-0.0244,-0.03904
-0.00488,0.00244,0,0.00244,0.00488,-0.00488,-0.01952,-0.00976,-0.01464,-0.03416,-0.03416,-0.03904
0.00976,-0.00488,0,-0.00488,-0.00976,0.00976,-0.01952,0,-0.00976,-0.02928,-0.02928,-0.03904
0,0,0,0,0,0,-0.01952,0,-0.00976,-0.02928,-0.02928,-0.03904
0,0,0,0,0,0,-0.01952,0,-0.00976,-0.02928,-0.02928,-0.03904
-0.00976,0.00488,0,0.00488,0.00976,-0.00976,-0.01952,0,0,-0.02928,-0.01952,-0.02928
-0.01952,0.00976,0,0.00976,0.01952,-0.01952,-0.01952,0,0,-0.02928,-0.01952,-0.02928
-0.00976,0,0.00976,0.01464,0.01952,-0.01464,-0.00976,0,0.00976,-0.02928,-0.02928,-0.02928
-0.00976,0,0.00976,0.01464,0.01952,-0.01464,-0.00976,0,0.00976,-0.02928,-0.02928,-0.02928
-0.00976,0.00488,0,0.00488,0.00976,-0.00976,-0.00976,0.00976,0.00976,-0.01952,-0.01952,-0.01952
-0.00976,0.00976,-0.00976,-0.00488,0,-0.00488,-0.00976,0.00976,0.00976,-0.01952,-0.01952,-0.01952
0,0.00488,-0.00976,-0.00976,-0.00976,0.00488,-0.01952,0,0,-0.02928,-0.02928,-0.02928
0,0.00488,-0.00976,-0.00976,-0.00976,0.00488,-0.01952,0,0,-0.02928,-0.02928,-0.02928
0.00976,-0.00488,0,-0.00488,-0.00976,0.00976,-0.00976,0.00976,0.00976,-0.01952,-0.02928,-0.02928
0.00976,-0.00488,0,-0.00488,-0.00976,0.00976,-0.00976,0.00976,0.00976,-0.01952,-0.02928,-0.02928
0,0,0,0,0,0,-0.00976,0,0.01952,-0.01952,-0.02928,-0.02928
0,0,0,0,0,0,-0.00976,0,0.01952,-0.01952,-0.02928,-0.02928
-0.00976,0,0.00976,0.01464,0.01952,-0.01464,0,-0.00976,0.01952,-0.01952,-0.02928,-0.02928
-0.00976,0,0.00976,0.01464,0.01952,-0.01464,0,-0.01952,0.01952,-0.01952,-0.02928,-0.02928
0,-0.00976,0.01952,0.01952,0.01952,-0.00976,0.00976,-0.01952,0.02928,-0.00976,-0.02928,-0.02928
0,-0.00976,0.01952,0.01952,0.01952,-0.00976,0.00976,-0.01952,0.02928,-0.00976,-0.02928,-0.02928
-0.00976,0,0.00976,0.01464,0.01952,-0.01464,0,-0.01952,0.01952,-0.01952,-0.02928,-0.03904
-0.00976,0,0.00976,0.01464,0.01952,-0.01464,0,-0.01952,0.01952,-0.01952,-0.02928,-0.03904
0,-0.00488,0.00976,0.00976,0.00976,-0.00488,0,-0.01952,0.01952,-0.01952,-0.02928,-0.02928
0,-0.00488,0.00976,0.00976,0.00976,-0.00488,0,-0.01952,0.01952,-0.01464,-0.02928,-0.03416
0.00976,-0.00976,0.00976,0.00488,0,0.00488,0.00488,-0.00976,0.02928,-0.01464,-0.02928,-0.03416
0.00976,-0.00976,0.00976,0.00488,0,0.00488,0.00976,0,0.03416,-0.01464,-0.0244,-0.03416
0.00488,-0.00732,0.00976,0.00732,0.00488,0,0,-0.00976,0.03416,-0.01464,-0.02928,-0.02928
0.00488,-0.01708,0.02928,0.02684,0.0244,-0.00976,0,-0.00488,0.0488,-0.00976,-0.0244,-0.0244
0.00976,-0.0244,0.03904,0.03416,0.02928,-0.00976,0.00488,0,0.0488,0.00488,-0.01464,-0.01464
0.01464,-0.03172,0.0488,0.04148,0.03416,-0.00976,0.00976,0.00488,0.05856,0.00976,-0.00976,-0.01464
0.01952,-0.03904,0.05856,0.0488,0.03904,-0.00976,0.01464,0.01952,0.0732,0.02928,0,0
0.01952,-0.04636,0.0732,0.06344,0.05368,-0.01708,0.00976,0.01952,0.07808,0.03904,0.00488,0.00488
0.0244,-0.05124,0.07808,0.06588,0.05368,-0.01464,0,0.00488,0.06832,0.03416,0.00488,-0.00488
0.0244,-0.05368,0.08296,0.07076,0.05856,-0.01708,0,0.00488,0.06832,0.03416,0.00488,-0.00488
0.01464,-0.05124,0.08784,0.08052,0.0732,-0.02928,0.00488,0.00488,0.0732,0.03904,0.00488,-0.00488
0.01464,-0.05368,0.09272,0.0854,0.07808,-0.03172,0.00488,0.01464,0.07808,0.03904,0.00976,0
0.02928,-0.06588,0.10248,0.08784,0.0732,-0.02196,0,0.0244,0.07808,0.0488,0.01464,-0.00976
0.02928,-0.07076,0.11224,0.0976,0.08296,-0.02684,-0.01952,0.00488,0.0732,0.0488,0.01464,-0.00488
0.01952,-0.06588,0.11224,0.10248,0.09272,-0.0366,-0.03416,-0.01952,0.05856,0.03416,0.01464,0
0.02928,-0.07564,0.122,0.10736,0.09272,-0.03172,-0.05856,-0.02928,0.0488,0.03416,0.01464,0
0.04392,-0.09272,0.14152,0.11956,0.0976,-0.02684,-0.06344,-0.03416,0.03904,0.0488,0.02928,0.01464
0.06344,-0.10736,0.15128,0.11956,0.08784,-0.0122,-0.05368,-0.01952,0.05368,0.05856,0.03904,0.0244
0.06832,-0.1098,0.15128,0.11712,0.08296,-0.00732,-0.04392,-0.01952,0.05368,0.0488,0.0488,0.03416
0.06344,-0.10248,0.14152,0.1098,0.07808,-0.00732,-0.03416,-0.01952,0.05856,0.04392,0.03416,0.02928
0.05856,-0.0976,0.13664,0.10736,0.07808,-0.00976,-0.02928,-0.00976,0.04392,0.04392,0.03416,0.01952
0.05856,-0.09516,0.13176,0.10248,0.0732,-0.00732,-0.02928,-0.00976,0.03416,0.03416,0.02928,0.01952
0.05856,-0.08052,0.10248,0.0732,0.04392,0.00732,-0.01464,-0.00976,0.01464,0.01464,0.01464,0.01464
0.0488,-0.06832,0.08784,0.06344,0.03904,0.00488,-0.00488,-0.01464,0.01464,0.00488,0.00976,0.00488
0.02928,-0.05368,0.07808,0.06344,0.0488,-0.00976,-0.00488,-0.01464,0.01464,0.00976,0,-0.00976
0.01952,-0.03904,0.05856,0.0488,0.03904,-0.00976,0.00488,-0.0244,0.01952,0.00976,-0.00488,-0.01952
0.00976,-0.0244,0.03904,0.03416,0.02928,-0.00976,0.00488,-0.0244,0.01952,0.00488,-0.0244,-0.0244
0.00976,-0.02196,0.03416,0.02928,0.0244,-0.00732,0.00976,-0.01952,0.00976,-0.00976,-0.03416,-0.03416
0.00976,-0.0244,0.03904,0.03416,0.02928,-0.00976,0,-0.02928,0.01952,-0.01952,-0.03416,-0.03416
0.00976,-0.01952,0.02928,0.0244,0.01952,-0.00488,-0.00976,-0.03416,0.00488,-0.01952,-0.03904,-0.03904
0.00976,-0.00976,0.00976,0.00488,0,0.00488,-0.01464,-0.03416,0,-0.0244,-0.03904,-0.03904
0,0,0,0,0,0,-0.01464,-0.03416,0,-0.03416,-0.0488,-0.03904
0.00488,-0.00488,0.00488,0.00244,0,0.00244,-0.01464,-0.04392,-0.00976,-0.04392,-0.0488,-0.04392
0,0,0,0,0,0,-0.00488,-0.03904,-0.00976,-0.04392,-0.04392,-0.04392
0,0.00488,-0.00976,-0.00976,-0.00976,0.00488,0.00976,-0.02928,0,-0.03416,-0.03416,-0.04392
-0.00488,0.0122,-0.01952,-0.01708,-0.01464,0.00488,0.01952,-0.01464,0.01464,-0.01952,-0.03416,-0.04392
-0.00976,0.01708,-0.0244,-0.01952,-0.01464,0.00244,0.03416,-0.00976,0.01952,-0.0244,-0.03416,-0.04392
-0.01464,0.01952,-0.0244,-0.01708,-0.00976,-0.00244,0.02928,-0.00976,0.01952,-0.03416,-0.03416,-0.0488
-0.01464,0.01952,-0.0244,-0.01708,-0.00976,-0.00244,0.03904,-0.00976,0.01952,-0.0244,-0.03416,-0.0488
-0.01464,0.01708,-0.01952,-0.0122,-0.00488,-0.00488,0.0488,0.00976,0.0488,0,-0.0244,-0.03904
-0.00488,0.0122,-0.01952,-0.01708,-0.01464,0.00488,0.07808,0.05856,0.11224,0.0488,-0.00488,-0.0488
0.01952,0,-0.01952,-0.02928,-0.03904,0.02928,0.13176,0.15128,0.25376,0.18056,0.0488,-0.03904
0.03416,-0.02928,0.0244,0.00732,-0.00976,0.02196,0.14152,0.2196,0.38064,0.40016,0.22936,0.03904
0.08296,-0.08296,0.08296,0.04148,0,0.04148,0.11712,0.23912,0.45384,0.6344,0.47824,0.17568
0.16592,-0.16348,0.16104,0.07808,-0.00488,0.0854,0.09272,0.244,0.4636,0.89304,0.77104,0.35136
0.28792,-0.30744,0.32696,0.183,0.03904,0.12444,-0.03416,0.11712,0.28792,1.15168,1.20536,0.66368
0.3904,-0.47336,0.55632,0.36112,0.16592,0.11224,-0.28792,-0.22448,-0.26352,1.13216,1.55184,0.96136
0.5124,-0.64416,0.77592,0.51972,0.26352,0.12444,-0.69296,-0.71736,-1.01016,0.94184,1.86904,1.28344
0.54656,-0.72712,0.90768,0.6344,0.36112,0.09272,-0.976,-1.09312,-1.55184,0.72712,2.00568,1.43472
0.47824,-0.67832,0.8784,0.63928,0.40016,0.03904,-1.09312,-1.27368,-1.83976,0.55632,1.89344,1.34688
0.35624,-0.4514,0.54656,0.36844,0.19032,0.08296,-0.92232,-1.13216,-1.76168,0.39528,1.4152,0.97112
0.20496,-0.18544,0.16592,0.06344,-0.03904,0.122,-0.7564,-0.99064,-1.708,-0.0732,0.62464,0.45872
0.05368,0.0122,-0.07808,-0.10492,-0.13176,0.09272,-0.63928,-0.94184,-1.71776,-0.88328,-0.33184,-0.05856
0.01464,0.0854,-0.18544,-0.19276,-0.20008,0.10736,-0.45384,-0.72224,-1.47864,-0.97112,-0.5368,-0.21472
0.04392,0.11224,-0.2684,-0.29036,-0.31232,0.17812,-0.27328,-0.48312,-1.15168,-0.76128,-0.43432,-0.1952
0.0488,0.10492,-0.25864,-0.28304,-0.30744,0.17812,-0.10736,-0.26352,-0.79056,-0.50264,-0.28304,-0.1464
0.02928,0.0976,-0.22448,-0.23912,-0.25376,0.14152,0.05856,-0.06344,-0.45872,-0.2928,-0.18056,-0.11224
0.03904,0.061,-0.16104,-0.18056,-0.20008,0.11956,0.11224,0.03904,-0.23424,-0.13176,-0.0976,-0.06344
0.04392,0.03172,-0.10736,-0.12932,-0.15128,0.0976,0.122,0.0488,-0.122,-0.06832,-0.05856,-0.0488
0.02928,0.02928,-0.08784,-0.10248,-0.11712,0.0732,0.11224,0.05368,-0.03904,-0.0244,-0.05368,-0.03904
0.01952,0.02684,-0.0732,-0.08296,-0.09272,0.05612,0.09272,0.07808,0.03416,0.0244,-0.03904,-0.05368
0.01464,0.03416,-0.08296,-0.09028,-0.0976,0.05612,0.07808,0.08296,0.0976,0.04392,-0.02928,-0.03904
0.01464,0.0244,-0.06344,-0.07076,-0.07808,0.04636,0.06344,0.0976,0.14152,0.06832,-0.01952,-0.04392
0.01464,0.01708,-0.0488,-0.05612,-0.06344,0.03904,0.05368,0.10736,0.18056,0.08784,-0.00976,-0.03904
0.01952,0.0122,-0.04392,-0.05368,-0.06344,0.04148,0.06832,0.12688,0.20496,0.0976,0,-0.02928
0.01952,0.0122,-0.04392,-0.05368,-0.06344,0.04148,0.08296,0.14152,0.22936,0.11712,0.01464,-0.0244
0.01952,0.0122,-0.04392,-0.05368,-0.06344,0.04148,0.0976,0.16104,0.244,0.12688,0.02928,-0.02928
0.01952,0.0122,-0.04392,-0.05368,-0.06344,0.04148,0.122,0.18544,0.24888,0.14152,0.03416,-0.02928
0.01952,0.00488,-0.02928,-0.03904,-0.0488,0.03416,0.13664,0.2196,0.244,0.14152,0.03416,-0.03416
0.0244,-0.00244,-0.01952,-0.03172,-0.04392,0.03416,0.15128,0.25376,0.24888,0.15128,0.03416,-0.03416
0.01464,0,-0.01464,-0.02196,-0.02928,0.02196,0.16104,0.27328,0.25376,0.16104,0.0488,-0.01952
0.00976,0.00244,-0.01464,-0.01952,-0.0244,0.01708,0.16592,0.27328,0.25376,0.16104,0.0488,-0.00976
0.0244,-0.00732,-0.00976,-0.02196,-0.03416,0.02928,0.16592,0.25864,0.27816,0.1708,0.0488,-0.00488
0.02928,-0.0122,-0.00488,-0.01952,-0.03416,0.03172,0.1708,0.23424,0.30256,0.18056,0.05368,-0.00976
0.03416,-0.01708,0,-0.01708,-0.03416,0.03416,0.16104,0.22448,0.33184,0.18544,0.05856,0
0.03416,-0.01708,0,-0.01708,-0.03416,0.03416,0.1464,0.20496,0.34648,0.19032,0.05856,0.00976
0.03904,-0.01952,0,-0.01952,-0.03904,0.03904,0.122,0.20496,0.35624,0.21472,0.06832,0.00488
0.03904,-0.01952,0,-0.01952,-0.03904,0.03904,0.11224,0.20496,0.37088,0.22448,0.07808,0.00488
0.0488,-0.02684,0.00488,-0.01952,-0.04392,0.04636,0.10248,0.2196,0.38064,0.22936,0.08784,0.00976
0.04392,-0.02684,0.00976,-0.0122,-0.03416,0.03904,0.08784,0.22448,0.3904,0.23912,0.09272,0.01464
0.03904,-0.0244,0.00976,-0.00976,-0.02928,0.03416,0.10736,0.244,0.40016,0.25376,0.10248,0.02928
0.04392,-0.02684,0.00976,-0.0122,-0.03416,0.03904,0.11712,0.24888,0.40992,0.2684,0.10248,0.02928
0.04392,-0.03172,0.01952,-0.00244,-0.0244,0.03416,0.12688,0.23912,0.42456,0.27816,0.11224,0.0244
0.0488,-0.03416,0.01952,-0.00488,-0.02928,0.03904,0.1464,0.244,0.43432,0.28304,0.11224,0.02928
0.04392,-0.02684,0.00976,-0.0122,-0.03416,0.03904,0.15128,0.25864,0.44896,0.30256,0.12688,0.03416
0.05368,-0.03416,0.01464,-0.0122,-0.03904,0.04636,0.16592,0.27328,0.4636,0.3172,0.14152,0.03416
0.06344,-0.04636,0.02928,-0.00244,-0.03416,0.0488,0.18056,0.27328,0.488,0.32696,0.15128,0.03416
0.0732,-0.05368,0.03416,-0.00244,-0.03904,0.05612,0.18544,0.2928,0.50264,0.34648,0.15616,0.03416
0.06344,-0.0488,0.03416,0.00244,-0.02928,0.04636,0.18544,0.28792,0.5124,0.366,0.16592,0.04392
0.07808,-0.05612,0.03416,-0.00488,-0.04392,0.061,0.18544,0.2928,0.53192,0.37576,0.17568,0.04392
0.07808,-0.05856,0.03904,0,-0.03904,0.05856,0.18544,0.30256,0.55144,0.40504,0.1952,0.0488
0.08784,-0.06588,0.04392,0,-0.04392,0.06588,0.1952,0.3172,0.57096,0.42456,0.20984,0.05856
0.08784,-0.06832,0.0488,0.00488,-0.03904,0.06344,0.18544,0.32696,0.60512,0.4392,0.2196,0.06832
0.0976,-0.07808,0.05856,0.00976,-0.03904,0.06832,0.18544,0.33672,0.6344,0.45872,0.23424,0.0732
0.0976,-0.08052,0.06344,0.01464,-0.03416,0.06588,0.19032,0.34648,0.65392,0.48312,0.25864,0.09272
0.10248,-0.08784,0.0732,0.02196,-0.02928,0.06588,0.1952,0.36112,0.6832,0.50264,0.2684,0.10248
0.122,-0.0976,0.0732,0.0122,-0.0488,0.0854,0.20008,0.38064,0.71248,0.52704,0.28792,0.11712
0.12688,-0.10492,0.08296,0.01952,-0.04392,0.0854,0.20008,0.4148,0.74664,0.5612,0.30744,0.13664
0.14152,-0.122,0.10248,0.03172,-0.03904,0.09028,0.21472,0.43432,0.7808,0.5856,0.33184,0.1464
0.1464,-0.12444,0.10248,0.02928,-0.04392,0.09516,0.2196,0.45384,0.81496,0.61,0.35624,0.15616
0.15128,-0.13176,0.11224,0.0366,-0.03904,0.09516,0.20984,0.47336,0.84912,0.63928,0.37088,0.17568
0.1708,-0.14396,0.11712,0.03172,-0.05368,0.11224,0.20984,0.49288,0.8784,0.66368,0.38552,0.20496
0.18056,-0.16348,0.1464,0.05612,-0.03416,0.10736,0.22448,0.5124,0.91744,0.68808,0.4148,0.22448
0.19032,-0.17324,0.15616,0.061,-0.03416,0.11224,0.22448,0.52704,0.94184,0.71736,0.4392,0.244
0.20984,-0.18788,0.16592,0.061,-0.04392,0.12688,0.20984,0.54656,0.96624,0.74664,0.46848,0.26352
0.21472,-0.19276,0.1708,0.06344,-0.04392,0.12932,0.20008,0.55632,0.98088,0.76128,0.488,0.27816
0.22936,-0.20008,0.1708,0.05612,-0.05856,0.14396,0.18056,0.55632,0.98576,0.77104,0.50264,0.28792
0.23912,-0.21472,0.19032,0.07076,-0.0488,0.14396,0.1708,0.55632,1.0004,0.7808,0.51728,0.31232
0.244,-0.22692,0.20984,0.08784,-0.03416,0.13908,0.17568,0.55144,1.0004,0.78568,0.52704,0.32208
0.24888,-0.23424,0.2196,0.09516,-0.02928,0.13908,0.1708,0.55144,1.0004,0.78568,0.53192,0.32696
0.23912,-0.2318,0.22448,0.10492,-0.01464,0.12688,0.1464,0.5368,0.99064,0.77592,0.52704,0.33184
0.23912,-0.23424,0.22936,0.1098,-0.00976,0.12444,0.13664,0.51728,0.96136,0.76616,0.53192,0.33184
0.24888,-0.23668,0.22448,0.10004,-0.0244,0.13664,0.11224,0.48312,0.90768,0.74176,0.52704,0.33672
0.23912,-0.23424,0.22936,0.1098,-0.00976,0.12444,0.10736,0.44896,0.86376,0.72224,0.5124,0.3416
0.22936,-0.22936,0.22936,0.11468,0,0.11468,0.09272,0.41968,0.81496,0.68808,0.50264,0.32696
0.2196,-0.22204,0.22448,0.11468,0.00488,0.10736,0.08784,0.38552,0.76616,0.65392,0.488,0.32208
0.20008,-0.20496,0.20984,0.1098,0.00976,0.09516,0.05856,0.3416,0.6832,0.60512,0.45384,0.30256
0.18056,-0.19032,0.20008,0.1098,0.01952,0.08052,0.05368,0.30744,0.61,0.54168,0.41968,0.27816
0.16592,-0.1708,0.17568,0.09272,0.00976,0.07808,0.0488,0.27816,0.54168,0.50264,0.3904,0.25864
0.1464,-0.15128,0.15616,0.08296,0.00976,0.06832,0.03416,0.23912,0.48312,0.45384,0.35136,0.23424
0.13176,-0.13664,0.14152,0.07564,0.00976,0.061,0.0244,0.20984,0.4148,0.38552,0.30256,0.20496
0.10248,-0.11224,0.122,0.07076,0.01952,0.04148,0.01952,0.17568,0.36112,0.3416,0.26352,0.17568
0.09272,-0.10004,0.10736,0.061,0.01464,0.03904,0.0244,0.1464,0.31232,0.28304,0.22936,0.12688
0.0732,-0.07808,0.08296,0.04636,0.00976,0.03172,0.01952,0.122,0.26352,0.244,0.1952,0.10248
0.06344,-0.07076,0.07808,0.04636,0.01464,0.0244,0.00976,0.10248,0.22936,0.20008,0.1464,0.08296
0.05368,-0.05856,0.06344,0.0366,0.00976,0.02196,0.00976,0.0976,0.20008,0.17568,0.13176,0.05856
0.0488,-0.05124,0.05368,0.02928,0.00488,0.02196,0.00976,0.07808,0.18056,0.1464,0.10736,0.05368
0.03904,-0.04392,0.0488,0.02928,0.00976,0.01464,0.00976,0.06832,0.16104,0.122,0.08784,0.03416
0.0244,-0.02684,0.02928,0.01708,0.00488,0.00976,0.01952,0.05856,0.14152,0.10736,0.06832,0.01952
0.0244,-0.02196,0.01952,0.00732,-0.00488,0.01464,0.01952,0.03904,0.13176,0.08784,0.05368,0.00976
0.00488,-0.00244,0,-0.00244,-0.00488,0.00488,0.02928,0.04392,0.11712,0.07808,0.04392,0
0.00976,-0.00244,-0.00488,-0.00976,-0.01464,0.0122,0.03416,0.03416,0.10736,0.06832,0.03416,-0.00488
0.00976,-0.00488,0,-0.00488,-0.00976,0.00976,0.03416,0.0488,0.10736,0.06344,0.02928,0
0,0,0,0,0,0,0.03904,0.0488,0.0976,0.05856,0.0244,-0.00976
0,0.00976,-0.01952,-0.01952,-0.01952,0.00976,0.03904,0.03416,0.08784,0.04392,0.01952,-0.01464
0,0.01464,-0.02928,-0.02928,-0.02928,0.01464,0.03416,0.02928,0.08784,0.03904,0.01952,-0.00976
-0.00976,0.01708,-0.0244,-0.01952,-0.01464,0.00244,0.03416,0.03416,0.07808,0.03416,0.00976,-0.01952
-0.00976,0.01464,-0.01952,-0.01464,-0.00976,0,0.02928,0.03416,0.0732,0.03416,0.00976,-0.01952
0.00488,0.00244,-0.00976,-0.0122,-0.01464,0.00976,0.03416,0.03904,0.08296,0.03416,0.00976,-0.02928
0,0.00732,-0.01464,-0.01464,-0.01464,0.00732,0.0488,0.04392,0.08784,0.03416,0.00976,-0.0244
0,0.00732,-0.01464,-0.01464,-0.01464,0.00732,0.05368,0.04392,0.08784,0.03416,0.00976,-0.00976
0,0.00732,-0.01464,-0.01464,-0.01464,0.00732,0.05368,0.03904,0.08784,0.03904,0,-0.00488
0,0.0122,-0.0244,-0.0244,-0.0244,0.0122,0.06832,0.05368,0.09272,0.04392,0.00488,0.00488
0.00488,0.00976,-0.0244,-0.02684,-0.02928,0.01708,0.06832,0.05856,0.09272,0.0488,0.00976,0
0.00488,0.00732,-0.01952,-0.02196,-0.0244,0.01464,0.05856,0.0732,0.0976,0.03904,0.00976,-0.00488
0.00488,0.00732,-0.01952,-0.02196,-0.0244,0.01464,0.03904,0.0732,0.08784,0.03904,0.00976,-0.00976
-0.00488,0.0122,-0.01952,-0.01708,-0.01464,0.00488,0.01464,0.06344,0.08296,0.0488,0.01464,-0.01464
0,0.00732,-0.01464,-0.01464,-0.01464,0.00732,0,0.05856,0.08296,0.0488,0.01464,-0.01464
0.00488,-0.00244,0,-0.00244,-0.00488,0.00488,-0.00976,0.0488,0.07808,0.04392,0.00976,-0.00976
0.00976,-0.00488,0,-0.00488,-0.00976,0.00976,-0.00976,0.0488,0.08296,0.04392,0.00976,0
0.00488,0.00244,-0.00976,-0.0122,-0.01464,0.00976,0.00976,0.03904,0.09272,0.0488,0.01952,0.00976
0.00488,0.00732,-0.01952,-0.02196,-0.0244,0.01464,0.01464,0.04392,0.09272,0.0488,0.01952,0.01464
0.00976,0.00488,-0.01952,-0.0244,-0.02928,0.01952,0.01464,0.05368,0.08784,0.0488,0.00976,0.00488
0.00976,0.00244,-0.01464,-0.01952,-0.0244,0.01708,0.01952,0.05368,0.08784,0.05368,0.00976,0.00976
0,0.00488,-0.00976,-0.00976,-0.00976,0.00488,0.02928,0.06344,0.09272,0.05368,0.01464,0.00976
0,0.00732,-0.01464,-0.01464,-0.01464,0.00732,0.03416,0.06344,0.09272,0.05368,0.01464,0.00976
0,0,0,0,0,0,0.02928,0.06344,0.0976,0.05368,0.01464,0.00976
0.00488,-0.00488,0.00488,0.00244,0,0.00244,0.01952,0.05368,0.09272,0.0488,0.01464,0.00488
0,0.00244,-0.00488,-0.00488,-0.00488,0.00244,0.01952,0.04392,0.09272,0.0488,0.01464,0.00488
0,0.00244,-0.00488,-0.00488,-0.00488,0.00244,0.00976,0.04392,0.09272,0.05368,0.01464,0.00488
0.01464,-0.00732,0,-0.00732,-0.01464,0.01464,0.01464,0.04392,0.08784,0.05368,0.0244,0.00976
0.01464,-0.00976,0.00488,-0.00244,-0.00976,0.0122,0.0244,0.0488,0.08784,0.0488,0.01952,0.00488
0.01464,-0.00732,0,-0.00732,-0.01464,0.01464,0.02928,0.0488,0.0732,0.0488,0.01464,0.00976
0.01464,0,-0.01464,-0.02196,-0.02928,0.02196,0.02928,0.04392,0.0732,0.0488,0.01464,0.00976
0.00488,0,-0.00488,-0.00732,-0.00976,0.00732,0.02928,0.04392,0.06344,0.05368,0.01464,0
0.00488,0,-0.00488,-0.00732,-0.00976,0.00732,0.02928,0.04392,0.06832,0.05368,0.01464,0.00488
0.01464,-0.00976,0.00488,-0.00244,-0.00976,0.0122,0.04392,0.05368,0.06344,0.04392,0.01464,0.00488
0.01464,-0.00732,0,-0.00732,-0.01464,0.01464,0.04392,0.05856,0.06344,0.04392,0.00976,0
0.00488,-0.00488,0.00488,0.00244,0,0.00244,0.04392,0.04392,0.04392,0.02928,0,0
-0.00488,0,0.00488,0.00732,0.00976,-0.00732,0.03904,0.04392,0.04392,0.0244,-0.00488,-0.00488
0,0.00488,-0.00976,-0.00976,-0.00976,0.00488,0.04392,0.0488,0.04392,0.0244,0,0.00488
0,0.00488,-0.00976,-0.00976,-0.00976,0.00488,0.04392,0.0488,0.04392,0.0244,0,0.00488
0.00488,-0.00244,0,-0.00244,-0.00488,0.00488,0.03416,0.0488,0.03904,0.01952,-0.00488,0
0.00488,-0.00732,0.00976,0.00732,0.00488,0,0.03904,0.0488,0.03416,0.00976,-0.00976,0
-0.00488,0.00244,0,0.00244,0.00488,-0.00488,0.02928,0.03416,0.0244,0.01952,-0.00488,0
-0.00488,0.00732,-0.00976,-0.00732,-0.00488,0,0.02928,0.02928,0.01952,0.01464,-0.00488,0
0,0,0,0,0,0,0.02928,0.0244,0.02928,0.00488,-0.01464,-0.00976
0,0,0,0,0,0,0.02928,0.0244,0.02928,0.00488,-0.01952,-0.00976
-0.00488,-0.00244,0.00976,0.0122,0.01464,-0.00976,0.02928,0.02928,0.03904,0.00976,-0.00976,0
0,-0.00244,0.00488,0.00488,0.00488,-0.00244,0.02928,0.02928,0.03904,0.00976,-0.00488,0
0,0.00488,-0.00976,-0.00976,-0.00976,0.00488,0.02928,0.03416,0.03904,0,-0.00488,0.00488
-0.00488,0.00976,-0.01464,-0.0122,-0.00976,0.00244,0.0244,0.02928,0.03416,0.00488,-0.00976,0.00488
-0.00488,0.00488,-0.00488,-0.00244,0,-0.00244,0.0244,0.02928,0.0244,-0.00976,-0.01952,0
-0.00488,0.00488,-0.00488,-0.00244,0,-0.00244,0.0244,0.03416,0.01464,-0.00976,-0.01952,0
-0.00488,0,0.00488,0.00732,0.00976,-0.00732,0.02928,0.02928,0.00488,-0.01464,-0.01952,0
-0.01464,0.00732,0,0.00732,0.01464,-0.01464,0.02928,0.03416,0.00488,-0.01464,-0.01952,0
-0.02928,0.01708,-0.00488,0.00976,0.0244,-0.02684,0.02928,0.02928,0.00488,-0.01464,-0.01952,-0.00976
-0.01952,0.0122,-0.00488,0.00488,0.01464,-0.01708,0.02928,0.02928,0,-0.01464,-0.01952,-0.00976
-0.00976,0.00732,-0.00488,0,0.00488,-0.00732,0.02928,0.0244,0,-0.0244,-0.01952,-0.00976
-0.01952,0.0122,-0.00488,0.00488,0.01464,-0.01708,0.03416,0.0244,0.00488,-0.0244,-0.01464,-0.01464
-0.00976,0,0.00976,0.01464,0.01952,-0.01464,0.0244,0.01952,0.00488,-0.0244,-0.02928,-0.01464
-0.01464,0.00488,0.00488,0.0122,0.01952,-0.01708,0.02928,0.01952,0.00488,-0.0244,-0.02928,-0.01952
-0.01464,0.00976,-0.00488,0.00244,0.00976,-0.0122,0.0244,0.00488,0.00488,-0.0244,-0.01952,-0.00488
-0.01464,0.01464,-0.01464,-0.00732,0,-0.00732,0.01952,0.00488,0.00976,-0.0244,-0.01952,-0.00976
-0.00488,0.00488,-0.00488,-0.00244,0,-0.00244,0.0244,0.00488,0.00488,-0.02928,-0.02928,-0.01464
0,0,0,0,0,0,0.0244,0.00488,0.00488,-0.02928,-0.02928,-0.01464
-0.00976,0.00976,-0.00976,-0.00488,0,-0.00488,0.0244,0.00488,0.00976,-0.0244,-0.01952,-0.01952
-0.00976,0.00732,-0.00488,0,0.00488,-0.00732,0.0244,0.00976,0.00976,-0.0244,-0.01952,-0.01464
-0.01464,0.01952,-0.0244,-0.01708,-0.00976,-0.00244,0.01464,0.00976,0,-0.0244,-0.01952,-0.0244
-0.00976,0.01708,-0.0244,-0.01952,-0.01464,0.00244,0.01952,0.00488,0,-0.0244,-0.0244,-0.0244
-0.01952,0.02196,-0.0244,-0.01464,-0.00488,-0.00732,0.01952,0.00976,0,-0.0244,-0.0244,-0.01952
-0.01952,0.02196,-0.0244,-0.01464,-0.00488,-0.00732,0.0244,0.00976,0,-0.0244,-0.0244,-0.01952
-0.00976,0.01708,-0.0244,-0.01952,-0.01464,0.00244,0.0244,0.01464,0,-0.0244,-0.0244,-0.01952
-0.01464,0.0244,-0.03416,-0.02684,-0.01952,0.00244,0.01464,0.01464,0,-0.0244,-0.01952,-0.01952
-0.0244,0.02928,-0.03416,-0.02196,-0.00976,-0.00732,0.0244,0.00488,0,-0.0244,-0.01952,-0.01464
-0.0244,0.03172,-0.03904,-0.02684,-0.01464,-0.00488,0.01952,0.00488,0,-0.0244,-0.01952,-0.01464
-0.0244,0.02928,-0.03416,-0.02196,-0.00976,-0.00732,0.0244,0.00488,0,-0.0244,-0.01952,-0.00488
-0.0244,0.02928,-0.03416,-0.02196,-0.00976,-0.00732,0.02928,0.00976,0,-0.0244,-0.01952,-0.00488
-0.00976,0.02196,-0.03416,-0.02928,-0.0244,0.00732,0.01952,0.00976,-0.00976,-0.0244,-0.01952,-0.01464
-0.01952,0.02684,-0.03416,-0.0244,-0.01464,-0.00244,0.01952,0.00976,-0.00976,-0.0244,-0.01952,-0.01464
-0.01952,0.02684,-0.03416,-0.0244,-0.01464,-0.00244,0.01464,0.00488,-0.01464,-0.0244,-0.01952,-0.00488
-0.01952,0.03172,-0.04392,-0.03416,-0.0244,0.00244,0.01464,0.00976,-0.01464,-0.0244,-0.01952,-0.00488
-0.00976,0.01708,-0.0244,-0.01952,-0.01464,0.00244,0.01952,0,-0.01464,-0.0244,-0.01952,-0.00488
-0.01464,0.01952,-0.0244,-0.01708,-0.00976,-0.00244,0.0244,0.00488,-0.01464,-0.0244,-0.01952,-0.00488
-0.01464,0.0244,-0.03416,-0.02684,-0.01952,0.00244,0.01952,0.00488,-0.01464,-0.0244,-0.01952,-0.00488
-0.01464,0.0244,-0.03416,-0.02684,-0.01952,0.00244,0.00976,0.00488,-0.01952,-0.0244,-0.01464,-0.00488
-0.0244,0.03416,-0.04392,-0.03172,-0.01952,-0.00244,0.00976,0.00488,-0.01952,-0.0244,-0.01464,-0.00488
-0.0244,0.03416,-0.04392,-0.03172,-0.01952,-0.00244,0.00976,0.00488,-0.01464,-0.0244,-0.01464,0
-0.01952,0.02684,-0.03416,-0.0244,-0.01464,-0.00244,0.00488,0,-0.01464,-0.0244,-0.01464,-0.00976
-0.01952,0.02928,-0.03904,-0.02928,-0.01952,0,0.00488,0,-0.01464,-0.0244,-0.01952,-0.01952
-0.02928,0.0366,-0.04392,-0.02928,-0.01464,-0.00732,0.00488,-0.00488,-0.0244,-0.03416,-0.01464,0
-0.02928,0.0366,-0.04392,-0.02928,-0.01464,-0.00732,0,-0.01952,-0.0244,-0.03416,-0.01952,0
-0.02928,0.02928,-0.02928,-0.01464,0,-0.01464,0,-0.01952,-0.0244,-0.03416,-0.01952,-0.00976
-0.02928,0.02928,-0.02928,-0.01464,0,-0.01464,0,-0.01464,-0.0244,-0.03416,-0.01952,-0.00976
-0.0244,0.0244,-0.0244,-0.0122,0,-0.0122,0.00976,-0.01464,-0.01464,-0.0244,-0.01952,-0.00976
-0.0244,0.0244,-0.0244,-0.0122,0,-0.0122,0.01464,-0.01464,-0.01464,-0.0244,-0.01464,-0.00976
-0.0244,0.03172,-0.03904,-0.02684,-0.01464,-0.00488,0.00976,-0.00488,-0.01464,-0.0244,-0.01464,-0.00976
-0.0244,0.03416,-0.04392,-0.03172,-0.01952,-0.00244,0.01464,0,-0.01464,-0.0244,-0.01464,-0.00976
-0.01464,0.0244,-0.03416,-0.02684,-0.01952,0.00244,0.00488,0,-0.01464,-0.0244,-0.01464,0
-0.01952,0.02928,-0.03904,-0.02928,-0.01952,0,0.00976,0,-0.00976,-0.02928,-0.01952,-0.00976
-0.01952,0.02928,-0.03904,-0.02928,-0.01952,0,0.00976,0,-0.00976,-0.02928,-0.01952,-0.00976
-0.02928,0.03416,-0.03904,-0.0244,-0.00976,-0.00976,0.00976,0,-0.00976,-0.02928,-0.01952,-0.00976
-0.02928,0.03416,-0.03904,-0.0244,-0.00976,-0.00976,0.00976,0,-0.00976,-0.02928,-0.01952,-0.00976
-0.01952,0.02928,-0.03904,-0.02928,-0.01952,0,0,-0.00976,-0.01464,-0.02928,-0.01952,-0.00976
-0.01952,0.02928,-0.03904,-0.02928,-0.01952,0,0,-0.00976,-0.0244,-0.02928,-0.01952,-0.00976
-0.01952,0.02928,-0.03904,-0.02928,-0.01952,0,0,-0.00976,-0.02928,-0.03904,-0.02928,-0.01952
-0.01952,0.02928,-0.03904,-0.02928,-0.01952,0,0,-0.00976,-0.02928,-0.03904,-0.02928,-0.01952
-0.02928,0.03416,-0.03904,-0.0244,-0.00976,-0.00976,0,-0.00976,-0.02928,-0.03904,-0.01952,-0.00976
-0.02928,0.03416,-0.03904,-0.0244,-0.00976,-0.00976,0,-0.00976,-0.02928,-0.03904,-0.01952,-0.00976
-0.01952,0.02928,-0.03904,-0.02928,-0.01952,0,0,-0.01952,-0.02928,-0.03904,-0.01952,-0.00976
-0.01952,0.02928,-0.03904,-0.02928,-0.01952,0,0,-0.01952,-0.02928,-0.03904,-0.01952,-0.00976
-0.01952,0.0244,-0.02928,-0.01952,-0.00976,-0.00488,0.00976,-0.01464,-0.01952,-0.03904,-0.01952,-0.00976
-0.01952,0.0244,-0.02928,-0.01952,-0.00976,-0.00488,0.00976,-0.00488,-0.01952,-0.03904,-0.01952,-0.00976
-0.01952,0.02928,-0.03904,-0.02928,-0.01952,0,0.00976,0.00976,-0.01952,-0.02928,-0.01952,-0.00976
-0.01952,0.02928,-0.03904,-0.02928,-0.01952,0,0.00976,0.00976,-0.01952,-0.02928,-0.01952,-0.00976
-0.01952,0.02928,-0.03904,-0.02928,-0.01952,0,0.00976,0,-0.02928,-0.02928,-0.01952,-0.00976
-0.01952,0.02928,-0.03904,-0.02928,-0.01952,0,0.00976,0,-0.02928,-0.02928,-0.01952,-0.00976
-0.01952,0.02928,-0.03904,-0.02928,-0.01952,0,0.00976,0,-0.02928,-0.03904,-0.01952,0
-0.01952,0.02928,-0.03904,-0.02928,-0.01952,0,0.00976,0,-0.02928,-0.03904,-0.01952,0
-0.02928,0.03416,-0.03904,-0.0244,-0.00976,-0.00976,0,-0.00976,-0.02928,-0.03904,-0.01952,0
-0.02928,0.03416,-0.03904,-0.0244,-0.00976,-0.00976,0,-0.00976,-0.02928,-0.03904,-0.01952,0
-0.02928,0.02928,-0.02928,-0.01464,0,-0.01464,-0.00976,-0.01952,-0.02928,-0.02928,-0.01952,0
-0.02928,0.02928,-0.02928,-0.01464,0,-0.01464,-0.00976,-0.01952,-0.02928,-0.02928,-0.01952,0
-0.02928,0.03416,-0.03904,-0.0244,-0.00976,-0.00976,-0.00976,-0.01952,-0.01952,-0.03904,-0.01952,-0.00976
-0.02928,0.03416,-0.03904,-0.0244,-0.00976,-0.00976,-0.00976,-0.01952,-0.01952,-0.03416,-0.01952,-0.01464
-0.02928,0.03416,-0.03904,-0.0244,-0.00976,-0.00976,-0.0244,-0.02928,-0.02928,-0.03416,-0.02928,-0.00488
-0.02928,0.03416,-0.03904,-0.0244,-0.00976,-0.00976,-0.01952,-0.02928,-0.0244,-0.03416,-0.0244,-0.00488
-0.01464,0.03172,-0.0488,-0.04148,-0.03416,0.00976,-0.00976,-0.02928,-0.0244,-0.03416,-0.00976,0
-0.01464,0.02196,-0.02928,-0.02196,-0.01464,0,-0.00976,-0.0244,-0.00976,-0.02928,-0.00488,0.00488
-0.01952,0.01464,-0.00976,0,0.00976,-0.01464,0.00488,-0.00976,0,-0.00488,-0.00488,0.00488
-0.01464,0.00732,0,0.00732,0.01464,-0.01464,0.00976,-0.00488,0.00976,0,0,0.00488
-0.00976,0.00488,0,0.00488,0.00976,-0.00976,0.00488,0,0.00488,0,0.00976,0.00976
-0.00976,-0.00244,0.01464,0.01952,0.0244,-0.01708,0,0,0.00976,0.00976,0.01464,0.01464
-0.00488,-0.0122,0.02928,0.03172,0.03416,-0.01952,0,0.00488,0.01464,0.01464,0.0244,0.0244
-0.00488,-0.01464,0.03416,0.0366,0.03904,-0.02196,0,0.00488,0.0244,0.01464,0.0244,0.0244
-0.00488,-0.0122,0.02928,0.03172,0.03416,-0.01952,-0.00488,-0.00488,0.03416,0.01952,0.01464,0.01464
-0.00488,-0.01464,0.03416,0.0366,0.03904,-0.02196,-0.00488,0.00488,0.03904,0.01952,0.01952,0.01952
0,-0.01708,0.03416,0.03416,0.03416,-0.01708,-0.00976,-0.00488,0.03904,0.02928,0.03416,0.02928
0,-0.02196,0.04392,0.04392,0.04392,-0.02196,-0.02928,-0.0244,0.03416,0.02928,0.03416,0.03416
-0.00976,-0.02684,0.06344,0.06832,0.0732,-0.04148,-0.04392,-0.0488,0.01952,0.0244,0.03416,0.02928
0,-0.0366,0.0732,0.0732,0.0732,-0.0366,-0.06832,-0.05856,0.00976,0.0244,0.03416,0.02928
0.00488,-0.04148,0.07808,0.07564,0.0732,-0.03416,-0.08296,-0.0732,0.00488,0.02928,0.03904,0.04392
0.0244,-0.05124,0.07808,0.06588,0.05368,-0.01464,-0.0732,-0.05856,0.00976,0.03904,0.0488,0.05368
0.03904,-0.05368,0.06832,0.0488,0.02928,0.00488,-0.0732,-0.0488,0.00488,0.02928,0.05856,0.06344
0.03416,-0.05124,0.06832,0.05124,0.03416,0,-0.0732,-0.0488,0,0.0244,0.04392,0.05856
0.02928,-0.0488,0.06832,0.05368,0.03904,-0.00488,-0.05856,-0.0488,0,0.03416,0.04392,0.05856
0.02928,-0.04636,0.06344,0.0488,0.03416,-0.00244,-0.05856,-0.0488,0,0.0244,0.03904,0.05856
0.02928,-0.0366,0.04392,0.02928,0.01464,0.00732,-0.05856,-0.06832,-0.0244,-0.00488,0.01464,0.04392
0.01952,-0.0244,0.02928,0.01952,0.00976,0.00488,-0.06832,-0.0732,-0.0244,-0.01464,0.00976,0.03416
0.00976,-0.00976,0.00976,0.00488,0,0.00488,-0.06344,-0.06344,-0.0244,0,0.01952,0.02928
0,0.00488,-0.00976,-0.00976,-0.00976,0.00488,-0.05368,-0.06344,-0.01952,0,0.01464,0.01952
-0.01464,0.02196,-0.02928,-0.02196,-0.01464,0,-0.03416,-0.04392,-0.00976,-0.00488,0.00488,0.01464
-0.0244,0.02928,-0.03416,-0.02196,-0.00976,-0.00732,-0.02928,-0.03904,-0.01952,-0.01952,-0.00488,0.00488
-0.01952,0.0244,-0.02928,-0.01952,-0.00976,-0.00488,-0.02928,-0.0488,-0.02928,-0.03904,-0.01464,-0.00488
-0.01952,0.02928,-0.03904,-0.02928,-0.01952,0,-0.02928,-0.05368,-0.04392,-0.03904,-0.01952,-0.00976
-0.01952,0.03904,-0.05856,-0.0488,-0.03904,0.00976,-0.0244,-0.04392,-0.0488,-0.03416,-0.01952,0
-0.02928,0.0488,-0.06832,-0.05368,-0.03904,0.00488,-0.0244,-0.04392,-0.0488,-0.04392,-0.02928,0
-0.0244,0.04392,-0.06344,-0.05124,-0.03904,0.00732,-0.01464,-0.04392,-0.05856,-0.05368,-0.03904,-0.01464
-0.02928,0.0488,-0.06832,-0.05368,-0.03904,0.00488,-0.00488,-0.03904,-0.05856,-0.05368,-0.03416,-0.01464
-0.03904,0.05856,-0.07808,-0.05856,-0.03904,0,-0.00976,-0.03904,-0.05856,-0.05368,-0.03416,-0.00488
-0.04392,0.06588,-0.08784,-0.06588,-0.04392,0,0,-0.03416,-0.05368,-0.0488,-0.03416,-0.00488
-0.03904,0.061,-0.08296,-0.06344,-0.04392,0.00244,0.01464,-0.02928,-0.0488,-0.04392,-0.03416,-0.01464
-0.04392,0.06344,-0.08296,-0.061,-0.03904,-0.00244,0.00976,-0.02928,-0.0488,-0.04392,-0.03416,-0.01952
-0.04392,0.06832,-0.09272,-0.07076,-0.0488,0.00244,0.01952,-0.01952,-0.02928,-0.03416,-0.03416,-0.00976
-0.04392,0.061,-0.07808,-0.05612,-0.03416,-0.00488,0.02928,0,-0.02928,-0.02928,-0.0244,-0.00976
-0.05368,0.07564,-0.0976,-0.07076,-0.04392,-0.00488,0.0488,0.02928,0.0244,0.00976,-0.01464,-0.00976
-0.0488,0.07808,-0.10736,-0.08296,-0.05856,0.00488,0.09272,0.11224,0.12688,0.09272,0.02928,-0.01952
-0.01464,0.03904,-0.06344,-0.05612,-0.0488,0.01708,0.14152,0.20984,0.28304,0.27328,0.14152,0.03904
0.04392,-0.01464,-0.01464,-0.0366,-0.05856,0.05124,0.12688,0.22936,0.38552,0.488,0.35136,0.1464
0.10736,-0.07076,0.03416,-0.01952,-0.0732,0.09028,0.122,0.25376,0.4636,0.74664,0.62464,0.30256
0.20984,-0.18056,0.15128,0.04636,-0.05856,0.1342,0.06344,0.23424,0.4636,1.04432,1.0004,0.54656
0.35136,-0.35624,0.36112,0.18544,0.00976,0.1708,-0.16104,-0.0488,0.07808,1.1712,1.38592,0.87352
0.45384,-0.50264,0.55144,0.32452,0.0976,0.17812,-0.47824,-0.47336,-0.52216,1.06872,1.70312,1.16632
0.5368,-0.63928,0.74176,0.47336,0.20496,0.16592,-0.85888,-0.95648,-1.19072,0.84424,1.89832,1.40544
0.52704,-0.6588,0.79056,0.52704,0.26352,0.13176,-1.0736,-1.25416,-1.62504,0.64416,1.91296,1.464
0.4148,-0.51972,0.62464,0.41724,0.20984,0.10248,-1.05896,-1.30784,-1.75192,0.49288,1.60064,1.18584
0.25376,-0.22936,0.20496,0.07808,-0.0488,0.15128,-0.84424,-1.10776,-1.66896,0.20008,0.94672,0.70272
0.06344,0.02196,-0.10736,-0.13908,-0.1708,0.11712,-0.7564,-1.06872,-1.73728,-0.52216,0.03904,0.15616
-0.0244,0.13908,-0.25376,-0.24156,-0.22936,0.10248,-0.60024,-0.90768,-1.62504,-0.92232,-0.45872,-0.13664
-0.01464,0.1708,-0.32696,-0.31964,-0.31232,0.14884,-0.41968,-0.67832,-1.35664,-0.8784,-0.50264,-0.1952
0.00976,0.17324,-0.35624,-0.36112,-0.366,0.18788,-0.23424,-0.42944,-0.98576,-0.62952,-0.35136,-0.15616
-0.00976,0.1708,-0.33184,-0.32696,-0.32208,0.15616,-0.05856,-0.19032,-0.62464,-0.40016,-0.23912,-0.11224
-0.01952,0.13908,-0.25864,-0.24888,-0.23912,0.1098,0.06344,-0.03904,-0.35136,-0.20984,-0.1464,-0.0732
0.00488,0.1098,-0.22448,-0.22692,-0.22936,0.11712,0.08296,0.00976,-0.2196,-0.11712,-0.08784,-0.03904
0,0.09272,-0.18544,-0.18544,-0.18544,0.09272,0.09272,0.03416,-0.11712,-0.05368,-0.05368,-0.01952
0,0.08052,-0.16104,-0.16104,-0.16104,0.08052,0.10248,0.06832,-0.03416,-0.0244,-0.03904,-0.0244
-0.01464,0.08296,-0.15128,-0.14396,-0.13664,0.061,0.0976,0.08296,0.03904,0.01464,-0.02928,-0.01952
-0.0244,0.08296,-0.14152,-0.12932,-0.11712,0.04636,0.0732,0.08784,0.08296,0.03904,-0.02928,-0.01464
-0.0244,0.07564,-0.12688,-0.11468,-0.10248,0.03904,0.06344,0.0976,0.122,0.05856,-0.01952,-0.00976
-0.02928,0.07564,-0.122,-0.10736,-0.09272,0.03172,0.05856,0.10736,0.1464,0.06832,0,0
-0.02928,0.07564,-0.122,-0.10736,-0.09272,0.03172,0.0732,0.122,0.1708,0.08784,0.01464,0.00488
-0.01952,0.061,-0.10248,-0.09272,-0.08296,0.03172,0.07808,0.14152,0.1952,0.0976,0.01952,0.00976
-0.00976,0.05612,-0.10248,-0.0976,-0.09272,0.04148,0.10248,0.15616,0.20008,0.11224,0.0244,0.00976
-0.01952,0.05856,-0.0976,-0.08784,-0.07808,0.02928,0.10736,0.19032,0.20496,0.11224,0.03416,0.00488
-0.01464,0.05612,-0.0976,-0.09028,-0.08296,0.03416,0.122,0.22448,0.20984,0.122,0.03416,0.00488
-0.01464,0.05368,-0.09272,-0.0854,-0.07808,0.03172,0.13176,0.25376,0.20496,0.122,0.03904,0.00976
-0.01952,0.05612,-0.09272,-0.08296,-0.0732,0.02684,0.13664,0.25376,0.20496,0.122,0.03904,0.01952
-0.00488,0.04148,-0.07808,-0.07564,-0.0732,0.03416,0.15616,0.23912,0.22936,0.13176,0.0488,0.0244
0,0.0366,-0.0732,-0.0732,-0.0732,0.0366,0.1708,0.22448,0.25376,0.14152,0.05368,0.02928
0.00488,0.0366,-0.07808,-0.08052,-0.08296,0.04392,0.1708,0.21472,0.27328,0.15616,0.05856,0.03904
0.00488,0.0366,-0.07808,-0.08052,-0.08296,0.04392,0.16592,0.1952,0.28792,0.16104,0.05856,0.03904
0.00976,0.03416,-0.07808,-0.08296,-0.08784,0.0488,0.14152,0.1952,0.30744,0.17568,0.06832,0.03416
0.00976,0.03416,-0.07808,-0.08296,-0.08784,0.0488,0.122,0.1952,0.32208,0.18544,0.07808,0.03416
0.01952,0.02196,-0.06344,-0.0732,-0.08296,0.05124,0.11224,0.20984,0.33184,0.19032,0.08784,0.03904
0.01464,0.01708,-0.0488,-0.05612,-0.06344,0.03904,0.0976,0.21472,0.3416,0.20008,0.09272,0.04392
0.00976,0.0244,-0.05856,-0.06344,-0.06832,0.03904,0.08784,0.22448,0.35136,0.21472,0.10248,0.0488
0.01464,0.02684,-0.06832,-0.07564,-0.08296,0.0488,0.08784,0.22936,0.36112,0.22936,0.10248,0.0488
0.01464,0.02196,-0.05856,-0.06588,-0.0732,0.04392,0.10736,0.23912,0.37576,0.23912,0.10248,0.06344
