i,aVR,ii,aVF,iii,aVL,V1,V2,V3,V4,V5,V6
-0.03416,0.0366,-0.03904,-0.02196,-0.00488,-0.01464,0.00976,-0.01464,-0.06344,-0.10248,-0.06832,-0.04392
-0.0488,0.04392,-0.03904,-0.01464,0.00976,-0.02928,0.00976,-0.01464,-0.06344,-0.10248,-0.06832,-0.04392
-0.05856,0.05124,-0.04392,-0.01464,0.01464,-0.0366,0.00976,-0.01464,-0.06344,-0.10248,-0.06832,-0.04392
-0.04392,0.04392,-0.04392,-0.02196,0,-0.02196,0.00488,-0.01464,-0.06832,-0.10248,-0.07808,-0.04392
-0.02928,0.0366,-0.04392,-0.02928,-0.01464,-0.00732,0,-0.0244,-0.07808,-0.11224,-0.08784,-0.05368
-0.00976,0.02684,-0.04392,-0.03904,-0.03416,0.0122,-0.00976,-0.02928,-0.08296,-0.11712,-0.08784,-0.05368
0,0.02196,-0.04392,-0.04392,-0.04392,0.02196,-0.01464,-0.03416,-0.08784,-0.122,-0.08784,-0.05368
-0.00488,0.0244,-0.04392,-0.04148,-0.03904,0.01708,-0.00976,-0.03416,-0.08784,-0.122,-0.08784,-0.05368
-0.01464,0.0366,-0.05856,-0.05124,-0.04392,0.01464,-0.00488,-0.0244,-0.08296,-0.122,-0.08296,-0.0488
-0.02928,0.03416,-0.03904,-0.0244,-0.00976,-0.00976,0,-0.0244,-0.08296,-0.122,-0.08296,-0.0488
-0.03904,0.03172,-0.0244,-0.00488,0.01464,-0.02684,0.00488,-0.02928,-0.08296,-0.122,-0.08296,-0.0488
-0.04392,0.03904,-0.03416,-0.0122,0.00976,-0.02684,0.00488,-0.02928,-0.07808,-0.11712,-0.08296,-0.04392
-0.05368,0.0488,-0.04392,-0.01708,0.00976,-0.03172,0.00488,-0.02928,-0.07808,-0.11224,-0.08784,-0.03904
-0.03904,0.04392,-0.0488,-0.02928,-0.00976,-0.01464,0,-0.02928,-0.08296,-0.11712,-0.08784,-0.04392
-0.0244,0.03904,-0.05368,-0.04148,-0.02928,0.00244,0,-0.02928,-0.08296,-0.11712,-0.08784,-0.04392
-0.0244,0.0366,-0.0488,-0.0366,-0.0244,0,0.00488,-0.02928,-0.08784,-0.11712,-0.09272,-0.04392
-0.03416,0.0366,-0.03904,-0.02196,-0.00488,-0.01464,0.00488,-0.02928,-0.09272,-0.11712,-0.09272,-0.04392
-0.04392,0.04148,-0.03904,-0.01708,0.00488,-0.0244,0.00488,-0.02928,-0.08784,-0.122,-0.08784,-0.03904
-0.04392,0.04148,-0.03904,-0.01708,0.00488,-0.0244,0.00488,-0.02928,-0.08784,-0.12688,-0.08784,-0.03904
-0.03416,0.0366,-0.03904,-0.02196,-0.00488,-0.01464,0.00488,-0.04392,-0.09272,-0.12688,-0.09272,-0.0488
-0.01464,0.02684,-0.03904,-0.03172,-0.0244,0.00488,0,-0.05368,-0.09272,-0.13176,-0.09272,-0.05368
-0.01464,0.02928,-0.04392,-0.0366,-0.02928,0.00732,0,-0.04392,-0.0976,-0.13176,-0.09272,-0.05368
-0.01952,0.0366,-0.05368,-0.04392,-0.03416,0.00732,0,-0.03416,-0.0976,-0.13176,-0.09272,-0.05368
-0.02928,0.04148,-0.05368,-0.03904,-0.0244,-0.00244,0,-0.03416,-0.0976,-0.12688,-0.09272,-0.0488
-0.03904,0.04392,-0.0488,-0.02928,-0.00976,-0.01464,0,-0.03904,-0.10248,-0.12688,-0.0976,-0.0488
-0.03904,0.04636,-0.05368,-0.03416,-0.01464,-0.0122,0.00488,-0.03904,-0.10248,-0.12688,-0.0976,-0.0488
-0.03904,0.0488,-0.05856,-0.03904,-0.01952,-0.00976,0.00976,-0.03904,-0.10736,-0.12688,-0.0976,-0.0488
-0.03904,0.04392,-0.0488,-0.02928,-0.00976,-0.01464,0.00488,-0.03904,-0.10736,-0.12688,-0.0976,-0.0488
-0.03904,0.03904,-0.03904,-0.01952,0,-0.01952,0,-0.03904,-0.10736,-0.12688,-0.0976,-0.0488
-0.03904,0.03904,-0.03904,-0.01952,0,-0.01952,0,-0.03904,-0.10248,-0.12688,-0.09272,-0.0488
-0.03904,0.03904,-0.03904,-0.01952,0,-0.01952,0,-0.03904,-0.0976,-0.12688,-0.08784,-0.0488
-0.03904,0.04148,-0.04392,-0.0244,-0.00488,-0.01708,0,-0.03904,-0.0976,-0.12688,-0.08784,-0.0488
-0.03904,0.04392,-0.0488,-0.02928,-0.00976,-0.01464,0,-0.03904,-0.0976,-0.12688,-0.08784,-0.0488
-0.03416,0.04148,-0.0488,-0.03172,-0.01464,-0.00976,-0.00488,-0.04392,-0.10248,-0.12688,-0.09272,-0.05368
-0.02928,0.03904,-0.0488,-0.03416,-0.01952,-0.00488,-0.00976,-0.0488,-0.10736,-0.12688,-0.0976,-0.05856
-0.02928,0.03904,-0.0488,-0.03416,-0.01952,-0.00488,-0.00976,-0.0488,-0.10736,-0.12688,-0.0976,-0.05856
-0.02928,0.03904,-0.0488,-0.03416,-0.01952,-0.00488,-0.00976,-0.0488,-0.10736,-0.12688,-0.0976,-0.05856
-0.02928,0.03904,-0.0488,-0.03416,-0.01952,-0.00488,-0.00488,-0.04392,-0.10736,-0.12688,-0.0976,-0.05856
-0.02928,0.03904,-0.0488,-0.03416,-0.01952,-0.00488,0,-0.03904,-0.10736,-0.12688,-0.0976,-0.05856
-0.02928,0.03904,-0.0488,-0.03416,-0.01952,-0.00488,0,-0.03904,-0.10736,-0.13176,-0.0976,-0.05856
-0.02928,0.03904,-0.0488,-0.03416,-0.01952,-0.00488,0,-0.03904,-0.10736,-0.13664,-0.0976,-0.05856
-0.0244,0.0366,-0.0488,-0.0366,-0.0244,0,0,-0.04392,-0.10736,-0.13664,-0.0976,-0.05856
-0.01952,0.03416,-0.0488,-0.03904,-0.02928,0.00488,0,-0.0488,-0.10736,-0.13664,-0.0976,-0.05856
-0.01952,0.03416,-0.0488,-0.03904,-0.02928,0.00488,0,-0.0488,-0.10736,-0.13664,-0.0976,-0.05856
-0.01952,0.03416,-0.0488,-0.03904,-0.02928,0.00488,0,-0.0488,-0.10736,-0.13664,-0.0976,-0.05856
-0.01952,0.03416,-0.0488,-0.03904,-0.02928,0.00488,0,-0.0488,-0.10736,-0.13664,-0.0976,-0.05856
-0.01952,0.03416,-0.0488,-0.03904,-0.02928,0.00488,0,-0.0488,-0.10736,-0.13664,-0.0976,-0.05856
-0.01952,0.03416,-0.0488,-0.03904,-0.02928,0.00488,0,-0.0488,-0.10736,-0.13664,-0.0976,-0.05856
-0.01952,0.03416,-0.0488,-0.03904,-0.02928,0.00488,0,-0.0488,-0.10736,-0.13664,-0.0976,-0.05856
-0.0244,0.0366,-0.0488,-0.0366,-0.0244,0,0,-0.0488,-0.10736,-0.13176,-0.0976,-0.05856
-0.02928,0.03904,-0.0488,-0.03416,-0.01952,-0.00488,0,-0.0488,-0.10736,-0.12688,-0.0976,-0.05856
-0.02928,0.04148,-0.05368,-0.03904,-0.0244,-0.00244,0,-0.0488,-0.10736,-0.12688,-0.0976,-0.05856
-0.02928,0.04392,-0.05856,-0.04392,-0.02928,0,0,-0.0488,-0.10736,-0.12688,-0.0976,-0.05856
-0.02928,0.04392,-0.05856,-0.04392,-0.02928,0,0,-0.0488,-0.10736,-0.12688,-0.0976,-0.05856
-0.02928,0.04392,-0.05856,-0.04392,-0.02928,0,0,-0.0488,-0.10736,-0.12688,-0.0976,-0.05856
-0.03416,0.04636,-0.05856,-0.04148,-0.0244,-0.00488,0,-0.04392,-0.10736,-0.12688,-0.0976,-0.05856
-0.03904,0.0488,-0.05856,-0.03904,-0.01952,-0.00976,0,-0.03904,-0.10736,-0.12688,-0.0976,-0.05856
-0.03904,0.0488,-0.05856,-0.03904,-0.01952,-0.00976,0,-0.03904,-0.10736,-0.12688,-0.0976,-0.05856
-0.03904,0.0488,-0.05856,-0.03904,-0.01952,-0.00976,0,-0.03904,-0.10736,-0.12688,-0.0976,-0.05856
-0.04392,0.0488,-0.05368,-0.03172,-0.00976,-0.01708,0,-0.03904,-0.10248,-0.12688,-0.0976,-0.05856
-0.0488,0.0488,-0.0488,-0.0244,0,-0.0244,0,-0.03904,-0.0976,-0.12688,-0.0976,-0.05856
-0.0488,0.0488,-0.0488,-0.0244,0,-0.0244,0,-0.03904,-0.0976,-0.12688,-0.0976,-0.05856
-0.0488,0.0488,-0.0488,-0.0244,0,-0.0244,0,-0.03904,-0.0976,-0.12688,-0.0976,-0.05856
-0.03904,0.04392,-0.0488,-0.02928,-0.00976,-0.01464,0,-0.04392,-0.10248,-0.12688,-0.0976,-0.05856
-0.02928,0.03904,-0.0488,-0.03416,-0.01952,-0.00488,0,-0.0488,-0.10736,-0.12688,-0.0976,-0.05856
-0.01464,0.03172,-0.0488,-0.04148,-0.03416,0.00976,0,-0.0488,-0.10736,-0.13176,-0.0976,-0.05856
0,0.0244,-0.0488,-0.0488,-0.0488,0.0244,0,-0.0488,-0.10736,-0.13664,-0.0976,-0.05856
-0.01464,0.03172,-0.0488,-0.04148,-0.03416,0.00976,0,-0.0488,-0.10736,-0.13664,-0.0976,-0.05856
-0.02928,0.03904,-0.0488,-0.03416,-0.01952,-0.00488,0,-0.0488,-0.10736,-0.13664,-0.0976,-0.05856
-0.02928,0.03904,-0.0488,-0.03416,-0.01952,-0.00488,-0.00488,-0.0488,-0.10736,-0.13664,-0.0976,-0.05856
-0.02928,0.03904,-0.0488,-0.03416,-0.01952,-0.00488,-0.00976,-0.0488,-0.10736,-0.13664,-0.0976,-0.05856
-0.02928,0.0366,-0.04392,-0.02928,-0.01464,-0.00732,-0.00976,-0.0488,-0.10736,-0.13664,-0.0976,-0.05856
-0.02928,0.03416,-0.03904,-0.0244,-0.00976,-0.00976,-0.00976,-0.0488,-0.10736,-0.13664,-0.0976,-0.05856
-0.02928,0.03416,-0.03904,-0.0244,-0.00976,-0.00976,-0.00976,-0.0488,-0.10736,-0.13664,-0.0976,-0.05856
-0.02928,0.03416,-0.03904,-0.0244,-0.00976,-0.00976,-0.00976,-0.0488,-0.10736,-0.13664,-0.0976,-0.05856
-0.02928,0.03416,-0.03904,-0.0244,-0.00976,-0.00976,-0.00488,-0.0488,-0.10736,-0.13664,-0.0976,-0.05856
-0.02928,0.03416,-0.03904,-0.0244,-0.00976,-0.00976,0,-0.0488,-0.10736,-0.13664,-0.0976,-0.05856
-0.02928,0.0366,-0.04392,-0.02928,-0.01464,-0.00732,0,-0.0488,-0.10736,-0.13664,-0.0976,-0.05856
-0.02928,0.03904,-0.0488,-0.03416,-0.01952,-0.00488,0,-0.0488,-0.10736,-0.13664,-0.0976,-0.05856
-0.02928,0.03904,-0.0488,-0.03416,-0.01952,-0.00488,0,-0.0488,-0.10736,-0.13664,-0.0976,-0.05856
-0.02928,0.03904,-0.0488,-0.03416,-0.01952,-0.00488,0,-0.0488,-0.10736,-0.13664,-0.0976,-0.05856
-0.02928,0.03904,-0.0488,-0.03416,-0.01952,-0.00488,0,-0.0488,-0.10736,-0.13664,-0.0976,-0.05856
-0.02928,0.03904,-0.0488,-0.03416,-0.01952,-0.00488,0,-0.0488,-0.10736,-0.13664,-0.0976,-0.05856
-0.03416,0.04148,-0.0488,-0.03172,-0.01464,-0.00976,0,-0.0488,-0.10736,-0.13664,-0.0976,-0.05856
-0.03904,0.04392,-0.0488,-0.02928,-0.00976,-0.01464,0,-0.0488,-0.10736,-0.13664,-0.0976,-0.05856
-0.03904,0.04392,-0.0488,-0.02928,-0.00976,-0.01464,0,-0.0488,-0.10736,-0.13664,-0.0976,-0.05856
-0.03904,0.04392,-0.0488,-0.02928,-0.00976,-0.01464,0,-0.0488,-0.10736,-0.13664,-0.0976,-0.05856
-0.03904,0.04392,-0.0488,-0.02928,-0.00976,-0.01464,0,-0.0488,-0.10736,-0.13176,-0.0976,-0.05856
-0.03904,0.04392,-0.0488,-0.02928,-0.00976,-0.01464,0,-0.0488,-0.10736,-0.12688,-0.0976,-0.05856
-0.03904,0.04392,-0.0488,-0.02928,-0.00976,-0.01464,0,-0.0488,-0.10736,-0.12688,-0.0976,-0.05856
-0.03904,0.04392,-0.0488,-0.02928,-0.00976,-0.01464,0,-0.0488,-0.10736,-0.12688,-0.0976,-0.05856
-0.03416,0.04148,-0.0488,-0.03172,-0.01464,-0.00976,0,-0.0488,-0.10736,-0.12688,-0.0976,-0.05856
-0.02928,0.03904,-0.0488,-0.03416,-0.01952,-0.00488,0,-0.0488,-0.10736,-0.12688,-0.0976,-0.05856
-0.02928,0.03904,-0.0488,-0.03416,-0.01952,-0.00488,0,-0.0488,-0.10736,-0.12688,-0.0976,-0.05856
-0.02928,0.03904,-0.0488,-0.03416,-0.01952,-0.00488,0,-0.0488,-0.10736,-0.12688,-0.0976,-0.05856
-0.0244,0.0366,-0.0488,-0.0366,-0.0244,0,-0.00488,-0.0488,-0.11224,-0.13176,-0.0976,-0.06344
-0.01952,0.03416,-0.0488,-0.03904,-0.02928,0.00488,-0.00976,-0.0488,-0.11712,-0.13664,-0.0976,-0.06832
-0.01952,0.03416,-0.0488,-0.03904,-0.02928,0.00488,-0.00976,-0.0488,-0.11712,-0.13664,-0.0976,-0.06832
-0.01952,0.03416,-0.0488,-0.03904,-0.02928,0.00488,-0.00976,-0.0488,-0.11712,-0.13664,-0.0976,-0.06832
-0.0244,0.0366,-0.0488,-0.0366,-0.0244,0,-0.00488,-0.04392,-0.11224,-0.13664,-0.0976,-0.06832
-0.02928,0.03904,-0.0488,-0.03416,-0.01952,-0.00488,0,-0.03904,-0.10736,-0.13664,-0.0976,-0.06832
-0.02928,0.03904,-0.0488,-0.03416,-0.01952,-0.00488,0,-0.03904,-0.10736,-0.13664,-0.10248,-0.06832
-0.02928,0.03904,-0.0488,-0.03416,-0.01952,-0.00488,0,-0.03904,-0.10736,-0.13664,-0.10736,-0.06832
-0.0244,0.0366,-0.0488,-0.0366,-0.0244,0,0,-0.03904,-0.10736,-0.13664,-0.10736,-0.06832
-0.01952,0.03416,-0.0488,-0.03904,-0.02928,0.00488,0,-0.03904,-0.10736,-0.13664,-0.10736,-0.06832
-0.01952,0.03416,-0.0488,-0.03904,-0.02928,0.00488,0,-0.03904,-0.10248,-0.13176,-0.10248,-0.06344
-0.01952,0.03416,-0.0488,-0.03904,-0.02928,0.00488,0,-0.03904,-0.0976,-0.12688,-0.0976,-0.05856
-0.02928,0.03904,-0.0488,-0.03416,-0.01952,-0.00488,0,-0.03904,-0.0976,-0.12688,-0.0976,-0.05856
-0.03904,0.04392,-0.0488,-0.02928,-0.00976,-0.01464,0,-0.03904,-0.0976,-0.12688,-0.0976,-0.05856
-0.03904,0.04392,-0.0488,-0.02928,-0.00976,-0.01464,0,-0.03904,-0.0976,-0.12688,-0.0976,-0.05856
-0.03904,0.04392,-0.0488,-0.02928,-0.00976,-0.01464,0,-0.03904,-0.0976,-0.12688,-0.0976,-0.05856
-0.03416,0.03904,-0.04392,-0.02684,-0.00976,-0.0122,-0.00488,-0.04392,-0.10248,-0.13176,-0.0976,-0.06344
-0.02928,0.03416,-0.03904,-0.0244,-0.00976,-0.00976,-0.00976,-0.0488,-0.10736,-0.13664,-0.0976,-0.06832
-0.02928,0.03416,-0.03904,-0.0244,-0.00976,-0.00976,-0.00976,-0.0488,-0.10736,-0.13664,-0.0976,-0.06832
-0.02928,0.03416,-0.03904,-0.0244,-0.00976,-0.00976,-0.00976,-0.0488,-0.10736,-0.13664,-0.0976,-0.06832
-0.02928,0.03416,-0.03904,-0.0244,-0.00976,-0.00976,-0.00488,-0.0488,-0.10736,-0.13664,-0.0976,-0.06832
-0.0244,0.02684,-0.02928,-0.01708,-0.00488,-0.00976,0,-0.0488,-0.10736,-0.13664,-0.0976,-0.06832
-0.0244,0.0244,-0.0244,-0.0122,0,-0.0122,0,-0.0488,-0.10736,-0.14152,-0.0976,-0.06832
-0.01952,0.01952,-0.01952,-0.00976,0,-0.00976,0,-0.03904,-0.09272,-0.13176,-0.0976,-0.06832
-0.00976,0.01464,-0.01952,-0.01464,-0.00976,0,0,-0.02928,-0.08296,-0.122,-0.08296,-0.05856
0.00488,0,-0.00488,-0.00732,-0.00976,0.00732,0.00976,-0.00976,-0.05856,-0.10248,-0.06832,-0.0488
0.01464,0,-0.01464,-0.02196,-0.02928,0.02196,0.01464,0,-0.04392,-0.09272,-0.06344,-0.04392
0.01952,-0.00244,-0.01464,-0.0244,-0.03416,0.02684,0.01952,0.01464,-0.03416,-0.08296,-0.05368,-0.03416
0.03416,-0.01708,0,-0.01708,-0.03416,0.03416,0.01952,0.0244,-0.02928,-0.06832,-0.05368,-0.02928
0.05368,-0.04148,0.02928,0.00244,-0.0244,0.03904,0.01952,0.03416,-0.01952,-0.05368,-0.05368,-0.0244
0.06344,-0.0488,0.03416,0.00244,-0.02928,0.04636,0.01952,0.0488,0.00976,-0.03904,-0.03416,-0.00976
0.06344,-0.05124,0.03904,0.00732,-0.0244,0.04392,0.00976,0.06344,0.01952,-0.02928,-0.0244,-0.00488
0.0488,-0.04392,0.03904,0.01464,-0.00976,0.02928,-0.01464,0.0244,-0.00488,-0.05368,-0.03416,-0.01464
0.02928,-0.02684,0.0244,0.00976,-0.00488,0.01708,-0.03416,-0.0244,-0.04392,-0.08296,-0.05368,-0.0244
0.0244,-0.01464,0.00488,-0.00732,-0.01952,0.02196,-0.04392,-0.04392,-0.0732,-0.10248,-0.06344,-0.02928
0.0244,-0.00732,-0.00976,-0.02196,-0.03416,0.02928,-0.0488,-0.05368,-0.08296,-0.10736,-0.06344,-0.03416
0.01464,0.00488,-0.0244,-0.03172,-0.03904,0.02684,-0.03416,-0.04392,-0.08296,-0.10736,-0.06344,-0.02928
0.00488,0.01464,-0.03416,-0.0366,-0.03904,0.02196,-0.02928,-0.04392,-0.08296,-0.10736,-0.06344,-0.02928
-0.01952,0.03172,-0.04392,-0.03416,-0.0244,0.00244,-0.0244,-0.03904,-0.09272,-0.10736,-0.05856,-0.01952
-0.03416,0.03904,-0.04392,-0.02684,-0.00976,-0.0122,-0.01464,-0.03904,-0.0976,-0.11224,-0.06832,-0.01952
-0.03904,0.04148,-0.04392,-0.0244,-0.00488,-0.01708,-0.00488,-0.03904,-0.0976,-0.11224,-0.07808,-0.03416
-0.03904,0.04148,-0.04392,-0.0244,-0.00488,-0.01708,0.00488,-0.03904,-0.10248,-0.122,-0.08784,-0.0488
-0.0244,0.04148,-0.05856,-0.04636,-0.03416,0.00488,-0.00488,-0.05368,-0.11224,-0.13664,-0.10248,-0.06344
-0.00488,0.03172,-0.05856,-0.05612,-0.05368,0.0244,-0.00976,-0.0732,-0.12688,-0.15128,-0.11712,-0.07808
-0.01464,0.03904,-0.06344,-0.05612,-0.0488,0.01708,-0.00976,-0.0732,-0.12688,-0.15128,-0.11712,-0.07808
-0.0244,0.04392,-0.06344,-0.05124,-0.03904,0.00732,-0.01464,-0.07808,-0.13176,-0.15616,-0.11712,-0.0732
-0.03904,0.05124,-0.06344,-0.04392,-0.0244,-0.00732,-0.00976,-0.0732,-0.13176,-0.15128,-0.11224,-0.0732
-0.0488,0.05612,-0.06344,-0.03904,-0.01464,-0.01708,0,-0.06344,-0.13176,-0.1464,-0.10736,-0.0732
-0.0488,0.05612,-0.06344,-0.03904,-0.01464,-0.01708,0,-0.06344,-0.13176,-0.15128,-0.11224,-0.07808
-0.04392,0.05612,-0.06832,-0.04636,-0.0244,-0.00976,0,-0.06344,-0.13176,-0.15128,-0.11224,-0.07808
-0.03904,0.05368,-0.06832,-0.0488,-0.02928,-0.00488,0,-0.06832,-0.13176,-0.15128,-0.11712,-0.07808
-0.04392,0.05612,-0.06832,-0.04636,-0.0244,-0.00976,0,-0.06832,-0.13176,-0.15128,-0.122,-0.07808
-0.04392,0.05612,-0.06832,-0.04636,-0.0244,-0.00976,0.00488,-0.05856,-0.13176,-0.15128,-0.122,-0.07808
-0.03904,0.05368,-0.06832,-0.0488,-0.02928,-0.00488,0.00488,-0.05368,-0.13176,-0.15128,-0.122,-0.07808
-0.03904,0.05124,-0.06344,-0.04392,-0.0244,-0.00732,-0.00488,-0.06344,-0.13176,-0.16592,-0.12688,-0.08296
-0.04392,0.0488,-0.05368,-0.03172,-0.00976,-0.01708,-0.00488,-0.06344,-0.13176,-0.1708,-0.12688,-0.08296
-0.04392,0.0488,-0.05368,-0.03172,-0.00976,-0.01708,-0.00488,-0.06344,-0.13176,-0.16592,-0.12688,-0.08296
-0.04392,0.05124,-0.05856,-0.0366,-0.01464,-0.01464,-0.00488,-0.05856,-0.13176,-0.16104,-0.122,-0.07808
-0.05368,0.061,-0.06832,-0.04148,-0.01464,-0.01952,0,-0.05368,-0.13176,-0.15616,-0.122,-0.0732
-0.06344,0.06832,-0.0732,-0.04148,-0.00976,-0.02684,0,-0.05368,-0.12688,-0.15128,-0.122,-0.06832
-0.0732,0.06832,-0.06344,-0.02684,0.00976,-0.04148,0,-0.05368,-0.122,-0.1464,-0.11712,-0.06832
-0.07808,0.06588,-0.05368,-0.01464,0.0244,-0.05124,0.00488,-0.05368,-0.11712,-0.14152,-0.11712,-0.06832
-0.06832,0.06832,-0.06832,-0.03416,0,-0.03416,-0.00488,-0.06832,-0.14152,-0.15128,-0.10736,-0.06832
-0.05368,0.06832,-0.08296,-0.05612,-0.02928,-0.0122,0,-0.03904,-0.12688,-0.13664,-0.10248,-0.06832
-0.05368,0.08052,-0.10736,-0.08052,-0.05368,0,0.04392,0.06344,-0.0488,-0.13176,-0.14152,-0.0976
-0.03904,0.06344,-0.08784,-0.06832,-0.0488,0.00488,0.07808,0.14152,0.03416,-0.10248,-0.15128,-0.11712
0.01464,0.0244,-0.06344,-0.07076,-0.07808,0.04636,0.09272,0.25864,0.27328,0.07808,-0.06832,-0.08296
0.08296,-0.0488,0.01464,-0.02684,-0.06832,0.07564,0.08784,0.40016,0.61488,0.38552,0.09272,-0.00976
0.18544,-0.18056,0.17568,0.08296,-0.00976,0.0976,0.00976,0.42456,0.9028,0.73688,0.41968,0.17568
0.244,-0.29036,0.33672,0.21472,0.09272,0.07564,-0.06344,0.1952,0.6588,0.84424,0.65392,0.33672
0.22936,-0.47824,0.72712,0.61244,0.49776,-0.1342,-0.23424,-0.366,-0.08296,0.7808,0.94184,0.49776
0.1464,-0.53924,0.93208,0.85888,0.78568,-0.31964,-0.29768,-0.74664,-0.47336,0.78568,1.16144,0.58072
0.08784,-0.39528,0.70272,0.6588,0.61488,-0.26352,-0.22448,-0.69784,-0.5612,0.84424,1.30784,0.61976
0.03416,-0.22448,0.4148,0.39772,0.38064,-0.17324,-0.15128,-0.64416,-0.72224,0.61488,1.13216,0.55632
-0.05368,0.00244,0.0488,0.07564,0.10248,-0.07808,-0.08296,-0.64904,-0.88816,0.0732,0.4636,0.26352
-0.14152,0.17812,-0.21472,-0.14396,-0.0732,-0.03416,-0.02928,-0.67832,-1.10288,-0.60024,-0.22936,-0.01952
-0.18544,0.24644,-0.30744,-0.21472,-0.122,-0.03172,-0.01464,-0.61488,-1.13216,-0.79544,-0.3904,-0.10248
-0.19032,0.25864,-0.32696,-0.2318,-0.13664,-0.02684,0.04392,-0.47824,-0.99552,-0.75152,-0.40016,-0.13176
-0.14152,0.21228,-0.28304,-0.21228,-0.14152,0,0.01952,-0.28792,-0.68808,-0.50752,-0.30744,-0.11712
-0.0976,0.1586,-0.2196,-0.1708,-0.122,0.0122,0.0244,-0.13664,-0.45384,-0.34648,-0.244,-0.11712
-0.07808,0.10004,-0.122,-0.08296,-0.04392,-0.01708,-0.01464,-0.09272,-0.30256,-0.244,-0.15616,-0.07808
-0.0732,0.06832,-0.06344,-0.02684,0.00976,-0.04148,-0.0244,-0.0732,-0.19032,-0.17568,-0.0976,-0.04392
-0.0488,0.05124,-0.05368,-0.02928,-0.00488,-0.02196,-0.01952,-0.05856,-0.14152,-0.1464,-0.0976,-0.05368
-0.03416,0.03904,-0.04392,-0.02684,-0.00976,-0.0122,-0.00976,-0.04392,-0.10736,-0.12688,-0.0976,-0.05368
-0.03416,0.0366,-0.03904,-0.02196,-0.00488,-0.01464,0,-0.04392,-0.09272,-0.122,-0.0976,-0.05856
-0.03904,0.0366,-0.03416,-0.01464,0.00488,-0.02196,0,-0.03904,-0.08784,-0.11712,-0.09272,-0.05856
-0.03904,0.0366,-0.03416,-0.01464,0.00488,-0.02196,0.00976,-0.02928,-0.07808,-0.10736,-0.09272,-0.05856
-0.03904,0.0366,-0.03416,-0.01464,0.00488,-0.02196,0.00976,-0.0244,-0.06832,-0.10736,-0.09272,-0.05856
-0.03416,0.03172,-0.02928,-0.0122,0.00488,-0.01952,0.00488,-0.0244,-0.06344,-0.10248,-0.09272,-0.06344
-0.02928,0.02928,-0.02928,-0.01464,0,-0.01464,0.00488,-0.0244,-0.06344,-0.10248,-0.09272,-0.06344
-0.0244,0.02928,-0.03416,-0.02196,-0.00976,-0.00732,0.00976,-0.01952,-0.05368,-0.09272,-0.08784,-0.06344
-0.01952,0.02684,-0.03416,-0.0244,-0.01464,-0.00244,0.01464,-0.01952,-0.03904,-0.09272,-0.08784,-0.06344
-0.0244,0.0244,-0.0244,-0.0122,0,-0.0122,0.00976,-0.00976,-0.03904,-0.07808,-0.08784,-0.06344
-0.0244,0.0244,-0.0244,-0.0122,0,-0.0122,0.00976,0,-0.03416,-0.06832,-0.08784,-0.06344
-0.0244,0.02684,-0.02928,-0.01708,-0.00488,-0.00976,0.00976,-0.00488,-0.0244,-0.0732,-0.07808,-0.05856
-0.02928,0.02928,-0.02928,-0.01464,0,-0.01464,0.01464,-0.00976,-0.01952,-0.07808,-0.08296,-0.05368
-0.02928,0.02928,-0.02928,-0.01464,0,-0.01464,0.01952,-0.00488,-0.01464,-0.0732,-0.07808,-0.0488
-0.02928,0.02928,-0.02928,-0.01464,0,-0.01464,0.01952,-0.00488,-0.01464,-0.0732,-0.07808,-0.0488
-0.0244,0.02684,-0.02928,-0.01708,-0.00488,-0.00976,0.01464,-0.00488,-0.00976,-0.0732,-0.0732,-0.0488
-0.01464,0.01952,-0.0244,-0.01708,-0.00976,-0.00244,0.00976,-0.00488,-0.00976,-0.0732,-0.0732,-0.05368
-0.01464,0.01952,-0.0244,-0.01708,-0.00976,-0.00244,0.00976,-0.00488,-0.00976,-0.0732,-0.0732,-0.05368
-0.01464,0.01708,-0.01952,-0.0122,-0.00488,-0.00488,0.00976,-0.00488,-0.00976,-0.0732,-0.0732,-0.05368
-0.01952,0.01952,-0.01952,-0.00976,0,-0.00976,0.00976,0.00488,0,-0.06344,-0.06832,-0.0488
-0.02928,0.0244,-0.01952,-0.00488,0.00976,-0.01952,0.00976,0.01952,0,-0.05368,-0.06344,-0.03904
-0.03416,0.02684,-0.01952,-0.00244,0.01464,-0.0244,0.01464,0.01952,0.00488,-0.0488,-0.06344,-0.03416
-0.03416,0.02684,-0.01952,-0.00244,0.01464,-0.0244,0.01464,0.01952,0.00488,-0.04392,-0.05856,-0.03416
-0.0244,0.01952,-0.01464,-0.00244,0.00976,-0.01708,0.01464,0.01952,0.00976,-0.04392,-0.05856,-0.03904
-0.00976,0.0122,-0.01464,-0.00976,-0.00488,-0.00244,0.01464,0.01464,0.01464,-0.0488,-0.05368,-0.04392
-0.00976,0.01464,-0.01952,-0.01464,-0.00976,0,0.01464,0.01952,0.01952,-0.04392,-0.05368,-0.03904
0.00488,0.00732,-0.01952,-0.02196,-0.0244,0.01464,0.01464,0.01952,0.0244,-0.03904,-0.0488,-0.03904
-0.00488,0.00732,-0.00976,-0.00732,-0.00488,0,0.00976,0.01952,0.0244,-0.03416,-0.0488,-0.03904
-0.01464,0.01708,-0.01952,-0.0122,-0.00488,-0.00488,0.00976,0.01952,0.02928,-0.02928,-0.0488,-0.03904
-0.00976,0.01464,-0.01952,-0.01464,-0.00976,0,0.00976,0.01952,0.03416,-0.01952,-0.0488,-0.03904
0,0.00976,-0.01952,-0.01952,-0.01952,0.00976,0.00488,0.01952,0.03904,-0.01464,-0.04392,-0.02928
0.00976,0,-0.00976,-0.01464,-0.01952,0.01464,0,0.01952,0.03904,-0.01952,-0.03904,-0.02928
0.02928,-0.0122,-0.00488,-0.01952,-0.03416,0.03172,0,0.01952,0.04392,-0.01952,-0.03904,-0.02928
0.01464,-0.00488,-0.00488,-0.0122,-0.01952,0.01708,0,0.01952,0.04392,-0.01464,-0.03416,-0.02928
0.00976,-0.00244,-0.00488,-0.00976,-0.01464,0.0122,0,0.01952,0.0488,-0.00976,-0.02928,-0.02928
0.00488,0.00488,-0.01464,-0.01708,-0.01952,0.0122,-0.00488,0.0244,0.05856,0.00488,-0.0244,-0.0244
0,0.00976,-0.01952,-0.01952,-0.01952,0.00976,-0.00488,0.0244,0.06344,0.00976,-0.01952,-0.01952
0,0.00488,-0.00976,-0.00976,-0.00976,0.00488,-0.00488,0.02928,0.06832,0.01464,-0.01952,-0.01464
-0.00488,0,0.00488,0.00732,0.00976,-0.00732,-0.00488,0.02928,0.06832,0.01952,-0.01464,-0.01464
-0.00488,0,0.00488,0.00732,0.00976,-0.00732,-0.00976,0.03416,0.08296,0.03416,-0.00488,-0.01464
-0.00488,-0.00244,0.00976,0.0122,0.01464,-0.00976,-0.01464,0.04392,0.08784,0.03416,0.00488,-0.01464
-0.00488,-0.00732,0.01952,0.02196,0.0244,-0.01464,-0.00976,0.04392,0.09272,0.03904,0.00976,-0.00976
-0.00488,-0.0122,0.02928,0.03172,0.03416,-0.01952,-0.00976,0.04392,0.10736,0.04392,0.01952,-0.00488
0.00976,-0.01952,0.02928,0.0244,0.01952,-0.00488,-0.01952,0.04392,0.10736,0.0488,0.01952,-0.00488
0.00976,-0.01708,0.0244,0.01952,0.01464,-0.00244,-0.01952,0.04392,0.11712,0.05856,0.01952,-0.00488
0.02928,-0.02684,0.0244,0.00976,-0.00488,0.01708,-0.0244,0.04392,0.11224,0.05856,0.0244,-0.00488
0.04392,-0.0366,0.02928,0.00732,-0.01464,0.02928,-0.02928,0.03904,0.11224,0.05856,0.0244,0
0.04392,-0.03904,0.03416,0.0122,-0.00976,0.02684,-0.02928,0.04392,0.11712,0.06832,0.02928,0.00488
0.0488,-0.04392,0.03904,0.01464,-0.00976,0.02928,-0.02928,0.04392,0.12688,0.07808,0.03904,0.00488
0.03904,-0.04148,0.04392,0.0244,0.00488,0.01708,-0.03416,0.05856,0.1464,0.09272,0.05368,0.01464
0.02928,-0.03904,0.0488,0.03416,0.01952,0.00488,-0.02928,0.06344,0.16592,0.11224,0.06344,0.02928
0.03416,-0.04392,0.05368,0.0366,0.01952,0.00732,-0.03416,0.06832,0.16592,0.122,0.0732,0.03416
0.0488,-0.05368,0.05856,0.03416,0.00976,0.01952,-0.04392,0.06832,0.16592,0.12688,0.07808,0.03416
0.05856,-0.061,0.06344,0.03416,0.00488,0.02684,-0.04392,0.06344,0.17568,0.14152,0.08296,0.03416
0.06832,-0.06588,0.06344,0.02928,-0.00488,0.0366,-0.04392,0.06832,0.18544,0.15616,0.09272,0.03904
0.07808,-0.08296,0.08784,0.0488,0.00976,0.03416,-0.06344,0.06832,0.1952,0.16592,0.10248,0.0488
0.07808,-0.09028,0.10248,0.06344,0.0244,0.02684,-0.06832,0.07808,0.21472,0.17568,0.11712,0.05368
0.0732,-0.08784,0.10248,0.06588,0.02928,0.02196,-0.06832,0.08784,0.23912,0.20008,0.13664,0.06832
0.0732,-0.09028,0.10736,0.07076,0.03416,0.01952,-0.0732,0.0976,0.25376,0.22936,0.15128,0.07808
0.06344,-0.09028,0.11712,0.0854,0.05368,0.00488,-0.0732,0.10736,0.2684,0.24888,0.16592,0.08296
0.05856,-0.09028,0.122,0.09272,0.06344,-0.00244,-0.0732,0.122,0.2928,0.2684,0.19032,0.09272
0.06832,-0.10004,0.13176,0.0976,0.06344,0.00244,-0.07808,0.12688,0.3172,0.29768,0.20496,0.0976
0.07808,-0.1098,0.14152,0.10248,0.06344,0.00732,-0.07808,0.13176,0.3416,0.32696,0.2196,0.10248
0.08784,-0.11468,0.14152,0.0976,0.05368,0.01708,-0.08296,0.1464,0.36112,0.35624,0.24888,0.11224
0.10248,-0.122,0.14152,0.09028,0.03904,0.03172,-0.09272,0.15616,0.38552,0.38552,0.27328,0.122
0.11224,-0.13176,0.15128,0.09516,0.03904,0.0366,-0.10248,0.16592,0.4148,0.4148,0.28792,0.13176
0.12688,-0.1464,0.16592,0.10248,0.03904,0.04392,-0.10736,0.1708,0.4392,0.44408,0.31232,0.1464
0.13176,-0.15616,0.18056,0.11468,0.0488,0.04148,-0.10736,0.18544,0.45872,0.47336,0.33672,0.16104
0.15128,-0.1708,0.19032,0.11468,0.03904,0.05612,-0.10736,0.1952,0.48312,0.50752,0.36112,0.17568
0.16104,-0.18056,0.20008,0.11956,0.03904,0.061,-0.122,0.21472,0.50752,0.54168,0.38552,0.19032
0.16592,-0.19032,0.21472,0.13176,0.0488,0.05856,-0.13176,0.22448,0.5368,0.57096,0.40992,0.20008
0.15616,-0.19032,0.22448,0.1464,0.06832,0.04392,-0.13176,0.23912,0.5612,0.60512,0.4392,0.2196
0.16104,-0.20008,0.23912,0.1586,0.07808,0.04148,-0.14152,0.24888,0.5856,0.6344,0.45872,0.23424
0.18056,-0.21472,0.24888,0.1586,0.06832,0.05612,-0.14152,0.24888,0.60512,0.66368,0.48312,0.244
0.19032,-0.22204,0.25376,0.1586,0.06344,0.06344,-0.14152,0.26352,0.62464,0.69296,0.50752,0.25376
0.20496,-0.2318,0.25864,0.15616,0.05368,0.07564,-0.15128,0.2684,0.64904,0.72224,0.52216,0.26352
0.20984,-0.23424,0.25864,0.15372,0.0488,0.08052,-0.15128,0.2684,0.66856,0.74176,0.54656,0.27816
0.21472,-0.24156,0.2684,0.16104,0.05368,0.08052,-0.15128,0.2684,0.67832,0.76616,0.57096,0.2928
0.2196,-0.24644,0.27328,0.16348,0.05368,0.08296,-0.15616,0.26352,0.67832,0.77592,0.58072,0.29768
0.22448,-0.2562,0.28792,0.17568,0.06344,0.08052,-0.16104,0.25376,0.67832,0.7808,0.5856,0.2928
0.22448,-0.25864,0.2928,0.18056,0.06832,0.07808,-0.16592,0.244,0.66368,0.77104,0.58072,0.2928
0.21472,-0.25132,0.28792,0.18056,0.0732,0.07076,-0.15128,0.22936,0.63928,0.74664,0.57096,0.28792
0.1952,-0.23424,0.27328,0.17568,0.07808,0.05856,-0.14152,0.2196,0.61,0.71248,0.54168,0.27816
0.16592,-0.21472,0.26352,0.18056,0.0976,0.03416,-0.122,0.20496,0.57584,0.66368,0.49776,0.25864
0.15128,-0.19764,0.244,0.16836,0.09272,0.02928,-0.11224,0.18544,0.52704,0.59536,0.44896,0.22936
0.13176,-0.17568,0.2196,0.15372,0.08784,0.02196,-0.0976,0.1708,0.46848,0.53192,0.40016,0.20496
0.11224,-0.15128,0.19032,0.1342,0.07808,0.01708,-0.08784,0.1464,0.4148,0.4636,0.35136,0.18544
0.0976,-0.13176,0.16592,0.11712,0.06832,0.01464,-0.07808,0.12688,0.366,0.40016,0.2928,0.15616
0.07808,-0.10736,0.13664,0.0976,0.05856,0.00976,-0.06344,0.11224,0.31232,0.33672,0.24888,0.13664
0.07808,-0.10248,0.12688,0.08784,0.0488,0.01464,-0.05856,0.09272,0.24888,0.2684,0.20008,0.10248
0.06344,-0.08296,0.10248,0.07076,0.03904,0.0122,-0.0488,0.0732,0.20496,0.20008,0.15616,0.07808
0.0488,-0.06588,0.08296,0.05856,0.03416,0.00732,-0.03904,0.06344,0.1708,0.1708,0.11224,0.06344
0.03904,-0.0488,0.05856,0.03904,0.01952,0.00976,-0.02928,0.05368,0.13664,0.12688,0.07808,0.0488
0.03416,-0.04148,0.0488,0.03172,0.01464,0.00976,-0.02928,0.0244,0.07808,0.06832,0.03416,0.01464
0.02928,-0.03416,0.03904,0.0244,0.00976,0.00976,-0.01952,0.00976,0.0488,0.0244,0.01464,0
0.00976,-0.01708,0.0244,0.01952,0.01464,-0.00244,-0.01464,0.00976,0.03416,0.00976,0,-0.00976
0,-0.00732,0.01464,0.01464,0.01464,-0.00732,0,0.00976,0.02928,-0.00488,-0.01464,-0.01464
-0.01464,0.00488,0.00488,0.0122,0.01952,-0.01708,0.00488,0.00976,0.01464,-0.01952,-0.02928,-0.0244
-0.0244,0.01952,-0.01464,-0.00244,0.00976,-0.01708,0.00976,0.00976,0.00488,-0.03904,-0.04392,-0.03416
-0.01952,0.01952,-0.01952,-0.00976,0,-0.00976,0.00976,0,-0.00488,-0.05368,-0.05856,-0.04392
-0.00976,0.01708,-0.0244,-0.01952,-0.01464,0.00244,0.00488,-0.00488,-0.01464,-0.06832,-0.06832,-0.04392
0,0.0122,-0.0244,-0.0244,-0.0244,0.0122,0.00488,-0.00488,-0.0244,-0.08296,-0.0732,-0.04392
-0.00488,0.01464,-0.0244,-0.02196,-0.01952,0.00732,0.00976,0,-0.02928,-0.09272,-0.07808,-0.0488
-0.03904,0.0366,-0.03416,-0.01464,0.00488,-0.02196,0.01464,0,-0.0244,-0.08296,-0.08296,-0.0488
-0.05856,0.0488,-0.03904,-0.00976,0.01952,-0.03904,0.01952,0,-0.0244,-0.0732,-0.08296,-0.0488
-0.0488,0.04392,-0.03904,-0.01464,0.00976,-0.02928,0.01952,0,-0.02928,-0.0732,-0.08296,-0.0488
-0.04392,0.03904,-0.03416,-0.0122,0.00976,-0.02684,0.01464,0,-0.02928,-0.07808,-0.08784,-0.05368
-0.01952,0.02684,-0.03416,-0.0244,-0.01464,-0.00244,0.01464,-0.00976,-0.03416,-0.08296,-0.09272,-0.05856
0,0.01708,-0.03416,-0.03416,-0.03416,0.01708,0.01464,-0.01952,-0.03904,-0.08296,-0.0976,-0.06344
-0.01464,0.02196,-0.02928,-0.02196,-0.01464,0,0.01952,-0.01464,-0.03416,-0.08296,-0.09272,-0.05856
-0.03416,0.03172,-0.02928,-0.0122,0.00488,-0.01952,0.01952,-0.01464,-0.03416,-0.08296,-0.09272,-0.05856
-0.03416,0.03172,-0.02928,-0.0122,0.00488,-0.01952,0.01952,-0.00976,-0.03416,-0.07808,-0.08784,-0.05856
-0.02928,0.02928,-0.02928,-0.01464,0,-0.01464,0.01952,-0.00488,-0.03416,-0.07808,-0.08784,-0.05856
-0.02928,0.02684,-0.0244,-0.00976,0.00488,-0.01708,0.01952,-0.00488,-0.03416,-0.07808,-0.08784,-0.05856
-0.0244,0.02196,-0.01952,-0.00732,0.00488,-0.01464,0.01464,-0.00976,-0.03416,-0.07808,-0.08784,-0.05856
-0.0244,0.02196,-0.01952,-0.00732,0.00488,-0.01464,0.01464,-0.00976,-0.02928,-0.0732,-0.08296,-0.05368
-0.02928,0.0244,-0.01952,-0.00488,0.00976,-0.01952,0.01464,-0.00976,-0.0244,-0.06832,-0.07808,-0.0488
-0.02928,0.0244,-0.01952,-0.00488,0.00976,-0.01952,0.00976,-0.00976,-0.02928,-0.0732,-0.07808,-0.0488
-0.02928,0.0244,-0.01952,-0.00488,0.00976,-0.01952,0.00976,-0.00976,-0.02928,-0.0732,-0.07808,-0.0488
-0.01952,0.01952,-0.01952,-0.00976,0,-0.00976,0.00976,-0.00976,-0.0244,-0.07808,-0.07808,-0.0488
-0.00976,0.01464,-0.01952,-0.01464,-0.00976,0,0.00976,-0.00976,-0.0244,-0.07808,-0.0732,-0.04392
-0.00976,0.01464,-0.01952,-0.01464,-0.00976,0,0.00976,-0.00976,-0.0244,-0.07808,-0.0732,-0.04392
-0.01464,0.01708,-0.01952,-0.0122,-0.00488,-0.00488,0.00976,-0.00976,-0.02928,-0.07808,-0.0732,-0.04392
-0.01952,0.01708,-0.01464,-0.00488,0.00488,-0.0122,0.00976,-0.00976,-0.02928,-0.07808,-0.0732,-0.04392
-0.0244,0.01708,-0.00976,0.00244,0.01464,-0.01952,0.00976,-0.00976,-0.02928,-0.0732,-0.06832,-0.03904
-0.0244,0.01464,-0.00488,0.00732,0.01952,-0.02196,0.00976,-0.01464,-0.02928,-0.0732,-0.0732,-0.03904
-0.0244,0.01464,-0.00488,0.00732,0.01952,-0.02196,0.00976,-0.01952,-0.02928,-0.0732,-0.0732,-0.03904
-0.01952,0.0122,-0.00488,0.00488,0.01464,-0.01708,0.00488,-0.0244,-0.03416,-0.07808,-0.0732,-0.04392
-0.00976,0.00732,-0.00488,0,0.00488,-0.00732,0,-0.0244,-0.03904,-0.08784,-0.0732,-0.0488
-0.00488,0.00488,-0.00488,-0.00244,0,-0.00244,0,-0.0244,-0.04392,-0.08784,-0.07808,-0.0488
-0.00488,0.00732,-0.00976,-0.00732,-0.00488,0,0,-0.0244,-0.04392,-0.08784,-0.07808,-0.0488
-0.00488,0.00732,-0.00976,-0.00732,-0.00488,0,0,-0.01952,-0.04392,-0.08296,-0.07808,-0.0488
-0.00488,0.00976,-0.01464,-0.0122,-0.00976,0.00244,0.00488,-0.01464,-0.04392,-0.07808,-0.0732,-0.0488
-0.01464,0.01708,-0.01952,-0.0122,-0.00488,-0.00488,0.01464,-0.00976,-0.03904,-0.08296,-0.06344,-0.03904
-0.0244,0.02196,-0.01952,-0.00732,0.00488,-0.01464,0.01952,-0.00976,-0.03904,-0.08296,-0.05856,-0.03416
-0.02928,0.0244,-0.01952,-0.00488,0.00976,-0.01952,0.01464,-0.00976,-0.03904,-0.08296,-0.05856,-0.03416
-0.03416,0.02684,-0.01952,-0.00244,0.01464,-0.0244,0.01464,-0.01464,-0.04392,-0.08296,-0.06344,-0.02928
-0.03416,0.02928,-0.0244,-0.00732,0.00976,-0.02196,0.00976,-0.01952,-0.0488,-0.08784,-0.06832,-0.03416
-0.03416,0.02928,-0.0244,-0.00732,0.00976,-0.02196,0.00976,-0.0244,-0.05856,-0.09272,-0.07808,-0.04392
-0.01464,0.01952,-0.0244,-0.01708,-0.00976,-0.00244,0.00976,-0.0244,-0.05856,-0.0976,-0.07808,-0.04392
0,0.0122,-0.0244,-0.0244,-0.0244,0.0122,0.00976,-0.0244,-0.05856,-0.0976,-0.08296,-0.04392
-0.01464,0.01952,-0.0244,-0.01708,-0.00976,-0.00244,0.00976,-0.0244,-0.06344,-0.0976,-0.08296,-0.04392
-0.0244,0.02684,-0.02928,-0.01708,-0.00488,-0.00976,0.00976,-0.0244,-0.06344,-0.09272,-0.07808,-0.04392
-0.03904,0.03172,-0.0244,-0.00488,0.01464,-0.02684,0.01464,-0.01952,-0.06344,-0.09272,-0.07808,-0.04392
-0.0488,0.0366,-0.0244,0,0.0244,-0.0366,0.01952,-0.01464,-0.06344,-0.09272,-0.07808,-0.04392
-0.03904,0.02928,-0.01952,0,0.01952,-0.02928,0.01952,-0.01464,-0.06832,-0.09272,-0.08296,-0.04392
-0.02928,0.02196,-0.01464,0,0.01464,-0.02196,0.01952,-0.0244,-0.07808,-0.10248,-0.08784,-0.05368
0.00488,0.00488,-0.01464,-0.01708,-0.01952,0.0122,0.00488,-0.03416,-0.08296,-0.11224,-0.09272,-0.05856
0.02928,-0.00732,-0.01464,-0.02928,-0.04392,0.0366,-0.00488,-0.04392,-0.08784,-0.122,-0.0976,-0.06344
0.01464,0.00488,-0.0244,-0.03172,-0.03904,0.02684,0,-0.04392,-0.08784,-0.122,-0.0976,-0.06344
-0.00488,0.02684,-0.0488,-0.04636,-0.04392,0.01952,0.00488,-0.03416,-0.08296,-0.122,-0.09272,-0.05856
-0.01952,0.02928,-0.03904,-0.02928,-0.01952,0,0.00976,-0.02928,-0.08296,-0.11712,-0.08784,-0.05368
-0.02928,0.03172,-0.03416,-0.01952,-0.00488,-0.0122,0.01464,-0.02928,-0.08296,-0.11224,-0.08296,-0.0488
-0.0244,0.02928,-0.03416,-0.02196,-0.00976,-0.00732,0.01464,-0.02928,-0.07808,-0.11224,-0.08296,-0.0488
-0.0244,0.02928,-0.03416,-0.02196,-0.00976,-0.00732,0.01464,-0.02928,-0.07808,-0.11224,-0.08784,-0.0488
-0.01952,0.02928,-0.03904,-0.02928,-0.01952,0,0.00976,-0.02928,-0.08296,-0.11712,-0.08784,-0.0488
-0.01464,0.02928,-0.04392,-0.0366,-0.02928,0.00732,0.00976,-0.02928,-0.08296,-0.11712,-0.08784,-0.04392
-0.01952,0.03172,-0.04392,-0.03416,-0.0244,0.00244,0.01464,-0.02928,-0.08296,-0.11712,-0.08784,-0.04392
-0.03416,0.0366,-0.03904,-0.02196,-0.00488,-0.01464,0.01464,-0.02928,-0.08296,-0.11712,-0.08296,-0.04392
-0.05368,0.04636,-0.03904,-0.0122,0.01464,-0.03416,0.01464,-0.02928,-0.07808,-0.11712,-0.07808,-0.03904
-0.06344,0.05124,-0.03904,-0.00732,0.0244,-0.04392,0.01464,-0.02928,-0.07808,-0.11712,-0.07808,-0.03904
-0.0488,0.04148,-0.03416,-0.00976,0.01464,-0.03172,0.01464,-0.03904,-0.08784,-0.11712,-0.08784,-0.0488
-0.0244,0.02684,-0.02928,-0.01708,-0.00488,-0.00976,0.00976,-0.04392,-0.09272,-0.122,-0.09272,-0.05368
-0.0244,0.02684,-0.02928,-0.01708,-0.00488,-0.00976,0.00488,-0.04392,-0.0976,-0.122,-0.0976,-0.05368
-0.02928,0.03172,-0.03416,-0.01952,-0.00488,-0.0122,0,-0.04392,-0.0976,-0.122,-0.10248,-0.05368
-0.0244,0.02928,-0.03416,-0.02196,-0.00976,-0.00732,0,-0.03904,-0.0976,-0.122,-0.10248,-0.05368
-0.01952,0.0244,-0.02928,-0.01952,-0.00976,-0.00488,0,-0.03904,-0.10248,-0.12688,-0.10736,-0.05856
-0.01952,0.02684,-0.03416,-0.0244,-0.01464,-0.00244,0.00488,-0.03904,-0.0976,-0.12688,-0.10248,-0.05856
-0.01952,0.02928,-0.03904,-0.02928,-0.01952,0,0.00976,-0.03904,-0.0976,-0.12688,-0.0976,-0.05856
-0.01952,0.02928,-0.03904,-0.02928,-0.01952,0,0.00976,-0.03904,-0.0976,-0.12688,-0.0976,-0.05856
-0.01952,0.02928,-0.03904,-0.02928,-0.01952,0,0.00976,-0.03904,-0.0976,-0.12688,-0.0976,-0.05856
-0.01952,0.02928,-0.03904,-0.02928,-0.01952,0,0.00976,-0.03904,-0.0976,-0.12688,-0.0976,-0.05856
-0.01952,0.02928,-0.03904,-0.02928,-0.01952,0,0.00976,-0.03904,-0.0976,-0.12688,-0.0976,-0.05856
-0.01952,0.02928,-0.03904,-0.02928,-0.01952,0,0.00976,-0.03416,-0.0976,-0.122,-0.09272,-0.05368
-0.01952,0.02928,-0.03904,-0.02928,-0.01952,0,0.00976,-0.02928,-0.0976,-0.11712,-0.08784,-0.0488
-0.0244,0.0366,-0.0488,-0.0366,-0.0244,0,0.00976,-0.02928,-0.0976,-0.11712,-0.08784,-0.0488
-0.02928,0.04392,-0.05856,-0.04392,-0.02928,0,0.00976,-0.02928,-0.0976,-0.11712,-0.08784,-0.0488
-0.02928,0.03904,-0.0488,-0.03416,-0.01952,-0.00488,0.00976,-0.03416,-0.0976,-0.122,-0.08784,-0.05368
-0.02928,0.03416,-0.03904,-0.0244,-0.00976,-0.00976,0.00976,-0.03904,-0.0976,-0.12688,-0.08784,-0.05856
-0.03416,0.0366,-0.03904,-0.02196,-0.00488,-0.01464,0.01464,-0.03904,-0.0976,-0.12688,-0.08784,-0.05856
-0.03904,0.03904,-0.03904,-0.01952,0,-0.01952,0.01952,-0.03904,-0.0976,-0.12688,-0.08784,-0.05856
-0.05368,0.04636,-0.03904,-0.0122,0.01464,-0.03416,0.01952,-0.03904,-0.0976,-0.12688,-0.08784,-0.05856
-0.06832,0.05368,-0.03904,-0.00488,0.02928,-0.0488,0.01952,-0.03904,-0.0976,-0.12688,-0.08784,-0.05856
-0.0488,0.04392,-0.03904,-0.01464,0.00976,-0.02928,0.01952,-0.03904,-0.0976,-0.12688,-0.09272,-0.05856
-0.02928,0.03416,-0.03904,-0.0244,-0.00976,-0.00976,0.01952,-0.03904,-0.0976,-0.12688,-0.0976,-0.05856
-0.01952,0.02928,-0.03904,-0.02928,-0.01952,0,0.01464,-0.04392,-0.10248,-0.13176,-0.10248,-0.05856
-0.00976,0.0244,-0.03904,-0.03416,-0.02928,0.00976,0.00976,-0.0488,-0.10736,-0.13664,-0.10736,-0.05856
-0.00976,0.01952,-0.02928,-0.0244,-0.01952,0.00488,0.00976,-0.0488,-0.10736,-0.13664,-0.10736,-0.05856
-0.00976,0.01464,-0.01952,-0.01464,-0.00976,0,0.00976,-0.0488,-0.10736,-0.13664,-0.10736,-0.05856
-0.01952,0.0244,-0.02928,-0.01952,-0.00976,-0.00488,0.00976,-0.04392,-0.10248,-0.13176,-0.0976,-0.05856
-0.02928,0.03416,-0.03904,-0.0244,-0.00976,-0.00976,0.00976,-0.03904,-0.0976,-0.12688,-0.08784,-0.05856
-0.02928,0.03904,-0.0488,-0.03416,-0.01952,-0.00488,0.01464,-0.03904,-0.0976,-0.12688,-0.08784,-0.05856
-0.02928,0.04392,-0.05856,-0.04392,-0.02928,0,0.01952,-0.03904,-0.0976,-0.12688,-0.08784,-0.05856
-0.02928,0.04392,-0.05856,-0.04392,-0.02928,0,0.01952,-0.03904,-0.0976,-0.12688,-0.08784,-0.05856
-0.02928,0.04392,-0.05856,-0.04392,-0.02928,0,0.01952,-0.03904,-0.0976,-0.12688,-0.08784,-0.05856
-0.02928,0.03904,-0.0488,-0.03416,-0.01952,-0.00488,0.01952,-0.03904,-0.10248,-0.12688,-0.09272,-0.05856
-0.02928,0.03416,-0.03904,-0.0244,-0.00976,-0.00976,0.01952,-0.03904,-0.10736,-0.12688,-0.0976,-0.05856
-0.02928,0.03416,-0.03904,-0.0244,-0.00976,-0.00976,0.01952,-0.03904,-0.10736,-0.12688,-0.0976,-0.05856
-0.02928,0.03416,-0.03904,-0.0244,-0.00976,-0.00976,0.01952,-0.03904,-0.10736,-0.12688,-0.0976,-0.05856
-0.03904,0.03904,-0.03904,-0.01952,0,-0.01952,0.01952,-0.03416,-0.10248,-0.12688,-0.09272,-0.05368
-0.0488,0.04392,-0.03904,-0.01464,0.00976,-0.02928,0.01952,-0.02928,-0.0976,-0.12688,-0.08784,-0.0488
-0.0488,0.04392,-0.03904,-0.01464,0.00976,-0.02928,0.01952,-0.02928,-0.0976,-0.12688,-0.08784,-0.0488
-0.0488,0.04392,-0.03904,-0.01464,0.00976,-0.02928,0.01952,-0.02928,-0.0976,-0.12688,-0.08784,-0.0488
-0.02928,0.03416,-0.03904,-0.0244,-0.00976,-0.00976,0.01464,-0.03416,-0.10248,-0.13176,-0.09272,-0.05368
-0.00976,0.0244,-0.03904,-0.03416,-0.02928,0.00976,0.00976,-0.03904,-0.10736,-0.13664,-0.0976,-0.05856
-0.00976,0.0244,-0.03904,-0.03416,-0.02928,0.00976,0.00976,-0.03904,-0.11224,-0.13664,-0.0976,-0.05856
-0.00976,0.0244,-0.03904,-0.03416,-0.02928,0.00976,0.00976,-0.03904,-0.11712,-0.13664,-0.0976,-0.05856
-0.01464,0.02928,-0.04392,-0.0366,-0.02928,0.00732,0.00976,-0.03904,-0.11712,-0.13664,-0.0976,-0.05856
-0.01952,0.03416,-0.0488,-0.03904,-0.02928,0.00488,0.00976,-0.03904,-0.11712,-0.13664,-0.0976,-0.05856
-0.02928,0.03904,-0.0488,-0.03416,-0.01952,-0.00488,0.01464,-0.03904,-0.10736,-0.13176,-0.09272,-0.05368
-0.03904,0.04392,-0.0488,-0.02928,-0.00976,-0.01464,0.01952,-0.03904,-0.0976,-0.12688,-0.08784,-0.0488
-0.03904,0.04392,-0.0488,-0.02928,-0.00976,-0.01464,0.01952,-0.03904,-0.0976,-0.12688,-0.08784,-0.0488
-0.03904,0.04392,-0.0488,-0.02928,-0.00976,-0.01464,0.01952,-0.03904,-0.0976,-0.12688,-0.08784,-0.0488
-0.03416,0.04148,-0.0488,-0.03172,-0.01464,-0.00976,0.01952,-0.04392,-0.10248,-0.12688,-0.09272,-0.0488
-0.02928,0.03904,-0.0488,-0.03416,-0.01952,-0.00488,0.01952,-0.0488,-0.10736,-0.12688,-0.0976,-0.0488
-0.02928,0.03904,-0.0488,-0.03416,-0.01952,-0.00488,0.01952,-0.0488,-0.10736,-0.12688,-0.0976,-0.0488
-0.02928,0.03904,-0.0488,-0.03416,-0.01952,-0.00488,0.01952,-0.0488,-0.10736,-0.12688,-0.0976,-0.0488
-0.03904,0.04392,-0.0488,-0.02928,-0.00976,-0.01464,0.01952,-0.03904,-0.10736,-0.12688,-0.0976,-0.0488
-0.0488,0.0488,-0.0488,-0.0244,0,-0.0244,0.01952,-0.02928,-0.10736,-0.12688,-0.0976,-0.0488
-0.03904,0.04148,-0.04392,-0.0244,-0.00488,-0.01708,0.01464,-0.03904,-0.10736,-0.12688,-0.0976,-0.05368
-0.02928,0.03416,-0.03904,-0.0244,-0.00976,-0.00976,0.00976,-0.0488,-0.10736,-0.12688,-0.0976,-0.05856
-0.02928,0.03416,-0.03904,-0.0244,-0.00976,-0.00976,0.00976,-0.0488,-0.10736,-0.12688,-0.0976,-0.05856
-0.02928,0.03416,-0.03904,-0.0244,-0.00976,-0.00976,0.00976,-0.0488,-0.10736,-0.12688,-0.0976,-0.05856
-0.02928,0.0366,-0.04392,-0.02928,-0.01464,-0.00732,0.00976,-0.0488,-0.10736,-0.12688,-0.0976,-0.05856
-0.02928,0.03904,-0.0488,-0.03416,-0.01952,-0.00488,0.00976,-0.0488,-0.10736,-0.12688,-0.0976,-0.05856
-0.0244,0.0366,-0.0488,-0.0366,-0.0244,0,0.00976,-0.0488,-0.10736,-0.12688,-0.0976,-0.05856
-0.01952,0.03416,-0.0488,-0.03904,-0.02928,0.00488,0.00976,-0.0488,-0.10736,-0.12688,-0.0976,-0.05856
-0.01952,0.03416,-0.0488,-0.03904,-0.02928,0.00488,0.00976,-0.0488,-0.10736,-0.12688,-0.0976,-0.05856
-0.01952,0.03416,-0.0488,-0.03904,-0.02928,0.00488,0.00976,-0.0488,-0.10736,-0.12688,-0.0976,-0.05856
-0.0244,0.03172,-0.03904,-0.02684,-0.01464,-0.00488,0.00976,-0.0488,-0.10736,-0.12688,-0.0976,-0.05856
-0.02928,0.02928,-0.02928,-0.01464,0,-0.01464,0.00976,-0.0488,-0.10736,-0.12688,-0.0976,-0.05856
-0.02928,0.03416,-0.03904,-0.0244,-0.00976,-0.00976,0.01464,-0.0488,-0.10736,-0.12688,-0.0976,-0.05856
-0.02928,0.03904,-0.0488,-0.03416,-0.01952,-0.00488,0.01952,-0.0488,-0.10736,-0.12688,-0.0976,-0.05856
-0.03416,0.04148,-0.0488,-0.03172,-0.01464,-0.00976,0.01952,-0.0488,-0.10736,-0.12688,-0.0976,-0.05856
-0.03904,0.04392,-0.0488,-0.02928,-0.00976,-0.01464,0.01952,-0.0488,-0.10736,-0.12688,-0.0976,-0.05856
-0.04392,0.04636,-0.0488,-0.02684,-0.00488,-0.01952,0.01952,-0.04392,-0.10736,-0.12688,-0.09272,-0.05368
-0.0488,0.0488,-0.0488,-0.0244,0,-0.0244,0.01952,-0.03904,-0.10736,-0.12688,-0.08784,-0.0488
-0.0488,0.0488,-0.0488,-0.0244,0,-0.0244,0.01952,-0.03904,-0.0976,-0.12688,-0.08784,-0.0488
-0.0488,0.0488,-0.0488,-0.0244,0,-0.0244,0.01952,-0.03904,-0.08784,-0.12688,-0.08784,-0.0488
-0.0488,0.04636,-0.04392,-0.01952,0.00488,-0.02684,0.01464,-0.03904,-0.0976,-0.12688,-0.0976,-0.05368
-0.0488,0.04392,-0.03904,-0.01464,0.00976,-0.02928,0.00976,-0.03904,-0.10736,-0.12688,-0.10736,-0.05856
-0.02928,0.03416,-0.03904,-0.0244,-0.00976,-0.00976,0.00976,-0.03904,-0.10736,-0.13176,-0.10736,-0.05856
-0.00976,0.0244,-0.03904,-0.03416,-0.02928,0.00976,0.00976,-0.03904,-0.10736,-0.13664,-0.10736,-0.05856
-0.01952,0.03172,-0.04392,-0.03416,-0.0244,0.00244,0.00976,-0.03904,-0.10736,-0.13664,-0.10248,-0.05856
-0.02928,0.03904,-0.0488,-0.03416,-0.01952,-0.00488,0.00976,-0.03904,-0.10736,-0.13664,-0.0976,-0.05856
-0.02928,0.03904,-0.0488,-0.03416,-0.01952,-0.00488,0.00976,-0.04392,-0.10736,-0.13664,-0.0976,-0.05856
-0.02928,0.03904,-0.0488,-0.03416,-0.01952,-0.00488,0.00976,-0.0488,-0.10736,-0.13664,-0.0976,-0.05856
-0.0244,0.03416,-0.04392,-0.03172,-0.01952,-0.00244,0.00976,-0.0488,-0.10736,-0.13664,-0.0976,-0.05856
-0.01952,0.02928,-0.03904,-0.02928,-0.01952,0,0.00976,-0.0488,-0.10736,-0.13664,-0.0976,-0.05856
-0.01952,0.02928,-0.03904,-0.02928,-0.01952,0,0.00976,-0.0488,-0.10736,-0.13664,-0.0976,-0.05856
-0.01952,0.02928,-0.03904,-0.02928,-0.01952,0,0.00976,-0.0488,-0.10736,-0.13664,-0.0976,-0.05856
-0.0244,0.03416,-0.04392,-0.03172,-0.01952,-0.00244,0.01464,-0.0488,-0.10736,-0.13176,-0.0976,-0.05856
-0.02928,0.03904,-0.0488,-0.03416,-0.01952,-0.00488,0.01952,-0.0488,-0.10736,-0.12688,-0.0976,-0.05856
-0.03416,0.04148,-0.0488,-0.03172,-0.01464,-0.00976,0.01952,-0.0488,-0.10736,-0.12688,-0.0976,-0.05856
-0.03904,0.04392,-0.0488,-0.02928,-0.00976,-0.01464,0.01952,-0.0488,-0.10736,-0.12688,-0.0976,-0.05856
-0.03904,0.03904,-0.03904,-0.01952,0,-0.01952,0.01952,-0.0488,-0.10736,-0.12688,-0.0976,-0.05856
-0.03904,0.03416,-0.02928,-0.00976,0.00976,-0.0244,0.01952,-0.0488,-0.10736,-0.12688,-0.0976,-0.05856
-0.03904,0.03416,-0.02928,-0.00976,0.00976,-0.0244,0.0244,-0.04392,-0.10248,-0.122,-0.0976,-0.05368
-0.03416,0.03172,-0.02928,-0.0122,0.00488,-0.01952,0.0244,-0.03416,-0.0976,-0.122,-0.09272,-0.0488
-0.02928,0.03172,-0.03416,-0.01952,-0.00488,-0.0122,0.02928,-0.02928,-0.0976,-0.122,-0.08784,-0.0488
-0.0244,0.02928,-0.03416,-0.02196,-0.00976,-0.00732,0.02928,-0.01952,-0.0976,-0.122,-0.07808,-0.0488
-0.01464,0.01708,-0.01952,-0.0122,-0.00488,-0.00488,0.0244,-0.01952,-0.08296,-0.11224,-0.08784,-0.05368
0,0.00244,-0.00488,-0.00488,-0.00488,0.00244,0.01952,-0.01952,-0.0732,-0.10248,-0.08296,-0.0488
0.01464,-0.01464,0.01464,0.00732,0,0.00732,0.02928,0,-0.0488,-0.08296,-0.06832,-0.03904
0.0244,-0.01464,0.00488,-0.00732,-0.01952,0.02196,0.03416,0.00976,-0.03416,-0.0732,-0.06344,-0.03416
0.03416,-0.01952,0.00488,-0.0122,-0.02928,0.03172,0.03904,0.01952,-0.02928,-0.06832,-0.05368,-0.0244
0.03904,-0.0244,0.00976,-0.00976,-0.02928,0.03416,0.03904,0.0244,-0.01952,-0.05856,-0.04392,-0.01952
0.04392,-0.0366,0.02928,0.00732,-0.01464,0.02928,0.03904,0.03416,0,-0.04392,-0.03416,-0.01464
0.05368,-0.04148,0.02928,0.00244,-0.0244,0.03904,0.03416,0.03416,0.00976,-0.03904,-0.0244,-0.00488
0.0488,-0.03904,0.02928,0.00488,-0.01952,0.03416,0.01952,0.03416,0,-0.03904,-0.0244,-0.00488
0.03416,-0.03172,0.02928,0.0122,-0.00488,0.01952,-0.00488,-0.00488,-0.0244,-0.06344,-0.03416,-0.01464
0.00976,-0.0122,0.01464,0.00976,0.00488,0.00244,-0.0244,-0.0488,-0.05856,-0.09272,-0.05368,-0.0244
-0.00488,0.00488,-0.00488,-0.00244,0,-0.00244,-0.02928,-0.05368,-0.07808,-0.10736,-0.06344,-0.0244
0.00488,0.00732,-0.01952,-0.02196,-0.0244,0.01464,-0.02928,-0.05368,-0.08296,-0.10736,-0.06344,-0.0244
0.01464,0.00732,-0.02928,-0.0366,-0.04392,0.02928,-0.01464,-0.04392,-0.08296,-0.10736,-0.06344,-0.01952
0.02928,0.00244,-0.03416,-0.0488,-0.06344,0.04636,-0.00976,-0.0488,-0.08296,-0.10736,-0.06344,-0.0244
0.02928,0.00732,-0.04392,-0.05856,-0.0732,0.05124,-0.00976,-0.05368,-0.09272,-0.11224,-0.06344,-0.02928
0.01464,0.01464,-0.04392,-0.05124,-0.05856,0.0366,-0.00488,-0.05856,-0.0976,-0.122,-0.07808,-0.03904
-0.01464,0.02928,-0.04392,-0.0366,-0.02928,0.00732,0.00488,-0.05856,-0.0976,-0.122,-0.08784,-0.05368
-0.05368,0.0488,-0.04392,-0.01708,0.00976,-0.03172,0.01952,-0.05368,-0.10248,-0.12688,-0.09272,-0.05856
-0.08296,0.07076,-0.05856,-0.01708,0.0244,-0.05368,0.0244,-0.0488,-0.10736,-0.12688,-0.09272,-0.05368
-0.0732,0.06588,-0.05856,-0.02196,0.01464,-0.04392,0.02928,-0.05368,-0.11712,-0.13176,-0.0976,-0.05856
-0.06344,0.06344,-0.06344,-0.03172,0,-0.03172,0.02928,-0.05368,-0.11712,-0.13176,-0.0976,-0.05856
-0.04392,0.05368,-0.06344,-0.04148,-0.01952,-0.0122,0.01952,-0.06344,-0.12688,-0.14152,-0.10248,-0.05856
-0.02928,0.04636,-0.06344,-0.0488,-0.03416,0.00244,0.01464,-0.06832,-0.13176,-0.1464,-0.10736,-0.06344
-0.03904,0.05124,-0.06344,-0.04392,-0.0244,-0.00732,0.01952,-0.06344,-0.13176,-0.1464,-0.10736,-0.06344
-0.0488,0.05612,-0.06344,-0.03904,-0.01464,-0.01708,0.01952,-0.06344,-0.13176,-0.15128,-0.11224,-0.06832
-0.04392,0.05612,-0.06832,-0.04636,-0.0244,-0.00976,0.01952,-0.06344,-0.13176,-0.15128,-0.11224,-0.06832
-0.04392,0.05612,-0.06832,-0.04636,-0.0244,-0.00976,0.01952,-0.06832,-0.13176,-0.15128,-0.11224,-0.06832
-0.04392,0.05612,-0.06832,-0.04636,-0.0244,-0.00976,0.01952,-0.07808,-0.13176,-0.15128,-0.11224,-0.06832
-0.03416,0.05124,-0.06832,-0.05124,-0.03416,0,0.0244,-0.08296,-0.13176,-0.15128,-0.11224,-0.06832
-0.03904,0.05856,-0.07808,-0.05856,-0.03904,0,0.0244,-0.06832,-0.12688,-0.1464,-0.11224,-0.06832
-0.04392,0.06588,-0.08784,-0.06588,-0.04392,0,0.01464,-0.06344,-0.122,-0.15128,-0.11712,-0.0732
-0.04392,0.05856,-0.0732,-0.05124,-0.02928,-0.00732,0.01464,-0.06344,-0.122,-0.15128,-0.11712,-0.0732
-0.04392,0.05368,-0.06344,-0.04148,-0.01952,-0.0122,0.01464,-0.06344,-0.122,-0.1464,-0.11712,-0.0732
-0.04392,0.05612,-0.06832,-0.04636,-0.0244,-0.00976,0.01464,-0.05856,-0.122,-0.14152,-0.11224,-0.06832
-0.04392,0.05612,-0.06832,-0.04636,-0.0244,-0.00976,0.01952,-0.05368,-0.122,-0.14152,-0.11224,-0.06832
-0.0488,0.05612,-0.06344,-0.03904,-0.01464,-0.01708,0.01952,-0.0488,-0.11712,-0.14152,-0.11224,-0.06832
-0.05368,0.05856,-0.06344,-0.0366,-0.00976,-0.02196,0.01952,-0.04392,-0.11224,-0.13664,-0.10736,-0.06832
-0.0488,0.05368,-0.05856,-0.03416,-0.00976,-0.01952,0.0244,-0.04392,-0.10736,-0.13176,-0.10736,-0.06832
-0.0488,0.05856,-0.06832,-0.04392,-0.01952,-0.01464,0.0244,-0.02928,-0.0976,-0.122,-0.0976,-0.06832
-0.03416,0.05856,-0.08296,-0.06588,-0.0488,0.00732,0.03904,0.02928,-0.04392,-0.08296,-0.09272,-0.06832
-0.0244,0.05368,-0.08296,-0.07076,-0.05856,0.01708,0.0732,0.13176,0.0732,-0.0244,-0.09272,-0.07808
-0.00976,0.0244,-0.03904,-0.03416,-0.02928,0.00976,0.0976,0.20984,0.20008,0.05368,-0.0488,-0.0732
0.04392,-0.0366,0.02928,0.00732,-0.01464,0.02928,0.08784,0.28792,0.43432,0.27328,0.11224,0.00488
0.0976,-0.12688,0.15616,0.10736,0.05856,0.01952,0.05368,0.366,0.72224,0.61976,0.34648,0.13176
0.15616,-0.24888,0.3416,0.26352,0.18544,-0.01464,-0.0488,0.22936,0.7076,0.84424,0.64416,0.31232
0.20008,-0.36112,0.52216,0.42212,0.32208,-0.061,-0.14152,-0.13664,0.22448,0.82472,0.83936,0.44408
0.18056,-0.4758,0.77104,0.68076,0.59048,-0.20496,-0.24888,-0.55632,-0.3416,0.75152,1.05896,0.55144
0.07808,-0.4514,0.82472,0.78568,0.74664,-0.33428,-0.24888,-0.79056,-0.58072,0.72712,1.1712,0.57584
0.03904,-0.27816,0.51728,0.49776,0.47824,-0.2196,-0.17568,-0.7076,-0.66368,0.62464,1.08824,0.52216
-0.00488,-0.07808,0.16104,0.16348,0.16592,-0.0854,-0.0976,-0.61976,-0.81984,0.23424,0.7076,0.37088
-0.09272,0.10492,-0.11712,-0.07076,-0.0244,-0.03416,-0.03416,-0.61488,-0.94672,-0.25376,0.122,0.10736
-0.1708,0.22692,-0.28304,-0.19764,-0.11224,-0.02928,0.00976,-0.62952,-1.11264,-0.8052,-0.4392,-0.122
-0.19032,0.25132,-0.31232,-0.21716,-0.122,-0.03416,0.01952,-0.51728,-1.0248,-0.7808,-0.4392,-0.14152
-0.15616,0.21716,-0.27816,-0.20008,-0.122,-0.01708,0.0732,-0.3416,-0.7808,-0.57584,-0.32208,-0.122
-0.09272,0.15616,-0.2196,-0.17324,-0.12688,0.01708,0.02928,-0.1952,-0.52216,-0.38552,-0.23912,-0.10736
-0.06344,0.10736,-0.15128,-0.11956,-0.08784,0.0122,0.01464,-0.08784,-0.3416,-0.2684,-0.18544,-0.10736
-0.05856,0.07076,-0.08296,-0.05368,-0.0244,-0.01708,-0.01464,-0.06344,-0.22936,-0.18544,-0.11712,-0.0732
-0.05368,0.0488,-0.04392,-0.01708,0.00976,-0.03172,-0.01464,-0.06344,-0.15128,-0.14152,-0.07808,-0.04392
-0.04392,0.04392,-0.04392,-0.02196,0,-0.02196,-0.00488,-0.0488,-0.10736,-0.11712,-0.07808,-0.05368
-0.04392,0.04148,-0.03904,-0.01708,0.00488,-0.0244,0.00976,-0.03416,-0.08296,-0.0976,-0.07808,-0.05368
-0.04392,0.0366,-0.02928,-0.00732,0.01464,-0.02928,0.01952,-0.03416,-0.0732,-0.0976,-0.07808,-0.05368
-0.0488,0.0366,-0.0244,0,0.0244,-0.0366,0.01952,-0.02928,-0.06832,-0.10248,-0.0732,-0.0488
-0.0488,0.0366,-0.0244,0,0.0244,-0.0366,0.02928,-0.01952,-0.05856,-0.0976,-0.0732,-0.0488
-0.04392,0.03416,-0.0244,-0.00244,0.01952,-0.03172,0.02928,-0.01464,-0.0488,-0.0976,-0.0732,-0.0488
-0.03904,0.02928,-0.01952,0,0.01952,-0.02928,0.0244,-0.01464,-0.04392,-0.09272,-0.0732,-0.05368
-0.03904,0.03172,-0.0244,-0.00488,0.01464,-0.02684,0.0244,-0.01464,-0.04392,-0.09272,-0.0732,-0.05368
-0.03416,0.03416,-0.03416,-0.01708,0,-0.01708,0.0244,-0.00976,-0.03904,-0.08296,-0.06832,-0.05368
-0.02928,0.03172,-0.03416,-0.01952,-0.00488,-0.0122,0.0244,-0.00976,-0.02928,-0.08296,-0.06832,-0.05368
-0.0244,0.0244,-0.0244,-0.0122,0,-0.0122,0.01952,-0.00976,-0.02928,-0.07808,-0.06832,-0.05368
-0.00976,0.01708,-0.0244,-0.01952,-0.01464,0.00244,0.01952,-0.01464,-0.0244,-0.07808,-0.0732,-0.05368
-0.01464,0.02196,-0.02928,-0.02196,-0.01464,0,0.01952,-0.01464,-0.01464,-0.0732,-0.06344,-0.0488
-0.02928,0.02928,-0.02928,-0.01464,0,-0.01464,0.0244,-0.00976,-0.00976,-0.06832,-0.06344,-0.04392
-0.02928,0.02928,-0.02928,-0.01464,0,-0.01464,0.02928,-0.00488,-0.00488,-0.06344,-0.05856,-0.03904
-0.03416,0.03172,-0.02928,-0.0122,0.00488,-0.01952,0.02928,0,-0.00488,-0.05856,-0.05856,-0.03904
-0.02928,0.02928,-0.02928,-0.01464,0,-0.01464,0.0244,0.00488,0,-0.05368,-0.05856,-0.03904
-0.0244,0.0244,-0.0244,-0.0122,0,-0.0122,0.0244,0.00488,0,-0.05368,-0.05856,-0.04392
-0.03416,0.02928,-0.0244,-0.00732,0.00976,-0.02196,0.02928,0.00488,0,-0.05368,-0.05368,-0.04392
-0.03416,0.02684,-0.01952,-0.00244,0.01464,-0.0244,0.02928,0.00488,0,-0.05368,-0.05368,-0.04392
-0.02928,0.0244,-0.01952,-0.00488,0.00976,-0.01952,0.02928,0.00488,0.00976,-0.0488,-0.0488,-0.04392
-0.00976,0.00976,-0.00976,-0.00488,0,-0.00488,0.0244,0.00976,0.00976,-0.04392,-0.0488,-0.03904
0.00488,-0.00244,0,-0.00244,-0.00488,0.00488,0.0244,0.00976,0.01464,-0.03904,-0.05368,-0.03416
-0.00488,0.00732,-0.00976,-0.00732,-0.00488,0,0.0244,0.00976,0.01464,-0.03416,-0.0488,-0.03416
-0.01952,0.01708,-0.01464,-0.00488,0.00488,-0.0122,0.0244,0.01464,0.01952,-0.02928,-0.0488,-0.03416
-0.01952,0.01708,-0.01464,-0.00488,0.00488,-0.0122,0.0244,0.01464,0.0244,-0.03416,-0.04392,-0.03416
-0.01952,0.01708,-0.01464,-0.00488,0.00488,-0.0122,0.0244,0.01952,0.02928,-0.03416,-0.04392,-0.02928
0.00488,0.00488,-0.01464,-0.01708,-0.01952,0.0122,0.0244,0.01952,0.02928,-0.02928,-0.03904,-0.02928
0.01464,-0.00244,-0.00976,-0.01708,-0.0244,0.01952,0.01952,0.01952,0.0244,-0.02928,-0.03904,-0.02928
0.00488,0.00732,-0.01952,-0.02196,-0.0244,0.01464,0.01952,0.01952,0.02928,-0.02928,-0.03904,-0.02928
-0.00976,0.01464,-0.01952,-0.01464,-0.00976,0,0.01952,0.0244,0.03416,-0.01952,-0.03904,-0.02928
-0.00976,0.01464,-0.01952,-0.01464,-0.00976,0,0.01464,0.02928,0.03904,-0.01464,-0.03416,-0.01952
-0.00976,0.0122,-0.01464,-0.00976,-0.00488,-0.00244,0.00976,0.02928,0.03904,-0.01464,-0.02928,-0.01952
-0.01464,0.0122,-0.00976,-0.00244,0.00488,-0.00976,0.01464,0.03416,0.0488,-0.00488,-0.0244,-0.01464
-0.02928,0.01708,-0.00488,0.00976,0.0244,-0.02684,0.01952,0.03904,0.05368,0.00488,-0.01464,-0.00976
-0.01952,0.0122,-0.00488,0.00488,0.01464,-0.01708,0.01952,0.03904,0.05856,0.00976,-0.00976,-0.00976
-0.01952,0.0122,-0.00488,0.00488,0.01464,-0.01708,0.01464,0.04392,0.06832,0.01952,-0.00488,-0.00488
0,0,0,0,0,0,0.00488,0.03904,0.06832,0.01952,0,-0.00488
0.01952,-0.00976,0,-0.00976,-0.01952,0.01952,-0.00488,0.03904,0.06832,0.0244,0,-0.00488
0.01464,-0.0122,0.00976,0.00244,-0.00488,0.00976,-0.00488,0.03904,0.06832,0.0244,0,-0.00488
0.01464,-0.01464,0.01464,0.00732,0,0.00732,-0.00976,0.03904,0.07808,0.03416,0,-0.00488
0.01464,-0.01708,0.01952,0.0122,0.00488,0.00488,-0.01464,0.04392,0.07808,0.03416,0.00488,-0.00488
0.01952,-0.01952,0.01952,0.00976,0,0.00976,-0.01464,0.04392,0.08296,0.03904,0.00976,0
0.0244,-0.01952,0.01464,0.00244,-0.00976,0.01708,-0.01464,0.04392,0.10248,0.04392,0.01952,0.00488
0.03904,-0.02928,0.01952,0,-0.01952,0.02928,-0.01952,0.04392,0.10736,0.0488,0.01952,0.00488
0.03904,-0.03172,0.0244,0.00488,-0.01464,0.02684,-0.01952,0.0488,0.11712,0.06344,0.01952,0.00976
0.03904,-0.03172,0.0244,0.00488,-0.01464,0.02684,-0.01952,0.05856,0.122,0.07808,0.03416,0.01952
0.01952,-0.0244,0.02928,0.01952,0.00976,0.00488,-0.01952,0.05856,0.13176,0.08784,0.04392,0.02928
0.00488,-0.01952,0.03416,0.03172,0.02928,-0.0122,-0.01952,0.06344,0.13664,0.0976,0.0488,0.03416
0.01952,-0.02928,0.03904,0.02928,0.01952,0,-0.01952,0.05856,0.14152,0.0976,0.05856,0.02928
0.02928,-0.0366,0.04392,0.02928,0.01464,0.00732,-0.02928,0.06344,0.1464,0.0976,0.06832,0.02928
0.04392,-0.04636,0.0488,0.02684,0.00488,0.01952,-0.02928,0.06344,0.15616,0.11224,0.0732,0.03904
0.06344,-0.05856,0.05368,0.02196,-0.00976,0.0366,-0.03416,0.06832,0.16592,0.122,0.08296,0.04392
0.06832,-0.06344,0.05856,0.0244,-0.00976,0.03904,-0.04392,0.0732,0.17568,0.13176,0.09272,0.04392
0.06344,-0.06344,0.06344,0.03172,0,0.03172,-0.04392,0.07808,0.18544,0.15128,0.10736,0.04392
0.05856,-0.06344,0.06832,0.03904,0.00976,0.0244,-0.04392,0.08784,0.1952,0.16592,0.122,0.0488
0.05856,-0.07564,0.09272,0.06344,0.03416,0.0122,-0.05856,0.08784,0.20496,0.18056,0.13176,0.05856
0.05368,-0.07808,0.10248,0.07564,0.0488,0.00244,-0.05368,0.0976,0.22448,0.20008,0.1464,0.06832
0.04392,-0.0732,0.10248,0.08052,0.05856,-0.00732,-0.0488,0.10736,0.24888,0.22936,0.16592,0.08784
0.04392,-0.0732,0.10248,0.08052,0.05856,-0.00732,-0.05368,0.11712,0.26352,0.25864,0.18056,0.0976
0.0488,-0.07808,0.10736,0.08296,0.05856,-0.00488,-0.05856,0.12688,0.27816,0.27816,0.1952,0.10248
0.07808,-0.09516,0.11224,0.0732,0.03416,0.02196,-0.0732,0.13664,0.29768,0.28792,0.20984,0.10736
0.10736,-0.11468,0.122,0.06832,0.01464,0.04636,-0.08784,0.13664,0.3172,0.30744,0.21472,0.11224
0.11712,-0.12444,0.13176,0.0732,0.01464,0.05124,-0.08784,0.14152,0.3416,0.33672,0.22936,0.122
0.122,-0.13176,0.14152,0.08052,0.01952,0.05124,-0.09272,0.15616,0.36112,0.366,0.25864,0.13176
0.12688,-0.13908,0.15128,0.08784,0.0244,0.05124,-0.0976,0.1708,0.38552,0.39528,0.28304,0.14152
0.13176,-0.1464,0.16104,0.09516,0.02928,0.05124,-0.10248,0.18544,0.4148,0.42456,0.30256,0.15128
0.14152,-0.1586,0.17568,0.10492,0.03416,0.05368,-0.10736,0.19032,0.44408,0.45384,0.33184,0.16592
0.13664,-0.16104,0.18544,0.11712,0.0488,0.04392,-0.10736,0.20496,0.47336,0.488,0.35624,0.18056
0.15128,-0.1708,0.19032,0.11468,0.03904,0.05612,-0.10248,0.2196,0.50264,0.52704,0.38064,0.1952
0.16104,-0.18056,0.20008,0.11956,0.03904,0.061,-0.11224,0.23912,0.52704,0.5612,0.40504,0.20984
0.16592,-0.19032,0.21472,0.13176,0.0488,0.05856,-0.122,0.244,0.55144,0.59048,0.42944,0.22448
0.16592,-0.1952,0.22448,0.14152,0.05856,0.05368,-0.122,0.25864,0.57096,0.62464,0.45872,0.244
0.1708,-0.20496,0.23912,0.15372,0.06832,0.05124,-0.13176,0.2684,0.59536,0.65392,0.47824,0.25376
0.1708,-0.20984,0.24888,0.16348,0.07808,0.04636,-0.13176,0.2684,0.61488,0.6832,0.50264,0.26352
0.18056,-0.2196,0.25864,0.16836,0.07808,0.05124,-0.13176,0.27816,0.6344,0.71248,0.52704,0.2684
0.20008,-0.23668,0.27328,0.17324,0.0732,0.06344,-0.14152,0.27816,0.65392,0.74176,0.54168,0.27328
0.20496,-0.24156,0.27816,0.17568,0.0732,0.06588,-0.14152,0.27816,0.66856,0.75152,0.56608,0.28792
0.21472,-0.25132,0.28792,0.18056,0.0732,0.07076,-0.14152,0.27328,0.66856,0.7564,0.58072,0.29768
0.2196,-0.25376,0.28792,0.17812,0.06832,0.07564,-0.1464,0.26352,0.66368,0.76616,0.58072,0.29768
0.22448,-0.25376,0.28304,0.1708,0.05856,0.08296,-0.1464,0.24888,0.6588,0.76616,0.57584,0.28792
0.22448,-0.24888,0.27328,0.16104,0.0488,0.08784,-0.15128,0.23424,0.6344,0.74664,0.5612,0.28304
0.20984,-0.23668,0.26352,0.1586,0.05368,0.07808,-0.14152,0.2196,0.60512,0.71248,0.54168,0.27328
0.18544,-0.2196,0.25376,0.16104,0.06832,0.05856,-0.13176,0.20984,0.57584,0.66368,0.50752,0.25864
0.15616,-0.20496,0.25376,0.17568,0.0976,0.02928,-0.11224,0.1952,0.54168,0.61488,0.46848,0.23912
0.14152,-0.183,0.22448,0.15372,0.08296,0.02928,-0.10248,0.1708,0.488,0.54656,0.41968,0.20984
0.12688,-0.16104,0.1952,0.13176,0.06832,0.02928,-0.08784,0.15128,0.42944,0.47824,0.366,0.18056
0.11224,-0.14152,0.1708,0.11468,0.05856,0.02684,-0.07808,0.12688,0.37576,0.40504,0.3172,0.16104
0.0976,-0.122,0.1464,0.0976,0.0488,0.0244,-0.06832,0.10736,0.32696,0.3416,0.26352,0.13664
0.06344,-0.09028,0.11712,0.0854,0.05368,0.00488,-0.05368,0.0976,0.27816,0.28304,0.2196,0.11712
0.0488,-0.07808,0.10736,0.08296,0.05856,-0.00488,-0.0488,0.08296,0.22448,0.22936,0.17568,0.08784
0.03416,-0.05856,0.08296,0.06588,0.0488,-0.00732,-0.03904,0.06344,0.18544,0.1708,0.13664,0.06832
0.01952,-0.04148,0.06344,0.05368,0.04392,-0.0122,-0.02928,0.05368,0.15128,0.14152,0.0976,0.05368
0.01464,-0.02928,0.04392,0.0366,0.02928,-0.00732,-0.01952,0.04392,0.11224,0.09272,0.06832,0.03416
0.00976,-0.0244,0.03904,0.03416,0.02928,-0.00976,-0.01952,0.0244,0.06344,0.04392,0.02928,0.00488
0,-0.01464,0.02928,0.02928,0.02928,-0.01464,-0.00976,0.01464,0.0488,0.01464,0.01464,0
-0.01952,0.00244,0.01464,0.0244,0.03416,-0.02684,-0.00488,0.00976,0.03416,0,0,-0.00976
-0.02928,0.0122,0.00488,0.01952,0.03416,-0.03172,0.00976,0.00976,0.02928,-0.01464,-0.01464,-0.01464
-0.03416,0.01708,0,0.01708,0.03416,-0.03416,0.00976,0.00488,0.00976,-0.02928,-0.02928,-0.0244
-0.03416,0.0244,-0.01464,0.00244,0.01952,-0.02684,0.00976,0,-0.00488,-0.0488,-0.04392,-0.03416
-0.02928,0.02196,-0.01464,0,0.01464,-0.02196,0.00976,-0.00976,-0.01464,-0.06344,-0.05856,-0.04392
-0.01952,0.01708,-0.01464,-0.00488,0.00488,-0.0122,0.00488,-0.01464,-0.0244,-0.07808,-0.06832,-0.04392
-0.01952,0.01708,-0.01464,-0.00488,0.00488,-0.0122,0.00488,-0.01464,-0.02928,-0.08296,-0.06832,-0.04392
-0.01464,0.01464,-0.01464,-0.00732,0,-0.00732,0.00976,-0.00976,-0.03416,-0.08296,-0.0732,-0.0488
-0.00976,0.01708,-0.0244,-0.01952,-0.01464,0.00244,0.01464,-0.00976,-0.03416,-0.08296,-0.08296,-0.0488
-0.0244,0.02684,-0.02928,-0.01708,-0.00488,-0.00976,0.01952,-0.00976,-0.03416,-0.08296,-0.08296,-0.04392
-0.02928,0.02928,-0.02928,-0.01464,0,-0.01464,0.01952,-0.00976,-0.03904,-0.08296,-0.08296,-0.03904
-0.0244,0.02196,-0.01952,-0.00732,0.00488,-0.01464,0.01464,-0.00976,-0.03416,-0.08784,-0.08784,-0.04392
-0.0244,0.01952,-0.01464,-0.00244,0.00976,-0.01708,0.01464,-0.00976,-0.02928,-0.08784,-0.08784,-0.04392
-0.02928,0.02196,-0.01464,0,0.01464,-0.02196,0.01464,-0.00976,-0.02928,-0.08296,-0.08784,-0.0488
-0.03416,0.02196,-0.00976,0.00732,0.0244,-0.02928,0.01952,-0.00488,-0.0244,-0.08296,-0.08296,-0.0488
-0.04392,0.02684,-0.00976,0.0122,0.03416,-0.03904,0.01952,-0.00488,-0.0244,-0.08296,-0.08296,-0.0488
-0.04392,0.02684,-0.00976,0.0122,0.03416,-0.03904,0.01952,-0.00488,-0.0244,-0.07808,-0.07808,-0.0488
-0.04392,0.02928,-0.01464,0.00732,0.02928,-0.0366,0.0244,-0.00488,-0.0244,-0.07808,-0.0732,-0.04392
-0.04392,0.03172,-0.01952,0.00244,0.0244,-0.03416,0.02928,-0.00488,-0.0244,-0.07808,-0.06832,-0.03904
-0.04392,0.03172,-0.01952,0.00244,0.0244,-0.03416,0.0244,-0.00976,-0.0244,-0.06832,-0.06832,-0.03904
-0.0488,0.03416,-0.01952,0.00488,0.02928,-0.03904,0.0244,-0.00976,-0.0244,-0.05856,-0.06832,-0.03904
-0.03416,0.02684,-0.01952,-0.00244,0.01464,-0.0244,0.01952,-0.01464,-0.0244,-0.06832,-0.0732,-0.04392
-0.01952,0.01708,-0.01464,-0.00488,0.00488,-0.0122,0.00976,-0.01952,-0.02928,-0.08296,-0.07808,-0.0488
-0.01952,0.01464,-0.00976,0,0.00976,-0.01464,0.00976,-0.01952,-0.02928,-0.08296,-0.07808,-0.0488
-0.01952,0.01464,-0.00976,0,0.00976,-0.01464,0.00976,-0.01952,-0.0244,-0.08296,-0.07808,-0.0488
-0.01952,0.01464,-0.00976,0,0.00976,-0.01464,0.00976,-0.01952,-0.0244,-0.07808,-0.06832,-0.04392
-0.01952,0.01464,-0.00976,0,0.00976,-0.01464,0.00976,-0.01952,-0.0244,-0.07808,-0.06344,-0.04392
-0.0244,0.01952,-0.01464,-0.00244,0.00976,-0.01708,0.00976,-0.01952,-0.02928,-0.07808,-0.06344,-0.04392
-0.0244,0.02196,-0.01952,-0.00732,0.00488,-0.01464,0.00976,-0.01952,-0.02928,-0.07808,-0.06344,-0.04392
-0.0244,0.02196,-0.01952,-0.00732,0.00488,-0.01464,0.00976,-0.01464,-0.02928,-0.0732,-0.05856,-0.03904
-0.0244,0.01952,-0.01464,-0.00244,0.00976,-0.01708,0.00976,-0.00976,-0.02928,-0.0732,-0.05856,-0.03904
-0.0244,0.01952,-0.01464,-0.00244,0.00976,-0.01708,0.00976,-0.00976,-0.02928,-0.0732,-0.05368,-0.03904
-0.02928,0.02196,-0.01464,0,0.01464,-0.02196,0.00976,-0.01464,-0.02928,-0.0732,-0.05368,-0.03904
-0.02928,0.02196,-0.01464,0,0.01464,-0.02196,0.00976,-0.01464,-0.02928,-0.07808,-0.05368,-0.03904
-0.0244,0.01952,-0.01464,-0.00244,0.00976,-0.01708,0.00976,-0.01464,-0.03416,-0.07808,-0.05856,-0.03904
-0.0244,0.01952,-0.01464,-0.00244,0.00976,-0.01708,0.00976,-0.01464,-0.03416,-0.07808,-0.05856,-0.03904
-0.0244,0.01708,-0.00976,0.00244,0.01464,-0.01952,0.00976,-0.01464,-0.03416,-0.07808,-0.05856,-0.03904
-0.02928,0.02196,-0.01464,0,0.01464,-0.02196,0.01464,-0.01464,-0.03416,-0.0732,-0.05368,-0.03416
-0.03416,0.0244,-0.01464,0.00244,0.01952,-0.02684,0.01464,-0.01464,-0.03904,-0.07808,-0.05368,-0.02928
-0.03904,0.0244,-0.00976,0.00976,0.02928,-0.03416,0.01464,-0.01464,-0.04392,-0.08296,-0.05856,-0.03416
-0.04392,0.02684,-0.00976,0.0122,0.03416,-0.03904,0.01464,-0.00976,-0.03904,-0.08296,-0.05856,-0.03416
-0.04392,0.02684,-0.00976,0.0122,0.03416,-0.03904,0.01464,-0.01464,-0.04392,-0.08296,-0.06344,-0.02928
-0.04392,0.02928,-0.01464,0.00732,0.02928,-0.0366,0.01464,-0.01464,-0.04392,-0.08296,-0.06344,-0.02928
-0.01464,0.01464,-0.01464,-0.00732,0,-0.00732,0.00976,-0.0244,-0.05856,-0.09272,-0.07808,-0.03904
0.01952,-0.00244,-0.01464,-0.0244,-0.03416,0.02684,0,-0.03416,-0.06832,-0.10736,-0.08784,-0.04392
0.00488,0.00244,-0.00976,-0.0122,-0.01464,0.00976,0,-0.03416,-0.06832,-0.10736,-0.09272,-0.04392
-0.01464,0.00976,-0.00488,0.00244,0.00976,-0.0122,0,-0.03416,-0.0732,-0.11224,-0.09272,-0.04392
-0.01464,0.0122,-0.00976,-0.00244,0.00488,-0.00976,0.00488,-0.02928,-0.0732,-0.10736,-0.08296,-0.04392
-0.01952,0.01464,-0.00976,0,0.00976,-0.01464,0.00976,-0.0244,-0.0732,-0.10248,-0.07808,-0.04392
-0.02928,0.02684,-0.0244,-0.00976,0.00488,-0.01708,0.00976,-0.0244,-0.06832,-0.10248,-0.07808,-0.04392
-0.03904,0.0366,-0.03416,-0.01464,0.00488,-0.02196,0.00976,-0.0244,-0.06832,-0.10248,-0.08296,-0.04392
-0.03904,0.0366,-0.03416,-0.01464,0.00488,-0.02196,0.00976,-0.03416,-0.07808,-0.11224,-0.08784,-0.05368
-0.02928,0.03172,-0.03416,-0.01952,-0.00488,-0.0122,0.00488,-0.03416,-0.07808,-0.11224,-0.08784,-0.05368
-0.03416,0.02928,-0.0244,-0.00732,0.00976,-0.02196,0.00488,-0.03416,-0.07808,-0.10736,-0.08296,-0.0488
-0.04392,0.02928,-0.01464,0.00732,0.02928,-0.0366,0.00976,-0.03416,-0.07808,-0.10248,-0.07808,-0.04392
-0.05368,0.04636,-0.03904,-0.0122,0.01464,-0.03416,0.01464,-0.0244,-0.0732,-0.10248,-0.0732,-0.03904
-0.05856,0.0488,-0.03904,-0.00976,0.01952,-0.03904,0.01464,-0.0244,-0.0732,-0.10248,-0.0732,-0.03904
-0.0488,0.04148,-0.03416,-0.00976,0.01464,-0.03172,0.01464,-0.02928,-0.0732,-0.10736,-0.07808,-0.04392
-0.03416,0.03416,-0.03416,-0.01708,0,-0.01708,0.01464,-0.02928,-0.0732,-0.11224,-0.08296,-0.0488
-0.0244,0.0244,-0.0244,-0.0122,0,-0.0122,0.01464,-0.02928,-0.07808,-0.11224,-0.08784,-0.0488
-0.00976,0.01464,-0.01952,-0.01464,-0.00976,0,0.00976,-0.02928,-0.08296,-0.11712,-0.08784,-0.05368
-0.0244,0.0244,-0.0244,-0.0122,0,-0.0122,0.00976,-0.02928,-0.08296,-0.11712,-0.08784,-0.05368
-0.04392,0.03416,-0.0244,-0.00244,0.01952,-0.03172,0.01464,-0.02928,-0.08296,-0.11712,-0.09272,-0.05368
-0.03904,0.03172,-0.0244,-0.00488,0.01464,-0.02684,0.01464,-0.02928,-0.08784,-0.11712,-0.09272,-0.05368
-0.03416,0.03172,-0.02928,-0.0122,0.00488,-0.01952,0.01464,-0.02928,-0.08784,-0.11712,-0.08784,-0.0488
-0.03416,0.03172,-0.02928,-0.0122,0.00488,-0.01952,0.01464,-0.02928,-0.08784,-0.11712,-0.08784,-0.0488
-0.02928,0.02928,-0.02928,-0.01464,0,-0.01464,0.01464,-0.03416,-0.09272,-0.11712,-0.09272,-0.05368
-0.01952,0.0244,-0.02928,-0.01952,-0.00976,-0.00488,0.00976,-0.03416,-0.08784,-0.11712,-0.09272,-0.0488
-0.0244,0.02684,-0.02928,-0.01708,-0.00488,-0.00976,0.00976,-0.03416,-0.08784,-0.11224,-0.09272,-0.04392
-0.02928,0.03172,-0.03416,-0.01952,-0.00488,-0.0122,0.00976,-0.03416,-0.08784,-0.11224,-0.09272,-0.04392
-0.02928,0.03172,-0.03416,-0.01952,-0.00488,-0.0122,0.00976,-0.03416,-0.08784,-0.11224,-0.09272,-0.04392
-0.02928,0.02684,-0.0244,-0.00976,0.00488,-0.01708,0.00488,-0.03416,-0.09272,-0.11712,-0.0976,-0.04392
-0.02928,0.0244,-0.01952,-0.00488,0.00976,-0.01952,0.00488,-0.03904,-0.0976,-0.12688,-0.10736,-0.0488
-0.02928,0.0244,-0.01952,-0.00488,0.00976,-0.01952,0.00488,-0.03904,-0.0976,-0.12688,-0.10736,-0.0488
-0.02928,0.0244,-0.01952,-0.00488,0.00976,-0.01952,0.00976,-0.03904,-0.0976,-0.12688,-0.10736,-0.0488
-0.02928,0.0244,-0.01952,-0.00488,0.00976,-0.01952,0.00976,-0.03904,-0.0976,-0.12688,-0.10248,-0.0488
-0.02928,0.0244,-0.01952,-0.00488,0.00976,-0.01952,0.00976,-0.03904,-0.0976,-0.12688,-0.0976,-0.0488
-0.03904,0.03416,-0.02928,-0.00976,0.00976,-0.0244,0.01464,-0.03416,-0.0976,-0.122,-0.0976,-0.0488
-0.0488,0.04392,-0.03904,-0.01464,0.00976,-0.02928,0.01952,-0.02928,-0.0976,-0.11712,-0.0976,-0.0488
-0.05856,0.0488,-0.03904,-0.00976,0.01952,-0.03904,0.01952,-0.02928,-0.09272,-0.11712,-0.0976,-0.0488
-0.06832,0.05368,-0.03904,-0.00488,0.02928,-0.0488,0.01952,-0.02928,-0.08784,-0.11712,-0.0976,-0.0488
-0.05856,0.04636,-0.03416,-0.00488,0.0244,-0.04148,0.01952,-0.03416,-0.08784,-0.11712,-0.0976,-0.0488
-0.0488,0.03904,-0.02928,-0.00488,0.01952,-0.03416,0.01952,-0.03904,-0.08784,-0.11712,-0.0976,-0.0488
-0.03904,0.03416,-0.02928,-0.00976,0.00976,-0.0244,0.01464,-0.04392,-0.09272,-0.122,-0.10248,-0.05368
-0.02928,0.02928,-0.02928,-0.01464,0,-0.01464,0.00976,-0.0488,-0.0976,-0.12688,-0.10736,-0.05856
-0.0244,0.02684,-0.02928,-0.01708,-0.00488,-0.00976,0.00976,-0.0488,-0.10248,-0.12688,-0.10736,-0.05856
-0.01952,0.0244,-0.02928,-0.01952,-0.00976,-0.00488,0.00976,-0.0488,-0.10736,-0.12688,-0.10736,-0.05856
-0.01952,0.0244,-0.02928,-0.01952,-0.00976,-0.00488,0.00976,-0.0488,-0.10736,-0.12688,-0.10736,-0.05856
-0.01952,0.0244,-0.02928,-0.01952,-0.00976,-0.00488,0.00976,-0.0488,-0.10736,-0.12688,-0.10736,-0.05856
-0.02928,0.02928,-0.02928,-0.01464,0,-0.01464,0.00976,-0.04392,-0.10248,-0.12688,-0.10736,-0.05368
-0.03904,0.03416,-0.02928,-0.00976,0.00976,-0.0244,0.00976,-0.03904,-0.0976,-0.12688,-0.10736,-0.0488
-0.03904,0.03416,-0.02928,-0.00976,0.00976,-0.0244,0.00976,-0.03904,-0.0976,-0.12688,-0.10736,-0.0488
-0.03904,0.03416,-0.02928,-0.00976,0.00976,-0.0244,0.00976,-0.03904,-0.0976,-0.12688,-0.10736,-0.0488
-0.02928,0.03172,-0.03416,-0.01952,-0.00488,-0.0122,0.00976,-0.03904,-0.0976,-0.12688,-0.10736,-0.0488
-0.01952,0.02928,-0.03904,-0.02928,-0.01952,0,0.00976,-0.03904,-0.0976,-0.12688,-0.10736,-0.0488
-0.03416,0.0366,-0.03904,-0.02196,-0.00488,-0.01464,0.01464,-0.03904,-0.0976,-0.12688,-0.10248,-0.0488
-0.0488,0.04392,-0.03904,-0.01464,0.00976,-0.02928,0.01952,-0.03904,-0.0976,-0.12688,-0.0976,-0.0488
-0.0488,0.04392,-0.03904,-0.01464,0.00976,-0.02928,0.01952,-0.03904,-0.0976,-0.12688,-0.0976,-0.0488
-0.0488,0.04392,-0.03904,-0.01464,0.00976,-0.02928,0.01952,-0.03904,-0.0976,-0.12688,-0.0976,-0.0488
-0.04392,0.04148,-0.03904,-0.01708,0.00488,-0.0244,0.01952,-0.03904,-0.0976,-0.12688,-0.0976,-0.0488
-0.03904,0.03904,-0.03904,-0.01952,0,-0.01952,0.01952,-0.03904,-0.0976,-0.12688,-0.0976,-0.0488
-0.03904,0.0366,-0.03416,-0.01464,0.00488,-0.02196,0.01464,-0.03904,-0.0976,-0.12688,-0.0976,-0.0488
-0.03904,0.03416,-0.02928,-0.00976,0.00976,-0.0244,0.00976,-0.03904,-0.0976,-0.12688,-0.0976,-0.0488
-0.03904,0.03416,-0.02928,-0.00976,0.00976,-0.0244,0.00976,-0.03904,-0.0976,-0.12688,-0.0976,-0.0488
-0.03904,0.03416,-0.02928,-0.00976,0.00976,-0.0244,0.00976,-0.03904,-0.0976,-0.12688,-0.0976,-0.0488
-0.03904,0.03904,-0.03904,-0.01952,0,-0.01952,0.00976,-0.03904,-0.0976,-0.12688,-0.0976,-0.0488
-0.03904,0.04392,-0.0488,-0.02928,-0.00976,-0.01464,0.00976,-0.03904,-0.0976,-0.12688,-0.0976,-0.0488
-0.03416,0.0366,-0.03904,-0.02196,-0.00488,-0.01464,0.00976,-0.04392,-0.10248,-0.12688,-0.10248,-0.05368
-0.02928,0.02928,-0.02928,-0.01464,0,-0.01464,0.00976,-0.0488,-0.10736,-0.12688,-0.10736,-0.05856
-0.02928,0.02928,-0.02928,-0.01464,0,-0.01464,0.00976,-0.0488,-0.10736,-0.12688,-0.10736,-0.05856
-0.02928,0.02928,-0.02928,-0.01464,0,-0.01464,0.00976,-0.0488,-0.10736,-0.12688,-0.10736,-0.05856
-0.02928,0.03172,-0.03416,-0.01952,-0.00488,-0.0122,0.01464,-0.0488,-0.10736,-0.12688,-0.10736,-0.05368
-0.02928,0.03416,-0.03904,-0.0244,-0.00976,-0.00976,0.01952,-0.0488,-0.10736,-0.12688,-0.10736,-0.0488
-0.02928,0.03416,-0.03904,-0.0244,-0.00976,-0.00976,0.01952,-0.04392,-0.10736,-0.12688,-0.10736,-0.0488
-0.02928,0.03416,-0.03904,-0.0244,-0.00976,-0.00976,0.01952,-0.03904,-0.10736,-0.12688,-0.10736,-0.0488
-0.03416,0.03416,-0.03416,-0.01708,0,-0.01708,0.01464,-0.03904,-0.10736,-0.12688,-0.10736,-0.05368
-0.03904,0.03416,-0.02928,-0.00976,0.00976,-0.0244,0.00976,-0.03904,-0.10736,-0.12688,-0.10736,-0.05856
-0.03904,0.03416,-0.02928,-0.00976,0.00976,-0.0244,0.00976,-0.04392,-0.10736,-0.12688,-0.10736,-0.05856
-0.03904,0.03416,-0.02928,-0.00976,0.00976,-0.0244,0.00976,-0.0488,-0.10736,-0.12688,-0.10736,-0.05856
-0.03904,0.03416,-0.02928,-0.00976,0.00976,-0.0244,0.00976,-0.0488,-0.10736,-0.12688,-0.10736,-0.05368
-0.03904,0.03416,-0.02928,-0.00976,0.00976,-0.0244,0.00976,-0.0488,-0.10736,-0.12688,-0.10736,-0.0488
-0.03904,0.03416,-0.02928,-0.00976,0.00976,-0.0244,0.00976,-0.04392,-0.10248,-0.12688,-0.10736,-0.0488
-0.03904,0.03416,-0.02928,-0.00976,0.00976,-0.0244,0.00976,-0.03904,-0.0976,-0.12688,-0.10736,-0.0488
-0.03904,0.03416,-0.02928,-0.00976,0.00976,-0.0244,0.00976,-0.03904,-0.0976,-0.12688,-0.10736,-0.05368
-0.03904,0.03416,-0.02928,-0.00976,0.00976,-0.0244,0.00976,-0.03904,-0.0976,-0.12688,-0.10736,-0.05856
-0.03904,0.03416,-0.02928,-0.00976,0.00976,-0.0244,0.00976,-0.03904,-0.10248,-0.12688,-0.10736,-0.05856
-0.03904,0.03416,-0.02928,-0.00976,0.00976,-0.0244,0.00976,-0.03904,-0.10736,-0.12688,-0.10736,-0.05856
-0.04392,0.0366,-0.02928,-0.00732,0.01464,-0.02928,0.00976,-0.03904,-0.10736,-0.12688,-0.10248,-0.05368
-0.0488,0.03904,-0.02928,-0.00488,0.01952,-0.03416,0.00976,-0.03904,-0.10736,-0.12688,-0.0976,-0.0488
-0.0488,0.03904,-0.02928,-0.00488,0.01952,-0.03416,0.01464,-0.03904,-0.10248,-0.122,-0.0976,-0.0488
-0.0488,0.03904,-0.02928,-0.00488,0.01952,-0.03416,0.01952,-0.03904,-0.0976,-0.11712,-0.0976,-0.0488
-0.03904,0.03416,-0.02928,-0.00976,0.00976,-0.0244,0.01952,-0.03904,-0.0976,-0.11712,-0.0976,-0.05368
-0.02928,0.02928,-0.02928,-0.01464,0,-0.01464,0.01952,-0.03904,-0.0976,-0.11712,-0.0976,-0.05856
-0.01464,0.02196,-0.02928,-0.02196,-0.01464,0,0.00976,-0.03904,-0.10248,-0.122,-0.0976,-0.05856
0,0.01464,-0.02928,-0.02928,-0.02928,0.01464,0,-0.03904,-0.10736,-0.12688,-0.0976,-0.05856
-0.01464,0.0244,-0.03416,-0.02684,-0.01952,0.00244,0.00976,-0.03904,-0.10736,-0.12688,-0.0976,-0.05368
-0.02928,0.03416,-0.03904,-0.0244,-0.00976,-0.00976,0.01952,-0.03904,-0.10736,-0.12688,-0.0976,-0.0488
-0.03416,0.0366,-0.03904,-0.02196,-0.00488,-0.01464,0.01952,-0.04392,-0.10736,-0.12688,-0.10248,-0.0488
-0.03904,0.03904,-0.03904,-0.01952,0,-0.01952,0.01952,-0.0488,-0.10736,-0.12688,-0.10736,-0.0488
-0.03904,0.0366,-0.03416,-0.01464,0.00488,-0.02196,0.01952,-0.0488,-0.10736,-0.12688,-0.10736,-0.05368
-0.03904,0.03416,-0.02928,-0.00976,0.00976,-0.0244,0.01952,-0.0488,-0.10736,-0.12688,-0.10736,-0.05856
-0.04392,0.0366,-0.02928,-0.00732,0.01464,-0.02928,0.01952,-0.04392,-0.10736,-0.12688,-0.10248,-0.05856
-0.0488,0.03904,-0.02928,-0.00488,0.01952,-0.03416,0.01952,-0.03904,-0.10736,-0.12688,-0.0976,-0.05856
-0.0488,0.03904,-0.02928,-0.00488,0.01952,-0.03416,0.01952,-0.03904,-0.10736,-0.12688,-0.0976,-0.05368
-0.0488,0.03904,-0.02928,-0.00488,0.01952,-0.03416,0.01952,-0.03904,-0.10736,-0.12688,-0.0976,-0.0488
-0.04392,0.03904,-0.03416,-0.0122,0.00976,-0.02684,0.01952,-0.03904,-0.10736,-0.12688,-0.0976,-0.0488
-0.03904,0.03904,-0.03904,-0.01952,0,-0.01952,0.01952,-0.03904,-0.10736,-0.12688,-0.0976,-0.0488
-0.03904,0.03904,-0.03904,-0.01952,0,-0.01952,0.01952,-0.03904,-0.10248,-0.12688,-0.0976,-0.0488
-0.03904,0.03904,-0.03904,-0.01952,0,-0.01952,0.01952,-0.03904,-0.0976,-0.12688,-0.0976,-0.0488
-0.04392,0.04148,-0.03904,-0.01708,0.00488,-0.0244,0.01952,-0.03904,-0.0976,-0.122,-0.0976,-0.0488
-0.0488,0.04392,-0.03904,-0.01464,0.00976,-0.02928,0.01952,-0.03904,-0.0976,-0.11712,-0.0976,-0.0488
-0.0488,0.04148,-0.03416,-0.00976,0.01464,-0.03172,0.01952,-0.03904,-0.0976,-0.11712,-0.0976,-0.0488
-0.0488,0.03904,-0.02928,-0.00488,0.01952,-0.03416,0.01952,-0.03904,-0.0976,-0.11712,-0.0976,-0.0488
-0.05368,0.04148,-0.02928,-0.00244,0.0244,-0.03904,0.01952,-0.03904,-0.0976,-0.11712,-0.0976,-0.0488
-0.05856,0.04392,-0.02928,0,0.02928,-0.04392,0.01952,-0.03904,-0.0976,-0.11712,-0.0976,-0.0488
-0.05856,0.04148,-0.0244,0.00488,0.03416,-0.04636,0.01952,-0.03904,-0.0976,-0.11712,-0.0976,-0.0488
-0.05856,0.03904,-0.01952,0.00976,0.03904,-0.0488,0.01952,-0.03904,-0.0976,-0.11712,-0.0976,-0.0488
-0.0488,0.03416,-0.01952,0.00488,0.02928,-0.03904,0.01952,-0.03904,-0.0976,-0.122,-0.0976,-0.05368
-0.03416,0.02196,-0.00976,0.00732,0.0244,-0.02928,0.01952,-0.03904,-0.0976,-0.12688,-0.0976,-0.05368
-0.01952,0.0122,-0.00488,0.00488,0.01464,-0.01708,0.01952,-0.03904,-0.0976,-0.13176,-0.0976,-0.05856
0,0,0,0,0,0,0.01952,-0.02928,-0.08296,-0.122,-0.0976,-0.05856
0,-0.00244,0.00488,0.00488,0.00488,-0.00244,0.01952,-0.01952,-0.0732,-0.11224,-0.08296,-0.0488
0.00488,-0.01464,0.0244,0.02196,0.01952,-0.00732,0.02928,0,-0.0488,-0.09272,-0.06832,-0.03904
0.01464,-0.0122,0.00976,0.00244,-0.00488,0.00976,0.03416,0.00976,-0.03416,-0.08296,-0.06344,-0.03416
0.01952,-0.0122,0.00488,-0.00488,-0.01464,0.01708,0.03904,0.0244,-0.0244,-0.0732,-0.05368,-0.0244
0.01952,-0.01464,0.00976,0,-0.00976,0.01464,0.04392,0.03416,-0.00976,-0.05368,-0.04392,-0.01952
0.0244,-0.02684,0.02928,0.01708,0.00488,0.00976,0.0488,0.04392,0.00976,-0.03416,-0.03416,-0.01464
0.03416,-0.03172,0.02928,0.0122,-0.00488,0.01952,0.04392,0.0488,0.0244,-0.0244,-0.0244,-0.00488
0.03416,-0.03172,0.02928,0.0122,-0.00488,0.01952,0.02928,0.05368,0.01952,-0.01952,-0.0244,-0.00488
0.0244,-0.03172,0.03904,0.02684,0.01464,0.00488,0,0.01464,-0.00488,-0.04392,-0.03416,-0.01464
0.00976,-0.02196,0.03416,0.02928,0.0244,-0.00732,-0.0244,-0.03416,-0.04392,-0.0732,-0.05368,-0.0244
0.00488,-0.00976,0.01464,0.0122,0.00976,-0.00244,-0.02928,-0.04392,-0.0732,-0.09272,-0.06344,-0.0244
0.00488,-0.00244,0,-0.00244,-0.00488,0.00488,-0.02928,-0.04392,-0.08296,-0.0976,-0.06344,-0.0244
0.01464,0,-0.01464,-0.02196,-0.02928,0.02196,-0.01464,-0.03416,-0.08296,-0.0976,-0.06344,-0.01952
0.0244,0,-0.0244,-0.0366,-0.0488,0.0366,-0.00976,-0.03416,-0.08296,-0.0976,-0.06344,-0.01952
0,0.01708,-0.03416,-0.03416,-0.03416,0.01708,-0.00976,-0.03416,-0.09272,-0.10248,-0.06344,-0.01464
-0.01464,0.0244,-0.03416,-0.02684,-0.01952,0.00244,-0.00488,-0.03904,-0.0976,-0.11224,-0.07808,-0.01952
-0.03416,0.03416,-0.03416,-0.01708,0,-0.01708,0.00488,-0.03904,-0.09272,-0.11224,-0.08784,-0.03416
-0.0488,0.04148,-0.03416,-0.00976,0.01464,-0.03172,0.01464,-0.03904,-0.09272,-0.122,-0.0976,-0.0488
-0.05856,0.05368,-0.0488,-0.01952,0.00976,-0.03416,0.01464,-0.03904,-0.0976,-0.12688,-0.0976,-0.05368
-0.06344,0.05612,-0.0488,-0.01708,0.01464,-0.03904,0.01952,-0.04392,-0.10736,-0.13176,-0.0976,-0.05856
-0.06344,0.05856,-0.05368,-0.02196,0.00976,-0.0366,0.01952,-0.04392,-0.10736,-0.13176,-0.0976,-0.05856
-0.06344,0.05856,-0.05368,-0.02196,0.00976,-0.0366,0.01464,-0.0488,-0.11224,-0.13664,-0.0976,-0.05368
-0.06832,0.06344,-0.05856,-0.0244,0.00976,-0.03904,0.01464,-0.0488,-0.11224,-0.13664,-0.0976,-0.05368
-0.06832,0.06588,-0.06344,-0.02928,0.00488,-0.0366,0.01952,-0.04392,-0.11224,-0.13664,-0.0976,-0.05368
-0.05368,0.05856,-0.06344,-0.0366,-0.00976,-0.02196,0.01464,-0.0488,-0.11712,-0.1464,-0.10736,-0.06344
-0.03416,0.05124,-0.06832,-0.05124,-0.03416,0,0.00976,-0.05368,-0.122,-0.15128,-0.11224,-0.06832
-0.03416,0.0488,-0.06344,-0.04636,-0.02928,-0.00244,0.00976,-0.05856,-0.122,-0.15128,-0.11224,-0.06832
-0.04392,0.05124,-0.05856,-0.0366,-0.01464,-0.01464,0.00976,-0.05856,-0.122,-0.15128,-0.11224,-0.06832
-0.06344,0.061,-0.05856,-0.02684,0.00488,-0.03416,0.01952,-0.05368,-0.122,-0.15128,-0.11224,-0.06832
-0.07808,0.06832,-0.05856,-0.01952,0.01952,-0.0488,0.0244,-0.05368,-0.122,-0.15128,-0.11224,-0.06832
-0.06344,0.06344,-0.06344,-0.03172,0,-0.03172,0.01464,-0.06344,-0.122,-0.16104,-0.11712,-0.0732
-0.05368,0.05856,-0.06344,-0.0366,-0.00976,-0.02196,0.01464,-0.06344,-0.122,-0.16104,-0.11712,-0.0732
-0.05368,0.05856,-0.06344,-0.0366,-0.00976,-0.02196,0.01464,-0.06344,-0.122,-0.15128,-0.11712,-0.0732
-0.05368,0.061,-0.06832,-0.04148,-0.01464,-0.01952,0.01464,-0.05856,-0.122,-0.14152,-0.11224,-0.06832
-0.05368,0.061,-0.06832,-0.04148,-0.01464,-0.01952,0.01952,-0.05368,-0.12688,-0.14152,-0.11224,-0.06832
-0.05368,0.05856,-0.06344,-0.0366,-0.00976,-0.02196,0.01952,-0.05368,-0.12688,-0.14152,-0.11224,-0.06832
-0.05368,0.05856,-0.06344,-0.0366,-0.00976,-0.02196,0.01952,-0.05368,-0.122,-0.13664,-0.10736,-0.06344
-0.0488,0.05612,-0.06344,-0.03904,-0.01464,-0.01708,0.0244,-0.05368,-0.11712,-0.13176,-0.10736,-0.05856
-0.05368,0.06588,-0.07808,-0.05124,-0.0244,-0.01464,0.0244,-0.04392,-0.11712,-0.12688,-0.0976,-0.05856
-0.05368,0.0732,-0.09272,-0.06588,-0.03904,-0.00732,0.03904,0.00976,-0.07808,-0.0976,-0.09272,-0.05856
-0.06832,0.0854,-0.10248,-0.06832,-0.03416,-0.01708,0.07808,0.11224,0.0244,-0.05856,-0.10248,-0.0732
-0.06832,0.06832,-0.06832,-0.03416,0,-0.03416,0.10736,0.19032,0.13176,0.00488,-0.08296,-0.07808
-0.01464,0.01464,-0.01464,-0.00732,0,-0.00732,0.10736,0.2928,0.38064,0.22448,0.0488,-0.01464
0.05368,-0.0732,0.09272,0.06588,0.03904,0.00732,0.08784,0.41968,0.732,0.57096,0.25864,0.08784
0.14152,-0.2074,0.27328,0.20252,0.13176,0.00488,-0.00976,0.35624,0.854,0.83448,0.56608,0.26352
0.18544,-0.31964,0.45384,0.36112,0.2684,-0.04148,-0.10248,0.03904,0.44408,0.854,0.7808,0.4148
0.16592,-0.4636,0.76128,0.67832,0.59536,-0.21472,-0.22936,-0.4392,-0.20984,0.78568,1.0248,0.54168
0.07808,-0.48068,0.88328,0.84424,0.8052,-0.36356,-0.24888,-0.73688,-0.5124,0.78568,1.20048,0.59048
0.03904,-0.32452,0.61,0.59048,0.57096,-0.26596,-0.17568,-0.67344,-0.60512,0.74176,1.21512,0.58072
0.00488,-0.14152,0.27816,0.27572,0.27328,-0.1342,-0.10248,-0.60512,-0.77104,0.40992,0.90768,0.46848
-0.0732,0.05612,-0.03904,-0.00244,0.03416,-0.05368,-0.03904,-0.61488,-0.9272,-0.10736,0.27328,0.18544
-0.15128,0.20252,-0.25376,-0.17812,-0.10248,-0.0244,0.00976,-0.64904,-1.13216,-0.7564,-0.38552,-0.08784
-0.18544,0.25376,-0.32208,-0.22936,-0.13664,-0.0244,0.02928,-0.55632,-1.08336,-0.81984,-0.4392,-0.13176
-0.18056,0.24888,-0.3172,-0.22692,-0.13664,-0.02196,0.09272,-0.3904,-0.86864,-0.64416,-0.3416,-0.122
-0.13176,0.1952,-0.25864,-0.19276,-0.12688,-0.00244,0.0488,-0.22448,-0.59536,-0.42944,-0.25864,-0.10736
-0.08784,0.1342,-0.18056,-0.13664,-0.09272,0.00244,0.03416,-0.0976,-0.39528,-0.29768,-0.20496,-0.10736
-0.06832,0.07808,-0.08784,-0.05368,-0.01952,-0.0244,-0.00488,-0.06832,-0.2684,-0.20984,-0.13176,-0.0732
-0.06344,0.0488,-0.03416,-0.00244,0.02928,-0.04636,-0.01464,-0.06344,-0.18056,-0.15616,-0.08784,-0.04392
-0.05368,0.04392,-0.03416,-0.00732,0.01952,-0.0366,-0.00488,-0.0488,-0.12688,-0.122,-0.08784,-0.05368
-0.05368,0.04392,-0.03416,-0.00732,0.01952,-0.0366,0.00976,-0.03416,-0.08784,-0.0976,-0.08784,-0.05368
-0.05368,0.04392,-0.03416,-0.00732,0.01952,-0.0366,0.0244,-0.02928,-0.0732,-0.0976,-0.08296,-0.0488
-0.05856,0.04636,-0.03416,-0.00488,0.0244,-0.04148,0.02928,-0.01952,-0.06832,-0.0976,-0.0732,-0.03904
-0.05856,0.04636,-0.03416,-0.00488,0.0244,-0.04148,0.03904,-0.00976,-0.05368,-0.08296,-0.0732,-0.03904
-0.05856,0.04636,-0.03416,-0.00488,0.0244,-0.04148,0.03904,-0.00488,-0.03904,-0.07808,-0.0732,-0.03904
-0.06344,0.04636,-0.02928,0.00244,0.03416,-0.0488,0.03416,-0.00488,-0.03416,-0.0732,-0.0732,-0.04392
-0.06832,0.0488,-0.02928,0.00488,0.03904,-0.05368,0.03416,-0.00488,-0.03416,-0.0732,-0.0732,-0.04392
-0.06344,0.0488,-0.03416,-0.00244,0.02928,-0.04636,0.03416,0,-0.02928,-0.06832,-0.06832,-0.04392
-0.05856,0.04636,-0.03416,-0.00488,0.0244,-0.04148,0.03416,0,-0.01952,-0.0732,-0.06832,-0.04392
-0.03904,0.03172,-0.0244,-0.00488,0.01464,-0.02684,0.02928,-0.00976,-0.0244,-0.06832,-0.06832,-0.04392
-0.01464,0.01952,-0.0244,-0.01708,-0.00976,-0.00244,0.02928,-0.01952,-0.0244,-0.06832,-0.06832,-0.04392
-0.0244,0.02928,-0.03416,-0.02196,-0.00976,-0.00732,0.02928,-0.00488,-0.01464,-0.05856,-0.05368,-0.03904
-0.03904,0.03904,-0.03904,-0.01952,0,-0.01952,0.03416,0.00976,-0.00976,-0.0488,-0.05368,-0.03416
-0.05368,0.04636,-0.03904,-0.0122,0.01464,-0.03416,0.03904,0.01464,0,-0.04392,-0.0488,-0.02928
-0.06832,0.05368,-0.03904,-0.00488,0.02928,-0.0488,0.03904,0.01464,0.00488,-0.04392,-0.0488,-0.02928
-0.05856,0.04392,-0.02928,0,0.02928,-0.04392,0.03416,0.01464,0.00976,-0.04392,-0.0488,-0.02928
-0.04392,0.02928,-0.01464,0.00732,0.02928,-0.0366,0.02928,0.01464,0.00976,-0.04392,-0.05368,-0.03416
-0.03416,0.0244,-0.01464,0.00244,0.01952,-0.02684,0.02928,0.01464,0,-0.04392,-0.05856,-0.04392
-0.0244,0.01708,-0.00976,0.00244,0.01464,-0.01952,0.02928,0.01464,-0.00976,-0.04392,-0.06344,-0.05368
-0.01952,0.01708,-0.01464,-0.00488,0.00488,-0.0122,0.02928,0.01464,0,-0.03904,-0.05856,-0.04392
-0.01952,0.01952,-0.01952,-0.00976,0,-0.00976,0.02928,0.01952,0,-0.03416,-0.05368,-0.02928
-0.01952,0.01952,-0.01952,-0.00976,0,-0.00976,0.03416,0.01464,0.00976,-0.02928,-0.05368,-0.0244
-0.01464,0.01708,-0.01952,-0.0122,-0.00488,-0.00488,0.03416,0.00976,0.01464,-0.0244,-0.0488,-0.0244
-0.01952,0.01708,-0.01464,-0.00488,0.00488,-0.0122,0.03416,0.01464,0.01952,-0.01952,-0.0488,-0.0244
-0.01952,0.01708,-0.01464,-0.00488,0.00488,-0.0122,0.03416,0.01464,0.0244,-0.01952,-0.04392,-0.0244
-0.04392,0.03172,-0.01952,0.00244,0.0244,-0.03416,0.03416,0.02928,0.03416,-0.00976,-0.03904,-0.01464
-0.05368,0.0366,-0.01952,0.00732,0.03416,-0.04392,0.03416,0.03904,0.04392,0,-0.02928,-0.00976
-0.05368,0.03172,-0.00976,0.01708,0.04392,-0.0488,0.02928,0.03904,0.04392,0,-0.01952,-0.00976
-0.05368,0.0366,-0.01952,0.00732,0.03416,-0.04392,0.02928,0.03904,0.0488,0,-0.00976,-0.00976
-0.04392,0.02684,-0.00976,0.0122,0.03416,-0.03904,0.02928,0.03416,0.0488,0.00488,-0.0244,-0.01464
-0.02928,0.01464,0,0.01464,0.02928,-0.02928,0.0244,0.02928,0.0488,0.00488,-0.03416,-0.00976
-0.0244,0.01708,-0.00976,0.00244,0.01464,-0.01952,0.01952,0.02928,0.0488,0,-0.02928,-0.00976
-0.00976,0.01708,-0.0244,-0.01952,-0.01464,0.00244,0.01952,0.02928,0.05368,0,-0.02928,-0.00976
-0.00488,0.00976,-0.01464,-0.0122,-0.00976,0.00244,0.01464,0.02928,0.05368,0.00488,-0.0244,-0.00976
0.00976,-0.00244,-0.00488,-0.00976,-0.01464,0.0122,0.00976,0.02928,0.05856,0.00976,-0.01952,-0.00976
0.00976,-0.00244,-0.00488,-0.00976,-0.01464,0.0122,0.00488,0.03904,0.06832,0.01952,-0.01464,-0.00488
0.00976,-0.00488,0,-0.00488,-0.00976,0.00976,0.00488,0.04392,0.0732,0.01952,-0.00976,0
0,0.00244,-0.00488,-0.00488,-0.00488,0.00244,0.00976,0.0488,0.08296,0.02928,-0.00488,0.00976
-0.01464,0.00976,-0.00488,0.00244,0.00976,-0.0122,0.01464,0.0488,0.08784,0.03904,0.00488,0.01464
-0.01464,0.00976,-0.00488,0.00244,0.00976,-0.0122,0.00976,0.0488,0.0976,0.05368,0.00976,0.01464
-0.01464,0.00732,0,0.00732,0.01464,-0.01464,0.00488,0.05368,0.0976,0.05368,0.01464,0.01464
-0.00488,0,0.00488,0.00732,0.00976,-0.00732,0.00488,0.05368,0.0976,0.05368,0.01464,0.01464
0.00488,-0.00732,0.00976,0.00732,0.00488,0,0,0.05368,0.10736,0.05368,0.01952,0.01464
0.01952,-0.01952,0.01952,0.00976,0,0.00976,-0.00976,0.05368,0.10736,0.05856,0.01952,0.01464
0.01952,-0.02196,0.0244,0.01464,0.00488,0.00732,-0.00976,0.05368,0.11712,0.06832,0.01952,0.01464
0.01952,-0.02196,0.0244,0.01464,0.00488,0.00732,-0.00976,0.05856,0.13176,0.07808,0.03416,0.01952
0.01464,-0.02196,0.02928,0.02196,0.01464,0,-0.00976,0.05856,0.15128,0.08784,0.04392,0.02928
0.01952,-0.02684,0.03416,0.0244,0.01464,0.00244,-0.00976,0.06344,0.1464,0.0976,0.0488,0.03416
0.02928,-0.03416,0.03904,0.0244,0.00976,0.00976,-0.00976,0.06344,0.1464,0.10736,0.05856,0.03416
0.02928,-0.0366,0.04392,0.02928,0.01464,0.00732,-0.01952,0.0732,0.15616,0.122,0.06832,0.03904
0.02928,-0.03904,0.0488,0.03416,0.01952,0.00488,-0.01952,0.0732,0.16592,0.14152,0.0732,0.0488
0.0244,-0.0366,0.0488,0.0366,0.0244,0,-0.0244,0.07808,0.18056,0.15128,0.08784,0.05856
0.02928,-0.03904,0.0488,0.03416,0.01952,0.00488,-0.03416,0.07808,0.1952,0.15616,0.0976,0.06344
0.03416,-0.04392,0.05368,0.0366,0.01952,0.00732,-0.03416,0.07808,0.20496,0.1708,0.10736,0.06344
0.03904,-0.04636,0.05368,0.03416,0.01464,0.0122,-0.03416,0.08784,0.21472,0.18544,0.122,0.06832
0.0488,-0.061,0.0732,0.0488,0.0244,0.0122,-0.0488,0.08784,0.22448,0.20008,0.13176,0.07808
0.0488,-0.06588,0.08296,0.05856,0.03416,0.00732,-0.0488,0.0976,0.244,0.21472,0.1464,0.08296
0.04392,-0.06344,0.08296,0.061,0.03904,0.00244,-0.04392,0.10736,0.27328,0.23912,0.16592,0.0976
0.04392,-0.06588,0.08784,0.06588,0.04392,0,-0.04392,0.11712,0.2928,0.2684,0.18056,0.10736
0.0488,-0.0732,0.0976,0.0732,0.0488,0,-0.0488,0.12688,0.30744,0.28792,0.1952,0.10736
0.05856,-0.08052,0.10248,0.0732,0.04392,0.00732,-0.05368,0.14152,0.33184,0.30744,0.2196,0.11224
0.06832,-0.09028,0.11224,0.07808,0.04392,0.0122,-0.06344,0.14152,0.35136,0.33672,0.23424,0.122
0.07808,-0.10004,0.122,0.08296,0.04392,0.01708,-0.06832,0.14152,0.37088,0.366,0.24888,0.13176
0.08296,-0.10736,0.13176,0.09028,0.0488,0.01708,-0.0732,0.15616,0.3904,0.39528,0.27816,0.14152
0.09272,-0.11712,0.14152,0.09516,0.0488,0.02196,-0.08296,0.16592,0.4148,0.42456,0.30256,0.15128
0.10736,-0.12932,0.15128,0.0976,0.04392,0.03172,-0.09272,0.17568,0.44896,0.45384,0.3172,0.16104
0.12688,-0.1464,0.16592,0.10248,0.03904,0.04392,-0.0976,0.18056,0.47824,0.48312,0.3416,0.17568
0.13176,-0.15372,0.17568,0.1098,0.04392,0.04392,-0.10248,0.1952,0.50264,0.51728,0.366,0.18544
0.15128,-0.16592,0.18056,0.10492,0.02928,0.061,-0.10736,0.20496,0.53192,0.55632,0.3904,0.1952
0.16104,-0.17568,0.19032,0.1098,0.02928,0.06588,-0.122,0.2196,0.55632,0.59048,0.4148,0.20984
0.16592,-0.18544,0.20496,0.122,0.03904,0.06344,-0.13176,0.22448,0.5856,0.61976,0.4392,0.2196
0.16592,-0.19032,0.21472,0.13176,0.0488,0.05856,-0.12688,0.23912,0.61,0.6588,0.46848,0.23424
0.18056,-0.20496,0.22936,0.13908,0.0488,0.06588,-0.13176,0.24888,0.6344,0.69296,0.488,0.244
0.18056,-0.20984,0.23912,0.14884,0.05856,0.061,-0.13176,0.24888,0.6588,0.72224,0.51728,0.25864
0.1708,-0.2074,0.244,0.1586,0.0732,0.0488,-0.13176,0.26352,0.6832,0.75152,0.54656,0.27328
0.18056,-0.21716,0.25376,0.16348,0.0732,0.05368,-0.14152,0.2684,0.70272,0.78568,0.5612,0.28304
0.18056,-0.2196,0.25864,0.16836,0.07808,0.05124,-0.14152,0.2684,0.71736,0.81008,0.5856,0.29768
0.18544,-0.22692,0.2684,0.17568,0.08296,0.05124,-0.14152,0.2684,0.72224,0.8296,0.60512,0.31232
0.19032,-0.2318,0.27328,0.17812,0.08296,0.05368,-0.1464,0.26352,0.71736,0.83448,0.61,0.3172
0.20008,-0.23912,0.27816,0.17812,0.07808,0.061,-0.1464,0.24888,0.7076,0.8296,0.60512,0.30744
0.20496,-0.23912,0.27328,0.1708,0.06832,0.06832,-0.1464,0.23424,0.6832,0.81008,0.59048,0.30256
0.1952,-0.22936,0.26352,0.16592,0.06832,0.06344,-0.13664,0.2196,0.65392,0.77104,0.57584,0.2928
0.17568,-0.20984,0.244,0.15616,0.06832,0.05368,-0.13176,0.20984,0.61976,0.72224,0.54168,0.27816
0.1464,-0.18544,0.22448,0.15128,0.07808,0.03416,-0.11224,0.1952,0.58072,0.67344,0.49776,0.26352
0.13176,-0.16348,0.1952,0.12932,0.06344,0.03416,-0.10248,0.17568,0.52704,0.60512,0.44896,0.23912
0.10736,-0.1464,0.18544,0.13176,0.07808,0.01464,-0.08784,0.16592,0.46848,0.5368,0.40504,0.20984
0.08296,-0.12688,0.1708,0.12932,0.08784,-0.00244,-0.07808,0.1464,0.4148,0.4636,0.36112,0.18544
0.05856,-0.10248,0.1464,0.11712,0.08784,-0.01464,-0.06344,0.12688,0.366,0.40016,0.2928,0.15616
0.02928,-0.0732,0.11712,0.10248,0.08784,-0.02928,-0.04392,0.11224,0.31232,0.33672,0.23912,0.13664
0.04392,-0.07564,0.10736,0.0854,0.06344,-0.00976,-0.03904,0.09272,0.244,0.2684,0.19032,0.10248
0.04392,-0.06344,0.08296,0.061,0.03904,0.00244,-0.02928,0.0732,0.1952,0.20008,0.1464,0.07808
0.04392,-0.05368,0.06344,0.04148,0.01952,0.0122,-0.02928,0.05368,0.16104,0.16592,0.10248,0.05856
0.0488,-0.04392,0.03904,0.01464,-0.00976,0.02928,-0.02928,0.03416,0.12688,0.11712,0.06832,0.03904
0.0244,-0.0244,0.0244,0.0122,0,0.0122,-0.01952,0.0244,0.08296,0.06832,0.02928,0.01464
0,-0.00488,0.00976,0.00976,0.00976,-0.00488,0,0.02928,0.06832,0.03416,0.01464,0.00976
-0.01952,0.0122,-0.00488,0.00488,0.01464,-0.01708,0.00488,0.02928,0.05368,0.01952,0,0
-0.02928,0.02196,-0.01464,0,0.01464,-0.02196,0.01952,0.02928,0.0488,0.00488,-0.01464,-0.00488
-0.03416,0.02684,-0.01952,-0.00244,0.01464,-0.0244,0.01952,0.0244,0.0244,-0.00976,-0.02928,-0.01464
-0.03416,0.03416,-0.03416,-0.01708,0,-0.01708,0.01952,0.01952,0.00488,-0.02928,-0.04392,-0.0244
-0.03904,0.0366,-0.03416,-0.01464,0.00488,-0.02196,0.0244,0.00976,-0.00488,-0.03904,-0.05856,-0.02928
-0.03904,0.0366,-0.03416,-0.01464,0.00488,-0.02196,0.0244,0.00488,-0.01464,-0.0488,-0.06832,-0.0244
-0.03904,0.0366,-0.03416,-0.01464,0.00488,-0.02196,0.0244,0.00488,-0.01952,-0.05368,-0.06832,-0.0244
-0.05368,0.04392,-0.03416,-0.00732,0.01952,-0.0366,0.02928,0.00976,-0.01952,-0.05368,-0.06832,-0.02928
-0.06832,0.05368,-0.03904,-0.00488,0.02928,-0.0488,0.03416,0.00976,-0.01464,-0.05856,-0.07808,-0.03416
-0.06832,0.05368,-0.03904,-0.00488,0.02928,-0.0488,0.03904,0.00976,-0.01464,-0.06344,-0.08296,-0.03904
-0.0488,0.04392,-0.03904,-0.01464,0.00976,-0.02928,0.03416,0.00488,-0.01952,-0.06344,-0.08296,-0.03904
-0.03416,0.03416,-0.03416,-0.01708,0,-0.01708,0.0244,0,-0.01952,-0.06832,-0.08784,-0.04392
-0.03416,0.0366,-0.03904,-0.02196,-0.00488,-0.01464,0.0244,0,-0.01952,-0.06832,-0.08296,-0.04392
-0.03904,0.04148,-0.04392,-0.0244,-0.00488,-0.01708,0.0244,0,-0.01952,-0.06344,-0.07808,-0.04392
-0.04392,0.04148,-0.03904,-0.01708,0.00488,-0.0244,0.02928,0.00488,-0.01464,-0.06344,-0.0732,-0.03904
-0.05368,0.04636,-0.03904,-0.0122,0.01464,-0.03416,0.02928,0.00488,-0.01464,-0.06344,-0.0732,-0.03904
-0.04392,0.04148,-0.03904,-0.01708,0.00488,-0.0244,0.02928,0.00488,-0.01464,-0.05856,-0.0732,-0.03904
-0.02928,0.03416,-0.03904,-0.0244,-0.00976,-0.00976,0.02928,0.00488,-0.01464,-0.05856,-0.07808,-0.03904
-0.0244,0.03172,-0.03904,-0.02684,-0.01464,-0.00488,0.02928,0.00488,-0.01952,-0.06344,-0.07808,-0.03904
-0.01464,0.02684,-0.03904,-0.03172,-0.0244,0.00488,0.0244,0,-0.0244,-0.06832,-0.07808,-0.03904
-0.01952,0.02928,-0.03904,-0.02928,-0.01952,0,0.0244,0,-0.0244,-0.06832,-0.07808,-0.03904
-0.02928,0.03416,-0.03904,-0.0244,-0.00976,-0.00976,0.0244,0,-0.0244,-0.06832,-0.07808,-0.03904
-0.02928,0.03172,-0.03416,-0.01952,-0.00488,-0.0122,0.01952,0,-0.0244,-0.06832,-0.07808,-0.03904
-0.02928,0.02928,-0.02928,-0.01464,0,-0.01464,0.01952,0,-0.01952,-0.06344,-0.07808,-0.03904
-0.02928,0.03172,-0.03416,-0.01952,-0.00488,-0.0122,0.01952,0,-0.01464,-0.06344,-0.0732,-0.03904
-0.02928,0.03416,-0.03904,-0.0244,-0.00976,-0.00976,0.01952,0,-0.01464,-0.05856,-0.06344,-0.03416
-0.02928,0.03416,-0.03904,-0.0244,-0.00976,-0.00976,0.0244,0,-0.01464,-0.05856,-0.06344,-0.03416
-0.03416,0.0366,-0.03904,-0.02196,-0.00488,-0.01464,0.02928,0,-0.01952,-0.05856,-0.06344,-0.03416
-0.03904,0.03904,-0.03904,-0.01952,0,-0.01952,0.02928,0.00488,-0.01952,-0.05856,-0.06344,-0.03416
-0.04392,0.04148,-0.03904,-0.01708,0.00488,-0.0244,0.02928,0.00976,-0.01952,-0.05368,-0.05856,-0.02928
-0.04392,0.03904,-0.03416,-0.0122,0.00976,-0.02684,0.0244,0.00976,-0.01952,-0.05368,-0.05856,-0.02928
-0.04392,0.03904,-0.03416,-0.0122,0.00976,-0.02684,0.01952,0.00976,-0.01952,-0.05368,-0.05368,-0.02928
-0.0488,0.03904,-0.02928,-0.00488,0.01952,-0.03416,0.01952,0.00488,-0.01952,-0.05368,-0.05368,-0.02928
-0.0488,0.0366,-0.0244,0,0.0244,-0.0366,0.01952,0.00488,-0.01952,-0.05856,-0.05368,-0.02928
-0.04392,0.03416,-0.0244,-0.00244,0.01952,-0.03172,0.0244,0.00488,-0.0244,-0.05856,-0.05856,-0.02928
-0.04392,0.0366,-0.02928,-0.00732,0.01464,-0.02928,0.02928,0.00488,-0.0244,-0.05856,-0.05856,-0.02928
-0.05368,0.04148,-0.02928,-0.00244,0.0244,-0.03904,0.03416,0.00976,-0.01952,-0.0488,-0.05856,-0.0244
-0.06344,0.0488,-0.03416,-0.00244,0.02928,-0.04636,0.04392,0.01464,-0.01464,-0.03904,-0.05368,-0.01952
-0.06344,0.05124,-0.03904,-0.00732,0.0244,-0.04392,0.04392,0.01464,-0.01952,-0.0488,-0.05368,-0.01952
-0.06344,0.05124,-0.03904,-0.00732,0.0244,-0.04392,0.03904,0.00976,-0.02928,-0.05368,-0.05856,-0.0244
-0.03416,0.0366,-0.03904,-0.02196,-0.00488,-0.01464,0.0244,0,-0.03904,-0.0732,-0.06344,-0.03416
-0.00488,0.02196,-0.03904,-0.0366,-0.03416,0.01464,0.01464,-0.01464,-0.05368,-0.09272,-0.0732,-0.03904
-0.00488,0.0244,-0.04392,-0.04148,-0.03904,0.01708,0.01464,-0.01464,-0.05368,-0.09272,-0.0732,-0.03904
-0.00488,0.0244,-0.04392,-0.04148,-0.03904,0.01708,0.01952,-0.01464,-0.05856,-0.09272,-0.07808,-0.04392
-0.00976,0.02684,-0.04392,-0.03904,-0.03416,0.0122,0.01952,-0.01464,-0.05368,-0.08784,-0.0732,-0.03904
-0.01952,0.03172,-0.04392,-0.03416,-0.0244,0.00244,0.01952,-0.01464,-0.0488,-0.07808,-0.0732,-0.03416
-0.02928,0.0366,-0.04392,-0.02928,-0.01464,-0.00732,0.01952,-0.01464,-0.05368,-0.08296,-0.0732,-0.03416
-0.03416,0.04148,-0.0488,-0.03172,-0.01464,-0.00976,0.01952,-0.01464,-0.05368,-0.08296,-0.06832,-0.03416
-0.03904,0.04148,-0.04392,-0.0244,-0.00488,-0.01708,0.01952,-0.01464,-0.05368,-0.08296,-0.06832,-0.03416
-0.03904,0.04148,-0.04392,-0.0244,-0.00488,-0.01708,0.01952,-0.01464,-0.05368,-0.08296,-0.06832,-0.03416
-0.03904,0.04148,-0.04392,-0.0244,-0.00488,-0.01708,0.0244,-0.01464,-0.05856,-0.08296,-0.0732,-0.03416
-0.03904,0.04148,-0.04392,-0.0244,-0.00488,-0.01708,0.02928,-0.0244,-0.06832,-0.09272,-0.07808,-0.04392
-0.02928,0.03904,-0.0488,-0.03416,-0.01952,-0.00488,0.0244,-0.0244,-0.06832,-0.09272,-0.07808,-0.04392
-0.02928,0.04148,-0.05368,-0.03904,-0.0244,-0.00244,0.0244,-0.0244,-0.06832,-0.09272,-0.07808,-0.04392
-0.03416,0.04392,-0.05368,-0.0366,-0.01952,-0.00732,0.02928,-0.0244,-0.06832,-0.08784,-0.07808,-0.04392
-0.04392,0.05612,-0.06832,-0.04636,-0.0244,-0.00976,0.03416,-0.01464,-0.06344,-0.08296,-0.0732,-0.03904
-0.0488,0.05368,-0.05856,-0.03416,-0.00976,-0.01952,0.03416,-0.01464,-0.06344,-0.08296,-0.0732,-0.03904
-0.0488,0.05124,-0.05368,-0.02928,-0.00488,-0.02196,0.03416,-0.01952,-0.06344,-0.08296,-0.0732,-0.03904
-0.04392,0.05124,-0.05856,-0.0366,-0.01464,-0.01464,0.03416,-0.01952,-0.05856,-0.08296,-0.0732,-0.03904
-0.04392,0.05368,-0.06344,-0.04148,-0.01952,-0.0122,0.03416,-0.01952,-0.05856,-0.08296,-0.07808,-0.03904
-0.03416,0.05124,-0.06832,-0.05124,-0.03416,0,0.02928,-0.01952,-0.06344,-0.08784,-0.07808,-0.04392
-0.0244,0.0488,-0.0732,-0.061,-0.0488,0.0122,0.02928,-0.01952,-0.06344,-0.08784,-0.07808,-0.04392
-0.0244,0.04392,-0.06344,-0.05124,-0.03904,0.00732,0.03416,-0.01952,-0.06344,-0.08784,-0.08296,-0.04392
-0.03416,0.04148,-0.0488,-0.03172,-0.01464,-0.00976,0.03416,-0.01952,-0.06344,-0.08784,-0.08296,-0.04392
-0.05856,0.05368,-0.0488,-0.01952,0.00976,-0.03416,0.03416,-0.01464,-0.05856,-0.08784,-0.07808,-0.03904
-0.0732,0.061,-0.0488,-0.0122,0.0244,-0.0488,0.03416,-0.00976,-0.05856,-0.08784,-0.07808,-0.03904
-0.06832,0.05856,-0.0488,-0.01464,0.01952,-0.04392,0.03416,-0.01464,-0.06344,-0.08784,-0.08296,-0.04392
-0.05368,0.05124,-0.0488,-0.02196,0.00488,-0.02928,0.02928,-0.01464,-0.06344,-0.09272,-0.08296,-0.04392
-0.05368,0.05368,-0.05368,-0.02684,0,-0.02684,0.02928,-0.01464,-0.06832,-0.09272,-0.08296,-0.03904
-0.05856,0.061,-0.06344,-0.03416,-0.00488,-0.02684,0.02928,-0.01464,-0.06832,-0.09272,-0.08296,-0.03416
-0.05856,0.061,-0.06344,-0.03416,-0.00488,-0.02684,0.02928,-0.01464,-0.06832,-0.09272,-0.08296,-0.03416
-0.05856,0.05856,-0.05856,-0.02928,0,-0.02928,0.02928,-0.01952,-0.0732,-0.0976,-0.08784,-0.03904
-0.03904,0.0488,-0.05856,-0.03904,-0.01952,-0.00976,0.03416,-0.01952,-0.0732,-0.0976,-0.08784,-0.03904
-0.01952,0.03904,-0.05856,-0.0488,-0.03904,0.00976,0.03904,-0.01952,-0.07808,-0.0976,-0.08784,-0.03904
-0.03904,0.05124,-0.06344,-0.04392,-0.0244,-0.00732,0.03904,-0.01952,-0.07808,-0.0976,-0.08784,-0.03904
-0.05856,0.06344,-0.06832,-0.03904,-0.00976,-0.0244,0.03904,-0.01952,-0.07808,-0.0976,-0.08784,-0.03904
-0.05856,0.06344,-0.06832,-0.03904,-0.00976,-0.0244,0.03904,-0.01952,-0.07808,-0.10248,-0.08784,-0.03904
-0.05856,0.06344,-0.06832,-0.03904,-0.00976,-0.0244,0.03904,-0.01952,-0.07808,-0.10736,-0.08784,-0.03904
-0.04392,0.05612,-0.06832,-0.04636,-0.0244,-0.00976,0.03416,-0.01952,-0.08296,-0.10736,-0.09272,-0.04392
-0.02928,0.0488,-0.06832,-0.05368,-0.03904,0.00488,0.02928,-0.01952,-0.08784,-0.10736,-0.0976,-0.0488
-0.02928,0.0488,-0.06832,-0.05368,-0.03904,0.00488,0.02928,-0.01952,-0.08784,-0.10736,-0.0976,-0.0488
-0.02928,0.0488,-0.06832,-0.05368,-0.03904,0.00488,0.02928,-0.01952,-0.08784,-0.10736,-0.0976,-0.0488
-0.03416,0.05124,-0.06832,-0.05124,-0.03416,0,0.02928,-0.01952,-0.08784,-0.10736,-0.09272,-0.0488
-0.03904,0.05368,-0.06832,-0.0488,-0.02928,-0.00488,0.02928,-0.01952,-0.08784,-0.10736,-0.08784,-0.0488
-0.04392,0.05368,-0.06344,-0.04148,-0.01952,-0.0122,0.02928,-0.01952,-0.08784,-0.10736,-0.08784,-0.0488
-0.0488,0.05368,-0.05856,-0.03416,-0.00976,-0.01952,0.02928,-0.01952,-0.08784,-0.10736,-0.08784,-0.0488
-0.0488,0.05368,-0.05856,-0.03416,-0.00976,-0.01952,0.02928,-0.01952,-0.08784,-0.10736,-0.09272,-0.0488
-0.0488,0.05368,-0.05856,-0.03416,-0.00976,-0.01952,0.02928,-0.01952,-0.08784,-0.10736,-0.0976,-0.0488
-0.03904,0.05124,-0.06344,-0.04392,-0.0244,-0.00732,0.02928,-0.01952,-0.08784,-0.10736,-0.0976,-0.0488
-0.02928,0.0488,-0.06832,-0.05368,-0.03904,0.00488,0.02928,-0.01952,-0.08784,-0.10736,-0.0976,-0.0488
-0.02928,0.05124,-0.0732,-0.05856,-0.04392,0.00732,0.02928,-0.01952,-0.08784,-0.10736,-0.0976,-0.0488
-0.02928,0.05368,-0.07808,-0.06344,-0.0488,0.00976,0.02928,-0.01952,-0.08784,-0.10736,-0.0976,-0.0488
-0.03416,0.05612,-0.07808,-0.061,-0.04392,0.00488,0.02928,-0.01952,-0.08784,-0.10736,-0.09272,-0.0488
-0.03904,0.05856,-0.07808,-0.05856,-0.03904,0,0.02928,-0.01952,-0.08784,-0.10736,-0.08784,-0.0488
-0.04392,0.05612,-0.06832,-0.04636,-0.0244,-0.00976,0.02928,-0.01952,-0.08784,-0.10736,-0.08784,-0.0488
-0.0488,0.05368,-0.05856,-0.03416,-0.00976,-0.01952,0.02928,-0.01952,-0.08784,-0.10736,-0.08784,-0.0488
-0.0488,0.05368,-0.05856,-0.03416,-0.00976,-0.01952,0.02928,-0.01952,-0.08784,-0.10736,-0.08784,-0.0488
-0.0488,0.05368,-0.05856,-0.03416,-0.00976,-0.01952,0.02928,-0.01952,-0.08784,-0.10736,-0.08784,-0.0488
-0.0488,0.05368,-0.05856,-0.03416,-0.00976,-0.01952,0.02928,-0.01952,-0.08784,-0.10736,-0.08784,-0.0488
-0.0488,0.05368,-0.05856,-0.03416,-0.00976,-0.01952,0.02928,-0.01952,-0.08784,-0.10736,-0.08784,-0.0488
-0.0488,0.05856,-0.06832,-0.04392,-0.01952,-0.01464,0.03416,-0.01952,-0.08784,-0.10736,-0.08784,-0.04392
-0.0488,0.06344,-0.07808,-0.05368,-0.02928,-0.00976,0.03904,-0.01952,-0.08784,-0.10736,-0.08784,-0.03904
-0.0488,0.06344,-0.07808,-0.05368,-0.02928,-0.00976,0.03904,-0.01952,-0.08784,-0.10736,-0.09272,-0.03904
-0.0488,0.06344,-0.07808,-0.05368,-0.02928,-0.00976,0.03904,-0.01952,-0.08784,-0.10736,-0.0976,-0.03904
-0.0244,0.05124,-0.07808,-0.06588,-0.05368,0.01464,0.0244,-0.02928,-0.0976,-0.11712,-0.10736,-0.0488
0,0.03904,-0.07808,-0.07808,-0.07808,0.03904,0.00976,-0.03904,-0.10736,-0.12688,-0.11712,-0.05856
-0.01464,0.04636,-0.07808,-0.07076,-0.06344,0.0244,0.01952,-0.02928,-0.0976,-0.11712,-0.10736,-0.0488
-0.02928,0.05368,-0.07808,-0.06344,-0.0488,0.00976,0.02928,-0.01952,-0.08784,-0.10736,-0.0976,-0.03904
-0.03904,0.05368,-0.06832,-0.0488,-0.02928,-0.00488,0.02928,-0.01952,-0.08784,-0.10736,-0.09272,-0.03904
-0.0488,0.05368,-0.05856,-0.03416,-0.00976,-0.01952,0.02928,-0.01952,-0.08784,-0.10736,-0.08784,-0.03904
-0.0488,0.05368,-0.05856,-0.03416,-0.00976,-0.01952,0.02928,-0.01952,-0.08784,-0.10736,-0.08784,-0.03904
-0.0488,0.05368,-0.05856,-0.03416,-0.00976,-0.01952,0.02928,-0.01952,-0.08784,-0.10736,-0.08784,-0.03904
-0.03904,0.05124,-0.06344,-0.04392,-0.0244,-0.00732,0.02928,-0.0244,-0.08784,-0.10736,-0.09272,-0.03904
-0.02928,0.0488,-0.06832,-0.05368,-0.03904,0.00488,0.02928,-0.02928,-0.08784,-0.10736,-0.0976,-0.03904
-0.02928,0.0488,-0.06832,-0.05368,-0.03904,0.00488,0.02928,-0.02928,-0.09272,-0.10736,-0.0976,-0.04392
-0.02928,0.0488,-0.06832,-0.05368,-0.03904,0.00488,0.02928,-0.02928,-0.0976,-0.10736,-0.0976,-0.0488
-0.03416,0.05124,-0.06832,-0.05124,-0.03416,0,0.02928,-0.0244,-0.0976,-0.10736,-0.0976,-0.0488
-0.03904,0.05368,-0.06832,-0.0488,-0.02928,-0.00488,0.02928,-0.01952,-0.0976,-0.10736,-0.0976,-0.0488
-0.03904,0.05368,-0.06832,-0.0488,-0.02928,-0.00488,0.02928,-0.01952,-0.09272,-0.10736,-0.0976,-0.0488
-0.03904,0.05368,-0.06832,-0.0488,-0.02928,-0.00488,0.02928,-0.01952,-0.08784,-0.10736,-0.0976,-0.0488
-0.03904,0.05368,-0.06832,-0.0488,-0.02928,-0.00488,0.02928,-0.01952,-0.08784,-0.10736,-0.0976,-0.0488
-0.03904,0.05368,-0.06832,-0.0488,-0.02928,-0.00488,0.02928,-0.01952,-0.08784,-0.10736,-0.0976,-0.0488
-0.04392,0.05612,-0.06832,-0.04636,-0.0244,-0.00976,0.03416,-0.01464,-0.08784,-0.10736,-0.09272,-0.04392
-0.0488,0.05856,-0.06832,-0.04392,-0.01952,-0.01464,0.03904,-0.00976,-0.08784,-0.10736,-0.08784,-0.03904
-0.0488,0.05856,-0.06832,-0.04392,-0.01952,-0.01464,0.03904,-0.00976,-0.08784,-0.10736,-0.08784,-0.03904
-0.0488,0.05856,-0.06832,-0.04392,-0.01952,-0.01464,0.03904,-0.00976,-0.08784,-0.10736,-0.08784,-0.03904
-0.03904,0.05368,-0.06832,-0.0488,-0.02928,-0.00488,0.03416,-0.01464,-0.08784,-0.10736,-0.09272,-0.04392
-0.02928,0.0488,-0.06832,-0.05368,-0.03904,0.00488,0.02928,-0.01952,-0.08784,-0.10736,-0.0976,-0.0488
-0.02928,0.0488,-0.06832,-0.05368,-0.03904,0.00488,0.02928,-0.01952,-0.08784,-0.10736,-0.0976,-0.0488
-0.02928,0.0488,-0.06832,-0.05368,-0.03904,0.00488,0.02928,-0.01952,-0.08784,-0.10736,-0.0976,-0.0488
-0.03904,0.05612,-0.0732,-0.05368,-0.03416,-0.00244,0.03904,-0.01952,-0.08784,-0.10736,-0.09272,-0.04392
-0.0488,0.06344,-0.07808,-0.05368,-0.02928,-0.00976,0.0488,-0.01952,-0.08784,-0.10736,-0.08784,-0.03904
-0.0488,0.06344,-0.07808,-0.05368,-0.02928,-0.00976,0.03904,-0.01952,-0.08784,-0.10736,-0.08784,-0.03904
-0.0488,0.06344,-0.07808,-0.05368,-0.02928,-0.00976,0.02928,-0.01952,-0.08784,-0.10736,-0.08784,-0.03904
-0.04392,0.061,-0.07808,-0.05612,-0.03416,-0.00488,0.02928,-0.01952,-0.08784,-0.11224,-0.08784,-0.03904
-0.03904,0.05856,-0.07808,-0.05856,-0.03904,0,0.02928,-0.01952,-0.08784,-0.11712,-0.08784,-0.03904
-0.03904,0.05856,-0.07808,-0.05856,-0.03904,0,0.02928,-0.01952,-0.08784,-0.11712,-0.08784,-0.03904
-0.03904,0.05856,-0.07808,-0.05856,-0.03904,0,0.02928,-0.01952,-0.08784,-0.11712,-0.08784,-0.03904
-0.03416,0.05124,-0.06832,-0.05124,-0.03416,0,0.02928,-0.01952,-0.08784,-0.11712,-0.09272,-0.04392
-0.02928,0.04148,-0.05368,-0.03904,-0.0244,-0.00244,0.02928,-0.01952,-0.08784,-0.11712,-0.09272,-0.04392
-0.0244,0.03416,-0.04392,-0.03172,-0.01952,-0.00244,0.02928,-0.01952,-0.08784,-0.122,-0.0976,-0.0488
-0.01952,0.02928,-0.03904,-0.02928,-0.01952,0,0.02928,-0.00976,-0.0732,-0.11224,-0.0976,-0.0488
-0.03416,0.0366,-0.03904,-0.02196,-0.00488,-0.01464,0.03416,0,-0.06344,-0.10248,-0.07808,-0.03416
-0.04392,0.03416,-0.0244,-0.00244,0.01952,-0.03172,0.0488,0.01952,-0.03904,-0.08296,-0.05856,-0.01952
-0.03416,0.03416,-0.03416,-0.01708,0,-0.01708,0.05368,0.02928,-0.0244,-0.0732,-0.05368,-0.01464
-0.02928,0.03172,-0.03416,-0.01952,-0.00488,-0.0122,0.05856,0.04392,-0.01464,-0.06344,-0.04392,-0.00488
-0.00976,0.01708,-0.0244,-0.01952,-0.01464,0.00244,0.05856,0.04392,-0.00976,-0.0488,-0.04392,-0.00976
0.01464,-0.00732,0,-0.00732,-0.01464,0.01464,0.05856,0.04392,0,-0.03416,-0.04392,-0.01464
0.04392,-0.02196,0,-0.02196,-0.04392,0.04392,0.05856,0.05856,0.0244,-0.0244,-0.03416,-0.00488
0.06344,-0.03172,0,-0.03172,-0.06344,0.06344,0.0488,0.0732,0.02928,-0.01952,-0.03416,-0.00488
0.04392,-0.02196,0,-0.02196,-0.04392,0.04392,0.0244,0.05368,0.0244,-0.0244,-0.0244,-0.00488
0.01952,-0.00244,-0.01464,-0.0244,-0.03416,0.02684,0.00488,0.0244,0.00488,-0.03416,-0.0244,-0.00488
0.00976,0.00488,-0.01952,-0.0244,-0.02928,0.01952,-0.00488,-0.00976,-0.03904,-0.06832,-0.04392,-0.00488
0.00488,0.00732,-0.01952,-0.02196,-0.0244,0.01464,-0.00976,-0.03416,-0.06344,-0.08784,-0.05368,-0.00488
0.00488,0.01708,-0.03904,-0.04148,-0.04392,0.0244,0.00488,-0.0244,-0.06344,-0.08784,-0.05368,0
0.00488,0.0244,-0.05368,-0.05612,-0.05856,0.03172,0.00976,-0.0244,-0.06344,-0.08784,-0.05368,0
-0.00488,0.03416,-0.06344,-0.061,-0.05856,0.02684,0.00488,-0.0244,-0.07808,-0.09272,-0.05368,0
-0.00488,0.03416,-0.06344,-0.061,-0.05856,0.02684,0.00488,-0.02928,-0.08784,-0.10248,-0.06832,-0.00976
-0.00976,0.0366,-0.06344,-0.05856,-0.05368,0.02196,0.01464,-0.02928,-0.08784,-0.10248,-0.07808,-0.02928
-0.00976,0.0366,-0.06344,-0.05856,-0.05368,0.02196,0.0244,-0.02928,-0.09272,-0.11224,-0.08784,-0.0488
-0.02928,0.05368,-0.07808,-0.06344,-0.0488,0.00976,0.02928,-0.02928,-0.0976,-0.11712,-0.09272,-0.05368
-0.04392,0.061,-0.07808,-0.05612,-0.03416,-0.00488,0.03904,-0.03416,-0.10736,-0.122,-0.0976,-0.05856
-0.04392,0.06344,-0.08296,-0.061,-0.03904,-0.00244,0.03904,-0.03416,-0.10736,-0.122,-0.0976,-0.05856
-0.04392,0.06344,-0.08296,-0.061,-0.03904,-0.00244,0.03416,-0.03904,-0.11224,-0.12688,-0.0976,-0.05368
-0.0488,0.0732,-0.0976,-0.0732,-0.0488,0,0.03416,-0.03904,-0.11224,-0.12688,-0.10248,-0.05368
-0.0488,0.08052,-0.11224,-0.08784,-0.06344,0.00732,0.03904,-0.03416,-0.11224,-0.12688,-0.10736,-0.05368
-0.0488,0.07076,-0.09272,-0.06832,-0.04392,-0.00244,0.03904,-0.03416,-0.11224,-0.13176,-0.11224,-0.05856
-0.04392,0.061,-0.07808,-0.05612,-0.03416,-0.00488,0.03904,-0.03416,-0.11224,-0.13176,-0.11224,-0.05856
-0.04392,0.06588,-0.08784,-0.06588,-0.04392,0,0.03904,-0.03904,-0.11224,-0.13176,-0.11224,-0.05368
-0.05368,0.07564,-0.0976,-0.07076,-0.04392,-0.00488,0.03904,-0.03904,-0.11224,-0.13176,-0.11224,-0.0488
-0.06344,0.08052,-0.0976,-0.06588,-0.03416,-0.01464,0.04392,-0.02928,-0.10736,-0.12688,-0.11224,-0.0488
-0.06832,0.08296,-0.0976,-0.06344,-0.02928,-0.01952,0.04392,-0.0244,-0.10248,-0.122,-0.11224,-0.0488
-0.06344,0.0854,-0.10736,-0.07564,-0.04392,-0.00976,0.03416,-0.03416,-0.10248,-0.13176,-0.11224,-0.05368
-0.06344,0.08784,-0.11224,-0.08052,-0.0488,-0.00732,0.03416,-0.03416,-0.10248,-0.13176,-0.10736,-0.05368
-0.05856,0.07808,-0.0976,-0.06832,-0.03904,-0.00976,0.03416,-0.03904,-0.10248,-0.13176,-0.10736,-0.05368
-0.05368,0.07076,-0.08784,-0.061,-0.03416,-0.00976,0.03416,-0.03904,-0.10248,-0.13176,-0.10248,-0.0488
-0.0488,0.06832,-0.08784,-0.06344,-0.03904,-0.00488,0.03416,-0.03416,-0.10736,-0.13176,-0.10736,-0.05368
-0.04392,0.06344,-0.08296,-0.061,-0.03904,-0.00244,0.02928,-0.03416,-0.10736,-0.13176,-0.11224,-0.05856
-0.04392,0.06344,-0.08296,-0.061,-0.03904,-0.00244,0.02928,-0.03416,-0.10248,-0.12688,-0.10736,-0.05856
-0.03904,0.061,-0.08296,-0.06344,-0.04392,0.00244,0.03416,-0.03416,-0.0976,-0.122,-0.10736,-0.05856
-0.03904,0.07076,-0.10248,-0.08296,-0.06344,0.0122,0.03416,-0.03416,-0.0976,-0.11224,-0.08784,-0.05856
-0.03416,0.07808,-0.122,-0.10492,-0.08784,0.02684,0.0488,0.00976,-0.05856,-0.07808,-0.0732,-0.05856
-0.04392,0.09028,-0.13664,-0.11468,-0.09272,0.0244,0.08296,0.10248,0.03416,-0.04392,-0.09272,-0.06832
-0.03904,0.0732,-0.10736,-0.08784,-0.06832,0.01464,0.10736,0.1708,0.13176,0.01464,-0.08296,-0.06832
0.01464,0.0244,-0.06344,-0.07076,-0.07808,0.04636,0.11224,0.26352,0.38064,0.2196,0.03904,-0.01952
0.08296,-0.05856,0.03416,-0.00732,-0.0488,0.06588,0.0976,0.38064,0.732,0.55144,0.23912,0.06832
0.15616,-0.18544,0.21472,0.13664,0.05856,0.0488,0,0.36112,0.89304,0.82472,0.51728,0.22448
0.18544,-0.29036,0.39528,0.30256,0.20984,-0.0122,-0.09272,0.08784,0.52216,0.854,0.70272,0.35624
0.14152,-0.43188,0.72224,0.65148,0.58072,-0.2196,-0.21472,-0.37088,-0.18544,0.70272,0.8784,0.44896
0.02928,-0.44652,0.86376,0.84912,0.83448,-0.4026,-0.22936,-0.64904,-0.54168,0.61976,0.98576,0.4636
0.00488,-0.29036,0.57584,0.5734,0.57096,-0.28304,-0.1464,-0.57096,-0.62464,0.60024,1.03944,0.48312
-0.01464,-0.10736,0.22936,0.23668,0.244,-0.12932,-0.06344,-0.488,-0.7808,0.2928,0.77104,0.40016
-0.08296,0.07808,-0.0732,-0.03172,0.00976,-0.04636,-0.00488,-0.50264,-0.92232,-0.17568,0.19032,0.1464
-0.15128,0.21228,-0.27328,-0.19764,-0.122,-0.01464,0.03904,-0.54168,-1.11264,-0.77592,-0.4148,-0.0976
-0.18544,0.2684,-0.35136,-0.25864,-0.16592,-0.00976,0.07808,-0.45872,-1.07848,-0.83936,-0.4636,-0.13664
-0.18056,0.2684,-0.35624,-0.26596,-0.17568,-0.00244,0.16104,-0.30256,-0.8784,-0.66368,-0.36112,-0.122
-0.13664,0.21716,-0.29768,-0.22936,-0.16104,0.0122,0.10736,-0.15616,-0.60512,-0.44896,-0.27816,-0.10736
-0.0976,0.1586,-0.2196,-0.1708,-0.122,0.0122,0.08296,-0.0488,-0.40504,-0.3172,-0.22448,-0.10736
-0.07808,0.10248,-0.12688,-0.08784,-0.0488,-0.01464,0.02928,-0.02928,-0.2684,-0.2196,-0.1464,-0.06832
-0.0732,0.0732,-0.0732,-0.0366,0,-0.0366,0.00488,-0.03416,-0.1708,-0.15616,-0.0976,-0.03416
-0.0488,0.061,-0.0732,-0.0488,-0.0244,-0.0122,0.01464,-0.02928,-0.122,-0.122,-0.09272,-0.04392
-0.03416,0.05368,-0.0732,-0.05612,-0.03904,0.00244,0.02928,-0.0244,-0.08784,-0.0976,-0.08784,-0.04392
-0.03416,0.04636,-0.05856,-0.04148,-0.0244,-0.00488,0.03904,-0.0244,-0.06832,-0.0976,-0.08784,-0.04392
-0.03904,0.04148,-0.04392,-0.0244,-0.00488,-0.01708,0.03904,-0.01952,-0.05856,-0.0976,-0.08296,-0.03904
-0.03904,0.04636,-0.05368,-0.03416,-0.01464,-0.0122,0.0488,-0.00976,-0.04392,-0.08296,-0.07808,-0.03416
-0.03904,0.05124,-0.06344,-0.04392,-0.0244,-0.00732,0.0488,-0.00488,-0.02928,-0.07808,-0.0732,-0.02928
-0.03904,0.0488,-0.05856,-0.03904,-0.01952,-0.00976,0.03904,-0.00488,-0.0244,-0.0732,-0.0732,-0.03416
-0.03904,0.0488,-0.05856,-0.03904,-0.01952,-0.00976,0.03416,-0.00488,-0.0244,-0.0732,-0.0732,-0.03416
-0.03416,0.0488,-0.06344,-0.04636,-0.02928,-0.00244,0.03416,0,-0.01952,-0.06344,-0.0732,-0.03416
-0.02928,0.04636,-0.06344,-0.0488,-0.03416,0.00244,0.03416,0,-0.00976,-0.06344,-0.07808,-0.03416
-0.0244,0.03904,-0.05368,-0.04148,-0.02928,0.00244,0.02928,0,-0.00976,-0.05856,-0.07808,-0.03416
-0.01464,0.03416,-0.05368,-0.04636,-0.03904,0.0122,0.02928,0,-0.00488,-0.05856,-0.07808,-0.03416
-0.0244,0.04148,-0.05856,-0.04636,-0.03416,0.00488,0.02928,0.00488,0.00488,-0.0488,-0.05856,-0.02928
-0.03904,0.0488,-0.05856,-0.03904,-0.01952,-0.00976,0.03416,0.00976,0.00976,-0.03904,-0.05368,-0.0244
-0.03904,0.0488,-0.05856,-0.03904,-0.01952,-0.00976,0.03904,0.01464,0.01464,-0.03416,-0.0488,-0.01952
-0.03904,0.0488,-0.05856,-0.03904,-0.01952,-0.00976,0.03904,0.01464,0.01464,-0.03416,-0.0488,-0.01952
-0.02928,0.04392,-0.05856,-0.04392,-0.02928,0,0.03416,0.01464,0.01464,-0.03416,-0.0488,-0.01952
-0.01464,0.03416,-0.05368,-0.04636,-0.03904,0.0122,0.02928,0.01464,0.00976,-0.03416,-0.05368,-0.0244
-0.01464,0.03416,-0.05368,-0.04636,-0.03904,0.0122,0.02928,0.01464,0.00976,-0.03416,-0.05368,-0.0244
-0.01464,0.03172,-0.0488,-0.04148,-0.03416,0.00976,0.02928,0.01464,0.00976,-0.03416,-0.05368,-0.0244
-0.00976,0.02928,-0.0488,-0.04392,-0.03904,0.01464,0.02928,0.01464,0.0244,-0.02928,-0.0488,-0.0244
-0.00976,0.02928,-0.0488,-0.04392,-0.03904,0.01464,0.02928,0.01952,0.02928,-0.0244,-0.04392,-0.01952
-0.01464,0.03172,-0.0488,-0.04148,-0.03416,0.00976,0.03416,0.01952,0.03416,-0.01464,-0.03904,-0.01464
-0.01464,0.03172,-0.0488,-0.04148,-0.03416,0.00976,0.03416,0.01952,0.03416,-0.00488,-0.02928,-0.01464
-0.01952,0.03172,-0.04392,-0.03416,-0.0244,0.00244,0.03416,0.0244,0.03416,0,-0.02928,-0.01464
-0.01952,0.03172,-0.04392,-0.03416,-0.0244,0.00244,0.03416,0.0244,0.03416,0,-0.0244,-0.01464
-0.01952,0.03172,-0.04392,-0.03416,-0.0244,0.00244,0.03416,0.02928,0.03904,0,-0.02928,-0.00976
-0.00488,0.02196,-0.03904,-0.0366,-0.03416,0.01464,0.03416,0.02928,0.04392,0,-0.02928,-0.00976
-0.00976,0.01708,-0.0244,-0.01952,-0.01464,0.00244,0.02928,0.02928,0.04392,0,-0.02928,-0.00976
-0.01464,0.02196,-0.02928,-0.02196,-0.01464,0,0.02928,0.02928,0.0488,0,-0.02928,-0.00976
-0.01952,0.0244,-0.02928,-0.01952,-0.00976,-0.00488,0.02928,0.02928,0.05368,0.00976,-0.02928,-0.01464
-0.01952,0.0244,-0.02928,-0.01952,-0.00976,-0.00488,0.0244,0.02928,0.05856,0.01464,-0.0244,-0.00976
-0.00976,0.01952,-0.02928,-0.0244,-0.01952,0.00488,0.01952,0.02928,0.05856,0.01464,-0.01952,-0.00976
0.00976,0.0122,-0.03416,-0.03904,-0.04392,0.02684,0.01952,0.02928,0.06344,0.01952,-0.01952,-0.00976
0.00976,0.0122,-0.03416,-0.03904,-0.04392,0.02684,0.01952,0.02928,0.06832,0.0244,-0.00976,-0.00488
0.01952,0.00732,-0.03416,-0.04392,-0.05368,0.0366,0.01952,0.02928,0.07808,0.02928,0,0
0.00488,0.01464,-0.03416,-0.0366,-0.03904,0.02196,0.01464,0.03416,0.08784,0.03904,0.00488,0.00488
-0.00976,0.01952,-0.02928,-0.0244,-0.01952,0.00488,0.01464,0.03416,0.09272,0.03904,0.00976,0.00976
0.00488,0.00976,-0.0244,-0.02684,-0.02928,0.01708,0.01464,0.03904,0.0976,0.04392,0.00488,0.01464
0.01464,0,-0.01464,-0.02196,-0.02928,0.02196,0.01464,0.03904,0.0976,0.0488,0.00488,0.01464
0.02928,-0.00732,-0.01464,-0.02928,-0.04392,0.0366,0.00976,0.03904,0.10248,0.06344,0.00976,0.01464
0.04392,-0.01708,-0.00976,-0.03172,-0.05368,0.0488,0.00488,0.04392,0.0976,0.06344,0.01464,0.01464
0.03904,-0.00732,-0.0244,-0.04392,-0.06344,0.05124,0.00488,0.04392,0.10248,0.06832,0.0244,0.01952
0.03416,0.00244,-0.03904,-0.05612,-0.0732,0.05368,0,0.04392,0.11712,0.0732,0.03904,0.0244
0.03904,-0.00976,-0.01952,-0.03904,-0.05856,0.0488,-0.00976,0.04392,0.11712,0.07808,0.03904,0.0244
0.02928,-0.0122,-0.00488,-0.01952,-0.03416,0.03172,-0.00976,0.04392,0.12688,0.08784,0.03904,0.0244
0.02928,-0.0122,-0.00488,-0.01952,-0.03416,0.03172,-0.00976,0.05368,0.13664,0.0976,0.05368,0.02928
0.0244,-0.0122,0,-0.0122,-0.0244,0.0244,-0.00976,0.05856,0.15128,0.10736,0.06344,0.03904
0.0244,-0.01464,0.00488,-0.00732,-0.01952,0.02196,-0.00976,0.06344,0.15616,0.11712,0.06832,0.04392
0.02928,-0.01952,0.00976,-0.00488,-0.01952,0.0244,-0.00976,0.06344,0.16592,0.12688,0.07808,0.04392
0.02928,-0.0244,0.01952,0.00488,-0.00976,0.01952,-0.01952,0.06832,0.17568,0.13664,0.08784,0.0488
0.02928,-0.02928,0.02928,0.01464,0,0.01464,-0.01952,0.06344,0.18544,0.15128,0.09272,0.05856
0.03416,-0.03416,0.03416,0.01708,0,0.01708,-0.0244,0.06832,0.1952,0.16104,0.10248,0.06344
0.0488,-0.04392,0.03904,0.01464,-0.00976,0.02928,-0.03416,0.06832,0.20496,0.16592,0.10736,0.06344
0.05368,-0.04636,0.03904,0.0122,-0.01464,0.03416,-0.03416,0.06344,0.21472,0.18056,0.11712,0.05856
0.05856,-0.04636,0.03416,0.00488,-0.0244,0.04148,-0.03416,0.06832,0.22448,0.1952,0.13176,0.05856
0.06832,-0.061,0.05368,0.01952,-0.01464,0.04148,-0.0488,0.06832,0.23424,0.20984,0.14152,0.06832
0.06832,-0.06588,0.06344,0.02928,-0.00488,0.0366,-0.0488,0.07808,0.25376,0.22448,0.15616,0.0732
0.06344,-0.06344,0.06344,0.03172,0,0.03172,-0.0488,0.08784,0.28304,0.24888,0.18056,0.08784
0.06344,-0.06588,0.06832,0.0366,0.00488,0.02928,-0.05368,0.0976,0.30256,0.27816,0.20008,0.0976
0.0732,-0.0732,0.0732,0.0366,0,0.0366,-0.05856,0.10736,0.3172,0.30256,0.21472,0.10248
0.08784,-0.08052,0.0732,0.02928,-0.01464,0.05124,-0.06344,0.122,0.3416,0.32696,0.23912,0.11224
0.0976,-0.09028,0.08296,0.03416,-0.01464,0.05612,-0.06832,0.12688,0.366,0.35624,0.25376,0.122
0.10736,-0.10004,0.09272,0.03904,-0.01464,0.061,-0.06832,0.13176,0.3904,0.38552,0.2684,0.13176
0.11712,-0.11224,0.10736,0.0488,-0.00976,0.06344,-0.07808,0.14152,0.40992,0.4148,0.29768,0.14152
0.13176,-0.12688,0.122,0.05612,-0.00976,0.07076,-0.09272,0.1464,0.43432,0.44408,0.32208,0.15128
0.14152,-0.13664,0.13176,0.061,-0.00976,0.07564,-0.10248,0.15616,0.46848,0.47336,0.3416,0.16104
0.15616,-0.15128,0.1464,0.06832,-0.00976,0.08296,-0.10736,0.16104,0.49776,0.50264,0.37088,0.17568
0.1464,-0.15128,0.15616,0.08296,0.00976,0.06832,-0.10736,0.17568,0.52216,0.5368,0.3904,0.19032
0.15128,-0.15616,0.16104,0.0854,0.00976,0.07076,-0.10736,0.18544,0.55144,0.57584,0.40992,0.20496
0.16104,-0.16592,0.1708,0.09028,0.00976,0.07564,-0.122,0.20008,0.57584,0.61,0.43432,0.2196
0.16592,-0.17568,0.18544,0.10248,0.01952,0.0732,-0.13176,0.20496,0.60512,0.63928,0.45872,0.22936
0.1708,-0.183,0.1952,0.1098,0.0244,0.0732,-0.13176,0.2196,0.62952,0.67344,0.488,0.244
0.19032,-0.20008,0.20984,0.11468,0.01952,0.0854,-0.14152,0.22936,0.65392,0.70272,0.50752,0.25376
0.20008,-0.20984,0.2196,0.11956,0.01952,0.09028,-0.14152,0.22936,0.67344,0.732,0.5368,0.26352
0.20008,-0.21228,0.22448,0.12444,0.0244,0.08784,-0.14152,0.244,0.69296,0.76128,0.56608,0.27328
0.20008,-0.21716,0.23424,0.1342,0.03416,0.08296,-0.1464,0.24888,0.71248,0.79056,0.5856,0.2928
0.19032,-0.21472,0.23912,0.14396,0.0488,0.07076,-0.14152,0.24888,0.72712,0.81008,0.61488,0.3172
0.1952,-0.22204,0.24888,0.15128,0.05368,0.07076,-0.14152,0.24888,0.72712,0.82472,0.62952,0.32696
0.20008,-0.22692,0.25376,0.15372,0.05368,0.0732,-0.1464,0.244,0.71736,0.82472,0.62952,0.32696
0.2196,-0.23668,0.25376,0.14396,0.03416,0.09272,-0.15128,0.22936,0.69784,0.81008,0.61488,0.30256
0.23424,-0.23912,0.244,0.12688,0.00976,0.11224,-0.15616,0.21472,0.66368,0.7808,0.59048,0.28304
0.20984,-0.22204,0.23424,0.12932,0.0244,0.09272,-0.14152,0.20008,0.6344,0.73688,0.57096,0.27328
0.17568,-0.1952,0.21472,0.12688,0.03904,0.06832,-0.13176,0.19032,0.60024,0.6832,0.53192,0.25864
0.1464,-0.17812,0.20984,0.13664,0.06344,0.04148,-0.11224,0.18056,0.5612,0.6344,0.488,0.23912
0.13176,-0.16348,0.1952,0.12932,0.06344,0.03416,-0.10248,0.16592,0.50752,0.56608,0.4392,0.20984
0.122,-0.15128,0.18056,0.11956,0.05856,0.03172,-0.08784,0.15128,0.44896,0.49776,0.38064,0.18056
0.11224,-0.13664,0.16104,0.10492,0.0488,0.03172,-0.07808,0.12688,0.39528,0.42456,0.32208,0.15616
0.0976,-0.11712,0.13664,0.08784,0.03904,0.02928,-0.06344,0.10736,0.34648,0.36112,0.26352,0.12688
0.07808,-0.09272,0.10736,0.06832,0.02928,0.0244,-0.04392,0.09272,0.2928,0.29768,0.2196,0.10736
0.07808,-0.0854,0.09272,0.05368,0.01464,0.03172,-0.03904,0.0732,0.22448,0.23424,0.17568,0.07808
0.06344,-0.06344,0.06344,0.03172,0,0.03172,-0.02928,0.05368,0.17568,0.1708,0.13664,0.05856
0.0488,-0.04636,0.04392,0.01952,-0.00488,0.02684,-0.01952,0.05368,0.15128,0.14152,0.10248,0.0488
0.03904,-0.02928,0.01952,0,-0.01952,0.02928,-0.00976,0.05368,0.12688,0.0976,0.07808,0.03904
0.02928,-0.01464,0,-0.01464,-0.02928,0.02928,-0.00976,0.03416,0.08296,0.05368,0.03904,0.01464
0.01952,0,-0.01952,-0.02928,-0.03904,0.02928,0,0.02928,0.06832,0.0244,0.0244,0.00976
0,0.0122,-0.0244,-0.0244,-0.0244,0.0122,0.00488,0.0244,0.0488,0.00976,0.00488,0
-0.00976,0.01708,-0.0244,-0.01952,-0.01464,0.00244,0.01952,0.01952,0.03904,-0.00488,-0.01464,-0.00488
-0.01464,0.02196,-0.02928,-0.02196,-0.01464,0,0.01952,0.01464,0.01952,-0.01952,-0.02928,-0.01464
-0.01464,0.02928,-0.04392,-0.0366,-0.02928,0.00732,0.01952,0.00976,0.00488,-0.03904,-0.04392,-0.0244
-0.00976,0.02684,-0.04392,-0.03904,-0.03416,0.0122,0.01952,0,-0.00488,-0.05368,-0.05856,-0.03416
0,0.02196,-0.04392,-0.04392,-0.04392,0.02196,0.01464,-0.00488,-0.01464,-0.06832,-0.06832,-0.03416
