i,aVR,ii,aVF,iii,aVL,V1,V2,V3,V4,V5,V6
-0.04392,0.02684,-0.00976,0.0122,0.03416,-0.03904,0.1464,0.16104,0.06344,0.01952,0,-0.0488
-0.03416,0.01708,0,0.01708,0.03416,-0.03416,0.16592,0.18544,0.07808,0.03416,0.00488,-0.03904
-0.0244,0.00488,0.01464,0.02684,0.03904,-0.03172,0.19032,0.2196,0.10248,0.05368,0.0244,-0.03416
-0.01464,-0.00488,0.0244,0.03172,0.03904,-0.02684,0.20008,0.25376,0.122,0.06832,0.04392,-0.01952
-0.00488,-0.02196,0.0488,0.05124,0.05368,-0.02928,0.21472,0.28304,0.1464,0.08784,0.05368,0
0,-0.02928,0.05856,0.05856,0.05856,-0.02928,0.22448,0.3172,0.16592,0.10736,0.05856,0.00976
0.00976,-0.04392,0.07808,0.0732,0.06832,-0.02928,0.22448,0.33184,0.17568,0.11224,0.06832,0.01952
0.01464,-0.05124,0.08784,0.08052,0.0732,-0.02928,0.22448,0.35136,0.1952,0.122,0.08296,0.01952
0.01464,-0.05612,0.0976,0.09028,0.08296,-0.03416,0.22448,0.37088,0.20496,0.13176,0.09272,0.0244
0.01952,-0.061,0.10248,0.09272,0.08296,-0.03172,0.2196,0.37576,0.21472,0.14152,0.0976,0.02928
0.01952,-0.06588,0.11224,0.10248,0.09272,-0.0366,0.2196,0.38064,0.22448,0.1464,0.0976,0.03416
0.0244,-0.07076,0.11712,0.10492,0.09272,-0.03416,0.2196,0.38552,0.22448,0.1464,0.10248,0.03904
0.03416,-0.07808,0.122,0.10492,0.08784,-0.02684,0.2196,0.38552,0.22936,0.15128,0.10736,0.0488
0.03416,-0.08296,0.13176,0.11468,0.0976,-0.03172,0.2196,0.38064,0.22936,0.15128,0.10736,0.05368
0.03904,-0.08784,0.13664,0.11712,0.0976,-0.02928,0.2196,0.37576,0.22936,0.15128,0.10736,0.05368
0.03904,-0.09028,0.14152,0.122,0.10248,-0.03172,0.20008,0.36112,0.2196,0.15616,0.10736,0.05856
0.03904,-0.09028,0.14152,0.122,0.10248,-0.03172,0.1952,0.3416,0.20984,0.15128,0.10248,0.05856
0.03416,-0.08296,0.13176,0.11468,0.0976,-0.03172,0.18544,0.3172,0.19032,0.14152,0.0976,0.05368
0.0244,-0.0732,0.122,0.1098,0.0976,-0.0366,0.17568,0.28304,0.1708,0.12688,0.07808,0.04392
0.01952,-0.06588,0.11224,0.10248,0.09272,-0.0366,0.16104,0.25376,0.15128,0.11224,0.06832,0.03904
0.00976,-0.05368,0.0976,0.09272,0.08784,-0.03904,0.1464,0.21472,0.12688,0.0976,0.05856,0.02928
0.00488,-0.04148,0.07808,0.07564,0.0732,-0.03416,0.13664,0.17568,0.0976,0.0732,0.03904,0.01952
0,-0.03172,0.06344,0.06344,0.06344,-0.03172,0.122,0.14152,0.08296,0.05368,0.02928,0.00976
-0.01464,-0.01708,0.0488,0.05612,0.06344,-0.03904,0.10736,0.11224,0.06344,0.03416,0.01952,0
-0.01952,-0.00488,0.02928,0.03904,0.0488,-0.03416,0.0976,0.08296,0.0488,0.01952,0.00488,-0.00976
-0.0244,0.00488,0.01464,0.02684,0.03904,-0.03172,0.07808,0.05856,0.02928,0.00488,-0.00976,-0.0244
-0.02928,0.0122,0.00488,0.01952,0.03416,-0.03172,0.06344,0.04392,0.00976,-0.00976,-0.0244,-0.03416
-0.03416,0.02196,-0.00976,0.00732,0.0244,-0.02928,0.05368,0.0244,0,-0.01952,-0.03416,-0.03904
-0.03904,0.02928,-0.01952,0,0.01952,-0.02928,0.0488,0.01952,-0.00976,-0.02928,-0.03904,-0.04392
-0.03904,0.03416,-0.02928,-0.00976,0.00976,-0.0244,0.03904,0.00488,-0.01464,-0.02928,-0.0488,-0.0488
-0.03904,0.0366,-0.03416,-0.01464,0.00488,-0.02196,0.03904,-0.00976,-0.01952,-0.03416,-0.0488,-0.0488
-0.04392,0.04148,-0.03904,-0.01708,0.00488,-0.0244,0.03416,-0.01464,-0.01952,-0.03416,-0.05368,-0.0488
-0.04392,0.04392,-0.04392,-0.02196,0,-0.02196,0.03904,-0.01952,-0.0244,-0.03904,-0.05368,-0.0488
-0.0488,0.0488,-0.0488,-0.0244,0,-0.0244,0.03416,-0.0244,-0.02928,-0.03904,-0.05856,-0.0488
-0.0488,0.0488,-0.0488,-0.0244,0,-0.0244,0.03416,-0.0244,-0.02928,-0.03904,-0.06344,-0.0488
-0.0488,0.0488,-0.0488,-0.0244,0,-0.0244,0.02928,-0.03416,-0.03416,-0.04392,-0.06344,-0.0488
-0.0488,0.0488,-0.0488,-0.0244,0,-0.0244,0.02928,-0.03904,-0.03416,-0.04392,-0.06832,-0.0488
-0.0488,0.0488,-0.0488,-0.0244,0,-0.0244,0.02928,-0.03904,-0.03416,-0.04392,-0.06344,-0.0488
-0.0488,0.05124,-0.05368,-0.02928,-0.00488,-0.02196,0.02928,-0.03904,-0.03416,-0.04392,-0.06344,-0.0488
-0.0488,0.05124,-0.05368,-0.02928,-0.00488,-0.02196,0.02928,-0.03904,-0.03416,-0.04392,-0.06344,-0.05368
-0.0488,0.05124,-0.05368,-0.02928,-0.00488,-0.02196,0.03416,-0.03416,-0.03416,-0.03904,-0.06344,-0.05856
-0.0488,0.0488,-0.0488,-0.0244,0,-0.0244,0.03416,-0.02928,-0.03416,-0.03904,-0.06832,-0.05368
-0.0488,0.0488,-0.0488,-0.0244,0,-0.0244,0.03416,-0.02928,-0.02928,-0.03904,-0.06832,-0.05368
-0.04392,0.04392,-0.04392,-0.02196,0,-0.02196,0.03416,-0.03416,-0.02928,-0.03904,-0.06832,-0.05368
-0.04392,0.04392,-0.04392,-0.02196,0,-0.02196,0.03904,-0.03416,-0.02928,-0.03904,-0.06832,-0.05368
-0.0488,0.0488,-0.0488,-0.0244,0,-0.0244,0.02928,-0.03416,-0.03416,-0.03904,-0.06832,-0.0488
-0.05368,0.05368,-0.05368,-0.02684,0,-0.02684,0.02928,-0.03416,-0.03416,-0.03904,-0.06832,-0.04392
-0.05368,0.05368,-0.05368,-0.02684,0,-0.02684,0.02928,-0.03416,-0.03904,-0.03416,-0.08296,-0.04392
-0.05368,0.05368,-0.05368,-0.02684,0,-0.02684,0.02928,-0.03416,-0.04392,-0.03416,-0.08296,-0.04392
-0.0488,0.05124,-0.05368,-0.02928,-0.00488,-0.02196,0.02928,-0.03416,-0.04392,-0.03904,-0.07808,-0.03904
-0.0488,0.0488,-0.0488,-0.0244,0,-0.0244,0.02928,-0.03416,-0.04392,-0.04392,-0.07808,-0.03904
-0.0488,0.0488,-0.0488,-0.0244,0,-0.0244,0.02928,-0.03416,-0.04392,-0.04392,-0.07808,-0.04392
-0.0488,0.0488,-0.0488,-0.0244,0,-0.0244,0.02928,-0.03416,-0.04392,-0.04392,-0.07808,-0.04392
-0.0488,0.0488,-0.0488,-0.0244,0,-0.0244,0.01952,-0.03416,-0.03904,-0.04392,-0.08296,-0.04392
-0.0488,0.0488,-0.0488,-0.0244,0,-0.0244,0.00976,-0.03416,-0.03416,-0.04392,-0.08296,-0.04392
-0.0488,0.0488,-0.0488,-0.0244,0,-0.0244,0.00976,-0.03416,-0.03416,-0.04392,-0.08296,-0.0488
-0.0488,0.05124,-0.05368,-0.02928,-0.00488,-0.02196,0.00976,-0.03416,-0.03416,-0.04392,-0.08296,-0.0488
-0.0488,0.05124,-0.05368,-0.02928,-0.00488,-0.02196,0,-0.03416,-0.03416,-0.0488,-0.08784,-0.0488
-0.0488,0.05124,-0.05368,-0.02928,-0.00488,-0.02196,-0.00488,-0.03416,-0.03904,-0.0488,-0.08784,-0.0488
-0.0488,0.05368,-0.05856,-0.03416,-0.00976,-0.01952,-0.00976,-0.03416,-0.03904,-0.0488,-0.09272,-0.0488
-0.05368,0.05612,-0.05856,-0.03172,-0.00488,-0.0244,-0.01464,-0.04392,-0.03904,-0.0488,-0.0976,-0.0488
-0.0488,0.05368,-0.05856,-0.03416,-0.00976,-0.01952,-0.01952,-0.0488,-0.04392,-0.0488,-0.0976,-0.0488
-0.04392,0.05124,-0.05856,-0.0366,-0.01464,-0.01464,-0.0244,-0.05368,-0.05368,-0.0488,-0.0976,-0.0488
-0.04392,0.05124,-0.05856,-0.0366,-0.01464,-0.01464,-0.0244,-0.05856,-0.05368,-0.05368,-0.10248,-0.05368
-0.04392,0.0488,-0.05368,-0.03172,-0.00976,-0.01708,-0.0244,-0.05856,-0.05368,-0.05368,-0.10248,-0.05368
-0.04392,0.0488,-0.05368,-0.03172,-0.00976,-0.01708,-0.0244,-0.05856,-0.0488,-0.05368,-0.10248,-0.05368
-0.0488,0.05368,-0.05856,-0.03416,-0.00976,-0.01952,-0.03416,-0.05856,-0.0488,-0.05368,-0.10248,-0.05368
-0.0488,0.05368,-0.05856,-0.03416,-0.00976,-0.01952,-0.02928,-0.05856,-0.0488,-0.05368,-0.10248,-0.05368
-0.0488,0.05612,-0.06344,-0.03904,-0.01464,-0.01708,-0.0244,-0.06344,-0.0488,-0.05368,-0.10736,-0.05856
-0.05368,0.061,-0.06832,-0.04148,-0.01464,-0.01952,-0.02928,-0.06344,-0.05368,-0.05368,-0.10736,-0.05856
-0.05856,0.06832,-0.07808,-0.0488,-0.01952,-0.01952,-0.03904,-0.06832,-0.05856,-0.05856,-0.10736,-0.05856
-0.05856,0.06832,-0.07808,-0.0488,-0.01952,-0.01952,-0.03904,-0.06832,-0.05856,-0.05856,-0.10736,-0.05856
-0.05856,0.06832,-0.07808,-0.0488,-0.01952,-0.01952,-0.03904,-0.06832,-0.05856,-0.05856,-0.10736,-0.05856
-0.05856,0.06832,-0.07808,-0.0488,-0.01952,-0.01952,-0.03904,-0.06832,-0.05856,-0.05856,-0.10736,-0.05856
-0.05856,0.06832,-0.07808,-0.0488,-0.01952,-0.01952,-0.03904,-0.06832,-0.05856,-0.05856,-0.10736,-0.05856
-0.05856,0.07076,-0.08296,-0.05368,-0.0244,-0.01708,-0.04392,-0.0732,-0.05856,-0.05856,-0.10736,-0.05856
-0.05856,0.0732,-0.08784,-0.05856,-0.02928,-0.01464,-0.0488,-0.0732,-0.06344,-0.05856,-0.11224,-0.05856
-0.05856,0.0732,-0.08784,-0.05856,-0.02928,-0.01464,-0.05368,-0.07808,-0.06344,-0.06344,-0.11224,-0.05856
-0.05856,0.0732,-0.08784,-0.05856,-0.02928,-0.01464,-0.05856,-0.07808,-0.06344,-0.06832,-0.11712,-0.05856
-0.06344,0.0732,-0.08296,-0.05124,-0.01952,-0.02196,-0.05856,-0.07808,-0.06832,-0.06832,-0.11712,-0.05856
-0.06832,0.07564,-0.08296,-0.0488,-0.01464,-0.02684,-0.05856,-0.07808,-0.0732,-0.06832,-0.11712,-0.06344
-0.06832,0.07564,-0.08296,-0.0488,-0.01464,-0.02684,-0.05368,-0.07808,-0.0732,-0.06832,-0.122,-0.06344
-0.06832,0.07564,-0.08296,-0.0488,-0.01464,-0.02684,-0.05368,-0.07808,-0.0732,-0.06832,-0.12688,-0.06344
-0.06832,0.07564,-0.08296,-0.0488,-0.01464,-0.02684,-0.05368,-0.06832,-0.0732,-0.07808,-0.13176,-0.06344
-0.06832,0.07564,-0.08296,-0.0488,-0.01464,-0.02684,-0.05368,-0.06344,-0.0732,-0.08296,-0.13176,-0.06344
-0.06832,0.07564,-0.08296,-0.0488,-0.01464,-0.02684,-0.0488,-0.06832,-0.0732,-0.08296,-0.13176,-0.06344
-0.06832,0.07564,-0.08296,-0.0488,-0.01464,-0.02684,-0.04392,-0.06832,-0.0732,-0.07808,-0.13176,-0.06344
-0.06344,0.07076,-0.07808,-0.04636,-0.01464,-0.0244,-0.04392,-0.06832,-0.0732,-0.0732,-0.12688,-0.06344
-0.05856,0.06344,-0.06832,-0.03904,-0.00976,-0.0244,-0.04392,-0.05856,-0.06832,-0.06344,-0.11712,-0.05856
-0.0488,0.05124,-0.05368,-0.02928,-0.00488,-0.02196,-0.02928,-0.05368,-0.05856,-0.05368,-0.10736,-0.0488
-0.04392,0.0366,-0.02928,-0.00732,0.01464,-0.02928,-0.00488,-0.04392,-0.04392,-0.04392,-0.0976,-0.03904
-0.03416,0.0244,-0.01464,0.00244,0.01952,-0.02684,0.00488,-0.03416,-0.04392,-0.03904,-0.09272,-0.03416
-0.02928,0.01708,-0.00488,0.00976,0.0244,-0.02684,0.00488,-0.02928,-0.03904,-0.03416,-0.09272,-0.02928
-0.0244,0.0122,0,0.0122,0.0244,-0.0244,0.00976,-0.02928,-0.02928,-0.02928,-0.08784,-0.0244
-0.01952,0.00976,0,0.00976,0.01952,-0.01952,0.00976,-0.02928,-0.0244,-0.02928,-0.08784,-0.0244
-0.00488,-0.00488,0.01464,0.01708,0.01952,-0.0122,0.00976,-0.02928,-0.0244,-0.02928,-0.08296,-0.0244
0.00488,-0.01952,0.03416,0.03172,0.02928,-0.0122,0.01464,-0.0244,-0.01464,-0.01952,-0.0732,-0.00976
0.00976,-0.03172,0.05368,0.0488,0.04392,-0.01708,0.01464,-0.01952,-0.00488,-0.00976,-0.05856,0.00488
0.01464,-0.03904,0.06344,0.05612,0.0488,-0.01708,0.00976,-0.01952,-0.00488,-0.00976,-0.05368,0.00976
0.01464,-0.04148,0.06832,0.061,0.05368,-0.01952,-0.00488,-0.03416,-0.00976,-0.00976,-0.05368,0.00976
0.01952,-0.04392,0.06832,0.05856,0.0488,-0.01464,-0.0244,-0.04392,-0.01952,-0.00976,-0.05368,0.00976
0.01952,-0.03416,0.0488,0.03904,0.02928,-0.00488,-0.03904,-0.05856,-0.03416,-0.01952,-0.06832,0.00488
0.01952,-0.02684,0.03416,0.0244,0.01464,0.00244,-0.0488,-0.06832,-0.04392,-0.02928,-0.0732,0
0.01952,-0.0122,0.00488,-0.00488,-0.01464,0.01708,-0.05368,-0.06832,-0.04392,-0.03904,-0.08296,-0.01464
0.00976,0.00976,-0.02928,-0.03416,-0.03904,0.0244,-0.05368,-0.06832,-0.0488,-0.0488,-0.0976,-0.02928
0,0.02928,-0.05856,-0.05856,-0.05856,0.02928,-0.05368,-0.0732,-0.06344,-0.06344,-0.11224,-0.04392
-0.03416,0.05612,-0.07808,-0.061,-0.04392,0.00488,-0.04392,-0.08296,-0.07808,-0.0732,-0.12688,-0.05856
-0.06344,0.08052,-0.0976,-0.06588,-0.03416,-0.01464,-0.03904,-0.08784,-0.08784,-0.08784,-0.13664,-0.06344
-0.0732,0.09272,-0.11224,-0.07564,-0.03904,-0.01708,-0.03904,-0.0976,-0.10248,-0.10248,-0.15128,-0.0732
-0.0732,0.09272,-0.11224,-0.07564,-0.03904,-0.01708,-0.0488,-0.10248,-0.10248,-0.10248,-0.15128,-0.0732
-0.06832,0.09028,-0.11224,-0.07808,-0.04392,-0.0122,-0.0488,-0.10248,-0.10248,-0.10248,-0.15128,-0.06832
-0.06832,0.09028,-0.11224,-0.07808,-0.04392,-0.0122,-0.0488,-0.10248,-0.0976,-0.0976,-0.15128,-0.06832
-0.06832,0.09272,-0.11712,-0.08296,-0.0488,-0.00976,-0.0488,-0.10248,-0.09272,-0.09272,-0.15128,-0.06832
-0.0732,0.09516,-0.11712,-0.08052,-0.04392,-0.01464,-0.04392,-0.10248,-0.08784,-0.09272,-0.15128,-0.0732
-0.0732,0.09516,-0.11712,-0.08052,-0.04392,-0.01464,-0.04392,-0.0976,-0.08296,-0.09272,-0.15128,-0.07808
-0.0732,0.09516,-0.11712,-0.08052,-0.04392,-0.01464,-0.04392,-0.0976,-0.08296,-0.08784,-0.15616,-0.07808
-0.0732,0.0976,-0.122,-0.0854,-0.0488,-0.0122,-0.0488,-0.09272,-0.08296,-0.08784,-0.15616,-0.08296
-0.07808,0.10248,-0.12688,-0.08784,-0.0488,-0.01464,-0.04392,-0.09272,-0.08784,-0.09272,-0.15616,-0.08296
-0.0976,0.122,-0.1464,-0.0976,-0.0488,-0.0244,-0.01464,-0.08784,-0.0976,-0.0976,-0.1708,-0.0976
-0.13176,0.16104,-0.19032,-0.12444,-0.05856,-0.0366,0.04392,-0.0488,-0.10736,-0.13176,-0.20496,-0.13664
-0.13664,0.15616,-0.17568,-0.10736,-0.03904,-0.0488,0.10736,0.06344,-0.04392,-0.09272,-0.19032,-0.11712
-0.09272,0.08296,-0.0732,-0.02684,0.01952,-0.05612,0.15616,0.22936,0.09272,0.0244,-0.0976,-0.05368
-0.02928,-0.01952,0.06832,0.08296,0.0976,-0.06344,0.26352,0.50264,0.30744,0.20008,0.02928,0.0488
0.14152,-0.23668,0.33184,0.26108,0.19032,-0.0244,0.36112,0.97112,0.69784,0.51728,0.28792,0.244
0.4148,-0.52704,0.63928,0.43188,0.22448,0.09516,0.33184,1.45912,1.13216,0.87352,0.60512,0.49288
0.72712,-0.88816,1.0492,0.68564,0.32208,0.20252,0.1952,1.91296,1.57624,1.27368,0.976,0.81496
0.89792,-1.16632,1.43472,0.98576,0.5368,0.18056,0.05856,2.0008,1.74704,1.47864,1.1956,1.05896
0.87352,-1.281,1.68848,1.25172,0.81496,0.02928,-0.13176,1.66408,1.5616,1.4152,1.22976,1.19072
0.76128,-1.17364,1.586,1.20536,0.82472,-0.03172,-0.4148,0.93208,1.06872,1.09312,1.02968,1.11264
0.42944,-0.7686,1.10776,0.89304,0.67832,-0.12444,-0.72224,-0.56608,0.10736,0.42944,0.53192,0.7808
0.20984,-0.48556,0.76128,0.65636,0.55144,-0.1708,-0.78568,-1.0004,-0.25376,0.10248,0.25376,0.53192
0.0976,-0.26596,0.43432,0.38552,0.33672,-0.11956,-0.71736,-0.91744,-0.35136,-0.06344,0.06344,0.32208
0.05368,-0.1342,0.21472,0.18788,0.16104,-0.05368,-0.62464,-0.75152,-0.35136,-0.122,-0.04392,0.18544
-0.00976,-0.03172,0.0732,0.07808,0.08296,-0.04636,-0.47336,-0.60024,-0.3172,-0.15128,-0.11224,0.0732
-0.0488,0.01464,0.01952,0.04392,0.06832,-0.05856,-0.35136,-0.4636,-0.26352,-0.15128,-0.13664,0.0244
-0.0732,0.04636,-0.01952,0.01708,0.05368,-0.06344,-0.23912,-0.36112,-0.21472,-0.13176,-0.14152,-0.00488
-0.07808,0.06588,-0.05368,-0.01464,0.0244,-0.05124,-0.16104,-0.27328,-0.1708,-0.11712,-0.15128,-0.02928
-0.0976,0.09028,-0.08296,-0.03416,0.01464,-0.05612,-0.11224,-0.21472,-0.15616,-0.11224,-0.1708,-0.0488
-0.10736,0.1098,-0.11224,-0.05856,-0.00488,-0.05124,-0.06832,-0.16592,-0.14152,-0.11224,-0.18544,-0.07808
-0.10736,0.11468,-0.122,-0.06832,-0.01464,-0.04636,-0.04392,-0.14152,-0.12688,-0.11224,-0.18544,-0.07808
-0.10736,0.11712,-0.12688,-0.0732,-0.01952,-0.04392,-0.02928,-0.11712,-0.11712,-0.10736,-0.18544,-0.07808
-0.10736,0.11712,-0.12688,-0.0732,-0.01952,-0.04392,-0.02928,-0.11224,-0.11224,-0.10248,-0.18056,-0.07808
-0.11224,0.11956,-0.12688,-0.07076,-0.01464,-0.0488,-0.02928,-0.10736,-0.11224,-0.10248,-0.18056,-0.08296
-0.11224,0.122,-0.13176,-0.07564,-0.01952,-0.04636,-0.0244,-0.09272,-0.11224,-0.10248,-0.17568,-0.08784
-0.10736,0.122,-0.13664,-0.08296,-0.02928,-0.03904,-0.01952,-0.08784,-0.10736,-0.10248,-0.17568,-0.08784
-0.10736,0.122,-0.13664,-0.08296,-0.02928,-0.03904,-0.0244,-0.07808,-0.10248,-0.0976,-0.17568,-0.08784
-0.10248,0.11956,-0.13664,-0.0854,-0.03416,-0.03416,-0.0244,-0.07808,-0.0976,-0.0976,-0.17568,-0.08784
-0.10248,0.11956,-0.13664,-0.0854,-0.03416,-0.03416,-0.0244,-0.0732,-0.0976,-0.09272,-0.1708,-0.08784
-0.10248,0.11712,-0.13176,-0.08052,-0.02928,-0.0366,-0.0244,-0.06344,-0.08784,-0.09272,-0.1708,-0.08784
-0.10248,0.11468,-0.12688,-0.07564,-0.0244,-0.03904,-0.0244,-0.05856,-0.08296,-0.08784,-0.1708,-0.08296
-0.0976,0.11224,-0.12688,-0.07808,-0.02928,-0.03416,-0.0244,-0.0488,-0.08296,-0.08784,-0.1708,-0.08296
-0.0976,0.1098,-0.122,-0.0732,-0.0244,-0.0366,-0.01464,-0.03904,-0.07808,-0.08296,-0.16592,-0.08296
-0.0976,0.10492,-0.11224,-0.06344,-0.01464,-0.04148,-0.00976,-0.03416,-0.06832,-0.07808,-0.16592,-0.07808
-0.09272,0.10004,-0.10736,-0.061,-0.01464,-0.03904,-0.00488,-0.0244,-0.0732,-0.0732,-0.16104,-0.07808
-0.08784,0.09516,-0.10248,-0.05856,-0.01464,-0.0366,0.01464,-0.00976,-0.06832,-0.06344,-0.15616,-0.0732
-0.08784,0.09028,-0.09272,-0.0488,-0.00488,-0.04148,0.02928,0,-0.05368,-0.06344,-0.15128,-0.0732
-0.08784,0.0854,-0.08296,-0.03904,0.00488,-0.04636,0.03904,0.01952,-0.0488,-0.0488,-0.1464,-0.06832
-0.08296,0.08052,-0.07808,-0.0366,0.00488,-0.04392,0.05856,0.03904,-0.03904,-0.04392,-0.1464,-0.06344
-0.07808,0.07564,-0.0732,-0.03416,0.00488,-0.04148,0.0732,0.05856,-0.0244,-0.03416,-0.14152,-0.05856
-0.0732,0.06832,-0.06344,-0.02684,0.00976,-0.04148,0.08296,0.07808,-0.01464,-0.0244,-0.13176,-0.05368
-0.06832,0.061,-0.05368,-0.01952,0.01464,-0.04148,0.08784,0.0976,0.00488,-0.01464,-0.12688,-0.0488
-0.05856,0.0488,-0.03904,-0.00976,0.01952,-0.03904,0.10248,0.13664,0.03416,0.00488,-0.11224,-0.03904
-0.04392,0.03172,-0.01952,0.00244,0.0244,-0.03416,0.11712,0.1708,0.06344,0.01952,-0.0976,-0.02928
-0.03416,0.02196,-0.00976,0.00732,0.0244,-0.02928,0.12688,0.20008,0.07808,0.03416,-0.09272,-0.01952
-0.0244,0.00976,0.00488,0.01708,0.02928,-0.02684,0.14152,0.23912,0.10248,0.05368,-0.0732,-0.01464
-0.01464,0,0.01464,0.02196,0.02928,-0.02196,0.15128,0.27328,0.122,0.06832,-0.0488,-0.00488
-0.00488,-0.01708,0.03904,0.04148,0.04392,-0.0244,0.16592,0.30256,0.1464,0.08784,-0.03416,0.00976
0,-0.0244,0.0488,0.0488,0.0488,-0.0244,0.17568,0.3416,0.16592,0.10736,-0.0244,0.01952
0.00976,-0.03904,0.06832,0.06344,0.05856,-0.0244,0.17568,0.36112,0.17568,0.11224,-0.00976,0.02928
0.01464,-0.04636,0.07808,0.07076,0.06344,-0.0244,0.17568,0.37576,0.1952,0.122,0.00488,0.03904
0.01464,-0.05124,0.08784,0.08052,0.0732,-0.02928,0.17568,0.3904,0.20496,0.13176,0.01464,0.05368
0.01952,-0.05612,0.09272,0.08296,0.0732,-0.02684,0.17568,0.39528,0.20984,0.14152,0.01952,0.05856
0.01952,-0.061,0.10248,0.09272,0.08296,-0.03172,0.18056,0.40016,0.21472,0.1464,0.01952,0.06344
0.01464,-0.061,0.10736,0.10004,0.09272,-0.03904,0.18056,0.40504,0.21472,0.1464,0.0244,0.06344
0.01464,-0.06344,0.11224,0.10492,0.0976,-0.04148,0.18056,0.40504,0.2196,0.15128,0.02928,0.06832
0.01464,-0.06588,0.11712,0.1098,0.10248,-0.04392,0.18056,0.40016,0.2196,0.15128,0.02928,0.0732
0.01952,-0.06832,0.11712,0.10736,0.0976,-0.03904,0.18056,0.39528,0.2196,0.15128,0.02928,0.0732
0.01952,-0.07076,0.122,0.11224,0.10248,-0.04148,0.16592,0.37576,0.20984,0.15128,0.02928,0.07808
0.01952,-0.07076,0.122,0.11224,0.10248,-0.04148,0.16592,0.35136,0.20008,0.14152,0.0244,0.07808
0.01952,-0.06588,0.11224,0.10248,0.09272,-0.0366,0.16104,0.32696,0.18056,0.13176,0.0244,0.0732
0.01464,-0.05856,0.10248,0.09516,0.08784,-0.0366,0.15616,0.2928,0.16104,0.11712,0.00976,0.06344
0.00976,-0.05124,0.09272,0.08784,0.08296,-0.0366,0.14152,0.26352,0.1464,0.10248,0,0.05856
0,-0.03904,0.07808,0.07808,0.07808,-0.03904,0.12688,0.22448,0.12688,0.08784,-0.00976,0.0488
-0.00488,-0.02684,0.05856,0.061,0.06344,-0.03416,0.10248,0.18056,0.0976,0.06832,-0.03416,0.03904
-0.00976,-0.01708,0.04392,0.0488,0.05368,-0.03172,0.0732,0.14152,0.08296,0.05368,-0.0488,0.02928
-0.0244,-0.00244,0.02928,0.04148,0.05368,-0.03904,0.06832,0.11224,0.05368,0.02928,-0.05856,0.01952
-0.02928,0.00976,0.00976,0.0244,0.03904,-0.03416,0.06832,0.08296,0.02928,0.00976,-0.0732,0.00976
-0.03416,0.01952,-0.00488,0.0122,0.02928,-0.03172,0.05368,0.0488,0.00976,-0.00488,-0.08784,-0.00488
-0.03904,0.02684,-0.01464,0.00488,0.0244,-0.03172,0.04392,0.0244,-0.00976,-0.01952,-0.10248,-0.01464
-0.0488,0.03904,-0.02928,-0.00488,0.01952,-0.03416,0.03416,0.00488,-0.0244,-0.02928,-0.11224,-0.01952
-0.05856,0.0488,-0.03904,-0.00976,0.01952,-0.03904,0.02928,0,-0.03904,-0.03904,-0.11712,-0.0244
-0.05856,0.05612,-0.05368,-0.0244,0.00488,-0.03172,0.01952,-0.01464,-0.0488,-0.04392,-0.12688,-0.03416
-0.05856,0.061,-0.06344,-0.03416,-0.00488,-0.02684,0.01952,-0.02928,-0.05856,-0.05368,-0.12688,-0.03904
-0.06344,0.06344,-0.06344,-0.03172,0,-0.03172,0.00976,-0.03416,-0.05856,-0.05368,-0.12688,-0.04392
-0.06344,0.06344,-0.06344,-0.03172,0,-0.03172,0.00976,-0.03904,-0.06344,-0.05856,-0.122,-0.0488
-0.06832,0.06832,-0.06832,-0.03416,0,-0.03416,0,-0.0488,-0.06832,-0.05856,-0.122,-0.04392
-0.06832,0.06832,-0.06832,-0.03416,0,-0.03416,-0.00488,-0.05368,-0.06832,-0.05856,-0.122,-0.03904
-0.06832,0.06832,-0.06832,-0.03416,0,-0.03416,-0.00976,-0.05856,-0.0732,-0.06344,-0.122,-0.03904
-0.06832,0.06832,-0.06832,-0.03416,0,-0.03416,-0.00976,-0.05856,-0.0732,-0.06344,-0.12688,-0.03904
-0.06832,0.06832,-0.06832,-0.03416,0,-0.03416,-0.01464,-0.05856,-0.0732,-0.06344,-0.12688,-0.03904
-0.06832,0.07076,-0.0732,-0.03904,-0.00488,-0.03172,-0.01952,-0.05856,-0.0732,-0.06344,-0.13176,-0.03904
-0.06832,0.07076,-0.0732,-0.03904,-0.00488,-0.03172,-0.01952,-0.05856,-0.0732,-0.06344,-0.13176,-0.04392
-0.06832,0.07076,-0.0732,-0.03904,-0.00488,-0.03172,-0.01464,-0.05368,-0.0732,-0.05856,-0.13176,-0.0488
-0.06832,0.07076,-0.0732,-0.03904,-0.00488,-0.03172,-0.00976,-0.0488,-0.0732,-0.05856,-0.13176,-0.04392
-0.06832,0.0732,-0.07808,-0.04392,-0.00976,-0.02928,-0.00488,-0.0488,-0.06832,-0.05856,-0.12688,-0.04392
-0.06344,0.06832,-0.0732,-0.04148,-0.00976,-0.02684,-0.00976,-0.0488,-0.0732,-0.06344,-0.12688,-0.04392
-0.06344,0.06832,-0.0732,-0.04148,-0.00976,-0.02684,-0.00976,-0.04392,-0.07808,-0.06832,-0.12688,-0.04392
-0.06344,0.06832,-0.0732,-0.04148,-0.00976,-0.02684,-0.01952,-0.04392,-0.07808,-0.06832,-0.12688,-0.03904
-0.06344,0.06832,-0.0732,-0.04148,-0.00976,-0.02684,-0.01952,-0.04392,-0.0732,-0.06832,-0.12688,-0.03416
-0.06344,0.06832,-0.0732,-0.04148,-0.00976,-0.02684,-0.02928,-0.04392,-0.0732,-0.06344,-0.12688,-0.03416
-0.06344,0.06832,-0.0732,-0.04148,-0.00976,-0.02684,-0.03904,-0.04392,-0.0732,-0.06344,-0.11224,-0.03416
-0.05368,0.061,-0.06832,-0.04148,-0.01464,-0.01952,-0.04392,-0.04392,-0.0732,-0.06344,-0.09272,-0.02928
-0.0488,0.05368,-0.05856,-0.03416,-0.00976,-0.01952,-0.0488,-0.04392,-0.0732,-0.06344,-0.07808,-0.02928
-0.0488,0.05368,-0.05856,-0.03416,-0.00976,-0.01952,-0.05368,-0.0488,-0.0732,-0.06344,-0.08296,-0.03416
-0.0488,0.05368,-0.05856,-0.03416,-0.00976,-0.01952,-0.05856,-0.05368,-0.0732,-0.06344,-0.08784,-0.03416
-0.0488,0.05612,-0.06344,-0.03904,-0.01464,-0.01708,-0.05856,-0.05368,-0.0732,-0.06832,-0.0976,-0.03416
-0.0488,0.05856,-0.06832,-0.04392,-0.01952,-0.01464,-0.05856,-0.05368,-0.0732,-0.0732,-0.10248,-0.03416
-0.0488,0.05856,-0.06832,-0.04392,-0.01952,-0.01464,-0.05368,-0.05368,-0.0732,-0.0732,-0.10736,-0.03904
-0.0488,0.061,-0.0732,-0.0488,-0.0244,-0.0122,-0.0488,-0.05368,-0.0732,-0.0732,-0.11224,-0.03904
-0.0488,0.061,-0.0732,-0.0488,-0.0244,-0.0122,-0.05368,-0.05368,-0.0732,-0.07808,-0.122,-0.03904
-0.0488,0.061,-0.0732,-0.0488,-0.0244,-0.0122,-0.05368,-0.05368,-0.07808,-0.07808,-0.12688,-0.03904
-0.05368,0.06832,-0.08296,-0.05612,-0.02928,-0.0122,-0.05368,-0.05368,-0.07808,-0.07808,-0.13176,-0.04392
-0.06344,0.07564,-0.08784,-0.05612,-0.0244,-0.01952,-0.05368,-0.06344,-0.07808,-0.07808,-0.13664,-0.0488
-0.06344,0.07564,-0.08784,-0.05612,-0.0244,-0.01952,-0.06344,-0.06344,-0.08296,-0.07808,-0.13664,-0.0488
-0.06344,0.07564,-0.08784,-0.05612,-0.0244,-0.01952,-0.0732,-0.06344,-0.09272,-0.07808,-0.13664,-0.0488
-0.06344,0.07808,-0.09272,-0.061,-0.02928,-0.01708,-0.0732,-0.06832,-0.09272,-0.08296,-0.14152,-0.05368
-0.06344,0.07808,-0.09272,-0.061,-0.02928,-0.01708,-0.0732,-0.06832,-0.09272,-0.08296,-0.14152,-0.05368
-0.06344,0.07808,-0.09272,-0.061,-0.02928,-0.01708,-0.0732,-0.06832,-0.09272,-0.08784,-0.14152,-0.05368
-0.06832,0.08296,-0.0976,-0.06344,-0.02928,-0.01952,-0.08296,-0.06832,-0.0976,-0.09272,-0.14152,-0.05368
-0.06832,0.08296,-0.0976,-0.06344,-0.02928,-0.01952,-0.08296,-0.0732,-0.0976,-0.09272,-0.14152,-0.0488
-0.06832,0.0854,-0.10248,-0.06832,-0.03416,-0.01708,-0.08296,-0.08296,-0.0976,-0.09272,-0.1464,-0.0488
-0.06832,0.08296,-0.0976,-0.06344,-0.02928,-0.01952,-0.0732,-0.08296,-0.10248,-0.09272,-0.14152,-0.0488
-0.06832,0.08296,-0.0976,-0.06344,-0.02928,-0.01952,-0.06832,-0.08784,-0.10736,-0.09272,-0.14152,-0.0488
-0.06832,0.08296,-0.0976,-0.06344,-0.02928,-0.01952,-0.06832,-0.08296,-0.10248,-0.08784,-0.1464,-0.0488
-0.06832,0.08296,-0.0976,-0.06344,-0.02928,-0.01952,-0.06832,-0.07808,-0.0976,-0.08784,-0.15616,-0.0488
-0.06832,0.0854,-0.10248,-0.06832,-0.03416,-0.01708,-0.06832,-0.07808,-0.0976,-0.08784,-0.15616,-0.05368
-0.06832,0.08784,-0.10736,-0.0732,-0.03904,-0.01464,-0.06832,-0.07808,-0.0976,-0.08784,-0.15616,-0.05856
-0.06832,0.08784,-0.10736,-0.0732,-0.03904,-0.01464,-0.06832,-0.07808,-0.10248,-0.08784,-0.15128,-0.05856
-0.06344,0.08296,-0.10248,-0.07076,-0.03904,-0.0122,-0.06832,-0.07808,-0.10736,-0.08784,-0.15128,-0.05856
-0.06344,0.08296,-0.10248,-0.07076,-0.03904,-0.0122,-0.06832,-0.08296,-0.11224,-0.08784,-0.15128,-0.05856
-0.05856,0.07808,-0.0976,-0.06832,-0.03904,-0.00976,-0.06832,-0.08784,-0.11224,-0.08784,-0.15128,-0.05856
-0.05856,0.07808,-0.0976,-0.06832,-0.03904,-0.00976,-0.06832,-0.08296,-0.11224,-0.09272,-0.15616,-0.05856
-0.05856,0.07808,-0.0976,-0.06832,-0.03904,-0.00976,-0.06832,-0.07808,-0.11224,-0.0976,-0.15616,-0.05856
-0.06344,0.08296,-0.10248,-0.07076,-0.03904,-0.0122,-0.06832,-0.07808,-0.11224,-0.0976,-0.15616,-0.05856
-0.06832,0.0854,-0.10248,-0.06832,-0.03416,-0.01708,-0.06344,-0.07808,-0.11224,-0.0976,-0.15616,-0.05368
-0.0732,0.09028,-0.10736,-0.07076,-0.03416,-0.01952,-0.05856,-0.08296,-0.11224,-0.0976,-0.15616,-0.05368
-0.07808,0.09516,-0.11224,-0.0732,-0.03416,-0.02196,-0.05368,-0.08296,-0.11224,-0.10248,-0.15616,-0.05368
-0.07808,0.09516,-0.11224,-0.0732,-0.03416,-0.02196,-0.05368,-0.08296,-0.11224,-0.10736,-0.16104,-0.05368
-0.07808,0.09516,-0.11224,-0.0732,-0.03416,-0.02196,-0.05368,-0.08784,-0.11224,-0.11224,-0.1708,-0.05368
-0.07808,0.09272,-0.10736,-0.06832,-0.02928,-0.0244,-0.05856,-0.08784,-0.11224,-0.10736,-0.1708,-0.05856
-0.0732,0.0854,-0.0976,-0.061,-0.0244,-0.0244,-0.06344,-0.08784,-0.11224,-0.10736,-0.1708,-0.06344
-0.06832,0.07808,-0.08784,-0.05368,-0.01952,-0.0244,-0.06832,-0.08296,-0.11712,-0.10248,-0.16592,-0.05856
-0.05856,0.06588,-0.0732,-0.04392,-0.01464,-0.02196,-0.06344,-0.08296,-0.11712,-0.09272,-0.15616,-0.0488
-0.05368,0.05124,-0.0488,-0.02196,0.00488,-0.02928,-0.04392,-0.0732,-0.09272,-0.08296,-0.14152,-0.03904
-0.04392,0.03904,-0.03416,-0.0122,0.00976,-0.02684,-0.03416,-0.06344,-0.08296,-0.07808,-0.13176,-0.03416
-0.03416,0.02928,-0.0244,-0.00732,0.00976,-0.02196,-0.03416,-0.05368,-0.07808,-0.0732,-0.11712,-0.02928
-0.0244,0.02196,-0.01952,-0.00732,0.00488,-0.01464,-0.03416,-0.0488,-0.0732,-0.06832,-0.0976,-0.0244
-0.01952,0.02196,-0.0244,-0.01464,-0.00488,-0.00732,-0.02928,-0.0488,-0.06832,-0.06344,-0.07808,-0.01952
-0.00976,0.0122,-0.01464,-0.00976,-0.00488,-0.00244,-0.01952,-0.0488,-0.06344,-0.05856,-0.05368,-0.01464
-0.00488,0,0.00488,0.00732,0.00976,-0.00732,-0.01464,-0.04392,-0.05368,-0.0488,-0.05368,0
0,-0.00976,0.01952,0.01952,0.01952,-0.00976,-0.01464,-0.03904,-0.04392,-0.03904,-0.05368,0.00976
0,-0.0122,0.0244,0.0244,0.0244,-0.0122,-0.0244,-0.03904,-0.0488,-0.03904,-0.06344,0.00976
0,-0.0122,0.0244,0.0244,0.0244,-0.0122,-0.04392,-0.05368,-0.05856,-0.04392,-0.0732,0.00976
0.00976,-0.01464,0.01952,0.01464,0.00976,0,-0.06344,-0.06344,-0.06832,-0.0488,-0.0732,0.00976
0.00976,-0.00488,0,-0.00488,-0.00976,0.00976,-0.07808,-0.07808,-0.08296,-0.05856,-0.08784,0.00488
0.00976,0.00488,-0.01952,-0.0244,-0.02928,0.01952,-0.08784,-0.08784,-0.09272,-0.06832,-0.0976,0
0.00976,0.01708,-0.04392,-0.0488,-0.05368,0.03172,-0.09272,-0.08784,-0.09272,-0.0732,-0.10736,-0.00976
0,0.03416,-0.06832,-0.06832,-0.06832,0.03416,-0.09272,-0.09272,-0.10248,-0.08296,-0.11712,-0.0244
-0.01464,0.05612,-0.0976,-0.09028,-0.08296,0.03416,-0.09272,-0.0976,-0.11712,-0.10248,-0.13176,-0.04392
-0.0488,0.08296,-0.11712,-0.09272,-0.06832,0.00976,-0.08784,-0.10248,-0.12688,-0.11224,-0.1464,-0.05856
-0.0732,0.10492,-0.13664,-0.10004,-0.06344,-0.00488,-0.08784,-0.10736,-0.13176,-0.122,-0.15616,-0.06832
-0.08296,0.11712,-0.15128,-0.1098,-0.06832,-0.00732,-0.08784,-0.11712,-0.14152,-0.13176,-0.1708,-0.08296
-0.08296,0.11712,-0.15128,-0.1098,-0.06832,-0.00732,-0.0976,-0.122,-0.14152,-0.13176,-0.1708,-0.08296
-0.0732,0.11224,-0.15128,-0.11468,-0.07808,0.00244,-0.0976,-0.122,-0.14152,-0.13176,-0.1708,-0.07808
-0.06832,0.1098,-0.15128,-0.11712,-0.08296,0.00732,-0.0976,-0.122,-0.14152,-0.13176,-0.1708,-0.07808
-0.06832,0.11224,-0.15616,-0.122,-0.08784,0.00976,-0.0976,-0.122,-0.14152,-0.13176,-0.1708,-0.07808
-0.0732,0.11468,-0.15616,-0.11956,-0.08296,0.00488,-0.09272,-0.122,-0.14152,-0.13176,-0.1708,-0.07808
-0.07808,0.11712,-0.15616,-0.11712,-0.07808,0,-0.09272,-0.11712,-0.14152,-0.13176,-0.1708,-0.07808
-0.08296,0.11956,-0.15616,-0.11468,-0.0732,-0.00488,-0.08784,-0.11712,-0.14152,-0.12688,-0.17568,-0.07808
-0.08296,0.122,-0.16104,-0.11956,-0.07808,-0.00244,-0.08296,-0.10736,-0.13664,-0.12688,-0.17568,-0.08296
-0.08784,0.12688,-0.16592,-0.122,-0.07808,-0.00488,-0.06832,-0.09272,-0.12688,-0.13176,-0.17568,-0.08296
-0.10736,0.14152,-0.17568,-0.122,-0.06832,-0.01952,-0.02928,-0.0488,-0.11224,-0.11712,-0.18056,-0.09272
-0.12688,0.16104,-0.1952,-0.13176,-0.06832,-0.02928,0.03416,0.02928,-0.09272,-0.11224,-0.19032,-0.122
-0.10736,0.13176,-0.15616,-0.10248,-0.0488,-0.02928,0.0976,0.17568,0.01952,-0.02928,-0.14152,-0.07808
-0.04392,0.03172,-0.01952,0.00244,0.0244,-0.03416,0.16104,0.40016,0.2196,0.13176,-0.00488,0.0244
0.02928,-0.09272,0.15616,0.14152,0.12688,-0.0488,0.26352,0.7076,0.47824,0.3416,0.15616,0.15128
0.20984,-0.3294,0.44896,0.34404,0.23912,-0.01464,0.3172,1.17608,0.89304,0.68808,0.4392,0.37088
0.46848,-0.61732,0.76616,0.53192,0.29768,0.0854,0.26352,1.62016,1.30296,1.03944,0.76128,0.63928
0.71248,-0.92964,1.1468,0.79056,0.43432,0.13908,0.11224,1.9276,1.6348,1.36152,1.0736,0.93696
0.80032,-1.13704,1.47376,1.0736,0.67344,0.06344,-0.03416,1.81536,1.6592,1.44448,1.1956,1.11752
0.71736,-1.16144,1.60552,1.24684,0.88816,-0.0854,-0.23912,1.27368,1.32736,1.25416,1.12728,1.15656
0.5856,-1.0004,1.4152,1.1224,0.8296,-0.122,-0.49776,0.47824,0.7564,0.85888,0.85888,1.01016
0.28304,-0.61732,0.9516,0.81008,0.66856,-0.19276,-0.72224,-0.81984,-0.11712,0.23912,0.38552,0.6832
0.122,-0.37332,0.62464,0.56364,0.50264,-0.19032,-0.7564,-1.06384,-0.37088,-0.01952,0.15616,0.45384
0.03904,-0.17568,0.31232,0.2928,0.27328,-0.11712,-0.67344,-0.93208,-0.43432,-0.15616,-0.01464,0.24888
0.00488,-0.05124,0.0976,0.09516,0.09272,-0.04392,-0.58072,-0.75152,-0.41968,-0.20008,-0.10736,0.13176
-0.0488,0.04636,-0.04392,-0.01952,0.00488,-0.02684,-0.45384,-0.60024,-0.38552,-0.22936,-0.1708,0.03904
-0.07808,0.07564,-0.0732,-0.03416,0.00488,-0.04148,-0.33184,-0.47336,-0.33184,-0.22448,-0.1952,-0.00488
-0.09272,0.09516,-0.0976,-0.05124,-0.00488,-0.04392,-0.22936,-0.38064,-0.28304,-0.20008,-0.20008,-0.03416
-0.09272,0.11224,-0.13176,-0.0854,-0.03904,-0.02684,-0.16592,-0.28304,-0.23424,-0.18056,-0.20496,-0.05368
-0.10248,0.13176,-0.16104,-0.1098,-0.05856,-0.02196,-0.122,-0.22448,-0.21472,-0.1708,-0.20984,-0.06344
-0.10248,0.13908,-0.17568,-0.12444,-0.0732,-0.01464,-0.07808,-0.18544,-0.1952,-0.16104,-0.20984,-0.07808
-0.0976,0.13176,-0.16592,-0.11712,-0.06832,-0.01464,-0.05368,-0.16104,-0.17568,-0.15128,-0.20496,-0.06832
-0.0976,0.13176,-0.16592,-0.11712,-0.06832,-0.01464,-0.03416,-0.13176,-0.16104,-0.14152,-0.20008,-0.06832
-0.0976,0.13176,-0.16592,-0.11712,-0.06832,-0.01464,-0.02928,-0.122,-0.15128,-0.13176,-0.1952,-0.06832
-0.10248,0.1342,-0.16592,-0.11468,-0.06344,-0.01952,-0.02928,-0.11712,-0.15128,-0.13176,-0.20008,-0.0732
-0.10248,0.13664,-0.1708,-0.11956,-0.06832,-0.01708,-0.02928,-0.10248,-0.15128,-0.13176,-0.20008,-0.07808
-0.0976,0.13664,-0.17568,-0.12688,-0.07808,-0.00976,-0.0244,-0.09272,-0.1464,-0.13176,-0.20496,-0.07808
-0.0976,0.13664,-0.17568,-0.12688,-0.07808,-0.00976,-0.0244,-0.07808,-0.14152,-0.12688,-0.20496,-0.07808
-0.09272,0.1342,-0.17568,-0.12932,-0.08296,-0.00488,-0.01464,-0.0732,-0.12688,-0.12688,-0.20008,-0.0732
-0.09272,0.1342,-0.17568,-0.12932,-0.08296,-0.00488,-0.00488,-0.06344,-0.11712,-0.122,-0.19032,-0.06832
-0.09272,0.13176,-0.1708,-0.12444,-0.07808,-0.00732,-0.00488,-0.05368,-0.10736,-0.122,-0.18544,-0.06832
-0.09272,0.12932,-0.16592,-0.11956,-0.0732,-0.00976,0,-0.0488,-0.10248,-0.11712,-0.18056,-0.06344
-0.08784,0.12688,-0.16592,-0.122,-0.07808,-0.00488,0.00488,-0.03904,-0.10736,-0.11712,-0.18056,-0.06344
-0.08784,0.12688,-0.16592,-0.122,-0.07808,-0.00488,0.01464,-0.02928,-0.10736,-0.11224,-0.17568,-0.06344
-0.08784,0.12444,-0.16104,-0.11712,-0.0732,-0.00732,0.01952,-0.0244,-0.0976,-0.10736,-0.1708,-0.05856
-0.08296,0.11956,-0.15616,-0.11468,-0.0732,-0.00488,0.01952,-0.01464,-0.0976,-0.10248,-0.16104,-0.05856
-0.0732,0.11224,-0.15128,-0.11468,-0.07808,0.00244,0.03904,0,-0.08296,-0.09272,-0.13664,-0.05368
-0.06832,0.10492,-0.14152,-0.10736,-0.0732,0.00244,0.05368,0.00976,-0.06344,-0.09272,-0.11224,-0.05368
-0.06832,0.10004,-0.13176,-0.0976,-0.06344,-0.00244,0.06344,0.03904,-0.05368,-0.07808,-0.0976,-0.0488
-0.06344,0.09516,-0.12688,-0.09516,-0.06344,0,0.08296,0.06832,-0.03904,-0.0732,-0.08296,-0.04392
-0.05368,0.0854,-0.11712,-0.09028,-0.06344,0.00488,0.0976,0.08784,-0.0244,-0.06344,-0.08784,-0.03904
-0.04392,0.0732,-0.10248,-0.08052,-0.05856,0.00732,0.11224,0.10736,-0.01464,-0.05368,-0.09272,-0.03416
-0.03904,0.06588,-0.09272,-0.0732,-0.05368,0.00732,0.11712,0.12688,0.00488,-0.04392,-0.09272,-0.02928
-0.03416,0.05612,-0.07808,-0.061,-0.04392,0.00488,0.13176,0.16104,0.02928,-0.0244,-0.08296,-0.01952
-0.0244,0.04148,-0.05856,-0.04636,-0.03416,0.00488,0.14152,0.1952,0.05368,-0.00488,-0.06832,-0.00976
-0.01464,0.03172,-0.0488,-0.04148,-0.03416,0.00976,0.1464,0.22936,0.06832,0.01464,-0.06344,0
-0.00976,0.02196,-0.03416,-0.02928,-0.0244,0.00732,0.15616,0.2684,0.0976,0.03416,-0.04392,0.00488
-0.00488,0.01464,-0.0244,-0.02196,-0.01952,0.00732,0.16104,0.30256,0.122,0.0488,-0.0244,0.01464
0.00488,0,-0.00488,-0.00732,-0.00976,0.00732,0.17568,0.33184,0.1464,0.06832,-0.01464,0.03416
0.00976,-0.00488,0,-0.00488,-0.00976,0.00976,0.18544,0.366,0.16592,0.08784,-0.00488,0.0488
0.0244,-0.02196,0.01952,0.00732,-0.00488,0.01464,0.1952,0.38064,0.1708,0.09272,0.00976,0.05856
0.03416,-0.03172,0.02928,0.0122,-0.00488,0.01952,0.20496,0.39528,0.18544,0.10248,0.0244,0.06344
0.03416,-0.03904,0.04392,0.02684,0.00976,0.0122,0.1952,0.40504,0.19032,0.11224,0.03904,0.06832
0.03904,-0.04636,0.05368,0.03416,0.01464,0.0122,0.19032,0.40504,0.19032,0.122,0.0488,0.06832
0.03904,-0.05124,0.06344,0.04392,0.0244,0.00732,0.20008,0.40504,0.1952,0.12688,0.0488,0.0732
0.03904,-0.05368,0.06832,0.0488,0.02928,0.00488,0.20008,0.40504,0.1952,0.12688,0.05368,0.0732
0.03416,-0.05368,0.0732,0.05612,0.03904,-0.00244,0.20008,0.40016,0.20008,0.12688,0.06344,0.07808
0.0244,-0.05124,0.07808,0.06588,0.05368,-0.01464,0.20008,0.3904,0.20008,0.122,0.06832,0.08296
0.02928,-0.05368,0.07808,0.06344,0.0488,-0.00976,0.1952,0.38064,0.1952,0.122,0.0732,0.08296
0.02928,-0.05612,0.08296,0.06832,0.05368,-0.0122,0.17568,0.35624,0.18056,0.122,0.07808,0.08784
0.02928,-0.05612,0.08296,0.06832,0.05368,-0.0122,0.16592,0.32208,0.16592,0.10736,0.0732,0.08296
0.0244,-0.0488,0.0732,0.061,0.0488,-0.0122,0.1464,0.28304,0.14152,0.09272,0.0732,0.0732
0.01464,-0.03904,0.06344,0.05612,0.0488,-0.01708,0.13664,0.244,0.11712,0.07808,0.05856,0.06344
0.00976,-0.03172,0.05368,0.0488,0.04392,-0.01708,0.122,0.21472,0.09272,0.06344,0.0488,0.05856
0,-0.01952,0.03904,0.03904,0.03904,-0.01952,0.10248,0.1708,0.06832,0.0488,0.03904,0.04392
-0.00488,-0.00732,0.01952,0.02196,0.0244,-0.01464,0.08296,0.12688,0.03904,0.02928,0.01952,0.02928
-0.00488,0,0.00488,0.00732,0.00976,-0.00732,0.06344,0.09272,0.0244,0.00976,0.00976,0.01952
-0.01464,0.0122,-0.00976,-0.00244,0.00488,-0.00976,0.0488,0.06344,0,-0.01464,0,0.00976
-0.01952,0.0244,-0.02928,-0.01952,-0.00976,-0.00488,0.03416,0.03416,-0.01952,-0.02928,-0.00488,0
-0.0244,0.03416,-0.04392,-0.03172,-0.01952,-0.00244,0.01464,0.00488,-0.03904,-0.04392,-0.00976,-0.01464
-0.02928,0.04148,-0.05368,-0.03904,-0.0244,-0.00244,0.00488,-0.01464,-0.06344,-0.05856,-0.01952,-0.0244
-0.03416,0.05124,-0.06832,-0.05124,-0.03416,0,-0.00488,-0.03416,-0.07808,-0.06832,-0.0244,-0.02928
-0.03904,0.05856,-0.07808,-0.05856,-0.03904,0,-0.01464,-0.03904,-0.08784,-0.07808,-0.0244,-0.03416
-0.03904,0.06344,-0.08784,-0.06832,-0.0488,0.00488,-0.02928,-0.05368,-0.0976,-0.08296,-0.02928,-0.03904
-0.03904,0.06588,-0.09272,-0.0732,-0.05368,0.00732,-0.03416,-0.0732,-0.10736,-0.09272,-0.0244,-0.03904
-0.04392,0.06832,-0.09272,-0.07076,-0.0488,0.00244,-0.0488,-0.08296,-0.10736,-0.09272,-0.0244,-0.04392
-0.03904,0.06588,-0.09272,-0.0732,-0.05368,0.00732,-0.0488,-0.09272,-0.11224,-0.10248,-0.0244,-0.0488
-0.03904,0.06832,-0.0976,-0.07808,-0.05856,0.00976,-0.05368,-0.10248,-0.11712,-0.10736,-0.0244,-0.0488
-0.03416,0.06344,-0.09272,-0.07564,-0.05856,0.0122,-0.05368,-0.10248,-0.11712,-0.10736,-0.01464,-0.0488
-0.02928,0.05856,-0.08784,-0.0732,-0.05856,0.01464,-0.05856,-0.10736,-0.122,-0.11224,-0.00488,-0.0488
-0.02928,0.05856,-0.08784,-0.0732,-0.05856,0.01464,-0.05856,-0.10736,-0.122,-0.11224,-0.00976,-0.0488
-0.02928,0.05856,-0.08784,-0.0732,-0.05856,0.01464,-0.05856,-0.10736,-0.122,-0.11224,-0.00976,-0.0488
-0.02928,0.05856,-0.08784,-0.0732,-0.05856,0.01464,-0.05856,-0.10736,-0.122,-0.10736,-0.00488,-0.0488
-0.02928,0.05612,-0.08296,-0.06832,-0.05368,0.0122,-0.05856,-0.11224,-0.122,-0.10248,0.00488,-0.0488
-0.02928,0.05612,-0.08296,-0.06832,-0.05368,0.0122,-0.05368,-0.11224,-0.122,-0.0976,0.00976,-0.0488
-0.02928,0.05368,-0.07808,-0.06344,-0.0488,0.00976,-0.05368,-0.10736,-0.122,-0.0976,0.01464,-0.04392
-0.02928,0.05368,-0.07808,-0.06344,-0.0488,0.00976,-0.05368,-0.10736,-0.11712,-0.0976,0.0244,-0.04392
-0.0244,0.0488,-0.0732,-0.061,-0.0488,0.0122,-0.05856,-0.10736,-0.11712,-0.0976,0.02928,-0.04392
-0.01952,0.04636,-0.0732,-0.06344,-0.05368,0.01708,-0.05856,-0.10248,-0.11712,-0.0976,0.03416,-0.04392
-0.01464,0.04392,-0.0732,-0.06588,-0.05856,0.02196,-0.06832,-0.10248,-0.11712,-0.0976,0.03904,-0.04392
-0.01464,0.04392,-0.0732,-0.06588,-0.05856,0.02196,-0.06832,-0.0976,-0.11224,-0.0976,0.03904,-0.0488
-0.01464,0.04392,-0.0732,-0.06588,-0.05856,0.02196,-0.06832,-0.09272,-0.11224,-0.09272,0.03904,-0.05368
-0.00976,0.04148,-0.0732,-0.06832,-0.06344,0.02684,-0.06344,-0.08784,-0.10736,-0.08784,0.05368,-0.05368
0,0.0366,-0.0732,-0.0732,-0.0732,0.0366,-0.05856,-0.08296,-0.10248,-0.08296,0.05856,-0.0488
0,0.03416,-0.06832,-0.06832,-0.06832,0.03416,-0.05856,-0.08296,-0.10248,-0.08296,0.06832,-0.0488
0,0.03416,-0.06832,-0.06832,-0.06832,0.03416,-0.05856,-0.08296,-0.10248,-0.08296,0.0732,-0.05368
0.00488,0.02928,-0.06344,-0.06588,-0.06832,0.0366,-0.06344,-0.08784,-0.10248,-0.08296,0.0732,-0.05368
0.00976,0.0244,-0.05856,-0.06344,-0.06832,0.03904,-0.06832,-0.09272,-0.10248,-0.08296,0.0732,-0.05368
0.00976,0.0244,-0.05856,-0.06344,-0.06832,0.03904,-0.06832,-0.09272,-0.10248,-0.08296,0.0732,-0.05368
0.00976,0.0244,-0.05856,-0.06344,-0.06832,0.03904,-0.06832,-0.09272,-0.10248,-0.08296,0.0732,-0.05856
0.00976,0.02684,-0.06344,-0.06832,-0.0732,0.04148,-0.06832,-0.09272,-0.10248,-0.08296,0.0732,-0.05856
0.00976,0.02684,-0.06344,-0.06832,-0.0732,0.04148,-0.0732,-0.09272,-0.10248,-0.08784,0.06832,-0.05856
0.00976,0.02684,-0.06344,-0.06832,-0.0732,0.04148,-0.0732,-0.08784,-0.10736,-0.08784,0.0732,-0.05856
0.00976,0.02928,-0.06832,-0.0732,-0.07808,0.04392,-0.0732,-0.08296,-0.10736,-0.08784,0.0732,-0.05856
0.00488,0.03172,-0.06832,-0.07076,-0.0732,0.03904,-0.0732,-0.09272,-0.10736,-0.09272,0.06832,-0.06344
0.00488,0.03172,-0.06832,-0.07076,-0.0732,0.03904,-0.0732,-0.09272,-0.10736,-0.0976,0.06832,-0.06832
0.00976,0.02928,-0.06832,-0.0732,-0.07808,0.04392,-0.0732,-0.09272,-0.11712,-0.0976,0.06832,-0.06832
0.01464,0.02928,-0.0732,-0.08052,-0.08784,0.05124,-0.0732,-0.0976,-0.122,-0.10248,0.06344,-0.0732
0.01464,0.02928,-0.0732,-0.08052,-0.08784,0.05124,-0.06344,-0.10248,-0.122,-0.0976,0.06344,-0.06832
0.01464,0.02928,-0.0732,-0.08052,-0.08784,0.05124,-0.05368,-0.10736,-0.122,-0.09272,0.06344,-0.06344
0.00976,0.03416,-0.07808,-0.08296,-0.08784,0.0488,-0.06344,-0.10736,-0.122,-0.09272,0.06832,-0.06344
0.00976,0.03416,-0.07808,-0.08296,-0.08784,0.0488,-0.06344,-0.10736,-0.11712,-0.09272,0.0732,-0.06344
0.00976,0.0366,-0.08296,-0.08784,-0.09272,0.05124,-0.06344,-0.11224,-0.11712,-0.09272,0.06832,-0.0732
0.00976,0.0366,-0.08296,-0.08784,-0.09272,0.05124,-0.05856,-0.11224,-0.122,-0.0976,0.06832,-0.07808
0.00976,0.0366,-0.08296,-0.08784,-0.09272,0.05124,-0.05368,-0.11224,-0.122,-0.0976,0.06344,-0.07808
0.00976,0.03904,-0.08784,-0.09272,-0.0976,0.05368,-0.05368,-0.11712,-0.12688,-0.10248,0.06344,-0.07808
0.00976,0.03904,-0.08784,-0.09272,-0.0976,0.05368,-0.05368,-0.11224,-0.12688,-0.10248,0.06344,-0.08296
0.00976,0.03904,-0.08784,-0.09272,-0.0976,0.05368,-0.05856,-0.10736,-0.12688,-0.10736,0.06832,-0.08784
0.00976,0.03904,-0.08784,-0.09272,-0.0976,0.05368,-0.05856,-0.10736,-0.12688,-0.10736,0.06832,-0.08784
0.00976,0.03904,-0.08784,-0.09272,-0.0976,0.05368,-0.05856,-0.10736,-0.12688,-0.10736,0.06832,-0.08784
0.00976,0.03904,-0.08784,-0.09272,-0.0976,0.05368,-0.05368,-0.10736,-0.12688,-0.10736,0.06832,-0.09272
0.00976,0.03904,-0.08784,-0.09272,-0.0976,0.05368,-0.0488,-0.10736,-0.12688,-0.10736,0.06344,-0.09272
0.00976,0.03904,-0.08784,-0.09272,-0.0976,0.05368,-0.0488,-0.11224,-0.13176,-0.10736,0.06344,-0.0976
0.00976,0.03904,-0.08784,-0.09272,-0.0976,0.05368,-0.0488,-0.11712,-0.13176,-0.10736,0.06344,-0.0976
0.00976,0.03904,-0.08784,-0.09272,-0.0976,0.05368,-0.0488,-0.11712,-0.13176,-0.10736,0.06344,-0.0976
0.00976,0.03904,-0.08784,-0.09272,-0.0976,0.05368,-0.0488,-0.11712,-0.13176,-0.10736,0.06832,-0.0976
0.00976,0.04392,-0.0976,-0.10248,-0.10736,0.05856,-0.0488,-0.11712,-0.13176,-0.10736,0.06832,-0.10248
0.00976,0.04636,-0.10248,-0.10736,-0.11224,0.061,-0.04392,-0.11712,-0.13176,-0.10736,0.06832,-0.10248
0.00976,0.04636,-0.10248,-0.10736,-0.11224,0.061,-0.04392,-0.11712,-0.13176,-0.10248,0.06344,-0.10248
0.00976,0.04636,-0.10248,-0.10736,-0.11224,0.061,-0.04392,-0.11224,-0.13176,-0.10248,0.05856,-0.10248
0.00976,0.04636,-0.10248,-0.10736,-0.11224,0.061,-0.04392,-0.11224,-0.13176,-0.10248,0.06344,-0.10248
0.00976,0.04636,-0.10248,-0.10736,-0.11224,0.061,-0.04392,-0.11712,-0.13176,-0.10248,0.06344,-0.10248
0.00976,0.04392,-0.0976,-0.10248,-0.10736,0.05856,-0.0488,-0.11712,-0.13176,-0.0976,0.05856,-0.10248
0.01464,0.0366,-0.08784,-0.09516,-0.10248,0.05856,-0.05368,-0.11712,-0.13176,-0.0976,0.05368,-0.10248
0.01464,0.03172,-0.07808,-0.0854,-0.09272,0.05368,-0.05368,-0.10248,-0.12688,-0.09272,0.05368,-0.0976
0.01952,0.02196,-0.06344,-0.0732,-0.08296,0.05124,-0.04392,-0.09272,-0.11712,-0.08296,0.05856,-0.08784
0.01952,0.00976,-0.03904,-0.0488,-0.05856,0.03904,-0.0244,-0.08296,-0.0976,-0.06832,0.06832,-0.07808
0.0244,0,-0.0244,-0.0366,-0.0488,0.0366,-0.01464,-0.0732,-0.09272,-0.05856,0.0732,-0.0732
0.02928,-0.00244,-0.0244,-0.03904,-0.05368,0.04148,-0.01464,-0.06832,-0.08784,-0.05368,0.06832,-0.0732
0.03416,-0.00244,-0.02928,-0.04636,-0.06344,0.0488,-0.01464,-0.06832,-0.08296,-0.0488,0.06832,-0.0732
0.03904,-0.00488,-0.02928,-0.0488,-0.06832,0.05368,-0.01952,-0.06832,-0.08296,-0.05368,0.06344,-0.0732
0.0488,-0.01708,-0.01464,-0.03904,-0.06344,0.05612,-0.01952,-0.06832,-0.08296,-0.05856,0.06344,-0.0732
0.05368,-0.02928,0.00488,-0.02196,-0.0488,0.05124,-0.01464,-0.06344,-0.0732,-0.0488,0.0732,-0.05856
0.05856,-0.03904,0.01952,-0.00976,-0.03904,0.0488,-0.01464,-0.05856,-0.06344,-0.03904,0.08296,-0.0488
0.06344,-0.04392,0.0244,-0.00732,-0.03904,0.05124,-0.01464,-0.05856,-0.06344,-0.03416,0.08296,-0.0488
0.06832,-0.04636,0.0244,-0.00976,-0.04392,0.05612,-0.0244,-0.0732,-0.06832,-0.03416,0.08296,-0.0488
0.07808,-0.0488,0.01952,-0.01952,-0.05856,0.06832,-0.03904,-0.08296,-0.07808,-0.03904,0.08784,-0.0488
0.07808,-0.03904,0,-0.03904,-0.07808,0.07808,-0.0488,-0.0976,-0.09272,-0.0488,0.07808,-0.05368
0.08296,-0.0366,-0.00976,-0.05124,-0.09272,0.08784,-0.05856,-0.10736,-0.10248,-0.05856,0.0732,-0.05856
0.08784,-0.03172,-0.0244,-0.06832,-0.11224,0.10004,-0.06344,-0.10736,-0.10248,-0.06344,0.06832,-0.06832
0.07808,-0.01464,-0.0488,-0.08784,-0.12688,0.10248,-0.06832,-0.10736,-0.10248,-0.06832,0.05856,-0.07808
0.06344,0.00732,-0.07808,-0.1098,-0.14152,0.10248,-0.0732,-0.10736,-0.10736,-0.08296,0.04392,-0.09272
0.0244,0.0366,-0.0976,-0.1098,-0.122,0.0732,-0.06344,-0.11224,-0.11712,-0.09272,0.0244,-0.10736
-0.00488,0.061,-0.11712,-0.11468,-0.11224,0.05368,-0.05856,-0.11712,-0.122,-0.10248,0.00976,-0.11712
-0.01464,0.07564,-0.13664,-0.12932,-0.122,0.05368,-0.05856,-0.12688,-0.13176,-0.11224,-0.00488,-0.13176
-0.01464,0.07808,-0.14152,-0.1342,-0.12688,0.05612,-0.06832,-0.13176,-0.13176,-0.11224,-0.00488,-0.13176
-0.00976,0.07564,-0.14152,-0.13664,-0.13176,0.061,-0.06832,-0.12688,-0.13176,-0.11224,-0.00488,-0.12688
-0.00976,0.07564,-0.14152,-0.13664,-0.13176,0.061,-0.06832,-0.122,-0.13176,-0.11224,-0.00488,-0.12688
-0.00976,0.07808,-0.1464,-0.14152,-0.13664,0.06344,-0.06832,-0.122,-0.13176,-0.11224,-0.00488,-0.13176
-0.01464,0.08052,-0.1464,-0.13908,-0.13176,0.05856,-0.06344,-0.122,-0.13176,-0.11224,-0.00488,-0.13664
-0.01464,0.08052,-0.1464,-0.13908,-0.13176,0.05856,-0.06344,-0.122,-0.13176,-0.11224,-0.00488,-0.13664
-0.01464,0.08052,-0.1464,-0.13908,-0.13176,0.05856,-0.05856,-0.12688,-0.13176,-0.10736,-0.00976,-0.13664
-0.01464,0.08296,-0.15128,-0.14396,-0.13664,0.061,-0.06344,-0.12688,-0.13176,-0.11224,-0.00976,-0.14152
-0.01952,0.08784,-0.15616,-0.1464,-0.13664,0.05856,-0.05856,-0.122,-0.12688,-0.122,-0.00976,-0.14152
-0.0488,0.11712,-0.18544,-0.16104,-0.13664,0.04392,-0.0244,-0.122,-0.14152,-0.13664,-0.03904,-0.15616
-0.07808,0.15128,-0.22448,-0.18544,-0.1464,0.03416,0.03416,-0.08784,-0.15128,-0.16104,-0.0732,-0.19032
-0.0732,0.14396,-0.21472,-0.17812,-0.14152,0.03416,0.08784,-0.01464,-0.10736,-0.12688,-0.06832,-0.18056
-0.0244,0.06588,-0.10736,-0.09516,-0.08296,0.02928,0.14152,0.13664,0.0244,-0.01464,0.0244,-0.11224
0.00976,-0.02928,0.0488,0.04392,0.03904,-0.01464,0.2928,0.41968,0.24888,0.16592,0.16104,-0.00976
0.15128,-0.23668,0.32208,0.24644,0.1708,-0.00976,0.39528,0.86376,0.62952,0.48312,0.41968,0.18544
0.44896,-0.549,0.64904,0.42456,0.20008,0.12444,0.35624,1.41032,1.13216,0.9028,0.7808,0.47336
0.732,-0.88572,1.03944,0.67344,0.30744,0.21228,0.2196,1.82024,1.55672,1.2932,1.13216,0.79056
0.91256,-1.19804,1.48352,1.02724,0.57096,0.1708,0.06832,1.93736,1.75192,1.51768,1.37128,1.06384
0.92232,-1.32736,1.7324,1.27124,0.81008,0.05612,-0.14152,1.62504,1.59088,1.46888,1.42008,1.1956
0.82472,-1.20292,1.58112,1.16876,0.7564,0.03416,-0.488,0.76128,0.99552,1.0736,1.17608,1.09312
0.55632,-0.85644,1.15656,0.8784,0.60024,-0.02196,-0.80032,-0.60512,0.0976,0.45384,0.72712,0.81008
0.33184,-0.5612,0.79056,0.62464,0.45872,-0.06344,-0.83936,-0.98576,-0.24888,0.122,0.44896,0.55144
0.18544,-0.31232,0.4392,0.34648,0.25376,-0.03416,-0.76128,-0.99064,-0.40504,-0.08784,0.22936,0.3172
0.13176,-0.16836,0.20496,0.13908,0.0732,0.02928,-0.62952,-0.79544,-0.3904,-0.13664,0.10736,0.16104
0.05856,-0.05124,0.04392,0.01464,-0.01464,0.0366,-0.4636,-0.62952,-0.35624,-0.1708,0.01464,0.02928
0.01464,-0.00244,-0.00976,-0.01708,-0.0244,0.01952,-0.32208,-0.47824,-0.29768,-0.1708,-0.00976,-0.01952
-0.01464,0.0366,-0.05856,-0.05124,-0.04392,0.01464,-0.20008,-0.36112,-0.244,-0.15128,-0.01464,-0.05368
-0.01952,0.05612,-0.09272,-0.08296,-0.0732,0.02684,-0.13176,-0.2684,-0.20008,-0.13664,-0.02928,-0.08296
-0.03416,0.07808,-0.122,-0.10492,-0.08784,0.02684,-0.08296,-0.21472,-0.18544,-0.13176,-0.04392,-0.10248
-0.03904,0.09516,-0.15128,-0.13176,-0.11224,0.0366,-0.03904,-0.1708,-0.1708,-0.13176,-0.0488,-0.12688
-0.03904,0.0976,-0.15616,-0.13664,-0.11712,0.03904,-0.01464,-0.14152,-0.15616,-0.13176,-0.0488,-0.12688
-0.03904,0.0976,-0.15616,-0.13664,-0.11712,0.03904,0,-0.11712,-0.1464,-0.12688,-0.0488,-0.12688
-0.03904,0.0976,-0.15616,-0.13664,-0.11712,0.03904,0,-0.11224,-0.14152,-0.122,-0.0488,-0.12688
-0.0488,0.10248,-0.15616,-0.13176,-0.10736,0.02928,0.00488,-0.10736,-0.13664,-0.122,-0.05368,-0.13176
-0.05368,0.10736,-0.16104,-0.1342,-0.10736,0.02684,0.00976,-0.09272,-0.13176,-0.122,-0.05368,-0.13664
-0.0488,0.10736,-0.16592,-0.14152,-0.11712,0.03416,0.01952,-0.08784,-0.12688,-0.122,-0.05856,-0.13664
-0.0488,0.10736,-0.16592,-0.14152,-0.11712,0.03416,0.0244,-0.07808,-0.122,-0.11712,-0.05856,-0.13664
-0.04392,0.10492,-0.16592,-0.14396,-0.122,0.03904,0.0244,-0.0732,-0.11712,-0.11712,-0.05368,-0.13664
-0.04392,0.10492,-0.16592,-0.14396,-0.122,0.03904,0.0244,-0.06344,-0.11712,-0.11224,-0.04392,-0.13664
-0.04392,0.10492,-0.16592,-0.14396,-0.122,0.03904,0.0244,-0.05368,-0.10736,-0.11224,-0.04392,-0.13664
-0.04392,0.10492,-0.16592,-0.14396,-0.122,0.03904,0.02928,-0.0488,-0.10248,-0.10736,-0.04392,-0.13176
-0.03904,0.10248,-0.16592,-0.1464,-0.12688,0.04392,0.03416,-0.04392,-0.10248,-0.10736,-0.04392,-0.13176
-0.03904,0.10248,-0.16592,-0.1464,-0.12688,0.04392,0.04392,-0.03904,-0.0976,-0.10248,-0.03904,-0.13176
-0.03904,0.10004,-0.16104,-0.14152,-0.122,0.04148,0.0488,-0.03416,-0.08784,-0.0976,-0.03904,-0.12688
-0.03416,0.09516,-0.15616,-0.13908,-0.122,0.04392,0.0488,-0.0244,-0.08784,-0.09272,-0.03416,-0.12688
-0.02928,0.09028,-0.15128,-0.13664,-0.122,0.04636,0.06344,-0.01464,-0.08296,-0.08296,-0.03416,-0.122
-0.02928,0.0854,-0.14152,-0.12688,-0.11224,0.04148,0.0732,-0.00976,-0.0732,-0.08296,-0.03416,-0.122
-0.02928,0.08052,-0.13176,-0.11712,-0.10248,0.0366,0.0732,0.00976,-0.06832,-0.06832,-0.02928,-0.11712
-0.0244,0.07564,-0.12688,-0.11468,-0.10248,0.03904,0.08296,0.02928,-0.05856,-0.06344,-0.0244,-0.11224
-0.01952,0.07076,-0.122,-0.11224,-0.10248,0.04148,0.08784,0.0488,-0.04392,-0.05368,-0.01952,-0.10736
-0.01464,0.06344,-0.11224,-0.10492,-0.0976,0.04148,0.09272,0.06832,-0.03416,-0.04392,-0.01464,-0.10248
-0.00976,0.05612,-0.10248,-0.0976,-0.09272,0.04148,0.0976,0.08784,-0.01464,-0.03416,-0.00976,-0.0976
-0.00488,0.04636,-0.08784,-0.0854,-0.08296,0.03904,0.11224,0.122,0.00976,-0.01464,0.00488,-0.08784
0,0.03416,-0.06832,-0.06832,-0.06832,0.03416,0.122,0.15128,0.03416,0,0.01952,-0.07808
0.00488,0.02684,-0.05856,-0.061,-0.06344,0.03416,0.12688,0.18056,0.0488,0.01464,0.0244,-0.06832
0.01464,0.01464,-0.04392,-0.05124,-0.05856,0.0366,0.13664,0.2196,0.0732,0.03416,0.04392,-0.06344
0.0244,0.00488,-0.03416,-0.04636,-0.05856,0.04148,0.14152,0.25376,0.09272,0.0488,0.06344,-0.05368
0.03416,-0.0122,-0.00976,-0.02684,-0.04392,0.03904,0.15616,0.28304,0.11712,0.06832,0.0732,-0.03904
0.03904,-0.01952,0,-0.01952,-0.03904,0.03904,0.16592,0.3172,0.13664,0.08784,0.08296,-0.02928
0.05368,-0.03904,0.0244,-0.00244,-0.02928,0.04148,0.1708,0.33184,0.1464,0.0976,0.0976,-0.01952
0.06344,-0.05124,0.03904,0.00732,-0.0244,0.04392,0.17568,0.34648,0.16592,0.11224,0.11224,-0.01464
0.06344,-0.05612,0.0488,0.01708,-0.01464,0.03904,0.17568,0.366,0.18056,0.122,0.12688,-0.00488
0.06832,-0.061,0.05368,0.01952,-0.01464,0.04148,0.18056,0.37576,0.19032,0.13176,0.13664,0
0.06832,-0.06588,0.06344,0.02928,-0.00488,0.0366,0.19032,0.38064,0.1952,0.13664,0.13664,0.00488
0.06832,-0.06832,0.06832,0.03416,0,0.03416,0.19032,0.38552,0.1952,0.13664,0.14152,0.00488
0.07808,-0.07564,0.0732,0.03416,-0.00488,0.04148,0.19032,0.38552,0.20008,0.14152,0.15128,0.00976
0.08296,-0.08052,0.07808,0.0366,-0.00488,0.04392,0.19032,0.38064,0.20008,0.14152,0.15616,0.01464
0.08784,-0.08296,0.07808,0.03416,-0.00976,0.0488,0.19032,0.38064,0.20496,0.1464,0.15616,0.01464
0.08784,-0.0854,0.08296,0.03904,-0.00488,0.04636,0.17568,0.366,0.20008,0.15128,0.15616,0.01952
0.08784,-0.0854,0.08296,0.03904,-0.00488,0.04636,0.18056,0.3416,0.19032,0.14152,0.15128,0.01952
0.08296,-0.07808,0.0732,0.03172,-0.00976,0.04636,0.17568,0.31232,0.1708,0.13176,0.15128,0.01464
0.0732,-0.06832,0.06344,0.02684,-0.00976,0.04148,0.16592,0.27816,0.15616,0.11712,0.13664,0.00488
0.06832,-0.061,0.05368,0.01952,-0.01464,0.04148,0.15128,0.25376,0.14152,0.10248,0.12688,0
0.05856,-0.0488,0.03904,0.00976,-0.01952,0.03904,0.14152,0.2196,0.11712,0.08784,0.11712,-0.00976
0.05368,-0.0366,0.01952,-0.00732,-0.03416,0.04392,0.13176,0.18544,0.08784,0.06832,0.0976,-0.01952
0.0488,-0.02684,0.00488,-0.01952,-0.04392,0.04636,0.11224,0.15128,0.0732,0.05368,0.08784,-0.02928
0.03416,-0.0122,-0.00976,-0.02684,-0.04392,0.03904,0.0976,0.122,0.0488,0.03416,0.07808,-0.03904
0.0244,0.00244,-0.02928,-0.04148,-0.05368,0.03904,0.08784,0.09272,0.02928,0.01952,0.06832,-0.04392
0.01464,0.01464,-0.04392,-0.05124,-0.05856,0.0366,0.0732,0.06344,0.00976,0.00488,0.05856,-0.05368
0.00976,0.01952,-0.0488,-0.05368,-0.05856,0.03416,0.06344,0.04392,-0.01464,-0.00976,0.04392,-0.06344
0.00488,0.02684,-0.05856,-0.061,-0.06344,0.03416,0.05368,0.0244,-0.02928,-0.01952,0.03416,-0.06832
0,0.03416,-0.06832,-0.06832,-0.06832,0.03416,0.0488,0.0244,-0.03904,-0.02928,0.02928,-0.0732
0,0.03904,-0.07808,-0.07808,-0.07808,0.03904,0.03904,0.01464,-0.0488,-0.03416,0.01952,-0.07808
0,0.04392,-0.08784,-0.08784,-0.08784,0.04392,0.03904,0,-0.05856,-0.04392,0.01952,-0.07808
-0.00488,0.0488,-0.09272,-0.09028,-0.08784,0.04148,0.02928,-0.00488,-0.05856,-0.04392,0.01464,-0.08296
0,0.04636,-0.09272,-0.09272,-0.09272,0.04636,0.02928,-0.00976,-0.06344,-0.0488,0.01464,-0.08784
0,0.0488,-0.0976,-0.0976,-0.0976,0.0488,0.0244,-0.01464,-0.06832,-0.0488,0.01464,-0.08784
0,0.0488,-0.0976,-0.0976,-0.0976,0.0488,0.0244,-0.01464,-0.06344,-0.0488,0.01464,-0.08784
0,0.0488,-0.0976,-0.0976,-0.0976,0.0488,0.01952,-0.01952,-0.06344,-0.05368,0.01464,-0.08784
0,0.0488,-0.0976,-0.0976,-0.0976,0.0488,0.01952,-0.01952,-0.06344,-0.05368,0.00976,-0.08784
0,0.0488,-0.0976,-0.0976,-0.0976,0.0488,0.01952,-0.01952,-0.06344,-0.05368,0.00976,-0.08784
0,0.05124,-0.10248,-0.10248,-0.10248,0.05124,0.01952,-0.01952,-0.06344,-0.05368,0.00488,-0.08784
0,0.05124,-0.10248,-0.10248,-0.10248,0.05124,0.01952,-0.0244,-0.06344,-0.05368,0.00488,-0.08784
0,0.05124,-0.10248,-0.10248,-0.10248,0.05124,0.02928,-0.0244,-0.06344,-0.0488,0.00488,-0.08784
0,0.0488,-0.0976,-0.0976,-0.0976,0.0488,0.03416,-0.01952,-0.06344,-0.0488,0.00488,-0.08296
-0.00488,0.05124,-0.0976,-0.09516,-0.09272,0.04392,0.03904,-0.01952,-0.05856,-0.0488,0.00976,-0.08296
-0.00488,0.0488,-0.09272,-0.09028,-0.08784,0.04148,0.03904,-0.01952,-0.05856,-0.0488,0.00976,-0.08296
-0.00488,0.0488,-0.09272,-0.09028,-0.08784,0.04148,0.04392,-0.01464,-0.05856,-0.0488,0.00976,-0.08296
-0.00488,0.0488,-0.09272,-0.09028,-0.08784,0.04148,0.03904,-0.01464,-0.05856,-0.0488,0.00976,-0.08296
-0.00488,0.0488,-0.09272,-0.09028,-0.08784,0.04148,0.04392,-0.01464,-0.05368,-0.0488,0.00488,-0.08296
-0.00488,0.0488,-0.09272,-0.09028,-0.08784,0.04148,0.0488,-0.01464,-0.05368,-0.04392,0,-0.08296
-0.00488,0.0488,-0.09272,-0.09028,-0.08784,0.04148,0.05368,-0.01464,-0.05368,-0.04392,0.00976,-0.08296
0,0.04636,-0.09272,-0.09272,-0.09272,0.04636,0.05856,-0.01464,-0.05368,-0.04392,0.00976,-0.07808
0,0.04392,-0.08784,-0.08784,-0.08784,0.04392,0.06832,-0.01464,-0.05368,-0.04392,0.00976,-0.07808
0,0.04392,-0.08784,-0.08784,-0.08784,0.04392,0.07808,-0.01464,-0.05368,-0.04392,0.00488,-0.08296
0,0.04392,-0.08784,-0.08784,-0.08784,0.04392,0.07808,-0.01464,-0.05368,-0.04392,0,-0.08296
0,0.04392,-0.08784,-0.08784,-0.08784,0.04392,0.07808,-0.01464,-0.05368,-0.04392,-0.00488,-0.08296
0,0.04392,-0.08784,-0.08784,-0.08784,0.04392,0.07808,-0.01464,-0.05368,-0.04392,-0.00488,-0.08296
0,0.04392,-0.08784,-0.08784,-0.08784,0.04392,0.07808,-0.01464,-0.05368,-0.04392,-0.00488,-0.08784
0,0.04636,-0.09272,-0.09272,-0.09272,0.04636,0.07808,-0.01464,-0.05368,-0.04392,0,-0.08784
0,0.04636,-0.09272,-0.09272,-0.09272,0.04636,0.0732,-0.01464,-0.05368,-0.0488,0,-0.08784
-0.00488,0.0488,-0.09272,-0.09028,-0.08784,0.04148,0.06832,-0.01464,-0.05856,-0.0488,0,-0.08784
-0.00976,0.05368,-0.0976,-0.09272,-0.08784,0.03904,0.06344,-0.01464,-0.05856,-0.0488,-0.00488,-0.08784
-0.01464,0.05612,-0.0976,-0.09028,-0.08296,0.03416,0.06344,-0.01952,-0.05856,-0.0488,-0.00976,-0.08784
-0.01464,0.05612,-0.0976,-0.09028,-0.08296,0.03416,0.06344,-0.01464,-0.05856,-0.0488,-0.00976,-0.08784
-0.00976,0.05368,-0.0976,-0.09272,-0.08784,0.03904,0.05856,-0.01464,-0.06344,-0.0488,-0.00976,-0.08296
-0.00488,0.05368,-0.10248,-0.10004,-0.0976,0.04636,0.05368,-0.01952,-0.06344,-0.05368,-0.01464,-0.08296
-0.00488,0.05368,-0.10248,-0.10004,-0.0976,0.04636,0.05368,-0.01464,-0.06344,-0.05856,-0.01464,-0.08296
-0.00488,0.05368,-0.10248,-0.10004,-0.0976,0.04636,0.05368,-0.00976,-0.06344,-0.06344,-0.01464,-0.08296
-0.00976,0.05856,-0.10736,-0.10248,-0.0976,0.04392,0.04392,-0.00976,-0.06832,-0.06344,-0.00976,-0.08296
-0.00976,0.05856,-0.10736,-0.10248,-0.0976,0.04392,0.04392,-0.00976,-0.06832,-0.06344,-0.00488,-0.08296
-0.00976,0.061,-0.11224,-0.10736,-0.10248,0.04636,0.04392,-0.01464,-0.06832,-0.05856,-0.00976,-0.08784
-0.00976,0.061,-0.11224,-0.10736,-0.10248,0.04636,0.0488,-0.01464,-0.0732,-0.05856,-0.00976,-0.08784
-0.00976,0.05856,-0.10736,-0.10248,-0.0976,0.04392,0.03904,-0.01464,-0.0732,-0.05856,-0.01464,-0.08784
-0.00976,0.05856,-0.10736,-0.10248,-0.0976,0.04392,0.02928,-0.01952,-0.07808,-0.05856,-0.01952,-0.08784
-0.00976,0.05856,-0.10736,-0.10248,-0.0976,0.04392,0.02928,-0.01952,-0.0732,-0.05856,-0.01952,-0.08784
-0.00976,0.05856,-0.10736,-0.10248,-0.0976,0.04392,0.02928,-0.01952,-0.06832,-0.05856,-0.01952,-0.08784
-0.00976,0.061,-0.11224,-0.10736,-0.10248,0.04636,0.02928,-0.01952,-0.06832,-0.05856,-0.01952,-0.08784
-0.00976,0.061,-0.11224,-0.10736,-0.10248,0.04636,0.02928,-0.01952,-0.06832,-0.05856,-0.01464,-0.08784
-0.01464,0.06588,-0.11712,-0.1098,-0.10248,0.04392,0.02928,-0.0244,-0.06832,-0.05856,-0.01464,-0.08784
-0.01952,0.06832,-0.11712,-0.10736,-0.0976,0.03904,0.02928,-0.0244,-0.0732,-0.05856,-0.01464,-0.08784
-0.01952,0.06832,-0.11712,-0.10736,-0.0976,0.03904,0.0244,-0.02928,-0.0732,-0.05856,-0.01464,-0.08784
-0.01952,0.06832,-0.11712,-0.10736,-0.0976,0.03904,0.01952,-0.02928,-0.0732,-0.05856,-0.01952,-0.08784
-0.01952,0.06832,-0.11712,-0.10736,-0.0976,0.03904,0.01952,-0.02928,-0.0732,-0.05856,-0.01952,-0.08784
-0.01952,0.07076,-0.122,-0.11224,-0.10248,0.04148,0.01952,-0.02928,-0.0732,-0.05856,-0.01952,-0.09272
-0.01464,0.06832,-0.122,-0.11468,-0.10736,0.04636,0.0244,-0.02928,-0.0732,-0.05856,-0.01952,-0.09272
-0.00976,0.06588,-0.122,-0.11712,-0.11224,0.05124,0.0244,-0.02928,-0.0732,-0.05856,-0.01952,-0.09272
-0.00976,0.06588,-0.122,-0.11712,-0.11224,0.05124,0.01952,-0.02928,-0.0732,-0.06344,-0.01952,-0.09272
-0.00976,0.06588,-0.122,-0.11712,-0.11224,0.05124,0.01464,-0.03416,-0.0732,-0.06344,-0.01464,-0.09272
-0.01464,0.06832,-0.122,-0.11468,-0.10736,0.04636,0.01464,-0.03904,-0.0732,-0.06344,-0.01464,-0.09272
-0.01952,0.07076,-0.122,-0.11224,-0.10248,0.04148,0.01464,-0.03904,-0.0732,-0.05856,-0.01464,-0.09272
-0.01464,0.06588,-0.11712,-0.1098,-0.10248,0.04392,0.01464,-0.03904,-0.07808,-0.05856,-0.01952,-0.09272
-0.00976,0.05856,-0.10736,-0.10248,-0.0976,0.04392,0.01464,-0.02928,-0.07808,-0.05368,-0.01952,-0.08784
0,0.04636,-0.09272,-0.09272,-0.09272,0.04636,0.01952,-0.0244,-0.06832,-0.04392,-0.00976,-0.07808
0.00488,0.03172,-0.06832,-0.07076,-0.0732,0.03904,0.03416,-0.01464,-0.05368,-0.03416,0,-0.06832
0.01952,0.01708,-0.05368,-0.06344,-0.0732,0.04636,0.04392,-0.00488,-0.0488,-0.02928,0.00488,-0.06344
0.02928,0.00732,-0.04392,-0.05856,-0.0732,0.05124,0.04392,0,-0.03904,-0.0244,0.00488,-0.05856
0.03416,0.00244,-0.03904,-0.05612,-0.0732,0.05368,0.04392,0,-0.03416,-0.01952,0.00976,-0.05368
0.03904,0,-0.03904,-0.05856,-0.07808,0.05856,0.03904,0,-0.03416,-0.01952,0.00976,-0.05368
0.0488,-0.0122,-0.0244,-0.0488,-0.0732,0.061,0.03416,0,-0.03416,-0.01952,0.01464,-0.05368
0.05368,-0.0244,-0.00488,-0.03172,-0.05856,0.05612,0.03416,0.00488,-0.0244,-0.00976,0.0244,-0.03904
0.05856,-0.0366,0.01464,-0.01464,-0.04392,0.05124,0.03416,0.00976,-0.01464,0,0.03416,-0.02928
0.06344,-0.04392,0.0244,-0.00732,-0.03904,0.05124,0.02928,0.00976,-0.01464,0,0.03416,-0.02928
0.06832,-0.04636,0.0244,-0.00976,-0.04392,0.05612,0.01952,-0.00488,-0.01952,-0.00488,0.03416,-0.02928
0.07808,-0.0488,0.01952,-0.01952,-0.05856,0.06832,0.00488,-0.01464,-0.02928,-0.00976,0.03416,-0.02928
0.07808,-0.03904,0,-0.03904,-0.07808,0.07808,-0.00976,-0.02928,-0.04392,-0.01952,0.0244,-0.02928
0.07808,-0.03172,-0.01464,-0.05368,-0.09272,0.0854,-0.01952,-0.03904,-0.05368,-0.02928,0.0244,-0.02928
0.07808,-0.02196,-0.03416,-0.0732,-0.11224,0.09516,-0.0244,-0.03416,-0.05368,-0.03416,0.01952,-0.03904
0.06832,-0.00488,-0.05856,-0.09272,-0.12688,0.0976,-0.0244,-0.02928,-0.05856,-0.03904,0.00976,-0.0488
0.05368,0.01708,-0.08784,-0.11468,-0.14152,0.0976,-0.0244,-0.02928,-0.06832,-0.05368,-0.00488,-0.06344
0.01464,0.04636,-0.10736,-0.11468,-0.122,0.06832,-0.01464,-0.03416,-0.07808,-0.06344,-0.01952,-0.07808
-0.01464,0.07076,-0.12688,-0.11956,-0.11224,0.0488,-0.00488,-0.03904,-0.08296,-0.0732,-0.02928,-0.09272
-0.0244,0.08296,-0.14152,-0.12932,-0.11712,0.04636,0,-0.0488,-0.09272,-0.08296,-0.04392,-0.11224
-0.0244,0.08296,-0.14152,-0.12932,-0.11712,0.04636,-0.00976,-0.05368,-0.0976,-0.08296,-0.04392,-0.11224
-0.01952,0.08052,-0.14152,-0.13176,-0.122,0.05124,-0.00976,-0.05368,-0.10248,-0.08296,-0.04392,-0.10736
-0.01952,0.08052,-0.14152,-0.13176,-0.122,0.05124,-0.00976,-0.05368,-0.10248,-0.08296,-0.04392,-0.10736
-0.01952,0.08296,-0.1464,-0.13664,-0.12688,0.05368,-0.00976,-0.05368,-0.10248,-0.08296,-0.04392,-0.10736
-0.0244,0.0854,-0.1464,-0.1342,-0.122,0.0488,-0.00488,-0.05368,-0.0976,-0.08296,-0.03904,-0.10736
-0.0244,0.0854,-0.1464,-0.1342,-0.122,0.0488,-0.00488,-0.0488,-0.09272,-0.08296,-0.03416,-0.10736
-0.0244,0.0854,-0.1464,-0.1342,-0.122,0.0488,-0.00488,-0.0488,-0.09272,-0.07808,-0.03904,-0.10248
-0.0244,0.08784,-0.15128,-0.13908,-0.12688,0.05124,-0.00976,-0.04392,-0.09272,-0.07808,-0.03904,-0.10248
-0.02928,0.09272,-0.15616,-0.14152,-0.12688,0.0488,-0.00976,-0.0488,-0.09272,-0.08296,-0.03904,-0.10248
-0.0488,0.11224,-0.17568,-0.15128,-0.12688,0.03904,0.01464,-0.0488,-0.0976,-0.08784,-0.05368,-0.11712
-0.08296,0.15128,-0.2196,-0.17812,-0.13664,0.02684,0.0732,-0.02928,-0.122,-0.12688,-0.08784,-0.16104
-0.08784,0.1464,-0.20496,-0.16104,-0.11712,0.01464,0.13664,0.06344,-0.0732,-0.09272,-0.0732,-0.1464
-0.04392,0.0732,-0.10248,-0.08052,-0.05856,0.00732,0.20008,0.22448,0.06344,0.01952,0.01464,-0.09272
0.01952,-0.02928,0.03904,0.02928,0.01952,0,0.32208,0.49288,0.27816,0.19032,0.13664,0
0.19032,-0.2562,0.32208,0.22692,0.13176,0.02928,0.42456,0.98088,0.67832,0.52216,0.40016,0.21472
0.4636,-0.55632,0.64904,0.41724,0.18544,0.13908,0.40016,1.4884,1.1224,0.89304,0.72224,0.48312
0.79056,-0.9272,1.06384,0.66856,0.27328,0.25864,0.26352,1.952,1.57624,1.2932,1.09312,0.80032
0.976,-1.21512,1.45424,0.96624,0.47824,0.24888,0.12688,2.0496,1.7568,1.49816,1.31272,1.03944
0.96624,-1.33956,1.71288,1.22976,0.74664,0.1098,-0.0976,1.72752,1.586,1.44448,1.36152,1.18584
0.86864,-1.24196,1.61528,1.18096,0.74664,0.061,-0.4148,1.01016,1.10776,1.13216,1.17608,1.1224
0.54656,-0.8418,1.13704,0.86376,0.59048,-0.02196,-0.72712,-0.52216,0.13176,0.46848,0.6832,0.80032
0.33672,-0.56364,0.79056,0.6222,0.45384,-0.05856,-0.79544,-0.99064,-0.244,0.14152,0.40992,0.5612
0.20496,-0.33184,0.45872,0.35624,0.25376,-0.0244,-0.70272,-0.89304,-0.33672,-0.03416,0.21472,0.3416
0.14152,-0.18788,0.23424,0.16348,0.09272,0.0244,-0.5856,-0.71248,-0.33184,-0.10248,0.10248,0.1952
0.06832,-0.0732,0.07808,0.04392,0.00976,0.02928,-0.4148,-0.54656,-0.29768,-0.13176,0.0244,0.06832
0.01952,-0.01464,0.00976,0,-0.00976,0.01464,-0.27328,-0.39528,-0.244,-0.13176,-0.00976,0.00488
-0.01464,0.02196,-0.02928,-0.02196,-0.01464,0,-0.1708,-0.2928,-0.20008,-0.11224,-0.01952,-0.02928
-0.02928,0.04636,-0.06344,-0.0488,-0.03416,0.00244,-0.10248,-0.20496,-0.16104,-0.0976,-0.03416,-0.05856
-0.04392,0.07076,-0.0976,-0.07564,-0.05368,0.00488,-0.05368,-0.15616,-0.15128,-0.0976,-0.0488,-0.0732
-0.0488,0.09028,-0.13176,-0.10736,-0.08296,0.01708,-0.00976,-0.11712,-0.14152,-0.10248,-0.05856,-0.0976
-0.0488,0.09272,-0.13664,-0.11224,-0.08784,0.01952,0.01464,-0.08784,-0.12688,-0.10248,-0.05856,-0.10248
-0.0488,0.09272,-0.13664,-0.11224,-0.08784,0.01952,0.02928,-0.05856,-0.11712,-0.0976,-0.05856,-0.10736
-0.0488,0.09272,-0.13664,-0.11224,-0.08784,0.01952,0.03416,-0.05368,-0.11224,-0.09272,-0.05368,-0.10736
-0.05368,0.09516,-0.13664,-0.1098,-0.08296,0.01464,0.03904,-0.0488,-0.11224,-0.09272,-0.05368,-0.11224
-0.05368,0.0976,-0.14152,-0.11468,-0.08784,0.01708,0.03904,-0.03416,-0.11224,-0.09272,-0.05368,-0.11712
-0.0488,0.0976,-0.1464,-0.122,-0.0976,0.0244,0.03904,-0.02928,-0.10736,-0.09272,-0.05856,-0.11712
-0.0488,0.0976,-0.1464,-0.122,-0.0976,0.0244,0.03416,-0.01952,-0.10248,-0.08784,-0.05856,-0.11712
-0.04392,0.09516,-0.1464,-0.12444,-0.10248,0.02928,0.03416,-0.01952,-0.0976,-0.08784,-0.05856,-0.11712
-0.04392,0.0976,-0.15128,-0.12932,-0.10736,0.03172,0.03416,-0.01464,-0.0976,-0.08296,-0.05368,-0.11712
-0.04392,0.0976,-0.15128,-0.12932,-0.10736,0.03172,0.03416,-0.00488,-0.08784,-0.08296,-0.05368,-0.11712
-0.04392,0.09516,-0.1464,-0.12444,-0.10248,0.02928,0.04392,0,-0.08296,-0.07808,-0.05368,-0.11224
-0.03904,0.09272,-0.1464,-0.12688,-0.10736,0.03416,0.05368,0.00976,-0.08296,-0.07808,-0.05368,-0.11224
-0.04392,0.09516,-0.1464,-0.12444,-0.10248,0.02928,0.06344,0.01952,-0.07808,-0.0732,-0.0488,-0.11224
-0.0488,0.09516,-0.14152,-0.11712,-0.09272,0.02196,0.06832,0.0244,-0.06832,-0.06832,-0.0488,-0.10736
-0.04392,0.09028,-0.13664,-0.11468,-0.09272,0.0244,0.06344,0.03416,-0.06832,-0.06832,-0.0488,-0.10736
-0.03904,0.0854,-0.13176,-0.11224,-0.09272,0.02684,0.0732,0.0488,-0.05856,-0.06344,-0.0488,-0.10248
-0.03904,0.08052,-0.122,-0.10248,-0.08296,0.02196,0.07808,0.05368,-0.04392,-0.06344,-0.04392,-0.10248
-0.03904,0.07564,-0.11224,-0.09272,-0.0732,0.01708,0.07808,0.06832,-0.03904,-0.0488,-0.03904,-0.0976
-0.03416,0.07076,-0.10736,-0.09028,-0.0732,0.01952,0.09272,0.08296,-0.02928,-0.04392,-0.03416,-0.08784
-0.02928,0.06588,-0.10248,-0.08784,-0.0732,0.02196,0.10248,0.0976,-0.01464,-0.03416,-0.0244,-0.07808
-0.0244,0.05856,-0.09272,-0.08052,-0.06832,0.02196,0.11224,0.11712,-0.00976,-0.02928,-0.01952,-0.0732
-0.01952,0.05124,-0.08296,-0.0732,-0.06344,0.02196,0.11712,0.13664,0.00488,-0.0244,-0.01952,-0.06832
-0.01464,0.04148,-0.06832,-0.061,-0.05368,0.01952,0.12688,0.1708,0.02928,-0.00488,-0.00488,-0.05856
-0.00488,0.02684,-0.0488,-0.04636,-0.04392,0.01952,0.13664,0.20008,0.05368,0.00976,0.00976,-0.0488
0.00488,0.01708,-0.03904,-0.04148,-0.04392,0.0244,0.1464,0.22448,0.06832,0.0244,0.01464,-0.03904
0.01464,0.00488,-0.0244,-0.03172,-0.03904,0.02684,0.16104,0.25864,0.09272,0.04392,0.03416,-0.03416
0.0244,-0.00488,-0.01464,-0.02684,-0.03904,0.03172,0.1708,0.28792,0.11224,0.06344,0.05368,-0.0244
0.03416,-0.02196,0.00976,-0.00732,-0.0244,0.02928,0.18544,0.31232,0.13664,0.08784,0.06344,-0.00976
0.03904,-0.02928,0.01952,0,-0.01952,0.02928,0.1952,0.34648,0.15616,0.10736,0.06832,0
0.0488,-0.04392,0.03904,0.01464,-0.00976,0.02928,0.1952,0.36112,0.16592,0.11224,0.07808,0.00976
0.05368,-0.05124,0.0488,0.02196,-0.00488,0.02928,0.1952,0.37576,0.19032,0.122,0.09272,0.01464
0.05368,-0.05612,0.05856,0.03172,0.00488,0.0244,0.1952,0.3904,0.20496,0.13176,0.10248,0.0244
0.06344,-0.06344,0.06344,0.03172,0,0.03172,0.20008,0.39528,0.20984,0.1464,0.10736,0.02928
0.06832,-0.07076,0.0732,0.03904,0.00488,0.03172,0.20984,0.40016,0.21472,0.15616,0.10736,0.03416
0.06832,-0.0732,0.07808,0.04392,0.00976,0.02928,0.21472,0.40504,0.21472,0.15616,0.11224,0.03416
0.0732,-0.07808,0.08296,0.04636,0.00976,0.03172,0.2196,0.40504,0.2196,0.16104,0.11712,0.03904
0.0732,-0.08052,0.08784,0.05124,0.01464,0.02928,0.2196,0.40016,0.22448,0.16104,0.122,0.04392
0.07808,-0.08296,0.08784,0.0488,0.00976,0.03416,0.2196,0.39528,0.22936,0.16104,0.12688,0.04392
0.07808,-0.0854,0.09272,0.05368,0.01464,0.03172,0.20984,0.38064,0.2196,0.16104,0.12688,0.0488
0.07808,-0.0854,0.09272,0.05368,0.01464,0.03172,0.21472,0.36112,0.20984,0.15128,0.122,0.0488
0.0732,-0.07808,0.08296,0.04636,0.00976,0.03172,0.20496,0.33184,0.1952,0.14152,0.122,0.04392
0.06344,-0.06832,0.0732,0.04148,0.00976,0.02684,0.1952,0.2928,0.18056,0.12688,0.10736,0.03416
0.05856,-0.061,0.06344,0.03416,0.00488,0.02684,0.18056,0.26352,0.16104,0.11224,0.10248,0.02928
0.0488,-0.0488,0.0488,0.0244,0,0.0244,0.16592,0.22448,0.13664,0.0976,0.0976,0.01952
0.04392,-0.0366,0.02928,0.00732,-0.01464,0.02928,0.15128,0.18056,0.10736,0.08296,0.07808,0.00976
0.03904,-0.02684,0.01464,-0.00488,-0.0244,0.03172,0.13176,0.14152,0.09272,0.0732,0.06832,0
0.0244,-0.0122,0,-0.0122,-0.0244,0.0244,0.11712,0.11224,0.06832,0.05368,0.05856,-0.00976
0.01952,0,-0.01952,-0.02928,-0.03904,0.02928,0.10736,0.08296,0.0488,0.03904,0.04392,-0.01952
0.01464,0.00976,-0.03416,-0.04148,-0.0488,0.03172,0.09272,0.05368,0.02928,0.0244,0.02928,-0.02928
0.00976,0.01708,-0.04392,-0.0488,-0.05368,0.03172,0.08296,0.03416,0.00976,0.00976,0.01464,-0.03416
0.00488,0.02684,-0.05856,-0.061,-0.06344,0.03416,0.0732,0.00976,0,0,0.00488,-0.03904
0,0.03416,-0.06832,-0.06832,-0.06832,0.03416,0.06832,0,-0.00976,-0.00976,0,-0.04392
0,0.03904,-0.07808,-0.07808,-0.07808,0.03904,0.05856,-0.01464,-0.01464,-0.01464,-0.01464,-0.0488
0,0.04148,-0.08296,-0.08296,-0.08296,0.04148,0.05856,-0.02928,-0.01952,-0.0244,-0.01952,-0.0488
-0.00488,0.04392,-0.08296,-0.08052,-0.07808,0.0366,0.0488,-0.03416,-0.01952,-0.0244,-0.0244,-0.05368
-0.00488,0.04392,-0.08296,-0.08052,-0.07808,0.0366,0.0488,-0.03904,-0.0244,-0.02928,-0.0244,-0.05856
-0.00976,0.0488,-0.08784,-0.08296,-0.07808,0.03416,0.04392,-0.0488,-0.02928,-0.03416,-0.0244,-0.05856
-0.00976,0.0488,-0.08784,-0.08296,-0.07808,0.03416,0.04392,-0.05368,-0.02928,-0.03904,-0.0244,-0.05856
-0.00976,0.0488,-0.08784,-0.08296,-0.07808,0.03416,0.03904,-0.05856,-0.03416,-0.04392,-0.0244,-0.05856
-0.00976,0.0488,-0.08784,-0.08296,-0.07808,0.03416,0.03904,-0.05856,-0.03416,-0.04392,-0.02928,-0.05856
-0.00976,0.0488,-0.08784,-0.08296,-0.07808,0.03416,0.03904,-0.06344,-0.03904,-0.04392,-0.02928,-0.05856
-0.00976,0.05124,-0.09272,-0.08784,-0.08296,0.0366,0.03904,-0.06832,-0.04392,-0.04392,-0.03416,-0.05856
-0.00976,0.05124,-0.09272,-0.08784,-0.08296,0.0366,0.03904,-0.0732,-0.04392,-0.04392,-0.03416,-0.05856
-0.00976,0.05124,-0.09272,-0.08784,-0.08296,0.0366,0.04392,-0.0732,-0.04392,-0.03904,-0.03416,-0.05856
-0.00976,0.0488,-0.08784,-0.08296,-0.07808,0.03416,0.04392,-0.06832,-0.04392,-0.03904,-0.03416,-0.05368
-0.00976,0.0488,-0.08784,-0.08296,-0.07808,0.03416,0.04392,-0.06832,-0.03904,-0.03904,-0.02928,-0.05368
-0.00488,0.04392,-0.08296,-0.08052,-0.07808,0.0366,0.03904,-0.0732,-0.03904,-0.03904,-0.02928,-0.05368
-0.00488,0.04392,-0.08296,-0.08052,-0.07808,0.0366,0.03904,-0.0732,-0.03904,-0.03904,-0.02928,-0.05368
-0.00488,0.04392,-0.08296,-0.08052,-0.07808,0.0366,0.02928,-0.0732,-0.03904,-0.03904,-0.03416,-0.05368
-0.00488,0.04392,-0.08296,-0.08052,-0.07808,0.0366,0.02928,-0.0732,-0.03416,-0.03904,-0.03904,-0.05368
-0.00488,0.04392,-0.08296,-0.08052,-0.07808,0.0366,0.02928,-0.0732,-0.03416,-0.03416,-0.0488,-0.05368
-0.00488,0.04392,-0.08296,-0.08052,-0.07808,0.0366,0.02928,-0.0732,-0.03416,-0.03416,-0.04392,-0.05368
-0.00488,0.04392,-0.08296,-0.08052,-0.07808,0.0366,0.02928,-0.0732,-0.03416,-0.03416,-0.03904,-0.04392
-0.00976,0.04392,-0.07808,-0.0732,-0.06832,0.02928,0.02928,-0.0732,-0.03416,-0.03416,-0.03904,-0.03904
-0.00976,0.04636,-0.08296,-0.07808,-0.0732,0.03172,0.02928,-0.0732,-0.03416,-0.03416,-0.03904,-0.04392
-0.00976,0.0488,-0.08784,-0.08296,-0.07808,0.03416,0.02928,-0.0732,-0.03416,-0.03416,-0.03904,-0.04392
-0.00976,0.0488,-0.08784,-0.08296,-0.07808,0.03416,0.02928,-0.07808,-0.03416,-0.03416,-0.04392,-0.04392
-0.00976,0.0488,-0.08784,-0.08296,-0.07808,0.03416,0.02928,-0.08296,-0.03416,-0.03416,-0.04392,-0.04392
-0.00976,0.04636,-0.08296,-0.07808,-0.0732,0.03172,0.02928,-0.08784,-0.03416,-0.03416,-0.04392,-0.0488
-0.00976,0.04636,-0.08296,-0.07808,-0.0732,0.03172,0.02928,-0.09272,-0.03416,-0.03416,-0.04392,-0.0488
-0.00976,0.04636,-0.08296,-0.07808,-0.0732,0.03172,0.0244,-0.09272,-0.03416,-0.03904,-0.0488,-0.0488
-0.00976,0.04636,-0.08296,-0.07808,-0.0732,0.03172,0.0244,-0.09272,-0.03904,-0.03904,-0.0488,-0.0488
-0.00976,0.0488,-0.08784,-0.08296,-0.07808,0.03416,0.01952,-0.09272,-0.03904,-0.03904,-0.05368,-0.0488
-0.01464,0.05124,-0.08784,-0.08052,-0.0732,0.02928,0.01464,-0.10248,-0.03904,-0.03904,-0.05856,-0.0488
-0.01464,0.05124,-0.08784,-0.08052,-0.0732,0.02928,0.01464,-0.10248,-0.03904,-0.03904,-0.05856,-0.0488
-0.01464,0.05124,-0.08784,-0.08052,-0.0732,0.02928,0.01464,-0.10248,-0.04392,-0.03904,-0.05856,-0.0488
-0.01464,0.05368,-0.09272,-0.0854,-0.07808,0.03172,0.01464,-0.10736,-0.04392,-0.04392,-0.06344,-0.05368
-0.01464,0.05368,-0.09272,-0.0854,-0.07808,0.03172,0.01464,-0.10736,-0.04392,-0.04392,-0.06344,-0.05368
-0.01464,0.05368,-0.09272,-0.0854,-0.07808,0.03172,0.01952,-0.10736,-0.04392,-0.04392,-0.06344,-0.05368
-0.01952,0.05856,-0.0976,-0.08784,-0.07808,0.02928,0.01464,-0.10736,-0.0488,-0.04392,-0.06344,-0.05368
-0.01952,0.05856,-0.0976,-0.08784,-0.07808,0.02928,0.01464,-0.10736,-0.0488,-0.04392,-0.06344,-0.05368
-0.01952,0.061,-0.10248,-0.09272,-0.08296,0.03172,0.01464,-0.11224,-0.0488,-0.04392,-0.06832,-0.05856
-0.01952,0.061,-0.10248,-0.09272,-0.08296,0.03172,0.01464,-0.11224,-0.0488,-0.0488,-0.06832,-0.05856
-0.01952,0.06344,-0.10736,-0.0976,-0.08784,0.03416,0.01952,-0.11712,-0.0488,-0.05368,-0.0732,-0.05856
-0.01952,0.06344,-0.10736,-0.0976,-0.08784,0.03416,0.01952,-0.11712,-0.0488,-0.05368,-0.0732,-0.05856
-0.01952,0.06344,-0.10736,-0.0976,-0.08784,0.03416,0.01952,-0.11712,-0.0488,-0.05856,-0.07808,-0.05856
-0.01952,0.06344,-0.10736,-0.0976,-0.08784,0.03416,0.01952,-0.11712,-0.0488,-0.05856,-0.07808,-0.05856
-0.01952,0.06344,-0.10736,-0.0976,-0.08784,0.03416,0.01952,-0.11712,-0.0488,-0.05856,-0.07808,-0.05856
-0.01952,0.06344,-0.10736,-0.0976,-0.08784,0.03416,0.01464,-0.11712,-0.0488,-0.05856,-0.07808,-0.05856
-0.01952,0.06344,-0.10736,-0.0976,-0.08784,0.03416,0.00976,-0.11712,-0.0488,-0.05856,-0.07808,-0.05856
-0.01952,0.06344,-0.10736,-0.0976,-0.08784,0.03416,0.00976,-0.122,-0.05368,-0.05856,-0.08296,-0.05856
-0.01952,0.06344,-0.10736,-0.0976,-0.08784,0.03416,0.00976,-0.12688,-0.05368,-0.05856,-0.08296,-0.05856
-0.01952,0.06344,-0.10736,-0.0976,-0.08784,0.03416,0.00488,-0.12688,-0.05368,-0.05856,-0.08296,-0.05856
-0.01952,0.06344,-0.10736,-0.0976,-0.08784,0.03416,0,-0.12688,-0.05368,-0.05856,-0.07808,-0.05856
-0.01952,0.06588,-0.11224,-0.10248,-0.09272,0.0366,0,-0.12688,-0.05368,-0.05856,-0.07808,-0.05856
-0.01952,0.06588,-0.11224,-0.10248,-0.09272,0.0366,0.00488,-0.12688,-0.05368,-0.05856,-0.07808,-0.05368
-0.01952,0.06344,-0.10736,-0.0976,-0.08784,0.03416,0,-0.12688,-0.05368,-0.05856,-0.07808,-0.05368
-0.01952,0.061,-0.10248,-0.09272,-0.08296,0.03172,-0.00488,-0.122,-0.05368,-0.06344,-0.07808,-0.05368
-0.01464,0.05856,-0.10248,-0.09516,-0.08784,0.0366,-0.00488,-0.122,-0.05368,-0.06344,-0.07808,-0.05368
-0.00976,0.05612,-0.10248,-0.0976,-0.09272,0.04148,-0.00488,-0.12688,-0.05368,-0.06344,-0.08296,-0.05368
-0.00976,0.05368,-0.0976,-0.09272,-0.08784,0.03904,0,-0.12688,-0.05368,-0.05856,-0.08296,-0.05368
-0.00488,0.04636,-0.08784,-0.0854,-0.08296,0.03904,0.00488,-0.12688,-0.05368,-0.05856,-0.08296,-0.05368
0,0.03904,-0.07808,-0.07808,-0.07808,0.03904,0.00488,-0.11712,-0.0488,-0.05368,-0.07808,-0.0488
0.00976,0.02684,-0.06344,-0.06832,-0.0732,0.04148,0.01464,-0.11224,-0.03904,-0.04392,-0.06832,-0.03904
0.01464,0.0122,-0.03904,-0.04636,-0.05368,0.03416,0.02928,-0.10736,-0.0244,-0.03416,-0.05368,-0.03416
0.0244,0,-0.0244,-0.0366,-0.0488,0.0366,0.03416,-0.10248,-0.0244,-0.02928,-0.04392,-0.03416
0.02928,-0.00732,-0.01464,-0.02928,-0.04392,0.0366,0.03416,-0.0976,-0.01952,-0.0244,-0.04392,-0.02928
0.03416,-0.0122,-0.00976,-0.02684,-0.04392,0.03904,0.03416,-0.0976,-0.01464,-0.01952,-0.03904,-0.0244
0.03904,-0.01464,-0.00976,-0.02928,-0.0488,0.04392,0.02928,-0.09272,-0.01464,-0.01952,-0.04392,-0.01952
0.0488,-0.02684,0.00488,-0.01952,-0.04392,0.04636,0.02928,-0.08784,-0.01464,-0.01952,-0.04392,-0.01464
0.0488,-0.03416,0.01952,-0.00488,-0.02928,0.03904,0.02928,-0.08296,-0.00488,-0.00976,-0.03416,0
0.0488,-0.03904,0.02928,0.00488,-0.01952,0.03416,0.0244,-0.07808,0.00488,0,-0.0244,0.00976
0.05368,-0.04392,0.03416,0.00732,-0.01952,0.0366,0.01952,-0.08296,0.00488,0,-0.0244,0.00976
0.05856,-0.04636,0.03416,0.00488,-0.0244,0.04148,0.00488,-0.10248,0,-0.00488,-0.0244,0.00976
0.0732,-0.05124,0.02928,-0.00732,-0.04392,0.05856,-0.01464,-0.11224,-0.00976,-0.00976,-0.0244,0.00976
0.07808,-0.04392,0.00976,-0.02928,-0.06832,0.0732,-0.02928,-0.12688,-0.0244,-0.01952,-0.03904,0.00488
0.07808,-0.0366,-0.00488,-0.04392,-0.08296,0.08052,-0.03416,-0.13664,-0.03416,-0.02928,-0.0488,0
0.07808,-0.02684,-0.0244,-0.06344,-0.10248,0.09028,-0.03416,-0.13664,-0.03416,-0.03416,-0.05856,-0.00976
0.06344,-0.00732,-0.0488,-0.08052,-0.11224,0.08784,-0.03416,-0.13664,-0.03904,-0.03904,-0.06832,-0.01952
0.04392,0.01708,-0.07808,-0.10004,-0.122,0.08296,-0.03416,-0.13664,-0.0488,-0.05368,-0.08296,-0.03416
0.00488,0.04636,-0.0976,-0.10004,-0.10248,0.05368,-0.02928,-0.14152,-0.05856,-0.06344,-0.0976,-0.0488
-0.0244,0.07076,-0.11712,-0.10492,-0.09272,0.03416,-0.02928,-0.1464,-0.06344,-0.0732,-0.10736,-0.05856
-0.03416,0.08296,-0.13176,-0.11468,-0.0976,0.03172,-0.02928,-0.15616,-0.0732,-0.08296,-0.11712,-0.0732
-0.03416,0.08296,-0.13176,-0.11468,-0.0976,0.03172,-0.03904,-0.16104,-0.0732,-0.08296,-0.11224,-0.0732
-0.02928,0.08052,-0.13176,-0.11712,-0.10248,0.0366,-0.03904,-0.16104,-0.0732,-0.08296,-0.11224,-0.06832
-0.02928,0.08052,-0.13176,-0.11712,-0.10248,0.0366,-0.03904,-0.16104,-0.0732,-0.08296,-0.11224,-0.06832
-0.02928,0.08052,-0.13176,-0.11712,-0.10248,0.0366,-0.03904,-0.16104,-0.0732,-0.08296,-0.11224,-0.06832
-0.03416,0.08052,-0.12688,-0.1098,-0.09272,0.02928,-0.03416,-0.16104,-0.0732,-0.08296,-0.11224,-0.06832
-0.03904,0.08296,-0.12688,-0.10736,-0.08784,0.0244,-0.03416,-0.15616,-0.0732,-0.08296,-0.11224,-0.06832
-0.04392,0.0854,-0.12688,-0.10492,-0.08296,0.01952,-0.02928,-0.15616,-0.0732,-0.07808,-0.11712,-0.06832
-0.04392,0.08784,-0.13176,-0.1098,-0.08784,0.02196,-0.02928,-0.15128,-0.0732,-0.07808,-0.11712,-0.0732
-0.0488,0.09272,-0.13664,-0.11224,-0.08784,0.01952,-0.01952,-0.14152,-0.06832,-0.08296,-0.11712,-0.0732
-0.06832,0.11224,-0.15616,-0.122,-0.08784,0.00976,0.01464,-0.12688,-0.06832,-0.08784,-0.13176,-0.08296
-0.08784,0.13664,-0.18544,-0.14152,-0.0976,0.00488,0.0732,-0.07808,-0.06344,-0.10248,-0.15128,-0.11224
-0.0732,0.11224,-0.15128,-0.11468,-0.07808,0.00244,0.13664,0.05368,0.01952,-0.03416,-0.122,-0.08296
-0.01464,0.01708,-0.01952,-0.0122,-0.00488,-0.00488,0.20008,0.26352,0.19032,0.11224,-0.00488,0.00488
0.0732,-0.11468,0.15616,0.11956,0.08296,-0.00488,0.3172,0.57096,0.43432,0.30744,0.14152,0.12688
0.2684,-0.35868,0.44896,0.31476,0.18056,0.04392,0.38552,1.03944,0.83448,0.63928,0.40992,0.3416
0.5612,-0.66856,0.77592,0.49532,0.21472,0.17324,0.33184,1.5128,1.25904,0.99064,0.732,0.60512
0.83936,-1.00284,1.16632,0.74664,0.32696,0.2562,0.18056,1.84952,1.60552,1.31272,1.04432,0.89792
0.9516,-1.22732,1.50304,1.02724,0.55144,0.20008,0.01464,1.79584,1.66896,1.43472,1.1956,1.10776
0.89304,-1.2688,1.64456,1.19804,0.75152,0.07076,-0.20984,1.31272,1.37616,1.28344,1.15656,1.17608
0.75152,-1.10532,1.45912,1.08336,0.7076,0.02196,-0.50264,0.488,0.82472,0.90768,0.91744,1.04432
0.4392,-0.7198,1.0004,0.7808,0.5612,-0.061,-0.76128,-0.83936,-0.02928,0.30744,0.47336,0.732
0.24888,-0.4636,0.67832,0.55388,0.42944,-0.09028,-0.76616,-1.07848,-0.27816,0.05368,0.23912,0.50264
0.13664,-0.25376,0.37088,0.30256,0.23424,-0.0488,-0.65392,-0.94184,-0.33672,-0.07808,0.06344,0.29768
0.09272,-0.1342,0.17568,0.12932,0.08296,0.00488,-0.53192,-0.7564,-0.3172,-0.11224,-0.0244,0.17568
0.02928,-0.04148,0.05368,0.03904,0.0244,0.00244,-0.37576,-0.60024,-0.27816,-0.13176,-0.08296,0.07808
-0.01464,0.00244,0.00976,0.01708,0.0244,-0.01952,-0.25376,-0.4636,-0.22448,-0.13176,-0.10736,0.03416
-0.04392,0.0366,-0.02928,-0.00732,0.01464,-0.02928,-0.15128,-0.36112,-0.17568,-0.11224,-0.11224,0.00488
-0.05368,0.05856,-0.06344,-0.0366,-0.00976,-0.02196,-0.08784,-0.28304,-0.13176,-0.0976,-0.122,-0.01952
-0.0732,0.08296,-0.09272,-0.05612,-0.01952,-0.02684,-0.04392,-0.244,-0.11712,-0.09272,-0.13176,-0.03416
-0.07808,0.10004,-0.122,-0.08296,-0.04392,-0.01708,-0.00488,-0.20496,-0.11224,-0.09272,-0.13664,-0.05856
-0.07808,0.10248,-0.12688,-0.08784,-0.0488,-0.01464,0.01464,-0.18056,-0.10736,-0.09272,-0.13664,-0.05856
-0.07808,0.10248,-0.12688,-0.08784,-0.0488,-0.01464,0.02928,-0.15616,-0.0976,-0.08784,-0.13664,-0.05856
-0.07808,0.10248,-0.12688,-0.08784,-0.0488,-0.01464,0.02928,-0.15128,-0.09272,-0.08296,-0.13664,-0.05856
-0.07808,0.10248,-0.12688,-0.08784,-0.0488,-0.01464,0.02928,-0.15128,-0.09272,-0.08784,-0.14152,-0.06344
-0.0732,0.10248,-0.13176,-0.09516,-0.05856,-0.00732,0.02928,-0.14152,-0.09272,-0.09272,-0.14152,-0.06832
-0.06832,0.10248,-0.13664,-0.10248,-0.06832,0,0.02928,-0.13664,-0.08784,-0.09272,-0.1464,-0.06832
-0.06832,0.10248,-0.13664,-0.10248,-0.06832,0,0.0244,-0.12688,-0.08296,-0.08784,-0.1464,-0.06832
-0.06344,0.10004,-0.13664,-0.10492,-0.0732,0.00488,0.0244,-0.12688,-0.07808,-0.08784,-0.15128,-0.06832
-0.06344,0.10004,-0.13664,-0.10492,-0.0732,0.00488,0.0244,-0.122,-0.07808,-0.08296,-0.15128,-0.06832
-0.06344,0.0976,-0.13176,-0.10004,-0.06832,0.00244,0.0244,-0.11224,-0.06832,-0.08784,-0.15128,-0.06832
-0.06344,0.09516,-0.12688,-0.09516,-0.06344,0,0.02928,-0.10736,-0.06344,-0.08784,-0.15128,-0.06344
-0.05856,0.09272,-0.12688,-0.0976,-0.06832,0.00488,0.03416,-0.0976,-0.06344,-0.08784,-0.15128,-0.06344
-0.05856,0.09272,-0.12688,-0.0976,-0.06832,0.00488,0.04392,-0.08784,-0.05856,-0.08296,-0.1464,-0.06344
-0.06344,0.09272,-0.122,-0.09028,-0.05856,-0.00244,0.04392,-0.08296,-0.0488,-0.07808,-0.15128,-0.05856
-0.06344,0.09028,-0.11712,-0.0854,-0.05368,-0.00488,0.03904,-0.0732,-0.0488,-0.0732,-0.15128,-0.05856
-0.05856,0.0854,-0.11224,-0.08296,-0.05368,-0.00244,0.05368,-0.05856,-0.04392,-0.06344,-0.15128,-0.05368
-0.05856,0.08052,-0.10248,-0.0732,-0.04392,-0.00732,0.06344,-0.0488,-0.03416,-0.06344,-0.15128,-0.05368
-0.05856,0.07564,-0.09272,-0.06344,-0.03416,-0.0122,0.0732,-0.02928,-0.02928,-0.04392,-0.1464,-0.0488
-0.05368,0.07076,-0.08784,-0.061,-0.03416,-0.00976,0.09272,-0.00976,-0.01952,-0.03416,-0.14152,-0.04392
-0.0488,0.06588,-0.08296,-0.05856,-0.03416,-0.00732,0.10248,0.00976,-0.00488,-0.0244,-0.13176,-0.03904
-0.04392,0.05856,-0.0732,-0.05124,-0.02928,-0.00732,0.11224,0.02928,0.00488,-0.01464,-0.122,-0.03416
-0.03904,0.05124,-0.06344,-0.04392,-0.0244,-0.00732,0.11712,0.0488,0.0244,-0.00976,-0.11712,-0.02928
-0.03416,0.04148,-0.0488,-0.03172,-0.01464,-0.00976,0.13176,0.08296,0.0488,0.00488,-0.10248,-0.01952
-0.0244,0.02684,-0.02928,-0.01708,-0.00488,-0.00976,0.1464,0.11224,0.0732,0.01952,-0.08784,-0.00976
-0.01464,0.01708,-0.01952,-0.0122,-0.00488,-0.00488,0.15616,0.14152,0.08784,0.03416,-0.08296,0
-0.00976,0.00732,-0.00488,0,0.00488,-0.00732,0.1708,0.17568,0.11224,0.0488,-0.06344,0.00488
-0.00488,0,0.00488,0.00732,0.00976,-0.00732,0.18056,0.20496,0.13176,0.05856,-0.04392,0.01464
0.00488,-0.01464,0.0244,0.02196,0.01952,-0.00732,0.1952,0.23424,0.15616,0.07808,-0.03416,0.02928
0.00976,-0.01952,0.02928,0.0244,0.01952,-0.00488,0.20496,0.2684,0.17568,0.0976,-0.0244,0.03904
0.01952,-0.03416,0.0488,0.03904,0.02928,-0.00488,0.20984,0.28304,0.18544,0.10248,-0.00976,0.0488
0.0244,-0.04148,0.05856,0.04636,0.03416,-0.00488,0.21472,0.29768,0.20496,0.11224,0.00488,0.05368
0.02928,-0.05124,0.0732,0.05856,0.04392,-0.00732,0.21472,0.31232,0.21472,0.122,0.01464,0.06344
0.03904,-0.061,0.08296,0.06344,0.04392,-0.00244,0.2196,0.3172,0.2196,0.13176,0.01952,0.06832
0.03904,-0.06588,0.09272,0.0732,0.05368,-0.00732,0.22936,0.32208,0.22448,0.13664,0.01952,0.0732
0.03904,-0.06832,0.0976,0.07808,0.05856,-0.00976,0.22936,0.32696,0.22448,0.13664,0.0244,0.0732
0.04392,-0.0732,0.10248,0.08052,0.05856,-0.00732,0.22936,0.32696,0.22936,0.14152,0.03416,0.07808
0.04392,-0.07564,0.10736,0.0854,0.06344,-0.00976,0.22936,0.32208,0.22936,0.14152,0.03904,0.08296
0.0488,-0.07564,0.10248,0.07808,0.05368,-0.00244,0.22936,0.3172,0.22936,0.14152,0.03904,0.08296
0.0488,-0.07564,0.10248,0.07808,0.05368,-0.00244,0.21472,0.29768,0.2196,0.14152,0.03904,0.08784
0.0488,-0.07564,0.10248,0.07808,0.05368,-0.00244,0.21472,0.27816,0.20984,0.13176,0.03416,0.08784
0.04392,-0.06832,0.09272,0.07076,0.0488,-0.00244,0.20496,0.25376,0.19032,0.122,0.03416,0.08296
0.03416,-0.05856,0.08296,0.06588,0.0488,-0.00732,0.1952,0.2196,0.1708,0.10736,0.01952,0.06832
0.02928,-0.05124,0.0732,0.05856,0.04392,-0.00732,0.18056,0.1952,0.15128,0.09272,0.00976,0.05856
0.01952,-0.03904,0.05856,0.0488,0.03904,-0.00976,0.16592,0.15616,0.12688,0.07808,0,0.0488
0.01464,-0.02684,0.03904,0.03172,0.0244,-0.00488,0.15128,0.11712,0.0976,0.05856,-0.01952,0.03904
0.00976,-0.01708,0.0244,0.01952,0.01464,-0.00244,0.13176,0.08296,0.08296,0.04392,-0.02928,0.02928
-0.00488,-0.00244,0.00976,0.0122,0.01464,-0.00976,0.11712,0.05368,0.05856,0.0244,-0.03904,0.01952
-0.01464,0.0122,-0.00976,-0.00244,0.00488,-0.00976,0.10736,0.0244,0.03904,0.00976,-0.05368,0.00976
-0.0244,0.0244,-0.0244,-0.0122,0,-0.0122,0.09272,-0.00488,0.01952,-0.00488,-0.06832,-0.00488
-0.02928,0.03172,-0.03416,-0.01952,-0.00488,-0.0122,0.08296,-0.0244,0,-0.01952,-0.07808,-0.01464
-0.03416,0.04148,-0.0488,-0.03172,-0.01464,-0.00976,0.0732,-0.04392,-0.00976,-0.02928,-0.08296,-0.01952
-0.03904,0.0488,-0.05856,-0.03904,-0.01952,-0.00976,0.06832,-0.0488,-0.01952,-0.03904,-0.08784,-0.0244
-0.03904,0.05368,-0.06832,-0.0488,-0.02928,-0.00488,0.05856,-0.06344,-0.02928,-0.04392,-0.0976,-0.02928
-0.03904,0.05612,-0.0732,-0.05368,-0.03416,-0.00244,0.05856,-0.07808,-0.03904,-0.05368,-0.0976,-0.0244
-0.04392,0.05856,-0.0732,-0.05124,-0.02928,-0.00732,0.0488,-0.08296,-0.03904,-0.05368,-0.10248,-0.0244
-0.04392,0.061,-0.07808,-0.05612,-0.03416,-0.00488,0.05368,-0.08784,-0.04392,-0.05856,-0.10736,-0.02928
-0.0488,0.06832,-0.08784,-0.06344,-0.03904,-0.00488,0.05368,-0.09272,-0.0488,-0.05856,-0.11224,-0.02928
-0.0488,0.06832,-0.08784,-0.06344,-0.03904,-0.00488,0.05368,-0.08784,-0.04392,-0.05856,-0.11224,-0.03416
-0.0488,0.06832,-0.08784,-0.06344,-0.03904,-0.00488,0.0488,-0.08784,-0.04392,-0.06344,-0.11224,-0.03904
-0.0488,0.06832,-0.08784,-0.06344,-0.03904,-0.00488,0.0488,-0.08784,-0.04392,-0.06344,-0.11712,-0.03904
-0.0488,0.06832,-0.08784,-0.06344,-0.03904,-0.00488,0.0488,-0.08784,-0.04392,-0.06344,-0.11712,-0.03904
-0.0488,0.06832,-0.08784,-0.06344,-0.03904,-0.00488,0.0488,-0.08784,-0.0488,-0.06344,-0.122,-0.03904
-0.0488,0.06588,-0.08296,-0.05856,-0.03416,-0.00732,0.0488,-0.09272,-0.05368,-0.06344,-0.122,-0.03904
-0.0488,0.06588,-0.08296,-0.05856,-0.03416,-0.00732,0.0488,-0.0976,-0.05856,-0.05856,-0.12688,-0.03904
-0.0488,0.06344,-0.07808,-0.05368,-0.02928,-0.00976,0.04392,-0.0976,-0.06344,-0.05856,-0.13176,-0.03416
-0.0488,0.06588,-0.08296,-0.05856,-0.03416,-0.00732,0.04392,-0.0976,-0.05856,-0.05856,-0.12688,-0.02928
-0.04392,0.06344,-0.08296,-0.061,-0.03904,-0.00244,0.03904,-0.0976,-0.05856,-0.05856,-0.12688,-0.0244
-0.04392,0.06344,-0.08296,-0.061,-0.03904,-0.00244,0.04392,-0.09272,-0.05856,-0.05856,-0.12688,-0.0244
-0.04392,0.06344,-0.08296,-0.061,-0.03904,-0.00244,0.03904,-0.09272,-0.05856,-0.05856,-0.12688,-0.0244
-0.04392,0.06344,-0.08296,-0.061,-0.03904,-0.00244,0.03904,-0.09272,-0.05368,-0.05856,-0.13176,-0.02928
-0.04392,0.06344,-0.08296,-0.061,-0.03904,-0.00244,0.03904,-0.09272,-0.05368,-0.05368,-0.13664,-0.03416
-0.04392,0.06344,-0.08296,-0.061,-0.03904,-0.00244,0.03904,-0.0976,-0.05368,-0.05856,-0.122,-0.03416
-0.03904,0.061,-0.08296,-0.06344,-0.04392,0.00244,0.03904,-0.10248,-0.05368,-0.06344,-0.11712,-0.02928
-0.03904,0.061,-0.08296,-0.06344,-0.04392,0.00244,0.03416,-0.10248,-0.05368,-0.06344,-0.11712,-0.02928
-0.03904,0.06344,-0.08784,-0.06832,-0.0488,0.00488,0.02928,-0.10248,-0.05368,-0.06344,-0.122,-0.03416
-0.04392,0.06588,-0.08784,-0.06588,-0.04392,0,0.02928,-0.10248,-0.05368,-0.06832,-0.12688,-0.03416
-0.0488,0.06832,-0.08784,-0.06344,-0.03904,-0.00488,0.02928,-0.10248,-0.05368,-0.0732,-0.13176,-0.03416
-0.0488,0.06832,-0.08784,-0.06344,-0.03904,-0.00488,0.02928,-0.10248,-0.05368,-0.0732,-0.13176,-0.03416
-0.0488,0.06832,-0.08784,-0.06344,-0.03904,-0.00488,0.02928,-0.10248,-0.05368,-0.0732,-0.13176,-0.03904
-0.0488,0.07076,-0.09272,-0.06832,-0.04392,-0.00244,0.02928,-0.10248,-0.05368,-0.06832,-0.13176,-0.03904
-0.0488,0.07076,-0.09272,-0.06832,-0.04392,-0.00244,0.0244,-0.10248,-0.05368,-0.06832,-0.13664,-0.03904
-0.0488,0.07076,-0.09272,-0.06832,-0.04392,-0.00244,0.0244,-0.10248,-0.05856,-0.06832,-0.13664,-0.03904
-0.0488,0.0732,-0.0976,-0.0732,-0.0488,0,0.0244,-0.10248,-0.05856,-0.06832,-0.14152,-0.03904
-0.05368,0.07564,-0.0976,-0.07076,-0.04392,-0.00488,0.0244,-0.11224,-0.06344,-0.06832,-0.1464,-0.03904
-0.05368,0.07564,-0.0976,-0.07076,-0.04392,-0.00488,0.0244,-0.11224,-0.06832,-0.06832,-0.1464,-0.03904
-0.05368,0.07564,-0.0976,-0.07076,-0.04392,-0.00488,0.0244,-0.11224,-0.0732,-0.06832,-0.14152,-0.03904
-0.05368,0.07808,-0.10248,-0.07564,-0.0488,-0.00244,0.0244,-0.11712,-0.0732,-0.0732,-0.14152,-0.04392
-0.05368,0.07808,-0.10248,-0.07564,-0.0488,-0.00244,0.02928,-0.11712,-0.0732,-0.0732,-0.14152,-0.04392
-0.05368,0.07808,-0.10248,-0.07564,-0.0488,-0.00244,0.03416,-0.11712,-0.0732,-0.0732,-0.14152,-0.04392
-0.05856,0.0854,-0.11224,-0.08296,-0.05368,-0.00244,0.02928,-0.11712,-0.0732,-0.0732,-0.14152,-0.04392
-0.05856,0.09028,-0.122,-0.09272,-0.06344,0.00244,0.03416,-0.122,-0.06832,-0.0732,-0.14152,-0.0488
-0.05856,0.09028,-0.122,-0.09272,-0.06344,0.00244,0.02928,-0.122,-0.06832,-0.07808,-0.14152,-0.0488
-0.05856,0.09272,-0.12688,-0.0976,-0.06832,0.00488,0.02928,-0.12688,-0.0732,-0.08296,-0.14152,-0.0488
-0.05856,0.09028,-0.122,-0.09272,-0.06344,0.00244,0.0244,-0.12688,-0.0732,-0.08296,-0.1464,-0.0488
-0.05856,0.08784,-0.11712,-0.08784,-0.05856,0,0.01952,-0.12688,-0.07808,-0.08784,-0.15616,-0.0488
-0.05856,0.08784,-0.11712,-0.08784,-0.05856,0,0.0244,-0.122,-0.07808,-0.08784,-0.15616,-0.0488
-0.05856,0.08784,-0.11712,-0.08784,-0.05856,0,0.02928,-0.11712,-0.07808,-0.08784,-0.15616,-0.0488
-0.05856,0.08784,-0.11712,-0.08784,-0.05856,0,0.02928,-0.11712,-0.07808,-0.08784,-0.15616,-0.0488
-0.05856,0.08784,-0.11712,-0.08784,-0.05856,0,0.02928,-0.11712,-0.07808,-0.08784,-0.16104,-0.0488
-0.06344,0.09028,-0.11712,-0.0854,-0.05368,-0.00488,0.02928,-0.122,-0.08296,-0.09272,-0.16592,-0.0488
-0.06832,0.09272,-0.11712,-0.08296,-0.0488,-0.00976,0.02928,-0.12688,-0.08296,-0.0976,-0.1708,-0.0488
-0.06832,0.09272,-0.11712,-0.08296,-0.0488,-0.00976,0.02928,-0.12688,-0.08784,-0.0976,-0.17568,-0.0488
-0.06832,0.09272,-0.11712,-0.08296,-0.0488,-0.00976,0.02928,-0.12688,-0.09272,-0.0976,-0.17568,-0.0488
-0.06832,0.09272,-0.11712,-0.08296,-0.0488,-0.00976,0.02928,-0.12688,-0.09272,-0.0976,-0.17568,-0.05856
-0.06832,0.09028,-0.11224,-0.07808,-0.04392,-0.0122,0.03416,-0.12688,-0.09272,-0.0976,-0.17568,-0.06344
-0.06832,0.09028,-0.11224,-0.07808,-0.04392,-0.0122,0.03416,-0.12688,-0.09272,-0.0976,-0.17568,-0.06344
-0.06832,0.09028,-0.11224,-0.07808,-0.04392,-0.0122,0.03416,-0.122,-0.09272,-0.10248,-0.17568,-0.06344
-0.06832,0.09272,-0.11712,-0.08296,-0.0488,-0.00976,0.02928,-0.122,-0.09272,-0.10248,-0.1708,-0.06344
-0.06832,0.09516,-0.122,-0.08784,-0.05368,-0.00732,0.0244,-0.12688,-0.09272,-0.10248,-0.1708,-0.06344
-0.06832,0.09516,-0.122,-0.08784,-0.05368,-0.00732,0.0244,-0.12688,-0.09272,-0.0976,-0.16592,-0.05856
-0.06344,0.09028,-0.11712,-0.0854,-0.05368,-0.00488,0.0244,-0.12688,-0.09272,-0.0976,-0.16104,-0.05368
-0.05856,0.08296,-0.10736,-0.07808,-0.0488,-0.00488,0.02928,-0.11224,-0.08784,-0.09272,-0.15616,-0.0488
-0.0488,0.07076,-0.09272,-0.06832,-0.04392,-0.00244,0.04392,-0.10248,-0.07808,-0.08296,-0.1464,-0.03904
-0.04392,0.05612,-0.06832,-0.04636,-0.0244,-0.00976,0.06344,-0.09272,-0.06344,-0.0732,-0.13664,-0.02928
-0.03416,0.04392,-0.05368,-0.0366,-0.01952,-0.00732,0.0732,-0.08296,-0.06344,-0.06832,-0.13176,-0.0244
-0.02928,0.0366,-0.04392,-0.02928,-0.01464,-0.00732,0.06832,-0.07808,-0.05856,-0.06344,-0.13176,-0.01952
-0.0244,0.03172,-0.03904,-0.02684,-0.01464,-0.00488,0.06344,-0.07808,-0.05368,-0.05856,-0.12688,-0.01464
-0.01952,0.02928,-0.03904,-0.02928,-0.01952,0,0.05856,-0.08296,-0.05368,-0.05856,-0.12688,-0.01464
-0.00976,0.01708,-0.0244,-0.01952,-0.01464,0.00244,0.05856,-0.08784,-0.05368,-0.05856,-0.122,-0.01464
-0.00488,0.00488,-0.00488,-0.00244,0,-0.00244,0.06344,-0.08296,-0.04392,-0.0488,-0.11224,0
0,-0.00488,0.00976,0.00976,0.00976,-0.00488,0.06344,-0.07808,-0.03416,-0.03904,-0.10248,0.00976
0.00488,-0.00976,0.01464,0.0122,0.00976,-0.00244,0.05856,-0.07808,-0.03416,-0.03904,-0.10248,0.00488
0.00976,-0.0122,0.01464,0.00976,0.00488,0.00244,0.04392,-0.09272,-0.03904,-0.04392,-0.10248,0
0.01952,-0.0122,0.00488,-0.00488,-0.01464,0.01708,0.0244,-0.10248,-0.05368,-0.05368,-0.10248,0
0.01952,0,-0.01952,-0.02928,-0.03904,0.02928,0.00976,-0.11712,-0.0732,-0.06832,-0.11712,-0.00488
0.01952,0.00732,-0.03416,-0.04392,-0.05368,0.0366,0,-0.12688,-0.08296,-0.08296,-0.12688,-0.00976
0.01952,0.01708,-0.05368,-0.06344,-0.0732,0.04636,-0.00488,-0.12688,-0.08296,-0.09272,-0.13664,-0.01952
0.00976,0.03416,-0.07808,-0.08296,-0.08784,0.0488,-0.00488,-0.13176,-0.08784,-0.0976,-0.1464,-0.02928
-0.00488,0.05612,-0.10736,-0.10492,-0.10248,0.0488,-0.00488,-0.13664,-0.0976,-0.11224,-0.16104,-0.04392
-0.04392,0.08296,-0.122,-0.10004,-0.07808,0.01708,0.00488,-0.14152,-0.10736,-0.11712,-0.1708,-0.05856
-0.0732,0.10492,-0.13664,-0.10004,-0.06344,-0.00488,0.00976,-0.1464,-0.11224,-0.122,-0.17568,-0.06832
-0.08296,0.11712,-0.15128,-0.1098,-0.06832,-0.00732,0.00976,-0.15616,-0.122,-0.13176,-0.19032,-0.08296
-0.08296,0.11712,-0.15128,-0.1098,-0.06832,-0.00732,0,-0.16104,-0.122,-0.13176,-0.19032,-0.08296
-0.07808,0.11468,-0.15128,-0.11224,-0.0732,-0.00244,0,-0.16104,-0.122,-0.13176,-0.19032,-0.08296
-0.07808,0.11468,-0.15128,-0.11224,-0.0732,-0.00244,0,-0.16104,-0.122,-0.13176,-0.19032,-0.08784
-0.07808,0.11712,-0.15616,-0.11712,-0.07808,0,-0.00488,-0.15616,-0.122,-0.13176,-0.19032,-0.08784
-0.08296,0.11956,-0.15616,-0.11468,-0.0732,-0.00488,-0.00488,-0.15128,-0.122,-0.13176,-0.19032,-0.08784
-0.08296,0.122,-0.16104,-0.11956,-0.07808,-0.00244,-0.00488,-0.1464,-0.122,-0.13176,-0.19032,-0.08784
-0.08296,0.12444,-0.16592,-0.12444,-0.08296,0,0,-0.1464,-0.122,-0.12688,-0.1952,-0.08784
-0.08296,0.12688,-0.1708,-0.12932,-0.08784,0.00244,0,-0.13664,-0.122,-0.12688,-0.19032,-0.09272
-0.08784,0.13176,-0.17568,-0.13176,-0.08784,0,0.00976,-0.122,-0.11712,-0.13176,-0.18544,-0.09272
-0.10248,0.14396,-0.18544,-0.1342,-0.08296,-0.00976,0.06344,-0.08296,-0.0976,-0.12688,-0.1952,-0.10248
-0.11712,0.16104,-0.20496,-0.1464,-0.08784,-0.01464,0.14152,-0.00976,-0.0732,-0.13176,-0.20984,-0.13176
-0.0976,0.12932,-0.16104,-0.11224,-0.06344,-0.01708,0.20496,0.1464,0.02928,-0.05368,-0.16592,-0.09272
-0.03416,0.02684,-0.01952,-0.00244,0.01464,-0.0244,0.2684,0.38064,0.2196,0.10248,-0.03416,0.00488
0.05368,-0.10492,0.15616,0.12932,0.10248,-0.0244,0.366,0.68808,0.47824,0.31232,0.13176,0.13664
0.24888,-0.34892,0.44896,0.32452,0.20008,0.0244,0.4148,1.15656,0.89304,0.6588,0.41968,0.36112
0.50752,-0.6344,0.76128,0.50752,0.25376,0.12688,0.35624,1.59088,1.28832,0.99552,0.732,0.61488
0.75152,-0.94428,1.13704,0.76128,0.38552,0.183,0.20008,1.88856,1.60552,1.30296,1.03456,0.89792
0.83448,-1.13948,1.44448,1.02724,0.61,0.11224,0.0488,1.76168,1.62016,1.38592,1.15168,1.0736
0.74664,-1.15168,1.55672,1.1834,0.81008,-0.03172,-0.16104,1.20536,1.27856,1.1956,1.07848,1.10776
0.60024,-0.98576,1.37128,1.07116,0.77104,-0.0854,-0.4148,0.43432,0.73688,0.81984,0.82472,0.96624
0.28304,-0.5978,0.91256,0.77104,0.62952,-0.17324,-0.6344,-0.83936,-0.10736,0.2196,0.366,0.64416
0.122,-0.35868,0.59536,0.53436,0.47336,-0.17568,-0.6588,-1.06872,-0.35136,-0.02928,0.13664,0.42944
0.03904,-0.16592,0.2928,0.27328,0.25376,-0.10736,-0.56608,-0.92232,-0.40504,-0.15616,-0.03416,0.23912
0.00976,-0.05124,0.09272,0.08784,0.08296,-0.0366,-0.47336,-0.75152,-0.3904,-0.1952,-0.12688,0.11712
-0.03904,0.0366,-0.03416,-0.01464,0.00488,-0.02196,-0.34648,-0.61,-0.35624,-0.2196,-0.19032,0.01952
-0.06832,0.06832,-0.06832,-0.03416,0,-0.03416,-0.22448,-0.47824,-0.29768,-0.21472,-0.20496,-0.01952
-0.08296,0.09028,-0.0976,-0.05612,-0.01464,-0.03416,-0.122,-0.38064,-0.244,-0.19032,-0.20008,-0.04392
-0.08784,0.10492,-0.122,-0.07808,-0.03416,-0.02684,-0.06344,-0.2928,-0.20008,-0.17568,-0.20008,-0.05856
-0.10248,0.122,-0.14152,-0.09028,-0.03904,-0.03172,-0.0244,-0.244,-0.18544,-0.1708,-0.20008,-0.06344
-0.10736,0.13664,-0.16592,-0.11224,-0.05856,-0.0244,0.01952,-0.20496,-0.1708,-0.16592,-0.20496,-0.08784
-0.10736,0.13664,-0.16592,-0.11224,-0.05856,-0.0244,0.04392,-0.18056,-0.15616,-0.16104,-0.20496,-0.08784
-0.10736,0.13664,-0.16592,-0.11224,-0.05856,-0.0244,0.05856,-0.15616,-0.1464,-0.15616,-0.20496,-0.08784
-0.10736,0.13664,-0.16592,-0.11224,-0.05856,-0.0244,0.05856,-0.15128,-0.14152,-0.15128,-0.20496,-0.08784
-0.11224,0.13908,-0.16592,-0.1098,-0.05368,-0.02928,0.05856,-0.15128,-0.14152,-0.15128,-0.20984,-0.09272
-0.11224,0.14152,-0.1708,-0.11468,-0.05856,-0.02684,0.05856,-0.14152,-0.14152,-0.15128,-0.20984,-0.0976
-0.10736,0.13908,-0.1708,-0.11712,-0.06344,-0.02196,0.05368,-0.13664,-0.13664,-0.15128,-0.20984,-0.0976
-0.10736,0.13664,-0.16592,-0.11224,-0.05856,-0.0244,0.04392,-0.12688,-0.13176,-0.1464,-0.20496,-0.0976
-0.0976,0.13176,-0.16592,-0.11712,-0.06832,-0.01464,0.04392,-0.12688,-0.12688,-0.1464,-0.20496,-0.0976
-0.09272,0.12932,-0.16592,-0.11956,-0.0732,-0.00976,0.04392,-0.122,-0.12688,-0.14152,-0.20008,-0.0976
-0.09272,0.12688,-0.16104,-0.11468,-0.06832,-0.0122,0.04392,-0.11224,-0.11712,-0.13664,-0.20008,-0.0976
-0.09272,0.12444,-0.15616,-0.1098,-0.06344,-0.01464,0.0488,-0.10736,-0.11224,-0.12688,-0.20008,-0.09272
-0.08784,0.122,-0.15616,-0.11224,-0.06832,-0.00976,0.05368,-0.0976,-0.11224,-0.12688,-0.20008,-0.09272
-0.08784,0.122,-0.15616,-0.11224,-0.06832,-0.00976,0.06344,-0.08784,-0.10736,-0.122,-0.1952,-0.09272
-0.08784,0.11956,-0.15128,-0.10736,-0.06344,-0.0122,0.06344,-0.08296,-0.0976,-0.11712,-0.1952,-0.08296
-0.08296,0.11468,-0.1464,-0.10492,-0.06344,-0.00976,0.05856,-0.0732,-0.0976,-0.11224,-0.19032,-0.07808
-0.07808,0.1098,-0.14152,-0.10248,-0.06344,-0.00732,0.0732,-0.0488,-0.08784,-0.10248,-0.18544,-0.0732
-0.07808,0.10492,-0.13176,-0.09272,-0.05368,-0.0122,0.08296,-0.02928,-0.0732,-0.10248,-0.18056,-0.0732
-0.0732,0.0976,-0.122,-0.0854,-0.0488,-0.0122,0.0976,-0.00976,-0.05856,-0.08784,-0.17568,-0.0732
-0.06344,0.09028,-0.11712,-0.0854,-0.05368,-0.00488,0.122,0.00976,-0.03904,-0.08296,-0.1708,-0.0732
-0.05856,0.0854,-0.11224,-0.08296,-0.05368,-0.00244,0.13176,0.03416,-0.0244,-0.0732,-0.16104,-0.06832
-0.05368,0.07808,-0.10248,-0.07564,-0.0488,-0.00244,0.14152,0.05856,-0.01464,-0.06344,-0.15128,-0.06344
-0.0488,0.07076,-0.09272,-0.06832,-0.04392,-0.00244,0.1464,0.07808,0.00488,-0.05368,-0.1464,-0.05368
-0.04392,0.061,-0.07808,-0.05612,-0.03416,-0.00488,0.16104,0.11224,0.02928,-0.03416,-0.13176,-0.03904
-0.03416,0.04392,-0.05368,-0.0366,-0.01952,-0.00732,0.1708,0.14152,0.0488,-0.01952,-0.11712,-0.02928
-0.0244,0.03172,-0.03904,-0.02684,-0.01464,-0.00488,0.17568,0.1708,0.05856,-0.00488,-0.11224,-0.01952
-0.01464,0.01952,-0.0244,-0.01708,-0.00976,-0.00244,0.19032,0.20984,0.08296,0.01464,-0.09272,-0.01464
-0.00488,0.00976,-0.01464,-0.0122,-0.00976,0.00244,0.20008,0.244,0.10248,0.02928,-0.0732,-0.00488
0.00488,-0.00488,0.00488,0.00244,0,0.00244,0.2196,0.27328,0.12688,0.0488,-0.06344,0.00976
0.00976,-0.00976,0.00976,0.00488,0,0.00488,0.23424,0.30744,0.1464,0.06832,-0.05368,0.01952
0.01952,-0.0244,0.02928,0.01952,0.00976,0.00488,0.23424,0.32208,0.15128,0.0732,-0.03904,0.02928
0.0244,-0.03172,0.03904,0.02684,0.01464,0.00488,0.23424,0.33672,0.16592,0.08296,-0.0244,0.03416
0.0244,-0.0366,0.0488,0.0366,0.0244,0,0.23424,0.35136,0.17568,0.08784,-0.01464,0.03904
0.02928,-0.04148,0.05368,0.03904,0.0244,0.00244,0.23912,0.35624,0.18056,0.09272,-0.00976,0.03904
0.02928,-0.04636,0.06344,0.0488,0.03416,-0.00244,0.23912,0.35624,0.18544,0.0976,-0.00976,0.04392
0.02928,-0.0488,0.06832,0.05368,0.03904,-0.00488,0.22936,0.35624,0.18544,0.0976,-0.00488,0.04392
0.02928,-0.05124,0.0732,0.05856,0.04392,-0.00732,0.22936,0.35624,0.19032,0.10248,-0.00488,0.0488
0.0244,-0.05124,0.07808,0.06588,0.05368,-0.01464,0.22936,0.35136,0.19032,0.10248,-0.00976,0.05368
0.02928,-0.05124,0.0732,0.05856,0.04392,-0.00732,0.22936,0.34648,0.19032,0.10248,-0.00976,0.05368
0.02928,-0.05124,0.0732,0.05856,0.04392,-0.00732,0.21472,0.32696,0.18056,0.10248,-0.00976,0.05856
0.02928,-0.05124,0.0732,0.05856,0.04392,-0.00732,0.21472,0.29768,0.1708,0.09272,-0.01464,0.05856
0.0244,-0.04392,0.06344,0.05124,0.03904,-0.00732,0.20496,0.26352,0.15128,0.08296,-0.01464,0.05368
0.00488,-0.02928,0.05368,0.05124,0.0488,-0.02196,0.1952,0.2196,0.13176,0.06832,-0.02928,0.04392
-0.00976,-0.01708,0.04392,0.0488,0.05368,-0.03172,0.18056,0.18544,0.11224,0.05368,-0.03904,0.03904
-0.01952,-0.00488,0.02928,0.03904,0.0488,-0.03416,0.16592,0.1464,0.08784,0.03904,-0.05368,0.02928
-0.0244,0.00732,0.00976,0.02196,0.03416,-0.02928,0.15128,0.10736,0.05856,0.01952,-0.07808,0.01952
-0.0244,0.01464,-0.00488,0.00732,0.01952,-0.02196,0.13176,0.0732,0.04392,0.00488,-0.09272,0.00976
-0.03416,0.02684,-0.01952,-0.00244,0.01464,-0.0244,0.11712,0.04392,0.01952,-0.01464,-0.10736,0
-0.03904,0.03904,-0.03904,-0.01952,0,-0.01952,0.10736,0.01464,-0.00488,-0.02928,-0.122,-0.00976
-0.04392,0.0488,-0.05368,-0.03172,-0.00976,-0.01708,0.09272,-0.01464,-0.02928,-0.04392,-0.13664,-0.0244
-0.0488,0.05612,-0.06344,-0.03904,-0.01464,-0.01708,0.08296,-0.03416,-0.0488,-0.05856,-0.15128,-0.03416
-0.05368,0.06588,-0.07808,-0.05124,-0.0244,-0.01464,0.0732,-0.05368,-0.05856,-0.06832,-0.16104,-0.03904
-0.06344,0.07564,-0.08784,-0.05612,-0.0244,-0.01952,0.0732,-0.06344,-0.0732,-0.08296,-0.16592,-0.04392
-0.06832,0.08296,-0.0976,-0.06344,-0.02928,-0.01952,0.06832,-0.08296,-0.08784,-0.09272,-0.17568,-0.0488
-0.06832,0.08784,-0.10736,-0.0732,-0.03904,-0.01464,0.06832,-0.0976,-0.0976,-0.10248,-0.17568,-0.0488
-0.0732,0.09272,-0.11224,-0.07564,-0.03904,-0.01708,0.05856,-0.10248,-0.0976,-0.10248,-0.18056,-0.05368
-0.0732,0.09272,-0.11224,-0.07564,-0.03904,-0.01708,0.05856,-0.10248,-0.10248,-0.10736,-0.18056,-0.05856
-0.07808,0.0976,-0.11712,-0.07808,-0.03904,-0.01952,0.05368,-0.10248,-0.10736,-0.10736,-0.18056,-0.05856
-0.06832,0.09272,-0.11712,-0.08296,-0.0488,-0.00976,0.05368,-0.10248,-0.10736,-0.10248,-0.18056,-0.05856
-0.05856,0.08784,-0.11712,-0.08784,-0.05856,0,0.0488,-0.10736,-0.11224,-0.10248,-0.18056,-0.05856
-0.05856,0.08784,-0.11712,-0.08784,-0.05856,0,0.04392,-0.11224,-0.11224,-0.10248,-0.18544,-0.05856
-0.05856,0.08784,-0.11712,-0.08784,-0.05856,0,0.03904,-0.11712,-0.11224,-0.10248,-0.18544,-0.05856
-0.06344,0.09028,-0.11712,-0.0854,-0.05368,-0.00488,0.03904,-0.11712,-0.11712,-0.10736,-0.18544,-0.05856
-0.06832,0.09028,-0.11224,-0.07808,-0.04392,-0.0122,0.03904,-0.122,-0.122,-0.11224,-0.18056,-0.05856
-0.06832,0.09028,-0.11224,-0.07808,-0.04392,-0.0122,0.04392,-0.122,-0.122,-0.11224,-0.18056,-0.05856
-0.06832,0.08784,-0.10736,-0.0732,-0.03904,-0.01464,0.04392,-0.11712,-0.122,-0.11712,-0.18056,-0.05368
-0.06832,0.09028,-0.11224,-0.07808,-0.04392,-0.0122,0.0488,-0.11712,-0.11712,-0.11712,-0.17568,-0.05856
-0.06344,0.08784,-0.11224,-0.08052,-0.0488,-0.00732,0.0488,-0.11712,-0.11712,-0.11712,-0.17568,-0.06344
-0.06344,0.08784,-0.11224,-0.08052,-0.0488,-0.00732,0.0488,-0.11224,-0.11224,-0.11712,-0.17568,-0.06344
-0.06344,0.08784,-0.11224,-0.08052,-0.0488,-0.00732,0.03904,-0.11224,-0.10736,-0.11712,-0.17568,-0.06344
-0.06344,0.08784,-0.11224,-0.08052,-0.0488,-0.00732,0.03904,-0.10736,-0.10248,-0.11224,-0.17568,-0.05856
-0.06344,0.08784,-0.11224,-0.08052,-0.0488,-0.00732,0.03904,-0.10248,-0.10248,-0.10248,-0.17568,-0.05368
-0.06344,0.08784,-0.11224,-0.08052,-0.0488,-0.00732,0.03904,-0.10248,-0.10248,-0.10248,-0.16104,-0.05368
-0.05856,0.0854,-0.11224,-0.08296,-0.05368,-0.00244,0.03904,-0.10248,-0.10248,-0.10248,-0.15616,-0.0488
-0.05856,0.08296,-0.10736,-0.07808,-0.0488,-0.00488,0.03904,-0.10248,-0.10248,-0.10736,-0.16104,-0.0488
-0.05856,0.08296,-0.10736,-0.07808,-0.0488,-0.00488,0.03904,-0.10248,-0.10248,-0.11224,-0.1708,-0.05368
-0.05856,0.08296,-0.10736,-0.07808,-0.0488,-0.00488,0.03904,-0.10248,-0.10248,-0.11224,-0.17568,-0.05856
-0.05856,0.08296,-0.10736,-0.07808,-0.0488,-0.00488,0.03904,-0.10248,-0.10248,-0.11224,-0.18056,-0.06344
-0.05368,0.08052,-0.10736,-0.08052,-0.05368,0,0.03904,-0.10248,-0.10248,-0.11224,-0.18056,-0.06344
-0.0488,0.07808,-0.10736,-0.08296,-0.05856,0.00488,0.03904,-0.10248,-0.10248,-0.11224,-0.18056,-0.06832
-0.0488,0.08052,-0.11224,-0.08784,-0.06344,0.00732,0.03904,-0.10248,-0.10736,-0.11224,-0.18056,-0.06344
-0.0488,0.08052,-0.11224,-0.08784,-0.06344,0.00732,0.03416,-0.10248,-0.11224,-0.11712,-0.18544,-0.05856
-0.0488,0.08052,-0.11224,-0.08784,-0.06344,0.00732,0.02928,-0.10248,-0.11712,-0.11712,-0.18544,-0.05856
-0.0488,0.08296,-0.11712,-0.09272,-0.06832,0.00976,0.0244,-0.10248,-0.11712,-0.11712,-0.19032,-0.05856
-0.05856,0.08784,-0.11712,-0.08784,-0.05856,0,0.0244,-0.11224,-0.11712,-0.11712,-0.1952,-0.05856
-0.06344,0.09028,-0.11712,-0.0854,-0.05368,-0.00488,0.0244,-0.11224,-0.11712,-0.11712,-0.1952,-0.05856
-0.06344,0.09028,-0.11712,-0.0854,-0.05368,-0.00488,0.0244,-0.11224,-0.122,-0.11712,-0.19032,-0.05856
-0.06344,0.09272,-0.122,-0.09028,-0.05856,-0.00244,0.0244,-0.11712,-0.122,-0.122,-0.19032,-0.06344
-0.06344,0.09516,-0.12688,-0.09516,-0.06344,0,0.0244,-0.11712,-0.122,-0.12688,-0.19032,-0.06344
-0.06344,0.0976,-0.13176,-0.10004,-0.06832,0.00244,0.0244,-0.11712,-0.122,-0.13176,-0.19032,-0.06344
-0.06832,0.10248,-0.13664,-0.10248,-0.06832,0,0.0244,-0.11712,-0.12688,-0.13176,-0.19032,-0.06832
-0.06832,0.10492,-0.14152,-0.10736,-0.0732,0.00244,0.03416,-0.122,-0.12688,-0.13176,-0.19032,-0.07808
-0.06832,0.10248,-0.13664,-0.10248,-0.06832,0,0.02928,-0.122,-0.13176,-0.13176,-0.18544,-0.07808
-0.06832,0.10248,-0.13664,-0.10248,-0.06832,0,0.02928,-0.12688,-0.13664,-0.13664,-0.18544,-0.07808
-0.06832,0.10248,-0.13664,-0.10248,-0.06832,0,0.02928,-0.12688,-0.13664,-0.13664,-0.18544,-0.07808
-0.06832,0.10248,-0.13664,-0.10248,-0.06832,0,0.02928,-0.12688,-0.13664,-0.13664,-0.18544,-0.07808
-0.06832,0.10492,-0.14152,-0.10736,-0.0732,0.00244,0.02928,-0.12688,-0.13664,-0.13664,-0.18544,-0.07808
-0.06832,0.10492,-0.14152,-0.10736,-0.0732,0.00244,0.02928,-0.12688,-0.13664,-0.13664,-0.18544,-0.07808
-0.06832,0.10736,-0.1464,-0.11224,-0.07808,0.00488,0.02928,-0.13176,-0.13664,-0.13664,-0.18544,-0.07808
-0.06832,0.10736,-0.1464,-0.11224,-0.07808,0.00488,0.02928,-0.13176,-0.14152,-0.13664,-0.19032,-0.07808
-0.06832,0.10736,-0.1464,-0.11224,-0.07808,0.00488,0.0244,-0.13664,-0.14152,-0.14152,-0.19032,-0.08296
-0.06832,0.10736,-0.1464,-0.11224,-0.07808,0.00488,0.01952,-0.13664,-0.14152,-0.1464,-0.1952,-0.08784
-0.06832,0.10736,-0.1464,-0.11224,-0.07808,0.00488,0.01952,-0.13176,-0.14152,-0.1464,-0.1952,-0.08784
-0.06832,0.1098,-0.15128,-0.11712,-0.08296,0.00732,0.01952,-0.12688,-0.14152,-0.1464,-0.1952,-0.09272
-0.06832,0.1098,-0.15128,-0.11712,-0.08296,0.00732,0.02928,-0.12688,-0.14152,-0.14152,-0.19032,-0.08784
-0.06832,0.1098,-0.15128,-0.11712,-0.08296,0.00732,0.03416,-0.12688,-0.14152,-0.13664,-0.18544,-0.08296
-0.0732,0.11224,-0.15128,-0.11468,-0.07808,0.00244,0.03416,-0.12688,-0.1464,-0.14152,-0.18544,-0.08296
-0.07808,0.11468,-0.15128,-0.11224,-0.0732,-0.00244,0.03416,-0.13176,-0.15128,-0.14152,-0.18056,-0.08296
-0.07808,0.11468,-0.15128,-0.11224,-0.0732,-0.00244,0.02928,-0.13664,-0.15128,-0.1464,-0.18056,-0.08296
-0.07808,0.11468,-0.15128,-0.11224,-0.0732,-0.00244,0.0244,-0.13664,-0.15128,-0.1464,-0.18056,-0.08296
-0.0732,0.1098,-0.1464,-0.1098,-0.0732,0,0.01952,-0.13664,-0.15128,-0.1464,-0.18056,-0.08784
-0.06832,0.10248,-0.13664,-0.10248,-0.06832,0,0.01464,-0.12688,-0.1464,-0.14152,-0.17568,-0.08784
-0.05856,0.09272,-0.12688,-0.0976,-0.06832,0.00488,0.0244,-0.122,-0.13664,-0.13176,-0.16592,-0.07808
-0.05368,0.08052,-0.10736,-0.08052,-0.05368,0,0.04392,-0.11224,-0.122,-0.122,-0.15616,-0.06832
-0.04392,0.06832,-0.09272,-0.07076,-0.0488,0.00244,0.05368,-0.10248,-0.122,-0.11712,-0.15128,-0.05856
-0.03904,0.061,-0.08296,-0.06344,-0.04392,0.00244,0.05368,-0.0976,-0.11712,-0.11224,-0.15128,-0.0488
-0.03416,0.05612,-0.07808,-0.061,-0.04392,0.00488,0.04392,-0.0976,-0.11224,-0.10736,-0.14152,-0.04392
-0.02928,0.05368,-0.07808,-0.06344,-0.0488,0.00976,0.02928,-0.0976,-0.11224,-0.10736,-0.13664,-0.04392
-0.01464,0.03904,-0.06344,-0.05612,-0.0488,0.01708,0.02928,-0.0976,-0.11224,-0.10736,-0.13176,-0.0488
-0.00488,0.0244,-0.04392,-0.04148,-0.03904,0.01708,0.03416,-0.09272,-0.10248,-0.0976,-0.122,-0.03904
0,0.0122,-0.0244,-0.0244,-0.0244,0.0122,0.03416,-0.08296,-0.08784,-0.08296,-0.10736,-0.02928
0.00488,0.00488,-0.01464,-0.01708,-0.01952,0.0122,0.02928,-0.07808,-0.08296,-0.07808,-0.10248,-0.02928
0.00976,-0.00488,0,-0.00488,-0.00976,0.00976,0.01464,-0.09272,-0.08784,-0.08296,-0.08784,-0.0244
0.01952,-0.01464,0.00976,0,-0.00976,0.01464,-0.00488,-0.10248,-0.0976,-0.08784,-0.0732,-0.01952
0.01952,-0.00488,-0.00976,-0.01952,-0.02928,0.0244,-0.02928,-0.12688,-0.11712,-0.0976,-0.08784,-0.0244
0.01952,0.00244,-0.0244,-0.03416,-0.04392,0.03172,-0.0488,-0.1464,-0.13176,-0.10736,-0.09272,-0.02928
0.0244,0.00976,-0.04392,-0.05612,-0.06832,0.04636,-0.05856,-0.1464,-0.13176,-0.11224,-0.09272,-0.03904
0.01952,0.0244,-0.06832,-0.07808,-0.08784,0.05368,-0.06344,-0.1464,-0.13664,-0.11712,-0.0976,-0.0488
0.01952,0.03904,-0.0976,-0.10736,-0.11712,0.06832,-0.06344,-0.1464,-0.1464,-0.13176,-0.11224,-0.06344
-0.00488,0.061,-0.11712,-0.11468,-0.11224,0.05368,-0.05368,-0.15128,-0.15616,-0.14152,-0.12688,-0.07808
-0.04392,0.09028,-0.13664,-0.11468,-0.09272,0.0244,-0.0488,-0.15616,-0.16104,-0.15128,-0.13176,-0.08784
-0.06344,0.10736,-0.15128,-0.11956,-0.08784,0.0122,-0.0488,-0.16592,-0.1708,-0.16104,-0.14152,-0.10248
-0.06344,0.1098,-0.15616,-0.12444,-0.09272,0.01464,-0.06344,-0.1708,-0.1708,-0.16104,-0.14152,-0.10736
-0.05856,0.1098,-0.16104,-0.13176,-0.10248,0.02196,-0.06832,-0.1708,-0.1708,-0.16104,-0.14152,-0.10736
-0.05856,0.1098,-0.16104,-0.13176,-0.10248,0.02196,-0.0732,-0.1708,-0.1708,-0.16104,-0.13664,-0.10736
-0.05856,0.11224,-0.16592,-0.13664,-0.10736,0.0244,-0.07808,-0.1708,-0.1708,-0.16104,-0.13176,-0.10736
-0.06344,0.11468,-0.16592,-0.1342,-0.10248,0.01952,-0.07808,-0.1708,-0.1708,-0.16104,-0.13176,-0.10736
-0.06344,0.11468,-0.16592,-0.1342,-0.10248,0.01952,-0.08296,-0.16592,-0.1708,-0.16104,-0.13176,-0.10736
-0.06344,0.11224,-0.16104,-0.12932,-0.0976,0.01708,-0.08296,-0.16592,-0.1708,-0.15616,-0.13176,-0.10736
-0.06344,0.11224,-0.16104,-0.12932,-0.0976,0.01708,-0.08784,-0.16104,-0.1708,-0.15616,-0.12688,-0.11224
-0.05856,0.10736,-0.15616,-0.12688,-0.0976,0.01952,-0.09272,-0.16104,-0.1708,-0.16104,-0.11712,-0.10248
-0.06832,0.11712,-0.16592,-0.13176,-0.0976,0.01464,-0.0732,-0.15616,-0.17568,-0.16592,-0.122,-0.10736
-0.10736,0.16836,-0.22936,-0.17568,-0.122,0.00732,-0.01464,-0.14152,-0.20496,-0.21472,-0.1708,-0.1708
-0.11712,0.17568,-0.23424,-0.17568,-0.11712,0,0.0488,-0.05368,-0.16104,-0.19032,-0.1708,-0.17568
-0.09272,0.12688,-0.16104,-0.11468,-0.06832,-0.0122,0.07808,0.05368,-0.06344,-0.10736,-0.0976,-0.13176
-0.0488,0.0488,-0.0488,-0.0244,0,-0.0244,0.16592,0.2684,0.11224,0.03416,0.00976,-0.0488
0.06832,-0.12688,0.18544,0.15128,0.11712,-0.0244,0.30744,0.71736,0.49288,0.35136,0.25864,0.13176
0.28792,-0.37576,0.4636,0.31964,0.17568,0.05612,0.32208,1.18584,0.91744,0.7076,0.56608,0.366
0.6344,-0.76128,0.88816,0.57096,0.25376,0.19032,0.20008,1.76656,1.46888,1.18096,0.99552,0.72224
0.83936,-1.06384,1.28832,0.86864,0.44896,0.1952,0.07808,1.98128,1.74704,1.45912,1.27368,1.0004
0.8784,-1.28344,1.68848,1.24928,0.81008,0.03416,-0.08784,1.83488,1.69336,1.49816,1.41032,1.21024
0.8296,-1.281,1.7324,1.3176,0.9028,-0.0366,-0.34648,1.2932,1.33224,1.27856,1.31272,1.21024
0.49288,-0.88328,1.27368,1.02724,0.7808,-0.14396,-0.71736,-0.42456,0.23424,0.54168,0.77592,0.88328
0.2684,-0.60756,0.94672,0.81252,0.67832,-0.20496,-0.84424,-1.07848,-0.26352,0.14152,0.45872,0.63928
0.14152,-0.3538,0.56608,0.49532,0.42456,-0.14152,-0.8052,-1.0492,-0.40992,-0.0732,0.22936,0.3904
0.08296,-0.18788,0.2928,0.25132,0.20984,-0.06344,-0.74176,-0.93696,-0.45872,-0.18056,0.08296,0.21472
0.01952,-0.061,0.10248,0.09272,0.08296,-0.03172,-0.60512,-0.77104,-0.4392,-0.22448,0,0.0732
-0.01952,0.00976,0,0.00976,0.01952,-0.01952,-0.49776,-0.61976,-0.40016,-0.23912,-0.03904,-0.00488
-0.03904,0.03904,-0.03904,-0.01952,0,-0.01952,-0.37576,-0.49288,-0.33672,-0.2196,-0.04392,-0.03416
-0.03904,0.05612,-0.0732,-0.05368,-0.03416,-0.00244,-0.28792,-0.38064,-0.27816,-0.20496,-0.05368,-0.05856
-0.05368,0.07808,-0.10248,-0.07564,-0.0488,-0.00244,-0.23912,-0.31232,-0.25376,-0.19032,-0.05368,-0.07808
-0.05856,0.09516,-0.13176,-0.10248,-0.0732,0.00732,-0.1952,-0.25376,-0.22936,-0.18056,-0.0488,-0.10736
-0.05368,0.09516,-0.13664,-0.1098,-0.08296,0.01464,-0.15616,-0.2196,-0.20496,-0.17568,-0.0488,-0.10736
-0.0488,0.09272,-0.13664,-0.11224,-0.08784,0.01952,-0.12688,-0.18544,-0.18544,-0.16592,-0.0488,-0.10736
-0.0488,0.09272,-0.13664,-0.11224,-0.08784,0.01952,-0.12688,-0.18056,-0.18056,-0.16104,-0.04392,-0.10736
-0.05368,0.09516,-0.13664,-0.1098,-0.08296,0.01464,-0.12688,-0.17568,-0.18056,-0.16104,-0.04392,-0.11224
-0.05368,0.0976,-0.14152,-0.11468,-0.08784,0.01708,-0.122,-0.15616,-0.17568,-0.15616,-0.03904,-0.11712
-0.0488,0.0976,-0.1464,-0.122,-0.0976,0.0244,-0.11712,-0.1464,-0.16592,-0.15128,-0.03904,-0.11712
-0.04392,0.09272,-0.14152,-0.11956,-0.0976,0.02684,-0.122,-0.13664,-0.16104,-0.1464,-0.03416,-0.11712
-0.03416,0.0854,-0.13664,-0.11956,-0.10248,0.03416,-0.122,-0.13664,-0.15616,-0.1464,-0.02928,-0.11712
-0.03416,0.0854,-0.13664,-0.11956,-0.10248,0.03416,-0.122,-0.13176,-0.15616,-0.13664,-0.01464,-0.11712
-0.03416,0.08296,-0.13176,-0.11468,-0.0976,0.03172,-0.122,-0.122,-0.1464,-0.13176,-0.00488,-0.11712
-0.03416,0.08052,-0.12688,-0.1098,-0.09272,0.02928,-0.11712,-0.122,-0.14152,-0.12688,0,-0.11224
-0.02928,0.07808,-0.12688,-0.11224,-0.0976,0.03416,-0.11224,-0.11712,-0.14152,-0.12688,0.00488,-0.11224
-0.02928,0.07808,-0.12688,-0.11224,-0.0976,0.03416,-0.10248,-0.10736,-0.13664,-0.12688,0.00976,-0.11224
-0.02928,0.07564,-0.122,-0.10736,-0.09272,0.03172,-0.0976,-0.10248,-0.12688,-0.12688,0.00976,-0.10736
-0.0244,0.07076,-0.11712,-0.10492,-0.09272,0.03416,-0.0976,-0.0976,-0.12688,-0.122,0.01464,-0.10736
-0.01952,0.06588,-0.11224,-0.10248,-0.09272,0.0366,-0.08296,-0.08784,-0.11712,-0.11224,0.01952,-0.10248
-0.01464,0.05856,-0.10248,-0.09516,-0.08784,0.0366,-0.07808,-0.07808,-0.10248,-0.11224,0.02928,-0.10248
-0.00976,0.05124,-0.09272,-0.08784,-0.08296,0.0366,-0.07808,-0.05856,-0.0976,-0.0976,0.03904,-0.0976
-0.00488,0.04636,-0.08784,-0.0854,-0.08296,0.03904,-0.06344,-0.03904,-0.08784,-0.09272,0.04392,-0.09272
0,0.04148,-0.08296,-0.08296,-0.08296,0.04148,-0.05368,-0.01952,-0.0732,-0.08296,0.05368,-0.08784
0.00488,0.03416,-0.0732,-0.07564,-0.07808,0.04148,-0.0488,0,-0.06344,-0.0732,0.06344,-0.08784
0.00976,0.02684,-0.06344,-0.06832,-0.0732,0.04148,-0.0488,0.01952,-0.04392,-0.06344,0.06832,-0.08784
0.00976,0.02196,-0.05368,-0.05856,-0.06344,0.0366,-0.03416,0.05368,-0.01952,-0.04392,0.07808,-0.07808
0.01464,0.0122,-0.03904,-0.04636,-0.05368,0.03416,-0.01952,0.08296,0.00488,-0.02928,0.08784,-0.06832
0.0244,0.00244,-0.02928,-0.04148,-0.05368,0.03904,-0.00976,0.11224,0.01952,-0.01464,0.09272,-0.05856
0.03416,-0.00976,-0.01464,-0.03172,-0.0488,0.04148,0.00488,0.15128,0.04392,0.00488,0.11224,-0.05368
0.04392,-0.01952,-0.00488,-0.02684,-0.0488,0.04636,0.01464,0.18056,0.06344,0.01952,0.13176,-0.04392
0.05368,-0.0366,0.01952,-0.00732,-0.03416,0.04392,0.02928,0.20496,0.08784,0.03904,0.14152,-0.02928
0.05856,-0.04392,0.02928,0,-0.02928,0.04392,0.04392,0.23912,0.10736,0.05856,0.1464,-0.01952
0.06832,-0.05856,0.0488,0.01464,-0.01952,0.04392,0.0488,0.25376,0.11712,0.06344,0.15616,-0.00976
0.07808,-0.06832,0.05856,0.01952,-0.01952,0.0488,0.0488,0.27328,0.13664,0.0732,0.16592,-0.00976
0.08296,-0.07564,0.06832,0.02684,-0.01464,0.0488,0.0488,0.2928,0.1464,0.08296,0.1708,-0.00488
0.08784,-0.08052,0.0732,0.02928,-0.01464,0.05124,0.05368,0.29768,0.15128,0.09272,0.17568,-0.00488
0.08784,-0.0854,0.08296,0.03904,-0.00488,0.04636,0.06344,0.30256,0.15616,0.0976,0.17568,-0.00488
0.08784,-0.08784,0.08784,0.04392,0,0.04392,0.06344,0.30744,0.15616,0.10248,0.18056,-0.00488
0.09272,-0.09272,0.09272,0.04636,0,0.04636,0.06344,0.30744,0.16104,0.11224,0.18544,0
0.08784,-0.09272,0.0976,0.05368,0.00976,0.03904,0.06344,0.30256,0.16104,0.11224,0.19032,0.00488
0.08784,-0.09272,0.0976,0.05368,0.00976,0.03904,0.06344,0.29768,0.16104,0.11224,0.1952,0.00488
0.08784,-0.09516,0.10248,0.05856,0.01464,0.0366,0.0488,0.28304,0.15616,0.11224,0.1952,0.00976
0.08784,-0.09516,0.10248,0.05856,0.01464,0.0366,0.0488,0.26352,0.15128,0.10248,0.19032,0.00976
0.08296,-0.08784,0.09272,0.05124,0.00976,0.0366,0.04392,0.23912,0.13664,0.0976,0.1952,0.00976
0.0732,-0.07808,0.08296,0.04636,0.00976,0.03172,0.03904,0.20496,0.122,0.08784,0.18544,0.00488
0.06832,-0.0732,0.07808,0.04392,0.00976,0.02928,0.02928,0.17568,0.10248,0.0732,0.17568,0
0.05856,-0.06344,0.06832,0.03904,0.00976,0.0244,0.01952,0.13664,0.07808,0.05856,0.16592,-0.00976
0.05368,-0.05124,0.0488,0.02196,-0.00488,0.02928,0.00488,0.0976,0.0488,0.03904,0.1464,-0.01952
0.0488,-0.04148,0.03416,0.00976,-0.01464,0.03172,-0.01464,0.06344,0.03416,0.0244,0.13664,-0.02928
0.03416,-0.02684,0.01952,0.00244,-0.01464,0.0244,-0.0244,0.03416,0.00976,0.00488,0.13176,-0.03904
0.02928,-0.01464,0,-0.01464,-0.02928,0.02928,-0.02928,0.00488,-0.00976,-0.00976,0.122,-0.0488
0.0244,-0.00488,-0.01464,-0.02684,-0.03904,0.03172,-0.04392,-0.0244,-0.02928,-0.0244,0.10736,-0.06344
0.01952,0.00244,-0.0244,-0.03416,-0.04392,0.03172,-0.05368,-0.04392,-0.0488,-0.03904,0.09272,-0.0732
0.01464,0.0122,-0.03904,-0.04636,-0.05368,0.03416,-0.06344,-0.06344,-0.05856,-0.0488,0.08296,-0.07808
0.00976,0.01952,-0.0488,-0.05368,-0.05856,0.03416,-0.06832,-0.06832,-0.06832,-0.05856,0.07808,-0.08296
0.00488,0.02928,-0.06344,-0.06588,-0.06832,0.0366,-0.0732,-0.08296,-0.07808,-0.06344,0.06832,-0.08784
0,0.0366,-0.0732,-0.0732,-0.0732,0.0366,-0.06832,-0.0976,-0.08784,-0.0732,0.06832,-0.08784
-0.00488,0.03904,-0.0732,-0.07076,-0.06832,0.03172,-0.07808,-0.10248,-0.09272,-0.07808,0.05856,-0.09272
-0.00488,0.03904,-0.0732,-0.07076,-0.06832,0.03172,-0.07808,-0.10736,-0.10248,-0.08784,0.05368,-0.0976
-0.00976,0.04636,-0.08296,-0.07808,-0.0732,0.03172,-0.08296,-0.11224,-0.10736,-0.08784,0.0488,-0.0976
-0.00976,0.0488,-0.08784,-0.08296,-0.07808,0.03416,-0.08296,-0.11224,-0.10736,-0.08784,0.04392,-0.0976
-0.01464,0.05124,-0.08784,-0.08052,-0.0732,0.02928,-0.08296,-0.11224,-0.11224,-0.09272,0.04392,-0.0976
-0.01952,0.05368,-0.08784,-0.07808,-0.06832,0.0244,-0.07808,-0.10736,-0.11224,-0.09272,0.03904,-0.0976
-0.01952,0.05124,-0.08296,-0.0732,-0.06344,0.02196,-0.07808,-0.10736,-0.10736,-0.09272,0.03904,-0.0976
-0.01952,0.05124,-0.08296,-0.0732,-0.06344,0.02196,-0.07808,-0.10736,-0.10248,-0.09272,0.03416,-0.0976
-0.01952,0.05124,-0.08296,-0.0732,-0.06344,0.02196,-0.07808,-0.11224,-0.0976,-0.09272,0.02928,-0.0976
-0.01952,0.05124,-0.08296,-0.0732,-0.06344,0.02196,-0.0732,-0.11224,-0.09272,-0.08784,0.0244,-0.0976
-0.01952,0.0488,-0.07808,-0.06832,-0.05856,0.01952,-0.0732,-0.10736,-0.09272,-0.08296,0.01952,-0.09272
-0.01952,0.0488,-0.07808,-0.06832,-0.05856,0.01952,-0.0732,-0.10736,-0.08784,-0.07808,0.01952,-0.09272
-0.01464,0.04392,-0.0732,-0.06588,-0.05856,0.02196,-0.06832,-0.10736,-0.09272,-0.07808,0.01952,-0.08784
-0.01464,0.04392,-0.0732,-0.06588,-0.05856,0.02196,-0.05856,-0.10248,-0.0976,-0.07808,0.01952,-0.08296
-0.01464,0.04392,-0.0732,-0.06588,-0.05856,0.02196,-0.06832,-0.10248,-0.0976,-0.07808,0.01952,-0.08296
-0.01464,0.04392,-0.0732,-0.06588,-0.05856,0.02196,-0.06832,-0.10248,-0.09272,-0.07808,0.01952,-0.08296
-0.01464,0.04636,-0.07808,-0.07076,-0.06344,0.0244,-0.06832,-0.0976,-0.09272,-0.0732,0.01464,-0.08296
-0.01464,0.0488,-0.08296,-0.07564,-0.06832,0.02684,-0.06832,-0.09272,-0.09272,-0.0732,0.0244,-0.08296
-0.01464,0.05124,-0.08784,-0.08052,-0.0732,0.02928,-0.06832,-0.09272,-0.09272,-0.0732,0.02928,-0.08296
-0.01952,0.05368,-0.08784,-0.07808,-0.06832,0.0244,-0.06832,-0.09272,-0.09272,-0.0732,0.02928,-0.08784
-0.01952,0.05368,-0.08784,-0.07808,-0.06832,0.0244,-0.06832,-0.09272,-0.08784,-0.0732,0.02928,-0.09272
-0.01952,0.05368,-0.08784,-0.07808,-0.06832,0.0244,-0.06832,-0.09272,-0.08296,-0.0732,0.02928,-0.09272
-0.01952,0.05368,-0.08784,-0.07808,-0.06832,0.0244,-0.06832,-0.0976,-0.08296,-0.0732,0.0244,-0.09272
-0.01952,0.05368,-0.08784,-0.07808,-0.06832,0.0244,-0.06832,-0.10248,-0.08296,-0.0732,0.0244,-0.09272
-0.01952,0.05368,-0.08784,-0.07808,-0.06832,0.0244,-0.06832,-0.10248,-0.08296,-0.0732,0.0244,-0.0976
-0.01952,0.05612,-0.09272,-0.08296,-0.0732,0.02684,-0.06832,-0.10248,-0.08296,-0.0732,0.0244,-0.0976
-0.01952,0.05612,-0.09272,-0.08296,-0.0732,0.02684,-0.0732,-0.0976,-0.08296,-0.0732,0.01952,-0.0976
-0.01952,0.05612,-0.09272,-0.08296,-0.0732,0.02684,-0.0732,-0.09272,-0.08784,-0.06832,0.01952,-0.0976
