i,aVR,ii,aVF,iii,aVL,V1,V2,V3,V4,V5,V6
0.03416,-0.06588,0.0976,0.08052,0.06344,-0.01464,-0.07808,-0.01952,0.82472,0.1464,-0.7076,0.21472
0.03904,-0.06832,0.0976,0.07808,0.05856,-0.00976,-0.08296,-0.0244,0.81496,0.1464,-0.70272,0.21472
0.03904,-0.06832,0.0976,0.07808,0.05856,-0.00976,-0.09272,-0.02928,0.81008,0.14152,-0.69784,0.21472
0.03904,-0.05856,0.07808,0.05856,0.03904,0,-0.09272,-0.02928,0.79544,0.13176,-0.7076,0.21472
0.02928,-0.0488,0.06832,0.05368,0.03904,-0.00488,-0.08784,-0.02928,0.79544,0.12688,-0.7076,0.21472
0.0244,-0.02928,0.03416,0.02196,0.00976,0.00732,-0.07808,-0.01952,0.79544,0.10736,-0.72224,0.20008
0.00488,-0.0122,0.01952,0.01708,0.01464,-0.00488,-0.05368,-0.01464,0.79544,0.0976,-0.72712,0.19032
-0.00488,0.00244,0,0.00244,0.00488,-0.00488,-0.04392,-0.00976,0.78568,0.08296,-0.73688,0.17568
-0.0244,0.02684,-0.02928,-0.01708,-0.00488,-0.00976,-0.03904,-0.00976,0.7808,0.0732,-0.74664,0.15616
-0.0244,0.03416,-0.04392,-0.03172,-0.01952,-0.00244,-0.03904,-0.00976,0.77104,0.05856,-0.7564,0.1464
-0.0244,0.0366,-0.0488,-0.0366,-0.0244,0,-0.02928,-0.00976,0.76128,0.04392,-0.76616,0.14152
-0.0244,0.03904,-0.05368,-0.04148,-0.02928,0.00244,-0.02928,-0.00976,0.75152,0.03904,-0.76616,0.13176
-0.0244,0.04392,-0.06344,-0.05124,-0.03904,0.00732,-0.02928,-0.00976,0.74664,0.02928,-0.77104,0.13176
-0.0244,0.0488,-0.0732,-0.061,-0.0488,0.0122,-0.02928,-0.00976,0.74176,0.0244,-0.77104,0.122
-0.02928,0.05124,-0.0732,-0.05856,-0.04392,0.00732,-0.02928,-0.00488,0.74176,0.0244,-0.76616,0.11712
-0.03416,0.05612,-0.07808,-0.061,-0.04392,0.00488,-0.02928,-0.00488,0.74176,0.02928,-0.76616,0.122
-0.03904,0.06344,-0.08784,-0.06832,-0.0488,0.00488,-0.0244,-0.00488,0.74176,0.03416,-0.76616,0.122
-0.0488,0.06832,-0.08784,-0.06344,-0.03904,-0.00488,-0.0244,-0.00488,0.74176,0.02928,-0.76128,0.11712
-0.05368,0.07076,-0.08784,-0.061,-0.03416,-0.00976,-0.01464,-0.00488,0.74664,0.02928,-0.76128,0.11712
-0.05368,0.07564,-0.0976,-0.07076,-0.04392,-0.00488,-0.00488,0.00976,0.732,0.00976,-0.78568,0.0976
-0.0488,0.08784,-0.12688,-0.10248,-0.07808,0.01464,0.01464,0.07808,0.79056,-0.00488,-0.79544,0.0732
-0.0244,0.08296,-0.14152,-0.12932,-0.11712,0.04636,0.03904,0.1464,0.9516,0.04392,-0.79056,0.06344
0.0488,-0.02196,-0.00488,-0.02928,-0.05368,0.05124,-0.0488,0.16104,1.1224,0.23912,-0.65392,0.15128
0.19032,-0.25864,0.32696,0.2318,0.13664,0.02684,-0.27816,0.1708,1.29808,0.61976,-0.37576,0.366
0.40504,-0.5856,0.76616,0.56364,0.36112,0.02196,-0.5612,0.18544,1.6348,1.12728,0.0244,0.69784
0.732,-1.05896,1.38592,1.01992,0.65392,0.03904,-0.94672,0.18056,2.04472,1.8056,0.56608,1.15168
1.0248,-1.46156,1.89832,1.38592,0.87352,0.07564,-1.3176,0.13176,2.19112,2.25944,0.96624,1.52744
1.1712,-1.63724,2.10328,1.51768,0.93208,0.11956,-1.55184,-0.10736,1.89832,2.16184,1.06872,1.7324
1.08824,-1.52744,1.96664,1.42252,0.8784,0.10492,-1.5372,-0.4148,1.2932,1.62992,0.85888,1.67384
0.68808,-1.01992,1.35176,1.00772,0.66368,0.0122,-1.22976,-0.81496,0.27328,0.67344,0.244,1.23952
0.28792,-0.54168,0.79544,0.65148,0.50752,-0.1098,-0.854,-0.96136,-0.36112,-0.0244,-0.29768,0.7808
0.11224,-0.28548,0.45872,0.4026,0.34648,-0.11712,-0.59536,-0.77592,-0.22448,-0.15128,-0.52704,0.52704
0.01952,-0.20252,0.38552,0.37576,0.366,-0.17324,-0.44896,-0.61,0.05856,-0.06832,-0.53192,0.47824
0,-0.09272,0.18544,0.18544,0.18544,-0.09272,-0.2684,-0.32696,0.3416,-0.05856,-0.6344,0.30256
-0.03904,0.0244,-0.00976,0.00976,0.02928,-0.03416,-0.09272,-0.11712,0.54168,-0.05368,-0.71736,0.14152
-0.05368,0.0488,-0.04392,-0.01708,0.00976,-0.03172,-0.01464,-0.02928,0.67344,0,-0.72712,0.122
-0.02928,0.02684,-0.0244,-0.00976,0.00488,-0.01708,-0.00488,0,0.72712,0.02928,-0.72712,0.13664
-0.0244,0.02928,-0.03416,-0.02196,-0.00976,-0.00732,0.00488,0.02928,0.74176,0.03904,-0.72712,0.122
-0.0244,0.03172,-0.03904,-0.02684,-0.01464,-0.00488,0.01464,0.06832,0.77592,0.04392,-0.72712,0.11224
-0.0244,0.03172,-0.03904,-0.02684,-0.01464,-0.00488,0.01952,0.06832,0.80032,0.03416,-0.74664,0.10248
-0.0244,0.0366,-0.0488,-0.0366,-0.0244,0,0.01952,0.07808,0.8052,0.00488,-0.7564,0.0976
-0.0244,0.03904,-0.05368,-0.04148,-0.02928,0.00244,0.0244,0.08296,0.81984,-0.01952,-0.76128,0.08784
-0.0244,0.04148,-0.05856,-0.04636,-0.03416,0.00488,0.02928,0.0976,0.83448,-0.03416,-0.77104,0.08296
-0.0244,0.04148,-0.05856,-0.04636,-0.03416,0.00488,0.02928,0.0976,0.84424,-0.02928,-0.78568,0.07808
-0.01952,0.0366,-0.05368,-0.04392,-0.03416,0.00732,0.02928,0.10248,0.854,-0.0244,-0.78568,0.0732
-0.01952,0.0366,-0.05368,-0.04392,-0.03416,0.00732,0.0244,0.10736,0.854,-0.01952,-0.79056,0.0732
-0.01952,0.0366,-0.05368,-0.04392,-0.03416,0.00732,0.0244,0.11224,0.86864,-0.00976,-0.79056,0.0732
-0.00976,0.02684,-0.04392,-0.03904,-0.03416,0.0122,0.0244,0.11712,0.86864,0.01464,-0.78568,0.07808
-0.00976,0.0244,-0.03904,-0.03416,-0.02928,0.00976,0.0244,0.11712,0.87352,0.0488,-0.7808,0.07808
-0.00976,0.0244,-0.03904,-0.03416,-0.02928,0.00976,0.0244,0.12688,0.8784,0.05368,-0.77592,0.07808
-0.00976,0.02196,-0.03416,-0.02928,-0.0244,0.00732,0.0244,0.13664,0.8784,0.05856,-0.76128,0.0732
-0.00488,0.01708,-0.02928,-0.02684,-0.0244,0.00976,0.0244,0.14152,0.88816,0.06832,-0.7564,0.08784
-0.00488,0.01708,-0.02928,-0.02684,-0.0244,0.00976,0.0244,0.1464,0.89792,0.05856,-0.74664,0.08784
-0.00488,0.01464,-0.0244,-0.02196,-0.01952,0.00732,0.0244,0.1464,0.89792,0.0488,-0.74176,0.08784
0,0.00732,-0.01464,-0.01464,-0.01464,0.00732,0.0244,0.15128,0.91256,0.02928,-0.73688,0.09272
0,0.00732,-0.01464,-0.01464,-0.01464,0.00732,0.01952,0.15128,0.92232,0.01952,-0.73688,0.08784
0,0.00488,-0.00976,-0.00976,-0.00976,0.00488,0.01464,0.16104,0.93208,0.00488,-0.732,0.08296
0.00488,0,-0.00488,-0.00732,-0.00976,0.00732,0.01464,0.16592,0.94672,-0.00488,-0.732,0.08296
0.00488,0,-0.00488,-0.00732,-0.00976,0.00732,0.01464,0.1708,0.96136,-0.00976,-0.732,0.08296
0.01464,-0.00976,0.00488,-0.00244,-0.00976,0.0122,0.01464,0.17568,0.97112,-0.01464,-0.732,0.08296
0.01952,-0.01464,0.00976,0,-0.00976,0.01464,0.01464,0.18544,0.98576,-0.01952,-0.732,0.08296
0.0244,-0.01952,0.01464,0.00244,-0.00976,0.01708,0.01464,0.19032,0.99552,-0.00488,-0.73688,0.07808
0.0244,-0.02196,0.01952,0.00732,-0.00488,0.01464,0.01464,0.1952,1.00528,0.01464,-0.73688,0.07808
0.0244,-0.0244,0.0244,0.0122,0,0.0122,0.01464,0.20008,1.01016,0.0244,-0.73688,0.0732
0.01952,-0.02196,0.0244,0.01464,0.00488,0.00732,0.01464,0.20984,1.0248,0.04392,-0.732,0.0732
0.01952,-0.0244,0.02928,0.01952,0.00976,0.00488,0.01952,0.2196,1.03944,0.0488,-0.732,0.06832
0.0244,-0.02928,0.03416,0.02196,0.00976,0.00732,0.01952,0.23424,1.05896,0.06832,-0.72224,0.0732
0.02928,-0.03172,0.03416,0.01952,0.00488,0.0122,0.01952,0.244,1.0736,0.08784,-0.71248,0.0732
0.02928,-0.03172,0.03416,0.01952,0.00488,0.0122,0.01952,0.25376,1.098,0.10736,-0.70272,0.07808
0.03904,-0.03904,0.03904,0.01952,0,0.01952,0.01952,0.27328,1.10776,0.11224,-0.6832,0.07808
0.03904,-0.03904,0.03904,0.01952,0,0.01952,0.01952,0.27816,1.11752,0.12688,-0.66856,0.08296
0.0488,-0.05856,0.06832,0.04392,0.01952,0.01464,0.01952,0.29768,1.14192,0.13664,-0.65392,0.08296
0.05368,-0.06832,0.08296,0.05612,0.02928,0.0122,0.01952,0.31232,1.16144,0.1464,-0.64416,0.08296
0.06344,-0.08052,0.0976,0.06588,0.03416,0.01464,0.01952,0.32696,1.18096,0.15616,-0.6344,0.09272
0.06832,-0.0854,0.10248,0.06832,0.03416,0.01708,0.0244,0.3416,1.20048,0.16592,-0.62464,0.09272
0.0732,-0.09028,0.10736,0.07076,0.03416,0.01952,0.02928,0.35624,1.21512,0.1708,-0.62464,0.08784
0.07808,-0.0976,0.11712,0.07808,0.03904,0.01952,0.03416,0.37088,1.23464,0.17568,-0.61976,0.09272
0.07808,-0.09516,0.11224,0.0732,0.03416,0.02196,0.03416,0.37576,1.23952,0.18056,-0.61488,0.09272
0.08296,-0.0976,0.11224,0.07076,0.02928,0.02684,0.03416,0.38552,1.24928,0.18056,-0.61976,0.0976
0.07808,-0.09272,0.10736,0.06832,0.02928,0.0244,0.03416,0.3904,1.25416,0.18056,-0.62464,0.10248
0.0732,-0.0854,0.0976,0.061,0.0244,0.0244,0.03416,0.39528,1.25416,0.18056,-0.6344,0.10248
0.0732,-0.08296,0.09272,0.05612,0.01952,0.02684,0.03904,0.39528,1.25416,0.1708,-0.64904,0.10248
0.0732,-0.08052,0.08784,0.05124,0.01464,0.02928,0.04392,0.39528,1.24928,0.16592,-0.6588,0.10248
0.0732,-0.08052,0.08784,0.05124,0.01464,0.02928,0.03904,0.38552,1.22976,0.16592,-0.66368,0.0976
0.06344,-0.07564,0.08784,0.05612,0.0244,0.01952,0.03904,0.37576,1.21512,0.15616,-0.67344,0.09272
0.06344,-0.07808,0.09272,0.061,0.02928,0.01708,0.03416,0.35624,1.19072,0.1464,-0.6832,0.09272
0.05368,-0.0732,0.09272,0.06588,0.03904,0.00732,0.02928,0.33672,1.16632,0.13664,-0.68808,0.09272
0.05368,-0.0732,0.09272,0.06588,0.03904,0.00732,0.0244,0.30744,1.13216,0.12688,-0.69296,0.08784
0.0488,-0.07076,0.09272,0.06832,0.04392,0.00244,0.01952,0.28304,1.10288,0.11224,-0.69296,0.08296
0.03416,-0.06344,0.09272,0.07564,0.05856,-0.0122,0.01464,0.244,1.06872,0.10248,-0.70272,0.08296
0.01464,-0.05368,0.09272,0.0854,0.07808,-0.03172,0,0.21472,1.03944,0.09272,-0.7076,0.07808
0.0244,-0.05856,0.09272,0.08052,0.06832,-0.02196,-0.00488,0.18544,1.01016,0.0732,-0.71736,0.0732
0.0244,-0.061,0.0976,0.0854,0.0732,-0.0244,-0.01464,0.16104,0.976,0.06832,-0.72224,0.06832
0.01952,-0.05124,0.08296,0.0732,0.06344,-0.02196,-0.01464,0.13176,0.94184,0.05368,-0.72712,0.05856
0.01464,-0.04392,0.0732,0.06588,0.05856,-0.02196,-0.01952,0.11224,0.91256,0.03904,-0.732,0.05368
0,-0.02928,0.05856,0.05856,0.05856,-0.02928,-0.03416,0.09272,0.88816,0.01952,-0.74664,0.03904
-0.00488,-0.01952,0.04392,0.04636,0.0488,-0.02684,-0.03904,0.0732,0.86376,0,-0.76128,0.0244
-0.01952,-0.00244,0.0244,0.03416,0.04392,-0.03172,-0.03904,0.05856,0.83448,-0.00976,-0.77104,0.01464
-0.01952,0.00244,0.01464,0.0244,0.03416,-0.02684,-0.03904,0.0488,0.81496,-0.0244,-0.77592,0.00488
-0.03416,0.0122,0.00976,0.02684,0.04392,-0.03904,-0.03904,0.03416,0.8052,-0.03904,-0.79056,0
-0.04392,0.0244,-0.00488,0.01708,0.03904,-0.04148,-0.03904,0.02928,0.79544,-0.0488,-0.79544,0
-0.04392,0.02928,-0.01464,0.00732,0.02928,-0.0366,-0.03416,0.01952,0.77592,-0.06832,-0.8052,0
-0.0488,0.03904,-0.02928,-0.00488,0.01952,-0.03416,-0.02928,0.00976,0.76616,-0.08296,-0.81008,-0.00488
-0.05856,0.04636,-0.03416,-0.00488,0.0244,-0.04148,-0.02928,0.00976,0.7564,-0.08784,-0.81496,-0.00976
-0.06344,0.05368,-0.04392,-0.0122,0.01952,-0.04148,-0.02928,0.00488,0.74664,-0.09272,-0.81984,-0.01464
-0.06344,0.05124,-0.03904,-0.00732,0.0244,-0.04392,-0.02928,0,0.74176,-0.08784,-0.8296,-0.00976
-0.06344,0.05124,-0.03904,-0.00732,0.0244,-0.04392,-0.02928,0,0.74176,-0.08296,-0.83448,-0.00488
-0.05856,0.05124,-0.04392,-0.01464,0.01464,-0.0366,-0.0244,0,0.73688,-0.08296,-0.83448,-0.01464
-0.05368,0.05124,-0.0488,-0.02196,0.00488,-0.02928,-0.0244,0,0.732,-0.0732,-0.83448,-0.01464
-0.05368,0.05368,-0.05368,-0.02684,0,-0.02684,-0.01952,0,0.72712,-0.06832,-0.84424,-0.01952
-0.05368,0.05612,-0.05856,-0.03172,-0.00488,-0.0244,-0.01464,0,0.72712,-0.06832,-0.84912,-0.01952
-0.05368,0.05612,-0.05856,-0.03172,-0.00488,-0.0244,-0.01464,0.00488,0.72712,-0.0732,-0.854,-0.00976
-0.05368,0.05856,-0.06344,-0.0366,-0.00976,-0.02196,-0.00976,0.01464,0.72712,-0.07808,-0.854,-0.00976
-0.05368,0.05856,-0.06344,-0.0366,-0.00976,-0.02196,-0.00976,0.01952,0.732,-0.09272,-0.854,-0.00976
-0.0488,0.061,-0.0732,-0.0488,-0.0244,-0.0122,-0.00976,0.0244,0.73688,-0.10248,-0.85888,-0.00976
-0.05368,0.06344,-0.0732,-0.04636,-0.01952,-0.01708,-0.00488,0.0244,0.73688,-0.10248,-0.86864,-0.01464
-0.05856,0.06832,-0.07808,-0.0488,-0.01952,-0.01952,-0.00488,0.02928,0.73688,-0.0976,-0.87352,-0.01464
-0.05856,0.06832,-0.07808,-0.0488,-0.01952,-0.01952,-0.00976,0.02928,0.73688,-0.10248,-0.87352,-0.01464
-0.05856,0.06588,-0.0732,-0.04392,-0.01464,-0.02196,-0.01464,0.02928,0.74664,-0.08784,-0.87352,-0.01464
-0.05368,0.06344,-0.0732,-0.04636,-0.01952,-0.01708,-0.01464,0.02928,0.74664,-0.0732,-0.86864,-0.01464
-0.0488,0.05856,-0.06832,-0.04392,-0.01952,-0.01464,-0.01464,0.03904,0.7564,-0.06344,-0.86376,-0.00976
-0.04392,0.05124,-0.05856,-0.0366,-0.01464,-0.01464,-0.01464,0.03904,0.76128,-0.05368,-0.854,0
-0.03904,0.04392,-0.0488,-0.02928,-0.00976,-0.01464,-0.01464,0.04392,0.76616,-0.0488,-0.83936,0.01464
-0.03416,0.03904,-0.04392,-0.02684,-0.00976,-0.0122,-0.01464,0.04392,0.76616,-0.04392,-0.83448,0.01952
-0.02928,0.03416,-0.03904,-0.0244,-0.00976,-0.00976,-0.01464,0.0488,0.77104,-0.04392,-0.8296,0.02928
-0.0244,0.03172,-0.03904,-0.02684,-0.01464,-0.00488,-0.01464,0.0488,0.77104,-0.03904,-0.82472,0.02928
-0.0244,0.03172,-0.03904,-0.02684,-0.01464,-0.00488,-0.01464,0.05368,0.7808,-0.02928,-0.81984,0.03416
-0.01952,0.02928,-0.03904,-0.02928,-0.01952,0,-0.01464,0.05856,0.78568,-0.01952,-0.8052,0.04392
-0.01952,0.02928,-0.03904,-0.02928,-0.01952,0,-0.01464,0.06344,0.79056,-0.01464,-0.79544,0.05368
-0.01952,0.02928,-0.03904,-0.02928,-0.01952,0,-0.01952,0.06344,0.79544,-0.00976,-0.78568,0.05856
-0.01952,0.02684,-0.03416,-0.0244,-0.01464,-0.00244,-0.01952,0.06344,0.79544,-0.00488,-0.78568,0.05856
-0.01952,0.02684,-0.03416,-0.0244,-0.01464,-0.00244,-0.0244,0.05856,0.79544,0,-0.78568,0.05856
-0.01952,0.02928,-0.03904,-0.02928,-0.01952,0,-0.02928,0.05856,0.80032,0.00976,-0.79056,0.05856
-0.01952,0.02684,-0.03416,-0.0244,-0.01464,-0.00244,-0.02928,0.05856,0.79544,0.00976,-0.79056,0.05856
-0.01952,0.0244,-0.02928,-0.01952,-0.00976,-0.00488,-0.02928,0.05856,0.79056,0.00976,-0.79056,0.05856
-0.01952,0.0244,-0.02928,-0.01952,-0.00976,-0.00488,-0.02928,0.05856,0.78568,0.00488,-0.79544,0.05856
-0.01464,0.02196,-0.02928,-0.02196,-0.01464,0,-0.02928,0.05856,0.7808,0,-0.80032,0.05856
-0.01464,0.02196,-0.02928,-0.02196,-0.01464,0,-0.02928,0.05856,0.77592,0,-0.8052,0.05856
-0.00976,0.01952,-0.02928,-0.0244,-0.01952,0.00488,-0.02928,0.05856,0.77104,-0.00976,-0.81496,0.05856
-0.00976,0.01952,-0.02928,-0.0244,-0.01952,0.00488,-0.02928,0.05856,0.77104,-0.0244,-0.81496,0.05856
-0.00488,0.01464,-0.0244,-0.02196,-0.01952,0.00732,-0.02928,0.05368,0.77104,-0.03904,-0.81496,0.05856
-0.00976,0.01708,-0.0244,-0.01952,-0.01464,0.00244,-0.02928,0.05368,0.76128,-0.05368,-0.82472,0.05856
-0.01952,0.0244,-0.02928,-0.01952,-0.00976,-0.00488,-0.02928,0.05856,0.76128,-0.06832,-0.82472,0.06344
-0.01952,0.0244,-0.02928,-0.01952,-0.00976,-0.00488,-0.02928,0.05856,0.75152,-0.08784,-0.82472,0.05856
-0.01952,0.0244,-0.02928,-0.01952,-0.00976,-0.00488,-0.02928,0.05856,0.75152,-0.0976,-0.82472,0.05856
-0.01952,0.0244,-0.02928,-0.01952,-0.00976,-0.00488,-0.02928,0.05856,0.73688,-0.10248,-0.82472,0.05856
-0.01952,0.0244,-0.02928,-0.01952,-0.00976,-0.00488,-0.02928,0.05856,0.732,-0.10736,-0.82472,0.05856
-0.01952,0.0244,-0.02928,-0.01952,-0.00976,-0.00488,-0.0244,0.05368,0.732,-0.10736,-0.82472,0.05856
-0.01952,0.0244,-0.02928,-0.01952,-0.00976,-0.00488,-0.01952,0.05368,0.732,-0.10736,-0.81984,0.06344
-0.01952,0.02196,-0.0244,-0.01464,-0.00488,-0.00732,-0.01464,0.05368,0.73688,-0.10248,-0.81984,0.06832
-0.01952,0.01708,-0.01464,-0.00488,0.00488,-0.0122,-0.00488,0.05856,0.73688,-0.0976,-0.81008,0.06832
-0.0244,0.01708,-0.00976,0.00244,0.01464,-0.01952,0.00488,0.06344,0.73688,-0.09272,-0.80032,0.0732
-0.0244,0.0122,0,0.0122,0.0244,-0.0244,0.00976,0.06344,0.74176,-0.08296,-0.79056,0.0732
-0.01952,0.00732,0.00488,0.01464,0.0244,-0.02196,0.00976,0.06344,0.74176,-0.07808,-0.7808,0.07808
-0.01464,-0.00244,0.01952,0.02684,0.03416,-0.0244,0.00488,0.06344,0.75152,-0.05856,-0.76616,0.09272
0,-0.02196,0.04392,0.04392,0.04392,-0.02196,-0.01464,0.06344,0.75152,-0.04392,-0.75152,0.0976
0.00488,-0.03904,0.0732,0.07076,0.06832,-0.03172,-0.03416,0.04392,0.75152,-0.03416,-0.732,0.11712
0.00976,-0.04636,0.08296,0.07808,0.0732,-0.03172,-0.05368,0.02928,0.75152,-0.02928,-0.72224,0.122
0.00976,-0.05124,0.09272,0.08784,0.08296,-0.0366,-0.06344,0.01952,0.75152,-0.0244,-0.71248,0.13664
0.0244,-0.06588,0.10736,0.09516,0.08296,-0.02928,-0.06832,0.01952,0.74664,-0.0244,-0.71248,0.13664
0.03416,-0.08052,0.12688,0.1098,0.09272,-0.02928,-0.07808,0.01952,0.74664,-0.02928,-0.69784,0.1464
0.03904,-0.08296,0.12688,0.10736,0.08784,-0.0244,-0.08296,0.00976,0.732,-0.02928,-0.69296,0.1464
0.03904,-0.08296,0.12688,0.10736,0.08784,-0.0244,-0.09272,0,0.72224,-0.03416,-0.68808,0.1464
0.03904,-0.0732,0.10736,0.08784,0.06832,-0.01464,-0.09272,0,0.7076,-0.04392,-0.69784,0.14152
0.02928,-0.06344,0.0976,0.08296,0.06832,-0.01952,-0.08784,0,0.7076,-0.0488,-0.69784,0.13664
0.0244,-0.04392,0.06344,0.05124,0.03904,-0.00732,-0.07808,0.00976,0.7076,-0.06344,-0.71736,0.122
0.00488,-0.02684,0.0488,0.04636,0.04392,-0.01952,-0.05368,0.01464,0.7076,-0.06832,-0.72712,0.11224
0,-0.01464,0.02928,0.02928,0.02928,-0.01464,-0.04392,0.01952,0.69784,-0.08296,-0.73688,0.10248
-0.01464,0.00732,0,0.00732,0.01464,-0.01464,-0.03904,0.01952,0.69296,-0.09272,-0.74664,0.08784
-0.01464,0.01708,-0.01952,-0.0122,-0.00488,-0.00488,-0.03904,0.01952,0.6832,-0.0976,-0.75152,0.08296
-0.01464,0.02196,-0.02928,-0.02196,-0.01464,0,-0.02928,0.01952,0.67344,-0.10248,-0.7564,0.08296
-0.01952,0.02684,-0.03416,-0.0244,-0.01464,-0.00244,-0.02928,0.01952,0.66856,-0.10248,-0.7564,0.0732
-0.0244,0.03416,-0.04392,-0.03172,-0.01952,-0.00244,-0.02928,0.01952,0.66856,-0.10736,-0.76128,0.0732
-0.0244,0.03904,-0.05368,-0.04148,-0.02928,0.00244,-0.02928,0.01952,0.6588,-0.10736,-0.76128,0.06832
-0.02928,0.04148,-0.05368,-0.03904,-0.0244,-0.00244,-0.02928,0.0244,0.65392,-0.10248,-0.7564,0.06832
-0.02928,0.04148,-0.05368,-0.03904,-0.0244,-0.00244,-0.02928,0.01952,0.65392,-0.0976,-0.76128,0.0732
-0.02928,0.04392,-0.05856,-0.04392,-0.02928,0,-0.0244,0.01464,0.65392,-0.09272,-0.76616,0.0732
-0.03416,0.04636,-0.05856,-0.04148,-0.0244,-0.00488,-0.0244,0.01952,0.65392,-0.09272,-0.76128,0.06832
-0.03416,0.04636,-0.05856,-0.04148,-0.0244,-0.00488,-0.01464,0.0244,0.6588,-0.08784,-0.76128,0.06832
-0.02928,0.04148,-0.05368,-0.03904,-0.0244,-0.00244,-0.01464,0.0488,0.68808,-0.07808,-0.77592,0.06344
-0.01952,0.04392,-0.06832,-0.05856,-0.0488,0.01464,-0.00488,0.12688,0.79056,-0.06344,-0.77592,0.05368
0.03416,-0.0244,0.01464,-0.00244,-0.01952,0.02684,-0.05368,0.16592,0.97112,0.10248,-0.69296,0.10248
0.13664,-0.19276,0.24888,0.18056,0.11224,0.0122,-0.21472,0.15128,1.16144,0.4148,-0.47824,0.24888
0.30744,-0.5002,0.69296,0.53924,0.38552,-0.03904,-0.48312,0.12688,1.38104,0.88328,-0.122,0.53192
0.55144,-0.89792,1.2444,0.96868,0.69296,-0.07076,-0.8052,0.10736,1.76168,1.47864,0.35624,0.93208
0.79056,-1.26636,1.74216,1.34688,0.9516,-0.08052,-1.13216,0.03416,1.99592,2.00568,0.79544,1.3176
0.99552,-1.56404,2.13256,1.6348,1.13704,-0.07076,-1.44448,-0.08296,1.96664,2.30824,1.09312,1.62504
1.02968,-1.5738,2.11792,1.60308,1.08824,-0.02928,-1.52744,-0.28792,1.54208,1.99592,1.00528,1.67384
0.83448,-1.29808,1.76168,1.34444,0.9272,-0.04636,-1.36152,-0.5612,0.8052,1.24928,0.60512,1.45912
0.50752,-0.82716,1.1468,0.89304,0.63928,-0.06588,-1.04432,-0.8052,0.03904,0.4148,0.01952,1.04432
0.18056,-0.38552,0.59048,0.5002,0.40992,-0.11468,-0.6588,-0.79544,-0.3416,-0.16104,-0.49288,0.60512
0.05856,-0.18788,0.3172,0.28792,0.25864,-0.10004,-0.44408,-0.5856,-0.17568,-0.244,-0.67832,0.38064
0.01952,-0.16348,0.30744,0.29768,0.28792,-0.1342,-0.3416,-0.39528,0.13664,-0.11712,-0.63928,0.36112
-0.00488,-0.06588,0.13664,0.13908,0.14152,-0.0732,-0.19032,-0.19032,0.38064,-0.10736,-0.72224,0.22936
-0.0488,0.03904,-0.02928,-0.00488,0.01952,-0.03416,-0.04392,-0.05856,0.54168,-0.10248,-0.78568,0.11224
-0.06344,0.05612,-0.0488,-0.01708,0.01464,-0.03904,0.00976,0.01952,0.62952,-0.05856,-0.79056,0.09272
-0.03904,0.02684,-0.01464,0.00488,0.0244,-0.03172,-0.00488,0.03904,0.63928,-0.03904,-0.78568,0.10736
-0.03416,0.02928,-0.0244,-0.00732,0.00976,-0.02196,0.00488,0.05856,0.66856,-0.03904,-0.78568,0.0976
-0.03416,0.03172,-0.02928,-0.0122,0.00488,-0.01952,0.01464,0.08784,0.71736,-0.04392,-0.78568,0.09272
-0.03416,0.03172,-0.02928,-0.0122,0.00488,-0.01952,0.01952,0.08784,0.72712,-0.05856,-0.80032,0.08784
-0.03416,0.0366,-0.03904,-0.02196,-0.00488,-0.01464,0.01952,0.0976,0.71736,-0.09272,-0.8052,0.08784
-0.03416,0.0366,-0.03904,-0.02196,-0.00488,-0.01464,0.01952,0.0976,0.732,-0.10248,-0.8052,0.08296
-0.03416,0.0366,-0.03904,-0.02196,-0.00488,-0.01464,0.01952,0.10736,0.74664,-0.10248,-0.81008,0.08296
-0.03416,0.0366,-0.03904,-0.02196,-0.00488,-0.01464,0.01952,0.10736,0.7564,-0.0976,-0.82472,0.08296
-0.02928,0.03172,-0.03416,-0.01952,-0.00488,-0.0122,0.01952,0.11224,0.76616,-0.09272,-0.82472,0.08296
-0.02928,0.03172,-0.03416,-0.01952,-0.00488,-0.0122,0.01464,0.11712,0.76616,-0.08296,-0.81984,0.08296
-0.02928,0.03172,-0.03416,-0.01952,-0.00488,-0.0122,0.01464,0.122,0.7808,-0.06832,-0.81008,0.08296
-0.01952,0.0244,-0.02928,-0.01952,-0.00976,-0.00488,0.01464,0.12688,0.7808,-0.04392,-0.79056,0.08784
-0.01952,0.0244,-0.02928,-0.01952,-0.00976,-0.00488,0.01464,0.12688,0.78568,-0.00976,-0.77104,0.08784
-0.01952,0.0244,-0.02928,-0.01952,-0.00976,-0.00488,0.01464,0.13176,0.79544,-0.00488,-0.76616,0.09272
-0.01952,0.02196,-0.0244,-0.01464,-0.00488,-0.00732,0.01464,0.13664,0.80032,0,-0.75152,0.09272
-0.01464,0.01708,-0.01952,-0.0122,-0.00488,-0.00488,0.01464,0.14152,0.81008,0.00976,-0.75152,0.10736
-0.01464,0.01708,-0.01952,-0.0122,-0.00488,-0.00488,0.01464,0.1464,0.81984,0,-0.74664,0.10736
-0.01464,0.01708,-0.01952,-0.0122,-0.00488,-0.00488,0.01464,0.1464,0.82472,-0.00976,-0.74176,0.10248
-0.00976,0.0122,-0.01464,-0.00976,-0.00488,-0.00244,0.01464,0.15128,0.84424,-0.02928,-0.73688,0.10248
-0.00976,0.0122,-0.01464,-0.00976,-0.00488,-0.00244,0.01464,0.15128,0.854,-0.02928,-0.73688,0.10248
-0.00976,0.00976,-0.00976,-0.00488,0,-0.00488,0.01464,0.16104,0.86376,-0.03416,-0.732,0.10248
0,0.00244,-0.00488,-0.00488,-0.00488,0.00244,0.01464,0.16592,0.87352,-0.04392,-0.732,0.10248
0.00488,0,-0.00488,-0.00732,-0.00976,0.00732,0.01464,0.1708,0.88328,-0.0488,-0.732,0.10248
0.00976,-0.00976,0.00976,0.00488,0,0.00488,0.00976,0.17568,0.89304,-0.04392,-0.732,0.10736
0.00976,-0.01464,0.01952,0.01464,0.00976,0,0.00488,0.18544,0.90768,-0.03904,-0.732,0.11224
0.01464,-0.01952,0.0244,0.01708,0.00976,0.00244,0.00488,0.19032,0.91744,-0.0244,-0.732,0.11224
0.01464,-0.02196,0.02928,0.02196,0.01464,0,0.00488,0.1952,0.9272,-0.00488,-0.72712,0.11712
0.01952,-0.02684,0.03416,0.0244,0.01464,0.00244,0.00488,0.20008,0.93696,0.00488,-0.72712,0.11712
0.01952,-0.02684,0.03416,0.0244,0.01464,0.00244,0.00488,0.20984,0.95648,0.0244,-0.72224,0.122
0.01952,-0.02928,0.03904,0.02928,0.01952,0,0.00976,0.2196,0.96624,0.0244,-0.71248,0.122
0.0244,-0.03416,0.04392,0.03172,0.01952,0.00244,0.00976,0.23424,0.98088,0.03904,-0.69296,0.13176
0.02928,-0.03904,0.0488,0.03416,0.01952,0.00488,0.00976,0.244,0.99552,0.05368,-0.67832,0.13176
0.02928,-0.04148,0.05368,0.03904,0.0244,0.00244,0.00976,0.25376,1.01992,0.06832,-0.66368,0.13664
0.03904,-0.0488,0.05856,0.03904,0.01952,0.00976,0.00976,0.27328,1.03456,0.0732,-0.65392,0.13664
0.03904,-0.0488,0.05856,0.03904,0.01952,0.00976,0.00976,0.27816,1.0492,0.08784,-0.64904,0.14152
0.04392,-0.061,0.07808,0.05612,0.03416,0.00488,0.01464,0.29768,1.0736,0.0976,-0.63928,0.1464
0.04392,-0.06344,0.08296,0.061,0.03904,0.00244,0.01952,0.31232,1.09312,0.10736,-0.6344,0.15128
0.05368,-0.07564,0.0976,0.07076,0.04392,0.00488,0.01464,0.32208,1.11264,0.11712,-0.62464,0.16104
0.05856,-0.08052,0.10248,0.0732,0.04392,0.00732,0.01464,0.33184,1.13216,0.12688,-0.61488,0.16104
0.05856,-0.08052,0.10248,0.0732,0.04392,0.00732,0.01464,0.34648,1.14192,0.12688,-0.61488,0.15616
0.05856,-0.08296,0.10736,0.07808,0.0488,0.00488,0.01464,0.36112,1.15656,0.12688,-0.61,0.16104
0.05856,-0.08296,0.10736,0.07808,0.0488,0.00488,0.01464,0.366,1.15656,0.12688,-0.60512,0.16104
0.06344,-0.08784,0.11224,0.08052,0.0488,0.00732,0.01464,0.37576,1.16144,0.122,-0.61,0.16592
0.06344,-0.09028,0.11712,0.0854,0.05368,0.00488,0.01464,0.37576,1.16632,0.11712,-0.60512,0.16592
0.06344,-0.09028,0.11712,0.0854,0.05368,0.00488,0.01464,0.37576,1.16632,0.11224,-0.60512,0.16104
0.06344,-0.09028,0.11712,0.0854,0.05368,0.00488,0.01464,0.37576,1.15656,0.0976,-0.61,0.16104
0.06344,-0.09028,0.11712,0.0854,0.05368,0.00488,0.01464,0.37576,1.14192,0.08784,-0.61,0.16104
0.06344,-0.09028,0.11712,0.0854,0.05368,0.00488,0.01464,0.366,1.1224,0.08296,-0.61,0.16104
0.05368,-0.0854,0.11712,0.09028,0.06344,-0.00488,0.01952,0.35624,1.10776,0.06832,-0.61488,0.16104
0.05368,-0.08784,0.122,0.09516,0.06832,-0.00732,0.01464,0.33184,1.07848,0.05856,-0.61976,0.16104
0.04392,-0.08296,0.122,0.10004,0.07808,-0.01708,0.00976,0.30744,1.0492,0.0488,-0.61976,0.16104
0.03904,-0.08052,0.122,0.10248,0.08296,-0.02196,0.00488,0.27816,1.01016,0.03416,-0.62464,0.16104
0.02928,-0.07564,0.122,0.10736,0.09272,-0.03172,0,0.25376,0.976,0.01464,-0.62464,0.16104
0.0244,-0.0732,0.122,0.1098,0.0976,-0.0366,-0.00488,0.22448,0.94184,0.00488,-0.62952,0.16104
0.01464,-0.06832,0.122,0.11468,0.10736,-0.04636,-0.01952,0.20496,0.91256,-0.00488,-0.62952,0.15616
0.01952,-0.06588,0.11224,0.10248,0.09272,-0.0366,-0.0244,0.18056,0.88328,-0.01952,-0.6344,0.15616
0.01464,-0.061,0.10736,0.10004,0.09272,-0.03904,-0.03416,0.16104,0.84912,-0.01952,-0.6344,0.15616
0.00976,-0.05124,0.09272,0.08784,0.08296,-0.0366,-0.03416,0.13176,0.81984,-0.03416,-0.63928,0.1464
0.00488,-0.04392,0.08296,0.08052,0.07808,-0.0366,-0.03904,0.11224,0.79544,-0.0488,-0.64416,0.14152
-0.00488,-0.03416,0.0732,0.07564,0.07808,-0.04148,-0.0488,0.0976,0.77104,-0.06344,-0.64904,0.13176
-0.00488,-0.02928,0.06344,0.06588,0.06832,-0.0366,-0.0488,0.08296,0.74664,-0.07808,-0.65392,0.122
-0.01952,-0.0122,0.04392,0.05368,0.06344,-0.04148,-0.0488,0.06832,0.72224,-0.08296,-0.66368,0.11224
-0.01952,-0.00732,0.03416,0.04392,0.05368,-0.0366,-0.0488,0.05856,0.7076,-0.09272,-0.66856,0.10248
-0.02928,0,0.02928,0.04392,0.05856,-0.04392,-0.05368,0.04392,0.69784,-0.10736,-0.67832,0.0976
-0.03416,0.00976,0.01464,0.03172,0.0488,-0.04148,-0.05856,0.03904,0.68808,-0.11712,-0.67832,0.0976
-0.03416,0.00976,0.01464,0.03172,0.0488,-0.04148,-0.05856,0.02928,0.66856,-0.12688,-0.68808,0.09272
-0.03904,0.01464,0.00976,0.02928,0.0488,-0.04392,-0.05856,0.01952,0.6588,-0.13176,-0.69296,0.08296
-0.0488,0.02196,0.00488,0.02928,0.05368,-0.05124,-0.05368,0.0244,0.64904,-0.13664,-0.69296,0.07808
-0.05368,0.02928,-0.00488,0.02196,0.0488,-0.05124,-0.0488,0.0244,0.63928,-0.14152,-0.69296,0.0732
-0.05368,0.02928,-0.00488,0.02196,0.0488,-0.05124,-0.0488,0.01952,0.62952,-0.14152,-0.69784,0.0732
-0.05368,0.03172,-0.00976,0.01708,0.04392,-0.0488,-0.0488,0.01952,0.62464,-0.14152,-0.69784,0.0732
-0.05856,0.03904,-0.01952,0.00976,0.03904,-0.0488,-0.04392,0.01464,0.61976,-0.14152,-0.69784,0.06344
-0.06344,0.04636,-0.02928,0.00244,0.03416,-0.0488,-0.04392,0.00976,0.61488,-0.13176,-0.69784,0.06344
-0.06344,0.04636,-0.02928,0.00244,0.03416,-0.0488,-0.04392,0.00976,0.60512,-0.122,-0.69784,0.05856
-0.06344,0.04636,-0.02928,0.00244,0.03416,-0.0488,-0.04392,0.00976,0.60024,-0.11712,-0.69296,0.05856
-0.06344,0.04392,-0.0244,0.00732,0.03904,-0.05124,-0.04392,0.00976,0.60024,-0.12688,-0.69784,0.05856
-0.06344,0.04392,-0.0244,0.00732,0.03904,-0.05124,-0.03904,0.01464,0.60024,-0.13664,-0.69784,0.0488
-0.06344,0.04148,-0.01952,0.0122,0.04392,-0.05368,-0.03904,0.01952,0.60512,-0.1464,-0.69296,0.0488
-0.05856,0.04148,-0.0244,0.00488,0.03416,-0.04636,-0.03904,0.0244,0.61,-0.15128,-0.69296,0.0488
-0.05368,0.03904,-0.0244,0.00244,0.02928,-0.04148,-0.03416,0.0244,0.61488,-0.15616,-0.69784,0.03904
-0.0488,0.03904,-0.02928,-0.00488,0.01952,-0.03416,-0.03416,0.02928,0.61976,-0.15616,-0.69784,0.03416
-0.0488,0.03904,-0.02928,-0.00488,0.01952,-0.03416,-0.03416,0.02928,0.61976,-0.16592,-0.69296,0.03416
-0.0488,0.0366,-0.0244,0,0.0244,-0.0366,-0.03416,0.02928,0.62952,-0.15616,-0.68808,0.03416
-0.0488,0.03416,-0.01952,0.00488,0.02928,-0.03904,-0.03904,0.0244,0.62952,-0.14152,-0.6832,0.03416
-0.0488,0.02928,-0.00976,0.01464,0.03904,-0.04392,-0.04392,0.02928,0.63928,-0.13176,-0.67832,0.03904
-0.0488,0.02684,-0.00488,0.01952,0.04392,-0.04636,-0.04392,0.02928,0.64416,-0.11712,-0.67344,0.03904
-0.0488,0.0244,0,0.0244,0.0488,-0.0488,-0.04392,0.03416,0.64904,-0.10736,-0.66368,0.04392
-0.04392,0.01952,0.00488,0.02684,0.0488,-0.04636,-0.04392,0.02928,0.64904,-0.09272,-0.65392,0.04392
-0.03904,0.01464,0.00976,0.02928,0.0488,-0.04392,-0.04392,0.02928,0.65392,-0.08296,-0.64416,0.0488
-0.03416,0.00732,0.01952,0.0366,0.05368,-0.04392,-0.04392,0.0244,0.65392,-0.07808,-0.62952,0.0488
-0.03416,0.00244,0.02928,0.04636,0.06344,-0.0488,-0.04392,0.0244,0.66368,-0.06832,-0.61488,0.05368
-0.02928,0,0.02928,0.04392,0.05856,-0.04392,-0.04392,0.0244,0.66856,-0.05856,-0.60512,0.05368
-0.02928,0,0.02928,0.04392,0.05856,-0.04392,-0.04392,0.0244,0.67344,-0.05368,-0.60024,0.05368
-0.02928,0,0.02928,0.04392,0.05856,-0.04392,-0.0488,0.01952,0.67832,-0.0488,-0.59048,0.05856
-0.02928,-0.00244,0.03416,0.0488,0.06344,-0.04636,-0.0488,0.01464,0.67832,-0.04392,-0.59048,0.05856
-0.0244,-0.00488,0.03416,0.04636,0.05856,-0.04148,-0.0488,0.00976,0.67344,-0.02928,-0.57584,0.05856
-0.01952,-0.00976,0.03904,0.0488,0.05856,-0.03904,-0.0488,0.00976,0.67344,-0.01952,-0.56608,0.05856
-0.01952,-0.00976,0.03904,0.0488,0.05856,-0.03904,-0.0488,0.00976,0.67344,-0.01952,-0.56608,0.05368
-0.01952,-0.00976,0.03904,0.0488,0.05856,-0.03904,-0.0488,0.00976,0.67344,-0.01952,-0.56608,0.0488
-0.0244,-0.00488,0.03416,0.04636,0.05856,-0.04148,-0.0488,0.00488,0.66856,-0.01952,-0.57096,0.04392
-0.0244,-0.00244,0.02928,0.04148,0.05368,-0.03904,-0.0488,0,0.6588,-0.01464,-0.57584,0.03904
-0.02928,0.00244,0.0244,0.03904,0.05368,-0.04148,-0.0488,0,0.65392,-0.01464,-0.58072,0.03416
-0.02928,0.00488,0.01952,0.03416,0.0488,-0.03904,-0.0488,0,0.64416,-0.01952,-0.59048,0.02928
-0.02928,0.00732,0.01464,0.02928,0.04392,-0.0366,-0.0488,0,0.64416,-0.0244,-0.59048,0.02928
-0.0244,0.00488,0.01464,0.02684,0.03904,-0.03172,-0.0488,-0.00488,0.64416,-0.02928,-0.59048,0.02928
-0.0244,0.00488,0.01464,0.02684,0.03904,-0.03172,-0.0488,-0.00976,0.6344,-0.03416,-0.60024,0.0244
-0.02928,0.00976,0.00976,0.0244,0.03904,-0.03416,-0.0488,-0.00976,0.6344,-0.03904,-0.60024,0.0244
-0.02928,0.00976,0.00976,0.0244,0.03904,-0.03416,-0.04392,-0.00976,0.62464,-0.05856,-0.60512,0.01952
-0.02928,0.00976,0.00976,0.0244,0.03904,-0.03416,-0.03904,-0.00976,0.62464,-0.06832,-0.61,0.01952
-0.02928,0.00976,0.00976,0.0244,0.03904,-0.03416,-0.03904,-0.00488,0.61488,-0.0732,-0.61,0.01464
-0.02928,0.00976,0.00976,0.0244,0.03904,-0.03416,-0.03904,0,0.61488,-0.07808,-0.61,0.00976
-0.02928,0.00976,0.00976,0.0244,0.03904,-0.03416,-0.03416,-0.00488,0.61488,-0.07808,-0.61,0.00488
-0.02928,0.00976,0.00976,0.0244,0.03904,-0.03416,-0.02928,-0.00488,0.61488,-0.07808,-0.60512,0.00488
-0.0244,0.00488,0.01464,0.02684,0.03904,-0.03172,-0.0244,-0.00488,0.61976,-0.0732,-0.60512,0.00976
-0.01952,-0.00244,0.0244,0.03416,0.04392,-0.03172,-0.01464,0,0.61976,-0.06832,-0.59536,0.00976
-0.0244,-0.00244,0.02928,0.04148,0.05368,-0.03904,-0.00488,0.00488,0.61976,-0.06344,-0.59048,0.01464
-0.0244,-0.00732,0.03904,0.05124,0.06344,-0.04392,0,0.00488,0.62464,-0.05368,-0.5856,0.01464
-0.0244,-0.00976,0.04392,0.05612,0.06832,-0.04636,0,0.00488,0.61976,-0.04392,-0.58072,0.01464
-0.0244,-0.01708,0.05856,0.07076,0.08296,-0.05368,-0.00488,0.00488,0.62464,-0.01952,-0.57096,0.0244
-0.00976,-0.02928,0.06832,0.0732,0.07808,-0.04392,-0.0244,0.00488,0.62464,-0.00488,-0.5612,0.0244
-0.00488,-0.03904,0.08296,0.0854,0.08784,-0.04636,-0.04392,-0.01464,0.62464,0.00488,-0.54656,0.03904
0,-0.04636,0.09272,0.09272,0.09272,-0.04636,-0.06344,-0.0244,0.62464,0.01464,-0.5368,0.03904
0,-0.05124,0.10248,0.10248,0.10248,-0.05124,-0.0732,-0.02928,0.62464,0.0244,-0.52704,0.0488
0.01464,-0.07076,0.12688,0.11956,0.11224,-0.0488,-0.07808,-0.02928,0.61976,0.04392,-0.52216,0.0488
0.0244,-0.09028,0.15616,0.14396,0.13176,-0.05368,-0.08784,-0.02928,0.61976,0.05856,-0.50264,0.05856
0.03904,-0.0976,0.15616,0.13664,0.11712,-0.03904,-0.09272,-0.03416,0.61,0.06344,-0.50264,0.05856
0.0488,-0.10248,0.15616,0.13176,0.10736,-0.02928,-0.10248,-0.03904,0.60512,0.06344,-0.50264,0.05856
0.03904,-0.0854,0.13176,0.11224,0.09272,-0.02684,-0.10248,-0.03904,0.59048,0.05368,-0.5124,0.0488
0.01952,-0.06832,0.11712,0.10736,0.0976,-0.03904,-0.0976,-0.03904,0.59048,0.0488,-0.5124,0.03904
0.01464,-0.0488,0.08296,0.07564,0.06832,-0.02684,-0.08784,-0.02928,0.59048,0.03416,-0.53192,0.0244
-0.00488,-0.03172,0.06832,0.07076,0.0732,-0.03904,-0.06344,-0.0244,0.59048,0.02928,-0.54168,0.01464
-0.01464,-0.01708,0.0488,0.05612,0.06344,-0.03904,-0.05368,-0.01952,0.58072,0.01464,-0.55144,0
-0.03416,0.00732,0.01952,0.0366,0.05368,-0.04392,-0.0488,-0.01952,0.57584,0.00488,-0.5612,-0.01952
-0.03416,0.01708,0,0.01708,0.03416,-0.03416,-0.0488,-0.01952,0.56608,-0.00488,-0.57096,-0.02928
-0.03416,0.02196,-0.00976,0.00732,0.0244,-0.02928,-0.03904,-0.01952,0.55632,-0.01464,-0.58072,-0.03416
-0.03416,0.0244,-0.01464,0.00244,0.01952,-0.02684,-0.03904,-0.01952,0.55144,-0.01464,-0.57584,-0.03904
-0.03416,0.02928,-0.0244,-0.00732,0.00976,-0.02196,-0.03904,-0.01952,0.55144,-0.01952,-0.57584,-0.03416
-0.03416,0.03172,-0.02928,-0.0122,0.00488,-0.01952,-0.03904,-0.01952,0.54656,-0.01952,-0.57584,-0.03904
-0.03904,0.03172,-0.0244,-0.00488,0.01464,-0.02684,-0.03904,-0.01464,0.54656,-0.01464,-0.57096,-0.03904
-0.04392,0.03172,-0.01952,0.00244,0.0244,-0.03416,-0.03904,-0.01464,0.54656,-0.00976,-0.56608,-0.02928
-0.0488,0.03416,-0.01952,0.00488,0.02928,-0.03904,-0.03416,-0.01464,0.54656,-0.00488,-0.5612,-0.0244
-0.05368,0.0366,-0.01952,0.00732,0.03416,-0.04392,-0.03904,-0.00976,0.54656,-0.00488,-0.55632,-0.02928
-0.05368,0.0366,-0.01952,0.00732,0.03416,-0.04392,-0.03416,-0.00488,0.55144,0,-0.55632,-0.02928
-0.03416,0.02684,-0.01952,-0.00244,0.01464,-0.0244,-0.03416,0.00976,0.55632,0,-0.56608,-0.03416
-0.00976,0.0244,-0.03904,-0.03416,-0.02928,0.00976,-0.0244,0.07808,0.6344,0.00488,-0.5612,-0.04392
0.01952,-0.01952,0.01952,0.00976,0,0.00976,-0.04392,0.122,0.79544,0.13664,-0.50752,-0.00976
0.0976,-0.16348,0.22936,0.18056,0.13176,-0.01708,-0.17568,0.11224,0.96624,0.4148,-0.32208,0.122
0.24888,-0.44896,0.64904,0.5246,0.40016,-0.07564,-0.43432,0.0732,1.15656,0.87352,0.01952,0.3904
0.47336,-0.82472,1.17608,0.9394,0.70272,-0.11468,-0.74664,0.03904,1.50792,1.45912,0.48312,0.77592
0.732,-1.23464,1.73728,1.37128,1.00528,-0.13664,-1.10288,-0.04392,1.77144,2.06912,0.976,1.19072
0.95648,-1.5738,2.19112,1.71288,1.23464,-0.13908,-1.44448,-0.1708,1.77144,2.45464,1.32736,1.52744
1.02968,-1.63236,2.23504,1.7202,1.20536,-0.08784,-1.58112,-0.366,1.40544,2.19112,1.29808,1.62016
0.87352,-1.40544,1.93736,1.5006,1.06384,-0.09516,-1.46888,-0.62952,0.72712,1.49328,0.95648,1.44936
0.54168,-0.9272,1.31272,1.04188,0.77104,-0.11468,-1.13216,-0.8784,-0.09272,0.59048,0.3416,1.0248
0.20984,-0.47824,0.74664,0.64172,0.5368,-0.16348,-0.72712,-0.87352,-0.52704,-0.05368,-0.20008,0.57584
0.0732,-0.25864,0.44408,0.40748,0.37088,-0.14884,-0.50752,-0.67344,-0.35136,-0.14152,-0.3904,0.3416
0.01952,-0.21228,0.40504,0.39528,0.38552,-0.183,-0.40016,-0.49288,-0.02928,-0.01952,-0.35624,0.31232
-0.00976,-0.10492,0.2196,0.22448,0.22936,-0.11956,-0.2196,-0.2684,0.22448,-0.00976,-0.44896,0.16592
-0.05856,0.00976,0.03904,0.06832,0.0976,-0.07808,-0.04392,-0.11712,0.39528,-0.00488,-0.52216,0.03416
-0.06832,0.02196,0.0244,0.05856,0.09272,-0.08052,0,-0.03416,0.50752,0.03904,-0.53192,0.01952
-0.03904,-0.0122,0.06344,0.08296,0.10248,-0.07076,-0.0244,-0.00976,0.54168,0.05856,-0.53192,0.03904
-0.03416,-0.00244,0.03904,0.05612,0.0732,-0.05368,-0.01464,0.00976,0.55144,0.05856,-0.53192,0.02928
-0.03416,0.00732,0.01952,0.0366,0.05368,-0.04392,-0.00488,0.03904,0.58072,0.05368,-0.53192,0.0244
-0.03416,0.00732,0.01952,0.0366,0.05368,-0.04392,0,0.03904,0.60024,0.04392,-0.54656,0.01952
-0.03416,0.0122,0.00976,0.02684,0.04392,-0.03904,0,0.0488,0.60024,0.01464,-0.55144,0.01952
-0.03416,0.0122,0.00976,0.02684,0.04392,-0.03904,0.00488,0.0488,0.61488,0.00488,-0.55144,0.01464
-0.03416,0.0122,0.00976,0.02684,0.04392,-0.03904,0.00976,0.05856,0.62952,0.00488,-0.55632,0.01464
-0.03416,0.0122,0.00976,0.02684,0.04392,-0.03904,0.00976,0.05856,0.63928,0.00976,-0.57096,0.01464
-0.02928,0.00732,0.01464,0.02928,0.04392,-0.0366,0.00976,0.06344,0.64904,0.01464,-0.57096,0.01464
-0.03416,0.0122,0.00976,0.02684,0.04392,-0.03904,0.00488,0.06832,0.64904,0.03416,-0.56608,0.01952
-0.03904,0.01708,0.00488,0.0244,0.04392,-0.04148,0.00488,0.0732,0.66368,0.05856,-0.55632,0.0244
-0.02928,0.00976,0.00976,0.0244,0.03904,-0.03416,0.00488,0.07808,0.66368,0.08296,-0.55144,0.02928
-0.02928,0.00976,0.00976,0.0244,0.03904,-0.03416,0.00488,0.07808,0.66856,0.11712,-0.54656,0.02928
-0.0244,0.00488,0.01464,0.02684,0.03904,-0.03172,0.00488,0.08296,0.67832,0.12688,-0.5368,0.03416
-0.01952,-0.00244,0.0244,0.03416,0.04392,-0.03172,0.00488,0.08784,0.6832,0.13664,-0.51728,0.03416
-0.01464,-0.00732,0.02928,0.0366,0.04392,-0.02928,0.00488,0.09272,0.69296,0.1464,-0.51728,0.0488
-0.01464,-0.00732,0.02928,0.0366,0.04392,-0.02928,0.00488,0.0976,0.70272,0.13664,-0.5124,0.0488
-0.01464,-0.00732,0.02928,0.0366,0.04392,-0.02928,0.00488,0.0976,0.70272,0.12688,-0.5124,0.0488
-0.00976,-0.0122,0.03416,0.03904,0.04392,-0.02684,0.00488,0.10248,0.71736,0.10736,-0.5124,0.05368
-0.00488,-0.01464,0.03416,0.0366,0.03904,-0.02196,0,0.10248,0.72712,0.0976,-0.51728,0.05368
0,-0.01952,0.03904,0.03904,0.03904,-0.01952,-0.00488,0.11224,0.73688,0.08296,-0.51728,0.05368
0.00488,-0.0244,0.04392,0.04148,0.03904,-0.01708,-0.00488,0.11712,0.74664,0.0732,-0.51728,0.05856
0.00488,-0.0244,0.04392,0.04148,0.03904,-0.01708,-0.00488,0.122,0.7564,0.06832,-0.51728,0.06344
0.00488,-0.02928,0.05368,0.05124,0.0488,-0.02196,-0.00488,0.122,0.76616,0.06832,-0.51728,0.06344
0,-0.02928,0.05856,0.05856,0.05856,-0.02928,-0.00488,0.12688,0.7808,0.06832,-0.51728,0.06344
0.00488,-0.03416,0.06344,0.061,0.05856,-0.02684,-0.00488,0.13176,0.79056,0.08296,-0.51728,0.06344
0.00488,-0.0366,0.06832,0.06588,0.06344,-0.02928,-0.00488,0.13664,0.80032,0.10248,-0.5124,0.06832
0.00976,-0.04148,0.0732,0.06832,0.06344,-0.02684,-0.00488,0.13664,0.81008,0.122,-0.5124,0.06832
0.00976,-0.04148,0.0732,0.06832,0.06344,-0.02684,-0.00488,0.14152,0.8296,0.15128,-0.50752,0.0732
0.00976,-0.04392,0.07808,0.0732,0.06832,-0.02928,0,0.15128,0.84424,0.15616,-0.50264,0.07808
0.01464,-0.0488,0.08296,0.07564,0.06832,-0.02684,0,0.16592,0.86376,0.17568,-0.488,0.09272
0.01952,-0.05368,0.08784,0.07808,0.06832,-0.0244,0,0.17568,0.8784,0.1952,-0.47824,0.09272
0.01952,-0.05612,0.09272,0.08296,0.0732,-0.02684,0,0.18544,0.9028,0.21472,-0.46848,0.0976
0.03416,-0.06588,0.0976,0.08052,0.06344,-0.01464,0.00488,0.20496,0.91744,0.2196,-0.45384,0.0976
0.03904,-0.06832,0.0976,0.07808,0.05856,-0.00976,0.00976,0.20984,0.93208,0.23424,-0.44408,0.10248
0.04392,-0.07564,0.10736,0.0854,0.06344,-0.00976,0.01464,0.22936,0.95648,0.244,-0.43432,0.10736
0.04392,-0.0732,0.10248,0.08052,0.05856,-0.00732,0.01952,0.244,0.976,0.25376,-0.42944,0.11224
0.0488,-0.08296,0.11712,0.09272,0.06832,-0.00976,0.01464,0.25864,0.99552,0.2684,-0.41968,0.12688
0.0488,-0.0854,0.122,0.0976,0.0732,-0.0122,0.01464,0.27328,1.01504,0.28304,-0.40992,0.13176
0.0488,-0.09028,0.13176,0.10736,0.08296,-0.01708,0.01464,0.28304,1.0248,0.28792,-0.40992,0.13664
0.0488,-0.0976,0.1464,0.122,0.0976,-0.0244,0.01464,0.2928,1.03944,0.2928,-0.40504,0.15128
0.0488,-0.0976,0.1464,0.122,0.0976,-0.0244,0.01464,0.29768,1.04432,0.30256,-0.39528,0.15128
0.05368,-0.10248,0.15128,0.12444,0.0976,-0.02196,0.01464,0.30744,1.05408,0.30744,-0.39528,0.15616
0.05368,-0.10492,0.15616,0.12932,0.10248,-0.0244,0.01464,0.30744,1.05896,0.30744,-0.3904,0.16104
0.05368,-0.10492,0.15616,0.12932,0.10248,-0.0244,0.01464,0.30744,1.05896,0.30744,-0.3904,0.16104
0.05856,-0.10736,0.15616,0.12688,0.0976,-0.01952,0.01464,0.30744,1.05408,0.29768,-0.39528,0.16104
0.06344,-0.1098,0.15616,0.12444,0.09272,-0.01464,0.01464,0.30744,1.04432,0.2928,-0.39528,0.16104
0.06344,-0.1098,0.15616,0.12444,0.09272,-0.01464,0.00976,0.29768,1.0248,0.28792,-0.39528,0.16592
0.05368,-0.10492,0.15616,0.12932,0.10248,-0.0244,0.00976,0.28792,1.01016,0.27328,-0.40016,0.1708
0.05368,-0.10492,0.15616,0.12932,0.10248,-0.0244,0.00488,0.2684,0.98576,0.26352,-0.40504,0.1708
0.04392,-0.0976,0.15128,0.12932,0.10736,-0.03172,0,0.24888,0.96136,0.25376,-0.40504,0.1708
0.04392,-0.0976,0.15128,0.12932,0.10736,-0.03172,-0.00488,0.2196,0.9272,0.23912,-0.40992,0.1708
0.03904,-0.09516,0.15128,0.13176,0.11224,-0.0366,-0.00976,0.1952,0.89792,0.2196,-0.40992,0.1708
0.03416,-0.09272,0.15128,0.1342,0.11712,-0.04148,-0.01464,0.16104,0.85888,0.20984,-0.4148,0.17568
0.0244,-0.08784,0.15128,0.13908,0.12688,-0.05124,-0.02928,0.13664,0.82472,0.20008,-0.4148,0.17568
0.0244,-0.08296,0.14152,0.12932,0.11712,-0.04636,-0.03416,0.10736,0.79056,0.18056,-0.42456,0.1708
0.01464,-0.07564,0.13664,0.12932,0.122,-0.05368,-0.04392,0.08296,0.75152,0.17568,-0.42944,0.16592
0.00976,-0.06588,0.122,0.11712,0.11224,-0.05124,-0.04392,0.05368,0.72224,0.16104,-0.4392,0.16104
0.00488,-0.05856,0.11224,0.1098,0.10736,-0.05124,-0.0488,0.03416,0.69784,0.1464,-0.44896,0.16104
-0.00488,-0.0488,0.10248,0.10492,0.10736,-0.05612,-0.05856,0.01952,0.67344,0.13176,-0.45872,0.15128
-0.00488,-0.04392,0.09272,0.09516,0.0976,-0.05124,-0.05856,0.00488,0.64904,0.11712,-0.46848,0.14152
-0.01952,-0.02684,0.0732,0.08296,0.09272,-0.05612,-0.05856,-0.00976,0.61976,0.11224,-0.47824,0.13176
-0.01952,-0.02196,0.06344,0.0732,0.08296,-0.05124,-0.05856,-0.01952,0.60024,0.10248,-0.48312,0.122
-0.02928,-0.0122,0.05368,0.06832,0.08296,-0.05612,-0.05368,-0.02928,0.59048,0.08784,-0.488,0.11712
-0.03416,0,0.03416,0.05124,0.06832,-0.05124,-0.0488,-0.02928,0.58072,0.07808,-0.48312,0.11712
-0.03416,0.00244,0.02928,0.04636,0.06344,-0.0488,-0.0488,-0.03904,0.5612,0.06832,-0.49288,0.11712
-0.03904,0.00976,0.01952,0.03904,0.05856,-0.0488,-0.0488,-0.0488,0.55144,0.06344,-0.49776,0.11224
-0.0488,0.01708,0.01464,0.03904,0.06344,-0.05612,-0.0488,-0.0488,0.54168,0.05856,-0.49776,0.10736
-0.05368,0.0244,0.00488,0.03172,0.05856,-0.05612,-0.0488,-0.05368,0.53192,0.05368,-0.49776,0.10248
-0.05368,0.0244,0.00488,0.03172,0.05856,-0.05612,-0.05368,-0.05856,0.52704,0.0488,-0.50752,0.10248
-0.05368,0.02684,0,0.02684,0.05368,-0.05368,-0.05856,-0.05856,0.52704,0.04392,-0.5124,0.10248
-0.05368,0.02928,-0.00488,0.02196,0.0488,-0.05124,-0.05368,-0.05856,0.52216,0.04392,-0.50752,0.0976
-0.05368,0.03172,-0.00976,0.01708,0.04392,-0.0488,-0.05368,-0.05856,0.51728,0.05368,-0.50264,0.10248
-0.05368,0.03172,-0.00976,0.01708,0.04392,-0.0488,-0.05368,-0.05856,0.5124,0.06344,-0.50264,0.0976
-0.05368,0.03172,-0.00976,0.01708,0.04392,-0.0488,-0.05368,-0.05856,0.5124,0.06832,-0.49776,0.0976
-0.05368,0.03172,-0.00976,0.01708,0.04392,-0.0488,-0.05368,-0.05856,0.5124,0.05856,-0.50264,0.10248
-0.05368,0.03416,-0.01464,0.0122,0.03904,-0.04636,-0.0488,-0.05368,0.5124,0.0488,-0.50264,0.0976
-0.05856,0.0366,-0.01464,0.01464,0.04392,-0.05124,-0.0488,-0.0488,0.50752,0.03416,-0.50264,0.0976
-0.05856,0.04148,-0.0244,0.00488,0.03416,-0.04636,-0.0488,-0.04392,0.50264,0.0244,-0.50752,0.0976
-0.05856,0.04148,-0.0244,0.00488,0.03416,-0.04636,-0.04392,-0.04392,0.50264,0.00976,-0.51728,0.09272
-0.05856,0.04392,-0.02928,0,0.02928,-0.04392,-0.04392,-0.03904,0.50264,0,-0.52216,0.09272
-0.05368,0.04148,-0.02928,-0.00244,0.0244,-0.03904,-0.04392,-0.03416,0.50264,-0.00976,-0.52216,0.09272
-0.0488,0.0366,-0.0244,0,0.0244,-0.0366,-0.04392,-0.02928,0.5124,0,-0.52216,0.09272
-0.04392,0.03172,-0.01952,0.00244,0.0244,-0.03416,-0.04392,-0.02928,0.5124,0.00976,-0.52216,0.09272
-0.03904,0.0244,-0.00976,0.00976,0.02928,-0.03416,-0.04392,-0.01952,0.52216,0.01464,-0.52216,0.0976
-0.03904,0.0244,-0.00976,0.00976,0.02928,-0.03416,-0.04392,-0.01952,0.52704,0.0244,-0.51728,0.0976
-0.03904,0.0244,-0.00976,0.00976,0.02928,-0.03416,-0.04392,-0.01464,0.53192,0.02928,-0.50752,0.10248
-0.04392,0.02684,-0.00976,0.0122,0.03416,-0.03904,-0.04392,-0.01464,0.53192,0.03904,-0.50264,0.10248
-0.0488,0.02928,-0.00976,0.01464,0.03904,-0.04392,-0.04392,-0.00976,0.5368,0.04392,-0.49776,0.10736
-0.04392,0.0244,-0.00488,0.01708,0.03904,-0.04148,-0.04392,-0.00976,0.53192,0.04392,-0.49288,0.10736
-0.04392,0.02196,0,0.02196,0.04392,-0.04392,-0.04392,-0.00488,0.5368,0.0488,-0.488,0.11224
-0.03416,0.01464,0.00488,0.02196,0.03904,-0.0366,-0.04392,-0.00488,0.54168,0.05856,-0.47824,0.11224
-0.02928,0.00976,0.00976,0.0244,0.03904,-0.03416,-0.04392,-0.00488,0.54656,0.06344,-0.47336,0.11224
-0.0244,0.00732,0.00976,0.02196,0.03416,-0.02928,-0.0488,-0.00488,0.55144,0.06832,-0.4636,0.11712
-0.01952,0.00244,0.01464,0.0244,0.03416,-0.02684,-0.0488,-0.00488,0.55144,0.0732,-0.4636,0.11712
-0.01952,0.00488,0.00976,0.01952,0.02928,-0.0244,-0.0488,-0.00488,0.55144,0.06832,-0.45872,0.122
-0.01952,0.00488,0.00976,0.01952,0.02928,-0.0244,-0.0488,-0.00976,0.55632,0.06832,-0.45872,0.12688
-0.0244,0.00732,0.00976,0.02196,0.03416,-0.02928,-0.0488,-0.00976,0.55632,0.06832,-0.45384,0.12688
-0.02928,0.00976,0.00976,0.0244,0.03904,-0.03416,-0.0488,-0.00976,0.55632,0.06832,-0.44896,0.12688
-0.02928,0.00976,0.00976,0.0244,0.03904,-0.03416,-0.0488,-0.00976,0.55632,0.06832,-0.44896,0.12688
-0.02928,0.00976,0.00976,0.0244,0.03904,-0.03416,-0.0488,-0.00976,0.55144,0.06832,-0.44896,0.12688
-0.02928,0.00976,0.00976,0.0244,0.03904,-0.03416,-0.0488,-0.00976,0.55144,0.06832,-0.44896,0.12688
-0.02928,0.00976,0.00976,0.0244,0.03904,-0.03416,-0.0488,-0.00976,0.54656,0.05856,-0.45384,0.12688
-0.02928,0.00976,0.00976,0.0244,0.03904,-0.03416,-0.0488,-0.00976,0.54168,0.05368,-0.45384,0.12688
-0.0244,0.00488,0.01464,0.02684,0.03904,-0.03172,-0.0488,-0.01464,0.5368,0.0488,-0.45384,0.12688
-0.0244,0.00488,0.01464,0.02684,0.03904,-0.03172,-0.05368,-0.01952,0.52216,0.04392,-0.4636,0.122
-0.02928,0.00976,0.00976,0.0244,0.03904,-0.03416,-0.05856,-0.01952,0.51728,0.03904,-0.4636,0.122
-0.02928,0.00976,0.00976,0.0244,0.03904,-0.03416,-0.05856,-0.01952,0.50752,0.01952,-0.4636,0.11712
-0.02928,0.00976,0.00976,0.0244,0.03904,-0.03416,-0.05856,-0.01952,0.50752,0.00976,-0.4636,0.11712
-0.02928,0.00732,0.01464,0.02928,0.04392,-0.0366,-0.05856,-0.01952,0.49776,0.00976,-0.4636,0.11712
-0.02928,0.00488,0.01952,0.03416,0.0488,-0.03904,-0.05856,-0.01952,0.49776,0.00976,-0.4636,0.11712
-0.0244,-0.00488,0.03416,0.04636,0.05856,-0.04148,-0.05368,-0.0244,0.50264,0.01464,-0.4636,0.11712
-0.01952,-0.01464,0.0488,0.05856,0.06832,-0.04392,-0.0488,-0.0244,0.50752,0.01952,-0.45872,0.122
-0.01952,-0.0122,0.04392,0.05368,0.06344,-0.04148,-0.04392,-0.0244,0.5124,0.01952,-0.45872,0.12688
-0.01952,-0.0122,0.04392,0.05368,0.06344,-0.04148,-0.03416,-0.01952,0.5124,0.01952,-0.44896,0.12688
-0.0244,-0.00976,0.04392,0.05612,0.06832,-0.04636,-0.0244,-0.01464,0.50752,0.01952,-0.44408,0.13176
-0.0244,-0.0122,0.0488,0.061,0.0732,-0.0488,-0.01952,-0.01464,0.50752,0.0244,-0.4392,0.13176
-0.02928,-0.0122,0.05368,0.06832,0.08296,-0.05612,-0.01952,-0.01464,0.50264,0.01952,-0.4392,0.13176
-0.03416,-0.01708,0.06832,0.0854,0.10248,-0.06832,-0.0244,-0.01464,0.50752,0.02928,-0.43432,0.14152
-0.01952,-0.03416,0.08784,0.0976,0.10736,-0.06344,-0.04392,-0.01464,0.50752,0.04392,-0.41968,0.1464
-0.01464,-0.0488,0.11224,0.11956,0.12688,-0.07076,-0.06344,-0.03416,0.50752,0.05368,-0.40016,0.16592
0,-0.061,0.122,0.122,0.122,-0.061,-0.07808,-0.04392,0.50752,0.05856,-0.3904,0.16592
0.00976,-0.07076,0.13176,0.12688,0.122,-0.05612,-0.08296,-0.0488,0.50752,0.06344,-0.38064,0.17568
0.0244,-0.08296,0.14152,0.12932,0.11712,-0.04636,-0.08784,-0.0488,0.50264,0.06344,-0.38064,0.17568
0.03416,-0.09516,0.15616,0.13908,0.122,-0.04392,-0.0976,-0.0488,0.50264,0.05856,-0.366,0.18544
0.03416,-0.0976,0.16104,0.14396,0.12688,-0.04636,-0.10248,-0.05856,0.49288,0.05856,-0.366,0.18544
0.02928,-0.0976,0.16592,0.15128,0.13664,-0.05368,-0.11224,-0.06832,0.488,0.05368,-0.366,0.18544
0.02928,-0.08784,0.1464,0.13176,0.11712,-0.04392,-0.11224,-0.06832,0.46848,0.04392,-0.37576,0.18056
0.01952,-0.07808,0.13664,0.12688,0.11712,-0.0488,-0.10736,-0.06832,0.4636,0.03904,-0.37576,0.17568
0.01464,-0.05612,0.0976,0.09028,0.08296,-0.03416,-0.0976,-0.05856,0.4636,0.0244,-0.3904,0.16104
-0.00488,-0.0366,0.07808,0.08052,0.08296,-0.04392,-0.0732,-0.05368,0.4636,0.01952,-0.39528,0.15128
-0.01464,-0.02196,0.05856,0.06588,0.0732,-0.04392,-0.06344,-0.0488,0.45384,0.00488,-0.40504,0.13664
-0.03416,0.00244,0.02928,0.04636,0.06344,-0.0488,-0.05856,-0.0488,0.44896,-0.00488,-0.4148,0.11712
-0.03904,0.0122,0.01464,0.03416,0.05368,-0.04636,-0.05856,-0.0488,0.4392,-0.00976,-0.42456,0.10736
-0.04392,0.01708,0.00976,0.03172,0.05368,-0.0488,-0.0488,-0.0488,0.42944,-0.01464,-0.43432,0.10248
-0.04392,0.01952,0.00488,0.02684,0.0488,-0.04636,-0.04392,-0.0488,0.41968,-0.01464,-0.4392,0.09272
-0.04392,0.0244,-0.00488,0.01708,0.03904,-0.04148,-0.03904,-0.0488,0.4148,-0.01952,-0.44896,0.09272
-0.03416,0.02196,-0.00976,0.00732,0.0244,-0.02928,-0.03904,-0.0488,0.40992,-0.01952,-0.44896,0.08296
-0.02928,0.01708,-0.00488,0.00976,0.0244,-0.02684,-0.03904,-0.04392,0.40992,-0.01464,-0.44408,0.07808
-0.02928,0.01464,0,0.01464,0.02928,-0.02928,-0.03904,-0.04392,0.40992,-0.00976,-0.4392,0.08296
-0.02928,0.01464,0,0.01464,0.02928,-0.02928,-0.03416,-0.04392,0.40992,-0.00488,-0.43432,0.08296
-0.03416,0.01708,0,0.01708,0.03416,-0.03416,-0.03416,-0.03904,0.40992,-0.00488,-0.42944,0.07808
-0.03416,0.01708,0,0.01708,0.03416,-0.03416,-0.0244,-0.03416,0.4148,0,-0.42944,0.07808
-0.04392,0.02928,-0.01464,0.00732,0.02928,-0.0366,-0.01952,-0.0244,0.40504,-0.01464,-0.44896,0.06344
-0.0488,0.0488,-0.0488,-0.0244,0,-0.0244,-0.00488,0.03904,0.46848,-0.0244,-0.45384,0.04392
-0.01952,0.01464,-0.00976,0,0.00976,-0.01464,-0.00488,0.09272,0.62464,0.0732,-0.41968,0.05856
0.05856,-0.11956,0.18056,0.15128,0.122,-0.03172,-0.11712,0.09272,0.79056,0.3172,-0.25376,0.1708
0.21472,-0.38796,0.5612,0.45384,0.34648,-0.06588,-0.366,0.06344,0.95648,0.73688,0.05856,0.42456
0.44408,-0.74664,1.0492,0.82716,0.60512,-0.08052,-0.66856,0.03904,1.28344,1.28344,0.49288,0.79544
0.71248,-1.17852,1.64456,1.28832,0.93208,-0.1098,-1.0492,-0.04392,1.586,1.93736,1.01992,1.22488
0.94672,-1.53964,2.13256,1.6592,1.18584,-0.11956,-1.4152,-0.1708,1.62504,2.3668,1.40544,1.57624
1.07848,-1.6714,2.26432,1.72508,1.18584,-0.05368,-1.60552,-0.35624,1.31272,2.19112,1.44448,1.7324
0.98088,-1.51768,2.05448,1.56404,1.0736,-0.04636,-1.54696,-0.61,0.68808,1.58112,1.1712,1.62504
0.61,-1.00772,1.40544,1.10044,0.79544,-0.09272,-1.21512,-0.91256,-0.20496,0.62464,0.53192,1.17608
0.23912,-0.52704,0.81496,0.6954,0.57584,-0.16836,-0.81496,-0.96136,-0.71248,-0.0732,-0.03416,0.70272
0.0976,-0.30256,0.50752,0.45872,0.40992,-0.15616,-0.57584,-0.75152,-0.5368,-0.16104,-0.23424,0.45872
0.03904,-0.25132,0.4636,0.44408,0.42456,-0.19276,-0.44896,-0.5612,-0.21472,-0.03904,-0.20984,0.41968
0.00976,-0.14396,0.27816,0.27328,0.2684,-0.12932,-0.25864,-0.3172,0.0488,-0.02928,-0.31232,0.26352
-0.03904,-0.02928,0.0976,0.11712,0.13664,-0.08784,-0.0732,-0.1464,0.22936,-0.0244,-0.39528,0.122
-0.05368,0,0.05368,0.08052,0.10736,-0.08052,-0.01952,-0.06344,0.35624,0.0244,-0.40504,0.0976
-0.02928,-0.01708,0.06344,0.07808,0.09272,-0.061,-0.03416,-0.03904,0.40504,0.0488,-0.40504,0.10736
-0.0244,-0.0122,0.0488,0.061,0.0732,-0.0488,-0.0244,-0.01464,0.40992,0.05368,-0.40504,0.09272
-0.0244,-0.00732,0.03904,0.05124,0.06344,-0.04392,-0.01464,0.01952,0.43432,0.05368,-0.40504,0.08296
-0.0244,-0.00732,0.03904,0.05124,0.06344,-0.04392,-0.00976,0.01952,0.45384,0.04392,-0.4148,0.07808
-0.0244,-0.00244,0.02928,0.04148,0.05368,-0.03904,-0.00976,0.02928,0.45384,0.01464,-0.4148,0.07808
-0.0244,-0.00244,0.02928,0.04148,0.05368,-0.03904,0,0.03416,0.46848,0.00488,-0.4148,0.06832
-0.0244,-0.00244,0.02928,0.04148,0.05368,-0.03904,0.00976,0.0488,0.48312,0.00488,-0.41968,0.06344
-0.02928,0,0.02928,0.04392,0.05856,-0.04392,0.00976,0.04392,0.49288,0.00976,-0.43432,0.05856
-0.02928,-0.00244,0.03416,0.0488,0.06344,-0.04636,0.00976,0.04392,0.50264,0.01464,-0.43432,0.05368
-0.02928,-0.00244,0.03416,0.0488,0.06344,-0.04636,0.00488,0.0488,0.50264,0.0244,-0.42944,0.05368
-0.02928,-0.00244,0.03416,0.0488,0.06344,-0.04636,0.00488,0.05368,0.51728,0.03904,-0.41968,0.05368
-0.01952,-0.00976,0.03904,0.0488,0.05856,-0.03904,0,0.05856,0.51728,0.06344,-0.4148,0.05856
-0.01952,-0.00976,0.03904,0.0488,0.05856,-0.03904,-0.00488,0.05856,0.52216,0.0976,-0.40992,0.05856
-0.01952,-0.00976,0.03904,0.0488,0.05856,-0.03904,-0.00488,0.06344,0.53192,0.10248,-0.40016,0.06344
-0.01952,-0.0122,0.04392,0.05368,0.06344,-0.04148,-0.00488,0.06832,0.5368,0.10736,-0.38064,0.06344
-0.01464,-0.01464,0.04392,0.05124,0.05856,-0.0366,-0.00488,0.0732,0.54656,0.122,-0.38064,0.0732
-0.01464,-0.0122,0.03904,0.04636,0.05368,-0.03416,-0.00488,0.07808,0.55632,0.11712,-0.37576,0.06832
-0.01464,-0.0122,0.03904,0.04636,0.05368,-0.03416,-0.00488,0.07808,0.55632,0.11224,-0.37576,0.06344
-0.00976,-0.01708,0.04392,0.0488,0.05368,-0.03172,-0.00488,0.08296,0.57096,0.0976,-0.37576,0.06344
-0.00976,-0.01708,0.04392,0.0488,0.05368,-0.03172,-0.00488,0.08296,0.58072,0.09272,-0.38552,0.06344
-0.00976,-0.01952,0.0488,0.05368,0.05856,-0.03416,-0.00488,0.09272,0.59048,0.08296,-0.3904,0.06344
-0.00488,-0.0244,0.05368,0.05612,0.05856,-0.03172,-0.00488,0.0976,0.60024,0.0732,-0.3904,0.06344
-0.00488,-0.0244,0.05368,0.05612,0.05856,-0.03172,-0.00488,0.10248,0.61,0.06832,-0.3904,0.06344
-0.00488,-0.02684,0.05856,0.061,0.06344,-0.03416,-0.00488,0.10736,0.61488,0.06832,-0.3904,0.05856
-0.00976,-0.0244,0.05856,0.06344,0.06832,-0.03904,-0.00488,0.11712,0.62464,0.06832,-0.3904,0.05368
-0.00488,-0.02928,0.06344,0.06588,0.06832,-0.0366,-0.00488,0.11712,0.6344,0.08296,-0.39528,0.05368
-0.00488,-0.03172,0.06832,0.07076,0.0732,-0.03904,-0.00488,0.11712,0.64416,0.10248,-0.39528,0.05856
0.00488,-0.04392,0.08296,0.08052,0.07808,-0.0366,-0.00488,0.122,0.65392,0.11712,-0.39528,0.05856
0.00976,-0.05124,0.09272,0.08784,0.08296,-0.0366,-0.00488,0.13176,0.67344,0.14152,-0.3904,0.06344
0.00976,-0.05368,0.0976,0.09272,0.08784,-0.03904,0.00488,0.14152,0.68808,0.15128,-0.38552,0.05856
0.01464,-0.05856,0.10248,0.09516,0.08784,-0.0366,0.00976,0.15616,0.7076,0.17568,-0.37088,0.06344
0.01952,-0.06344,0.10736,0.0976,0.08784,-0.03416,0.00976,0.16592,0.72224,0.19032,-0.36112,0.06344
0.01952,-0.06588,0.11224,0.10248,0.09272,-0.0366,0.00976,0.17568,0.74664,0.20496,-0.35136,0.06832
0.02928,-0.07076,0.11224,0.0976,0.08296,-0.02684,0.00976,0.1952,0.76128,0.20984,-0.33672,0.06832
0.02928,-0.06832,0.10736,0.09272,0.07808,-0.0244,0.00976,0.20008,0.77592,0.22448,-0.32696,0.0732
0.03416,-0.07808,0.122,0.10492,0.08784,-0.02684,0.01464,0.2196,0.8052,0.23424,-0.3172,0.07808
0.03416,-0.07808,0.122,0.10492,0.08784,-0.02684,0.01952,0.23424,0.8296,0.244,-0.31232,0.08296
0.03904,-0.0854,0.13176,0.11224,0.09272,-0.02684,0.01952,0.24888,0.84912,0.25376,-0.30256,0.09272
0.03904,-0.0854,0.13176,0.11224,0.09272,-0.02684,0.0244,0.26352,0.86864,0.26352,-0.2928,0.09272
0.04392,-0.09028,0.13664,0.11468,0.09272,-0.0244,0.0244,0.27816,0.8784,0.2684,-0.29768,0.08784
0.0488,-0.0976,0.1464,0.122,0.0976,-0.0244,0.0244,0.2928,0.89304,0.27328,-0.29768,0.09272
0.05368,-0.10492,0.15616,0.12932,0.10248,-0.0244,0.01952,0.29768,0.89792,0.27816,-0.28792,0.09272
0.06344,-0.11712,0.1708,0.13908,0.10736,-0.02196,0.01464,0.30744,0.90768,0.27816,-0.28792,0.0976
0.06344,-0.11956,0.17568,0.14396,0.11224,-0.0244,0.01464,0.30744,0.91256,0.27816,-0.27816,0.10248
0.06344,-0.11956,0.17568,0.14396,0.11224,-0.0244,0.01464,0.30744,0.91256,0.27816,-0.27328,0.10248
0.05856,-0.11468,0.1708,0.14152,0.11224,-0.02684,0.01464,0.30744,0.90768,0.2684,-0.27816,0.10248
0.05368,-0.1098,0.16592,0.13908,0.11224,-0.02928,0.01464,0.30744,0.89792,0.26352,-0.27816,0.10248
0.05368,-0.1098,0.16592,0.13908,0.11224,-0.02928,0.00976,0.29768,0.88328,0.25864,-0.27328,0.10248
0.04392,-0.10492,0.16592,0.14396,0.122,-0.03904,0.00976,0.28792,0.87352,0.244,-0.27328,0.10248
0.04392,-0.1098,0.17568,0.15372,0.13176,-0.04392,0.00488,0.2684,0.84912,0.23912,-0.27816,0.10248
0.03416,-0.10736,0.18056,0.16348,0.1464,-0.05612,0,0.24888,0.82472,0.23424,-0.27816,0.10248
0.03416,-0.10736,0.18056,0.16348,0.1464,-0.05612,-0.00488,0.21472,0.79056,0.22448,-0.28304,0.0976
0.02928,-0.10492,0.18056,0.16592,0.15128,-0.061,-0.00976,0.18544,0.76128,0.20984,-0.28304,0.09272
0.0244,-0.10248,0.18056,0.16836,0.15616,-0.06588,-0.01464,0.15128,0.72224,0.20008,-0.28792,0.09272
0.01464,-0.0976,0.18056,0.17324,0.16592,-0.07564,-0.02928,0.12688,0.68808,0.19032,-0.28792,0.08784
0.01952,-0.09516,0.1708,0.16104,0.15128,-0.06588,-0.03416,0.0976,0.65392,0.1708,-0.29768,0.08296
0.01464,-0.09028,0.16592,0.1586,0.15128,-0.06832,-0.04392,0.0732,0.61488,0.16592,-0.30256,0.07808
0.00976,-0.08052,0.15128,0.1464,0.14152,-0.06588,-0.04392,0.04392,0.5856,0.15128,-0.30744,0.06832
0.00488,-0.0732,0.14152,0.13908,0.13664,-0.06588,-0.0488,0.0244,0.5612,0.13664,-0.31232,0.06344
-0.01464,-0.05368,0.122,0.12932,0.13664,-0.07564,-0.05856,0.00488,0.53192,0.122,-0.32208,0.05368
-0.0244,-0.03904,0.10248,0.11468,0.12688,-0.07564,-0.05856,-0.01464,0.50264,0.10736,-0.33184,0.04392
-0.03904,-0.02196,0.08296,0.10248,0.122,-0.08052,-0.05856,-0.0244,0.47824,0.0976,-0.3416,0.02928
-0.03904,-0.01708,0.0732,0.09272,0.11224,-0.07564,-0.05856,-0.02928,0.4636,0.08296,-0.34648,0.01464
-0.03904,-0.01464,0.06832,0.08784,0.10736,-0.0732,-0.05368,-0.04392,0.45384,0.06832,-0.35624,0.00976
-0.03416,-0.00976,0.05368,0.07076,0.08784,-0.061,-0.0488,-0.0488,0.44408,0.05856,-0.35624,0.00976
-0.03416,-0.00732,0.0488,0.06588,0.08296,-0.05856,-0.0488,-0.05856,0.42456,0.0488,-0.366,0.00488
-0.03904,0,0.03904,0.05856,0.07808,-0.05856,-0.0488,-0.06832,0.4148,0.04392,-0.37088,-0.00488
-0.0488,0.00488,0.03904,0.06344,0.08784,-0.06832,-0.0488,-0.06832,0.40504,0.03904,-0.366,-0.00488
-0.05368,0.00976,0.03416,0.061,0.08784,-0.07076,-0.0488,-0.0732,0.39528,0.03416,-0.36112,-0.00488
-0.05368,0.00976,0.03416,0.061,0.08784,-0.07076,-0.0488,-0.07808,0.3904,0.03416,-0.37088,-0.00488
-0.05368,0.0122,0.02928,0.05612,0.08296,-0.06832,-0.0488,-0.07808,0.3904,0.03416,-0.37576,-0.00488
-0.05368,0.01464,0.0244,0.05124,0.07808,-0.06588,-0.04392,-0.07808,0.38552,0.03416,-0.37088,-0.00976
-0.05368,0.01708,0.01952,0.04636,0.0732,-0.06344,-0.04392,-0.07808,0.38064,0.04392,-0.366,-0.00488
-0.05368,0.01952,0.01464,0.04148,0.06832,-0.061,-0.04392,-0.07808,0.37576,0.05368,-0.366,-0.00976
-0.05368,0.02196,0.00976,0.0366,0.06344,-0.05856,-0.04392,-0.07808,0.37576,0.05856,-0.36112,-0.00976
-0.05368,0.02196,0.00976,0.0366,0.06344,-0.05856,-0.04392,-0.07808,0.37576,0.0488,-0.366,-0.00488
-0.05368,0.0244,0.00488,0.03172,0.05856,-0.05612,-0.03904,-0.0732,0.37576,0.03904,-0.366,-0.00976
-0.05856,0.02684,0.00488,0.03416,0.06344,-0.061,-0.03904,-0.0732,0.37576,0.0244,-0.37088,-0.00976
-0.05856,0.03172,-0.00488,0.0244,0.05368,-0.05612,-0.03904,-0.0732,0.37576,0.01464,-0.38064,-0.00976
-0.05856,0.03172,-0.00488,0.0244,0.05368,-0.05612,-0.03416,-0.0732,0.37576,0.00488,-0.38552,-0.01464
-0.05856,0.03416,-0.00976,0.01952,0.0488,-0.05368,-0.03416,-0.06832,0.37576,0,-0.38552,-0.01464
-0.05856,0.0366,-0.01464,0.01464,0.04392,-0.05124,-0.03416,-0.06832,0.37088,-0.01952,-0.3904,-0.01464
-0.05856,0.0366,-0.01464,0.01464,0.04392,-0.05124,-0.03416,-0.06832,0.37576,-0.01952,-0.39528,-0.01464
-0.05856,0.0366,-0.01464,0.01464,0.04392,-0.05124,-0.02928,-0.06832,0.37576,-0.00976,-0.39528,-0.01464
-0.05856,0.03416,-0.00976,0.01952,0.0488,-0.05368,-0.0244,-0.05856,0.38552,-0.00488,-0.39528,-0.00976
-0.05368,0.03172,-0.00976,0.01708,0.04392,-0.0488,-0.0244,-0.05368,0.39528,0.01464,-0.39528,0
-0.0488,0.02928,-0.00976,0.01464,0.03904,-0.04392,-0.0244,-0.04392,0.40504,0.02928,-0.3904,0.01464
-0.04392,0.0244,-0.00488,0.01708,0.03904,-0.04148,-0.0244,-0.04392,0.40504,0.03904,-0.38552,0.01464
-0.03904,0.01952,0,0.01952,0.03904,-0.03904,-0.0244,-0.03904,0.40992,0.04392,-0.38064,0.01952
-0.03416,0.01464,0.00488,0.02196,0.03904,-0.0366,-0.0244,-0.03904,0.40504,0.0488,-0.37576,0.01952
-0.03416,0.0122,0.00976,0.02684,0.04392,-0.03904,-0.0244,-0.03416,0.40992,0.05856,-0.37088,0.0244
-0.02928,0.00976,0.00976,0.0244,0.03904,-0.03416,-0.0244,-0.02928,0.4148,0.06832,-0.36112,0.0244
-0.02928,0.00976,0.00976,0.0244,0.03904,-0.03416,-0.0244,-0.0244,0.41968,0.0732,-0.35624,0.0244
-0.02928,0.00976,0.00976,0.0244,0.03904,-0.03416,-0.02928,-0.0244,0.42456,0.07808,-0.34648,0.02928
-0.02928,0.00732,0.01464,0.02928,0.04392,-0.0366,-0.02928,-0.0244,0.42456,0.07808,-0.3416,0.02928
-0.02928,0.00732,0.01464,0.02928,0.04392,-0.0366,-0.02928,-0.0244,0.42944,0.07808,-0.3416,0.03416
-0.02928,0.00732,0.01464,0.02928,0.04392,-0.0366,-0.02928,-0.02928,0.43432,0.08296,-0.33672,0.03904
-0.02928,0.00732,0.01464,0.02928,0.04392,-0.0366,-0.02928,-0.02928,0.4392,0.07808,-0.33672,0.04392
-0.02928,0.00732,0.01464,0.02928,0.04392,-0.0366,-0.02928,-0.02928,0.4392,0.0732,-0.33672,0.0488
-0.02928,0.00732,0.01464,0.02928,0.04392,-0.0366,-0.02928,-0.02928,0.43432,0.0732,-0.3416,0.04392
-0.02928,0.00732,0.01464,0.02928,0.04392,-0.0366,-0.0244,-0.02928,0.42944,0.0732,-0.34648,0.04392
-0.0244,0.00732,0.00976,0.02196,0.03416,-0.02928,-0.0244,-0.0244,0.42944,0.0732,-0.34648,0.04392
-0.01952,0.00488,0.00976,0.01952,0.02928,-0.0244,-0.02928,-0.01952,0.42944,0.07808,-0.35136,0.0488
-0.01952,0.00488,0.00976,0.01952,0.02928,-0.0244,-0.03416,-0.01952,0.41968,0.07808,-0.35136,0.0488
-0.01952,0.00488,0.00976,0.01952,0.02928,-0.0244,-0.03904,-0.01952,0.40992,0.07808,-0.35136,0.0488
-0.01952,0.00488,0.00976,0.01952,0.02928,-0.0244,-0.03904,-0.0244,0.40992,0.07808,-0.35136,0.0488
-0.01952,0.00488,0.00976,0.01952,0.02928,-0.0244,-0.03904,-0.0244,0.40504,0.07808,-0.34648,0.0488
-0.01952,0.00244,0.01464,0.0244,0.03416,-0.02684,-0.03904,-0.02928,0.40504,0.08296,-0.34648,0.0488
-0.01952,0,0.01952,0.02928,0.03904,-0.02928,-0.03904,-0.02928,0.40016,0.07808,-0.34648,0.0488
-0.01464,-0.00244,0.01952,0.02684,0.03416,-0.0244,-0.03416,-0.01952,0.40016,0.08296,-0.3416,0.05368
-0.00488,-0.00976,0.0244,0.02684,0.02928,-0.01708,-0.02928,-0.01464,0.40016,0.08784,-0.33672,0.05856
-0.00488,-0.00976,0.0244,0.02684,0.02928,-0.01708,-0.02928,-0.01952,0.3904,0.08784,-0.3416,0.05368
-0.00976,-0.00488,0.01952,0.0244,0.02928,-0.01952,-0.02928,-0.01952,0.3904,0.08784,-0.33672,0.05368
-0.00976,-0.00488,0.01952,0.0244,0.02928,-0.01952,-0.02928,-0.01464,0.38552,0.07808,-0.33672,0.05368
-0.00976,-0.00488,0.01952,0.0244,0.02928,-0.01952,-0.02928,-0.00976,0.3904,0.07808,-0.33672,0.05856
-0.00976,-0.00244,0.01464,0.01952,0.0244,-0.01708,-0.02928,-0.00976,0.38064,0.07808,-0.33184,0.05856
-0.00976,0,0.00976,0.01464,0.01952,-0.01464,-0.02928,-0.00976,0.38064,0.07808,-0.32696,0.05856
-0.00976,0,0.00976,0.01464,0.01952,-0.01464,-0.0244,-0.01464,0.38064,0.08296,-0.32696,0.05856
-0.00976,0,0.00976,0.01464,0.01952,-0.01464,-0.01952,-0.01464,0.38064,0.08784,-0.32208,0.06344
-0.00976,-0.00244,0.01464,0.01952,0.0244,-0.01708,-0.01464,-0.00976,0.38552,0.0976,-0.32208,0.0732
-0.00976,-0.00732,0.0244,0.02928,0.03416,-0.02196,-0.00488,0,0.38552,0.10736,-0.31232,0.07808
-0.01464,-0.00488,0.0244,0.03172,0.03904,-0.02684,0.00488,0.00488,0.38552,0.10736,-0.30744,0.08296
-0.01464,-0.00732,0.02928,0.0366,0.04392,-0.02928,0.00976,0.00488,0.3904,0.11224,-0.30256,0.08296
-0.00976,-0.0122,0.03416,0.03904,0.04392,-0.02684,0.00976,0.00488,0.38552,0.10736,-0.29768,0.08296
-0.00488,-0.02196,0.0488,0.05124,0.05368,-0.02928,0.00488,0.00488,0.3904,0.11712,-0.28792,0.09272
0.00976,-0.03904,0.06832,0.06344,0.05856,-0.0244,-0.01464,0.00488,0.3904,0.13176,-0.27816,0.10248
0.01464,-0.05368,0.09272,0.0854,0.07808,-0.03172,-0.03416,-0.01464,0.3904,0.14152,-0.26352,0.12688
0.01952,-0.061,0.10248,0.09272,0.08296,-0.03172,-0.05368,-0.0244,0.3904,0.1464,-0.25376,0.12688
0.01952,-0.06588,0.11224,0.10248,0.09272,-0.0366,-0.06344,-0.02928,0.3904,0.15128,-0.244,0.13664
0.03416,-0.07808,0.122,0.10492,0.08784,-0.02684,-0.06832,-0.02928,0.3904,0.15616,-0.244,0.14152
0.04392,-0.09028,0.13664,0.11468,0.09272,-0.0244,-0.07808,-0.02928,0.39528,0.15616,-0.22936,0.15616
0.05368,-0.09516,0.13664,0.1098,0.08296,-0.01464,-0.08296,-0.03416,0.38552,0.15616,-0.22448,0.15616
0.05856,-0.0976,0.13664,0.10736,0.07808,-0.00976,-0.09272,-0.03904,0.38064,0.15128,-0.2196,0.15616
0.05856,-0.08784,0.11712,0.08784,0.05856,0,-0.08784,-0.03904,0.366,0.1464,-0.22448,0.15616
0.0488,-0.07808,0.10736,0.08296,0.05856,-0.00488,-0.07808,-0.03904,0.366,0.1464,-0.2196,0.15616
0.04392,-0.05856,0.0732,0.05124,0.02928,0.00732,-0.06832,-0.0244,0.366,0.14152,-0.22936,0.1464
0.0244,-0.04148,0.05856,0.04636,0.03416,-0.00488,-0.04392,-0.01464,0.366,0.1464,-0.22936,0.14152
0.00976,-0.0244,0.03904,0.03416,0.02928,-0.00976,-0.03416,-0.00976,0.35624,0.13176,-0.23912,0.12688
-0.01464,0.00244,0.00976,0.01708,0.0244,-0.01952,-0.02928,-0.00976,0.35136,0.122,-0.24888,0.10736
-0.01464,0.00976,-0.00488,0.00244,0.00976,-0.0122,-0.02928,-0.00976,0.3416,0.11224,-0.25376,0.0976
-0.01464,0.0122,-0.00976,-0.00244,0.00488,-0.00976,-0.01952,-0.00976,0.33184,0.10248,-0.25864,0.09272
-0.01464,0.01464,-0.01464,-0.00732,0,-0.00732,-0.01952,-0.00976,0.32696,0.10248,-0.25864,0.08784
-0.01464,0.01952,-0.0244,-0.01708,-0.00976,-0.00244,-0.01952,-0.00976,0.32696,0.0976,-0.26352,0.09272
-0.01464,0.0244,-0.03416,-0.02684,-0.01952,0.00244,-0.01952,-0.00488,0.32208,0.10248,-0.26352,0.08784
-0.01952,0.02684,-0.03416,-0.0244,-0.01464,-0.00244,-0.01952,0.00488,0.32208,0.11224,-0.25864,0.08784
-0.01952,0.0244,-0.02928,-0.01952,-0.00976,-0.00488,-0.01952,0.00488,0.32208,0.11712,-0.25864,0.09272
-0.01952,0.0244,-0.02928,-0.01952,-0.00976,-0.00488,-0.01464,0.00488,0.32208,0.122,-0.25864,0.09272
-0.01952,0.0244,-0.02928,-0.01952,-0.00976,-0.00488,-0.01464,0,0.32208,0.11712,-0.25376,0.08784
-0.01464,0.02196,-0.02928,-0.02196,-0.01464,0,-0.00488,-0.00488,0.32696,0.11712,-0.25376,0.08784
-0.01464,0.02928,-0.04392,-0.0366,-0.02928,0.00732,0,0.00976,0.31232,0.10736,-0.2684,0.07808
-0.00976,0.04392,-0.07808,-0.0732,-0.06832,0.02928,0.01464,0.07808,0.37088,0.10248,-0.2684,0.06344
0.00488,0.02684,-0.05856,-0.061,-0.06344,0.03416,0.01952,0.13176,0.52216,0.18056,-0.23912,0.07808
0.06832,-0.09028,0.11224,0.07808,0.04392,0.0122,-0.08784,0.13176,0.6832,0.40504,-0.07808,0.19032
0.23424,-0.35868,0.48312,0.366,0.24888,-0.00732,-0.33672,0.10736,0.83448,0.81008,0.2196,0.43432
0.47336,-0.71736,0.96136,0.72468,0.488,-0.00732,-0.63928,0.08784,1.1468,1.342,0.63928,0.79544
0.76616,-1.159,1.55184,1.16876,0.78568,-0.00976,-1.01504,0.00488,1.4396,1.952,1.1468,1.22976
1.0248,-1.52988,2.03496,1.52256,1.01016,0.00732,-1.37616,-0.122,1.46888,2.33752,1.5128,1.586
1.13216,-1.63968,2.1472,1.58112,1.01504,0.05856,-1.57136,-0.32696,1.16144,2.17648,1.55184,1.7324
1.01016,-1.464,1.91784,1.41276,0.90768,0.05124,-1.51768,-0.60024,0.54168,1.58112,1.27856,1.61528
0.64416,-0.97844,1.31272,0.99064,0.66856,-0.0122,-1.19072,-0.90768,-0.32696,0.6832,0.67344,1.18584
0.27816,-0.52216,0.76616,0.62708,0.488,-0.10492,-0.79544,-0.96136,-0.81008,0.04392,0.14152,0.732
0.13176,-0.29768,0.4636,0.39772,0.33184,-0.10004,-0.5612,-0.75152,-0.6344,-0.03904,-0.05368,0.49776
0.06832,-0.24644,0.42456,0.3904,0.35624,-0.14396,-0.4392,-0.5612,-0.31232,0.08784,-0.0244,0.46848
0.03416,-0.1342,0.23424,0.21716,0.20008,-0.08296,-0.244,-0.30256,-0.04392,0.0976,-0.12688,0.30744
-0.01952,-0.01464,0.0488,0.05856,0.06832,-0.04392,-0.05368,-0.11712,0.14152,0.10248,-0.20984,0.16104
-0.03416,0.01708,0,0.01708,0.03416,-0.03416,0,-0.02928,0.26352,0.1464,-0.2196,0.13664
-0.00976,0.00244,0.00488,0.00976,0.01464,-0.0122,-0.01464,0,0.30744,0.16592,-0.2196,0.1464
-0.00976,0.00732,-0.00488,0,0.00488,-0.00732,0,0.01952,0.32208,0.16592,-0.2196,0.13664
-0.01464,0.0122,-0.00976,-0.00244,0.00488,-0.00976,0.01464,0.0488,0.35624,0.16104,-0.2196,0.13176
-0.01952,0.01464,-0.00976,0,0.00976,-0.01464,0.01952,0.0488,0.37576,0.1464,-0.244,0.122
-0.0244,0.02196,-0.01952,-0.00732,0.00488,-0.01464,0.01952,0.05856,0.37576,0.11224,-0.25864,0.11712
-0.0244,0.02196,-0.01952,-0.00732,0.00488,-0.01464,0.01952,0.06344,0.38552,0.10248,-0.25864,0.10736
-0.0244,0.02196,-0.01952,-0.00732,0.00488,-0.01464,0.01952,0.07808,0.39528,0.10248,-0.26352,0.10248
-0.01952,0.01708,-0.01464,-0.00488,0.00488,-0.0122,0.01952,0.07808,0.40504,0.10736,-0.27816,0.10248
-0.00976,0.00732,-0.00488,0,0.00488,-0.00732,0.01952,0.08296,0.4148,0.11224,-0.27816,0.10248
-0.00976,0.00732,-0.00488,0,0.00488,-0.00732,0.01464,0.08784,0.4148,0.122,-0.28304,0.10248
-0.00976,0.00732,-0.00488,0,0.00488,-0.00732,0.01464,0.09272,0.42944,0.13664,-0.28304,0.10248
0,0,0,0,0,0,0.01464,0.10248,0.43432,0.15616,-0.27816,0.10736
0,0,0,0,0,0,0.01464,0.10736,0.44408,0.18544,-0.27328,0.10736
0,0,0,0,0,0,0.01464,0.11224,0.45384,0.19032,-0.27328,0.10736
0,-0.00244,0.00488,0.00488,0.00488,-0.00244,0.01464,0.11712,0.45872,0.1952,-0.26352,0.10248
0.00488,-0.00732,0.00976,0.00732,0.00488,0,0.01464,0.122,0.4636,0.20496,-0.26352,0.11224
0.00488,-0.00732,0.00976,0.00732,0.00488,0,0.01464,0.12688,0.46848,0.1952,-0.25864,0.10736
0.00488,-0.00732,0.00976,0.00732,0.00488,0,0.01464,0.12688,0.46848,0.1952,-0.25864,0.10736
0.00976,-0.0122,0.01464,0.00976,0.00488,0.00244,0.01464,0.13176,0.48312,0.18544,-0.25864,0.11224
0.01464,-0.01708,0.01952,0.0122,0.00488,0.00488,0.01464,0.13176,0.49288,0.18544,-0.26352,0.11712
0.01952,-0.0244,0.02928,0.01952,0.00976,0.00488,0.01464,0.14152,0.50264,0.18056,-0.26352,0.122
0.0244,-0.02928,0.03416,0.02196,0.00976,0.00732,0.01952,0.1464,0.5124,0.18056,-0.26352,0.122
0.0244,-0.02928,0.03416,0.02196,0.00976,0.00732,0.0244,0.15128,0.52216,0.18544,-0.26352,0.122
0.02928,-0.03416,0.03904,0.0244,0.00976,0.00976,0.0244,0.15616,0.5368,0.18544,-0.25864,0.122
0.02928,-0.03416,0.03904,0.0244,0.00976,0.00976,0.0244,0.16592,0.55632,0.18544,-0.25376,0.122
0.03416,-0.0366,0.03904,0.02196,0.00488,0.01464,0.0244,0.1708,0.56608,0.20008,-0.25376,0.122
0.03416,-0.0366,0.03904,0.02196,0.00488,0.01464,0.0244,0.17568,0.57584,0.2196,-0.24888,0.12688
0.03904,-0.04148,0.04392,0.0244,0.00488,0.01708,0.0244,0.18544,0.5856,0.23424,-0.244,0.12688
0.03904,-0.04148,0.04392,0.0244,0.00488,0.01708,0.0244,0.20008,0.60512,0.25864,-0.23424,0.13176
0.03904,-0.0488,0.05856,0.03904,0.01952,0.00976,0.02928,0.20984,0.61976,0.26352,-0.22936,0.13176
0.04392,-0.05856,0.0732,0.05124,0.02928,0.00732,0.02928,0.22448,0.63928,0.28304,-0.21472,0.14152
0.05368,-0.06588,0.07808,0.05124,0.0244,0.01464,0.02928,0.23424,0.65392,0.29768,-0.20496,0.14152
0.05856,-0.07076,0.08296,0.05368,0.0244,0.01708,0.02928,0.244,0.67832,0.31232,-0.1952,0.1464
0.06832,-0.07564,0.08296,0.0488,0.01464,0.02684,0.02928,0.2684,0.69296,0.3172,-0.18056,0.1464
0.06832,-0.0732,0.07808,0.04392,0.00976,0.02928,0.02928,0.27816,0.7076,0.33184,-0.1708,0.15128
0.0732,-0.08296,0.09272,0.05612,0.01952,0.02684,0.03416,0.29768,0.732,0.3416,-0.16104,0.15616
0.0732,-0.08296,0.09272,0.05612,0.01952,0.02684,0.03904,0.31232,0.75152,0.35136,-0.15616,0.16104
0.08296,-0.0976,0.11224,0.07076,0.02928,0.02684,0.03904,0.32696,0.77104,0.36112,-0.15128,0.1708
0.08784,-0.10492,0.122,0.07808,0.03416,0.02684,0.04392,0.3416,0.79056,0.37088,-0.1464,0.1708
0.09272,-0.1098,0.12688,0.08052,0.03416,0.02928,0.04392,0.35624,0.8052,0.38552,-0.1464,0.1708
0.0976,-0.11712,0.13664,0.08784,0.03904,0.02928,0.04392,0.37088,0.82472,0.40016,-0.14152,0.18056
0.0976,-0.11712,0.13664,0.08784,0.03904,0.02928,0.03904,0.37576,0.8296,0.40992,-0.13664,0.18056
0.10248,-0.122,0.14152,0.09028,0.03904,0.03172,0.03416,0.38552,0.83936,0.4148,-0.14152,0.18544
0.10248,-0.12688,0.15128,0.10004,0.0488,0.02684,0.03416,0.3904,0.84424,0.4148,-0.13664,0.19032
0.10248,-0.12932,0.15616,0.10492,0.05368,0.0244,0.03416,0.39528,0.84424,0.4148,-0.13664,0.19032
0.10248,-0.12932,0.15616,0.10492,0.05368,0.0244,0.03416,0.39528,0.84424,0.40504,-0.13664,0.1952
0.10248,-0.12932,0.15616,0.10492,0.05368,0.0244,0.03416,0.39528,0.83936,0.40016,-0.13176,0.20008
0.10248,-0.12932,0.15616,0.10492,0.05368,0.0244,0.02928,0.38552,0.82472,0.39528,-0.13664,0.20008
0.09272,-0.12444,0.15616,0.1098,0.06344,0.01464,0.02928,0.37576,0.81496,0.38064,-0.1464,0.20008
0.09272,-0.12688,0.16104,0.11468,0.06832,0.0122,0.0244,0.36112,0.79056,0.37088,-0.15128,0.20496
0.08296,-0.122,0.16104,0.11956,0.07808,0.00244,0.01952,0.34648,0.76616,0.36112,-0.15128,0.20984
0.08296,-0.12444,0.16592,0.12444,0.08296,0,0.01464,0.3172,0.732,0.35624,-0.15616,0.20984
0.07808,-0.12444,0.1708,0.13176,0.09272,-0.00732,0.00976,0.2928,0.70272,0.34648,-0.15616,0.20984
0.0732,-0.122,0.1708,0.1342,0.0976,-0.0122,0.00488,0.25864,0.66856,0.3416,-0.16104,0.21472
0.06344,-0.11712,0.1708,0.13908,0.10736,-0.02196,-0.00976,0.23424,0.63928,0.33672,-0.16104,0.21472
0.06344,-0.11224,0.16104,0.12932,0.0976,-0.01708,-0.01464,0.20008,0.61,0.32208,-0.16592,0.20984
0.05368,-0.10492,0.15616,0.12932,0.10248,-0.0244,-0.0244,0.1708,0.57584,0.32208,-0.16592,0.20496
0.05368,-0.0976,0.14152,0.11468,0.08784,-0.01708,-0.0244,0.14152,0.54168,0.30744,-0.1708,0.20008
0.05368,-0.09272,0.13176,0.10492,0.07808,-0.0122,-0.02928,0.122,0.5124,0.2928,-0.17568,0.20008
0.04392,-0.08296,0.122,0.10004,0.07808,-0.01708,-0.03416,0.10248,0.488,0.27816,-0.18056,0.19032
0.04392,-0.07808,0.11224,0.09028,0.06832,-0.0122,-0.02928,0.08296,0.4636,0.26352,-0.18544,0.18056
0.02928,-0.061,0.09272,0.07808,0.06344,-0.01708,-0.02928,0.06832,0.4392,0.25376,-0.1952,0.1708
0.02928,-0.05612,0.08296,0.06832,0.05368,-0.0122,-0.02928,0.05856,0.42456,0.23912,-0.20008,0.16104
0.01952,-0.0488,0.07808,0.06832,0.05856,-0.01952,-0.0244,0.04392,0.4148,0.22448,-0.20496,0.15616
0.01464,-0.03904,0.06344,0.05612,0.0488,-0.01708,-0.01952,0.03904,0.40504,0.21472,-0.20008,0.15616
0.01464,-0.0366,0.05856,0.05124,0.04392,-0.01464,-0.01952,0.0244,0.38552,0.20496,-0.20496,0.15128
0.00976,-0.02928,0.0488,0.04392,0.03904,-0.01464,-0.01952,0.00976,0.37576,0.20008,-0.20496,0.14152
-0.00488,-0.01708,0.03904,0.04148,0.04392,-0.0244,-0.01952,0.00976,0.366,0.18544,-0.20984,0.13176
-0.01464,-0.00488,0.0244,0.03172,0.03904,-0.02684,-0.01952,0.00488,0.35624,0.1708,-0.21472,0.122
-0.01464,-0.00488,0.0244,0.03172,0.03904,-0.02684,-0.01952,0,0.35136,0.16592,-0.22448,0.122
-0.01464,-0.00244,0.01952,0.02684,0.03416,-0.0244,-0.01952,0,0.35136,0.16104,-0.22936,0.122
-0.01464,-0.00244,0.01952,0.02684,0.03416,-0.0244,-0.01952,0,0.34648,0.16104,-0.22936,0.11224
-0.01464,-0.00244,0.01952,0.02684,0.03416,-0.0244,-0.0244,0,0.3416,0.1708,-0.22936,0.11224
-0.01464,-0.00244,0.01952,0.02684,0.03416,-0.0244,-0.0244,0,0.33184,0.18056,-0.22936,0.10736
-0.01464,-0.00244,0.01952,0.02684,0.03416,-0.0244,-0.0244,0,0.32696,0.18544,-0.22448,0.10736
-0.01464,0,0.01464,0.02196,0.02928,-0.02196,-0.0244,-0.00488,0.32696,0.17568,-0.22936,0.10736
-0.01464,0.00488,0.00488,0.0122,0.01952,-0.01708,-0.01952,-0.00488,0.32696,0.16592,-0.22936,0.0976
-0.01952,0.00732,0.00488,0.01464,0.0244,-0.02196,-0.01464,0,0.32696,0.15128,-0.22936,0.0976
-0.01952,0.0122,-0.00488,0.00488,0.01464,-0.01708,-0.00976,0.00488,0.32696,0.14152,-0.23424,0.0976
-0.01952,0.0122,-0.00488,0.00488,0.01464,-0.01708,-0.00488,0.00976,0.32696,0.13176,-0.23424,0.09272
-0.01952,0.01464,-0.00976,0,0.00976,-0.01464,-0.00488,0.01952,0.32696,0.12688,-0.22936,0.09272
-0.01952,0.01952,-0.01952,-0.00976,0,-0.00976,-0.00488,0.01952,0.32696,0.11712,-0.22936,0.09272
-0.01952,0.02196,-0.0244,-0.01464,-0.00488,-0.00732,-0.00488,0.01952,0.33672,0.12688,-0.22936,0.09272
-0.01952,0.0244,-0.02928,-0.01952,-0.00976,-0.00488,-0.00488,0.01952,0.33672,0.13664,-0.22448,0.09272
-0.01952,0.0244,-0.02928,-0.01952,-0.00976,-0.00488,-0.00488,0.02928,0.34648,0.14152,-0.2196,0.0976
-0.0244,0.02684,-0.02928,-0.01708,-0.00488,-0.00976,-0.00488,0.02928,0.35136,0.15128,-0.21472,0.0976
-0.02928,0.02928,-0.02928,-0.01464,0,-0.01464,-0.00488,0.03416,0.35624,0.15616,-0.20496,0.10248
-0.0244,0.0244,-0.0244,-0.0122,0,-0.0122,-0.00488,0.03904,0.35624,0.16592,-0.20008,0.10248
-0.01952,0.01952,-0.01952,-0.00976,0,-0.00976,-0.00488,0.0488,0.36112,0.1708,-0.1952,0.10736
-0.01464,0.01464,-0.01464,-0.00732,0,-0.00732,-0.00488,0.0488,0.36112,0.17568,-0.18056,0.10736
-0.01464,0.0122,-0.00976,-0.00244,0.00488,-0.00976,-0.00488,0.05368,0.37088,0.18544,-0.16592,0.11224
-0.00976,0.00976,-0.00976,-0.00488,0,-0.00488,-0.00488,0.05368,0.37576,0.18544,-0.16104,0.10736
-0.00976,0.00976,-0.00976,-0.00488,0,-0.00488,-0.00488,0.05368,0.38064,0.18056,-0.16104,0.10248
-0.00976,0.00976,-0.00976,-0.00488,0,-0.00488,-0.00976,0.05368,0.38552,0.18056,-0.15616,0.10248
-0.00976,0.00732,-0.00488,0,0.00488,-0.00732,-0.00976,0.05368,0.38552,0.17568,-0.15616,0.0976
-0.00976,0.00732,-0.00488,0,0.00488,-0.00732,-0.00976,0.05368,0.38552,0.18056,-0.15616,0.0976
-0.00976,0.00732,-0.00488,0,0.00488,-0.00732,-0.00976,0.0488,0.38552,0.19032,-0.15128,0.0976
-0.00488,0.00244,0,0.00244,0.00488,-0.00488,-0.00976,0.0488,0.38552,0.19032,-0.14152,0.0976
0,0,0,0,0,0,-0.00976,0.0488,0.3904,0.1952,-0.13664,0.0976
0,0,0,0,0,0,-0.00976,0.0488,0.3904,0.19032,-0.13664,0.0976
0,0,0,0,0,0,-0.00976,0.0488,0.3904,0.18544,-0.13664,0.0976
0,0,0,0,0,0,-0.00976,0.0488,0.38552,0.18056,-0.13664,0.09272
0,0,0,0,0,0,-0.00976,0.04392,0.38064,0.17568,-0.13664,0.08784
0,0,0,0,0,0,-0.01464,0.04392,0.37576,0.1708,-0.13664,0.08784
0,0,0,0,0,0,-0.01952,0.03904,0.37088,0.15616,-0.14152,0.08784
0,0,0,0,0,0,-0.01952,0.03904,0.37088,0.15128,-0.13664,0.08784
0.00488,-0.00488,0.00488,0.00244,0,0.00244,-0.01952,0.03416,0.37088,0.1464,-0.13176,0.08784
0,0,0,0,0,0,-0.01952,0.02928,0.36112,0.1464,-0.14152,0.08296
-0.00976,0.00976,-0.00976,-0.00488,0,-0.00488,-0.01952,0.02928,0.36112,0.1464,-0.14152,0.08296
-0.00976,0.0122,-0.01464,-0.00976,-0.00488,-0.00244,-0.01952,0.02928,0.35136,0.12688,-0.14152,0.0732
-0.00976,0.01464,-0.01952,-0.01464,-0.00976,0,-0.01952,0.02928,0.35136,0.11712,-0.14152,0.06832
-0.01464,0.01708,-0.01952,-0.0122,-0.00488,-0.00488,-0.01952,0.02928,0.3416,0.11224,-0.14152,0.06832
-0.01952,0.01952,-0.01952,-0.00976,0,-0.00976,-0.01952,0.02928,0.3416,0.10736,-0.14152,0.06832
-0.01952,0.01952,-0.01952,-0.00976,0,-0.00976,-0.01952,0.0244,0.3416,0.10736,-0.14152,0.05856
-0.01952,0.01952,-0.01952,-0.00976,0,-0.00976,-0.01952,0.0244,0.3416,0.10736,-0.13664,0.05368
-0.01464,0.01464,-0.01464,-0.00732,0,-0.00732,-0.01464,0.0244,0.35136,0.11224,-0.13664,0.05856
-0.00976,0.00732,-0.00488,0,0.00488,-0.00732,-0.00488,0.02928,0.35624,0.11712,-0.12688,0.05856
-0.00976,0.00488,0,0.00488,0.00976,-0.00976,0.00488,0.03416,0.35624,0.122,-0.122,0.06344
-0.00488,-0.00244,0.00976,0.0122,0.01464,-0.00976,0.00976,0.03416,0.36112,0.13176,-0.11712,0.06344
0,-0.0122,0.0244,0.0244,0.0244,-0.0122,0.00976,0.03416,0.36112,0.13664,-0.11224,0.06344
0.00488,-0.02684,0.0488,0.04636,0.04392,-0.01952,0.00488,0.03416,0.37088,0.15616,-0.10248,0.0732
0.00488,-0.03172,0.05856,0.05612,0.05368,-0.0244,-0.01464,0.03416,0.37088,0.1708,-0.08784,0.07808
-0.00488,-0.03416,0.0732,0.07564,0.07808,-0.04148,-0.03416,0.01464,0.37088,0.18056,-0.06832,0.0976
0,-0.03904,0.07808,0.07808,0.07808,-0.03904,-0.05368,0.00488,0.366,0.18544,-0.05856,0.09272
0,-0.04148,0.08296,0.08296,0.08296,-0.04148,-0.06344,0,0.36112,0.19032,-0.0488,0.0976
0.01952,-0.05612,0.09272,0.08296,0.0732,-0.02684,-0.06832,-0.00488,0.35624,0.19032,-0.0488,0.09272
0.03416,-0.07076,0.10736,0.09028,0.0732,-0.01952,-0.07808,-0.00976,0.35624,0.18544,-0.03416,0.0976
0.03904,-0.07564,0.11224,0.09272,0.0732,-0.01708,-0.08296,-0.01464,0.34648,0.17568,-0.02928,0.0976
0.03904,-0.07808,0.11712,0.0976,0.07808,-0.01952,-0.09272,-0.01952,0.3416,0.16104,-0.0244,0.0976
0.03904,-0.07076,0.10248,0.08296,0.06344,-0.0122,-0.09272,-0.01464,0.32696,0.15128,-0.03416,0.09272
0.02928,-0.06344,0.0976,0.08296,0.06832,-0.01952,-0.08784,-0.00976,0.32696,0.1464,-0.03416,0.08784
0.02928,-0.04636,0.06344,0.0488,0.03416,-0.00244,-0.07808,0,0.32696,0.13176,-0.0488,0.0732
0.01464,-0.03172,0.0488,0.04148,0.03416,-0.00976,-0.05368,0.00488,0.32696,0.12688,-0.05368,0.06344
0.00488,-0.01464,0.0244,0.02196,0.01952,-0.00732,-0.04392,0.00976,0.3172,0.11224,-0.06344,0.0488
-0.01464,0.0122,-0.00976,-0.00244,0.00488,-0.00976,-0.03904,0.00976,0.31232,0.10248,-0.0732,0.02928
-0.01464,0.01952,-0.0244,-0.01708,-0.00976,-0.00244,-0.04392,0.00488,0.30256,0.09272,-0.07808,0.01464
-0.01464,0.02196,-0.02928,-0.02196,-0.01464,0,-0.03904,0,0.2928,0.08296,-0.08296,0.00488
-0.01464,0.02196,-0.02928,-0.02196,-0.01464,0,-0.03904,0,0.28792,0.08296,-0.07808,-0.00488
-0.01464,0.0244,-0.03416,-0.02684,-0.01952,0.00244,-0.03904,0,0.28792,0.07808,-0.07808,-0.00488
-0.01952,0.03172,-0.04392,-0.03416,-0.0244,0.00244,-0.03904,0,0.28304,0.07808,-0.0732,-0.00976
-0.02928,0.0366,-0.04392,-0.02928,-0.01464,-0.00732,-0.03904,0.00488,0.28304,0.08296,-0.06344,-0.00976
-0.02928,0.0366,-0.04392,-0.02928,-0.01464,-0.00732,-0.03904,0.00488,0.28304,0.08296,-0.06344,-0.00488
-0.02928,0.03904,-0.0488,-0.03416,-0.01952,-0.00488,-0.03416,0.00488,0.28304,0.08296,-0.06344,-0.00488
-0.03416,0.04148,-0.0488,-0.03172,-0.01464,-0.00976,-0.03416,0.00976,0.28304,0.07808,-0.05856,-0.00976
-0.03416,0.04148,-0.0488,-0.03172,-0.01464,-0.00976,-0.0244,0.01464,0.28792,0.07808,-0.05856,-0.00976
-0.04392,0.05368,-0.06344,-0.04148,-0.01952,-0.0122,-0.01464,0.01952,0.25376,0.05368,-0.08296,-0.01952
-0.0488,0.0732,-0.0976,-0.0732,-0.0488,0,0.00488,0.07808,0.2928,0.03416,-0.09272,-0.03416
-0.03416,0.08296,-0.13176,-0.11468,-0.0976,0.03172,0.04392,0.1464,0.4392,0.06344,-0.10736,-0.05856
0.02928,-0.00732,-0.01464,-0.02928,-0.04392,0.0366,-0.02928,0.16104,0.59536,0.23912,0.00976,0.01464
0.16592,-0.23912,0.31232,0.22936,0.1464,0.00976,-0.24888,0.15616,0.72712,0.60512,0.27816,0.23424
0.37576,-0.5612,0.74664,0.55876,0.37088,0.00244,-0.52216,0.15616,1.01992,1.098,0.66856,0.57096
0.70272,-1.037,1.37128,1.01992,0.66856,0.01708,-0.9272,0.0976,1.39568,1.77632,1.22,1.02968
0.99552,-1.44204,1.88856,1.3908,0.89304,0.05124,-1.3176,-0.00488,1.50792,2.23016,1.62992,1.41032
1.16144,-1.64456,2.12768,1.54696,0.96624,0.0976,-1.58112,-0.20984,1.2688,2.19112,1.77144,1.63968
1.098,-1.5616,2.0252,1.4762,0.9272,0.0854,-1.59576,-0.48312,0.71736,1.71776,1.60064,1.60552
0.71736,-1.05896,1.40056,1.04188,0.6832,0.01708,-1.2932,-0.8784,-0.26352,0.75152,0.976,1.17608
0.33672,-0.5856,0.83448,0.66612,0.49776,-0.08052,-0.92232,-1.01992,-0.85888,0.04392,0.42456,0.72224
0.16592,-0.3416,0.51728,0.43432,0.35136,-0.09272,-0.64904,-0.81008,-0.71736,-0.0732,0.20496,0.47336
0.07808,-0.27084,0.4636,0.42456,0.38552,-0.15372,-0.488,-0.61976,-0.42944,0.01952,0.20984,0.42944
0.03416,-0.13664,0.23912,0.22204,0.20496,-0.0854,-0.29768,-0.33672,-0.13664,0.02928,0.10248,0.25376
-0.02928,0.00488,0.01952,0.03416,0.0488,-0.03904,-0.11224,-0.12688,0.0732,0.03416,0.01464,0.09272
-0.0488,0.03904,-0.02928,-0.00488,0.01952,-0.03416,-0.03416,-0.02928,0.20984,0.07808,0.00488,0.06344
-0.02928,0.02684,-0.0244,-0.00976,0.00488,-0.01708,-0.0244,0.00976,0.2684,0.0976,0.00488,0.06832
-0.0244,0.02928,-0.03416,-0.02196,-0.00976,-0.00732,-0.01464,0.03904,0.28304,0.10248,0.00488,0.05856
-0.0244,0.03172,-0.03904,-0.02684,-0.01464,-0.00488,-0.00488,0.07808,0.3172,0.10248,0.00488,0.05368
-0.0244,0.03172,-0.03904,-0.02684,-0.01464,-0.00488,0.00488,0.07808,0.33672,0.09272,-0.01464,0.0488
-0.0244,0.0366,-0.0488,-0.0366,-0.0244,0,0.00976,0.08784,0.33672,0.06344,-0.0244,0.0488
-0.0244,0.0366,-0.0488,-0.0366,-0.0244,0,0.01464,0.09272,0.35136,0.05368,-0.0244,0.03904
-0.0244,0.0366,-0.0488,-0.0366,-0.0244,0,0.01952,0.10736,0.366,0.05368,-0.02928,0.03416
-0.01952,0.03416,-0.0488,-0.03904,-0.02928,0.00488,0.01952,0.10736,0.37576,0.05368,-0.0488,0.03416
-0.00976,0.02684,-0.04392,-0.03904,-0.03416,0.0122,0.01952,0.11224,0.38552,0.05368,-0.05368,0.03416
-0.00976,0.02928,-0.0488,-0.04392,-0.03904,0.01464,0.01464,0.11712,0.38552,0.06344,-0.05368,0.03416
-0.00976,0.03172,-0.05368,-0.0488,-0.04392,0.01708,0.01464,0.122,0.40016,0.07808,-0.0488,0.03416
-0.00976,0.02928,-0.0488,-0.04392,-0.03904,0.01464,0.01464,0.12688,0.40016,0.10248,-0.04392,0.03904
-0.01952,0.03416,-0.0488,-0.03904,-0.02928,0.00488,0.01464,0.12688,0.40504,0.13664,-0.03904,0.03904
-0.00976,0.02684,-0.04392,-0.03904,-0.03416,0.0122,0.01464,0.13176,0.4148,0.14152,-0.03416,0.04392
0,0.01708,-0.03416,-0.03416,-0.03416,0.01708,0.01464,0.13664,0.41968,0.1464,-0.01952,0.04392
0.00488,0.00976,-0.0244,-0.02684,-0.02928,0.01708,0.01464,0.1464,0.42944,0.16104,-0.01464,0.06344
0.00488,0.00732,-0.01952,-0.02196,-0.0244,0.01464,0.01464,0.15616,0.4392,0.15616,-0.00488,0.06832
0.00488,0.00732,-0.01952,-0.02196,-0.0244,0.01464,0.01464,0.15616,0.4392,0.15616,-0.00488,0.06832
0.00976,0.00244,-0.01464,-0.01952,-0.0244,0.01708,0.01464,0.16104,0.45384,0.1464,-0.00488,0.0732
0.00976,0.00244,-0.01464,-0.01952,-0.0244,0.01708,0.01464,0.16104,0.4636,0.1464,-0.00488,0.0732
0.00976,0,-0.00976,-0.01464,-0.01952,0.01464,0.01464,0.1708,0.47336,0.14152,0,0.0732
0.01464,-0.00488,-0.00488,-0.0122,-0.01952,0.01708,0.01464,0.17568,0.48312,0.13176,-0.00488,0.07808
0.01464,-0.00488,-0.00488,-0.0122,-0.01952,0.01708,0.01464,0.18056,0.49288,0.12688,-0.00976,0.08296
0.01952,-0.00976,0,-0.00976,-0.01952,0.01952,0.01464,0.18544,0.50264,0.122,-0.00976,0.08296
0.01952,-0.00976,0,-0.00976,-0.01952,0.01952,0.01464,0.1952,0.51728,0.11712,-0.00976,0.08296
0.0244,-0.01464,0.00488,-0.00732,-0.01952,0.02196,0.01464,0.20008,0.52704,0.13176,-0.00976,0.08296
0.0244,-0.01708,0.00976,-0.00244,-0.01464,0.01952,0.01464,0.20496,0.5368,0.15128,-0.00488,0.08784
0.02928,-0.02196,0.01464,0,-0.01464,0.02196,0.01464,0.20984,0.54656,0.16104,-0.00488,0.08784
0.02928,-0.02196,0.01464,0,-0.01464,0.02196,0.01464,0.2196,0.56608,0.18056,0,0.09272
0.02928,-0.02684,0.0244,0.00976,-0.00488,0.01708,0.01952,0.22936,0.58072,0.18544,0.00488,0.09272
0.03416,-0.03416,0.03416,0.01708,0,0.01708,0.01952,0.244,0.60024,0.20496,0.01952,0.10248
0.03904,-0.03904,0.03904,0.01952,0,0.01952,0.01952,0.25376,0.61,0.2196,0.0244,0.10248
0.03904,-0.04148,0.04392,0.0244,0.00488,0.01708,0.01952,0.26352,0.62952,0.23424,0.02928,0.10736
0.0488,-0.04636,0.04392,0.01952,-0.00488,0.02684,0.01952,0.28304,0.64416,0.23912,0.03904,0.10736
0.0488,-0.04392,0.03904,0.01464,-0.00976,0.02928,0.01952,0.28792,0.6588,0.25376,0.04392,0.11224
0.05368,-0.05368,0.05368,0.02684,0,0.02684,0.0244,0.30744,0.6832,0.26352,0.05368,0.11712
0.05368,-0.05368,0.05368,0.02684,0,0.02684,0.02928,0.32208,0.70272,0.27328,0.05856,0.122
0.06832,-0.06832,0.06832,0.03416,0,0.03416,0.02928,0.33672,0.72712,0.28792,0.06832,0.13176
0.07808,-0.07564,0.0732,0.03416,-0.00488,0.04148,0.03416,0.35136,0.75152,0.30256,0.07808,0.13176
0.08296,-0.08052,0.07808,0.0366,-0.00488,0.04392,0.02928,0.366,0.76128,0.30744,0.07808,0.13176
0.08784,-0.08784,0.08784,0.04392,0,0.04392,0.0244,0.38064,0.77592,0.31232,0.08296,0.14152
0.08296,-0.0854,0.08784,0.04636,0.00488,0.03904,0.0244,0.38552,0.7808,0.3172,0.08784,0.14152
0.08296,-0.08784,0.09272,0.05124,0.00976,0.0366,0.0244,0.39528,0.79056,0.3172,0.08296,0.1464
0.07808,-0.08784,0.0976,0.05856,0.01952,0.02928,0.0244,0.40016,0.80032,0.3172,0.08296,0.15616
0.0732,-0.0854,0.0976,0.061,0.0244,0.0244,0.0244,0.40504,0.8052,0.3172,0.07808,0.16104
0.0732,-0.0854,0.0976,0.061,0.0244,0.0244,0.02928,0.40504,0.8052,0.30744,0.06832,0.16104
0.0732,-0.0854,0.0976,0.061,0.0244,0.0244,0.03416,0.40504,0.80032,0.30256,0.06344,0.16104
0.07808,-0.08784,0.0976,0.05856,0.01952,0.02928,0.02928,0.40016,0.7808,0.30256,0.05856,0.16592
0.0732,-0.0854,0.0976,0.061,0.0244,0.0244,0.02928,0.39528,0.76616,0.2928,0.0488,0.1708
0.07808,-0.09272,0.10736,0.06832,0.02928,0.0244,0.0244,0.38064,0.75152,0.28792,0.03904,0.1708
0.0732,-0.09272,0.11224,0.07564,0.03904,0.01708,0.01952,0.366,0.73688,0.28304,0.03416,0.1708
0.0732,-0.09272,0.11224,0.07564,0.03904,0.01708,0.01464,0.33672,0.70272,0.27816,0.02928,0.1708
0.06832,-0.09028,0.11224,0.07808,0.04392,0.0122,0.00976,0.31232,0.67344,0.2684,0.02928,0.1708
0.06344,-0.08784,0.11224,0.08052,0.0488,0.00732,0.00488,0.27328,0.63928,0.26352,0.02928,0.17568
0.05368,-0.08296,0.11224,0.0854,0.05856,-0.00244,-0.00976,0.244,0.61,0.25864,0.03416,0.17568
0.05368,-0.07808,0.10248,0.07564,0.0488,0.00244,-0.01464,0.20984,0.57584,0.23912,0.02928,0.17568
0.04392,-0.07076,0.0976,0.07564,0.05368,-0.00488,-0.0244,0.18056,0.5368,0.23424,0.02928,0.17568
0.03904,-0.05856,0.07808,0.05856,0.03904,0,-0.0244,0.1464,0.50752,0.2196,0.0244,0.1708
0.03416,-0.0488,0.06344,0.04636,0.02928,0.00244,-0.02928,0.122,0.48312,0.20496,0.01952,0.1708
0.0244,-0.03904,0.05368,0.04148,0.02928,-0.00244,-0.03904,0.10248,0.45872,0.19032,0.00976,0.16104
0.0244,-0.03416,0.04392,0.03172,0.01952,0.00244,-0.03904,0.08296,0.43432,0.17568,0,0.15128
0.00488,-0.0122,0.01952,0.01708,0.01464,-0.00488,-0.03904,0.06344,0.40504,0.16104,-0.00976,0.13664
0,-0.00244,0.00488,0.00488,0.00488,-0.00244,-0.03904,0.0488,0.38552,0.14152,-0.01464,0.122
-0.00976,0.00488,0,0.00488,0.00976,-0.00976,-0.03416,0.03416,0.37576,0.122,-0.02928,0.11712
-0.01464,0.01464,-0.01464,-0.00732,0,-0.00732,-0.02928,0.02928,0.366,0.10736,-0.03416,0.11712
-0.01464,0.01952,-0.0244,-0.01708,-0.00976,-0.00244,-0.02928,0.01952,0.34648,0.08296,-0.04392,0.11224
-0.01952,0.02928,-0.03904,-0.02928,-0.01952,0,-0.02928,0.00976,0.33672,0.06344,-0.0488,0.10248
-0.02928,0.0366,-0.04392,-0.02928,-0.01464,-0.00732,-0.02928,0.00976,0.32696,0.05368,-0.05368,0.09272
-0.03416,0.04392,-0.05368,-0.0366,-0.01952,-0.00732,-0.02928,0.00488,0.3172,0.04392,-0.05856,0.08296
-0.03416,0.04148,-0.0488,-0.03172,-0.01464,-0.00976,-0.02928,0,0.30744,0.03904,-0.06832,0.08296
-0.03416,0.04148,-0.0488,-0.03172,-0.01464,-0.00976,-0.02928,0,0.30256,0.03416,-0.0732,0.08296
-0.03416,0.04392,-0.05368,-0.0366,-0.01952,-0.00732,-0.0244,0,0.29768,0.03416,-0.0732,0.07808
-0.03416,0.04636,-0.05856,-0.04148,-0.0244,-0.00488,-0.0244,0,0.2928,0.04392,-0.0732,0.08296
-0.03416,0.04636,-0.05856,-0.04148,-0.0244,-0.00488,-0.0244,0,0.28792,0.0488,-0.07808,0.07808
-0.03416,0.04636,-0.05856,-0.04148,-0.0244,-0.00488,-0.0244,0,0.28792,0.0488,-0.07808,0.07808
-0.0244,0.04148,-0.05856,-0.04636,-0.03416,0.00488,-0.01952,0,0.28792,0.0488,-0.08296,0.08296
-0.01464,0.03904,-0.06344,-0.05612,-0.0488,0.01708,-0.00976,0.00488,0.28792,0.0488,-0.08296,0.07808
-0.0244,0.04392,-0.06344,-0.05124,-0.03904,0.00732,-0.00976,0.00976,0.28792,0.03904,-0.08296,0.07808
-0.02928,0.05124,-0.0732,-0.05856,-0.04392,0.00732,-0.00976,0.01464,0.28792,0.03416,-0.08784,0.07808
-0.02928,0.05124,-0.0732,-0.05856,-0.04392,0.00732,-0.00488,0.01464,0.28792,0.03416,-0.09272,0.0732
-0.02928,0.05368,-0.07808,-0.06344,-0.0488,0.00976,-0.00488,0.01952,0.28792,0.03904,-0.09272,0.0732
-0.0244,0.05124,-0.07808,-0.06588,-0.05368,0.01464,-0.00488,0.01952,0.28792,0.02928,-0.08784,0.0732
-0.01952,0.04636,-0.0732,-0.06344,-0.05368,0.01708,-0.00488,0.01952,0.29768,0.03904,-0.08296,0.0732
-0.01952,0.04636,-0.0732,-0.06344,-0.05368,0.01708,-0.00488,0.01464,0.29768,0.0488,-0.07808,0.0732
-0.01952,0.04392,-0.06832,-0.05856,-0.0488,0.01464,-0.00488,0.01952,0.30744,0.05368,-0.0732,0.07808
-0.01952,0.04392,-0.06832,-0.05856,-0.0488,0.01464,-0.00488,0.01952,0.31232,0.06344,-0.06832,0.0732
-0.01952,0.04392,-0.06832,-0.05856,-0.0488,0.01464,-0.00488,0.0244,0.3172,0.06832,-0.05856,0.0732
-0.01952,0.04148,-0.06344,-0.05368,-0.04392,0.0122,-0.00976,0.01952,0.3172,0.07808,-0.0488,0.0732
-0.01952,0.03904,-0.05856,-0.0488,-0.03904,0.00976,-0.01464,0.01952,0.32208,0.08296,-0.03904,0.07808
-0.01464,0.03416,-0.05368,-0.04636,-0.03904,0.0122,-0.01464,0.01952,0.32208,0.07808,-0.03416,0.0732
-0.01464,0.03172,-0.0488,-0.04148,-0.03416,0.00976,-0.01464,0.0244,0.33184,0.07808,-0.02928,0.0732
-0.00976,0.02928,-0.0488,-0.04392,-0.03904,0.01464,-0.01464,0.0244,0.3416,0.0732,-0.02928,0.06832
-0.00976,0.02928,-0.0488,-0.04392,-0.03904,0.01464,-0.01464,0.0244,0.35136,0.06344,-0.03416,0.06344
-0.00976,0.03172,-0.05368,-0.0488,-0.04392,0.01708,-0.01952,0.0244,0.35624,0.06832,-0.02928,0.06832
-0.00976,0.03172,-0.05368,-0.0488,-0.04392,0.01708,-0.01952,0.0244,0.35624,0.06832,-0.02928,0.06832
-0.00488,0.02928,-0.05368,-0.05124,-0.0488,0.02196,-0.01952,0.0244,0.35624,0.06832,-0.03904,0.06832
0,0.02684,-0.05368,-0.05368,-0.05368,0.02684,-0.01952,0.01952,0.35624,0.0732,-0.04392,0.06832
0.00488,0.02196,-0.0488,-0.05124,-0.05368,0.02928,-0.01952,0.01952,0.35624,0.0732,-0.04392,0.06832
0.00976,0.01708,-0.04392,-0.0488,-0.05368,0.03172,-0.01952,0.01952,0.35136,0.0732,-0.0488,0.06832
0.00976,0.01708,-0.04392,-0.0488,-0.05368,0.03172,-0.01952,0.01952,0.34648,0.0732,-0.05368,0.06832
0.00976,0.01952,-0.0488,-0.05368,-0.05856,0.03416,-0.01952,0.01952,0.3416,0.07808,-0.05856,0.06832
0.00488,0.02196,-0.0488,-0.05124,-0.05368,0.02928,-0.01952,0.01464,0.3416,0.0732,-0.05856,0.06832
0,0.0244,-0.0488,-0.0488,-0.0488,0.0244,-0.01952,0.00976,0.3416,0.06832,-0.05856,0.06832
0,0.02928,-0.05856,-0.05856,-0.05856,0.02928,-0.01952,0.00976,0.33672,0.06344,-0.06344,0.06832
0,0.02928,-0.05856,-0.05856,-0.05856,0.02928,-0.01952,0.00488,0.33184,0.05856,-0.06832,0.06832
0,0.02928,-0.05856,-0.05856,-0.05856,0.02928,-0.01952,0.00488,0.32696,0.05856,-0.0732,0.06832
0,0.0244,-0.0488,-0.0488,-0.0488,0.0244,-0.01952,0,0.32208,0.0488,-0.08296,0.06832
0,0.0244,-0.0488,-0.0488,-0.0488,0.0244,-0.01952,0,0.32208,0.04392,-0.08296,0.06832
0.00488,0.01952,-0.04392,-0.04636,-0.0488,0.02684,-0.01952,-0.00488,0.32208,0.03904,-0.08296,0.06832
0.00488,0.02196,-0.0488,-0.05124,-0.05368,0.02928,-0.01952,-0.01464,0.31232,0.03416,-0.09272,0.06344
0,0.02928,-0.05856,-0.05856,-0.05856,0.02928,-0.01952,-0.01952,0.31232,0.02928,-0.09272,0.06344
0,0.02928,-0.05856,-0.05856,-0.05856,0.02928,-0.01952,-0.01952,0.30256,0.00976,-0.0976,0.05856
0,0.02928,-0.05856,-0.05856,-0.05856,0.02928,-0.01952,-0.01952,0.30256,0,-0.10248,0.05856
0,0.02928,-0.05856,-0.05856,-0.05856,0.02928,-0.01952,-0.01464,0.29768,0,-0.10248,0.05856
0,0.02928,-0.05856,-0.05856,-0.05856,0.02928,-0.01952,-0.00976,0.30256,0,-0.10248,0.05856
0,0.02928,-0.05856,-0.05856,-0.05856,0.02928,-0.01464,-0.00976,0.30256,0.00488,-0.10248,0.05368
0,0.02928,-0.05856,-0.05856,-0.05856,0.02928,-0.00976,-0.00488,0.30256,0.00976,-0.0976,0.05368
0,0.02684,-0.05368,-0.05368,-0.05368,0.02684,-0.00488,-0.00488,0.30744,0.00976,-0.10248,0.05856
0,0.02196,-0.04392,-0.04392,-0.04392,0.02196,0.00488,0,0.30744,0.00976,-0.0976,0.05856
-0.00488,0.02684,-0.0488,-0.04636,-0.04392,0.01952,0.01464,0.00488,0.30744,0.00976,-0.0976,0.05856
-0.00488,0.02684,-0.0488,-0.04636,-0.04392,0.01952,0.01952,0.00488,0.31232,0.01464,-0.0976,0.05368
0,0.0122,-0.0244,-0.0244,-0.0244,0.0122,0.01952,0.00488,0.31232,0.01464,-0.0976,0.05368
0.00488,-0.00732,0.00976,0.00732,0.00488,0,0.01464,0.00488,0.32208,0.02928,-0.09272,0.06344
0.02928,-0.02928,0.02928,0.01464,0,0.01464,-0.00488,0.01464,0.32208,0.04392,-0.08296,0.0732
0.04392,-0.0488,0.05368,0.03172,0.00976,0.01708,-0.0244,0.00488,0.32208,0.05368,-0.06832,0.0976
0.0488,-0.05612,0.06344,0.03904,0.01464,0.01708,-0.04392,-0.00488,0.32208,0.05856,-0.05856,0.0976
0.0488,-0.061,0.0732,0.0488,0.0244,0.0122,-0.05368,-0.00976,0.32208,0.06344,-0.0488,0.10736
0.05856,-0.07076,0.08296,0.05368,0.0244,0.01708,-0.05856,-0.01464,0.3172,0.06344,-0.05368,0.10736
0.06344,-0.08052,0.0976,0.06588,0.03416,0.01464,-0.06832,-0.01952,0.3172,0.05856,-0.04392,0.11712
0.06832,-0.08052,0.09272,0.05856,0.0244,0.02196,-0.0732,-0.0244,0.30744,0.0488,-0.0488,0.11224
0.06832,-0.07808,0.08784,0.05368,0.01952,0.0244,-0.08296,-0.02928,0.30256,0.03416,-0.05368,0.10736
0.05368,-0.05612,0.05856,0.03172,0.00488,0.0244,-0.08296,-0.02928,0.28792,0.01952,-0.06344,0.0976
0.02928,-0.03416,0.03904,0.0244,0.00976,0.00976,-0.07808,-0.02928,0.28792,0.00976,-0.06344,0.08784
0.03416,-0.0244,0.01464,-0.00244,-0.01952,0.02684,-0.0732,-0.01464,0.28792,-0.00976,-0.08296,0.0732
0.0244,-0.01708,0.00976,-0.00244,-0.01464,0.01952,-0.05368,-0.00488,0.28792,-0.01952,-0.09272,0.06344
0.01464,-0.00244,-0.00976,-0.01708,-0.0244,0.01952,-0.04392,0,0.27816,-0.03416,-0.10248,0.0488
-0.00488,0.02196,-0.03904,-0.0366,-0.03416,0.01464,-0.03904,0,0.27328,-0.04392,-0.11224,0.02928
-0.00488,0.02928,-0.05368,-0.05124,-0.0488,0.02196,-0.03904,0,0.26352,-0.05368,-0.122,0.01952
-0.00488,0.03172,-0.05856,-0.05612,-0.05368,0.0244,-0.02928,0,0.25376,-0.06344,-0.13176,0.01464
-0.00488,0.03172,-0.05856,-0.05612,-0.05368,0.0244,-0.0244,0,0.24888,-0.06344,-0.13664,0.00488
-0.00488,0.03416,-0.06344,-0.061,-0.05856,0.02684,-0.01952,0,0.24888,-0.06832,-0.1464,0.00488
-0.00488,0.03904,-0.0732,-0.07076,-0.06832,0.03172,-0.01952,0,0.23912,-0.06832,-0.1464,-0.00488
-0.00976,0.04148,-0.0732,-0.06832,-0.06344,0.02684,-0.01952,0.00488,0.23424,-0.06344,-0.14152,-0.00976
-0.00488,0.0366,-0.06832,-0.06588,-0.06344,0.02928,-0.0244,0.00488,0.23424,-0.05856,-0.1464,-0.00488
0,0.03416,-0.06832,-0.06832,-0.06832,0.03416,-0.0244,0.00488,0.23424,-0.05368,-0.15128,-0.00488
-0.00488,0.03904,-0.0732,-0.07076,-0.06832,0.03172,-0.0244,0.00976,0.23912,-0.05368,-0.1464,-0.00976
-0.00488,0.04148,-0.07808,-0.07564,-0.0732,0.03416,-0.01464,0.01464,0.24888,-0.0488,-0.1464,-0.00976
0,0.04392,-0.08784,-0.08784,-0.08784,0.04392,-0.00976,0.03416,0.25864,-0.04392,-0.16104,-0.01952
0.00976,0.05368,-0.11712,-0.122,-0.12688,0.06832,0.00488,0.10736,0.3416,-0.03416,-0.16104,-0.03416
0.0488,0.00976,-0.06832,-0.09272,-0.11712,0.08296,-0.00488,0.1708,0.52704,0.0976,-0.10736,0
0.13664,-0.1342,0.13176,0.06344,-0.00488,0.07076,-0.12688,0.18056,0.72224,0.37576,0.07808,0.13176
0.29768,-0.40504,0.5124,0.36356,0.21472,0.04148,-0.38552,0.17568,0.91256,0.80032,0.40016,0.3904
0.53192,-0.76616,1.0004,0.73444,0.46848,0.03172,-0.69784,0.17568,1.26392,1.35176,0.84424,0.76616
0.81984,-1.19804,1.57624,1.16632,0.7564,0.03172,-1.05408,0.11224,1.54208,1.91296,1.32248,1.18096
1.0736,-1.55916,2.04472,1.50792,0.97112,0.05124,-1.39568,0.00488,1.55672,2.24968,1.6592,1.51768
1.14192,-1.63236,2.1228,1.55184,0.98088,0.08052,-1.54208,-0.22936,1.18096,2.02032,1.65432,1.62504
0.98088,-1.42008,1.85928,1.36884,0.8784,0.05124,-1.4396,-0.53192,0.49288,1.35664,1.33712,1.46888
0.61,-0.93696,1.26392,0.95892,0.65392,-0.02196,-1.1224,-0.8296,-0.35624,0.488,0.75152,1.0492
0.23912,-0.48312,0.72712,0.60756,0.488,-0.12444,-0.73688,-0.87352,-0.81984,-0.122,0.23912,0.60512
0.11224,-0.26352,0.4148,0.35868,0.30256,-0.09516,-0.50752,-0.66856,-0.64416,-0.21472,0.0488,0.37088
0.06832,-0.21716,0.366,0.33184,0.29768,-0.11468,-0.3904,-0.48312,-0.32208,-0.0976,0.08296,0.3416
0.03904,-0.1098,0.18056,0.16104,0.14152,-0.05124,-0.2196,-0.23912,-0.0732,-0.10248,-0.01464,0.19032
-0.00976,0.00488,0,0.00488,0.00976,-0.00976,-0.05368,-0.06832,0.09272,-0.11224,-0.09272,0.05368
-0.0244,0.02928,-0.03416,-0.02196,-0.00976,-0.00732,0,0.00976,0.20496,-0.06832,-0.10248,0.03416
0,0.00732,-0.01464,-0.01464,-0.01464,0.00732,-0.01464,0.02928,0.23912,-0.0488,-0.10248,0.0488
0.00488,0.00976,-0.0244,-0.02684,-0.02928,0.01708,-0.00488,0.0488,0.24888,-0.04392,-0.10248,0.03416
0.00488,0.0122,-0.02928,-0.03172,-0.03416,0.01952,0.00488,0.07808,0.27816,-0.04392,-0.10248,0.0244
0.00488,0.0122,-0.02928,-0.03172,-0.03416,0.01952,0.00976,0.07808,0.29768,-0.05856,-0.11224,0.01952
0.00488,0.01708,-0.03904,-0.04148,-0.04392,0.0244,0.00976,0.08784,0.29768,-0.09272,-0.11224,0.01952
0.00976,0.01464,-0.03904,-0.04392,-0.0488,0.02928,0.00976,0.09272,0.31232,-0.10248,-0.11224,0.01464
0.01464,0.0122,-0.03904,-0.04636,-0.05368,0.03416,0.00976,0.10736,0.32696,-0.10248,-0.11712,0.01464
0.01464,0.00732,-0.02928,-0.0366,-0.04392,0.02928,0.00976,0.10736,0.33672,-0.08784,-0.12688,0.01464
0.01952,-0.00244,-0.01464,-0.0244,-0.03416,0.02684,0.00976,0.11224,0.34648,-0.0732,-0.122,0.01464
0.0244,-0.00488,-0.01464,-0.02684,-0.03904,0.03172,0.00976,0.11712,0.35136,-0.04392,-0.11712,0.01952
0.02928,-0.00732,-0.01464,-0.02928,-0.04392,0.0366,0.01464,0.122,0.37088,-0.00976,-0.10736,0.0244
0.03904,-0.0122,-0.01464,-0.03416,-0.05368,0.04636,0.01464,0.13176,0.37576,0.0244,-0.10248,0.03416
0.03904,-0.00976,-0.01952,-0.03904,-0.05856,0.0488,0.01464,0.13664,0.38552,0.06832,-0.0976,0.03904
0.03904,-0.00732,-0.0244,-0.04392,-0.06344,0.05124,0.01952,0.14152,0.39528,0.0732,-0.09272,0.04392
0.03904,-0.00732,-0.0244,-0.04392,-0.06344,0.05124,0.0244,0.1464,0.40016,0.07808,-0.07808,0.04392
0.04392,-0.00976,-0.0244,-0.04636,-0.06832,0.05612,0.0244,0.15128,0.40992,0.08784,-0.08784,0.05856
0.04392,-0.00732,-0.02928,-0.05124,-0.0732,0.05856,0.0244,0.15616,0.41968,0.07808,-0.09272,0.05856
0.04392,-0.00732,-0.02928,-0.05124,-0.0732,0.05856,0.01952,0.15616,0.41968,0.06832,-0.10248,0.05368
0.0488,-0.0122,-0.0244,-0.0488,-0.0732,0.061,0.01464,0.16104,0.43432,0.0488,-0.11224,0.05368
0.0488,-0.01464,-0.01952,-0.04392,-0.06832,0.05856,0.01464,0.16104,0.44408,0.03904,-0.11712,0.05368
0.0488,-0.01952,-0.00976,-0.03416,-0.05856,0.05368,0.01464,0.1708,0.45384,0.0244,-0.11712,0.05368
0.05368,-0.0244,-0.00488,-0.03172,-0.05856,0.05612,0.01464,0.17568,0.4636,0.00976,-0.13176,0.05856
0.05368,-0.0244,-0.00488,-0.03172,-0.05856,0.05612,0.01464,0.18056,0.47336,0,-0.1464,0.06344
0.05856,-0.03172,0.00488,-0.0244,-0.05368,0.05612,0.01464,0.19032,0.48312,0,-0.15128,0.06344
0.05856,-0.03416,0.00976,-0.01952,-0.0488,0.05368,0.01464,0.20496,0.49776,0,-0.15616,0.06344
0.06344,-0.03904,0.01464,-0.01708,-0.0488,0.05612,0.01464,0.20984,0.50752,0.00976,-0.15616,0.06344
0.06344,-0.04148,0.01952,-0.0122,-0.04392,0.05368,0.01464,0.21472,0.51728,0.0244,-0.15128,0.06832
0.06832,-0.0488,0.02928,-0.00488,-0.03904,0.05368,0.01464,0.2196,0.52704,0.03416,-0.15128,0.06832
0.06832,-0.05124,0.03416,0,-0.03416,0.05124,0.01464,0.22936,0.54656,0.05368,-0.1464,0.0732
0.06832,-0.05368,0.03904,0.00488,-0.02928,0.0488,0.01952,0.23912,0.5612,0.05856,-0.1464,0.0732
0.0732,-0.05856,0.04392,0.00732,-0.02928,0.05124,0.01952,0.25376,0.58072,0.07808,-0.13664,0.08296
0.07808,-0.061,0.04392,0.00488,-0.03416,0.05612,0.01952,0.26352,0.59536,0.09272,-0.13176,0.08296
0.07808,-0.061,0.04392,0.00488,-0.03416,0.05612,0.01952,0.27328,0.61976,0.10736,-0.12688,0.08784
0.08784,-0.06832,0.0488,0.00488,-0.03904,0.06344,0.01952,0.2928,0.6344,0.11224,-0.11712,0.08784
0.08784,-0.06832,0.0488,0.00488,-0.03904,0.06344,0.01952,0.29768,0.64904,0.12688,-0.11224,0.09272
0.09272,-0.07808,0.06344,0.01708,-0.02928,0.061,0.0244,0.3172,0.66856,0.13664,-0.10248,0.0976
0.09272,-0.07808,0.06344,0.01708,-0.02928,0.061,0.02928,0.33184,0.6832,0.1464,-0.0976,0.10248
0.0976,-0.08296,0.06832,0.01952,-0.02928,0.06344,0.02928,0.34648,0.70272,0.1464,-0.0976,0.11224
0.0976,-0.08052,0.06344,0.01464,-0.03416,0.06588,0.03416,0.36112,0.72224,0.1464,-0.0976,0.11224
0.10248,-0.0854,0.06832,0.01708,-0.03416,0.06832,0.03904,0.37576,0.73688,0.15128,-0.10248,0.11224
0.10736,-0.09272,0.07808,0.0244,-0.02928,0.06832,0.04392,0.3904,0.7564,0.15616,-0.10248,0.122
0.10736,-0.09272,0.07808,0.0244,-0.02928,0.06832,0.04392,0.39528,0.76128,0.15616,-0.0976,0.122
0.11224,-0.0976,0.08296,0.02684,-0.02928,0.07076,0.04392,0.40504,0.77104,0.15128,-0.10248,0.12688
0.11224,-0.10004,0.08784,0.03172,-0.0244,0.06832,0.03904,0.40504,0.77104,0.1464,-0.0976,0.13176
0.11224,-0.10004,0.08784,0.03172,-0.0244,0.06832,0.03416,0.40504,0.76616,0.14152,-0.0976,0.13176
0.11224,-0.10248,0.09272,0.0366,-0.01952,0.06588,0.03416,0.40504,0.76128,0.13176,-0.10248,0.13176
0.11224,-0.10492,0.0976,0.04148,-0.01464,0.06344,0.03416,0.40504,0.75152,0.12688,-0.10248,0.13176
0.11224,-0.10492,0.0976,0.04148,-0.01464,0.06344,0.02928,0.3904,0.72712,0.122,-0.10248,0.13176
0.10248,-0.10004,0.0976,0.04636,-0.00488,0.05368,0.02928,0.37576,0.7076,0.10736,-0.10736,0.13176
0.0976,-0.10248,0.10736,0.05856,0.00976,0.04392,0.0244,0.35624,0.6832,0.09272,-0.11224,0.12688
0.08296,-0.0976,0.11224,0.07076,0.02928,0.02684,0.01952,0.33672,0.6588,0.07808,-0.11224,0.122
0.08296,-0.0976,0.11224,0.07076,0.02928,0.02684,0.01464,0.31232,0.62952,0.06832,-0.11712,0.122
0.07808,-0.09516,0.11224,0.0732,0.03416,0.02196,0.00976,0.2928,0.60512,0.05368,-0.11712,0.122
0.0732,-0.09028,0.10736,0.07076,0.03416,0.01952,0.00976,0.25864,0.57096,0.0488,-0.12688,0.12688
0.06344,-0.08296,0.10248,0.07076,0.03904,0.0122,0,0.23424,0.54168,0.04392,-0.13176,0.12688
0.06344,-0.07808,0.09272,0.061,0.02928,0.01708,-0.00488,0.20496,0.5124,0.02928,-0.13664,0.12688
0.05368,-0.07076,0.08784,0.061,0.03416,0.00976,-0.01464,0.18056,0.47824,0.02928,-0.13664,0.12688
0.0488,-0.061,0.0732,0.0488,0.0244,0.0122,-0.01952,0.15128,0.44896,0.01464,-0.14152,0.122
0.04392,-0.05368,0.06344,0.04148,0.01952,0.0122,-0.02928,0.13176,0.42456,0,-0.1464,0.122
0.03904,-0.04392,0.0488,0.02928,0.00976,0.01464,-0.03904,0.11712,0.40504,-0.01952,-0.16592,0.11224
0.04392,-0.03904,0.03416,0.0122,-0.00976,0.02684,-0.03904,0.10248,0.38552,-0.03904,-0.18544,0.10248
0.02928,-0.02196,0.01464,0,-0.01464,0.02196,-0.03904,0.08784,0.36112,-0.0488,-0.1952,0.09272
0.02928,-0.01708,0.00488,-0.00976,-0.0244,0.02684,-0.03904,0.07808,0.34648,-0.06344,-0.20008,0.08296
0.01464,-0.00732,0,-0.00732,-0.01464,0.01464,-0.03904,0.06344,0.33184,-0.07808,-0.20984,0.07808
0.00488,0.00488,-0.01464,-0.01708,-0.01952,0.0122,-0.03904,0.05856,0.3172,-0.08784,-0.20984,0.07808
0.00488,0.00732,-0.01952,-0.02196,-0.0244,0.01464,-0.03904,0.0488,0.29768,-0.10736,-0.21472,0.0732
0,0.01464,-0.02928,-0.02928,-0.02928,0.01464,-0.03904,0.03904,0.28792,-0.122,-0.21472,0.06344
-0.00976,0.02196,-0.03416,-0.02928,-0.0244,0.00732,-0.03904,0.03904,0.27816,-0.12688,-0.21472,0.05856
-0.01464,0.02928,-0.04392,-0.0366,-0.02928,0.00732,-0.03904,0.03416,0.2684,-0.13176,-0.21472,0.05368
-0.01464,0.02684,-0.03904,-0.03172,-0.0244,0.00488,-0.03904,0.02928,0.26352,-0.12688,-0.2196,0.05368
-0.01464,0.02684,-0.03904,-0.03172,-0.0244,0.00488,-0.03904,0.02928,0.26352,-0.122,-0.2196,0.05368
-0.01464,0.02928,-0.04392,-0.0366,-0.02928,0.00732,-0.02928,0.02928,0.25864,-0.122,-0.21472,0.04392
-0.01464,0.03172,-0.0488,-0.04148,-0.03416,0.00976,-0.0244,0.02928,0.25376,-0.11224,-0.20984,0.04392
-0.01464,0.03172,-0.0488,-0.04148,-0.03416,0.00976,-0.0244,0.02928,0.25376,-0.11224,-0.20984,0.03904
-0.01464,0.03172,-0.0488,-0.04148,-0.03416,0.00976,-0.0244,0.02928,0.25864,-0.11712,-0.20496,0.03904
-0.01464,0.03172,-0.0488,-0.04148,-0.03416,0.00976,-0.0244,0.02928,0.25864,-0.12688,-0.20984,0.03904
-0.01464,0.03416,-0.05368,-0.04636,-0.03904,0.0122,-0.01952,0.03416,0.25864,-0.13664,-0.20984,0.02928
-0.01464,0.03416,-0.05368,-0.04636,-0.03904,0.0122,-0.01952,0.03904,0.25864,-0.1464,-0.20984,0.02928
-0.00976,0.0366,-0.06344,-0.05856,-0.05368,0.02196,-0.01952,0.04392,0.25864,-0.15128,-0.21472,0.02928
-0.00976,0.0366,-0.06344,-0.05856,-0.05368,0.02196,-0.01952,0.04392,0.25864,-0.15616,-0.2196,0.0244
-0.00976,0.03904,-0.06832,-0.06344,-0.05856,0.0244,-0.0244,0.0488,0.25864,-0.15616,-0.2196,0.0244
-0.00976,0.03904,-0.06832,-0.06344,-0.05856,0.0244,-0.0244,0.0488,0.25864,-0.15616,-0.2196,0.0244
-0.00976,0.0366,-0.06344,-0.05856,-0.05368,0.02196,-0.0244,0.0488,0.2684,-0.13664,-0.2196,0.0244
-0.00976,0.0366,-0.06344,-0.05856,-0.05368,0.02196,-0.0244,0.0488,0.2684,-0.12688,-0.21472,0.0244
-0.00976,0.03416,-0.05856,-0.05368,-0.0488,0.01952,-0.0244,0.05856,0.27816,-0.122,-0.20984,0.02928
-0.00976,0.03172,-0.05368,-0.0488,-0.04392,0.01708,-0.0244,0.05368,0.28304,-0.11224,-0.20008,0.02928
-0.00976,0.02928,-0.0488,-0.04392,-0.03904,0.01464,-0.0244,0.05368,0.28792,-0.10736,-0.18544,0.03416
0.00488,0.01708,-0.03904,-0.04148,-0.04392,0.0244,-0.02928,0.0488,0.28792,-0.0976,-0.17568,0.03904
0.01952,0.00488,-0.02928,-0.03904,-0.0488,0.03416,-0.03416,0.0488,0.2928,-0.09272,-0.16592,0.0488
0.0244,-0.00244,-0.01952,-0.03172,-0.04392,0.03416,-0.03416,0.0488,0.2928,-0.0976,-0.15128,0.0488
0.0244,-0.00732,-0.00976,-0.02196,-0.03416,0.02928,-0.03416,0.05368,0.30256,-0.0976,-0.13664,0.05368
0.02928,-0.00976,-0.00976,-0.0244,-0.03904,0.03416,-0.03416,0.0488,0.30256,-0.0976,-0.12688,0.05368
0.02928,-0.00976,-0.00976,-0.0244,-0.03904,0.03416,-0.03416,0.04392,0.30256,-0.10248,-0.122,0.05368
0.0244,-0.00488,-0.01464,-0.02684,-0.03904,0.03172,-0.03904,0.04392,0.30744,-0.0976,-0.11712,0.05368
0.01952,-0.00244,-0.01464,-0.0244,-0.03416,0.02684,-0.03904,0.04392,0.30744,-0.09272,-0.122,0.0488
0.01464,0,-0.01464,-0.02196,-0.02928,0.02196,-0.03904,0.03904,0.30256,-0.09272,-0.11712,0.0488
0.00976,0.00488,-0.01952,-0.0244,-0.02928,0.01952,-0.03904,0.03904,0.30256,-0.0976,-0.11712,0.0488
0.00976,0.00244,-0.01464,-0.01952,-0.0244,0.01708,-0.03904,0.03904,0.29768,-0.0976,-0.11712,0.0488
0.00976,0,-0.00976,-0.01464,-0.01952,0.01464,-0.03904,0.03904,0.2928,-0.0976,-0.11712,0.0488
0.00976,0,-0.00976,-0.01464,-0.01952,0.01464,-0.03904,0.03416,0.2928,-0.10736,-0.11712,0.0488
0.00976,0,-0.00976,-0.01464,-0.01952,0.01464,-0.03904,0.02928,0.28792,-0.11224,-0.11712,0.04392
0.00976,0,-0.00976,-0.01464,-0.01952,0.01464,-0.03904,0.02928,0.28792,-0.11712,-0.11712,0.04392
0.00976,0,-0.00976,-0.01464,-0.01952,0.01464,-0.03904,0.02928,0.28304,-0.12688,-0.122,0.03904
0.00976,0.00244,-0.01464,-0.01952,-0.0244,0.01708,-0.03904,0.02928,0.27816,-0.14152,-0.122,0.03416
0.01464,0,-0.01464,-0.02196,-0.02928,0.02196,-0.03904,0.0244,0.27328,-0.15616,-0.122,0.02928
0.01464,0,-0.01464,-0.02196,-0.02928,0.02196,-0.03904,0.01952,0.26352,-0.16104,-0.13176,0.0244
0.00976,0.00488,-0.01952,-0.0244,-0.02928,0.01952,-0.03904,0.01952,0.26352,-0.16592,-0.13176,0.0244
0.00488,0.00732,-0.01952,-0.02196,-0.0244,0.01464,-0.03904,0.01464,0.25376,-0.18056,-0.13176,0.01952
0,0.00976,-0.01952,-0.01952,-0.01952,0.00976,-0.03904,0.00976,0.25376,-0.18544,-0.13176,0.01952
0,0.0122,-0.0244,-0.0244,-0.0244,0.0122,-0.03904,0.00976,0.23912,-0.18544,-0.13176,0.01952
0,0.01464,-0.02928,-0.02928,-0.02928,0.01464,-0.03904,0.00976,0.23424,-0.18544,-0.13176,0.01952
0,0.01464,-0.02928,-0.02928,-0.02928,0.01464,-0.03416,0,0.23424,-0.18544,-0.12688,0.01464
0,0.01464,-0.02928,-0.02928,-0.02928,0.01464,-0.02928,-0.00488,0.23424,-0.18544,-0.11712,0.01464
0,0.0122,-0.0244,-0.0244,-0.0244,0.0122,-0.0244,-0.00488,0.23912,-0.18056,-0.11712,0.01952
0,0.00732,-0.01464,-0.01464,-0.01464,0.00732,-0.01464,0,0.23912,-0.17568,-0.10736,0.01952
0,0.00244,-0.00488,-0.00488,-0.00488,0.00244,-0.00488,0.00488,0.23912,-0.1708,-0.0976,0.0244
0.00488,-0.00732,0.00976,0.00732,0.00488,0,0,0.00488,0.244,-0.16104,-0.08784,0.0244
0.00976,-0.0122,0.01464,0.00976,0.00488,0.00244,0,0.00488,0.244,-0.16104,-0.08296,0.0244
0.01464,-0.02196,0.02928,0.02196,0.01464,0,-0.00488,0.00488,0.25376,-0.1464,-0.0732,0.03416
0.02928,-0.03904,0.0488,0.03416,0.01952,0.00488,-0.0244,0.00488,0.24888,-0.13176,-0.06344,0.03416
0.03416,-0.05368,0.0732,0.05612,0.03904,-0.00244,-0.04392,-0.01464,0.244,-0.122,-0.0488,0.0488
0.03416,-0.05856,0.08296,0.06588,0.0488,-0.00732,-0.05856,-0.0244,0.244,-0.11224,-0.03904,0.0488
0.02928,-0.061,0.09272,0.07808,0.06344,-0.01708,-0.06344,-0.02928,0.244,-0.10248,-0.02928,0.05856
0.04392,-0.0732,0.10248,0.08052,0.05856,-0.00732,-0.06832,-0.02928,0.23912,-0.0976,-0.02928,0.05856
0.05368,-0.0854,0.11712,0.09028,0.06344,-0.00488,-0.07808,-0.02928,0.23912,-0.0976,-0.01464,0.06832
0.05856,-0.08784,0.11712,0.08784,0.05856,0,-0.08296,-0.03904,0.22448,-0.0976,-0.01464,0.06832
0.05856,-0.08784,0.11712,0.08784,0.05856,0,-0.09272,-0.0488,0.21472,-0.10248,-0.01464,0.06832
0.05368,-0.0732,0.09272,0.06588,0.03904,0.00732,-0.09272,-0.0488,0.20008,-0.122,-0.0244,0.05856
0.03904,-0.05856,0.07808,0.05856,0.03904,0,-0.08784,-0.0488,0.20008,-0.13664,-0.0244,0.0488
0.03416,-0.03904,0.04392,0.02684,0.00976,0.0122,-0.07808,-0.03416,0.20008,-0.15128,-0.03904,0.03416
0.01464,-0.02196,0.02928,0.02196,0.01464,0,-0.05368,-0.0244,0.20008,-0.15616,-0.04392,0.0244
0.00976,-0.00976,0.00976,0.00488,0,0.00488,-0.0488,-0.01952,0.19032,-0.1708,-0.05368,0.00976
-0.00488,0.0122,-0.01952,-0.01708,-0.01464,0.00488,-0.0488,-0.01952,0.18544,-0.18056,-0.06344,-0.00976
-0.00488,0.01952,-0.03416,-0.03172,-0.02928,0.0122,-0.0488,-0.01952,0.17568,-0.18544,-0.06832,-0.01464
-0.00488,0.02196,-0.03904,-0.0366,-0.03416,0.01464,-0.03904,-0.01952,0.16592,-0.19032,-0.0732,-0.01464
-0.00488,0.02196,-0.03904,-0.0366,-0.03416,0.01464,-0.03904,-0.01952,0.16104,-0.19032,-0.06832,-0.0244
-0.00488,0.0244,-0.04392,-0.04148,-0.03904,0.01708,-0.03904,-0.01952,0.16104,-0.1952,-0.06832,-0.0244
-0.00488,0.02928,-0.05368,-0.05124,-0.0488,0.02196,-0.03904,-0.01952,0.15616,-0.1952,-0.06832,-0.02928
-0.00976,0.03172,-0.05368,-0.0488,-0.04392,0.01708,-0.03904,-0.01464,0.15616,-0.19032,-0.06344,-0.02928
-0.00976,0.03172,-0.05368,-0.0488,-0.04392,0.01708,-0.03904,-0.01464,0.15616,-0.18544,-0.06344,-0.0244
-0.00976,0.03416,-0.05856,-0.05368,-0.0488,0.01952,-0.03416,-0.01464,0.15616,-0.18056,-0.06344,-0.0244
-0.01464,0.04148,-0.06832,-0.061,-0.05368,0.01952,-0.03416,-0.00488,0.15616,-0.18056,-0.05368,-0.02928
-0.01464,0.04636,-0.07808,-0.07076,-0.06344,0.0244,-0.0244,0.00488,0.16104,-0.17568,-0.0488,-0.02928
-0.00976,0.03416,-0.05856,-0.05368,-0.0488,0.01952,-0.03416,0.01952,0.20008,-0.13664,-0.04392,-0.0244
0,0.02928,-0.05856,-0.05856,-0.05856,0.02928,-0.03416,0.08784,0.31232,-0.09272,-0.0244,-0.0244
0.06832,-0.07076,0.0732,0.03904,0.00488,0.03172,-0.09272,0.13176,0.5124,0.10248,0.10248,0.05856
0.18544,-0.27084,0.35624,0.26352,0.1708,0.00732,-0.26352,0.122,0.72224,0.44408,0.36112,0.23912
0.3416,-0.5734,0.8052,0.6344,0.4636,-0.061,-0.54656,0.06832,0.89792,0.91744,0.71736,0.52216
0.57096,-0.96624,1.36152,1.07604,0.79056,-0.1098,-0.88328,0.01952,1.23464,1.51768,1.1956,0.92232
0.8052,-1.33224,1.85928,1.45668,1.05408,-0.12444,-1.18584,-0.08296,1.39568,1.96664,1.61528,1.27856
1.00528,-1.62748,2.24968,1.74704,1.2444,-0.11956,-1.47376,-0.22936,1.2932,2.19112,1.89344,1.55672
0.99064,-1.58112,2.1716,1.67628,1.18096,-0.09516,-1.52744,-0.4148,0.84912,1.82512,1.75192,1.5616
0.74664,-1.24928,1.75192,1.3786,1.00528,-0.12932,-1.33224,-0.66856,0.09272,1.0248,1.29808,1.30296
0.46848,-0.81252,1.15656,0.92232,0.68808,-0.1098,-1.0248,-0.86376,-0.5612,0.24888,0.75152,0.90768
0.19032,-0.40504,0.61976,0.5246,0.42944,-0.11956,-0.64904,-0.8052,-0.8296,-0.2684,0.27816,0.488
0.06344,-0.1952,0.32696,0.29524,0.26352,-0.10004,-0.4392,-0.59536,-0.66368,-0.33672,0.0976,0.2684
0.01952,-0.1586,0.29768,0.28792,0.27816,-0.12932,-0.3416,-0.40504,-0.35136,-0.1952,0.14152,0.25376
0.00976,-0.07808,0.1464,0.14152,0.13664,-0.06344,-0.19032,-0.20496,-0.11712,-0.17568,0.06344,0.13664
-0.01952,0.00976,0,0.00976,0.01952,-0.01952,-0.04392,-0.07808,0.03416,-0.16104,0.00488,0.03416
-0.03416,0.02928,-0.0244,-0.00732,0.00976,-0.02196,0,-0.00488,0.122,-0.11712,0.00488,0.01464
-0.00976,0.00244,0.00488,0.00976,0.01464,-0.0122,-0.0244,0.00976,0.13176,-0.0976,0.01464,0.02928
-0.00488,0.00488,-0.00488,-0.00244,0,-0.00244,-0.01464,0.0244,0.1464,-0.0976,0.01464,0.01952
-0.00488,0.00732,-0.00976,-0.00732,-0.00488,0,-0.00488,0.0488,0.18056,-0.10248,0.01464,0.01464
-0.00488,0.00732,-0.00976,-0.00732,-0.00488,0,0,0.0488,0.20008,-0.11224,0,0.00976
-0.00488,0.0122,-0.01952,-0.01708,-0.01464,0.00488,0,0.05856,0.20008,-0.14152,-0.00488,0.00976
-0.00488,0.00976,-0.01464,-0.0122,-0.00976,0.00244,0.00488,0.06344,0.21472,-0.15128,-0.00488,0.00488
-0.00488,0.00732,-0.00976,-0.00732,-0.00488,0,0.00976,0.07808,0.22936,-0.15128,-0.00976,0.00488
-0.00488,0.00732,-0.00976,-0.00732,-0.00488,0,0.00976,0.07808,0.23912,-0.1464,-0.01952,0.00976
0,0.00244,-0.00488,-0.00488,-0.00488,0.00244,0.00976,0.08296,0.24888,-0.14152,-0.01464,0.01464
0,0.00244,-0.00488,-0.00488,-0.00488,0.00244,0.00488,0.08296,0.244,-0.11712,-0.01464,0.01464
0,0.00244,-0.00488,-0.00488,-0.00488,0.00244,0.00488,0.08296,0.25376,-0.08784,-0.00976,0.01464
0.00488,-0.00244,0,-0.00244,-0.00488,0.00488,0,0.08784,0.25376,-0.06344,0.00488,0.01952
0,0,0,0,0,0,-0.00488,0.08784,0.25864,-0.02928,0.01952,0.01952
0,0,0,0,0,0,-0.00488,0.09272,0.2684,-0.02928,0.0244,0.0244
0,-0.00244,0.00488,0.00488,0.00488,-0.00244,-0.00488,0.0976,0.27328,-0.02928,0.03904,0.0244
0.00488,-0.00732,0.00976,0.00732,0.00488,0,-0.00488,0.10248,0.28304,-0.02928,0.03904,0.03416
0.00488,-0.00732,0.00976,0.00732,0.00488,0,-0.00488,0.10736,0.2928,-0.0488,0.04392,0.02928
0.00488,-0.00732,0.00976,0.00732,0.00488,0,-0.00488,0.10736,0.2928,-0.06344,0.04392,0.02928
0.00976,-0.0122,0.01464,0.00976,0.00488,0.00244,-0.00488,0.11224,0.30744,-0.08784,0.04392,0.03416
0.00976,-0.0122,0.01464,0.00976,0.00488,0.00244,-0.00488,0.11224,0.31232,-0.0976,0.03904,0.03416
0.00976,-0.01464,0.01952,0.01464,0.00976,0,-0.00488,0.122,0.3172,-0.11224,0.03904,0.03416
0.01464,-0.01952,0.0244,0.01708,0.00976,0.00244,-0.00488,0.122,0.32696,-0.122,0.03904,0.03416
0.01464,-0.01952,0.0244,0.01708,0.00976,0.00244,-0.00488,0.122,0.33672,-0.12688,0.03904,0.03416
0.01952,-0.02684,0.03416,0.0244,0.01464,0.00244,-0.00488,0.12688,0.34648,-0.11712,0.03416,0.03904
0.01952,-0.02928,0.03904,0.02928,0.01952,0,-0.00488,0.13664,0.36112,-0.10736,0.02928,0.04392
0.0244,-0.03416,0.04392,0.03172,0.01952,0.00244,-0.00488,0.14152,0.37088,-0.08784,0.02928,0.04392
0.0244,-0.0366,0.0488,0.0366,0.0244,0,-0.00488,0.1464,0.38064,-0.06344,0.03416,0.0488
0.02928,-0.04148,0.05368,0.03904,0.0244,0.00244,-0.00488,0.15128,0.3904,-0.04392,0.03416,0.0488
0.02928,-0.04148,0.05368,0.03904,0.0244,0.00244,-0.00488,0.16104,0.40992,-0.01464,0.03904,0.05368
0.0244,-0.03904,0.05368,0.04148,0.02928,-0.00244,0,0.1708,0.42456,-0.00976,0.04392,0.05368
0.0244,-0.03904,0.05368,0.04148,0.02928,-0.00244,0,0.18544,0.44408,0.00976,0.05856,0.06344
0.02928,-0.04392,0.05856,0.04392,0.02928,0,0,0.1952,0.45872,0.0244,0.06832,0.06344
0.02928,-0.04636,0.06344,0.0488,0.03416,-0.00244,0,0.20496,0.48312,0.03904,0.07808,0.06832
0.03904,-0.061,0.08296,0.06344,0.04392,-0.00244,0,0.22448,0.49776,0.0488,0.08784,0.06832
0.03904,-0.06832,0.0976,0.07808,0.05856,-0.00976,0,0.22936,0.5124,0.06832,0.09272,0.0732
0.04392,-0.0732,0.10248,0.08052,0.05856,-0.00732,0.00488,0.244,0.53192,0.07808,0.0976,0.07808
0.04392,-0.06832,0.09272,0.07076,0.0488,-0.00244,0.00976,0.25376,0.54656,0.08784,0.0976,0.08296
0.0488,-0.07564,0.10248,0.07808,0.05368,-0.00244,0.00976,0.2684,0.56608,0.08784,0.10248,0.09272
0.0488,-0.07564,0.10248,0.07808,0.05368,-0.00244,0.01464,0.28304,0.5856,0.08784,0.10736,0.09272
0.0488,-0.07808,0.10736,0.08296,0.05856,-0.00488,0.01464,0.2928,0.59048,0.08784,0.10248,0.08784
0.0488,-0.08296,0.11712,0.09272,0.06832,-0.00976,0.01464,0.30256,0.60024,0.08784,0.10248,0.09272
0.0488,-0.08296,0.11712,0.09272,0.06832,-0.00976,0.01464,0.30744,0.60512,0.09272,0.10736,0.09272
0.05368,-0.08784,0.122,0.09516,0.06832,-0.00732,0.01464,0.3172,0.61488,0.09272,0.10248,0.0976
0.05856,-0.09272,0.12688,0.0976,0.06832,-0.00488,0.01952,0.3172,0.61488,0.09272,0.10248,0.10248
0.06344,-0.09516,0.12688,0.09516,0.06344,0,0.0244,0.3172,0.61,0.09272,0.0976,0.10248
0.06344,-0.09516,0.12688,0.09516,0.06344,0,0.0244,0.31232,0.60512,0.07808,0.09272,0.10736
0.06344,-0.09516,0.12688,0.09516,0.06344,0,0.0244,0.30744,0.59536,0.06832,0.09272,0.11224
0.05368,-0.08784,0.122,0.09516,0.06832,-0.00732,0.01952,0.29768,0.57096,0.06344,0.09272,0.11224
0.03416,-0.07564,0.11712,0.10004,0.08296,-0.0244,0.01952,0.28792,0.55144,0.0488,0.08784,0.11224
0.03416,-0.07564,0.11712,0.10004,0.08296,-0.0244,0.01464,0.2684,0.52704,0.03904,0.08296,0.11224
0.0244,-0.06832,0.11224,0.10004,0.08784,-0.03172,0.00976,0.24888,0.50264,0.02928,0.08296,0.11224
0.0244,-0.06832,0.11224,0.10004,0.08784,-0.03172,0.00488,0.2196,0.46848,0.01952,0.07808,0.11224
0.01952,-0.06588,0.11224,0.10248,0.09272,-0.0366,0,0.1952,0.4392,0.00488,0.07808,0.11224
0.01464,-0.06344,0.11224,0.10492,0.0976,-0.04148,-0.00488,0.16104,0.40016,0,0.0732,0.11712
0.00488,-0.05856,0.11224,0.1098,0.10736,-0.05124,-0.01952,0.13664,0.366,-0.00488,0.0732,0.11712
0.00488,-0.05368,0.10248,0.10004,0.0976,-0.04636,-0.0244,0.10736,0.33672,-0.01952,0.06832,0.11224
-0.00488,-0.04636,0.0976,0.10004,0.10248,-0.05368,-0.03416,0.08296,0.30256,-0.01952,0.06832,0.10736
-0.00976,-0.0366,0.08296,0.08784,0.09272,-0.05124,-0.03416,0.05856,0.27328,-0.03416,0.05856,0.10248
-0.01464,-0.02928,0.0732,0.08052,0.08784,-0.05124,-0.03904,0.04392,0.24888,-0.0488,0.0488,0.10248
-0.01952,-0.0244,0.06832,0.07808,0.08784,-0.05368,-0.0488,0.02928,0.22448,-0.06344,0.03904,0.09272
-0.01464,-0.0244,0.06344,0.07076,0.07808,-0.04636,-0.0488,0.01464,0.20008,-0.07808,0.02928,0.08296
-0.02928,-0.00732,0.04392,0.05856,0.0732,-0.05124,-0.0488,0,0.17568,-0.08296,0.01952,0.0732
-0.02928,-0.00244,0.03416,0.0488,0.06344,-0.04636,-0.0488,-0.00976,0.16104,-0.09272,0.01464,0.06344
-0.03904,0.00488,0.02928,0.0488,0.06832,-0.05368,-0.0488,-0.0244,0.15128,-0.10248,0.00488,0.05856
-0.04392,0.01464,0.01464,0.0366,0.05856,-0.05124,-0.0488,-0.02928,0.14152,-0.10736,0.00488,0.05856
-0.03904,0.01464,0.00976,0.02928,0.0488,-0.04392,-0.0488,-0.03416,0.122,-0.11712,-0.00976,0.05368
-0.03904,0.01952,0,0.01952,0.03904,-0.03904,-0.0488,-0.03904,0.11224,-0.122,-0.01952,0.04392
-0.0488,0.02684,-0.00488,0.01952,0.04392,-0.04636,-0.0488,-0.03904,0.10248,-0.12688,-0.0244,0.03904
-0.05368,0.03416,-0.01464,0.0122,0.03904,-0.04636,-0.0488,-0.04392,0.09272,-0.13176,-0.02928,0.03416
-0.05856,0.0366,-0.01464,0.01464,0.04392,-0.05124,-0.0488,-0.0488,0.08784,-0.13176,-0.03904,0.03416
-0.06344,0.04148,-0.01952,0.0122,0.04392,-0.05368,-0.0488,-0.0488,0.08784,-0.13176,-0.04392,0.03416
-0.06832,0.04636,-0.0244,0.00976,0.04392,-0.05612,-0.03904,-0.0488,0.08296,-0.13176,-0.04392,0.0244
-0.0732,0.05124,-0.02928,0.00732,0.04392,-0.05856,-0.03416,-0.0488,0.07808,-0.122,-0.04392,0.0244
-0.0732,0.05124,-0.02928,0.00732,0.04392,-0.05856,-0.03416,-0.0488,0.0732,-0.11712,-0.0488,0.01952
