i,aVR,ii,aVF,iii,aVL,V1,V2,V3,V4,V5,V6
-0.00976,-0.03416,0.07808,0.08296,0.08784,-0.0488,-0.21472,-0.33672,0.0244,-0.01952,-0.00976,-0.01464
0,-0.04148,0.08296,0.08296,0.08296,-0.04148,-0.2196,-0.37088,0.0244,-0.00976,-0.00488,-0.01464
0.00976,-0.05368,0.0976,0.09272,0.08784,-0.03904,-0.244,-0.39528,0.01952,-0.00488,0,-0.00488
0.01464,-0.05856,0.10248,0.09516,0.08784,-0.0366,-0.27328,-0.43432,0.01952,-0.00976,0.00488,-0.00488
0.01464,-0.06344,0.11224,0.10492,0.0976,-0.04148,-0.30744,-0.47824,0.01952,-0.01464,0.00488,0
0.00976,-0.061,0.11224,0.10736,0.10248,-0.04636,-0.33184,-0.49288,0.01952,-0.01952,0.00488,0.00488
0.00488,-0.05612,0.10736,0.10492,0.10248,-0.0488,-0.35624,-0.51728,0.00488,-0.0244,0,0.00488
0.00488,-0.05368,0.10248,0.10004,0.0976,-0.04636,-0.36112,-0.5368,-0.00976,-0.02928,0,0.00488
0.00976,-0.05368,0.0976,0.09272,0.08784,-0.03904,-0.35136,-0.5368,-0.01464,-0.03416,-0.00488,0.00488
0.00976,-0.0488,0.08784,0.08296,0.07808,-0.03416,-0.33184,-0.5368,-0.01952,-0.03904,-0.00488,0.00488
0.01464,-0.0488,0.08296,0.07564,0.06832,-0.02684,-0.31232,-0.52704,-0.0244,-0.04392,-0.00488,0.00488
0.0244,-0.05124,0.07808,0.06588,0.05368,-0.01464,-0.28792,-0.51728,-0.02928,-0.04392,-0.01464,0
0.0244,-0.04392,0.06344,0.05124,0.03904,-0.00732,-0.27328,-0.50264,-0.03416,-0.0488,-0.01952,-0.00488
0.02928,-0.03904,0.0488,0.03416,0.01952,0.00488,-0.24888,-0.48312,-0.0488,-0.0488,-0.0244,-0.01464
0.0244,-0.03416,0.04392,0.03172,0.01952,0.00244,-0.22448,-0.45872,-0.05856,-0.05856,-0.02928,-0.01952
0.00488,-0.01708,0.02928,0.02684,0.0244,-0.00976,-0.18544,-0.42456,-0.05856,-0.06344,-0.04392,-0.02928
-0.00976,0,0.00976,0.01464,0.01952,-0.01464,-0.15616,-0.3904,-0.0732,-0.0732,-0.05368,-0.03904
-0.01952,0.0122,-0.00488,0.00488,0.01464,-0.01708,-0.14152,-0.36112,-0.07808,-0.08296,-0.05856,-0.0488
-0.0244,0.01952,-0.01464,-0.00244,0.00976,-0.01708,-0.11712,-0.33184,-0.08296,-0.09272,-0.06832,-0.05368
-0.02928,0.02928,-0.02928,-0.01464,0,-0.01464,-0.10248,-0.31232,-0.08784,-0.0976,-0.06832,-0.05856
-0.03416,0.03416,-0.03416,-0.01708,0,-0.01708,-0.08784,-0.28792,-0.08296,-0.0976,-0.0732,-0.06344
-0.03416,0.03416,-0.03416,-0.01708,0,-0.01708,-0.07808,-0.26352,-0.08784,-0.10248,-0.07808,-0.06344
-0.03904,0.0366,-0.03416,-0.01464,0.00488,-0.02196,-0.0732,-0.244,-0.08784,-0.10736,-0.08296,-0.06344
-0.03904,0.04148,-0.04392,-0.0244,-0.00488,-0.01708,-0.05856,-0.22448,-0.08784,-0.11224,-0.08296,-0.06832
-0.04392,0.0488,-0.05368,-0.03172,-0.00976,-0.01708,-0.0488,-0.20496,-0.09272,-0.11712,-0.08296,-0.06832
-0.04392,0.05124,-0.05856,-0.0366,-0.01464,-0.01464,-0.04392,-0.19032,-0.09272,-0.11712,-0.07808,-0.06832
-0.04392,0.05124,-0.05856,-0.0366,-0.01464,-0.01464,-0.03416,-0.1708,-0.0976,-0.11712,-0.07808,-0.0732
-0.04392,0.05124,-0.05856,-0.0366,-0.01464,-0.01464,-0.01952,-0.15616,-0.0976,-0.122,-0.07808,-0.0732
-0.0488,0.05368,-0.05856,-0.03416,-0.00976,-0.01952,-0.01464,-0.13664,-0.0976,-0.122,-0.07808,-0.0732
-0.0488,0.05368,-0.05856,-0.03416,-0.00976,-0.01952,-0.00488,-0.12688,-0.10248,-0.12688,-0.07808,-0.0732
-0.0488,0.05124,-0.05368,-0.02928,-0.00488,-0.02196,0,-0.11712,-0.10736,-0.13176,-0.07808,-0.0732
-0.0488,0.05124,-0.05368,-0.02928,-0.00488,-0.02196,0,-0.10736,-0.10736,-0.13176,-0.07808,-0.0732
-0.0488,0.05124,-0.05368,-0.02928,-0.00488,-0.02196,0,-0.10248,-0.10248,-0.13176,-0.07808,-0.0732
-0.0488,0.05124,-0.05368,-0.02928,-0.00488,-0.02196,-0.00488,-0.0976,-0.10248,-0.13176,-0.07808,-0.07808
-0.04392,0.05856,-0.0732,-0.05124,-0.02928,-0.00732,-0.00976,-0.08784,-0.11712,-0.14152,-0.08784,-0.09272
-0.02928,0.07076,-0.11224,-0.0976,-0.08296,0.02684,-0.00488,-0.08784,-0.15128,-0.17568,-0.11712,-0.10736
-0.00976,0.07808,-0.1464,-0.14152,-0.13664,0.06344,-0.00488,-0.07808,-0.18056,-0.20984,-0.13664,-0.12688
0.00488,0.06588,-0.13664,-0.13908,-0.14152,0.0732,0.00976,-0.04392,-0.16592,-0.21472,-0.13176,-0.12688
0.01952,0.03416,-0.08784,-0.0976,-0.10736,0.06344,0.00488,-0.05856,-0.09272,-0.14152,-0.08296,-0.08296
0.0732,-0.09028,0.10736,0.07076,0.03416,0.01952,-0.0488,-0.0976,0.08296,0.07808,0.07808,0.03416
0.16104,-0.29036,0.41968,0.33916,0.25864,-0.0488,-0.17568,-0.17568,0.34648,0.40504,0.34648,0.21472
0.28304,-0.5246,0.76616,0.62464,0.48312,-0.10004,-0.35136,-0.28304,0.64904,0.77592,0.66368,0.46848
0.3904,-0.79544,1.20048,1.00528,0.81008,-0.20984,-0.5856,-0.49776,1.01016,1.22,1.02968,0.74664
0.4636,-0.98332,1.50304,1.27124,1.03944,-0.28792,-0.83936,-0.72712,1.2444,1.53232,1.2932,0.93208
0.43432,-1.0492,1.66408,1.44692,1.22976,-0.39772,-1.09312,-0.97112,1.30296,1.61528,1.40056,1.03944
0.3172,-0.9516,1.586,1.4274,1.2688,-0.4758,-1.18096,-1.06872,1.23952,1.464,1.33224,1.01504
0.16104,-0.7076,1.25416,1.17364,1.09312,-0.46604,-1.10776,-1.04432,0.96624,1.098,1.01992,0.79056
0.00976,-0.41236,0.81496,0.81008,0.8052,-0.39772,-0.91256,-0.88816,0.59048,0.61976,0.61976,0.50264
-0.08296,-0.16836,0.41968,0.46116,0.50264,-0.2928,-0.5856,-0.66368,0.12688,0.13664,0.22936,0.2196
-0.08296,-0.0244,0.13176,0.17324,0.21472,-0.14884,-0.34648,-0.4392,-0.20984,-0.15616,-0.00488,0.03904
-0.08296,0.05612,-0.02928,0.0122,0.05368,-0.06832,-0.15128,-0.25864,-0.23424,-0.20984,-0.08296,-0.03904
-0.08296,0.08784,-0.09272,-0.05124,-0.00976,-0.0366,-0.03416,-0.16592,-0.20496,-0.20984,-0.09272,-0.07808
-0.05368,0.0732,-0.09272,-0.06588,-0.03904,-0.00732,0.00976,-0.10736,-0.1464,-0.18544,-0.09272,-0.09272
-0.03904,0.05368,-0.06832,-0.0488,-0.02928,-0.00488,0.02928,-0.0976,-0.07808,-0.13176,-0.06832,-0.08296
-0.03904,0.03904,-0.03904,-0.01952,0,-0.01952,-0.00976,-0.11712,-0.06344,-0.10736,-0.0488,-0.06344
-0.04392,0.03904,-0.03416,-0.0122,0.00976,-0.02684,-0.01952,-0.1464,-0.08296,-0.11712,-0.05368,-0.05856
-0.04392,0.03904,-0.03416,-0.0122,0.00976,-0.02684,-0.03904,-0.18544,-0.08296,-0.13176,-0.05856,-0.05856
-0.03416,0.03416,-0.03416,-0.01708,0,-0.01708,-0.04392,-0.20984,-0.07808,-0.13176,-0.05856,-0.06344
-0.0244,0.02928,-0.03416,-0.02196,-0.00976,-0.00732,-0.0488,-0.22448,-0.0732,-0.13176,-0.05856,-0.06344
-0.0244,0.02928,-0.03416,-0.02196,-0.00976,-0.00732,-0.06344,-0.25864,-0.06832,-0.12688,-0.05856,-0.06344
-0.0244,0.02928,-0.03416,-0.02196,-0.00976,-0.00732,-0.07808,-0.28792,-0.06832,-0.122,-0.05856,-0.06344
-0.01952,0.02684,-0.03416,-0.0244,-0.01464,-0.00244,-0.08784,-0.30256,-0.06832,-0.122,-0.05368,-0.05856
-0.01952,0.0244,-0.02928,-0.01952,-0.00976,-0.00488,-0.10248,-0.3172,-0.06344,-0.11712,-0.04392,-0.0488
-0.0244,0.02196,-0.01952,-0.00732,0.00488,-0.01464,-0.10736,-0.3416,-0.06344,-0.11224,-0.03904,-0.04392
-0.02928,0.0244,-0.01952,-0.00488,0.00976,-0.01952,-0.10736,-0.37576,-0.05856,-0.10736,-0.03416,-0.03904
-0.02928,0.02196,-0.01464,0,0.01464,-0.02196,-0.10736,-0.37576,-0.05856,-0.10736,-0.03416,-0.03904
-0.0244,0.01708,-0.00976,0.00244,0.01464,-0.01952,-0.122,-0.38552,-0.0488,-0.10736,-0.03416,-0.03416
-0.01952,0.00976,0,0.00976,0.01952,-0.01952,-0.13664,-0.39528,-0.0488,-0.10248,-0.03416,-0.03904
-0.01952,0.00732,0.00488,0.01464,0.0244,-0.02196,-0.15128,-0.40992,-0.0488,-0.10248,-0.02928,-0.04392
-0.01464,0.00488,0.00488,0.0122,0.01952,-0.01708,-0.14152,-0.4148,-0.0488,-0.0976,-0.02928,-0.03904
-0.01464,0.00488,0.00488,0.0122,0.01952,-0.01708,-0.13176,-0.41968,-0.03904,-0.0976,-0.03416,-0.03904
-0.00976,0.00488,0,0.00488,0.00976,-0.00976,-0.12688,-0.41968,-0.02928,-0.08784,-0.03416,-0.03904
-0.00976,0.00244,0.00488,0.00976,0.01464,-0.0122,-0.122,-0.41968,-0.01952,-0.08784,-0.02928,-0.03904
-0.00976,0,0.00976,0.01464,0.01952,-0.01464,-0.11712,-0.41968,-0.01952,-0.08296,-0.0244,-0.03904
-0.00488,-0.00488,0.01464,0.01708,0.01952,-0.0122,-0.10248,-0.40992,-0.00976,-0.07808,-0.0244,-0.03416
-0.00488,-0.00732,0.01952,0.02196,0.0244,-0.01464,-0.08784,-0.39528,-0.00488,-0.0732,-0.01952,-0.02928
-0.00488,-0.00732,0.01952,0.02196,0.0244,-0.01464,-0.08784,-0.38064,0,-0.0732,-0.01464,-0.02928
0,-0.0122,0.0244,0.0244,0.0244,-0.0122,-0.08296,-0.37088,0.00976,-0.06832,-0.00976,-0.01952
0.00488,-0.01708,0.02928,0.02684,0.0244,-0.00976,-0.08296,-0.366,0.01952,-0.06344,-0.00976,-0.01952
0.00488,-0.01952,0.03416,0.03172,0.02928,-0.0122,-0.09272,-0.35624,0.02928,-0.05368,0,-0.01952
0.01464,-0.02684,0.03904,0.03172,0.0244,-0.00488,-0.0976,-0.35624,0.03416,-0.04392,0.00976,-0.00976
0.01464,-0.03172,0.0488,0.04148,0.03416,-0.00976,-0.0976,-0.35136,0.04392,-0.03416,0.01464,-0.00976
0.01952,-0.0366,0.05368,0.04392,0.03416,-0.00732,-0.10248,-0.34648,0.05368,-0.01952,0.01952,-0.00976
0.02928,-0.04636,0.06344,0.0488,0.03416,-0.00244,-0.10736,-0.3416,0.06344,-0.01464,0.0244,-0.00488
0.03416,-0.05124,0.06832,0.05124,0.03416,0,-0.11712,-0.33672,0.06832,-0.00976,0.02928,0
0.03904,-0.06344,0.08784,0.06832,0.0488,-0.00488,-0.11712,-0.33672,0.0732,-0.00488,0.03904,0.00976
0.04392,-0.07076,0.0976,0.07564,0.05368,-0.00488,-0.12688,-0.32696,0.08296,0,0.04392,0.01464
0.0488,-0.07808,0.10736,0.08296,0.05856,-0.00488,-0.11712,-0.30256,0.08784,0.00488,0.0488,0.0244
0.0488,-0.08296,0.11712,0.09272,0.06832,-0.00976,-0.11224,-0.28792,0.08784,0.00976,0.05368,0.03416
0.05368,-0.08784,0.122,0.09516,0.06832,-0.00732,-0.10248,-0.25376,0.09272,0.01952,0.05856,0.03904
0.05856,-0.09516,0.13176,0.10248,0.0732,-0.00732,-0.09272,-0.22448,0.09272,0.02928,0.06344,0.03904
0.06832,-0.10492,0.14152,0.10736,0.0732,-0.00244,-0.07808,-0.20008,0.10248,0.02928,0.06832,0.03904
0.0732,-0.1098,0.1464,0.1098,0.0732,0,-0.0732,-0.18056,0.10736,0.02928,0.0732,0.03904
0.0732,-0.11224,0.15128,0.11468,0.07808,-0.00244,-0.05368,-0.1708,0.10736,0.03416,0.0732,0.0488
0.0732,-0.11224,0.15128,0.11468,0.07808,-0.00244,-0.06344,-0.15616,0.10736,0.03416,0.0732,0.0488
0.0732,-0.11224,0.15128,0.11468,0.07808,-0.00244,-0.05368,-0.1464,0.10736,0.03904,0.07808,0.0488
0.0732,-0.1098,0.1464,0.1098,0.0732,0,-0.04392,-0.13664,0.10736,0.03904,0.07808,0.05368
0.0732,-0.10736,0.14152,0.10492,0.06832,0.00244,-0.03904,-0.122,0.10248,0.03904,0.08296,0.0488
0.0732,-0.10492,0.13664,0.10004,0.06344,0.00488,-0.03904,-0.11224,0.0976,0.03904,0.08296,0.04392
0.06344,-0.10004,0.13664,0.10492,0.0732,-0.00488,-0.03904,-0.11224,0.0976,0.02928,0.07808,0.04392
0.06344,-0.10004,0.13664,0.10492,0.0732,-0.00488,-0.0488,-0.12688,0.09272,0.01952,0.06832,0.03904
0.05368,-0.09028,0.12688,0.10004,0.0732,-0.00976,-0.05368,-0.13176,0.08296,0.01952,0.06832,0.04392
0.04392,-0.08296,0.122,0.10004,0.07808,-0.01708,-0.05368,-0.13664,0.07808,0.00976,0.05856,0.03904
0.03416,-0.07076,0.10736,0.09028,0.0732,-0.01952,-0.0488,-0.13664,0.06832,0.00488,0.05368,0.03416
0.03416,-0.06588,0.0976,0.08052,0.06344,-0.01464,-0.0488,-0.15128,0.05856,0,0.0488,0.02928
0.01952,-0.05124,0.08296,0.0732,0.06344,-0.02196,-0.04392,-0.15616,0.04392,-0.01952,0.03416,0.00976
0.01464,-0.03904,0.06344,0.05612,0.0488,-0.01708,-0.04392,-0.17568,0.03416,-0.0244,0.0244,0.00488
0.00976,-0.03172,0.05368,0.0488,0.04392,-0.01708,-0.04392,-0.18056,0.0244,-0.03416,0.01464,0
-0.00488,-0.01952,0.04392,0.04636,0.0488,-0.02684,-0.03904,-0.20008,0.00976,-0.04392,0.00976,-0.00976
-0.01464,-0.00976,0.03416,0.04148,0.0488,-0.03172,-0.03416,-0.20984,-0.00488,-0.05368,0,-0.01464
-0.01952,-0.00244,0.0244,0.03416,0.04392,-0.03172,-0.02928,-0.21472,-0.0244,-0.06344,-0.00488,-0.01952
-0.01952,0.00244,0.01464,0.0244,0.03416,-0.02684,-0.02928,-0.20984,-0.03416,-0.07808,-0.00976,-0.0244
-0.0244,0.00976,0.00488,0.01708,0.02928,-0.02684,-0.01952,-0.20496,-0.04392,-0.09272,-0.01464,-0.0244
-0.02928,0.01708,-0.00488,0.00976,0.0244,-0.02684,-0.01952,-0.20008,-0.0488,-0.09272,-0.01952,-0.03904
-0.03416,0.0244,-0.01464,0.00244,0.01952,-0.02684,-0.00488,-0.1952,-0.05368,-0.0976,-0.0244,-0.04392
-0.03904,0.02928,-0.01952,0,0.01952,-0.02928,0,-0.18544,-0.05368,-0.10248,-0.02928,-0.0488
-0.03904,0.03172,-0.0244,-0.00488,0.01464,-0.02684,0.00488,-0.17568,-0.0488,-0.10736,-0.03416,-0.05368
-0.03904,0.03416,-0.02928,-0.00976,0.00976,-0.0244,0.00976,-0.16592,-0.05856,-0.11224,-0.03904,-0.0488
-0.03904,0.03416,-0.02928,-0.00976,0.00976,-0.0244,0.01464,-0.15128,-0.05856,-0.11224,-0.03904,-0.03904
-0.03904,0.03416,-0.02928,-0.00976,0.00976,-0.0244,0.00976,-0.15128,-0.06344,-0.11224,-0.03904,-0.03904
-0.03416,0.03172,-0.02928,-0.0122,0.00488,-0.01952,0.00976,-0.15128,-0.06832,-0.11224,-0.03904,-0.03904
-0.03904,0.03416,-0.02928,-0.00976,0.00976,-0.0244,0.00488,-0.15128,-0.06832,-0.11224,-0.03416,-0.03904
-0.03904,0.03416,-0.02928,-0.00976,0.00976,-0.0244,0,-0.15616,-0.06832,-0.11224,-0.03416,-0.03904
-0.0488,0.03904,-0.02928,-0.00488,0.01952,-0.03416,0,-0.15616,-0.06832,-0.11224,-0.02928,-0.03904
-0.05856,0.04392,-0.02928,0,0.02928,-0.04392,0,-0.16104,-0.06832,-0.11712,-0.02928,-0.03904
-0.05856,0.04392,-0.02928,0,0.02928,-0.04392,0,-0.15616,-0.06832,-0.11712,-0.02928,-0.03904
-0.05856,0.04392,-0.02928,0,0.02928,-0.04392,0.00976,-0.15128,-0.06344,-0.11712,-0.02928,-0.03904
-0.0488,0.03904,-0.02928,-0.00488,0.01952,-0.03416,0.00976,-0.13664,-0.06344,-0.11712,-0.02928,-0.03904
-0.04392,0.0366,-0.02928,-0.00732,0.01464,-0.02928,0.01464,-0.12688,-0.06344,-0.122,-0.03416,-0.03904
-0.03904,0.03172,-0.0244,-0.00488,0.01464,-0.02684,0.01464,-0.12688,-0.05856,-0.11712,-0.02928,-0.03904
-0.03904,0.02928,-0.01952,0,0.01952,-0.02928,0.01952,-0.12688,-0.05856,-0.11712,-0.02928,-0.03904
-0.03904,0.02928,-0.01952,0,0.01952,-0.02928,0.01464,-0.12688,-0.05368,-0.11712,-0.02928,-0.03904
-0.03904,0.02928,-0.01952,0,0.01952,-0.02928,0.00976,-0.12688,-0.0488,-0.11712,-0.02928,-0.03904
-0.03904,0.02684,-0.01464,0.00488,0.0244,-0.03172,0.00488,-0.13664,-0.04392,-0.11224,-0.02928,-0.03416
-0.03416,0.02196,-0.00976,0.00732,0.0244,-0.02928,0.00488,-0.1464,-0.03416,-0.10736,-0.0244,-0.0244
-0.02928,0.01952,-0.00976,0.00488,0.01952,-0.0244,0.00488,-0.16104,-0.02928,-0.10248,-0.01952,-0.01952
-0.0244,0.0122,0,0.0122,0.0244,-0.0244,0,-0.1708,-0.01952,-0.08784,-0.01464,-0.01952
-0.01952,0,0.01952,0.02928,0.03904,-0.02928,-0.01464,-0.1952,-0.00488,-0.07808,-0.00488,-0.00976
-0.01464,-0.00732,0.02928,0.0366,0.04392,-0.02928,-0.02928,-0.2196,0.00488,-0.06832,0,-0.00488
-0.00976,-0.01952,0.0488,0.05368,0.05856,-0.03416,-0.04392,-0.25376,0.00976,-0.05368,0.00976,0
-0.00976,-0.02928,0.06832,0.0732,0.07808,-0.04392,-0.06832,-0.28792,0.01464,-0.0488,0.01952,0.00488
-0.00488,-0.03172,0.06832,0.07076,0.0732,-0.03904,-0.07808,-0.33184,0.01952,-0.03904,0.0244,0.00488
0,-0.03904,0.07808,0.07808,0.07808,-0.03904,-0.10736,-0.366,0.01952,-0.03416,0.02928,0.01464
0.00488,-0.04392,0.08296,0.08052,0.07808,-0.0366,-0.13176,-0.40016,0.01952,-0.03416,0.03416,0.01464
0.00488,-0.0488,0.09272,0.09028,0.08784,-0.04148,-0.16104,-0.4392,0.01952,-0.03416,0.03416,0.01952
0.00488,-0.05124,0.0976,0.09516,0.09272,-0.04392,-0.19032,-0.46848,0.01952,-0.03416,0.03904,0.02928
0.00488,-0.05124,0.0976,0.09516,0.09272,-0.04392,-0.2196,-0.50752,0.00488,-0.03416,0.03904,0.03416
0.00488,-0.05368,0.10248,0.10004,0.0976,-0.04636,-0.244,-0.54656,-0.00488,-0.03416,0.03904,0.03416
0.00976,-0.05856,0.10736,0.10248,0.0976,-0.04392,-0.25376,-0.56608,-0.00488,-0.03416,0.03416,0.03416
0.01464,-0.05612,0.0976,0.09028,0.08296,-0.03416,-0.24888,-0.57584,-0.00976,-0.03904,0.03416,0.03416
0.0244,-0.05856,0.09272,0.08052,0.06832,-0.02196,-0.244,-0.57584,-0.01464,-0.04392,0.03416,0.03416
0.03416,-0.05612,0.07808,0.061,0.04392,-0.00488,-0.22936,-0.57584,-0.01952,-0.04392,0.01952,0.0244
0.03416,-0.04392,0.05368,0.0366,0.01952,0.00732,-0.22448,-0.57096,-0.0244,-0.0488,0.00976,0.01464
0.03416,-0.03416,0.03416,0.01708,0,0.01708,-0.20984,-0.57096,-0.03904,-0.05368,0.00488,0.00488
0.0244,-0.0244,0.0244,0.0122,0,0.0122,-0.1952,-0.56608,-0.0488,-0.06832,0,0
0.00488,-0.00732,0.00976,0.00732,0.00488,0,-0.17568,-0.5612,-0.0488,-0.06344,-0.01464,-0.00976
-0.00976,0.00976,-0.00976,-0.00488,0,-0.00488,-0.16592,-0.55632,-0.06344,-0.06344,-0.0244,-0.01952
-0.01952,0.02196,-0.0244,-0.01464,-0.00488,-0.00732,-0.16592,-0.54168,-0.06832,-0.0732,-0.02928,-0.02928
-0.0244,0.02928,-0.03416,-0.02196,-0.00976,-0.00732,-0.15616,-0.52704,-0.0732,-0.08296,-0.03904,-0.03416
-0.03416,0.03904,-0.04392,-0.02684,-0.00976,-0.0122,-0.1464,-0.51728,-0.08296,-0.08784,-0.03904,-0.03416
-0.04392,0.04392,-0.04392,-0.02196,0,-0.02196,-0.13664,-0.50264,-0.08296,-0.08784,-0.04392,-0.03416
-0.04392,0.04392,-0.04392,-0.02196,0,-0.02196,-0.11712,-0.47336,-0.08784,-0.09272,-0.0488,-0.03416
-0.0488,0.04636,-0.04392,-0.01952,0.00488,-0.02684,-0.10248,-0.44896,-0.08784,-0.0976,-0.05368,-0.03416
-0.04392,0.04636,-0.0488,-0.02684,-0.00488,-0.01952,-0.0976,-0.4392,-0.08784,-0.0976,-0.05856,-0.0488
-0.04392,0.0488,-0.05368,-0.03172,-0.00976,-0.01708,-0.0976,-0.42944,-0.09272,-0.0976,-0.06344,-0.05856
-0.04392,0.05124,-0.05856,-0.0366,-0.01464,-0.01464,-0.0976,-0.42944,-0.09272,-0.0976,-0.06344,-0.05856
-0.04392,0.05124,-0.05856,-0.0366,-0.01464,-0.01464,-0.09272,-0.42456,-0.0976,-0.0976,-0.06832,-0.06344
-0.04392,0.05124,-0.05856,-0.0366,-0.01464,-0.01464,-0.0732,-0.41968,-0.0976,-0.10248,-0.06832,-0.05856
-0.0488,0.05368,-0.05856,-0.03416,-0.00976,-0.01952,-0.06344,-0.40992,-0.0976,-0.10248,-0.06832,-0.05368
-0.04392,0.05368,-0.06344,-0.04148,-0.01952,-0.0122,-0.0488,-0.39528,-0.09272,-0.10248,-0.06832,-0.05368
-0.03904,0.05124,-0.06344,-0.04392,-0.0244,-0.00732,-0.03904,-0.38064,-0.08784,-0.10248,-0.06832,-0.05368
-0.03904,0.05124,-0.06344,-0.04392,-0.0244,-0.00732,-0.0244,-0.35624,-0.08784,-0.0976,-0.06832,-0.05368
-0.03904,0.05124,-0.06344,-0.04392,-0.0244,-0.00732,-0.00976,-0.33672,-0.08296,-0.09272,-0.06832,-0.05368
-0.03904,0.05124,-0.06344,-0.04392,-0.0244,-0.00732,-0.00488,-0.31232,-0.08296,-0.09272,-0.06832,-0.05856
-0.03416,0.05856,-0.08296,-0.06588,-0.0488,0.00732,0,-0.28304,-0.0976,-0.10248,-0.07808,-0.0732
-0.0244,0.07808,-0.13176,-0.11956,-0.10736,0.04148,0.01464,-0.25376,-0.13176,-0.13664,-0.11224,-0.09272
-0.00976,0.09272,-0.17568,-0.1708,-0.16592,0.07808,0.0244,-0.21472,-0.16104,-0.1708,-0.13664,-0.11712
0,0.10004,-0.20008,-0.20008,-0.20008,0.10004,0.05856,-0.16592,-0.18056,-0.20984,-0.16592,-0.1464
0.00976,0.08784,-0.18544,-0.19032,-0.1952,0.10248,0.0732,-0.16592,-0.14152,-0.1708,-0.15128,-0.13176
0.0488,-0.01708,-0.01464,-0.03904,-0.06344,0.05612,0.0244,-0.17568,0.03416,0.03416,-0.00488,-0.0244
0.122,-0.19764,0.27328,0.21228,0.15128,-0.01464,-0.0976,-0.22448,0.29768,0.34648,0.24888,0.1464
0.23912,-0.44164,0.64416,0.5246,0.40504,-0.08296,-0.244,-0.29768,0.61976,0.74664,0.58072,0.40016
0.3416,-0.72224,1.10288,0.93208,0.76128,-0.20984,-0.44896,-0.47824,1.0004,1.22,0.96136,0.67832
0.42944,-0.9516,1.47376,1.25904,1.04432,-0.30744,-0.70272,-0.69296,1.30296,1.60552,1.2688,0.9028
0.4148,-1.05896,1.70312,1.49572,1.28832,-0.43676,-0.95648,-0.92232,1.42984,1.76168,1.42008,1.0492
0.31232,-0.98088,1.64944,1.49328,1.33712,-0.5124,-1.09312,-1.06384,1.3908,1.61528,1.37616,1.02968
0.1708,-0.7564,1.342,1.2566,1.1712,-0.5002,-1.06872,-1.08336,1.14192,1.25416,1.08824,0.81008
0.01464,-0.45384,0.89304,0.88572,0.8784,-0.43188,-0.93208,-0.976,0.75152,0.7564,0.67344,0.51728
-0.08296,-0.20252,0.488,0.52948,0.57096,-0.32696,-0.66368,-0.80032,0.27328,0.25376,0.2684,0.22936
-0.08296,-0.0488,0.18056,0.22204,0.26352,-0.17324,-0.40992,-0.55632,-0.1464,-0.0976,-0.00488,0.02928
-0.08296,0.04148,0,0.04148,0.08296,-0.08296,-0.20008,-0.35624,-0.25376,-0.20984,-0.122,-0.06832
-0.07808,0.07564,-0.0732,-0.03416,0.00488,-0.04148,-0.06344,-0.23912,-0.22936,-0.20984,-0.13176,-0.10248
-0.04392,0.06344,-0.08296,-0.061,-0.03904,-0.00244,0,-0.15616,-0.17568,-0.18544,-0.13176,-0.11224
-0.02928,0.04636,-0.06344,-0.0488,-0.03416,0.00244,0.0488,-0.122,-0.09272,-0.12688,-0.0976,-0.10248
-0.02928,0.03416,-0.03904,-0.0244,-0.00976,-0.00976,0.03904,-0.11712,-0.06344,-0.0976,-0.06832,-0.08296
-0.03416,0.02684,-0.01952,-0.00244,0.01464,-0.0244,0.0244,-0.13176,-0.08296,-0.0976,-0.06832,-0.0732
-0.03416,0.01952,-0.00488,0.0122,0.02928,-0.03172,0,-0.15616,-0.08296,-0.10248,-0.06832,-0.06832
-0.03416,0.0244,-0.01464,0.00244,0.01952,-0.02684,0.00976,-0.1708,-0.07808,-0.10248,-0.06832,-0.0732
-0.03416,0.02928,-0.0244,-0.00732,0.00976,-0.02196,0.01952,-0.17568,-0.0732,-0.10248,-0.06832,-0.0732
-0.03904,0.03172,-0.0244,-0.00488,0.01464,-0.02684,0.0244,-0.17568,-0.06832,-0.10248,-0.06832,-0.0732
-0.04392,0.03416,-0.0244,-0.00244,0.01952,-0.03172,0.02928,-0.1708,-0.06832,-0.10248,-0.06832,-0.0732
-0.03904,0.03172,-0.0244,-0.00488,0.01464,-0.02684,0.03416,-0.15616,-0.06832,-0.10248,-0.06832,-0.06832
-0.03904,0.02928,-0.01952,0,0.01952,-0.02928,0.03416,-0.14152,-0.06344,-0.0976,-0.06344,-0.05856
-0.03416,0.02196,-0.00976,0.00732,0.0244,-0.02928,0.03416,-0.12688,-0.06344,-0.09272,-0.05856,-0.05856
-0.02928,0.01952,-0.00976,0.00488,0.01952,-0.0244,0.03904,-0.122,-0.05856,-0.08784,-0.05368,-0.05856
-0.02928,0.01952,-0.00976,0.00488,0.01952,-0.0244,0.0488,-0.10736,-0.05856,-0.08784,-0.05368,-0.05856
-0.0244,0.01708,-0.00976,0.00244,0.01464,-0.01952,0.04392,-0.10248,-0.0488,-0.08784,-0.05368,-0.05368
-0.01952,0.0122,-0.00488,0.00488,0.01464,-0.01708,0.0488,-0.08784,-0.0488,-0.08296,-0.05368,-0.05368
-0.01952,0.0122,-0.00488,0.00488,0.01464,-0.01708,0.05368,-0.07808,-0.0488,-0.08296,-0.0488,-0.05368
-0.01464,0.00976,-0.00488,0.00244,0.00976,-0.0122,0.04392,-0.0732,-0.0488,-0.07808,-0.04392,-0.0488
-0.01464,0.00976,-0.00488,0.00244,0.00976,-0.0122,0.03416,-0.06832,-0.03904,-0.07808,-0.04392,-0.0488
-0.00488,0.00244,0,0.00244,0.00488,-0.00488,0.01952,-0.06832,-0.03904,-0.06832,-0.04392,-0.0488
0,-0.00732,0.01464,0.01464,0.01464,-0.00732,0.00488,-0.06832,-0.03904,-0.06832,-0.03904,-0.0488
0,-0.00976,0.01952,0.01952,0.01952,-0.00976,-0.00488,-0.07808,-0.03904,-0.06344,-0.03416,-0.0488
0.00488,-0.01464,0.0244,0.02196,0.01952,-0.00732,-0.00488,-0.07808,-0.02928,-0.05856,-0.03416,-0.04392
0.00488,-0.01464,0.0244,0.02196,0.01952,-0.00732,-0.00488,-0.08296,-0.01952,-0.05368,-0.02928,-0.03904
0.00488,-0.0122,0.01952,0.01708,0.01464,-0.00488,-0.01952,-0.08784,-0.00976,-0.05368,-0.0244,-0.03904
0.00488,-0.0122,0.01952,0.01708,0.01464,-0.00488,-0.01952,-0.08296,-0.00488,-0.04392,-0.01952,-0.02928
0.00488,-0.0122,0.01952,0.01708,0.01464,-0.00488,-0.0244,-0.08296,0,-0.03416,-0.01952,-0.02928
0.00488,-0.01464,0.0244,0.02196,0.01952,-0.00732,-0.04392,-0.08784,0.00976,-0.02928,-0.01464,-0.02928
0.01464,-0.02196,0.02928,0.02196,0.01464,0,-0.05856,-0.10248,0.01464,-0.0244,-0.00976,-0.01952
0.01464,-0.02684,0.03904,0.03172,0.0244,-0.00488,-0.05856,-0.10248,0.01464,-0.01952,-0.00488,-0.01464
0.01952,-0.03172,0.04392,0.03416,0.0244,-0.00244,-0.06344,-0.10248,0.01464,-0.00976,0,-0.00976
0.01952,-0.03416,0.0488,0.03904,0.02928,-0.00488,-0.06832,-0.10248,0.0244,-0.00488,0.00488,-0.00488
0.01464,-0.03172,0.0488,0.04148,0.03416,-0.00976,-0.07808,-0.10248,0.02928,0,0.00976,0
0.01952,-0.04148,0.06344,0.05368,0.04392,-0.0122,-0.06832,-0.10248,0.03416,0.00488,0.01952,0.00488
0.0244,-0.04636,0.06832,0.05612,0.04392,-0.00976,-0.06832,-0.09272,0.04392,0.00976,0.0244,0.00488
0.03416,-0.05856,0.08296,0.06588,0.0488,-0.00732,-0.06832,-0.07808,0.0488,0.01464,0.02928,0.00976
0.03904,-0.06832,0.0976,0.07808,0.05856,-0.00976,-0.0732,-0.0732,0.0488,0.01952,0.03416,0.01464
0.04392,-0.07076,0.0976,0.07564,0.05368,-0.00488,-0.0732,-0.06344,0.05856,0.0244,0.03416,0.0244
0.0488,-0.07564,0.10248,0.07808,0.05368,-0.00244,-0.0732,-0.05856,0.06344,0.02928,0.03416,0.02928
0.05368,-0.08296,0.11224,0.0854,0.05856,-0.00244,-0.06832,-0.05368,0.06832,0.02928,0.03904,0.02928
0.05368,-0.0854,0.11712,0.09028,0.06344,-0.00488,-0.0732,-0.05368,0.06832,0.02928,0.04392,0.02928
0.05856,-0.09028,0.122,0.09272,0.06344,-0.00244,-0.05856,-0.05368,0.06344,0.03416,0.04392,0.03904
0.06344,-0.09272,0.122,0.09028,0.05856,0.00244,-0.0732,-0.0488,0.05856,0.03416,0.04392,0.03904
0.06344,-0.09516,0.12688,0.09516,0.06344,0,-0.0732,-0.0488,0.05856,0.03904,0.0488,0.03904
0.06344,-0.09516,0.12688,0.09516,0.06344,0,-0.0732,-0.0488,0.05856,0.03904,0.0488,0.04392
0.06344,-0.09272,0.122,0.09028,0.05856,0.00244,-0.06832,-0.0488,0.06344,0.03904,0.05368,0.03904
0.06344,-0.09028,0.11712,0.0854,0.05368,0.00488,-0.06832,-0.05368,0.06832,0.03904,0.05368,0.03416
0.05368,-0.0854,0.11712,0.09028,0.06344,-0.00488,-0.06832,-0.05368,0.06832,0.03904,0.05368,0.03416
0.05368,-0.0854,0.11712,0.09028,0.06344,-0.00488,-0.07808,-0.06832,0.06344,0.03904,0.0488,0.02928
0.04392,-0.07808,0.11224,0.09028,0.06832,-0.0122,-0.08296,-0.07808,0.05368,0.04392,0.0488,0.03416
0.03416,-0.0732,0.11224,0.09516,0.07808,-0.02196,-0.08296,-0.08784,0.0488,0.03904,0.03904,0.02928
0.01952,-0.05856,0.0976,0.08784,0.07808,-0.02928,-0.07808,-0.08296,0.04392,0.03416,0.03416,0.0244
0.01464,-0.05124,0.08784,0.08052,0.0732,-0.02928,-0.07808,-0.09272,0.03904,0.02928,0.02928,0.01952
0,-0.04148,0.08296,0.08296,0.08296,-0.04148,-0.07808,-0.09272,0.0244,0.00976,0.01464,0.00488
-0.00488,-0.03416,0.0732,0.07564,0.07808,-0.04148,-0.08296,-0.10736,0.01464,0.00488,0.00488,0.00488
-0.00488,-0.02928,0.06344,0.06588,0.06832,-0.0366,-0.08784,-0.10248,0.00976,-0.00488,-0.00488,0
-0.01464,-0.01952,0.05368,0.061,0.06832,-0.04148,-0.08784,-0.11224,0,-0.01464,-0.00976,-0.00976
-0.0244,-0.00976,0.04392,0.05612,0.06832,-0.04636,-0.08784,-0.11712,-0.00976,-0.0244,-0.01952,-0.01464
-0.02928,-0.00244,0.03416,0.0488,0.06344,-0.04636,-0.08784,-0.11712,-0.0244,-0.03416,-0.0244,-0.01952
-0.02928,0.00488,0.01952,0.03416,0.0488,-0.03904,-0.08784,-0.122,-0.03416,-0.04392,-0.02928,-0.0244
-0.03416,0.01464,0.00488,0.02196,0.03904,-0.0366,-0.07808,-0.12688,-0.04392,-0.05368,-0.03416,-0.0244
-0.03416,0.01708,0,0.01708,0.03416,-0.03416,-0.09272,-0.13176,-0.05368,-0.05368,-0.03904,-0.03904
-0.03416,0.01952,-0.00488,0.0122,0.02928,-0.03172,-0.09272,-0.13664,-0.06344,-0.05856,-0.04392,-0.04392
-0.03904,0.02196,-0.00488,0.01464,0.03416,-0.0366,-0.09272,-0.13664,-0.06832,-0.06344,-0.0488,-0.0488
-0.03904,0.02196,-0.00488,0.01464,0.03416,-0.0366,-0.09272,-0.13664,-0.06832,-0.06832,-0.05368,-0.05368
-0.03904,0.0244,-0.00976,0.00976,0.02928,-0.03416,-0.09272,-0.13664,-0.07808,-0.07808,-0.05856,-0.05368
-0.03904,0.0244,-0.00976,0.00976,0.02928,-0.03416,-0.09272,-0.13176,-0.07808,-0.08296,-0.05856,-0.0488
-0.04392,0.02928,-0.01464,0.00732,0.02928,-0.0366,-0.0976,-0.13176,-0.07808,-0.08296,-0.05856,-0.0488
-0.04392,0.03172,-0.01952,0.00244,0.0244,-0.03416,-0.0976,-0.13176,-0.07808,-0.08296,-0.05856,-0.0488
-0.05368,0.0366,-0.01952,0.00732,0.03416,-0.04392,-0.08784,-0.13176,-0.07808,-0.08296,-0.05856,-0.0488
-0.05856,0.03904,-0.01952,0.00976,0.03904,-0.0488,-0.07808,-0.13664,-0.07808,-0.08296,-0.06344,-0.0488
-0.05856,0.03904,-0.01952,0.00976,0.03904,-0.0488,-0.06832,-0.13176,-0.0732,-0.07808,-0.06344,-0.0488
-0.05856,0.03904,-0.01952,0.00976,0.03904,-0.0488,-0.05856,-0.13176,-0.06832,-0.07808,-0.06832,-0.0488
-0.05368,0.0366,-0.01952,0.00732,0.03416,-0.04392,-0.05856,-0.12688,-0.06832,-0.07808,-0.06832,-0.0488
-0.0488,0.03416,-0.01952,0.00488,0.02928,-0.03904,-0.0488,-0.122,-0.06344,-0.07808,-0.06832,-0.0488
-0.04392,0.02928,-0.01464,0.00732,0.02928,-0.0366,-0.05368,-0.11224,-0.05856,-0.0732,-0.06344,-0.0488
-0.03904,0.0244,-0.00976,0.00976,0.02928,-0.03416,-0.05856,-0.10736,-0.05856,-0.06832,-0.05856,-0.0488
-0.03904,0.0244,-0.00976,0.00976,0.02928,-0.03416,-0.0488,-0.10248,-0.05856,-0.06832,-0.05856,-0.0488
-0.03904,0.0244,-0.00976,0.00976,0.02928,-0.03416,-0.03904,-0.0976,-0.05856,-0.06832,-0.05856,-0.0488
-0.03904,0.0244,-0.00976,0.00976,0.02928,-0.03416,-0.03416,-0.09272,-0.05856,-0.06832,-0.05856,-0.0488
-0.03416,0.01708,0,0.01708,0.03416,-0.03416,-0.02928,-0.08296,-0.05368,-0.06344,-0.05368,-0.04392
-0.03416,0.01464,0.00488,0.02196,0.03904,-0.0366,-0.0244,-0.0732,-0.0488,-0.05856,-0.05368,-0.03904
-0.02928,0.00732,0.01464,0.02928,0.04392,-0.0366,-0.00976,-0.06344,-0.03904,-0.05368,-0.04392,-0.02928
-0.01952,-0.00488,0.02928,0.03904,0.0488,-0.03416,0,-0.05368,-0.02928,-0.03904,-0.03416,-0.02928
-0.00976,-0.01952,0.0488,0.05368,0.05856,-0.03416,0,-0.04392,-0.01464,-0.02928,-0.0244,-0.01952
-0.00488,-0.02684,0.05856,0.061,0.06344,-0.03416,0,-0.03416,-0.00488,-0.01952,-0.01952,-0.01464
0,-0.03416,0.06832,0.06832,0.06832,-0.03416,0,-0.03416,0,-0.00976,-0.01464,-0.00976
-0.00488,-0.0366,0.07808,0.08052,0.08296,-0.04392,-0.00976,-0.03416,0.00976,-0.00976,-0.00976,-0.00488
-0.00488,-0.0366,0.07808,0.08052,0.08296,-0.04392,-0.01464,-0.03416,0.01952,0,-0.00488,-0.00488
0,-0.04392,0.08784,0.08784,0.08784,-0.04392,-0.03904,-0.0244,0.01952,0.00488,0,0.00488
0.00488,-0.0488,0.09272,0.09028,0.08784,-0.04148,-0.05856,-0.03904,0.01952,0.00488,0.00488,0.00488
0.00488,-0.05368,0.10248,0.10004,0.0976,-0.04636,-0.08296,-0.05368,0.01952,0.00976,0.00976,0.01464
0.00488,-0.05612,0.10736,0.10492,0.10248,-0.0488,-0.10736,-0.0732,0.01952,0.01464,0.01952,0.0244
0.00488,-0.05856,0.11224,0.1098,0.10736,-0.05124,-0.13176,-0.08784,0.00488,0.01464,0.01952,0.0244
0.00488,-0.061,0.11712,0.11468,0.11224,-0.05368,-0.1464,-0.08784,-0.00488,0.00976,0.01952,0.0244
0.00976,-0.06344,0.11712,0.11224,0.10736,-0.0488,-0.1464,-0.08784,-0.00488,0.00488,0.01464,0.0244
0.00976,-0.05856,0.10736,0.10248,0.0976,-0.04392,-0.14152,-0.08784,-0.00976,0,0.01464,0.0244
0.01464,-0.05856,0.10248,0.09516,0.08784,-0.0366,-0.13664,-0.07808,-0.01464,-0.00976,0.01464,0.01952
0.0244,-0.061,0.0976,0.0854,0.0732,-0.0244,-0.122,-0.06832,-0.01952,-0.01464,0.00488,0.00976
0.0244,-0.05368,0.08296,0.07076,0.05856,-0.01708,-0.122,-0.05368,-0.0244,-0.01952,0,0.00488
0.0244,-0.04392,0.06344,0.05124,0.03904,-0.00732,-0.11712,-0.05368,-0.03904,-0.0244,-0.00488,-0.00488
0.01464,-0.03172,0.0488,0.04148,0.03416,-0.00976,-0.11712,-0.05368,-0.0488,-0.03416,-0.00976,-0.00976
-0.00488,-0.0122,0.02928,0.03172,0.03416,-0.01952,-0.11224,-0.05856,-0.0488,-0.03416,-0.0244,-0.01952
-0.01952,0.00488,0.00976,0.01952,0.02928,-0.0244,-0.10736,-0.05856,-0.06344,-0.04392,-0.03416,-0.0244
-0.02928,0.01708,-0.00488,0.00976,0.0244,-0.02684,-0.10736,-0.05856,-0.06832,-0.05368,-0.03904,-0.02928
-0.03416,0.02196,-0.00976,0.00732,0.0244,-0.02928,-0.10248,-0.05856,-0.07808,-0.06832,-0.0488,-0.03416
-0.03416,0.02684,-0.01952,-0.00244,0.01464,-0.0244,-0.10736,-0.05856,-0.09272,-0.07808,-0.0488,-0.03904
-0.03416,0.02928,-0.0244,-0.00732,0.00976,-0.02196,-0.10736,-0.05368,-0.09272,-0.07808,-0.05368,-0.04392
-0.03416,0.02928,-0.0244,-0.00732,0.00976,-0.02196,-0.0976,-0.04392,-0.0976,-0.08296,-0.05856,-0.04392
-0.03904,0.03172,-0.0244,-0.00488,0.01464,-0.02684,-0.09272,-0.03904,-0.0976,-0.08784,-0.06344,-0.04392
-0.03904,0.03416,-0.02928,-0.00976,0.00976,-0.0244,-0.08784,-0.03904,-0.0976,-0.08784,-0.06344,-0.0488
-0.04392,0.04148,-0.03904,-0.01708,0.00488,-0.0244,-0.08784,-0.03416,-0.10248,-0.08784,-0.06344,-0.05368
-0.04392,0.04636,-0.0488,-0.02684,-0.00488,-0.01952,-0.08784,-0.02928,-0.10248,-0.08784,-0.06344,-0.05856
-0.04392,0.04636,-0.0488,-0.02684,-0.00488,-0.01952,-0.08784,-0.0244,-0.10736,-0.08784,-0.06832,-0.06344
-0.04392,0.04636,-0.0488,-0.02684,-0.00488,-0.01952,-0.08296,-0.0244,-0.10736,-0.09272,-0.06832,-0.06344
-0.0488,0.0488,-0.0488,-0.0244,0,-0.0244,-0.08784,-0.01464,-0.10248,-0.09272,-0.06832,-0.06344
-0.0488,0.05124,-0.05368,-0.02928,-0.00488,-0.02196,-0.08784,-0.00976,-0.0976,-0.09272,-0.06832,-0.06344
-0.0488,0.05124,-0.05368,-0.02928,-0.00488,-0.02196,-0.08784,-0.00976,-0.0976,-0.09272,-0.06832,-0.06344
-0.0488,0.05124,-0.05368,-0.02928,-0.00488,-0.02196,-0.08784,-0.00488,-0.0976,-0.09272,-0.06832,-0.06344
-0.0488,0.05124,-0.05368,-0.02928,-0.00488,-0.02196,-0.08296,-0.00488,-0.0976,-0.09272,-0.06832,-0.06344
-0.0488,0.05124,-0.05368,-0.02928,-0.00488,-0.02196,-0.0732,0,-0.10248,-0.09272,-0.06832,-0.06344
-0.04392,0.05856,-0.0732,-0.05124,-0.02928,-0.00732,-0.06832,0.00976,-0.11712,-0.10248,-0.07808,-0.06832
-0.03416,0.07564,-0.11712,-0.10004,-0.08296,0.0244,-0.05368,0.0244,-0.15128,-0.13664,-0.11224,-0.07808
-0.01952,0.0854,-0.15128,-0.14152,-0.13176,0.05612,-0.0488,0.04392,-0.17568,-0.1708,-0.13664,-0.0976
-0.00976,0.09028,-0.1708,-0.16592,-0.16104,0.07564,-0.0244,0.08784,-0.19032,-0.20984,-0.16592,-0.12688
0,0.07564,-0.15128,-0.15128,-0.15128,0.07564,-0.01464,0.08784,-0.1464,-0.16592,-0.13664,-0.10736
0.04392,-0.03172,0.01952,-0.00244,-0.0244,0.03416,-0.06344,0.0732,0.03416,0.04392,0.01952,0
0.122,-0.2196,0.3172,0.2562,0.1952,-0.0366,-0.18056,0.01952,0.30744,0.37576,0.27328,0.16592
0.244,-0.46848,0.69296,0.57096,0.44896,-0.10248,-0.32208,-0.06832,0.6344,0.78568,0.61,0.41968
0.3416,-0.73444,1.12728,0.95648,0.78568,-0.22204,-0.52704,-0.26352,1.01504,1.24928,0.99064,0.69784
0.41968,-0.9516,1.48352,1.27368,1.06384,-0.32208,-0.7808,-0.47824,1.32248,1.6348,1.29808,0.91256
0.3904,-1.04676,1.70312,1.50792,1.31272,-0.46116,-1.0248,-0.7076,1.44936,1.77632,1.42984,1.03944
0.27328,-0.95648,1.63968,1.50304,1.3664,-0.54656,-1.1468,-0.84424,1.41032,1.6348,1.37128,1.02968
0.15128,-0.73688,1.32248,1.24684,1.1712,-0.50996,-1.12728,-0.86864,1.13704,1.27368,1.07848,0.81496
0.00976,-0.44164,0.87352,0.86864,0.86376,-0.427,-0.98088,-0.77104,0.73688,0.76128,0.65392,0.5124
-0.09272,-0.19276,0.47824,0.5246,0.57096,-0.33184,-0.70272,-0.59536,0.27328,0.26352,0.25864,0.23912
-0.09272,-0.03416,0.16104,0.2074,0.25376,-0.17324,-0.45872,-0.36112,-0.1464,-0.08784,0.00488,0.0488
-0.09272,0.05856,-0.0244,0.02196,0.06832,-0.08052,-0.25376,-0.1708,-0.25376,-0.19032,-0.10248,-0.03904
-0.09272,0.09272,-0.09272,-0.04636,0,-0.04636,-0.122,-0.06344,-0.22448,-0.18056,-0.11224,-0.06832
-0.06344,0.08296,-0.10248,-0.07076,-0.03904,-0.0122,-0.05856,0.00976,-0.16592,-0.1464,-0.11224,-0.08296
-0.0488,0.06588,-0.08296,-0.05856,-0.03416,-0.00732,-0.01952,0.04392,-0.08296,-0.08296,-0.08784,-0.0732
-0.03904,0.04636,-0.05368,-0.03416,-0.01464,-0.0122,-0.04392,0.03904,-0.05368,-0.06832,-0.06832,-0.05368
-0.03416,0.03904,-0.04392,-0.02684,-0.00976,-0.0122,-0.0488,0.02928,-0.0732,-0.07808,-0.06832,-0.0488
-0.03416,0.03904,-0.04392,-0.02684,-0.00976,-0.0122,-0.05856,0.01952,-0.0732,-0.08296,-0.06832,-0.0488
-0.02928,0.0366,-0.04392,-0.02928,-0.01464,-0.00732,-0.05856,0.00488,-0.0732,-0.08296,-0.06832,-0.05368
-0.02928,0.03904,-0.0488,-0.03416,-0.01952,-0.00488,-0.05856,-0.00488,-0.0732,-0.08296,-0.06832,-0.05368
-0.03416,0.04392,-0.05368,-0.0366,-0.01952,-0.00732,-0.05856,-0.01464,-0.06832,-0.08296,-0.06832,-0.05368
-0.03416,0.04392,-0.05368,-0.0366,-0.01952,-0.00732,-0.05856,-0.01464,-0.06832,-0.08296,-0.06832,-0.05368
-0.02928,0.04148,-0.05368,-0.03904,-0.0244,-0.00244,-0.05856,-0.01464,-0.06832,-0.08296,-0.06832,-0.05368
-0.02928,0.03904,-0.0488,-0.03416,-0.01952,-0.00488,-0.0732,-0.01952,-0.06344,-0.07808,-0.06344,-0.0488
-0.02928,0.03416,-0.03904,-0.0244,-0.00976,-0.00976,-0.08296,-0.01464,-0.06344,-0.0732,-0.05856,-0.0488
-0.02928,0.03416,-0.03904,-0.0244,-0.00976,-0.00976,-0.08784,-0.02928,-0.05856,-0.06832,-0.05368,-0.0488
-0.02928,0.03416,-0.03904,-0.0244,-0.00976,-0.00976,-0.0976,-0.02928,-0.05856,-0.06832,-0.05368,-0.0488
-0.0244,0.03172,-0.03904,-0.02684,-0.01464,-0.00488,-0.11224,-0.03904,-0.0488,-0.06832,-0.05368,-0.04392
-0.01952,0.0244,-0.02928,-0.01952,-0.00976,-0.00488,-0.11712,-0.04392,-0.0488,-0.06344,-0.05368,-0.04392
-0.01952,0.02196,-0.0244,-0.01464,-0.00488,-0.00732,-0.122,-0.05368,-0.0488,-0.06344,-0.0488,-0.04392
-0.01464,0.01952,-0.0244,-0.01708,-0.00976,-0.00244,-0.122,-0.06344,-0.0488,-0.05856,-0.04392,-0.03904
-0.01464,0.01952,-0.0244,-0.01708,-0.00976,-0.00244,-0.122,-0.06344,-0.03904,-0.05856,-0.04392,-0.03904
-0.00976,0.01708,-0.0244,-0.01952,-0.01464,0.00244,-0.122,-0.06832,-0.03416,-0.0488,-0.04392,-0.03904
-0.00976,0.0122,-0.01464,-0.00976,-0.00488,-0.00244,-0.122,-0.06832,-0.02928,-0.0488,-0.03904,-0.03904
-0.00976,0.00976,-0.00976,-0.00488,0,-0.00488,-0.122,-0.07808,-0.02928,-0.04392,-0.03416,-0.03904
-0.00488,0.00488,-0.00488,-0.00244,0,-0.00244,-0.11224,-0.07808,-0.01952,-0.03904,-0.03904,-0.03416
-0.00488,0.00244,0,0.00244,0.00488,-0.00488,-0.11224,-0.0732,-0.01464,-0.03416,-0.03904,-0.02928
-0.00976,0.00488,0,0.00488,0.00976,-0.00976,-0.12688,-0.0732,-0.00976,-0.02928,-0.03416,-0.02928
-0.00976,0.00244,0.00488,0.00976,0.01464,-0.0122,-0.12688,-0.0732,-0.00488,-0.01952,-0.02928,-0.01952
-0.00488,-0.00488,0.01464,0.01708,0.01952,-0.0122,-0.13176,-0.0732,0,-0.01464,-0.0244,-0.01952
-0.00488,-0.00976,0.0244,0.02684,0.02928,-0.01708,-0.14152,-0.0732,0.00976,-0.00976,-0.01464,-0.01952
0.01464,-0.02196,0.02928,0.02196,0.01464,0,-0.1464,-0.08296,0.01464,-0.00488,-0.00976,-0.00976
0.0244,-0.03172,0.03904,0.02684,0.01464,0.00488,-0.1464,-0.08296,0.01952,0,-0.00488,-0.00488
0.02928,-0.0366,0.04392,0.02928,0.01464,0.00732,-0.15128,-0.06832,0.02928,0.00976,0,0
0.03416,-0.04392,0.05368,0.0366,0.01952,0.00732,-0.15616,-0.05368,0.04392,0.01464,0.00488,0.00488
0.03416,-0.04636,0.05856,0.04148,0.0244,0.00488,-0.16592,-0.03904,0.0488,0.01952,0.00976,0.00488
0.03904,-0.05612,0.0732,0.05368,0.03416,0.00244,-0.15616,-0.0244,0.05368,0.0244,0.01952,0.00488
0.04392,-0.061,0.07808,0.05612,0.03416,0.00488,-0.15616,-0.00976,0.05856,0.02928,0.0244,0.00488
0.05368,-0.07076,0.08784,0.061,0.03416,0.00976,-0.15616,0.00976,0.05856,0.03416,0.02928,0.00976
0.05368,-0.07564,0.0976,0.07076,0.04392,0.00488,-0.15616,0.01952,0.05856,0.03904,0.03416,0.01464
0.05368,-0.07564,0.0976,0.07076,0.04392,0.00488,-0.15128,0.03416,0.06344,0.04392,0.03416,0.01952
0.05856,-0.08052,0.10248,0.0732,0.04392,0.00732,-0.15128,0.05368,0.06344,0.0488,0.03416,0.0244
0.06344,-0.08784,0.11224,0.08052,0.0488,0.00732,-0.14152,0.0732,0.06832,0.0488,0.03904,0.02928
0.06344,-0.09028,0.11712,0.0854,0.05368,0.00488,-0.14152,0.07808,0.06832,0.0488,0.04392,0.02928
0.06344,-0.09272,0.122,0.09028,0.05856,0.00244,-0.12688,0.08296,0.06832,0.05368,0.04392,0.03904
0.05856,-0.08784,0.11712,0.08784,0.05856,0,-0.14152,0.08784,0.06832,0.05368,0.04392,0.03416
0.05368,-0.0854,0.11712,0.09028,0.06344,-0.00488,-0.14152,0.08784,0.06832,0.05856,0.0488,0.02928
0.05368,-0.0854,0.11712,0.09028,0.06344,-0.00488,-0.14152,0.08784,0.06832,0.05856,0.0488,0.03416
0.05368,-0.0854,0.11712,0.09028,0.06344,-0.00488,-0.13664,0.09272,0.06832,0.05856,0.05368,0.03416
0.06344,-0.09272,0.122,0.09028,0.05856,0.00244,-0.13664,0.0976,0.06832,0.05856,0.05368,0.03416
0.06344,-0.09516,0.12688,0.09516,0.06344,0,-0.13664,0.10248,0.06832,0.05856,0.05368,0.03416
0.06344,-0.09516,0.12688,0.09516,0.06344,0,-0.1464,0.08784,0.06344,0.05856,0.04392,0.02928
0.05368,-0.0854,0.11712,0.09028,0.06344,-0.00488,-0.15128,0.07808,0.05368,0.05856,0.03904,0.02928
0.03904,-0.07564,0.11224,0.09272,0.0732,-0.01708,-0.15128,0.0732,0.0488,0.0488,0.02928,0.01952
0.0244,-0.061,0.0976,0.0854,0.0732,-0.0244,-0.1464,0.07808,0.04392,0.04392,0.0244,0.01464
0.0244,-0.05612,0.08784,0.07564,0.06344,-0.01952,-0.1464,0.0732,0.03904,0.03904,0.0244,0.00976
0.00976,-0.04392,0.07808,0.0732,0.06832,-0.02928,-0.1464,0.0732,0.0244,0.01952,0.01464,-0.00488
0.00976,-0.0366,0.06344,0.05856,0.05368,-0.02196,-0.15128,0.05368,0.01464,0.00976,0.00488,-0.00488
0.00976,-0.03172,0.05368,0.0488,0.04392,-0.01708,-0.15616,0.05368,0.00488,-0.00488,-0.00488,-0.00976
-0.00488,-0.01708,0.03904,0.04148,0.04392,-0.0244,-0.16104,0.03416,-0.00976,-0.01464,-0.00976,-0.01952
-0.01464,-0.00488,0.0244,0.03172,0.03904,-0.02684,-0.16592,0.0244,-0.01952,-0.0244,-0.01952,-0.0244
-0.0244,0.00488,0.01464,0.02684,0.03904,-0.03172,-0.16592,0.00976,-0.02928,-0.03416,-0.0244,-0.0244
-0.02928,0.0122,0.00488,0.01952,0.03416,-0.03172,-0.17568,-0.00488,-0.03416,-0.04392,-0.02928,-0.0244
-0.03416,0.01952,-0.00488,0.0122,0.02928,-0.03172,-0.1708,-0.01464,-0.04392,-0.05368,-0.03416,-0.0244
-0.03416,0.02196,-0.00976,0.00732,0.0244,-0.02928,-0.18056,-0.02928,-0.0488,-0.05368,-0.03904,-0.03416
-0.03416,0.0244,-0.01464,0.00244,0.01952,-0.02684,-0.18056,-0.03904,-0.05368,-0.05368,-0.03904,-0.02928
-0.03904,0.02928,-0.01952,0,0.01952,-0.02928,-0.18056,-0.03904,-0.05856,-0.05368,-0.03904,-0.02928
-0.0488,0.0366,-0.0244,0,0.0244,-0.0366,-0.18056,-0.04392,-0.05856,-0.05856,-0.03904,-0.03416
-0.05856,0.04392,-0.02928,0,0.02928,-0.04392,-0.18056,-0.05368,-0.06832,-0.06344,-0.03904,-0.03416
-0.0488,0.0366,-0.0244,0,0.0244,-0.0366,-0.18056,-0.06344,-0.06832,-0.06344,-0.03904,-0.03416
-0.04392,0.03172,-0.01952,0.00244,0.0244,-0.03416,-0.18544,-0.0732,-0.06832,-0.06344,-0.03904,-0.03904
-0.04392,0.03172,-0.01952,0.00244,0.0244,-0.03416,-0.18544,-0.07808,-0.06832,-0.06344,-0.04392,-0.03904
-0.0488,0.03416,-0.01952,0.00488,0.02928,-0.03904,-0.18544,-0.07808,-0.06832,-0.06344,-0.04392,-0.03904
-0.0488,0.03416,-0.01952,0.00488,0.02928,-0.03904,-0.18544,-0.08784,-0.06344,-0.06344,-0.04392,-0.03904
-0.0488,0.03416,-0.01952,0.00488,0.02928,-0.03904,-0.18544,-0.09272,-0.05856,-0.06344,-0.04392,-0.03904
-0.0488,0.03416,-0.01952,0.00488,0.02928,-0.03904,-0.19032,-0.10248,-0.05856,-0.06832,-0.0488,-0.03904
-0.0488,0.03416,-0.01952,0.00488,0.02928,-0.03904,-0.19032,-0.10736,-0.05368,-0.06832,-0.0488,-0.03904
-0.04392,0.03172,-0.01952,0.00244,0.0244,-0.03416,-0.18544,-0.0976,-0.0488,-0.06344,-0.04392,-0.03904
-0.03904,0.02928,-0.01952,0,0.01952,-0.02928,-0.18544,-0.08784,-0.0488,-0.05856,-0.03904,-0.03904
-0.03904,0.02928,-0.01952,0,0.01952,-0.02928,-0.18544,-0.07808,-0.0488,-0.05856,-0.03904,-0.03904
-0.03904,0.02928,-0.01952,0,0.01952,-0.02928,-0.18544,-0.06832,-0.0488,-0.05856,-0.03904,-0.03904
-0.03904,0.02684,-0.01464,0.00488,0.0244,-0.03172,-0.18056,-0.06832,-0.04392,-0.05856,-0.03904,-0.03904
-0.03416,0.01952,-0.00488,0.0122,0.02928,-0.03172,-0.17568,-0.0732,-0.03416,-0.05368,-0.03416,-0.03416
-0.02928,0.01464,0,0.01464,0.02928,-0.02928,-0.1708,-0.07808,-0.02928,-0.0488,-0.03416,-0.02928
-0.01952,0.00732,0.00488,0.01464,0.0244,-0.02196,-0.15616,-0.09272,-0.01952,-0.04392,-0.0244,-0.01952
-0.01464,-0.00244,0.01952,0.02684,0.03416,-0.0244,-0.1464,-0.09272,-0.00976,-0.02928,-0.01464,-0.01952
-0.00976,-0.01464,0.03904,0.04392,0.0488,-0.02928,-0.1464,-0.09272,0.00488,-0.01952,-0.00488,-0.00976
-0.00976,-0.01952,0.0488,0.05368,0.05856,-0.03416,-0.14152,-0.0732,0.01464,-0.00976,0.00488,0
-0.00976,-0.0244,0.05856,0.06344,0.06832,-0.03904,-0.13664,-0.06344,0.01952,0,0.01464,0.00976
-0.00976,-0.02928,0.06832,0.0732,0.07808,-0.04392,-0.1464,-0.06344,0.0244,0,0.01952,0.01464
-0.00488,-0.03172,0.06832,0.07076,0.0732,-0.03904,-0.15128,-0.06344,0.02928,0.00976,0.0244,0.01464
0,-0.03904,0.07808,0.07808,0.07808,-0.03904,-0.17568,-0.07808,0.02928,0.01464,0.02928,0.0244
0.00488,-0.04392,0.08296,0.08052,0.07808,-0.0366,-0.1952,-0.11712,0.02928,0.01464,0.03416,0.0244
0.00488,-0.0488,0.09272,0.09028,0.08784,-0.04148,-0.2196,-0.13664,0.0244,0.01464,0.03416,0.02928
0.00488,-0.05124,0.0976,0.09516,0.09272,-0.04392,-0.244,-0.16104,0.01952,0.01464,0.03904,0.03416
0.00488,-0.05124,0.0976,0.09516,0.09272,-0.04392,-0.26352,-0.19032,0.00488,0.01464,0.03904,0.03416
0.00488,-0.05124,0.0976,0.09516,0.09272,-0.04392,-0.27328,-0.20496,-0.00488,0.00976,0.03904,0.03416
0.00976,-0.05368,0.0976,0.09272,0.08784,-0.03904,-0.27328,-0.20496,0,0.00488,0.03416,0.03416
0.00976,-0.0488,0.08784,0.08296,0.07808,-0.03416,-0.2684,-0.20496,0,0,0.03416,0.03416
0.01464,-0.0488,0.08296,0.07564,0.06832,-0.02684,-0.26352,-0.1952,-0.00488,-0.00488,0.03416,0.03416
0.0244,-0.05124,0.07808,0.06588,0.05368,-0.01464,-0.24888,-0.18544,-0.00976,-0.00488,0.0244,0.02928
0.0244,-0.04392,0.06344,0.05124,0.03904,-0.00732,-0.244,-0.17568,-0.01464,-0.00976,0.01952,0.0244
0.0244,-0.03416,0.04392,0.03172,0.01952,0.00244,-0.23424,-0.18056,-0.02928,-0.01464,0.01464,0.01464
0.01952,-0.02684,0.03416,0.0244,0.01464,0.00244,-0.22936,-0.18056,-0.04392,-0.02928,0.00976,0.00488
0.00488,-0.0122,0.01952,0.01708,0.01464,-0.00488,-0.2196,-0.18544,-0.0488,-0.03416,-0.00488,-0.00976
-0.00976,0.00488,0,0.00488,0.00976,-0.00976,-0.21472,-0.18544,-0.06344,-0.04392,-0.01464,-0.01952
-0.01952,0.01708,-0.01464,-0.00488,0.00488,-0.0122,-0.21472,-0.18544,-0.06832,-0.05368,-0.01952,-0.02928
-0.02928,0.02684,-0.0244,-0.00976,0.00488,-0.01708,-0.20008,-0.19032,-0.0732,-0.06344,-0.02928,-0.03416
-0.03416,0.0366,-0.03904,-0.02196,-0.00488,-0.01464,-0.1952,-0.1952,-0.08296,-0.06832,-0.02928,-0.03904
-0.03416,0.03904,-0.04392,-0.02684,-0.00976,-0.0122,-0.1952,-0.1952,-0.08296,-0.06832,-0.03416,-0.04392
-0.03416,0.03904,-0.04392,-0.02684,-0.00976,-0.0122,-0.18544,-0.19032,-0.08784,-0.0732,-0.03904,-0.04392
-0.03904,0.04148,-0.04392,-0.0244,-0.00488,-0.01708,-0.18056,-0.19032,-0.08296,-0.07808,-0.04392,-0.03904
-0.03904,0.04392,-0.0488,-0.02928,-0.00976,-0.01464,-0.17568,-0.1952,-0.07808,-0.07808,-0.04392,-0.03904
-0.04392,0.0488,-0.05368,-0.03172,-0.00976,-0.01708,-0.16592,-0.1952,-0.08296,-0.07808,-0.04392,-0.03904
-0.04392,0.05124,-0.05856,-0.0366,-0.01464,-0.01464,-0.15616,-0.1952,-0.08296,-0.07808,-0.04392,-0.03904
-0.04392,0.05124,-0.05856,-0.0366,-0.01464,-0.01464,-0.16592,-0.19032,-0.08784,-0.07808,-0.0488,-0.04392
-0.04392,0.05124,-0.05856,-0.0366,-0.01464,-0.01464,-0.1708,-0.19032,-0.08784,-0.08296,-0.0488,-0.04392
-0.04392,0.0488,-0.05368,-0.03172,-0.00976,-0.01708,-0.1708,-0.18544,-0.08784,-0.08296,-0.0488,-0.04392
-0.03904,0.04636,-0.05368,-0.03416,-0.01464,-0.0122,-0.16592,-0.18544,-0.08784,-0.08296,-0.0488,-0.04392
-0.03904,0.04636,-0.05368,-0.03416,-0.01464,-0.0122,-0.16592,-0.1952,-0.08784,-0.08296,-0.0488,-0.04392
-0.03904,0.04636,-0.05368,-0.03416,-0.01464,-0.0122,-0.16592,-0.20008,-0.08784,-0.08296,-0.0488,-0.04392
-0.03904,0.04636,-0.05368,-0.03416,-0.01464,-0.0122,-0.15616,-0.20008,-0.08296,-0.08296,-0.0488,-0.04392
-0.03904,0.04636,-0.05368,-0.03416,-0.01464,-0.0122,-0.14152,-0.1952,-0.08296,-0.08296,-0.0488,-0.04392
-0.03416,0.05368,-0.0732,-0.05612,-0.03904,0.00244,-0.13664,-0.17568,-0.0976,-0.09272,-0.05856,-0.05368
-0.0244,0.07076,-0.11712,-0.10492,-0.09272,0.03416,-0.122,-0.15128,-0.13176,-0.12688,-0.09272,-0.06832
-0.00976,0.0854,-0.16104,-0.15616,-0.15128,0.07076,-0.11224,-0.12688,-0.16592,-0.16592,-0.11712,-0.08784
0,0.09516,-0.19032,-0.19032,-0.19032,0.09516,-0.08296,-0.07808,-0.19032,-0.20984,-0.1464,-0.11712
0.00976,0.0854,-0.18056,-0.18544,-0.19032,0.10004,-0.06344,-0.08296,-0.15616,-0.18544,-0.13664,-0.11224
0.05368,-0.01708,-0.01952,-0.04636,-0.0732,0.06344,-0.10248,-0.10248,0.01464,0.00488,0,-0.01952
0.122,-0.18788,0.25376,0.19276,0.13176,-0.00488,-0.22448,-0.16592,0.26352,0.30744,0.23912,0.1464
0.23424,-0.41968,0.60512,0.488,0.37088,-0.06832,-0.37088,-0.26352,0.56608,0.68808,0.5612,0.40016
0.36112,-0.71736,1.0736,0.89304,0.71248,-0.17568,-0.58072,-0.4636,0.95648,1.1712,0.96136,0.69296
0.46848,-0.96624,1.464,1.22976,0.99552,-0.26352,-0.83936,-0.6832,1.27368,1.57624,1.28832,0.92232
0.44408,-1.08092,1.71776,1.49572,1.27368,-0.4148,-1.12728,-0.94184,1.41032,1.76168,1.464,1.0736
0.33184,-1.01016,1.68848,1.52256,1.35664,-0.5124,-1.2932,-1.10776,1.38104,1.66408,1.44936,1.08824
0.19032,-0.78568,1.38104,1.28588,1.19072,-0.5002,-1.24928,-1.13216,1.13704,1.33712,1.17608,0.89792
0.02928,-0.48556,0.94184,0.9272,0.91256,-0.44164,-1.07848,-1.03456,0.76616,0.85888,0.77104,0.61976
-0.0732,-0.22692,0.52704,0.56364,0.60024,-0.33672,-0.7808,-0.83936,0.30256,0.33672,0.34648,0.3172
-0.0732,-0.05856,0.19032,0.22692,0.26352,-0.16836,-0.51728,-0.5856,-0.11712,-0.03904,0.06344,0.0976
-0.0732,0.03904,-0.00488,0.03172,0.06832,-0.07076,-0.28792,-0.37576,-0.22448,-0.15128,-0.05368,0
-0.0732,0.07808,-0.08296,-0.04636,-0.00976,-0.03172,-0.13176,-0.24888,-0.1952,-0.15128,-0.0732,-0.03904
-0.04392,0.07076,-0.0976,-0.07564,-0.05368,0.00488,-0.06832,-0.17568,-0.13664,-0.12688,-0.07808,-0.06344
-0.02928,0.05612,-0.08296,-0.06832,-0.05368,0.0122,-0.02928,-0.14152,-0.05368,-0.0732,-0.05856,-0.06344
-0.02928,0.04392,-0.05856,-0.04392,-0.02928,0,-0.04392,-0.13664,-0.01952,-0.0488,-0.03904,-0.04392
-0.03416,0.04392,-0.05368,-0.0366,-0.01952,-0.00732,-0.03904,-0.13664,-0.03416,-0.0488,-0.03904,-0.03904
-0.03416,0.04392,-0.05368,-0.0366,-0.01952,-0.00732,-0.04392,-0.13664,-0.03416,-0.05368,-0.03904,-0.03904
-0.02928,0.04148,-0.05368,-0.03904,-0.0244,-0.00244,-0.03904,-0.14152,-0.03416,-0.05368,-0.03904,-0.04392
-0.0244,0.03904,-0.05368,-0.04148,-0.02928,0.00244,-0.03904,-0.1464,-0.03416,-0.05368,-0.03904,-0.04392
-0.0244,0.03904,-0.05368,-0.04148,-0.02928,0.00244,-0.03904,-0.15128,-0.02928,-0.05368,-0.03904,-0.04392
-0.0244,0.03904,-0.05368,-0.04148,-0.02928,0.00244,-0.03904,-0.15128,-0.02928,-0.05368,-0.03904,-0.04392
-0.01952,0.0366,-0.05368,-0.04392,-0.03416,0.00732,-0.03904,-0.15128,-0.02928,-0.05368,-0.03904,-0.04392
-0.01952,0.03416,-0.0488,-0.03904,-0.02928,0.00488,-0.04392,-0.15128,-0.0244,-0.0488,-0.03416,-0.03904
-0.01952,0.02928,-0.03904,-0.02928,-0.01952,0,-0.04392,-0.14152,-0.0244,-0.04392,-0.02928,-0.03904
-0.01952,0.02928,-0.03904,-0.02928,-0.01952,0,-0.03904,-0.15616,-0.01952,-0.03904,-0.0244,-0.03904
-0.01952,0.02928,-0.03904,-0.02928,-0.01952,0,-0.03904,-0.15616,-0.01952,-0.03904,-0.0244,-0.03904
-0.01464,0.02684,-0.03904,-0.03172,-0.0244,0.00488,-0.0488,-0.1708,-0.00976,-0.03904,-0.0244,-0.03416
-0.00976,0.01952,-0.02928,-0.0244,-0.01952,0.00488,-0.0488,-0.18056,-0.00976,-0.03416,-0.0244,-0.03416
-0.00976,0.01708,-0.0244,-0.01952,-0.01464,0.00244,-0.05368,-0.17568,-0.00976,-0.03416,-0.01952,-0.03416
-0.00488,0.01464,-0.0244,-0.02196,-0.01952,0.00732,-0.05368,-0.1708,-0.00976,-0.02928,-0.01464,-0.02928
-0.00488,0.01464,-0.0244,-0.02196,-0.01952,0.00732,-0.04392,-0.16104,0,-0.02928,-0.01464,-0.02928
0,0.0122,-0.0244,-0.0244,-0.0244,0.0122,-0.03416,-0.15616,0.00488,-0.01952,-0.01464,-0.02928
0,0.00732,-0.01464,-0.01464,-0.01464,0.00732,-0.03416,-0.1464,0.00976,-0.01952,-0.00976,-0.0244
0,0.00488,-0.00976,-0.00976,-0.00976,0.00488,-0.03416,-0.1464,0.00976,-0.01464,-0.00488,-0.01952
0.00488,0,-0.00488,-0.00732,-0.00976,0.00732,-0.00976,-0.14152,0.01952,-0.00976,-0.00488,-0.01464
0.00488,-0.00244,0,-0.00244,-0.00488,0.00488,0.00488,-0.13176,0.0244,-0.00488,0,-0.00976
0,0,0,0,0,0,-0.00976,-0.12688,0.02928,-0.00488,0.00488,-0.01464
0,-0.00244,0.00488,0.00488,0.00488,-0.00244,-0.00976,-0.122,0.03416,0,0.00976,-0.00976
0.00488,-0.00732,0.00976,0.00732,0.00488,0,-0.01464,-0.11224,0.03904,0.00488,0.00976,-0.00976
0.00488,-0.00976,0.01464,0.0122,0.00976,-0.00244,-0.0244,-0.10248,0.0488,0.00976,0.01464,-0.00976
0.01464,-0.01708,0.01952,0.0122,0.00488,0.00488,-0.02928,-0.10248,0.05856,0.01464,0.01952,0
0.01464,-0.02196,0.02928,0.02196,0.01464,0,-0.02928,-0.09272,0.06832,0.01952,0.0244,0.00488
0.01952,-0.02684,0.03416,0.0244,0.01464,0.00244,-0.03416,-0.08784,0.0732,0.02928,0.02928,0.00976
0.0244,-0.03416,0.04392,0.03172,0.01952,0.00244,-0.03904,-0.08296,0.08296,0.03416,0.03416,0.01464
0.0244,-0.03904,0.05368,0.04148,0.02928,-0.00244,-0.0488,-0.08296,0.09272,0.0488,0.04392,0.01952
0.02928,-0.05124,0.0732,0.05856,0.04392,-0.00732,-0.03904,-0.08296,0.10248,0.06344,0.05856,0.0244
0.03904,-0.05856,0.07808,0.05856,0.03904,0,-0.04392,-0.0732,0.11224,0.06832,0.06344,0.0244
0.05368,-0.07076,0.08784,0.061,0.03416,0.00976,-0.0488,-0.05856,0.11712,0.0732,0.06832,0.02928
0.05856,-0.07808,0.0976,0.06832,0.03904,0.00976,-0.05368,-0.05368,0.11712,0.07808,0.0732,0.03416
0.06344,-0.08052,0.0976,0.06588,0.03416,0.01464,-0.05368,-0.04392,0.122,0.08296,0.0732,0.03904
0.06832,-0.08296,0.0976,0.06344,0.02928,0.01952,-0.05856,-0.03904,0.122,0.08784,0.0732,0.03904
0.0732,-0.08784,0.10248,0.06588,0.02928,0.02196,-0.05368,-0.03416,0.12688,0.08784,0.07808,0.03904
0.0732,-0.09028,0.10736,0.07076,0.03416,0.01952,-0.05368,-0.02928,0.12688,0.08784,0.08296,0.03904
0.0732,-0.09272,0.11224,0.07564,0.03904,0.01708,-0.03904,-0.0244,0.12688,0.09272,0.08296,0.0488
0.06832,-0.09028,0.11224,0.07808,0.04392,0.0122,-0.04392,-0.01952,0.12688,0.09272,0.08296,0.0488
0.06344,-0.09028,0.11712,0.0854,0.05368,0.00488,-0.03416,-0.01952,0.12688,0.0976,0.08784,0.0488
0.06344,-0.09028,0.11712,0.0854,0.05368,0.00488,-0.03416,-0.03416,0.12688,0.09272,0.08784,0.05368
0.06344,-0.09028,0.11712,0.0854,0.05368,0.00488,-0.02928,-0.04392,0.12688,0.08784,0.09272,0.05368
0.06344,-0.08784,0.11224,0.08052,0.0488,0.00732,-0.02928,-0.0488,0.122,0.08784,0.08784,0.05368
0.05368,-0.08052,0.10736,0.08052,0.05368,0,-0.02928,-0.05368,0.11712,0.08784,0.08296,0.05368
0.05368,-0.08052,0.10736,0.08052,0.05368,0,-0.03904,-0.06832,0.11224,0.08296,0.07808,0.0488
0.04392,-0.07076,0.0976,0.07564,0.05368,-0.00488,-0.04392,-0.07808,0.10248,0.07808,0.07808,0.0488
0.03416,-0.06344,0.09272,0.07564,0.05856,-0.0122,-0.0488,-0.0976,0.09272,0.06832,0.06832,0.03904
0.0244,-0.05124,0.07808,0.06588,0.05368,-0.01464,-0.0488,-0.10736,0.08296,0.06344,0.06344,0.03416
0.01464,-0.03904,0.06344,0.05612,0.0488,-0.01708,-0.0488,-0.12688,0.07808,0.05856,0.05856,0.02928
-0.00976,-0.01952,0.0488,0.05368,0.05856,-0.03416,-0.0488,-0.14152,0.06344,0.03904,0.04392,0.01464
-0.00488,-0.01464,0.03416,0.0366,0.03904,-0.02196,-0.05368,-0.16592,0.0488,0.03416,0.03416,0.01464
0,-0.0122,0.0244,0.0244,0.0244,-0.0122,-0.05856,-0.1708,0.03416,0.0244,0.0244,0.00976
-0.00976,-0.00244,0.01464,0.01952,0.0244,-0.01708,-0.05856,-0.19032,0.01952,0.01464,0.01952,0
-0.01464,0.00488,0.00488,0.0122,0.01952,-0.01708,-0.05856,-0.20008,0.00976,0.00488,0.00976,-0.00488
-0.01952,0.0122,-0.00488,0.00488,0.01464,-0.01708,-0.0488,-0.20496,-0.00488,-0.00488,0,-0.00976
-0.01952,0.01708,-0.01464,-0.00488,0.00488,-0.0122,-0.0488,-0.20984,-0.01464,-0.01464,-0.00976,-0.01464
-0.0244,0.0244,-0.0244,-0.0122,0,-0.0122,-0.0488,-0.21472,-0.0244,-0.0244,-0.01464,-0.01464
-0.0244,0.02684,-0.02928,-0.01708,-0.00488,-0.00976,-0.06344,-0.22448,-0.02928,-0.0244,-0.01952,-0.0244
-0.0244,0.02928,-0.03416,-0.02196,-0.00976,-0.00732,-0.06832,-0.23912,-0.03416,-0.02928,-0.01952,-0.0244
-0.02928,0.03416,-0.03904,-0.0244,-0.00976,-0.00976,-0.0732,-0.244,-0.03904,-0.03416,-0.01952,-0.02928
-0.03416,0.03904,-0.04392,-0.02684,-0.00976,-0.0122,-0.0732,-0.244,-0.03904,-0.03904,-0.0244,-0.03416
-0.03904,0.04392,-0.0488,-0.02928,-0.00976,-0.01464,-0.0732,-0.24888,-0.0488,-0.04392,-0.02928,-0.03416
-0.03904,0.04392,-0.0488,-0.02928,-0.00976,-0.01464,-0.0732,-0.24888,-0.0488,-0.04392,-0.02928,-0.03416
-0.04392,0.04636,-0.0488,-0.02684,-0.00488,-0.01952,-0.07808,-0.24888,-0.0488,-0.04392,-0.02928,-0.03904
-0.03904,0.04392,-0.0488,-0.02928,-0.00976,-0.01464,-0.07808,-0.24888,-0.0488,-0.04392,-0.02928,-0.03904
-0.03904,0.04392,-0.0488,-0.02928,-0.00976,-0.01464,-0.07808,-0.244,-0.0488,-0.04392,-0.0244,-0.03904
-0.03904,0.04392,-0.0488,-0.02928,-0.00976,-0.01464,-0.07808,-0.244,-0.0488,-0.04392,-0.0244,-0.03904
-0.03904,0.04392,-0.0488,-0.02928,-0.00976,-0.01464,-0.07808,-0.23912,-0.0488,-0.04392,-0.0244,-0.03904
-0.0488,0.05124,-0.05368,-0.02928,-0.00488,-0.02196,-0.07808,-0.23912,-0.0488,-0.0488,-0.02928,-0.03904
-0.05856,0.05856,-0.05856,-0.02928,0,-0.02928,-0.0732,-0.23424,-0.04392,-0.0488,-0.02928,-0.03904
-0.05368,0.05368,-0.05368,-0.02684,0,-0.02684,-0.0732,-0.22936,-0.03904,-0.04392,-0.0244,-0.03416
-0.05368,0.05124,-0.0488,-0.02196,0.00488,-0.02928,-0.0732,-0.22448,-0.03416,-0.04392,-0.0244,-0.02928
-0.0488,0.04636,-0.04392,-0.01952,0.00488,-0.02684,-0.06344,-0.22448,-0.02928,-0.04392,-0.01952,-0.02928
-0.0488,0.04392,-0.03904,-0.01464,0.00976,-0.02928,-0.05856,-0.22448,-0.02928,-0.0488,-0.01952,-0.02928
-0.04392,0.04148,-0.03904,-0.01708,0.00488,-0.0244,-0.05856,-0.22448,-0.02928,-0.0488,-0.01952,-0.02928
-0.03904,0.03904,-0.03904,-0.01952,0,-0.01952,-0.05856,-0.22448,-0.02928,-0.0488,-0.01952,-0.02928
-0.03904,0.0366,-0.03416,-0.01464,0.00488,-0.02196,-0.05856,-0.21472,-0.0244,-0.03904,-0.01952,-0.0244
-0.03416,0.02928,-0.0244,-0.00732,0.00976,-0.02196,-0.0488,-0.20496,-0.01464,-0.02928,-0.00976,-0.01464
-0.02928,0.0244,-0.01952,-0.00488,0.00976,-0.01952,-0.03904,-0.20008,-0.00488,-0.0244,-0.00488,-0.00976
-0.0244,0.0122,0,0.0122,0.0244,-0.0244,-0.02928,-0.19032,0.00976,-0.00976,0.00488,-0.00976
-0.01952,0,0.01952,0.02928,0.03904,-0.02928,-0.0244,-0.18056,0.0244,0,0.01464,0
-0.01464,-0.00732,0.02928,0.0366,0.04392,-0.02928,-0.01952,-0.1708,0.03416,0.00976,0.01952,0.00488
-0.00976,-0.01464,0.03904,0.04392,0.0488,-0.02928,-0.01952,-0.1708,0.03904,0.01952,0.0244,0.00488
-0.00976,-0.01952,0.0488,0.05368,0.05856,-0.03416,-0.02928,-0.1708,0.04392,0.01952,0.02928,0.00488
-0.00488,-0.01952,0.04392,0.04636,0.0488,-0.02684,-0.02928,-0.18544,0.0488,0.0244,0.02928,0.00488
0,-0.0244,0.0488,0.0488,0.0488,-0.0244,-0.0488,-0.19032,0.0488,0.0244,0.02928,0.01464
0.00976,-0.03172,0.05368,0.0488,0.04392,-0.01708,-0.06832,-0.20496,0.04392,0.0244,0.03416,0.01464
0.01464,-0.03904,0.06344,0.05612,0.0488,-0.01708,-0.09272,-0.22448,0.03904,0.0244,0.03416,0.01952
0.01464,-0.04148,0.06832,0.061,0.05368,-0.01952,-0.11712,-0.23912,0.03904,0.0244,0.03904,0.0244
0.01464,-0.04148,0.06832,0.061,0.05368,-0.01952,-0.14152,-0.26352,0.0244,0.0244,0.03904,0.0244
0.00976,-0.03416,0.05856,0.05368,0.0488,-0.01952,-0.16104,-0.28304,0.00976,0.01464,0.03904,0.0244
0.00976,-0.02928,0.0488,0.04392,0.03904,-0.01464,-0.16592,-0.28304,0.00488,0.00488,0.03416,0.0244
0.00976,-0.0244,0.03904,0.03416,0.02928,-0.00976,-0.16104,-0.28792,0,0,0.03416,0.0244
0.01464,-0.0244,0.03416,0.02684,0.01952,-0.00244,-0.15616,-0.28304,-0.00488,-0.00488,0.03416,0.0244
0.0244,-0.02928,0.03416,0.02196,0.00976,0.00732,-0.14152,-0.27328,-0.00976,0,0.02928,0.01952
0.0244,-0.0244,0.0244,0.0122,0,0.0122,-0.13664,-0.25864,-0.01464,0,0.02928,0.01464
0.01952,-0.01464,0.00976,0,-0.00976,0.01464,-0.12688,-0.25864,-0.0244,0,0.0244,0.00976
0.00488,-0.00488,0.00488,0.00244,0,0.00244,-0.11712,-0.25376,-0.02928,-0.00976,0.01952,0.00976
-0.01464,0.0122,-0.00976,-0.00244,0.00488,-0.00976,-0.10248,-0.25376,-0.02928,-0.01464,0.00488,0
-0.02928,0.02928,-0.02928,-0.01464,0,-0.01464,-0.0976,-0.25376,-0.04392,-0.0244,-0.00488,-0.00976
-0.03904,0.04148,-0.04392,-0.0244,-0.00488,-0.01708,-0.0976,-0.25376,-0.0488,-0.03416,-0.00976,-0.01952
-0.04392,0.0488,-0.05368,-0.03172,-0.00976,-0.01708,-0.08784,-0.25376,-0.05368,-0.04392,-0.01952,-0.0244
-0.04392,0.05612,-0.06832,-0.04636,-0.0244,-0.00976,-0.08784,-0.25376,-0.06344,-0.0488,-0.0244,-0.02928
-0.04392,0.05856,-0.0732,-0.05124,-0.02928,-0.00732,-0.08784,-0.24888,-0.06344,-0.0488,-0.03416,-0.03416
-0.03904,0.05612,-0.0732,-0.05368,-0.03416,-0.00244,-0.07808,-0.23912,-0.06832,-0.05368,-0.03904,-0.03416
-0.03904,0.05612,-0.0732,-0.05368,-0.03416,-0.00244,-0.0732,-0.23424,-0.06832,-0.05856,-0.04392,-0.03416
-0.03904,0.05612,-0.0732,-0.05368,-0.03416,-0.00244,-0.0732,-0.23424,-0.06832,-0.05856,-0.04392,-0.03904
-0.04392,0.05856,-0.0732,-0.05124,-0.02928,-0.00732,-0.07808,-0.23424,-0.0732,-0.05856,-0.04392,-0.03904
-0.04392,0.061,-0.07808,-0.05612,-0.03416,-0.00488,-0.07808,-0.23912,-0.06832,-0.05856,-0.03904,-0.03416
-0.04392,0.061,-0.07808,-0.05612,-0.03416,-0.00488,-0.0732,-0.23912,-0.06832,-0.05856,-0.03904,-0.03416
-0.04392,0.061,-0.07808,-0.05612,-0.03416,-0.00488,-0.06344,-0.244,-0.06832,-0.06344,-0.03904,-0.03416
-0.0488,0.06344,-0.07808,-0.05368,-0.02928,-0.00976,-0.06344,-0.244,-0.06832,-0.06344,-0.03904,-0.03416
-0.0488,0.06832,-0.08784,-0.06344,-0.03904,-0.00488,-0.0488,-0.25376,-0.06832,-0.06344,-0.04392,-0.04392
-0.0488,0.07076,-0.09272,-0.06832,-0.04392,-0.00244,-0.03904,-0.26352,-0.06832,-0.06344,-0.0488,-0.05368
-0.0488,0.07076,-0.09272,-0.06832,-0.04392,-0.00244,-0.03904,-0.25864,-0.06832,-0.06344,-0.0488,-0.05368
-0.0488,0.07076,-0.09272,-0.06832,-0.04392,-0.00244,-0.03904,-0.25864,-0.06344,-0.06344,-0.0488,-0.05368
-0.0488,0.06832,-0.08784,-0.06344,-0.03904,-0.00488,-0.04392,-0.25376,-0.06344,-0.06344,-0.04392,-0.0488
-0.04392,0.0732,-0.10248,-0.08052,-0.05856,0.00732,-0.0488,-0.244,-0.07808,-0.0732,-0.0488,-0.05368
-0.03416,0.09028,-0.1464,-0.12932,-0.11224,0.03904,-0.0244,-0.22448,-0.11224,-0.10736,-0.08296,-0.06832
-0.01952,0.10248,-0.18544,-0.17568,-0.16592,0.0732,-0.00488,-0.1952,-0.14152,-0.14152,-0.10736,-0.08784
-0.01952,0.122,-0.22448,-0.21472,-0.20496,0.09272,0.03416,-0.13664,-0.17568,-0.20496,-0.1464,-0.12688
-0.01952,0.122,-0.22448,-0.21472,-0.20496,0.09272,0.05368,-0.12688,-0.15128,-0.19032,-0.14152,-0.122
0.0244,0.02684,-0.07808,-0.09028,-0.10248,0.06344,0.01952,-0.14152,0,-0.00488,-0.01952,-0.02928
0.10248,-0.14396,0.18544,0.1342,0.08296,0.00976,-0.08784,-0.1952,0.23912,0.28792,0.20984,0.12688
0.23912,-0.39284,0.54656,0.427,0.30744,-0.03416,-0.23424,-0.28304,0.54656,0.66368,0.53192,0.38064
0.36112,-0.67832,0.99552,0.81496,0.6344,-0.13664,-0.4392,-0.47824,0.91256,1.11264,0.9028,0.6588
0.45872,-0.92964,1.40056,1.1712,0.94184,-0.24156,-0.72712,-0.71736,1.23952,1.54696,1.25416,0.9028
0.45384,-1.05896,1.66408,1.43716,1.21024,-0.3782,-1.01504,-0.97112,1.3908,1.75192,1.44936,1.06872
0.366,-1.00772,1.64944,1.46644,1.28344,-0.45872,-1.1712,-1.12728,1.38592,1.66408,1.44936,1.10288
0.23912,-0.81008,1.38104,1.26148,1.14192,-0.4514,-1.16632,-1.16144,1.1712,1.36152,1.20536,0.93696
0.05368,-0.49288,0.93208,0.90524,0.8784,-0.41236,-1.01016,-1.05408,0.81008,0.8784,0.79056,0.6344
-0.0732,-0.22692,0.52704,0.56364,0.60024,-0.33672,-0.72224,-0.8784,0.36112,0.3904,0.38552,0.33672
-0.07808,-0.05124,0.18056,0.2196,0.25864,-0.16836,-0.42456,-0.60512,-0.0732,0.00976,0.08784,0.11224
-0.08296,0.061,-0.03904,0.00244,0.04392,-0.06344,-0.1708,-0.37576,-0.1952,-0.13176,-0.05368,-0.00976
-0.08296,0.0976,-0.11224,-0.07076,-0.02928,-0.02684,-0.02928,-0.25376,-0.17568,-0.13176,-0.06832,-0.0488
-0.05368,0.08784,-0.122,-0.09516,-0.06832,0.00732,0.03904,-0.16592,-0.12688,-0.10736,-0.0732,-0.06344
-0.03904,0.0732,-0.10736,-0.08784,-0.06832,0.01464,0.08296,-0.12688,-0.04392,-0.05856,-0.05368,-0.05856
-0.03904,0.06344,-0.08784,-0.06832,-0.0488,0.00488,0.06832,-0.11712,-0.01464,-0.03904,-0.03904,-0.04392
-0.04392,0.06344,-0.08296,-0.061,-0.03904,-0.00244,0.06832,-0.11712,-0.03416,-0.03904,-0.03904,-0.03904
-0.04392,0.06344,-0.08296,-0.061,-0.03904,-0.00244,0.05856,-0.12688,-0.03416,-0.04392,-0.03904,-0.03904
-0.03904,0.061,-0.08296,-0.06344,-0.04392,0.00244,0.05856,-0.13176,-0.03416,-0.04392,-0.03904,-0.04392
-0.03416,0.05856,-0.08296,-0.06588,-0.0488,0.00732,0.05856,-0.12688,-0.03416,-0.04392,-0.03904,-0.04392
-0.03416,0.05856,-0.08296,-0.06588,-0.0488,0.00732,0.05856,-0.12688,-0.02928,-0.04392,-0.03904,-0.04392
-0.03416,0.05856,-0.08296,-0.06588,-0.0488,0.00732,0.05856,-0.122,-0.02928,-0.04392,-0.03904,-0.04392
-0.03416,0.061,-0.08784,-0.07076,-0.05368,0.00976,0.05856,-0.122,-0.02928,-0.04392,-0.03904,-0.04392
-0.03904,0.06344,-0.08784,-0.06832,-0.0488,0.00488,0.05368,-0.122,-0.0244,-0.03904,-0.03416,-0.03904
-0.03904,0.05856,-0.07808,-0.05856,-0.03904,0,0.05368,-0.11224,-0.0244,-0.03416,-0.02928,-0.03904
-0.03904,0.05856,-0.07808,-0.05856,-0.03904,0,0.05856,-0.11224,-0.01952,-0.02928,-0.0244,-0.03904
-0.03904,0.05856,-0.07808,-0.05856,-0.03904,0,0.06344,-0.09272,-0.01952,-0.02928,-0.0244,-0.03904
-0.03416,0.05612,-0.07808,-0.061,-0.04392,0.00488,0.05368,-0.08296,-0.00976,-0.02928,-0.0244,-0.03416
-0.02928,0.0488,-0.06832,-0.05368,-0.03904,0.00488,0.0488,-0.0732,-0.00976,-0.0244,-0.01952,-0.03416
-0.02928,0.04636,-0.06344,-0.0488,-0.03416,0.00244,0.04392,-0.06832,-0.00976,-0.0244,-0.00976,-0.03416
-0.0244,0.03904,-0.05368,-0.04148,-0.02928,0.00244,0.04392,-0.06344,-0.00976,-0.01952,-0.00488,-0.02928
-0.0244,0.03416,-0.04392,-0.03172,-0.01952,-0.00244,0.04392,-0.05856,0,-0.01952,-0.00488,-0.02928
-0.01952,0.0366,-0.05368,-0.04392,-0.03416,0.00732,0.03904,-0.05856,0.00488,-0.00976,-0.00976,-0.02928
-0.01952,0.0366,-0.05368,-0.04392,-0.03416,0.00732,0.03416,-0.05856,0.00976,-0.00976,-0.00976,-0.02928
-0.01952,0.03416,-0.0488,-0.03904,-0.02928,0.00488,0.03416,-0.06832,0.00976,-0.00488,-0.00488,-0.02928
-0.01464,0.02928,-0.04392,-0.0366,-0.02928,0.00732,0.04392,-0.06832,0.01952,0,-0.00488,-0.0244
-0.01464,0.02684,-0.03904,-0.03172,-0.0244,0.00488,0.04392,-0.06344,0.0244,0.00488,0,-0.01952
-0.01464,0.02684,-0.03904,-0.03172,-0.0244,0.00488,0.02928,-0.05856,0.02928,0.00488,0.00488,-0.01952
-0.00976,0.02196,-0.03416,-0.02928,-0.0244,0.00732,0.02928,-0.05856,0.03416,0.00976,0.00976,-0.00976
-0.00488,0.01708,-0.02928,-0.02684,-0.0244,0.00976,0.0244,-0.06344,0.03904,0.01464,0.00976,-0.00976
-0.00488,0.0122,-0.01952,-0.01708,-0.01464,0.00488,0.01464,-0.06344,0.0488,0.01952,0.01464,-0.00976
0.00488,0.00244,-0.00976,-0.0122,-0.01464,0.00976,0.00976,-0.0732,0.05368,0.0244,0.01952,0
0.00488,-0.00244,0,-0.00244,-0.00488,0.00488,0.00976,-0.06832,0.05856,0.02928,0.0244,0.00488
0.00976,-0.00732,0.00488,0,-0.00488,0.00732,0.00488,-0.06344,0.06344,0.03904,0.02928,0.00976
0.01464,-0.01464,0.01464,0.00732,0,0.00732,0,-0.06344,0.07808,0.04392,0.03904,0.01464
0.01464,-0.01708,0.01952,0.0122,0.00488,0.00488,-0.00976,-0.06344,0.08784,0.0488,0.0488,0.01952
0.01952,-0.02928,0.03904,0.02928,0.01952,0,0,-0.06344,0.09272,0.05368,0.05856,0.0244
0.0244,-0.0366,0.0488,0.0366,0.0244,0,0,-0.05368,0.10248,0.05856,0.06344,0.0244
0.03416,-0.04636,0.05856,0.04148,0.0244,0.00488,0.00488,-0.03904,0.10248,0.06344,0.06832,0.02928
0.03904,-0.05368,0.06832,0.0488,0.02928,0.00488,0.00488,-0.03416,0.0976,0.06832,0.0732,0.03416
0.0488,-0.05856,0.06832,0.04392,0.01952,0.01464,0.00976,-0.01952,0.10248,0.0732,0.0732,0.03904
0.05856,-0.06588,0.0732,0.04392,0.01464,0.02196,0.01464,-0.00976,0.10248,0.07808,0.0732,0.03904
0.06344,-0.07076,0.07808,0.04636,0.01464,0.0244,0.0244,0,0.10736,0.07808,0.0732,0.03904
0.06344,-0.07076,0.07808,0.04636,0.01464,0.0244,0.0244,0.00488,0.10736,0.07808,0.0732,0.03904
0.06344,-0.0732,0.08296,0.05124,0.01952,0.02196,0.03904,0.00488,0.10736,0.08296,0.0732,0.0488
0.06344,-0.0732,0.08296,0.05124,0.01952,0.02196,0.0244,0.00976,0.10736,0.08296,0.0732,0.0488
0.06344,-0.07564,0.08784,0.05612,0.0244,0.01952,0.0244,0.00488,0.10736,0.08784,0.07808,0.0488
0.06344,-0.07564,0.08784,0.05612,0.0244,0.01952,0.0244,0,0.10736,0.08784,0.07808,0.05368
0.06344,-0.07564,0.08784,0.05612,0.0244,0.01952,0.02928,-0.00488,0.10736,0.08784,0.08296,0.05368
0.06344,-0.07564,0.08784,0.05612,0.0244,0.01952,0.02928,-0.01464,0.10736,0.08784,0.08296,0.05368
0.05368,-0.07076,0.08784,0.061,0.03416,0.00976,0.02928,-0.01464,0.10736,0.08784,0.08296,0.05368
0.05368,-0.07076,0.08784,0.061,0.03416,0.00976,0.01952,-0.02928,0.10248,0.08784,0.07808,0.0488
0.04392,-0.061,0.07808,0.05612,0.03416,0.00488,0.01464,-0.03904,0.09272,0.08784,0.07808,0.0488
0.03416,-0.05368,0.0732,0.05612,0.03904,-0.00244,0.01464,-0.0488,0.08784,0.07808,0.06832,0.03904
0.0244,-0.04148,0.05856,0.04636,0.03416,-0.00488,0.01952,-0.0488,0.08296,0.0732,0.06344,0.03416
0.0244,-0.0366,0.0488,0.0366,0.0244,0,0.01952,-0.06344,0.07808,0.06832,0.05856,0.02928
0.00976,-0.02684,0.04392,0.03904,0.03416,-0.0122,0.01464,-0.0732,0.05856,0.0488,0.0488,0.01952
0.00488,-0.01952,0.03416,0.03172,0.02928,-0.0122,0.00488,-0.0976,0.04392,0.04392,0.04392,0.0244
0,-0.0122,0.0244,0.0244,0.0244,-0.0122,0,-0.0976,0.03416,0.03416,0.03416,0.01952
-0.01464,0,0.01464,0.02196,0.02928,-0.02196,0,-0.11224,0.01952,0.0244,0.02928,0.00976
-0.0244,0.0122,0,0.0122,0.0244,-0.0244,-0.00488,-0.122,0.00976,0.00976,0.01464,0
-0.02928,0.02196,-0.01464,0,0.01464,-0.02196,-0.00976,-0.12688,-0.00488,-0.00488,0.00488,-0.00976
-0.02928,0.02684,-0.0244,-0.00976,0.00488,-0.01708,-0.01952,-0.13176,-0.01464,-0.01464,0,-0.01464
-0.03416,0.03416,-0.03416,-0.01708,0,-0.01708,-0.01952,-0.13664,-0.0244,-0.0244,-0.00488,-0.01464
-0.03416,0.0366,-0.03904,-0.02196,-0.00488,-0.01464,-0.02928,-0.15128,-0.02928,-0.0244,-0.00976,-0.0244
-0.03416,0.03904,-0.04392,-0.02684,-0.00976,-0.0122,-0.0244,-0.16592,-0.03416,-0.02928,-0.01464,-0.0244
-0.04392,0.04636,-0.0488,-0.02684,-0.00488,-0.01952,-0.0244,-0.16592,-0.03904,-0.03416,-0.01952,-0.02928
-0.0488,0.05124,-0.05368,-0.02928,-0.00488,-0.02196,-0.0244,-0.16592,-0.03904,-0.03904,-0.0244,-0.03416
-0.0488,0.05612,-0.06344,-0.03904,-0.01464,-0.01708,-0.0244,-0.17568,-0.0488,-0.0488,-0.03904,-0.03904
-0.0488,0.05856,-0.06832,-0.04392,-0.01952,-0.01464,-0.0244,-0.18056,-0.0488,-0.05368,-0.0488,-0.03904
-0.0488,0.05856,-0.06832,-0.04392,-0.01952,-0.01464,-0.02928,-0.18544,-0.0488,-0.05368,-0.0488,-0.03904
-0.04392,0.05612,-0.06832,-0.04636,-0.0244,-0.00976,-0.02928,-0.19032,-0.0488,-0.05368,-0.0488,-0.03904
-0.0488,0.05368,-0.05856,-0.03416,-0.00976,-0.01952,-0.02928,-0.18544,-0.0488,-0.0488,-0.03416,-0.03416
-0.0488,0.0488,-0.0488,-0.0244,0,-0.0244,-0.02928,-0.18544,-0.0488,-0.04392,-0.0244,-0.02928
-0.0488,0.0488,-0.0488,-0.0244,0,-0.0244,-0.02928,-0.18544,-0.0488,-0.04392,-0.0244,-0.02928
-0.0488,0.0488,-0.0488,-0.0244,0,-0.0244,-0.02928,-0.19032,-0.0488,-0.0488,-0.02928,-0.02928
-0.0488,0.0488,-0.0488,-0.0244,0,-0.0244,-0.02928,-0.18544,-0.05368,-0.0488,-0.02928,-0.03416
-0.0488,0.0488,-0.0488,-0.0244,0,-0.0244,-0.01952,-0.18056,-0.05368,-0.0488,-0.02928,-0.03904
-0.04392,0.04636,-0.0488,-0.02684,-0.00488,-0.01952,-0.01464,-0.17568,-0.0488,-0.04392,-0.02928,-0.03904
-0.04392,0.04636,-0.0488,-0.02684,-0.00488,-0.01952,-0.01464,-0.17568,-0.04392,-0.04392,-0.03416,-0.03904
-0.03416,0.03904,-0.04392,-0.02684,-0.00976,-0.0122,-0.01464,-0.17568,-0.03904,-0.03904,-0.02928,-0.03416
-0.02928,0.03416,-0.03904,-0.0244,-0.00976,-0.00976,-0.01952,-0.17568,-0.03904,-0.03904,-0.02928,-0.02928
-0.02928,0.03416,-0.03904,-0.0244,-0.00976,-0.00976,-0.00976,-0.17568,-0.03904,-0.03904,-0.02928,-0.02928
-0.02928,0.03416,-0.03904,-0.0244,-0.00976,-0.00976,0,-0.17568,-0.03904,-0.03904,-0.02928,-0.02928
-0.03416,0.03416,-0.03416,-0.01708,0,-0.01708,0.00488,-0.1708,-0.03416,-0.03416,-0.02928,-0.0244
-0.02928,0.02684,-0.0244,-0.00976,0.00488,-0.01708,0.01464,-0.16592,-0.0244,-0.02928,-0.01952,-0.01464
-0.02928,0.0244,-0.01952,-0.00488,0.00976,-0.01952,0.02928,-0.16104,-0.01952,-0.0244,-0.01464,-0.00976
-0.0244,0.0122,0,0.0122,0.0244,-0.0244,0.03904,-0.15128,-0.00976,-0.00976,-0.00488,-0.00976
-0.01464,-0.00488,0.0244,0.03172,0.03904,-0.02684,0.03416,-0.1464,0.00488,0,0.00488,0
-0.00488,-0.01708,0.03904,0.04148,0.04392,-0.0244,0.02928,-0.14152,0.01464,0.00976,0.00976,0.00488
0,-0.0244,0.0488,0.0488,0.0488,-0.0244,0.02928,-0.15128,0.01952,0.01952,0.01464,0.00976
0,-0.02928,0.05856,0.05856,0.05856,-0.02928,0.01952,-0.16104,0.0244,0.01952,0.01952,0.01464
0.00488,-0.02928,0.05368,0.05124,0.0488,-0.02196,0.01952,-0.18056,0.02928,0.02928,0.0244,0.01464
0.00976,-0.03416,0.05856,0.05368,0.0488,-0.01952,0,-0.19032,0.02928,0.03416,0.02928,0.0244
0.01464,-0.03904,0.06344,0.05612,0.0488,-0.01708,-0.01952,-0.2196,0.02928,0.03416,0.03416,0.0244
0.01464,-0.04392,0.0732,0.06588,0.05856,-0.02196,-0.04392,-0.25376,0.02928,0.03416,0.03416,0.02928
0.01464,-0.04636,0.07808,0.07076,0.06344,-0.0244,-0.06832,-0.2684,0.02928,0.02928,0.03904,0.03416
0.01464,-0.04636,0.07808,0.07076,0.06344,-0.0244,-0.09272,-0.2928,0.01464,0.0244,0.03904,0.03416
0.01464,-0.04392,0.0732,0.06588,0.05856,-0.02196,-0.10736,-0.31232,0.00488,0.01952,0.03904,0.03416
0.01952,-0.04392,0.06832,0.05856,0.0488,-0.01464,-0.10736,-0.31232,0.00488,0.01464,0.03416,0.03416
0.01952,-0.03904,0.05856,0.0488,0.03904,-0.00976,-0.10248,-0.31232,0,0.00976,0.03416,0.02928
0.0244,-0.03904,0.05368,0.04148,0.02928,-0.00244,-0.0976,-0.30256,-0.00488,0.00488,0.03416,0.0244
0.03416,-0.04148,0.0488,0.03172,0.01464,0.00976,-0.08296,-0.30256,-0.01464,0,0.01952,0.01952
0.03416,-0.03416,0.03416,0.01708,0,0.01708,-0.07808,-0.29768,-0.0244,-0.00976,0.00976,0.01464
0.03416,-0.0244,0.01464,-0.00244,-0.01952,0.02684,-0.06832,-0.30256,-0.03904,-0.01464,0.00488,0.00488
0.0244,-0.01464,0.00488,-0.00732,-0.01952,0.02196,-0.05856,-0.30256,-0.0488,-0.02928,0,0
0.00488,0.00244,-0.00976,-0.0122,-0.01464,0.00976,-0.04392,-0.30256,-0.0488,-0.03416,-0.01464,-0.00976
-0.00976,0.01952,-0.02928,-0.0244,-0.01952,0.00488,-0.03904,-0.30256,-0.06344,-0.04392,-0.0244,-0.01952
-0.01952,0.03172,-0.04392,-0.03416,-0.0244,0.00244,-0.03904,-0.30256,-0.06832,-0.05368,-0.02928,-0.02928
-0.0244,0.03904,-0.05368,-0.04148,-0.02928,0.00244,-0.02928,-0.30256,-0.0732,-0.06344,-0.03904,-0.03416
-0.0244,0.04392,-0.06344,-0.05124,-0.03904,0.00732,-0.02928,-0.31232,-0.08296,-0.06832,-0.03416,-0.03904
-0.0244,0.04392,-0.06344,-0.05124,-0.03904,0.00732,-0.02928,-0.3172,-0.08296,-0.06832,-0.03416,-0.04392
-0.0244,0.04392,-0.06344,-0.05124,-0.03904,0.00732,-0.01952,-0.3172,-0.08784,-0.0732,-0.03904,-0.04392
-0.02928,0.04636,-0.06344,-0.0488,-0.03416,0.00244,-0.01464,-0.32208,-0.08784,-0.07808,-0.04392,-0.04392
-0.02928,0.05124,-0.0732,-0.05856,-0.04392,0.00732,-0.00976,-0.32208,-0.08784,-0.07808,-0.04392,-0.0488
-0.03416,0.05856,-0.08296,-0.06588,-0.0488,0.00732,-0.00976,-0.32208,-0.09272,-0.07808,-0.04392,-0.0488
-0.03416,0.061,-0.08784,-0.07076,-0.05368,0.00976,-0.01464,-0.32696,-0.08784,-0.07808,-0.04392,-0.0488
-0.03416,0.061,-0.08784,-0.07076,-0.05368,0.00976,-0.01464,-0.32696,-0.08784,-0.07808,-0.0488,-0.05368
-0.03416,0.061,-0.08784,-0.07076,-0.05368,0.00976,-0.00488,-0.33184,-0.08784,-0.07808,-0.05368,-0.05368
-0.03904,0.06344,-0.08784,-0.06832,-0.0488,0.00488,-0.00488,-0.33184,-0.08784,-0.0732,-0.05856,-0.05368
-0.03904,0.06344,-0.08784,-0.06832,-0.0488,0.00488,0,-0.33184,-0.08784,-0.0732,-0.05856,-0.05368
-0.03904,0.061,-0.08296,-0.06344,-0.04392,0.00244,0,-0.33184,-0.08784,-0.0732,-0.05856,-0.05368
-0.03904,0.061,-0.08296,-0.06344,-0.04392,0.00244,0,-0.32208,-0.08784,-0.0732,-0.05856,-0.05368
-0.03904,0.061,-0.08296,-0.06344,-0.04392,0.00244,0,-0.3172,-0.08296,-0.0732,-0.05856,-0.05368
-0.03904,0.061,-0.08296,-0.06344,-0.04392,0.00244,0.00488,-0.31232,-0.08784,-0.07808,-0.05856,-0.05368
-0.03416,0.06832,-0.10248,-0.0854,-0.06832,0.01708,0.00976,-0.30256,-0.10736,-0.09272,-0.06832,-0.06344
-0.0244,0.0854,-0.1464,-0.1342,-0.122,0.0488,0.0244,-0.2928,-0.14152,-0.12688,-0.10248,-0.07808
-0.00976,0.0976,-0.18544,-0.18056,-0.17568,0.08296,0.03416,-0.27328,-0.1708,-0.16104,-0.12688,-0.0976
-0.00976,0.10248,-0.1952,-0.19032,-0.18544,0.08784,0.06344,-0.23424,-0.17568,-0.18544,-0.14152,-0.12688
-0.00976,0.08784,-0.16592,-0.16104,-0.15616,0.0732,0.0732,-0.244,-0.122,-0.13176,-0.11224,-0.11224
0.04392,-0.02928,0.01464,-0.00732,-0.02928,0.0366,0.01464,-0.27816,0.06344,0.08784,0.04392,0.01952
0.13176,-0.22204,0.31232,0.24644,0.18056,-0.0244,-0.11712,-0.35136,0.33672,0.4148,0.30744,0.21472
0.2684,-0.47824,0.68808,0.55388,0.41968,-0.07564,-0.26352,-0.4392,0.65392,0.8052,0.63928,0.45872
0.3904,-0.77104,1.15168,0.95648,0.76128,-0.18544,-0.46848,-0.6344,1.02968,1.2688,1.01992,0.72712
0.44896,-0.95404,1.45912,1.23464,1.01016,-0.2806,-0.72224,-0.84912,1.30296,1.6104,1.2932,0.91744
0.40504,-1.01504,1.62504,1.42252,1.22,-0.40748,-0.976,-1.07848,1.40056,1.72264,1.41032,1.02968
0.28792,-0.90524,1.52256,1.3786,1.23464,-0.47336,-1.05896,-1.19072,1.33224,1.54696,1.3176,0.98576
0.13176,-0.64904,1.16632,1.10044,1.03456,-0.4514,-0.98088,-1.18096,1.05408,1.15656,0.98088,0.74176
-0.00976,-0.366,0.74176,0.74664,0.75152,-0.38064,-0.83936,-1.05408,0.66856,0.68808,0.60024,0.47336
-0.09272,-0.1342,0.36112,0.40748,0.45384,-0.27328,-0.56608,-0.85888,0.1952,0.21472,0.22936,0.20984
-0.08784,0.00244,0.08296,0.12688,0.1708,-0.12932,-0.32696,-0.6344,-0.17568,-0.09272,-0.01464,0.02928
-0.08296,0.07564,-0.06832,-0.02684,0.01464,-0.0488,-0.13176,-0.45384,-0.23424,-0.16104,-0.10248,-0.0488
-0.08296,0.10736,-0.13176,-0.09028,-0.0488,-0.01708,-0.00488,-0.34648,-0.20496,-0.16104,-0.10736,-0.08296
-0.05368,0.09272,-0.13176,-0.10492,-0.07808,0.0122,0.0488,-0.27328,-0.1464,-0.13664,-0.10248,-0.09272
-0.03416,0.0732,-0.11224,-0.09516,-0.07808,0.02196,0.08784,-0.23912,-0.06344,-0.08296,-0.07808,-0.07808
-0.02928,0.05856,-0.08784,-0.0732,-0.05856,0.01464,0.06832,-0.23424,-0.03416,-0.05856,-0.05856,-0.05368
-0.03416,0.05856,-0.08296,-0.06588,-0.0488,0.00732,0.06832,-0.22936,-0.06344,-0.06344,-0.05856,-0.0488
-0.03416,0.05856,-0.08296,-0.06588,-0.0488,0.00732,0.05856,-0.23424,-0.0732,-0.0732,-0.05856,-0.0488
-0.02928,0.05368,-0.07808,-0.06344,-0.0488,0.00976,0.05856,-0.244,-0.06344,-0.0732,-0.05856,-0.05368
-0.0244,0.0488,-0.0732,-0.061,-0.0488,0.0122,0.05856,-0.244,-0.05368,-0.0732,-0.05856,-0.05368
-0.0244,0.0488,-0.0732,-0.061,-0.0488,0.0122,0.05856,-0.24888,-0.0488,-0.0732,-0.05856,-0.05368
-0.0244,0.0488,-0.0732,-0.061,-0.0488,0.0122,0.05856,-0.24888,-0.0488,-0.0732,-0.05856,-0.05368
-0.01952,0.0488,-0.07808,-0.06832,-0.05856,0.01952,0.05856,-0.24888,-0.0488,-0.0732,-0.05856,-0.05368
-0.01952,0.0488,-0.07808,-0.06832,-0.05856,0.01952,0.05368,-0.24888,-0.04392,-0.06832,-0.05368,-0.0488
-0.01952,0.04392,-0.06832,-0.05856,-0.0488,0.01464,0.05368,-0.244,-0.04392,-0.06344,-0.0488,-0.05368
-0.01952,0.04392,-0.06832,-0.05856,-0.0488,0.01464,0.05856,-0.24888,-0.03904,-0.05856,-0.04392,-0.05856
-0.01952,0.04148,-0.06344,-0.05368,-0.04392,0.0122,0.05856,-0.23912,-0.03904,-0.05856,-0.04392,-0.05856
-0.01464,0.0366,-0.05856,-0.05124,-0.04392,0.01464,0.04392,-0.23912,-0.02928,-0.05856,-0.04392,-0.05368
-0.00976,0.02928,-0.0488,-0.04392,-0.03904,0.01464,0.03904,-0.23424,-0.02928,-0.05368,-0.04392,-0.0488
-0.00976,0.02684,-0.04392,-0.03904,-0.03416,0.0122,0.03416,-0.23424,-0.02928,-0.05368,-0.03904,-0.04392
-0.00488,0.0244,-0.04392,-0.04148,-0.03904,0.01708,0.03904,-0.22936,-0.03416,-0.0488,-0.03416,-0.03904
-0.00488,0.0244,-0.04392,-0.04148,-0.03904,0.01708,0.04392,-0.22448,-0.02928,-0.0488,-0.03416,-0.03904
0,0.02196,-0.04392,-0.04392,-0.04392,0.02196,0.04392,-0.2196,-0.0244,-0.03904,-0.03904,-0.04392
0,0.01708,-0.03416,-0.03416,-0.03416,0.01708,0.04392,-0.21472,-0.01952,-0.03904,-0.03904,-0.0488
0,0.01464,-0.02928,-0.02928,-0.02928,0.01464,0.03904,-0.22448,-0.01952,-0.03416,-0.03416,-0.0488
0.00488,0.00976,-0.0244,-0.02684,-0.02928,0.01708,0.04392,-0.22448,-0.00976,-0.02928,-0.03416,-0.04392
0.00488,0.00732,-0.01952,-0.02196,-0.0244,0.01464,0.04392,-0.2196,-0.00488,-0.0244,-0.02928,-0.03416
0.00488,0.00732,-0.01952,-0.02196,-0.0244,0.01464,0.02928,-0.21472,0,-0.0244,-0.0244,-0.02928
0.00976,0.00244,-0.01464,-0.01952,-0.0244,0.01708,0.02928,-0.21472,0.00488,-0.01952,-0.01952,-0.01952
0.01464,-0.00244,-0.00976,-0.01708,-0.0244,0.01952,0.0244,-0.2196,0.00976,-0.01464,-0.01952,-0.01952
0.00976,-0.00244,-0.00488,-0.00976,-0.01464,0.0122,0.01464,-0.2196,0.01952,-0.00976,-0.01464,-0.0244
0.01464,-0.00732,0,-0.00732,-0.01464,0.01464,0.00976,-0.22936,0.0244,-0.00488,-0.00976,-0.01952
0.01464,-0.0122,0.00976,0.00244,-0.00488,0.00976,0.01464,-0.22936,0.02928,0,-0.00488,-0.01464
0.01952,-0.01708,0.01464,0.00488,-0.00488,0.0122,0.01464,-0.22936,0.03416,0.00976,0,-0.00976
0.02928,-0.02684,0.0244,0.00976,-0.00488,0.01708,0.00976,-0.2196,0.04392,0.01464,0.00488,-0.00488
0.03416,-0.03172,0.02928,0.0122,-0.00488,0.01952,0,-0.20984,0.0488,0.01952,0.00976,0
0.03904,-0.03904,0.03904,0.01952,0,0.01952,0.00976,-0.20496,0.0488,0.0244,0.01952,0.00488
0.04392,-0.04148,0.03904,0.01708,-0.00488,0.0244,0.00976,-0.19032,0.05368,0.02928,0.0244,0.00488
0.0488,-0.0488,0.0488,0.0244,0,0.0244,0.00976,-0.17568,0.05856,0.03416,0.02928,0.00976
0.0488,-0.05368,0.05856,0.03416,0.00976,0.01952,0.00488,-0.1708,0.05856,0.03904,0.03416,0.01464
0.05368,-0.061,0.06832,0.04148,0.01464,0.01952,0.00488,-0.16104,0.06344,0.04392,0.03416,0.01952
0.05856,-0.07076,0.08296,0.05368,0.0244,0.01708,0.00488,-0.15616,0.06344,0.0488,0.03416,0.01952
0.06344,-0.0732,0.08296,0.05124,0.01952,0.02196,0.01464,-0.15128,0.06832,0.04392,0.03416,0.01952
0.06344,-0.07076,0.07808,0.04636,0.01464,0.0244,0.01464,-0.15128,0.06832,0.03904,0.03416,0.01952
0.06344,-0.0732,0.08296,0.05124,0.01952,0.02196,0.02928,-0.15128,0.06832,0.04392,0.03416,0.02928
0.06344,-0.0732,0.08296,0.05124,0.01952,0.02196,0.01464,-0.1464,0.06832,0.04392,0.03416,0.02928
0.05856,-0.0732,0.08784,0.05856,0.02928,0.01464,0.01952,-0.1464,0.06832,0.0488,0.03904,0.02928
0.05368,-0.07076,0.08784,0.061,0.03416,0.00976,0.0244,-0.1464,0.06832,0.0488,0.03904,0.03416
0.05368,-0.07076,0.08784,0.061,0.03416,0.00976,0.02928,-0.14152,0.06832,0.0488,0.04392,0.03416
0.05368,-0.07076,0.08784,0.061,0.03416,0.00976,0.02928,-0.14152,0.06832,0.0488,0.04392,0.03416
0.05368,-0.0732,0.09272,0.06588,0.03904,0.00732,0.02928,-0.1464,0.06832,0.0488,0.04392,0.03416
0.06344,-0.08052,0.0976,0.06588,0.03416,0.01464,0.01952,-0.16592,0.06344,0.0488,0.03904,0.02928
0.05368,-0.07076,0.08784,0.061,0.03416,0.00976,0.01464,-0.17568,0.05368,0.0488,0.03904,0.02928
0.04392,-0.06344,0.08296,0.061,0.03904,0.00244,0.01464,-0.18544,0.0488,0.03904,0.02928,0.01952
0.01464,-0.03904,0.06344,0.05612,0.0488,-0.01708,0.01464,-0.18544,0.04392,0.03416,0.0244,0.01464
-0.00488,-0.02196,0.0488,0.05124,0.05368,-0.02928,0.00976,-0.20008,0.03904,0.02928,0.01952,0.00976
-0.00488,-0.01708,0.03904,0.04148,0.04392,-0.0244,0.00976,-0.20984,0.0244,0.00976,0.00488,-0.00488
0.00488,-0.01464,0.0244,0.02196,0.01952,-0.00732,0.00488,-0.23424,0.01464,0.00488,-0.00488,-0.00488
0,-0.00976,0.01952,0.01952,0.01952,-0.00976,-0.00976,-0.23912,0.00488,-0.00488,-0.01464,-0.00976
-0.01464,0,0.01464,0.02196,0.02928,-0.02196,-0.01952,-0.25864,-0.00976,-0.01464,-0.01952,-0.01952
-0.0244,0.00732,0.00976,0.02196,0.03416,-0.02928,-0.01952,-0.26352,-0.01464,-0.01952,-0.0244,-0.0244
-0.02928,0.0122,0.00488,0.01952,0.03416,-0.03172,-0.01952,-0.26352,-0.0244,-0.0244,-0.0244,-0.02928
-0.02928,0.01708,-0.00488,0.00976,0.0244,-0.02684,-0.02928,-0.2684,-0.03416,-0.03416,-0.02928,-0.03416
-0.03416,0.0244,-0.01464,0.00244,0.01952,-0.02684,-0.02928,-0.27328,-0.04392,-0.04392,-0.03416,-0.03416
-0.03416,0.02928,-0.0244,-0.00732,0.00976,-0.02196,-0.04392,-0.28792,-0.0488,-0.04392,-0.03904,-0.04392
-0.03416,0.03416,-0.03416,-0.01708,0,-0.01708,-0.04392,-0.30256,-0.05368,-0.0488,-0.04392,-0.04392
-0.04392,0.04148,-0.03904,-0.01708,0.00488,-0.0244,-0.04392,-0.30256,-0.05856,-0.05368,-0.0488,-0.0488
-0.0488,0.04636,-0.04392,-0.01952,0.00488,-0.02684,-0.04392,-0.30256,-0.05856,-0.05856,-0.05368,-0.05368
-0.0488,0.0488,-0.0488,-0.0244,0,-0.0244,-0.03904,-0.30256,-0.06344,-0.06344,-0.05856,-0.0488
-0.0488,0.0488,-0.0488,-0.0244,0,-0.0244,-0.03416,-0.29768,-0.05856,-0.06344,-0.05856,-0.03904
-0.0488,0.04636,-0.04392,-0.01952,0.00488,-0.02684,-0.03904,-0.29768,-0.05856,-0.06344,-0.05856,-0.03904
-0.04392,0.04148,-0.03904,-0.01708,0.00488,-0.0244,-0.03904,-0.29768,-0.05856,-0.06344,-0.05856,-0.03904
-0.04392,0.04148,-0.03904,-0.01708,0.00488,-0.0244,-0.03904,-0.2928,-0.06344,-0.06832,-0.05368,-0.03904
-0.03904,0.03904,-0.03904,-0.01952,0,-0.01952,-0.03904,-0.2928,-0.06832,-0.0732,-0.05368,-0.03904
-0.03904,0.03904,-0.03904,-0.01952,0,-0.01952,-0.04392,-0.28792,-0.06832,-0.0732,-0.05856,-0.04392
-0.03904,0.03904,-0.03904,-0.01952,0,-0.01952,-0.0488,-0.28792,-0.06832,-0.07808,-0.06832,-0.0488
-0.03904,0.04148,-0.04392,-0.0244,-0.00488,-0.01708,-0.03904,-0.28304,-0.05856,-0.0732,-0.06344,-0.0488
-0.04392,0.04636,-0.0488,-0.02684,-0.00488,-0.01952,-0.03416,-0.27816,-0.05368,-0.0732,-0.06344,-0.0488
-0.03904,0.04148,-0.04392,-0.0244,-0.00488,-0.01708,-0.0244,-0.27328,-0.0488,-0.06832,-0.05856,-0.0488
-0.03904,0.03904,-0.03904,-0.01952,0,-0.01952,-0.01952,-0.27328,-0.0488,-0.06832,-0.05856,-0.0488
-0.03416,0.03416,-0.03416,-0.01708,0,-0.01708,-0.01952,-0.27328,-0.0488,-0.06344,-0.05856,-0.0488
-0.02928,0.02928,-0.02928,-0.01464,0,-0.01464,-0.01952,-0.27328,-0.0488,-0.05856,-0.05856,-0.0488
-0.02928,0.0244,-0.01952,-0.00488,0.00976,-0.01952,-0.01952,-0.2684,-0.04392,-0.05368,-0.05856,-0.04392
-0.0244,0.01708,-0.00976,0.00244,0.01464,-0.01952,-0.00976,-0.26352,-0.03416,-0.0488,-0.0488,-0.03416
-0.0244,0.01464,-0.00488,0.00732,0.01952,-0.02196,-0.00488,-0.25864,-0.02928,-0.0488,-0.04392,-0.02928
-0.0244,0.00732,0.00976,0.02196,0.03416,-0.02928,0,-0.24888,-0.01952,-0.03904,-0.03416,-0.02928
-0.01952,-0.00488,0.02928,0.03904,0.0488,-0.03416,0,-0.23912,-0.00488,-0.02928,-0.0244,-0.01952
-0.01464,-0.0122,0.03904,0.04636,0.05368,-0.03416,0,-0.22936,0.00488,-0.01952,-0.01952,-0.01464
-0.00976,-0.01952,0.0488,0.05368,0.05856,-0.03416,0,-0.22936,0.00976,-0.00976,-0.01464,-0.00976
-0.00976,-0.0244,0.05856,0.06344,0.06832,-0.03904,-0.00976,-0.22936,0.01464,-0.00976,-0.00976,-0.00488
0,-0.02928,0.05856,0.05856,0.05856,-0.02928,-0.02928,-0.25376,0.01952,0,-0.00488,-0.00488
0.00976,-0.03904,0.06832,0.06344,0.05856,-0.0244,-0.06832,-0.2684,0.01952,0.00488,0,0.00488
0.01464,-0.04392,0.0732,0.06588,0.05856,-0.02196,-0.07808,-0.28304,0.01952,0.00488,0.00488,0.00488
0.01464,-0.0488,0.08296,0.07564,0.06832,-0.02684,-0.09272,-0.30256,0.01952,0.00488,0.00488,0.00976
0.01464,-0.05124,0.08784,0.08052,0.0732,-0.02928,-0.11712,-0.3172,0.01952,0.00488,0.00976,0.01464
0.01464,-0.05124,0.08784,0.08052,0.0732,-0.02928,-0.14152,-0.3416,0.00488,0.00488,0.00976,0.01464
0.01464,-0.05124,0.08784,0.08052,0.0732,-0.02928,-0.1464,-0.34648,-0.00488,0.00488,0.01464,0.01952
0.01952,-0.05368,0.08784,0.07808,0.06832,-0.0244,-0.13664,-0.33184,-0.00488,0.00488,0.01464,0.0244
0.01952,-0.05124,0.08296,0.0732,0.06344,-0.02196,-0.13176,-0.33184,-0.00976,0,0.01464,0.0244
0.0244,-0.05368,0.08296,0.07076,0.05856,-0.01708,-0.12688,-0.32208,-0.01464,-0.00488,0.01464,0.0244
0.02928,-0.05368,0.07808,0.06344,0.0488,-0.00976,-0.11224,-0.3172,-0.01952,-0.00488,0.00488,0.01952
0.0244,-0.04392,0.06344,0.05124,0.03904,-0.00732,-0.10736,-0.30744,-0.0244,-0.00976,0,0.01464
0.0244,-0.03416,0.04392,0.03172,0.01952,0.00244,-0.0976,-0.30744,-0.03904,-0.01464,-0.00488,0
0.01464,-0.0244,0.03416,0.02684,0.01952,-0.00244,-0.08784,-0.30256,-0.0488,-0.02928,-0.00976,-0.00976
-0.00488,-0.00488,0.01464,0.01708,0.01952,-0.0122,-0.0732,-0.29768,-0.0488,-0.03416,-0.02928,-0.01952
-0.01952,0.01464,-0.00976,0,0.00976,-0.01464,-0.06832,-0.2928,-0.06344,-0.04392,-0.04392,-0.02928
-0.02928,0.02684,-0.0244,-0.00976,0.00488,-0.01708,-0.06832,-0.27816,-0.06832,-0.05368,-0.0488,-0.03904
-0.03416,0.03416,-0.03416,-0.01708,0,-0.01708,-0.05856,-0.26352,-0.0732,-0.06344,-0.05856,-0.04392
-0.03416,0.04148,-0.0488,-0.03172,-0.01464,-0.00976,-0.05368,-0.24888,-0.08296,-0.06832,-0.05856,-0.0488
-0.03416,0.04392,-0.05368,-0.0366,-0.01952,-0.00732,-0.0488,-0.22936,-0.08296,-0.06832,-0.06344,-0.05368
-0.02928,0.04148,-0.05368,-0.03904,-0.0244,-0.00244,-0.03904,-0.20496,-0.09272,-0.07808,-0.06832,-0.05368
-0.02928,0.04148,-0.05368,-0.03904,-0.0244,-0.00244,-0.03416,-0.18544,-0.0976,-0.08784,-0.0732,-0.05368
-0.02928,0.04148,-0.05368,-0.03904,-0.0244,-0.00244,-0.02928,-0.17568,-0.0976,-0.08784,-0.0732,-0.05856
-0.03416,0.04392,-0.05368,-0.0366,-0.01952,-0.00732,-0.02928,-0.16592,-0.10248,-0.08784,-0.0732,-0.05856
-0.03416,0.04636,-0.05856,-0.04148,-0.0244,-0.00488,-0.02928,-0.15616,-0.0976,-0.08784,-0.0732,-0.05856
-0.03416,0.04636,-0.05856,-0.04148,-0.0244,-0.00488,-0.0244,-0.14152,-0.0976,-0.08784,-0.07808,-0.06344
-0.03416,0.04636,-0.05856,-0.04148,-0.0244,-0.00488,-0.00488,-0.122,-0.0976,-0.09272,-0.07808,-0.06344
-0.03904,0.0488,-0.05856,-0.03904,-0.01952,-0.00976,0.00488,-0.0976,-0.0976,-0.09272,-0.07808,-0.06344
-0.03904,0.05124,-0.06344,-0.04392,-0.0244,-0.00732,0,-0.08296,-0.0976,-0.09272,-0.0732,-0.06344
-0.03904,0.05124,-0.06344,-0.04392,-0.0244,-0.00732,-0.00976,-0.06832,-0.0976,-0.09272,-0.06832,-0.06344
-0.03904,0.05124,-0.06344,-0.04392,-0.0244,-0.00732,-0.00976,-0.06344,-0.0976,-0.09272,-0.06832,-0.06344
-0.03904,0.05124,-0.06344,-0.04392,-0.0244,-0.00732,-0.00976,-0.06344,-0.09272,-0.09272,-0.06832,-0.06344
-0.03904,0.05856,-0.07808,-0.05856,-0.03904,0,-0.00488,-0.04392,-0.0976,-0.10248,-0.07808,-0.06832
-0.03416,0.0732,-0.11224,-0.09516,-0.07808,0.02196,0,-0.01952,-0.11712,-0.122,-0.0976,-0.08296
-0.0244,0.0854,-0.1464,-0.1342,-0.122,0.0488,0.00488,-0.01952,-0.15128,-0.15616,-0.13176,-0.0976
-0.00976,0.09272,-0.17568,-0.1708,-0.16592,0.07808,0.00488,-0.00976,-0.18056,-0.19032,-0.15616,-0.11712
0.00976,0.0732,-0.15616,-0.16104,-0.16592,0.08784,0.00976,0.00488,-0.16104,-0.18544,-0.14152,-0.122
0.02928,0.03416,-0.0976,-0.11224,-0.12688,0.07808,-0.00488,-0.02928,-0.08296,-0.10248,-0.08296,-0.08296
0.08296,-0.10248,0.122,0.08052,0.03904,0.02196,-0.06344,-0.06832,0.12688,0.15128,0.10248,0.05856
0.1708,-0.31476,0.45872,0.37332,0.28792,-0.05856,-0.1952,-0.1464,0.42456,0.5124,0.39528,0.26352
0.27328,-0.54168,0.81008,0.67344,0.5368,-0.13176,-0.35136,-0.244,0.74176,0.9028,0.71248,0.50264
0.36112,-0.8052,1.24928,1.06872,0.88816,-0.26352,-0.56608,-0.44896,1.11752,1.3664,1.07848,0.76616
0.40992,-0.96868,1.52744,1.32248,1.11752,-0.3538,-0.77592,-0.64416,1.36152,1.64456,1.30784,0.92232
0.35624,-1.01016,1.66408,1.48596,1.30784,-0.4758,-0.98576,-0.854,1.42984,1.69336,1.38104,1.0004
0.25376,-0.89548,1.5372,1.41032,1.28344,-0.51484,-1.06872,-0.96624,1.32248,1.4884,1.26392,0.94672
0.11224,-0.6344,1.15656,1.10044,1.04432,-0.46604,-0.99064,-0.95648,1.00528,1.06872,0.9028,0.69296
-0.01952,-0.35868,0.73688,0.74664,0.7564,-0.38796,-0.84424,-0.84912,0.61488,0.61,0.5368,0.42944
-0.09272,-0.1342,0.36112,0.40748,0.45384,-0.27328,-0.56608,-0.67344,0.13664,0.1464,0.18056,0.1708
-0.08296,-0.00732,0.0976,0.13908,0.18056,-0.13176,-0.35136,-0.4636,-0.20496,-0.13664,-0.03904,0.00976
-0.0732,0.05612,-0.03904,-0.00244,0.03416,-0.05368,-0.18056,-0.29768,-0.23424,-0.18056,-0.10248,-0.0488
-0.06832,0.08296,-0.0976,-0.06344,-0.02928,-0.01952,-0.06344,-0.1952,-0.20496,-0.18056,-0.11224,-0.08296
-0.03416,0.06344,-0.09272,-0.07564,-0.05856,0.0122,-0.01952,-0.12688,-0.1464,-0.15616,-0.11224,-0.09272
-0.01952,0.04636,-0.0732,-0.06344,-0.05368,0.01708,0.01952,-0.0976,-0.06832,-0.10248,-0.08784,-0.08296
-0.01952,0.03416,-0.0488,-0.03904,-0.02928,0.00488,0,-0.0976,-0.04392,-0.07808,-0.06832,-0.06344
-0.02928,0.03904,-0.0488,-0.03416,-0.01952,-0.00488,0,-0.0976,-0.06344,-0.07808,-0.06832,-0.05856
-0.03416,0.04392,-0.05368,-0.0366,-0.01952,-0.00732,-0.00976,-0.10736,-0.06344,-0.08296,-0.06832,-0.05856
-0.02928,0.04148,-0.05368,-0.03904,-0.0244,-0.00244,-0.00976,-0.122,-0.06344,-0.08296,-0.06832,-0.06344
-0.0244,0.03904,-0.05368,-0.04148,-0.02928,0.00244,-0.00976,-0.12688,-0.06344,-0.08296,-0.06832,-0.06344
-0.0244,0.03904,-0.05368,-0.04148,-0.02928,0.00244,-0.00976,-0.1464,-0.05856,-0.08296,-0.06832,-0.06344
-0.0244,0.03904,-0.05368,-0.04148,-0.02928,0.00244,-0.00976,-0.16104,-0.05856,-0.08296,-0.06832,-0.06344
-0.01952,0.03416,-0.0488,-0.03904,-0.02928,0.00488,0,-0.16104,-0.05856,-0.08296,-0.06344,-0.05856
-0.01952,0.02928,-0.03904,-0.02928,-0.01952,0,0.00488,-0.16104,-0.05368,-0.07808,-0.05368,-0.0488
-0.01952,0.0244,-0.02928,-0.01952,-0.00976,-0.00488,0.06832,-0.0732,-0.05368,-0.0732,-0.0488,-0.0488
-0.01952,0.0244,-0.02928,-0.01952,-0.00976,-0.00488,0.13664,0.00488,-0.0488,-0.06832,-0.04392,-0.0488
-0.01952,0.0244,-0.02928,-0.01952,-0.00976,-0.00488,0.10248,0.01952,-0.0488,-0.06832,-0.04392,-0.0488
-0.01464,0.02196,-0.02928,-0.02196,-0.01464,0,0.05368,0.0244,-0.03904,-0.06832,-0.04392,-0.04392
-0.00976,0.01464,-0.01952,-0.01464,-0.00976,0,0.01952,-0.00488,-0.03904,-0.06832,-0.0488,-0.04392
-0.00976,0.0122,-0.01464,-0.00976,-0.00488,-0.00244,-0.01464,-0.03904,-0.03904,-0.0732,-0.0488,-0.04392
-0.00488,0.00976,-0.01464,-0.0122,-0.00976,0.00244,-0.01952,-0.04392,-0.04392,-0.06832,-0.04392,-0.03904
-0.00488,0.00976,-0.01464,-0.0122,-0.00976,0.00244,-0.0244,-0.0488,-0.03904,-0.06832,-0.04392,-0.03904
0,0.00732,-0.01464,-0.01464,-0.01464,0.00732,-0.03416,-0.05856,-0.03416,-0.05856,-0.04392,-0.03904
0,0.00244,-0.00488,-0.00488,-0.00488,0.00244,-0.04392,-0.06832,-0.02928,-0.05856,-0.03904,-0.03904
0,0,0,0,0,0,-0.04392,-0.07808,-0.02928,-0.05368,-0.03416,-0.03904
0.00488,-0.00488,0.00488,0.00244,0,0.00244,-0.03416,-0.07808,-0.01952,-0.0488,-0.03416,-0.03416
0.00488,-0.00732,0.00976,0.00732,0.00488,0,-0.03904,-0.08296,-0.01464,-0.04392,-0.02928,-0.02928
0.00488,-0.00732,0.00976,0.00732,0.00488,0,-0.05856,-0.08784,-0.00976,-0.04392,-0.0244,-0.02928
0.00976,-0.0122,0.01464,0.00976,0.00488,0.00244,-0.05856,-0.08784,-0.00488,-0.03904,-0.01464,-0.01952
0.01464,-0.01708,0.01952,0.0122,0.00488,0.00488,-0.06344,-0.09272,0,-0.03416,-0.00976,-0.01952
0.00976,-0.01708,0.0244,0.01952,0.01464,-0.00244,-0.08296,-0.0976,0.00976,-0.02928,-0.00488,-0.01952
0.01464,-0.02196,0.02928,0.02196,0.01464,0,-0.0976,-0.11224,0.01464,-0.0244,0,-0.00976
0.01464,-0.02684,0.03904,0.03172,0.0244,-0.00488,-0.0976,-0.122,0.01952,-0.01952,0.00488,-0.00488
0.01952,-0.03172,0.04392,0.03416,0.0244,-0.00244,-0.10248,-0.13176,0.0244,-0.00976,0.00976,0
0.02928,-0.04148,0.05368,0.03904,0.0244,0.00244,-0.11712,-0.13664,0.03416,-0.00488,0.01464,0.00488
0.03416,-0.04636,0.05856,0.04148,0.0244,0.00488,-0.13664,-0.14152,0.03904,0,0.01952,0.00976
0.03904,-0.05368,0.06832,0.0488,0.02928,0.00488,-0.12688,-0.15616,0.04392,0.00488,0.0244,0.01464
0.04392,-0.05612,0.06832,0.04636,0.0244,0.00976,-0.12688,-0.16104,0.05368,0.00976,0.0244,0.01464
0.05368,-0.06588,0.07808,0.05124,0.0244,0.01464,-0.12688,-0.15616,0.05856,0.01464,0.02928,0.01952
0.05856,-0.0732,0.08784,0.05856,0.02928,0.01464,-0.13176,-0.16104,0.05856,0.01952,0.03416,0.0244
0.06344,-0.07564,0.08784,0.05612,0.0244,0.01952,-0.13176,-0.15616,0.05856,0.0244,0.03416,0.02928
0.06832,-0.08052,0.09272,0.05856,0.0244,0.02196,-0.13176,-0.15616,0.05368,0.02928,0.03416,0.02928
0.06832,-0.0854,0.10248,0.06832,0.03416,0.01708,-0.122,-0.15128,0.05856,0.02928,0.03904,0.02928
0.06344,-0.0854,0.10736,0.07564,0.04392,0.00976,-0.122,-0.15128,0.05856,0.02928,0.04392,0.02928
0.06344,-0.08784,0.11224,0.08052,0.0488,0.00732,-0.10248,-0.1464,0.05368,0.02928,0.04392,0.03904
0.06344,-0.08784,0.11224,0.08052,0.0488,0.00732,-0.11224,-0.13664,0.0488,0.0244,0.04392,0.03904
0.06832,-0.09516,0.122,0.08784,0.05368,0.00732,-0.11224,-0.13664,0.0488,0.02928,0.0488,0.03904
0.0732,-0.10004,0.12688,0.09028,0.05368,0.00976,-0.11224,-0.13664,0.0488,0.02928,0.0488,0.04392
0.0732,-0.10004,0.12688,0.09028,0.05368,0.00976,-0.11224,-0.14152,0.0488,0.02928,0.05368,0.04392
0.0732,-0.10004,0.12688,0.09028,0.05368,0.00976,-0.11712,-0.15128,0.0488,0.02928,0.05368,0.04392
0.06344,-0.09516,0.12688,0.09516,0.06344,0,-0.11712,-0.15128,0.05368,0.02928,0.05368,0.03904
0.06344,-0.09516,0.12688,0.09516,0.06344,0,-0.12688,-0.16592,0.05368,0.02928,0.0488,0.02928
0.05368,-0.0854,0.11712,0.09028,0.06344,-0.00488,-0.13664,-0.19032,0.04392,0.03416,0.04392,0.02928
0.04392,-0.07808,0.11224,0.09028,0.06832,-0.0122,-0.14152,-0.21472,0.03904,0.02928,0.02928,0.01952
0.03416,-0.06588,0.0976,0.08052,0.06344,-0.01464,-0.1464,-0.2196,0.03416,0.0244,0.0244,0.01952
0.03416,-0.061,0.08784,0.07076,0.05368,-0.00976,-0.15616,-0.23912,0.02928,0.01952,0.01952,0.01952
0.01952,-0.05124,0.08296,0.0732,0.06344,-0.02196,-0.15616,-0.24888,0.01464,0.00488,0.00976,0.00488
0.01464,-0.04392,0.0732,0.06588,0.05856,-0.02196,-0.16104,-0.27328,0.00488,0.00488,0.00488,0.00488
0.00976,-0.0366,0.06344,0.05856,0.05368,-0.02196,-0.17568,-0.27816,0,-0.00488,-0.00488,0
-0.00488,-0.0244,0.05368,0.05612,0.05856,-0.03172,-0.18544,-0.29768,-0.00976,-0.01464,-0.00976,-0.00976
-0.01464,-0.01464,0.04392,0.05124,0.05856,-0.0366,-0.18544,-0.3172,-0.01952,-0.0244,-0.01952,-0.01464
-0.01952,-0.00732,0.03416,0.04392,0.05368,-0.0366,-0.18544,-0.33184,-0.03416,-0.03416,-0.0244,-0.01952
-0.01952,-0.00244,0.0244,0.03416,0.04392,-0.03172,-0.1952,-0.3416,-0.03904,-0.03904,-0.02928,-0.0244
-0.0244,0.00488,0.01464,0.02684,0.03904,-0.03172,-0.1952,-0.35136,-0.04392,-0.04392,-0.03416,-0.0244
-0.03416,0.0122,0.00976,0.02684,0.04392,-0.03904,-0.20984,-0.36112,-0.0488,-0.04392,-0.03904,-0.02928
-0.04392,0.01952,0.00488,0.02684,0.0488,-0.04636,-0.20984,-0.37088,-0.05368,-0.0488,-0.04392,-0.0244
-0.03904,0.01952,0,0.01952,0.03904,-0.03904,-0.20984,-0.37576,-0.06344,-0.05368,-0.0488,-0.02928
-0.02928,0.01708,-0.00488,0.00976,0.0244,-0.02684,-0.20984,-0.38064,-0.06832,-0.05856,-0.05368,-0.03416
-0.02928,0.01952,-0.00976,0.00488,0.01952,-0.0244,-0.20984,-0.38552,-0.07808,-0.06832,-0.05856,-0.03904
-0.02928,0.01952,-0.00976,0.00488,0.01952,-0.0244,-0.20984,-0.38552,-0.07808,-0.0732,-0.05856,-0.03904
-0.03904,0.0244,-0.00976,0.00976,0.02928,-0.03416,-0.21472,-0.38552,-0.07808,-0.0732,-0.05856,-0.03904
-0.04392,0.02684,-0.00976,0.0122,0.03416,-0.03904,-0.21472,-0.38552,-0.07808,-0.0732,-0.05856,-0.03904
-0.0488,0.02928,-0.00976,0.01464,0.03904,-0.04392,-0.21472,-0.37576,-0.07808,-0.06832,-0.05368,-0.03904
-0.0488,0.02928,-0.00976,0.01464,0.03904,-0.04392,-0.21472,-0.37088,-0.07808,-0.06344,-0.05368,-0.03904
-0.04392,0.02684,-0.00976,0.0122,0.03416,-0.03904,-0.21472,-0.36112,-0.07808,-0.06344,-0.05368,-0.03904
-0.03904,0.0244,-0.00976,0.00976,0.02928,-0.03416,-0.21472,-0.35624,-0.07808,-0.06832,-0.05856,-0.03904
-0.03416,0.01708,0,0.01708,0.03416,-0.03416,-0.20984,-0.3416,-0.06832,-0.06344,-0.05368,-0.03904
-0.02928,0.00976,0.00976,0.0244,0.03904,-0.03416,-0.20496,-0.33184,-0.05856,-0.05856,-0.0488,-0.03904
-0.02928,0.00976,0.00976,0.0244,0.03904,-0.03416,-0.20496,-0.32696,-0.05856,-0.05856,-0.0488,-0.03904
-0.02928,0.00976,0.00976,0.0244,0.03904,-0.03416,-0.20496,-0.32208,-0.05856,-0.05856,-0.0488,-0.03904
-0.02928,0.00976,0.00976,0.0244,0.03904,-0.03416,-0.20496,-0.32208,-0.05856,-0.05856,-0.0488,-0.03904
-0.0244,0.00488,0.01464,0.02684,0.03904,-0.03172,-0.20008,-0.3172,-0.05368,-0.05368,-0.04392,-0.03416
-0.0244,0.00244,0.01952,0.03172,0.04392,-0.03416,-0.20008,-0.3172,-0.0488,-0.0488,-0.04392,-0.02928
-0.01952,-0.00244,0.0244,0.03416,0.04392,-0.03172,-0.18544,-0.3172,-0.03904,-0.04392,-0.03416,-0.01952
-0.01952,-0.00976,0.03904,0.0488,0.05856,-0.03904,-0.17568,-0.30744,-0.02928,-0.0244,-0.0244,-0.01952
-0.01952,-0.01952,0.05856,0.06832,0.07808,-0.0488,-0.17568,-0.29768,-0.01464,-0.00976,-0.01464,-0.00976
-0.01464,-0.02684,0.06832,0.07564,0.08296,-0.0488,-0.17568,-0.28792,0,0,-0.00488,-0.00488
-0.00976,-0.03416,0.07808,0.08296,0.08784,-0.0488,-0.17568,-0.28792,0.00976,0.00976,0.00488,0
-0.00488,-0.04148,0.08784,0.09028,0.09272,-0.0488,-0.18544,-0.28792,0.01464,0.00488,0.00976,0.00488
0.00488,-0.04636,0.08784,0.0854,0.08296,-0.03904,-0.19032,-0.28792,0.01952,0.00976,0.01464,0.00488
0.00976,-0.05368,0.0976,0.09272,0.08784,-0.03904,-0.21472,-0.28792,0.01952,0.01464,0.01464,0.01464
0.01464,-0.05856,0.10248,0.09516,0.08784,-0.0366,-0.23424,-0.31232,0.01952,0.01464,0.01464,0.01464
0.01464,-0.06344,0.11224,0.10492,0.0976,-0.04148,-0.25864,-0.34648,0.01952,0.01464,0.01464,0.01952
0.01464,-0.06588,0.11712,0.1098,0.10248,-0.04392,-0.28304,-0.38552,0.01952,0.01464,0.01952,0.0244
0.01464,-0.06588,0.11712,0.1098,0.10248,-0.04392,-0.30744,-0.41968,0,0.01464,0.01952,0.0244
0.01464,-0.06588,0.11712,0.1098,0.10248,-0.04392,-0.32208,-0.4392,-0.01464,0.00976,0.01952,0.0244
0.0244,-0.07076,0.11712,0.10492,0.09272,-0.03416,-0.3172,-0.43432,-0.01464,0.00488,0.01464,0.0244
0.02928,-0.06832,0.10736,0.09272,0.07808,-0.0244,-0.30744,-0.42944,-0.01952,0,0.01464,0.0244
0.03416,-0.06832,0.10248,0.0854,0.06832,-0.01708,-0.30256,-0.4148,-0.0244,0,0.01464,0.0244
0.04392,-0.07076,0.0976,0.07564,0.05368,-0.00488,-0.28792,-0.40016,-0.02928,0.00488,0.00488,0.01952
0.03904,-0.061,0.08296,0.06344,0.04392,-0.00244,-0.28304,-0.38552,-0.03416,0,0,0.01952
0.03416,-0.0488,0.06344,0.04636,0.02928,0.00244,-0.27328,-0.38552,-0.0488,-0.00488,-0.00488,0.01464
0.0244,-0.03904,0.05368,0.04148,0.02928,-0.00244,-0.26352,-0.38064,-0.05856,-0.01952,-0.00488,0.00976
0.00488,-0.02196,0.03904,0.0366,0.03416,-0.01464,-0.24888,-0.38064,-0.05856,-0.0244,-0.01464,0
-0.00976,-0.00488,0.01952,0.0244,0.02928,-0.01952,-0.244,-0.39528,-0.0732,-0.03416,-0.0244,-0.01464
-0.01952,0.00732,0.00488,0.01464,0.0244,-0.02196,-0.244,-0.40992,-0.07808,-0.04392,-0.02928,-0.02928
-0.0244,0.01464,-0.00488,0.00732,0.01952,-0.02196,-0.23912,-0.40992,-0.08296,-0.05856,-0.04392,-0.03416
-0.0244,0.02196,-0.01952,-0.00732,0.00488,-0.01464,-0.244,-0.40992,-0.09272,-0.06832,-0.0488,-0.03904
-0.0244,0.0244,-0.0244,-0.0122,0,-0.0122,-0.244,-0.40992,-0.09272,-0.06832,-0.05368,-0.04392
-0.0244,0.0244,-0.0244,-0.0122,0,-0.0122,-0.23424,-0.40504,-0.0976,-0.0732,-0.05856,-0.04392
-0.03416,0.02928,-0.0244,-0.00732,0.00976,-0.02196,-0.22936,-0.40992,-0.0976,-0.07808,-0.06344,-0.04392
-0.03904,0.03416,-0.02928,-0.00976,0.00976,-0.0244,-0.22448,-0.41968,-0.0976,-0.07808,-0.06344,-0.0488
-0.04392,0.03904,-0.03416,-0.0122,0.00976,-0.02684,-0.22448,-0.42456,-0.10248,-0.07808,-0.06344,-0.0488
-0.04392,0.04148,-0.03904,-0.01708,0.00488,-0.0244,-0.22448,-0.42944,-0.10248,-0.07808,-0.06344,-0.0488
-0.04392,0.04392,-0.04392,-0.02196,0,-0.02196,-0.21472,-0.42944,-0.10736,-0.07808,-0.06832,-0.05368
-0.04392,0.04636,-0.0488,-0.02684,-0.00488,-0.01952,-0.20008,-0.43432,-0.10736,-0.08296,-0.06832,-0.05368
-0.04392,0.04636,-0.0488,-0.02684,-0.00488,-0.01952,-0.20008,-0.42944,-0.10736,-0.08296,-0.06832,-0.05856
-0.03904,0.04636,-0.05368,-0.03416,-0.01464,-0.0122,-0.1952,-0.42944,-0.10736,-0.08296,-0.06832,-0.06344
-0.03904,0.04392,-0.0488,-0.02928,-0.00976,-0.01464,-0.1952,-0.42944,-0.10736,-0.08296,-0.06832,-0.06344
-0.03904,0.04148,-0.04392,-0.0244,-0.00488,-0.01708,-0.1952,-0.42456,-0.10736,-0.08296,-0.06832,-0.06344
-0.03904,0.04148,-0.04392,-0.0244,-0.00488,-0.01708,-0.1952,-0.42456,-0.10248,-0.08296,-0.06832,-0.05856
-0.03904,0.04148,-0.04392,-0.0244,-0.00488,-0.01708,-0.19032,-0.41968,-0.10248,-0.08296,-0.06832,-0.05368
-0.03416,0.04148,-0.0488,-0.03172,-0.01464,-0.00976,-0.18056,-0.40992,-0.11712,-0.09272,-0.07808,-0.06344
-0.0244,0.05124,-0.07808,-0.06588,-0.05368,0.01464,-0.16104,-0.39528,-0.15128,-0.12688,-0.11224,-0.07808
-0.01464,0.07564,-0.13664,-0.12932,-0.122,0.05368,-0.15128,-0.37088,-0.1952,-0.17568,-0.1464,-0.10736
-0.00976,0.09516,-0.18056,-0.17568,-0.1708,0.08052,-0.122,-0.32208,-0.22936,-0.22936,-0.18544,-0.1464
-0.01464,0.10492,-0.1952,-0.18788,-0.18056,0.08296,-0.08784,-0.30744,-0.21472,-0.22936,-0.19032,-0.15128
0.01464,0.02196,-0.05856,-0.06588,-0.0732,0.04392,-0.11224,-0.30744,-0.06344,-0.06344,-0.06832,-0.06832
0.10248,-0.14884,0.1952,0.14396,0.09272,0.00488,-0.2196,-0.36112,0.16592,0.2196,0.1464,0.07808
0.23424,-0.38064,0.52704,0.40992,0.2928,-0.02928,-0.35136,-0.44896,0.44896,0.58072,0.44408,0.31232
0.35136,-0.6832,1.01504,0.83936,0.66368,-0.15616,-0.57096,-0.64416,0.86864,1.09312,0.86864,0.61976
0.44896,-0.93696,1.42496,1.20048,0.976,-0.26352,-0.83936,-0.85888,1.21512,1.52744,1.22,0.86376
0.44896,-1.09068,1.7324,1.50792,1.28344,-0.41724,-1.14192,-1.13704,1.3908,1.76656,1.43472,1.05408
0.36112,-1.05896,1.7568,1.57624,1.39568,-0.51728,-1.32248,-1.32248,1.40056,1.72264,1.45912,1.10776
0.2196,-0.85644,1.49328,1.38348,1.27368,-0.52704,-1.32736,-1.37616,1.20048,1.4152,1.22488,0.9272
0.05856,-0.57828,1.098,1.06872,1.03944,-0.49044,-1.20536,-1.30784,0.87352,0.95648,0.85888,0.6588
-0.05368,-0.29036,0.6344,0.66124,0.68808,-0.37088,-0.9028,-1.11752,0.35624,0.40016,0.38552,0.33672
-0.06344,-0.09272,0.24888,0.2806,0.31232,-0.18788,-0.6344,-0.86864,-0.11712,-0.00976,0.05368,0.0976
-0.08296,0.01708,0.0488,0.09028,0.13176,-0.10736,-0.39528,-0.64904,-0.22936,-0.14152,-0.06832,-0.00488
-0.10248,0.06832,-0.03416,0.01708,0.06832,-0.0854,-0.22936,-0.5124,-0.20496,-0.16104,-0.09272,-0.0488
-0.05856,0.061,-0.06344,-0.03416,-0.00488,-0.02684,-0.16104,-0.42944,-0.16104,-0.13664,-0.10248,-0.07808
-0.02928,0.04636,-0.06344,-0.0488,-0.03416,0.00244,-0.11712,-0.38552,-0.09272,-0.08296,-0.08784,-0.08296
-0.02928,0.03416,-0.03904,-0.0244,-0.00976,-0.00976,-0.13176,-0.38064,-0.05368,-0.06344,-0.06832,-0.06344
-0.03416,0.03416,-0.03416,-0.01708,0,-0.01708,-0.12688,-0.38064,-0.06344,-0.06832,-0.06832,-0.05856
-0.02928,0.02928,-0.02928,-0.01464,0,-0.01464,-0.13664,-0.3904,-0.06344,-0.0732,-0.06832,-0.05856
-0.01952,0.02196,-0.0244,-0.01464,-0.00488,-0.00732,-0.13664,-0.40504,-0.06344,-0.0732,-0.06832,-0.06344
-0.01464,0.01952,-0.0244,-0.01708,-0.00976,-0.00244,-0.13176,-0.4148,-0.06344,-0.06832,-0.06832,-0.06344
-0.01464,0.01952,-0.0244,-0.01708,-0.00976,-0.00244,-0.12688,-0.42456,-0.05856,-0.06344,-0.06832,-0.06344
-0.01464,0.01952,-0.0244,-0.01708,-0.00976,-0.00244,-0.12688,-0.42456,-0.05856,-0.06344,-0.06832,-0.06344
-0.00976,0.01708,-0.0244,-0.01952,-0.01464,0.00244,-0.12688,-0.42456,-0.05856,-0.06344,-0.06832,-0.06344
-0.01464,0.01708,-0.01952,-0.0122,-0.00488,-0.00488,-0.13176,-0.4392,-0.05368,-0.06344,-0.06344,-0.05856
-0.01952,0.01464,-0.00976,0,0.00976,-0.01464,-0.13176,-0.44408,-0.05368,-0.06344,-0.05856,-0.05856
-0.01952,0.01464,-0.00976,0,0.00976,-0.01464,-0.12688,-0.46848,-0.05368,-0.05856,-0.05368,-0.05368
-0.01952,0.01464,-0.00976,0,0.00976,-0.01464,-0.12688,-0.47824,-0.05856,-0.05856,-0.05368,-0.0488
-0.01464,0.0122,-0.00976,-0.00244,0.00488,-0.00976,-0.13664,-0.47824,-0.0488,-0.05368,-0.05368,-0.04392
-0.00976,0.00488,0,0.00488,0.00976,-0.00976,-0.13664,-0.47336,-0.0488,-0.04392,-0.05368,-0.04392
-0.00976,0.00488,0,0.00488,0.00976,-0.00976,-0.13664,-0.46848,-0.0488,-0.04392,-0.0488,-0.0488
-0.00488,0.00488,-0.00488,-0.00244,0,-0.00244,-0.13176,-0.4636,-0.0488,-0.03904,-0.04392,-0.0488
-0.00488,0.00488,-0.00488,-0.00244,0,-0.00244,-0.12688,-0.44896,-0.03904,-0.03904,-0.04392,-0.0488
0,0.00244,-0.00488,-0.00488,-0.00488,0.00244,-0.122,-0.4392,-0.03416,-0.02928,-0.04392,-0.0488
0,-0.00244,0.00488,0.00488,0.00488,-0.00244,-0.122,-0.42944,-0.0244,-0.02928,-0.03904,-0.0488
0,-0.00488,0.00976,0.00976,0.00976,-0.00488,-0.122,-0.42944,-0.01952,-0.0244,-0.03416,-0.0488
0,-0.00732,0.01464,0.01464,0.01464,-0.00732,-0.11224,-0.42944,-0.00976,-0.01952,-0.03416,-0.04392
-0.00488,-0.00732,0.01952,0.02196,0.0244,-0.01464,-0.11224,-0.42456,-0.00488,-0.01464,-0.02928,-0.03904
-0.00488,-0.00732,0.01952,0.02196,0.0244,-0.01464,-0.122,-0.42456,0,-0.01464,-0.0244,-0.03904
0,-0.0122,0.0244,0.0244,0.0244,-0.0122,-0.11712,-0.42456,0.00488,-0.00976,-0.01952,-0.02928
0.00976,-0.01952,0.02928,0.0244,0.01952,-0.00488,-0.11712,-0.42456,0.00976,-0.00488,-0.01952,-0.02928
0.01464,-0.0244,0.03416,0.02684,0.01952,-0.00244,-0.122,-0.42456,0.01952,0,-0.01464,-0.02928
0.02928,-0.03416,0.03904,0.0244,0.00976,0.00976,-0.12688,-0.42944,0.0244,0.00488,-0.00976,-0.01952
0.03416,-0.04148,0.0488,0.03172,0.01464,0.00976,-0.12688,-0.42456,0.02928,0.00976,-0.00488,-0.01464
0.03904,-0.04636,0.05368,0.03416,0.01464,0.0122,-0.13176,-0.42456,0.03416,0.01952,0,-0.00976
0.04392,-0.05368,0.06344,0.04148,0.01952,0.0122,-0.13664,-0.42456,0.04392,0.0244,0.00488,-0.00488
0.03904,-0.05368,0.06832,0.0488,0.02928,0.00488,-0.1464,-0.42456,0.05368,0.03416,0.00488,0
0.03904,-0.061,0.08296,0.06344,0.04392,-0.00244,-0.13664,-0.42456,0.06344,0.04392,0.00976,0.00488
0.04392,-0.06588,0.08784,0.06588,0.04392,0,-0.122,-0.40992,0.0732,0.0488,0.01464,0.00488
0.05368,-0.07564,0.0976,0.07076,0.04392,0.00488,-0.10736,-0.3904,0.07808,0.05368,0.01952,0.00976
0.05368,-0.07808,0.10248,0.07564,0.0488,0.00244,-0.10248,-0.37576,0.07808,0.05856,0.02928,0.01464
0.05368,-0.07564,0.0976,0.07076,0.04392,0.00488,-0.09272,-0.35624,0.08296,0.06344,0.03416,0.01952
0.05856,-0.08052,0.10248,0.0732,0.04392,0.00732,-0.08784,-0.3416,0.08296,0.06344,0.03416,0.01952
0.06344,-0.08784,0.11224,0.08052,0.0488,0.00732,-0.0732,-0.32696,0.08784,0.05856,0.03904,0.01952
0.06832,-0.09516,0.122,0.08784,0.05368,0.00732,-0.06344,-0.30744,0.08784,0.05856,0.04392,0.01952
0.0732,-0.10248,0.13176,0.09516,0.05856,0.00732,-0.03904,-0.28792,0.08784,0.06344,0.04392,0.02928
0.0732,-0.10248,0.13176,0.09516,0.05856,0.00732,-0.0488,-0.26352,0.08296,0.06344,0.04392,0.02928
0.0732,-0.10492,0.13664,0.10004,0.06344,0.00488,-0.04392,-0.244,0.07808,0.06832,0.0488,0.02928
0.0732,-0.10492,0.13664,0.10004,0.06344,0.00488,-0.03904,-0.244,0.07808,0.06832,0.0488,0.03416
0.0732,-0.10492,0.13664,0.10004,0.06344,0.00488,-0.02928,-0.23912,0.07808,0.06832,0.05368,0.03416
0.06832,-0.10248,0.13664,0.10248,0.06832,0,-0.02928,-0.23424,0.07808,0.06832,0.05368,0.03416
0.05368,-0.09516,0.13664,0.1098,0.08296,-0.01464,-0.02928,-0.22936,0.07808,0.06832,0.05368,0.03416
0.05368,-0.09516,0.13664,0.1098,0.08296,-0.01464,-0.02928,-0.23424,0.0732,0.06832,0.04392,0.02928
0.04392,-0.0854,0.12688,0.10492,0.08296,-0.01952,-0.0244,-0.23424,0.06344,0.06832,0.03904,0.02928
0.03904,-0.08052,0.122,0.10248,0.08296,-0.02196,-0.03416,-0.25376,0.05856,0.05856,0.02928,0.01952
0.03416,-0.07076,0.10736,0.09028,0.0732,-0.01952,-0.03904,-0.26352,0.05368,0.05368,0.0244,0.01464
0.03416,-0.06588,0.0976,0.08052,0.06344,-0.01464,-0.04392,-0.2928,0.0488,0.0488,0.0244,0.00976
0.01952,-0.05368,0.08784,0.07808,0.06832,-0.0244,-0.0488,-0.3172,0.03416,0.02928,0.01464,-0.00488
0.01464,-0.04392,0.0732,0.06588,0.05856,-0.02196,-0.05856,-0.34648,0.0244,0.0244,0.00488,-0.00488
0.00976,-0.0366,0.06344,0.05856,0.05368,-0.02196,-0.06832,-0.35624,0.01464,0.01464,-0.00488,-0.00976
-0.00488,-0.0244,0.05368,0.05612,0.05856,-0.03172,-0.0732,-0.38552,0,0.00488,-0.00976,-0.01952
-0.01464,-0.01464,0.04392,0.05124,0.05856,-0.0366,-0.07808,-0.40504,-0.00976,-0.00488,-0.01952,-0.0244
-0.01952,-0.00732,0.03416,0.04392,0.05368,-0.0366,-0.07808,-0.42456,-0.0244,-0.01464,-0.0244,-0.02928
-0.01952,-0.00244,0.0244,0.03416,0.04392,-0.03172,-0.08784,-0.44408,-0.03416,-0.0244,-0.02928,-0.03416
-0.0244,0.00488,0.01464,0.02684,0.03904,-0.03172,-0.08784,-0.4636,-0.04392,-0.03416,-0.03416,-0.03416
-0.0244,0.00732,0.00976,0.02196,0.03416,-0.02928,-0.10248,-0.488,-0.0488,-0.03416,-0.03904,-0.04392
-0.0244,0.00976,0.00488,0.01708,0.02928,-0.02684,-0.10248,-0.50264,-0.05368,-0.03904,-0.04392,-0.03904
-0.02928,0.01464,0,0.01464,0.02928,-0.02928,-0.10248,-0.50752,-0.05856,-0.04392,-0.0488,-0.03904
-0.03416,0.01952,-0.00488,0.0122,0.02928,-0.03172,-0.10248,-0.51728,-0.05856,-0.0488,-0.05368,-0.04392
-0.03904,0.0244,-0.00976,0.00976,0.02928,-0.03416,-0.10248,-0.53192,-0.06832,-0.05368,-0.05856,-0.04392
-0.03904,0.0244,-0.00976,0.00976,0.02928,-0.03416,-0.10736,-0.55632,-0.06832,-0.05368,-0.05856,-0.03904
-0.04392,0.02684,-0.00976,0.0122,0.03416,-0.03904,-0.11712,-0.58072,-0.06832,-0.05368,-0.05856,-0.03904
-0.03904,0.0244,-0.00976,0.00976,0.02928,-0.03416,-0.11712,-0.5856,-0.06832,-0.05368,-0.05856,-0.03904
-0.03904,0.0244,-0.00976,0.00976,0.02928,-0.03416,-0.11712,-0.5856,-0.06832,-0.05368,-0.05368,-0.03904
-0.03904,0.0244,-0.00976,0.00976,0.02928,-0.03416,-0.10736,-0.5856,-0.06832,-0.05368,-0.05368,-0.04392
-0.03904,0.0244,-0.00976,0.00976,0.02928,-0.03416,-0.0976,-0.58072,-0.06832,-0.05368,-0.05368,-0.0488
-0.04392,0.02928,-0.01464,0.00732,0.02928,-0.0366,-0.09272,-0.57096,-0.06832,-0.05856,-0.05856,-0.0488
-0.0488,0.03416,-0.01952,0.00488,0.02928,-0.03904,-0.08296,-0.55632,-0.06344,-0.05856,-0.05856,-0.0488
-0.04392,0.02928,-0.01464,0.00732,0.02928,-0.0366,-0.06344,-0.5368,-0.05856,-0.05368,-0.05856,-0.0488
-0.03904,0.0244,-0.00976,0.00976,0.02928,-0.03416,-0.0488,-0.51728,-0.05856,-0.0488,-0.05856,-0.0488
-0.03904,0.0244,-0.00976,0.00976,0.02928,-0.03416,-0.04392,-0.50752,-0.05856,-0.0488,-0.05856,-0.0488
-0.03904,0.0244,-0.00976,0.00976,0.02928,-0.03416,-0.03904,-0.49776,-0.05856,-0.0488,-0.05856,-0.0488
-0.03904,0.0244,-0.00976,0.00976,0.02928,-0.03416,-0.02928,-0.49288,-0.05368,-0.04392,-0.05856,-0.0488
-0.03416,0.01952,-0.00488,0.0122,0.02928,-0.03172,-0.01952,-0.48312,-0.04392,-0.03416,-0.05368,-0.04392
-0.03416,0.01708,0,0.01708,0.03416,-0.03416,-0.01464,-0.47824,-0.03904,-0.02928,-0.05368,-0.03904
-0.02928,0.0122,0.00488,0.01952,0.03416,-0.03172,0,-0.47336,-0.02928,-0.0244,-0.04392,-0.02928
-0.0244,0.00244,0.01952,0.03172,0.04392,-0.03416,0.01952,-0.4636,-0.01952,-0.01464,-0.03416,-0.02928
-0.01952,-0.00976,0.03904,0.0488,0.05856,-0.03904,0.02928,-0.45384,-0.00488,-0.00976,-0.0244,-0.01952
-0.01464,-0.01708,0.0488,0.05612,0.06344,-0.03904,0.02928,-0.4392,0.00488,0,-0.01952,-0.01464
-0.00976,-0.0244,0.05856,0.06344,0.06832,-0.03904,0.02928,-0.43432,0.00976,0.00976,-0.01464,-0.00976
-0.00976,-0.02928,0.06832,0.0732,0.07808,-0.04392,0.0244,-0.42944,0.01952,0.00976,-0.00976,-0.00488
-0.00488,-0.03172,0.06832,0.07076,0.0732,-0.03904,0.0244,-0.42456,0.02928,0.01952,-0.00488,-0.00488
0,-0.03904,0.07808,0.07808,0.07808,-0.03904,0.00976,-0.4148,0.02928,0.02928,0,0.00488
0.00488,-0.04392,0.08296,0.08052,0.07808,-0.0366,0,-0.42944,0.02928,0.03416,0.00488,0.00488
0.00488,-0.0488,0.09272,0.09028,0.08784,-0.04148,-0.01952,-0.43432,0.02928,0.03416,0.00488,0.00976
0.00488,-0.05124,0.0976,0.09516,0.09272,-0.04392,-0.03904,-0.44408,0.02928,0.03416,0.00976,0.01464
0.00488,-0.0488,0.09272,0.09028,0.08784,-0.04148,-0.03904,-0.4392,0.00976,0.02928,0.00976,0.01464
0.00488,-0.04636,0.08784,0.0854,0.08296,-0.03904,-0.02928,-0.41968,-0.00488,0.01952,0.00976,0.01464
0.01464,-0.05124,0.08784,0.08052,0.0732,-0.02928,-0.01464,-0.37576,-0.00976,0.01464,0,0.00976
0.01952,-0.0488,0.07808,0.06832,0.05856,-0.01952,0.00488,-0.33184,-0.01952,0.00976,-0.00488,0.00488
0.0244,-0.0488,0.0732,0.061,0.0488,-0.0122,0.01464,-0.29768,-0.0244,0,-0.00488,0
0.03416,-0.05124,0.06832,0.05124,0.03416,0,0.03416,-0.26352,-0.02928,-0.00488,-0.01464,-0.00976
0.03416,-0.04392,0.05368,0.0366,0.01952,0.00732,0.03904,-0.2196,-0.03416,-0.00976,-0.01952,-0.01464
0.03416,-0.03416,0.03416,0.01708,0,0.01708,0.0488,-0.19032,-0.0488,-0.01464,-0.0244,-0.0244
0.0244,-0.0244,0.0244,0.0122,0,0.0122,0.04392,-0.18544,-0.05368,-0.0244,-0.0244,-0.0244
0.00488,-0.00732,0.00976,0.00732,0.00488,0,0.04392,-0.18544,-0.0488,-0.0244,-0.03416,-0.02928
-0.01464,0.00976,-0.00488,0.00244,0.00976,-0.0122,0.04392,-0.18544,-0.06344,-0.03416,-0.04392,-0.03416
-0.02928,0.02196,-0.01464,0,0.01464,-0.02196,0.03904,-0.18544,-0.06832,-0.04392,-0.0488,-0.03904
-0.03416,0.02928,-0.0244,-0.00732,0.00976,-0.02196,0.0488,-0.18544,-0.0732,-0.05856,-0.05856,-0.04392
-0.03416,0.0366,-0.03904,-0.02196,-0.00488,-0.01464,0.0488,-0.18544,-0.08296,-0.06832,-0.05856,-0.0488
-0.03416,0.03904,-0.04392,-0.02684,-0.00976,-0.0122,0.01464,-0.20984,-0.08784,-0.06832,-0.05856,-0.05368
-0.03416,0.03904,-0.04392,-0.02684,-0.00976,-0.0122,-0.00976,-0.22936,-0.0976,-0.0732,-0.05856,-0.05368
-0.03904,0.04148,-0.04392,-0.0244,-0.00488,-0.01708,-0.01464,-0.25376,-0.0976,-0.07808,-0.06344,-0.05368
-0.03904,0.04392,-0.0488,-0.02928,-0.00976,-0.01464,-0.01952,-0.28304,-0.0976,-0.07808,-0.06344,-0.05856
-0.04392,0.0488,-0.05368,-0.03172,-0.00976,-0.01708,-0.0244,-0.28792,-0.10248,-0.07808,-0.06344,-0.05856
-0.04392,0.05124,-0.05856,-0.0366,-0.01464,-0.01464,-0.02928,-0.2928,-0.10248,-0.07808,-0.06344,-0.05856
-0.03904,0.0488,-0.05856,-0.03904,-0.01952,-0.00976,-0.0244,-0.29768,-0.10736,-0.08296,-0.06832,-0.06344
-0.03416,0.04636,-0.05856,-0.04148,-0.0244,-0.00488,-0.01464,-0.30744,-0.10736,-0.09272,-0.06832,-0.06344
-0.03904,0.0488,-0.05856,-0.03904,-0.01952,-0.00976,-0.01464,-0.30256,-0.10736,-0.09272,-0.0732,-0.06344
-0.03904,0.05124,-0.06344,-0.04392,-0.0244,-0.00732,-0.00976,-0.30256,-0.10736,-0.09272,-0.07808,-0.06344
-0.03904,0.05124,-0.06344,-0.04392,-0.0244,-0.00732,-0.00488,-0.30256,-0.10736,-0.09272,-0.07808,-0.06344
-0.03904,0.05124,-0.06344,-0.04392,-0.0244,-0.00732,0,-0.29768,-0.10736,-0.09272,-0.07808,-0.06344
-0.03904,0.0488,-0.05856,-0.03904,-0.01952,-0.00976,0,-0.2928,-0.10248,-0.09272,-0.0732,-0.06344
-0.03904,0.04636,-0.05368,-0.03416,-0.01464,-0.0122,0.00488,-0.28304,-0.10248,-0.09272,-0.06832,-0.06344
-0.03416,0.0488,-0.06344,-0.04636,-0.02928,-0.00244,0.00976,-0.27328,-0.10736,-0.09272,-0.06832,-0.0732
-0.0244,0.061,-0.0976,-0.0854,-0.0732,0.0244,0.0244,-0.25864,-0.13176,-0.11712,-0.09272,-0.08784
-0.01464,0.0854,-0.15616,-0.14884,-0.14152,0.06344,0.0244,-0.244,-0.18544,-0.17568,-0.13176,-0.11224
-0.00976,0.10492,-0.20008,-0.1952,-0.19032,0.09028,0.04392,-0.20496,-0.22936,-0.23912,-0.17568,-0.1464
-0.0244,0.13908,-0.25376,-0.24156,-0.22936,0.10248,0.06344,-0.25864,-0.24888,-0.27816,-0.2196,-0.17568
-0.00488,0.08052,-0.15616,-0.15372,-0.15128,0.0732,0.0244,-0.32696,-0.13176,-0.15128,-0.13664,-0.11712
0.0732,-0.0732,0.0732,0.0366,0,0.0366,-0.07808,-0.41968,0.0732,0.0976,0.06344,0.0244
0.1952,-0.28792,0.38064,0.28304,0.18544,0.00488,-0.20496,-0.54656,0.33184,0.42456,0.34648,0.25376
0.33672,-0.60756,0.8784,0.71004,0.54168,-0.10248,-0.40992,-0.76616,0.7564,0.9516,0.77592,0.56608
0.45872,-0.8784,1.29808,1.06872,0.83936,-0.19032,-0.66368,-1.00528,1.10776,1.40056,1.13216,0.81496
0.47824,-1.0736,1.66896,1.42984,1.19072,-0.35624,-1.01016,-1.33224,1.33224,1.70312,1.40056,1.04432
0.40992,-1.08336,1.7568,1.55184,1.34688,-0.46848,-1.23464,-1.56648,1.3908,1.72264,1.47864,1.13704
0.25864,-0.88816,1.51768,1.38836,1.25904,-0.5002,-1.27368,-1.64456,1.23952,1.47864,1.28344,0.98576
0.08784,-0.61732,1.1468,1.10288,1.05896,-0.48556,-1.18584,-1.60064,0.96136,1.08336,0.95648,0.74664
-0.0488,-0.3172,0.6832,0.7076,0.732,-0.3904,-0.854,-1.40056,0.43432,0.488,0.4636,0.40504
-0.08296,-0.10736,0.29768,0.33916,0.38064,-0.2318,-0.55632,-1.14192,-0.0488,0.03904,0.11224,0.1464
-0.08296,0.0122,0.05856,0.10004,0.14152,-0.11224,-0.2928,-0.89304,-0.20496,-0.11712,-0.03904,0.01952
-0.08296,0.0732,-0.06344,-0.02196,0.01952,-0.05124,-0.10248,-0.72712,-0.22448,-0.16104,-0.09272,-0.0488
-0.05368,0.0732,-0.09272,-0.06588,-0.03904,-0.00732,-0.03416,-0.64416,-0.17568,-0.1464,-0.10248,-0.07808
-0.03904,0.06588,-0.09272,-0.0732,-0.05368,0.00732,0.00976,-0.60024,-0.10248,-0.10248,-0.08784,-0.08296
-0.03904,0.05368,-0.06832,-0.0488,-0.02928,-0.00488,-0.00976,-0.59536,-0.05856,-0.07808,-0.06832,-0.06344
-0.04392,0.05368,-0.06344,-0.04148,-0.01952,-0.0122,-0.00976,-0.59536,-0.06344,-0.07808,-0.06832,-0.05856
-0.04392,0.05124,-0.05856,-0.0366,-0.01464,-0.01464,-0.0244,-0.61488,-0.06344,-0.08296,-0.06832,-0.05856
-0.03904,0.04636,-0.05368,-0.03416,-0.01464,-0.0122,-0.02928,-0.63928,-0.06344,-0.08296,-0.06832,-0.06344
-0.02928,0.04148,-0.05368,-0.03904,-0.0244,-0.00244,-0.03904,-0.6588,-0.06344,-0.07808,-0.06832,-0.06344
-0.0244,0.03904,-0.05368,-0.04148,-0.02928,0.00244,-0.0488,-0.67832,-0.05856,-0.0732,-0.06832,-0.06344
-0.0244,0.03904,-0.05368,-0.04148,-0.02928,0.00244,-0.06832,-0.7076,-0.05856,-0.0732,-0.06832,-0.05856
-0.01952,0.0366,-0.05368,-0.04392,-0.03416,0.00732,-0.08784,-0.73688,-0.05856,-0.0732,-0.06832,-0.05368
-0.01952,0.03416,-0.0488,-0.03904,-0.02928,0.00488,-0.10248,-0.74664,-0.05368,-0.06832,-0.06832,-0.0488
-0.01952,0.02928,-0.03904,-0.02928,-0.01952,0,-0.11224,-0.74664,-0.05368,-0.06344,-0.06832,-0.0488
-0.01952,0.02928,-0.03904,-0.02928,-0.01952,0,-0.07808,-0.73688,-0.0488,-0.05368,-0.06344,-0.05368
-0.01952,0.02928,-0.03904,-0.02928,-0.01952,0,-0.0488,-0.71248,-0.0488,-0.0488,-0.06344,-0.05856
-0.01464,0.02684,-0.03904,-0.03172,-0.0244,0.00488,-0.01952,-0.64416,-0.03904,-0.0488,-0.06344,-0.05368
-0.00976,0.01952,-0.02928,-0.0244,-0.01952,0.00488,0.01952,-0.57096,-0.03904,-0.04392,-0.06344,-0.05368
-0.00976,0.01708,-0.0244,-0.01952,-0.01464,0.00244,-0.0488,-0.61,-0.03904,-0.0488,-0.05856,-0.05368
-0.00488,0.01464,-0.0244,-0.02196,-0.01952,0.00732,-0.11224,-0.64904,-0.03904,-0.0488,-0.05368,-0.0488
-0.00976,0.01708,-0.0244,-0.01952,-0.01464,0.00244,-0.10248,-0.65392,-0.02928,-0.0488,-0.05368,-0.0488
-0.00976,0.01708,-0.0244,-0.01952,-0.01464,0.00244,-0.09272,-0.66368,-0.0244,-0.03904,-0.05368,-0.0488
-0.00976,0.0122,-0.01464,-0.00976,-0.00488,-0.00244,-0.07808,-0.6344,-0.01464,-0.03416,-0.0488,-0.04392
-0.00976,0.00976,-0.00976,-0.00488,0,-0.00488,-0.06344,-0.61488,-0.00976,-0.0244,-0.04392,-0.03904
0,0,0,0,0,0,-0.05368,-0.5612,0,-0.01952,-0.04392,-0.03416
0.00488,-0.00732,0.00976,0.00732,0.00488,0,-0.05368,-0.50264,0.00488,-0.01464,-0.03904,-0.02928
0.00488,-0.00732,0.00976,0.00732,0.00488,0,-0.06832,-0.49288,0.00976,-0.01464,-0.03416,-0.03416
0.00976,-0.0122,0.01464,0.00976,0.00488,0.00244,-0.06832,-0.48312,0.01464,-0.00976,-0.02928,-0.02928
0.01464,-0.0122,0.00976,0.00244,-0.00488,0.00976,-0.09272,-0.48312,0.01952,0,-0.02928,-0.02928
0.01464,-0.00976,0.00488,-0.00244,-0.00976,0.0122,-0.122,-0.48312,0.02928,0.00976,-0.0244,-0.02928
0.01952,-0.01464,0.00976,0,-0.00976,0.01464,-0.12688,-0.49288,0.03416,0.01464,-0.0244,-0.01952
0.01464,-0.01708,0.01952,0.0122,0.00488,0.00488,-0.12688,-0.49288,0.03904,0.01952,-0.0244,-0.01464
0.01952,-0.02196,0.0244,0.01464,0.00488,0.00732,-0.1464,-0.50752,0.04392,0.0244,-0.01952,-0.00976
0.0244,-0.02928,0.03416,0.02196,0.00976,0.00732,-0.16592,-0.52216,0.05368,0.0244,-0.01464,-0.00488
0.02928,-0.03416,0.03904,0.0244,0.00976,0.00976,-0.18056,-0.52704,0.05856,0.02928,-0.00976,0
0.03904,-0.04636,0.05368,0.03416,0.01464,0.0122,-0.17568,-0.53192,0.06344,0.03416,0,0.00488
0.04392,-0.05368,0.06344,0.04148,0.01952,0.0122,-0.18544,-0.54168,0.0732,0.03904,0.00488,0.00488
0.05368,-0.06588,0.07808,0.05124,0.0244,0.01464,-0.1952,-0.54656,0.07808,0.04392,0.00976,0.00976
0.05368,-0.07076,0.08784,0.061,0.03416,0.00976,-0.20496,-0.5612,0.07808,0.0488,0.01464,0.01464
0.05368,-0.07076,0.08784,0.061,0.03416,0.00976,-0.20984,-0.57096,0.08296,0.05368,0.01464,0.01952
0.05856,-0.0732,0.08784,0.05856,0.02928,0.01464,-0.21472,-0.57096,0.08784,0.06344,0.01464,0.01952
0.06344,-0.07808,0.09272,0.061,0.02928,0.01708,-0.20984,-0.57096,0.0976,0.06832,0.01952,0.01952
0.06344,-0.08052,0.0976,0.06588,0.03416,0.01464,-0.21472,-0.58072,0.0976,0.06832,0.0244,0.01952
0.06344,-0.08296,0.10248,0.07076,0.03904,0.0122,-0.20496,-0.59048,0.0976,0.0732,0.0244,0.02928
0.06344,-0.0854,0.10736,0.07564,0.04392,0.00976,-0.2196,-0.59048,0.0976,0.07808,0.0244,0.02928
0.06344,-0.09028,0.11712,0.0854,0.05368,0.00488,-0.2196,-0.59536,0.0976,0.08784,0.02928,0.02928
0.06344,-0.09028,0.11712,0.0854,0.05368,0.00488,-0.2196,-0.60512,0.0976,0.09272,0.02928,0.03416
0.06344,-0.09028,0.11712,0.0854,0.05368,0.00488,-0.21472,-0.61,0.0976,0.0976,0.03416,0.03416
0.06832,-0.09272,0.11712,0.08296,0.0488,0.00976,-0.20496,-0.60024,0.0976,0.0976,0.03416,0.03416
