i,aVR,ii,aVF,iii,aVL,V1,V2,V3,V4,V5,V6
-0.06832,0.11224,-0.15616,-0.122,-0.08784,0.00976,0.06832,0.00976,-0.07808,-0.14152,-0.11712,-0.122
-0.06832,0.11956,-0.1708,-0.13664,-0.10248,0.01708,0.0732,0.01952,-0.08784,-0.16104,-0.13176,-0.13176
-0.06832,0.12444,-0.18056,-0.1464,-0.11224,0.02196,0.0732,0.02928,-0.08784,-0.16104,-0.14152,-0.13664
-0.0732,0.12444,-0.17568,-0.13908,-0.10248,0.01464,0.07808,0.02928,-0.07808,-0.16592,-0.15128,-0.1464
-0.0732,0.12688,-0.18056,-0.14396,-0.10736,0.01708,0.08784,0.02928,-0.0732,-0.1708,-0.15616,-0.15616
-0.07808,0.12688,-0.17568,-0.13664,-0.0976,0.00976,0.08784,0.02928,-0.07808,-0.18056,-0.16104,-0.15616
-0.07808,0.12444,-0.1708,-0.13176,-0.09272,0.00732,0.08296,0.03416,-0.07808,-0.18544,-0.16104,-0.15616
-0.07808,0.12444,-0.1708,-0.13176,-0.09272,0.00732,0.08784,0.03416,-0.0732,-0.18544,-0.15616,-0.15616
-0.07808,0.12444,-0.1708,-0.13176,-0.09272,0.00732,0.08784,0.03904,-0.06344,-0.18056,-0.15616,-0.15128
-0.07808,0.12444,-0.1708,-0.13176,-0.09272,0.00732,0.08784,0.04392,-0.06344,-0.17568,-0.15616,-0.15128
-0.07808,0.12688,-0.17568,-0.13664,-0.0976,0.00976,0.08784,0.0488,-0.06344,-0.1708,-0.15616,-0.15128
-0.0732,0.12688,-0.18056,-0.14396,-0.10736,0.01708,0.09272,0.05856,-0.05368,-0.16104,-0.15616,-0.15616
-0.0732,0.12688,-0.18056,-0.14396,-0.10736,0.01708,0.09272,0.06344,-0.0488,-0.16104,-0.15128,-0.15616
-0.06832,0.122,-0.17568,-0.14152,-0.10736,0.01952,0.0976,0.0732,-0.03904,-0.15616,-0.15128,-0.15128
-0.06344,0.11956,-0.17568,-0.14396,-0.11224,0.0244,0.0976,0.07808,-0.03416,-0.1464,-0.1464,-0.1464
-0.06344,0.11712,-0.1708,-0.13908,-0.10736,0.02196,0.0976,0.08296,-0.03904,-0.14152,-0.1464,-0.1464
-0.05856,0.11468,-0.1708,-0.14152,-0.11224,0.02684,0.0976,0.08784,-0.03416,-0.14152,-0.13664,-0.1464
-0.05856,0.11468,-0.1708,-0.14152,-0.11224,0.02684,0.0976,0.0976,-0.02928,-0.13176,-0.12688,-0.13664
-0.06344,0.11712,-0.1708,-0.13908,-0.10736,0.02196,0.0976,0.10736,-0.0244,-0.13176,-0.12688,-0.13664
-0.05856,0.11224,-0.16592,-0.13664,-0.10736,0.0244,0.10248,0.11224,-0.01464,-0.12688,-0.12688,-0.13664
-0.05856,0.1098,-0.16104,-0.13176,-0.10248,0.02196,0.10248,0.122,-0.00976,-0.122,-0.11712,-0.13664
-0.05368,0.10736,-0.16104,-0.1342,-0.10736,0.02684,0.10248,0.13176,0,-0.11224,-0.11712,-0.13664
-0.0488,0.10004,-0.15128,-0.12688,-0.10248,0.02684,0.10248,0.13664,0.01952,-0.10248,-0.11224,-0.12688
-0.04392,0.0976,-0.15128,-0.12932,-0.10736,0.03172,0.10248,0.1464,0.02928,-0.09272,-0.10248,-0.11712
-0.03904,0.09272,-0.1464,-0.12688,-0.10736,0.03416,0.10248,0.15616,0.04392,-0.08296,-0.09272,-0.11224
-0.03416,0.09028,-0.1464,-0.12932,-0.11224,0.03904,0.10248,0.1708,0.05856,-0.06832,-0.08784,-0.10736
-0.0244,0.08296,-0.14152,-0.12932,-0.11712,0.04636,0.10736,0.18544,0.07808,-0.05856,-0.08296,-0.10248
-0.0244,0.08052,-0.13664,-0.12444,-0.11224,0.04392,0.10736,0.1952,0.08784,-0.0488,-0.06344,-0.09272
-0.0244,0.07564,-0.12688,-0.11468,-0.10248,0.03904,0.10736,0.20984,0.10248,-0.03416,-0.05368,-0.08296
-0.01464,0.06832,-0.122,-0.11468,-0.10736,0.04636,0.10736,0.23424,0.11712,-0.01952,-0.04392,-0.07808
-0.00976,0.05856,-0.10736,-0.10248,-0.0976,0.04392,0.10736,0.24888,0.14152,0,-0.02928,-0.06832
-0.00488,0.05124,-0.0976,-0.09516,-0.09272,0.04392,0.11224,0.27328,0.16104,0.01952,-0.01464,-0.05856
0,0.04392,-0.08784,-0.08784,-0.08784,0.04392,0.11224,0.28792,0.18056,0.03904,0.00976,-0.04392
0.00488,0.03172,-0.06832,-0.07076,-0.0732,0.03904,0.11224,0.30744,0.20496,0.05856,0.01952,-0.03416
0.01464,0.01952,-0.05368,-0.061,-0.06832,0.04148,0.11224,0.32696,0.22448,0.08296,0.03416,-0.01952
0.01952,0.00976,-0.03904,-0.0488,-0.05856,0.03904,0.11224,0.35624,0.25864,0.11224,0.05856,-0.00488
0.02928,-0.00488,-0.01952,-0.03416,-0.0488,0.03904,0.11224,0.38552,0.28792,0.13664,0.07808,0.01464
0.03416,-0.01464,-0.00488,-0.02196,-0.03904,0.0366,0.11224,0.40504,0.3172,0.1708,0.0976,0.03416
0.04392,-0.02928,0.01464,-0.00732,-0.02928,0.0366,0.11224,0.42944,0.34648,0.20496,0.12688,0.05368
0.05368,-0.04392,0.03416,0.00732,-0.01952,0.0366,0.11224,0.44896,0.37088,0.23424,0.15128,0.07808
0.06344,-0.05856,0.05368,0.02196,-0.00976,0.0366,0.11224,0.47336,0.40504,0.2684,0.19032,0.10248
0.06832,-0.0732,0.07808,0.04392,0.00976,0.02928,0.11224,0.488,0.43432,0.29768,0.20984,0.11712
0.07808,-0.08784,0.0976,0.05856,0.01952,0.02928,0.10736,0.50264,0.45384,0.32696,0.22936,0.13664
0.08784,-0.10004,0.11224,0.06832,0.0244,0.03172,0.10736,0.51728,0.47336,0.35136,0.25376,0.15616
0.09272,-0.11224,0.13176,0.0854,0.03904,0.02684,0.10736,0.53192,0.49776,0.38064,0.28304,0.18056
0.10736,-0.12444,0.14152,0.08784,0.03416,0.0366,0.0976,0.5368,0.52216,0.40016,0.29768,0.19032
0.122,-0.14152,0.16104,0.10004,0.03904,0.04148,0.0976,0.5368,0.5368,0.41968,0.3172,0.20496
0.11224,-0.1464,0.18056,0.12444,0.06832,0.02196,0.08784,0.5368,0.54656,0.44408,0.33672,0.2196
0.10736,-0.14884,0.19032,0.13664,0.08296,0.0122,0.08296,0.53192,0.55144,0.4636,0.35136,0.22936
0.10736,-0.15128,0.1952,0.14152,0.08784,0.00976,0.07808,0.5124,0.55144,0.4636,0.36112,0.23912
0.10736,-0.15616,0.20496,0.15128,0.0976,0.00488,0.06832,0.488,0.5368,0.4636,0.366,0.24888
0.10248,-0.15372,0.20496,0.15372,0.10248,0,0.06832,0.44896,0.5124,0.44896,0.366,0.244
0.0976,-0.15128,0.20496,0.15616,0.10736,-0.00488,0.06344,0.40016,0.46848,0.42944,0.35624,0.23912
0.08296,-0.13908,0.1952,0.15372,0.11224,-0.01464,0.0488,0.35624,0.42944,0.3904,0.32208,0.2196
0.0732,-0.12444,0.17568,0.13908,0.10248,-0.01464,0.04392,0.31232,0.37576,0.3416,0.28792,0.1952
0.05856,-0.10492,0.15128,0.122,0.09272,-0.01708,0.04392,0.25864,0.3172,0.28792,0.24888,0.16104
0.0488,-0.08296,0.11712,0.09272,0.06832,-0.00976,0.04392,0.20984,0.25864,0.23912,0.20008,0.13176
0.03904,-0.05856,0.07808,0.05856,0.03904,0,0.03416,0.16104,0.20984,0.17568,0.15616,0.10248
0.0244,-0.03904,0.05368,0.04148,0.02928,-0.00244,0.03416,0.12688,0.15616,0.11712,0.11224,0.06832
0.00976,-0.01708,0.0244,0.01952,0.01464,-0.00244,0.02928,0.08784,0.10736,0.05856,0.06344,0.01952
0,0.00244,-0.00488,-0.00488,-0.00488,0.00244,0.02928,0.0488,0.05856,0.01464,0.01952,-0.00488
-0.00976,0.01952,-0.02928,-0.0244,-0.01952,0.00488,0.03416,0.01952,0.01464,-0.03416,-0.01464,-0.02928
-0.01952,0.03172,-0.04392,-0.03416,-0.0244,0.00244,0.03416,0.00488,-0.01952,-0.06832,-0.0488,-0.0488
-0.02928,0.04636,-0.06344,-0.0488,-0.03416,0.00244,0.02928,-0.00976,-0.04392,-0.10248,-0.07808,-0.08296
-0.03904,0.061,-0.08296,-0.06344,-0.04392,0.00244,0.02928,-0.0244,-0.0732,-0.12688,-0.10248,-0.10248
-0.03904,0.07076,-0.10248,-0.08296,-0.06344,0.0122,0.02928,-0.03416,-0.08784,-0.1464,-0.11712,-0.10736
-0.04392,0.08052,-0.11712,-0.09516,-0.0732,0.01464,0.02928,-0.04392,-0.10736,-0.16592,-0.13664,-0.11712
-0.0488,0.08296,-0.11712,-0.09272,-0.06832,0.00976,0.03416,-0.05856,-0.122,-0.18056,-0.15128,-0.12688
-0.0488,0.0854,-0.122,-0.0976,-0.0732,0.0122,0.04392,-0.06832,-0.13176,-0.1952,-0.16104,-0.13664
-0.05856,0.09272,-0.12688,-0.0976,-0.06832,0.00488,0.04392,-0.0732,-0.14152,-0.20008,-0.16592,-0.13664
-0.05856,0.09272,-0.12688,-0.0976,-0.06832,0.00488,0.03904,-0.0732,-0.15128,-0.20008,-0.1708,-0.14152
-0.06344,0.09516,-0.12688,-0.09516,-0.06344,0,0.03904,-0.0732,-0.15128,-0.20984,-0.16592,-0.14152
-0.06344,0.09516,-0.12688,-0.09516,-0.06344,0,0.03904,-0.08296,-0.15128,-0.21472,-0.16592,-0.1464
-0.05856,0.09516,-0.13176,-0.10248,-0.0732,0.00732,0.03416,-0.08296,-0.15616,-0.21472,-0.16592,-0.1464
-0.05856,0.09516,-0.13176,-0.10248,-0.0732,0.00732,0.02928,-0.08296,-0.15616,-0.21472,-0.16592,-0.1464
-0.05856,0.09516,-0.13176,-0.10248,-0.0732,0.00732,0.0244,-0.08296,-0.15616,-0.20984,-0.1708,-0.1464
-0.05368,0.09272,-0.13176,-0.10492,-0.07808,0.0122,0.0244,-0.08296,-0.15616,-0.20496,-0.1708,-0.15128
-0.05368,0.09272,-0.13176,-0.10492,-0.07808,0.0122,0.0244,-0.08296,-0.15616,-0.20496,-0.1708,-0.15128
-0.0488,0.09028,-0.13176,-0.10736,-0.08296,0.01708,0.0244,-0.07808,-0.15616,-0.20496,-0.16592,-0.15128
-0.0488,0.09028,-0.13176,-0.10736,-0.08296,0.01708,0.0244,-0.07808,-0.15128,-0.20496,-0.16592,-0.14152
-0.0488,0.09028,-0.13176,-0.10736,-0.08296,0.01708,0.02928,-0.0732,-0.15128,-0.20984,-0.16592,-0.14152
-0.0488,0.0854,-0.122,-0.0976,-0.0732,0.0122,0.02928,-0.0732,-0.1464,-0.20984,-0.1708,-0.14152
-0.0488,0.09028,-0.13176,-0.10736,-0.08296,0.01708,0.02928,-0.0732,-0.1464,-0.20496,-0.17568,-0.14152
-0.0488,0.09028,-0.13176,-0.10736,-0.08296,0.01708,0.0244,-0.06832,-0.1464,-0.20008,-0.1708,-0.14152
-0.0488,0.09028,-0.13176,-0.10736,-0.08296,0.01708,0.0244,-0.06344,-0.14152,-0.20008,-0.1708,-0.14152
-0.0488,0.09028,-0.13176,-0.10736,-0.08296,0.01708,0.02928,-0.06344,-0.13176,-0.20008,-0.16592,-0.14152
-0.04392,0.08784,-0.13176,-0.1098,-0.08784,0.02196,0.02928,-0.05856,-0.12688,-0.1952,-0.16104,-0.14152
-0.04392,0.08784,-0.13176,-0.1098,-0.08784,0.02196,0.02928,-0.05368,-0.122,-0.1952,-0.16104,-0.14152
-0.04392,0.08784,-0.13176,-0.1098,-0.08784,0.02196,0.02928,-0.05368,-0.122,-0.19032,-0.15616,-0.14152
-0.04392,0.08784,-0.13176,-0.1098,-0.08784,0.02196,0.02928,-0.0488,-0.11712,-0.18544,-0.15616,-0.14152
-0.04392,0.08784,-0.13176,-0.1098,-0.08784,0.02196,0.03416,-0.04392,-0.11224,-0.18056,-0.15616,-0.14152
-0.0488,0.09028,-0.13176,-0.10736,-0.08296,0.01708,0.03416,-0.03904,-0.10736,-0.17568,-0.15616,-0.14152
-0.05368,0.09272,-0.13176,-0.10492,-0.07808,0.0122,0.03416,-0.03904,-0.10736,-0.17568,-0.15616,-0.1464
-0.05368,0.09272,-0.13176,-0.10492,-0.07808,0.0122,0.03416,-0.03904,-0.10248,-0.17568,-0.15616,-0.14152
-0.05368,0.09272,-0.13176,-0.10492,-0.07808,0.0122,0.03904,-0.03904,-0.10248,-0.17568,-0.15616,-0.13664
-0.05368,0.09028,-0.12688,-0.10004,-0.0732,0.00976,0.03904,-0.03904,-0.10736,-0.17568,-0.15616,-0.13664
-0.05368,0.08784,-0.122,-0.09516,-0.06832,0.00732,0.03416,-0.03904,-0.10736,-0.17568,-0.15616,-0.13664
-0.05368,0.08784,-0.122,-0.09516,-0.06832,0.00732,0.03904,-0.03904,-0.10736,-0.1708,-0.15616,-0.13664
-0.05368,0.08784,-0.122,-0.09516,-0.06832,0.00732,0.04392,-0.03904,-0.10736,-0.16592,-0.15616,-0.13664
-0.05368,0.08784,-0.122,-0.09516,-0.06832,0.00732,0.04392,-0.03416,-0.10736,-0.16592,-0.15616,-0.13664
-0.05368,0.08784,-0.122,-0.09516,-0.06832,0.00732,0.04392,-0.02928,-0.10736,-0.1708,-0.15616,-0.13664
-0.0488,0.0854,-0.122,-0.0976,-0.0732,0.0122,0.04392,-0.02928,-0.10248,-0.1708,-0.15616,-0.13664
-0.0488,0.0854,-0.122,-0.0976,-0.0732,0.0122,0.04392,-0.03416,-0.10248,-0.1708,-0.15616,-0.13664
-0.0488,0.0854,-0.122,-0.0976,-0.0732,0.0122,0.04392,-0.03904,-0.10736,-0.1708,-0.15616,-0.13664
-0.0488,0.0854,-0.122,-0.0976,-0.0732,0.0122,0.04392,-0.03904,-0.10736,-0.17568,-0.16104,-0.13664
-0.0488,0.0854,-0.122,-0.0976,-0.0732,0.0122,0.03904,-0.04392,-0.10736,-0.17568,-0.16104,-0.13664
-0.04392,0.08296,-0.122,-0.10004,-0.07808,0.01708,0.03904,-0.04392,-0.11224,-0.17568,-0.16104,-0.13664
-0.04392,0.08296,-0.122,-0.10004,-0.07808,0.01708,0.03904,-0.04392,-0.11224,-0.18056,-0.16592,-0.13664
-0.04392,0.08296,-0.122,-0.10004,-0.07808,0.01708,0.03904,-0.0488,-0.11712,-0.18056,-0.16592,-0.13664
-0.04392,0.08296,-0.122,-0.10004,-0.07808,0.01708,0.03904,-0.0488,-0.11712,-0.18056,-0.16592,-0.13664
-0.04392,0.08296,-0.122,-0.10004,-0.07808,0.01708,0.03904,-0.05368,-0.11712,-0.18544,-0.16104,-0.13664
-0.0488,0.0854,-0.122,-0.0976,-0.0732,0.0122,0.03416,-0.05368,-0.122,-0.18544,-0.15616,-0.14152
-0.05368,0.08784,-0.122,-0.09516,-0.06832,0.00732,0.02928,-0.05368,-0.122,-0.19032,-0.15616,-0.14152
-0.05368,0.09272,-0.13176,-0.10492,-0.07808,0.0122,0.02928,-0.05856,-0.12688,-0.18544,-0.15616,-0.13664
-0.05368,0.09272,-0.13176,-0.10492,-0.07808,0.0122,0.02928,-0.05856,-0.12688,-0.18056,-0.15616,-0.13176
-0.05368,0.09028,-0.12688,-0.10004,-0.0732,0.00976,0.03416,-0.05856,-0.12688,-0.18056,-0.15616,-0.13176
-0.05368,0.09028,-0.12688,-0.10004,-0.0732,0.00976,0.03904,-0.06344,-0.13176,-0.18056,-0.16104,-0.13664
-0.05856,0.09272,-0.12688,-0.0976,-0.06832,0.00488,0.03416,-0.06344,-0.13176,-0.18544,-0.16104,-0.13664
-0.05856,0.09272,-0.12688,-0.0976,-0.06832,0.00488,0.03416,-0.06344,-0.13176,-0.18544,-0.16104,-0.13664
-0.05368,0.09028,-0.12688,-0.10004,-0.0732,0.00976,0.03416,-0.06344,-0.13176,-0.18544,-0.16104,-0.13664
-0.05368,0.09028,-0.12688,-0.10004,-0.0732,0.00976,0.03416,-0.06832,-0.13176,-0.18544,-0.16104,-0.13664
-0.05368,0.09516,-0.13664,-0.1098,-0.08296,0.01464,0.03416,-0.06832,-0.13176,-0.18544,-0.16104,-0.13664
-0.05856,0.10492,-0.15128,-0.122,-0.09272,0.01708,0.03416,-0.06832,-0.12688,-0.18544,-0.16104,-0.13664
-0.05856,0.10004,-0.14152,-0.11224,-0.08296,0.0122,0.03416,-0.06832,-0.12688,-0.18544,-0.16592,-0.14152
-0.05856,0.09516,-0.13176,-0.10248,-0.0732,0.00732,0.03416,-0.06832,-0.13176,-0.19032,-0.16592,-0.1464
-0.05856,0.09516,-0.13176,-0.10248,-0.0732,0.00732,0.03416,-0.06832,-0.13176,-0.19032,-0.16592,-0.1464
-0.05856,0.09516,-0.13176,-0.10248,-0.0732,0.00732,0.03416,-0.06832,-0.13176,-0.19032,-0.16592,-0.15128
-0.05856,0.0976,-0.13664,-0.10736,-0.07808,0.00976,0.03416,-0.06832,-0.13176,-0.19032,-0.16592,-0.1464
-0.05856,0.10004,-0.14152,-0.11224,-0.08296,0.0122,0.03416,-0.0732,-0.13176,-0.19032,-0.16592,-0.14152
-0.05856,0.10004,-0.14152,-0.11224,-0.08296,0.0122,0.03416,-0.06832,-0.13176,-0.18544,-0.16592,-0.14152
-0.05856,0.10248,-0.1464,-0.11712,-0.08784,0.01464,0.03416,-0.06344,-0.13176,-0.18056,-0.16592,-0.14152
-0.05856,0.10248,-0.1464,-0.11712,-0.08784,0.01464,0.03416,-0.06344,-0.13176,-0.18056,-0.16592,-0.14152
-0.05856,0.10004,-0.14152,-0.11224,-0.08296,0.0122,0.03416,-0.06344,-0.13176,-0.18056,-0.16592,-0.14152
-0.05856,0.0976,-0.13664,-0.10736,-0.07808,0.00976,0.03416,-0.06344,-0.13176,-0.18056,-0.16592,-0.14152
-0.05856,0.0976,-0.13664,-0.10736,-0.07808,0.00976,0.03416,-0.06344,-0.13176,-0.18056,-0.16592,-0.14152
-0.05856,0.0976,-0.13664,-0.10736,-0.07808,0.00976,0.03904,-0.06344,-0.13176,-0.18544,-0.16592,-0.14152
-0.05856,0.0976,-0.13664,-0.10736,-0.07808,0.00976,0.03904,-0.06344,-0.13176,-0.18544,-0.16592,-0.14152
-0.05856,0.10004,-0.14152,-0.11224,-0.08296,0.0122,0.03904,-0.05856,-0.12688,-0.18056,-0.16104,-0.14152
-0.05856,0.10248,-0.1464,-0.11712,-0.08784,0.01464,0.03904,-0.05856,-0.12688,-0.17568,-0.15616,-0.1464
-0.05856,0.10248,-0.1464,-0.11712,-0.08784,0.01464,0.03416,-0.06344,-0.12688,-0.17568,-0.15616,-0.14152
-0.05856,0.10248,-0.1464,-0.11712,-0.08784,0.01464,0.02928,-0.06832,-0.12688,-0.17568,-0.15616,-0.13664
-0.05856,0.10248,-0.1464,-0.11712,-0.08784,0.01464,0.02928,-0.06832,-0.12688,-0.17568,-0.16104,-0.13664
-0.05856,0.10248,-0.1464,-0.11712,-0.08784,0.01464,0.02928,-0.06344,-0.12688,-0.17568,-0.16104,-0.13664
-0.06344,0.10492,-0.1464,-0.11468,-0.08296,0.00976,0.03416,-0.06344,-0.12688,-0.17568,-0.16592,-0.13664
-0.0732,0.1098,-0.1464,-0.1098,-0.0732,0,0.03416,-0.06344,-0.122,-0.17568,-0.16592,-0.13664
-0.0732,0.1098,-0.1464,-0.1098,-0.0732,0,0.03416,-0.06832,-0.122,-0.17568,-0.16592,-0.14152
-0.06832,0.10736,-0.1464,-0.11224,-0.07808,0.00488,0.03416,-0.06832,-0.122,-0.17568,-0.16104,-0.1464
-0.05856,0.10248,-0.1464,-0.11712,-0.08784,0.01464,0.02928,-0.06344,-0.122,-0.17568,-0.16104,-0.1464
-0.05368,0.0976,-0.14152,-0.11468,-0.08784,0.01708,0.02928,-0.06344,-0.11712,-0.1708,-0.16104,-0.1464
-0.0488,0.09272,-0.13664,-0.11224,-0.08784,0.01952,0.03416,-0.05368,-0.11224,-0.16592,-0.15128,-0.13664
-0.0488,0.09028,-0.13176,-0.10736,-0.08296,0.01708,0.03904,-0.05368,-0.11224,-0.16104,-0.15128,-0.13176
-0.05856,0.09028,-0.122,-0.09272,-0.06344,0.00244,0.03904,-0.05368,-0.11224,-0.16104,-0.1464,-0.12688
-0.05856,0.0854,-0.11224,-0.08296,-0.05368,-0.00244,0.03904,-0.05368,-0.0976,-0.15128,-0.13664,-0.11712
-0.03904,0.07076,-0.10248,-0.08296,-0.06344,0.0122,0.03416,-0.04392,-0.08784,-0.1464,-0.13664,-0.11224
-0.01952,0.05856,-0.0976,-0.08784,-0.07808,0.02928,0.03416,-0.03416,-0.08784,-0.13664,-0.13664,-0.10736
-0.01464,0.04148,-0.06832,-0.061,-0.05368,0.01952,0.0488,-0.0244,-0.06832,-0.11712,-0.122,-0.09272
-0.01464,0.03172,-0.0488,-0.04148,-0.03416,0.00976,0.06344,-0.01464,-0.0488,-0.10736,-0.11224,-0.08784
-0.01952,0.03172,-0.04392,-0.03416,-0.0244,0.00244,0.07808,-0.00976,-0.04392,-0.10248,-0.10736,-0.08296
-0.02928,0.03172,-0.03416,-0.01952,-0.00488,-0.0122,0.09272,-0.00488,-0.04392,-0.10248,-0.10248,-0.08296
-0.02928,0.03904,-0.0488,-0.03416,-0.01952,-0.00488,0.09272,-0.01464,-0.04392,-0.10248,-0.10248,-0.08296
-0.0244,0.0366,-0.0488,-0.0366,-0.0244,0,0.08296,-0.0244,-0.04392,-0.09272,-0.09272,-0.0732
-0.01952,0.03172,-0.04392,-0.03416,-0.0244,0.00244,0.06344,-0.0244,-0.03904,-0.08784,-0.08784,-0.06832
-0.01464,0.0366,-0.05856,-0.05124,-0.04392,0.01464,0.0488,-0.0244,-0.03416,-0.08784,-0.08784,-0.06344
-0.00976,0.04148,-0.0732,-0.06832,-0.06344,0.02684,0.04392,-0.0244,-0.04392,-0.0976,-0.10248,-0.07808
-0.01464,0.0488,-0.08296,-0.07564,-0.06832,0.02684,0.03904,-0.02928,-0.05856,-0.11224,-0.11224,-0.08784
-0.03416,0.06344,-0.09272,-0.07564,-0.05856,0.0122,0.03904,-0.03904,-0.07808,-0.13176,-0.12688,-0.0976
-0.04392,0.07076,-0.0976,-0.07564,-0.05368,0.00488,0.03904,-0.04392,-0.07808,-0.13176,-0.12688,-0.0976
-0.05368,0.08052,-0.10736,-0.08052,-0.05368,0,0.04392,-0.0488,-0.07808,-0.13176,-0.122,-0.0976
-0.06344,0.09516,-0.12688,-0.09516,-0.06344,0,0.04392,-0.05856,-0.0976,-0.1464,-0.13664,-0.11712
-0.0732,0.11468,-0.15616,-0.11956,-0.08296,0.00488,0.04392,-0.06832,-0.11224,-0.16104,-0.15616,-0.13176
-0.0732,0.11712,-0.16104,-0.12444,-0.08784,0.00732,0.04392,-0.0732,-0.122,-0.16592,-0.15616,-0.13176
-0.07808,0.11956,-0.16104,-0.122,-0.08296,0.00244,0.03904,-0.0732,-0.122,-0.16592,-0.15616,-0.13664
-0.08296,0.12444,-0.16592,-0.12444,-0.08296,0,0.03904,-0.0732,-0.122,-0.16592,-0.15616,-0.13664
-0.08296,0.12444,-0.16592,-0.12444,-0.08296,0,0.03416,-0.0732,-0.11712,-0.16592,-0.15616,-0.13176
-0.08296,0.12444,-0.16592,-0.12444,-0.08296,0,0.03416,-0.0732,-0.11712,-0.16592,-0.15616,-0.13176
-0.08296,0.12444,-0.16592,-0.12444,-0.08296,0,0.03416,-0.0732,-0.11712,-0.16592,-0.15616,-0.13176
-0.08296,0.122,-0.16104,-0.11956,-0.07808,-0.00244,0.02928,-0.07808,-0.11712,-0.16592,-0.15616,-0.13664
-0.07808,0.11956,-0.16104,-0.122,-0.08296,0.00244,0.02928,-0.07808,-0.11712,-0.16592,-0.15616,-0.13664
-0.0732,0.11712,-0.16104,-0.12444,-0.08784,0.00732,0.03416,-0.0732,-0.11224,-0.16592,-0.15616,-0.13664
-0.0732,0.11712,-0.16104,-0.12444,-0.08784,0.00732,0.03416,-0.0732,-0.11224,-0.16592,-0.15616,-0.13664
-0.0732,0.11712,-0.16104,-0.12444,-0.08784,0.00732,0.03416,-0.0732,-0.11224,-0.16104,-0.15616,-0.13664
-0.0732,0.11956,-0.16592,-0.12932,-0.09272,0.00976,0.03416,-0.0732,-0.11712,-0.16104,-0.15128,-0.13176
-0.0732,0.11956,-0.16592,-0.12932,-0.09272,0.00976,0.04392,-0.05856,-0.10736,-0.16104,-0.15128,-0.13176
-0.06832,0.12444,-0.18056,-0.1464,-0.11224,0.02196,0.03416,-0.0488,-0.122,-0.1708,-0.16104,-0.14152
-0.06344,0.1342,-0.20496,-0.17324,-0.14152,0.03904,0.05856,0.02928,-0.08784,-0.16104,-0.16592,-0.15128
-0.0732,0.14884,-0.22448,-0.18788,-0.15128,0.03904,0.15616,0.1708,0.0244,-0.13664,-0.18056,-0.16104
-0.07808,0.12932,-0.18056,-0.14152,-0.10248,0.0122,0.20984,0.22936,0.122,-0.10248,-0.18056,-0.16592
-0.08784,0.122,-0.15616,-0.11224,-0.06832,-0.00976,0.30744,0.33184,0.26352,-0.02928,-0.15616,-0.16104
-0.01464,0.00488,0.00488,0.0122,0.01952,-0.01708,0.26352,0.30256,0.34648,0.15128,0.03416,-0.00488
0.20008,-0.26352,0.32696,0.22692,0.12688,0.0366,0.00976,0.06832,0.32208,0.47824,0.44408,0.35136
0.47336,-0.58804,0.70272,0.46604,0.22936,0.122,-0.38552,-0.244,0.27816,0.85888,0.92232,0.77104
0.85888,-1.01992,1.18096,0.75152,0.32208,0.2684,-0.97112,-0.732,0.09272,1.21512,1.45424,1.28832
1.08824,-1.31272,1.5372,0.99308,0.44896,0.31964,-1.40056,-1.14192,-0.07808,1.49816,1.86416,1.6836
0.98576,-1.42496,1.86416,1.37128,0.8784,0.05368,-1.45912,-1.32248,0.01952,1.96664,2.36192,2.05448
0.79544,-1.36396,1.93248,1.53476,1.13704,-0.1708,-1.30296,-1.1712,0.32696,2.41072,2.67912,2.196
0.70272,-1.1956,1.68848,1.33712,0.98576,-0.14152,-1.11264,-0.85888,0.54656,2.562,2.67424,2.074
0.58072,-0.92476,1.2688,0.97844,0.68808,-0.05368,-0.83936,-0.55144,0.61976,2.34728,2.33264,1.7324
0.35624,-0.52704,0.69784,0.51972,0.3416,0.00732,-0.48312,-0.28304,0.40992,1.44448,1.37616,1.01992
0.15616,-0.22204,0.28792,0.20984,0.13176,0.0122,-0.22448,-0.122,0.22936,0.72712,0.61488,0.44408
0.0732,-0.09272,0.11224,0.07564,0.03904,0.01708,-0.12688,-0.08784,0.0488,0.31232,0.28304,0.20008
0.01464,-0.02684,0.03904,0.03172,0.0244,-0.00488,-0.06344,-0.05856,0.01952,0.15616,0.15616,0.10736
0.00976,0.00244,-0.01464,-0.01952,-0.0244,0.01708,-0.01464,-0.01464,0.03904,0.12688,0.10736,0.06832
0.00976,0.02196,-0.05368,-0.05856,-0.06344,0.0366,0.00976,0.01952,0.02928,0.07808,0.05856,0.03416
-0.00488,0.04148,-0.07808,-0.07564,-0.0732,0.03416,0.01952,0.03416,0.01464,0.03904,0.0244,-0.00976
-0.0244,0.05856,-0.09272,-0.08052,-0.06832,0.02196,0.03904,0.03416,0.01464,0.0244,-0.01464,-0.03416
-0.04392,0.07564,-0.10736,-0.0854,-0.06344,0.00976,0.06344,0.03904,0.00976,-0.01464,-0.04392,-0.05856
-0.0488,0.0854,-0.122,-0.0976,-0.0732,0.0122,0.0732,0.0488,0,-0.0488,-0.06344,-0.0732
-0.0488,0.09272,-0.13664,-0.11224,-0.08784,0.01952,0.0732,0.05856,0,-0.05368,-0.0732,-0.07808
-0.05368,0.0976,-0.14152,-0.11468,-0.08784,0.01708,0.07808,0.05856,0.00488,-0.05856,-0.08296,-0.08784
-0.05368,0.10248,-0.15128,-0.12444,-0.0976,0.02196,0.08784,0.05856,0.00488,-0.06832,-0.09272,-0.0976
-0.05856,0.10492,-0.15128,-0.122,-0.09272,0.01708,0.09272,0.06344,0,-0.07808,-0.10248,-0.0976
-0.05856,0.10492,-0.15128,-0.122,-0.09272,0.01708,0.09272,0.0732,0,-0.07808,-0.10248,-0.0976
-0.05856,0.10492,-0.15128,-0.122,-0.09272,0.01708,0.0976,0.0732,0.00488,-0.07808,-0.0976,-0.0976
-0.05856,0.10492,-0.15128,-0.122,-0.09272,0.01708,0.0976,0.07808,0.01464,-0.0732,-0.0976,-0.09272
-0.05856,0.10248,-0.1464,-0.11712,-0.08784,0.01464,0.0976,0.08296,0.01464,-0.0732,-0.0976,-0.09272
-0.05856,0.10492,-0.15128,-0.122,-0.09272,0.01708,0.0976,0.08784,0.01464,-0.0732,-0.0976,-0.09272
-0.05368,0.10736,-0.16104,-0.1342,-0.10736,0.02684,0.10248,0.09272,0.0244,-0.06344,-0.0976,-0.0976
-0.05368,0.10736,-0.16104,-0.1342,-0.10736,0.02684,0.0976,0.09272,0.02928,-0.06344,-0.09272,-0.0976
-0.05368,0.10492,-0.15616,-0.12932,-0.10248,0.0244,0.0976,0.10248,0.03904,-0.05856,-0.09272,-0.09272
-0.05368,0.10248,-0.15128,-0.12444,-0.0976,0.02196,0.0976,0.10736,0.04392,-0.0488,-0.08784,-0.08784
-0.05368,0.0976,-0.14152,-0.11468,-0.08784,0.01708,0.0976,0.11224,0.04392,-0.04392,-0.08784,-0.08784
-0.0488,0.09516,-0.14152,-0.11712,-0.09272,0.02196,0.0976,0.11712,0.05368,-0.04392,-0.07808,-0.08784
-0.04392,0.09272,-0.14152,-0.11956,-0.0976,0.02684,0.0976,0.12688,0.05856,-0.03416,-0.06832,-0.07808
-0.04392,0.09516,-0.1464,-0.12444,-0.10248,0.02928,0.0976,0.13664,0.06344,-0.03416,-0.06832,-0.07808
-0.03904,0.09272,-0.1464,-0.12688,-0.10736,0.03416,0.10248,0.14152,0.0732,-0.02928,-0.06832,-0.07808
-0.03416,0.08784,-0.14152,-0.12444,-0.10736,0.0366,0.10248,0.1464,0.07808,-0.0244,-0.05856,-0.07808
-0.02928,0.0854,-0.14152,-0.12688,-0.11224,0.04148,0.10248,0.15128,0.08296,-0.01464,-0.05856,-0.07808
-0.02928,0.08052,-0.13176,-0.11712,-0.10248,0.0366,0.10248,0.15616,0.0976,-0.00488,-0.05368,-0.06832
-0.0244,0.07808,-0.13176,-0.11956,-0.10736,0.04148,0.10248,0.16592,0.10736,0.00488,-0.04392,-0.05856
-0.0244,0.07564,-0.12688,-0.11468,-0.10248,0.03904,0.10248,0.17568,0.12688,0.01952,-0.03416,-0.05368
-0.0244,0.07564,-0.12688,-0.11468,-0.10248,0.03904,0.10248,0.19032,0.14152,0.03416,-0.02928,-0.0488
-0.01464,0.06832,-0.122,-0.11468,-0.10736,0.04636,0.10736,0.20496,0.15616,0.03904,-0.0244,-0.04392
-0.01464,0.06588,-0.11712,-0.1098,-0.10248,0.04392,0.10736,0.21472,0.16592,0.0488,-0.00976,-0.03416
-0.01464,0.06344,-0.11224,-0.10492,-0.0976,0.04148,0.11224,0.22936,0.18056,0.06344,-0.00488,-0.02928
-0.00488,0.05856,-0.11224,-0.1098,-0.10736,0.05124,0.11712,0.25376,0.1952,0.07808,0.00488,-0.02928
0,0.0488,-0.0976,-0.0976,-0.0976,0.0488,0.11712,0.2684,0.2196,0.0976,0.01952,-0.01952
0.00488,0.04392,-0.09272,-0.09516,-0.0976,0.05124,0.122,0.2928,0.23912,0.11712,0.03416,-0.00976
0.00976,0.03904,-0.08784,-0.09272,-0.0976,0.05368,0.11712,0.30744,0.25864,0.13664,0.05856,0.00488
0.01464,0.02684,-0.06832,-0.07564,-0.08296,0.0488,0.11224,0.32696,0.28304,0.15616,0.06832,0.01464
0.0244,0.01464,-0.05368,-0.06588,-0.07808,0.05124,0.11224,0.34648,0.30256,0.18056,0.08296,0.02928
0.02928,0.00488,-0.03904,-0.05368,-0.06832,0.0488,0.11224,0.37088,0.33672,0.20984,0.10736,0.04392
0.03904,-0.00976,-0.01952,-0.03904,-0.05856,0.0488,0.11712,0.40016,0.37088,0.23424,0.12688,0.06344
0.04392,-0.01708,-0.00976,-0.03172,-0.05368,0.0488,0.122,0.42456,0.40504,0.26352,0.1464,0.08296
0.05368,-0.02928,0.00488,-0.02196,-0.0488,0.05124,0.122,0.44896,0.4392,0.29768,0.17568,0.10248
0.06344,-0.04392,0.0244,-0.00732,-0.03904,0.05124,0.122,0.46848,0.46848,0.33184,0.1952,0.122
0.0732,-0.05856,0.04392,0.00732,-0.02928,0.05124,0.122,0.49776,0.50264,0.366,0.23424,0.1464
0.07808,-0.0732,0.06832,0.02928,-0.00976,0.04392,0.122,0.51728,0.53192,0.39528,0.25864,0.16592
0.08784,-0.08784,0.08784,0.04392,0,0.04392,0.11712,0.53192,0.5612,0.42944,0.27816,0.18544
0.0976,-0.10004,0.10248,0.05368,0.00488,0.04636,0.11712,0.54656,0.59048,0.45872,0.30256,0.20008
0.10248,-0.11224,0.122,0.07076,0.01952,0.04148,0.11712,0.56608,0.61488,0.49288,0.33672,0.22448
0.10736,-0.11956,0.13176,0.07808,0.0244,0.04148,0.10736,0.57584,0.6344,0.51728,0.35624,0.23912
0.11224,-0.1342,0.15616,0.10004,0.04392,0.03416,0.10736,0.58072,0.64904,0.5368,0.37576,0.25376
0.11224,-0.1464,0.18056,0.12444,0.06832,0.02196,0.0976,0.5856,0.66368,0.55632,0.39528,0.2684
0.122,-0.15616,0.19032,0.12932,0.06832,0.02684,0.09272,0.58072,0.66856,0.57584,0.4148,0.27816
0.12688,-0.16104,0.1952,0.13176,0.06832,0.02928,0.08784,0.5612,0.66856,0.58072,0.42456,0.28792
0.12688,-0.16836,0.20984,0.1464,0.08296,0.02196,0.07808,0.54168,0.6588,0.59048,0.42456,0.29768
0.122,-0.16836,0.21472,0.15372,0.09272,0.01464,0.07808,0.5124,0.64416,0.5856,0.42456,0.29768
0.11712,-0.16592,0.21472,0.15616,0.0976,0.00976,0.0732,0.46848,0.60512,0.56608,0.41968,0.30256
0.10248,-0.15616,0.20984,0.1586,0.10736,-0.00244,0.05856,0.42456,0.56608,0.53192,0.40016,0.2928
0.09272,-0.14396,0.1952,0.14884,0.10248,-0.00488,0.05368,0.38064,0.5124,0.488,0.37576,0.27328
0.07808,-0.12444,0.1708,0.13176,0.09272,-0.00732,0.05368,0.32696,0.45384,0.43432,0.33672,0.23912
0.06832,-0.10004,0.13176,0.0976,0.06344,0.00244,0.05368,0.27816,0.39528,0.38064,0.28792,0.20984
0.05856,-0.07564,0.09272,0.06344,0.03416,0.0122,0.04392,0.22936,0.3416,0.31232,0.244,0.18056
0.04392,-0.05856,0.0732,0.05124,0.02928,0.00732,0.04392,0.19032,0.27328,0.25376,0.1952,0.1464
0.02928,-0.0366,0.04392,0.02928,0.01464,0.00732,0.03904,0.1464,0.21472,0.1952,0.14152,0.0976
0.01952,-0.01708,0.01464,0.00488,-0.00488,0.0122,0.03904,0.10736,0.16592,0.1464,0.0976,0.0732
0.00976,0.00244,-0.01464,-0.01952,-0.0244,0.01708,0.04392,0.07808,0.122,0.09272,0.06344,0.0488
0,0.01952,-0.03904,-0.03904,-0.03904,0.01952,0.04392,0.06344,0.08784,0.05368,0.02928,0.02928
-0.00976,0.0366,-0.06344,-0.05856,-0.05368,0.02196,0.03904,0.04392,0.06344,0.01464,0,-0.00488
-0.01952,0.05124,-0.08296,-0.0732,-0.06344,0.02196,0.03904,0.0244,0.0244,-0.01464,-0.0244,-0.02928
-0.0244,0.061,-0.0976,-0.0854,-0.0732,0.0244,0.03904,0.00976,0,-0.03904,-0.03904,-0.03904
-0.03416,0.07076,-0.10736,-0.09028,-0.0732,0.01952,0.03904,0,-0.01952,-0.05856,-0.06344,-0.0488
-0.03904,0.0732,-0.10736,-0.08784,-0.06832,0.01464,0.03904,-0.00976,-0.03416,-0.0732,-0.08296,-0.05856
-0.03904,0.07564,-0.11224,-0.09272,-0.0732,0.01708,0.04392,-0.01952,-0.04392,-0.09272,-0.0976,-0.06832
-0.0488,0.0854,-0.122,-0.0976,-0.0732,0.0122,0.04392,-0.0244,-0.05368,-0.10248,-0.10736,-0.06832
-0.0488,0.09028,-0.13176,-0.10736,-0.08296,0.01708,0.03904,-0.0244,-0.06344,-0.10248,-0.11224,-0.0732
-0.05368,0.09516,-0.13664,-0.1098,-0.08296,0.01464,0.03904,-0.0244,-0.06344,-0.11224,-0.11224,-0.0732
-0.0488,0.09272,-0.13664,-0.11224,-0.08784,0.01952,0.03904,-0.03416,-0.06344,-0.122,-0.11712,-0.08296
-0.03904,0.09028,-0.14152,-0.122,-0.10248,0.03172,0.03904,-0.03416,-0.06832,-0.12688,-0.11712,-0.08784
-0.03904,0.08784,-0.13664,-0.11712,-0.0976,0.02928,0.03904,-0.03904,-0.0732,-0.12688,-0.11712,-0.08784
-0.04392,0.08784,-0.13176,-0.1098,-0.08784,0.02196,0.03416,-0.04392,-0.07808,-0.12688,-0.122,-0.08784
-0.0488,0.09028,-0.13176,-0.10736,-0.08296,0.01708,0.03904,-0.04392,-0.07808,-0.12688,-0.122,-0.09272
-0.05368,0.09272,-0.13176,-0.10492,-0.07808,0.0122,0.04392,-0.04392,-0.07808,-0.12688,-0.122,-0.09272
-0.0488,0.09272,-0.13664,-0.11224,-0.08784,0.01952,0.04392,-0.03904,-0.07808,-0.12688,-0.11712,-0.09272
-0.0488,0.09516,-0.14152,-0.11712,-0.09272,0.02196,0.04392,-0.03904,-0.0732,-0.122,-0.11712,-0.08296
-0.0488,0.0976,-0.1464,-0.122,-0.0976,0.0244,0.0488,-0.03416,-0.0732,-0.122,-0.11712,-0.08296
-0.0488,0.09516,-0.14152,-0.11712,-0.09272,0.02196,0.0488,-0.03416,-0.06832,-0.122,-0.11712,-0.08296
-0.0488,0.10004,-0.15128,-0.12688,-0.10248,0.02684,0.0488,-0.03416,-0.06832,-0.11712,-0.11712,-0.08296
-0.0488,0.10004,-0.15128,-0.12688,-0.10248,0.02684,0.04392,-0.02928,-0.06832,-0.11224,-0.11224,-0.08296
-0.0488,0.0976,-0.1464,-0.122,-0.0976,0.0244,0.03904,-0.0244,-0.06344,-0.11224,-0.11224,-0.08296
-0.0488,0.09516,-0.14152,-0.11712,-0.09272,0.02196,0.03904,-0.0244,-0.05856,-0.11224,-0.11224,-0.08296
-0.04392,0.09272,-0.14152,-0.11956,-0.0976,0.02684,0.03904,-0.01952,-0.06344,-0.11224,-0.11224,-0.08296
-0.04392,0.09272,-0.14152,-0.11956,-0.0976,0.02684,0.03904,-0.01464,-0.06344,-0.11712,-0.11224,-0.08296
-0.04392,0.09272,-0.14152,-0.11956,-0.0976,0.02684,0.03904,-0.01464,-0.06344,-0.11224,-0.10736,-0.07808
-0.04392,0.09272,-0.14152,-0.11956,-0.0976,0.02684,0.03904,-0.00976,-0.05856,-0.11224,-0.10736,-0.0732
-0.04392,0.09516,-0.1464,-0.12444,-0.10248,0.02928,0.04392,-0.00488,-0.05368,-0.10736,-0.10736,-0.0732
-0.04392,0.0976,-0.15128,-0.12932,-0.10736,0.03172,0.04392,0,-0.0488,-0.0976,-0.10736,-0.0732
-0.04392,0.0976,-0.15128,-0.12932,-0.10736,0.03172,0.04392,0,-0.04392,-0.0976,-0.10736,-0.07808
-0.04392,0.0976,-0.15128,-0.12932,-0.10736,0.03172,0.04392,0,-0.03416,-0.0976,-0.10736,-0.07808
-0.03904,0.09028,-0.14152,-0.122,-0.10248,0.03172,0.0488,0,-0.03416,-0.10248,-0.10736,-0.07808
-0.03416,0.08296,-0.13176,-0.11468,-0.0976,0.03172,0.0488,0,-0.03904,-0.10736,-0.10736,-0.07808
-0.03416,0.08296,-0.13176,-0.11468,-0.0976,0.03172,0.04392,0,-0.03904,-0.10736,-0.10736,-0.07808
-0.03416,0.08296,-0.13176,-0.11468,-0.0976,0.03172,0.04392,0,-0.03904,-0.10736,-0.10736,-0.07808
-0.03904,0.09028,-0.14152,-0.122,-0.10248,0.03172,0.04392,0,-0.03904,-0.10736,-0.10736,-0.07808
-0.04392,0.0976,-0.15128,-0.12932,-0.10736,0.03172,0.04392,0,-0.03904,-0.10736,-0.10736,-0.07808
-0.04392,0.0976,-0.15128,-0.12932,-0.10736,0.03172,0.04392,0,-0.03904,-0.11224,-0.10736,-0.07808
-0.03904,0.09516,-0.15128,-0.13176,-0.11224,0.0366,0.04392,0,-0.03904,-0.11224,-0.10736,-0.07808
-0.03904,0.09516,-0.15128,-0.13176,-0.11224,0.0366,0.04392,-0.00488,-0.04392,-0.10736,-0.10736,-0.07808
-0.03904,0.09516,-0.15128,-0.13176,-0.11224,0.0366,0.04392,-0.00976,-0.0488,-0.10248,-0.10736,-0.07808
-0.03904,0.09516,-0.15128,-0.13176,-0.11224,0.0366,0.04392,-0.00976,-0.0488,-0.10736,-0.11224,-0.07808
-0.04392,0.0976,-0.15128,-0.12932,-0.10736,0.03172,0.03904,-0.01464,-0.0488,-0.10736,-0.11224,-0.07808
-0.04392,0.0976,-0.15128,-0.12932,-0.10736,0.03172,0.03904,-0.01464,-0.05368,-0.10736,-0.10736,-0.07808
-0.04392,0.0976,-0.15128,-0.12932,-0.10736,0.03172,0.03904,-0.01464,-0.05368,-0.11224,-0.10736,-0.07808
-0.04392,0.0976,-0.15128,-0.12932,-0.10736,0.03172,0.03904,-0.01952,-0.05856,-0.11224,-0.10736,-0.0732
-0.04392,0.0976,-0.15128,-0.12932,-0.10736,0.03172,0.03904,-0.01952,-0.05856,-0.11224,-0.10736,-0.06832
-0.04392,0.0976,-0.15128,-0.12932,-0.10736,0.03172,0.03904,-0.0244,-0.05856,-0.11712,-0.10248,-0.06832
-0.04392,0.0976,-0.15128,-0.12932,-0.10736,0.03172,0.03904,-0.0244,-0.06344,-0.11712,-0.10248,-0.0732
-0.04392,0.0976,-0.15128,-0.12932,-0.10736,0.03172,0.03904,-0.0244,-0.06344,-0.122,-0.11224,-0.0732
-0.04392,0.10248,-0.16104,-0.13908,-0.11712,0.0366,0.03904,-0.02928,-0.06832,-0.122,-0.11712,-0.0732
-0.04392,0.10248,-0.16104,-0.13908,-0.11712,0.0366,0.03904,-0.02928,-0.0732,-0.122,-0.11712,-0.07808
-0.04392,0.10004,-0.15616,-0.1342,-0.11224,0.03416,0.03904,-0.02928,-0.07808,-0.122,-0.11712,-0.08296
-0.04392,0.10004,-0.15616,-0.1342,-0.11224,0.03416,0.03904,-0.03416,-0.08296,-0.122,-0.122,-0.08784
-0.0488,0.10248,-0.15616,-0.13176,-0.10736,0.02928,0.03416,-0.03416,-0.08296,-0.12688,-0.122,-0.08784
-0.0488,0.10248,-0.15616,-0.13176,-0.10736,0.02928,0.03416,-0.03416,-0.08296,-0.12688,-0.122,-0.08784
-0.04392,0.10004,-0.15616,-0.1342,-0.11224,0.03416,0.03416,-0.03416,-0.08296,-0.12688,-0.122,-0.08784
-0.04392,0.0976,-0.15128,-0.12932,-0.10736,0.03172,0.03416,-0.04392,-0.08296,-0.13176,-0.122,-0.09272
-0.04392,0.09516,-0.1464,-0.12444,-0.10248,0.02928,0.03416,-0.0488,-0.08784,-0.13664,-0.122,-0.0976
-0.0488,0.10004,-0.15128,-0.12688,-0.10248,0.02684,0.03416,-0.0488,-0.08784,-0.13664,-0.122,-0.0976
-0.0488,0.10004,-0.15128,-0.12688,-0.10248,0.02684,0.03416,-0.0488,-0.08784,-0.13664,-0.12688,-0.0976
-0.0488,0.10248,-0.15616,-0.13176,-0.10736,0.02928,0.03904,-0.04392,-0.09272,-0.14152,-0.12688,-0.09272
-0.0488,0.10492,-0.16104,-0.13664,-0.11224,0.03172,0.04392,-0.03904,-0.09272,-0.14152,-0.12688,-0.08784
-0.05368,0.10736,-0.16104,-0.1342,-0.10736,0.02684,0.04392,-0.03904,-0.09272,-0.14152,-0.13176,-0.09272
-0.05856,0.1098,-0.16104,-0.13176,-0.10248,0.02196,0.04392,-0.03904,-0.09272,-0.14152,-0.13664,-0.09272
-0.05856,0.1098,-0.16104,-0.13176,-0.10248,0.02196,0.03904,-0.0488,-0.09272,-0.14152,-0.13664,-0.09272
-0.05856,0.1098,-0.16104,-0.13176,-0.10248,0.02196,0.03416,-0.05368,-0.09272,-0.14152,-0.13664,-0.09272
-0.05856,0.11224,-0.16592,-0.13664,-0.10736,0.0244,0.03416,-0.05368,-0.09272,-0.14152,-0.13664,-0.09272
-0.05856,0.11224,-0.16592,-0.13664,-0.10736,0.0244,0.03416,-0.05368,-0.09272,-0.14152,-0.13664,-0.09272
-0.05856,0.1098,-0.16104,-0.13176,-0.10248,0.02196,0.03416,-0.0488,-0.09272,-0.14152,-0.13664,-0.09272
-0.05856,0.1098,-0.16104,-0.13176,-0.10248,0.02196,0.03416,-0.04392,-0.09272,-0.14152,-0.13664,-0.09272
-0.05856,0.11224,-0.16592,-0.13664,-0.10736,0.0244,0.03416,-0.04392,-0.09272,-0.14152,-0.13664,-0.09272
-0.05856,0.11224,-0.16592,-0.13664,-0.10736,0.0244,0.03904,-0.04392,-0.09272,-0.14152,-0.13664,-0.09272
-0.05368,0.11224,-0.1708,-0.14396,-0.11712,0.03172,0.03904,-0.04392,-0.09272,-0.14152,-0.13176,-0.09272
-0.05368,0.11468,-0.17568,-0.14884,-0.122,0.03416,0.03904,-0.0488,-0.09272,-0.14152,-0.13176,-0.0976
-0.05368,0.11468,-0.17568,-0.14884,-0.122,0.03416,0.03904,-0.0488,-0.08784,-0.13664,-0.13176,-0.0976
-0.05856,0.11712,-0.17568,-0.1464,-0.11712,0.02928,0.03904,-0.0488,-0.08784,-0.13664,-0.13664,-0.0976
-0.05856,0.11712,-0.17568,-0.1464,-0.11712,0.02928,0.03904,-0.0488,-0.08784,-0.13664,-0.13664,-0.0976
-0.05856,0.11712,-0.17568,-0.1464,-0.11712,0.02928,0.03904,-0.0488,-0.08784,-0.13664,-0.13664,-0.0976
-0.05856,0.11712,-0.17568,-0.1464,-0.11712,0.02928,0.03904,-0.0488,-0.09272,-0.14152,-0.13664,-0.0976
-0.05856,0.11712,-0.17568,-0.1464,-0.11712,0.02928,0.03904,-0.04392,-0.09272,-0.14152,-0.13664,-0.0976
-0.05856,0.11712,-0.17568,-0.1464,-0.11712,0.02928,0.04392,-0.04392,-0.0976,-0.1464,-0.13664,-0.10248
-0.05368,0.11468,-0.17568,-0.14884,-0.122,0.03416,0.04392,-0.0488,-0.10248,-0.1464,-0.14152,-0.10736
-0.0488,0.11224,-0.17568,-0.15128,-0.12688,0.03904,0.04392,-0.0488,-0.10248,-0.1464,-0.14152,-0.10736
-0.04392,0.1098,-0.17568,-0.15372,-0.13176,0.04392,0.03904,-0.04392,-0.10248,-0.1464,-0.14152,-0.10736
-0.04392,0.10736,-0.1708,-0.14884,-0.12688,0.04148,0.03904,-0.04392,-0.09272,-0.14152,-0.14152,-0.10736
-0.03904,0.10248,-0.16592,-0.1464,-0.12688,0.04392,0.03904,-0.03416,-0.08296,-0.13664,-0.13176,-0.10248
-0.03904,0.10004,-0.16104,-0.14152,-0.122,0.04148,0.03904,-0.03904,-0.08296,-0.13176,-0.13176,-0.10248
-0.03904,0.09516,-0.15128,-0.13176,-0.11224,0.0366,0.03904,-0.04392,-0.08296,-0.13176,-0.12688,-0.0976
-0.02928,0.0854,-0.14152,-0.12688,-0.11224,0.04148,0.03904,-0.04392,-0.06832,-0.122,-0.11712,-0.08784
-0.01952,0.07564,-0.13176,-0.122,-0.11224,0.04636,0.03904,-0.03416,-0.05856,-0.11712,-0.11224,-0.08296
-0.00976,0.06832,-0.12688,-0.122,-0.11712,0.05368,0.04392,-0.0244,-0.05856,-0.10736,-0.10736,-0.07808
-0.00488,0.05124,-0.0976,-0.09516,-0.09272,0.04392,0.05856,-0.01464,-0.03904,-0.09272,-0.09272,-0.06344
-0.00976,0.04392,-0.07808,-0.0732,-0.06832,0.02928,0.0732,-0.00488,-0.01952,-0.08784,-0.08296,-0.05856
-0.01464,0.04392,-0.0732,-0.06588,-0.05856,0.02196,0.08296,-0.00488,-0.01952,-0.08296,-0.08296,-0.05368
-0.01952,0.03904,-0.05856,-0.0488,-0.03904,0.00976,0.09272,-0.00488,-0.02928,-0.08296,-0.08784,-0.05368
-0.01952,0.04392,-0.06832,-0.05856,-0.0488,0.01464,0.09272,-0.01464,-0.03416,-0.08296,-0.09272,-0.05368
-0.01464,0.04148,-0.06832,-0.061,-0.05368,0.01952,0.08296,-0.0244,-0.03416,-0.0732,-0.08296,-0.04392
-0.00976,0.03904,-0.06832,-0.06344,-0.05856,0.0244,0.06344,-0.0244,-0.03416,-0.0732,-0.07808,-0.04392
-0.00488,0.04636,-0.08784,-0.0854,-0.08296,0.03904,0.0488,-0.0244,-0.02928,-0.07808,-0.0732,-0.04392
-0.00488,0.05368,-0.10248,-0.10004,-0.0976,0.04636,0.0488,-0.0244,-0.03416,-0.08784,-0.08296,-0.05856
-0.01464,0.06344,-0.11224,-0.10492,-0.0976,0.04148,0.0488,-0.02928,-0.0488,-0.10248,-0.09272,-0.06832
-0.03416,0.07808,-0.122,-0.10492,-0.08784,0.02684,0.0488,-0.03904,-0.06832,-0.122,-0.10736,-0.07808
-0.04392,0.0854,-0.12688,-0.10492,-0.08296,0.01952,0.04392,-0.04392,-0.0732,-0.12688,-0.11224,-0.07808
-0.05368,0.09516,-0.13664,-0.1098,-0.08296,0.01464,0.04392,-0.0488,-0.07808,-0.13176,-0.11712,-0.07808
-0.06344,0.1098,-0.15616,-0.12444,-0.09272,0.01464,0.04392,-0.05856,-0.0976,-0.1464,-0.13664,-0.10248
-0.0732,0.12688,-0.18056,-0.14396,-0.10736,0.01708,0.04392,-0.06344,-0.10736,-0.16104,-0.15616,-0.122
-0.0732,0.12688,-0.18056,-0.14396,-0.10736,0.01708,0.04392,-0.06832,-0.11224,-0.16592,-0.15616,-0.122
-0.0732,0.12688,-0.18056,-0.14396,-0.10736,0.01708,0.03904,-0.0732,-0.11224,-0.16592,-0.15616,-0.12688
-0.0732,0.12932,-0.18544,-0.14884,-0.11224,0.01952,0.03904,-0.0732,-0.11224,-0.16592,-0.15616,-0.12688
-0.0732,0.12932,-0.18544,-0.14884,-0.11224,0.01952,0.03416,-0.0732,-0.11224,-0.16592,-0.15616,-0.122
-0.0732,0.12932,-0.18544,-0.14884,-0.11224,0.01952,0.03416,-0.06832,-0.11712,-0.16592,-0.16104,-0.122
-0.0732,0.12932,-0.18544,-0.14884,-0.11224,0.01952,0.03416,-0.06344,-0.11712,-0.16592,-0.16592,-0.122
-0.0732,0.12688,-0.18056,-0.14396,-0.10736,0.01708,0.02928,-0.06832,-0.11712,-0.16592,-0.16592,-0.12688
-0.0732,0.12688,-0.18056,-0.14396,-0.10736,0.01708,0.02928,-0.06832,-0.11712,-0.16592,-0.16592,-0.12688
-0.0732,0.12688,-0.18056,-0.14396,-0.10736,0.01708,0.03416,-0.06344,-0.11712,-0.16592,-0.16592,-0.12688
-0.0732,0.12688,-0.18056,-0.14396,-0.10736,0.01708,0.03416,-0.06344,-0.122,-0.16592,-0.16592,-0.12688
-0.0732,0.12688,-0.18056,-0.14396,-0.10736,0.01708,0.03416,-0.05856,-0.122,-0.16104,-0.16592,-0.12688
-0.0732,0.12932,-0.18544,-0.14884,-0.11224,0.01952,0.03416,-0.05368,-0.122,-0.16104,-0.16104,-0.122
-0.06832,0.12688,-0.18544,-0.15128,-0.11712,0.0244,0.0488,-0.03904,-0.10248,-0.16104,-0.16104,-0.122
-0.05856,0.12932,-0.20008,-0.1708,-0.14152,0.04148,0.05856,-0.00488,-0.09272,-0.16104,-0.16592,-0.13176
-0.05368,0.13664,-0.2196,-0.19276,-0.16592,0.05612,0.0976,0.09272,-0.03904,-0.14152,-0.16592,-0.14152
-0.05368,0.1342,-0.21472,-0.18788,-0.16104,0.05368,0.18056,0.20008,0.06344,-0.11224,-0.16592,-0.14152
-0.0488,0.09272,-0.13664,-0.11224,-0.08784,0.01952,0.20984,0.2196,0.15128,-0.06344,-0.13664,-0.12688
-0.01464,0.0244,-0.03416,-0.02684,-0.01952,0.00244,0.21472,0.2196,0.24888,0.06832,-0.0244,-0.03904
0.10248,-0.14884,0.1952,0.14396,0.09272,0.00488,0.06832,0.09272,0.28792,0.30744,0.24888,0.1952
0.34648,-0.44896,0.55144,0.3782,0.20496,0.07076,-0.27328,-0.20984,0.22936,0.64416,0.68808,0.5856
0.63928,-0.79788,0.95648,0.63684,0.3172,0.16104,-0.72712,-0.5856,0.15128,1.02968,1.18584,1.03456
0.92232,-1.1468,1.37128,0.91012,0.44896,0.23668,-1.17608,-0.98088,0.03416,1.3908,1.6836,1.49816
1.0492,-1.35176,1.65432,1.12972,0.60512,0.22204,-1.45912,-1.28344,-0.05856,1.67384,2.0496,1.82512
0.91256,-1.38348,1.8544,1.39812,0.94184,-0.01464,-1.41032,-1.30296,0.10248,2.05936,2.41072,2.06912
0.7076,-1.2444,1.7812,1.4274,1.0736,-0.183,-1.16632,-1.00528,0.44408,2.39608,2.57176,2.07888
0.61,-1.0248,1.4396,1.1346,0.8296,-0.1098,-0.9516,-0.7076,0.5368,2.2936,2.34728,1.82024
0.47336,-0.71004,0.94672,0.71004,0.47336,0,-0.65392,-0.4148,0.50264,1.83,1.8056,1.36152
0.27328,-0.36844,0.4636,0.32696,0.19032,0.04148,-0.36112,-0.20496,0.2928,1.01992,0.96136,0.73688
0.0976,-0.12444,0.15128,0.10248,0.05368,0.02196,-0.16592,-0.10736,0.11224,0.42456,0.3416,0.25864
0.02928,-0.02928,0.02928,0.01464,0,0.01464,-0.08296,-0.08296,-0.01952,0.12688,0.122,0.08784
-0.01464,0.00732,0,0.00732,0.01464,-0.01464,-0.03904,-0.05856,0,0.07808,0.08784,0.05856
-0.01952,0.03416,-0.0488,-0.03904,-0.02928,0.00488,-0.00488,-0.0244,0.00976,0.0488,0.03904,0.01952
-0.01952,0.05124,-0.08296,-0.0732,-0.06344,0.02196,0.00976,0,-0.00976,0,-0.00976,-0.01464
-0.03416,0.07076,-0.10736,-0.09028,-0.0732,0.01952,0.01952,0.01464,-0.0244,-0.03904,-0.03904,-0.05368
-0.05368,0.08784,-0.122,-0.09516,-0.06832,0.00732,0.03904,0.01464,-0.0244,-0.05368,-0.0732,-0.0732
-0.06832,0.10248,-0.13664,-0.10248,-0.06832,0,0.05856,0.01952,-0.02928,-0.08296,-0.0976,-0.09272
-0.06344,0.10492,-0.1464,-0.11468,-0.08296,0.00976,0.06344,0.02928,-0.03904,-0.10736,-0.11224,-0.10248
-0.05856,0.10492,-0.15128,-0.122,-0.09272,0.01708,0.06344,0.03904,-0.03904,-0.11224,-0.122,-0.10736
-0.06344,0.10492,-0.1464,-0.11468,-0.08296,0.00976,0.06832,0.03904,-0.03416,-0.11712,-0.13176,-0.11712
-0.06344,0.10736,-0.15128,-0.11956,-0.08784,0.0122,0.07808,0.03904,-0.03416,-0.122,-0.13664,-0.12688
-0.06832,0.1098,-0.15128,-0.11712,-0.08296,0.00732,0.08296,0.04392,-0.04392,-0.12688,-0.14152,-0.12688
-0.06832,0.1098,-0.15128,-0.11712,-0.08296,0.00732,0.08296,0.05368,-0.0488,-0.12688,-0.14152,-0.12688
-0.06832,0.1098,-0.15128,-0.11712,-0.08296,0.00732,0.08296,0.05368,-0.04392,-0.13176,-0.13664,-0.13176
-0.06832,0.1098,-0.15128,-0.11712,-0.08296,0.00732,0.07808,0.05856,-0.03416,-0.13176,-0.13664,-0.13176
-0.06832,0.10736,-0.1464,-0.11224,-0.07808,0.00488,0.07808,0.06344,-0.03416,-0.13176,-0.13664,-0.13176
-0.06832,0.10736,-0.1464,-0.11224,-0.07808,0.00488,0.07808,0.06832,-0.03416,-0.13176,-0.13664,-0.13176
-0.06344,0.10736,-0.15128,-0.11956,-0.08784,0.0122,0.08296,0.0732,-0.0244,-0.122,-0.13664,-0.13176
-0.06344,0.10736,-0.15128,-0.11956,-0.08784,0.0122,0.08296,0.0732,-0.01952,-0.122,-0.13176,-0.12688
-0.06344,0.10492,-0.1464,-0.11468,-0.08296,0.00976,0.08784,0.08296,-0.00976,-0.11712,-0.13176,-0.122
-0.06344,0.10492,-0.1464,-0.11468,-0.08296,0.00976,0.08784,0.08784,-0.00488,-0.10736,-0.12688,-0.11712
-0.06344,0.10248,-0.14152,-0.1098,-0.07808,0.00732,0.08784,0.09272,-0.00488,-0.0976,-0.13176,-0.122
-0.05856,0.10004,-0.14152,-0.11224,-0.08296,0.0122,0.08784,0.0976,0.00488,-0.09272,-0.12688,-0.12688
-0.05368,0.0976,-0.14152,-0.11468,-0.08784,0.01708,0.08784,0.10736,0.00976,-0.08296,-0.11712,-0.11712
-0.05368,0.0976,-0.14152,-0.11468,-0.08784,0.01708,0.08784,0.11712,0.01464,-0.08296,-0.11712,-0.11712
-0.0488,0.09272,-0.13664,-0.11224,-0.08784,0.01952,0.09272,0.11712,0.0244,-0.07808,-0.11712,-0.11712
-0.0488,0.09028,-0.13176,-0.10736,-0.08296,0.01708,0.09272,0.122,0.02928,-0.0732,-0.10736,-0.11712
-0.0488,0.09028,-0.13176,-0.10736,-0.08296,0.01708,0.09272,0.13176,0.03416,-0.06832,-0.10736,-0.122
-0.0488,0.0854,-0.122,-0.0976,-0.0732,0.0122,0.09272,0.13664,0.0488,-0.06344,-0.10248,-0.11712
-0.04392,0.08296,-0.122,-0.10004,-0.07808,0.01708,0.09272,0.15128,0.05856,-0.05368,-0.0976,-0.10736
-0.03904,0.07808,-0.11712,-0.0976,-0.07808,0.01952,0.09272,0.16592,0.0732,-0.04392,-0.09272,-0.10248
-0.03904,0.07808,-0.11712,-0.0976,-0.07808,0.01952,0.09272,0.18056,0.08296,-0.03416,-0.08784,-0.0976
-0.03416,0.0732,-0.11224,-0.09516,-0.07808,0.02196,0.0976,0.1952,0.0976,-0.02928,-0.08296,-0.09272
-0.03416,0.07076,-0.10736,-0.09028,-0.0732,0.01952,0.0976,0.20008,0.10736,-0.01952,-0.06344,-0.08296
-0.03416,0.06588,-0.0976,-0.08052,-0.06344,0.01464,0.0976,0.20984,0.122,-0.00488,-0.05368,-0.0732
-0.0244,0.05856,-0.09272,-0.08052,-0.06832,0.02196,0.0976,0.23424,0.13664,0.00976,-0.04392,-0.0732
-0.01952,0.0488,-0.07808,-0.06832,-0.05856,0.01952,0.0976,0.24888,0.16104,0.02928,-0.02928,-0.06832
-0.01464,0.04392,-0.0732,-0.06588,-0.05856,0.02196,0.10248,0.27328,0.18056,0.0488,-0.01464,-0.05856
-0.00976,0.03904,-0.06832,-0.06344,-0.05856,0.0244,0.10248,0.28792,0.20008,0.06832,0.00976,-0.04392
-0.00488,0.02684,-0.0488,-0.04636,-0.04392,0.01952,0.10248,0.30744,0.22448,0.08784,0.01952,-0.03416
0.00488,0.01464,-0.03416,-0.0366,-0.03904,0.02196,0.10248,0.32696,0.244,0.11224,0.03416,-0.01952
0.00976,0.00488,-0.01952,-0.0244,-0.02928,0.01952,0.10248,0.35136,0.27816,0.14152,0.05856,-0.00488
0.01952,-0.00976,0,-0.00976,-0.01952,0.01952,0.10248,0.37576,0.30744,0.16592,0.07808,0.01464
0.0244,-0.01952,0.01464,0.00244,-0.00976,0.01708,0.10248,0.39528,0.33672,0.1952,0.0976,0.03416
0.03416,-0.03416,0.03416,0.01708,0,0.01708,0.10248,0.41968,0.366,0.22448,0.12688,0.05368
0.04392,-0.0488,0.05368,0.03172,0.00976,0.01708,0.10248,0.4392,0.3904,0.25376,0.1464,0.0732
0.05368,-0.06344,0.0732,0.04636,0.01952,0.01708,0.10248,0.4636,0.42456,0.28792,0.18056,0.09272
0.05856,-0.07564,0.09272,0.06344,0.03416,0.0122,0.10248,0.47824,0.45384,0.3172,0.20008,0.10736
0.06832,-0.08784,0.10736,0.0732,0.03904,0.01464,0.0976,0.49288,0.47336,0.34648,0.2196,0.12688
0.07808,-0.10004,0.122,0.08296,0.04392,0.01708,0.0976,0.50752,0.49288,0.37088,0.244,0.1464
0.08296,-0.11224,0.14152,0.10004,0.05856,0.0122,0.0976,0.52216,0.51728,0.40016,0.27328,0.1708
0.09272,-0.12444,0.15616,0.1098,0.06344,0.01464,0.08784,0.52704,0.5368,0.41968,0.28792,0.18056
0.10248,-0.14152,0.18056,0.12932,0.07808,0.0122,0.08784,0.52704,0.54656,0.4392,0.30744,0.1952
0.10248,-0.15128,0.20008,0.14884,0.0976,0.00244,0.07808,0.52704,0.55144,0.45872,0.32696,0.20984
0.10736,-0.1586,0.20984,0.15616,0.10248,0.00244,0.0732,0.52216,0.55144,0.47336,0.3416,0.2196
0.10248,-0.15616,0.20984,0.1586,0.10736,-0.00244,0.06832,0.50264,0.55144,0.47336,0.34648,0.22448
0.0976,-0.15616,0.21472,0.16592,0.11712,-0.00976,0.05856,0.47824,0.5368,0.47336,0.34648,0.22936
0.09272,-0.15372,0.21472,0.16836,0.122,-0.01464,0.05856,0.4392,0.5124,0.45872,0.34648,0.22936
0.08784,-0.15128,0.21472,0.1708,0.12688,-0.01952,0.05368,0.3904,0.46848,0.4392,0.33672,0.22936
0.0732,-0.14152,0.20984,0.17324,0.13664,-0.03172,0.03904,0.34648,0.42944,0.40016,0.30256,0.20984
0.06344,-0.12932,0.1952,0.16348,0.13176,-0.03416,0.03416,0.30256,0.37576,0.35136,0.2684,0.18544
0.0488,-0.1098,0.1708,0.1464,0.122,-0.0366,0.03416,0.24888,0.3172,0.29768,0.22936,0.15128
0.03904,-0.08784,0.13664,0.11712,0.0976,-0.02928,0.03416,0.20008,0.25864,0.24888,0.18056,0.122
0.02928,-0.06344,0.0976,0.08296,0.06832,-0.01952,0.0244,0.15128,0.20496,0.18544,0.13664,0.09272
0.01464,-0.04392,0.0732,0.06588,0.05856,-0.02196,0.0244,0.11712,0.1464,0.12688,0.09272,0.05856
0,-0.02196,0.04392,0.04392,0.04392,-0.02196,0.01952,0.08296,0.0976,0.06832,0.04392,0.00976
-0.00976,-0.00244,0.01464,0.01952,0.0244,-0.01708,0.01952,0.0488,0.0488,0.0244,0,-0.01464
-0.01952,0.01708,-0.01464,-0.00488,0.00488,-0.0122,0.0244,0.01952,0.00488,-0.0244,-0.03416,-0.03904
-0.02928,0.03172,-0.03416,-0.01952,-0.00488,-0.0122,0.0244,0.00488,-0.02928,-0.05856,-0.06832,-0.05856
-0.03904,0.04636,-0.05368,-0.03416,-0.01464,-0.0122,0.01952,-0.01464,-0.05368,-0.09272,-0.0976,-0.09272
-0.0488,0.061,-0.0732,-0.0488,-0.0244,-0.0122,0.01952,-0.03416,-0.08296,-0.11712,-0.122,-0.11224
-0.0488,0.06832,-0.08784,-0.06344,-0.03904,-0.00488,0.01952,-0.04392,-0.09272,-0.13664,-0.13664,-0.11712
-0.05368,0.07564,-0.0976,-0.07076,-0.04392,-0.00488,0.01952,-0.05368,-0.10736,-0.15616,-0.15616,-0.12688
-0.05856,0.07808,-0.0976,-0.06832,-0.03904,-0.00976,0.01952,-0.06832,-0.122,-0.1708,-0.1708,-0.13664
-0.05856,0.08052,-0.10248,-0.0732,-0.04392,-0.00732,0.0244,-0.07808,-0.13176,-0.18544,-0.18056,-0.1464
-0.06832,0.09028,-0.11224,-0.07808,-0.04392,-0.0122,0.0244,-0.08296,-0.14152,-0.19032,-0.18544,-0.1464
-0.06832,0.09272,-0.11712,-0.08296,-0.0488,-0.00976,0.01952,-0.08296,-0.15128,-0.19032,-0.19032,-0.15128
-0.0732,0.09516,-0.11712,-0.08052,-0.04392,-0.01464,0.01952,-0.08296,-0.15128,-0.20008,-0.19032,-0.15128
-0.0732,0.09516,-0.11712,-0.08052,-0.04392,-0.01464,0.01952,-0.09272,-0.15128,-0.20496,-0.1952,-0.15616
-0.06832,0.09272,-0.11712,-0.08296,-0.0488,-0.00976,0.01952,-0.09272,-0.15616,-0.20984,-0.1952,-0.15616
-0.06832,0.09028,-0.11224,-0.07808,-0.04392,-0.0122,0.01952,-0.09272,-0.15616,-0.21472,-0.1952,-0.15616
-0.0732,0.09272,-0.11224,-0.07564,-0.03904,-0.01708,0.00976,-0.09272,-0.16104,-0.21472,-0.20008,-0.15616
-0.0732,0.09272,-0.11224,-0.07564,-0.03904,-0.01708,0.00488,-0.09272,-0.16592,-0.21472,-0.20008,-0.16104
-0.0732,0.09272,-0.11224,-0.07564,-0.03904,-0.01708,0.00488,-0.09272,-0.16592,-0.21472,-0.20008,-0.16104
-0.06832,0.09028,-0.11224,-0.07808,-0.04392,-0.0122,0.00488,-0.08784,-0.16592,-0.21472,-0.1952,-0.16104
-0.06832,0.09272,-0.11712,-0.08296,-0.0488,-0.00976,0.00488,-0.08784,-0.16104,-0.20984,-0.1952,-0.15128
-0.06832,0.09516,-0.122,-0.08784,-0.05368,-0.00732,0.00976,-0.08296,-0.16104,-0.20984,-0.1952,-0.15128
-0.06832,0.09028,-0.11224,-0.07808,-0.04392,-0.0122,0.00976,-0.08296,-0.15616,-0.20984,-0.1952,-0.15128
-0.06832,0.09516,-0.122,-0.08784,-0.05368,-0.00732,0.00976,-0.08296,-0.15616,-0.20496,-0.1952,-0.15128
-0.06832,0.09516,-0.122,-0.08784,-0.05368,-0.00732,0.00488,-0.07808,-0.15616,-0.20008,-0.19032,-0.15128
-0.06832,0.09516,-0.122,-0.08784,-0.05368,-0.00732,0.00488,-0.0732,-0.15128,-0.20008,-0.19032,-0.15128
-0.06832,0.09516,-0.122,-0.08784,-0.05368,-0.00732,0.00976,-0.0732,-0.1464,-0.20008,-0.19032,-0.15128
-0.06344,0.09272,-0.122,-0.09028,-0.05856,-0.00244,0.00976,-0.06832,-0.1464,-0.1952,-0.19032,-0.15128
-0.06344,0.09028,-0.11712,-0.0854,-0.05368,-0.00488,0.00976,-0.06832,-0.14152,-0.1952,-0.19032,-0.15128
-0.06344,0.08784,-0.11224,-0.08052,-0.0488,-0.00732,0.00976,-0.0732,-0.14152,-0.19032,-0.18544,-0.15128
-0.06344,0.08784,-0.11224,-0.08052,-0.0488,-0.00732,0.00976,-0.06832,-0.14152,-0.19032,-0.18544,-0.15128
-0.06344,0.08784,-0.11224,-0.08052,-0.0488,-0.00732,0.01464,-0.06344,-0.14152,-0.19032,-0.18544,-0.15128
-0.06344,0.0854,-0.10736,-0.07564,-0.04392,-0.00976,0.01464,-0.05856,-0.13664,-0.18544,-0.18544,-0.15128
-0.06344,0.08296,-0.10248,-0.07076,-0.03904,-0.0122,0.01464,-0.05856,-0.13664,-0.18544,-0.18544,-0.15616
-0.06344,0.08296,-0.10248,-0.07076,-0.03904,-0.0122,0.01464,-0.05856,-0.13176,-0.18544,-0.18544,-0.15616
-0.06344,0.08296,-0.10248,-0.07076,-0.03904,-0.0122,0.01952,-0.05856,-0.13176,-0.18544,-0.18544,-0.15616
-0.05856,0.08052,-0.10248,-0.0732,-0.04392,-0.00732,0.01952,-0.05856,-0.13664,-0.18544,-0.18544,-0.15616
-0.05368,0.07808,-0.10248,-0.07564,-0.0488,-0.00244,0.01464,-0.05856,-0.13664,-0.18544,-0.18544,-0.15616
-0.05368,0.08052,-0.10736,-0.08052,-0.05368,0,0.01464,-0.05856,-0.13176,-0.18544,-0.18544,-0.15616
-0.05368,0.08296,-0.11224,-0.0854,-0.05856,0.00244,0.01464,-0.05856,-0.12688,-0.18544,-0.18544,-0.15616
-0.05856,0.0854,-0.11224,-0.08296,-0.05368,-0.00244,0.01464,-0.05856,-0.12688,-0.19032,-0.18544,-0.15616
-0.06344,0.08784,-0.11224,-0.08052,-0.0488,-0.00732,0.01464,-0.05856,-0.12688,-0.20008,-0.18544,-0.15616
-0.05856,0.0854,-0.11224,-0.08296,-0.05368,-0.00244,0.01464,-0.05856,-0.12688,-0.20008,-0.18544,-0.15616
-0.05856,0.0854,-0.11224,-0.08296,-0.05368,-0.00244,0.01464,-0.06344,-0.13176,-0.20008,-0.18544,-0.15616
-0.05368,0.08052,-0.10736,-0.08052,-0.05368,0,0.01464,-0.06832,-0.13664,-0.20008,-0.18544,-0.15616
-0.0488,0.07564,-0.10248,-0.07808,-0.05368,0.00244,0.01464,-0.06832,-0.13664,-0.20496,-0.19032,-0.15616
-0.05368,0.07564,-0.0976,-0.07076,-0.04392,-0.00488,0.00976,-0.0732,-0.14152,-0.20496,-0.19032,-0.15616
-0.05368,0.0732,-0.09272,-0.06588,-0.03904,-0.00732,0.00976,-0.0732,-0.15128,-0.20496,-0.19032,-0.15616
-0.05368,0.0732,-0.09272,-0.06588,-0.03904,-0.00732,0.00976,-0.0732,-0.15128,-0.20984,-0.1952,-0.15616
-0.05368,0.0732,-0.09272,-0.06588,-0.03904,-0.00732,0.00976,-0.07808,-0.15616,-0.20984,-0.1952,-0.15616
-0.05368,0.07564,-0.0976,-0.07076,-0.04392,-0.00488,0.00976,-0.07808,-0.15616,-0.20984,-0.1952,-0.15616
-0.05368,0.07808,-0.10248,-0.07564,-0.0488,-0.00244,0.00976,-0.08296,-0.15616,-0.21472,-0.19032,-0.15616
-0.05368,0.07808,-0.10248,-0.07564,-0.0488,-0.00244,0.00976,-0.08296,-0.16104,-0.21472,-0.19032,-0.16104
-0.05368,0.07808,-0.10248,-0.07564,-0.0488,-0.00244,0.00976,-0.08296,-0.16104,-0.2196,-0.1952,-0.16104
-0.05368,0.08296,-0.11224,-0.0854,-0.05856,0.00244,0.00976,-0.08784,-0.16592,-0.2196,-0.1952,-0.16104
-0.05368,0.08296,-0.11224,-0.0854,-0.05856,0.00244,0.00976,-0.08784,-0.16592,-0.2196,-0.1952,-0.16104
-0.05368,0.08052,-0.10736,-0.08052,-0.05368,0,0.00976,-0.08784,-0.16592,-0.2196,-0.1952,-0.16104
-0.05368,0.08052,-0.10736,-0.08052,-0.05368,0,0.00976,-0.09272,-0.1708,-0.2196,-0.20008,-0.16592
-0.05856,0.08784,-0.11712,-0.08784,-0.05856,0,0.00488,-0.09272,-0.16592,-0.22448,-0.20008,-0.16592
-0.05856,0.09272,-0.12688,-0.0976,-0.06832,0.00488,0.00488,-0.09272,-0.16104,-0.22448,-0.20008,-0.16592
-0.05368,0.0854,-0.11712,-0.09028,-0.06344,0.00488,0.00488,-0.09272,-0.16104,-0.22448,-0.20008,-0.16592
-0.05368,0.08052,-0.10736,-0.08052,-0.05368,0,0.00488,-0.0976,-0.16104,-0.22448,-0.20008,-0.16592
-0.05368,0.08052,-0.10736,-0.08052,-0.05368,0,0.00488,-0.0976,-0.16592,-0.22448,-0.20008,-0.16592
-0.05856,0.0854,-0.11224,-0.08296,-0.05368,-0.00244,0.00488,-0.0976,-0.16592,-0.22448,-0.20008,-0.16592
-0.05856,0.0854,-0.11224,-0.08296,-0.05368,-0.00244,0.00488,-0.10248,-0.16592,-0.22448,-0.20496,-0.16592
-0.05856,0.0854,-0.11224,-0.08296,-0.05368,-0.00244,0.00488,-0.10736,-0.1708,-0.22936,-0.20496,-0.16592
-0.05856,0.0854,-0.11224,-0.08296,-0.05368,-0.00244,0.00488,-0.10736,-0.17568,-0.22936,-0.20496,-0.16592
-0.05856,0.0854,-0.11224,-0.08296,-0.05368,-0.00244,0.00488,-0.10736,-0.18056,-0.22936,-0.20496,-0.1708
-0.05856,0.08296,-0.10736,-0.07808,-0.0488,-0.00488,0.00488,-0.10736,-0.18056,-0.22936,-0.20496,-0.1708
-0.05856,0.08052,-0.10248,-0.0732,-0.04392,-0.00732,0.00488,-0.11224,-0.18056,-0.22936,-0.20496,-0.1708
-0.06344,0.08296,-0.10248,-0.07076,-0.03904,-0.0122,0.00488,-0.11224,-0.18056,-0.22936,-0.20496,-0.1708
-0.06832,0.08784,-0.10736,-0.0732,-0.03904,-0.01464,0.00488,-0.11224,-0.18056,-0.22936,-0.20496,-0.1708
-0.06832,0.09028,-0.11224,-0.07808,-0.04392,-0.0122,0.00488,-0.11224,-0.18056,-0.22936,-0.20496,-0.1708
-0.06832,0.09028,-0.11224,-0.07808,-0.04392,-0.0122,0.00488,-0.11224,-0.18056,-0.22936,-0.20496,-0.1708
-0.06832,0.09028,-0.11224,-0.07808,-0.04392,-0.0122,0,-0.11224,-0.18056,-0.23424,-0.20496,-0.1708
-0.06832,0.09272,-0.11712,-0.08296,-0.0488,-0.00976,-0.00488,-0.11224,-0.18056,-0.23912,-0.20496,-0.1708
-0.06832,0.09028,-0.11224,-0.07808,-0.04392,-0.0122,0,-0.11224,-0.18056,-0.23912,-0.20496,-0.1708
-0.06832,0.08784,-0.10736,-0.0732,-0.03904,-0.01464,0,-0.11224,-0.18056,-0.23424,-0.20496,-0.1708
-0.06832,0.09272,-0.11712,-0.08296,-0.0488,-0.00976,0,-0.10736,-0.17568,-0.22936,-0.20496,-0.16592
-0.06832,0.0976,-0.12688,-0.09272,-0.05856,-0.00488,0,-0.10736,-0.17568,-0.22448,-0.20496,-0.16592
-0.06832,0.0976,-0.12688,-0.09272,-0.05856,-0.00488,0.00488,-0.10736,-0.17568,-0.22448,-0.20496,-0.16592
-0.06832,0.0976,-0.12688,-0.09272,-0.05856,-0.00488,0.00976,-0.10736,-0.17568,-0.22448,-0.20496,-0.16592
-0.06832,0.0976,-0.12688,-0.09272,-0.05856,-0.00488,0.00976,-0.10736,-0.17568,-0.22448,-0.20496,-0.1708
-0.06344,0.09516,-0.12688,-0.09516,-0.06344,0,0.00976,-0.10248,-0.17568,-0.22448,-0.20496,-0.1708
-0.06344,0.09516,-0.12688,-0.09516,-0.06344,0,0.01464,-0.10248,-0.18056,-0.22448,-0.20496,-0.17568
-0.06344,0.09516,-0.12688,-0.09516,-0.06344,0,0.01464,-0.10248,-0.18056,-0.22448,-0.20496,-0.17568
-0.06344,0.09516,-0.12688,-0.09516,-0.06344,0,0.01464,-0.10736,-0.18056,-0.22448,-0.20496,-0.17568
-0.05856,0.09272,-0.12688,-0.0976,-0.06832,0.00488,0.01464,-0.10736,-0.18056,-0.22448,-0.20008,-0.17568
-0.05856,0.09272,-0.12688,-0.0976,-0.06832,0.00488,0.00976,-0.10248,-0.17568,-0.22448,-0.20008,-0.17568
-0.06344,0.09272,-0.122,-0.09028,-0.05856,-0.00244,0.00976,-0.10248,-0.16592,-0.2196,-0.20008,-0.17568
-0.05856,0.08784,-0.11712,-0.08784,-0.05856,0,0.00976,-0.09272,-0.16104,-0.21472,-0.19032,-0.1708
-0.05856,0.0854,-0.11224,-0.08296,-0.05368,-0.00244,0.00976,-0.09272,-0.16104,-0.20984,-0.19032,-0.1708
-0.05856,0.08052,-0.10248,-0.0732,-0.04392,-0.00732,0.00976,-0.09272,-0.16592,-0.21472,-0.18544,-0.16592
-0.0488,0.07076,-0.09272,-0.06832,-0.04392,-0.00244,0.00976,-0.09272,-0.15616,-0.20984,-0.17568,-0.15616
-0.03904,0.05856,-0.07808,-0.05856,-0.03904,0,0.00976,-0.08296,-0.1464,-0.20496,-0.17568,-0.15128
-0.02928,0.0488,-0.06832,-0.05368,-0.03904,0.00488,0.01464,-0.0732,-0.1464,-0.1952,-0.17568,-0.1464
-0.0244,0.03172,-0.03904,-0.02684,-0.01464,-0.00488,0.02928,-0.06344,-0.12688,-0.18056,-0.16104,-0.13176
-0.0244,0.02196,-0.01952,-0.00732,0.00488,-0.01464,0.04392,-0.05368,-0.10736,-0.17568,-0.15128,-0.12688
-0.0244,0.02196,-0.01952,-0.00732,0.00488,-0.01464,0.05368,-0.05368,-0.10736,-0.1708,-0.15128,-0.122
-0.02928,0.02196,-0.01464,0,0.01464,-0.02196,0.06344,-0.05368,-0.11224,-0.1708,-0.15128,-0.122
-0.02928,0.03172,-0.03416,-0.01952,-0.00488,-0.0122,0.06344,-0.06344,-0.11224,-0.1708,-0.15128,-0.122
-0.0244,0.03172,-0.03904,-0.02684,-0.01464,-0.00488,0.05368,-0.0732,-0.11224,-0.16104,-0.14152,-0.11224
-0.01952,0.02928,-0.03904,-0.02928,-0.01952,0,0.02928,-0.07808,-0.11224,-0.16104,-0.13664,-0.11224
-0.01464,0.0366,-0.05856,-0.05124,-0.04392,0.01464,0.00976,-0.08296,-0.11224,-0.16592,-0.13664,-0.11224
-0.01464,0.04392,-0.0732,-0.06588,-0.05856,0.02196,0.00976,-0.08296,-0.122,-0.17568,-0.15128,-0.12688
-0.0244,0.05368,-0.08296,-0.07076,-0.05856,0.01708,0.00976,-0.08784,-0.13664,-0.19032,-0.16104,-0.13664
-0.04392,0.06588,-0.08784,-0.06588,-0.04392,0,0.00976,-0.0976,-0.15616,-0.20984,-0.17568,-0.1464
-0.05368,0.07076,-0.08784,-0.061,-0.03416,-0.00976,0.00976,-0.10248,-0.15616,-0.20984,-0.17568,-0.1464
-0.06344,0.08052,-0.0976,-0.06588,-0.03416,-0.01464,0.01464,-0.10736,-0.15616,-0.20984,-0.17568,-0.1464
-0.0732,0.09516,-0.11712,-0.08052,-0.04392,-0.01464,0.01464,-0.11712,-0.17568,-0.22448,-0.1952,-0.16592
-0.08296,0.11224,-0.14152,-0.10004,-0.05856,-0.0122,0.01464,-0.122,-0.18544,-0.23912,-0.21472,-0.18056
-0.08296,0.11224,-0.14152,-0.10004,-0.05856,-0.0122,0.01464,-0.122,-0.19032,-0.244,-0.21472,-0.18056
-0.08296,0.11224,-0.14152,-0.10004,-0.05856,-0.0122,0.00976,-0.122,-0.19032,-0.244,-0.21472,-0.18544
-0.08296,0.11468,-0.1464,-0.10492,-0.06344,-0.00976,0.00976,-0.122,-0.19032,-0.244,-0.21472,-0.18544
-0.08296,0.11468,-0.1464,-0.10492,-0.06344,-0.00976,0.00488,-0.122,-0.19032,-0.244,-0.20984,-0.18056
-0.08296,0.11468,-0.1464,-0.10492,-0.06344,-0.00976,0.00488,-0.122,-0.1952,-0.244,-0.20496,-0.18056
-0.08784,0.11956,-0.15128,-0.10736,-0.06344,-0.0122,0.00488,-0.11712,-0.1952,-0.244,-0.20496,-0.17568
-0.09272,0.122,-0.15128,-0.10492,-0.05856,-0.01708,0,-0.11712,-0.1952,-0.244,-0.20496,-0.17568
-0.09272,0.122,-0.15128,-0.10492,-0.05856,-0.01708,0,-0.11712,-0.1952,-0.244,-0.20496,-0.17568
-0.09272,0.122,-0.15128,-0.10492,-0.05856,-0.01708,0.00488,-0.11224,-0.19032,-0.244,-0.20496,-0.17568
-0.08784,0.11712,-0.1464,-0.10248,-0.05856,-0.01464,0.00976,-0.11224,-0.19032,-0.244,-0.20496,-0.17568
-0.08296,0.11224,-0.14152,-0.10004,-0.05856,-0.0122,0.01464,-0.11224,-0.19032,-0.23912,-0.20496,-0.17568
-0.08296,0.11468,-0.1464,-0.10492,-0.06344,-0.00976,0.01464,-0.10736,-0.18544,-0.23912,-0.20008,-0.17568
-0.08296,0.11468,-0.1464,-0.10492,-0.06344,-0.00976,0.0244,-0.08784,-0.16592,-0.23912,-0.20008,-0.18056
-0.07808,0.11956,-0.16104,-0.122,-0.08296,0.00244,0.02928,-0.05368,-0.16104,-0.23424,-0.20496,-0.19032
-0.0732,0.12932,-0.18544,-0.14884,-0.11224,0.01952,0.06832,0.0488,-0.10736,-0.20984,-0.20496,-0.20008
-0.0732,0.12444,-0.17568,-0.13908,-0.10248,0.01464,0.15128,0.15128,-0.00488,-0.17568,-0.20008,-0.19032
-0.06832,0.0854,-0.10248,-0.06832,-0.03416,-0.01708,0.19032,0.1708,0.08296,-0.13176,-0.18056,-0.17568
-0.00488,0,0.00488,0.00732,0.00976,-0.00732,0.16592,0.15128,0.16104,-0.00976,-0.06832,-0.07808
0.14152,-0.1952,0.24888,0.17812,0.10736,0.01708,0,0,0.18056,0.2196,0.20984,0.1708
0.38552,-0.488,0.59048,0.39772,0.20496,0.09028,-0.32208,-0.31232,0.122,0.54168,0.63928,0.55632
0.68808,-0.83692,0.98576,0.64172,0.29768,0.1952,-0.78568,-0.70272,0.04392,0.91744,1.13704,1.00528
0.96624,-1.17364,1.38104,0.89792,0.4148,0.27572,-1.21512,-1.05896,-0.05368,1.27368,1.62504,1.45912
1.08824,-1.37128,1.65432,1.1102,0.56608,0.26108,-1.4884,-1.33712,-0.13664,1.55672,1.99104,1.79096
0.96136,-1.40056,1.83976,1.35908,0.8784,0.04148,-1.42984,-1.33224,0.03416,1.91296,2.33264,2.0252
0.74664,-1.2566,1.76656,1.39324,1.01992,-0.13664,-1.15656,-0.99552,0.4148,2.2448,2.49368,2.03008
0.62464,-1.02724,1.42984,1.11752,0.8052,-0.09028,-0.94184,-0.7076,0.50264,2.13256,2.25944,1.76656
0.47336,-0.6954,0.91744,0.68076,0.44408,0.01464,-0.64416,-0.42456,0.44408,1.65432,1.68848,1.28344
0.27328,-0.37332,0.47336,0.33672,0.20008,0.0366,-0.36112,-0.22936,0.23424,0.9028,0.89792,0.6832
0.0976,-0.14396,0.19032,0.14152,0.09272,0.00244,-0.17568,-0.14152,0.05368,0.33672,0.30256,0.2196
0.02928,-0.04392,0.05856,0.04392,0.02928,0,-0.10248,-0.11224,-0.07808,0.05368,0.0732,0.04392
-0.01464,-0.00732,0.02928,0.0366,0.04392,-0.02928,-0.06344,-0.08784,-0.05856,0.02928,0.0488,0.01952
-0.01952,0.01708,-0.01464,-0.00488,0.00488,-0.0122,-0.0244,-0.05856,-0.0488,-0.00976,0,-0.01952
-0.01952,0.03172,-0.04392,-0.03416,-0.0244,0.00244,-0.00976,-0.03904,-0.06832,-0.06832,-0.0488,-0.05368
-0.03416,0.05124,-0.06832,-0.05124,-0.03416,0,0,-0.0244,-0.08296,-0.10736,-0.07808,-0.09272
-0.05368,0.06832,-0.08296,-0.05612,-0.02928,-0.0122,0.01952,-0.0244,-0.08296,-0.122,-0.11224,-0.11224
-0.06832,0.08296,-0.0976,-0.06344,-0.02928,-0.01952,0.03904,-0.01952,-0.08784,-0.1464,-0.13664,-0.12688
-0.06832,0.09028,-0.11224,-0.07808,-0.04392,-0.0122,0.04392,-0.00976,-0.0976,-0.16592,-0.15128,-0.13176
-0.06832,0.09516,-0.122,-0.08784,-0.05368,-0.00732,0.04392,0,-0.0976,-0.1708,-0.16104,-0.13664
-0.0732,0.0976,-0.122,-0.0854,-0.0488,-0.0122,0.0488,0,-0.09272,-0.17568,-0.1708,-0.1464
-0.0732,0.0976,-0.122,-0.0854,-0.0488,-0.0122,0.05856,0,-0.09272,-0.18056,-0.17568,-0.16104
-0.07808,0.09516,-0.11224,-0.0732,-0.03416,-0.02196,0.06344,0.00488,-0.0976,-0.18544,-0.18056,-0.16592
-0.07808,0.10004,-0.122,-0.08296,-0.04392,-0.01708,0.06344,0.01464,-0.0976,-0.18544,-0.17568,-0.16592
-0.07808,0.10492,-0.13176,-0.09272,-0.05368,-0.0122,0.06832,0.01464,-0.09272,-0.18544,-0.16592,-0.16592
-0.07808,0.10492,-0.13176,-0.09272,-0.05368,-0.0122,0.06832,0.01952,-0.08296,-0.18056,-0.16592,-0.16104
-0.07808,0.10248,-0.12688,-0.08784,-0.0488,-0.01464,0.06832,0.0244,-0.08296,-0.18056,-0.16592,-0.16104
-0.07808,0.10004,-0.122,-0.08296,-0.04392,-0.01708,0.06832,0.02928,-0.08296,-0.18056,-0.16592,-0.15616
-0.0732,0.0976,-0.122,-0.0854,-0.0488,-0.0122,0.0732,0.03416,-0.0732,-0.1708,-0.16592,-0.15616
-0.0732,0.09516,-0.11712,-0.08052,-0.04392,-0.01464,0.0732,0.03416,-0.06832,-0.1708,-0.16104,-0.15616
-0.0732,0.09028,-0.10736,-0.07076,-0.03416,-0.01952,0.07808,0.04392,-0.05856,-0.16592,-0.16104,-0.15128
-0.0732,0.09028,-0.10736,-0.07076,-0.03416,-0.01952,0.07808,0.0488,-0.05368,-0.15616,-0.15616,-0.1464
-0.0732,0.08784,-0.10248,-0.06588,-0.02928,-0.02196,0.07808,0.05368,-0.05368,-0.15128,-0.15616,-0.1464
-0.06832,0.08784,-0.10736,-0.0732,-0.03904,-0.01464,0.07808,0.05856,-0.04392,-0.15128,-0.15128,-0.1464
-0.06344,0.08784,-0.11224,-0.08052,-0.0488,-0.00732,0.07808,0.06832,-0.03904,-0.14152,-0.1464,-0.13664
-0.06344,0.08784,-0.11224,-0.08052,-0.0488,-0.00732,0.07808,0.07808,-0.03416,-0.14152,-0.1464,-0.13664
-0.05856,0.08296,-0.10736,-0.07808,-0.0488,-0.00488,0.08296,0.08296,-0.0244,-0.13664,-0.1464,-0.13664
-0.05368,0.08052,-0.10736,-0.08052,-0.05368,0,0.08296,0.09272,-0.01952,-0.13176,-0.13664,-0.13664
-0.0488,0.08052,-0.11224,-0.08784,-0.06344,0.00732,0.08296,0.10248,-0.01464,-0.122,-0.13664,-0.13664
-0.0488,0.07564,-0.10248,-0.07808,-0.05368,0.00244,0.08296,0.11224,0,-0.11224,-0.13176,-0.12688
-0.04392,0.0732,-0.10248,-0.08052,-0.05856,0.00732,0.08296,0.12688,0.00976,-0.10248,-0.122,-0.11712
-0.04392,0.07076,-0.0976,-0.07564,-0.05368,0.00488,0.08296,0.13664,0.0244,-0.09272,-0.11224,-0.11224
-0.04392,0.07076,-0.0976,-0.07564,-0.05368,0.00488,0.08296,0.15128,0.03416,-0.08296,-0.10736,-0.10736
-0.03416,0.06344,-0.09272,-0.07564,-0.05856,0.0122,0.08784,0.16104,0.0488,-0.07808,-0.10248,-0.10248
-0.03416,0.061,-0.08784,-0.07076,-0.05368,0.00976,0.08784,0.16592,0.05856,-0.06832,-0.08784,-0.09272
-0.03416,0.05612,-0.07808,-0.061,-0.04392,0.00488,0.09272,0.18056,0.0732,-0.05368,-0.08296,-0.08296
-0.0244,0.0488,-0.0732,-0.061,-0.0488,0.0122,0.0976,0.20496,0.08784,-0.03904,-0.0732,-0.07808
-0.01952,0.03904,-0.05856,-0.0488,-0.03904,0.00976,0.0976,0.22448,0.11224,-0.01952,-0.05856,-0.06832
-0.01464,0.03416,-0.05368,-0.04636,-0.03904,0.0122,0.10248,0.25376,0.13176,0,-0.04392,-0.05856
-0.00976,0.02928,-0.0488,-0.04392,-0.03904,0.01464,0.10248,0.2684,0.15128,0.01952,-0.01464,-0.0488
-0.00488,0.01708,-0.02928,-0.02684,-0.0244,0.00976,0.10248,0.28792,0.17568,0.03904,0,-0.04392
0.00488,0.00488,-0.01464,-0.01708,-0.01952,0.0122,0.10248,0.30744,0.1952,0.06344,0.01464,-0.02928
0.00976,-0.00488,0,-0.00488,-0.00976,0.00976,0.10248,0.33184,0.22936,0.09272,0.03904,-0.01464
0.0244,-0.02196,0.01952,0.00732,-0.00488,0.01464,0.10248,0.35624,0.25864,0.122,0.05856,0.00488
0.03416,-0.03172,0.02928,0.0122,-0.00488,0.01952,0.10248,0.37576,0.28792,0.15616,0.07808,0.0244
0.04392,-0.04392,0.04392,0.02196,0,0.02196,0.10248,0.40016,0.3172,0.18544,0.11224,0.0488
0.05368,-0.05856,0.06344,0.0366,0.00976,0.02196,0.10248,0.41968,0.3416,0.21472,0.13664,0.0732
0.06344,-0.07564,0.08784,0.05612,0.0244,0.01952,0.09272,0.44408,0.37576,0.24888,0.1708,0.09272
0.06832,-0.09272,0.11712,0.08296,0.0488,0.00976,0.08296,0.45872,0.40504,0.27816,0.19032,0.10736
0.0732,-0.10492,0.13664,0.10004,0.06344,0.00488,0.07808,0.47336,0.42456,0.30744,0.20984,0.12688
0.07808,-0.11468,0.15128,0.11224,0.0732,0.00244,0.07808,0.488,0.44408,0.33184,0.23424,0.14152
0.08296,-0.12688,0.1708,0.12932,0.08784,-0.00244,0.08296,0.50264,0.46848,0.36112,0.26352,0.16592
0.08784,-0.1342,0.18056,0.13664,0.09272,-0.00244,0.07808,0.50752,0.488,0.38064,0.27816,0.18056
0.09272,-0.14396,0.1952,0.14884,0.10248,-0.00488,0.08296,0.50752,0.49776,0.40016,0.29768,0.1952
0.09272,-0.15128,0.20984,0.16348,0.11712,-0.0122,0.07808,0.50752,0.50752,0.41968,0.3172,0.20984
0.0976,-0.1586,0.2196,0.1708,0.122,-0.0122,0.0732,0.50264,0.5124,0.43432,0.33184,0.2196
0.0976,-0.16104,0.22448,0.17568,0.12688,-0.01464,0.06832,0.48312,0.5124,0.43432,0.33672,0.22936
0.0976,-0.16592,0.23424,0.18544,0.13664,-0.01952,0.05856,0.45872,0.49776,0.43432,0.33672,0.23424
0.09272,-0.16348,0.23424,0.18788,0.14152,-0.0244,0.05856,0.42456,0.47824,0.41968,0.33672,0.22936
0.09272,-0.16348,0.23424,0.18788,0.14152,-0.0244,0.05368,0.38064,0.4392,0.40016,0.32208,0.22936
0.08296,-0.15616,0.22936,0.18788,0.1464,-0.03172,0.03904,0.33672,0.40016,0.366,0.2928,0.21472
0.0732,-0.14396,0.21472,0.17812,0.14152,-0.03416,0.02928,0.2928,0.34648,0.32208,0.2684,0.1952
0.05856,-0.12444,0.19032,0.16104,0.13176,-0.0366,0.0244,0.23912,0.28792,0.2684,0.22936,0.16104
0.04392,-0.09516,0.1464,0.12444,0.10248,-0.02928,0.0244,0.19032,0.23424,0.2196,0.18056,0.13176
0.02928,-0.06588,0.10248,0.08784,0.0732,-0.02196,0.01464,0.14152,0.18544,0.15616,0.13664,0.10248
0.01464,-0.05368,0.09272,0.0854,0.07808,-0.03172,0.01464,0.10736,0.12688,0.0976,0.09272,0.06832
0,-0.0366,0.0732,0.0732,0.0732,-0.0366,0.00976,0.06832,0.07808,0.03904,0.04392,0.01952
-0.00976,-0.01708,0.04392,0.0488,0.05368,-0.03172,0.00976,0.0244,0.02928,-0.00488,0,-0.00488
-0.01952,0.00244,0.01464,0.0244,0.03416,-0.02684,0.01464,-0.00976,-0.01464,-0.05368,-0.03416,-0.02928
-0.0244,0.01464,-0.00488,0.00732,0.01952,-0.02196,0.01952,-0.0244,-0.0488,-0.08784,-0.06832,-0.0488
-0.02928,0.02684,-0.0244,-0.00976,0.00488,-0.01708,0.01952,-0.04392,-0.0732,-0.122,-0.0976,-0.08296
-0.03904,0.04148,-0.04392,-0.0244,-0.00488,-0.01708,0.01952,-0.05856,-0.0976,-0.1464,-0.11712,-0.10248
-0.04392,0.05124,-0.05856,-0.0366,-0.01464,-0.01464,0.01952,-0.06832,-0.10736,-0.16592,-0.12688,-0.10736
-0.05368,0.06344,-0.0732,-0.04636,-0.01952,-0.01708,0.01464,-0.0732,-0.122,-0.18544,-0.1464,-0.11712
-0.05856,0.06832,-0.07808,-0.0488,-0.01952,-0.01952,0.00976,-0.07808,-0.13176,-0.20008,-0.16104,-0.12688
-0.05856,0.07076,-0.08296,-0.05368,-0.0244,-0.01708,0.01464,-0.08784,-0.14152,-0.20984,-0.1708,-0.13664
-0.06832,0.08052,-0.09272,-0.05856,-0.0244,-0.02196,0.01464,-0.09272,-0.15128,-0.20984,-0.17568,-0.13664
-0.06344,0.07808,-0.09272,-0.061,-0.02928,-0.01708,0.00976,-0.09272,-0.16592,-0.20984,-0.18056,-0.14152
-0.06344,0.07564,-0.08784,-0.05612,-0.0244,-0.01952,0.00976,-0.09272,-0.1708,-0.2196,-0.18056,-0.14152
-0.06344,0.07564,-0.08784,-0.05612,-0.0244,-0.01952,0.00976,-0.10248,-0.1708,-0.22448,-0.18056,-0.14152
-0.05856,0.07564,-0.09272,-0.06344,-0.03416,-0.0122,0.00976,-0.10248,-0.17568,-0.22448,-0.17568,-0.13664
-0.05856,0.07808,-0.0976,-0.06832,-0.03904,-0.00976,0.01464,-0.10248,-0.17568,-0.22448,-0.17568,-0.13664
-0.06344,0.08296,-0.10248,-0.07076,-0.03904,-0.0122,0.01464,-0.10248,-0.17568,-0.22448,-0.18056,-0.13664
-0.06344,0.08296,-0.10248,-0.07076,-0.03904,-0.0122,0.01464,-0.10248,-0.1708,-0.22448,-0.18544,-0.14152
-0.06344,0.08296,-0.10248,-0.07076,-0.03904,-0.0122,0.01464,-0.10248,-0.16592,-0.22448,-0.19032,-0.14152
-0.05856,0.08052,-0.10248,-0.0732,-0.04392,-0.00732,0.01464,-0.0976,-0.16592,-0.22448,-0.18544,-0.1464
-0.05856,0.08052,-0.10248,-0.0732,-0.04392,-0.00732,0.01464,-0.0976,-0.16104,-0.2196,-0.18544,-0.14152
-0.05856,0.08052,-0.10248,-0.0732,-0.04392,-0.00732,0.00976,-0.09272,-0.16104,-0.2196,-0.18544,-0.14152
-0.05856,0.07564,-0.09272,-0.06344,-0.03416,-0.0122,0,-0.09272,-0.15616,-0.2196,-0.18544,-0.14152
-0.05856,0.08052,-0.10248,-0.0732,-0.04392,-0.00732,0.00976,-0.08784,-0.15616,-0.21472,-0.18544,-0.14152
-0.05856,0.08052,-0.10248,-0.0732,-0.04392,-0.00732,0.01464,-0.07808,-0.15616,-0.20984,-0.18056,-0.14152
-0.05856,0.08296,-0.10736,-0.07808,-0.0488,-0.00488,0.01464,-0.0732,-0.15128,-0.20984,-0.17568,-0.13664
-0.05856,0.0854,-0.11224,-0.08296,-0.05368,-0.00244,0.01952,-0.0732,-0.1464,-0.20984,-0.1708,-0.13176
-0.05368,0.08296,-0.11224,-0.0854,-0.05856,0.00244,0.01952,-0.06832,-0.1464,-0.20496,-0.1708,-0.13176
-0.05368,0.08296,-0.11224,-0.0854,-0.05856,0.00244,0.01952,-0.06344,-0.14152,-0.20496,-0.1708,-0.13176
-0.05368,0.08052,-0.10736,-0.08052,-0.05368,0,0.01952,-0.06344,-0.14152,-0.20008,-0.1708,-0.13176
-0.05368,0.07808,-0.10248,-0.07564,-0.0488,-0.00244,0.01952,-0.05856,-0.13664,-0.20008,-0.17568,-0.13176
-0.05368,0.07808,-0.10248,-0.07564,-0.0488,-0.00244,0.0244,-0.05368,-0.13176,-0.20008,-0.17568,-0.13176
-0.05368,0.07808,-0.10248,-0.07564,-0.0488,-0.00244,0.0244,-0.0488,-0.12688,-0.1952,-0.17568,-0.13176
-0.05368,0.07808,-0.10248,-0.07564,-0.0488,-0.00244,0.0244,-0.0488,-0.12688,-0.19032,-0.17568,-0.13664
-0.05368,0.07808,-0.10248,-0.07564,-0.0488,-0.00244,0.0244,-0.0488,-0.122,-0.18544,-0.17568,-0.13664
-0.05368,0.07808,-0.10248,-0.07564,-0.0488,-0.00244,0.02928,-0.0488,-0.122,-0.18544,-0.17568,-0.13664
-0.05368,0.07808,-0.10248,-0.07564,-0.0488,-0.00244,0.02928,-0.0488,-0.12688,-0.18544,-0.17568,-0.13664
-0.05368,0.07808,-0.10248,-0.07564,-0.0488,-0.00244,0.0244,-0.0488,-0.122,-0.19032,-0.17568,-0.13664
-0.05368,0.07808,-0.10248,-0.07564,-0.0488,-0.00244,0.0244,-0.0488,-0.11712,-0.1952,-0.17568,-0.13664
-0.05368,0.07808,-0.10248,-0.07564,-0.0488,-0.00244,0.0244,-0.0488,-0.11712,-0.1952,-0.17568,-0.13664
-0.05368,0.07808,-0.10248,-0.07564,-0.0488,-0.00244,0.0244,-0.0488,-0.11712,-0.1952,-0.17568,-0.13664
-0.05368,0.07808,-0.10248,-0.07564,-0.0488,-0.00244,0.0244,-0.0488,-0.11712,-0.1952,-0.17568,-0.13664
-0.0488,0.07564,-0.10248,-0.07808,-0.05368,0.00244,0.0244,-0.0488,-0.11712,-0.19032,-0.17568,-0.13664
-0.0488,0.07564,-0.10248,-0.07808,-0.05368,0.00244,0.02928,-0.05368,-0.122,-0.19032,-0.17568,-0.13664
-0.0488,0.07564,-0.10248,-0.07808,-0.05368,0.00244,0.03416,-0.05856,-0.12688,-0.19032,-0.17568,-0.13664
-0.0488,0.07808,-0.10736,-0.08296,-0.05856,0.00488,0.03416,-0.05856,-0.12688,-0.1952,-0.18056,-0.13664
-0.05368,0.08296,-0.11224,-0.0854,-0.05856,0.00244,0.02928,-0.06344,-0.12688,-0.1952,-0.18056,-0.13664
-0.05368,0.08296,-0.11224,-0.0854,-0.05856,0.00244,0.02928,-0.06344,-0.13176,-0.1952,-0.18056,-0.13664
-0.05368,0.08296,-0.11224,-0.0854,-0.05856,0.00244,0.02928,-0.06344,-0.13176,-0.20008,-0.18544,-0.13664
-0.05368,0.08052,-0.10736,-0.08052,-0.05368,0,0.02928,-0.06832,-0.13664,-0.20008,-0.18544,-0.13664
-0.05368,0.07808,-0.10248,-0.07564,-0.0488,-0.00244,0.02928,-0.06832,-0.13664,-0.20008,-0.18544,-0.13664
-0.05368,0.07808,-0.10248,-0.07564,-0.0488,-0.00244,0.0244,-0.0732,-0.13664,-0.20496,-0.18056,-0.13664
-0.05368,0.07808,-0.10248,-0.07564,-0.0488,-0.00244,0.01952,-0.0732,-0.14152,-0.20496,-0.18056,-0.14152
-0.05368,0.07808,-0.10248,-0.07564,-0.0488,-0.00244,0.01952,-0.0732,-0.14152,-0.20984,-0.18544,-0.14152
-0.05368,0.08296,-0.11224,-0.0854,-0.05856,0.00244,0.01952,-0.07808,-0.1464,-0.20984,-0.18544,-0.14152
-0.05368,0.08296,-0.11224,-0.0854,-0.05856,0.00244,0.01952,-0.07808,-0.1464,-0.20984,-0.18544,-0.14152
-0.05368,0.08052,-0.10736,-0.08052,-0.05368,0,0.01952,-0.07808,-0.1464,-0.20984,-0.18544,-0.14152
-0.05368,0.08052,-0.10736,-0.08052,-0.05368,0,0.01952,-0.08296,-0.15128,-0.20496,-0.19032,-0.1464
-0.05856,0.08296,-0.10736,-0.07808,-0.0488,-0.00488,0.01464,-0.08296,-0.15128,-0.20496,-0.19032,-0.1464
-0.05856,0.0854,-0.11224,-0.08296,-0.05368,-0.00244,0.01952,-0.08296,-0.15128,-0.20496,-0.19032,-0.1464
-0.05368,0.0854,-0.11712,-0.09028,-0.06344,0.00488,0.0244,-0.08296,-0.15128,-0.20496,-0.19032,-0.1464
-0.05368,0.0854,-0.11712,-0.09028,-0.06344,0.00488,0.0244,-0.08296,-0.15128,-0.20496,-0.19032,-0.1464
-0.05368,0.0854,-0.11712,-0.09028,-0.06344,0.00488,0.0244,-0.07808,-0.15616,-0.20496,-0.19032,-0.1464
-0.05856,0.08784,-0.11712,-0.08784,-0.05856,0,0.0244,-0.07808,-0.15616,-0.20496,-0.19032,-0.1464
-0.05856,0.0854,-0.11224,-0.08296,-0.05368,-0.00244,0.0244,-0.07808,-0.15616,-0.20496,-0.1952,-0.1464
-0.05856,0.0854,-0.11224,-0.08296,-0.05368,-0.00244,0.0244,-0.07808,-0.15616,-0.20496,-0.19032,-0.14152
-0.05856,0.0854,-0.11224,-0.08296,-0.05368,-0.00244,0.0244,-0.07808,-0.15128,-0.20008,-0.18544,-0.13664
-0.05856,0.0854,-0.11224,-0.08296,-0.05368,-0.00244,0.0244,-0.07808,-0.15128,-0.20008,-0.18544,-0.14152
-0.05856,0.0854,-0.11224,-0.08296,-0.05368,-0.00244,0.0244,-0.07808,-0.15128,-0.20008,-0.18544,-0.14152
-0.05856,0.0854,-0.11224,-0.08296,-0.05368,-0.00244,0.0244,-0.08296,-0.15128,-0.20496,-0.18544,-0.14152
-0.05856,0.0854,-0.11224,-0.08296,-0.05368,-0.00244,0.0244,-0.08296,-0.15128,-0.20984,-0.18544,-0.14152
-0.05856,0.08784,-0.11712,-0.08784,-0.05856,0,0.0244,-0.08296,-0.15128,-0.20984,-0.18544,-0.14152
-0.05856,0.08784,-0.11712,-0.08784,-0.05856,0,0.0244,-0.08296,-0.15128,-0.20984,-0.18544,-0.14152
-0.05856,0.0854,-0.11224,-0.08296,-0.05368,-0.00244,0.01952,-0.08296,-0.15128,-0.20496,-0.18544,-0.14152
-0.05856,0.0854,-0.11224,-0.08296,-0.05368,-0.00244,0.01464,-0.08296,-0.15128,-0.20008,-0.18544,-0.14152
-0.05856,0.08784,-0.11712,-0.08784,-0.05856,0,0.01464,-0.08296,-0.15128,-0.20008,-0.18544,-0.13664
-0.05856,0.08784,-0.11712,-0.08784,-0.05856,0,0.01952,-0.08296,-0.15128,-0.20008,-0.18544,-0.13176
-0.05856,0.09028,-0.122,-0.09272,-0.06344,0.00244,0.01952,-0.07808,-0.1464,-0.1952,-0.18544,-0.13176
-0.05856,0.09272,-0.12688,-0.0976,-0.06832,0.00488,0.01952,-0.07808,-0.1464,-0.1952,-0.18544,-0.13664
-0.05856,0.09272,-0.12688,-0.0976,-0.06832,0.00488,0.01952,-0.07808,-0.1464,-0.1952,-0.18544,-0.13664
-0.05856,0.09272,-0.12688,-0.0976,-0.06832,0.00488,0.01952,-0.07808,-0.1464,-0.1952,-0.18544,-0.13664
-0.05856,0.09272,-0.12688,-0.0976,-0.06832,0.00488,0.01952,-0.07808,-0.1464,-0.1952,-0.18544,-0.13664
-0.05856,0.09272,-0.12688,-0.0976,-0.06832,0.00488,0.01952,-0.0732,-0.1464,-0.1952,-0.18544,-0.13664
-0.05856,0.09272,-0.12688,-0.0976,-0.06832,0.00488,0.0244,-0.0732,-0.1464,-0.1952,-0.18544,-0.13664
-0.06344,0.09516,-0.12688,-0.09516,-0.06344,0,0.0244,-0.0732,-0.14152,-0.1952,-0.18544,-0.13664
-0.06344,0.09516,-0.12688,-0.09516,-0.06344,0,0.0244,-0.07808,-0.14152,-0.1952,-0.18544,-0.13664
-0.05856,0.09272,-0.12688,-0.0976,-0.06832,0.00488,0.0244,-0.07808,-0.14152,-0.1952,-0.18056,-0.13664
-0.05368,0.08784,-0.122,-0.09516,-0.06832,0.00732,0.01952,-0.0732,-0.14152,-0.1952,-0.18056,-0.13664
-0.05368,0.08296,-0.11224,-0.0854,-0.05856,0.00244,0.01952,-0.0732,-0.13664,-0.19032,-0.18056,-0.13664
-0.0488,0.07808,-0.10736,-0.08296,-0.05856,0.00488,0.01952,-0.06344,-0.13176,-0.18544,-0.1708,-0.13176
-0.0488,0.07564,-0.10248,-0.07808,-0.05368,0.00244,0.01952,-0.06344,-0.13176,-0.18056,-0.1708,-0.13176
-0.0488,0.0732,-0.0976,-0.0732,-0.0488,0,0.01952,-0.06344,-0.13176,-0.18056,-0.16592,-0.12688
-0.03904,0.06588,-0.09272,-0.0732,-0.05368,0.00732,0.01952,-0.06344,-0.11712,-0.1708,-0.15616,-0.11712
-0.02928,0.05612,-0.08296,-0.06832,-0.05368,0.0122,0.0244,-0.05368,-0.10736,-0.16104,-0.15128,-0.10736
-0.01952,0.0488,-0.07808,-0.06832,-0.05856,0.01952,0.03416,-0.04392,-0.10736,-0.1464,-0.1464,-0.0976
-0.01464,0.03172,-0.0488,-0.04148,-0.03416,0.00976,0.0488,-0.03416,-0.08784,-0.13176,-0.13176,-0.08296
-0.01464,0.02196,-0.02928,-0.02196,-0.01464,0,0.06344,-0.0244,-0.06832,-0.12688,-0.122,-0.07808
-0.01464,0.01952,-0.0244,-0.01708,-0.00976,-0.00244,0.0732,-0.0244,-0.06344,-0.122,-0.122,-0.0732
-0.01952,0.01708,-0.01464,-0.00488,0.00488,-0.0122,0.08296,-0.0244,-0.06344,-0.122,-0.122,-0.0732
-0.01952,0.0244,-0.02928,-0.01952,-0.00976,-0.00488,0.07808,-0.03416,-0.06344,-0.122,-0.122,-0.0732
-0.01464,0.02196,-0.02928,-0.02196,-0.01464,0,0.06344,-0.04392,-0.06344,-0.11224,-0.11224,-0.06344
-0.00976,0.01952,-0.02928,-0.0244,-0.01952,0.00488,0.04392,-0.04392,-0.06344,-0.11224,-0.10736,-0.06344
-0.00488,0.02684,-0.0488,-0.04636,-0.04392,0.01952,0.02928,-0.04392,-0.06344,-0.11712,-0.10736,-0.06344
-0.00488,0.03416,-0.06344,-0.061,-0.05856,0.02684,0.02928,-0.03904,-0.06832,-0.122,-0.11712,-0.07808
-0.01464,0.04392,-0.0732,-0.06588,-0.05856,0.02196,0.02928,-0.03904,-0.07808,-0.13176,-0.122,-0.08784
-0.03416,0.05856,-0.08296,-0.06588,-0.0488,0.00732,0.02928,-0.0488,-0.0976,-0.15128,-0.13664,-0.0976
-0.04392,0.06588,-0.08784,-0.06588,-0.04392,0,0.02928,-0.05368,-0.0976,-0.15128,-0.13664,-0.0976
-0.05368,0.07564,-0.0976,-0.07076,-0.04392,-0.00488,0.03416,-0.06344,-0.0976,-0.15128,-0.13664,-0.0976
-0.06344,0.09028,-0.11712,-0.0854,-0.05368,-0.00488,0.03416,-0.07808,-0.11712,-0.16592,-0.15616,-0.11712
-0.0732,0.10736,-0.14152,-0.10492,-0.06832,-0.00244,0.03416,-0.08296,-0.12688,-0.18056,-0.17568,-0.13176
-0.0732,0.10736,-0.14152,-0.10492,-0.06832,-0.00244,0.03416,-0.08296,-0.13176,-0.18544,-0.17568,-0.13176
-0.0732,0.10736,-0.14152,-0.10492,-0.06832,-0.00244,0.03416,-0.07808,-0.13176,-0.18544,-0.17568,-0.13664
-0.0732,0.1098,-0.1464,-0.1098,-0.0732,0,0.03904,-0.0732,-0.13176,-0.18544,-0.17568,-0.13664
-0.0732,0.1098,-0.1464,-0.1098,-0.0732,0,0.03416,-0.0732,-0.13176,-0.18544,-0.17568,-0.13176
-0.0732,0.1098,-0.1464,-0.1098,-0.0732,0,0.03416,-0.0732,-0.13664,-0.18544,-0.17568,-0.13176
-0.0732,0.1098,-0.1464,-0.1098,-0.0732,0,0.03416,-0.0732,-0.13664,-0.18544,-0.17568,-0.12688
-0.0732,0.10736,-0.14152,-0.10492,-0.06832,-0.00244,0.02928,-0.07808,-0.13664,-0.18544,-0.17568,-0.12688
-0.0732,0.10736,-0.14152,-0.10492,-0.06832,-0.00244,0.02928,-0.07808,-0.13664,-0.18544,-0.17568,-0.12688
-0.0732,0.10736,-0.14152,-0.10492,-0.06832,-0.00244,0.03416,-0.0732,-0.13176,-0.18544,-0.17568,-0.12688
-0.0732,0.10736,-0.14152,-0.10492,-0.06832,-0.00244,0.03416,-0.0732,-0.13176,-0.18056,-0.17568,-0.12688
-0.0732,0.10736,-0.14152,-0.10492,-0.06832,-0.00244,0.03416,-0.0732,-0.13176,-0.1708,-0.17568,-0.12688
-0.0732,0.1098,-0.1464,-0.1098,-0.0732,0,0.03416,-0.07808,-0.13176,-0.1708,-0.1708,-0.122
-0.0732,0.1098,-0.1464,-0.1098,-0.0732,0,0.04392,-0.06832,-0.11712,-0.1708,-0.1708,-0.122
-0.06832,0.11468,-0.16104,-0.12688,-0.09272,0.0122,0.0488,-0.03416,-0.11224,-0.1708,-0.1708,-0.13176
-0.06344,0.12444,-0.18544,-0.15372,-0.122,0.02928,0.08784,0.06832,-0.05856,-0.15128,-0.16592,-0.14152
-0.06832,0.12932,-0.19032,-0.15616,-0.122,0.02684,0.17568,0.19032,0.0488,-0.122,-0.16592,-0.1464
-0.06832,0.10004,-0.13176,-0.0976,-0.06344,-0.00244,0.2196,0.22936,0.14152,-0.08296,-0.15128,-0.1464
-0.03904,0.04636,-0.05368,-0.03416,-0.01464,-0.0122,0.25376,0.27328,0.25864,0.03416,-0.06832,-0.08296
0.0732,-0.11712,0.16104,0.12444,0.08784,-0.00732,0.1464,0.18544,0.3172,0.25864,0.18056,0.13176
0.3172,-0.40992,0.50264,0.34404,0.18544,0.06588,-0.16104,-0.09272,0.25864,0.5856,0.61,0.51728
0.61976,-0.75884,0.89792,0.58804,0.27816,0.1708,-0.61,-0.44896,0.18056,0.96624,1.10776,0.96624
0.9272,-1.12728,1.32736,0.86376,0.40016,0.26352,-1.10776,-0.88816,0.03416,1.32248,1.61528,1.4396
1.07848,-1.35664,1.6348,1.09556,0.55632,0.26108,-1.44936,-1.24928,-0.0976,1.60552,2.0008,1.79096
0.95648,-1.4152,1.87392,1.39568,0.91744,0.01952,-1.4396,-1.32248,0.03904,2.01544,2.40096,2.07888
0.74664,-1.30052,1.8544,1.48108,1.10776,-0.18056,-1.21512,-1.06384,0.38552,2.40096,2.62056,2.13744
0.63928,-1.09312,1.54696,1.22732,0.90768,-0.1342,-1.0004,-0.7564,0.53192,2.38632,2.46928,1.9276
0.50264,-0.78324,1.06384,0.81252,0.5612,-0.02928,-0.70272,-0.45384,0.53192,2.00568,1.98128,1.49816
0.29768,-0.43188,0.56608,0.41724,0.2684,0.01464,-0.40016,-0.22936,0.32208,1.16632,1.10288,0.84424
0.11712,-0.17324,0.22936,0.1708,0.11224,0.00244,-0.1952,-0.11224,0.14152,0.5124,0.41968,0.32696
0.0488,-0.06832,0.08784,0.06344,0.03904,0.00488,-0.10248,-0.08296,0.00488,0.18544,0.16592,0.13176
0.00488,-0.02684,0.0488,0.04636,0.04392,-0.01952,-0.04392,-0.05856,0.01952,0.11712,0.11712,0.08784
-0.00488,0.00488,-0.00488,-0.00244,0,-0.00244,-0.00488,-0.01952,0.02928,0.08784,0.06832,0.0488
-0.00976,0.02684,-0.04392,-0.03904,-0.03416,0.0122,0.00976,0.00976,0.00976,0.03904,0.01952,0.01464
-0.0244,0.04636,-0.06832,-0.05612,-0.04392,0.00976,0.01952,0.0244,-0.00488,0,-0.00976,-0.0244
-0.04392,0.06344,-0.08296,-0.061,-0.03904,-0.00244,0.03904,0.0244,-0.00488,-0.01464,-0.04392,-0.04392
-0.05856,0.07808,-0.0976,-0.06832,-0.03904,-0.00976,0.05856,0.02928,-0.00976,-0.0488,-0.06832,-0.06344
-0.05856,0.0854,-0.11224,-0.08296,-0.05368,-0.00244,0.06344,0.03904,-0.01952,-0.07808,-0.08296,-0.0732
-0.05856,0.08784,-0.11712,-0.08784,-0.05856,0,0.06344,0.0488,-0.01952,-0.08296,-0.09272,-0.07808
-0.06344,0.08784,-0.11224,-0.08052,-0.0488,-0.00732,0.06832,0.0488,-0.01464,-0.08784,-0.10248,-0.08784
-0.06344,0.09272,-0.122,-0.09028,-0.05856,-0.00244,0.07808,0.0488,-0.01464,-0.09272,-0.10736,-0.0976
-0.06832,0.09516,-0.122,-0.08784,-0.05368,-0.00732,0.08296,0.05368,-0.01952,-0.0976,-0.11224,-0.0976
-0.06832,0.0976,-0.12688,-0.09272,-0.05856,-0.00488,0.08296,0.06344,-0.01952,-0.0976,-0.11224,-0.0976
-0.06832,0.10004,-0.13176,-0.0976,-0.06344,-0.00244,0.08784,0.06344,-0.01464,-0.0976,-0.10736,-0.0976
-0.06832,0.10004,-0.13176,-0.0976,-0.06344,-0.00244,0.08784,0.06832,-0.00488,-0.09272,-0.10736,-0.09272
-0.06832,0.0976,-0.12688,-0.09272,-0.05856,-0.00488,0.08784,0.0732,-0.00488,-0.09272,-0.10736,-0.09272
-0.06344,0.09516,-0.12688,-0.09516,-0.06344,0,0.08784,0.07808,-0.00488,-0.09272,-0.10736,-0.09272
-0.05368,0.09272,-0.13176,-0.10492,-0.07808,0.0122,0.09272,0.08296,0.00488,-0.08296,-0.10736,-0.0976
-0.05368,0.09272,-0.13176,-0.10492,-0.07808,0.0122,0.09272,0.08296,0.00976,-0.08296,-0.10248,-0.0976
-0.05368,0.09028,-0.12688,-0.10004,-0.0732,0.00976,0.0976,0.09272,0.01952,-0.07808,-0.10248,-0.09272
-0.05368,0.09028,-0.12688,-0.10004,-0.0732,0.00976,0.0976,0.0976,0.0244,-0.06832,-0.0976,-0.08784
-0.05368,0.08784,-0.122,-0.09516,-0.06832,0.00732,0.0976,0.10248,0.0244,-0.06344,-0.0976,-0.08784
-0.0488,0.0854,-0.122,-0.0976,-0.0732,0.0122,0.0976,0.10736,0.03416,-0.06344,-0.08784,-0.08784
-0.04392,0.08296,-0.122,-0.10004,-0.07808,0.01708,0.0976,0.11712,0.03904,-0.05368,-0.07808,-0.07808
-0.04392,0.08784,-0.13176,-0.1098,-0.08784,0.02196,0.0976,0.12688,0.04392,-0.05368,-0.07808,-0.07808
-0.03904,0.08784,-0.13664,-0.11712,-0.0976,0.02928,0.10248,0.13176,0.05368,-0.0488,-0.07808,-0.07808
-0.03904,0.08052,-0.122,-0.10248,-0.08296,0.02196,0.10248,0.14152,0.05856,-0.04392,-0.06832,-0.07808
-0.03904,0.07564,-0.11224,-0.09272,-0.0732,0.01708,0.10248,0.15128,0.06344,-0.03416,-0.06832,-0.07808
-0.03904,0.07076,-0.10248,-0.08296,-0.06344,0.0122,0.10248,0.15616,0.07808,-0.0244,-0.06344,-0.06832
-0.03416,0.06832,-0.10248,-0.0854,-0.06832,0.01708,0.10248,0.16592,0.08784,-0.01464,-0.05368,-0.05856
-0.02928,0.06344,-0.0976,-0.08296,-0.06832,0.01952,0.10248,0.17568,0.10736,-0.00488,-0.04392,-0.05368
-0.0244,0.061,-0.0976,-0.0854,-0.0732,0.0244,0.10248,0.19032,0.122,0.00488,-0.03904,-0.0488
-0.01464,0.05368,-0.09272,-0.0854,-0.07808,0.03172,0.10736,0.20496,0.13664,0.00976,-0.03416,-0.04392
-0.01464,0.05124,-0.08784,-0.08052,-0.0732,0.02928,0.10736,0.21472,0.1464,0.01952,-0.01952,-0.03416
-0.01464,0.05124,-0.08784,-0.08052,-0.0732,0.02928,0.10736,0.22936,0.16592,0.03904,-0.01464,-0.0244
-0.00488,0.0488,-0.09272,-0.09028,-0.08784,0.04148,0.10736,0.25376,0.18544,0.05856,-0.00488,-0.01952
0,0.03416,-0.06832,-0.06832,-0.06832,0.03416,0.10736,0.2684,0.20984,0.07808,0.00976,-0.00976
0.00488,0.0244,-0.05368,-0.05612,-0.05856,0.03172,0.11224,0.2928,0.22936,0.0976,0.0244,0
0.00976,0.01952,-0.0488,-0.05368,-0.05856,0.03416,0.11224,0.30744,0.24888,0.122,0.05368,0.01464
0.01464,0.00732,-0.02928,-0.0366,-0.04392,0.02928,0.11224,0.32696,0.27328,0.1464,0.06832,0.0244
0.0244,-0.00244,-0.01952,-0.03172,-0.04392,0.03416,0.11224,0.34648,0.29768,0.1708,0.08296,0.03904
0.02928,-0.00976,-0.00976,-0.0244,-0.03904,0.03416,0.11224,0.37088,0.33672,0.20008,0.10736,0.05368
0.03904,-0.0244,0.00976,-0.00976,-0.02928,0.03416,0.11224,0.40016,0.366,0.22448,0.12688,0.0732
0.04392,-0.03172,0.01952,-0.00244,-0.0244,0.03416,0.11224,0.42456,0.39528,0.25376,0.1464,0.09272
0.05368,-0.04392,0.03416,0.00732,-0.01952,0.0366,0.11712,0.44896,0.42944,0.28792,0.17568,0.11224
0.06344,-0.05856,0.05368,0.02196,-0.00976,0.0366,0.122,0.46848,0.45872,0.32208,0.1952,0.13176
0.0732,-0.0732,0.0732,0.0366,0,0.0366,0.122,0.49288,0.49288,0.35624,0.22936,0.15616
0.07808,-0.08784,0.0976,0.05856,0.01952,0.02928,0.122,0.50752,0.52216,0.38552,0.24888,0.17568
0.08784,-0.10248,0.11712,0.0732,0.02928,0.02928,0.11712,0.52216,0.54656,0.41968,0.2684,0.1952
0.0976,-0.11468,0.13176,0.08296,0.03416,0.03172,0.11712,0.5368,0.57096,0.44896,0.2928,0.20984
0.10248,-0.12688,0.15128,0.10004,0.0488,0.02684,0.11712,0.55144,0.59536,0.47824,0.32208,0.22936
0.10736,-0.1342,0.16104,0.10736,0.05368,0.02684,0.10736,0.55632,0.61488,0.49776,0.33672,0.23912
0.11224,-0.1464,0.18056,0.12444,0.06832,0.02196,0.10736,0.55632,0.62464,0.51728,0.35624,0.25376
0.11224,-0.15616,0.20008,0.14396,0.08784,0.0122,0.0976,0.55632,0.6344,0.5368,0.37576,0.2684
0.11712,-0.16592,0.21472,0.15616,0.0976,0.00976,0.09272,0.55632,0.63928,0.55144,0.39528,0.27816
0.11712,-0.1708,0.22448,0.16592,0.10736,0.00488,0.08784,0.54168,0.63928,0.55144,0.40504,0.28792
0.11712,-0.17568,0.23424,0.17568,0.11712,0,0.07808,0.51728,0.62464,0.55632,0.40504,0.29768
0.11224,-0.17324,0.23424,0.17812,0.122,-0.00488,0.07808,0.48312,0.60512,0.54656,0.40504,0.29768
0.10736,-0.1708,0.23424,0.18056,0.12688,-0.00976,0.0732,0.4392,0.56608,0.52704,0.39528,0.29768
0.09272,-0.16104,0.22936,0.183,0.13664,-0.02196,0.05856,0.39528,0.52704,0.49288,0.37088,0.28304
0.08296,-0.14884,0.21472,0.17324,0.13176,-0.0244,0.05368,0.35136,0.47336,0.44408,0.3416,0.26352
0.06832,-0.12932,0.19032,0.15616,0.122,-0.02684,0.05368,0.29768,0.4148,0.38552,0.29768,0.22936
0.05856,-0.1098,0.16104,0.13176,0.10248,-0.02196,0.05368,0.24888,0.35624,0.33672,0.24888,0.20008
0.0488,-0.09028,0.13176,0.10736,0.08296,-0.01708,0.04392,0.20008,0.30256,0.27328,0.20496,0.1708
0.03416,-0.0732,0.11224,0.09516,0.07808,-0.02196,0.04392,0.16592,0.23912,0.21472,0.16592,0.13664
0.01952,-0.05124,0.08296,0.0732,0.06344,-0.02196,0.03904,0.12688,0.18544,0.15616,0.122,0.08784
0.00976,-0.03172,0.05368,0.0488,0.04392,-0.01708,0.03904,0.08784,0.13664,0.10736,0.07808,0.06344
0,-0.0122,0.0244,0.0244,0.0244,-0.0122,0.04392,0.05856,0.09272,0.05368,0.04392,0.03904
-0.00976,0.00488,0,0.00488,0.00976,-0.00976,0.04392,0.04392,0.05856,0.01952,0.00488,0.01952
-0.01952,0.02196,-0.0244,-0.01464,-0.00488,-0.00732,0.03904,0.0244,0.03416,-0.01464,-0.02928,-0.01464
-0.0244,0.03416,-0.04392,-0.03172,-0.01952,-0.00244,0.03416,0.00976,0,-0.03904,-0.05368,-0.03416
-0.0244,0.04148,-0.05856,-0.04636,-0.03416,0.00488,0.02928,0,-0.01952,-0.05856,-0.06832,-0.03904
-0.03416,0.05368,-0.0732,-0.05612,-0.03904,0.00244,0.02928,-0.01464,-0.03904,-0.07808,-0.08784,-0.0488
-0.03904,0.05856,-0.07808,-0.05856,-0.03904,0,0.02928,-0.02928,-0.05368,-0.09272,-0.10248,-0.05856
-0.03904,0.061,-0.08296,-0.06344,-0.04392,0.00244,0.03416,-0.03904,-0.05856,-0.10736,-0.11224,-0.06832
-0.0488,0.07076,-0.09272,-0.06832,-0.04392,-0.00244,0.03416,-0.04392,-0.06344,-0.11224,-0.11712,-0.06832
-0.0488,0.07076,-0.09272,-0.06832,-0.04392,-0.00244,0.02928,-0.04392,-0.0732,-0.11712,-0.122,-0.0732
-0.05368,0.07076,-0.08784,-0.061,-0.03416,-0.00976,0.02928,-0.04392,-0.0732,-0.13176,-0.122,-0.0732
-0.05856,0.0732,-0.08784,-0.05856,-0.02928,-0.01464,0.02928,-0.05368,-0.07808,-0.13664,-0.12688,-0.07808
-0.05856,0.07564,-0.09272,-0.06344,-0.03416,-0.0122,0.02928,-0.05368,-0.08784,-0.13664,-0.12688,-0.07808
-0.05856,0.07808,-0.0976,-0.06832,-0.03904,-0.00976,0.03416,-0.05368,-0.08784,-0.13664,-0.12688,-0.07808
-0.06344,0.08296,-0.10248,-0.07076,-0.03904,-0.0122,0.03416,-0.05368,-0.08784,-0.13664,-0.13176,-0.07808
-0.06344,0.08784,-0.11224,-0.08052,-0.0488,-0.00732,0.03416,-0.0488,-0.08784,-0.13664,-0.13176,-0.08296
-0.06344,0.09272,-0.122,-0.09028,-0.05856,-0.00244,0.03416,-0.04392,-0.08784,-0.13664,-0.13176,-0.08296
-0.05856,0.0854,-0.11224,-0.08296,-0.05368,-0.00244,0.02928,-0.03904,-0.08784,-0.13664,-0.12688,-0.08784
-0.05856,0.08052,-0.10248,-0.0732,-0.04392,-0.00732,0.0244,-0.03904,-0.08296,-0.13176,-0.12688,-0.08296
-0.05856,0.08052,-0.10248,-0.0732,-0.04392,-0.00732,0.02928,-0.03416,-0.07808,-0.13176,-0.122,-0.08296
-0.05856,0.07564,-0.09272,-0.06344,-0.03416,-0.0122,0.02928,-0.03416,-0.06832,-0.13176,-0.11712,-0.08296
-0.05368,0.07808,-0.10248,-0.07564,-0.0488,-0.00244,0.02928,-0.03416,-0.06832,-0.12688,-0.11712,-0.08296
-0.0488,0.07564,-0.10248,-0.07808,-0.05368,0.00244,0.0244,-0.02928,-0.06832,-0.122,-0.11224,-0.08296
-0.0488,0.07564,-0.10248,-0.07808,-0.05368,0.00244,0.0244,-0.0244,-0.06344,-0.11712,-0.11224,-0.07808
-0.0488,0.07564,-0.10248,-0.07808,-0.05368,0.00244,0.02928,-0.0244,-0.05856,-0.11224,-0.11224,-0.0732
-0.04392,0.0732,-0.10248,-0.08052,-0.05856,0.00732,0.03416,-0.01952,-0.05856,-0.10736,-0.11224,-0.0732
-0.04392,0.0732,-0.10248,-0.08052,-0.05856,0.00732,0.03904,-0.01464,-0.05368,-0.10736,-0.11224,-0.0732
-0.04392,0.0732,-0.10248,-0.08052,-0.05856,0.00732,0.03904,-0.01952,-0.05368,-0.10248,-0.10736,-0.0732
-0.04392,0.0732,-0.10248,-0.08052,-0.05856,0.00732,0.03904,-0.01952,-0.0488,-0.10248,-0.10736,-0.0732
-0.04392,0.0732,-0.10248,-0.08052,-0.05856,0.00732,0.04392,-0.01464,-0.04392,-0.10248,-0.10736,-0.0732
-0.04392,0.0732,-0.10248,-0.08052,-0.05856,0.00732,0.04392,-0.00976,-0.03904,-0.0976,-0.10736,-0.0732
-0.04392,0.0732,-0.10248,-0.08052,-0.05856,0.00732,0.04392,-0.00488,-0.03904,-0.0976,-0.10248,-0.0732
-0.04392,0.0732,-0.10248,-0.08052,-0.05856,0.00732,0.04392,0,-0.03416,-0.0976,-0.0976,-0.06832
-0.04392,0.0732,-0.10248,-0.08052,-0.05856,0.00732,0.04392,0,-0.03416,-0.0976,-0.0976,-0.06832
-0.04392,0.0732,-0.10248,-0.08052,-0.05856,0.00732,0.03904,0,-0.03904,-0.0976,-0.0976,-0.06832
-0.04392,0.0732,-0.10248,-0.08052,-0.05856,0.00732,0.03416,-0.00488,-0.03904,-0.0976,-0.0976,-0.06832
-0.04392,0.0732,-0.10248,-0.08052,-0.05856,0.00732,0.03416,-0.00976,-0.03904,-0.0976,-0.0976,-0.06832
-0.04392,0.07076,-0.0976,-0.07564,-0.05368,0.00488,0.03416,-0.00976,-0.04392,-0.10248,-0.10248,-0.0732
-0.04392,0.06832,-0.09272,-0.07076,-0.0488,0.00244,0.03416,-0.00976,-0.0488,-0.10736,-0.10736,-0.07808
-0.04392,0.06832,-0.09272,-0.07076,-0.0488,0.00244,0.03416,-0.00976,-0.0488,-0.11224,-0.10736,-0.07808
-0.03904,0.06588,-0.09272,-0.0732,-0.05368,0.00732,0.03416,-0.00976,-0.0488,-0.11224,-0.10736,-0.07808
-0.03904,0.06832,-0.0976,-0.07808,-0.05856,0.00976,0.03416,-0.01464,-0.05368,-0.10736,-0.10736,-0.0732
-0.03904,0.07076,-0.10248,-0.08296,-0.06344,0.0122,0.03416,-0.01952,-0.05856,-0.10248,-0.10736,-0.06832
-0.03904,0.07076,-0.10248,-0.08296,-0.06344,0.0122,0.03416,-0.01952,-0.05856,-0.10736,-0.10736,-0.06832
-0.04392,0.0732,-0.10248,-0.08052,-0.05856,0.00732,0.02928,-0.0244,-0.05856,-0.10736,-0.10248,-0.06832
-0.04392,0.0732,-0.10248,-0.08052,-0.05856,0.00732,0.02928,-0.0244,-0.06344,-0.11224,-0.10248,-0.0732
-0.04392,0.0732,-0.10248,-0.08052,-0.05856,0.00732,0.02928,-0.0244,-0.06344,-0.122,-0.10736,-0.07808
-0.04392,0.0732,-0.10248,-0.08052,-0.05856,0.00732,0.02928,-0.02928,-0.06832,-0.122,-0.10736,-0.07808
-0.04392,0.0732,-0.10248,-0.08052,-0.05856,0.00732,0.02928,-0.02928,-0.06832,-0.122,-0.10736,-0.07808
-0.04392,0.07564,-0.10736,-0.0854,-0.06344,0.00976,0.02928,-0.03416,-0.06832,-0.122,-0.10248,-0.07808
-0.04392,0.07808,-0.11224,-0.09028,-0.06832,0.0122,0.02928,-0.03416,-0.0732,-0.11712,-0.10248,-0.08296
-0.04392,0.07808,-0.11224,-0.09028,-0.06832,0.0122,0.02928,-0.03416,-0.0732,-0.122,-0.10736,-0.08296
-0.04392,0.08296,-0.122,-0.10004,-0.07808,0.01708,0.02928,-0.03904,-0.07808,-0.122,-0.10736,-0.08296
-0.04392,0.08052,-0.11712,-0.09516,-0.0732,0.01464,0.02928,-0.03904,-0.07808,-0.122,-0.10736,-0.08296
-0.04392,0.07564,-0.10736,-0.0854,-0.06344,0.00976,0.02928,-0.03904,-0.07808,-0.122,-0.10736,-0.08296
-0.04392,0.07564,-0.10736,-0.0854,-0.06344,0.00976,0.02928,-0.04392,-0.08296,-0.122,-0.11224,-0.08296
-0.0488,0.07808,-0.10736,-0.08296,-0.05856,0.00488,0.0244,-0.04392,-0.08296,-0.12688,-0.11224,-0.07808
-0.0488,0.07808,-0.10736,-0.08296,-0.05856,0.00488,0.0244,-0.04392,-0.08296,-0.13176,-0.11224,-0.07808
-0.04392,0.07564,-0.10736,-0.0854,-0.06344,0.00976,0.0244,-0.04392,-0.08296,-0.13664,-0.11224,-0.07808
-0.04392,0.07564,-0.10736,-0.0854,-0.06344,0.00976,0.0244,-0.0488,-0.08296,-0.13664,-0.11224,-0.08296
-0.04392,0.07564,-0.10736,-0.0854,-0.06344,0.00976,0.0244,-0.0488,-0.08784,-0.13664,-0.11224,-0.08784
-0.0488,0.08052,-0.11224,-0.08784,-0.06344,0.00732,0.0244,-0.0488,-0.08784,-0.13664,-0.11224,-0.08784
-0.0488,0.08052,-0.11224,-0.08784,-0.06344,0.00732,0.0244,-0.0488,-0.08784,-0.13664,-0.11712,-0.08784
-0.0488,0.08296,-0.11712,-0.09272,-0.06832,0.00976,0.0244,-0.0488,-0.08784,-0.14152,-0.11712,-0.08784
-0.0488,0.0854,-0.122,-0.0976,-0.0732,0.0122,0.0244,-0.0488,-0.08296,-0.14152,-0.11712,-0.08784
-0.0488,0.0854,-0.122,-0.0976,-0.0732,0.0122,0.0244,-0.0488,-0.08296,-0.14152,-0.11712,-0.09272
-0.0488,0.0854,-0.122,-0.0976,-0.0732,0.0122,0.0244,-0.0488,-0.08296,-0.14152,-0.11712,-0.09272
-0.0488,0.08296,-0.11712,-0.09272,-0.06832,0.00976,0.0244,-0.05368,-0.08784,-0.14152,-0.11712,-0.09272
-0.0488,0.08052,-0.11224,-0.08784,-0.06344,0.00732,0.0244,-0.05368,-0.09272,-0.14152,-0.11712,-0.09272
-0.0488,0.08296,-0.11712,-0.09272,-0.06832,0.00976,0.0244,-0.05368,-0.09272,-0.14152,-0.11712,-0.09272
-0.0488,0.08296,-0.11712,-0.09272,-0.06832,0.00976,0.0244,-0.05368,-0.09272,-0.14152,-0.11712,-0.09272
-0.0488,0.08052,-0.11224,-0.08784,-0.06344,0.00732,0.0244,-0.05856,-0.0976,-0.14152,-0.11712,-0.09272
-0.0488,0.08296,-0.11712,-0.09272,-0.06832,0.00976,0.0244,-0.06344,-0.10248,-0.14152,-0.11712,-0.09272
-0.0488,0.08296,-0.11712,-0.09272,-0.06832,0.00976,0.0244,-0.05856,-0.10248,-0.14152,-0.11712,-0.09272
-0.05368,0.0854,-0.11712,-0.09028,-0.06344,0.00488,0.02928,-0.05856,-0.10248,-0.14152,-0.122,-0.0976
-0.0488,0.0854,-0.122,-0.0976,-0.0732,0.0122,0.02928,-0.05856,-0.0976,-0.14152,-0.122,-0.0976
-0.0488,0.08784,-0.12688,-0.10248,-0.07808,0.01464,0.02928,-0.05856,-0.0976,-0.1464,-0.12688,-0.0976
-0.0488,0.08784,-0.12688,-0.10248,-0.07808,0.01464,0.0244,-0.05856,-0.0976,-0.1464,-0.12688,-0.0976
-0.0488,0.08784,-0.12688,-0.10248,-0.07808,0.01464,0.01952,-0.05856,-0.0976,-0.1464,-0.12688,-0.0976
-0.0488,0.08784,-0.12688,-0.10248,-0.07808,0.01464,0.01952,-0.05856,-0.10248,-0.1464,-0.122,-0.0976
-0.0488,0.08784,-0.12688,-0.10248,-0.07808,0.01464,0.01952,-0.05368,-0.10248,-0.1464,-0.11712,-0.0976
-0.05368,0.09028,-0.12688,-0.10004,-0.0732,0.00976,0.0244,-0.05368,-0.10248,-0.1464,-0.11712,-0.0976
-0.05368,0.09028,-0.12688,-0.10004,-0.0732,0.00976,0.0244,-0.05856,-0.10248,-0.1464,-0.122,-0.0976
-0.0488,0.08784,-0.12688,-0.10248,-0.07808,0.01464,0.0244,-0.05856,-0.10248,-0.1464,-0.12688,-0.0976
-0.04392,0.0854,-0.12688,-0.10492,-0.08296,0.01952,0.01952,-0.05368,-0.10248,-0.1464,-0.13176,-0.0976
-0.04392,0.08296,-0.122,-0.10004,-0.07808,0.01708,0.01952,-0.05368,-0.0976,-0.14152,-0.13176,-0.0976
-0.03904,0.07808,-0.11712,-0.0976,-0.07808,0.01952,0.01952,-0.04392,-0.09272,-0.13664,-0.122,-0.09272
-0.03904,0.07808,-0.11712,-0.0976,-0.07808,0.01952,0.01952,-0.04392,-0.09272,-0.13176,-0.11712,-0.08784
-0.03904,0.07564,-0.11224,-0.09272,-0.0732,0.01708,0.01952,-0.04392,-0.09272,-0.13176,-0.10736,-0.07808
-0.02928,0.06588,-0.10248,-0.08784,-0.0732,0.02196,0.01952,-0.0488,-0.07808,-0.122,-0.0976,-0.06832
-0.01952,0.05612,-0.09272,-0.08296,-0.0732,0.02684,0.01952,-0.04392,-0.06832,-0.11712,-0.09272,-0.06344
-0.00976,0.04636,-0.08296,-0.07808,-0.0732,0.03172,0.0244,-0.03416,-0.06832,-0.10736,-0.08784,-0.06344
-0.00488,0.02684,-0.0488,-0.04636,-0.04392,0.01952,0.03904,-0.0244,-0.0488,-0.09272,-0.0732,-0.05368
-0.00488,0.01464,-0.0244,-0.02196,-0.01952,0.00732,0.05368,-0.01464,-0.02928,-0.08784,-0.06344,-0.0488
-0.00488,0.00976,-0.01464,-0.0122,-0.00976,0.00244,0.06344,-0.01464,-0.02928,-0.08296,-0.06344,-0.04392
-0.00976,0.00732,-0.00488,0,0.00488,-0.00732,0.0732,-0.01464,-0.03416,-0.08296,-0.06832,-0.04392
-0.00976,0.01464,-0.01952,-0.01464,-0.00976,0,0.0732,-0.0244,-0.03416,-0.08296,-0.0732,-0.04392
-0.00488,0.01464,-0.0244,-0.02196,-0.01952,0.00732,0.06344,-0.03416,-0.03416,-0.0732,-0.06344,-0.03416
0,0.01464,-0.02928,-0.02928,-0.02928,0.01464,0.04392,-0.03416,-0.03416,-0.0732,-0.05856,-0.03416
0.00488,0.02196,-0.0488,-0.05124,-0.05368,0.02928,0.02928,-0.03416,-0.03904,-0.07808,-0.05856,-0.03416
0.00488,0.02928,-0.06344,-0.06588,-0.06832,0.0366,0.02928,-0.03416,-0.05368,-0.08784,-0.0732,-0.0488
-0.00488,0.03904,-0.0732,-0.07076,-0.06832,0.03172,0.02928,-0.03904,-0.06832,-0.10248,-0.08296,-0.05856
-0.0244,0.05368,-0.08296,-0.07076,-0.05856,0.01708,0.02928,-0.0488,-0.08784,-0.122,-0.0976,-0.06832
-0.03416,0.061,-0.08784,-0.07076,-0.05368,0.00976,0.02928,-0.05368,-0.08784,-0.122,-0.0976,-0.06832
-0.04392,0.07076,-0.0976,-0.07564,-0.05368,0.00488,0.03416,-0.05856,-0.08784,-0.122,-0.0976,-0.06832
-0.05368,0.0854,-0.11712,-0.09028,-0.06344,0.00488,0.03416,-0.06832,-0.10736,-0.14152,-0.11712,-0.08784
-0.06344,0.10248,-0.14152,-0.1098,-0.07808,0.00732,0.03416,-0.0732,-0.11712,-0.16104,-0.13664,-0.10248
-0.06344,0.10248,-0.14152,-0.1098,-0.07808,0.00732,0.03416,-0.0732,-0.122,-0.16592,-0.13664,-0.10248
-0.06344,0.10248,-0.14152,-0.1098,-0.07808,0.00732,0.02928,-0.0732,-0.122,-0.16592,-0.13664,-0.10736
-0.06344,0.10492,-0.1464,-0.11468,-0.08296,0.00976,0.02928,-0.07808,-0.122,-0.16592,-0.13664,-0.11224
-0.06344,0.10492,-0.1464,-0.11468,-0.08296,0.00976,0.0244,-0.08296,-0.122,-0.16592,-0.13664,-0.11224
-0.06344,0.10492,-0.1464,-0.11468,-0.08296,0.00976,0.0244,-0.08296,-0.12688,-0.16592,-0.14152,-0.11224
-0.06344,0.10492,-0.1464,-0.11468,-0.08296,0.00976,0.0244,-0.08296,-0.12688,-0.16592,-0.1464,-0.11224
-0.06344,0.10248,-0.14152,-0.1098,-0.07808,0.00732,0.01464,-0.08784,-0.13176,-0.16592,-0.1464,-0.11712
-0.06344,0.10248,-0.14152,-0.1098,-0.07808,0.00732,0.00976,-0.08784,-0.13664,-0.16592,-0.1464,-0.11712
-0.06344,0.10248,-0.14152,-0.1098,-0.07808,0.00732,0.01464,-0.08296,-0.13176,-0.16592,-0.1464,-0.11712
-0.06344,0.10248,-0.14152,-0.1098,-0.07808,0.00732,0.01464,-0.08296,-0.13176,-0.16592,-0.1464,-0.11712
-0.06344,0.10248,-0.14152,-0.1098,-0.07808,0.00732,0.01952,-0.08296,-0.13176,-0.16592,-0.1464,-0.11712
-0.06344,0.10492,-0.1464,-0.11468,-0.08296,0.00976,0.0244,-0.08296,-0.13176,-0.1708,-0.14152,-0.11224
-0.06344,0.10736,-0.15128,-0.11956,-0.08784,0.0122,0.03416,-0.06832,-0.11712,-0.1708,-0.14152,-0.11224
-0.05856,0.11468,-0.1708,-0.14152,-0.11224,0.02684,0.03904,-0.03416,-0.11224,-0.1708,-0.1464,-0.122
-0.05368,0.12444,-0.1952,-0.16836,-0.14152,0.04392,0.06832,0.06832,-0.06344,-0.15616,-0.15128,-0.13176
-0.05368,0.12444,-0.1952,-0.16836,-0.14152,0.04392,0.14152,0.18056,0.03416,-0.13176,-0.15616,-0.13176
-0.05856,0.09516,-0.13176,-0.10248,-0.0732,0.00732,0.1952,0.21472,0.122,-0.0976,-0.1464,-0.14152
-0.03416,0.03904,-0.04392,-0.02684,-0.00976,-0.0122,0.22448,0.22936,0.2196,0.01952,-0.05368,-0.07808
0.0732,-0.122,0.1708,0.1342,0.0976,-0.0122,0.10736,0.11712,0.2684,0.24888,0.1952,0.15128
0.30744,-0.40992,0.5124,0.35868,0.20496,0.05124,-0.20496,-0.1708,0.2196,0.57584,0.61,0.5368
0.61,-0.7686,0.9272,0.6222,0.3172,0.1464,-0.66856,-0.54656,0.14152,0.97112,1.1224,0.98576
0.9028,-1.12728,1.35176,0.90036,0.44896,0.22692,-1.12728,-0.94184,0.0244,1.342,1.6348,1.44936
1.0492,-1.35908,1.66896,1.14436,0.61976,0.21472,-1.45912,-1.2932,-0.09272,1.62504,2.01056,1.80072
0.93208,-1.41764,1.9032,1.43716,0.97112,-0.01952,-1.45912,-1.36152,0.04392,2.01056,2.38144,2.06912
0.72224,-1.28832,1.8544,1.49328,1.13216,-0.20496,-1.21512,-1.06384,0.4148,2.41072,2.6108,2.11792
0.61976,-1.07848,1.5372,1.22732,0.91744,-0.14884,-1.0004,-0.76616,0.5368,2.37168,2.45464,1.89832
0.488,-0.76616,1.04432,0.80032,0.55632,-0.03416,-0.70272,-0.45872,0.50264,1.91784,1.92272,1.4396
0.2928,-0.427,0.5612,0.4148,0.2684,0.0122,-0.40992,-0.23424,0.2928,1.11752,1.08824,0.81496
0.11712,-0.1708,0.22448,0.16592,0.10736,0.00488,-0.20496,-0.13176,0.10736,0.48312,0.41968,0.31232
0.0488,-0.06344,0.07808,0.05368,0.02928,0.00976,-0.11224,-0.10248,-0.02928,0.1464,0.15128,0.11712
0.00488,-0.02684,0.0488,0.04636,0.04392,-0.01952,-0.06344,-0.07808,-0.00976,0.09272,0.11712,0.08296
0,0,0,0,0,0,-0.0244,-0.04392,0,0.05856,0.06832,0.03904
0,0.01952,-0.03904,-0.03904,-0.03904,0.01952,-0.00976,-0.01952,-0.01952,0.00488,0.01464,0.00488
-0.01464,0.04148,-0.06832,-0.061,-0.05368,0.01952,0,-0.00488,-0.03416,-0.03904,-0.01952,-0.03416
-0.03416,0.05856,-0.08296,-0.06588,-0.0488,0.00732,0.01952,-0.00488,-0.03416,-0.05368,-0.05368,-0.05368
-0.0488,0.0732,-0.0976,-0.0732,-0.0488,0,0.03904,0,-0.03904,-0.08296,-0.07808,-0.0732
-0.05368,0.08296,-0.11224,-0.0854,-0.05856,0.00244,0.04392,0.00976,-0.0488,-0.10736,-0.09272,-0.08784
-0.05856,0.09028,-0.122,-0.09272,-0.06344,0.00244,0.04392,0.01952,-0.0488,-0.11224,-0.10248,-0.0976
-0.06344,0.09272,-0.122,-0.09028,-0.05856,-0.00244,0.0488,0.01952,-0.04392,-0.122,-0.11712,-0.10736
-0.06344,0.0976,-0.13176,-0.10004,-0.06832,0.00244,0.05856,0.01952,-0.04392,-0.13176,-0.12688,-0.11712
-0.06832,0.10004,-0.13176,-0.0976,-0.06344,-0.00244,0.06344,0.0244,-0.05368,-0.13664,-0.13176,-0.11712
-0.06832,0.10004,-0.13176,-0.0976,-0.06344,-0.00244,0.06344,0.03416,-0.05856,-0.13664,-0.13176,-0.11712
-0.06832,0.10004,-0.13176,-0.0976,-0.06344,-0.00244,0.06832,0.03904,-0.05368,-0.13664,-0.12688,-0.11712
-0.06832,0.10004,-0.13176,-0.0976,-0.06344,-0.00244,0.06832,0.0488,-0.04392,-0.13176,-0.12688,-0.11224
-0.06832,0.0976,-0.12688,-0.09272,-0.05856,-0.00488,0.06832,0.05368,-0.04392,-0.13176,-0.12688,-0.11224
-0.06832,0.0976,-0.12688,-0.09272,-0.05856,-0.00488,0.06832,0.05856,-0.04392,-0.13176,-0.12688,-0.11224
-0.05856,0.09516,-0.13176,-0.10248,-0.0732,0.00732,0.0732,0.06344,-0.03416,-0.122,-0.12688,-0.11712
-0.05368,0.09272,-0.13176,-0.10492,-0.07808,0.0122,0.0732,0.06344,-0.02928,-0.122,-0.122,-0.11712
-0.05368,0.09272,-0.13176,-0.10492,-0.07808,0.0122,0.08296,0.0732,-0.01952,-0.11712,-0.122,-0.11224
-0.05368,0.09516,-0.13664,-0.1098,-0.08296,0.01464,0.08784,0.07808,-0.01464,-0.10736,-0.11712,-0.10736
-0.05368,0.09272,-0.13176,-0.10492,-0.07808,0.0122,0.08784,0.08296,-0.01464,-0.10248,-0.11712,-0.10736
-0.0488,0.09028,-0.13176,-0.10736,-0.08296,0.01708,0.08784,0.08784,-0.00488,-0.10248,-0.10736,-0.10736
-0.04392,0.0854,-0.12688,-0.10492,-0.08296,0.01952,0.08784,0.0976,0,-0.09272,-0.0976,-0.0976
-0.04392,0.08296,-0.122,-0.10004,-0.07808,0.01708,0.08784,0.10736,0.00488,-0.09272,-0.0976,-0.0976
-0.03904,0.07808,-0.11712,-0.0976,-0.07808,0.01952,0.08784,0.10736,0.01464,-0.08784,-0.10248,-0.0976
-0.03904,0.07564,-0.11224,-0.09272,-0.0732,0.01708,0.08296,0.11224,0.01952,-0.08296,-0.0976,-0.0976
-0.03904,0.07564,-0.11224,-0.09272,-0.0732,0.01708,0.08296,0.122,0.0244,-0.07808,-0.0976,-0.10248
-0.03904,0.07076,-0.10248,-0.08296,-0.06344,0.0122,0.08296,0.12688,0.03904,-0.0732,-0.09272,-0.0976
-0.03416,0.06832,-0.10248,-0.0854,-0.06832,0.01708,0.08296,0.14152,0.0488,-0.06344,-0.08296,-0.08784
-0.02928,0.06344,-0.0976,-0.08296,-0.06832,0.01952,0.08296,0.15616,0.06344,-0.05368,-0.0732,-0.08296
-0.0244,0.061,-0.0976,-0.0854,-0.0732,0.0244,0.08296,0.1708,0.0732,-0.03904,-0.06832,-0.08296
-0.01464,0.05368,-0.09272,-0.0854,-0.07808,0.03172,0.08784,0.18544,0.08784,-0.02928,-0.06344,-0.08296
-0.01464,0.05124,-0.08784,-0.08052,-0.0732,0.02928,0.08784,0.19032,0.0976,-0.01952,-0.0488,-0.0732
-0.01464,0.04636,-0.07808,-0.07076,-0.06344,0.0244,0.08784,0.20008,0.11224,-0.00488,-0.04392,-0.06344
-0.00976,0.04148,-0.0732,-0.06832,-0.06344,0.02684,0.08784,0.22448,0.12688,0.00976,-0.03904,-0.05856
-0.00976,0.03416,-0.05856,-0.05368,-0.0488,0.01952,0.08784,0.23912,0.15128,0.02928,-0.02928,-0.0488
-0.00488,0.02928,-0.05368,-0.05124,-0.0488,0.02196,0.09272,0.26352,0.1708,0.0488,-0.01464,-0.03904
0,0.0244,-0.0488,-0.0488,-0.0488,0.0244,0.09272,0.27816,0.19032,0.06832,0.00976,-0.0244
0.00488,0.0122,-0.02928,-0.03172,-0.03416,0.01952,0.09272,0.29768,0.20984,0.08296,0.01952,-0.01464
0.01464,0,-0.01464,-0.02196,-0.02928,0.02196,0.09272,0.3172,0.22448,0.10248,0.03416,0
0.01952,-0.00976,0,-0.00976,-0.01952,0.01952,0.09272,0.3416,0.25864,0.13176,0.05856,0.01464
0.02928,-0.0244,0.01952,0.00488,-0.00976,0.01952,0.09272,0.366,0.28792,0.15616,0.07808,0.03416
0.03416,-0.03172,0.02928,0.0122,-0.00488,0.01952,0.09272,0.38552,0.3172,0.18544,0.0976,0.05368
0.04392,-0.04392,0.04392,0.02196,0,0.02196,0.09272,0.40992,0.34648,0.21472,0.12688,0.0732
0.05368,-0.05856,0.06344,0.0366,0.00976,0.02196,0.09272,0.42456,0.37088,0.244,0.1464,0.09272
0.06344,-0.0732,0.08296,0.05124,0.01952,0.02196,0.09272,0.44408,0.40504,0.27816,0.18056,0.11224
0.06832,-0.08784,0.10736,0.0732,0.03904,0.01464,0.09272,0.45872,0.43432,0.30744,0.20496,0.12688
0.07808,-0.10248,0.12688,0.08784,0.0488,0.01464,0.08784,0.47336,0.45384,0.33672,0.22936,0.1464
0.08784,-0.11468,0.14152,0.0976,0.05368,0.01708,0.08784,0.488,0.47336,0.36112,0.25376,0.16104
0.09272,-0.12688,0.16104,0.11468,0.06832,0.0122,0.08784,0.50264,0.49776,0.3904,0.28304,0.18056
0.10248,-0.13664,0.1708,0.11956,0.06832,0.01708,0.07808,0.5124,0.51728,0.40992,0.29768,0.19032
0.11224,-0.15128,0.19032,0.1342,0.07808,0.01708,0.07808,0.51728,0.52704,0.42944,0.3172,0.20496
0.11224,-0.16104,0.20984,0.15372,0.0976,0.00732,0.06832,0.51728,0.5368,0.44896,0.33672,0.2196
0.11712,-0.16836,0.2196,0.16104,0.10248,0.00732,0.06344,0.5124,0.54168,0.4636,0.35136,0.22936
0.11712,-0.1708,0.22448,0.16592,0.10736,0.00488,0.05856,0.49288,0.54168,0.4636,0.35624,0.23912
0.11712,-0.17568,0.23424,0.17568,0.11712,0,0.0488,0.46848,0.52704,0.4636,0.35624,0.24888
0.11224,-0.17324,0.23424,0.17812,0.122,-0.00488,0.0488,0.43432,0.50752,0.44896,0.35624,0.244
0.10736,-0.1708,0.23424,0.18056,0.12688,-0.00976,0.04392,0.3904,0.46848,0.42944,0.34648,0.23912
0.09272,-0.16104,0.22936,0.183,0.13664,-0.02196,0.02928,0.34648,0.42944,0.39528,0.32208,0.22448
0.08296,-0.14884,0.21472,0.17324,0.13176,-0.0244,0.0244,0.30256,0.37576,0.35136,0.29768,0.20496
0.06344,-0.12688,0.19032,0.1586,0.12688,-0.03172,0.0244,0.24888,0.32208,0.29768,0.25864,0.17568
0.0488,-0.10248,0.15616,0.13176,0.10736,-0.02928,0.0244,0.20008,0.2684,0.24888,0.20984,0.15128
0.03904,-0.08052,0.122,0.10248,0.08296,-0.02196,0.01464,0.15128,0.21472,0.18544,0.16104,0.122
0.0244,-0.06344,0.10248,0.09028,0.07808,-0.02684,0.01464,0.11712,0.15616,0.12688,0.11224,0.08784
0.00976,-0.04148,0.0732,0.06832,0.06344,-0.02684,0.00976,0.0732,0.10736,0.06344,0.06344,0.03416
0,-0.02196,0.04392,0.04392,0.04392,-0.02196,0.00976,0.02928,0.05856,0.01464,0.01952,0.00488
-0.00976,-0.00244,0.01464,0.01952,0.0244,-0.01708,0.01464,0,0.00976,-0.03416,-0.01952,-0.01952
-0.01952,0.0122,-0.00488,0.00488,0.01464,-0.01708,0.01464,-0.01464,-0.02928,-0.06832,-0.05856,-0.03904
-0.02928,0.02684,-0.0244,-0.00976,0.00488,-0.01708,0.00976,-0.03416,-0.05368,-0.10248,-0.08784,-0.0732
-0.03904,0.04148,-0.04392,-0.0244,-0.00488,-0.01708,0.00976,-0.05368,-0.08296,-0.12688,-0.11224,-0.09272
-0.03416,0.04636,-0.05856,-0.04148,-0.0244,-0.00488,0.00488,-0.05856,-0.0976,-0.1464,-0.122,-0.0976
-0.03416,0.05124,-0.06832,-0.05124,-0.03416,0,0,-0.06344,-0.11712,-0.16592,-0.13664,-0.10736
-0.03904,0.05368,-0.06832,-0.0488,-0.02928,-0.00488,0,-0.07808,-0.13176,-0.18056,-0.15128,-0.11712
-0.03904,0.05612,-0.0732,-0.05368,-0.03416,-0.00244,0.00488,-0.08784,-0.14152,-0.1952,-0.16104,-0.12688
-0.0488,0.06588,-0.08296,-0.05856,-0.03416,-0.00732,0.00488,-0.09272,-0.15128,-0.20008,-0.16592,-0.12688
-0.0488,0.06832,-0.08784,-0.06344,-0.03904,-0.00488,0,-0.09272,-0.16104,-0.20008,-0.1708,-0.13176
-0.05856,0.0732,-0.08784,-0.05856,-0.02928,-0.01464,0,-0.09272,-0.16104,-0.20984,-0.17568,-0.13664
-0.06344,0.07564,-0.08784,-0.05612,-0.0244,-0.01952,0,-0.10248,-0.16104,-0.21472,-0.18544,-0.1464
-0.05856,0.07564,-0.09272,-0.06344,-0.03416,-0.0122,0,-0.10248,-0.1708,-0.21472,-0.18544,-0.1464
-0.05856,0.07564,-0.09272,-0.06344,-0.03416,-0.0122,0,-0.10248,-0.17568,-0.21472,-0.18544,-0.1464
-0.06344,0.07808,-0.09272,-0.061,-0.02928,-0.01708,0,-0.10248,-0.17568,-0.21472,-0.19032,-0.1464
-0.06344,0.07808,-0.09272,-0.061,-0.02928,-0.01708,0.00488,-0.10248,-0.17568,-0.21472,-0.19032,-0.15128
-0.06344,0.07808,-0.09272,-0.061,-0.02928,-0.01708,0.00488,-0.10248,-0.1708,-0.21472,-0.19032,-0.15128
-0.05856,0.07564,-0.09272,-0.06344,-0.03416,-0.0122,0.00488,-0.0976,-0.16592,-0.21472,-0.18544,-0.15128
-0.05856,0.07564,-0.09272,-0.06344,-0.03416,-0.0122,0,-0.0976,-0.16104,-0.20984,-0.18544,-0.14152
-0.05856,0.07564,-0.09272,-0.06344,-0.03416,-0.0122,0,-0.09272,-0.16104,-0.20984,-0.18544,-0.14152
-0.05368,0.06832,-0.08296,-0.05612,-0.02928,-0.0122,0,-0.09272,-0.15616,-0.20984,-0.18544,-0.14152
-0.0488,0.07076,-0.09272,-0.06832,-0.04392,-0.00244,0,-0.09272,-0.15616,-0.20496,-0.18544,-0.14152
-0.0488,0.07076,-0.09272,-0.06832,-0.04392,-0.00244,0,-0.08784,-0.15616,-0.20008,-0.17568,-0.14152
-0.0488,0.07076,-0.09272,-0.06832,-0.04392,-0.00244,0.00488,-0.08296,-0.15128,-0.20008,-0.1708,-0.14152
-0.0488,0.07076,-0.09272,-0.06832,-0.04392,-0.00244,0.00976,-0.08296,-0.1464,-0.20008,-0.1708,-0.14152
-0.04392,0.06832,-0.09272,-0.07076,-0.0488,0.00244,0.00976,-0.07808,-0.1464,-0.1952,-0.1708,-0.14152
-0.04392,0.06832,-0.09272,-0.07076,-0.0488,0.00244,0.00976,-0.0732,-0.14152,-0.1952,-0.17568,-0.14152
-0.04392,0.06832,-0.09272,-0.07076,-0.0488,0.00244,0.00976,-0.0732,-0.14152,-0.19032,-0.17568,-0.14152
-0.04392,0.06832,-0.09272,-0.07076,-0.0488,0.00244,0.00976,-0.06832,-0.13664,-0.19032,-0.17568,-0.14152
-0.04392,0.06832,-0.09272,-0.07076,-0.0488,0.00244,0.01464,-0.06344,-0.13176,-0.19032,-0.17568,-0.14152
-0.04392,0.06588,-0.08784,-0.06588,-0.04392,0,0.00976,-0.05856,-0.13176,-0.18544,-0.17568,-0.14152
-0.04392,0.06344,-0.08296,-0.061,-0.03904,-0.00244,0.00488,-0.05856,-0.13664,-0.18544,-0.17568,-0.1464
-0.0488,0.06588,-0.08296,-0.05856,-0.03416,-0.00732,0.00488,-0.05856,-0.13176,-0.18544,-0.17568,-0.1464
-0.05368,0.06832,-0.08296,-0.05612,-0.02928,-0.0122,0.00976,-0.05856,-0.13176,-0.18544,-0.17568,-0.1464
-0.05368,0.06832,-0.08296,-0.05612,-0.02928,-0.0122,0.00976,-0.05856,-0.13664,-0.18544,-0.17568,-0.1464
-0.05368,0.06832,-0.08296,-0.05612,-0.02928,-0.0122,0.00488,-0.05856,-0.13664,-0.18544,-0.17568,-0.1464
-0.05368,0.06832,-0.08296,-0.05612,-0.02928,-0.0122,0.00488,-0.06344,-0.13664,-0.19032,-0.17568,-0.1464
-0.05368,0.06832,-0.08296,-0.05612,-0.02928,-0.0122,0.00488,-0.06832,-0.13664,-0.1952,-0.17568,-0.1464
-0.05368,0.06832,-0.08296,-0.05612,-0.02928,-0.0122,0.00488,-0.06832,-0.13664,-0.1952,-0.17568,-0.1464
-0.05368,0.06832,-0.08296,-0.05612,-0.02928,-0.0122,0.00488,-0.06832,-0.13664,-0.20008,-0.17568,-0.1464
-0.0488,0.06832,-0.08784,-0.06344,-0.03904,-0.00488,0.00488,-0.06832,-0.13664,-0.20008,-0.17568,-0.1464
-0.0488,0.07076,-0.09272,-0.06832,-0.04392,-0.00244,0.00488,-0.0732,-0.14152,-0.20008,-0.17568,-0.1464
-0.0488,0.07076,-0.09272,-0.06832,-0.04392,-0.00244,0.00488,-0.07808,-0.1464,-0.20008,-0.18056,-0.1464
-0.0488,0.07076,-0.09272,-0.06832,-0.04392,-0.00244,0.00488,-0.07808,-0.1464,-0.20496,-0.19032,-0.1464
-0.05368,0.0732,-0.09272,-0.06588,-0.03904,-0.00732,0,-0.08296,-0.1464,-0.20496,-0.19032,-0.15128
-0.05368,0.0732,-0.09272,-0.06588,-0.03904,-0.00732,0,-0.08296,-0.15128,-0.20496,-0.19032,-0.15616
-0.05368,0.0732,-0.09272,-0.06588,-0.03904,-0.00732,0,-0.08296,-0.15128,-0.20984,-0.19032,-0.15616
-0.05368,0.0732,-0.09272,-0.06588,-0.03904,-0.00732,0,-0.08784,-0.15616,-0.20984,-0.18544,-0.15616
-0.05368,0.0732,-0.09272,-0.06588,-0.03904,-0.00732,0,-0.08784,-0.15616,-0.20984,-0.18544,-0.15616
-0.05368,0.0732,-0.09272,-0.06588,-0.03904,-0.00732,0,-0.09272,-0.15616,-0.21472,-0.18056,-0.15616
-0.05368,0.06832,-0.08296,-0.05612,-0.02928,-0.0122,0,-0.09272,-0.16104,-0.21472,-0.18056,-0.16104
-0.05368,0.06344,-0.0732,-0.04636,-0.01952,-0.01708,0,-0.09272,-0.16104,-0.2196,-0.18544,-0.16104
-0.05368,0.0732,-0.09272,-0.06588,-0.03904,-0.00732,0.00488,-0.0976,-0.16592,-0.2196,-0.18544,-0.16104
-0.05368,0.07808,-0.10248,-0.07564,-0.0488,-0.00244,0.00976,-0.0976,-0.16592,-0.2196,-0.18544,-0.16104
-0.05368,0.07564,-0.0976,-0.07076,-0.04392,-0.00488,0.00976,-0.0976,-0.16592,-0.2196,-0.19032,-0.16104
-0.05368,0.07564,-0.0976,-0.07076,-0.04392,-0.00488,0.00976,-0.10248,-0.1708,-0.2196,-0.20008,-0.16592
-0.05856,0.08052,-0.10248,-0.0732,-0.04392,-0.00732,0.00488,-0.10248,-0.17568,-0.22448,-0.20008,-0.16104
-0.05856,0.08296,-0.10736,-0.07808,-0.0488,-0.00488,0.00488,-0.10248,-0.18056,-0.22448,-0.20008,-0.15616
-0.05856,0.08296,-0.10736,-0.07808,-0.0488,-0.00488,0.00488,-0.10248,-0.18056,-0.22448,-0.1952,-0.15616
-0.06344,0.0854,-0.10736,-0.07564,-0.04392,-0.00976,0.00488,-0.10736,-0.18056,-0.22448,-0.19032,-0.15616
-0.06344,0.08296,-0.10248,-0.07076,-0.03904,-0.0122,0.00488,-0.10736,-0.18544,-0.22448,-0.19032,-0.15616
-0.06832,0.0854,-0.10248,-0.06832,-0.03416,-0.01708,0.00488,-0.10736,-0.18544,-0.22448,-0.19032,-0.15616
-0.06344,0.08296,-0.10248,-0.07076,-0.03904,-0.0122,0.00488,-0.10736,-0.18056,-0.2196,-0.1952,-0.15616
-0.05856,0.08052,-0.10248,-0.0732,-0.04392,-0.00732,0.00488,-0.10736,-0.18056,-0.2196,-0.1952,-0.15616
-0.05856,0.08052,-0.10248,-0.0732,-0.04392,-0.00732,0,-0.10736,-0.18056,-0.2196,-0.1952,-0.15616
-0.05856,0.08052,-0.10248,-0.0732,-0.04392,-0.00732,-0.00488,-0.10736,-0.18056,-0.2196,-0.1952,-0.16104
-0.05856,0.08052,-0.10248,-0.0732,-0.04392,-0.00732,-0.00488,-0.10736,-0.18056,-0.22448,-0.1952,-0.16104
-0.05856,0.08052,-0.10248,-0.0732,-0.04392,-0.00732,-0.00488,-0.11224,-0.18056,-0.22936,-0.1952,-0.16104
-0.05856,0.08296,-0.10736,-0.07808,-0.0488,-0.00488,0,-0.10736,-0.18056,-0.22936,-0.1952,-0.16104
-0.05856,0.08784,-0.11712,-0.08784,-0.05856,0,0.00488,-0.10248,-0.18056,-0.22936,-0.1952,-0.16104
-0.05856,0.08784,-0.11712,-0.08784,-0.05856,0,0.00488,-0.10248,-0.18056,-0.22936,-0.1952,-0.16104
-0.05856,0.0854,-0.11224,-0.08296,-0.05368,-0.00244,0.00488,-0.10248,-0.18056,-0.22936,-0.1952,-0.16104
-0.05856,0.0854,-0.11224,-0.08296,-0.05368,-0.00244,0.00488,-0.10248,-0.18056,-0.22936,-0.1952,-0.16104
-0.05856,0.08784,-0.11712,-0.08784,-0.05856,0,0.00976,-0.10248,-0.18056,-0.22936,-0.1952,-0.16104
-0.05856,0.08784,-0.11712,-0.08784,-0.05856,0,0.00488,-0.10248,-0.18056,-0.22448,-0.20008,-0.16104
-0.05856,0.08784,-0.11712,-0.08784,-0.05856,0,0,-0.10736,-0.18544,-0.22448,-0.20496,-0.16592
-0.05856,0.08784,-0.11712,-0.08784,-0.05856,0,0,-0.11224,-0.18544,-0.22448,-0.20496,-0.1708
-0.05856,0.08784,-0.11712,-0.08784,-0.05856,0,0,-0.11712,-0.18544,-0.22448,-0.20496,-0.17568
-0.05856,0.08784,-0.11712,-0.08784,-0.05856,0,0,-0.11712,-0.18544,-0.22448,-0.20496,-0.17568
-0.05856,0.08784,-0.11712,-0.08784,-0.05856,0,0,-0.11224,-0.18544,-0.22448,-0.20008,-0.1708
-0.05856,0.09028,-0.122,-0.09272,-0.06344,0.00244,0.00488,-0.10736,-0.18544,-0.22448,-0.20008,-0.1708
-0.06344,0.09516,-0.12688,-0.09516,-0.06344,0,0.00488,-0.10248,-0.18056,-0.22448,-0.1952,-0.16592
-0.06344,0.09516,-0.12688,-0.09516,-0.06344,0,0.00488,-0.10736,-0.18056,-0.22448,-0.20008,-0.16592
-0.05856,0.09272,-0.12688,-0.0976,-0.06832,0.00488,0.00488,-0.10736,-0.18056,-0.22448,-0.20008,-0.16592
-0.05368,0.09028,-0.12688,-0.10004,-0.0732,0.00976,0,-0.10248,-0.18056,-0.22448,-0.20008,-0.16592
-0.05368,0.08784,-0.122,-0.09516,-0.06832,0.00732,0,-0.10248,-0.17568,-0.2196,-0.20008,-0.16592
-0.0488,0.08052,-0.11224,-0.08784,-0.06344,0.00732,0,-0.09272,-0.1708,-0.21472,-0.19032,-0.16104
-0.0488,0.07564,-0.10248,-0.07808,-0.05368,0.00244,0,-0.09272,-0.1708,-0.20984,-0.19032,-0.16104
-0.0488,0.07076,-0.09272,-0.06832,-0.04392,-0.00244,0,-0.09272,-0.1708,-0.20984,-0.18544,-0.15616
-0.03904,0.061,-0.08296,-0.06344,-0.04392,0.00244,0,-0.09272,-0.15616,-0.20008,-0.17568,-0.1464
-0.02928,0.05368,-0.07808,-0.06344,-0.0488,0.00976,0,-0.08296,-0.14152,-0.1952,-0.1708,-0.14152
-0.01952,0.0488,-0.07808,-0.06832,-0.05856,0.01952,0.00488,-0.0732,-0.13664,-0.18544,-0.16592,-0.13664
-0.01464,0.03172,-0.0488,-0.04148,-0.03416,0.00976,0.01952,-0.05856,-0.11712,-0.1708,-0.15128,-0.122
-0.01464,0.02196,-0.02928,-0.02196,-0.01464,0,0.03416,-0.04392,-0.0976,-0.16592,-0.14152,-0.11712
-0.01464,0.01952,-0.0244,-0.01708,-0.00976,-0.00244,0.04392,-0.04392,-0.0976,-0.16104,-0.14152,-0.11224
-0.01952,0.01708,-0.01464,-0.00488,0.00488,-0.0122,0.05368,-0.04392,-0.10248,-0.16104,-0.14152,-0.11224
-0.01952,0.0244,-0.02928,-0.01952,-0.00976,-0.00488,0.05368,-0.05368,-0.10248,-0.16104,-0.1464,-0.11224
-0.01464,0.02196,-0.02928,-0.02196,-0.01464,0,0.04392,-0.06344,-0.10248,-0.15128,-0.14152,-0.10248
-0.00976,0.01952,-0.02928,-0.0244,-0.01952,0.00488,0.0244,-0.06344,-0.10248,-0.15128,-0.13664,-0.10248
-0.00488,0.02684,-0.0488,-0.04636,-0.04392,0.01952,0.00976,-0.06344,-0.10248,-0.15616,-0.13664,-0.10248
-0.00488,0.03416,-0.06344,-0.061,-0.05856,0.02684,0.00976,-0.06832,-0.11712,-0.16592,-0.15128,-0.11712
-0.01464,0.04392,-0.0732,-0.06588,-0.05856,0.02196,0.00976,-0.07808,-0.13664,-0.18056,-0.16104,-0.12688
-0.03416,0.05856,-0.08296,-0.06588,-0.0488,0.00732,0.00976,-0.08784,-0.15616,-0.20008,-0.17568,-0.13664
-0.04392,0.06588,-0.08784,-0.06588,-0.04392,0,0.00976,-0.09272,-0.15616,-0.20008,-0.17568,-0.13664
-0.05368,0.07564,-0.0976,-0.07076,-0.04392,-0.00488,0.01952,-0.0976,-0.15616,-0.20008,-0.1708,-0.13664
-0.06344,0.09028,-0.11712,-0.0854,-0.05368,-0.00488,0.0244,-0.10736,-0.17568,-0.21472,-0.18544,-0.15616
-0.0732,0.10736,-0.14152,-0.10492,-0.06832,-0.00244,0.0244,-0.11224,-0.18544,-0.22936,-0.20496,-0.1708
-0.0732,0.10736,-0.14152,-0.10492,-0.06832,-0.00244,0.0244,-0.11224,-0.19032,-0.23424,-0.20496,-0.1708
-0.0732,0.10736,-0.14152,-0.10492,-0.06832,-0.00244,0.01952,-0.11224,-0.19032,-0.23424,-0.20984,-0.17568
-0.0732,0.1098,-0.1464,-0.1098,-0.0732,0,0.01952,-0.11224,-0.19032,-0.23424,-0.21472,-0.17568
-0.07808,0.11224,-0.1464,-0.10736,-0.06832,-0.00488,0.01464,-0.11224,-0.19032,-0.23424,-0.21472,-0.1708
-0.08296,0.11468,-0.1464,-0.10492,-0.06344,-0.00976,0.01464,-0.11224,-0.1952,-0.23424,-0.21472,-0.1708
-0.08296,0.11468,-0.1464,-0.10492,-0.06344,-0.00976,0.01464,-0.11224,-0.1952,-0.23424,-0.21472,-0.1708
-0.08296,0.11224,-0.14152,-0.10004,-0.05856,-0.0122,0.00976,-0.11712,-0.1952,-0.23424,-0.21472,-0.17568
-0.08296,0.11224,-0.14152,-0.10004,-0.05856,-0.0122,0.00488,-0.11712,-0.1952,-0.23424,-0.21472,-0.17568
-0.08296,0.11224,-0.14152,-0.10004,-0.05856,-0.0122,0.00488,-0.11224,-0.19032,-0.23424,-0.21472,-0.17568
