i,aVR,ii,aVF,iii,aVL,V1,V2,V3,V4,V5,V6
-0.0488,0.02684,-0.00488,0.01952,0.04392,-0.04636,0.05368,0.10248,0.03416,-0.03904,-0.05368,-0.03416
-0.03416,0.01708,0,0.01708,0.03416,-0.03416,0.05368,0.13176,0.0488,-0.01952,-0.04392,-0.0244
-0.02928,0.00976,0.00976,0.0244,0.03904,-0.03416,0.05368,0.1464,0.08296,0,-0.03416,-0.01952
-0.02928,0.00244,0.0244,0.03904,0.05368,-0.04148,0.05368,0.15616,0.10736,0.01952,-0.0244,-0.00976
-0.0244,0,0.0244,0.0366,0.0488,-0.0366,0.0488,0.17568,0.13176,0.03904,-0.00488,0
-0.01952,-0.00488,0.02928,0.03904,0.0488,-0.03416,0.0488,0.20008,0.16104,0.05856,0,0.00488
-0.01464,-0.0122,0.03904,0.04636,0.05368,-0.03416,0.0488,0.2196,0.1952,0.09272,0.01464,0.01464
0,-0.0244,0.0488,0.0488,0.0488,-0.0244,0.0488,0.24888,0.2196,0.11712,0.02928,0.03416
0.00976,-0.03172,0.05368,0.0488,0.04392,-0.01708,0.04392,0.27328,0.25864,0.1464,0.0488,0.04392
0.01952,-0.04392,0.06832,0.05856,0.0488,-0.01464,0.04392,0.30744,0.30256,0.1708,0.06832,0.0488
0.02928,-0.05368,0.07808,0.06344,0.0488,-0.00976,0.03904,0.33672,0.34648,0.21472,0.08784,0.06344
0.04392,-0.06832,0.09272,0.07076,0.0488,-0.00244,0.03416,0.36112,0.3904,0.24888,0.11712,0.08296
0.05856,-0.08784,0.11712,0.08784,0.05856,0,0.0244,0.39528,0.4392,0.28792,0.14152,0.10248
0.06832,-0.0976,0.12688,0.09272,0.05856,0.00488,0.0244,0.43432,0.488,0.32208,0.16592,0.11712
0.08296,-0.11468,0.1464,0.10492,0.06344,0.00976,0.01952,0.4636,0.53192,0.36112,0.20008,0.14152
0.0976,-0.13176,0.16592,0.11712,0.06832,0.01464,0.0244,0.50264,0.57096,0.39528,0.21472,0.1708
0.11712,-0.15372,0.19032,0.13176,0.0732,0.02196,0.0244,0.52704,0.61,0.42456,0.23912,0.19032
0.12688,-0.16348,0.20008,0.13664,0.0732,0.02684,0.01464,0.55144,0.63928,0.45384,0.26352,0.19032
0.13664,-0.17568,0.21472,0.1464,0.07808,0.02928,0.00976,0.57584,0.66856,0.47336,0.28304,0.20496
0.1464,-0.18544,0.22448,0.15128,0.07808,0.03416,0.01952,0.59048,0.67344,0.49288,0.2928,0.20496
0.15128,-0.1952,0.23912,0.16348,0.08784,0.03172,0.01952,0.60512,0.68808,0.49776,0.30256,0.2196
0.15616,-0.20496,0.25376,0.17568,0.0976,0.02928,0.0244,0.60512,0.7076,0.49776,0.30744,0.23912
0.15616,-0.2074,0.25864,0.18056,0.10248,0.02684,0.02928,0.61,0.71248,0.49776,0.31232,0.244
0.16592,-0.2074,0.24888,0.16592,0.08296,0.04148,0.02928,0.61976,0.70272,0.49776,0.31232,0.23912
0.16592,-0.20984,0.25376,0.1708,0.08784,0.03904,0.03416,0.62464,0.69296,0.48312,0.31232,0.23912
0.15128,-0.20252,0.25376,0.17812,0.10248,0.0244,0.03416,0.60512,0.67344,0.46848,0.31232,0.23912
0.14152,-0.1952,0.24888,0.17812,0.10736,0.01708,0.03904,0.59048,0.64416,0.4392,0.29768,0.22936
0.13176,-0.18056,0.22936,0.16348,0.0976,0.01708,0.04392,0.58072,0.60512,0.42456,0.27816,0.2196
0.122,-0.16592,0.20984,0.14884,0.08784,0.01708,0.0488,0.54168,0.56608,0.38552,0.24888,0.1952
0.10736,-0.14884,0.19032,0.13664,0.08296,0.0122,0.0488,0.50752,0.51728,0.34648,0.2196,0.17568
0.08784,-0.12932,0.1708,0.12688,0.08296,0.00244,0.06344,0.47336,0.45872,0.29768,0.19032,0.15616
0.06344,-0.10736,0.15128,0.11956,0.08784,-0.0122,0.06344,0.41968,0.40992,0.25864,0.16104,0.14152
0.04392,-0.08296,0.122,0.10004,0.07808,-0.01708,0.06832,0.37576,0.35136,0.20984,0.12688,0.11224
0.03416,-0.06832,0.10248,0.0854,0.06832,-0.01708,0.06344,0.33184,0.2928,0.15616,0.09272,0.0976
0.01952,-0.05124,0.08296,0.0732,0.06344,-0.02196,0.06344,0.2928,0.23912,0.11712,0.06344,0.0732
0,-0.03172,0.06344,0.06344,0.06344,-0.03172,0.06832,0.23424,0.18056,0.0732,0.0244,0.0488
-0.01464,-0.01464,0.04392,0.05124,0.05856,-0.0366,0.06832,0.1952,0.13664,0.04392,-0.00488,0.02928
-0.02928,0,0.02928,0.04392,0.05856,-0.04392,0.06832,0.16104,0.10248,0,-0.03416,0.00976
-0.03416,0.00976,0.01464,0.03172,0.0488,-0.04148,0.06344,0.12688,0.05856,-0.03416,-0.0488,0
-0.05368,0.02684,0,0.02684,0.05368,-0.05368,0.06344,0.10248,0.0244,-0.0488,-0.06344,-0.00976
-0.06344,0.0366,-0.00976,0.02196,0.05368,-0.05856,0.05856,0.0732,-0.00488,-0.06832,-0.07808,-0.0244
-0.06344,0.03904,-0.01464,0.01708,0.0488,-0.05612,0.0488,0.0488,-0.03904,-0.08784,-0.0976,-0.04392
-0.06832,0.04636,-0.0244,0.00976,0.04392,-0.05612,0.04392,0.02928,-0.05368,-0.10736,-0.11224,-0.0488
-0.07808,0.05612,-0.03416,0.00488,0.04392,-0.061,0.05368,0,-0.06344,-0.11224,-0.11712,-0.05368
-0.07808,0.05856,-0.03904,0,0.03904,-0.05856,0.0488,-0.01464,-0.08296,-0.122,-0.12688,-0.06344
-0.0732,0.05612,-0.03904,-0.00244,0.03416,-0.05368,0.0488,-0.00976,-0.08784,-0.12688,-0.12688,-0.05856
-0.0732,0.05856,-0.04392,-0.00732,0.02928,-0.05124,0.0488,-0.01952,-0.0976,-0.13176,-0.13176,-0.05856
-0.0732,0.05856,-0.04392,-0.00732,0.02928,-0.05124,0.04392,-0.01952,-0.10248,-0.13664,-0.13664,-0.05856
-0.0732,0.05856,-0.04392,-0.00732,0.02928,-0.05124,0.04392,-0.0244,-0.10736,-0.13664,-0.13664,-0.06344
-0.0732,0.05856,-0.04392,-0.00732,0.02928,-0.05124,0.02928,-0.02928,-0.122,-0.13664,-0.13664,-0.06344
-0.0732,0.05856,-0.04392,-0.00732,0.02928,-0.05124,0.02928,-0.02928,-0.122,-0.14152,-0.13664,-0.06344
-0.07808,0.061,-0.04392,-0.00488,0.03416,-0.05612,0.02928,-0.04392,-0.11712,-0.14152,-0.12688,-0.06344
-0.0732,0.05856,-0.04392,-0.00732,0.02928,-0.05124,0.02928,-0.04392,-0.122,-0.14152,-0.12688,-0.06344
-0.0732,0.05856,-0.04392,-0.00732,0.02928,-0.05124,0.0244,-0.0488,-0.13664,-0.14152,-0.13176,-0.06344
-0.0732,0.05612,-0.03904,-0.00244,0.03416,-0.05368,0.0244,-0.0488,-0.13664,-0.1464,-0.13176,-0.05856
-0.08296,0.061,-0.03904,0.00244,0.04392,-0.06344,0.0244,-0.05368,-0.13664,-0.1464,-0.13176,-0.06344
-0.08296,0.05856,-0.03416,0.00732,0.0488,-0.06588,0.0244,-0.05368,-0.14152,-0.1464,-0.12688,-0.05856
-0.08296,0.05612,-0.02928,0.0122,0.05368,-0.06832,0.0244,-0.0488,-0.13176,-0.1464,-0.12688,-0.05856
-0.08296,0.05368,-0.0244,0.01708,0.05856,-0.07076,0.0244,-0.05856,-0.13176,-0.1464,-0.12688,-0.05856
-0.08296,0.05124,-0.01952,0.02196,0.06344,-0.0732,0.0244,-0.05856,-0.13176,-0.1464,-0.13176,-0.05368
-0.08296,0.05124,-0.01952,0.02196,0.06344,-0.0732,0.0244,-0.06344,-0.13176,-0.14152,-0.12688,-0.05368
-0.08296,0.05124,-0.01952,0.02196,0.06344,-0.0732,0.0244,-0.06344,-0.14152,-0.15128,-0.12688,-0.05368
-0.08784,0.05124,-0.01464,0.02928,0.0732,-0.08052,0.0244,-0.06344,-0.14152,-0.15128,-0.12688,-0.05368
-0.08296,0.0488,-0.01464,0.02684,0.06832,-0.07564,0.0244,-0.06832,-0.13176,-0.1464,-0.122,-0.06344
-0.08784,0.05124,-0.01464,0.02928,0.0732,-0.08052,0.0244,-0.0732,-0.13664,-0.1464,-0.12688,-0.06344
-0.08296,0.0488,-0.01464,0.02684,0.06832,-0.07564,0.0244,-0.0732,-0.1464,-0.1464,-0.11712,-0.06344
-0.08784,0.05124,-0.01464,0.02928,0.0732,-0.08052,0.0244,-0.07808,-0.1464,-0.1464,-0.11712,-0.06344
-0.08784,0.04636,-0.00488,0.03904,0.08296,-0.0854,0.0244,-0.07808,-0.1464,-0.1464,-0.12688,-0.05368
-0.08784,0.0488,-0.00976,0.03416,0.07808,-0.08296,0.02928,-0.07808,-0.1464,-0.1464,-0.12688,-0.05856
-0.08784,0.04392,0,0.04392,0.08784,-0.08784,0.02928,-0.08296,-0.1464,-0.1464,-0.12688,-0.06832
-0.09272,0.0488,-0.00488,0.04148,0.08784,-0.09028,0.02928,-0.08784,-0.15128,-0.1464,-0.12688,-0.06832
-0.09272,0.0488,-0.00488,0.04148,0.08784,-0.09028,0.0244,-0.08784,-0.15128,-0.1464,-0.12688,-0.06832
-0.09272,0.0488,-0.00488,0.04148,0.08784,-0.09028,0.0244,-0.08784,-0.15128,-0.1464,-0.12688,-0.0732
-0.08784,0.04636,-0.00488,0.03904,0.08296,-0.0854,0.03416,-0.08784,-0.15616,-0.1464,-0.12688,-0.0732
-0.08784,0.04636,-0.00488,0.03904,0.08296,-0.0854,0.03416,-0.09272,-0.15616,-0.1464,-0.13664,-0.0732
-0.08784,0.0488,-0.00976,0.03416,0.07808,-0.08296,0.03416,-0.09272,-0.16104,-0.1464,-0.13664,-0.08296
-0.09272,0.05124,-0.00976,0.0366,0.08296,-0.08784,0.03416,-0.0976,-0.16104,-0.1464,-0.14152,-0.08296
-0.09272,0.05368,-0.01464,0.03172,0.07808,-0.0854,0.03416,-0.10736,-0.16104,-0.16104,-0.13176,-0.09272
-0.09272,0.05368,-0.01464,0.03172,0.07808,-0.0854,0.03416,-0.11224,-0.16104,-0.16104,-0.13176,-0.0976
-0.09272,0.0488,-0.00488,0.04148,0.08784,-0.09028,0.0244,-0.10736,-0.16104,-0.16104,-0.14152,-0.08784
-0.09272,0.0488,-0.00488,0.04148,0.08784,-0.09028,0.0244,-0.10736,-0.16104,-0.16592,-0.14152,-0.08784
-0.09272,0.0488,-0.00488,0.04148,0.08784,-0.09028,0.0244,-0.11224,-0.16592,-0.15616,-0.14152,-0.08784
-0.09272,0.05124,-0.00976,0.0366,0.08296,-0.08784,0.0244,-0.11224,-0.1708,-0.15616,-0.14152,-0.08784
-0.09272,0.05124,-0.00976,0.0366,0.08296,-0.08784,0.01464,-0.11712,-0.1708,-0.15616,-0.1464,-0.08784
-0.0976,0.05612,-0.01464,0.03416,0.08296,-0.09028,0.00976,-0.11712,-0.17568,-0.15616,-0.14152,-0.08784
-0.0976,0.05856,-0.01952,0.02928,0.07808,-0.08784,0.00976,-0.10736,-0.16592,-0.15616,-0.14152,-0.08784
-0.0976,0.061,-0.0244,0.0244,0.0732,-0.0854,0.00976,-0.11224,-0.1708,-0.15616,-0.14152,-0.08784
-0.0976,0.061,-0.0244,0.0244,0.0732,-0.0854,0.01952,-0.11224,-0.1708,-0.1464,-0.13176,-0.08784
-0.0976,0.06588,-0.03416,0.01464,0.06344,-0.08052,0.01464,-0.11224,-0.17568,-0.15128,-0.13176,-0.08784
-0.10248,0.06588,-0.02928,0.02196,0.0732,-0.08784,0.00976,-0.11712,-0.16592,-0.15128,-0.13176,-0.09272
-0.0976,0.06588,-0.03416,0.01464,0.06344,-0.08052,0.00976,-0.11712,-0.16592,-0.1464,-0.13176,-0.09272
-0.0976,0.06588,-0.03416,0.01464,0.06344,-0.08052,0.00976,-0.11712,-0.16592,-0.16104,-0.12688,-0.08296
-0.0976,0.06588,-0.03416,0.01464,0.06344,-0.08052,0.00488,-0.11712,-0.16592,-0.16104,-0.12688,-0.08784
-0.0976,0.06588,-0.03416,0.01464,0.06344,-0.08052,0.00488,-0.122,-0.17568,-0.16104,-0.13664,-0.08784
-0.0976,0.06588,-0.03416,0.01464,0.06344,-0.08052,0.00488,-0.122,-0.17568,-0.16104,-0.14152,-0.09272
-0.0976,0.06588,-0.03416,0.01464,0.06344,-0.08052,0.00488,-0.11712,-0.1708,-0.15128,-0.13176,-0.08296
-0.0976,0.06588,-0.03416,0.01464,0.06344,-0.08052,0.00488,-0.11712,-0.17568,-0.15128,-0.13176,-0.08296
-0.08784,0.061,-0.03416,0.00976,0.05368,-0.07076,0.00976,-0.11224,-0.16592,-0.16104,-0.13176,-0.08296
-0.08784,0.06344,-0.03904,0.00488,0.0488,-0.06832,0.00976,-0.12688,-0.17568,-0.16592,-0.13664,-0.08784
-0.08784,0.06344,-0.03904,0.00488,0.0488,-0.06832,0.00976,-0.12688,-0.17568,-0.16592,-0.13664,-0.08784
-0.08784,0.05856,-0.02928,0.01464,0.05856,-0.0732,0.00976,-0.12688,-0.17568,-0.16592,-0.13664,-0.0976
-0.08784,0.05856,-0.02928,0.01464,0.05856,-0.0732,0.00976,-0.12688,-0.17568,-0.16592,-0.13664,-0.0976
-0.09272,0.061,-0.02928,0.01708,0.06344,-0.07808,0.00976,-0.12688,-0.17568,-0.16104,-0.1464,-0.0976
-0.09272,0.061,-0.02928,0.01708,0.06344,-0.07808,0.00976,-0.12688,-0.17568,-0.16104,-0.1464,-0.0976
-0.09272,0.061,-0.02928,0.01708,0.06344,-0.07808,0.00976,-0.11712,-0.17568,-0.16104,-0.1464,-0.0976
-0.09272,0.061,-0.02928,0.01708,0.06344,-0.07808,0.00976,-0.11712,-0.17568,-0.16104,-0.1464,-0.0976
-0.08784,0.05368,-0.01952,0.0244,0.06832,-0.07808,0.00976,-0.11712,-0.17568,-0.1708,-0.1464,-0.0976
-0.08296,0.04392,-0.00488,0.0366,0.07808,-0.08052,0.01464,-0.10736,-0.1708,-0.15616,-0.1464,-0.09272
-0.0732,0.02684,0.01952,0.05612,0.09272,-0.08296,0.01464,-0.10248,-0.15616,-0.15128,-0.13176,-0.08296
-0.0732,0.01952,0.03416,0.07076,0.10736,-0.09028,0.02928,-0.09272,-0.14152,-0.13664,-0.122,-0.0732
-0.05368,0,0.05368,0.08052,0.10736,-0.08052,0.03416,-0.07808,-0.122,-0.12688,-0.10736,-0.06832
-0.05368,0,0.05368,0.08052,0.10736,-0.08052,0.03416,-0.0732,-0.122,-0.122,-0.10736,-0.06832
-0.05368,-0.00488,0.06344,0.09028,0.11712,-0.0854,0.04392,-0.08296,-0.13176,-0.13176,-0.11712,-0.0732
-0.05368,-0.00732,0.06832,0.09516,0.122,-0.08784,0.04392,-0.07808,-0.13176,-0.13176,-0.11712,-0.0732
-0.0488,-0.00732,0.06344,0.08784,0.11224,-0.08052,0.0488,-0.06344,-0.10248,-0.11224,-0.10736,-0.05856
-0.03904,-0.00976,0.05856,0.07808,0.0976,-0.06832,0.05856,-0.05368,-0.08296,-0.08784,-0.08296,-0.03904
-0.03904,-0.0244,0.08784,0.10736,0.12688,-0.08296,0.04392,-0.06344,-0.0976,-0.09272,-0.0732,-0.02928
-0.03416,-0.04148,0.11712,0.1342,0.15128,-0.09272,0.00976,-0.08784,-0.11224,-0.10736,-0.08296,-0.03904
-0.04392,-0.03416,0.11224,0.1342,0.15616,-0.10004,-0.00488,-0.0976,-0.12688,-0.122,-0.10248,-0.06344
-0.04392,-0.02928,0.10248,0.12444,0.1464,-0.09516,-0.01464,-0.10248,-0.13664,-0.12688,-0.10248,-0.06344
-0.03416,-0.02196,0.07808,0.09516,0.11224,-0.0732,-0.0244,-0.0976,-0.1464,-0.13664,-0.10248,-0.06344
-0.02928,-0.02684,0.08296,0.0976,0.11224,-0.07076,-0.0244,-0.0976,-0.14152,-0.13176,-0.10248,-0.05856
-0.01952,-0.03416,0.08784,0.0976,0.10736,-0.06344,-0.02928,-0.11224,-0.13664,-0.13176,-0.0976,-0.0488
-0.01464,-0.0366,0.08784,0.09516,0.10248,-0.05856,-0.03416,-0.11224,-0.13664,-0.13176,-0.09272,-0.04392
-0.03416,-0.02196,0.07808,0.09516,0.11224,-0.0732,-0.01952,-0.11712,-0.13664,-0.122,-0.08296,-0.0488
-0.05368,-0.00732,0.06832,0.09516,0.122,-0.08784,-0.01952,-0.11712,-0.14152,-0.12688,-0.08784,-0.05856
-0.06832,0.0122,0.04392,0.07808,0.11224,-0.09028,-0.01464,-0.13176,-0.16104,-0.1464,-0.11712,-0.06832
-0.08784,0.03904,0.00976,0.05368,0.0976,-0.09272,-0.00488,-0.13176,-0.1708,-0.16592,-0.13664,-0.08296
-0.09272,0.04392,0.00488,0.05124,0.0976,-0.09516,-0.00488,-0.13664,-0.18056,-0.17568,-0.1464,-0.0976
-0.09272,0.0488,-0.00488,0.04148,0.08784,-0.09028,-0.00488,-0.13664,-0.19032,-0.18056,-0.1464,-0.10248
-0.10248,0.05856,-0.01464,0.0366,0.08784,-0.09516,-0.00488,-0.13664,-0.19032,-0.18544,-0.1464,-0.10248
-0.10736,0.061,-0.01464,0.03904,0.09272,-0.10004,-0.00488,-0.1464,-0.19032,-0.18544,-0.1464,-0.10248
-0.0976,0.061,-0.0244,0.0244,0.0732,-0.0854,-0.00488,-0.13664,-0.19032,-0.19032,-0.15128,-0.0976
-0.0976,0.061,-0.0244,0.0244,0.0732,-0.0854,-0.00488,-0.13664,-0.1952,-0.19032,-0.15128,-0.0976
-0.0976,0.06832,-0.03904,0.00976,0.05856,-0.07808,0,-0.14152,-0.1952,-0.19032,-0.1464,-0.0976
-0.0976,0.06832,-0.03904,0.00976,0.05856,-0.07808,0,-0.14152,-0.1952,-0.19032,-0.1464,-0.0976
-0.10248,0.07076,-0.03904,0.0122,0.06344,-0.08296,-0.00488,-0.1464,-0.19032,-0.18544,-0.15616,-0.10736
-0.10248,0.0732,-0.04392,0.00732,0.05856,-0.08052,0,-0.1464,-0.19032,-0.18544,-0.15616,-0.10736
-0.10248,0.0732,-0.04392,0.00732,0.05856,-0.08052,0.00976,-0.14152,-0.1952,-0.18544,-0.15616,-0.10736
-0.10248,0.0732,-0.04392,0.00732,0.05856,-0.08052,0.00976,-0.14152,-0.1952,-0.18544,-0.15616,-0.10736
-0.10248,0.0732,-0.04392,0.00732,0.05856,-0.08052,0,-0.13176,-0.1952,-0.18544,-0.15616,-0.10736
-0.10736,0.07564,-0.04392,0.00976,0.06344,-0.0854,0.01952,-0.13664,-0.18544,-0.18544,-0.16104,-0.11224
-0.13664,0.0854,-0.03416,0.03416,0.10248,-0.11956,0.04392,-0.10248,-0.17568,-0.20008,-0.16104,-0.122
-0.15128,0.09272,-0.03416,0.04148,0.11712,-0.1342,0.0976,-0.02928,-0.13664,-0.20008,-0.18056,-0.13176
-0.1708,0.10004,-0.02928,0.05612,0.14152,-0.15616,0.122,0,-0.08296,-0.1708,-0.16104,-0.12688
-0.16592,0.08784,-0.00976,0.0732,0.15616,-0.16104,0.12688,0,-0.03416,-0.10248,-0.13176,-0.11712
-0.14152,0.07564,-0.00976,0.061,0.13176,-0.13664,0.11712,0.04392,0.09272,0.04392,-0.05856,-0.0732
-0.05368,0.0244,0.00488,0.03172,0.05856,-0.05612,0.09272,0.20008,0.366,0.33184,0.13176,0.02928
0.07808,-0.08052,0.08296,0.04392,0.00488,0.0366,0.02928,0.32208,0.68808,0.71248,0.39528,0.21472
0.23912,-0.23668,0.23424,0.11468,-0.00488,0.122,-0.03416,0.488,1.16144,1.27856,0.80032,0.47336
0.47824,-0.43432,0.3904,0.15128,-0.08784,0.28304,-0.20496,0.48312,1.65432,1.93736,1.2688,0.79544
0.69784,-0.6222,0.54656,0.19764,-0.15128,0.42456,-0.45384,0.18056,1.7568,2.3424,1.62504,1.06384
0.77104,-0.67588,0.58072,0.1952,-0.19032,0.48068,-0.57584,-0.04392,1.63968,2.24968,1.62016,1.098
0.7076,-0.59292,0.47824,0.12444,-0.22936,0.46848,-0.61976,-0.40992,1.22976,1.7812,1.3176,0.91256
0.54168,-0.30256,0.06344,-0.2074,-0.47824,0.50996,-0.58072,-0.7808,0.32208,0.81984,0.65392,0.488
0.38064,-0.05124,-0.27816,-0.46848,-0.6588,0.51972,-0.49776,-1.00528,-0.48312,-0.06832,0.0732,0.10736
0.23424,0.16104,-0.55632,-0.67344,-0.79056,0.5124,-0.40504,-1.0248,-1.09312,-0.72712,-0.37088,-0.18056
0.13176,0.24156,-0.61488,-0.68076,-0.74664,0.4392,-0.38064,-1.04432,-1.30296,-0.97112,-0.5612,-0.32208
0.06832,0.30012,-0.66856,-0.70272,-0.73688,0.4026,-0.32696,-0.95648,-1.22488,-0.96624,-0.6344,-0.39528
0.02928,0.3172,-0.66368,-0.67832,-0.69296,0.36112,-0.3172,-0.90768,-1.16144,-0.94184,-0.63928,-0.40504
-0.05856,0.33672,-0.61488,-0.5856,-0.55632,0.24888,-0.21472,-0.77592,-1.0004,-0.86376,-0.60512,-0.40992
-0.07808,0.28548,-0.49288,-0.45384,-0.4148,0.16836,-0.16104,-0.6588,-0.84424,-0.74176,-0.52704,-0.35624
-0.08296,0.20984,-0.33672,-0.29524,-0.25376,0.0854,-0.10248,-0.50264,-0.64904,-0.57096,-0.39528,-0.27816
-0.08784,0.16348,-0.23912,-0.1952,-0.15128,0.03172,-0.02928,-0.33184,-0.48312,-0.42456,-0.30744,-0.20496
-0.10736,0.15616,-0.20496,-0.15128,-0.0976,-0.00488,0.03904,-0.17568,-0.32208,-0.32208,-0.244,-0.15616
-0.09272,0.12688,-0.16104,-0.11468,-0.06832,-0.0122,0.05368,-0.0732,-0.2196,-0.24888,-0.20008,-0.13176
-0.07808,0.09516,-0.11224,-0.0732,-0.03416,-0.02196,0.03416,-0.05856,-0.20496,-0.2196,-0.17568,-0.12688
-0.08784,0.09028,-0.09272,-0.0488,-0.00488,-0.04148,0.02928,-0.05856,-0.20008,-0.21472,-0.1708,-0.122
-0.07808,0.07808,-0.07808,-0.03904,0,-0.03904,0.02928,-0.05856,-0.17568,-0.20496,-0.16592,-0.11224
-0.07808,0.07808,-0.07808,-0.03904,0,-0.03904,0.02928,-0.03904,-0.14152,-0.1952,-0.15128,-0.10248
-0.07808,0.06588,-0.05368,-0.01464,0.0244,-0.05124,0.0244,-0.03904,-0.122,-0.1708,-0.14152,-0.10248
-0.07808,0.05856,-0.03904,0,0.03904,-0.05856,0.0244,-0.03904,-0.13664,-0.16592,-0.14152,-0.0976
-0.07808,0.05856,-0.03904,0,0.03904,-0.05856,0.0244,-0.0244,-0.122,-0.15616,-0.12688,-0.0976
-0.07808,0.05612,-0.03416,0.00488,0.04392,-0.061,0.0244,-0.00976,-0.10248,-0.15128,-0.122,-0.08784
-0.07808,0.05124,-0.0244,0.01464,0.05368,-0.06588,0.02928,0,-0.09272,-0.14152,-0.12688,-0.0976
-0.0732,0.04636,-0.01952,0.01708,0.05368,-0.06344,0.02928,0,-0.10248,-0.13664,-0.122,-0.09272
-0.0732,0.04392,-0.01464,0.02196,0.05856,-0.06588,0.03416,0,-0.10736,-0.1464,-0.122,-0.08784
-0.0732,0.04392,-0.01464,0.02196,0.05856,-0.06588,0.03416,0.00488,-0.0976,-0.13176,-0.11224,-0.08784
-0.06832,0.04636,-0.0244,0.00976,0.04392,-0.05612,0.03904,0.01464,-0.08784,-0.12688,-0.11224,-0.0732
-0.06344,0.0366,-0.00976,0.02196,0.05368,-0.05856,0.03904,0.0244,-0.08296,-0.122,-0.10248,-0.0732
-0.0488,0.0244,0,0.0244,0.0488,-0.0488,0.03904,0.0244,-0.0732,-0.11224,-0.10248,-0.07808
-0.0488,0.0244,0,0.0244,0.0488,-0.0488,0.03904,0.0244,-0.06344,-0.10736,-0.0976,-0.0732
-0.04392,0.01952,0.00488,0.02684,0.0488,-0.04636,0.03904,0.03904,-0.0488,-0.09272,-0.09272,-0.05856
-0.03904,0.01464,0.00976,0.02928,0.0488,-0.04392,0.03904,0.05856,-0.0244,-0.0732,-0.08296,-0.05368
-0.03416,0.0122,0.00976,0.02684,0.04392,-0.03904,0.04392,0.07808,-0.00488,-0.06344,-0.0732,-0.0488
-0.03416,0.00976,0.01464,0.03172,0.0488,-0.04148,0.04392,0.08784,0.01464,-0.05368,-0.06832,-0.04392
-0.01952,0.00244,0.01464,0.0244,0.03416,-0.02684,0.04392,0.0976,0.02928,-0.03904,-0.05856,-0.0488
-0.01464,-0.00488,0.0244,0.03172,0.03904,-0.02684,0.04392,0.11224,0.05856,-0.01952,-0.0488,-0.03904
-0.01952,-0.00732,0.03416,0.04392,0.05368,-0.0366,0.04392,0.13664,0.07808,-0.01464,-0.03904,-0.03904
-0.00488,-0.01464,0.03416,0.0366,0.03904,-0.02196,0.03904,0.15616,0.10736,0.00976,-0.02928,-0.0244
0,-0.02196,0.04392,0.04392,0.04392,-0.02196,0.03904,0.18056,0.13664,0.02928,-0.01464,-0.01952
0.00488,-0.02928,0.05368,0.05124,0.0488,-0.02196,0.03904,0.20008,0.16592,0.05368,0,-0.00976
0.01464,-0.0366,0.05856,0.05124,0.04392,-0.01464,0.03904,0.2196,0.20984,0.08296,0.02928,0.00488
0.0244,-0.04636,0.06832,0.05612,0.04392,-0.00976,0.03416,0.25376,0.24888,0.11224,0.0488,0.0244
0.03416,-0.05856,0.08296,0.06588,0.0488,-0.00732,0.03416,0.27816,0.27816,0.13664,0.05856,0.03416
0.04392,-0.06832,0.09272,0.07076,0.0488,-0.00244,0.02928,0.30256,0.32696,0.17568,0.07808,0.04392
0.05368,-0.07808,0.10248,0.07564,0.0488,0.00244,0.03416,0.34648,0.36112,0.2196,0.10736,0.06344
0.0732,-0.0976,0.122,0.0854,0.0488,0.0122,0.03416,0.38064,0.40016,0.25864,0.13664,0.08296
0.08296,-0.1098,0.13664,0.09516,0.05368,0.01464,0.0244,0.40016,0.44408,0.29768,0.15616,0.10248
0.09272,-0.122,0.15128,0.10492,0.05856,0.01708,0.0244,0.42944,0.488,0.32696,0.18544,0.122
0.10736,-0.13664,0.16592,0.11224,0.05856,0.0244,0.00976,0.4636,0.5368,0.36112,0.21472,0.14152
0.122,-0.15372,0.18544,0.12444,0.06344,0.02928,0.00488,0.50264,0.57096,0.3904,0.244,0.16104
0.14152,-0.17324,0.20496,0.1342,0.06344,0.03904,0.00488,0.52704,0.61,0.4148,0.2684,0.18056
0.15128,-0.18544,0.2196,0.14396,0.06832,0.04148,0.00488,0.54168,0.6344,0.43432,0.27816,0.19032
0.15128,-0.19032,0.22936,0.15372,0.07808,0.0366,0.00976,0.56608,0.6588,0.4636,0.29768,0.20008
0.16104,-0.20008,0.23912,0.1586,0.07808,0.04148,0.00976,0.58072,0.66856,0.47336,0.30744,0.20984
0.17568,-0.20984,0.244,0.15616,0.06832,0.05368,0,0.59048,0.67832,0.47336,0.31232,0.22448
0.17568,-0.21228,0.24888,0.16104,0.0732,0.05124,0.00488,0.60024,0.69296,0.47824,0.32208,0.23424
0.17568,-0.21228,0.24888,0.16104,0.0732,0.05124,0.00976,0.60512,0.69296,0.47824,0.32208,0.23912
0.17568,-0.21472,0.25376,0.16592,0.07808,0.0488,0.00976,0.61976,0.69296,0.46848,0.32208,0.23912
0.17568,-0.21472,0.25376,0.16592,0.07808,0.0488,0.0244,0.61976,0.68808,0.46848,0.3172,0.22936
0.16592,-0.20984,0.25376,0.1708,0.08784,0.03904,0.02928,0.61488,0.66368,0.44896,0.30744,0.22936
0.16592,-0.2074,0.24888,0.16592,0.08296,0.04148,0.02928,0.59536,0.62952,0.41968,0.28792,0.21472
0.15616,-0.1952,0.23424,0.15616,0.07808,0.03904,0.03416,0.57096,0.59048,0.38552,0.26352,0.1952
0.1464,-0.18788,0.22936,0.15616,0.08296,0.03172,0.02928,0.54168,0.54168,0.35624,0.244,0.18544
0.12688,-0.16836,0.20984,0.1464,0.08296,0.02196,0.03416,0.5124,0.49288,0.31232,0.21472,0.16592
0.11224,-0.1464,0.18056,0.12444,0.06832,0.02196,0.04392,0.47336,0.43432,0.26352,0.18544,0.1464
0.09272,-0.12688,0.16104,0.11468,0.06832,0.0122,0.04392,0.41968,0.38064,0.21472,0.14152,0.11712
0.08296,-0.11224,0.14152,0.10004,0.05856,0.0122,0.0488,0.37576,0.32696,0.18056,0.11712,0.0976
0.06832,-0.0976,0.12688,0.09272,0.05856,0.00488,0.05368,0.33184,0.27816,0.13176,0.08784,0.0732
0.03904,-0.06588,0.09272,0.0732,0.05368,-0.00732,0.05368,0.28792,0.22448,0.0976,0.06832,0.06344
0.0244,-0.0488,0.0732,0.061,0.0488,-0.0122,0.05856,0.244,0.1708,0.06344,0.03904,0.03416
0,-0.02684,0.05368,0.05368,0.05368,-0.02684,0.05856,0.20008,0.12688,0.0244,0.00976,0.01952
-0.00976,-0.01708,0.04392,0.0488,0.05368,-0.03172,0.05368,0.16592,0.08784,-0.00488,-0.00976,0.00488
-0.01952,-0.00244,0.0244,0.03416,0.04392,-0.03172,0.06344,0.12688,0.03904,-0.04392,-0.03416,-0.00488
-0.02928,0.00732,0.01464,0.02928,0.04392,-0.0366,0.05856,0.0976,0.00976,-0.06832,-0.05368,-0.0244
-0.03904,0.01952,0,0.01952,0.03904,-0.03904,0.0488,0.06344,-0.00488,-0.07808,-0.06832,-0.03904
-0.04392,0.0244,-0.00488,0.01708,0.03904,-0.04148,0.04392,0.03904,-0.0244,-0.10248,-0.0732,-0.0488
-0.0488,0.02928,-0.00976,0.01464,0.03904,-0.04392,0.03416,0.02928,-0.05368,-0.10736,-0.08784,-0.0488
-0.0488,0.03416,-0.01952,0.00488,0.02928,-0.03904,0.03416,0.00976,-0.0732,-0.11712,-0.09272,-0.05856
-0.05368,0.04148,-0.02928,-0.00244,0.0244,-0.03904,0.02928,0.00976,-0.0732,-0.122,-0.0976,-0.05856
-0.05368,0.04148,-0.02928,-0.00244,0.0244,-0.03904,0.02928,0.00488,-0.08296,-0.13176,-0.10248,-0.05856
-0.05368,0.03904,-0.0244,0.00244,0.02928,-0.04148,0.01464,-0.00976,-0.09272,-0.12688,-0.0976,-0.05856
-0.05368,0.03904,-0.0244,0.00244,0.02928,-0.04148,0.01464,-0.01464,-0.0976,-0.12688,-0.0976,-0.06344
-0.05368,0.04392,-0.03416,-0.00732,0.01952,-0.0366,0.01952,-0.01464,-0.0976,-0.12688,-0.0976,-0.06344
-0.05368,0.04392,-0.03416,-0.00732,0.01952,-0.0366,0.01952,-0.01952,-0.10248,-0.13176,-0.0976,-0.06344
-0.04392,0.03904,-0.03416,-0.0122,0.00976,-0.02684,0.00976,-0.0244,-0.10736,-0.13176,-0.10736,-0.05368
-0.0488,0.04148,-0.03416,-0.00976,0.01464,-0.03172,0.00976,-0.0244,-0.10736,-0.13176,-0.10736,-0.05368
-0.04392,0.03904,-0.03416,-0.0122,0.00976,-0.02684,0.01464,-0.03904,-0.122,-0.13176,-0.10736,-0.06344
-0.04392,0.0366,-0.02928,-0.00732,0.01464,-0.02928,0.01464,-0.03904,-0.12688,-0.13176,-0.10248,-0.06344
-0.04392,0.03172,-0.01952,0.00244,0.0244,-0.03416,0.0244,-0.03904,-0.11712,-0.13664,-0.09272,-0.0488
-0.04392,0.03172,-0.01952,0.00244,0.0244,-0.03416,0.0244,-0.04392,-0.122,-0.13664,-0.09272,-0.05368
-0.04392,0.03172,-0.01952,0.00244,0.0244,-0.03416,0.0244,-0.03904,-0.122,-0.12688,-0.08784,-0.0488
-0.04392,0.03172,-0.01952,0.00244,0.0244,-0.03416,0.0244,-0.03904,-0.122,-0.12688,-0.08784,-0.0488
-0.05368,0.03416,-0.01464,0.0122,0.03904,-0.04636,0.0244,-0.0488,-0.122,-0.13664,-0.08784,-0.0488
-0.05368,0.03904,-0.0244,0.00244,0.02928,-0.04148,0.0244,-0.0488,-0.122,-0.13176,-0.07808,-0.04392
-0.05368,0.04148,-0.02928,-0.00244,0.0244,-0.03904,0.0244,-0.05368,-0.11224,-0.122,-0.06832,-0.03904
-0.05856,0.04148,-0.0244,0.00488,0.03416,-0.04636,0.0244,-0.05368,-0.11224,-0.122,-0.06832,-0.02928
-0.0488,0.04148,-0.03416,-0.00976,0.01464,-0.03172,0.01464,-0.05856,-0.11224,-0.12688,-0.06832,-0.0244
-0.05856,0.04636,-0.03416,-0.00488,0.0244,-0.04148,0.01464,-0.05856,-0.11224,-0.12688,-0.06344,-0.0244
-0.05368,0.04392,-0.03416,-0.00732,0.01952,-0.0366,0.01464,-0.06344,-0.11712,-0.11712,-0.05856,-0.0244
-0.05856,0.04636,-0.03416,-0.00488,0.0244,-0.04148,0.01464,-0.06832,-0.11712,-0.11712,-0.05856,-0.0244
-0.05856,0.04636,-0.03416,-0.00488,0.0244,-0.04148,0.01464,-0.06832,-0.12688,-0.11712,-0.05856,-0.0244
-0.05856,0.04636,-0.03416,-0.00488,0.0244,-0.04148,0.01464,-0.06832,-0.12688,-0.11712,-0.05856,-0.02928
-0.06832,0.05368,-0.03904,-0.00488,0.02928,-0.0488,0.01952,-0.0732,-0.11712,-0.10736,-0.05856,-0.02928
-0.06832,0.05612,-0.04392,-0.00976,0.0244,-0.04636,0.01952,-0.0732,-0.122,-0.10736,-0.05856,-0.02928
-0.06344,0.05368,-0.04392,-0.0122,0.01952,-0.04148,0.02928,-0.07808,-0.122,-0.11712,-0.05856,-0.02928
-0.06344,0.05368,-0.04392,-0.0122,0.01952,-0.04148,0.0244,-0.07808,-0.122,-0.11712,-0.05856,-0.03416
-0.05856,0.05124,-0.04392,-0.01464,0.01464,-0.0366,0.0244,-0.07808,-0.12688,-0.11712,-0.05856,-0.04392
-0.05856,0.05124,-0.04392,-0.01464,0.01464,-0.0366,0.0244,-0.08296,-0.12688,-0.11712,-0.06344,-0.04392
-0.06832,0.06344,-0.05856,-0.0244,0.00976,-0.03904,0.03416,-0.08296,-0.12688,-0.10736,-0.05856,-0.04392
-0.0732,0.06588,-0.05856,-0.02196,0.01464,-0.04392,0.03416,-0.08784,-0.13176,-0.10736,-0.06344,-0.04392
-0.0732,0.061,-0.0488,-0.0122,0.0244,-0.0488,0.0244,-0.0976,-0.14152,-0.10736,-0.0732,-0.04392
-0.0732,0.06344,-0.05368,-0.01708,0.01952,-0.04636,0.0244,-0.10248,-0.14152,-0.11224,-0.0732,-0.04392
-0.0732,0.06344,-0.05368,-0.01708,0.01952,-0.04636,0.0244,-0.0976,-0.14152,-0.11224,-0.0732,-0.03904
-0.0732,0.06344,-0.05368,-0.01708,0.01952,-0.04636,0.0244,-0.0976,-0.14152,-0.11224,-0.0732,-0.03904
-0.0732,0.06344,-0.05368,-0.01708,0.01952,-0.04636,0.0244,-0.0976,-0.14152,-0.12688,-0.0732,-0.0488
-0.0732,0.06588,-0.05856,-0.02196,0.01464,-0.04392,0.0244,-0.10248,-0.15128,-0.12688,-0.0732,-0.0488
-0.0732,0.06588,-0.05856,-0.02196,0.01464,-0.04392,0.0244,-0.10248,-0.15128,-0.12688,-0.0732,-0.0488
-0.07808,0.06832,-0.05856,-0.01952,0.01952,-0.0488,0.0244,-0.10736,-0.15128,-0.12688,-0.07808,-0.0488
-0.06832,0.061,-0.05368,-0.01952,0.01464,-0.04148,0.01952,-0.0976,-0.15616,-0.12688,-0.0732,-0.0488
-0.06832,0.06588,-0.06344,-0.02928,0.00488,-0.0366,0.01952,-0.10248,-0.16104,-0.12688,-0.0732,-0.0488
-0.07808,0.0732,-0.06832,-0.02928,0.00976,-0.04392,0.01952,-0.11224,-0.16104,-0.12688,-0.0732,-0.03904
-0.07808,0.07076,-0.06344,-0.0244,0.01464,-0.04636,0.01952,-0.11224,-0.16104,-0.12688,-0.0732,-0.03904
-0.06832,0.06588,-0.06344,-0.02928,0.00488,-0.0366,0.01464,-0.10736,-0.15616,-0.122,-0.0732,-0.03904
-0.0732,0.07076,-0.06832,-0.03172,0.00488,-0.03904,0.01952,-0.10736,-0.15616,-0.122,-0.0732,-0.04392
-0.06832,0.07076,-0.0732,-0.03904,-0.00488,-0.03172,0.01952,-0.10736,-0.15616,-0.11712,-0.0732,-0.03416
-0.06832,0.07076,-0.0732,-0.03904,-0.00488,-0.03172,0.01952,-0.10736,-0.15616,-0.122,-0.06832,-0.03904
-0.06832,0.07076,-0.0732,-0.03904,-0.00488,-0.03172,0.0244,-0.10736,-0.15616,-0.13176,-0.06832,-0.02928
-0.06832,0.07076,-0.0732,-0.03904,-0.00488,-0.03172,0.0244,-0.11224,-0.15616,-0.13176,-0.0732,-0.03416
-0.06832,0.07076,-0.0732,-0.03904,-0.00488,-0.03172,0.0244,-0.122,-0.16104,-0.13176,-0.0732,-0.03416
-0.06832,0.07076,-0.0732,-0.03904,-0.00488,-0.03172,0.0244,-0.11712,-0.16592,-0.13176,-0.0732,-0.03416
-0.06832,0.07076,-0.0732,-0.03904,-0.00488,-0.03172,0.0244,-0.10736,-0.15616,-0.13176,-0.0732,-0.03416
-0.06832,0.06832,-0.06832,-0.03416,0,-0.03416,0.01952,-0.11712,-0.15616,-0.13664,-0.07808,-0.03904
-0.06832,0.06832,-0.06832,-0.03416,0,-0.03416,0.01952,-0.11712,-0.16592,-0.13664,-0.07808,-0.03904
-0.06832,0.06832,-0.06832,-0.03416,0,-0.03416,0.01952,-0.11712,-0.16592,-0.13664,-0.07808,-0.03904
-0.06832,0.06832,-0.06832,-0.03416,0,-0.03416,0.00976,-0.12688,-0.17568,-0.13664,-0.07808,-0.03904
-0.0732,0.07076,-0.06832,-0.03172,0.00488,-0.03904,0.00976,-0.12688,-0.17568,-0.13664,-0.07808,-0.03904
-0.0732,0.07076,-0.06832,-0.03172,0.00488,-0.03904,0.01952,-0.12688,-0.16592,-0.13176,-0.06832,-0.03904
-0.0732,0.07076,-0.06832,-0.03172,0.00488,-0.03904,0.01952,-0.12688,-0.16592,-0.13176,-0.06832,-0.03904
-0.0732,0.07076,-0.06832,-0.03172,0.00488,-0.03904,0.00976,-0.11712,-0.16592,-0.13176,-0.06832,-0.02928
-0.06832,0.06832,-0.06832,-0.03416,0,-0.03416,0.00976,-0.11712,-0.16592,-0.13176,-0.06832,-0.02928
-0.06832,0.061,-0.05368,-0.01952,0.01464,-0.04148,0.0244,-0.11224,-0.15128,-0.12688,-0.06832,-0.03904
-0.05368,0.04392,-0.03416,-0.00732,0.01952,-0.0366,0.0244,-0.10248,-0.14152,-0.11712,-0.05856,-0.03416
-0.05368,0.02928,-0.00488,0.02196,0.0488,-0.05124,0.03416,-0.08784,-0.14152,-0.10736,-0.0488,-0.00976
-0.04392,0.01708,0.00976,0.03172,0.05368,-0.0488,0.04392,-0.08296,-0.12688,-0.0976,-0.03904,0
-0.04392,0.01464,0.01464,0.0366,0.05856,-0.05124,0.04392,-0.07808,-0.122,-0.09272,-0.02928,-0.00976
-0.04392,0.01464,0.01464,0.0366,0.05856,-0.05124,0.0488,-0.0732,-0.122,-0.09272,-0.02928,-0.00976
-0.03416,0.00732,0.01952,0.0366,0.05368,-0.04392,0.04392,-0.06832,-0.122,-0.09272,-0.03904,-0.01464
-0.02928,0.00244,0.0244,0.03904,0.05368,-0.04148,0.04392,-0.06832,-0.11712,-0.09272,-0.03904,-0.01464
-0.02928,-0.00732,0.04392,0.05856,0.0732,-0.05124,0.04392,-0.06832,-0.10248,-0.07808,-0.01464,0.00976
-0.01464,-0.0244,0.06344,0.07076,0.07808,-0.04636,0.03416,-0.07808,-0.0976,-0.06832,-0.00488,0.01952
-0.00488,-0.02928,0.06344,0.06588,0.06832,-0.0366,0.0244,-0.08296,-0.10248,-0.06832,-0.00976,0.01464
-0.00488,-0.0244,0.05368,0.05612,0.05856,-0.03172,0.01464,-0.08784,-0.11224,-0.07808,-0.01952,0.01464
-0.00488,-0.01708,0.03904,0.04148,0.04392,-0.0244,0.01952,-0.09272,-0.11224,-0.07808,-0.0244,0.00488
-0.00488,-0.00976,0.0244,0.02684,0.02928,-0.01708,0.00976,-0.08784,-0.11712,-0.07808,-0.0244,0.00488
0,-0.01464,0.02928,0.02928,0.02928,-0.01464,0.00488,-0.0976,-0.122,-0.0732,-0.01464,0.01464
0,-0.01952,0.03904,0.03904,0.03904,-0.01952,0,-0.0976,-0.12688,-0.0732,-0.01464,0.01952
0.00488,-0.02684,0.0488,0.04636,0.04392,-0.01952,0,-0.09272,-0.12688,-0.08296,-0.00976,0.0244
0.00488,-0.02684,0.0488,0.04636,0.04392,-0.01952,-0.00488,-0.0976,-0.12688,-0.08296,-0.00488,0.02928
-0.01952,-0.00732,0.03416,0.04392,0.05368,-0.0366,-0.00976,-0.08784,-0.12688,-0.08296,-0.00488,0.01952
-0.03904,0.0122,0.01464,0.03416,0.05368,-0.04636,-0.00488,-0.0976,-0.14152,-0.0976,-0.01464,0.00488
-0.05856,0.0366,-0.01464,0.01464,0.04392,-0.05124,0.00488,-0.122,-0.16104,-0.11712,-0.0488,-0.01464
-0.06832,0.05368,-0.03904,-0.00488,0.02928,-0.0488,0.00488,-0.12688,-0.16592,-0.13664,-0.07808,-0.03416
-0.06344,0.06344,-0.06344,-0.03172,0,-0.03172,0.01464,-0.12688,-0.17568,-0.15128,-0.07808,-0.02928
-0.06344,0.06344,-0.06344,-0.03172,0,-0.03172,0.01464,-0.12688,-0.18056,-0.15128,-0.07808,-0.03416
-0.06344,0.06344,-0.06344,-0.03172,0,-0.03172,0.00488,-0.12688,-0.18056,-0.1464,-0.07808,-0.04392
-0.06832,0.07076,-0.0732,-0.03904,-0.00488,-0.03172,0.00488,-0.12688,-0.18056,-0.15128,-0.08296,-0.04392
-0.06832,0.07076,-0.0732,-0.03904,-0.00488,-0.03172,0.00488,-0.12688,-0.18544,-0.14152,-0.0732,-0.03904
-0.06832,0.0732,-0.07808,-0.04392,-0.00976,-0.02928,0.00488,-0.13176,-0.18544,-0.14152,-0.07808,-0.03904
-0.07808,0.0732,-0.06832,-0.02928,0.00976,-0.04392,0.01952,-0.122,-0.18544,-0.15128,-0.07808,-0.03904
-0.08296,0.07564,-0.06832,-0.02684,0.01464,-0.0488,0.01464,-0.122,-0.18544,-0.15128,-0.07808,-0.03904
-0.0732,0.07564,-0.07808,-0.04148,-0.00488,-0.03416,0.00488,-0.12688,-0.18056,-0.1464,-0.06832,-0.03904
-0.0732,0.07808,-0.08296,-0.04636,-0.00976,-0.03172,0.00976,-0.122,-0.17568,-0.1464,-0.06832,-0.03904
-0.0732,0.0732,-0.0732,-0.0366,0,-0.0366,0.01952,-0.13176,-0.17568,-0.1464,-0.06832,-0.03904
-0.0732,0.0732,-0.0732,-0.0366,0,-0.0366,0.01952,-0.13176,-0.17568,-0.1464,-0.06832,-0.03904
-0.0732,0.07808,-0.08296,-0.04636,-0.00976,-0.03172,0.01952,-0.122,-0.16592,-0.1464,-0.06832,-0.03416
-0.08296,0.08052,-0.07808,-0.0366,0.00488,-0.04392,0.03416,-0.10736,-0.16104,-0.1464,-0.07808,-0.05368
-0.0976,0.09028,-0.08296,-0.03416,0.01464,-0.05612,0.08296,-0.0488,-0.13176,-0.15128,-0.08784,-0.0732
-0.122,0.0976,-0.0732,-0.0122,0.0488,-0.0854,0.11224,0.01464,-0.08296,-0.12688,-0.10248,-0.08296
-0.12688,0.09272,-0.05856,0.00488,0.06832,-0.0976,0.11224,0.01464,-0.01464,-0.0732,-0.06344,-0.05368
-0.122,0.09516,-0.06832,-0.00732,0.05368,-0.08784,0.12688,0.0488,0.0732,0.03416,-0.01464,-0.03416
-0.05856,0.05856,-0.05856,-0.02928,0,-0.02928,0.10736,0.13664,0.2684,0.2684,0.14152,0.05368
0.03416,-0.00244,-0.02928,-0.04636,-0.06344,0.0488,0.0732,0.29768,0.5612,0.61488,0.38064,0.18544
0.16592,-0.122,0.07808,-0.00488,-0.08784,0.12688,0,0.41968,0.93696,1.08824,0.72224,0.42944
0.40016,-0.3172,0.23424,0.03416,-0.16592,0.28304,-0.10248,0.55632,1.47376,1.77632,1.1956,0.73688
0.61976,-0.50996,0.40016,0.09028,-0.2196,0.41968,-0.30256,0.35624,1.79584,2.37168,1.66408,1.06872
0.72712,-0.60268,0.47824,0.11468,-0.24888,0.488,-0.45384,0.09272,1.70312,2.4644,1.81536,1.1956
0.7076,-0.60024,0.49288,0.13908,-0.21472,0.46116,-0.55144,-0.23912,1.4396,2.22528,1.66408,1.13216
0.57096,-0.39772,0.22448,-0.061,-0.34648,0.45872,-0.5124,-0.63928,0.71736,1.42984,1.11752,0.78568
0.40504,-0.11712,-0.1708,-0.37332,-0.57584,0.49044,-0.42944,-0.88816,-0.20008,0.42456,0.4148,0.33672
0.2684,0.0732,-0.4148,-0.549,-0.6832,0.4758,-0.36112,-0.94672,-0.8296,-0.34648,-0.05368,0.01952
0.122,0.2318,-0.5856,-0.6466,-0.7076,0.4148,-0.27328,-0.94672,-1.22,-0.8296,-0.40016,-0.18544
0.08784,0.27572,-0.63928,-0.6832,-0.72712,0.40748,-0.2684,-0.9028,-1.21024,-0.89792,-0.48312,-0.24888
0.06344,0.30744,-0.67832,-0.71004,-0.74176,0.4026,-0.24888,-0.85888,-1.18584,-0.90768,-0.54168,-0.30744
-0.01952,0.33184,-0.64416,-0.6344,-0.62464,0.30256,-0.2196,-0.77592,-1.06872,-0.854,-0.53192,-0.33184
-0.06832,0.33184,-0.59536,-0.5612,-0.52704,0.22936,-0.14152,-0.66368,-0.93208,-0.77592,-0.48312,-0.31232
-0.0732,0.27816,-0.48312,-0.44652,-0.40992,0.16836,-0.0976,-0.55632,-0.76128,-0.62952,-0.39528,-0.24888
-0.0732,0.20252,-0.33184,-0.29524,-0.25864,0.09272,-0.05368,-0.4148,-0.5856,-0.4636,-0.27816,-0.18544
-0.07808,0.16104,-0.244,-0.20496,-0.16592,0.04392,0.00976,-0.23424,-0.40992,-0.3416,-0.20008,-0.13176
-0.06832,0.14152,-0.21472,-0.18056,-0.1464,0.03904,0.04392,-0.10736,-0.28304,-0.26352,-0.15128,-0.0976
-0.05368,0.11468,-0.17568,-0.14884,-0.122,0.03416,0.03904,-0.05856,-0.1952,-0.20496,-0.10248,-0.06832
-0.0488,0.09516,-0.14152,-0.11712,-0.09272,0.02196,0.03904,-0.0488,-0.18544,-0.1708,-0.09272,-0.0488
-0.0488,0.07808,-0.10736,-0.08296,-0.05856,0.00488,0.02928,-0.0488,-0.17568,-0.16592,-0.08296,-0.0488
-0.0488,0.07808,-0.10736,-0.08296,-0.05856,0.00488,0.02928,-0.03416,-0.13664,-0.1464,-0.06832,-0.03904
-0.0488,0.0732,-0.0976,-0.0732,-0.0488,0,0.02928,-0.01952,-0.10736,-0.13664,-0.05856,-0.03416
-0.0488,0.07076,-0.09272,-0.06832,-0.04392,-0.00244,0.0244,-0.01952,-0.10736,-0.11224,-0.05368,-0.03416
-0.0488,0.06832,-0.08784,-0.06344,-0.03904,-0.00488,0.0244,-0.01952,-0.11224,-0.10248,-0.0488,-0.02928
-0.03904,0.05856,-0.07808,-0.05856,-0.03904,0,0.0244,-0.01952,-0.10736,-0.10736,-0.03904,-0.0244
-0.03904,0.05612,-0.0732,-0.05368,-0.03416,-0.00244,0.02928,-0.00488,-0.09272,-0.0976,-0.02928,-0.01952
-0.03904,0.05368,-0.06832,-0.0488,-0.02928,-0.00488,0.02928,0,-0.08784,-0.08784,-0.0244,-0.01464
-0.03416,0.05124,-0.06832,-0.05124,-0.03416,0,0.02928,0,-0.08784,-0.08784,-0.0244,-0.01464
-0.03416,0.04392,-0.05368,-0.0366,-0.01952,-0.00732,0.03416,0.00488,-0.08296,-0.07808,-0.01464,-0.00976
-0.02928,0.04148,-0.05368,-0.03904,-0.0244,-0.00244,0.03904,0.01464,-0.07808,-0.0732,-0.01464,-0.00488
-0.02928,0.0366,-0.04392,-0.02928,-0.01464,-0.00732,0.03904,0.00488,-0.07808,-0.06344,0,-0.00488
-0.01952,0.02928,-0.03904,-0.02928,-0.01952,0,0.03904,0.01952,-0.06832,-0.05856,0.00488,0
-0.01952,0.02928,-0.03904,-0.02928,-0.01952,0,0.03904,0.03904,-0.0488,-0.03904,0.00488,0.00488
-0.01464,0.02684,-0.03904,-0.03172,-0.0244,0.00488,0.03904,0.0488,-0.03416,-0.02928,0.00976,0.00976
-0.01464,0.02196,-0.02928,-0.02196,-0.01464,0,0.03904,0.06832,-0.02928,-0.0244,0.00488,0.00976
-0.00976,0.01952,-0.02928,-0.0244,-0.01952,0.00488,0.04392,0.07808,-0.00976,-0.00976,0.01952,0.01464
0.00488,0.00976,-0.0244,-0.02684,-0.02928,0.01708,0.03416,0.09272,0.01464,0,0.03416,0.01952
0.00976,0.00732,-0.0244,-0.02928,-0.03416,0.02196,0.03416,0.10248,0.03416,0.00976,0.04392,0.0244
0.01464,-0.00244,-0.00976,-0.01708,-0.0244,0.01952,0.03416,0.11224,0.0488,0.03904,0.05368,0.03416
0.01952,-0.00976,0,-0.00976,-0.01952,0.01952,0.03416,0.11712,0.08296,0.05856,0.06344,0.03904
0.01952,-0.0122,0.00488,-0.00488,-0.01464,0.01708,0.0244,0.12688,0.10736,0.07808,0.0732,0.0488
0.0244,-0.01464,0.00488,-0.00732,-0.01952,0.02196,0.01952,0.1464,0.13176,0.0976,0.09272,0.05856
0.03904,-0.02928,0.01952,0,-0.01952,0.02928,0.01952,0.16104,0.1708,0.11712,0.0976,0.05368
0.04392,-0.0366,0.02928,0.00732,-0.01464,0.02928,0.01952,0.18056,0.20496,0.15128,0.11224,0.06344
0.05856,-0.0488,0.03904,0.00976,-0.01952,0.03904,0.00976,0.20984,0.22936,0.16592,0.13664,0.0732
0.06832,-0.05612,0.04392,0.00976,-0.0244,0.04636,0.00488,0.23424,0.2684,0.1952,0.15616,0.08296
0.06832,-0.05856,0.0488,0.01464,-0.01952,0.04392,0.01464,0.24888,0.31232,0.22936,0.17568,0.10736
0.07808,-0.06832,0.05856,0.01952,-0.01952,0.0488,0.00976,0.27816,0.35624,0.27328,0.1952,0.122
0.09272,-0.08296,0.0732,0.02684,-0.01952,0.05612,0.00488,0.31232,0.40016,0.30744,0.23424,0.14152
0.10736,-0.10248,0.0976,0.04392,-0.00976,0.05856,-0.00488,0.34648,0.44896,0.34648,0.25864,0.16104
0.12688,-0.11712,0.10736,0.04392,-0.01952,0.0732,-0.01464,0.366,0.488,0.3904,0.27328,0.17568
0.14152,-0.1342,0.12688,0.05612,-0.01464,0.07808,-0.01952,0.39528,0.53192,0.42944,0.30744,0.20008
0.1464,-0.14152,0.13664,0.06344,-0.00976,0.07808,-0.0244,0.43432,0.57096,0.4636,0.33184,0.2196
0.16592,-0.16348,0.16104,0.07808,-0.00488,0.0854,-0.0244,0.45872,0.61,0.49288,0.35624,0.23912
0.16592,-0.16836,0.1708,0.08784,0.00488,0.08052,-0.0244,0.47336,0.63928,0.5124,0.38064,0.24888
0.17568,-0.18056,0.18544,0.0976,0.00976,0.08296,-0.02928,0.49776,0.66856,0.53192,0.40016,0.26352
0.18544,-0.19032,0.1952,0.10248,0.00976,0.08784,-0.02928,0.50264,0.67344,0.55144,0.40992,0.27328
0.19032,-0.20008,0.20984,0.11468,0.01952,0.0854,-0.02928,0.51728,0.68808,0.55632,0.41968,0.28792
0.1952,-0.20496,0.21472,0.11712,0.01952,0.08784,-0.0244,0.52704,0.69784,0.55632,0.42456,0.28792
0.1952,-0.2074,0.2196,0.122,0.0244,0.0854,-0.01952,0.53192,0.70272,0.55632,0.41968,0.2928
0.1952,-0.2074,0.2196,0.122,0.0244,0.0854,-0.02928,0.52216,0.69296,0.55632,0.40992,0.28792
0.1952,-0.20984,0.22448,0.12688,0.02928,0.08296,-0.0244,0.52704,0.67344,0.54168,0.40992,0.28792
0.19032,-0.20252,0.21472,0.11956,0.0244,0.08296,-0.01464,0.51728,0.64416,0.52704,0.40992,0.28792
0.18056,-0.1952,0.20984,0.11956,0.02928,0.07564,-0.00976,0.50264,0.61488,0.49776,0.39528,0.27816
0.1708,-0.18544,0.20008,0.11468,0.02928,0.07076,-0.00488,0.48312,0.5856,0.4636,0.366,0.2684
0.16104,-0.1708,0.18056,0.10004,0.01952,0.07076,0,0.44408,0.54656,0.42456,0.33672,0.244
0.13664,-0.14884,0.16104,0.09272,0.0244,0.05612,0.00976,0.42944,0.49776,0.39528,0.3172,0.22448
0.11712,-0.12932,0.14152,0.08296,0.0244,0.04636,0.0244,0.40504,0.4392,0.35624,0.28792,0.20496
0.10248,-0.11712,0.13176,0.08052,0.02928,0.0366,0.0244,0.37088,0.40016,0.29768,0.24888,0.18056
0.08296,-0.09272,0.10248,0.061,0.01952,0.03172,0.02928,0.32696,0.3416,0.24888,0.21472,0.15128
0.0732,-0.07808,0.08296,0.04636,0.00976,0.03172,0.04392,0.2928,0.2928,0.21472,0.18056,0.13664
0.05856,-0.061,0.06344,0.03416,0.00488,0.02684,0.04392,0.25376,0.23912,0.17568,0.15128,0.11224
0.03904,-0.04148,0.04392,0.0244,0.00488,0.01708,0.03904,0.21472,0.19032,0.122,0.122,0.08784
0.0244,-0.0244,0.0244,0.0122,0,0.0122,0.03904,0.17568,0.1464,0.09272,0.09272,0.06832
0.00976,-0.00488,0,-0.00488,-0.00976,0.00976,0.0488,0.15128,0.11224,0.06832,0.0732,0.05856
0.00488,0.00488,-0.01464,-0.01708,-0.01952,0.0122,0.04392,0.11712,0.06832,0.03416,0.05856,0.0488
-0.01464,0.01708,-0.01952,-0.0122,-0.00488,-0.00488,0.04392,0.10248,0.04392,0,0.0244,0.02928
-0.0244,0.02684,-0.02928,-0.01708,-0.00488,-0.00976,0.03904,0.0732,0.0244,-0.01952,0.00976,0.01464
-0.0244,0.03904,-0.05368,-0.04148,-0.02928,0.00244,0.03904,0.06832,-0.00976,-0.02928,0,0.00488
-0.02928,0.04636,-0.06344,-0.0488,-0.03416,0.00244,0.03416,0.0488,-0.0244,-0.0488,-0.01464,0
-0.03904,0.05124,-0.06344,-0.04392,-0.0244,-0.00732,0.03416,0.02928,-0.03416,-0.05368,-0.01952,-0.01464
-0.03904,0.05368,-0.06832,-0.0488,-0.02928,-0.00488,0.02928,0.01464,-0.05368,-0.06344,-0.02928,-0.0244
-0.04392,0.05124,-0.05856,-0.0366,-0.01464,-0.01464,0.02928,0.00976,-0.05856,-0.06832,-0.02928,-0.01952
-0.04392,0.05368,-0.06344,-0.04148,-0.01952,-0.0122,0.02928,0,-0.06832,-0.0732,-0.03416,-0.01952
-0.04392,0.05368,-0.06344,-0.04148,-0.01952,-0.0122,0.0244,-0.00976,-0.0732,-0.07808,-0.03904,-0.01952
-0.04392,0.05368,-0.06344,-0.04148,-0.01952,-0.0122,0.0244,-0.01464,-0.07808,-0.07808,-0.03904,-0.0244
-0.04392,0.0488,-0.05368,-0.03172,-0.00976,-0.01708,0.01952,-0.01952,-0.08296,-0.08784,-0.0488,-0.03416
-0.04392,0.0488,-0.05368,-0.03172,-0.00976,-0.01708,0.01952,-0.01952,-0.08296,-0.09272,-0.0488,-0.03416
-0.0488,0.04636,-0.04392,-0.01952,0.00488,-0.02684,0.01952,-0.01464,-0.08784,-0.09272,-0.0488,-0.03416
-0.04392,0.04392,-0.04392,-0.02196,0,-0.02196,0.01952,-0.01464,-0.09272,-0.09272,-0.0488,-0.03416
-0.03416,0.03904,-0.04392,-0.02684,-0.00976,-0.0122,0.0244,-0.02928,-0.0976,-0.09272,-0.04392,-0.0244
-0.03416,0.0366,-0.03904,-0.02196,-0.00488,-0.01464,0.0244,-0.02928,-0.0976,-0.0976,-0.04392,-0.01952
-0.03416,0.0366,-0.03904,-0.02196,-0.00488,-0.01464,0.0244,-0.03416,-0.10736,-0.0976,-0.03416,-0.03416
-0.03416,0.03416,-0.03416,-0.01708,0,-0.01708,0.0244,-0.03416,-0.11224,-0.0976,-0.02928,-0.02928
-0.04392,0.0366,-0.02928,-0.00732,0.01464,-0.02928,0.0244,-0.03904,-0.11224,-0.0976,-0.03904,-0.02928
-0.04392,0.03416,-0.0244,-0.00244,0.01952,-0.03172,0.0244,-0.0488,-0.11224,-0.0976,-0.03904,-0.02928
-0.04392,0.0366,-0.02928,-0.00732,0.01464,-0.02928,0.0244,-0.0488,-0.122,-0.0976,-0.03416,-0.01464
-0.04392,0.0366,-0.02928,-0.00732,0.01464,-0.02928,0.0244,-0.05368,-0.122,-0.09272,-0.02928,-0.01464
-0.03416,0.03172,-0.02928,-0.0122,0.00488,-0.01952,0.01464,-0.04392,-0.122,-0.09272,-0.02928,-0.0244
-0.03904,0.03172,-0.0244,-0.00488,0.01464,-0.02684,0.01464,-0.04392,-0.122,-0.09272,-0.02928,-0.0244
-0.04392,0.03416,-0.0244,-0.00244,0.01952,-0.03172,0.01464,-0.0488,-0.13176,-0.08784,-0.0244,-0.0244
-0.0488,0.0366,-0.0244,0,0.0244,-0.0366,0.01464,-0.05368,-0.13664,-0.08784,-0.02928,-0.0244
-0.04392,0.03416,-0.0244,-0.00244,0.01952,-0.03172,0.01464,-0.06344,-0.13664,-0.08784,-0.02928,-0.0244
-0.0488,0.0366,-0.0244,0,0.0244,-0.0366,0.01464,-0.06832,-0.13664,-0.08784,-0.02928,-0.0244
-0.0488,0.0366,-0.0244,0,0.0244,-0.0366,0.01464,-0.05856,-0.13664,-0.08784,-0.02928,-0.0244
-0.0488,0.03904,-0.02928,-0.00488,0.01952,-0.03416,0.01952,-0.05856,-0.13664,-0.08784,-0.02928,-0.02928
-0.0488,0.03904,-0.02928,-0.00488,0.01952,-0.03416,0.01952,-0.06344,-0.13664,-0.0976,-0.02928,-0.02928
-0.05368,0.04392,-0.03416,-0.00732,0.01952,-0.0366,0.01952,-0.06832,-0.14152,-0.0976,-0.02928,-0.02928
-0.05368,0.0488,-0.04392,-0.01708,0.00976,-0.03172,0.01464,-0.06832,-0.14152,-0.0976,-0.01952,-0.02928
-0.05368,0.0488,-0.04392,-0.01708,0.00976,-0.03172,0.01464,-0.06832,-0.14152,-0.0976,-0.01952,-0.03416
-0.0488,0.04636,-0.04392,-0.01952,0.00488,-0.02684,0.01464,-0.06832,-0.1464,-0.0976,-0.02928,-0.03416
-0.0488,0.04636,-0.04392,-0.01952,0.00488,-0.02684,0.01464,-0.0732,-0.1464,-0.0976,-0.03904,-0.03416
-0.05856,0.05368,-0.0488,-0.01952,0.00976,-0.03416,0.0244,-0.0732,-0.14152,-0.0976,-0.03904,-0.03416
-0.06344,0.05612,-0.0488,-0.01708,0.01464,-0.03904,0.0244,-0.07808,-0.14152,-0.0976,-0.04392,-0.03416
-0.06344,0.06344,-0.06344,-0.03172,0,-0.03172,0.01464,-0.07808,-0.14152,-0.10248,-0.04392,-0.03416
-0.06344,0.06344,-0.06344,-0.03172,0,-0.03172,0.01464,-0.08296,-0.14152,-0.10248,-0.04392,-0.03904
-0.06344,0.05856,-0.05368,-0.02196,0.00976,-0.0366,0.01464,-0.08784,-0.14152,-0.10248,-0.04392,-0.03904
-0.06344,0.05856,-0.05368,-0.02196,0.00976,-0.0366,0.01464,-0.08784,-0.14152,-0.10736,-0.04392,-0.03904
-0.06344,0.05856,-0.05368,-0.02196,0.00976,-0.0366,0.01464,-0.10248,-0.1464,-0.11712,-0.05368,-0.03904
-0.06344,0.061,-0.05856,-0.02684,0.00488,-0.03416,0.01464,-0.10248,-0.15128,-0.11712,-0.05368,-0.03904
-0.06344,0.061,-0.05856,-0.02684,0.00488,-0.03416,0.01464,-0.10736,-0.16104,-0.11712,-0.06832,-0.03904
-0.06832,0.06588,-0.06344,-0.02928,0.00488,-0.0366,0.00976,-0.10736,-0.16592,-0.11712,-0.06344,-0.03904
-0.06832,0.06344,-0.05856,-0.0244,0.00976,-0.03904,0.00976,-0.10736,-0.16592,-0.12688,-0.06344,-0.03904
-0.06832,0.06588,-0.06344,-0.02928,0.00488,-0.0366,0.00976,-0.11224,-0.1708,-0.12688,-0.06344,-0.03904
-0.06832,0.06588,-0.06344,-0.02928,0.00488,-0.0366,0.00976,-0.11224,-0.1708,-0.12688,-0.06344,-0.0488
-0.06832,0.06588,-0.06344,-0.02928,0.00488,-0.0366,0.00488,-0.11224,-0.17568,-0.13176,-0.06344,-0.0488
-0.0732,0.07076,-0.06832,-0.03172,0.00488,-0.03904,0.00976,-0.11712,-0.17568,-0.122,-0.06344,-0.05368
-0.06832,0.07076,-0.0732,-0.03904,-0.00488,-0.03172,0.00976,-0.11712,-0.17568,-0.11712,-0.06344,-0.05368
-0.06832,0.06588,-0.06344,-0.02928,0.00488,-0.0366,0.00976,-0.10736,-0.17568,-0.13176,-0.06832,-0.05368
-0.06832,0.06588,-0.06344,-0.02928,0.00488,-0.0366,0.00488,-0.10736,-0.17568,-0.13176,-0.06832,-0.05856
-0.06832,0.06588,-0.06344,-0.02928,0.00488,-0.0366,0.00488,-0.11224,-0.17568,-0.13176,-0.06832,-0.0488
-0.06832,0.06588,-0.06344,-0.02928,0.00488,-0.0366,0.00488,-0.11224,-0.17568,-0.13176,-0.0732,-0.05368
-0.05856,0.05856,-0.05856,-0.02928,0,-0.02928,0.00976,-0.11712,-0.17568,-0.12688,-0.06832,-0.05856
-0.06832,0.06344,-0.05856,-0.0244,0.00976,-0.03904,0.00976,-0.11712,-0.17568,-0.12688,-0.06832,-0.05856
-0.06832,0.06344,-0.05856,-0.0244,0.00976,-0.03904,0.00976,-0.11712,-0.17568,-0.12688,-0.06832,-0.05856
-0.06832,0.06344,-0.05856,-0.0244,0.00976,-0.03904,0.00976,-0.11712,-0.17568,-0.12688,-0.07808,-0.05856
-0.0732,0.06588,-0.05856,-0.02196,0.01464,-0.04392,0.00976,-0.11712,-0.17568,-0.12688,-0.07808,-0.05856
-0.0732,0.06588,-0.05856,-0.02196,0.01464,-0.04392,0.00976,-0.11712,-0.16592,-0.122,-0.07808,-0.05856
-0.0732,0.06588,-0.05856,-0.02196,0.01464,-0.04392,0.00976,-0.11712,-0.16592,-0.122,-0.07808,-0.05856
-0.0732,0.06588,-0.05856,-0.02196,0.01464,-0.04392,0.00976,-0.10736,-0.16592,-0.13176,-0.06832,-0.05856
-0.06832,0.06344,-0.05856,-0.0244,0.00976,-0.03904,0.00976,-0.10736,-0.16592,-0.13176,-0.06832,-0.05856
-0.06832,0.061,-0.05368,-0.01952,0.01464,-0.04148,0.00488,-0.11224,-0.1708,-0.12688,-0.07808,-0.05856
-0.05368,0.04392,-0.03416,-0.00732,0.01952,-0.0366,0.00488,-0.10248,-0.16104,-0.11712,-0.06832,-0.05368
-0.05368,0.02928,-0.00488,0.02196,0.0488,-0.05124,0.0244,-0.08784,-0.15128,-0.10736,-0.05856,-0.03904
-0.04392,0.01708,0.00976,0.03172,0.05368,-0.0488,0.03416,-0.08296,-0.13664,-0.0976,-0.0488,-0.02928
-0.03416,0.00976,0.01464,0.03172,0.0488,-0.04148,0.03416,-0.06832,-0.122,-0.09272,-0.0488,-0.03904
-0.03416,0.00976,0.01464,0.03172,0.0488,-0.04148,0.03904,-0.06344,-0.122,-0.09272,-0.0488,-0.03904
-0.04392,0.0122,0.01952,0.04148,0.06344,-0.05368,0.04392,-0.06832,-0.122,-0.09272,-0.0488,-0.03416
-0.03904,0.00732,0.0244,0.04392,0.06344,-0.05124,0.04392,-0.06832,-0.11712,-0.09272,-0.0488,-0.03416
-0.03904,-0.00244,0.04392,0.06344,0.08296,-0.061,0.04392,-0.05856,-0.10248,-0.06832,-0.03416,-0.01952
-0.0244,-0.01952,0.06344,0.07564,0.08784,-0.05612,0.03416,-0.06832,-0.0976,-0.05856,-0.0244,-0.00976
-0.00488,-0.03416,0.0732,0.07564,0.07808,-0.04148,0.01464,-0.0732,-0.10248,-0.05856,-0.00976,-0.00488
-0.00488,-0.02928,0.06344,0.06588,0.06832,-0.0366,0.00488,-0.07808,-0.11224,-0.06832,-0.01952,-0.00488
-0.01464,-0.0122,0.03904,0.04636,0.05368,-0.03416,0.00976,-0.08296,-0.11224,-0.08784,-0.03416,-0.00488
-0.01464,-0.00488,0.0244,0.03172,0.03904,-0.02684,0,-0.07808,-0.11712,-0.08784,-0.03416,-0.00488
-0.00976,0,0.00976,0.01464,0.01952,-0.01464,-0.00488,-0.07808,-0.11224,-0.08296,-0.0244,-0.01464
-0.00976,-0.00488,0.01952,0.0244,0.02928,-0.01952,-0.00976,-0.07808,-0.11712,-0.08296,-0.0244,-0.00976
0.00488,-0.01708,0.02928,0.02684,0.0244,-0.00976,-0.00976,-0.08296,-0.11712,-0.08296,-0.01952,-0.00488
0.00488,-0.01708,0.02928,0.02684,0.0244,-0.00976,-0.01464,-0.08784,-0.11712,-0.08296,-0.01464,0
-0.01952,-0.00732,0.03416,0.04392,0.05368,-0.0366,-0.01952,-0.08784,-0.11712,-0.08296,-0.0244,0
-0.03904,0.0122,0.01464,0.03416,0.05368,-0.04636,-0.01464,-0.0976,-0.13176,-0.0976,-0.03416,-0.01464
-0.05856,0.0366,-0.01464,0.01464,0.04392,-0.05124,-0.00488,-0.11224,-0.15128,-0.10736,-0.05856,-0.03416
-0.06832,0.05368,-0.03904,-0.00488,0.02928,-0.0488,-0.00488,-0.11712,-0.15616,-0.12688,-0.07808,-0.05368
-0.0732,0.06344,-0.05368,-0.01708,0.01952,-0.04636,-0.00488,-0.12688,-0.17568,-0.14152,-0.08784,-0.06832
-0.0732,0.06344,-0.05368,-0.01708,0.01952,-0.04636,-0.00488,-0.12688,-0.18056,-0.14152,-0.08784,-0.0732
-0.0732,0.06344,-0.05368,-0.01708,0.01952,-0.04636,-0.01464,-0.12688,-0.18056,-0.15616,-0.0976,-0.06344
-0.07808,0.07076,-0.06344,-0.0244,0.01464,-0.04636,-0.01464,-0.12688,-0.18056,-0.16104,-0.10248,-0.06344
-0.07808,0.07076,-0.06344,-0.0244,0.01464,-0.04636,-0.00488,-0.12688,-0.17568,-0.16104,-0.10248,-0.06832
-0.07808,0.0732,-0.06832,-0.02928,0.00976,-0.04392,-0.00488,-0.13176,-0.17568,-0.16104,-0.10736,-0.06832
-0.07808,0.0732,-0.06832,-0.02928,0.00976,-0.04392,-0.00976,-0.13176,-0.17568,-0.16104,-0.0976,-0.07808
-0.08296,0.07564,-0.06832,-0.02684,0.01464,-0.0488,-0.01464,-0.13176,-0.17568,-0.16104,-0.0976,-0.07808
-0.08296,0.07564,-0.06832,-0.02684,0.01464,-0.0488,-0.01464,-0.12688,-0.18056,-0.15616,-0.0976,-0.07808
-0.08296,0.07808,-0.0732,-0.03172,0.00976,-0.04636,-0.00976,-0.122,-0.17568,-0.15616,-0.0976,-0.07808
-0.08296,0.0732,-0.06344,-0.02196,0.01952,-0.05124,0,-0.122,-0.17568,-0.16592,-0.0976,-0.07808
-0.08296,0.0732,-0.06344,-0.02196,0.01952,-0.05124,0,-0.122,-0.17568,-0.16592,-0.0976,-0.07808
-0.08296,0.0732,-0.06344,-0.02196,0.01952,-0.05124,-0.00976,-0.13176,-0.17568,-0.16592,-0.10736,-0.0732
-0.09272,0.07564,-0.05856,-0.0122,0.03416,-0.06344,0.01464,-0.10736,-0.1708,-0.16592,-0.10736,-0.08296
-0.11712,0.0854,-0.05368,0.00488,0.06344,-0.09028,0.05368,-0.07808,-0.16104,-0.1708,-0.11712,-0.09272
-0.122,0.08296,-0.04392,0.01708,0.07808,-0.10004,0.09272,-0.00488,-0.11224,-0.16592,-0.13176,-0.11224
-0.13664,0.07808,-0.01952,0.0488,0.11712,-0.12688,0.10248,0.00488,-0.06344,-0.13176,-0.122,-0.10248
-0.13176,0.07564,-0.01952,0.04636,0.11224,-0.122,0.10736,0.00976,0.00488,-0.05368,-0.09272,-0.09272
-0.0976,0.05368,-0.00976,0.03904,0.08784,-0.09272,0.0976,0.08784,0.18056,0.16104,0.04392,-0.01464
0.00488,-0.0122,0.01952,0.01708,0.01464,-0.00488,0.06344,0.25864,0.48312,0.49776,0.26352,0.10736
0.13664,-0.13176,0.12688,0.05856,-0.00976,0.0732,-0.00976,0.36112,0.84912,0.94184,0.5856,0.31232
0.3416,-0.32208,0.30256,0.13176,-0.03904,0.19032,-0.09272,0.51728,1.40544,1.59088,1.01992,0.60024
0.57096,-0.51972,0.46848,0.183,-0.10248,0.33672,-0.31232,0.37576,1.8544,2.27408,1.51768,0.9516
0.72712,-0.65148,0.57584,0.21228,-0.15128,0.4392,-0.5124,0.11224,1.86904,2.52296,1.77632,1.1468
0.74664,-0.66856,0.59048,0.21716,-0.15616,0.4514,-0.60024,-0.15128,1.72264,2.36192,1.6836,1.1224
0.63928,-0.50996,0.38064,0.061,-0.25864,0.44896,-0.61,-0.54168,1.07848,1.67384,1.22488,0.82472
0.47336,-0.20496,-0.06344,-0.30012,-0.5368,0.50508,-0.54656,-0.84912,0.10248,0.64904,0.52216,0.37576
0.3172,0.0244,-0.366,-0.5246,-0.6832,0.5002,-0.46848,-0.96624,-0.66368,-0.20008,0.00488,0.0488
0.19032,0.19764,-0.5856,-0.68076,-0.77592,0.48312,-0.36112,-0.96624,-1.19072,-0.80032,-0.3904,-0.21472
0.12688,0.24644,-0.61976,-0.6832,-0.74664,0.43676,-0.366,-0.96136,-1.2688,-0.9272,-0.52216,-0.30744
0.08296,0.28792,-0.6588,-0.70028,-0.74176,0.41236,-0.33672,-0.88816,-1.18584,-0.9272,-0.58072,-0.366
0.01952,0.30256,-0.62464,-0.6344,-0.64416,0.33184,-0.29768,-0.82472,-1.10776,-0.88328,-0.5612,-0.37088
-0.0488,0.31232,-0.57584,-0.55144,-0.52704,0.23912,-0.20008,-0.70272,-0.96136,-0.8052,-0.53192,-0.35136
-0.06344,0.25376,-0.44408,-0.41236,-0.38064,0.1586,-0.15616,-0.5856,-0.7808,-0.66856,-0.43432,-0.29768
-0.06344,0.17324,-0.28304,-0.25132,-0.2196,0.07808,-0.10248,-0.43432,-0.60512,-0.5124,-0.33672,-0.22448
-0.07808,0.14152,-0.20496,-0.16592,-0.12688,0.0244,-0.00976,-0.27328,-0.4392,-0.38064,-0.24888,-0.16104
-0.07808,0.13176,-0.18544,-0.1464,-0.10736,0.01464,0.03416,-0.11712,-0.30256,-0.28304,-0.19032,-0.13664
-0.0732,0.1098,-0.1464,-0.1098,-0.0732,0,0.02928,-0.03904,-0.21472,-0.23424,-0.15128,-0.10736
-0.07808,0.09028,-0.10248,-0.06344,-0.0244,-0.02684,0.01952,-0.0488,-0.20496,-0.20984,-0.13176,-0.0976
-0.07808,0.08784,-0.0976,-0.05856,-0.01952,-0.02928,0.01952,-0.0488,-0.1952,-0.1952,-0.122,-0.08784
-0.06832,0.08296,-0.0976,-0.06344,-0.02928,-0.01952,0.01952,-0.04392,-0.16592,-0.18544,-0.11712,-0.08784
-0.06832,0.07808,-0.08784,-0.05368,-0.01952,-0.0244,0.01952,-0.02928,-0.13664,-0.17568,-0.10736,-0.08296
-0.06832,0.06588,-0.06344,-0.02928,0.00488,-0.0366,0.01464,-0.02928,-0.12688,-0.16104,-0.10248,-0.08296
-0.06832,0.06344,-0.05856,-0.0244,0.00976,-0.03904,0.01464,-0.02928,-0.13176,-0.15128,-0.0976,-0.07808
-0.06832,0.06344,-0.05856,-0.0244,0.00976,-0.03904,0.01464,-0.01952,-0.12688,-0.1464,-0.0976,-0.0732
-0.06832,0.061,-0.05368,-0.01952,0.01464,-0.04148,0.01952,-0.00488,-0.11224,-0.13664,-0.08784,-0.06832
-0.06832,0.05856,-0.0488,-0.01464,0.01952,-0.04392,0.02928,0,-0.0976,-0.12688,-0.08296,-0.06344
-0.06344,0.05612,-0.0488,-0.01708,0.01464,-0.03904,0.02928,0,-0.0976,-0.12688,-0.08296,-0.06344
-0.06344,0.05368,-0.04392,-0.0122,0.01952,-0.04148,0.0244,0.01464,-0.09272,-0.11712,-0.06344,-0.0488
-0.05856,0.05124,-0.04392,-0.01464,0.01464,-0.0366,0.02928,0.0244,-0.08784,-0.11224,-0.06344,-0.04392
-0.05856,0.05124,-0.04392,-0.01464,0.01464,-0.0366,0.03904,0.01464,-0.08784,-0.09272,-0.06832,-0.04392
-0.0488,0.04392,-0.03904,-0.01464,0.00976,-0.02928,0.03904,0.02928,-0.07808,-0.08784,-0.06344,-0.03904
-0.0488,0.04392,-0.03904,-0.01464,0.00976,-0.02928,0.03904,0.03904,-0.06832,-0.08784,-0.05368,-0.04392
-0.04392,0.04148,-0.03904,-0.01708,0.00488,-0.0244,0.03904,0.0488,-0.05368,-0.07808,-0.0488,-0.03904
-0.04392,0.0366,-0.02928,-0.00732,0.01464,-0.02928,0.03904,0.06832,-0.03904,-0.06344,-0.05368,-0.02928
-0.03904,0.03416,-0.02928,-0.00976,0.00976,-0.0244,0.04392,0.07808,-0.01952,-0.0488,-0.03904,-0.0244
-0.03416,0.02928,-0.0244,-0.00732,0.00976,-0.02196,0.04392,0.09272,-0.00488,-0.03904,-0.03416,-0.01952
-0.02928,0.02684,-0.0244,-0.00976,0.00488,-0.01708,0.04392,0.10248,0.01464,-0.02928,-0.0244,-0.01464
-0.03416,0.02684,-0.01952,-0.00244,0.01464,-0.0244,0.04392,0.122,0.03904,-0.00976,-0.01464,-0.01464
-0.02928,0.01952,-0.00976,0.00488,0.01952,-0.0244,0.04392,0.13664,0.0732,0.00976,-0.00488,-0.00976
-0.01952,0.00732,0.00488,0.01464,0.0244,-0.02196,0.04392,0.1464,0.10736,0.02928,0.00488,0
-0.01464,0.00488,0.00488,0.0122,0.01952,-0.01708,0.03904,0.16592,0.13176,0.0488,0.0244,0.00976
0,-0.00488,0.00976,0.00976,0.00976,-0.00488,0.03904,0.19032,0.15128,0.06832,0.02928,0.0244
0.00488,-0.0122,0.01952,0.01708,0.01464,-0.00488,0.03904,0.20984,0.18544,0.10248,0.04392,0.03416
0.01952,-0.02928,0.03904,0.02928,0.01952,0,0.03904,0.22936,0.2196,0.12688,0.06832,0.04392
0.02928,-0.0366,0.04392,0.02928,0.01464,0.00732,0.03416,0.25376,0.25864,0.15616,0.08784,0.05368
0.03904,-0.0488,0.05856,0.03904,0.01952,0.00976,0.0244,0.28792,0.30256,0.18056,0.10736,0.06832
0.0488,-0.05856,0.06832,0.04392,0.01952,0.01464,0.01952,0.3172,0.34648,0.22448,0.12688,0.08296
0.05368,-0.0732,0.09272,0.06588,0.03904,0.00732,0.01464,0.35136,0.3904,0.2684,0.1464,0.10248
0.06832,-0.09272,0.11712,0.08296,0.0488,0.00976,0.00488,0.38552,0.4392,0.30744,0.1708,0.122
0.07808,-0.10248,0.12688,0.08784,0.0488,0.01464,0.01464,0.40504,0.488,0.3416,0.20496,0.12688
0.09272,-0.11956,0.1464,0.10004,0.05368,0.01952,0.00976,0.43432,0.53192,0.38064,0.23912,0.15128
0.10736,-0.13664,0.16592,0.11224,0.05856,0.0244,0.00488,0.47336,0.58072,0.4148,0.25376,0.1708
0.12688,-0.1586,0.19032,0.12688,0.06344,0.03172,0.00488,0.49776,0.61976,0.44408,0.27816,0.19032
0.13664,-0.17324,0.20984,0.14152,0.0732,0.03172,-0.00488,0.52216,0.63928,0.4636,0.2928,0.19032
0.1464,-0.19032,0.23424,0.16104,0.08784,0.02928,-0.00976,0.54656,0.6588,0.48312,0.31232,0.20496
0.15616,-0.20008,0.244,0.16592,0.08784,0.03416,0,0.5612,0.6832,0.50264,0.32208,0.22448
0.16104,-0.20984,0.25864,0.17812,0.0976,0.03172,0,0.57584,0.69784,0.50752,0.33184,0.23912
0.16592,-0.21472,0.26352,0.18056,0.0976,0.03416,0.00488,0.5856,0.7076,0.50752,0.33672,0.23912
0.16592,-0.21716,0.2684,0.18544,0.10248,0.03172,0.00976,0.59048,0.71248,0.50752,0.3416,0.244
0.16592,-0.22204,0.27816,0.1952,0.11224,0.02684,0,0.58072,0.70272,0.50752,0.33184,0.23912
0.16592,-0.22448,0.28304,0.20008,0.11712,0.0244,0.00488,0.5856,0.69296,0.49288,0.33184,0.23912
0.1708,-0.22692,0.28304,0.19764,0.11224,0.02928,0.00488,0.57584,0.67344,0.47824,0.33184,0.22936
0.16104,-0.2196,0.27816,0.19764,0.11712,0.02196,0.00976,0.5612,0.64416,0.44896,0.3172,0.2196
0.16104,-0.2196,0.27816,0.19764,0.11712,0.02196,0.01464,0.54168,0.59536,0.42456,0.28792,0.20984
0.15128,-0.20496,0.25864,0.183,0.10736,0.02196,0.01952,0.50264,0.55632,0.38552,0.25864,0.18544
0.12688,-0.18788,0.24888,0.18544,0.122,0.00244,0.01952,0.46848,0.50752,0.33672,0.22936,0.16592
0.10736,-0.16836,0.22936,0.17568,0.122,-0.00732,0.03416,0.43432,0.44896,0.28792,0.20008,0.1464
0.09272,-0.15128,0.20984,0.16348,0.11712,-0.0122,0.03416,0.40016,0.40016,0.24888,0.16104,0.122
0.0732,-0.12688,0.18056,0.14396,0.10736,-0.01708,0.03904,0.35624,0.3416,0.20008,0.12688,0.09272
0.05368,-0.10736,0.16104,0.1342,0.10736,-0.02684,0.03416,0.30256,0.28304,0.15616,0.09272,0.07808
0.03904,-0.09028,0.14152,0.122,0.10248,-0.03172,0.03416,0.26352,0.22936,0.11712,0.06344,0.05368
0.02928,-0.07076,0.11224,0.0976,0.08296,-0.02684,0.03904,0.22448,0.1708,0.06344,0.03416,0.02928
0.01464,-0.05368,0.09272,0.0854,0.07808,-0.03172,0.03904,0.18544,0.12688,0.03416,0.00488,0.00976
-0.00976,-0.02928,0.06832,0.0732,0.07808,-0.04392,0.0488,0.14152,0.09272,0,-0.0244,0
-0.01464,-0.01952,0.05368,0.061,0.06832,-0.04148,0.04392,0.0976,0.0488,-0.03416,-0.03904,-0.00976
-0.0244,-0.00732,0.03904,0.05124,0.06344,-0.04392,0.03416,0.08296,0.01464,-0.05856,-0.06344,-0.01952
-0.03416,0.00244,0.02928,0.04636,0.06344,-0.0488,0.02928,0.05368,-0.01464,-0.07808,-0.07808,-0.03416
-0.04392,0.00976,0.0244,0.04636,0.06832,-0.05612,0.03904,0.03904,-0.03904,-0.08784,-0.07808,-0.04392
-0.0488,0.01708,0.01464,0.03904,0.06344,-0.05612,0.03416,0.01952,-0.05368,-0.10736,-0.09272,-0.0488
-0.0488,0.02196,0.00488,0.02928,0.05368,-0.05124,0.03416,0,-0.0732,-0.122,-0.10736,-0.05368
-0.0488,0.0244,0,0.0244,0.0488,-0.0488,0.02928,-0.01464,-0.09272,-0.13176,-0.11712,-0.06344
-0.05368,0.03172,-0.00976,0.01708,0.04392,-0.0488,0.02928,-0.01952,-0.08784,-0.1464,-0.12688,-0.07808
-0.05368,0.03416,-0.01464,0.0122,0.03904,-0.04636,0.02928,-0.02928,-0.0976,-0.15128,-0.13176,-0.07808
-0.05368,0.03416,-0.01464,0.0122,0.03904,-0.04636,0.0244,-0.03904,-0.11224,-0.1464,-0.12688,-0.07808
-0.05368,0.03416,-0.01464,0.0122,0.03904,-0.04636,0.0244,-0.04392,-0.11712,-0.1464,-0.12688,-0.08296
-0.05368,0.03904,-0.0244,0.00244,0.02928,-0.04148,0.01952,-0.03904,-0.13176,-0.1464,-0.11712,-0.0732
-0.05368,0.03904,-0.0244,0.00244,0.02928,-0.04148,0.01952,-0.03904,-0.13176,-0.15128,-0.11712,-0.06344
-0.05856,0.0366,-0.01464,0.01464,0.04392,-0.05124,0.01952,-0.05368,-0.13664,-0.15128,-0.12688,-0.0732
-0.05368,0.03416,-0.01464,0.0122,0.03904,-0.04636,0.01952,-0.05368,-0.14152,-0.15128,-0.12688,-0.0732
-0.05368,0.03904,-0.0244,0.00244,0.02928,-0.04148,0.01464,-0.05856,-0.13664,-0.15128,-0.122,-0.06344
-0.05368,0.0366,-0.01952,0.00732,0.03416,-0.04392,0.01464,-0.05856,-0.13664,-0.15616,-0.122,-0.05856
-0.05368,0.0366,-0.01952,0.00732,0.03416,-0.04392,0.01464,-0.06344,-0.13664,-0.15616,-0.11224,-0.06344
-0.05368,0.03416,-0.01464,0.0122,0.03904,-0.04636,0.01464,-0.06344,-0.14152,-0.15616,-0.10736,-0.05856
-0.06344,0.0366,-0.00976,0.02196,0.05368,-0.05856,0.01464,-0.05856,-0.14152,-0.15616,-0.10736,-0.05856
-0.06344,0.03416,-0.00488,0.02684,0.05856,-0.061,0.01464,-0.06832,-0.14152,-0.15616,-0.10736,-0.05856
-0.05368,0.03172,-0.00976,0.01708,0.04392,-0.0488,0.01464,-0.06832,-0.14152,-0.15616,-0.11224,-0.05368
-0.05368,0.03172,-0.00976,0.01708,0.04392,-0.0488,0.01464,-0.0732,-0.14152,-0.15128,-0.10736,-0.05368
-0.06344,0.0366,-0.00976,0.02196,0.05368,-0.05856,0.0244,-0.0732,-0.13176,-0.14152,-0.0976,-0.05368
-0.06832,0.0366,-0.00488,0.02928,0.06344,-0.06588,0.0244,-0.0732,-0.13176,-0.14152,-0.0976,-0.05368
-0.0732,0.04392,-0.01464,0.02196,0.05856,-0.06588,0.01464,-0.07808,-0.14152,-0.1464,-0.09272,-0.04392
-0.07808,0.04636,-0.01464,0.0244,0.06344,-0.07076,0.01464,-0.08296,-0.1464,-0.1464,-0.0976,-0.04392
-0.06344,0.03904,-0.01464,0.01708,0.0488,-0.05612,0.01464,-0.08296,-0.13664,-0.13664,-0.08784,-0.04392
-0.06832,0.04148,-0.01464,0.01952,0.05368,-0.061,0.01464,-0.08784,-0.13664,-0.13664,-0.08784,-0.04392
-0.06832,0.04148,-0.01464,0.01952,0.05368,-0.061,0.0244,-0.08784,-0.1464,-0.13664,-0.08784,-0.04392
-0.06832,0.04392,-0.01952,0.01464,0.0488,-0.05856,0.02928,-0.08784,-0.1464,-0.13664,-0.08784,-0.0488
-0.06832,0.04392,-0.01952,0.01464,0.0488,-0.05856,0.01952,-0.09272,-0.13664,-0.13664,-0.08784,-0.05856
-0.0732,0.0488,-0.0244,0.0122,0.0488,-0.061,0.01952,-0.0976,-0.14152,-0.13664,-0.08784,-0.05856
-0.0732,0.04392,-0.01464,0.02196,0.05856,-0.06588,0.0244,-0.08784,-0.14152,-0.13664,-0.0976,-0.0488
-0.0732,0.04392,-0.01464,0.02196,0.05856,-0.06588,0.0244,-0.08784,-0.14152,-0.13664,-0.0976,-0.05368
-0.06832,0.04148,-0.01464,0.01952,0.05368,-0.061,0.0244,-0.0976,-0.1464,-0.1464,-0.10736,-0.06344
-0.06832,0.04148,-0.01464,0.01952,0.05368,-0.061,0.0244,-0.10248,-0.1464,-0.1464,-0.11712,-0.06344
-0.06832,0.04392,-0.01952,0.01464,0.0488,-0.05856,0.01464,-0.10248,-0.15128,-0.1464,-0.10736,-0.06344
-0.0732,0.04636,-0.01952,0.01708,0.05368,-0.06344,0.01464,-0.10736,-0.15128,-0.1464,-0.11224,-0.06344
-0.08296,0.05368,-0.0244,0.01708,0.05856,-0.07076,0.01464,-0.0976,-0.15128,-0.14152,-0.10248,-0.0732
-0.08296,0.05368,-0.0244,0.01708,0.05856,-0.07076,0.01464,-0.10248,-0.15128,-0.14152,-0.10248,-0.07808
-0.08296,0.0488,-0.01464,0.02684,0.06832,-0.07564,0.01464,-0.10736,-0.16104,-0.15128,-0.11224,-0.07808
-0.08296,0.0488,-0.01464,0.02684,0.06832,-0.07564,0.01464,-0.10736,-0.16104,-0.15616,-0.11224,-0.07808
-0.08296,0.0488,-0.01464,0.02684,0.06832,-0.07564,0.01464,-0.11224,-0.15616,-0.1464,-0.11224,-0.06832
-0.08296,0.05124,-0.01952,0.02196,0.06344,-0.0732,0.01464,-0.11224,-0.16104,-0.1464,-0.11224,-0.06832
-0.08296,0.05124,-0.01952,0.02196,0.06344,-0.0732,0.01464,-0.11712,-0.16104,-0.15616,-0.11712,-0.07808
-0.08784,0.05612,-0.0244,0.01952,0.06344,-0.07564,0.00976,-0.11712,-0.16592,-0.15616,-0.11224,-0.07808
-0.08784,0.05368,-0.01952,0.0244,0.06832,-0.07808,0.00976,-0.11712,-0.16592,-0.15616,-0.122,-0.08784
-0.08784,0.05612,-0.0244,0.01952,0.06344,-0.07564,0.00976,-0.122,-0.1708,-0.15616,-0.122,-0.08784
-0.08784,0.05612,-0.0244,0.01952,0.06344,-0.07564,0.00976,-0.122,-0.1708,-0.15616,-0.122,-0.08784
-0.08784,0.05612,-0.0244,0.01952,0.06344,-0.07564,0.00488,-0.122,-0.17568,-0.16104,-0.122,-0.08784
-0.08296,0.05124,-0.01952,0.02196,0.06344,-0.0732,0.00976,-0.12688,-0.17568,-0.16104,-0.122,-0.09272
-0.07808,0.05124,-0.0244,0.01464,0.05368,-0.06588,0.00976,-0.12688,-0.17568,-0.15616,-0.122,-0.09272
-0.08784,0.05612,-0.0244,0.01952,0.06344,-0.07564,0,-0.11712,-0.17568,-0.16104,-0.11712,-0.08296
-0.08784,0.05612,-0.0244,0.01952,0.06344,-0.07564,-0.00488,-0.11712,-0.17568,-0.16104,-0.11712,-0.08784
-0.08784,0.061,-0.03416,0.00976,0.05368,-0.07076,0.00488,-0.122,-0.17568,-0.16104,-0.11712,-0.08784
-0.08784,0.061,-0.03416,0.00976,0.05368,-0.07076,0.00488,-0.122,-0.17568,-0.16104,-0.122,-0.09272
-0.08784,0.061,-0.03416,0.00976,0.05368,-0.07076,0.00488,-0.12688,-0.1708,-0.16104,-0.122,-0.08296
-0.08784,0.061,-0.03416,0.00976,0.05368,-0.07076,0.00488,-0.12688,-0.17568,-0.16104,-0.122,-0.08296
-0.07808,0.0488,-0.01952,0.01952,0.05856,-0.06832,0,-0.12688,-0.17568,-0.16592,-0.12688,-0.08784
-0.08784,0.05856,-0.02928,0.01464,0.05856,-0.0732,0,-0.12688,-0.17568,-0.16592,-0.12688,-0.08784
-0.08784,0.05856,-0.02928,0.01464,0.05856,-0.0732,0,-0.12688,-0.17568,-0.16592,-0.12688,-0.08784
-0.07808,0.05368,-0.02928,0.00976,0.0488,-0.06344,0,-0.13664,-0.17568,-0.16592,-0.12688,-0.08784
-0.08296,0.05612,-0.02928,0.0122,0.05368,-0.06832,0,-0.13664,-0.17568,-0.16592,-0.12688,-0.08784
-0.08296,0.05612,-0.02928,0.0122,0.05368,-0.06832,0,-0.12688,-0.17568,-0.16104,-0.12688,-0.08784
-0.08296,0.05612,-0.02928,0.0122,0.05368,-0.06832,0,-0.12688,-0.17568,-0.16104,-0.12688,-0.08784
-0.08296,0.05124,-0.01952,0.02196,0.06344,-0.0732,0,-0.13664,-0.17568,-0.16104,-0.12688,-0.08784
-0.07808,0.0488,-0.01952,0.01952,0.05856,-0.06832,0,-0.13664,-0.17568,-0.16104,-0.12688,-0.08784
-0.07808,0.05124,-0.0244,0.01464,0.05368,-0.06588,0.00488,-0.13176,-0.18056,-0.16592,-0.12688,-0.08784
-0.06344,0.03416,-0.00488,0.02684,0.05856,-0.061,0.00488,-0.122,-0.1708,-0.15616,-0.11712,-0.08296
-0.06344,0.01952,0.0244,0.05612,0.08784,-0.07564,0.01464,-0.10736,-0.15128,-0.13664,-0.10736,-0.07808
-0.05368,0.00732,0.03904,0.06588,0.09272,-0.0732,0.0244,-0.10248,-0.13664,-0.12688,-0.0976,-0.06832
-0.05368,0.00488,0.04392,0.07076,0.0976,-0.07564,0.03416,-0.0976,-0.13176,-0.122,-0.08784,-0.05856
-0.05368,0.00488,0.04392,0.07076,0.0976,-0.07564,0.03904,-0.09272,-0.13176,-0.122,-0.08784,-0.05856
-0.06344,0.00732,0.0488,0.08052,0.11224,-0.08784,0.03416,-0.07808,-0.13176,-0.122,-0.08784,-0.06344
-0.05856,0.00244,0.05368,0.08296,0.11224,-0.0854,0.03416,-0.06832,-0.12688,-0.122,-0.08784,-0.06344
-0.0488,-0.01708,0.08296,0.10736,0.13176,-0.09028,0.0244,-0.06832,-0.122,-0.11712,-0.08296,-0.0488
-0.0244,-0.03904,0.10248,0.11468,0.12688,-0.07564,0.01464,-0.07808,-0.11712,-0.10736,-0.0732,-0.03904
-0.0244,-0.03904,0.10248,0.11468,0.12688,-0.07564,0.00488,-0.09272,-0.11224,-0.10736,-0.06832,-0.03416
-0.0244,-0.03416,0.09272,0.10492,0.11712,-0.07076,-0.00488,-0.0976,-0.122,-0.11712,-0.07808,-0.03416
-0.01464,-0.03172,0.07808,0.0854,0.09272,-0.05368,-0.00976,-0.10248,-0.13176,-0.11712,-0.08296,-0.04392
-0.01464,-0.0244,0.06344,0.07076,0.07808,-0.04636,-0.01952,-0.0976,-0.13664,-0.11712,-0.08296,-0.04392
-0.01952,-0.01952,0.05856,0.06832,0.07808,-0.0488,-0.01464,-0.0976,-0.13176,-0.122,-0.08296,-0.04392
-0.01952,-0.0244,0.06832,0.07808,0.08784,-0.05368,-0.01952,-0.0976,-0.13664,-0.122,-0.08296,-0.03904
-0.01464,-0.02684,0.06832,0.07564,0.08296,-0.0488,-0.02928,-0.11224,-0.13664,-0.11224,-0.07808,-0.03416
-0.01464,-0.02684,0.06832,0.07564,0.08296,-0.0488,-0.03416,-0.11712,-0.13664,-0.11224,-0.0732,-0.02928
-0.02928,-0.02196,0.0732,0.08784,0.10248,-0.06588,-0.03904,-0.11712,-0.1464,-0.122,-0.0732,-0.03904
-0.0488,-0.00244,0.05368,0.07808,0.10248,-0.07564,-0.03416,-0.12688,-0.16104,-0.13664,-0.08296,-0.05368
-0.06832,0.02196,0.0244,0.05856,0.09272,-0.08052,-0.01464,-0.13176,-0.18056,-0.15616,-0.0976,-0.06344
-0.07808,0.03904,0,0.03904,0.07808,-0.07808,-0.01464,-0.13664,-0.18544,-0.17568,-0.11712,-0.08296
-0.08296,0.0488,-0.01464,0.02684,0.06832,-0.07564,-0.01464,-0.1464,-0.1952,-0.18056,-0.13664,-0.08784
-0.08296,0.0488,-0.01464,0.02684,0.06832,-0.07564,-0.01464,-0.1464,-0.20008,-0.18056,-0.13664,-0.09272
-0.08296,0.05368,-0.0244,0.01708,0.05856,-0.07076,-0.01464,-0.13664,-0.19032,-0.18544,-0.13664,-0.10248
-0.08784,0.061,-0.03416,0.00976,0.05368,-0.07076,-0.01464,-0.13664,-0.19032,-0.19032,-0.14152,-0.10248
-0.08784,0.061,-0.03416,0.00976,0.05368,-0.07076,-0.01464,-0.1464,-0.20496,-0.19032,-0.14152,-0.0976
-0.08784,0.06344,-0.03904,0.00488,0.0488,-0.06832,-0.01464,-0.15128,-0.20496,-0.19032,-0.1464,-0.0976
-0.0976,0.06832,-0.03904,0.00976,0.05856,-0.07808,-0.00976,-0.14152,-0.20496,-0.19032,-0.1464,-0.0976
-0.10248,0.07076,-0.03904,0.0122,0.06344,-0.08296,-0.01464,-0.14152,-0.20496,-0.19032,-0.1464,-0.0976
-0.09272,0.06588,-0.03904,0.00732,0.05368,-0.0732,-0.01464,-0.1464,-0.20008,-0.1952,-0.1464,-0.0976
-0.09272,0.06832,-0.04392,0.00244,0.0488,-0.07076,-0.00976,-0.14152,-0.1952,-0.1952,-0.1464,-0.0976
-0.09272,0.06832,-0.04392,0.00244,0.0488,-0.07076,-0.00976,-0.14152,-0.20496,-0.1952,-0.1464,-0.0976
-0.09272,0.06832,-0.04392,0.00244,0.0488,-0.07076,-0.00976,-0.14152,-0.20496,-0.1952,-0.1464,-0.0976
-0.09272,0.06832,-0.04392,0.00244,0.0488,-0.07076,0,-0.14152,-0.20496,-0.1952,-0.1464,-0.10248
-0.11224,0.07564,-0.03904,0.01708,0.0732,-0.09272,0.01464,-0.12688,-0.20008,-0.1952,-0.15616,-0.11224
-0.11712,0.07564,-0.03416,0.0244,0.08296,-0.10004,0.05368,-0.07808,-0.18056,-0.20984,-0.17568,-0.122
-0.14152,0.08784,-0.03416,0.0366,0.10736,-0.12444,0.09272,-0.01464,-0.13176,-0.1952,-0.1708,-0.14152
-0.1464,0.08296,-0.01952,0.05368,0.12688,-0.13664,0.10248,-0.00488,-0.08296,-0.15128,-0.15128,-0.122
-0.14152,0.0854,-0.02928,0.04148,0.11224,-0.12688,0.10736,0.00976,-0.00488,-0.06344,-0.11224,-0.10248
-0.0976,0.05368,-0.00976,0.03904,0.08784,-0.09272,0.0976,0.08784,0.16104,0.14152,0.0244,-0.0244
-0.01464,-0.00244,0.01952,0.02684,0.03416,-0.0244,0.06344,0.27816,0.48312,0.47824,0.25376,0.10736
0.12688,-0.13664,0.1464,0.08296,0.01952,0.05368,-0.00976,0.37088,0.85888,0.92232,0.55632,0.30256
0.3416,-0.33184,0.32208,0.15128,-0.01952,0.18056,-0.11224,0.50752,1.40544,1.57136,0.99064,0.60024
0.60024,-0.53924,0.47824,0.17812,-0.122,0.36112,-0.3416,0.34648,1.79584,2.21552,1.4884,0.94184
0.74664,-0.66612,0.5856,0.21228,-0.16104,0.45384,-0.54168,0.0732,1.79096,2.4156,1.708,1.12728
0.74664,-0.66856,0.59048,0.21716,-0.15616,0.4514,-0.61976,-0.16104,1.64456,2.22528,1.60552,1.08336
0.6588,-0.50996,0.36112,0.03172,-0.29768,0.47824,-0.64904,-0.58072,0.96136,1.49816,1.12728,0.77592
0.50264,-0.20984,-0.08296,-0.33428,-0.5856,0.54412,-0.5856,-0.89792,0.01464,0.50264,0.43432,0.33672
0.34648,0.0244,-0.39528,-0.56852,-0.74176,0.54412,-0.49776,-1.0248,-0.7808,-0.32696,-0.09272,0
0.20008,0.19276,-0.5856,-0.68564,-0.78568,0.49288,-0.40992,-1.04432,-1.23952,-0.86864,-0.46848,-0.26352
0.12688,0.25132,-0.62952,-0.69296,-0.7564,0.44164,-0.40504,-1.01016,-1.29808,-0.98576,-0.60024,-0.34648
0.09272,0.28304,-0.6588,-0.70516,-0.75152,0.42212,-0.37576,-0.93696,-1.23464,-0.976,-0.64904,-0.4148
0.01952,0.30256,-0.62464,-0.6344,-0.64416,0.33184,-0.30744,-0.854,-1.12728,-0.91256,-0.62952,-0.40992
-0.05856,0.30744,-0.55632,-0.52704,-0.49776,0.2196,-0.20008,-0.71248,-0.96136,-0.83448,-0.58072,-0.3904
-0.06344,0.23424,-0.40504,-0.37332,-0.3416,0.13908,-0.15616,-0.59536,-0.77104,-0.67832,-0.48312,-0.33672
-0.06344,0.16836,-0.27328,-0.24156,-0.20984,0.0732,-0.11224,-0.42456,-0.61488,-0.53192,-0.37576,-0.25376
-0.07808,0.13664,-0.1952,-0.15616,-0.11712,0.01952,-0.02928,-0.26352,-0.4392,-0.40016,-0.28792,-0.19032
-0.08784,0.122,-0.15616,-0.11224,-0.06832,-0.00976,0.0244,-0.11712,-0.2928,-0.31232,-0.2196,-0.15616
-0.0732,0.09028,-0.10736,-0.07076,-0.03416,-0.01952,0.01952,-0.0488,-0.22448,-0.26352,-0.20008,-0.1464
-0.06832,0.06588,-0.06344,-0.02928,0.00488,-0.0366,0,-0.07808,-0.22448,-0.23912,-0.19032,-0.13664
-0.05856,0.05856,-0.05856,-0.02928,0,-0.02928,0,-0.06832,-0.21472,-0.22448,-0.18056,-0.12688
-0.06832,0.06344,-0.05856,-0.0244,0.00976,-0.03904,0,-0.05368,-0.18544,-0.20496,-0.16592,-0.12688
-0.06832,0.05856,-0.0488,-0.01464,0.01952,-0.04392,0,-0.03904,-0.15616,-0.1952,-0.15616,-0.122
-0.07808,0.05612,-0.03416,0.00488,0.04392,-0.061,0.00488,-0.03904,-0.15616,-0.18056,-0.15128,-0.122
-0.07808,0.05368,-0.02928,0.00976,0.0488,-0.06344,0.00488,-0.03904,-0.16104,-0.1708,-0.1464,-0.11712
-0.07808,0.05368,-0.02928,0.00976,0.0488,-0.06344,0.01464,-0.01952,-0.1464,-0.17568,-0.13664,-0.11224
-0.07808,0.05124,-0.0244,0.01464,0.05368,-0.06588,0.01952,-0.00488,-0.13176,-0.16592,-0.12688,-0.10736
-0.07808,0.0488,-0.01952,0.01952,0.05856,-0.06832,0.01952,0,-0.11712,-0.1464,-0.122,-0.09272
-0.0732,0.04636,-0.01952,0.01708,0.05368,-0.06344,0.01952,0,-0.11712,-0.1464,-0.122,-0.09272
-0.06344,0.03904,-0.01464,0.01708,0.0488,-0.05612,0.01464,0.01464,-0.122,-0.1464,-0.11224,-0.08784
-0.05856,0.0366,-0.01464,0.01464,0.04392,-0.05124,0.01952,0.0244,-0.11712,-0.14152,-0.11224,-0.08296
-0.06832,0.04148,-0.01464,0.01952,0.05368,-0.061,0.01952,0.01464,-0.10736,-0.13176,-0.10736,-0.08296
-0.05856,0.03416,-0.00976,0.01952,0.0488,-0.05368,0.01952,0.02928,-0.0976,-0.12688,-0.10248,-0.07808
-0.0488,0.02928,-0.00976,0.01464,0.03904,-0.04392,0.02928,0.03904,-0.08784,-0.10736,-0.10248,-0.0732
-0.04392,0.02684,-0.00976,0.0122,0.03416,-0.03904,0.02928,0.0488,-0.0732,-0.0976,-0.0976,-0.06832
-0.04392,0.02196,0,0.02196,0.04392,-0.04392,0.03904,0.06832,-0.0488,-0.09272,-0.09272,-0.06832
-0.03904,0.01952,0,0.01952,0.03904,-0.03904,0.04392,0.07808,-0.02928,-0.07808,-0.07808,-0.06344
-0.03416,0.01464,0.00488,0.02196,0.03904,-0.0366,0.04392,0.09272,-0.01464,-0.06832,-0.0732,-0.05856
-0.02928,0.0122,0.00488,0.01952,0.03416,-0.03172,0.04392,0.10248,0.00488,-0.05856,-0.06344,-0.05368
-0.0244,0.00732,0.00976,0.02196,0.03416,-0.02928,0.03416,0.13176,0.01952,-0.0488,-0.05368,-0.05368
-0.01952,0,0.01952,0.02928,0.03904,-0.02928,0.03416,0.1464,0.05368,-0.02928,-0.04392,-0.0488
-0.01952,-0.00732,0.03416,0.04392,0.05368,-0.0366,0.03416,0.15616,0.07808,-0.00976,-0.04392,-0.0488
-0.01464,-0.00976,0.03416,0.04148,0.0488,-0.03172,0.02928,0.17568,0.10248,0.00976,-0.0244,-0.03904
-0.00976,-0.01464,0.03904,0.04392,0.0488,-0.02928,0.03904,0.20008,0.13176,0.03904,-0.00976,-0.0244
-0.00488,-0.02196,0.0488,0.05124,0.05368,-0.02928,0.03904,0.2196,0.16592,0.0732,0.00488,-0.01464
0.00976,-0.03904,0.06832,0.06344,0.05856,-0.0244,0.02928,0.24888,0.20008,0.08784,0.01952,-0.00488
0.01952,-0.04636,0.0732,0.06344,0.05368,-0.01708,0.0244,0.27328,0.23912,0.11712,0.03904,0.00488
0.03904,-0.06344,0.08784,0.06832,0.0488,-0.00488,0.01464,0.30744,0.28304,0.16104,0.05856,0.01952
0.0488,-0.0732,0.0976,0.0732,0.0488,0,0.00976,0.33672,0.32696,0.20496,0.07808,0.03416
0.06344,-0.09272,0.122,0.09028,0.05856,0.00244,0.00488,0.37088,0.37088,0.22936,0.10736,0.05368
0.07808,-0.11224,0.1464,0.10736,0.06832,0.00488,-0.00488,0.40504,0.41968,0.2684,0.13176,0.0732
0.08784,-0.11712,0.1464,0.10248,0.05856,0.01464,0.00488,0.44408,0.46848,0.31232,0.15616,0.08784
0.10248,-0.1342,0.16592,0.11468,0.06344,0.01952,0,0.47336,0.5124,0.35136,0.19032,0.11224
0.11712,-0.15616,0.1952,0.13664,0.07808,0.01952,-0.00488,0.50264,0.55144,0.38552,0.20496,0.13176
0.13664,-0.17812,0.2196,0.15128,0.08296,0.02684,-0.00488,0.52704,0.59048,0.4148,0.22936,0.15128
0.1464,-0.183,0.2196,0.1464,0.0732,0.0366,0.00488,0.5612,0.61976,0.44408,0.26352,0.16104
0.15616,-0.1952,0.23424,0.15616,0.07808,0.03904,0,0.59536,0.64904,0.4636,0.28304,0.17568
0.16592,-0.20984,0.25376,0.1708,0.08784,0.03904,0,0.60024,0.67344,0.48312,0.2928,0.18544
0.1708,-0.2196,0.2684,0.183,0.0976,0.0366,0,0.61488,0.69784,0.488,0.30256,0.20008
0.17568,-0.2196,0.26352,0.17568,0.08784,0.04392,0.00488,0.62464,0.69784,0.49776,0.30744,0.20984
0.17568,-0.22204,0.2684,0.18056,0.09272,0.04148,0.00976,0.62952,0.70272,0.49776,0.31232,0.21472
0.16592,-0.22204,0.27816,0.1952,0.11224,0.02684,0.00976,0.62952,0.71248,0.50752,0.31232,0.20984
0.16592,-0.22448,0.28304,0.20008,0.11712,0.0244,0.01464,0.6344,0.70272,0.49288,0.31232,0.20984
0.1708,-0.22692,0.28304,0.19764,0.11224,0.02928,0.00488,0.62464,0.67344,0.46848,0.30256,0.20984
0.16104,-0.2196,0.27816,0.19764,0.11712,0.02196,0.00976,0.61,0.64416,0.4392,0.28792,0.20008
0.16104,-0.20984,0.25864,0.17812,0.0976,0.03172,0.01464,0.60024,0.61488,0.42456,0.2684,0.20008
0.15128,-0.1952,0.23912,0.16348,0.08784,0.03172,0.01952,0.5612,0.57584,0.38552,0.23912,0.17568
0.12688,-0.183,0.23912,0.17568,0.11224,0.00732,0.01952,0.52704,0.51728,0.33672,0.2196,0.1464
0.10736,-0.16348,0.2196,0.16592,0.11224,-0.00244,0.03416,0.48312,0.45872,0.28792,0.19032,0.12688
0.09272,-0.14152,0.19032,0.14396,0.0976,-0.00244,0.03416,0.4392,0.40992,0.24888,0.15128,0.11224
0.0732,-0.11712,0.16104,0.12444,0.08784,-0.00732,0.03904,0.39528,0.35136,0.20008,0.11712,0.08296
0.05368,-0.09272,0.13176,0.10492,0.07808,-0.0122,0.04392,0.3416,0.2928,0.15616,0.08296,0.05856
0.03904,-0.07564,0.11224,0.09272,0.0732,-0.01708,0.04392,0.2928,0.23912,0.11712,0.05368,0.03416
0.00976,-0.05124,0.09272,0.08784,0.08296,-0.0366,0.0488,0.25376,0.18056,0.06344,0.01464,0.01952
-0.00488,-0.03416,0.0732,0.07564,0.07808,-0.04148,0.0488,0.21472,0.13664,0.03416,-0.01464,0
-0.01952,-0.01464,0.0488,0.05856,0.06832,-0.04392,0.0488,0.1708,0.09272,0,-0.04392,-0.01952
-0.0244,-0.00488,0.03416,0.04636,0.05856,-0.04148,0.04392,0.12688,0.0488,-0.03416,-0.05856,-0.02928
-0.03416,0.00732,0.01952,0.0366,0.05368,-0.04392,0.04392,0.10248,0.01464,-0.05856,-0.08296,-0.03904
-0.04392,0.01708,0.00976,0.03172,0.05368,-0.0488,0.03904,0.0732,-0.01464,-0.07808,-0.0976,-0.05368
-0.04392,0.0244,-0.00488,0.01708,0.03904,-0.04148,0.03904,0.0488,-0.03904,-0.0976,-0.10736,-0.06344
-0.0488,0.03172,-0.01464,0.00976,0.03416,-0.04148,0.03416,0.02928,-0.05368,-0.11712,-0.122,-0.06832
-0.05856,0.04148,-0.0244,0.00488,0.03416,-0.04636,0.03416,0.01952,-0.0732,-0.122,-0.11712,-0.0732
-0.05856,0.04392,-0.02928,0,0.02928,-0.04392,0.02928,0.00488,-0.09272,-0.13176,-0.12688,-0.08296
-0.06344,0.05124,-0.03904,-0.00732,0.0244,-0.04392,0.02928,-0.00976,-0.0976,-0.13664,-0.13664,-0.08784
-0.06344,0.05368,-0.04392,-0.0122,0.01952,-0.04148,0.02928,-0.01952,-0.10736,-0.14152,-0.14152,-0.08784
-0.06344,0.05368,-0.04392,-0.0122,0.01952,-0.04148,0.0244,-0.02928,-0.11224,-0.15616,-0.13664,-0.08784
-0.06344,0.05368,-0.04392,-0.0122,0.01952,-0.04148,0.0244,-0.03416,-0.11712,-0.15616,-0.13664,-0.09272
-0.06344,0.05368,-0.04392,-0.0122,0.01952,-0.04148,0.01952,-0.02928,-0.122,-0.1464,-0.1464,-0.09272
-0.06344,0.05368,-0.04392,-0.0122,0.01952,-0.04148,0.01952,-0.02928,-0.122,-0.15128,-0.1464,-0.09272
-0.06832,0.05612,-0.04392,-0.00976,0.0244,-0.04636,0.01952,-0.03416,-0.13664,-0.16104,-0.1464,-0.09272
-0.06344,0.05368,-0.04392,-0.0122,0.01952,-0.04148,0.01952,-0.03416,-0.14152,-0.16104,-0.1464,-0.09272
-0.06344,0.05368,-0.04392,-0.0122,0.01952,-0.04148,0.01464,-0.03904,-0.13664,-0.16104,-0.14152,-0.09272
-0.06344,0.05124,-0.03904,-0.00732,0.0244,-0.04392,0.01464,-0.03904,-0.13664,-0.16592,-0.14152,-0.08784
-0.06344,0.05124,-0.03904,-0.00732,0.0244,-0.04392,0.01464,-0.05368,-0.13664,-0.16592,-0.14152,-0.10248
-0.06344,0.0488,-0.03416,-0.00244,0.02928,-0.04636,0.01464,-0.05368,-0.14152,-0.16592,-0.13664,-0.0976
-0.0732,0.05612,-0.03904,-0.00244,0.03416,-0.05368,0.01464,-0.0488,-0.13176,-0.15616,-0.13664,-0.08784
-0.0732,0.05368,-0.03416,0.00244,0.03904,-0.05612,0.01464,-0.05856,-0.13176,-0.15616,-0.13664,-0.08784
-0.0732,0.05124,-0.02928,0.00732,0.04392,-0.05856,0.0244,-0.05856,-0.13176,-0.15616,-0.13176,-0.08296
-0.0732,0.05124,-0.02928,0.00732,0.04392,-0.05856,0.0244,-0.05368,-0.13176,-0.15128,-0.12688,-0.08296
-0.0732,0.05612,-0.03904,-0.00244,0.03416,-0.05368,0.01464,-0.05368,-0.13176,-0.15128,-0.12688,-0.08296
-0.07808,0.05612,-0.03416,0.00488,0.04392,-0.061,0.01464,-0.05368,-0.13176,-0.15128,-0.12688,-0.08296
-0.0732,0.0488,-0.0244,0.0122,0.0488,-0.061,0.0244,-0.06832,-0.13176,-0.15616,-0.122,-0.08296
-0.07808,0.05124,-0.0244,0.01464,0.05368,-0.06588,0.0244,-0.0732,-0.13664,-0.15616,-0.12688,-0.08296
-0.08296,0.05856,-0.03416,0.00732,0.0488,-0.06588,0.0244,-0.0732,-0.13664,-0.15616,-0.12688,-0.08296
-0.08784,0.061,-0.03416,0.00976,0.05368,-0.07076,0.0244,-0.07808,-0.13664,-0.15616,-0.12688,-0.08296
-0.07808,0.05124,-0.0244,0.01464,0.05368,-0.06588,0.01464,-0.06832,-0.1464,-0.1464,-0.11712,-0.08296
-0.07808,0.05368,-0.02928,0.00976,0.0488,-0.06344,0.01952,-0.06832,-0.1464,-0.1464,-0.11712,-0.08784
-0.08784,0.05368,-0.01952,0.0244,0.06832,-0.07808,0.01952,-0.08296,-0.13664,-0.1464,-0.11712,-0.08784
-0.09272,0.05856,-0.0244,0.02196,0.06832,-0.08052,0.01952,-0.08784,-0.14152,-0.1464,-0.11712,-0.08784
-0.09272,0.06344,-0.03416,0.0122,0.05856,-0.07564,0.01464,-0.08784,-0.14152,-0.1464,-0.12688,-0.08784
-0.09272,0.06344,-0.03416,0.0122,0.05856,-0.07564,0.01464,-0.08784,-0.14152,-0.1464,-0.12688,-0.09272
-0.08784,0.061,-0.03416,0.00976,0.05368,-0.07076,0.01464,-0.07808,-0.1464,-0.15616,-0.12688,-0.09272
-0.08784,0.061,-0.03416,0.00976,0.05368,-0.07076,0.01464,-0.08296,-0.1464,-0.15616,-0.13664,-0.09272
-0.0976,0.06344,-0.02928,0.01952,0.06832,-0.08296,0.01464,-0.09272,-0.15128,-0.15616,-0.12688,-0.09272
-0.10248,0.06588,-0.02928,0.02196,0.0732,-0.08784,0.01464,-0.0976,-0.15128,-0.15616,-0.13176,-0.09272
-0.09272,0.06832,-0.04392,0.00244,0.0488,-0.07076,0.01464,-0.08784,-0.15128,-0.16104,-0.13176,-0.09272
-0.09272,0.06832,-0.04392,0.00244,0.0488,-0.07076,0.01464,-0.09272,-0.15128,-0.16104,-0.13176,-0.0976
-0.09272,0.06832,-0.04392,0.00244,0.0488,-0.07076,0.01464,-0.0976,-0.16104,-0.15128,-0.13176,-0.0976
-0.09272,0.06832,-0.04392,0.00244,0.0488,-0.07076,0.01464,-0.0976,-0.16104,-0.15616,-0.13176,-0.0976
-0.09272,0.06832,-0.04392,0.00244,0.0488,-0.07076,0.01464,-0.10248,-0.15616,-0.15616,-0.13176,-0.0976
-0.09272,0.07076,-0.0488,-0.00244,0.04392,-0.06832,0.01464,-0.10248,-0.16104,-0.15616,-0.13176,-0.0976
-0.09272,0.07076,-0.0488,-0.00244,0.04392,-0.06832,0.00488,-0.10736,-0.16104,-0.15616,-0.1464,-0.10736
-0.0976,0.07564,-0.05368,-0.00488,0.04392,-0.07076,0,-0.10736,-0.16592,-0.15616,-0.14152,-0.10736
-0.10736,0.08296,-0.05856,-0.00488,0.0488,-0.07808,0.00976,-0.10736,-0.16592,-0.15616,-0.14152,-0.0976
-0.10736,0.0854,-0.06344,-0.00976,0.04392,-0.07564,0.00976,-0.11224,-0.1708,-0.15616,-0.14152,-0.0976
-0.10736,0.0854,-0.06344,-0.00976,0.04392,-0.07564,0.00976,-0.11224,-0.1708,-0.15616,-0.14152,-0.0976
-0.10736,0.0854,-0.06344,-0.00976,0.04392,-0.07564,0.00488,-0.11224,-0.17568,-0.16104,-0.14152,-0.0976
-0.11224,0.0854,-0.05856,-0.00244,0.05368,-0.08296,0.00976,-0.11712,-0.17568,-0.16104,-0.14152,-0.10248
-0.10736,0.0854,-0.06344,-0.00976,0.04392,-0.07564,0.00976,-0.11712,-0.17568,-0.15616,-0.14152,-0.10248
-0.0976,0.07564,-0.05368,-0.00488,0.04392,-0.07076,0.00976,-0.11712,-0.17568,-0.16104,-0.1464,-0.10248
-0.0976,0.07564,-0.05368,-0.00488,0.04392,-0.07076,0.00488,-0.11712,-0.17568,-0.16104,-0.1464,-0.10736
-0.0976,0.07564,-0.05368,-0.00488,0.04392,-0.07076,0.00488,-0.122,-0.17568,-0.16104,-0.1464,-0.10736
-0.0976,0.07564,-0.05368,-0.00488,0.04392,-0.07076,0.00488,-0.122,-0.17568,-0.16104,-0.15128,-0.11224
-0.10736,0.08052,-0.05368,0,0.05368,-0.08052,0.00488,-0.11712,-0.18056,-0.1708,-0.15128,-0.11224
-0.10736,0.08052,-0.05368,0,0.05368,-0.08052,0.00488,-0.11712,-0.18544,-0.1708,-0.15128,-0.11224
-0.10736,0.08052,-0.05368,0,0.05368,-0.08052,0,-0.13176,-0.17568,-0.1708,-0.15128,-0.11224
-0.10736,0.08052,-0.05368,0,0.05368,-0.08052,0,-0.13176,-0.17568,-0.17568,-0.15128,-0.11224
-0.0976,0.07564,-0.05368,-0.00488,0.04392,-0.07076,0.00488,-0.11712,-0.17568,-0.17568,-0.15128,-0.11224
-0.10736,0.08296,-0.05856,-0.00488,0.0488,-0.07808,0.00976,-0.12688,-0.17568,-0.16592,-0.1464,-0.10736
-0.10736,0.07808,-0.0488,0.00488,0.05856,-0.08296,0.00976,-0.12688,-0.18544,-0.17568,-0.15616,-0.10736
-0.10736,0.07808,-0.0488,0.00488,0.05856,-0.08296,0.00976,-0.12688,-0.18544,-0.17568,-0.15616,-0.10736
-0.10736,0.07808,-0.0488,0.00488,0.05856,-0.08296,0,-0.12688,-0.18544,-0.17568,-0.15616,-0.11712
-0.11224,0.08052,-0.0488,0.00732,0.06344,-0.08784,0,-0.12688,-0.18544,-0.17568,-0.15616,-0.11712
-0.10248,0.07564,-0.0488,0.00244,0.05368,-0.07808,0.00976,-0.13664,-0.17568,-0.1708,-0.15616,-0.11712
-0.10248,0.07564,-0.0488,0.00244,0.05368,-0.07808,0.00976,-0.13664,-0.17568,-0.1708,-0.15616,-0.11712
-0.10248,0.07564,-0.0488,0.00244,0.05368,-0.07808,0,-0.12688,-0.18544,-0.1708,-0.15616,-0.11712
-0.0976,0.0732,-0.0488,0,0.0488,-0.0732,0,-0.12688,-0.18544,-0.1708,-0.15616,-0.11712
-0.10736,0.07564,-0.04392,0.00976,0.06344,-0.0854,0.01464,-0.122,-0.1708,-0.16592,-0.15616,-0.11712
-0.09272,0.05856,-0.0244,0.02196,0.06832,-0.08052,0.01464,-0.11224,-0.16104,-0.15616,-0.1464,-0.11224
-0.08296,0.03416,0.01464,0.05612,0.0976,-0.09028,0.0244,-0.0976,-0.15128,-0.15616,-0.1464,-0.10736
-0.0732,0.02196,0.02928,0.06588,0.10248,-0.08784,0.03416,-0.09272,-0.13664,-0.1464,-0.13664,-0.0976
-0.06344,0.01952,0.0244,0.05612,0.08784,-0.07564,0.03416,-0.08784,-0.13176,-0.14152,-0.13664,-0.0976
-0.06344,0.01952,0.0244,0.05612,0.08784,-0.07564,0.03904,-0.08296,-0.13176,-0.14152,-0.13664,-0.0976
-0.0732,0.02196,0.02928,0.06588,0.10248,-0.08784,0.05368,-0.07808,-0.13176,-0.14152,-0.12688,-0.09272
-0.06832,0.01708,0.03416,0.06832,0.10248,-0.0854,0.05368,-0.07808,-0.12688,-0.14152,-0.12688,-0.09272
-0.06832,0.00732,0.05368,0.08784,0.122,-0.09516,0.04392,-0.06832,-0.122,-0.12688,-0.11224,-0.07808
-0.05368,-0.00976,0.0732,0.10004,0.12688,-0.09028,0.03416,-0.07808,-0.11712,-0.11712,-0.10248,-0.06832
-0.04392,-0.01952,0.08296,0.10492,0.12688,-0.0854,0.01464,-0.09272,-0.11224,-0.10736,-0.0976,-0.06344
-0.04392,-0.01464,0.0732,0.09516,0.11712,-0.08052,0.00488,-0.0976,-0.122,-0.11712,-0.10736,-0.06344
-0.04392,-0.0122,0.06832,0.09028,0.11224,-0.07808,0,-0.10248,-0.13176,-0.13664,-0.122,-0.0732
-0.04392,-0.00488,0.05368,0.07564,0.0976,-0.07076,-0.00976,-0.0976,-0.13664,-0.13664,-0.122,-0.0732
-0.03904,-0.00488,0.0488,0.06832,0.08784,-0.06344,-0.01464,-0.0976,-0.13176,-0.13176,-0.11224,-0.0732
-0.03904,-0.00976,0.05856,0.07808,0.0976,-0.06832,-0.01952,-0.0976,-0.13664,-0.13176,-0.11224,-0.06832
-0.0244,-0.0122,0.0488,0.061,0.0732,-0.0488,-0.01952,-0.10248,-0.13664,-0.13176,-0.10736,-0.06344
-0.0244,-0.0122,0.0488,0.061,0.0732,-0.0488,-0.0244,-0.10736,-0.13664,-0.13176,-0.10248,-0.05856
-0.0488,0.00244,0.04392,0.06832,0.09272,-0.07076,-0.01952,-0.10736,-0.13664,-0.13176,-0.10248,-0.05856
-0.06832,0.02196,0.0244,0.05856,0.09272,-0.08052,-0.01464,-0.11712,-0.15128,-0.1464,-0.11224,-0.0732
-0.07808,0.0366,0.00488,0.04392,0.08296,-0.08052,-0.00488,-0.13176,-0.1708,-0.16592,-0.13664,-0.08296
-0.08784,0.05368,-0.01952,0.0244,0.06832,-0.07808,-0.00488,-0.13664,-0.17568,-0.18544,-0.15616,-0.10248
-0.10248,0.06832,-0.03416,0.01708,0.06832,-0.0854,-0.00488,-0.1464,-0.18544,-0.19032,-0.16592,-0.11712
-0.10248,0.06832,-0.03416,0.01708,0.06832,-0.0854,-0.00488,-0.1464,-0.19032,-0.19032,-0.16592,-0.122
-0.10248,0.06832,-0.03416,0.01708,0.06832,-0.0854,-0.00488,-0.13664,-0.19032,-0.1952,-0.16592,-0.122
-0.10736,0.07564,-0.04392,0.00976,0.06344,-0.0854,-0.00488,-0.13664,-0.19032,-0.20008,-0.1708,-0.122
-0.10736,0.07564,-0.04392,0.00976,0.06344,-0.0854,-0.00488,-0.13664,-0.1952,-0.20008,-0.1708,-0.12688
-0.10736,0.07808,-0.0488,0.00488,0.05856,-0.08296,-0.00488,-0.14152,-0.1952,-0.20008,-0.17568,-0.12688
-0.10736,0.07808,-0.0488,0.00488,0.05856,-0.08296,0,-0.15128,-0.1952,-0.20984,-0.17568,-0.12688
-0.11224,0.08052,-0.0488,0.00732,0.06344,-0.08784,-0.00488,-0.15128,-0.1952,-0.20984,-0.17568,-0.12688
-0.11224,0.07564,-0.03904,0.01708,0.0732,-0.09272,0.00488,-0.1464,-0.20008,-0.20496,-0.18544,-0.12688
-0.11224,0.07808,-0.04392,0.0122,0.06832,-0.09028,0.00976,-0.14152,-0.1952,-0.20496,-0.18544,-0.12688
-0.10248,0.0732,-0.04392,0.00732,0.05856,-0.08052,0,-0.15128,-0.1952,-0.20496,-0.17568,-0.12688
-0.10248,0.0732,-0.04392,0.00732,0.05856,-0.08052,0,-0.15128,-0.1952,-0.20496,-0.17568,-0.12688
-0.11224,0.08296,-0.05368,0.00244,0.05856,-0.0854,0.00976,-0.14152,-0.1952,-0.20496,-0.17568,-0.13176
-0.11224,0.08052,-0.0488,0.00732,0.06344,-0.08784,0.0244,-0.12688,-0.19032,-0.20496,-0.17568,-0.13176
-0.13664,0.08052,-0.0244,0.04392,0.11224,-0.12444,0.05368,-0.08784,-0.18056,-0.20984,-0.1952,-0.15128
-0.15128,0.09272,-0.03416,0.04148,0.11712,-0.1342,0.09272,-0.0244,-0.13176,-0.20496,-0.20008,-0.16104
-0.15616,0.08296,-0.00976,0.06832,0.1464,-0.15128,0.10248,-0.01464,-0.09272,-0.1708,-0.20008,-0.16104
-0.16104,0.09028,-0.01952,0.061,0.14152,-0.15128,0.11712,0.00976,-0.00488,-0.10248,-0.15128,-0.14152
-0.12688,0.06344,0,0.06344,0.12688,-0.12688,0.0976,0.06832,0.16104,0.11224,-0.0244,-0.06344
-0.0244,0.00244,0.01952,0.03172,0.04392,-0.03416,0.06344,0.24888,0.45384,0.4392,0.1952,0.06832
0.11712,-0.12688,0.13664,0.07808,0.01952,0.0488,-0.00976,0.3416,0.79056,0.854,0.488,0.244
0.31232,-0.30744,0.30256,0.1464,-0.00976,0.16104,-0.09272,0.50752,1.32736,1.47376,0.92232,0.53192
0.5612,-0.50508,0.44896,0.16836,-0.11224,0.33672,-0.30256,0.37576,1.71776,2.11792,1.40056,0.88328
0.73688,-0.65148,0.56608,0.19764,-0.1708,0.45384,-0.53192,0.06344,1.69336,2.34728,1.6592,1.08824
0.76616,-0.67344,0.58072,0.19764,-0.18544,0.4758,-0.61976,-0.1708,1.52744,2.15696,1.56648,1.05408
0.6588,-0.51484,0.37088,0.04148,-0.28792,0.47336,-0.62952,-0.58072,0.93208,1.49816,1.12728,0.77592
0.49288,-0.21472,-0.06344,-0.30988,-0.55632,0.5246,-0.57584,-0.89792,0.0244,0.50264,0.43432,0.32696
0.32696,0.0244,-0.37576,-0.53924,-0.70272,0.51484,-0.488,-1.04432,-0.74176,-0.32696,-0.10248,-0.01952
0.18056,0.20252,-0.5856,-0.67588,-0.76616,0.47336,-0.3904,-1.05408,-1.22976,-0.86864,-0.488,-0.2928
0.12688,0.25132,-0.62952,-0.69296,-0.7564,0.44164,-0.37576,-1.0492,-1.30784,-1.00528,-0.61976,-0.38552
0.06344,0.30256,-0.66856,-0.70028,-0.732,0.39772,-0.34648,-0.95648,-1.22488,-0.99552,-0.67832,-0.43432
0,0.32208,-0.64416,-0.64416,-0.64416,0.32208,-0.29768,-0.88328,-1.1468,-0.94184,-0.6588,-0.42944
-0.07808,0.32696,-0.57584,-0.5368,-0.49776,0.20984,-0.19032,-0.75152,-0.99064,-0.854,-0.61976,-0.41968
-0.09272,0.26352,-0.43432,-0.38796,-0.3416,0.12444,-0.1464,-0.61488,-0.79056,-0.71736,-0.52216,-0.35624
-0.08296,0.19276,-0.30256,-0.26108,-0.2196,0.06832,-0.09272,-0.45384,-0.61488,-0.54168,-0.39528,-0.27328
-0.0976,0.16104,-0.22448,-0.17568,-0.12688,0.01464,-0.01952,-0.27328,-0.44896,-0.40992,-0.29768,-0.20984
-0.0976,0.14152,-0.18544,-0.13664,-0.08784,-0.00488,0.03416,-0.13664,-0.30256,-0.31232,-0.24888,-0.18544
-0.09272,0.11956,-0.1464,-0.10004,-0.05368,-0.01952,0.0488,-0.0488,-0.22448,-0.26352,-0.2196,-0.15616
-0.08784,0.09028,-0.09272,-0.0488,-0.00488,-0.04148,0.01952,-0.05856,-0.21472,-0.24888,-0.20008,-0.15616
-0.08784,0.08784,-0.08784,-0.04392,0,-0.04392,0.01952,-0.06832,-0.20496,-0.22448,-0.20008,-0.1464
-0.07808,0.08296,-0.08784,-0.0488,-0.00976,-0.03416,0.02928,-0.06344,-0.17568,-0.21472,-0.18544,-0.13664
-0.07808,0.07808,-0.07808,-0.03904,0,-0.03904,0.02928,-0.0488,-0.1464,-0.20496,-0.17568,-0.13176
-0.08784,0.08052,-0.0732,-0.02928,0.01464,-0.05124,0.0244,-0.03904,-0.13664,-0.18056,-0.1708,-0.122
-0.08784,0.07808,-0.06832,-0.0244,0.01952,-0.05368,0.0244,-0.03904,-0.14152,-0.1708,-0.16592,-0.11712
-0.07808,0.0732,-0.06832,-0.02928,0.00976,-0.04392,0.0244,-0.02928,-0.13664,-0.16592,-0.16592,-0.11224
-0.07808,0.07076,-0.06344,-0.0244,0.01464,-0.04636,0.02928,-0.01464,-0.122,-0.15616,-0.15616,-0.10736
-0.07808,0.06344,-0.0488,-0.00976,0.02928,-0.05368,0.03904,-0.00976,-0.11712,-0.15616,-0.15128,-0.11224
-0.0732,0.061,-0.0488,-0.0122,0.0244,-0.0488,0.03904,-0.00976,-0.11712,-0.15616,-0.15128,-0.11224
-0.08296,0.06344,-0.04392,-0.00244,0.03904,-0.061,0.03416,0.00488,-0.11224,-0.15616,-0.13176,-0.0976
-0.07808,0.061,-0.04392,-0.00488,0.03416,-0.05612,0.03904,0.01464,-0.10736,-0.15128,-0.13176,-0.09272
-0.07808,0.061,-0.04392,-0.00488,0.03416,-0.05612,0.03904,0.00488,-0.0976,-0.14152,-0.13664,-0.09272
-0.06832,0.05368,-0.03904,-0.00488,0.02928,-0.0488,0.03904,0.01952,-0.08784,-0.13664,-0.13176,-0.08784
-0.06832,0.0488,-0.02928,0.00488,0.03904,-0.05368,0.03904,0.02928,-0.07808,-0.11712,-0.122,-0.08296
-0.06344,0.04636,-0.02928,0.00244,0.03416,-0.0488,0.03904,0.03904,-0.06344,-0.10736,-0.11712,-0.07808
-0.06344,0.04636,-0.02928,0.00244,0.03416,-0.0488,0.0488,0.03904,-0.0488,-0.10248,-0.11224,-0.07808
-0.05856,0.04392,-0.02928,0,0.02928,-0.04392,0.05368,0.0488,-0.02928,-0.08784,-0.0976,-0.0732
-0.05368,0.03904,-0.0244,0.00244,0.02928,-0.04148,0.05368,0.0732,-0.01464,-0.07808,-0.10248,-0.06832
-0.0488,0.0366,-0.0244,0,0.0244,-0.0366,0.05368,0.08296,0.00488,-0.06832,-0.09272,-0.06344
-0.04392,0.02684,-0.00976,0.0122,0.03416,-0.03904,0.05368,0.10248,0.02928,-0.0488,-0.08296,-0.05368
-0.03904,0.01952,0,0.01952,0.03904,-0.03904,0.05368,0.11712,0.06344,-0.02928,-0.0732,-0.0488
-0.02928,0.0122,0.00488,0.01952,0.03416,-0.03172,0.05368,0.13664,0.08784,-0.00976,-0.05368,-0.03904
-0.0244,0.00976,0.00488,0.01708,0.02928,-0.02684,0.0488,0.15616,0.11224,0.00976,-0.03416,-0.02928
-0.01952,0.00488,0.00976,0.01952,0.02928,-0.0244,0.0488,0.18056,0.14152,0.01952,-0.03904,-0.03416
-0.01464,-0.00244,0.01952,0.02684,0.03416,-0.0244,0.0488,0.20008,0.17568,0.05368,-0.0244,-0.0244
0.00976,-0.0244,0.03904,0.03416,0.02928,-0.00976,0.03904,0.22936,0.20008,0.07808,0.00976,-0.01464
0.01952,-0.03172,0.04392,0.03416,0.0244,-0.00244,0.03416,0.25376,0.23912,0.10736,0.02928,-0.00488
0.02928,-0.04392,0.05856,0.04392,0.02928,0,0.03416,0.27816,0.28304,0.13176,0.03904,0.00976
0.03904,-0.05368,0.06832,0.0488,0.02928,0.00488,0.02928,0.30744,0.32696,0.17568,0.05856,0.0244
0.05368,-0.06832,0.08296,0.05612,0.02928,0.0122,0.0244,0.3416,0.37088,0.20984,0.08784,0.04392
0.06832,-0.08784,0.10736,0.0732,0.03904,0.01464,0.01464,0.37576,0.41968,0.24888,0.11224,0.06344
0.07808,-0.0976,0.11712,0.07808,0.03904,0.01952,0.0244,0.40504,0.46848,0.28304,0.12688,0.07808
0.09272,-0.11468,0.13664,0.09028,0.04392,0.0244,0.01952,0.43432,0.5124,0.32208,0.16104,0.10248
0.10736,-0.13176,0.15616,0.10248,0.0488,0.02928,0.00488,0.47336,0.54168,0.35624,0.18544,0.122
0.12688,-0.15372,0.18056,0.11712,0.05368,0.0366,0.00488,0.49776,0.58072,0.38552,0.2196,0.14152
0.13664,-0.16348,0.19032,0.122,0.05368,0.04148,0.01464,0.53192,0.61,0.4148,0.244,0.15128
0.1464,-0.17568,0.20496,0.13176,0.05856,0.04392,0.00976,0.55632,0.63928,0.43432,0.26352,0.16592
0.1464,-0.17568,0.20496,0.13176,0.05856,0.04392,0.00976,0.57096,0.66368,0.45384,0.27328,0.18544
0.15128,-0.18544,0.2196,0.14396,0.06832,0.04148,0.00976,0.5856,0.67832,0.45872,0.28304,0.20008
0.16592,-0.20008,0.23424,0.15128,0.06832,0.0488,0.00488,0.60512,0.68808,0.46848,0.29768,0.20984
0.16592,-0.20252,0.23912,0.15616,0.0732,0.04636,0.00976,0.61,0.69296,0.46848,0.30256,0.21472
0.16592,-0.20252,0.23912,0.15616,0.0732,0.04636,0.00976,0.61,0.70272,0.47824,0.30256,0.2196
0.16592,-0.20496,0.244,0.16104,0.07808,0.04392,0.01464,0.61488,0.69296,0.4636,0.30256,0.2196
0.1708,-0.2074,0.244,0.1586,0.0732,0.0488,0.01464,0.60512,0.6832,0.44896,0.2928,0.20984
0.16104,-0.20008,0.23912,0.1586,0.07808,0.04148,0.01952,0.59048,0.65392,0.41968,0.27816,0.20008
0.15128,-0.19032,0.22936,0.15372,0.07808,0.0366,0.0244,0.59048,0.62464,0.40504,0.2684,0.19032
0.14152,-0.17568,0.20984,0.13908,0.06832,0.0366,0.02928,0.55144,0.5856,0.366,0.23912,0.16592
0.13664,-0.16836,0.20008,0.13176,0.06344,0.0366,0.02928,0.52704,0.5368,0.32696,0.20984,0.15616
0.11712,-0.14884,0.18056,0.122,0.06344,0.02684,0.04392,0.49288,0.47824,0.27816,0.18056,0.13664
0.09272,-0.12688,0.16104,0.11468,0.06832,0.0122,0.04392,0.4392,0.42944,0.23912,0.14152,0.11224
0.0732,-0.10248,0.13176,0.09516,0.05856,0.00732,0.0488,0.39528,0.37088,0.19032,0.10736,0.08296
0.05368,-0.08784,0.122,0.09516,0.06832,-0.00732,0.05368,0.3416,0.31232,0.1464,0.0732,0.05856
0.03904,-0.07076,0.10248,0.08296,0.06344,-0.0122,0.05368,0.30256,0.25864,0.10736,0.04392,0.03416
0.01952,-0.05124,0.08296,0.0732,0.06344,-0.02196,0.05856,0.25376,0.20008,0.06344,0.0244,0.01952
0.00488,-0.03416,0.06344,0.061,0.05856,-0.02684,0.05856,0.21472,0.15616,0.03416,-0.00488,0
0,-0.02928,0.05856,0.05856,0.05856,-0.02928,0.0488,0.18056,0.11224,-0.00976,-0.04392,-0.02928
-0.00488,-0.01952,0.04392,0.04636,0.0488,-0.02684,0.04392,0.1464,0.06832,-0.04392,-0.05856,-0.03904
-0.0244,0.00244,0.01952,0.03172,0.04392,-0.03416,0.05368,0.11224,0.03416,-0.06832,-0.0732,-0.03904
-0.03416,0.0122,0.00976,0.02684,0.04392,-0.03904,0.0488,0.0732,0.00488,-0.08784,-0.08784,-0.05368
-0.04392,0.01952,0.00488,0.02684,0.0488,-0.04636,0.03904,0.05856,-0.02928,-0.10736,-0.10736,-0.0732
-0.0488,0.02684,-0.00488,0.01952,0.04392,-0.04636,0.03416,0.03904,-0.05368,-0.12688,-0.122,-0.07808
-0.05856,0.03172,-0.00488,0.0244,0.05368,-0.05612,0.03416,0.00976,-0.06344,-0.14152,-0.11712,-0.0732
-0.05856,0.03416,-0.00976,0.01952,0.0488,-0.05368,0.02928,-0.00488,-0.08296,-0.15128,-0.12688,-0.08296
-0.05368,0.0366,-0.01952,0.00732,0.03416,-0.04392,0.02928,-0.00976,-0.08784,-0.15616,-0.13664,-0.08784
-0.05368,0.03904,-0.0244,0.00244,0.02928,-0.04148,0.02928,-0.01952,-0.0976,-0.16104,-0.14152,-0.08784
-0.05368,0.03904,-0.0244,0.00244,0.02928,-0.04148,0.0244,-0.02928,-0.11224,-0.16592,-0.1464,-0.08784
-0.05368,0.03904,-0.0244,0.00244,0.02928,-0.04148,0.0244,-0.03416,-0.11712,-0.16592,-0.1464,-0.09272
-0.05368,0.03416,-0.01464,0.0122,0.03904,-0.04636,0.00976,-0.03904,-0.13176,-0.16592,-0.1464,-0.10248
-0.05368,0.03416,-0.01464,0.0122,0.03904,-0.04636,0.00976,-0.03904,-0.13176,-0.1708,-0.1464,-0.10248
-0.0488,0.03172,-0.01464,0.00976,0.03416,-0.04148,0.01952,-0.04392,-0.13664,-0.18056,-0.1464,-0.10248
-0.04392,0.02928,-0.01464,0.00732,0.02928,-0.0366,0.01952,-0.04392,-0.14152,-0.18056,-0.1464,-0.10248
-0.04392,0.02928,-0.01464,0.00732,0.02928,-0.0366,0.01464,-0.03904,-0.13664,-0.1708,-0.15128,-0.10248
-0.04392,0.02684,-0.00976,0.0122,0.03416,-0.03904,0.01464,-0.03904,-0.13664,-0.17568,-0.15128,-0.0976
-0.04392,0.02684,-0.00976,0.0122,0.03416,-0.03904,0.01464,-0.04392,-0.13664,-0.17568,-0.15128,-0.10248
-0.04392,0.0244,-0.00488,0.01708,0.03904,-0.04148,0.01464,-0.04392,-0.14152,-0.17568,-0.1464,-0.0976
-0.04392,0.02196,0,0.02196,0.04392,-0.04392,0.01464,-0.0488,-0.14152,-0.17568,-0.1464,-0.08784
-0.04392,0.01952,0.00488,0.02684,0.0488,-0.04636,0.01464,-0.05856,-0.14152,-0.17568,-0.1464,-0.08784
-0.04392,0.01708,0.00976,0.03172,0.05368,-0.0488,0.01464,-0.05856,-0.14152,-0.16592,-0.13176,-0.08296
-0.04392,0.01708,0.00976,0.03172,0.05368,-0.0488,0.01464,-0.06344,-0.14152,-0.16104,-0.11712,-0.08296
-0.04392,0.02196,0,0.02196,0.04392,-0.04392,0.01464,-0.06344,-0.14152,-0.16104,-0.11712,-0.08296
-0.0488,0.02196,0.00488,0.02928,0.05368,-0.05124,0.01464,-0.06344,-0.14152,-0.16104,-0.11712,-0.08296
-0.05368,0.0244,0.00488,0.03172,0.05856,-0.05612,0.01464,-0.05856,-0.13176,-0.15616,-0.11224,-0.0732
-0.05856,0.02684,0.00488,0.03416,0.06344,-0.061,0.01464,-0.06344,-0.13664,-0.15616,-0.11712,-0.0732
-0.04392,0.01952,0.00488,0.02684,0.0488,-0.04636,0.01464,-0.0732,-0.13664,-0.15616,-0.10736,-0.0732
-0.0488,0.02196,0.00488,0.02928,0.05368,-0.05124,0.01464,-0.07808,-0.13664,-0.15616,-0.10736,-0.0732
-0.0488,0.02196,0.00488,0.02928,0.05368,-0.05124,0.01464,-0.07808,-0.13664,-0.15616,-0.10736,-0.08296
-0.0488,0.0244,0,0.0244,0.0488,-0.0488,0.01952,-0.07808,-0.13664,-0.15616,-0.10736,-0.08784
-0.05856,0.02928,0,0.02928,0.05856,-0.05856,0.01952,-0.08296,-0.13664,-0.1464,-0.10736,-0.08784
-0.06344,0.03416,-0.00488,0.02684,0.05856,-0.061,0.01952,-0.08784,-0.14152,-0.1464,-0.10736,-0.08784
-0.06344,0.02928,0.00488,0.0366,0.06832,-0.06588,0.01464,-0.08784,-0.14152,-0.15616,-0.10736,-0.07808
-0.06344,0.02928,0.00488,0.0366,0.06832,-0.06588,0.01464,-0.08784,-0.14152,-0.15616,-0.10736,-0.08296
-0.06832,0.0366,-0.00488,0.02928,0.06344,-0.06588,0.01464,-0.08784,-0.15616,-0.15616,-0.10736,-0.08296
-0.06832,0.0366,-0.00488,0.02928,0.06344,-0.06588,0.01464,-0.09272,-0.15616,-0.15616,-0.11712,-0.08296
-0.05856,0.03416,-0.00976,0.01952,0.0488,-0.05368,0.01464,-0.10248,-0.16104,-0.15616,-0.10736,-0.08296
-0.06344,0.0366,-0.00976,0.02196,0.05368,-0.05856,0.01464,-0.10736,-0.16104,-0.15616,-0.11224,-0.08296
-0.06344,0.03904,-0.01464,0.01708,0.0488,-0.05612,0.01464,-0.0976,-0.16104,-0.16104,-0.122,-0.08296
-0.06344,0.03904,-0.01464,0.01708,0.0488,-0.05612,0.01464,-0.10248,-0.16104,-0.16104,-0.122,-0.08784
-0.0732,0.0488,-0.0244,0.0122,0.0488,-0.061,0.01464,-0.10736,-0.16104,-0.16104,-0.122,-0.08784
-0.0732,0.0488,-0.0244,0.0122,0.0488,-0.061,0.01464,-0.10736,-0.16104,-0.16592,-0.122,-0.08784
-0.06344,0.04392,-0.0244,0.00732,0.03904,-0.05124,0.01464,-0.11224,-0.16592,-0.15616,-0.11224,-0.07808
-0.06344,0.04636,-0.02928,0.00244,0.03416,-0.0488,0.01464,-0.11224,-0.1708,-0.15616,-0.11224,-0.07808
-0.06344,0.05124,-0.03904,-0.00732,0.0244,-0.04392,0.01464,-0.10736,-0.16104,-0.16592,-0.10736,-0.08784
-0.06832,0.05612,-0.04392,-0.00976,0.0244,-0.04636,0.00976,-0.10736,-0.16592,-0.16592,-0.10248,-0.08784
-0.06832,0.05368,-0.03904,-0.00488,0.02928,-0.0488,0.00976,-0.11712,-0.16592,-0.16592,-0.11224,-0.08784
-0.06832,0.05612,-0.04392,-0.00976,0.0244,-0.04636,0.00976,-0.122,-0.1708,-0.16592,-0.122,-0.08784
-0.05856,0.04636,-0.03416,-0.00488,0.0244,-0.04148,0,-0.11224,-0.18056,-0.16592,-0.122,-0.08784
-0.05856,0.04636,-0.03416,-0.00488,0.0244,-0.04148,-0.00488,-0.11224,-0.18544,-0.1708,-0.122,-0.08784
-0.0732,0.05612,-0.03904,-0.00244,0.03416,-0.05368,0.00976,-0.11712,-0.17568,-0.1708,-0.122,-0.08296
-0.06832,0.05612,-0.04392,-0.00976,0.0244,-0.04636,0.00976,-0.11712,-0.17568,-0.16592,-0.122,-0.08296
-0.07808,0.061,-0.04392,-0.00488,0.03416,-0.05612,0.00976,-0.12688,-0.17568,-0.1708,-0.11712,-0.0732
-0.07808,0.061,-0.04392,-0.00488,0.03416,-0.05612,0.00488,-0.12688,-0.17568,-0.1708,-0.11712,-0.07808
-0.07808,0.061,-0.04392,-0.00488,0.03416,-0.05612,0.00488,-0.14152,-0.18544,-0.1708,-0.10736,-0.07808
-0.07808,0.061,-0.04392,-0.00488,0.03416,-0.05612,0.00488,-0.14152,-0.18544,-0.1708,-0.11224,-0.08296
-0.06832,0.05612,-0.04392,-0.00976,0.0244,-0.04636,0.00488,-0.12688,-0.18056,-0.1708,-0.11224,-0.0732
-0.06832,0.05612,-0.04392,-0.00976,0.0244,-0.04636,0.00488,-0.12688,-0.18544,-0.1708,-0.11224,-0.0732
-0.06832,0.05612,-0.04392,-0.00976,0.0244,-0.04636,0,-0.13176,-0.17568,-0.1708,-0.11224,-0.0732
-0.06832,0.05612,-0.04392,-0.00976,0.0244,-0.04636,0,-0.13176,-0.17568,-0.17568,-0.11224,-0.0732
-0.06832,0.05612,-0.04392,-0.00976,0.0244,-0.04636,0.00488,-0.12688,-0.17568,-0.17568,-0.122,-0.0732
-0.06832,0.05612,-0.04392,-0.00976,0.0244,-0.04636,0.00488,-0.13176,-0.17568,-0.16592,-0.11712,-0.06344
-0.06832,0.06344,-0.05856,-0.0244,0.00976,-0.03904,0.00976,-0.13664,-0.17568,-0.17568,-0.11712,-0.07808
-0.06832,0.06344,-0.05856,-0.0244,0.00976,-0.03904,0.00976,-0.13664,-0.17568,-0.17568,-0.11712,-0.07808
-0.07808,0.06832,-0.05856,-0.01952,0.01952,-0.0488,0.00976,-0.13664,-0.18544,-0.16592,-0.10736,-0.06832
-0.07808,0.06832,-0.05856,-0.01952,0.01952,-0.0488,0.00976,-0.13664,-0.18544,-0.16592,-0.10736,-0.06832
-0.0732,0.06588,-0.05856,-0.02196,0.01464,-0.04392,0.00976,-0.13664,-0.18544,-0.18056,-0.11712,-0.07808
-0.0732,0.06588,-0.05856,-0.02196,0.01464,-0.04392,0.00976,-0.13664,-0.18544,-0.18056,-0.11712,-0.07808
-0.0732,0.06588,-0.05856,-0.02196,0.01464,-0.04392,0.00976,-0.13664,-0.18544,-0.18056,-0.10736,-0.07808
-0.0732,0.06588,-0.05856,-0.02196,0.01464,-0.04392,0.00976,-0.13664,-0.18544,-0.18056,-0.10736,-0.07808
-0.06832,0.06344,-0.05856,-0.0244,0.00976,-0.03904,0.00976,-0.13664,-0.17568,-0.17568,-0.10736,-0.06832
-0.06344,0.05368,-0.04392,-0.0122,0.01952,-0.04148,0.01464,-0.12688,-0.1708,-0.15128,-0.10736,-0.06344
-0.06344,0.04636,-0.02928,0.00244,0.03416,-0.0488,0.01464,-0.11224,-0.15616,-0.15128,-0.09272,-0.06344
-0.06344,0.03904,-0.01464,0.01708,0.0488,-0.05612,0.02928,-0.10248,-0.14152,-0.13664,-0.08296,-0.05368
-0.04392,0.01952,0.00488,0.02684,0.0488,-0.04636,0.03416,-0.0976,-0.14152,-0.13664,-0.07808,-0.03904
-0.04392,0.01952,0.00488,0.02684,0.0488,-0.04636,0.03416,-0.09272,-0.14152,-0.13176,-0.07808,-0.03904
-0.04392,0.01952,0.00488,0.02684,0.0488,-0.04636,0.03416,-0.08296,-0.14152,-0.13176,-0.07808,-0.04392
-0.04392,0.01708,0.00976,0.03172,0.05368,-0.0488,0.03416,-0.07808,-0.14152,-0.13176,-0.07808,-0.04392
-0.0488,0.00976,0.02928,0.05368,0.07808,-0.06344,0.03416,-0.07808,-0.12688,-0.12688,-0.06344,-0.03416
-0.03904,-0.00732,0.05368,0.0732,0.09272,-0.06588,0.03416,-0.07808,-0.11712,-0.11224,-0.0488,-0.0244
-0.01952,-0.02196,0.06344,0.0732,0.08296,-0.05124,0.01952,-0.07808,-0.122,-0.10736,-0.03904,-0.00488
-0.01464,-0.0244,0.06344,0.07076,0.07808,-0.04636,-0.00488,-0.09272,-0.12688,-0.11224,-0.03904,-0.00488
-0.01464,-0.01464,0.04392,0.05124,0.05856,-0.0366,0.00488,-0.0976,-0.13664,-0.122,-0.05368,-0.01464
-0.01464,-0.00976,0.03416,0.04148,0.0488,-0.03172,-0.00488,-0.10248,-0.1464,-0.12688,-0.05368,-0.01464
-0.01464,-0.00244,0.01952,0.02684,0.03416,-0.0244,-0.01464,-0.10736,-0.13664,-0.12688,-0.05368,-0.01464
-0.00976,-0.00732,0.0244,0.02928,0.03416,-0.02196,-0.01464,-0.10736,-0.13176,-0.122,-0.05368,-0.00976
-0.00976,-0.00976,0.02928,0.03416,0.03904,-0.0244,-0.00976,-0.11224,-0.13664,-0.122,-0.0488,-0.00976
-0.00488,-0.0122,0.02928,0.03172,0.03416,-0.01952,-0.01464,-0.11224,-0.13664,-0.122,-0.04392,-0.00488
-0.0244,-0.00244,0.02928,0.04148,0.05368,-0.03904,-0.00976,-0.10736,-0.12688,-0.11224,-0.03416,0.00976
-0.04392,0.0122,0.01952,0.04148,0.06344,-0.05368,-0.00976,-0.10736,-0.13176,-0.11712,-0.03904,0
-0.0488,0.03172,-0.01464,0.00976,0.03416,-0.04148,-0.00488,-0.14152,-0.16104,-0.1464,-0.06832,-0.01952
-0.06832,0.05856,-0.0488,-0.01464,0.01952,-0.04392,0.00488,-0.14152,-0.1708,-0.16592,-0.08784,-0.03416
-0.0732,0.06832,-0.06344,-0.02684,0.00976,-0.04148,-0.00488,-0.1464,-0.18056,-0.16592,-0.0976,-0.0488
-0.0732,0.0732,-0.0732,-0.0366,0,-0.0366,-0.00488,-0.1464,-0.19032,-0.1708,-0.0976,-0.05368
-0.0732,0.0732,-0.0732,-0.0366,0,-0.0366,-0.00488,-0.1464,-0.19032,-0.17568,-0.0976,-0.05368
-0.07808,0.07564,-0.0732,-0.03416,0.00488,-0.04148,-0.00488,-0.15616,-0.19032,-0.17568,-0.0976,-0.05368
-0.07808,0.08052,-0.08296,-0.04392,-0.00488,-0.0366,-0.00488,-0.1464,-0.20008,-0.18056,-0.10248,-0.06832
-0.07808,0.08052,-0.08296,-0.04392,-0.00488,-0.0366,-0.00488,-0.1464,-0.20496,-0.18056,-0.10248,-0.06832
-0.08784,0.08296,-0.07808,-0.03416,0.00976,-0.0488,0,-0.15128,-0.20496,-0.18056,-0.10736,-0.06832
-0.08784,0.08296,-0.07808,-0.03416,0.00976,-0.0488,0,-0.15128,-0.20496,-0.18056,-0.10736,-0.06832
-0.08296,0.0854,-0.08784,-0.04636,-0.00488,-0.03904,0.00488,-0.1464,-0.20984,-0.18544,-0.0976,-0.05856
-0.08296,0.08784,-0.09272,-0.05124,-0.00976,-0.0366,0.00976,-0.1464,-0.20984,-0.18544,-0.0976,-0.05856
-0.08296,0.08784,-0.09272,-0.05124,-0.00976,-0.0366,0,-0.13176,-0.1952,-0.17568,-0.0976,-0.05856
-0.08296,0.08784,-0.09272,-0.05124,-0.00976,-0.0366,0,-0.13176,-0.1952,-0.17568,-0.0976,-0.05856
-0.0732,0.08296,-0.09272,-0.05612,-0.01952,-0.02684,0,-0.13176,-0.20496,-0.18544,-0.10736,-0.05856
-0.07808,0.0854,-0.09272,-0.05368,-0.01464,-0.03172,0.00976,-0.12688,-0.1952,-0.18544,-0.11224,-0.06344
-0.08784,0.0854,-0.08296,-0.03904,0.00488,-0.04636,0.03416,-0.10248,-0.17568,-0.18056,-0.122,-0.06344
-0.122,0.0976,-0.0732,-0.0122,0.0488,-0.0854,0.07808,-0.02928,-0.13664,-0.18056,-0.13176,-0.09272
-0.13176,0.10004,-0.06832,-0.00244,0.06344,-0.0976,0.10248,0,-0.08296,-0.16104,-0.122,-0.0976
-0.12688,0.09272,-0.05856,0.00488,0.06832,-0.0976,0.12688,0.01952,-0.01464,-0.08296,-0.08296,-0.07808
-0.10248,0.08052,-0.05856,-0.00732,0.04392,-0.0732,0.11712,0.04392,0.09272,0.04392,-0.01952,-0.04392
-0.04392,0.0488,-0.05368,-0.03172,-0.00976,-0.01708,0.10248,0.19032,0.33672,0.33184,0.1708,0.07808
0.07808,-0.0366,-0.00488,-0.04392,-0.08296,0.08052,0.0488,0.33184,0.63928,0.70272,0.43432,0.22448
0.23912,-0.19276,0.1464,0.02684,-0.09272,0.16592,-0.03416,0.44896,1.05408,1.24928,0.81984,0.48312
0.46848,-0.38552,0.30256,0.06832,-0.16592,0.3172,-0.16592,0.52216,1.60552,1.96664,1.32736,0.82472
0.6588,-0.55876,0.45872,0.12932,-0.20008,0.42944,-0.35624,0.2684,1.78608,2.44976,1.74216,1.14192
0.72224,-0.60756,0.49288,0.13176,-0.22936,0.4758,-0.488,0.0244,1.64944,2.44488,1.82512,1.20536
0.6588,-0.56364,0.46848,0.13908,-0.19032,0.42456,-0.54168,-0.3904,1.24928,2.06424,1.5616,1.05896
0.52216,-0.3172,0.11224,-0.14884,-0.40992,0.46604,-0.5124,-0.75152,0.37088,1.11264,0.90768,0.64416
0.35136,-0.061,-0.22936,-0.40504,-0.58072,0.46604,-0.42944,-0.94672,-0.45384,0.17568,0.27816,0.244
0.20496,0.1464,-0.49776,-0.60024,-0.70272,0.45384,-0.3172,-0.93696,-1.00528,-0.55144,-0.1952,-0.05368
0.11224,0.24156,-0.59536,-0.65148,-0.7076,0.40992,-0.27328,-0.94672,-1.2932,-0.92232,-0.45384,-0.21472
0.07808,0.29036,-0.6588,-0.69784,-0.73688,0.40748,-0.2684,-0.8784,-1.23464,-0.93696,-0.5368,-0.28792
0.03904,0.3172,-0.67344,-0.69296,-0.71248,0.37576,-0.23912,-0.84912,-1.19072,-0.94184,-0.57096,-0.32696
-0.02928,0.33672,-0.64416,-0.62952,-0.61488,0.2928,-0.20496,-0.74664,-1.05896,-0.87352,-0.54656,-0.32208
-0.06832,0.32452,-0.58072,-0.54656,-0.5124,0.22204,-0.13176,-0.62952,-0.91256,-0.77104,-0.488,-0.29768
-0.0732,0.25376,-0.43432,-0.39772,-0.36112,0.14396,-0.09272,-0.53192,-0.74664,-0.63928,-0.38552,-0.24888
-0.07808,0.18788,-0.29768,-0.25864,-0.2196,0.07076,-0.02928,-0.38064,-0.55144,-0.4636,-0.2684,-0.16592
-0.08784,0.16592,-0.244,-0.20008,-0.15616,0.03416,0.03904,-0.20496,-0.3904,-0.3416,-0.20496,-0.11712
-0.0732,0.1464,-0.2196,-0.183,-0.1464,0.0366,0.05368,-0.08296,-0.2684,-0.2684,-0.15128,-0.09272
-0.05856,0.11468,-0.1708,-0.14152,-0.11224,0.02684,0.04392,-0.0488,-0.21472,-0.22936,-0.11712,-0.07808
-0.05856,0.09516,-0.13176,-0.10248,-0.0732,0.00732,0.03904,-0.05856,-0.2196,-0.21472,-0.11224,-0.0732
-0.0488,0.08784,-0.12688,-0.10248,-0.07808,0.01464,0.02928,-0.0488,-0.1952,-0.1952,-0.10736,-0.04392
-0.0488,0.08784,-0.12688,-0.10248,-0.07808,0.01464,0.02928,-0.02928,-0.16104,-0.18544,-0.09272,-0.03416
-0.0488,0.07564,-0.10248,-0.07808,-0.05368,0.00244,0.0244,-0.02928,-0.13664,-0.16104,-0.0732,-0.04392
-0.0488,0.06832,-0.08784,-0.06344,-0.03904,-0.00488,0.0244,-0.02928,-0.14152,-0.15616,-0.0732,-0.03904
-0.0488,0.06832,-0.08784,-0.06344,-0.03904,-0.00488,0.03416,-0.01464,-0.13664,-0.1464,-0.05856,-0.02928
-0.0488,0.06588,-0.08296,-0.05856,-0.03416,-0.00732,0.03416,0,-0.12688,-0.14152,-0.05368,-0.01952
-0.0488,0.06588,-0.08296,-0.05856,-0.03416,-0.00732,0.03904,0,-0.10736,-0.122,-0.03904,-0.01952
-0.04392,0.061,-0.07808,-0.05612,-0.03416,-0.00488,0.03904,0,-0.10736,-0.11712,-0.03416,-0.01464
-0.03416,0.05368,-0.0732,-0.05612,-0.03904,0.00244,0.04392,0,-0.10736,-0.11712,-0.03416,-0.00976
-0.03416,0.05368,-0.0732,-0.05612,-0.03904,0.00244,0.04392,0.00488,-0.0976,-0.10248,-0.0244,-0.00976
-0.02928,0.04636,-0.06344,-0.0488,-0.03416,0.00244,0.04392,0.00488,-0.08784,-0.0976,-0.0244,-0.00488
-0.0244,0.0366,-0.0488,-0.0366,-0.0244,0,0.03416,0.01464,-0.08296,-0.09272,-0.01464,-0.00488
-0.02928,0.03904,-0.0488,-0.03416,-0.01952,-0.00488,0.02928,0.00976,-0.08296,-0.08296,-0.01464,0
-0.02928,0.03904,-0.0488,-0.03416,-0.01952,-0.00488,0.02928,0.01952,-0.0732,-0.07808,-0.00976,0.00488
-0.01464,0.02928,-0.04392,-0.0366,-0.02928,0.00732,0.03904,0.04392,-0.06832,-0.06832,-0.00488,0.00976
-0.00976,0.0244,-0.03904,-0.03416,-0.02928,0.00976,0.03904,0.05368,-0.04392,-0.05856,0.00488,0.01464
-0.00488,0.01708,-0.02928,-0.02684,-0.0244,0.00976,0.03416,0.05856,-0.0244,-0.04392,0.01464,0.01952
-0.00488,0.01464,-0.0244,-0.02196,-0.01952,0.00732,0.03416,0.06832,-0.00488,-0.03416,0.01952,0.0244
0,0.0122,-0.0244,-0.0244,-0.0244,0.0122,0.03416,0.06832,0.00976,-0.00976,0.02928,0.02928
0.00488,0.00488,-0.01464,-0.01708,-0.01952,0.0122,0.03416,0.08296,0.03904,0.00976,0.03904,0.03904
0.00976,-0.00244,-0.00488,-0.00976,-0.01464,0.0122,0.0244,0.0976,0.05856,0.01464,0.0488,0.03904
0.0244,-0.00976,-0.00488,-0.01708,-0.02928,0.02684,0.01952,0.11712,0.08784,0.03904,0.05856,0.05368
0.02928,-0.01708,0.00488,-0.00976,-0.0244,0.02684,0.01952,0.14152,0.12688,0.05856,0.08296,0.05856
0.03416,-0.0244,0.01464,-0.00244,-0.01952,0.02684,0.01952,0.16104,0.15616,0.08296,0.0976,0.06832
0.04392,-0.03172,0.01952,-0.00244,-0.0244,0.03416,0.01952,0.1708,0.18056,0.122,0.11712,0.08784
0.05368,-0.04148,0.02928,0.00244,-0.0244,0.03904,0.01464,0.20496,0.2196,0.15128,0.13664,0.0976
0.06344,-0.05368,0.04392,0.0122,-0.01952,0.04148,0.01464,0.22936,0.2684,0.18544,0.16592,0.11224
0.0732,-0.06344,0.05368,0.01708,-0.01952,0.04636,0.00976,0.25376,0.3172,0.22448,0.18544,0.122
0.08296,-0.0732,0.06344,0.02196,-0.01952,0.05124,0.00488,0.27816,0.35624,0.24888,0.20496,0.14152
0.10248,-0.09272,0.08296,0.03172,-0.01952,0.061,0.00488,0.31232,0.38552,0.28792,0.23424,0.16104
0.11224,-0.10492,0.0976,0.04148,-0.01464,0.06344,-0.00488,0.33184,0.43432,0.3416,0.26352,0.18056
0.122,-0.11712,0.11224,0.05124,-0.00976,0.06588,-0.00488,0.36112,0.47824,0.38064,0.2928,0.20008
0.13664,-0.13176,0.12688,0.05856,-0.00976,0.0732,-0.01952,0.38064,0.52704,0.41968,0.32696,0.2196
0.15128,-0.14884,0.1464,0.07076,-0.00488,0.07808,-0.0244,0.40992,0.5612,0.44896,0.34648,0.23912
0.1708,-0.17324,0.17568,0.09028,0.00488,0.08296,-0.0244,0.43432,0.60024,0.47336,0.36112,0.25864
0.18056,-0.18544,0.19032,0.10004,0.00976,0.0854,-0.0244,0.4392,0.62464,0.49288,0.38064,0.2684
0.18056,-0.19032,0.20008,0.1098,0.01952,0.08052,-0.02928,0.45872,0.6588,0.5124,0.40504,0.27816
0.19032,-0.20008,0.20984,0.11468,0.01952,0.0854,-0.02928,0.47336,0.66856,0.52216,0.4148,0.28792
0.20496,-0.20984,0.21472,0.11224,0.00976,0.0976,-0.02928,0.48312,0.67832,0.53192,0.41968,0.2928
0.20496,-0.21228,0.2196,0.11712,0.01464,0.09516,-0.0244,0.49288,0.69296,0.5368,0.42944,0.30256
0.20496,-0.21716,0.22936,0.12688,0.0244,0.09028,-0.01952,0.49288,0.6832,0.54656,0.42944,0.30256
0.20496,-0.2196,0.23424,0.13176,0.02928,0.08784,-0.01952,0.49776,0.6832,0.5368,0.42944,0.31232
0.1952,-0.20984,0.22448,0.12688,0.02928,0.08296,-0.00488,0.49776,0.67832,0.52704,0.43432,0.3172
0.18544,-0.20496,0.22448,0.13176,0.03904,0.0732,0,0.50264,0.65392,0.50752,0.42456,0.3172
0.18544,-0.2074,0.22936,0.13664,0.04392,0.07076,0,0.488,0.61976,0.47824,0.40504,0.2928
0.17568,-0.1952,0.21472,0.12688,0.03904,0.06832,0.00488,0.4636,0.58072,0.44408,0.38064,0.27328
0.16592,-0.183,0.20008,0.11712,0.03416,0.06588,0.01952,0.44408,0.54168,0.4148,0.35136,0.26352
0.1464,-0.16348,0.18056,0.10736,0.03416,0.05612,0.0244,0.4148,0.49288,0.37088,0.32208,0.244
0.13176,-0.15128,0.1708,0.10492,0.03904,0.04636,0.03416,0.38064,0.43432,0.33184,0.2928,0.22448
0.11224,-0.13176,0.15128,0.09516,0.03904,0.0366,0.03416,0.33672,0.38064,0.28304,0.24888,0.1952
0.10248,-0.11224,0.122,0.07076,0.01952,0.04148,0.0488,0.3172,0.33184,0.22936,0.22448,0.17568
0.08784,-0.0976,0.10736,0.06344,0.01952,0.03416,0.05368,0.27328,0.27328,0.18056,0.1952,0.15128
0.07808,-0.08052,0.08296,0.04392,0.00488,0.0366,0.05368,0.23424,0.22448,0.1464,0.16592,0.14152
0.06344,-0.06344,0.06344,0.03172,0,0.03172,0.05856,0.20008,0.1708,0.11224,0.13664,0.11224
0.0488,-0.04636,0.04392,0.01952,-0.00488,0.02684,0.06832,0.18056,0.13664,0.0732,0.10736,0.0976
0.03904,-0.0366,0.03416,0.01464,-0.00488,0.02196,0.06344,0.1464,0.0976,0.04392,0.08784,0.08296
0.02928,-0.02196,0.01464,0,-0.01464,0.02196,0.06344,0.11712,0.0488,0.00488,0.06344,0.06344
0.01952,-0.0122,0.00488,-0.00488,-0.01464,0.01708,0.05856,0.08784,0.01952,-0.01952,0.04392,0.04392
0.00976,0.00488,-0.01952,-0.0244,-0.02928,0.01952,0.05856,0.06832,0,-0.02928,0.03904,0.03904
0.00488,0.00976,-0.0244,-0.02684,-0.02928,0.01708,0.05368,0.05368,-0.00976,-0.05368,0.03416,0.02928
-0.00976,0.0244,-0.03904,-0.03416,-0.02928,0.00976,0.05368,0.0488,-0.0244,-0.05856,0.01952,0.02928
-0.00976,0.02928,-0.0488,-0.04392,-0.03904,0.01464,0.05368,0.02928,-0.04392,-0.06832,0.01464,0.01952
-0.01464,0.02684,-0.03904,-0.03172,-0.0244,0.00488,0.0488,0.00976,-0.05368,-0.0732,0,0.00976
-0.01464,0.02684,-0.03904,-0.03172,-0.0244,0.00488,0.0488,0.00488,-0.06344,-0.08296,-0.00488,0.00976
-0.01464,0.02928,-0.04392,-0.0366,-0.02928,0.00732,0.04392,0.00976,-0.06344,-0.08784,0,0.00976
-0.01464,0.02928,-0.04392,-0.0366,-0.02928,0.00732,0.04392,0.00488,-0.06832,-0.08784,0,0.00488
-0.01464,0.02928,-0.04392,-0.0366,-0.02928,0.00732,0.0488,0.00488,-0.06832,-0.07808,0,0.00976
-0.01464,0.02928,-0.04392,-0.0366,-0.02928,0.00732,0.0488,0,-0.0732,-0.08296,0,0.01952
-0.01464,0.02928,-0.04392,-0.0366,-0.02928,0.00732,0.03904,-0.01464,-0.07808,-0.08296,0,0.01464
-0.01952,0.03172,-0.04392,-0.03416,-0.0244,0.00244,0.03904,-0.01464,-0.07808,-0.08296,0,0.01464
-0.01464,0.02928,-0.04392,-0.0366,-0.02928,0.00732,0.04392,-0.01952,-0.08296,-0.08296,0.00976,0.01464
-0.01464,0.02684,-0.03904,-0.03172,-0.0244,0.00488,0.04392,-0.01952,-0.08784,-0.08296,0.01464,0.01464
-0.00488,0.02196,-0.03904,-0.0366,-0.03416,0.01464,0.04392,-0.01952,-0.08784,-0.08784,0.01464,0.02928
-0.00488,0.02196,-0.03904,-0.0366,-0.03416,0.01464,0.04392,-0.0244,-0.09272,-0.08784,0.01464,0.0244
-0.01464,0.02684,-0.03904,-0.03172,-0.0244,0.00488,0.03416,-0.01952,-0.10248,-0.0976,0.00976,0.02928
-0.01464,0.02684,-0.03904,-0.03172,-0.0244,0.00488,0.03416,-0.01952,-0.10248,-0.0976,0.00976,0.02928
-0.00488,0.02196,-0.03904,-0.0366,-0.03416,0.01464,0.04392,-0.02928,-0.10248,-0.08784,0.01952,0.01952
-0.00488,0.02196,-0.03904,-0.0366,-0.03416,0.01464,0.04392,-0.02928,-0.10248,-0.08296,0.02928,0.0244
-0.00488,0.02196,-0.03904,-0.0366,-0.03416,0.01464,0.03416,-0.03416,-0.10248,-0.08296,0.01952,0.0244
-0.00976,0.02196,-0.03416,-0.02928,-0.0244,0.00732,0.03416,-0.03416,-0.10248,-0.08296,0.01952,0.0244
-0.00976,0.02196,-0.03416,-0.02928,-0.0244,0.00732,0.0244,-0.03904,-0.11224,-0.08784,0.01952,0.0244
-0.01952,0.02684,-0.03416,-0.0244,-0.01464,-0.00244,0.0244,-0.03904,-0.11224,-0.08784,0.0244,0.0244
-0.00488,0.01952,-0.03416,-0.03172,-0.02928,0.0122,0.0244,-0.04392,-0.11712,-0.08784,0.01952,0.0244
-0.00976,0.02196,-0.03416,-0.02928,-0.0244,0.00732,0.0244,-0.0488,-0.11712,-0.08784,0.01952,0.0244
-0.00976,0.02684,-0.04392,-0.03904,-0.03416,0.0122,0.0244,-0.0488,-0.12688,-0.08784,0.01952,0.03416
-0.00976,0.02684,-0.04392,-0.03904,-0.03416,0.0122,0.0244,-0.0488,-0.12688,-0.08784,0.01952,0.02928
-0.00976,0.02928,-0.0488,-0.04392,-0.03904,0.01464,0.02928,-0.05368,-0.12688,-0.08784,0.01952,0.01952
-0.00976,0.03172,-0.05368,-0.0488,-0.04392,0.01708,0.02928,-0.05368,-0.13176,-0.08784,0.01952,0.01952
-0.01464,0.03416,-0.05368,-0.04636,-0.03904,0.0122,0.02928,-0.05856,-0.13176,-0.08784,0.01952,0.01952
-0.01464,0.03416,-0.05368,-0.04636,-0.03904,0.0122,0.0244,-0.05856,-0.13176,-0.08784,0.01952,0.01464
-0.01952,0.0366,-0.05368,-0.04392,-0.03416,0.00732,0.0244,-0.06832,-0.13664,-0.0976,0.01952,0.0244
-0.01952,0.0366,-0.05368,-0.04392,-0.03416,0.00732,0.0244,-0.0732,-0.13664,-0.0976,0.01464,0.0244
-0.01952,0.03904,-0.05856,-0.0488,-0.03904,0.00976,0.0244,-0.0732,-0.1464,-0.10736,0.00976,0.01464
-0.0244,0.04148,-0.05856,-0.04636,-0.03416,0.00488,0.0244,-0.07808,-0.15128,-0.10736,0.00488,0.01464
-0.0244,0.04636,-0.06832,-0.05612,-0.04392,0.00976,0.03416,-0.06832,-0.14152,-0.0976,0.01464,0.0244
-0.0244,0.0488,-0.0732,-0.061,-0.0488,0.0122,0.03416,-0.0732,-0.14152,-0.10248,0.01464,0.0244
-0.03416,0.05368,-0.0732,-0.05612,-0.03904,0.00244,0.0244,-0.07808,-0.15128,-0.10248,0.00488,0.01952
-0.03416,0.05368,-0.0732,-0.05612,-0.03904,0.00244,0.0244,-0.07808,-0.15128,-0.10248,0.00488,0.01952
-0.03416,0.0488,-0.06344,-0.04636,-0.02928,-0.00244,0.0244,-0.08784,-0.15128,-0.11712,-0.00488,0.00976
-0.03416,0.05124,-0.06832,-0.05124,-0.03416,0,0.0244,-0.09272,-0.16104,-0.11712,-0.00488,0.00976
-0.03416,0.05124,-0.06832,-0.05124,-0.03416,0,0.0244,-0.09272,-0.16104,-0.11712,0.00488,0.00976
-0.03904,0.05368,-0.06832,-0.0488,-0.02928,-0.00488,0.0244,-0.0976,-0.16104,-0.11712,0,0.00976
-0.02928,0.05124,-0.0732,-0.05856,-0.04392,0.00732,0.01952,-0.0976,-0.16592,-0.11712,-0.00488,0.00976
-0.02928,0.05612,-0.08296,-0.06832,-0.05368,0.0122,0.01952,-0.10248,-0.1708,-0.11712,-0.00488,0.00976
-0.03904,0.05856,-0.07808,-0.05856,-0.03904,0,0.01952,-0.10248,-0.16104,-0.10736,-0.00488,0.00976
-0.03904,0.05612,-0.0732,-0.05368,-0.03416,-0.00244,0.01952,-0.10248,-0.16104,-0.10736,-0.00488,0.00976
-0.02928,0.05124,-0.0732,-0.05856,-0.04392,0.00732,0.01464,-0.10736,-0.17568,-0.122,-0.00488,0.00976
-0.03416,0.05612,-0.07808,-0.061,-0.04392,0.00488,0.01952,-0.10736,-0.17568,-0.122,-0.00488,0.00488
-0.02928,0.061,-0.09272,-0.07808,-0.06344,0.01708,0.02928,-0.0976,-0.16592,-0.10736,-0.00488,0.01464
-0.02928,0.061,-0.09272,-0.07808,-0.06344,0.01708,0.02928,-0.0976,-0.16592,-0.11224,0,0.00976
-0.03904,0.07076,-0.10248,-0.08296,-0.06344,0.0122,0.03416,-0.0976,-0.16592,-0.11224,0.00976,0.00976
