i,aVR,ii,aVF,iii,aVL,V1,V2,V3,V4,V5,V6
-0.01464,0,0.01464,0.02196,0.02928,-0.02196,-0.00488,-0.04392,-0.01464,-0.0488,-0.02928,-0.03416
-0.00976,-0.00244,0.01464,0.01952,0.0244,-0.01708,0,-0.03904,0,-0.0488,-0.01952,-0.0244
-0.00976,0.01952,-0.02928,-0.0244,-0.01952,0.00488,0.00976,-0.02928,0,-0.03416,-0.01464,-0.0244
-0.00976,0.0122,-0.01464,-0.00976,-0.00488,-0.00244,0,-0.01464,-0.00488,-0.03904,-0.0244,-0.02928
-0.01464,0.00244,0.00976,0.01708,0.0244,-0.01952,-0.00976,-0.01464,-0.00976,-0.03904,-0.02928,-0.02928
-0.01464,-0.00244,0.01952,0.02684,0.03416,-0.0244,-0.00976,0,0.00488,-0.02928,-0.01464,-0.01952
-0.00976,0,0.00976,0.01464,0.01952,-0.01464,-0.00976,-0.01464,0.00488,-0.01952,-0.01464,-0.01952
-0.01464,0.00976,-0.00488,0.00244,0.00976,-0.0122,-0.00488,-0.01464,0,-0.01464,-0.01952,-0.0244
-0.0244,0.01952,-0.01464,-0.00244,0.00976,-0.01708,-0.00488,-0.01464,0,-0.0244,-0.01952,-0.0244
-0.01952,0.00976,0,0.00976,0.01952,-0.01952,0.00488,-0.0244,0.00976,-0.01952,-0.00488,-0.03416
-0.01464,0,0.01464,0.02196,0.02928,-0.02196,0.00488,-0.01952,0.01952,-0.01952,0,-0.02928
0,-0.01464,0.02928,0.02928,0.02928,-0.01464,0.00488,-0.0244,0.01952,-0.00976,0,-0.01952
-0.02928,0.01708,-0.00488,0.00976,0.0244,-0.02684,0,-0.0244,0.0244,-0.00976,0.00488,-0.01952
-0.01464,0.00488,0.00488,0.0122,0.01952,-0.01708,0.00976,-0.0244,0.01952,-0.00976,0,-0.01464
-0.01464,-0.00244,0.01952,0.02684,0.03416,-0.0244,0.01464,-0.01464,0.0244,-0.00488,0.00976,-0.00976
-0.01464,0.00732,0,0.00732,0.01464,-0.01464,0.00488,-0.00488,0.0244,-0.00976,0.00976,-0.00976
-0.01464,0,0.01464,0.02196,0.02928,-0.02196,-0.00976,-0.01464,0.0244,-0.00976,0.00488,-0.00976
0,-0.00976,0.01952,0.01952,0.01952,-0.00976,-0.01464,-0.00976,0.01464,-0.00976,0,-0.00976
-0.00488,-0.00488,0.01464,0.01708,0.01952,-0.0122,-0.01464,-0.01464,0.01464,-0.01464,0,-0.00976
0,-0.00488,0.00976,0.00976,0.00976,-0.00488,-0.01952,-0.00976,0.02928,-0.00488,0.01464,-0.00488
0.00488,-0.01464,0.0244,0.02196,0.01952,-0.00732,-0.0244,-0.00976,0.02928,0,0.01464,-0.00488
0.01464,-0.01708,0.01952,0.0122,0.00488,0.00488,-0.00976,-0.01464,0.01464,-0.00488,0,-0.01952
-0.01464,-0.00244,0.01952,0.02684,0.03416,-0.0244,0,-0.0244,0.01464,-0.01464,0,-0.01952
0,-0.00976,0.01952,0.01952,0.01952,-0.00976,0.00488,-0.01464,0.01952,-0.01464,0.00976,-0.01464
0,-0.00488,0.00976,0.00976,0.00976,-0.00488,-0.00976,-0.01464,0.01464,-0.00488,0.00976,-0.00488
-0.01464,0.00244,0.00976,0.01708,0.0244,-0.01952,-0.00488,-0.01464,0.00976,-0.00488,0,-0.01464
0,-0.00732,0.01464,0.01464,0.01464,-0.00732,0,-0.01464,0.00488,0,0,-0.00976
0.01464,-0.02196,0.02928,0.02196,0.01464,0,-0.00976,-0.0244,-0.00488,-0.00488,-0.00976,-0.01952
0.0244,-0.02684,0.02928,0.01708,0.00488,0.00976,-0.00976,-0.0244,-0.00488,-0.01952,-0.00976,-0.01952
0.01464,-0.0122,0.00976,0.00244,-0.00488,0.00976,-0.01952,-0.02928,-0.00488,-0.03416,-0.00976,-0.0244
-0.01464,0.00732,0,0.00732,0.01464,-0.01464,-0.01464,-0.0244,0,-0.0244,0,-0.0244
-0.01952,0.00976,0,0.00976,0.01952,-0.01952,-0.00488,-0.01952,-0.00488,-0.0244,-0.01464,-0.02928
-0.00976,-0.00732,0.0244,0.02928,0.03416,-0.02196,-0.00976,-0.0244,-0.00488,-0.0244,-0.00976,-0.02928
-0.01464,0.00244,0.00976,0.01708,0.0244,-0.01952,-0.00976,-0.0244,-0.00488,-0.01952,-0.00976,-0.01952
-0.00488,-0.00488,0.01464,0.01708,0.01952,-0.0122,-0.00488,-0.0244,-0.00488,-0.0244,-0.00976,-0.01952
-0.01952,0.0122,-0.00488,0.00488,0.01464,-0.01708,-0.01952,-0.0244,-0.00488,-0.02928,-0.01464,-0.0244
-0.01464,0.00732,0,0.00732,0.01464,-0.01464,-0.01952,-0.03904,-0.00976,-0.04392,-0.01464,-0.03416
-0.00976,0.01464,-0.01952,-0.01464,-0.00976,0,-0.01464,-0.03416,-0.00488,-0.04392,-0.00976,-0.03416
-0.00976,0.0122,-0.01464,-0.00976,-0.00488,-0.00244,-0.00976,-0.0244,0.00488,-0.02928,-0.00976,-0.0244
-0.00976,0.00976,-0.00976,-0.00488,0,-0.00488,-0.01464,-0.02928,-0.01464,-0.02928,-0.01464,-0.02928
-0.01952,0.00244,0.01464,0.0244,0.03416,-0.02684,-0.01952,-0.03904,-0.01464,-0.02928,-0.0244,-0.02928
-0.01952,0,0.01952,0.02928,0.03904,-0.02928,-0.00976,-0.03904,-0.01952,-0.02928,-0.01952,-0.0244
-0.01952,0.00244,0.01464,0.0244,0.03416,-0.02684,-0.00488,-0.02928,-0.00976,-0.02928,-0.01952,-0.03416
-0.01464,0.01464,-0.01464,-0.00732,0,-0.00732,-0.00488,-0.01952,-0.00976,-0.0244,-0.00976,-0.02928
-0.02928,0.0244,-0.01952,-0.00488,0.00976,-0.01952,-0.00488,-0.01952,-0.00976,-0.0244,-0.00976,-0.03416
-0.01952,0.0122,-0.00488,0.00488,0.01464,-0.01708,-0.01464,-0.04392,-0.01464,-0.03904,-0.01952,-0.0488
-0.01464,0,0.01464,0.02196,0.02928,-0.02196,-0.0244,-0.04392,-0.0244,-0.03904,-0.03416,-0.0488
-0.01952,0.0122,-0.00488,0.00488,0.01464,-0.01708,-0.01464,-0.03904,-0.01952,-0.02928,-0.02928,-0.03904
-0.01952,0.00488,0.00976,0.01952,0.02928,-0.0244,-0.01952,-0.03416,-0.00976,-0.03416,-0.01952,-0.02928
0,-0.00488,0.00976,0.00976,0.00976,-0.00488,-0.0244,-0.01464,-0.00976,-0.03416,-0.01464,-0.03416
-0.01952,0.00976,0,0.00976,0.01952,-0.01952,-0.0244,-0.0244,-0.0244,-0.03416,-0.02928,-0.03904
-0.01464,0,0.01464,0.02196,0.02928,-0.02196,-0.00488,-0.02928,-0.01464,-0.02928,-0.03416,-0.02928
-0.00976,-0.00732,0.0244,0.02928,0.03416,-0.02196,0.00488,-0.02928,-0.00976,-0.02928,-0.0244,-0.03416
0,-0.00976,0.01952,0.01952,0.01952,-0.00976,0,-0.03416,-0.00976,-0.03904,-0.01952,-0.03904
-0.01952,0.00488,0.00976,0.01952,0.02928,-0.0244,-0.01464,-0.0488,-0.01952,-0.03904,-0.01952,-0.03904
-0.0244,0.00488,0.01464,0.02684,0.03904,-0.03172,-0.01952,-0.0488,-0.01952,-0.03904,-0.02928,-0.02928
-0.0244,0.00976,0.00488,0.01708,0.02928,-0.02684,-0.01464,-0.0488,-0.0244,-0.03416,-0.02928,-0.02928
-0.01464,0.01464,-0.01464,-0.00732,0,-0.00732,-0.00488,-0.04392,-0.01464,-0.03904,-0.02928,-0.03904
-0.00976,0.0122,-0.01464,-0.00976,-0.00488,-0.00244,-0.01464,-0.03904,-0.01464,-0.04392,-0.02928,-0.04392
-0.01464,0.01464,-0.01464,-0.00732,0,-0.00732,-0.01952,-0.03416,-0.02928,-0.04392,-0.02928,-0.03416
-0.0244,0.0122,0,0.0122,0.0244,-0.0244,-0.01952,-0.03416,-0.0244,-0.03416,-0.02928,-0.02928
-0.01464,0.0122,-0.00976,-0.00244,0.00488,-0.00976,-0.00976,-0.03416,-0.0244,-0.02928,-0.01952,-0.03416
-0.0244,0.00976,0.00488,0.01708,0.02928,-0.02684,0,-0.03416,-0.01464,-0.02928,-0.01952,-0.03416
-0.01952,0.01464,-0.00976,0,0.00976,-0.01464,-0.00488,-0.04392,-0.00488,-0.02928,-0.01952,-0.03416
-0.00976,0.00732,-0.00488,0,0.00488,-0.00732,-0.00976,-0.04392,-0.01464,-0.03416,-0.01952,-0.02928
-0.00488,0.00488,-0.00488,-0.00244,0,-0.00244,-0.0244,-0.04392,-0.00976,-0.03416,-0.0244,-0.03416
-0.00488,0.00976,-0.01464,-0.0122,-0.00976,0.00244,-0.00976,-0.04392,0.00488,-0.02928,-0.00976,-0.02928
-0.01952,0.0122,-0.00488,0.00488,0.01464,-0.01708,-0.00488,-0.03416,-0.01464,-0.02928,-0.01464,-0.01952
-0.01952,0.00244,0.01464,0.0244,0.03416,-0.02684,-0.00488,-0.03416,-0.01464,-0.0244,-0.01464,-0.01952
-0.02928,0.0244,-0.01952,-0.00488,0.00976,-0.01952,-0.01464,-0.02928,-0.0244,-0.04392,-0.03904,-0.03416
-0.02928,0.02684,-0.0244,-0.00976,0.00488,-0.01708,-0.01464,-0.03416,-0.01952,-0.04392,-0.04392,-0.03416
-0.00976,0.02928,-0.0488,-0.04392,-0.03904,0.01464,-0.00976,-0.01464,0,-0.02928,-0.01952,-0.01952
-0.00976,0.01952,-0.02928,-0.0244,-0.01952,0.00488,-0.00976,-0.0244,0,-0.02928,-0.01952,-0.01952
-0.00976,0.0122,-0.01464,-0.00976,-0.00488,-0.00244,-0.00976,-0.03904,-0.01464,-0.03416,-0.02928,-0.02928
-0.00488,-0.00244,0.00976,0.0122,0.01464,-0.00976,-0.01464,-0.03904,-0.01464,-0.02928,-0.0244,-0.02928
-0.00976,-0.00488,0.01952,0.0244,0.02928,-0.01952,-0.0244,-0.0244,-0.01952,-0.02928,-0.02928,-0.02928
-0.00488,-0.00244,0.00976,0.0122,0.01464,-0.00976,-0.03416,-0.03416,-0.01952,-0.02928,-0.03904,-0.02928
0,-0.00732,0.01464,0.01464,0.01464,-0.00732,-0.0244,-0.03904,-0.00488,-0.02928,-0.0244,-0.01464
0,-0.00976,0.01952,0.01952,0.01952,-0.00976,-0.01464,-0.0244,0.00488,-0.01952,-0.01952,-0.00976
0.01464,-0.02196,0.02928,0.02196,0.01464,0,-0.00976,-0.0244,0.00488,-0.01464,-0.00976,-0.01464
0.00488,-0.01464,0.0244,0.02196,0.01952,-0.00732,0.00488,-0.01464,0.0244,0,0.00488,-0.00488
0.01952,-0.0366,0.05368,0.04392,0.03416,-0.00732,-0.00488,-0.00976,0.04392,0,0.01952,0.00976
0.01464,-0.03416,0.05368,0.04636,0.03904,-0.0122,0.00976,0,0.05368,0.00976,0.02928,0.01464
0.00976,-0.0366,0.06344,0.05856,0.05368,-0.02196,0.00976,0.00488,0.0488,0.01464,0.03416,0.01464
0.00976,-0.04392,0.07808,0.0732,0.06832,-0.02928,0.0244,0,0.05368,0.00488,0.02928,0.00488
0.03416,-0.05124,0.06832,0.05124,0.03416,0,0.03416,0.00488,0.03904,0.00488,0.01952,0.00976
0.03416,-0.05124,0.06832,0.05124,0.03416,0,0.03416,0.00976,0.04392,0.00488,0.01952,0.00488
0.03904,-0.04392,0.0488,0.02928,0.00976,0.01464,0.04392,0.0244,0.04392,0,0.01952,0.00976
0.05368,-0.0366,0.01952,-0.00732,-0.03416,0.04392,0.01952,0.0244,0.05368,0.01952,0.02928,0.01464
0.05856,-0.03416,0.00976,-0.01952,-0.0488,0.05368,-0.00488,0.0244,0.03904,0,0.01464,0.01464
0.05368,-0.0244,-0.00488,-0.03172,-0.05856,0.05612,-0.00976,0.01464,0.00488,-0.00976,0,0.00488
0.06344,-0.01952,-0.0244,-0.05612,-0.08784,0.07564,-0.03904,-0.01464,-0.00976,-0.01952,-0.01464,-0.00488
0.06832,-0.02684,-0.01464,-0.0488,-0.08296,0.07564,-0.0488,-0.02928,-0.0244,-0.0244,-0.01952,-0.01952
0.05856,-0.01464,-0.02928,-0.05856,-0.08784,0.0732,-0.0488,-0.03904,-0.0244,-0.02928,-0.0244,-0.02928
0.0488,-0.0122,-0.0244,-0.0488,-0.0732,0.061,-0.05368,-0.03416,-0.03416,-0.03904,-0.0244,-0.03416
0.03416,0,-0.03416,-0.05124,-0.06832,0.05124,-0.06344,-0.04392,-0.03416,-0.04392,-0.04392,-0.03416
0.03416,-0.00488,-0.0244,-0.04148,-0.05856,0.04636,-0.0488,-0.04392,-0.03904,-0.04392,-0.03904,-0.03416
0.01464,0.00488,-0.0244,-0.03172,-0.03904,0.02684,-0.03904,-0.04392,-0.04392,-0.04392,-0.0488,-0.03904
-0.02928,0.03172,-0.03416,-0.01952,-0.00488,-0.0122,-0.02928,-0.03904,-0.04392,-0.0488,-0.05368,-0.0488
-0.0244,0.02196,-0.01952,-0.00732,0.00488,-0.01464,-0.01464,-0.03904,-0.03904,-0.05368,-0.0488,-0.03904
-0.01952,0.01952,-0.01952,-0.00976,0,-0.00976,-0.01464,-0.03416,-0.0244,-0.04392,-0.03904,-0.02928
-0.02928,0.0366,-0.04392,-0.02928,-0.01464,-0.00732,-0.0244,-0.0488,-0.03904,-0.05368,-0.03904,-0.03904
-0.02928,0.03416,-0.03904,-0.0244,-0.00976,-0.00976,-0.02928,-0.05856,-0.04392,-0.05856,-0.04392,-0.04392
-0.0244,0.02928,-0.03416,-0.02196,-0.00976,-0.00732,-0.02928,-0.06344,-0.05856,-0.05856,-0.05856,-0.05368
-0.04392,0.03904,-0.03416,-0.0122,0.00976,-0.02684,-0.03904,-0.0732,-0.05368,-0.05856,-0.0488,-0.05856
-0.0488,0.05124,-0.05368,-0.02928,-0.00488,-0.02196,-0.03416,-0.06344,-0.04392,-0.04392,-0.03416,-0.0488
-0.02928,0.03416,-0.03904,-0.0244,-0.00976,-0.00976,-0.03904,-0.05368,-0.03416,-0.04392,-0.03416,-0.04392
-0.03416,0.03904,-0.04392,-0.02684,-0.00976,-0.0122,-0.01952,-0.03904,-0.01952,-0.03904,-0.02928,-0.03416
-0.03904,0.04148,-0.04392,-0.0244,-0.00488,-0.01708,-0.01464,-0.03904,-0.01952,-0.03904,-0.03416,-0.03904
-0.06344,0.05856,-0.05368,-0.02196,0.00976,-0.0366,-0.01464,-0.03416,-0.00976,-0.03904,-0.02928,-0.03904
-0.01952,0.01708,-0.01464,-0.00488,0.00488,-0.0122,0.00976,-0.00488,0.00976,-0.0244,-0.00488,-0.03416
-0.05856,0.05856,-0.05856,-0.02928,0,-0.02928,0.03416,0.06344,0.06344,-0.00488,0.02928,-0.01952
-0.02928,-0.00488,0.03904,0.05368,0.06832,-0.0488,0.10736,0.15128,0.18056,0.04392,0.10248,0.01952
0.01464,-0.05368,0.09272,0.0854,0.07808,-0.03172,0.1464,0.20496,0.3172,0.16104,0.20984,0.0976
0.08296,-0.08784,0.09272,0.05124,0.00976,0.0366,0.14152,0.24888,0.42456,0.25864,0.32696,0.17568
0.16592,-0.1586,0.15128,0.06832,-0.01464,0.09028,0.0976,0.30744,0.53192,0.40504,0.46848,0.28792
0.37576,-0.33672,0.29768,0.1098,-0.07808,0.22692,0.0976,0.43432,0.6832,0.59048,0.6344,0.45384
0.52216,-0.41724,0.31232,0.05124,-0.20984,0.366,0.02928,0.45384,0.71248,0.68808,0.68808,0.55144
0.7076,-0.5612,0.4148,0.061,-0.2928,0.5002,-0.2684,0.28304,0.55144,0.69296,0.62952,0.59536
0.73688,-0.57096,0.40504,0.0366,-0.33184,0.53436,-0.5856,0.05856,0.29768,0.56608,0.45872,0.5368
0.62952,-0.42212,0.21472,-0.10004,-0.4148,0.52216,-0.65392,-0.18544,-0.10248,0.23912,0.08784,0.2928
0.33184,-0.1708,0.00976,-0.15616,-0.32208,0.32696,-0.69296,-0.65392,-0.58072,-0.1708,-0.34648,0
0.14152,-0.05612,-0.02928,-0.10004,-0.1708,0.15616,-0.72224,-0.94184,-0.7808,-0.30256,-0.5124,-0.11224
0.03416,-0.0122,-0.00976,-0.02684,-0.04392,0.03904,-0.60024,-0.84912,-0.7564,-0.30744,-0.488,-0.11712
0.00488,0.03416,-0.0732,-0.07564,-0.07808,0.04148,-0.50752,-0.67344,-0.6344,-0.27328,-0.41968,-0.10248
-0.00976,0.00732,-0.00488,0,0.00488,-0.00732,-0.3904,-0.56608,-0.49776,-0.22448,-0.34648,-0.10248
-0.06832,0.04392,-0.01952,0.01464,0.0488,-0.05856,-0.27816,-0.4392,-0.35624,-0.19032,-0.26352,-0.10736
-0.06344,0.0366,-0.00976,0.02196,0.05368,-0.05856,-0.1708,-0.27816,-0.21472,-0.13176,-0.16592,-0.0732
-0.05368,0.03904,-0.0244,0.00244,0.02928,-0.04148,-0.11712,-0.19032,-0.16104,-0.10248,-0.10736,-0.05368
-0.03904,0.01952,0,0.01952,0.03904,-0.03904,-0.09272,-0.15128,-0.122,-0.08784,-0.0976,-0.05856
-0.03416,0.01952,-0.00488,0.0122,0.02928,-0.03172,0.00488,-0.06832,-0.07808,-0.05856,-0.05856,-0.03904
-0.02928,0.0244,-0.01952,-0.00488,0.00976,-0.01952,0,-0.03416,-0.0488,-0.06344,-0.05856,-0.05368
-0.03904,0.03416,-0.02928,-0.00976,0.00976,-0.0244,-0.01464,-0.0488,-0.05368,-0.06344,-0.05368,-0.0488
-0.03904,0.03904,-0.03904,-0.01952,0,-0.01952,-0.00976,-0.05368,-0.05368,-0.05368,-0.03904,-0.04392
-0.03904,0.04636,-0.05368,-0.03416,-0.01464,-0.0122,0.00976,-0.04392,-0.03904,-0.05856,-0.04392,-0.04392
-0.04392,0.04148,-0.03904,-0.01708,0.00488,-0.0244,0.01464,-0.02928,-0.0244,-0.05368,-0.04392,-0.04392
-0.06344,0.05368,-0.04392,-0.0122,0.01952,-0.04148,0.00488,-0.02928,-0.02928,-0.0488,-0.04392,-0.03904
-0.05368,0.04392,-0.03416,-0.00732,0.01952,-0.0366,-0.00976,-0.02928,-0.04392,-0.0488,-0.0488,-0.03904
-0.05368,0.04636,-0.03904,-0.0122,0.01464,-0.03416,0,-0.0244,-0.03904,-0.0488,-0.04392,-0.04392
-0.03904,0.04636,-0.05368,-0.03416,-0.01464,-0.0122,0.01464,-0.00488,-0.01952,-0.04392,-0.03904,-0.03416
-0.0244,0.0122,0,0.0122,0.0244,-0.0244,0.0244,-0.00976,-0.01464,-0.04392,-0.01952,-0.02928
-0.0488,0.03172,-0.01464,0.00976,0.03416,-0.04148,0.03416,-0.02928,-0.03416,-0.03904,-0.02928,-0.03416
-0.0488,0.04148,-0.03416,-0.00976,0.01464,-0.03172,0.03904,-0.01952,-0.03416,-0.0488,-0.04392,-0.04392
-0.05856,0.0488,-0.03904,-0.00976,0.01952,-0.03904,0.04392,0,-0.01952,-0.0488,-0.04392,-0.04392
-0.0488,0.04636,-0.04392,-0.01952,0.00488,-0.02684,0.02928,0.00488,-0.01952,-0.03904,-0.03416,-0.03416
-0.0488,0.03904,-0.02928,-0.00488,0.01952,-0.03416,0.0244,-0.00976,-0.01952,-0.04392,-0.0244,-0.03904
-0.05368,0.03904,-0.0244,0.00244,0.02928,-0.04148,0.03416,-0.01464,-0.01464,-0.04392,-0.0244,-0.03904
-0.05368,0.04148,-0.02928,-0.00244,0.0244,-0.03904,0.03416,-0.00976,-0.01464,-0.04392,-0.01464,-0.03904
-0.05368,0.04392,-0.03416,-0.00732,0.01952,-0.0366,0.02928,-0.00488,-0.00976,-0.04392,-0.01464,-0.03904
-0.0488,0.04392,-0.03904,-0.01464,0.00976,-0.02928,0.0244,-0.00976,-0.0244,-0.05368,-0.02928,-0.0488
-0.0488,0.03904,-0.02928,-0.00488,0.01952,-0.03416,0.01464,-0.00488,-0.0244,-0.0488,-0.03416,-0.0488
-0.05368,0.05612,-0.05856,-0.03172,-0.00488,-0.0244,0.02928,-0.00488,-0.0244,-0.05856,-0.03904,-0.03904
-0.05368,0.0488,-0.04392,-0.01708,0.00976,-0.03172,0.02928,-0.00488,-0.0244,-0.05856,-0.04392,-0.04392
-0.0488,0.0366,-0.0244,0,0.0244,-0.0366,0.03904,0.00488,-0.00976,-0.04392,-0.02928,-0.02928
-0.04392,0.03416,-0.0244,-0.00244,0.01952,-0.03172,0.03416,0.01464,-0.00976,-0.03416,-0.01464,-0.02928
-0.03904,0.0366,-0.03416,-0.01464,0.00488,-0.02196,0.0244,0.01952,-0.00488,-0.03904,-0.01464,-0.03416
-0.03416,0.02684,-0.01952,-0.00244,0.01464,-0.0244,0.02928,0.00976,-0.00976,-0.04392,-0.02928,-0.04392
-0.03904,0.03172,-0.0244,-0.00488,0.01464,-0.02684,0.03904,0.01464,-0.01464,-0.04392,-0.03904,-0.0488
-0.04392,0.04636,-0.0488,-0.02684,-0.00488,-0.01952,0.03904,0.01464,-0.01464,-0.05856,-0.04392,-0.04392
-0.05368,0.05124,-0.0488,-0.02196,0.00488,-0.02928,0.0488,0.0244,-0.01464,-0.05856,-0.03416,-0.03904
-0.03416,0.03416,-0.03416,-0.01708,0,-0.01708,0.04392,0.0244,-0.01464,-0.0488,-0.0244,-0.02928
-0.03416,0.03172,-0.02928,-0.0122,0.00488,-0.01952,0.03904,0.0244,-0.01464,-0.04392,-0.02928,-0.02928
-0.03904,0.02684,-0.01464,0.00488,0.0244,-0.03172,0.03416,0.0244,-0.01952,-0.04392,-0.03416,-0.03904
-0.02928,0.02684,-0.0244,-0.00976,0.00488,-0.01708,0.02928,0.00488,-0.01952,-0.0488,-0.02928,-0.04392
-0.03904,0.03904,-0.03904,-0.01952,0,-0.01952,0.03904,0.02928,-0.00976,-0.03904,-0.01464,-0.03416
-0.04392,0.0366,-0.02928,-0.00732,0.01464,-0.02928,0.03416,0.03904,0,-0.0488,-0.0244,-0.04392
-0.02928,0.02196,-0.01464,0,0.01464,-0.02196,0.03904,0.04392,0.00488,-0.03904,-0.01952,-0.03904
-0.02928,0.02196,-0.01464,0,0.01464,-0.02196,0.03416,0.03416,0,-0.0488,-0.02928,-0.03904
-0.03904,0.03416,-0.02928,-0.00976,0.00976,-0.0244,0.03416,0.03416,-0.00976,-0.05368,-0.02928,-0.04392
-0.0244,0.02684,-0.02928,-0.01708,-0.00488,-0.00976,0.04392,0.05368,0,-0.04392,-0.0244,-0.04392
-0.0244,0.02684,-0.02928,-0.01708,-0.00488,-0.00976,0.05368,0.0732,0.00976,-0.02928,-0.00976,-0.02928
-0.03904,0.04148,-0.04392,-0.0244,-0.00488,-0.01708,0.04392,0.0732,0.01464,-0.02928,-0.00976,-0.02928
-0.01464,0.02684,-0.03904,-0.03172,-0.0244,0.00488,0.03904,0.06832,0.00976,-0.0244,-0.00488,-0.0244
-0.01464,0.00732,0,0.00732,0.01464,-0.01464,0.02928,0.06344,0,-0.03416,-0.01464,-0.03416
-0.01464,0,0.01464,0.02196,0.02928,-0.02196,0.03416,0.0732,0,-0.02928,-0.00976,-0.03416
-0.0244,0.01464,-0.00488,0.00732,0.01952,-0.02196,0.03904,0.08296,0.00488,-0.01952,0,-0.0244
-0.01464,0.01952,-0.0244,-0.01708,-0.00976,-0.00244,0.0488,0.09272,0.01952,-0.01952,0,-0.0244
-0.0244,0.02928,-0.03416,-0.02196,-0.00976,-0.00732,0.0488,0.11224,0.01952,-0.01952,0,-0.01952
-0.01464,0.0244,-0.03416,-0.02684,-0.01952,0.00244,0.05368,0.11712,0.02928,-0.01464,0.00488,-0.01952
-0.00488,0.01464,-0.0244,-0.02196,-0.01952,0.00732,0.06344,0.122,0.03904,-0.00488,0.01464,-0.00976
0,0,0,0,0,0,0.05856,0.13664,0.04392,-0.00488,0.01952,-0.00976
0.00976,0,-0.00976,-0.01464,-0.01952,0.01464,0.06344,0.13664,0.02928,-0.00976,0.01464,-0.01952
0,-0.00244,0.00488,0.00488,0.00488,-0.00244,0.07808,0.15128,0.04392,-0.01464,0.00976,-0.01464
0,0,0,0,0,0,0.07808,0.16104,0.0488,-0.01464,0.01464,-0.00488
0.01464,-0.02196,0.02928,0.02196,0.01464,0,0.0732,0.16104,0.0488,-0.00488,0.01464,0
-0.00488,0,0.00488,0.00732,0.00976,-0.00732,0.06344,0.16592,0.03904,-0.00976,0.01464,-0.00976
0,0.00488,-0.00976,-0.00976,-0.00976,0.00488,0.0732,0.17568,0.0488,0,0.01952,0
0.00488,0.00488,-0.01464,-0.01708,-0.01952,0.0122,0.05368,0.17568,0.0488,-0.00976,0.01464,-0.00976
0.01464,-0.00976,0.00488,-0.00244,-0.00976,0.0122,0.0488,0.17568,0.04392,-0.00488,0.00488,-0.00488
0.02928,-0.02928,0.02928,0.01464,0,0.01464,0.04392,0.16104,0.03416,-0.00976,0,-0.00976
0.01952,-0.02196,0.0244,0.01464,0.00488,0.00732,0.04392,0.16104,0.03416,-0.00488,0.00488,-0.00488
0.04392,-0.03172,0.01952,-0.00244,-0.0244,0.03416,0.03904,0.16104,0.04392,0,0.01952,0
0.03416,-0.02684,0.01952,0.00244,-0.01464,0.0244,0.03416,0.16592,0.04392,0,0.01952,0
0.0244,-0.0244,0.0244,0.0122,0,0.0122,0.03416,0.16592,0.02928,-0.01464,0.01464,0
0.03904,-0.03904,0.03904,0.01952,0,0.01952,0.03416,0.16104,0.0244,-0.01464,0.01464,0
0.05368,-0.05368,0.05368,0.02684,0,0.02684,0.04392,0.16104,0.03416,0,0.01464,0.01464
0.05856,-0.061,0.06344,0.03416,0.00488,0.02684,0.04392,0.16592,0.03904,0.00976,0.0244,0.01464
0.03904,-0.05124,0.06344,0.04392,0.0244,0.00732,0.04392,0.15616,0.03904,0.01464,0.01464,0.01464
0.02928,-0.03904,0.0488,0.03416,0.01952,0.00488,0.01952,0.11712,0.03904,-0.00488,0.00488,0
0.04392,-0.0366,0.02928,0.00732,-0.01464,0.02928,0.00488,0.0976,0.03416,0,0.01464,-0.00488
0.0488,-0.04392,0.03904,0.01464,-0.00976,0.02928,0,0.08784,0.0244,0,0.01464,0
0.03904,-0.03904,0.03904,0.01952,0,0.01952,-0.00488,0.08784,0.02928,0.00976,0.01952,0.00976
0.02928,-0.03904,0.0488,0.03416,0.01952,0.00488,0.00488,0.0732,0.03904,0.01464,0.0244,0.01464
0.01464,-0.02684,0.03904,0.03172,0.0244,-0.00488,-0.00488,0.06832,0.0488,0.00488,0.01952,0.00488
0.00488,-0.01708,0.02928,0.02684,0.0244,-0.00976,-0.01464,0.0488,0.03904,0.00488,0.00976,0
0.00488,-0.0122,0.01952,0.01708,0.01464,-0.00488,-0.00488,0.03416,0.04392,0.00488,0.01952,0.00976
0.00488,-0.0122,0.01952,0.01708,0.01464,-0.00488,0.00488,0.0244,0.05368,0.01464,0.02928,0.01464
0.00976,-0.01464,0.01952,0.01464,0.00976,0,0,0.01952,0.0488,0.01952,0.04392,0.01464
0,-0.00976,0.01952,0.01952,0.01952,-0.00976,-0.00976,0.00488,0.03416,0.01464,0.03904,0.00488
0.00976,-0.01952,0.02928,0.0244,0.01952,-0.00488,-0.00488,0.00488,0.0244,0.01952,0.03904,0.01464
0.00976,-0.00976,0.00976,0.00488,0,0.00488,-0.00488,0,0.03416,0.01464,0.03904,0.00976
0.00976,-0.00488,0,-0.00488,-0.00976,0.00976,-0.00976,-0.01952,0.03416,0,0.0244,-0.00488
-0.03416,0.01708,0,0.01708,0.03416,-0.03416,-0.00976,-0.0244,0.01952,-0.00488,0.01952,-0.00976
-0.03416,0.02196,-0.00976,0.00732,0.0244,-0.02928,0,-0.01952,0.0244,-0.01464,0.00976,-0.00488
-0.03416,0.02684,-0.01952,-0.00244,0.01464,-0.0244,0,-0.02928,0.0244,-0.00488,0.01464,-0.00488
-0.01464,0.00488,0.00488,0.0122,0.01952,-0.01708,-0.01464,-0.01952,0.00488,-0.01952,-0.00976,-0.01952
0,-0.00244,0.00488,0.00488,0.00488,-0.00244,-0.00976,-0.02928,0.00488,-0.01952,-0.00976,-0.0244
-0.00976,0.0122,-0.01464,-0.00976,-0.00488,-0.00244,0,-0.01464,0.01464,-0.01952,0.00488,-0.01952
-0.01952,0.01952,-0.01952,-0.00976,0,-0.00976,0.00488,-0.00488,0.01952,-0.00488,0.01464,-0.00976
-0.03416,0.02684,-0.01952,-0.00244,0.01464,-0.0244,-0.00488,-0.0244,0.00488,-0.00976,0.00488,-0.0244
-0.03416,0.02196,-0.00976,0.00732,0.0244,-0.02928,-0.00976,-0.04392,0,-0.02928,-0.00976,-0.0244
-0.03416,0.0244,-0.01464,0.00244,0.01952,-0.02684,-0.00488,-0.03904,0,-0.03904,-0.00488,-0.0244
-0.01952,0.00732,0.00488,0.01464,0.0244,-0.02196,-0.00488,-0.03904,-0.00976,-0.03904,-0.01464,-0.02928
-0.01952,0.0122,-0.00488,0.00488,0.01464,-0.01708,-0.00976,-0.0244,0,-0.0244,-0.00488,-0.0244
-0.0244,0.01708,-0.00976,0.00244,0.01464,-0.01952,-0.00976,-0.0244,0.00488,-0.01952,-0.00488,-0.00976
-0.04392,0.03904,-0.03416,-0.0122,0.00976,-0.02684,-0.00488,-0.01464,-0.00488,-0.01464,-0.00976,-0.00976
-0.04392,0.04148,-0.03904,-0.01708,0.00488,-0.0244,-0.00976,-0.01952,-0.00976,-0.0244,-0.01464,-0.0244
-0.03416,0.03416,-0.03416,-0.01708,0,-0.01708,-0.01464,-0.01464,-0.00976,-0.0244,0.00488,-0.0244
-0.04392,0.03172,-0.01952,0.00244,0.0244,-0.03416,-0.01952,-0.03416,-0.00488,-0.0244,0.00976,-0.0244
-0.03904,0.01708,0.00488,0.0244,0.04392,-0.04148,-0.00488,-0.03416,-0.00488,-0.02928,0,-0.0244
-0.03416,0.00976,0.01464,0.03172,0.0488,-0.04148,-0.00488,-0.03904,-0.00488,-0.03416,0,-0.0244
-0.0244,0,0.0244,0.0366,0.0488,-0.0366,0.00488,-0.03416,0.00976,-0.0244,0,-0.0244
-0.01464,0.00732,0,0.00732,0.01464,-0.01464,0.00488,-0.03416,0.00976,-0.01952,0.00488,-0.0244
-0.01464,0.00732,0,0.00732,0.01464,-0.01464,-0.00488,-0.0244,0.00976,-0.0244,0,-0.02928
-0.02928,0.01708,-0.00488,0.00976,0.0244,-0.02684,-0.00488,-0.0244,-0.00488,-0.03416,-0.01464,-0.02928
-0.0244,0.01708,-0.00976,0.00244,0.01464,-0.01952,-0.00488,-0.01952,0,-0.02928,-0.00488,-0.02928
-0.01952,0.01952,-0.01952,-0.00976,0,-0.00976,0.00488,-0.03416,0.00976,-0.01952,-0.00488,-0.02928
-0.0244,0.01708,-0.00976,0.00244,0.01464,-0.01952,0.00976,-0.03416,0.00488,-0.01464,0,-0.0244
-0.03416,0.02196,-0.00976,0.00732,0.0244,-0.02928,0,-0.03416,-0.00488,-0.0244,0,-0.0244
-0.03416,0.01708,0,0.01708,0.03416,-0.03416,0,-0.02928,0.00488,-0.01464,0.00976,-0.01952
-0.01952,0.00244,0.01464,0.0244,0.03416,-0.02684,0.00976,-0.01464,0.0244,-0.00488,0.0244,-0.00488
0,-0.0122,0.0244,0.0244,0.0244,-0.0122,0,-0.01464,0.0244,-0.00488,0.0244,-0.00488
-0.02928,0.01464,0,0.01464,0.02928,-0.02928,-0.01464,-0.01464,0.01952,-0.01464,0.01952,-0.01464
-0.01952,0.00488,0.00976,0.01952,0.02928,-0.0244,-0.01464,-0.0244,0.01952,-0.01464,0.01952,-0.00488
-0.02928,0.00732,0.01464,0.02928,0.04392,-0.0366,0,-0.01464,0.0244,0,0.02928,0
-0.02928,0.01464,0,0.01464,0.02928,-0.02928,0,-0.00488,0.03416,0.00976,0.03416,0.00976
-0.01952,0.00244,0.01464,0.0244,0.03416,-0.02684,-0.00488,-0.01464,0.03416,0.00976,0.03904,0.00976
-0.00976,-0.00732,0.0244,0.02928,0.03416,-0.02196,-0.01464,-0.01952,0.03416,0.01952,0.03904,0
-0.01464,-0.00732,0.02928,0.0366,0.04392,-0.02928,-0.01464,-0.0244,0.03416,0.01464,0.03904,0
-0.03416,0.00976,0.01464,0.03172,0.0488,-0.04148,-0.00976,-0.01952,0.03416,0.00488,0.03416,0.01464
-0.03904,0.00976,0.01952,0.03904,0.05856,-0.0488,-0.01464,-0.01952,0.0244,0.00976,0.03416,0.01464
-0.00976,0,0.00976,0.01464,0.01952,-0.01464,-0.01464,-0.01952,0.01464,0,0.01952,0
-0.00976,0,0.00976,0.01464,0.01952,-0.01464,-0.01464,-0.01952,0.01464,0,0.01952,0
0.00488,-0.00732,0.00976,0.00732,0.00488,0,-0.00488,-0.00488,0.02928,0.00976,0.01952,0.00976
-0.00488,0.00244,0,0.00244,0.00488,-0.00488,0,-0.00488,0.0244,0.00976,0.01952,0.00976
-0.03416,0.02684,-0.01952,-0.00244,0.01464,-0.0244,-0.00488,-0.0244,0.01952,-0.00488,0.00976,-0.00488
-0.01952,0.01708,-0.01464,-0.00488,0.00488,-0.0122,0,-0.0244,0.01464,0,0.00976,0
-0.01952,0.00732,0.00488,0.01464,0.0244,-0.02196,-0.01464,-0.03416,0.01464,0,0.01952,-0.01464
-0.01952,0.00244,0.01464,0.0244,0.03416,-0.02684,-0.0244,-0.03416,0.01464,-0.00488,0.01952,-0.00488
-0.01464,-0.00488,0.0244,0.03172,0.03904,-0.02684,-0.01952,-0.01952,0.00488,-0.01464,0.01464,-0.00488
-0.00488,-0.00976,0.0244,0.02684,0.02928,-0.01708,0.00488,-0.01464,0.00976,-0.00488,0.01464,-0.00488
-0.00976,0,0.00976,0.01464,0.01952,-0.01464,0.00976,-0.01952,0.01464,-0.00488,0,-0.00976
-0.01952,0.00244,0.01464,0.0244,0.03416,-0.02684,-0.00488,-0.0244,0.01464,-0.00488,0.01464,-0.00976
-0.01464,0.00488,0.00488,0.0122,0.01952,-0.01708,-0.00976,-0.0244,0.00488,0,0.00976,-0.00976
-0.00488,-0.00732,0.01952,0.02196,0.0244,-0.01464,-0.00488,-0.0244,0.00488,-0.00488,0.00976,-0.00976
-0.02928,0.01464,0,0.01464,0.02928,-0.02928,-0.01952,-0.01952,0.01464,0.00976,0.01464,0
-0.0244,0.01464,-0.00488,0.00732,0.01952,-0.02196,-0.01952,-0.0244,0.00976,-0.00488,0.01464,0
-0.03904,0.02928,-0.01952,0,0.01952,-0.02928,-0.01952,-0.02928,0,-0.01464,0.00488,-0.00488
-0.03904,0.02684,-0.01464,0.00488,0.0244,-0.03172,-0.00488,-0.02928,0,-0.01952,-0.00488,-0.01464
-0.0244,0.01708,-0.00976,0.00244,0.01464,-0.01952,0.00976,-0.0244,-0.00976,-0.01464,0,-0.01464
-0.0244,0.01464,-0.00488,0.00732,0.01952,-0.02196,0.01464,-0.0244,0,-0.00488,0,-0.00488
-0.01952,0.01708,-0.01464,-0.00488,0.00488,-0.0122,0.00976,-0.04392,-0.01464,-0.01952,0,-0.00976
-0.01952,0.01464,-0.00976,0,0.00976,-0.01464,-0.00488,-0.04392,-0.01464,-0.01952,0,-0.02928
-0.00976,0.01464,-0.01952,-0.01464,-0.00976,0,-0.00488,-0.03904,0,-0.01464,0,-0.00976
-0.01464,0.00488,0.00488,0.0122,0.01952,-0.01708,-0.00488,-0.03904,0,-0.01464,0,-0.01464
-0.0244,0.00488,0.01464,0.02684,0.03904,-0.03172,-0.00976,-0.03904,0,-0.0244,-0.00488,-0.01952
-0.02928,0.01708,-0.00488,0.00976,0.0244,-0.02684,-0.00976,-0.02928,0,-0.01464,-0.00976,-0.01952
-0.0244,0.02928,-0.03416,-0.02196,-0.00976,-0.00732,0.00488,-0.01464,0,-0.00976,-0.00488,-0.01464
-0.01464,0.01708,-0.01952,-0.0122,-0.00488,-0.00488,0,-0.01952,-0.00976,-0.01464,-0.00488,-0.01464
-0.00488,0.00244,0,0.00244,0.00488,-0.00488,-0.00488,-0.0244,-0.00976,-0.00976,0.01464,-0.00488
-0.03416,0.02196,-0.00976,0.00732,0.0244,-0.02928,-0.00488,-0.03416,-0.00488,0,0.01952,-0.00976
-0.03904,0.01708,0.00488,0.0244,0.04392,-0.04148,0,-0.02928,-0.00976,-0.00488,0.00976,-0.01952
-0.04392,0.01464,0.01464,0.0366,0.05856,-0.05124,0,-0.02928,-0.01464,-0.01464,-0.00976,-0.0244
-0.0244,0.01708,-0.00976,0.00244,0.01464,-0.01952,-0.01464,-0.01952,-0.01464,-0.02928,-0.01952,-0.02928
-0.03416,0.0366,-0.03904,-0.02196,-0.00488,-0.01464,-0.01952,-0.0244,-0.01464,-0.02928,-0.01952,-0.02928
-0.03416,0.03416,-0.03416,-0.01708,0,-0.01708,-0.00976,-0.02928,-0.00976,-0.02928,-0.00976,-0.01952
-0.03416,0.02928,-0.0244,-0.00732,0.00976,-0.02196,-0.00488,-0.02928,-0.01464,-0.0244,-0.00976,-0.01952
-0.04392,0.0366,-0.02928,-0.00732,0.01464,-0.02928,0,-0.03904,-0.01464,-0.01464,-0.00488,-0.00976
-0.03904,0.02928,-0.01952,0,0.01952,-0.02928,0,-0.04392,-0.01464,-0.00976,0.00488,-0.01464
-0.03416,0.01464,0.00488,0.02196,0.03904,-0.0366,0,-0.03416,-0.01952,-0.00976,0.00488,-0.01464
-0.0244,0.00244,0.01952,0.03172,0.04392,-0.03416,0,-0.03416,-0.01464,-0.00976,-0.00488,-0.00976
-0.02928,0.01464,0,0.01464,0.02928,-0.02928,-0.00488,-0.04392,-0.02928,-0.02928,-0.00976,-0.01952
-0.0488,0.01708,0.01464,0.03904,0.06344,-0.05612,-0.00488,-0.04392,-0.02928,-0.02928,-0.00976,-0.02928
-0.03904,0.03172,-0.0244,-0.00488,0.01464,-0.02684,-0.00488,-0.03904,-0.01464,-0.02928,-0.01952,-0.0244
-0.02928,0.02928,-0.02928,-0.01464,0,-0.01464,-0.00976,-0.02928,-0.0244,-0.03416,-0.01952,-0.01952
-0.0244,0.02928,-0.03416,-0.02196,-0.00976,-0.00732,-0.00488,-0.01464,-0.00976,-0.02928,-0.01952,-0.01464
-0.0244,0.03416,-0.04392,-0.03172,-0.01952,-0.00244,0.00976,-0.01464,0.00488,-0.01464,0.00488,-0.00976
-0.03904,0.00244,0.03416,0.05368,0.0732,-0.05612,0.00488,-0.03416,-0.0244,-0.01952,-0.00488,-0.01952
-0.02928,0.00244,0.0244,0.03904,0.05368,-0.04148,0.00976,-0.02928,-0.01952,-0.01952,0,-0.01952
-0.02928,0.01708,-0.00488,0.00976,0.0244,-0.02684,0.00976,-0.02928,-0.01952,-0.01952,0,-0.01952
-0.03904,0.02928,-0.01952,0,0.01952,-0.02928,0,-0.03904,-0.02928,-0.01464,-0.00976,-0.01952
-0.03416,0.01952,-0.00488,0.0122,0.02928,-0.03172,-0.00488,-0.03904,-0.01952,-0.00976,-0.00488,-0.01952
-0.03416,0.01464,0.00488,0.02196,0.03904,-0.0366,0.00488,-0.0244,-0.01952,-0.01952,-0.00488,-0.00976
-0.01952,0.01708,-0.01464,-0.00488,0.00488,-0.0122,-0.00488,-0.03416,-0.01952,-0.01952,-0.00488,-0.00976
-0.01464,0.0122,-0.00976,-0.00244,0.00488,-0.00976,0.00976,-0.02928,-0.00488,-0.01464,0.00976,-0.00488
-0.0244,0.01952,-0.01464,-0.00244,0.00976,-0.01708,0.00976,-0.01464,0.00488,0.00488,0.0244,0
-0.01952,0.00732,0.00488,0.01464,0.0244,-0.02196,-0.00488,-0.0244,-0.00488,0.00976,0.01464,-0.00488
-0.01952,-0.00488,0.02928,0.03904,0.0488,-0.03416,0,-0.01464,0.01464,0.01464,0.01952,0.00488
0.00488,-0.03904,0.0732,0.07076,0.06832,-0.03172,0,-0.00488,0.03416,0.02928,0.03904,0.01952
0.00976,-0.04148,0.0732,0.06832,0.06344,-0.02684,0.0244,-0.00488,0.04392,0.03904,0.0488,0.0244
-0.00488,-0.02928,0.06344,0.06588,0.06832,-0.0366,0.03904,0,0.05856,0.04392,0.06344,0.03416
-0.01464,-0.02196,0.05856,0.06588,0.0732,-0.04392,0.05368,0.00488,0.06344,0.03416,0.05856,0.0244
0.00488,-0.02196,0.03904,0.0366,0.03416,-0.01464,0.05856,0.00488,0.0488,0.0244,0.05856,0.02928
0.00488,-0.02196,0.03904,0.0366,0.03416,-0.01464,0.0488,0.00976,0.05368,0.0244,0.05856,0.0244
0.01952,-0.02196,0.0244,0.01464,0.00488,0.00732,0.04392,0.0244,0.03904,0.01464,0.0488,0.00976
0.03416,-0.01952,0.00488,-0.0122,-0.02928,0.03172,0.01952,0.0244,0.03904,0.0244,0.03904,0.01464
0.02928,-0.00976,-0.00976,-0.0244,-0.03904,0.03416,-0.00488,0.00976,0.01952,0,0.01464,0.00488
0.0244,0,-0.0244,-0.0366,-0.0488,0.0366,-0.00976,-0.00976,-0.01464,-0.00976,0,-0.00488
0.0244,0.00976,-0.04392,-0.05612,-0.06832,0.04636,-0.01464,-0.01464,-0.01464,-0.00488,-0.00488,-0.00488
0.02928,0.00244,-0.03416,-0.0488,-0.06344,0.04636,-0.01464,-0.00976,-0.01952,0,0.00976,0
0.03416,0.0122,-0.05856,-0.07564,-0.09272,0.06344,-0.00976,-0.0244,-0.01952,-0.00488,0.00488,-0.00488
0.03416,0.00976,-0.05368,-0.07076,-0.08784,0.061,-0.01464,-0.02928,-0.03904,-0.0244,-0.01464,-0.01952
0.00488,0.0244,-0.05368,-0.05612,-0.05856,0.03172,-0.03416,-0.05368,-0.04392,-0.03416,-0.03416,-0.03416
0.00488,0.01952,-0.04392,-0.04636,-0.0488,0.02684,-0.03904,-0.05368,-0.0488,-0.03416,-0.02928,-0.03416
0.00488,0.01708,-0.03904,-0.04148,-0.04392,0.0244,-0.03904,-0.04392,-0.04392,-0.03416,-0.03904,-0.02928
-0.03904,0.03904,-0.03904,-0.01952,0,-0.01952,-0.02928,-0.03904,-0.04392,-0.03904,-0.04392,-0.03904
-0.05368,0.0488,-0.04392,-0.01708,0.00976,-0.03172,0,-0.02928,-0.03416,-0.03416,-0.03904,-0.02928
-0.0488,0.05124,-0.05368,-0.02928,-0.00488,-0.02196,0.00976,-0.0244,-0.02928,-0.0244,-0.02928,-0.01952
-0.05856,0.06344,-0.06832,-0.03904,-0.00976,-0.0244,0.00488,-0.03904,-0.0488,-0.03416,-0.02928,-0.03904
-0.05856,0.05612,-0.05368,-0.0244,0.00488,-0.03172,0,-0.0488,-0.05368,-0.03904,-0.03416,-0.04392
-0.03904,0.04392,-0.0488,-0.02928,-0.00976,-0.01464,-0.00488,-0.03904,-0.05856,-0.03904,-0.0488,-0.0488
-0.0488,0.05368,-0.05856,-0.03416,-0.00976,-0.01952,-0.00488,-0.03904,-0.05368,-0.03904,-0.03904,-0.04392
-0.05368,0.05856,-0.06344,-0.0366,-0.00976,-0.02196,0.00488,-0.02928,-0.03904,-0.03416,-0.0244,-0.02928
-0.04392,0.04636,-0.0488,-0.02684,-0.00488,-0.01952,0,-0.02928,-0.03904,-0.03416,-0.0244,-0.0244
-0.04392,0.05368,-0.06344,-0.04148,-0.01952,-0.0122,0,-0.0244,-0.03904,-0.02928,-0.02928,-0.0244
-0.0488,0.05612,-0.06344,-0.03904,-0.01464,-0.01708,0.00488,-0.03416,-0.03904,-0.02928,-0.03416,-0.02928
-0.05368,0.06832,-0.08296,-0.05612,-0.02928,-0.0122,0.00488,-0.03416,-0.0488,-0.0488,-0.03904,-0.0488
-0.0488,0.0366,-0.0244,0,0.0244,-0.0366,0.00976,-0.01464,-0.01952,-0.0244,-0.01464,-0.03416
-0.07808,0.05368,-0.02928,0.00976,0.0488,-0.06344,0.04392,0.03416,0.0244,-0.01464,0.00976,-0.02928
-0.03904,0.01952,0,0.01952,0.03904,-0.03904,0.11712,0.14152,0.16104,0.04392,0.09272,0.00976
-0.05368,0.02928,-0.00488,0.02196,0.0488,-0.05124,0.13664,0.18544,0.27816,0.13176,0.20008,0.06832
0.04392,-0.0488,0.05368,0.03172,0.00976,0.01708,0.1708,0.23912,0.4148,0.27816,0.35624,0.17568
0.13664,-0.13908,0.14152,0.0732,0.00488,0.06588,0.1464,0.30744,0.60024,0.47336,0.54656,0.34648
0.27816,-0.244,0.20984,0.07076,-0.06832,0.17324,0.13664,0.4148,0.75152,0.66856,0.71248,0.50264
0.47336,-0.39772,0.32208,0.0854,-0.15128,0.31232,0.0976,0.47336,0.86864,0.82472,0.86376,0.64904
0.59048,-0.49288,0.39528,0.10004,-0.1952,0.39284,-0.15128,0.35136,0.7564,0.85888,0.82472,0.72224
0.6588,-0.52704,0.39528,0.06588,-0.26352,0.46116,-0.45872,0.1464,0.47336,0.76128,0.64416,0.6832
0.55144,-0.39772,0.244,-0.03172,-0.30744,0.42944,-0.54656,-0.08784,0.08296,0.42456,0.26352,0.44896
0.2928,-0.19032,0.08784,-0.05856,-0.20496,0.24888,-0.59536,-0.50752,-0.4636,-0.04392,-0.22936,0.0976
0.13176,-0.0854,0.03904,-0.02684,-0.09272,0.11224,-0.65392,-0.83448,-0.74176,-0.244,-0.43432,-0.05368
-0.06344,0.02684,0.00976,0.04148,0.0732,-0.06832,-0.54168,-0.80032,-0.71736,-0.24888,-0.42944,-0.07808
-0.08296,0.06832,-0.05368,-0.0122,0.02928,-0.05612,-0.44896,-0.64416,-0.67344,-0.26352,-0.4392,-0.10248
-0.01952,0.00732,0.00488,0.01464,0.0244,-0.02196,-0.3416,-0.51728,-0.54656,-0.244,-0.366,-0.10248
-0.0976,0.05368,-0.00976,0.03904,0.08784,-0.09272,-0.27816,-0.42944,-0.42456,-0.22936,-0.30256,-0.1464
-0.09272,0.03172,0.02928,0.07564,0.122,-0.10736,-0.15128,-0.27816,-0.25376,-0.15128,-0.18544,-0.10248
-0.11224,0.08296,-0.05368,0.00244,0.05856,-0.0854,-0.07808,-0.1708,-0.16104,-0.08296,-0.10736,-0.05368
-0.07808,0.06832,-0.05856,-0.01952,0.01952,-0.0488,-0.0732,-0.16104,-0.1708,-0.11712,-0.13664,-0.07808
-0.03416,0.03904,-0.04392,-0.02684,-0.00976,-0.0122,-0.0244,-0.07808,-0.11712,-0.07808,-0.0976,-0.05856
-0.01464,0.02196,-0.02928,-0.02196,-0.01464,0,0.01464,-0.02928,-0.0732,-0.05856,-0.0488,-0.0488
-0.05368,0.05612,-0.05856,-0.03172,-0.00488,-0.0244,0.00976,-0.03416,-0.06832,-0.0488,-0.04392,-0.03416
-0.06832,0.07076,-0.0732,-0.03904,-0.00488,-0.03172,0.00976,-0.0488,-0.07808,-0.05368,-0.03904,-0.04392
-0.06832,0.0732,-0.07808,-0.04392,-0.00976,-0.02928,0.02928,-0.0488,-0.0732,-0.05856,-0.04392,-0.04392
-0.0732,0.06344,-0.05368,-0.01708,0.01952,-0.04636,0.05368,-0.03416,-0.04392,-0.0488,-0.03416,-0.04392
-0.09272,0.07076,-0.0488,-0.00244,0.04392,-0.06832,0.04392,-0.0244,-0.02928,-0.03416,-0.01464,-0.03904
-0.08296,0.06588,-0.0488,-0.00732,0.03416,-0.05856,0.03904,-0.02928,-0.03904,-0.03904,-0.0244,-0.03904
-0.06344,0.06344,-0.06344,-0.03172,0,-0.03172,0.0488,-0.0244,-0.04392,-0.03904,-0.02928,-0.04392
-0.05856,0.07076,-0.08296,-0.05368,-0.0244,-0.01708,0.05856,-0.00488,-0.0488,-0.05368,-0.03904,-0.05368
-0.06344,0.05612,-0.0488,-0.01708,0.01464,-0.03904,0.05856,-0.00976,-0.04392,-0.05368,-0.03904,-0.0488
-0.06832,0.061,-0.05368,-0.01952,0.01464,-0.04148,0.0488,-0.01952,-0.0488,-0.03416,-0.03904,-0.0488
-0.0488,0.05124,-0.05368,-0.02928,-0.00488,-0.02196,0.04392,-0.00976,-0.03904,-0.03416,-0.03416,-0.0488
-0.05368,0.05124,-0.0488,-0.02196,0.00488,-0.02928,0.05856,0,-0.0244,-0.03416,-0.03904,-0.03904
-0.05368,0.05368,-0.05368,-0.02684,0,-0.02684,0.05368,0.00488,-0.03416,-0.03416,-0.03904,-0.03904
-0.06832,0.05612,-0.04392,-0.00976,0.0244,-0.04636,0.0488,0,-0.03904,-0.0244,-0.0244,-0.02928
-0.0732,0.061,-0.0488,-0.0122,0.0244,-0.0488,0.0488,-0.00488,-0.03416,-0.0244,-0.0244,-0.02928
-0.0732,0.06588,-0.05856,-0.02196,0.01464,-0.04392,0.06344,0,-0.03416,-0.03416,-0.03416,-0.03904
-0.0732,0.06832,-0.06344,-0.02684,0.00976,-0.04148,0.05856,0.00488,-0.02928,-0.03416,-0.03416,-0.03904
-0.06344,0.06344,-0.06344,-0.03172,0,-0.03172,0.0488,0,-0.0244,-0.03416,-0.03416,-0.03904
-0.05368,0.0488,-0.04392,-0.01708,0.00976,-0.03172,0.0488,0.00488,-0.0244,-0.02928,-0.02928,-0.03904
-0.06344,0.06832,-0.0732,-0.04148,-0.00976,-0.02684,0.05368,0,-0.03904,-0.03416,-0.02928,-0.03904
-0.08296,0.07564,-0.06832,-0.02684,0.01464,-0.0488,0.04392,-0.00976,-0.0488,-0.04392,-0.03416,-0.04392
-0.06832,0.07076,-0.0732,-0.03904,-0.00488,-0.03172,0.04392,-0.00488,-0.03416,-0.03904,-0.03416,-0.03904
-0.06344,0.06832,-0.0732,-0.04148,-0.00976,-0.02684,0.0488,0.00488,-0.0244,-0.03904,-0.02928,-0.03904
-0.0732,0.07808,-0.08296,-0.04636,-0.00976,-0.03172,0.05368,0.01464,-0.0244,-0.02928,-0.01952,-0.03416
-0.07808,0.0732,-0.06832,-0.02928,0.00976,-0.04392,0.05856,0.01464,-0.02928,-0.03416,-0.0244,-0.04392
-0.06832,0.05612,-0.04392,-0.00976,0.0244,-0.04636,0.0488,0.00976,-0.01464,-0.01952,-0.00976,-0.03904
-0.05368,0.05124,-0.0488,-0.02196,0.00488,-0.02928,0.0488,0,-0.01464,-0.0244,-0.01464,-0.03416
-0.06832,0.05612,-0.04392,-0.00976,0.0244,-0.04636,0.0488,0,-0.01952,-0.02928,-0.01464,-0.03904
-0.05856,0.0488,-0.03904,-0.00976,0.01952,-0.03904,0.04392,0.00976,-0.02928,-0.03904,-0.0244,-0.0488
-0.05368,0.05612,-0.05856,-0.03172,-0.00488,-0.0244,0.06344,0.02928,-0.02928,-0.03904,-0.02928,-0.03904
-0.05856,0.061,-0.06344,-0.03416,-0.00488,-0.02684,0.06832,0.03904,-0.0244,-0.02928,-0.03416,-0.02928
-0.03416,0.04636,-0.05856,-0.04148,-0.0244,-0.00488,0.06344,0.01952,-0.0244,-0.03904,-0.03904,-0.04392
-0.03416,0.0488,-0.06344,-0.04636,-0.02928,-0.00244,0.06344,0.03416,-0.0244,-0.02928,-0.0244,-0.03416
-0.0488,0.05612,-0.06344,-0.03904,-0.01464,-0.01708,0.0732,0.03904,-0.0244,-0.01952,-0.01464,-0.0244
-0.04392,0.05124,-0.05856,-0.0366,-0.01464,-0.01464,0.07808,0.04392,-0.00976,-0.00976,-0.00976,-0.01952
-0.03904,0.04392,-0.0488,-0.02928,-0.00976,-0.01464,0.06832,0.04392,-0.01464,-0.01952,-0.00976,-0.02928
-0.0488,0.05124,-0.05368,-0.02928,-0.00488,-0.02196,0.05856,0.04392,-0.01464,-0.0244,-0.00976,-0.03416
-0.05368,0.05612,-0.05856,-0.03172,-0.00488,-0.0244,0.06832,0.03904,-0.0244,-0.02928,-0.03416,-0.03904
-0.05368,0.05612,-0.05856,-0.03172,-0.00488,-0.0244,0.06832,0.0488,-0.0244,-0.0244,-0.03904,-0.03416
-0.05368,0.05368,-0.05368,-0.02684,0,-0.02684,0.06832,0.05368,-0.00976,-0.01952,-0.02928,-0.02928
-0.01952,0.03416,-0.0488,-0.03904,-0.02928,0.00488,0.0732,0.06832,-0.00488,-0.01464,-0.0244,-0.0244
-0.02928,0.03904,-0.0488,-0.03416,-0.01952,-0.00488,0.0732,0.08296,0,-0.00488,-0.01952,-0.01952
-0.03904,0.05612,-0.0732,-0.05368,-0.03416,-0.00244,0.08784,0.09272,0,0,-0.00488,-0.00976
-0.04392,0.06344,-0.08296,-0.061,-0.03904,-0.00244,0.07808,0.08296,-0.00976,-0.00488,-0.01464,-0.01952
-0.03416,0.0488,-0.06344,-0.04636,-0.02928,-0.00244,0.06832,0.0732,-0.00488,-0.01464,-0.0244,-0.02928
-0.04392,0.05124,-0.05856,-0.0366,-0.01464,-0.01464,0.07808,0.09272,0,-0.00976,-0.01464,-0.01952
-0.03416,0.04148,-0.0488,-0.03172,-0.01464,-0.00976,0.08296,0.0976,0.00976,-0.00488,0,-0.01952
-0.01952,0.02928,-0.03904,-0.02928,-0.01952,0,0.08296,0.10248,0.01952,-0.00488,-0.00488,-0.01952
-0.00488,0.01464,-0.0244,-0.02196,-0.01952,0.00732,0.07808,0.11712,0.0244,-0.00488,0,-0.01952
-0.01464,0.02928,-0.04392,-0.0366,-0.02928,0.00732,0.0732,0.11712,0.00976,-0.00488,0,-0.01952
-0.03416,0.0366,-0.03904,-0.02196,-0.00488,-0.01464,0.08784,0.13176,0.0244,0,0.00488,-0.01464
-0.0244,0.03416,-0.04392,-0.03172,-0.01952,-0.00244,0.08296,0.13664,0.00976,0,-0.00488,-0.01464
0,0.00244,-0.00488,-0.00488,-0.00488,0.00244,0.06832,0.12688,0.00976,0,-0.00488,-0.00976
-0.00976,0.00488,0,0.00488,0.00976,-0.00976,0.06832,0.14152,0.01952,0.00976,0,-0.00488
0.00488,0,-0.00488,-0.00732,-0.00976,0.00732,0.08784,0.16104,0.0488,0.01952,0.01464,0.01464
0.00488,0.00488,-0.01464,-0.01708,-0.01952,0.0122,0.07808,0.16104,0.05368,0.00976,0.00976,0
0.01464,0,-0.01464,-0.02196,-0.02928,0.02196,0.06344,0.15128,0.03904,0.01464,0.00976,0.00488
0.0244,-0.00976,-0.00488,-0.01708,-0.02928,0.02684,0.06344,0.1464,0.03416,0.01952,0.00976,0.00976
0.00488,0.00732,-0.01952,-0.02196,-0.0244,0.01464,0.06344,0.15616,0.03416,0.0244,0.01464,0.01464
0.01464,0,-0.01464,-0.02196,-0.02928,0.02196,0.0488,0.1464,0.0244,0.00976,0.00976,0
0.00488,0,-0.00488,-0.00732,-0.00976,0.00732,0.04392,0.14152,0.0244,0.00976,-0.00976,0
0.00488,0,-0.00488,-0.00732,-0.00976,0.00732,0.05368,0.13664,0.00976,0.00488,-0.00976,-0.00976
0.01952,-0.01464,0.00976,0,-0.00976,0.01464,0.05368,0.13176,0.00488,0.00488,0,-0.00976
0.03416,-0.0244,0.01464,-0.00244,-0.01952,0.02684,0.05856,0.12688,0.01464,0.0244,0.00976,0
0.03904,-0.03172,0.0244,0.00488,-0.01464,0.02684,0.0488,0.122,0.01952,0.0244,0.00976,0.00976
0.0244,-0.01952,0.01464,0.00244,-0.00976,0.01708,0.03904,0.13176,0.0244,0.01952,0,0.00976
0.00488,-0.00244,0,-0.00244,-0.00488,0.00488,0.0244,0.10248,0.01464,0.00976,0,0.00488
0.00976,-0.00488,0,-0.00488,-0.00976,0.00976,0.03416,0.10736,0.01464,0.01952,0.01464,0.00488
0.0244,-0.01708,0.00976,-0.00244,-0.01464,0.01952,0.02928,0.0976,0.0244,0.01952,0.01464,0.00976
0.0244,-0.01708,0.00976,-0.00244,-0.01464,0.01952,0.0244,0.07808,0.0244,0.01952,0.00976,0.00976
0.0244,-0.03172,0.03904,0.02684,0.01464,0.00488,0.03416,0.06344,0.0244,0.0244,0.01464,0.01464
0.01464,-0.02196,0.02928,0.02196,0.01464,0,0.01464,0.05856,0.02928,0.0244,0.02928,0.01464
0.00488,-0.00244,0,-0.00244,-0.00488,0.00488,0.00488,0.03904,0.01952,0.0244,0.01952,0.00976
-0.00976,0.00732,-0.00488,0,0.00488,-0.00732,0,0.0244,0.00488,0.00976,0.01464,0.00488
-0.01952,-0.00244,0.0244,0.03416,0.04392,-0.03172,0,0.01464,0.01464,0.00976,0.01464,0
-0.00976,0.00244,0.00488,0.00976,0.01464,-0.0122,0.00488,0.01952,0.01952,0.02928,0.03416,0.01464
-0.01952,0.02196,-0.0244,-0.01464,-0.00488,-0.00732,0.00488,0.00488,0.0244,0.0244,0.02928,0.00488
-0.0244,0.02196,-0.01952,-0.00732,0.00488,-0.01464,0.01464,0.00976,0.02928,0.02928,0.02928,0.01464
-0.03416,0.0366,-0.03904,-0.02196,-0.00488,-0.01464,0.01464,0.01464,0.02928,0.0244,0.02928,0.00976
-0.00976,0.01708,-0.0244,-0.01952,-0.01464,0.00244,0.01464,-0.00488,0.0244,0.01464,0.01952,-0.00488
-0.01464,0.01464,-0.01464,-0.00732,0,-0.00732,0.00488,-0.01952,0.00976,0,0.00488,-0.00976
-0.01464,0.0122,-0.00976,-0.00244,0.00488,-0.00976,0.00488,-0.00976,0.01464,0.00488,0.00976,-0.00488
-0.03416,0.02684,-0.01952,-0.00244,0.01464,-0.0244,0.01464,-0.01952,0.01464,0.01464,0.01464,-0.00488
-0.02928,0.02196,-0.01464,0,0.01464,-0.02196,0.01464,-0.02928,-0.00488,0,0,-0.00976
-0.0244,0.01952,-0.01464,-0.00244,0.00976,-0.01708,0.01952,-0.03904,-0.00488,0,0,-0.01464
-0.0244,0.02684,-0.02928,-0.01708,-0.00488,-0.00976,0.00976,-0.0244,-0.00488,-0.00488,0,-0.01464
-0.0244,0.03416,-0.04392,-0.03172,-0.01952,-0.00244,0.01464,-0.01464,0,0,0,-0.01464
-0.03904,0.04636,-0.05368,-0.03416,-0.01464,-0.0122,0.0244,-0.00976,-0.00488,-0.00488,-0.00976,-0.0244
-0.0488,0.04148,-0.03416,-0.00976,0.01464,-0.03172,0.01952,-0.01952,-0.00976,-0.01464,-0.01464,-0.0244
-0.0488,0.05124,-0.05368,-0.02928,-0.00488,-0.02196,0.03416,-0.00976,-0.01952,-0.01952,-0.01464,-0.0244
-0.04392,0.0488,-0.05368,-0.03172,-0.00976,-0.01708,0.03416,-0.00976,-0.02928,-0.01952,-0.0244,-0.02928
-0.05368,0.05124,-0.0488,-0.02196,0.00488,-0.02928,0.02928,-0.00488,-0.01952,-0.01464,-0.01464,-0.03904
-0.0488,0.04636,-0.04392,-0.01952,0.00488,-0.02684,0.02928,-0.00488,-0.01464,-0.00976,-0.01464,-0.03416
-0.04392,0.04392,-0.04392,-0.02196,0,-0.02196,0.0244,-0.01952,-0.0244,-0.0244,-0.02928,-0.03416
-0.0244,0.02684,-0.02928,-0.01708,-0.00488,-0.00976,0.01952,-0.03416,-0.02928,-0.03416,-0.03416,-0.03904
-0.03416,0.03172,-0.02928,-0.0122,0.00488,-0.01952,0.03416,-0.01952,-0.01952,-0.0244,-0.0244,-0.03416
-0.06344,0.05368,-0.04392,-0.0122,0.01952,-0.04148,0.02928,-0.02928,-0.01464,-0.0244,-0.01952,-0.03416
-0.05368,0.05124,-0.0488,-0.02196,0.00488,-0.02928,0.03416,-0.01464,-0.00488,-0.00976,-0.00976,-0.0244
-0.03904,0.04392,-0.0488,-0.02928,-0.00976,-0.01464,0.03416,-0.01952,-0.00488,-0.01464,-0.00976,-0.0244
-0.03416,0.03172,-0.02928,-0.0122,0.00488,-0.01952,0.02928,-0.01464,-0.00488,-0.0244,-0.0244,-0.03416
-0.04392,0.04392,-0.04392,-0.02196,0,-0.02196,0.01952,-0.01464,-0.01464,-0.01952,-0.02928,-0.03416
-0.04392,0.0366,-0.02928,-0.00732,0.01464,-0.02928,0.01464,-0.01464,-0.01464,-0.01952,-0.02928,-0.02928
-0.03904,0.0366,-0.03416,-0.01464,0.00488,-0.02196,0.01464,-0.01464,-0.01952,-0.01952,-0.0244,-0.02928
-0.03904,0.03172,-0.0244,-0.00488,0.01464,-0.02684,0.00976,-0.00976,-0.00488,-0.00976,-0.01464,-0.01952
-0.04392,0.03416,-0.0244,-0.00244,0.01952,-0.03172,0.00976,-0.0244,-0.00488,0,-0.01464,-0.01952
-0.03416,0.02196,-0.00976,0.00732,0.0244,-0.02928,0.0244,-0.00488,0,0.00488,-0.00976,-0.01464
-0.0244,0.01708,-0.00976,0.00244,0.01464,-0.01952,0.0244,-0.00488,0,-0.00488,-0.00976,-0.01464
-0.0244,0.01952,-0.01464,-0.00244,0.00976,-0.01708,0.0244,-0.01464,0,-0.00488,-0.00488,-0.01464
-0.02928,0.02928,-0.02928,-0.01464,0,-0.01464,0.0244,-0.00976,0.00976,0.00488,0,-0.00976
-0.01952,0.01464,-0.00976,0,0.00976,-0.01464,0.01464,-0.0244,0.00488,0.01464,-0.00976,-0.01952
-0.0488,0.0366,-0.0244,0,0.0244,-0.0366,0.00976,-0.0244,0,0.00488,-0.00488,-0.01952
-0.0244,0.01952,-0.01464,-0.00244,0.00976,-0.01708,0.01952,-0.01464,-0.00488,0.00976,0,-0.01464
-0.0244,0.02196,-0.01952,-0.00732,0.00488,-0.01464,0.0244,-0.00488,0.00976,0.01464,0.00976,-0.00976
-0.03416,0.02928,-0.0244,-0.00732,0.00976,-0.02196,0.00976,-0.01464,0.00488,0.01464,0.00976,-0.00976
-0.03416,0.01708,0,0.01708,0.03416,-0.03416,0.00488,-0.0244,0.00488,0.00488,0.00488,-0.00976
-0.00976,0.00488,0,0.00488,0.00976,-0.00976,0.00488,-0.01464,0.00488,0.00488,0,0
-0.01464,0.00976,-0.00488,0.00244,0.00976,-0.0122,0.00488,-0.00976,0.00488,0.00976,0,0
-0.0244,0.02196,-0.01952,-0.00732,0.00488,-0.01464,0.01464,0.00976,0.01952,0.01464,0.01464,0.00488
-0.02928,0.02684,-0.0244,-0.00976,0.00488,-0.01708,0.01952,0.00976,0.01952,0.01952,0.01464,0.00488
-0.01464,0.01952,-0.0244,-0.01708,-0.00976,-0.00244,0.01952,0.00488,0.00488,0.01952,0.00976,-0.00976
-0.0244,0.01952,-0.01464,-0.00244,0.00976,-0.01708,0.00976,-0.00488,0.00488,0.01952,0.00976,-0.00976
-0.01952,0.01708,-0.01464,-0.00488,0.00488,-0.0122,0.00976,-0.00488,0.00976,0.01952,0.00976,-0.00976
-0.01952,0.01708,-0.01464,-0.00488,0.00488,-0.0122,0.00488,-0.00488,0.00488,0.01952,0.00976,-0.00976
-0.03416,0.02684,-0.01952,-0.00244,0.01464,-0.0244,0.00488,-0.01464,0.00976,0.01464,0,-0.01464
-0.01952,0.01708,-0.01464,-0.00488,0.00488,-0.0122,0.00976,-0.01464,0.00488,0.01952,0,-0.00976
-0.0244,0.01952,-0.01464,-0.00244,0.00976,-0.01708,0,-0.01464,-0.00488,0.01952,0,-0.01464
-0.03416,0.02928,-0.0244,-0.00732,0.00976,-0.02196,0,-0.01464,-0.00488,0.01464,0,-0.00488
-0.0244,0.0244,-0.0244,-0.0122,0,-0.0122,0,-0.00976,-0.00488,0.01464,0,-0.00488
-0.01464,0.01952,-0.0244,-0.01708,-0.00976,-0.00244,0.00488,-0.00488,0,0.0244,0.00976,-0.00488
-0.01952,0.01952,-0.01952,-0.00976,0,-0.00976,0.00488,-0.01952,-0.01464,0.00976,-0.00976,-0.01952
-0.02928,0.0122,0.00488,0.01952,0.03416,-0.03172,0,-0.0244,-0.01464,0,-0.01464,-0.01952
-0.0244,0.01952,-0.01464,-0.00244,0.00976,-0.01708,0.00488,-0.01464,-0.00488,0.00488,-0.01464,-0.00976
-0.01464,0.01708,-0.01952,-0.0122,-0.00488,-0.00488,0.01952,-0.01464,-0.00488,0.00976,-0.00488,-0.00976
-0.02928,0.03416,-0.03904,-0.0244,-0.00976,-0.00976,0.01952,-0.01952,-0.00488,0.00976,-0.00488,-0.01952
-0.0244,0.0244,-0.0244,-0.0122,0,-0.0122,0.01952,-0.0244,-0.00976,-0.00488,-0.00488,-0.01952
-0.03904,0.03416,-0.02928,-0.00976,0.00976,-0.0244,0.00976,-0.03904,-0.0244,-0.01952,-0.01952,-0.01952
-0.03904,0.03172,-0.0244,-0.00488,0.01464,-0.02684,0.00488,-0.03904,-0.01464,-0.01464,-0.01952,-0.01952
-0.0244,0.03172,-0.03904,-0.02684,-0.01464,-0.00488,0.00488,-0.02928,-0.01464,0,-0.01464,-0.01952
-0.0244,0.02928,-0.03416,-0.02196,-0.00976,-0.00732,0.01952,-0.01952,-0.01464,0,-0.0244,-0.01952
-0.01952,0.0244,-0.02928,-0.01952,-0.00976,-0.00488,0.00976,-0.01464,-0.03416,-0.00976,-0.03904,-0.0244
-0.01952,0.01708,-0.01464,-0.00488,0.00488,-0.0122,-0.00488,-0.01464,-0.03416,-0.00976,-0.03904,-0.03416
-0.01464,0.0244,-0.03416,-0.02684,-0.01952,0.00244,0.00488,-0.01952,-0.0244,0.00488,-0.0244,-0.01952
-0.02928,0.0244,-0.01952,-0.00488,0.00976,-0.01952,0.00488,-0.01952,-0.01464,0.00488,-0.01464,-0.0244
-0.04392,0.03416,-0.0244,-0.00244,0.01952,-0.03172,0.00488,-0.02928,-0.01952,-0.00488,-0.0244,-0.02928
-0.0488,0.04636,-0.04392,-0.01952,0.00488,-0.02684,0.01464,-0.01952,-0.01952,0.00488,-0.02928,-0.02928
-0.04392,0.05368,-0.06344,-0.04148,-0.01952,-0.0122,0.01952,-0.01952,-0.0244,0.00488,-0.03416,-0.03416
-0.03416,0.03172,-0.02928,-0.0122,0.00488,-0.01952,0.00488,-0.03416,-0.0244,-0.00976,-0.03416,-0.03416
-0.00976,0.0122,-0.01464,-0.00976,-0.00488,-0.00244,0.00488,-0.0244,-0.0244,-0.01464,-0.01952,-0.03416
-0.02928,0.03172,-0.03416,-0.01952,-0.00488,-0.0122,0.00488,-0.03416,-0.02928,-0.01464,-0.0244,-0.03904
-0.02928,0.02928,-0.02928,-0.01464,0,-0.01464,0.01952,-0.02928,-0.02928,-0.00976,-0.02928,-0.03416
-0.03416,0.02196,-0.00976,0.00732,0.0244,-0.02928,0.01952,-0.02928,-0.03416,-0.00976,-0.02928,-0.02928
-0.03416,0.02928,-0.0244,-0.00732,0.00976,-0.02196,0.00488,-0.02928,-0.0244,-0.00976,-0.02928,-0.0244
-0.04392,0.04392,-0.04392,-0.02196,0,-0.02196,0,-0.03416,-0.0244,-0.00976,-0.02928,-0.03416
-0.03416,0.03172,-0.02928,-0.0122,0.00488,-0.01952,0.00488,-0.01952,-0.01952,0,-0.02928,-0.02928
-0.03416,0.02196,-0.00976,0.00732,0.0244,-0.02928,0.01952,-0.01952,-0.0244,0.00488,-0.02928,-0.02928
-0.03416,0.03172,-0.02928,-0.0122,0.00488,-0.01952,0.01464,-0.02928,-0.03416,-0.00976,-0.02928,-0.03904
-0.02928,0.03416,-0.03904,-0.0244,-0.00976,-0.00976,0.00488,-0.03416,-0.03416,-0.01464,-0.02928,-0.04392
-0.02928,0.02684,-0.0244,-0.00976,0.00488,-0.01708,0.00976,-0.02928,-0.02928,-0.01464,-0.02928,-0.03904
-0.02928,0.01952,-0.00976,0.00488,0.01952,-0.0244,0.00976,-0.01952,-0.0244,-0.00488,-0.02928,-0.0244
-0.01464,0.02196,-0.02928,-0.02196,-0.01464,0,0.01464,-0.0244,-0.02928,-0.00976,-0.02928,-0.0244
-0.0244,0.01952,-0.01464,-0.00244,0.00976,-0.01708,0.01464,-0.0244,-0.02928,-0.00976,-0.02928,-0.0244
-0.02928,0.03416,-0.03904,-0.0244,-0.00976,-0.00976,0.00488,-0.03416,-0.03416,-0.01952,-0.03904,-0.02928
-0.03904,0.0366,-0.03416,-0.01464,0.00488,-0.02196,0,-0.03416,-0.04392,-0.0244,-0.03904,-0.03416
-0.03416,0.02928,-0.0244,-0.00732,0.00976,-0.02196,-0.00488,-0.03416,-0.03904,-0.01464,-0.03416,-0.03416
-0.03416,0.03416,-0.03416,-0.01708,0,-0.01708,0.00976,-0.03416,-0.0244,-0.00976,-0.01952,-0.02928
-0.03904,0.0366,-0.03416,-0.01464,0.00488,-0.02196,0.00488,-0.0244,-0.0244,-0.00976,-0.0244,-0.02928
-0.03904,0.0366,-0.03416,-0.01464,0.00488,-0.02196,0.00488,-0.0244,-0.0244,-0.00488,-0.0244,-0.02928
-0.0488,0.0488,-0.0488,-0.0244,0,-0.0244,0.01464,-0.01952,-0.0244,-0.00488,-0.02928,-0.03416
-0.04392,0.0488,-0.05368,-0.03172,-0.00976,-0.01708,0.01952,-0.02928,-0.02928,-0.00976,-0.03904,-0.02928
-0.03416,0.03904,-0.04392,-0.02684,-0.00976,-0.0122,0.01952,-0.02928,-0.02928,-0.00976,-0.03904,-0.02928
-0.01952,0.02684,-0.03416,-0.0244,-0.01464,-0.00244,0.01464,-0.02928,-0.03904,-0.01464,-0.03904,-0.02928
-0.01464,0.0122,-0.00976,-0.00244,0.00488,-0.00976,0,-0.02928,-0.02928,-0.00976,-0.03416,-0.02928
-0.03416,0.02684,-0.01952,-0.00244,0.01464,-0.0244,0.00488,-0.01464,-0.01952,0,-0.0244,-0.01952
-0.03904,0.04392,-0.0488,-0.02928,-0.00976,-0.01464,-0.00488,-0.0244,-0.01952,0,-0.0244,-0.01952
-0.02928,0.0244,-0.01952,-0.00488,0.00976,-0.01952,0,-0.02928,-0.0244,0,-0.0244,-0.0244
-0.00976,-0.00244,0.01464,0.01952,0.0244,-0.01708,0,-0.01464,-0.01464,0.00976,-0.01952,-0.01952
0,-0.0122,0.0244,0.0244,0.0244,-0.0122,0,-0.00488,-0.00976,0.01464,-0.00976,-0.00488
-0.01952,0.00488,0.00976,0.01952,0.02928,-0.0244,0.01464,0.00488,0.01952,0.02928,0.00488,0.00488
0,-0.01708,0.03416,0.03416,0.03416,-0.01708,0.00488,0,0.01952,0.02928,0.01464,0
0.01464,-0.03416,0.05368,0.04636,0.03904,-0.0122,0.01952,-0.00976,0.01952,0.03904,0.01464,0.00488
0.00488,-0.02928,0.05368,0.05124,0.0488,-0.02196,0.02928,0,0.0244,0.05368,0.0244,0.0244
-0.00488,-0.02196,0.0488,0.05124,0.05368,-0.02928,0.04392,0.00488,0.03904,0.04392,0.01952,0.01464
0.00488,-0.00488,0.00488,0.00244,0,0.00244,0.05368,0.01464,0.02928,0.03904,0.00976,0.01464
0.00488,0,-0.00488,-0.00732,-0.00976,0.00732,0.05368,0.01952,0.03416,0.02928,0.00976,0
0.01952,-0.00732,-0.00488,-0.01464,-0.0244,0.02196,0.05368,0.01464,0.03904,0.0244,0.01464,0
0.03416,-0.01464,-0.00488,-0.02196,-0.03904,0.0366,0.02928,0.01464,0.03904,0.03416,0.01464,0.00488
0.02928,-0.01464,0,-0.01464,-0.02928,0.02928,0.00488,0.00976,0.02928,0.01952,-0.00488,0.00488
0.0244,-0.00488,-0.01464,-0.02684,-0.03904,0.03172,0,0.00976,-0.00488,0.00976,-0.01952,-0.00488
0.03416,0.00488,-0.04392,-0.061,-0.07808,0.05612,-0.01464,0,-0.02928,0,-0.03416,-0.01952
0.03904,-0.00244,-0.03416,-0.05368,-0.0732,0.05612,-0.01464,-0.00488,-0.04392,-0.00488,-0.03904,-0.0244
0.04392,-0.00244,-0.03904,-0.061,-0.08296,0.06344,-0.02928,-0.00488,-0.03416,0,-0.03416,-0.02928
0.04392,-0.00488,-0.03416,-0.05612,-0.07808,0.061,-0.03416,-0.00976,-0.04392,-0.00976,-0.03416,-0.03416
0.00976,0.01952,-0.0488,-0.05368,-0.05856,0.03416,-0.05856,-0.02928,-0.05368,-0.0244,-0.05368,-0.03416
0,0.0244,-0.0488,-0.0488,-0.0488,0.0244,-0.05368,-0.03904,-0.05856,-0.0244,-0.0488,-0.03416
-0.00488,0.02684,-0.0488,-0.04636,-0.04392,0.01952,-0.02928,-0.0488,-0.06344,-0.03416,-0.05368,-0.0488
-0.0488,0.0488,-0.0488,-0.0244,0,-0.0244,-0.01952,-0.05368,-0.06344,-0.03904,-0.06832,-0.05856
-0.03904,0.03904,-0.03904,-0.01952,0,-0.01952,0.00976,-0.05368,-0.05856,-0.02928,-0.05856,-0.05368
-0.0244,0.03172,-0.03904,-0.02684,-0.01464,-0.00488,0.01952,-0.03904,-0.04392,-0.00976,-0.0488,-0.03416
-0.03904,0.05368,-0.06832,-0.0488,-0.02928,-0.00488,0.01464,-0.02928,-0.0488,-0.01464,-0.03904,-0.03904
-0.05856,0.06588,-0.0732,-0.04392,-0.01464,-0.02196,0.00976,-0.03904,-0.05368,-0.01952,-0.04392,-0.04392
-0.04392,0.05368,-0.06344,-0.04148,-0.01952,-0.0122,0.00488,-0.04392,-0.06344,-0.02928,-0.06344,-0.05856
-0.04392,0.04392,-0.04392,-0.02196,0,-0.02196,0.00488,-0.05368,-0.06832,-0.02928,-0.06344,-0.05368
-0.04392,0.0488,-0.05368,-0.03172,-0.00976,-0.01708,0.00488,-0.0488,-0.05856,-0.03416,-0.06344,-0.05856
-0.03416,0.0366,-0.03904,-0.02196,-0.00488,-0.01464,-0.01952,-0.0488,-0.05856,-0.03416,-0.06344,-0.05368
-0.03904,0.04636,-0.05368,-0.03416,-0.01464,-0.0122,-0.00976,-0.0488,-0.0488,-0.02928,-0.0488,-0.05368
-0.05368,0.05368,-0.05368,-0.02684,0,-0.02684,-0.00488,-0.0488,-0.0488,-0.02928,-0.05368,-0.05856
-0.0732,0.06344,-0.05368,-0.01708,0.01952,-0.04636,0.00488,-0.03416,-0.0488,-0.02928,-0.0488,-0.0488
-0.03904,0.05612,-0.0732,-0.05368,-0.03416,-0.00244,0.01952,-0.0244,-0.03904,-0.0244,-0.04392,-0.04392
-0.03904,0.03416,-0.02928,-0.00976,0.00976,-0.0244,0.05368,0.04392,0.03416,0.00488,-0.00976,-0.02928
-0.02928,0.01464,0,0.01464,0.02928,-0.02928,0.12688,0.13176,0.15128,0.0732,0.08296,0
-0.06344,0.01464,0.03416,0.06588,0.0976,-0.08052,0.1464,0.18544,0.27816,0.1708,0.20008,0.07808
0.04392,-0.08296,0.122,0.10004,0.07808,-0.01708,0.15128,0.22936,0.42456,0.30744,0.32696,0.18544
0.15616,-0.15372,0.15128,0.0732,-0.00488,0.08052,0.13664,0.28792,0.5612,0.44408,0.47824,0.29768
0.3172,-0.28792,0.25864,0.10004,-0.05856,0.18788,0.10736,0.40504,0.72224,0.63928,0.66368,0.4636
0.4636,-0.38308,0.30256,0.07076,-0.16104,0.31232,0.05856,0.4636,0.81984,0.8052,0.79544,0.60024
0.63928,-0.51728,0.39528,0.07564,-0.244,0.44164,-0.23912,0.31232,0.66856,0.81008,0.74664,0.66368
0.69784,-0.55144,0.40504,0.05612,-0.2928,0.49532,-0.50752,0.13664,0.42456,0.72224,0.57584,0.62464
0.66856,-0.5002,0.33184,-0.00244,-0.33672,0.50264,-0.5856,-0.06832,0.03416,0.42456,0.22448,0.41968
0.31232,-0.17568,0.03904,-0.11712,-0.27328,0.2928,-0.64416,-0.488,-0.52216,-0.05368,-0.28792,0.05856
0.19032,-0.10492,0.01952,-0.07564,-0.1708,0.18056,-0.67344,-0.8052,-0.80032,-0.244,-0.52216,-0.08296
-0.0244,0.05612,-0.08784,-0.07564,-0.06344,0.01952,-0.5612,-0.80032,-0.8052,-0.29768,-0.5368,-0.11712
0.0244,0.00976,-0.04392,-0.05612,-0.06832,0.04636,-0.488,-0.65392,-0.71248,-0.26352,-0.47824,-0.14152
-0.03904,0.02684,-0.01464,0.00488,0.0244,-0.03172,-0.38064,-0.56608,-0.57584,-0.22448,-0.40504,-0.11224
-0.03904,0.01464,0.00976,0.02928,0.0488,-0.04392,-0.27816,-0.44896,-0.40504,-0.1708,-0.2928,-0.10736
-0.06344,0.0366,-0.00976,0.02196,0.05368,-0.05856,-0.16104,-0.27816,-0.25376,-0.122,-0.20496,-0.09272
-0.10248,0.06832,-0.03416,0.01708,0.06832,-0.0854,-0.08784,-0.19032,-0.20008,-0.09272,-0.1464,-0.08296
-0.0488,0.0244,0,0.0244,0.0488,-0.0488,-0.0732,-0.16104,-0.1708,-0.06832,-0.12688,-0.06832
-0.05368,0.05368,-0.05368,-0.02684,0,-0.02684,-0.01464,-0.10736,-0.11712,-0.0488,-0.0976,-0.06832
-0.06344,0.06344,-0.06344,-0.03172,0,-0.03172,-0.00488,-0.0488,-0.08296,-0.0488,-0.09272,-0.06832
-0.06344,0.05368,-0.04392,-0.0122,0.01952,-0.04148,-0.00976,-0.05368,-0.07808,-0.03904,-0.07808,-0.05368
-0.0488,0.04148,-0.03416,-0.00976,0.01464,-0.03172,0,-0.0488,-0.06832,-0.02928,-0.05856,-0.0488
-0.0488,0.04392,-0.03904,-0.01464,0.00976,-0.02928,0.01952,-0.02928,-0.06344,-0.0244,-0.06344,-0.03904
-0.0488,0.04392,-0.03904,-0.01464,0.00976,-0.02928,0.02928,-0.01952,-0.05368,-0.02928,-0.06832,-0.0488
-0.05856,0.05124,-0.04392,-0.01464,0.01464,-0.0366,0.00976,-0.01952,-0.05856,-0.03416,-0.05856,-0.05368
-0.05856,0.05124,-0.04392,-0.01464,0.01464,-0.0366,0,-0.03904,-0.06344,-0.02928,-0.06832,-0.05856
-0.06832,0.05856,-0.0488,-0.01464,0.01952,-0.04392,0.00976,-0.03416,-0.05856,-0.02928,-0.06344,-0.06344
-0.0732,0.06832,-0.06344,-0.02684,0.00976,-0.04148,0.0244,-0.01464,-0.03904,-0.0244,-0.05368,-0.06344
-0.06832,0.0488,-0.02928,0.00488,0.03904,-0.05368,0.03416,-0.01952,-0.03416,-0.0244,-0.04392,-0.05856
-0.0732,0.05856,-0.04392,-0.00732,0.02928,-0.05124,0.03416,-0.02928,-0.05368,-0.0244,-0.05368,-0.0488
-0.04392,0.04392,-0.04392,-0.02196,0,-0.02196,0.03904,-0.01952,-0.05368,-0.0244,-0.05856,-0.0488
-0.04392,0.04148,-0.03904,-0.01708,0.00488,-0.0244,0.0488,0,-0.02928,-0.01464,-0.0488,-0.0488
-0.04392,0.04392,-0.04392,-0.02196,0,-0.02196,0.04392,0.00488,-0.02928,-0.01464,-0.0488,-0.0488
-0.05856,0.04392,-0.02928,0,0.02928,-0.04392,0.02928,-0.01952,-0.03416,-0.0244,-0.05368,-0.05856
-0.06344,0.04392,-0.0244,0.00732,0.03904,-0.05124,0.02928,-0.0244,-0.03904,-0.0244,-0.05368,-0.05856
-0.0732,0.05368,-0.03416,0.00244,0.03904,-0.05612,0.03904,-0.01952,-0.04392,-0.0244,-0.05368,-0.05856
-0.0732,0.061,-0.0488,-0.0122,0.0244,-0.0488,0.04392,-0.01464,-0.03904,-0.0244,-0.05368,-0.05856
-0.05368,0.05124,-0.0488,-0.02196,0.00488,-0.02928,0.03904,-0.01464,-0.03416,-0.01952,-0.04392,-0.05368
-0.04392,0.04148,-0.03904,-0.01708,0.00488,-0.0244,0.03904,0,-0.03416,-0.00488,-0.03904,-0.04392
-0.05856,0.05612,-0.05368,-0.0244,0.00488,-0.03172,0.03904,0.00488,-0.03416,-0.00976,-0.0488,-0.0488
-0.06832,0.0488,-0.02928,0.00488,0.03904,-0.05368,0.03904,0.00488,-0.03416,-0.00976,-0.05368,-0.05368
-0.0488,0.03416,-0.01952,0.00488,0.02928,-0.03904,0.03904,0,-0.03904,-0.01952,-0.04392,-0.0488
-0.0244,0.02684,-0.02928,-0.01708,-0.00488,-0.00976,0.03416,0,-0.03904,-0.01952,-0.03904,-0.0488
-0.04392,0.04636,-0.0488,-0.02684,-0.00488,-0.01952,0.03904,0.00488,-0.03416,-0.00976,-0.0488,-0.04392
-0.06832,0.05612,-0.04392,-0.00976,0.0244,-0.04636,0.05368,0.00488,-0.03904,-0.01464,-0.05368,-0.05368
-0.05856,0.04148,-0.0244,0.00488,0.03416,-0.04636,0.0488,0.00488,-0.03416,-0.00976,-0.0488,-0.0488
-0.04392,0.0366,-0.02928,-0.00732,0.01464,-0.02928,0.0488,0.00488,-0.03416,-0.01464,-0.05368,-0.04392
-0.0488,0.04636,-0.04392,-0.01952,0.00488,-0.02684,0.0488,0.01464,-0.0244,-0.00488,-0.03904,-0.03416
-0.03904,0.03904,-0.03904,-0.01952,0,-0.01952,0.04392,0.01464,-0.0244,-0.00488,-0.03904,-0.03416
-0.0488,0.05368,-0.05856,-0.03416,-0.00976,-0.01952,0.04392,0.0244,-0.03416,-0.01464,-0.03904,-0.03904
-0.06344,0.05368,-0.04392,-0.0122,0.01952,-0.04148,0.02928,0.0244,-0.03904,-0.01464,-0.04392,-0.0488
-0.04392,0.04148,-0.03904,-0.01708,0.00488,-0.0244,0.02928,0.01464,-0.02928,-0.00976,-0.05856,-0.05368
-0.04392,0.04392,-0.04392,-0.02196,0,-0.02196,0.03904,0.03904,-0.01952,0,-0.04392,-0.04392
-0.03904,0.0366,-0.03416,-0.01464,0.00488,-0.02196,0.04392,0.03904,-0.02928,-0.00976,-0.03416,-0.05368
-0.03416,0.03172,-0.02928,-0.0122,0.00488,-0.01952,0.0488,0.04392,-0.0244,0,-0.02928,-0.0488
-0.02928,0.03416,-0.03904,-0.0244,-0.00976,-0.00976,0.0488,0.04392,-0.01952,0.00976,-0.02928,-0.04392
-0.03904,0.04148,-0.04392,-0.0244,-0.00488,-0.01708,0.05856,0.04392,-0.00976,0.00488,-0.02928,-0.03904
-0.04392,0.04148,-0.03904,-0.01708,0.00488,-0.0244,0.06344,0.05856,-0.01464,0,-0.03904,-0.03904
-0.04392,0.04148,-0.03904,-0.01708,0.00488,-0.0244,0.05368,0.06832,-0.01464,0.00488,-0.03416,-0.03416
-0.0488,0.04148,-0.03416,-0.00976,0.01464,-0.03172,0.03904,0.06832,-0.01952,0,-0.03904,-0.03416
-0.0244,0.02684,-0.02928,-0.01708,-0.00488,-0.00976,0.04392,0.0732,-0.01464,0.00488,-0.03416,-0.03904
-0.0244,0.01708,-0.00976,0.00244,0.01464,-0.01952,0.0488,0.08296,-0.00488,0.01464,-0.0244,-0.03416
-0.0244,0.01952,-0.01464,-0.00244,0.00976,-0.01708,0.05368,0.09272,0.00488,0.01952,-0.01952,-0.03416
-0.0244,0.02684,-0.02928,-0.01708,-0.00488,-0.00976,0.05856,0.0976,0,0.00976,-0.00976,-0.03416
-0.01464,0.01708,-0.01952,-0.0122,-0.00488,-0.00488,0.06832,0.0976,0.00488,0.00976,-0.00976,-0.03416
-0.01464,0.01464,-0.01464,-0.00732,0,-0.00732,0.06832,0.11224,0.00976,0.00976,-0.01952,-0.02928
-0.00488,0.00976,-0.01464,-0.0122,-0.00976,0.00244,0.0732,0.11712,0.01952,0.01464,-0.01464,-0.02928
-0.00976,0.01952,-0.02928,-0.0244,-0.01952,0.00488,0.0732,0.122,0.01952,0.01464,-0.0244,-0.02928
-0.01464,0.01464,-0.01464,-0.00732,0,-0.00732,0.06832,0.13664,0.0244,0.01464,-0.01952,-0.02928
-0.00976,0.0244,-0.03904,-0.03416,-0.02928,0.00976,0.05368,0.12688,0.00976,0.01464,-0.01952,-0.02928
-0.01952,0.02196,-0.0244,-0.01464,-0.00488,-0.00732,0.06832,0.14152,0.0244,0.01952,-0.01464,-0.0244
-0.00976,0.0122,-0.01464,-0.00976,-0.00488,-0.00244,0.06832,0.15128,0.01952,0.01952,-0.01464,-0.03416
0.00488,-0.01464,0.0244,0.02196,0.01952,-0.00732,0.06344,0.15128,0.01952,0.01952,-0.01464,-0.02928
-0.00976,-0.00488,0.01952,0.0244,0.02928,-0.01952,0.0732,0.16104,0.02928,0.02928,-0.00488,-0.0244
0.00488,-0.00976,0.01464,0.0122,0.00976,-0.00244,0.08296,0.18056,0.03904,0.03904,0,-0.00488
0.01464,-0.00732,0,-0.00732,-0.01464,0.01464,0.08296,0.1952,0.03904,0.02928,-0.00976,-0.01952
0.0244,-0.01708,0.00976,-0.00244,-0.01464,0.01952,0.07808,0.1952,0.03416,0.03416,-0.00976,-0.01464
0.0244,-0.02684,0.02928,0.01708,0.00488,0.00976,0.06832,0.18544,0.0244,0.02928,0,-0.01952
0.00488,-0.01464,0.0244,0.02196,0.01952,-0.00732,0.05856,0.17568,0.0244,0.03416,0.00488,-0.01464
0.01464,-0.0122,0.00976,0.00244,-0.00488,0.00976,0.0488,0.17568,0.03416,0.03904,0.01464,-0.00976
0.00488,-0.00732,0.00976,0.00732,0.00488,0,0.04392,0.1708,0.03416,0.03904,0.00488,-0.00976
0.01952,-0.01708,0.01464,0.00488,-0.00488,0.0122,0.05368,0.16592,0.02928,0.03416,-0.00976,-0.00976
0.04392,-0.0366,0.02928,0.00732,-0.01464,0.02928,0.05368,0.16104,0.0244,0.03416,0,-0.00976
0.0488,-0.04392,0.03904,0.01464,-0.00976,0.02928,0.0488,0.16592,0.03904,0.04392,0,0.00488
0.04392,-0.05124,0.05856,0.0366,0.01464,0.01464,0.03904,0.16104,0.03416,0.04392,0,0.00488
0.03416,-0.04392,0.05368,0.0366,0.01952,0.00732,0.0488,0.15616,0.03904,0.0488,0.00976,0.00976
0.03416,-0.0366,0.03904,0.02196,0.00488,0.01464,0.03416,0.11712,0.03904,0.03904,0.00976,0.00488
0.02928,-0.02684,0.0244,0.00976,-0.00488,0.01708,0.02928,0.10736,0.03416,0.03904,0.00976,-0.00488
0.0244,-0.0244,0.0244,0.0122,0,0.0122,0.01464,0.0976,0.0244,0.03904,0,0
0.0244,-0.01952,0.01464,0.00244,-0.00976,0.01708,0.00488,0.09272,0.03416,0.04392,0.00488,0.00976
0.0244,-0.02928,0.03416,0.02196,0.00976,0.00732,0.01464,0.08784,0.03416,0.05856,0.01952,0.01464
0.02928,-0.03904,0.0488,0.03416,0.01952,0.00488,0.01464,0.06832,0.03904,0.05368,0.01952,0.00488
0.02928,-0.03416,0.03904,0.0244,0.00976,0.00976,0.00488,0.0488,0.02928,0.05368,0.00976,0
0.0244,-0.03416,0.04392,0.03172,0.01952,0.00244,0,0.03416,0.0244,0.05856,0.0244,0.00488
0.00488,-0.02928,0.05368,0.05124,0.0488,-0.02196,0,0.0244,0.03416,0.05856,0.0244,0
0.00976,-0.01952,0.02928,0.0244,0.01952,-0.00488,-0.00488,0.01952,0.03416,0.05856,0.02928,0.00488
0,-0.00488,0.00976,0.00976,0.00976,-0.00488,-0.00488,0.00488,0.02928,0.05368,0.01464,-0.00488
-0.00488,-0.0122,0.02928,0.03172,0.03416,-0.01952,-0.01464,-0.00488,0.00976,0.03904,0.00976,-0.00488
-0.01464,0.00244,0.00976,0.01708,0.0244,-0.01952,-0.01464,-0.00976,0.00976,0.03416,0.00976,-0.00976
-0.00488,0,0.00488,0.00732,0.00976,-0.00732,-0.01952,-0.00976,0.01952,0.03904,0.01464,-0.01464
-0.01952,0.0122,-0.00488,0.00488,0.01464,-0.01708,-0.01952,-0.01464,0.01464,0.03416,0.00976,-0.01952
-0.01952,0.0122,-0.00488,0.00488,0.01464,-0.01708,-0.00976,-0.01952,0.01464,0.03416,0,-0.00488
-0.02928,0.01708,-0.00488,0.00976,0.0244,-0.02684,-0.00976,-0.02928,0.01464,0.04392,0.00488,-0.00488
-0.02928,0.00976,0.00976,0.0244,0.03904,-0.03416,-0.00488,-0.02928,-0.00488,0.02928,-0.00976,-0.01952
-0.0244,0.0122,0,0.0122,0.0244,-0.0244,0,-0.03904,-0.00488,0.02928,-0.00976,-0.0244
-0.01952,0.00976,0,0.00976,0.01952,-0.01952,-0.00488,-0.03416,-0.01464,0.0244,-0.00976,-0.0244
-0.00976,0.00244,0.00488,0.00976,0.01464,-0.0122,-0.00976,-0.0244,-0.00976,0.02928,-0.00976,-0.0244
-0.0244,0.01464,-0.00488,0.00732,0.01952,-0.02196,-0.00976,-0.01952,-0.00488,0.03416,0,-0.0244
-0.0244,0.01464,-0.00488,0.00732,0.01952,-0.02196,-0.00488,-0.02928,-0.00976,0.0244,-0.00488,-0.0244
-0.03904,0.03416,-0.02928,-0.00976,0.00976,-0.0244,-0.00488,-0.03904,-0.00976,0.01952,-0.01464,-0.03416
-0.03416,0.02684,-0.01952,-0.00244,0.01464,-0.0244,-0.00488,-0.03904,-0.01952,0.01952,-0.0244,-0.03904
-0.03416,0.0244,-0.01464,0.00244,0.01952,-0.02684,0,-0.0244,-0.01952,0.01464,-0.0244,-0.03904
-0.02928,0.01464,0,0.01464,0.02928,-0.02928,0,-0.0244,-0.01464,0.01952,-0.0244,-0.03416
-0.0244,0.01952,-0.01464,-0.00244,0.00976,-0.01708,-0.00488,-0.03416,-0.0244,0.01464,-0.03904,-0.03416
-0.0244,0.02196,-0.01952,-0.00732,0.00488,-0.01464,-0.00976,-0.03904,-0.02928,0.00488,-0.04392,-0.03904
-0.01464,0.01708,-0.01952,-0.0122,-0.00488,-0.00488,0.00488,-0.01952,-0.01952,0.0244,-0.02928,-0.0244
-0.0244,0.01952,-0.01464,-0.00244,0.00976,-0.01708,0,-0.02928,-0.01464,0.0244,-0.01464,-0.0244
-0.01952,0.00976,0,0.00976,0.01952,-0.01952,0,-0.02928,-0.0244,0.0244,-0.0244,-0.03416
-0.01464,-0.00244,0.01952,0.02684,0.03416,-0.0244,-0.00976,-0.04392,-0.0244,0.00976,-0.03416,-0.03416
-0.01952,-0.00488,0.02928,0.03904,0.0488,-0.03416,-0.00488,-0.03904,-0.00976,0.00976,-0.03416,-0.0244
-0.01952,0.0122,-0.00488,0.00488,0.01464,-0.01708,-0.00488,-0.02928,-0.00976,0.0244,-0.01952,-0.0244
-0.02928,0.01708,-0.00488,0.00976,0.0244,-0.02684,0.00488,-0.0244,-0.00488,0.02928,-0.01464,-0.02928
-0.03416,0.02684,-0.01952,-0.00244,0.01464,-0.0244,0.00488,-0.0244,-0.00976,0.02928,-0.01952,-0.02928
-0.0244,0.01464,-0.00488,0.00732,0.01952,-0.02196,-0.00976,-0.01952,-0.00488,0.03416,-0.00488,-0.01952
-0.01952,0.00244,0.01464,0.0244,0.03416,-0.02684,-0.00976,-0.03416,-0.00488,0.03416,-0.00488,-0.01952
-0.02928,0.00732,0.01464,0.02928,0.04392,-0.0366,-0.00488,-0.01464,0,0.03904,-0.00976,-0.01464
-0.02928,0.0122,0.00488,0.01952,0.03416,-0.03172,-0.00488,-0.01464,0,0.03904,-0.00976,-0.01464
-0.02928,0.01708,-0.00488,0.00976,0.0244,-0.02684,-0.00488,-0.01464,0,0.03904,-0.00488,-0.01464
-0.0244,0.0122,0,0.0122,0.0244,-0.0244,-0.00488,-0.00976,0.00976,0.03904,0,-0.00976
-0.00976,-0.00732,0.0244,0.02928,0.03416,-0.02196,-0.00488,-0.0244,0,0.03904,0,-0.01952
-0.03904,0.01952,0,0.01952,0.03904,-0.03904,-0.00976,-0.0244,0.00488,0.03904,0.00488,-0.01952
-0.00976,-0.00488,0.01952,0.0244,0.02928,-0.01952,0,-0.01464,0.00488,0.04392,0.00976,-0.00488
0,-0.0122,0.0244,0.0244,0.0244,-0.0122,0.00488,-0.00488,0.01952,0.05856,0.01952,0
-0.00976,0,0.00976,0.01464,0.01952,-0.01464,0,-0.00976,0.01464,0.06344,0.00976,-0.00976
-0.01952,-0.00244,0.0244,0.03416,0.04392,-0.03172,-0.00488,-0.02928,0.01464,0.05368,0.00488,-0.00976
-0.00976,-0.00732,0.0244,0.02928,0.03416,-0.02196,-0.01464,-0.01952,0.01464,0.0488,0.00976,0
-0.01464,0.00244,0.00976,0.01708,0.0244,-0.01952,-0.01464,-0.0244,0.01464,0.04392,0.00976,0
-0.01952,0.00976,0,0.00976,0.01952,-0.01952,-0.00976,-0.00976,0.01952,0.05368,0.01464,-0.00488
-0.01464,0,0.01464,0.02196,0.02928,-0.02196,-0.01464,-0.00976,0.01952,0.05856,0.01464,-0.00488
0,-0.00488,0.00976,0.00976,0.00976,-0.00488,-0.00488,-0.01952,0.00488,0.0488,0.00488,-0.00976
-0.01952,0.00488,0.00976,0.01952,0.02928,-0.0244,-0.00488,-0.01952,0.00488,0.0488,-0.00488,-0.00976
-0.00976,-0.00732,0.0244,0.02928,0.03416,-0.02196,0,-0.01464,0.01952,0.0488,0,-0.00976
-0.00976,-0.00732,0.0244,0.02928,0.03416,-0.02196,-0.00488,-0.01464,0.01464,0.0488,0,-0.00976
-0.01464,-0.00732,0.02928,0.0366,0.04392,-0.02928,-0.00976,-0.0244,0.00976,0.04392,-0.00976,-0.01464
0,-0.01708,0.03416,0.03416,0.03416,-0.01708,-0.01464,-0.0244,0.00488,0.0488,-0.00976,-0.00976
0,-0.01708,0.03416,0.03416,0.03416,-0.01708,-0.00976,-0.03416,0.00488,0.05856,0,-0.01464
0,-0.0122,0.0244,0.0244,0.0244,-0.0122,-0.00976,-0.03416,0.00488,0.05368,0,-0.00488
0,-0.00976,0.01952,0.01952,0.01952,-0.00976,-0.00976,-0.02928,0.01464,0.04392,-0.00976,-0.01464
0,-0.01464,0.02928,0.02928,0.02928,-0.01464,-0.00488,-0.0244,0.01952,0.05368,0,-0.01464
-0.00976,-0.00488,0.01952,0.0244,0.02928,-0.01952,-0.00488,-0.01952,0.00488,0.05368,-0.00488,-0.00976
-0.01952,0.00732,0.00488,0.01464,0.0244,-0.02196,-0.00976,-0.0244,0.00488,0.05368,0,-0.00976
-0.0244,0.01952,-0.01464,-0.00244,0.00976,-0.01708,-0.01952,-0.03416,-0.00488,0.0488,-0.00488,-0.01952
-0.01464,0.00732,0,0.00732,0.01464,-0.01464,-0.01464,-0.03416,-0.00488,0.04392,-0.01464,-0.01952
-0.03904,0.02684,-0.01464,0.00488,0.0244,-0.03172,-0.00488,-0.01952,0.00488,0.05856,-0.01952,-0.00976
-0.03416,0.02196,-0.00976,0.00732,0.0244,-0.02928,0.00488,-0.0244,0,0.04392,-0.00976,-0.00976
-0.0244,0.01708,-0.00976,0.00244,0.01464,-0.01952,-0.00976,-0.02928,-0.01464,0.03904,-0.01952,-0.01952
-0.01464,0,0.01464,0.02196,0.02928,-0.02196,-0.01464,-0.02928,-0.00488,0.04392,-0.01952,-0.01952
-0.00488,-0.00488,0.01464,0.01708,0.01952,-0.0122,-0.01952,-0.0244,-0.00488,0.03904,-0.00488,-0.01952
-0.00488,-0.00244,0.00976,0.0122,0.01464,-0.00976,-0.01464,-0.0244,-0.00488,0.03904,-0.01464,-0.01952
-0.01464,0.0122,-0.00976,-0.00244,0.00488,-0.00976,-0.01464,-0.04392,-0.0244,0.03904,-0.02928,-0.0244
-0.0244,0.01952,-0.01464,-0.00244,0.00976,-0.01708,-0.01952,-0.04392,-0.0244,0.03904,-0.02928,-0.03416
-0.00976,0.01708,-0.0244,-0.01952,-0.01464,0.00244,-0.01464,-0.02928,-0.01464,0.04392,-0.01952,-0.01952
-0.01464,0.00244,0.00976,0.01708,0.0244,-0.01952,-0.01464,-0.02928,-0.00488,0.04392,-0.01952,-0.0244
-0.01464,-0.00244,0.01952,0.02684,0.03416,-0.0244,-0.00976,-0.03904,-0.00976,0.03416,-0.01464,-0.02928
-0.01952,0.01464,-0.00976,0,0.00976,-0.01464,-0.00976,-0.02928,-0.00976,0.04392,-0.01952,-0.02928
-0.02928,0.03416,-0.03904,-0.0244,-0.00976,-0.00976,0,-0.0244,0.00488,0.05856,-0.01464,-0.01464
-0.02928,0.02196,-0.01464,0,0.01464,-0.02196,0.00488,-0.02928,0.00488,0.05368,-0.01464,-0.01464
0,-0.00244,0.00488,0.00488,0.00488,-0.00244,0,-0.02928,0,0.0488,-0.01464,-0.01952
-0.01952,0.00732,0.00488,0.01464,0.0244,-0.02196,-0.00976,-0.0488,-0.01464,0.03904,-0.02928,-0.03416
-0.01952,0.00488,0.00976,0.01952,0.02928,-0.0244,0,-0.03904,-0.00976,0.03904,-0.02928,-0.02928
-0.0244,0.00732,0.00976,0.02196,0.03416,-0.02928,0,-0.03904,-0.01464,0.03904,-0.02928,-0.03416
-0.00488,0.00488,-0.00488,-0.00244,0,-0.00244,0.00488,-0.02928,-0.00488,0.04392,-0.01952,-0.01952
-0.01464,0.00976,-0.00488,0.00244,0.00976,-0.0122,0,-0.03416,-0.00488,0.05368,-0.01952,-0.01952
-0.0244,0.0122,0,0.0122,0.0244,-0.0244,-0.00976,-0.03416,-0.00976,0.05368,-0.01952,-0.01952
-0.0244,0.0122,0,0.0122,0.0244,-0.0244,-0.00488,-0.04392,-0.01464,0.0488,-0.01952,-0.01952
-0.01464,0.0122,-0.00976,-0.00244,0.00488,-0.00976,0.00488,-0.04392,-0.00488,0.0488,-0.01952,-0.01952
-0.00976,0.00488,0,0.00488,0.00976,-0.00976,-0.00488,-0.03904,-0.00488,0.04392,-0.01952,-0.0244
-0.01952,0.00732,0.00488,0.01464,0.0244,-0.02196,-0.01464,-0.03416,-0.01952,0.04392,-0.01952,-0.0244
-0.01952,0.00976,0,0.00976,0.01952,-0.01952,-0.0244,-0.03416,-0.01464,0.05368,-0.01952,-0.01952
-0.0244,0.02196,-0.01952,-0.00732,0.00488,-0.01464,-0.01952,-0.03416,-0.01952,0.0488,-0.01952,-0.0244
-0.03416,0.01952,-0.00488,0.0122,0.02928,-0.03172,-0.00976,-0.03416,-0.01952,0.0488,-0.01952,-0.0244
-0.02928,0.02196,-0.01464,0,0.01464,-0.02196,-0.01464,-0.04392,-0.0244,0.03904,-0.01952,-0.03416
-0.01952,0.00976,0,0.00976,0.01952,-0.01952,-0.01952,-0.04392,-0.03416,0.03416,-0.01952,-0.02928
-0.01464,0.00488,0.00488,0.0122,0.01952,-0.01708,-0.01464,-0.04392,-0.02928,0.04392,-0.03416,-0.03416
-0.01464,0.00976,-0.00488,0.00244,0.00976,-0.0122,0,-0.04392,-0.01464,0.0488,-0.01952,-0.02928
-0.00976,0.0122,-0.01464,-0.00976,-0.00488,-0.00244,-0.00488,-0.04392,-0.01464,0.03904,-0.01464,-0.02928
-0.00976,0.0122,-0.01464,-0.00976,-0.00488,-0.00244,-0.00488,-0.04392,-0.01464,0.04392,-0.01464,-0.02928
-0.0244,0.02684,-0.02928,-0.01708,-0.00488,-0.00976,-0.00488,-0.02928,-0.01464,0.05368,-0.00976,-0.02928
-0.03416,0.02928,-0.0244,-0.00732,0.00976,-0.02196,-0.00488,-0.03416,-0.00976,0.04392,-0.01464,-0.02928
-0.01952,0.01708,-0.01464,-0.00488,0.00488,-0.0122,-0.00488,-0.03904,-0.00976,0.05368,-0.00976,-0.01464
-0.0244,0.00732,0.00976,0.02196,0.03416,-0.02928,-0.00976,-0.03904,-0.01952,0.05368,-0.01952,-0.0244
-0.01464,0.01952,-0.0244,-0.01708,-0.00976,-0.00244,0.00488,-0.01464,-0.00976,0.05856,-0.00488,-0.00976
-0.01952,0.00976,0,0.00976,0.01952,-0.01952,0,-0.02928,-0.01952,0.05856,-0.02928,-0.01952
-0.03904,0.02928,-0.01952,0,0.01952,-0.02928,0,-0.02928,-0.01952,0.05856,-0.02928,-0.01952
-0.03904,0.03172,-0.0244,-0.00488,0.01464,-0.02684,-0.00976,-0.02928,-0.01952,0.05856,-0.01952,-0.01952
-0.01952,0.01708,-0.01464,-0.00488,0.00488,-0.0122,-0.00976,-0.02928,-0.01952,0.05368,-0.01952,-0.01952
-0.00976,-0.00488,0.01952,0.0244,0.02928,-0.01952,-0.01464,-0.03904,-0.00976,0.05856,-0.0244,-0.01952
-0.0244,-0.00244,0.02928,0.04148,0.05368,-0.03904,-0.01464,-0.03416,-0.00976,0.05856,-0.0244,-0.01952
-0.01464,0.00488,0.00488,0.0122,0.01952,-0.01708,-0.0244,-0.03904,-0.00976,0.06832,-0.01464,-0.00976
-0.00976,0.00488,0,0.00488,0.00976,-0.00976,-0.01952,-0.0244,-0.00488,0.06832,-0.00488,-0.00488
0,-0.00732,0.01464,0.01464,0.01464,-0.00732,-0.01952,-0.01952,-0.00488,0.06832,-0.00976,-0.00976
0.01952,-0.0366,0.05368,0.04392,0.03416,-0.00732,-0.01952,-0.02928,-0.00488,0.0732,-0.00976,-0.00488
0.02928,-0.03904,0.0488,0.03416,0.01952,0.00488,0.00488,-0.01952,0.01952,0.0976,0.01464,0.01464
0.03904,-0.04636,0.05368,0.03416,0.01464,0.0122,0.00488,-0.00976,0.03904,0.10736,0.02928,0.01952
0.0244,-0.0366,0.0488,0.0366,0.0244,0,0.00976,-0.00976,0.03904,0.11224,0.03416,0.01952
0.01952,-0.04148,0.06344,0.05368,0.04392,-0.0122,0.00976,-0.01464,0.03416,0.10736,0.02928,0.01952
0.01952,-0.0488,0.07808,0.06832,0.05856,-0.01952,0.03416,-0.00488,0.04392,0.10248,0.02928,0.00488
0.03416,-0.0488,0.06344,0.04636,0.02928,0.00244,0.04392,0.00488,0.03904,0.10248,0.02928,0.00976
0.0244,-0.04392,0.06344,0.05124,0.03904,-0.00732,0.03416,0.01464,0.05368,0.10248,0.03416,0.00976
0.02928,-0.03416,0.03904,0.0244,0.00976,0.00976,0.03416,0.02928,0.0488,0.09272,0.03904,0.01464
0.05368,-0.03904,0.0244,-0.00244,-0.02928,0.04148,0.01952,0.03416,0.0488,0.10248,0.04392,0.0244
0.05856,-0.03904,0.01952,-0.00976,-0.03904,0.0488,-0.00488,0.0244,0.03904,0.08784,0.0244,0.01464
0.05368,-0.02928,0.00488,-0.02196,-0.0488,0.05124,-0.01952,0,-0.00488,0.0732,0.00488,0
0.05368,-0.01952,-0.01464,-0.04148,-0.06832,0.061,-0.03416,-0.0244,-0.01952,0.05368,-0.01952,-0.01464
0.05368,-0.0244,-0.00488,-0.03172,-0.05856,0.05612,-0.03416,-0.03416,-0.0244,0.04392,-0.02928,-0.0244
0.03904,-0.00976,-0.01952,-0.03904,-0.05856,0.0488,-0.03904,-0.04392,-0.0244,0.03904,-0.03416,-0.02928
0.03904,-0.0122,-0.01464,-0.03416,-0.05368,0.04636,-0.04392,-0.03904,-0.0244,0.01952,-0.0244,-0.0244
0.02928,-0.00244,-0.0244,-0.03904,-0.05368,0.04148,-0.05856,-0.05368,-0.0244,0.01464,-0.03416,-0.0244
0.01952,-0.00244,-0.01464,-0.0244,-0.03416,0.02684,-0.05368,-0.05368,-0.03904,0.01464,-0.03904,-0.0244
0,0.00732,-0.01464,-0.01464,-0.01464,0.00732,-0.03904,-0.05368,-0.03416,0.01464,-0.03904,-0.02928
-0.04392,0.03904,-0.03416,-0.0122,0.00976,-0.02684,-0.01952,-0.03904,-0.03416,0.00976,-0.03904,-0.02928
-0.03904,0.03416,-0.02928,-0.00976,0.00976,-0.0244,-0.00488,-0.03904,-0.03416,0.00488,-0.02928,-0.02928
-0.01952,0.01952,-0.01952,-0.00976,0,-0.00976,-0.01464,-0.03416,-0.02928,0.00976,-0.02928,-0.02928
-0.02928,0.03172,-0.03416,-0.01952,-0.00488,-0.0122,-0.01464,-0.03904,-0.03904,-0.00976,-0.04392,-0.03904
-0.03904,0.03172,-0.0244,-0.00488,0.01464,-0.02684,-0.01952,-0.0488,-0.04392,-0.01952,-0.04392,-0.04392
-0.02928,0.01952,-0.00976,0.00488,0.01952,-0.0244,-0.01464,-0.0488,-0.0488,-0.01952,-0.0488,-0.0488
-0.0488,0.02928,-0.00976,0.01464,0.03904,-0.04392,-0.01464,-0.05368,-0.03416,-0.01952,-0.03904,-0.03416
-0.05368,0.04148,-0.02928,-0.00244,0.0244,-0.03904,-0.00976,-0.06344,-0.02928,-0.01464,-0.03416,-0.02928
-0.03416,0.03172,-0.02928,-0.0122,0.00488,-0.01952,-0.0244,-0.05856,-0.03904,-0.01464,-0.03416,-0.0244
-0.03416,0.03904,-0.04392,-0.02684,-0.00976,-0.0122,-0.01952,-0.0488,-0.02928,-0.00976,-0.02928,-0.0244
-0.03904,0.0366,-0.03416,-0.01464,0.00488,-0.02196,-0.01464,-0.05856,-0.0488,-0.02928,-0.04392,-0.03904
-0.06344,0.05368,-0.04392,-0.0122,0.01952,-0.04148,0.00488,-0.04392,-0.02928,-0.01952,-0.02928,-0.03904
-0.00976,0.0122,-0.01464,-0.00976,-0.00488,-0.00244,0,-0.01464,-0.00976,-0.01464,-0.03416,-0.0244
-0.02928,0.00976,0.00976,0.0244,0.03904,-0.03416,0.03416,0.04392,0.04392,0.00488,0,-0.02928
-0.06832,0.01952,0.02928,0.06344,0.0976,-0.08296,0.0976,0.14152,0.15128,0.05368,0.09272,0.00976
-0.00488,-0.02928,0.06344,0.06588,0.06832,-0.0366,0.16592,0.20496,0.32696,0.18056,0.22936,0.10736
0.06344,-0.10248,0.14152,0.1098,0.07808,-0.00732,0.15128,0.23912,0.42456,0.27816,0.34648,0.20496
0.21472,-0.20252,0.19032,0.08296,-0.0244,0.11956,0.13664,0.3172,0.57096,0.45384,0.49776,0.32696
0.34648,-0.31232,0.27816,0.10492,-0.06832,0.2074,0.0976,0.4148,0.69296,0.59048,0.6344,0.44408
0.50264,-0.42212,0.3416,0.09028,-0.16104,0.33184,-0.00976,0.43432,0.74176,0.7076,0.72712,0.5612
0.7076,-0.55632,0.40504,0.05124,-0.30256,0.50508,-0.29768,0.30256,0.60024,0.732,0.67832,0.6344
0.7564,-0.5856,0.4148,0.0366,-0.3416,0.549,-0.56608,0.0976,0.30744,0.60512,0.488,0.56608
0.61,-0.42212,0.23424,-0.07076,-0.37576,0.49288,-0.65392,-0.1464,-0.122,0.25864,0.0976,0.31232
0.33184,-0.20008,0.06832,-0.0976,-0.26352,0.29768,-0.72224,-0.5856,-0.60024,-0.1708,-0.34648,-0.00976
0.19032,-0.10004,0.00976,-0.0854,-0.18056,0.18544,-0.71248,-0.87352,-0.7808,-0.30256,-0.49288,-0.09272
0.0244,0.00244,-0.02928,-0.04148,-0.05368,0.03904,-0.61976,-0.83936,-0.76616,-0.3172,-0.50752,-0.12688
0.0244,-0.00976,-0.00488,-0.01708,-0.02928,0.02684,-0.49776,-0.70272,-0.6832,-0.31232,-0.47824,-0.14152
-0.02928,0.00244,0.0244,0.03904,0.05368,-0.04148,-0.40016,-0.5856,-0.52704,-0.26352,-0.37576,-0.122
-0.03904,0.02928,-0.01952,0,0.01952,-0.02928,-0.25864,-0.41968,-0.33672,-0.1708,-0.244,-0.07808
-0.06344,0.0366,-0.00976,0.02196,0.05368,-0.05856,-0.16104,-0.24888,-0.1952,-0.11224,-0.1464,-0.04392
-0.05368,0.02928,-0.00488,0.02196,0.0488,-0.05124,-0.11712,-0.20008,-0.15128,-0.09272,-0.10736,-0.04392
-0.05856,0.03904,-0.01952,0.00976,0.03904,-0.0488,-0.0732,-0.16104,-0.14152,-0.10736,-0.10736,-0.05856
-0.05368,0.03416,-0.01464,0.0122,0.03904,-0.04636,-0.0244,-0.10736,-0.10736,-0.10736,-0.0976,-0.07808
-0.02928,0.0244,-0.01952,-0.00488,0.00976,-0.01952,0,-0.05368,-0.05368,-0.08296,-0.08784,-0.06344
-0.03904,0.03416,-0.02928,-0.00976,0.00976,-0.0244,0.00488,-0.0488,-0.0488,-0.06344,-0.06344,-0.03904
-0.0488,0.0366,-0.0244,0,0.0244,-0.0366,0,-0.04392,-0.0488,-0.06344,-0.03904,-0.03416
-0.0488,0.03904,-0.02928,-0.00488,0.01952,-0.03416,0.01952,-0.03416,-0.04392,-0.06832,-0.04392,-0.03416
-0.05856,0.03416,-0.00976,0.01952,0.0488,-0.05368,0.0244,-0.02928,-0.02928,-0.05368,-0.03904,-0.03416
-0.06832,0.04148,-0.01464,0.01952,0.05368,-0.061,0.01464,-0.02928,-0.0244,-0.0488,-0.02928,-0.02928
-0.0488,0.03172,-0.01464,0.00976,0.03416,-0.04148,0.01952,-0.03904,-0.03416,-0.06344,-0.0488,-0.03904
-0.03904,0.02928,-0.01952,0,0.01952,-0.02928,0.02928,-0.03416,-0.02928,-0.0732,-0.04392,-0.04392
-0.0488,0.04636,-0.04392,-0.01952,0.00488,-0.02684,0.02928,-0.01464,-0.01952,-0.07808,-0.04392,-0.04392
-0.05368,0.03172,-0.00976,0.01708,0.04392,-0.0488,0.02928,-0.01952,-0.01464,-0.06832,-0.03416,-0.03904
-0.05856,0.04148,-0.0244,0.00488,0.03416,-0.04636,0.0244,-0.02928,-0.0244,-0.05856,-0.03416,-0.02928
-0.03904,0.03172,-0.0244,-0.00488,0.01464,-0.02684,0.02928,-0.01952,-0.0244,-0.06832,-0.03904,-0.02928
-0.04392,0.04148,-0.03904,-0.01708,0.00488,-0.0244,0.03904,0,0,-0.06344,-0.02928,-0.02928
-0.04392,0.04392,-0.04392,-0.02196,0,-0.02196,0.03416,0.00488,0,-0.06344,-0.02928,-0.02928
-0.05856,0.04148,-0.0244,0.00488,0.03416,-0.04636,0.01952,-0.01952,-0.00976,-0.0732,-0.02928,-0.03904
-0.06344,0.0366,-0.00976,0.02196,0.05368,-0.05856,0.01952,-0.0244,-0.0244,-0.0732,-0.03904,-0.03904
-0.05368,0.03172,-0.00976,0.01708,0.04392,-0.0488,0.03416,0,-0.01952,-0.06832,-0.03904,-0.02928
-0.05368,0.03416,-0.01464,0.0122,0.03904,-0.04636,0.02928,0.00488,-0.00488,-0.05856,-0.02928,-0.02928
-0.03904,0.02928,-0.01952,0,0.01952,-0.02928,0.02928,-0.01464,-0.00976,-0.06832,-0.02928,-0.03904
-0.03904,0.0244,-0.00976,0.00976,0.02928,-0.03416,0.02928,-0.01952,-0.01952,-0.0732,-0.03416,-0.03904
-0.05368,0.04392,-0.03416,-0.00732,0.01952,-0.0366,0.0488,-0.00976,-0.01464,-0.06832,-0.02928,-0.03904
-0.05368,0.04148,-0.02928,-0.00244,0.0244,-0.03904,0.0488,0,-0.01464,-0.06832,-0.03416,-0.04392
-0.03904,0.0366,-0.03416,-0.01464,0.00488,-0.02196,0.04392,0.00976,-0.00976,-0.06832,-0.0244,-0.02928
-0.03416,0.03416,-0.03416,-0.01708,0,-0.01708,0.02928,0.00976,-0.00976,-0.06832,-0.01952,-0.02928
-0.04392,0.03904,-0.03416,-0.0122,0.00976,-0.02684,0.03416,0.0244,0.00488,-0.06344,-0.01952,-0.0244
-0.0488,0.03416,-0.01952,0.00488,0.02928,-0.03904,0.03904,0.0244,0,-0.05856,-0.0244,-0.03416
-0.0488,0.02684,-0.00488,0.01952,0.04392,-0.04636,0.02928,0.01952,0,-0.05368,-0.02928,-0.03904
-0.05368,0.03172,-0.00976,0.01708,0.04392,-0.0488,0.02928,0.00976,-0.00976,-0.06832,-0.03416,-0.03416
-0.05368,0.0366,-0.01952,0.00732,0.03416,-0.04392,0.03904,0.01464,-0.0244,-0.0732,-0.03904,-0.03416
-0.03416,0.02928,-0.0244,-0.00732,0.00976,-0.02196,0.03416,0.01464,-0.0244,-0.0732,-0.03904,-0.03416
-0.0244,0.02684,-0.02928,-0.01708,-0.00488,-0.00976,0.04392,0.0244,-0.00976,-0.06344,-0.03416,-0.0244
-0.02928,0.02196,-0.01464,0,0.01464,-0.02196,0.0488,0.0244,-0.00488,-0.06344,-0.02928,-0.0244
-0.01952,0.01708,-0.01464,-0.00488,0.00488,-0.0122,0.04392,0.01464,-0.00488,-0.07808,-0.02928,-0.03416
-0.02928,0.02928,-0.02928,-0.01464,0,-0.01464,0.04392,0.03904,-0.00488,-0.06832,-0.01464,-0.0244
-0.0488,0.04148,-0.03416,-0.00976,0.01464,-0.03172,0.05368,0.03904,0,-0.07808,-0.0244,-0.03416
-0.04392,0.0366,-0.02928,-0.00732,0.01464,-0.02928,0.05856,0.04392,0.00488,-0.06832,-0.01952,-0.02928
-0.02928,0.03172,-0.03416,-0.01952,-0.00488,-0.0122,0.06344,0.04392,-0.00488,-0.05856,-0.01952,-0.02928
-0.03904,0.04392,-0.0488,-0.02928,-0.00976,-0.01464,0.06344,0.04392,-0.00488,-0.06344,-0.01952,-0.03416
-0.0244,0.02684,-0.02928,-0.01708,-0.00488,-0.00976,0.06344,0.0488,0.00488,-0.06832,-0.02928,-0.03904
-0.0244,0.01708,-0.00976,0.00244,0.01464,-0.01952,0.05368,0.05856,0.00488,-0.06344,-0.0244,-0.03416
-0.03416,0.0244,-0.01464,0.00244,0.01952,-0.02684,0.0488,0.06344,0.00976,-0.06832,-0.01952,-0.02928
-0.01952,0.0244,-0.02928,-0.01952,-0.00976,-0.00488,0.05368,0.07808,0.01464,-0.06344,-0.01464,-0.0244
-0.0244,0.02196,-0.01952,-0.00732,0.00488,-0.01464,0.03904,0.0732,0.01464,-0.06832,-0.01952,-0.03416
-0.0244,0.0244,-0.0244,-0.0122,0,-0.0122,0.04392,0.08296,0.00488,-0.0732,-0.0244,-0.03416
-0.0244,0.01708,-0.00976,0.00244,0.01464,-0.01952,0.0488,0.10248,0.01464,-0.06344,-0.01464,-0.02928
0.00488,-0.0122,0.01952,0.01708,0.01464,-0.00488,0.05856,0.11224,0.02928,-0.05368,-0.00488,-0.01952
-0.00976,0,0.00976,0.01464,0.01952,-0.01464,0.06832,0.12688,0.02928,-0.0488,-0.00976,-0.00976
-0.02928,0.0244,-0.01952,-0.00488,0.00976,-0.01952,0.0732,0.122,0.03904,-0.04392,-0.00488,-0.00976
-0.02928,0.03172,-0.03416,-0.01952,-0.00488,-0.0122,0.0732,0.122,0.02928,-0.05368,-0.00488,-0.01952
0.00488,0.00244,-0.00976,-0.0122,-0.01464,0.00976,0.06832,0.13664,0.03416,-0.05368,0,-0.01952
0.01464,-0.00488,-0.00488,-0.0122,-0.01952,0.01708,0.05368,0.13664,0.03904,-0.04392,0,-0.01952
-0.00488,-0.00732,0.01952,0.02196,0.0244,-0.01464,0.06832,0.15128,0.05368,-0.03904,0.00488,-0.01464
-0.00976,0,0.00976,0.01464,0.01952,-0.01464,0.06832,0.16104,0.0488,-0.0488,0.01464,-0.01464
0.00488,-0.0122,0.01952,0.01708,0.01464,-0.00488,0.06344,0.16104,0.0488,-0.0488,0.01464,-0.00976
0,-0.00732,0.01464,0.01464,0.01464,-0.00732,0.0732,0.17568,0.0488,-0.0488,0.00488,-0.00976
0.01464,-0.01708,0.01952,0.0122,0.00488,0.00488,0.08296,0.18544,0.05856,-0.03904,0.00976,0
0.01464,-0.0122,0.00976,0.00244,-0.00488,0.00976,0.0732,0.1952,0.05856,-0.0488,0.00976,-0.00976
0.0244,-0.02196,0.01952,0.00732,-0.00488,0.01464,0.06832,0.1952,0.05368,-0.04392,0.00976,-0.00488
0.03416,-0.0366,0.03904,0.02196,0.00488,0.01464,0.06344,0.18056,0.06344,-0.04392,0.01464,0.00976
0.01464,-0.0244,0.03416,0.02684,0.01952,-0.00244,0.06344,0.18056,0.06344,-0.02928,0.02928,0.01464
0.04392,-0.04148,0.03904,0.01708,-0.00488,0.0244,0.05856,0.18544,0.05368,-0.02928,0.03416,0.00976
0.03416,-0.0366,0.03904,0.02196,0.00488,0.01464,0.05368,0.18056,0.05368,-0.02928,0.0244,0.00976
0.0244,-0.03172,0.03904,0.02684,0.01464,0.00488,0.05368,0.18056,0.0488,-0.04392,0.01464,0
0.03904,-0.04148,0.04392,0.0244,0.00488,0.01708,0.05368,0.18544,0.04392,-0.04392,0.01464,0
0.04392,-0.0366,0.02928,0.00732,-0.01464,0.02928,0.03904,0.17568,0.0488,-0.0244,0.00976,0.01464
0.0488,-0.03904,0.02928,0.00488,-0.01952,0.03416,0.02928,0.1708,0.04392,-0.0244,0.00976,0.01464
0.04392,-0.04148,0.03904,0.01708,-0.00488,0.0244,0.03904,0.15616,0.0488,-0.02928,0.00976,0.00976
0.04392,-0.0488,0.05368,0.03172,0.00976,0.01708,0.0244,0.11712,0.0488,-0.03904,0.00976,0.00488
0.03904,-0.04636,0.05368,0.03416,0.01464,0.0122,0.01464,0.11224,0.0488,-0.02928,0.0244,0.00488
0.03416,-0.04392,0.05368,0.0366,0.01952,0.00732,0.00976,0.11224,0.0488,-0.02928,0.0244,0.00976
0.0244,-0.02928,0.03416,0.02196,0.00976,0.00732,-0.00488,0.0976,0.05368,-0.02928,0.01952,0.00976
0.0244,-0.02928,0.03416,0.02196,0.00976,0.00732,0.00488,0.08296,0.05368,-0.0244,0.0244,0.01464
0.03416,-0.0366,0.03904,0.02196,0.00488,0.01464,0.00488,0.05856,0.0488,-0.0244,0.03904,0.0244
0.0244,-0.02684,0.02928,0.01708,0.00488,0.00976,-0.00488,0.03904,0.03904,-0.0244,0.02928,0.01952
0.01952,-0.02196,0.0244,0.01464,0.00488,0.00732,0,0.03416,0.04392,-0.02928,0.0244,0.01464
0.00976,-0.02196,0.03416,0.02928,0.0244,-0.00732,0,0.0244,0.05368,-0.02928,0.0244,0.00976
0.00976,-0.01464,0.01952,0.01464,0.00976,0,-0.00976,0.02928,0.05368,-0.02928,0.0244,0.01464
0,0,0,0,0,0,-0.01952,0.01464,0.0488,-0.03416,0.01952,0.00488
0,-0.01464,0.02928,0.02928,0.02928,-0.01464,-0.01464,-0.00488,0.02928,-0.02928,0.00976,0.00488
0,-0.01464,0.02928,0.02928,0.02928,-0.01464,-0.01464,-0.00976,0.02928,-0.03416,0.00976,0
0.00488,-0.02196,0.03904,0.0366,0.03416,-0.01464,-0.01952,-0.00976,0.03416,-0.03416,0.01952,0
-0.00976,-0.01464,0.03904,0.04392,0.0488,-0.02928,-0.01952,-0.01464,0.03904,-0.02928,0.0244,0.00488
0,-0.00976,0.01952,0.01952,0.01952,-0.00976,-0.01952,-0.01952,0.03416,-0.02928,0.01952,0.00976
-0.00976,0.00976,-0.00976,-0.00488,0,-0.00488,-0.01952,-0.02928,0.03416,-0.02928,0.0244,0
-0.0244,0.01464,-0.00488,0.00732,0.01952,-0.02196,-0.0244,-0.02928,0.00488,-0.0488,0,0
-0.02928,0.01708,-0.00488,0.00976,0.0244,-0.02684,-0.01952,-0.03904,0.00488,-0.0488,0,-0.00488
-0.02928,0.01952,-0.00976,0.00488,0.01952,-0.0244,-0.01952,-0.03416,-0.00488,-0.06344,0,-0.01464
-0.01952,0.0122,-0.00488,0.00488,0.01464,-0.01708,-0.01464,-0.0244,0,-0.05856,0,-0.01464
-0.0244,0.0122,0,0.0122,0.0244,-0.0244,-0.01464,-0.02928,0,-0.0488,0.00488,-0.01952
-0.0244,0.00732,0.00976,0.02196,0.03416,-0.02928,-0.01952,-0.03904,0.00488,-0.0488,0.00976,-0.00976
-0.03904,0.02684,-0.01464,0.00488,0.0244,-0.03172,-0.00488,-0.03904,0.00488,-0.06344,0,-0.00976
-0.03416,0.0244,-0.01464,0.00244,0.01952,-0.02684,-0.00488,-0.03904,-0.01464,-0.0732,-0.01952,-0.0244
-0.0244,0.02196,-0.01952,-0.00732,0.00488,-0.01464,-0.00976,-0.0244,-0.00976,-0.0732,-0.01464,-0.02928
-0.01952,0.01708,-0.01464,-0.00488,0.00488,-0.0122,-0.00976,-0.0244,-0.00488,-0.06832,-0.01464,-0.0244
-0.03416,0.02196,-0.00976,0.00732,0.0244,-0.02928,-0.00488,-0.03416,0.00488,-0.06832,-0.01464,-0.01464
-0.03416,0.01952,-0.00488,0.0122,0.02928,-0.03172,-0.00976,-0.03904,0,-0.06832,-0.00976,-0.01952
-0.0244,0.01708,-0.00976,0.00244,0.01464,-0.01952,-0.01464,-0.01952,-0.00976,-0.05856,-0.00976,-0.0244
-0.03416,0.01952,-0.00488,0.0122,0.02928,-0.03172,-0.01952,-0.02928,-0.00488,-0.06832,-0.01464,-0.0244
-0.01952,0.01708,-0.01464,-0.00488,0.00488,-0.0122,-0.01464,-0.01464,0.00488,-0.05856,-0.01464,-0.01464
-0.01464,0.01952,-0.0244,-0.01708,-0.00976,-0.00244,-0.01464,-0.01952,0.00488,-0.06344,-0.00488,-0.01464
-0.00976,0.0122,-0.01464,-0.00976,-0.00488,-0.00244,-0.00488,-0.03416,0,-0.05368,0,-0.00488
-0.00976,0.01464,-0.01952,-0.01464,-0.00976,0,-0.00488,-0.03416,0,-0.0488,0.00488,-0.00488
-0.01464,0.00488,0.00488,0.0122,0.01952,-0.01708,0.00488,-0.0244,0.00976,-0.0488,0.01464,-0.00976
-0.02928,0.00976,0.00976,0.0244,0.03904,-0.03416,0.00488,-0.0244,0.01464,-0.0488,0.00976,-0.00976
-0.0244,0.00976,0.00488,0.01708,0.02928,-0.02684,-0.00976,-0.01952,0.01952,-0.0488,0.00976,-0.01952
-0.01952,0.01708,-0.01464,-0.00488,0.00488,-0.0122,-0.00976,-0.03416,0.00976,-0.05856,0,-0.01952
-0.02928,0.02196,-0.01464,0,0.01464,-0.02196,-0.00488,-0.01464,0.01952,-0.05368,0.00488,-0.00488
-0.02928,0.01708,-0.00488,0.00976,0.0244,-0.02684,-0.00488,-0.01464,0.01952,-0.04392,0.01464,-0.00488
-0.01952,0.00244,0.01464,0.0244,0.03416,-0.02684,-0.01464,-0.01952,0.00976,-0.03904,0.0244,-0.00488
-0.01464,-0.00244,0.01952,0.02684,0.03416,-0.0244,-0.01464,-0.0244,0.01952,-0.03904,0.02928,0
0,-0.01708,0.03416,0.03416,0.03416,-0.01708,-0.01464,-0.0244,0.01952,-0.03416,0.01464,-0.00976
-0.02928,0.00976,0.00976,0.0244,0.03904,-0.03416,-0.01952,-0.0244,0.0244,-0.04392,0.00976,-0.00976
-0.02928,0.00732,0.01464,0.02928,0.04392,-0.0366,-0.01464,-0.0244,0.01952,-0.04392,0.00488,0.00488
-0.03904,0.01464,0.00976,0.02928,0.0488,-0.04392,0,-0.01464,0.0244,-0.02928,0.0244,0.00976
-0.03904,0.01952,0,0.01952,0.03904,-0.03904,-0.00976,-0.01464,0.0244,-0.03416,0.0244,-0.00488
-0.02928,0.00732,0.01464,0.02928,0.04392,-0.0366,-0.01464,-0.0244,0.0244,-0.04392,0.00976,-0.01464
0,-0.00244,0.00488,0.00488,0.00488,-0.00244,-0.01464,-0.00976,0.01464,-0.04392,0.01952,-0.01464
-0.00488,0.00732,-0.00976,-0.00732,-0.00488,0,-0.01464,-0.01464,0.01464,-0.03904,0.01952,-0.00488
-0.01464,0.01708,-0.01952,-0.0122,-0.00488,-0.00488,0,-0.01952,0.0244,-0.03416,0.0244,0.01464
-0.01952,0.0122,-0.00488,0.00488,0.01464,-0.01708,-0.00488,-0.01952,0.03416,-0.02928,0.0244,0.01464
-0.00488,-0.00244,0.00976,0.0122,0.01464,-0.00976,-0.01464,-0.01952,0.0244,-0.01952,0.02928,0.00976
-0.01464,0.00244,0.00976,0.01708,0.0244,-0.01952,-0.01464,-0.01952,0.0244,-0.01952,0.02928,0.00976
-0.01464,0.00732,0,0.00732,0.01464,-0.01464,-0.00976,-0.0244,0.02928,-0.02928,0.01952,0
-0.0244,0.01708,-0.00976,0.00244,0.01464,-0.01952,-0.01464,-0.0244,0.0244,-0.02928,0.01952,0
-0.02928,0.01708,-0.00488,0.00976,0.0244,-0.02684,-0.01464,-0.0244,0.02928,-0.04392,0.00976,-0.00488
-0.00488,-0.00244,0.00976,0.0122,0.01464,-0.00976,-0.00976,-0.0244,0.0244,-0.03904,0.00976,0
-0.00976,0.00244,0.00488,0.00976,0.01464,-0.0122,0,-0.01464,0.0244,-0.03416,0.01464,0.00488
-0.00976,0.00732,-0.00488,0,0.00488,-0.00732,0,-0.01464,0.0244,-0.02928,0.0244,0.01464
-0.00976,0.00732,-0.00488,0,0.00488,-0.00732,-0.00488,-0.01952,0.01952,-0.02928,0.0244,0.00976
-0.00976,-0.00244,0.01464,0.01952,0.0244,-0.01708,-0.00976,-0.01464,0.01464,-0.02928,0.0244,0
-0.00488,-0.00732,0.01952,0.02196,0.0244,-0.01464,-0.00488,-0.02928,0.00488,-0.05368,0,-0.00976
-0.00488,-0.00976,0.0244,0.02684,0.02928,-0.01708,-0.00976,-0.03416,0.00488,-0.05368,-0.00488,-0.00976
-0.00488,-0.00732,0.01952,0.02196,0.0244,-0.01464,-0.01952,-0.0244,0.01464,-0.03904,-0.00488,0
0.00488,-0.01464,0.0244,0.02196,0.01952,-0.00732,-0.01464,-0.0244,0.01464,-0.04392,0.00488,0
-0.01952,0.00976,0,0.00976,0.01952,-0.01952,-0.00976,-0.01952,0.0244,-0.03416,0.00976,0
-0.01464,0.00976,-0.00488,0.00244,0.00976,-0.0122,-0.00976,-0.0244,0.01952,-0.03904,0.01952,0
-0.02928,0.0244,-0.01952,-0.00488,0.00976,-0.01952,-0.01464,-0.02928,0.00488,-0.0488,0.00976,-0.00488
-0.02928,0.02196,-0.01464,0,0.01464,-0.02196,-0.00976,-0.02928,0.01464,-0.04392,0.00976,-0.01464
-0.01464,0.01464,-0.01464,-0.00732,0,-0.00732,-0.01952,-0.0244,-0.00488,-0.0488,0.00976,-0.01952
-0.01464,0.00732,0,0.00732,0.01464,-0.01464,-0.01464,-0.0244,-0.00488,-0.0488,-0.00976,-0.01952
-0.01952,0.00732,0.00488,0.01464,0.0244,-0.02196,-0.00976,-0.04392,-0.01464,-0.05856,-0.00976,-0.01464
-0.01952,0.00488,0.00976,0.01952,0.02928,-0.0244,-0.00488,-0.04392,-0.01464,-0.05856,-0.00976,-0.0244
-0.0244,0.01952,-0.01464,-0.00244,0.00976,-0.01708,-0.00488,-0.02928,-0.00976,-0.05368,0,-0.00976
-0.03904,0.01952,0,0.01952,0.03904,-0.03904,-0.00488,-0.02928,-0.00976,-0.05368,0,-0.01464
-0.02928,0.00488,0.01952,0.03416,0.0488,-0.03904,-0.00976,-0.03904,0,-0.06344,-0.00488,-0.01952
-0.0244,0.00732,0.00976,0.02196,0.03416,-0.02928,-0.00976,-0.02928,0,-0.05368,-0.00976,-0.01952
-0.02928,0.0244,-0.01952,-0.00488,0.00976,-0.01952,-0.00488,-0.01464,0.00488,-0.03904,0.00488,-0.01464
-0.02928,0.02196,-0.01464,0,0.01464,-0.02196,-0.00976,-0.01952,0.00488,-0.04392,0.00488,-0.01464
-0.00976,0.01464,-0.01952,-0.01464,-0.00976,0,-0.00488,-0.0244,0.00488,-0.05368,0,-0.01464
-0.02928,0.02928,-0.02928,-0.01464,0,-0.01464,-0.00488,-0.03416,0,-0.05368,-0.00488,-0.01952
-0.03416,0.02928,-0.0244,-0.00732,0.00976,-0.02196,0,-0.02928,-0.00976,-0.05368,0,-0.00976
-0.0488,0.03172,-0.01464,0.00976,0.03416,-0.04148,0,-0.02928,-0.01464,-0.04392,0,-0.01464
-0.02928,0.02196,-0.01464,0,0.01464,-0.02196,0.00488,-0.02928,-0.00488,-0.0488,-0.00976,-0.01952
-0.02928,0.02196,-0.01464,0,0.01464,-0.02196,0,-0.03416,-0.00488,-0.0488,-0.00976,-0.01952
-0.0244,0.01464,-0.00488,0.00732,0.01952,-0.02196,-0.00976,-0.02928,-0.00976,-0.0488,0,-0.00976
-0.0244,0.00976,0.00488,0.01708,0.02928,-0.02684,-0.00488,-0.02928,-0.01464,-0.04392,0,-0.00976
-0.01952,0.00976,0,0.00976,0.01952,-0.01952,-0.00976,-0.02928,-0.01464,-0.05856,-0.00976,-0.01952
-0.00488,-0.00244,0.00976,0.0122,0.01464,-0.00976,-0.02928,-0.03416,-0.01464,-0.06344,-0.00976,-0.0244
-0.01464,-0.00244,0.01952,0.02684,0.03416,-0.0244,-0.0244,-0.0244,-0.00976,-0.05368,0,-0.01464
-0.0244,0,0.0244,0.0366,0.0488,-0.0366,-0.01464,-0.0244,-0.00488,-0.04392,0,-0.00976
-0.03416,0.0244,-0.01464,0.00244,0.01952,-0.02684,-0.00488,-0.02928,-0.01952,-0.05856,-0.00976,-0.0244
-0.04392,0.02684,-0.00976,0.0122,0.03416,-0.03904,-0.00488,-0.03904,-0.01952,-0.05856,-0.00976,-0.0244
-0.03416,0.03172,-0.02928,-0.0122,0.00488,-0.01952,-0.00976,-0.04392,-0.00976,-0.0488,0,-0.01464
-0.03416,0.01952,-0.00488,0.0122,0.02928,-0.03172,-0.0244,-0.04392,-0.00976,-0.05368,0,-0.00976
-0.01464,0.00244,0.00976,0.01708,0.0244,-0.01952,-0.02928,-0.03416,-0.00488,-0.05856,-0.01952,-0.01952
-0.01464,0.0122,-0.00976,-0.00244,0.00488,-0.00976,-0.00488,-0.03416,0,-0.06344,-0.01464,-0.0244
-0.03904,0.03172,-0.0244,-0.00488,0.01464,-0.02684,0.00488,-0.03416,-0.00488,-0.0488,-0.00488,-0.01952
-0.03904,0.05124,-0.06344,-0.04392,-0.0244,-0.00732,0.00488,-0.03416,0.01464,-0.0244,0.0244,0
-0.03904,0.0366,-0.03416,-0.01464,0.00488,-0.02196,0,-0.02928,-0.00488,-0.03416,0.00488,-0.00488
-0.03904,0.03172,-0.0244,-0.00488,0.01464,-0.02684,0,-0.02928,-0.01464,-0.04392,-0.00488,-0.01464
-0.0244,0.02196,-0.01952,-0.00732,0.00488,-0.01464,-0.00976,-0.02928,-0.01952,-0.05368,-0.01952,-0.01952
-0.00976,0.00732,-0.00488,0,0.00488,-0.00732,-0.01464,-0.02928,-0.00976,-0.0488,-0.01464,-0.01952
-0.01952,0.00976,0,0.00976,0.01952,-0.01952,-0.01464,-0.03416,0,-0.03904,-0.00976,-0.00976
-0.01464,0.0122,-0.00976,-0.00244,0.00488,-0.00976,-0.0244,-0.04392,0,-0.03904,0,-0.00976
-0.01952,0.0122,-0.00488,0.00488,0.01464,-0.01708,-0.00976,-0.03904,-0.00488,-0.0488,0.00488,-0.00488
-0.01952,0.00976,0,0.00976,0.01952,-0.01952,-0.00976,-0.0244,0.00488,-0.03904,0.00976,0
0.00488,-0.01708,0.02928,0.02684,0.0244,-0.00976,0,-0.0244,0.00488,-0.03416,0,-0.00488
0.01464,-0.02928,0.04392,0.0366,0.02928,-0.00732,0.01464,-0.01464,0.0244,-0.01952,0.01464,0.00488
0.0244,-0.04636,0.06832,0.05612,0.04392,-0.00976,0.00976,-0.00488,0.03416,-0.00976,0.02928,0.01952
0.00976,-0.03416,0.05856,0.05368,0.0488,-0.01952,0.01464,-0.00488,0.04392,0,0.03904,0.0244
0.00976,-0.03904,0.06832,0.06344,0.05856,-0.0244,0.00976,0,0.0488,0.00488,0.04392,0.03416
0.00976,-0.04148,0.0732,0.06832,0.06344,-0.02684,0.0244,0.00488,0.05368,-0.00488,0.03904,0.0244
0.0244,-0.03172,0.03904,0.02684,0.01464,0.00488,0.04392,0.01464,0.05856,0.00488,0.0488,0.02928
0.0244,-0.03172,0.03904,0.02684,0.01464,0.00488,0.04392,0.01952,0.06344,0.00488,0.0488,0.0244
0.02928,-0.03416,0.03904,0.0244,0.00976,0.00976,0.03416,0.03416,0.0488,-0.00488,0.04392,0.01952
0.04392,-0.0366,0.02928,0.00732,-0.01464,0.02928,0.00976,0.03416,0.0488,0.00488,0.04392,0.0244
0.04392,-0.03172,0.01952,-0.00244,-0.0244,0.03416,-0.0244,0.01952,0.02928,-0.01464,0.01464,0.00488
0.02928,-0.00732,-0.01464,-0.02928,-0.04392,0.0366,-0.02928,0,-0.00488,-0.03416,0,-0.00488
0.0244,0.00488,-0.03416,-0.04636,-0.05856,0.04148,-0.03416,-0.01952,-0.01464,-0.04392,-0.00976,0
0.02928,-0.00244,-0.0244,-0.03904,-0.05368,0.04148,-0.03416,-0.0244,-0.01952,-0.03904,-0.00488,-0.00488
0.03904,-0.00244,-0.03416,-0.05368,-0.0732,0.05612,-0.03904,-0.03416,-0.01952,-0.0488,-0.01952,-0.01464
0.0488,-0.01464,-0.01952,-0.04392,-0.06832,0.05856,-0.04392,-0.03904,-0.03904,-0.05856,-0.02928,-0.02928
0.01952,0.00732,-0.03416,-0.04392,-0.05368,0.0366,-0.04392,-0.0488,-0.03416,-0.05856,-0.02928,-0.02928
0.00976,0.01708,-0.04392,-0.0488,-0.05368,0.03172,-0.02928,-0.03904,-0.03904,-0.0488,-0.01464,-0.01952
0.00488,0.02196,-0.0488,-0.05124,-0.05368,0.02928,-0.01464,-0.03904,-0.0244,-0.05368,-0.01952,-0.01952
-0.03904,0.04392,-0.0488,-0.02928,-0.00976,-0.01464,-0.01464,-0.04392,-0.0244,-0.05856,-0.0244,-0.02928
-0.03416,0.02928,-0.0244,-0.00732,0.00976,-0.02196,-0.00976,-0.05856,-0.02928,-0.06832,-0.03904,-0.03416
-0.02928,0.02196,-0.01464,0,0.01464,-0.02196,-0.01952,-0.05368,-0.03416,-0.06832,-0.0488,-0.03416
-0.04392,0.04392,-0.04392,-0.02196,0,-0.02196,-0.01952,-0.05368,-0.03904,-0.0732,-0.04392,-0.04392
-0.05368,0.05612,-0.05856,-0.03172,-0.00488,-0.0244,-0.01464,-0.05368,-0.04392,-0.07808,-0.03904,-0.03904
-0.04392,0.05124,-0.05856,-0.0366,-0.01464,-0.01464,-0.00488,-0.0488,-0.03904,-0.0732,-0.03904,-0.03904
-0.04392,0.04636,-0.0488,-0.02684,-0.00488,-0.01952,-0.00488,-0.0488,-0.03416,-0.06344,-0.02928,-0.03416
-0.04392,0.04636,-0.0488,-0.02684,-0.00488,-0.01952,0,-0.05856,-0.03904,-0.06344,-0.03416,-0.03904
-0.03416,0.02928,-0.0244,-0.00732,0.00976,-0.02196,-0.01464,-0.05856,-0.03904,-0.06344,-0.03416,-0.03416
-0.04392,0.03904,-0.03416,-0.0122,0.00976,-0.02684,-0.00976,-0.03904,-0.03904,-0.05856,-0.01952,-0.03416
-0.0488,0.04148,-0.03416,-0.00976,0.01464,-0.03172,-0.00488,-0.03904,-0.03904,-0.05856,-0.0244,-0.03904
-0.05368,0.03904,-0.0244,0.00244,0.02928,-0.04148,-0.0244,-0.05368,-0.03904,-0.06832,-0.03904,-0.03904
-0.02928,0.04148,-0.05368,-0.03904,-0.0244,-0.00244,0.01952,-0.00488,0,-0.03416,0.01464,-0.00488
-0.07808,0.07808,-0.07808,-0.03904,0,-0.03904,0.03416,0.03416,0.0244,-0.05368,0.00976,-0.02928
-0.0488,0.01952,0.00976,0.03416,0.05856,-0.05368,0.11712,0.13176,0.16104,0.0244,0.11224,0.00976
-0.0244,-0.01464,0.05368,0.06588,0.07808,-0.05124,0.12688,0.16592,0.25864,0.09272,0.18056,0.05856
0.0244,-0.06832,0.11224,0.10004,0.08784,-0.03172,0.122,0.2196,0.38552,0.22936,0.30744,0.16592
0.1464,-0.12932,0.11224,0.03904,-0.03416,0.09028,0.13664,0.32696,0.5612,0.40504,0.47824,0.32696
0.3172,-0.26352,0.20984,0.05124,-0.10736,0.21228,0.11712,0.39528,0.67344,0.54168,0.61488,0.43432
0.44408,-0.36844,0.2928,0.07076,-0.15128,0.29768,0.12688,0.48312,0.80032,0.71736,0.76616,0.58072
0.59048,-0.49288,0.39528,0.10004,-0.1952,0.39284,-0.15128,0.3416,0.68808,0.75152,0.7564,0.64416
0.73688,-0.57096,0.40504,0.0366,-0.33184,0.53436,-0.44896,0.16592,0.45384,0.69296,0.61488,0.6344
0.62952,-0.46116,0.2928,-0.02196,-0.33672,0.48312,-0.5856,-0.0488,0.10248,0.40504,0.27328,0.4392
0.36112,-0.244,0.12688,-0.05368,-0.23424,0.29768,-0.65392,-0.47824,-0.44408,-0.08296,-0.24888,0.0976
0.16104,-0.10004,0.03904,-0.04148,-0.122,0.14152,-0.69296,-0.84424,-0.72224,-0.26352,-0.4636,-0.03416
0.01464,-0.0122,0.00976,0.00244,-0.00488,0.00976,-0.62952,-0.86864,-0.7564,-0.30744,-0.46848,-0.0976
-0.03416,0.0488,-0.06344,-0.04636,-0.02928,-0.00244,-0.51728,-0.71248,-0.70272,-0.30256,-0.44896,-0.122
-0.0488,0.05612,-0.06344,-0.03904,-0.01464,-0.01708,-0.40016,-0.57584,-0.57584,-0.28304,-0.38552,-0.11224
-0.05856,0.01464,0.02928,0.05856,0.08784,-0.0732,-0.29768,-0.45872,-0.40504,-0.23912,-0.2928,-0.10736
-0.0732,0.04148,-0.00976,0.02684,0.06344,-0.06832,-0.18056,-0.27816,-0.23424,-0.16104,-0.17568,-0.06344
-0.0732,0.03904,-0.00488,0.03172,0.06832,-0.07076,-0.12688,-0.20008,-0.19032,-0.11224,-0.11712,-0.06344
-0.0488,0.01952,0.00976,0.03416,0.05856,-0.05368,-0.09272,-0.18056,-0.1708,-0.12688,-0.12688,-0.05856
-0.05368,0.04392,-0.03416,-0.00732,0.01952,-0.0366,-0.00488,-0.0976,-0.10736,-0.11712,-0.0976,-0.05856
-0.05368,0.0488,-0.04392,-0.01708,0.00976,-0.03172,0.01464,-0.03416,-0.05368,-0.08784,-0.06344,-0.06832
-0.0732,0.05856,-0.04392,-0.00732,0.02928,-0.05124,0.00976,-0.0488,-0.0488,-0.07808,-0.0488,-0.05368
-0.06344,0.04636,-0.02928,0.00244,0.03416,-0.0488,0.00976,-0.05368,-0.05368,-0.0732,-0.03904,-0.04392
-0.05368,0.03904,-0.0244,0.00244,0.02928,-0.04148,0.02928,-0.04392,-0.05856,-0.07808,-0.04392,-0.04392
-0.0488,0.03172,-0.01464,0.00976,0.03416,-0.04148,0.03416,-0.01952,-0.0488,-0.08296,-0.04392,-0.05368
-0.05856,0.04392,-0.02928,0,0.02928,-0.04392,0.0244,-0.01952,-0.04392,-0.07808,-0.04392,-0.0488
-0.05368,0.04392,-0.03416,-0.00732,0.01952,-0.0366,0.01952,-0.01952,-0.05368,-0.07808,-0.0488,-0.04392
-0.05368,0.04636,-0.03904,-0.0122,0.01464,-0.03416,0.02928,-0.01464,-0.0488,-0.07808,-0.04392,-0.03904
-0.06344,0.06344,-0.06344,-0.03172,0,-0.03172,0.02928,0,-0.0488,-0.08296,-0.05368,-0.03904
-0.05856,0.04392,-0.02928,0,0.02928,-0.04392,0.02928,-0.01464,-0.04392,-0.08296,-0.04392,-0.04392
-0.07808,0.06344,-0.0488,-0.00976,0.02928,-0.05368,0.0244,-0.02928,-0.0488,-0.06344,-0.03416,-0.03904
-0.07808,0.06832,-0.05856,-0.01952,0.01952,-0.0488,0.02928,-0.01952,-0.03904,-0.06344,-0.03904,-0.03904
-0.08296,0.0732,-0.06344,-0.02196,0.01952,-0.05124,0.05368,0,-0.01952,-0.06344,-0.03904,-0.02928
-0.06344,0.061,-0.05856,-0.02684,0.00488,-0.03416,0.05856,0.00488,-0.01952,-0.06344,-0.03904,-0.02928
-0.05856,0.0488,-0.03904,-0.00976,0.01952,-0.03904,0.05368,-0.01952,-0.03416,-0.06344,-0.0244,-0.02928
-0.06344,0.0488,-0.03416,-0.00244,0.02928,-0.04636,0.04392,-0.0244,-0.03904,-0.06344,-0.0244,-0.02928
-0.05368,0.04148,-0.02928,-0.00244,0.0244,-0.03904,0.05368,-0.00976,-0.03416,-0.0732,-0.02928,-0.03904
-0.05368,0.04392,-0.03416,-0.00732,0.01952,-0.0366,0.0488,-0.00488,-0.02928,-0.0732,-0.03904,-0.03904
-0.05368,0.04148,-0.02928,-0.00244,0.0244,-0.03904,0.04392,0,-0.0244,-0.0732,-0.03416,-0.03904
-0.06344,0.04148,-0.01952,0.0122,0.04392,-0.05368,0.03416,0.00488,-0.0244,-0.06832,-0.02928,-0.03904
-0.06344,0.05368,-0.04392,-0.0122,0.01952,-0.04148,0.04392,0.01464,-0.0244,-0.05856,-0.02928,-0.02928
-0.06344,0.05124,-0.03904,-0.00732,0.0244,-0.04392,0.05368,0.01464,-0.0244,-0.05856,-0.03416,-0.03416
-0.0488,0.04636,-0.04392,-0.01952,0.00488,-0.02684,0.0488,0.01464,-0.0244,-0.06832,-0.03904,-0.03904
-0.04392,0.04392,-0.04392,-0.02196,0,-0.02196,0.04392,0.00488,-0.03416,-0.06832,-0.04392,-0.03904
-0.04392,0.04636,-0.0488,-0.02684,-0.00488,-0.01952,0.03416,0.01464,-0.0244,-0.06832,-0.04392,-0.03416
-0.0488,0.04636,-0.04392,-0.01952,0.00488,-0.02684,0.03904,0.01464,-0.02928,-0.0732,-0.03904,-0.04392
-0.05368,0.04148,-0.02928,-0.00244,0.0244,-0.03904,0.0488,0.00488,-0.03416,-0.05856,-0.02928,-0.0488
-0.0488,0.0366,-0.0244,0,0.0244,-0.0366,0.0488,0.00488,-0.03416,-0.06344,-0.03416,-0.04392
-0.05856,0.04148,-0.0244,0.00488,0.03416,-0.04636,0.03904,-0.00488,-0.03416,-0.06344,-0.01952,-0.03416
-0.0488,0.03416,-0.01952,0.00488,0.02928,-0.03904,0.03416,-0.00488,-0.03416,-0.06344,-0.01952,-0.03416
-0.04392,0.0366,-0.02928,-0.00732,0.01464,-0.02928,0.05368,0.01952,-0.02928,-0.05368,-0.01952,-0.0244
-0.0488,0.03172,-0.01464,0.00976,0.03416,-0.04148,0.05856,0.02928,-0.0244,-0.05368,-0.0244,-0.0244
-0.0488,0.0366,-0.0244,0,0.0244,-0.0366,0.0488,0.01464,-0.02928,-0.06832,-0.02928,-0.03416
-0.05856,0.05856,-0.05856,-0.02928,0,-0.02928,0.05856,0.03904,-0.01952,-0.05856,-0.01464,-0.0244
-0.06344,0.061,-0.05856,-0.02684,0.00488,-0.03416,0.0488,0.02928,-0.02928,-0.06832,-0.01952,-0.02928
-0.0488,0.04636,-0.04392,-0.01952,0.00488,-0.02684,0.04392,0.03416,-0.0244,-0.05856,-0.0244,-0.03416
-0.0488,0.03904,-0.02928,-0.00488,0.01952,-0.03416,0.03904,0.0244,-0.01952,-0.05856,-0.01952,-0.02928
-0.05856,0.04636,-0.03416,-0.00488,0.0244,-0.04148,0.0488,0.0244,-0.00976,-0.06344,-0.01952,-0.03416
-0.0488,0.03904,-0.02928,-0.00488,0.01952,-0.03416,0.06344,0.02928,-0.01464,-0.05856,-0.02928,-0.03904
-0.03904,0.03416,-0.02928,-0.00976,0.00976,-0.0244,0.0732,0.03904,-0.01464,-0.05368,-0.0244,-0.03416
-0.03904,0.0366,-0.03416,-0.01464,0.00488,-0.02196,0.06344,0.05368,-0.00976,-0.0488,-0.01952,-0.02928
-0.01464,0.02196,-0.02928,-0.02196,-0.01464,0,0.05856,0.06832,-0.00488,-0.04392,-0.01464,-0.0244
-0.0244,0.01708,-0.00976,0.00244,0.01464,-0.01952,0.05856,0.0732,0,-0.04392,-0.01464,-0.0244
-0.0244,0.01952,-0.01464,-0.00244,0.00976,-0.01708,0.06344,0.08296,0,-0.03904,-0.00976,-0.0244
-0.03416,0.02684,-0.01952,-0.00244,0.01464,-0.0244,0.0732,0.08784,0,-0.03904,-0.00976,-0.0244
-0.0244,0.01708,-0.00976,0.00244,0.01464,-0.01952,0.0732,0.08784,0.00488,-0.03904,-0.00976,-0.0244
-0.01464,0.01952,-0.0244,-0.01708,-0.00976,-0.00244,0.06832,0.10248,0.00976,-0.03904,-0.00976,-0.01952
-0.00488,0.01464,-0.0244,-0.02196,-0.01952,0.00732,0.0732,0.10736,0.01952,-0.03416,-0.00488,-0.01952
-0.01952,0.02928,-0.03904,-0.02928,-0.01952,0,0.08296,0.10248,0.00976,-0.04392,-0.00488,-0.01952
-0.0244,0.0244,-0.0244,-0.0122,0,-0.0122,0.07808,0.11712,0.01464,-0.04392,0,-0.01952
-0.0244,0.02684,-0.02928,-0.01708,-0.00488,-0.00976,0.06344,0.11712,0.01952,-0.03416,0,-0.01952
-0.0244,0.00976,0.00488,0.01708,0.02928,-0.02684,0.07808,0.13176,0.03416,-0.02928,0.00488,-0.01464
-0.00976,0.00732,-0.00488,0,0.00488,-0.00732,0.07808,0.15128,0.02928,-0.01952,0.01464,-0.00488
0.00488,-0.00976,0.01464,0.0122,0.00976,-0.00244,0.0732,0.15128,0.02928,-0.01952,0.01464,0
-0.00976,0,0.00976,0.01464,0.01952,-0.01464,0.06344,0.16592,0.02928,-0.02928,0.00488,-0.00976
0.00488,-0.00488,0.00488,0.00244,0,0.00244,0.0732,0.17568,0.03904,-0.01952,0.00976,0
0.01464,-0.00732,0,-0.00732,-0.01464,0.01464,0.0732,0.1708,0.02928,-0.02928,0.00976,0
0.0244,-0.01708,0.00976,-0.00244,-0.01464,0.01952,0.06832,0.16104,0.0244,-0.0244,0.00976,0.00488
0.01952,-0.01952,0.01952,0.00976,0,0.00976,0.05368,0.16104,0.03416,-0.02928,0,0
-0.00976,-0.00244,0.01464,0.01952,0.0244,-0.01708,0.05368,0.16104,0.03416,-0.0244,0.00488,0.00488
0.01952,-0.01464,0.00976,0,-0.00976,0.01464,0.05368,0.15616,0.03416,-0.01952,0.00488,0.00976
0.01952,-0.01464,0.00976,0,-0.00976,0.01464,0.05856,0.15128,0.03416,-0.01952,-0.00488,0.00976
0.0244,-0.02684,0.02928,0.01708,0.00488,0.00976,0.05368,0.15616,0.02928,-0.01464,-0.00488,0
0.03904,-0.04636,0.05368,0.03416,0.01464,0.0122,0.05368,0.15128,0.0244,-0.01464,0.01464,0
0.03904,-0.04636,0.05368,0.03416,0.01464,0.0122,0.0488,0.14152,0.01952,-0.00976,0.00488,-0.00488
0.03416,-0.03904,0.04392,0.02684,0.00976,0.0122,0.03904,0.12688,0.01464,-0.01952,-0.00488,-0.00488
0.01952,-0.0244,0.02928,0.01952,0.00976,0.00488,0.0488,0.12688,0.01952,-0.00976,0,0
0.00976,-0.00732,0.00488,0,-0.00488,0.00732,0.03416,0.10736,0.01952,-0.01952,0,-0.00488
0.0244,-0.00976,-0.00488,-0.01708,-0.02928,0.02684,0.0244,0.10736,0.00976,-0.01952,0.00488,0.00488
0.02928,-0.02196,0.01464,0,-0.01464,0.02196,0.01952,0.0976,0.00976,-0.01952,0.00488,0.00976
0.03416,-0.0244,0.01464,-0.00244,-0.01952,0.02684,0.0244,0.08784,0.0244,-0.00976,0.00976,0.00976
0.03416,-0.03416,0.03416,0.01708,0,0.01708,0.03416,0.0732,0.0244,-0.00488,0.01464,0.01464
0.02928,-0.03416,0.03904,0.0244,0.00976,0.00976,0.01464,0.05856,0.02928,-0.00488,0.01952,0.01464
0.00976,-0.01952,0.02928,0.0244,0.01952,-0.00488,0.00488,0.03904,0.01952,-0.00488,0.00976,0.00976
0,-0.00732,0.01464,0.01464,0.01464,-0.00732,0.00976,0.04392,0.0244,0,0.0244,0.0244
-0.00976,-0.00732,0.0244,0.02928,0.03416,-0.02196,0.00976,0.03416,0.03416,0,0.0244,0.01952
0.01464,-0.01952,0.0244,0.01708,0.00976,0.00244,-0.00488,0.0244,0.03416,0,0.0244,0.01464
0.01464,-0.0244,0.03416,0.02684,0.01952,-0.00244,-0.00488,0,0.02928,-0.00488,0.01952,0.00488
0,-0.0244,0.0488,0.0488,0.0488,-0.0244,0.00488,-0.00976,0.01952,-0.00976,0.00976,0.00488
-0.01952,0.00488,0.00976,0.01952,0.02928,-0.0244,0.00488,-0.00488,0.01952,-0.01464,0.00976,0
-0.00488,0.00244,0,0.00244,0.00488,-0.00488,0,-0.01952,0.00976,-0.01952,0.01464,-0.01464
-0.01952,0.00976,0,0.00976,0.01952,-0.01952,0,-0.0244,0.00488,-0.0244,0.00976,-0.01952
-0.01952,0.0122,-0.00488,0.00488,0.01464,-0.01708,0.00488,-0.00976,0.00488,-0.0244,0.00976,-0.00488
-0.02928,0.01708,-0.00488,0.00976,0.0244,-0.02684,0.01464,-0.01952,0.00488,-0.01464,0.01464,-0.00488
-0.01952,-0.00244,0.0244,0.03416,0.04392,-0.03172,0.00976,-0.01952,-0.00488,-0.02928,0,-0.01952
-0.01464,-0.00488,0.0244,0.03172,0.03904,-0.02684,0.00488,-0.02928,-0.00488,-0.02928,0,-0.0244
-0.01952,0.00732,0.00488,0.01464,0.0244,-0.02196,0.00976,-0.0244,-0.00488,-0.03416,-0.00976,-0.0244
-0.02928,0.0244,-0.01952,-0.00488,0.00976,-0.01952,0.01464,-0.01464,0,-0.02928,-0.00976,-0.0244
-0.04392,0.04148,-0.03904,-0.01708,0.00488,-0.0244,0.0244,-0.01952,-0.01464,-0.0244,-0.00976,-0.0244
-0.04392,0.0366,-0.02928,-0.00732,0.01464,-0.02928,0.01952,-0.02928,-0.01952,-0.03416,-0.01464,-0.0244
-0.0488,0.03904,-0.02928,-0.00488,0.01952,-0.03416,0.01952,-0.01952,-0.00976,-0.03904,-0.01464,-0.0244
-0.04392,0.03172,-0.01952,0.00244,0.0244,-0.03416,0.00976,-0.01952,-0.01952,-0.03904,-0.0244,-0.02928
-0.03904,0.0244,-0.00976,0.00976,0.02928,-0.03416,0,-0.01952,-0.01952,-0.03904,-0.03416,-0.03904
-0.0244,0.01464,-0.00488,0.00732,0.01952,-0.02196,0,-0.02928,-0.01464,-0.04392,-0.03416,-0.03416
-0.02928,0.02684,-0.0244,-0.00976,0.00488,-0.01708,0.01464,-0.04392,-0.0244,-0.05368,-0.02928,-0.03416
-0.03904,0.03416,-0.02928,-0.00976,0.00976,-0.0244,0.00976,-0.0488,-0.02928,-0.06344,-0.03416,-0.03904
-0.04392,0.03416,-0.0244,-0.00244,0.01952,-0.03172,0.0244,-0.02928,-0.01952,-0.0488,-0.0244,-0.03416
-0.05368,0.03172,-0.00976,0.01708,0.04392,-0.0488,0.01952,-0.03904,-0.01464,-0.03904,-0.01952,-0.03416
-0.04392,0.02684,-0.00976,0.0122,0.03416,-0.03904,0.01952,-0.0244,-0.01464,-0.03416,-0.01952,-0.03416
-0.02928,0.01952,-0.00976,0.00488,0.01952,-0.0244,0.00976,-0.02928,-0.01464,-0.0488,-0.01952,-0.03416
-0.0244,0.00732,0.00976,0.02196,0.03416,-0.02928,0.00976,-0.0244,-0.00976,-0.04392,-0.01952,-0.03416
-0.03416,0.01952,-0.00488,0.0122,0.02928,-0.03172,0.01952,-0.0244,-0.00976,-0.03904,-0.01464,-0.03416
-0.0488,0.02684,-0.00488,0.01952,0.04392,-0.04636,0.03416,-0.01464,-0.00488,-0.02928,-0.00488,-0.02928
-0.05368,0.0366,-0.01952,0.00732,0.03416,-0.04392,0.03416,-0.01464,-0.00976,-0.02928,-0.00976,-0.02928
-0.0488,0.0366,-0.0244,0,0.0244,-0.0366,0.0244,-0.00976,-0.00488,-0.0244,-0.00488,-0.01952
-0.03416,0.02928,-0.0244,-0.00732,0.00976,-0.02196,0.01464,-0.0244,-0.00488,-0.0244,-0.00488,-0.01952
-0.02928,0.01708,-0.00488,0.00976,0.0244,-0.02684,0.01464,-0.01464,0,-0.01952,0,-0.01464
-0.02928,0.0122,0.00488,0.01952,0.03416,-0.03172,0.01464,-0.01464,0,-0.01952,0,-0.01464
-0.03904,0.01952,0,0.01952,0.03904,-0.03904,0.0244,-0.0244,0,-0.02928,-0.00488,-0.0244
-0.03416,0.01952,-0.00488,0.0122,0.02928,-0.03172,0.0244,-0.01952,0.00976,-0.02928,0,-0.01952
-0.00976,0.00732,-0.00488,0,0.00488,-0.00732,0.01464,-0.01464,0,-0.01952,0.00976,-0.00976
-0.03904,0.03416,-0.02928,-0.00976,0.00976,-0.0244,0.00976,-0.01464,0.00488,-0.01952,0.01464,-0.00976
-0.0244,0.01952,-0.01464,-0.00244,0.00976,-0.01708,0.00488,-0.01464,0,-0.01952,0,-0.01464
-0.0244,0.0122,0,0.0122,0.0244,-0.0244,0,-0.00488,0.00488,-0.01464,0.00976,-0.00976
-0.0244,0.01708,-0.00976,0.00244,0.01464,-0.01952,-0.00488,-0.00488,0.00488,-0.00976,0.00976,-0.00976
-0.0244,0.00976,0.00488,0.01708,0.02928,-0.02684,0,-0.01464,0.00488,-0.00976,0.00488,-0.00976
0,-0.00488,0.00976,0.00976,0.00976,-0.00488,0.00488,-0.00976,0.00488,0,0.00976,0
-0.00488,0,0.00488,0.00732,0.00976,-0.00732,0.00488,-0.01464,0.00488,-0.00488,0.00976,0
-0.01464,0.00488,0.00488,0.0122,0.01952,-0.01708,0,-0.00976,0.01952,-0.01464,0.00488,-0.00488
-0.01952,0.00488,0.00976,0.01952,0.02928,-0.0244,-0.00488,-0.00976,0.01952,-0.00976,0.00488,-0.00488
-0.00976,0.00488,0,0.00488,0.00976,-0.00976,-0.01464,-0.00976,0.00488,0,0.00488,0
-0.02928,0.01464,0,0.01464,0.02928,-0.02928,-0.01464,-0.00976,0.00488,0,0.01464,0
-0.00976,0,0.00976,0.01464,0.01952,-0.01464,-0.00488,-0.00488,0.01952,-0.00976,0.00976,-0.00976
-0.00976,-0.00488,0.01952,0.0244,0.02928,-0.01952,0,-0.00488,0.01464,-0.00976,0.00976,-0.00976
-0.03416,0.01464,0.00488,0.02196,0.03904,-0.0366,0.00488,-0.01464,0.00976,-0.01464,0.00976,-0.00488
-0.01952,0.00976,0,0.00976,0.01952,-0.01952,0.00976,-0.01464,0.00488,-0.00976,0.00976,0
-0.02928,0.00976,0.00976,0.0244,0.03904,-0.03416,-0.00488,-0.0244,-0.00488,-0.00976,0,-0.00976
-0.02928,0.00976,0.00976,0.0244,0.03904,-0.03416,-0.01464,-0.0244,-0.00488,-0.01464,0,-0.00976
-0.01952,0.0122,-0.00488,0.00488,0.01464,-0.01708,-0.01464,-0.00976,0.00488,-0.01464,0,-0.00488
-0.01952,0.0122,-0.00488,0.00488,0.01464,-0.01708,0,-0.00488,0.00976,-0.00488,0.00976,-0.00488
-0.01464,0.00976,-0.00488,0.00244,0.00976,-0.0122,0,-0.01464,-0.00488,-0.01952,-0.01464,-0.01952
-0.01464,0.00244,0.00976,0.01708,0.0244,-0.01952,-0.01464,-0.02928,-0.00488,-0.02928,-0.00976,-0.01952
-0.0244,0.0122,0,0.0122,0.0244,-0.0244,-0.00976,-0.0244,0.00488,-0.0244,0,-0.00976
-0.01464,0.00488,0.00488,0.0122,0.01952,-0.01708,-0.00488,-0.0244,0.00488,-0.01952,0,-0.00976
-0.02928,0.02684,-0.0244,-0.00976,0.00488,-0.01708,0,-0.02928,-0.00488,-0.01952,-0.01464,-0.01952
-0.0244,0.02196,-0.01952,-0.00732,0.00488,-0.01464,0,-0.03416,-0.00976,-0.03416,-0.01464,-0.01952
-0.03904,0.03172,-0.0244,-0.00488,0.01464,-0.02684,-0.01464,-0.02928,-0.01464,-0.03904,-0.01952,-0.01952
-0.03904,0.0244,-0.00976,0.00976,0.02928,-0.03416,-0.00976,-0.02928,-0.00488,-0.03416,-0.01952,-0.01952
-0.03416,0.0244,-0.01464,0.00244,0.01952,-0.02684,0,-0.0244,-0.01464,-0.01952,-0.00488,-0.01952
-0.03416,0.02684,-0.01952,-0.00244,0.01464,-0.0244,0.00488,-0.0244,-0.01464,-0.01952,-0.01464,-0.01952
-0.03904,0.02684,-0.01464,0.00488,0.0244,-0.03172,0.00488,-0.0244,-0.0244,-0.02928,-0.01952,-0.01464
-0.03904,0.0244,-0.00976,0.00976,0.02928,-0.03416,0,-0.0244,-0.0244,-0.02928,-0.01952,-0.0244
-0.01952,0.01708,-0.01464,-0.00488,0.00488,-0.0122,0.00488,-0.02928,-0.00976,-0.0244,-0.01952,-0.01952
-0.0244,0.0122,0,0.0122,0.0244,-0.0244,0.00488,-0.02928,-0.00976,-0.0244,-0.01952,-0.0244
-0.0244,0.00732,0.00976,0.02196,0.03416,-0.02928,0,-0.03904,-0.01952,-0.04392,-0.01464,-0.01952
-0.02928,0.01464,0,0.01464,0.02928,-0.02928,0,-0.02928,-0.01952,-0.03416,-0.01952,-0.01952
-0.02928,0.03416,-0.03904,-0.0244,-0.00976,-0.00976,-0.00488,-0.0244,-0.01464,-0.0244,-0.00488,-0.01464
-0.02928,0.03172,-0.03416,-0.01952,-0.00488,-0.0122,-0.00976,-0.02928,-0.01464,-0.01952,-0.00488,-0.01464
-0.01952,0.01952,-0.01952,-0.00976,0,-0.00976,0,-0.01464,-0.01464,-0.01464,-0.00976,-0.01464
-0.03904,0.0244,-0.00976,0.00976,0.02928,-0.03416,0.00976,-0.0244,-0.01952,-0.01464,-0.01464,-0.01952
-0.0244,0.0122,0,0.0122,0.0244,-0.0244,0.00488,-0.02928,-0.01952,-0.02928,-0.02928,-0.02928
-0.01952,0.00976,0,0.00976,0.01952,-0.01952,-0.00488,-0.02928,-0.0244,-0.02928,-0.02928,-0.03416
-0.01464,0.01952,-0.0244,-0.01708,-0.00976,-0.00244,-0.00976,-0.02928,-0.01464,-0.02928,-0.01952,-0.02928
-0.0244,0.03416,-0.04392,-0.03172,-0.01952,-0.00244,-0.00488,-0.03416,-0.01464,-0.02928,-0.01952,-0.02928
-0.03416,0.03172,-0.02928,-0.0122,0.00488,-0.01952,-0.00976,-0.03904,-0.01952,-0.03904,-0.02928,-0.02928
-0.03416,0.02196,-0.00976,0.00732,0.0244,-0.02928,-0.00488,-0.03904,-0.0244,-0.03416,-0.02928,-0.02928
-0.03904,0.03416,-0.02928,-0.00976,0.00976,-0.0244,0.00488,-0.03416,-0.0244,-0.02928,-0.01952,-0.01952
-0.04392,0.04148,-0.03904,-0.01708,0.00488,-0.0244,-0.00488,-0.02928,-0.0244,-0.03416,-0.01952,-0.0244
-0.02928,0.02928,-0.02928,-0.01464,0,-0.01464,0,-0.03416,-0.01952,-0.03416,-0.01952,-0.03416
-0.00976,0.00732,-0.00488,0,0.00488,-0.00732,0,-0.03416,-0.01464,-0.0244,-0.01952,-0.02928
-0.00488,0.01708,-0.02928,-0.02684,-0.0244,0.00976,0,-0.0244,-0.02928,-0.03904,-0.02928,-0.03416
-0.03416,0.0244,-0.01464,0.00244,0.01952,-0.02684,-0.00976,-0.0244,-0.02928,-0.03904,-0.02928,-0.03416
-0.05368,0.04636,-0.03904,-0.0122,0.01464,-0.03416,-0.00976,-0.0244,-0.01464,-0.02928,-0.01952,-0.03416
-0.05368,0.04392,-0.03416,-0.00732,0.01952,-0.0366,-0.00488,-0.0244,-0.0244,-0.03416,-0.01952,-0.02928
-0.03416,0.02928,-0.0244,-0.00732,0.00976,-0.02196,-0.01464,-0.03416,-0.02928,-0.03416,-0.0244,-0.03416
-0.03416,0.03416,-0.03416,-0.01708,0,-0.01708,0,-0.03416,-0.01464,-0.02928,-0.00976,-0.02928
-0.02928,0.02928,-0.02928,-0.01464,0,-0.01464,-0.01464,-0.03416,-0.0244,-0.03904,-0.01952,-0.03904
-0.02928,0.0244,-0.01952,-0.00488,0.00976,-0.01952,-0.01464,-0.03416,-0.0244,-0.03416,-0.02928,-0.03904
-0.03416,0.03172,-0.02928,-0.0122,0.00488,-0.01952,-0.00976,-0.02928,-0.03416,-0.0244,-0.03416,-0.03904
-0.0244,0.0244,-0.0244,-0.0122,0,-0.0122,0,-0.03416,-0.02928,-0.03416,-0.02928,-0.03904
-0.02928,0.03416,-0.03904,-0.0244,-0.00976,-0.00976,0.00488,-0.01952,-0.01464,-0.0244,-0.01464,-0.01952
-0.03416,0.01952,-0.00488,0.0122,0.02928,-0.03172,0,-0.02928,-0.0244,-0.03416,-0.01464,-0.02928
-0.01952,0.01464,-0.00976,0,0.00976,-0.01464,0,-0.02928,-0.01952,-0.01952,-0.00976,-0.01952
-0.01952,0.0244,-0.02928,-0.01952,-0.00976,-0.00488,0,-0.02928,-0.01952,-0.01952,-0.00976,-0.01952
-0.0244,0.0244,-0.0244,-0.0122,0,-0.0122,-0.00976,-0.03416,-0.0244,-0.02928,-0.01464,-0.02928
-0.02928,0.01464,0,0.01464,0.02928,-0.02928,-0.01464,-0.04392,-0.0244,-0.03416,-0.01952,-0.02928
-0.0488,0.02928,-0.00976,0.01464,0.03904,-0.04392,-0.00488,-0.03904,-0.02928,-0.02928,-0.03416,-0.02928
-0.04392,0.04148,-0.03904,-0.01708,0.00488,-0.0244,-0.01464,-0.03904,-0.02928,-0.02928,-0.03416,-0.02928
-0.03416,0.02684,-0.01952,-0.00244,0.01464,-0.0244,0,-0.02928,-0.01464,-0.02928,-0.01464,-0.01464
-0.0244,0.01464,-0.00488,0.00732,0.01952,-0.02196,0,-0.01464,-0.00488,-0.01952,-0.00976,-0.00976
0.00976,-0.0122,0.01464,0.00976,0.00488,0.00244,-0.00976,-0.0244,-0.01464,-0.0244,-0.01952,-0.01464
0.00976,-0.01464,0.01952,0.01464,0.00976,0,0.00488,-0.01464,0.00488,-0.00976,-0.00488,-0.00488
