i,aVR,ii,aVF,iii,aVL,V1,V2,V3,V4,V5,V6
-0.05856,0.05124,-0.04392,-0.01464,0.01464,-0.0366,0.03416,0.00976,0.00976,0.00488,-0.01464,-0.02928
-0.0488,0.04392,-0.03904,-0.01464,0.00976,-0.02928,0.03416,0.01464,0.01952,0.00976,-0.00488,-0.0244
-0.04392,0.03904,-0.03416,-0.0122,0.00976,-0.02684,0.03416,0.01464,0.01952,0.00488,-0.00488,-0.02928
-0.0488,0.04392,-0.03904,-0.01464,0.00976,-0.02928,0.0244,0.01464,0.01952,0.00488,-0.01464,-0.0244
-0.0488,0.03904,-0.02928,-0.00488,0.01952,-0.03416,0.02928,0.01464,0.01952,0.00976,-0.01464,-0.0244
-0.03904,0.03172,-0.0244,-0.00488,0.01464,-0.02684,0.02928,0.0244,0.02928,0.00976,0,-0.0244
-0.03904,0.02928,-0.01952,0,0.01952,-0.02928,0.03416,0.01952,0.02928,0.00976,0,-0.01952
-0.03416,0.0244,-0.01464,0.00244,0.01952,-0.02684,0.03416,0.01464,0.01952,0.00976,-0.00488,-0.01464
-0.03416,0.0244,-0.01464,0.00244,0.01952,-0.02684,0.0244,0.01464,0.0244,0.01464,-0.00488,-0.01464
-0.03904,0.02928,-0.01952,0,0.01952,-0.02928,0.0244,0.00976,0.0244,0.01464,-0.00488,-0.01464
-0.04392,0.03172,-0.01952,0.00244,0.0244,-0.03416,0.01952,0.00976,0.0244,0.01464,-0.00488,-0.00976
-0.0488,0.03416,-0.01952,0.00488,0.02928,-0.03904,0.01952,0.01464,0.0244,0.01464,0,-0.00976
-0.0488,0.03416,-0.01952,0.00488,0.02928,-0.03904,0.02928,0.00976,0.0244,0.01464,0.00488,-0.00976
-0.04392,0.0244,-0.00488,0.01708,0.03904,-0.04148,0.02928,0.01952,0.0244,0.00976,0.00488,-0.00976
-0.02928,0.01464,0,0.01464,0.02928,-0.02928,0.0244,0.01952,0.02928,0.00976,0.00488,-0.00488
-0.0244,0.00732,0.00976,0.02196,0.03416,-0.02928,0.0244,0.00976,0.03904,0.01952,0.00976,-0.00488
-0.01952,0.00488,0.00976,0.01952,0.02928,-0.0244,0.0244,0.00976,0.03416,0.01952,0.00488,-0.00488
-0.03416,0.01708,0,0.01708,0.03416,-0.03416,0.01952,0.01464,0.02928,0.01952,0.00488,-0.00488
-0.03416,0.01708,0,0.01708,0.03416,-0.03416,0.01464,0.01464,0.0244,0.01952,0.00976,-0.00488
-0.02928,0.01464,0,0.01464,0.02928,-0.02928,0.01952,0.01952,0.02928,0.00976,0,-0.01464
-0.03416,0.01708,0,0.01708,0.03416,-0.03416,0.01952,0.01952,0.02928,0.00976,-0.00488,-0.01464
-0.03416,0.01952,-0.00488,0.0122,0.02928,-0.03172,0.02928,0.01464,0.0244,0.01952,0.00488,-0.01464
-0.03416,0.01952,-0.00488,0.0122,0.02928,-0.03172,0.02928,0.01952,0.02928,0.01952,0.00976,-0.00976
-0.03416,0.01464,0.00488,0.02196,0.03904,-0.0366,0.0244,0.01952,0.02928,0.00976,0.00976,-0.01464
-0.03904,0.01952,0,0.01952,0.03904,-0.03904,0.01464,0.01464,0.02928,0.00976,0.00488,-0.01464
-0.03904,0.02196,-0.00488,0.01464,0.03416,-0.0366,0.0244,0.0244,0.03904,0.01952,-0.00488,-0.00488
-0.03904,0.01952,0,0.01952,0.03904,-0.03904,0.0244,0.0244,0.03904,0.01952,0,-0.00488
-0.03416,0.01464,0.00488,0.02196,0.03904,-0.0366,0.01952,0.01464,0.03904,0.00976,0.00976,-0.00488
-0.03904,0.01708,0.00488,0.0244,0.04392,-0.04148,0.0244,0.01464,0.03904,0.01464,0.00488,-0.00488
-0.03904,0.01708,0.00488,0.0244,0.04392,-0.04148,0.01952,0.01952,0.03904,0.01952,0.00488,-0.00488
-0.03416,0.0122,0.00976,0.02684,0.04392,-0.03904,0.00976,0.01952,0.03904,0.01952,0.00488,-0.00488
-0.03904,0.01464,0.00976,0.02928,0.0488,-0.04392,0.00976,0.01952,0.03904,0.0244,0.00976,-0.00488
-0.03904,0.01464,0.00976,0.02928,0.0488,-0.04392,0.00976,0.01952,0.03904,0.01952,0.00488,-0.00488
-0.03904,0.01464,0.00976,0.02928,0.0488,-0.04392,0.0244,0.03416,0.0488,0.01952,0.00488,0.00488
-0.04392,0.0244,-0.00488,0.01708,0.03904,-0.04148,0.0244,0.00976,0.02928,0.01952,0.00488,-0.00488
-0.03904,0.01464,0.00976,0.02928,0.0488,-0.04392,0.01952,0.02928,0.03904,0.01952,0.00976,0
-0.03904,0.01464,0.00976,0.02928,0.0488,-0.04392,0.01952,0.02928,0.03904,0.01952,0.00976,0
-0.03904,0.01464,0.00976,0.02928,0.0488,-0.04392,0.02928,0.03416,0.04392,0.02928,0.01952,-0.00488
-0.03416,0.00732,0.01952,0.0366,0.05368,-0.04392,0.0244,0.02928,0.0488,0.03416,0.01952,0.00488
-0.0244,0.00244,0.01952,0.03172,0.04392,-0.03416,0.00976,0.02928,0.06344,0.02928,0.01952,0
-0.01952,-0.00244,0.0244,0.03416,0.04392,-0.03172,0.00488,0.02928,0.06344,0.03416,0.01952,0
-0.01952,-0.0122,0.04392,0.05368,0.06344,-0.04148,0.00976,0.0244,0.0732,0.03904,0.02928,0.00488
-0.00976,-0.02196,0.05368,0.05856,0.06344,-0.0366,0.00976,0.0244,0.08296,0.05368,0.03416,0.01464
-0.00488,-0.03416,0.0732,0.07564,0.07808,-0.04148,-0.00488,0.01952,0.08784,0.05368,0.03416,0.0244
0.00488,-0.04148,0.07808,0.07564,0.0732,-0.03416,-0.01464,0.0244,0.08296,0.05856,0.04392,0.02928
0.01952,-0.0488,0.07808,0.06832,0.05856,-0.01952,-0.01464,0.0244,0.0732,0.05856,0.04392,0.03416
0.02928,-0.05368,0.07808,0.06344,0.0488,-0.00976,-0.01952,0.02928,0.06344,0.05368,0.0488,0.03416
0.04392,-0.05856,0.0732,0.05124,0.02928,0.00732,-0.01952,0.04392,0.05856,0.05368,0.0488,0.02928
0.04392,-0.05368,0.06344,0.04148,0.01952,0.0122,-0.01952,0.04392,0.04392,0.04392,0.03904,0.0244
0.03904,-0.05124,0.06344,0.04392,0.0244,0.00732,-0.0244,0.0244,0.03416,0.02928,0.03904,0.0244
0.02928,-0.04636,0.06344,0.0488,0.03416,-0.00244,-0.02928,0.01464,0.03416,0.02928,0.03416,0.0244
0.0244,-0.04392,0.06344,0.05124,0.03904,-0.00732,-0.03416,0,0.03416,0.02928,0.02928,0.0244
0.00976,-0.03416,0.05856,0.05368,0.0488,-0.01952,-0.03416,-0.00488,0.03416,0.03416,0.02928,0.0244
0.01464,-0.0366,0.05856,0.05124,0.04392,-0.01464,-0.02928,0.00488,0.03416,0.01952,0.01464,0.0244
-0.00488,-0.01952,0.04392,0.04636,0.0488,-0.02684,-0.0244,0.00488,0.03416,0.01952,0.01464,0.0244
-0.01952,-0.0122,0.04392,0.05368,0.06344,-0.04148,-0.02928,-0.01464,0.03416,0.02928,0.00976,0.01464
-0.01952,-0.0122,0.04392,0.05368,0.06344,-0.04148,-0.02928,-0.00976,0.03416,0.01952,0.01952,0.01464
-0.00488,-0.01464,0.03416,0.0366,0.03904,-0.02196,-0.01464,0.00488,0.01464,0.00976,0.00976,0.00976
0,-0.00732,0.01464,0.01464,0.01464,-0.00732,-0.00488,0.00976,0.00976,0.00488,0.00488,0
-0.00976,0,0.00976,0.01464,0.01952,-0.01464,-0.00488,0.00976,0.01464,-0.00488,0,-0.00976
-0.01464,0.00488,0.00488,0.0122,0.01952,-0.01708,0,0.00976,0.01464,0,0,-0.00976
-0.01464,0.00488,0.00488,0.0122,0.01952,-0.01708,0,0,0.01952,0,0,-0.00976
-0.0244,0.0122,0,0.0122,0.0244,-0.0244,0,0,0.01952,0,0,-0.00976
-0.03416,0.01464,0.00488,0.02196,0.03904,-0.0366,0.01464,0.00976,0.0244,0.00976,0.00488,0
-0.04392,0.01952,0.00488,0.02684,0.0488,-0.04636,0.01464,0.01464,0.03416,0.01952,0.00976,0
-0.0488,0.02684,-0.00488,0.01952,0.04392,-0.04636,0.0244,0.0244,0.03904,0.00976,0.00976,0
-0.05368,0.03416,-0.01464,0.0122,0.03904,-0.04636,0.0244,0.0244,0.03416,0.00976,0.00488,0
-0.06832,0.04148,-0.01464,0.01952,0.05368,-0.061,0.04392,0.0244,0.03416,0.01952,0.00488,-0.00488
-0.06832,0.04636,-0.0244,0.00976,0.04392,-0.05612,0.04392,0.02928,0.03416,0.01464,-0.00488,-0.01464
-0.0732,0.05612,-0.03904,-0.00244,0.03416,-0.05368,0.0488,0.02928,0.02928,0.00976,-0.01952,-0.01464
-0.0732,0.05612,-0.03904,-0.00244,0.03416,-0.05368,0.0488,0.02928,0.02928,0.00976,-0.01952,-0.01464
-0.06344,0.04636,-0.02928,0.00244,0.03416,-0.0488,0.03904,0.02928,0.02928,0.00976,-0.00976,-0.0244
-0.0732,0.05368,-0.03416,0.00244,0.03904,-0.05612,0.03904,0.02928,0.02928,0.00976,-0.00976,-0.0244
-0.0732,0.0488,-0.0244,0.0122,0.0488,-0.061,0.0488,0.02928,0.03416,0.00976,-0.00976,-0.01464
-0.0732,0.04636,-0.01952,0.01708,0.05368,-0.06344,0.0488,0.02928,0.03416,0.00976,-0.00488,-0.00976
-0.06344,0.03904,-0.01464,0.01708,0.0488,-0.05612,0.0488,0.02928,0.03416,0.00976,-0.00488,-0.01464
-0.06344,0.03904,-0.01464,0.01708,0.0488,-0.05612,0.0488,0.02928,0.03416,0.01464,-0.00488,-0.01464
-0.06344,0.03904,-0.01464,0.01708,0.0488,-0.05612,0.0488,0.01952,0.02928,0.01464,0,-0.01952
-0.06344,0.03416,-0.00488,0.02684,0.05856,-0.061,0.0488,0.04392,0.06832,0.03904,0.00976,-0.00976
-0.08784,0.03416,0.01952,0.06344,0.10736,-0.0976,0.07808,0.0732,0.122,0.07808,0.04392,0
-0.0976,0.02928,0.03904,0.08784,0.13664,-0.11712,0.08784,0.10736,0.15616,0.13176,0.06832,0.00488
-0.10248,0.00732,0.08784,0.13908,0.19032,-0.1464,0.08296,0.11712,0.20496,0.18056,0.12688,0.05368
-0.0732,-0.0122,0.0976,0.1342,0.1708,-0.122,0.0732,0.13176,0.20496,0.20008,0.15616,0.07808
-0.01952,-0.0488,0.11712,0.12688,0.13664,-0.07808,0.05368,0.15128,0.18544,0.18056,0.16104,0.09272
0.14152,-0.183,0.22448,0.15372,0.08296,0.02928,-0.02928,0.122,0.1464,0.19032,0.20984,0.18544
0.29768,-0.33672,0.37576,0.22692,0.07808,0.1098,-0.16104,0.05368,0.122,0.22936,0.30256,0.30256
0.46848,-0.48556,0.50264,0.2684,0.03416,0.21716,-0.2928,-0.05856,0.08296,0.20984,0.33184,0.38064
0.60024,-0.61488,0.62952,0.3294,0.02928,0.28548,-0.46848,-0.2684,0.02928,0.18544,0.34648,0.46848
0.6832,-0.66856,0.65392,0.31232,-0.02928,0.35624,-0.57584,-0.3904,-0.08296,0.09272,0.30256,0.5124
0.71248,-0.671,0.62952,0.27328,-0.08296,0.39772,-0.61,-0.49776,-0.25864,-0.06344,0.23912,0.52216
0.71736,-0.56608,0.4148,0.05612,-0.30256,0.50996,-0.53192,-0.488,-0.44408,-0.30256,0.05368,0.3904
0.61,-0.33184,0.05368,-0.25132,-0.55632,0.58316,-0.38552,-0.3904,-0.54656,-0.47336,-0.20984,0.10736
0.44408,-0.1342,-0.17568,-0.39772,-0.61976,0.53192,-0.25376,-0.33672,-0.66856,-0.60024,-0.3416,-0.03904
0.25864,0.03172,-0.32208,-0.4514,-0.58072,0.41968,-0.122,-0.28792,-0.67832,-0.61488,-0.40992,-0.1464
0.11712,0.13664,-0.3904,-0.44896,-0.50752,0.31232,-0.0244,-0.23424,-0.61976,-0.60512,-0.45384,-0.24888
0.03416,0.18788,-0.40992,-0.427,-0.44408,0.23912,0.01952,-0.15128,-0.49776,-0.53192,-0.45384,-0.2928
0.05368,0.1464,-0.34648,-0.37332,-0.40016,0.22692,0.00976,-0.08296,-0.3904,-0.43432,-0.39528,-0.24888
0.05368,0.08784,-0.22936,-0.2562,-0.28304,0.16836,-0.00488,-0.06344,-0.27328,-0.30256,-0.2684,-0.15616
0.03904,0.05124,-0.14152,-0.16104,-0.18056,0.1098,-0.00488,-0.0488,-0.1952,-0.20008,-0.17568,-0.10248
0.00976,0.05124,-0.11224,-0.11712,-0.122,0.06588,0.00976,-0.02928,-0.10736,-0.13176,-0.13176,-0.09272
-0.03416,0.07076,-0.10736,-0.09028,-0.0732,0.01952,0.02928,0,-0.05368,-0.08296,-0.10248,-0.07808
-0.05368,0.07564,-0.0976,-0.07076,-0.04392,-0.00488,0.05368,0.00976,-0.02928,-0.05856,-0.05856,-0.06344
-0.05368,0.05856,-0.06344,-0.0366,-0.00976,-0.02196,0.05856,0.01464,-0.00488,-0.02928,-0.0244,-0.03416
-0.07808,0.06344,-0.0488,-0.00976,0.02928,-0.05368,0.05368,0.01952,0.01952,-0.01464,-0.03416,-0.0244
-0.07808,0.06832,-0.05856,-0.01952,0.01952,-0.0488,0.05368,0.0244,0.0244,-0.00976,-0.03416,-0.03904
-0.09272,0.08296,-0.0732,-0.02684,0.01952,-0.05612,0.0488,0.0244,0.02928,-0.00976,-0.02928,-0.04392
-0.09272,0.08296,-0.0732,-0.02684,0.01952,-0.05612,0.05368,0.0244,0.0244,-0.00488,-0.0244,-0.04392
-0.10248,0.08296,-0.06344,-0.0122,0.03904,-0.07076,0.05368,0.03416,0.03416,-0.00488,-0.01464,-0.03904
-0.10248,0.08052,-0.05856,-0.00732,0.04392,-0.0732,0.05368,0.03416,0.03904,-0.00488,-0.01464,-0.03904
-0.09272,0.07564,-0.05856,-0.0122,0.03416,-0.06344,0.06344,0.03416,0.03416,0.00488,-0.01464,-0.03416
-0.09272,0.07564,-0.05856,-0.0122,0.03416,-0.06344,0.06344,0.03416,0.04392,0.01464,-0.01464,-0.03416
-0.09272,0.07076,-0.0488,-0.00244,0.04392,-0.06832,0.06344,0.0244,0.04392,0.00488,-0.01464,-0.03904
-0.08784,0.06588,-0.04392,0,0.04392,-0.06588,0.06344,0.0244,0.03904,0.00488,-0.00976,-0.03416
-0.08296,0.06588,-0.0488,-0.00732,0.03416,-0.05856,0.05856,0.02928,0.03904,0.01464,-0.00976,-0.03416
-0.08296,0.06588,-0.0488,-0.00732,0.03416,-0.05856,0.06344,0.02928,0.03904,0.00976,-0.01464,-0.03416
-0.08296,0.06832,-0.05368,-0.0122,0.02928,-0.05612,0.05856,0.02928,0.03904,0,-0.00976,-0.03416
-0.07808,0.06588,-0.05368,-0.01464,0.0244,-0.05124,0.05856,0.02928,0.03904,0.00488,-0.00976,-0.03416
-0.07808,0.06832,-0.05856,-0.01952,0.01952,-0.0488,0.06344,0.03904,0.03904,0.00488,-0.00976,-0.04392
-0.07808,0.06832,-0.05856,-0.01952,0.01952,-0.0488,0.06344,0.03416,0.03904,0,-0.00976,-0.04392
-0.09272,0.0732,-0.05368,-0.00732,0.03904,-0.06588,0.06344,0.03904,0.03904,0,-0.00976,-0.03416
-0.08784,0.07076,-0.05368,-0.00976,0.03416,-0.061,0.06344,0.03904,0.03904,0.00488,-0.00976,-0.03416
-0.08784,0.07076,-0.05368,-0.00976,0.03416,-0.061,0.05368,0.02928,0.03904,0,-0.00976,-0.03416
-0.08784,0.07076,-0.05368,-0.00976,0.03416,-0.061,0.05368,0.02928,0.03416,0,-0.00976,-0.03416
-0.07808,0.06588,-0.05368,-0.01464,0.0244,-0.05124,0.06344,0.0244,0.03416,0.00976,-0.01464,-0.03416
-0.07808,0.06588,-0.05368,-0.01464,0.0244,-0.05124,0.06344,0.0244,0.03416,0.00976,-0.01464,-0.03416
-0.07808,0.07076,-0.06344,-0.0244,0.01464,-0.04636,0.05368,0.02928,0.0244,-0.00488,-0.00976,-0.03904
-0.07808,0.07076,-0.06344,-0.0244,0.01464,-0.04636,0.05368,0.0244,0.0244,-0.00488,-0.00976,-0.03904
-0.08784,0.07076,-0.05368,-0.00976,0.03416,-0.061,0.05856,0.0244,0.02928,0.00488,-0.00976,-0.03904
-0.08784,0.0732,-0.05856,-0.01464,0.02928,-0.05856,0.06344,0.0244,0.02928,0.00488,-0.00488,-0.03416
-0.07808,0.06344,-0.0488,-0.00976,0.02928,-0.05368,0.06344,0.02928,0.02928,0,-0.00976,-0.03416
-0.08784,0.07076,-0.05368,-0.00976,0.03416,-0.061,0.05856,0.02928,0.02928,0,-0.00976,-0.03416
-0.07808,0.06344,-0.0488,-0.00976,0.02928,-0.05368,0.05368,0.03416,0.02928,0,-0.00976,-0.03904
-0.08296,0.07076,-0.05856,-0.01708,0.0244,-0.05368,0.05368,0.03416,0.0244,0,-0.00976,-0.03904
-0.07808,0.06588,-0.05368,-0.01464,0.0244,-0.05124,0.05368,0.03416,0.0244,0,-0.00976,-0.03904
-0.06344,0.05856,-0.05368,-0.02196,0.00976,-0.0366,0.05368,0.03416,0.0244,0,-0.00976,-0.03904
-0.06344,0.05856,-0.05368,-0.02196,0.00976,-0.0366,0.0488,0.02928,0.01952,-0.00488,-0.01464,-0.03904
-0.06832,0.061,-0.05368,-0.01952,0.01464,-0.04148,0.04392,0.02928,0.01952,-0.00488,-0.00976,-0.03904
-0.0732,0.061,-0.0488,-0.0122,0.0244,-0.0488,0.03416,0.01952,0.00976,-0.01464,-0.01952,-0.03416
-0.0732,0.06588,-0.05856,-0.02196,0.01464,-0.04392,0.02928,0.00976,0.00488,-0.01464,-0.01952,-0.03416
-0.06832,0.05612,-0.04392,-0.00976,0.0244,-0.04636,0.02928,0.00976,0.00488,-0.01464,-0.02928,-0.04392
-0.06344,0.05368,-0.04392,-0.0122,0.01952,-0.04148,0.0244,0.00488,0,-0.0244,-0.02928,-0.03904
-0.0488,0.0488,-0.0488,-0.0244,0,-0.0244,0.01464,0.00488,0,-0.01464,-0.01952,-0.03904
-0.0488,0.04392,-0.03904,-0.01464,0.00976,-0.02928,0.00976,-0.00488,0.00488,-0.01952,-0.01464,-0.03416
-0.04392,0.03904,-0.03416,-0.0122,0.00976,-0.02684,0.01464,-0.00488,0,-0.01952,-0.0244,-0.02928
-0.02928,0.0244,-0.01952,-0.00488,0.00976,-0.01952,0.00488,-0.00488,0,-0.01952,-0.0244,-0.02928
-0.01952,0.01464,-0.00976,0,0.00976,-0.01464,0,-0.01464,0,-0.00976,-0.00976,-0.01464
-0.00976,0.00732,-0.00488,0,0.00488,-0.00732,-0.00976,-0.0244,-0.00488,-0.00488,-0.00488,-0.00488
0.00976,-0.0122,0.01464,0.00976,0.00488,0.00244,-0.03416,-0.03416,0,-0.01952,-0.00488,0
0.01952,-0.0244,0.02928,0.01952,0.00976,0.00488,-0.04392,-0.04392,-0.00976,-0.01952,-0.00488,0.00488
0.01952,-0.02928,0.03904,0.02928,0.01952,0,-0.05368,-0.04392,-0.00976,-0.01464,0,0.00488
0.03904,-0.0488,0.05856,0.03904,0.01952,0.00976,-0.06344,-0.05368,-0.00976,-0.00976,0.00488,0.01952
0.02928,-0.04392,0.05856,0.04392,0.02928,0,-0.07808,-0.05856,-0.00976,-0.00976,0.00976,0.02928
0.0488,-0.05856,0.06832,0.04392,0.01952,0.01464,-0.08784,-0.06344,-0.01952,-0.00976,0.00976,0.03416
0.05856,-0.06832,0.07808,0.0488,0.01952,0.01952,-0.08784,-0.05856,-0.01952,-0.01464,0.00976,0.03904
0.08296,-0.09028,0.0976,0.05612,0.01464,0.03416,-0.0976,-0.06832,-0.01952,-0.01464,0.01464,0.03904
0.08296,-0.09272,0.10248,0.061,0.01952,0.03172,-0.10736,-0.08296,-0.01464,-0.0244,0.01464,0.0488
0.08296,-0.09516,0.10736,0.06588,0.0244,0.02928,-0.11224,-0.08296,-0.01464,-0.01952,0.0244,0.05368
0.07808,-0.09272,0.10736,0.06832,0.02928,0.0244,-0.122,-0.0976,-0.01952,-0.01464,0.0244,0.04392
0.08296,-0.09272,0.10248,0.061,0.01952,0.03172,-0.12688,-0.0976,-0.02928,-0.01464,0.02928,0.0488
0.08784,-0.0976,0.10736,0.06344,0.01952,0.03416,-0.13176,-0.0976,-0.0244,-0.01464,0.02928,0.0488
0.08784,-0.0976,0.10736,0.06344,0.01952,0.03416,-0.122,-0.07808,-0.01952,-0.00976,0.03904,0.05856
0.07808,-0.08784,0.0976,0.05856,0.01952,0.02928,-0.10248,-0.06344,-0.01464,-0.00488,0.04392,0.05856
0.07808,-0.08784,0.0976,0.05856,0.01952,0.02928,-0.0976,-0.05368,-0.00976,0,0.04392,0.05856
0.0732,-0.08296,0.09272,0.05612,0.01952,0.02684,-0.08784,-0.05368,0,0.00976,0.05856,0.05856
0.06344,-0.0732,0.08296,0.05124,0.01952,0.02196,-0.07808,-0.04392,0.00976,0.01952,0.05368,0.05368
0.05368,-0.06588,0.07808,0.05124,0.0244,0.01464,-0.06832,-0.03416,0.01464,0.0244,0.0488,0.03904
0.04392,-0.061,0.07808,0.05612,0.03416,0.00488,-0.05856,-0.02928,0.01952,0.0244,0.0488,0.03416
0.03416,-0.04392,0.05368,0.0366,0.01952,0.00732,-0.04392,-0.01952,0.0244,0.0244,0.0488,0.0244
0.01464,-0.02928,0.04392,0.0366,0.02928,-0.00732,-0.03416,-0.01464,0.02928,0.0244,0.04392,0.01952
0.01464,-0.0244,0.03416,0.02684,0.01952,-0.00244,-0.0244,0.00488,0.03416,0.03904,0.04392,0.02928
-0.00488,-0.00976,0.0244,0.02684,0.02928,-0.01708,-0.01464,0.00488,0.03416,0.03416,0.03904,0.01952
-0.00976,-0.00488,0.01952,0.0244,0.02928,-0.01952,-0.00488,0.01464,0.03416,0.0244,0.0488,0.00976
-0.00976,0.00244,0.00488,0.00976,0.01464,-0.0122,0,0.01464,0.03416,0.0244,0.03904,0.00488
-0.01464,0.00488,0.00488,0.0122,0.01952,-0.01708,0.00488,0.01952,0.02928,0.02928,0.03904,0
-0.02928,0.01464,0,0.01464,0.02928,-0.02928,0.01464,0.0244,0.02928,0.02928,0.03904,-0.00488
-0.02928,0.01464,0,0.01464,0.02928,-0.02928,0.0244,0.0244,0.03416,0.01952,0.02928,0.00488
-0.03416,0.01708,0,0.01708,0.03416,-0.03416,0.0244,0.0244,0.03416,0.01952,0.02928,0.00488
-0.02928,0.01708,-0.00488,0.00976,0.0244,-0.02684,0.02928,0.02928,0.03416,0.02928,0.02928,-0.00976
-0.02928,0.01952,-0.00976,0.00488,0.01952,-0.0244,0.02928,0.03416,0.03416,0.02928,0.0244,-0.01464
-0.02928,0.0244,-0.01952,-0.00488,0.00976,-0.01952,0.0244,0.03416,0.03904,0.0244,0.02928,-0.01952
-0.03416,0.0244,-0.01464,0.00244,0.01952,-0.02684,0.0244,0.02928,0.03904,0.01952,0.0244,-0.01952
-0.04392,0.03416,-0.0244,-0.00244,0.01952,-0.03172,0.0244,0.03416,0.0244,0.00976,0.00976,-0.0244
-0.0488,0.03904,-0.02928,-0.00488,0.01952,-0.03416,0.02928,0.02928,0.0244,0.01464,0.00976,-0.02928
-0.03904,0.03904,-0.03904,-0.01952,0,-0.01952,0.02928,0.02928,0.02928,0.00976,0.00976,-0.02928
-0.03904,0.03904,-0.03904,-0.01952,0,-0.01952,0.02928,0.03416,0.02928,0.00976,0.00976,-0.02928
-0.02928,0.0366,-0.04392,-0.02928,-0.01464,-0.00732,0.02928,0.01952,0.01952,0.00976,0.01952,-0.02928
-0.03416,0.03416,-0.03416,-0.01708,0,-0.01708,0.02928,0.01952,0.01952,0.00976,0.01464,-0.03416
-0.02928,0.02684,-0.0244,-0.00976,0.00488,-0.01708,0.02928,0.01952,0.02928,0.00488,0.01464,-0.0244
-0.04392,0.0366,-0.02928,-0.00732,0.01464,-0.02928,0.02928,0.01952,0.0244,0,0.01464,-0.0244
-0.02928,0.03172,-0.03416,-0.01952,-0.00488,-0.0122,0.02928,0.02928,0.0244,0.00976,0.01464,-0.02928
-0.04392,0.03904,-0.03416,-0.0122,0.00976,-0.02684,0.02928,0.03416,0.0244,0.01464,0.00976,-0.02928
-0.03416,0.03904,-0.04392,-0.02684,-0.00976,-0.0122,0.03416,0.0244,0.01464,0.00488,0.00488,-0.03904
-0.03416,0.04148,-0.0488,-0.03172,-0.01464,-0.00976,0.03416,0.0244,0.01464,0.00488,0.00488,-0.03904
-0.04392,0.04636,-0.0488,-0.02684,-0.00488,-0.01952,0.04392,0.02928,0.01952,0,-0.00488,-0.04392
-0.04392,0.04636,-0.0488,-0.02684,-0.00488,-0.01952,0.04392,0.02928,0.01952,0,-0.00488,-0.04392
-0.03904,0.04148,-0.04392,-0.0244,-0.00488,-0.01708,0.04392,0.03904,0.0244,0.00488,0.00976,-0.04392
-0.03416,0.03904,-0.04392,-0.02684,-0.00976,-0.0122,0.04392,0.04392,0.0244,0.00976,0.00488,-0.04392
-0.03904,0.04148,-0.04392,-0.0244,-0.00488,-0.01708,0.04392,0.03416,0.01952,0.00976,0.00488,-0.04392
-0.03904,0.04148,-0.04392,-0.0244,-0.00488,-0.01708,0.04392,0.03416,0.01952,0.00488,0.00488,-0.04392
-0.0488,0.05368,-0.05856,-0.03416,-0.00976,-0.01952,0.03416,0.03416,0.01952,0.00488,0,-0.0488
-0.0488,0.05368,-0.05856,-0.03416,-0.00976,-0.01952,0.03416,0.03416,0.01952,0.00488,0,-0.0488
-0.05368,0.05612,-0.05856,-0.03172,-0.00488,-0.0244,0.03416,0.03416,0.01952,-0.00488,0,-0.0488
-0.05368,0.05612,-0.05856,-0.03172,-0.00488,-0.0244,0.03416,0.03416,0.01952,0,0,-0.0488
-0.05368,0.05368,-0.05368,-0.02684,0,-0.02684,0.03416,0.03416,0.01952,0.00488,0.00488,-0.0488
-0.0488,0.05124,-0.05368,-0.02928,-0.00488,-0.02196,0.03416,0.03416,0.01952,0.00488,0.00488,-0.0488
-0.03904,0.03904,-0.03904,-0.01952,0,-0.01952,0.04392,0.03416,0.02928,0.00976,0.01464,-0.03416
-0.03416,0.03416,-0.03416,-0.01708,0,-0.01708,0.04392,0.03416,0.02928,0.00488,0.01464,-0.03904
-0.02928,0.02928,-0.02928,-0.01464,0,-0.01464,0.03416,0.04392,0.02928,0.01464,0.0244,-0.03416
-0.02928,0.0244,-0.01952,-0.00488,0.00976,-0.01952,0.03904,0.04392,0.02928,0.01952,0.0244,-0.03416
-0.03416,0.03172,-0.02928,-0.0122,0.00488,-0.01952,0.03416,0.03416,0.01952,0.00976,0.01952,-0.04392
-0.04392,0.03904,-0.03416,-0.0122,0.00976,-0.02684,0.02928,0.02928,0.01952,0.00976,0.01952,-0.03904
-0.03416,0.03416,-0.03416,-0.01708,0,-0.01708,0.01952,0.03416,0.01952,0.00976,0.01464,-0.03416
-0.03416,0.03416,-0.03416,-0.01708,0,-0.01708,0.01952,0.03416,0.0244,0.01464,0.01464,-0.03416
-0.03904,0.03416,-0.02928,-0.00976,0.00976,-0.0244,0.03416,0.03904,0.0244,0.0244,0.0244,-0.0244
-0.04392,0.0366,-0.02928,-0.00732,0.01464,-0.02928,0.02928,0.03904,0.0244,0.0244,0.0244,-0.01952
-0.02928,0.02928,-0.02928,-0.01464,0,-0.01464,0.0244,0.04392,0.0244,0.01464,0.01952,-0.02928
-0.02928,0.02928,-0.02928,-0.01464,0,-0.01464,0.0244,0.03904,0.0244,0.01464,0.0244,-0.02928
-0.02928,0.02684,-0.0244,-0.00976,0.00488,-0.01708,0.02928,0.03904,0.0244,0.01952,0.0244,-0.02928
-0.0244,0.02196,-0.01952,-0.00732,0.00488,-0.01464,0.0244,0.03904,0.02928,0.01952,0.0244,-0.0244
-0.0244,0.02196,-0.01952,-0.00732,0.00488,-0.01464,0.01464,0.03904,0.02928,0.01952,0.02928,-0.01464
-0.01952,0.01952,-0.01952,-0.00976,0,-0.00976,0.01464,0.03904,0.0244,0.01952,0.0244,-0.01464
-0.0244,0.02684,-0.02928,-0.01708,-0.00488,-0.00976,0.02928,0.03416,0.02928,0.01952,0.03416,-0.0244
-0.0244,0.02684,-0.02928,-0.01708,-0.00488,-0.00976,0.0244,0.03416,0.0244,0.01952,0.03904,-0.0244
-0.01952,0.0244,-0.02928,-0.01952,-0.00976,-0.00488,0.01952,0.02928,0.01952,0.02928,0.02928,-0.0244
-0.0244,0.02684,-0.02928,-0.01708,-0.00488,-0.00976,0.01952,0.02928,0.01952,0.02928,0.0244,-0.0244
-0.0244,0.01952,-0.01464,-0.00244,0.00976,-0.01708,0.01952,0.03416,0.0244,0.01952,0.03416,-0.0244
-0.0244,0.01952,-0.01464,-0.00244,0.00976,-0.01708,0.01952,0.03904,0.02928,0.01952,0.03904,-0.01952
-0.01464,0.01952,-0.0244,-0.01708,-0.00976,-0.00244,0.02928,0.03904,0.02928,0.01952,0.02928,-0.03416
-0.01952,0.0244,-0.02928,-0.01952,-0.00976,-0.00488,0.02928,0.03416,0.02928,0.01952,0.0244,-0.03416
-0.0244,0.02928,-0.03416,-0.02196,-0.00976,-0.00732,0.0244,0.03416,0.02928,0.01952,0.03416,-0.0244
-0.03416,0.03172,-0.02928,-0.0122,0.00488,-0.01952,0.0244,0.03416,0.02928,0.01952,0.03904,-0.0244
-0.03416,0.03416,-0.03416,-0.01708,0,-0.01708,0.01952,0.03416,0.01952,0.01952,0.02928,-0.03416
-0.03904,0.0366,-0.03416,-0.01464,0.00488,-0.02196,0.0244,0.03416,0.01952,0.0244,0.0244,-0.03416
-0.02928,0.03172,-0.03416,-0.01952,-0.00488,-0.0122,0.02928,0.03904,0.01952,0.01952,0.0244,-0.0244
-0.0244,0.02684,-0.02928,-0.01708,-0.00488,-0.00976,0.01952,0.03904,0.01952,0.01952,0.0244,-0.0244
-0.03904,0.03416,-0.02928,-0.00976,0.00976,-0.0244,0.01952,0.02928,0.02928,0.03416,0.02928,-0.03416
-0.03904,0.03416,-0.02928,-0.00976,0.00976,-0.0244,0.01952,0.02928,0.02928,0.02928,0.0244,-0.03416
-0.03904,0.03416,-0.02928,-0.00976,0.00976,-0.0244,0.03416,0.03416,0.02928,0.01952,0.0244,-0.0244
-0.04392,0.04392,-0.04392,-0.02196,0,-0.02196,0.03416,0.03904,0.02928,0.01952,0.0244,-0.0244
-0.03416,0.0366,-0.03904,-0.02196,-0.00488,-0.01464,0.0244,0.03904,0.02928,0.01952,0.02928,-0.03416
-0.03416,0.03172,-0.02928,-0.0122,0.00488,-0.01952,0.0244,0.03904,0.02928,0.01952,0.02928,-0.03416
-0.03416,0.02928,-0.0244,-0.00732,0.00976,-0.02196,0.03904,0.03904,0.0244,0.00976,0.0244,-0.03416
-0.03416,0.03416,-0.03416,-0.01708,0,-0.01708,0.03416,0.03904,0.0244,0.01464,0.0244,-0.03416
-0.03904,0.03904,-0.03904,-0.01952,0,-0.01952,0.03416,0.03904,0.02928,0.01464,0.01952,-0.03416
-0.04392,0.04636,-0.0488,-0.02684,-0.00488,-0.01952,0.03416,0.03904,0.02928,0.01464,0.01952,-0.03416
-0.03416,0.04392,-0.05368,-0.0366,-0.01952,-0.00732,0.03416,0.02928,0.00976,0.01464,0.01464,-0.03904
-0.01952,0.02928,-0.03904,-0.02928,-0.01952,0,0.03904,0.02928,0.01952,0.01464,0.0244,-0.03904
-0.03904,0.03904,-0.03904,-0.01952,0,-0.01952,0.03904,0.03904,0.02928,0.02928,0.02928,-0.03904
-0.03904,0.03904,-0.03904,-0.01952,0,-0.01952,0.03904,0.03904,0.02928,0.02928,0.02928,-0.03904
-0.02928,0.02928,-0.02928,-0.01464,0,-0.01464,0.02928,0.04392,0.0244,0.02928,0.02928,-0.03416
-0.0244,0.02196,-0.01952,-0.00732,0.00488,-0.01464,0.0244,0.03904,0.02928,0.03416,0.02928,-0.0244
-0.0244,0.01708,-0.00976,0.00244,0.01464,-0.01952,0.02928,0.03904,0.05368,0.0488,0.0488,-0.01952
-0.01952,0.0122,-0.00488,0.00488,0.01464,-0.01708,0.0244,0.03904,0.05368,0.05368,0.0488,-0.01952
-0.00976,-0.00244,0.01464,0.01952,0.0244,-0.01708,0.01952,0.04392,0.06344,0.05856,0.0488,-0.00488
0,-0.0122,0.0244,0.0244,0.0244,-0.0122,0.01952,0.04392,0.0732,0.0732,0.05368,0.00488
0.00488,-0.01952,0.03416,0.03172,0.02928,-0.0122,0,0.03904,0.06832,0.06344,0.06344,0.00488
0.01464,-0.02684,0.03904,0.03172,0.0244,-0.00488,0,0.04392,0.06344,0.06832,0.0732,0.00976
0.02928,-0.03904,0.0488,0.03416,0.01952,0.00488,-0.00488,0.05368,0.06344,0.06832,0.06344,0.00488
0.03904,-0.04392,0.0488,0.02928,0.00976,0.01464,-0.00976,0.05856,0.05368,0.06344,0.06832,0.00488
0.04392,-0.04392,0.04392,0.02196,0,0.02196,-0.01952,0.05368,0.03904,0.06344,0.06832,0.00976
0.04392,-0.03904,0.03416,0.0122,-0.00976,0.02684,-0.01952,0.05368,0.0244,0.05368,0.05856,0.00488
0.03904,-0.03172,0.0244,0.00488,-0.01464,0.02684,-0.0244,0.03416,0.0244,0.0488,0.05856,-0.00488
0.02928,-0.02684,0.0244,0.00976,-0.00488,0.01708,-0.02928,0.0244,0.0244,0.0488,0.05368,-0.00488
0.0244,-0.0244,0.0244,0.0122,0,0.0122,-0.0244,0.01952,0.0244,0.03904,0.0488,-0.00488
0.00976,-0.01464,0.01952,0.01464,0.00976,0,-0.0244,0.01464,0.0244,0.04392,0.0488,-0.00488
0.01952,-0.01952,0.01952,0.00976,0,0.00976,-0.01952,0.01464,0.0244,0.02928,0.03416,-0.01464
0.00976,-0.00732,0.00488,0,-0.00488,0.00732,-0.01464,0.01464,0.0244,0.02928,0.03416,-0.01464
0.00488,0.00488,-0.01464,-0.01708,-0.01952,0.0122,0,0.00488,0.01464,0.02928,0.0244,-0.0244
-0.00488,0.00976,-0.01464,-0.0122,-0.00976,0.00244,0,0.00976,0.01464,0.01952,0.0244,-0.0244
-0.01464,0.01708,-0.01952,-0.0122,-0.00488,-0.00488,-0.00488,0.00488,0.00488,0.01952,0.01952,-0.02928
-0.00976,0.01952,-0.02928,-0.0244,-0.01952,0.00488,0.00488,0.00976,0,0.01464,0.01464,-0.03904
-0.00976,0.01952,-0.02928,-0.0244,-0.01952,0.00488,0.00488,0.01952,0.00488,0.00488,0.00976,-0.02928
-0.01464,0.0244,-0.03416,-0.02684,-0.01952,0.00244,0.00976,0.01952,0.00488,0.00976,0.00976,-0.02928
-0.01464,0.02928,-0.04392,-0.0366,-0.02928,0.00732,0.01952,0.01952,0,0.00976,0.01952,-0.03904
-0.0244,0.0366,-0.0488,-0.0366,-0.0244,0,0.01952,0.01952,0,0.00976,0.01952,-0.03904
-0.0244,0.03904,-0.05368,-0.04148,-0.02928,0.00244,0.0244,0.02928,0.00488,0,0.01464,-0.0488
-0.03416,0.04392,-0.05368,-0.0366,-0.01952,-0.00732,0.0244,0.03416,0.01464,0.00976,0.01952,-0.0488
-0.0488,0.05124,-0.05368,-0.02928,-0.00488,-0.02196,0.03416,0.0244,0.01952,0.00976,0.01952,-0.0488
-0.05368,0.05856,-0.06344,-0.0366,-0.00976,-0.02196,0.03416,0.0244,0.01464,0.00976,0.01464,-0.0488
-0.05856,0.06344,-0.06832,-0.03904,-0.00976,-0.0244,0.04392,0.03416,0.01464,0.01952,0.0244,-0.04392
-0.05856,0.06344,-0.06832,-0.03904,-0.00976,-0.0244,0.04392,0.03904,0.01464,0.01464,0.01464,-0.05368
-0.05368,0.061,-0.06832,-0.04148,-0.01464,-0.01952,0.05856,0.03904,0.00976,0.00976,0.00976,-0.06344
-0.05368,0.061,-0.06832,-0.04148,-0.01464,-0.01952,0.05856,0.03904,0.00976,0.00976,0.00976,-0.06344
-0.05856,0.061,-0.06344,-0.03416,-0.00488,-0.02684,0.06832,0.0488,0.00976,0.00976,0.01952,-0.05368
-0.07808,0.07808,-0.07808,-0.03904,0,-0.03904,0.06832,0.0488,0.00976,0.00976,0.01952,-0.05368
-0.06344,0.0732,-0.08296,-0.05124,-0.01952,-0.02196,0.05856,0.04392,0.01464,0.00976,0.00976,-0.06344
-0.06344,0.07076,-0.07808,-0.04636,-0.01464,-0.0244,0.05856,0.03416,0.01464,0.00976,0.01464,-0.05856
-0.05368,0.05856,-0.06344,-0.0366,-0.00976,-0.02196,0.0488,0.02928,0.01464,0.01952,0.01464,-0.05368
-0.05368,0.05856,-0.06344,-0.0366,-0.00976,-0.02196,0.0488,0.02928,0.01464,0.0244,0.01464,-0.05368
-0.06344,0.06344,-0.06344,-0.03172,0,-0.03172,0.05856,0.03904,0.01952,0.03416,0.01952,-0.0488
-0.0732,0.06832,-0.06344,-0.02684,0.00976,-0.04148,0.06832,0.04392,0.03904,0.03904,0.02928,-0.0488
-0.10736,0.08296,-0.05856,-0.00488,0.0488,-0.07808,0.07808,0.0732,0.08296,0.07808,0.05368,-0.03904
-0.11712,0.06344,-0.00976,0.0488,0.10736,-0.11224,0.10736,0.11712,0.15616,0.15128,0.10736,-0.01464
-0.122,0.03172,0.05856,0.11956,0.18056,-0.15128,0.10248,0.13664,0.1952,0.20008,0.16592,0.03416
-0.06344,-0.01708,0.0976,0.12932,0.16104,-0.11224,0.08296,0.16104,0.18544,0.2196,0.18544,0.06832
0.01952,-0.05368,0.08784,0.07808,0.06832,-0.0244,0.05368,0.16104,0.1464,0.18056,0.18056,0.0732
0.13176,-0.15372,0.17568,0.1098,0.04392,0.04392,-0.00976,0.16104,0.12688,0.20008,0.24888,0.15616
0.32696,-0.32696,0.32696,0.16348,0,0.16348,-0.14152,0.0732,0.11224,0.22936,0.31232,0.25376
0.51728,-0.48068,0.44408,0.18544,-0.0732,0.29524,-0.2928,-0.0488,0.04392,0.20008,0.32208,0.32208
0.64904,-0.60024,0.55144,0.22692,-0.0976,0.37332,-0.488,-0.25864,-0.02928,0.1464,0.3172,0.40016
0.74176,-0.65392,0.56608,0.1952,-0.17568,0.45872,-0.56608,-0.38064,-0.15128,0.01464,0.26352,0.4148
0.75152,-0.63684,0.52216,0.1464,-0.22936,0.49044,-0.58072,-0.47824,-0.32696,-0.13176,0.18056,0.4148
0.7564,-0.52216,0.28792,-0.09028,-0.46848,0.61244,-0.52216,-0.46848,-0.52216,-0.35136,-0.00488,0.28304
0.68808,-0.31232,-0.06344,-0.40748,-0.75152,0.7198,-0.38552,-0.38064,-0.64416,-0.55144,-0.25864,0.00976
0.50264,-0.11956,-0.26352,-0.51484,-0.76616,0.6344,-0.26352,-0.32696,-0.74664,-0.64904,-0.38064,-0.11712
0.28792,0.05124,-0.3904,-0.53436,-0.67832,0.48312,-0.11224,-0.27816,-0.72712,-0.6344,-0.41968,-0.21472
0.15616,0.15616,-0.46848,-0.54656,-0.62464,0.3904,-0.03416,-0.22448,-0.66856,-0.62464,-0.47336,-0.30744
0.11224,0.16836,-0.44896,-0.50508,-0.5612,0.33672,0.00976,-0.15128,-0.54656,-0.54168,-0.44408,-0.33184
0.11224,0.122,-0.35624,-0.41236,-0.46848,0.29036,0,-0.0732,-0.41968,-0.42456,-0.366,-0.27816
0.09272,0.0732,-0.23912,-0.28548,-0.33184,0.21228,-0.0244,-0.06344,-0.2928,-0.28304,-0.22936,-0.20496
0.06832,0.061,-0.19032,-0.22448,-0.25864,0.16348,-0.01464,-0.03904,-0.21472,-0.20008,-0.15616,-0.15128
0.02928,0.06588,-0.16104,-0.17568,-0.19032,0.1098,0,-0.00976,-0.15616,-0.14152,-0.122,-0.122
-0.03416,0.09516,-0.15616,-0.13908,-0.122,0.04392,0.02928,0.00976,-0.09272,-0.09272,-0.08296,-0.0976
-0.05368,0.09516,-0.13664,-0.1098,-0.08296,0.01464,0.05368,0.02928,-0.05856,-0.03904,-0.0488,-0.09272
-0.06344,0.0976,-0.13176,-0.10004,-0.06832,0.00244,0.05856,0.0244,-0.03416,-0.02928,-0.0244,-0.09272
-0.06832,0.09028,-0.11224,-0.07808,-0.04392,-0.0122,0.05368,0.02928,-0.00976,-0.01464,-0.01464,-0.06832
-0.06832,0.09028,-0.11224,-0.07808,-0.04392,-0.0122,0.05368,0.03416,-0.00488,-0.00976,-0.01464,-0.0732
-0.09272,0.0976,-0.10248,-0.05612,-0.00976,-0.04148,0.06832,0.04392,0.00976,0,-0.00976,-0.0732
-0.09272,0.0976,-0.10248,-0.05612,-0.00976,-0.04148,0.0732,0.04392,0.00488,0.00488,-0.00488,-0.0732
-0.09272,0.0976,-0.10248,-0.05612,-0.00976,-0.04148,0.06344,0.04392,0.00488,0.00488,-0.00488,-0.06832
-0.09272,0.09516,-0.0976,-0.05124,-0.00488,-0.04392,0.06344,0.04392,0.00976,0.00488,-0.00488,-0.06832
-0.08296,0.0854,-0.08784,-0.04636,-0.00488,-0.03904,0.0732,0.04392,0.00488,0.01464,0.00488,-0.06344
-0.08296,0.0854,-0.08784,-0.04636,-0.00488,-0.03904,0.0732,0.04392,0.01464,0.0244,0.00488,-0.06344
-0.08296,0.09028,-0.0976,-0.05612,-0.01464,-0.03416,0.0732,0.05368,0.01464,0.01464,0.00488,-0.06832
-0.07808,0.0854,-0.09272,-0.05368,-0.01464,-0.03172,0.0732,0.05368,0.00976,0.01464,0.00976,-0.06344
-0.09272,0.09516,-0.0976,-0.05124,-0.00488,-0.04392,0.07808,0.0488,0.00976,0.01464,0,-0.06344
-0.09272,0.09516,-0.0976,-0.05124,-0.00488,-0.04392,0.08296,0.0488,0.00976,0.00976,-0.00488,-0.06344
-0.08784,0.09028,-0.09272,-0.0488,-0.00488,-0.04148,0.07808,0.0488,0.01952,0.00976,0.00976,-0.05368
-0.0732,0.08296,-0.09272,-0.05612,-0.01952,-0.02684,0.07808,0.0488,0.01952,0.01464,0.00976,-0.05368
-0.07808,0.08296,-0.08784,-0.0488,-0.00976,-0.03416,0.0732,0.0488,0.01952,0.01464,0.00976,-0.05368
-0.07808,0.08296,-0.08784,-0.0488,-0.00976,-0.03416,0.0732,0.04392,0.01952,0.00976,0.00976,-0.05368
-0.09272,0.09272,-0.09272,-0.04636,0,-0.04636,0.0732,0.0488,0.01952,0.00976,0.00976,-0.06344
-0.08784,0.09028,-0.09272,-0.0488,-0.00488,-0.04148,0.0732,0.0488,0.01952,0.01464,0.00976,-0.06344
-0.08784,0.09272,-0.0976,-0.05368,-0.00976,-0.03904,0.0732,0.0488,0.00976,0,0.00488,-0.0732
-0.08784,0.0976,-0.10736,-0.06344,-0.01952,-0.03416,0.0732,0.0488,0.00488,0,-0.00488,-0.0732
-0.08784,0.0976,-0.10736,-0.06344,-0.01952,-0.03416,0.0732,0.05368,0.01464,0.00488,0,-0.0732
-0.08784,0.09272,-0.0976,-0.05368,-0.00976,-0.03904,0.0732,0.05368,0.01464,0.01464,0.00976,-0.0732
-0.07808,0.0854,-0.09272,-0.05368,-0.01464,-0.03172,0.0732,0.0488,0.01464,0.00488,0.00976,-0.06832
-0.07808,0.0854,-0.09272,-0.05368,-0.01464,-0.03172,0.0732,0.04392,0.01464,0.00488,0.00976,-0.06832
-0.08784,0.09028,-0.09272,-0.0488,-0.00488,-0.04148,0.07808,0.04392,0.00976,0.00488,0,-0.06832
-0.08784,0.09272,-0.0976,-0.05368,-0.00976,-0.03904,0.08296,0.04392,0.00976,0.00488,0.00488,-0.06344
-0.06832,0.08296,-0.0976,-0.06344,-0.02928,-0.01952,0.0732,0.0488,0,0,-0.00976,-0.06344
-0.07808,0.09028,-0.10248,-0.06344,-0.0244,-0.02684,0.06832,0.0488,0,0,-0.00976,-0.06344
-0.07808,0.0854,-0.09272,-0.05368,-0.01464,-0.03172,0.0732,0.04392,0,0,0,-0.06832
-0.08296,0.08784,-0.09272,-0.05124,-0.00976,-0.0366,0.0732,0.04392,-0.00488,0,0,-0.06832
-0.08296,0.08784,-0.09272,-0.05124,-0.00976,-0.0366,0.06344,0.03416,-0.00488,0,0,-0.06832
-0.07808,0.0854,-0.09272,-0.05368,-0.01464,-0.03172,0.06344,0.03416,-0.00488,0,0,-0.06832
-0.06832,0.0854,-0.10248,-0.06832,-0.03416,-0.01708,0.06832,0.03904,-0.00976,-0.00488,-0.01464,-0.06832
-0.06344,0.08296,-0.10248,-0.07076,-0.03904,-0.0122,0.06344,0.03904,-0.00976,-0.00488,-0.00976,-0.06832
-0.06344,0.0732,-0.08296,-0.05124,-0.01952,-0.02196,0.05368,0.03904,-0.00976,-0.00488,0,-0.06344
-0.06344,0.0732,-0.08296,-0.05124,-0.01952,-0.02196,0.0488,0.02928,-0.01464,-0.00488,0,-0.06344
-0.05856,0.06588,-0.0732,-0.04392,-0.01464,-0.02196,0.03904,0.01952,-0.01464,0.00488,-0.00976,-0.0732
-0.05368,0.06344,-0.0732,-0.04636,-0.01952,-0.01708,0.03416,0.01464,-0.01952,-0.00488,-0.00976,-0.06832
-0.03904,0.06344,-0.08784,-0.06832,-0.0488,0.00488,0.03416,0.0244,-0.01952,-0.00488,-0.00976,-0.06344
-0.03904,0.05856,-0.07808,-0.05856,-0.03904,0,0.02928,0.01464,-0.01464,-0.00976,-0.00488,-0.0488
-0.04392,0.05856,-0.0732,-0.05124,-0.02928,-0.00732,0.0244,0.01464,-0.01952,-0.00976,-0.00488,-0.0488
-0.02928,0.04392,-0.05856,-0.04392,-0.02928,0,0.01464,0.01464,-0.01952,-0.00976,-0.00488,-0.0488
-0.01952,0.03172,-0.04392,-0.03416,-0.0244,0.00244,0,0.00488,-0.00976,0,0.00488,-0.03416
-0.00976,0.01952,-0.02928,-0.0244,-0.01952,0.00488,-0.00976,-0.00488,-0.01464,0.00488,0.01952,-0.0244
0,0.00976,-0.01952,-0.01952,-0.01952,0.00976,-0.01464,-0.00488,-0.02928,-0.00976,0.01952,-0.02928
0.00976,0.00244,-0.01464,-0.01952,-0.0244,0.01708,-0.0244,-0.01464,-0.03904,-0.00976,0.00976,-0.0244
0.02928,-0.01464,0,-0.01464,-0.02928,0.02928,-0.04392,-0.0244,-0.02928,-0.00488,0.00976,-0.0244
0.0488,-0.03416,0.01952,-0.00488,-0.02928,0.03904,-0.05368,-0.03416,-0.02928,0,0.01464,-0.00976
0.0488,-0.03904,0.02928,0.00488,-0.01952,0.03416,-0.05856,-0.02928,-0.02928,0,0.02928,0
0.06832,-0.05368,0.03904,0.00488,-0.02928,0.0488,-0.06832,-0.03416,-0.03904,0,0.02928,0.00488
0.06344,-0.0488,0.03416,0.00244,-0.02928,0.04636,-0.06832,-0.03904,-0.0488,-0.01464,0.01952,0
0.07808,-0.061,0.04392,0.00488,-0.03416,0.05612,-0.07808,-0.0488,-0.0488,-0.01464,0.0244,0
0.08296,-0.06344,0.04392,0.00244,-0.03904,0.061,-0.08784,-0.05368,-0.04392,-0.01464,0.0244,0.00976
0.08296,-0.06588,0.0488,0.00732,-0.03416,0.05856,-0.09272,-0.05368,-0.04392,-0.00976,0.03416,0.01464
0.0976,-0.08052,0.06344,0.01464,-0.03416,0.06588,-0.10248,-0.06832,-0.05368,-0.00488,0.04392,0.0244
0.10248,-0.0854,0.06832,0.01708,-0.03416,0.06832,-0.10736,-0.06832,-0.05368,-0.00488,0.0488,0.02928
0.0976,-0.08296,0.06832,0.01952,-0.02928,0.06344,-0.10248,-0.06344,-0.04392,0.00488,0.0488,0.02928
0.0976,-0.08296,0.06832,0.01952,-0.02928,0.06344,-0.09272,-0.05368,-0.03904,0.00976,0.05856,0.03904
0.0976,-0.07808,0.05856,0.00976,-0.03904,0.06832,-0.08296,-0.05368,-0.03416,0.01464,0.05368,0.03904
0.0976,-0.07808,0.05856,0.00976,-0.03904,0.06832,-0.07808,-0.04392,-0.02928,0.01952,0.05368,0.03904
0.09272,-0.07808,0.06344,0.01708,-0.02928,0.061,-0.06832,-0.03416,-0.01952,0.01952,0.05856,0.03904
0.08296,-0.06832,0.05368,0.0122,-0.02928,0.05612,-0.05856,-0.0244,-0.00976,0.02928,0.05368,0.03416
0.0732,-0.05612,0.03904,0.00244,-0.03416,0.05368,-0.0488,-0.01464,-0.00488,0.03416,0.06832,0.02928
0.06344,-0.05124,0.03904,0.00732,-0.0244,0.04392,-0.03904,-0.00976,0,0.03416,0.06832,0.0244
0.05368,-0.03416,0.01464,-0.0122,-0.03904,0.04636,-0.0244,0,-0.00488,0.03416,0.06344,0.00488
0.03416,-0.01952,0.00488,-0.0122,-0.02928,0.03172,-0.01464,0.00488,0,0.03416,0.0488,0
0.03416,-0.01464,-0.00488,-0.02196,-0.03904,0.0366,-0.00488,0.0244,0.00488,0.03904,0.05368,0
0.01464,0,-0.01464,-0.02196,-0.02928,0.02196,0.00488,0.0244,0.00488,0.03416,0.0488,-0.00976
0.00976,0,-0.00976,-0.01464,-0.01952,0.01464,0.01464,0.0244,0.00488,0.03416,0.0488,-0.01464
0.00976,0.00732,-0.0244,-0.02928,-0.03416,0.02196,0.01952,0.0244,0.00488,0.03416,0.03904,-0.00976
-0.00488,0.01952,-0.03416,-0.03172,-0.02928,0.0122,0.01464,0.02928,0.00976,0.02928,0.03904,-0.01952
-0.01952,0.02928,-0.03904,-0.02928,-0.01952,0,0.0244,0.03416,0.00976,0.02928,0.03904,-0.0244
-0.00976,0.0244,-0.03904,-0.03416,-0.02928,0.00976,0.03416,0.03416,0.00488,0.02928,0.02928,-0.0244
-0.01464,0.02684,-0.03904,-0.03172,-0.0244,0.00488,0.03416,0.03416,0.00488,0.02928,0.02928,-0.0244
-0.01952,0.03172,-0.04392,-0.03416,-0.0244,0.00244,0.03904,0.03904,0.00488,0.02928,0.03904,-0.0244
-0.01952,0.03416,-0.0488,-0.03904,-0.02928,0.00488,0.03904,0.04392,0.00488,0.02928,0.03416,-0.01952
-0.00976,0.03416,-0.05856,-0.05368,-0.0488,0.01952,0.05368,0.04392,0,0.0244,0.02928,-0.02928
-0.01464,0.03416,-0.05368,-0.04636,-0.03904,0.0122,0.05368,0.03904,0,0.01952,0.0244,-0.02928
-0.0244,0.03904,-0.05368,-0.04148,-0.02928,0.00244,0.04392,0.04392,0.00488,0.01952,0.01952,-0.03416
-0.02928,0.04392,-0.05856,-0.04392,-0.02928,0,0.0488,0.03904,0.00488,0.0244,0.01952,-0.03904
-0.01952,0.03416,-0.0488,-0.03904,-0.02928,0.00488,0.0488,0.03904,0,0.01952,0.01952,-0.03904
-0.01952,0.03416,-0.0488,-0.03904,-0.02928,0.00488,0.0488,0.04392,0,0.01952,0.01952,-0.03904
-0.01952,0.03904,-0.05856,-0.0488,-0.03904,0.00976,0.03904,0.02928,-0.00976,0.01952,0.01952,-0.02928
-0.0244,0.04148,-0.05856,-0.04636,-0.03416,0.00488,0.03904,0.02928,-0.00976,0.01952,0.01464,-0.03416
-0.01952,0.03904,-0.05856,-0.0488,-0.03904,0.00976,0.03904,0.03904,0,0.00488,0.00488,-0.04392
-0.03416,0.05368,-0.0732,-0.05612,-0.03904,0.00244,0.03904,0.03904,-0.00488,0,0.00488,-0.04392
-0.01464,0.04392,-0.0732,-0.06588,-0.05856,0.02196,0.0488,0.03904,-0.00488,0.00976,0.01464,-0.0488
-0.01952,0.04636,-0.0732,-0.06344,-0.05368,0.01708,0.0488,0.04392,-0.00488,0.01464,0.00976,-0.0488
-0.00488,0.03416,-0.06344,-0.061,-0.05856,0.02684,0.04392,0.04392,-0.00488,0.01464,0.01464,-0.03904
-0.00488,0.0366,-0.06832,-0.06588,-0.06344,0.02928,0.04392,0.04392,-0.00488,0.01464,0.01464,-0.03904
-0.01464,0.04148,-0.06832,-0.061,-0.05368,0.01952,0.05368,0.0488,0,0,0.01464,-0.03416
-0.01464,0.04148,-0.06832,-0.061,-0.05368,0.01952,0.05368,0.0488,0,0,0.01464,-0.03416
-0.02928,0.05124,-0.0732,-0.05856,-0.04392,0.00732,0.05368,0.03904,0,0.00488,0.00976,-0.04392
-0.0244,0.0488,-0.0732,-0.061,-0.0488,0.0122,0.05368,0.04392,-0.00976,0.00976,0.00488,-0.04392
-0.02928,0.05612,-0.08296,-0.06832,-0.05368,0.0122,0.0488,0.03416,-0.01952,0,0.00488,-0.03416
-0.02928,0.05612,-0.08296,-0.06832,-0.05368,0.0122,0.03904,0.03416,-0.01952,-0.00488,0.00488,-0.03416
-0.02928,0.05856,-0.08784,-0.0732,-0.05856,0.01464,0.03904,0.04392,-0.00976,0.00488,0.00976,-0.0488
-0.02928,0.05856,-0.08784,-0.0732,-0.05856,0.01464,0.0488,0.04392,-0.00976,0.00488,0.00976,-0.0488
-0.0244,0.05124,-0.07808,-0.06588,-0.05368,0.01464,0.04392,0.04392,-0.00976,-0.00488,0,-0.0488
-0.0244,0.05124,-0.07808,-0.06588,-0.05368,0.01464,0.04392,0.04392,-0.00976,0,0,-0.0488
-0.02928,0.05612,-0.08296,-0.06832,-0.05368,0.0122,0.04392,0.04392,0,0.00488,0.00488,-0.03904
-0.03416,0.05856,-0.08296,-0.06588,-0.0488,0.00732,0.04392,0.04392,0,0.00488,0.00488,-0.03904
-0.02928,0.05856,-0.08784,-0.0732,-0.05856,0.01464,0.04392,0.04392,-0.00976,0,0.00488,-0.04392
-0.0244,0.05368,-0.08296,-0.07076,-0.05856,0.01708,0.04392,0.04392,-0.00976,-0.00488,0.00488,-0.0488
-0.03904,0.05856,-0.07808,-0.05856,-0.03904,0,0.03416,0.04392,0,0.00488,0.00488,-0.04392
-0.03904,0.05368,-0.06832,-0.0488,-0.02928,-0.00488,0.03904,0.04392,0,0.00976,0.00488,-0.04392
-0.02928,0.04636,-0.06344,-0.0488,-0.03416,0.00244,0.04392,0.04392,0,0.01952,0.01464,-0.03416
-0.02928,0.04392,-0.05856,-0.04392,-0.02928,0,0.03904,0.03904,0,0.01952,0.0244,-0.02928
-0.03416,0.0488,-0.06344,-0.04636,-0.02928,-0.00244,0.03904,0.03416,0,0.00976,0.02928,-0.0244
-0.03416,0.0488,-0.06344,-0.04636,-0.02928,-0.00244,0.03904,0.03416,0.00488,0.01464,0.01952,-0.0244
-0.01952,0.04392,-0.06832,-0.05856,-0.0488,0.01464,0.04392,0.03904,0.00488,0.01464,0.01464,-0.03416
-0.0244,0.04636,-0.06832,-0.05612,-0.04392,0.00976,0.03904,0.03904,0.00488,0.01464,0.01464,-0.02928
-0.02928,0.04392,-0.05856,-0.04392,-0.02928,0,0.03416,0.04392,-0.00488,0.01464,0.01952,-0.02928
-0.02928,0.04392,-0.05856,-0.04392,-0.02928,0,0.03416,0.03904,-0.00488,0.01464,0.0244,-0.02928
-0.02928,0.0366,-0.04392,-0.02928,-0.01464,-0.00732,0.02928,0.02928,0,0.02928,0.02928,-0.0244
-0.0244,0.03172,-0.03904,-0.02684,-0.01464,-0.00488,0.0244,0.02928,0.01464,0.02928,0.03904,-0.00976
-0.0244,0.0366,-0.0488,-0.0366,-0.0244,0,0.0244,0.03904,0.00976,0.01952,0.04392,-0.01464
-0.01952,0.03416,-0.0488,-0.03904,-0.02928,0.00488,0.0244,0.03904,0.00488,0.01952,0.02928,-0.01464
-0.0244,0.04148,-0.05856,-0.04636,-0.03416,0.00488,0.03904,0.04392,0.00976,0.01952,0.0244,-0.0244
-0.0244,0.04148,-0.05856,-0.04636,-0.03416,0.00488,0.03416,0.04392,0.00488,0.01952,0.02928,-0.0244
-0.01952,0.03416,-0.0488,-0.03904,-0.02928,0.00488,0.02928,0.03904,0.01952,0.02928,0.03904,-0.01464
-0.0244,0.0366,-0.0488,-0.0366,-0.0244,0,0.02928,0.03904,0.01952,0.02928,0.03416,-0.01464
-0.03416,0.04148,-0.0488,-0.03172,-0.01464,-0.00976,0.02928,0.0244,0.00488,0.0244,0.0244,-0.0244
-0.03416,0.04636,-0.05856,-0.04148,-0.0244,-0.00488,0.02928,0.02928,0.00976,0.01464,0.02928,-0.01952
-0.03416,0.0488,-0.06344,-0.04636,-0.02928,-0.00244,0.01952,0.02928,0,0.00976,0.01952,-0.0244
-0.03904,0.05368,-0.06832,-0.0488,-0.02928,-0.00488,0.01952,0.0244,0,0.00976,0.01464,-0.0244
-0.02928,0.04636,-0.06344,-0.0488,-0.03416,0.00244,0.03416,0.03416,0.00976,0.01464,0.01952,-0.01464
-0.02928,0.04392,-0.05856,-0.04392,-0.02928,0,0.03416,0.03416,0.00976,0.0244,0.03416,-0.01464
-0.0244,0.03904,-0.05368,-0.04148,-0.02928,0.00244,0.02928,0.03416,0.00976,0.01952,0.02928,-0.01464
-0.02928,0.04148,-0.05368,-0.03904,-0.0244,-0.00244,0.03416,0.03416,0.00976,0.0244,0.0244,-0.01464
-0.02928,0.04148,-0.05368,-0.03904,-0.0244,-0.00244,0.02928,0.03416,0.00976,0.01952,0.0244,-0.01464
-0.0244,0.0366,-0.0488,-0.0366,-0.0244,0,0.01952,0.0244,0.00976,0.01952,0.0244,-0.01464
-0.01952,0.03416,-0.0488,-0.03904,-0.02928,0.00488,0.01952,0.01952,0,0.0244,0.02928,-0.01464
-0.01952,0.03416,-0.0488,-0.03904,-0.02928,0.00488,0.01952,0.01952,0,0.01952,0.0244,-0.01464
-0.0244,0.04148,-0.05856,-0.04636,-0.03416,0.00488,0.03416,0.01952,0,0.00976,0.0244,-0.01464
-0.03904,0.05612,-0.0732,-0.05368,-0.03416,-0.00244,0.03416,0.03416,0,0.00976,0.0244,-0.01464
-0.03416,0.061,-0.08784,-0.07076,-0.05368,0.00976,0.03416,0.03904,0,0.00976,0.00976,-0.0244
-0.03416,0.05612,-0.07808,-0.061,-0.04392,0.00488,0.03416,0.03904,0,0.00976,0.00976,-0.0244
-0.04392,0.05612,-0.06832,-0.04636,-0.0244,-0.00976,0.02928,0.02928,0.00488,0.00976,0.0244,-0.01464
-0.04392,0.05612,-0.06832,-0.04636,-0.0244,-0.00976,0.0244,0.02928,0.00488,0.01464,0.0244,-0.01464
-0.0488,0.05124,-0.05368,-0.02928,-0.00488,-0.02196,0.0244,0.01952,0.00976,0.0244,0.02928,-0.01464
-0.05368,0.05368,-0.05368,-0.02684,0,-0.02684,0.0244,0.01952,0.00976,0.0244,0.02928,-0.01464
-0.0488,0.05612,-0.06344,-0.03904,-0.01464,-0.01708,0.0244,0.02928,0,0.01952,0.01464,-0.01952
-0.03416,0.04636,-0.05856,-0.04148,-0.0244,-0.00488,0.01952,0.02928,0,0.00976,0.01464,-0.01952
-0.03904,0.04636,-0.05368,-0.03416,-0.01464,-0.0122,0.0244,0.0244,0.00488,0.00488,0.01952,-0.01952
-0.03904,0.04392,-0.0488,-0.02928,-0.00976,-0.01464,0.0244,0.02928,0.00488,0.00976,0.0244,-0.01464
-0.04392,0.04636,-0.0488,-0.02684,-0.00488,-0.01952,0.02928,0.0244,0.00976,0.01464,0.0244,-0.01464
-0.03904,0.0488,-0.05856,-0.03904,-0.01952,-0.00976,0.02928,0.0244,0.00976,0.01464,0.0244,-0.00976
-0.0488,0.05612,-0.06344,-0.03904,-0.01464,-0.01708,0.02928,0.03416,0.01464,0.01464,0.01464,-0.01952
-0.04392,0.05368,-0.06344,-0.04148,-0.01952,-0.0122,0.02928,0.02928,0.00976,0.00976,0.01464,-0.01952
-0.03904,0.05124,-0.06344,-0.04392,-0.0244,-0.00732,0.02928,0.02928,0,0.01464,0.01464,-0.01952
-0.03904,0.05124,-0.06344,-0.04392,-0.0244,-0.00732,0.02928,0.02928,0,0.00976,0.01464,-0.01952
-0.03904,0.05368,-0.06832,-0.0488,-0.02928,-0.00488,0.02928,0.0244,0.00488,0.00976,0.00976,-0.01952
-0.03904,0.05124,-0.06344,-0.04392,-0.0244,-0.00732,0.0244,0.0244,0.00488,0.00976,0.00976,-0.01952
-0.03904,0.0488,-0.05856,-0.03904,-0.01952,-0.00976,0.03416,0.02928,0.01464,0.01952,0.01952,-0.00976
-0.04392,0.05124,-0.05856,-0.0366,-0.01464,-0.01464,0.03416,0.02928,0.01464,0.01952,0.0244,-0.00976
-0.0488,0.0488,-0.0488,-0.0244,0,-0.0244,0.02928,0.0244,0.00488,0.00488,0.01952,-0.01952
-0.04392,0.0488,-0.05368,-0.03172,-0.00976,-0.01708,0.02928,0.0244,0.00488,0.00488,0.01952,-0.01952
-0.04392,0.04636,-0.0488,-0.02684,-0.00488,-0.01952,0.02928,0.02928,0.01464,0.01952,0.01952,-0.01952
-0.03904,0.04392,-0.0488,-0.02928,-0.00976,-0.01464,0.03416,0.02928,0.01464,0.01464,0.01952,-0.01464
-0.02928,0.03416,-0.03904,-0.0244,-0.00976,-0.00976,0.02928,0.02928,0.0244,0.0244,0.01952,-0.00488
-0.03904,0.03904,-0.03904,-0.01952,0,-0.01952,0.0244,0.0244,0.00976,0.0244,0.02928,-0.00976
-0.03904,0.03904,-0.03904,-0.01952,0,-0.01952,0.01464,0.01464,0.00976,0.01464,0.02928,-0.00976
-0.03904,0.03904,-0.03904,-0.01952,0,-0.01952,0.01952,0.0244,0.01464,0.01952,0.01952,-0.00488
-0.03416,0.03172,-0.02928,-0.0122,0.00488,-0.01952,0.01464,0.01952,0.01952,0.0244,0.01952,0.00488
-0.03416,0.02684,-0.01952,-0.00244,0.01464,-0.0244,0.01952,0.00976,0.0244,0.01952,0.02928,0.00976
-0.02928,0.02196,-0.01464,0,0.01464,-0.02196,0.01464,0.00976,0.0244,0.0244,0.02928,0.00976
-0.02928,0.01708,-0.00488,0.00976,0.0244,-0.02684,0.00976,0.01464,0.04392,0.03904,0.0488,0.01464
-0.01952,0.00732,0.00488,0.01464,0.0244,-0.02196,0.00976,0.01464,0.05368,0.05368,0.05368,0.0244
0.00488,-0.01464,0.0244,0.02196,0.01952,-0.00732,0,0.01952,0.0488,0.05368,0.05368,0.0244
0.01464,-0.02196,0.02928,0.02196,0.01464,0,0,0.0244,0.04392,0.05856,0.06344,0.02928
0.00976,-0.01952,0.02928,0.0244,0.01952,-0.00488,-0.00488,0.0244,0.03904,0.05856,0.06344,0.03416
0.01952,-0.0244,0.02928,0.01952,0.00976,0.00488,-0.00976,0.02928,0.03904,0.05368,0.06832,0.03416
0.0244,-0.01952,0.01464,0.00244,-0.00976,0.01708,-0.00976,0.04392,0.01952,0.03416,0.05856,0.02928
0.0244,-0.01464,0.00488,-0.00732,-0.01952,0.02196,-0.00976,0.04392,0.00488,0.0244,0.0488,0.0244
0.02928,-0.02196,0.01464,0,-0.01464,0.02196,-0.01464,0.0244,0.00488,0.02928,0.0488,0.0244
0.01952,-0.01708,0.01464,0.00488,-0.00488,0.0122,-0.01952,0.01464,0.00488,0.02928,0.04392,0.0244
0.01464,-0.0122,0.00976,0.00244,-0.00488,0.00976,-0.0244,0.00976,0.01464,0.01952,0.02928,0.0244
0,0.00244,-0.00488,-0.00488,-0.00488,0.00244,-0.0244,0.00488,0.01464,0.0244,0.02928,0.0244
0.00488,0,-0.00488,-0.00732,-0.00976,0.00732,-0.01952,-0.00488,0.01464,0.02928,0.02928,0.01464
-0.01464,0.0122,-0.00976,-0.00244,0.00488,-0.00976,-0.01464,-0.00488,0.01464,0.02928,0.03904,0.01464
-0.01952,0.01708,-0.01464,-0.00488,0.00488,-0.0122,-0.01952,-0.00488,0.01464,0.01952,0.0244,0.01464
-0.01952,0.01708,-0.01464,-0.00488,0.00488,-0.0122,-0.01952,0,0.01464,0.00976,0.0244,0.01464
-0.00488,0.01708,-0.02928,-0.02684,-0.0244,0.00976,-0.00488,0.00488,-0.00488,0,0.01464,0.00976
0,0.01952,-0.03904,-0.03904,-0.03904,0.01952,0.00488,0.00976,-0.00976,-0.00488,0,0
-0.00488,0.01708,-0.02928,-0.02684,-0.0244,0.00976,0.00488,0,-0.00488,-0.00488,-0.00488,-0.00976
-0.01952,0.02684,-0.03416,-0.0244,-0.01464,-0.00244,0.00976,0,-0.00488,0,0.00488,-0.00976
-0.01464,0.0244,-0.03416,-0.02684,-0.01952,0.00244,0,0,0,-0.00976,0,-0.00976
-0.0244,0.03172,-0.03904,-0.02684,-0.01464,-0.00488,0,0,0,-0.00976,0,-0.00976
-0.0244,0.02928,-0.03416,-0.02196,-0.00976,-0.00732,0.01464,0.01952,0.01464,-0.00488,0.01464,0
-0.03416,0.03416,-0.03416,-0.01708,0,-0.01708,0.01464,0.0244,0.0244,0.01464,0.01952,0
-0.0488,0.04636,-0.04392,-0.01952,0.00488,-0.02684,0.0244,0.0244,0.01952,0.00976,0.01952,0
-0.05368,0.05368,-0.05368,-0.02684,0,-0.02684,0.0244,0.0244,0.01464,0.00976,0.01464,0
-0.05856,0.05856,-0.05856,-0.02928,0,-0.02928,0.03416,0.01464,0.01464,0.01952,0.0244,0.00488
-0.05856,0.05856,-0.05856,-0.02928,0,-0.02928,0.03416,0.01952,0.01464,0.01464,0.01464,-0.00488
-0.06344,0.061,-0.05856,-0.02684,0.00488,-0.03416,0.03904,0.01952,0.01952,0,0,-0.00488
-0.06344,0.061,-0.05856,-0.02684,0.00488,-0.03416,0.03904,0.01952,0.01952,0,0,-0.00488
-0.06344,0.061,-0.05856,-0.02684,0.00488,-0.03416,0.0488,0.01952,0.01952,0,0,-0.00488
-0.0732,0.06832,-0.06344,-0.02684,0.00976,-0.04148,0.0488,0.01952,0.01952,0,0,-0.00488
-0.0732,0.06832,-0.06344,-0.02684,0.00976,-0.04148,0.03904,0.01952,0.01464,0,-0.00976,-0.01464
-0.0732,0.06588,-0.05856,-0.02196,0.01464,-0.04392,0.03904,0.01952,0.01464,0,-0.00488,-0.00976
-0.06344,0.05368,-0.04392,-0.0122,0.01952,-0.04148,0.02928,0.01952,0.01464,0,0.00488,-0.00488
-0.06344,0.05368,-0.04392,-0.0122,0.01952,-0.04148,0.02928,0.01952,0.01464,0.00488,0.00488,-0.00488
-0.05368,0.05368,-0.05368,-0.02684,0,-0.02684,0.03904,0.02928,0.02928,0.00488,0.00976,0
-0.08296,0.06344,-0.04392,-0.00244,0.03904,-0.061,0.05856,0.03416,0.0488,0.01952,0.00976,0
-0.0976,0.06344,-0.02928,0.01952,0.06832,-0.08296,0.07808,0.06344,0.10248,0.06832,0.05368,0
-0.08784,0.03416,0.01952,0.06344,0.10736,-0.0976,0.0976,0.11712,0.16592,0.15128,0.10736,0.0244
-0.09272,0.00244,0.08784,0.1342,0.18056,-0.13664,0.08296,0.11712,0.21472,0.20008,0.1464,0.0732
-0.03416,-0.04636,0.12688,0.14396,0.16104,-0.0976,0.0732,0.13176,0.1952,0.20984,0.1952,0.11712
0.02928,-0.06832,0.10736,0.09272,0.07808,-0.0244,0.05368,0.15128,0.13664,0.15128,0.1708,0.122
0.14152,-0.17324,0.20496,0.1342,0.06344,0.03904,-0.02928,0.11224,0.12688,0.19032,0.23912,0.21472
0.3172,-0.34648,0.37576,0.21716,0.05856,0.12932,-0.16104,0.03416,0.122,0.23912,0.32208,0.3416
0.50752,-0.50996,0.5124,0.25864,0.00488,0.25132,-0.31232,-0.06832,0.0732,0.2196,0.35136,0.41968
0.62952,-0.63928,0.64904,0.33428,0.01952,0.305,-0.488,-0.27816,0.00976,0.18544,0.38552,0.52704
0.70272,-0.71248,0.72224,0.37088,0.01952,0.3416,-0.5856,-0.38064,-0.04392,0.14152,0.40016,0.60024
0.6832,-0.67588,0.66856,0.32696,-0.01464,0.34892,-0.61,-0.47824,-0.18056,0.00488,0.3172,0.61
0.69784,-0.57096,0.44408,0.09516,-0.25376,0.4758,-0.54168,-0.46848,-0.40504,-0.244,0.122,0.47824
0.5612,-0.31232,0.06344,-0.21716,-0.49776,0.52948,-0.366,-0.37088,-0.49776,-0.43432,-0.15128,0.18544
0.38552,-0.12932,-0.12688,-0.31964,-0.5124,0.44896,-0.23424,-0.32696,-0.60024,-0.53192,-0.26352,0.0488
0.1708,0.0854,-0.3416,-0.427,-0.5124,0.3416,-0.09272,-0.25864,-0.63928,-0.60512,-0.3904,-0.12688
0.03904,0.19032,-0.41968,-0.4392,-0.45872,0.24888,-0.00488,-0.20496,-0.58072,-0.5856,-0.44408,-0.22936
0.01464,0.19764,-0.40992,-0.41724,-0.42456,0.2196,0.00976,-0.14152,-0.50752,-0.52216,-0.42456,-0.25376
0.01464,0.16592,-0.34648,-0.3538,-0.36112,0.18788,0.03904,-0.0732,-0.38064,-0.42456,-0.366,-0.22936
0.01464,0.10248,-0.2196,-0.22692,-0.23424,0.12444,0.03416,-0.03416,-0.244,-0.2928,-0.25864,-0.1464
0.03904,0.05612,-0.15128,-0.1708,-0.19032,0.11468,0.00488,-0.02928,-0.1952,-0.20984,-0.18544,-0.10248
-0.02928,0.07564,-0.122,-0.10736,-0.09272,0.03172,0.01952,0,-0.12688,-0.14152,-0.122,-0.06344
-0.04392,0.07076,-0.0976,-0.07564,-0.05368,0.00488,0.01952,-0.00976,-0.05368,-0.08296,-0.08296,-0.05856
-0.05368,0.061,-0.06832,-0.04148,-0.01464,-0.01952,0.04392,0,-0.01952,-0.0488,-0.0488,-0.03416
-0.0732,0.06344,-0.05368,-0.01708,0.01952,-0.04636,0.0488,0.00488,-0.00488,-0.01952,-0.0244,-0.01464
-0.05856,0.05124,-0.04392,-0.01464,0.01464,-0.0366,0.04392,0.00976,0,-0.0244,-0.0244,-0.00976
-0.05856,0.05124,-0.04392,-0.01464,0.01464,-0.0366,0.04392,0.01464,0.00488,-0.01952,-0.0244,-0.01464
-0.06344,0.0488,-0.03416,-0.00244,0.02928,-0.04636,0.0488,0.0244,0.0244,0,-0.00976,-0.00488
-0.06344,0.0488,-0.03416,-0.00244,0.02928,-0.04636,0.05368,0.0244,0.02928,0.00488,-0.00488,-0.00488
-0.0732,0.05856,-0.04392,-0.00732,0.02928,-0.05124,0.04392,0.01464,0.0244,-0.00488,-0.00488,0
-0.0732,0.05612,-0.03904,-0.00244,0.03416,-0.05368,0.04392,0.01464,0.02928,-0.00488,-0.00488,0
-0.0732,0.05612,-0.03904,-0.00244,0.03416,-0.05368,0.05368,0.0244,0.03416,-0.00488,-0.01464,-0.00488
-0.0732,0.05612,-0.03904,-0.00244,0.03416,-0.05368,0.05368,0.0244,0.04392,0.00488,-0.01464,-0.00488
-0.0732,0.05368,-0.03416,0.00244,0.03904,-0.05612,0.05368,0.0244,0.05368,0.01464,-0.00488,0
-0.06832,0.04392,-0.01952,0.01464,0.0488,-0.05856,0.05368,0.0244,0.0488,0.01464,0,0.00488
-0.0732,0.05124,-0.02928,0.00732,0.04392,-0.05856,0.05856,0.01952,0.03904,0.00488,0,-0.00488
-0.0732,0.05124,-0.02928,0.00732,0.04392,-0.05856,0.06344,0.01952,0.03904,0,-0.00488,-0.00488
-0.0732,0.05368,-0.03416,0.00244,0.03904,-0.05612,0.05368,0.00976,0.03904,-0.00976,-0.00488,-0.01464
-0.06832,0.05124,-0.03416,0,0.03416,-0.05124,0.04392,0.00976,0.03904,-0.00488,-0.01464,-0.01464
-0.07808,0.0488,-0.01952,0.01952,0.05856,-0.06832,0.04392,0.01952,0.03904,0.00488,-0.01464,-0.00488
-0.07808,0.0488,-0.01952,0.01952,0.05856,-0.06832,0.04392,0.01464,0.03904,0,-0.00488,-0.00488
-0.07808,0.04636,-0.01464,0.0244,0.06344,-0.07076,0.04392,0.01952,0.03904,0,-0.00976,-0.00488
-0.06344,0.03904,-0.01464,0.01708,0.0488,-0.05612,0.04392,0.01952,0.03904,0.00488,-0.00976,-0.00488
-0.05856,0.03416,-0.00976,0.01952,0.0488,-0.05368,0.04392,0.01952,0.03904,0.00976,0,0.00488
-0.05856,0.02928,0,0.02928,0.05856,-0.05856,0.04392,0.01952,0.03416,0.00976,0,0.00488
-0.05856,0.02928,0,0.02928,0.05856,-0.05856,0.04392,0.00488,0.04392,0,-0.01464,0.00488
-0.05856,0.03416,-0.00976,0.01952,0.0488,-0.05368,0.04392,0.00488,0.04392,0,-0.01464,0.00488
-0.06832,0.04148,-0.01464,0.01952,0.05368,-0.061,0.04392,0.01952,0.04392,-0.00488,-0.00976,-0.00976
-0.06832,0.04148,-0.01464,0.01952,0.05368,-0.061,0.04392,0.01464,0.04392,-0.00488,-0.00976,-0.00976
-0.06832,0.03904,-0.00976,0.0244,0.05856,-0.06344,0.03904,0.00488,0.03904,-0.00488,-0.01952,-0.00976
-0.06832,0.0366,-0.00488,0.02928,0.06344,-0.06588,0.04392,0.00488,0.03904,-0.00488,-0.01464,-0.00488
-0.06832,0.0366,-0.00488,0.02928,0.06344,-0.06588,0.04392,0.00976,0.03904,-0.00976,-0.02928,-0.00488
-0.07808,0.0488,-0.01952,0.01952,0.05856,-0.06832,0.03904,0.00976,0.03904,-0.00976,-0.02928,-0.00488
-0.05856,0.03172,-0.00488,0.0244,0.05368,-0.05612,0.03416,0.00488,0.02928,-0.01952,-0.01952,0
-0.06344,0.03416,-0.00488,0.02684,0.05856,-0.061,0.03416,0.00488,0.0244,-0.01952,-0.01952,0
-0.0732,0.03904,-0.00488,0.03172,0.06832,-0.07076,0.0244,0.00488,0.0244,-0.01952,-0.01952,-0.00976
-0.06832,0.0366,-0.00488,0.02928,0.06344,-0.06588,0.0244,0.00488,0.0244,-0.01952,-0.01952,-0.00976
-0.05856,0.02684,0.00488,0.03416,0.06344,-0.061,0.02928,0.00976,0.02928,-0.01464,-0.01464,0
-0.05368,0.0244,0.00488,0.03172,0.05856,-0.05612,0.0244,0.00976,0.02928,-0.01464,-0.00976,0
-0.05368,0.0244,0.00488,0.03172,0.05856,-0.05612,0.0244,0,0.01952,-0.01952,-0.01464,-0.00488
-0.05368,0.0244,0.00488,0.03172,0.05856,-0.05612,0.01952,-0.00976,0.01464,-0.02928,-0.0244,-0.00488
-0.0488,0.0122,0.0244,0.0488,0.0732,-0.061,0.01952,-0.00976,0.01464,-0.0244,-0.01952,0.00488
-0.04392,0.00976,0.0244,0.04636,0.06832,-0.05612,0.01464,-0.01464,0.00976,-0.03416,-0.01952,0.00976
-0.02928,0.00488,0.01952,0.03416,0.0488,-0.03904,0.00488,-0.01464,0.00976,-0.03416,-0.02928,0.00976
-0.02928,0,0.02928,0.04392,0.05856,-0.04392,0,-0.0244,0.01464,-0.03904,-0.0244,0.01464
-0.0244,0,0.0244,0.0366,0.0488,-0.0366,0.00488,-0.0244,0,-0.03904,-0.03416,0.01952
-0.00976,-0.01464,0.03904,0.04392,0.0488,-0.02928,-0.00488,-0.0244,0,-0.03904,-0.03416,0.01952
-0.00976,-0.0244,0.05856,0.06344,0.06832,-0.03904,-0.01952,-0.03416,0.00976,-0.03904,-0.02928,0.01464
0,-0.03172,0.06344,0.06344,0.06344,-0.03172,-0.02928,-0.04392,0.00488,-0.03416,-0.0244,0.0244
0.01952,-0.04636,0.0732,0.06344,0.05368,-0.01708,-0.04392,-0.05368,0,-0.03904,-0.0244,0.03904
0.02928,-0.05856,0.08784,0.0732,0.05856,-0.01464,-0.05368,-0.06344,-0.00976,-0.03904,-0.0244,0.04392
0.02928,-0.06344,0.0976,0.08296,0.06832,-0.01952,-0.06344,-0.06344,-0.01952,-0.04392,-0.00976,0.04392
0.0488,-0.08296,0.11712,0.09272,0.06832,-0.00976,-0.0732,-0.0732,-0.01952,-0.03904,-0.00488,0.05856
0.03904,-0.08296,0.12688,0.10736,0.08784,-0.0244,-0.08784,-0.08784,-0.01952,-0.0488,0,0.06832
0.05856,-0.0976,0.13664,0.10736,0.07808,-0.00976,-0.0976,-0.09272,-0.02928,-0.0488,0,0.0732
0.0732,-0.10736,0.14152,0.10492,0.06832,0.00244,-0.11712,-0.0976,-0.01952,-0.0488,0.00976,0.08784
0.08784,-0.12932,0.1708,0.12688,0.08296,0.00244,-0.12688,-0.10736,-0.01952,-0.03904,0.01464,0.08784
0.09272,-0.13664,0.18056,0.1342,0.08784,0.00244,-0.12688,-0.11224,-0.03416,-0.04392,0.00488,0.0976
0.09272,-0.13908,0.18544,0.13908,0.09272,0,-0.13176,-0.11224,-0.03416,-0.03904,0.01464,0.10248
0.08784,-0.1342,0.18056,0.13664,0.09272,-0.00244,-0.13176,-0.11712,-0.0244,-0.04392,0.00488,0.09272
0.09272,-0.13908,0.18544,0.13908,0.09272,0,-0.13664,-0.11712,-0.0244,-0.04392,0.00976,0.0976
0.10736,-0.15128,0.1952,0.14152,0.08784,0.00976,-0.14152,-0.11224,-0.0244,-0.03416,0.01952,0.0976
0.10736,-0.15128,0.1952,0.14152,0.08784,0.00976,-0.13176,-0.10248,-0.01952,-0.02928,0.02928,0.10736
0.08784,-0.14152,0.1952,0.15128,0.10736,-0.00976,-0.122,-0.10248,-0.01464,-0.0244,0.03416,0.10736
0.08784,-0.14152,0.1952,0.15128,0.10736,-0.00976,-0.11712,-0.09272,-0.00976,-0.01952,0.03416,0.10736
0.08296,-0.13664,0.19032,0.14884,0.10736,-0.0122,-0.10736,-0.09272,0,-0.00976,0.03904,0.10736
0.0732,-0.12688,0.18056,0.14396,0.10736,-0.01708,-0.0976,-0.08296,0.00976,0,0.03416,0.10248
0.05368,-0.11468,0.17568,0.14884,0.122,-0.03416,-0.0976,-0.06344,0.0244,0.01464,0.0488,0.0976
0.04392,-0.1098,0.17568,0.15372,0.13176,-0.04392,-0.08784,-0.05856,0.02928,0.01464,0.0488,0.09272
0.03904,-0.09516,0.15128,0.13176,0.11224,-0.0366,-0.06344,-0.0488,0.0244,0.00488,0.03904,0.08296
0.02928,-0.0854,0.14152,0.12688,0.11224,-0.04148,-0.05368,-0.04392,0.02928,0.00488,0.03416,0.07808
0.03416,-0.08784,0.14152,0.12444,0.10736,-0.0366,-0.05368,-0.03416,0.04392,0.01952,0.04392,0.07808
0.01464,-0.0732,0.13176,0.12444,0.11712,-0.05124,-0.04392,-0.03416,0.04392,0.01464,0.03904,0.06832
0,-0.061,0.122,0.122,0.122,-0.061,-0.03416,-0.0244,0.04392,0.00488,0.02928,0.05856
0,-0.0488,0.0976,0.0976,0.0976,-0.0488,-0.02928,-0.0244,0.04392,0.00488,0.01952,0.05368
-0.00488,-0.04392,0.09272,0.09516,0.0976,-0.05124,-0.01464,-0.01952,0.03904,0,0.00976,0.03904
-0.01952,-0.03416,0.08784,0.0976,0.10736,-0.06344,-0.00488,-0.01464,0.03904,0,0.00976,0.03416
-0.00976,-0.03416,0.07808,0.08296,0.08784,-0.0488,-0.00488,-0.00488,0.04392,0,0.00976,0.03416
-0.01464,-0.03172,0.07808,0.0854,0.09272,-0.05368,-0.00488,-0.00488,0.04392,0,0.00976,0.03416
-0.01952,-0.03172,0.08296,0.09272,0.10248,-0.061,-0.00976,-0.00488,0.04392,0,0.00976,0.0244
-0.01952,-0.02928,0.07808,0.08784,0.0976,-0.05856,-0.00976,-0.00976,0.04392,0,0.00488,0.02928
-0.01952,-0.02928,0.07808,0.08784,0.0976,-0.05856,-0.00488,-0.01464,0.03904,0.00488,0,0.02928
-0.0244,-0.02928,0.08296,0.09516,0.10736,-0.06588,-0.00488,-0.01952,0.03904,0,-0.00488,0.02928
-0.01952,-0.0366,0.09272,0.10248,0.11224,-0.06588,-0.00488,-0.00488,0.04392,0,-0.00488,0.0244
-0.01464,-0.0366,0.08784,0.09516,0.10248,-0.05856,0,-0.00976,0.04392,0.00488,0.00488,0.01952
-0.01952,-0.03172,0.08296,0.09272,0.10248,-0.061,0.00976,-0.00976,0.03904,0,0,0.01952
-0.01952,-0.02684,0.0732,0.08296,0.09272,-0.05612,0.00976,-0.00488,0.03904,0,0,0.01952
-0.02928,-0.01952,0.06832,0.08296,0.0976,-0.06344,0,-0.00976,0.03904,0,0,0.01952
-0.03416,-0.01708,0.06832,0.0854,0.10248,-0.06832,0,-0.00976,0.03904,0,-0.00488,0.01464
-0.01952,-0.0244,0.06832,0.07808,0.08784,-0.05368,0.00976,-0.00976,0.03904,-0.00488,-0.01464,0.0244
-0.03416,-0.00976,0.05368,0.07076,0.08784,-0.061,0.00976,-0.00976,0.03416,-0.00976,-0.01464,0.0244
-0.00976,-0.02196,0.05368,0.05856,0.06344,-0.0366,0.00976,-0.00976,0.03416,-0.00976,-0.01464,0.00976
-0.0244,-0.01464,0.05368,0.06588,0.07808,-0.05124,0.00976,-0.00488,0.03416,-0.00488,-0.01952,0.00976
-0.02928,-0.00732,0.04392,0.05856,0.0732,-0.05124,0.01464,-0.00488,0.04392,-0.00488,-0.01464,0.00976
-0.03904,0,0.03904,0.05856,0.07808,-0.05856,0.01464,-0.00488,0.04392,-0.00488,-0.01464,0.00976
-0.04392,0.00244,0.03904,0.061,0.08296,-0.06344,0.01464,0,0.02928,-0.00976,-0.01464,0.00488
-0.04392,0.00244,0.03904,0.061,0.08296,-0.06344,0.01464,0,0.02928,-0.00976,-0.01464,0.00488
-0.0488,0.00244,0.04392,0.06832,0.09272,-0.07076,0.01464,-0.00976,0.03416,-0.00488,-0.00976,0.00488
-0.04392,0,0.04392,0.06588,0.08784,-0.06588,0.01464,-0.00488,0.03416,0,-0.01464,0.00488
-0.0488,0.00732,0.03416,0.05856,0.08296,-0.06588,0.01464,-0.00488,0.03904,0,-0.01464,0.00488
-0.0488,0.00732,0.03416,0.05856,0.08296,-0.06588,0.01464,-0.00488,0.03904,-0.00488,-0.01464,0.00488
-0.04392,0.00488,0.03416,0.05612,0.07808,-0.061,0.00488,-0.00488,0.03904,-0.00488,-0.00976,0.00976
-0.03416,-0.00488,0.04392,0.061,0.07808,-0.05612,0.00488,-0.00488,0.03904,-0.00488,-0.00976,0.00976
-0.03416,-0.00732,0.0488,0.06588,0.08296,-0.05856,0.00488,-0.00488,0.03904,-0.00488,-0.00976,0.00976
-0.03416,-0.00732,0.0488,0.06588,0.08296,-0.05856,0.00488,-0.00488,0.03904,0,-0.00976,0.00976
-0.04392,0.00488,0.03416,0.05612,0.07808,-0.061,0.01464,-0.00488,0.02928,-0.01464,-0.01464,0
-0.03904,0.00244,0.03416,0.05368,0.0732,-0.05612,0.01464,-0.00488,0.02928,-0.01464,-0.01464,0
-0.0488,0.00488,0.03904,0.06344,0.08784,-0.06832,0.01464,-0.00488,0.02928,-0.00976,-0.01464,0.00488
-0.04392,0,0.04392,0.06588,0.08784,-0.06588,0.01464,-0.00488,0.02928,-0.01464,-0.01464,0
-0.03904,-0.00488,0.0488,0.06832,0.08784,-0.06344,0.01464,-0.00488,0.02928,-0.01464,-0.01464,0.01464
-0.03904,-0.00976,0.05856,0.07808,0.0976,-0.06832,0.01952,-0.00488,0.02928,-0.00976,-0.01464,0.01464
-0.02928,-0.0122,0.05368,0.06832,0.08296,-0.05612,0.00488,-0.00488,0.02928,0,-0.00976,0.01464
-0.02928,-0.01464,0.05856,0.0732,0.08784,-0.05856,0,-0.00976,0.02928,0,-0.00976,0.01952
-0.01464,-0.0244,0.06344,0.07076,0.07808,-0.04636,0,-0.00488,0.02928,-0.00976,-0.00488,0.0244
-0.01464,-0.0244,0.06344,0.07076,0.07808,-0.04636,0,-0.00488,0.03416,-0.00488,-0.00488,0.0244
-0.01952,-0.0244,0.06832,0.07808,0.08784,-0.05368,-0.00488,-0.01952,0.0244,-0.00488,-0.00488,0.0244
-0.0244,-0.02196,0.06832,0.08052,0.09272,-0.05856,-0.00976,-0.01952,0.0244,-0.00488,-0.00488,0.02928
-0.02928,-0.01464,0.05856,0.0732,0.08784,-0.05856,-0.00488,-0.01464,0.0244,-0.00488,-0.00976,0.01952
-0.02928,-0.01464,0.05856,0.0732,0.08784,-0.05856,-0.00488,-0.01952,0.0244,-0.00488,-0.00488,0.01952
-0.01952,-0.01708,0.05368,0.06344,0.0732,-0.04636,0,-0.01952,0.01464,-0.00976,-0.00488,0.01952
-0.01464,-0.02196,0.05856,0.06588,0.0732,-0.04392,-0.00488,-0.01952,0.01952,-0.00976,-0.00488,0.0244
-0.0244,-0.01708,0.05856,0.07076,0.08296,-0.05368,-0.00488,-0.00976,0.02928,0,0,0.0244
-0.01952,-0.01952,0.05856,0.06832,0.07808,-0.0488,-0.00488,-0.00976,0.0244,0,-0.00488,0.0244
-0.0244,-0.02196,0.06832,0.08052,0.09272,-0.05856,0,-0.01464,0.02928,0,-0.00488,0.0244
-0.0244,-0.02196,0.06832,0.08052,0.09272,-0.05856,-0.00488,-0.01464,0.0244,0,0,0.0244
-0.00976,-0.03416,0.07808,0.08296,0.08784,-0.0488,-0.00976,-0.00976,0.02928,0,0,0.03416
-0.01464,-0.03172,0.07808,0.0854,0.09272,-0.05368,-0.00976,-0.00976,0.02928,0,-0.00488,0.03416
-0.01464,-0.02684,0.06832,0.07564,0.08296,-0.0488,0,-0.01464,0.0244,0,-0.00488,0.02928
-0.01464,-0.02196,0.05856,0.06588,0.0732,-0.04392,0,-0.00976,0.02928,0,0,0.0244
-0.01952,-0.01708,0.05368,0.06344,0.0732,-0.04636,0,-0.00976,0.02928,0,0,0.0244
-0.03416,-0.00732,0.0488,0.06588,0.08296,-0.05856,0,-0.01464,0.02928,0,-0.00488,0.0244
-0.03416,-0.00976,0.05368,0.07076,0.08784,-0.061,0.00488,-0.00488,0.02928,0,-0.00488,0.01464
-0.0244,-0.01708,0.05856,0.07076,0.08296,-0.05368,0.00488,-0.00488,0.02928,0,0,0.01464
-0.0244,-0.01708,0.05856,0.07076,0.08296,-0.05368,-0.00976,-0.01464,0.02928,0,0.00976,0.0244
-0.02928,-0.01952,0.06832,0.08296,0.0976,-0.06344,-0.00488,-0.01464,0.02928,0.00488,0.00488,0.0244
-0.02928,-0.01952,0.06832,0.08296,0.0976,-0.06344,0.00976,-0.00976,0.02928,0,-0.00488,0.01464
-0.0244,-0.01952,0.06344,0.07564,0.08784,-0.05612,0,-0.00976,0.02928,0,-0.00488,0.01464
-0.02928,-0.01464,0.05856,0.0732,0.08784,-0.05856,0,0,0.02928,0.00488,0,0.01464
-0.02928,-0.01464,0.05856,0.0732,0.08784,-0.05856,0,0,0.02928,0,-0.00488,0.01464
-0.02928,-0.01952,0.06832,0.08296,0.0976,-0.06344,0.00488,-0.00488,0.03904,0,-0.00488,0.01464
-0.03416,-0.00976,0.05368,0.07076,0.08784,-0.061,0.00488,0,0.03904,0,-0.00488,0.01464
-0.04392,0.00244,0.03904,0.061,0.08296,-0.06344,0.00488,-0.01952,0.02928,0,-0.00976,0.00488
-0.0244,-0.0122,0.0488,0.061,0.0732,-0.0488,0.01464,0,0.03904,0,0,0.0244
-0.0488,0.00488,0.03904,0.06344,0.08784,-0.06832,0.01952,0,0.03904,0.00976,0,0.00976
-0.03904,-0.00976,0.05856,0.07808,0.0976,-0.06832,0.00976,0,0.03904,0.00976,0,0.01952
-0.03904,-0.01464,0.06832,0.08784,0.10736,-0.0732,0,0,0.03904,0.00976,0,0.01952
-0.03904,-0.01464,0.06832,0.08784,0.10736,-0.0732,0.00488,0.00488,0.05856,0.01464,0,0.01464
-0.03416,-0.0244,0.08296,0.10004,0.11712,-0.07564,0.00488,0,0.06832,0.01952,0.00488,0.02928
-0.01952,-0.03172,0.08296,0.09272,0.10248,-0.061,-0.01464,0,0.06344,0.0244,0.00976,0.02928
-0.00976,-0.0366,0.08296,0.08784,0.09272,-0.05124,-0.01464,-0.00488,0.06832,0.02928,0.00976,0.03416
0,-0.05368,0.10736,0.10736,0.10736,-0.05368,-0.00976,-0.00488,0.07808,0.0488,0.03416,0.03416
0.0244,-0.07076,0.11712,0.10492,0.09272,-0.03416,-0.01464,0,0.08296,0.05368,0.03416,0.04392
0.01952,-0.07808,0.13664,0.12688,0.11712,-0.0488,-0.01952,-0.00976,0.0976,0.05856,0.03904,0.05368
0.00976,-0.07808,0.1464,0.14152,0.13664,-0.06344,-0.0244,-0.00488,0.09272,0.05856,0.04392,0.05856
0.01952,-0.07808,0.13664,0.12688,0.11712,-0.0488,-0.03416,0.00488,0.06832,0.0488,0.03416,0.05368
0.0244,-0.07076,0.11712,0.10492,0.09272,-0.03416,-0.03904,0.00976,0.05856,0.02928,0.03904,0.0488
0.03416,-0.07076,0.10736,0.09028,0.0732,-0.01952,-0.02928,0.00488,0.04392,0.02928,0.0244,0.0488
0.03904,-0.07076,0.10248,0.08296,0.06344,-0.0122,-0.03416,0,0.03416,0.01952,0.01952,0.04392
0.02928,-0.07076,0.11224,0.0976,0.08296,-0.02684,-0.03904,0,0.04392,0.02928,0.02928,0.05368
0.02928,-0.07076,0.11224,0.0976,0.08296,-0.02684,-0.04392,-0.01464,0.04392,0.02928,0.0244,0.05368
0.01952,-0.06344,0.10736,0.0976,0.08784,-0.03416,-0.04392,-0.0244,0.03416,0.01952,0.01952,0.04392
0.0244,-0.06588,0.10736,0.09516,0.08296,-0.02928,-0.03904,-0.0244,0.03416,0.0244,0.01952,0.03904
0.00488,-0.04636,0.08784,0.0854,0.08296,-0.03904,-0.0244,-0.0244,0.04392,0.01952,0.01464,0.03416
-0.01952,-0.02928,0.07808,0.08784,0.0976,-0.05856,-0.0244,-0.03416,0.04392,0.01952,0.00976,0.03416
-0.00976,-0.0366,0.08296,0.08784,0.09272,-0.05124,-0.02928,-0.02928,0.04392,0,0.00488,0.0244
0.00488,-0.04636,0.08784,0.0854,0.08296,-0.03904,-0.02928,-0.0244,0.04392,0,0.00488,0.0244
-0.00488,-0.03416,0.0732,0.07564,0.07808,-0.04148,-0.0244,-0.01952,0.03904,0.00488,-0.00488,0.01464
0,-0.03416,0.06832,0.06832,0.06832,-0.03416,-0.01464,-0.01952,0.03904,-0.00488,-0.00488,0.00976
-0.00976,-0.02196,0.05368,0.05856,0.06344,-0.0366,-0.01464,-0.01952,0.0244,-0.01464,-0.01952,0
-0.0244,-0.00976,0.04392,0.05612,0.06832,-0.04636,-0.00976,-0.01952,0.02928,-0.00976,-0.01952,0
-0.01952,-0.0122,0.04392,0.05368,0.06344,-0.04148,-0.00976,-0.01952,0.02928,-0.00976,-0.00976,0
-0.0244,-0.00732,0.03904,0.05124,0.06344,-0.04392,0,-0.00976,0.03416,-0.00976,-0.00976,0
-0.02928,-0.0122,0.05368,0.06832,0.08296,-0.05612,0.00488,-0.00976,0.03416,0.00976,0,0.00976
-0.02928,-0.01708,0.06344,0.07808,0.09272,-0.061,0.01464,-0.00488,0.03904,0.00976,0,0.00976
-0.05368,0.00244,0.0488,0.07564,0.10248,-0.07808,0.0244,-0.00488,0.0488,0.00976,-0.00976,0
-0.05856,0.01464,0.02928,0.05856,0.08784,-0.0732,0.03416,-0.00488,0.04392,0.00976,-0.01464,-0.00488
-0.05856,0.0244,0.00976,0.03904,0.06832,-0.06344,0.0244,-0.00488,0.03416,-0.00488,-0.0244,-0.0244
-0.05856,0.02928,0,0.02928,0.05856,-0.05856,0.0244,0,0.01952,-0.01952,-0.03416,-0.0244
-0.0732,0.03172,0.00976,0.04636,0.08296,-0.07808,0.02928,-0.00976,0.02928,-0.00976,-0.02928,-0.01464
-0.0732,0.02928,0.01464,0.05124,0.08784,-0.08052,0.02928,-0.00976,0.03904,0,-0.02928,-0.01464
-0.06344,0.02196,0.01952,0.05124,0.08296,-0.0732,0.02928,0,0.03904,0,-0.02928,-0.0244
-0.05368,0.01952,0.01464,0.04148,0.06832,-0.061,0.02928,0,0.04392,0,-0.02928,-0.0244
-0.06344,0.0244,0.01464,0.04636,0.07808,-0.07076,0.02928,-0.00976,0.03416,-0.00976,-0.0244,-0.0244
-0.06344,0.02196,0.01952,0.05124,0.08296,-0.0732,0.02928,-0.00976,0.03416,-0.00976,-0.0244,-0.01952
-0.06344,0.01952,0.0244,0.05612,0.08784,-0.07564,0.02928,0,0.04392,0.00488,-0.01464,-0.01464
-0.06344,0.01952,0.0244,0.05612,0.08784,-0.07564,0.02928,0,0.04392,0.01464,-0.00976,-0.00488
-0.06832,0.0244,0.01952,0.05368,0.08784,-0.07808,0.02928,0.00488,0.0488,0.00488,-0.01464,-0.01952
-0.08784,0.03172,0.0244,0.06832,0.11224,-0.10004,0.04392,0.01952,0.0732,0.03904,0.00488,0
-0.0976,0.02684,0.04392,0.09272,0.14152,-0.11956,0.06344,0.05368,0.122,0.08784,0.02928,-0.00488
-0.0976,0.00732,0.08296,0.13176,0.18056,-0.13908,0.08784,0.0976,0.20008,0.15128,0.07808,0.00976
-0.07808,-0.03904,0.15616,0.1952,0.23424,-0.15616,0.0732,0.0976,0.22448,0.20008,0.1464,0.06344
-0.01464,-0.09272,0.20008,0.2074,0.21472,-0.11468,0.05856,0.13176,0.21472,0.20984,0.16592,0.10736
0.0488,-0.122,0.1952,0.1708,0.1464,-0.0488,0.0244,0.12688,0.17568,0.19032,0.17568,0.14152
0.21472,-0.27816,0.3416,0.23424,0.12688,0.04392,-0.08296,0.06344,0.16104,0.22936,0.244,0.244
0.38064,-0.4514,0.52216,0.33184,0.14152,0.11956,-0.21472,-0.01464,0.15616,0.2684,0.3416,0.38064
0.52216,-0.57584,0.62952,0.36844,0.10736,0.2074,-0.38064,-0.1708,0.06832,0.2196,0.36112,0.45872
0.63928,-0.6954,0.75152,0.43188,0.11224,0.26352,-0.5368,-0.35136,0.00488,0.1708,0.37576,0.55144
0.69296,-0.71492,0.73688,0.3904,0.04392,0.32452,-0.59048,-0.45384,-0.122,0.03416,0.31232,0.57096
0.71736,-0.70028,0.6832,0.32452,-0.03416,0.37576,-0.59536,-0.52704,-0.29768,-0.122,0.2196,0.56608
0.67832,-0.5246,0.37088,0.03172,-0.30744,0.49288,-0.50264,-0.47336,-0.488,-0.35624,-0.00976,0.37576
0.59048,-0.29768,0.00488,-0.29036,-0.5856,0.58804,-0.32696,-0.3416,-0.61976,-0.55632,-0.2684,0.0976
0.38552,-0.0976,-0.19032,-0.38308,-0.57584,0.48068,-0.21472,-0.32208,-0.68808,-0.6344,-0.38064,-0.0488
0.2196,0.061,-0.3416,-0.4514,-0.5612,0.3904,-0.07808,-0.25376,-0.66368,-0.6344,-0.4392,-0.19032
0.08296,0.15372,-0.3904,-0.43188,-0.47336,0.27816,-0.00488,-0.1952,-0.5856,-0.59536,-0.48312,-0.28304
0.0732,0.13664,-0.34648,-0.38308,-0.41968,0.24644,0.00976,-0.122,-0.47824,-0.52216,-0.4636,-0.28304
0.08296,0.09272,-0.2684,-0.30988,-0.35136,0.21716,-0.00488,-0.09272,-0.3416,-0.40992,-0.38552,-0.22936
0.07808,0.02684,-0.13176,-0.1708,-0.20984,0.14396,-0.01464,-0.05368,-0.20984,-0.25376,-0.23912,-0.14152
0.0488,0.02684,-0.10248,-0.12688,-0.15128,0.10004,-0.00488,-0.0488,-0.1464,-0.18544,-0.1708,-0.11712
-0.01464,0.0488,-0.08296,-0.07564,-0.06832,0.02684,0.00488,-0.02928,-0.10248,-0.12688,-0.12688,-0.08296
-0.03904,0.05368,-0.06832,-0.0488,-0.02928,-0.00488,0.02928,-0.01952,-0.04392,-0.10248,-0.122,-0.07808
-0.05856,0.05124,-0.04392,-0.01464,0.01464,-0.0366,0.03416,-0.00976,0,-0.03904,-0.06832,-0.06832
-0.06832,0.04392,-0.01952,0.01464,0.0488,-0.05856,0.04392,0.00976,0.01952,-0.00976,-0.04392,-0.05856
-0.05856,0.0366,-0.01464,0.01464,0.04392,-0.05124,0.04392,0,0.01952,-0.01464,-0.05368,-0.03904
-0.06832,0.04148,-0.01464,0.01952,0.05368,-0.061,0.0488,0.00976,0.0244,-0.01464,-0.0488,-0.04392
-0.0732,0.04392,-0.01464,0.02196,0.05856,-0.06588,0.05368,0.01464,0.03904,-0.00976,-0.03416,-0.04392
-0.0732,0.04392,-0.01464,0.02196,0.05856,-0.06588,0.05368,0.01464,0.03416,-0.00488,-0.03416,-0.04392
-0.0732,0.04148,-0.00976,0.02684,0.06344,-0.06832,0.04392,0.01464,0.03904,-0.00488,-0.0244,-0.03904
-0.0732,0.04148,-0.00976,0.02684,0.06344,-0.06832,0.04392,0.01464,0.03904,-0.00488,-0.0244,-0.03416
-0.08296,0.04636,-0.00976,0.03172,0.0732,-0.07808,0.05368,0.01464,0.0488,0,-0.0244,-0.03416
-0.08296,0.04636,-0.00976,0.03172,0.0732,-0.07808,0.05368,0.01464,0.05368,0.00488,-0.0244,-0.03416
-0.08296,0.04392,-0.00488,0.0366,0.07808,-0.08052,0.05368,0.01464,0.0488,0.00488,-0.0244,-0.03904
-0.07808,0.04148,-0.00488,0.03416,0.0732,-0.07564,0.05368,0.01952,0.0488,0.00488,-0.01952,-0.03416
-0.0732,0.04148,-0.00976,0.02684,0.06344,-0.06832,0.05856,0.01952,0.05856,0.00976,-0.0244,-0.03416
-0.0732,0.03904,-0.00488,0.03172,0.06832,-0.07076,0.06344,0.01952,0.05856,0.00976,-0.0244,-0.03416
-0.06832,0.04148,-0.01464,0.01952,0.05368,-0.061,0.0488,0.01952,0.0488,0.00488,-0.01952,-0.04392
-0.06832,0.03904,-0.00976,0.0244,0.05856,-0.06344,0.04392,0.01952,0.0488,0.00488,-0.01952,-0.04392
-0.06832,0.03904,-0.00976,0.0244,0.05856,-0.06344,0.04392,0.01464,0.05856,0.01464,-0.01952,-0.03416
-0.0732,0.04148,-0.00976,0.02684,0.06344,-0.06832,0.04392,0.01952,0.05856,0.00976,-0.01952,-0.03416
-0.0732,0.03904,-0.00488,0.03172,0.06832,-0.07076,0.04392,0.01952,0.0488,0.00976,-0.01952,-0.03416
-0.06832,0.0366,-0.00488,0.02928,0.06344,-0.06588,0.04392,0.01952,0.0488,0.01464,-0.01952,-0.03416
-0.06832,0.04148,-0.01464,0.01952,0.05368,-0.061,0.05368,0.02928,0.0488,0.00976,-0.01952,-0.03416
-0.06832,0.04148,-0.01464,0.01952,0.05368,-0.061,0.05368,0.0244,0.04392,0.00976,-0.0244,-0.03416
-0.06832,0.04636,-0.0244,0.00976,0.04392,-0.05612,0.05368,0.0244,0.04392,0,-0.03416,-0.04392
-0.06832,0.04636,-0.0244,0.00976,0.04392,-0.05612,0.05368,0.02928,0.04392,-0.00488,-0.03416,-0.0488
-0.07808,0.05124,-0.0244,0.01464,0.05368,-0.06588,0.05368,0.0244,0.04392,-0.00488,-0.02928,-0.0488
-0.07808,0.05124,-0.0244,0.01464,0.05368,-0.06588,0.0488,0.0244,0.04392,-0.00488,-0.02928,-0.0488
-0.06832,0.04392,-0.01952,0.01464,0.0488,-0.05856,0.0488,0.01464,0.03904,0.00488,-0.02928,-0.04392
-0.06832,0.04392,-0.01952,0.01464,0.0488,-0.05856,0.05368,0.01464,0.03904,0.00488,-0.0244,-0.04392
-0.05856,0.0366,-0.01464,0.01464,0.04392,-0.05124,0.03904,0.01952,0.03904,0,-0.01952,-0.04392
-0.0488,0.0244,0,0.0244,0.0488,-0.0488,0.03904,0.01464,0.03904,0,-0.01952,-0.04392
-0.06344,0.03416,-0.00488,0.02684,0.05856,-0.061,0.03416,0.01464,0.03904,0,-0.02928,-0.03904
-0.06344,0.03904,-0.01464,0.01708,0.0488,-0.05612,0.03416,0.01464,0.03416,0,-0.03904,-0.03904
-0.05368,0.03416,-0.01464,0.0122,0.03904,-0.04636,0.04392,0.01464,0.03416,-0.00976,-0.03904,-0.0488
-0.0488,0.03172,-0.01464,0.00976,0.03416,-0.04148,0.0488,0.00976,0.02928,-0.00976,-0.03904,-0.0488
-0.05368,0.03904,-0.0244,0.00244,0.02928,-0.04148,0.0488,0.00976,0.02928,-0.00488,-0.03416,-0.03904
-0.05368,0.0366,-0.01952,0.00732,0.03416,-0.04392,0.04392,0.00976,0.02928,-0.00488,-0.02928,-0.03904
-0.05368,0.03416,-0.01464,0.0122,0.03904,-0.04636,0.02928,0,0.0244,-0.00488,-0.02928,-0.03416
-0.05368,0.03416,-0.01464,0.0122,0.03904,-0.04636,0.02928,0,0.0244,-0.00488,-0.02928,-0.03416
-0.04392,0.0244,-0.00488,0.01708,0.03904,-0.04148,0.0244,0,0.0244,-0.01464,-0.02928,-0.03904
-0.03904,0.0244,-0.00976,0.00976,0.02928,-0.03416,0.01464,-0.00488,0.01952,-0.01464,-0.02928,-0.03904
-0.0488,0.0244,0,0.0244,0.0488,-0.0488,0.01464,-0.00976,0.03416,-0.00488,-0.0244,-0.03416
-0.04392,0.01952,0.00488,0.02684,0.0488,-0.04636,0.00488,-0.01464,0.02928,-0.00976,-0.0244,-0.03416
-0.0244,0,0.0244,0.0366,0.0488,-0.0366,0,-0.01464,0.01952,0,-0.0244,-0.02928
-0.01464,-0.00732,0.02928,0.0366,0.04392,-0.02928,-0.00976,-0.01952,0.01952,0,-0.01952,-0.0244
-0.01464,-0.00976,0.03416,0.04148,0.0488,-0.03172,-0.01464,-0.01952,0.01464,-0.00488,-0.01952,-0.01952
-0.00488,-0.01464,0.03416,0.0366,0.03904,-0.02196,-0.0244,-0.0244,0.00976,-0.00488,-0.01464,-0.01464
0.00488,-0.02684,0.0488,0.04636,0.04392,-0.01952,-0.02928,-0.03904,0.00976,-0.00976,-0.0244,-0.00976
0.01464,-0.03904,0.06344,0.05612,0.0488,-0.01708,-0.03904,-0.0488,0,-0.01464,-0.0244,-0.00488
0.03904,-0.05612,0.0732,0.05368,0.03416,0.00244,-0.05856,-0.05856,0,-0.01464,-0.00976,0.00976
0.0488,-0.07076,0.09272,0.06832,0.04392,0.00244,-0.0732,-0.06344,0,-0.00976,0,0.02928
0.06344,-0.08784,0.11224,0.08052,0.0488,0.00732,-0.07808,-0.06832,-0.00488,-0.00976,0.00976,0.01952
0.0732,-0.09516,0.11712,0.08052,0.04392,0.01464,-0.09272,-0.07808,-0.00976,-0.00976,0.00976,0.02928
0.0732,-0.0976,0.122,0.0854,0.0488,0.0122,-0.10248,-0.08296,-0.00976,-0.00488,0.00488,0.03904
0.07808,-0.10248,0.12688,0.08784,0.0488,0.01464,-0.11224,-0.09272,-0.00976,-0.00488,0.00488,0.0488
0.08296,-0.1098,0.13664,0.09516,0.05368,0.01464,-0.11712,-0.09272,-0.0244,-0.01464,0.00976,0.04392
0.08784,-0.11224,0.13664,0.09272,0.0488,0.01952,-0.122,-0.0976,-0.0244,-0.00976,0.01464,0.04392
0.0976,-0.122,0.1464,0.0976,0.0488,0.0244,-0.11224,-0.08784,-0.01464,-0.00488,0.01952,0.05856
0.10736,-0.12688,0.1464,0.09272,0.03904,0.03416,-0.122,-0.09272,-0.01464,-0.00488,0.01952,0.05856
0.10736,-0.13664,0.16592,0.11224,0.05856,0.0244,-0.12688,-0.08784,-0.00976,0,0.02928,0.06344
0.0976,-0.12688,0.15616,0.10736,0.05856,0.01952,-0.122,-0.08296,-0.00488,0.00488,0.02928,0.06832
0.08784,-0.11224,0.13664,0.09272,0.0488,0.01952,-0.11224,-0.0732,0.00488,0.01952,0.03416,0.05856
0.08784,-0.10492,0.122,0.07808,0.03416,0.02684,-0.10248,-0.0732,0.00976,0.01952,0.03416,0.0488
0.07808,-0.0976,0.11712,0.07808,0.03904,0.01952,-0.08296,-0.06344,0.01464,0.0244,0.03904,0.04392
0.06832,-0.09028,0.11224,0.07808,0.04392,0.0122,-0.0732,-0.03904,0.0244,0.03416,0.03416,0.04392
0.05856,-0.08296,0.10736,0.07808,0.0488,0.00488,-0.06344,-0.03904,0.0244,0.03416,0.03904,0.04392
0.0488,-0.0732,0.0976,0.0732,0.0488,0,-0.0488,-0.03416,0.03416,0.03416,0.03904,0.04392
0.03904,-0.06344,0.08784,0.06832,0.0488,-0.00488,-0.02928,-0.01952,0.03904,0.03416,0.03416,0.03416
0.0244,-0.0488,0.0732,0.061,0.0488,-0.0122,-0.01952,-0.00488,0.04392,0.03904,0.03416,0.02928
0.01952,-0.04392,0.06832,0.05856,0.0488,-0.01464,-0.01952,-0.00488,0.03416,0.03416,0.01952,0.00976
0.00488,-0.03172,0.05856,0.05612,0.05368,-0.0244,-0.00976,0.00488,0.03416,0.03416,0.01952,0.00488
0.00976,-0.02928,0.0488,0.04392,0.03904,-0.01464,0,0.00488,0.03416,0.03416,0.01464,0.00976
0.00488,-0.0244,0.04392,0.04148,0.03904,-0.01708,0.00488,0.00488,0.03904,0.03416,0.00976,0
-0.01464,-0.0122,0.03904,0.04636,0.05368,-0.03416,0.00976,0.01952,0.03904,0.03904,0.01952,-0.00488
-0.01952,-0.00732,0.03416,0.04392,0.05368,-0.0366,0.01464,0.0244,0.03904,0.03904,0.01464,-0.00488
-0.01952,0,0.01952,0.02928,0.03904,-0.02928,0.01464,0.01464,0.03416,0.02928,0,-0.01464
-0.0244,0.00488,0.01464,0.02684,0.03904,-0.03172,0.01952,0.01464,0.03416,0.02928,0,-0.0244
-0.01952,-0.00244,0.0244,0.03416,0.04392,-0.03172,0.01952,0.01464,0.04392,0.03904,0.00488,-0.00976
-0.01952,0.00488,0.00976,0.01952,0.02928,-0.0244,0.01952,0.01464,0.0488,0.03416,0.00976,-0.00976
-0.02928,0.00976,0.00976,0.0244,0.03904,-0.03416,0.0244,0.01952,0.03904,0.02928,-0.00488,-0.01952
-0.03416,0.00976,0.01464,0.03172,0.0488,-0.04148,0.0244,0.0244,0.03416,0.02928,-0.00488,-0.01464
-0.03904,0.01708,0.00488,0.0244,0.04392,-0.04148,0.01952,0.01952,0.03416,0.01952,0,-0.02928
-0.03904,0.0244,-0.00976,0.00976,0.02928,-0.03416,0.01952,0.01952,0.02928,0.0244,0,-0.02928
-0.02928,0.01464,0,0.01464,0.02928,-0.02928,0.02928,0.0244,0.03904,0.01952,-0.00976,-0.02928
-0.02928,0.01708,-0.00488,0.00976,0.0244,-0.02684,0.02928,0.0244,0.03904,0.01952,-0.00976,-0.02928
-0.03904,0.0244,-0.00976,0.00976,0.02928,-0.03416,0.02928,0.01952,0.02928,0.01952,-0.01464,-0.03416
-0.04392,0.0244,-0.00488,0.01708,0.03904,-0.04148,0.02928,0.01952,0.02928,0.01952,-0.01464,-0.03416
-0.03416,0.02196,-0.00976,0.00732,0.0244,-0.02928,0.02928,0.01952,0.0244,0.01952,-0.01464,-0.03416
-0.02928,0.01952,-0.00976,0.00488,0.01952,-0.0244,0.02928,0.01952,0.0244,0.01952,-0.01464,-0.03904
-0.03416,0.01952,-0.00488,0.0122,0.02928,-0.03172,0.02928,0.0244,0.0244,0.01464,-0.00488,-0.03904
-0.03416,0.01952,-0.00488,0.0122,0.02928,-0.03172,0.03416,0.0244,0.0244,0.01464,-0.01464,-0.03904
-0.03416,0.0244,-0.01464,0.00244,0.01952,-0.02684,0.0244,0.0244,0.0244,0.00488,-0.0244,-0.03904
-0.03416,0.02684,-0.01952,-0.00244,0.01464,-0.0244,0.0244,0.0244,0.0244,0.00488,-0.0244,-0.03904
-0.03416,0.03172,-0.02928,-0.0122,0.00488,-0.01952,0.0244,0.01952,0.02928,0.00976,-0.0244,-0.04392
-0.03904,0.03416,-0.02928,-0.00976,0.00976,-0.0244,0.0244,0.01952,0.02928,0.00976,-0.01952,-0.04392
-0.03416,0.03416,-0.03416,-0.01708,0,-0.01708,0.03416,0.02928,0.0244,0.00488,-0.0244,-0.04392
-0.03416,0.03416,-0.03416,-0.01708,0,-0.01708,0.03416,0.03416,0.0244,0.00976,-0.0244,-0.04392
-0.03904,0.03172,-0.0244,-0.00488,0.01464,-0.02684,0.03416,0.0244,0.01952,0.00976,-0.01464,-0.04392
-0.03904,0.03416,-0.02928,-0.00976,0.00976,-0.0244,0.03416,0.0244,0.01952,0.00488,-0.01952,-0.04392
-0.03904,0.03904,-0.03904,-0.01952,0,-0.01952,0.0244,0.01464,0.01952,0.00488,-0.02928,-0.0488
-0.03904,0.03904,-0.03904,-0.01952,0,-0.01952,0.0244,0.01464,0.01952,0.00488,-0.02928,-0.0488
-0.04392,0.04148,-0.03904,-0.01708,0.00488,-0.0244,0.03416,0.0244,0.01952,0,-0.02928,-0.0488
-0.04392,0.04148,-0.03904,-0.01708,0.00488,-0.0244,0.03416,0.0244,0.01952,0,-0.0244,-0.0488
-0.04392,0.04392,-0.04392,-0.02196,0,-0.02196,0.03416,0.0244,0.01952,0.00488,-0.0244,-0.0488
-0.03904,0.03904,-0.03904,-0.01952,0,-0.01952,0.03416,0.0244,0.01952,0.01464,-0.0244,-0.0488
-0.03416,0.03416,-0.03416,-0.01708,0,-0.01708,0.0244,0.01464,0.01952,0.00976,-0.0244,-0.05368
-0.03904,0.03904,-0.03904,-0.01952,0,-0.01952,0.0244,0.01464,0.01952,0.00488,-0.0244,-0.05856
-0.03904,0.03904,-0.03904,-0.01952,0,-0.01952,0.03904,0.0244,0.01952,0.01464,-0.01464,-0.04392
-0.03904,0.04148,-0.04392,-0.0244,-0.00488,-0.01708,0.03416,0.0244,0.01952,0.01952,-0.01464,-0.04392
-0.03904,0.03416,-0.02928,-0.00976,0.00976,-0.0244,0.01952,0.01952,0.01952,0.01952,-0.00976,-0.04392
-0.03416,0.02928,-0.0244,-0.00732,0.00976,-0.02196,0.01952,0.0244,0.01952,0.01952,-0.00488,-0.03904
-0.03416,0.02928,-0.0244,-0.00732,0.00976,-0.02196,0.01952,0.01464,0.0244,0.01464,-0.00488,-0.03416
-0.02928,0.02684,-0.0244,-0.00976,0.00488,-0.01708,0.0244,0.01464,0.0244,0.01464,-0.00488,-0.03416
-0.03416,0.02684,-0.01952,-0.00244,0.01464,-0.0244,0.0244,0.01952,0.0244,0.0244,-0.00488,-0.03416
-0.02928,0.0244,-0.01952,-0.00488,0.00976,-0.01952,0.01464,0.02928,0.0244,0.0244,-0.00488,-0.02928
-0.02928,0.0244,-0.01952,-0.00488,0.00976,-0.01952,0.01464,0.0244,0.0244,0.01464,0,-0.02928
-0.02928,0.0244,-0.01952,-0.00488,0.00976,-0.01952,0.01952,0.01952,0.0244,0.01464,0.00488,-0.02928
-0.02928,0.02196,-0.01464,0,0.01464,-0.02196,0.01464,0.01952,0.02928,0.01952,0.00488,-0.0244
-0.0244,0.01708,-0.00976,0.00244,0.01464,-0.01952,0.01464,0.01952,0.02928,0.01952,0.00488,-0.0244
-0.02928,0.0244,-0.01952,-0.00488,0.00976,-0.01952,0.01464,0.01952,0.02928,0.01952,0.00976,-0.03416
-0.02928,0.0244,-0.01952,-0.00488,0.00976,-0.01952,0.01952,0.01952,0.0244,0.01952,0.00488,-0.03416
-0.0244,0.01708,-0.00976,0.00244,0.01464,-0.01952,0.01952,0.01464,0.02928,0.02928,0.00488,-0.03416
-0.0244,0.01708,-0.00976,0.00244,0.01464,-0.01952,0.01464,0.01464,0.0244,0.02928,0.00976,-0.03416
-0.01952,0.01464,-0.00976,0,0.00976,-0.01464,0.01952,0.01952,0.02928,0.01952,0.00976,-0.0244
-0.0244,0.01708,-0.00976,0.00244,0.01464,-0.01952,0.01952,0.01464,0.0244,0.01952,0.00488,-0.0244
-0.0244,0.01952,-0.01464,-0.00244,0.00976,-0.01708,0.01952,0.01464,0.0244,0.01952,0.00976,-0.0244
-0.0244,0.01952,-0.01464,-0.00244,0.00976,-0.01708,0.01952,0.01952,0.02928,0.01952,0.00976,-0.01952
-0.02928,0.01952,-0.00976,0.00488,0.01952,-0.0244,0.01952,0.01952,0.02928,0.01952,-0.00488,-0.0244
-0.02928,0.01952,-0.00976,0.00488,0.01952,-0.0244,0.01952,0.01464,0.02928,0.01952,-0.00488,-0.0244
-0.02928,0.02196,-0.01464,0,0.01464,-0.02196,0.0244,0.01464,0.02928,0.02928,0.00976,-0.0244
-0.0244,0.01708,-0.00976,0.00244,0.01464,-0.01952,0.01952,0.01464,0.02928,0.02928,0.00976,-0.0244
-0.02928,0.02196,-0.01464,0,0.01464,-0.02196,0.01464,0.0244,0.02928,0.02928,0.00976,-0.0244
-0.02928,0.02196,-0.01464,0,0.01464,-0.02196,0.01952,0.02928,0.02928,0.03416,0.00488,-0.0244
-0.01952,0.01464,-0.00976,0,0.00976,-0.01464,0.01464,0.02928,0.01952,0.02928,0.00488,-0.03416
-0.01464,0.0122,-0.00976,-0.00244,0.00488,-0.00976,0.00976,0.02928,0.01952,0.02928,0.00976,-0.03416
-0.01952,0.01464,-0.00976,0,0.00976,-0.01464,0.01952,0.01952,0.02928,0.0244,-0.00488,-0.0244
-0.01952,0.01464,-0.00976,0,0.00976,-0.01464,0.01952,0.01464,0.02928,0.01952,-0.00488,-0.0244
-0.03416,0.02684,-0.01952,-0.00244,0.01464,-0.0244,0.0244,0.02928,0.02928,0.01952,-0.00488,-0.0244
-0.03416,0.03172,-0.02928,-0.0122,0.00488,-0.01952,0.0244,0.02928,0.02928,0.01952,-0.00488,-0.0244
-0.0244,0.0244,-0.0244,-0.0122,0,-0.0122,0.01464,0.02928,0.02928,0.02928,-0.00976,-0.03416
-0.01464,0.01464,-0.01464,-0.00732,0,-0.00732,0.01464,0.02928,0.02928,0.02928,-0.00488,-0.03416
-0.0244,0.02196,-0.01952,-0.00732,0.00488,-0.01464,0.01952,0.02928,0.0244,0.01952,-0.00488,-0.03416
-0.02928,0.0244,-0.01952,-0.00488,0.00976,-0.01952,0.01464,0.02928,0.0244,0.0244,0,-0.03416
-0.02928,0.02684,-0.0244,-0.00976,0.00488,-0.01708,0.01464,0.01952,0.02928,0.0244,0,-0.03416
-0.03416,0.02928,-0.0244,-0.00732,0.00976,-0.02196,0.01464,0.01952,0.02928,0.0244,-0.00488,-0.03416
-0.04392,0.03904,-0.03416,-0.0122,0.00976,-0.02684,0.0244,0.01952,0.02928,0.0244,-0.00488,-0.02928
-0.03904,0.03172,-0.0244,-0.00488,0.01464,-0.02684,0.01952,0.01464,0.03416,0.0244,-0.00488,-0.02928
-0.02928,0.0244,-0.01952,-0.00488,0.00976,-0.01952,0.01464,0.01464,0.0244,0.01952,0,-0.03416
-0.0244,0.02196,-0.01952,-0.00732,0.00488,-0.01464,0.01464,0.01952,0.02928,0.0244,0.00488,-0.03416
-0.02928,0.02684,-0.0244,-0.00976,0.00488,-0.01708,0.01952,0.0244,0.02928,0.03416,0.00488,-0.02928
-0.02928,0.02684,-0.0244,-0.00976,0.00488,-0.01708,0.01952,0.0244,0.0244,0.03416,0.00488,-0.02928
-0.03904,0.03172,-0.0244,-0.00488,0.01464,-0.02684,0.01952,0.01952,0.01952,0.01952,-0.00488,-0.02928
-0.02928,0.02684,-0.0244,-0.00976,0.00488,-0.01708,0.01952,0.01952,0.01952,0.01952,-0.00488,-0.02928
-0.03904,0.03172,-0.0244,-0.00488,0.01464,-0.02684,0.02928,0.02928,0.01952,0.03416,-0.00488,-0.02928
-0.03904,0.03416,-0.02928,-0.00976,0.00976,-0.0244,0.02928,0.0244,0.01952,0.02928,-0.00488,-0.02928
-0.03904,0.0366,-0.03416,-0.01464,0.00488,-0.02196,0.02928,0.0244,0.0244,0.02928,0,-0.03904
-0.03904,0.0366,-0.03416,-0.01464,0.00488,-0.02196,0.0244,0.0244,0.0244,0.02928,0,-0.03904
-0.02928,0.0244,-0.01952,-0.00488,0.00976,-0.01952,0.01464,0.01952,0.0244,0.01952,-0.00488,-0.02928
-0.02928,0.0244,-0.01952,-0.00488,0.00976,-0.01952,0.01464,0.01464,0.0244,0.01952,-0.00488,-0.02928
-0.01464,0.01952,-0.0244,-0.01708,-0.00976,-0.00244,0.01952,0.0244,0.0244,0.01464,-0.00976,-0.03904
-0.0244,0.02684,-0.02928,-0.01708,-0.00488,-0.00976,0.01952,0.02928,0.0244,0.01952,-0.00976,-0.03904
-0.03416,0.0366,-0.03904,-0.02196,-0.00488,-0.01464,0.01952,0.01952,0.0244,0.01464,-0.00976,-0.03416
-0.02928,0.03416,-0.03904,-0.0244,-0.00976,-0.00976,0.0244,0.01952,0.0244,0.01464,-0.00976,-0.04392
-0.01952,0.02928,-0.03904,-0.02928,-0.01952,0,0.01952,0.02928,0.0244,0.0244,0,-0.04392
-0.01464,0.01708,-0.01952,-0.0122,-0.00488,-0.00488,0.01464,0.0244,0.0244,0.0244,0,-0.04392
-0.0244,0.0244,-0.0244,-0.0122,0,-0.0122,0.0244,0.0244,0.0244,0.01464,-0.00488,-0.03904
-0.02928,0.03172,-0.03416,-0.01952,-0.00488,-0.0122,0.0244,0.0244,0.01952,0.01952,-0.00976,-0.03904
-0.0488,0.04392,-0.03904,-0.01464,0.00976,-0.02928,0.01952,0.01952,0.01952,0.01952,-0.01952,-0.03904
-0.03904,0.03416,-0.02928,-0.00976,0.00976,-0.0244,0.01952,0.01952,0.01952,0.02928,-0.00976,-0.03904
-0.03904,0.03416,-0.02928,-0.00976,0.00976,-0.0244,0.01952,0.01952,0.01952,0.02928,0,-0.03904
-0.03904,0.03416,-0.02928,-0.00976,0.00976,-0.0244,0.01952,0.01952,0.00976,0.01952,-0.00976,-0.03904
-0.03904,0.03416,-0.02928,-0.00976,0.00976,-0.0244,0.01952,0.01952,0.00976,0.01952,-0.00976,-0.03904
-0.0488,0.04392,-0.03904,-0.01464,0.00976,-0.02928,0.00976,0.01952,0.01952,0.01952,-0.00976,-0.03904
-0.0488,0.04392,-0.03904,-0.01464,0.00976,-0.02928,0.00976,0.01952,0.01952,0.01952,-0.00976,-0.03904
-0.03904,0.03416,-0.02928,-0.00976,0.00976,-0.0244,0.01952,0.01952,0.01952,0.01952,-0.00976,-0.03904
-0.03904,0.03416,-0.02928,-0.00976,0.00976,-0.0244,0.01952,0.01952,0.01952,0.01952,-0.00976,-0.03904
-0.02928,0.02928,-0.02928,-0.01464,0,-0.01464,0.01952,0.02928,0.01952,0.02928,-0.00976,-0.02928
-0.02928,0.02928,-0.02928,-0.01464,0,-0.01464,0.01952,0.02928,0.01952,0.02928,-0.00976,-0.02928
-0.02928,0.02928,-0.02928,-0.01464,0,-0.01464,0.01952,0.01952,0.01952,0.01952,0,-0.03904
-0.02928,0.02928,-0.02928,-0.01464,0,-0.01464,0.01464,0.0244,0.02928,0.0244,0,-0.03416
-0.03416,0.0244,-0.01464,0.00244,0.01952,-0.02684,0.01464,0.01952,0.03904,0.03904,0.00488,-0.01952
-0.02928,0.01708,-0.00488,0.00976,0.0244,-0.02684,0.00488,0.01952,0.04392,0.04392,0.00976,-0.01952
-0.01952,0.0122,-0.00488,0.00488,0.01464,-0.01708,0.01464,0.0244,0.0488,0.0488,0.00976,-0.01464
-0.01952,0.00488,0.00976,0.01952,0.02928,-0.0244,0.00976,0.0244,0.05856,0.05856,0.0244,-0.01464
-0.01464,-0.00732,0.02928,0.0366,0.04392,-0.02928,0.00488,0.02928,0.06344,0.06344,0.03416,0.00488
0,-0.01952,0.03904,0.03904,0.03904,-0.01952,0,0.02928,0.06832,0.06832,0.03904,0.00488
0.01952,-0.02928,0.03904,0.02928,0.01952,0,-0.00488,0.03416,0.05368,0.06832,0.04392,0
0.02928,-0.03416,0.03904,0.0244,0.00976,0.00976,-0.00488,0.03416,0.03904,0.06832,0.04392,0.00488
0.04392,-0.0366,0.02928,0.00732,-0.01464,0.02928,-0.01952,0.0488,0.03904,0.05856,0.0488,0.00976
0.04392,-0.03172,0.01952,-0.00244,-0.0244,0.03416,-0.01952,0.05368,0.0244,0.0488,0.03416,0.00976
0.03904,-0.02684,0.01464,-0.00488,-0.0244,0.03172,-0.01464,0.03904,0.0244,0.03904,0.02928,-0.00488
0.02928,-0.02196,0.01464,0,-0.01464,0.02196,-0.01952,0.02928,0.0244,0.03904,0.02928,-0.00488
0.02928,-0.02196,0.01464,0,-0.01464,0.02196,-0.0244,0.01464,0.01464,0.03904,0.0244,-0.00488
0.00976,-0.00976,0.00976,0.00488,0,0.00488,-0.0244,0.00488,0.00488,0.02928,0.01952,-0.00488
0.00488,-0.00732,0.00976,0.00732,0.00488,0,-0.01952,-0.00488,0.01464,0.0244,0.01952,-0.00976
-0.00488,0.00244,0,0.00244,0.00488,-0.00488,-0.01464,-0.00488,0.01464,0.01952,0.01464,-0.01464
-0.01952,0.01464,-0.00976,0,0.00976,-0.01464,-0.01464,-0.01464,0.01464,0.01952,0,-0.01464
-0.01952,0.01708,-0.01464,-0.00488,0.00488,-0.0122,-0.00976,-0.00976,0.01464,0.00976,-0.00488,-0.0244
-0.00488,0.00732,-0.00976,-0.00732,-0.00488,0,-0.01952,-0.00488,0.01464,0.00976,-0.00488,-0.0244
-0.00488,0.00488,-0.00488,-0.00244,0,-0.00244,-0.01464,0,0,0.00488,-0.01464,-0.03416
0,0.00976,-0.01952,-0.01952,-0.01952,0.00976,-0.00488,0,0.00976,0.00488,-0.00488,-0.03904
0,0.0122,-0.0244,-0.0244,-0.0244,0.0122,-0.00488,0,0.00488,0.00488,-0.00976,-0.03904
-0.01464,0.01952,-0.0244,-0.01708,-0.00976,-0.00244,0,0.00976,0,0,-0.00976,-0.03904
-0.01952,0.02196,-0.0244,-0.01464,-0.00488,-0.00732,0,0.00976,0,0,-0.00976,-0.03904
-0.01464,0.01708,-0.01952,-0.0122,-0.00488,-0.00488,0.00976,0.00976,0.00488,0,-0.00976,-0.0488
-0.02928,0.02684,-0.0244,-0.00976,0.00488,-0.01708,0.01464,0.00976,0.01464,0.00976,0,-0.0488
-0.03904,0.03172,-0.0244,-0.00488,0.01464,-0.02684,0.0244,0.00488,0.01952,0.00976,0,-0.0488
-0.05368,0.04148,-0.02928,-0.00244,0.0244,-0.03904,0.0244,0.00488,0.01952,0.00976,0,-0.0488
-0.06832,0.05856,-0.0488,-0.01464,0.01952,-0.04392,0.04392,0.01464,0.0244,0.01952,-0.00488,-0.04392
-0.06832,0.06344,-0.05856,-0.0244,0.00976,-0.03904,0.04392,0.01464,0.0244,0.01464,-0.00488,-0.05368
-0.05856,0.06344,-0.06832,-0.03904,-0.00976,-0.0244,0.03416,0.01952,0.00976,0.00976,-0.01464,-0.05368
-0.06344,0.06588,-0.06832,-0.0366,-0.00488,-0.02928,0.03904,0.01952,0.00976,0.00976,-0.01952,-0.05368
-0.0732,0.0732,-0.0732,-0.0366,0,-0.0366,0.0488,0.01952,0.00976,0,-0.01952,-0.05368
-0.0732,0.07076,-0.06832,-0.03172,0.00488,-0.03904,0.0488,0.01952,0.00976,0,-0.01952,-0.05368
-0.08296,0.07808,-0.0732,-0.03172,0.00976,-0.04636,0.03904,0.00976,0.01464,0,-0.01952,-0.06344
-0.08296,0.07808,-0.0732,-0.03172,0.00976,-0.04636,0.03904,0.00976,0.01464,0,-0.01464,-0.06344
-0.0732,0.07564,-0.07808,-0.04148,-0.00488,-0.03416,0.03904,0.01952,0.01464,0.00976,-0.01464,-0.05856
-0.0732,0.0732,-0.0732,-0.0366,0,-0.0366,0.03904,0.01952,0.01464,0.01464,-0.01464,-0.06344
-0.06344,0.06344,-0.06344,-0.03172,0,-0.03172,0.03904,0.01952,0.01464,0.00488,0,-0.04392
-0.07808,0.06344,-0.0488,-0.00976,0.02928,-0.05368,0.0488,0.0244,0.02928,0.01464,-0.00488,-0.0488
-0.0976,0.07564,-0.05368,-0.00488,0.04392,-0.07076,0.05368,0.02928,0.03416,0.0488,-0.00488,-0.05856
-0.12688,0.0854,-0.04392,0.01952,0.08296,-0.10492,0.08296,0.06344,0.09272,0.08784,0.03904,-0.03416
-0.12688,0.07076,-0.01464,0.0488,0.11224,-0.11956,0.0976,0.10736,0.16104,0.14152,0.07808,-0.01952
-0.10736,0.02928,0.0488,0.10248,0.15616,-0.13176,0.08296,0.0976,0.18544,0.19032,0.11712,0.01464
-0.04392,-0.0244,0.09272,0.11468,0.13664,-0.09028,0.06832,0.14152,0.17568,0.20984,0.16592,0.06832
0.01952,-0.06344,0.10736,0.0976,0.08784,-0.03416,0.04392,0.15616,0.15616,0.19032,0.17568,0.09272
0.16592,-0.20008,0.23424,0.15128,0.06832,0.0488,-0.05368,0.122,0.15128,0.20984,0.244,0.18544
0.35136,-0.37332,0.39528,0.2196,0.04392,0.15372,-0.1952,0.0244,0.12688,0.24888,0.31232,0.2928
0.52216,-0.52216,0.52216,0.26108,0,0.26108,-0.3416,-0.11224,0.03904,0.2196,0.33184,0.36112
0.63928,-0.63196,0.62464,0.305,-0.01464,0.32696,-0.52704,-0.32208,-0.01464,0.1708,0.34648,0.45384
0.69296,-0.6466,0.60024,0.25376,-0.09272,0.39284,-0.58072,-0.4148,-0.14152,0.03416,0.28304,0.4636
0.73688,-0.64172,0.54656,0.17812,-0.19032,0.4636,-0.60512,-0.50752,-0.34648,-0.13176,0.19032,0.45872
0.7564,-0.53436,0.31232,-0.06588,-0.44408,0.60024,-0.52216,-0.48312,-0.52704,-0.33672,-0.00976,0.30744
0.66856,-0.31232,-0.04392,-0.3782,-0.71248,0.69052,-0.37576,-0.37088,-0.64904,-0.52704,-0.25864,0.0488
0.49288,-0.12688,-0.23912,-0.48556,-0.732,0.61244,-0.25376,-0.33184,-0.74664,-0.62464,-0.36112,-0.07808
0.2684,0.061,-0.3904,-0.5246,-0.6588,0.4636,-0.11712,-0.2928,-0.72224,-0.64416,-0.4392,-0.2196
0.14152,0.1586,-0.45872,-0.52948,-0.60024,0.37088,-0.0244,-0.21472,-0.66368,-0.60512,-0.48312,-0.30256
0.10248,0.16104,-0.42456,-0.4758,-0.52704,0.31476,0,-0.13176,-0.52704,-0.5124,-0.45384,-0.30256
0.09272,0.122,-0.33672,-0.38308,-0.42944,0.26108,-0.00488,-0.0732,-0.38064,-0.40016,-0.35624,-0.24888
0.08784,0.07076,-0.22936,-0.27328,-0.3172,0.20252,-0.03416,-0.0732,-0.27816,-0.27328,-0.25864,-0.19032
0.05856,0.05124,-0.16104,-0.19032,-0.2196,0.13908,-0.01464,-0.0488,-0.20496,-0.1952,-0.18056,-0.1464
0.00488,0.06832,-0.14152,-0.14396,-0.1464,0.07564,0.00488,-0.01952,-0.14152,-0.12688,-0.12688,-0.122
-0.02928,0.08296,-0.13664,-0.122,-0.10736,0.03904,0.01952,-0.00976,-0.0732,-0.08296,-0.09272,-0.0976
-0.0488,0.08052,-0.11224,-0.08784,-0.06344,0.00732,0.03416,0,-0.03904,-0.05856,-0.07808,-0.0976
-0.05856,0.07808,-0.0976,-0.06832,-0.03904,-0.00976,0.04392,0,-0.02928,-0.02928,-0.04392,-0.07808
-0.06832,0.07564,-0.08296,-0.0488,-0.01464,-0.02684,0.05368,0.00976,-0.01952,-0.01464,-0.04392,-0.06832
-0.07808,0.08052,-0.08296,-0.04392,-0.00488,-0.0366,0.05856,0.01952,-0.00488,-0.00488,-0.03904,-0.0732
-0.0732,0.07808,-0.08296,-0.04636,-0.00976,-0.03172,0.05368,0.0244,0,-0.00976,-0.04392,-0.08296
-0.0732,0.07808,-0.08296,-0.04636,-0.00976,-0.03172,0.05368,0.0244,-0.00488,-0.00488,-0.04392,-0.08296
-0.08296,0.0854,-0.08784,-0.04636,-0.00488,-0.03904,0.05368,0.0244,0.00976,0.00488,-0.0244,-0.06832
-0.09272,0.09028,-0.08784,-0.04148,0.00488,-0.0488,0.05368,0.0244,0.00976,0.00488,-0.0244,-0.06344
-0.08296,0.0854,-0.08784,-0.04636,-0.00488,-0.03904,0.05368,0.03416,0.00976,0.00976,-0.0244,-0.06344
-0.08296,0.0854,-0.08784,-0.04636,-0.00488,-0.03904,0.05368,0.03416,0.01464,0.01464,-0.0244,-0.06344
-0.08296,0.08296,-0.08296,-0.04148,0,-0.04148,0.05368,0.03416,0.01952,0.00488,-0.0244,-0.06832
-0.07808,0.08052,-0.08296,-0.04392,-0.00488,-0.0366,0.05368,0.03904,0.01952,0.00488,-0.01952,-0.06344
-0.09272,0.09028,-0.08784,-0.04148,0.00488,-0.0488,0.05856,0.03904,0.00976,0.00976,-0.0244,-0.06344
-0.09272,0.08784,-0.08296,-0.0366,0.00976,-0.05124,0.06344,0.03904,0.00976,0.00976,-0.0244,-0.06344
-0.07808,0.08052,-0.08296,-0.04392,-0.00488,-0.0366,0.05856,0.03904,0.00976,0.01464,-0.01952,-0.06344
-0.07808,0.07808,-0.07808,-0.03904,0,-0.03904,0.05368,0.03904,0.00976,0.01464,-0.01952,-0.06344
-0.08784,0.08296,-0.07808,-0.03416,0.00976,-0.0488,0.06344,0.03416,0.00976,0.01464,-0.01952,-0.05368
-0.09272,0.0854,-0.07808,-0.03172,0.01464,-0.05368,0.06344,0.03904,0.00976,0.00976,-0.01952,-0.05368
-0.08296,0.07808,-0.0732,-0.03172,0.00976,-0.04636,0.06344,0.03904,0.00976,0.00976,-0.01952,-0.06344
-0.07808,0.07564,-0.0732,-0.03416,0.00488,-0.04148,0.06344,0.03904,0.00976,0.01464,-0.01952,-0.06344
-0.06832,0.07076,-0.0732,-0.03904,-0.00488,-0.03172,0.05368,0.03904,0.01952,0.00976,-0.01952,-0.06344
-0.06832,0.07076,-0.0732,-0.03904,-0.00488,-0.03172,0.05368,0.03416,0.01464,0.00976,-0.0244,-0.06344
-0.07808,0.08052,-0.08296,-0.04392,-0.00488,-0.0366,0.06344,0.03416,0.00488,0.00976,-0.01464,-0.06344
-0.08784,0.0854,-0.08296,-0.03904,0.00488,-0.04636,0.06344,0.03904,0.00488,0.00488,-0.01464,-0.06832
-0.07808,0.07564,-0.0732,-0.03416,0.00488,-0.04148,0.05368,0.03416,0.00488,0.00488,-0.02928,-0.05856
-0.07808,0.07564,-0.0732,-0.03416,0.00488,-0.04148,0.0488,0.03416,0.00488,0.00488,-0.02928,-0.05856
-0.07808,0.08296,-0.08784,-0.0488,-0.00976,-0.03416,0.05856,0.03416,0.00976,0.00488,-0.01952,-0.06344
-0.07808,0.08296,-0.08784,-0.0488,-0.00976,-0.03416,0.06344,0.03416,0.00976,0.00488,-0.01464,-0.06344
-0.08784,0.09028,-0.09272,-0.0488,-0.00488,-0.04148,0.05856,0.03904,0,0,-0.02928,-0.06344
-0.07808,0.08296,-0.08784,-0.0488,-0.00976,-0.03416,0.05856,0.03416,0,0,-0.02928,-0.06344
-0.08296,0.08296,-0.08296,-0.04148,0,-0.04148,0.05368,0.0244,0,0,-0.02928,-0.05856
-0.08296,0.08296,-0.08296,-0.04148,0,-0.04148,0.05368,0.0244,-0.00488,0,-0.02928,-0.05856
-0.0732,0.07808,-0.08296,-0.04636,-0.00976,-0.03172,0.05368,0.03416,-0.00488,0,-0.01952,-0.06832
-0.06832,0.07564,-0.08296,-0.0488,-0.01464,-0.02684,0.0488,0.02928,-0.00976,0,-0.01952,-0.06832
-0.06344,0.0732,-0.08296,-0.05124,-0.01952,-0.02196,0.0488,0.02928,0,0.00488,-0.0244,-0.05856
-0.06344,0.07076,-0.07808,-0.04636,-0.01464,-0.0244,0.04392,0.02928,0,0.00488,-0.01952,-0.05856
-0.06344,0.06832,-0.0732,-0.04148,-0.00976,-0.02684,0.02928,0.01952,-0.01464,-0.00488,-0.02928,-0.06344
-0.06344,0.06832,-0.0732,-0.04148,-0.00976,-0.02684,0.02928,0.01952,-0.01464,-0.00488,-0.02928,-0.06344
-0.05368,0.05856,-0.06344,-0.0366,-0.00976,-0.02196,0.0244,0.00976,-0.01464,-0.00488,-0.02928,-0.05856
-0.0488,0.05856,-0.06832,-0.04392,-0.01952,-0.01464,0.01464,0.00488,-0.01952,-0.00488,-0.02928,-0.05856
-0.05856,0.05856,-0.05856,-0.02928,0,-0.02928,0.0244,0.00976,-0.01464,-0.00488,-0.0244,-0.05368
-0.05368,0.05368,-0.05368,-0.02684,0,-0.02684,0.01464,0.00488,-0.01952,-0.00976,-0.0244,-0.05368
-0.05368,0.0488,-0.04392,-0.01708,0.00976,-0.03172,0,-0.00488,-0.00976,0,-0.01464,-0.0488
-0.04392,0.04148,-0.03904,-0.01708,0.00488,-0.0244,-0.00976,-0.00976,-0.00976,0,-0.00976,-0.04392
-0.0244,0.01952,-0.01464,-0.00244,0.00976,-0.01708,-0.00488,-0.00976,-0.01464,0.00488,-0.00976,-0.03904
-0.00488,0.00976,-0.01464,-0.0122,-0.00976,0.00244,-0.01464,-0.00488,-0.01952,0.00488,-0.00488,-0.03416
-0.00488,0.00732,-0.00976,-0.00732,-0.00488,0,-0.02928,-0.01952,-0.01952,0,-0.01464,-0.02928
0.00488,-0.00488,0.00488,0.00244,0,0.00244,-0.03904,-0.02928,-0.02928,-0.00488,-0.01464,-0.0244
0.01952,-0.01708,0.01464,0.00488,-0.00488,0.0122,-0.05856,-0.03904,-0.03904,-0.01464,-0.00976,-0.02928
0.02928,-0.03172,0.03416,0.01952,0.00488,0.0122,-0.0732,-0.04392,-0.03904,-0.00976,0,-0.00976
0.04392,-0.04392,0.04392,0.02196,0,0.02196,-0.06832,-0.0488,-0.04392,-0.00976,0,-0.00976
0.05368,-0.05124,0.0488,0.02196,-0.00488,0.02928,-0.08296,-0.05856,-0.0488,-0.00976,0,0
0.0732,-0.06344,0.05368,0.01708,-0.01952,0.04636,-0.08296,-0.05368,-0.0488,-0.00488,0.00488,0
0.07808,-0.06832,0.05856,0.01952,-0.01952,0.0488,-0.09272,-0.06344,-0.0488,-0.00488,0.00488,0.00976
0.09272,-0.08052,0.06832,0.02196,-0.0244,0.05856,-0.10736,-0.0732,-0.05368,-0.01464,0.00976,0.01464
0.0976,-0.08296,0.06832,0.01952,-0.02928,0.06344,-0.11224,-0.07808,-0.05368,-0.00976,0.01464,0.01464
0.08784,-0.08296,0.07808,0.03416,-0.00976,0.0488,-0.11224,-0.07808,-0.05368,-0.00488,0.01952,0.02928
0.0976,-0.08784,0.07808,0.02928,-0.01952,0.05856,-0.122,-0.08296,-0.05368,-0.00488,0.01952,0.02928
0.0976,-0.0976,0.0976,0.0488,0,0.0488,-0.12688,-0.07808,-0.0488,0.00976,0.02928,0.03416
0.08784,-0.08784,0.08784,0.04392,0,0.04392,-0.122,-0.0732,-0.04392,0.01464,0.02928,0.03904
0.0976,-0.09272,0.08784,0.03904,-0.00976,0.05368,-0.11224,-0.05368,-0.04392,0.00976,0.03416,0.03904
0.10736,-0.09516,0.08296,0.02928,-0.0244,0.06588,-0.10248,-0.05368,-0.03904,0.00976,0.03416,0.03904
0.0976,-0.08296,0.06832,0.01952,-0.02928,0.06344,-0.09272,-0.05368,-0.03416,0.01464,0.03904,0.03416
0.08784,-0.07564,0.06344,0.01952,-0.0244,0.05612,-0.08296,-0.02928,-0.0244,0.0244,0.03416,0.03416
0.08784,-0.07808,0.06832,0.0244,-0.01952,0.05368,-0.0732,-0.02928,-0.0244,0.0244,0.03904,0.0244
0.07808,-0.06832,0.05856,0.01952,-0.01952,0.0488,-0.05856,-0.0244,-0.01464,0.0244,0.03904,0.0244
0.05856,-0.04392,0.02928,0,-0.02928,0.04392,-0.03904,-0.00976,-0.00976,0.0244,0.03416,0.01464
0.03416,-0.0244,0.01464,-0.00244,-0.01952,0.02684,-0.02928,0.00488,-0.00488,0.02928,0.03416,0.00976
0.02928,-0.01952,0.00976,-0.00488,-0.01952,0.0244,-0.02928,-0.00488,-0.01464,0.0244,0.02928,0
0.01464,-0.00732,0,-0.00732,-0.01464,0.01464,-0.01952,0.00488,-0.01464,0.0244,0.02928,-0.00488
0,0.00488,-0.00976,-0.00976,-0.00976,0.00488,0,0.01464,-0.00488,0.03416,0.03416,0
-0.00488,0.00976,-0.01464,-0.0122,-0.00976,0.00244,0.00488,0.01464,0.00976,0.04392,0.03904,-0.00976
-0.00488,0.0122,-0.01952,-0.01708,-0.01464,0.00488,0,0.01952,0,0.02928,0.02928,-0.0244
0,0.0122,-0.0244,-0.0244,-0.0244,0.0122,0.00488,0.0244,0,0.02928,0.01464,-0.0244
-0.00976,0.01952,-0.02928,-0.0244,-0.01952,0.00488,0.01464,0.0244,0.00488,0.02928,0.00976,-0.0244
-0.01464,0.01952,-0.0244,-0.01708,-0.00976,-0.00244,0.01952,0.0244,0.00488,0.02928,0.00976,-0.03416
-0.01952,0.03172,-0.04392,-0.03416,-0.0244,0.00244,0.01952,0.0244,-0.00488,0.02928,-0.00488,-0.02928
-0.02928,0.0488,-0.06832,-0.05368,-0.03904,0.00488,0.01952,0.0244,0,0.0244,0,-0.02928
-0.01952,0.03904,-0.05856,-0.0488,-0.03904,0.00976,0.0244,0.01952,-0.00976,0.00976,-0.00488,-0.03904
-0.0244,0.03904,-0.05368,-0.04148,-0.02928,0.00244,0.0244,0.0244,-0.01464,0.00976,-0.00488,-0.03416
-0.01952,0.03172,-0.04392,-0.03416,-0.0244,0.00244,0.02928,0.01952,-0.00488,0.01952,0,-0.03904
-0.00976,0.02928,-0.0488,-0.04392,-0.03904,0.01464,0.02928,0.01952,-0.00976,0.0244,0,-0.03904
-0.01952,0.03904,-0.05856,-0.0488,-0.03904,0.00976,0.01952,0.0244,-0.01952,0.00976,0,-0.0488
-0.01952,0.04148,-0.06344,-0.05368,-0.04392,0.0122,0.01952,0.0244,-0.01952,0.00976,0,-0.0488
-0.02928,0.05368,-0.07808,-0.06344,-0.0488,0.00976,0.02928,0.02928,-0.01952,0,-0.01464,-0.06344
-0.03416,0.05856,-0.08296,-0.06588,-0.0488,0.00732,0.03904,0.02928,-0.01952,0,-0.01464,-0.06344
-0.03416,0.061,-0.08784,-0.07076,-0.05368,0.00976,0.02928,0.02928,-0.03416,0,-0.01464,-0.06344
-0.02928,0.05856,-0.08784,-0.0732,-0.05856,0.01464,0.02928,0.02928,-0.03416,0,-0.01464,-0.06832
-0.03416,0.05856,-0.08296,-0.06588,-0.0488,0.00732,0.02928,0.03416,-0.03416,0.00488,-0.01464,-0.05856
-0.03416,0.05856,-0.08296,-0.06588,-0.0488,0.00732,0.03416,0.03416,-0.03416,0.00488,-0.0244,-0.05856
-0.03416,0.05856,-0.08296,-0.06588,-0.0488,0.00732,0.03416,0.03416,-0.0244,0.00488,-0.01464,-0.05856
-0.03416,0.061,-0.08784,-0.07076,-0.05368,0.00976,0.03416,0.03416,-0.0244,0.00488,-0.01464,-0.05856
-0.03416,0.06588,-0.0976,-0.08052,-0.06344,0.01464,0.03416,0.02928,-0.02928,0,-0.01464,-0.05368
-0.03904,0.06832,-0.0976,-0.07808,-0.05856,0.00976,0.03416,0.02928,-0.02928,0,-0.00976,-0.05368
-0.03416,0.06344,-0.09272,-0.07564,-0.05856,0.0122,0.03416,0.02928,-0.0244,-0.00488,-0.01464,-0.06344
-0.03416,0.06344,-0.09272,-0.07564,-0.05856,0.0122,0.03416,0.03416,-0.0244,0,-0.01464,-0.06344
-0.03904,0.07076,-0.10248,-0.08296,-0.06344,0.0122,0.03416,0.0244,-0.02928,0,-0.0244,-0.0732
-0.03904,0.0732,-0.10736,-0.08784,-0.06832,0.01464,0.03416,0.0244,-0.02928,-0.00488,-0.02928,-0.0732
-0.03904,0.0732,-0.10736,-0.08784,-0.06832,0.01464,0.03416,0.0244,-0.02928,-0.00488,-0.01952,-0.06832
-0.03904,0.0732,-0.10736,-0.08784,-0.06832,0.01464,0.03416,0.0244,-0.02928,-0.00488,-0.01952,-0.06832
-0.03416,0.06588,-0.0976,-0.08052,-0.06344,0.01464,0.03416,0.0244,-0.02928,-0.00976,-0.01952,-0.06832
-0.03416,0.06588,-0.0976,-0.08052,-0.06344,0.01464,0.03416,0.0244,-0.02928,-0.00976,-0.01464,-0.06832
-0.03416,0.06344,-0.09272,-0.07564,-0.05856,0.0122,0.03416,0.03416,-0.02928,-0.00488,-0.01464,-0.06832
-0.02928,0.05856,-0.08784,-0.0732,-0.05856,0.01464,0.03416,0.03416,-0.02928,-0.00488,-0.01464,-0.06832
-0.03416,0.06344,-0.09272,-0.07564,-0.05856,0.0122,0.03416,0.03416,-0.02928,0.00976,-0.00488,-0.05368
-0.03904,0.06832,-0.0976,-0.07808,-0.05856,0.00976,0.03416,0.03416,-0.02928,0.00488,-0.00488,-0.05856
-0.02928,0.06344,-0.0976,-0.08296,-0.06832,0.01952,0.02928,0.03416,-0.02928,-0.00488,-0.01464,-0.06344
-0.02928,0.06588,-0.10248,-0.08784,-0.0732,0.02196,0.0244,0.03416,-0.02928,0,-0.01464,-0.06344
-0.03904,0.0732,-0.10736,-0.08784,-0.06832,0.01464,0.02928,0.02928,-0.02928,-0.00976,-0.01952,-0.05368
-0.04392,0.0732,-0.10248,-0.08052,-0.05856,0.00732,0.02928,0.03416,-0.02928,-0.00976,-0.01464,-0.0488
-0.03416,0.06344,-0.09272,-0.07564,-0.05856,0.0122,0.02928,0.0244,-0.0244,0.00488,-0.00488,-0.04392
-0.02928,0.05612,-0.08296,-0.06832,-0.05368,0.0122,0.03416,0.0244,-0.0244,0.01464,0.00488,-0.04392
-0.03416,0.061,-0.08784,-0.07076,-0.05368,0.00976,0.0244,0.02928,-0.0244,0.00488,-0.00488,-0.04392
-0.02928,0.05856,-0.08784,-0.0732,-0.05856,0.01464,0.01464,0.02928,-0.0244,0.00488,-0.00488,-0.03904
-0.01952,0.0488,-0.07808,-0.06832,-0.05856,0.01952,0.01464,0.0244,-0.0244,0.00488,0,-0.03904
-0.01952,0.0488,-0.07808,-0.06832,-0.05856,0.01952,0.01952,0.01952,-0.0244,0.00488,0.00488,-0.03904
-0.02928,0.05124,-0.0732,-0.05856,-0.04392,0.00732,0.01464,0.01952,-0.01952,0.00976,0.01464,-0.03416
-0.03416,0.05124,-0.06832,-0.05124,-0.03416,0,0.01464,0.01952,-0.01952,0.00976,0.01464,-0.03416
-0.01952,0.0488,-0.07808,-0.06832,-0.05856,0.01952,0.01464,0.02928,-0.01952,0.00976,0.00976,-0.04392
-0.01952,0.0488,-0.07808,-0.06832,-0.05856,0.01952,0.01952,0.02928,-0.0244,0.00976,0.00488,-0.04392
-0.03416,0.05612,-0.07808,-0.061,-0.04392,0.00488,0.01952,0.0244,-0.01952,0.00976,0.00488,-0.04392
-0.03416,0.05612,-0.07808,-0.061,-0.04392,0.00488,0.01464,0.0244,-0.0244,0.00976,0.00976,-0.04392
-0.01952,0.04392,-0.06832,-0.05856,-0.0488,0.01464,0.00976,0.02928,-0.01952,0.01952,0.01952,-0.03416
-0.0244,0.04148,-0.05856,-0.04636,-0.03416,0.00488,0.00976,0.0244,-0.0244,0.01952,0.0244,-0.03416
-0.01464,0.02928,-0.04392,-0.0366,-0.02928,0.00732,0.01952,0.0244,-0.01464,0.02928,0.02928,-0.0244
-0.00488,0.0244,-0.04392,-0.04148,-0.03904,0.01708,0.01952,0.02928,-0.00976,0.02928,0.02928,-0.01952
-0.01952,0.04392,-0.06832,-0.05856,-0.0488,0.01464,0.02928,0.03904,-0.01952,0.00976,0.00488,-0.03416
-0.01952,0.0488,-0.07808,-0.06832,-0.05856,0.01952,0.02928,0.03416,-0.01952,0,-0.00488,-0.04392
-0.02928,0.05124,-0.0732,-0.05856,-0.04392,0.00732,0.0244,0.03416,-0.01952,0.00976,0.00976,-0.03416
-0.0244,0.04636,-0.06832,-0.05612,-0.04392,0.00976,0.00976,0.03416,-0.01952,0.00976,0.00976,-0.03416
-0.02928,0.04636,-0.06344,-0.0488,-0.03416,0.00244,0.01464,0.0244,-0.00976,0.00976,0,-0.04392
-0.02928,0.04636,-0.06344,-0.0488,-0.03416,0.00244,0.01952,0.02928,-0.00976,0.01464,-0.00488,-0.04392
-0.02928,0.0488,-0.06832,-0.05368,-0.03904,0.00488,0.0244,0.01952,-0.00976,0.00976,0.00488,-0.03416
-0.0244,0.04636,-0.06832,-0.05612,-0.04392,0.00976,0.01952,0.01952,-0.00976,0.00976,0.00976,-0.03416
-0.02928,0.05368,-0.07808,-0.06344,-0.0488,0.00976,0.01952,0.02928,-0.00976,0.01464,0.00488,-0.04392
-0.02928,0.05368,-0.07808,-0.06344,-0.0488,0.00976,0.01952,0.0244,-0.00976,0.00976,0.00488,-0.04392
-0.03416,0.05612,-0.07808,-0.061,-0.04392,0.00488,0.01464,0.01952,-0.00976,0.00976,0.00488,-0.03416
-0.03416,0.05612,-0.07808,-0.061,-0.04392,0.00488,0.01464,0.01952,-0.00976,0.00976,0.00488,-0.03416
-0.04392,0.05856,-0.0732,-0.05124,-0.02928,-0.00732,0.01464,0.01952,-0.00976,0,0,-0.04392
-0.04392,0.05368,-0.06344,-0.04148,-0.01952,-0.0122,0.01464,0.01952,-0.00976,0,0.00488,-0.04392
-0.03416,0.05124,-0.06832,-0.05124,-0.03416,0,0.02928,0.02928,-0.01464,0.00976,0.01464,-0.04392
-0.02928,0.0488,-0.06832,-0.05368,-0.03904,0.00488,0.0244,0.02928,-0.01464,0.0244,0.01952,-0.04392
-0.03904,0.05124,-0.06344,-0.04392,-0.0244,-0.00732,0.01464,0.02928,-0.00976,0.01464,0.00976,-0.04392
-0.04392,0.05368,-0.06344,-0.04148,-0.01952,-0.0122,0.01464,0.02928,-0.00976,0.01464,0.00488,-0.04392
-0.04392,0.05856,-0.0732,-0.05124,-0.02928,-0.00732,0.0244,0.02928,-0.00976,0.01464,0.00488,-0.03904
-0.03904,0.05612,-0.0732,-0.05368,-0.03416,-0.00244,0.01952,0.0244,-0.00488,0.01464,0.00488,-0.03904
-0.02928,0.0488,-0.06832,-0.05368,-0.03904,0.00488,0.0244,0.0244,-0.01464,0.00976,0,-0.04392
-0.0244,0.04636,-0.06832,-0.05612,-0.04392,0.00976,0.0244,0.02928,-0.00976,0.01464,0.00488,-0.04392
-0.03904,0.05612,-0.0732,-0.05368,-0.03416,-0.00244,0.01952,0.0244,-0.00976,0.00488,0.00488,-0.03904
-0.0488,0.061,-0.0732,-0.0488,-0.0244,-0.0122,0.01952,0.0244,-0.01464,0.00488,0.00488,-0.03904
-0.03904,0.061,-0.08296,-0.06344,-0.04392,0.00244,0.01952,0.01952,-0.01952,0,-0.00488,-0.03904
-0.02928,0.05612,-0.08296,-0.06832,-0.05368,0.0122,0.01952,0.01952,-0.01952,0,-0.00488,-0.03904
-0.02928,0.05124,-0.0732,-0.05856,-0.04392,0.00732,0.01952,0.02928,-0.00976,0.01464,0.00488,-0.03904
-0.02928,0.0488,-0.06832,-0.05368,-0.03904,0.00488,0.01952,0.03416,-0.00976,0.00976,0.00488,-0.03904
-0.02928,0.04148,-0.05368,-0.03904,-0.0244,-0.00244,0.02928,0.0244,-0.00488,0.01952,0.00976,-0.03904
-0.02928,0.04148,-0.05368,-0.03904,-0.0244,-0.00244,0.0244,0.0244,-0.00488,0.01952,0.00976,-0.03904
-0.03904,0.0488,-0.05856,-0.03904,-0.01952,-0.00976,0.0244,0.02928,-0.00488,0.00976,0.01464,-0.02928
-0.0488,0.05368,-0.05856,-0.03416,-0.00976,-0.01952,0.0244,0.0244,-0.00488,0.00976,0.01464,-0.02928
-0.04392,0.05856,-0.0732,-0.05124,-0.02928,-0.00732,0.01952,0.01464,-0.01464,0.00488,0.00976,-0.03904
-0.05368,0.06588,-0.07808,-0.05124,-0.0244,-0.01464,0.01952,0.01952,-0.01464,0.00976,0.00976,-0.0488
-0.04392,0.061,-0.07808,-0.05612,-0.03416,-0.00488,0.01952,0.02928,-0.00488,0.00488,0.00976,-0.04392
-0.03904,0.05856,-0.07808,-0.05856,-0.03904,0,0.0244,0.02928,-0.00488,0.00488,0.00976,-0.05368
-0.03904,0.05368,-0.06832,-0.0488,-0.02928,-0.00488,0.02928,0.02928,-0.00488,0.00488,0.00976,-0.04392
-0.04392,0.06588,-0.08784,-0.06588,-0.04392,0,0.0244,0.03416,-0.00488,0.00488,-0.00976,-0.05368
-0.0488,0.06588,-0.08296,-0.05856,-0.03416,-0.00732,0.01952,0.02928,-0.01464,0.00976,-0.00488,-0.03904
-0.0488,0.061,-0.0732,-0.0488,-0.0244,-0.0122,0.01952,0.02928,-0.00488,0.00976,0.00488,-0.03904
-0.04392,0.05368,-0.06344,-0.04148,-0.01952,-0.0122,0.01952,0.03416,0.00488,0.01464,0.01952,-0.03416
-0.02928,0.0366,-0.04392,-0.02928,-0.01464,-0.00732,0.01464,0.02928,0.00976,0.02928,0.01952,-0.0244
-0.0244,0.02684,-0.02928,-0.01708,-0.00488,-0.00976,0.01464,0.02928,0.0244,0.02928,0.02928,-0.00976
-0.01952,0.02196,-0.0244,-0.01464,-0.00488,-0.00732,0.01952,0.02928,0.0244,0.03416,0.02928,-0.00976
-0.02928,0.02196,-0.01464,0,0.01464,-0.02196,0.01464,0.01464,0.03416,0.03904,0.02928,-0.01464
-0.01952,0.0122,-0.00488,0.00488,0.01464,-0.01708,0.00488,0.01464,0.04392,0.05368,0.03416,-0.00488
-0.00488,0.00244,0,0.00244,0.00488,-0.00488,-0.00488,0.02928,0.04392,0.04392,0.0244,-0.00488
0.00488,0,-0.00488,-0.00732,-0.00976,0.00732,0.00488,0.03416,0.02928,0.0488,0.03416,0
0.00976,-0.00488,0,-0.00488,-0.00976,0.00976,0.00488,0.04392,0.0244,0.0488,0.03416,-0.00488
0.01952,-0.00976,0,-0.00976,-0.01952,0.01952,0,0.0488,0.01464,0.04392,0.03904,-0.00488
0.0244,-0.00976,-0.00488,-0.01708,-0.02928,0.02684,0,0.04392,0.00976,0.04392,0.03904,-0.00976
0.0244,-0.00488,-0.01464,-0.02684,-0.03904,0.03172,0,0.04392,-0.00488,0.03416,0.02928,-0.01464
0.02928,-0.00732,-0.01464,-0.02928,-0.04392,0.0366,-0.01464,0.0244,-0.01464,0.01952,0.02928,-0.00488
0.01952,-0.00244,-0.01464,-0.0244,-0.03416,0.02684,-0.01952,0.01464,-0.01464,0.01952,0.0244,-0.00488
0.01464,0,-0.01464,-0.02196,-0.02928,0.02196,-0.0244,0.00976,-0.00488,0.00976,0.01952,-0.00488
0,0.00976,-0.01952,-0.01952,-0.01952,0.00976,-0.0244,0.00488,-0.00488,0.01464,0.01952,-0.00488
0.01464,0,-0.01464,-0.02196,-0.02928,0.02196,-0.01952,0.00488,-0.00488,0.00976,0.0244,-0.0244
-0.00488,0.0122,-0.01952,-0.01708,-0.01464,0.00488,-0.01464,0.00488,-0.00488,0.00976,0.0244,-0.0244
-0.01952,0.02684,-0.03416,-0.0244,-0.01464,-0.00244,-0.00976,0.00488,-0.01464,0.01952,0.01464,-0.0244
-0.01952,0.02684,-0.03416,-0.0244,-0.01464,-0.00244,-0.00976,0.00976,-0.01464,0.00976,0.01464,-0.0244
-0.01464,0.03172,-0.0488,-0.04148,-0.03416,0.00976,-0.00488,0.01464,-0.01464,0.00976,0,-0.02928
-0.00976,0.03416,-0.05856,-0.05368,-0.0488,0.01952,0.00488,0.01952,-0.01952,0.00488,-0.00488,-0.03904
-0.00976,0.02928,-0.0488,-0.04392,-0.03904,0.01464,0.00488,0.01952,-0.0244,-0.00488,0,-0.03904
-0.01464,0.03416,-0.05368,-0.04636,-0.03904,0.0122,0.00976,0.01952,-0.0244,0,0,-0.03904
-0.01464,0.03416,-0.05368,-0.04636,-0.03904,0.0122,0.00976,0.01952,-0.00976,0.00976,0,-0.02928
-0.0244,0.04148,-0.05856,-0.04636,-0.03416,0.00488,0.00976,0.01952,-0.00976,0.00976,0,-0.02928
-0.03416,0.04392,-0.05368,-0.0366,-0.01952,-0.00732,0.03416,0.01952,-0.00488,0.00976,0.01464,-0.02928
-0.04392,0.0488,-0.05368,-0.03172,-0.00976,-0.01708,0.03416,0.0244,0.00488,0.01952,0.01952,-0.02928
-0.06832,0.06344,-0.05856,-0.0244,0.00976,-0.03904,0.04392,0.0244,0,0.01464,0.00488,-0.03416
-0.0732,0.07564,-0.07808,-0.04148,-0.00488,-0.03416,0.04392,0.0244,-0.00488,0.00488,-0.00976,-0.04392
-0.07808,0.08052,-0.08296,-0.04392,-0.00488,-0.0366,0.04392,0.0244,-0.00488,0.00976,-0.00488,-0.04392
-0.07808,0.0854,-0.09272,-0.05368,-0.01464,-0.03172,0.04392,0.02928,-0.00488,0.00488,-0.01464,-0.05368
-0.0732,0.08052,-0.08784,-0.05124,-0.01464,-0.02928,0.0488,0.01952,-0.00976,0,-0.00976,-0.05368
-0.0732,0.08052,-0.08784,-0.05124,-0.01464,-0.02928,0.0488,0.01952,-0.00976,0,-0.00976,-0.05368
-0.0732,0.08052,-0.08784,-0.05124,-0.01464,-0.02928,0.0488,0.02928,-0.00976,0,-0.00976,-0.04392
-0.08296,0.08784,-0.09272,-0.05124,-0.00976,-0.0366,0.0488,0.02928,-0.00976,0,-0.00976,-0.04392
-0.0732,0.08296,-0.09272,-0.05612,-0.01952,-0.02684,0.0488,0.02928,0.00488,0.00976,0,-0.04392
-0.0732,0.08052,-0.08784,-0.05124,-0.01464,-0.02928,0.0488,0.02928,0.00488,0.00976,0.00488,-0.03904
-0.06344,0.06832,-0.0732,-0.04148,-0.00976,-0.02684,0.0488,0.02928,0.00488,0,0,-0.05368
-0.06344,0.06832,-0.0732,-0.04148,-0.00976,-0.02684,0.0488,0.02928,0.00488,0.00488,-0.00976,-0.05368
-0.06344,0.06344,-0.06344,-0.03172,0,-0.03172,0.05856,0.03904,0.00976,0.01464,0,-0.03904
-0.08296,0.0732,-0.06344,-0.02196,0.01952,-0.05124,0.06832,0.04392,0.02928,0.02928,0.00976,-0.03904
-0.10736,0.0732,-0.03904,0.01464,0.06832,-0.08784,0.06832,0.0732,0.08296,0.07808,0.04392,-0.02928
-0.11712,0.0732,-0.02928,0.02928,0.08784,-0.10248,0.0976,0.11712,0.13664,0.13176,0.07808,-0.0244
-0.11224,0.0366,0.03904,0.09516,0.15128,-0.13176,0.09272,0.12688,0.17568,0.18056,0.12688,0.0244
-0.03416,-0.0122,0.05856,0.07564,0.09272,-0.06344,0.08296,0.16104,0.16592,0.19032,0.1464,0.05856
0,-0.03904,0.07808,0.07808,0.07808,-0.03904,0.0732,0.18056,0.13664,0.19032,0.18056,0.08296
0.15128,-0.16836,0.18544,0.1098,0.03416,0.05856,-0.00976,0.15128,0.10736,0.20008,0.22936,0.16592
0.32696,-0.33672,0.34648,0.183,0.01952,0.15372,-0.16104,0.04392,0.09272,0.22936,0.30256,0.28304
0.50752,-0.48068,0.45384,0.20008,-0.05368,0.2806,-0.31232,-0.05856,0.0244,0.20008,0.31232,0.36112
0.62952,-0.61,0.59048,0.27572,-0.03904,0.33428,-0.49776,-0.27816,-0.02928,0.17568,0.34648,0.44896
0.74176,-0.69296,0.64416,0.27328,-0.0976,0.41968,-0.5856,-0.3904,-0.122,0.09272,0.33184,0.49288
0.76128,-0.68564,0.61,0.22936,-0.15128,0.45628,-0.62952,-0.50752,-0.29768,-0.08296,0.23912,0.50264
0.76616,-0.55632,0.34648,-0.0366,-0.41968,0.59292,-0.55144,-0.47824,-0.49288,-0.31232,0.0244,0.35136
0.6588,-0.32696,-0.00488,-0.33428,-0.66368,0.66124,-0.38552,-0.36112,-0.60512,-0.48312,-0.2196,0.08784
0.45384,-0.12444,-0.20496,-0.43188,-0.6588,0.55632,-0.244,-0.3172,-0.69784,-0.59048,-0.33184,-0.03904
0.25864,0.061,-0.38064,-0.50996,-0.63928,0.44896,-0.13176,-0.28792,-0.71736,-0.6344,-0.41968,-0.17568
0.12688,0.16104,-0.44896,-0.5124,-0.57584,0.35136,-0.04392,-0.244,-0.6588,-0.62464,-0.47336,-0.27816
0.05368,0.19764,-0.44896,-0.4758,-0.50264,0.27816,0.00976,-0.13176,-0.5368,-0.53192,-0.45384,-0.2928
0.06344,0.15616,-0.37576,-0.40748,-0.4392,0.25132,0.01952,-0.0732,-0.42944,-0.43432,-0.39528,-0.2684
0.06344,0.0976,-0.25864,-0.29036,-0.32208,0.19276,0.00488,-0.06344,-0.2928,-0.31232,-0.2684,-0.1952
0.06832,0.06588,-0.20008,-0.23424,-0.2684,0.16836,-0.00488,-0.0488,-0.23424,-0.2196,-0.1952,-0.14152
-0.00976,0.0854,-0.16104,-0.15616,-0.15128,0.07076,0.00976,-0.00976,-0.1464,-0.13176,-0.13176,-0.10248
-0.03416,0.0854,-0.13664,-0.11956,-0.10248,0.03416,0.02928,0.00976,-0.0732,-0.08296,-0.09272,-0.08784
-0.05368,0.0854,-0.11712,-0.09028,-0.06344,0.00488,0.04392,0.00976,-0.05856,-0.06832,-0.06832,-0.08296
-0.05368,0.07808,-0.10248,-0.07564,-0.0488,-0.00244,0.0488,0.01464,-0.04392,-0.05856,-0.05368,-0.0732
-0.05368,0.0732,-0.09272,-0.06588,-0.03904,-0.00732,0.05368,0.01952,-0.01952,-0.02928,-0.03416,-0.0488
-0.06344,0.07808,-0.09272,-0.061,-0.02928,-0.01708,0.05368,0.0244,-0.01464,-0.01464,-0.03416,-0.05368
-0.08296,0.08784,-0.09272,-0.05124,-0.00976,-0.0366,0.0488,0.0244,0,-0.00976,-0.02928,-0.05368
-0.08296,0.08784,-0.09272,-0.05124,-0.00976,-0.0366,0.05368,0.0244,-0.00488,-0.00488,-0.0244,-0.05368
-0.08296,0.08784,-0.09272,-0.05124,-0.00976,-0.0366,0.06344,0.0244,-0.00488,-0.00488,-0.01952,-0.05856
-0.08296,0.0854,-0.08784,-0.04636,-0.00488,-0.03904,0.06344,0.0244,0,-0.00488,-0.02928,-0.05856
-0.08296,0.0854,-0.08784,-0.04636,-0.00488,-0.03904,0.06344,0.03416,0.00488,-0.01464,-0.0244,-0.04392
-0.08296,0.0854,-0.08784,-0.04636,-0.00488,-0.03904,0.06344,0.03416,0.01464,-0.00488,-0.0244,-0.04392
-0.08296,0.09028,-0.0976,-0.05612,-0.01464,-0.03416,0.06344,0.0244,0.00488,-0.00488,-0.0244,-0.05856
-0.07808,0.0854,-0.09272,-0.05368,-0.01464,-0.03172,0.06344,0.0244,0,-0.00488,-0.01952,-0.05368
-0.08296,0.09028,-0.0976,-0.05612,-0.01464,-0.03416,0.06832,0.03904,0,-0.00488,-0.01952,-0.05368
-0.08296,0.09028,-0.0976,-0.05612,-0.01464,-0.03416,0.0732,0.03904,0,-0.00976,-0.0244,-0.05368
-0.09272,0.08784,-0.08296,-0.0366,0.00976,-0.05124,0.06832,0.02928,0.00976,0,-0.01952,-0.04392
-0.08784,0.0854,-0.08296,-0.03904,0.00488,-0.04636,0.06832,0.02928,0.00976,0.00488,-0.01952,-0.04392
-0.0976,0.09272,-0.08784,-0.03904,0.00976,-0.05368,0.06344,0.03904,0.00976,0.00488,-0.01952,-0.04392
-0.0976,0.09272,-0.08784,-0.03904,0.00976,-0.05368,0.06344,0.03416,0.00976,0,-0.01952,-0.04392
-0.09272,0.08784,-0.08296,-0.0366,0.00976,-0.05124,0.06344,0.02928,0.00976,0,-0.01952,-0.04392
-0.08784,0.0854,-0.08296,-0.03904,0.00488,-0.04636,0.06344,0.02928,0.00976,0.00488,-0.01952,-0.04392
-0.08784,0.0854,-0.08296,-0.03904,0.00488,-0.04636,0.06344,0.03904,0.00976,0,-0.01952,-0.03416
-0.08784,0.0854,-0.08296,-0.03904,0.00488,-0.04636,0.06344,0.03904,0.00488,0,-0.01952,-0.03416
