i,aVR,ii,aVF,iii,aVL,V1,V2,V3,V4,V5,V6
-0.01952,0.03416,-0.0488,-0.03904,-0.02928,0.00488,0.00976,-0.0244,-0.0488,-0.02928,-0.0244,-0.02928
-0.01952,0.03904,-0.05856,-0.0488,-0.03904,0.00976,0.01952,-0.01464,-0.0488,-0.02928,-0.03416,-0.03904
-0.01952,0.03904,-0.05856,-0.0488,-0.03904,0.00976,0.0244,-0.01464,-0.0488,-0.02928,-0.03904,-0.03904
-0.0244,0.0366,-0.0488,-0.0366,-0.0244,0,0.0244,-0.00976,-0.04392,-0.03904,-0.03416,-0.03904
-0.0244,0.03904,-0.05368,-0.04148,-0.02928,0.00244,0.0244,-0.00976,-0.0488,-0.03904,-0.03416,-0.03904
-0.0244,0.03904,-0.05368,-0.04148,-0.02928,0.00244,0.0244,-0.00976,-0.0488,-0.03416,-0.02928,-0.03416
-0.0244,0.03904,-0.05368,-0.04148,-0.02928,0.00244,0.0244,-0.00488,-0.04392,-0.03416,-0.0244,-0.03416
-0.0244,0.03904,-0.05368,-0.04148,-0.02928,0.00244,0.0244,-0.01464,-0.04392,-0.02928,-0.03416,-0.03416
-0.0244,0.03904,-0.05368,-0.04148,-0.02928,0.00244,0.0244,-0.01464,-0.04392,-0.02928,-0.03416,-0.03416
-0.03416,0.04392,-0.05368,-0.0366,-0.01952,-0.00732,0.0244,-0.00976,-0.04392,-0.03416,-0.03416,-0.04392
-0.03904,0.04392,-0.0488,-0.02928,-0.00976,-0.01464,0.0244,-0.00976,-0.04392,-0.03416,-0.03416,-0.03904
-0.0244,0.0366,-0.0488,-0.0366,-0.0244,0,0.0244,-0.00976,-0.04392,-0.03416,-0.03416,-0.03904
-0.0244,0.0366,-0.0488,-0.0366,-0.0244,0,0.0244,-0.00976,-0.04392,-0.03416,-0.03416,-0.03904
-0.03416,0.04636,-0.05856,-0.04148,-0.0244,-0.00488,0.03416,0.00976,-0.03904,-0.03416,-0.02928,-0.03904
-0.0488,0.061,-0.0732,-0.0488,-0.0244,-0.0122,0.05368,0.03904,-0.0244,-0.03904,-0.05368,-0.06832
-0.05856,0.06832,-0.07808,-0.0488,-0.01952,-0.01952,0.08784,0.08784,0.01952,-0.01952,-0.05856,-0.07808
-0.05368,0.03904,-0.0244,0.00244,0.02928,-0.04148,0.09272,0.0976,0.08784,0.05856,0.00488,-0.05368
0.04392,-0.04392,0.04392,0.02196,0,0.02196,0.07808,0.15128,0.18056,0.1952,0.12688,0.03416
0.20984,-0.15128,0.09272,-0.0122,-0.11712,0.16348,0.0244,0.21472,0.23912,0.3172,0.27816,0.16104
0.3904,-0.2806,0.1708,-0.0244,-0.2196,0.305,-0.0732,0.18056,0.28304,0.45384,0.47336,0.35136
0.6344,-0.47092,0.30744,-0.00976,-0.32696,0.48068,-0.244,0.04392,0.28304,0.61488,0.74176,0.64904
0.87352,-0.70028,0.52704,0.09028,-0.34648,0.61,-0.49776,-0.22936,0.244,0.76616,1.05896,1.0004
0.96624,-0.793,0.61976,0.13664,-0.34648,0.65636,-0.67344,-0.50264,0.07808,0.732,1.14192,1.16632
0.82472,-0.64904,0.47336,0.061,-0.35136,0.58804,-0.64416,-0.5856,-0.17568,0.37576,0.79544,0.976
0.5124,-0.40504,0.29768,0.04148,-0.21472,0.36356,-0.49776,-0.59048,-0.37088,0.02928,0.38064,0.6588
0.18544,-0.16836,0.15128,0.05856,-0.03416,0.1098,-0.33672,-0.5612,-0.49776,-0.27816,0,0.3172
-0.01464,0.01464,-0.01464,-0.00732,0,-0.00732,-0.20008,-0.488,-0.60024,-0.52704,-0.2684,0.0488
-0.06344,0.08052,-0.0976,-0.06588,-0.03416,-0.01464,-0.11224,-0.35136,-0.52216,-0.4636,-0.27328,-0.04392
-0.06344,0.0976,-0.13176,-0.10004,-0.06832,0.00244,-0.00976,-0.1952,-0.38064,-0.33672,-0.22448,-0.0732
-0.03904,0.07808,-0.11712,-0.0976,-0.07808,0.01952,0.0488,-0.05856,-0.23424,-0.20008,-0.1464,-0.05856
0,0.02684,-0.05368,-0.05368,-0.05368,0.02684,0.0244,-0.01464,-0.12688,-0.0976,-0.06344,-0.01952
0.00976,0.0122,-0.03416,-0.03904,-0.04392,0.02684,0.00488,0.01464,-0.06344,-0.03904,-0.0244,0.00488
0,0.01464,-0.02928,-0.02928,-0.02928,0.01464,0.01464,0.01464,-0.03904,-0.00976,-0.00976,-0.00976
-0.00488,0.02196,-0.03904,-0.0366,-0.03416,0.01464,0.02928,0.02928,-0.03416,-0.01952,-0.0244,-0.0244
-0.00976,0.02684,-0.04392,-0.03904,-0.03416,0.0122,0.03416,0.03416,-0.03416,-0.01952,-0.02928,-0.02928
-0.0244,0.03416,-0.04392,-0.03172,-0.01952,-0.00244,0.04392,0.02928,-0.02928,-0.01952,-0.01952,-0.02928
-0.02928,0.03904,-0.0488,-0.03416,-0.01952,-0.00488,0.04392,0.03904,-0.0244,-0.01464,-0.01952,-0.02928
-0.01952,0.03416,-0.0488,-0.03904,-0.02928,0.00488,0.04392,0.05368,-0.01952,0,-0.02928,-0.03904
-0.01952,0.03416,-0.0488,-0.03904,-0.02928,0.00488,0.04392,0.05368,-0.01464,0,-0.0244,-0.03904
-0.00488,0.0244,-0.04392,-0.04148,-0.03904,0.01708,0.0488,0.06344,0,0.00488,-0.01464,-0.02928
-0.00488,0.0244,-0.04392,-0.04148,-0.03904,0.01708,0.0488,0.06344,0,0.00488,-0.01464,-0.02928
-0.01464,0.02928,-0.04392,-0.0366,-0.02928,0.00732,0.04392,0.05856,-0.00488,0.00488,-0.01464,-0.02928
-0.00976,0.02684,-0.04392,-0.03904,-0.03416,0.0122,0.04392,0.05856,0,0.00488,-0.01464,-0.02928
-0.01952,0.02928,-0.03904,-0.02928,-0.01952,0,0.04392,0.04392,0,0.00976,-0.01464,-0.03904
-0.0244,0.03172,-0.03904,-0.02684,-0.01464,-0.00488,0.04392,0.0488,0.00488,0.01464,-0.00976,-0.03416
-0.0244,0.02928,-0.03416,-0.02196,-0.00976,-0.00732,0.04392,0.05856,0.00488,0.01464,-0.01952,-0.03416
-0.01952,0.02684,-0.03416,-0.0244,-0.01464,-0.00244,0.04392,0.05856,0.00976,0.01464,-0.01464,-0.03416
-0.01952,0.02684,-0.03416,-0.0244,-0.01464,-0.00244,0.0488,0.05856,0.01464,0.00488,-0.01464,-0.0244
-0.01952,0.02684,-0.03416,-0.0244,-0.01464,-0.00244,0.0488,0.05856,0.01464,0.00488,-0.01464,-0.0244
-0.00976,0.02196,-0.03416,-0.02928,-0.0244,0.00732,0.04392,0.06832,0.01464,0.01952,0,-0.0244
-0.00976,0.02196,-0.03416,-0.02928,-0.0244,0.00732,0.0488,0.0732,0.01464,0.01952,0,-0.0244
-0.00976,0.01952,-0.02928,-0.0244,-0.01952,0.00488,0.0488,0.0732,0.01952,0.01464,-0.00976,-0.0244
-0.00488,0.01464,-0.0244,-0.02196,-0.01952,0.00732,0.0488,0.0732,0.01952,0.01464,-0.00488,-0.0244
-0.00976,0.02196,-0.03416,-0.02928,-0.0244,0.00732,0.04392,0.06832,0.01952,0.0244,-0.00488,-0.0244
-0.00976,0.02196,-0.03416,-0.02928,-0.0244,0.00732,0.04392,0.06832,0.01952,0.0244,-0.00488,-0.0244
0,0.0122,-0.0244,-0.0244,-0.0244,0.0122,0.04392,0.06832,0.02928,0.01464,0.00488,-0.0244
0.00488,0.00976,-0.0244,-0.02684,-0.02928,0.01708,0.04392,0.06832,0.02928,0.01952,0.00488,-0.01952
0.00488,0.00732,-0.01952,-0.02196,-0.0244,0.01464,0.03904,0.06344,0.0244,0.0244,0,-0.02928
0.00976,0.00488,-0.01952,-0.0244,-0.02928,0.01952,0.03904,0.06344,0.0244,0.0244,0.00488,-0.02928
0,0.00732,-0.01464,-0.01464,-0.01464,0.00732,0.03904,0.06344,0.02928,0.01952,0.00488,-0.0244
0,0.00732,-0.01464,-0.01464,-0.01464,0.00732,0.03904,0.06832,0.02928,0.01952,0.00488,-0.0244
0.00976,0.00244,-0.01464,-0.01952,-0.0244,0.01708,0.02928,0.06832,0.03416,0.03416,0.00976,-0.0244
0.01464,-0.00244,-0.00976,-0.01708,-0.0244,0.01952,0.02928,0.06832,0.03416,0.03416,0.01464,-0.01952
0.01464,-0.00244,-0.00976,-0.01708,-0.0244,0.01952,0.02928,0.0732,0.03904,0.03904,0.01464,-0.01952
0.01464,-0.00244,-0.00976,-0.01708,-0.0244,0.01952,0.02928,0.0732,0.03904,0.04392,0.01464,-0.01464
0.00976,-0.00244,-0.00488,-0.00976,-0.01464,0.0122,0.0244,0.0732,0.04392,0.0488,0.01952,-0.00488
0.00976,-0.00244,-0.00488,-0.00976,-0.01464,0.0122,0.01952,0.0732,0.0488,0.0488,0.01952,0
0.01952,-0.0122,0.00488,-0.00488,-0.01464,0.01708,0.02928,0.0732,0.05856,0.06344,0.0244,0.00488
0.0244,-0.01464,0.00488,-0.00732,-0.01952,0.02196,0.02928,0.07808,0.06344,0.06344,0.02928,0.00488
0.02928,-0.01464,0,-0.01464,-0.02928,0.02928,0.02928,0.07808,0.05856,0.05856,0.03904,0.00976
0.02928,-0.01952,0.00976,-0.00488,-0.01952,0.0244,0.02928,0.08296,0.05856,0.06832,0.03904,0.00976
0.0244,-0.01708,0.00976,-0.00244,-0.01464,0.01952,0.02928,0.08784,0.06344,0.0732,0.04392,0.01464
0.02928,-0.01952,0.00976,-0.00488,-0.01952,0.0244,0.02928,0.09272,0.06832,0.07808,0.0488,0.01952
0.03904,-0.03172,0.0244,0.00488,-0.01464,0.02684,0.01952,0.10248,0.08296,0.09272,0.05368,0.0244
0.0488,-0.03904,0.02928,0.00488,-0.01952,0.03416,0.01952,0.11224,0.08296,0.0976,0.05368,0.0244
0.0488,-0.03416,0.01952,-0.00488,-0.02928,0.03904,0.0244,0.11224,0.08784,0.10248,0.06832,0.02928
0.05368,-0.03904,0.0244,-0.00244,-0.02928,0.04148,0.01952,0.11224,0.09272,0.10736,0.0732,0.03416
0.0488,-0.03416,0.01952,-0.00488,-0.02928,0.03904,0.01952,0.11712,0.0976,0.11712,0.0732,0.03904
0.05368,-0.04148,0.02928,0.00244,-0.0244,0.03904,0.01464,0.11712,0.10248,0.11712,0.08296,0.0488
0.05856,-0.05124,0.04392,0.01464,-0.01464,0.0366,0.01464,0.122,0.10736,0.122,0.08784,0.0488
0.06832,-0.05612,0.04392,0.00976,-0.0244,0.04636,0.01464,0.122,0.11712,0.13664,0.0976,0.05856
0.0732,-0.05856,0.04392,0.00732,-0.02928,0.05124,0.00976,0.12688,0.11712,0.1464,0.10248,0.05856
0.07808,-0.06588,0.05368,0.01464,-0.0244,0.05124,0.00488,0.13176,0.13176,0.15616,0.11224,0.06832
0.07808,-0.07076,0.06344,0.0244,-0.01464,0.04636,0.00488,0.1464,0.13664,0.16592,0.122,0.07808
0.07808,-0.07076,0.06344,0.0244,-0.01464,0.04636,0.00488,0.1464,0.1464,0.17568,0.13176,0.08784
0.10248,-0.09516,0.08784,0.0366,-0.01464,0.05856,0,0.15616,0.15616,0.18544,0.1464,0.09272
0.11712,-0.1098,0.10248,0.04392,-0.01464,0.06588,-0.00976,0.16104,0.16104,0.1952,0.15616,0.10248
0.11712,-0.11224,0.10736,0.0488,-0.00976,0.06344,-0.01464,0.16104,0.18056,0.2196,0.1708,0.122
0.13176,-0.11956,0.10736,0.04148,-0.0244,0.07808,-0.01464,0.1708,0.19032,0.22448,0.18544,0.13176
0.1464,-0.1342,0.122,0.0488,-0.0244,0.0854,-0.0244,0.17568,0.20008,0.22936,0.1952,0.13664
0.15616,-0.1464,0.13664,0.05856,-0.01952,0.08784,-0.03416,0.17568,0.20984,0.244,0.20984,0.15128
0.1708,-0.1586,0.1464,0.061,-0.0244,0.0976,-0.02928,0.18056,0.21472,0.26352,0.22448,0.16104
0.18544,-0.1708,0.15616,0.06344,-0.02928,0.10736,-0.03904,0.18056,0.22448,0.27816,0.23912,0.17568
0.1952,-0.17812,0.16104,0.06344,-0.03416,0.11468,-0.04392,0.18056,0.22448,0.27816,0.24888,0.19032
0.20008,-0.18544,0.1708,0.07076,-0.02928,0.11468,-0.05368,0.18056,0.23424,0.2928,0.25376,0.20984
0.21472,-0.20496,0.1952,0.08784,-0.01952,0.11712,-0.06344,0.1708,0.244,0.30256,0.2684,0.22448
0.22936,-0.21716,0.20496,0.09028,-0.0244,0.12688,-0.06832,0.17568,0.244,0.30744,0.28792,0.23912
0.23424,-0.22692,0.2196,0.10248,-0.01464,0.12444,-0.08296,0.16592,0.25376,0.3172,0.28792,0.244
0.244,-0.23668,0.22936,0.10736,-0.01464,0.12932,-0.08784,0.17568,0.26352,0.32696,0.29768,0.25376
0.25376,-0.23912,0.22448,0.0976,-0.02928,0.14152,-0.0976,0.16592,0.26352,0.33184,0.31232,0.2684
0.26352,-0.24888,0.23424,0.10248,-0.02928,0.1464,-0.10736,0.15616,0.26352,0.33184,0.32208,0.27816
0.27328,-0.26352,0.25376,0.11712,-0.01952,0.1464,-0.11224,0.16104,0.26352,0.34648,0.3416,0.2928
0.28304,-0.2684,0.25376,0.11224,-0.02928,0.15616,-0.122,0.1464,0.26352,0.34648,0.3416,0.30256
0.2928,-0.27572,0.25864,0.11224,-0.03416,0.16348,-0.122,0.12688,0.25376,0.33672,0.33184,0.30256
0.29768,-0.27572,0.25376,0.10492,-0.04392,0.1708,-0.12688,0.11224,0.244,0.33184,0.33672,0.30744
0.2928,-0.27084,0.24888,0.10248,-0.04392,0.16836,-0.12688,0.0976,0.23912,0.33184,0.33672,0.30744
0.27816,-0.25864,0.23912,0.10004,-0.03904,0.1586,-0.12688,0.08296,0.22936,0.32208,0.32696,0.29768
0.2684,-0.25376,0.23912,0.10492,-0.02928,0.14884,-0.13664,0.06344,0.2196,0.31232,0.31232,0.29768
0.24888,-0.23912,0.22936,0.10492,-0.01952,0.1342,-0.122,0.04392,0.20496,0.29768,0.2928,0.27328
0.22448,-0.21472,0.20496,0.09272,-0.01952,0.122,-0.122,0.0488,0.18056,0.27816,0.28304,0.25376
0.1952,-0.19032,0.18544,0.08784,-0.00976,0.10248,-0.11224,0.03904,0.1708,0.24888,0.25376,0.22936
0.16104,-0.1586,0.15616,0.07564,-0.00488,0.08296,-0.10248,0.02928,0.15616,0.22448,0.23424,0.20984
0.13664,-0.13176,0.12688,0.05856,-0.00976,0.0732,-0.08784,0.01952,0.13664,0.20008,0.20984,0.17568
0.122,-0.11468,0.10736,0.04636,-0.01464,0.06832,-0.06832,0.01952,0.12688,0.18056,0.1708,0.15128
0.10248,-0.09516,0.08784,0.0366,-0.01464,0.05856,-0.05856,0.01464,0.10736,0.15128,0.1464,0.12688
0.0732,-0.07076,0.06832,0.03172,-0.00488,0.03904,-0.04392,0.00976,0.09272,0.13176,0.13176,0.10736
0.05368,-0.05124,0.0488,0.02196,-0.00488,0.02928,-0.04392,0.00976,0.0732,0.11224,0.11224,0.08784
0.04392,-0.0366,0.02928,0.00732,-0.01464,0.02928,-0.02928,0.00488,0.06832,0.0976,0.09272,0.06344
0.02928,-0.0244,0.01952,0.00488,-0.00976,0.01952,-0.01952,0.00488,0.05856,0.08296,0.07808,0.0488
0.0244,-0.01708,0.00976,-0.00244,-0.01464,0.01952,-0.01952,0.00488,0.0488,0.0732,0.05368,0.04392
0.01952,-0.00976,0,-0.00976,-0.01952,0.01952,-0.00488,0.00488,0.03904,0.06344,0.04392,0.02928
0.00976,-0.00244,-0.00488,-0.00976,-0.01464,0.0122,-0.00488,0.00488,0.02928,0.05368,0.03904,0.0244
0.00976,0.00244,-0.01464,-0.01952,-0.0244,0.01708,0.00488,0.00976,0.02928,0.04392,0.02928,0.01464
-0.00488,0.00976,-0.01464,-0.0122,-0.00976,0.00244,-0.00488,0.00976,0.01464,0.03904,0.03416,0.00976
-0.00976,0.01464,-0.01952,-0.01464,-0.00976,0,0,0.00976,0.01464,0.03416,0.02928,0.00976
0,0.00732,-0.01464,-0.01464,-0.01464,0.00732,0.00976,0.00976,0.01952,0.02928,0.0244,0.01464
0,0.00732,-0.01464,-0.01464,-0.01464,0.00732,0.00976,0.00976,0.01464,0.02928,0.0244,0.00976
-0.00488,0.01708,-0.02928,-0.02684,-0.0244,0.00976,0.01464,0.00976,0.01464,0.02928,0.01952,0.00488
-0.00488,0.01952,-0.03416,-0.03172,-0.02928,0.0122,0.01464,0.00976,0.00976,0.0244,0.01952,0
-0.01952,0.02684,-0.03416,-0.0244,-0.01464,-0.00244,0.00976,0.00488,0.00976,0.0244,0.01464,0
-0.01952,0.02928,-0.03904,-0.02928,-0.01952,0,0.00976,0.00488,0.00976,0.0244,0.01464,-0.00488
-0.00976,0.01708,-0.0244,-0.01952,-0.01464,0.00244,0.01464,0.00488,0.00488,0.01952,0.01464,-0.00488
-0.00976,0.01708,-0.0244,-0.01952,-0.01464,0.00244,0.01464,0.00488,0.00488,0.01952,0.01464,-0.00488
-0.01952,0.02684,-0.03416,-0.0244,-0.01464,-0.00244,0.00488,0,0.00488,0.01952,0,-0.00488
-0.0244,0.02928,-0.03416,-0.02196,-0.00976,-0.00732,0.00488,0,0.00976,0.01952,0.00488,-0.00488
-0.0244,0.02928,-0.03416,-0.02196,-0.00976,-0.00732,0.00488,0.01464,0.00976,0.01952,0.00488,-0.00488
-0.0244,0.02928,-0.03416,-0.02196,-0.00976,-0.00732,0.00976,0.01464,0.00976,0.01464,0.00488,-0.00488
-0.0244,0.02928,-0.03416,-0.02196,-0.00976,-0.00732,0.00976,0.01464,0.00488,0.01464,0,-0.00488
-0.01952,0.02684,-0.03416,-0.0244,-0.01464,-0.00244,0.00976,0.01464,0.00488,0.01464,0.01464,-0.00488
-0.01952,0.02684,-0.03416,-0.0244,-0.01464,-0.00244,0.00976,0.01464,0.00976,0.01464,0.01952,-0.00488
-0.01952,0.02684,-0.03416,-0.0244,-0.01464,-0.00244,0.00976,0.01464,0.00976,0.01464,0.00488,-0.00488
-0.01952,0.02684,-0.03416,-0.0244,-0.01464,-0.00244,0.00976,0.01464,0.00976,0.01464,0.00976,-0.00488
-0.01952,0.02684,-0.03416,-0.0244,-0.01464,-0.00244,0.00976,0.01464,0.00488,0.01464,0.00976,-0.00488
-0.00976,0.02196,-0.03416,-0.02928,-0.0244,0.00732,0.01952,0.00488,0.00488,0.01952,0.00976,-0.00488
-0.00976,0.02196,-0.03416,-0.02928,-0.0244,0.00732,0.01952,0.00488,0.00976,0.01952,0.00976,-0.00488
-0.01464,0.02196,-0.02928,-0.02196,-0.01464,0,0.00488,0.00488,0,0.01952,0,0
-0.01464,0.0244,-0.03416,-0.02684,-0.01952,0.00244,0.00488,0.00488,0,0.01952,0,0
-0.01952,0.02928,-0.03904,-0.02928,-0.01952,0,0.01464,0.01464,0,0.01952,0,0
-0.01464,0.02684,-0.03904,-0.03172,-0.0244,0.00488,0.01464,0.01464,0,0.01952,0.00488,-0.00488
-0.0244,0.02684,-0.02928,-0.01708,-0.00488,-0.00976,0.00488,0.01952,0,0.01464,0.00488,0
-0.01952,0.0244,-0.02928,-0.01952,-0.00976,-0.00488,0.00976,0.01952,0,0.00976,0.00488,0
-0.0244,0.03172,-0.03904,-0.02684,-0.01464,-0.00488,0.00488,0.01464,0.00488,0.01952,0.01464,0.00976
-0.0244,0.03172,-0.03904,-0.02684,-0.01464,-0.00488,0.00488,0.01464,0.00488,0.01952,0.01952,0.00976
-0.01952,0.0244,-0.02928,-0.01952,-0.00976,-0.00488,0.00976,0.00488,0,0.00976,0.00976,0
-0.01464,0.02196,-0.02928,-0.02196,-0.01464,0,0.00976,0.00488,-0.00488,0.00976,0.00488,0
-0.00488,0.01708,-0.02928,-0.02684,-0.0244,0.00976,0.00976,0,-0.00488,0.01952,0.00488,0
-0.00976,0.02196,-0.03416,-0.02928,-0.0244,0.00732,0.01464,0,-0.00488,0.01952,0.00488,0
-0.00976,0.0244,-0.03904,-0.03416,-0.02928,0.00976,0.00488,0,-0.00488,0.01464,0,-0.00976
-0.01464,0.02684,-0.03904,-0.03172,-0.0244,0.00488,0.00488,0,-0.00488,0,0,-0.01464
-0.00488,0.01708,-0.02928,-0.02684,-0.0244,0.00976,0.00488,0,-0.00488,0.00976,0,-0.00488
-0.00488,0.01708,-0.02928,-0.02684,-0.0244,0.00976,0.00488,0,-0.00488,0.00976,0,-0.00976
-0.01464,0.02684,-0.03904,-0.03172,-0.0244,0.00488,0.00488,0.00488,-0.00488,0,-0.00488,-0.00976
-0.01464,0.02684,-0.03904,-0.03172,-0.0244,0.00488,0.00488,0.00488,-0.00976,-0.00488,-0.00976,-0.00976
-0.01464,0.02928,-0.04392,-0.0366,-0.02928,0.00732,0.00488,0.00488,-0.00976,0.00488,-0.00976,0
-0.01952,0.03172,-0.04392,-0.03416,-0.0244,0.00244,0.00488,0,-0.01464,0,-0.01464,0
-0.00976,0.02684,-0.04392,-0.03904,-0.03416,0.0122,0.00976,0,-0.01464,-0.00976,-0.00488,-0.01464
-0.00976,0.02928,-0.0488,-0.04392,-0.03904,0.01464,0.00488,-0.00488,-0.01952,-0.01464,-0.00488,-0.01464
-0.01952,0.03416,-0.0488,-0.03904,-0.02928,0.00488,0.00488,-0.01952,-0.01952,-0.01464,-0.01464,-0.01464
-0.01952,0.03416,-0.0488,-0.03904,-0.02928,0.00488,0.00488,-0.01952,-0.01952,-0.01464,-0.01952,-0.01952
-0.0244,0.04392,-0.06344,-0.05124,-0.03904,0.00732,0.00488,-0.01952,-0.0244,-0.0244,-0.01952,-0.01952
-0.0244,0.03904,-0.05368,-0.04148,-0.02928,0.00244,0.00488,-0.01952,-0.0244,-0.0244,-0.01952,-0.01952
-0.01952,0.03416,-0.0488,-0.03904,-0.02928,0.00488,0.01464,-0.00976,-0.0244,-0.01464,-0.01952,-0.01952
-0.01464,0.03172,-0.0488,-0.04148,-0.03416,0.00976,0.01464,-0.00488,-0.0244,-0.01952,-0.0244,-0.01952
-0.0244,0.0366,-0.0488,-0.0366,-0.0244,0,0.01464,-0.00488,-0.0244,-0.01952,-0.0244,-0.01952
-0.0244,0.03904,-0.05368,-0.04148,-0.02928,0.00244,0.01464,-0.00488,-0.02928,-0.01952,-0.0244,-0.01952
-0.0244,0.03904,-0.05368,-0.04148,-0.02928,0.00244,0.00488,-0.00488,-0.02928,-0.0244,-0.01952,-0.0244
-0.0244,0.03904,-0.05368,-0.04148,-0.02928,0.00244,0.00976,-0.00976,-0.02928,-0.0244,-0.01952,-0.0244
-0.01464,0.03416,-0.05368,-0.04636,-0.03904,0.0122,0.00976,-0.00976,-0.02928,-0.0244,-0.02928,-0.0244
-0.01464,0.03416,-0.05368,-0.04636,-0.03904,0.0122,0.00976,-0.00976,-0.02928,-0.0244,-0.02928,-0.0244
-0.0244,0.03904,-0.05368,-0.04148,-0.02928,0.00244,0.00488,-0.01464,-0.02928,-0.0244,-0.02928,-0.0244
-0.02928,0.04392,-0.05856,-0.04392,-0.02928,0,0.00488,-0.01952,-0.03416,-0.0244,-0.02928,-0.0244
-0.02928,0.04392,-0.05856,-0.04392,-0.02928,0,0.00488,-0.01952,-0.03416,-0.0244,-0.03416,-0.02928
-0.03416,0.04636,-0.05856,-0.04148,-0.0244,-0.00488,0.00488,-0.01952,-0.03416,-0.02928,-0.03416,-0.02928
-0.03416,0.04636,-0.05856,-0.04148,-0.0244,-0.00488,0.00488,-0.01952,-0.03416,-0.03416,-0.03416,-0.02928
-0.02928,0.04392,-0.05856,-0.04392,-0.02928,0,0.00488,-0.01464,-0.03416,-0.03416,-0.03416,-0.03416
-0.03904,0.05124,-0.06344,-0.04392,-0.0244,-0.00732,0.00488,-0.00976,-0.04392,-0.02928,-0.03416,-0.02928
-0.04392,0.05368,-0.06344,-0.04148,-0.01952,-0.0122,0.00488,-0.01464,-0.04392,-0.02928,-0.03416,-0.02928
-0.03416,0.04636,-0.05856,-0.04148,-0.0244,-0.00488,0.00488,-0.00976,-0.03416,-0.02928,-0.03416,-0.02928
-0.03416,0.0488,-0.06344,-0.04636,-0.02928,-0.00244,0.00976,-0.01464,-0.03416,-0.02928,-0.03416,-0.02928
-0.0244,0.04148,-0.05856,-0.04636,-0.03416,0.00488,0.00976,-0.00976,-0.03416,-0.02928,-0.03416,-0.0244
-0.0244,0.04148,-0.05856,-0.04636,-0.03416,0.00488,0.00976,-0.00976,-0.03416,-0.02928,-0.03416,-0.0244
-0.02928,0.04636,-0.06344,-0.0488,-0.03416,0.00244,0.00976,-0.01952,-0.03416,-0.0244,-0.0244,-0.0244
-0.02928,0.0488,-0.06832,-0.05368,-0.03904,0.00488,0.00488,-0.01952,-0.03416,-0.03416,-0.0244,-0.0244
-0.02928,0.04392,-0.05856,-0.04392,-0.02928,0,0.00488,-0.01952,-0.03416,-0.03416,-0.03416,-0.0244
-0.02928,0.04392,-0.05856,-0.04392,-0.02928,0,0.00976,-0.01952,-0.03416,-0.02928,-0.03416,-0.0244
-0.02928,0.04392,-0.05856,-0.04392,-0.02928,0,0.01464,-0.01952,-0.03904,-0.03904,-0.03416,-0.0244
-0.02928,0.04392,-0.05856,-0.04392,-0.02928,0,0.01464,-0.01952,-0.03904,-0.03904,-0.03416,-0.0244
-0.03904,0.05368,-0.06832,-0.0488,-0.02928,-0.00488,0.00488,-0.01464,-0.03904,-0.03904,-0.03904,-0.0244
-0.03904,0.05368,-0.06832,-0.0488,-0.02928,-0.00488,0.00976,-0.01464,-0.03416,-0.03904,-0.03416,-0.0244
-0.02928,0.0488,-0.06832,-0.05368,-0.03904,0.00488,0,-0.00976,-0.03416,-0.03904,-0.03416,-0.02928
-0.03416,0.04636,-0.05856,-0.04148,-0.0244,-0.00488,0,-0.00976,-0.03416,-0.03904,-0.03416,-0.02928
-0.0244,0.03904,-0.05368,-0.04148,-0.02928,0.00244,0.00488,-0.00976,-0.03904,-0.02928,-0.03416,-0.0244
-0.02928,0.04392,-0.05856,-0.04392,-0.02928,0,0,-0.01952,-0.03904,-0.03904,-0.02928,-0.02928
-0.03904,0.05368,-0.06832,-0.0488,-0.02928,-0.00488,0,-0.01952,-0.03904,-0.02928,-0.03904,-0.02928
-0.03904,0.05368,-0.06832,-0.0488,-0.02928,-0.00488,0,-0.01952,-0.03904,-0.02928,-0.03904,-0.02928
-0.02928,0.04392,-0.05856,-0.04392,-0.02928,0,0.00976,-0.01952,-0.03904,-0.03904,-0.03904,-0.01952
-0.02928,0.04392,-0.05856,-0.04392,-0.02928,0,0.00976,-0.01952,-0.03904,-0.03904,-0.03904,-0.01952
-0.02928,0.04392,-0.05856,-0.04392,-0.02928,0,0.00976,-0.01952,-0.03904,-0.03904,-0.02928,-0.01952
-0.02928,0.04392,-0.05856,-0.04392,-0.02928,0,0.00976,-0.01952,-0.03904,-0.03904,-0.02928,-0.01952
-0.03904,0.0488,-0.05856,-0.03904,-0.01952,-0.00976,0,-0.01952,-0.03904,-0.02928,-0.02928,-0.02928
-0.03904,0.0488,-0.05856,-0.03904,-0.01952,-0.00976,0,-0.01952,-0.03904,-0.02928,-0.02928,-0.02928
-0.02928,0.04392,-0.05856,-0.04392,-0.02928,0,0,-0.01952,-0.03904,-0.03904,-0.02928,-0.02928
-0.02928,0.04392,-0.05856,-0.04392,-0.02928,0,0,-0.01952,-0.03904,-0.03904,-0.02928,-0.02928
-0.02928,0.04392,-0.05856,-0.04392,-0.02928,0,0,-0.01952,-0.03904,-0.02928,-0.02928,-0.02928
-0.02928,0.04392,-0.05856,-0.04392,-0.02928,0,0,-0.01952,-0.03904,-0.02928,-0.02928,-0.02928
-0.02928,0.04392,-0.05856,-0.04392,-0.02928,0,0,-0.01952,-0.03904,-0.03904,-0.02928,-0.02928
-0.02928,0.04392,-0.05856,-0.04392,-0.02928,0,0,-0.01952,-0.03904,-0.03904,-0.02928,-0.02928
-0.02928,0.04392,-0.05856,-0.04392,-0.02928,0,0.00976,-0.01952,-0.03904,-0.03904,-0.03904,-0.02928
-0.02928,0.04392,-0.05856,-0.04392,-0.02928,0,0.00976,-0.01952,-0.03904,-0.03904,-0.03904,-0.02928
-0.02928,0.0488,-0.06832,-0.05368,-0.03904,0.00488,0,-0.02928,-0.0488,-0.0488,-0.03904,-0.02928
-0.02928,0.0488,-0.06832,-0.05368,-0.03904,0.00488,0,-0.02928,-0.0488,-0.0488,-0.03904,-0.02928
-0.02928,0.0488,-0.06832,-0.05368,-0.03904,0.00488,0,-0.02928,-0.0488,-0.03904,-0.02928,-0.02928
-0.02928,0.0488,-0.06832,-0.05368,-0.03904,0.00488,0,-0.02928,-0.0488,-0.03904,-0.02928,-0.02928
-0.02928,0.0488,-0.06832,-0.05368,-0.03904,0.00488,0,-0.01952,-0.03904,-0.03904,-0.02928,-0.02928
-0.02928,0.0488,-0.06832,-0.05368,-0.03904,0.00488,0,-0.01952,-0.03904,-0.03904,-0.02928,-0.02928
-0.02928,0.04392,-0.05856,-0.04392,-0.02928,0,0,-0.01952,-0.0488,-0.03904,-0.02928,-0.02928
-0.02928,0.04392,-0.05856,-0.04392,-0.02928,0,0,-0.01952,-0.0488,-0.03904,-0.02928,-0.02928
-0.02928,0.04392,-0.05856,-0.04392,-0.02928,0,0,-0.00976,-0.03904,-0.03904,-0.02928,-0.02928
-0.02928,0.04392,-0.05856,-0.04392,-0.02928,0,0,-0.00976,-0.03904,-0.03904,-0.02928,-0.02928
-0.01952,0.03904,-0.05856,-0.0488,-0.03904,0.00976,0,-0.01952,-0.03904,-0.03904,-0.02928,-0.02928
-0.01952,0.03904,-0.05856,-0.0488,-0.03904,0.00976,0,-0.01952,-0.03904,-0.03904,-0.02928,-0.02928
-0.02928,0.04392,-0.05856,-0.04392,-0.02928,0,0,-0.02928,-0.03904,-0.02928,-0.02928,-0.01952
-0.02928,0.04392,-0.05856,-0.04392,-0.02928,0,0,-0.02928,-0.03904,-0.02928,-0.02928,-0.01952
-0.02928,0.0488,-0.06832,-0.05368,-0.03904,0.00488,0,-0.02928,-0.0488,-0.03904,-0.02928,-0.02928
-0.02928,0.05368,-0.07808,-0.06344,-0.0488,0.00976,0,-0.02928,-0.0488,-0.03904,-0.02928,-0.02928
-0.02928,0.0488,-0.06832,-0.05368,-0.03904,0.00488,0,-0.01952,-0.03904,-0.03904,-0.01952,-0.01952
-0.02928,0.0488,-0.06832,-0.05368,-0.03904,0.00488,0,-0.01952,-0.03904,-0.03904,-0.01952,-0.01952
-0.02928,0.05368,-0.07808,-0.06344,-0.0488,0.00976,0,-0.01952,-0.0488,-0.03904,-0.02928,-0.02928
-0.02928,0.05368,-0.07808,-0.06344,-0.0488,0.00976,0,-0.01952,-0.0488,-0.03904,-0.02928,-0.02928
-0.02928,0.0488,-0.06832,-0.05368,-0.03904,0.00488,0,-0.00976,-0.03904,-0.03904,-0.02928,-0.01952
-0.02928,0.0488,-0.06832,-0.05368,-0.03904,0.00488,0,-0.00976,-0.03904,-0.03904,-0.02928,-0.01952
-0.02928,0.0488,-0.06832,-0.05368,-0.03904,0.00488,0,-0.01952,-0.03904,-0.03904,-0.02928,-0.01952
-0.02928,0.0488,-0.06832,-0.05368,-0.03904,0.00488,0,-0.01952,-0.03904,-0.03904,-0.02928,-0.01952
-0.02928,0.0488,-0.06832,-0.05368,-0.03904,0.00488,0,-0.01952,-0.03904,-0.03904,-0.02928,-0.01952
-0.02928,0.0488,-0.06832,-0.05368,-0.03904,0.00488,0,-0.01952,-0.03904,-0.03904,-0.02928,-0.01952
-0.01952,0.04392,-0.06832,-0.05856,-0.0488,0.01464,0,-0.02928,-0.0488,-0.0488,-0.02928,-0.01952
-0.01952,0.04392,-0.06832,-0.05856,-0.0488,0.01464,0,-0.02928,-0.0488,-0.0488,-0.02928,-0.01952
-0.01952,0.03904,-0.05856,-0.0488,-0.03904,0.00976,0,-0.01952,-0.03904,-0.03904,-0.02928,-0.01952
-0.01952,0.03904,-0.05856,-0.0488,-0.03904,0.00976,0,-0.01952,-0.03904,-0.03904,-0.02928,-0.01952
-0.02928,0.0488,-0.06832,-0.05368,-0.03904,0.00488,0,-0.01952,-0.03904,-0.03904,-0.02928,-0.01952
-0.02928,0.0488,-0.06832,-0.05368,-0.03904,0.00488,0,-0.01952,-0.03904,-0.03904,-0.02928,-0.01952
-0.02928,0.04392,-0.05856,-0.04392,-0.02928,0,0,-0.00976,-0.03416,-0.03904,-0.01952,-0.01952
-0.02928,0.04148,-0.05368,-0.03904,-0.0244,-0.00244,0,-0.00976,-0.03416,-0.03416,-0.01464,-0.01464
-0.01952,0.03904,-0.05856,-0.0488,-0.03904,0.00976,-0.00976,-0.01464,-0.03904,-0.04392,-0.0244,-0.01464
-0.01464,0.02928,-0.04392,-0.0366,-0.02928,0.00732,-0.00976,-0.01464,-0.02928,-0.02928,-0.00976,-0.00488
-0.01952,0.0244,-0.02928,-0.01952,-0.00976,-0.00488,-0.00976,-0.0244,-0.00976,-0.01464,0.00488,0
-0.00976,0.01708,-0.0244,-0.01952,-0.01464,0.00244,-0.00976,-0.0244,-0.00976,-0.00976,0.00488,0.00488
0,0.00488,-0.00976,-0.00976,-0.00976,0.00488,-0.01464,-0.0244,-0.00488,-0.01464,0,0.00488
0,0.00244,-0.00488,-0.00488,-0.00488,0.00244,-0.01464,-0.01952,0,-0.00976,0.00488,0.00976
0.00488,-0.00488,0.00488,0.00244,0,0.00244,-0.01464,-0.00976,0,-0.00488,0.00488,0.00488
0.01464,-0.0122,0.00976,0.00244,-0.00488,0.00976,-0.02928,-0.01952,0,0,0.01464,0.00976
0.0244,-0.0244,0.0244,0.0122,0,0.0122,-0.05856,-0.0488,0,0,0.00976,0.01952
0.03416,-0.0366,0.03904,0.02196,0.00488,0.01464,-0.08784,-0.07808,-0.01464,0,0.00976,0.0244
0.06344,-0.05856,0.05368,0.02196,-0.00976,0.0366,-0.10248,-0.08784,-0.01464,0.00488,0.01952,0.0244
0.06344,-0.04636,0.02928,-0.00244,-0.03416,0.0488,-0.10248,-0.08296,-0.03416,-0.01464,0.00976,0.0244
0.05368,-0.02928,0.00488,-0.02196,-0.0488,0.05124,-0.08784,-0.0732,-0.0488,-0.0244,0.00488,0.01464
0.05368,-0.02928,0.00488,-0.02196,-0.0488,0.05124,-0.07808,-0.06832,-0.0488,-0.01952,0.00488,0.01952
0.04392,-0.02196,0,-0.02196,-0.04392,0.04392,-0.07808,-0.06344,-0.0488,-0.02928,-0.00488,0.01952
0.03416,-0.01708,0,-0.01708,-0.03416,0.03416,-0.0732,-0.06344,-0.04392,-0.02928,-0.00488,0.01952
0.03416,-0.01708,0,-0.01708,-0.03416,0.03416,-0.0488,-0.05856,-0.04392,-0.03416,-0.01464,0.01952
0.00976,0.00732,-0.0244,-0.02928,-0.03416,0.02196,-0.02928,-0.0488,-0.04392,-0.03416,-0.01464,0.00488
-0.01952,0.03416,-0.0488,-0.03904,-0.02928,0.00488,-0.0244,-0.0488,-0.03416,-0.03416,-0.0244,-0.00488
-0.0244,0.03904,-0.05368,-0.04148,-0.02928,0.00244,-0.01464,-0.03904,-0.04392,-0.03904,-0.02928,-0.00976
-0.0244,0.04148,-0.05856,-0.04636,-0.03416,0.00488,-0.00976,-0.03416,-0.0488,-0.04392,-0.03416,-0.01952
-0.01952,0.04392,-0.06832,-0.05856,-0.0488,0.01464,-0.00488,-0.03416,-0.05368,-0.0488,-0.03416,-0.01952
-0.01464,0.03904,-0.06344,-0.05612,-0.0488,0.01708,-0.00488,-0.02928,-0.05368,-0.0488,-0.03416,-0.02928
-0.01464,0.03904,-0.06344,-0.05612,-0.0488,0.01708,0,-0.0244,-0.05368,-0.05856,-0.03904,-0.02928
-0.01952,0.04392,-0.06832,-0.05856,-0.0488,0.01464,0.00488,-0.0244,-0.04392,-0.05368,-0.03904,-0.02928
-0.01952,0.04636,-0.0732,-0.06344,-0.05368,0.01708,0.00488,-0.0244,-0.0488,-0.05856,-0.04392,-0.02928
-0.01952,0.04392,-0.06832,-0.05856,-0.0488,0.01464,0.00976,-0.0244,-0.0488,-0.05856,-0.04392,-0.02928
-0.01952,0.04392,-0.06832,-0.05856,-0.0488,0.01464,0.00976,-0.0244,-0.0488,-0.05856,-0.04392,-0.02928
-0.01952,0.04392,-0.06832,-0.05856,-0.0488,0.01464,0.01464,-0.0244,-0.05856,-0.05856,-0.03904,-0.02928
-0.0244,0.04636,-0.06832,-0.05612,-0.04392,0.00976,0.01464,-0.01952,-0.05368,-0.05856,-0.03416,-0.02928
-0.03416,0.05368,-0.0732,-0.05612,-0.03904,0.00244,0.01464,-0.02928,-0.05856,-0.05856,-0.04392,-0.03904
-0.03416,0.05368,-0.0732,-0.05612,-0.03904,0.00244,0.01464,-0.02928,-0.05856,-0.06344,-0.0488,-0.04392
-0.03416,0.05856,-0.08296,-0.06588,-0.0488,0.00732,0.01464,-0.01464,-0.05368,-0.06344,-0.04392,-0.03416
-0.03416,0.05856,-0.08296,-0.06588,-0.0488,0.00732,0.01464,-0.01464,-0.05368,-0.05856,-0.04392,-0.03416
-0.03416,0.05368,-0.0732,-0.05612,-0.03904,0.00244,0.01464,-0.00488,-0.05368,-0.0488,-0.04392,-0.03416
-0.03416,0.05368,-0.0732,-0.05612,-0.03904,0.00244,0.01464,0,-0.05368,-0.04392,-0.04392,-0.03416
-0.03904,0.05856,-0.07808,-0.05856,-0.03904,0,0.01464,-0.00976,-0.05368,-0.05368,-0.04392,-0.02928
-0.03416,0.05612,-0.07808,-0.061,-0.04392,0.00488,0.01464,-0.00976,-0.05368,-0.05368,-0.04392,-0.02928
-0.03416,0.05612,-0.07808,-0.061,-0.04392,0.00488,0.01464,-0.00976,-0.05368,-0.05368,-0.04392,-0.02928
-0.03416,0.05612,-0.07808,-0.061,-0.04392,0.00488,0.03416,0.00976,-0.03904,-0.05368,-0.0488,-0.0488
-0.0488,0.07076,-0.09272,-0.06832,-0.04392,-0.00244,0.06344,0.05856,-0.0244,-0.05856,-0.06344,-0.06832
-0.05856,0.06832,-0.07808,-0.0488,-0.01952,-0.01952,0.08784,0.07808,0.00976,-0.02928,-0.05856,-0.07808
-0.05368,0.04392,-0.03416,-0.00732,0.01952,-0.0366,0.09272,0.10736,0.0976,0.06832,0.01464,-0.04392
0.06344,-0.04392,0.0244,-0.00732,-0.03904,0.05124,0.0488,0.16104,0.16104,0.18544,0.13664,0.05368
0.27816,-0.18544,0.09272,-0.04636,-0.18544,0.2318,-0.00488,0.23424,0.24888,0.34648,0.32696,0.22936
0.488,-0.33916,0.19032,-0.05368,-0.29768,0.39284,-0.122,0.15128,0.26352,0.47336,0.54168,0.44896
0.74176,-0.54412,0.34648,-0.0244,-0.39528,0.56852,-0.32208,-0.00488,0.26352,0.61488,0.80032,0.73688
0.94184,-0.73444,0.52704,0.05612,-0.4148,0.67832,-0.55632,-0.27816,0.20496,0.72712,1.06872,1.05896
0.96624,-0.76372,0.5612,0.07808,-0.40504,0.68564,-0.69296,-0.53192,0.00976,0.61488,1.04432,1.13704
0.7076,-0.54168,0.37576,0.02196,-0.33184,0.51972,-0.59536,-0.5856,-0.25376,0.19032,0.59048,0.83936
0.37576,-0.31232,0.24888,0.061,-0.12688,0.25132,-0.44896,-0.59048,-0.40016,-0.10736,0.21472,0.52216
0.0976,-0.10492,0.11224,0.06344,0.01464,0.04148,-0.29768,-0.5612,-0.51728,-0.37576,-0.10736,0.2196
-0.04392,0.03416,-0.0244,-0.00244,0.01952,-0.03172,-0.19032,-0.47824,-0.58072,-0.52704,-0.28792,0.01952
-0.08296,0.10004,-0.11712,-0.07564,-0.03416,-0.0244,-0.10248,-0.3416,-0.50264,-0.4636,-0.28304,-0.0732
-0.09272,0.12688,-0.16104,-0.11468,-0.06832,-0.0122,0.01952,-0.15616,-0.3416,-0.32696,-0.23424,-0.10248
-0.03904,0.0732,-0.10736,-0.08784,-0.06832,0.01464,0.03904,-0.05856,-0.21472,-0.20008,-0.13664,-0.05856
0.00976,0.02196,-0.05368,-0.05856,-0.06344,0.0366,0.0244,-0.01464,-0.11712,-0.11712,-0.0732,-0.01952
0.00976,0.01708,-0.04392,-0.0488,-0.05368,0.03172,0.01464,0.01464,-0.06344,-0.06832,-0.03416,0.00488
0,0.01952,-0.03904,-0.03904,-0.03904,0.01952,0.01464,0.0244,-0.0488,-0.0488,-0.02928,0
-0.01464,0.03172,-0.0488,-0.04148,-0.03416,0.00976,0.02928,0.02928,-0.04392,-0.0488,-0.04392,-0.01464
-0.01952,0.0366,-0.05368,-0.04392,-0.03416,0.00732,0.03416,0.03416,-0.04392,-0.0488,-0.0488,-0.01952
-0.01464,0.02928,-0.04392,-0.0366,-0.02928,0.00732,0.04392,0.03904,-0.02928,-0.03904,-0.03904,-0.02928
-0.01952,0.03416,-0.0488,-0.03904,-0.02928,0.00488,0.04392,0.0488,-0.0244,-0.03416,-0.03904,-0.02928
-0.00976,0.02928,-0.0488,-0.04392,-0.03904,0.01464,0.04392,0.04392,-0.02928,-0.03904,-0.0488,-0.03904
-0.00976,0.02928,-0.0488,-0.04392,-0.03904,0.01464,0.04392,0.04392,-0.0244,-0.03904,-0.04392,-0.03904
-0.00976,0.02928,-0.0488,-0.04392,-0.03904,0.01464,0.03904,0.04392,-0.01952,-0.03416,-0.04392,-0.03904
-0.01952,0.03904,-0.05856,-0.0488,-0.03904,0.00976,0.03904,0.04392,-0.01952,-0.03416,-0.04392,-0.03904
-0.0244,0.03904,-0.05368,-0.04148,-0.02928,0.00244,0.04392,0.0488,-0.01464,-0.0244,-0.03416,-0.03904
-0.01952,0.0366,-0.05368,-0.04392,-0.03416,0.00732,0.04392,0.0488,-0.00976,-0.0244,-0.03416,-0.03904
-0.01952,0.03904,-0.05856,-0.0488,-0.03904,0.00976,0.04392,0.05368,-0.01952,-0.02928,-0.03416,-0.02928
-0.0244,0.04148,-0.05856,-0.04636,-0.03416,0.00488,0.04392,0.05856,-0.01464,-0.0244,-0.02928,-0.0244
-0.0244,0.04392,-0.06344,-0.05124,-0.03904,0.00732,0.03416,0.05856,-0.00488,-0.0244,-0.02928,-0.0244
-0.01952,0.04148,-0.06344,-0.05368,-0.04392,0.0122,0.03416,0.05856,0,-0.0244,-0.0244,-0.0244
-0.01952,0.0366,-0.05368,-0.04392,-0.03416,0.00732,0.0488,0.06832,0.00488,-0.01464,-0.0244,-0.0244
-0.01952,0.0366,-0.05368,-0.04392,-0.03416,0.00732,0.0488,0.06832,0.00488,-0.01464,-0.0244,-0.0244
-0.00976,0.03172,-0.05368,-0.0488,-0.04392,0.01708,0.04392,0.05856,0.00488,-0.00976,-0.01952,-0.0244
-0.00976,0.03172,-0.05368,-0.0488,-0.04392,0.01708,0.0488,0.06344,0.00488,-0.00976,-0.01952,-0.0244
-0.01952,0.03416,-0.0488,-0.03904,-0.02928,0.00488,0.0488,0.06344,0.00976,-0.00488,-0.01952,-0.0244
-0.01464,0.02928,-0.04392,-0.0366,-0.02928,0.00732,0.0488,0.06344,0.00976,-0.00488,-0.01464,-0.0244
0,0.01708,-0.03416,-0.03416,-0.03416,0.01708,0.03416,0.05856,0.00976,-0.01464,-0.0244,-0.0244
0,0.01708,-0.03416,-0.03416,-0.03416,0.01708,0.03416,0.05856,0.00976,-0.01464,-0.0244,-0.0244
0,0.02196,-0.04392,-0.04392,-0.04392,0.02196,0.03416,0.06832,0.00976,-0.00488,-0.01464,-0.0244
0.00488,0.01952,-0.04392,-0.04636,-0.0488,0.02684,0.03416,0.06832,0.00976,0,-0.01464,-0.01952
-0.00488,0.02684,-0.0488,-0.04636,-0.04392,0.01952,0.02928,0.0732,0.01464,0.00488,-0.00976,-0.01952
0,0.0244,-0.0488,-0.0488,-0.0488,0.0244,0.02928,0.0732,0.01464,0.00488,-0.00488,-0.01952
0.00976,0.0122,-0.03416,-0.03904,-0.04392,0.02684,0.02928,0.0732,0.01952,0.00976,-0.00488,-0.01464
0.00976,0.0122,-0.03416,-0.03904,-0.04392,0.02684,0.02928,0.07808,0.01952,0.00976,-0.00488,-0.01464
0,0.02196,-0.04392,-0.04392,-0.04392,0.02196,0.02928,0.07808,0.0244,0.01464,-0.00976,-0.0244
0.00488,0.01708,-0.03904,-0.04148,-0.04392,0.0244,0.02928,0.07808,0.0244,0.01464,-0.00488,-0.01952
0.00488,0.0122,-0.02928,-0.03172,-0.03416,0.01952,0.03904,0.08296,0.02928,0.01952,0.00488,-0.00976
0.00488,0.0122,-0.02928,-0.03172,-0.03416,0.01952,0.03904,0.08296,0.02928,0.0244,0.00488,-0.00488
0.01952,0.00244,-0.0244,-0.03416,-0.04392,0.03172,0.03416,0.0732,0.03416,0.02928,0.00976,-0.00488
0.01952,0.00244,-0.0244,-0.03416,-0.04392,0.03172,0.02928,0.0732,0.03904,0.02928,0.00976,0
0.00976,0.0122,-0.03416,-0.03904,-0.04392,0.02684,0.02928,0.08296,0.03904,0.03416,0.0244,0.00488
0.01464,0.00976,-0.03416,-0.04148,-0.0488,0.03172,0.02928,0.08784,0.04392,0.03416,0.02928,0.00488
0.02928,-0.00488,-0.01952,-0.03416,-0.0488,0.03904,0.01952,0.08784,0.0488,0.0488,0.02928,0.00976
0.02928,-0.00976,-0.00976,-0.0244,-0.03904,0.03416,0.01952,0.09272,0.0488,0.05856,0.02928,0.00976
0.04392,-0.01952,-0.00488,-0.02684,-0.0488,0.04636,0.01952,0.0976,0.05368,0.05368,0.0244,0.01464
0.0488,-0.02684,0.00488,-0.01952,-0.04392,0.04636,0.01952,0.10248,0.05856,0.05856,0.02928,0.01952
0.04392,-0.02684,0.00976,-0.0122,-0.03416,0.03904,0.01952,0.09272,0.06344,0.06344,0.04392,0.0244
0.04392,-0.0244,0.00488,-0.01708,-0.03904,0.04148,0.01952,0.10248,0.06344,0.06832,0.04392,0.0244
0.03904,-0.01952,0,-0.01952,-0.03904,0.03904,0.01464,0.10248,0.06832,0.0732,0.0488,0.02928
0.04392,-0.0244,0.00488,-0.01708,-0.03904,0.04148,0.00976,0.10248,0.0732,0.07808,0.05368,0.03416
0.0488,-0.02928,0.00976,-0.01464,-0.03904,0.04392,0.00976,0.10736,0.07808,0.08784,0.05368,0.03904
0.05368,-0.0366,0.01952,-0.00732,-0.03416,0.04392,0.00488,0.10736,0.08296,0.08784,0.06344,0.0488
0.0488,-0.0366,0.0244,0,-0.0244,0.0366,0.00488,0.11224,0.07808,0.09272,0.06832,0.0488
0.05856,-0.04148,0.0244,-0.00488,-0.03416,0.04636,0.00488,0.11224,0.08784,0.10736,0.07808,0.05856
0.0732,-0.05856,0.04392,0.00732,-0.02928,0.05124,0,0.12688,0.0976,0.11712,0.09272,0.06832
0.07808,-0.06588,0.05368,0.01464,-0.0244,0.05124,-0.00488,0.13176,0.11224,0.12688,0.10248,0.07808
0.0976,-0.08052,0.06344,0.01464,-0.03416,0.06588,-0.00488,0.1464,0.10736,0.13664,0.11224,0.08784
0.0976,-0.08052,0.06344,0.01464,-0.03416,0.06588,-0.00488,0.1464,0.11712,0.1464,0.122,0.0976
0.10248,-0.0854,0.06832,0.01708,-0.03416,0.06832,-0.00976,0.1464,0.12688,0.15616,0.12688,0.10248
0.11712,-0.10004,0.08296,0.0244,-0.03416,0.07564,-0.01952,0.15128,0.13176,0.16592,0.13664,0.11224
0.13664,-0.11956,0.10248,0.03416,-0.03416,0.0854,-0.0244,0.16104,0.15128,0.18056,0.15128,0.13176
0.15128,-0.13176,0.11224,0.0366,-0.03904,0.09516,-0.0244,0.1708,0.16104,0.18544,0.16592,0.14152
0.15616,-0.1342,0.11224,0.03416,-0.04392,0.10004,-0.03416,0.16592,0.16104,0.20008,0.16592,0.1464
0.16592,-0.1464,0.12688,0.04392,-0.03904,0.10248,-0.04392,0.16592,0.1708,0.21472,0.18056,0.16104
0.17568,-0.15616,0.13664,0.0488,-0.03904,0.10736,-0.03904,0.1708,0.17568,0.21472,0.1952,0.1708
0.18056,-0.16348,0.1464,0.05612,-0.03416,0.10736,-0.0488,0.1708,0.18544,0.22936,0.20984,0.18544
0.1952,-0.17812,0.16104,0.06344,-0.03416,0.11468,-0.06344,0.1708,0.1952,0.24888,0.22936,0.20008
0.2196,-0.1952,0.1708,0.061,-0.0488,0.1342,-0.0732,0.1708,0.20496,0.26352,0.23424,0.2196
0.22448,-0.20008,0.17568,0.06344,-0.0488,0.13664,-0.0732,0.1708,0.21472,0.27328,0.23912,0.22448
0.23912,-0.21228,0.18544,0.06588,-0.05368,0.1464,-0.07808,0.17568,0.21472,0.27816,0.25864,0.23912
0.244,-0.22204,0.20008,0.07808,-0.04392,0.14396,-0.09272,0.17568,0.22448,0.29768,0.2684,0.244
0.25376,-0.2318,0.20984,0.08296,-0.04392,0.14884,-0.0976,0.18544,0.23424,0.30744,0.27816,0.25376
0.27328,-0.24888,0.22448,0.08784,-0.0488,0.16104,-0.0976,0.16592,0.23424,0.30256,0.2928,0.27816
0.28304,-0.25864,0.23424,0.09272,-0.0488,0.16592,-0.10736,0.15616,0.23424,0.30256,0.30256,0.28792
0.2928,-0.26352,0.23424,0.08784,-0.05856,0.17568,-0.11224,0.15128,0.23424,0.30744,0.31232,0.30256
0.30256,-0.2684,0.23424,0.08296,-0.06832,0.18544,-0.122,0.13664,0.23424,0.30744,0.31232,0.31232
0.2928,-0.26596,0.23912,0.09272,-0.05368,0.17324,-0.13176,0.11712,0.22448,0.3172,0.32208,0.31232
0.29768,-0.26596,0.23424,0.0854,-0.06344,0.18056,-0.13664,0.10248,0.21472,0.31232,0.32696,0.3172
0.30256,-0.2684,0.23424,0.08296,-0.06832,0.18544,-0.13664,0.0976,0.20984,0.30256,0.3172,0.3172
0.28792,-0.26108,0.23424,0.09028,-0.05368,0.1708,-0.13664,0.08296,0.20008,0.2928,0.30744,0.30744
0.25864,-0.23912,0.2196,0.09028,-0.03904,0.14884,-0.1464,0.06344,0.18056,0.27328,0.29768,0.28792
0.23912,-0.22448,0.20984,0.09028,-0.02928,0.1342,-0.13176,0.04392,0.16592,0.25864,0.2684,0.26352
0.21472,-0.20008,0.18544,0.07808,-0.02928,0.122,-0.122,0.03904,0.16104,0.23912,0.24888,0.244
0.18544,-0.17568,0.16592,0.0732,-0.01952,0.10248,-0.11224,0.02928,0.15128,0.20984,0.22936,0.2196
0.16104,-0.15372,0.1464,0.06588,-0.01464,0.08784,-0.09272,0.02928,0.12688,0.18544,0.20496,0.20008
0.13664,-0.12688,0.11712,0.0488,-0.01952,0.07808,-0.07808,0.01952,0.10736,0.16104,0.18056,0.16592
0.10248,-0.09516,0.08784,0.0366,-0.01464,0.05856,-0.07808,0.00976,0.0976,0.15128,0.15128,0.14152
0.08296,-0.07564,0.06832,0.02684,-0.01464,0.0488,-0.06832,0.00488,0.07808,0.122,0.12688,0.11712
0.06344,-0.061,0.05856,0.02684,-0.00488,0.03416,-0.04392,0,0.0732,0.10248,0.10248,0.08784
0.04392,-0.04148,0.03904,0.01708,-0.00488,0.0244,-0.04392,0,0.05368,0.08296,0.08296,0.06832
0.02928,-0.02928,0.02928,0.01464,0,0.01464,-0.02928,-0.00488,0.0488,0.06832,0.0732,0.05368
0.0244,-0.02196,0.01952,0.00732,-0.00488,0.01464,-0.01952,-0.00488,0.03904,0.05368,0.05856,0.03904
0.01464,-0.00732,0,-0.00732,-0.01464,0.01464,-0.02928,-0.00488,0.02928,0.04392,0.03416,0.03416
0.00976,0,-0.00976,-0.01464,-0.01952,0.01464,-0.01464,-0.00488,0.01952,0.03416,0.0244,0.01952
0.00976,0.00244,-0.01464,-0.01952,-0.0244,0.01708,-0.01464,-0.00488,0.00976,0.0244,0.01952,0.0244
0.00976,0.00732,-0.0244,-0.02928,-0.03416,0.02196,-0.00488,0,0.00976,0.01464,0.00976,0.01464
0.00488,0.00976,-0.0244,-0.02684,-0.02928,0.01708,0.00488,0.00976,0.00488,0.01952,0.01464,0.00976
0,0.01464,-0.02928,-0.02928,-0.02928,0.01464,0.00976,0.00976,0.00488,0.01464,0.00976,0.00976
-0.00488,0.01464,-0.0244,-0.02196,-0.01952,0.00732,0,0,0,0.00976,0.00488,0.00488
-0.01464,0.01952,-0.0244,-0.01708,-0.00976,-0.00244,0,0,-0.00488,0.00976,0.00488,0
-0.01464,0.02196,-0.02928,-0.02196,-0.01464,0,0.00488,0,-0.00488,0,0,0.00488
-0.01464,0.0244,-0.03416,-0.02684,-0.01952,0.00244,0.00488,0,-0.00976,-0.00488,0,0
-0.01952,0.03172,-0.04392,-0.03416,-0.0244,0.00244,0.00976,-0.00488,-0.00976,-0.00488,-0.00488,0
-0.01952,0.03416,-0.0488,-0.03904,-0.02928,0.00488,0.00976,-0.00488,-0.00976,-0.00488,-0.00488,-0.00488
-0.02928,0.0366,-0.04392,-0.02928,-0.01464,-0.00732,0.00488,0.00488,-0.01464,0,0.00488,0.00488
-0.02928,0.0366,-0.04392,-0.02928,-0.01464,-0.00732,0.00488,0.00488,-0.01464,0,0.00488,0.00488
-0.01952,0.03172,-0.04392,-0.03416,-0.0244,0.00244,0.00488,0.00976,-0.00488,0.00976,0,-0.00488
-0.0244,0.03416,-0.04392,-0.03172,-0.01952,-0.00244,0.00488,0.00976,0,0.00976,0.00488,-0.00488
-0.0244,0.02928,-0.03416,-0.02196,-0.00976,-0.00732,0.00488,0.01464,-0.00976,0,0.00488,-0.00488
-0.0244,0.02928,-0.03416,-0.02196,-0.00976,-0.00732,0.00976,0.01464,-0.00976,-0.00488,0.00488,-0.00488
-0.0244,0.03416,-0.04392,-0.03172,-0.01952,-0.00244,0.00976,0.00488,-0.01464,0.00488,-0.00488,-0.00488
-0.01952,0.03172,-0.04392,-0.03416,-0.0244,0.00244,0.00976,0.00488,-0.01464,0.00488,0,-0.00488
-0.00976,0.02196,-0.03416,-0.02928,-0.0244,0.00732,0.00976,0.00488,0,0.00488,0.00488,-0.00488
-0.00976,0.02196,-0.03416,-0.02928,-0.0244,0.00732,0.00976,0.00488,0,0.00488,0,-0.00488
-0.01952,0.03172,-0.04392,-0.03416,-0.0244,0.00244,0.00976,0.00488,-0.00976,-0.00488,0,-0.00488
-0.01952,0.03172,-0.04392,-0.03416,-0.0244,0.00244,0.00976,0.00488,-0.01464,-0.00488,0,-0.00488
-0.01952,0.03172,-0.04392,-0.03416,-0.0244,0.00244,0.00976,0.01464,-0.01464,0,0,-0.01464
-0.01952,0.03172,-0.04392,-0.03416,-0.0244,0.00244,0.00976,0.01464,-0.00976,0,0,-0.01464
-0.00488,0.01708,-0.02928,-0.02684,-0.0244,0.00976,0.00488,0.01464,0,0,-0.00976,0
-0.00488,0.01952,-0.03416,-0.03172,-0.02928,0.0122,0.00488,0.01464,0,0,-0.00976,0
-0.01952,0.02928,-0.03904,-0.02928,-0.01952,0,0.00488,0.00488,-0.00976,0,-0.00976,0
-0.01464,0.02684,-0.03904,-0.03172,-0.0244,0.00488,0.00488,0.00488,-0.00976,0,-0.00488,-0.00488
-0.0244,0.0366,-0.0488,-0.0366,-0.0244,0,0.00488,0.00976,-0.00976,0.00488,0.00488,0
-0.01952,0.03416,-0.0488,-0.03904,-0.02928,0.00488,0.00976,0.00976,-0.00976,0,0.00488,0
-0.01952,0.02928,-0.03904,-0.02928,-0.01952,0,0.01464,0.00488,-0.01464,0,-0.00488,-0.00976
-0.00976,0.0244,-0.03904,-0.03416,-0.02928,0.00976,0.01464,0.00488,-0.01464,0,0,-0.00976
-0.01952,0.02928,-0.03904,-0.02928,-0.01952,0,0.00976,0.00488,-0.00976,0,0,0
-0.01464,0.02684,-0.03904,-0.03172,-0.0244,0.00488,0.00976,0.00488,-0.01464,0,-0.00488,0
-0.01464,0.02684,-0.03904,-0.03172,-0.0244,0.00488,0,0,-0.01464,0,-0.00488,0
-0.01952,0.03172,-0.04392,-0.03416,-0.0244,0.00244,0.00488,0,-0.01464,0,-0.00488,0
-0.0244,0.03172,-0.03904,-0.02684,-0.01464,-0.00488,0.00488,0,-0.0244,0,0,0
-0.01952,0.02928,-0.03904,-0.02928,-0.01952,0,0.00488,0,-0.0244,-0.00488,0,-0.00488
-0.01464,0.03172,-0.0488,-0.04148,-0.03416,0.00976,0.00488,0,-0.0244,0,-0.00976,0.00488
-0.01464,0.03172,-0.0488,-0.04148,-0.03416,0.00976,0.00488,0,-0.0244,0,-0.00976,0
-0.01464,0.02684,-0.03904,-0.03172,-0.0244,0.00488,0.00488,-0.00488,-0.0244,-0.00976,-0.01464,-0.00976
-0.01464,0.02684,-0.03904,-0.03172,-0.0244,0.00488,0.00488,-0.00488,-0.02928,-0.01464,-0.01952,-0.00976
-0.01464,0.02928,-0.04392,-0.0366,-0.02928,0.00732,0.00488,-0.01464,-0.01952,-0.01464,-0.00976,-0.01952
-0.01952,0.03172,-0.04392,-0.03416,-0.0244,0.00244,0.00488,-0.01952,-0.0244,-0.01952,-0.01464,-0.01952
-0.02928,0.03904,-0.0488,-0.03416,-0.01952,-0.00488,0.01952,-0.00976,-0.03416,-0.01952,-0.0244,-0.0244
-0.02928,0.04636,-0.06344,-0.0488,-0.03416,0.00244,0.01464,-0.01464,-0.03904,-0.0244,-0.0244,-0.0244
-0.02928,0.04392,-0.05856,-0.04392,-0.02928,0,0.01464,-0.00976,-0.03904,-0.0244,-0.0244,-0.01464
-0.02928,0.04392,-0.05856,-0.04392,-0.02928,0,0.01464,-0.00976,-0.03904,-0.0244,-0.02928,-0.01952
-0.0244,0.03904,-0.05368,-0.04148,-0.02928,0.00244,0.00488,-0.00976,-0.03416,-0.0244,-0.02928,-0.01952
-0.0244,0.03416,-0.04392,-0.03172,-0.01952,-0.00244,0.00488,-0.00976,-0.03416,-0.0244,-0.02928,-0.01952
-0.02928,0.03904,-0.0488,-0.03416,-0.01952,-0.00488,0.00488,-0.00976,-0.03416,-0.0244,-0.02928,-0.01952
-0.0244,0.0366,-0.0488,-0.0366,-0.0244,0,0.00488,-0.00488,-0.03416,-0.02928,-0.03416,-0.01952
-0.01464,0.03172,-0.0488,-0.04148,-0.03416,0.00976,0.01464,-0.00488,-0.03416,-0.02928,-0.03416,-0.01952
-0.01464,0.03416,-0.05368,-0.04636,-0.03904,0.0122,0.01464,-0.00488,-0.03904,-0.02928,-0.03416,-0.01952
-0.0244,0.03904,-0.05368,-0.04148,-0.02928,0.00244,0.01464,-0.00488,-0.03904,-0.03416,-0.02928,-0.0244
-0.0244,0.03904,-0.05368,-0.04148,-0.02928,0.00244,0.01952,-0.00976,-0.03904,-0.03416,-0.02928,-0.0244
-0.03416,0.0488,-0.06344,-0.04636,-0.02928,-0.00244,0.00976,-0.01952,-0.0488,-0.03416,-0.02928,-0.0244
-0.03416,0.0488,-0.06344,-0.04636,-0.02928,-0.00244,0.00976,-0.01952,-0.0488,-0.03416,-0.02928,-0.0244
-0.0244,0.03904,-0.05368,-0.04148,-0.02928,0.00244,0.00488,-0.01464,-0.03904,-0.03416,-0.02928,-0.0244
-0.02928,0.04392,-0.05856,-0.04392,-0.02928,0,0.00488,-0.01952,-0.04392,-0.03416,-0.02928,-0.0244
-0.02928,0.04392,-0.05856,-0.04392,-0.02928,0,0.00488,-0.01952,-0.04392,-0.03416,-0.03416,-0.02928
-0.03416,0.04636,-0.05856,-0.04148,-0.0244,-0.00488,0.00488,-0.01952,-0.04392,-0.03904,-0.03416,-0.02928
-0.04392,0.05612,-0.06832,-0.04636,-0.0244,-0.00976,0.00488,-0.01952,-0.05368,-0.03416,-0.03416,-0.02928
-0.03904,0.05368,-0.06832,-0.0488,-0.02928,-0.00488,0.00488,-0.01464,-0.05368,-0.03416,-0.03416,-0.03416
-0.02928,0.04636,-0.06344,-0.0488,-0.03416,0.00244,0.01464,-0.00976,-0.04392,-0.03904,-0.03416,-0.02928
-0.03416,0.0488,-0.06344,-0.04636,-0.02928,-0.00244,0.01464,-0.01464,-0.04392,-0.03904,-0.03416,-0.02928
-0.03416,0.04636,-0.05856,-0.04148,-0.0244,-0.00488,0.01464,-0.00976,-0.04392,-0.03904,-0.03416,-0.02928
-0.03416,0.0488,-0.06344,-0.04636,-0.02928,-0.00244,0.01952,-0.01464,-0.04392,-0.03904,-0.03416,-0.02928
-0.03416,0.04636,-0.05856,-0.04148,-0.0244,-0.00488,0.00976,-0.01952,-0.04392,-0.03904,-0.03416,-0.03416
-0.03416,0.04636,-0.05856,-0.04148,-0.0244,-0.00488,0.00976,-0.01952,-0.04392,-0.03904,-0.03416,-0.03416
-0.01952,0.0366,-0.05368,-0.04392,-0.03416,0.00732,0.00976,-0.01952,-0.05368,-0.04392,-0.03416,-0.03416
-0.01952,0.03904,-0.05856,-0.0488,-0.03904,0.00976,0.00488,-0.01952,-0.05368,-0.05368,-0.03416,-0.03416
-0.02928,0.04392,-0.05856,-0.04392,-0.02928,0,0.00488,-0.00976,-0.04392,-0.04392,-0.03416,-0.03416
-0.02928,0.04392,-0.05856,-0.04392,-0.02928,0,0.00976,-0.00976,-0.04392,-0.03904,-0.03416,-0.03416
-0.03904,0.0488,-0.05856,-0.03904,-0.01952,-0.00976,0.01464,-0.01952,-0.0488,-0.03904,-0.03416,-0.03416
-0.03904,0.0488,-0.05856,-0.03904,-0.01952,-0.00976,0.01464,-0.01952,-0.0488,-0.03904,-0.03416,-0.03416
-0.02928,0.04392,-0.05856,-0.04392,-0.02928,0,0.01464,-0.01464,-0.0488,-0.03904,-0.03904,-0.03416
-0.02928,0.04392,-0.05856,-0.04392,-0.02928,0,0.01952,-0.01464,-0.04392,-0.03904,-0.03416,-0.03416
-0.02928,0.04636,-0.06344,-0.0488,-0.03416,0.00244,0.00976,-0.00976,-0.04392,-0.03904,-0.03416,-0.02928
-0.03416,0.0488,-0.06344,-0.04636,-0.02928,-0.00244,0.00976,-0.00976,-0.04392,-0.03904,-0.03416,-0.02928
-0.03416,0.0488,-0.06344,-0.04636,-0.02928,-0.00244,0.0244,-0.00976,-0.0488,-0.03904,-0.03416,-0.03416
-0.02928,0.04392,-0.05856,-0.04392,-0.02928,0,0.00976,-0.01952,-0.0488,-0.03904,-0.03904,-0.02928
-0.02928,0.04392,-0.05856,-0.04392,-0.02928,0,0.00976,-0.01952,-0.0488,-0.03904,-0.03904,-0.02928
-0.02928,0.04392,-0.05856,-0.04392,-0.02928,0,0.00976,-0.01952,-0.0488,-0.03904,-0.03904,-0.02928
-0.03904,0.0488,-0.05856,-0.03904,-0.01952,-0.00976,0.00976,-0.01952,-0.0488,-0.0488,-0.0488,-0.02928
-0.03904,0.0488,-0.05856,-0.03904,-0.01952,-0.00976,0.00976,-0.01952,-0.0488,-0.0488,-0.0488,-0.02928
-0.02928,0.0488,-0.06832,-0.05368,-0.03904,0.00488,0.00976,-0.00976,-0.0488,-0.03904,-0.0488,-0.02928
-0.02928,0.0488,-0.06832,-0.05368,-0.03904,0.00488,0.00976,-0.00976,-0.0488,-0.03904,-0.0488,-0.02928
-0.02928,0.04392,-0.05856,-0.04392,-0.02928,0,0.01952,0,-0.03904,-0.03904,-0.03904,-0.02928
-0.02928,0.04392,-0.05856,-0.04392,-0.02928,0,0.01952,0,-0.03904,-0.03904,-0.03904,-0.02928
-0.02928,0.04392,-0.05856,-0.04392,-0.02928,0,0.00976,-0.00976,-0.0488,-0.03904,-0.03904,-0.03904
-0.02928,0.04392,-0.05856,-0.04392,-0.02928,0,0.00976,-0.01952,-0.0488,-0.03904,-0.03904,-0.03904
-0.03904,0.05368,-0.06832,-0.0488,-0.02928,-0.00488,0.01952,-0.00976,-0.0488,-0.03904,-0.03904,-0.02928
-0.03904,0.05368,-0.06832,-0.0488,-0.02928,-0.00488,0.01952,-0.00976,-0.0488,-0.03904,-0.03904,-0.02928
-0.02928,0.04392,-0.05856,-0.04392,-0.02928,0,0.00976,-0.01952,-0.0488,-0.0488,-0.0488,-0.03904
-0.02928,0.04392,-0.05856,-0.04392,-0.02928,0,0.00976,-0.01952,-0.0488,-0.0488,-0.0488,-0.03904
-0.03904,0.05368,-0.06832,-0.0488,-0.02928,-0.00488,0.00976,-0.00976,-0.0488,-0.0488,-0.03904,-0.02928
-0.03904,0.05368,-0.06832,-0.0488,-0.02928,-0.00488,0.00976,-0.00976,-0.0488,-0.0488,-0.03904,-0.02928
-0.02928,0.0488,-0.06832,-0.05368,-0.03904,0.00488,0.00976,-0.00976,-0.0488,-0.03904,-0.03904,-0.02928
-0.02928,0.0488,-0.06832,-0.05368,-0.03904,0.00488,0.00976,-0.00976,-0.0488,-0.03904,-0.03904,-0.02928
-0.02928,0.04392,-0.05856,-0.04392,-0.02928,0,0.01952,0,-0.0488,-0.03904,-0.03904,-0.02928
-0.02928,0.04392,-0.05856,-0.04392,-0.02928,0,0.01952,0,-0.0488,-0.03904,-0.03904,-0.02928
-0.02928,0.04392,-0.05856,-0.04392,-0.02928,0,0.01952,0,-0.03904,-0.03904,-0.03904,-0.02928
-0.02928,0.04392,-0.05856,-0.04392,-0.02928,0,0.01952,0,-0.03904,-0.03904,-0.03904,-0.02928
-0.02928,0.0488,-0.06832,-0.05368,-0.03904,0.00488,0.01952,-0.00976,-0.0488,-0.0488,-0.03904,-0.02928
-0.02928,0.0488,-0.06832,-0.05368,-0.03904,0.00488,0.01952,-0.00976,-0.0488,-0.0488,-0.03904,-0.02928
-0.02928,0.0488,-0.06832,-0.05368,-0.03904,0.00488,0.01952,-0.01952,-0.0488,-0.05856,-0.0488,-0.02928
-0.02928,0.0488,-0.06832,-0.05368,-0.03904,0.00488,0.01952,-0.01952,-0.0488,-0.05856,-0.0488,-0.02928
-0.03904,0.05368,-0.06832,-0.0488,-0.02928,-0.00488,0.00976,-0.01952,-0.0488,-0.0488,-0.0488,-0.03904
-0.03904,0.05368,-0.06832,-0.0488,-0.02928,-0.00488,0.00976,-0.01952,-0.0488,-0.0488,-0.0488,-0.03904
-0.02928,0.0488,-0.06832,-0.05368,-0.03904,0.00488,0.00976,-0.00976,-0.0488,-0.0488,-0.0488,-0.02928
-0.02928,0.0488,-0.06832,-0.05368,-0.03904,0.00488,0.00976,-0.00976,-0.0488,-0.0488,-0.0488,-0.02928
-0.02928,0.0488,-0.06832,-0.05368,-0.03904,0.00488,0.01952,0,-0.03904,-0.03904,-0.0488,-0.02928
-0.02928,0.0488,-0.06832,-0.05368,-0.03904,0.00488,0.01952,0,-0.03904,-0.03904,-0.0488,-0.02928
-0.02928,0.0488,-0.06832,-0.05368,-0.03904,0.00488,0.00976,-0.00976,-0.0488,-0.0488,-0.0488,-0.03904
-0.02928,0.0488,-0.06832,-0.05368,-0.03904,0.00488,0.00976,-0.00976,-0.0488,-0.0488,-0.0488,-0.03904
-0.02928,0.0488,-0.06832,-0.05368,-0.03904,0.00488,0.01952,0,-0.0488,-0.03904,-0.0488,-0.02928
-0.02928,0.0488,-0.06832,-0.05368,-0.03904,0.00488,0.01952,0,-0.0488,-0.03904,-0.0488,-0.02928
-0.01952,0.03904,-0.05856,-0.0488,-0.03904,0.00976,0.01952,-0.00976,-0.0488,-0.0488,-0.0488,-0.02928
-0.01952,0.03904,-0.05856,-0.0488,-0.03904,0.00976,0.01952,-0.00976,-0.0488,-0.0488,-0.0488,-0.02928
-0.02928,0.0488,-0.06832,-0.05368,-0.03904,0.00488,0.01952,-0.00976,-0.0488,-0.0488,-0.0488,-0.01952
-0.02928,0.0488,-0.06832,-0.05368,-0.03904,0.00488,0.01952,-0.00976,-0.0488,-0.0488,-0.0488,-0.01952
-0.01952,0.03904,-0.05856,-0.0488,-0.03904,0.00976,0.01952,0,-0.0488,-0.03904,-0.03904,-0.02928
-0.01952,0.03904,-0.05856,-0.0488,-0.03904,0.00976,0.01952,0,-0.0488,-0.03904,-0.03904,-0.02928
-0.02928,0.0488,-0.06832,-0.05368,-0.03904,0.00488,0.01952,0,-0.0488,-0.03904,-0.03904,-0.02928
-0.02928,0.0488,-0.06832,-0.05368,-0.03904,0.00488,0.01952,0,-0.0488,-0.03904,-0.03904,-0.02928
-0.03904,0.05368,-0.06832,-0.0488,-0.02928,-0.00488,0.01952,0,-0.0488,-0.03904,-0.03904,-0.02928
-0.03904,0.05368,-0.06832,-0.0488,-0.02928,-0.00488,0.01952,0,-0.0488,-0.03904,-0.03904,-0.02928
-0.02928,0.04392,-0.05856,-0.04392,-0.02928,0,0.01952,0.00976,-0.03416,-0.02928,-0.03904,-0.01952
-0.02928,0.04148,-0.05368,-0.03904,-0.0244,-0.00244,0.01952,0.00976,-0.03416,-0.0244,-0.03416,-0.01464
-0.02928,0.04392,-0.05856,-0.04392,-0.02928,0,0.01952,0.00488,-0.02928,-0.0244,-0.03416,-0.01464
-0.0244,0.03416,-0.04392,-0.03172,-0.01952,-0.00244,0.01952,0.00488,-0.01952,-0.00976,-0.01952,-0.00488
-0.01952,0.01952,-0.01952,-0.00976,0,-0.00976,0.00976,0.00488,-0.01952,-0.01464,-0.01464,-0.00976
-0.00976,0.0122,-0.01464,-0.00976,-0.00488,-0.00244,0.00976,0.00488,-0.01952,-0.00976,-0.01464,-0.00488
-0.00976,0.00976,-0.00976,-0.00488,0,-0.00488,0.01464,0.00488,-0.00488,0.00488,-0.00976,0.00488
-0.00976,0.00732,-0.00488,0,0.00488,-0.00732,0.01464,0.00976,0,0.00976,-0.00488,0.00976
-0.00488,0.00488,-0.00488,-0.00244,0,-0.00244,-0.00488,0.00976,0,0.01464,-0.00488,0.01464
0.00488,-0.00244,0,-0.00244,-0.00488,0.00488,-0.01952,0,0,0.01952,0.00488,0.01952
0.0244,-0.0244,0.0244,0.0122,0,0.0122,-0.03904,-0.02928,0,0.01952,0.00976,0.02928
0.03416,-0.0366,0.03904,0.02196,0.00488,0.01464,-0.06832,-0.05856,-0.01464,0.01952,0.00976,0.03416
0.06344,-0.05368,0.04392,0.0122,-0.01952,0.04148,-0.08296,-0.06832,-0.01464,0.01464,0.01952,0.03416
0.06344,-0.04148,0.01952,-0.0122,-0.04392,0.05368,-0.08296,-0.06344,-0.03416,-0.00488,0.00976,0.03416
0.05368,-0.0244,-0.00488,-0.03172,-0.05856,0.05612,-0.06832,-0.05368,-0.0488,-0.0244,-0.00488,0.01464
0.04392,-0.01952,-0.00488,-0.02684,-0.0488,0.04636,-0.05856,-0.0488,-0.0488,-0.01952,-0.00488,0.01952
0.04392,-0.0122,-0.01952,-0.04148,-0.06344,0.05368,-0.0488,-0.05368,-0.0488,-0.01952,-0.00488,0.01952
0.03416,-0.00732,-0.01952,-0.0366,-0.05368,0.04392,-0.04392,-0.05368,-0.04392,-0.01952,-0.00488,0.01952
0.01464,-0.00244,-0.00976,-0.01708,-0.0244,0.01952,-0.02928,-0.03904,-0.04392,-0.0244,-0.00488,0.01952
-0.00976,0.02196,-0.03416,-0.02928,-0.0244,0.00732,-0.00976,-0.02928,-0.04392,-0.0244,-0.00488,0.00488
-0.02928,0.03904,-0.0488,-0.03416,-0.01952,-0.00488,-0.00488,-0.02928,-0.04392,-0.0244,-0.0244,-0.00488
-0.03416,0.04392,-0.05368,-0.0366,-0.01952,-0.00732,0.00488,-0.01952,-0.05368,-0.02928,-0.02928,-0.00976
-0.0244,0.04148,-0.05856,-0.04636,-0.03416,0.00488,0.00976,-0.00488,-0.03904,-0.0244,-0.0244,-0.00976
-0.01952,0.04392,-0.06832,-0.05856,-0.0488,0.01464,0.01464,-0.00488,-0.04392,-0.02928,-0.0244,-0.00976
-0.01464,0.04392,-0.0732,-0.06588,-0.05856,0.02196,0.01464,-0.00976,-0.05368,-0.02928,-0.0244,-0.01952
-0.01464,0.04392,-0.0732,-0.06588,-0.05856,0.02196,0.01952,-0.00488,-0.05368,-0.03904,-0.02928,-0.01952
-0.02928,0.05368,-0.07808,-0.06344,-0.0488,0.00976,0.0244,-0.00488,-0.05368,-0.03416,-0.03904,-0.01952
-0.02928,0.05612,-0.08296,-0.06832,-0.05368,0.0122,0.0244,-0.00488,-0.05856,-0.03904,-0.04392,-0.01952
-0.01952,0.0488,-0.07808,-0.06832,-0.05856,0.01952,0.02928,-0.00488,-0.05856,-0.03904,-0.04392,-0.01952
-0.01952,0.0488,-0.07808,-0.06832,-0.05856,0.01952,0.02928,-0.00488,-0.05856,-0.03904,-0.04392,-0.01952
-0.01952,0.0488,-0.07808,-0.06832,-0.05856,0.01952,0.0244,-0.00488,-0.05856,-0.03904,-0.0488,-0.02928
-0.0244,0.05124,-0.07808,-0.06588,-0.05368,0.01464,0.0244,0,-0.05368,-0.03904,-0.04392,-0.02928
-0.03416,0.05856,-0.08296,-0.06588,-0.0488,0.00732,0.0244,0,-0.05856,-0.0488,-0.04392,-0.02928
-0.03416,0.05856,-0.08296,-0.06588,-0.0488,0.00732,0.0244,0,-0.05856,-0.05368,-0.0488,-0.03416
-0.03416,0.05856,-0.08296,-0.06588,-0.0488,0.00732,0.03416,0.00488,-0.04392,-0.04392,-0.04392,-0.0244
-0.03416,0.05856,-0.08296,-0.06588,-0.0488,0.00732,0.03416,0.00488,-0.04392,-0.03904,-0.04392,-0.0244
-0.03416,0.05856,-0.08296,-0.06588,-0.0488,0.00732,0.04392,0.00488,-0.04392,-0.03904,-0.04392,-0.0244
-0.03416,0.05856,-0.08296,-0.06588,-0.0488,0.00732,0.04392,0.00976,-0.04392,-0.03416,-0.04392,-0.0244
-0.03904,0.05856,-0.07808,-0.05856,-0.03904,0,0.03416,0,-0.04392,-0.03416,-0.03416,-0.02928
-0.03416,0.05612,-0.07808,-0.061,-0.04392,0.00488,0.03416,0,-0.04392,-0.03416,-0.03416,-0.02928
-0.03416,0.05612,-0.07808,-0.061,-0.04392,0.00488,0.04392,0.00976,-0.04392,-0.0244,-0.03416,-0.02928
-0.03416,0.05612,-0.07808,-0.061,-0.04392,0.00488,0.05368,0.01952,-0.0488,-0.03416,-0.03904,-0.03904
-0.0488,0.07076,-0.09272,-0.06832,-0.04392,-0.00244,0.08296,0.06832,-0.0244,-0.03904,-0.06344,-0.06832
-0.06832,0.08296,-0.0976,-0.06344,-0.02928,-0.01952,0.0976,0.0976,0.00976,0,-0.05856,-0.07808
-0.05368,0.04392,-0.03416,-0.00732,0.01952,-0.0366,0.09272,0.13664,0.10736,0.10736,0.03416,-0.03416
0.06344,-0.03416,0.00488,-0.02684,-0.05856,0.061,0.07808,0.20008,0.1708,0.21472,0.13664,0.06344
0.25864,-0.16104,0.06344,-0.06588,-0.1952,0.22692,0.0244,0.25376,0.22936,0.3172,0.28792,0.20984
0.46848,-0.30988,0.15128,-0.08296,-0.3172,0.39284,-0.09272,0.20008,0.25376,0.4636,0.50264,0.41968
0.76128,-0.55388,0.34648,-0.03416,-0.4148,0.58804,-0.32208,0.01464,0.26352,0.6344,0.81008,0.76616
0.98088,-0.75396,0.52704,0.0366,-0.45384,0.71736,-0.56608,-0.2684,0.18544,0.73688,1.07848,1.098
0.976,-0.7686,0.5612,0.0732,-0.4148,0.6954,-0.67344,-0.5124,0.01952,0.60512,1.01504,1.13704
0.73688,-0.60024,0.4636,0.09516,-0.27328,0.50508,-0.62464,-0.62464,-0.16592,0.28792,0.67832,0.9272
0.366,-0.33672,0.30744,0.12444,-0.05856,0.21228,-0.44896,-0.61976,-0.37088,-0.0488,0.25376,0.5612
0.0488,-0.09516,0.14152,0.11712,0.09272,-0.02196,-0.28792,-0.59048,-0.50752,-0.35624,-0.0976,0.2196
-0.0732,0.03416,0.00488,0.04148,0.07808,-0.07564,-0.18056,-0.47824,-0.57096,-0.49776,-0.27816,0.02928
-0.10248,0.09516,-0.08784,-0.0366,0.01464,-0.05856,-0.09272,-0.3416,-0.5124,-0.45384,-0.28304,-0.05368
-0.10248,0.12688,-0.15128,-0.10004,-0.0488,-0.02684,0.00976,-0.1952,-0.38064,-0.33672,-0.23424,-0.08296
-0.0488,0.08784,-0.12688,-0.10248,-0.07808,0.01464,0.06832,-0.0488,-0.23424,-0.20008,-0.13664,-0.0488
-0.00976,0.05124,-0.09272,-0.08784,-0.08296,0.0366,0.05368,0.01464,-0.12688,-0.0976,-0.0732,0
0,0.02684,-0.05368,-0.05368,-0.05368,0.02684,0.03416,0.04392,-0.06344,-0.03904,-0.0244,0.01464
0,0.02928,-0.05856,-0.05856,-0.05856,0.02928,0.0244,0.03416,-0.0488,-0.02928,-0.02928,0.00976
-0.01464,0.0366,-0.05856,-0.05124,-0.04392,0.01464,0.02928,0.02928,-0.03416,-0.02928,-0.0244,-0.00488
-0.01952,0.04148,-0.06344,-0.05368,-0.04392,0.0122,0.03416,0.03416,-0.03416,-0.02928,-0.02928,-0.00976
-0.01464,0.03416,-0.05368,-0.04636,-0.03904,0.0122,0.05368,0.03904,-0.03904,-0.02928,-0.03904,-0.01952
-0.01952,0.03904,-0.05856,-0.0488,-0.03904,0.00976,0.05368,0.0488,-0.03416,-0.0244,-0.03904,-0.01952
-0.02928,0.04392,-0.05856,-0.04392,-0.02928,0,0.05368,0.04392,-0.02928,-0.01952,-0.03904,-0.02928
-0.02928,0.04392,-0.05856,-0.04392,-0.02928,0,0.05368,0.04392,-0.0244,-0.01952,-0.03416,-0.02928
-0.0244,0.04392,-0.06344,-0.05124,-0.03904,0.00732,0.0488,0.05368,-0.02928,-0.0244,-0.04392,-0.02928
-0.0244,0.04392,-0.06344,-0.05124,-0.03904,0.00732,0.0488,0.05368,-0.02928,-0.0244,-0.04392,-0.02928
-0.0244,0.04392,-0.06344,-0.05124,-0.03904,0.00732,0.04392,0.06832,-0.01464,-0.00488,-0.03416,-0.02928
-0.01952,0.04148,-0.06344,-0.05368,-0.04392,0.0122,0.04392,0.06832,-0.00976,-0.00488,-0.03416,-0.02928
-0.01952,0.04392,-0.06832,-0.05856,-0.0488,0.01464,0.04392,0.06344,-0.00976,-0.00976,-0.03416,-0.02928
-0.0244,0.04636,-0.06832,-0.05612,-0.04392,0.00976,0.04392,0.06832,-0.00488,-0.00488,-0.02928,-0.0244
-0.01464,0.03904,-0.06344,-0.05612,-0.0488,0.01708,0.04392,0.06832,-0.00488,0.00488,-0.02928,-0.0244
-0.00976,0.0366,-0.06344,-0.05856,-0.05368,0.02196,0.04392,0.06832,0,0.00488,-0.0244,-0.0244
0,0.02684,-0.05368,-0.05368,-0.05368,0.02684,0.0488,0.06832,0.00488,0.00488,-0.01464,-0.0244
0,0.02684,-0.05368,-0.05368,-0.05368,0.02684,0.0488,0.06832,0.00488,0.00488,-0.01464,-0.0244
-0.00488,0.03416,-0.06344,-0.061,-0.05856,0.02684,0.05368,0.06832,0.00488,0.00976,-0.01952,-0.0244
-0.01464,0.03904,-0.06344,-0.05612,-0.0488,0.01708,0.05856,0.0732,0.00488,0.00976,-0.01952,-0.0244
-0.00976,0.03416,-0.05856,-0.05368,-0.0488,0.01952,0.0488,0.0732,0,0.01464,-0.01952,-0.01464
-0.00488,0.02928,-0.05368,-0.05124,-0.0488,0.02196,0.0488,0.0732,0,0.01464,-0.01464,-0.01464
0,0.02196,-0.04392,-0.04392,-0.04392,0.02196,0.04392,0.07808,0.00976,0.0244,-0.00488,-0.01464
0,0.02196,-0.04392,-0.04392,-0.04392,0.02196,0.04392,0.07808,0.00976,0.0244,-0.00488,-0.01464
-0.00976,0.03172,-0.05368,-0.0488,-0.04392,0.01708,0.04392,0.07808,0.00976,0.01464,-0.01464,-0.0244
-0.00488,0.02928,-0.05368,-0.05124,-0.0488,0.02196,0.04392,0.07808,0.00976,0.01952,-0.01464,-0.01952
0.00488,0.02196,-0.0488,-0.05124,-0.05368,0.02928,0.03904,0.08296,0.0244,0.0244,-0.00976,-0.00976
0.00976,0.01952,-0.0488,-0.05368,-0.05856,0.03416,0.03904,0.08296,0.0244,0.0244,-0.00488,-0.00976
0,0.02196,-0.04392,-0.04392,-0.04392,0.02196,0.03904,0.0732,0.01952,0.02928,-0.00488,-0.00488
0,0.02196,-0.04392,-0.04392,-0.04392,0.02196,0.03904,0.07808,0.01952,0.02928,-0.00488,-0.00488
0,0.02684,-0.05368,-0.05368,-0.05368,0.02684,0.03904,0.08784,0.0244,0.03416,0,-0.00488
0.00488,0.02196,-0.0488,-0.05124,-0.05368,0.02928,0.03904,0.08784,0.0244,0.03416,0.00488,0
0.01464,0.01464,-0.04392,-0.05124,-0.05856,0.0366,0.02928,0.08296,0.02928,0.03904,0.01464,0
0.01464,0.00976,-0.03416,-0.04148,-0.0488,0.03172,0.02928,0.08296,0.02928,0.04392,0.01464,0.00488
0.01952,0.00732,-0.03416,-0.04392,-0.05368,0.0366,0.03416,0.09272,0.03416,0.0488,0.01952,0.01464
0.01952,0.00732,-0.03416,-0.04392,-0.05368,0.0366,0.02928,0.09272,0.03904,0.0488,0.01952,0.01952
0.01952,0.0122,-0.04392,-0.05368,-0.06344,0.04148,0.02928,0.09272,0.03904,0.05368,0.0244,0.01464
0.0244,0.00976,-0.04392,-0.05612,-0.06832,0.04636,0.02928,0.0976,0.04392,0.05368,0.02928,0.01464
0.03904,-0.00488,-0.02928,-0.0488,-0.06832,0.05368,0.02928,0.0976,0.0488,0.05856,0.03904,0.02928
0.03904,-0.00976,-0.01952,-0.03904,-0.05856,0.0488,0.02928,0.10248,0.0488,0.06832,0.03904,0.02928
0.04392,-0.0122,-0.01952,-0.04148,-0.06344,0.05368,0.02928,0.10736,0.05368,0.0732,0.04392,0.0244
0.0488,-0.01464,-0.01952,-0.04392,-0.06832,0.05856,0.02928,0.11224,0.05856,0.07808,0.0488,0.02928
0.03904,-0.00732,-0.0244,-0.04392,-0.06344,0.05124,0.02928,0.10248,0.06344,0.08296,0.05368,0.03416
0.0488,-0.01464,-0.01952,-0.04392,-0.06832,0.05856,0.02928,0.11224,0.06344,0.08784,0.05368,0.03416
0.05856,-0.02196,-0.01464,-0.04392,-0.0732,0.06588,0.0244,0.11224,0.05856,0.08296,0.05856,0.03904
0.06344,-0.03172,0,-0.03172,-0.06344,0.06344,0.01952,0.11224,0.06344,0.08784,0.06344,0.04392
0.05856,-0.02928,0,-0.02928,-0.05856,0.05856,0.01952,0.11712,0.07808,0.10736,0.0732,0.0488
0.06344,-0.0366,0.00976,-0.02196,-0.05368,0.05856,0.01464,0.11712,0.08296,0.10736,0.08296,0.05856
0.06832,-0.04148,0.01464,-0.01952,-0.05368,0.061,0.00488,0.13176,0.07808,0.11224,0.08784,0.05856
0.07808,-0.04636,0.01464,-0.0244,-0.06344,0.07076,0.00488,0.13176,0.08784,0.12688,0.0976,0.06832
0.09272,-0.05856,0.0244,-0.02196,-0.06832,0.08052,0.00976,0.13664,0.0976,0.13664,0.10248,0.07808
0.0976,-0.06588,0.03416,-0.01464,-0.06344,0.08052,0.00488,0.14152,0.11224,0.1464,0.11224,0.08784
0.10736,-0.07564,0.04392,-0.00976,-0.06344,0.0854,0.00488,0.15616,0.10736,0.1464,0.11224,0.08784
0.10736,-0.07564,0.04392,-0.00976,-0.06344,0.0854,0.00488,0.15616,0.11712,0.15616,0.122,0.0976
0.122,-0.09028,0.05856,-0.00244,-0.06344,0.09272,-0.00976,0.15616,0.12688,0.16592,0.13664,0.11224
0.13664,-0.10492,0.0732,0.00488,-0.06344,0.10004,-0.01952,0.16104,0.13176,0.17568,0.1464,0.122
0.1464,-0.11468,0.08296,0.00976,-0.06344,0.10492,-0.0244,0.16104,0.13176,0.19032,0.15128,0.13176
0.16104,-0.12688,0.09272,0.0122,-0.06832,0.11468,-0.0244,0.1708,0.14152,0.1952,0.16592,0.14152
0.16592,-0.1342,0.10248,0.01952,-0.06344,0.11468,-0.03416,0.16592,0.15128,0.20984,0.17568,0.1464
0.17568,-0.1464,0.11712,0.02928,-0.05856,0.11712,-0.04392,0.16592,0.16104,0.22448,0.19032,0.16104
0.18056,-0.15372,0.12688,0.0366,-0.05368,0.11712,-0.0488,0.18056,0.16592,0.23424,0.20496,0.1708
0.1952,-0.16592,0.13664,0.03904,-0.05856,0.12688,-0.05856,0.18056,0.17568,0.24888,0.2196,0.18544
0.2196,-0.18544,0.15128,0.04148,-0.06832,0.14396,-0.06344,0.19032,0.18544,0.24888,0.22936,0.20008
0.23424,-0.19764,0.16104,0.04392,-0.0732,0.15372,-0.0732,0.19032,0.1952,0.26352,0.23424,0.2196
0.23424,-0.20496,0.17568,0.05856,-0.05856,0.1464,-0.0732,0.18056,0.20496,0.28304,0.24888,0.23424
0.24888,-0.21716,0.18544,0.061,-0.06344,0.15616,-0.07808,0.18544,0.20496,0.28792,0.2684,0.24888
0.26352,-0.22692,0.19032,0.05856,-0.0732,0.16836,-0.08296,0.17568,0.21472,0.28792,0.27816,0.26352
0.27328,-0.23668,0.20008,0.06344,-0.0732,0.17324,-0.08784,0.18544,0.22448,0.29768,0.28792,0.27328
0.2928,-0.25132,0.20984,0.06344,-0.08296,0.18788,-0.0976,0.17568,0.21472,0.31232,0.30256,0.28792
0.30256,-0.26596,0.22936,0.07808,-0.0732,0.18788,-0.10736,0.16592,0.21472,0.31232,0.31232,0.29768
0.30256,-0.2684,0.23424,0.08296,-0.06832,0.18544,-0.122,0.15128,0.21472,0.30744,0.32208,0.30256
0.31232,-0.27328,0.23424,0.07808,-0.07808,0.1952,-0.13176,0.13664,0.21472,0.30744,0.32208,0.31232
0.31232,-0.27572,0.23912,0.08296,-0.0732,0.19276,-0.13176,0.12688,0.21472,0.3172,0.32208,0.32208
0.3172,-0.27572,0.23424,0.07564,-0.08296,0.20008,-0.13664,0.11224,0.20496,0.31232,0.32696,0.32696
0.31232,-0.27084,0.22936,0.0732,-0.08296,0.19764,-0.13664,0.10736,0.20008,0.30256,0.3172,0.32696
0.29768,-0.25864,0.2196,0.07076,-0.07808,0.18788,-0.13664,0.09272,0.19032,0.2928,0.30744,0.3172
0.2684,-0.23668,0.20496,0.07076,-0.06344,0.16592,-0.12688,0.0732,0.18056,0.27328,0.30256,0.29768
0.24888,-0.21716,0.18544,0.061,-0.06344,0.15616,-0.11224,0.05368,0.16592,0.25864,0.28304,0.27328
0.22448,-0.19276,0.16104,0.0488,-0.06344,0.14396,-0.11224,0.0488,0.16104,0.24888,0.26352,0.25376
0.1952,-0.17324,0.15128,0.05368,-0.04392,0.11956,-0.10248,0.03904,0.15128,0.2196,0.23424,0.22936
0.16104,-0.14884,0.13664,0.05612,-0.0244,0.09272,-0.08296,0.02928,0.12688,0.20496,0.21472,0.20008
0.13664,-0.122,0.10736,0.03904,-0.02928,0.08296,-0.06832,0.01952,0.10736,0.18056,0.19032,0.16592
0.11224,-0.10004,0.08784,0.03172,-0.0244,0.06832,-0.06832,0.00976,0.0976,0.1708,0.16104,0.15128
0.09272,-0.08052,0.06832,0.02196,-0.0244,0.05856,-0.05856,0.00488,0.07808,0.14152,0.13664,0.12688
0.0732,-0.06588,0.05856,0.02196,-0.01464,0.04392,-0.03416,0.00976,0.0732,0.13176,0.122,0.10736
0.05368,-0.04636,0.03904,0.0122,-0.01464,0.03416,-0.03416,0.00976,0.05368,0.11224,0.10248,0.08784
0.04392,-0.03172,0.01952,-0.00244,-0.0244,0.03416,-0.02928,0.00488,0.0488,0.08784,0.08296,0.0732
0.02928,-0.01952,0.00976,-0.00488,-0.01952,0.0244,-0.01952,0.00488,0.03904,0.0732,0.06832,0.05856
0.0244,-0.0122,0,-0.0122,-0.0244,0.0244,-0.01952,0.01464,0.03904,0.06344,0.05368,0.05368
0.01952,-0.00488,-0.00976,-0.01952,-0.02928,0.0244,-0.00488,0.01464,0.02928,0.05368,0.04392,0.03904
0.01952,-0.00244,-0.01464,-0.0244,-0.03416,0.02684,-0.00488,0.00488,0.01952,0.05368,0.0488,0.03416
0.01952,0.00244,-0.0244,-0.03416,-0.04392,0.03172,0.00488,0.00976,0.01952,0.04392,0.03904,0.0244
0.00488,0.00976,-0.0244,-0.02684,-0.02928,0.01708,0.00488,0.00976,0.00488,0.03904,0.03416,0.01952
0,0.01464,-0.02928,-0.02928,-0.02928,0.01464,0.00976,0.00976,0.00488,0.03416,0.02928,0.01952
-0.00976,0.02196,-0.03416,-0.02928,-0.0244,0.00732,0.00976,0,0,0.01952,0.01464,0.01464
-0.00976,0.02196,-0.03416,-0.02928,-0.0244,0.00732,0.00976,0,-0.00488,0.01952,0.01464,0.00976
-0.01464,0.02196,-0.02928,-0.02196,-0.01464,0,0.01464,0.00976,0.00488,0.02928,0.00976,0.00488
-0.01464,0.0244,-0.03416,-0.02684,-0.01952,0.00244,0.01464,0.00976,0,0.0244,0.00976,0
-0.01952,0.03172,-0.04392,-0.03416,-0.0244,0.00244,0.00976,0.00488,0,0.0244,0.00488,0
-0.01952,0.03416,-0.0488,-0.03904,-0.02928,0.00488,0.00976,0.00488,0,0.0244,0.00488,-0.00488
-0.01952,0.03172,-0.04392,-0.03416,-0.0244,0.00244,0.01464,0.01464,-0.00488,0.00976,-0.00488,-0.00488
-0.01952,0.03172,-0.04392,-0.03416,-0.0244,0.00244,0.01464,0.01464,-0.00488,0.00976,-0.00488,-0.00488
-0.01464,0.0244,-0.03416,-0.02684,-0.01952,0.00244,0.01464,0.01952,-0.00488,0.01952,-0.00488,-0.00488
-0.00976,0.02196,-0.03416,-0.02928,-0.0244,0.00732,0.01464,0.01952,0,0.01952,0.00976,-0.00488
-0.01464,0.02928,-0.04392,-0.0366,-0.02928,0.00732,0.01464,0.01464,0,0.01952,0.00488,-0.00488
-0.01464,0.02928,-0.04392,-0.0366,-0.02928,0.00732,0.01952,0.01464,0,0.01464,0.00488,-0.00488
-0.00488,0.0244,-0.04392,-0.04148,-0.03904,0.01708,0.01952,0.01464,-0.00488,0.01464,0.00488,0.00488
0,0.02196,-0.04392,-0.04392,-0.04392,0.02196,0.01952,0.01464,-0.00488,0.01464,0.00976,0.00488
0,0.01708,-0.03416,-0.03416,-0.03416,0.01708,0.00976,0.01464,0,0.01464,0.00976,-0.00488
0,0.01708,-0.03416,-0.03416,-0.03416,0.01708,0.00976,0.01464,0,0.01464,-0.00488,-0.00488
-0.00976,0.02684,-0.04392,-0.03904,-0.03416,0.0122,0.00976,0.01464,0,0.01464,0,0.00488
-0.00976,0.02684,-0.04392,-0.03904,-0.03416,0.0122,0.00976,0.01464,-0.00488,0.01464,0,0.00488
-0.00976,0.02684,-0.04392,-0.03904,-0.03416,0.0122,0.01952,0.0244,-0.00488,0.01952,0,0.00488
-0.00976,0.02684,-0.04392,-0.03904,-0.03416,0.0122,0.01952,0.0244,0,0.01952,0,0.00488
-0.00488,0.02196,-0.03904,-0.0366,-0.03416,0.01464,0.01464,0.0244,0,0.01952,0,0.00976
-0.00488,0.0244,-0.04392,-0.04148,-0.03904,0.01708,0.01464,0.0244,0,0.01952,0,0.00976
-0.01952,0.02928,-0.03904,-0.02928,-0.01952,0,0.01464,0.01464,0,0.01952,0,0.00976
-0.01464,0.02684,-0.03904,-0.03172,-0.0244,0.00488,0.01464,0.01464,0,0.01952,0.00488,0.00488
-0.00488,0.02196,-0.03904,-0.0366,-0.03416,0.01464,0.01464,0.00976,0,0.0244,0.01464,0.00976
0,0.01952,-0.03904,-0.03904,-0.03904,0.01952,0.01952,0.00976,0,0.01952,0.01464,0.00976
0.00488,0.01708,-0.03904,-0.04148,-0.04392,0.0244,0.00488,0.00488,-0.00488,0.00976,0.00488,0.00976
0.00488,0.01708,-0.03904,-0.04148,-0.04392,0.0244,0.00488,0.00488,-0.00488,0.00976,0.00976,0.00976
-0.00488,0.02196,-0.03904,-0.0366,-0.03416,0.01464,0.00976,0.01464,0,0.00976,0.00976,0
-0.00976,0.0244,-0.03904,-0.03416,-0.02928,0.00976,0.00976,0.01464,-0.00488,0.00976,0.00488,0
-0.00976,0.0244,-0.03904,-0.03416,-0.02928,0.00976,0.00976,0.01952,-0.00488,0.00976,0.00488,0.00976
-0.00488,0.0244,-0.04392,-0.04148,-0.03904,0.01708,0.01464,0.01952,-0.00488,0.00976,0.00488,0.00976
0,0.01952,-0.03904,-0.03904,-0.03904,0.01952,0.01464,0.01952,-0.00488,0.00976,0.00976,0.00976
-0.00488,0.02196,-0.03904,-0.0366,-0.03416,0.01464,0.01464,0.01952,-0.00488,0.00488,0.00976,0.00488
-0.01464,0.02684,-0.03904,-0.03172,-0.0244,0.00488,0.01464,0.00976,-0.00488,0.00976,0.00976,-0.00488
-0.01464,0.02684,-0.03904,-0.03172,-0.0244,0.00488,0.01464,0.00976,-0.00488,0.00976,0.00976,-0.00976
-0.00488,0.02196,-0.03904,-0.0366,-0.03416,0.01464,0.01464,0.00488,-0.01464,-0.00976,0,-0.01952
-0.00488,0.02196,-0.03904,-0.0366,-0.03416,0.01464,0.01464,0.00488,-0.01952,-0.01464,-0.01464,-0.01952
-0.01464,0.02928,-0.04392,-0.0366,-0.02928,0.00732,0.01464,0.00488,-0.01952,-0.01464,-0.00976,-0.01952
-0.01952,0.03172,-0.04392,-0.03416,-0.0244,0.00244,0.01464,0,-0.0244,-0.01952,-0.01464,-0.01952
-0.01952,0.03172,-0.04392,-0.03416,-0.0244,0.00244,0.00976,0,-0.0244,-0.00976,-0.01464,-0.0244
-0.01952,0.03416,-0.0488,-0.03904,-0.02928,0.00488,0.00488,-0.00488,-0.02928,-0.01464,-0.01464,-0.0244
-0.00976,0.0244,-0.03904,-0.03416,-0.02928,0.00976,0.00488,0,-0.01952,-0.00488,-0.00976,-0.01464
-0.00976,0.0244,-0.03904,-0.03416,-0.02928,0.00976,0.00488,0,-0.01952,-0.00488,-0.00488,-0.01952
-0.0244,0.03416,-0.04392,-0.03172,-0.01952,-0.00244,0.00488,0,-0.0244,-0.01464,-0.00976,-0.01952
-0.0244,0.02928,-0.03416,-0.02196,-0.00976,-0.00732,0.00488,0,-0.0244,-0.01464,-0.00976,-0.01952
-0.01952,0.03416,-0.0488,-0.03904,-0.02928,0.00488,0.01464,0,-0.0244,-0.01464,-0.00976,-0.01952
-0.01464,0.03172,-0.0488,-0.04148,-0.03416,0.00976,0.01464,0.00488,-0.0244,-0.01952,-0.01464,-0.01952
-0.00488,0.02684,-0.0488,-0.04636,-0.04392,0.01952,0.01464,0.00488,-0.0244,-0.01952,-0.0244,-0.01952
-0.00488,0.02928,-0.05368,-0.05124,-0.0488,0.02196,0.01464,0.00488,-0.02928,-0.01952,-0.0244,-0.01952
-0.01464,0.03416,-0.05368,-0.04636,-0.03904,0.0122,0.00488,-0.00488,-0.02928,-0.0244,-0.02928,-0.0244
-0.01464,0.03416,-0.05368,-0.04636,-0.03904,0.0122,0.00976,-0.00976,-0.02928,-0.0244,-0.02928,-0.0244
-0.0244,0.03904,-0.05368,-0.04148,-0.02928,0.00244,0.00976,-0.00976,-0.02928,-0.0244,-0.01952,-0.0244
-0.0244,0.03904,-0.05368,-0.04148,-0.02928,0.00244,0.00976,-0.00976,-0.02928,-0.0244,-0.01952,-0.0244
-0.01464,0.03416,-0.05368,-0.04636,-0.03904,0.0122,0.01464,-0.00488,-0.02928,-0.0244,-0.01952,-0.0244
-0.01952,0.03904,-0.05856,-0.0488,-0.03904,0.00976,0.01464,-0.00976,-0.03416,-0.0244,-0.01952,-0.0244
-0.02928,0.0488,-0.06832,-0.05368,-0.03904,0.00488,0.00488,0,-0.03416,-0.0244,-0.0244,-0.02928
-0.03416,0.05124,-0.06832,-0.05124,-0.03416,0,0.00488,0,-0.03416,-0.02928,-0.0244,-0.02928
-0.0244,0.04148,-0.05856,-0.04636,-0.03416,0.00488,0.00488,-0.00976,-0.0244,-0.0244,-0.0244,-0.01952
-0.01952,0.03904,-0.05856,-0.0488,-0.03904,0.00976,0.00488,-0.00488,-0.0244,-0.0244,-0.0244,-0.0244
-0.01952,0.0366,-0.05368,-0.04392,-0.03416,0.00732,0.00488,0,-0.03416,-0.02928,-0.03416,-0.02928
-0.0244,0.03904,-0.05368,-0.04148,-0.02928,0.00244,0.00488,-0.00488,-0.03416,-0.02928,-0.03416,-0.02928
-0.0244,0.04148,-0.05856,-0.04636,-0.03416,0.00488,0.00488,-0.00976,-0.03416,-0.02928,-0.0244,-0.02928
-0.0244,0.04392,-0.06344,-0.05124,-0.03904,0.00732,0.00976,-0.01464,-0.03416,-0.02928,-0.0244,-0.02928
-0.0244,0.04148,-0.05856,-0.04636,-0.03416,0.00488,0.00976,-0.00976,-0.04392,-0.02928,-0.03416,-0.03416
-0.0244,0.04148,-0.05856,-0.04636,-0.03416,0.00488,0.00976,-0.00976,-0.04392,-0.02928,-0.03416,-0.03416
-0.00976,0.02684,-0.04392,-0.03904,-0.03416,0.0122,0.00976,-0.00976,-0.03416,-0.0244,-0.0244,-0.03416
-0.00976,0.02928,-0.0488,-0.04392,-0.03904,0.01464,0.00488,-0.00976,-0.03416,-0.03416,-0.0244,-0.03416
-0.01464,0.03416,-0.05368,-0.04636,-0.03904,0.0122,0.00488,0,-0.03416,-0.03416,-0.03416,-0.03416
-0.0244,0.04392,-0.06344,-0.05124,-0.03904,0.00732,0.00976,0,-0.03416,-0.02928,-0.03416,-0.03416
-0.01952,0.03904,-0.05856,-0.0488,-0.03904,0.00976,0.01464,0,-0.03904,-0.02928,-0.03416,-0.03416
-0.01952,0.03904,-0.05856,-0.0488,-0.03904,0.00976,0.01464,0,-0.03904,-0.02928,-0.03416,-0.03416
-0.01952,0.04392,-0.06832,-0.05856,-0.0488,0.01464,0.00488,-0.00488,-0.03904,-0.02928,-0.03904,-0.03416
-0.01952,0.04392,-0.06832,-0.05856,-0.0488,0.01464,0.00976,-0.00488,-0.03416,-0.02928,-0.03416,-0.03416
-0.01952,0.04148,-0.06344,-0.05368,-0.04392,0.0122,0.00976,-0.00976,-0.03416,-0.02928,-0.03416,-0.02928
-0.0244,0.04392,-0.06344,-0.05124,-0.03904,0.00732,0.00976,-0.00976,-0.03416,-0.02928,-0.03416,-0.02928
-0.0244,0.04392,-0.06344,-0.05124,-0.03904,0.00732,0.01464,-0.01952,-0.03904,-0.02928,-0.03416,-0.03416
-0.01952,0.03904,-0.05856,-0.0488,-0.03904,0.00976,0.00976,0,-0.03904,-0.01952,-0.02928,-0.02928
-0.01952,0.03904,-0.05856,-0.0488,-0.03904,0.00976,0.00976,0,-0.03904,-0.02928,-0.02928,-0.02928
-0.01952,0.03904,-0.05856,-0.0488,-0.03904,0.00976,0.00976,0,-0.03904,-0.02928,-0.02928,-0.02928
-0.02928,0.04392,-0.05856,-0.04392,-0.02928,0,0.00976,-0.00976,-0.03904,-0.02928,-0.03904,-0.03904
-0.02928,0.04392,-0.05856,-0.04392,-0.02928,0,0.00976,-0.00976,-0.03904,-0.02928,-0.03904,-0.03904
-0.01952,0.03904,-0.05856,-0.0488,-0.03904,0.00976,0.00976,0,-0.03904,-0.02928,-0.03904,-0.02928
-0.01952,0.03904,-0.05856,-0.0488,-0.03904,0.00976,0.00976,0,-0.03904,-0.02928,-0.03904,-0.02928
-0.01952,0.03904,-0.05856,-0.0488,-0.03904,0.00976,0.00976,0,-0.03904,-0.03904,-0.03904,-0.02928
-0.01952,0.03904,-0.05856,-0.0488,-0.03904,0.00976,0.00976,0,-0.03904,-0.03904,-0.03904,-0.02928
-0.02928,0.0488,-0.06832,-0.05368,-0.03904,0.00488,0.00976,-0.00976,-0.03904,-0.02928,-0.03904,-0.02928
-0.02928,0.0488,-0.06832,-0.05368,-0.03904,0.00488,0.00976,-0.00976,-0.03904,-0.02928,-0.03904,-0.02928
-0.01952,0.03904,-0.05856,-0.0488,-0.03904,0.00976,0.00976,-0.01952,-0.03904,-0.03904,-0.03904,-0.02928
-0.01952,0.03904,-0.05856,-0.0488,-0.03904,0.00976,0.00976,-0.01952,-0.03904,-0.03904,-0.03904,-0.02928
-0.02928,0.03904,-0.0488,-0.03416,-0.01952,-0.00488,0,-0.01952,-0.0488,-0.03904,-0.0488,-0.03904
-0.02928,0.03904,-0.0488,-0.03416,-0.01952,-0.00488,0,-0.01952,-0.0488,-0.03904,-0.0488,-0.03904
-0.02928,0.04392,-0.05856,-0.04392,-0.02928,0,0,-0.00976,-0.03904,-0.02928,-0.03904,-0.03904
-0.02928,0.0488,-0.06832,-0.05368,-0.03904,0.00488,0,-0.00976,-0.03904,-0.02928,-0.03904,-0.03904
-0.01952,0.03904,-0.05856,-0.0488,-0.03904,0.00976,0,0,-0.03904,-0.03904,-0.03904,-0.02928
-0.01952,0.03904,-0.05856,-0.0488,-0.03904,0.00976,0,0,-0.03904,-0.03904,-0.03904,-0.02928
-0.01952,0.03416,-0.0488,-0.03904,-0.02928,0.00488,0.00976,0,-0.03904,-0.03904,-0.03904,-0.03904
-0.01952,0.03416,-0.0488,-0.03904,-0.02928,0.00488,0.00976,0,-0.03904,-0.03904,-0.03904,-0.03904
-0.01952,0.03416,-0.0488,-0.03904,-0.02928,0.00488,0.00976,-0.00976,-0.03904,-0.03904,-0.03904,-0.03904
-0.01952,0.03416,-0.0488,-0.03904,-0.02928,0.00488,0.00976,-0.00976,-0.03904,-0.03904,-0.03904,-0.03904
-0.01952,0.03904,-0.05856,-0.0488,-0.03904,0.00976,0.00976,-0.00976,-0.03904,-0.03904,-0.03904,-0.03904
-0.01952,0.03904,-0.05856,-0.0488,-0.03904,0.00976,0.00976,-0.00976,-0.03904,-0.03904,-0.03904,-0.03904
-0.02928,0.04392,-0.05856,-0.04392,-0.02928,0,0.00976,-0.01952,-0.03904,-0.03904,-0.03904,-0.02928
-0.02928,0.04392,-0.05856,-0.04392,-0.02928,0,0.00976,-0.01952,-0.03904,-0.03904,-0.03904,-0.02928
-0.02928,0.04392,-0.05856,-0.04392,-0.02928,0,0,-0.01952,-0.0488,-0.03904,-0.03904,-0.03904
-0.02928,0.04392,-0.05856,-0.04392,-0.02928,0,0,-0.01952,-0.0488,-0.03904,-0.03904,-0.03904
-0.01952,0.03416,-0.0488,-0.03904,-0.02928,0.00488,0,-0.01952,-0.03904,-0.03904,-0.03904,-0.03904
-0.01952,0.03416,-0.0488,-0.03904,-0.02928,0.00488,0,-0.01952,-0.03904,-0.03904,-0.03904,-0.03904
-0.02928,0.04392,-0.05856,-0.04392,-0.02928,0,0,-0.00976,-0.03904,-0.03904,-0.03904,-0.02928
-0.02928,0.0488,-0.06832,-0.05368,-0.03904,0.00488,0,-0.00976,-0.03904,-0.03904,-0.03904,-0.02928
-0.02928,0.04392,-0.05856,-0.04392,-0.02928,0,0,-0.01952,-0.03904,-0.02928,-0.03904,-0.03904
-0.02928,0.04392,-0.05856,-0.04392,-0.02928,0,0,-0.01952,-0.03904,-0.02928,-0.03904,-0.03904
-0.01952,0.03416,-0.0488,-0.03904,-0.02928,0.00488,0,-0.01952,-0.03904,-0.03904,-0.03904,-0.03904
-0.01952,0.03416,-0.0488,-0.03904,-0.02928,0.00488,0,-0.01952,-0.03904,-0.03904,-0.03904,-0.03904
-0.02928,0.04392,-0.05856,-0.04392,-0.02928,0,0.00976,-0.01952,-0.03904,-0.03904,-0.02928,-0.02928
-0.02928,0.04392,-0.05856,-0.04392,-0.02928,0,0.00976,-0.01952,-0.03904,-0.03904,-0.02928,-0.02928
-0.02928,0.03904,-0.0488,-0.03416,-0.01952,-0.00488,0.00976,-0.01952,-0.03904,-0.02928,-0.02928,-0.03904
-0.02928,0.03904,-0.0488,-0.03416,-0.01952,-0.00488,0.00976,-0.01952,-0.03904,-0.02928,-0.02928,-0.03904
-0.01952,0.03416,-0.0488,-0.03904,-0.02928,0.00488,0.00976,-0.00976,-0.0244,-0.02928,-0.03904,-0.02928
-0.01952,0.03172,-0.04392,-0.03416,-0.0244,0.00244,0.00976,0,-0.0244,-0.0244,-0.03416,-0.0244
-0.02928,0.03904,-0.0488,-0.03416,-0.01952,-0.00488,0,-0.00488,-0.02928,-0.03416,-0.03416,-0.0244
-0.0244,0.02928,-0.03416,-0.02196,-0.00976,-0.00732,0,-0.00488,-0.01952,-0.01952,-0.01952,-0.01464
-0.01952,0.01464,-0.00976,0,0.00976,-0.01464,0,-0.00488,0,-0.00488,-0.01464,-0.00976
-0.00976,0.00732,-0.00488,0,0.00488,-0.00732,0,-0.00488,0,0.00976,-0.01464,-0.00488
-0.00976,0.00488,0,0.00488,0.00976,-0.00976,-0.00488,-0.00488,0.00488,0.01464,0,-0.00488
-0.00976,0.00244,0.00488,0.00976,0.01464,-0.0122,-0.00488,0,0.00976,0.01952,0.00488,0
-0.01464,0.00488,0.00488,0.0122,0.01952,-0.01708,-0.01464,-0.00976,0.00976,0.01464,0.00488,-0.00488
-0.00488,-0.00244,0.00976,0.0122,0.01464,-0.00976,-0.02928,-0.01952,0.00976,0.01952,0.01464,0
0.01464,-0.01952,0.0244,0.01708,0.00976,0.00244,-0.0488,-0.0488,0.00976,0.02928,0.00976,0.00976
0.0244,-0.03172,0.03904,0.02684,0.01464,0.00488,-0.07808,-0.07808,-0.00488,0.02928,0.00976,0.01464
0.04392,-0.0488,0.05368,0.03172,0.00976,0.01708,-0.10248,-0.07808,-0.01464,0.0244,0.00976,0.0244
0.04392,-0.0366,0.02928,0.00732,-0.01464,0.02928,-0.10248,-0.0732,-0.03416,0.00488,0,0.0244
0.04392,-0.0244,0.00488,-0.01708,-0.03904,0.04148,-0.07808,-0.06344,-0.03904,-0.00488,-0.00488,0.01464
0.04392,-0.0244,0.00488,-0.01708,-0.03904,0.04148,-0.06832,-0.05856,-0.03904,0,-0.00488,0.01952
0.05368,-0.03172,0.00976,-0.01708,-0.04392,0.0488,-0.05856,-0.04392,-0.02928,0,0.00488,0.01952
0.04392,-0.02684,0.00976,-0.0122,-0.03416,0.03904,-0.05368,-0.04392,-0.0244,0,0.00488,0.01952
0.0244,-0.01708,0.00976,-0.00244,-0.01464,0.01952,-0.0488,-0.0488,-0.03416,-0.01464,-0.00488,0.00976
0,0.00732,-0.01464,-0.01464,-0.01464,0.00732,-0.02928,-0.03904,-0.03416,-0.01464,-0.00488,-0.00488
-0.01952,0.0244,-0.02928,-0.01952,-0.00976,-0.00488,-0.0244,-0.0488,-0.03416,-0.0244,-0.0244,-0.01464
-0.0244,0.02928,-0.03416,-0.02196,-0.00976,-0.00732,-0.01464,-0.03904,-0.04392,-0.02928,-0.02928,-0.01952
-0.01464,0.02684,-0.03904,-0.03172,-0.0244,0.00488,-0.00976,-0.03416,-0.03904,-0.0244,-0.03416,-0.01952
-0.00976,0.02928,-0.0488,-0.04392,-0.03904,0.01464,-0.00488,-0.03416,-0.04392,-0.02928,-0.03416,-0.01952
-0.0244,0.03904,-0.05368,-0.04148,-0.02928,0.00244,-0.00488,-0.01952,-0.04392,-0.01952,-0.03416,-0.02928
-0.0244,0.03904,-0.05368,-0.04148,-0.02928,0.00244,0,-0.01464,-0.04392,-0.02928,-0.03904,-0.02928
-0.02928,0.0488,-0.06832,-0.05368,-0.03904,0.00488,0.00488,-0.01464,-0.04392,-0.03416,-0.03904,-0.03904
-0.02928,0.05612,-0.08296,-0.06832,-0.05368,0.0122,0.00488,-0.01464,-0.0488,-0.0488,-0.04392,-0.03904
-0.02928,0.0488,-0.06832,-0.05368,-0.03904,0.00488,0.01952,-0.01464,-0.0488,-0.03904,-0.04392,-0.02928
-0.02928,0.0488,-0.06832,-0.05368,-0.03904,0.00488,0.01952,-0.01464,-0.0488,-0.03904,-0.04392,-0.02928
-0.02928,0.0488,-0.06832,-0.05368,-0.03904,0.00488,0.01464,-0.01464,-0.0488,-0.03904,-0.0488,-0.03904
-0.03416,0.05124,-0.06832,-0.05124,-0.03416,0,0.01464,-0.00976,-0.04392,-0.03904,-0.04392,-0.03904
-0.0244,0.0488,-0.0732,-0.061,-0.0488,0.0122,0.01464,-0.01952,-0.0488,-0.03904,-0.04392,-0.03904
-0.0244,0.0488,-0.0732,-0.061,-0.0488,0.0122,0.01464,-0.01952,-0.0488,-0.04392,-0.0488,-0.04392
-0.0244,0.04392,-0.06344,-0.05124,-0.03904,0.00732,0.0244,-0.01464,-0.04392,-0.04392,-0.04392,-0.03416
-0.0244,0.04392,-0.06344,-0.05124,-0.03904,0.00732,0.0244,-0.01464,-0.04392,-0.03904,-0.04392,-0.03416
-0.03416,0.05368,-0.0732,-0.05612,-0.03904,0.00244,0.0244,-0.00488,-0.04392,-0.03904,-0.04392,-0.03416
-0.03416,0.05368,-0.0732,-0.05612,-0.03904,0.00244,0.0244,0,-0.04392,-0.03416,-0.04392,-0.03416
-0.03904,0.05368,-0.06832,-0.0488,-0.02928,-0.00488,0.01464,0,-0.04392,-0.04392,-0.04392,-0.02928
-0.03416,0.05124,-0.06832,-0.05124,-0.03416,0,0.01464,0,-0.04392,-0.04392,-0.04392,-0.02928
-0.0244,0.04148,-0.05856,-0.04636,-0.03416,0.00488,0.0244,0,-0.04392,-0.03416,-0.04392,-0.03904
-0.03416,0.05124,-0.06832,-0.05124,-0.03416,0,0.0244,0.00976,-0.03904,-0.04392,-0.0488,-0.0488
-0.05856,0.07564,-0.09272,-0.06344,-0.03416,-0.0122,0.0732,0.05856,-0.01464,-0.03904,-0.0732,-0.07808
-0.06832,0.07808,-0.08784,-0.05368,-0.01952,-0.0244,0.08784,0.08784,0.01952,-0.01952,-0.07808,-0.0976
-0.05368,0.0488,-0.04392,-0.01708,0.00976,-0.03172,0.09272,0.10736,0.10736,0.08784,0.01464,-0.05368
0.03416,-0.0244,0.01464,-0.00244,-0.01952,0.02684,0.06832,0.16104,0.18056,0.1952,0.11712,0.03416
0.2196,-0.14152,0.06344,-0.04636,-0.15616,0.18788,0.0244,0.23424,0.24888,0.34648,0.28792,0.18056
0.42944,-0.29524,0.16104,-0.05368,-0.2684,0.34892,-0.09272,0.19032,0.2928,0.50264,0.52216,0.41968
0.69296,-0.51972,0.34648,0,-0.34648,0.51972,-0.31232,0.0244,0.2928,0.6832,0.83936,0.7564
0.9028,-0.71492,0.52704,0.07564,-0.37576,0.63928,-0.5368,-0.22936,0.23424,0.8052,1.10776,1.08824
0.96624,-0.793,0.61976,0.13664,-0.34648,0.65636,-0.6832,-0.48312,0.07808,0.74176,1.1712,1.22488
0.78568,-0.6588,0.53192,0.13908,-0.25376,0.51972,-0.66368,-0.6344,-0.1464,0.39528,0.83448,1.04432
0.42456,-0.38064,0.33672,0.12444,-0.08784,0.2562,-0.49776,-0.63928,-0.38064,-0.01952,0.3416,0.6588
0.0976,-0.1342,0.1708,0.122,0.0732,0.0122,-0.32696,-0.60024,-0.52704,-0.34648,-0.05856,0.27816
-0.03416,0,0.03416,0.05124,0.06832,-0.05124,-0.2196,-0.51728,-0.60024,-0.51728,-0.25864,0.07808
-0.0732,0.07076,-0.06832,-0.03172,0.00488,-0.03904,-0.13176,-0.38064,-0.55144,-0.49288,-0.2928,-0.03416
-0.09272,0.11224,-0.13176,-0.0854,-0.03904,-0.02684,-0.02928,-0.244,-0.42944,-0.37576,-0.25376,-0.08296
-0.05856,0.08784,-0.11712,-0.08784,-0.05856,0,0.03904,-0.07808,-0.25376,-0.22936,-0.15616,-0.06832
-0.01952,0.04636,-0.0732,-0.06344,-0.05368,0.01708,0.03416,-0.01464,-0.13664,-0.10736,-0.0732,-0.02928
0,0.02684,-0.05368,-0.05368,-0.05368,0.02684,0.01464,0.01464,-0.0732,-0.0488,-0.03416,-0.00488
-0.00976,0.02928,-0.0488,-0.04392,-0.03904,0.01464,0.01464,0.01464,-0.0488,-0.02928,-0.01952,0
-0.01464,0.03172,-0.0488,-0.04148,-0.03416,0.00976,0.01952,0.01952,-0.03416,-0.02928,-0.03416,-0.01464
-0.01952,0.0366,-0.05368,-0.04392,-0.03416,0.00732,0.0244,0.0244,-0.03416,-0.02928,-0.03904,-0.01952
-0.01464,0.03416,-0.05368,-0.04636,-0.03904,0.0122,0.04392,0.03904,-0.02928,-0.02928,-0.03904,-0.02928
-0.01952,0.03904,-0.05856,-0.0488,-0.03904,0.00976,0.04392,0.0488,-0.0244,-0.0244,-0.03904,-0.02928
-0.02928,0.04392,-0.05856,-0.04392,-0.02928,0,0.04392,0.05368,-0.01952,-0.01952,-0.03904,-0.03904
-0.02928,0.04392,-0.05856,-0.04392,-0.02928,0,0.04392,0.05368,-0.01464,-0.01952,-0.03416,-0.03904
-0.01464,0.03416,-0.05368,-0.04636,-0.03904,0.0122,0.0488,0.05368,0,-0.01464,-0.03416,-0.02928
-0.01464,0.03416,-0.05368,-0.04636,-0.03904,0.0122,0.0488,0.05368,0,-0.01464,-0.03416,-0.02928
-0.0244,0.03904,-0.05368,-0.04148,-0.02928,0.00244,0.04392,0.0488,-0.00488,-0.00488,-0.03416,-0.02928
-0.01952,0.0366,-0.05368,-0.04392,-0.03416,0.00732,0.04392,0.0488,0,-0.00488,-0.03416,-0.02928
-0.02928,0.0488,-0.06832,-0.05368,-0.03904,0.00488,0.04392,0.04392,0,0,-0.03416,-0.03904
-0.03416,0.05124,-0.06832,-0.05124,-0.03416,0,0.04392,0.0488,0.00488,0.00488,-0.02928,-0.03416
-0.0244,0.03904,-0.05368,-0.04148,-0.02928,0.00244,0.03416,0.05856,0.00488,0.00488,-0.02928,-0.03416
-0.01952,0.0366,-0.05368,-0.04392,-0.03416,0.00732,0.03416,0.05856,0.00976,0.00488,-0.0244,-0.03416
-0.01952,0.0366,-0.05368,-0.04392,-0.03416,0.00732,0.03904,0.05856,0.01464,0.00488,-0.03416,-0.04392
-0.01952,0.0366,-0.05368,-0.04392,-0.03416,0.00732,0.03904,0.05856,0.01464,0.00488,-0.03416,-0.04392
-0.01952,0.04148,-0.06344,-0.05368,-0.04392,0.0122,0.03416,0.06832,0.01464,0.00976,-0.01952,-0.03416
-0.01952,0.04148,-0.06344,-0.05368,-0.04392,0.0122,0.03904,0.0732,0.01464,0.00976,-0.01952,-0.03416
-0.01952,0.03416,-0.0488,-0.03904,-0.02928,0.00488,0.0488,0.06344,0.01952,0.01464,-0.01952,-0.0244
-0.01464,0.02928,-0.04392,-0.0366,-0.02928,0.00732,0.0488,0.06344,0.01952,0.01464,-0.01464,-0.0244
-0.00976,0.02684,-0.04392,-0.03904,-0.03416,0.0122,0.04392,0.06832,0.01952,0.01464,-0.0244,-0.0244
-0.00976,0.02684,-0.04392,-0.03904,-0.03416,0.0122,0.04392,0.06832,0.01952,0.01464,-0.0244,-0.0244
-0.00976,0.02684,-0.04392,-0.03904,-0.03416,0.0122,0.04392,0.06832,0.01952,0.01464,-0.01464,-0.0244
-0.00488,0.0244,-0.04392,-0.04148,-0.03904,0.01708,0.04392,0.06832,0.01952,0.01952,-0.01464,-0.01952
0.00488,0.01708,-0.03904,-0.04148,-0.04392,0.0244,0.03904,0.0732,0.03416,0.0244,-0.00976,-0.01952
0.00976,0.01464,-0.03904,-0.04392,-0.0488,0.02928,0.03904,0.0732,0.03416,0.0244,-0.00488,-0.01952
0,0.01708,-0.03416,-0.03416,-0.03416,0.01708,0.03904,0.0732,0.03904,0.02928,-0.00488,-0.01464
0,0.01708,-0.03416,-0.03416,-0.03416,0.01708,0.03904,0.07808,0.03904,0.02928,-0.00488,-0.01464
0,0.02196,-0.04392,-0.04392,-0.04392,0.02196,0.02928,0.07808,0.04392,0.03416,0.00976,-0.01464
0.00488,0.01708,-0.03904,-0.04148,-0.04392,0.0244,0.02928,0.07808,0.04392,0.03416,0.01464,-0.00976
0.00488,0.0122,-0.02928,-0.03172,-0.03416,0.01952,0.03904,0.0732,0.03904,0.03904,0.01464,-0.00976
0.00488,0.0122,-0.02928,-0.03172,-0.03416,0.01952,0.03904,0.0732,0.03904,0.04392,0.01464,-0.00488
0.00976,0.0122,-0.03416,-0.03904,-0.04392,0.02684,0.03416,0.08296,0.04392,0.03904,0.00976,-0.00488
0.00976,0.0122,-0.03416,-0.03904,-0.04392,0.02684,0.02928,0.08296,0.0488,0.03904,0.00976,0
0.00976,0.0122,-0.03416,-0.03904,-0.04392,0.02684,0.02928,0.08296,0.0488,0.05368,0.01464,0.00488
0.01464,0.00976,-0.03416,-0.04148,-0.0488,0.03172,0.02928,0.08784,0.05368,0.05368,0.01952,0.00488
0.02928,-0.00488,-0.01952,-0.03416,-0.0488,0.03904,0.01952,0.08784,0.05856,0.05856,0.02928,0.00976
0.02928,-0.00976,-0.00976,-0.0244,-0.03904,0.03416,0.01952,0.09272,0.05856,0.06832,0.02928,0.00976
0.0244,-0.00244,-0.01952,-0.03172,-0.04392,0.03416,0.01952,0.0976,0.06344,0.0732,0.03416,0.01464
0.02928,-0.00488,-0.01952,-0.03416,-0.0488,0.03904,0.01952,0.10248,0.06832,0.07808,0.03904,0.01952
0.03904,-0.0122,-0.01464,-0.03416,-0.05368,0.04636,0.01952,0.10248,0.08296,0.08296,0.04392,0.0244
0.0488,-0.01952,-0.00976,-0.03416,-0.05856,0.05368,0.01952,0.11224,0.08296,0.08784,0.04392,0.0244
0.0488,-0.0244,0,-0.0244,-0.0488,0.0488,0.0244,0.11224,0.08784,0.09272,0.05856,0.02928
0.05368,-0.02928,0.00488,-0.02196,-0.0488,0.05124,0.01952,0.11224,0.09272,0.0976,0.06344,0.03416
0.05856,-0.02928,0,-0.02928,-0.05856,0.05856,0.01952,0.11712,0.0976,0.10736,0.0732,0.03904
0.06344,-0.0366,0.00976,-0.02196,-0.05368,0.05856,0.01464,0.11712,0.10248,0.10736,0.08296,0.0488
0.05856,-0.04148,0.0244,-0.00488,-0.03416,0.04636,0.00488,0.11224,0.0976,0.10248,0.07808,0.0488
0.06832,-0.04636,0.0244,-0.00976,-0.04392,0.05612,0.00488,0.11224,0.10736,0.11712,0.08784,0.05856
0.08296,-0.05856,0.03416,-0.00732,-0.0488,0.06588,0,0.11712,0.10736,0.12688,0.09272,0.05856
0.08784,-0.06588,0.04392,0,-0.04392,0.06588,-0.00488,0.122,0.122,0.13664,0.10248,0.06832
0.08784,-0.06588,0.04392,0,-0.04392,0.06588,-0.00488,0.13664,0.12688,0.1464,0.11224,0.07808
0.08784,-0.06588,0.04392,0,-0.04392,0.06588,-0.00488,0.13664,0.13664,0.15616,0.122,0.08784
0.10248,-0.08052,0.05856,0.00732,-0.04392,0.0732,-0.00976,0.1464,0.1464,0.17568,0.13664,0.10248
0.11712,-0.09516,0.0732,0.01464,-0.04392,0.08052,-0.01952,0.15128,0.15128,0.18544,0.1464,0.11224
0.12688,-0.10492,0.08296,0.01952,-0.04392,0.0854,-0.01464,0.15128,0.16104,0.19032,0.16104,0.122
0.14152,-0.11712,0.09272,0.02196,-0.0488,0.09516,-0.01464,0.16104,0.1708,0.1952,0.17568,0.13176
0.1464,-0.11956,0.09272,0.01952,-0.05368,0.10004,-0.0244,0.16592,0.1708,0.2196,0.17568,0.1464
0.15616,-0.13176,0.10736,0.02928,-0.0488,0.10248,-0.03416,0.16592,0.18056,0.23424,0.19032,0.16104
0.18056,-0.15372,0.12688,0.0366,-0.05368,0.11712,-0.03904,0.1708,0.1952,0.244,0.20496,0.1708
0.1952,-0.16592,0.13664,0.03904,-0.05856,0.12688,-0.0488,0.1708,0.20496,0.25864,0.2196,0.18544
0.20008,-0.17568,0.15128,0.05124,-0.0488,0.12444,-0.05368,0.1708,0.20496,0.2684,0.23912,0.20008
0.21472,-0.18788,0.16104,0.05368,-0.05368,0.1342,-0.06344,0.1708,0.21472,0.28304,0.244,0.2196
0.22448,-0.20008,0.17568,0.06344,-0.0488,0.13664,-0.0732,0.1708,0.22448,0.2928,0.25864,0.23424
0.23912,-0.21228,0.18544,0.06588,-0.05368,0.1464,-0.07808,0.17568,0.22448,0.29768,0.27816,0.24888
0.25376,-0.22204,0.19032,0.06344,-0.06344,0.1586,-0.08296,0.16592,0.244,0.30744,0.28792,0.26352
0.26352,-0.2318,0.20008,0.06832,-0.06344,0.16348,-0.08784,0.17568,0.25376,0.3172,0.29768,0.27328
0.27328,-0.244,0.21472,0.07808,-0.05856,0.16592,-0.0976,0.16592,0.25376,0.33184,0.31232,0.29768
0.28304,-0.25376,0.22448,0.08296,-0.05856,0.1708,-0.10736,0.15616,0.25376,0.33184,0.32208,0.30744
0.28304,-0.25376,0.22448,0.08296,-0.05856,0.1708,-0.11224,0.15128,0.244,0.32696,0.33184,0.31232
0.2928,-0.25864,0.22448,0.07808,-0.06832,0.18056,-0.122,0.13664,0.244,0.32696,0.33184,0.32208
0.30256,-0.27084,0.23912,0.08784,-0.06344,0.183,-0.13176,0.11712,0.23424,0.3172,0.33184,0.32208
0.30744,-0.27084,0.23424,0.08052,-0.0732,0.19032,-0.13664,0.10248,0.22448,0.31232,0.33672,0.32696
0.2928,-0.26108,0.22936,0.08296,-0.06344,0.17812,-0.13664,0.08784,0.2196,0.30256,0.32696,0.32696
0.27816,-0.24888,0.2196,0.08052,-0.05856,0.16836,-0.13664,0.0732,0.20984,0.2928,0.3172,0.3172
0.2684,-0.23912,0.20984,0.07564,-0.05856,0.16348,-0.13664,0.06344,0.20008,0.28304,0.31232,0.30744
0.24888,-0.22448,0.20008,0.07564,-0.0488,0.14884,-0.122,0.04392,0.18544,0.2684,0.2928,0.28304
0.22448,-0.20008,0.17568,0.06344,-0.0488,0.13664,-0.11224,0.0488,0.18056,0.25864,0.27328,0.26352
0.1952,-0.17568,0.15616,0.05856,-0.03904,0.11712,-0.10248,0.03904,0.1708,0.22936,0.244,0.23912
0.16104,-0.14884,0.13664,0.05612,-0.0244,0.09272,-0.09272,0.02928,0.1464,0.1952,0.21472,0.20008
0.13664,-0.122,0.10736,0.03904,-0.02928,0.08296,-0.07808,0.01952,0.12688,0.1708,0.19032,0.16592
0.11224,-0.09516,0.07808,0.02196,-0.03416,0.0732,-0.05856,0.01952,0.11712,0.16104,0.16104,0.15128
0.09272,-0.07564,0.05856,0.0122,-0.03416,0.06344,-0.0488,0.01464,0.0976,0.13176,0.13664,0.12688
0.0732,-0.061,0.0488,0.0122,-0.0244,0.0488,-0.03416,0,0.08296,0.11224,0.11224,0.10736
0.05368,-0.04148,0.02928,0.00244,-0.0244,0.03904,-0.03416,0,0.06344,0.09272,0.09272,0.08784
0.03416,-0.02196,0.00976,-0.00732,-0.0244,0.02928,-0.02928,-0.00488,0.0488,0.07808,0.0732,0.06344
0.01952,-0.00976,0,-0.00976,-0.01952,0.01952,-0.01952,-0.00488,0.03904,0.06344,0.05856,0.0488
0.00488,0.00732,-0.01952,-0.02196,-0.0244,0.01464,-0.01952,-0.00488,0.03904,0.05368,0.05368,0.04392
0,0.01464,-0.02928,-0.02928,-0.02928,0.01464,-0.00488,-0.00488,0.02928,0.04392,0.04392,0.02928
0,0.0122,-0.0244,-0.0244,-0.0244,0.0122,-0.00488,0.00488,0.01952,0.03416,0.02928,0.0244
0,0.01708,-0.03416,-0.03416,-0.03416,0.01708,0.00488,0.00976,0.01952,0.0244,0.01952,0.01464
-0.01464,0.02928,-0.04392,-0.0366,-0.02928,0.00732,0.00488,0.00976,0.01464,0.01952,0.01464,0.00976
-0.01952,0.03416,-0.0488,-0.03904,-0.02928,0.00488,0.00976,0.00976,0.01464,0.01464,0.00976,0.00976
-0.00976,0.02196,-0.03416,-0.02928,-0.0244,0.00732,0.00976,0.00976,0.00976,0.00976,0.00488,0.00488
-0.00976,0.02196,-0.03416,-0.02928,-0.0244,0.00732,0.00976,0.00976,0.00488,0.00976,0.00488,0
-0.01464,0.02684,-0.03904,-0.03172,-0.0244,0.00488,0.01464,0,0.00488,0.00976,-0.00976,-0.00488
-0.01464,0.02928,-0.04392,-0.0366,-0.02928,0.00732,0.01464,0,0,0.00488,-0.00976,-0.00976
-0.02928,0.04148,-0.05368,-0.03904,-0.0244,-0.00244,0.00976,-0.00488,-0.00976,-0.00488,-0.01464,-0.00976
-0.02928,0.04392,-0.05856,-0.04392,-0.02928,0,0.00976,-0.00488,-0.00976,-0.00488,-0.01464,-0.01464
-0.02928,0.04148,-0.05368,-0.03904,-0.0244,-0.00244,0.01464,0.00488,-0.00488,0,-0.01464,-0.01464
-0.02928,0.04148,-0.05368,-0.03904,-0.0244,-0.00244,0.01464,0.00488,-0.00488,0,-0.01464,-0.01464
-0.02928,0.04148,-0.05368,-0.03904,-0.0244,-0.00244,0.01464,0,-0.00488,0,-0.00976,-0.01464
-0.03416,0.04392,-0.05368,-0.0366,-0.01952,-0.00732,0.01464,0,0,0,-0.00488,-0.01464
-0.03416,0.04392,-0.05368,-0.0366,-0.01952,-0.00732,0.01464,0.01464,0,0,-0.01464,-0.01464
-0.03416,0.04392,-0.05368,-0.0366,-0.01952,-0.00732,0.01952,0.01464,0,-0.00488,-0.01464,-0.01464
-0.0244,0.03904,-0.05368,-0.04148,-0.02928,0.00244,0.00976,0.01464,-0.00488,-0.00488,-0.01464,-0.00488
-0.01952,0.0366,-0.05368,-0.04392,-0.03416,0.00732,0.00976,0.01464,-0.00488,-0.00488,-0.00976,-0.00488
-0.00976,0.02684,-0.04392,-0.03904,-0.03416,0.0122,0.01952,0.01464,0,0.00488,-0.00488,-0.01464
-0.00976,0.02684,-0.04392,-0.03904,-0.03416,0.0122,0.01952,0.01464,0,0.00488,-0.00976,-0.01464
-0.01952,0.0366,-0.05368,-0.04392,-0.03416,0.00732,0.00976,0.01464,0,0.00488,-0.00976,-0.00488
-0.01952,0.0366,-0.05368,-0.04392,-0.03416,0.00732,0.00976,0.01464,-0.00488,0.00488,-0.00976,-0.00488
-0.00976,0.02684,-0.04392,-0.03904,-0.03416,0.0122,0.01952,0.01464,-0.00488,0,-0.00976,-0.00488
-0.00976,0.02684,-0.04392,-0.03904,-0.03416,0.0122,0.01952,0.01464,0,0,-0.00976,-0.00488
-0.00488,0.02196,-0.03904,-0.0366,-0.03416,0.01464,0.01464,0.01464,0,0,0,0
-0.00488,0.0244,-0.04392,-0.04148,-0.03904,0.01708,0.01464,0.01464,0,0,0,0
-0.01952,0.03416,-0.0488,-0.03904,-0.02928,0.00488,0.01464,0.01464,0,0.00976,0,0
-0.01464,0.03172,-0.0488,-0.04148,-0.03416,0.00976,0.01464,0.01464,0,0.00976,0.00488,-0.00488
-0.00488,0.02684,-0.0488,-0.04636,-0.04392,0.01952,0.00488,0.01952,0.00976,0.01464,-0.00488,0
0,0.0244,-0.0488,-0.0488,-0.0488,0.0244,0.00976,0.01952,0.00976,0.00976,-0.00488,0
-0.01464,0.03172,-0.0488,-0.04148,-0.03416,0.00976,0.00488,0.01464,0.00488,0.00976,-0.00488,0
-0.01464,0.03172,-0.0488,-0.04148,-0.03416,0.00976,0.00488,0.01464,0.00488,0.00976,0,0
-0.01952,0.03416,-0.0488,-0.03904,-0.02928,0.00488,0.00976,0.00488,0,0,0,0
-0.01464,0.03172,-0.0488,-0.04148,-0.03416,0.00976,0.00976,0.00488,-0.00488,0,-0.00488,0
-0.01464,0.02684,-0.03904,-0.03172,-0.0244,0.00488,0.00976,0,-0.00488,0,-0.01464,0
-0.01952,0.03172,-0.04392,-0.03416,-0.0244,0.00244,0.01464,0,-0.00488,0,-0.01464,0
-0.0244,0.0366,-0.0488,-0.0366,-0.0244,0,0.01464,0.00976,-0.00488,0,-0.00976,0
-0.01952,0.03416,-0.0488,-0.03904,-0.02928,0.00488,0.01464,0.00976,-0.00488,-0.00488,-0.00976,-0.00488
-0.01464,0.03172,-0.0488,-0.04148,-0.03416,0.00976,0.00488,0.00976,-0.00488,0,-0.00976,0.00488
-0.01464,0.03172,-0.0488,-0.04148,-0.03416,0.00976,0.00488,0.00976,-0.00488,0,-0.00976,0
-0.00488,0.02196,-0.03904,-0.0366,-0.03416,0.01464,0.01464,0.01464,-0.00488,-0.00976,-0.00488,-0.00976
-0.00488,0.02196,-0.03904,-0.0366,-0.03416,0.01464,0.01464,0.01464,-0.00976,-0.01464,-0.00976,-0.00976
-0.01464,0.03416,-0.05368,-0.04636,-0.03904,0.0122,0.01464,0.00488,-0.01952,-0.01464,-0.01952,-0.01952
-0.01952,0.0366,-0.05368,-0.04392,-0.03416,0.00732,0.01464,0,-0.0244,-0.01952,-0.0244,-0.01952
-0.01952,0.0366,-0.05368,-0.04392,-0.03416,0.00732,0.01952,0.00976,-0.01464,-0.01952,-0.01464,-0.01952
-0.01952,0.03904,-0.05856,-0.0488,-0.03904,0.00976,0.01464,0.00488,-0.01952,-0.0244,-0.01464,-0.00976
-0.01952,0.03904,-0.05856,-0.0488,-0.03904,0.00976,0.01464,0,-0.01952,-0.0244,-0.01464,-0.01464
-0.01952,0.03904,-0.05856,-0.0488,-0.03904,0.00976,0.01464,0,-0.01952,-0.0244,-0.01952,-0.01952
-0.03416,0.05368,-0.0732,-0.05612,-0.03904,0.00244,0.01464,0,-0.0244,-0.03416,-0.02928,-0.01952
-0.03416,0.0488,-0.06344,-0.04636,-0.02928,-0.00244,0.01464,0,-0.0244,-0.03416,-0.02928,-0.01952
-0.02928,0.0488,-0.06832,-0.05368,-0.03904,0.00488,0.01464,0,-0.03416,-0.0244,-0.01952,-0.01952
-0.0244,0.04636,-0.06832,-0.05612,-0.04392,0.00976,0.01464,0.00488,-0.03416,-0.02928,-0.0244,-0.01952
-0.0244,0.04148,-0.05856,-0.04636,-0.03416,0.00488,0.01464,0.00488,-0.03416,-0.02928,-0.0244,-0.01952
-0.0244,0.04392,-0.06344,-0.05124,-0.03904,0.00732,0.01464,0.00488,-0.03904,-0.02928,-0.0244,-0.01952
-0.0244,0.04392,-0.06344,-0.05124,-0.03904,0.00732,0.01464,0.00488,-0.03904,-0.04392,-0.03904,-0.0244
-0.0244,0.04392,-0.06344,-0.05124,-0.03904,0.00732,0.01952,0,-0.03904,-0.04392,-0.03904,-0.0244
-0.0244,0.03904,-0.05368,-0.04148,-0.02928,0.00244,0.01952,0,-0.03904,-0.03416,-0.03904,-0.0244
-0.0244,0.03904,-0.05368,-0.04148,-0.02928,0.00244,0.01952,0,-0.03904,-0.03416,-0.03904,-0.0244
-0.0244,0.03904,-0.05368,-0.04148,-0.02928,0.00244,0.01464,-0.01464,-0.03904,-0.03416,-0.03904,-0.03416
-0.02928,0.04392,-0.05856,-0.04392,-0.02928,0,0.01464,-0.01952,-0.04392,-0.03416,-0.03904,-0.03416
-0.03904,0.05368,-0.06832,-0.0488,-0.02928,-0.00488,0.01464,-0.01952,-0.04392,-0.03416,-0.04392,-0.03904
-0.04392,0.05612,-0.06832,-0.04636,-0.0244,-0.00976,0.01464,-0.01952,-0.04392,-0.03904,-0.04392,-0.03904
-0.03416,0.05124,-0.06832,-0.05124,-0.03416,0,0.01464,-0.00976,-0.03416,-0.03416,-0.04392,-0.02928
-0.02928,0.0488,-0.06832,-0.05368,-0.03904,0.00488,0.01464,-0.00488,-0.03416,-0.03416,-0.04392,-0.03416
-0.02928,0.04636,-0.06344,-0.0488,-0.03416,0.00244,0.01464,0,-0.04392,-0.03904,-0.03416,-0.02928
-0.03416,0.0488,-0.06344,-0.04636,-0.02928,-0.00244,0.01464,-0.00488,-0.04392,-0.03904,-0.03416,-0.02928
-0.03416,0.05124,-0.06832,-0.05124,-0.03416,0,0.01464,0,-0.03416,-0.03904,-0.03416,-0.02928
-0.03416,0.05368,-0.0732,-0.05612,-0.03904,0.00244,0.01952,-0.00488,-0.03416,-0.03904,-0.03416,-0.02928
-0.03416,0.05124,-0.06832,-0.05124,-0.03416,0,0.01952,-0.00976,-0.04392,-0.03904,-0.04392,-0.0244
-0.03416,0.05124,-0.06832,-0.05124,-0.03416,0,0.01952,-0.00976,-0.04392,-0.03904,-0.04392,-0.0244
-0.02928,0.04636,-0.06344,-0.0488,-0.03416,0.00244,0.01952,-0.00976,-0.04392,-0.04392,-0.04392,-0.03416
-0.02928,0.0488,-0.06832,-0.05368,-0.03904,0.00488,0.01464,-0.00976,-0.04392,-0.05368,-0.04392,-0.03416
-0.02928,0.0488,-0.06832,-0.05368,-0.03904,0.00488,0.01464,-0.00976,-0.04392,-0.04392,-0.04392,-0.03416
-0.02928,0.0488,-0.06832,-0.05368,-0.03904,0.00488,0.01952,-0.00976,-0.04392,-0.03904,-0.04392,-0.03416
-0.02928,0.04392,-0.05856,-0.04392,-0.02928,0,0.0244,-0.00976,-0.03904,-0.03904,-0.04392,-0.03416
-0.02928,0.04392,-0.05856,-0.04392,-0.02928,0,0.0244,-0.00976,-0.03904,-0.03904,-0.04392,-0.03416
-0.03904,0.05368,-0.06832,-0.0488,-0.02928,-0.00488,0.01464,-0.00488,-0.03904,-0.03904,-0.0488,-0.03416
-0.03904,0.05368,-0.06832,-0.0488,-0.02928,-0.00488,0.01952,-0.00488,-0.03416,-0.03904,-0.04392,-0.03416
-0.02928,0.05612,-0.08296,-0.06832,-0.05368,0.0122,0.01952,0,-0.03416,-0.03904,-0.04392,-0.02928
-0.03416,0.05856,-0.08296,-0.06588,-0.0488,0.00732,0.01952,0,-0.03416,-0.03904,-0.04392,-0.02928
-0.0244,0.04392,-0.06344,-0.05124,-0.03904,0.00732,0.01464,0,-0.03904,-0.03904,-0.04392,-0.03416
-0.02928,0.0488,-0.06832,-0.05368,-0.03904,0.00488,0.01952,-0.00976,-0.03904,-0.0488,-0.0488,-0.02928
-0.03904,0.05368,-0.06832,-0.0488,-0.02928,-0.00488,0.00976,-0.01952,-0.03904,-0.03904,-0.0488,-0.03904
-0.03904,0.05368,-0.06832,-0.0488,-0.02928,-0.00488,0.00976,-0.01952,-0.03904,-0.03904,-0.0488,-0.03904
-0.03904,0.05856,-0.07808,-0.05856,-0.03904,0,0.00976,-0.01952,-0.0488,-0.0488,-0.03904,-0.03904
-0.03904,0.05856,-0.07808,-0.05856,-0.03904,0,0.00976,-0.01952,-0.0488,-0.0488,-0.03904,-0.03904
-0.02928,0.0488,-0.06832,-0.05368,-0.03904,0.00488,0.00976,-0.00976,-0.03904,-0.0488,-0.03904,-0.02928
-0.02928,0.0488,-0.06832,-0.05368,-0.03904,0.00488,0.00976,-0.00976,-0.03904,-0.0488,-0.03904,-0.02928
-0.02928,0.0488,-0.06832,-0.05368,-0.03904,0.00488,0.00976,-0.00976,-0.03904,-0.0488,-0.03904,-0.02928
-0.02928,0.0488,-0.06832,-0.05368,-0.03904,0.00488,0.00976,-0.00976,-0.03904,-0.0488,-0.03904,-0.02928
-0.02928,0.0488,-0.06832,-0.05368,-0.03904,0.00488,0.00976,-0.00976,-0.03904,-0.03904,-0.0488,-0.02928
-0.02928,0.0488,-0.06832,-0.05368,-0.03904,0.00488,0.00976,-0.00976,-0.03904,-0.03904,-0.0488,-0.02928
-0.02928,0.0488,-0.06832,-0.05368,-0.03904,0.00488,0.01952,-0.00976,-0.0488,-0.03904,-0.0488,-0.03904
-0.02928,0.0488,-0.06832,-0.05368,-0.03904,0.00488,0.01952,-0.00976,-0.0488,-0.03904,-0.0488,-0.03904
-0.02928,0.0488,-0.06832,-0.05368,-0.03904,0.00488,0.00976,-0.01952,-0.0488,-0.0488,-0.0488,-0.03904
-0.02928,0.0488,-0.06832,-0.05368,-0.03904,0.00488,0.00976,-0.01952,-0.0488,-0.0488,-0.0488,-0.03904
-0.03904,0.05368,-0.06832,-0.0488,-0.02928,-0.00488,0.00976,-0.01952,-0.05856,-0.0488,-0.0488,-0.03904
-0.03904,0.05368,-0.06832,-0.0488,-0.02928,-0.00488,0.00976,-0.01952,-0.05856,-0.0488,-0.0488,-0.03904
-0.03904,0.05368,-0.06832,-0.0488,-0.02928,-0.00488,0.00976,-0.01952,-0.0488,-0.0488,-0.0488,-0.03904
-0.03904,0.05368,-0.06832,-0.0488,-0.02928,-0.00488,0.00976,-0.01952,-0.0488,-0.0488,-0.0488,-0.03904
-0.03904,0.05856,-0.07808,-0.05856,-0.03904,0,0.00976,-0.01952,-0.0488,-0.0488,-0.0488,-0.03904
-0.03904,0.05856,-0.07808,-0.05856,-0.03904,0,0.00976,-0.01952,-0.0488,-0.0488,-0.0488,-0.03904
-0.03904,0.05368,-0.06832,-0.0488,-0.02928,-0.00488,0.00976,-0.01952,-0.0488,-0.0488,-0.0488,-0.03904
-0.03904,0.05368,-0.06832,-0.0488,-0.02928,-0.00488,0.00976,-0.01952,-0.0488,-0.0488,-0.0488,-0.03904
-0.02928,0.0488,-0.06832,-0.05368,-0.03904,0.00488,0.01952,-0.01952,-0.0488,-0.03904,-0.0488,-0.03904
-0.02928,0.0488,-0.06832,-0.05368,-0.03904,0.00488,0.01952,-0.01952,-0.0488,-0.03904,-0.0488,-0.03904
-0.02928,0.05368,-0.07808,-0.06344,-0.0488,0.00976,0.01952,-0.01952,-0.0488,-0.0488,-0.0488,-0.03904
-0.02928,0.05368,-0.07808,-0.06344,-0.0488,0.00976,0.01952,-0.01952,-0.0488,-0.0488,-0.0488,-0.03904
-0.02928,0.0488,-0.06832,-0.05368,-0.03904,0.00488,0.01952,-0.01952,-0.0488,-0.0488,-0.0488,-0.03904
-0.02928,0.0488,-0.06832,-0.05368,-0.03904,0.00488,0.01952,-0.01952,-0.0488,-0.0488,-0.0488,-0.03904
-0.02928,0.0488,-0.06832,-0.05368,-0.03904,0.00488,0.01952,-0.01952,-0.0488,-0.0488,-0.0488,-0.03904
-0.02928,0.0488,-0.06832,-0.05368,-0.03904,0.00488,0.01952,-0.01952,-0.0488,-0.0488,-0.0488,-0.03904
-0.03904,0.05368,-0.06832,-0.0488,-0.02928,-0.00488,0.00976,-0.01952,-0.0488,-0.0488,-0.0488,-0.03904
-0.03904,0.05368,-0.06832,-0.0488,-0.02928,-0.00488,0.00976,-0.01952,-0.0488,-0.0488,-0.0488,-0.03904
-0.02928,0.0488,-0.06832,-0.05368,-0.03904,0.00488,0.01952,-0.00976,-0.0488,-0.0488,-0.0488,-0.03904
-0.02928,0.0488,-0.06832,-0.05368,-0.03904,0.00488,0.01952,-0.00976,-0.0488,-0.0488,-0.0488,-0.03904
-0.02928,0.0488,-0.06832,-0.05368,-0.03904,0.00488,0.01952,-0.00976,-0.0488,-0.03904,-0.03904,-0.03904
-0.02928,0.0488,-0.06832,-0.05368,-0.03904,0.00488,0.01952,-0.00976,-0.0488,-0.03904,-0.03904,-0.03904
-0.03904,0.05856,-0.07808,-0.05856,-0.03904,0,0.01952,-0.01952,-0.0488,-0.03904,-0.0488,-0.03904
-0.03904,0.05856,-0.07808,-0.05856,-0.03904,0,0.01952,-0.02928,-0.0488,-0.03904,-0.0488,-0.03904
-0.02928,0.0488,-0.06832,-0.05368,-0.03904,0.00488,0.01952,-0.01952,-0.0488,-0.03904,-0.0488,-0.03904
-0.02928,0.0488,-0.06832,-0.05368,-0.03904,0.00488,0.01952,-0.01952,-0.0488,-0.03904,-0.0488,-0.03904
-0.02928,0.04392,-0.05856,-0.04392,-0.02928,0,0.00976,-0.01952,-0.0488,-0.03904,-0.0488,-0.03904
-0.02928,0.04392,-0.05856,-0.04392,-0.02928,0,0.00976,-0.01952,-0.0488,-0.03904,-0.0488,-0.03904
-0.02928,0.0488,-0.06832,-0.05368,-0.03904,0.00488,0.00976,-0.01952,-0.0488,-0.03904,-0.0488,-0.03904
-0.02928,0.0488,-0.06832,-0.05368,-0.03904,0.00488,0.00976,-0.01952,-0.0488,-0.03904,-0.0488,-0.03904
-0.02928,0.0488,-0.06832,-0.05368,-0.03904,0.00488,0.01952,-0.00976,-0.0488,-0.02928,-0.0488,-0.03904
-0.02928,0.04636,-0.06344,-0.0488,-0.03416,0.00244,0.01952,-0.00976,-0.04392,-0.0244,-0.0488,-0.03416
-0.01952,0.03416,-0.0488,-0.03904,-0.02928,0.00488,0.01952,-0.00488,-0.03904,-0.0244,-0.04392,-0.03416
-0.01464,0.02684,-0.03904,-0.03172,-0.0244,0.00488,0.01952,-0.00488,-0.03416,-0.01952,-0.03416,-0.02928
-0.01952,0.02684,-0.03416,-0.0244,-0.01464,-0.00244,0.01952,-0.00488,-0.0244,-0.01464,-0.02928,-0.0244
-0.00976,0.02196,-0.03416,-0.02928,-0.0244,0.00732,0.00976,-0.00488,-0.01952,-0.01464,-0.0244,-0.01952
-0.00976,0.01708,-0.0244,-0.01952,-0.01464,0.00244,0.01464,-0.01464,-0.01464,-0.00976,-0.0244,-0.01464
-0.00976,0.0122,-0.01464,-0.00976,-0.00488,-0.00244,0.01464,-0.00976,-0.00488,0,-0.01952,-0.00976
-0.00976,0.01464,-0.01952,-0.01464,-0.00976,0,0.00976,0,0,0.01464,-0.00488,-0.00488
-0.00488,0.00976,-0.01464,-0.0122,-0.00976,0.00244,0,0,0,0.01464,0,-0.00488
0.00976,-0.00244,-0.00488,-0.00976,-0.01464,0.0122,-0.0244,-0.01464,0.00976,0.00976,0.00488,0.00488
0.01952,-0.01464,0.00976,0,-0.00976,0.01464,-0.05368,-0.06344,0,0.00976,0.00976,0.01464
0.03416,-0.03416,0.03416,0.01708,0,0.01708,-0.07808,-0.07808,-0.00976,0.00976,0.00976,0.0244
0.04392,-0.03416,0.0244,0.00244,-0.01952,0.03172,-0.08296,-0.07808,-0.0244,-0.00488,0.00976,0.0244
0.04392,-0.02196,0,-0.02196,-0.04392,0.04392,-0.08784,-0.0732,-0.03416,-0.01464,-0.01464,0.01464
0.04392,-0.01952,-0.00488,-0.02684,-0.0488,0.04636,-0.06832,-0.05856,-0.03904,-0.01464,-0.01464,0.01952
0.04392,-0.01952,-0.00488,-0.02684,-0.0488,0.04636,-0.06344,-0.05856,-0.03904,-0.00976,-0.01464,0.00976
0.04392,-0.01708,-0.00976,-0.03172,-0.05368,0.0488,-0.05368,-0.05368,-0.03904,-0.00976,-0.01464,0.00976
0.03904,-0.01952,0,-0.01952,-0.03904,0.03904,-0.0488,-0.05368,-0.03416,-0.00976,-0.01464,0.00976
0.02928,-0.00488,-0.01952,-0.03416,-0.0488,0.03904,-0.0244,-0.04392,-0.03416,-0.01464,-0.01464,0
0,0.01464,-0.02928,-0.02928,-0.02928,0.01464,-0.00976,-0.03904,-0.03416,-0.0244,-0.0244,-0.00976
-0.00976,0.0244,-0.03904,-0.03416,-0.02928,0.00976,-0.00488,-0.03904,-0.04392,-0.03904,-0.03904,-0.01464
-0.01464,0.0366,-0.05856,-0.05124,-0.04392,0.01464,0,-0.03904,-0.0488,-0.03416,-0.03904,-0.0244
-0.00976,0.03416,-0.05856,-0.05368,-0.0488,0.01952,0,-0.03416,-0.05368,-0.03904,-0.04392,-0.02928
-0.0244,0.04392,-0.06344,-0.05124,-0.03904,0.00732,0.00488,-0.01952,-0.04392,-0.02928,-0.04392,-0.02928
-0.0244,0.04392,-0.06344,-0.05124,-0.03904,0.00732,0.00976,-0.01952,-0.04392,-0.03904,-0.0488,-0.03904
-0.02928,0.05368,-0.07808,-0.06344,-0.0488,0.00976,0.00976,-0.01464,-0.05368,-0.04392,-0.0488,-0.03904
-0.02928,0.05612,-0.08296,-0.06832,-0.05368,0.0122,0.01464,-0.01464,-0.05856,-0.0488,-0.05368,-0.03904
-0.01952,0.0488,-0.07808,-0.06832,-0.05856,0.01952,0.0244,-0.01464,-0.0488,-0.03904,-0.05368,-0.03904
-0.01952,0.0488,-0.07808,-0.06832,-0.05856,0.01952,0.02928,-0.01464,-0.0488,-0.03904,-0.05368,-0.03904
-0.01952,0.0488,-0.07808,-0.06832,-0.05856,0.01952,0.0244,-0.01464,-0.05856,-0.0488,-0.05368,-0.03904
-0.0244,0.05124,-0.07808,-0.06588,-0.05368,0.01464,0.0244,-0.01464,-0.05368,-0.0488,-0.05856,-0.03904
-0.03416,0.05612,-0.07808,-0.061,-0.04392,0.00488,0.0244,-0.00976,-0.05856,-0.0488,-0.05368,-0.03904
-0.03416,0.05856,-0.08296,-0.06588,-0.0488,0.00732,0.0244,-0.00976,-0.05856,-0.0488,-0.05856,-0.03904
-0.0244,0.0488,-0.0732,-0.061,-0.0488,0.0122,0.03416,-0.00976,-0.0488,-0.05368,-0.05856,-0.04392
-0.0244,0.0488,-0.0732,-0.061,-0.0488,0.0122,0.03416,-0.00488,-0.04392,-0.0488,-0.05368,-0.04392
-0.0244,0.05368,-0.08296,-0.07076,-0.05856,0.01708,0.03416,-0.00488,-0.04392,-0.0488,-0.05368,-0.04392
-0.0244,0.05368,-0.08296,-0.07076,-0.05856,0.01708,0.03416,0,-0.04392,-0.04392,-0.05368,-0.04392
-0.03904,0.061,-0.08296,-0.06344,-0.04392,0.00244,0.03416,0,-0.04392,-0.04392,-0.05368,-0.04392
-0.03904,0.05856,-0.07808,-0.05856,-0.03904,0,0.03416,0,-0.04392,-0.04392,-0.05368,-0.03904
-0.0244,0.04636,-0.06832,-0.05612,-0.04392,0.00976,0.03416,0,-0.04392,-0.04392,-0.05368,-0.03904
-0.0244,0.0488,-0.0732,-0.061,-0.0488,0.0122,0.03904,0.00488,-0.04392,-0.04392,-0.05368,-0.03904
-0.0488,0.07076,-0.09272,-0.06832,-0.04392,-0.00244,0.05856,0.03904,-0.02928,-0.0488,-0.06832,-0.06344
-0.06344,0.07808,-0.09272,-0.061,-0.02928,-0.01708,0.09272,0.07808,0,-0.03904,-0.08296,-0.08784
-0.06832,0.06588,-0.06344,-0.02928,0.00488,-0.0366,0.10248,0.0976,0.06344,0.03416,-0.03904,-0.0732
-0.0244,0.01464,-0.00488,0.00732,0.01952,-0.02196,0.09272,0.12688,0.15128,0.1464,0.05856,-0.01952
0.12688,-0.08784,0.0488,-0.01464,-0.07808,0.10248,0.0488,0.18544,0.21472,0.26352,0.19032,0.10248
0.3416,-0.23668,0.13176,-0.03904,-0.20984,0.27572,-0.03416,0.20496,0.27328,0.41968,0.40016,0.29768
0.57584,-0.42212,0.2684,-0.01952,-0.30744,0.44164,-0.20008,0.07808,0.28304,0.57096,0.66856,0.57584
0.81984,-0.62952,0.4392,0.02928,-0.38064,0.60024,-0.42456,-0.13664,0.24888,0.72224,0.95648,0.90768
0.96136,-0.76372,0.56608,0.0854,-0.39528,0.67832,-0.62464,-0.40504,0.13176,0.76616,1.14192,1.1468
0.9516,-0.74664,0.54168,0.06588,-0.40992,0.68076,-0.70272,-0.59536,-0.08296,0.54656,0.99064,1.14192
0.66856,-0.50752,0.34648,0.0122,-0.32208,0.49532,-0.57584,-0.61976,-0.3416,0.122,0.5124,0.81984
0.2928,-0.24644,0.20008,0.05368,-0.09272,0.19276,-0.40016,-0.60024,-0.47824,-0.20496,0.122,0.44408
0.06832,-0.05612,0.04392,0.00976,-0.0244,0.04636,-0.26352,-0.55144,-0.60512,-0.48312,-0.20008,0.15128
-0.01952,0.03904,-0.05856,-0.0488,-0.03904,0.00976,-0.1708,-0.45872,-0.60512,-0.5368,-0.2928,0.01464
-0.06344,0.09516,-0.12688,-0.09516,-0.06344,0,-0.0732,-0.31232,-0.488,-0.4392,-0.28304,-0.06344
-0.05856,0.10004,-0.14152,-0.11224,-0.08296,0.0122,0.03904,-0.12688,-0.31232,-0.28792,-0.20496,-0.08296
-0.00976,0.05124,-0.09272,-0.08784,-0.08296,0.0366,0.03416,-0.03416,-0.1708,-0.1464,-0.10248,-0.03904
0.01464,0.0244,-0.06344,-0.07076,-0.07808,0.04636,0.01464,0,-0.0976,-0.07808,-0.06344,-0.01952
0.00976,0.0244,-0.05856,-0.06344,-0.06832,0.03904,0.01464,0.00976,-0.05856,-0.0488,-0.03904,-0.00488
-0.00976,0.03416,-0.05856,-0.05368,-0.0488,0.01952,0.02928,0.01464,-0.04392,-0.03904,-0.0488,-0.01952
-0.01952,0.04148,-0.06344,-0.05368,-0.04392,0.0122,0.04392,0.03416,-0.04392,-0.03904,-0.05368,-0.02928
-0.0244,0.04392,-0.06344,-0.05124,-0.03904,0.00732,0.04392,0.03416,-0.04392,-0.03904,-0.05856,-0.03416
-0.01464,0.03416,-0.05368,-0.04636,-0.03904,0.0122,0.04392,0.0488,-0.02928,-0.03416,-0.0488,-0.02928
-0.01952,0.03904,-0.05856,-0.0488,-0.03904,0.00976,0.04392,0.0488,-0.01952,-0.03416,-0.0488,-0.02928
-0.01952,0.04392,-0.06832,-0.05856,-0.0488,0.01464,0.05368,0.05368,-0.0244,-0.02928,-0.04392,-0.03904
-0.01464,0.04148,-0.06832,-0.061,-0.05368,0.01952,0.05856,0.05368,-0.01952,-0.0244,-0.04392,-0.03904
-0.01464,0.03416,-0.05368,-0.04636,-0.03904,0.0122,0.0488,0.05368,-0.00976,-0.0244,-0.04392,-0.03904
-0.01464,0.03416,-0.05368,-0.04636,-0.03904,0.0122,0.0488,0.05856,-0.00488,-0.01952,-0.04392,-0.03904
-0.01464,0.03416,-0.05368,-0.04636,-0.03904,0.0122,0.05368,0.0488,0,-0.01464,-0.04392,-0.03904
-0.00976,0.02684,-0.04392,-0.03904,-0.03416,0.0122,0.05368,0.04392,0,-0.01464,-0.04392,-0.03904
-0.01464,0.0366,-0.05856,-0.05124,-0.04392,0.01464,0.04392,0.0488,-0.00488,-0.00976,-0.03904,-0.03904
-0.01464,0.0366,-0.05856,-0.05124,-0.04392,0.01464,0.04392,0.0488,-0.00488,-0.00488,-0.03904,-0.03416
-0.00976,0.03172,-0.05368,-0.0488,-0.04392,0.01708,0.04392,0.05856,0,-0.01464,-0.0488,-0.03416
-0.00976,0.03172,-0.05368,-0.0488,-0.04392,0.01708,0.0488,0.06344,0,-0.01464,-0.04392,-0.03416
-0.01952,0.0366,-0.05368,-0.04392,-0.03416,0.00732,0.05856,0.06832,0.00488,-0.00488,-0.03416,-0.03416
-0.01952,0.0366,-0.05368,-0.04392,-0.03416,0.00732,0.05368,0.06832,0.00488,0.00976,-0.03416,-0.03416
-0.01952,0.0366,-0.05368,-0.04392,-0.03416,0.00732,0.05368,0.06832,0.00488,0,-0.02928,-0.03416
-0.01952,0.0366,-0.05368,-0.04392,-0.03416,0.00732,0.05856,0.0732,0.00488,0,-0.02928,-0.03416
-0.00488,0.0244,-0.04392,-0.04148,-0.03904,0.01708,0.0488,0.0732,0.00976,0.00488,-0.0244,-0.03416
-0.00488,0.0244,-0.04392,-0.04148,-0.03904,0.01708,0.0488,0.0732,0.00976,0.00488,-0.0244,-0.03416
0,0.01708,-0.03416,-0.03416,-0.03416,0.01708,0.04392,0.05856,0.00976,0.00488,-0.0244,-0.03416
0,0.01708,-0.03416,-0.03416,-0.03416,0.01708,0.04392,0.05856,0.00976,0.00488,-0.0244,-0.03416
-0.00488,0.0244,-0.04392,-0.04148,-0.03904,0.01708,0.04392,0.05856,0.00976,0.00976,-0.03416,-0.03416
-0.00488,0.02196,-0.03904,-0.0366,-0.03416,0.01464,0.03904,0.06344,0.00976,0.00976,-0.02928,-0.02928
0.00488,0.0122,-0.02928,-0.03172,-0.03416,0.01952,0.0488,0.06344,0.0244,0.0244,-0.01952,-0.02928
0.00976,0.00732,-0.0244,-0.02928,-0.03416,0.02196,0.0488,0.06344,0.0244,0.0244,-0.01464,-0.0244
0.00976,0.00732,-0.0244,-0.02928,-0.03416,0.02196,0.0488,0.07808,0.02928,0.02928,-0.01464,-0.0244
0.00976,0.00732,-0.0244,-0.02928,-0.03416,0.02196,0.0488,0.07808,0.02928,0.03416,-0.01464,-0.0244
0.00976,0.0122,-0.03416,-0.03904,-0.04392,0.02684,0.0488,0.07808,0.03416,0.03416,-0.00976,-0.0244
0.01464,0.00732,-0.02928,-0.0366,-0.04392,0.02928,0.0488,0.08296,0.03416,0.03904,-0.00488,-0.01952
0.01464,0.00244,-0.01952,-0.02684,-0.03416,0.0244,0.0488,0.08296,0.03904,0.04392,-0.00488,-0.01952
0.01952,0,-0.01952,-0.02928,-0.03904,0.02928,0.04392,0.08296,0.04392,0.04392,0,-0.01464
0.01952,-0.00244,-0.01464,-0.0244,-0.03416,0.02684,0.02928,0.08296,0.04392,0.03904,0,-0.01952
0.01952,-0.00244,-0.01464,-0.0244,-0.03416,0.02684,0.02928,0.08296,0.0488,0.04392,0.00488,-0.01464
0.00976,0.00732,-0.0244,-0.02928,-0.03416,0.02196,0.02928,0.08296,0.03904,0.04392,-0.00488,-0.01464
0.01952,0,-0.01952,-0.02928,-0.03904,0.02928,0.02928,0.08784,0.04392,0.0488,0.00488,-0.00976
0.02928,-0.00976,-0.00976,-0.0244,-0.03904,0.03416,0.02928,0.08296,0.0488,0.05368,0.00976,0
0.03416,-0.01708,0,-0.01708,-0.03416,0.03416,0.02928,0.08296,0.05368,0.05856,0.00976,0.00488
0.0244,-0.0122,0,-0.0122,-0.0244,0.0244,0.02928,0.08784,0.06344,0.06344,0.02928,0.00488
0.02928,-0.01464,0,-0.01464,-0.02928,0.02928,0.02928,0.09272,0.0732,0.06832,0.02928,0.00976
0.04392,-0.0244,0.00488,-0.01708,-0.03904,0.04148,0.03904,0.10736,0.08296,0.08296,0.03416,0.01464
0.0488,-0.02928,0.00976,-0.01464,-0.03904,0.04392,0.03416,0.11224,0.08784,0.08784,0.03904,0.01952
0.05368,-0.03416,0.01464,-0.0122,-0.03904,0.04636,0.03416,0.11224,0.08296,0.08296,0.04392,0.0244
0.05856,-0.03904,0.01952,-0.00976,-0.03904,0.0488,0.02928,0.11712,0.08296,0.09272,0.0488,0.0244
0.06344,-0.04148,0.01952,-0.0122,-0.04392,0.05368,0.02928,0.11712,0.0976,0.10736,0.05368,0.02928
0.06832,-0.0488,0.02928,-0.00488,-0.03904,0.05368,0.0244,0.122,0.10248,0.11224,0.06832,0.03904
0.05856,-0.04148,0.0244,-0.00488,-0.03416,0.04636,0.01464,0.122,0.10248,0.11224,0.0732,0.0488
0.0732,-0.05368,0.03416,-0.00244,-0.03904,0.05612,0.01464,0.12688,0.10736,0.122,0.08296,0.05368
0.08296,-0.06344,0.04392,0.00244,-0.03904,0.061,0.00976,0.13176,0.11712,0.13176,0.08296,0.06344
0.08784,-0.07076,0.05368,0.00976,-0.03416,0.061,0.00488,0.14152,0.12688,0.14152,0.0976,0.0732
0.08784,-0.07564,0.06344,0.01952,-0.0244,0.05612,0.01464,0.1464,0.14152,0.15128,0.11712,0.08296
0.10248,-0.08784,0.0732,0.02196,-0.02928,0.06588,0.00976,0.15616,0.15128,0.16104,0.13176,0.08784
0.11224,-0.09272,0.0732,0.01708,-0.03904,0.07564,0.00488,0.16104,0.16104,0.18056,0.13176,0.0976
0.122,-0.10492,0.08784,0.02684,-0.03416,0.07808,-0.00488,0.16104,0.16592,0.19032,0.13664,0.10736
0.14152,-0.122,0.10248,0.03172,-0.03904,0.09028,-0.00488,0.17568,0.16592,0.20008,0.1464,0.11712
0.15616,-0.14152,0.12688,0.0488,-0.02928,0.09272,-0.01464,0.18544,0.17568,0.21472,0.16104,0.12688
0.16104,-0.1464,0.13176,0.05124,-0.02928,0.09516,-0.01952,0.17568,0.1952,0.23424,0.18544,0.1464
0.17568,-0.1586,0.14152,0.05368,-0.03416,0.10492,-0.0244,0.18056,0.20496,0.23912,0.20008,0.15616
0.18544,-0.17324,0.16104,0.06832,-0.0244,0.10492,-0.03416,0.18056,0.20984,0.25376,0.20984,0.18056
0.20984,-0.19032,0.1708,0.06588,-0.03904,0.12444,-0.03904,0.18056,0.2196,0.26352,0.22448,0.1952
0.21472,-0.20008,0.18544,0.07808,-0.02928,0.122,-0.05856,0.18056,0.22936,0.27816,0.22936,0.20496
0.22936,-0.21228,0.1952,0.08052,-0.03416,0.13176,-0.06832,0.18056,0.23912,0.28792,0.244,0.2196
0.22936,-0.21472,0.20008,0.0854,-0.02928,0.12932,-0.06344,0.18544,0.244,0.30256,0.2684,0.23912
0.244,-0.22692,0.20984,0.08784,-0.03416,0.13908,-0.06832,0.18544,0.25376,0.31232,0.28304,0.25376
0.25864,-0.24156,0.22448,0.09516,-0.03416,0.1464,-0.0732,0.1952,0.25376,0.3172,0.2928,0.2684
0.2684,-0.25132,0.23424,0.10004,-0.03416,0.15128,-0.08296,0.18544,0.26352,0.32696,0.30744,0.28304
0.28792,-0.26352,0.23912,0.09516,-0.0488,0.16836,-0.09272,0.18056,0.27328,0.3416,0.3172,0.2928
0.29768,-0.27572,0.25376,0.10492,-0.04392,0.1708,-0.10248,0.1708,0.27328,0.34648,0.32696,0.30256
0.29768,-0.27572,0.25376,0.10492,-0.04392,0.1708,-0.10736,0.15616,0.26352,0.33672,0.33184,0.30744
0.30256,-0.2806,0.25864,0.10736,-0.04392,0.17324,-0.11712,0.14152,0.25376,0.33672,0.33184,0.31232
0.3172,-0.28792,0.25864,0.10004,-0.05856,0.18788,-0.12688,0.122,0.24888,0.33672,0.33672,0.32696
0.3172,-0.28548,0.25376,0.09516,-0.06344,0.19032,-0.12688,0.10248,0.244,0.32696,0.33672,0.32696
0.30256,-0.27816,0.25376,0.10248,-0.0488,0.17568,-0.12688,0.08784,0.23424,0.3172,0.32208,0.32208
0.28792,-0.26596,0.244,0.10004,-0.04392,0.16592,-0.12688,0.07808,0.22448,0.30744,0.3172,0.31232
0.25864,-0.24156,0.22448,0.09516,-0.03416,0.1464,-0.122,0.06832,0.21472,0.29768,0.29768,0.2928
0.23912,-0.22204,0.20496,0.0854,-0.03416,0.13664,-0.10736,0.05368,0.20008,0.27816,0.27328,0.27328
0.2196,-0.20008,0.18056,0.07076,-0.03904,0.12932,-0.0976,0.04392,0.18056,0.25864,0.25864,0.23912
0.19032,-0.17812,0.16592,0.07076,-0.0244,0.10736,-0.08784,0.03416,0.16592,0.22936,0.22936,0.21472
0.16104,-0.14884,0.13664,0.05612,-0.0244,0.09272,-0.07808,0.03416,0.1464,0.20008,0.20496,0.18544
0.13176,-0.12688,0.122,0.05612,-0.00976,0.07076,-0.06344,0.02928,0.13176,0.16592,0.17568,0.15616
0.0976,-0.09272,0.08784,0.03904,-0.00976,0.05368,-0.05368,0.01464,0.10736,0.13176,0.14152,0.12688
0.0732,-0.07076,0.06832,0.03172,-0.00488,0.03904,-0.03904,0.00976,0.08784,0.11224,0.11224,0.10248
0.0732,-0.06588,0.05856,0.02196,-0.01464,0.04392,-0.03416,0,0.0732,0.09272,0.08784,0.08296
0.05368,-0.05124,0.0488,0.02196,-0.00488,0.02928,-0.0244,0,0.06344,0.07808,0.0732,0.06832
0.03416,-0.03172,0.02928,0.0122,-0.00488,0.01952,-0.02928,-0.00488,0.04392,0.05856,0.04392,0.0488
0.01464,-0.0122,0.00976,0.00244,-0.00488,0.00976,-0.01952,-0.00488,0.03416,0.04392,0.03416,0.03416
0.00976,-0.00244,-0.00488,-0.00976,-0.01464,0.0122,-0.00488,0.00488,0.03416,0.03416,0.0244,0.0244
0.00488,0.00488,-0.01464,-0.01708,-0.01952,0.0122,0.00488,0.00488,0.02928,0.02928,0.01464,0.01952
0,0.00488,-0.00976,-0.00976,-0.00976,0.00488,0.00488,0.00488,0.01952,0.02928,0.01464,0.00976
-0.00488,0.00976,-0.01464,-0.0122,-0.00976,0.00244,0.01464,0.00976,0.01464,0.0244,0.00976,0.00488
-0.00488,0.01708,-0.02928,-0.02684,-0.0244,0.00976,0.01952,0.00976,0.01464,0.01464,0,0
-0.00976,0.01952,-0.02928,-0.0244,-0.01952,0.00488,0.01952,0.00976,0.00976,0.00976,-0.00488,-0.00488
0,0.0122,-0.0244,-0.0244,-0.0244,0.0122,0.01952,0.00976,0.00488,0,-0.00488,-0.00976
-0.00488,0.01708,-0.02928,-0.02684,-0.0244,0.00976,0.01952,0.00976,0.00488,0,-0.00976,-0.00976
