i,aVR,ii,aVF,iii,aVL,V1,V2,V3,V4,V5,V6
0,0.08296,-0.16592,-0.16592,-0.16592,0.08296,0.07808,0.26352,0.2928,0.08784,0.12688,-0.41968
0,0.0854,-0.1708,-0.1708,-0.1708,0.0854,0.07808,0.26352,0.2928,0.08784,0.12688,-0.4148
0,0.0854,-0.1708,-0.1708,-0.1708,0.0854,0.07808,0.26352,0.2928,0.08784,0.12688,-0.40992
-0.00488,0.09028,-0.17568,-0.17324,-0.1708,0.08296,0.07808,0.2684,0.2928,0.09272,0.12688,-0.40992
-0.00488,0.09272,-0.18056,-0.17812,-0.17568,0.0854,0.08296,0.2684,0.2928,0.09272,0.13176,-0.40992
0.00488,0.0854,-0.17568,-0.17812,-0.18056,0.09272,0.08784,0.28304,0.30744,0.0976,0.13176,-0.40992
0.00976,0.08296,-0.17568,-0.18056,-0.18544,0.0976,0.09272,0.29768,0.31232,0.0976,0.13176,-0.40992
0.04392,0.061,-0.16592,-0.18788,-0.20984,0.12688,0.0976,0.30256,0.3172,0.0976,0.13176,-0.40504
0.05368,0.0488,-0.15128,-0.17812,-0.20496,0.12932,0.0976,0.30744,0.3172,0.0976,0.13176,-0.40504
0.06344,0.04392,-0.15128,-0.183,-0.21472,0.13908,0.09272,0.30256,0.3172,0.09272,0.122,-0.40504
0.06832,0.05124,-0.1708,-0.20496,-0.23912,0.15372,0.07808,0.29768,0.3172,0.08296,0.11712,-0.40992
0.06344,0.05612,-0.17568,-0.2074,-0.23912,0.15128,0.0732,0.29768,0.30744,0.07808,0.10736,-0.40992
0.05856,0.05612,-0.1708,-0.20008,-0.22936,0.14396,0.05856,0.28792,0.29768,0.0732,0.10736,-0.40992
0.06832,0.05124,-0.1708,-0.20496,-0.23912,0.15372,0.03904,0.27816,0.2928,0.06832,0.10736,-0.40992
0.05856,0.05368,-0.16592,-0.1952,-0.22448,0.14152,0.01952,0.25864,0.27816,0.06832,0.11224,-0.40992
0.05856,0.0488,-0.15616,-0.18544,-0.21472,0.13664,0.00488,0.244,0.27328,0.06832,0.10736,-0.40504
0.0488,0.05856,-0.16592,-0.19032,-0.21472,0.13176,0.00488,0.23912,0.27328,0.06832,0.10248,-0.40016
0.04392,0.061,-0.16592,-0.18788,-0.20984,0.12688,0.00488,0.244,0.2684,0.06344,0.0976,-0.39528
0.03904,0.06588,-0.1708,-0.19032,-0.20984,0.12444,0.00488,0.24888,0.26352,0.06344,0.0976,-0.40016
0.03904,0.06832,-0.17568,-0.1952,-0.21472,0.12688,0.01464,0.23912,0.25864,0.05368,0.0976,-0.40016
0.03416,0.07076,-0.17568,-0.19276,-0.20984,0.122,0.01952,0.23912,0.25864,0.05368,0.10248,-0.40016
0.03416,0.06588,-0.16592,-0.183,-0.20008,0.11712,0.01952,0.23912,0.26352,0.05856,0.10248,-0.39528
0.01952,0.07076,-0.16104,-0.1708,-0.18056,0.10004,0.0244,0.244,0.26352,0.05856,0.10248,-0.3904
0.00976,0.07564,-0.16104,-0.16592,-0.1708,0.09028,0.03416,0.244,0.26352,0.05856,0.0976,-0.38552
-0.00488,0.08296,-0.16104,-0.1586,-0.15616,0.07564,0.03904,0.244,0.26352,0.05856,0.09272,-0.38552
-0.00488,0.0854,-0.16592,-0.16348,-0.16104,0.07808,0.03416,0.244,0.26352,0.05368,0.09272,-0.3904
-0.01952,0.09272,-0.16592,-0.15616,-0.1464,0.06344,0.02928,0.23424,0.25376,0.04392,0.08784,-0.39528
0,0.08296,-0.16592,-0.16592,-0.16592,0.08296,0.0244,0.22936,0.24888,0.04392,0.08296,-0.40016
0.00488,0.08052,-0.16592,-0.16836,-0.1708,0.08784,0.01464,0.22936,0.244,0.03904,0.07808,-0.40016
0.00488,0.08296,-0.1708,-0.17324,-0.17568,0.09028,0.01464,0.22448,0.244,0.03416,0.0732,-0.40016
0.00488,0.0854,-0.17568,-0.17812,-0.18056,0.09272,0.01464,0.22448,0.244,0.02928,0.0732,-0.40016
-0.00976,0.0976,-0.18544,-0.18056,-0.17568,0.08296,0.01464,0.22448,0.244,0.02928,0.0732,-0.39528
-0.0244,0.10736,-0.19032,-0.17812,-0.16592,0.07076,0.01464,0.22448,0.244,0.02928,0.0732,-0.39528
-0.0244,0.10248,-0.18056,-0.16836,-0.15616,0.06588,0.01464,0.22448,0.24888,0.03416,0.07808,-0.38552
-0.00488,0.0854,-0.16592,-0.16348,-0.16104,0.07808,0.01464,0.22448,0.24888,0.03416,0.07808,-0.38064
-0.00488,0.0854,-0.16592,-0.16348,-0.16104,0.07808,0.00976,0.22448,0.24888,0.03416,0.07808,-0.38064
-0.00488,0.0854,-0.16592,-0.16348,-0.16104,0.07808,0.00976,0.22448,0.24888,0.03416,0.07808,-0.37576
-0.01464,0.09028,-0.16592,-0.1586,-0.15128,0.06832,0.01952,0.22448,0.24888,0.02928,0.06832,-0.37576
-0.01464,0.09028,-0.16592,-0.1586,-0.15128,0.06832,0.0244,0.22448,0.244,0.02928,0.07808,-0.37576
-0.0244,0.09028,-0.15616,-0.14396,-0.13176,0.05368,0.01952,0.22448,0.244,0.02928,0.07808,-0.366
-0.02928,0.09028,-0.15128,-0.13664,-0.122,0.04636,0.01952,0.22448,0.244,0.02928,0.07808,-0.36112
-0.00976,0.07564,-0.14152,-0.13664,-0.13176,0.061,0.00976,0.22448,0.25376,0.03904,0.08296,-0.35624
0,0.06588,-0.13176,-0.13176,-0.13176,0.06588,0.00976,0.22448,0.26352,0.05368,0.08784,-0.35624
-0.00488,0.04636,-0.08784,-0.0854,-0.08296,0.03904,0.00976,0.2196,0.27328,0.08296,0.11712,-0.32208
-0.00488,0,0.00488,0.00732,0.00976,-0.00732,0.00976,0.21472,0.30744,0.1464,0.17568,-0.2684
0.03904,-0.07564,0.11224,0.09272,0.0732,-0.01708,-0.0488,0.1952,0.32208,0.20984,0.23912,-0.20984
0.13664,-0.1586,0.18056,0.11224,0.04392,0.04636,-0.20496,0.10736,0.31232,0.24888,0.2928,-0.16104
0.27328,-0.26596,0.25864,0.122,-0.01464,0.14396,-0.4148,0.00488,0.28792,0.28304,0.32696,-0.0976
0.41968,-0.38308,0.34648,0.13664,-0.0732,0.24644,-0.65392,-0.12688,0.23912,0.32208,0.38064,-0.0244
0.53192,-0.46116,0.3904,0.12444,-0.14152,0.33672,-0.9272,-0.27816,0.14152,0.28792,0.3904,0.01464
0.66368,-0.58316,0.50264,0.1708,-0.16104,0.41236,-1.21024,-0.42944,0.03904,0.2684,0.42944,0.08784
0.80032,-0.62708,0.45384,0.05368,-0.34648,0.5734,-1.45424,-0.5856,-0.16104,0.09272,0.33672,0.0488
0.88816,-0.488,0.08784,-0.35624,-0.80032,0.84424,-1.54208,-0.64416,-0.38552,-0.27328,0.05856,-0.16104
0.86376,-0.4026,-0.05856,-0.49044,-0.92232,0.89304,-1.54696,-0.69784,-0.50264,-0.41968,-0.0732,-0.25864
0.77592,-0.32452,-0.12688,-0.51484,-0.9028,0.83936,-1.41032,-0.71248,-0.5368,-0.44408,-0.11712,-0.29768
0.63928,-0.25132,-0.13664,-0.45628,-0.77592,0.7076,-1.25416,-0.70272,-0.5368,-0.42944,-0.11224,-0.30744
0.45384,-0.14152,-0.1708,-0.39772,-0.62464,0.53924,-0.98088,-0.62952,-0.48312,-0.3904,-0.10248,-0.32208
0.31232,-0.08784,-0.13664,-0.2928,-0.44896,0.38064,-0.6832,-0.43432,-0.29768,-0.25864,-0.02928,-0.28792
0.25864,-0.05612,-0.1464,-0.27572,-0.40504,0.33184,-0.49776,-0.20496,-0.11224,-0.1708,-0.00488,-0.28304
0.20496,-0.02928,-0.1464,-0.24888,-0.35136,0.27816,-0.37576,-0.0732,0.00488,-0.11712,0.01952,-0.28792
0.13176,0.00244,-0.13664,-0.20252,-0.2684,0.20008,-0.24888,0,0.06832,-0.0732,0.05368,-0.2928
0.0732,0.03172,-0.13664,-0.17324,-0.20984,0.14152,-0.14152,0.07808,0.12688,-0.03416,0.05856,-0.31232
0.0488,0.05124,-0.15128,-0.17568,-0.20008,0.12444,-0.08296,0.16104,0.18544,-0.00976,0.05368,-0.33184
0.01952,0.07808,-0.17568,-0.18544,-0.1952,0.10736,-0.0244,0.23424,0.23912,0.01464,0.05856,-0.35136
-0.02928,0.122,-0.21472,-0.20008,-0.18544,0.07808,0.04392,0.25376,0.25376,0.01464,0.05368,-0.37088
-0.03416,0.12932,-0.22448,-0.2074,-0.19032,0.07808,0.0732,0.25864,0.25376,0.01464,0.05368,-0.38552
-0.03904,0.13664,-0.23424,-0.21472,-0.1952,0.07808,0.07808,0.28792,0.25864,0.01464,0.04392,-0.39528
-0.03904,0.13664,-0.23424,-0.21472,-0.1952,0.07808,0.07808,0.30744,0.2684,0.01464,0.0488,-0.40016
-0.03904,0.13664,-0.23424,-0.21472,-0.1952,0.07808,0.08784,0.30744,0.27328,0.01952,0.05368,-0.40016
-0.04392,0.1342,-0.22448,-0.20252,-0.18056,0.06832,0.09272,0.31232,0.27328,0.01952,0.05368,-0.40016
-0.03904,0.12444,-0.20984,-0.19032,-0.1708,0.06588,0.10248,0.3172,0.28304,0.02928,0.05856,-0.40016
-0.03904,0.1342,-0.22936,-0.20984,-0.19032,0.07564,0.0976,0.3172,0.28792,0.0244,0.05368,-0.40016
-0.04392,0.13664,-0.22936,-0.2074,-0.18544,0.07076,0.0976,0.3172,0.2928,0.02928,0.05368,-0.40016
-0.04392,0.13664,-0.22936,-0.2074,-0.18544,0.07076,0.10248,0.3172,0.2928,0.02928,0.05368,-0.40504
-0.04392,0.13908,-0.23424,-0.21228,-0.19032,0.0732,0.10248,0.32208,0.2928,0.02928,0.05368,-0.40504
-0.04392,0.13908,-0.23424,-0.21228,-0.19032,0.0732,0.11224,0.32208,0.30256,0.03904,0.05856,-0.40504
-0.04392,0.14152,-0.23912,-0.21716,-0.1952,0.07564,0.11712,0.32208,0.30744,0.04392,0.06832,-0.40504
-0.0488,0.14396,-0.23912,-0.21472,-0.19032,0.07076,0.122,0.32696,0.31232,0.04392,0.06832,-0.40504
-0.05368,0.1464,-0.23912,-0.21228,-0.18544,0.06588,0.122,0.33184,0.31232,0.0488,0.06832,-0.40504
-0.05856,0.14884,-0.23912,-0.20984,-0.18056,0.061,0.122,0.33184,0.3172,0.04392,0.06344,-0.40504
-0.06344,0.15128,-0.23912,-0.2074,-0.17568,0.05612,0.12688,0.33672,0.3172,0.04392,0.06344,-0.40504
-0.06344,0.15128,-0.23912,-0.2074,-0.17568,0.05612,0.12688,0.33672,0.3172,0.04392,0.06832,-0.40504
-0.06344,0.15128,-0.23912,-0.2074,-0.17568,0.05612,0.12688,0.3416,0.32208,0.04392,0.06832,-0.40504
-0.06344,0.15128,-0.23912,-0.2074,-0.17568,0.05612,0.12688,0.3416,0.32208,0.04392,0.06832,-0.40504
-0.06344,0.15372,-0.244,-0.21228,-0.18056,0.05856,0.12688,0.34648,0.32208,0.04392,0.06832,-0.40504
-0.05856,0.14884,-0.23912,-0.20984,-0.18056,0.061,0.13176,0.36112,0.32696,0.04392,0.06832,-0.40504
-0.05368,0.14396,-0.23424,-0.2074,-0.18056,0.06344,0.13176,0.37088,0.33184,0.04392,0.06832,-0.40016
-0.0488,0.14152,-0.23424,-0.20984,-0.18544,0.06832,0.13176,0.37576,0.33184,0.04392,0.06832,-0.40016
-0.04392,0.14396,-0.244,-0.22204,-0.20008,0.07808,0.13176,0.38064,0.32696,0.04392,0.06832,-0.40504
-0.03904,0.14396,-0.24888,-0.22936,-0.20984,0.0854,0.12688,0.37576,0.32696,0.04392,0.06832,-0.4148
-0.03416,0.1464,-0.25864,-0.24156,-0.22448,0.09516,0.12688,0.37576,0.32696,0.04392,0.06344,-0.41968
-0.02928,0.14396,-0.25864,-0.244,-0.22936,0.10004,0.12688,0.37576,0.33184,0.04392,0.06344,-0.42456
-0.0244,0.14152,-0.25864,-0.24644,-0.23424,0.10492,0.12688,0.38064,0.33184,0.04392,0.06344,-0.42456
-0.01952,0.13664,-0.25376,-0.244,-0.23424,0.10736,0.13176,0.38064,0.3416,0.04392,0.06344,-0.42944
-0.01952,0.1342,-0.24888,-0.23912,-0.22936,0.10492,0.13176,0.38064,0.34648,0.04392,0.06344,-0.42944
-0.02928,0.13664,-0.244,-0.22936,-0.21472,0.09272,0.14152,0.38552,0.35136,0.04392,0.06344,-0.42944
-0.0488,0.1464,-0.244,-0.2196,-0.1952,0.0732,0.1464,0.39528,0.35624,0.04392,0.06344,-0.42944
-0.0488,0.14884,-0.24888,-0.22448,-0.20008,0.07564,0.15616,0.40016,0.366,0.0488,0.06344,-0.43432
-0.0488,0.15128,-0.25376,-0.22936,-0.20496,0.07808,0.16104,0.40504,0.37576,0.05368,0.05856,-0.4392
-0.03416,0.13908,-0.244,-0.22692,-0.20984,0.08784,0.16104,0.4148,0.37576,0.0488,0.06344,-0.44408
-0.02928,0.13176,-0.23424,-0.2196,-0.20496,0.08784,0.16104,0.41968,0.3904,0.04392,0.06344,-0.44896
-0.02928,0.12444,-0.2196,-0.20496,-0.19032,0.08052,0.17568,0.43432,0.40016,0.06832,0.08296,-0.42944
-0.01952,0.11468,-0.20984,-0.20008,-0.19032,0.0854,0.18056,0.45384,0.40992,0.06344,0.0732,-0.42944
-0.01464,0.11224,-0.20984,-0.20252,-0.1952,0.09028,0.18544,0.46848,0.42456,0.06832,0.06832,-0.42944
-0.00488,0.10492,-0.20496,-0.20252,-0.20008,0.0976,0.19032,0.48312,0.42944,0.06832,0.06832,-0.42456
0.00488,0.0976,-0.20008,-0.20252,-0.20496,0.10492,0.1952,0.50752,0.4392,0.06832,0.07808,-0.42456
0.00976,0.09028,-0.19032,-0.1952,-0.20008,0.10492,0.20008,0.52216,0.45872,0.0732,0.08296,-0.4148
0.02928,0.07564,-0.18056,-0.1952,-0.20984,0.11956,0.20984,0.5368,0.45872,0.07808,0.08784,-0.41968
0.04392,0.06832,-0.18056,-0.20252,-0.22448,0.1342,0.21472,0.55144,0.4636,0.08296,0.08784,-0.42456
0.04392,0.06344,-0.1708,-0.19276,-0.21472,0.12932,0.2196,0.5612,0.47336,0.09272,0.08784,-0.4148
0.0488,0.05856,-0.16592,-0.19032,-0.21472,0.13176,0.22448,0.57584,0.47824,0.0976,0.08784,-0.40992
0.05856,0.05368,-0.16592,-0.1952,-0.22448,0.14152,0.22448,0.59048,0.488,0.10248,0.10248,-0.40504
0.06832,0.04392,-0.15616,-0.19032,-0.22448,0.1464,0.22448,0.60512,0.50264,0.11224,0.10736,-0.40504
0.0732,0.03904,-0.15128,-0.18788,-0.22448,0.14884,0.2196,0.61,0.5124,0.11712,0.11224,-0.40016
0.08296,0.02928,-0.14152,-0.183,-0.22448,0.15372,0.2196,0.61976,0.52216,0.122,0.11712,-0.39528
0.09272,0.02196,-0.13664,-0.183,-0.22936,0.16104,0.2196,0.62952,0.53192,0.122,0.122,-0.3904
0.09272,0.01708,-0.12688,-0.17324,-0.2196,0.15616,0.2196,0.63928,0.54168,0.12688,0.12688,-0.38552
0.0976,0.0122,-0.122,-0.1708,-0.2196,0.1586,0.2196,0.64904,0.55144,0.13176,0.1464,-0.366
0.10736,0.00244,-0.11224,-0.16592,-0.2196,0.16348,0.22448,0.6588,0.57096,0.14152,0.1464,-0.36112
0.11712,-0.00732,-0.10248,-0.16104,-0.2196,0.16836,0.22448,0.67344,0.57584,0.1464,0.15128,-0.36112
0.13664,-0.02684,-0.08296,-0.15128,-0.2196,0.17812,0.23424,0.69296,0.59536,0.16592,0.16592,-0.3416
0.1464,-0.0366,-0.0732,-0.1464,-0.2196,0.183,0.23424,0.69784,0.60512,0.17568,0.17568,-0.33672
0.15616,-0.04392,-0.06832,-0.1464,-0.22448,0.19032,0.22936,0.70272,0.61488,0.18544,0.18056,-0.33672
0.18056,-0.07076,-0.03904,-0.12932,-0.2196,0.20008,0.22448,0.70272,0.62464,0.1952,0.19032,-0.32208
0.19032,-0.08296,-0.0244,-0.11956,-0.21472,0.20252,0.22448,0.70272,0.62952,0.20008,0.20496,-0.32208
0.17568,-0.07076,-0.03416,-0.122,-0.20984,0.19276,0.20984,0.70272,0.62952,0.20008,0.20496,-0.3172
0.17568,-0.06588,-0.04392,-0.13176,-0.2196,0.19764,0.1952,0.69784,0.62952,0.20008,0.20496,-0.31232
0.1708,-0.061,-0.0488,-0.1342,-0.2196,0.1952,0.18544,0.67832,0.62464,0.20496,0.20008,-0.31232
0.16104,-0.05368,-0.05368,-0.1342,-0.21472,0.18788,0.16592,0.66856,0.61976,0.20496,0.1952,-0.3172
0.18544,-0.06344,-0.05856,-0.15128,-0.244,0.21472,0.15616,0.6588,0.60024,0.1952,0.1952,-0.31232
0.19032,-0.06344,-0.06344,-0.1586,-0.25376,0.22204,0.1464,0.6344,0.5856,0.1952,0.1952,-0.31232
0.16592,-0.0488,-0.06832,-0.15128,-0.23424,0.20008,0.1464,0.62952,0.58072,0.1952,0.20008,-0.31232
0.1464,-0.03904,-0.06832,-0.14152,-0.21472,0.18056,0.13664,0.61,0.57096,0.1952,0.20008,-0.31232
0.14152,-0.0366,-0.06832,-0.13908,-0.20984,0.17568,0.13176,0.59048,0.5612,0.19032,0.20008,-0.3172
0.12688,-0.0244,-0.07808,-0.14152,-0.20496,0.16592,0.12688,0.57096,0.55144,0.19032,0.20008,-0.3172
0.11224,-0.0122,-0.08784,-0.14396,-0.20008,0.15616,0.122,0.55144,0.53192,0.18056,0.19032,-0.32696
0.10736,-0.00976,-0.08784,-0.14152,-0.1952,0.15128,0.11712,0.53192,0.51728,0.18056,0.18544,-0.32696
0.08784,0.00732,-0.10248,-0.1464,-0.19032,0.13908,0.11712,0.51728,0.5124,0.17568,0.18544,-0.33184
0.09272,0.00488,-0.10248,-0.14884,-0.1952,0.14396,0.11712,0.50264,0.49288,0.16592,0.18056,-0.33672
0.08784,0.00976,-0.10736,-0.15128,-0.1952,0.14152,0.10736,0.488,0.47824,0.15616,0.16592,-0.34648
0.06832,0.02196,-0.11224,-0.1464,-0.18056,0.12444,0.10736,0.46848,0.46848,0.1464,0.16104,-0.3416
0.05368,0.03416,-0.122,-0.14884,-0.17568,0.11468,0.10248,0.45384,0.45384,0.13664,0.1464,-0.35624
0.03904,0.0488,-0.13664,-0.15616,-0.17568,0.10736,0.10248,0.4392,0.4392,0.13176,0.14152,-0.35624
0.03416,0.05856,-0.15128,-0.16836,-0.18544,0.1098,0.10248,0.42456,0.42944,0.11712,0.13664,-0.366
0.0244,0.06832,-0.16104,-0.17324,-0.18544,0.10492,0.09272,0.40504,0.41968,0.11224,0.122,-0.37088
0.01952,0.0732,-0.16592,-0.17568,-0.18544,0.10248,0.09272,0.40992,0.4148,0.10248,0.122,-0.37576
0.01464,0.08052,-0.17568,-0.183,-0.19032,0.10248,0.08784,0.40016,0.40016,0.08784,0.10736,-0.38064
0.00488,0.09272,-0.19032,-0.19276,-0.1952,0.10004,0.08296,0.3904,0.3904,0.08296,0.10736,-0.38552
-0.00976,0.10492,-0.20008,-0.1952,-0.19032,0.09028,0.08296,0.38064,0.38552,0.07808,0.10248,-0.3904
0,0.10004,-0.20008,-0.20008,-0.20008,0.10004,0.08784,0.37576,0.38064,0.06832,0.0976,-0.39528
-0.00488,0.10492,-0.20496,-0.20252,-0.20008,0.0976,0.09272,0.37576,0.37576,0.06832,0.09272,-0.40016
-0.00976,0.11224,-0.21472,-0.20984,-0.20496,0.0976,0.08296,0.366,0.37088,0.06344,0.08784,-0.40504
-0.00976,0.11712,-0.22448,-0.2196,-0.21472,0.10248,0.07808,0.366,0.366,0.05856,0.07808,-0.40992
-0.00976,0.11956,-0.22936,-0.22448,-0.2196,0.10492,0.07808,0.36112,0.36112,0.05368,0.07808,-0.40992
-0.00976,0.11956,-0.22936,-0.22448,-0.2196,0.10492,0.07808,0.35624,0.35624,0.05368,0.0732,-0.40504
-0.00976,0.11956,-0.22936,-0.22448,-0.2196,0.10492,0.0732,0.35624,0.35624,0.05368,0.07808,-0.40016
-0.00488,0.11712,-0.22936,-0.22692,-0.22448,0.1098,0.06832,0.35624,0.35624,0.05856,0.08296,-0.40016
0,0.11468,-0.22936,-0.22936,-0.22936,0.11468,0.06832,0.35136,0.35624,0.05856,0.08296,-0.40016
0,0.11468,-0.22936,-0.22936,-0.22936,0.11468,0.06344,0.35136,0.35136,0.05856,0.08296,-0.40016
0,0.11468,-0.22936,-0.22936,-0.22936,0.11468,0.06344,0.35136,0.34648,0.05856,0.07808,-0.39528
0,0.11468,-0.22936,-0.22936,-0.22936,0.11468,0.05856,0.35136,0.3416,0.05856,0.07808,-0.39528
-0.00488,0.122,-0.23912,-0.23668,-0.23424,0.11468,0.05368,0.34648,0.3416,0.05368,0.0732,-0.39528
-0.01464,0.13176,-0.24888,-0.24156,-0.23424,0.1098,0.05368,0.34648,0.34648,0.0488,0.0732,-0.40016
-0.00976,0.12688,-0.244,-0.23912,-0.23424,0.11224,0.05856,0.3416,0.34648,0.0488,0.06832,-0.40016
-0.00976,0.12688,-0.244,-0.23912,-0.23424,0.11224,0.06832,0.3416,0.35136,0.0488,0.06832,-0.40016
-0.00976,0.13176,-0.25376,-0.24888,-0.244,0.11712,0.06832,0.3416,0.35136,0.0488,0.06832,-0.39528
-0.00976,0.13664,-0.26352,-0.25864,-0.25376,0.122,0.06832,0.3416,0.35136,0.0488,0.06832,-0.3904
-0.00488,0.12932,-0.25376,-0.25132,-0.24888,0.122,0.06832,0.34648,0.35624,0.05856,0.07808,-0.38552
-0.00488,0.12444,-0.244,-0.24156,-0.23912,0.11712,0.06832,0.35136,0.36112,0.06344,0.08296,-0.38064
-0.00488,0.122,-0.23912,-0.23668,-0.23424,0.11468,0.06832,0.36112,0.366,0.0732,0.08784,-0.37576
-0.00488,0.122,-0.23912,-0.23668,-0.23424,0.11468,0.0732,0.366,0.37088,0.0732,0.09272,-0.37088
0,0.11956,-0.23912,-0.23912,-0.23912,0.11956,0.08296,0.38064,0.38552,0.07808,0.09272,-0.37088
0,0.122,-0.244,-0.244,-0.244,0.122,0.09272,0.39528,0.3904,0.07808,0.09272,-0.37088
0.03416,0.10492,-0.244,-0.26108,-0.27816,0.15616,0.0976,0.39528,0.39528,0.0732,0.08784,-0.366
0.04392,0.0976,-0.23912,-0.26108,-0.28304,0.16348,0.0976,0.39528,0.39528,0.06832,0.08296,-0.366
0.02928,0.10492,-0.23912,-0.25376,-0.2684,0.14884,0.09272,0.39528,0.3904,0.06832,0.07808,-0.366
0.00976,0.12444,-0.25864,-0.26352,-0.2684,0.13908,0.07808,0.39528,0.38552,0.06344,0.07808,-0.37088
0.01464,0.122,-0.25864,-0.26596,-0.27328,0.14396,0.0732,0.39528,0.38064,0.06344,0.06832,-0.366
0.01952,0.11468,-0.24888,-0.25864,-0.2684,0.14396,0.05856,0.38552,0.37576,0.06344,0.06832,-0.36112
0.05368,0.09272,-0.23912,-0.26596,-0.2928,0.17324,0.03904,0.37088,0.37088,0.05856,0.06832,-0.36112
0.06832,0.07808,-0.22448,-0.25864,-0.2928,0.18056,0.01952,0.34648,0.35624,0.05856,0.0732,-0.36112
0.06832,0.07808,-0.22448,-0.25864,-0.2928,0.18056,0.00488,0.33184,0.35136,0.05368,0.0732,-0.36112
0.05856,0.09272,-0.244,-0.27328,-0.30256,0.18056,0.00488,0.32696,0.35136,0.0488,0.0732,-0.36112
0.0488,0.0976,-0.244,-0.2684,-0.2928,0.1708,0.00976,0.33184,0.35136,0.04392,0.06832,-0.36112
0.03904,0.10492,-0.24888,-0.2684,-0.28792,0.16348,0.01464,0.33672,0.35136,0.04392,0.06832,-0.37088
0.03904,0.10492,-0.24888,-0.2684,-0.28792,0.16348,0.01952,0.32696,0.34648,0.03904,0.06832,-0.36112
0.03416,0.10492,-0.244,-0.26108,-0.27816,0.15616,0.01952,0.32696,0.34648,0.04392,0.0732,-0.35136
0.03416,0.10004,-0.23424,-0.25132,-0.2684,0.15128,0.0244,0.32696,0.35136,0.05368,0.0732,-0.35136
0.01952,0.10492,-0.22936,-0.23912,-0.24888,0.1342,0.03416,0.33184,0.35136,0.05856,0.0732,-0.35136
0.00488,0.11224,-0.22936,-0.2318,-0.23424,0.11956,0.04392,0.33184,0.34648,0.05856,0.0732,-0.34648
-0.01464,0.122,-0.22936,-0.22204,-0.21472,0.10004,0.0488,0.33184,0.3416,0.05856,0.0732,-0.34648
-0.01952,0.12932,-0.23912,-0.22936,-0.2196,0.10004,0.0488,0.32696,0.3416,0.05368,0.0732,-0.34648
-0.03904,0.14152,-0.244,-0.22448,-0.20496,0.08296,0.0488,0.31232,0.33184,0.04392,0.06832,-0.34648
-0.0244,0.1342,-0.244,-0.2318,-0.2196,0.0976,0.0488,0.30744,0.33184,0.04392,0.06344,-0.35136
-0.0244,0.1342,-0.244,-0.2318,-0.2196,0.0976,0.04392,0.30744,0.33184,0.03904,0.05856,-0.35136
-0.0244,0.1342,-0.244,-0.2318,-0.2196,0.0976,0.0488,0.30744,0.33184,0.03904,0.05368,-0.35136
-0.0244,0.1342,-0.244,-0.2318,-0.2196,0.0976,0.05368,0.31232,0.33184,0.03904,0.05368,-0.35136
-0.0244,0.1342,-0.244,-0.2318,-0.2196,0.0976,0.06344,0.3172,0.3416,0.03904,0.05368,-0.3416
-0.0244,0.13176,-0.23912,-0.22692,-0.21472,0.09516,0.0732,0.32208,0.35136,0.03904,0.05368,-0.33672
-0.03416,0.13664,-0.23912,-0.22204,-0.20496,0.0854,0.0732,0.32208,0.35136,0.04392,0.05856,-0.33184
-0.0244,0.12932,-0.23424,-0.22204,-0.20984,0.09272,0.0732,0.32208,0.34648,0.04392,0.05856,-0.33184
-0.0244,0.12932,-0.23424,-0.22204,-0.20984,0.09272,0.06832,0.32208,0.3416,0.04392,0.05856,-0.33184
-0.0244,0.12932,-0.23424,-0.22204,-0.20984,0.09272,0.06832,0.32208,0.33672,0.04392,0.05856,-0.32696
-0.03416,0.1342,-0.23424,-0.21716,-0.20008,0.08296,0.0732,0.32208,0.3416,0.04392,0.0488,-0.32696
-0.03416,0.1342,-0.23424,-0.21716,-0.20008,0.08296,0.0732,0.32208,0.3416,0.0488,0.05856,-0.32696
-0.02928,0.12688,-0.22448,-0.20984,-0.1952,0.08296,0.06832,0.32208,0.3416,0.0488,0.05856,-0.32208
-0.01952,0.11956,-0.2196,-0.20984,-0.20008,0.09028,0.06832,0.32208,0.3416,0.0488,0.05856,-0.32208
-0.00976,0.10492,-0.20008,-0.1952,-0.19032,0.09028,0.06344,0.32208,0.35136,0.06344,0.0732,-0.30744
-0.00976,0.09516,-0.18056,-0.17568,-0.1708,0.08052,0.06832,0.32208,0.36112,0.08296,0.08784,-0.29768
-0.0244,0.08296,-0.14152,-0.12932,-0.11712,0.04636,0.06832,0.32208,0.38064,0.11224,0.11712,-0.25376
-0.03416,0.04392,-0.05368,-0.0366,-0.01952,-0.00732,0.06832,0.32208,0.42456,0.17568,0.17568,-0.19032
0.00976,-0.0244,0.03904,0.03416,0.02928,-0.00976,0.03904,0.31232,0.4392,0.22936,0.22448,-0.1464
0.10736,-0.10004,0.09272,0.03904,-0.01464,0.061,-0.08784,0.23424,0.42944,0.25864,0.26352,-0.11224
0.25376,-0.21716,0.18056,0.05368,-0.0732,0.16348,-0.2928,0.14152,0.42456,0.30744,0.3172,-0.04392
0.40992,-0.34404,0.27816,0.0732,-0.13176,0.27084,-0.52704,0.01952,0.39528,0.36112,0.3904,0.03416
0.54656,-0.45628,0.366,0.09272,-0.18056,0.36356,-0.81984,-0.1464,0.30744,0.35624,0.42456,0.09272
0.70272,-0.61244,0.52216,0.1708,-0.18056,0.44164,-1.1224,-0.31232,0.21472,0.366,0.488,0.18544
0.84424,-0.6344,0.42456,0.00244,-0.41968,0.63196,-1.40056,-0.49288,-0.0244,0.16104,0.35136,0.122
0.93696,-0.47336,0.00976,-0.45872,-0.9272,0.93208,-1.52256,-0.57584,-0.28792,-0.23424,0.02928,-0.11224
0.88328,-0.36356,-0.15616,-0.5978,-1.03944,0.96136,-1.54696,-0.63928,-0.42456,-0.40992,-0.10736,-0.21472
0.76616,-0.26108,-0.244,-0.62708,-1.01016,0.88816,-1.42984,-0.66368,-0.47824,-0.4636,-0.15616,-0.25864
0.63928,-0.19032,-0.25864,-0.57828,-0.89792,0.7686,-1.27368,-0.6832,-0.488,-0.44408,-0.14152,-0.25864
0.4636,-0.08296,-0.29768,-0.52948,-0.76128,0.61244,-1.0004,-0.63928,-0.44408,-0.40016,-0.122,-0.26352
0.31232,-0.03416,-0.244,-0.40016,-0.55632,0.43432,-0.67344,-0.41968,-0.24888,-0.25864,-0.03904,-0.22936
0.24888,-0.00732,-0.23424,-0.35868,-0.48312,0.366,-0.45872,-0.16592,-0.05368,-0.16104,-0.00488,-0.22448
0.20008,0.01464,-0.22936,-0.3294,-0.42944,0.31476,-0.33184,-0.01464,0.08784,-0.08784,0.0244,-0.22448
0.13176,0.04148,-0.21472,-0.2806,-0.34648,0.23912,-0.20008,0.07808,0.17568,-0.0244,0.06344,-0.22448
0.06344,0.07564,-0.21472,-0.24644,-0.27816,0.1708,-0.0732,0.1708,0.244,0.01464,0.0732,-0.23424
0.02928,0.10004,-0.22936,-0.244,-0.25864,0.14396,0.00488,0.2684,0.31232,0.03904,0.0732,-0.244
0.0244,0.10492,-0.23424,-0.24644,-0.25864,0.14152,0.06344,0.34648,0.37576,0.0732,0.08784,-0.26352
0,0.12688,-0.25376,-0.25376,-0.25376,0.12688,0.13176,0.37088,0.40016,0.08296,0.09272,-0.28304
-0.02928,0.15128,-0.27328,-0.25864,-0.244,0.10736,0.16592,0.38064,0.40504,0.08296,0.09272,-0.29768
-0.05856,0.17568,-0.2928,-0.26352,-0.23424,0.08784,0.17568,0.4148,0.4148,0.08296,0.08296,-0.30744
-0.05856,0.17812,-0.29768,-0.2684,-0.23912,0.09028,0.17568,0.42944,0.42456,0.08296,0.08296,-0.31232
-0.05856,0.18056,-0.30256,-0.27328,-0.244,0.09272,0.18544,0.42456,0.42944,0.08784,0.08296,-0.31232
-0.05856,0.183,-0.30744,-0.27816,-0.24888,0.09516,0.18544,0.42944,0.42944,0.08784,0.08296,-0.31232
-0.0488,0.17812,-0.30744,-0.28304,-0.25864,0.10492,0.19032,0.43432,0.4392,0.0976,0.08784,-0.31232
-0.0488,0.18788,-0.32696,-0.30256,-0.27816,0.11468,0.19032,0.4392,0.4392,0.09272,0.08296,-0.31232
-0.05368,0.19032,-0.32696,-0.30012,-0.27328,0.1098,0.1952,0.44408,0.4392,0.0976,0.08296,-0.31232
-0.06832,0.20252,-0.33672,-0.30256,-0.2684,0.10004,0.20008,0.44408,0.4392,0.0976,0.08296,-0.32208
-0.08296,0.21716,-0.35136,-0.30988,-0.2684,0.09272,0.20008,0.44896,0.4392,0.0976,0.08296,-0.32696
-0.0732,0.2074,-0.3416,-0.305,-0.2684,0.0976,0.20496,0.44896,0.44896,0.10736,0.08296,-0.32696
-0.06344,0.20008,-0.33672,-0.305,-0.27328,0.10492,0.20496,0.44896,0.45384,0.11224,0.08784,-0.32696
-0.05856,0.19764,-0.33672,-0.30744,-0.27816,0.1098,0.20984,0.45384,0.45872,0.11224,0.09272,-0.32208
-0.05368,0.1952,-0.33672,-0.30988,-0.28304,0.11468,0.20984,0.45872,0.45872,0.11712,0.0976,-0.3172
-0.05368,0.1952,-0.33672,-0.30988,-0.28304,0.11468,0.20984,0.45872,0.46848,0.11712,0.0976,-0.3172
-0.05368,0.1952,-0.33672,-0.30988,-0.28304,0.11468,0.21472,0.4636,0.47336,0.122,0.10248,-0.3172
-0.05856,0.19764,-0.33672,-0.30744,-0.27816,0.1098,0.21472,0.4636,0.47336,0.12688,0.11224,-0.3172
-0.06344,0.20008,-0.33672,-0.305,-0.27328,0.10492,0.21472,0.46848,0.47824,0.13176,0.11712,-0.3172
-0.06344,0.20008,-0.33672,-0.305,-0.27328,0.10492,0.21472,0.46848,0.47824,0.13664,0.11712,-0.3172
-0.06344,0.20252,-0.3416,-0.30988,-0.27816,0.10736,0.21472,0.47336,0.47824,0.14152,0.11712,-0.3172
-0.06344,0.20252,-0.3416,-0.30988,-0.27816,0.10736,0.2196,0.47336,0.47824,0.14152,0.122,-0.3172
-0.06344,0.20252,-0.3416,-0.30988,-0.27816,0.10736,0.2196,0.46848,0.47824,0.14152,0.12688,-0.31232
-0.06344,0.20008,-0.33672,-0.305,-0.27328,0.10492,0.2196,0.47336,0.48312,0.14152,0.12688,-0.31232
-0.06344,0.20252,-0.3416,-0.30988,-0.27816,0.10736,0.2196,0.47824,0.48312,0.14152,0.12688,-0.3172
-0.06344,0.20252,-0.3416,-0.30988,-0.27816,0.10736,0.2196,0.47824,0.48312,0.14152,0.12688,-0.32208
-0.06344,0.20496,-0.34648,-0.31476,-0.28304,0.1098,0.22448,0.48312,0.48312,0.14152,0.122,-0.32208
-0.06344,0.20496,-0.34648,-0.31476,-0.28304,0.1098,0.22448,0.48312,0.49288,0.14152,0.122,-0.32696
-0.06344,0.20496,-0.34648,-0.31476,-0.28304,0.1098,0.22448,0.488,0.49776,0.14152,0.122,-0.32696
-0.05856,0.20252,-0.34648,-0.3172,-0.28792,0.11468,0.22936,0.488,0.50264,0.1464,0.122,-0.33184
-0.05856,0.20252,-0.34648,-0.3172,-0.28792,0.11468,0.22936,0.488,0.50264,0.15128,0.122,-0.33184
-0.0488,0.1952,-0.3416,-0.3172,-0.2928,0.122,0.23424,0.49288,0.5124,0.15128,0.122,-0.33184
-0.0488,0.1952,-0.3416,-0.3172,-0.2928,0.122,0.23424,0.50264,0.52216,0.15128,0.122,-0.33184
-0.04392,0.1952,-0.34648,-0.32452,-0.30256,0.12932,0.244,0.5124,0.53192,0.15616,0.12688,-0.33184
-0.03904,0.1952,-0.35136,-0.33184,-0.31232,0.13664,0.24888,0.52216,0.54168,0.16104,0.12688,-0.33184
-0.0244,0.183,-0.3416,-0.3294,-0.3172,0.1464,0.24888,0.5368,0.5368,0.15616,0.13176,-0.33672
-0.01952,0.17568,-0.33184,-0.32208,-0.31232,0.1464,0.24888,0.54656,0.54656,0.15128,0.13176,-0.3416
-0.01952,0.1708,-0.32208,-0.31232,-0.30256,0.14152,0.26352,0.5612,0.55632,0.18056,0.15128,-0.32208
-0.00976,0.16348,-0.3172,-0.31232,-0.30744,0.14884,0.2684,0.58072,0.56608,0.18056,0.14152,-0.32208
-0.01952,0.16836,-0.3172,-0.30744,-0.29768,0.13908,0.28304,0.59536,0.5856,0.19032,0.14152,-0.32208
-0.0244,0.16836,-0.31232,-0.30012,-0.28792,0.13176,0.29768,0.61,0.59536,0.1952,0.1464,-0.3172
-0.01952,0.16592,-0.31232,-0.30256,-0.2928,0.13664,0.30256,0.6344,0.60512,0.20496,0.15616,-0.3172
-0.01952,0.16348,-0.30744,-0.29768,-0.28792,0.1342,0.30744,0.64904,0.62464,0.2196,0.16104,-0.30744
-0.00488,0.15128,-0.29768,-0.29524,-0.2928,0.14396,0.3172,0.66368,0.63928,0.22936,0.17568,-0.29768
0.00488,0.1464,-0.29768,-0.30012,-0.30256,0.15372,0.32208,0.67832,0.6588,0.23912,0.18544,-0.28792
0.01464,0.13664,-0.28792,-0.29524,-0.30256,0.1586,0.32208,0.6832,0.66856,0.244,0.18544,-0.28792
0.02928,0.12688,-0.28304,-0.29768,-0.31232,0.1708,0.32208,0.69296,0.67344,0.244,0.18544,-0.2928
0.03904,0.12444,-0.28792,-0.30744,-0.32696,0.183,0.32208,0.7076,0.6832,0.244,0.1952,-0.28792
0.0488,0.11712,-0.28304,-0.30744,-0.33184,0.19032,0.32208,0.72224,0.69784,0.24888,0.1952,-0.28792
0.06832,0.10492,-0.27816,-0.31232,-0.34648,0.2074,0.32696,0.732,0.7076,0.25376,0.20008,-0.27816
0.09272,0.08784,-0.2684,-0.31476,-0.36112,0.22692,0.33672,0.74664,0.71736,0.25864,0.20496,-0.2684
0.09272,0.0854,-0.26352,-0.30988,-0.35624,0.22448,0.33672,0.7564,0.72712,0.26352,0.20984,-0.26352
0.08296,0.0854,-0.25376,-0.29524,-0.33672,0.20984,0.33672,0.76616,0.73688,0.27328,0.21472,-0.25864
0.08296,0.08296,-0.24888,-0.29036,-0.33184,0.2074,0.33672,0.77592,0.75152,0.27816,0.23912,-0.23912
0.08784,0.07564,-0.23912,-0.28304,-0.32696,0.2074,0.3416,0.78568,0.77592,0.28792,0.244,-0.23424
0.09272,0.06832,-0.22936,-0.27572,-0.32208,0.2074,0.3416,0.80032,0.7808,0.2928,0.24888,-0.23424
0.10736,0.05124,-0.20984,-0.26352,-0.3172,0.21228,0.35136,0.81984,0.80032,0.31232,0.26352,-0.21472
0.11224,0.04392,-0.20008,-0.2562,-0.31232,0.21228,0.35624,0.8296,0.81008,0.33184,0.27816,-0.20496
0.11712,0.03904,-0.1952,-0.25376,-0.31232,0.21472,0.35624,0.83936,0.81984,0.35136,0.28792,-0.20008
0.14152,0.01952,-0.18056,-0.25132,-0.32208,0.2318,0.34648,0.83936,0.8296,0.35624,0.28792,-0.18544
0.15128,0.01464,-0.18056,-0.2562,-0.33184,0.24156,0.3416,0.83936,0.83448,0.35624,0.2928,-0.18544
0.15128,0.01464,-0.18056,-0.2562,-0.33184,0.24156,0.33184,0.83936,0.83448,0.35624,0.2928,-0.18056
0.16592,0.00732,-0.18056,-0.26352,-0.34648,0.2562,0.32208,0.83448,0.83448,0.35624,0.2928,-0.17568
0.16592,0.00488,-0.17568,-0.25864,-0.3416,0.25376,0.3172,0.81496,0.8296,0.36112,0.29768,-0.17568
0.16104,0.00488,-0.1708,-0.25132,-0.33184,0.24644,0.30256,0.8052,0.82472,0.36112,0.30256,-0.18056
0.1708,-0.00244,-0.16592,-0.25132,-0.33672,0.25376,0.28792,0.79544,0.81008,0.35624,0.30256,-0.17568
0.16104,0,-0.16104,-0.24156,-0.32208,0.24156,0.27328,0.77104,0.80032,0.36112,0.30256,-0.17568
0.15128,0.00732,-0.16592,-0.24156,-0.3172,0.23424,0.2684,0.76616,0.79056,0.36112,0.30744,-0.17568
0.1464,0.00976,-0.16592,-0.23912,-0.31232,0.22936,0.25376,0.74664,0.77592,0.36112,0.30744,-0.17568
0.13664,0.01708,-0.1708,-0.23912,-0.30744,0.22204,0.24888,0.72712,0.76616,0.35624,0.30744,-0.18056
0.11712,0.03416,-0.18544,-0.244,-0.30256,0.20984,0.244,0.7076,0.7564,0.35624,0.30744,-0.18056
0.09272,0.05368,-0.20008,-0.24644,-0.2928,0.19276,0.23912,0.68808,0.73688,0.34648,0.29768,-0.19032
0.07808,0.06344,-0.20496,-0.244,-0.28304,0.18056,0.23424,0.66856,0.72224,0.34648,0.2928,-0.19032
0.05368,0.0854,-0.22448,-0.25132,-0.27816,0.16592,0.23912,0.64904,0.72224,0.3416,0.2928,-0.1952
0.05368,0.08784,-0.22936,-0.2562,-0.28304,0.16836,0.244,0.62952,0.7076,0.33184,0.28792,-0.20008
0.05368,0.09272,-0.23912,-0.26596,-0.2928,0.17324,0.23424,0.61488,0.68808,0.32208,0.27328,-0.21472
0.03904,0.10492,-0.24888,-0.2684,-0.28792,0.16348,0.23424,0.59536,0.67344,0.31232,0.2684,-0.21472
0.02928,0.11468,-0.25864,-0.27328,-0.28792,0.1586,0.2196,0.57584,0.65392,0.29768,0.25376,-0.22936
0.01952,0.12688,-0.27328,-0.28304,-0.2928,0.15616,0.20984,0.55632,0.6344,0.28792,0.24888,-0.22936
0.01952,0.12932,-0.27816,-0.28792,-0.29768,0.1586,0.20984,0.55144,0.62464,0.27816,0.244,-0.23424
0.01464,0.13176,-0.27816,-0.28548,-0.2928,0.15372,0.20008,0.54168,0.61488,0.27816,0.22936,-0.23424
0.01464,0.1342,-0.28304,-0.29036,-0.29768,0.15616,0.20496,0.54656,0.61488,0.27328,0.23424,-0.23912
0.01464,0.13908,-0.2928,-0.30012,-0.30744,0.16104,0.20496,0.5368,0.60512,0.26352,0.22448,-0.244
0.00976,0.1464,-0.30256,-0.30744,-0.31232,0.16104,0.20008,0.52704,0.59536,0.25864,0.22448,-0.244
0,0.15372,-0.30744,-0.30744,-0.30744,0.15372,0.20008,0.51728,0.59048,0.25376,0.2196,-0.244
0,0.1586,-0.3172,-0.3172,-0.3172,0.1586,0.20008,0.5124,0.5856,0.244,0.20984,-0.24888
-0.01464,0.17324,-0.33184,-0.32452,-0.3172,0.15128,0.20008,0.5124,0.58072,0.244,0.20008,-0.25376
-0.01952,0.17324,-0.32696,-0.3172,-0.30744,0.14396,0.19032,0.50264,0.57584,0.23912,0.20008,-0.25376
-0.01952,0.1708,-0.32208,-0.31232,-0.30256,0.14152,0.18544,0.50264,0.57096,0.23424,0.1952,-0.25376
-0.01464,0.1708,-0.32696,-0.31964,-0.31232,0.14884,0.18544,0.49288,0.56608,0.22936,0.1952,-0.25376
-0.00976,0.16836,-0.32696,-0.32208,-0.3172,0.15372,0.18544,0.48312,0.5612,0.22936,0.19032,-0.24888
-0.00976,0.16836,-0.32696,-0.32208,-0.3172,0.15372,0.18056,0.48312,0.55632,0.22448,0.19032,-0.24888
-0.00488,0.16592,-0.32696,-0.32452,-0.32208,0.1586,0.17568,0.48312,0.55144,0.22448,0.19032,-0.25376
-0.00488,0.16348,-0.32208,-0.31964,-0.3172,0.15616,0.17568,0.47824,0.55144,0.22448,0.1952,-0.24888
-0.00976,0.16348,-0.3172,-0.31232,-0.30744,0.14884,0.1708,0.47824,0.54656,0.22448,0.20008,-0.244
-0.00976,0.16348,-0.3172,-0.31232,-0.30744,0.14884,0.1708,0.47824,0.54168,0.22448,0.1952,-0.23912
-0.00976,0.16348,-0.3172,-0.31232,-0.30744,0.14884,0.16592,0.47824,0.5368,0.22448,0.1952,-0.23912
-0.00488,0.16104,-0.3172,-0.31476,-0.31232,0.15372,0.15616,0.46848,0.53192,0.21472,0.18544,-0.244
-0.00488,0.16104,-0.3172,-0.31476,-0.31232,0.15372,0.15128,0.4636,0.53192,0.20496,0.18056,-0.25376
0.00488,0.15128,-0.30744,-0.30988,-0.31232,0.1586,0.1464,0.45872,0.52704,0.20496,0.17568,-0.25376
0.01952,0.14152,-0.30256,-0.31232,-0.32208,0.1708,0.1464,0.45872,0.52704,0.20496,0.17568,-0.25376
0.00976,0.1464,-0.30256,-0.30744,-0.31232,0.16104,0.15128,0.45872,0.52704,0.20496,0.17568,-0.24888
0,0.15128,-0.30256,-0.30256,-0.30256,0.15128,0.15616,0.45872,0.52704,0.20496,0.17568,-0.244
0,0.15372,-0.30744,-0.30744,-0.30744,0.15372,0.15616,0.45872,0.52704,0.20496,0.18056,-0.23912
0,0.15372,-0.30744,-0.30744,-0.30744,0.15372,0.15128,0.45872,0.52704,0.20496,0.18056,-0.23424
-0.00488,0.15616,-0.30744,-0.305,-0.30256,0.14884,0.15128,0.4636,0.52704,0.20984,0.18544,-0.23424
-0.00488,0.15616,-0.30744,-0.305,-0.30256,0.14884,0.15128,0.4636,0.52704,0.20984,0.19032,-0.23424
0,0.14884,-0.29768,-0.29768,-0.29768,0.14884,0.16104,0.47824,0.54168,0.21472,0.19032,-0.22936
0,0.1464,-0.2928,-0.2928,-0.2928,0.1464,0.1708,0.49288,0.54656,0.21472,0.19032,-0.22448
0.0244,0.1342,-0.2928,-0.305,-0.3172,0.1708,0.17568,0.49776,0.55144,0.21472,0.19032,-0.2196
0.0244,0.13176,-0.28792,-0.30012,-0.31232,0.16836,0.17568,0.50264,0.55144,0.21472,0.19032,-0.2196
0.03416,0.12444,-0.28304,-0.30012,-0.3172,0.17568,0.17568,0.50264,0.55144,0.21472,0.18544,-0.2196
0.03904,0.12932,-0.29768,-0.3172,-0.33672,0.18788,0.16592,0.50264,0.55144,0.20984,0.18544,-0.22448
0.04392,0.12688,-0.29768,-0.31964,-0.3416,0.19276,0.16592,0.50752,0.54168,0.20496,0.17568,-0.22448
0.0488,0.11956,-0.28792,-0.31232,-0.33672,0.19276,0.15616,0.50264,0.53192,0.20008,0.17568,-0.22448
0.05856,0.11468,-0.28792,-0.3172,-0.34648,0.20252,0.13664,0.49288,0.52704,0.1952,0.17568,-0.2196
0.0488,0.11712,-0.28304,-0.30744,-0.33184,0.19032,0.11712,0.47336,0.5124,0.1952,0.18056,-0.21472
0.0488,0.10736,-0.26352,-0.28792,-0.31232,0.18056,0.0976,0.45872,0.50752,0.1952,0.18056,-0.20496
0.03904,0.11224,-0.26352,-0.28304,-0.30256,0.1708,0.09272,0.45384,0.50752,0.1952,0.18056,-0.1952
0.03904,0.11224,-0.26352,-0.28304,-0.30256,0.1708,0.09272,0.45384,0.50264,0.19032,0.17568,-0.1952
0.03904,0.11468,-0.2684,-0.28792,-0.30744,0.17324,0.09272,0.45384,0.49776,0.19032,0.17568,-0.20496
0.04392,0.11712,-0.27816,-0.30012,-0.32208,0.183,0.0976,0.4392,0.49288,0.1708,0.16104,-0.20984
0.04392,0.11956,-0.28304,-0.305,-0.32696,0.18544,0.0976,0.43432,0.49288,0.16104,0.15128,-0.21472
0.04392,0.11712,-0.27816,-0.30012,-0.32208,0.183,0.0976,0.43432,0.49776,0.16592,0.15128,-0.21472
0.02928,0.12444,-0.27816,-0.2928,-0.30744,0.16836,0.10248,0.4392,0.49776,0.16592,0.15128,-0.21472
0.01464,0.13176,-0.27816,-0.28548,-0.2928,0.15372,0.11224,0.4392,0.49776,0.1708,0.15128,-0.20496
-0.00488,0.14152,-0.27816,-0.27572,-0.27328,0.1342,0.11712,0.4392,0.49776,0.17568,0.15128,-0.20008
-0.00976,0.1464,-0.28304,-0.27816,-0.27328,0.13176,0.11712,0.4392,0.49776,0.17568,0.15616,-0.20008
-0.02928,0.15616,-0.28304,-0.2684,-0.25376,0.11224,0.11712,0.42944,0.488,0.1708,0.15616,-0.20008
-0.01464,0.1464,-0.27816,-0.27084,-0.26352,0.12444,0.11712,0.42456,0.48312,0.1708,0.15616,-0.20008
-0.01464,0.14396,-0.27328,-0.26596,-0.25864,0.122,0.11224,0.42456,0.47824,0.16592,0.15616,-0.1952
-0.00976,0.13908,-0.2684,-0.26352,-0.25864,0.12444,0.10736,0.41968,0.47824,0.16104,0.1464,-0.1952
-0.00488,0.1342,-0.26352,-0.26108,-0.25864,0.12688,0.10248,0.41968,0.47824,0.15616,0.14152,-0.1952
-0.00488,0.1342,-0.26352,-0.26108,-0.25864,0.12688,0.10248,0.41968,0.47824,0.15616,0.14152,-0.19032
-0.00488,0.13176,-0.25864,-0.2562,-0.25376,0.12444,0.10248,0.41968,0.47824,0.15616,0.14152,-0.19032
-0.01952,0.13908,-0.25864,-0.24888,-0.23912,0.1098,0.10248,0.41968,0.47824,0.16104,0.1464,-0.18544
-0.01464,0.1342,-0.25376,-0.24644,-0.23912,0.11224,0.10248,0.41968,0.47336,0.16104,0.1464,-0.18544
-0.01464,0.1342,-0.25376,-0.24644,-0.23912,0.11224,0.0976,0.41968,0.47336,0.16104,0.1464,-0.18544
-0.01464,0.1342,-0.25376,-0.24644,-0.23912,0.11224,0.0976,0.41968,0.47336,0.16104,0.1464,-0.18056
-0.0244,0.13908,-0.25376,-0.24156,-0.22936,0.10248,0.10248,0.41968,0.47824,0.15616,0.13176,-0.18056
-0.0244,0.13908,-0.25376,-0.24156,-0.22936,0.10248,0.10248,0.41968,0.47824,0.15616,0.13664,-0.18056
-0.0244,0.1342,-0.244,-0.2318,-0.2196,0.0976,0.0976,0.41968,0.47824,0.15616,0.13664,-0.17568
-0.01952,0.12932,-0.23912,-0.22936,-0.2196,0.10004,0.0976,0.41968,0.47824,0.15616,0.13664,-0.17568
-0.00976,0.12444,-0.23912,-0.23424,-0.22936,0.1098,0.08784,0.41968,0.47824,0.1464,0.13176,-0.17568
-0.00976,0.12444,-0.23912,-0.23424,-0.22936,0.1098,0.08784,0.41968,0.47824,0.14152,0.12688,-0.18056
-0.01464,0.10736,-0.20008,-0.19276,-0.18544,0.0854,0.09272,0.42456,0.488,0.1708,0.15616,-0.15128
-0.01464,0.06344,-0.11224,-0.10492,-0.0976,0.04148,0.0976,0.42944,0.52216,0.23424,0.21472,-0.10248
-0.00488,0.00488,-0.00488,-0.00244,0,-0.00244,0.11224,0.43432,0.54656,0.30744,0.27816,-0.03904
0.05856,-0.061,0.06344,0.03416,0.00488,0.02684,0.02928,0.37088,0.54656,0.35624,0.33184,0.01464
0.17568,-0.15128,0.12688,0.03904,-0.0488,0.11224,-0.16592,0.27816,0.54656,0.39528,0.37088,0.06344
0.30256,-0.25132,0.20008,0.0488,-0.10248,0.20252,-0.3904,0.15616,0.52216,0.4392,0.42944,0.122
0.4392,-0.3904,0.3416,0.122,-0.0976,0.2684,-0.65392,0.01464,0.47336,0.49288,0.5124,0.22448
0.59536,-0.5734,0.55144,0.25376,-0.04392,0.31964,-0.9272,-0.12688,0.41968,0.5612,0.62464,0.36112
0.732,-0.61,0.488,0.122,-0.244,0.488,-1.25416,-0.33184,0.18056,0.366,0.5124,0.31232
0.81984,-0.4636,0.10736,-0.30256,-0.71248,0.76616,-1.42496,-0.4392,-0.08296,-0.01952,0.21472,0.09272
0.86376,-0.38796,-0.08784,-0.51972,-0.9516,0.90768,-1.47864,-0.488,-0.23912,-0.24888,0.03416,-0.03416
0.84424,-0.31964,-0.20496,-0.62708,-1.0492,0.94672,-1.3908,-0.49776,-0.31232,-0.35624,-0.05856,-0.10248
0.69784,-0.2318,-0.23424,-0.58316,-0.93208,0.81496,-1.29808,-0.57096,-0.38064,-0.366,-0.0732,-0.11712
0.50264,-0.10736,-0.28792,-0.53924,-0.79056,0.6466,-1.08824,-0.58072,-0.39528,-0.35136,-0.08296,-0.13664
0.35624,-0.061,-0.23424,-0.41236,-0.59048,0.47336,-0.74664,-0.37576,-0.20008,-0.20984,0,-0.11224
0.29768,-0.0366,-0.22448,-0.37332,-0.52216,0.40992,-0.51728,-0.13664,-0.00488,-0.11224,0.03416,-0.11712
0.244,-0.0122,-0.2196,-0.3416,-0.4636,0.3538,-0.3904,0.0244,0.1464,-0.03904,0.06344,-0.11712
0.1708,0.01708,-0.20496,-0.29036,-0.37576,0.27328,-0.25864,0.12688,0.244,0.0244,0.10248,-0.11712
0.11224,0.04636,-0.20496,-0.26108,-0.3172,0.21472,-0.10736,0.2196,0.29768,0.06344,0.11224,-0.122
0.08784,0.06588,-0.2196,-0.26352,-0.30744,0.19764,-0.00488,0.3172,0.35136,0.08784,0.11224,-0.12688
0.03416,0.0976,-0.22936,-0.24644,-0.26352,0.14884,0.05368,0.42456,0.44408,0.12688,0.122,-0.1464
-0.03904,0.1464,-0.25376,-0.23424,-0.21472,0.08784,0.122,0.47824,0.49776,0.14152,0.122,-0.16592
-0.03416,0.15372,-0.27328,-0.2562,-0.23912,0.10248,0.16104,0.46848,0.49288,0.14152,0.122,-0.18544
-0.02928,0.16104,-0.2928,-0.27816,-0.26352,0.11712,0.17568,0.48312,0.49288,0.14152,0.11224,-0.20008
-0.02928,0.16104,-0.2928,-0.27816,-0.26352,0.11712,0.1708,0.50264,0.49776,0.13664,0.11224,-0.20496
-0.02928,0.16104,-0.2928,-0.27816,-0.26352,0.11712,0.17568,0.50264,0.49776,0.13664,0.11224,-0.20496
-0.03904,0.1708,-0.30256,-0.28304,-0.26352,0.11224,0.18056,0.50752,0.49776,0.13664,0.11224,-0.20984
-0.03904,0.17324,-0.30744,-0.28792,-0.2684,0.11468,0.19032,0.5124,0.50752,0.1464,0.11712,-0.21472
-0.03904,0.17812,-0.3172,-0.29768,-0.27816,0.11956,0.1952,0.51728,0.5124,0.14152,0.11712,-0.21472
-0.04392,0.17568,-0.30744,-0.28548,-0.26352,0.1098,0.20496,0.52216,0.51728,0.1464,0.122,-0.21472
-0.04392,0.17568,-0.30744,-0.28548,-0.26352,0.1098,0.20984,0.52216,0.51728,0.1464,0.122,-0.2196
-0.04392,0.17812,-0.31232,-0.29036,-0.2684,0.11224,0.20984,0.52704,0.51728,0.1464,0.122,-0.2196
-0.05368,0.183,-0.31232,-0.28548,-0.25864,0.10248,0.21472,0.52704,0.52216,0.15128,0.122,-0.2196
-0.06344,0.19032,-0.3172,-0.28548,-0.25376,0.09516,0.21472,0.52704,0.52216,0.15128,0.12688,-0.2196
-0.0488,0.183,-0.3172,-0.2928,-0.2684,0.1098,0.2196,0.53192,0.53192,0.15128,0.12688,-0.2196
-0.03416,0.17568,-0.3172,-0.30012,-0.28304,0.12444,0.2196,0.5368,0.5368,0.15616,0.12688,-0.2196
-0.03416,0.17324,-0.31232,-0.29524,-0.27816,0.122,0.2196,0.54168,0.54168,0.15616,0.12688,-0.21472
-0.03416,0.1708,-0.30744,-0.29036,-0.27328,0.11956,0.22448,0.55144,0.54168,0.16104,0.13176,-0.20984
-0.03416,0.1708,-0.30744,-0.29036,-0.27328,0.11956,0.22448,0.55144,0.54168,0.16592,0.13664,-0.20984
-0.03416,0.1708,-0.30744,-0.29036,-0.27328,0.11956,0.22448,0.55632,0.54656,0.1708,0.13664,-0.20984
-0.03416,0.17324,-0.31232,-0.29524,-0.27816,0.122,0.22448,0.55632,0.54656,0.1708,0.13664,-0.20984
-0.03416,0.17812,-0.32208,-0.305,-0.28792,0.12688,0.22448,0.5612,0.54656,0.1708,0.13664,-0.20984
-0.03416,0.17812,-0.32208,-0.305,-0.28792,0.12688,0.22936,0.56608,0.55144,0.16592,0.13664,-0.21472
-0.03416,0.17812,-0.32208,-0.305,-0.28792,0.12688,0.22936,0.56608,0.55632,0.16104,0.13664,-0.21472
-0.04392,0.183,-0.32208,-0.30012,-0.27816,0.11712,0.22936,0.57096,0.5612,0.16104,0.13664,-0.21472
-0.05368,0.19276,-0.33184,-0.305,-0.27816,0.11224,0.22936,0.57584,0.5612,0.16104,0.13664,-0.2196
-0.06344,0.20008,-0.33672,-0.305,-0.27328,0.10492,0.22936,0.57584,0.5612,0.16104,0.13664,-0.22448
-0.0732,0.20984,-0.34648,-0.30988,-0.27328,0.10004,0.23424,0.58072,0.5612,0.16104,0.13176,-0.22448
-0.06344,0.2074,-0.35136,-0.31964,-0.28792,0.11224,0.23424,0.57584,0.5612,0.15616,0.12688,-0.22936
-0.05368,0.20496,-0.35624,-0.3294,-0.30256,0.12444,0.23424,0.57584,0.55632,0.15128,0.122,-0.22936
-0.02928,0.19276,-0.35624,-0.3416,-0.32696,0.14884,0.23424,0.57584,0.5612,0.15128,0.11712,-0.23912
-0.00976,0.183,-0.35624,-0.35136,-0.34648,0.16836,0.22936,0.57584,0.5612,0.15128,0.11224,-0.244
-0.00976,0.18056,-0.35136,-0.34648,-0.3416,0.16592,0.23424,0.58072,0.56608,0.15128,0.11224,-0.244
-0.01952,0.18544,-0.35136,-0.3416,-0.33184,0.15616,0.23424,0.59048,0.57096,0.15128,0.11224,-0.244
-0.0244,0.18788,-0.35136,-0.33916,-0.32696,0.15128,0.24888,0.59536,0.58072,0.15616,0.11712,-0.244
-0.02928,0.19032,-0.35136,-0.33672,-0.32208,0.1464,0.25864,0.60024,0.59048,0.16104,0.11712,-0.244
-0.01952,0.18056,-0.3416,-0.33184,-0.32208,0.15128,0.26352,0.61488,0.59536,0.16104,0.122,-0.244
-0.01952,0.17568,-0.33184,-0.32208,-0.31232,0.1464,0.2684,0.62464,0.61488,0.16104,0.122,-0.244
-0.01952,0.17568,-0.33184,-0.32208,-0.31232,0.1464,0.27816,0.6344,0.61976,0.18544,0.14152,-0.22936
-0.00976,0.17324,-0.33672,-0.33184,-0.32696,0.1586,0.27816,0.64904,0.62464,0.18056,0.13176,-0.23424
-0.01464,0.17568,-0.33672,-0.3294,-0.32208,0.15372,0.28304,0.66368,0.63928,0.18544,0.13176,-0.23424
-0.01464,0.17324,-0.33184,-0.32452,-0.3172,0.15128,0.28792,0.67832,0.64416,0.18544,0.13664,-0.22936
-0.01464,0.1708,-0.32696,-0.31964,-0.31232,0.14884,0.2928,0.69784,0.65392,0.18544,0.14152,-0.23424
-0.01952,0.16836,-0.3172,-0.30744,-0.29768,0.13908,0.29768,0.7076,0.67344,0.19032,0.14152,-0.22936
0.00488,0.15128,-0.30744,-0.30988,-0.31232,0.1586,0.30744,0.72712,0.67832,0.1952,0.15128,-0.22936
0.0244,0.14152,-0.30744,-0.31964,-0.33184,0.17812,0.31232,0.74664,0.68808,0.20008,0.15616,-0.22936
0.02928,0.1342,-0.29768,-0.31232,-0.32696,0.17812,0.3172,0.7564,0.69784,0.20984,0.15616,-0.2196
0.03904,0.12688,-0.2928,-0.31232,-0.33184,0.18544,0.32208,0.77104,0.70272,0.21472,0.15616,-0.21472
0.0488,0.122,-0.2928,-0.3172,-0.3416,0.1952,0.32208,0.78568,0.71248,0.21472,0.16592,-0.20984
0.05856,0.11224,-0.28304,-0.31232,-0.3416,0.20008,0.32208,0.80032,0.72712,0.2196,0.16592,-0.20984
0.06832,0.10248,-0.27328,-0.30744,-0.3416,0.20496,0.32208,0.81008,0.73688,0.22448,0.1708,-0.20008
0.08296,0.08784,-0.25864,-0.30012,-0.3416,0.21228,0.32696,0.82472,0.74664,0.22936,0.17568,-0.19032
0.10248,0.07564,-0.25376,-0.305,-0.35624,0.22936,0.32696,0.83448,0.7564,0.23424,0.18056,-0.18544
0.11224,0.06588,-0.244,-0.30012,-0.35624,0.23424,0.32696,0.84424,0.76616,0.244,0.18544,-0.18056
0.11224,0.06588,-0.244,-0.30012,-0.35624,0.23424,0.32208,0.84912,0.77592,0.24888,0.20496,-0.16592
0.11712,0.061,-0.23912,-0.29768,-0.35624,0.23668,0.32208,0.854,0.79544,0.25864,0.20496,-0.16592
0.122,0.05368,-0.22936,-0.29036,-0.35136,0.23668,0.32208,0.86864,0.8052,0.26352,0.21472,-0.16592
0.13664,0.0366,-0.20984,-0.27816,-0.34648,0.24156,0.33184,0.88816,0.8296,0.28304,0.23424,-0.1464
0.13664,0.03172,-0.20008,-0.2684,-0.33672,0.23668,0.33672,0.89792,0.83936,0.2928,0.23912,-0.13664
0.13664,0.02928,-0.1952,-0.26352,-0.33184,0.23424,0.33672,0.90768,0.84912,0.30256,0.23912,-0.13176
0.15128,0.01464,-0.18056,-0.2562,-0.33184,0.24156,0.33184,0.90768,0.85888,0.31232,0.24888,-0.11712
0.15128,0.01464,-0.18056,-0.2562,-0.33184,0.24156,0.33184,0.90768,0.86376,0.3172,0.26352,-0.11712
0.15128,0.0122,-0.17568,-0.25132,-0.32696,0.23912,0.32208,0.90768,0.86376,0.3172,0.2684,-0.10736
0.16592,0.00244,-0.1708,-0.25376,-0.33672,0.25132,0.31232,0.9028,0.86376,0.3172,0.27328,-0.0976
0.17568,-0.00244,-0.1708,-0.25864,-0.34648,0.26108,0.30744,0.88816,0.85888,0.32208,0.27328,-0.09272
0.18056,-0.00488,-0.1708,-0.26108,-0.35136,0.26596,0.2928,0.88328,0.854,0.32208,0.27328,-0.09272
0.19032,-0.00732,-0.17568,-0.27084,-0.366,0.27816,0.27816,0.8784,0.84424,0.31232,0.27328,-0.09272
0.18056,0,-0.18056,-0.27084,-0.36112,0.27084,0.26352,0.85888,0.83936,0.31232,0.27328,-0.0976
0.18056,0,-0.18056,-0.27084,-0.36112,0.27084,0.26352,0.854,0.83448,0.31232,0.27328,-0.0976
0.18544,-0.00488,-0.17568,-0.2684,-0.36112,0.27328,0.25376,0.83448,0.82472,0.31232,0.2684,-0.0976
0.18056,0,-0.18056,-0.27084,-0.36112,0.27084,0.24888,0.81496,0.81008,0.30744,0.26352,-0.10248
0.16592,0.01464,-0.1952,-0.27816,-0.36112,0.26352,0.244,0.79544,0.79544,0.30744,0.25864,-0.10248
0.11712,0.0488,-0.21472,-0.27328,-0.33184,0.22448,0.23912,0.78568,0.77592,0.29768,0.24888,-0.11224
0.07808,0.0732,-0.22448,-0.26352,-0.30256,0.19032,0.23424,0.77592,0.76128,0.29768,0.244,-0.11224
0.06832,0.08784,-0.244,-0.27816,-0.31232,0.19032,0.23424,0.74664,0.7564,0.28792,0.244,-0.11712
0.08296,0.08296,-0.24888,-0.29036,-0.33184,0.2074,0.23424,0.71736,0.73688,0.27328,0.23912,-0.122
0.06832,0.0976,-0.26352,-0.29768,-0.33184,0.20008,0.22448,0.70272,0.71736,0.26352,0.22448,-0.13664
0.03904,0.11956,-0.27816,-0.29768,-0.3172,0.17812,0.22448,0.6832,0.70272,0.25376,0.2196,-0.13664
0.02928,0.12932,-0.28792,-0.30256,-0.3172,0.17324,0.2196,0.67344,0.69296,0.244,0.20984,-0.15128
0.01952,0.14152,-0.30256,-0.31232,-0.32208,0.1708,0.2196,0.66368,0.6832,0.23912,0.20984,-0.15128
0.0244,0.13908,-0.30256,-0.31476,-0.32696,0.17568,0.2196,0.6588,0.67344,0.22936,0.20496,-0.15616
0.0244,0.13664,-0.29768,-0.30988,-0.32208,0.17324,0.20984,0.64904,0.66368,0.22936,0.19032,-0.15616
0.0244,0.13908,-0.30256,-0.31476,-0.32696,0.17568,0.20984,0.64416,0.6588,0.22448,0.19032,-0.16104
0.0244,0.14396,-0.31232,-0.32452,-0.33672,0.18056,0.20496,0.62464,0.64416,0.21472,0.17568,-0.16592
0.0244,0.14884,-0.32208,-0.33428,-0.34648,0.18544,0.20008,0.61488,0.6344,0.20984,0.17568,-0.1708
0.01952,0.15372,-0.32696,-0.33672,-0.34648,0.183,0.20008,0.60512,0.62952,0.20496,0.1708,-0.17568
0.01952,0.1586,-0.33672,-0.34648,-0.35624,0.18788,0.20008,0.59536,0.61976,0.19032,0.16592,-0.18056
0.00488,0.17324,-0.35136,-0.3538,-0.35624,0.18056,0.20008,0.59048,0.61,0.18544,0.16104,-0.18544
-0.00488,0.18056,-0.35624,-0.3538,-0.35136,0.17324,0.19032,0.58072,0.60512,0.18544,0.16104,-0.18544
-0.00976,0.18544,-0.36112,-0.35624,-0.35136,0.1708,0.18544,0.58072,0.60024,0.18544,0.15616,-0.18544
-0.00976,0.183,-0.35624,-0.35136,-0.34648,0.16836,0.18544,0.57584,0.59536,0.18056,0.15616,-0.18056
-0.00976,0.17812,-0.34648,-0.3416,-0.33672,0.16348,0.18544,0.57096,0.59048,0.18056,0.15128,-0.1708
-0.00976,0.17812,-0.34648,-0.3416,-0.33672,0.16348,0.18056,0.57096,0.59048,0.17568,0.15128,-0.1708
-0.00488,0.17568,-0.34648,-0.34404,-0.3416,0.16836,0.17568,0.57096,0.59048,0.17568,0.15128,-0.17568
-0.00488,0.17812,-0.35136,-0.34892,-0.34648,0.1708,0.17568,0.56608,0.59536,0.17568,0.15128,-0.17568
-0.00976,0.183,-0.35624,-0.35136,-0.34648,0.16836,0.1708,0.56608,0.59536,0.17568,0.15128,-0.17568
-0.00976,0.18544,-0.36112,-0.35624,-0.35136,0.1708,0.1708,0.56608,0.59048,0.17568,0.1464,-0.17568
-0.00976,0.18788,-0.366,-0.36112,-0.35624,0.17324,0.16592,0.56608,0.5856,0.17568,0.1464,-0.18056
0,0.183,-0.366,-0.366,-0.366,0.183,0.16104,0.5612,0.58072,0.1708,0.14152,-0.17568
0.00488,0.18056,-0.366,-0.36844,-0.37088,0.18788,0.16104,0.5612,0.58072,0.16592,0.14152,-0.17568
0.00488,0.17812,-0.36112,-0.36356,-0.366,0.18544,0.16104,0.55632,0.58072,0.16592,0.14152,-0.17568
0.00976,0.17568,-0.36112,-0.366,-0.37088,0.19032,0.16592,0.55632,0.5856,0.16592,0.1464,-0.17568
0.00976,0.17568,-0.36112,-0.366,-0.37088,0.19032,0.16592,0.55632,0.5856,0.16592,0.1464,-0.17568
0.00976,0.17568,-0.36112,-0.366,-0.37088,0.19032,0.16592,0.55632,0.5856,0.16592,0.1464,-0.17568
0.00976,0.17568,-0.36112,-0.366,-0.37088,0.19032,0.16592,0.55632,0.5856,0.16592,0.1464,-0.1708
0.00976,0.17324,-0.35624,-0.36112,-0.366,0.18788,0.16104,0.55632,0.5856,0.16592,0.1464,-0.16592
0.00976,0.17324,-0.35624,-0.36112,-0.366,0.18788,0.16104,0.5612,0.5856,0.1708,0.1464,-0.16104
0.01464,0.1708,-0.35624,-0.36356,-0.37088,0.19276,0.16104,0.5612,0.5856,0.1708,0.15128,-0.15616
0.01952,0.16592,-0.35136,-0.36112,-0.37088,0.1952,0.1708,0.57584,0.60512,0.17568,0.15128,-0.15616
0.01952,0.16592,-0.35136,-0.36112,-0.37088,0.1952,0.18056,0.59048,0.61488,0.17568,0.15128,-0.15616
0.02928,0.16104,-0.35136,-0.366,-0.38064,0.20496,0.19032,0.59536,0.61976,0.18056,0.15616,-0.1464
0.01464,0.16592,-0.34648,-0.3538,-0.36112,0.18788,0.1952,0.60024,0.61976,0.18544,0.16104,-0.14152
0.0244,0.16104,-0.34648,-0.35868,-0.37088,0.19764,0.20008,0.60024,0.61976,0.18544,0.15616,-0.14152
0.02928,0.16836,-0.366,-0.38064,-0.39528,0.21228,0.1952,0.60024,0.61976,0.18056,0.15616,-0.1464
0.04392,0.16104,-0.366,-0.38796,-0.40992,0.22692,0.19032,0.60512,0.61488,0.1708,0.1464,-0.1464
0.05856,0.14884,-0.35624,-0.38552,-0.4148,0.23668,0.17568,0.60024,0.61,0.16104,0.1464,-0.1464
0.06832,0.14396,-0.35624,-0.3904,-0.42456,0.24644,0.15128,0.59048,0.60512,0.15616,0.14152,-0.1464
0.05856,0.1464,-0.35136,-0.38064,-0.40992,0.23424,0.12688,0.57096,0.59048,0.15616,0.14152,-0.1464
0.05856,0.14152,-0.3416,-0.37088,-0.40016,0.22936,0.11224,0.55632,0.5856,0.15616,0.14152,-0.14152
0.0488,0.15128,-0.35136,-0.37576,-0.40016,0.22448,0.11224,0.55144,0.5856,0.15616,0.14152,-0.13664
0.0488,0.15372,-0.35624,-0.38064,-0.40504,0.22692,0.11224,0.55144,0.58072,0.15128,0.13176,-0.13664
0.0488,0.1586,-0.366,-0.3904,-0.4148,0.2318,0.11224,0.55144,0.57584,0.15128,0.12688,-0.1464
0.05368,0.1586,-0.37088,-0.39772,-0.42456,0.23912,0.11712,0.54168,0.57096,0.14152,0.122,-0.1464
0.05368,0.1586,-0.37088,-0.39772,-0.42456,0.23912,0.11712,0.54168,0.57096,0.14152,0.122,-0.1464
0.05368,0.15616,-0.366,-0.39284,-0.41968,0.23668,0.11712,0.54168,0.57584,0.1464,0.122,-0.14152
0.03904,0.16348,-0.366,-0.38552,-0.40504,0.22204,0.122,0.54656,0.57584,0.1464,0.122,-0.13664
0.00976,0.17812,-0.366,-0.37088,-0.37576,0.19276,0.13176,0.54656,0.57584,0.15128,0.12688,-0.12688
-0.0244,0.1952,-0.366,-0.3538,-0.3416,0.1586,0.13664,0.54656,0.57584,0.15616,0.13176,-0.122
-0.00976,0.19276,-0.37576,-0.37088,-0.366,0.17812,0.13664,0.54656,0.57584,0.15616,0.13176,-0.122
-0.00976,0.1952,-0.38064,-0.37576,-0.37088,0.18056,0.13664,0.5368,0.56608,0.15128,0.12688,-0.122
-0.00488,0.19276,-0.38064,-0.3782,-0.37576,0.18544,0.13664,0.53192,0.5612,0.1464,0.122,-0.12688
-0.01464,0.19764,-0.38064,-0.37332,-0.366,0.17568,0.13176,0.53192,0.55632,0.13664,0.11712,-0.12688
-0.01464,0.1952,-0.37576,-0.36844,-0.36112,0.17324,0.13176,0.52704,0.55632,0.13664,0.11224,-0.12688
-0.01464,0.19276,-0.37088,-0.36356,-0.35624,0.1708,0.13176,0.52704,0.55632,0.13664,0.11224,-0.12688
-0.01464,0.19276,-0.37088,-0.36356,-0.35624,0.1708,0.13176,0.52704,0.5612,0.13664,0.11224,-0.122
-0.01464,0.19032,-0.366,-0.35868,-0.35136,0.16836,0.13176,0.52704,0.56608,0.13664,0.11224,-0.122
-0.0244,0.1952,-0.366,-0.3538,-0.3416,0.1586,0.13176,0.52704,0.56608,0.14152,0.11712,-0.11712
-0.01464,0.18788,-0.36112,-0.3538,-0.34648,0.16592,0.13176,0.52704,0.5612,0.14152,0.11712,-0.11712
-0.01464,0.19032,-0.366,-0.35868,-0.35136,0.16836,0.12688,0.52704,0.5612,0.14152,0.11712,-0.11712
-0.01464,0.19276,-0.37088,-0.36356,-0.35624,0.1708,0.12688,0.52704,0.5612,0.14152,0.11712,-0.11224
-0.0244,0.20008,-0.37576,-0.36356,-0.35136,0.16348,0.13176,0.52704,0.56608,0.13664,0.10248,-0.11224
-0.0244,0.20252,-0.38064,-0.36844,-0.35624,0.16592,0.13176,0.52704,0.56608,0.13664,0.10736,-0.11224
-0.0244,0.19764,-0.37088,-0.35868,-0.34648,0.16104,0.12688,0.52704,0.56608,0.13664,0.10736,-0.10736
-0.01952,0.19276,-0.366,-0.35624,-0.34648,0.16348,0.12688,0.52704,0.56608,0.13664,0.10736,-0.10736
0,0.18544,-0.37088,-0.37088,-0.37088,0.18544,0.11712,0.52704,0.56608,0.12688,0.10248,-0.10248
0.00976,0.183,-0.37576,-0.38064,-0.38552,0.19764,0.11712,0.52704,0.56608,0.122,0.0976,-0.10248
-0.00976,0.17812,-0.34648,-0.3416,-0.33672,0.16348,0.11712,0.53192,0.57584,0.1464,0.122,-0.07808
-0.0244,0.1464,-0.2684,-0.2562,-0.244,0.1098,0.11712,0.5368,0.61,0.20496,0.17568,-0.03416
-0.0488,0.10492,-0.16104,-0.13664,-0.11224,0.03172,0.1708,0.5612,0.63928,0.27328,0.23424,0.01952
-0.01952,0.05612,-0.09272,-0.08296,-0.0732,0.02684,0.12688,0.51728,0.64416,0.3172,0.28304,0.06344
0.11712,-0.03416,-0.0488,-0.10736,-0.16592,0.14152,-0.05368,0.43432,0.64904,0.35136,0.30744,0.0976
0.26352,-0.1342,0.00488,-0.12688,-0.25864,0.26108,-0.26352,0.32208,0.62952,0.3904,0.35136,0.14152
0.3904,-0.27084,0.15128,-0.04392,-0.23912,0.31476,-0.5368,0.1708,0.60512,0.46848,0.4392,0.244
0.5368,-0.4514,0.366,0.0976,-0.1708,0.3538,-0.81984,0.01952,0.57584,0.5612,0.55632,0.38064
0.73688,-0.55632,0.37576,0.00732,-0.36112,0.549,-1.20048,-0.20496,0.33672,0.40504,0.49776,0.38064
0.88816,-0.47824,0.06832,-0.37576,-0.81984,0.854,-1.42496,-0.33184,0.0732,0.05856,0.25376,0.20984
0.94672,-0.3782,-0.19032,-0.66368,-1.13704,1.04188,-1.53232,-0.39528,-0.12688,-0.22936,0.01952,0.03904
0.94184,-0.28548,-0.37088,-0.8418,-1.31272,1.12728,-1.49816,-0.41968,-0.244,-0.39528,-0.12688,-0.0732
0.79544,-0.19276,-0.40992,-0.80764,-1.20536,1.0004,-1.42984,-0.54168,-0.3416,-0.43432,-0.15616,-0.08296
0.60024,-0.06344,-0.47336,-0.77348,-1.0736,0.83692,-1.2444,-0.60024,-0.38552,-0.44896,-0.18056,-0.0976
0.41968,0,-0.41968,-0.62952,-0.83936,0.62952,-0.854,-0.38064,-0.19032,-0.28792,-0.07808,-0.05856
0.32696,0.04148,-0.40992,-0.5734,-0.73688,0.53192,-0.57584,-0.12688,0.00488,-0.1708,-0.0244,-0.0488
0.28792,0.05612,-0.40016,-0.54412,-0.68808,0.488,-0.4392,0.05368,0.18056,-0.09272,0.00488,-0.0488
0.22936,0.07564,-0.38064,-0.49532,-0.61,0.41968,-0.29768,0.17568,0.30256,-0.0244,0.04392,-0.0488
0.12688,0.12444,-0.37576,-0.4392,-0.50264,0.31476,-0.13176,0.28304,0.38064,0.03904,0.07808,-0.04392
0.05856,0.16348,-0.38552,-0.4148,-0.44408,0.25132,-0.01464,0.39528,0.45872,0.08784,0.10248,-0.03904
0.04392,0.17324,-0.3904,-0.41236,-0.43432,0.23912,0.0488,0.49776,0.54168,0.12688,0.11224,-0.05856
0.00976,0.20008,-0.40992,-0.4148,-0.41968,0.21472,0.122,0.54656,0.5856,0.14152,0.11224,-0.07808
-0.01464,0.22204,-0.42944,-0.42212,-0.4148,0.20008,0.1708,0.55632,0.59048,0.1464,0.11712,-0.09272
-0.03904,0.244,-0.44896,-0.42944,-0.40992,0.18544,0.1952,0.59048,0.60024,0.15128,0.11224,-0.10248
-0.03904,0.244,-0.44896,-0.42944,-0.40992,0.18544,0.1952,0.61488,0.61488,0.15128,0.11224,-0.10736
-0.03904,0.244,-0.44896,-0.42944,-0.40992,0.18544,0.20496,0.61976,0.62464,0.15616,0.11224,-0.10736
-0.0488,0.25132,-0.45384,-0.42944,-0.40504,0.17812,0.21472,0.62464,0.62464,0.15616,0.11224,-0.10736
-0.0488,0.25132,-0.45384,-0.42944,-0.40504,0.17812,0.22936,0.62952,0.6344,0.16592,0.11712,-0.10736
-0.0488,0.25864,-0.46848,-0.44408,-0.41968,0.18544,0.22936,0.6344,0.63928,0.16592,0.11712,-0.10736
-0.05368,0.25864,-0.4636,-0.43676,-0.40992,0.17812,0.23424,0.63928,0.64416,0.17568,0.122,-0.10736
-0.06344,0.26352,-0.4636,-0.43188,-0.40016,0.16836,0.23912,0.63928,0.64416,0.18056,0.12688,-0.11224
-0.0732,0.27084,-0.46848,-0.43188,-0.39528,0.16104,0.23912,0.64416,0.64416,0.18544,0.13176,-0.11224
-0.0732,0.26596,-0.45872,-0.42212,-0.38552,0.15616,0.244,0.64416,0.65392,0.19032,0.13176,-0.11224
-0.0732,0.26352,-0.45384,-0.41724,-0.38064,0.15372,0.244,0.64416,0.6588,0.19032,0.13664,-0.11224
-0.0732,0.26352,-0.45384,-0.41724,-0.38064,0.15372,0.24888,0.64904,0.66856,0.20008,0.13664,-0.10736
-0.0732,0.26352,-0.45384,-0.41724,-0.38064,0.15372,0.24888,0.65392,0.67344,0.21472,0.13664,-0.10248
-0.0732,0.27084,-0.46848,-0.43188,-0.39528,0.16104,0.24888,0.65392,0.67832,0.20496,0.13664,-0.10248
-0.0732,0.27816,-0.48312,-0.44652,-0.40992,0.16836,0.25376,0.6588,0.67832,0.20008,0.14152,-0.10248
-0.06344,0.27328,-0.48312,-0.4514,-0.41968,0.17812,0.25376,0.6588,0.67832,0.20496,0.1464,-0.10736
-0.05368,0.2684,-0.48312,-0.45628,-0.42944,0.18788,0.25376,0.66368,0.6832,0.20984,0.1464,-0.11224
-0.05368,0.2684,-0.48312,-0.45628,-0.42944,0.18788,0.25376,0.66368,0.6832,0.20984,0.1464,-0.11224
-0.05368,0.27084,-0.488,-0.46116,-0.43432,0.19032,0.25376,0.66856,0.6832,0.20984,0.1464,-0.11224
-0.06344,0.28304,-0.50264,-0.47092,-0.4392,0.18788,0.25864,0.67344,0.68808,0.20984,0.1464,-0.11224
-0.0732,0.29524,-0.51728,-0.48068,-0.44408,0.18544,0.25864,0.67344,0.69296,0.20984,0.1464,-0.10736
-0.0732,0.29036,-0.50752,-0.47092,-0.43432,0.18056,0.25864,0.67832,0.69784,0.20984,0.15128,-0.10248
-0.0732,0.29036,-0.50752,-0.47092,-0.43432,0.18056,0.25864,0.6832,0.69784,0.20984,0.15616,-0.10248
-0.0732,0.29036,-0.50752,-0.47092,-0.43432,0.18056,0.25864,0.6832,0.69784,0.21472,0.15616,-0.10736
-0.0732,0.2928,-0.5124,-0.4758,-0.4392,0.183,0.26352,0.68808,0.69784,0.2196,0.15128,-0.10736
-0.0732,0.29524,-0.51728,-0.48068,-0.44408,0.18544,0.26352,0.68808,0.70272,0.2196,0.15128,-0.11224
-0.0732,0.29768,-0.52216,-0.48556,-0.44896,0.18788,0.26352,0.69296,0.70272,0.2196,0.15128,-0.11224
-0.06344,0.2928,-0.52216,-0.49044,-0.45872,0.19764,0.27328,0.69784,0.71248,0.22448,0.15616,-0.11712
-0.05856,0.29036,-0.52216,-0.49288,-0.4636,0.20252,0.27816,0.70272,0.71736,0.22936,0.16104,-0.11712
-0.0488,0.2806,-0.5124,-0.488,-0.4636,0.2074,0.28304,0.7076,0.72224,0.22936,0.16104,-0.11712
-0.0488,0.27816,-0.50752,-0.48312,-0.45872,0.20496,0.28304,0.71736,0.72712,0.22936,0.16104,-0.11712
-0.03904,0.27328,-0.50752,-0.488,-0.46848,0.21472,0.28792,0.72224,0.73688,0.23424,0.16592,-0.11712
-0.02928,0.2684,-0.50752,-0.49288,-0.47824,0.22448,0.28792,0.72712,0.74664,0.23912,0.16592,-0.11712
-0.02928,0.26596,-0.50264,-0.488,-0.47336,0.22204,0.2928,0.73688,0.74664,0.23912,0.1708,-0.11712
-0.03904,0.2684,-0.49776,-0.47824,-0.45872,0.20984,0.29768,0.74176,0.76128,0.23912,0.1708,-0.11712
-0.03904,0.26596,-0.49288,-0.47336,-0.45384,0.2074,0.31232,0.7564,0.77104,0.2684,0.1952,-0.0976
-0.02928,0.26108,-0.49288,-0.47824,-0.4636,0.21716,0.3172,0.77592,0.7808,0.2684,0.19032,-0.0976
-0.03904,0.26596,-0.49288,-0.47336,-0.45384,0.2074,0.32696,0.79544,0.80032,0.27816,0.19032,-0.0976
-0.04392,0.26596,-0.488,-0.46604,-0.44408,0.20008,0.33672,0.81496,0.81008,0.28304,0.1952,-0.09272
-0.03416,0.26108,-0.488,-0.47092,-0.45384,0.20984,0.3416,0.83448,0.81984,0.2928,0.20496,-0.09272
-0.02928,0.2562,-0.48312,-0.46848,-0.45384,0.21228,0.34648,0.84424,0.83936,0.30744,0.20984,-0.08296
-0.00488,0.244,-0.48312,-0.48068,-0.47824,0.23668,0.35136,0.85888,0.84424,0.30256,0.21472,-0.08784
0.01464,0.23912,-0.49288,-0.5002,-0.50752,0.26108,0.35136,0.87352,0.854,0.29768,0.21472,-0.09272
0.00488,0.24156,-0.488,-0.49044,-0.49288,0.24888,0.35624,0.88328,0.86376,0.30256,0.20984,-0.08296
0,0.244,-0.488,-0.488,-0.488,0.244,0.36112,0.89792,0.86864,0.30256,0.20496,-0.07808
0.00976,0.23912,-0.488,-0.49288,-0.49776,0.25376,0.366,0.91256,0.8784,0.30256,0.21472,-0.0732
0.01952,0.22936,-0.47824,-0.488,-0.49776,0.25864,0.37088,0.9272,0.89304,0.30744,0.21472,-0.0732
0.01952,0.22692,-0.47336,-0.48312,-0.49288,0.2562,0.37088,0.94184,0.90768,0.3172,0.22936,-0.06344
0.0244,0.2196,-0.4636,-0.4758,-0.488,0.2562,0.37576,0.96136,0.92232,0.32696,0.244,-0.05368
0.04392,0.19764,-0.4392,-0.46116,-0.48312,0.26352,0.37576,0.97112,0.94184,0.34648,0.25864,-0.03904
0.05368,0.17812,-0.40992,-0.43676,-0.4636,0.25864,0.37576,0.98088,0.96136,0.37088,0.27328,-0.0244
0.0732,0.1708,-0.4148,-0.4514,-0.488,0.2806,0.37576,0.98576,0.96136,0.37576,0.2928,-0.00976
0.0976,0.1586,-0.4148,-0.4636,-0.5124,0.305,0.38064,0.99064,0.97112,0.38552,0.2928,-0.00976
0.08784,0.16592,-0.41968,-0.4636,-0.50752,0.29768,0.38064,1.00528,0.976,0.37576,0.2928,-0.01952
0.08784,0.16348,-0.4148,-0.45872,-0.50264,0.29524,0.3904,1.0248,0.99552,0.38064,0.30256,-0.00976
0.10248,0.15128,-0.40504,-0.45628,-0.50752,0.305,0.39528,1.02968,1.00528,0.3904,0.30744,-0.00488
0.11712,0.14152,-0.40016,-0.45872,-0.51728,0.3172,0.39528,1.03456,1.01504,0.40016,0.30744,-0.00488
0.13176,0.12688,-0.38552,-0.4514,-0.51728,0.32452,0.3904,1.03944,1.02968,0.4148,0.3172,0.00976
0.13176,0.12688,-0.38552,-0.4514,-0.51728,0.32452,0.3904,1.04432,1.03944,0.42456,0.33184,0.00976
0.13176,0.12688,-0.38552,-0.4514,-0.51728,0.32452,0.38064,1.04432,1.03944,0.42456,0.33184,0.01464
0.1464,0.11956,-0.38552,-0.45872,-0.53192,0.33916,0.37088,1.03944,1.03944,0.42456,0.33184,0.01952
0.15128,0.11712,-0.38552,-0.46116,-0.5368,0.34404,0.36112,1.0248,1.03456,0.42944,0.33184,0.0244
0.15128,0.11712,-0.38552,-0.46116,-0.5368,0.34404,0.3416,1.01992,1.02968,0.42944,0.33184,0.0244
0.16104,0.11468,-0.3904,-0.47092,-0.55144,0.35624,0.32696,1.01016,1.01504,0.41968,0.33184,0.0244
0.15128,0.122,-0.39528,-0.47092,-0.54656,0.34892,0.31232,0.98576,1.00528,0.41968,0.33184,0.01952
0.14152,0.12932,-0.40016,-0.47092,-0.54168,0.3416,0.31232,0.98576,1.0004,0.41968,0.33672,0.01952
0.13664,0.13176,-0.40016,-0.46848,-0.5368,0.33672,0.30256,0.97112,0.99064,0.41968,0.33672,0.01952
0.13176,0.1342,-0.40016,-0.46604,-0.53192,0.33184,0.29768,0.95648,0.98576,0.41968,0.3416,0.01464
0.11712,0.1464,-0.40992,-0.46848,-0.52704,0.32208,0.2928,0.94184,0.98088,0.42456,0.34648,0.01464
0.10248,0.16104,-0.42456,-0.4758,-0.52704,0.31476,0.28792,0.92232,0.96624,0.41968,0.33672,0.00488
0.0976,0.16592,-0.42944,-0.47824,-0.52704,0.31232,0.28304,0.9028,0.95648,0.42456,0.33184,0.00488
0.06344,0.19276,-0.44896,-0.48068,-0.5124,0.28792,0.28792,0.88328,0.95648,0.41968,0.33184,0
0.05368,0.20008,-0.45384,-0.48068,-0.50752,0.2806,0.2928,0.86376,0.94184,0.40992,0.32696,-0.00488
0.0488,0.2074,-0.4636,-0.488,-0.5124,0.2806,0.28304,0.854,0.92232,0.40504,0.3172,-0.01464
0.02928,0.22204,-0.47336,-0.488,-0.50264,0.26596,0.28304,0.83936,0.90768,0.40016,0.3172,-0.00976
0.02928,0.2196,-0.46848,-0.48312,-0.49776,0.26352,0.27816,0.82472,0.89792,0.3904,0.30256,-0.0244
0.02928,0.2196,-0.46848,-0.48312,-0.49776,0.26352,0.27816,0.81008,0.88816,0.38552,0.29768,-0.0244
0.00976,0.244,-0.49776,-0.50264,-0.50752,0.25864,0.28304,0.8052,0.8784,0.37088,0.2928,-0.03904
-0.01464,0.2684,-0.52216,-0.51484,-0.50752,0.24644,0.27816,0.79544,0.86864,0.366,0.27816,-0.0488
-0.01464,0.27572,-0.5368,-0.52948,-0.52216,0.25376,0.27816,0.79056,0.86376,0.35624,0.27328,-0.05856
-0.01464,0.28548,-0.55632,-0.549,-0.54168,0.26352,0.27328,0.77104,0.84912,0.3416,0.25376,-0.06832
-0.00488,0.28548,-0.56608,-0.56364,-0.5612,0.27816,0.2684,0.76128,0.83936,0.33672,0.25376,-0.0732
0,0.28548,-0.57096,-0.57096,-0.57096,0.28548,0.2684,0.75152,0.83448,0.33184,0.24888,-0.07808
0,0.2806,-0.5612,-0.5612,-0.5612,0.2806,0.2684,0.74664,0.8296,0.33184,0.25376,-0.07808
-0.01464,0.28548,-0.55632,-0.549,-0.54168,0.26352,0.2684,0.74664,0.82472,0.3416,0.25864,-0.07808
-0.01952,0.29036,-0.5612,-0.55144,-0.54168,0.26108,0.25864,0.73688,0.81984,0.33672,0.25864,-0.07808
-0.01952,0.2928,-0.56608,-0.55632,-0.54656,0.26352,0.25376,0.73688,0.81496,0.33184,0.25376,-0.07808
-0.01952,0.29524,-0.57096,-0.5612,-0.55144,0.26596,0.24888,0.72712,0.81008,0.32696,0.25376,-0.07808
-0.01952,0.29524,-0.57096,-0.5612,-0.55144,0.26596,0.244,0.71736,0.8052,0.32696,0.24888,-0.0732
-0.01952,0.29524,-0.57096,-0.5612,-0.55144,0.26596,0.23912,0.71736,0.8052,0.32696,0.24888,-0.0732
-0.01464,0.2928,-0.57096,-0.56364,-0.55632,0.27084,0.23424,0.71736,0.8052,0.33184,0.24888,-0.07808
-0.01464,0.2928,-0.57096,-0.56364,-0.55632,0.27084,0.23424,0.7076,0.8052,0.33184,0.24888,-0.07808
-0.01952,0.29524,-0.57096,-0.5612,-0.55144,0.26596,0.22936,0.70272,0.80032,0.33184,0.24888,-0.07808
-0.01952,0.29524,-0.57096,-0.5612,-0.55144,0.26596,0.22936,0.70272,0.79544,0.33184,0.244,-0.07808
-0.01952,0.29524,-0.57096,-0.5612,-0.55144,0.26596,0.22448,0.70272,0.79056,0.33184,0.244,-0.08296
-0.01952,0.29524,-0.57096,-0.5612,-0.55144,0.26596,0.2196,0.69784,0.78568,0.32696,0.244,-0.07808
-0.0244,0.29768,-0.57096,-0.55876,-0.54656,0.26108,0.2196,0.69784,0.78568,0.32208,0.24888,-0.07808
-0.02928,0.30012,-0.57096,-0.55632,-0.54168,0.2562,0.20984,0.68808,0.7808,0.3172,0.244,-0.08296
-0.03904,0.30744,-0.57584,-0.55632,-0.5368,0.24888,0.20496,0.6832,0.7808,0.31232,0.244,-0.08784
-0.02928,0.30256,-0.57584,-0.5612,-0.54656,0.25864,0.20496,0.6832,0.7808,0.31232,0.244,-0.08784
-0.01952,0.29768,-0.57584,-0.56608,-0.55632,0.2684,0.20496,0.6832,0.7808,0.31232,0.244,-0.08784
-0.00976,0.28792,-0.56608,-0.5612,-0.55632,0.27328,0.20984,0.68808,0.78568,0.32208,0.25376,-0.07808
-0.00488,0.27816,-0.55144,-0.549,-0.54656,0.27084,0.20984,0.69296,0.78568,0.32696,0.25864,-0.0732
-0.00488,0.27328,-0.54168,-0.53924,-0.5368,0.26596,0.21472,0.69784,0.79056,0.33672,0.26352,-0.06832
-0.00488,0.2684,-0.53192,-0.52948,-0.52704,0.26108,0.2196,0.69784,0.79056,0.33672,0.2684,-0.06832
-0.00488,0.26596,-0.52704,-0.5246,-0.52216,0.25864,0.22936,0.7076,0.8052,0.3416,0.2684,-0.06832
-0.00976,0.2684,-0.52704,-0.52216,-0.51728,0.25376,0.23912,0.71736,0.81008,0.3416,0.2684,-0.06832
0.01464,0.26108,-0.5368,-0.54412,-0.55144,0.28304,0.23912,0.72224,0.81496,0.3416,0.2684,-0.06344
0.01464,0.26352,-0.54168,-0.549,-0.55632,0.28548,0.23424,0.72712,0.81496,0.3416,0.2684,-0.06344
0.03904,0.244,-0.52704,-0.54656,-0.56608,0.30256,0.23424,0.72712,0.81008,0.3416,0.26352,-0.06344
0.05856,0.23668,-0.53192,-0.5612,-0.59048,0.32452,0.22448,0.72712,0.8052,0.33672,0.26352,-0.06832
0.04392,0.24888,-0.54168,-0.56364,-0.5856,0.31476,0.22448,0.72712,0.80032,0.32696,0.24888,-0.06832
0.02928,0.2562,-0.54168,-0.55632,-0.57096,0.30012,0.21472,0.71736,0.79544,0.3172,0.244,-0.06832
0.03904,0.25132,-0.54168,-0.5612,-0.58072,0.30988,0.1952,0.7076,0.79056,0.31232,0.244,-0.06832
0.02928,0.25376,-0.5368,-0.55144,-0.56608,0.29768,0.17568,0.68808,0.77592,0.31232,0.24888,-0.06832
0.02928,0.24888,-0.52704,-0.54168,-0.55632,0.2928,0.15616,0.67344,0.77104,0.31232,0.24888,-0.06344
0.01952,0.25864,-0.5368,-0.54656,-0.55632,0.28792,0.15128,0.66856,0.77104,0.31232,0.24888,-0.05856
0.01952,0.2562,-0.53192,-0.54168,-0.55144,0.28548,0.15128,0.66856,0.76616,0.31232,0.244,-0.05856
0.01952,0.2562,-0.53192,-0.54168,-0.55144,0.28548,0.15128,0.66856,0.76128,0.3172,0.244,-0.06832
0.0244,0.25376,-0.53192,-0.54412,-0.55632,0.29036,0.15616,0.6588,0.7564,0.30744,0.23912,-0.06832
0.0244,0.25132,-0.52704,-0.53924,-0.55144,0.28792,0.15616,0.6588,0.7564,0.30744,0.23912,-0.06832
0.0244,0.24888,-0.52216,-0.53436,-0.54656,0.28548,0.15616,0.6588,0.76128,0.30744,0.23912,-0.06832
0.00976,0.2562,-0.52216,-0.52704,-0.53192,0.27084,0.16104,0.66368,0.76128,0.30256,0.23912,-0.06832
0.00488,0.25864,-0.52216,-0.5246,-0.52704,0.26596,0.1708,0.66368,0.7564,0.30256,0.23424,-0.06832
-0.00488,0.26352,-0.52216,-0.51972,-0.51728,0.2562,0.17568,0.66368,0.75152,0.30256,0.22936,-0.0732
-0.00976,0.2684,-0.52704,-0.52216,-0.51728,0.25376,0.1708,0.6588,0.74664,0.29768,0.22936,-0.0732
-0.02928,0.27816,-0.52704,-0.5124,-0.49776,0.23424,0.16592,0.64416,0.732,0.28792,0.22448,-0.0732
-0.01464,0.27084,-0.52704,-0.51972,-0.5124,0.24888,0.16592,0.63928,0.732,0.28792,0.22448,-0.07808
-0.01464,0.27084,-0.52704,-0.51972,-0.5124,0.24888,0.16104,0.63928,0.732,0.28304,0.22448,-0.07808
-0.01464,0.2684,-0.52216,-0.51484,-0.50752,0.24644,0.16104,0.6344,0.732,0.28304,0.2196,-0.07808
-0.01464,0.26596,-0.51728,-0.50996,-0.50264,0.244,0.16104,0.6344,0.732,0.28304,0.2196,-0.07808
-0.00976,0.26352,-0.51728,-0.5124,-0.50752,0.24888,0.16104,0.6344,0.732,0.27816,0.21472,-0.07808
-0.00488,0.25864,-0.5124,-0.50996,-0.50752,0.25132,0.16104,0.6344,0.732,0.27328,0.20984,-0.08296
-0.01464,0.26352,-0.5124,-0.50508,-0.49776,0.24156,0.16104,0.6344,0.732,0.27816,0.21472,-0.07808
-0.00488,0.2562,-0.50752,-0.50508,-0.50264,0.24888,0.16104,0.6344,0.72712,0.27816,0.21472,-0.07808
-0.03904,0.27328,-0.50752,-0.488,-0.46848,0.21472,0.15616,0.6344,0.72224,0.27816,0.21472,-0.07808
-0.0732,0.29036,-0.50752,-0.47092,-0.43432,0.18056,0.15616,0.6344,0.71736,0.27816,0.21472,-0.0732
-0.05368,0.2806,-0.50752,-0.48068,-0.45384,0.20008,0.16104,0.6344,0.72224,0.27328,0.20496,-0.0732
-0.0244,0.26596,-0.50752,-0.49532,-0.48312,0.22936,0.16104,0.6344,0.72224,0.27328,0.21472,-0.0732
-0.0244,0.25864,-0.49288,-0.48068,-0.46848,0.22204,0.15616,0.6344,0.72224,0.27328,0.21472,-0.06832
-0.01952,0.25132,-0.48312,-0.47336,-0.4636,0.22204,0.15616,0.6344,0.72224,0.27328,0.21472,-0.06832
-0.00976,0.244,-0.47824,-0.47336,-0.46848,0.22936,0.1464,0.6344,0.72224,0.2684,0.20984,-0.06344
-0.00976,0.24156,-0.47336,-0.46848,-0.4636,0.22692,0.1464,0.6344,0.72224,0.2684,0.20496,-0.06344
-0.01464,0.22448,-0.43432,-0.427,-0.41968,0.20252,0.1464,0.6344,0.732,0.29768,0.23424,-0.03904
-0.01464,0.18056,-0.34648,-0.33916,-0.33184,0.1586,0.1464,0.6344,0.76616,0.36112,0.2928,0.00488
-0.01952,0.12932,-0.23912,-0.22936,-0.2196,0.10004,0.15128,0.64416,0.79056,0.43432,0.35624,0.06344
0.02928,0.07076,-0.1708,-0.18544,-0.20008,0.11468,0.05856,0.5856,0.79056,0.48312,0.40992,0.11224
0.18056,-0.04148,-0.0976,-0.18788,-0.27816,0.22936,-0.13664,0.49288,0.79544,0.52216,0.44896,0.16592
0.3416,-0.16348,-0.01464,-0.18544,-0.35624,0.34892,-0.36112,0.37088,0.77592,0.56608,0.50752,0.22936
0.44896,-0.2806,0.11224,-0.11224,-0.33672,0.39284,-0.62952,0.2196,0.72224,0.60512,0.57584,0.32696
0.57584,-0.44164,0.30744,0.01952,-0.2684,0.42212,-0.90768,0.06832,0.66368,0.6588,0.67344,0.45872
0.732,-0.48068,0.22936,-0.13664,-0.50264,0.61732,-1.22,-0.122,0.41968,0.45384,0.55144,0.39528
0.83936,-0.33672,-0.16592,-0.5856,-1.00528,0.92232,-1.37616,-0.21472,0.15128,0.05856,0.244,0.16104
0.85888,-0.24888,-0.36112,-0.79056,-1.22,1.03944,-1.42984,-0.27816,-0.00488,-0.16104,0.06832,0.03904
0.81496,-0.16836,-0.47824,-0.88572,-1.2932,1.05408,-1.342,-0.30256,-0.07808,-0.25864,-0.01952,-0.0244
0.66856,-0.0854,-0.49776,-0.83204,-1.16632,0.91744,-1.22976,-0.37088,-0.13664,-0.25864,-0.0244,-0.03416
0.47336,0.03416,-0.54168,-0.77836,-1.01504,0.7442,-1.0004,-0.37576,-0.14152,-0.23424,-0.0244,-0.0488
0.32208,0.08296,-0.488,-0.64904,-0.81008,0.56608,-0.6588,-0.15616,0.05368,-0.09272,0.06344,-0.01464
0.25864,0.1098,-0.47824,-0.60756,-0.73688,0.49776,-0.42944,0.0976,0.24888,0.00488,0.10248,-0.00976
0.21472,0.12444,-0.4636,-0.57096,-0.67832,0.44652,-0.30744,0.24888,0.40016,0.07808,0.14152,-0.00976
0.15128,0.14396,-0.4392,-0.51484,-0.59048,0.37088,-0.18056,0.3416,0.49776,0.14152,0.19032,-0.00976
0.0732,0.18788,-0.44896,-0.48556,-0.52216,0.29768,-0.04392,0.43432,0.55632,0.17568,0.19032,-0.0244
0.02928,0.22204,-0.47336,-0.488,-0.50264,0.26596,0.04392,0.53192,0.61488,0.1952,0.18056,-0.03904
0.01464,0.23424,-0.48312,-0.49044,-0.49776,0.2562,0.10248,0.61976,0.6832,0.22936,0.19032,-0.05856
-0.01952,0.26352,-0.50752,-0.49776,-0.488,0.23424,0.1708,0.65392,0.71248,0.23912,0.19032,-0.07808
-0.03416,0.27816,-0.52216,-0.50508,-0.488,0.22692,0.2196,0.6588,0.71736,0.244,0.19032,-0.09272
-0.0488,0.2928,-0.5368,-0.5124,-0.488,0.2196,0.244,0.68808,0.72712,0.24888,0.18056,-0.10248
-0.04392,0.29036,-0.5368,-0.51484,-0.49288,0.22448,0.23424,0.7076,0.73688,0.24888,0.18056,-0.10736
-0.03904,0.28792,-0.5368,-0.51728,-0.49776,0.22936,0.23424,0.7076,0.74176,0.25376,0.18056,-0.10736
-0.0488,0.29524,-0.54168,-0.51728,-0.49288,0.22204,0.23912,0.71248,0.74176,0.25376,0.18056,-0.10736
-0.0488,0.29524,-0.54168,-0.51728,-0.49288,0.22204,0.24888,0.71736,0.75152,0.26352,0.18544,-0.10736
-0.0488,0.30256,-0.55632,-0.53192,-0.50752,0.22936,0.24888,0.72224,0.7564,0.26352,0.18544,-0.10736
-0.05368,0.30256,-0.55144,-0.5246,-0.49776,0.22204,0.25376,0.72712,0.76128,0.27328,0.19032,-0.10736
-0.05368,0.30256,-0.55144,-0.5246,-0.49776,0.22204,0.25864,0.72712,0.76128,0.2684,0.18544,-0.11712
-0.05368,0.305,-0.55632,-0.52948,-0.50264,0.22448,0.25864,0.732,0.76128,0.26352,0.18056,-0.122
-0.05368,0.30256,-0.55144,-0.5246,-0.49776,0.22204,0.26352,0.732,0.76616,0.2684,0.18056,-0.122
-0.05368,0.30256,-0.55144,-0.5246,-0.49776,0.22204,0.26352,0.732,0.76616,0.2684,0.18544,-0.122
-0.05368,0.30012,-0.54656,-0.51972,-0.49288,0.2196,0.2684,0.74176,0.77592,0.2684,0.19032,-0.11712
-0.05368,0.29768,-0.54168,-0.51484,-0.488,0.21716,0.2684,0.75152,0.7808,0.27328,0.1952,-0.11224
-0.05368,0.29768,-0.54168,-0.51484,-0.488,0.21716,0.2684,0.75152,0.78568,0.27328,0.1952,-0.11224
-0.05368,0.29768,-0.54168,-0.51484,-0.488,0.21716,0.27328,0.7564,0.78568,0.27816,0.20008,-0.11224
-0.05368,0.30012,-0.54656,-0.51972,-0.49288,0.2196,0.27328,0.7564,0.7808,0.28304,0.20008,-0.11712
-0.05368,0.30256,-0.55144,-0.5246,-0.49776,0.22204,0.27328,0.76128,0.7808,0.28792,0.1952,-0.122
-0.05368,0.30256,-0.55144,-0.5246,-0.49776,0.22204,0.27328,0.7564,0.7808,0.28304,0.1952,-0.122
-0.05368,0.305,-0.55632,-0.52948,-0.50264,0.22448,0.27328,0.7564,0.7808,0.27816,0.1952,-0.122
-0.05856,0.30988,-0.5612,-0.53192,-0.50264,0.22204,0.27816,0.76128,0.7808,0.27816,0.1952,-0.12688
-0.06344,0.31476,-0.56608,-0.53436,-0.50264,0.2196,0.27816,0.76128,0.7808,0.27816,0.1952,-0.12688
-0.06344,0.31476,-0.56608,-0.53436,-0.50264,0.2196,0.27816,0.76616,0.78568,0.27816,0.19032,-0.12688
-0.06344,0.31964,-0.57584,-0.54412,-0.5124,0.22448,0.27816,0.77104,0.78568,0.27816,0.18544,-0.13176
-0.05368,0.31476,-0.57584,-0.549,-0.52216,0.23424,0.27816,0.77104,0.78568,0.27328,0.18544,-0.13664
-0.04392,0.31232,-0.58072,-0.55876,-0.5368,0.24644,0.28304,0.77592,0.78568,0.2684,0.18056,-0.13664
-0.04392,0.31232,-0.58072,-0.55876,-0.5368,0.24644,0.28304,0.77592,0.79056,0.2684,0.18056,-0.13664
-0.04392,0.31232,-0.58072,-0.55876,-0.5368,0.24644,0.28304,0.7808,0.79056,0.2684,0.18056,-0.13176
-0.0488,0.3172,-0.5856,-0.5612,-0.5368,0.244,0.28792,0.7808,0.79544,0.2684,0.18056,-0.13664
-0.05856,0.32452,-0.59048,-0.5612,-0.53192,0.23668,0.28792,0.7808,0.79544,0.2684,0.18056,-0.13664
-0.0488,0.3172,-0.5856,-0.5612,-0.5368,0.244,0.2928,0.78568,0.80032,0.2684,0.18056,-0.14152
-0.0488,0.3172,-0.5856,-0.5612,-0.5368,0.244,0.2928,0.79544,0.8052,0.2684,0.18056,-0.1464
-0.03904,0.31232,-0.5856,-0.56608,-0.54656,0.25376,0.30256,0.80032,0.81008,0.27328,0.18544,-0.1464
-0.02928,0.30744,-0.5856,-0.57096,-0.55632,0.26352,0.30744,0.8052,0.81496,0.27816,0.18544,-0.1464
-0.01952,0.29768,-0.57584,-0.56608,-0.55632,0.2684,0.31232,0.81984,0.81984,0.27816,0.19032,-0.1464
-0.01952,0.2928,-0.56608,-0.55632,-0.54656,0.26352,0.3172,0.8296,0.83936,0.27816,0.19032,-0.1464
-0.0244,0.2928,-0.5612,-0.549,-0.5368,0.2562,0.33184,0.83936,0.84912,0.30256,0.20984,-0.13176
-0.01952,0.29036,-0.5612,-0.55144,-0.54168,0.26108,0.33672,0.854,0.85888,0.29768,0.20008,-0.13664
-0.01952,0.29036,-0.5612,-0.55144,-0.54168,0.26108,0.3416,0.86864,0.87352,0.30256,0.20008,-0.13664
-0.01464,0.28548,-0.55632,-0.549,-0.54168,0.26352,0.34648,0.88328,0.8784,0.30256,0.20496,-0.13176
-0.00488,0.27816,-0.55144,-0.549,-0.54656,0.27084,0.34648,0.9028,0.88328,0.30256,0.20984,-0.13176
0,0.27084,-0.54168,-0.54168,-0.54168,0.27084,0.34648,0.91256,0.89792,0.30744,0.20984,-0.122
0.01464,0.25864,-0.53192,-0.53924,-0.54656,0.2806,0.35624,0.9272,0.9028,0.31232,0.2196,-0.12688
0.0244,0.25376,-0.53192,-0.54412,-0.55632,0.29036,0.36112,0.94184,0.91256,0.3172,0.22448,-0.13176
0.0244,0.24888,-0.52216,-0.53436,-0.54656,0.28548,0.366,0.9516,0.9272,0.32696,0.22448,-0.122
0.02928,0.244,-0.51728,-0.53192,-0.54656,0.28792,0.37088,0.96624,0.93696,0.33184,0.22448,-0.11712
0.03904,0.23912,-0.51728,-0.5368,-0.55632,0.29768,0.37088,0.98088,0.94672,0.33672,0.23912,-0.10736
0.0488,0.22936,-0.50752,-0.53192,-0.55632,0.30256,0.37088,0.99552,0.96136,0.34648,0.244,-0.10248
0.05368,0.22204,-0.49776,-0.5246,-0.55144,0.30256,0.37088,1.00528,0.97112,0.35136,0.24888,-0.0976
0.06344,0.20984,-0.48312,-0.51484,-0.54656,0.305,0.37576,1.01992,0.98088,0.35624,0.25376,-0.09272
0.08296,0.19764,-0.47824,-0.51972,-0.5612,0.32208,0.37576,1.02968,0.99064,0.36112,0.25864,-0.08784
0.09272,0.18788,-0.46848,-0.51484,-0.5612,0.32696,0.37576,1.03944,1.0004,0.37088,0.26352,-0.08296
0.0976,0.18056,-0.45872,-0.50752,-0.55632,0.32696,0.37576,1.0492,1.01504,0.37576,0.28304,-0.06344
0.10736,0.16836,-0.44408,-0.49776,-0.55144,0.3294,0.38064,1.05896,1.03944,0.38552,0.28304,-0.05856
0.11712,0.1586,-0.43432,-0.49288,-0.55144,0.33428,0.38064,1.0736,1.04432,0.3904,0.28792,-0.05856
0.13664,0.13908,-0.4148,-0.48312,-0.55144,0.34404,0.3904,1.09312,1.06384,0.40992,0.30256,-0.03904
0.14152,0.13176,-0.40504,-0.4758,-0.54656,0.34404,0.39528,1.10288,1.07848,0.41968,0.30744,-0.02928
0.1464,0.12688,-0.40016,-0.47336,-0.54656,0.34648,0.39528,1.11264,1.09312,0.42944,0.30744,-0.0244
0.15616,0.11468,-0.38552,-0.4636,-0.54168,0.34892,0.3904,1.11264,1.10288,0.43432,0.3172,-0.00976
0.15128,0.11712,-0.38552,-0.46116,-0.5368,0.34404,0.3904,1.11264,1.10776,0.43432,0.33184,-0.00976
0.15128,0.11956,-0.3904,-0.46604,-0.54168,0.34648,0.38064,1.11752,1.10776,0.43432,0.33184,-0.00488
0.16592,0.11468,-0.39528,-0.47824,-0.5612,0.36356,0.37088,1.11752,1.10776,0.43432,0.33184,0
0.1708,0.11224,-0.39528,-0.48068,-0.56608,0.36844,0.36112,1.10288,1.10288,0.4392,0.33184,0
0.1708,0.11224,-0.39528,-0.48068,-0.56608,0.36844,0.3416,1.098,1.098,0.4392,0.33184,-0.00488
0.19032,0.10492,-0.40016,-0.49532,-0.59048,0.3904,0.32696,1.08824,1.08336,0.42944,0.33184,-0.00488
0.19032,0.10736,-0.40504,-0.5002,-0.59536,0.39284,0.31232,1.06384,1.0736,0.42944,0.33184,-0.00976
0.1708,0.122,-0.4148,-0.5002,-0.5856,0.3782,0.31232,1.05896,1.06384,0.42944,0.33184,-0.00976
0.15616,0.13176,-0.41968,-0.49776,-0.57584,0.366,0.30256,1.03944,1.0492,0.42944,0.32696,-0.00976
0.14152,0.14152,-0.42456,-0.49532,-0.56608,0.3538,0.30256,1.0248,1.03944,0.42456,0.32696,-0.01464
0.11712,0.16104,-0.4392,-0.49776,-0.55632,0.33672,0.30256,1.01016,1.02968,0.42456,0.32696,-0.01464
0.10248,0.17324,-0.44896,-0.5002,-0.55144,0.32696,0.29768,0.99064,1.01016,0.4148,0.3172,-0.0244
0.0976,0.17568,-0.44896,-0.49776,-0.54656,0.32208,0.2928,0.97112,0.99552,0.4148,0.31232,-0.0244
0.0732,0.19764,-0.46848,-0.50508,-0.54168,0.30744,0.2928,0.9516,0.99064,0.40992,0.31232,-0.02928
0.0732,0.20008,-0.47336,-0.50996,-0.54656,0.30988,0.2928,0.93208,0.97112,0.40016,0.30744,-0.03416
0.0732,0.20496,-0.48312,-0.51972,-0.55632,0.31476,0.28304,0.91744,0.9516,0.3904,0.2928,-0.05368
0.05856,0.21716,-0.49288,-0.52216,-0.55144,0.305,0.28304,0.89792,0.93696,0.38064,0.28792,-0.05856
0.0488,0.22692,-0.50264,-0.52704,-0.55144,0.30012,0.27816,0.88328,0.92232,0.366,0.27328,-0.0732
0.03904,0.23912,-0.51728,-0.5368,-0.55632,0.29768,0.27816,0.86864,0.90768,0.35624,0.2684,-0.0732
0.03416,0.24644,-0.52704,-0.54412,-0.5612,0.29768,0.27816,0.86376,0.89792,0.34648,0.26352,-0.08296
0.0244,0.25376,-0.53192,-0.54412,-0.55632,0.29036,0.2684,0.854,0.88816,0.34648,0.24888,-0.08784
0.01952,0.25864,-0.5368,-0.54656,-0.55632,0.28792,0.2684,0.854,0.88328,0.3416,0.24888,-0.09272
0.01464,0.26596,-0.54656,-0.55388,-0.5612,0.28792,0.26352,0.83936,0.86864,0.33184,0.23424,-0.0976
0.01464,0.27084,-0.55632,-0.56364,-0.57096,0.2928,0.25376,0.8296,0.85888,0.32696,0.23424,-0.10248
0.00976,0.27572,-0.5612,-0.56608,-0.57096,0.29036,0.24888,0.81984,0.854,0.32208,0.22936,-0.10736
0.00976,0.27328,-0.55632,-0.5612,-0.56608,0.28792,0.24888,0.81008,0.84912,0.31232,0.22936,-0.11224
-0.00488,0.2806,-0.55632,-0.55388,-0.55144,0.27328,0.24888,0.8052,0.84424,0.31232,0.22936,-0.11712
-0.00488,0.28304,-0.5612,-0.55876,-0.55632,0.27572,0.23912,0.79544,0.83936,0.30744,0.22936,-0.11712
0,0.28304,-0.56608,-0.56608,-0.56608,0.28304,0.23424,0.79544,0.83448,0.30256,0.22448,-0.11712
0,0.28792,-0.57584,-0.57584,-0.57584,0.28792,0.23424,0.78568,0.82472,0.29768,0.22448,-0.122
0,0.29036,-0.58072,-0.58072,-0.58072,0.29036,0.23424,0.77592,0.81496,0.29768,0.2196,-0.122
0,0.29036,-0.58072,-0.58072,-0.58072,0.29036,0.22936,0.77592,0.81496,0.28792,0.21472,-0.122
0.00488,0.28792,-0.58072,-0.58316,-0.5856,0.29524,0.22448,0.77592,0.81496,0.28304,0.20984,-0.12688
0,0.29036,-0.58072,-0.58072,-0.58072,0.29036,0.22936,0.77104,0.81496,0.28304,0.20984,-0.12688
-0.00976,0.29524,-0.58072,-0.57584,-0.57096,0.2806,0.22936,0.77104,0.81008,0.28304,0.20984,-0.12688
-0.00976,0.29524,-0.58072,-0.57584,-0.57096,0.2806,0.22936,0.77104,0.81008,0.28304,0.20496,-0.122
-0.00976,0.29524,-0.58072,-0.57584,-0.57096,0.2806,0.22936,0.77104,0.81496,0.28304,0.20496,-0.122
-0.00976,0.29768,-0.5856,-0.58072,-0.57584,0.28304,0.22448,0.77104,0.81008,0.28792,0.20496,-0.122
-0.00488,0.29524,-0.5856,-0.58316,-0.58072,0.28792,0.22448,0.76616,0.81008,0.28792,0.20496,-0.122
0,0.2928,-0.5856,-0.5856,-0.5856,0.2928,0.2196,0.76128,0.8052,0.28304,0.20496,-0.122
0.00976,0.28792,-0.5856,-0.59048,-0.59536,0.30256,0.21472,0.76128,0.80032,0.28304,0.20496,-0.12688
0.00488,0.29036,-0.5856,-0.58804,-0.59048,0.29768,0.21472,0.76128,0.80032,0.28304,0.20496,-0.12688
0,0.2928,-0.5856,-0.5856,-0.5856,0.2928,0.21472,0.76128,0.80032,0.28304,0.20496,-0.12688
0,0.2928,-0.5856,-0.5856,-0.5856,0.2928,0.21472,0.76128,0.8052,0.28304,0.20496,-0.12688
0,0.29036,-0.58072,-0.58072,-0.58072,0.29036,0.21472,0.76128,0.8052,0.28304,0.20984,-0.122
-0.00488,0.2928,-0.58072,-0.57828,-0.57584,0.28548,0.21472,0.76128,0.81008,0.28792,0.21472,-0.11712
-0.00488,0.2928,-0.58072,-0.57828,-0.57584,0.28548,0.21472,0.76616,0.81008,0.28792,0.21472,-0.11712
-0.00488,0.2928,-0.58072,-0.57828,-0.57584,0.28548,0.2196,0.76616,0.81008,0.28792,0.2196,-0.11712
0,0.28792,-0.57584,-0.57584,-0.57584,0.28792,0.22936,0.7808,0.82472,0.2928,0.2196,-0.11712
0,0.28792,-0.57584,-0.57584,-0.57584,0.28792,0.23912,0.80032,0.8296,0.2928,0.2196,-0.11712
0.0244,0.27572,-0.57584,-0.58804,-0.60024,0.31232,0.244,0.81008,0.83448,0.2928,0.2196,-0.11224
0.0244,0.27328,-0.57096,-0.58316,-0.59536,0.30988,0.244,0.81496,0.83448,0.2928,0.2196,-0.11224
0.03416,0.2684,-0.57096,-0.58804,-0.60512,0.31964,0.244,0.81496,0.83448,0.2928,0.21472,-0.11224
0.0488,0.27084,-0.59048,-0.61488,-0.63928,0.34404,0.23424,0.81496,0.83448,0.28792,0.20984,-0.11712
0.06344,0.26352,-0.59048,-0.6222,-0.65392,0.35868,0.22936,0.81496,0.8296,0.28304,0.1952,-0.11712
0.06832,0.2562,-0.58072,-0.61488,-0.64904,0.35868,0.21472,0.8052,0.8296,0.27816,0.1952,-0.11712
0.07808,0.25132,-0.58072,-0.61976,-0.6588,0.36844,0.1952,0.79544,0.8296,0.27328,0.1952,-0.11712
0.05856,0.25864,-0.57584,-0.60512,-0.6344,0.34648,0.17568,0.77592,0.81496,0.27328,0.20008,-0.11712
0.0488,0.25864,-0.56608,-0.59048,-0.61488,0.33184,0.16104,0.76128,0.81008,0.27328,0.20008,-0.11224
0.03904,0.2684,-0.57584,-0.59536,-0.61488,0.32696,0.16104,0.7564,0.81008,0.27328,0.20008,-0.10736
0.03904,0.2684,-0.57584,-0.59536,-0.61488,0.32696,0.16104,0.7564,0.8052,0.2684,0.1952,-0.10736
0.02928,0.27572,-0.58072,-0.59536,-0.61,0.31964,0.16104,0.7564,0.80032,0.2684,0.1952,-0.11712
0.01952,0.28304,-0.5856,-0.59536,-0.60512,0.31232,0.16592,0.74664,0.79544,0.25864,0.19032,-0.11712
0.0244,0.28304,-0.59048,-0.60268,-0.61488,0.31964,0.16592,0.74664,0.79544,0.25864,0.18544,-0.11712
0.03416,0.27816,-0.59048,-0.60756,-0.62464,0.3294,0.16592,0.74664,0.80032,0.26352,0.18056,-0.11712
0.01952,0.28548,-0.59048,-0.60024,-0.61,0.31476,0.1708,0.75152,0.80032,0.26352,0.18056,-0.11712
0.00976,0.29036,-0.59048,-0.59536,-0.60024,0.305,0.18056,0.75152,0.80032,0.26352,0.18056,-0.11224
-0.00488,0.30012,-0.59536,-0.59292,-0.59048,0.2928,0.18544,0.75152,0.80032,0.26352,0.18056,-0.11712
-0.00976,0.30744,-0.60512,-0.60024,-0.59536,0.2928,0.18544,0.75152,0.80032,0.26352,0.18056,-0.122
-0.01464,0.31232,-0.61,-0.60268,-0.59536,0.29036,0.19032,0.74176,0.79056,0.25864,0.17568,-0.122
0.01464,0.30012,-0.61488,-0.6222,-0.62952,0.32208,0.1952,0.73688,0.79056,0.25864,0.17568,-0.12688
0,0.30744,-0.61488,-0.61488,-0.61488,0.30744,0.19032,0.73688,0.79056,0.25376,0.17568,-0.12688
-0.01464,0.31476,-0.61488,-0.60756,-0.60024,0.2928,0.19032,0.732,0.79056,0.25376,0.1708,-0.12688
-0.01464,0.31232,-0.61,-0.60268,-0.59536,0.29036,0.19032,0.732,0.79056,0.25864,0.1708,-0.122
-0.01464,0.30988,-0.60512,-0.5978,-0.59048,0.28792,0.19032,0.732,0.79056,0.26352,0.1708,-0.11224
-0.01464,0.30256,-0.59048,-0.58316,-0.57584,0.2806,0.19032,0.73688,0.79544,0.26352,0.1708,-0.11224
-0.0244,0.30256,-0.58072,-0.56852,-0.55632,0.26596,0.19032,0.74176,0.80032,0.2684,0.17568,-0.10736
-0.01952,0.30256,-0.5856,-0.57584,-0.56608,0.27328,0.19032,0.74176,0.79544,0.2684,0.17568,-0.10736
-0.0244,0.30988,-0.59536,-0.58316,-0.57096,0.27328,0.18544,0.74176,0.79544,0.2684,0.17568,-0.10736
-0.0244,0.31476,-0.60512,-0.59292,-0.58072,0.27816,0.18056,0.73688,0.79056,0.26352,0.17568,-0.10736
-0.03416,0.32452,-0.61488,-0.5978,-0.58072,0.27328,0.18056,0.732,0.79056,0.25376,0.16592,-0.11224
-0.02928,0.32208,-0.61488,-0.60024,-0.5856,0.27816,0.18056,0.732,0.79056,0.25376,0.1708,-0.11224
-0.0244,0.31476,-0.60512,-0.59292,-0.58072,0.27816,0.17568,0.732,0.79056,0.25376,0.16592,-0.10736
-0.01952,0.30988,-0.60024,-0.59048,-0.58072,0.2806,0.18056,0.73688,0.79544,0.25376,0.16592,-0.10736
-0.00976,0.30256,-0.59536,-0.59048,-0.5856,0.28792,0.17568,0.74176,0.80032,0.25376,0.16592,-0.10248
-0.00976,0.305,-0.60024,-0.59536,-0.59048,0.29036,0.18056,0.75152,0.80032,0.25376,0.16592,-0.10248
-0.01464,0.2928,-0.57096,-0.56364,-0.55632,0.27084,0.18544,0.76128,0.81008,0.27816,0.1952,-0.0732
-0.0244,0.25864,-0.49288,-0.48068,-0.46848,0.22204,0.20496,0.76616,0.84424,0.33672,0.244,-0.03416
-0.0244,0.20984,-0.39528,-0.38308,-0.37088,0.17324,0.2196,0.77104,0.86864,0.40016,0.29768,0.01464
-0.00976,0.17324,-0.33672,-0.33184,-0.32696,0.1586,0.15128,0.71248,0.87352,0.44408,0.35136,0.05856
0.07808,0.10248,-0.28304,-0.32208,-0.36112,0.2196,-0.00976,0.62952,0.87352,0.47824,0.38552,0.10248
0.25864,-0.0122,-0.23424,-0.36356,-0.49288,0.37576,-0.20496,0.53192,0.85888,0.50264,0.4148,0.13664
0.4148,-0.14152,-0.13176,-0.33916,-0.54656,0.48068,-0.44896,0.40504,0.81984,0.52704,0.45872,0.20008
0.55632,-0.37332,0.19032,-0.08784,-0.366,0.46116,-0.77592,0.22448,0.81008,0.69784,0.65392,0.40504
0.71248,-0.48312,0.25376,-0.10248,-0.45872,0.5856,-1.13216,0.00488,0.61976,0.61976,0.63928,0.4392
0.86864,-0.33672,-0.1952,-0.62952,-1.06384,0.96624,-1.36152,-0.11712,0.28792,0.15128,0.28304,0.17568
0.93696,-0.244,-0.44896,-0.91744,-1.38592,1.16144,-1.4884,-0.20984,0.06344,-0.1464,0.05368,0.00976
0.93208,-0.17812,-0.57584,-1.04188,-1.50792,1.22,-1.45424,-0.24888,-0.02928,-0.2684,-0.05368,-0.06832
0.82472,-0.10004,-0.62464,-1.037,-1.44936,1.13704,-1.3908,-0.32696,-0.10248,-0.29768,-0.08296,-0.09272
0.61,0.0366,-0.6832,-0.9882,-1.2932,0.9516,-1.15656,-0.3904,-0.15616,-0.30744,-0.0976,-0.10736
0.4392,0.0976,-0.6344,-0.854,-1.0736,0.7564,-0.81496,-0.23424,-0.01464,-0.20008,-0.02928,-0.0732
0.36112,0.13176,-0.62464,-0.8052,-0.98576,0.67344,-0.55632,0.06832,0.22448,-0.06832,0.0244,-0.05856
0.2928,0.16348,-0.61976,-0.76616,-0.91256,0.60268,-0.40016,0.2684,0.40992,0.03904,0.0732,-0.0488
0.20496,0.1952,-0.59536,-0.69784,-0.80032,0.50264,-0.23912,0.37576,0.5124,0.11712,0.12688,-0.03904
0.11224,0.23668,-0.5856,-0.64172,-0.69784,0.40504,-0.06832,0.48312,0.59536,0.1708,0.15128,-0.03904
0.05856,0.26596,-0.59048,-0.61976,-0.64904,0.3538,0.02928,0.59536,0.67832,0.20984,0.16592,-0.03904
0.03416,0.27816,-0.59048,-0.60756,-0.62464,0.3294,0.09272,0.69784,0.76128,0.25864,0.19032,-0.0488
0,0.30256,-0.60512,-0.60512,-0.60512,0.30256,0.18056,0.74176,0.80032,0.2684,0.19032,-0.06832
-0.01464,0.31476,-0.61488,-0.60756,-0.60024,0.2928,0.23912,0.76128,0.81496,0.2684,0.19032,-0.08296
-0.03904,0.34648,-0.65392,-0.6344,-0.61488,0.28792,0.25376,0.79544,0.82472,0.2684,0.18056,-0.0976
-0.0488,0.36112,-0.67344,-0.64904,-0.62464,0.28792,0.25376,0.81496,0.83448,0.2684,0.18056,-0.10736
-0.0488,0.36112,-0.67344,-0.64904,-0.62464,0.28792,0.26352,0.81496,0.83936,0.27328,0.17568,-0.10736
-0.05856,0.36844,-0.67832,-0.64904,-0.61976,0.2806,0.2684,0.81984,0.83936,0.27328,0.1708,-0.10736
-0.06344,0.37332,-0.6832,-0.65148,-0.61976,0.27816,0.27816,0.82472,0.84912,0.28304,0.17568,-0.10736
-0.06832,0.38308,-0.69784,-0.66368,-0.62952,0.2806,0.27816,0.8296,0.854,0.28304,0.17568,-0.10736
-0.0732,0.38064,-0.68808,-0.65148,-0.61488,0.27084,0.28304,0.83448,0.86376,0.2928,0.18056,-0.10736
-0.0732,0.38064,-0.68808,-0.65148,-0.61488,0.27084,0.28792,0.83448,0.86864,0.2928,0.18056,-0.11224
-0.05856,0.37088,-0.6832,-0.65392,-0.62464,0.28304,0.28792,0.83936,0.86864,0.2928,0.18544,-0.11224
-0.04392,0.35868,-0.67344,-0.65148,-0.62952,0.2928,0.2928,0.83936,0.87352,0.29768,0.19032,-0.11224
-0.04392,0.36112,-0.67832,-0.65636,-0.6344,0.29524,0.2928,0.84424,0.8784,0.30256,0.1952,-0.11224
-0.04392,0.36112,-0.67832,-0.65636,-0.6344,0.29524,0.29768,0.854,0.88816,0.30744,0.1952,-0.11224
-0.05856,0.37088,-0.6832,-0.65392,-0.62464,0.28304,0.29768,0.85888,0.88816,0.3172,0.20008,-0.10736
-0.0732,0.38064,-0.68808,-0.65148,-0.61488,0.27084,0.29768,0.85888,0.89304,0.32208,0.20496,-0.10248
-0.06344,0.37576,-0.68808,-0.65636,-0.62464,0.2806,0.30256,0.86376,0.89304,0.32696,0.20984,-0.10248
-0.05368,0.37088,-0.68808,-0.66124,-0.6344,0.29036,0.30256,0.86376,0.89304,0.33184,0.21472,-0.10248
-0.05368,0.37088,-0.68808,-0.66124,-0.6344,0.29036,0.30744,0.86376,0.89792,0.33672,0.21472,-0.10248
-0.05368,0.37088,-0.68808,-0.66124,-0.6344,0.29036,0.31232,0.85888,0.89792,0.33672,0.21472,-0.10248
-0.06344,0.3782,-0.69296,-0.66124,-0.62952,0.28304,0.31232,0.86376,0.89792,0.3416,0.2196,-0.10248
-0.0732,0.38308,-0.69296,-0.65636,-0.61976,0.27328,0.3172,0.86864,0.9028,0.34648,0.22448,-0.10248
-0.08784,0.39284,-0.69784,-0.65392,-0.61,0.26108,0.3172,0.86864,0.90768,0.34648,0.22448,-0.0976
-0.10248,0.4026,-0.70272,-0.65148,-0.60024,0.24888,0.3172,0.87352,0.91256,0.34648,0.22448,-0.0976
-0.08296,0.39772,-0.71248,-0.671,-0.62952,0.27328,0.31232,0.8784,0.91256,0.33672,0.2196,-0.10248
-0.06344,0.38796,-0.71248,-0.68076,-0.64904,0.2928,0.30744,0.8784,0.91256,0.32696,0.21472,-0.10736
-0.06344,0.3904,-0.71736,-0.68564,-0.65392,0.29524,0.31232,0.88328,0.91256,0.32696,0.20984,-0.10736
-0.06344,0.3904,-0.71736,-0.68564,-0.65392,0.29524,0.31232,0.88328,0.91744,0.32696,0.20984,-0.11224
-0.06344,0.39284,-0.72224,-0.69052,-0.6588,0.29768,0.3172,0.88816,0.91744,0.33184,0.20984,-0.10736
-0.05856,0.39284,-0.72712,-0.69784,-0.66856,0.305,0.32696,0.88816,0.92232,0.33672,0.20984,-0.10736
-0.05856,0.39284,-0.72712,-0.69784,-0.66856,0.305,0.32696,0.88816,0.92232,0.33672,0.20984,-0.10736
-0.0488,0.38552,-0.72224,-0.69784,-0.67344,0.31232,0.33184,0.89304,0.9272,0.33672,0.20984,-0.10736
-0.0488,0.38552,-0.72224,-0.69784,-0.67344,0.31232,0.32696,0.9028,0.93208,0.33672,0.20984,-0.10736
-0.0488,0.38552,-0.72224,-0.69784,-0.67344,0.31232,0.33184,0.90768,0.94184,0.3416,0.21472,-0.10736
-0.0488,0.38552,-0.72224,-0.69784,-0.67344,0.31232,0.33672,0.91256,0.9516,0.34648,0.21472,-0.10736
-0.03904,0.37576,-0.71248,-0.69296,-0.67344,0.3172,0.3416,0.9272,0.95648,0.34648,0.2196,-0.10736
-0.03416,0.36844,-0.70272,-0.68564,-0.66856,0.3172,0.3416,0.93696,0.97112,0.34648,0.2196,-0.11224
-0.02928,0.36356,-0.69784,-0.6832,-0.66856,0.31964,0.35136,0.9516,0.976,0.37576,0.23912,-0.0976
-0.01952,0.35868,-0.69784,-0.68808,-0.67832,0.3294,0.35624,0.97112,0.98576,0.37576,0.23424,-0.0976
-0.01952,0.35868,-0.69784,-0.68808,-0.67832,0.3294,0.36112,0.98576,1.0004,0.38064,0.23912,-0.0976
-0.02928,0.36356,-0.69784,-0.6832,-0.66856,0.31964,0.37088,1.0004,1.01016,0.38064,0.244,-0.09272
-0.03416,0.366,-0.69784,-0.68076,-0.66368,0.31476,0.38064,1.01992,1.0248,0.38064,0.25376,-0.09272
-0.01952,0.3538,-0.68808,-0.67832,-0.66856,0.32452,0.38552,1.03456,1.04432,0.38552,0.25376,-0.08296
0.00488,0.33672,-0.67832,-0.68076,-0.6832,0.34404,0.39528,1.05408,1.0492,0.3904,0.25864,-0.08296
0.01464,0.33428,-0.6832,-0.69052,-0.69784,0.35624,0.40504,1.06872,1.06384,0.40016,0.26352,-0.08296
0.01464,0.33184,-0.67832,-0.68564,-0.69296,0.3538,0.4148,1.07848,1.07848,0.40992,0.26352,-0.0732
0.00976,0.33428,-0.67832,-0.6832,-0.68808,0.34892,0.41968,1.09312,1.08336,0.4148,0.2684,-0.06832
0.00976,0.33672,-0.6832,-0.68808,-0.69296,0.35136,0.41968,1.10776,1.09312,0.41968,0.28304,-0.06344
0.01952,0.32696,-0.67344,-0.6832,-0.69296,0.35624,0.41968,1.11752,1.10776,0.42456,0.28304,-0.06344
0.0244,0.32208,-0.66856,-0.68076,-0.69296,0.35868,0.41968,1.1224,1.11752,0.42944,0.28792,-0.05856
0.03904,0.30744,-0.65392,-0.67344,-0.69296,0.366,0.42456,1.13704,1.12728,0.4392,0.2928,-0.0488
0.06344,0.29036,-0.64416,-0.67588,-0.7076,0.38552,0.42456,1.1468,1.13704,0.44896,0.29768,-0.03904
0.08296,0.27572,-0.6344,-0.67588,-0.71736,0.40016,0.42456,1.15656,1.15168,0.45872,0.30256,-0.03416
0.0976,0.26596,-0.62952,-0.67832,-0.72712,0.41236,0.42456,1.16632,1.16632,0.4636,0.32208,-0.01952
0.11224,0.2562,-0.62464,-0.68076,-0.73688,0.42456,0.42944,1.17608,1.18584,0.47336,0.32696,-0.01952
0.122,0.24888,-0.61976,-0.68076,-0.74176,0.43188,0.42944,1.19072,1.19072,0.47824,0.33672,-0.01952
0.13664,0.2318,-0.60024,-0.66856,-0.73688,0.43676,0.43432,1.21512,1.21024,0.49776,0.35136,0.00488
0.14152,0.22448,-0.59048,-0.66124,-0.732,0.43676,0.43432,1.22488,1.22,0.50752,0.35624,0.01464
0.13176,0.22936,-0.59048,-0.65636,-0.72224,0.427,0.43432,1.23464,1.23464,0.51728,0.35624,0.01464
0.13176,0.22448,-0.58072,-0.6466,-0.71248,0.42212,0.42944,1.23952,1.24928,0.52216,0.366,0.02928
0.13176,0.22448,-0.58072,-0.6466,-0.71248,0.42212,0.4392,1.2444,1.25416,0.52704,0.38064,0.02928
0.13176,0.22448,-0.58072,-0.6466,-0.71248,0.42212,0.4392,1.24928,1.25416,0.53192,0.38064,0.03416
0.1464,0.21716,-0.58072,-0.65392,-0.72712,0.43676,0.42944,1.2444,1.25416,0.53192,0.38064,0.03904
0.15128,0.21472,-0.58072,-0.65636,-0.732,0.44164,0.41968,1.22976,1.24928,0.5368,0.38064,0.03904
0.15128,0.21472,-0.58072,-0.65636,-0.732,0.44164,0.39528,1.22488,1.2444,0.5368,0.38064,0.03416
0.16104,0.21228,-0.5856,-0.66612,-0.74664,0.45384,0.37576,1.21512,1.22976,0.52704,0.38064,0.03416
0.15616,0.21716,-0.59048,-0.66856,-0.74664,0.4514,0.36112,1.19072,1.22,0.52704,0.38552,0.02928
0.15128,0.22204,-0.59536,-0.671,-0.74664,0.44896,0.36112,1.18584,1.21512,0.52704,0.3904,0.02928
0.1464,0.2196,-0.5856,-0.6588,-0.732,0.4392,0.35136,1.1712,1.21024,0.53192,0.3904,0.03416
0.14152,0.2196,-0.58072,-0.65148,-0.72224,0.43188,0.34648,1.15656,1.20536,0.53192,0.3904,0.03416
0.13664,0.22936,-0.59536,-0.66368,-0.732,0.43432,0.3416,1.13704,1.1956,0.5368,0.3904,0.03416
0.122,0.244,-0.61,-0.671,-0.732,0.427,0.33672,1.11752,1.17608,0.53192,0.38552,0.0244
0.10736,0.25132,-0.61,-0.66368,-0.71736,0.41236,0.33184,1.098,1.16144,0.53192,0.38064,0.0244
0.08296,0.27084,-0.62464,-0.66612,-0.7076,0.39528,0.33184,1.07848,1.15656,0.52704,0.38064,0.01952
0.07808,0.27572,-0.62952,-0.66856,-0.7076,0.39284,0.33184,1.05896,1.14192,0.51728,0.38064,0.01464
0.06832,0.28548,-0.63928,-0.67344,-0.7076,0.38796,0.32208,1.04432,1.12728,0.50752,0.37088,0
0.0488,0.305,-0.6588,-0.6832,-0.7076,0.3782,0.32208,1.0248,1.11264,0.49776,0.366,0
0.03904,0.31964,-0.67832,-0.69784,-0.71736,0.3782,0.3172,1.01016,1.098,0.488,0.35136,-0.01464
0.02928,0.33184,-0.69296,-0.7076,-0.72224,0.37576,0.31232,0.99064,1.08336,0.48312,0.34648,-0.01952
0.0244,0.33916,-0.70272,-0.71492,-0.72712,0.37576,0.30744,0.98088,1.0736,0.47336,0.3416,-0.02928
0.00976,0.34892,-0.7076,-0.71248,-0.71736,0.36356,0.29768,0.97112,1.06384,0.46848,0.32696,-0.03416
0.00488,0.3538,-0.71248,-0.71492,-0.71736,0.36112,0.29768,0.96624,1.05896,0.45872,0.32696,-0.04392
0,0.366,-0.732,-0.732,-0.732,0.366,0.29768,0.9516,1.04432,0.44896,0.31232,-0.0488
-0.00488,0.3782,-0.75152,-0.74908,-0.74664,0.37088,0.29768,0.94672,1.03456,0.44408,0.31232,-0.05368
-0.00976,0.3782,-0.74664,-0.74176,-0.73688,0.36356,0.30256,0.94184,1.03456,0.44896,0.30744,-0.05856
-0.00976,0.37332,-0.73688,-0.732,-0.72712,0.35868,0.30744,0.94184,1.03456,0.44408,0.30256,-0.06344
-0.01952,0.38064,-0.74176,-0.732,-0.72224,0.35136,0.30744,0.94184,1.02968,0.4392,0.29768,-0.06832
-0.01952,0.38308,-0.74664,-0.73688,-0.72712,0.3538,0.29768,0.93208,1.0248,0.43432,0.29768,-0.06832
-0.01952,0.38796,-0.7564,-0.74664,-0.73688,0.35868,0.2928,0.9272,1.01504,0.42944,0.2928,-0.06832
-0.01952,0.39284,-0.76616,-0.7564,-0.74664,0.36356,0.2928,0.91744,1.00528,0.42456,0.2928,-0.06832
-0.01952,0.39284,-0.76616,-0.7564,-0.74664,0.36356,0.2928,0.90768,1.0004,0.42944,0.28792,-0.06344
-0.01952,0.39284,-0.76616,-0.7564,-0.74664,0.36356,0.28792,0.9028,1.0004,0.42944,0.28792,-0.06344
-0.02928,0.39772,-0.76616,-0.75152,-0.73688,0.3538,0.28304,0.9028,1.0004,0.42944,0.28792,-0.06832
-0.04392,0.40504,-0.76616,-0.7442,-0.72224,0.33916,0.28304,0.89792,1.0004,0.42944,0.28792,-0.06832
-0.03416,0.40016,-0.76616,-0.74908,-0.732,0.34892,0.27816,0.89792,0.99552,0.42944,0.2928,-0.06832
-0.01952,0.39284,-0.76616,-0.7564,-0.74664,0.36356,0.27816,0.89792,0.99064,0.42944,0.2928,-0.06832
-0.00976,0.38796,-0.76616,-0.76128,-0.7564,0.37332,0.27328,0.89792,0.99064,0.42944,0.2928,-0.0732
-0.00488,0.38796,-0.77104,-0.7686,-0.76616,0.38064,0.26352,0.89792,0.98576,0.42456,0.2928,-0.0732
-0.0244,0.4026,-0.7808,-0.7686,-0.7564,0.366,0.25376,0.88328,0.98088,0.41968,0.28792,-0.07808
-0.04392,0.41968,-0.79544,-0.77348,-0.75152,0.3538,0.24888,0.86864,0.98088,0.41968,0.28792,-0.08296
-0.0244,0.40748,-0.79056,-0.77836,-0.76616,0.37088,0.24888,0.86864,0.976,0.41968,0.28304,-0.07808
-0.00976,0.40016,-0.79056,-0.78568,-0.7808,0.38552,0.25376,0.86864,0.976,0.41968,0.28304,-0.07808
-0.00976,0.39528,-0.7808,-0.77592,-0.77104,0.38064,0.25376,0.87352,0.98088,0.42456,0.28792,-0.0732
-0.00976,0.3904,-0.77104,-0.76616,-0.76128,0.37576,0.25376,0.8784,0.98576,0.42944,0.2928,-0.06832
-0.00976,0.38796,-0.76616,-0.76128,-0.7564,0.37332,0.25864,0.8784,0.98576,0.42944,0.29768,-0.06344
-0.00976,0.38552,-0.76128,-0.7564,-0.75152,0.37088,0.25864,0.8784,0.98576,0.42944,0.29768,-0.05856
-0.01464,0.38552,-0.7564,-0.74908,-0.74176,0.36356,0.26352,0.88328,0.98576,0.43432,0.30256,-0.05856
-0.01464,0.38552,-0.7564,-0.74908,-0.74176,0.36356,0.2684,0.88328,0.98576,0.43432,0.30744,-0.05856
-0.00976,0.3782,-0.74664,-0.74176,-0.73688,0.36356,0.27328,0.89792,1.0004,0.44408,0.30744,-0.05856
-0.00976,0.37576,-0.74176,-0.73688,-0.732,0.36112,0.27816,0.91256,1.00528,0.44896,0.30744,-0.05856
0.01464,0.36356,-0.74176,-0.74908,-0.7564,0.38552,0.28304,0.91744,1.01016,0.44896,0.30744,-0.05368
0.01464,0.36112,-0.73688,-0.7442,-0.75152,0.38308,0.28304,0.92232,1.01016,0.44896,0.30744,-0.05368
0.0244,0.35624,-0.73688,-0.74908,-0.76128,0.39284,0.27816,0.91744,1.00528,0.44408,0.30256,-0.05368
0.02928,0.36356,-0.7564,-0.77104,-0.78568,0.40748,0.26352,0.91256,1.0004,0.43432,0.30256,-0.05856
0.03416,0.36112,-0.7564,-0.77348,-0.79056,0.41236,0.25864,0.91256,0.99552,0.42944,0.2928,-0.05856
0.03904,0.3538,-0.74664,-0.76616,-0.78568,0.41236,0.244,0.9028,0.99064,0.42456,0.2928,-0.05856
0.0488,0.34648,-0.74176,-0.76616,-0.79056,0.41968,0.22448,0.89304,0.98576,0.42456,0.2928,-0.05368
0.03904,0.34648,-0.732,-0.75152,-0.77104,0.40504,0.20496,0.87352,0.97112,0.42944,0.29768,-0.0488
0.0488,0.33428,-0.71736,-0.74176,-0.76616,0.40748,0.19032,0.85888,0.96624,0.42944,0.29768,-0.04392
0.0488,0.33672,-0.72224,-0.74664,-0.77104,0.40992,0.19032,0.854,0.96624,0.42944,0.29768,-0.03904
0.03904,0.3416,-0.72224,-0.74176,-0.76128,0.40016,0.19032,0.854,0.96136,0.42456,0.2928,-0.03904
0.02928,0.34892,-0.72712,-0.74176,-0.7564,0.39284,0.19032,0.854,0.95648,0.42456,0.2928,-0.0488
0.02928,0.35136,-0.732,-0.74664,-0.76128,0.39528,0.1952,0.84424,0.94672,0.40992,0.28792,-0.0488
0.0244,0.3538,-0.732,-0.7442,-0.7564,0.3904,0.1952,0.84424,0.94184,0.40504,0.28792,-0.0488
0.0244,0.35136,-0.72712,-0.73932,-0.75152,0.38796,0.1952,0.84424,0.94672,0.40992,0.28792,-0.0488
0.00976,0.35868,-0.72712,-0.732,-0.73688,0.37332,0.20008,0.84912,0.94672,0.40992,0.28792,-0.0488
0,0.36356,-0.72712,-0.72712,-0.72712,0.36356,0.20984,0.84912,0.94672,0.40992,0.28792,-0.04392
-0.01464,0.37088,-0.72712,-0.7198,-0.71248,0.34892,0.21472,0.84912,0.94672,0.40992,0.28792,-0.04392
-0.01952,0.37576,-0.732,-0.72224,-0.71248,0.34648,0.20984,0.84912,0.94672,0.40992,0.28792,-0.04392
-0.03904,0.38552,-0.732,-0.71248,-0.69296,0.32696,0.20496,0.83936,0.93696,0.40504,0.28304,-0.04392
-0.02928,0.3782,-0.72712,-0.71248,-0.69784,0.33428,0.20496,0.83448,0.93696,0.40504,0.28304,-0.0488
-0.03416,0.3782,-0.72224,-0.70516,-0.68808,0.32696,0.20008,0.83448,0.93696,0.40016,0.28304,-0.0488
-0.03416,0.3782,-0.72224,-0.70516,-0.68808,0.32696,0.1952,0.82472,0.93208,0.39528,0.27328,-0.0488
-0.03416,0.3782,-0.72224,-0.70516,-0.68808,0.32696,0.19032,0.81984,0.9272,0.3904,0.2684,-0.0488
-0.0244,0.37332,-0.72224,-0.71004,-0.69784,0.33672,0.19032,0.81984,0.92232,0.3904,0.2684,-0.0488
-0.01464,0.366,-0.71736,-0.71004,-0.70272,0.34404,0.19032,0.81984,0.91744,0.3904,0.2684,-0.05368
-0.0244,0.37088,-0.71736,-0.70516,-0.69296,0.33428,0.19032,0.81984,0.91744,0.3904,0.2684,-0.0488
-0.01464,0.36356,-0.71248,-0.70516,-0.69784,0.3416,0.19032,0.81984,0.91256,0.38552,0.26352,-0.0488
-0.01952,0.366,-0.71248,-0.70272,-0.69296,0.33672,0.18544,0.81496,0.91256,0.38552,0.26352,-0.0488
-0.0244,0.36844,-0.71248,-0.70028,-0.68808,0.33184,0.18544,0.81008,0.91256,0.38552,0.26352,-0.04392
-0.03416,0.37088,-0.7076,-0.69052,-0.67344,0.31964,0.19032,0.81008,0.91744,0.38064,0.25376,-0.04392
-0.03416,0.36844,-0.70272,-0.68564,-0.66856,0.3172,0.19032,0.81008,0.91744,0.38064,0.26352,-0.04392
-0.01952,0.35624,-0.69296,-0.6832,-0.67344,0.32696,0.18544,0.81008,0.91744,0.38064,0.26352,-0.03904
0,0.34404,-0.68808,-0.68808,-0.68808,0.34404,0.18544,0.81008,0.91744,0.38064,0.26352,-0.03904
-0.00488,0.33916,-0.67344,-0.671,-0.66856,0.33184,0.17568,0.81008,0.91744,0.38064,0.26352,-0.03416
-0.01952,0.33916,-0.6588,-0.64904,-0.63928,0.30988,0.17568,0.81008,0.91744,0.38552,0.26352,-0.03416
-0.0244,0.3294,-0.6344,-0.6222,-0.61,0.2928,0.1708,0.81008,0.9272,0.4148,0.2928,-0.00488
-0.0244,0.2928,-0.5612,-0.549,-0.5368,0.2562,0.16592,0.81008,0.96136,0.47824,0.35136,0.04392
0,0.21472,-0.42944,-0.42944,-0.42944,0.21472,0.14152,0.80032,0.98576,0.55144,0.41968,0.11224
0.07808,0.12932,-0.33672,-0.37576,-0.4148,0.24644,0.01952,0.72224,0.98576,0.60024,0.47824,0.1708
0.22936,0.02196,-0.27328,-0.38796,-0.50264,0.366,-0.18544,0.62464,0.98088,0.6344,0.52216,0.2196
0.3904,-0.09516,-0.20008,-0.39528,-0.59048,0.49044,-0.41968,0.49776,0.9516,0.67344,0.5856,0.27816
0.49776,-0.20496,-0.08784,-0.33672,-0.5856,0.54168,-0.69296,0.33672,0.86376,0.67832,0.62464,0.35136
0.62464,-0.35868,0.09272,-0.2196,-0.53192,0.57828,-0.976,0.17568,0.77104,0.69784,0.69296,0.45872
0.76616,-0.37576,-0.01464,-0.39772,-0.7808,0.77348,-1.24928,0,0.54168,0.49288,0.5612,0.3904
0.85888,-0.20984,-0.4392,-0.86864,-1.29808,1.07848,-1.3664,-0.07808,0.28792,0.0976,0.244,0.15128
0.83448,-0.12688,-0.58072,-0.99796,-1.4152,1.12484,-1.3908,-0.13664,0.1464,-0.08296,0.0976,0.0488
0.74664,-0.05124,-0.64416,-1.01748,-1.3908,1.06872,-1.27368,-0.15616,0.08784,-0.14152,0.03904,0.00488
0.61,0.02684,-0.66368,-0.96868,-1.27368,0.94184,-1.13216,-0.17568,0.06832,-0.12688,0.04392,0.00488
0.42456,0.14152,-0.7076,-0.91988,-1.13216,0.77836,-0.87352,-0.13176,0.10248,-0.08784,0.05368,0
0.27816,0.18788,-0.65392,-0.793,-0.93208,0.60512,-0.5612,0.07808,0.28792,0.05368,0.13664,0.03416
0.2196,0.21228,-0.64416,-0.75396,-0.86376,0.54168,-0.36112,0.32208,0.47336,0.15128,0.1708,0.03904
0.18544,0.22936,-0.64416,-0.73688,-0.8296,0.50752,-0.23912,0.4636,0.60024,0.21472,0.18544,0.03416
0.13176,0.25132,-0.6344,-0.70028,-0.76616,0.44896,-0.11224,0.54656,0.67344,0.2684,0.20984,0.02928
0.06344,0.28792,-0.63928,-0.671,-0.70272,0.38308,0.00976,0.6344,0.73688,0.30256,0.2196,0.01464
0.02928,0.31476,-0.6588,-0.67344,-0.68808,0.35868,0.08296,0.72712,0.80032,0.32208,0.2196,0
0.01464,0.32696,-0.66856,-0.67588,-0.6832,0.34892,0.14152,0.8052,0.854,0.35136,0.2196,-0.01952
-0.01952,0.35624,-0.69296,-0.6832,-0.67344,0.32696,0.20984,0.8296,0.86864,0.35624,0.20984,-0.03904
-0.03416,0.37332,-0.71248,-0.6954,-0.67832,0.32208,0.244,0.83936,0.87352,0.35624,0.20984,-0.05368
-0.0488,0.3904,-0.732,-0.7076,-0.6832,0.3172,0.25376,0.87352,0.88328,0.35624,0.20008,-0.06344
-0.0488,0.3904,-0.732,-0.7076,-0.6832,0.3172,0.24888,0.88328,0.88816,0.35624,0.1952,-0.06832
-0.0488,0.3904,-0.732,-0.7076,-0.6832,0.3172,0.25376,0.87352,0.88816,0.36112,0.19032,-0.06832
-0.05856,0.40016,-0.74176,-0.71248,-0.6832,0.31232,0.25864,0.8784,0.8784,0.35624,0.18544,-0.0732
-0.05856,0.4026,-0.74664,-0.71736,-0.68808,0.31476,0.2684,0.88328,0.8784,0.36112,0.18544,-0.07808
-0.05856,0.40748,-0.7564,-0.72712,-0.69784,0.31964,0.2684,0.88816,0.88328,0.36112,0.18056,-0.07808
-0.06344,0.40504,-0.74664,-0.71492,-0.6832,0.30988,0.27328,0.89304,0.88816,0.37088,0.18056,-0.07808
-0.06344,0.40504,-0.74664,-0.71492,-0.6832,0.30988,0.27816,0.89304,0.88816,0.37088,0.18056,-0.08296
-0.06344,0.40748,-0.75152,-0.7198,-0.68808,0.31232,0.27816,0.89792,0.88816,0.37088,0.18056,-0.08296
-0.06344,0.40748,-0.75152,-0.7198,-0.68808,0.31232,0.27816,0.89792,0.88816,0.37576,0.1708,-0.08296
-0.06344,0.40992,-0.7564,-0.72468,-0.69296,0.31476,0.27328,0.89792,0.88328,0.37576,0.16592,-0.08296
-0.05856,0.40504,-0.75152,-0.72224,-0.69296,0.3172,0.27816,0.9028,0.88328,0.37576,0.16592,-0.08296
-0.05368,0.40016,-0.74664,-0.7198,-0.69296,0.31964,0.27816,0.90768,0.8784,0.38064,0.16592,-0.08296
-0.0488,0.39528,-0.74176,-0.71736,-0.69296,0.32208,0.28304,0.91256,0.88328,0.38064,0.16104,-0.08296
-0.04392,0.3904,-0.73688,-0.71492,-0.69296,0.32452,0.2928,0.92232,0.88328,0.38552,0.16104,-0.08296
-0.04392,0.3904,-0.73688,-0.71492,-0.69296,0.32452,0.2928,0.92232,0.8784,0.38552,0.16592,-0.08296
-0.04392,0.3904,-0.73688,-0.71492,-0.69296,0.32452,0.2928,0.9272,0.8784,0.38552,0.16592,-0.08296
-0.0488,0.39528,-0.74176,-0.71736,-0.69296,0.32208,0.28792,0.92232,0.87352,0.38552,0.16104,-0.08296
-0.05368,0.4026,-0.75152,-0.72468,-0.69784,0.32208,0.28304,0.92232,0.86864,0.38552,0.15616,-0.08296
-0.05368,0.4026,-0.75152,-0.72468,-0.69784,0.32208,0.28792,0.9272,0.86376,0.38552,0.15128,-0.08296
-0.05368,0.4026,-0.75152,-0.72468,-0.69784,0.32208,0.28792,0.9272,0.85888,0.38552,0.1464,-0.07808
-0.05368,0.4026,-0.75152,-0.72468,-0.69784,0.32208,0.2928,0.93208,0.86376,0.38552,0.14152,-0.07808
-0.05368,0.40748,-0.76128,-0.73444,-0.7076,0.32696,0.29768,0.93696,0.86376,0.38552,0.13664,-0.08296
-0.06344,0.41236,-0.76128,-0.72956,-0.69784,0.3172,0.29768,0.93696,0.85888,0.38552,0.13664,-0.08784
-0.0732,0.41968,-0.76616,-0.72956,-0.69296,0.30988,0.30256,0.94184,0.854,0.38552,0.13176,-0.08784
-0.0732,0.41968,-0.76616,-0.72956,-0.69296,0.30988,0.30256,0.94184,0.85888,0.38552,0.12688,-0.09272
-0.0732,0.41968,-0.76616,-0.72956,-0.69296,0.30988,0.30256,0.94672,0.85888,0.38552,0.122,-0.09272
-0.05368,0.40992,-0.76616,-0.73932,-0.71248,0.3294,0.30744,0.94672,0.85888,0.38552,0.11712,-0.0976
-0.03904,0.4026,-0.76616,-0.74664,-0.72712,0.34404,0.30744,0.94672,0.854,0.38552,0.11224,-0.0976
-0.02928,0.39528,-0.76128,-0.74664,-0.732,0.35136,0.31232,0.9516,0.854,0.38552,0.10736,-0.0976
-0.02928,0.39528,-0.76128,-0.74664,-0.732,0.35136,0.31232,0.96136,0.854,0.38552,0.10248,-0.0976
-0.02928,0.39528,-0.76128,-0.74664,-0.732,0.35136,0.32208,0.96624,0.86376,0.38552,0.10248,-0.0976
-0.02928,0.39528,-0.76128,-0.74664,-0.732,0.35136,0.32696,0.97112,0.87352,0.38552,0.0976,-0.0976
-0.01952,0.3904,-0.76128,-0.75152,-0.74176,0.36112,0.33184,0.98576,0.86864,0.38552,0.0976,-0.10248
-0.01952,0.3904,-0.76128,-0.75152,-0.74176,0.36112,0.33672,0.99552,0.8784,0.38552,0.09272,-0.10736
-0.01952,0.38308,-0.74664,-0.73688,-0.72712,0.3538,0.34648,1.01016,0.88328,0.4148,0.11224,-0.09272
-0.00976,0.37332,-0.73688,-0.732,-0.72712,0.35868,0.34648,1.02968,0.88816,0.4148,0.10248,-0.0976
-0.00976,0.37332,-0.73688,-0.732,-0.72712,0.35868,0.35136,1.04432,0.9028,0.41968,0.0976,-0.0976
-0.00488,0.36844,-0.732,-0.72956,-0.72712,0.36112,0.35624,1.05896,0.90768,0.41968,0.0976,-0.09272
0.00488,0.366,-0.73688,-0.73932,-0.74176,0.37332,0.36112,1.07848,0.90768,0.41968,0.0976,-0.09272
0.00976,0.36356,-0.73688,-0.74176,-0.74664,0.3782,0.366,1.08824,0.91744,0.42456,0.09272,-0.08296
0.01464,0.35624,-0.72712,-0.73444,-0.74176,0.3782,0.37576,1.10776,0.92232,0.42944,0.10248,-0.08296
0.01464,0.35624,-0.72712,-0.73444,-0.74176,0.3782,0.38064,1.12728,0.93208,0.43432,0.10736,-0.08296
0.01464,0.34892,-0.71248,-0.7198,-0.72712,0.37088,0.38552,1.13704,0.94184,0.44408,0.10736,-0.0732
0.01952,0.3416,-0.70272,-0.71248,-0.72224,0.37088,0.3904,1.15168,0.94672,0.44896,0.10736,-0.06832
0.0488,0.32696,-0.70272,-0.72712,-0.75152,0.40016,0.3904,1.16144,0.9516,0.44896,0.11224,-0.05856
0.07808,0.30744,-0.69296,-0.732,-0.77104,0.42456,0.3904,1.1712,0.96136,0.45384,0.10736,-0.05368
0.06832,0.30988,-0.68808,-0.72224,-0.7564,0.41236,0.38552,1.17608,0.97112,0.45872,0.11224,-0.0488
0.06344,0.30744,-0.67832,-0.71004,-0.74176,0.4026,0.38552,1.18584,0.98088,0.4636,0.11712,-0.04392
0.08296,0.29524,-0.67344,-0.71492,-0.7564,0.41968,0.38552,1.1956,0.98088,0.46848,0.11712,-0.03904
0.09272,0.28548,-0.66368,-0.71004,-0.7564,0.42456,0.38552,1.20536,0.98088,0.47824,0.11712,-0.03416
0.10248,0.27816,-0.6588,-0.71004,-0.76128,0.43188,0.38552,1.21512,0.99064,0.48312,0.13664,-0.01464
0.11712,0.26596,-0.64904,-0.7076,-0.76616,0.44164,0.3904,1.22488,1.01016,0.49288,0.13664,-0.00976
0.122,0.25864,-0.63928,-0.70028,-0.76128,0.44164,0.3904,1.23952,1.01504,0.49776,0.13664,-0.00976
0.13664,0.24156,-0.61976,-0.68808,-0.7564,0.44652,0.40016,1.25904,1.03456,0.51728,0.1464,0.00976
0.1464,0.2318,-0.61,-0.6832,-0.7564,0.4514,0.40504,1.26392,1.03456,0.52704,0.15128,0.01464
0.15616,0.22448,-0.60512,-0.6832,-0.76128,0.45872,0.40504,1.2688,1.03456,0.5368,0.15128,0.01464
0.18056,0.20496,-0.59048,-0.68076,-0.77104,0.4758,0.40016,1.27368,1.04432,0.54168,0.15616,0.02928
0.19032,0.20008,-0.59048,-0.68564,-0.7808,0.48556,0.40016,1.27856,1.0492,0.54168,0.16592,0.02928
0.17568,0.2074,-0.59048,-0.67832,-0.76616,0.47092,0.39528,1.28344,1.05408,0.54656,0.16592,0.03416
0.17568,0.2074,-0.59048,-0.67832,-0.76616,0.47092,0.3904,1.28344,1.05896,0.55144,0.16592,0.03904
0.16592,0.21472,-0.59536,-0.67832,-0.76128,0.4636,0.38064,1.2688,1.05408,0.55632,0.16592,0.03904
0.15128,0.22448,-0.60024,-0.67588,-0.75152,0.4514,0.36112,1.26392,1.0492,0.55632,0.16592,0.03416
0.1708,0.21716,-0.60512,-0.69052,-0.77592,0.47336,0.34648,1.25416,1.0248,0.54168,0.15616,0.03416
0.1708,0.2196,-0.61,-0.6954,-0.7808,0.4758,0.33184,1.22976,1.00528,0.5368,0.1464,0.02928
0.17568,0.21716,-0.61,-0.69784,-0.78568,0.48068,0.32696,1.22488,0.99552,0.5368,0.1464,0.02928
0.18544,0.20984,-0.60512,-0.69784,-0.79056,0.488,0.31232,1.20536,0.98088,0.5368,0.14152,0.02928
0.16592,0.22204,-0.61,-0.69296,-0.77592,0.47092,0.30744,1.18584,0.97112,0.53192,0.13664,0.0244
0.13664,0.244,-0.62464,-0.69296,-0.76128,0.44896,0.30256,1.16632,0.96136,0.53192,0.13176,0.0244
0.11224,0.26596,-0.64416,-0.70028,-0.7564,0.43432,0.29768,1.1468,0.93208,0.51728,0.11712,0.00976
0.0976,0.27816,-0.65392,-0.70272,-0.75152,0.42456,0.2928,1.12728,0.90768,0.5124,0.10736,0.00488
0.0732,0.30012,-0.67344,-0.71004,-0.74664,0.40992,0.2928,1.10776,0.9028,0.50752,0.10248,0
0.0732,0.30256,-0.67832,-0.71492,-0.75152,0.41236,0.2928,1.08824,0.88328,0.49776,0.09272,-0.00488
0.06832,0.30988,-0.68808,-0.72224,-0.7564,0.41236,0.28304,1.0736,0.86376,0.488,0.07808,-0.01952
0.0488,0.32452,-0.69784,-0.72224,-0.74664,0.39772,0.28304,1.05408,0.84912,0.47824,0.0732,-0.01952
0.03904,0.33428,-0.7076,-0.72712,-0.74664,0.39284,0.27816,1.03944,0.8296,0.46848,0.05368,-0.03904
0.02928,0.34648,-0.72224,-0.73688,-0.75152,0.3904,0.27816,1.0248,0.81008,0.4636,0.04392,-0.04392
0.02928,0.34892,-0.72712,-0.74176,-0.7564,0.39284,0.28304,1.01992,0.79544,0.44896,0.03904,-0.0488
0.0244,0.35136,-0.72712,-0.73932,-0.75152,0.38796,0.27816,1.01016,0.7808,0.44408,0.0244,-0.0488
0.0244,0.35136,-0.72712,-0.73932,-0.75152,0.38796,0.27816,1.01016,0.77592,0.4392,0.01952,-0.05368
0.0244,0.3538,-0.732,-0.7442,-0.7564,0.3904,0.27328,0.99552,0.76128,0.42944,0,-0.05856
0.0244,0.35868,-0.74176,-0.75396,-0.76616,0.39528,0.2684,0.98576,0.74664,0.42456,0,-0.06344
0.01952,0.36356,-0.74664,-0.7564,-0.76616,0.39284,0.2684,0.976,0.73688,0.41968,-0.00488,-0.06832
0.01952,0.36356,-0.74664,-0.7564,-0.76616,0.39284,0.2684,0.97112,0.732,0.40992,-0.00488,-0.0732
0.00488,0.37332,-0.75152,-0.75396,-0.7564,0.38064,0.2684,0.97112,0.72712,0.40992,-0.00488,-0.07808
-0.00488,0.38064,-0.7564,-0.75396,-0.75152,0.37332,0.25864,0.96136,0.71736,0.40992,-0.00488,-0.07808
-0.00976,0.38552,-0.76128,-0.7564,-0.75152,0.37088,0.25376,0.96136,0.7076,0.40992,-0.00976,-0.07808
-0.00976,0.3904,-0.77104,-0.76616,-0.76128,0.37576,0.25376,0.95648,0.69784,0.40504,-0.00976,-0.07808
-0.00976,0.39284,-0.77592,-0.77104,-0.76616,0.3782,0.25376,0.9516,0.68808,0.40504,-0.01464,-0.0732
-0.00488,0.39284,-0.7808,-0.77836,-0.77592,0.38552,0.244,0.94184,0.67832,0.39528,-0.01464,-0.07808
0.00488,0.3904,-0.78568,-0.78812,-0.79056,0.39772,0.23424,0.93208,0.66856,0.3904,-0.01464,-0.08784
0.00488,0.3904,-0.78568,-0.78812,-0.79056,0.39772,0.23424,0.9272,0.66856,0.3904,-0.01464,-0.08784
0,0.39284,-0.78568,-0.78568,-0.78568,0.39284,0.22936,0.9272,0.66368,0.3904,-0.01464,-0.08784
0,0.39284,-0.78568,-0.78568,-0.78568,0.39284,0.23424,0.93208,0.6588,0.3904,-0.00976,-0.08296
0,0.39284,-0.78568,-0.78568,-0.78568,0.39284,0.23424,0.93696,0.65392,0.3904,0,-0.08296
0,0.39284,-0.78568,-0.78568,-0.78568,0.39284,0.22936,0.93208,0.64904,0.38552,0,-0.08296
0.00488,0.3904,-0.78568,-0.78812,-0.79056,0.39772,0.22936,0.93208,0.64904,0.38064,-0.00488,-0.08784
-0.00488,0.39528,-0.78568,-0.78324,-0.7808,0.38796,0.22936,0.9272,0.63928,0.38064,0,-0.08296
-0.01952,0.40504,-0.79056,-0.7808,-0.77104,0.37576,0.23424,0.9272,0.6344,0.38064,0,-0.07808
-0.01952,0.40504,-0.79056,-0.7808,-0.77104,0.37576,0.23424,0.9272,0.6344,0.38552,0.00488,-0.07808
-0.01952,0.40504,-0.79056,-0.7808,-0.77104,0.37576,0.23424,0.9272,0.6344,0.3904,0.00976,-0.07808
-0.01464,0.4026,-0.79056,-0.78324,-0.77592,0.38064,0.22936,0.9272,0.6344,0.3904,0.01464,-0.0732
-0.01464,0.40016,-0.78568,-0.77836,-0.77104,0.3782,0.22448,0.9272,0.62952,0.3904,0.01464,-0.06832
-0.01464,0.40016,-0.78568,-0.77836,-0.77104,0.3782,0.22448,0.93208,0.62952,0.3904,0.01952,-0.06832
-0.01464,0.40016,-0.78568,-0.77836,-0.77104,0.3782,0.22936,0.93208,0.62464,0.38552,0.0244,-0.06832
0.00976,0.38308,-0.77592,-0.7808,-0.78568,0.39772,0.23912,0.94672,0.63928,0.3904,0.0244,-0.0732
0.02928,0.37088,-0.77104,-0.78568,-0.80032,0.4148,0.24888,0.96136,0.64416,0.3904,0.0244,-0.07808
0.05368,0.35868,-0.77104,-0.79788,-0.82472,0.4392,0.25376,0.96624,0.64416,0.3904,0.0244,-0.0732
0.05368,0.35624,-0.76616,-0.793,-0.81984,0.43676,0.25376,0.97112,0.63928,0.3904,0.0244,-0.0732
0.03904,0.36844,-0.77592,-0.79544,-0.81496,0.427,0.25376,0.97112,0.6344,0.3904,0.01952,-0.0732
0.01952,0.39284,-0.8052,-0.81496,-0.82472,0.42212,0.244,0.97112,0.62952,0.38552,0.01952,-0.07808
0.05368,0.37088,-0.79544,-0.82228,-0.84912,0.4514,0.23912,0.97112,0.62464,0.38552,0.01464,-0.07808
0.08784,0.34404,-0.77592,-0.81984,-0.86376,0.4758,0.22448,0.96136,0.61976,0.38552,0.01952,-0.07808
0.07808,0.34892,-0.77592,-0.81496,-0.854,0.46604,0.20496,0.9516,0.61,0.38064,0.01952,-0.07808
0.0488,0.36112,-0.77104,-0.79544,-0.81984,0.43432,0.18544,0.93208,0.59048,0.38064,0.0244,-0.07808
0.03904,0.36356,-0.76616,-0.78568,-0.8052,0.42212,0.1708,0.91744,0.58072,0.38064,0.02928,-0.0732
0.01952,0.38064,-0.7808,-0.79056,-0.80032,0.40992,0.1708,0.91256,0.57584,0.38064,0.03416,-0.06832
0.03416,0.37332,-0.7808,-0.79788,-0.81496,0.42456,0.1708,0.91256,0.57096,0.37088,0.02928,-0.06832
0.0488,0.36844,-0.78568,-0.81008,-0.83448,0.44164,0.1708,0.91256,0.56608,0.366,0.02928,-0.07808
0.0488,0.37088,-0.79056,-0.81496,-0.83936,0.44408,0.17568,0.9028,0.55144,0.35624,0.0244,-0.07808
0.04392,0.37332,-0.79056,-0.81252,-0.83448,0.4392,0.17568,0.9028,0.54168,0.35624,0.0244,-0.07808
0.02928,0.3782,-0.78568,-0.80032,-0.81496,0.42212,0.18056,0.9028,0.54656,0.36112,0.02928,-0.07808
0,0.39284,-0.78568,-0.78568,-0.78568,0.39284,0.19032,0.90768,0.54656,0.36112,0.03416,-0.07808
0.00488,0.3904,-0.78568,-0.78812,-0.79056,0.39772,0.20008,0.90768,0.54656,0.36112,0.03416,-0.0732
0.00488,0.3904,-0.78568,-0.78812,-0.79056,0.39772,0.20496,0.90768,0.54656,0.36112,0.03416,-0.0732
0.00488,0.39284,-0.79056,-0.793,-0.79544,0.40016,0.20008,0.90768,0.54168,0.36112,0.03416,-0.0732
-0.00976,0.40016,-0.79056,-0.78568,-0.7808,0.38552,0.1952,0.89792,0.52704,0.35624,0.02928,-0.0732
0.00488,0.39284,-0.79056,-0.793,-0.79544,0.40016,0.1952,0.89304,0.52704,0.35624,0.02928,-0.07808
0.00488,0.39284,-0.79056,-0.793,-0.79544,0.40016,0.19032,0.89304,0.52704,0.35136,0.02928,-0.07808
-0.00976,0.40016,-0.79056,-0.78568,-0.7808,0.38552,0.1952,0.89304,0.52704,0.36112,0.03416,-0.07808
-0.0244,0.40748,-0.79056,-0.77836,-0.76616,0.37088,0.20008,0.89792,0.52704,0.37088,0.04392,-0.07808
-0.00976,0.40016,-0.79056,-0.78568,-0.7808,0.38552,0.20008,0.89792,0.51728,0.36112,0.04392,-0.0732
0.00488,0.3904,-0.78568,-0.78812,-0.79056,0.39772,0.20008,0.89792,0.50752,0.35136,0.04392,-0.0732
-0.01952,0.40504,-0.79056,-0.7808,-0.77104,0.37576,0.20008,0.89792,0.50752,0.35624,0.0488,-0.06832
-0.0244,0.40748,-0.79056,-0.77836,-0.76616,0.37088,0.20008,0.89792,0.50264,0.35624,0.0488,-0.06832
-0.0244,0.40748,-0.79056,-0.77836,-0.76616,0.37088,0.1952,0.89792,0.50264,0.35624,0.0488,-0.06832
-0.0244,0.40748,-0.79056,-0.77836,-0.76616,0.37088,0.1952,0.89792,0.50264,0.35624,0.0488,-0.06344
-0.0244,0.40748,-0.79056,-0.77836,-0.76616,0.37088,0.20008,0.89792,0.50264,0.35136,0.03904,-0.06344
-0.01464,0.4026,-0.79056,-0.78324,-0.77592,0.38064,0.20008,0.89792,0.49776,0.35136,0.0488,-0.06344
-0.01464,0.4026,-0.79056,-0.78324,-0.77592,0.38064,0.1952,0.89792,0.49776,0.35136,0.0488,-0.06344
-0.00976,0.4026,-0.79544,-0.79056,-0.78568,0.38796,0.1952,0.89792,0.49776,0.35136,0.0488,-0.06832
0.00976,0.39284,-0.79544,-0.80032,-0.8052,0.40748,0.18544,0.89792,0.488,0.3416,0.04392,-0.06832
0.01952,0.38796,-0.79544,-0.8052,-0.81496,0.41724,0.18544,0.89792,0.47824,0.33672,0.03904,-0.0732
0,0.38308,-0.76616,-0.76616,-0.76616,0.38308,0.19032,0.89792,0.488,0.366,0.06832,-0.04392
-0.01464,0.35136,-0.68808,-0.68076,-0.67344,0.3294,0.1952,0.89792,0.52216,0.42944,0.12688,0.00488
-0.03416,0.30744,-0.58072,-0.56364,-0.54656,0.2562,0.23912,0.92232,0.55144,0.49776,0.19032,0.06344
0,0.2562,-0.5124,-0.5124,-0.5124,0.2562,0.18544,0.8784,0.55632,0.54168,0.244,0.11224
0.13664,0.16592,-0.46848,-0.5368,-0.60512,0.37088,0.00488,0.78568,0.55144,0.5612,0.26352,0.13664
0.28304,0.06588,-0.4148,-0.55632,-0.69784,0.49044,-0.20496,0.66368,0.52216,0.5856,0.30256,0.1708
0.39528,-0.06588,-0.26352,-0.46116,-0.6588,0.52704,-0.47824,0.52704,0.49288,0.67344,0.40504,0.28304
0.52704,-0.24156,-0.04392,-0.30744,-0.57096,0.549,-0.76128,0.3904,0.45872,0.77592,0.5368,0.42944
0.73688,-0.33916,-0.05856,-0.427,-0.79544,0.76616,-1.14192,0.15616,0.20496,0.59536,0.44896,0.40016
0.89792,-0.25376,-0.3904,-0.83936,-1.28832,1.09312,-1.3664,0.01952,-0.0732,0.22448,0.17568,0.20008
0.95648,-0.16836,-0.61976,-1.098,-1.57624,1.26636,-1.464,-0.04392,-0.26352,-0.04392,-0.03904,0.0488
0.9516,-0.09028,-0.77104,-1.24684,-1.72264,1.33712,-1.42008,-0.06832,-0.37088,-0.19032,-0.16592,-0.04392
0.81496,0,-0.81496,-1.22244,-1.62992,1.22244,-1.35664,-0.19032,-0.4636,-0.22936,-0.1952,-0.06344
0.62952,0.12688,-0.88328,-1.19804,-1.5128,1.07116,-1.17608,-0.24888,-0.50264,-0.244,-0.2196,-0.08784
0.44408,0.18788,-0.81984,-1.04188,-1.26392,0.854,-0.78568,-0.01952,-0.29768,-0.07808,-0.11224,-0.03904
0.34648,0.22692,-0.80032,-0.97356,-1.1468,0.74664,-0.50752,0.244,-0.09272,0.04392,-0.05368,-0.01952
0.28304,0.2562,-0.79544,-0.93696,-1.07848,0.68076,-0.37088,0.41968,0.0732,0.11712,-0.0244,-0.01464
0.20008,0.29036,-0.7808,-0.88084,-0.98088,0.59048,-0.22936,0.5368,0.18544,0.18056,0.01464,-0.00976
0.122,0.3172,-0.7564,-0.8174,-0.8784,0.5002,-0.06344,0.64416,0.2684,0.24888,0.0488,-0.00488
0.07808,0.33428,-0.74664,-0.78568,-0.82472,0.4514,0.05368,0.7564,0.35136,0.30256,0.0732,0
0.05368,0.34892,-0.75152,-0.77836,-0.8052,0.42944,0.11712,0.854,0.42944,0.33672,0.08784,-0.01952
0.00976,0.38064,-0.77104,-0.77592,-0.7808,0.39528,0.19032,0.89792,0.46848,0.34648,0.09272,-0.03904
-0.01464,0.4026,-0.79056,-0.78324,-0.77592,0.38064,0.23912,0.91256,0.47336,0.34648,0.09272,-0.05368
-0.03904,0.42456,-0.81008,-0.79056,-0.77104,0.366,0.26352,0.9516,0.48312,0.34648,0.08296,-0.06344
