i,aVR,ii,aVF,iii,aVL,V1,V2,V3,V4,V5,V6
-0.06344,0.03172,0,0.03172,0.06344,-0.06344,0.03416,-0.00488,0.03416,0,-0.04392,-0.00976
-0.06344,0.03172,0,0.03172,0.06344,-0.06344,0.03416,-0.00488,0.03416,-0.00488,-0.04392,-0.00976
-0.05856,0.02928,0,0.02928,0.05856,-0.05856,0.02928,-0.00488,0.03416,-0.00976,-0.04392,-0.01464
-0.05856,0.03172,-0.00488,0.0244,0.05368,-0.05612,0.02928,-0.01464,0.02928,-0.00976,-0.04392,-0.01464
-0.05856,0.03416,-0.00976,0.01952,0.0488,-0.05368,0.02928,-0.01952,0.02928,-0.00976,-0.04392,-0.01952
-0.05856,0.03172,-0.00488,0.0244,0.05368,-0.05612,0.02928,-0.01952,0.02928,-0.00976,-0.04392,-0.01952
-0.05856,0.03172,-0.00488,0.0244,0.05368,-0.05612,0.02928,-0.01952,0.02928,-0.00976,-0.0488,-0.01952
-0.05368,0.02684,0,0.02684,0.05368,-0.05368,0.02928,-0.01952,0.02928,-0.01464,-0.0488,-0.01952
-0.0488,0.0244,0,0.0244,0.0488,-0.0488,0.0244,-0.01464,0.0244,-0.01464,-0.0488,-0.01952
-0.0488,0.0244,0,0.0244,0.0488,-0.0488,0.0244,-0.01464,0.0244,-0.01464,-0.05368,-0.01952
-0.0488,0.0244,0,0.0244,0.0488,-0.0488,0.0244,-0.01464,0.0244,-0.01952,-0.05368,-0.01952
-0.0488,0.0244,0,0.0244,0.0488,-0.0488,0.0244,-0.01464,0.0244,-0.01952,-0.0488,-0.01952
-0.0488,0.0244,0,0.0244,0.0488,-0.0488,0.0244,-0.01952,0.0244,-0.01952,-0.0488,-0.01952
-0.0488,0.02684,-0.00488,0.01952,0.04392,-0.04636,0.0244,-0.01952,0.01952,-0.0244,-0.05368,-0.01952
-0.0488,0.02928,-0.00976,0.01464,0.03904,-0.04392,0.0244,-0.01952,0.01464,-0.0244,-0.05856,-0.01952
-0.05368,0.03172,-0.00976,0.01708,0.04392,-0.0488,0.0244,-0.01952,0.00976,-0.0244,-0.05856,-0.0244
-0.05856,0.03416,-0.00976,0.01952,0.0488,-0.05368,0.0244,-0.0244,0.00488,-0.02928,-0.05856,-0.01952
-0.05856,0.03416,-0.00976,0.01952,0.0488,-0.05368,0.0244,-0.0244,0.00488,-0.02928,-0.05856,-0.01952
-0.05856,0.0366,-0.01464,0.01464,0.04392,-0.05124,0.0244,-0.0244,0.00488,-0.02928,-0.05856,-0.01952
-0.06344,0.03904,-0.01464,0.01708,0.0488,-0.05612,0.0244,-0.0244,0.00488,-0.02928,-0.05856,-0.0244
-0.06832,0.04148,-0.01464,0.01952,0.05368,-0.061,0.0244,-0.0244,0,-0.03416,-0.06344,-0.0244
-0.06832,0.04148,-0.01464,0.01952,0.05368,-0.061,0.0244,-0.0244,0,-0.03416,-0.06344,-0.0244
-0.0732,0.04636,-0.01952,0.01708,0.05368,-0.06344,0.0244,-0.0244,0,-0.03416,-0.06344,-0.0244
-0.06832,0.04392,-0.01952,0.01464,0.0488,-0.05856,0.0244,-0.02928,0.00488,-0.03416,-0.06344,-0.0244
-0.06344,0.04392,-0.0244,0.00732,0.03904,-0.05124,0.0244,-0.02928,0,-0.03416,-0.06832,-0.02928
-0.06344,0.04392,-0.0244,0.00732,0.03904,-0.05124,0.0244,-0.02928,0,-0.03416,-0.06832,-0.02928
-0.06344,0.04392,-0.0244,0.00732,0.03904,-0.05124,0.0244,-0.02928,0.00488,-0.03904,-0.06832,-0.02928
-0.06344,0.04392,-0.0244,0.00732,0.03904,-0.05124,0.0244,-0.02928,0,-0.03904,-0.06832,-0.03416
-0.06344,0.04392,-0.0244,0.00732,0.03904,-0.05124,0.0244,-0.02928,-0.00488,-0.03904,-0.0732,-0.03416
-0.06344,0.04636,-0.02928,0.00244,0.03416,-0.0488,0.0244,-0.02928,-0.00488,-0.03904,-0.0732,-0.03416
-0.06832,0.05124,-0.03416,0,0.03416,-0.05124,0.0244,-0.02928,-0.00488,-0.03904,-0.0732,-0.02928
-0.06832,0.05124,-0.03416,0,0.03416,-0.05124,0.02928,-0.02928,-0.00488,-0.03904,-0.0732,-0.02928
-0.05856,0.04636,-0.03416,-0.00488,0.0244,-0.04148,0.02928,-0.02928,-0.00488,-0.03904,-0.0732,-0.02928
-0.05856,0.04636,-0.03416,-0.00488,0.0244,-0.04148,0.0244,-0.02928,-0.00488,-0.03904,-0.0732,-0.0244
-0.05856,0.04392,-0.02928,0,0.02928,-0.04392,0.01952,-0.02928,-0.00488,-0.03904,-0.07808,-0.01952
-0.05856,0.04148,-0.0244,0.00488,0.03416,-0.04636,0.0244,-0.0244,0,-0.02928,-0.06832,-0.01952
-0.05856,0.03904,-0.01952,0.00976,0.03904,-0.0488,0.02928,-0.01952,0,-0.01952,-0.05856,-0.01952
-0.05856,0.03904,-0.01952,0.00976,0.03904,-0.0488,0.02928,-0.01464,0.00976,-0.01464,-0.05856,-0.01952
-0.05856,0.03904,-0.01952,0.00976,0.03904,-0.0488,0.02928,-0.00976,0.01952,-0.00976,-0.05856,-0.01952
-0.05856,0.03416,-0.00976,0.01952,0.0488,-0.05368,0.02928,-0.00976,0.0244,-0.00976,-0.05368,-0.01464
-0.05856,0.03172,-0.00488,0.0244,0.05368,-0.05612,0.02928,-0.00488,0.02928,-0.00488,-0.0488,-0.00976
-0.05856,0.02928,0,0.02928,0.05856,-0.05856,0.02928,0,0.03416,0,-0.0488,-0.00976
-0.05856,0.02684,0.00488,0.03416,0.06344,-0.061,0.02928,0,0.03904,0.00488,-0.04392,-0.00976
-0.05368,0.02196,0.00976,0.0366,0.06344,-0.05856,0.02928,-0.00488,0.03904,0.00488,-0.04392,-0.00488
-0.05368,0.02196,0.00976,0.0366,0.06344,-0.05856,0.02928,-0.00976,0.03904,0.00488,-0.03904,-0.00488
-0.05368,0.02196,0.00976,0.0366,0.06344,-0.05856,0.01464,-0.00976,0.03904,0.00488,-0.03904,-0.00488
-0.03904,0.01464,0.00976,0.02928,0.0488,-0.04392,0.00488,-0.00976,0.02928,0,-0.03904,-0.00488
-0.03416,0.01464,0.00488,0.02196,0.03904,-0.0366,-0.00488,-0.01464,0.0244,0,-0.03904,-0.00488
-0.0244,0.00976,0.00488,0.01708,0.02928,-0.02684,-0.01464,-0.01952,0.01464,-0.00488,-0.04392,-0.00488
-0.01952,0.00732,0.00488,0.01464,0.0244,-0.02196,-0.0244,-0.02928,0.00488,-0.00976,-0.0488,-0.00488
-0.01952,0.0122,-0.00488,0.00488,0.01464,-0.01708,-0.03416,-0.04392,-0.00488,-0.01952,-0.05368,-0.00976
-0.01464,0.01464,-0.01464,-0.00732,0,-0.00732,-0.04392,-0.05856,-0.0244,-0.03416,-0.06832,-0.01464
-0.00976,0.01464,-0.01952,-0.01464,-0.00976,0,-0.0488,-0.06832,-0.03904,-0.05368,-0.07808,-0.01464
-0.00488,0.0122,-0.01952,-0.01708,-0.01464,0.00488,-0.0488,-0.06832,-0.03904,-0.05368,-0.08296,-0.01952
0,0.0122,-0.0244,-0.0244,-0.0244,0.0122,-0.04392,-0.06344,-0.03904,-0.05368,-0.08296,-0.0244
0,0.0122,-0.0244,-0.0244,-0.0244,0.0122,-0.03416,-0.05856,-0.03904,-0.0488,-0.07808,-0.01952
-0.00488,0.0122,-0.01952,-0.01708,-0.01464,0.00488,-0.0244,-0.04392,-0.0244,-0.03904,-0.06344,-0.00488
0,0.00244,-0.00488,-0.00488,-0.00488,0.00244,-0.01464,-0.03904,-0.01952,-0.03904,-0.06344,-0.00488
-0.00488,-0.00244,0.00976,0.0122,0.01464,-0.00976,-0.00488,-0.03416,-0.01464,-0.03416,-0.06344,-0.00488
-0.0244,0.01464,-0.00488,0.00732,0.01952,-0.02196,0.00976,-0.03416,-0.00976,-0.03416,-0.06832,-0.00976
-0.05368,0.03172,-0.00976,0.01708,0.04392,-0.0488,0.00976,-0.03416,-0.00488,-0.03416,-0.06832,-0.01464
-0.06344,0.04636,-0.02928,0.00244,0.03416,-0.0488,0.00976,-0.03416,-0.00488,-0.03904,-0.0732,-0.0244
-0.06832,0.05612,-0.04392,-0.00976,0.0244,-0.04636,0.01464,-0.03416,-0.00976,-0.0488,-0.0732,-0.02928
-0.06832,0.05856,-0.0488,-0.01464,0.01952,-0.04392,0.01464,-0.03416,-0.00976,-0.0488,-0.07808,-0.02928
-0.0732,0.061,-0.0488,-0.0122,0.0244,-0.0488,0.01952,-0.03904,-0.00976,-0.0488,-0.07808,-0.02928
-0.0732,0.061,-0.0488,-0.0122,0.0244,-0.0488,0.0244,-0.03904,-0.00976,-0.0488,-0.07808,-0.02928
-0.0732,0.061,-0.0488,-0.0122,0.0244,-0.0488,0.0244,-0.03416,-0.00976,-0.0488,-0.07808,-0.02928
-0.0732,0.061,-0.0488,-0.0122,0.0244,-0.0488,0.02928,-0.03416,-0.00976,-0.0488,-0.07808,-0.02928
-0.0732,0.061,-0.0488,-0.0122,0.0244,-0.0488,0.03416,-0.03416,-0.00976,-0.0488,-0.07808,-0.02928
-0.0732,0.061,-0.0488,-0.0122,0.0244,-0.0488,0.03416,-0.03416,-0.00976,-0.0488,-0.07808,-0.02928
-0.07808,0.06344,-0.0488,-0.00976,0.02928,-0.05368,0.03416,-0.03416,-0.00976,-0.0488,-0.08296,-0.03416
-0.07808,0.06588,-0.05368,-0.01464,0.0244,-0.05124,0.03416,-0.03416,-0.00976,-0.0488,-0.08296,-0.03416
-0.07808,0.06832,-0.05856,-0.01952,0.01952,-0.0488,0.03904,-0.02928,-0.00976,-0.0488,-0.08296,-0.03416
-0.07808,0.07076,-0.06344,-0.0244,0.01464,-0.04636,0.03904,-0.02928,-0.00976,-0.04392,-0.08296,-0.03416
-0.07808,0.07076,-0.06344,-0.0244,0.01464,-0.04636,0.03904,-0.02928,-0.00976,-0.03904,-0.08296,-0.03416
-0.07808,0.06832,-0.05856,-0.01952,0.01952,-0.0488,0.03904,-0.02928,-0.00976,-0.03904,-0.08296,-0.03416
-0.07808,0.06588,-0.05368,-0.01464,0.0244,-0.05124,0.03904,-0.02928,-0.00488,-0.03416,-0.08296,-0.03416
-0.07808,0.06588,-0.05368,-0.01464,0.0244,-0.05124,0.03904,-0.02928,-0.00488,-0.03416,-0.08296,-0.03416
-0.07808,0.06588,-0.05368,-0.01464,0.0244,-0.05124,0.03416,-0.0244,-0.00488,-0.03416,-0.08296,-0.03416
-0.08296,0.07076,-0.05856,-0.01708,0.0244,-0.05368,0.04392,-0.01464,0,-0.03416,-0.08296,-0.03904
-0.09272,0.08052,-0.06832,-0.02196,0.0244,-0.05856,0.05856,-0.00488,0.00488,-0.0488,-0.09272,-0.05368
-0.11224,0.09516,-0.07808,-0.02196,0.03416,-0.0732,0.08296,0,0.00488,-0.06344,-0.12688,-0.09272
-0.122,0.10248,-0.08296,-0.02196,0.03904,-0.08052,0.0976,0.00976,0.00976,-0.0732,-0.1464,-0.11712
-0.12688,0.08784,-0.0488,0.01464,0.07808,-0.10248,0.10736,0.02928,0.0488,-0.04392,-0.13176,-0.10248
-0.10736,0.05124,0.00488,0.05856,0.11224,-0.1098,0.10248,0.06344,0.11712,0.0244,-0.06344,-0.0488
-0.0488,-0.00488,0.05856,0.08296,0.10736,-0.07808,0.07808,0.11712,0.17568,0.13176,0.05368,0.05368
0.03904,-0.06588,0.09272,0.0732,0.05368,-0.00732,0.0732,0.19032,0.23424,0.25376,0.20496,0.18544
0.15128,-0.1342,0.11712,0.04148,-0.03416,0.09272,0.05856,0.25376,0.26352,0.35624,0.37088,0.32696
0.3172,-0.244,0.1708,0.0122,-0.1464,0.2318,-0.09272,0.19032,0.22936,0.45384,0.56608,0.488
0.51728,-0.40504,0.2928,0.03416,-0.22448,0.37088,-0.33672,-0.01464,0.10736,0.52704,0.79544,0.7076
0.68808,-0.54168,0.39528,0.05124,-0.2928,0.49044,-0.5856,-0.20984,-0.06344,0.60024,1.0492,0.9272
0.77104,-0.549,0.32696,-0.05856,-0.44408,0.60756,-0.7076,-0.2928,-0.29768,0.61976,1.21024,0.99552
0.732,-0.488,0.244,-0.122,-0.488,0.61,-0.75152,-0.38552,-0.47336,0.51728,1.10288,0.87352
0.5368,-0.34648,0.15616,-0.11224,-0.38064,0.45872,-0.66856,-0.46848,-0.47336,0.3416,0.74664,0.60024
0.3172,-0.16836,0.01952,-0.13908,-0.29768,0.30744,-0.50264,-0.4392,-0.40504,0.16104,0.366,0.28792
0.10248,0.00244,-0.10736,-0.1586,-0.20984,0.15616,-0.2684,-0.33672,-0.32696,-0.0244,0.02928,0.01464
-0.00976,0.0732,-0.13664,-0.13176,-0.12688,0.05856,-0.09272,-0.25376,-0.26352,-0.122,-0.0976,-0.05856
-0.03904,0.0732,-0.10736,-0.08784,-0.06832,0.01464,-0.00488,-0.12688,-0.1708,-0.09272,-0.07808,-0.05856
-0.0488,0.06344,-0.07808,-0.05368,-0.02928,-0.00976,0.01952,-0.05856,-0.08296,-0.05856,-0.05368,-0.03416
-0.05856,0.061,-0.06344,-0.03416,-0.00488,-0.02684,0.0244,-0.03904,-0.0488,-0.03416,-0.0488,-0.02928
-0.05856,0.05612,-0.05368,-0.0244,0.00488,-0.03172,0.02928,-0.02928,-0.03416,-0.0244,-0.0488,-0.02928
-0.05856,0.05124,-0.04392,-0.01464,0.01464,-0.0366,0.03904,-0.02928,-0.01952,-0.01952,-0.0488,-0.02928
-0.05856,0.04636,-0.03416,-0.00488,0.0244,-0.04148,0.04392,-0.0244,0,-0.01464,-0.0488,-0.02928
-0.06832,0.05124,-0.03416,0,0.03416,-0.05124,0.04392,-0.01952,0.00488,-0.01464,-0.05856,-0.02928
-0.06832,0.05124,-0.03416,0,0.03416,-0.05124,0.04392,-0.01952,0.00488,-0.01464,-0.06344,-0.03416
-0.06832,0.0488,-0.02928,0.00488,0.03904,-0.05368,0.04392,-0.01952,0.00976,-0.01952,-0.06832,-0.03904
-0.06832,0.04636,-0.0244,0.00976,0.04392,-0.05612,0.0488,-0.01952,0.01464,-0.01952,-0.06832,-0.03904
-0.0732,0.0488,-0.0244,0.0122,0.0488,-0.061,0.0488,-0.01464,0.01464,-0.01952,-0.06832,-0.03904
-0.0732,0.0488,-0.0244,0.0122,0.0488,-0.061,0.0488,-0.01464,0.0244,-0.01952,-0.06832,-0.03904
-0.08296,0.05612,-0.02928,0.0122,0.05368,-0.06832,0.0488,-0.01464,0.0244,-0.01952,-0.06832,-0.03904
-0.08784,0.061,-0.03416,0.00976,0.05368,-0.07076,0.0488,-0.01464,0.0244,-0.01952,-0.06832,-0.04392
-0.08784,0.061,-0.03416,0.00976,0.05368,-0.07076,0.0488,-0.01464,0.0244,-0.01952,-0.06832,-0.04392
-0.08296,0.05856,-0.03416,0.00732,0.0488,-0.06588,0.0488,-0.01464,0.0244,-0.01952,-0.06344,-0.03904
-0.08296,0.05856,-0.03416,0.00732,0.0488,-0.06588,0.0488,-0.01464,0.01952,-0.01952,-0.06344,-0.03416
-0.08784,0.06344,-0.03904,0.00488,0.0488,-0.06832,0.0488,-0.01464,0.01952,-0.0244,-0.06344,-0.02928
-0.08784,0.06344,-0.03904,0.00488,0.0488,-0.06832,0.0488,-0.01464,0.01952,-0.0244,-0.06344,-0.02928
-0.08296,0.05856,-0.03416,0.00732,0.0488,-0.06588,0.05368,-0.01464,0.01952,-0.0244,-0.06832,-0.0244
-0.08296,0.05856,-0.03416,0.00732,0.0488,-0.06588,0.05368,-0.00976,0.01952,-0.01952,-0.06832,-0.0244
-0.08296,0.05856,-0.03416,0.00732,0.0488,-0.06588,0.05368,-0.00488,0.01952,-0.01952,-0.06832,-0.0244
-0.07808,0.05612,-0.03416,0.00488,0.04392,-0.061,0.0488,-0.00488,0.01464,-0.01952,-0.06344,-0.0244
-0.0732,0.05368,-0.03416,0.00244,0.03904,-0.05612,0.0488,-0.00488,0.01464,-0.01952,-0.05856,-0.01952
-0.06832,0.05124,-0.03416,0,0.03416,-0.05124,0.0488,-0.00976,0.01464,-0.0244,-0.05856,-0.01952
-0.06832,0.05124,-0.03416,0,0.03416,-0.05124,0.0488,-0.01464,0.01464,-0.0244,-0.06344,-0.01952
-0.0732,0.05612,-0.03904,-0.00244,0.03416,-0.05368,0.0488,-0.01464,0.00976,-0.0244,-0.06344,-0.01952
-0.0732,0.05856,-0.04392,-0.00732,0.02928,-0.05124,0.04392,-0.01464,0.00976,-0.0244,-0.05856,-0.01952
-0.06832,0.05612,-0.04392,-0.00976,0.0244,-0.04636,0.04392,-0.01464,0.00976,-0.0244,-0.05856,-0.01952
-0.06832,0.05612,-0.04392,-0.00976,0.0244,-0.04636,0.03904,-0.01464,0.00488,-0.0244,-0.05856,-0.01464
-0.06832,0.05612,-0.04392,-0.00976,0.0244,-0.04636,0.03416,-0.01464,0.00488,-0.0244,-0.06344,-0.01952
-0.06832,0.05612,-0.04392,-0.00976,0.0244,-0.04636,0.02928,-0.00976,0.00488,-0.0244,-0.06344,-0.0244
-0.06344,0.05368,-0.04392,-0.0122,0.01952,-0.04148,0.02928,-0.00976,0.00488,-0.01952,-0.06344,-0.01952
-0.06344,0.0488,-0.03416,-0.00244,0.02928,-0.04636,0.0244,-0.00488,0,-0.01952,-0.05856,-0.01952
-0.06344,0.04636,-0.02928,0.00244,0.03416,-0.0488,0.0244,0,0,-0.01952,-0.05856,-0.01464
-0.05856,0.04148,-0.0244,0.00488,0.03416,-0.04636,0.01952,0.00488,0,-0.01952,-0.05856,-0.00976
-0.05368,0.0366,-0.01952,0.00732,0.03416,-0.04392,0.01952,0.00488,0,-0.01952,-0.05368,-0.00488
-0.0488,0.03172,-0.01464,0.00976,0.03416,-0.04148,0.01464,0.00488,0,-0.01952,-0.0488,0
-0.0488,0.02928,-0.00976,0.01464,0.03904,-0.04392,0.01464,0.00976,0,-0.01464,-0.0488,0.00488
-0.04392,0.0244,-0.00488,0.01708,0.03904,-0.04148,0.00976,0.01464,0,-0.01464,-0.04392,0.00488
-0.03904,0.02196,-0.00488,0.01464,0.03416,-0.0366,0.00488,0.01464,0,-0.01464,-0.03416,0.01952
-0.02928,0.01464,0,0.01464,0.02928,-0.02928,0,0.01952,0,-0.00976,-0.02928,0.01952
-0.01952,0.00488,0.00976,0.01952,0.02928,-0.0244,0,0.02928,-0.00488,-0.00976,-0.01952,0.02928
-0.01464,0,0.01464,0.02196,0.02928,-0.02196,-0.00976,0.03416,-0.00976,-0.00976,-0.01464,0.03416
-0.00488,-0.00732,0.01952,0.02196,0.0244,-0.01464,-0.00976,0.0488,-0.01464,0.00488,-0.00976,0.04392
0.00488,-0.01464,0.0244,0.02196,0.01952,-0.00732,-0.0244,0.05368,-0.01952,0.00976,0,0.05856
0.01464,-0.0244,0.03416,0.02684,0.01952,-0.00244,-0.02928,0.05368,-0.0244,0.00976,0.01464,0.06832
0.03416,-0.04148,0.0488,0.03172,0.01464,0.00976,-0.03904,0.06344,-0.02928,0.01464,0.03416,0.07808
0.0488,-0.05124,0.05368,0.02928,0.00488,0.02196,-0.04392,0.0732,-0.02928,0.02928,0.0488,0.0976
0.06344,-0.061,0.05856,0.02684,-0.00488,0.03416,-0.04392,0.08296,-0.03416,0.02928,0.06344,0.11712
0.0732,-0.06588,0.05856,0.02196,-0.01464,0.04392,-0.05368,0.09272,-0.03904,0.03416,0.07808,0.13176
0.09272,-0.08052,0.06832,0.02196,-0.0244,0.05856,-0.05856,0.0976,-0.03904,0.03904,0.09272,0.1464
0.10248,-0.09028,0.07808,0.02684,-0.0244,0.06344,-0.06832,0.10248,-0.0488,0.04392,0.10736,0.16104
0.122,-0.10492,0.08784,0.02684,-0.03416,0.07808,-0.07808,0.11224,-0.05368,0.0488,0.12688,0.17568
0.13176,-0.1098,0.08784,0.02196,-0.04392,0.08784,-0.08296,0.11712,-0.05856,0.05856,0.13664,0.19032
0.14152,-0.11956,0.0976,0.02684,-0.04392,0.09272,-0.08296,0.12688,-0.05856,0.06344,0.15128,0.20008
0.15616,-0.12932,0.10248,0.0244,-0.05368,0.10492,-0.08784,0.12688,-0.06344,0.06344,0.16104,0.20984
0.16592,-0.1342,0.10248,0.01952,-0.06344,0.11468,-0.09272,0.13176,-0.06832,0.06344,0.1708,0.22448
0.17568,-0.14152,0.10736,0.01952,-0.06832,0.122,-0.10248,0.13176,-0.0732,0.06832,0.18056,0.22936
0.17568,-0.14152,0.10736,0.01952,-0.06832,0.122,-0.10736,0.13664,-0.0732,0.0732,0.18544,0.23424
0.18056,-0.14396,0.10736,0.01708,-0.0732,0.12688,-0.11224,0.13664,-0.07808,0.0732,0.18544,0.23912
0.18056,-0.14152,0.10248,0.0122,-0.07808,0.12932,-0.11224,0.13664,-0.07808,0.06832,0.19032,0.23912
0.17568,-0.13908,0.10248,0.01464,-0.0732,0.12444,-0.11224,0.14152,-0.08296,0.06344,0.1952,0.22936
0.16592,-0.13176,0.0976,0.01464,-0.06832,0.11712,-0.10248,0.14152,-0.08296,0.05368,0.18056,0.2196
0.15616,-0.122,0.08784,0.00976,-0.06832,0.11224,-0.09272,0.14152,-0.0732,0.0488,0.16592,0.20984
0.14152,-0.11224,0.08296,0.0122,-0.05856,0.10004,-0.08296,0.13664,-0.06832,0.0488,0.15616,0.1952
0.12688,-0.0976,0.06832,0.00488,-0.05856,0.09272,-0.0732,0.122,-0.06832,0.03904,0.14152,0.17568
0.10736,-0.08784,0.06832,0.01464,-0.03904,0.0732,-0.05856,0.11224,-0.06344,0.03416,0.122,0.15616
0.09272,-0.07564,0.05856,0.0122,-0.03416,0.06344,-0.0488,0.10736,-0.05856,0.01952,0.10736,0.14152
0.07808,-0.06344,0.0488,0.00976,-0.02928,0.05368,-0.03416,0.10248,-0.0488,0.01464,0.08784,0.122
0.05856,-0.05124,0.04392,0.01464,-0.01464,0.0366,-0.0244,0.09272,-0.03416,0.01464,0.07808,0.10736
0.03904,-0.0366,0.03416,0.01464,-0.00488,0.02196,-0.00976,0.08784,-0.01952,0.01464,0.06344,0.0976
0.02928,-0.02928,0.02928,0.01464,0,0.01464,0,0.07808,-0.00488,0.01464,0.0488,0.07808
0.01952,-0.02196,0.0244,0.01464,0.00488,0.00732,0.00976,0.0732,0.00488,0.01464,0.03904,0.06344
0.00976,-0.01708,0.0244,0.01952,0.01464,-0.00244,0.01952,0.06832,0.01952,0.01464,0.03416,0.05368
-0.00488,-0.00488,0.01464,0.01708,0.01952,-0.0122,0.0244,0.06344,0.02928,0.01952,0.0244,0.04392
-0.01952,0.00244,0.01464,0.0244,0.03416,-0.02684,0.0244,0.05368,0.03416,0.02928,0.01952,0.03904
-0.02928,0.00976,0.00976,0.0244,0.03904,-0.03416,0.02928,0.0488,0.03904,0.02928,0.00976,0.02928
-0.03416,0.0122,0.00976,0.02684,0.04392,-0.03904,0.02928,0.03904,0.04392,0.0244,0.00488,0.01952
-0.03904,0.01708,0.00488,0.0244,0.04392,-0.04148,0.02928,0.03416,0.0488,0.0244,0,0.01464
-0.04392,0.02196,0,0.02196,0.04392,-0.04392,0.03416,0.0244,0.0488,0.02928,-0.00488,0.00976
-0.04392,0.02196,0,0.02196,0.04392,-0.04392,0.03416,0.0244,0.0488,0.03416,-0.00488,0.00488
-0.0488,0.0244,0,0.0244,0.0488,-0.0488,0.03416,0.01952,0.0488,0.03416,-0.00488,0.00488
-0.0488,0.02684,-0.00488,0.01952,0.04392,-0.04636,0.03416,0.01464,0.0488,0.03416,-0.00976,0
-0.0488,0.02684,-0.00488,0.01952,0.04392,-0.04636,0.03416,0.01952,0.0488,0.03416,-0.01464,0
-0.04392,0.0244,-0.00488,0.01708,0.03904,-0.04148,0.03416,0.01952,0.0488,0.02928,-0.01464,0
-0.0488,0.02928,-0.00976,0.01464,0.03904,-0.04392,0.03416,0.01952,0.0488,0.02928,-0.01464,0
-0.0488,0.02928,-0.00976,0.01464,0.03904,-0.04392,0.03416,0.01464,0.0488,0.02928,-0.01464,-0.00976
-0.04392,0.02684,-0.00976,0.0122,0.03416,-0.03904,0.03416,0.01464,0.0488,0.02928,-0.01464,-0.00976
-0.04392,0.02684,-0.00976,0.0122,0.03416,-0.03904,0.03416,0.01464,0.0488,0.01952,-0.01952,-0.00976
-0.04392,0.02928,-0.01464,0.00732,0.02928,-0.0366,0.03416,0.01464,0.0488,0.01952,-0.0244,-0.00976
-0.0488,0.03172,-0.01464,0.00976,0.03416,-0.04148,0.03416,0.01464,0.0488,0.01952,-0.02928,-0.00488
-0.0488,0.02928,-0.00976,0.01464,0.03904,-0.04392,0.03904,0.01464,0.0488,0.01952,-0.02928,-0.00488
-0.0488,0.02928,-0.00976,0.01464,0.03904,-0.04392,0.04392,0.01464,0.0488,0.01952,-0.02928,-0.00488
-0.0488,0.03172,-0.01464,0.00976,0.03416,-0.04148,0.04392,0.01952,0.0488,0.01952,-0.02928,-0.00976
-0.0488,0.0366,-0.0244,0,0.0244,-0.0366,0.04392,0.01952,0.0488,0.01952,-0.02928,-0.00976
-0.0488,0.0366,-0.0244,0,0.0244,-0.0366,0.04392,0.01952,0.0488,0.01952,-0.02928,-0.00488
-0.0488,0.0366,-0.0244,0,0.0244,-0.0366,0.0488,0.01952,0.0488,0.01952,-0.02928,-0.00976
-0.0488,0.0366,-0.0244,0,0.0244,-0.0366,0.04392,0.0244,0.0488,0.0244,-0.02928,-0.00976
-0.0488,0.0366,-0.0244,0,0.0244,-0.0366,0.04392,0.0244,0.0488,0.0244,-0.02928,-0.00976
-0.0488,0.03904,-0.02928,-0.00488,0.01952,-0.03416,0.04392,0.0244,0.05368,0.0244,-0.02928,-0.00976
-0.05368,0.04148,-0.02928,-0.00244,0.0244,-0.03904,0.04392,0.02928,0.05368,0.0244,-0.02928,-0.00976
-0.05856,0.04392,-0.02928,0,0.02928,-0.04392,0.0488,0.02928,0.05368,0.0244,-0.02928,-0.00976
-0.05856,0.04392,-0.02928,0,0.02928,-0.04392,0.0488,0.02928,0.05368,0.0244,-0.02928,-0.00976
-0.05856,0.04148,-0.0244,0.00488,0.03416,-0.04636,0.0488,0.02928,0.05856,0.0244,-0.02928,-0.00976
-0.05856,0.04148,-0.0244,0.00488,0.03416,-0.04636,0.0488,0.02928,0.05856,0.0244,-0.02928,-0.00976
-0.05368,0.03904,-0.0244,0.00244,0.02928,-0.04148,0.0488,0.02928,0.05856,0.02928,-0.02928,-0.00976
-0.0488,0.0366,-0.0244,0,0.0244,-0.0366,0.0488,0.0244,0.05856,0.02928,-0.02928,-0.00976
-0.0488,0.0366,-0.0244,0,0.0244,-0.0366,0.0488,0.01952,0.05856,0.02928,-0.0244,-0.00976
-0.0488,0.0366,-0.0244,0,0.0244,-0.0366,0.0488,0.01464,0.05856,0.02928,-0.02928,-0.00976
-0.0488,0.0366,-0.0244,0,0.0244,-0.0366,0.0488,0.01464,0.05856,0.02928,-0.02928,-0.00976
-0.0488,0.03416,-0.01952,0.00488,0.02928,-0.03904,0.0488,0.01952,0.05856,0.02928,-0.02928,-0.00488
-0.05368,0.0366,-0.01952,0.00732,0.03416,-0.04392,0.0488,0.01952,0.05856,0.03416,-0.0244,0
-0.05856,0.03904,-0.01952,0.00976,0.03904,-0.0488,0.04392,0.01952,0.05856,0.03416,-0.0244,0
-0.05368,0.0366,-0.01952,0.00732,0.03416,-0.04392,0.04392,0.01464,0.05856,0.02928,-0.0244,0
-0.05368,0.0366,-0.01952,0.00732,0.03416,-0.04392,0.04392,0.01464,0.05368,0.02928,-0.0244,0
-0.05368,0.03416,-0.01464,0.0122,0.03904,-0.04636,0.04392,0.01464,0.05368,0.02928,-0.0244,0
-0.0488,0.02928,-0.00976,0.01464,0.03904,-0.04392,0.03904,0.01464,0.05368,0.02928,-0.0244,-0.00488
-0.04392,0.02684,-0.00976,0.0122,0.03416,-0.03904,0.03904,0.00976,0.0488,0.02928,-0.01952,0
-0.03904,0.0244,-0.00976,0.00976,0.02928,-0.03416,0.03904,0.00976,0.0488,0.02928,-0.01464,0
-0.03904,0.02196,-0.00488,0.01464,0.03416,-0.0366,0.03904,0.00976,0.0488,0.02928,-0.01464,0
-0.03904,0.02196,-0.00488,0.01464,0.03416,-0.0366,0.03904,0.00976,0.0488,0.02928,-0.01952,0
-0.03904,0.02196,-0.00488,0.01464,0.03416,-0.0366,0.03904,0.00488,0.0488,0.0244,-0.0244,0
-0.03904,0.0244,-0.00976,0.00976,0.02928,-0.03416,0.03416,0.00488,0.04392,0.0244,-0.02928,0
-0.04392,0.02684,-0.00976,0.0122,0.03416,-0.03904,0.03416,0.00488,0.04392,0.0244,-0.03416,0
-0.0488,0.02928,-0.00976,0.01464,0.03904,-0.04392,0.03416,0.00488,0.04392,0.01952,-0.03416,0
-0.0488,0.02928,-0.00976,0.01464,0.03904,-0.04392,0.03416,0.00488,0.04392,0.01952,-0.02928,0
-0.0488,0.02928,-0.00976,0.01464,0.03904,-0.04392,0.03416,0,0.04392,0.01952,-0.02928,0
-0.0488,0.02928,-0.00976,0.01464,0.03904,-0.04392,0.02928,0,0.03904,0.01464,-0.03416,0
-0.0488,0.02928,-0.00976,0.01464,0.03904,-0.04392,0.0244,0,0.03416,0.01464,-0.03904,0
-0.0488,0.03172,-0.01464,0.00976,0.03416,-0.04148,0.0244,0,0.02928,0.01464,-0.03904,-0.00976
-0.0488,0.03416,-0.01952,0.00488,0.02928,-0.03904,0.0244,-0.00488,0.0244,0.00976,-0.03904,-0.00976
-0.0488,0.03416,-0.01952,0.00488,0.02928,-0.03904,0.0244,-0.00488,0.0244,0.00976,-0.03904,-0.00976
-0.0488,0.0366,-0.0244,0,0.0244,-0.0366,0.0244,-0.00488,0.0244,0.00976,-0.03904,-0.00976
-0.0488,0.0366,-0.0244,0,0.0244,-0.0366,0.0244,-0.00488,0.0244,0.00976,-0.03904,-0.01464
-0.0488,0.0366,-0.0244,0,0.0244,-0.0366,0.0244,-0.00488,0.01952,0.00488,-0.04392,-0.01464
-0.0488,0.0366,-0.0244,0,0.0244,-0.0366,0.0244,-0.00488,0.01952,0.00488,-0.04392,-0.01464
-0.05368,0.04148,-0.02928,-0.00244,0.0244,-0.03904,0.0244,-0.00488,0.01952,0.00488,-0.04392,-0.01464
-0.05368,0.04148,-0.02928,-0.00244,0.0244,-0.03904,0.0244,-0.00976,0.01952,0.00488,-0.03904,-0.01464
-0.05368,0.04392,-0.03416,-0.00732,0.01952,-0.0366,0.0244,-0.00976,0.00976,0.00488,-0.03904,-0.01952
-0.05856,0.0488,-0.03904,-0.00976,0.01952,-0.03904,0.0244,-0.00976,0.00976,0,-0.03904,-0.01952
-0.06344,0.05368,-0.04392,-0.0122,0.01952,-0.04148,0.0244,-0.00976,0.01464,-0.00976,-0.03904,-0.01952
-0.06344,0.05368,-0.04392,-0.0122,0.01952,-0.04148,0.0244,-0.00976,0.01464,-0.00976,-0.04392,-0.0244
-0.06344,0.05368,-0.04392,-0.0122,0.01952,-0.04148,0.0244,-0.00976,0.01464,-0.00976,-0.05368,-0.0244
-0.06344,0.05368,-0.04392,-0.0122,0.01952,-0.04148,0.0244,-0.00976,0.01464,-0.00976,-0.05368,-0.0244
-0.06832,0.05612,-0.04392,-0.00976,0.0244,-0.04636,0.0244,-0.00976,0.01464,-0.00976,-0.05368,-0.01952
-0.06832,0.05612,-0.04392,-0.00976,0.0244,-0.04636,0.02928,-0.00976,0.01464,-0.00976,-0.05368,-0.0244
-0.05856,0.05124,-0.04392,-0.01464,0.01464,-0.0366,0.02928,-0.00976,0.01464,-0.00976,-0.05368,-0.02928
-0.05856,0.05124,-0.04392,-0.01464,0.01464,-0.0366,0.02928,-0.00976,0.01464,-0.00976,-0.0488,-0.0244
-0.05856,0.05124,-0.04392,-0.01464,0.01464,-0.0366,0.02928,-0.00976,0.01464,-0.00976,-0.0488,-0.01952
-0.05856,0.0488,-0.03904,-0.00976,0.01952,-0.03904,0.02928,-0.01464,0.01464,-0.00976,-0.0488,-0.01952
-0.05856,0.0488,-0.03904,-0.00976,0.01952,-0.03904,0.02928,-0.01952,0.01464,-0.00976,-0.0488,-0.01464
-0.05368,0.04636,-0.03904,-0.0122,0.01464,-0.03416,0.0244,-0.01952,0.01464,-0.00976,-0.0488,-0.01464
-0.05368,0.04636,-0.03904,-0.0122,0.01464,-0.03416,0.0244,-0.01952,0.01952,-0.01464,-0.0488,-0.01952
-0.05856,0.05368,-0.0488,-0.01952,0.00976,-0.03416,0.0244,-0.01952,0.01952,-0.01464,-0.05368,-0.0244
-0.05856,0.05612,-0.05368,-0.0244,0.00488,-0.03172,0.01952,-0.01952,0.01464,-0.01464,-0.05856,-0.0244
-0.05856,0.05368,-0.0488,-0.01952,0.00976,-0.03416,0.0244,-0.0244,0.00976,-0.01464,-0.06344,-0.0244
-0.05856,0.05368,-0.0488,-0.01952,0.00976,-0.03416,0.02928,-0.0244,0.00976,-0.01464,-0.06344,-0.0244
-0.06344,0.05612,-0.0488,-0.01708,0.01464,-0.03904,0.02928,-0.0244,0.00976,-0.00976,-0.05368,-0.0244
-0.06832,0.061,-0.05368,-0.01952,0.01464,-0.04148,0.0244,-0.0244,0.00488,-0.00976,-0.0488,-0.0244
-0.06832,0.05856,-0.0488,-0.01464,0.01952,-0.04392,0.0244,-0.0244,0.00488,-0.00976,-0.0488,-0.0244
-0.06344,0.05612,-0.0488,-0.01708,0.01464,-0.03904,0.0244,-0.0244,0.00488,-0.00976,-0.0488,-0.0244
-0.05856,0.05368,-0.0488,-0.01952,0.00976,-0.03416,0.02928,-0.0244,0.00488,-0.00976,-0.0488,-0.0244
-0.05856,0.05124,-0.04392,-0.01464,0.01464,-0.0366,0.0244,-0.01952,0.00976,-0.01464,-0.0488,-0.02928
-0.05368,0.0488,-0.04392,-0.01708,0.00976,-0.03172,0.01464,-0.01952,0.00488,-0.01952,-0.05856,-0.03416
-0.05856,0.05368,-0.0488,-0.01952,0.00976,-0.03416,0.01952,-0.01952,0.00488,-0.0244,-0.06344,-0.03904
-0.05856,0.05612,-0.05368,-0.0244,0.00488,-0.03172,0.01952,-0.01952,0.00488,-0.0244,-0.05856,-0.03416
-0.05856,0.05856,-0.05856,-0.02928,0,-0.02928,0.01952,-0.01952,0.00488,-0.0244,-0.05856,-0.03416
-0.05856,0.05612,-0.05368,-0.0244,0.00488,-0.03172,0.0244,-0.01464,0.00488,-0.01464,-0.05368,-0.02928
-0.05856,0.05368,-0.0488,-0.01952,0.00976,-0.03416,0.02928,-0.00976,0.00976,-0.00976,-0.0488,-0.02928
-0.05368,0.04148,-0.02928,-0.00244,0.0244,-0.03904,0.02928,-0.00976,0.01952,-0.00488,-0.0488,-0.0244
-0.0488,0.02928,-0.00976,0.01464,0.03904,-0.04392,0.02928,-0.00976,0.02928,0,-0.0488,-0.01952
-0.04392,0.02684,-0.00976,0.0122,0.03416,-0.03904,0.02928,-0.00488,0.02928,0.00488,-0.04392,-0.01464
-0.03904,0.02196,-0.00488,0.01464,0.03416,-0.0366,0.02928,0,0.03416,0.00976,-0.03904,-0.00976
-0.03904,0.02196,-0.00488,0.01464,0.03416,-0.0366,0.02928,0,0.03904,0.01952,-0.03416,-0.00976
-0.03416,0.01708,0,0.01708,0.03416,-0.03416,0.02928,0,0.03904,0.0244,-0.03416,-0.00488
-0.03904,0.01952,0,0.01952,0.03904,-0.03904,0.03416,0,0.04392,0.0244,-0.02928,-0.00488
-0.04392,0.02196,0,0.02196,0.04392,-0.04392,0.0244,0,0.0488,0.0244,-0.02928,-0.00488
-0.02928,0.01464,0,0.01464,0.02928,-0.02928,0.01464,0,0.03904,0.01952,-0.02928,-0.00488
-0.0244,0.01464,-0.00488,0.00732,0.01952,-0.02196,0.00488,-0.00488,0.03416,0.01952,-0.02928,-0.00488
-0.01464,0.00976,-0.00488,0.00244,0.00976,-0.0122,-0.00488,-0.00488,0.0244,0.01464,-0.02928,-0.00488
-0.00976,0.00732,-0.00488,0,0.00488,-0.00732,-0.01464,-0.00976,0.01464,0.00976,-0.02928,-0.00488
-0.00976,0.0122,-0.01464,-0.00976,-0.00488,-0.00244,-0.0244,-0.0244,0.00488,0,-0.03416,-0.00976
-0.00488,0.0122,-0.01952,-0.01708,-0.01464,0.00488,-0.03416,-0.03904,-0.00976,-0.00976,-0.04392,-0.01464
0.00488,0.00732,-0.01952,-0.02196,-0.0244,0.01464,-0.0488,-0.05368,-0.0244,-0.02928,-0.05368,-0.01464
0.00976,0.00488,-0.01952,-0.0244,-0.02928,0.01952,-0.05856,-0.05856,-0.02928,-0.03416,-0.06344,-0.01952
0.01464,0.00488,-0.0244,-0.03172,-0.03904,0.02684,-0.05368,-0.05856,-0.02928,-0.03416,-0.06344,-0.0244
0.01952,0.00244,-0.0244,-0.03416,-0.04392,0.03172,-0.04392,-0.05856,-0.02928,-0.02928,-0.06344,-0.0244
0.01464,0.00244,-0.01952,-0.02684,-0.03416,0.0244,-0.03416,-0.04392,-0.01464,-0.01464,-0.0488,-0.01464
0.00976,0.00488,-0.01952,-0.0244,-0.02928,0.01952,-0.0244,-0.03904,-0.00976,-0.00976,-0.04392,-0.01464
-0.00488,0.00976,-0.01464,-0.0122,-0.00976,0.00244,-0.01464,-0.02928,0,-0.00488,-0.03904,-0.00976
-0.01464,0.01952,-0.0244,-0.01708,-0.00976,-0.00244,0,-0.0244,0.00488,-0.00488,-0.03904,-0.00976
-0.03416,0.03172,-0.02928,-0.0122,0.00488,-0.01952,0.00976,-0.01952,0.00976,0,-0.03904,-0.01464
-0.03904,0.03904,-0.03904,-0.01952,0,-0.01952,0.01952,-0.01464,0.01464,0,-0.04392,-0.0244
-0.04392,0.04636,-0.0488,-0.02684,-0.00488,-0.01952,0.0244,-0.01464,0.00976,-0.00976,-0.0488,-0.03416
-0.0488,0.05368,-0.05856,-0.03416,-0.00976,-0.01952,0.0244,-0.01464,0.00976,-0.00976,-0.05856,-0.03904
-0.05368,0.05612,-0.05856,-0.03172,-0.00488,-0.0244,0.0244,-0.01952,0.00976,-0.01464,-0.05856,-0.03904
-0.05368,0.05612,-0.05856,-0.03172,-0.00488,-0.0244,0.0244,-0.01952,0.00976,-0.01952,-0.05856,-0.03904
-0.05368,0.05612,-0.05856,-0.03172,-0.00488,-0.0244,0.0244,-0.01464,0.00976,-0.01952,-0.05856,-0.03904
-0.05368,0.05612,-0.05856,-0.03172,-0.00488,-0.0244,0.0244,-0.01464,0.00976,-0.01952,-0.05856,-0.03904
-0.05368,0.05368,-0.05368,-0.02684,0,-0.02684,0.02928,-0.01464,0.00976,-0.01952,-0.05856,-0.03904
-0.05368,0.05124,-0.0488,-0.02196,0.00488,-0.02928,0.03416,-0.01464,0.00976,-0.01952,-0.05856,-0.03904
-0.05856,0.05368,-0.0488,-0.01952,0.00976,-0.03416,0.03416,-0.01464,0.00976,-0.01952,-0.06344,-0.04392
-0.05856,0.05368,-0.0488,-0.01952,0.00976,-0.03416,0.03416,-0.01464,0.00976,-0.01952,-0.06344,-0.04392
-0.06344,0.05612,-0.0488,-0.01708,0.01464,-0.03904,0.03904,-0.00976,0.00976,-0.01952,-0.06344,-0.04392
-0.06832,0.061,-0.05368,-0.01952,0.01464,-0.04148,0.03904,-0.00976,0.00976,-0.01952,-0.06344,-0.04392
-0.06832,0.061,-0.05368,-0.01952,0.01464,-0.04148,0.03904,-0.00976,0.00976,-0.01952,-0.06344,-0.04392
-0.06832,0.061,-0.05368,-0.01952,0.01464,-0.04148,0.03904,-0.00976,0.00976,-0.01952,-0.06344,-0.04392
-0.06832,0.061,-0.05368,-0.01952,0.01464,-0.04148,0.03416,-0.00976,0.01464,-0.01464,-0.06344,-0.04392
-0.06832,0.061,-0.05368,-0.01952,0.01464,-0.04148,0.03416,-0.00976,0.01464,-0.01464,-0.06344,-0.04392
-0.06344,0.05856,-0.05368,-0.02196,0.00976,-0.0366,0.03416,-0.00976,0.01464,-0.01464,-0.06344,-0.03904
-0.06344,0.061,-0.05856,-0.02684,0.00488,-0.03416,0.04392,-0.00488,0.01952,-0.01464,-0.06344,-0.03904
-0.0732,0.0732,-0.0732,-0.0366,0,-0.0366,0.05856,0.00488,0.01464,-0.02928,-0.0732,-0.05368
-0.09272,0.08784,-0.08296,-0.0366,0.00976,-0.05124,0.08296,0.01464,0.01464,-0.03416,-0.10248,-0.08296
-0.11712,0.10492,-0.09272,-0.03416,0.0244,-0.07076,0.10736,0.0244,0.01952,-0.05856,-0.14152,-0.12688
-0.13176,0.10004,-0.06832,-0.00244,0.06344,-0.0976,0.11712,0.03904,0.0488,-0.03904,-0.13176,-0.122
-0.13176,0.0732,-0.01464,0.05124,0.11712,-0.12444,0.10736,0.06344,0.11712,0.0244,-0.08296,-0.07808
-0.07808,0.01952,0.03904,0.07808,0.11712,-0.0976,0.08296,0.10248,0.16592,0.11224,0.01464,0.00976
0,-0.03416,0.06832,0.06832,0.06832,-0.03416,0.11712,0.21472,0.244,0.23424,0.15616,0.12688
0.09272,-0.09516,0.0976,0.05124,0.00488,0.04392,0.11224,0.28304,0.27328,0.33672,0.31232,0.25376
0.27816,-0.21472,0.15128,0.0122,-0.12688,0.20252,-0.0488,0.22448,0.2684,0.44896,0.49776,0.4148
0.4636,-0.35136,0.23912,0.00732,-0.22448,0.34404,-0.23912,0.08296,0.19032,0.51728,0.6832,0.59048
0.68808,-0.53436,0.38064,0.0366,-0.30744,0.49776,-0.53192,-0.1464,0.00488,0.61976,1.02968,0.88328
0.79544,-0.58072,0.366,-0.03172,-0.42944,0.61244,-0.6832,-0.2684,-0.18544,0.6588,1.20536,0.99552
0.76128,-0.51728,0.27328,-0.10736,-0.488,0.62464,-0.7564,-0.3904,-0.40504,0.5612,1.12728,0.89304
0.62464,-0.40504,0.18544,-0.12688,-0.4392,0.53192,-0.72712,-0.48312,-0.48312,0.41968,0.8784,0.68808
0.366,-0.19764,0.02928,-0.15372,-0.33672,0.35136,-0.54168,-0.4392,-0.40504,0.22448,0.42456,0.31232
0.14152,-0.02196,-0.0976,-0.16836,-0.23912,0.19032,-0.33672,-0.366,-0.32696,0.0488,0.08296,0.0244
0.0244,0.05124,-0.12688,-0.13908,-0.15128,0.08784,-0.13176,-0.27328,-0.27328,-0.0732,-0.0488,-0.03904
-0.02928,0.0732,-0.11712,-0.10248,-0.08784,0.02928,0,-0.1464,-0.1952,-0.09272,-0.08784,-0.06832
-0.02928,0.05856,-0.08784,-0.0732,-0.05856,0.01464,0.01952,-0.06832,-0.08784,-0.0488,-0.05368,-0.04392
-0.03904,0.05612,-0.0732,-0.05368,-0.03416,-0.00244,0.03416,-0.0244,-0.03416,-0.01464,-0.03904,-0.03904
-0.04392,0.05368,-0.06344,-0.04148,-0.01952,-0.0122,0.03904,-0.01464,-0.0244,0,-0.03904,-0.03904
-0.0488,0.05124,-0.05368,-0.02928,-0.00488,-0.02196,0.04392,-0.00976,-0.00976,0.00488,-0.03904,-0.03904
-0.0488,0.04392,-0.03904,-0.01464,0.00976,-0.02928,0.04392,-0.00488,0.01464,0.00488,-0.03904,-0.03904
-0.05856,0.04636,-0.03416,-0.00488,0.0244,-0.04148,0.04392,0,0.0244,0.00488,-0.0488,-0.03904
-0.05856,0.04636,-0.03416,-0.00488,0.0244,-0.04148,0.04392,0,0.0244,0.00488,-0.05368,-0.04392
-0.05856,0.04636,-0.03416,-0.00488,0.0244,-0.04148,0.04392,0,0.0244,0,-0.05856,-0.0488
-0.05856,0.04636,-0.03416,-0.00488,0.0244,-0.04148,0.0488,0,0.0244,-0.00488,-0.05856,-0.0488
-0.06344,0.0488,-0.03416,-0.00244,0.02928,-0.04636,0.0488,0.00488,0.0244,-0.00976,-0.05856,-0.0488
-0.06832,0.05124,-0.03416,0,0.03416,-0.05124,0.0488,0.00488,0.03416,-0.00976,-0.05856,-0.0488
-0.07808,0.05612,-0.03416,0.00488,0.04392,-0.061,0.0488,0.00488,0.03416,-0.00976,-0.05856,-0.0488
-0.07808,0.05612,-0.03416,0.00488,0.04392,-0.061,0.0488,0.00488,0.03416,-0.00976,-0.05856,-0.05368
-0.07808,0.05612,-0.03416,0.00488,0.04392,-0.061,0.0488,0.00488,0.03416,-0.00976,-0.06344,-0.05368
-0.0732,0.05124,-0.02928,0.00732,0.04392,-0.05856,0.0488,0,0.03416,-0.00488,-0.06344,-0.0488
-0.0732,0.0488,-0.0244,0.0122,0.0488,-0.061,0.0488,-0.00488,0.02928,0,-0.06344,-0.0488
-0.07808,0.05368,-0.02928,0.00976,0.0488,-0.06344,0.0488,-0.00488,0.02928,-0.00488,-0.06344,-0.0488
-0.07808,0.05368,-0.02928,0.00976,0.0488,-0.06344,0.04392,-0.00488,0.02928,-0.00488,-0.05856,-0.0488
-0.0732,0.05124,-0.02928,0.00732,0.04392,-0.05856,0.04392,-0.00488,0.02928,-0.00488,-0.05856,-0.04392
-0.0732,0.05368,-0.03416,0.00244,0.03904,-0.05612,0.04392,-0.00488,0.02928,0,-0.05856,-0.04392
-0.0732,0.05368,-0.03416,0.00244,0.03904,-0.05612,0.0488,0,0.02928,0,-0.05368,-0.04392
-0.0732,0.05368,-0.03416,0.00244,0.03904,-0.05612,0.0488,0.00488,0.0244,0,-0.0488,-0.04392
-0.0732,0.05368,-0.03416,0.00244,0.03904,-0.05612,0.0488,0.00488,0.0244,0,-0.0488,-0.03904
-0.06832,0.05124,-0.03416,0,0.03416,-0.05124,0.0488,0.00488,0.0244,-0.00488,-0.0488,-0.03904
-0.06344,0.0488,-0.03416,-0.00244,0.02928,-0.04636,0.04392,0.00488,0.0244,-0.00488,-0.05368,-0.03904
-0.06344,0.0488,-0.03416,-0.00244,0.02928,-0.04636,0.03904,0.00488,0.01952,-0.00488,-0.05368,-0.03904
-0.06344,0.0488,-0.03416,-0.00244,0.02928,-0.04636,0.03416,0.00488,0.01952,-0.00488,-0.05368,-0.03904
-0.05856,0.04636,-0.03416,-0.00488,0.0244,-0.04148,0.03416,0.00488,0.01952,-0.00488,-0.05856,-0.03904
-0.05856,0.04636,-0.03416,-0.00488,0.0244,-0.04148,0.02928,0.00488,0.01464,-0.00488,-0.05856,-0.03416
-0.05856,0.04636,-0.03416,-0.00488,0.0244,-0.04148,0.02928,0.00488,0.01464,-0.00488,-0.05856,-0.03416
-0.05856,0.04636,-0.03416,-0.00488,0.0244,-0.04148,0.03416,0.00976,0.01464,-0.00488,-0.05368,-0.03416
-0.05368,0.04392,-0.03416,-0.00732,0.01952,-0.0366,0.03904,0.00976,0.01464,0,-0.05368,-0.02928
-0.05368,0.03904,-0.0244,0.00244,0.02928,-0.04148,0.03416,0.01464,0.00976,0,-0.0488,-0.03416
-0.05368,0.03904,-0.0244,0.00244,0.02928,-0.04148,0.03416,0.01464,0.00976,0,-0.0488,-0.03416
-0.0488,0.0366,-0.0244,0,0.0244,-0.0366,0.02928,0.01464,0.00976,0,-0.0488,-0.02928
-0.04392,0.03172,-0.01952,0.00244,0.0244,-0.03416,0.02928,0.01464,0.00976,0,-0.04392,-0.02928
-0.03904,0.02684,-0.01464,0.00488,0.0244,-0.03172,0.0244,0.01464,0.01464,-0.00488,-0.03904,-0.02928
-0.03904,0.0244,-0.00976,0.00976,0.02928,-0.03416,0.0244,0.01952,0.01464,-0.00488,-0.03904,-0.0244
-0.03416,0.01952,-0.00488,0.0122,0.02928,-0.03172,0.01952,0.0244,0.00976,-0.00488,-0.03416,-0.02928
-0.02928,0.01708,-0.00488,0.00976,0.0244,-0.02684,0.01464,0.0244,0.00976,-0.00488,-0.0244,-0.01464
-0.0244,0.0122,0,0.0122,0.0244,-0.0244,0.00976,0.0244,0.00976,0,-0.0244,-0.00976
-0.01952,0.00488,0.00976,0.01952,0.02928,-0.0244,0.00976,0.02928,0.00488,0,-0.01952,0
-0.01464,0,0.01464,0.02196,0.02928,-0.02196,0,0.03416,0,0,-0.01464,0.00488
-0.00488,-0.00732,0.01952,0.02196,0.0244,-0.01464,0,0.0488,-0.00488,0.00976,-0.00976,0.01464
0.00488,-0.01464,0.0244,0.02196,0.01952,-0.00732,-0.01464,0.05368,-0.00976,0.00976,0,0.02928
0.01464,-0.0244,0.03416,0.02684,0.01952,-0.00244,-0.01952,0.05368,-0.01464,0.00976,0.01464,0.03904
0.03416,-0.04148,0.0488,0.03172,0.01464,0.00976,-0.02928,0.06344,-0.01952,0.01464,0.03416,0.0488
0.0488,-0.05124,0.05368,0.02928,0.00488,0.02196,-0.03904,0.0732,-0.01952,0.02928,0.0488,0.06832
0.06832,-0.06344,0.05856,0.0244,-0.00976,0.03904,-0.04392,0.08296,-0.01952,0.02928,0.05856,0.08784
0.08296,-0.07076,0.05856,0.01708,-0.0244,0.05368,-0.05368,0.09272,-0.0244,0.03416,0.06832,0.10248
0.10248,-0.0854,0.06832,0.01708,-0.03416,0.06832,-0.05856,0.0976,-0.02928,0.03904,0.08296,0.11224
0.11224,-0.09516,0.07808,0.02196,-0.03416,0.0732,-0.06832,0.10248,-0.03904,0.04392,0.0976,0.122
0.13176,-0.1098,0.08784,0.02196,-0.04392,0.08784,-0.07808,0.11224,-0.04392,0.04392,0.11712,0.13664
0.14152,-0.11468,0.08784,0.01708,-0.05368,0.0976,-0.08296,0.11712,-0.0488,0.0488,0.12688,0.15128
0.1464,-0.11956,0.09272,0.01952,-0.05368,0.10004,-0.08296,0.12688,-0.0488,0.05368,0.14152,0.16104
0.15616,-0.12444,0.09272,0.01464,-0.06344,0.1098,-0.08784,0.12688,-0.05368,0.05368,0.15128,0.1708
0.16592,-0.12932,0.09272,0.00976,-0.0732,0.11956,-0.09272,0.13176,-0.05856,0.05368,0.16104,0.18544
0.17568,-0.13664,0.0976,0.00976,-0.07808,0.12688,-0.0976,0.13176,-0.06344,0.05856,0.1708,0.19032
0.18544,-0.14396,0.10248,0.00976,-0.08296,0.1342,-0.10248,0.13664,-0.06832,0.06344,0.17568,0.1952
0.20008,-0.15372,0.10736,0.00732,-0.09272,0.1464,-0.11224,0.13664,-0.07808,0.06344,0.17568,0.20008
0.20008,-0.15128,0.10248,0.00244,-0.0976,0.14884,-0.11224,0.14152,-0.07808,0.05856,0.18056,0.20496
0.1952,-0.14884,0.10248,0.00488,-0.09272,0.14396,-0.11224,0.1464,-0.07808,0.05368,0.18056,0.20008
0.18544,-0.14152,0.0976,0.00488,-0.08784,0.13664,-0.10248,0.14152,-0.07808,0.0488,0.16592,0.1952
0.17568,-0.13176,0.08784,0,-0.08784,0.13176,-0.09272,0.14152,-0.0732,0.0488,0.15616,0.19032
0.16104,-0.122,0.08296,0.00244,-0.07808,0.11956,-0.08296,0.13664,-0.0732,0.05368,0.15128,0.17568
0.1464,-0.10736,0.06832,-0.00488,-0.07808,0.11224,-0.0732,0.12688,-0.0732,0.0488,0.14152,0.15616
0.12688,-0.0976,0.06832,0.00488,-0.05856,0.09272,-0.05856,0.122,-0.06344,0.04392,0.122,0.13664
0.11224,-0.0854,0.05856,0.00244,-0.05368,0.08296,-0.0488,0.11712,-0.05856,0.02928,0.10736,0.122
0.0976,-0.0732,0.0488,0,-0.0488,0.0732,-0.03904,0.11224,-0.0488,0.01952,0.08784,0.10248
0.07808,-0.061,0.04392,0.00488,-0.03416,0.05612,-0.03416,0.10248,-0.03904,0.01464,0.0732,0.08296
0.05856,-0.04636,0.03416,0.00488,-0.0244,0.04148,-0.01952,0.0976,-0.02928,0.01464,0.05368,0.06832
0.04392,-0.0366,0.02928,0.00732,-0.01464,0.02928,-0.00976,0.08784,-0.01464,0.01464,0.03904,0.0488
0.02928,-0.02684,0.0244,0.00976,-0.00488,0.01708,0,0.08296,-0.00488,0.01464,0.03416,0.03416
0.01952,-0.02196,0.0244,0.01464,0.00488,0.00732,0.00976,0.07808,0.00976,0.01464,0.03416,0.0244
0.00488,-0.00976,0.01464,0.0122,0.00976,-0.00244,0.01952,0.0732,0.0244,0.01952,0.0244,0.01464
-0.00488,-0.00488,0.01464,0.01708,0.01952,-0.0122,0.0244,0.06344,0.03416,0.02928,0.01952,0.00976
-0.00976,0,0.00976,0.01464,0.01952,-0.01464,0.02928,0.05856,0.03904,0.02928,0.00976,0
-0.01464,0.00244,0.00976,0.01708,0.0244,-0.01952,0.02928,0.0488,0.04392,0.0244,0.00488,-0.00976
-0.0244,0.00976,0.00488,0.01708,0.02928,-0.02684,0.02928,0.04392,0.0488,0.0244,0,-0.01952
-0.03416,0.01708,0,0.01708,0.03416,-0.03416,0.03416,0.03416,0.0488,0.0244,-0.00488,-0.0244
-0.03416,0.01708,0,0.01708,0.03416,-0.03416,0.03416,0.03416,0.05368,0.0244,-0.00488,-0.0244
-0.03904,0.01952,0,0.01952,0.03904,-0.03904,0.03416,0.02928,0.05856,0.0244,-0.00488,-0.0244
-0.03904,0.02196,-0.00488,0.01464,0.03416,-0.0366,0.03416,0.0244,0.05856,0.0244,-0.00976,-0.0244
-0.04392,0.0244,-0.00488,0.01708,0.03904,-0.04148,0.03416,0.0244,0.05856,0.0244,-0.01464,-0.0244
-0.04392,0.02196,0,0.02196,0.04392,-0.04392,0.03416,0.01464,0.05856,0.01952,-0.01464,-0.02928
-0.0488,0.0244,0,0.0244,0.0488,-0.0488,0.03416,0.00976,0.05856,0.01952,-0.01952,-0.02928
-0.0488,0.0244,0,0.0244,0.0488,-0.0488,0.03416,0.00488,0.05856,0.01952,-0.0244,-0.03904
-0.04392,0.02196,0,0.02196,0.04392,-0.04392,0.03416,0.00488,0.05856,0.01952,-0.0244,-0.03904
-0.0488,0.02684,-0.00488,0.01952,0.04392,-0.04636,0.03416,0.00488,0.05856,0.00976,-0.02928,-0.04392
-0.05368,0.03416,-0.01464,0.0122,0.03904,-0.04636,0.03416,0.00488,0.05856,0.00976,-0.02928,-0.0488
-0.05856,0.0366,-0.01464,0.01464,0.04392,-0.05124,0.03416,0.00488,0.05368,0.00976,-0.02928,-0.04392
-0.05856,0.03416,-0.00976,0.01952,0.0488,-0.05368,0.03416,0.00488,0.0488,0.00976,-0.02928,-0.04392
-0.05856,0.0366,-0.01464,0.01464,0.04392,-0.05124,0.03416,0.00488,0.0488,0.00976,-0.03416,-0.04392
-0.05856,0.03904,-0.01952,0.00976,0.03904,-0.0488,0.03416,0.00976,0.0488,0.00976,-0.03904,-0.0488
-0.05856,0.04148,-0.0244,0.00488,0.03416,-0.04636,0.03416,0.00976,0.0488,0.00976,-0.03904,-0.05368
-0.05856,0.04148,-0.0244,0.00488,0.03416,-0.04636,0.03416,0.00976,0.0488,0.00976,-0.03904,-0.0488
-0.05856,0.04148,-0.0244,0.00488,0.03416,-0.04636,0.03904,0.00976,0.0488,0.00976,-0.03904,-0.0488
-0.05856,0.04148,-0.0244,0.00488,0.03416,-0.04636,0.03904,0.01464,0.0488,0.01464,-0.03904,-0.0488
-0.05368,0.0366,-0.01952,0.00732,0.03416,-0.04392,0.04392,0.01464,0.0488,0.01464,-0.03904,-0.0488
-0.0488,0.03416,-0.01952,0.00488,0.02928,-0.03904,0.04392,0.01464,0.05368,0.01464,-0.03904,-0.0488
-0.05368,0.0366,-0.01952,0.00732,0.03416,-0.04392,0.04392,0.01952,0.05368,0.01464,-0.03904,-0.0488
-0.05368,0.0366,-0.01952,0.00732,0.03416,-0.04392,0.04392,0.01952,0.05368,0.01464,-0.03904,-0.0488
-0.0488,0.03416,-0.01952,0.00488,0.02928,-0.03904,0.03904,0.01952,0.05368,0.01464,-0.03904,-0.0488
-0.0488,0.03172,-0.01464,0.00976,0.03416,-0.04148,0.03904,0.01952,0.05856,0.01464,-0.03904,-0.0488
-0.0488,0.03172,-0.01464,0.00976,0.03416,-0.04148,0.03904,0.01952,0.05856,0.01464,-0.03904,-0.0488
-0.0488,0.03172,-0.01464,0.00976,0.03416,-0.04148,0.03904,0.01952,0.05856,0.01952,-0.03904,-0.0488
-0.0488,0.02928,-0.00976,0.01464,0.03904,-0.04392,0.03904,0.01464,0.05856,0.01952,-0.03904,-0.04392
-0.0488,0.02684,-0.00488,0.01952,0.04392,-0.04636,0.03904,0.01464,0.05856,0.01952,-0.02928,-0.03904
-0.0488,0.02684,-0.00488,0.01952,0.04392,-0.04636,0.03904,0.01464,0.05856,0.01952,-0.02928,-0.03904
-0.0488,0.02684,-0.00488,0.01952,0.04392,-0.04636,0.03904,0.01464,0.05856,0.01952,-0.02928,-0.03904
-0.0488,0.0244,0,0.0244,0.0488,-0.0488,0.03904,0.01952,0.05856,0.01952,-0.02928,-0.03416
-0.0488,0.0244,0,0.0244,0.0488,-0.0488,0.03904,0.01952,0.05856,0.0244,-0.0244,-0.03416
-0.0488,0.0244,0,0.0244,0.0488,-0.0488,0.03416,0.01952,0.05856,0.0244,-0.0244,-0.03904
-0.04392,0.02196,0,0.02196,0.04392,-0.04392,0.03416,0.01464,0.05856,0.01952,-0.0244,-0.03904
-0.04392,0.02196,0,0.02196,0.04392,-0.04392,0.03416,0.01464,0.05368,0.0244,-0.0244,-0.03904
-0.04392,0.02196,0,0.02196,0.04392,-0.04392,0.03416,0.01464,0.05368,0.02928,-0.0244,-0.03416
-0.03904,0.01952,0,0.01952,0.03904,-0.03904,0.0244,0.01464,0.05368,0.02928,-0.0244,-0.03416
-0.03904,0.01952,0,0.01952,0.03904,-0.03904,0.01952,0.00976,0.0488,0.02928,-0.0244,-0.02928
-0.03904,0.01952,0,0.01952,0.03904,-0.03904,0.01952,0.00976,0.0488,0.02928,-0.0244,-0.02928
-0.03904,0.01708,0.00488,0.0244,0.04392,-0.04148,0.01952,0.00976,0.0488,0.02928,-0.0244,-0.02928
-0.03416,0.01464,0.00488,0.02196,0.03904,-0.0366,0.01952,0.00976,0.0488,0.0244,-0.02928,-0.02928
-0.02928,0.0122,0.00488,0.01952,0.03416,-0.03172,0.01952,0.00488,0.0488,0.01464,-0.02928,-0.02928
-0.02928,0.01464,0,0.01464,0.02928,-0.02928,0.01952,0.00488,0.04392,0.01464,-0.02928,-0.02928
-0.02928,0.01464,0,0.01464,0.02928,-0.02928,0.0244,0.00488,0.04392,0.01464,-0.03416,-0.02928
-0.02928,0.01464,0,0.01464,0.02928,-0.02928,0.0244,0.00488,0.03904,0.00976,-0.03416,-0.02928
-0.02928,0.01464,0,0.01464,0.02928,-0.02928,0.0244,0.00488,0.03416,0.00976,-0.02928,-0.02928
-0.03416,0.01708,0,0.01708,0.03416,-0.03416,0.01952,0,0.03416,0.00976,-0.02928,-0.02928
-0.03904,0.01952,0,0.01952,0.03904,-0.03904,0.01464,0,0.02928,0.00488,-0.03416,-0.02928
-0.03904,0.01952,0,0.01952,0.03904,-0.03904,0.01464,0,0.0244,0.00488,-0.03904,-0.02928
-0.03904,0.01952,0,0.01952,0.03904,-0.03904,0.01464,0,0.0244,0.00488,-0.03904,-0.03904
-0.03416,0.01708,0,0.01708,0.03416,-0.03416,0.01464,-0.00488,0.02928,0,-0.03904,-0.03904
-0.02928,0.01464,0,0.01464,0.02928,-0.02928,0.01464,-0.00488,0.03416,0,-0.03904,-0.03904
-0.02928,0.01708,-0.00488,0.00976,0.0244,-0.02684,0.01464,-0.00488,0.03416,0,-0.03904,-0.03904
-0.02928,0.01708,-0.00488,0.00976,0.0244,-0.02684,0.01464,-0.00488,0.03416,0,-0.03904,-0.04392
-0.03416,0.01952,-0.00488,0.0122,0.02928,-0.03172,0.01464,-0.00488,0.02928,-0.00488,-0.04392,-0.04392
-0.03904,0.02196,-0.00488,0.01464,0.03416,-0.0366,0.01464,-0.00488,0.02928,-0.00488,-0.04392,-0.04392
-0.04392,0.02684,-0.00976,0.0122,0.03416,-0.03904,0.01464,-0.00488,0.02928,-0.00488,-0.04392,-0.04392
-0.04392,0.02684,-0.00976,0.0122,0.03416,-0.03904,0.01464,-0.00976,0.02928,-0.00488,-0.04392,-0.04392
-0.04392,0.02928,-0.01464,0.00732,0.02928,-0.0366,0.01464,-0.00976,0.01952,-0.00488,-0.0488,-0.0488
-0.04392,0.02928,-0.01464,0.00732,0.02928,-0.0366,0.01464,-0.00976,0.01952,-0.00488,-0.0488,-0.0488
-0.03904,0.02684,-0.01464,0.00488,0.0244,-0.03172,0.01464,-0.00976,0.0244,-0.00976,-0.0488,-0.0488
-0.03416,0.0244,-0.01464,0.00244,0.01952,-0.02684,0.01464,-0.00976,0.0244,-0.00976,-0.0488,-0.05368
-0.03416,0.0244,-0.01464,0.00244,0.01952,-0.02684,0.01464,-0.01464,0.0244,-0.00976,-0.05856,-0.05368
-0.03416,0.0244,-0.01464,0.00244,0.01952,-0.02684,0.01464,-0.01952,0.0244,-0.00976,-0.06344,-0.05368
-0.03904,0.02684,-0.01464,0.00488,0.0244,-0.03172,0.01464,-0.01952,0.01952,-0.00976,-0.06344,-0.05368
-0.03904,0.02684,-0.01464,0.00488,0.0244,-0.03172,0.01464,-0.01952,0.01464,-0.00976,-0.06344,-0.05856
-0.03416,0.02684,-0.01952,-0.00244,0.01464,-0.0244,0.01464,-0.01952,0.01464,-0.00976,-0.06344,-0.06344
-0.03904,0.03172,-0.0244,-0.00488,0.01464,-0.02684,0.01464,-0.01952,0.01464,-0.00976,-0.05856,-0.05856
-0.03904,0.02684,-0.01464,0.00488,0.0244,-0.03172,0.01952,-0.01464,0.01464,-0.00976,-0.05856,-0.05368
-0.03904,0.0244,-0.00976,0.00976,0.02928,-0.03416,0.0244,-0.01464,0.01952,-0.00976,-0.05856,-0.05368
-0.02928,0.01708,-0.00488,0.00976,0.0244,-0.02684,0.0244,-0.00976,0.0244,-0.00488,-0.05368,-0.0488
-0.01952,0.00976,0,0.00976,0.01952,-0.01952,0.02928,-0.00976,0.02928,0,-0.0488,-0.0488
-0.01952,0.00488,0.00976,0.01952,0.02928,-0.0244,0.02928,-0.00976,0.03904,0,-0.04392,-0.04392
-0.01952,0,0.01952,0.02928,0.03904,-0.02928,0.02928,-0.00976,0.0488,0,-0.03904,-0.03904
-0.01952,0,0.01952,0.02928,0.03904,-0.02928,0.02928,-0.00488,0.0488,0.00488,-0.03416,-0.03416
-0.01952,0,0.01952,0.02928,0.03904,-0.02928,0.02928,0,0.05368,0.00976,-0.02928,-0.02928
-0.01952,-0.00244,0.0244,0.03416,0.04392,-0.03172,0.02928,0,0.05856,0.01464,-0.0244,-0.02928
-0.01464,-0.00732,0.02928,0.0366,0.04392,-0.02928,0.02928,0,0.05856,0.01464,-0.0244,-0.0244
-0.01464,-0.00732,0.02928,0.0366,0.04392,-0.02928,0.0244,-0.00488,0.05368,0.00976,-0.0244,-0.02928
-0.01464,-0.00732,0.02928,0.0366,0.04392,-0.02928,0.00488,-0.00976,0.0488,0.00488,-0.02928,-0.03416
0,-0.01464,0.02928,0.02928,0.02928,-0.01464,-0.00488,-0.00976,0.03904,0,-0.02928,-0.03416
0.00488,-0.01464,0.0244,0.02196,0.01952,-0.00732,-0.01464,-0.01464,0.03416,0,-0.02928,-0.03416
0.01464,-0.01952,0.0244,0.01708,0.00976,0.00244,-0.0244,-0.01952,0.0244,-0.00488,-0.03416,-0.03416
0.01952,-0.02196,0.0244,0.01464,0.00488,0.00732,-0.03416,-0.02928,0.01464,-0.00976,-0.03904,-0.03416
0.01952,-0.01708,0.01464,0.00488,-0.00488,0.0122,-0.03904,-0.04392,0,-0.01952,-0.04392,-0.03904
0.0244,-0.01708,0.00976,-0.00244,-0.01464,0.01952,-0.04392,-0.05856,-0.01952,-0.02928,-0.05368,-0.04392
0.02928,-0.01952,0.00976,-0.00488,-0.01952,0.0244,-0.0488,-0.06832,-0.02928,-0.04392,-0.05856,-0.04392
0.02928,-0.01952,0.00976,-0.00488,-0.01952,0.0244,-0.0488,-0.06832,-0.02928,-0.04392,-0.06344,-0.0488
0.02928,-0.01708,0.00488,-0.00976,-0.0244,0.02684,-0.04392,-0.05856,-0.0244,-0.03904,-0.06344,-0.05368
0.02928,-0.01708,0.00488,-0.00976,-0.0244,0.02684,-0.03416,-0.0488,-0.01952,-0.02928,-0.06344,-0.05368
0.01952,-0.01464,0.00976,0,-0.00976,0.01464,-0.0244,-0.03416,-0.00488,-0.01952,-0.05368,-0.04392
0.00976,-0.00976,0.00976,0.00488,0,0.00488,-0.01464,-0.02928,0,-0.01952,-0.05368,-0.04392
-0.00488,-0.00244,0.00976,0.0122,0.01464,-0.00976,-0.00488,-0.0244,0.00488,-0.01464,-0.05368,-0.04392
-0.01464,0.00976,-0.00488,0.00244,0.00976,-0.0122,0.00976,-0.0244,0.00488,-0.01464,-0.05856,-0.0488
-0.03416,0.02196,-0.00976,0.00732,0.0244,-0.02928,0.01464,-0.0244,0,-0.01464,-0.05856,-0.05368
-0.03904,0.02928,-0.01952,0,0.01952,-0.02928,0.01952,-0.0244,-0.00488,-0.01952,-0.06344,-0.06344
-0.03904,0.03172,-0.0244,-0.00488,0.01464,-0.02684,0.0244,-0.0244,-0.00976,-0.02928,-0.06832,-0.06832
-0.03904,0.03416,-0.02928,-0.00976,0.00976,-0.0244,0.0244,-0.0244,-0.00976,-0.02928,-0.07808,-0.06832
-0.04392,0.0366,-0.02928,-0.00732,0.01464,-0.02928,0.0244,-0.02928,-0.00976,-0.02928,-0.07808,-0.06832
-0.04392,0.0366,-0.02928,-0.00732,0.01464,-0.02928,0.0244,-0.02928,-0.00976,-0.02928,-0.07808,-0.06832
-0.04392,0.0366,-0.02928,-0.00732,0.01464,-0.02928,0.0244,-0.0244,-0.00976,-0.02928,-0.0732,-0.06832
-0.04392,0.0366,-0.02928,-0.00732,0.01464,-0.02928,0.0244,-0.0244,-0.00976,-0.02928,-0.06832,-0.06832
-0.04392,0.0366,-0.02928,-0.00732,0.01464,-0.02928,0.0244,-0.0244,-0.00976,-0.02928,-0.06832,-0.06832
-0.04392,0.0366,-0.02928,-0.00732,0.01464,-0.02928,0.0244,-0.0244,-0.00976,-0.02928,-0.06832,-0.06832
-0.0488,0.03904,-0.02928,-0.00488,0.01952,-0.03416,0.0244,-0.0244,-0.00488,-0.02928,-0.0732,-0.0732
-0.0488,0.03904,-0.02928,-0.00488,0.01952,-0.03416,0.0244,-0.0244,0,-0.02928,-0.0732,-0.0732
-0.0488,0.03904,-0.02928,-0.00488,0.01952,-0.03416,0.02928,-0.01952,0,-0.02928,-0.0732,-0.0732
-0.0488,0.04148,-0.03416,-0.00976,0.01464,-0.03172,0.02928,-0.01952,0,-0.02928,-0.0732,-0.0732
-0.0488,0.04148,-0.03416,-0.00976,0.01464,-0.03172,0.02928,-0.01952,0,-0.02928,-0.0732,-0.0732
-0.0488,0.04148,-0.03416,-0.00976,0.01464,-0.03172,0.02928,-0.01952,0,-0.02928,-0.0732,-0.0732
-0.0488,0.04148,-0.03416,-0.00976,0.01464,-0.03172,0.0244,-0.01952,0.00488,-0.0244,-0.0732,-0.06832
-0.0488,0.04148,-0.03416,-0.00976,0.01464,-0.03172,0.0244,-0.01952,0.00488,-0.0244,-0.0732,-0.06344
-0.0488,0.04148,-0.03416,-0.00976,0.01464,-0.03172,0.0244,-0.01464,0.00488,-0.0244,-0.0732,-0.06344
-0.05368,0.04636,-0.03904,-0.0122,0.01464,-0.03416,0.03416,-0.00488,0.00976,-0.0244,-0.0732,-0.06832
-0.06344,0.05612,-0.0488,-0.01708,0.01464,-0.03904,0.05368,0,0.01464,-0.03904,-0.08296,-0.08296
-0.08296,0.06832,-0.05368,-0.0122,0.02928,-0.05612,0.08296,0.00488,0.0244,-0.04392,-0.11224,-0.11224
-0.09272,0.0732,-0.05368,-0.00732,0.03904,-0.06588,0.0976,0.01952,0.03904,-0.04392,-0.11712,-0.12688
-0.09272,0.05612,-0.01952,0.02684,0.0732,-0.08296,0.0976,0.03904,0.07808,0,-0.0732,-0.09272
-0.05368,0.00976,0.03416,0.061,0.08784,-0.07076,0.08296,0.0732,0.13176,0.0732,0.00488,-0.01952
0.03904,-0.06344,0.08784,0.06832,0.0488,-0.00488,0.05368,0.122,0.16592,0.1708,0.13176,0.0976
0.15128,-0.13176,0.11224,0.0366,-0.03904,0.09516,0.04392,0.20008,0.22448,0.28792,0.2928,0.244
0.27816,-0.2074,0.13664,-0.00244,-0.14152,0.20984,-0.00488,0.23424,0.23424,0.38552,0.46848,0.40016
0.45384,-0.32696,0.20008,-0.02684,-0.25376,0.3538,-0.19032,0.11712,0.19032,0.47336,0.64904,0.5612
0.62952,-0.4636,0.29768,-0.01708,-0.33184,0.48068,-0.40504,-0.08296,0.0732,0.51728,0.8296,0.73688
0.76128,-0.56852,0.37576,-0.00488,-0.38552,0.5734,-0.61,-0.2684,-0.10736,0.55144,1.03456,0.88816
0.77592,-0.5368,0.29768,-0.09028,-0.47824,0.62708,-0.67344,-0.34648,-0.2928,0.52216,1.06872,0.85888
0.66368,-0.43676,0.20984,-0.122,-0.45384,0.55876,-0.67344,-0.40992,-0.42456,0.40992,0.91256,0.69784
0.44896,-0.28792,0.12688,-0.0976,-0.32208,0.38552,-0.57096,-0.44408,-0.4148,0.25376,0.5856,0.43432
0.244,-0.122,0,-0.122,-0.244,0.244,-0.39528,-0.38064,-0.34648,0.09272,0.22936,0.14152
0.0732,0.0122,-0.0976,-0.1342,-0.1708,0.122,-0.20008,-0.28792,-0.27816,-0.0488,-0.01464,-0.06344
-0.00976,0.06344,-0.11712,-0.11224,-0.10736,0.0488,-0.05856,-0.20984,-0.22448,-0.122,-0.08784,-0.0976
-0.02928,0.06344,-0.0976,-0.08296,-0.06832,0.01952,0.00976,-0.0976,-0.1464,-0.09272,-0.06832,-0.0976
-0.03416,0.05368,-0.0732,-0.05612,-0.03904,0.00244,0.01952,-0.0488,-0.06832,-0.05856,-0.04392,-0.06832
-0.0488,0.05612,-0.06344,-0.03904,-0.01464,-0.01708,0.0244,-0.03416,-0.04392,-0.03416,-0.03904,-0.05856
-0.0488,0.05124,-0.05368,-0.02928,-0.00488,-0.02196,0.02928,-0.02928,-0.03416,-0.01952,-0.03904,-0.05856
-0.0488,0.04636,-0.04392,-0.01952,0.00488,-0.02684,0.03416,-0.02928,-0.01952,-0.01464,-0.03904,-0.05856
-0.04392,0.0366,-0.02928,-0.00732,0.01464,-0.02928,0.03416,-0.0244,0,-0.01464,-0.03904,-0.05856
-0.0488,0.0366,-0.0244,0,0.0244,-0.0366,0.03416,-0.01952,0.00488,-0.01464,-0.0488,-0.05856
-0.0488,0.0366,-0.0244,0,0.0244,-0.0366,0.03416,-0.01952,0.00488,-0.01464,-0.05368,-0.05856
-0.0488,0.0366,-0.0244,0,0.0244,-0.0366,0.03416,-0.01952,0.00488,-0.01952,-0.05856,-0.05856
-0.0488,0.0366,-0.0244,0,0.0244,-0.0366,0.03904,-0.0244,0.00976,-0.01952,-0.05856,-0.05856
-0.05368,0.03904,-0.0244,0.00244,0.02928,-0.04148,0.03904,-0.0244,0.01464,-0.01952,-0.05856,-0.05856
-0.05368,0.03904,-0.0244,0.00244,0.02928,-0.04148,0.03904,-0.0244,0.0244,-0.01952,-0.05856,-0.06344
-0.05856,0.04148,-0.0244,0.00488,0.03416,-0.04636,0.03904,-0.0244,0.0244,-0.01952,-0.05856,-0.06832
-0.05856,0.04148,-0.0244,0.00488,0.03416,-0.04636,0.03904,-0.0244,0.01952,-0.01952,-0.05856,-0.0732
-0.05856,0.04148,-0.0244,0.00488,0.03416,-0.04636,0.03904,-0.0244,0.01464,-0.01952,-0.06344,-0.0732
-0.05368,0.03904,-0.0244,0.00244,0.02928,-0.04148,0.03416,-0.0244,0.01464,-0.01952,-0.06344,-0.0732
-0.05368,0.03904,-0.0244,0.00244,0.02928,-0.04148,0.02928,-0.0244,0.00976,-0.01952,-0.06344,-0.07808
-0.05856,0.04392,-0.02928,0,0.02928,-0.04392,0.02928,-0.0244,0.00976,-0.0244,-0.06832,-0.07808
-0.05856,0.04392,-0.02928,0,0.02928,-0.04392,0.0244,-0.0244,0.00976,-0.0244,-0.06832,-0.07808
-0.05368,0.03904,-0.0244,0.00244,0.02928,-0.04148,0.02928,-0.0244,0.00976,-0.0244,-0.06832,-0.06832
-0.05368,0.03904,-0.0244,0.00244,0.02928,-0.04148,0.03416,-0.0244,0.00976,-0.01952,-0.06832,-0.06344
-0.05368,0.03904,-0.0244,0.00244,0.02928,-0.04148,0.03416,-0.0244,0.00976,-0.01952,-0.06344,-0.06344
-0.05368,0.03904,-0.0244,0.00244,0.02928,-0.04148,0.02928,-0.0244,0.00488,-0.01952,-0.05856,-0.06344
-0.05368,0.03904,-0.0244,0.00244,0.02928,-0.04148,0.02928,-0.0244,0.00488,-0.01952,-0.05856,-0.05856
-0.0488,0.0366,-0.0244,0,0.0244,-0.0366,0.02928,-0.0244,0.00488,-0.0244,-0.05856,-0.05856
-0.0488,0.0366,-0.0244,0,0.0244,-0.0366,0.02928,-0.0244,0.00488,-0.02928,-0.06344,-0.05856
-0.05368,0.03904,-0.0244,0.00244,0.02928,-0.04148,0.02928,-0.0244,0,-0.03416,-0.06344,-0.05856
-0.05368,0.03904,-0.0244,0.00244,0.02928,-0.04148,0.0244,-0.0244,0,-0.03416,-0.05856,-0.05368
-0.0488,0.0366,-0.0244,0,0.0244,-0.0366,0.0244,-0.0244,0,-0.03416,-0.05856,-0.0488
-0.0488,0.0366,-0.0244,0,0.0244,-0.0366,0.01952,-0.0244,-0.00488,-0.03416,-0.05856,-0.04392
-0.0488,0.0366,-0.0244,0,0.0244,-0.0366,0.01952,-0.0244,-0.00488,-0.03416,-0.05856,-0.04392
-0.0488,0.0366,-0.0244,0,0.0244,-0.0366,0.01952,-0.01952,-0.00488,-0.03416,-0.05368,-0.04392
-0.04392,0.03416,-0.0244,-0.00244,0.01952,-0.03172,0.01952,-0.01952,-0.00488,-0.02928,-0.05368,-0.03904
-0.04392,0.02928,-0.01464,0.00732,0.02928,-0.0366,0.01464,-0.01464,-0.00976,-0.02928,-0.0488,-0.03904
-0.04392,0.02928,-0.01464,0.00732,0.02928,-0.0366,0.01464,-0.01464,-0.00976,-0.02928,-0.0488,-0.03416
-0.03904,0.02684,-0.01464,0.00488,0.0244,-0.03172,0.00976,-0.01464,-0.00976,-0.02928,-0.0488,-0.02928
-0.03416,0.02196,-0.00976,0.00732,0.0244,-0.02928,0.00976,-0.01464,-0.00976,-0.02928,-0.04392,-0.02928
-0.02928,0.01708,-0.00488,0.00976,0.0244,-0.02684,0.00488,-0.01464,-0.00976,-0.03416,-0.03904,-0.02928
-0.02928,0.01464,0,0.01464,0.02928,-0.02928,0.00488,-0.00976,-0.01464,-0.03416,-0.03904,-0.0244
-0.0244,0.00976,0.00488,0.01708,0.02928,-0.02684,0,-0.00488,-0.01952,-0.03416,-0.03904,-0.02928
-0.01952,0.00732,0.00488,0.01464,0.0244,-0.02196,-0.00488,-0.00488,-0.01952,-0.03416,-0.03416,-0.01464
-0.00976,0,0.00976,0.01464,0.01952,-0.01464,-0.00976,0,-0.01952,-0.02928,-0.02928,-0.00976
0,-0.00976,0.01952,0.01952,0.01952,-0.00976,-0.00976,0.00976,-0.0244,-0.02928,-0.01952,0
0.00488,-0.01464,0.0244,0.02196,0.01952,-0.00732,-0.01952,0.00976,-0.02928,-0.02928,-0.00976,0.00488
0.01464,-0.02196,0.02928,0.02196,0.01464,0,-0.01952,0.01952,-0.03416,-0.01952,0,0.01464
0.02928,-0.02928,0.02928,0.01464,0,0.01464,-0.03416,0.0244,-0.03904,-0.01952,0.00976,0.03416
0.04392,-0.03904,0.03416,0.0122,-0.00976,0.02684,-0.03904,0.0244,-0.04392,-0.01952,0.0244,0.0488
0.06344,-0.05612,0.0488,0.01708,-0.01464,0.03904,-0.0488,0.03416,-0.05368,-0.01464,0.03904,0.05856
0.07808,-0.06588,0.05368,0.01464,-0.0244,0.05124,-0.05856,0.04392,-0.05856,0,0.0488,0.07808
0.09272,-0.0732,0.05368,0.00732,-0.03904,0.06588,-0.06344,0.05368,-0.06344,-0.00488,0.06344,0.0976
0.10248,-0.07564,0.0488,-0.00244,-0.05368,0.07808,-0.0732,0.06344,-0.0732,-0.00488,0.07808,0.11224
0.122,-0.09028,0.05856,-0.00244,-0.06344,0.09272,-0.08296,0.06832,-0.08296,-0.00488,0.08784,0.122
0.13176,-0.10004,0.06832,0.00244,-0.06344,0.0976,-0.0976,0.0732,-0.0976,-0.00488,0.0976,0.13176
0.15128,-0.11468,0.07808,0.00244,-0.0732,0.11224,-0.10736,0.08296,-0.10248,-0.00488,0.11712,0.14152
0.16104,-0.11956,0.07808,-0.00244,-0.08296,0.122,-0.11224,0.08784,-0.10736,0,0.12688,0.15128
0.16592,-0.12444,0.08296,0,-0.08296,0.12444,-0.11224,0.0976,-0.10736,0.00488,0.13176,0.16104
0.17568,-0.12932,0.08296,-0.00488,-0.09272,0.1342,-0.11712,0.0976,-0.11224,0.00488,0.13176,0.1708
0.18544,-0.1342,0.08296,-0.00976,-0.10248,0.14396,-0.122,0.10248,-0.11712,0.00488,0.14152,0.18544
0.1952,-0.14152,0.08784,-0.00976,-0.10736,0.15128,-0.12688,0.10248,-0.122,0.00976,0.15128,0.19032
0.1952,-0.14152,0.08784,-0.00976,-0.10736,0.15128,-0.122,0.10736,-0.11712,0.01464,0.15616,0.1952
0.20008,-0.14396,0.08784,-0.0122,-0.11224,0.15616,-0.122,0.10736,-0.11712,0.01464,0.15616,0.20008
0.20008,-0.14152,0.08296,-0.01708,-0.11712,0.1586,-0.122,0.10736,-0.11712,0.00976,0.16104,0.20008
0.1952,-0.13908,0.08296,-0.01464,-0.11224,0.15372,-0.122,0.10736,-0.11712,0.00488,0.16104,0.19032
0.18056,-0.12932,0.07808,-0.0122,-0.10248,0.14152,-0.11224,0.10248,-0.11224,-0.00488,0.14152,0.18056
0.16592,-0.11712,0.06832,-0.01464,-0.0976,0.13176,-0.10248,0.10248,-0.10248,-0.00976,0.12688,0.1708
0.15128,-0.10736,0.06344,-0.0122,-0.08784,0.11956,-0.09272,0.10248,-0.0976,-0.00976,0.11712,0.15616
0.13664,-0.09272,0.0488,-0.01952,-0.08784,0.11224,-0.08296,0.0976,-0.09272,-0.01952,0.10248,0.13664
0.11712,-0.08296,0.0488,-0.00976,-0.06832,0.09272,-0.06832,0.09272,-0.07808,-0.01464,0.08296,0.11712
0.10248,-0.07076,0.03904,-0.0122,-0.06344,0.08296,-0.05856,0.08784,-0.06832,-0.01952,0.06832,0.10248
0.08784,-0.061,0.03416,-0.00976,-0.05368,0.07076,-0.04392,0.08296,-0.05856,-0.0244,0.05856,0.08296
0.06832,-0.05124,0.03416,0,-0.03416,0.05124,-0.03416,0.0732,-0.0488,-0.0244,0.05368,0.06344
0.04392,-0.03416,0.0244,0.00244,-0.01952,0.03172,-0.01464,0.06832,-0.03904,-0.01952,0.03416,0.0488
0.0244,-0.02196,0.01952,0.00732,-0.00488,0.01464,0,0.05856,-0.0244,-0.01464,0.01952,0.02928
0.00976,-0.0122,0.01464,0.00976,0.00488,0.00244,0.00976,0.05368,-0.01464,-0.01464,0.00976,0.01464
0,-0.00732,0.01464,0.01464,0.01464,-0.00732,0.01952,0.0488,0,-0.01464,0.00488,0.00488
-0.00976,0.00244,0.00488,0.00976,0.01464,-0.0122,0.0244,0.04392,0.00976,-0.00976,-0.00488,-0.00488
-0.01464,0.00488,0.00488,0.0122,0.01952,-0.01708,0.0244,0.03416,0.01464,0,-0.00976,-0.00976
-0.01952,0.00976,0,0.00976,0.01952,-0.01952,0.02928,0.02928,0.01952,0,-0.01952,-0.01464
-0.0244,0.0122,0,0.0122,0.0244,-0.0244,0.02928,0.01952,0.0244,-0.00488,-0.0244,-0.01952
-0.02928,0.01708,-0.00488,0.00976,0.0244,-0.02684,0.0244,0.01464,0.02928,0,-0.0244,-0.0244
-0.03416,0.02196,-0.00976,0.00732,0.0244,-0.02928,0.0244,0.00488,0.02928,0.00488,-0.0244,-0.0244
-0.03416,0.02196,-0.00976,0.00732,0.0244,-0.02928,0.0244,0.00488,0.02928,0.00488,-0.0244,-0.02928
-0.03904,0.0244,-0.00976,0.00976,0.02928,-0.03416,0.0244,0,0.02928,0.00488,-0.0244,-0.03416
-0.03904,0.02928,-0.01952,0,0.01952,-0.02928,0.0244,-0.00488,0.02928,0.00488,-0.02928,-0.03904
-0.04392,0.03416,-0.0244,-0.00244,0.01952,-0.03172,0.0244,-0.00488,0.02928,0.00488,-0.03416,-0.04392
-0.04392,0.03416,-0.0244,-0.00244,0.01952,-0.03172,0.0244,-0.00976,0.02928,0,-0.03416,-0.0488
-0.0488,0.03904,-0.02928,-0.00488,0.01952,-0.03416,0.0244,-0.00976,0.02928,0,-0.03904,-0.0488
-0.0488,0.03904,-0.02928,-0.00488,0.01952,-0.03416,0.0244,-0.01464,0.02928,0,-0.04392,-0.05856
-0.04392,0.0366,-0.02928,-0.00732,0.01464,-0.02928,0.0244,-0.01464,0.02928,0,-0.04392,-0.05856
-0.04392,0.0366,-0.02928,-0.00732,0.01464,-0.02928,0.0244,-0.01464,0.0244,-0.00976,-0.0488,-0.05856
-0.04392,0.03904,-0.03416,-0.0122,0.00976,-0.02684,0.0244,-0.01464,0.01952,-0.00976,-0.0488,-0.05856
-0.0488,0.04148,-0.03416,-0.00976,0.01464,-0.03172,0.02928,-0.01464,0.01952,-0.00976,-0.0488,-0.05368
-0.0488,0.03904,-0.02928,-0.00488,0.01952,-0.03416,0.03416,-0.01464,0.01952,-0.00976,-0.0488,-0.05368
-0.0488,0.03904,-0.02928,-0.00488,0.01952,-0.03416,0.03416,-0.01464,0.01952,-0.00976,-0.0488,-0.05368
-0.0488,0.03904,-0.02928,-0.00488,0.01952,-0.03416,0.03416,-0.00976,0.01952,-0.00976,-0.0488,-0.05856
-0.0488,0.0366,-0.0244,0,0.0244,-0.0366,0.03416,-0.00976,0.01952,-0.00976,-0.0488,-0.05856
-0.0488,0.03172,-0.01464,0.00976,0.03416,-0.04148,0.03416,-0.00976,0.01952,-0.00976,-0.0488,-0.0488
-0.0488,0.0366,-0.0244,0,0.0244,-0.0366,0.03904,-0.00976,0.01952,-0.00976,-0.0488,-0.0488
-0.0488,0.04148,-0.03416,-0.00976,0.01464,-0.03172,0.03904,-0.00488,0.01952,-0.00488,-0.0488,-0.0488
-0.0488,0.04148,-0.03416,-0.00976,0.01464,-0.03172,0.03904,-0.00488,0.01952,-0.00488,-0.0488,-0.04392
-0.0488,0.04392,-0.03904,-0.01464,0.00976,-0.02928,0.03416,-0.00488,0.0244,-0.00488,-0.0488,-0.03904
-0.05368,0.04636,-0.03904,-0.0122,0.01464,-0.03416,0.03416,0,0.0244,-0.00488,-0.04392,-0.03904
-0.05368,0.04636,-0.03904,-0.0122,0.01464,-0.03416,0.03416,0,0.0244,-0.00488,-0.03904,-0.03904
-0.0488,0.04392,-0.03904,-0.01464,0.00976,-0.02928,0.02928,0,0.02928,-0.00488,-0.03904,-0.03416
-0.0488,0.04148,-0.03416,-0.00976,0.01464,-0.03172,0.02928,0,0.03904,-0.00488,-0.03904,-0.02928
-0.0488,0.04148,-0.03416,-0.00976,0.01464,-0.03172,0.02928,0,0.03904,-0.00488,-0.03904,-0.02928
-0.0488,0.04148,-0.03416,-0.00976,0.01464,-0.03172,0.02928,0,0.03904,0,-0.03904,-0.02928
-0.0488,0.04148,-0.03416,-0.00976,0.01464,-0.03172,0.03416,-0.00488,0.03904,0,-0.03904,-0.02928
-0.0488,0.04148,-0.03416,-0.00976,0.01464,-0.03172,0.03904,-0.00488,0.03904,0,-0.02928,-0.02928
-0.04392,0.03904,-0.03416,-0.0122,0.00976,-0.02684,0.03904,-0.00488,0.03904,0,-0.02928,-0.02928
-0.03904,0.0366,-0.03416,-0.01464,0.00488,-0.02196,0.03904,-0.00488,0.03904,0,-0.02928,-0.02928
-0.03904,0.0366,-0.03416,-0.01464,0.00488,-0.02196,0.03416,0,0.03904,0,-0.02928,-0.0244
-0.03904,0.03904,-0.03904,-0.01952,0,-0.01952,0.02928,0,0.03904,0.00488,-0.0244,-0.0244
-0.03904,0.03904,-0.03904,-0.01952,0,-0.01952,0.0244,0,0.03904,0.00488,-0.0244,-0.02928
-0.03416,0.0366,-0.03904,-0.02196,-0.00488,-0.01464,0.0244,-0.00488,0.03904,0,-0.0244,-0.02928
-0.03416,0.0366,-0.03904,-0.02196,-0.00488,-0.01464,0.0244,0,0.03416,0,-0.02928,-0.02928
-0.03416,0.0366,-0.03904,-0.02196,-0.00488,-0.01464,0.0244,0.00488,0.03416,0,-0.03416,-0.0244
-0.0244,0.03172,-0.03904,-0.02684,-0.01464,-0.00488,0.01952,0.00488,0.03416,0,-0.03416,-0.02928
-0.01952,0.02928,-0.03904,-0.02928,-0.01952,0,0.01952,0,0.02928,0,-0.03416,-0.02928
-0.01952,0.03172,-0.04392,-0.03416,-0.0244,0.00244,0.01952,0,0.02928,-0.00488,-0.03416,-0.02928
-0.01952,0.03172,-0.04392,-0.03416,-0.0244,0.00244,0.01952,0,0.02928,-0.00976,-0.03416,-0.02928
-0.0244,0.03416,-0.04392,-0.03172,-0.01952,-0.00244,0.01952,0,0.0244,-0.00976,-0.03904,-0.02928
-0.02928,0.0366,-0.04392,-0.02928,-0.01464,-0.00732,0.01952,-0.00488,0.01952,-0.01464,-0.03904,-0.02928
-0.02928,0.03904,-0.0488,-0.03416,-0.01952,-0.00488,0.01464,-0.00488,0.01464,-0.01464,-0.03904,-0.02928
-0.02928,0.03904,-0.0488,-0.03416,-0.01952,-0.00488,0.01464,-0.00488,0.01464,-0.01464,-0.04392,-0.02928
-0.02928,0.03904,-0.0488,-0.03416,-0.01952,-0.00488,0.01952,-0.00488,0.01952,-0.01952,-0.04392,-0.02928
-0.02928,0.03904,-0.0488,-0.03416,-0.01952,-0.00488,0.0244,-0.00488,0.0244,-0.01952,-0.03904,-0.02928
-0.02928,0.03904,-0.0488,-0.03416,-0.01952,-0.00488,0.0244,-0.00976,0.0244,-0.01952,-0.03904,-0.02928
-0.02928,0.03904,-0.0488,-0.03416,-0.01952,-0.00488,0.0244,-0.00976,0.01952,-0.0244,-0.04392,-0.02928
-0.02928,0.03904,-0.0488,-0.03416,-0.01952,-0.00488,0.0244,-0.00976,0.01464,-0.01952,-0.04392,-0.02928
-0.02928,0.03904,-0.0488,-0.03416,-0.01952,-0.00488,0.0244,-0.00976,0.01464,-0.01464,-0.03904,-0.03904
-0.02928,0.03904,-0.0488,-0.03416,-0.01952,-0.00488,0.02928,-0.01464,0.01464,-0.01952,-0.03904,-0.03904
-0.02928,0.03904,-0.0488,-0.03416,-0.01952,-0.00488,0.03416,-0.01464,0.01464,-0.01952,-0.03904,-0.03904
-0.02928,0.04148,-0.05368,-0.03904,-0.0244,-0.00244,0.03416,-0.01464,0.01464,-0.01952,-0.04392,-0.03416
-0.02928,0.04148,-0.05368,-0.03904,-0.0244,-0.00244,0.03416,-0.01464,0.01464,-0.01952,-0.0488,-0.03416
-0.02928,0.04148,-0.05368,-0.03904,-0.0244,-0.00244,0.03416,-0.01464,0.00976,-0.0244,-0.05368,-0.03416
-0.02928,0.04148,-0.05368,-0.03904,-0.0244,-0.00244,0.03416,-0.01464,0.00976,-0.0244,-0.05368,-0.03416
-0.03416,0.04636,-0.05856,-0.04148,-0.0244,-0.00488,0.03416,-0.01464,0.00976,-0.02928,-0.05368,-0.03904
-0.03416,0.04636,-0.05856,-0.04148,-0.0244,-0.00488,0.03416,-0.01952,0.00976,-0.03416,-0.05368,-0.04392
-0.03416,0.0488,-0.06344,-0.04636,-0.02928,-0.00244,0.02928,-0.01952,0,-0.03416,-0.05856,-0.0488
-0.03416,0.0488,-0.06344,-0.04636,-0.02928,-0.00244,0.0244,-0.01952,0,-0.03416,-0.05856,-0.0488
-0.03416,0.0488,-0.06344,-0.04636,-0.02928,-0.00244,0.0244,-0.01952,0.00488,-0.03416,-0.05856,-0.04392
-0.03416,0.0488,-0.06344,-0.04636,-0.02928,-0.00244,0.0244,-0.01952,0.00488,-0.02928,-0.05856,-0.04392
-0.03416,0.0488,-0.06344,-0.04636,-0.02928,-0.00244,0.0244,-0.01952,0.00488,-0.02928,-0.06344,-0.04392
-0.03416,0.0488,-0.06344,-0.04636,-0.02928,-0.00244,0.0244,-0.01952,0.00488,-0.02928,-0.06344,-0.04392
-0.04392,0.05612,-0.06832,-0.04636,-0.0244,-0.00976,0.0244,-0.01952,0.00488,-0.02928,-0.06832,-0.0488
-0.04392,0.05856,-0.0732,-0.05124,-0.02928,-0.00732,0.0244,-0.01952,0.00488,-0.02928,-0.0732,-0.05856
-0.03904,0.0488,-0.05856,-0.03904,-0.01952,-0.00976,0.02928,-0.01464,0.01464,-0.01952,-0.05856,-0.0488
-0.03904,0.04392,-0.0488,-0.02928,-0.00976,-0.01464,0.03904,-0.00976,0.02928,-0.00976,-0.0488,-0.03904
-0.03416,0.03904,-0.04392,-0.02684,-0.00976,-0.0122,0.03904,-0.00488,0.03416,-0.00976,-0.04392,-0.02928
-0.02928,0.03416,-0.03904,-0.0244,-0.00976,-0.00976,0.03904,0,0.03904,-0.00976,-0.03904,-0.01952
-0.02928,0.03172,-0.03416,-0.01952,-0.00488,-0.0122,0.03904,0,0.04392,-0.00976,-0.03416,-0.01952
-0.02928,0.02928,-0.02928,-0.01464,0,-0.01464,0.03904,0.00488,0.0488,-0.00488,-0.02928,-0.01952
-0.02928,0.02928,-0.02928,-0.01464,0,-0.01464,0.03904,0.00976,0.05368,0,-0.02928,-0.01952
-0.02928,0.02684,-0.0244,-0.00976,0.00488,-0.01708,0.03904,0.00976,0.05856,0.00488,-0.0244,-0.01952
-0.0244,0.0244,-0.0244,-0.0122,0,-0.0122,0.03416,0.00488,0.0488,0,-0.0244,-0.01464
-0.0244,0.02684,-0.02928,-0.01708,-0.00488,-0.00976,0.02928,0,0.03904,-0.00488,-0.01952,-0.01464
-0.0244,0.02684,-0.02928,-0.01708,-0.00488,-0.00976,0.01464,0,0.03416,-0.00488,-0.0244,-0.01464
-0.00976,0.01952,-0.02928,-0.0244,-0.01952,0.00488,0.00488,0,0.01952,-0.00976,-0.02928,-0.01464
-0.00488,0.01708,-0.02928,-0.02684,-0.0244,0.00976,-0.00488,-0.00488,0.01464,-0.00976,-0.02928,-0.01464
0.00488,0.00976,-0.0244,-0.02684,-0.02928,0.01708,-0.01464,-0.00976,0.00488,-0.01464,-0.03416,-0.01464
0.00976,0.00732,-0.0244,-0.02928,-0.03416,0.02196,-0.0244,-0.01952,0,-0.01952,-0.03416,-0.01464
0.00976,0.0122,-0.03416,-0.03904,-0.04392,0.02684,-0.03416,-0.03416,-0.00488,-0.02928,-0.03416,-0.01952
0.01952,0.0122,-0.04392,-0.05368,-0.06344,0.04148,-0.03416,-0.04392,-0.01952,-0.03416,-0.04392,-0.0244
0.02928,0.00976,-0.0488,-0.06344,-0.07808,0.05368,-0.02928,-0.0488,-0.02928,-0.04392,-0.0488,-0.0244
0.02928,0.00976,-0.0488,-0.06344,-0.07808,0.05368,-0.02928,-0.0488,-0.0244,-0.04392,-0.05368,-0.02928
0.02928,0.0122,-0.05368,-0.06832,-0.08296,0.05612,-0.0244,-0.04392,-0.01952,-0.04392,-0.05368,-0.03416
0.0244,0.01464,-0.05368,-0.06588,-0.07808,0.05124,-0.01464,-0.03904,-0.01952,-0.03904,-0.05368,-0.03416
0.01464,0.01708,-0.0488,-0.05612,-0.06344,0.03904,-0.00488,-0.0244,-0.00488,-0.02928,-0.04392,-0.0244
0.00976,0.01952,-0.0488,-0.05368,-0.05856,0.03416,0.00488,-0.01952,0,-0.02928,-0.04392,-0.02928
-0.00488,0.02684,-0.0488,-0.04636,-0.04392,0.01952,0.01464,-0.01464,0.00488,-0.0244,-0.04392,-0.03416
-0.00976,0.0366,-0.06344,-0.05856,-0.05368,0.02196,0.02928,-0.01464,0.00488,-0.0244,-0.05368,-0.03904
-0.0244,0.04636,-0.06832,-0.05612,-0.04392,0.00976,0.02928,-0.01464,0.00488,-0.0244,-0.05856,-0.04392
-0.02928,0.05368,-0.07808,-0.06344,-0.0488,0.00976,0.02928,-0.01464,0.00488,-0.0244,-0.06344,-0.05368
-0.02928,0.05612,-0.08296,-0.06832,-0.05368,0.0122,0.03416,-0.01464,0,-0.02928,-0.06344,-0.05856
-0.03416,0.06344,-0.09272,-0.07564,-0.05856,0.0122,0.03416,-0.00976,0,-0.02928,-0.06344,-0.05856
-0.04392,0.07076,-0.0976,-0.07564,-0.05368,0.00488,0.03904,-0.00976,0,-0.02928,-0.05856,-0.05856
-0.04392,0.07076,-0.0976,-0.07564,-0.05368,0.00488,0.04392,-0.00976,0,-0.03416,-0.05856,-0.05368
-0.04392,0.07076,-0.0976,-0.07564,-0.05368,0.00488,0.04392,-0.00488,0,-0.03904,-0.05856,-0.0488
-0.04392,0.06832,-0.09272,-0.07076,-0.0488,0.00244,0.04392,-0.00488,0,-0.03904,-0.05856,-0.0488
-0.04392,0.06588,-0.08784,-0.06588,-0.04392,0,0.04392,-0.00488,0,-0.03904,-0.05856,-0.0488
-0.03904,0.06344,-0.08784,-0.06832,-0.0488,0.00488,0.04392,-0.00488,0,-0.03904,-0.05856,-0.0488
-0.03904,0.06344,-0.08784,-0.06832,-0.0488,0.00488,0.04392,-0.00488,0,-0.03904,-0.06344,-0.05368
-0.03904,0.06344,-0.08784,-0.06832,-0.0488,0.00488,0.04392,-0.00488,0.00488,-0.03416,-0.06344,-0.05368
-0.03904,0.06344,-0.08784,-0.06832,-0.0488,0.00488,0.0488,0,0.00976,-0.02928,-0.06344,-0.05368
-0.03904,0.06588,-0.09272,-0.0732,-0.05368,0.00732,0.0488,0,0.00976,-0.02928,-0.05856,-0.0488
-0.03904,0.06588,-0.09272,-0.0732,-0.05368,0.00732,0.0488,0,0.00976,-0.02928,-0.05368,-0.04392
-0.03904,0.06832,-0.0976,-0.07808,-0.05856,0.00976,0.05368,0,0.00976,-0.03416,-0.05368,-0.04392
-0.03904,0.07076,-0.10248,-0.08296,-0.06344,0.0122,0.05856,0,0.01464,-0.03416,-0.05368,-0.04392
-0.03904,0.07076,-0.10248,-0.08296,-0.06344,0.0122,0.06344,0,0.01464,-0.03416,-0.05856,-0.04392
-0.03904,0.07076,-0.10248,-0.08296,-0.06344,0.0122,0.06344,0.00488,0.01464,-0.03416,-0.06344,-0.04392
-0.04392,0.0732,-0.10248,-0.08052,-0.05856,0.00732,0.06832,0.01464,0.01952,-0.02928,-0.06344,-0.0488
-0.05368,0.08052,-0.10736,-0.08052,-0.05368,0,0.07808,0.0244,0.0244,-0.03904,-0.0732,-0.06344
-0.0732,0.08784,-0.10248,-0.06588,-0.02928,-0.02196,0.10248,0.03416,0.03416,-0.03904,-0.08784,-0.08784
-0.08296,0.08784,-0.09272,-0.05124,-0.00976,-0.0366,0.11712,0.0488,0.0488,-0.03416,-0.08784,-0.0976
-0.06344,0.05856,-0.05368,-0.02196,0.00976,-0.0366,0.11224,0.0732,0.08784,0.01952,-0.04392,-0.05856
-0.01952,0.00732,0.00488,0.01464,0.0244,-0.02196,0.09272,0.11224,0.15616,0.11224,0.05368,0.01952
0.06344,-0.061,0.05856,0.02684,-0.00488,0.03416,0.06344,0.16104,0.20496,0.2196,0.20496,0.15616
0.17568,-0.1342,0.09272,0.00488,-0.08296,0.12932,0.05368,0.22936,0.25376,0.3416,0.3904,0.32208
0.29768,-0.21228,0.12688,-0.02196,-0.1708,0.23424,-0.00976,0.23912,0.23912,0.43432,0.58072,0.488
0.47336,-0.33184,0.19032,-0.04636,-0.28304,0.3782,-0.20984,0.122,0.16104,0.52216,0.80032,0.67344
0.62952,-0.45628,0.28304,-0.03172,-0.34648,0.488,-0.39528,-0.0488,0.0244,0.57096,1.01504,0.854
0.7564,-0.55632,0.35624,-0.02196,-0.40016,0.57828,-0.5856,-0.20984,-0.16104,0.61976,1.25416,1.03456
0.7564,-0.51728,0.27816,-0.10004,-0.47824,0.61732,-0.63928,-0.2684,-0.33672,0.60024,1.2688,1.0004
0.6344,-0.40992,0.18544,-0.13176,-0.44896,0.54168,-0.61488,-0.33672,-0.45384,0.45872,1.01504,0.77592
0.4392,-0.2684,0.0976,-0.122,-0.3416,0.3904,-0.5124,-0.37088,-0.44408,0.28304,0.64416,0.49288
0.2196,-0.09028,-0.03904,-0.14884,-0.25864,0.23912,-0.32696,-0.2928,-0.366,0.10248,0.24888,0.1708
0.05368,0.04392,-0.14152,-0.16836,-0.1952,0.12444,-0.1464,-0.22448,-0.2928,-0.05856,-0.0244,-0.05856
-0.00976,0.07808,-0.1464,-0.14152,-0.13664,0.06344,-0.0244,-0.17568,-0.23424,-0.13176,-0.08784,-0.08784
-0.0244,0.07076,-0.11712,-0.10492,-0.09272,0.03416,0.03904,-0.0732,-0.15128,-0.10248,-0.06832,-0.08784
-0.01952,0.05368,-0.08784,-0.07808,-0.06832,0.0244,0.03904,-0.02928,-0.0732,-0.06832,-0.04392,-0.06344
-0.02928,0.05124,-0.0732,-0.05856,-0.04392,0.00732,0.04392,-0.01952,-0.04392,-0.04392,-0.04392,-0.06344
-0.02928,0.04636,-0.06344,-0.0488,-0.03416,0.00244,0.0488,-0.01952,-0.03416,-0.03416,-0.0488,-0.06832
-0.02928,0.04148,-0.05368,-0.03904,-0.0244,-0.00244,0.0488,-0.01952,-0.01952,-0.03416,-0.0488,-0.06832
-0.02928,0.0366,-0.04392,-0.02928,-0.01464,-0.00732,0.04392,-0.01464,0,-0.03416,-0.0488,-0.06832
-0.03904,0.04148,-0.04392,-0.0244,-0.00488,-0.01708,0.04392,-0.00976,0,-0.03904,-0.05856,-0.06344
-0.03904,0.04148,-0.04392,-0.0244,-0.00488,-0.01708,0.04392,-0.00976,-0.00488,-0.04392,-0.06344,-0.06344
-0.03904,0.03904,-0.03904,-0.01952,0,-0.01952,0.04392,-0.01464,-0.00488,-0.0488,-0.06832,-0.06832
-0.03904,0.0366,-0.03416,-0.01464,0.00488,-0.02196,0.0488,-0.01952,-0.00488,-0.0488,-0.06832,-0.06832
-0.04392,0.03904,-0.03416,-0.0122,0.00976,-0.02684,0.04392,-0.01464,-0.00488,-0.0488,-0.06832,-0.06832
-0.04392,0.03904,-0.03416,-0.0122,0.00976,-0.02684,0.03904,-0.01464,0.00488,-0.0488,-0.06832,-0.06832
-0.0488,0.04148,-0.03416,-0.00976,0.01464,-0.03172,0.03904,-0.01464,0,-0.0488,-0.06832,-0.06832
-0.0488,0.04148,-0.03416,-0.00976,0.01464,-0.03172,0.03904,-0.01464,-0.00488,-0.0488,-0.06832,-0.0732
-0.0488,0.03904,-0.02928,-0.00488,0.01952,-0.03416,0.03904,-0.01464,-0.00488,-0.0488,-0.0732,-0.07808
-0.04392,0.03416,-0.0244,-0.00244,0.01952,-0.03172,0.03904,-0.01464,-0.00488,-0.0488,-0.0732,-0.07808
-0.04392,0.03416,-0.0244,-0.00244,0.01952,-0.03172,0.03904,-0.01952,-0.00976,-0.0488,-0.07808,-0.07808
-0.0488,0.03904,-0.02928,-0.00488,0.01952,-0.03416,0.03904,-0.0244,-0.00976,-0.05368,-0.08296,-0.07808
-0.0488,0.03904,-0.02928,-0.00488,0.01952,-0.03416,0.03416,-0.0244,-0.00976,-0.05368,-0.07808,-0.0732
-0.04392,0.03416,-0.0244,-0.00244,0.01952,-0.03172,0.03416,-0.0244,-0.00976,-0.05368,-0.07808,-0.06344
-0.04392,0.03416,-0.0244,-0.00244,0.01952,-0.03172,0.03416,-0.0244,-0.00976,-0.0488,-0.07808,-0.06344
-0.04392,0.03416,-0.0244,-0.00244,0.01952,-0.03172,0.03416,-0.0244,-0.00976,-0.0488,-0.07808,-0.06344
-0.04392,0.03416,-0.0244,-0.00244,0.01952,-0.03172,0.02928,-0.0244,-0.01464,-0.0488,-0.07808,-0.06832
-0.04392,0.03416,-0.0244,-0.00244,0.01952,-0.03172,0.02928,-0.0244,-0.01464,-0.0488,-0.07808,-0.06832
-0.03904,0.03172,-0.0244,-0.00488,0.01464,-0.02684,0.02928,-0.01952,-0.01464,-0.05368,-0.0732,-0.06832
-0.03904,0.03172,-0.0244,-0.00488,0.01464,-0.02684,0.02928,-0.01464,-0.01464,-0.05368,-0.0732,-0.06832
-0.04392,0.03172,-0.01952,0.00244,0.0244,-0.03416,0.02928,-0.01464,-0.01952,-0.05368,-0.0732,-0.06832
-0.04392,0.02928,-0.01464,0.00732,0.02928,-0.0366,0.0244,-0.01464,-0.01952,-0.05368,-0.06832,-0.06832
-0.03904,0.02684,-0.01464,0.00488,0.0244,-0.03172,0.0244,-0.01464,-0.01952,-0.05368,-0.06832,-0.06832
-0.03904,0.02684,-0.01464,0.00488,0.0244,-0.03172,0.01952,-0.01464,-0.0244,-0.05368,-0.06832,-0.06344
-0.03416,0.0244,-0.01464,0.00244,0.01952,-0.02684,0.01952,-0.01952,-0.0244,-0.05368,-0.06832,-0.06832
-0.02928,0.02196,-0.01464,0,0.01464,-0.02196,0.01952,-0.01952,-0.0244,-0.05368,-0.06344,-0.0732
-0.0244,0.01952,-0.01464,-0.00244,0.00976,-0.01708,0.01952,-0.01952,-0.0244,-0.05368,-0.0732,-0.0732
-0.0244,0.01464,-0.00488,0.00732,0.01952,-0.02196,0.01464,-0.01464,-0.02928,-0.05856,-0.07808,-0.07808
-0.02928,0.01464,0,0.01464,0.02928,-0.02928,0.00976,-0.01464,-0.03416,-0.05856,-0.07808,-0.0732
-0.02928,0.0122,0.00488,0.01952,0.03416,-0.03172,0,-0.01464,-0.03904,-0.05856,-0.07808,-0.06832
-0.0244,0.00732,0.00976,0.02196,0.03416,-0.02928,0,-0.01464,-0.03904,-0.05856,-0.06832,-0.06344
-0.01952,0.00244,0.01464,0.0244,0.03416,-0.02684,-0.00488,-0.01464,-0.03904,-0.05856,-0.05856,-0.05856
-0.01952,0,0.01952,0.02928,0.03904,-0.02928,-0.00488,-0.00976,-0.04392,-0.05368,-0.05856,-0.05368
-0.01464,-0.00488,0.0244,0.03172,0.03904,-0.02684,-0.00976,-0.00488,-0.0488,-0.05368,-0.05368,-0.05368
-0.00976,-0.00732,0.0244,0.02928,0.03416,-0.02196,-0.01464,-0.00976,-0.0488,-0.05856,-0.04392,-0.03416
0,-0.01464,0.02928,0.02928,0.02928,-0.01464,-0.01952,-0.00976,-0.0488,-0.05856,-0.03904,-0.02928
0.00976,-0.0244,0.03904,0.03416,0.02928,-0.00976,-0.01952,0,-0.05368,-0.05856,-0.02928,-0.01464
0.01464,-0.02928,0.04392,0.0366,0.02928,-0.00732,-0.02928,0.00488,-0.05856,-0.05856,-0.0244,-0.00488
0.02928,-0.03904,0.0488,0.03416,0.01952,0.00488,-0.02928,0.01952,-0.06344,-0.0488,-0.01952,0.00488
0.04392,-0.0488,0.05368,0.03172,0.00976,0.01708,-0.04392,0.0244,-0.06832,-0.0488,-0.00976,0.01952
0.05368,-0.05612,0.05856,0.03172,0.00488,0.0244,-0.0488,0.0244,-0.0732,-0.0488,0.00488,0.02928
0.0732,-0.07076,0.06832,0.03172,-0.00488,0.03904,-0.05856,0.03416,-0.07808,-0.04392,0.0244,0.03904
0.08784,-0.08052,0.0732,0.02928,-0.01464,0.05124,-0.06832,0.04392,-0.08296,-0.02928,0.03904,0.05856
0.10248,-0.09028,0.07808,0.02684,-0.0244,0.06344,-0.0732,0.05368,-0.09272,-0.02928,0.05368,0.07808
0.11224,-0.09516,0.07808,0.02196,-0.03416,0.0732,-0.08296,0.06344,-0.10248,-0.0244,0.06832,0.09272
0.13176,-0.1098,0.08784,0.02196,-0.04392,0.08784,-0.08784,0.06832,-0.10736,-0.01952,0.08296,0.10736
0.14152,-0.11956,0.0976,0.02684,-0.04392,0.09272,-0.0976,0.0732,-0.11712,-0.01464,0.0976,0.122
0.16104,-0.1342,0.10736,0.02684,-0.05368,0.10736,-0.10736,0.08296,-0.122,-0.00976,0.11712,0.13664
0.16592,-0.1342,0.10248,0.01952,-0.06344,0.11468,-0.11224,0.08784,-0.12688,-0.00488,0.122,0.14152
0.1708,-0.13908,0.10736,0.02196,-0.06344,0.11712,-0.11224,0.0976,-0.12688,-0.00488,0.13176,0.14152
0.18544,-0.14884,0.11224,0.01952,-0.0732,0.12932,-0.11712,0.0976,-0.13176,-0.00488,0.14152,0.15128
0.1952,-0.15372,0.11224,0.01464,-0.08296,0.13908,-0.122,0.10248,-0.13664,-0.00488,0.15128,0.16592
0.20008,-0.15616,0.11224,0.0122,-0.08784,0.14396,-0.122,0.10248,-0.14152,0,0.16104,0.1708
0.1952,-0.15128,0.10736,0.00976,-0.08784,0.14152,-0.11712,0.10736,-0.14152,0.00488,0.16592,0.17568
0.1952,-0.15128,0.10736,0.00976,-0.08784,0.14152,-0.11712,0.10736,-0.1464,0.00488,0.16592,0.18056
0.19032,-0.1464,0.10248,0.00732,-0.08784,0.13908,-0.11224,0.10736,-0.1464,0,0.1708,0.18056
0.18544,-0.14396,0.10248,0.00976,-0.08296,0.1342,-0.11224,0.10736,-0.1464,-0.00488,0.16592,0.16592
0.17568,-0.13664,0.0976,0.00976,-0.07808,0.12688,-0.10248,0.10248,-0.14152,-0.01464,0.14152,0.15128
0.16592,-0.12688,0.08784,0.00488,-0.07808,0.122,-0.09272,0.10248,-0.13176,-0.01952,0.12688,0.14152
0.15128,-0.11712,0.08296,0.00732,-0.06832,0.1098,-0.08296,0.0976,-0.12688,-0.01952,0.11712,0.12688
0.13664,-0.10248,0.06832,0,-0.06832,0.10248,-0.0732,0.08784,-0.11224,-0.0244,0.11224,0.10736
0.11712,-0.09272,0.06832,0.00976,-0.0488,0.08296,-0.05856,0.08296,-0.09272,-0.0244,0.10248,0.08784
0.10248,-0.08052,0.05856,0.00732,-0.04392,0.0732,-0.0488,0.08296,-0.08784,-0.03904,0.08784,0.0732
0.08784,-0.06832,0.0488,0.00488,-0.03904,0.06344,-0.03416,0.08296,-0.07808,-0.04392,0.06832,0.05368
0.06832,-0.05612,0.04392,0.00976,-0.0244,0.04636,-0.0244,0.0732,-0.06344,-0.04392,0.0488,0.03416
0.0488,-0.04148,0.03416,0.00976,-0.01464,0.03172,-0.00976,0.06832,-0.0488,-0.04392,0.0244,0.01952
0.03416,-0.03172,0.02928,0.0122,-0.00488,0.01952,-0.00488,0.05856,-0.03416,-0.04392,0.00488,0
0.01952,-0.02196,0.0244,0.01464,0.00488,0.00732,0,0.05368,-0.0244,-0.04392,-0.00976,-0.01464
0.00976,-0.01708,0.0244,0.01952,0.01464,-0.00244,0.00976,0.0488,-0.00976,-0.04392,-0.01464,-0.02928
-0.00488,-0.00488,0.01464,0.01708,0.01952,-0.0122,0.01464,0.04392,0,-0.03904,-0.0244,-0.04392
-0.01464,0,0.01464,0.02196,0.02928,-0.02196,0.01464,0.03416,0.00488,-0.0244,-0.02928,-0.0488
-0.01952,0.00488,0.00976,0.01952,0.02928,-0.0244,0.01952,0.02928,0.00976,-0.01952,-0.03904,-0.05856
-0.0244,0.00732,0.00976,0.02196,0.03416,-0.02928,0.01952,0.01952,0.00976,-0.0244,-0.03904,-0.06832
-0.02928,0.0122,0.00488,0.01952,0.03416,-0.03172,0.01952,0.01464,0.00976,-0.0244,-0.03904,-0.0732
-0.03416,0.01708,0,0.01708,0.03416,-0.03416,0.0244,0.00488,0.00976,-0.0244,-0.04392,-0.0732
-0.03416,0.01708,0,0.01708,0.03416,-0.03416,0.0244,0.00488,0.00976,-0.0244,-0.04392,-0.0732
-0.03904,0.01952,0,0.01952,0.03904,-0.03904,0.0244,0,0.00976,-0.0244,-0.04392,-0.06832
-0.03904,0.02196,-0.00488,0.01464,0.03416,-0.0366,0.0244,-0.00488,0.00976,-0.0244,-0.0488,-0.06832
-0.04392,0.0244,-0.00488,0.01708,0.03904,-0.04148,0.0244,-0.00488,0.00976,-0.02928,-0.05368,-0.0732
-0.04392,0.0244,-0.00488,0.01708,0.03904,-0.04148,0.0244,-0.00976,0.00976,-0.03904,-0.05368,-0.07808
-0.0488,0.02928,-0.00976,0.01464,0.03904,-0.04392,0.0244,-0.00976,0.00488,-0.03904,-0.06344,-0.08296
-0.0488,0.02928,-0.00976,0.01464,0.03904,-0.04392,0.0244,-0.01464,0,-0.03904,-0.0732,-0.0976
-0.04392,0.02684,-0.00976,0.0122,0.03416,-0.03904,0.0244,-0.01464,0,-0.03416,-0.0732,-0.10248
-0.04392,0.02684,-0.00976,0.0122,0.03416,-0.03904,0.0244,-0.01464,0,-0.03904,-0.07808,-0.10736
-0.04392,0.02928,-0.01464,0.00732,0.02928,-0.0366,0.0244,-0.01464,0,-0.03904,-0.07808,-0.11224
-0.0488,0.03172,-0.01464,0.00976,0.03416,-0.04148,0.0244,-0.01464,0,-0.03904,-0.07808,-0.11224
-0.0488,0.02928,-0.00976,0.01464,0.03904,-0.04392,0.0244,-0.01464,0,-0.03904,-0.0732,-0.11224
-0.0488,0.02928,-0.00976,0.01464,0.03904,-0.04392,0.0244,-0.01464,0,-0.03904,-0.06832,-0.11224
-0.0488,0.02928,-0.00976,0.01464,0.03904,-0.04392,0.0244,-0.00976,0,-0.03416,-0.06832,-0.10736
-0.0488,0.03172,-0.01464,0.00976,0.03416,-0.04148,0.0244,-0.00976,0,-0.02928,-0.06832,-0.0976
-0.0488,0.03172,-0.01464,0.00976,0.03416,-0.04148,0.0244,-0.00976,0.00488,-0.02928,-0.06832,-0.08784
-0.0488,0.03172,-0.01464,0.00976,0.03416,-0.04148,0.02928,-0.00976,0.00976,-0.02928,-0.06832,-0.08784
-0.0488,0.03172,-0.01464,0.00976,0.03416,-0.04148,0.02928,-0.00488,0.00976,-0.02928,-0.06832,-0.09272
-0.0488,0.03172,-0.01464,0.00976,0.03416,-0.04148,0.03416,-0.00488,0.00976,-0.03416,-0.06832,-0.0976
-0.0488,0.03172,-0.01464,0.00976,0.03416,-0.04148,0.03416,-0.00488,0.01464,-0.03416,-0.06832,-0.0976
-0.05368,0.03172,-0.00976,0.01708,0.04392,-0.0488,0.03416,0,0.01464,-0.03416,-0.06832,-0.0976
-0.05368,0.03172,-0.00976,0.01708,0.04392,-0.0488,0.03416,0,0.01464,-0.03416,-0.06832,-0.0976
-0.0488,0.02928,-0.00976,0.01464,0.03904,-0.04392,0.02928,0,0.01464,-0.03416,-0.06832,-0.0976
-0.0488,0.02684,-0.00488,0.01952,0.04392,-0.04636,0.02928,0,0.01464,-0.03416,-0.06832,-0.09272
-0.0488,0.02684,-0.00488,0.01952,0.04392,-0.04636,0.02928,0,0.00976,-0.03416,-0.06832,-0.08784
-0.0488,0.02684,-0.00488,0.01952,0.04392,-0.04636,0.02928,0,0.00976,-0.02928,-0.06832,-0.08296
-0.0488,0.02684,-0.00488,0.01952,0.04392,-0.04636,0.02928,-0.00488,0.00976,-0.02928,-0.06832,-0.07808
-0.0488,0.02928,-0.00976,0.01464,0.03904,-0.04392,0.02928,-0.00488,0.00976,-0.02928,-0.06344,-0.07808
-0.0488,0.03172,-0.01464,0.00976,0.03416,-0.04148,0.02928,-0.00488,0.00976,-0.02928,-0.06832,-0.07808
-0.0488,0.03172,-0.01464,0.00976,0.03416,-0.04148,0.02928,-0.00976,0.00976,-0.02928,-0.06832,-0.08296
-0.0488,0.02928,-0.00976,0.01464,0.03904,-0.04392,0.02928,-0.00976,0.00976,-0.02928,-0.06832,-0.08296
-0.04392,0.0244,-0.00488,0.01708,0.03904,-0.04148,0.02928,-0.00976,0.00976,-0.0244,-0.06344,-0.08296
-0.03904,0.01952,0,0.01952,0.03904,-0.03904,0.0244,-0.00976,0.00976,-0.0244,-0.06344,-0.08784
-0.03416,0.01708,0,0.01708,0.03416,-0.03416,0.0244,-0.01464,0.00976,-0.01952,-0.06344,-0.08784
-0.03416,0.01708,0,0.01708,0.03416,-0.03416,0.0244,-0.01464,0.00488,-0.00976,-0.06344,-0.08784
-0.03904,0.01952,0,0.01952,0.03904,-0.03904,0.0244,-0.01464,0.00488,-0.01952,-0.06344,-0.08296
-0.03904,0.01952,0,0.01952,0.03904,-0.03904,0.01952,-0.01464,0.00488,-0.02928,-0.06344,-0.08296
-0.03904,0.0244,-0.00976,0.00976,0.02928,-0.03416,0.01952,-0.01464,0.00488,-0.02928,-0.05856,-0.08296
-0.03904,0.02928,-0.01952,0,0.01952,-0.02928,0.01952,-0.00976,0.00976,-0.02928,-0.05368,-0.08784
-0.03904,0.02684,-0.01464,0.00488,0.0244,-0.03172,0.01952,-0.00976,0.00976,-0.02928,-0.05368,-0.08784
-0.03904,0.02684,-0.01464,0.00488,0.0244,-0.03172,0.01952,-0.00976,0.00976,-0.02928,-0.05856,-0.08784
-0.03904,0.0244,-0.00976,0.00976,0.02928,-0.03416,0.01952,-0.01464,0.00976,-0.03416,-0.05856,-0.08784
-0.03904,0.0244,-0.00976,0.00976,0.02928,-0.03416,0.01464,-0.01464,0.00488,-0.03416,-0.05856,-0.08784
-0.03904,0.0244,-0.00976,0.00976,0.02928,-0.03416,0.01952,-0.01464,0.00488,-0.03416,-0.06344,-0.08784
-0.03904,0.0244,-0.00976,0.00976,0.02928,-0.03416,0.0244,-0.01464,0.00488,-0.03904,-0.06344,-0.08784
-0.03904,0.02684,-0.01464,0.00488,0.0244,-0.03172,0.0244,-0.01464,0.00488,-0.03904,-0.06344,-0.09272
-0.03904,0.02928,-0.01952,0,0.01952,-0.02928,0.0244,-0.01952,0.00488,-0.03904,-0.06832,-0.0976
-0.03904,0.02928,-0.01952,0,0.01952,-0.02928,0.0244,-0.01952,0,-0.04392,-0.0732,-0.0976
-0.03904,0.02928,-0.01952,0,0.01952,-0.02928,0.0244,-0.01952,-0.00488,-0.04392,-0.07808,-0.0976
-0.03904,0.02928,-0.01952,0,0.01952,-0.02928,0.0244,-0.01952,-0.00976,-0.04392,-0.0732,-0.0976
-0.03904,0.02928,-0.01952,0,0.01952,-0.02928,0.0244,-0.0244,-0.01464,-0.0488,-0.06832,-0.08784
-0.03904,0.03172,-0.0244,-0.00488,0.01464,-0.02684,0.0244,-0.0244,-0.01464,-0.0488,-0.06832,-0.08784
-0.03904,0.0366,-0.03416,-0.01464,0.00488,-0.02196,0.0244,-0.0244,-0.01464,-0.0488,-0.06832,-0.08784
-0.03904,0.0366,-0.03416,-0.01464,0.00488,-0.02196,0.0244,-0.0244,-0.00976,-0.0488,-0.0732,-0.0976
-0.03904,0.0366,-0.03416,-0.01464,0.00488,-0.02196,0.0244,-0.0244,-0.00976,-0.05368,-0.08296,-0.10248
-0.03904,0.0366,-0.03416,-0.01464,0.00488,-0.02196,0.0244,-0.01952,-0.00976,-0.05368,-0.08296,-0.10248
-0.04392,0.04148,-0.03904,-0.01708,0.00488,-0.0244,0.0244,-0.01464,-0.00976,-0.05368,-0.08296,-0.10248
-0.04392,0.03904,-0.03416,-0.0122,0.00976,-0.02684,0.0244,-0.01952,-0.00976,-0.05368,-0.07808,-0.0976
-0.04392,0.03904,-0.03416,-0.0122,0.00976,-0.02684,0.0244,-0.01952,-0.01952,-0.05368,-0.07808,-0.0976
-0.04392,0.03904,-0.03416,-0.0122,0.00976,-0.02684,0.0244,-0.01952,-0.01952,-0.05368,-0.07808,-0.0976
-0.04392,0.03904,-0.03416,-0.0122,0.00976,-0.02684,0.0244,-0.01952,-0.01464,-0.05856,-0.07808,-0.0976
-0.03904,0.03416,-0.02928,-0.00976,0.00976,-0.0244,0.02928,-0.01464,-0.00488,-0.0488,-0.07808,-0.09272
-0.03904,0.03416,-0.02928,-0.00976,0.00976,-0.0244,0.03904,-0.00976,0,-0.03904,-0.07808,-0.08784
-0.03904,0.02684,-0.01464,0.00488,0.0244,-0.03172,0.03904,-0.00976,0,-0.03904,-0.07808,-0.08784
-0.03904,0.01952,0,0.01952,0.03904,-0.03904,0.03904,-0.00976,0,-0.03904,-0.07808,-0.08784
-0.03904,0.01708,0.00488,0.0244,0.04392,-0.04148,0.03904,-0.00976,0.00488,-0.03904,-0.06832,-0.08296
-0.03904,0.01708,0.00488,0.0244,0.04392,-0.04148,0.03416,-0.00976,0.00976,-0.03904,-0.06832,-0.07808
-0.03904,0.01464,0.00976,0.02928,0.0488,-0.04392,0.02928,-0.00976,0.01464,-0.03904,-0.06832,-0.07808
-0.03904,0.0122,0.01464,0.03416,0.05368,-0.04636,0.01952,-0.01952,0.01952,-0.04392,-0.0732,-0.07808
-0.03416,0.00976,0.01464,0.03172,0.0488,-0.04148,0.01952,-0.01952,0.01464,-0.04392,-0.0732,-0.07808
-0.03416,0.0122,0.00976,0.02684,0.04392,-0.03904,0.01952,-0.01952,0.00976,-0.04392,-0.06832,-0.08296
-0.03416,0.0122,0.00976,0.02684,0.04392,-0.03904,0.00488,-0.01952,0.00976,-0.04392,-0.06344,-0.08296
-0.01952,0.00488,0.00976,0.01952,0.02928,-0.0244,-0.00488,-0.01952,0,-0.0488,-0.05856,-0.08296
-0.01952,0.00732,0.00488,0.01464,0.0244,-0.02196,-0.01464,-0.0244,-0.00488,-0.0488,-0.05856,-0.08296
-0.01464,0.00488,0.00488,0.0122,0.01952,-0.01708,-0.0244,-0.02928,-0.01464,-0.05368,-0.06344,-0.08296
-0.00976,-0.00244,0.01464,0.01952,0.0244,-0.01708,-0.03416,-0.03904,-0.0244,-0.05856,-0.06832,-0.07808
-0.00976,-0.00244,0.01464,0.01952,0.0244,-0.01708,-0.04392,-0.05368,-0.03416,-0.06832,-0.0732,-0.07808
0,0,0,0,0,0,-0.0488,-0.06344,-0.04392,-0.07808,-0.08296,-0.08296
0.00976,0,-0.00976,-0.01464,-0.01952,0.01464,-0.0488,-0.06832,-0.0488,-0.09272,-0.08784,-0.08296
0.00976,0,-0.00976,-0.01464,-0.01952,0.01464,-0.04392,-0.06832,-0.0488,-0.08784,-0.09272,-0.09272
0.00976,0.00244,-0.01464,-0.01952,-0.0244,0.01708,-0.03416,-0.06344,-0.0488,-0.08296,-0.09272,-0.10248
0.00488,0.00488,-0.01464,-0.01708,-0.01952,0.0122,-0.0244,-0.05856,-0.0488,-0.07808,-0.09272,-0.10248
-0.00488,0.00732,-0.00976,-0.00732,-0.00488,0,-0.01464,-0.04392,-0.03416,-0.06832,-0.08296,-0.09272
-0.00976,0.00976,-0.00976,-0.00488,0,-0.00488,-0.00488,-0.03904,-0.02928,-0.0732,-0.08296,-0.09272
-0.0244,0.01708,-0.00976,0.00244,0.01464,-0.01952,0.00488,-0.03416,-0.0244,-0.0732,-0.08296,-0.09272
-0.03416,0.02928,-0.0244,-0.00732,0.00976,-0.02196,0.01952,-0.03416,-0.0244,-0.0732,-0.09272,-0.0976
-0.05368,0.04148,-0.02928,-0.00244,0.0244,-0.03904,0.01952,-0.03416,-0.0244,-0.0732,-0.0976,-0.10248
-0.05856,0.0488,-0.03904,-0.00976,0.01952,-0.03904,0.01952,-0.03416,-0.0244,-0.07808,-0.10248,-0.11224
-0.05856,0.05124,-0.04392,-0.01464,0.01464,-0.0366,0.0244,-0.03416,-0.02928,-0.08784,-0.10248,-0.11712
-0.05856,0.05368,-0.0488,-0.01952,0.00976,-0.03416,0.0244,-0.02928,-0.02928,-0.08784,-0.10248,-0.11224
-0.06344,0.05612,-0.0488,-0.01708,0.01464,-0.03904,0.02928,-0.02928,-0.02928,-0.08784,-0.0976,-0.10736
-0.05856,0.05368,-0.0488,-0.01952,0.00976,-0.03416,0.02928,-0.02928,-0.02928,-0.08784,-0.0976,-0.10736
-0.05368,0.05124,-0.0488,-0.02196,0.00488,-0.02928,0.0244,-0.0244,-0.02928,-0.08784,-0.0976,-0.10736
-0.05368,0.05124,-0.0488,-0.02196,0.00488,-0.02928,0.0244,-0.0244,-0.0244,-0.08296,-0.0976,-0.10736
-0.05368,0.05124,-0.0488,-0.02196,0.00488,-0.02928,0.0244,-0.0244,-0.01952,-0.07808,-0.0976,-0.10736
-0.05368,0.05368,-0.05368,-0.02684,0,-0.02684,0.02928,-0.0244,-0.01952,-0.07808,-0.0976,-0.10736
-0.05856,0.05856,-0.05856,-0.02928,0,-0.02928,0.03416,-0.0244,-0.01952,-0.07808,-0.10248,-0.11224
-0.05856,0.05856,-0.05856,-0.02928,0,-0.02928,0.03416,-0.02928,-0.0244,-0.07808,-0.10248,-0.11712
-0.05856,0.05856,-0.05856,-0.02928,0,-0.02928,0.03904,-0.02928,-0.02928,-0.07808,-0.10248,-0.122
-0.05856,0.05856,-0.05856,-0.02928,0,-0.02928,0.03904,-0.02928,-0.02928,-0.07808,-0.10248,-0.122
-0.05856,0.05612,-0.05368,-0.0244,0.00488,-0.03172,0.03904,-0.02928,-0.02928,-0.07808,-0.10248,-0.122
-0.05856,0.05368,-0.0488,-0.01952,0.00976,-0.03416,0.03416,-0.02928,-0.02928,-0.08296,-0.10248,-0.122
-0.05856,0.05124,-0.04392,-0.01464,0.01464,-0.0366,0.02928,-0.02928,-0.0244,-0.08296,-0.10248,-0.122
-0.05856,0.05124,-0.04392,-0.01464,0.01464,-0.0366,0.03416,-0.02928,-0.0244,-0.08296,-0.10248,-0.122
-0.05856,0.05124,-0.04392,-0.01464,0.01464,-0.0366,0.03416,-0.0244,-0.0244,-0.08296,-0.10248,-0.122
-0.06344,0.05612,-0.0488,-0.01708,0.01464,-0.03904,0.04392,-0.01464,-0.01952,-0.08296,-0.10736,-0.12688
-0.0732,0.06588,-0.05856,-0.02196,0.01464,-0.04392,0.05856,-0.00488,-0.01464,-0.0976,-0.122,-0.14152
-0.09272,0.07808,-0.06344,-0.01708,0.02928,-0.061,0.08296,0.00488,-0.00488,-0.10248,-0.15128,-0.16592
-0.10248,0.08296,-0.06344,-0.0122,0.03904,-0.07076,0.0976,0.01952,0.00976,-0.10248,-0.16592,-0.17568
-0.10248,0.06588,-0.02928,0.02196,0.0732,-0.08784,0.0976,0.03904,0.05368,-0.0488,-0.122,-0.13664
-0.07808,0.02684,0.0244,0.06344,0.10248,-0.09028,0.08296,0.0732,0.12688,0.04392,-0.0244,-0.05856
0,-0.04392,0.08784,0.08784,0.08784,-0.04392,0.05368,0.122,0.18056,0.15616,0.13176,0.0732
0.10736,-0.11956,0.13176,0.07808,0.0244,0.04148,0.04392,0.19032,0.23424,0.28304,0.32208,0.23424
0.2196,-0.18544,0.15128,0.04148,-0.06832,0.14396,0.01464,0.22936,0.23424,0.3904,0.52704,0.40504
0.38552,-0.2928,0.20008,0.00732,-0.18544,0.28548,-0.15128,0.14152,0.1708,0.49288,0.76128,0.59536
0.5612,-0.43676,0.31232,0.03172,-0.24888,0.40504,-0.366,-0.03904,0.01952,0.54656,1.01504,0.81496
0.7076,-0.55632,0.40504,0.05124,-0.30256,0.50508,-0.5856,-0.20984,-0.18056,0.60024,1.2932,1.03456
0.74664,-0.5368,0.32696,-0.04636,-0.41968,0.58316,-0.66368,-0.2684,-0.37088,0.59536,1.38104,1.05408
0.66368,-0.44896,0.23424,-0.0976,-0.42944,0.54656,-0.66368,-0.33672,-0.50264,0.46848,1.20048,0.88328
0.46848,-0.30744,0.1464,-0.08784,-0.32208,0.39528,-0.57096,-0.38552,-0.488,0.2928,0.76616,0.55632
0.24888,-0.12932,0.00976,-0.11468,-0.23912,0.244,-0.39528,-0.32208,-0.40504,0.11224,0.30744,0.19032
0.06344,0.01952,-0.10248,-0.1342,-0.16592,0.11468,-0.1952,-0.24888,-0.32696,-0.06832,-0.00488,-0.06832
-0.01952,0.06832,-0.11712,-0.10736,-0.0976,0.03904,-0.05368,-0.1952,-0.26352,-0.16104,-0.10736,-0.12688
-0.03904,0.06344,-0.08784,-0.06832,-0.0488,0.00488,0.01952,-0.09272,-0.17568,-0.13664,-0.09272,-0.13176
-0.03904,0.0488,-0.05856,-0.03904,-0.01952,-0.00976,0.02928,-0.0488,-0.09272,-0.10736,-0.0732,-0.11224
-0.0488,0.04636,-0.04392,-0.01952,0.00488,-0.02684,0.02928,-0.03416,-0.06344,-0.08296,-0.0732,-0.11224
-0.0488,0.04148,-0.03416,-0.00976,0.01464,-0.03172,0.02928,-0.02928,-0.05368,-0.0732,-0.07808,-0.11712
-0.0488,0.0366,-0.0244,0,0.0244,-0.0366,0.02928,-0.03416,-0.03904,-0.0732,-0.07808,-0.11712
-0.0488,0.03172,-0.01464,0.00976,0.03416,-0.04148,0.0244,-0.03416,-0.01952,-0.0732,-0.07808,-0.11712
-0.05856,0.0366,-0.01464,0.01464,0.04392,-0.05124,0.0244,-0.02928,-0.01464,-0.0732,-0.08784,-0.11224
-0.05856,0.0366,-0.01464,0.01464,0.04392,-0.05124,0.0244,-0.02928,-0.01464,-0.0732,-0.09272,-0.11224
-0.05856,0.0366,-0.01464,0.01464,0.04392,-0.05124,0.0244,-0.02928,-0.01464,-0.07808,-0.0976,-0.11712
-0.05856,0.0366,-0.01464,0.01464,0.04392,-0.05124,0.02928,-0.02928,-0.01464,-0.07808,-0.0976,-0.11712
-0.06344,0.03904,-0.01464,0.01708,0.0488,-0.05612,0.02928,-0.0244,-0.01464,-0.07808,-0.0976,-0.11712
-0.06344,0.03904,-0.01464,0.01708,0.0488,-0.05612,0.02928,-0.0244,-0.00488,-0.07808,-0.0976,-0.11712
-0.06832,0.04148,-0.01464,0.01952,0.05368,-0.061,0.02928,-0.0244,-0.00488,-0.07808,-0.10736,-0.11712
-0.06832,0.04148,-0.01464,0.01952,0.05368,-0.061,0.02928,-0.0244,-0.00488,-0.07808,-0.11712,-0.122
-0.06832,0.04148,-0.01464,0.01952,0.05368,-0.061,0.02928,-0.02928,-0.00488,-0.07808,-0.11224,-0.122
-0.06344,0.03904,-0.01464,0.01708,0.0488,-0.05612,0.02928,-0.03416,-0.00488,-0.07808,-0.10248,-0.11712
-0.06344,0.03904,-0.01464,0.01708,0.0488,-0.05612,0.02928,-0.03416,-0.00976,-0.07808,-0.10248,-0.11224
-0.06832,0.04392,-0.01952,0.01464,0.0488,-0.05856,0.02928,-0.03416,-0.00976,-0.08296,-0.10248,-0.10736
-0.06832,0.04392,-0.01952,0.01464,0.0488,-0.05856,0.0244,-0.03416,-0.00976,-0.08296,-0.0976,-0.10736
-0.06344,0.03904,-0.01464,0.01708,0.0488,-0.05612,0.0244,-0.03416,-0.00976,-0.08296,-0.0976,-0.10248
-0.06344,0.0366,-0.00976,0.02196,0.05368,-0.05856,0.0244,-0.03416,-0.00976,-0.07808,-0.0976,-0.10736
-0.06344,0.03416,-0.00488,0.02684,0.05856,-0.061,0.0244,-0.03416,-0.00976,-0.07808,-0.0976,-0.11224
-0.06344,0.03416,-0.00488,0.02684,0.05856,-0.061,0.01952,-0.03416,-0.01464,-0.07808,-0.0976,-0.11712
-0.06344,0.03416,-0.00488,0.02684,0.05856,-0.061,0.01952,-0.03416,-0.01464,-0.07808,-0.0976,-0.11712
-0.05856,0.03172,-0.00488,0.0244,0.05368,-0.05612,0.01952,-0.03416,-0.01464,-0.08296,-0.10248,-0.11712
-0.05856,0.03172,-0.00488,0.0244,0.05368,-0.05612,0.01952,-0.03416,-0.01464,-0.08296,-0.11224,-0.11712
-0.06344,0.03416,-0.00488,0.02684,0.05856,-0.061,0.01952,-0.03416,-0.01952,-0.08296,-0.11224,-0.11712
-0.06344,0.03416,-0.00488,0.02684,0.05856,-0.061,0.01464,-0.03416,-0.01952,-0.08296,-0.10736,-0.11712
-0.05856,0.03172,-0.00488,0.0244,0.05368,-0.05612,0.01464,-0.03416,-0.01952,-0.08296,-0.10736,-0.11224
-0.05856,0.03172,-0.00488,0.0244,0.05368,-0.05612,0.00976,-0.03416,-0.0244,-0.08296,-0.10736,-0.10248
-0.05368,0.02684,0,0.02684,0.05368,-0.05368,0.00976,-0.03416,-0.0244,-0.08296,-0.10736,-0.10248
-0.0488,0.02196,0.00488,0.02928,0.05368,-0.05124,0.00976,-0.02928,-0.0244,-0.08296,-0.10248,-0.10248
-0.04392,0.01952,0.00488,0.02684,0.0488,-0.04636,0.00976,-0.02928,-0.0244,-0.07808,-0.0976,-0.0976
-0.04392,0.01464,0.01464,0.0366,0.05856,-0.05124,0.00488,-0.0244,-0.02928,-0.07808,-0.08784,-0.0976
-0.04392,0.01708,0.00976,0.03172,0.05368,-0.0488,0.00488,-0.0244,-0.02928,-0.07808,-0.08784,-0.09272
-0.03904,0.01708,0.00488,0.0244,0.04392,-0.04148,0,-0.0244,-0.02928,-0.07808,-0.08784,-0.08784
-0.03904,0.01464,0.00976,0.02928,0.0488,-0.04392,0,-0.0244,-0.02928,-0.0732,-0.08296,-0.08784
-0.03904,0.0122,0.01464,0.03416,0.05368,-0.04636,-0.00488,-0.0244,-0.02928,-0.06832,-0.07808,-0.08784
-0.03904,0.00976,0.01952,0.03904,0.05856,-0.0488,-0.00488,-0.01952,-0.03416,-0.06344,-0.07808,-0.08296
-0.03416,0.00488,0.0244,0.04148,0.05856,-0.04636,-0.00976,-0.01464,-0.03904,-0.06344,-0.0732,-0.08296
-0.02928,0.00244,0.0244,0.03904,0.05368,-0.04148,-0.01464,-0.01464,-0.03904,-0.06344,-0.06344,-0.06344
-0.01952,-0.00488,0.02928,0.03904,0.0488,-0.03416,-0.01952,-0.00976,-0.03904,-0.05856,-0.05856,-0.05856
-0.00488,-0.01708,0.03904,0.04148,0.04392,-0.0244,-0.01952,0,-0.04392,-0.05856,-0.0488,-0.05368
0.00488,-0.0244,0.04392,0.04148,0.03904,-0.01708,-0.02928,0.00488,-0.0488,-0.05856,-0.04392,-0.05368
0.01464,-0.03172,0.0488,0.04148,0.03416,-0.00976,-0.02928,0.01952,-0.05368,-0.0488,-0.03416,-0.04392
0.0244,-0.03904,0.05368,0.04148,0.02928,-0.00244,-0.04392,0.0244,-0.05856,-0.0488,-0.01952,-0.02928
0.03416,-0.0488,0.06344,0.04636,0.02928,0.00244,-0.0488,0.0244,-0.05856,-0.04392,-0.00488,-0.01464
0.05368,-0.06588,0.07808,0.05124,0.0244,0.01464,-0.05856,0.03416,-0.05856,-0.03416,0.01464,0
0.06832,-0.07564,0.08296,0.0488,0.01464,0.02684,-0.06832,0.04392,-0.05856,-0.01952,0.02928,0.01952
0.08296,-0.0854,0.08784,0.04636,0.00488,0.03904,-0.0732,0.05368,-0.06344,-0.01952,0.04392,0.03904
0.09272,-0.08784,0.08296,0.0366,-0.00976,0.05124,-0.08296,0.06832,-0.0732,-0.01464,0.06344,0.05856
0.11224,-0.10004,0.08784,0.03172,-0.0244,0.06832,-0.08784,0.07808,-0.07808,-0.00976,0.08296,0.07808
0.11712,-0.10736,0.0976,0.03904,-0.01952,0.06832,-0.0976,0.08296,-0.08784,-0.00976,0.0976,0.10248
0.13176,-0.11956,0.10736,0.04148,-0.0244,0.07808,-0.10736,0.09272,-0.09272,-0.00976,0.11712,0.12688
0.14152,-0.122,0.10248,0.03172,-0.03904,0.09028,-0.11224,0.0976,-0.10248,0,0.12688,0.14152
0.15128,-0.12932,0.10736,0.03172,-0.04392,0.0976,-0.11224,0.10736,-0.10736,0.00488,0.14152,0.15128
0.16592,-0.13908,0.11224,0.02928,-0.05368,0.1098,-0.11712,0.10736,-0.11224,0.00488,0.15128,0.15616
0.17568,-0.14396,0.11224,0.0244,-0.06344,0.11956,-0.122,0.11224,-0.11712,0.00488,0.16104,0.16592
0.18544,-0.15128,0.11712,0.0244,-0.06832,0.12688,-0.12688,0.10736,-0.122,0.00976,0.1708,0.1708
0.18544,-0.15128,0.11712,0.0244,-0.06832,0.12688,-0.12688,0.10736,-0.122,0.01464,0.17568,0.17568
0.19032,-0.15372,0.11712,0.02196,-0.0732,0.13176,-0.12688,0.10736,-0.12688,0.01464,0.17568,0.17568
0.19032,-0.15128,0.11224,0.01708,-0.07808,0.1342,-0.122,0.10736,-0.12688,0.00976,0.18056,0.1708
0.18544,-0.14884,0.11224,0.01952,-0.0732,0.12932,-0.122,0.10736,-0.122,0.00488,0.18056,0.16104
0.17568,-0.14152,0.10736,0.01952,-0.06832,0.122,-0.11224,0.10248,-0.11224,-0.00488,0.16104,0.15128
0.16104,-0.12932,0.0976,0.01708,-0.06344,0.11224,-0.10248,0.10248,-0.10248,-0.00976,0.14152,0.13664
0.14152,-0.11712,0.09272,0.02196,-0.0488,0.09516,-0.09272,0.0976,-0.0976,-0.00976,0.12688,0.11712
0.12688,-0.10248,0.07808,0.01464,-0.0488,0.08784,-0.08296,0.08784,-0.09272,-0.01952,0.11224,0.0976
0.10736,-0.09272,0.07808,0.0244,-0.02928,0.06832,-0.06832,0.08296,-0.08296,-0.0244,0.09272,0.07808
0.09272,-0.08052,0.06832,0.02196,-0.0244,0.05856,-0.05368,0.07808,-0.06832,-0.03416,0.07808,0.06344
0.07808,-0.06832,0.05856,0.01952,-0.01952,0.0488,-0.03416,0.0732,-0.0488,-0.03416,0.05856,0.04392
0.06344,-0.05856,0.05368,0.02196,-0.00976,0.0366,-0.0244,0.06344,-0.03904,-0.03416,0.04392,0.0244
0.0488,-0.04636,0.04392,0.01952,-0.00488,0.02684,-0.00976,0.05856,-0.02928,-0.03416,0.0244,0.00976
0.03416,-0.0366,0.03904,0.02196,0.00488,0.01464,-0.00488,0.0488,-0.01464,-0.03416,0.00976,-0.00976
0.01952,-0.02684,0.03416,0.0244,0.01464,0.00244,0,0.04392,-0.00488,-0.03416,0,-0.0244
0.00976,-0.02196,0.03416,0.02928,0.0244,-0.00732,0.00976,0.04392,0.00976,-0.03416,-0.00488,-0.03416
-0.00488,-0.00976,0.0244,0.02684,0.02928,-0.01708,0.01464,0.04392,0.01952,-0.02928,-0.01464,-0.04392
-0.01464,-0.00488,0.0244,0.03172,0.03904,-0.02684,0.01464,0.03416,0.0244,-0.01952,-0.01952,-0.0488
-0.01952,0,0.01952,0.02928,0.03904,-0.02928,0.01952,0.02928,0.02928,-0.01952,-0.02928,-0.05856
-0.0244,0.00244,0.01952,0.03172,0.04392,-0.03416,0.01952,0.01952,0.03416,-0.01952,-0.03416,-0.06832
-0.02928,0.00732,0.01464,0.02928,0.04392,-0.0366,0.01952,0.01464,0.03904,-0.01464,-0.03904,-0.0732
-0.03416,0.0122,0.00976,0.02684,0.04392,-0.03904,0.0244,0.00488,0.03904,-0.01464,-0.04392,-0.0732
-0.03416,0.0122,0.00976,0.02684,0.04392,-0.03904,0.0244,0.00488,0.03904,-0.01464,-0.04392,-0.0732
-0.03904,0.01464,0.00976,0.02928,0.0488,-0.04392,0.01952,0,0.03904,-0.01464,-0.04392,-0.0732
-0.03904,0.01708,0.00488,0.0244,0.04392,-0.04148,0.01464,-0.00488,0.03904,-0.01464,-0.0488,-0.07808
-0.04392,0.01952,0.00488,0.02684,0.0488,-0.04636,0.01464,-0.00488,0.03904,-0.01464,-0.05368,-0.08296
-0.04392,0.01952,0.00488,0.02684,0.0488,-0.04636,0.01464,-0.00976,0.03904,-0.01952,-0.05368,-0.08784
-0.0488,0.0244,0,0.0244,0.0488,-0.0488,0.01464,-0.00976,0.03904,-0.01952,-0.05856,-0.08784
-0.0488,0.0244,0,0.0244,0.0488,-0.0488,0.01464,-0.01464,0.03904,-0.01952,-0.06344,-0.0976
-0.04392,0.01952,0.00488,0.02684,0.0488,-0.04636,0.01464,-0.01464,0.03416,-0.01952,-0.06344,-0.0976
-0.04392,0.01708,0.00976,0.03172,0.05368,-0.0488,0.01464,-0.01464,0.02928,-0.02928,-0.06832,-0.0976
-0.04392,0.01952,0.00488,0.02684,0.0488,-0.04636,0.01464,-0.01464,0.02928,-0.02928,-0.06344,-0.0976
-0.0488,0.02196,0.00488,0.02928,0.05368,-0.05124,0.01464,-0.01464,0.02928,-0.02928,-0.05856,-0.09272
-0.0488,0.02196,0.00488,0.02928,0.05368,-0.05124,0.01952,-0.01464,0.03416,-0.02928,-0.05856,-0.09272
-0.0488,0.0244,0,0.0244,0.0488,-0.0488,0.0244,-0.01464,0.03904,-0.02928,-0.05856,-0.09272
-0.0488,0.0244,0,0.0244,0.0488,-0.0488,0.0244,-0.00976,0.03904,-0.02928,-0.05856,-0.0976
-0.0488,0.02684,-0.00488,0.01952,0.04392,-0.04636,0.0244,-0.00976,0.03904,-0.02928,-0.05856,-0.0976
-0.0488,0.02684,-0.00488,0.01952,0.04392,-0.04636,0.0244,-0.00976,0.03904,-0.0244,-0.05856,-0.08784
-0.0488,0.02684,-0.00488,0.01952,0.04392,-0.04636,0.02928,-0.00976,0.03904,-0.01952,-0.05856,-0.08784
-0.0488,0.02684,-0.00488,0.01952,0.04392,-0.04636,0.02928,-0.00488,0.03904,-0.01464,-0.05368,-0.08784
-0.0488,0.02684,-0.00488,0.01952,0.04392,-0.04636,0.03416,-0.00488,0.03904,-0.01464,-0.0488,-0.08784
-0.0488,0.02684,-0.00488,0.01952,0.04392,-0.04636,0.03416,-0.00488,0.04392,-0.01464,-0.0488,-0.08784
-0.05368,0.02684,0,0.02684,0.05368,-0.05368,0.03416,0,0.04392,-0.01464,-0.0488,-0.08784
-0.05368,0.02684,0,0.02684,0.05368,-0.05368,0.03416,0,0.04392,-0.01464,-0.05368,-0.08784
-0.0488,0.0244,0,0.0244,0.0488,-0.0488,0.02928,0,0.04392,-0.01464,-0.05856,-0.08784
-0.0488,0.02196,0.00488,0.02928,0.05368,-0.05124,0.02928,0,0.0488,-0.01464,-0.06344,-0.08784
-0.0488,0.02196,0.00488,0.02928,0.05368,-0.05124,0.02928,0,0.0488,-0.01464,-0.06832,-0.08784
-0.0488,0.02196,0.00488,0.02928,0.05368,-0.05124,0.02928,0,0.0488,-0.00976,-0.06832,-0.08784
-0.0488,0.02196,0.00488,0.02928,0.05368,-0.05124,0.02928,-0.00488,0.0488,-0.00976,-0.06832,-0.08784
-0.0488,0.02196,0.00488,0.02928,0.05368,-0.05124,0.02928,-0.00488,0.0488,-0.00976,-0.05856,-0.08784
-0.0488,0.02196,0.00488,0.02928,0.05368,-0.05124,0.02928,-0.00488,0.0488,-0.00976,-0.05856,-0.08784
-0.0488,0.02196,0.00488,0.02928,0.05368,-0.05124,0.02928,-0.00976,0.0488,-0.00976,-0.05856,-0.08784
-0.0488,0.01952,0.00976,0.03416,0.05856,-0.05368,0.02928,-0.00976,0.0488,-0.00976,-0.05856,-0.08296
-0.0488,0.01952,0.00976,0.03416,0.05856,-0.05368,0.02928,-0.00976,0.0488,-0.00488,-0.05856,-0.08296
-0.0488,0.01952,0.00976,0.03416,0.05856,-0.05368,0.0244,-0.00976,0.0488,-0.00488,-0.06344,-0.08784
-0.04392,0.01708,0.00976,0.03172,0.05368,-0.0488,0.0244,-0.00976,0.0488,-0.00976,-0.06344,-0.08784
-0.04392,0.01708,0.00976,0.03172,0.05368,-0.0488,0.0244,-0.00488,0.04392,-0.00976,-0.06344,-0.08784
-0.0488,0.01952,0.00976,0.03416,0.05856,-0.05368,0.0244,-0.00488,0.04392,-0.00976,-0.06344,-0.08296
-0.0488,0.01952,0.00976,0.03416,0.05856,-0.05368,0.01952,-0.00488,0.04392,-0.00976,-0.06344,-0.08296
-0.0488,0.01952,0.00976,0.03416,0.05856,-0.05368,0.01952,-0.00976,0.03904,-0.01464,-0.06344,-0.07808
-0.0488,0.01952,0.00976,0.03416,0.05856,-0.05368,0.01952,-0.00976,0.03904,-0.01952,-0.06344,-0.07808
-0.0488,0.01708,0.01464,0.03904,0.06344,-0.05612,0.01952,-0.00976,0.03904,-0.01952,-0.05856,-0.07808
-0.0488,0.01708,0.01464,0.03904,0.06344,-0.05612,0.01952,-0.00976,0.03904,-0.01952,-0.05856,-0.07808
-0.0488,0.01708,0.01464,0.03904,0.06344,-0.05612,0.01952,-0.01464,0.03904,-0.0244,-0.05856,-0.07808
-0.0488,0.01952,0.00976,0.03416,0.05856,-0.05368,0.01464,-0.01464,0.03416,-0.0244,-0.05856,-0.07808
-0.04392,0.01464,0.01464,0.0366,0.05856,-0.05124,0.01464,-0.01464,0.03416,-0.01952,-0.06344,-0.07808
-0.03904,0.00976,0.01952,0.03904,0.05856,-0.0488,0.01464,-0.01464,0.03416,-0.01952,-0.06344,-0.07808
-0.03904,0.00976,0.01952,0.03904,0.05856,-0.0488,0.01464,-0.01464,0.03416,-0.01952,-0.05856,-0.07808
-0.03904,0.00976,0.01952,0.03904,0.05856,-0.0488,0.01464,-0.01952,0.03416,-0.01952,-0.05856,-0.07808
-0.03904,0.00976,0.01952,0.03904,0.05856,-0.0488,0.01464,-0.01952,0.02928,-0.0244,-0.06344,-0.0732
-0.03904,0.00976,0.01952,0.03904,0.05856,-0.0488,0.01464,-0.01952,0.0244,-0.0244,-0.06832,-0.06832
-0.03904,0.00976,0.01952,0.03904,0.05856,-0.0488,0.01464,-0.01952,0.0244,-0.0244,-0.06832,-0.07808
-0.03904,0.00976,0.01952,0.03904,0.05856,-0.0488,0.01464,-0.0244,0.0244,-0.02928,-0.06832,-0.07808
-0.03904,0.00976,0.01952,0.03904,0.05856,-0.0488,0.01464,-0.0244,0.0244,-0.03416,-0.06832,-0.08296
-0.03904,0.0122,0.01464,0.03416,0.05368,-0.04636,0.01464,-0.0244,0.0244,-0.03904,-0.06832,-0.08784
-0.03904,0.0122,0.01464,0.03416,0.05368,-0.04636,0.01464,-0.0244,0.0244,-0.03904,-0.06832,-0.09272
-0.03904,0.0122,0.01464,0.03416,0.05368,-0.04636,0.01464,-0.0244,0.01952,-0.04392,-0.0732,-0.09272
-0.03904,0.0122,0.01464,0.03416,0.05368,-0.04636,0.01464,-0.0244,0.01952,-0.03904,-0.0732,-0.09272
-0.04392,0.01708,0.00976,0.03172,0.05368,-0.0488,0.01464,-0.0244,0.01952,-0.03416,-0.0732,-0.09272
-0.04392,0.01708,0.00976,0.03172,0.05368,-0.0488,0.01464,-0.02928,0.01952,-0.03416,-0.0732,-0.08784
-0.04392,0.01952,0.00488,0.02684,0.0488,-0.04636,0.01464,-0.02928,0.00976,-0.03416,-0.07808,-0.08784
-0.04392,0.01952,0.00488,0.02684,0.0488,-0.04636,0.01464,-0.02928,0.00976,-0.03416,-0.07808,-0.08784
-0.04392,0.01952,0.00488,0.02684,0.0488,-0.04636,0.01464,-0.02928,0.01464,-0.03904,-0.07808,-0.08784
-0.04392,0.01952,0.00488,0.02684,0.0488,-0.04636,0.01464,-0.02928,0.01464,-0.03904,-0.07808,-0.09272
-0.04392,0.01952,0.00488,0.02684,0.0488,-0.04636,0.01464,-0.02928,0.01464,-0.03904,-0.08296,-0.09272
-0.04392,0.02196,0,0.02196,0.04392,-0.04392,0.01464,-0.02928,0.01464,-0.03904,-0.08296,-0.09272
-0.0488,0.02684,-0.00488,0.01952,0.04392,-0.04636,0.01464,-0.02928,0.01464,-0.03904,-0.08296,-0.08784
-0.0488,0.02684,-0.00488,0.01952,0.04392,-0.04636,0.01464,-0.02928,0.01464,-0.03904,-0.08296,-0.08784
-0.03904,0.02196,-0.00488,0.01464,0.03416,-0.0366,0.00976,-0.02928,0.01464,-0.03904,-0.08296,-0.08784
-0.03904,0.0244,-0.00976,0.00976,0.02928,-0.03416,0.00976,-0.02928,0.01464,-0.03904,-0.07808,-0.08784
-0.03904,0.02684,-0.01464,0.00488,0.0244,-0.03172,0.00976,-0.02928,0.01464,-0.03904,-0.07808,-0.08784
-0.04392,0.02684,-0.00976,0.0122,0.03416,-0.03904,0.00976,-0.0244,0.01464,-0.03904,-0.07808,-0.08784
-0.0488,0.02928,-0.00976,0.01464,0.03904,-0.04392,0.00976,-0.01952,0.01464,-0.03904,-0.07808,-0.08296
-0.0488,0.02928,-0.00976,0.01464,0.03904,-0.04392,0.01464,-0.01952,0.01464,-0.03416,-0.0732,-0.08296
-0.05368,0.03172,-0.00976,0.01708,0.04392,-0.0488,0.0244,-0.01952,0.01952,-0.03416,-0.06832,-0.08784
-0.05368,0.03172,-0.00976,0.01708,0.04392,-0.0488,0.0244,-0.01952,0.0244,-0.03416,-0.06832,-0.08784
-0.0488,0.02684,-0.00488,0.01952,0.04392,-0.04636,0.01952,-0.01952,0.0244,-0.03416,-0.06832,-0.08296
-0.0488,0.0244,0,0.0244,0.0488,-0.0488,0.01952,-0.0244,0.01952,-0.03416,-0.0732,-0.08296
-0.0488,0.0244,0,0.0244,0.0488,-0.0488,0.01952,-0.0244,0.01952,-0.03416,-0.0732,-0.08296
-0.0488,0.0244,0,0.0244,0.0488,-0.0488,0.01952,-0.0244,0.01952,-0.03416,-0.06832,-0.08296
-0.0488,0.02684,-0.00488,0.01952,0.04392,-0.04636,0.01464,-0.0244,0.01464,-0.03904,-0.06832,-0.08296
-0.0488,0.02684,-0.00488,0.01952,0.04392,-0.04636,0.01952,-0.0244,0.01464,-0.03904,-0.06832,-0.08296
-0.04392,0.02684,-0.00976,0.0122,0.03416,-0.03904,0.0244,-0.0244,0.01464,-0.03904,-0.06832,-0.08296
-0.03904,0.0244,-0.00976,0.00976,0.02928,-0.03416,0.01952,-0.02928,0.01464,-0.03904,-0.06832,-0.07808
-0.03904,0.02196,-0.00488,0.01464,0.03416,-0.0366,0.00488,-0.02928,0.01952,-0.04392,-0.06832,-0.07808
-0.03904,0.01952,0,0.01952,0.03904,-0.03904,0.00488,-0.02928,0.01464,-0.03904,-0.0732,-0.07808
-0.04392,0.02196,0,0.02196,0.04392,-0.04392,0.01464,-0.02928,0.01464,-0.03416,-0.0732,-0.07808
-0.0488,0.02684,-0.00488,0.01952,0.04392,-0.04636,0.01952,-0.02928,0.00976,-0.03416,-0.0732,-0.07808
-0.04392,0.0244,-0.00488,0.01708,0.03904,-0.04148,0.01952,-0.02928,0.00976,-0.03416,-0.0732,-0.07808
-0.04392,0.0244,-0.00488,0.01708,0.03904,-0.04148,0.01952,-0.02928,0.00488,-0.03904,-0.06832,-0.0732
-0.04392,0.0244,-0.00488,0.01708,0.03904,-0.04148,0.01952,-0.03416,0.00488,-0.04392,-0.06832,-0.0732
-0.04392,0.02684,-0.00976,0.0122,0.03416,-0.03904,0.0244,-0.03416,0.00488,-0.03416,-0.06832,-0.07808
-0.04392,0.0244,-0.00488,0.01708,0.03904,-0.04148,0.0244,-0.02928,0.00976,-0.03416,-0.06832,-0.07808
-0.04392,0.0244,-0.00488,0.01708,0.03904,-0.04148,0.0244,-0.02928,0.00976,-0.03416,-0.06832,-0.0732
-0.04392,0.0244,-0.00488,0.01708,0.03904,-0.04148,0.0244,-0.02928,0.01464,-0.03904,-0.0732,-0.06832
-0.04392,0.0244,-0.00488,0.01708,0.03904,-0.04148,0.01952,-0.0244,0.00976,-0.03416,-0.06832,-0.06832
-0.0488,0.02928,-0.00976,0.01464,0.03904,-0.04392,0.01952,-0.01952,0.00976,-0.02928,-0.06832,-0.06832
-0.0488,0.03172,-0.01464,0.00976,0.03416,-0.04148,0.01952,-0.01952,0.00976,-0.02928,-0.06832,-0.06832
-0.0488,0.03416,-0.01952,0.00488,0.02928,-0.03904,0.01952,-0.01952,0.00976,-0.02928,-0.06832,-0.06832
-0.0488,0.03416,-0.01952,0.00488,0.02928,-0.03904,0.01952,-0.01952,0.00976,-0.03416,-0.06832,-0.06832
-0.0488,0.03416,-0.01952,0.00488,0.02928,-0.03904,0.01952,-0.01952,0.00976,-0.03904,-0.06832,-0.06832
-0.0488,0.03416,-0.01952,0.00488,0.02928,-0.03904,0.01952,-0.0244,0.00976,-0.03904,-0.06832,-0.06832
-0.0488,0.03416,-0.01952,0.00488,0.02928,-0.03904,0.01952,-0.02928,0.00976,-0.03904,-0.06832,-0.06832
-0.04392,0.03172,-0.01952,0.00244,0.0244,-0.03416,0.01952,-0.02928,0.00976,-0.03904,-0.0732,-0.06832
-0.03904,0.02928,-0.01952,0,0.01952,-0.02928,0.01952,-0.02928,0.00976,-0.03904,-0.07808,-0.06832
-0.03904,0.02928,-0.01952,0,0.01952,-0.02928,0.01952,-0.02928,0.00976,-0.03904,-0.07808,-0.06832
-0.03904,0.02928,-0.01952,0,0.01952,-0.02928,0.01952,-0.02928,0.00976,-0.03904,-0.07808,-0.06832
-0.04392,0.03172,-0.01952,0.00244,0.0244,-0.03416,0.01952,-0.02928,0.00976,-0.04392,-0.07808,-0.06344
-0.0488,0.03416,-0.01952,0.00488,0.02928,-0.03904,0.01952,-0.02928,0.00976,-0.0488,-0.07808,-0.05856
-0.0488,0.03416,-0.01952,0.00488,0.02928,-0.03904,0.01952,-0.02928,0.00976,-0.0488,-0.07808,-0.05856
-0.0488,0.03416,-0.01952,0.00488,0.02928,-0.03904,0.01952,-0.02928,0.00976,-0.0488,-0.07808,-0.05856
-0.0488,0.0366,-0.0244,0,0.0244,-0.0366,0.01952,-0.02928,0.00976,-0.04392,-0.0732,-0.05856
-0.0488,0.03904,-0.02928,-0.00488,0.01952,-0.03416,0.01952,-0.02928,0.00976,-0.03904,-0.06832,-0.05856
-0.0488,0.03904,-0.02928,-0.00488,0.01952,-0.03416,0.01952,-0.02928,0.00976,-0.03904,-0.06832,-0.05856
-0.0488,0.03904,-0.02928,-0.00488,0.01952,-0.03416,0.01952,-0.02928,0.00976,-0.03904,-0.06832,-0.05856
-0.0488,0.03904,-0.02928,-0.00488,0.01952,-0.03416,0.01952,-0.0244,0.00976,-0.03904,-0.06832,-0.05856
-0.0488,0.03904,-0.02928,-0.00488,0.01952,-0.03416,0.01952,-0.01952,0.00976,-0.03904,-0.06832,-0.05856
-0.0488,0.03904,-0.02928,-0.00488,0.01952,-0.03416,0.01952,-0.01952,0.00976,-0.03904,-0.06832,-0.05856
-0.0488,0.03904,-0.02928,-0.00488,0.01952,-0.03416,0.01952,-0.01952,0.00976,-0.03904,-0.06832,-0.05856
-0.0488,0.0366,-0.0244,0,0.0244,-0.0366,0.01952,-0.0244,0.00976,-0.03904,-0.06832,-0.05856
-0.0488,0.03416,-0.01952,0.00488,0.02928,-0.03904,0.01952,-0.02928,0.00976,-0.03904,-0.06832,-0.05856
-0.0488,0.03416,-0.01952,0.00488,0.02928,-0.03904,0.01952,-0.02928,0.00976,-0.03904,-0.06832,-0.05856
-0.0488,0.03416,-0.01952,0.00488,0.02928,-0.03904,0.01952,-0.02928,0.00976,-0.03904,-0.06832,-0.05856
-0.0488,0.0366,-0.0244,0,0.0244,-0.0366,0.01952,-0.0244,0.00976,-0.03904,-0.06832,-0.05856
-0.0488,0.03904,-0.02928,-0.00488,0.01952,-0.03416,0.01952,-0.01952,0.00976,-0.03904,-0.06832,-0.05856
-0.0488,0.03904,-0.02928,-0.00488,0.01952,-0.03416,0.01952,-0.01952,0.00976,-0.03904,-0.06832,-0.05856
-0.0488,0.03904,-0.02928,-0.00488,0.01952,-0.03416,0.01952,-0.01952,0.00976,-0.03904,-0.06832,-0.05856
-0.0488,0.0366,-0.0244,0,0.0244,-0.0366,0.01952,-0.01952,0.00976,-0.03904,-0.06832,-0.05368
-0.0488,0.03416,-0.01952,0.00488,0.02928,-0.03904,0.01952,-0.01952,0.00976,-0.03904,-0.06832,-0.0488
-0.04392,0.02928,-0.01464,0.00732,0.02928,-0.0366,0.01952,-0.01952,0.00976,-0.03904,-0.06832,-0.0488
-0.03904,0.0244,-0.00976,0.00976,0.02928,-0.03416,0.01952,-0.01952,0.00976,-0.03904,-0.06832,-0.0488
-0.03904,0.02196,-0.00488,0.01464,0.03416,-0.0366,0.0244,-0.01952,0.01464,-0.03416,-0.06344,-0.04392
-0.03904,0.01952,0,0.01952,0.03904,-0.03904,0.02928,-0.01952,0.01952,-0.02928,-0.05856,-0.03904
-0.03904,0.01708,0.00488,0.0244,0.04392,-0.04148,0.03416,-0.01464,0.0244,-0.02928,-0.05368,-0.03904
-0.03416,0.01464,0.00488,0.02196,0.03904,-0.0366,0.03904,-0.00488,0.02928,-0.01952,-0.0488,-0.03416
-0.03416,0.0122,0.00976,0.02684,0.04392,-0.03904,0.04392,0.00488,0.03904,-0.01464,-0.04392,-0.02928
-0.02928,0.00732,0.01464,0.02928,0.04392,-0.0366,0.0488,0.00976,0.0488,-0.00488,-0.03416,-0.01952
-0.01952,0,0.01952,0.02928,0.03904,-0.02928,0.05368,0.01464,0.0488,0,-0.03416,-0.01464
-0.01464,-0.00244,0.01952,0.02684,0.03416,-0.0244,0.05856,0.01952,0.0488,0.00488,-0.02928,-0.01464
-0.01464,-0.00488,0.0244,0.03172,0.03904,-0.02684,0.04392,0.01952,0.05856,0.00976,-0.02928,-0.01464
0,-0.01464,0.02928,0.02928,0.02928,-0.01464,0.03416,0.01952,0.05856,0.00976,-0.02928,-0.01464
0,-0.0122,0.0244,0.0244,0.0244,-0.0122,0.0244,0.01464,0.05368,0.00976,-0.0244,-0.01464
0.00488,-0.01464,0.0244,0.02196,0.01952,-0.00732,0.01464,0.00976,0.04392,0.00488,-0.0244,-0.01464
0.00976,-0.01708,0.0244,0.01952,0.01464,-0.00244,0.00488,0.00488,0.03416,0,-0.02928,-0.01464
0.00976,-0.0122,0.01464,0.00976,0.00488,0.00244,-0.00488,-0.00488,0.0244,-0.00976,-0.03416,-0.01952
0.00976,-0.00976,0.00976,0.00488,0,0.00488,-0.01464,-0.01952,0.00976,-0.01952,-0.04392,-0.0244
0.00976,-0.00976,0.00976,0.00488,0,0.00488,-0.01952,-0.02928,0,-0.03416,-0.0488,-0.0244
0.00976,-0.00976,0.00976,0.00488,0,0.00488,-0.01952,-0.03416,-0.00488,-0.03416,-0.05368,-0.02928
0.00976,-0.00732,0.00488,0,-0.00488,0.00732,-0.01464,-0.03416,-0.00976,-0.03416,-0.05368,-0.03416
0.00976,-0.00732,0.00488,0,-0.00488,0.00732,-0.00488,-0.03416,-0.00976,-0.03416,-0.05368,-0.03416
0.00488,-0.00732,0.00976,0.00732,0.00488,0,0.00488,-0.0244,0.00488,-0.02928,-0.04392,-0.0244
-0.00488,-0.00244,0.00976,0.0122,0.01464,-0.00976,0.00976,-0.01952,0.00976,-0.03416,-0.04392,-0.0244
-0.0244,0.00732,0.00976,0.02196,0.03416,-0.02928,0.01464,-0.01464,0.01464,-0.03416,-0.04392,-0.0244
-0.03416,0.02196,-0.00976,0.00732,0.0244,-0.02928,0.02928,-0.01464,0.01464,-0.03416,-0.05368,-0.02928
-0.05368,0.0366,-0.01952,0.00732,0.03416,-0.04392,0.02928,-0.01464,0.01464,-0.03416,-0.05856,-0.03416
-0.05368,0.04148,-0.02928,-0.00244,0.0244,-0.03904,0.02928,-0.01952,0.00976,-0.03904,-0.06832,-0.04392
-0.0488,0.04148,-0.03416,-0.00976,0.01464,-0.03172,0.03416,-0.0244,0,-0.0488,-0.0732,-0.0488
-0.0488,0.04148,-0.03416,-0.00976,0.01464,-0.03172,0.02928,-0.0244,0,-0.0488,-0.07808,-0.0488
-0.05368,0.04148,-0.02928,-0.00244,0.0244,-0.03904,0.02928,-0.02928,0,-0.0488,-0.07808,-0.0488
-0.05368,0.04148,-0.02928,-0.00244,0.0244,-0.03904,0.03416,-0.02928,0,-0.0488,-0.07808,-0.0488
-0.05368,0.04148,-0.02928,-0.00244,0.0244,-0.03904,0.03416,-0.0244,0,-0.0488,-0.07808,-0.0488
-0.05368,0.04148,-0.02928,-0.00244,0.0244,-0.03904,0.03416,-0.0244,0,-0.0488,-0.0732,-0.0488
-0.05368,0.04148,-0.02928,-0.00244,0.0244,-0.03904,0.03416,-0.0244,0,-0.0488,-0.06832,-0.0488
-0.05368,0.04148,-0.02928,-0.00244,0.0244,-0.03904,0.03416,-0.0244,0,-0.0488,-0.06832,-0.0488
-0.05856,0.04392,-0.02928,0,0.02928,-0.04392,0.03416,-0.0244,0,-0.0488,-0.0732,-0.05368
-0.05856,0.04392,-0.02928,0,0.02928,-0.04392,0.03416,-0.0244,0.00488,-0.0488,-0.0732,-0.05368
-0.05856,0.04392,-0.02928,0,0.02928,-0.04392,0.03904,-0.01952,0.00976,-0.0488,-0.0732,-0.05368
-0.05368,0.04392,-0.03416,-0.00732,0.01952,-0.0366,0.03904,-0.01952,0.00976,-0.0488,-0.0732,-0.0488
-0.0488,0.04148,-0.03416,-0.00976,0.01464,-0.03172,0.03904,-0.01952,0.00976,-0.0488,-0.0732,-0.04392
-0.0488,0.04148,-0.03416,-0.00976,0.01464,-0.03172,0.03904,-0.01952,0.00488,-0.0488,-0.0732,-0.04392
-0.0488,0.04148,-0.03416,-0.00976,0.01464,-0.03172,0.03904,-0.01952,0.00488,-0.04392,-0.0732,-0.04392
-0.05368,0.04392,-0.03416,-0.00732,0.01952,-0.0366,0.0488,-0.01952,0.00488,-0.04392,-0.07808,-0.0488
-0.05856,0.04636,-0.03416,-0.00488,0.0244,-0.04148,0.05368,-0.01464,0.00488,-0.04392,-0.08296,-0.05368
-0.06344,0.05124,-0.03904,-0.00732,0.0244,-0.04392,0.06344,0,0.00976,-0.04392,-0.09272,-0.05856
-0.0732,0.061,-0.0488,-0.0122,0.0244,-0.0488,0.07808,0.01464,0.01464,-0.05856,-0.11224,-0.0732
-0.08784,0.06588,-0.04392,0,0.04392,-0.06588,0.0976,0.02928,0.04392,-0.0488,-0.11712,-0.09272
-0.09272,0.06344,-0.03416,0.0122,0.05856,-0.07564,0.10736,0.0488,0.07808,-0.03416,-0.10736,-0.0976
-0.0732,0.03416,0.00488,0.04148,0.07808,-0.07564,0.10736,0.07808,0.11712,0.03904,-0.03904,-0.02928
-0.02928,-0.01708,0.06344,0.07808,0.09272,-0.061,0.09272,0.122,0.18544,0.15128,0.08296,0.07808
0.05856,-0.09028,0.122,0.09272,0.06344,-0.00244,0.03904,0.1464,0.21472,0.25864,0.24888,0.20496
0.17568,-0.16836,0.16104,0.0732,-0.01464,0.09516,0.00488,0.19032,0.244,0.38064,0.44896,0.36112
0.29768,-0.25376,0.20984,0.061,-0.08784,0.19276,-0.07808,0.1708,0.1952,0.48312,0.66856,0.54168
0.47336,-0.38064,0.28792,0.05124,-0.18544,0.3294,-0.29768,0.0244,0.08296,0.58072,0.91744,0.74176
0.61488,-0.47824,0.3416,0.03416,-0.27328,0.44408,-0.46848,-0.122,-0.0732,0.61976,1.10776,0.88816
0.72712,-0.55144,0.37576,0.0122,-0.35136,0.53924,-0.64416,-0.25864,-0.27816,0.6588,1.32248,1.03456
0.7076,-0.49532,0.28304,-0.07076,-0.42456,0.56608,-0.66856,-0.30256,-0.39528,0.61,1.2688,0.98576
0.56608,-0.37088,0.17568,-0.10736,-0.3904,0.47824,-0.61488,-0.35624,-0.45384,0.4392,0.94672,0.74664
0.38552,-0.23668,0.08784,-0.10492,-0.29768,0.3416,-0.49288,-0.3904,-0.43432,0.244,0.55632,0.44896
0.18056,-0.06588,-0.0488,-0.13908,-0.22936,0.20496,-0.28792,-0.31232,-0.34648,0.04392,0.14152,0.11224
0.02928,0.05124,-0.13176,-0.1464,-0.16104,0.09516,-0.11712,-0.2196,-0.25376,-0.07808,-0.0732,-0.0732
-0.01952,0.06832,-0.11712,-0.10736,-0.0976,0.03904,-0.00488,-0.1464,-0.17568,-0.11224,-0.07808,-0.05856
-0.03904,0.06344,-0.08784,-0.06832,-0.0488,0.00488,0.05368,-0.05856,-0.10736,-0.08296,-0.06832,-0.05856
-0.03904,0.0488,-0.05856,-0.03904,-0.01952,-0.00976,0.0488,-0.02928,-0.04392,-0.0488,-0.05368,-0.03416
-0.0488,0.04636,-0.04392,-0.01952,0.00488,-0.02684,0.0488,-0.01952,-0.01952,-0.02928,-0.0488,-0.02928
-0.0488,0.04148,-0.03416,-0.00976,0.01464,-0.03172,0.0488,-0.01952,-0.01464,-0.0244,-0.0488,-0.02928
