i,aVR,ii,aVF,iii,aVL,V1,V2,V3,V4,V5,V6
0.0732,-0.07076,0.06832,0.03172,-0.00488,0.03904,0.01464,0.12688,0.0976,0.00976,0.03416,0.0488
0.06344,-0.061,0.05856,0.02684,-0.00488,0.03416,0.0244,0.11712,0.08784,0.00488,0.0244,0.04392
0.03904,-0.04148,0.04392,0.0244,0.00488,0.01708,0.01464,0.11224,0.0732,-0.00976,0.00976,0.02928
0.02928,-0.0366,0.04392,0.02928,0.01464,0.00732,0.0244,0.10248,0.06832,-0.00976,0,0.0244
0.01464,-0.02196,0.02928,0.02196,0.01464,0,0.02928,0.09272,0.06344,-0.00976,0.00976,0.0244
0.01464,-0.03416,0.05368,0.04636,0.03904,-0.0122,0.02928,0.08296,0.05856,-0.01952,0,0.0244
0.01464,-0.02684,0.03904,0.03172,0.0244,-0.00488,0.03416,0.07808,0.0488,-0.03416,-0.00488,0.00488
-0.01464,0,0.01464,0.02196,0.02928,-0.02196,0.03416,0.06344,0.03904,-0.03904,-0.01464,-0.00488
-0.01952,0,0.01952,0.02928,0.03904,-0.02928,0.02928,0.05368,0.03904,-0.0488,-0.02928,-0.00976
-0.01952,0.00488,0.00976,0.01952,0.02928,-0.0244,0.03416,0.0488,0.03904,-0.05368,-0.02928,-0.00976
-0.00488,-0.0122,0.02928,0.03172,0.03416,-0.01952,0.03416,0.05368,0.02928,-0.0488,-0.01952,-0.00976
0,-0.01464,0.02928,0.02928,0.02928,-0.01464,0.03416,0.0488,0.02928,-0.0488,-0.01952,-0.01464
-0.00976,-0.00488,0.01952,0.0244,0.02928,-0.01952,0.03416,0.03904,0.0244,-0.05856,-0.02928,-0.00488
-0.01464,0.00244,0.00976,0.01708,0.0244,-0.01952,0.03416,0.03904,0.01952,-0.05856,-0.03416,-0.00976
-0.00976,-0.00244,0.01464,0.01952,0.0244,-0.01708,0.04392,0.03416,0.02928,-0.05368,-0.03904,-0.01952
-0.0244,0.00488,0.01464,0.02684,0.03904,-0.03172,0.03904,0.04392,0.02928,-0.05368,-0.04392,-0.0244
-0.0488,0.02196,0.00488,0.02928,0.05368,-0.05124,0.03416,0.0488,0.01952,-0.06832,-0.05368,-0.0244
-0.04392,0.01708,0.00976,0.03172,0.05368,-0.0488,0.03416,0.03416,0.01464,-0.06832,-0.05856,-0.0244
-0.03416,0.01952,-0.00488,0.0122,0.02928,-0.03172,0.03416,0.03416,0.00976,-0.06832,-0.0488,-0.01464
-0.03416,0.01952,-0.00488,0.0122,0.02928,-0.03172,0.03904,0.02928,0.00976,-0.0732,-0.05368,-0.01952
-0.0244,0.01464,-0.00488,0.00732,0.01952,-0.02196,0.03416,0.0244,0.00976,-0.06832,-0.04392,-0.01952
-0.0244,0.01464,-0.00488,0.00732,0.01952,-0.02196,0.03416,0.02928,0.00976,-0.06832,-0.0488,-0.01952
-0.03904,0.01708,0.00488,0.0244,0.04392,-0.04148,0.04392,0.03904,0.01952,-0.06832,-0.05368,-0.01952
-0.03904,0.01952,0,0.01952,0.03904,-0.03904,0.04392,0.03904,0.01952,-0.06832,-0.05856,-0.0244
-0.0488,0.0244,0,0.0244,0.0488,-0.0488,0.0488,0.02928,0.00976,-0.06832,-0.0488,-0.02928
-0.0488,0.0244,0,0.0244,0.0488,-0.0488,0.04392,0.02928,0.00976,-0.06832,-0.0488,-0.02928
-0.04392,0.02684,-0.00976,0.0122,0.03416,-0.03904,0.03904,0.03416,0.01952,-0.06832,-0.0488,-0.02928
-0.04392,0.02684,-0.00976,0.0122,0.03416,-0.03904,0.04392,0.03904,0.01952,-0.06344,-0.04392,-0.02928
-0.04392,0.02196,0,0.02196,0.04392,-0.04392,0.0488,0.04392,0.01952,-0.06344,-0.0488,-0.01952
-0.03904,0.01464,0.00976,0.02928,0.0488,-0.04392,0.0488,0.04392,0.01952,-0.06344,-0.0488,-0.01952
-0.0244,0.00976,0.00488,0.01708,0.02928,-0.02684,0.03904,0.03904,0.01464,-0.06832,-0.0488,-0.01952
-0.03904,0.01708,0.00488,0.0244,0.04392,-0.04148,0.03416,0.02928,0,-0.0732,-0.0488,-0.0244
-0.04392,0.02196,0,0.02196,0.04392,-0.04392,0.0488,0.03416,0,-0.0732,-0.05368,-0.01952
-0.04392,0.02684,-0.00976,0.0122,0.03416,-0.03904,0.0488,0.03416,0.01464,-0.06832,-0.0488,-0.01952
-0.03904,0.0244,-0.00976,0.00976,0.02928,-0.03416,0.03904,0.0488,0.01952,-0.06832,-0.03904,-0.00976
-0.04392,0.02196,0,0.02196,0.04392,-0.04392,0.03904,0.04392,0.01952,-0.06832,-0.04392,-0.00976
-0.03416,0.0122,0.00976,0.02684,0.04392,-0.03904,0.0488,0.03416,0.00976,-0.06344,-0.04392,-0.00976
-0.0244,0.00732,0.00976,0.02196,0.03416,-0.02928,0.0488,0.03416,0.00976,-0.06344,-0.04392,-0.00976
-0.03904,0.01464,0.00976,0.02928,0.0488,-0.04392,0.0488,0.04392,0.00976,-0.06832,-0.04392,-0.01952
-0.04392,0.01952,0.00488,0.02684,0.0488,-0.04636,0.0488,0.04392,0.00976,-0.06344,-0.04392,-0.01952
-0.02928,0.00732,0.01464,0.02928,0.04392,-0.0366,0.03904,0.03904,0.00976,-0.06344,-0.04392,-0.01464
-0.03904,0.0122,0.01464,0.03416,0.05368,-0.04636,0.03904,0.02928,0.00976,-0.06344,-0.03904,-0.01464
-0.0488,0.02196,0.00488,0.02928,0.05368,-0.05124,0.03904,0.02928,0.00976,-0.06344,-0.0488,-0.01464
-0.04392,0.02196,0,0.02196,0.04392,-0.04392,0.03904,0.02928,0.00488,-0.06832,-0.0488,-0.01464
-0.04392,0.0244,-0.00488,0.01708,0.03904,-0.04148,0.03904,0.01952,-0.00488,-0.07808,-0.05856,-0.01952
-0.0488,0.02684,-0.00488,0.01952,0.04392,-0.04636,0.03416,0.01952,-0.00488,-0.07808,-0.05856,-0.02928
-0.03904,0.01952,0,0.01952,0.03904,-0.03904,0.04392,0.02928,0.00976,-0.06832,-0.04392,-0.01952
-0.05368,0.02684,0,0.02684,0.05368,-0.05368,0.04392,0.02928,0.00976,-0.05856,-0.03904,-0.00976
-0.0488,0.02196,0.00488,0.02928,0.05368,-0.05124,0.04392,0.0244,0.00976,-0.05368,-0.02928,-0.00488
-0.03904,0.01464,0.00976,0.02928,0.0488,-0.04392,0.0488,0.0244,0,-0.05856,-0.03904,-0.00976
-0.03904,0.01708,0.00488,0.0244,0.04392,-0.04148,0.03904,0.01952,-0.00488,-0.06832,-0.04392,-0.01952
-0.0488,0.02196,0.00488,0.02928,0.05368,-0.05124,0.03416,0.01952,-0.00488,-0.06832,-0.0488,-0.01952
-0.05368,0.02928,-0.00488,0.02196,0.0488,-0.05124,0.04392,0.00976,0,-0.06344,-0.0488,-0.01952
-0.06344,0.03904,-0.01464,0.01708,0.0488,-0.05612,0.04392,0.00976,-0.00488,-0.06344,-0.05368,-0.01952
-0.05856,0.02928,0,0.02928,0.05856,-0.05856,0.03416,0.01464,0.00488,-0.06344,-0.05368,-0.00976
-0.04392,0.01708,0.00976,0.03172,0.05368,-0.0488,0.03416,0.01464,0,-0.05856,-0.04392,-0.00976
-0.04392,0.01464,0.01464,0.0366,0.05856,-0.05124,0.03416,0.01464,0,-0.05856,-0.04392,-0.01464
-0.03904,0.01708,0.00488,0.0244,0.04392,-0.04148,0.04392,0.00976,0,-0.06344,-0.04392,-0.00976
-0.03904,0.0122,0.01464,0.03416,0.05368,-0.04636,0.0488,0.00976,0,-0.05856,-0.03904,-0.01952
-0.03904,0.0122,0.01464,0.03416,0.05368,-0.04636,0.03904,0.00976,0.00488,-0.05856,-0.03416,-0.01952
-0.0244,0,0.0244,0.0366,0.0488,-0.0366,0.0488,0.00976,-0.00976,-0.07808,-0.04392,-0.01952
-0.02928,0.00244,0.0244,0.03904,0.05368,-0.04148,0.03904,0.00976,-0.00976,-0.06832,-0.04392,-0.01952
-0.01952,0,0.01952,0.02928,0.03904,-0.02928,0.03904,0,-0.00976,-0.06832,-0.04392,-0.02928
-0.02928,0.00976,0.00976,0.0244,0.03904,-0.03416,0.03904,-0.00488,-0.01464,-0.0732,-0.05368,-0.02928
-0.03416,0.01952,-0.00488,0.0122,0.02928,-0.03172,0.03904,0.00488,-0.00976,-0.0732,-0.0488,-0.03416
-0.05856,0.0366,-0.01464,0.01464,0.04392,-0.05124,0.04392,0,-0.00488,-0.07808,-0.0488,-0.03416
-0.07808,0.04148,-0.00488,0.03416,0.0732,-0.07564,0.04392,-0.00976,-0.01464,-0.07808,-0.05368,-0.03416
-0.0732,0.03904,-0.00488,0.03172,0.06832,-0.07076,0.03904,-0.00976,-0.01464,-0.0732,-0.0488,-0.03416
-0.06832,0.03904,-0.00976,0.0244,0.05856,-0.06344,0.03904,0,-0.00976,-0.06344,-0.0488,-0.0244
-0.05368,0.02928,-0.00488,0.02196,0.0488,-0.05124,0.03904,0,-0.00488,-0.06344,-0.0488,-0.0244
-0.03904,0.01952,0,0.01952,0.03904,-0.03904,0.04392,0,-0.00488,-0.06344,-0.03416,-0.03416
-0.05368,0.02684,0,0.02684,0.05368,-0.05368,0.03904,0,-0.01464,-0.07808,-0.0488,-0.03416
-0.05856,0.0244,0.00976,0.03904,0.06832,-0.06344,0.03904,-0.00488,-0.01952,-0.06832,-0.05856,-0.0244
-0.04392,0.01952,0.00488,0.02684,0.0488,-0.04636,0.03904,-0.00488,-0.0244,-0.0732,-0.05368,-0.0244
-0.06344,0.03172,0,0.03172,0.06344,-0.06344,0.03904,-0.00488,-0.01464,-0.0732,-0.06344,-0.03416
-0.05856,0.02928,0,0.02928,0.05856,-0.05856,0.03904,-0.00488,-0.00976,-0.0732,-0.05856,-0.03416
-0.05856,0.03416,-0.00976,0.01952,0.0488,-0.05368,0.02928,-0.01464,-0.0244,-0.08296,-0.05856,-0.03416
-0.06344,0.04148,-0.01952,0.0122,0.04392,-0.05368,0.03904,-0.01464,-0.0244,-0.08296,-0.05368,-0.03416
-0.0488,0.03416,-0.01952,0.00488,0.02928,-0.03904,0.02928,-0.00488,-0.01464,-0.06832,-0.05368,-0.03904
-0.05368,0.03416,-0.01464,0.0122,0.03904,-0.04636,0.02928,-0.00488,-0.01464,-0.0732,-0.05368,-0.03904
-0.05368,0.02196,0.00976,0.0366,0.06344,-0.05856,0.03904,-0.00488,-0.00488,-0.07808,-0.05368,-0.01952
-0.05368,0.02196,0.00976,0.0366,0.06344,-0.05856,0.03416,-0.00488,-0.00488,-0.0732,-0.05368,-0.02928
-0.05368,0.02684,0,0.02684,0.05368,-0.05368,0.03904,-0.00488,-0.01464,-0.0732,-0.05368,-0.01952
-0.0488,0.01952,0.00976,0.03416,0.05856,-0.05368,0.03416,-0.00976,-0.01464,-0.07808,-0.05368,-0.01952
-0.04392,0.01708,0.00976,0.03172,0.05368,-0.0488,0.03904,-0.01464,-0.01464,-0.07808,-0.05368,-0.01952
-0.0488,0.01952,0.00976,0.03416,0.05856,-0.05368,0.03904,-0.01464,-0.01464,-0.07808,-0.05856,-0.02928
-0.06344,0.03416,-0.00488,0.02684,0.05856,-0.061,0.03904,-0.00976,-0.0244,-0.07808,-0.0488,-0.0244
-0.06344,0.03416,-0.00488,0.02684,0.05856,-0.061,0.03904,-0.00976,-0.0244,-0.0732,-0.05368,-0.02928
-0.05856,0.03416,-0.00976,0.01952,0.0488,-0.05368,0.03904,-0.01952,-0.02928,-0.0732,-0.05368,-0.03904
-0.0488,0.02928,-0.00976,0.01464,0.03904,-0.04392,0.03904,-0.01952,-0.0244,-0.06832,-0.04392,-0.03416
-0.05368,0.02684,0,0.02684,0.05368,-0.05368,0.03904,-0.00976,-0.01952,-0.06832,-0.05368,-0.03904
-0.04392,0.02196,0,0.02196,0.04392,-0.04392,0.03904,-0.00976,-0.01952,-0.06832,-0.05368,-0.03904
-0.03904,0.02196,-0.00488,0.01464,0.03416,-0.0366,0.02928,-0.01464,-0.01464,-0.0732,-0.05856,-0.03904
-0.03904,0.01952,0,0.01952,0.03904,-0.03904,0.02928,-0.01952,-0.01952,-0.08296,-0.05856,-0.03416
-0.02928,0.00976,0.00976,0.0244,0.03904,-0.03416,0.0244,-0.00976,-0.01952,-0.07808,-0.05856,-0.03416
-0.02928,0.00976,0.00976,0.0244,0.03904,-0.03416,0.0244,-0.00976,-0.0244,-0.08296,-0.05856,-0.03904
-0.03416,0.01952,-0.00488,0.0122,0.02928,-0.03172,0.03904,-0.01952,-0.01952,-0.08296,-0.06832,-0.04392
-0.05856,0.04148,-0.0244,0.00488,0.03416,-0.04636,0.03416,-0.01952,-0.01952,-0.08784,-0.06832,-0.04392
-0.03904,0.0244,-0.00976,0.00976,0.02928,-0.03416,0.01952,-0.01952,-0.02928,-0.08296,-0.06832,-0.04392
-0.05856,0.01952,0.01952,0.0488,0.07808,-0.06832,0.03904,-0.01952,-0.03904,-0.07808,-0.06832,-0.02928
-0.0488,0.01952,0.00976,0.03416,0.05856,-0.05368,0.02928,-0.01952,-0.02928,-0.07808,-0.06832,-0.03904
-0.0488,0.0244,0,0.0244,0.0488,-0.0488,0.02928,-0.01952,-0.02928,-0.07808,-0.06832,-0.03904
-0.05856,0.03416,-0.00976,0.01952,0.0488,-0.05368,0.02928,-0.00976,-0.02928,-0.07808,-0.06832,-0.03904
-0.05856,0.03416,-0.00976,0.01952,0.0488,-0.05368,0.02928,-0.00976,-0.02928,-0.07808,-0.06832,-0.03904
-0.0488,0.03416,-0.01952,0.00488,0.02928,-0.03904,0.02928,-0.00976,-0.01952,-0.06832,-0.05856,-0.02928
-0.03904,0.02928,-0.01952,0,0.01952,-0.02928,0.02928,-0.00976,-0.01952,-0.06832,-0.0488,-0.01952
-0.03904,0.01952,0,0.01952,0.03904,-0.03904,0.02928,-0.00976,-0.02928,-0.06832,-0.05856,-0.02928
-0.03904,0.00976,0.01952,0.03904,0.05856,-0.0488,0.02928,-0.00976,-0.02928,-0.06832,-0.05856,-0.02928
-0.03904,0.01952,0,0.01952,0.03904,-0.03904,0.01952,-0.01952,-0.02928,-0.06832,-0.0488,-0.02928
-0.03904,0.0244,-0.00976,0.00976,0.02928,-0.03416,0.01952,-0.01952,-0.02928,-0.06832,-0.0488,-0.02928
-0.0488,0.0244,0,0.0244,0.0488,-0.0488,0.02928,-0.01952,-0.02928,-0.07808,-0.05856,-0.03904
-0.0488,0.01952,0.00976,0.03416,0.05856,-0.05368,0.02928,-0.01952,-0.02928,-0.07808,-0.05856,-0.0488
-0.03904,0.01952,0,0.01952,0.03904,-0.03904,0.02928,-0.01952,-0.02928,-0.07808,-0.05856,-0.03904
-0.02928,0.01464,0,0.01464,0.02928,-0.02928,0.02928,-0.01952,-0.02928,-0.07808,-0.05856,-0.03904
-0.03904,0.01952,0,0.01952,0.03904,-0.03904,0.01952,-0.01952,-0.01952,-0.07808,-0.05856,-0.03904
-0.03904,0.01952,0,0.01952,0.03904,-0.03904,0.01952,-0.01952,-0.01952,-0.07808,-0.05856,-0.03904
-0.0488,0.01952,0.00976,0.03416,0.05856,-0.05368,0.02928,-0.01952,-0.02928,-0.07808,-0.05856,-0.02928
-0.05856,0.0244,0.00976,0.03904,0.06832,-0.06344,0.02928,-0.01952,-0.02928,-0.07808,-0.05856,-0.02928
-0.0488,0.0244,0,0.0244,0.0488,-0.0488,0.03904,-0.00976,-0.01952,-0.07808,-0.05856,-0.03904
-0.0488,0.03416,-0.01952,0.00488,0.02928,-0.03904,0.03904,-0.00976,-0.01952,-0.07808,-0.05856,-0.03904
-0.04392,0.0244,-0.00488,0.01708,0.03904,-0.04148,0.02928,-0.01952,-0.02928,-0.08296,-0.06832,-0.03904
-0.0488,0.01952,0.00976,0.03416,0.05856,-0.05368,0.01952,-0.02928,-0.02928,-0.07808,-0.0732,-0.03904
-0.05368,0.03172,-0.00976,0.01708,0.04392,-0.0488,0.01464,-0.0244,-0.03904,-0.08296,-0.06344,-0.0488
-0.0488,0.03172,-0.01464,0.00976,0.03416,-0.04148,0.01464,-0.01952,-0.04392,-0.08296,-0.06344,-0.0488
-0.03416,0.0244,-0.01464,0.00244,0.01952,-0.02684,0.01464,-0.01952,-0.02928,-0.07808,-0.06344,-0.03904
-0.0488,0.02928,-0.00976,0.01464,0.03904,-0.04392,0.01952,-0.01464,-0.02928,-0.07808,-0.06344,-0.03904
-0.0488,0.03172,-0.01464,0.00976,0.03416,-0.04148,0.01952,-0.01464,-0.01952,-0.08296,-0.06344,-0.03416
-0.03904,0.02684,-0.01464,0.00488,0.0244,-0.03172,0.01952,-0.01464,-0.0244,-0.08296,-0.06344,-0.03416
-0.02928,0.01464,0,0.01464,0.02928,-0.02928,0.01464,-0.01464,-0.0244,-0.0732,-0.05368,-0.03416
-0.0244,0.00732,0.00976,0.02196,0.03416,-0.02928,0.01464,-0.01464,-0.01952,-0.06832,-0.04392,-0.0244
0,-0.01708,0.03416,0.03416,0.03416,-0.01708,0.01952,0,-0.00976,-0.05368,-0.02928,-0.01952
0.0244,-0.04148,0.05856,0.04636,0.03416,-0.00488,0.01952,0.00976,0,-0.03416,-0.0244,-0.00976
0.01464,-0.0366,0.05856,0.05124,0.04392,-0.01464,0.04392,0.04392,0.01952,-0.02928,-0.01952,0
-0.00488,-0.02196,0.0488,0.05124,0.05368,-0.02928,0.05368,0.04392,0.0244,-0.0244,-0.00976,0
-0.01952,-0.00976,0.03904,0.0488,0.05856,-0.03904,0.05368,0.03416,0.00976,-0.03416,-0.0244,-0.00488
-0.0244,0,0.0244,0.0366,0.0488,-0.0366,0.05856,0.0244,0.00488,-0.05368,-0.03416,-0.00488
-0.01952,-0.00732,0.03416,0.04392,0.05368,-0.0366,0.0488,0.01952,0.00488,-0.04392,-0.03416,-0.01464
0.00488,-0.01952,0.03416,0.03172,0.02928,-0.0122,0.02928,-0.00488,0,-0.05856,-0.04392,-0.0244
0.01952,-0.03172,0.04392,0.03416,0.0244,-0.00244,0.01952,-0.01464,-0.01464,-0.05368,-0.03904,-0.01464
0.01952,-0.02684,0.03416,0.0244,0.01464,0.00244,-0.00488,-0.0244,-0.0244,-0.06344,-0.03904,-0.01464
0.00976,-0.01464,0.01952,0.01464,0.00976,0,-0.01464,-0.0244,-0.03416,-0.06832,-0.04392,-0.01952
0,-0.0122,0.0244,0.0244,0.0244,-0.0122,-0.01464,-0.02928,-0.03904,-0.0732,-0.04392,-0.0244
-0.00488,0.00488,-0.00488,-0.00244,0,-0.00244,-0.01464,-0.03416,-0.03904,-0.07808,-0.06832,-0.04392
-0.01464,0.01708,-0.01952,-0.0122,-0.00488,-0.00488,-0.00488,-0.02928,-0.03904,-0.08784,-0.07808,-0.05856
-0.03416,0.0244,-0.01464,0.00244,0.01952,-0.02684,0.00976,-0.01464,-0.03416,-0.07808,-0.05368,-0.03904
-0.06344,0.0366,-0.00976,0.02196,0.05368,-0.05856,0.01952,-0.01464,-0.02928,-0.06832,-0.04392,-0.01952
-0.05856,0.02684,0.00488,0.03416,0.06344,-0.061,0.0244,-0.01952,-0.02928,-0.0732,-0.06344,-0.0244
-0.05856,0.03172,-0.00488,0.0244,0.05368,-0.05612,0.01952,-0.03416,-0.03904,-0.07808,-0.06344,-0.03416
-0.03904,0.02684,-0.01464,0.00488,0.0244,-0.03172,0.00488,-0.03416,-0.03904,-0.08784,-0.0732,-0.0488
-0.03904,0.02684,-0.01464,0.00488,0.0244,-0.03172,0.00488,-0.03416,-0.04392,-0.09272,-0.0732,-0.04392
-0.05856,0.0366,-0.01464,0.01464,0.04392,-0.05124,0.01464,-0.03416,-0.03904,-0.09272,-0.06344,-0.04392
-0.0732,0.04636,-0.01952,0.01708,0.05368,-0.06344,0.01464,-0.03416,-0.03904,-0.08784,-0.06344,-0.04392
-0.06344,0.04392,-0.0244,0.00732,0.03904,-0.05124,0.00976,-0.03416,-0.02928,-0.07808,-0.06832,-0.05368
-0.06832,0.04636,-0.0244,0.00976,0.04392,-0.05612,0.00976,-0.03416,-0.02928,-0.07808,-0.06832,-0.05368
-0.08296,0.05124,-0.01952,0.02196,0.06344,-0.0732,0.01952,-0.0244,-0.01952,-0.07808,-0.05856,-0.04392
-0.0732,0.04636,-0.01952,0.01708,0.05368,-0.06344,0.01952,-0.0244,-0.01952,-0.07808,-0.05856,-0.0488
-0.0488,0.03416,-0.01952,0.00488,0.02928,-0.03904,0.01952,-0.01464,-0.0244,-0.0732,-0.06344,-0.05856
-0.0976,0.02196,0.05368,0.10248,0.15128,-0.12444,0.06344,0.03904,0.0488,-0.01464,-0.00976,-0.00976
-0.1464,0.03172,0.08296,0.15616,0.22936,-0.18788,0.13664,0.12688,0.15616,0.0732,0.06832,0.03904
-0.17568,0.03416,0.10736,0.1952,0.28304,-0.22936,0.18544,0.2196,0.25864,0.18056,0.1708,0.09272
-0.0976,-0.00732,0.11224,0.16104,0.20984,-0.15372,0.18056,0.28304,0.32696,0.27328,0.244,0.15128
0.04392,-0.07076,0.0976,0.07564,0.05368,-0.00488,0.11224,0.35624,0.34648,0.32208,0.29768,0.18544
0.25864,-0.17812,0.0976,-0.03172,-0.16104,0.20984,0.01464,0.40992,0.35624,0.35624,0.33184,0.25864
0.42456,-0.2684,0.11224,-0.10004,-0.31232,0.36844,-0.16104,0.25376,0.28304,0.366,0.38552,0.36112
0.55632,-0.33428,0.11224,-0.16592,-0.44408,0.5002,-0.23912,0.14152,0.244,0.33672,0.37576,0.40016
0.6588,-0.33916,0.01952,-0.30988,-0.63928,0.64904,-0.38064,-0.15128,-0.05368,0.0244,0.08784,0.21472
0.69784,-0.30256,-0.09272,-0.44164,-0.79056,0.7442,-0.51728,-0.4148,-0.3416,-0.25864,-0.18544,0.04392
0.63928,-0.24644,-0.1464,-0.46604,-0.78568,0.71248,-0.61976,-0.67344,-0.5612,-0.45384,-0.33672,-0.05368
0.47824,-0.13176,-0.21472,-0.45384,-0.69296,0.5856,-0.6588,-0.9516,-0.78568,-0.63928,-0.47336,-0.1708
0.28792,0.00244,-0.2928,-0.43676,-0.58072,0.43432,-0.6588,-1.11752,-0.96136,-0.81984,-0.64416,-0.31232
0.2196,0.04392,-0.30744,-0.41724,-0.52704,0.37332,-0.61488,-1.0736,-0.96136,-0.83448,-0.66368,-0.34648
0.122,0.11224,-0.34648,-0.40748,-0.46848,0.29524,-0.52704,-0.92232,-0.87352,-0.80032,-0.64904,-0.35136
0.06344,0.12444,-0.31232,-0.34404,-0.37576,0.2196,-0.40016,-0.71248,-0.71736,-0.68808,-0.56608,-0.32696
-0.01464,0.13664,-0.25864,-0.25132,-0.244,0.11468,-0.2684,-0.49776,-0.50752,-0.50264,-0.4148,-0.2684
-0.02928,0.11712,-0.20496,-0.19032,-0.17568,0.0732,-0.1708,-0.32208,-0.34648,-0.36112,-0.30256,-0.19032
-0.0244,0.07564,-0.12688,-0.11468,-0.10248,0.03904,-0.10248,-0.23424,-0.24888,-0.2684,-0.21472,-0.13176
-0.03416,0.061,-0.08784,-0.07076,-0.05368,0.00976,-0.07808,-0.16592,-0.18056,-0.21472,-0.17568,-0.09272
-0.01952,0.04636,-0.0732,-0.06344,-0.05368,0.01708,-0.01952,-0.06832,-0.0976,-0.15616,-0.13176,-0.08296
-0.03416,0.04636,-0.05856,-0.04148,-0.0244,-0.00488,-0.03416,-0.0732,-0.09272,-0.13664,-0.11712,-0.06832
-0.05368,0.05856,-0.06344,-0.0366,-0.00976,-0.02196,-0.0244,-0.0732,-0.08784,-0.13176,-0.0976,-0.0488
-0.07808,0.07076,-0.06344,-0.0244,0.01464,-0.04636,-0.01952,-0.06344,-0.07808,-0.13176,-0.10248,-0.05368
-0.0732,0.06588,-0.05856,-0.02196,0.01464,-0.04392,0,-0.04392,-0.06832,-0.13176,-0.10248,-0.06344
-0.06832,0.05612,-0.04392,-0.00976,0.0244,-0.04636,0,-0.03416,-0.06344,-0.12688,-0.0976,-0.05856
-0.0732,0.05856,-0.04392,-0.00732,0.02928,-0.05124,-0.00488,-0.03904,-0.06832,-0.11712,-0.0976,-0.05368
-0.0732,0.05612,-0.03904,-0.00244,0.03416,-0.05368,0.00488,-0.02928,-0.06344,-0.11712,-0.0976,-0.05368
-0.06344,0.061,-0.05856,-0.02684,0.00488,-0.03416,0.01464,-0.01952,-0.0488,-0.10736,-0.08784,-0.05856
-0.06832,0.061,-0.05368,-0.01952,0.01464,-0.04148,0.01952,-0.01952,-0.04392,-0.10248,-0.08784,-0.05856
-0.07808,0.06588,-0.05368,-0.01464,0.0244,-0.05124,0.00976,-0.0244,-0.04392,-0.08784,-0.08296,-0.0488
-0.08784,0.06588,-0.04392,0,0.04392,-0.06588,0.00976,-0.01952,-0.04392,-0.08784,-0.07808,-0.0488
-0.08296,0.06344,-0.04392,-0.00244,0.03904,-0.061,0.01464,-0.0244,-0.04392,-0.0976,-0.08296,-0.0488
-0.06344,0.04636,-0.02928,0.00244,0.03416,-0.0488,0.01464,-0.01952,-0.03904,-0.0976,-0.08296,-0.04392
-0.06344,0.04636,-0.02928,0.00244,0.03416,-0.0488,0.01464,-0.01952,-0.0488,-0.10736,-0.08296,-0.05856
-0.06344,0.04636,-0.02928,0.00244,0.03416,-0.0488,0.01464,-0.0244,-0.0488,-0.10736,-0.08296,-0.05856
-0.08784,0.06588,-0.04392,0,0.04392,-0.06588,0.01464,-0.00976,-0.0488,-0.0976,-0.08296,-0.0488
-0.08296,0.06344,-0.04392,-0.00244,0.03904,-0.061,0.01464,-0.00976,-0.0488,-0.0976,-0.08296,-0.0488
-0.0732,0.05368,-0.03416,0.00244,0.03904,-0.05612,0.00976,-0.01464,-0.04392,-0.09272,-0.06832,-0.05368
-0.06832,0.05124,-0.03416,0,0.03416,-0.05124,0.01952,-0.00976,-0.04392,-0.08784,-0.06344,-0.05368
-0.07808,0.061,-0.04392,-0.00488,0.03416,-0.05612,0.01952,0,-0.03416,-0.09272,-0.07808,-0.04392
-0.07808,0.06832,-0.05856,-0.01952,0.01952,-0.0488,0.02928,0,-0.03416,-0.09272,-0.07808,-0.04392
-0.07808,0.061,-0.04392,-0.00488,0.03416,-0.05612,0.01464,-0.00976,-0.04392,-0.09272,-0.07808,-0.05368
-0.08784,0.06832,-0.0488,-0.00488,0.03904,-0.06344,0.01464,-0.00976,-0.04392,-0.09272,-0.07808,-0.05368
-0.07808,0.061,-0.04392,-0.00488,0.03416,-0.05612,0.00976,0,-0.03904,-0.08784,-0.07808,-0.04392
-0.0732,0.061,-0.0488,-0.0122,0.0244,-0.0488,0.00488,0,-0.04392,-0.08784,-0.07808,-0.04392
-0.07808,0.06588,-0.05368,-0.01464,0.0244,-0.05124,0.01464,-0.00488,-0.03416,-0.08784,-0.06832,-0.04392
-0.0732,0.06344,-0.05368,-0.01708,0.01952,-0.04636,0.01952,-0.00488,-0.03416,-0.08784,-0.06832,-0.04392
-0.08296,0.06832,-0.05368,-0.0122,0.02928,-0.05612,0.00488,-0.00488,-0.03904,-0.0976,-0.07808,-0.05368
-0.08296,0.07076,-0.05856,-0.01708,0.0244,-0.05368,0.00976,-0.00488,-0.03904,-0.0976,-0.08784,-0.0488
-0.08784,0.0732,-0.05856,-0.01464,0.02928,-0.05856,0.01952,0,-0.03904,-0.0976,-0.07808,-0.03904
-0.08784,0.07076,-0.05368,-0.00976,0.03416,-0.061,0.01952,0,-0.03904,-0.0976,-0.06344,-0.03904
-0.08784,0.06588,-0.04392,0,0.04392,-0.06588,0.00976,0,-0.03416,-0.08784,-0.0732,-0.0488
-0.07808,0.061,-0.04392,-0.00488,0.03416,-0.05612,0.00976,0.00488,-0.03416,-0.08296,-0.06832,-0.0488
-0.07808,0.06832,-0.05856,-0.01952,0.01952,-0.0488,0.00488,0,-0.04392,-0.09272,-0.06832,-0.0488
-0.07808,0.06588,-0.05368,-0.01464,0.0244,-0.05124,0.00488,0,-0.04392,-0.09272,-0.06832,-0.0488
-0.05856,0.0488,-0.03904,-0.00976,0.01952,-0.03904,0.00488,0.00976,-0.02928,-0.08296,-0.06832,-0.0488
-0.05856,0.04636,-0.03416,-0.00488,0.0244,-0.04148,0,0.00976,-0.03416,-0.08296,-0.06832,-0.0488
-0.05368,0.05124,-0.0488,-0.02196,0.00488,-0.02928,-0.00976,0.01464,-0.03416,-0.08296,-0.06344,-0.04392
-0.05368,0.05124,-0.0488,-0.02196,0.00488,-0.02928,-0.00976,0.01464,-0.02928,-0.07808,-0.06344,-0.03904
-0.03904,0.0366,-0.03416,-0.01464,0.00488,-0.02196,0,0.0244,-0.01952,-0.07808,-0.05368,-0.02928
-0.02928,0.02684,-0.0244,-0.00976,0.00488,-0.01708,-0.00488,0.0244,-0.01464,-0.0732,-0.0488,-0.02928
-0.03904,0.03172,-0.0244,-0.00488,0.01464,-0.02684,0.00488,0.03904,-0.00976,-0.05856,-0.04392,-0.0244
-0.04392,0.03172,-0.01952,0.00244,0.0244,-0.03416,0.00976,0.04392,-0.00976,-0.05856,-0.04392,-0.01952
-0.04392,0.03172,-0.01952,0.00244,0.0244,-0.03416,-0.00976,0.03416,-0.01464,-0.06344,-0.05368,-0.03416
-0.04392,0.03904,-0.03416,-0.0122,0.00976,-0.02684,-0.01952,0.03904,-0.0244,-0.0732,-0.0488,-0.03416
-0.00976,0.01708,-0.0244,-0.01952,-0.01464,0.00244,-0.00976,0.05856,-0.01464,-0.06344,-0.03904,-0.00976
0,0.00732,-0.01464,-0.01464,-0.01464,0.00732,-0.01464,0.05856,0,-0.05856,-0.03904,-0.00976
0.01464,0,-0.01464,-0.02196,-0.02928,0.02196,-0.01464,0.05368,0.00488,-0.0488,-0.03416,0.00488
0.0244,-0.00976,-0.00488,-0.01708,-0.02928,0.02684,-0.01464,0.06832,0.00488,-0.04392,-0.02928,0.00488
0.0244,-0.0122,0,-0.0122,-0.0244,0.0244,-0.01952,0.06832,0.00488,-0.05368,-0.02928,0
0.03904,-0.02196,0.00488,-0.01464,-0.03416,0.0366,-0.02928,0.07808,0.01464,-0.04392,-0.01952,0.00488
0.05368,-0.0366,0.01952,-0.00732,-0.03416,0.04392,-0.03416,0.08296,0.01464,-0.03416,-0.00976,0.01464
0.06832,-0.04636,0.0244,-0.00976,-0.04392,0.05612,-0.02928,0.09272,0.01464,-0.0244,-0.00488,0.02928
0.0732,-0.05124,0.02928,-0.00732,-0.04392,0.05856,-0.03904,0.08784,0.00976,-0.03416,-0.00976,0.02928
0.08296,-0.05612,0.02928,-0.0122,-0.05368,0.06832,-0.04392,0.09272,0.01464,-0.01952,0,0.04392
0.10248,-0.06832,0.03416,-0.01708,-0.06832,0.0854,-0.05368,0.0976,0.01952,-0.0244,0.00976,0.03904
0.11712,-0.08052,0.04392,-0.01464,-0.0732,0.09516,-0.05856,0.10248,0.01952,-0.0244,0.00976,0.0488
0.13664,-0.09028,0.04392,-0.0244,-0.09272,0.11468,-0.05856,0.10736,0.01952,-0.00488,0.0244,0.05856
0.15128,-0.10004,0.0488,-0.02684,-0.10248,0.12688,-0.06832,0.11224,0.01952,-0.00488,0.03416,0.05856
0.14152,-0.09516,0.0488,-0.02196,-0.09272,0.11712,-0.06344,0.122,0.02928,0.01464,0.04392,0.0732
0.1464,-0.10004,0.05368,-0.01952,-0.09272,0.11956,-0.05368,0.12688,0.0488,0.01464,0.0488,0.08784
0.16592,-0.11468,0.06344,-0.01952,-0.10248,0.1342,-0.06344,0.1464,0.05368,0.01952,0.0488,0.08784
0.18544,-0.12932,0.0732,-0.01952,-0.11224,0.14884,-0.06832,0.1464,0.05368,0.02928,0.0488,0.09272
0.20008,-0.14152,0.08296,-0.01708,-0.11712,0.1586,-0.05856,0.15128,0.06344,0.0244,0.06832,0.08784
0.20496,-0.1464,0.08784,-0.01464,-0.11712,0.16104,-0.05856,0.15616,0.06832,0.03416,0.05856,0.09272
0.19032,-0.1342,0.07808,-0.01708,-0.11224,0.15128,-0.05368,0.15616,0.06832,0.04392,0.05368,0.0976
0.1708,-0.11956,0.06832,-0.01708,-0.10248,0.13664,-0.0488,0.15616,0.0732,0.03904,0.05856,0.0976
0.16592,-0.122,0.07808,-0.00488,-0.08784,0.12688,-0.03904,0.16592,0.08784,0.0488,0.06832,0.0976
0.15616,-0.11468,0.0732,-0.00488,-0.08296,0.11956,-0.0244,0.16592,0.09272,0.0488,0.07808,0.0976
0.12688,-0.09516,0.06344,0,-0.06344,0.09516,-0.00976,0.15616,0.09272,0.0488,0.06832,0.08296
0.0976,-0.07564,0.05368,0.00488,-0.04392,0.07076,-0.00976,0.1464,0.09272,0.0488,0.06344,0.0732
0.06832,-0.05124,0.03416,0,-0.03416,0.05124,0.00488,0.14152,0.08296,0.03904,0.05856,0.06832
0.05368,-0.04148,0.02928,0.00244,-0.0244,0.03904,0.01464,0.13176,0.08784,0.02928,0.05368,0.06344
0.05368,-0.04636,0.03904,0.0122,-0.01464,0.03416,0.00488,0.11224,0.0732,0.01464,0.03416,0.04392
0.02928,-0.02684,0.0244,0.00976,-0.00488,0.01708,0.01464,0.10736,0.06832,0.01464,0.03416,0.03904
0.0244,-0.0244,0.0244,0.0122,0,0.0122,0.02928,0.10248,0.06832,0.00976,0.0244,0.02928
0.00976,-0.01464,0.01952,0.01464,0.00976,0,0.03904,0.0976,0.06832,0,0.01952,0.0244
-0.01952,0.00732,0.00488,0.01464,0.0244,-0.02196,0.03904,0.08784,0.06344,-0.00976,0.01952,0.0244
-0.01952,0.00488,0.00976,0.01952,0.02928,-0.0244,0.04392,0.08296,0.05368,-0.00976,0.00976,0.01464
-0.03904,0.01952,0,0.01952,0.03904,-0.03904,0.03416,0.05856,0.03416,-0.02928,-0.00976,0
-0.05368,0.03172,-0.00976,0.01708,0.04392,-0.0488,0.01952,0.05368,0.02928,-0.02928,-0.01952,-0.01952
-0.0488,0.03904,-0.02928,-0.00488,0.01952,-0.03416,0.02928,0.05368,0.02928,-0.03416,-0.01952,-0.00976
-0.0488,0.03416,-0.01952,0.00488,0.02928,-0.03904,0.03416,0.0488,0.02928,-0.03416,-0.01952,-0.00976
-0.02928,0.01464,0,0.01464,0.02928,-0.02928,0.04392,0.0488,0.02928,-0.03416,-0.00976,0
-0.0488,0.0244,0,0.0244,0.0488,-0.0488,0.04392,0.0488,0.02928,-0.0244,-0.00976,-0.00488
-0.06344,0.04148,-0.01952,0.0122,0.04392,-0.05368,0.04392,0.03904,0.01952,-0.03904,-0.0244,-0.01952
-0.06344,0.04148,-0.01952,0.0122,0.04392,-0.05368,0.04392,0.03904,0.01952,-0.04392,-0.0244,-0.01952
-0.04392,0.0244,-0.00488,0.01708,0.03904,-0.04148,0.03904,0.03904,0.01952,-0.04392,-0.02928,-0.01464
-0.05856,0.03172,-0.00488,0.0244,0.05368,-0.05612,0.04392,0.03904,0.01952,-0.04392,-0.03416,-0.01464
-0.05368,0.03172,-0.00976,0.01708,0.04392,-0.0488,0.04392,0.04392,0.01464,-0.0488,-0.02928,-0.0244
-0.05368,0.03172,-0.00976,0.01708,0.04392,-0.0488,0.04392,0.03904,0.00976,-0.0488,-0.02928,-0.0244
-0.04392,0.02928,-0.01464,0.00732,0.02928,-0.0366,0.04392,0.04392,0.00976,-0.05368,-0.02928,-0.02928
-0.04392,0.02928,-0.01464,0.00732,0.02928,-0.0366,0.0488,0.03416,0.00976,-0.05368,-0.03416,-0.02928
-0.05368,0.03416,-0.01464,0.0122,0.03904,-0.04636,0.05368,0.0488,0.01952,-0.0488,-0.02928,-0.01952
-0.06344,0.03904,-0.01464,0.01708,0.0488,-0.05612,0.05368,0.0488,0.01952,-0.03904,-0.02928,-0.00976
-0.07808,0.05368,-0.02928,0.00976,0.0488,-0.06344,0.04392,0.03904,0.00976,-0.05856,-0.04392,-0.01952
-0.08784,0.05856,-0.02928,0.01464,0.05856,-0.0732,0.0488,0.03904,0.00976,-0.06832,-0.05856,-0.03416
-0.06832,0.04392,-0.01952,0.01464,0.0488,-0.05856,0.04392,0.03904,0.00976,-0.05856,-0.0488,-0.01952
-0.0488,0.03416,-0.01952,0.00488,0.02928,-0.03904,0.0488,0.03904,0.00976,-0.0488,-0.03904,-0.01952
-0.05368,0.0366,-0.01952,0.00732,0.03416,-0.04392,0.03904,0.03416,0.00976,-0.05368,-0.03904,-0.02928
-0.05368,0.03416,-0.01464,0.0122,0.03904,-0.04636,0.04392,0.03904,0.00976,-0.05368,-0.03416,-0.02928
-0.0732,0.05368,-0.03416,0.00244,0.03904,-0.05612,0.0488,0.03416,0.00976,-0.05368,-0.03904,-0.02928
-0.07808,0.061,-0.04392,-0.00488,0.03416,-0.05612,0.0488,0.03416,0.00976,-0.05856,-0.03904,-0.02928
-0.06344,0.04392,-0.0244,0.00732,0.03904,-0.05124,0.03904,0.0244,0,-0.06344,-0.0488,-0.02928
-0.06832,0.04148,-0.01464,0.01952,0.05368,-0.061,0.03416,0.01464,-0.00488,-0.06344,-0.0488,-0.03416
-0.06344,0.03416,-0.00488,0.02684,0.05856,-0.061,0.0488,0.03416,0.01464,-0.05368,-0.04392,-0.01952
-0.05856,0.02684,0.00488,0.03416,0.06344,-0.061,0.05856,0.0488,0.02928,-0.03904,-0.01952,-0.00976
-0.05368,0.02928,-0.00488,0.02196,0.0488,-0.05124,0.0488,0.03416,0.01952,-0.0488,-0.02928,-0.01952
-0.05368,0.02928,-0.00488,0.02196,0.0488,-0.05124,0.03904,0.03416,0.00976,-0.04392,-0.03416,-0.01952
-0.05856,0.03416,-0.00976,0.01952,0.0488,-0.05368,0.03904,0.03416,0.00976,-0.05368,-0.03416,-0.02928
-0.05368,0.03172,-0.00976,0.01708,0.04392,-0.0488,0.03904,0.03416,0.00976,-0.05368,-0.03416,-0.02928
-0.0488,0.03172,-0.01464,0.00976,0.03416,-0.04148,0.0488,0.03416,0.00976,-0.0488,-0.0244,-0.02928
-0.05368,0.03416,-0.01464,0.0122,0.03904,-0.04636,0.0488,0.03416,0.00976,-0.04392,-0.0244,-0.0244
-0.05856,0.03172,-0.00488,0.0244,0.05368,-0.05612,0.03904,0.0244,0.00976,-0.05368,-0.02928,-0.0244
-0.06832,0.0366,-0.00488,0.02928,0.06344,-0.06588,0.03904,0.01952,0.00976,-0.05368,-0.03904,-0.0244
-0.05368,0.0366,-0.01952,0.00732,0.03416,-0.04392,0.03904,0.02928,0.00976,-0.05856,-0.03904,-0.0244
-0.0488,0.03172,-0.01464,0.00976,0.03416,-0.04148,0.03904,0.02928,0.00488,-0.05856,-0.04392,-0.0244
-0.05856,0.0366,-0.01464,0.01464,0.04392,-0.05124,0.03416,0.02928,0.01464,-0.0488,-0.03904,-0.0244
-0.06344,0.03904,-0.01464,0.01708,0.0488,-0.05612,0.03416,0.02928,0.01464,-0.04392,-0.0244,-0.0244
-0.04392,0.02684,-0.00976,0.0122,0.03416,-0.03904,0.0244,0.01952,0.00976,-0.05368,-0.03416,-0.0244
-0.06344,0.0366,-0.00976,0.02196,0.05368,-0.05856,0.0244,0.01952,0,-0.05368,-0.02928,-0.0244
-0.0732,0.04636,-0.01952,0.01708,0.05368,-0.06344,0.03904,0.01464,0.00976,-0.05368,-0.02928,-0.02928
-0.08296,0.05612,-0.02928,0.0122,0.05368,-0.06832,0.03904,0.01464,0,-0.05856,-0.03904,-0.02928
-0.0732,0.0488,-0.0244,0.0122,0.0488,-0.061,0.02928,0,-0.00488,-0.06832,-0.0488,-0.02928
-0.0732,0.04636,-0.01952,0.01708,0.05368,-0.06344,0.0244,0,-0.00488,-0.06344,-0.03904,-0.02928
-0.05856,0.03904,-0.01952,0.00976,0.03904,-0.0488,0.01464,0.00976,0,-0.06344,-0.03904,-0.02928
-0.05368,0.0366,-0.01952,0.00732,0.03416,-0.04392,0.01464,0.00488,-0.00488,-0.0732,-0.04392,-0.02928
-0.07808,0.05612,-0.03416,0.00488,0.04392,-0.061,0.0244,0.00488,-0.00976,-0.0732,-0.0488,-0.02928
-0.11224,0.08052,-0.0488,0.00732,0.06344,-0.08784,0.0244,0.00488,-0.00976,-0.06832,-0.0488,-0.02928
-0.08784,0.05368,-0.01952,0.0244,0.06832,-0.07808,0.01952,0.00488,0,-0.06344,-0.04392,-0.0244
-0.07808,0.0366,0.00488,0.04392,0.08296,-0.08052,0.01952,0,0,-0.06344,-0.03904,-0.01952
-0.06832,0.03416,0,0.03416,0.06832,-0.06832,0.03416,0,-0.00976,-0.06832,-0.03416,-0.02928
-0.05368,0.0366,-0.01952,0.00732,0.03416,-0.04392,0.03904,0,-0.00488,-0.06832,-0.03416,-0.02928
-0.06832,0.04636,-0.0244,0.00976,0.04392,-0.05612,0.03416,0,-0.00976,-0.05856,-0.03416,-0.02928
-0.07808,0.05124,-0.0244,0.01464,0.05368,-0.06588,0.02928,0,-0.00976,-0.05856,-0.03416,-0.02928
-0.07808,0.04636,-0.01464,0.0244,0.06344,-0.07076,0.02928,-0.00488,-0.00488,-0.0732,-0.05368,-0.02928
-0.08784,0.0488,-0.00976,0.03416,0.07808,-0.08296,0.02928,-0.00488,-0.00976,-0.0732,-0.05368,-0.03416
-0.0732,0.04148,-0.00976,0.02684,0.06344,-0.06832,0.02928,-0.00488,-0.01464,-0.0732,-0.0488,-0.03416
-0.07808,0.04392,-0.00976,0.02928,0.06832,-0.0732,0.03416,-0.00976,-0.01464,-0.07808,-0.0488,-0.03416
-0.06344,0.03416,-0.00488,0.02684,0.05856,-0.061,0.03416,-0.00976,-0.00488,-0.06344,-0.04392,-0.0244
-0.06344,0.03416,-0.00488,0.02684,0.05856,-0.061,0.02928,-0.00976,-0.00488,-0.06344,-0.03904,-0.0244
-0.06832,0.04392,-0.01952,0.01464,0.0488,-0.05856,0.02928,0,-0.00976,-0.0732,-0.0488,-0.0244
-0.06832,0.04148,-0.01464,0.01952,0.05368,-0.061,0.03416,0,-0.00488,-0.0732,-0.04392,-0.0244
-0.08784,0.05368,-0.01952,0.0244,0.06832,-0.07808,0.02928,-0.00976,-0.00488,-0.06832,-0.05368,-0.03416
-0.0976,0.061,-0.0244,0.0244,0.0732,-0.0854,0.02928,-0.00976,-0.01464,-0.06832,-0.05856,-0.03416
-0.09272,0.05612,-0.01952,0.02684,0.0732,-0.08296,0.03904,-0.01464,-0.00976,-0.06832,-0.05856,-0.04392
-0.09272,0.05856,-0.0244,0.02196,0.06832,-0.08052,0.03904,-0.01464,-0.01464,-0.0732,-0.05368,-0.04392
-0.09272,0.05612,-0.01952,0.02684,0.0732,-0.08296,0.02928,-0.01464,-0.01464,-0.0732,-0.05368,-0.03416
-0.07808,0.05124,-0.0244,0.01464,0.05368,-0.06588,0.02928,-0.01464,-0.00976,-0.0732,-0.0488,-0.03416
-0.08784,0.061,-0.03416,0.00976,0.05368,-0.07076,0.02928,-0.0244,-0.0244,-0.08296,-0.05856,-0.04392
-0.10248,0.06832,-0.03416,0.01708,0.06832,-0.0854,0.02928,-0.0244,-0.0244,-0.07808,-0.05368,-0.0488
-0.0976,0.07076,-0.04392,0.00488,0.05368,-0.07564,0.02928,-0.01464,-0.01464,-0.08296,-0.05368,-0.03904
-0.10248,0.07564,-0.0488,0.00244,0.05368,-0.07808,0.02928,-0.01464,-0.01464,-0.08296,-0.05368,-0.02928
-0.09272,0.061,-0.02928,0.01708,0.06344,-0.07808,0.03904,-0.00488,-0.00488,-0.06344,-0.04392,-0.0244
-0.08296,0.05124,-0.01952,0.02196,0.06344,-0.0732,0.04392,-0.00488,0.00488,-0.06832,-0.04392,-0.02928
-0.08296,0.04636,-0.00976,0.03172,0.0732,-0.07808,0.03904,-0.01952,-0.00488,-0.0732,-0.05368,-0.01952
-0.07808,0.04392,-0.00976,0.02928,0.06832,-0.0732,0.03416,-0.01952,-0.01464,-0.07808,-0.05368,-0.01952
-0.08296,0.05124,-0.01952,0.02196,0.06344,-0.0732,0.02928,-0.00488,-0.01464,-0.06832,-0.0488,-0.0244
-0.08784,0.05368,-0.01952,0.0244,0.06832,-0.07808,0.02928,-0.00488,-0.01464,-0.06832,-0.0488,-0.0244
-0.09272,0.061,-0.02928,0.01708,0.06344,-0.07808,0.01952,-0.01952,-0.0244,-0.0732,-0.0488,-0.03904
-0.09272,0.061,-0.02928,0.01708,0.06344,-0.07808,0.01952,-0.01952,-0.02928,-0.0732,-0.05368,-0.0488
-0.09272,0.06588,-0.03904,0.00732,0.05368,-0.0732,0.02928,-0.01952,-0.01952,-0.06832,-0.0488,-0.03904
-0.09272,0.07076,-0.0488,-0.00244,0.04392,-0.06832,0.02928,-0.01952,-0.00488,-0.06832,-0.04392,-0.03416
-0.0732,0.05124,-0.02928,0.00732,0.04392,-0.05856,0.02928,-0.01952,-0.01952,-0.07808,-0.05368,-0.03904
-0.0732,0.05856,-0.04392,-0.00732,0.02928,-0.05124,0.02928,-0.01464,-0.01464,-0.07808,-0.05368,-0.03904
-0.08784,0.05856,-0.02928,0.01464,0.05856,-0.0732,0.03904,-0.0244,-0.01952,-0.06832,-0.05856,-0.03416
-0.0976,0.05856,-0.01952,0.02928,0.07808,-0.08784,0.03904,-0.02928,-0.01952,-0.06832,-0.05856,-0.03416
-0.08784,0.05368,-0.01952,0.0244,0.06832,-0.07808,0.0244,-0.01952,-0.01464,-0.0732,-0.0488,-0.03416
-0.08784,0.05368,-0.01952,0.0244,0.06832,-0.07808,0.0244,-0.01952,-0.00976,-0.0732,-0.0488,-0.03904
-0.07808,0.05368,-0.02928,0.00976,0.0488,-0.06344,0.02928,-0.01952,-0.01952,-0.07808,-0.0488,-0.03416
-0.08296,0.05612,-0.02928,0.0122,0.05368,-0.06832,0.0244,-0.01952,-0.01952,-0.0732,-0.0488,-0.03416
-0.10736,0.0732,-0.03904,0.01464,0.06832,-0.08784,0.02928,-0.00976,-0.01952,-0.08296,-0.06344,-0.03416
-0.10736,0.06832,-0.02928,0.0244,0.07808,-0.09272,0.02928,-0.01952,-0.00976,-0.07808,-0.05856,-0.03904
-0.10736,0.06832,-0.02928,0.0244,0.07808,-0.09272,0.02928,-0.01952,-0.00976,-0.07808,-0.05856,-0.03904
-0.10248,0.061,-0.01952,0.03172,0.08296,-0.09272,0.02928,-0.00976,-0.00976,-0.06832,-0.0488,-0.03416
-0.09272,0.05612,-0.01952,0.02684,0.0732,-0.08296,0.02928,-0.00976,-0.00976,-0.06832,-0.0488,-0.0244
-0.0976,0.05856,-0.01952,0.02928,0.07808,-0.08784,0.02928,-0.01952,-0.00976,-0.06832,-0.05856,-0.0244
-0.0976,0.05856,-0.01952,0.02928,0.07808,-0.08784,0.02928,-0.01952,-0.00976,-0.06832,-0.05856,-0.03416
-0.0976,0.06344,-0.02928,0.01952,0.06832,-0.08296,0.02928,-0.01952,-0.00976,-0.06832,-0.05856,-0.02928
-0.0976,0.06344,-0.02928,0.01952,0.06832,-0.08296,0.02928,-0.01952,-0.00976,-0.06832,-0.05856,-0.02928
-0.08784,0.05856,-0.02928,0.01464,0.05856,-0.0732,0.03904,-0.00976,-0.00976,-0.06832,-0.0488,-0.02928
-0.08784,0.05856,-0.02928,0.01464,0.05856,-0.0732,0.03904,-0.00976,-0.00976,-0.06832,-0.0488,-0.02928
-0.0976,0.06344,-0.02928,0.01952,0.06832,-0.08296,0.03904,-0.00976,-0.00976,-0.06832,-0.0488,-0.02928
-0.0976,0.06344,-0.02928,0.01952,0.06832,-0.08296,0.03904,-0.00976,-0.00976,-0.06832,-0.0488,-0.02928
-0.09272,0.05612,-0.01952,0.02684,0.0732,-0.08296,0.03904,-0.01952,-0.00976,-0.07808,-0.05856,-0.02928
-0.08296,0.05124,-0.01952,0.02196,0.06344,-0.0732,0.03904,-0.01952,-0.00976,-0.07808,-0.05856,-0.02928
-0.08296,0.05612,-0.02928,0.0122,0.05368,-0.06832,0.03904,-0.01952,-0.00976,-0.06832,-0.0488,-0.02928
-0.09272,0.061,-0.02928,0.01708,0.06344,-0.07808,0.03904,-0.01952,-0.00976,-0.06832,-0.0488,-0.02928
-0.0976,0.06344,-0.02928,0.01952,0.06832,-0.08296,0.03904,-0.01952,-0.00976,-0.07808,-0.0488,-0.02928
-0.0976,0.06344,-0.02928,0.01952,0.06832,-0.08296,0.03904,-0.01952,-0.00976,-0.07808,-0.0488,-0.02928
-0.08784,0.05856,-0.02928,0.01464,0.05856,-0.0732,0.02928,-0.02928,-0.01952,-0.07808,-0.05856,-0.02928
-0.08784,0.05856,-0.02928,0.01464,0.05856,-0.0732,0.02928,-0.02928,-0.01952,-0.07808,-0.05856,-0.02928
-0.08784,0.05368,-0.01952,0.0244,0.06832,-0.07808,0.02928,-0.01952,-0.00976,-0.06832,-0.0488,-0.02928
-0.08784,0.05856,-0.02928,0.01464,0.05856,-0.0732,0.02928,-0.01952,-0.00976,-0.06832,-0.0488,-0.02928
-0.09272,0.06832,-0.04392,0.00244,0.0488,-0.07076,0.03904,-0.01952,-0.00976,-0.0732,-0.0488,-0.02928
-0.0976,0.06832,-0.03904,0.00976,0.05856,-0.07808,0.03904,-0.01952,-0.00976,-0.06832,-0.05368,-0.02928
-0.10736,0.07808,-0.0488,0.00488,0.05856,-0.08296,0.0244,-0.03416,-0.00976,-0.0732,-0.05368,-0.03904
-0.11224,0.07808,-0.04392,0.0122,0.06832,-0.09028,0.0244,-0.02928,-0.01464,-0.0732,-0.05368,-0.03904
-0.09272,0.06344,-0.03416,0.0122,0.05856,-0.07564,0.03416,-0.02928,-0.00976,-0.06832,-0.05368,-0.02928
-0.08784,0.05856,-0.02928,0.01464,0.05856,-0.0732,0.03904,-0.0244,-0.00976,-0.06832,-0.05368,-0.02928
-0.08296,0.05856,-0.03416,0.00732,0.0488,-0.06588,0.03904,-0.01952,0,-0.06344,-0.0488,-0.01464
-0.08296,0.05856,-0.03416,0.00732,0.0488,-0.06588,0.03904,-0.00976,-0.00488,-0.06344,-0.03904,-0.01464
-0.07808,0.05368,-0.02928,0.00976,0.0488,-0.06344,0.0244,-0.00976,-0.01464,-0.06344,-0.04392,-0.0244
-0.0732,0.04636,-0.01952,0.01708,0.05368,-0.06344,0.0244,-0.01952,-0.00976,-0.05856,-0.03416,-0.01464
-0.06832,0.03416,0,0.03416,0.06832,-0.06832,0.02928,0,0.00976,-0.05368,-0.02928,-0.00976
-0.05368,0.01464,0.0244,0.05124,0.07808,-0.06588,0.02928,0.00976,0.01952,-0.04392,-0.0244,0
-0.03416,-0.00732,0.0488,0.06588,0.08296,-0.05856,0.05368,0.03416,0.02928,-0.02928,-0.00976,0.01952
-0.0244,-0.01708,0.05856,0.07076,0.08296,-0.05368,0.06344,0.03416,0.03416,-0.0244,0,0.01952
-0.02928,-0.00976,0.0488,0.06344,0.07808,-0.05368,0.06344,0.0244,0.03904,-0.0244,-0.01464,0.01464
-0.03416,-0.00488,0.04392,0.061,0.07808,-0.05612,0.06832,0.0244,0.03416,-0.03416,-0.01464,0.01464
-0.0488,0.00732,0.03416,0.05856,0.08296,-0.06588,0.05856,0.00976,0.01952,-0.04392,-0.0244,-0.00488
-0.04392,0.00976,0.0244,0.04636,0.06832,-0.05612,0.03904,-0.01464,0.00488,-0.05856,-0.03416,-0.01464
-0.02928,0.00732,0.01464,0.02928,0.04392,-0.0366,0.02928,-0.01464,-0.00488,-0.05368,-0.02928,-0.00488
-0.02928,0.0122,0.00488,0.01952,0.03416,-0.03172,0.00488,-0.0244,-0.01464,-0.06344,-0.03904,-0.00488
-0.02928,0.00976,0.00976,0.0244,0.03904,-0.03416,-0.01464,-0.03416,-0.0244,-0.06832,-0.04392,-0.00976
-0.03904,0.0122,0.01464,0.03416,0.05368,-0.04636,-0.01464,-0.03904,-0.02928,-0.0732,-0.04392,-0.01464
-0.05368,0.02928,-0.00488,0.02196,0.0488,-0.05124,0,-0.03416,-0.01952,-0.06832,-0.03904,-0.00488
-0.06344,0.0366,-0.00976,0.02196,0.05368,-0.05856,0.01952,-0.02928,-0.01952,-0.06832,-0.03904,-0.00976
-0.06832,0.04636,-0.0244,0.00976,0.04392,-0.05612,0.0244,-0.03416,-0.0244,-0.07808,-0.04392,-0.01952
-0.07808,0.05368,-0.02928,0.00976,0.0488,-0.06344,0.0244,-0.03416,-0.01952,-0.07808,-0.04392,-0.01952
-0.08784,0.05124,-0.01464,0.02928,0.0732,-0.08052,0.03416,-0.01952,-0.01952,-0.0732,-0.05368,-0.0244
-0.0976,0.061,-0.0244,0.0244,0.0732,-0.0854,0.02928,-0.03416,-0.02928,-0.07808,-0.05368,-0.03416
-0.08296,0.0488,-0.01464,0.02684,0.06832,-0.07564,0.0244,-0.04392,-0.01952,-0.07808,-0.05368,-0.02928
-0.0732,0.04392,-0.01464,0.02196,0.05856,-0.06588,0.0244,-0.04392,-0.0244,-0.08296,-0.05368,-0.0244
-0.06832,0.04148,-0.01464,0.01952,0.05368,-0.061,0.0244,-0.03904,-0.01952,-0.07808,-0.04392,-0.0244
-0.0732,0.04636,-0.01952,0.01708,0.05368,-0.06344,0.0244,-0.02928,-0.01952,-0.06344,-0.04392,-0.0244
-0.08296,0.05124,-0.01952,0.02196,0.06344,-0.0732,0.02928,-0.03416,-0.01952,-0.06832,-0.05856,-0.03416
-0.08784,0.05856,-0.02928,0.01464,0.05856,-0.0732,0.02928,-0.03416,-0.01952,-0.06832,-0.05856,-0.03416
-0.11224,0.07564,-0.03904,0.01708,0.0732,-0.09272,0.02928,-0.03416,-0.01952,-0.07808,-0.05856,-0.04392
-0.09272,0.05612,-0.01952,0.02684,0.0732,-0.08296,0.02928,-0.03416,-0.01952,-0.06832,-0.0488,-0.02928
-0.0976,0.03904,0.01952,0.06832,0.11712,-0.10736,0.03904,-0.0244,-0.00488,-0.06344,-0.04392,-0.01952
-0.11712,0.0366,0.04392,0.10248,0.16104,-0.13908,0.08296,0.01952,0.05856,-0.00488,0,0.00976
-0.12688,0.0122,0.10248,0.16592,0.22936,-0.17812,0.1464,0.0976,0.1464,0.0732,0.06832,0.0488
-0.15616,0.01952,0.11712,0.1952,0.27328,-0.21472,0.18544,0.19032,0.24888,0.1708,0.15128,0.10248
-0.10736,-0.0122,0.13176,0.18544,0.23912,-0.17324,0.19032,0.28304,0.34648,0.27328,0.25376,0.1708
0.0244,-0.07564,0.12688,0.11468,0.10248,-0.03904,0.15128,0.38552,0.37576,0.3416,0.30744,0.21472
0.23912,-0.183,0.12688,0.00732,-0.11224,0.17568,0.05368,0.42944,0.38552,0.37576,0.3416,0.2684
0.4148,-0.25864,0.10248,-0.10492,-0.31232,0.36356,-0.10248,0.31232,0.35136,0.4148,0.40504,0.36112
0.5368,-0.33428,0.13176,-0.13664,-0.40504,0.47092,-0.20984,0.18056,0.2928,0.366,0.39528,0.38064
0.66856,-0.34892,0.02928,-0.305,-0.63928,0.65392,-0.37088,-0.11224,0.01464,0.09272,0.13664,0.23424
0.73688,-0.32208,-0.09272,-0.46116,-0.8296,0.78324,-0.50752,-0.366,-0.28304,-0.20984,-0.15616,0.06344
0.7076,-0.26596,-0.17568,-0.52948,-0.88328,0.79544,-0.6588,-0.62464,-0.54168,-0.4148,-0.29768,-0.04392
0.54656,-0.1464,-0.25376,-0.52704,-0.80032,0.67344,-0.71736,-0.92232,-0.78568,-0.62952,-0.4636,-0.16104
0.35624,-0.02196,-0.31232,-0.49044,-0.66856,0.5124,-0.71736,-1.1468,-0.96136,-0.81008,-0.6344,-0.2928
0.27816,0.03904,-0.35624,-0.49532,-0.6344,0.45628,-0.67344,-1.10288,-0.97112,-0.84424,-0.66368,-0.33672
0.23912,0.03904,-0.3172,-0.43676,-0.55632,0.39772,-0.57584,-0.96136,-0.89304,-0.81984,-0.64904,-0.3416
0.15128,0.08052,-0.31232,-0.38796,-0.4636,0.30744,-0.41968,-0.71248,-0.69784,-0.66856,-0.54656,-0.29768
0.05368,0.08784,-0.22936,-0.2562,-0.28304,0.16836,-0.27816,-0.50752,-0.49776,-0.50264,-0.4148,-0.2196
-0.01952,0.08784,-0.15616,-0.1464,-0.13664,0.05856,-0.14152,-0.31232,-0.30744,-0.32208,-0.26352,-0.16104
-0.01464,0.07076,-0.12688,-0.11956,-0.11224,0.0488,-0.09272,-0.23424,-0.20984,-0.24888,-0.1952,-0.11224
-0.0244,0.06588,-0.10736,-0.09516,-0.08296,0.02928,-0.08784,-0.17568,-0.1708,-0.21472,-0.16592,-0.09272
-0.02928,0.04636,-0.06344,-0.0488,-0.03416,0.00244,-0.0488,-0.0976,-0.11712,-0.16592,-0.13176,-0.0732
-0.03416,0.03172,-0.02928,-0.0122,0.00488,-0.01952,-0.00488,-0.06344,-0.05368,-0.10736,-0.08784,-0.0488
-0.03416,0.0244,-0.01464,0.00244,0.01952,-0.02684,-0.00488,-0.06344,-0.05856,-0.11224,-0.08784,-0.03904
-0.03904,0.02684,-0.01464,0.00488,0.0244,-0.03172,0,-0.05368,-0.0488,-0.11224,-0.09272,-0.04392
-0.05368,0.04148,-0.02928,-0.00244,0.0244,-0.03904,0.00976,-0.03416,-0.0488,-0.10248,-0.08296,-0.04392
-0.05856,0.04148,-0.0244,0.00488,0.03416,-0.04636,0.00976,-0.0244,-0.04392,-0.0976,-0.07808,-0.03904
-0.05368,0.03904,-0.0244,0.00244,0.02928,-0.04148,0.00488,-0.02928,-0.03904,-0.08784,-0.06832,-0.03416
-0.05368,0.0366,-0.01952,0.00732,0.03416,-0.04392,0.01464,-0.01952,-0.03416,-0.08784,-0.06832,-0.03416
-0.06344,0.04636,-0.02928,0.00244,0.03416,-0.0488,0.0244,-0.01952,-0.03904,-0.08784,-0.06832,-0.03904
-0.07808,0.05124,-0.0244,0.01464,0.05368,-0.06588,0.02928,-0.01952,-0.03416,-0.08296,-0.06832,-0.03904
-0.06832,0.04148,-0.01464,0.01952,0.05368,-0.061,0.01952,-0.0244,-0.0244,-0.07808,-0.06344,-0.02928
-0.06832,0.0366,-0.00488,0.02928,0.06344,-0.06588,0.01952,-0.01952,-0.01464,-0.07808,-0.05856,-0.02928
-0.06344,0.04392,-0.0244,0.00732,0.03904,-0.05124,0.0244,-0.01464,-0.0244,-0.07808,-0.05368,-0.02928
-0.05368,0.04148,-0.02928,-0.00244,0.0244,-0.03904,0.0244,-0.00976,-0.01952,-0.07808,-0.05368,-0.0244
-0.06344,0.04636,-0.02928,0.00244,0.03416,-0.0488,0.0244,-0.00976,-0.00976,-0.07808,-0.05368,-0.02928
-0.0732,0.05124,-0.02928,0.00732,0.04392,-0.05856,0.0244,-0.01464,-0.00976,-0.07808,-0.05368,-0.02928
-0.07808,0.05124,-0.0244,0.01464,0.05368,-0.06588,0.0244,0,-0.01952,-0.07808,-0.05368,-0.02928
-0.06344,0.04392,-0.0244,0.00732,0.03904,-0.05124,0.0244,0,-0.01952,-0.07808,-0.05368,-0.02928
-0.06344,0.03904,-0.01464,0.01708,0.0488,-0.05612,0.01952,-0.00488,-0.01464,-0.0732,-0.05856,-0.03416
-0.06832,0.04148,-0.01464,0.01952,0.05368,-0.061,0.02928,0,-0.01464,-0.06832,-0.06344,-0.03416
-0.05856,0.04148,-0.0244,0.00488,0.03416,-0.04636,0.02928,0,-0.01464,-0.0732,-0.05856,-0.0244
-0.0488,0.03904,-0.02928,-0.00488,0.01952,-0.03416,0.02928,0,-0.01464,-0.0732,-0.0488,-0.0244
-0.0488,0.0366,-0.0244,0,0.0244,-0.0366,0.0244,0,-0.01464,-0.0732,-0.05856,-0.03416
-0.05856,0.04392,-0.02928,0,0.02928,-0.04392,0.0244,0,-0.01464,-0.0732,-0.05856,-0.03416
-0.05856,0.04148,-0.0244,0.00488,0.03416,-0.04636,0.02928,0,-0.00976,-0.07808,-0.05856,-0.03416
-0.05368,0.04148,-0.02928,-0.00244,0.0244,-0.03904,0.0244,0,-0.01464,-0.07808,-0.05856,-0.03416
-0.05856,0.0366,-0.01464,0.01464,0.04392,-0.05124,0.03416,0.01464,-0.00488,-0.06832,-0.0488,-0.0244
-0.05368,0.02928,-0.00488,0.02196,0.0488,-0.05124,0.03904,0.01464,-0.00488,-0.06832,-0.0488,-0.0244
-0.05368,0.02928,-0.00488,0.02196,0.0488,-0.05124,0.03416,0.00488,0,-0.06832,-0.05856,-0.03416
-0.05368,0.03172,-0.00976,0.01708,0.04392,-0.0488,0.03904,0.00488,0,-0.06832,-0.05856,-0.02928
-0.06832,0.04392,-0.01952,0.01464,0.0488,-0.05856,0.02928,0.01952,-0.00976,-0.06832,-0.0488,-0.01952
-0.06832,0.04148,-0.01464,0.01952,0.05368,-0.061,0.02928,0.01952,-0.00976,-0.06832,-0.04392,-0.01952
-0.06832,0.04148,-0.01464,0.01952,0.05368,-0.061,0.02928,0.02928,-0.00488,-0.06832,-0.05368,-0.01952
-0.05856,0.0366,-0.01464,0.01464,0.04392,-0.05124,0.02928,0.03416,-0.00488,-0.06344,-0.0488,-0.01952
-0.0488,0.02928,-0.00976,0.01464,0.03904,-0.04392,0.0244,0.02928,-0.00488,-0.06344,-0.03904,-0.01952
-0.03904,0.02196,-0.00488,0.01464,0.03416,-0.0366,0.0244,0.01952,-0.00488,-0.06344,-0.03904,-0.01952
-0.02928,0.00976,0.00976,0.0244,0.03904,-0.03416,0.0244,0.02928,0.00976,-0.05368,-0.0488,-0.01952
-0.03904,0.0122,0.01464,0.03416,0.05368,-0.04636,0.01952,0.02928,0.00488,-0.05368,-0.0488,-0.01952
-0.03416,0.01708,0,0.01708,0.03416,-0.03416,0.01952,0.03416,-0.00488,-0.06344,-0.04392,-0.0244
-0.04392,0.02684,-0.00976,0.0122,0.03416,-0.03904,0.01952,0.03416,0,-0.05856,-0.04392,-0.01952
-0.02928,0.02196,-0.01464,0,0.01464,-0.02196,0.01952,0.04392,0,-0.05856,-0.04392,-0.01952
-0.02928,0.02196,-0.01464,0,0.01464,-0.02196,0.01464,0.04392,0.00488,-0.05368,-0.03904,-0.01952
-0.01952,0.0122,-0.00488,0.00488,0.01464,-0.01708,0.01464,0.03904,0.00976,-0.0488,-0.0244,-0.01464
-0.01464,0.00244,0.00976,0.01708,0.0244,-0.01952,0.01952,0.04392,0.00976,-0.0488,-0.0244,-0.00976
-0.01464,0.00244,0.00976,0.01708,0.0244,-0.01952,0.00976,0.05368,0.01464,-0.03416,-0.03416,-0.01464
-0.01464,0.00488,0.00488,0.0122,0.01952,-0.01708,0.00976,0.05856,0.01464,-0.03416,-0.02928,-0.01464
0.00976,-0.0122,0.01464,0.00976,0.00488,0.00244,0.00976,0.06832,0.01464,-0.04392,-0.02928,0
0.00976,-0.0122,0.01464,0.00976,0.00488,0.00244,0.00488,0.06832,0.01952,-0.03904,-0.02928,-0.00976
0.0244,-0.01952,0.01464,0.00244,-0.00976,0.01708,0.00488,0.0732,0.0244,-0.02928,-0.01464,0.01464
0.03416,-0.02928,0.0244,0.00732,-0.00976,0.02196,0.00488,0.08784,0.0244,-0.0244,-0.00976,0.01464
0.0244,-0.01708,0.00976,-0.00244,-0.01464,0.01952,0,0.08784,0.0244,-0.0244,-0.01952,0.01952
0.02928,-0.01708,0.00488,-0.00976,-0.0244,0.02684,-0.00976,0.0976,0.03416,-0.01464,-0.00976,0.0244
0.05368,-0.04148,0.02928,0.00244,-0.0244,0.03904,-0.01464,0.09272,0.03416,-0.0244,-0.00976,0.0244
0.08784,-0.07076,0.05368,0.00976,-0.03416,0.061,-0.00976,0.10248,0.03416,-0.01464,-0.00488,0.02928
0.09272,-0.07076,0.0488,0.00244,-0.04392,0.06832,-0.01952,0.11712,0.0488,-0.00488,0.00976,0.02928
0.09272,-0.06588,0.03904,-0.00732,-0.05368,0.0732,-0.0244,0.122,0.05368,0.00976,0.01952,0.04392
0.09272,-0.06344,0.03416,-0.0122,-0.05856,0.07564,-0.03416,0.12688,0.05856,0.00488,0.01952,0.0488
0.10736,-0.07564,0.04392,-0.00976,-0.06344,0.0854,-0.03904,0.13176,0.05856,0.00488,0.01952,0.05856
0.11712,-0.08052,0.04392,-0.01464,-0.0732,0.09516,-0.02928,0.12688,0.06832,0.01464,0.0244,0.06832
0.13176,-0.09028,0.0488,-0.01708,-0.08296,0.10736,-0.03904,0.13176,0.06832,0.01464,0.03416,0.06832
0.15128,-0.1098,0.06832,-0.00732,-0.08296,0.11712,-0.04392,0.15128,0.06832,0.03416,0.04392,0.08296
0.17568,-0.12932,0.08296,-0.00488,-0.09272,0.1342,-0.04392,0.15616,0.07808,0.03416,0.0488,0.0976
0.1952,-0.14396,0.09272,-0.00488,-0.10248,0.14884,-0.04392,0.16592,0.08296,0.02928,0.05856,0.08784
0.20496,-0.15372,0.10248,0,-0.10248,0.15372,-0.0488,0.16592,0.08296,0.03904,0.05856,0.09272
0.20008,-0.1464,0.09272,-0.00732,-0.10736,0.15372,-0.0488,0.1708,0.08296,0.04392,0.06832,0.08784
0.1952,-0.14152,0.08784,-0.00976,-0.10736,0.15128,-0.0488,0.17568,0.08784,0.05368,0.05856,0.09272
0.20008,-0.14396,0.08784,-0.0122,-0.11224,0.15616,-0.04392,0.16592,0.0976,0.05368,0.0732,0.0976
0.19032,-0.1342,0.07808,-0.01708,-0.11224,0.15128,-0.03904,0.16592,0.10248,0.0488,0.07808,0.0976
0.17568,-0.12688,0.07808,-0.00976,-0.0976,0.13664,-0.03904,0.16592,0.10736,0.05856,0.06832,0.0976
0.15616,-0.11468,0.0732,-0.00488,-0.08296,0.11956,-0.0244,0.16592,0.11224,0.05856,0.06832,0.0976
0.15616,-0.11956,0.08296,0.00488,-0.0732,0.11468,-0.01952,0.16592,0.11224,0.05856,0.06832,0.09272
0.1464,-0.11468,0.08296,0.00976,-0.06344,0.10492,-0.01952,0.15616,0.11224,0.05856,0.06344,0.08296
0.10736,-0.0854,0.06344,0.00976,-0.04392,0.07564,-0.00488,0.14152,0.10248,0.0488,0.05856,0.07808
0.08296,-0.06588,0.0488,0.00732,-0.03416,0.05856,0.00488,0.13176,0.10736,0.03904,0.05368,0.0732
0.06344,-0.05612,0.0488,0.01708,-0.01464,0.03904,0.01464,0.122,0.10248,0.0244,0.04392,0.05368
0.03904,-0.0366,0.03416,0.01464,-0.00488,0.02196,0.0244,0.11712,0.0976,0.0244,0.04392,0.0488
0.04392,-0.04392,0.04392,0.02196,0,0.02196,0.01952,0.09272,0.07808,0.01952,0.03416,0.03904
0.02928,-0.03416,0.03904,0.0244,0.00976,0.00976,0.02928,0.08784,0.07808,0.00976,0.02928,0.03416
0,-0.0122,0.0244,0.0244,0.0244,-0.0122,0.02928,0.07808,0.08296,0,0.02928,0.03416
-0.00976,-0.00976,0.02928,0.03416,0.03904,-0.0244,0.03416,0.0732,0.0732,0,0.01952,0.0244
-0.01952,0,0.01952,0.02928,0.03904,-0.02928,0.03416,0.05856,0.06344,0,0.00976,0.01952
-0.03416,0.0122,0.00976,0.02684,0.04392,-0.03904,0.02928,0.05368,0.05856,0,0,0.00976
-0.03904,0.01952,0,0.01952,0.03904,-0.03904,0.02928,0.06344,0.05856,-0.01464,0,0.00976
-0.03904,0.01464,0.00976,0.02928,0.0488,-0.04392,0.03416,0.05856,0.05856,-0.01464,0,0.00976
-0.01952,0.00488,0.00976,0.01952,0.02928,-0.0244,0.0244,0.03904,0.03904,-0.0244,-0.00976,0
-0.03904,0.01464,0.00976,0.02928,0.0488,-0.04392,0.0244,0.03904,0.03904,-0.0244,-0.00976,-0.00488
-0.04392,0.02196,0,0.02196,0.04392,-0.04392,0.03416,0.03904,0.03904,-0.02928,-0.00488,0
-0.04392,0.01708,0.00976,0.03172,0.05368,-0.0488,0.03416,0.03904,0.03904,-0.03416,-0.00488,0.00976
-0.04392,0.01952,0.00488,0.02684,0.0488,-0.04636,0.01952,0.02928,0.02928,-0.04392,-0.01952,-0.00488
-0.06832,0.0366,-0.00488,0.02928,0.06344,-0.06588,0.0244,0.02928,0.02928,-0.04392,-0.03416,-0.01464
-0.06344,0.0366,-0.00976,0.02196,0.05368,-0.05856,0.03416,0.03416,0.03416,-0.03904,-0.02928,-0.01464
-0.06344,0.0366,-0.00976,0.02196,0.05368,-0.05856,0.03416,0.02928,0.02928,-0.03904,-0.01952,-0.01464
-0.04392,0.0244,-0.00488,0.01708,0.03904,-0.04148,0.03416,0.0244,0.01952,-0.04392,-0.02928,-0.00976
-0.03416,0.01952,-0.00488,0.0122,0.02928,-0.03172,0.03904,0.01464,0.01952,-0.04392,-0.03416,-0.00976
-0.04392,0.01952,0.00488,0.02684,0.0488,-0.04636,0.03416,0.02928,0.02928,-0.0488,-0.02928,-0.00976
-0.04392,0.01952,0.00488,0.02684,0.0488,-0.04636,0.03416,0.02928,0.02928,-0.0488,-0.02928,-0.00976
-0.05856,0.02928,0,0.02928,0.05856,-0.05856,0.03416,0.02928,0.01952,-0.0488,-0.03416,-0.00976
-0.06832,0.03416,0,0.03416,0.06832,-0.06832,0.03904,0.02928,0.01952,-0.0488,-0.03904,-0.01464
-0.05856,0.03416,-0.00976,0.01952,0.0488,-0.05368,0.0244,0.01952,0.01952,-0.0488,-0.03904,-0.00976
-0.05856,0.03904,-0.01952,0.00976,0.03904,-0.0488,0.02928,0.01952,0.01952,-0.0488,-0.03904,-0.00976
-0.05368,0.03172,-0.00976,0.01708,0.04392,-0.0488,0.02928,0.0244,0.01952,-0.04392,-0.03904,-0.01952
-0.04392,0.0244,-0.00488,0.01708,0.03904,-0.04148,0.03416,0.02928,0.01952,-0.04392,-0.03416,-0.01952
-0.06344,0.03904,-0.01464,0.01708,0.0488,-0.05612,0.02928,0.01464,0.01952,-0.05368,-0.03904,-0.01952
-0.06832,0.04148,-0.01464,0.01952,0.05368,-0.061,0.02928,0.01464,0.01952,-0.05856,-0.03904,-0.01952
-0.05368,0.02928,-0.00488,0.02196,0.0488,-0.05124,0.03904,0.0244,0.01952,-0.05368,-0.02928,-0.00976
-0.05856,0.03172,-0.00488,0.0244,0.05368,-0.05612,0.03416,0.0244,0.01464,-0.05368,-0.02928,-0.01464
-0.06344,0.03416,-0.00488,0.02684,0.05856,-0.061,0.03904,0.0244,0.01464,-0.05368,-0.03416,-0.00976
-0.05856,0.03172,-0.00488,0.0244,0.05368,-0.05612,0.03904,0.02928,0.01952,-0.0488,-0.01952,-0.00976
-0.0732,0.04392,-0.01464,0.02196,0.05856,-0.06588,0.03904,0.0244,0.01952,-0.0488,-0.02928,-0.00976
-0.0732,0.0488,-0.0244,0.0122,0.0488,-0.061,0.03904,0.0244,0.01952,-0.04392,-0.03416,-0.00976
-0.05856,0.03416,-0.00976,0.01952,0.0488,-0.05368,0.03904,0.0244,0.01952,-0.04392,-0.0244,-0.01952
-0.04392,0.02196,0,0.02196,0.04392,-0.04392,0.03904,0.0244,0.01952,-0.04392,-0.0244,-0.01952
-0.05856,0.02684,0.00488,0.03416,0.06344,-0.061,0.0488,0.03416,0.02928,-0.03904,-0.01464,-0.00976
-0.06344,0.02928,0.00488,0.0366,0.06832,-0.06588,0.0488,0.03416,0.02928,-0.03416,-0.01464,0.00488
-0.06832,0.0366,-0.00488,0.02928,0.06344,-0.06588,0.03904,0.0244,0.01952,-0.04392,-0.01952,0.00488
-0.07808,0.04148,-0.00488,0.03416,0.0732,-0.07564,0.03904,0.01952,0.01952,-0.04392,-0.01952,0.00488
-0.06344,0.0366,-0.00976,0.02196,0.05368,-0.05856,0.03904,0.01952,0.01952,-0.0488,-0.01952,-0.00488
-0.05856,0.03172,-0.00488,0.0244,0.05368,-0.05612,0.03904,0.01952,0.01464,-0.0488,-0.0244,-0.00488
-0.0488,0.02684,-0.00488,0.01952,0.04392,-0.04636,0.03416,0.01952,0.00488,-0.05856,-0.02928,-0.01464
-0.04392,0.0244,-0.00488,0.01708,0.03904,-0.04148,0.03416,0.01952,0.00488,-0.05368,-0.0244,-0.01464
-0.03416,0.01708,0,0.01708,0.03416,-0.03416,0.03416,0.02928,0.01952,-0.04392,-0.0244,-0.00488
-0.05368,0.02684,0,0.02684,0.05368,-0.05368,0.03416,0.02928,0.02928,-0.03416,-0.01952,0.00488
-0.06344,0.02684,0.00976,0.04148,0.0732,-0.06832,0.02928,0.0244,0.01952,-0.04392,-0.00976,0.00976
-0.0732,0.0366,0,0.0366,0.0732,-0.0732,0.02928,0.0244,0.00976,-0.0488,-0.01952,0.00976
-0.0732,0.03904,-0.00488,0.03172,0.06832,-0.07076,0.03904,0.01952,0.01464,-0.0488,-0.02928,0
-0.0732,0.04148,-0.00976,0.02684,0.06344,-0.06832,0.03416,0.01952,0.01464,-0.04392,-0.01952,0
-0.06832,0.03904,-0.00976,0.0244,0.05856,-0.06344,0.03416,0.00976,0.00976,-0.04392,-0.01952,-0.00976
-0.0732,0.04148,-0.00976,0.02684,0.06344,-0.06832,0.03416,0.00488,0.00488,-0.05368,-0.0244,-0.00976
-0.05856,0.03172,-0.00488,0.0244,0.05368,-0.05612,0.03416,0.01464,0.00976,-0.05368,-0.01952,-0.00976
-0.06344,0.03172,0,0.03172,0.06344,-0.06344,0.03416,0.01464,0.01952,-0.0488,-0.01952,-0.00976
-0.0488,0.01952,0.00976,0.03416,0.05856,-0.05368,0.02928,0.01464,0.01952,-0.05368,-0.0244,-0.00488
-0.0488,0.0122,0.0244,0.0488,0.0732,-0.061,0.02928,0.00976,0.01952,-0.05368,-0.01952,0
-0.06832,0.02928,0.00976,0.04392,0.07808,-0.0732,0.03416,0.00976,0.00976,-0.0488,-0.0244,0
-0.0732,0.04148,-0.00976,0.02684,0.06344,-0.06832,0.03904,0.00976,0.01464,-0.0488,-0.0244,0
-0.06832,0.03172,0.00488,0.03904,0.0732,-0.07076,0.0244,0,0.00976,-0.0488,-0.0244,-0.00976
-0.06832,0.03172,0.00488,0.03904,0.0732,-0.07076,0.01952,0,0.00976,-0.0488,-0.0244,-0.00976
-0.05856,0.02684,0.00488,0.03416,0.06344,-0.061,0.01952,0.00488,0.00488,-0.05368,-0.0244,0
-0.06832,0.03416,0,0.03416,0.06832,-0.06832,0.01952,0.00488,0,-0.05368,-0.0244,-0.00488
-0.0732,0.0366,0,0.0366,0.0732,-0.0732,0.02928,-0.00488,0.00488,-0.05368,-0.02928,-0.00488
-0.07808,0.03904,0,0.03904,0.07808,-0.07808,0.03416,-0.00976,0.00488,-0.05856,-0.02928,-0.00488
-0.0732,0.03416,0.00488,0.04148,0.07808,-0.07564,0.03416,0,0.00488,-0.05368,-0.03416,-0.00488
-0.0732,0.03416,0.00488,0.04148,0.07808,-0.07564,0.02928,0,0.00488,-0.05368,-0.02928,-0.00488
-0.06832,0.03904,-0.00976,0.0244,0.05856,-0.06344,0.02928,-0.00976,0,-0.05368,-0.02928,-0.00488
-0.06832,0.0366,-0.00488,0.02928,0.06344,-0.06588,0.03416,-0.00976,0.00488,-0.05368,-0.0244,-0.00488
-0.05856,0.02928,0,0.02928,0.05856,-0.05856,0.01952,-0.01952,-0.00488,-0.06832,-0.04392,-0.01464
-0.05856,0.02684,0.00488,0.03416,0.06344,-0.061,0.01952,-0.01952,-0.01464,-0.06832,-0.0488,-0.01464
-0.05368,0.02196,0.00976,0.0366,0.06344,-0.05856,0.01952,-0.01464,0,-0.05856,-0.03904,-0.01464
-0.06344,0.02928,0.00488,0.0366,0.06832,-0.06588,0.01952,-0.01464,-0.00488,-0.06344,-0.03416,-0.01464
-0.06344,0.03172,0,0.03172,0.06344,-0.06344,0.02928,-0.00488,-0.00488,-0.06344,-0.04392,-0.00488
-0.0488,0.02684,-0.00488,0.01952,0.04392,-0.04636,0.02928,-0.00488,0,-0.06344,-0.03904,-0.00488
-0.05856,0.03172,-0.00488,0.0244,0.05368,-0.05612,0.02928,-0.01464,-0.00488,-0.06344,-0.0488,-0.01464
-0.0732,0.03904,-0.00488,0.03172,0.06832,-0.07076,0.02928,-0.01464,-0.00488,-0.05856,-0.04392,-0.01952
-0.05856,0.03172,-0.00488,0.0244,0.05368,-0.05612,0.01952,-0.01464,-0.00488,-0.06344,-0.03416,-0.01952
-0.06344,0.0366,-0.00976,0.02196,0.05368,-0.05856,0.01952,-0.01464,-0.00488,-0.06344,-0.03416,-0.00976
-0.06344,0.03172,0,0.03172,0.06344,-0.06344,0.02928,-0.01464,-0.01464,-0.06344,-0.04392,-0.01464
-0.06344,0.03172,0,0.03172,0.06344,-0.06344,0.0244,-0.01464,-0.01464,-0.06832,-0.04392,-0.01952
-0.0732,0.04148,-0.00976,0.02684,0.06344,-0.06832,0.01952,-0.01952,-0.01464,-0.06344,-0.04392,-0.01952
-0.07808,0.04392,-0.00976,0.02928,0.06832,-0.0732,0.01464,-0.01952,-0.01464,-0.06832,-0.04392,-0.01952
-0.08296,0.05124,-0.01952,0.02196,0.06344,-0.0732,0.02928,-0.01464,-0.01464,-0.05856,-0.03904,-0.01464
-0.08784,0.05368,-0.01952,0.0244,0.06832,-0.07808,0.02928,-0.01464,-0.01464,-0.05856,-0.02928,-0.01464
-0.09272,0.05124,-0.00976,0.0366,0.08296,-0.08784,0.01952,-0.01952,-0.01464,-0.06344,-0.03904,-0.01952
-0.09272,0.04636,0,0.04636,0.09272,-0.09272,0.01952,-0.01952,-0.01952,-0.06344,-0.04392,-0.01952
-0.10248,0.061,-0.01952,0.03172,0.08296,-0.09272,0.01952,-0.02928,-0.01952,-0.06832,-0.03904,-0.01952
-0.10248,0.06588,-0.02928,0.02196,0.0732,-0.08784,0.01952,-0.02928,-0.01464,-0.06832,-0.03416,-0.01464
-0.0732,0.0366,0,0.0366,0.0732,-0.0732,0.00976,-0.01952,-0.01952,-0.06832,-0.03416,-0.01952
-0.05368,0.02928,-0.00488,0.02196,0.0488,-0.05124,0.00976,-0.01464,-0.01464,-0.06832,-0.03416,-0.01952
-0.05856,0.0244,0.00976,0.03904,0.06832,-0.06344,0.01952,-0.00488,-0.00976,-0.05856,-0.02928,-0.00488
-0.05856,0.0244,0.00976,0.03904,0.06832,-0.06344,0.02928,-0.00976,0,-0.05856,-0.02928,-0.00488
-0.05856,0.02928,0,0.02928,0.05856,-0.05856,0.01464,-0.01952,-0.01464,-0.0732,-0.03904,-0.01464
-0.05856,0.03416,-0.00976,0.01952,0.0488,-0.05368,0.01464,-0.01952,-0.00976,-0.0732,-0.03904,-0.02928
-0.05856,0.02928,0,0.02928,0.05856,-0.05856,0.01952,-0.01952,-0.00976,-0.06832,-0.02928,-0.01464
-0.06344,0.02684,0.00976,0.04148,0.0732,-0.06832,0.01464,-0.01952,-0.00976,-0.06344,-0.02928,-0.01464
-0.0976,0.05368,-0.00976,0.03904,0.08784,-0.09272,0.03904,-0.00976,0.00976,-0.05368,-0.01464,-0.00488
-0.06832,0.03904,-0.00976,0.0244,0.05856,-0.06344,0.03416,-0.01464,0.00488,-0.06832,-0.02928,-0.01952
-0.06832,0.03904,-0.00976,0.0244,0.05856,-0.06344,0.0244,-0.0244,-0.00488,-0.06832,-0.02928,-0.01952
-0.05856,0.03416,-0.00976,0.01952,0.0488,-0.05368,0.01952,-0.01952,-0.00976,-0.05856,-0.02928,-0.01952
-0.05856,0.03416,-0.00976,0.01952,0.0488,-0.05368,0.01952,-0.01952,-0.00976,-0.05856,-0.02928,-0.01952
-0.06832,0.03416,0,0.03416,0.06832,-0.06832,0.01952,-0.02928,0,-0.06832,-0.02928,-0.00976
-0.06832,0.03416,0,0.03416,0.06832,-0.06832,0.01952,-0.02928,0,-0.06832,-0.02928,-0.00976
-0.07808,0.04392,-0.00976,0.02928,0.06832,-0.0732,0.01952,-0.02928,-0.00976,-0.06832,-0.03904,-0.01952
-0.07808,0.04392,-0.00976,0.02928,0.06832,-0.0732,0.01952,-0.02928,-0.00976,-0.06832,-0.03904,-0.01952
-0.06832,0.03904,-0.00976,0.0244,0.05856,-0.06344,0.01952,-0.02928,0,-0.06832,-0.03904,-0.02928
-0.06832,0.03904,-0.00976,0.0244,0.05856,-0.06344,0.01952,-0.02928,0,-0.06832,-0.03904,-0.02928
-0.07808,0.0488,-0.01952,0.01952,0.05856,-0.06832,0.01952,-0.02928,-0.00976,-0.06832,-0.03904,-0.01952
-0.07808,0.0488,-0.01952,0.01952,0.05856,-0.06832,0.01952,-0.02928,-0.00976,-0.06832,-0.03904,-0.01952
-0.0732,0.04392,-0.01464,0.02196,0.05856,-0.06588,0.01952,-0.01952,0,-0.06832,-0.03904,-0.01952
-0.06344,0.03416,-0.00488,0.02684,0.05856,-0.061,0.01952,-0.01952,0,-0.06832,-0.03904,-0.01952
-0.05856,0.02928,0,0.02928,0.05856,-0.05856,0.01952,-0.01952,-0.00976,-0.05856,-0.03904,-0.01952
-0.05856,0.02928,0,0.02928,0.05856,-0.05856,0.01952,-0.01952,-0.00976,-0.05856,-0.03904,-0.01952
-0.05856,0.03416,-0.00976,0.01952,0.0488,-0.05368,0.01952,-0.02928,-0.00976,-0.05856,-0.03904,-0.02928
-0.05856,0.03416,-0.00976,0.01952,0.0488,-0.05368,0.01952,-0.02928,-0.00976,-0.05856,-0.03904,-0.02928
-0.06832,0.03904,-0.00976,0.0244,0.05856,-0.06344,0.01952,-0.01952,-0.00976,-0.06832,-0.03904,-0.01952
-0.06832,0.03904,-0.00976,0.0244,0.05856,-0.06344,0.01952,-0.01952,-0.00976,-0.06832,-0.03904,-0.01952
-0.06832,0.03904,-0.00976,0.0244,0.05856,-0.06344,0.02928,-0.01952,0,-0.05856,-0.03904,-0.02928
-0.06832,0.03904,-0.00976,0.0244,0.05856,-0.06344,0.02928,-0.01952,0,-0.05856,-0.03904,-0.02928
-0.05856,0.03904,-0.01952,0.00976,0.03904,-0.0488,0.01952,-0.01952,-0.00976,-0.06832,-0.0488,-0.02928
-0.05856,0.03904,-0.01952,0.00976,0.03904,-0.0488,0.01952,-0.01952,-0.00976,-0.06832,-0.0488,-0.02928
-0.06832,0.04392,-0.01952,0.01464,0.0488,-0.05856,0.01952,-0.01952,-0.00976,-0.06832,-0.03904,-0.02928
-0.06832,0.04392,-0.01952,0.01464,0.0488,-0.05856,0.01952,-0.01952,-0.00976,-0.06832,-0.03904,-0.02928
-0.07808,0.04392,-0.00976,0.02928,0.06832,-0.0732,0.02928,-0.02928,-0.00976,-0.05856,-0.03904,-0.01952
-0.07808,0.04392,-0.00976,0.02928,0.06832,-0.0732,0.02928,-0.02928,-0.00976,-0.05856,-0.03904,-0.01952
-0.0732,0.04148,-0.00976,0.02684,0.06344,-0.06832,0.01952,-0.02928,-0.01952,-0.06832,-0.03904,-0.02928
-0.06344,0.0366,-0.00976,0.02196,0.05368,-0.05856,0.01952,-0.02928,-0.01952,-0.06832,-0.03904,-0.02928
-0.06344,0.03904,-0.01464,0.01708,0.0488,-0.05612,0.01952,-0.02928,-0.01952,-0.06832,-0.0488,-0.02928
-0.0732,0.0488,-0.0244,0.0122,0.0488,-0.061,0.01952,-0.02928,-0.01952,-0.06832,-0.0488,-0.02928
-0.0732,0.0488,-0.0244,0.0122,0.0488,-0.061,0.02928,-0.01952,-0.00976,-0.05856,-0.04392,-0.01952
-0.05856,0.03904,-0.01952,0.00976,0.03904,-0.0488,0.02928,-0.01952,-0.00976,-0.06344,-0.03416,-0.01952
-0.06832,0.03416,0,0.03416,0.06832,-0.06832,0.02928,-0.01952,-0.00976,-0.05856,-0.03416,-0.01952
-0.06344,0.0366,-0.00976,0.02196,0.05368,-0.05856,0.0244,-0.0244,-0.00976,-0.06344,-0.03416,-0.01952
-0.06832,0.04148,-0.01464,0.01952,0.05368,-0.061,0.0244,-0.01952,-0.01464,-0.06344,-0.03416,-0.01952
-0.05368,0.03416,-0.01464,0.0122,0.03904,-0.04636,0.0244,-0.01952,-0.00976,-0.05856,-0.0244,-0.01952
-0.06832,0.03904,-0.00976,0.0244,0.05856,-0.06344,0.02928,-0.01464,0,-0.05856,-0.0244,-0.01952
-0.06832,0.0366,-0.00488,0.02928,0.06344,-0.06588,0.02928,-0.01464,0.00976,-0.05368,-0.0244,-0.01464
-0.05368,0.0244,0.00488,0.03172,0.05856,-0.05612,0.01952,-0.0244,-0.00488,-0.06344,-0.03416,-0.0244
-0.04392,0.01708,0.00976,0.03172,0.05368,-0.0488,0.01464,-0.0244,-0.00488,-0.06344,-0.03416,-0.0244
-0.04392,0.0122,0.01952,0.04148,0.06344,-0.05368,0.01464,-0.0244,0,-0.0488,-0.0244,-0.00488
-0.03904,0.00732,0.0244,0.04392,0.06344,-0.05124,0.01952,-0.00976,0.00976,-0.04392,-0.01952,0
-0.0244,-0.00244,0.02928,0.04148,0.05368,-0.03904,0.01952,-0.00976,0.00976,-0.04392,-0.01464,0
-0.00488,-0.02196,0.0488,0.05124,0.05368,-0.02928,0.03416,0.01464,0.02928,-0.02928,0,0.00976
0.01464,-0.04148,0.06832,0.061,0.05368,-0.01952,0.04392,0.01952,0.04392,-0.01464,0.01952,0.01952
0.00976,-0.03904,0.06832,0.06344,0.05856,-0.0244,0.04392,0.02928,0.03904,-0.01464,0.01464,0.0244
0,-0.03172,0.06344,0.06344,0.06344,-0.03172,0.0488,0.0244,0.03416,-0.0244,0.00488,0.01464
-0.0244,-0.01464,0.05368,0.06588,0.07808,-0.05124,0.0488,0.00976,0.0244,-0.0244,-0.00488,0.00488
-0.01464,-0.00976,0.03416,0.04148,0.0488,-0.03172,0.03904,-0.00488,0.02928,-0.02928,-0.00488,0
0,-0.01708,0.03416,0.03416,0.03416,-0.01708,0.01952,-0.01464,0.01464,-0.03416,-0.00976,0.00976
0.00976,-0.01708,0.0244,0.01952,0.01464,-0.00244,-0.01464,-0.03416,-0.00488,-0.05368,-0.02928,0.00976
0.00976,-0.01464,0.01952,0.01464,0.00976,0,-0.0244,-0.04392,-0.01464,-0.05856,-0.03416,-0.00488
-0.00976,-0.0122,0.03416,0.03904,0.04392,-0.02684,-0.0244,-0.03904,-0.01952,-0.06344,-0.03416,-0.01464
-0.01464,0,0.01464,0.02196,0.02928,-0.02196,-0.01464,-0.03416,-0.01952,-0.05856,-0.03904,-0.01464
-0.01464,-0.00244,0.01952,0.02684,0.03416,-0.0244,-0.00488,-0.03904,-0.01952,-0.05856,-0.03904,-0.01952
-0.0244,0.00488,0.01464,0.02684,0.03904,-0.03172,0,-0.03416,-0.01464,-0.05856,-0.03416,-0.01952
-0.04392,0.01952,0.00488,0.02684,0.0488,-0.04636,0.01952,-0.0244,0,-0.05856,-0.03416,-0.01952
-0.0488,0.0244,0,0.0244,0.0488,-0.0488,0.0244,-0.01952,0,-0.06344,-0.04392,-0.0244
-0.06832,0.04148,-0.01464,0.01952,0.05368,-0.061,0.01952,-0.04392,-0.00976,-0.06832,-0.04392,-0.0244
-0.05856,0.0366,-0.01464,0.01464,0.04392,-0.05124,0.01464,-0.04392,-0.00976,-0.06832,-0.04392,-0.02928
-0.05856,0.04148,-0.0244,0.00488,0.03416,-0.04636,0.00488,-0.03416,-0.0244,-0.0732,-0.05368,-0.03416
-0.05856,0.04148,-0.0244,0.00488,0.03416,-0.04636,0.00488,-0.03416,-0.01952,-0.0732,-0.05368,-0.03416
-0.05856,0.0366,-0.01464,0.01464,0.04392,-0.05124,0.00488,-0.04392,-0.01952,-0.06832,-0.04392,-0.03416
-0.0488,0.0244,0,0.0244,0.0488,-0.0488,0.00976,-0.04392,-0.01952,-0.06832,-0.0488,-0.03416
-0.05856,0.02928,0,0.02928,0.05856,-0.05856,0.00976,-0.04392,-0.00976,-0.06832,-0.0488,-0.03416
-0.06344,0.03904,-0.01464,0.01708,0.0488,-0.05612,0.00976,-0.04392,-0.00976,-0.06832,-0.0488,-0.03416
-0.06344,0.05124,-0.03904,-0.00732,0.0244,-0.04392,0.00976,-0.04392,-0.02928,-0.06832,-0.05856,-0.0488
-0.08784,0.0488,-0.00976,0.03416,0.07808,-0.08296,0.01952,-0.03416,-0.01464,-0.06344,-0.03416,-0.02928
-0.08784,0.0122,0.06344,0.10736,0.15128,-0.11956,0.0732,0.01952,0.05856,0.00488,0.01952,0.00976
-0.13664,0.01708,0.10248,0.1708,0.23912,-0.18788,0.13664,0.11712,0.16592,0.0732,0.07808,0.0488
-0.12688,0,0.12688,0.19032,0.25376,-0.19032,0.17568,0.20984,0.2684,0.19032,0.18056,0.11224
-0.07808,-0.03172,0.14152,0.18056,0.2196,-0.14884,0.18056,0.30256,0.34648,0.28304,0.27328,0.18056
0.03416,-0.07564,0.11712,0.10004,0.08296,-0.0244,0.13176,0.37576,0.37576,0.32208,0.30744,0.20496
0.25864,-0.19764,0.13664,0.00732,-0.122,0.19032,0.0244,0.40992,0.37576,0.34648,0.32208,0.24888
0.48312,-0.29768,0.11224,-0.12932,-0.37088,0.427,-0.14152,0.27328,0.31232,0.35624,0.366,0.32208
0.61488,-0.36844,0.122,-0.18544,-0.49288,0.55388,-0.23912,0.13176,0.25376,0.30744,0.34648,0.3416
0.68808,-0.34404,0,-0.34404,-0.68808,0.68808,-0.40016,-0.18056,-0.05368,0.01464,0.06832,0.17568
0.81496,-0.36112,-0.09272,-0.5002,-0.90768,0.86132,-0.56608,-0.44408,-0.35136,-0.27816,-0.1952,0.00488
0.77592,-0.30988,-0.15616,-0.54412,-0.93208,0.854,-0.66856,-0.67344,-0.54168,-0.43432,-0.32696,-0.10248
0.62464,-0.18544,-0.25376,-0.56608,-0.8784,0.75152,-0.73688,-0.97112,-0.8052,-0.63928,-0.48312,-0.20984
0.4148,-0.05124,-0.31232,-0.51972,-0.72712,0.57096,-0.71736,-1.15656,-0.9516,-0.81008,-0.62464,-0.31232
0.3172,0.00976,-0.33672,-0.49532,-0.65392,0.48556,-0.6832,-1.13216,-0.97112,-0.854,-0.6832,-0.37576
0.23912,0.05368,-0.34648,-0.46604,-0.5856,0.41236,-0.57584,-0.96136,-0.87352,-0.80032,-0.64904,-0.37088
0.1708,0.06588,-0.30256,-0.38796,-0.47336,0.32208,-0.4392,-0.732,-0.68808,-0.64904,-0.51728,-0.30744
0.0732,0.08784,-0.24888,-0.28548,-0.32208,0.19764,-0.27816,-0.50752,-0.47824,-0.48312,-0.38552,-0.23912
0.01952,0.05856,-0.13664,-0.1464,-0.15616,0.08784,-0.15128,-0.32208,-0.29768,-0.33184,-0.26352,-0.15128
0.00488,0.05124,-0.10736,-0.1098,-0.11224,0.05856,-0.122,-0.244,-0.2196,-0.24888,-0.20496,-0.122
0.01464,0.02196,-0.05856,-0.06588,-0.0732,0.04392,-0.08784,-0.16592,-0.15128,-0.18544,-0.1464,-0.08296
-0.00976,0.02684,-0.04392,-0.03904,-0.03416,0.0122,-0.0488,-0.07808,-0.0976,-0.1464,-0.10248,-0.06344
-0.01464,0.02684,-0.03904,-0.03172,-0.0244,0.00488,-0.01464,-0.06344,-0.05368,-0.10736,-0.06832,-0.03904
-0.0244,0.0244,-0.0244,-0.0122,0,-0.0122,-0.01464,-0.0732,-0.05856,-0.10248,-0.06832,-0.03904
-0.02928,0.02684,-0.0244,-0.00976,0.00488,-0.01708,-0.01952,-0.06344,-0.0488,-0.10248,-0.08296,-0.04392
-0.03416,0.02684,-0.01952,-0.00244,0.01464,-0.0244,-0.00976,-0.04392,-0.0488,-0.10248,-0.0732,-0.05368
-0.03904,0.02684,-0.01464,0.00488,0.0244,-0.03172,-0.00976,-0.03416,-0.04392,-0.0976,-0.06832,-0.0488
-0.05368,0.03416,-0.01464,0.0122,0.03904,-0.04636,-0.00488,-0.03904,-0.02928,-0.08784,-0.05856,-0.03416
-0.05368,0.0366,-0.01952,0.00732,0.03416,-0.04392,0.00488,-0.02928,-0.0244,-0.08784,-0.05856,-0.03416
-0.05368,0.04148,-0.02928,-0.00244,0.0244,-0.03904,0.00488,-0.01952,-0.02928,-0.08784,-0.05856,-0.03904
-0.05856,0.04148,-0.0244,0.00488,0.03416,-0.04636,0.00976,-0.01952,-0.0244,-0.08296,-0.05856,-0.03904
-0.0488,0.03172,-0.01464,0.00976,0.03416,-0.04148,0.01952,-0.01464,-0.01464,-0.07808,-0.05368,-0.03904
-0.03904,0.02196,-0.00488,0.01464,0.03416,-0.0366,0.01952,-0.00976,-0.01464,-0.07808,-0.0488,-0.03904
-0.05368,0.03416,-0.01464,0.0122,0.03904,-0.04636,0.01464,-0.01464,-0.0244,-0.07808,-0.05368,-0.03904
-0.04392,0.02684,-0.00976,0.0122,0.03416,-0.03904,0.01464,-0.00976,-0.01952,-0.07808,-0.05368,-0.03416
-0.05368,0.0366,-0.01952,0.00732,0.03416,-0.04392,0.00488,-0.00976,-0.01952,-0.07808,-0.05368,-0.03904
-0.05368,0.0366,-0.01952,0.00732,0.03416,-0.04392,0.00488,-0.01464,-0.01952,-0.07808,-0.05368,-0.03904
-0.06832,0.04636,-0.0244,0.00976,0.04392,-0.05612,0.01464,0,-0.01952,-0.07808,-0.05368,-0.02928
-0.05368,0.03904,-0.0244,0.00244,0.02928,-0.04148,0.01464,0,-0.01952,-0.07808,-0.05368,-0.02928
-0.05368,0.02928,-0.00488,0.02196,0.0488,-0.05124,0.01952,0.00488,-0.00488,-0.0732,-0.0488,-0.03416
-0.05856,0.02684,0.00488,0.03416,0.06344,-0.061,0.02928,0.00976,-0.00488,-0.06832,-0.04392,-0.03416
-0.06832,0.0366,-0.00488,0.02928,0.06344,-0.06588,0.01952,0,-0.01464,-0.08296,-0.05856,-0.04392
-0.05856,0.03904,-0.01952,0.00976,0.03904,-0.0488,0.01952,0,-0.01464,-0.08296,-0.05856,-0.04392
-0.0488,0.03172,-0.01464,0.00976,0.03416,-0.04148,0.01464,0.00976,-0.00488,-0.0732,-0.0488,-0.03416
-0.05856,0.03904,-0.01952,0.00976,0.03904,-0.0488,0.01464,0.00976,-0.00488,-0.0732,-0.0488,-0.03416
-0.0488,0.02684,-0.00488,0.01952,0.04392,-0.04636,0.02928,0.00976,0,-0.06832,-0.03904,-0.0244
-0.04392,0.02684,-0.00976,0.0122,0.03416,-0.03904,0.0244,0.00976,-0.00488,-0.06832,-0.03904,-0.0244
-0.0488,0.03172,-0.01464,0.00976,0.03416,-0.04148,0.01464,0.00488,-0.01464,-0.07808,-0.0488,-0.03416
-0.04392,0.02928,-0.01464,0.00732,0.02928,-0.0366,0.01952,0.00488,-0.01464,-0.07808,-0.0488,-0.03416
-0.05368,0.03416,-0.01464,0.0122,0.03904,-0.04636,0.01464,0.00488,0,-0.06832,-0.03904,-0.03416
-0.06344,0.04148,-0.01952,0.0122,0.04392,-0.05368,0.01952,0.00488,0,-0.06832,-0.03904,-0.02928
-0.05856,0.03416,-0.00976,0.01952,0.0488,-0.05368,0.02928,0.01952,0,-0.06832,-0.03904,-0.01952
-0.0488,0.02684,-0.00488,0.01952,0.04392,-0.04636,0.02928,0.01952,0,-0.06832,-0.03416,-0.01952
-0.03904,0.01708,0.00488,0.0244,0.04392,-0.04148,0.02928,0.01952,0.00488,-0.05856,-0.03416,-0.02928
-0.02928,0.0122,0.00488,0.01952,0.03416,-0.03172,0.02928,0.0244,0.00488,-0.05368,-0.02928,-0.02928
-0.03904,0.0244,-0.00976,0.00976,0.02928,-0.03416,0.01464,0.01952,-0.00488,-0.06344,-0.03904,-0.03904
-0.03904,0.02684,-0.01464,0.00488,0.0244,-0.03172,0.01464,0.01952,-0.00488,-0.06344,-0.03904,-0.03904
-0.03904,0.01952,0,0.01952,0.03904,-0.03904,0.0244,0.02928,0.00976,-0.05368,-0.02928,-0.02928
-0.0488,0.02196,0.00488,0.02928,0.05368,-0.05124,0.01952,0.02928,0.00488,-0.05368,-0.02928,-0.02928
-0.03416,0.02196,-0.00976,0.00732,0.0244,-0.02928,0.00976,0.03416,0.00488,-0.06344,-0.0244,-0.0244
-0.03416,0.02196,-0.00976,0.00732,0.0244,-0.02928,0.00976,0.03416,0.00976,-0.05856,-0.0244,-0.01952
-0.01952,0.0122,-0.00488,0.00488,0.01464,-0.01708,0.00976,0.03416,0.00976,-0.0488,-0.03416,-0.02928
-0.01952,0.0122,-0.00488,0.00488,0.01464,-0.01708,0.00488,0.03416,0.01464,-0.04392,-0.02928,-0.02928
-0.01952,0.00732,0.00488,0.01464,0.0244,-0.02196,0.00488,0.0488,0.01952,-0.0488,-0.0244,-0.01464
-0.01464,0.00244,0.00976,0.01708,0.0244,-0.01952,0.00976,0.05368,0.01952,-0.0488,-0.0244,-0.00976
-0.01464,0.00244,0.00976,0.01708,0.0244,-0.01952,0,0.05368,0.0244,-0.04392,-0.01464,-0.01464
-0.01464,0.00488,0.00488,0.0122,0.01952,-0.01708,0,0.05856,0.0244,-0.04392,-0.00976,-0.01464
0,-0.00244,0.00488,0.00488,0.00488,-0.00244,0,0.06832,0.0244,-0.04392,-0.01952,0
0,-0.00244,0.00488,0.00488,0.00488,-0.00244,-0.00488,0.06832,0.02928,-0.03904,-0.01952,-0.00976
0.01464,-0.00488,-0.00488,-0.0122,-0.01952,0.01708,-0.00488,0.06344,0.03416,-0.03904,-0.01464,-0.00488
0.0244,-0.01464,0.00488,-0.00732,-0.01952,0.02196,-0.00488,0.07808,0.03416,-0.03416,-0.00976,-0.00488
0.03416,-0.01708,0,-0.01708,-0.03416,0.03416,-0.00976,0.08784,0.03416,-0.03416,-0.00976,0.00976
0.0488,-0.02684,0.00488,-0.01952,-0.04392,0.04636,-0.01952,0.0976,0.04392,-0.0244,0,0.01464
0.06344,-0.04636,0.02928,-0.00244,-0.03416,0.0488,-0.0244,0.10248,0.04392,-0.01464,0.00976,0.0244
0.08784,-0.07076,0.05368,0.00976,-0.03416,0.061,-0.01952,0.11224,0.04392,-0.00488,0.01464,0.02928
0.08296,-0.06588,0.0488,0.00732,-0.03416,0.05856,-0.01952,0.11712,0.05856,-0.00488,0.02928,0.01952
0.08296,-0.06588,0.0488,0.00732,-0.03416,0.05856,-0.01464,0.122,0.0732,0.00976,0.03904,0.03416
0.11224,-0.07808,0.04392,-0.0122,-0.06832,0.09028,-0.0244,0.11712,0.06832,-0.00488,0.02928,0.02928
0.13664,-0.09516,0.05368,-0.01464,-0.08296,0.1098,-0.03904,0.122,0.05856,-0.00488,0.01952,0.03904
0.12688,-0.09028,0.05368,-0.00976,-0.0732,0.10004,-0.02928,0.13664,0.07808,0.01464,0.03416,0.0488
0.13176,-0.09516,0.05856,-0.00732,-0.0732,0.10248,-0.03904,0.14152,0.07808,0.01464,0.04392,0.0488
0.16104,-0.11468,0.06832,-0.0122,-0.09272,0.12688,-0.05368,0.14152,0.06832,0.01464,0.04392,0.04392
0.18544,-0.12932,0.0732,-0.01952,-0.11224,0.14884,-0.05368,0.1464,0.07808,0.01464,0.0488,0.05856
0.1952,-0.13908,0.08296,-0.01464,-0.11224,0.15372,-0.04392,0.15616,0.09272,0.02928,0.05856,0.06832
0.20496,-0.15372,0.10248,0,-0.10248,0.15372,-0.0488,0.15616,0.09272,0.03904,0.05856,0.0732
0.20008,-0.1464,0.09272,-0.00732,-0.10736,0.15372,-0.0488,0.1708,0.10248,0.03416,0.07808,0.07808
0.1952,-0.14152,0.08784,-0.00976,-0.10736,0.15128,-0.0488,0.17568,0.10736,0.04392,0.06832,0.08296
0.20008,-0.13908,0.07808,-0.02196,-0.122,0.16104,-0.05368,0.16592,0.0976,0.04392,0.06344,0.08784
0.19032,-0.12444,0.05856,-0.0366,-0.13176,0.16104,-0.0488,0.16592,0.10248,0.03904,0.06832,0.08784
0.1952,-0.13176,0.06832,-0.02928,-0.12688,0.16104,-0.05856,0.15616,0.0976,0.03904,0.05856,0.07808
0.18544,-0.12932,0.0732,-0.01952,-0.11224,0.14884,-0.04392,0.15616,0.10248,0.03904,0.05856,0.06832
0.17568,-0.12932,0.08296,-0.00488,-0.09272,0.1342,-0.02928,0.15616,0.10248,0.0488,0.05856,0.06344
0.15616,-0.12444,0.09272,0.01464,-0.06344,0.1098,-0.02928,0.1464,0.10248,0.0488,0.05368,0.05368
0.11712,-0.09516,0.0732,0.01464,-0.04392,0.08052,-0.01464,0.13176,0.09272,0.03904,0.05856,0.05856
0.10248,-0.08052,0.05856,0.00732,-0.04392,0.0732,-0.00488,0.122,0.0976,0.02928,0.05368,0.06344
0.09272,-0.07564,0.05856,0.0122,-0.03416,0.06344,-0.01464,0.11224,0.09272,0.0244,0.03416,0.04392
0.06832,-0.05612,0.04392,0.00976,-0.0244,0.04636,-0.00488,0.10736,0.08784,0.0244,0.03416,0.03904
0.06344,-0.05856,0.05368,0.02196,-0.00976,0.0366,0,0.09272,0.07808,0.01952,0.03416,0.03904
0.0488,-0.0488,0.0488,0.0244,0,0.0244,0.00976,0.08784,0.07808,0.00976,0.02928,0.03416
0.01952,-0.02684,0.03416,0.0244,0.01464,0.00244,0.01952,0.06832,0.0732,0,0.03904,0.0244
0.01952,-0.02928,0.03904,0.02928,0.01952,0,0.0244,0.06344,0.06344,0,0.02928,0.01464
0.00976,-0.01464,0.01952,0.01464,0.00976,0,0.01464,0.05856,0.06344,0,0.01952,0.01952
-0.00488,-0.00244,0.00976,0.0122,0.01464,-0.00976,0.00976,0.06344,0.05856,0,0.00976,0.00976
-0.00976,0,0.00976,0.01464,0.01952,-0.01464,0.00976,0.05368,0.0488,-0.01464,0.00976,0.00976
-0.00976,-0.00488,0.01952,0.0244,0.02928,-0.01952,0.01464,0.0488,0.0488,-0.01464,0.00976,0.00976
-0.00976,-0.00488,0.01952,0.0244,0.02928,-0.01952,0.0244,0.0488,0.03904,-0.0244,0,0.00976
-0.02928,0.00488,0.01952,0.03416,0.0488,-0.03904,0.0244,0.0488,0.03904,-0.0244,0,0.00488
-0.04392,0.02684,-0.00976,0.0122,0.03416,-0.03904,0.0244,0.03904,0.03904,-0.02928,-0.00488,-0.00976
-0.04392,0.02684,-0.00976,0.0122,0.03416,-0.03904,0.0244,0.03904,0.03904,-0.03416,-0.00488,-0.00976
-0.0244,0.01464,-0.00488,0.00732,0.01952,-0.02196,0.00976,0.02928,0.02928,-0.04392,-0.00976,-0.01464
-0.03904,0.02684,-0.01464,0.00488,0.0244,-0.03172,0.01464,0.02928,0.01952,-0.04392,-0.01464,-0.01464
-0.03416,0.02684,-0.01952,-0.00244,0.01464,-0.0244,0.01464,0.03416,0.0244,-0.03904,-0.00976,-0.00488
-0.03416,0.02684,-0.01952,-0.00244,0.01464,-0.0244,0.01464,0.02928,0.01952,-0.03904,-0.00976,-0.00488
-0.0244,0.01952,-0.01464,-0.00244,0.00976,-0.01708,0.01464,0.0244,0.01952,-0.04392,-0.01952,-0.01952
-0.0244,0.01464,-0.00488,0.00732,0.01952,-0.02196,0.01952,0.01464,0.01952,-0.04392,-0.0244,-0.01952
-0.0244,0.01464,-0.00488,0.00732,0.01952,-0.02196,0.01464,0.01952,0.00976,-0.0488,-0.02928,-0.01952
-0.0244,0.01464,-0.00488,0.00732,0.01952,-0.02196,0.01464,0.01952,0.00976,-0.0488,-0.02928,-0.01952
-0.03904,0.01952,0,0.01952,0.03904,-0.03904,0.01464,0.01952,0.01952,-0.0488,-0.0244,-0.00976
-0.03904,0.01952,0,0.01952,0.03904,-0.03904,0.01952,0.01952,0.01952,-0.0488,-0.02928,-0.01464
-0.0488,0.03416,-0.01952,0.00488,0.02928,-0.03904,0.0244,0.01952,0.01952,-0.0488,-0.01952,-0.01952
-0.0488,0.04392,-0.03904,-0.01464,0.00976,-0.02928,0.02928,0.01952,0.01952,-0.0488,-0.01952,-0.01952
-0.04392,0.03172,-0.01952,0.00244,0.0244,-0.03416,0.01952,0.01464,0.01952,-0.04392,-0.02928,-0.01952
-0.04392,0.0244,-0.00488,0.01708,0.03904,-0.04148,0.0244,0.01952,0.01952,-0.04392,-0.03416,-0.01952
-0.04392,0.0244,-0.00488,0.01708,0.03904,-0.04148,0.01952,0.0244,0.01952,-0.05368,-0.02928,-0.02928
-0.03904,0.02196,-0.00488,0.01464,0.03416,-0.0366,0.01952,0.0244,0.01952,-0.05856,-0.02928,-0.02928
-0.04392,0.02928,-0.01464,0.00732,0.02928,-0.0366,0.01952,0.0244,0.02928,-0.05368,-0.02928,-0.01952
-0.05856,0.04148,-0.0244,0.00488,0.03416,-0.04636,0.01464,0.0244,0.0244,-0.05368,-0.02928,-0.0244
-0.04392,0.02928,-0.01464,0.00732,0.02928,-0.0366,0.01952,0.01464,0.01464,-0.05368,-0.03416,-0.02928
-0.03904,0.02684,-0.01464,0.00488,0.0244,-0.03172,0.01952,0.01952,0.01952,-0.0488,-0.01952,-0.02928
-0.04392,0.02928,-0.01464,0.00732,0.02928,-0.0366,0.01952,0.01464,0.02928,-0.03904,-0.01952,-0.01952
-0.04392,0.02928,-0.01464,0.00732,0.02928,-0.0366,0.01952,0.01464,0.02928,-0.03416,-0.0244,-0.01952
-0.0488,0.0244,0,0.0244,0.0488,-0.0488,0.01952,0.01464,0.01952,-0.04392,-0.03416,-0.01952
-0.04392,0.01708,0.00976,0.03172,0.05368,-0.0488,0.01952,0.01464,0.01952,-0.05368,-0.03416,-0.01952
-0.03904,0.02196,-0.00488,0.01464,0.03416,-0.0366,0.01952,0.01464,0.01952,-0.0488,-0.0244,-0.02928
-0.04392,0.0244,-0.00488,0.01708,0.03904,-0.04148,0.01952,0.01464,0.01952,-0.04392,-0.0244,-0.0244
-0.02928,0.0122,0.00488,0.01952,0.03416,-0.03172,0.02928,0.0244,0.02928,-0.04392,-0.01952,-0.01464
-0.03904,0.0122,0.01464,0.03416,0.05368,-0.04636,0.02928,0.01952,0.02928,-0.04392,-0.01952,-0.01464
-0.04392,0.02196,0,0.02196,0.04392,-0.04392,0.01952,0.00976,0.01952,-0.0488,-0.01952,-0.0244
-0.03904,0.01708,0.00488,0.0244,0.04392,-0.04148,0.00976,0.00976,0.01464,-0.0488,-0.0244,-0.03416
-0.03904,0.02196,-0.00488,0.01464,0.03416,-0.0366,0.01464,0.01952,0.01464,-0.0488,-0.02928,-0.0244
-0.03416,0.01952,-0.00488,0.0122,0.02928,-0.03172,0.01464,0.01952,0.01464,-0.04392,-0.0244,-0.01464
-0.03416,0.01708,0,0.01708,0.03416,-0.03416,0.0244,0.01952,0.01952,-0.04392,-0.01464,-0.0244
-0.06344,0.03172,0,0.03172,0.06344,-0.06344,0.0244,0.01952,0.01952,-0.04392,-0.00976,-0.0244
-0.05368,0.02684,0,0.02684,0.05368,-0.05368,0.01952,0.01464,0.01952,-0.03416,-0.01952,-0.01952
-0.05368,0.03172,-0.00976,0.01708,0.04392,-0.0488,0.01952,0.01464,0.00976,-0.03904,-0.02928,-0.01952
-0.05368,0.02928,-0.00488,0.02196,0.0488,-0.05124,0.01952,0.00976,0.0244,-0.0488,-0.01952,-0.01952
-0.05368,0.02684,0,0.02684,0.05368,-0.05368,0.01464,0.00976,0.0244,-0.04392,-0.00976,-0.01952
-0.03904,0.01464,0.00976,0.02928,0.0488,-0.04392,0.01464,0.01952,0.01952,-0.04392,-0.01952,-0.01952
-0.04392,0.01708,0.00976,0.03172,0.05368,-0.0488,0.01464,0.01464,0.01464,-0.05368,-0.0244,-0.01952
-0.0488,0.01708,0.01464,0.03904,0.06344,-0.05612,0.00488,0.00488,0.00976,-0.06344,-0.02928,-0.02928
-0.05368,0.02196,0.00976,0.0366,0.06344,-0.05856,0.00488,-0.00488,0.00976,-0.05856,-0.02928,-0.02928
-0.03904,0.01952,0,0.01952,0.03904,-0.03904,0.00976,0.00488,0.00976,-0.05368,-0.0244,-0.0244
-0.03904,0.02196,-0.00488,0.01464,0.03416,-0.0366,0.00976,0.00976,0.00976,-0.05368,-0.01952,-0.01952
-0.03904,0.01952,0,0.01952,0.03904,-0.03904,0.01464,0,0.00976,-0.0488,-0.0244,-0.01952
-0.03416,0.02196,-0.00976,0.00732,0.0244,-0.02928,0.01952,0,0.01464,-0.0488,-0.0244,-0.01952
-0.0488,0.02684,-0.00488,0.01952,0.04392,-0.04636,0.01464,0,0.01952,-0.0488,-0.01464,-0.01952
-0.05856,0.03172,-0.00488,0.0244,0.05368,-0.05612,0.00976,0,0.01952,-0.0488,-0.01464,-0.01952
-0.05856,0.02684,0.00488,0.03416,0.06344,-0.061,0.01952,-0.00488,0.00488,-0.06344,-0.03416,-0.02928
-0.06832,0.03416,0,0.03416,0.06832,-0.06832,0.01952,-0.00488,0,-0.06344,-0.03416,-0.03416
-0.04392,0.01708,0.00976,0.03172,0.05368,-0.0488,0.00976,-0.00488,0.01464,-0.05368,-0.02928,-0.0244
-0.03904,0.01464,0.00976,0.02928,0.0488,-0.04392,0.01464,-0.00976,0.01464,-0.05856,-0.02928,-0.0244
-0.04392,0.01952,0.00488,0.02684,0.0488,-0.04636,0.0244,0,0.01464,-0.05368,-0.03416,-0.0244
-0.05368,0.02928,-0.00488,0.02196,0.0488,-0.05124,0.01952,0,0.01464,-0.05368,-0.02928,-0.0244
-0.03904,0.01952,0,0.01952,0.03904,-0.03904,0.00976,-0.00976,0.00976,-0.05368,-0.02928,-0.0244
-0.03904,0.01708,0.00488,0.0244,0.04392,-0.04148,0.01464,-0.00976,0.01464,-0.05368,-0.0244,-0.0244
-0.05856,0.02928,0,0.02928,0.05856,-0.05856,0.00976,-0.00976,0.00488,-0.05856,-0.0244,-0.0244
-0.06832,0.0366,-0.00488,0.02928,0.06344,-0.06588,0.00976,-0.00976,-0.00488,-0.05856,-0.02928,-0.0244
-0.06344,0.0366,-0.00976,0.02196,0.05368,-0.05856,0.00976,-0.01464,0.00976,-0.05856,-0.02928,-0.0244
-0.0732,0.04392,-0.01464,0.02196,0.05856,-0.06588,0.00976,-0.01464,0.00488,-0.06344,-0.0244,-0.0244
-0.08296,0.05124,-0.01952,0.02196,0.06344,-0.0732,0.00976,-0.01464,-0.00488,-0.06344,-0.03416,-0.03416
-0.07808,0.05124,-0.0244,0.01464,0.05368,-0.06588,0.00976,-0.01464,0,-0.06344,-0.02928,-0.03416
-0.06832,0.0366,-0.00488,0.02928,0.06344,-0.06588,0.01952,-0.00488,0.00488,-0.05368,-0.02928,-0.0244
-0.06344,0.02928,0.00488,0.0366,0.06832,-0.06588,0.01952,-0.00488,0.00488,-0.0488,-0.0244,-0.01952
-0.06832,0.0366,-0.00488,0.02928,0.06344,-0.06588,0.00976,-0.00488,0.00488,-0.06344,-0.0244,-0.02928
-0.0732,0.04636,-0.01952,0.01708,0.05368,-0.06344,0.00976,-0.00488,0.00488,-0.06344,-0.0244,-0.01952
-0.06344,0.04148,-0.01952,0.0122,0.04392,-0.05368,0.01952,-0.01464,-0.00488,-0.06344,-0.0244,-0.0244
-0.06344,0.04148,-0.01952,0.0122,0.04392,-0.05368,0.01464,-0.01464,-0.00488,-0.06832,-0.0244,-0.02928
-0.05368,0.02684,0,0.02684,0.05368,-0.05368,0.00976,-0.01952,0.00488,-0.06344,-0.03416,-0.02928
-0.0488,0.01952,0.00976,0.03416,0.05856,-0.05368,0.00488,-0.01952,0.00488,-0.06832,-0.03416,-0.02928
-0.05368,0.02684,0,0.02684,0.05368,-0.05368,0.00976,-0.01464,-0.00488,-0.05856,-0.03904,-0.0244
-0.06832,0.03904,-0.00976,0.0244,0.05856,-0.06344,0.00976,-0.01464,-0.00488,-0.05856,-0.03904,-0.0244
-0.06344,0.04148,-0.01952,0.0122,0.04392,-0.05368,0.00976,-0.01952,-0.00488,-0.06344,-0.03904,-0.02928
-0.06344,0.04148,-0.01952,0.0122,0.04392,-0.05368,0.00976,-0.01952,-0.00976,-0.06344,-0.04392,-0.02928
-0.0732,0.04148,-0.00976,0.02684,0.06344,-0.06832,0.01952,-0.01952,-0.00976,-0.05856,-0.02928,-0.02928
-0.0732,0.04148,-0.00976,0.02684,0.06344,-0.06832,0.01952,-0.01952,-0.00488,-0.05856,-0.0244,-0.0244
-0.05368,0.02196,0.00976,0.0366,0.06344,-0.05856,0.01952,-0.01952,0,-0.05856,-0.0244,-0.01952
-0.05368,0.02928,-0.00488,0.02196,0.0488,-0.05124,0.01952,-0.01464,0.00488,-0.05856,-0.0244,-0.01952
-0.06832,0.03904,-0.00976,0.0244,0.05856,-0.06344,0.00976,-0.01464,0,-0.05856,-0.02928,-0.01464
-0.06832,0.03904,-0.00976,0.0244,0.05856,-0.06344,0.00976,-0.01952,0,-0.05856,-0.02928,-0.01464
-0.07808,0.04392,-0.00976,0.02928,0.06832,-0.0732,0.01464,-0.01952,0.00488,-0.05368,-0.02928,-0.01464
-0.07808,0.04392,-0.00976,0.02928,0.06832,-0.0732,0.01464,-0.01952,0.00976,-0.05368,-0.02928,-0.01952
-0.06832,0.03904,-0.00976,0.0244,0.05856,-0.06344,0.00976,-0.02928,0,-0.06832,-0.03904,-0.0244
-0.0732,0.04148,-0.00976,0.02684,0.06344,-0.06832,0.00488,-0.02928,-0.00976,-0.06344,-0.03904,-0.03416
-0.08784,0.0488,-0.00976,0.03416,0.07808,-0.08296,0.01952,-0.02928,0,-0.05368,-0.0244,-0.01464
-0.07808,0.04392,-0.00976,0.02928,0.06832,-0.0732,0.00976,-0.01952,0,-0.05856,-0.02928,-0.01464
-0.07808,0.04392,-0.00976,0.02928,0.06832,-0.0732,0.00976,-0.01952,0,-0.05856,-0.02928,-0.0244
-0.06832,0.03416,0,0.03416,0.06832,-0.06832,0.00976,-0.01952,0,-0.05856,-0.03904,-0.02928
-0.06832,0.03416,0,0.03416,0.06832,-0.06832,0.00976,-0.01952,0,-0.05856,-0.03904,-0.02928
-0.05856,0.03416,-0.00976,0.01952,0.0488,-0.05368,0.00976,-0.02928,-0.00976,-0.05856,-0.02928,-0.02928
-0.05856,0.03416,-0.00976,0.01952,0.0488,-0.05368,0.00976,-0.02928,-0.00976,-0.05856,-0.02928,-0.02928
-0.05856,0.02928,0,0.02928,0.05856,-0.05856,0.01952,-0.01952,0,-0.05856,-0.02928,-0.01952
-0.05856,0.02928,0,0.02928,0.05856,-0.05856,0.01952,-0.01952,0,-0.05856,-0.02928,-0.01952
-0.05856,0.02928,0,0.02928,0.05856,-0.05856,0.00976,-0.02928,-0.00976,-0.05856,-0.03904,-0.02928
-0.05856,0.02928,0,0.02928,0.05856,-0.05856,0.00976,-0.02928,-0.00976,-0.05856,-0.03904,-0.02928
-0.06832,0.0366,-0.00488,0.02928,0.06344,-0.06588,0.01952,-0.01952,-0.00976,-0.06832,-0.03904,-0.02928
-0.06832,0.04148,-0.01464,0.01952,0.05368,-0.061,0.01952,-0.01952,-0.00976,-0.06832,-0.03904,-0.02928
-0.06344,0.04148,-0.01952,0.0122,0.04392,-0.05368,0.00976,-0.02928,-0.01952,-0.06832,-0.0488,-0.02928
-0.05368,0.0366,-0.01952,0.00732,0.03416,-0.04392,0.00976,-0.02928,-0.01952,-0.06832,-0.0488,-0.02928
-0.06344,0.04148,-0.01952,0.0122,0.04392,-0.05368,0.01952,-0.01952,-0.00976,-0.06832,-0.03904,-0.02928
-0.0732,0.04636,-0.01952,0.01708,0.05368,-0.06344,0.01952,-0.01952,-0.00976,-0.06832,-0.03904,-0.02928
-0.08296,0.05124,-0.01952,0.02196,0.06344,-0.0732,0.01952,-0.01952,0,-0.06344,-0.03416,-0.0244
-0.09272,0.05612,-0.01952,0.02684,0.0732,-0.08296,0.01952,-0.01952,0,-0.05368,-0.0244,-0.01464
-0.08784,0.05124,-0.01464,0.02928,0.0732,-0.08052,0.00976,-0.01952,-0.00976,-0.05856,-0.01952,-0.01952
-0.06832,0.0366,-0.00488,0.02928,0.06344,-0.06588,0.00976,-0.01952,-0.00976,-0.05856,-0.01952,-0.01952
-0.0732,0.04148,-0.00976,0.02684,0.06344,-0.06832,0.00976,-0.01952,-0.00976,-0.05856,-0.02928,-0.01952
-0.07808,0.04636,-0.01464,0.0244,0.06344,-0.07076,0.00976,-0.01952,-0.00976,-0.06344,-0.02928,-0.01952
-0.07808,0.04392,-0.00976,0.02928,0.06832,-0.0732,0.00976,-0.01952,-0.01952,-0.06832,-0.03416,-0.02928
-0.0732,0.04636,-0.01952,0.01708,0.05368,-0.06344,0.00488,-0.0244,-0.01952,-0.0732,-0.03416,-0.02928
-0.06832,0.04148,-0.01464,0.01952,0.05368,-0.061,0.01464,-0.01952,-0.01464,-0.06344,-0.03416,-0.01952
-0.05368,0.03416,-0.01464,0.0122,0.03904,-0.04636,0.01464,-0.01952,-0.00976,-0.05856,-0.0244,-0.01952
-0.05856,0.02928,0,0.02928,0.05856,-0.05856,0.01952,-0.00488,-0.00976,-0.05856,-0.0244,-0.01952
-0.05856,0.02684,0.00488,0.03416,0.06344,-0.061,0.01952,-0.00488,0,-0.05368,-0.0244,-0.01464
-0.05856,0.03416,-0.00976,0.01952,0.0488,-0.05368,0.01952,-0.01464,-0.00488,-0.05368,-0.0244,-0.0244
-0.05856,0.0366,-0.01464,0.01464,0.04392,-0.05124,0.01464,-0.01464,-0.00488,-0.05368,-0.0244,-0.0244
-0.05368,0.02928,-0.00488,0.02196,0.0488,-0.05124,0.00976,-0.0244,-0.00976,-0.05856,-0.01952,-0.0244
-0.0488,0.01952,0.00976,0.03416,0.05856,-0.05368,0.00488,-0.00976,0,-0.05368,-0.0244,-0.01952
-0.0244,0.00244,0.01952,0.03172,0.04392,-0.03416,0.00976,0,0.00976,-0.04392,-0.01464,0
-0.00488,-0.01708,0.03904,0.04148,0.04392,-0.0244,0.0244,0.0244,0.02928,-0.02928,0,0.00976
0.00976,-0.03416,0.05856,0.05368,0.0488,-0.01952,0.03416,0.03416,0.04392,-0.01952,0.01952,0.01952
0.01464,-0.0366,0.05856,0.05124,0.04392,-0.01464,0.03416,0.03416,0.03904,-0.00976,0.01464,0.0244
0.01464,-0.03904,0.06344,0.05612,0.0488,-0.01708,0.0488,0.04392,0.03904,-0.00488,0.0244,0.0244
0,-0.02684,0.05368,0.05368,0.05368,-0.02684,0.0488,0.02928,0.03904,-0.00488,0.01464,0.01464
-0.00488,-0.0122,0.02928,0.03172,0.03416,-0.01952,0.02928,0.00488,0.02928,-0.02928,-0.00488,0.00488
-0.00976,-0.00488,0.01952,0.0244,0.02928,-0.01952,0.00976,-0.00488,0.01464,-0.03416,-0.00976,0.00488
-0.01464,0,0.01464,0.02196,0.02928,-0.02196,-0.0244,-0.0244,-0.00488,-0.05368,-0.01952,-0.00488
-0.00488,-0.00244,0.00976,0.0122,0.01464,-0.00976,-0.03416,-0.03416,-0.01464,-0.05856,-0.0244,-0.00976
-0.00976,-0.00488,0.01952,0.0244,0.02928,-0.01952,-0.03416,-0.03904,-0.00976,-0.05368,-0.0244,-0.00976
-0.01464,0.00244,0.00976,0.01708,0.0244,-0.01952,-0.0244,-0.03416,-0.00976,-0.0488,-0.02928,0
-0.0244,0.00732,0.00976,0.02196,0.03416,-0.02928,-0.00488,-0.01952,-0.00976,-0.0488,-0.01952,0
-0.03416,0.01464,0.00488,0.02196,0.03904,-0.0366,0,-0.01464,-0.00488,-0.0488,-0.01464,0
-0.06344,0.0366,-0.00976,0.02196,0.05368,-0.05856,0.00976,-0.0244,0,-0.0488,-0.0244,0
-0.06832,0.0366,-0.00488,0.02928,0.06344,-0.06588,0.01464,-0.01952,0,-0.05368,-0.03416,-0.00488
-0.08784,0.05612,-0.0244,0.01952,0.06344,-0.07564,0.00976,-0.03416,-0.01952,-0.05856,-0.03416,-0.01464
-0.07808,0.05124,-0.0244,0.01464,0.05368,-0.06588,0.00488,-0.03416,-0.01952,-0.05856,-0.03416,-0.01952
-0.06832,0.04636,-0.0244,0.00976,0.04392,-0.05612,-0.00488,-0.0244,-0.0244,-0.0732,-0.04392,-0.0244
-0.06832,0.04636,-0.0244,0.00976,0.04392,-0.05612,-0.00488,-0.0244,-0.01952,-0.0732,-0.04392,-0.0244
-0.06344,0.04636,-0.02928,0.00244,0.03416,-0.0488,0.00488,-0.0244,-0.01952,-0.06832,-0.03416,-0.0244
-0.06344,0.04392,-0.0244,0.00732,0.03904,-0.05124,0.00976,-0.0244,-0.01952,-0.06832,-0.03904,-0.0244
-0.06344,0.04148,-0.01952,0.0122,0.04392,-0.05368,0,-0.03416,-0.01952,-0.05856,-0.03904,-0.0244
-0.05856,0.0366,-0.01464,0.01464,0.04392,-0.05124,0,-0.03416,-0.01952,-0.05856,-0.03904,-0.0244
-0.09272,0.05612,-0.01952,0.02684,0.0732,-0.08296,0.01952,-0.0244,-0.00976,-0.05856,-0.02928,-0.00976
-0.08784,0.0488,-0.00976,0.03416,0.07808,-0.08296,0.00976,-0.0244,-0.01464,-0.06344,-0.0244,-0.01952
-0.10736,0.04148,0.0244,0.07808,0.13176,-0.11956,0.04392,0.00976,0.02928,-0.01464,0.00976,0.00976
-0.12688,0.02196,0.08296,0.1464,0.20984,-0.16836,0.11712,0.0976,0.13664,0.08296,0.07808,0.03904
-0.15616,0.03416,0.08784,0.16592,0.244,-0.20008,0.15616,0.20008,0.23912,0.1708,0.15128,0.09272
-0.0976,-0.02684,0.15128,0.20008,0.24888,-0.17324,0.1708,0.2928,0.34648,0.2928,0.27328,0.1708
0.03416,-0.09028,0.1464,0.12932,0.11224,-0.03904,0.122,0.366,0.35624,0.33184,0.3172,0.21472
0.20984,-0.15372,0.0976,-0.00732,-0.11224,0.16104,0.05368,0.41968,0.366,0.34648,0.33184,0.24888
0.44408,-0.27328,0.10248,-0.11956,-0.3416,0.39284,-0.13176,0.28304,0.28304,0.3172,0.32696,0.2928
0.59536,-0.34404,0.09272,-0.20496,-0.50264,0.549,-0.23912,0.18056,0.244,0.30744,0.34648,0.35136
0.67832,-0.34892,0.01952,-0.31964,-0.6588,0.66856,-0.37088,-0.10248,-0.01464,0.06344,0.12688,0.21472
0.76616,-0.35136,-0.06344,-0.44652,-0.8296,0.79788,-0.51728,-0.38552,-0.31232,-0.22936,-0.15616,0.01464
0.7564,-0.31476,-0.12688,-0.50508,-0.88328,0.81984,-0.64904,-0.67344,-0.54168,-0.43432,-0.32696,-0.09272
0.61488,-0.20496,-0.20496,-0.5124,-0.81984,0.71736,-0.71736,-0.92232,-0.74664,-0.60024,-0.4636,-0.18056
0.40504,-0.061,-0.28304,-0.48556,-0.68808,0.54656,-0.7076,-1.1468,-0.9516,-0.7808,-0.59536,-0.2928
0.27816,0.01464,-0.30744,-0.44652,-0.5856,0.43188,-0.67344,-1.14192,-0.96136,-0.8052,-0.62464,-0.33672
0.20008,0.06344,-0.32696,-0.427,-0.52704,0.36356,-0.5856,-1.01016,-0.9028,-0.81008,-0.64904,-0.38064
0.13176,0.10004,-0.33184,-0.39772,-0.4636,0.29768,-0.46848,-0.7808,-0.72712,-0.68808,-0.56608,-0.33672
0.04392,0.11712,-0.27816,-0.30012,-0.32208,0.183,-0.3172,-0.55632,-0.52704,-0.52216,-0.4148,-0.24888
-0.00976,0.0976,-0.18544,-0.18056,-0.17568,0.08296,-0.1708,-0.35136,-0.34648,-0.33184,-0.27328,-0.16104
-0.03416,0.08052,-0.12688,-0.1098,-0.09272,0.02928,-0.11224,-0.26352,-0.24888,-0.2684,-0.21472,-0.122
0.00488,0.0366,-0.07808,-0.08052,-0.08296,0.04392,-0.11712,-0.1952,-0.18056,-0.22448,-0.16592,-0.10248
-0.00976,0.02684,-0.04392,-0.03904,-0.03416,0.0122,-0.05856,-0.08784,-0.0976,-0.13664,-0.10248,-0.06344
-0.04392,0.03172,-0.01952,0.00244,0.0244,-0.03416,-0.0244,-0.0732,-0.08296,-0.0976,-0.05856,-0.03904
-0.04392,0.02928,-0.01464,0.00732,0.02928,-0.0366,-0.01464,-0.0732,-0.06832,-0.09272,-0.05856,-0.03904
-0.0488,0.03172,-0.01464,0.00976,0.03416,-0.04148,-0.00976,-0.06344,-0.05856,-0.09272,-0.0732,-0.04392
-0.05368,0.0366,-0.01952,0.00732,0.03416,-0.04392,-0.00976,-0.04392,-0.05856,-0.09272,-0.06344,-0.04392
-0.05856,0.0366,-0.01464,0.01464,0.04392,-0.05124,-0.00976,-0.03416,-0.05368,-0.08784,-0.05856,-0.03904
-0.05368,0.03416,-0.01464,0.0122,0.03904,-0.04636,-0.00488,-0.03904,-0.0488,-0.07808,-0.0488,-0.03416
-0.05368,0.0366,-0.01952,0.00732,0.03416,-0.04392,0.00488,-0.02928,-0.04392,-0.07808,-0.0488,-0.03416
-0.05368,0.04636,-0.03904,-0.0122,0.01464,-0.03416,-0.00488,-0.01952,-0.03904,-0.07808,-0.0488,-0.03904
-0.05856,0.04636,-0.03416,-0.00488,0.0244,-0.04148,0,-0.01952,-0.03416,-0.0732,-0.0488,-0.03904
-0.06832,0.04636,-0.0244,0.00976,0.04392,-0.05612,0.00976,-0.01464,-0.0244,-0.06832,-0.03416,-0.02928
-0.06832,0.0366,-0.00488,0.02928,0.06344,-0.06588,0.00976,-0.00976,-0.0244,-0.06832,-0.02928,-0.02928
-0.0732,0.0488,-0.0244,0.0122,0.0488,-0.061,0.0244,-0.00488,-0.03416,-0.06832,-0.04392,-0.02928
-0.06344,0.04148,-0.01952,0.0122,0.04392,-0.05368,0.0244,0,-0.02928,-0.06832,-0.04392,-0.0244
-0.05368,0.03172,-0.00976,0.01708,0.04392,-0.0488,0.01464,-0.00976,-0.02928,-0.06832,-0.04392,-0.02928
-0.04392,0.02196,0,0.02196,0.04392,-0.04392,0.01464,-0.01464,-0.02928,-0.06832,-0.04392,-0.02928
-0.07808,0.04636,-0.01464,0.0244,0.06344,-0.07076,0.01464,0,-0.02928,-0.06832,-0.04392,-0.02928
-0.0732,0.0488,-0.0244,0.0122,0.0488,-0.061,0.01464,0,-0.02928,-0.06832,-0.04392,-0.02928
-0.06344,0.03904,-0.01464,0.01708,0.0488,-0.05612,0.01952,0.00488,-0.01464,-0.05368,-0.02928,-0.01464
-0.06832,0.04148,-0.01464,0.01952,0.05368,-0.061,0.02928,0.00976,-0.01464,-0.0488,-0.0244,-0.01464
-0.05856,0.03172,-0.00488,0.0244,0.05368,-0.05612,0.01952,0,-0.0244,-0.06344,-0.03904,-0.0244
-0.03904,0.01952,0,0.01952,0.03904,-0.03904,0.01952,0,-0.0244,-0.06344,-0.03904,-0.0244
-0.03904,0.02196,-0.00488,0.01464,0.03416,-0.0366,0.01464,0,-0.01464,-0.05368,-0.02928,-0.0244
-0.05856,0.03416,-0.00976,0.01952,0.0488,-0.05368,0.01464,0,-0.01464,-0.05368,-0.02928,-0.0244
-0.0488,0.02684,-0.00488,0.01952,0.04392,-0.04636,0.02928,0.00976,-0.00976,-0.0488,-0.02928,-0.01464
-0.04392,0.02684,-0.00976,0.0122,0.03416,-0.03904,0.0244,0.00976,-0.01464,-0.0488,-0.02928,-0.01464
-0.0488,0.03172,-0.01464,0.00976,0.03416,-0.04148,0.01464,0.00488,-0.01464,-0.05856,-0.03904,-0.0244
-0.04392,0.02928,-0.01464,0.00732,0.02928,-0.0366,0.00976,0.00488,-0.01464,-0.05856,-0.03904,-0.0244
-0.05368,0.02928,-0.00488,0.02196,0.0488,-0.05124,0.01464,0.00488,-0.01952,-0.06832,-0.03904,-0.0244
-0.05368,0.03172,-0.00976,0.01708,0.04392,-0.0488,0.01952,0.00488,-0.01952,-0.06832,-0.03904,-0.01952
-0.0488,0.03416,-0.01952,0.00488,0.02928,-0.03904,0.01952,0.00976,-0.00976,-0.05856,-0.0488,-0.01952
-0.03904,0.02684,-0.01464,0.00488,0.0244,-0.03172,0.01952,0.00976,-0.00976,-0.05856,-0.04392,-0.01952
-0.03904,0.02196,-0.00488,0.01464,0.03416,-0.0366,0.00976,0.00976,-0.01464,-0.05856,-0.03416,-0.01952
-0.02928,0.0122,0.00488,0.01952,0.03416,-0.03172,0.00976,0.01464,-0.01464,-0.05368,-0.02928,-0.01952
-0.03904,0.01952,0,0.01952,0.03904,-0.03904,0.01464,0.02928,-0.00488,-0.05368,-0.02928,-0.00976
-0.0488,0.02196,0.00488,0.02928,0.05368,-0.05124,0.01464,0.02928,-0.00488,-0.05368,-0.02928,-0.00976
-0.0488,0.0244,0,0.0244,0.0488,-0.0488,0.00488,0.01952,-0.00976,-0.06344,-0.02928,-0.01952
-0.05856,0.03172,-0.00488,0.0244,0.05368,-0.05612,0,0.01952,-0.01464,-0.06344,-0.02928,-0.01952
-0.03416,0.01708,0,0.01708,0.03416,-0.03416,0.00976,0.04392,-0.00488,-0.05368,-0.0244,-0.00488
-0.03416,0.0122,0.00976,0.02684,0.04392,-0.03904,0.00976,0.04392,0.00976,-0.03904,-0.0244,0
-0.02928,0.0122,0.00488,0.01952,0.03416,-0.03172,0.00976,0.03416,0,-0.0488,-0.0244,0
-0.02928,0.01708,-0.00488,0.00976,0.0244,-0.02684,0.00488,0.03416,-0.00488,-0.04392,-0.01952,0
-0.00976,0.00244,0.00488,0.00976,0.01464,-0.0122,-0.00488,0.03904,0.00976,-0.02928,-0.01464,-0.00488
-0.00488,-0.00244,0.00976,0.0122,0.01464,-0.00976,0,0.04392,0.00976,-0.02928,-0.01464,0
-0.00488,-0.00732,0.01952,0.02196,0.0244,-0.01464,-0.00976,0.04392,0.01464,-0.03416,-0.01464,-0.00488
-0.00488,-0.00488,0.01464,0.01708,0.01952,-0.0122,-0.00976,0.0488,0.01464,-0.03416,-0.00976,-0.00488
0,-0.00732,0.01464,0.01464,0.01464,-0.00732,-0.01952,0.06832,0.00488,-0.03416,-0.00976,0.00976
0,-0.00732,0.01464,0.01464,0.01464,-0.00732,-0.0244,0.06832,0.00976,-0.02928,-0.00976,0
0.00488,-0.00488,0.00488,0.00244,0,0.00244,-0.01464,0.06344,0.01464,-0.02928,-0.00488,0.01464
0.01464,-0.00976,0.00488,-0.00244,-0.00976,0.0122,-0.01464,0.07808,0.01464,-0.0244,0,0.01464
0.04392,-0.0366,0.02928,0.00732,-0.01464,0.02928,-0.01952,0.07808,0.01464,-0.0244,0,0.02928
0.06832,-0.05612,0.04392,0.00976,-0.0244,0.04636,-0.02928,0.08784,0.0244,-0.01464,0.00976,0.03416
0.06344,-0.05612,0.0488,0.01708,-0.01464,0.03904,-0.03416,0.08296,0.0244,-0.00488,0.00976,0.03416
0.06832,-0.061,0.05368,0.01952,-0.01464,0.04148,-0.02928,0.09272,0.0244,0.00488,0.01464,0.03904
0.09272,-0.07076,0.0488,0.00244,-0.04392,0.06832,-0.03904,0.0976,0.02928,-0.00488,0.01952,0.02928
0.10248,-0.07564,0.0488,-0.00244,-0.05368,0.07808,-0.04392,0.10248,0.03416,0.00976,0.02928,0.04392
0.10248,-0.07808,0.05368,0.00244,-0.0488,0.07564,-0.03416,0.11712,0.0488,0.01464,0.02928,0.05856
0.11712,-0.09028,0.06344,0.00488,-0.05368,0.0854,-0.03904,0.122,0.0488,0.01464,0.02928,0.06832
0.12688,-0.09516,0.06344,0,-0.06344,0.09516,-0.0488,0.11712,0.0488,0.01464,0.03416,0.05856
0.14152,-0.10492,0.06832,-0.00244,-0.0732,0.10736,-0.05856,0.122,0.03904,0.01464,0.04392,0.05856
0.16104,-0.11468,0.06832,-0.0122,-0.09272,0.12688,-0.05368,0.13176,0.0488,0.01464,0.03416,0.06344
0.17568,-0.12444,0.0732,-0.01464,-0.10248,0.13908,-0.05368,0.13664,0.05856,0.01464,0.03904,0.07808
0.17568,-0.12932,0.08296,-0.00488,-0.09272,0.1342,-0.05368,0.1464,0.06344,0.02928,0.0488,0.07808
0.17568,-0.1342,0.09272,0.00488,-0.08296,0.12932,-0.05856,0.1464,0.06344,0.03904,0.0488,0.08296
0.20008,-0.1464,0.09272,-0.00732,-0.10736,0.15372,-0.05856,0.16104,0.08296,0.04392,0.07808,0.0976
0.21472,-0.15616,0.0976,-0.00976,-0.11712,0.16592,-0.05856,0.16592,0.08784,0.05368,0.07808,0.11224
0.2196,-0.16836,0.11712,0.00732,-0.10248,0.16104,-0.05368,0.15616,0.07808,0.05368,0.0732,0.10736
0.20984,-0.16348,0.11712,0.0122,-0.09272,0.15128,-0.0488,0.15616,0.08296,0.0488,0.07808,0.10736
0.1952,-0.15128,0.10736,0.00976,-0.08784,0.14152,-0.05856,0.16592,0.0976,0.05856,0.08784,0.10736
0.17568,-0.1342,0.09272,0.00488,-0.08296,0.12932,-0.04392,0.16592,0.10248,0.05856,0.08784,0.10736
0.16592,-0.12932,0.09272,0.00976,-0.0732,0.11956,-0.02928,0.15616,0.09272,0.05856,0.07808,0.09272
0.15616,-0.12444,0.09272,0.01464,-0.06344,0.1098,-0.02928,0.1464,0.09272,0.05856,0.0732,0.08296
0.12688,-0.10492,0.08296,0.01952,-0.04392,0.0854,-0.0244,0.14152,0.09272,0.05856,0.07808,0.07808
0.11224,-0.09516,0.07808,0.02196,-0.03416,0.0732,-0.01464,0.13176,0.0976,0.0488,0.0732,0.0732
0.09272,-0.08052,0.06832,0.02196,-0.0244,0.05856,-0.01464,0.11224,0.08296,0.04392,0.06344,0.06344
0.05856,-0.05612,0.05368,0.0244,-0.00488,0.03172,-0.00488,0.10736,0.07808,0.04392,0.06344,0.05856
0.04392,-0.04392,0.04392,0.02196,0,0.02196,0,0.10248,0.06832,0.03904,0.05368,0.0488
0.02928,-0.03416,0.03904,0.0244,0.00976,0.00976,0.00976,0.0976,0.06832,0.02928,0.0488,0.04392
0.01952,-0.02684,0.03416,0.0244,0.01464,0.00244,0.01952,0.08784,0.06344,0.00976,0.03904,0.03416
0.02928,-0.03416,0.03904,0.0244,0.00976,0.00976,0.0244,0.08296,0.05368,0.00976,0.01952,0.0244
0,-0.01464,0.02928,0.02928,0.02928,-0.01464,0.01464,0.06832,0.05368,0.00976,0.01952,0.02928
-0.0244,0.00244,0.01952,0.03172,0.04392,-0.03416,0.00976,0.06344,0.0488,0.00976,0.01952,0.01952
-0.02928,0.00976,0.00976,0.0244,0.03904,-0.03416,0.00976,0.05368,0.03904,-0.00488,0.00976,0.00976
-0.02928,0.00488,0.01952,0.03416,0.0488,-0.03904,0.01464,0.0488,0.03904,-0.00488,0.00976,0.00976
-0.02928,0,0.02928,0.04392,0.05856,-0.04392,0.0244,0.0488,0.03904,-0.00488,0.00976,0.01952
-0.0488,0.00976,0.02928,0.05368,0.07808,-0.06344,0.0244,0.0488,0.03904,-0.00488,0.00976,0.01464
-0.03416,0.0122,0.00976,0.02684,0.04392,-0.03904,0.03416,0.03904,0.02928,-0.00976,0.00488,0.00976
-0.0244,0.00732,0.00976,0.02196,0.03416,-0.02928,0.03416,0.03904,0.02928,-0.01464,0.00488,0.00976
-0.0244,0.00976,0.00488,0.01708,0.02928,-0.02684,0.01952,0.02928,0.01952,-0.0244,-0.00976,-0.00488
-0.0488,0.02684,-0.00488,0.01952,0.04392,-0.04636,0.0244,0.02928,0.00976,-0.0244,-0.01464,-0.00488
-0.03416,0.0122,0.00976,0.02684,0.04392,-0.03904,0.03416,0.03416,0.01464,-0.02928,-0.00976,0.00488
-0.03416,0.0122,0.00976,0.02684,0.04392,-0.03904,0.03416,0.02928,0.01952,-0.02928,-0.00976,0.00488
-0.04392,0.01952,0.00488,0.02684,0.0488,-0.04636,0.03416,0.03416,0.01952,-0.0244,0,0.00976
-0.05368,0.0244,0.00488,0.03172,0.05856,-0.05612,0.03904,0.0244,0.01952,-0.0244,-0.00488,0.00976
-0.05368,0.0244,0.00488,0.03172,0.05856,-0.05612,0.03416,0.02928,0.01952,-0.02928,-0.01952,0
-0.05368,0.0244,0.00488,0.03172,0.05856,-0.05612,0.03416,0.02928,0.01952,-0.02928,-0.01952,0
-0.0488,0.02928,-0.00976,0.01464,0.03904,-0.04392,0.03416,0.02928,0.00976,-0.03904,-0.01464,0
-0.0488,0.02928,-0.00976,0.01464,0.03904,-0.04392,0.03904,0.02928,0.00976,-0.03904,-0.01952,-0.00488
-0.0488,0.03416,-0.01952,0.00488,0.02928,-0.03904,0.03416,0.02928,0.00976,-0.02928,-0.01952,0
-0.0488,0.03416,-0.01952,0.00488,0.02928,-0.03904,0.03904,0.02928,0.00976,-0.02928,-0.01952,0
-0.06344,0.0366,-0.00976,0.02196,0.05368,-0.05856,0.03904,0.0244,0.01952,-0.0244,-0.00976,0
-0.06344,0.03416,-0.00488,0.02684,0.05856,-0.061,0.04392,0.02928,0.01952,-0.0244,-0.00488,0
-0.05368,0.0244,0.00488,0.03172,0.05856,-0.05612,0.02928,0.03416,0.01952,-0.03416,-0.01952,-0.00976
-0.03904,0.01708,0.00488,0.0244,0.04392,-0.04148,0.02928,0.03416,0.01952,-0.03904,-0.01952,-0.00976
-0.03416,0.01952,-0.00488,0.0122,0.02928,-0.03172,0.03904,0.0244,0.00976,-0.05368,-0.02928,-0.00976
-0.0488,0.02684,-0.00488,0.01952,0.04392,-0.04636,0.03416,0.0244,0.00488,-0.05368,-0.02928,-0.01464
-0.05368,0.02928,-0.00488,0.02196,0.0488,-0.05124,0.02928,0.03416,0.01464,-0.04392,-0.0244,-0.00976
-0.05856,0.03172,-0.00488,0.0244,0.05368,-0.05612,0.02928,0.03904,0.01952,-0.03904,0,-0.00976
-0.0732,0.03416,0.00488,0.04148,0.07808,-0.07564,0.02928,0.0244,0.00976,-0.02928,-0.00976,0
-0.0732,0.03416,0.00488,0.04148,0.07808,-0.07564,0.02928,0.0244,0.00976,-0.0244,-0.01464,0
-0.0488,0.01952,0.00976,0.03416,0.05856,-0.05368,0.01952,0.03416,0.00976,-0.03416,-0.01464,-0.00976
-0.03416,0.0122,0.00976,0.02684,0.04392,-0.03904,0.01952,0.03416,0.00976,-0.03416,-0.01464,-0.00976
-0.03904,0.01708,0.00488,0.0244,0.04392,-0.04148,0.02928,0.0244,0.00976,-0.03904,-0.01464,0
-0.04392,0.01952,0.00488,0.02684,0.0488,-0.04636,0.02928,0.0244,0.00976,-0.03416,-0.01464,0.00488
-0.0488,0.02684,-0.00488,0.01952,0.04392,-0.04636,0.03904,0.03416,0.01952,-0.0244,0,-0.00488
-0.06832,0.0366,-0.00488,0.02928,0.06344,-0.06588,0.03904,0.02928,0.01952,-0.0244,0,-0.00488
-0.0732,0.04636,-0.01952,0.01708,0.05368,-0.06344,0.02928,0.02928,0.01952,-0.02928,-0.00976,0.00488
-0.06832,0.04148,-0.01464,0.01952,0.05368,-0.061,0.02928,0.02928,0.01464,-0.02928,-0.01464,0.00488
-0.0488,0.02684,-0.00488,0.01952,0.04392,-0.04636,0.0244,0.01952,0.00488,-0.03904,-0.01952,-0.00488
-0.03416,0.01464,0.00488,0.02196,0.03904,-0.0366,0.0244,0.01952,0.00488,-0.03416,-0.01464,-0.00488
-0.04392,0.02196,0,0.02196,0.04392,-0.04392,0.03416,0.02928,0.01952,-0.0244,-0.00488,0.00488
-0.08296,0.04148,0,0.04148,0.08296,-0.08296,0.04392,0.02928,0.01952,-0.0244,0,0.00488
-0.06344,0.02684,0.00976,0.04148,0.0732,-0.06832,0.03904,0.01464,0.01952,-0.03416,-0.00976,-0.00976
-0.06344,0.03172,0,0.03172,0.06344,-0.06344,0.03904,0.01464,0.00976,-0.03904,-0.01952,-0.00976
-0.06344,0.03416,-0.00488,0.02684,0.05856,-0.061,0.03904,0.01952,0.00488,-0.02928,-0.01952,-0.00976
-0.06344,0.03172,0,0.03172,0.06344,-0.06344,0.03416,0.01952,0.00488,-0.0244,-0.00976,-0.00976
-0.05856,0.0244,0.00976,0.03904,0.06832,-0.06344,0.03416,0.01952,0.01952,-0.03416,0,0
-0.06344,0.02684,0.00976,0.04148,0.0732,-0.06832,0.03416,0.01464,0.01464,-0.04392,-0.00488,0
-0.0488,0.02684,-0.00488,0.01952,0.04392,-0.04636,0.03416,0.01464,0.00976,-0.03416,-0.00976,-0.00976
-0.05368,0.03172,-0.00976,0.01708,0.04392,-0.0488,0.03416,0.01464,0.00976,-0.02928,-0.00976,-0.00976
-0.05856,0.03904,-0.01952,0.00976,0.03904,-0.0488,0.01952,0.00488,0,-0.04392,-0.0244,-0.0244
-0.06832,0.04148,-0.01464,0.01952,0.05368,-0.061,0.01952,-0.00976,-0.00976,-0.05368,-0.01952,-0.01952
-0.05856,0.02928,0,0.02928,0.05856,-0.05856,0.03416,0,0,-0.03904,-0.00488,0
-0.05368,0.02684,0,0.02684,0.05368,-0.05368,0.03904,0.00976,0.01464,-0.02928,-0.00488,0.00976
-0.06832,0.0366,-0.00488,0.02928,0.06344,-0.06588,0.03416,0,0,-0.03904,-0.01464,0
-0.07808,0.04148,-0.00488,0.03416,0.0732,-0.07564,0.02928,0,0,-0.03904,-0.01464,0
-0.06832,0.04148,-0.01464,0.01952,0.05368,-0.061,0.01952,-0.00488,-0.00488,-0.04392,-0.0244,-0.00976
-0.06832,0.04392,-0.01952,0.01464,0.0488,-0.05856,0.01952,-0.00488,-0.00976,-0.04392,-0.0244,-0.01464
-0.05368,0.03172,-0.00976,0.01708,0.04392,-0.0488,0.02928,0.00488,0.00488,-0.03416,-0.00976,-0.00488
-0.05856,0.02928,0,0.02928,0.05856,-0.05856,0.03416,0.00976,0.01464,-0.03904,-0.00976,-0.00488
-0.06344,0.02928,0.00488,0.0366,0.06832,-0.06588,0.03416,0,0.00488,-0.03416,-0.01464,-0.00488
-0.06344,0.02928,0.00488,0.0366,0.06832,-0.06588,0.02928,0,0.00488,-0.03416,-0.00976,-0.00488
-0.05856,0.02928,0,0.02928,0.05856,-0.05856,0.02928,0,-0.00976,-0.04392,-0.01952,-0.01464
-0.05856,0.02684,0.00488,0.03416,0.06344,-0.061,0.03416,0,-0.00488,-0.04392,-0.01464,-0.01464
-0.05856,0.03416,-0.00976,0.01952,0.0488,-0.05368,0.02928,0,-0.00488,-0.0488,-0.0244,-0.01464
-0.06832,0.04148,-0.01464,0.01952,0.05368,-0.061,0.02928,0,-0.01464,-0.0488,-0.02928,-0.01464
-0.05368,0.03172,-0.00976,0.01708,0.04392,-0.0488,0.02928,-0.00488,0,-0.0488,-0.02928,-0.01464
-0.05368,0.03416,-0.01464,0.0122,0.03904,-0.04636,0.02928,-0.00488,-0.00488,-0.05368,-0.0244,-0.01464
-0.0732,0.04148,-0.00976,0.02684,0.06344,-0.06832,0.01952,-0.00488,-0.00488,-0.05368,-0.03416,-0.01464
-0.07808,0.04636,-0.01464,0.0244,0.06344,-0.07076,0.01952,-0.00488,0,-0.05368,-0.02928,-0.01464
-0.06832,0.0366,-0.00488,0.02928,0.06344,-0.06588,0.02928,-0.00488,-0.00488,-0.04392,-0.01952,-0.00488
-0.06344,0.02928,0.00488,0.0366,0.06832,-0.06588,0.02928,-0.00488,-0.00488,-0.03904,-0.01464,-0.00976
-0.03904,0.01708,0.00488,0.0244,0.04392,-0.04148,0.01952,-0.01464,-0.01464,-0.05368,-0.0244,-0.01952
-0.03416,0.01708,0,0.01708,0.03416,-0.03416,0.01952,-0.01464,-0.01464,-0.05368,-0.03416,-0.01952
-0.06344,0.0366,-0.00976,0.02196,0.05368,-0.05856,0.02928,-0.00488,-0.00488,-0.04392,-0.0244,-0.01464
-0.09272,0.05612,-0.01952,0.02684,0.0732,-0.08296,0.0244,-0.00488,-0.00488,-0.0488,-0.0244,-0.00976
-0.08296,0.04636,-0.00976,0.03172,0.0732,-0.07808,0.02928,-0.01952,-0.01464,-0.04392,-0.0244,-0.01952
-0.06832,0.03416,0,0.03416,0.06832,-0.06832,0.0244,-0.01952,-0.01464,-0.0488,-0.0244,-0.01952
-0.06344,0.03172,0,0.03172,0.06344,-0.06344,0.01952,-0.01464,-0.01464,-0.0488,-0.01952,-0.0244
-0.06832,0.03416,0,0.03416,0.06832,-0.06832,0.01952,-0.01464,-0.01464,-0.0488,-0.01952,-0.0244
-0.0732,0.04636,-0.01952,0.01708,0.05368,-0.06344,0.01952,-0.01952,-0.01464,-0.05368,-0.02928,-0.01952
-0.0732,0.04636,-0.01952,0.01708,0.05368,-0.06344,0.01952,-0.01952,-0.01952,-0.05368,-0.03416,-0.01952
-0.0732,0.04148,-0.00976,0.02684,0.06344,-0.06832,0.01952,-0.00976,-0.00976,-0.0488,-0.01952,-0.01952
-0.0732,0.0366,0,0.0366,0.0732,-0.0732,0.01952,-0.00976,-0.00488,-0.0488,-0.01464,-0.01464
-0.05368,0.02196,0.00976,0.0366,0.06344,-0.05856,0.02928,-0.00976,-0.00976,-0.03904,-0.0244,-0.01952
-0.05368,0.03416,-0.01464,0.0122,0.03904,-0.04636,0.02928,-0.00488,-0.00488,-0.03904,-0.0244,-0.01952
-0.06832,0.03416,0,0.03416,0.06832,-0.06832,0.01952,-0.00488,-0.01952,-0.0488,-0.02928,-0.01464
-0.06832,0.03416,0,0.03416,0.06832,-0.06832,0.00976,-0.00976,-0.01952,-0.0488,-0.02928,-0.01464
-0.05856,0.02928,0,0.02928,0.05856,-0.05856,0.01464,-0.01952,-0.01464,-0.05368,-0.02928,-0.0244
-0.05856,0.02928,0,0.02928,0.05856,-0.05856,0.01464,-0.01952,-0.00976,-0.05368,-0.02928,-0.02928
-0.06832,0.03904,-0.00976,0.0244,0.05856,-0.06344,0.01952,-0.01952,-0.01952,-0.05856,-0.02928,-0.0244
-0.08296,0.05124,-0.01952,0.02196,0.06344,-0.0732,0.01464,-0.01952,-0.01952,-0.05368,-0.02928,-0.0244
-0.06832,0.04392,-0.01952,0.01464,0.0488,-0.05856,0.01952,-0.01952,-0.00976,-0.05368,-0.0244,-0.01464
-0.06832,0.04392,-0.01952,0.01464,0.0488,-0.05856,0.01952,-0.00976,-0.00976,-0.0488,-0.02928,-0.01952
-0.06832,0.04392,-0.01952,0.01464,0.0488,-0.05856,0.01952,-0.00976,-0.00976,-0.0488,-0.02928,-0.01952
-0.07808,0.0488,-0.01952,0.01952,0.05856,-0.06832,0.01952,-0.01952,-0.00976,-0.0488,-0.02928,-0.01952
-0.07808,0.05368,-0.02928,0.00976,0.0488,-0.06344,0.01952,-0.01952,-0.00976,-0.0488,-0.02928,-0.01952
-0.05856,0.04148,-0.0244,0.00488,0.03416,-0.04636,0.00976,-0.01952,-0.01952,-0.05368,-0.02928,-0.02928
-0.05368,0.02684,0,0.02684,0.05368,-0.05368,0.00976,-0.01952,-0.01952,-0.0488,-0.03416,-0.02928
-0.0488,0.02928,-0.00976,0.01464,0.03904,-0.04392,0.01464,-0.0244,-0.01952,-0.05368,-0.03416,-0.02928
-0.05368,0.02928,-0.00488,0.02196,0.0488,-0.05124,0.01464,-0.01952,-0.0244,-0.05368,-0.03416,-0.02928
-0.04392,0.02684,-0.00976,0.0122,0.03416,-0.03904,0.00488,-0.01952,-0.01952,-0.0488,-0.03416,-0.02928
-0.05856,0.0366,-0.01464,0.01464,0.04392,-0.05124,0.00976,-0.01464,-0.01952,-0.0488,-0.03416,-0.02928
-0.05856,0.03172,-0.00488,0.0244,0.05368,-0.05612,0.01464,-0.00488,0,-0.03416,-0.02928,-0.01464
-0.0488,0.02684,-0.00488,0.01952,0.04392,-0.04636,0.0244,-0.00488,-0.00488,-0.03416,-0.01952,-0.01464
-0.0488,0.0244,0,0.0244,0.0488,-0.0488,0.01464,-0.01464,-0.01464,-0.04392,-0.0244,-0.01464
-0.04392,0.01708,0.00976,0.03172,0.05368,-0.0488,0.01464,-0.01464,-0.00976,-0.03904,-0.01464,-0.00488
-0.04392,0.01708,0.00976,0.03172,0.05368,-0.0488,0.01952,-0.00976,0,-0.03416,-0.00976,0
-0.03904,0.0122,0.01464,0.03416,0.05368,-0.04636,0.01952,0,0.00976,-0.0244,-0.00488,0.00976
-0.0244,-0.00732,0.03904,0.05124,0.06344,-0.04392,0.03416,0.03416,0.02928,-0.00976,0.00976,0.01952
-0.01464,-0.01708,0.0488,0.05612,0.06344,-0.03904,0.04392,0.03416,0.03416,-0.00488,0.01952,0.01952
-0.01464,-0.02196,0.05856,0.06588,0.0732,-0.04392,0.05368,0.04392,0.03904,0.00488,0.0244,0.0244
-0.00976,-0.02196,0.05368,0.05856,0.06344,-0.0366,0.05856,0.04392,0.03416,-0.00488,0.0244,0.0244
-0.01952,-0.0122,0.04392,0.05368,0.06344,-0.04148,0.05856,0.03904,0.0244,-0.00488,0.01464,0.01464
-0.01464,-0.00976,0.03416,0.04148,0.0488,-0.03172,0.03904,0.01464,0.01952,-0.01952,0.00488,0.00488
0.00976,-0.02196,0.03416,0.02928,0.0244,-0.00732,0.01952,0.00488,0.00488,-0.01464,0,0.00488
0.00976,-0.01708,0.0244,0.01952,0.01464,-0.00244,-0.00488,-0.00488,-0.00488,-0.0244,-0.00976,0.00488
-0.00488,-0.00244,0.00976,0.0122,0.01464,-0.00976,-0.0244,-0.01952,-0.0244,-0.03416,-0.01952,-0.00976
-0.0244,0.00488,0.01464,0.02684,0.03904,-0.03172,-0.0244,-0.03416,-0.02928,-0.0488,-0.02928,-0.01464
-0.0244,0.01464,-0.00488,0.00732,0.01952,-0.02196,-0.01464,-0.03416,-0.02928,-0.0488,-0.02928,-0.00488
-0.03416,0.02196,-0.00976,0.00732,0.0244,-0.02928,-0.00488,-0.02928,-0.02928,-0.0488,-0.02928,-0.00976
-0.03904,0.0244,-0.00976,0.00976,0.02928,-0.03416,0,-0.01464,-0.01464,-0.03904,-0.0244,0
-0.0488,0.02684,-0.00488,0.01952,0.04392,-0.04636,0.00976,-0.01464,-0.00976,-0.03904,-0.0244,0
-0.0488,0.02684,-0.00488,0.01952,0.04392,-0.04636,0.01464,-0.00976,-0.00976,-0.05368,-0.03416,-0.01464
-0.05856,0.0366,-0.01464,0.01464,0.04392,-0.05124,0.00976,-0.0244,-0.01952,-0.05856,-0.03416,-0.0244
-0.05368,0.03904,-0.0244,0.00244,0.02928,-0.04148,0.00488,-0.03416,-0.02928,-0.05856,-0.04392,-0.02928
-0.06344,0.04392,-0.0244,0.00732,0.03904,-0.05124,0.00488,-0.03416,-0.03416,-0.06344,-0.04392,-0.0244
-0.05368,0.03416,-0.01464,0.0122,0.03904,-0.04636,0.01464,-0.0244,-0.02928,-0.06344,-0.04392,-0.0244
-0.0488,0.03416,-0.01952,0.00488,0.02928,-0.03904,0.01464,-0.0244,-0.02928,-0.05856,-0.04392,-0.0244
-0.0488,0.0366,-0.0244,0,0.0244,-0.0366,0.00976,-0.0244,-0.01952,-0.05856,-0.04392,-0.03416
-0.06344,0.04392,-0.0244,0.00732,0.03904,-0.05124,0.00976,-0.0244,-0.01952,-0.05856,-0.03416,-0.03416
-0.06344,0.04636,-0.02928,0.00244,0.03416,-0.0488,0.00976,-0.01464,-0.01952,-0.0488,-0.02928,-0.0244
-0.08296,0.05612,-0.02928,0.0122,0.05368,-0.06832,0.00976,-0.0244,-0.01952,-0.05856,-0.03904,-0.02928
-0.08784,0.05856,-0.02928,0.01464,0.05856,-0.0732,0.02928,-0.0244,-0.01464,-0.04392,-0.0244,-0.01952
-0.0976,0.04148,0.01464,0.06344,0.11224,-0.10492,0.04392,0.00976,0.01952,-0.01464,0.00976,-0.00976
-0.12688,0.02196,0.08296,0.1464,0.20984,-0.16836,0.10736,0.10736,0.12688,0.0732,0.06832,0.03904
-0.11712,0.00488,0.10736,0.16592,0.22448,-0.1708,0.17568,0.20008,0.23912,0.18056,0.16104,0.10248
-0.08784,-0.02684,0.14152,0.18544,0.22936,-0.1586,0.19032,0.2928,0.34648,0.30256,0.27328,0.1708
0.03416,-0.0854,0.13664,0.11956,0.10248,-0.03416,0.13176,0.366,0.366,0.35136,0.3172,0.21472
0.2196,-0.16348,0.10736,-0.00244,-0.11224,0.16592,0.04392,0.42944,0.37576,0.37576,0.35136,0.25864
0.44408,-0.27328,0.10248,-0.11956,-0.3416,0.39284,-0.122,0.31232,0.32208,0.38552,0.39528,0.33184
0.56608,-0.33916,0.11224,-0.1708,-0.45384,0.50996,-0.2196,0.20008,0.28304,0.38552,0.40504,0.3904
0.64904,-0.33916,0.02928,-0.29524,-0.61976,0.6344,-0.35136,-0.06344,0.0244,0.13176,0.18544,0.27328
0.73688,-0.33672,-0.06344,-0.43188,-0.80032,0.7686,-0.488,-0.34648,-0.27328,-0.19032,-0.11712,0.06344
0.7076,-0.28548,-0.13664,-0.49044,-0.84424,0.77592,-0.61976,-0.62464,-0.5124,-0.38552,-0.27816,-0.03416
0.55632,-0.19032,-0.17568,-0.45384,-0.732,0.64416,-0.68808,-0.89304,-0.71736,-0.55144,-0.40504,-0.122
0.366,-0.05612,-0.25376,-0.43676,-0.61976,0.49288,-0.67832,-1.11752,-0.94184,-0.76128,-0.57584,-0.244
0.25864,0.01464,-0.28792,-0.41724,-0.54656,0.4026,-0.64416,-1.10288,-0.9516,-0.79544,-0.62464,-0.3172
0.18056,0.06832,-0.3172,-0.40748,-0.49776,0.33916,-0.55632,-0.98088,-0.88328,-0.79056,-0.62952,-0.3416
0.122,0.10492,-0.33184,-0.39284,-0.45384,0.28792,-0.4392,-0.76128,-0.73688,-0.67832,-0.55632,-0.3172
0.05368,0.11224,-0.27816,-0.305,-0.33184,0.19276,-0.28792,-0.52704,-0.52704,-0.50264,-0.40504,-0.22936
-0.01952,0.0976,-0.17568,-0.16592,-0.15616,0.06832,-0.16104,-0.3416,-0.34648,-0.33184,-0.26352,-0.16104
-0.00488,0.05612,-0.10736,-0.10492,-0.10248,0.0488,-0.11224,-0.244,-0.23912,-0.24888,-0.1952,-0.122
0.01464,0.03172,-0.07808,-0.0854,-0.09272,0.05368,-0.0976,-0.17568,-0.1708,-0.1952,-0.15616,-0.08296
-0.00976,0.04148,-0.0732,-0.06832,-0.06344,0.02684,-0.0488,-0.07808,-0.10736,-0.1464,-0.11224,-0.06344
-0.0244,0.02684,-0.02928,-0.01708,-0.00488,-0.00976,-0.0244,-0.06344,-0.09272,-0.10736,-0.08784,-0.05856
-0.03416,0.03416,-0.03416,-0.01708,0,-0.01708,-0.01464,-0.06344,-0.07808,-0.10248,-0.06832,-0.03904
-0.03904,0.0366,-0.03416,-0.01464,0.00488,-0.02196,-0.00976,-0.05368,-0.06832,-0.10248,-0.0732,-0.04392
-0.03416,0.03172,-0.02928,-0.0122,0.00488,-0.01952,0,-0.03416,-0.0488,-0.08296,-0.06344,-0.03416
-0.03904,0.03172,-0.0244,-0.00488,0.01464,-0.02684,0,-0.0244,-0.04392,-0.07808,-0.05856,-0.01952
-0.05368,0.03904,-0.0244,0.00244,0.02928,-0.04148,0.00488,-0.02928,-0.0488,-0.07808,-0.0488,-0.0244
-0.06344,0.04148,-0.01952,0.0122,0.04392,-0.05368,0.01464,-0.01952,-0.04392,-0.07808,-0.0488,-0.0244
-0.05368,0.04636,-0.03904,-0.0122,0.01464,-0.03416,0.01464,-0.00976,-0.02928,-0.06832,-0.03904,-0.01952
-0.05856,0.04636,-0.03416,-0.00488,0.0244,-0.04148,0.01952,-0.00976,-0.0244,-0.06344,-0.03904,-0.01952
-0.05856,0.04636,-0.03416,-0.00488,0.0244,-0.04148,0.01952,-0.0244,-0.03416,-0.05856,-0.04392,-0.02928
-0.05856,0.04148,-0.0244,0.00488,0.03416,-0.04636,0.01952,-0.01952,-0.03416,-0.05856,-0.03904,-0.02928
-0.06344,0.04392,-0.0244,0.00732,0.03904,-0.05124,0.0244,-0.00488,-0.0244,-0.05856,-0.04392,-0.02928
-0.05368,0.0366,-0.01952,0.00732,0.03416,-0.04392,0.0244,0,-0.01952,-0.05856,-0.04392,-0.0244
-0.05368,0.04148,-0.02928,-0.00244,0.0244,-0.03904,0.0244,0,-0.01952,-0.06832,-0.05368,-0.02928
-0.05368,0.04148,-0.02928,-0.00244,0.0244,-0.03904,0.0244,-0.00488,-0.01952,-0.06832,-0.05368,-0.02928
-0.06832,0.05124,-0.03416,0,0.03416,-0.05124,0.01464,-0.00976,-0.02928,-0.06832,-0.05368,-0.02928
-0.05368,0.04392,-0.03416,-0.00732,0.01952,-0.0366,0.01464,-0.00976,-0.02928,-0.06832,-0.05368,-0.02928
-0.05368,0.03416,-0.01464,0.0122,0.03904,-0.04636,0.01952,-0.00488,-0.0244,-0.0732,-0.0488,-0.0244
-0.05856,0.0366,-0.01464,0.01464,0.04392,-0.05124,0.02928,0,-0.0244,-0.06832,-0.04392,-0.0244
-0.06832,0.04636,-0.0244,0.00976,0.04392,-0.05612,0.02928,0,-0.01464,-0.06344,-0.03904,-0.0244
-0.05856,0.04392,-0.02928,0,0.02928,-0.04392,0.02928,0,-0.01464,-0.06344,-0.03904,-0.0244
-0.03904,0.02684,-0.01464,0.00488,0.0244,-0.03172,0.0244,0.00976,-0.01464,-0.06344,-0.0488,-0.0244
-0.0488,0.03416,-0.01952,0.00488,0.02928,-0.03904,0.0244,0.00976,-0.01464,-0.06344,-0.0488,-0.0244
-0.03904,0.03172,-0.0244,-0.00488,0.01464,-0.02684,0.01952,0,-0.01952,-0.06832,-0.0488,-0.03416
-0.03416,0.03172,-0.02928,-0.0122,0.00488,-0.01952,0.01464,0,-0.0244,-0.06832,-0.0488,-0.03416
-0.0488,0.0366,-0.0244,0,0.0244,-0.0366,0.0244,0.00488,-0.01464,-0.06832,-0.0488,-0.03416
-0.05368,0.03904,-0.0244,0.00244,0.02928,-0.04148,0.02928,0.00488,-0.01464,-0.06832,-0.0488,-0.03416
-0.05368,0.03904,-0.0244,0.00244,0.02928,-0.04148,0.0244,0.01464,-0.00976,-0.05856,-0.03904,-0.0244
-0.05368,0.04148,-0.02928,-0.00244,0.0244,-0.03904,0.02928,0.01464,-0.00976,-0.0488,-0.03904,-0.01952
-0.0488,0.03416,-0.01952,0.00488,0.02928,-0.03904,0.01952,0.00976,-0.00976,-0.05856,-0.0488,-0.01952
-0.0488,0.03172,-0.01464,0.00976,0.03416,-0.04148,0.01952,0.00976,-0.00976,-0.05856,-0.04392,-0.01952
-0.0488,0.02684,-0.00488,0.01952,0.04392,-0.04636,0.02928,0.00976,-0.01464,-0.05856,-0.04392,-0.01952
-0.03904,0.02196,-0.00488,0.01464,0.03416,-0.0366,0.02928,0.01464,-0.01464,-0.05368,-0.03904,-0.01952
-0.0488,0.02928,-0.00976,0.01464,0.03904,-0.04392,0.0244,0.02928,-0.00488,-0.04392,-0.02928,-0.01952
-0.0488,0.02684,-0.00488,0.01952,0.04392,-0.04636,0.0244,0.02928,-0.00488,-0.04392,-0.02928,-0.01952
-0.03904,0.0244,-0.00976,0.00976,0.02928,-0.03416,0.0244,0.02928,0,-0.04392,-0.01952,-0.00976
-0.0488,0.03172,-0.01464,0.00976,0.03416,-0.04148,0.01952,0.02928,-0.00488,-0.04392,-0.01952,-0.00976
-0.0244,0.01708,-0.00976,0.00244,0.01464,-0.01952,0.01952,0.04392,-0.00488,-0.05368,-0.0244,-0.01464
-0.0244,0.0122,0,0.0122,0.0244,-0.0244,0.01952,0.04392,0,-0.0488,-0.0244,-0.00976
-0.01952,0.00732,0.00488,0.01464,0.0244,-0.02196,0.00976,0.03416,-0.00976,-0.0488,-0.03416,-0.01952
-0.01952,0.00732,0.00488,0.01464,0.0244,-0.02196,0.00488,0.03416,-0.00488,-0.04392,-0.02928,-0.01952
