i,aVR,ii,aVF,iii,aVL,V1,V2,V3,V4,V5,V6
-0.11224,0.10004,-0.08784,-0.03172,0.0244,-0.06832,-0.01464,-0.0488,-0.09272,-0.14152,-0.14152,-0.07808
-0.14152,0.12444,-0.10736,-0.0366,0.03416,-0.08784,-0.01464,-0.0488,-0.09272,-0.14152,-0.13176,-0.07808
-0.122,0.10248,-0.08296,-0.02196,0.03904,-0.08052,-0.01464,-0.04392,-0.08296,-0.1464,-0.12688,-0.05856
-0.0732,0.0488,-0.0244,0.0122,0.0488,-0.061,-0.01464,-0.03416,-0.08784,-0.1464,-0.122,-0.05856
-0.01952,0.00732,0.00488,0.01464,0.0244,-0.02196,0.00488,-0.01952,-0.06344,-0.13176,-0.10736,-0.05368
-0.01952,0.00976,0,0.00976,0.01952,-0.01952,0.00488,-0.02928,-0.0732,-0.13176,-0.10736,-0.05856
-0.02928,0.02684,-0.0244,-0.00976,0.00488,-0.01708,0,-0.04392,-0.07808,-0.13664,-0.12688,-0.0732
-0.0488,0.03904,-0.02928,-0.00488,0.01952,-0.03416,0,-0.04392,-0.08784,-0.13664,-0.12688,-0.0732
-0.0488,0.03416,-0.01952,0.00488,0.02928,-0.03904,0,-0.03904,-0.08296,-0.14152,-0.12688,-0.06344
-0.0488,0.03904,-0.02928,-0.00488,0.01952,-0.03416,0,-0.03416,-0.08296,-0.14152,-0.11712,-0.06344
-0.04392,0.04636,-0.0488,-0.02684,-0.00488,-0.01952,-0.00488,-0.03416,-0.08784,-0.14152,-0.11712,-0.05856
-0.0488,0.05368,-0.05856,-0.03416,-0.00976,-0.01952,-0.00976,-0.05368,-0.10248,-0.14152,-0.12688,-0.0732
-0.04392,0.05124,-0.05856,-0.0366,-0.01464,-0.01464,-0.01464,-0.05856,-0.10248,-0.15616,-0.13664,-0.0732
-0.05856,0.06344,-0.06832,-0.03904,-0.00976,-0.0244,-0.0244,-0.06344,-0.10736,-0.16104,-0.13664,-0.07808
-0.0732,0.07808,-0.08296,-0.04636,-0.00976,-0.03172,-0.03416,-0.06832,-0.11712,-0.17568,-0.15128,-0.09272
-0.08296,0.07564,-0.06832,-0.02684,0.01464,-0.0488,-0.02928,-0.05368,-0.11224,-0.16592,-0.1464,-0.08784
-0.04392,0.0366,-0.02928,-0.00732,0.01464,-0.02928,-0.01464,-0.03416,-0.08784,-0.1464,-0.12688,-0.06344
-0.0244,0.01952,-0.01464,-0.00244,0.00976,-0.01708,-0.00488,-0.01952,-0.0732,-0.13176,-0.10736,-0.05368
-0.04392,0.0366,-0.02928,-0.00732,0.01464,-0.02928,0,-0.0244,-0.0732,-0.12688,-0.09272,-0.04392
-0.07808,0.06832,-0.05856,-0.01952,0.01952,-0.0488,-0.00488,-0.02928,-0.08784,-0.13176,-0.10248,-0.05368
-0.08296,0.06588,-0.0488,-0.00732,0.03416,-0.05856,-0.00976,-0.03416,-0.0976,-0.1464,-0.122,-0.05856
-0.0488,0.03904,-0.02928,-0.00488,0.01952,-0.03416,-0.00976,-0.03416,-0.09272,-0.14152,-0.11712,-0.06832
-0.03416,0.02928,-0.0244,-0.00732,0.00976,-0.02196,0.01464,-0.01464,-0.06344,-0.122,-0.0976,-0.04392
-0.06832,0.0732,-0.07808,-0.04392,-0.00976,-0.02928,0.00976,-0.00976,-0.0488,-0.11712,-0.08784,-0.02928
-0.0488,0.05368,-0.05856,-0.03416,-0.00976,-0.01952,0,-0.02928,-0.06832,-0.13664,-0.10736,-0.0488
-0.03904,0.04392,-0.0488,-0.02928,-0.00976,-0.01464,-0.00976,-0.0488,-0.08784,-0.1464,-0.12688,-0.06832
-0.05856,0.0488,-0.03904,-0.00976,0.01952,-0.03904,-0.00488,-0.03904,-0.08784,-0.14152,-0.12688,-0.0732
-0.03904,0.01708,0.00488,0.0244,0.04392,-0.04148,0.00488,-0.01952,-0.07808,-0.12688,-0.10248,-0.05368
-0.03904,0.0122,0.01464,0.03416,0.05368,-0.04636,0.01952,-0.0244,-0.0488,-0.12688,-0.0976,-0.0488
-0.03904,0.00976,0.01952,0.03904,0.05856,-0.0488,0.03416,-0.00976,-0.03904,-0.11712,-0.09272,-0.0488
-0.06344,0.02684,0.00976,0.04148,0.0732,-0.06832,0.04392,-0.0244,-0.04392,-0.11224,-0.09272,-0.05368
-0.07808,0.03416,0.00976,0.0488,0.08784,-0.08296,0.04392,-0.0244,-0.04392,-0.11224,-0.09272,-0.05368
-0.05368,0.0122,0.02928,0.05612,0.08296,-0.06832,0.05368,0,-0.01952,-0.10736,-0.08296,-0.03904
-0.03904,-0.0122,0.06344,0.08296,0.10248,-0.07076,0.05368,0,-0.01464,-0.10248,-0.08296,-0.03416
-0.02928,-0.0122,0.05368,0.06832,0.08296,-0.05612,0.0732,0.00976,-0.00976,-0.08784,-0.06344,-0.01464
-0.03416,0,0.03416,0.05124,0.06832,-0.05124,0.05368,-0.00488,-0.01464,-0.09272,-0.0732,-0.0244
-0.04392,0.00488,0.03416,0.05612,0.07808,-0.061,0.02928,-0.00976,-0.00976,-0.09272,-0.06344,-0.01952
-0.04392,0.00244,0.03904,0.061,0.08296,-0.06344,0.0244,-0.03416,-0.01952,-0.0976,-0.06344,-0.01464
-0.0244,-0.01464,0.05368,0.06588,0.07808,-0.05124,0,-0.04392,-0.03904,-0.10248,-0.06832,-0.01952
-0.0244,-0.00732,0.03904,0.05124,0.06344,-0.04392,-0.00488,-0.04392,-0.03904,-0.09272,-0.06344,-0.01464
-0.02928,-0.0122,0.05368,0.06832,0.08296,-0.05612,-0.00976,-0.03416,-0.0244,-0.0976,-0.0488,-0.01464
-0.03416,-0.00976,0.05368,0.07076,0.08784,-0.061,-0.00488,-0.03416,-0.01464,-0.0976,-0.05368,-0.00976
-0.0732,0.03172,0.00976,0.04636,0.08296,-0.07808,-0.0244,-0.06832,-0.06344,-0.13664,-0.08784,-0.04392
-0.07808,0.03904,0,0.03904,0.07808,-0.07808,-0.03904,-0.07808,-0.07808,-0.13664,-0.10248,-0.05856
-0.02928,0,0.02928,0.04392,0.05856,-0.04392,-0.03416,-0.06832,-0.06832,-0.12688,-0.07808,-0.02928
0.00976,-0.0244,0.03904,0.03416,0.02928,-0.00976,-0.03416,-0.06344,-0.08784,-0.12688,-0.08296,-0.02928
-0.01464,-0.00976,0.03416,0.04148,0.0488,-0.03172,-0.03904,-0.06344,-0.08296,-0.13176,-0.08296,-0.03416
-0.01464,-0.00244,0.01952,0.02684,0.03416,-0.0244,-0.03904,-0.03904,-0.08296,-0.13176,-0.07808,-0.03416
-0.00488,0.00244,0,0.00244,0.00488,-0.00488,-0.0244,-0.02928,-0.0732,-0.122,-0.07808,-0.02928
-0.0244,0.0244,-0.0244,-0.0122,0,-0.0122,-0.01952,-0.0244,-0.0732,-0.122,-0.07808,-0.02928
-0.03416,0.03904,-0.04392,-0.02684,-0.00976,-0.0122,-0.02928,-0.03416,-0.08784,-0.14152,-0.09272,-0.0488
-0.03904,0.04392,-0.0488,-0.02928,-0.00976,-0.01464,-0.01952,-0.02928,-0.08784,-0.1464,-0.10248,-0.05856
-0.0488,0.05856,-0.06832,-0.04392,-0.01952,-0.01464,-0.0244,-0.0488,-0.09272,-0.15616,-0.12688,-0.0732
-0.08784,0.10004,-0.11224,-0.06832,-0.0244,-0.03172,-0.02928,-0.06832,-0.0976,-0.1708,-0.13664,-0.08784
-0.05368,0.07808,-0.10248,-0.07564,-0.0488,-0.00244,-0.02928,-0.06832,-0.10736,-0.1708,-0.13664,-0.08784
-0.02928,0.05612,-0.08296,-0.06832,-0.05368,0.0122,-0.02928,-0.0732,-0.11712,-0.18056,-0.14152,-0.09272
-0.03416,0.04392,-0.05368,-0.0366,-0.01952,-0.00732,-0.01464,-0.05856,-0.10248,-0.1708,-0.12688,-0.08296
-0.0488,0.03904,-0.02928,-0.00488,0.01952,-0.03416,-0.00488,-0.04392,-0.0976,-0.16592,-0.11712,-0.06832
-0.06344,0.05124,-0.03904,-0.00732,0.0244,-0.04392,0,-0.02928,-0.08784,-0.16592,-0.10736,-0.06832
-0.06832,0.061,-0.05368,-0.01952,0.01464,-0.04148,0,-0.03416,-0.08784,-0.16104,-0.10736,-0.0732
-0.06832,0.05856,-0.0488,-0.01464,0.01952,-0.04392,-0.00976,-0.04392,-0.0976,-0.1708,-0.12688,-0.07808
-0.05856,0.061,-0.06344,-0.03416,-0.00488,-0.02684,-0.00976,-0.03904,-0.0976,-0.1708,-0.11712,-0.07808
-0.0732,0.06832,-0.06344,-0.02684,0.00976,-0.04148,-0.00488,-0.04392,-0.10248,-0.18056,-0.13176,-0.08296
-0.0732,0.07564,-0.07808,-0.04148,-0.00488,-0.03416,-0.00488,-0.05856,-0.11224,-0.18056,-0.13664,-0.08784
-0.08784,0.10004,-0.11224,-0.06832,-0.0244,-0.03172,-0.01952,-0.06832,-0.11224,-0.18056,-0.13176,-0.08784
-0.10248,0.11468,-0.12688,-0.07564,-0.0244,-0.03904,-0.01952,-0.06832,-0.10736,-0.18056,-0.13176,-0.08784
-0.0488,0.04392,-0.03904,-0.01464,0.00976,-0.02928,-0.00976,-0.06832,-0.06344,-0.15616,-0.11712,-0.08296
-0.10736,0.08784,-0.06832,-0.01464,0.03904,-0.0732,-0.0244,-0.08784,-0.06344,-0.12688,-0.08296,-0.0244
0.01952,-0.07076,0.122,0.11224,0.10248,-0.04148,-0.03416,-0.10736,-0.0244,-0.06344,-0.03904,0.01464
0.00488,-0.10004,0.1952,0.19276,0.19032,-0.09272,-0.0244,-0.13176,0.09272,0.0488,0.07808,0.0976
0.00976,-0.10248,0.1952,0.19032,0.18544,-0.08784,-0.03416,-0.19032,0.1464,0.15128,0.1952,0.16104
0.06344,-0.17324,0.28304,0.25132,0.2196,-0.07808,-0.15616,-0.53192,0.0732,0.35624,0.44896,0.32696
0.15616,-0.27328,0.3904,0.31232,0.23424,-0.03904,-0.30744,-0.8296,0.00488,0.71248,0.84912,0.58072
0.25864,-0.39772,0.5368,0.40748,0.27816,-0.00976,-0.44896,-1.0736,-0.13664,1.11264,1.29808,0.80032
0.40992,-0.4758,0.54168,0.33672,0.13176,0.13908,-0.62464,-1.08336,-0.2196,1.56648,1.83,1.03456
0.5856,-0.57096,0.55632,0.26352,-0.02928,0.30744,-0.9272,-1.16144,-0.4636,2.01056,2.41072,1.31272
0.76128,-0.61732,0.47336,0.09272,-0.28792,0.5246,-1.25904,-1.19072,-0.79056,2.28872,2.82552,1.50792
0.74664,-0.44164,0.13664,-0.23668,-0.61,0.67832,-1.45912,-1.15168,-0.93696,2.44976,2.82064,1.342
0.7564,-0.427,0.0976,-0.2806,-0.6588,0.7076,-1.37616,-1.11752,-0.89304,2.32776,2.47416,1.13216
0.73688,-0.36356,-0.00976,-0.3782,-0.74664,0.74176,-1.08824,-1.01992,-0.77104,1.83976,1.76656,0.7564
0.50264,-0.1708,-0.16104,-0.41236,-0.66368,0.58316,-0.81008,-0.83448,-0.64904,1.18584,1.00528,0.42944
0.32208,-0.05612,-0.20984,-0.37088,-0.53192,0.427,-0.5124,-0.56608,-0.54656,0.45384,0.31232,0.122
0.12688,0.06344,-0.25376,-0.3172,-0.38064,0.25376,-0.32208,-0.37576,-0.47336,-0.1464,-0.11224,-0.08784
0.04392,0.0976,-0.23912,-0.26108,-0.28304,0.16348,-0.19032,-0.21472,-0.37576,-0.30256,-0.19032,-0.12688
0,0.0854,-0.1708,-0.1708,-0.1708,0.0854,-0.10248,-0.11712,-0.244,-0.20008,-0.15616,-0.122
-0.00488,0.06588,-0.12688,-0.12444,-0.122,0.05856,-0.01464,-0.02928,-0.122,-0.1464,-0.12688,-0.07808
-0.01952,0.0488,-0.07808,-0.06832,-0.05856,0.01952,-0.00976,-0.01952,-0.08784,-0.13176,-0.11224,-0.0732
-0.04392,0.05856,-0.0732,-0.05124,-0.02928,-0.00732,0.01952,0.0244,-0.03416,-0.10248,-0.10736,-0.06832
-0.03904,0.06588,-0.09272,-0.0732,-0.05368,0.00732,0.03904,0.06832,-0.01464,-0.13176,-0.13176,-0.07808
-0.03416,0.05368,-0.0732,-0.05612,-0.03904,0.00244,0.0488,0.0732,-0.01464,-0.15616,-0.16104,-0.10248
-0.0244,0.04636,-0.06832,-0.05612,-0.04392,0.00976,0.06832,0.07808,-0.00488,-0.15128,-0.15128,-0.09272
-0.05368,0.07076,-0.08784,-0.061,-0.03416,-0.00976,0.05368,0.07808,0,-0.15128,-0.15128,-0.09272
-0.07808,0.08784,-0.0976,-0.05856,-0.01952,-0.02928,0.05368,0.10736,0.00488,-0.16104,-0.16104,-0.10248
-0.10736,0.10248,-0.0976,-0.04392,0.00976,-0.05856,0.0732,0.122,0.01464,-0.15128,-0.15616,-0.09272
-0.122,0.10248,-0.08296,-0.02196,0.03904,-0.08052,0.0732,0.122,0.00976,-0.15128,-0.15616,-0.09272
-0.06832,0.05612,-0.04392,-0.00976,0.0244,-0.04636,0.08784,0.13176,0.0244,-0.13664,-0.13664,-0.07808
-0.03904,0.02684,-0.01464,0.00488,0.0244,-0.03172,0.0976,0.13664,0.03416,-0.12688,-0.12688,-0.06832
-0.02928,0.01464,0,0.01464,0.02928,-0.02928,0.10736,0.16104,0.05368,-0.11712,-0.11712,-0.06832
-0.01952,0.0122,-0.00488,0.00488,0.01464,-0.01708,0.10248,0.1464,0.03904,-0.122,-0.12688,-0.0732
-0.02928,0.02684,-0.0244,-0.00976,0.00488,-0.01708,0.09272,0.13664,0.03416,-0.12688,-0.13176,-0.07808
-0.04392,0.04148,-0.03904,-0.01708,0.00488,-0.0244,0.09272,0.14152,0.03904,-0.13176,-0.14152,-0.08784
-0.03904,0.03904,-0.03904,-0.01952,0,-0.01952,0.09272,0.1464,0.03416,-0.1464,-0.13664,-0.08784
-0.04392,0.0366,-0.02928,-0.00732,0.01464,-0.02928,0.08784,0.15128,0.03904,-0.14152,-0.13664,-0.08784
-0.05368,0.0488,-0.04392,-0.01708,0.00976,-0.03172,0.08296,0.14152,0.03904,-0.14152,-0.14152,-0.08296
-0.05856,0.061,-0.06344,-0.03416,-0.00488,-0.02684,0.08296,0.15128,0.0488,-0.12688,-0.13176,-0.07808
-0.05368,0.04636,-0.03904,-0.0122,0.01464,-0.03416,0.08296,0.14152,0.0488,-0.14152,-0.15128,-0.09272
-0.0488,0.04636,-0.04392,-0.01952,0.00488,-0.02684,0.08296,0.13176,0.02928,-0.15128,-0.15128,-0.0976
-0.08296,0.0854,-0.08784,-0.04636,-0.00488,-0.03904,0.07808,0.14152,0.03904,-0.15616,-0.1464,-0.10736
-0.07808,0.0854,-0.09272,-0.05368,-0.01464,-0.03172,0.07808,0.1464,0.05368,-0.14152,-0.13664,-0.0976
-0.06344,0.06588,-0.06832,-0.0366,-0.00488,-0.02928,0.08784,0.16592,0.06344,-0.14152,-0.13176,-0.08784
-0.06344,0.061,-0.05856,-0.02684,0.00488,-0.03416,0.10248,0.16592,0.06344,-0.12688,-0.13176,-0.08296
-0.04392,0.0366,-0.02928,-0.00732,0.01464,-0.02928,0.10736,0.19032,0.08296,-0.11712,-0.11712,-0.07808
-0.01464,0.00732,0,0.00732,0.01464,-0.01464,0.11712,0.1952,0.09272,-0.10736,-0.10736,-0.0732
-0.01952,0.00976,0,0.00976,0.01952,-0.01952,0.11712,0.20496,0.09272,-0.11224,-0.11712,-0.0732
-0.01952,0.00976,0,0.00976,0.01952,-0.01952,0.122,0.2196,0.0976,-0.10248,-0.122,-0.06832
-0.0244,0.01708,-0.00976,0.00244,0.01464,-0.01952,0.11712,0.2196,0.0976,-0.11224,-0.13176,-0.07808
-0.02928,0.02928,-0.02928,-0.01464,0,-0.01464,0.10736,0.21472,0.10736,-0.11224,-0.13176,-0.09272
-0.03416,0.02928,-0.0244,-0.00732,0.00976,-0.02196,0.10248,0.20496,0.10248,-0.11224,-0.13664,-0.0976
-0.03416,0.03172,-0.02928,-0.0122,0.00488,-0.01952,0.10248,0.2196,0.0976,-0.10736,-0.13664,-0.0976
-0.04392,0.04392,-0.04392,-0.02196,0,-0.02196,0.122,0.244,0.11224,-0.10248,-0.13176,-0.08296
-0.0488,0.04392,-0.03904,-0.01464,0.00976,-0.02928,0.122,0.26352,0.13176,-0.0976,-0.12688,-0.08296
-0.05856,0.05368,-0.0488,-0.01952,0.00976,-0.03416,0.12688,0.27328,0.13176,-0.0976,-0.122,-0.0976
-0.0732,0.06832,-0.06344,-0.02684,0.00976,-0.04148,0.13176,0.28304,0.15128,-0.0976,-0.122,-0.09272
-0.04392,0.03416,-0.0244,-0.00244,0.01952,-0.03172,0.14152,0.30256,0.15616,-0.07808,-0.122,-0.08296
-0.02928,0.03416,-0.03904,-0.0244,-0.00976,-0.00976,0.15616,0.32208,0.1708,-0.08296,-0.122,-0.07808
-0.0488,0.05368,-0.05856,-0.03416,-0.00976,-0.01952,0.1464,0.3416,0.16592,-0.09272,-0.12688,-0.07808
-0.0488,0.05124,-0.05368,-0.02928,-0.00488,-0.02196,0.14152,0.35136,0.1708,-0.08784,-0.12688,-0.08784
-0.04392,0.04148,-0.03904,-0.01708,0.00488,-0.0244,0.1464,0.37576,0.18544,-0.06832,-0.13664,-0.09272
-0.0244,0.00732,0.00976,0.02196,0.03416,-0.02928,0.16104,0.42456,0.21472,-0.0488,-0.11712,-0.07808
-0.01464,-0.00488,0.0244,0.03172,0.03904,-0.02684,0.1708,0.44896,0.22936,-0.02928,-0.10248,-0.06344
-0.00976,-0.01464,0.03904,0.04392,0.0488,-0.02928,0.18544,0.47336,0.24888,-0.0244,-0.08784,-0.06344
-0.01464,-0.00732,0.02928,0.0366,0.04392,-0.02928,0.18544,0.488,0.24888,-0.0244,-0.09272,-0.06344
-0.01464,-0.00244,0.01952,0.02684,0.03416,-0.0244,0.1952,0.50264,0.26352,-0.01464,-0.09272,-0.06344
-0.01464,-0.00732,0.02928,0.0366,0.04392,-0.02928,0.20008,0.53192,0.28792,0.00488,-0.07808,-0.05856
-0.01952,-0.00488,0.02928,0.03904,0.0488,-0.03416,0.20008,0.5856,0.29768,0.0244,-0.06344,-0.0488
-0.03416,0.01464,0.00488,0.02196,0.03904,-0.0366,0.1952,0.59048,0.30256,0.01464,-0.0732,-0.05368
-0.0488,0.03172,-0.01464,0.00976,0.03416,-0.04148,0.19032,0.59536,0.30744,0.01464,-0.06832,-0.04392
-0.02928,0.0122,0.00488,0.01952,0.03416,-0.03172,0.1952,0.61976,0.3172,0.03904,-0.06344,-0.04392
-0.01464,-0.00732,0.02928,0.0366,0.04392,-0.02928,0.1952,0.6588,0.32696,0.05856,-0.0488,-0.0244
0.0244,-0.04392,0.06344,0.05124,0.03904,-0.00732,0.1952,0.68808,0.3416,0.08296,-0.01952,-0.01464
0.04392,-0.05612,0.06832,0.04636,0.0244,0.00976,0.20496,0.69784,0.366,0.122,0.00488,0.00976
0.03904,-0.06344,0.08784,0.06832,0.0488,-0.00488,0.20496,0.71248,0.366,0.12688,0.01464,0.01952
0.0244,-0.05856,0.09272,0.08052,0.06832,-0.02196,0.20496,0.71736,0.37088,0.15128,0.0244,0.0244
0.01952,-0.05612,0.09272,0.08296,0.0732,-0.02684,0.19032,0.72224,0.37088,0.16592,0.03904,0.01952
0.0488,-0.08052,0.11224,0.08784,0.06344,-0.00732,0.1952,0.732,0.38064,0.18544,0.06344,0.03416
0.03904,-0.08296,0.12688,0.10736,0.08784,-0.0244,0.18544,0.73688,0.38552,0.21472,0.06344,0.03416
0.01952,-0.07076,0.122,0.11224,0.10248,-0.04148,0.17568,0.72712,0.38064,0.2196,0.0732,0.03904
0.01952,-0.05856,0.0976,0.08784,0.07808,-0.02928,0.16104,0.70272,0.366,0.2196,0.0732,0.03416
0.02928,-0.04636,0.06344,0.0488,0.03416,-0.00244,0.15128,0.6832,0.366,0.23424,0.08296,0.03904
0.02928,-0.05856,0.08784,0.0732,0.05856,-0.01464,0.15128,0.69296,0.37576,0.25376,0.10736,0.05368
0.03416,-0.06832,0.10248,0.0854,0.06832,-0.01708,0.15128,0.67344,0.37088,0.27816,0.12688,0.06344
0.05368,-0.09272,0.13176,0.10492,0.07808,-0.0122,0.15128,0.64416,0.35624,0.27816,0.13176,0.07808
0.06832,-0.09272,0.11712,0.08296,0.0488,0.00976,0.15616,0.60024,0.35136,0.30744,0.1464,0.09272
0.06344,-0.08784,0.11224,0.08052,0.0488,0.00732,0.13664,0.5612,0.32696,0.27816,0.13664,0.08296
0.05368,-0.08296,0.11224,0.0854,0.05856,-0.00244,0.122,0.5124,0.29768,0.26352,0.13664,0.0732
0.0488,-0.06832,0.08784,0.06344,0.03904,0.00488,0.10736,0.44896,0.26352,0.244,0.122,0.06832
0.03416,-0.04392,0.05368,0.0366,0.01952,0.00732,0.0976,0.40504,0.23912,0.22448,0.122,0.06832
0.00976,-0.02196,0.03416,0.02928,0.0244,-0.00732,0.06832,0.3416,0.20496,0.19032,0.09272,0.0488
-0.00488,-0.00976,0.0244,0.02684,0.02928,-0.01708,0.05856,0.28792,0.18056,0.1464,0.0732,0.02928
0.01952,-0.03416,0.0488,0.03904,0.02928,-0.00488,0.03904,0.22936,0.14152,0.11712,0.06832,0.02928
0.03416,-0.0488,0.06344,0.04636,0.02928,0.00244,0.02928,0.20008,0.11224,0.09272,0.05368,0.0244
0.0244,-0.03904,0.05368,0.04148,0.02928,-0.00244,0.03904,0.16104,0.09272,0.06832,0.05368,0.02928
0.01464,-0.02196,0.02928,0.02196,0.01464,0,0.03904,0.11712,0.06344,0.03904,0.02928,0.01464
-0.00488,-0.00732,0.01952,0.02196,0.0244,-0.01464,0.0244,0.07808,0.0488,0.01464,0.01464,0.00488
-0.02928,0.00976,0.00976,0.0244,0.03904,-0.03416,0.01464,0.04392,0.02928,-0.01464,-0.00976,-0.00488
-0.0488,0.0366,-0.0244,0,0.0244,-0.0366,-0.00488,0.00976,-0.00976,-0.04392,-0.03904,-0.01952
-0.05368,0.05124,-0.0488,-0.02196,0.00488,-0.02928,-0.00976,-0.00976,-0.02928,-0.06832,-0.05368,-0.03904
-0.03416,0.0366,-0.03904,-0.02196,-0.00488,-0.01464,0,0.00488,-0.01464,-0.06832,-0.05368,-0.03416
-0.01952,0.0244,-0.02928,-0.01952,-0.00976,-0.00488,0.01952,0.01464,-0.00976,-0.06344,-0.0488,-0.0244
-0.00976,0.00732,-0.00488,0,0.00488,-0.00732,0.01952,-0.00488,-0.0244,-0.0732,-0.04392,-0.01952
0.00976,-0.00488,0,-0.00488,-0.00976,0.00976,0.00976,-0.00976,-0.03416,-0.08784,-0.06344,-0.03416
-0.0244,0.02928,-0.03416,-0.02196,-0.00976,-0.00732,0,-0.02928,-0.0488,-0.10248,-0.0732,-0.05368
-0.03416,0.03172,-0.02928,-0.0122,0.00488,-0.01952,0.00488,-0.02928,-0.04392,-0.10248,-0.07808,-0.05856
-0.03904,0.03904,-0.03904,-0.01952,0,-0.01952,0.01952,-0.03416,-0.04392,-0.0976,-0.08784,-0.05856
-0.02928,0.0366,-0.04392,-0.02928,-0.01464,-0.00732,0.01952,-0.0244,-0.03416,-0.09272,-0.08296,-0.05368
-0.03416,0.0366,-0.03904,-0.02196,-0.00488,-0.01464,0.00488,-0.03904,-0.05368,-0.11712,-0.0976,-0.0732
-0.02928,0.0366,-0.04392,-0.02928,-0.01464,-0.00732,-0.00488,-0.04392,-0.06344,-0.13176,-0.11224,-0.07808
-0.05856,0.061,-0.06344,-0.03416,-0.00488,-0.02684,-0.00488,-0.05856,-0.06344,-0.12688,-0.10736,-0.07808
-0.03904,0.05368,-0.06832,-0.0488,-0.02928,-0.00488,0.00488,-0.05368,-0.05856,-0.12688,-0.10736,-0.06832
-0.0488,0.05856,-0.06832,-0.04392,-0.01952,-0.01464,0.01464,-0.03416,-0.05368,-0.122,-0.10736,-0.0732
-0.05368,0.05612,-0.05856,-0.03172,-0.00488,-0.0244,0.01952,-0.03416,-0.05368,-0.12688,-0.11712,-0.0732
-0.05856,0.06588,-0.0732,-0.04392,-0.01464,-0.02196,0.01464,-0.03416,-0.05368,-0.13664,-0.10736,-0.06832
-0.04392,0.05856,-0.0732,-0.05124,-0.02928,-0.00732,0.01464,-0.03416,-0.05368,-0.13664,-0.10736,-0.06344
-0.02928,0.02928,-0.02928,-0.01464,0,-0.01464,0.0244,-0.02928,-0.0488,-0.1464,-0.122,-0.08296
-0.0244,0.02684,-0.02928,-0.01708,-0.00488,-0.00976,0.01952,-0.03416,-0.0488,-0.15128,-0.13176,-0.08296
-0.03416,0.03904,-0.04392,-0.02684,-0.00976,-0.0122,0.00976,-0.03416,-0.05856,-0.16104,-0.13176,-0.08296
-0.03416,0.0366,-0.03904,-0.02196,-0.00488,-0.01464,0.00976,-0.03416,-0.05856,-0.16104,-0.13664,-0.07808
-0.03904,0.05124,-0.06344,-0.04392,-0.0244,-0.00732,0.01952,-0.03416,-0.05368,-0.16104,-0.13664,-0.09272
-0.05368,0.06588,-0.07808,-0.05124,-0.0244,-0.01464,0.0244,-0.03416,-0.05368,-0.16104,-0.13664,-0.09272
-0.10736,0.1098,-0.11224,-0.05856,-0.00488,-0.05124,-0.00488,-0.05368,-0.07808,-0.18544,-0.16592,-0.10248
-0.11712,0.11224,-0.10736,-0.0488,0.00976,-0.06344,-0.00976,-0.06344,-0.0732,-0.18544,-0.16104,-0.10248
-0.05856,0.05856,-0.05856,-0.02928,0,-0.02928,0.01464,-0.0488,-0.05856,-0.17568,-0.14152,-0.08784
-0.0244,0.02196,-0.01952,-0.00732,0.00488,-0.01464,0.0488,-0.02928,-0.03416,-0.15128,-0.13176,-0.06344
-0.00976,0.00244,0.00488,0.00976,0.01464,-0.0122,0.03904,-0.03904,-0.04392,-0.16104,-0.14152,-0.06832
0,-0.0122,0.0244,0.0244,0.0244,-0.0122,0.03904,-0.03904,-0.04392,-0.16592,-0.1464,-0.0732
-0.03416,0.02196,-0.00976,0.00732,0.0244,-0.02928,0.03416,-0.0488,-0.0488,-0.1708,-0.15616,-0.0732
-0.0488,0.03904,-0.02928,-0.00488,0.01952,-0.03416,0.03416,-0.04392,-0.0488,-0.17568,-0.1464,-0.0732
-0.04392,0.03416,-0.0244,-0.00244,0.01952,-0.03172,0.01464,-0.06344,-0.05856,-0.19032,-0.16104,-0.08296
-0.04392,0.03172,-0.01952,0.00244,0.0244,-0.03416,0,-0.06344,-0.06832,-0.1952,-0.16104,-0.08296
-0.0732,0.05612,-0.03904,-0.00244,0.03416,-0.05368,0,-0.06344,-0.0732,-0.19032,-0.16104,-0.08296
-0.0732,0.05612,-0.03904,-0.00244,0.03416,-0.05368,0.00976,-0.06344,-0.0732,-0.18544,-0.15616,-0.07808
-0.09272,0.07564,-0.05856,-0.0122,0.03416,-0.06344,-0.00976,-0.07808,-0.08784,-0.1952,-0.16104,-0.08296
-0.122,0.10248,-0.08296,-0.02196,0.03904,-0.08052,-0.01464,-0.09272,-0.09272,-0.20984,-0.16104,-0.0976
-0.0976,0.09516,-0.09272,-0.04392,0.00488,-0.05124,-0.00488,-0.10736,-0.10248,-0.20008,-0.1708,-0.09272
-0.08784,0.0854,-0.08296,-0.03904,0.00488,-0.04636,0,-0.0976,-0.08784,-0.19032,-0.16592,-0.08784
-0.02928,0.01464,0,0.01464,0.02928,-0.02928,0.0244,-0.0732,-0.06344,-0.16592,-0.13664,-0.06344
0.01464,-0.03172,0.0488,0.04148,0.03416,-0.00976,0.04392,-0.05368,-0.04392,-0.13664,-0.10736,-0.03904
0.00488,-0.02196,0.03904,0.0366,0.03416,-0.01464,0.03416,-0.06832,-0.06344,-0.1464,-0.10248,-0.04392
-0.01464,-0.00244,0.01952,0.02684,0.03416,-0.0244,0.01952,-0.06832,-0.06344,-0.16104,-0.10248,-0.0488
-0.02928,0.01708,-0.00488,0.00976,0.0244,-0.02684,0.00976,-0.07808,-0.0732,-0.15616,-0.11224,-0.0488
-0.0488,0.02684,-0.00488,0.01952,0.04392,-0.04636,-0.00488,-0.07808,-0.08296,-0.16104,-0.11224,-0.05368
-0.04392,0.03416,-0.0244,-0.00244,0.01952,-0.03172,-0.00488,-0.0976,-0.09272,-0.16592,-0.11712,-0.05856
-0.04392,0.04148,-0.03904,-0.01708,0.00488,-0.0244,-0.00976,-0.10736,-0.09272,-0.16592,-0.11224,-0.05368
-0.02928,0.0244,-0.01952,-0.00488,0.00976,-0.01952,0.00976,-0.09272,-0.07808,-0.15128,-0.10248,-0.04392
-0.01952,0.0122,-0.00488,0.00488,0.01464,-0.01708,0.00488,-0.0976,-0.07808,-0.15616,-0.10248,-0.04392
-0.03904,0.0244,-0.00976,0.00976,0.02928,-0.03416,-0.00488,-0.09272,-0.07808,-0.15616,-0.0976,-0.05368
-0.0488,0.0366,-0.0244,0,0.0244,-0.0366,0.00488,-0.0976,-0.07808,-0.15128,-0.10248,-0.0488
-0.05856,0.0488,-0.03904,-0.00976,0.01952,-0.03904,-0.00488,-0.10248,-0.08296,-0.15128,-0.0976,-0.0488
-0.07808,0.06344,-0.0488,-0.00976,0.02928,-0.05368,-0.00488,-0.0976,-0.08296,-0.15128,-0.0976,-0.04392
-0.05856,0.0488,-0.03904,-0.00976,0.01952,-0.03904,0.00488,-0.08784,-0.0732,-0.14152,-0.08784,-0.04392
-0.03904,0.02196,-0.00488,0.01464,0.03416,-0.0366,0.00488,-0.08784,-0.0732,-0.1464,-0.08784,-0.04392
-0.06832,0.05124,-0.03416,0,0.03416,-0.05124,0.00488,-0.09272,-0.08784,-0.1464,-0.0976,-0.03904
-0.0488,0.05124,-0.05368,-0.02928,-0.00488,-0.02196,0.00976,-0.08296,-0.08296,-0.13664,-0.09272,-0.03416
-0.00976,0.0122,-0.01464,-0.00976,-0.00488,-0.00244,0.01952,-0.06832,-0.06344,-0.13664,-0.07808,-0.0244
0.02928,-0.01464,0,-0.01464,-0.02928,0.02928,0.00976,-0.07808,-0.06344,-0.12688,-0.08296,-0.03416
-0.01464,0.00244,0.00976,0.01708,0.0244,-0.01952,0,-0.09272,-0.0732,-0.13664,-0.0976,-0.04392
-0.01952,-0.00244,0.0244,0.03416,0.04392,-0.03172,0,-0.0976,-0.08296,-0.13176,-0.0976,-0.04392
-0.03904,0.01708,0.00488,0.0244,0.04392,-0.04148,-0.00976,-0.10248,-0.08296,-0.14152,-0.10248,-0.05368
-0.0488,0.04636,-0.04392,-0.01952,0.00488,-0.02684,-0.00488,-0.0976,-0.08296,-0.15128,-0.0976,-0.0488
-0.0488,0.04636,-0.04392,-0.01952,0.00488,-0.02684,-0.01464,-0.10248,-0.09272,-0.15128,-0.0976,-0.05368
-0.03416,0.0366,-0.03904,-0.02196,-0.00488,-0.01464,-0.01952,-0.10736,-0.0976,-0.15128,-0.10736,-0.05856
-0.03904,0.03904,-0.03904,-0.01952,0,-0.01952,-0.00488,-0.10736,-0.09272,-0.15616,-0.0976,-0.05368
-0.0488,0.05124,-0.05368,-0.02928,-0.00488,-0.02196,-0.01464,-0.11712,-0.0976,-0.16592,-0.10248,-0.06344
-0.03416,0.0366,-0.03904,-0.02196,-0.00488,-0.01464,-0.00488,-0.10248,-0.08296,-0.1464,-0.09272,-0.0488
0,0.00488,-0.00976,-0.00976,-0.00976,0.00488,0.01952,-0.07808,-0.06344,-0.12688,-0.06832,-0.02928
-0.00488,-0.00488,0.01464,0.01708,0.01952,-0.0122,0.00976,-0.07808,-0.06832,-0.13176,-0.07808,-0.03904
-0.01464,-0.00244,0.01952,0.02684,0.03416,-0.0244,0.00976,-0.0732,-0.0732,-0.12688,-0.0732,-0.03416
-0.0244,0.00976,0.00488,0.01708,0.02928,-0.02684,0,-0.08296,-0.07808,-0.14152,-0.09272,-0.04392
-0.03416,0.01464,0.00488,0.02196,0.03904,-0.0366,-0.00976,-0.08784,-0.08784,-0.1464,-0.10248,-0.05368
-0.0488,0.03416,-0.01952,0.00488,0.02928,-0.03904,0,-0.09272,-0.0732,-0.13664,-0.08784,-0.04392
-0.0488,0.04392,-0.03904,-0.01464,0.00976,-0.02928,0.01464,-0.09272,-0.06832,-0.122,-0.08784,-0.04392
-0.05368,0.0488,-0.04392,-0.01708,0.00976,-0.03172,0,-0.09272,-0.07808,-0.13176,-0.08784,-0.05368
-0.0488,0.05124,-0.05368,-0.02928,-0.00488,-0.02196,0,-0.08784,-0.08784,-0.15616,-0.0976,-0.05368
-0.03904,0.04148,-0.04392,-0.0244,-0.00488,-0.01708,-0.00976,-0.09272,-0.0976,-0.15128,-0.10248,-0.06344
-0.0488,0.03416,-0.01952,0.00488,0.02928,-0.03904,-0.01952,-0.11224,-0.0976,-0.15128,-0.11224,-0.07808
-0.01464,0.00488,0.00488,0.0122,0.01952,-0.01708,0.00488,-0.0976,-0.0732,-0.13664,-0.0976,-0.05856
-0.00488,-0.00732,0.01952,0.02196,0.0244,-0.01464,0.01464,-0.09272,-0.05856,-0.13176,-0.08296,-0.04392
-0.02928,0.0122,0.00488,0.01952,0.03416,-0.03172,0.00488,-0.09272,-0.06344,-0.14152,-0.0732,-0.03416
-0.01464,0.01464,-0.01464,-0.00732,0,-0.00732,0.00488,-0.0732,-0.06344,-0.13664,-0.06832,-0.02928
-0.08784,0.07808,-0.06832,-0.0244,0.01952,-0.05368,-0.00976,-0.08784,-0.07808,-0.1464,-0.10736,-0.07808
-0.05856,0.05368,-0.0488,-0.01952,0.00976,-0.03416,-0.00976,-0.08784,-0.07808,-0.13664,-0.0976,-0.05856
-0.03904,0.03904,-0.03904,-0.01952,0,-0.01952,-0.00976,-0.08784,-0.07808,-0.13664,-0.0976,-0.0488
-0.03904,0.03416,-0.02928,-0.00976,0.00976,-0.0244,0.01464,-0.08784,-0.07808,-0.122,-0.08784,-0.04392
-0.00976,-0.00244,0.01464,0.01952,0.0244,-0.01708,0.0244,-0.06832,-0.06832,-0.10736,-0.06344,-0.0244
0.00976,-0.02196,0.03416,0.02928,0.0244,-0.00732,0.02928,-0.0732,-0.05856,-0.11712,-0.06832,-0.02928
0.02928,-0.03416,0.03904,0.0244,0.00976,0.00976,0.04392,-0.06832,-0.0488,-0.11712,-0.0732,-0.03904
0.00488,-0.02684,0.0488,0.04636,0.04392,-0.01952,0.05368,-0.06344,-0.03416,-0.10248,-0.06344,-0.0244
0,-0.03416,0.06832,0.06832,0.06832,-0.03416,0.05368,-0.05368,-0.0244,-0.10248,-0.05368,-0.0244
-0.03416,-0.0122,0.05856,0.07564,0.09272,-0.06344,0.06344,-0.02928,-0.00976,-0.0976,-0.04392,-0.01952
-0.05856,-0.00244,0.06344,0.09272,0.122,-0.09028,0.06344,-0.02928,-0.00488,-0.09272,-0.04392,-0.01464
-0.06832,0.0122,0.04392,0.07808,0.11224,-0.09028,0.06344,-0.02928,-0.00976,-0.0976,-0.03416,-0.01464
-0.08296,0.02928,0.0244,0.06588,0.10736,-0.09516,0.04392,-0.05368,-0.01464,-0.10248,-0.04392,-0.0244
-0.06344,0.00976,0.04392,0.07564,0.10736,-0.0854,0.03904,-0.0488,-0.00976,-0.09272,-0.05368,-0.01952
-0.03416,-0.0122,0.05856,0.07564,0.09272,-0.06344,0.03416,-0.0732,-0.01952,-0.08784,-0.05368,-0.01464
0.01464,-0.05368,0.09272,0.0854,0.07808,-0.03172,0.02928,-0.0732,-0.01952,-0.08296,-0.03904,0
0.03416,-0.061,0.08784,0.07076,0.05368,-0.00976,0.0244,-0.0732,-0.01952,-0.0732,-0.03416,0.00488
0.01952,-0.05124,0.08296,0.0732,0.06344,-0.02196,0.00976,-0.0732,-0.0244,-0.07808,-0.03904,-0.00488
-0.00488,-0.02928,0.06344,0.06588,0.06832,-0.0366,0.00488,-0.0732,-0.01464,-0.08784,-0.04392,0
-0.03416,-0.00732,0.0488,0.06588,0.08296,-0.05856,0.00488,-0.0976,-0.04392,-0.10736,-0.0488,-0.01464
-0.02928,-0.01952,0.06832,0.08296,0.0976,-0.06344,-0.00976,-0.0976,-0.0488,-0.10736,-0.05368,-0.01952
-0.00976,-0.0244,0.05856,0.06344,0.06832,-0.03904,-0.0244,-0.10736,-0.05856,-0.11712,-0.05856,-0.01952
0,-0.0244,0.0488,0.0488,0.0488,-0.0244,-0.03416,-0.11224,-0.07808,-0.12688,-0.0732,-0.02928
-0.01464,-0.00488,0.0244,0.03172,0.03904,-0.02684,-0.02928,-0.10248,-0.08296,-0.13176,-0.0732,-0.0244
-0.00488,0.00244,0,0.00244,0.00488,-0.00488,-0.02928,-0.07808,-0.08296,-0.13176,-0.06832,-0.0244
0.00488,-0.00732,0.00976,0.00732,0.00488,0,-0.0244,-0.07808,-0.0732,-0.122,-0.06832,-0.03904
-0.00488,0.00488,-0.00488,-0.00244,0,-0.00244,-0.01952,-0.0732,-0.0732,-0.122,-0.06832,-0.03904
-0.0244,0.0244,-0.0244,-0.0122,0,-0.0122,-0.02928,-0.08296,-0.08784,-0.14152,-0.08296,-0.03904
-0.03904,0.03904,-0.03904,-0.01952,0,-0.01952,-0.01952,-0.07808,-0.08784,-0.1464,-0.09272,-0.0488
-0.03904,0.04392,-0.0488,-0.02928,-0.00976,-0.01464,-0.00488,-0.08784,-0.08296,-0.1464,-0.0976,-0.06344
-0.06832,0.07564,-0.08296,-0.0488,-0.01464,-0.02684,-0.00976,-0.0976,-0.08784,-0.16104,-0.10736,-0.06832
-0.04392,0.05368,-0.06344,-0.04148,-0.01952,-0.0122,-0.01952,-0.0976,-0.0976,-0.16104,-0.11712,-0.06832
-0.02928,0.03172,-0.03416,-0.01952,-0.00488,-0.0122,-0.01952,-0.10248,-0.10736,-0.1708,-0.122,-0.0732
-0.0244,0.03416,-0.04392,-0.03172,-0.01952,-0.00244,-0.00488,-0.08784,-0.09272,-0.16104,-0.10736,-0.06344
-0.03904,0.04392,-0.0488,-0.02928,-0.00976,-0.01464,0.00488,-0.0732,-0.08784,-0.1464,-0.10736,-0.05856
-0.04392,0.04148,-0.03904,-0.01708,0.00488,-0.0244,0,-0.07808,-0.0976,-0.16592,-0.10736,-0.06832
-0.0488,0.04636,-0.04392,-0.01952,0.00488,-0.02684,-0.00976,-0.09272,-0.0976,-0.16104,-0.10736,-0.0732
-0.05856,0.05368,-0.0488,-0.01952,0.00976,-0.03416,0,-0.08296,-0.08784,-0.16104,-0.11712,-0.05856
-0.0488,0.061,-0.0732,-0.0488,-0.0244,-0.0122,0,-0.07808,-0.08784,-0.16104,-0.10736,-0.05856
-0.03416,0.04392,-0.05368,-0.0366,-0.01952,-0.00732,-0.00488,-0.08296,-0.09272,-0.1708,-0.122,-0.0732
-0.0244,0.0366,-0.0488,-0.0366,-0.0244,0,-0.01464,-0.10736,-0.10248,-0.1708,-0.12688,-0.08784
-0.03904,0.0366,-0.03416,-0.01464,0.00488,-0.02196,-0.00976,-0.08784,-0.09272,-0.16104,-0.11224,-0.06832
-0.04392,0.03172,-0.01952,0.00244,0.0244,-0.03416,0,-0.07808,-0.07808,-0.15128,-0.10248,-0.05856
-0.0488,0.03904,-0.02928,-0.00488,0.01952,-0.03416,0.02928,-0.07808,-0.06344,-0.12688,-0.08784,-0.04392
-0.0488,0.01952,0.00976,0.03416,0.05856,-0.05368,-0.00488,-0.10736,-0.0732,-0.12688,-0.09272,-0.04392
-0.06832,0.01708,0.03416,0.06832,0.10248,-0.0854,-0.03416,-0.11712,-0.04392,-0.09272,-0.05856,-0.0244
-0.03416,-0.01708,0.06832,0.0854,0.10248,-0.06832,-0.04392,-0.13176,0.04392,0.02928,0.0488,0.07808
0.00976,-0.11712,0.22448,0.2196,0.21472,-0.10248,-0.04392,-0.14152,0.15616,0.15128,0.16592,0.15128
0.04392,-0.1342,0.22448,0.20252,0.18056,-0.06832,-0.13664,-0.45384,0.09272,0.30744,0.37088,0.2684
0.0976,-0.1952,0.2928,0.244,0.1952,-0.0488,-0.28792,-0.74176,0.04392,0.56608,0.70272,0.47336
0.2684,-0.37332,0.47824,0.34404,0.20984,0.02928,-0.41968,-1.05408,-0.06832,0.93696,1.13216,0.732
0.36112,-0.43676,0.5124,0.33184,0.15128,0.10492,-0.57584,-1.10288,-0.14152,1.33224,1.586,0.93696
0.5856,-0.54656,0.50752,0.21472,-0.07808,0.33184,-0.8296,-1.18096,-0.37576,1.72752,2.12768,1.16632
0.76128,-0.6222,0.48312,0.10248,-0.27816,0.51972,-1.18096,-1.33712,-0.71248,1.9764,2.57176,1.3908
1.0492,-0.74908,0.44896,-0.07564,-0.60024,0.82472,-1.40056,-1.28832,-0.85888,2.196,2.7328,1.40056
1.01016,-0.65148,0.2928,-0.21228,-0.71736,0.86376,-1.44448,-1.2444,-0.9028,2.19112,2.4644,1.18096
0.81496,-0.39284,-0.02928,-0.43676,-0.84424,0.8296,-1.23464,-1.15656,-0.8296,1.74216,1.73728,0.74664
0.58072,-0.13664,-0.30744,-0.5978,-0.88816,0.73444,-0.90768,-0.92232,-0.66856,1.17608,1.05408,0.44896
0.3416,-0.01708,-0.30744,-0.47824,-0.64904,0.49532,-0.61,-0.72224,-0.60512,0.47336,0.38064,0.14152
0.17568,0.06832,-0.31232,-0.40016,-0.488,0.33184,-0.38064,-0.50264,-0.49288,-0.0488,-0.06344,-0.06832
0.09272,0.07808,-0.24888,-0.29524,-0.3416,0.21716,-0.23912,-0.3416,-0.4148,-0.31232,-0.20008,-0.13664
0.03904,0.061,-0.16104,-0.18056,-0.20008,0.11956,-0.11224,-0.17568,-0.25376,-0.20008,-0.16592,-0.11224
-0.0732,0.14884,-0.22448,-0.18788,-0.15128,0.03904,-0.03416,-0.10736,-0.16104,-0.18544,-0.15616,-0.11712
-0.03904,0.06832,-0.0976,-0.07808,-0.05856,0.00976,-0.01952,-0.06832,-0.10736,-0.122,-0.122,-0.08296
0.01464,0,-0.01464,-0.02196,-0.02928,0.02196,0.01952,0.00488,-0.0244,-0.08296,-0.0976,-0.0488
-0.00976,0.02684,-0.04392,-0.03904,-0.03416,0.0122,0.02928,0.03904,-0.0244,-0.13176,-0.14152,-0.10736
-0.01464,0.01952,-0.0244,-0.01708,-0.00976,-0.00244,0.05856,0.06344,-0.01464,-0.13664,-0.15128,-0.10248
-0.01464,0.01708,-0.01952,-0.0122,-0.00488,-0.00488,0.0976,0.07808,0.00488,-0.122,-0.13176,-0.0732
-0.0244,0.02684,-0.02928,-0.01708,-0.00488,-0.00976,0.0732,0.05856,0,-0.122,-0.14152,-0.0732
-0.03904,0.03416,-0.02928,-0.00976,0.00976,-0.0244,0.06344,0.07808,0.00488,-0.13176,-0.15128,-0.08296
-0.0488,0.04392,-0.03904,-0.01464,0.00976,-0.02928,0.09272,0.09272,0.01464,-0.14152,-0.1464,-0.09272
-0.04392,0.03416,-0.0244,-0.00244,0.01952,-0.03172,0.09272,0.09272,0.00976,-0.14152,-0.1464,-0.09272
-0.0488,0.04148,-0.03416,-0.00976,0.01464,-0.03172,0.07808,0.08296,0.00488,-0.1464,-0.1464,-0.0976
-0.06832,0.05612,-0.04392,-0.00976,0.0244,-0.04636,0.06832,0.07808,0.00488,-0.1464,-0.15616,-0.0976
-0.05856,0.05856,-0.05856,-0.02928,0,-0.02928,0.06832,0.08296,0.00488,-0.15616,-0.16592,-0.10736
-0.0488,0.061,-0.0732,-0.0488,-0.0244,-0.0122,0.06344,0.06832,-0.00976,-0.1708,-0.17568,-0.11224
-0.05856,0.05612,-0.05368,-0.0244,0.00488,-0.03172,0.08296,0.0976,0.0244,-0.13664,-0.14152,-0.08784
-0.06344,0.05124,-0.03904,-0.00732,0.0244,-0.04392,0.09272,0.122,0.0488,-0.11224,-0.13176,-0.06832
-0.05856,0.0488,-0.03904,-0.00976,0.01952,-0.03904,0.09272,0.11712,0.04392,-0.12688,-0.13664,-0.07808
-0.05368,0.04148,-0.02928,-0.00244,0.0244,-0.03904,0.08784,0.122,0.03904,-0.122,-0.13664,-0.07808
-0.04392,0.0244,-0.00488,0.01708,0.03904,-0.04148,0.10248,0.13176,0.0488,-0.122,-0.13176,-0.0732
-0.03904,0.02196,-0.00488,0.01464,0.03416,-0.0366,0.10248,0.15128,0.05856,-0.10736,-0.122,-0.06832
-0.05368,0.03172,-0.00976,0.01708,0.04392,-0.0488,0.09272,0.15128,0.05856,-0.122,-0.14152,-0.08296
-0.06832,0.05612,-0.04392,-0.00976,0.0244,-0.04636,0.09272,0.15128,0.03904,-0.13176,-0.14152,-0.08784
-0.0732,0.061,-0.0488,-0.0122,0.0244,-0.0488,0.08784,0.14152,0.03904,-0.13664,-0.1464,-0.0976
-0.0488,0.0366,-0.0244,0,0.0244,-0.0366,0.08784,0.13664,0.05368,-0.122,-0.13664,-0.08784
-0.03416,0.02684,-0.01952,-0.00244,0.01464,-0.0244,0.0976,0.15616,0.06344,-0.122,-0.13176,-0.07808
-0.04392,0.0366,-0.02928,-0.00732,0.01464,-0.02928,0.11224,0.16592,0.06344,-0.11712,-0.13176,-0.08296
-0.0732,0.06588,-0.05856,-0.02196,0.01464,-0.04392,0.08784,0.15128,0.05368,-0.12688,-0.1464,-0.0976
-0.09272,0.0854,-0.07808,-0.03172,0.01464,-0.05368,0.07808,0.13664,0.04392,-0.13664,-0.15616,-0.11224
-0.03904,0.03416,-0.02928,-0.00976,0.00976,-0.0244,0.10736,0.17568,0.0732,-0.10248,-0.13664,-0.08296
0.00976,-0.00976,0.00976,0.00488,0,0.00488,0.13176,0.20984,0.10736,-0.0732,-0.11224,-0.06832
-0.00488,0.00244,0,0.00244,0.00488,-0.00488,0.12688,0.20984,0.0976,-0.09272,-0.122,-0.07808
-0.01952,0.01952,-0.01952,-0.00976,0,-0.00976,0.11712,0.20496,0.0976,-0.10248,-0.13176,-0.08296
-0.05368,0.04392,-0.03416,-0.00732,0.01952,-0.0366,0.11224,0.21472,0.10248,-0.10248,-0.12688,-0.0976
-0.0732,0.061,-0.0488,-0.0122,0.0244,-0.0488,0.11224,0.22936,0.10736,-0.0976,-0.12688,-0.0976
-0.04392,0.03416,-0.0244,-0.00244,0.01952,-0.03172,0.11224,0.23424,0.11224,-0.09272,-0.13176,-0.09272
-0.02928,0.00976,0.00976,0.0244,0.03904,-0.03416,0.11224,0.23424,0.122,-0.08784,-0.13664,-0.09272
-0.03904,0.02928,-0.01952,0,0.01952,-0.02928,0.12688,0.26352,0.122,-0.07808,-0.13176,-0.08784
-0.05368,0.05368,-0.05368,-0.02684,0,-0.02684,0.14152,0.28304,0.14152,-0.07808,-0.122,-0.0732
-0.05368,0.03416,-0.01464,0.0122,0.03904,-0.04636,0.13176,0.28304,0.1464,-0.06832,-0.122,-0.08296
-0.05856,0.03904,-0.01952,0.00976,0.03904,-0.0488,0.13664,0.30256,0.16104,-0.0732,-0.13176,-0.08784
-0.05856,0.04392,-0.02928,0,0.02928,-0.04392,0.13664,0.33184,0.15616,-0.0732,-0.13664,-0.08784
-0.0488,0.0366,-0.0244,0,0.0244,-0.0366,0.14152,0.3416,0.16104,-0.06832,-0.13664,-0.0976
-0.05368,0.04148,-0.02928,-0.00244,0.0244,-0.03904,0.13664,0.34648,0.16592,-0.06832,-0.1464,-0.10248
-0.03416,0.0122,0.00976,0.02684,0.04392,-0.03904,0.15128,0.38552,0.1952,-0.05856,-0.12688,-0.08784
-0.01464,0.00488,0.00488,0.0122,0.01952,-0.01708,0.16104,0.40992,0.20984,-0.03904,-0.11224,-0.0732
-0.00976,0.00488,0,0.00488,0.00976,-0.00976,0.17568,0.44408,0.22936,-0.0244,-0.0976,-0.06344
-0.04392,0.03172,-0.01952,0.00244,0.0244,-0.03416,0.17568,0.45872,0.22936,-0.03416,-0.10248,-0.0732
-0.05368,0.04636,-0.03904,-0.0122,0.01464,-0.03416,0.17568,0.4636,0.23424,-0.0244,-0.11224,-0.0732
-0.03416,0.01708,0,0.01708,0.03416,-0.03416,0.1708,0.50264,0.25864,-0.0244,-0.10736,-0.06832
-0.01952,-0.00488,0.02928,0.03904,0.0488,-0.03416,0.16104,0.55632,0.2684,-0.00488,-0.09272,-0.05856
-0.0244,0.00488,0.01464,0.02684,0.03904,-0.03172,0.17568,0.57096,0.27328,0.01464,-0.09272,-0.05368
-0.02928,0.00732,0.01464,0.02928,0.04392,-0.0366,0.19032,0.5856,0.28792,0.03416,-0.07808,-0.04392
-0.01952,-0.00732,0.03416,0.04392,0.05368,-0.0366,0.18544,0.60024,0.30744,0.0488,-0.0732,-0.05368
-0.00488,-0.02684,0.05856,0.061,0.06344,-0.03416,0.18544,0.63928,0.3172,0.06832,-0.06832,-0.03416
0.0244,-0.05856,0.09272,0.08052,0.06832,-0.02196,0.18544,0.6588,0.31232,0.06344,-0.0488,-0.0244
0.0244,-0.05612,0.08784,0.07564,0.06344,-0.01952,0.18544,0.66856,0.32696,0.09272,-0.03416,-0.00976
0.00976,-0.04392,0.07808,0.0732,0.06832,-0.02928,0.17568,0.6832,0.33672,0.0976,-0.0244,-0.00976
-0.00488,-0.03416,0.0732,0.07564,0.07808,-0.04148,0.17568,0.68808,0.3416,0.122,-0.01464,-0.00488
-0.01952,-0.02196,0.06344,0.0732,0.08296,-0.05124,0.1708,0.70272,0.3416,0.1464,0,0.00976
0,-0.0366,0.0732,0.0732,0.0732,-0.0366,0.17568,0.71248,0.35136,0.16592,0.0244,0.0244
0.02928,-0.05856,0.08784,0.0732,0.05856,-0.01464,0.17568,0.71736,0.366,0.1952,0.04392,0.0244
0.03904,-0.06588,0.09272,0.0732,0.05368,-0.00732,0.16592,0.7076,0.36112,0.20008,0.05368,0.02928
0.01952,-0.05856,0.0976,0.08784,0.07808,-0.02928,0.16104,0.70272,0.35624,0.20984,0.05368,0.03416
0.01952,-0.05612,0.09272,0.08296,0.0732,-0.02684,0.16104,0.69296,0.35624,0.22448,0.06344,0.03904
0.01952,-0.0488,0.07808,0.06832,0.05856,-0.01952,0.14152,0.6832,0.34648,0.22448,0.06832,0.03416
0.0244,-0.0488,0.0732,0.061,0.0488,-0.0122,0.14152,0.65392,0.3416,0.23912,0.07808,0.03416
0.0244,-0.05856,0.09272,0.08052,0.06832,-0.02196,0.13176,0.62464,0.32696,0.22936,0.0732,0.03904
0.02928,-0.05368,0.07808,0.06344,0.0488,-0.00976,0.12688,0.58072,0.32208,0.24888,0.07808,0.04392
0.05368,-0.07808,0.10248,0.07564,0.0488,0.00244,0.12688,0.5612,0.3172,0.23912,0.08784,0.04392
0.0732,-0.0976,0.122,0.0854,0.0488,0.0122,0.122,0.52216,0.29768,0.244,0.0976,0.04392
0.05856,-0.0732,0.08784,0.05856,0.02928,0.01464,0.10736,0.47824,0.28304,0.23424,0.10248,0.05856
0.03416,-0.04392,0.05368,0.0366,0.01952,0.00732,0.0976,0.44408,0.25864,0.22448,0.10248,0.06832
0.01952,-0.03172,0.04392,0.03416,0.0244,-0.00244,0.07808,0.38064,0.22448,0.20008,0.08296,0.0488
0.01464,-0.0244,0.03416,0.02684,0.01952,-0.00244,0.06832,0.3172,0.20008,0.16592,0.06344,0.03904
0.01952,-0.02928,0.03904,0.02928,0.01952,0,0.0488,0.25864,0.15128,0.13664,0.0488,0.02928
0.01464,-0.01952,0.0244,0.01708,0.00976,0.00244,0.03904,0.2196,0.122,0.11224,0.03416,0.0244
-0.00488,-0.00488,0.01464,0.01708,0.01952,-0.0122,0.0488,0.18056,0.10248,0.07808,0.03416,0.01952
-0.0244,0.01708,-0.00976,0.00244,0.01464,-0.01952,0.03904,0.12688,0.0732,0.0488,0.00976,0.00488
0.00488,-0.0122,0.01952,0.01708,0.01464,-0.00488,0.03416,0.08784,0.05856,0.03416,0.01464,0.01464
0.02928,-0.03904,0.0488,0.03416,0.01952,0.00488,0.0244,0.05368,0.03904,0.01464,-0.00976,0.00488
0,-0.00244,0.00488,0.00488,0.00488,-0.00244,0.01464,0.01952,0.01952,-0.01464,-0.02928,-0.00976
-0.0244,0.03172,-0.03904,-0.02684,-0.01464,-0.00488,0.00976,-0.00976,0,-0.03904,-0.04392,-0.02928
-0.03416,0.03172,-0.02928,-0.0122,0.00488,-0.01952,0,-0.01464,-0.01464,-0.05856,-0.06344,-0.04392
-0.02928,0.02928,-0.02928,-0.01464,0,-0.01464,0,-0.0244,-0.02928,-0.06344,-0.06832,-0.04392
-0.02928,0.02196,-0.01464,0,0.01464,-0.02196,0.00976,-0.03416,-0.0244,-0.0732,-0.06344,-0.03904
-0.02928,0.0244,-0.01952,-0.00488,0.00976,-0.01952,0,-0.02928,-0.03416,-0.08784,-0.08296,-0.05368
-0.04392,0.04392,-0.04392,-0.02196,0,-0.02196,0,-0.0488,-0.0488,-0.08296,-0.08296,-0.05368
-0.03416,0.03172,-0.02928,-0.0122,0.00488,-0.01952,0.00488,-0.0488,-0.04392,-0.08296,-0.07808,-0.0488
-0.0488,0.05368,-0.05856,-0.03416,-0.00976,-0.01952,0.00976,-0.05368,-0.05368,-0.0976,-0.0976,-0.05856
-0.0488,0.061,-0.0732,-0.0488,-0.0244,-0.0122,0.00976,-0.04392,-0.04392,-0.10248,-0.10248,-0.06344
-0.03416,0.04148,-0.0488,-0.03172,-0.01464,-0.00976,0.00488,-0.0488,-0.04392,-0.0976,-0.10736,-0.06344
-0.00976,0.02196,-0.03416,-0.02928,-0.0244,0.00732,0.00488,-0.05368,-0.04392,-0.10248,-0.11224,-0.06832
-0.0488,0.05124,-0.05368,-0.02928,-0.00488,-0.02196,-0.00488,-0.05856,-0.06344,-0.11712,-0.12688,-0.08784
-0.03904,0.0488,-0.05856,-0.03904,-0.01952,-0.00976,0.00488,-0.05368,-0.05856,-0.12688,-0.12688,-0.08784
-0.05856,0.06344,-0.06832,-0.03904,-0.00976,-0.0244,0.00488,-0.04392,-0.04392,-0.122,-0.11712,-0.08296
-0.0732,0.06588,-0.05856,-0.02196,0.01464,-0.04392,0,-0.04392,-0.04392,-0.12688,-0.12688,-0.0732
-0.07808,0.08052,-0.08296,-0.04392,-0.00488,-0.0366,0.01464,-0.03416,-0.04392,-0.13664,-0.12688,-0.08784
-0.06344,0.07808,-0.09272,-0.061,-0.02928,-0.01708,0.01464,-0.03416,-0.04392,-0.13664,-0.12688,-0.08296
-0.05856,0.05856,-0.05856,-0.02928,0,-0.02928,0.01464,-0.03904,-0.0488,-0.13664,-0.14152,-0.10248
-0.06344,0.061,-0.05856,-0.02684,0.00488,-0.03416,0.00976,-0.05368,-0.0488,-0.14152,-0.15128,-0.10248
-0.0732,0.07808,-0.08296,-0.04636,-0.00976,-0.03172,0,-0.05368,-0.05856,-0.15128,-0.16104,-0.11224
-0.0732,0.08052,-0.08784,-0.05124,-0.01464,-0.02928,0,-0.05368,-0.05856,-0.16104,-0.16592,-0.10736
-0.05856,0.061,-0.06344,-0.03416,-0.00488,-0.02684,0.00976,-0.05368,-0.05368,-0.16104,-0.15616,-0.10248
-0.0732,0.061,-0.0488,-0.0122,0.0244,-0.0488,0.0244,-0.05368,-0.05368,-0.16104,-0.15616,-0.09272
-0.05856,0.05612,-0.05368,-0.0244,0.00488,-0.03172,0.0244,-0.04392,-0.0488,-0.15616,-0.15616,-0.09272
-0.00976,0.01952,-0.02928,-0.0244,-0.01952,0.00488,0.0488,-0.03416,-0.0244,-0.13664,-0.13176,-0.08296
-0.03904,0.03904,-0.03904,-0.01952,0,-0.01952,0.0244,-0.0488,-0.03904,-0.15616,-0.15128,-0.0976
-0.0732,0.06588,-0.05856,-0.02196,0.01464,-0.04392,0.00976,-0.05856,-0.04392,-0.16104,-0.16104,-0.10248
-0.05856,0.05612,-0.05368,-0.0244,0.00488,-0.03172,0.01952,-0.05856,-0.04392,-0.1708,-0.16104,-0.0976
-0.05856,0.05612,-0.05368,-0.0244,0.00488,-0.03172,0.01952,-0.05856,-0.04392,-0.16592,-0.15616,-0.09272
-0.09272,0.0854,-0.07808,-0.03172,0.01464,-0.05368,0.01464,-0.08784,-0.05856,-0.18056,-0.16592,-0.10248
-0.0976,0.09272,-0.08784,-0.03904,0.00976,-0.05368,0.01464,-0.09272,-0.06832,-0.18544,-0.16592,-0.10248
-0.06344,0.05368,-0.04392,-0.0122,0.01952,-0.04148,0.01464,-0.08296,-0.05856,-0.1708,-0.16104,-0.09272
-0.04392,0.02196,0,0.02196,0.04392,-0.04392,0.00976,-0.0732,-0.05856,-0.16592,-0.15128,-0.08296
-0.06344,0.05124,-0.03904,-0.00732,0.0244,-0.04392,0.01952,-0.06344,-0.05368,-0.16104,-0.14152,-0.0732
-0.06344,0.05612,-0.0488,-0.01708,0.01464,-0.03904,0.02928,-0.06344,-0.05368,-0.15616,-0.13664,-0.06832
-0.0732,0.06588,-0.05856,-0.02196,0.01464,-0.04392,0.00976,-0.08784,-0.06832,-0.17568,-0.14152,-0.0732
-0.09272,0.08296,-0.0732,-0.02684,0.01952,-0.05612,-0.00488,-0.10248,-0.0732,-0.19032,-0.15128,-0.08784
-0.05856,0.04636,-0.03416,-0.00488,0.0244,-0.04148,0.00488,-0.0976,-0.0732,-0.1708,-0.14152,-0.0732
-0.02928,0.0122,0.00488,0.01952,0.03416,-0.03172,0.00976,-0.08784,-0.05856,-0.15128,-0.13664,-0.06832
-0.02928,0.01464,0,0.01464,0.02928,-0.02928,0.01464,-0.08296,-0.04392,-0.15616,-0.11712,-0.05368
-0.04392,0.03172,-0.01952,0.00244,0.0244,-0.03416,0.01464,-0.08296,-0.04392,-0.1464,-0.10736,-0.0488
-0.05368,0.04148,-0.02928,-0.00244,0.0244,-0.03904,0.00488,-0.0976,-0.06344,-0.1464,-0.122,-0.05368
-0.0732,0.061,-0.0488,-0.0122,0.0244,-0.0488,-0.00976,-0.10736,-0.06344,-0.15128,-0.13176,-0.06832
-0.05856,0.04636,-0.03416,-0.00488,0.0244,-0.04148,0,-0.0976,-0.05368,-0.13664,-0.122,-0.05856
-0.05856,0.03172,-0.00488,0.0244,0.05368,-0.05612,-0.00488,-0.0976,-0.06344,-0.14152,-0.122,-0.06344
-0.0732,0.05856,-0.04392,-0.00732,0.02928,-0.05124,0.00488,-0.10736,-0.06344,-0.1464,-0.11712,-0.05856
-0.08296,0.08052,-0.07808,-0.0366,0.00488,-0.04392,0,-0.10736,-0.06344,-0.1464,-0.11224,-0.05368
-0.03904,0.03904,-0.03904,-0.01952,0,-0.01952,0,-0.09272,-0.0488,-0.13176,-0.09272,-0.04392
0,0.00732,-0.01464,-0.01464,-0.01464,0.00732,-0.00488,-0.0976,-0.0488,-0.13664,-0.09272,-0.04392
-0.02928,0.0244,-0.01952,-0.00488,0.00976,-0.01952,-0.00488,-0.10248,-0.06832,-0.13664,-0.10736,-0.06344
-0.0488,0.0366,-0.0244,0,0.0244,-0.0366,0.00488,-0.10736,-0.06832,-0.13176,-0.11224,-0.05856
-0.06832,0.05856,-0.0488,-0.01464,0.01952,-0.04392,-0.00488,-0.11224,-0.0732,-0.14152,-0.11712,-0.06832
-0.0976,0.08296,-0.06832,-0.01952,0.02928,-0.06344,-0.01464,-0.10736,-0.0732,-0.15128,-0.11712,-0.06344
-0.05856,0.05368,-0.0488,-0.01952,0.00976,-0.03416,-0.00488,-0.10736,-0.06344,-0.14152,-0.10736,-0.06344
-0.02928,0.01708,-0.00488,0.00976,0.0244,-0.02684,-0.00488,-0.10736,-0.06344,-0.13664,-0.0976,-0.05368
-0.05856,0.04148,-0.0244,0.00488,0.03416,-0.04636,-0.00488,-0.10248,-0.06832,-0.12688,-0.0976,-0.0488
-0.0488,0.04148,-0.03416,-0.00976,0.01464,-0.03172,0,-0.09272,-0.06344,-0.11712,-0.09272,-0.04392
-0.02928,0.02196,-0.01464,0,0.01464,-0.02196,0,-0.0976,-0.06344,-0.13664,-0.0976,-0.05368
-0.01952,0.01464,-0.00976,0,0.00976,-0.01464,-0.00976,-0.10736,-0.0732,-0.13664,-0.11224,-0.06344
-0.06344,0.061,-0.05856,-0.02684,0.00488,-0.03416,-0.01952,-0.122,-0.0732,-0.1464,-0.10736,-0.06344
-0.06832,0.07564,-0.08296,-0.0488,-0.01464,-0.02684,-0.01952,-0.12688,-0.0732,-0.14152,-0.10736,-0.06344
-0.0488,0.04636,-0.04392,-0.01952,0.00488,-0.02684,-0.00976,-0.11224,-0.06344,-0.13176,-0.10248,-0.05368
-0.02928,0.03172,-0.03416,-0.01952,-0.00488,-0.0122,-0.00488,-0.0976,-0.06344,-0.13176,-0.0976,-0.0488
-0.05856,0.04636,-0.03416,-0.00488,0.0244,-0.04148,0.00488,-0.09272,-0.05368,-0.122,-0.08784,-0.04392
-0.05368,0.04636,-0.03904,-0.0122,0.01464,-0.03416,0,-0.0976,-0.05856,-0.122,-0.0976,-0.0488
-0.06832,0.05368,-0.03904,-0.00488,0.02928,-0.0488,-0.00488,-0.10736,-0.0732,-0.12688,-0.0976,-0.05368
-0.07808,0.06588,-0.05368,-0.01464,0.0244,-0.05124,-0.0244,-0.11712,-0.07808,-0.13664,-0.10248,-0.06344
-0.06344,0.04636,-0.02928,0.00244,0.03416,-0.0488,-0.01464,-0.11224,-0.0732,-0.13664,-0.11224,-0.05856
-0.01952,0.00488,0.00976,0.01952,0.02928,-0.0244,0,-0.0976,-0.06344,-0.13664,-0.0976,-0.0488
-0.0244,0.01464,-0.00488,0.00732,0.01952,-0.02196,0,-0.0976,-0.05856,-0.13176,-0.0976,-0.0488
-0.03416,0.03172,-0.02928,-0.0122,0.00488,-0.01952,0,-0.09272,-0.05368,-0.11712,-0.09272,-0.04392
-0.06344,0.06344,-0.06344,-0.03172,0,-0.03172,0.00976,-0.10248,-0.0488,-0.13176,-0.09272,-0.04392
-0.0732,0.0732,-0.0732,-0.0366,0,-0.0366,0,-0.10736,-0.05856,-0.13664,-0.10248,-0.05368
-0.06832,0.06344,-0.05856,-0.0244,0.00976,-0.03904,-0.00976,-0.11224,-0.06344,-0.13664,-0.0976,-0.05368
-0.0488,0.0488,-0.0488,-0.0244,0,-0.0244,-0.00488,-0.11224,-0.05856,-0.13176,-0.0976,-0.05368
-0.03416,0.03416,-0.03416,-0.01708,0,-0.01708,0,-0.11224,-0.05856,-0.122,-0.08784,-0.05368
-0.02928,0.02684,-0.0244,-0.00976,0.00488,-0.01708,0.00976,-0.0976,-0.05856,-0.12688,-0.08784,-0.04392
-0.03904,0.0366,-0.03416,-0.01464,0.00488,-0.02196,-0.00976,-0.10248,-0.06832,-0.13176,-0.09272,-0.05368
-0.0488,0.03904,-0.02928,-0.00488,0.01952,-0.03416,-0.01952,-0.11224,-0.06832,-0.14152,-0.10248,-0.06832
-0.04392,0.05368,-0.06344,-0.04148,-0.01952,-0.0122,0.00488,-0.0976,-0.04392,-0.11712,-0.08784,-0.0488
-0.03416,0.02684,-0.01952,-0.00244,0.01464,-0.0244,-0.00488,-0.10248,-0.05856,-0.13176,-0.09272,-0.06344
-0.05856,0.05856,-0.05856,-0.02928,0,-0.02928,0,-0.10736,-0.05856,-0.12688,-0.0976,-0.0488
-0.07808,0.06832,-0.05856,-0.01952,0.01952,-0.0488,0,-0.10736,-0.05856,-0.12688,-0.0976,-0.0488
-0.08296,0.0732,-0.06344,-0.02196,0.01952,-0.05124,0.00488,-0.10248,-0.0488,-0.13176,-0.08784,-0.0488
-0.06344,0.061,-0.05856,-0.02684,0.00488,-0.03416,0.01952,-0.07808,-0.04392,-0.122,-0.0732,-0.03416
-0.02928,0.01952,-0.00976,0.00488,0.01952,-0.0244,0.0244,-0.06832,-0.03416,-0.11224,-0.06832,-0.0244
-0.02928,0.01464,0,0.01464,0.02928,-0.02928,0.03416,-0.06344,-0.0244,-0.10248,-0.06832,-0.03416
-0.01952,0,0.01952,0.02928,0.03904,-0.02928,0.05368,-0.0732,-0.01464,-0.0976,-0.0732,-0.03416
-0.01952,-0.01464,0.0488,0.05856,0.06832,-0.04392,0.05368,-0.0732,-0.01464,-0.09272,-0.0732,-0.03416
-0.01952,-0.01464,0.0488,0.05856,0.06832,-0.04392,0.0488,-0.06344,0,-0.08784,-0.06344,-0.0244
-0.02928,-0.00732,0.04392,0.05856,0.0732,-0.05124,0.05368,-0.05856,0.00976,-0.08784,-0.05368,-0.01952
-0.0488,0.0122,0.0244,0.0488,0.0732,-0.061,0.05368,-0.0488,0.00976,-0.07808,-0.06344,-0.0244
-0.06832,0.02196,0.0244,0.05856,0.09272,-0.08052,0.03904,-0.0488,0.00976,-0.07808,-0.06344,-0.0244
-0.08296,0.04392,-0.00488,0.0366,0.07808,-0.08052,0.02928,-0.06832,0.00488,-0.09272,-0.06344,-0.02928
-0.07808,0.03416,0.00976,0.0488,0.08784,-0.08296,0.01464,-0.07808,-0.00488,-0.09272,-0.06344,-0.0244
-0.0488,0.00244,0.04392,0.06832,0.09272,-0.07076,0.01464,-0.08296,-0.00976,-0.08784,-0.0488,-0.01464
-0.01464,-0.02196,0.05856,0.06588,0.0732,-0.04392,0.01464,-0.08296,-0.00488,-0.06832,-0.0488,-0.00488
-0.01464,-0.02684,0.06832,0.07564,0.08296,-0.0488,0,-0.09272,-0.00976,-0.06344,-0.04392,-0.01464
-0.00976,-0.02928,0.06832,0.0732,0.07808,-0.04392,0.00488,-0.09272,0.00488,-0.0732,-0.03904,-0.00976
-0.01464,-0.00732,0.02928,0.0366,0.04392,-0.02928,-0.00976,-0.11712,-0.00976,-0.10736,-0.06344,-0.01952
-0.0244,0.00244,0.01952,0.03172,0.04392,-0.03416,-0.0244,-0.12688,-0.02928,-0.11712,-0.0732,-0.02928
-0.01464,-0.00488,0.0244,0.03172,0.03904,-0.02684,-0.0244,-0.122,-0.02928,-0.10248,-0.05856,-0.01952
0,-0.01708,0.03416,0.03416,0.03416,-0.01708,-0.0244,-0.10736,-0.03416,-0.0976,-0.06344,-0.01952
-0.01952,0.00732,0.00488,0.01464,0.0244,-0.02196,-0.03416,-0.12688,-0.06344,-0.11712,-0.08296,-0.0244
-0.04392,0.03904,-0.03416,-0.0122,0.00976,-0.02684,-0.04392,-0.13176,-0.06344,-0.12688,-0.07808,-0.03904
-0.04392,0.04148,-0.03904,-0.01708,0.00488,-0.0244,-0.03904,-0.11712,-0.05368,-0.12688,-0.07808,-0.04392
-0.03904,0.04392,-0.0488,-0.02928,-0.00976,-0.01464,-0.0244,-0.10248,-0.05368,-0.11712,-0.0732,-0.03416
-0.03416,0.0366,-0.03904,-0.02196,-0.00488,-0.01464,-0.02928,-0.10248,-0.06832,-0.12688,-0.07808,-0.0488
-0.03904,0.03416,-0.02928,-0.00976,0.00976,-0.0244,-0.0244,-0.0976,-0.06832,-0.13664,-0.08784,-0.0488
-0.03416,0.03172,-0.02928,-0.0122,0.00488,-0.01952,-0.01464,-0.10248,-0.06832,-0.13664,-0.10248,-0.0488
-0.03904,0.0488,-0.05856,-0.03904,-0.01952,-0.00976,-0.01952,-0.122,-0.07808,-0.15128,-0.11224,-0.05368
-0.06344,0.07076,-0.07808,-0.04636,-0.01464,-0.0244,-0.02928,-0.11712,-0.07808,-0.16104,-0.11712,-0.06832
-0.05856,0.0732,-0.08784,-0.05856,-0.02928,-0.01464,-0.02928,-0.122,-0.08784,-0.16104,-0.122,-0.0732
-0.05368,0.06344,-0.0732,-0.04636,-0.01952,-0.01708,-0.01464,-0.10736,-0.0732,-0.15616,-0.10736,-0.06344
-0.06344,0.06832,-0.0732,-0.04148,-0.00976,-0.02684,-0.01464,-0.08784,-0.06832,-0.1464,-0.10736,-0.05856
-0.08296,0.07564,-0.06832,-0.02684,0.01464,-0.0488,-0.01952,-0.0732,-0.07808,-0.13664,-0.10736,-0.06832
-0.08784,0.07808,-0.06832,-0.0244,0.01952,-0.05368,-0.01952,-0.08784,-0.07808,-0.1464,-0.10736,-0.0732
-0.0732,0.0732,-0.0732,-0.0366,0,-0.0366,-0.01464,-0.09272,-0.0732,-0.14152,-0.0976,-0.06344
-0.05368,0.05612,-0.05856,-0.03172,-0.00488,-0.0244,-0.00488,-0.09272,-0.06344,-0.14152,-0.0976,-0.05856
-0.04392,0.0488,-0.05368,-0.03172,-0.00976,-0.01708,-0.00976,-0.08296,-0.06344,-0.14152,-0.11224,-0.06344
-0.04392,0.05124,-0.05856,-0.0366,-0.01464,-0.01464,-0.00488,-0.08784,-0.06832,-0.14152,-0.11224,-0.06344
-0.05368,0.05368,-0.05368,-0.02684,0,-0.02684,-0.01464,-0.10736,-0.08296,-0.15128,-0.12688,-0.07808
-0.06832,0.0732,-0.07808,-0.04392,-0.00976,-0.02928,-0.01952,-0.10736,-0.08296,-0.15128,-0.122,-0.08784
-0.07808,0.11956,-0.16104,-0.122,-0.08296,0.00244,-0.00976,-0.10736,-0.07808,-0.1464,-0.11224,-0.07808
-0.07808,0.0732,-0.06832,-0.02928,0.00976,-0.04392,-0.08784,-0.1708,-0.11224,-0.19032,-0.16104,-0.11712
-0.01952,0.00976,0,0.00976,0.01952,-0.01952,-0.03416,-0.12688,-0.03416,-0.09272,-0.06832,-0.01952
-0.0488,-0.00488,0.05856,0.08296,0.10736,-0.07808,-0.03416,-0.11224,0,-0.04392,-0.00976,0.01464
-0.0488,-0.05124,0.15128,0.17568,0.20008,-0.12444,-0.05368,-0.11224,0.06344,0.03904,0.06832,0.0732
0.01464,-0.11468,0.21472,0.2074,0.20008,-0.09272,-0.02928,-0.13176,0.17568,0.22448,0.244,0.20496
0.06832,-0.15372,0.23912,0.20496,0.1708,-0.05124,-0.18544,-0.49776,0.09272,0.37088,0.47336,0.35136
0.1952,-0.2806,0.366,0.2684,0.1708,0.0122,-0.3172,-0.8052,0.03904,0.67832,0.85888,0.57584
0.31232,-0.38064,0.44896,0.2928,0.13664,0.08784,-0.4392,-1.09312,-0.11712,1.01504,1.28344,0.79056
0.52216,-0.49288,0.4636,0.20252,-0.05856,0.29036,-0.61,-1.09312,-0.20008,1.4152,1.80072,1.04432
0.71248,-0.59048,0.46848,0.11224,-0.244,0.47824,-0.90768,-1.2444,-0.4636,1.71776,2.31312,1.29808
0.8296,-0.60268,0.37576,-0.03904,-0.45384,0.64172,-1.23952,-1.38592,-0.83936,1.79584,2.56688,1.38592
0.94184,-0.57584,0.20984,-0.26108,-0.732,0.83692,-1.38592,-1.33224,-0.9516,1.89832,2.45464,1.21512
0.89304,-0.48556,0.07808,-0.36844,-0.81496,0.854,-1.33712,-1.37128,-0.94184,1.708,1.99592,0.93208
0.7564,-0.29768,-0.16104,-0.53924,-0.91744,0.83692,-1.10776,-1.23464,-0.82472,1.21024,1.24928,0.52704
0.50752,-0.11468,-0.27816,-0.53192,-0.78568,0.6466,-0.85888,-0.98576,-0.7076,0.64904,0.55632,0.20496
0.2684,0.0122,-0.2928,-0.427,-0.5612,0.4148,-0.5368,-0.67344,-0.5856,0.11712,0.06832,-0.0244
0.15128,0.05368,-0.25864,-0.33428,-0.40992,0.2806,-0.31232,-0.44896,-0.4636,-0.22936,-0.1708,-0.11224
0.04392,0.08784,-0.2196,-0.24156,-0.26352,0.15372,-0.20496,-0.31232,-0.3416,-0.28792,-0.1952,-0.12688
0,0.08784,-0.17568,-0.17568,-0.17568,0.08784,-0.12688,-0.20496,-0.2196,-0.21472,-0.1952,-0.14152
-0.01952,0.05368,-0.08784,-0.07808,-0.06832,0.0244,-0.0488,-0.0976,-0.122,-0.16104,-0.16104,-0.11224
-0.0488,0.06588,-0.08296,-0.05856,-0.03416,-0.00732,-0.00488,-0.04392,-0.06832,-0.11712,-0.122,-0.07808
-0.06832,0.09516,-0.122,-0.08784,-0.05368,-0.00732,0.01464,-0.00976,-0.01952,-0.09272,-0.10248,-0.06832
-0.10248,0.11468,-0.12688,-0.07564,-0.0244,-0.03904,0.01952,0.01952,-0.00488,-0.14152,-0.15128,-0.10736
-0.11712,0.122,-0.12688,-0.06832,-0.00976,-0.05368,0.02928,0.02928,0,-0.1464,-0.16592,-0.10736
-0.10248,0.10248,-0.10248,-0.05124,0,-0.05124,0.05368,0.03416,0.01464,-0.12688,-0.15128,-0.08784
-0.06344,0.06832,-0.0732,-0.04148,-0.00976,-0.02684,0.05856,0.05368,0.0244,-0.11712,-0.13176,-0.08784
-0.0488,0.05124,-0.05368,-0.02928,-0.00488,-0.02196,0.0732,0.0732,0.02928,-0.13176,-0.13664,-0.09272
-0.02928,0.0244,-0.01952,-0.00488,0.00976,-0.01952,0.08296,0.0732,0.03416,-0.13176,-0.15128,-0.09272
-0.0244,0.01952,-0.01464,-0.00244,0.00976,-0.01708,0.09272,0.08296,0.03904,-0.122,-0.13664,-0.08296
-0.03904,0.0366,-0.03416,-0.01464,0.00488,-0.02196,0.08784,0.08296,0.04392,-0.11224,-0.122,-0.07808
-0.05856,0.05124,-0.04392,-0.01464,0.01464,-0.0366,0.08296,0.09272,0.04392,-0.11224,-0.13176,-0.08784
-0.05856,0.05856,-0.05856,-0.02928,0,-0.02928,0.0732,0.08784,0.03904,-0.122,-0.14152,-0.08784
-0.05856,0.05856,-0.05856,-0.02928,0,-0.02928,0.06344,0.07808,0.01952,-0.13176,-0.1464,-0.10248
-0.06344,0.07076,-0.07808,-0.04636,-0.01464,-0.0244,0.06344,0.08296,0.02928,-0.122,-0.14152,-0.0976
-0.08296,0.08784,-0.09272,-0.05124,-0.00976,-0.0366,0.06344,0.08784,0.0244,-0.13664,-0.15128,-0.10736
-0.11224,0.11224,-0.11224,-0.05612,0,-0.05612,0.05856,0.09272,0.02928,-0.13664,-0.15616,-0.10736
-0.10248,0.09516,-0.08784,-0.0366,0.01464,-0.05856,0.06344,0.0976,0.03416,-0.122,-0.15128,-0.10248
-0.07808,0.07076,-0.06344,-0.0244,0.01464,-0.04636,0.07808,0.11712,0.04392,-0.10736,-0.12688,-0.08296
-0.0488,0.03416,-0.01952,0.00488,0.02928,-0.03904,0.0976,0.12688,0.0732,-0.0976,-0.10736,-0.07808
-0.0244,0.01952,-0.01464,-0.00244,0.00976,-0.01708,0.10736,0.13664,0.0732,-0.09272,-0.10736,-0.06832
-0.03416,0.02684,-0.01952,-0.00244,0.01464,-0.0244,0.0976,0.13664,0.06832,-0.0976,-0.11712,-0.0732
-0.03416,0.0244,-0.01464,0.00244,0.01952,-0.02684,0.09272,0.12688,0.07808,-0.10248,-0.122,-0.08296
-0.03904,0.0244,-0.00976,0.00976,0.02928,-0.03416,0.0976,0.1464,0.0732,-0.09272,-0.11712,-0.07808
-0.0488,0.04148,-0.03416,-0.00976,0.01464,-0.03172,0.08784,0.1464,0.0732,-0.10248,-0.122,-0.08296
-0.05856,0.061,-0.06344,-0.03416,-0.00488,-0.02684,0.08296,0.14152,0.0732,-0.10736,-0.12688,-0.08296
-0.06344,0.06344,-0.06344,-0.03172,0,-0.03172,0.07808,0.13664,0.0732,-0.10736,-0.12688,-0.09272
-0.06832,0.0732,-0.07808,-0.04392,-0.00976,-0.02928,0.07808,0.13176,0.06344,-0.10736,-0.13664,-0.09272
-0.05368,0.05612,-0.05856,-0.03172,-0.00488,-0.0244,0.08784,0.15128,0.08296,-0.09272,-0.13664,-0.08784
-0.05368,0.0488,-0.04392,-0.01708,0.00976,-0.03172,0.10248,0.18056,0.09272,-0.08296,-0.12688,-0.08296
-0.05856,0.0488,-0.03904,-0.00976,0.01952,-0.03904,0.11224,0.1952,0.10736,-0.08296,-0.11712,-0.07808
-0.04392,0.04148,-0.03904,-0.01708,0.00488,-0.0244,0.10248,0.1952,0.11712,-0.08296,-0.10248,-0.07808
-0.03904,0.0366,-0.03416,-0.01464,0.00488,-0.02196,0.10248,0.20496,0.122,-0.08296,-0.10736,-0.07808
-0.04392,0.04636,-0.0488,-0.02684,-0.00488,-0.01952,0.10248,0.2196,0.12688,-0.08296,-0.11712,-0.08296
-0.06832,0.06344,-0.05856,-0.0244,0.00976,-0.03904,0.10248,0.20984,0.122,-0.08296,-0.12688,-0.08784
-0.06344,0.05368,-0.04392,-0.0122,0.01952,-0.04148,0.11224,0.23424,0.12688,-0.06832,-0.11712,-0.08784
-0.05856,0.04636,-0.03416,-0.00488,0.0244,-0.04148,0.11712,0.25376,0.15128,-0.06832,-0.122,-0.08784
-0.0488,0.03904,-0.02928,-0.00488,0.01952,-0.03416,0.122,0.26352,0.15616,-0.05856,-0.11712,-0.08296
-0.06344,0.05368,-0.04392,-0.0122,0.01952,-0.04148,0.12688,0.28304,0.16592,-0.0488,-0.11224,-0.07808
-0.05368,0.04636,-0.03904,-0.0122,0.01464,-0.03416,0.12688,0.30256,0.17568,-0.05368,-0.11224,-0.07808
-0.03904,0.02928,-0.01952,0,0.01952,-0.02928,0.13176,0.32208,0.18056,-0.0488,-0.11712,-0.07808
-0.03416,0.02196,-0.00976,0.00732,0.0244,-0.02928,0.13664,0.31232,0.18056,-0.05368,-0.12688,-0.0732
-0.0244,0.00732,0.00976,0.02196,0.03416,-0.02928,0.1464,0.35136,0.20984,-0.03416,-0.11224,-0.06344
-0.0244,0.0122,0,0.0122,0.0244,-0.0244,0.14152,0.37088,0.2196,-0.03416,-0.11224,-0.06832
-0.04392,0.03416,-0.0244,-0.00244,0.01952,-0.03172,0.15616,0.3904,0.2196,-0.02928,-0.11224,-0.07808
-0.04392,0.03416,-0.0244,-0.00244,0.01952,-0.03172,0.1464,0.42944,0.22448,-0.02928,-0.10248,-0.0732
-0.03416,0.0244,-0.01464,0.00244,0.01952,-0.02684,0.1464,0.44896,0.244,-0.01464,-0.10248,-0.0732
-0.03416,0.01464,0.00488,0.02196,0.03904,-0.0366,0.15128,0.47336,0.24888,0.01464,-0.09272,-0.0732
-0.03416,0.0122,0.00976,0.02684,0.04392,-0.03904,0.16592,0.50752,0.25864,0.01952,-0.08784,-0.05856
-0.03416,0.00244,0.02928,0.04636,0.06344,-0.0488,0.16592,0.53192,0.26352,0.02928,-0.08296,-0.05856
-0.03416,0.00976,0.01464,0.03172,0.0488,-0.04148,0.16592,0.5368,0.28304,0.03416,-0.0732,-0.05368
-0.03416,0.00976,0.01464,0.03172,0.0488,-0.04148,0.17568,0.55632,0.30256,0.04392,-0.0488,-0.03416
-0.02928,0.00488,0.01952,0.03416,0.0488,-0.03904,0.17568,0.59536,0.31232,0.06344,-0.03904,-0.0244
-0.01952,-0.01708,0.05368,0.06344,0.0732,-0.04636,0.17568,0.62464,0.31232,0.0732,-0.02928,-0.0244
-0.01464,-0.02684,0.06832,0.07564,0.08296,-0.0488,0.16592,0.6344,0.32208,0.09272,-0.0244,-0.01464
-0.00488,-0.0366,0.07808,0.08052,0.08296,-0.04392,0.1708,0.65392,0.3416,0.122,0,0.00976
0.00488,-0.04148,0.07808,0.07564,0.0732,-0.03416,0.18056,0.66856,0.35136,0.14152,0.00976,0.00976
0,-0.02928,0.05856,0.05856,0.05856,-0.02928,0.17568,0.6832,0.35624,0.16104,0.01952,0.01464
0.00976,-0.04148,0.0732,0.06832,0.06344,-0.02684,0.15128,0.67832,0.34648,0.1708,0.0244,0.00976
0.03904,-0.05856,0.07808,0.05856,0.03904,0,0.15128,0.68808,0.366,0.1952,0.05368,0.0244
0.02928,-0.05124,0.0732,0.05856,0.04392,-0.00732,0.15616,0.6832,0.366,0.20496,0.05856,0.0244
0.00976,-0.05124,0.09272,0.08784,0.08296,-0.0366,0.15128,0.67344,0.35624,0.20984,0.05856,0.0244
0.01952,-0.05856,0.0976,0.08784,0.07808,-0.02928,0.15128,0.66856,0.35624,0.21472,0.06832,0.02928
0.02928,-0.05368,0.07808,0.06344,0.0488,-0.00976,0.14152,0.65392,0.34648,0.2196,0.06832,0.03416
0.04392,-0.061,0.07808,0.05612,0.03416,0.00488,0.13176,0.63928,0.3416,0.23424,0.07808,0.03416
0.04392,-0.06588,0.08784,0.06588,0.04392,0,0.13176,0.62952,0.3416,0.24888,0.08296,0.03904
0.04392,-0.06832,0.09272,0.07076,0.0488,-0.00244,0.12688,0.59536,0.33184,0.24888,0.08784,0.04392
0.04392,-0.05856,0.0732,0.05124,0.02928,0.00732,0.122,0.57096,0.32208,0.244,0.08784,0.04392
0.03904,-0.0488,0.05856,0.03904,0.01952,0.00976,0.11712,0.53192,0.30744,0.23912,0.08784,0.04392
0.02928,-0.0366,0.04392,0.02928,0.01464,0.00732,0.11224,0.47824,0.29768,0.23912,0.09272,0.04392
0.00976,-0.01952,0.02928,0.0244,0.01952,-0.00488,0.10248,0.42944,0.27328,0.21472,0.09272,0.0488
0.00976,-0.01952,0.02928,0.0244,0.01952,-0.00488,0.09272,0.37576,0.23424,0.19032,0.08296,0.04392
0.02928,-0.04392,0.05856,0.04392,0.02928,0,0.06832,0.32208,0.21472,0.16592,0.06832,0.03904
0.03416,-0.05124,0.06832,0.05124,0.03416,0,0.05856,0.25864,0.18544,0.14152,0.05856,0.02928
0.0244,-0.03416,0.04392,0.03172,0.01952,0.00244,0.05368,0.23424,0.15616,0.122,0.03904,0.02928
-0.00488,-0.0122,0.02928,0.03172,0.03416,-0.01952,0.0488,0.18056,0.13664,0.09272,0.03416,0.0244
-0.0244,0.00732,0.00976,0.02196,0.03416,-0.02928,0.04392,0.1464,0.10736,0.0732,0.0244,0.01464
-0.0244,0.01708,-0.00976,0.00244,0.01464,-0.01952,0.02928,0.09272,0.08784,0.0488,0.01464,0.00488
-0.02928,0.02196,-0.01464,0,0.01464,-0.02196,0.01952,0.06832,0.06832,0.02928,0,0
-0.0244,0.01708,-0.00976,0.00244,0.01464,-0.01952,0,0.01952,0.02928,-0.00976,-0.02928,-0.02928
-0.02928,0.03416,-0.03904,-0.0244,-0.00976,-0.00976,-0.00976,-0.01464,0.01464,-0.02928,-0.04392,-0.04392
-0.03416,0.0366,-0.03904,-0.02196,-0.00488,-0.01464,0,-0.03904,-0.00488,-0.0488,-0.05368,-0.0488
-0.04392,0.04148,-0.03904,-0.01708,0.00488,-0.0244,0.00976,-0.03416,-0.00488,-0.0488,-0.05856,-0.03904
-0.01952,0.02684,-0.03416,-0.0244,-0.01464,-0.00244,0,-0.04392,-0.01952,-0.05856,-0.06832,-0.04392
-0.02928,0.03416,-0.03904,-0.0244,-0.00976,-0.00976,-0.00976,-0.05856,-0.02928,-0.08784,-0.08296,-0.05368
-0.0244,0.03172,-0.03904,-0.02684,-0.01464,-0.00488,-0.00488,-0.06344,-0.03416,-0.0976,-0.08296,-0.05368
-0.01464,0.02684,-0.03904,-0.03172,-0.0244,0.00488,0.00976,-0.05368,-0.01952,-0.08784,-0.07808,-0.0488
-0.0244,0.02928,-0.03416,-0.02196,-0.00976,-0.00732,0.00976,-0.06832,-0.03416,-0.0976,-0.08784,-0.05856
-0.02928,0.04148,-0.05368,-0.03904,-0.0244,-0.00244,0.00488,-0.0488,-0.0244,-0.0976,-0.08784,-0.05856
-0.03904,0.05612,-0.0732,-0.05368,-0.03416,-0.00244,0,-0.0488,-0.04392,-0.11712,-0.0976,-0.08296
-0.04392,0.05612,-0.06832,-0.04636,-0.0244,-0.00976,-0.00488,-0.06344,-0.04392,-0.122,-0.11712,-0.08784
-0.0732,0.08052,-0.08784,-0.05124,-0.01464,-0.02928,0.00488,-0.0732,-0.0488,-0.12688,-0.122,-0.08784
-0.08296,0.08784,-0.09272,-0.05124,-0.00976,-0.0366,0.00488,-0.06344,-0.03904,-0.12688,-0.12688,-0.08784
-0.06832,0.07564,-0.08296,-0.0488,-0.01464,-0.02684,0.01464,-0.05368,-0.03416,-0.13664,-0.12688,-0.08784
-0.0488,0.04636,-0.04392,-0.01952,0.00488,-0.02684,0.00976,-0.06344,-0.03416,-0.1464,-0.13176,-0.09272
-0.05368,0.04636,-0.03904,-0.0122,0.01464,-0.03416,0.01464,-0.06344,-0.03416,-0.14152,-0.13664,-0.0976
-0.06344,0.061,-0.05856,-0.02684,0.00488,-0.03416,0.01464,-0.06344,-0.03416,-0.14152,-0.13664,-0.09272
-0.06344,0.05612,-0.0488,-0.01708,0.01464,-0.03904,0.01464,-0.0488,-0.02928,-0.13664,-0.12688,-0.08296
-0.07808,0.07564,-0.0732,-0.03416,0.00488,-0.04148,0.00976,-0.05368,-0.02928,-0.14152,-0.14152,-0.09272
-0.0732,0.08052,-0.08784,-0.05124,-0.01464,-0.02928,0.01952,-0.04392,-0.02928,-0.14152,-0.14152,-0.09272
-0.05368,0.06344,-0.0732,-0.04636,-0.01952,-0.01708,0.01952,-0.04392,-0.02928,-0.14152,-0.14152,-0.08784
-0.0488,0.05856,-0.06832,-0.04392,-0.01952,-0.01464,0.00976,-0.05368,-0.03416,-0.15128,-0.15616,-0.10248
-0.07808,0.08784,-0.0976,-0.05856,-0.01952,-0.02928,0.01464,-0.05368,-0.03416,-0.16104,-0.15616,-0.10248
-0.11224,0.11224,-0.11224,-0.05612,0,-0.05612,0.00488,-0.06344,-0.0488,-0.1708,-0.16592,-0.10248
-0.10736,0.10736,-0.10736,-0.05368,0,-0.05368,0.00488,-0.06344,-0.04392,-0.17568,-0.16104,-0.0976
-0.06832,0.06832,-0.06832,-0.03416,0,-0.03416,0.01952,-0.05368,-0.0244,-0.16104,-0.15128,-0.08296
-0.07808,0.06832,-0.05856,-0.01952,0.01952,-0.0488,0.01464,-0.05856,-0.02928,-0.16104,-0.15128,-0.08784
-0.05856,0.04148,-0.0244,0.00488,0.03416,-0.04636,0.0244,-0.0488,-0.01952,-0.14152,-0.1464,-0.06832
-0.04392,0.0244,-0.00488,0.01708,0.03904,-0.04148,0.03416,-0.0488,-0.00976,-0.14152,-0.13176,-0.06344
-0.05368,0.03172,-0.00976,0.01708,0.04392,-0.0488,0.0244,-0.06344,-0.01464,-0.1464,-0.13664,-0.0732
-0.04392,0.02928,-0.01464,0.00732,0.02928,-0.0366,0.0244,-0.06832,-0.0244,-0.15616,-0.12688,-0.0732
-0.04392,0.03172,-0.01952,0.00244,0.0244,-0.03416,0.01952,-0.06832,-0.02928,-0.15128,-0.14152,-0.06344
-0.0488,0.03904,-0.02928,-0.00488,0.01952,-0.03416,0.01464,-0.08784,-0.02928,-0.1464,-0.14152,-0.06344
-0.0732,0.05368,-0.03416,0.00244,0.03904,-0.05612,0,-0.08296,-0.02928,-0.16104,-0.14152,-0.06832
-0.0976,0.08052,-0.06344,-0.01464,0.03416,-0.06588,0.00488,-0.08296,-0.03416,-0.15616,-0.13664,-0.0732
-0.09272,0.0732,-0.05368,-0.00732,0.03904,-0.06588,0.01952,-0.0732,-0.0244,-0.14152,-0.122,-0.06832
-0.08296,0.06588,-0.0488,-0.00732,0.03416,-0.05856,0.00488,-0.08296,-0.02928,-0.1464,-0.122,-0.06344
-0.07808,0.07564,-0.0732,-0.03416,0.00488,-0.04148,0,-0.09272,-0.0488,-0.15128,-0.12688,-0.06344
-0.07808,0.07076,-0.06344,-0.0244,0.01464,-0.04636,-0.00976,-0.09272,-0.0488,-0.15616,-0.13176,-0.06832
-0.06832,0.05612,-0.04392,-0.00976,0.0244,-0.04636,0.00488,-0.08784,-0.04392,-0.14152,-0.11224,-0.05856
-0.01952,0.01464,-0.00976,0,0.00976,-0.01464,0.01952,-0.07808,-0.02928,-0.122,-0.09272,-0.04392
-0.00976,0,0.00976,0.01464,0.01952,-0.01464,0.01464,-0.07808,-0.02928,-0.12688,-0.09272,-0.0488
-0.00976,0.00488,0,0.00488,0.00976,-0.00976,0.01464,-0.07808,-0.03416,-0.13176,-0.0976,-0.04392
-0.03416,0.02928,-0.0244,-0.00732,0.00976,-0.02196,0.00488,-0.08296,-0.04392,-0.13664,-0.11224,-0.05856
-0.06344,0.05124,-0.03904,-0.00732,0.0244,-0.04392,-0.00976,-0.09272,-0.05368,-0.14152,-0.11224,-0.05856
-0.0732,0.05856,-0.04392,-0.00732,0.02928,-0.05124,-0.00488,-0.0976,-0.04392,-0.13664,-0.10736,-0.06832
-0.05856,0.05368,-0.0488,-0.01952,0.00976,-0.03416,-0.00976,-0.0976,-0.04392,-0.13664,-0.10736,-0.06344
-0.06344,0.05856,-0.05368,-0.02196,0.00976,-0.0366,-0.01952,-0.0976,-0.0488,-0.12688,-0.0976,-0.05856
-0.06832,0.05856,-0.0488,-0.01464,0.01952,-0.04392,-0.00976,-0.09272,-0.0488,-0.122,-0.09272,-0.05368
-0.06832,0.0488,-0.02928,0.00488,0.03904,-0.05368,-0.01464,-0.09272,-0.04392,-0.12688,-0.08296,-0.05856
-0.0488,0.03904,-0.02928,-0.00488,0.01952,-0.03416,-0.00976,-0.0976,-0.0488,-0.12688,-0.09272,-0.0488
-0.02928,0.02684,-0.0244,-0.00976,0.00488,-0.01708,0.01464,-0.09272,-0.03416,-0.11224,-0.07808,-0.02928
-0.00976,0.00244,0.00488,0.00976,0.01464,-0.0122,0.01464,-0.09272,-0.03416,-0.11224,-0.07808,-0.0244
-0.0244,0.01952,-0.01464,-0.00244,0.00976,-0.01708,0,-0.09272,-0.03904,-0.11712,-0.09272,-0.03904
-0.05368,0.0488,-0.04392,-0.01708,0.00976,-0.03172,-0.00976,-0.10248,-0.0488,-0.12688,-0.10248,-0.05856
-0.0732,0.06588,-0.05856,-0.02196,0.01464,-0.04392,-0.01464,-0.11712,-0.06344,-0.1464,-0.10736,-0.06832
-0.08296,0.07564,-0.06832,-0.02684,0.01464,-0.0488,-0.01464,-0.11712,-0.06832,-0.1464,-0.10248,-0.06832
-0.05368,0.05612,-0.05856,-0.03172,-0.00488,-0.0244,-0.00488,-0.10248,-0.0488,-0.13176,-0.08784,-0.05856
-0.04392,0.03904,-0.03416,-0.0122,0.00976,-0.02684,-0.00488,-0.10248,-0.0488,-0.13176,-0.08784,-0.05368
-0.03904,0.03416,-0.02928,-0.00976,0.00976,-0.0244,0,-0.09272,-0.04392,-0.12688,-0.08784,-0.05368
-0.03904,0.03172,-0.0244,-0.00488,0.01464,-0.02684,0,-0.09272,-0.04392,-0.12688,-0.08784,-0.05368
-0.0244,0.00976,0.00488,0.01708,0.02928,-0.02684,-0.00976,-0.0976,-0.05368,-0.122,-0.0976,-0.05368
-0.03416,0.01464,0.00488,0.02196,0.03904,-0.0366,-0.00976,-0.09272,-0.05368,-0.122,-0.08784,-0.05368
-0.05368,0.03904,-0.0244,0.00244,0.02928,-0.04148,-0.00488,-0.08784,-0.04392,-0.122,-0.08784,-0.04392
-0.05856,0.05124,-0.04392,-0.01464,0.01464,-0.0366,-0.00976,-0.0976,-0.0488,-0.122,-0.0976,-0.0488
-0.05368,0.05612,-0.05856,-0.03172,-0.00488,-0.0244,0.00488,-0.08784,-0.0488,-0.11712,-0.08784,-0.04392
-0.06832,0.06832,-0.06832,-0.03416,0,-0.03416,-0.00488,-0.09272,-0.04392,-0.122,-0.08784,-0.0488
-0.0732,0.06588,-0.05856,-0.02196,0.01464,-0.04392,-0.01464,-0.10248,-0.04392,-0.13176,-0.0976,-0.05856
-0.06344,0.0488,-0.03416,-0.00244,0.02928,-0.04636,-0.00976,-0.0976,-0.0488,-0.13176,-0.10248,-0.06344
-0.0244,0.02196,-0.01952,-0.00732,0.00488,-0.01464,0,-0.10736,-0.05368,-0.12688,-0.0976,-0.05856
-0.0244,0.0244,-0.0244,-0.0122,0,-0.0122,0,-0.10248,-0.0488,-0.13176,-0.0976,-0.05856
-0.0244,0.03172,-0.03904,-0.02684,-0.01464,-0.00488,0,-0.10248,-0.04392,-0.12688,-0.09272,-0.05368
-0.03904,0.04392,-0.0488,-0.02928,-0.00976,-0.01464,-0.00488,-0.10736,-0.05856,-0.13176,-0.10248,-0.06344
-0.04392,0.03904,-0.03416,-0.0122,0.00976,-0.02684,-0.00488,-0.0976,-0.05368,-0.13176,-0.0976,-0.05856
-0.02928,0.02684,-0.0244,-0.00976,0.00488,-0.01708,0.00488,-0.08784,-0.03904,-0.11712,-0.08296,-0.0488
-0.0244,0.01708,-0.00976,0.00244,0.01464,-0.01952,0.00488,-0.08784,-0.02928,-0.11224,-0.08296,-0.05368
-0.03904,0.02928,-0.01952,0,0.01952,-0.02928,0.01464,-0.07808,-0.03416,-0.11712,-0.08296,-0.04392
-0.04392,0.0366,-0.02928,-0.00732,0.01464,-0.02928,0.01464,-0.07808,-0.0488,-0.122,-0.09272,-0.05368
-0.03416,0.02928,-0.0244,-0.00732,0.00976,-0.02196,0.00488,-0.09272,-0.0488,-0.122,-0.09272,-0.04392
-0.05856,0.05368,-0.0488,-0.01952,0.00976,-0.03416,-0.01952,-0.10248,-0.06344,-0.13664,-0.122,-0.06832
-0.03904,0.04392,-0.0488,-0.02928,-0.00976,-0.01464,0,-0.07808,-0.03904,-0.12688,-0.08784,-0.0488
-0.05856,0.05856,-0.05856,-0.02928,0,-0.02928,-0.00976,-0.08784,-0.0488,-0.12688,-0.0976,-0.05856
-0.07808,0.06832,-0.05856,-0.01952,0.01952,-0.0488,-0.00976,-0.0976,-0.0488,-0.12688,-0.0976,-0.05856
-0.06832,0.05856,-0.0488,-0.01464,0.01952,-0.04392,0.01464,-0.08784,-0.02928,-0.122,-0.0976,-0.05368
-0.03904,0.02196,-0.00488,0.01464,0.03416,-0.0366,0.0244,-0.06832,-0.01952,-0.10736,-0.0732,-0.03416
-0.02928,0.00244,0.0244,0.03904,0.05368,-0.04148,0.02928,-0.0732,-0.00976,-0.0976,-0.07808,-0.03904
-0.01952,-0.00488,0.02928,0.03904,0.0488,-0.03416,0.04392,-0.05856,0,-0.08784,-0.0732,-0.03904
-0.04392,0.0122,0.01952,0.04148,0.06344,-0.05368,0.04392,-0.05368,0.00488,-0.09272,-0.06344,-0.03416
-0.05856,0.01952,0.01952,0.0488,0.07808,-0.06832,0.04392,-0.05368,0.00488,-0.09272,-0.06344,-0.03416
-0.06344,0.02684,0.00976,0.04148,0.0732,-0.06832,0.06344,-0.03904,0.02928,-0.07808,-0.05368,-0.01952
-0.05856,0.01708,0.0244,0.05368,0.08296,-0.07076,0.06344,-0.03904,0.03416,-0.0732,-0.05368,-0.01464
-0.03904,-0.00244,0.04392,0.06344,0.08296,-0.061,0.08296,-0.02928,0.03904,-0.05856,-0.03416,-0.00488
-0.0244,-0.01464,0.05368,0.06588,0.07808,-0.05124,0.06344,-0.04392,0.03416,-0.06344,-0.04392,-0.01464
-0.0244,-0.00976,0.04392,0.05612,0.06832,-0.04636,0.03904,-0.05856,0.01952,-0.0732,-0.05368,-0.02928
-0.01464,-0.01708,0.0488,0.05612,0.06344,-0.03904,0.03416,-0.08296,0.00976,-0.07808,-0.05368,-0.0244
-0.00488,-0.02928,0.06344,0.06588,0.06832,-0.0366,0.01952,-0.08296,0.00976,-0.08296,-0.0488,-0.00976
-0.01464,-0.0122,0.03904,0.04636,0.05368,-0.03416,0.01464,-0.08296,0.00976,-0.0732,-0.04392,-0.00488
0,-0.0366,0.0732,0.0732,0.0732,-0.0366,0,-0.08296,0.00488,-0.07808,-0.0488,-0.01464
-0.00488,-0.03904,0.08296,0.0854,0.08784,-0.04636,0.00488,-0.08296,0.01464,-0.07808,-0.05368,-0.00976
-0.0244,-0.00732,0.03904,0.05124,0.06344,-0.04392,0.00488,-0.0976,-0.00488,-0.0976,-0.05856,-0.01464
-0.01952,-0.00976,0.03904,0.0488,0.05856,-0.03904,0,-0.0976,0,-0.08784,-0.06344,-0.01952
-0.01952,-0.01464,0.0488,0.05856,0.06832,-0.04392,-0.01464,-0.0976,-0.00976,-0.0976,-0.05856,-0.01952
-0.00976,-0.01464,0.03904,0.04392,0.0488,-0.02928,-0.03416,-0.09272,-0.02928,-0.10736,-0.0732,-0.02928
-0.01464,0.00488,0.00488,0.0122,0.01952,-0.01708,-0.03904,-0.10248,-0.04392,-0.11224,-0.0732,-0.03416
-0.00488,0.01708,-0.02928,-0.02684,-0.0244,0.00976,-0.03904,-0.08784,-0.04392,-0.11224,-0.06832,-0.03416
0.00488,0.0122,-0.02928,-0.03172,-0.03416,0.01952,-0.03416,-0.08784,-0.05368,-0.122,-0.08784,-0.0488
-0.01464,0.02928,-0.04392,-0.0366,-0.02928,0.00732,-0.02928,-0.09272,-0.05368,-0.122,-0.08784,-0.0488
-0.03416,0.03416,-0.03416,-0.01708,0,-0.01708,-0.01952,-0.08296,-0.0488,-0.13176,-0.08296,-0.0488
-0.0488,0.03904,-0.02928,-0.00488,0.01952,-0.03416,0,-0.06832,-0.03904,-0.12688,-0.0732,-0.0488
-0.0488,0.03416,-0.01952,0.00488,0.02928,-0.03904,-0.00488,-0.08784,-0.05368,-0.13664,-0.0976,-0.06344
-0.07808,0.061,-0.04392,-0.00488,0.03416,-0.05612,-0.01952,-0.10736,-0.05856,-0.15128,-0.10736,-0.07808
-0.0732,0.07808,-0.08296,-0.04636,-0.00976,-0.03172,-0.01952,-0.0976,-0.05856,-0.14152,-0.11712,-0.06832
-0.06832,0.08052,-0.09272,-0.05856,-0.0244,-0.02196,-0.01952,-0.10248,-0.06832,-0.15128,-0.122,-0.0732
-0.04392,0.06344,-0.08296,-0.061,-0.03904,-0.00244,-0.0244,-0.10736,-0.06344,-0.16104,-0.12688,-0.08296
-0.0488,0.06832,-0.08784,-0.06344,-0.03904,-0.00488,-0.0244,-0.10248,-0.05856,-0.15616,-0.12688,-0.07808
-0.05368,0.061,-0.06832,-0.04148,-0.01464,-0.01952,-0.00976,-0.08784,-0.05856,-0.15616,-0.11712,-0.06832
-0.05856,0.05612,-0.05368,-0.0244,0.00488,-0.03172,0,-0.08296,-0.05856,-0.14152,-0.10736,-0.0732
-0.0488,0.04392,-0.03904,-0.01464,0.00976,-0.02928,0.00976,-0.0732,-0.0488,-0.13176,-0.10736,-0.05856
-0.03904,0.04636,-0.05368,-0.03416,-0.01464,-0.0122,0.00976,-0.06832,-0.03904,-0.13176,-0.0976,-0.05856
-0.05368,0.04392,-0.03416,-0.00732,0.01952,-0.0366,0.00488,-0.06344,-0.03416,-0.14152,-0.10248,-0.06344
-0.05368,0.04636,-0.03904,-0.0122,0.01464,-0.03416,0.00488,-0.07808,-0.04392,-0.14152,-0.10736,-0.06832
-0.06832,0.06588,-0.06344,-0.02928,0.00488,-0.0366,-0.00976,-0.08784,-0.05368,-0.15128,-0.11224,-0.07808
-0.0732,0.07076,-0.06832,-0.03172,0.00488,-0.03904,-0.00976,-0.0976,-0.0488,-0.15128,-0.11224,-0.07808
-0.03904,0.03416,-0.02928,-0.00976,0.00976,-0.0244,-0.01952,-0.10736,-0.05368,-0.15616,-0.10736,-0.0732
-0.07808,0.05368,-0.02928,0.00976,0.0488,-0.06344,-0.04392,-0.13664,-0.03416,-0.12688,-0.10248,-0.06344
-0.02928,0.00732,0.01464,0.02928,0.04392,-0.0366,-0.0244,-0.0976,0.01464,-0.05368,-0.03904,-0.00488
-0.0244,-0.04636,0.11712,0.12932,0.14152,-0.08296,-0.04392,-0.09272,0.0732,0.03904,0.0488,0.06832
-0.00976,-0.07808,0.16592,0.1708,0.17568,-0.09272,-0.06344,-0.09272,0.15616,0.15128,0.16592,0.14152
0.06344,-0.1342,0.20496,0.17324,0.14152,-0.03904,-0.13664,-0.38552,0.11224,0.32696,0.40992,0.28792
0.15616,-0.24888,0.3416,0.26352,0.18544,-0.01464,-0.2684,-0.67344,0.09272,0.61488,0.7808,0.5124
0.28792,-0.36356,0.4392,0.29524,0.15128,0.06832,-0.40016,-1.0248,-0.06832,0.91744,1.21024,0.76128
0.51728,-0.48068,0.44408,0.18544,-0.0732,0.29524,-0.56608,-1.10288,-0.19032,1.25416,1.6836,0.98576
0.70272,-0.57584,0.44896,0.0976,-0.25376,0.47824,-0.83936,-1.21024,-0.43432,1.5616,2.18624,1.22488
0.8784,-0.671,0.4636,0.0244,-0.4148,0.6466,-1.11264,-1.32736,-0.75152,1.71288,2.54248,1.40056
1.01016,-0.62708,0.244,-0.26108,-0.76616,0.88816,-1.2932,-1.29808,-0.8784,1.79584,2.45952,1.26392
0.93208,-0.53924,0.1464,-0.31964,-0.78568,0.85888,-1.33712,-1.41032,-0.9516,1.60552,2.00568,0.976
0.76616,-0.30988,-0.1464,-0.52948,-0.91256,0.83936,-1.13704,-1.27368,-0.85888,1.15656,1.25904,0.54168
0.49288,-0.11224,-0.2684,-0.51484,-0.76128,0.62708,-0.85888,-0.99064,-0.71736,0.64904,0.61488,0.244
0.25376,0.01708,-0.28792,-0.4148,-0.54168,0.39772,-0.58072,-0.732,-0.59536,0.14152,0.10736,0.00488
0.11712,0.10248,-0.32208,-0.38064,-0.4392,0.27816,-0.35136,-0.50264,-0.4636,-0.22448,-0.18056,-0.12688
0.06344,0.09272,-0.24888,-0.2806,-0.31232,0.18788,-0.2196,-0.3416,-0.37576,-0.35136,-0.24888,-0.16592
-0.05856,0.14884,-0.23912,-0.20984,-0.18056,0.061,-0.14152,-0.21472,-0.23424,-0.23912,-0.21472,-0.15128
-0.10248,0.14396,-0.18544,-0.1342,-0.08296,-0.00976,-0.06344,-0.11712,-0.13176,-0.1952,-0.17568,-0.13664
0.03904,0,-0.03904,-0.05856,-0.07808,0.05856,-0.00976,-0.03904,-0.0488,-0.122,-0.10248,-0.08296
0.06344,-0.01952,-0.0244,-0.05612,-0.08784,0.07564,0.03904,0.03416,0.01464,-0.08296,-0.0976,-0.05856
0,-0.0122,0.0244,0.0244,0.0244,-0.0122,0.06832,0.05856,0.0244,-0.11224,-0.122,-0.06832
-0.04392,0.03416,-0.0244,-0.00244,0.01952,-0.03172,0.06832,0.06344,0.0244,-0.12688,-0.14152,-0.09272
-0.0732,0.08052,-0.08784,-0.05124,-0.01464,-0.02928,0.07808,0.06832,0.03416,-0.122,-0.13176,-0.0732
-0.04392,0.05124,-0.05856,-0.0366,-0.01464,-0.01464,0.06344,0.05856,0.03904,-0.13176,-0.14152,-0.08296
-0.02928,0.03416,-0.03904,-0.0244,-0.00976,-0.00976,0.06344,0.07808,0.04392,-0.14152,-0.15128,-0.10248
-0.0488,0.05368,-0.05856,-0.03416,-0.00976,-0.01952,0.09272,0.10248,0.06344,-0.122,-0.13664,-0.08296
-0.05368,0.0488,-0.04392,-0.01708,0.00976,-0.03172,0.09272,0.11224,0.05856,-0.11224,-0.12688,-0.0732
-0.03904,0.04636,-0.05368,-0.03416,-0.01464,-0.0122,0.07808,0.10248,0.05368,-0.12688,-0.13664,-0.08784
-0.0488,0.05124,-0.05368,-0.02928,-0.00488,-0.02196,0.06832,0.10736,0.05368,-0.13664,-0.1464,-0.0976
-0.06832,0.06344,-0.05856,-0.0244,0.00976,-0.03904,0.07808,0.122,0.06344,-0.13664,-0.15616,-0.10736
-0.07808,0.07076,-0.06344,-0.0244,0.01464,-0.04636,0.0732,0.10736,0.0488,-0.14152,-0.16592,-0.11224
-0.06832,0.06588,-0.06344,-0.02928,0.00488,-0.0366,0.0732,0.10736,0.05368,-0.13664,-0.15128,-0.10736
-0.0732,0.07076,-0.06832,-0.03172,0.00488,-0.03904,0.0732,0.11224,0.05856,-0.13176,-0.15128,-0.10736
-0.06832,0.06832,-0.06832,-0.03416,0,-0.03416,0.08296,0.11712,0.06344,-0.13664,-0.1464,-0.0976
-0.06344,0.05612,-0.0488,-0.01708,0.01464,-0.03904,0.07808,0.122,0.06832,-0.13176,-0.1464,-0.0976
-0.04392,0.02928,-0.01464,0.00732,0.02928,-0.0366,0.09272,0.14152,0.07808,-0.11224,-0.13176,-0.08296
-0.03904,0.01708,0.00488,0.0244,0.04392,-0.04148,0.10248,0.16104,0.0976,-0.08784,-0.11224,-0.06832
-0.0244,0.0122,0,0.0122,0.0244,-0.0244,0.09272,0.16104,0.0976,-0.10248,-0.122,-0.08296
-0.01952,0.02684,-0.03416,-0.0244,-0.01464,-0.00244,0.09272,0.16104,0.08784,-0.11224,-0.122,-0.08784
-0.04392,0.04636,-0.0488,-0.02684,-0.00488,-0.01952,0.0976,0.16104,0.08784,-0.11712,-0.12688,-0.08784
-0.02928,0.02684,-0.0244,-0.00976,0.00488,-0.01708,0.0976,0.16592,0.10248,-0.10248,-0.12688,-0.07808
-0.04392,0.0366,-0.02928,-0.00732,0.01464,-0.02928,0.08784,0.16592,0.09272,-0.122,-0.14152,-0.08784
-0.06344,0.05124,-0.03904,-0.00732,0.0244,-0.04392,0.08296,0.15616,0.09272,-0.11712,-0.14152,-0.09272
-0.06344,0.05124,-0.03904,-0.00732,0.0244,-0.04392,0.08784,0.1708,0.10248,-0.10736,-0.13664,-0.08784
-0.05368,0.04148,-0.02928,-0.00244,0.0244,-0.03904,0.0976,0.17568,0.10248,-0.10736,-0.12688,-0.09272
-0.05856,0.05368,-0.0488,-0.01952,0.00976,-0.03416,0.0976,0.18544,0.11224,-0.11224,-0.13664,-0.09272
-0.05856,0.06344,-0.06832,-0.03904,-0.00976,-0.0244,0.10248,0.20008,0.12688,-0.10248,-0.13176,-0.0976
-0.04392,0.04636,-0.0488,-0.02684,-0.00488,-0.01952,0.10736,0.20984,0.12688,-0.09272,-0.122,-0.08784
-0.03904,0.04392,-0.0488,-0.02928,-0.00976,-0.01464,0.10736,0.21472,0.13664,-0.08296,-0.122,-0.08296
-0.0244,0.0244,-0.0244,-0.0122,0,-0.0122,0.10248,0.20496,0.13176,-0.09272,-0.13664,-0.0976
-0.01464,0.0122,-0.00976,-0.00244,0.00488,-0.00976,0.10248,0.2196,0.13664,-0.0976,-0.13664,-0.0976
-0.0244,0.02928,-0.03416,-0.02196,-0.00976,-0.00732,0.122,0.244,0.15128,-0.08296,-0.122,-0.08296
-0.03904,0.04392,-0.0488,-0.02928,-0.00976,-0.01464,0.13176,0.26352,0.1708,-0.06832,-0.11712,-0.08296
-0.02928,0.0244,-0.01952,-0.00488,0.00976,-0.01952,0.12688,0.27328,0.16104,-0.07808,-0.13176,-0.0976
-0.03416,0.0244,-0.01464,0.00244,0.01952,-0.02684,0.13176,0.28304,0.18056,-0.07808,-0.13176,-0.09272
-0.04392,0.0244,-0.00488,0.01708,0.03904,-0.04148,0.14152,0.30256,0.18544,-0.05856,-0.11224,-0.08296
-0.05856,0.0488,-0.03904,-0.00976,0.01952,-0.03904,0.1464,0.33184,0.20008,-0.06344,-0.11224,-0.07808
-0.07808,0.05856,-0.03904,0,0.03904,-0.05856,0.13664,0.3416,0.1952,-0.06344,-0.12688,-0.07808
-0.07808,0.05124,-0.0244,0.01464,0.05368,-0.06588,0.13176,0.33184,0.20008,-0.05856,-0.12688,-0.0976
-0.05368,0.0366,-0.01952,0.00732,0.03416,-0.04392,0.1464,0.366,0.21472,-0.0488,-0.11712,-0.09272
-0.01464,-0.00244,0.01952,0.02684,0.03416,-0.0244,0.16104,0.42456,0.244,-0.02928,-0.0976,-0.07808
-0.01464,-0.00488,0.0244,0.03172,0.03904,-0.02684,0.15128,0.42944,0.24888,-0.02928,-0.10248,-0.06344
-0.01952,-0.00488,0.02928,0.03904,0.0488,-0.03416,0.15616,0.45384,0.25864,-0.0244,-0.0976,-0.06344
-0.0244,0.00732,0.00976,0.02196,0.03416,-0.02928,0.15616,0.47824,0.25864,-0.0244,-0.10248,-0.06344
-0.0244,0.0122,0,0.0122,0.0244,-0.0244,0.16592,0.49288,0.27328,-0.01464,-0.10248,-0.06344
-0.0244,0.0122,0,0.0122,0.0244,-0.0244,0.1708,0.5124,0.28792,0.00488,-0.08784,-0.05856
-0.01952,0.00976,0,0.00976,0.01952,-0.01952,0.1708,0.55632,0.29768,0.0244,-0.0732,-0.0488
-0.03416,0.01464,0.00488,0.02196,0.03904,-0.0366,0.16592,0.5612,0.30256,0.0244,-0.08296,-0.05368
-0.03904,0.0122,0.01464,0.03416,0.05368,-0.04636,0.1708,0.57584,0.3172,0.03416,-0.06832,-0.05368
-0.00976,-0.0122,0.03416,0.03904,0.04392,-0.02684,0.18544,0.61,0.33672,0.06832,-0.04392,-0.04392
0.01464,-0.0366,0.05856,0.05124,0.04392,-0.01464,0.18544,0.6588,0.35624,0.08784,-0.02928,-0.01464
0.03416,-0.06344,0.09272,0.07564,0.05856,-0.0122,0.16592,0.6588,0.3416,0.0732,-0.03904,-0.03416
0.03416,-0.06588,0.0976,0.08052,0.06344,-0.01464,0.15616,0.64904,0.34648,0.08296,-0.03416,-0.02928
0.03904,-0.05856,0.07808,0.05856,0.03904,0,0.17568,0.6832,0.366,0.10736,-0.00488,-0.00976
0.0244,-0.03904,0.05368,0.04148,0.02928,-0.00244,0.18544,0.69784,0.38064,0.13176,0.01464,0.00488
0.00976,-0.0366,0.06344,0.05856,0.05368,-0.02196,0.1708,0.70272,0.37088,0.15616,0.01952,0.00976
0.01952,-0.05124,0.08296,0.0732,0.06344,-0.02196,0.16592,0.71248,0.38064,0.17568,0.04392,0.0244
0.00976,-0.03904,0.06832,0.06344,0.05856,-0.0244,0.17568,0.71736,0.39528,0.1952,0.04392,0.01464
0,-0.02196,0.04392,0.04392,0.04392,-0.02196,0.16592,0.7076,0.3904,0.20008,0.05368,0.01952
0.02928,-0.05856,0.08784,0.0732,0.05856,-0.01464,0.16104,0.70272,0.38552,0.20984,0.05368,0.0244
0.06832,-0.09028,0.11224,0.07808,0.04392,0.0122,0.16104,0.6832,0.38552,0.22448,0.06344,0.02928
0.06832,-0.08296,0.0976,0.06344,0.02928,0.01952,0.16104,0.6832,0.38552,0.22448,0.07808,0.03416
0.06344,-0.07808,0.09272,0.061,0.02928,0.01708,0.16104,0.66368,0.38064,0.22936,0.08784,0.03416
0.04392,-0.06832,0.09272,0.07076,0.0488,-0.00244,0.122,0.62464,0.34648,0.2196,0.0732,0.02928
0.03904,-0.0488,0.05856,0.03904,0.01952,0.00976,0.10736,0.57096,0.33184,0.23912,0.06832,0.03416
0.04392,-0.05368,0.06344,0.04148,0.01952,0.0122,0.11712,0.55144,0.32696,0.22936,0.07808,0.0244
0.04392,-0.05368,0.06344,0.04148,0.01952,0.0122,0.122,0.5124,0.3172,0.22448,0.07808,0.0244
0.0488,-0.05368,0.05856,0.03416,0.00976,0.01952,0.10736,0.46848,0.2928,0.20496,0.08296,0.02928
0.04392,-0.0488,0.05368,0.03172,0.00976,0.01708,0.08784,0.43432,0.2684,0.18544,0.08296,0.02928
0.03904,-0.04636,0.05368,0.03416,0.01464,0.0122,0.07808,0.37088,0.244,0.1708,0.0732,0.02928
0.03416,-0.04392,0.05368,0.0366,0.01952,0.00732,0.07808,0.3172,0.2196,0.1464,0.05368,0.01952
0.01952,-0.02928,0.03904,0.02928,0.01952,0,0.05856,0.25864,0.18056,0.0976,0.03904,0.00976
0.00488,-0.00976,0.01464,0.0122,0.00976,-0.00244,0.0488,0.2196,0.15128,0.0732,0.0244,0.00488
-0.01464,0.00488,0.00488,0.0122,0.01952,-0.01708,0.03904,0.1708,0.13176,0.05856,0.0244,-0.00976
-0.0244,0.02196,-0.01952,-0.00732,0.00488,-0.01464,0.02928,0.11712,0.10248,0.02928,0,-0.0244
-0.01464,0.01708,-0.01952,-0.0122,-0.00488,-0.00488,0.03416,0.08784,0.0976,0.01464,-0.00488,-0.01464
-0.01952,0.01952,-0.01952,-0.00976,0,-0.00976,0.0244,0.05368,0.07808,-0.00488,-0.02928,-0.0244
-0.01952,0.02196,-0.0244,-0.01464,-0.00488,-0.00732,0.00488,0.01952,0.03904,-0.04392,-0.03904,-0.02928
-0.0244,0.02684,-0.02928,-0.01708,-0.00488,-0.00976,0,0,0.01952,-0.06832,-0.05368,-0.0488
-0.03416,0.03172,-0.02928,-0.0122,0.00488,-0.01952,0,-0.00488,0.01464,-0.06832,-0.06344,-0.05368
-0.02928,0.02928,-0.02928,-0.01464,0,-0.01464,0.00976,-0.01464,0.00976,-0.0732,-0.06832,-0.05368
-0.0488,0.04636,-0.04392,-0.01952,0.00488,-0.02684,0.01952,-0.0244,0.01464,-0.0732,-0.0732,-0.05856
-0.0488,0.05856,-0.06832,-0.04392,-0.01952,-0.01464,0.00976,-0.02928,0.00488,-0.08784,-0.09272,-0.0732
-0.04392,0.06344,-0.08296,-0.061,-0.03904,-0.00244,0.00976,-0.02928,0,-0.10248,-0.10248,-0.0732
-0.03416,0.05124,-0.06832,-0.05124,-0.03416,0,0.01464,-0.02928,0.00488,-0.10248,-0.0976,-0.06832
-0.05856,0.0732,-0.08784,-0.05856,-0.02928,-0.01464,0.00976,-0.03416,-0.01464,-0.12688,-0.11712,-0.08784
-0.06832,0.08052,-0.09272,-0.05856,-0.0244,-0.02196,0.00976,-0.0244,-0.00488,-0.13176,-0.122,-0.09272
-0.05368,0.05612,-0.05856,-0.03172,-0.00488,-0.0244,0.01464,-0.03904,-0.00488,-0.12688,-0.11712,-0.09272
-0.02928,0.0366,-0.04392,-0.02928,-0.01464,-0.00732,0.01464,-0.04392,0.00488,-0.122,-0.122,-0.0976
-0.05856,0.06588,-0.0732,-0.04392,-0.01464,-0.02196,0.01464,-0.03904,-0.01464,-0.13664,-0.12688,-0.0976
-0.0488,0.06344,-0.07808,-0.05368,-0.02928,-0.00976,0.0244,-0.03416,-0.00976,-0.1464,-0.12688,-0.08784
-0.02928,0.0488,-0.06832,-0.05368,-0.03904,0.00488,0.03416,-0.0244,0.00488,-0.14152,-0.12688,-0.10248
-0.0244,0.04148,-0.05856,-0.04636,-0.03416,0.00488,0.02928,-0.03416,0.00488,-0.1464,-0.13664,-0.10248
-0.03904,0.05612,-0.0732,-0.05368,-0.03416,-0.00244,0.0244,-0.03416,-0.00488,-0.15616,-0.13664,-0.10736
-0.03416,0.05368,-0.0732,-0.05612,-0.03904,0.00244,0.01464,-0.03416,-0.00488,-0.15616,-0.13664,-0.10248
-0.0488,0.05368,-0.05856,-0.03416,-0.00976,-0.01952,0.0244,-0.02928,0.00976,-0.1464,-0.13176,-0.10248
-0.06344,0.06588,-0.06832,-0.0366,-0.00488,-0.02928,0.02928,-0.03416,0.01952,-0.14152,-0.14152,-0.10248
-0.04392,0.05368,-0.06344,-0.04148,-0.01952,-0.0122,0.02928,-0.0244,0.00976,-0.15128,-0.14152,-0.10248
-0.03416,0.0366,-0.03904,-0.02196,-0.00488,-0.01464,0.02928,-0.01464,0.00976,-0.15128,-0.1464,-0.0976
-0.03904,0.05124,-0.06344,-0.04392,-0.0244,-0.00732,0.01952,-0.01464,0.01464,-0.16104,-0.15616,-0.10248
-0.06344,0.07076,-0.07808,-0.04636,-0.01464,-0.0244,0.01464,-0.01464,0.01464,-0.16104,-0.15616,-0.10248
-0.05856,0.061,-0.06344,-0.03416,-0.00488,-0.02684,0.01464,-0.0244,0,-0.15616,-0.15616,-0.09272
-0.01952,0.01952,-0.01952,-0.00976,0,-0.00976,0.03904,-0.0244,0.01464,-0.13664,-0.13176,-0.08296
-0.0488,0.04392,-0.03904,-0.01464,0.00976,-0.02928,0.0244,-0.02928,0,-0.15616,-0.14152,-0.0976
-0.08296,0.07076,-0.05856,-0.01708,0.0244,-0.05368,0.01952,-0.02928,0.00488,-0.16104,-0.14152,-0.09272
-0.08784,0.07564,-0.06344,-0.01952,0.0244,-0.05612,0.00976,-0.03904,0.00488,-0.1708,-0.13176,-0.08784
-0.0976,0.0854,-0.0732,-0.0244,0.0244,-0.061,0.00976,-0.03904,0.00488,-0.16592,-0.12688,-0.08296
-0.0732,0.061,-0.0488,-0.0122,0.0244,-0.0488,0.01464,-0.03904,0,-0.16104,-0.13664,-0.08296
-0.03904,0.02928,-0.01952,0,0.01952,-0.02928,0.01464,-0.03416,0,-0.16592,-0.13664,-0.08296
-0.03416,0.02928,-0.0244,-0.00732,0.00976,-0.02196,0.00488,-0.05368,0,-0.16104,-0.13176,-0.08296
-0.03416,0.02684,-0.01952,-0.00244,0.01464,-0.0244,0,-0.05368,0,-0.15616,-0.122,-0.08296
-0.05368,0.05124,-0.0488,-0.02196,0.00488,-0.02928,0.00976,-0.04392,0.00488,-0.15128,-0.11224,-0.0732
-0.05368,0.05124,-0.0488,-0.02196,0.00488,-0.02928,0.02928,-0.04392,0.00488,-0.13664,-0.0976,-0.05856
-0.04392,0.03172,-0.01952,0.00244,0.0244,-0.03416,0.00976,-0.03904,0.00976,-0.12688,-0.09272,-0.05368
-0.04392,0.0244,-0.00488,0.01708,0.03904,-0.04148,0.00488,-0.04392,0.00488,-0.13176,-0.09272,-0.05856
-0.01952,0.00732,0.00488,0.01464,0.0244,-0.02196,0.01464,-0.03904,0.00488,-0.122,-0.09272,-0.05368
-0.00976,-0.00244,0.01464,0.01952,0.0244,-0.01708,0.01952,-0.02928,0.01952,-0.11224,-0.08784,-0.0488
-0.01952,0.00488,0.00976,0.01952,0.02928,-0.0244,0.01464,-0.04392,0.01464,-0.12688,-0.0976,-0.06344
-0.04392,0.03172,-0.01952,0.00244,0.0244,-0.03416,0.00488,-0.05368,0.00488,-0.12688,-0.10736,-0.07808
-0.0244,0.01708,-0.00976,0.00244,0.01464,-0.01952,0.00488,-0.05856,-0.00488,-0.13664,-0.09272,-0.06344
-0.0244,0.01708,-0.00976,0.00244,0.01464,-0.01952,0,-0.05856,-0.00488,-0.14152,-0.09272,-0.06832
-0.05856,0.05124,-0.04392,-0.01464,0.01464,-0.0366,-0.00976,-0.06832,-0.01464,-0.1464,-0.10248,-0.07808
-0.08784,0.07564,-0.06344,-0.01952,0.0244,-0.05612,-0.0244,-0.06832,-0.0244,-0.15128,-0.11224,-0.08296
-0.0732,0.05856,-0.04392,-0.00732,0.02928,-0.05124,-0.01464,-0.06832,-0.01464,-0.1464,-0.10736,-0.07808
-0.06344,0.05124,-0.03904,-0.00732,0.0244,-0.04392,-0.00976,-0.06832,-0.01464,-0.13664,-0.09272,-0.06344
-0.03904,0.03904,-0.03904,-0.01952,0,-0.01952,0,-0.06344,-0.00976,-0.13176,-0.0732,-0.05368
-0.01952,0.02684,-0.03416,-0.0244,-0.01464,-0.00244,-0.00488,-0.06832,-0.00976,-0.13664,-0.0732,-0.05368
-0.01952,0.01464,-0.00976,0,0.00976,-0.01464,-0.01464,-0.0732,-0.01952,-0.12688,-0.07808,-0.06344
-0.01952,0.0122,-0.00488,0.00488,0.01464,-0.01708,-0.00488,-0.07808,-0.01952,-0.122,-0.08296,-0.05856
-0.03904,0.03416,-0.02928,-0.00976,0.00976,-0.0244,0.00488,-0.06344,-0.01464,-0.122,-0.07808,-0.05856
-0.06832,0.05368,-0.03904,-0.00488,0.02928,-0.0488,0.00488,-0.05856,-0.01464,-0.122,-0.07808,-0.05368
-0.0488,0.0488,-0.0488,-0.0244,0,-0.0244,-0.00488,-0.06832,-0.0244,-0.13176,-0.08784,-0.0732
-0.03904,0.03172,-0.0244,-0.00488,0.01464,-0.02684,-0.01464,-0.06832,-0.0244,-0.1464,-0.0976,-0.08296
-0.02928,0.02196,-0.01464,0,0.01464,-0.02196,-0.00488,-0.06344,-0.01952,-0.12688,-0.08784,-0.06832
0.00976,-0.00244,-0.00488,-0.00976,-0.01464,0.0122,0.00976,-0.05368,-0.00488,-0.10736,-0.08296,-0.05368
-0.00976,0.0122,-0.01464,-0.00976,-0.00488,-0.00244,0,-0.05856,-0.01464,-0.12688,-0.07808,-0.06344
-0.02928,0.03416,-0.03904,-0.0244,-0.00976,-0.00976,-0.00976,-0.07808,-0.03416,-0.13664,-0.08296,-0.0732
-0.06344,0.061,-0.05856,-0.02684,0.00488,-0.03416,-0.00976,-0.08296,-0.0244,-0.13664,-0.0976,-0.06344
-0.05856,0.05612,-0.05368,-0.0244,0.00488,-0.03172,-0.00976,-0.07808,-0.0244,-0.13176,-0.0976,-0.06344
-0.02928,0.02196,-0.01464,0,0.01464,-0.02196,0,-0.06344,-0.01464,-0.122,-0.08296,-0.06344
0,0.00732,-0.01464,-0.01464,-0.01464,0.00732,0.00488,-0.05856,-0.01464,-0.122,-0.07808,-0.05856
-0.02928,0.0366,-0.04392,-0.02928,-0.01464,-0.00732,0.00488,-0.05368,-0.01464,-0.13176,-0.07808,-0.05368
-0.0244,0.04148,-0.05856,-0.04636,-0.03416,0.00488,0,-0.05856,-0.01952,-0.13176,-0.08784,-0.05856
-0.05856,0.05856,-0.05856,-0.02928,0,-0.02928,-0.00488,-0.06832,-0.03416,-0.12688,-0.0976,-0.0732
-0.08784,0.08052,-0.0732,-0.02928,0.01464,-0.05124,-0.01464,-0.08784,-0.03904,-0.13664,-0.10248,-0.08296
-0.0732,0.061,-0.0488,-0.0122,0.0244,-0.0488,-0.00488,-0.0732,-0.0244,-0.11712,-0.09272,-0.06832
-0.02928,0.0244,-0.01952,-0.00488,0.00976,-0.01952,0.00976,-0.05856,-0.00488,-0.10736,-0.06832,-0.05856
-0.00488,0.00976,-0.01464,-0.0122,-0.00976,0.00244,0.00976,-0.06832,-0.00976,-0.122,-0.07808,-0.05856
0.00488,0.00244,-0.00976,-0.0122,-0.01464,0.00976,0.00976,-0.06344,-0.01464,-0.11712,-0.0732,-0.05368
-0.03416,0.03904,-0.04392,-0.02684,-0.00976,-0.0122,0,-0.06344,-0.01952,-0.13176,-0.09272,-0.06344
-0.05368,0.05368,-0.05368,-0.02684,0,-0.02684,-0.01952,-0.06832,-0.02928,-0.1464,-0.11224,-0.08296
-0.0488,0.04392,-0.03904,-0.01464,0.00976,-0.02928,-0.01952,-0.0732,-0.03416,-0.13664,-0.0976,-0.08296
-0.03904,0.03416,-0.02928,-0.00976,0.00976,-0.0244,-0.01464,-0.0732,-0.02928,-0.13176,-0.0976,-0.08296
-0.03416,0.03416,-0.03416,-0.01708,0,-0.01708,-0.01952,-0.0732,-0.02928,-0.13176,-0.07808,-0.08296
-0.02928,0.03172,-0.03416,-0.01952,-0.00488,-0.0122,-0.00976,-0.06832,-0.02928,-0.13664,-0.07808,-0.0732
-0.05856,0.061,-0.06344,-0.03416,-0.00488,-0.02684,0.00976,-0.05368,-0.00976,-0.11224,-0.0732,-0.04392
-0.0488,0.02928,-0.00976,0.01464,0.03904,-0.04392,-0.00976,-0.0732,-0.02928,-0.14152,-0.09272,-0.06832
-0.09272,0.09028,-0.08784,-0.04148,0.00488,-0.0488,-0.0244,-0.0732,-0.04392,-0.14152,-0.10248,-0.08296
-0.14152,0.1342,-0.12688,-0.05612,0.01464,-0.07808,-0.03416,-0.08296,-0.05368,-0.15128,-0.11224,-0.09272
-0.12688,0.11712,-0.10736,-0.04392,0.01952,-0.0732,-0.01952,-0.08296,-0.03416,-0.13664,-0.10736,-0.08296
-0.03904,0.02684,-0.01464,0.00488,0.0244,-0.03172,0.00488,-0.05856,-0.01952,-0.11712,-0.0732,-0.05856
0.02928,-0.0488,0.06832,0.05368,0.03904,-0.00488,0.03904,-0.03904,0.01464,-0.0976,-0.05368,-0.03904
0.0488,-0.06344,0.07808,0.05368,0.02928,0.00976,0.05856,-0.01464,0.0244,-0.07808,-0.04392,-0.03904
0.04392,-0.05612,0.06832,0.04636,0.0244,0.00976,0.06832,-0.0244,0.03416,-0.0732,-0.05368,-0.03416
-0.00488,-0.02684,0.05856,0.061,0.06344,-0.03416,0.05856,-0.0244,0.03416,-0.07808,-0.05368,-0.03416
-0.02928,-0.00488,0.03904,0.05368,0.06832,-0.0488,0.05856,-0.0244,0.03416,-0.07808,-0.05368,-0.03416
-0.03904,-0.00732,0.05368,0.0732,0.09272,-0.06588,0.06344,-0.01952,0.03416,-0.07808,-0.04392,-0.02928
-0.03904,-0.00488,0.0488,0.06832,0.08784,-0.06344,0.0732,-0.00976,0.0488,-0.06832,-0.04392,-0.0244
-0.03904,0,0.03904,0.05856,0.07808,-0.05856,0.05856,-0.00976,0.0488,-0.06832,-0.04392,-0.0244
-0.03416,0.01464,0.00488,0.02196,0.03904,-0.0366,0.0488,-0.03904,0.03416,-0.0732,-0.03416,-0.03904
-0.02928,0.00488,0.01952,0.03416,0.0488,-0.03904,0.03416,-0.0488,0.0244,-0.0732,-0.03416,-0.03416
-0.00976,-0.01464,0.03904,0.04392,0.0488,-0.02928,0.0244,-0.0732,0.01464,-0.08296,-0.03416,-0.04392
0.00488,-0.0244,0.04392,0.04148,0.03904,-0.01708,0.00488,-0.0732,0.00976,-0.0732,-0.04392,-0.03416
0.00488,-0.03416,0.06344,0.061,0.05856,-0.02684,-0.00488,-0.06344,0.01952,-0.05856,-0.03904,-0.01952
0.00976,-0.04148,0.0732,0.06832,0.06344,-0.02684,0.00976,-0.06344,0.03416,-0.05856,-0.0244,-0.00488
-0.01952,-0.01952,0.05856,0.06832,0.07808,-0.0488,0.00488,-0.06832,0.00976,-0.08296,-0.03904,-0.01464
-0.03904,-0.00488,0.0488,0.06832,0.08784,-0.06344,-0.01952,-0.07808,-0.00976,-0.10248,-0.05856,-0.03416
-0.03416,0.00244,0.02928,0.04636,0.06344,-0.0488,-0.01952,-0.07808,-0.00976,-0.0976,-0.05856,-0.02928
-0.01952,0.00488,0.00976,0.01952,0.02928,-0.0244,-0.02928,-0.0732,-0.01464,-0.10248,-0.06344,-0.02928
-0.01464,0.00244,0.00976,0.01708,0.0244,-0.01952,-0.02928,-0.08296,-0.0244,-0.10736,-0.06344,-0.02928
0.00976,-0.01464,0.01952,0.01464,0.00976,0,-0.02928,-0.07808,-0.0244,-0.0976,-0.05856,-0.03416
0.01952,-0.01708,0.01464,0.00488,-0.00488,0.0122,-0.01464,-0.06344,-0.0244,-0.10248,-0.05368,-0.03904
-0.00488,0.01464,-0.0244,-0.02196,-0.01952,0.00732,-0.00976,-0.05856,-0.0244,-0.10248,-0.05856,-0.03904
-0.01464,0.0244,-0.03416,-0.02684,-0.01952,0.00244,-0.01952,-0.06344,-0.03904,-0.122,-0.0732,-0.0488
-0.01952,0.02684,-0.03416,-0.0244,-0.01464,-0.00244,-0.01464,-0.05856,-0.03904,-0.122,-0.0732,-0.0488
-0.03416,0.03172,-0.02928,-0.0122,0.00488,-0.01952,-0.01464,-0.05856,-0.02928,-0.10736,-0.08296,-0.05856
-0.05856,0.05856,-0.05856,-0.02928,0,-0.02928,-0.01952,-0.06832,-0.03904,-0.122,-0.09272,-0.06344
-0.08784,0.08052,-0.0732,-0.02928,0.01464,-0.05124,-0.01952,-0.06832,-0.04392,-0.13664,-0.0976,-0.07808
-0.0732,0.0732,-0.0732,-0.0366,0,-0.0366,-0.01952,-0.0732,-0.06344,-0.1464,-0.10248,-0.08296
-0.03416,0.04148,-0.0488,-0.03172,-0.01464,-0.00976,-0.01464,-0.05856,-0.05368,-0.1464,-0.0976,-0.0732
-0.0244,0.03172,-0.03904,-0.02684,-0.01464,-0.00488,-0.01464,-0.05856,-0.0488,-0.13664,-0.0976,-0.06832
-0.03904,0.04636,-0.05368,-0.03416,-0.01464,-0.0122,-0.00976,-0.05856,-0.05856,-0.12688,-0.0976,-0.05856
-0.05368,0.05856,-0.06344,-0.0366,-0.00976,-0.02196,-0.00976,-0.06344,-0.05856,-0.13664,-0.0976,-0.06344
-0.05856,0.06588,-0.0732,-0.04392,-0.01464,-0.02196,0,-0.05368,-0.05368,-0.122,-0.09272,-0.06344
-0.0488,0.05368,-0.05856,-0.03416,-0.00976,-0.01952,0,-0.05368,-0.04392,-0.122,-0.08296,-0.05856
-0.04392,0.0488,-0.05368,-0.03172,-0.00976,-0.01708,-0.00976,-0.05368,-0.04392,-0.12688,-0.08784,-0.0732
-0.04392,0.05124,-0.05856,-0.0366,-0.01464,-0.01464,-0.00488,-0.05856,-0.0488,-0.13664,-0.0976,-0.0732
-0.05856,0.061,-0.06344,-0.03416,-0.00488,-0.02684,-0.00488,-0.06832,-0.05368,-0.14152,-0.11712,-0.07808
-0.06344,0.07564,-0.08784,-0.05612,-0.0244,-0.01952,-0.00976,-0.06832,-0.05368,-0.14152,-0.11224,-0.08784
-0.0488,0.04636,-0.04392,-0.01952,0.00488,-0.02684,-0.00976,-0.03904,-0.0488,-0.12688,-0.10248,-0.06832
-0.01952,-0.00488,0.02928,0.03904,0.0488,-0.03416,-0.00976,-0.06344,-0.01464,-0.09272,-0.0732,-0.03904
-0.05856,0.03416,-0.00976,0.01952,0.0488,-0.05368,-0.03416,-0.0976,-0.01464,-0.08296,-0.07808,-0.02928
-0.06832,0.02928,0.00976,0.04392,0.07808,-0.0732,-0.04392,-0.10248,0.01952,-0.03416,-0.01952,0.00488
0.02928,-0.10004,0.1708,0.15616,0.14152,-0.05612,-0.04392,-0.05368,0.10248,0.08784,0.0976,0.08296
0.05368,-0.1098,0.16592,0.13908,0.11224,-0.02928,-0.0488,-0.08296,0.17568,0.25376,0.2928,0.21472
0.15616,-0.2074,0.25864,0.18056,0.10248,0.02684,-0.15616,-0.38064,0.10248,0.44896,0.60024,0.40016
0.244,-0.305,0.366,0.244,0.122,0.061,-0.29768,-0.73688,0.03904,0.7564,1.01504,0.64416
0.36112,-0.38064,0.40016,0.2196,0.03904,0.16104,-0.45872,-1.04432,-0.1952,1.04432,1.45912,0.89792
0.60024,-0.52704,0.45384,0.15372,-0.1464,0.37332,-0.63928,-1.1224,-0.35624,1.43472,2.04472,1.19072
0.7808,-0.61488,0.44896,0.05856,-0.33184,0.55632,-0.88816,-1.21512,-0.58072,1.7568,2.60592,1.50304
0.88816,-0.60756,0.32696,-0.11712,-0.5612,0.72468,-1.11264,-1.21024,-0.86864,1.84464,2.7816,1.5128
0.82472,-0.47824,0.13176,-0.2806,-0.69296,0.75884,-1.24928,-1.30296,-0.9516,1.88856,2.57176,1.30296
0.64904,-0.31964,-0.00976,-0.33428,-0.6588,0.65392,-1.23952,-1.44936,-1.0004,1.55184,1.88856,0.89304
0.54168,-0.20984,-0.122,-0.39284,-0.66368,0.60268,-0.99064,-1.28344,-0.88328,1.1224,1.20048,0.5368
0.3904,-0.12444,-0.14152,-0.33672,-0.53192,0.46116,-0.71248,-0.95648,-0.7076,0.59048,0.51728,0.21472
0.1708,0.02684,-0.22448,-0.30988,-0.39528,0.28304,-0.46848,-0.65392,-0.56608,0.0488,-0.01952,-0.06344
0.08296,0.03416,-0.15128,-0.19276,-0.23424,0.1586,-0.31232,-0.4392,-0.45384,-0.3172,-0.2196,-0.15128
0.01464,0.11224,-0.23912,-0.24644,-0.25376,0.1342,-0.15616,-0.244,-0.2928,-0.23912,-0.15616,-0.10736
-0.01952,0.09272,-0.16592,-0.15616,-0.1464,0.06344,-0.07808,-0.11712,-0.19032,-0.18544,-0.1464,-0.10248
-0.01952,0.05856,-0.0976,-0.08784,-0.07808,0.02928,-0.0488,-0.06832,-0.11224,-0.14152,-0.13176,-0.0732
0,0.02684,-0.05368,-0.05368,-0.05368,0.02684,-0.0244,-0.0244,-0.06832,-0.10736,-0.122,-0.07808
-0.00976,0.0366,-0.06344,-0.05856,-0.05368,0.02196,0.0244,0.02928,0,-0.09272,-0.122,-0.07808
-0.02928,0.05124,-0.0732,-0.05856,-0.04392,0.00732,0.0488,0.05856,0.01464,-0.11224,-0.12688,-0.10248
-0.05368,0.05856,-0.06344,-0.0366,-0.00976,-0.02196,0.05856,0.06832,0.01952,-0.11712,-0.13176,-0.09272
-0.0488,0.04636,-0.04392,-0.01952,0.00488,-0.02684,0.06832,0.06832,0.0244,-0.10248,-0.122,-0.0732
-0.03904,0.0366,-0.03416,-0.01464,0.00488,-0.02196,0.06344,0.07808,0.03416,-0.10248,-0.122,-0.08296
-0.05856,0.05124,-0.04392,-0.01464,0.01464,-0.0366,0.06832,0.10248,0.02928,-0.122,-0.13176,-0.09272
-0.05856,0.05368,-0.0488,-0.01952,0.00976,-0.03416,0.06832,0.10248,0.03416,-0.122,-0.13664,-0.09272
-0.05368,0.04392,-0.03416,-0.00732,0.01952,-0.0366,0.05368,0.09272,0.01952,-0.12688,-0.1464,-0.0976
-0.0488,0.04148,-0.03416,-0.00976,0.01464,-0.03172,0.0488,0.09272,0.0244,-0.12688,-0.15128,-0.10248
-0.03904,0.03172,-0.0244,-0.00488,0.01464,-0.02684,0.05856,0.11712,0.0488,-0.11224,-0.1464,-0.0976
-0.01952,0.01952,-0.01952,-0.00976,0,-0.00976,0.07808,0.122,0.05368,-0.10248,-0.12688,-0.07808
-0.01952,0.01952,-0.01952,-0.00976,0,-0.00976,0.0732,0.10736,0.0488,-0.11224,-0.11712,-0.0732
-0.04392,0.05124,-0.05856,-0.0366,-0.01464,-0.01464,0.0732,0.11224,0.05856,-0.10248,-0.11224,-0.06832
-0.06344,0.061,-0.05856,-0.02684,0.00488,-0.03416,0.0732,0.11712,0.0488,-0.11224,-0.12688,-0.08296
-0.0732,0.07076,-0.06832,-0.03172,0.00488,-0.03904,0.06832,0.122,0.04392,-0.122,-0.14152,-0.09272
-0.04392,0.03904,-0.03416,-0.0122,0.00976,-0.02684,0.06344,0.122,0.05368,-0.11712,-0.14152,-0.09272
-0.01952,0.01952,-0.01952,-0.00976,0,-0.00976,0.07808,0.13176,0.06344,-0.09272,-0.11712,-0.0732
-0.04392,0.02928,-0.01464,0.00732,0.02928,-0.0366,0.07808,0.122,0.0732,-0.0976,-0.122,-0.0732
-0.08784,0.0732,-0.05856,-0.01464,0.02928,-0.05856,0.06832,0.122,0.05368,-0.11224,-0.13176,-0.0732
-0.0976,0.08784,-0.07808,-0.02928,0.01952,-0.05856,0.0732,0.13176,0.05856,-0.122,-0.14152,-0.08784
-0.06832,0.07076,-0.0732,-0.03904,-0.00488,-0.03172,0.07808,0.13176,0.06832,-0.11712,-0.13664,-0.08784
-0.02928,0.02928,-0.02928,-0.01464,0,-0.01464,0.10248,0.16104,0.08784,-0.09272,-0.122,-0.06344
0,-0.00244,0.00488,0.00488,0.00488,-0.00244,0.10248,0.1708,0.0976,-0.08296,-0.11712,-0.05856
-0.00488,0.00244,0,0.00244,0.00488,-0.00488,0.0976,0.1708,0.08784,-0.08296,-0.12688,-0.05856
-0.01952,0.00488,0.00976,0.01952,0.02928,-0.0244,0.08296,0.1464,0.07808,-0.09272,-0.12688,-0.07808
-0.03904,0.02684,-0.01464,0.00488,0.0244,-0.03172,0.07808,0.13176,0.06344,-0.10736,-0.12688,-0.08296
-0.0244,0.01464,-0.00488,0.00732,0.01952,-0.02196,0.08784,0.15128,0.08296,-0.09272,-0.12688,-0.07808
-0.03416,0.02684,-0.01952,-0.00244,0.01464,-0.0244,0.08784,0.15616,0.08784,-0.09272,-0.122,-0.07808
-0.03904,0.03172,-0.0244,-0.00488,0.01464,-0.02684,0.08784,0.16104,0.09272,-0.09272,-0.122,-0.08296
-0.04392,0.04148,-0.03904,-0.01708,0.00488,-0.0244,0.09272,0.15616,0.10736,-0.08784,-0.122,-0.07808
-0.05856,0.04636,-0.03416,-0.00488,0.0244,-0.04148,0.09272,0.16592,0.11224,-0.07808,-0.12688,-0.07808
-0.05856,0.05124,-0.04392,-0.01464,0.01464,-0.0366,0.09272,0.18544,0.122,-0.0732,-0.11224,-0.06832
-0.05368,0.0488,-0.04392,-0.01708,0.00976,-0.03172,0.09272,0.18544,0.12688,-0.0732,-0.11224,-0.06344
-0.02928,0.02684,-0.0244,-0.00976,0.00488,-0.01708,0.09272,0.20008,0.12688,-0.07808,-0.11224,-0.07808
-0.01464,0.00488,0.00488,0.0122,0.01952,-0.01708,0.0976,0.20984,0.13176,-0.07808,-0.12688,-0.07808
-0.01464,0.00488,0.00488,0.0122,0.01952,-0.01708,0.10248,0.21472,0.13664,-0.06832,-0.12688,-0.06344
-0.03904,0.02928,-0.01952,0,0.01952,-0.02928,0.10736,0.23424,0.1464,-0.05856,-0.122,-0.05856
-0.05856,0.03904,-0.01952,0.00976,0.03904,-0.0488,0.11712,0.26352,0.16592,-0.05856,-0.11712,-0.05856
-0.05368,0.02684,0,0.02684,0.05368,-0.05368,0.122,0.28304,0.1708,-0.04392,-0.11224,-0.05856
-0.03416,0.02196,-0.00976,0.00732,0.0244,-0.02928,0.12688,0.28304,0.18056,-0.0244,-0.0976,-0.06344
-0.00488,-0.00244,0.00976,0.0122,0.01464,-0.00976,0.13664,0.32208,0.20984,-0.00488,-0.08296,-0.05368
0.00488,-0.00244,0,-0.00244,-0.00488,0.00488,0.13176,0.33672,0.2196,-0.00976,-0.08296,-0.0488
-0.01464,0.00976,-0.00488,0.00244,0.00976,-0.0122,0.1464,0.34648,0.2196,0.00488,-0.08296,-0.05856
-0.01952,0.01952,-0.01952,-0.00976,0,-0.00976,0.13176,0.36112,0.22936,0.00976,-0.06344,-0.05856
-0.01952,0.01952,-0.01952,-0.00976,0,-0.00976,0.14152,0.38064,0.25864,0.0244,-0.06344,-0.0488
-0.01464,0.00488,0.00488,0.0122,0.01952,-0.01708,0.13664,0.38552,0.24888,0.0244,-0.0732,-0.0488
-0.01464,0.00244,0.00976,0.01708,0.0244,-0.01952,0.122,0.40016,0.23912,0.00976,-0.08784,-0.04392
-0.01464,-0.01464,0.04392,0.05124,0.05856,-0.0366,0.13176,0.42944,0.25864,0.0244,-0.0732,-0.04392
-0.01464,-0.0122,0.03904,0.04636,0.05368,-0.03416,0.14152,0.44408,0.28792,0.05856,-0.04392,-0.02928
-0.01464,-0.01464,0.04392,0.05124,0.05856,-0.0366,0.15128,0.44896,0.2928,0.0732,-0.0244,-0.01952
-0.00976,-0.01952,0.0488,0.05368,0.05856,-0.03416,0.14152,0.46848,0.30256,0.09272,-0.0244,-0.01952
0.00976,-0.03904,0.06832,0.06344,0.05856,-0.0244,0.13664,0.47824,0.30256,0.11224,-0.01464,-0.00488
0.01464,-0.04392,0.0732,0.06588,0.05856,-0.02196,0.12688,0.488,0.31232,0.13176,0,0.00488
0.01464,-0.0366,0.05856,0.05124,0.04392,-0.01464,0.14152,0.5124,0.33672,0.16104,0.02928,0.02928
0.00488,-0.03172,0.05856,0.05612,0.05368,-0.0244,0.15128,0.51728,0.33672,0.18056,0.03904,0.02928
0.00488,-0.02684,0.0488,0.04636,0.04392,-0.01952,0.15128,0.52704,0.35136,0.20496,0.05368,0.03416
0.0244,-0.05368,0.08296,0.07076,0.05856,-0.01708,0.13664,0.52216,0.35136,0.22448,0.06832,0.02928
0.05856,-0.08296,0.10736,0.07808,0.0488,0.00488,0.1464,0.53192,0.35624,0.23424,0.08296,0.03416
0.0488,-0.07564,0.10248,0.07808,0.05368,-0.00244,0.14152,0.52704,0.35624,0.244,0.08784,0.03416
0.03904,-0.07076,0.10248,0.08296,0.06344,-0.0122,0.13176,0.51728,0.34648,0.26352,0.08784,0.03416
0.0488,-0.07808,0.10736,0.08296,0.05856,-0.00488,0.13176,0.5124,0.34648,0.27816,0.0976,0.03904
0.03904,-0.06344,0.08784,0.06832,0.0488,-0.00488,0.14152,0.51728,0.34648,0.28792,0.11712,0.05368
0.05368,-0.07076,0.08784,0.061,0.03416,0.00976,0.13176,0.50264,0.3416,0.30256,0.12688,0.05368
0.03416,-0.05612,0.07808,0.061,0.04392,-0.00488,0.13664,0.47824,0.33672,0.29768,0.12688,0.0488
0.01464,-0.03904,0.06344,0.05612,0.0488,-0.01708,0.122,0.43432,0.3172,0.29768,0.122,0.05368
0.01464,-0.03416,0.05368,0.04636,0.03904,-0.0122,0.10248,0.40504,0.2928,0.2928,0.122,0.04392
0.02928,-0.04392,0.05856,0.04392,0.02928,0,0.0976,0.366,0.27816,0.28792,0.11224,0.04392
0.0488,-0.061,0.0732,0.0488,0.0244,0.0122,0.10248,0.3172,0.26352,0.28792,0.10736,0.05368
0.0488,-0.06344,0.07808,0.05368,0.02928,0.00976,0.09272,0.27816,0.24888,0.26352,0.11712,0.05856
0.0244,-0.04148,0.05856,0.04636,0.03416,-0.00488,0.0732,0.22936,0.20984,0.22936,0.10736,0.05368
-0.00488,-0.0122,0.02928,0.03172,0.03416,-0.01952,0.0488,0.17568,0.18056,0.20496,0.08296,0.0488
-0.01464,-0.00732,0.02928,0.0366,0.04392,-0.02928,0.04392,0.122,0.14152,0.16592,0.05856,0.02928
-0.00488,-0.00976,0.0244,0.02684,0.02928,-0.01708,0.0488,0.0976,0.122,0.13664,0.03904,0.02928
-0.00488,-0.01464,0.03416,0.0366,0.03904,-0.02196,0.04392,0.03416,0.09272,0.09272,0.03416,0.01464
-0.00488,-0.00976,0.0244,0.02684,0.02928,-0.01708,0.02928,0,0.05368,0.0732,0.0244,0.00488
0.00488,-0.00244,0,-0.00244,-0.00488,0.00488,0.02928,-0.03416,0.03416,0.0488,0.00488,0.00488
0,0.00244,-0.00488,-0.00488,-0.00488,0.00244,0.01952,-0.05856,0.0244,0.02928,-0.00976,0
0,0.00244,-0.00488,-0.00488,-0.00488,0.00244,0.0244,-0.08784,0.00976,0.00488,-0.01464,-0.00488
-0.01464,0.01952,-0.0244,-0.01708,-0.00976,-0.00244,0.0244,-0.10248,-0.00488,-0.00488,-0.01952,-0.00976
-0.03416,0.03172,-0.02928,-0.0122,0.00488,-0.01952,0.01952,-0.11712,-0.02928,-0.03904,-0.04392,-0.0244
-0.06344,0.05612,-0.0488,-0.01708,0.01464,-0.03904,0.00976,-0.13176,-0.03904,-0.05856,-0.06832,-0.04392
-0.0488,0.03904,-0.02928,-0.00488,0.01952,-0.03416,0.00488,-0.14152,-0.03904,-0.05856,-0.06832,-0.04392
-0.03904,0.02196,-0.00488,0.01464,0.03416,-0.0366,0.00488,-0.13664,-0.0488,-0.06832,-0.08296,-0.05368
-0.02928,0.01708,-0.00488,0.00976,0.0244,-0.02684,0.00976,-0.1464,-0.06832,-0.07808,-0.10248,-0.05856
-0.00976,0.02196,-0.03416,-0.02928,-0.0244,0.00732,0.01464,-0.1464,-0.06344,-0.08784,-0.0976,-0.04392
-0.0244,0.0366,-0.0488,-0.0366,-0.0244,0,0.01464,-0.1708,-0.0732,-0.11712,-0.13176,-0.05856
-0.0488,0.05368,-0.05856,-0.03416,-0.00976,-0.01952,0.01952,-0.16104,-0.06344,-0.11712,-0.14152,-0.07808
-0.0732,0.06344,-0.05368,-0.01708,0.01952,-0.04636,0.01952,-0.15128,-0.06344,-0.122,-0.13664,-0.08784
-0.06832,0.05856,-0.0488,-0.01464,0.01952,-0.04392,0.01464,-0.15616,-0.06344,-0.11712,-0.13664,-0.08296
-0.07808,0.0732,-0.06832,-0.02928,0.00976,-0.04392,0.00488,-0.17568,-0.08296,-0.12688,-0.14152,-0.09272
-0.07808,0.07564,-0.0732,-0.03416,0.00488,-0.04148,0.00488,-0.17568,-0.08296,-0.12688,-0.1464,-0.10248
-0.06344,0.06588,-0.06832,-0.0366,-0.00488,-0.02928,0.01464,-0.16104,-0.0732,-0.13664,-0.13664,-0.08784
-0.05368,0.05612,-0.05856,-0.03172,-0.00488,-0.0244,0.00976,-0.1708,-0.0732,-0.1464,-0.14152,-0.0732
-0.0488,0.05124,-0.05368,-0.02928,-0.00488,-0.02196,0.0244,-0.1708,-0.06344,-0.13664,-0.1464,-0.06832
-0.0488,0.05612,-0.06344,-0.03904,-0.01464,-0.01708,0.0244,-0.1708,-0.06344,-0.1464,-0.1464,-0.06344
-0.03416,0.03416,-0.03416,-0.01708,0,-0.01708,0.0244,-0.15616,-0.05856,-0.14152,-0.13664,-0.0732
-0.0488,0.03904,-0.02928,-0.00488,0.01952,-0.03416,0.01952,-0.16104,-0.05856,-0.13664,-0.15128,-0.08296
-0.0732,0.06588,-0.05856,-0.02196,0.01464,-0.04392,0.00976,-0.16592,-0.05856,-0.14152,-0.15616,-0.08296
-0.09272,0.08784,-0.08296,-0.0366,0.00976,-0.05124,0.00976,-0.17568,-0.05856,-0.14152,-0.16592,-0.07808
-0.08296,0.07564,-0.06832,-0.02684,0.01464,-0.0488,0,-0.18056,-0.0732,-0.15128,-0.1708,-0.07808
-0.06344,0.061,-0.05856,-0.02684,0.00488,-0.03416,0.00488,-0.18056,-0.0732,-0.16104,-0.16104,-0.06832
-0.0488,0.04392,-0.03904,-0.01464,0.00976,-0.02928,0.00488,-0.19032,-0.07808,-0.16104,-0.16592,-0.0732
-0.03416,0.02928,-0.0244,-0.00732,0.00976,-0.02196,0.00488,-0.19032,-0.0732,-0.16592,-0.16104,-0.06832
-0.00976,0.00732,-0.00488,0,0.00488,-0.00732,0.01464,-0.19032,-0.0732,-0.15616,-0.16592,-0.07808
-0.05856,0.04148,-0.0244,0.00488,0.03416,-0.04636,0,-0.1952,-0.07808,-0.16592,-0.17568,-0.09272
-0.0732,0.05124,-0.02928,0.00732,0.04392,-0.05856,0.00488,-0.18056,-0.06832,-0.1464,-0.16104,-0.07808
-0.06832,0.05368,-0.03904,-0.00488,0.02928,-0.0488,0.01464,-0.1708,-0.05856,-0.13664,-0.13664,-0.05368
-0.05856,0.04636,-0.03416,-0.00488,0.0244,-0.04148,0.00488,-0.16104,-0.06344,-0.13176,-0.13176,-0.05368
-0.03904,0.0244,-0.00976,0.00976,0.02928,-0.03416,0.00488,-0.16592,-0.0732,-0.15128,-0.13176,-0.05368
-0.02928,0.0122,0.00488,0.01952,0.03416,-0.03172,0,-0.15128,-0.06832,-0.14152,-0.14152,-0.04392
-0.0244,0.00976,0.00488,0.01708,0.02928,-0.02684,-0.00488,-0.16104,-0.06832,-0.13664,-0.14152,-0.04392
-0.02928,0.0122,0.00488,0.01952,0.03416,-0.03172,0,-0.16104,-0.05856,-0.12688,-0.13664,-0.05368
-0.04392,0.03416,-0.0244,-0.00244,0.01952,-0.03172,0.00488,-0.16104,-0.06344,-0.11224,-0.122,-0.0488
-0.05368,0.03416,-0.01464,0.0122,0.03904,-0.04636,0.01952,-0.1708,-0.06344,-0.10736,-0.10248,-0.03904
-0.06344,0.0366,-0.00976,0.02196,0.05368,-0.05856,0.00488,-0.18056,-0.06832,-0.122,-0.10248,-0.03416
-0.0488,0.03904,-0.02928,-0.00488,0.01952,-0.03416,0.00488,-0.17568,-0.0732,-0.12688,-0.11224,-0.01952
-0.02928,0.01952,-0.00976,0.00488,0.01952,-0.0244,0.00488,-0.16592,-0.06344,-0.122,-0.10736,-0.01464
-0.03904,0.01952,0,0.01952,0.03904,-0.03904,0,-0.16592,-0.0732,-0.11224,-0.10736,-0.01464
-0.02928,0.0122,0.00488,0.01952,0.03416,-0.03172,-0.01464,-0.17568,-0.07808,-0.11224,-0.0976,-0.02928
-0.0488,0.02928,-0.00976,0.01464,0.03904,-0.04392,-0.01464,-0.18544,-0.08784,-0.10736,-0.10248,-0.03904
-0.0488,0.03416,-0.01952,0.00488,0.02928,-0.03904,-0.01464,-0.18544,-0.09272,-0.11224,-0.10736,-0.03416
-0.06344,0.0488,-0.03416,-0.00244,0.02928,-0.04636,-0.01464,-0.17568,-0.08784,-0.11712,-0.11224,-0.04392
-0.0732,0.061,-0.0488,-0.0122,0.0244,-0.0488,-0.00976,-0.17568,-0.08784,-0.122,-0.11224,-0.05368
-0.05368,0.04148,-0.02928,-0.00244,0.0244,-0.03904,-0.00488,-0.17568,-0.0732,-0.122,-0.11712,-0.05368
-0.01952,0.00244,0.01464,0.0244,0.03416,-0.02684,-0.00976,-0.17568,-0.0732,-0.11224,-0.11712,-0.03904
-0.00488,-0.0122,0.02928,0.03172,0.03416,-0.01952,0,-0.17568,-0.06832,-0.08784,-0.09272,-0.01952
-0.00976,0.00244,0.00488,0.00976,0.01464,-0.0122,0.00976,-0.1708,-0.06832,-0.08296,-0.07808,-0.01464
-0.02928,0.01464,0,0.01464,0.02928,-0.02928,-0.00976,-0.18056,-0.07808,-0.09272,-0.08296,-0.0244
-0.02928,0.01464,0,0.01464,0.02928,-0.02928,-0.01464,-0.18544,-0.09272,-0.10248,-0.09272,-0.0244
-0.0244,0.01952,-0.01464,-0.00244,0.00976,-0.01708,-0.01464,-0.18056,-0.08296,-0.11224,-0.0976,-0.03416
-0.03416,0.02928,-0.0244,-0.00732,0.00976,-0.02196,-0.01464,-0.18056,-0.08296,-0.11224,-0.0976,-0.03904
-0.05856,0.0488,-0.03904,-0.00976,0.01952,-0.03904,-0.00488,-0.17568,-0.08296,-0.10248,-0.10736,-0.03416
-0.05856,0.0488,-0.03904,-0.00976,0.01952,-0.03904,-0.00488,-0.17568,-0.08296,-0.10248,-0.10736,-0.04392
-0.0488,0.0366,-0.0244,0,0.0244,-0.0366,-0.01464,-0.18056,-0.09272,-0.10736,-0.10736,-0.03904
-0.0488,0.0366,-0.0244,0,0.0244,-0.0366,-0.01464,-0.1708,-0.0976,-0.10736,-0.10248,-0.03904
-0.02928,0.01952,-0.00976,0.00488,0.01952,-0.0244,-0.00488,-0.17568,-0.08296,-0.10736,-0.10736,-0.03416
-0.02928,0.01708,-0.00488,0.00976,0.0244,-0.02684,-0.00488,-0.18544,-0.09272,-0.11712,-0.10736,-0.03904
-0.03904,0.02928,-0.01952,0,0.01952,-0.02928,-0.00976,-0.17568,-0.10248,-0.11712,-0.11712,-0.05368
-0.05856,0.04636,-0.03416,-0.00488,0.0244,-0.04148,-0.00976,-0.16592,-0.10248,-0.11712,-0.11712,-0.05368
-0.05856,0.04636,-0.03416,-0.00488,0.0244,-0.04148,-0.01464,-0.16104,-0.11224,-0.12688,-0.13176,-0.06344
-0.07808,0.06588,-0.05368,-0.01464,0.0244,-0.05124,-0.0244,-0.16592,-0.11224,-0.13664,-0.13176,-0.06344
-0.06832,0.06344,-0.05856,-0.0244,0.00976,-0.03904,-0.00976,-0.16104,-0.10736,-0.13176,-0.11712,-0.0488
-0.04392,0.0366,-0.02928,-0.00732,0.01464,-0.02928,-0.00488,-0.16104,-0.10248,-0.11224,-0.10736,-0.04392
-0.0244,0.01708,-0.00976,0.00244,0.01464,-0.01952,0.00488,-0.1464,-0.0976,-0.0976,-0.0976,-0.03904
-0.03904,0.02928,-0.01952,0,0.01952,-0.02928,-0.00488,-0.15128,-0.09272,-0.10248,-0.0976,-0.03416
-0.03416,0.02928,-0.0244,-0.00732,0.00976,-0.02196,-0.00976,-0.16104,-0.09272,-0.11712,-0.11224,-0.03904
-0.0244,0.01708,-0.00976,0.00244,0.01464,-0.01952,-0.01464,-0.15616,-0.0976,-0.10736,-0.10736,-0.04392
0,-0.00488,0.00976,0.00976,0.00976,-0.00488,-0.00488,-0.15128,-0.09272,-0.10736,-0.08784,-0.02928
-0.00976,0.00244,0.00488,0.00976,0.01464,-0.0122,0.00488,-0.13664,-0.08784,-0.11224,-0.08784,-0.02928
-0.04392,0.03416,-0.0244,-0.00244,0.01952,-0.03172,0,-0.13664,-0.09272,-0.10736,-0.0976,-0.02928
-0.07808,0.061,-0.04392,-0.00488,0.03416,-0.05612,-0.00488,-0.15128,-0.10736,-0.11224,-0.11712,-0.0488
-0.05856,0.0488,-0.03904,-0.00976,0.01952,-0.03904,-0.01952,-0.16104,-0.0976,-0.11712,-0.122,-0.05368
-0.05856,0.0488,-0.03904,-0.00976,0.01952,-0.03904,-0.00976,-0.1464,-0.08296,-0.10248,-0.10736,-0.0488
-0.05856,0.0488,-0.03904,-0.00976,0.01952,-0.03904,-0.00976,-0.1464,-0.09272,-0.11224,-0.10736,-0.0488
-0.05856,0.04148,-0.0244,0.00488,0.03416,-0.04636,-0.00488,-0.13664,-0.0976,-0.11224,-0.10736,-0.0488
-0.0488,0.0244,0,0.0244,0.0488,-0.0488,0.00976,-0.122,-0.09272,-0.10248,-0.09272,-0.03416
-0.03904,0,0.03904,0.05856,0.07808,-0.05856,0.03416,-0.11224,-0.06344,-0.08784,-0.07808,-0.00976
-0.03904,0.00488,0.02928,0.0488,0.06832,-0.05368,0.04392,-0.0976,-0.05368,-0.06832,-0.05856,-0.00976
-0.0488,0.01464,0.01952,0.04392,0.06832,-0.05856,0.05368,-0.10248,-0.04392,-0.06832,-0.05856,-0.01464
-0.06832,0.01952,0.02928,0.06344,0.0976,-0.08296,0.05368,-0.10248,-0.04392,-0.06344,-0.06832,-0.01464
-0.05856,0.01708,0.0244,0.05368,0.08296,-0.07076,0.05368,-0.0976,-0.04392,-0.06344,-0.07808,-0.01952
-0.0488,0.00976,0.02928,0.05368,0.07808,-0.06344,0.0488,-0.10248,-0.04392,-0.0732,-0.07808,-0.0244
-0.04392,0.00488,0.03416,0.05612,0.07808,-0.061,0.04392,-0.10736,-0.03904,-0.06832,-0.09272,-0.0244
-0.03416,-0.00976,0.05368,0.07076,0.08784,-0.061,0.02928,-0.10736,-0.03904,-0.06832,-0.09272,-0.0244
-0.02928,-0.0122,0.05368,0.06832,0.08296,-0.05612,0.0244,-0.12688,-0.03416,-0.06344,-0.07808,-0.01464
-0.01464,-0.02684,0.06832,0.07564,0.08296,-0.0488,0.01952,-0.13664,-0.04392,-0.06344,-0.06832,0
-0.00488,-0.03904,0.08296,0.0854,0.08784,-0.04636,0.01952,-0.14152,-0.04392,-0.0732,-0.05856,0
0,-0.03904,0.07808,0.07808,0.07808,-0.03904,0.00976,-0.14152,-0.0488,-0.06344,-0.05856,0
-0.00976,-0.04148,0.09272,0.0976,0.10248,-0.05612,-0.00976,-0.14152,-0.05368,-0.06832,-0.06344,-0.00488
-0.01464,-0.04392,0.10248,0.1098,0.11712,-0.06588,-0.00488,-0.14152,-0.0488,-0.06832,-0.05856,0
-0.0244,-0.02196,0.06832,0.08052,0.09272,-0.05856,-0.00976,-0.1464,-0.05856,-0.08296,-0.06832,0.00488
-0.03416,-0.00244,0.03904,0.05612,0.0732,-0.05368,-0.0244,-0.15616,-0.07808,-0.08296,-0.06832,0.00488
-0.01952,-0.00976,0.03904,0.0488,0.05856,-0.03904,-0.03904,-0.15616,-0.08784,-0.08296,-0.0732,0
0.00488,-0.03172,0.05856,0.05612,0.05368,-0.0244,-0.0488,-0.15128,-0.09272,-0.0976,-0.08784,-0.01952
-0.00976,-0.01952,0.0488,0.05368,0.05856,-0.03416,-0.05368,-0.16104,-0.11224,-0.11224,-0.09272,-0.02928
-0.01464,-0.00244,0.01952,0.02684,0.03416,-0.0244,-0.04392,-0.15616,-0.11224,-0.11224,-0.08784,-0.03416
-0.0244,0.00976,0.00488,0.01708,0.02928,-0.02684,-0.04392,-0.14152,-0.11224,-0.11224,-0.09272,-0.03904
-0.05856,0.04636,-0.03416,-0.00488,0.0244,-0.04148,-0.03904,-0.13664,-0.11224,-0.11224,-0.0976,-0.03904
-0.0732,0.06588,-0.05856,-0.02196,0.01464,-0.04392,-0.03904,-0.13176,-0.12688,-0.122,-0.11224,-0.0488
-0.07808,0.0732,-0.06832,-0.02928,0.00976,-0.04392,-0.03416,-0.12688,-0.12688,-0.122,-0.11224,-0.0488
-0.06344,0.05368,-0.04392,-0.0122,0.01952,-0.04148,-0.01952,-0.11224,-0.11712,-0.10736,-0.11712,-0.05368
-0.0488,0.04636,-0.04392,-0.01952,0.00488,-0.02684,-0.01464,-0.11224,-0.12688,-0.122,-0.11712,-0.0488
-0.03904,0.03172,-0.0244,-0.00488,0.01464,-0.02684,-0.00976,-0.0976,-0.122,-0.122,-0.10736,-0.0488
-0.00488,0.00488,-0.00488,-0.00244,0,-0.00244,-0.00976,-0.10248,-0.122,-0.122,-0.11224,-0.05368
0,-0.00244,0.00488,0.00488,0.00488,-0.00244,-0.01464,-0.10736,-0.11224,-0.11224,-0.10736,-0.04392
-0.03904,0.0366,-0.03416,-0.01464,0.00488,-0.02196,-0.01464,-0.10736,-0.10736,-0.11224,-0.10736,-0.03904
-0.05368,0.05368,-0.05368,-0.02684,0,-0.02684,-0.01952,-0.10736,-0.11224,-0.11712,-0.11224,-0.04392
-0.05856,0.05124,-0.04392,-0.01464,0.01464,-0.0366,-0.01952,-0.11224,-0.122,-0.12688,-0.122,-0.05856
-0.05856,0.061,-0.06344,-0.03416,-0.00488,-0.02684,-0.00976,-0.11224,-0.12688,-0.12688,-0.12688,-0.0732
-0.0488,0.0488,-0.0488,-0.0244,0,-0.0244,-0.00976,-0.11224,-0.12688,-0.13664,-0.12688,-0.06832
-0.05368,0.05856,-0.06344,-0.0366,-0.00976,-0.02196,0,-0.10248,-0.11224,-0.13176,-0.12688,-0.06832
-0.05368,0.061,-0.06832,-0.04148,-0.01464,-0.01952,0.00488,-0.10736,-0.11712,-0.13176,-0.11712,-0.05856
-0.0488,0.05124,-0.05368,-0.02928,-0.00488,-0.02196,0.00488,-0.12688,-0.122,-0.13176,-0.122,-0.0488
-0.05368,0.05612,-0.05856,-0.03172,-0.00488,-0.0244,0,-0.12688,-0.122,-0.13176,-0.12688,-0.05856
-0.02928,0.0366,-0.04392,-0.02928,-0.01464,-0.00732,0,-0.13664,-0.11712,-0.1464,-0.14152,-0.05856
-0.0976,0.09272,-0.08784,-0.03904,0.00976,-0.05368,-0.02928,-0.1708,-0.11224,-0.13176,-0.122,-0.03904
-0.07808,0.00976,0.05856,0.0976,0.13664,-0.10736,-0.09272,-0.23424,-0.13176,-0.122,-0.10736,-0.03904
-0.03904,-0.0244,0.08784,0.10736,0.12688,-0.08296,-0.08296,-0.20984,-0.03904,0.00488,-0.01952,0.03416
0.01952,-0.10492,0.19032,0.18056,0.1708,-0.07564,-0.04392,-0.15128,0.08296,0.12688,0.12688,0.13176
0.0732,-0.14884,0.22448,0.18788,0.15128,-0.03904,-0.07808,-0.37576,0.03904,0.30256,0.38064,0.31232
0.20496,-0.26108,0.3172,0.21472,0.11224,0.04636,-0.18544,-0.66368,-0.00488,0.62464,0.78568,0.54656
0.26352,-0.34404,0.42456,0.2928,0.16104,0.05124,-0.38552,-1.098,-0.244,0.9516,1.22976,0.80032
0.3904,-0.42456,0.45872,0.26352,0.06832,0.16104,-0.51728,-1.19072,-0.41968,1.33712,1.82024,1.11264
0.61976,-0.5856,0.55144,0.24156,-0.06832,0.34404,-0.77592,-1.23952,-0.59048,1.81536,2.50344,1.464
0.732,-0.60024,0.46848,0.10248,-0.26352,0.49776,-0.98576,-1.26392,-0.854,2.08864,2.99632,1.69824
0.81984,-0.56852,0.3172,-0.09272,-0.50264,0.66124,-1.16144,-1.22976,-1.01504,2.26432,3.08416,1.59088
0.69784,-0.47336,0.24888,-0.10004,-0.44896,0.5734,-1.20048,-1.38104,-1.05896,2.11304,2.68888,1.33224
0.5124,-0.28548,0.05856,-0.19764,-0.45384,0.48312,-1.08336,-1.42008,-1.03944,1.76656,1.96664,0.91256
0.34648,-0.11224,-0.122,-0.29524,-0.46848,0.40748,-0.854,-1.18584,-0.88328,1.30784,1.18096,0.51728
0.12688,0.04148,-0.20984,-0.27328,-0.33672,0.2318,-0.5856,-0.83936,-0.67832,0.66856,0.4392,0.15616
0.04392,0.09516,-0.23424,-0.2562,-0.27816,0.16104,-0.38064,-0.55632,-0.57584,-0.00976,-0.06832,-0.03416
0.01464,0.10248,-0.2196,-0.22692,-0.23424,0.12444,-0.20496,-0.33184,-0.44408,-0.29768,-0.1708,-0.08296
0.0244,0.05368,-0.13176,-0.14396,-0.15616,0.09028,-0.13664,-0.22448,-0.31232,-0.1708,-0.1464,-0.0976
-0.00976,0.06832,-0.12688,-0.122,-0.11712,0.05368,-0.07808,-0.1464,-0.20008,-0.13664,-0.13664,-0.0732
-0.03904,0.05856,-0.07808,-0.05856,-0.03904,0,-0.0488,-0.12688,-0.16104,-0.122,-0.14152,-0.06344
-0.01952,0.0366,-0.05368,-0.04392,-0.03416,0.00732,0.00488,-0.03416,-0.08784,-0.07808,-0.11224,-0.0488
-0.03904,0.06588,-0.09272,-0.0732,-0.05368,0.00732,0.05368,0.00976,-0.03904,-0.0732,-0.13176,-0.06832
-0.05368,0.05368,-0.05368,-0.02684,0,-0.02684,0.05856,0.00976,-0.03904,-0.11224,-0.15616,-0.10248
-0.06832,0.05612,-0.04392,-0.00976,0.0244,-0.04636,0.0488,0,-0.04392,-0.11712,-0.16104,-0.09272
-0.06344,0.05368,-0.04392,-0.0122,0.01952,-0.04148,0.05368,0,-0.02928,-0.0976,-0.13664,-0.0732
-0.04392,0.0488,-0.05368,-0.03172,-0.00976,-0.01708,0.05856,0.02928,-0.00976,-0.08784,-0.12688,-0.06344
-0.03416,0.04392,-0.05368,-0.0366,-0.01952,-0.00732,0.0732,0.05856,0,-0.09272,-0.13176,-0.05856
-0.0244,0.03172,-0.03904,-0.02684,-0.01464,-0.00488,0.08296,0.0488,0.00488,-0.09272,-0.13664,-0.06832
