i,aVR,ii,aVF,iii,aVL,V1,V2,V3,V4,V5,V6
-0.09272,0.06832,-0.04392,0.00244,0.0488,-0.07076,0.00976,-0.03904,-0.05368,-0.06344,-0.08296,-0.0732
-0.09272,0.06344,-0.03416,0.0122,0.05856,-0.07564,0.00488,-0.03904,-0.0488,-0.05856,-0.07808,-0.07808
-0.08784,0.05124,-0.01464,0.02928,0.0732,-0.08052,0,-0.03904,-0.03904,-0.05368,-0.07808,-0.07808
-0.08296,0.0488,-0.01464,0.02684,0.06832,-0.07564,0,-0.03904,-0.03904,-0.05368,-0.0732,-0.07808
-0.07808,0.05124,-0.0244,0.01464,0.05368,-0.06588,-0.01464,-0.04392,-0.04392,-0.05368,-0.06832,-0.07808
-0.07808,0.05124,-0.0244,0.01464,0.05368,-0.06588,-0.01952,-0.05856,-0.0488,-0.05368,-0.06832,-0.07808
-0.07808,0.04392,-0.00976,0.02928,0.06832,-0.0732,-0.02928,-0.06344,-0.0488,-0.05368,-0.06344,-0.0732
-0.06344,0.02928,0.00488,0.0366,0.06832,-0.06588,-0.04392,-0.0732,-0.0488,-0.0488,-0.05856,-0.06344
-0.05368,0.01952,0.01464,0.04148,0.06832,-0.061,-0.05856,-0.08296,-0.0488,-0.04392,-0.05856,-0.05368
-0.06344,0.0244,0.01464,0.04636,0.07808,-0.07076,-0.05856,-0.08784,-0.05368,-0.04392,-0.05856,-0.05368
-0.06832,0.02684,0.01464,0.0488,0.08296,-0.07564,-0.05856,-0.08784,-0.05368,-0.04392,-0.05368,-0.05368
-0.06832,0.02196,0.0244,0.05856,0.09272,-0.08052,-0.05368,-0.08784,-0.04392,-0.03416,-0.05368,-0.04392
-0.05856,0.00976,0.03904,0.06832,0.0976,-0.07808,-0.05368,-0.08784,-0.03904,-0.02928,-0.05368,-0.03904
-0.0488,0.00732,0.03416,0.05856,0.08296,-0.06588,-0.05856,-0.08296,-0.0488,-0.03904,-0.0488,-0.04392
-0.0488,0.01708,0.01464,0.03904,0.06344,-0.05612,-0.05368,-0.07808,-0.06344,-0.0488,-0.05856,-0.05368
-0.0488,0.03172,-0.01464,0.00976,0.03416,-0.04148,-0.03904,-0.06344,-0.0732,-0.06832,-0.06832,-0.06344
-0.05368,0.04392,-0.03416,-0.00732,0.01952,-0.0366,-0.02928,-0.05368,-0.08296,-0.07808,-0.08296,-0.07808
-0.06344,0.06588,-0.06832,-0.0366,-0.00488,-0.02928,-0.01952,-0.0488,-0.09272,-0.08784,-0.08784,-0.08296
-0.08296,0.08784,-0.09272,-0.05124,-0.00976,-0.0366,-0.00976,-0.0488,-0.0976,-0.0976,-0.10736,-0.0976
-0.10248,0.10004,-0.0976,-0.04636,0.00488,-0.05368,-0.00488,-0.05368,-0.10736,-0.10248,-0.10736,-0.10248
-0.10736,0.10248,-0.0976,-0.04392,0.00976,-0.05856,-0.00488,-0.05368,-0.10736,-0.10248,-0.10736,-0.10248
-0.10736,0.10492,-0.10248,-0.0488,0.00488,-0.05612,0,-0.0488,-0.10736,-0.10736,-0.11224,-0.10736
-0.11712,0.11224,-0.10736,-0.0488,0.00976,-0.06344,0,-0.0488,-0.11712,-0.10736,-0.11712,-0.11224
-0.11712,0.11956,-0.122,-0.06344,-0.00488,-0.05612,0.00488,-0.0488,-0.122,-0.12688,-0.12688,-0.122
-0.11712,0.122,-0.12688,-0.06832,-0.00976,-0.05368,0.01464,-0.0488,-0.122,-0.13176,-0.12688,-0.122
-0.11712,0.12444,-0.13176,-0.0732,-0.01464,-0.05124,0.01952,-0.0488,-0.122,-0.13176,-0.13176,-0.122
-0.122,0.12688,-0.13176,-0.07076,-0.00976,-0.05612,0.01952,-0.0488,-0.122,-0.13176,-0.13664,-0.12688
-0.122,0.12688,-0.13176,-0.07076,-0.00976,-0.05612,0.0244,-0.0488,-0.11712,-0.13176,-0.13664,-0.12688
-0.11712,0.12444,-0.13176,-0.0732,-0.01464,-0.05124,0.0244,-0.04392,-0.11712,-0.13176,-0.13664,-0.12688
-0.11712,0.12688,-0.13664,-0.07808,-0.01952,-0.0488,0.0244,-0.04392,-0.11712,-0.13176,-0.13664,-0.12688
-0.12688,0.1342,-0.14152,-0.07808,-0.01464,-0.05612,0.0244,-0.04392,-0.11224,-0.12688,-0.13664,-0.122
-0.12688,0.1342,-0.14152,-0.07808,-0.01464,-0.05612,0.0244,-0.04392,-0.11712,-0.12688,-0.13664,-0.122
-0.12688,0.1342,-0.14152,-0.07808,-0.01464,-0.05612,0.0244,-0.04392,-0.11712,-0.12688,-0.13176,-0.122
-0.122,0.13176,-0.14152,-0.08052,-0.01952,-0.05124,0.0244,-0.04392,-0.11712,-0.122,-0.12688,-0.122
-0.122,0.12932,-0.13664,-0.07564,-0.01464,-0.05368,0.0244,-0.04392,-0.11712,-0.122,-0.122,-0.11712
-0.122,0.13176,-0.14152,-0.08052,-0.01952,-0.05124,0.0244,-0.04392,-0.10736,-0.11712,-0.11712,-0.11224
-0.122,0.13176,-0.14152,-0.08052,-0.01952,-0.05124,0.0244,-0.0488,-0.10736,-0.11712,-0.11712,-0.10736
-0.0976,0.11956,-0.14152,-0.09272,-0.04392,-0.02684,0.00488,-0.05856,-0.14152,-0.12688,-0.122,-0.11224
-0.11712,0.12932,-0.14152,-0.08296,-0.0244,-0.04636,0.02928,-0.02928,-0.11224,-0.122,-0.13664,-0.14152
-0.21472,0.1708,-0.12688,-0.01952,0.08784,-0.15128,0.11712,0.00976,0.00976,-0.08784,-0.19032,-0.20008
-0.28304,0.17568,-0.06832,0.0732,0.21472,-0.24888,0.18056,0.0488,0.16592,0.00488,-0.1708,-0.21472
-0.3172,0.17568,-0.03416,0.12444,0.28304,-0.30012,0.2928,0.1952,0.39528,0.1708,-0.05368,-0.15128
-0.21472,0.10004,0.01464,0.122,0.22936,-0.22204,0.40992,0.49288,0.6832,0.3904,0.16104,0.00976
0,-0.06832,0.13664,0.13664,0.13664,-0.06832,0.52216,0.89304,1.13704,0.75152,0.52216,0.2928
0.2684,-0.26596,0.26352,0.12932,-0.00488,0.13664,0.42456,0.96624,1.18584,0.9516,0.84912,0.60024
0.5856,-0.53436,0.48312,0.19032,-0.10248,0.34404,0.08784,0.68808,0.90768,1.09312,1.26392,1.01016
0.91256,-0.83204,0.75152,0.29524,-0.16104,0.5368,-0.31232,0.35136,0.66368,1.26392,1.6836,1.42984
1.21512,-1.05652,0.89792,0.29036,-0.3172,0.76616,-0.63928,0.06832,0.28304,1.15656,1.82024,1.63968
1.1712,-0.98088,0.79056,0.20496,-0.38064,0.77592,-0.79544,-0.26352,-0.22936,0.68808,1.37128,1.33712
0.7564,-0.66124,0.56608,0.18788,-0.19032,0.47336,-0.79544,-0.65392,-0.67344,0.08784,0.57584,0.70272
0.40016,-0.40748,0.4148,0.21472,0.01464,0.19276,-0.76616,-0.9028,-0.94672,-0.38552,-0.07808,0.20496
0.15616,-0.20496,0.25376,0.17568,0.0976,0.02928,-0.70272,-0.976,-1.06872,-0.6344,-0.39528,-0.0732
0.0244,-0.10004,0.17568,0.16348,0.15128,-0.06344,-0.59536,-0.88328,-0.976,-0.64904,-0.45872,-0.16104
0.01952,-0.061,0.10248,0.09272,0.08296,-0.03172,-0.47336,-0.68808,-0.80032,-0.55144,-0.39528,-0.15616
0.01952,-0.0366,0.05368,0.04392,0.03416,-0.00732,-0.35624,-0.50752,-0.62952,-0.4392,-0.30256,-0.11712
-0.03416,0.0122,0.00976,0.02684,0.04392,-0.03904,-0.20008,-0.32208,-0.40504,-0.2928,-0.2196,-0.11712
-0.06344,0.04392,-0.0244,0.00732,0.03904,-0.05124,-0.11224,-0.20008,-0.27328,-0.20984,-0.1708,-0.11224
-0.08296,0.07564,-0.06832,-0.02684,0.01464,-0.0488,-0.03904,-0.11224,-0.17568,-0.15616,-0.1464,-0.10736
-0.08296,0.08784,-0.09272,-0.05124,-0.00976,-0.0366,-0.00976,-0.06832,-0.13176,-0.13176,-0.13664,-0.10736
-0.09272,0.09516,-0.0976,-0.05124,-0.00488,-0.04392,0.00976,-0.05368,-0.11712,-0.12688,-0.13664,-0.11224
-0.10248,0.10492,-0.10736,-0.05612,-0.00488,-0.0488,0.0244,-0.03904,-0.10248,-0.11712,-0.13176,-0.11712
-0.0976,0.10492,-0.11224,-0.06344,-0.01464,-0.04148,0.03904,-0.02928,-0.09272,-0.11712,-0.13176,-0.11712
-0.09272,0.10248,-0.11224,-0.06588,-0.01952,-0.0366,0.0488,-0.01952,-0.08296,-0.11224,-0.13176,-0.11712
-0.0976,0.10492,-0.11224,-0.06344,-0.01464,-0.04148,0.0488,-0.00976,-0.06832,-0.10248,-0.11712,-0.11712
-0.0976,0.10492,-0.11224,-0.06344,-0.01464,-0.04148,0.05368,-0.00488,-0.05368,-0.10248,-0.11224,-0.11712
-0.10248,0.10736,-0.11224,-0.061,-0.00976,-0.04636,0.05856,0.00488,-0.05368,-0.0976,-0.10736,-0.11224
-0.10248,0.1098,-0.11712,-0.06588,-0.01464,-0.04392,0.05856,0.01464,-0.0488,-0.09272,-0.10736,-0.11224
-0.10248,0.1098,-0.11712,-0.06588,-0.01464,-0.04392,0.05368,0.01464,-0.04392,-0.09272,-0.10736,-0.11224
-0.10248,0.1098,-0.11712,-0.06588,-0.01464,-0.04392,0.05368,0.01952,-0.03904,-0.08784,-0.10736,-0.10736
-0.10248,0.10248,-0.10248,-0.05124,0,-0.05124,0.05856,0.01952,-0.03416,-0.08784,-0.10248,-0.10736
-0.10248,0.0976,-0.09272,-0.04148,0.00976,-0.05612,0.05856,0.01952,-0.02928,-0.08784,-0.10248,-0.10736
-0.10248,0.10492,-0.10736,-0.05612,-0.00488,-0.0488,0.06344,0.01952,-0.02928,-0.07808,-0.0976,-0.10736
-0.10248,0.1098,-0.11712,-0.06588,-0.01464,-0.04392,0.06832,0.0244,-0.0244,-0.07808,-0.09272,-0.10736
-0.0976,0.10736,-0.11712,-0.06832,-0.01952,-0.03904,0.07808,0.03416,-0.01952,-0.06832,-0.09272,-0.10736
-0.09272,0.10736,-0.122,-0.07564,-0.02928,-0.03172,0.08296,0.04392,-0.01464,-0.06344,-0.08784,-0.11224
-0.09272,0.10492,-0.11712,-0.07076,-0.0244,-0.03416,0.08296,0.04392,-0.00976,-0.06344,-0.08784,-0.11224
-0.09272,0.10248,-0.11224,-0.06588,-0.01952,-0.0366,0.08296,0.0488,-0.00976,-0.05856,-0.08784,-0.10736
-0.0976,0.1098,-0.122,-0.0732,-0.0244,-0.0366,0.08296,0.04392,-0.00488,-0.05368,-0.08296,-0.10248
-0.10248,0.11712,-0.13176,-0.08052,-0.02928,-0.0366,0.08296,0.04392,0,-0.0488,-0.07808,-0.0976
-0.0976,0.1098,-0.122,-0.0732,-0.0244,-0.0366,0.07808,0.0488,0.00976,-0.0488,-0.07808,-0.09272
-0.09272,0.10004,-0.10736,-0.061,-0.01464,-0.03904,0.07808,0.05368,0.01464,-0.04392,-0.0732,-0.08784
-0.08784,0.09516,-0.10248,-0.05856,-0.01464,-0.0366,0.07808,0.05368,0.01464,-0.03904,-0.06832,-0.08784
-0.08296,0.09272,-0.10248,-0.061,-0.01952,-0.03172,0.07808,0.05856,0.01464,-0.03416,-0.06344,-0.08296
-0.07808,0.0854,-0.09272,-0.05368,-0.01464,-0.03172,0.0732,0.05856,0.01464,-0.02928,-0.05856,-0.07808
-0.0732,0.08052,-0.08784,-0.05124,-0.01464,-0.02928,0.0732,0.06832,0.0244,-0.02928,-0.05856,-0.07808
-0.0732,0.07564,-0.07808,-0.04148,-0.00488,-0.03416,0.0732,0.0732,0.03416,-0.0244,-0.05368,-0.0732
-0.06344,0.06588,-0.06832,-0.0366,-0.00488,-0.02928,0.0732,0.07808,0.03416,-0.0244,-0.05856,-0.0732
-0.05856,0.06344,-0.06832,-0.03904,-0.00976,-0.0244,0.0732,0.08296,0.0488,-0.01952,-0.0488,-0.06344
-0.05368,0.061,-0.06832,-0.04148,-0.01464,-0.01952,0.0732,0.09272,0.06344,-0.01464,-0.03904,-0.05856
-0.0488,0.05612,-0.06344,-0.03904,-0.01464,-0.01708,0.07808,0.10248,0.0732,-0.00488,-0.02928,-0.05368
-0.04392,0.05612,-0.06832,-0.04636,-0.0244,-0.00976,0.08296,0.10736,0.08296,0.00488,-0.01952,-0.05368
-0.03416,0.04636,-0.05856,-0.04148,-0.0244,-0.00488,0.08296,0.11224,0.0976,0.01464,-0.01464,-0.04392
-0.02928,0.04148,-0.05368,-0.03904,-0.0244,-0.00244,0.07808,0.122,0.10736,0.02928,-0.00488,-0.02928
-0.0244,0.03172,-0.03904,-0.02684,-0.01464,-0.00488,0.0732,0.13176,0.11224,0.03904,0.00488,-0.0244
-0.01464,0.02196,-0.02928,-0.02196,-0.01464,0,0.06832,0.14152,0.11712,0.0488,0.0244,-0.01464
0.00488,0.00732,-0.01952,-0.02196,-0.0244,0.01464,0.06832,0.15128,0.13664,0.0732,0.04392,-0.00488
0.00976,0.00488,-0.01952,-0.0244,-0.02928,0.01952,0.06344,0.16104,0.15616,0.09272,0.05856,0.01464
0.02928,-0.0122,-0.00488,-0.01952,-0.03416,0.03172,0.06832,0.1708,0.1708,0.10248,0.0732,0.0244
0.04392,-0.02684,0.00976,-0.0122,-0.03416,0.03904,0.06344,0.18056,0.18544,0.11224,0.09272,0.0488
0.06344,-0.04392,0.0244,-0.00732,-0.03904,0.05124,0.05368,0.19032,0.20496,0.13664,0.11224,0.06832
0.08296,-0.061,0.03904,-0.00244,-0.04392,0.06344,0.0488,0.20008,0.21472,0.15616,0.13664,0.08784
0.08784,-0.07076,0.05368,0.00976,-0.03416,0.061,0.0488,0.20496,0.23424,0.1708,0.15616,0.10736
0.0976,-0.08296,0.06832,0.01952,-0.02928,0.06344,0.04392,0.21472,0.244,0.19032,0.17568,0.12688
0.11224,-0.0976,0.08296,0.02684,-0.02928,0.07076,0.03904,0.21472,0.25376,0.20496,0.1952,0.14152
0.12688,-0.11224,0.0976,0.03416,-0.02928,0.07808,0.03416,0.21472,0.26352,0.2196,0.2196,0.15616
0.13664,-0.122,0.10736,0.03904,-0.02928,0.08296,0.01464,0.21472,0.2684,0.22936,0.22936,0.1708
0.1464,-0.1342,0.122,0.0488,-0.0244,0.0854,0.00976,0.21472,0.27816,0.23424,0.24888,0.18056
0.15616,-0.13908,0.122,0.04392,-0.03416,0.09516,0,0.21472,0.27816,0.244,0.25864,0.1952
0.16104,-0.1464,0.13176,0.05124,-0.02928,0.09516,-0.00488,0.21472,0.28304,0.25376,0.2684,0.20496
0.1708,-0.1586,0.1464,0.061,-0.0244,0.0976,-0.00488,0.2196,0.2928,0.26352,0.27816,0.2196
0.17568,-0.16348,0.15128,0.06344,-0.0244,0.10004,-0.00976,0.2196,0.2928,0.2684,0.28792,0.22936
0.18056,-0.16592,0.15128,0.061,-0.02928,0.10492,-0.00976,0.21472,0.2928,0.2684,0.2928,0.23424
0.18544,-0.1708,0.15616,0.06344,-0.02928,0.10736,-0.00976,0.20984,0.2928,0.2684,0.29768,0.23424
0.18056,-0.16836,0.15616,0.06588,-0.0244,0.10248,-0.01464,0.1952,0.28792,0.2684,0.29768,0.23912
0.1708,-0.16592,0.16104,0.07564,-0.00976,0.09028,-0.01952,0.18544,0.28304,0.26352,0.2928,0.23912
0.16592,-0.16592,0.16592,0.08296,0,0.08296,-0.0244,0.16592,0.2684,0.25864,0.29768,0.23424
0.15616,-0.1586,0.16104,0.08296,0.00488,0.07564,-0.02928,0.15128,0.25864,0.25376,0.27816,0.22448
0.13664,-0.1464,0.15616,0.08784,0.01952,0.05856,-0.02928,0.13176,0.23912,0.23424,0.25864,0.21472
0.11712,-0.1342,0.15128,0.09272,0.03416,0.04148,-0.02928,0.11224,0.22448,0.2196,0.23912,0.20008
0.0976,-0.11468,0.13176,0.08296,0.03416,0.03172,-0.03416,0.08296,0.20008,0.1952,0.21472,0.18056
0.08296,-0.0976,0.11224,0.07076,0.02928,0.02684,-0.03416,0.06344,0.17568,0.17568,0.19032,0.15616
0.06832,-0.08296,0.0976,0.06344,0.02928,0.01952,-0.03416,0.04392,0.16104,0.15616,0.1708,0.13664
0.04392,-0.061,0.07808,0.05612,0.03416,0.00488,-0.01952,0.02928,0.13664,0.14152,0.1464,0.11712
0.02928,-0.04148,0.05368,0.03904,0.0244,0.00244,-0.01464,0.01952,0.10736,0.11224,0.11224,0.07808
0.01464,-0.02684,0.03904,0.03172,0.0244,-0.00488,-0.01464,0.00488,0.07808,0.08296,0.08296,0.0488
-0.00976,-0.00488,0.01952,0.0244,0.02928,-0.01952,-0.01464,0,0.06344,0.0488,0.04392,0.02928
-0.02928,0.01708,-0.00488,0.00976,0.0244,-0.02684,-0.00488,-0.00488,0.04392,0.02928,0.0244,0.00976
-0.04392,0.03416,-0.0244,-0.00244,0.01952,-0.03172,0.00488,-0.01464,0.01952,0.00488,-0.00488,-0.0244
-0.05368,0.04636,-0.03904,-0.0122,0.01464,-0.03416,0.01464,-0.01952,0.00488,-0.01952,-0.01952,-0.03904
-0.06832,0.061,-0.05368,-0.01952,0.01464,-0.04148,0.01464,-0.02928,-0.00488,-0.03416,-0.03416,-0.05368
-0.08296,0.07808,-0.0732,-0.03172,0.00976,-0.04636,0.01952,-0.03416,-0.0244,-0.03904,-0.04392,-0.06344
-0.08296,0.07564,-0.06832,-0.02684,0.01464,-0.0488,0.01952,-0.03416,-0.0244,-0.05368,-0.05856,-0.07808
-0.08296,0.07808,-0.0732,-0.03172,0.00976,-0.04636,0.0244,-0.03416,-0.03416,-0.05856,-0.06344,-0.08296
-0.08296,0.08296,-0.08296,-0.04148,0,-0.04148,0.0244,-0.03416,-0.04392,-0.06832,-0.0732,-0.09272
-0.09272,0.09272,-0.09272,-0.04636,0,-0.04636,0.01952,-0.03416,-0.0488,-0.07808,-0.08296,-0.0976
-0.08784,0.09028,-0.09272,-0.0488,-0.00488,-0.04148,0.0244,-0.03416,-0.05368,-0.0732,-0.08784,-0.0976
-0.08296,0.08784,-0.09272,-0.05124,-0.00976,-0.0366,0.0244,-0.03416,-0.05856,-0.0732,-0.08784,-0.0976
-0.08296,0.09028,-0.0976,-0.05612,-0.01464,-0.03416,0.02928,-0.02928,-0.05856,-0.0732,-0.08784,-0.10248
-0.08296,0.09028,-0.0976,-0.05612,-0.01464,-0.03416,0.03416,-0.02928,-0.06344,-0.0732,-0.08784,-0.10248
-0.0976,0.10004,-0.10248,-0.05368,-0.00488,-0.04636,0.03416,-0.02928,-0.06344,-0.0732,-0.08784,-0.10248
-0.10248,0.10492,-0.10736,-0.05612,-0.00488,-0.0488,0.03416,-0.0244,-0.06344,-0.07808,-0.08784,-0.10248
-0.09272,0.10004,-0.10736,-0.061,-0.01464,-0.03904,0.03416,-0.02928,-0.06344,-0.08296,-0.0976,-0.10736
-0.10248,0.10492,-0.10736,-0.05612,-0.00488,-0.0488,0.03416,-0.03416,-0.06344,-0.08784,-0.0976,-0.10736
-0.10248,0.10492,-0.10736,-0.05612,-0.00488,-0.0488,0.03904,-0.03416,-0.06344,-0.08784,-0.0976,-0.10248
-0.10248,0.10736,-0.11224,-0.061,-0.00976,-0.04636,0.03904,-0.02928,-0.05856,-0.09272,-0.0976,-0.10248
-0.10248,0.10492,-0.10736,-0.05612,-0.00488,-0.0488,0.03904,-0.02928,-0.05856,-0.08784,-0.10248,-0.10248
-0.10248,0.10004,-0.0976,-0.04636,0.00488,-0.05368,0.03904,-0.02928,-0.05856,-0.07808,-0.10736,-0.10736
-0.10736,0.10004,-0.09272,-0.03904,0.01464,-0.061,0.03904,-0.02928,-0.05856,-0.07808,-0.10736,-0.10736
-0.10736,0.10004,-0.09272,-0.03904,0.01464,-0.061,0.03904,-0.0244,-0.05368,-0.07808,-0.10736,-0.10736
-0.10248,0.0976,-0.09272,-0.04148,0.00976,-0.05612,0.03904,-0.0244,-0.05368,-0.08296,-0.10248,-0.10736
-0.10248,0.0976,-0.09272,-0.04148,0.00976,-0.05612,0.03904,-0.0244,-0.0488,-0.08296,-0.10248,-0.10736
-0.0976,0.09516,-0.09272,-0.04392,0.00488,-0.05124,0.03904,-0.0244,-0.0488,-0.08296,-0.10248,-0.10736
-0.08784,0.09028,-0.09272,-0.0488,-0.00488,-0.04148,0.03904,-0.0244,-0.04392,-0.08296,-0.10248,-0.10736
-0.08784,0.09028,-0.09272,-0.0488,-0.00488,-0.04148,0.03904,-0.01952,-0.03904,-0.06832,-0.09272,-0.10248
-0.08296,0.08296,-0.08296,-0.04148,0,-0.04148,0.03904,-0.01952,-0.03416,-0.06344,-0.09272,-0.0976
-0.08784,0.0854,-0.08296,-0.03904,0.00488,-0.04636,0.03904,-0.01952,-0.03416,-0.06832,-0.09272,-0.0976
-0.09272,0.08784,-0.08296,-0.0366,0.00976,-0.05124,0.03904,-0.01952,-0.03416,-0.06832,-0.09272,-0.0976
-0.09272,0.08784,-0.08296,-0.0366,0.00976,-0.05124,0.02928,-0.0244,-0.03904,-0.06344,-0.08784,-0.09272
-0.09272,0.09028,-0.08784,-0.04148,0.00488,-0.0488,0.0244,-0.02928,-0.04392,-0.06344,-0.08784,-0.08784
-0.10248,0.0976,-0.09272,-0.04148,0.00976,-0.05612,0.02928,-0.02928,-0.04392,-0.06344,-0.08784,-0.08784
-0.10736,0.10004,-0.09272,-0.03904,0.01464,-0.061,0.02928,-0.02928,-0.04392,-0.06344,-0.08784,-0.08784
-0.10736,0.10004,-0.09272,-0.03904,0.01464,-0.061,0.02928,-0.02928,-0.0488,-0.06832,-0.08296,-0.08784
-0.0976,0.09272,-0.08784,-0.03904,0.00976,-0.05368,0.03416,-0.03416,-0.0488,-0.06832,-0.07808,-0.08296
-0.09272,0.09028,-0.08784,-0.04148,0.00488,-0.0488,0.03416,-0.03416,-0.0488,-0.06344,-0.07808,-0.08784
-0.08784,0.0854,-0.08296,-0.03904,0.00488,-0.04636,0.02928,-0.03416,-0.0488,-0.05856,-0.07808,-0.08784
-0.08784,0.0854,-0.08296,-0.03904,0.00488,-0.04636,0.0244,-0.03416,-0.05368,-0.05856,-0.07808,-0.08784
-0.08784,0.08784,-0.08784,-0.04392,0,-0.04392,0.0244,-0.03416,-0.05368,-0.05856,-0.07808,-0.09272
-0.0976,0.09272,-0.08784,-0.03904,0.00976,-0.05368,0.0244,-0.03416,-0.05368,-0.06832,-0.08296,-0.09272
-0.10248,0.09272,-0.08296,-0.03172,0.01952,-0.061,0.0244,-0.03416,-0.05368,-0.07808,-0.07808,-0.09272
-0.10248,0.09272,-0.08296,-0.03172,0.01952,-0.061,0.0244,-0.03904,-0.06344,-0.07808,-0.08784,-0.09272
-0.10248,0.09516,-0.08784,-0.0366,0.01464,-0.05856,0.0244,-0.0488,-0.06344,-0.08296,-0.08784,-0.09272
-0.10248,0.0976,-0.09272,-0.04148,0.00976,-0.05612,0.0244,-0.0488,-0.06344,-0.08296,-0.08784,-0.09272
-0.10248,0.0976,-0.09272,-0.04148,0.00976,-0.05612,0.0244,-0.0488,-0.06344,-0.08296,-0.08784,-0.09272
-0.0976,0.09516,-0.09272,-0.04392,0.00488,-0.05124,0.01952,-0.04392,-0.06344,-0.08784,-0.09272,-0.09272
-0.09272,0.09516,-0.0976,-0.05124,-0.00488,-0.04392,0.01952,-0.03904,-0.06832,-0.09272,-0.09272,-0.0976
-0.09272,0.09516,-0.0976,-0.05124,-0.00488,-0.04392,0.01952,-0.03904,-0.06832,-0.09272,-0.09272,-0.0976
-0.09272,0.09272,-0.09272,-0.04636,0,-0.04636,0.01952,-0.03904,-0.0732,-0.08784,-0.09272,-0.0976
-0.09272,0.09272,-0.09272,-0.04636,0,-0.04636,0.0244,-0.03904,-0.0732,-0.08296,-0.09272,-0.0976
-0.09272,0.09272,-0.09272,-0.04636,0,-0.04636,0.0244,-0.04392,-0.07808,-0.08784,-0.10248,-0.10248
-0.09272,0.09272,-0.09272,-0.04636,0,-0.04636,0.0244,-0.04392,-0.07808,-0.08784,-0.10248,-0.10248
-0.09272,0.09272,-0.09272,-0.04636,0,-0.04636,0.0244,-0.04392,-0.07808,-0.08784,-0.10248,-0.10248
-0.09272,0.09516,-0.0976,-0.05124,-0.00488,-0.04392,0.01952,-0.04392,-0.07808,-0.08784,-0.0976,-0.0976
-0.09272,0.09516,-0.0976,-0.05124,-0.00488,-0.04392,0.01952,-0.04392,-0.07808,-0.08296,-0.0976,-0.09272
-0.09272,0.09516,-0.0976,-0.05124,-0.00488,-0.04392,0.01952,-0.04392,-0.07808,-0.08296,-0.10248,-0.09272
-0.0976,0.0976,-0.0976,-0.0488,0,-0.0488,0.01952,-0.04392,-0.08296,-0.08784,-0.10248,-0.0976
-0.0976,0.09516,-0.09272,-0.04392,0.00488,-0.05124,0.01952,-0.0488,-0.08296,-0.09272,-0.10248,-0.0976
-0.0976,0.09516,-0.09272,-0.04392,0.00488,-0.05124,0.01952,-0.0488,-0.08296,-0.09272,-0.10248,-0.09272
-0.0976,0.10004,-0.10248,-0.05368,-0.00488,-0.04636,0.01952,-0.04392,-0.08296,-0.09272,-0.10248,-0.09272
-0.0976,0.10492,-0.11224,-0.06344,-0.01464,-0.04148,0.01952,-0.03904,-0.08296,-0.08296,-0.0976,-0.09272
-0.0976,0.10736,-0.11712,-0.06832,-0.01952,-0.03904,0.01952,-0.03904,-0.08296,-0.09272,-0.0976,-0.0976
-0.0976,0.10736,-0.11712,-0.06832,-0.01952,-0.03904,0.01952,-0.03904,-0.08784,-0.09272,-0.10248,-0.10736
-0.0976,0.10736,-0.11712,-0.06832,-0.01952,-0.03904,0.01952,-0.03904,-0.08784,-0.09272,-0.10248,-0.10736
-0.0976,0.10736,-0.11712,-0.06832,-0.01952,-0.03904,0.01952,-0.03904,-0.08784,-0.09272,-0.10248,-0.10736
-0.0976,0.10492,-0.11224,-0.06344,-0.01464,-0.04148,0.0244,-0.03904,-0.08784,-0.09272,-0.10248,-0.10736
-0.0976,0.10492,-0.11224,-0.06344,-0.01464,-0.04148,0.02928,-0.03904,-0.08784,-0.09272,-0.10248,-0.10736
-0.0976,0.10492,-0.11224,-0.06344,-0.01464,-0.04148,0.0244,-0.03904,-0.09272,-0.0976,-0.10736,-0.10736
-0.0976,0.10248,-0.10736,-0.05856,-0.00976,-0.04392,0.0244,-0.03904,-0.09272,-0.0976,-0.10736,-0.10736
-0.0976,0.10492,-0.11224,-0.06344,-0.01464,-0.04148,0.0244,-0.03904,-0.08784,-0.0976,-0.10736,-0.10736
-0.0976,0.1098,-0.122,-0.0732,-0.0244,-0.0366,0.0244,-0.03904,-0.08784,-0.09272,-0.10736,-0.10736
-0.09272,0.10736,-0.122,-0.07564,-0.02928,-0.03172,0.01952,-0.03904,-0.08784,-0.09272,-0.11224,-0.11224
-0.09272,0.10736,-0.122,-0.07564,-0.02928,-0.03172,0.01952,-0.03904,-0.08296,-0.09272,-0.11224,-0.11224
-0.0976,0.10492,-0.11224,-0.06344,-0.01464,-0.04148,0.01952,-0.03904,-0.08296,-0.09272,-0.10736,-0.11224
-0.0976,0.10248,-0.10736,-0.05856,-0.00976,-0.04392,0.01952,-0.03904,-0.08784,-0.09272,-0.10736,-0.11224
-0.0976,0.10248,-0.10736,-0.05856,-0.00976,-0.04392,0.01952,-0.04392,-0.08784,-0.09272,-0.10736,-0.11224
-0.0976,0.10248,-0.10736,-0.05856,-0.00976,-0.04392,0.0244,-0.0488,-0.08784,-0.09272,-0.10736,-0.11224
-0.0976,0.10248,-0.10736,-0.05856,-0.00976,-0.04392,0.0244,-0.0488,-0.08296,-0.08784,-0.10248,-0.10736
-0.0976,0.10492,-0.11224,-0.06344,-0.01464,-0.04148,0.0244,-0.0488,-0.08296,-0.08784,-0.10248,-0.10248
-0.0976,0.10736,-0.11712,-0.06832,-0.01952,-0.03904,0.01952,-0.0488,-0.08296,-0.08784,-0.10248,-0.10248
-0.0976,0.1098,-0.122,-0.0732,-0.0244,-0.0366,0.01952,-0.04392,-0.08296,-0.08784,-0.10248,-0.10248
-0.0976,0.10736,-0.11712,-0.06832,-0.01952,-0.03904,0.01952,-0.04392,-0.08296,-0.08784,-0.10736,-0.10248
-0.0976,0.10736,-0.11712,-0.06832,-0.01952,-0.03904,0.01952,-0.04392,-0.08296,-0.08784,-0.10736,-0.10248
-0.0976,0.10736,-0.11712,-0.06832,-0.01952,-0.03904,0.01952,-0.04392,-0.08784,-0.09272,-0.11224,-0.10736
-0.0976,0.10492,-0.11224,-0.06344,-0.01464,-0.04148,0.01464,-0.04392,-0.08784,-0.0976,-0.11712,-0.10736
-0.0976,0.10492,-0.11224,-0.06344,-0.01464,-0.04148,0.01464,-0.04392,-0.08784,-0.0976,-0.11712,-0.11224
-0.0976,0.10736,-0.11712,-0.06832,-0.01952,-0.03904,0.01952,-0.0488,-0.08784,-0.0976,-0.11712,-0.11712
-0.09272,0.10492,-0.11712,-0.07076,-0.0244,-0.03416,0.01952,-0.0488,-0.08784,-0.0976,-0.11712,-0.11712
-0.08784,0.10248,-0.11712,-0.0732,-0.02928,-0.02928,0.01952,-0.0488,-0.08784,-0.0976,-0.11712,-0.11712
-0.08784,0.10248,-0.11712,-0.0732,-0.02928,-0.02928,0.01952,-0.0488,-0.08784,-0.0976,-0.11224,-0.11224
-0.08784,0.10248,-0.11712,-0.0732,-0.02928,-0.02928,0.01952,-0.0488,-0.08784,-0.09272,-0.10736,-0.10736
-0.09272,0.10492,-0.11712,-0.07076,-0.0244,-0.03416,0.01952,-0.0488,-0.08784,-0.09272,-0.10736,-0.10736
-0.08784,0.0976,-0.10736,-0.06344,-0.01952,-0.03416,0.01952,-0.0488,-0.08784,-0.09272,-0.10248,-0.10736
-0.08784,0.09272,-0.0976,-0.05368,-0.00976,-0.03904,0.01952,-0.05368,-0.0732,-0.07808,-0.09272,-0.09272
-0.08784,0.0854,-0.08296,-0.03904,0.00488,-0.04636,0.01952,-0.05368,-0.05856,-0.06344,-0.07808,-0.07808
-0.08296,0.07564,-0.06832,-0.02684,0.01464,-0.0488,0.01952,-0.0488,-0.0488,-0.05856,-0.07808,-0.07808
-0.07808,0.0732,-0.06832,-0.02928,0.00976,-0.04392,0.01464,-0.0488,-0.03904,-0.0488,-0.06832,-0.06832
-0.0732,0.06344,-0.05368,-0.01708,0.01952,-0.04636,0.00976,-0.0488,-0.03416,-0.04392,-0.06344,-0.06344
-0.0732,0.061,-0.0488,-0.0122,0.0244,-0.0488,0.00488,-0.0488,-0.02928,-0.03904,-0.05856,-0.06344
-0.06832,0.05124,-0.03416,0,0.03416,-0.05124,0.00488,-0.0488,-0.01952,-0.03416,-0.05856,-0.05856
-0.06344,0.0488,-0.03416,-0.00244,0.02928,-0.04636,0.00976,-0.0488,-0.01952,-0.03416,-0.05856,-0.05856
-0.05856,0.05124,-0.04392,-0.01464,0.01464,-0.0366,-0.00488,-0.0488,-0.0244,-0.03416,-0.05856,-0.05856
-0.05856,0.05124,-0.04392,-0.01464,0.01464,-0.0366,-0.00976,-0.05856,-0.02928,-0.03416,-0.05856,-0.05856
-0.05856,0.04392,-0.02928,0,0.02928,-0.04392,-0.01952,-0.06344,-0.02928,-0.03416,-0.05368,-0.05368
-0.04392,0.02684,-0.00976,0.0122,0.03416,-0.03904,-0.03416,-0.0732,-0.02928,-0.02928,-0.04392,-0.04392
-0.03416,0.01464,0.00488,0.02196,0.03904,-0.0366,-0.05368,-0.08784,-0.02928,-0.0244,-0.03904,-0.03416
-0.04392,0.01952,0.00488,0.02684,0.0488,-0.04636,-0.05856,-0.0976,-0.03416,-0.0244,-0.03904,-0.03416
-0.0488,0.02196,0.00488,0.02928,0.05368,-0.05124,-0.05856,-0.0976,-0.03416,-0.0244,-0.03416,-0.03416
-0.0488,0.01952,0.00976,0.03416,0.05856,-0.05368,-0.05368,-0.0976,-0.02928,-0.01952,-0.03416,-0.02928
-0.03904,0.00732,0.0244,0.04392,0.06344,-0.05124,-0.05856,-0.0976,-0.02928,-0.01952,-0.03416,-0.02928
-0.02928,0.00732,0.01464,0.02928,0.04392,-0.0366,-0.06344,-0.09272,-0.04392,-0.02928,-0.03416,-0.03416
-0.02928,0.02196,-0.01464,0,0.01464,-0.02196,-0.05368,-0.08784,-0.06344,-0.03904,-0.0488,-0.04392
-0.03416,0.03904,-0.04392,-0.02684,-0.00976,-0.0122,-0.03904,-0.0732,-0.0732,-0.05856,-0.05856,-0.05368
-0.04392,0.05368,-0.06344,-0.04148,-0.01952,-0.0122,-0.02928,-0.06344,-0.08296,-0.06832,-0.0732,-0.06832
-0.05368,0.07076,-0.08784,-0.061,-0.03416,-0.00976,-0.01952,-0.05856,-0.08784,-0.07808,-0.07808,-0.0732
-0.0732,0.09028,-0.10736,-0.07076,-0.03416,-0.01952,-0.00488,-0.05856,-0.08296,-0.08784,-0.0976,-0.08784
-0.08784,0.10248,-0.11712,-0.0732,-0.02928,-0.02928,0.00488,-0.06344,-0.08784,-0.09272,-0.0976,-0.09272
-0.08784,0.10248,-0.11712,-0.0732,-0.02928,-0.02928,0.00488,-0.06344,-0.08784,-0.09272,-0.0976,-0.09272
-0.08784,0.10492,-0.122,-0.07808,-0.03416,-0.02684,0.00976,-0.05856,-0.08784,-0.0976,-0.10248,-0.0976
-0.0976,0.11224,-0.12688,-0.07808,-0.02928,-0.03416,0.00976,-0.05856,-0.10248,-0.0976,-0.10736,-0.10248
-0.0976,0.11956,-0.14152,-0.09272,-0.04392,-0.02684,0.00976,-0.05856,-0.11224,-0.11224,-0.11712,-0.11224
-0.0976,0.122,-0.1464,-0.0976,-0.0488,-0.0244,0.01464,-0.05856,-0.11224,-0.11224,-0.11712,-0.11224
-0.0976,0.12444,-0.15128,-0.10248,-0.05368,-0.02196,0.01952,-0.05856,-0.11224,-0.11224,-0.11712,-0.11224
-0.10248,0.12688,-0.15128,-0.10004,-0.0488,-0.02684,0.01952,-0.05856,-0.11224,-0.11224,-0.11712,-0.11712
-0.10248,0.12688,-0.15128,-0.10004,-0.0488,-0.02684,0.0244,-0.05856,-0.10736,-0.11224,-0.11712,-0.11712
-0.0976,0.12444,-0.15128,-0.10248,-0.05368,-0.02196,0.0244,-0.05368,-0.10736,-0.11224,-0.11712,-0.11712
-0.0976,0.12444,-0.15128,-0.10248,-0.05368,-0.02196,0.0244,-0.05368,-0.10736,-0.11224,-0.11712,-0.11712
-0.10736,0.12932,-0.15128,-0.0976,-0.04392,-0.03172,0.0244,-0.05368,-0.10248,-0.10736,-0.11712,-0.11224
-0.10736,0.12932,-0.15128,-0.0976,-0.04392,-0.03172,0.0244,-0.05368,-0.10248,-0.10736,-0.11712,-0.11224
-0.10736,0.13176,-0.15616,-0.10248,-0.0488,-0.02928,0.0244,-0.05368,-0.0976,-0.10736,-0.11224,-0.11224
-0.10248,0.13176,-0.16104,-0.1098,-0.05856,-0.02196,0.0244,-0.05368,-0.0976,-0.10248,-0.11224,-0.11224
-0.10248,0.12932,-0.15616,-0.10492,-0.05368,-0.0244,0.0244,-0.05368,-0.0976,-0.10248,-0.11224,-0.10248
-0.10248,0.12932,-0.15616,-0.10492,-0.05368,-0.0244,0.0244,-0.0488,-0.08784,-0.0976,-0.10736,-0.0976
-0.0976,0.12444,-0.15128,-0.10248,-0.05368,-0.02196,0.01952,-0.05856,-0.0976,-0.10248,-0.10736,-0.0976
-0.09272,0.122,-0.15128,-0.10492,-0.05856,-0.01708,0.01952,-0.06344,-0.10248,-0.10248,-0.11224,-0.10248
-0.13664,0.14396,-0.15128,-0.08296,-0.01464,-0.061,0.06344,-0.0244,-0.05856,-0.0976,-0.13176,-0.13664
-0.20984,0.16592,-0.122,-0.01708,0.08784,-0.14884,0.1464,0.04392,0.0732,-0.03416,-0.13664,-0.15616
-0.28792,0.16836,-0.0488,0.09516,0.23912,-0.26352,0.20984,0.08296,0.25376,0.08296,-0.10248,-0.15616
-0.28304,0.13908,0.00488,0.1464,0.28792,-0.28548,0.31232,0.23912,0.47336,0.25376,0.03904,-0.06344
-0.12688,0.03416,0.05856,0.122,0.18544,-0.15616,0.46848,0.64904,0.81008,0.50752,0.31232,0.13664
0.0976,-0.13908,0.18056,0.13176,0.08296,0.00732,0.51728,0.94672,1.12728,0.80032,0.64416,0.40016
0.39528,-0.34648,0.29768,0.10004,-0.0976,0.24644,0.33672,0.89792,1.02968,0.93208,0.93208,0.69296
0.69784,-0.58072,0.4636,0.11468,-0.23424,0.46604,0.02928,0.64416,0.77592,1.01016,1.22488,1.0004
1.10776,-0.93452,0.76128,0.2074,-0.34648,0.72712,-0.42944,0.28304,0.5612,1.22488,1.69336,1.464
1.33224,-1.09556,0.85888,0.19276,-0.47336,0.9028,-0.72224,0,0.21472,1.098,1.73728,1.586
1.16632,-0.90524,0.64416,0.061,-0.52216,0.84424,-0.81984,-0.35624,-0.35624,0.45384,1.03944,1.06384
0.83448,-0.64172,0.44896,0.03172,-0.38552,0.61,-0.83448,-0.69296,-0.73688,-0.0488,0.4148,0.55632
0.44408,-0.3782,0.31232,0.09028,-0.13176,0.28792,-0.79056,-0.93696,-0.96136,-0.45384,-0.16104,0.12688
0.1952,-0.17812,0.16104,0.06344,-0.03416,0.11468,-0.71248,-1.01016,-1.06384,-0.67344,-0.44896,-0.122
0.10736,-0.10736,0.10736,0.05368,0,0.05368,-0.5856,-0.84424,-0.88816,-0.59536,-0.3904,-0.12688
0.08784,-0.06344,0.03904,-0.00488,-0.0488,0.06832,-0.4636,-0.64904,-0.71248,-0.49288,-0.32696,-0.12688
0.07808,-0.0366,-0.00488,-0.04392,-0.08296,0.08052,-0.33672,-0.45872,-0.5368,-0.37088,-0.23424,-0.08784
0.01464,0.0122,-0.03904,-0.04636,-0.05368,0.03416,-0.19032,-0.2928,-0.3416,-0.24888,-0.1708,-0.08784
-0.0244,0.04392,-0.06344,-0.05124,-0.03904,0.00732,-0.10736,-0.18544,-0.22448,-0.17568,-0.13664,-0.08296
-0.05368,0.07564,-0.0976,-0.07076,-0.04392,-0.00488,-0.02928,-0.10248,-0.13176,-0.122,-0.11224,-0.08296
-0.05368,0.08296,-0.11224,-0.0854,-0.05856,0.00244,-0.00488,-0.07808,-0.10736,-0.10736,-0.10736,-0.08784
-0.06344,0.09028,-0.11712,-0.0854,-0.05368,-0.00488,0.01464,-0.06344,-0.08784,-0.0976,-0.10736,-0.09272
-0.0732,0.10248,-0.13176,-0.09516,-0.05856,-0.00732,0.0244,-0.0488,-0.0732,-0.08784,-0.10736,-0.0976
-0.0732,0.10736,-0.14152,-0.10492,-0.06832,-0.00244,0.03904,-0.03904,-0.06344,-0.08784,-0.11224,-0.0976
-0.07808,0.1098,-0.14152,-0.10248,-0.06344,-0.00732,0.0488,-0.0244,-0.05368,-0.08296,-0.11224,-0.0976
-0.08784,0.11468,-0.14152,-0.0976,-0.05368,-0.01708,0.0488,-0.00976,-0.04392,-0.0732,-0.10248,-0.0976
-0.08784,0.11468,-0.14152,-0.0976,-0.05368,-0.01708,0.05368,-0.00488,-0.03416,-0.07808,-0.10248,-0.0976
-0.08784,0.11468,-0.14152,-0.0976,-0.05368,-0.01708,0.05856,0,-0.03416,-0.07808,-0.0976,-0.09272
-0.08784,0.11712,-0.1464,-0.10248,-0.05856,-0.01464,0.05856,0.00488,-0.02928,-0.0732,-0.09272,-0.09272
-0.09272,0.11956,-0.1464,-0.10004,-0.05368,-0.01952,0.05856,0.00488,-0.0244,-0.0732,-0.08784,-0.09272
-0.09272,0.11956,-0.1464,-0.10004,-0.05368,-0.01952,0.06344,0.01464,-0.01952,-0.06344,-0.08784,-0.08784
-0.09272,0.11712,-0.14152,-0.09516,-0.0488,-0.02196,0.06832,0.0244,-0.01464,-0.05856,-0.08296,-0.08784
-0.08784,0.11468,-0.14152,-0.0976,-0.05368,-0.01708,0.06832,0.02928,-0.00976,-0.05856,-0.08296,-0.08784
-0.08296,0.11468,-0.1464,-0.10492,-0.06344,-0.00976,0.06832,0.02928,-0.00976,-0.0488,-0.07808,-0.08784
-0.08296,0.11468,-0.1464,-0.10492,-0.06344,-0.00976,0.06832,0.03416,-0.00488,-0.0488,-0.0732,-0.08784
-0.07808,0.1098,-0.14152,-0.10248,-0.06344,-0.00732,0.0732,0.03904,0,-0.04392,-0.0732,-0.08296
-0.0732,0.10736,-0.14152,-0.10492,-0.06832,-0.00244,0.0732,0.04392,0.00488,-0.04392,-0.06832,-0.08296
-0.0732,0.10492,-0.13664,-0.10004,-0.06344,-0.00488,0.0732,0.04392,0.00976,-0.04392,-0.06832,-0.08296
-0.0732,0.10248,-0.13176,-0.09516,-0.05856,-0.00732,0.0732,0.0488,0.00976,-0.03904,-0.0732,-0.07808
-0.0732,0.10248,-0.13176,-0.09516,-0.05856,-0.00732,0.0732,0.0488,0.01464,-0.03416,-0.0732,-0.07808
-0.0732,0.10248,-0.13176,-0.09516,-0.05856,-0.00732,0.0732,0.05368,0.01952,-0.02928,-0.06832,-0.07808
-0.06832,0.10004,-0.13176,-0.0976,-0.06344,-0.00244,0.0732,0.05856,0.02928,-0.02928,-0.06832,-0.0732
-0.06344,0.09516,-0.12688,-0.09516,-0.06344,0,0.07808,0.06344,0.03416,-0.0244,-0.05856,-0.06832
-0.06344,0.09272,-0.122,-0.09028,-0.05856,-0.00244,0.07808,0.06344,0.03904,-0.01952,-0.0488,-0.06832
-0.06344,0.09272,-0.122,-0.09028,-0.05856,-0.00244,0.07808,0.06344,0.04392,-0.01464,-0.04392,-0.06344
-0.05856,0.0854,-0.11224,-0.08296,-0.05368,-0.00244,0.0732,0.05856,0.04392,-0.00976,-0.03904,-0.05856
-0.05368,0.08052,-0.10736,-0.08052,-0.05368,0,0.0732,0.06832,0.05368,-0.01464,-0.03904,-0.05856
-0.05368,0.07808,-0.10248,-0.07564,-0.0488,-0.00244,0.0732,0.0732,0.06344,-0.00976,-0.02928,-0.05368
-0.04392,0.07076,-0.0976,-0.07564,-0.05368,0.00488,0.0732,0.08296,0.06344,-0.00488,-0.02928,-0.05368
-0.03904,0.06832,-0.0976,-0.07808,-0.05856,0.00976,0.0732,0.09272,0.0732,0,-0.01952,-0.04392
-0.03416,0.06588,-0.0976,-0.08052,-0.06344,0.01464,0.0732,0.10248,0.08296,0.00488,-0.00976,-0.03904
-0.02928,0.05856,-0.08784,-0.0732,-0.05856,0.01464,0.0732,0.11224,0.09272,0.01464,0,-0.02928
-0.0244,0.05612,-0.08784,-0.07564,-0.06344,0.01952,0.0732,0.11712,0.10248,0.02928,0.00976,-0.0244
-0.00976,0.04392,-0.07808,-0.0732,-0.06832,0.02928,0.0732,0.122,0.11712,0.04392,0.01952,-0.01464
0,0.0366,-0.0732,-0.0732,-0.0732,0.0366,0.06832,0.13176,0.12688,0.05856,0.03416,0
0.00488,0.02684,-0.05856,-0.061,-0.06344,0.03416,0.06832,0.14152,0.13664,0.06832,0.04392,0.00976
0.00976,0.01952,-0.0488,-0.05368,-0.05856,0.03416,0.06832,0.15128,0.1464,0.0732,0.05856,0.01952
0.0244,0.00488,-0.03416,-0.04636,-0.05856,0.04148,0.06832,0.16104,0.16592,0.09272,0.0732,0.0244
0.02928,0,-0.02928,-0.04392,-0.05856,0.04392,0.06344,0.1708,0.18544,0.11224,0.08296,0.04392
0.04392,-0.01464,-0.01464,-0.0366,-0.05856,0.05124,0.06344,0.18056,0.1952,0.122,0.09272,0.05368
0.05368,-0.02684,0,-0.02684,-0.05368,0.05368,0.05368,0.19032,0.20496,0.12688,0.11224,0.0732
0.0732,-0.04392,0.01464,-0.02196,-0.05856,0.06588,0.04392,0.1952,0.22448,0.1464,0.13176,0.08784
0.09272,-0.061,0.02928,-0.01708,-0.06344,0.07808,0.03904,0.20496,0.23424,0.16592,0.15616,0.10736
0.10248,-0.0732,0.04392,-0.00732,-0.05856,0.08052,0.03416,0.21472,0.25376,0.18056,0.17568,0.12688
0.122,-0.09028,0.05856,-0.00244,-0.06344,0.09272,0.0244,0.22448,0.26352,0.20008,0.1952,0.1464
0.14152,-0.10736,0.0732,0.00244,-0.06832,0.10492,0.01952,0.22448,0.27328,0.21472,0.21472,0.16592
0.15616,-0.122,0.08784,0.00976,-0.06832,0.11224,0.01464,0.22936,0.28304,0.23424,0.23912,0.19032
0.16592,-0.13176,0.0976,0.01464,-0.06832,0.11712,0,0.23424,0.28792,0.24888,0.24888,0.20984
0.17568,-0.14396,0.11224,0.0244,-0.06344,0.11956,0.00488,0.23424,0.29768,0.25376,0.2684,0.2196
0.18544,-0.15128,0.11712,0.0244,-0.06832,0.12688,0,0.23424,0.29768,0.26352,0.27816,0.23424
0.19032,-0.1586,0.12688,0.03172,-0.06344,0.12688,-0.00488,0.23424,0.30256,0.27328,0.28792,0.244
0.20008,-0.16836,0.13664,0.0366,-0.06344,0.13176,-0.00976,0.23424,0.31232,0.28304,0.29768,0.25864
0.20496,-0.17324,0.14152,0.03904,-0.06344,0.1342,-0.0244,0.22936,0.31232,0.28792,0.30744,0.2684
0.20496,-0.17324,0.14152,0.03904,-0.06344,0.1342,-0.02928,0.22448,0.31232,0.28792,0.31232,0.27328
0.20984,-0.17812,0.1464,0.04148,-0.06344,0.13664,-0.02928,0.2196,0.3172,0.2928,0.32208,0.27328
0.20984,-0.17812,0.1464,0.04148,-0.06344,0.13664,-0.03416,0.20496,0.3172,0.29768,0.32696,0.27816
0.20008,-0.17568,0.15128,0.05124,-0.0488,0.12444,-0.03904,0.1952,0.31232,0.2928,0.32208,0.27816
0.1952,-0.17324,0.15128,0.05368,-0.04392,0.11956,-0.03904,0.17568,0.29768,0.28792,0.32208,0.2684
0.18544,-0.16592,0.1464,0.05368,-0.03904,0.11224,-0.03904,0.16104,0.28792,0.28304,0.29768,0.25864
0.16592,-0.15372,0.14152,0.05856,-0.0244,0.09516,-0.03904,0.14152,0.2684,0.26352,0.27816,0.24888
0.15128,-0.14152,0.13176,0.05612,-0.01952,0.0854,-0.03904,0.122,0.25376,0.24888,0.2684,0.23424
0.13176,-0.122,0.11224,0.04636,-0.01952,0.07564,-0.03904,0.0976,0.22936,0.22448,0.24888,0.21472
0.11224,-0.10492,0.0976,0.04148,-0.01464,0.06344,-0.03904,0.07808,0.20496,0.20496,0.2196,0.18544
0.09272,-0.08784,0.08296,0.0366,-0.00976,0.05124,-0.04392,0.05368,0.18544,0.17568,0.1952,0.16592
0.06344,-0.061,0.05856,0.02684,-0.00488,0.03416,-0.02928,0.03904,0.16104,0.16104,0.1708,0.1464
0.0488,-0.04148,0.03416,0.00976,-0.01464,0.03172,-0.0244,0.02928,0.13664,0.14152,0.14152,0.10736
0.02928,-0.0244,0.01952,0.00488,-0.00976,0.01952,-0.0244,0.00976,0.10736,0.11224,0.11224,0.07808
0.00488,-0.00488,0.00488,0.00244,0,0.00244,-0.0244,0,0.09272,0.08296,0.07808,0.05856
-0.00976,0.0122,-0.01464,-0.00976,-0.00488,-0.00244,-0.01464,-0.00488,0.0732,0.06832,0.06344,0.04392
-0.0244,0.02928,-0.03416,-0.02196,-0.00976,-0.00732,-0.00976,-0.00976,0.0488,0.0488,0.03416,0.01952
-0.03904,0.04392,-0.0488,-0.02928,-0.00976,-0.01464,0,-0.00976,0.02928,0.0244,0.01952,0.00976
-0.05368,0.05368,-0.05368,-0.02684,0,-0.02684,0.00488,-0.01952,0.01464,0.00488,0.00488,-0.00488
-0.06344,0.06344,-0.06344,-0.03172,0,-0.03172,0.00976,-0.0244,-0.00488,0,-0.00488,-0.01464
-0.06344,0.06588,-0.06832,-0.0366,-0.00488,-0.02928,0.00976,-0.0244,-0.00488,-0.01464,-0.01952,-0.02928
-0.06344,0.07564,-0.08784,-0.05612,-0.0244,-0.01952,0.01464,-0.0244,-0.01464,-0.01952,-0.0244,-0.03416
-0.06344,0.08296,-0.10248,-0.07076,-0.03904,-0.0122,0.01952,-0.0244,-0.01952,-0.02928,-0.03416,-0.04392
-0.0732,0.09272,-0.11224,-0.07564,-0.03904,-0.01708,0.01464,-0.0244,-0.01952,-0.03904,-0.04392,-0.0488
-0.0732,0.09272,-0.11224,-0.07564,-0.03904,-0.01708,0.01464,-0.0244,-0.0244,-0.03904,-0.0488,-0.0488
-0.0732,0.09272,-0.11224,-0.07564,-0.03904,-0.01708,0.01464,-0.0244,-0.02928,-0.0488,-0.05368,-0.0488
-0.0732,0.09516,-0.11712,-0.08052,-0.04392,-0.01464,0.01464,-0.0244,-0.02928,-0.05368,-0.05856,-0.05368
-0.0732,0.09516,-0.11712,-0.08052,-0.04392,-0.01464,0.01952,-0.02928,-0.03904,-0.05368,-0.06344,-0.05856
-0.08296,0.10004,-0.11712,-0.07564,-0.03416,-0.0244,0.0244,-0.02928,-0.04392,-0.05368,-0.06832,-0.06344
-0.07808,0.0976,-0.11712,-0.07808,-0.03904,-0.01952,0.0244,-0.02928,-0.04392,-0.05856,-0.06832,-0.06344
-0.06344,0.09028,-0.11712,-0.0854,-0.05368,-0.00488,0.0244,-0.03416,-0.04392,-0.05856,-0.07808,-0.06832
-0.0732,0.09516,-0.11712,-0.08052,-0.04392,-0.01464,0.01952,-0.03416,-0.04392,-0.05856,-0.0732,-0.06832
-0.0732,0.09516,-0.11712,-0.08052,-0.04392,-0.01464,0.01952,-0.03416,-0.04392,-0.05856,-0.06832,-0.06832
-0.07808,0.10004,-0.122,-0.08296,-0.04392,-0.01708,0.01952,-0.02928,-0.03416,-0.06344,-0.06832,-0.06832
-0.08296,0.10248,-0.122,-0.08052,-0.03904,-0.02196,0.01952,-0.02928,-0.02928,-0.06344,-0.0732,-0.06344
-0.08296,0.10248,-0.122,-0.08052,-0.03904,-0.02196,0.01952,-0.0244,-0.02928,-0.05856,-0.0732,-0.06832
-0.08784,0.10492,-0.122,-0.07808,-0.03416,-0.02684,0.01952,-0.0244,-0.02928,-0.05856,-0.06832,-0.06832
-0.08784,0.10492,-0.122,-0.07808,-0.03416,-0.02684,0.01952,-0.0244,-0.0244,-0.05368,-0.06832,-0.06832
-0.08296,0.10248,-0.122,-0.08052,-0.03904,-0.02196,0.01952,-0.0244,-0.0244,-0.0488,-0.06344,-0.06832
-0.08296,0.10248,-0.122,-0.08052,-0.03904,-0.02196,0.01952,-0.0244,-0.01952,-0.04392,-0.06344,-0.06832
-0.08784,0.10492,-0.122,-0.07808,-0.03416,-0.02684,0.01952,-0.0244,-0.01952,-0.04392,-0.06344,-0.06832
-0.08784,0.10492,-0.122,-0.07808,-0.03416,-0.02684,0.01952,-0.0244,-0.01952,-0.04392,-0.06832,-0.06832
-0.08784,0.10492,-0.122,-0.07808,-0.03416,-0.02684,0.01952,-0.01952,-0.0244,-0.03416,-0.06344,-0.06344
-0.08784,0.10004,-0.11224,-0.06832,-0.0244,-0.03172,0.01952,-0.01952,-0.0244,-0.03416,-0.06344,-0.05856
-0.09272,0.10248,-0.11224,-0.06588,-0.01952,-0.0366,0.01952,-0.01952,-0.0244,-0.03904,-0.06344,-0.05856
-0.09272,0.10248,-0.11224,-0.06588,-0.01952,-0.0366,0.01952,-0.01952,-0.0244,-0.03904,-0.06344,-0.06344
-0.09272,0.10248,-0.11224,-0.06588,-0.01952,-0.0366,0.01464,-0.01952,-0.0244,-0.03416,-0.05856,-0.06344
-0.09272,0.10248,-0.11224,-0.06588,-0.01952,-0.0366,0.01464,-0.01952,-0.01952,-0.03416,-0.05856,-0.05856
-0.0976,0.10492,-0.11224,-0.06344,-0.01464,-0.04148,0.01952,-0.01952,-0.01464,-0.03416,-0.05856,-0.05856
-0.0976,0.10492,-0.11224,-0.06344,-0.01464,-0.04148,0.01952,-0.0244,-0.01464,-0.03416,-0.05856,-0.05368
-0.0976,0.10492,-0.11224,-0.06344,-0.01464,-0.04148,0.01464,-0.02928,-0.01952,-0.03904,-0.05856,-0.05368
-0.08784,0.0976,-0.10736,-0.06344,-0.01952,-0.03416,0.01464,-0.03416,-0.01952,-0.03904,-0.05856,-0.05368
-0.08784,0.0976,-0.10736,-0.06344,-0.01952,-0.03416,0.01464,-0.03416,-0.01952,-0.03904,-0.05856,-0.05856
-0.08296,0.09272,-0.10248,-0.061,-0.01952,-0.03172,0.00976,-0.02928,-0.01952,-0.03904,-0.05856,-0.05856
-0.07808,0.09028,-0.10248,-0.06344,-0.0244,-0.02684,0.00976,-0.0244,-0.0244,-0.03904,-0.05856,-0.05368
-0.07808,0.09272,-0.10736,-0.06832,-0.02928,-0.0244,0.01464,-0.0244,-0.0244,-0.03904,-0.05856,-0.05368
-0.08296,0.09516,-0.10736,-0.06588,-0.0244,-0.02928,0.01464,-0.0244,-0.0244,-0.03904,-0.05856,-0.05368
-0.08296,0.09272,-0.10248,-0.061,-0.01952,-0.03172,0.01464,-0.02928,-0.02928,-0.03904,-0.0488,-0.05368
-0.08296,0.09272,-0.10248,-0.061,-0.01952,-0.03172,0.01464,-0.03416,-0.04392,-0.03904,-0.05856,-0.05368
-0.08296,0.09516,-0.10736,-0.06588,-0.0244,-0.02928,0.01464,-0.03904,-0.04392,-0.04392,-0.05856,-0.05856
-0.08296,0.0976,-0.11224,-0.07076,-0.02928,-0.02684,0.01464,-0.03904,-0.04392,-0.04392,-0.05856,-0.06344
-0.08296,0.0976,-0.11224,-0.07076,-0.02928,-0.02684,0.01464,-0.03904,-0.04392,-0.04392,-0.05856,-0.06344
-0.08296,0.0976,-0.11224,-0.07076,-0.02928,-0.02684,0.00976,-0.03904,-0.04392,-0.0488,-0.06344,-0.06344
-0.08296,0.10004,-0.11712,-0.07564,-0.03416,-0.0244,0.00976,-0.03904,-0.04392,-0.05368,-0.06344,-0.06344
-0.08296,0.10248,-0.122,-0.08052,-0.03904,-0.02196,0.00976,-0.03904,-0.03904,-0.05368,-0.06344,-0.05856
-0.08296,0.10248,-0.122,-0.08052,-0.03904,-0.02196,0.00976,-0.03904,-0.04392,-0.0488,-0.05856,-0.05856
-0.08296,0.10248,-0.122,-0.08052,-0.03904,-0.02196,0.01464,-0.03904,-0.04392,-0.0488,-0.05368,-0.05856
-0.08296,0.10248,-0.122,-0.08052,-0.03904,-0.02196,0.01464,-0.03904,-0.0488,-0.05856,-0.06344,-0.06344
-0.08296,0.10248,-0.122,-0.08052,-0.03904,-0.02196,0.01464,-0.03416,-0.0488,-0.05856,-0.06344,-0.06344
-0.08296,0.10248,-0.122,-0.08052,-0.03904,-0.02196,0.01464,-0.03416,-0.0488,-0.05856,-0.06832,-0.06344
-0.08296,0.10492,-0.12688,-0.0854,-0.04392,-0.01952,0.00976,-0.03416,-0.0488,-0.05856,-0.06832,-0.06344
-0.08296,0.10492,-0.12688,-0.0854,-0.04392,-0.01952,0.00976,-0.03904,-0.0488,-0.05368,-0.06832,-0.06344
-0.08296,0.10492,-0.12688,-0.0854,-0.04392,-0.01952,0.00976,-0.04392,-0.0488,-0.05368,-0.0732,-0.06344
-0.08784,0.10736,-0.12688,-0.08296,-0.03904,-0.0244,0.00976,-0.04392,-0.05368,-0.05856,-0.0732,-0.06832
-0.08784,0.10492,-0.122,-0.07808,-0.03416,-0.02684,0.00976,-0.0488,-0.05368,-0.06344,-0.0732,-0.06832
-0.08784,0.10492,-0.122,-0.07808,-0.03416,-0.02684,0.00488,-0.0488,-0.05856,-0.06344,-0.07808,-0.06832
-0.08784,0.10736,-0.12688,-0.08296,-0.03904,-0.0244,0,-0.0488,-0.06344,-0.06344,-0.08296,-0.0732
-0.08784,0.10736,-0.12688,-0.08296,-0.03904,-0.0244,0,-0.0488,-0.06344,-0.05368,-0.07808,-0.0732
-0.08784,0.10492,-0.122,-0.07808,-0.03416,-0.02684,0,-0.0488,-0.06344,-0.06344,-0.07808,-0.0732
-0.08784,0.10248,-0.11712,-0.0732,-0.02928,-0.02928,0,-0.0488,-0.06832,-0.06344,-0.08296,-0.07808
-0.08784,0.10248,-0.11712,-0.0732,-0.02928,-0.02928,0,-0.0488,-0.06832,-0.06344,-0.08296,-0.07808
-0.08784,0.10248,-0.11712,-0.0732,-0.02928,-0.02928,0,-0.0488,-0.06832,-0.06344,-0.07808,-0.07808
-0.08784,0.10248,-0.11712,-0.0732,-0.02928,-0.02928,0,-0.0488,-0.06832,-0.06344,-0.0732,-0.07808
-0.09272,0.10736,-0.122,-0.07564,-0.02928,-0.03172,0,-0.0488,-0.06832,-0.06344,-0.0732,-0.07808
-0.0976,0.1098,-0.122,-0.0732,-0.0244,-0.0366,-0.00488,-0.0488,-0.0732,-0.06832,-0.07808,-0.07808
-0.0976,0.1098,-0.122,-0.0732,-0.0244,-0.0366,-0.00488,-0.0488,-0.0732,-0.0732,-0.07808,-0.0732
-0.0976,0.1098,-0.122,-0.0732,-0.0244,-0.0366,-0.00488,-0.0488,-0.06832,-0.07808,-0.07808,-0.06832
-0.09272,0.10736,-0.122,-0.07564,-0.02928,-0.03172,-0.00488,-0.0488,-0.06832,-0.0732,-0.07808,-0.06832
-0.08296,0.10248,-0.122,-0.08052,-0.03904,-0.02196,-0.00488,-0.0488,-0.06832,-0.0732,-0.08296,-0.0732
-0.08296,0.10004,-0.11712,-0.07564,-0.03416,-0.0244,0,-0.0488,-0.06344,-0.0732,-0.08296,-0.07808
-0.08784,0.10004,-0.11224,-0.06832,-0.0244,-0.03172,0,-0.0488,-0.06344,-0.0732,-0.07808,-0.08296
-0.08784,0.10248,-0.11712,-0.0732,-0.02928,-0.02928,-0.00488,-0.0488,-0.06832,-0.0732,-0.07808,-0.08296
-0.08784,0.10248,-0.11712,-0.0732,-0.02928,-0.02928,-0.00976,-0.0488,-0.06832,-0.0732,-0.07808,-0.08296
-0.08784,0.10248,-0.11712,-0.0732,-0.02928,-0.02928,-0.00488,-0.0488,-0.06832,-0.0732,-0.07808,-0.08296
-0.08784,0.10248,-0.11712,-0.0732,-0.02928,-0.02928,-0.00488,-0.0488,-0.06832,-0.0732,-0.07808,-0.08296
-0.08784,0.10492,-0.122,-0.07808,-0.03416,-0.02684,-0.00488,-0.0488,-0.0732,-0.07808,-0.08296,-0.08296
-0.08784,0.10492,-0.122,-0.07808,-0.03416,-0.02684,-0.00976,-0.05368,-0.0732,-0.07808,-0.08296,-0.08296
-0.08784,0.10492,-0.122,-0.07808,-0.03416,-0.02684,-0.00488,-0.05368,-0.0732,-0.0732,-0.08296,-0.08296
-0.08784,0.10248,-0.11712,-0.0732,-0.02928,-0.02928,0,-0.05368,-0.0732,-0.06832,-0.08296,-0.08296
-0.08784,0.10248,-0.11712,-0.0732,-0.02928,-0.02928,0,-0.05368,-0.0732,-0.06832,-0.08296,-0.08296
-0.08784,0.10248,-0.11712,-0.0732,-0.02928,-0.02928,0,-0.05368,-0.0732,-0.06832,-0.08784,-0.08296
-0.08784,0.10248,-0.11712,-0.0732,-0.02928,-0.02928,-0.00488,-0.05368,-0.06832,-0.06832,-0.09272,-0.07808
-0.08784,0.10492,-0.122,-0.07808,-0.03416,-0.02684,-0.00488,-0.05368,-0.06832,-0.06832,-0.0976,-0.07808
-0.08296,0.10248,-0.122,-0.08052,-0.03904,-0.02196,-0.00976,-0.05368,-0.06832,-0.06344,-0.0976,-0.07808
-0.08296,0.0976,-0.11224,-0.07076,-0.02928,-0.02684,-0.00976,-0.05368,-0.06832,-0.06344,-0.09272,-0.0732
-0.08784,0.10004,-0.11224,-0.06832,-0.0244,-0.03172,-0.00976,-0.0488,-0.06832,-0.06344,-0.08784,-0.0732
-0.09272,0.10248,-0.11224,-0.06588,-0.01952,-0.0366,-0.00976,-0.0488,-0.06832,-0.06344,-0.08296,-0.07808
-0.08784,0.10004,-0.11224,-0.06832,-0.0244,-0.03172,-0.00976,-0.0488,-0.0732,-0.06832,-0.08296,-0.08296
-0.08784,0.10248,-0.11712,-0.0732,-0.02928,-0.02928,-0.00976,-0.0488,-0.07808,-0.07808,-0.08784,-0.08784
-0.08784,0.10248,-0.11712,-0.0732,-0.02928,-0.02928,-0.00976,-0.0488,-0.07808,-0.07808,-0.09272,-0.08784
-0.08784,0.10248,-0.11712,-0.0732,-0.02928,-0.02928,-0.00976,-0.0488,-0.07808,-0.07808,-0.0976,-0.08784
-0.09272,0.10492,-0.11712,-0.07076,-0.0244,-0.03416,-0.00976,-0.0488,-0.0732,-0.07808,-0.0976,-0.08784
-0.08784,0.10248,-0.11712,-0.0732,-0.02928,-0.02928,-0.00488,-0.0488,-0.06832,-0.0732,-0.08784,-0.08784
-0.08784,0.10248,-0.11712,-0.0732,-0.02928,-0.02928,-0.00488,-0.0488,-0.06832,-0.0732,-0.08296,-0.08784
-0.08784,0.10004,-0.11224,-0.06832,-0.0244,-0.03172,0,-0.05368,-0.05856,-0.06344,-0.06832,-0.07808
-0.08784,0.09028,-0.09272,-0.0488,-0.00488,-0.04148,0,-0.05368,-0.0488,-0.05368,-0.05856,-0.06344
-0.08296,0.08052,-0.07808,-0.0366,0.00488,-0.04392,0,-0.0488,-0.03904,-0.0488,-0.05856,-0.05856
-0.07808,0.0732,-0.06832,-0.02928,0.00976,-0.04392,-0.00488,-0.0488,-0.02928,-0.03416,-0.0488,-0.0488
-0.0732,0.05856,-0.04392,-0.00732,0.02928,-0.05124,-0.00976,-0.0488,-0.0244,-0.0244,-0.04392,-0.04392
-0.0732,0.05612,-0.03904,-0.00244,0.03416,-0.05368,-0.01464,-0.0488,-0.01952,-0.01952,-0.03904,-0.04392
-0.06832,0.04636,-0.0244,0.00976,0.04392,-0.05612,-0.01952,-0.0488,-0.00976,-0.01464,-0.03904,-0.03904
-0.06344,0.04392,-0.0244,0.00732,0.03904,-0.05124,-0.01952,-0.0488,-0.00976,-0.01464,-0.03904,-0.03904
-0.05856,0.04636,-0.03416,-0.00488,0.0244,-0.04148,-0.03416,-0.05368,-0.01464,-0.01464,-0.03904,-0.03904
-0.05368,0.04392,-0.03416,-0.00732,0.01952,-0.0366,-0.03904,-0.06832,-0.01952,-0.01464,-0.04392,-0.03904
-0.0488,0.03416,-0.01952,0.00488,0.02928,-0.03904,-0.0488,-0.0732,-0.01952,-0.01464,-0.04392,-0.03416
-0.03416,0.01708,0,0.01708,0.03416,-0.03416,-0.06832,-0.08296,-0.01952,-0.00976,-0.03416,-0.0244
-0.0244,0.00488,0.01464,0.02684,0.03904,-0.03172,-0.08784,-0.09272,-0.01952,-0.00488,-0.02928,-0.01464
-0.03416,0.00976,0.01464,0.03172,0.0488,-0.04148,-0.08784,-0.0976,-0.0244,-0.00488,-0.02928,-0.01464
-0.03904,0.0122,0.01464,0.03416,0.05368,-0.04636,-0.08784,-0.0976,-0.0244,-0.00488,-0.0244,-0.01464
-0.03904,0.00976,0.01952,0.03904,0.05856,-0.0488,-0.08296,-0.0976,-0.01952,0,-0.0244,-0.00976
-0.02928,0,0.02928,0.04392,0.05856,-0.04392,-0.08296,-0.0976,-0.01952,0,-0.0244,-0.00976
-0.01952,0.00244,0.01464,0.0244,0.03416,-0.02684,-0.08296,-0.09272,-0.03416,-0.00976,-0.0244,-0.01464
-0.01952,0.01708,-0.01464,-0.00488,0.00488,-0.0122,-0.0732,-0.08784,-0.05368,-0.01952,-0.03904,-0.0244
-0.0244,0.03416,-0.04392,-0.03172,-0.01952,-0.00244,-0.05368,-0.0732,-0.06344,-0.03904,-0.0488,-0.03416
-0.03416,0.0488,-0.06344,-0.04636,-0.02928,-0.00244,-0.03904,-0.06344,-0.0732,-0.0488,-0.06344,-0.0488
-0.04392,0.06588,-0.08784,-0.06588,-0.04392,0,-0.02928,-0.05856,-0.07808,-0.05856,-0.06344,-0.05368
-0.06344,0.08296,-0.10248,-0.07076,-0.03904,-0.0122,-0.01952,-0.05856,-0.07808,-0.06832,-0.07808,-0.06832
-0.08296,0.0976,-0.11224,-0.07076,-0.02928,-0.02684,-0.01464,-0.06344,-0.08784,-0.0732,-0.07808,-0.0732
-0.08784,0.10248,-0.11712,-0.0732,-0.02928,-0.02928,-0.01464,-0.06344,-0.08784,-0.0732,-0.07808,-0.0732
-0.08784,0.10492,-0.122,-0.07808,-0.03416,-0.02684,-0.00976,-0.05856,-0.08296,-0.07808,-0.08784,-0.07808
-0.0976,0.11224,-0.12688,-0.07808,-0.02928,-0.03416,-0.00976,-0.05856,-0.08784,-0.07808,-0.0976,-0.08296
-0.0976,0.11956,-0.14152,-0.09272,-0.04392,-0.02684,-0.01464,-0.05856,-0.09272,-0.09272,-0.10736,-0.09272
-0.0976,0.122,-0.1464,-0.0976,-0.0488,-0.0244,-0.01464,-0.05856,-0.09272,-0.09272,-0.10736,-0.09272
-0.0976,0.122,-0.1464,-0.0976,-0.0488,-0.0244,-0.00976,-0.05856,-0.09272,-0.09272,-0.10736,-0.09272
-0.10248,0.122,-0.14152,-0.09028,-0.03904,-0.03172,-0.00976,-0.05856,-0.09272,-0.09272,-0.10736,-0.0976
-0.10248,0.122,-0.14152,-0.09028,-0.03904,-0.03172,0,-0.05856,-0.09272,-0.09272,-0.10736,-0.0976
-0.0976,0.11956,-0.14152,-0.09272,-0.04392,-0.02684,0.00488,-0.05368,-0.0976,-0.09272,-0.10736,-0.0976
-0.0976,0.11956,-0.14152,-0.09272,-0.04392,-0.02684,0.00488,-0.05368,-0.0976,-0.09272,-0.10736,-0.0976
-0.10736,0.12444,-0.14152,-0.08784,-0.03416,-0.0366,0.00488,-0.05368,-0.09272,-0.08784,-0.10736,-0.09272
-0.10736,0.12444,-0.14152,-0.08784,-0.03416,-0.0366,0.00488,-0.05368,-0.09272,-0.08784,-0.10736,-0.09272
-0.10736,0.12444,-0.14152,-0.08784,-0.03416,-0.0366,0.00488,-0.05368,-0.08784,-0.08784,-0.10248,-0.09272
-0.10248,0.122,-0.14152,-0.09028,-0.03904,-0.03172,0.00488,-0.05368,-0.08296,-0.08296,-0.0976,-0.09272
-0.10248,0.11956,-0.13664,-0.0854,-0.03416,-0.03416,0.00488,-0.05368,-0.07808,-0.08296,-0.09272,-0.08784
-0.0976,0.11712,-0.13664,-0.08784,-0.03904,-0.02928,0,-0.0488,-0.06832,-0.07808,-0.08784,-0.08784
-0.09272,0.11224,-0.13176,-0.0854,-0.03904,-0.02684,-0.00488,-0.0488,-0.06832,-0.07808,-0.08784,-0.08784
-0.08296,0.1098,-0.13664,-0.09516,-0.05368,-0.01464,-0.01464,-0.05856,-0.10248,-0.08784,-0.09272,-0.08296
-0.11712,0.12932,-0.14152,-0.08296,-0.0244,-0.04636,0.01952,-0.02928,-0.0732,-0.08296,-0.10736,-0.10248
-0.20984,0.16592,-0.122,-0.01708,0.08784,-0.14884,0.10736,0.01952,0.05368,-0.03416,-0.14152,-0.14152
-0.27328,0.16592,-0.05856,0.07808,0.21472,-0.244,0.1708,0.06832,0.21472,0.0732,-0.10248,-0.13664
-0.2928,0.15616,-0.01952,0.12688,0.27328,-0.28304,0.28792,0.23912,0.42944,0.23912,0.0244,-0.06832
-0.17568,0.07076,0.03416,0.122,0.20984,-0.19276,0.40992,0.5612,0.70272,0.45872,0.24888,0.0976
0.05368,-0.10248,0.15128,0.12444,0.0976,-0.02196,0.50752,0.94184,1.11264,0.77592,0.57584,0.35136
0.33672,-0.305,0.27328,0.10492,-0.06344,0.20008,0.39528,0.99552,1.11752,0.93208,0.86864,0.62952
0.67832,-0.57828,0.47824,0.13908,-0.20008,0.4392,0.0488,0.70272,0.85888,1.05408,1.23952,1.00528
1.02968,-0.88084,0.732,0.21716,-0.29768,0.66368,-0.36112,0.35136,0.6344,1.20536,1.61528,1.3908
1.32736,-1.09068,0.854,0.19032,-0.47336,0.90036,-0.67832,0.06832,0.25864,1.0736,1.70312,1.55672
1.27856,-1.0004,0.72224,0.08296,-0.55632,0.91744,-0.82472,-0.26352,-0.24888,0.58072,1.20536,1.21024
0.84424,-0.67588,0.50752,0.0854,-0.33672,0.59048,-0.8296,-0.66856,-0.66368,0.03416,0.47824,0.62952
0.46848,-0.41724,0.366,0.13176,-0.10248,0.28548,-0.8052,-0.93208,-0.90768,-0.38552,-0.10736,0.18544
0.22448,-0.2196,0.21472,0.10248,-0.00976,0.11712,-0.73688,-1.01016,-1.02968,-0.61488,-0.39528,-0.06344
0.09272,-0.11956,0.1464,0.10004,0.05368,0.01952,-0.62464,-0.92232,-0.93696,-0.61,-0.42944,-0.122
0.08784,-0.08296,0.07808,0.03416,-0.00976,0.0488,-0.50264,-0.7076,-0.75152,-0.50264,-0.35624,-0.11712
0.08784,-0.061,0.03416,-0.00976,-0.05368,0.07076,-0.38552,-0.50752,-0.57096,-0.38064,-0.25376,-0.07808
0.0244,-0.0122,0,-0.0122,-0.0244,0.0244,-0.22936,-0.32696,-0.35624,-0.23912,-0.17568,-0.0732
-0.01464,0.01952,-0.0244,-0.01708,-0.00976,-0.00244,-0.14152,-0.20984,-0.23424,-0.16104,-0.13176,-0.06344
-0.03904,0.05124,-0.06344,-0.04392,-0.0244,-0.00732,-0.06832,-0.12688,-0.1464,-0.11224,-0.11224,-0.06344
-0.04392,0.06344,-0.08296,-0.061,-0.03904,-0.00244,-0.03904,-0.08784,-0.11224,-0.09272,-0.10736,-0.06832
-0.06344,0.07808,-0.09272,-0.061,-0.02928,-0.01708,-0.01952,-0.06344,-0.09272,-0.08296,-0.10248,-0.0732
-0.08296,0.09516,-0.10736,-0.06588,-0.0244,-0.02928,-0.00488,-0.03904,-0.0732,-0.06832,-0.09272,-0.07808
-0.08296,0.10004,-0.11712,-0.07564,-0.03416,-0.0244,0.01464,-0.02928,-0.06344,-0.06832,-0.09272,-0.07808
-0.08296,0.10248,-0.122,-0.08052,-0.03904,-0.02196,0.02928,-0.01952,-0.05368,-0.06344,-0.09272,-0.07808
-0.08784,0.10736,-0.12688,-0.08296,-0.03904,-0.0244,0.02928,-0.00976,-0.04392,-0.05856,-0.08784,-0.07808
-0.08784,0.1098,-0.13176,-0.08784,-0.04392,-0.02196,0.03416,-0.00488,-0.03416,-0.06344,-0.09272,-0.07808
-0.08784,0.1098,-0.13176,-0.08784,-0.04392,-0.02196,0.03904,0,-0.03416,-0.05856,-0.08784,-0.0732
-0.08296,0.1098,-0.13664,-0.09516,-0.05368,-0.01464,0.03904,0.00488,-0.02928,-0.05368,-0.08784,-0.0732
-0.08296,0.1098,-0.13664,-0.09516,-0.05368,-0.01464,0.03904,0.00488,-0.0244,-0.05368,-0.08784,-0.0732
-0.08296,0.1098,-0.13664,-0.09516,-0.05368,-0.01464,0.04392,0.00976,-0.01952,-0.0488,-0.08784,-0.06832
-0.08296,0.10736,-0.13176,-0.09028,-0.0488,-0.01708,0.0488,0.01464,-0.01464,-0.0488,-0.08296,-0.0732
-0.08296,0.10736,-0.13176,-0.09028,-0.0488,-0.01708,0.0488,0.01952,-0.00976,-0.0488,-0.08296,-0.07808
-0.08296,0.1098,-0.13664,-0.09516,-0.05368,-0.01464,0.0488,0.01952,-0.00976,-0.03904,-0.07808,-0.07808
-0.08296,0.1098,-0.13664,-0.09516,-0.05368,-0.01464,0.0488,0.0244,-0.00488,-0.03904,-0.0732,-0.07808
-0.07808,0.10248,-0.12688,-0.08784,-0.0488,-0.01464,0.05368,0.02928,0,-0.03416,-0.0732,-0.0732
-0.0732,0.0976,-0.122,-0.0854,-0.0488,-0.0122,0.05368,0.03416,0.00488,-0.03416,-0.06832,-0.0732
-0.0732,0.09516,-0.11712,-0.08052,-0.04392,-0.01464,0.05368,0.03904,0.00976,-0.03416,-0.06832,-0.0732
-0.0732,0.09272,-0.11224,-0.07564,-0.03904,-0.01708,0.05368,0.0488,0.00976,-0.02928,-0.06832,-0.06832
-0.0732,0.09272,-0.11224,-0.07564,-0.03904,-0.01708,0.05368,0.0488,0.01464,-0.0244,-0.06344,-0.06832
-0.0732,0.09272,-0.11224,-0.07564,-0.03904,-0.01708,0.05368,0.05368,0.01952,-0.01952,-0.05856,-0.06832
-0.06832,0.09028,-0.11224,-0.07808,-0.04392,-0.0122,0.05368,0.05856,0.02928,-0.01952,-0.05368,-0.06344
-0.06344,0.0854,-0.10736,-0.07564,-0.04392,-0.00976,0.05856,0.06344,0.03416,-0.01464,-0.04392,-0.05856
-0.06344,0.08296,-0.10248,-0.07076,-0.03904,-0.0122,0.05856,0.06344,0.03904,-0.00976,-0.03904,-0.05856
-0.06344,0.08296,-0.10248,-0.07076,-0.03904,-0.0122,0.05856,0.06832,0.04392,-0.00488,-0.03416,-0.05368
-0.05856,0.0732,-0.08784,-0.05856,-0.02928,-0.01464,0.05368,0.06832,0.03904,0,-0.02928,-0.0488
-0.05368,0.06588,-0.07808,-0.05124,-0.0244,-0.01464,0.05368,0.07808,0.04392,0,-0.02928,-0.0488
-0.0488,0.061,-0.0732,-0.0488,-0.0244,-0.0122,0.05368,0.08296,0.05368,0.00976,-0.01952,-0.03904
-0.03416,0.05124,-0.06832,-0.05124,-0.03416,0,0.05368,0.08784,0.05368,0.01464,-0.01952,-0.03416
-0.02928,0.05612,-0.08296,-0.06832,-0.05368,0.0122,0.05368,0.09272,0.06344,0.01952,-0.00976,-0.0244
-0.0244,0.061,-0.0976,-0.0854,-0.0732,0.0244,0.05368,0.10248,0.0732,0.0244,0,-0.01952
-0.01952,0.05368,-0.08784,-0.07808,-0.06832,0.0244,0.05368,0.11224,0.07808,0.02928,0,-0.01464
-0.01464,0.05124,-0.08784,-0.08052,-0.0732,0.02928,0.05368,0.11712,0.08296,0.03416,0,-0.01464
-0.00488,0.04148,-0.07808,-0.07564,-0.0732,0.03416,0.05368,0.122,0.0976,0.04392,0.00976,-0.00976
0,0.0366,-0.0732,-0.0732,-0.0732,0.0366,0.0488,0.13176,0.10736,0.05856,0.0244,0
0.00488,0.02684,-0.05856,-0.061,-0.06344,0.03416,0.0488,0.14152,0.11712,0.06832,0.03416,0.00976
0.01464,0.01708,-0.0488,-0.05612,-0.06344,0.03904,0.0488,0.15128,0.12688,0.07808,0.05368,0.0244
0.03416,0,-0.03416,-0.05124,-0.06832,0.05124,0.0488,0.16104,0.1464,0.0976,0.0732,0.03416
0.03904,-0.00488,-0.02928,-0.0488,-0.06832,0.05368,0.04392,0.1708,0.16592,0.11224,0.08784,0.05368
0.05368,-0.02196,-0.00976,-0.0366,-0.06344,0.05856,0.04392,0.18056,0.17568,0.122,0.0976,0.05856
0.06344,-0.0366,0.00976,-0.02196,-0.05368,0.05856,0.03416,0.19032,0.18544,0.13176,0.11224,0.07808
0.08296,-0.05368,0.0244,-0.01708,-0.05856,0.07076,0.0244,0.20008,0.20496,0.15616,0.13176,0.0976
0.10248,-0.07076,0.03904,-0.0122,-0.06344,0.08296,0.01952,0.20984,0.21472,0.17568,0.15616,0.11712
0.11712,-0.08296,0.0488,-0.00976,-0.06832,0.09272,0.01464,0.21472,0.23424,0.19032,0.17568,0.13664
0.13664,-0.0976,0.05856,-0.00976,-0.07808,0.10736,0.00488,0.22448,0.244,0.20984,0.1952,0.15616
0.15128,-0.11224,0.0732,-0.00244,-0.07808,0.11468,0,0.22448,0.25376,0.22448,0.21472,0.17568
0.16592,-0.12688,0.08784,0.00488,-0.07808,0.122,-0.00488,0.22448,0.26352,0.23912,0.23912,0.1952
0.1708,-0.1342,0.0976,0.0122,-0.0732,0.122,-0.01952,0.22448,0.2684,0.24888,0.24888,0.20984
0.17568,-0.14396,0.11224,0.0244,-0.06344,0.11956,-0.01952,0.22448,0.27816,0.25376,0.2684,0.2196
0.18544,-0.15128,0.11712,0.0244,-0.06832,0.12688,-0.02928,0.22448,0.27816,0.26352,0.27816,0.23424
0.19032,-0.16104,0.13176,0.0366,-0.05856,0.12444,-0.03416,0.22448,0.28304,0.27328,0.28792,0.244
0.20496,-0.17568,0.1464,0.04392,-0.05856,0.13176,-0.03904,0.22936,0.29768,0.28792,0.30256,0.25864
0.21472,-0.183,0.15128,0.04392,-0.06344,0.13908,-0.0488,0.22936,0.30256,0.29768,0.3172,0.2684
0.2196,-0.18544,0.15128,0.04148,-0.06832,0.14396,-0.0488,0.22936,0.30744,0.30256,0.32696,0.27816
0.22448,-0.19032,0.15616,0.04392,-0.06832,0.1464,-0.0488,0.22936,0.31232,0.30744,0.33672,0.28304
0.2196,-0.19032,0.16104,0.05124,-0.05856,0.13908,-0.05368,0.21472,0.30744,0.30744,0.33672,0.28792
0.20984,-0.19032,0.1708,0.06588,-0.03904,0.12444,-0.05856,0.20496,0.30256,0.30256,0.33184,0.28792
0.21472,-0.19764,0.18056,0.0732,-0.03416,0.12444,-0.06344,0.18544,0.2928,0.29768,0.33672,0.28792
0.21472,-0.19764,0.18056,0.0732,-0.03416,0.12444,-0.06832,0.1708,0.28792,0.2928,0.3172,0.28304
0.1952,-0.18544,0.17568,0.07808,-0.01952,0.10736,-0.06832,0.15128,0.2684,0.27816,0.30256,0.2684
0.17568,-0.17324,0.1708,0.08296,-0.00488,0.09028,-0.06832,0.13176,0.25376,0.2684,0.28792,0.24888
0.1464,-0.14884,0.15128,0.07808,0.00488,0.07076,-0.06832,0.10736,0.22936,0.244,0.25864,0.22448
0.122,-0.12688,0.13176,0.07076,0.00976,0.05612,-0.06344,0.09272,0.20496,0.22448,0.22936,0.1952
0.10248,-0.10492,0.10736,0.05612,0.00488,0.0488,-0.06344,0.0732,0.19032,0.20008,0.20984,0.18056
0.0732,-0.07564,0.07808,0.04148,0.00488,0.03416,-0.0488,0.05856,0.16592,0.18056,0.18544,0.16592
0.05368,-0.05368,0.05368,0.02684,0,0.02684,-0.03904,0.04392,0.13664,0.15128,0.15128,0.12688
0.03416,-0.0366,0.03904,0.02196,0.00488,0.01464,-0.03416,0.0244,0.10736,0.122,0.122,0.0976
0.00976,-0.01464,0.01952,0.01464,0.00976,0,-0.03416,0.01464,0.08784,0.09272,0.08296,0.07808
-0.00976,0.00732,-0.00488,0,0.00488,-0.00732,-0.0244,0.00488,0.06344,0.07808,0.06344,0.05856
-0.0244,0.0244,-0.0244,-0.0122,0,-0.0122,-0.01952,0,0.03904,0.05856,0.03416,0.02928
-0.03416,0.0366,-0.03904,-0.02196,-0.00488,-0.01464,-0.01464,0,0.0244,0.03904,0.01952,0.01952
-0.04392,0.04392,-0.04392,-0.02196,0,-0.02196,-0.01464,-0.00976,0.01464,0.01952,0.00488,0.00488
-0.05368,0.05368,-0.05368,-0.02684,0,-0.02684,-0.00976,-0.01464,-0.00488,0.00976,-0.00488,-0.00488
-0.05368,0.05612,-0.05856,-0.03172,-0.00488,-0.0244,-0.00976,-0.01464,-0.00488,-0.00488,-0.01952,-0.01952
-0.05368,0.06344,-0.0732,-0.04636,-0.01952,-0.01708,-0.00488,-0.01464,-0.01464,-0.00976,-0.0244,-0.0244
-0.05368,0.07076,-0.08784,-0.061,-0.03416,-0.00976,0.00488,-0.01464,-0.0244,-0.0244,-0.04392,-0.03904
-0.06344,0.08296,-0.10248,-0.07076,-0.03904,-0.0122,0.00976,-0.01464,-0.02928,-0.03904,-0.06344,-0.0488
-0.06344,0.08296,-0.10248,-0.07076,-0.03904,-0.0122,0.01464,-0.01464,-0.03416,-0.03904,-0.06832,-0.0488
-0.06344,0.08296,-0.10248,-0.07076,-0.03904,-0.0122,0.01464,-0.01464,-0.03904,-0.04392,-0.06832,-0.0488
-0.06832,0.08784,-0.10736,-0.0732,-0.03904,-0.01464,0.01464,-0.01464,-0.03904,-0.04392,-0.06832,-0.05856
-0.0732,0.09028,-0.10736,-0.07076,-0.03416,-0.01952,0.01464,-0.01952,-0.04392,-0.04392,-0.06832,-0.06344
-0.08296,0.09272,-0.10248,-0.061,-0.01952,-0.03172,0.00976,-0.0244,-0.04392,-0.04392,-0.06832,-0.06344
-0.08296,0.09028,-0.0976,-0.05612,-0.01464,-0.03416,0.00488,-0.0244,-0.04392,-0.0488,-0.06832,-0.06344
-0.06832,0.08296,-0.0976,-0.06344,-0.02928,-0.01952,0.00488,-0.0244,-0.04392,-0.0488,-0.07808,-0.06832
-0.0732,0.0854,-0.0976,-0.061,-0.0244,-0.0244,0.00488,-0.0244,-0.04392,-0.0488,-0.07808,-0.06832
-0.0732,0.0854,-0.0976,-0.061,-0.0244,-0.0244,0.00976,-0.0244,-0.04392,-0.0488,-0.07808,-0.06832
-0.0732,0.08784,-0.10248,-0.06588,-0.02928,-0.02196,0.00976,-0.01952,-0.03904,-0.05368,-0.07808,-0.0732
-0.07808,0.09028,-0.10248,-0.06344,-0.0244,-0.02684,0.00976,-0.01952,-0.03904,-0.05368,-0.08296,-0.0732
-0.08296,0.09028,-0.0976,-0.05612,-0.01464,-0.03416,0.00976,-0.01952,-0.03904,-0.0488,-0.08784,-0.07808
-0.08784,0.09028,-0.09272,-0.0488,-0.00488,-0.04148,0.00976,-0.0244,-0.03904,-0.0488,-0.08784,-0.07808
-0.08784,0.09028,-0.09272,-0.0488,-0.00488,-0.04148,0.00976,-0.0244,-0.03416,-0.0488,-0.08784,-0.07808
-0.08296,0.09028,-0.0976,-0.05612,-0.01464,-0.03416,0.01464,-0.01952,-0.03416,-0.0488,-0.08296,-0.07808
-0.08296,0.09272,-0.10248,-0.061,-0.01952,-0.03172,0.01952,-0.01464,-0.02928,-0.04392,-0.08296,-0.07808
-0.08784,0.09516,-0.10248,-0.05856,-0.01464,-0.0366,0.01952,-0.01464,-0.02928,-0.04392,-0.08296,-0.07808
-0.08784,0.09516,-0.10248,-0.05856,-0.01464,-0.0366,0.01952,-0.01464,-0.0244,-0.04392,-0.08296,-0.07808
-0.08784,0.09272,-0.0976,-0.05368,-0.00976,-0.03904,0.01952,-0.01464,-0.0244,-0.03416,-0.0732,-0.0732
-0.08296,0.08296,-0.08296,-0.04148,0,-0.04148,0.01952,-0.01952,-0.0244,-0.03416,-0.0732,-0.06832
-0.08296,0.08296,-0.08296,-0.04148,0,-0.04148,0.01952,-0.01952,-0.0244,-0.03904,-0.0732,-0.06832
-0.08296,0.08296,-0.08296,-0.04148,0,-0.04148,0.01952,-0.01952,-0.0244,-0.03904,-0.0732,-0.06832
-0.08296,0.08296,-0.08296,-0.04148,0,-0.04148,0.01464,-0.01952,-0.0244,-0.03416,-0.06832,-0.06344
-0.08296,0.0854,-0.08784,-0.04636,-0.00488,-0.03904,0.01464,-0.01952,-0.0244,-0.03416,-0.06832,-0.05856
-0.08784,0.09028,-0.09272,-0.0488,-0.00488,-0.04148,0.01952,-0.01952,-0.0244,-0.03416,-0.06832,-0.05856
-0.08784,0.09028,-0.09272,-0.0488,-0.00488,-0.04148,0.01952,-0.01952,-0.0244,-0.03416,-0.06832,-0.05856
-0.08296,0.09272,-0.10248,-0.061,-0.01952,-0.03172,0.01464,-0.01952,-0.02928,-0.03904,-0.06832,-0.06344
-0.06832,0.08784,-0.10736,-0.0732,-0.03904,-0.01464,0.01464,-0.0244,-0.02928,-0.03904,-0.06832,-0.06344
-0.06832,0.08296,-0.0976,-0.06344,-0.02928,-0.01952,0.01464,-0.0244,-0.02928,-0.03904,-0.06832,-0.06832
-0.06832,0.07564,-0.08296,-0.0488,-0.01464,-0.02684,0.00976,-0.0244,-0.02928,-0.03904,-0.06832,-0.06832
-0.0732,0.07808,-0.08296,-0.04636,-0.00976,-0.03172,0.00488,-0.0244,-0.03416,-0.03904,-0.06832,-0.06344
-0.07808,0.08296,-0.08784,-0.0488,-0.00976,-0.03416,0.00488,-0.0244,-0.03416,-0.03904,-0.06832,-0.06344
-0.08296,0.0854,-0.08784,-0.04636,-0.00488,-0.03904,0.00488,-0.0244,-0.03416,-0.03904,-0.06344,-0.05856
-0.08296,0.08296,-0.08296,-0.04148,0,-0.04148,0.00488,-0.0244,-0.03416,-0.03904,-0.0488,-0.05368
-0.0732,0.08052,-0.08784,-0.05124,-0.01464,-0.02928,0.00488,-0.0244,-0.0488,-0.04392,-0.05856,-0.05368
-0.06344,0.08052,-0.0976,-0.06588,-0.03416,-0.01464,0.00488,-0.02928,-0.05368,-0.05368,-0.05856,-0.05368
-0.0732,0.08784,-0.10248,-0.06588,-0.02928,-0.02196,0.00976,-0.02928,-0.05368,-0.05368,-0.06832,-0.05856
-0.08296,0.09272,-0.10248,-0.061,-0.01952,-0.03172,0.01464,-0.02928,-0.05368,-0.05368,-0.07808,-0.06344
-0.08296,0.09272,-0.10248,-0.061,-0.01952,-0.03172,0.00976,-0.02928,-0.05368,-0.05856,-0.08296,-0.06344
-0.08296,0.09516,-0.10736,-0.06588,-0.0244,-0.02928,0.00976,-0.02928,-0.05856,-0.06344,-0.08296,-0.06832
-0.08296,0.09516,-0.10736,-0.06588,-0.0244,-0.02928,0.00976,-0.02928,-0.05368,-0.05856,-0.07808,-0.06344
-0.08296,0.09272,-0.10248,-0.061,-0.01952,-0.03172,0.00976,-0.02928,-0.05368,-0.0488,-0.0732,-0.05856
-0.07808,0.09028,-0.10248,-0.06344,-0.0244,-0.02684,0.00976,-0.0244,-0.05368,-0.0488,-0.0732,-0.05856
-0.0732,0.08784,-0.10248,-0.06588,-0.02928,-0.02196,0.00488,-0.0244,-0.05856,-0.05856,-0.08296,-0.06344
-0.0732,0.08784,-0.10248,-0.06588,-0.02928,-0.02196,0.00488,-0.0244,-0.05856,-0.05856,-0.08296,-0.06344
-0.0732,0.08784,-0.10248,-0.06588,-0.02928,-0.02196,0.00488,-0.0244,-0.05856,-0.05856,-0.08296,-0.06344
-0.07808,0.09516,-0.11224,-0.0732,-0.03416,-0.02196,0.00976,-0.0244,-0.05856,-0.05856,-0.07808,-0.06344
-0.08296,0.10004,-0.11712,-0.07564,-0.03416,-0.0244,0.01952,-0.0244,-0.05856,-0.05368,-0.07808,-0.06344
-0.08296,0.10248,-0.122,-0.08052,-0.03904,-0.02196,0.01952,-0.0244,-0.06344,-0.05368,-0.08296,-0.06832
-0.08784,0.10736,-0.12688,-0.08296,-0.03904,-0.0244,0.01952,-0.0244,-0.0732,-0.05856,-0.08296,-0.07808
-0.08784,0.10492,-0.122,-0.07808,-0.03416,-0.02684,0.01952,-0.02928,-0.0732,-0.06832,-0.08296,-0.07808
-0.08784,0.10492,-0.122,-0.07808,-0.03416,-0.02684,0.01952,-0.02928,-0.0732,-0.0732,-0.08296,-0.0732
-0.08784,0.10736,-0.12688,-0.08296,-0.03904,-0.0244,0.01464,-0.03416,-0.0732,-0.0732,-0.08296,-0.0732
-0.08784,0.1098,-0.13176,-0.08784,-0.04392,-0.02196,0.00976,-0.03904,-0.0732,-0.06344,-0.07808,-0.0732
-0.08784,0.10736,-0.12688,-0.08296,-0.03904,-0.0244,0.00976,-0.03904,-0.0732,-0.0732,-0.07808,-0.0732
-0.08784,0.10248,-0.11712,-0.0732,-0.02928,-0.02928,0.00976,-0.03904,-0.07808,-0.0732,-0.08296,-0.07808
-0.08784,0.10248,-0.11712,-0.0732,-0.02928,-0.02928,0.00976,-0.03904,-0.0732,-0.0732,-0.08296,-0.07808
-0.08784,0.10248,-0.11712,-0.0732,-0.02928,-0.02928,0.00976,-0.03904,-0.06832,-0.0732,-0.08296,-0.07808
-0.08784,0.10248,-0.11712,-0.0732,-0.02928,-0.02928,0.00976,-0.03904,-0.06832,-0.0732,-0.08296,-0.07808
-0.08784,0.10492,-0.122,-0.07808,-0.03416,-0.02684,0.00976,-0.03904,-0.06832,-0.0732,-0.08296,-0.07808
-0.08784,0.10492,-0.122,-0.07808,-0.03416,-0.02684,0.00488,-0.03904,-0.0732,-0.07808,-0.08784,-0.07808
-0.08784,0.10248,-0.11712,-0.0732,-0.02928,-0.02928,0.00488,-0.03904,-0.0732,-0.07808,-0.08784,-0.07808
-0.08784,0.10004,-0.11224,-0.06832,-0.0244,-0.03172,0.00488,-0.03904,-0.06832,-0.07808,-0.08784,-0.07808
-0.08784,0.10004,-0.11224,-0.06832,-0.0244,-0.03172,0.00488,-0.03904,-0.06832,-0.0732,-0.08784,-0.07808
-0.08296,0.0976,-0.11224,-0.07076,-0.02928,-0.02684,0.00488,-0.03904,-0.06832,-0.0732,-0.09272,-0.08296
-0.08296,0.0976,-0.11224,-0.07076,-0.02928,-0.02684,0.00976,-0.03904,-0.06344,-0.0732,-0.09272,-0.08296
-0.08296,0.09516,-0.10736,-0.06588,-0.0244,-0.02928,0.00976,-0.03904,-0.06832,-0.0732,-0.09272,-0.08296
-0.07808,0.09272,-0.10736,-0.06832,-0.02928,-0.0244,0.00976,-0.03904,-0.07808,-0.0732,-0.0976,-0.08296
-0.07808,0.09272,-0.10736,-0.06832,-0.02928,-0.0244,0.00976,-0.03904,-0.07808,-0.0732,-0.0976,-0.08296
-0.07808,0.09272,-0.10736,-0.06832,-0.02928,-0.0244,0.01464,-0.03904,-0.07808,-0.0732,-0.0976,-0.08296
-0.07808,0.0976,-0.11712,-0.07808,-0.03904,-0.01952,0.01464,-0.03416,-0.07808,-0.0732,-0.0976,-0.08296
-0.07808,0.10492,-0.13176,-0.09272,-0.05368,-0.0122,0.01464,-0.02928,-0.08296,-0.07808,-0.10248,-0.08296
-0.07808,0.10492,-0.13176,-0.09272,-0.05368,-0.0122,0.00976,-0.03416,-0.07808,-0.07808,-0.0976,-0.08296
-0.07808,0.10492,-0.13176,-0.09272,-0.05368,-0.0122,0.00976,-0.03416,-0.0732,-0.07808,-0.09272,-0.08296
-0.07808,0.10004,-0.122,-0.08296,-0.04392,-0.01708,0.00976,-0.03416,-0.0732,-0.07808,-0.09272,-0.08296
-0.07808,0.0976,-0.11712,-0.07808,-0.03904,-0.01952,0.00976,-0.03416,-0.0732,-0.07808,-0.08784,-0.08296
-0.08296,0.10004,-0.11712,-0.07564,-0.03416,-0.0244,0.00976,-0.03416,-0.0732,-0.07808,-0.08784,-0.07808
-0.08784,0.10248,-0.11712,-0.0732,-0.02928,-0.02928,0.00976,-0.03904,-0.07808,-0.07808,-0.08784,-0.07808
-0.08784,0.10248,-0.11712,-0.0732,-0.02928,-0.02928,0.00976,-0.03904,-0.07808,-0.07808,-0.08784,-0.07808
-0.08784,0.10248,-0.11712,-0.0732,-0.02928,-0.02928,0.00976,-0.03904,-0.07808,-0.07808,-0.08784,-0.07808
-0.08784,0.1098,-0.13176,-0.08784,-0.04392,-0.02196,0.00976,-0.03416,-0.07808,-0.07808,-0.08784,-0.07808
-0.08784,0.11224,-0.13664,-0.09272,-0.0488,-0.01952,0.00976,-0.02928,-0.07808,-0.0732,-0.08784,-0.07808
-0.08784,0.11712,-0.1464,-0.10248,-0.05856,-0.01464,0.00976,-0.02928,-0.07808,-0.0732,-0.08784,-0.07808
-0.07808,0.10736,-0.13664,-0.0976,-0.05856,-0.00976,0.00976,-0.02928,-0.07808,-0.0732,-0.08296,-0.07808
-0.07808,0.0976,-0.11712,-0.07808,-0.03904,-0.01952,0.00976,-0.03416,-0.06832,-0.06832,-0.08296,-0.0732
-0.07808,0.0854,-0.09272,-0.05368,-0.01464,-0.03172,0.00976,-0.03416,-0.05856,-0.06344,-0.07808,-0.06832
-0.0732,0.07564,-0.07808,-0.04148,-0.00488,-0.03416,0.01464,-0.02928,-0.0488,-0.05856,-0.07808,-0.06832
-0.06832,0.0732,-0.07808,-0.04392,-0.00976,-0.02928,0.01464,-0.02928,-0.03904,-0.0488,-0.06832,-0.05856
-0.06344,0.06344,-0.06344,-0.03172,0,-0.03172,0.00976,-0.02928,-0.03416,-0.03904,-0.05856,-0.0488
-0.06344,0.061,-0.05856,-0.02684,0.00488,-0.03416,0.00488,-0.02928,-0.02928,-0.02928,-0.0488,-0.04392
-0.05856,0.04636,-0.03416,-0.00488,0.0244,-0.04148,0,-0.02928,-0.01952,-0.0244,-0.0488,-0.03904
-0.05368,0.03904,-0.0244,0.00244,0.02928,-0.04148,0,-0.02928,-0.01952,-0.0244,-0.0488,-0.03904
-0.04392,0.04392,-0.04392,-0.02196,0,-0.02196,-0.01464,-0.03416,-0.0244,-0.0244,-0.0488,-0.03904
-0.03904,0.04636,-0.05368,-0.03416,-0.01464,-0.0122,-0.01952,-0.0488,-0.02928,-0.0244,-0.0488,-0.03904
-0.03904,0.03904,-0.03904,-0.01952,0,-0.01952,-0.02928,-0.05368,-0.0244,-0.0244,-0.04392,-0.03416
-0.0244,0.02196,-0.01952,-0.00732,0.00488,-0.01464,-0.04392,-0.06344,-0.01952,-0.01952,-0.03416,-0.0244
-0.01464,0.00976,-0.00488,0.00244,0.00976,-0.0122,-0.05856,-0.0732,-0.01952,-0.00976,-0.0244,-0.00976
-0.0244,0.01464,-0.00488,0.00732,0.01952,-0.02196,-0.05856,-0.07808,-0.0244,-0.00488,-0.01952,-0.00488
-0.03416,0.01952,-0.00488,0.0122,0.02928,-0.03172,-0.05856,-0.07808,-0.0244,-0.00488,-0.01464,-0.00488
-0.03904,0.01952,0,0.01952,0.03904,-0.03904,-0.05368,-0.07808,-0.01952,0,-0.01464,0
-0.02928,0.00732,0.01464,0.02928,0.04392,-0.0366,-0.05368,-0.07808,-0.01952,0,-0.01952,0
-0.01952,0.00732,0.00488,0.01464,0.0244,-0.02196,-0.05368,-0.0732,-0.03416,-0.00976,-0.0244,-0.00488
-0.01952,0.02196,-0.0244,-0.01464,-0.00488,-0.00732,-0.04392,-0.06832,-0.05368,-0.01952,-0.03904,-0.01464
-0.0244,0.03904,-0.05368,-0.04148,-0.02928,0.00244,-0.02928,-0.05368,-0.06344,-0.03904,-0.0488,-0.0244
-0.03416,0.05368,-0.0732,-0.05612,-0.03904,0.00244,-0.01952,-0.04392,-0.0732,-0.0488,-0.05856,-0.03904
-0.04392,0.07076,-0.0976,-0.07564,-0.05368,0.00488,-0.00976,-0.03904,-0.07808,-0.05856,-0.05856,-0.04392
-0.06344,0.08784,-0.11224,-0.08052,-0.0488,-0.00732,0,-0.03904,-0.07808,-0.06832,-0.07808,-0.05856
-0.07808,0.0976,-0.11712,-0.07808,-0.03904,-0.01952,0.00488,-0.04392,-0.08784,-0.0732,-0.07808,-0.06344
-0.07808,0.0976,-0.11712,-0.07808,-0.03904,-0.01952,0.00488,-0.04392,-0.08784,-0.0732,-0.07808,-0.06344
-0.07808,0.10004,-0.122,-0.08296,-0.04392,-0.01708,0.00976,-0.03904,-0.08784,-0.07808,-0.08296,-0.06832
-0.08784,0.10736,-0.12688,-0.08296,-0.03904,-0.0244,0.00976,-0.03904,-0.0976,-0.07808,-0.08784,-0.07808
-0.08784,0.11468,-0.14152,-0.0976,-0.05368,-0.01708,0.00976,-0.03904,-0.10248,-0.09272,-0.0976,-0.09272
-0.08784,0.11712,-0.1464,-0.10248,-0.05856,-0.01464,0.01464,-0.03904,-0.10248,-0.09272,-0.10248,-0.09272
-0.08784,0.11956,-0.15128,-0.10736,-0.06344,-0.0122,0.01952,-0.03904,-0.10248,-0.09272,-0.10736,-0.09272
-0.09272,0.122,-0.15128,-0.10492,-0.05856,-0.01708,0.01952,-0.03904,-0.10248,-0.09272,-0.10736,-0.0976
-0.09272,0.122,-0.15128,-0.10492,-0.05856,-0.01708,0.0244,-0.03904,-0.0976,-0.09272,-0.10736,-0.0976
-0.08784,0.11956,-0.15128,-0.10736,-0.06344,-0.0122,0.0244,-0.03416,-0.0976,-0.0976,-0.10736,-0.0976
-0.08784,0.11956,-0.15128,-0.10736,-0.06344,-0.0122,0.0244,-0.03416,-0.0976,-0.10248,-0.10736,-0.0976
-0.0976,0.12932,-0.16104,-0.11224,-0.06344,-0.01708,0.02928,-0.02928,-0.09272,-0.0976,-0.10736,-0.09272
-0.0976,0.1342,-0.1708,-0.122,-0.0732,-0.0122,0.03416,-0.0244,-0.09272,-0.0976,-0.10736,-0.09272
-0.0976,0.1342,-0.1708,-0.122,-0.0732,-0.0122,0.03416,-0.0244,-0.08784,-0.09272,-0.10248,-0.09272
-0.09272,0.13176,-0.1708,-0.12444,-0.07808,-0.00732,0.03416,-0.0244,-0.08784,-0.08296,-0.10248,-0.09272
-0.09272,0.12688,-0.16104,-0.11468,-0.06832,-0.0122,0.03416,-0.02928,-0.08784,-0.08296,-0.10248,-0.08784
-0.09272,0.12444,-0.15616,-0.1098,-0.06344,-0.01464,0.03416,-0.02928,-0.07808,-0.07808,-0.0976,-0.08784
-0.08784,0.11956,-0.15128,-0.10736,-0.06344,-0.0122,0.0244,-0.03416,-0.08784,-0.07808,-0.08784,-0.08784
-0.08296,0.11712,-0.15128,-0.1098,-0.06832,-0.00732,0.01952,-0.03416,-0.09272,-0.0732,-0.08296,-0.09272
-0.11224,0.13908,-0.16592,-0.1098,-0.05368,-0.02928,0.05368,-0.00488,-0.06344,-0.08296,-0.12688,-0.13664
-0.1708,0.16104,-0.15128,-0.06588,0.01952,-0.09516,0.12688,0.05368,0.05368,-0.03416,-0.15616,-0.16592
-0.27328,0.18056,-0.08784,0.0488,0.18544,-0.22936,0.18056,0.06344,0.21472,0.05856,-0.1464,-0.18544
-0.2928,0.16836,-0.04392,0.10248,0.24888,-0.27084,0.27328,0.19032,0.4148,0.20496,-0.02928,-0.11224
-0.1464,0.07564,-0.00488,0.06832,0.14152,-0.14396,0.44896,0.61976,0.7808,0.47336,0.24888,0.08784
0.06832,-0.0854,0.10248,0.06832,0.03416,0.01708,0.51728,0.93696,1.12728,0.7808,0.5856,0.35136
0.34648,-0.2806,0.21472,0.04148,-0.13176,0.23912,0.38552,0.95648,1.07848,0.9272,0.89792,0.6588
0.62952,-0.50264,0.37576,0.061,-0.25376,0.44164,0.12688,0.77104,0.87352,1.01992,1.21512,0.98088
1.04432,-0.88816,0.732,0.20984,-0.31232,0.67832,-0.3416,0.38552,0.66856,1.2932,1.77144,1.51768
1.27368,-1.08092,0.88816,0.25132,-0.38552,0.8296,-0.64416,0.07808,0.33184,1.22488,1.9032,1.71288
1.10288,-0.8906,0.67832,0.12688,-0.42456,0.76372,-0.74176,-0.2928,-0.2684,0.57096,1.17608,1.19072
0.76616,-0.62708,0.488,0.10492,-0.27816,0.52216,-0.7564,-0.64416,-0.67832,0.05856,0.52216,0.6832
0.38552,-0.37576,0.366,0.17324,-0.01952,0.20252,-0.73688,-0.9028,-0.91744,-0.37088,-0.0976,0.20984
0.1464,-0.18788,0.22936,0.15616,0.08296,0.03172,-0.6832,-0.99064,-1.03456,-0.61488,-0.42944,-0.08296
0.04392,-0.10248,0.16104,0.13908,0.11712,-0.0366,-0.56608,-0.84424,-0.88328,-0.57096,-0.40016,-0.10736
0.00976,-0.04392,0.07808,0.0732,0.06832,-0.02928,-0.45384,-0.66856,-0.732,-0.50264,-0.366,-0.12688
0.03904,-0.03172,0.0244,0.00488,-0.01464,0.02684,-0.33672,-0.46848,-0.5612,-0.38064,-0.26352,-0.08784
0.01464,0.00244,-0.01952,-0.02684,-0.03416,0.0244,-0.20008,-0.2928,-0.37088,-0.25864,-0.19032,-0.08784
-0.0244,0.03904,-0.05368,-0.04148,-0.02928,0.00244,-0.11224,-0.17568,-0.23912,-0.16592,-0.1464,-0.0732
-0.05368,0.07564,-0.0976,-0.07076,-0.04392,-0.00488,-0.02928,-0.08296,-0.13176,-0.09272,-0.11224,-0.06344
-0.05368,0.0854,-0.11712,-0.09028,-0.06344,0.00488,-0.00488,-0.05856,-0.11224,-0.09272,-0.10736,-0.07808
-0.06344,0.09516,-0.12688,-0.09516,-0.06344,0,0.01464,-0.04392,-0.0976,-0.0976,-0.10736,-0.09272
-0.0732,0.10492,-0.13664,-0.10004,-0.06344,-0.00488,0.0244,-0.0244,-0.08296,-0.08784,-0.10248,-0.0976
-0.0732,0.10736,-0.14152,-0.10492,-0.06832,-0.00244,0.03904,-0.00976,-0.0732,-0.08784,-0.10248,-0.0976
-0.0732,0.10736,-0.14152,-0.10492,-0.06832,-0.00244,0.05368,0,-0.05856,-0.07808,-0.0976,-0.09272
-0.07808,0.1098,-0.14152,-0.10248,-0.06344,-0.00732,0.05856,0.00976,-0.04392,-0.06344,-0.08296,-0.08784
-0.07808,0.1098,-0.14152,-0.10248,-0.06344,-0.00732,0.06344,0.01464,-0.03416,-0.06344,-0.08296,-0.08784
-0.07808,0.1098,-0.14152,-0.10248,-0.06344,-0.00732,0.06832,0.01952,-0.03416,-0.05856,-0.07808,-0.08296
-0.0732,0.10736,-0.14152,-0.10492,-0.06832,-0.00244,0.06344,0.02928,-0.02928,-0.0488,-0.0732,-0.07808
-0.0732,0.10492,-0.13664,-0.10004,-0.06344,-0.00488,0.05856,0.03416,-0.0244,-0.04392,-0.06832,-0.0732
-0.0732,0.10492,-0.13664,-0.10004,-0.06344,-0.00488,0.06344,0.03904,-0.01952,-0.03904,-0.06832,-0.06832
-0.0732,0.10248,-0.13176,-0.09516,-0.05856,-0.00732,0.06832,0.04392,-0.01464,-0.03904,-0.06344,-0.06832
-0.0732,0.10736,-0.14152,-0.10492,-0.06832,-0.00244,0.0732,0.0488,-0.00976,-0.04392,-0.06832,-0.06832
-0.0732,0.11468,-0.15616,-0.11956,-0.08296,0.00488,0.07808,0.0488,-0.00976,-0.03904,-0.06832,-0.06832
-0.0732,0.11468,-0.15616,-0.11956,-0.08296,0.00488,0.07808,0.05368,-0.00488,-0.03904,-0.06344,-0.06832
-0.06832,0.1098,-0.15128,-0.11712,-0.08296,0.00732,0.08296,0.05856,0,-0.03416,-0.06344,-0.06344
-0.06344,0.10736,-0.15128,-0.11956,-0.08784,0.0122,0.07808,0.06344,0.00488,-0.03416,-0.05856,-0.06344
-0.06344,0.10492,-0.1464,-0.11468,-0.08296,0.00976,0.0732,0.06344,0.00976,-0.03416,-0.05856,-0.06344
-0.06344,0.10248,-0.14152,-0.1098,-0.07808,0.00732,0.0732,0.06832,0.00488,-0.02928,-0.05856,-0.05856
-0.06344,0.10248,-0.14152,-0.1098,-0.07808,0.00732,0.0732,0.06832,0.00488,-0.0244,-0.05368,-0.05856
-0.06344,0.10004,-0.13664,-0.10492,-0.0732,0.00488,0.0732,0.06832,0.00976,-0.01952,-0.0488,-0.05856
-0.05856,0.09516,-0.13176,-0.10248,-0.0732,0.00732,0.0732,0.06832,0.01952,-0.01952,-0.0488,-0.05368
-0.05368,0.0854,-0.11712,-0.09028,-0.06344,0.00488,0.0732,0.0732,0.0244,-0.01464,-0.04392,-0.05368
-0.05368,0.07808,-0.10248,-0.07564,-0.0488,-0.00244,0.06832,0.0732,0.02928,-0.00976,-0.03904,-0.05856
-0.05368,0.07808,-0.10248,-0.07564,-0.0488,-0.00244,0.06832,0.07808,0.03416,-0.00976,-0.03904,-0.05368
-0.0488,0.07076,-0.09272,-0.06832,-0.04392,-0.00244,0.06344,0.07808,0.03416,-0.00976,-0.03904,-0.0488
-0.04392,0.07076,-0.0976,-0.07564,-0.05368,0.00488,0.06832,0.08784,0.04392,-0.00976,-0.03904,-0.0488
-0.04392,0.0732,-0.10248,-0.08052,-0.05856,0.00732,0.0732,0.09272,0.05368,0,-0.02928,-0.04392
-0.03416,0.06588,-0.0976,-0.08052,-0.06344,0.01464,0.0732,0.0976,0.05368,0.00488,-0.02928,-0.04392
-0.02928,0.06344,-0.0976,-0.08296,-0.06832,0.01952,0.0732,0.10248,0.06344,0.00976,-0.01952,-0.03416
-0.0244,0.05612,-0.08784,-0.07564,-0.06344,0.01952,0.0732,0.10736,0.0732,0.01464,-0.00976,-0.02928
-0.01952,0.04392,-0.06832,-0.05856,-0.0488,0.01464,0.0732,0.11224,0.08296,0.0244,0,-0.01952
-0.01464,0.04148,-0.06832,-0.061,-0.05368,0.01952,0.0732,0.11224,0.09272,0.03416,0.00976,-0.01464
0,0.02928,-0.05856,-0.05856,-0.05856,0.02928,0.0732,0.11224,0.10736,0.04392,0.01952,-0.00488
0.00976,0.02196,-0.05368,-0.05856,-0.06344,0.0366,0.06832,0.122,0.11712,0.05856,0.03416,0.00976
0.01464,0.0122,-0.03904,-0.04636,-0.05368,0.03416,0.06832,0.13176,0.12688,0.06832,0.04392,0.01952
0.0244,0.00244,-0.02928,-0.04148,-0.05368,0.03904,0.06832,0.14152,0.13664,0.0732,0.05856,0.03416
0.04392,-0.01464,-0.01464,-0.0366,-0.05856,0.05124,0.06832,0.15128,0.15616,0.09272,0.0732,0.04392
0.0488,-0.01708,-0.01464,-0.03904,-0.06344,0.05612,0.06344,0.16104,0.17568,0.11224,0.08784,0.05856
0.06344,-0.02928,-0.00488,-0.0366,-0.06832,0.06588,0.06344,0.1708,0.18544,0.122,0.10248,0.06344
0.06344,-0.0366,0.00976,-0.02196,-0.05368,0.05856,0.05368,0.18544,0.1952,0.13176,0.12688,0.08784
0.0732,-0.0488,0.0244,-0.0122,-0.0488,0.061,0.04392,0.1952,0.21472,0.15616,0.15128,0.10736
0.10248,-0.07076,0.03904,-0.0122,-0.06344,0.08296,0.03904,0.20008,0.22448,0.17568,0.17568,0.13176
0.122,-0.08784,0.05368,-0.00732,-0.06832,0.09516,0.03416,0.20496,0.244,0.19032,0.1952,0.15616
0.13664,-0.1098,0.08296,0.01464,-0.05368,0.09516,0.01952,0.20984,0.25376,0.21472,0.21472,0.17568
0.15128,-0.13176,0.11224,0.0366,-0.03904,0.09516,0.00976,0.20496,0.26352,0.23424,0.23424,0.1952
0.16592,-0.1464,0.12688,0.04392,-0.03904,0.10248,0.00488,0.20496,0.27328,0.24888,0.25864,0.21472
0.17568,-0.15616,0.13664,0.0488,-0.03904,0.10736,-0.00976,0.20496,0.27816,0.25864,0.2684,0.22936
0.18056,-0.16592,0.15128,0.061,-0.02928,0.10492,-0.00976,0.20496,0.28792,0.26352,0.28792,0.23912
0.18544,-0.1708,0.15616,0.06344,-0.02928,0.10736,-0.01952,0.20496,0.28792,0.27328,0.29768,0.25376
0.19032,-0.17812,0.16592,0.07076,-0.0244,0.10736,-0.0244,0.20496,0.2928,0.27816,0.30744,0.26352
0.20008,-0.18788,0.17568,0.07564,-0.0244,0.11224,-0.02928,0.20496,0.30256,0.28304,0.3172,0.27816
0.20496,-0.19276,0.18056,0.07808,-0.0244,0.11468,-0.03904,0.20008,0.30256,0.28792,0.32696,0.28792
0.20496,-0.19276,0.18056,0.07808,-0.0244,0.11468,-0.03904,0.1952,0.30256,0.28792,0.33184,0.2928
0.20984,-0.20252,0.1952,0.09028,-0.01464,0.11224,-0.03904,0.19032,0.30256,0.28792,0.33672,0.28304
0.20984,-0.2074,0.20496,0.10004,-0.00488,0.10736,-0.04392,0.17568,0.29768,0.28792,0.33672,0.27816
0.20008,-0.20984,0.2196,0.11956,0.01952,0.09028,-0.05856,0.16592,0.2928,0.28792,0.33672,0.2928
0.1952,-0.21228,0.22936,0.13176,0.03416,0.08052,-0.06832,0.1464,0.27816,0.28792,0.3416,0.29768
0.19032,-0.2074,0.22448,0.12932,0.03416,0.07808,-0.06832,0.13176,0.2684,0.28304,0.3172,0.28304
0.17568,-0.19764,0.2196,0.13176,0.04392,0.06588,-0.06832,0.11224,0.24888,0.26352,0.29768,0.2684
0.15616,-0.183,0.20984,0.13176,0.05368,0.05124,-0.06344,0.09272,0.23424,0.24888,0.27816,0.24888
0.13176,-0.16104,0.19032,0.12444,0.05856,0.0366,-0.05856,0.06832,0.20984,0.22448,0.24888,0.22448
0.11224,-0.14152,0.1708,0.11468,0.05856,0.02684,-0.05368,0.05368,0.18544,0.20496,0.2196,0.1952
0.09272,-0.122,0.15128,0.10492,0.05856,0.01708,-0.05368,0.03416,0.16592,0.17568,0.1952,0.17568
0.06344,-0.09516,0.12688,0.09516,0.06344,0,-0.03904,0.01952,0.13664,0.15128,0.16592,0.15616
0.0488,-0.07564,0.10248,0.07808,0.05368,-0.00244,-0.03416,0.00976,0.10736,0.122,0.13176,0.11712
0.03416,-0.06344,0.09272,0.07564,0.05856,-0.0122,-0.03416,-0.00976,0.0732,0.08784,0.09272,0.0732
0.01464,-0.0488,0.08296,0.07564,0.06832,-0.02684,-0.03416,-0.01952,0.05368,0.05368,0.0488,0.03904
0,-0.03172,0.06344,0.06344,0.06344,-0.03172,-0.0244,-0.0244,0.03416,0.03904,0.03416,0.01952
-0.01464,-0.01464,0.04392,0.05124,0.05856,-0.0366,-0.01952,-0.02928,0.00976,0.01952,0.00488,-0.00976
-0.02928,0.00488,0.01952,0.03416,0.0488,-0.03904,-0.01464,-0.0244,-0.00488,0,-0.00488,-0.00976
-0.04392,0.01952,0.00488,0.02684,0.0488,-0.04636,-0.01464,-0.02928,-0.01464,-0.01464,-0.01464,-0.01464
-0.05368,0.02928,-0.00488,0.02196,0.0488,-0.05124,-0.00976,-0.03416,-0.03416,-0.01952,-0.0244,-0.0244
-0.05368,0.03172,-0.00976,0.01708,0.04392,-0.0488,-0.00976,-0.03416,-0.03416,-0.03416,-0.03904,-0.03904
-0.05368,0.0366,-0.01952,0.00732,0.03416,-0.04392,-0.00488,-0.03416,-0.04392,-0.03904,-0.04392,-0.0488
-0.05368,0.03904,-0.0244,0.00244,0.02928,-0.04148,0,-0.03416,-0.0488,-0.0488,-0.05368,-0.06344
-0.06344,0.0488,-0.03416,-0.00244,0.02928,-0.04636,0,-0.03416,-0.0488,-0.05856,-0.06344,-0.06832
-0.06344,0.0488,-0.03416,-0.00244,0.02928,-0.04636,0.00488,-0.03416,-0.05368,-0.05856,-0.06832,-0.06832
-0.06344,0.0488,-0.03416,-0.00244,0.02928,-0.04636,0.00488,-0.03416,-0.05856,-0.06832,-0.07808,-0.06832
-0.06344,0.05124,-0.03904,-0.00732,0.0244,-0.04392,0.00488,-0.03416,-0.05856,-0.0732,-0.08784,-0.0732
-0.06344,0.05124,-0.03904,-0.00732,0.0244,-0.04392,0.00488,-0.03904,-0.06344,-0.07808,-0.08784,-0.07808
-0.0732,0.05612,-0.03904,-0.00244,0.03416,-0.05368,0.00488,-0.03904,-0.06344,-0.08296,-0.08784,-0.08296
-0.07808,0.05856,-0.03904,0,0.03904,-0.05856,0.00488,-0.03416,-0.06344,-0.08784,-0.09272,-0.09272
-0.0732,0.05612,-0.03904,-0.00244,0.03416,-0.05368,0.00488,-0.03416,-0.06344,-0.08784,-0.10736,-0.10736
-0.08296,0.05612,-0.02928,0.0122,0.05368,-0.06832,0.00488,-0.03416,-0.06344,-0.08784,-0.10736,-0.10736
-0.08296,0.05124,-0.01952,0.02196,0.06344,-0.0732,0.00976,-0.03416,-0.06344,-0.08784,-0.10736,-0.10736
-0.08296,0.05856,-0.03416,0.00732,0.0488,-0.06588,0.00976,-0.02928,-0.05856,-0.09272,-0.0976,-0.0976
-0.08296,0.06344,-0.04392,-0.00244,0.03904,-0.061,0.00976,-0.02928,-0.05856,-0.09272,-0.09272,-0.08296
-0.07808,0.06344,-0.0488,-0.00976,0.02928,-0.05368,0.00976,-0.02928,-0.05856,-0.08784,-0.0976,-0.08784
-0.07808,0.06588,-0.05368,-0.01464,0.0244,-0.05124,0.00976,-0.03416,-0.05856,-0.08784,-0.0976,-0.08784
-0.07808,0.061,-0.04392,-0.00488,0.03416,-0.05612,0.00976,-0.03416,-0.05368,-0.0732,-0.0976,-0.08784
-0.0732,0.05368,-0.03416,0.00244,0.03904,-0.05612,0.00976,-0.03416,-0.05368,-0.05856,-0.09272,-0.08784
-0.0732,0.0488,-0.0244,0.0122,0.0488,-0.061,0.00976,-0.03904,-0.05856,-0.0732,-0.10736,-0.09272
-0.07808,0.04636,-0.01464,0.0244,0.06344,-0.07076,0.00976,-0.04392,-0.06832,-0.09272,-0.122,-0.0976
-0.07808,0.04636,-0.01464,0.0244,0.06344,-0.07076,0.00976,-0.04392,-0.05368,-0.08296,-0.10736,-0.0976
-0.07808,0.04636,-0.01464,0.0244,0.06344,-0.07076,0.00976,-0.03904,-0.04392,-0.06344,-0.08296,-0.09272
-0.0732,0.03904,-0.00488,0.03172,0.06832,-0.07076,0.00976,-0.03904,-0.04392,-0.06344,-0.08296,-0.08784
-0.0732,0.03904,-0.00488,0.03172,0.06832,-0.07076,0.00976,-0.03904,-0.04392,-0.06832,-0.08296,-0.08784
-0.0732,0.03904,-0.00488,0.03172,0.06832,-0.07076,0.00976,-0.03904,-0.04392,-0.0732,-0.08296,-0.08784
-0.0732,0.03904,-0.00488,0.03172,0.06832,-0.07076,0.00488,-0.03904,-0.04392,-0.0732,-0.07808,-0.08296
-0.0732,0.04148,-0.00976,0.02684,0.06344,-0.06832,0.00488,-0.03904,-0.04392,-0.0732,-0.08296,-0.08296
-0.07808,0.04636,-0.01464,0.0244,0.06344,-0.07076,0.00976,-0.03904,-0.04392,-0.0732,-0.08784,-0.08784
-0.07808,0.04636,-0.01464,0.0244,0.06344,-0.07076,0.00976,-0.03904,-0.04392,-0.0732,-0.08784,-0.08784
-0.07808,0.04636,-0.01464,0.0244,0.06344,-0.07076,0.00488,-0.03904,-0.0488,-0.07808,-0.08784,-0.09272
-0.06832,0.03904,-0.00976,0.0244,0.05856,-0.06344,0.00488,-0.04392,-0.0488,-0.0732,-0.08784,-0.08784
-0.06832,0.03904,-0.00976,0.0244,0.05856,-0.06344,0.00488,-0.04392,-0.0488,-0.06832,-0.08784,-0.08784
-0.06832,0.0366,-0.00488,0.02928,0.06344,-0.06588,0,-0.04392,-0.0488,-0.06832,-0.08784,-0.08784
-0.06832,0.0366,-0.00488,0.02928,0.06344,-0.06588,0,-0.04392,-0.05368,-0.06832,-0.08784,-0.08296
-0.06832,0.04148,-0.01464,0.01952,0.05368,-0.061,0.00488,-0.04392,-0.05856,-0.07808,-0.10248,-0.09272
-0.0732,0.04636,-0.01952,0.01708,0.05368,-0.06344,0.00488,-0.04392,-0.06344,-0.08784,-0.11712,-0.10248
-0.06832,0.04148,-0.01464,0.01952,0.05368,-0.061,0.00488,-0.04392,-0.06344,-0.07808,-0.08296,-0.08784
-0.06344,0.03904,-0.01464,0.01708,0.0488,-0.05612,0.00488,-0.04392,-0.0732,-0.06832,-0.06832,-0.0732
-0.06344,0.04148,-0.01952,0.0122,0.04392,-0.05368,0.00488,-0.0488,-0.06344,-0.06344,-0.06832,-0.0732
-0.06344,0.04392,-0.0244,0.00732,0.03904,-0.05124,0.00488,-0.0488,-0.05368,-0.05368,-0.06832,-0.0732
-0.06832,0.04392,-0.01952,0.01464,0.0488,-0.05856,0.00488,-0.0488,-0.06344,-0.06832,-0.07808,-0.07808
-0.0732,0.04392,-0.01464,0.02196,0.05856,-0.06588,0,-0.0488,-0.0732,-0.08784,-0.09272,-0.08296
-0.0732,0.04148,-0.00976,0.02684,0.06344,-0.06832,-0.00488,-0.0488,-0.07808,-0.09272,-0.0976,-0.09272
-0.0732,0.03904,-0.00488,0.03172,0.06832,-0.07076,-0.00976,-0.0488,-0.07808,-0.09272,-0.10248,-0.0976
-0.0732,0.03904,-0.00488,0.03172,0.06832,-0.07076,-0.00976,-0.0488,-0.08296,-0.08784,-0.10248,-0.0976
-0.0732,0.03904,-0.00488,0.03172,0.06832,-0.07076,-0.00488,-0.0488,-0.08296,-0.08784,-0.10248,-0.0976
-0.07808,0.04636,-0.01464,0.0244,0.06344,-0.07076,0,-0.05368,-0.07808,-0.0976,-0.11224,-0.0976
-0.08296,0.05368,-0.0244,0.01708,0.05856,-0.07076,0.00488,-0.05368,-0.06832,-0.0976,-0.11224,-0.09272
-0.08296,0.05368,-0.0244,0.01708,0.05856,-0.07076,0.00488,-0.05368,-0.07808,-0.0976,-0.11224,-0.09272
-0.08296,0.05612,-0.02928,0.0122,0.05368,-0.06832,0,-0.05368,-0.08784,-0.0976,-0.10736,-0.09272
-0.08296,0.05368,-0.0244,0.01708,0.05856,-0.07076,0,-0.05368,-0.08784,-0.09272,-0.0976,-0.09272
-0.08296,0.05124,-0.01952,0.02196,0.06344,-0.0732,0,-0.05368,-0.08784,-0.09272,-0.09272,-0.09272
-0.0732,0.04636,-0.01952,0.01708,0.05368,-0.06344,0,-0.05368,-0.09272,-0.08784,-0.09272,-0.0976
-0.05856,0.0366,-0.01464,0.01464,0.04392,-0.05124,0,-0.05856,-0.09272,-0.08296,-0.09272,-0.0976
-0.06832,0.04148,-0.01464,0.01952,0.05368,-0.061,0,-0.05856,-0.09272,-0.09272,-0.0976,-0.09272
-0.07808,0.0488,-0.01952,0.01952,0.05856,-0.06832,0,-0.05856,-0.09272,-0.10248,-0.10248,-0.09272
-0.07808,0.05124,-0.0244,0.01464,0.05368,-0.06588,0,-0.05856,-0.09272,-0.09272,-0.0976,-0.09272
-0.07808,0.05124,-0.0244,0.01464,0.05368,-0.06588,0,-0.05856,-0.09272,-0.10248,-0.0976,-0.09272
-0.07808,0.05368,-0.02928,0.00976,0.0488,-0.06344,0,-0.05856,-0.0976,-0.10248,-0.10248,-0.0976
-0.07808,0.05856,-0.03904,0,0.03904,-0.05856,0,-0.05856,-0.0976,-0.10248,-0.10248,-0.0976
-0.07808,0.05856,-0.03904,0,0.03904,-0.05856,0,-0.05856,-0.0976,-0.10248,-0.10248,-0.0976
-0.07808,0.05856,-0.03904,0,0.03904,-0.05856,0,-0.05856,-0.0976,-0.10248,-0.10248,-0.0976
-0.07808,0.05124,-0.0244,0.01464,0.05368,-0.06588,0,-0.05856,-0.0976,-0.10248,-0.10248,-0.10736
-0.07808,0.04148,-0.00488,0.03416,0.0732,-0.07564,-0.00488,-0.05856,-0.10248,-0.10736,-0.10736,-0.11712
-0.07808,0.0488,-0.01952,0.01952,0.05856,-0.06832,0,-0.05368,-0.10248,-0.10736,-0.10736,-0.10736
-0.07808,0.05612,-0.03416,0.00488,0.04392,-0.061,0.00488,-0.0488,-0.0976,-0.10736,-0.10736,-0.0976
-0.07808,0.061,-0.04392,-0.00488,0.03416,-0.05612,0.00488,-0.0488,-0.10248,-0.10248,-0.10736,-0.0976
-0.0732,0.06344,-0.05368,-0.01708,0.01952,-0.04636,0.00488,-0.0488,-0.10736,-0.10248,-0.11224,-0.10248
-0.0732,0.06344,-0.05368,-0.01708,0.01952,-0.04636,0.00488,-0.05368,-0.10248,-0.10248,-0.11224,-0.10248
-0.07808,0.06588,-0.05368,-0.01464,0.0244,-0.05124,0,-0.05856,-0.10248,-0.10248,-0.10736,-0.10248
-0.07808,0.06588,-0.05368,-0.01464,0.0244,-0.05124,0,-0.05856,-0.0976,-0.09272,-0.10248,-0.09272
-0.07808,0.06344,-0.0488,-0.00976,0.02928,-0.05368,0,-0.05856,-0.08784,-0.08296,-0.0976,-0.08296
-0.07808,0.05612,-0.03416,0.00488,0.04392,-0.061,0.00488,-0.05856,-0.08784,-0.08296,-0.0976,-0.08296
-0.07808,0.05124,-0.0244,0.01464,0.05368,-0.06588,0.00488,-0.05856,-0.08784,-0.08784,-0.0976,-0.08296
-0.07808,0.05124,-0.0244,0.01464,0.05368,-0.06588,0,-0.05856,-0.09272,-0.09272,-0.10736,-0.09272
-0.07808,0.05368,-0.02928,0.00976,0.0488,-0.06344,0,-0.05856,-0.0976,-0.0976,-0.11712,-0.10736
-0.07808,0.05856,-0.03904,0,0.03904,-0.05856,0.00488,-0.05856,-0.0976,-0.0976,-0.11712,-0.10736
-0.07808,0.06344,-0.0488,-0.00976,0.02928,-0.05368,0.00976,-0.05856,-0.0976,-0.0976,-0.11712,-0.10736
-0.08296,0.06588,-0.0488,-0.00732,0.03416,-0.05856,0.00976,-0.05856,-0.0976,-0.0976,-0.11224,-0.10248
-0.08296,0.06588,-0.0488,-0.00732,0.03416,-0.05856,0.00488,-0.05856,-0.0976,-0.09272,-0.10736,-0.0976
-0.08784,0.07076,-0.05368,-0.00976,0.03416,-0.061,0.00488,-0.05856,-0.0976,-0.09272,-0.10736,-0.09272
-0.07808,0.06344,-0.0488,-0.00976,0.02928,-0.05368,0,-0.05856,-0.0976,-0.09272,-0.10248,-0.08784
-0.07808,0.05612,-0.03416,0.00488,0.04392,-0.061,0,-0.06344,-0.08784,-0.08296,-0.0976,-0.07808
-0.07808,0.04636,-0.01464,0.0244,0.06344,-0.07076,0,-0.06344,-0.07808,-0.0732,-0.08784,-0.06832
-0.0732,0.03904,-0.00488,0.03172,0.06832,-0.07076,0.00488,-0.05368,-0.06832,-0.07808,-0.08784,-0.06832
-0.06832,0.03904,-0.00976,0.0244,0.05856,-0.06344,0.00488,-0.0488,-0.05856,-0.07808,-0.07808,-0.05856
-0.06344,0.03416,-0.00488,0.02684,0.05856,-0.061,0.00488,-0.0488,-0.05368,-0.06344,-0.05856,-0.04392
-0.06344,0.0366,-0.00976,0.02196,0.05368,-0.05856,0.00488,-0.0488,-0.0488,-0.0488,-0.03904,-0.03416
-0.05856,0.02196,0.01464,0.04392,0.0732,-0.06588,0,-0.0488,-0.03416,-0.04392,-0.0488,-0.03904
-0.05368,0.01464,0.0244,0.05124,0.07808,-0.06588,0,-0.0488,-0.02928,-0.04392,-0.05856,-0.0488
-0.0488,0.01708,0.01464,0.03904,0.06344,-0.05612,-0.01464,-0.05368,-0.03416,-0.04392,-0.06344,-0.05368
-0.0488,0.01708,0.01464,0.03904,0.06344,-0.05612,-0.01952,-0.06832,-0.03904,-0.04392,-0.06832,-0.05856
-0.05856,0.01464,0.02928,0.05856,0.08784,-0.0732,-0.02928,-0.0732,-0.03904,-0.04392,-0.06344,-0.05368
-0.05368,0.00244,0.0488,0.07564,0.10248,-0.07808,-0.04392,-0.08296,-0.03904,-0.03904,-0.05368,-0.04392
-0.03416,-0.01952,0.0732,0.09028,0.10736,-0.07076,-0.06832,-0.0976,-0.04392,-0.03904,-0.04392,-0.02928
-0.03416,-0.0244,0.08296,0.10004,0.11712,-0.07564,-0.07808,-0.10736,-0.05368,-0.04392,-0.03904,-0.0244
-0.03904,-0.02196,0.08296,0.10248,0.122,-0.08052,-0.07808,-0.11224,-0.05368,-0.04392,-0.03416,-0.0244
-0.03904,-0.0244,0.08784,0.10736,0.12688,-0.08296,-0.0732,-0.11712,-0.0488,-0.03904,-0.03416,-0.01952
-0.02928,-0.03904,0.10736,0.122,0.13664,-0.08296,-0.0732,-0.11712,-0.04392,-0.03416,-0.03416,-0.01952
-0.01952,-0.04148,0.10248,0.11224,0.122,-0.07076,-0.0732,-0.11224,-0.05368,-0.03904,-0.03416,-0.0244
-0.01464,-0.03416,0.08296,0.09028,0.0976,-0.05612,-0.06832,-0.10736,-0.0732,-0.0488,-0.0488,-0.03416
-0.01464,-0.0244,0.06344,0.07076,0.07808,-0.04636,-0.05856,-0.09272,-0.08296,-0.06832,-0.05856,-0.04392
-0.01464,-0.01464,0.04392,0.05124,0.05856,-0.0366,-0.0488,-0.08296,-0.0976,-0.07808,-0.0732,-0.06344
-0.01464,-0.00244,0.01952,0.02684,0.03416,-0.0244,-0.03904,-0.07808,-0.10736,-0.08784,-0.07808,-0.0732
-0.04392,0.02928,-0.01464,0.00732,0.02928,-0.0366,-0.01952,-0.07808,-0.10736,-0.0976,-0.0976,-0.08784
-0.06832,0.05368,-0.03904,-0.00488,0.02928,-0.0488,-0.00488,-0.08296,-0.11712,-0.10248,-0.0976,-0.09272
-0.06832,0.0488,-0.02928,0.00488,0.03904,-0.05368,-0.01464,-0.08296,-0.122,-0.10736,-0.0976,-0.09272
-0.06832,0.04636,-0.0244,0.00976,0.04392,-0.05612,-0.01952,-0.07808,-0.12688,-0.11712,-0.10248,-0.0976
-0.07808,0.0488,-0.01952,0.01952,0.05856,-0.06832,-0.01952,-0.07808,-0.13664,-0.11712,-0.11224,-0.10248
-0.07808,0.05124,-0.0244,0.01464,0.05368,-0.06588,-0.01952,-0.07808,-0.14152,-0.13176,-0.12688,-0.11224
-0.07808,0.05856,-0.03904,0,0.03904,-0.05856,-0.00976,-0.07808,-0.14152,-0.13176,-0.12688,-0.11224
-0.07808,0.06588,-0.05368,-0.01464,0.0244,-0.05124,0,-0.07808,-0.14152,-0.13176,-0.12688,-0.11224
-0.08296,0.06832,-0.05368,-0.0122,0.02928,-0.05612,0,-0.07808,-0.14152,-0.13176,-0.12688,-0.11712
-0.08296,0.06832,-0.05368,-0.0122,0.02928,-0.05612,0.00488,-0.07808,-0.13664,-0.13176,-0.12688,-0.11712
-0.07808,0.06588,-0.05368,-0.01464,0.0244,-0.05124,0.00488,-0.0732,-0.13664,-0.13176,-0.13176,-0.12688
-0.07808,0.06588,-0.05368,-0.01464,0.0244,-0.05124,0.00488,-0.0732,-0.13664,-0.13176,-0.13664,-0.13664
-0.08784,0.07076,-0.05368,-0.00976,0.03416,-0.061,0.00488,-0.0732,-0.13176,-0.13176,-0.13664,-0.13176
-0.08784,0.07076,-0.05368,-0.00976,0.03416,-0.061,0.00488,-0.0732,-0.13176,-0.13664,-0.13664,-0.13176
-0.08784,0.07076,-0.05368,-0.00976,0.03416,-0.061,0.00488,-0.0732,-0.12688,-0.13664,-0.13176,-0.13176
-0.08296,0.06832,-0.05368,-0.0122,0.02928,-0.05612,0.00488,-0.0732,-0.12688,-0.13176,-0.13176,-0.13176
-0.08296,0.06344,-0.04392,-0.00244,0.03904,-0.061,0.00488,-0.0732,-0.12688,-0.13176,-0.12688,-0.122
-0.08296,0.061,-0.03904,0.00244,0.04392,-0.06344,0.00488,-0.06832,-0.11712,-0.12688,-0.11712,-0.11712
-0.06832,0.05124,-0.03416,0,0.03416,-0.05124,-0.00976,-0.07808,-0.13176,-0.12688,-0.11712,-0.10736
-0.05368,0.04392,-0.03416,-0.00732,0.01952,-0.0366,-0.01952,-0.08296,-0.14152,-0.122,-0.122,-0.10248
-0.08784,0.0732,-0.05856,-0.01464,0.02928,-0.05856,0.01464,-0.05856,-0.12688,-0.1464,-0.16592,-0.15616
-0.15128,0.10248,-0.05368,0.02196,0.0976,-0.12444,0.08784,-0.00488,-0.0244,-0.11224,-0.1952,-0.1952
-0.26352,0.12444,0.01464,0.1464,0.27816,-0.27084,0.13176,-0.0244,0.13664,-0.01952,-0.20496,-0.23424
-0.2928,0.11468,0.06344,0.20984,0.35624,-0.32452,0.21472,0.0732,0.33672,0.12688,-0.10736,-0.18056
-0.18544,0.03416,0.11712,0.20984,0.30256,-0.244,0.40504,0.488,0.7564,0.42456,0.18056,0.01952
-0.00976,-0.11468,0.23912,0.244,0.24888,-0.12932,0.488,0.79056,1.15656,0.76128,0.52704,0.28304
0.25376,-0.30744,0.36112,0.23424,0.10736,0.0732,0.36112,0.8296,1.11752,0.94672,0.8784,0.62464
0.52216,-0.52704,0.53192,0.27084,0.00976,0.2562,0.10736,0.66368,0.92232,1.07848,1.23464,0.98088
0.95648,-0.9394,0.92232,0.44408,-0.03416,0.49532,-0.37088,0.30256,0.71736,1.42984,1.9032,1.61528
1.20536,-1.159,1.11264,0.50996,-0.09272,0.64904,-0.6832,0.01952,0.38064,1.4396,2.1472,1.90808
1.09312,-0.9882,0.88328,0.33672,-0.20984,0.65148,-0.79056,-0.31232,-0.25864,0.73688,1.4152,1.37128
0.81496,-0.7442,0.67344,0.26596,-0.14152,0.47824,-0.81496,-0.62464,-0.7076,0.17568,0.7564,0.84912
0.41968,-0.4636,0.50752,0.29768,0.08784,0.16592,-0.7808,-0.89792,-0.99552,-0.36112,0,0.28304
0.16592,-0.24644,0.32696,0.244,0.16104,0.00244,-0.71248,-1.0004,-1.16144,-0.71248,-0.46848,-0.10248
0.05856,-0.15616,0.25376,0.22448,0.1952,-0.06832,-0.59048,-0.87352,-1.00528,-0.66368,-0.44408,-0.13176
0.01952,-0.09272,0.16592,0.15616,0.1464,-0.06344,-0.47336,-0.71736,-0.84912,-0.59048,-0.4148,-0.15616
0.03904,-0.08052,0.122,0.10248,0.08296,-0.02196,-0.35624,-0.51728,-0.65392,-0.44896,-0.30256,-0.10736
0.00488,-0.04636,0.08784,0.0854,0.08296,-0.03904,-0.2196,-0.3416,-0.4392,-0.30744,-0.2196,-0.0976
-0.0244,-0.01708,0.05856,0.07076,0.08296,-0.05368,-0.14152,-0.22448,-0.30256,-0.2196,-0.17568,-0.09272
-0.04392,0.0122,0.01952,0.04148,0.06344,-0.05368,-0.06832,-0.13176,-0.19032,-0.15128,-0.14152,-0.09272
-0.04392,0.01952,0.00488,0.02684,0.0488,-0.04636,-0.03904,-0.10248,-0.16592,-0.14152,-0.13664,-0.0976
-0.05368,0.02684,0,0.02684,0.05368,-0.05368,-0.01464,-0.08296,-0.1464,-0.13664,-0.13664,-0.10248
-0.0732,0.04636,-0.01952,0.01708,0.05368,-0.06344,0,-0.06344,-0.12688,-0.12688,-0.13176,-0.11224
-0.08296,0.05856,-0.03416,0.00732,0.0488,-0.06588,0.01952,-0.0488,-0.11224,-0.12688,-0.13176,-0.11712
-0.0732,0.05368,-0.03416,0.00244,0.03904,-0.05612,0.02928,-0.03904,-0.10248,-0.11712,-0.13176,-0.11712
-0.06832,0.05124,-0.03416,0,0.03416,-0.05124,0.02928,-0.02928,-0.09272,-0.10248,-0.122,-0.11712
-0.06832,0.05124,-0.03416,0,0.03416,-0.05124,0.03416,-0.0244,-0.07808,-0.10248,-0.122,-0.11712
-0.06832,0.05124,-0.03416,0,0.03416,-0.05124,0.03904,-0.01952,-0.0732,-0.0976,-0.11712,-0.11224
-0.06344,0.05124,-0.03904,-0.00732,0.0244,-0.04392,0.04392,-0.01464,-0.06832,-0.09272,-0.11224,-0.11224
-0.06344,0.05124,-0.03904,-0.00732,0.0244,-0.04392,0.0488,-0.01464,-0.06344,-0.09272,-0.10736,-0.11224
-0.06832,0.05856,-0.0488,-0.01464,0.01952,-0.04392,0.05368,-0.00976,-0.05856,-0.08784,-0.10736,-0.10736
-0.0732,0.06344,-0.05368,-0.01708,0.01952,-0.04636,0.05856,-0.00488,-0.05368,-0.08784,-0.10248,-0.10736
-0.0732,0.06344,-0.05368,-0.01708,0.01952,-0.04636,0.05856,0,-0.0488,-0.08784,-0.10736,-0.10736
-0.0732,0.06588,-0.05856,-0.02196,0.01464,-0.04392,0.05856,0,-0.0488,-0.07808,-0.10736,-0.10736
-0.0732,0.06588,-0.05856,-0.02196,0.01464,-0.04392,0.05368,0.00488,-0.04392,-0.07808,-0.10248,-0.10736
-0.06832,0.061,-0.05368,-0.01952,0.01464,-0.04148,0.05368,0.00976,-0.03904,-0.0732,-0.10248,-0.10248
-0.06344,0.05856,-0.05368,-0.02196,0.00976,-0.0366,0.05368,0.01464,-0.03416,-0.0732,-0.0976,-0.10248
-0.06344,0.05612,-0.0488,-0.01708,0.01464,-0.03904,0.05368,0.01464,-0.02928,-0.0732,-0.0976,-0.10248
-0.06344,0.05124,-0.03904,-0.00732,0.0244,-0.04392,0.05368,0.01952,-0.02928,-0.06832,-0.0976,-0.0976
-0.06344,0.0488,-0.03416,-0.00244,0.02928,-0.04636,0.05368,0.01952,-0.0244,-0.06344,-0.09272,-0.0976
-0.05856,0.04636,-0.03416,-0.00488,0.0244,-0.04148,0.05368,0.0244,-0.01952,-0.05856,-0.08784,-0.0976
-0.0488,0.04148,-0.03416,-0.00976,0.01464,-0.03172,0.05368,0.02928,-0.00976,-0.05856,-0.08784,-0.09272
-0.04392,0.0366,-0.02928,-0.00732,0.01464,-0.02928,0.05856,0.03416,-0.00488,-0.0488,-0.07808,-0.08296
-0.04392,0.03416,-0.0244,-0.00244,0.01952,-0.03172,0.05856,0.03416,0,-0.03904,-0.06832,-0.07808
-0.04392,0.03416,-0.0244,-0.00244,0.01952,-0.03172,0.05856,0.03904,0.00488,-0.03416,-0.06344,-0.0732
-0.03904,0.02684,-0.01464,0.00488,0.0244,-0.03172,0.05368,0.03904,0.00488,-0.02928,-0.05856,-0.06832
-0.03416,0.02196,-0.00976,0.00732,0.0244,-0.02928,0.05368,0.0488,0.01464,-0.03416,-0.06344,-0.0732
-0.03416,0.01952,-0.00488,0.0122,0.02928,-0.03172,0.05368,0.05368,0.0244,-0.02928,-0.05856,-0.0732
-0.0244,0.0122,0,0.0122,0.0244,-0.0244,0.05856,0.05856,0.0244,-0.0244,-0.05856,-0.0732
-0.01952,0.00976,0,0.00976,0.01952,-0.01952,0.06344,0.06344,0.03416,-0.01952,-0.0488,-0.06344
-0.01952,0.00976,0,0.00976,0.01952,-0.01952,0.06344,0.0732,0.04392,-0.01464,-0.03904,-0.05856
-0.01952,0.00488,0.00976,0.01952,0.02928,-0.0244,0.06344,0.08296,0.05368,-0.00488,-0.02928,-0.0488
-0.01952,0.00488,0.00976,0.01952,0.02928,-0.0244,0.06344,0.08296,0.06344,0.00488,-0.01952,-0.04392
-0.00976,-0.00488,0.01952,0.0244,0.02928,-0.01952,0.06344,0.08296,0.07808,0.01464,-0.00976,-0.03416
0,-0.0122,0.0244,0.0244,0.0244,-0.0122,0.05368,0.09272,0.08784,0.02928,0.00488,-0.0244
0.00488,-0.02196,0.03904,0.0366,0.03416,-0.01464,0.0488,0.10248,0.0976,0.03904,0.01464,-0.01952
0.01952,-0.03416,0.0488,0.03904,0.02928,-0.00488,0.0488,0.11224,0.10736,0.0488,0.03416,-0.00488
0.04392,-0.05368,0.06344,0.04148,0.01952,0.0122,0.0488,0.122,0.12688,0.0732,0.05368,0.00488
0.0488,-0.05856,0.06832,0.04392,0.01952,0.01464,0.0488,0.12688,0.15128,0.09272,0.06832,0.0244
0.06344,-0.0732,0.08296,0.05124,0.01952,0.02196,0.05368,0.13176,0.16592,0.10248,0.08296,0.03416
0.06832,-0.08296,0.0976,0.06344,0.02928,0.01952,0.04392,0.14152,0.17568,0.11224,0.10248,0.05856
0.08296,-0.0976,0.11224,0.07076,0.02928,0.02684,0.03416,0.1464,0.1952,0.13664,0.122,0.07808
0.0976,-0.11224,0.12688,0.07808,0.02928,0.03416,0.02928,0.15128,0.20496,0.15616,0.1464,0.10248
0.10248,-0.122,0.14152,0.09028,0.03904,0.03172,0.0244,0.15616,0.22448,0.1708,0.16592,0.12688
0.11712,-0.13664,0.15616,0.0976,0.03904,0.03904,0.01464,0.1708,0.23424,0.19032,0.19032,0.1464
0.13176,-0.15128,0.1708,0.10492,0.03904,0.04636,0.00976,0.17568,0.244,0.20496,0.21472,0.16592
0.15128,-0.17324,0.1952,0.11956,0.04392,0.05368,0.00488,0.17568,0.25864,0.22448,0.23912,0.18544
0.16592,-0.19032,0.21472,0.13176,0.0488,0.05856,-0.00976,0.17568,0.2684,0.23912,0.24888,0.20008
0.17568,-0.2074,0.23912,0.15128,0.06344,0.05612,-0.00976,0.17568,0.27816,0.24888,0.2684,0.20984
0.18544,-0.2196,0.25376,0.16104,0.06832,0.05856,-0.01952,0.17568,0.27816,0.26352,0.27816,0.22448
0.19032,-0.22448,0.25864,0.16348,0.06832,0.061,-0.0244,0.17568,0.28304,0.27328,0.29768,0.23912
0.20008,-0.2318,0.26352,0.16348,0.06344,0.06832,-0.02928,0.17568,0.2928,0.28304,0.3172,0.25864
0.20496,-0.23424,0.26352,0.16104,0.05856,0.0732,-0.03904,0.1708,0.2928,0.2928,0.32696,0.2684
0.20496,-0.2318,0.25864,0.15616,0.05368,0.07564,-0.03904,0.16592,0.2928,0.29768,0.33184,0.27328
0.20984,-0.23668,0.26352,0.1586,0.05368,0.07808,-0.03904,0.16104,0.2928,0.29768,0.33672,0.27328
0.20984,-0.23668,0.26352,0.1586,0.05368,0.07808,-0.04392,0.1464,0.28792,0.29768,0.33672,0.27816
0.20008,-0.23668,0.27328,0.17324,0.0732,0.06344,-0.0488,0.14152,0.28792,0.2928,0.33184,0.28792
0.1952,-0.23668,0.27816,0.18056,0.08296,0.05612,-0.0488,0.12688,0.27816,0.28792,0.33184,0.28792
0.19032,-0.22936,0.2684,0.17324,0.07808,0.05612,-0.05368,0.11224,0.2684,0.28304,0.30744,0.27328
0.17568,-0.21716,0.25864,0.1708,0.08296,0.04636,-0.05856,0.09272,0.24888,0.26352,0.28792,0.25864
0.15616,-0.20252,0.24888,0.1708,0.09272,0.03172,-0.05856,0.0732,0.22936,0.24888,0.2684,0.23912
0.13176,-0.18056,0.22936,0.16348,0.0976,0.01708,-0.05856,0.0488,0.20008,0.22448,0.23912,0.21472
0.11224,-0.16104,0.20984,0.15372,0.0976,0.00732,-0.0488,0.03904,0.17568,0.20496,0.20984,0.18544
0.09272,-0.14152,0.19032,0.14396,0.0976,-0.00244,-0.04392,0.0244,0.15616,0.17568,0.18544,0.16592
0.06344,-0.11468,0.16592,0.1342,0.10248,-0.01952,-0.02928,0.00976,0.12688,0.15128,0.15616,0.14152
0.0488,-0.09516,0.14152,0.11712,0.09272,-0.02196,-0.0244,0,0.0976,0.122,0.122,0.0976
0.03416,-0.08052,0.12688,0.1098,0.09272,-0.02928,-0.0244,-0.01464,0.06832,0.08784,0.09272,0.06832
0.01464,-0.06344,0.11224,0.10492,0.0976,-0.04148,-0.0244,-0.01952,0.05368,0.05368,0.05856,0.0488
0,-0.04636,0.09272,0.09272,0.09272,-0.04636,-0.01464,-0.0244,0.03416,0.03904,0.03904,0.02928
-0.01464,-0.02928,0.0732,0.08052,0.08784,-0.05124,-0.00976,-0.02928,0.00976,0.01952,0.00488,0
-0.0244,-0.01464,0.05368,0.06588,0.07808,-0.05124,-0.00488,-0.02928,-0.00976,-0.00488,-0.01464,-0.01464
-0.03416,-0.00488,0.04392,0.061,0.07808,-0.05612,-0.00488,-0.03904,-0.0244,-0.0244,-0.03416,-0.03416
-0.04392,0.00488,0.03416,0.05612,0.07808,-0.061,0,-0.0488,-0.04392,-0.02928,-0.0488,-0.04392
-0.04392,0.00732,0.02928,0.05124,0.0732,-0.05856,0,-0.05368,-0.04392,-0.04392,-0.06832,-0.05856
-0.04392,0.01464,0.01464,0.0366,0.05856,-0.05124,0.00488,-0.05368,-0.05856,-0.05368,-0.0732,-0.06344
-0.04392,0.01952,0.00488,0.02684,0.0488,-0.04636,0.00976,-0.05368,-0.06832,-0.06832,-0.08296,-0.0732
-0.05368,0.02928,-0.00488,0.02196,0.0488,-0.05124,0.00976,-0.05368,-0.06832,-0.07808,-0.09272,-0.08296
-0.05368,0.02928,-0.00488,0.02196,0.0488,-0.05124,0.01464,-0.05368,-0.0732,-0.07808,-0.0976,-0.08784
-0.05368,0.02928,-0.00488,0.02196,0.0488,-0.05124,0.01464,-0.0488,-0.07808,-0.08296,-0.0976,-0.08784
-0.05368,0.03172,-0.00976,0.01708,0.04392,-0.0488,0.01464,-0.04392,-0.07808,-0.08296,-0.0976,-0.09272
-0.05368,0.03416,-0.01464,0.0122,0.03904,-0.04636,0.01464,-0.0488,-0.08296,-0.08296,-0.0976,-0.09272
-0.06344,0.04148,-0.01952,0.0122,0.04392,-0.05368,0.01464,-0.0488,-0.08296,-0.08296,-0.0976,-0.09272
-0.06344,0.04392,-0.0244,0.00732,0.03904,-0.05124,0.01464,-0.04392,-0.08296,-0.08784,-0.09272,-0.09272
-0.05368,0.04148,-0.02928,-0.00244,0.0244,-0.03904,0.01464,-0.04392,-0.08296,-0.08784,-0.0976,-0.0976
-0.06344,0.04636,-0.02928,0.00244,0.03416,-0.0488,0.01952,-0.04392,-0.07808,-0.08784,-0.0976,-0.0976
-0.06344,0.04636,-0.02928,0.00244,0.03416,-0.0488,0.02928,-0.04392,-0.0732,-0.08784,-0.0976,-0.0976
-0.05856,0.04392,-0.02928,0,0.02928,-0.04392,0.02928,-0.03904,-0.06832,-0.09272,-0.0976,-0.10248
-0.05368,0.03904,-0.0244,0.00244,0.02928,-0.04148,0.02928,-0.03904,-0.06832,-0.09272,-0.10248,-0.10248
-0.05368,0.0366,-0.01952,0.00732,0.03416,-0.04392,0.0244,-0.03904,-0.06832,-0.08784,-0.10736,-0.10736
-0.05856,0.0366,-0.01464,0.01464,0.04392,-0.05124,0.01952,-0.04392,-0.06832,-0.08784,-0.10736,-0.10736
-0.05856,0.0366,-0.01464,0.01464,0.04392,-0.05124,0.01952,-0.04392,-0.06344,-0.08784,-0.11224,-0.10736
-0.05368,0.03416,-0.01464,0.0122,0.03904,-0.04636,0.01952,-0.04392,-0.06344,-0.08784,-0.11224,-0.10736
-0.05856,0.0366,-0.01464,0.01464,0.04392,-0.05124,0.01952,-0.04392,-0.05856,-0.08296,-0.11224,-0.11224
-0.06832,0.04148,-0.01464,0.01952,0.05368,-0.061,0.01952,-0.04392,-0.05856,-0.08296,-0.11224,-0.11712
-0.06832,0.04148,-0.01464,0.01952,0.05368,-0.061,0.01952,-0.0488,-0.05368,-0.08296,-0.11712,-0.11712
-0.06832,0.04148,-0.01464,0.01952,0.05368,-0.061,0.01952,-0.0488,-0.05368,-0.0732,-0.11224,-0.11224
-0.06344,0.03416,-0.00488,0.02684,0.05856,-0.061,0.01952,-0.0488,-0.05368,-0.0732,-0.11224,-0.10736
-0.06344,0.03416,-0.00488,0.02684,0.05856,-0.061,0.01952,-0.0488,-0.05368,-0.07808,-0.11224,-0.10736
-0.06344,0.03416,-0.00488,0.02684,0.05856,-0.061,0.01952,-0.04392,-0.05368,-0.07808,-0.11224,-0.10736
-0.06344,0.03416,-0.00488,0.02684,0.05856,-0.061,0.01464,-0.03904,-0.05368,-0.0732,-0.10736,-0.10248
-0.05368,0.02684,0,0.02684,0.05368,-0.05368,0.01464,-0.03904,-0.05368,-0.0732,-0.10248,-0.0976
-0.0488,0.02196,0.00488,0.02928,0.05368,-0.05124,0.01952,-0.03904,-0.05368,-0.0732,-0.0976,-0.0976
-0.06344,0.03416,-0.00488,0.02684,0.05856,-0.061,0.0244,-0.03904,-0.05368,-0.0732,-0.0976,-0.0976
-0.07808,0.04636,-0.01464,0.0244,0.06344,-0.07076,0.0244,-0.03904,-0.05856,-0.07808,-0.0976,-0.10248
-0.06832,0.03904,-0.00976,0.0244,0.05856,-0.06344,0.0244,-0.04392,-0.05856,-0.0732,-0.0976,-0.10248
-0.06832,0.03904,-0.00976,0.0244,0.05856,-0.06344,0.0244,-0.04392,-0.05856,-0.06832,-0.0976,-0.10736
-0.06832,0.0366,-0.00488,0.02928,0.06344,-0.06588,0.01952,-0.04392,-0.05856,-0.06832,-0.0976,-0.10736
-0.06832,0.0366,-0.00488,0.02928,0.06344,-0.06588,0.01952,-0.04392,-0.06344,-0.06832,-0.0976,-0.10248
-0.06832,0.03904,-0.00976,0.0244,0.05856,-0.06344,0.0244,-0.04392,-0.06344,-0.06832,-0.0976,-0.10248
-0.0732,0.04148,-0.00976,0.02684,0.06344,-0.06832,0.0244,-0.04392,-0.06344,-0.06832,-0.0976,-0.10248
-0.0732,0.04392,-0.01464,0.02196,0.05856,-0.06588,0.0244,-0.04392,-0.05856,-0.06832,-0.08784,-0.10248
-0.0732,0.0488,-0.0244,0.0122,0.0488,-0.061,0.0244,-0.04392,-0.06344,-0.06832,-0.0976,-0.10248
-0.0732,0.05124,-0.02928,0.00732,0.04392,-0.05856,0.0244,-0.0488,-0.06344,-0.0732,-0.0976,-0.10248
-0.0732,0.05368,-0.03416,0.00244,0.03904,-0.05612,0.0244,-0.0488,-0.06344,-0.0732,-0.0976,-0.10248
-0.0732,0.0488,-0.0244,0.0122,0.0488,-0.061,0.0244,-0.0488,-0.06344,-0.0732,-0.0976,-0.10248
-0.0732,0.04392,-0.01464,0.02196,0.05856,-0.06588,0.01952,-0.0488,-0.06344,-0.07808,-0.10248,-0.10248
-0.06832,0.04392,-0.01952,0.01464,0.0488,-0.05856,0.01952,-0.0488,-0.06832,-0.08296,-0.10248,-0.10736
-0.06344,0.04392,-0.0244,0.00732,0.03904,-0.05124,0.01952,-0.0488,-0.06832,-0.08296,-0.10248,-0.10736
-0.06344,0.04392,-0.0244,0.00732,0.03904,-0.05124,0.01952,-0.0488,-0.0732,-0.07808,-0.0976,-0.10248
-0.06344,0.04392,-0.0244,0.00732,0.03904,-0.05124,0.0244,-0.0488,-0.0732,-0.07808,-0.09272,-0.0976
-0.06344,0.04392,-0.0244,0.00732,0.03904,-0.05124,0.0244,-0.05368,-0.07808,-0.08784,-0.10248,-0.10248
-0.06344,0.04392,-0.0244,0.00732,0.03904,-0.05124,0.0244,-0.05368,-0.07808,-0.08784,-0.10248,-0.10248
-0.06344,0.04392,-0.0244,0.00732,0.03904,-0.05124,0.0244,-0.05368,-0.07808,-0.08784,-0.10736,-0.10248
-0.06344,0.04636,-0.02928,0.00244,0.03416,-0.0488,0.01952,-0.05368,-0.07808,-0.08784,-0.10736,-0.10248
-0.06344,0.04636,-0.02928,0.00244,0.03416,-0.0488,0.01952,-0.0488,-0.07808,-0.08296,-0.10736,-0.10248
-0.06344,0.04636,-0.02928,0.00244,0.03416,-0.0488,0.01952,-0.04392,-0.07808,-0.08296,-0.11224,-0.10248
-0.06832,0.0488,-0.02928,0.00488,0.03904,-0.05368,0.01952,-0.04392,-0.08296,-0.08784,-0.11224,-0.10736
-0.06832,0.04636,-0.0244,0.00976,0.04392,-0.05612,0.01952,-0.0488,-0.08296,-0.09272,-0.11224,-0.10736
-0.06832,0.04636,-0.0244,0.00976,0.04392,-0.05612,0.01952,-0.0488,-0.08296,-0.09272,-0.11224,-0.10248
-0.06832,0.0488,-0.02928,0.00488,0.03904,-0.05368,0.01952,-0.0488,-0.08296,-0.09272,-0.11224,-0.10248
-0.06832,0.05368,-0.03904,-0.00488,0.02928,-0.0488,0.01952,-0.0488,-0.08296,-0.08296,-0.10736,-0.10248
-0.06832,0.05612,-0.04392,-0.00976,0.0244,-0.04636,0.01952,-0.0488,-0.08296,-0.09272,-0.10736,-0.10248
-0.06832,0.05368,-0.03904,-0.00488,0.02928,-0.0488,0.01952,-0.0488,-0.08784,-0.09272,-0.11224,-0.10736
-0.06832,0.05368,-0.03904,-0.00488,0.02928,-0.0488,0.01952,-0.0488,-0.08784,-0.09272,-0.11224,-0.10736
-0.06832,0.05124,-0.03416,0,0.03416,-0.05124,0.01952,-0.0488,-0.08784,-0.09272,-0.11224,-0.10736
-0.06832,0.0488,-0.02928,0.00488,0.03904,-0.05368,0.01952,-0.0488,-0.08784,-0.09272,-0.11224,-0.10736
-0.06832,0.05124,-0.03416,0,0.03416,-0.05124,0.01952,-0.05368,-0.08784,-0.09272,-0.11224,-0.10736
-0.06832,0.05124,-0.03416,0,0.03416,-0.05124,0.01464,-0.05856,-0.09272,-0.0976,-0.11712,-0.10736
-0.06832,0.05368,-0.03904,-0.00488,0.02928,-0.0488,0.01464,-0.05856,-0.09272,-0.0976,-0.11712,-0.10248
-0.06832,0.05612,-0.04392,-0.00976,0.0244,-0.04636,0.01464,-0.05856,-0.08784,-0.0976,-0.11712,-0.0976
-0.0732,0.05856,-0.04392,-0.00732,0.02928,-0.05124,0.01952,-0.05856,-0.08784,-0.09272,-0.11712,-0.0976
-0.0732,0.05856,-0.04392,-0.00732,0.02928,-0.05124,0.0244,-0.05856,-0.08784,-0.09272,-0.122,-0.10248
-0.0732,0.05856,-0.04392,-0.00732,0.02928,-0.05124,0.02928,-0.05856,-0.08296,-0.09272,-0.122,-0.10248
-0.07808,0.061,-0.04392,-0.00488,0.03416,-0.05612,0.02928,-0.05856,-0.08296,-0.09272,-0.11712,-0.10248
-0.07808,0.06344,-0.0488,-0.00976,0.02928,-0.05368,0.0244,-0.05856,-0.08784,-0.09272,-0.11712,-0.10248
-0.07808,0.06344,-0.0488,-0.00976,0.02928,-0.05368,0.01952,-0.05856,-0.08784,-0.09272,-0.11712,-0.10248
-0.0732,0.061,-0.0488,-0.0122,0.0244,-0.0488,0.0244,-0.05856,-0.08784,-0.09272,-0.11712,-0.10248
-0.06832,0.05856,-0.0488,-0.01464,0.01952,-0.04392,0.0244,-0.05856,-0.08784,-0.09272,-0.11712,-0.10248
-0.06832,0.061,-0.05368,-0.01952,0.01464,-0.04148,0.0244,-0.05368,-0.09272,-0.0976,-0.122,-0.10248
-0.06832,0.061,-0.05368,-0.01952,0.01464,-0.04148,0.01952,-0.05368,-0.09272,-0.0976,-0.122,-0.10248
-0.06832,0.061,-0.05368,-0.01952,0.01464,-0.04148,0.01952,-0.05368,-0.09272,-0.0976,-0.122,-0.10248
-0.06832,0.05856,-0.0488,-0.01464,0.01952,-0.04392,0.01952,-0.05368,-0.09272,-0.0976,-0.122,-0.10248
-0.06832,0.05856,-0.0488,-0.01464,0.01952,-0.04392,0.01952,-0.05368,-0.09272,-0.09272,-0.11224,-0.10248
-0.06832,0.05856,-0.0488,-0.01464,0.01952,-0.04392,0.01952,-0.05368,-0.08784,-0.08784,-0.10736,-0.0976
-0.06344,0.05124,-0.03904,-0.00732,0.0244,-0.04392,0.01952,-0.05368,-0.08784,-0.08784,-0.10736,-0.0976
-0.06344,0.0488,-0.03416,-0.00244,0.02928,-0.04636,0.01952,-0.05856,-0.08784,-0.08784,-0.10736,-0.0976
-0.06344,0.0488,-0.03416,-0.00244,0.02928,-0.04636,0.01952,-0.05856,-0.08784,-0.08784,-0.11224,-0.0976
-0.06832,0.05368,-0.03904,-0.00488,0.02928,-0.0488,0.01952,-0.05856,-0.08784,-0.08784,-0.11712,-0.0976
-0.06832,0.05368,-0.03904,-0.00488,0.02928,-0.0488,0.01952,-0.05856,-0.08784,-0.09272,-0.11712,-0.10248
-0.06832,0.05368,-0.03904,-0.00488,0.02928,-0.0488,0.01952,-0.05856,-0.08784,-0.0976,-0.11712,-0.10736
-0.0732,0.05612,-0.03904,-0.00244,0.03416,-0.05368,0.01464,-0.06344,-0.09272,-0.0976,-0.11712,-0.10736
-0.06832,0.05124,-0.03416,0,0.03416,-0.05124,0.00976,-0.06344,-0.09272,-0.09272,-0.11224,-0.10736
-0.06832,0.0488,-0.02928,0.00488,0.03904,-0.05368,0.00976,-0.06832,-0.0976,-0.09272,-0.11224,-0.10736
-0.06832,0.04148,-0.01464,0.01952,0.05368,-0.061,0.00976,-0.0732,-0.08784,-0.08296,-0.10736,-0.0976
-0.06832,0.03172,0.00488,0.03904,0.0732,-0.07076,0.00976,-0.0732,-0.0732,-0.0732,-0.0976,-0.08784
-0.06344,0.02196,0.01952,0.05124,0.08296,-0.0732,0.00976,-0.06832,-0.05856,-0.06832,-0.0976,-0.08784
-0.05856,0.02196,0.01464,0.04392,0.0732,-0.06588,0.00976,-0.06344,-0.0488,-0.05856,-0.08784,-0.07808
-0.05368,0.01464,0.0244,0.05124,0.07808,-0.06588,0.00976,-0.05856,-0.04392,-0.05368,-0.08296,-0.0732
-0.05368,0.0122,0.02928,0.05612,0.08296,-0.06832,0.00488,-0.05856,-0.03904,-0.0488,-0.07808,-0.0732
-0.0488,0.00244,0.04392,0.06832,0.09272,-0.07076,0,-0.05856,-0.02928,-0.04392,-0.07808,-0.06832
-0.04392,0,0.04392,0.06588,0.08784,-0.06588,0,-0.05856,-0.03416,-0.04392,-0.07808,-0.06832
-0.03904,0.00244,0.03416,0.05368,0.0732,-0.05612,-0.01464,-0.06344,-0.04392,-0.04392,-0.07808,-0.06832
-0.03904,0.00244,0.03416,0.05368,0.0732,-0.05612,-0.01952,-0.07808,-0.0488,-0.04392,-0.07808,-0.06832
-0.03904,-0.00488,0.0488,0.06832,0.08784,-0.06344,-0.02928,-0.08296,-0.0488,-0.04392,-0.0732,-0.06344
-0.01952,-0.0244,0.06832,0.07808,0.08784,-0.05368,-0.04392,-0.09272,-0.04392,-0.03904,-0.05856,-0.05368
-0.00488,-0.03904,0.08296,0.0854,0.08784,-0.04636,-0.05856,-0.10248,-0.03904,-0.03416,-0.0488,-0.04392
-0.01464,-0.0366,0.08784,0.09516,0.10248,-0.05856,-0.05856,-0.11224,-0.04392,-0.03416,-0.0488,-0.04392
-0.01952,-0.0366,0.09272,0.10248,0.11224,-0.06588,-0.05856,-0.11712,-0.04392,-0.03416,-0.04392,-0.04392
-0.01952,-0.03904,0.0976,0.10736,0.11712,-0.06832,-0.05368,-0.11712,-0.03904,-0.02928,-0.04392,-0.03904
-0.00976,-0.0488,0.10736,0.11224,0.11712,-0.06344,-0.05368,-0.11712,-0.03904,-0.02928,-0.04392,-0.03904
0,-0.04392,0.08784,0.08784,0.08784,-0.04392,-0.05368,-0.10736,-0.0488,-0.03416,-0.04392,-0.03904
0,-0.02684,0.05368,0.05368,0.05368,-0.02684,-0.04392,-0.0976,-0.06344,-0.03904,-0.05856,-0.04392
-0.00976,-0.00732,0.0244,0.02928,0.03416,-0.02196,-0.02928,-0.08296,-0.0732,-0.05856,-0.06832,-0.05368
-0.0244,0.00976,0.00488,0.01708,0.02928,-0.02684,-0.01952,-0.0732,-0.08296,-0.06832,-0.08296,-0.06832
-0.03416,0.02684,-0.01952,-0.00244,0.01464,-0.0244,-0.00976,-0.06832,-0.09272,-0.08296,-0.08784,-0.07808
-0.05368,0.04392,-0.03416,-0.00732,0.01952,-0.0366,0,-0.06832,-0.0976,-0.0976,-0.10736,-0.0976
-0.06832,0.05368,-0.03904,-0.00488,0.02928,-0.0488,0.00488,-0.0732,-0.10736,-0.10248,-0.10736,-0.10248
-0.06832,0.05368,-0.03904,-0.00488,0.02928,-0.0488,0.00488,-0.0732,-0.10736,-0.10248,-0.10736,-0.10248
-0.06832,0.05612,-0.04392,-0.00976,0.0244,-0.04636,0.00976,-0.06832,-0.10736,-0.10736,-0.11224,-0.10736
-0.07808,0.06344,-0.0488,-0.00976,0.02928,-0.05368,0.00976,-0.06832,-0.11712,-0.10736,-0.11712,-0.11224
-0.07808,0.07076,-0.06344,-0.0244,0.01464,-0.04636,0.00976,-0.06832,-0.122,-0.122,-0.12688,-0.122
-0.07808,0.0732,-0.06832,-0.02928,0.00976,-0.04392,0.01464,-0.06832,-0.122,-0.122,-0.12688,-0.122
-0.07808,0.07564,-0.0732,-0.03416,0.00488,-0.04148,0.01952,-0.06832,-0.122,-0.11712,-0.12688,-0.122
-0.08296,0.07808,-0.0732,-0.03172,0.00976,-0.04636,0.01952,-0.06832,-0.122,-0.11224,-0.12688,-0.12688
-0.08296,0.07808,-0.0732,-0.03172,0.00976,-0.04636,0.0244,-0.06832,-0.11712,-0.11224,-0.12688,-0.12688
-0.07808,0.07564,-0.0732,-0.03416,0.00488,-0.04148,0.0244,-0.06344,-0.11712,-0.11224,-0.12688,-0.12688
-0.07808,0.07808,-0.07808,-0.03904,0,-0.03904,0.0244,-0.06344,-0.11712,-0.11712,-0.12688,-0.12688
-0.08784,0.0854,-0.08296,-0.03904,0.00488,-0.04636,0.0244,-0.06344,-0.11224,-0.11712,-0.12688,-0.122
-0.08784,0.0854,-0.08296,-0.03904,0.00488,-0.04636,0.0244,-0.06344,-0.11224,-0.11712,-0.12688,-0.11712
-0.08784,0.0854,-0.08296,-0.03904,0.00488,-0.04636,0.0244,-0.06344,-0.10736,-0.11712,-0.122,-0.11224
-0.08296,0.08296,-0.08296,-0.04148,0,-0.04148,0.0244,-0.06344,-0.10248,-0.10736,-0.122,-0.11224
-0.08296,0.08052,-0.07808,-0.0366,0.00488,-0.04392,0.0244,-0.06344,-0.0976,-0.10248,-0.122,-0.10736
-0.08296,0.08052,-0.07808,-0.0366,0.00488,-0.04392,0.02928,-0.05856,-0.08784,-0.0976,-0.11712,-0.10736
-0.08296,0.07808,-0.0732,-0.03172,0.00976,-0.04636,0.03416,-0.05856,-0.08784,-0.0976,-0.11712,-0.10736
-0.08296,0.07564,-0.06832,-0.02684,0.01464,-0.0488,0.04392,-0.0488,-0.0732,-0.09272,-0.122,-0.11224
-0.12688,0.09516,-0.06344,0,0.06344,-0.09516,0.0976,0,0.00488,-0.0732,-0.13664,-0.14152
-0.20008,0.11224,-0.0244,0.07564,0.17568,-0.18788,0.18544,0.07808,0.1708,0.01952,-0.122,-0.14152
-0.244,0.09272,0.05856,0.18056,0.30256,-0.27328,0.24888,0.15616,0.37088,0.1708,-0.03416,-0.0976
-0.19032,0.0366,0.11712,0.21228,0.30744,-0.24888,0.34648,0.34648,0.60024,0.37088,0.15128,0.02928
0,-0.09516,0.19032,0.19032,0.19032,-0.09516,0.44896,0.68808,0.88816,0.62464,0.43432,0.25376
0.244,-0.28548,0.32696,0.20496,0.08296,0.08052,0.4148,0.8784,1.10776,0.88816,0.77104,0.5368
0.54168,-0.50508,0.46848,0.19764,-0.0732,0.30744,0.1708,0.74176,0.92232,0.99064,1.0736,0.84424
0.83936,-0.7442,0.64904,0.22936,-0.19032,0.51484,-0.16592,0.4392,0.62952,1.04432,1.35176,1.14192
1.1468,-1.0126,0.8784,0.305,-0.2684,0.7076,-0.56608,0.07808,0.37088,1.12728,1.6348,1.44936
1.25904,-1.0736,0.88816,0.25864,-0.37088,0.81496,-0.78568,-0.1952,-0.01952,0.85888,1.49328,1.41032
1.0248,-0.83448,0.64416,0.13176,-0.38064,0.70272,-0.83448,-0.51728,-0.54168,0.22936,0.76616,0.85888
0.64904,-0.549,0.44896,0.12444,-0.20008,0.42456,-0.80032,-0.8052,-0.84912,-0.2196,0.16592,0.366
0.33184,-0.3294,0.32696,0.16104,-0.00488,0.16836,-0.73688,-0.9516,-0.98576,-0.54168,-0.2928,0.00976
0.15128,-0.17568,0.20008,0.12444,0.0488,0.05124,-0.64904,-0.94184,-1.01016,-0.66856,-0.4636,-0.16104
0.08296,-0.11956,0.15616,0.11468,0.0732,0.00488,-0.51728,-0.76616,-0.81984,-0.5612,-0.38064,-0.14152
0.07808,-0.08296,0.08784,0.0488,0.00976,0.03416,-0.39528,-0.57096,-0.64416,-0.45384,-0.3172,-0.13664
0.07808,-0.061,0.04392,0.00488,-0.03416,0.05612,-0.27816,-0.3904,-0.47336,-0.33184,-0.22448,-0.0976
0.01952,-0.01464,0.00976,0,-0.00976,0.01464,-0.14152,-0.244,-0.28792,-0.20984,-0.16592,-0.0976
-0.01464,0.01464,-0.01464,-0.00732,0,-0.00732,-0.0732,-0.16104,-0.1952,-0.15128,-0.14152,-0.09272
-0.03416,0.03904,-0.04392,-0.02684,-0.00976,-0.0122,-0.01464,-0.0976,-0.122,-0.11712,-0.12688,-0.09272
-0.03416,0.04392,-0.05368,-0.0366,-0.01952,-0.00732,0,-0.07808,-0.10248,-0.11224,-0.12688,-0.0976
-0.04392,0.05124,-0.05856,-0.0366,-0.01464,-0.01464,0.01464,-0.06344,-0.08784,-0.10736,-0.12688,-0.10248
-0.05368,0.061,-0.06832,-0.04148,-0.01464,-0.01952,0.0244,-0.0488,-0.0732,-0.0976,-0.122,-0.10736
-0.05856,0.06588,-0.0732,-0.04392,-0.01464,-0.02196,0.03904,-0.03904,-0.06344,-0.0976,-0.122,-0.10736
-0.06344,0.06832,-0.0732,-0.04148,-0.00976,-0.02684,0.0488,-0.02928,-0.05368,-0.09272,-0.122,-0.10736
-0.06832,0.06832,-0.06832,-0.03416,0,-0.03416,0.0488,-0.01952,-0.04392,-0.08296,-0.11224,-0.10736
-0.06832,0.06588,-0.06344,-0.02928,0.00488,-0.0366,0.05368,-0.01464,-0.03416,-0.08296,-0.11224,-0.10736
-0.06832,0.06588,-0.06344,-0.02928,0.00488,-0.0366,0.06344,-0.00976,-0.03416,-0.07808,-0.10736,-0.10248
-0.06344,0.06588,-0.06832,-0.0366,-0.00488,-0.02928,0.06832,-0.00488,-0.02928,-0.0732,-0.10736,-0.10248
-0.06344,0.06588,-0.06832,-0.0366,-0.00488,-0.02928,0.06832,-0.00488,-0.0244,-0.0732,-0.10736,-0.10248
-0.06344,0.06588,-0.06832,-0.0366,-0.00488,-0.02928,0.0732,0,-0.01952,-0.06832,-0.10736,-0.0976
-0.06344,0.06344,-0.06344,-0.03172,0,-0.03172,0.0732,0.00488,-0.01464,-0.06832,-0.10248,-0.0976
-0.06344,0.06344,-0.06344,-0.03172,0,-0.03172,0.06832,0.00976,-0.00976,-0.06832,-0.10248,-0.0976
-0.06344,0.06588,-0.06832,-0.0366,-0.00488,-0.02928,0.06832,0.00976,-0.00976,-0.05856,-0.0976,-0.0976
-0.06344,0.06588,-0.06832,-0.0366,-0.00488,-0.02928,0.06832,0.01464,-0.00488,-0.05856,-0.09272,-0.0976
-0.05856,0.061,-0.06344,-0.03416,-0.00488,-0.02684,0.0732,0.01952,0,-0.05368,-0.09272,-0.09272
-0.05368,0.05856,-0.06344,-0.0366,-0.00976,-0.02196,0.0732,0.0244,0.00488,-0.05368,-0.08784,-0.09272
