i,aVR,ii,aVF,iii,aVL,V1,V2,V3,V4,V5,V6
-0.06344,0.05124,-0.03904,-0.00732,0.0244,-0.04392,-0.10736,-0.0976,-0.08296,-0.08296,-0.0732,-0.06344
-0.05368,0.04636,-0.03904,-0.0122,0.01464,-0.03416,-0.10248,-0.09272,-0.07808,-0.07808,-0.0732,-0.05856
-0.04392,0.03904,-0.03416,-0.0122,0.00976,-0.02684,-0.10736,-0.08784,-0.09272,-0.07808,-0.07808,-0.0732
-0.04392,0.04392,-0.04392,-0.02196,0,-0.02196,-0.10736,-0.08784,-0.08784,-0.0732,-0.07808,-0.08784
-0.05368,0.06344,-0.0732,-0.04636,-0.01952,-0.01708,-0.06344,-0.05368,-0.0488,-0.06832,-0.06832,-0.07808
-0.08296,0.09272,-0.10248,-0.061,-0.01952,-0.03172,-0.01952,0.00488,-0.00488,-0.06344,-0.08784,-0.08784
-0.08784,0.08296,-0.07808,-0.03416,0.00976,-0.0488,0.01464,0.05368,0.06832,0,-0.03416,-0.08296
-0.08296,0.05124,-0.01952,0.02196,0.06344,-0.0732,0.04392,0.08784,0.15128,0.08296,0.03416,-0.03904
-0.01464,0.02684,-0.03904,-0.03172,-0.0244,0.00488,0.03904,0.16592,0.23912,0.16592,0.10248,0.03416
0.08784,-0.05124,0.01464,-0.02928,-0.0732,0.08052,0.01952,0.30744,0.35136,0.25864,0.16104,0.06344
0.23424,-0.10492,-0.0244,-0.14152,-0.25864,0.24644,0.0244,0.52704,0.54656,0.4392,0.30256,0.17568
0.40992,-0.244,0.07808,-0.12688,-0.33184,0.37088,-0.03416,0.59536,0.73688,0.69784,0.56608,0.40016
0.5612,-0.45384,0.34648,0.06588,-0.21472,0.38796,-0.1464,0.44408,0.85888,0.9516,0.83936,0.66856
0.59536,-0.6344,0.67344,0.37576,0.07808,0.25864,-0.28792,0.15128,0.88816,1.16144,1.11752,0.95648
0.61488,-0.70028,0.78568,0.47824,0.1708,0.22204,-0.43432,-0.18544,0.67832,1.15656,1.20048,1.07848
0.57584,-0.4514,0.32696,0.03904,-0.24888,0.41236,-0.40504,-0.27816,0.3416,0.73688,0.74664,0.68808
0.42456,-0.31232,0.20008,-0.0122,-0.22448,0.32452,-0.47336,-0.48312,-0.00488,0.38552,0.47824,0.50752
0.25376,-0.20496,0.15616,0.02928,-0.0976,0.17568,-0.49288,-0.72224,-0.40992,0.00488,0.23424,0.37576
0.09272,-0.08296,0.0732,0.02684,-0.01952,0.05612,-0.4636,-0.79056,-0.67344,-0.29768,-0.01464,0.17568
0.0244,0.0244,-0.0732,-0.0854,-0.0976,0.061,-0.41968,-0.73688,-0.69784,-0.41968,-0.19032,-0.0244
0.00488,0.0976,-0.20008,-0.20252,-0.20496,0.10492,-0.36112,-0.59536,-0.57096,-0.36112,-0.18544,-0.05368
-0.01952,0.08296,-0.1464,-0.13664,-0.12688,0.05368,-0.3172,-0.4636,-0.47824,-0.33672,-0.20984,-0.07808
-0.04392,0.08784,-0.13176,-0.1098,-0.08784,0.02196,-0.22936,-0.3172,-0.3416,-0.25376,-0.1708,-0.0732
-0.0244,0.05124,-0.07808,-0.06588,-0.05368,0.01464,-0.1708,-0.20496,-0.18544,-0.122,-0.08296,-0.05368
-0.0244,0.05368,-0.08296,-0.07076,-0.05856,0.01708,-0.12688,-0.13176,-0.08784,-0.05856,-0.0488,-0.03904
-0.01464,0.03172,-0.0488,-0.04148,-0.03416,0.00976,-0.122,-0.10736,-0.0976,-0.0732,-0.0488,-0.03416
-0.03416,0.0488,-0.06344,-0.04636,-0.02928,-0.00244,-0.09272,-0.05856,-0.08296,-0.06344,-0.05856,-0.04392
-0.03904,0.05368,-0.06832,-0.0488,-0.02928,-0.00488,-0.0732,-0.04392,-0.05856,-0.06344,-0.0732,-0.05856
-0.05368,0.05856,-0.06344,-0.0366,-0.00976,-0.02196,-0.06344,-0.04392,-0.0488,-0.05368,-0.06832,-0.06344
-0.05368,0.05612,-0.05856,-0.03172,-0.00488,-0.0244,-0.06832,-0.03904,-0.0488,-0.05856,-0.06832,-0.05856
-0.0488,0.05612,-0.06344,-0.03904,-0.01464,-0.01708,-0.06344,-0.02928,-0.05368,-0.05368,-0.05368,-0.04392
-0.04392,0.05368,-0.06344,-0.04148,-0.01952,-0.0122,-0.05856,-0.02928,-0.04392,-0.05368,-0.05856,-0.0488
-0.04392,0.04392,-0.04392,-0.02196,0,-0.02196,-0.04392,-0.02928,-0.04392,-0.05368,-0.06832,-0.06832
-0.04392,0.04148,-0.03904,-0.01708,0.00488,-0.0244,-0.04392,-0.02928,-0.03904,-0.04392,-0.06344,-0.05856
-0.04392,0.05124,-0.05856,-0.0366,-0.01464,-0.01464,-0.0488,-0.02928,-0.03416,-0.04392,-0.0488,-0.0488
-0.05368,0.05856,-0.06344,-0.0366,-0.00976,-0.02196,-0.0488,-0.0244,-0.02928,-0.04392,-0.0488,-0.0488
-0.05856,0.05368,-0.0488,-0.01952,0.00976,-0.03416,-0.05368,-0.01464,-0.03904,-0.05368,-0.05368,-0.06832
-0.06832,0.05856,-0.0488,-0.01464,0.01952,-0.04392,-0.05368,-0.00488,-0.0488,-0.04392,-0.06344,-0.0732
-0.0488,0.03904,-0.02928,-0.00488,0.01952,-0.03416,-0.04392,0.00488,-0.04392,-0.05368,-0.0732,-0.06832
-0.03904,0.03416,-0.02928,-0.00976,0.00976,-0.0244,-0.04392,0.00488,-0.04392,-0.05368,-0.0732,-0.06832
-0.04392,0.05124,-0.05856,-0.0366,-0.01464,-0.01464,-0.02928,0.00976,-0.0244,-0.03416,-0.05856,-0.05368
-0.05368,0.05856,-0.06344,-0.0366,-0.00976,-0.02196,-0.02928,0.00976,-0.01464,-0.03416,-0.0488,-0.05368
-0.05368,0.05124,-0.0488,-0.02196,0.00488,-0.02928,-0.03904,0.00976,-0.0244,-0.03416,-0.03904,-0.03904
-0.05368,0.061,-0.06832,-0.04148,-0.01464,-0.01952,-0.04392,0.00976,-0.01952,-0.03416,-0.03904,-0.02928
-0.03904,0.03416,-0.02928,-0.00976,0.00976,-0.0244,-0.04392,0,-0.00976,-0.02928,-0.03904,-0.03904
-0.02928,0.01952,-0.00976,0.00488,0.01952,-0.0244,-0.03904,0.00488,-0.00488,-0.02928,-0.03904,-0.03904
-0.01952,0.0244,-0.02928,-0.01952,-0.00976,-0.00488,-0.03904,0.01464,-0.00488,-0.03416,-0.04392,-0.04392
-0.01952,0.0244,-0.02928,-0.01952,-0.00976,-0.00488,-0.03416,0.01952,-0.01464,-0.03904,-0.0488,-0.05368
-0.0244,0.02196,-0.01952,-0.00732,0.00488,-0.01464,-0.03416,0.01464,0,-0.02928,-0.03904,-0.03416
-0.0244,0.0244,-0.0244,-0.0122,0,-0.0122,-0.04392,0.01464,0,-0.02928,-0.02928,-0.0244
-0.03416,0.0244,-0.01464,0.00244,0.01952,-0.02684,-0.02928,0.01464,-0.00976,-0.0244,-0.03416,-0.03904
-0.04392,0.02684,-0.00976,0.0122,0.03416,-0.03904,-0.02928,0.0244,0,-0.01952,-0.0244,-0.03416
-0.0244,0.01952,-0.01464,-0.00244,0.00976,-0.01708,-0.03416,0.0244,0.00976,-0.01464,-0.03416,-0.03416
-0.01464,0.0122,-0.00976,-0.00244,0.00488,-0.00976,-0.03904,0.02928,0.01952,-0.00488,-0.02928,-0.03416
-0.00976,0.00488,0,0.00488,0.00976,-0.00976,-0.04392,0.02928,0.01464,-0.01464,-0.03904,-0.03904
-0.00976,0.00732,-0.00488,0,0.00488,-0.00732,-0.03904,0.03416,0.01952,-0.00976,-0.0244,-0.02928
0,0.00488,-0.00976,-0.00976,-0.00976,0.00488,-0.04392,0.03416,0.01464,-0.00488,-0.01464,-0.02928
0,0.00976,-0.01952,-0.01952,-0.01952,0.00976,-0.04392,0.03416,0.01952,0,-0.01464,-0.02928
-0.00488,0.00732,-0.00976,-0.00732,-0.00488,0,-0.0488,0.05368,0.02928,0.00976,-0.00488,-0.02928
-0.00488,0.00488,-0.00488,-0.00244,0,-0.00244,-0.04392,0.05856,0.03416,0.01464,0.00488,-0.01952
-0.00976,-0.00244,0.01464,0.01952,0.0244,-0.01708,-0.03904,0.06344,0.03904,0.00976,-0.00488,-0.00976
-0.00976,0.00244,0.00488,0.00976,0.01464,-0.0122,-0.03904,0.0732,0.05368,0.0244,0.00976,-0.00976
0.00976,-0.0122,0.01464,0.00976,0.00488,0.00244,-0.0488,0.08296,0.06832,0.05368,0.01952,0
0.01464,-0.01708,0.01952,0.0122,0.00488,0.00488,-0.0488,0.08784,0.07808,0.0732,0.04392,0.00976
0.0244,-0.03172,0.03904,0.02684,0.01464,0.00488,-0.05368,0.08784,0.09272,0.06832,0.03416,0.01952
0.02928,-0.02684,0.0244,0.00976,-0.00488,0.01708,-0.05368,0.10248,0.10736,0.07808,0.04392,0.01952
0.0244,-0.02196,0.01952,0.00732,-0.00488,0.01464,-0.06344,0.10736,0.10736,0.07808,0.05368,0.02928
0.03416,-0.03172,0.02928,0.0122,-0.00488,0.01952,-0.06344,0.11712,0.10736,0.08296,0.06344,0.03416
0.03904,-0.04636,0.05368,0.03416,0.01464,0.0122,-0.05856,0.11712,0.122,0.11224,0.0732,0.0488
0.0488,-0.05124,0.05368,0.02928,0.00488,0.02196,-0.06344,0.122,0.13664,0.122,0.08784,0.06344
0.05856,-0.06344,0.06832,0.03904,0.00976,0.0244,-0.0732,0.14152,0.13664,0.122,0.07808,0.05368
0.06344,-0.06588,0.06832,0.0366,0.00488,0.02928,-0.0732,0.15128,0.15128,0.122,0.09272,0.06344
0.06344,-0.061,0.05856,0.02684,-0.00488,0.03416,-0.05368,0.1708,0.1708,0.15616,0.122,0.08784
0.06832,-0.061,0.05368,0.01952,-0.01464,0.04148,-0.0488,0.1708,0.1952,0.18056,0.1464,0.0976
0.08784,-0.0732,0.05856,0.01464,-0.02928,0.05856,-0.05856,0.17568,0.1952,0.17568,0.15616,0.122
0.09272,-0.08052,0.06832,0.02196,-0.0244,0.05856,-0.05856,0.18056,0.18544,0.18544,0.15616,0.13176
0.0976,-0.0976,0.0976,0.0488,0,0.0488,-0.07808,0.1708,0.18056,0.17568,0.1464,0.12688
0.0976,-0.10492,0.11224,0.06344,0.01464,0.04148,-0.07808,0.1708,0.18056,0.18056,0.13664,0.122
0.10736,-0.11224,0.11712,0.06344,0.00976,0.0488,-0.07808,0.1708,0.18056,0.1952,0.15616,0.13664
0.10736,-0.11224,0.11712,0.06344,0.00976,0.0488,-0.0732,0.17568,0.18544,0.1952,0.15616,0.14152
0.11712,-0.122,0.12688,0.06832,0.00976,0.05368,-0.08784,0.17568,0.18056,0.18056,0.14152,0.122
0.122,-0.12444,0.12688,0.06588,0.00488,0.05856,-0.08784,0.16592,0.18056,0.16592,0.14152,0.11224
0.122,-0.11956,0.11712,0.05612,-0.00488,0.06344,-0.07808,0.15616,0.15616,0.1464,0.122,0.0976
0.11712,-0.10492,0.09272,0.03416,-0.0244,0.07076,-0.0732,0.1464,0.1464,0.14152,0.11224,0.09272
0.11224,-0.10004,0.08784,0.03172,-0.0244,0.06832,-0.0732,0.13664,0.13664,0.13176,0.10736,0.09272
0.10248,-0.0854,0.06832,0.01708,-0.03416,0.06832,-0.06832,0.11712,0.11224,0.12688,0.10248,0.08784
0.0732,-0.07808,0.08296,0.04636,0.00976,0.03172,-0.05856,0.11224,0.11224,0.11224,0.09272,0.07808
0.0488,-0.07564,0.10248,0.07808,0.05368,-0.00244,-0.05368,0.0976,0.0976,0.0976,0.07808,0.07808
0.03904,-0.0732,0.10736,0.08784,0.06832,-0.01464,-0.03416,0.07808,0.06832,0.0732,0.05368,0.05856
0.01952,-0.05856,0.0976,0.08784,0.07808,-0.02928,-0.03416,0.06832,0.0488,0.04392,0.03416,0.03904
0.00976,-0.03416,0.05856,0.05368,0.0488,-0.01952,-0.01952,0.05856,0.0488,0.04392,0.03416,0.03904
0.00488,-0.01708,0.02928,0.02684,0.0244,-0.00976,-0.00488,0.0488,0.05368,0.03904,0.01464,0.02928
0.00976,0,-0.00976,-0.01464,-0.01952,0.01464,0,0.02928,0.02928,0.0244,0,0.01464
-0.00488,0.01464,-0.0244,-0.02196,-0.01952,0.00732,0,0.01952,0.00488,-0.00488,-0.01952,0.00488
-0.01464,0.01464,-0.01464,-0.00732,0,-0.00732,0.00488,0.01464,0,0,-0.01952,0.00488
-0.01952,0.01464,-0.00976,0,0.00976,-0.01464,-0.00488,0.00488,-0.00976,-0.00976,-0.02928,-0.00976
-0.03416,0.0244,-0.01464,0.00244,0.01952,-0.02684,0,0,-0.00488,-0.01464,-0.01952,0
-0.03904,0.02684,-0.01464,0.00488,0.0244,-0.03172,0,-0.00488,-0.01464,-0.01952,-0.0244,0.00488
-0.03416,0.02928,-0.0244,-0.00732,0.00976,-0.02196,0,-0.01464,-0.01952,-0.02928,-0.03416,-0.00976
-0.03416,0.03416,-0.03416,-0.01708,0,-0.01708,0,-0.0244,-0.0244,-0.03416,-0.03416,-0.00976
-0.02928,0.03416,-0.03904,-0.0244,-0.00976,-0.00976,0.00488,-0.0244,-0.01464,-0.01952,-0.0244,0
-0.03416,0.03904,-0.04392,-0.02684,-0.00976,-0.0122,0,-0.02928,-0.0244,-0.0244,-0.03416,-0.00976
-0.0244,0.03416,-0.04392,-0.03172,-0.01952,-0.00244,0.00976,-0.01952,-0.01952,-0.0244,-0.03416,-0.00976
-0.02928,0.03172,-0.03416,-0.01952,-0.00488,-0.0122,0.00488,-0.02928,-0.0244,-0.03416,-0.03904,-0.01464
-0.02928,0.04148,-0.05368,-0.03904,-0.0244,-0.00244,0.00488,-0.03416,-0.03904,-0.04392,-0.04392,-0.01952
-0.03904,0.05856,-0.07808,-0.05856,-0.03904,0,0.00488,-0.03416,-0.03904,-0.04392,-0.05856,-0.02928
-0.03904,0.061,-0.08296,-0.06344,-0.04392,0.00244,0.01952,-0.0244,-0.03904,-0.03416,-0.04392,-0.01952
-0.03416,0.05368,-0.0732,-0.05612,-0.03904,0.00244,0.01952,-0.0244,-0.03904,-0.03416,-0.04392,-0.01952
-0.02928,0.04392,-0.05856,-0.04392,-0.02928,0,0.01464,-0.03416,-0.03904,-0.04392,-0.05856,-0.02928
-0.02928,0.03416,-0.03904,-0.0244,-0.00976,-0.00976,0.01464,-0.03416,-0.03416,-0.04392,-0.05856,-0.02928
-0.01952,0.03416,-0.0488,-0.03904,-0.02928,0.00488,0.01464,-0.0244,-0.0244,-0.03416,-0.0488,-0.01952
-0.01464,0.03172,-0.0488,-0.04148,-0.03416,0.00976,0.00488,-0.02928,-0.02928,-0.03904,-0.0488,-0.00976
-0.0244,0.03172,-0.03904,-0.02684,-0.01464,-0.00488,0,-0.03904,-0.03416,-0.04392,-0.0488,-0.01952
-0.03904,0.02928,-0.01952,0,0.01952,-0.02928,-0.00488,-0.0488,-0.03416,-0.04392,-0.0488,-0.03416
-0.02928,0.03172,-0.03416,-0.01952,-0.00488,-0.0122,0,-0.04392,-0.04392,-0.02928,-0.05368,-0.0244
-0.02928,0.03172,-0.03416,-0.01952,-0.00488,-0.0122,-0.00488,-0.04392,-0.03904,-0.02928,-0.05856,-0.0244
-0.01952,0.03172,-0.04392,-0.03416,-0.0244,0.00244,0,-0.03904,-0.02928,-0.02928,-0.0488,-0.01464
-0.00976,0.02928,-0.0488,-0.04392,-0.03904,0.01464,0.01464,-0.03416,-0.02928,-0.0244,-0.03416,-0.00488
-0.00976,0.03416,-0.05856,-0.05368,-0.0488,0.01952,0.01464,-0.03416,-0.0244,-0.0244,-0.0244,0.00488
-0.01952,0.04392,-0.06832,-0.05856,-0.0488,0.01464,0.01464,-0.02928,-0.01952,-0.0244,-0.02928,0.00488
-0.01952,0.04148,-0.06344,-0.05368,-0.04392,0.0122,0.0244,-0.01952,-0.0244,-0.02928,-0.03904,-0.00976
-0.01952,0.04148,-0.06344,-0.05368,-0.04392,0.0122,0.0244,-0.0244,-0.0244,-0.02928,-0.03904,-0.00976
-0.03904,0.03904,-0.03904,-0.01952,0,-0.01952,0.01464,-0.03416,-0.0244,-0.01952,-0.03904,0
-0.05368,0.03416,-0.01464,0.0122,0.03904,-0.04636,0.01464,-0.03416,-0.01952,-0.01464,-0.03416,0.00488
-0.0488,0.03416,-0.01952,0.00488,0.02928,-0.03904,0.01952,-0.02928,-0.01952,-0.00976,-0.0244,0.00488
-0.04392,0.03416,-0.0244,-0.00244,0.01952,-0.03172,0.0244,-0.0244,-0.01464,-0.00976,-0.0244,0.00488
-0.03416,0.0366,-0.03904,-0.02196,-0.00488,-0.01464,0.03416,-0.01464,-0.00488,-0.01952,-0.02928,-0.00488
-0.01952,0.04148,-0.06344,-0.05368,-0.04392,0.0122,0.02928,-0.01464,-0.00488,-0.01464,-0.02928,-0.00488
-0.01464,0.02684,-0.03904,-0.03172,-0.0244,0.00488,0.01952,-0.0244,-0.01464,-0.0244,-0.03416,-0.00488
-0.01464,0.02196,-0.02928,-0.02196,-0.01464,0,0.01464,-0.01952,-0.0244,-0.0244,-0.02928,-0.00488
-0.00488,0.01464,-0.0244,-0.02196,-0.01952,0.00732,0.00488,-0.03416,-0.03416,-0.03416,-0.0488,-0.01952
0.00488,0.00732,-0.01952,-0.02196,-0.0244,0.01464,0.00488,-0.03416,-0.03416,-0.04392,-0.05856,-0.02928
0.00488,0.00976,-0.0244,-0.02684,-0.02928,0.01708,0.01464,-0.03416,-0.03416,-0.04392,-0.05368,-0.02928
0.00488,0.02684,-0.05856,-0.061,-0.06344,0.03416,0.0244,-0.03416,-0.02928,-0.03904,-0.03904,-0.01464
-0.01464,0.03416,-0.05368,-0.04636,-0.03904,0.0122,0.03416,-0.02928,-0.01952,-0.02928,-0.02928,-0.01464
-0.03416,0.04636,-0.05856,-0.04148,-0.0244,-0.00488,0.0488,-0.01952,-0.01952,-0.02928,-0.02928,-0.01464
-0.03904,0.04148,-0.04392,-0.0244,-0.00488,-0.01708,0.03416,-0.02928,-0.01952,-0.02928,-0.03416,-0.00488
-0.04392,0.03904,-0.03416,-0.0122,0.00976,-0.02684,0.01952,-0.03416,-0.02928,-0.03416,-0.03416,-0.01464
-0.02928,0.03416,-0.03904,-0.0244,-0.00976,-0.00976,0.01952,-0.04392,-0.03904,-0.04392,-0.03416,0
-0.0244,0.02928,-0.03416,-0.02196,-0.00976,-0.00732,0.01952,-0.0488,-0.03904,-0.04392,-0.03904,0.00488
-0.0244,0.03172,-0.03904,-0.02684,-0.01464,-0.00488,0.0244,-0.03904,-0.03904,-0.03904,-0.03904,-0.00488
-0.0244,0.03172,-0.03904,-0.02684,-0.01464,-0.00488,0.02928,-0.04392,-0.03904,-0.03904,-0.03904,0
-0.03416,0.03904,-0.04392,-0.02684,-0.00976,-0.0122,0.02928,-0.03904,-0.03416,-0.02928,-0.03416,-0.00976
-0.02928,0.03416,-0.03904,-0.0244,-0.00976,-0.00976,0.02928,-0.04392,-0.03416,-0.03904,-0.04392,-0.01952
-0.01464,0.01952,-0.0244,-0.01708,-0.00976,-0.00244,0.0244,-0.04392,-0.04392,-0.0488,-0.05368,-0.02928
-0.01464,0.02196,-0.02928,-0.02196,-0.01464,0,0.0244,-0.04392,-0.04392,-0.05856,-0.05856,-0.02928
-0.01952,0.02684,-0.03416,-0.0244,-0.01464,-0.00244,0.03416,-0.04392,-0.05368,-0.05856,-0.05368,-0.01952
-0.01952,0.02684,-0.03416,-0.0244,-0.01464,-0.00244,0.03416,-0.0488,-0.0488,-0.05368,-0.05368,-0.01464
-0.04392,0.03904,-0.03416,-0.0122,0.00976,-0.02684,0.03904,-0.0488,-0.0488,-0.06344,-0.0488,-0.01952
-0.03904,0.03416,-0.02928,-0.00976,0.00976,-0.0244,0.03904,-0.04392,-0.05856,-0.06832,-0.05368,-0.02928
-0.03904,0.0366,-0.03416,-0.01464,0.00488,-0.02196,0.03416,-0.04392,-0.0488,-0.05856,-0.05368,-0.01952
-0.03416,0.03416,-0.03416,-0.01708,0,-0.01708,0.03416,-0.0488,-0.0488,-0.05856,-0.06832,-0.01952
-0.02928,0.03904,-0.0488,-0.03416,-0.01952,-0.00488,0.03416,-0.04392,-0.0488,-0.05368,-0.0488,-0.01952
-0.03416,0.0488,-0.06344,-0.04636,-0.02928,-0.00244,0.03904,-0.03904,-0.0488,-0.0488,-0.03904,-0.01952
-0.03416,0.03416,-0.03416,-0.01708,0,-0.01708,0.0244,-0.04392,-0.05856,-0.06832,-0.05856,-0.0244
-0.03416,0.0244,-0.01464,0.00244,0.01952,-0.02684,0.01952,-0.04392,-0.05856,-0.06832,-0.0732,-0.0244
-0.0244,0.03416,-0.04392,-0.03172,-0.01952,-0.00244,0.03416,-0.03416,-0.05368,-0.06344,-0.05856,-0.0244
-0.03416,0.0488,-0.06344,-0.04636,-0.02928,-0.00244,0.02928,-0.03904,-0.05368,-0.06832,-0.06344,-0.0244
-0.02928,0.05124,-0.0732,-0.05856,-0.04392,0.00732,0.03904,-0.0488,-0.06344,-0.05856,-0.05368,-0.01952
-0.02928,0.04636,-0.06344,-0.0488,-0.03416,0.00244,0.03904,-0.04392,-0.06344,-0.05856,-0.05368,-0.01952
-0.02928,0.03172,-0.03416,-0.01952,-0.00488,-0.0122,0.0244,-0.05856,-0.06832,-0.06344,-0.05368,-0.0244
-0.0244,0.02684,-0.02928,-0.01708,-0.00488,-0.00976,0.02928,-0.0488,-0.06344,-0.06344,-0.0488,-0.01952
-0.04392,0.04148,-0.03904,-0.01708,0.00488,-0.0244,0.03416,-0.04392,-0.05368,-0.06344,-0.05856,-0.01952
-0.05368,0.04636,-0.03904,-0.0122,0.01464,-0.03416,0.03416,-0.04392,-0.05368,-0.06344,-0.05856,-0.01952
-0.0488,0.05612,-0.06344,-0.03904,-0.01464,-0.01708,0.04392,-0.03416,-0.0488,-0.05368,-0.0488,-0.01464
-0.05856,0.07808,-0.0976,-0.06832,-0.03904,-0.00976,0.04392,-0.0244,-0.0488,-0.05368,-0.0488,0
-0.0488,0.06344,-0.07808,-0.05368,-0.02928,-0.00976,0.0488,-0.03416,-0.0488,-0.05368,-0.05856,-0.01464
-0.04392,0.061,-0.07808,-0.05612,-0.03416,-0.00488,0.04392,-0.03904,-0.05856,-0.06344,-0.06832,-0.0244
-0.03904,0.05612,-0.0732,-0.05368,-0.03416,-0.00244,0.04392,-0.02928,-0.06344,-0.05856,-0.05368,-0.0244
-0.03416,0.05124,-0.06832,-0.05124,-0.03416,0,0.03904,-0.02928,-0.06344,-0.06344,-0.05368,-0.0244
-0.04392,0.04392,-0.04392,-0.02196,0,-0.02196,0.0488,-0.03904,-0.06344,-0.06344,-0.05368,-0.01952
0,0.00976,-0.01952,-0.01952,-0.01952,0.00976,0.02928,-0.05856,-0.07808,-0.06832,-0.06832,-0.0488
0,0.01952,-0.03904,-0.03904,-0.03904,0.01952,0.03904,-0.0488,-0.06832,-0.06832,-0.06832,-0.0488
0,0.02928,-0.05856,-0.05856,-0.05856,0.02928,0.0488,-0.03904,-0.05856,-0.06832,-0.06832,-0.0488
-0.02928,0.02684,-0.0244,-0.00976,0.00488,-0.01708,0.07808,-0.0244,-0.03904,-0.0488,-0.0488,-0.01952
-0.06344,0.04392,-0.0244,0.00732,0.03904,-0.05124,0.08784,-0.00976,-0.01464,-0.02928,-0.0244,0
-0.04392,0.01708,0.00976,0.03172,0.05368,-0.0488,0.0976,-0.00488,-0.00488,-0.01464,-0.01464,0.00976
-0.03904,0.01464,0.00976,0.02928,0.0488,-0.04392,0.10736,0.00488,0,0,0,0.01464
-0.01952,0.0122,-0.00488,0.00488,0.01464,-0.01708,0.10736,0.01464,-0.00488,-0.00976,-0.00488,0.01464
-0.00976,0.01708,-0.0244,-0.01952,-0.01464,0.00244,0.10736,0.02928,0.00488,0,0,0.0244
-0.01464,0.01708,-0.01952,-0.0122,-0.00488,-0.00488,0.0976,0.0244,0.00488,-0.00976,-0.00976,0.02928
-0.00976,0.01708,-0.0244,-0.01952,-0.01464,0.00244,0.09272,0.03416,0.00488,-0.00976,-0.00976,0.03416
-0.00976,0.02196,-0.03416,-0.02928,-0.0244,0.00732,0.08784,0.01952,0,-0.00976,-0.01464,0.01952
-0.00976,0.02684,-0.04392,-0.03904,-0.03416,0.0122,0.06832,0.00488,-0.01464,-0.01464,-0.01464,0.00976
0.00488,0.02684,-0.05856,-0.061,-0.06344,0.03416,0.04392,-0.01952,-0.04392,-0.03904,-0.03416,0
0.01952,0.0122,-0.04392,-0.05368,-0.06344,0.04148,0.01464,-0.03904,-0.0732,-0.0488,-0.04392,-0.00488
0.06344,-0.0122,-0.03904,-0.07076,-0.10248,0.08296,-0.01464,-0.05856,-0.07808,-0.06344,-0.05368,-0.01464
0.0732,-0.02196,-0.02928,-0.06588,-0.10248,0.08784,-0.03416,-0.06344,-0.08296,-0.06832,-0.05368,-0.00976
0.0488,0.00244,-0.05368,-0.07808,-0.10248,0.07564,-0.01464,-0.06344,-0.08296,-0.06344,-0.03904,0.01464
0.0244,0.02684,-0.07808,-0.09028,-0.10248,0.06344,-0.00488,-0.06344,-0.09272,-0.06832,-0.0488,0.00488
0,0.03172,-0.06344,-0.06344,-0.06344,0.03172,0.00976,-0.05856,-0.08296,-0.05856,-0.04392,0.01464
-0.02928,0.03416,-0.03904,-0.0244,-0.00976,-0.00976,0.01464,-0.0488,-0.0732,-0.0488,-0.03904,0.0244
-0.00976,0.02928,-0.0488,-0.04392,-0.03904,0.01464,0.00488,-0.04392,-0.0732,-0.03904,-0.0244,0.01952
-0.00488,0.01708,-0.02928,-0.02684,-0.0244,0.00976,0.01464,-0.03904,-0.06832,-0.02928,-0.01464,0.02928
0.00488,0.0122,-0.02928,-0.03172,-0.03416,0.01952,0.01464,-0.03416,-0.05856,-0.03416,-0.01464,0.02928
0.01464,0.0122,-0.03904,-0.04636,-0.05368,0.03416,0.01464,-0.03416,-0.05856,-0.03904,-0.01464,0.02928
0.00488,0.0122,-0.02928,-0.03172,-0.03416,0.01952,0.01952,-0.04392,-0.06832,-0.04392,-0.0244,0.02928
-0.00976,0.0244,-0.03904,-0.03416,-0.02928,0.00976,0.03416,-0.03904,-0.06344,-0.04392,-0.0244,0.01952
-0.01952,0.0366,-0.05368,-0.04392,-0.03416,0.00732,0.04392,-0.03416,-0.06832,-0.05368,-0.0488,0
-0.03416,0.04392,-0.05368,-0.0366,-0.01952,-0.00732,0.04392,-0.04392,-0.07808,-0.06832,-0.06344,-0.0244
-0.04392,0.061,-0.07808,-0.05612,-0.03416,-0.00488,0.05856,-0.03904,-0.07808,-0.06344,-0.06344,-0.02928
-0.05368,0.0732,-0.09272,-0.06588,-0.03904,-0.00732,0.05856,-0.04392,-0.08296,-0.06832,-0.06832,-0.03416
-0.05856,0.06344,-0.06832,-0.03904,-0.00976,-0.0244,0.0488,-0.0488,-0.09272,-0.08296,-0.08296,-0.0488
-0.0732,0.06344,-0.05368,-0.01708,0.01952,-0.04636,0.05856,-0.05856,-0.0976,-0.09272,-0.08296,-0.05368
-0.06832,0.06588,-0.06344,-0.02928,0.00488,-0.0366,0.05368,-0.0488,-0.08784,-0.08296,-0.07808,-0.03904
-0.05368,0.05856,-0.06344,-0.0366,-0.00976,-0.02196,0.04392,-0.0488,-0.08784,-0.08296,-0.07808,-0.03904
-0.04392,0.06344,-0.08296,-0.061,-0.03904,-0.00244,0.05856,-0.03416,-0.09272,-0.0732,-0.06832,-0.0244
-0.04392,0.06344,-0.08296,-0.061,-0.03904,-0.00244,0.05856,-0.03904,-0.09272,-0.0732,-0.06344,-0.0244
-0.05368,0.07076,-0.08784,-0.061,-0.03416,-0.00976,0.05856,-0.03904,-0.08296,-0.08296,-0.0732,-0.0244
-0.05368,0.07076,-0.08784,-0.061,-0.03416,-0.00976,0.06344,-0.03416,-0.07808,-0.07808,-0.0732,-0.01952
-0.05368,0.06832,-0.08296,-0.05612,-0.02928,-0.0122,0.07808,-0.03904,-0.09272,-0.08784,-0.06832,-0.03416
-0.05368,0.0732,-0.09272,-0.06588,-0.03904,-0.00732,0.07808,-0.03904,-0.08784,-0.08296,-0.06832,-0.03904
-0.05368,0.06832,-0.08296,-0.05612,-0.02928,-0.0122,0.10248,-0.00488,-0.06832,-0.07808,-0.07808,-0.0488
-0.06344,0.04392,-0.0244,0.00732,0.03904,-0.05124,0.11712,0.03416,-0.04392,-0.08296,-0.10736,-0.0976
-0.05856,0.0488,-0.03904,-0.00976,0.01952,-0.03904,0.16104,0.08296,0.03904,-0.03904,-0.0732,-0.06344
-0.05368,0.04148,-0.02928,-0.00244,0.0244,-0.03904,0.18056,0.12688,0.11224,0.03416,-0.0244,-0.03904
-0.00488,-0.0122,0.02928,0.03172,0.03416,-0.01952,0.17568,0.18544,0.19032,0.12688,0.06344,0.0244
0.06832,-0.04148,0.01464,-0.01952,-0.05368,0.061,0.18544,0.34648,0.33184,0.23912,0.18056,0.11224
0.1952,-0.11956,0.04392,-0.05368,-0.15128,0.17324,0.18056,0.5368,0.52704,0.40992,0.2928,0.21472
0.37088,-0.24888,0.12688,-0.05856,-0.244,0.30744,0.122,0.5856,0.69784,0.66856,0.5368,0.41968
0.49288,-0.41968,0.34648,0.10004,-0.1464,0.31964,0.03904,0.49288,0.86864,0.98088,0.86864,0.72712
0.5368,-0.60512,0.67344,0.40504,0.13664,0.20008,-0.10248,0.20008,0.85888,1.15168,1.11752,0.96624
0.56608,-0.70516,0.84424,0.5612,0.27816,0.14396,-0.25864,-0.1464,0.68808,1.1956,1.25904,1.1468
0.54656,-0.50508,0.4636,0.19032,-0.08296,0.31476,-0.2684,-0.24888,0.37088,0.81496,0.84424,0.79544
0.42456,-0.35624,0.28792,0.07564,-0.13664,0.2806,-0.32696,-0.4148,0.05368,0.48312,0.54656,0.5856
0.25376,-0.20496,0.15616,0.02928,-0.0976,0.17568,-0.3172,-0.5856,-0.32208,0.11224,0.32208,0.45384
0.10248,-0.07808,0.05368,0.00244,-0.0488,0.07564,-0.29768,-0.71248,-0.65392,-0.2684,0.03416,0.23424
0.04392,0.01464,-0.0732,-0.09516,-0.11712,0.08052,-0.26352,-0.64904,-0.66856,-0.3904,-0.16104,0.03416
0.00488,0.06832,-0.14152,-0.14396,-0.1464,0.07564,-0.244,-0.55632,-0.60024,-0.38064,-0.20496,-0.05368
-0.01952,0.08296,-0.1464,-0.13664,-0.12688,0.05368,-0.19032,-0.40504,-0.488,-0.32696,-0.20008,-0.05856
-0.0244,0.0732,-0.122,-0.1098,-0.0976,0.0366,-0.10248,-0.27816,-0.35136,-0.25376,-0.16104,-0.05368
-0.00488,0.00732,-0.00976,-0.00732,-0.00488,0,-0.06344,-0.18544,-0.20496,-0.16104,-0.10248,-0.03416
-0.00488,0.02928,-0.05368,-0.05124,-0.0488,0.02196,0,-0.08296,-0.10736,-0.07808,-0.05856,-0.01952
-0.0244,0.061,-0.0976,-0.0854,-0.0732,0.0244,0.05368,-0.02928,-0.08784,-0.05368,-0.03904,-0.00488
-0.04392,0.06832,-0.09272,-0.07076,-0.0488,0.00244,0.06344,0,-0.08296,-0.06344,-0.0488,-0.0244
-0.0488,0.06832,-0.08784,-0.06344,-0.03904,-0.00488,0.08296,0.00488,-0.05856,-0.0732,-0.0732,-0.03904
-0.06344,0.06344,-0.06344,-0.03172,0,-0.03172,0.09272,0.00488,-0.05856,-0.0732,-0.06832,-0.04392
-0.0732,0.06588,-0.05856,-0.02196,0.01464,-0.04392,0.08784,0.00976,-0.05856,-0.07808,-0.06832,-0.03904
-0.06832,0.07564,-0.08296,-0.0488,-0.01464,-0.02684,0.10248,0.01952,-0.05368,-0.06344,-0.05368,-0.0244
-0.06344,0.0732,-0.08296,-0.05124,-0.01952,-0.02196,0.10736,0.01952,-0.04392,-0.06344,-0.05856,-0.02928
-0.06344,0.05856,-0.05368,-0.02196,0.00976,-0.0366,0.10248,0.00976,-0.04392,-0.0732,-0.06832,-0.0488
-0.06344,0.05124,-0.03904,-0.00732,0.0244,-0.04392,0.10248,0.00976,-0.03904,-0.06344,-0.06344,-0.03904
-0.05368,0.04636,-0.03904,-0.0122,0.01464,-0.03416,0.0976,0.01952,-0.03416,-0.06344,-0.05856,-0.03904
-0.05368,0.0488,-0.04392,-0.01708,0.00976,-0.03172,0.0976,0.0244,-0.02928,-0.06344,-0.05856,-0.03904
-0.0488,0.04392,-0.03904,-0.01464,0.00976,-0.02928,0.10248,0.04392,-0.02928,-0.05368,-0.05368,-0.02928
-0.05856,0.05368,-0.0488,-0.01952,0.00976,-0.03416,0.10248,0.05368,-0.02928,-0.04392,-0.05368,-0.0244
-0.0488,0.03904,-0.02928,-0.00488,0.01952,-0.03416,0.10248,0.04392,-0.0244,-0.04392,-0.05368,-0.02928
-0.0488,0.03904,-0.02928,-0.00488,0.01952,-0.03416,0.10248,0.04392,-0.0244,-0.04392,-0.05368,-0.02928
-0.04392,0.04636,-0.0488,-0.02684,-0.00488,-0.01952,0.10736,0.0488,-0.01464,-0.03416,-0.0488,-0.03416
-0.04392,0.04392,-0.04392,-0.02196,0,-0.02196,0.10736,0.0488,-0.01464,-0.03416,-0.0488,-0.03416
-0.03416,0.03172,-0.02928,-0.0122,0.00488,-0.01952,0.08784,0.0488,-0.0244,-0.04392,-0.0488,-0.03904
-0.0244,0.03172,-0.03904,-0.02684,-0.01464,-0.00488,0.08296,0.0488,-0.02928,-0.05368,-0.05856,-0.0488
-0.02928,0.0244,-0.01952,-0.00488,0.00976,-0.01952,0.08296,0.03904,-0.02928,-0.0488,-0.05856,-0.03904
-0.02928,0.0244,-0.01952,-0.00488,0.00976,-0.01952,0.08784,0.04392,-0.0244,-0.0488,-0.05856,-0.03904
-0.03904,0.02928,-0.01952,0,0.01952,-0.02928,0.0976,0.06344,-0.00488,-0.03416,-0.04392,-0.0244
-0.0488,0.02928,-0.00976,0.01464,0.03904,-0.04392,0.11224,0.06832,-0.00488,-0.02928,-0.03904,-0.0244
-0.04392,0.03172,-0.01952,0.00244,0.0244,-0.03416,0.122,0.08296,0.00976,-0.01952,-0.02928,-0.01464
-0.04392,0.03904,-0.03416,-0.0122,0.00976,-0.02684,0.122,0.08296,0.00976,-0.01952,-0.02928,-0.01464
-0.04392,0.0488,-0.05368,-0.03172,-0.00976,-0.01708,0.12688,0.0732,0.00976,-0.01464,-0.04392,-0.01952
-0.04392,0.05612,-0.06832,-0.04636,-0.0244,-0.00976,0.12688,0.08296,0.01952,-0.00976,-0.03416,-0.01464
-0.0244,0.03416,-0.04392,-0.03172,-0.01952,-0.00244,0.122,0.0732,0.00976,-0.01464,-0.03416,-0.01464
-0.01464,0.01708,-0.01952,-0.0122,-0.00488,-0.00488,0.11712,0.07808,0.01952,-0.01464,-0.02928,-0.0244
-0.01952,0.00488,0.00976,0.01952,0.02928,-0.0244,0.11224,0.07808,0.0244,-0.00488,-0.02928,-0.01952
-0.02928,0.0122,0.00488,0.01952,0.03416,-0.03172,0.10736,0.08296,0.02928,0,-0.01464,-0.00976
-0.02928,0.00488,0.01952,0.03416,0.0488,-0.03904,0.09272,0.0732,0.03416,-0.00488,-0.0244,-0.00976
-0.02928,0.00488,0.01952,0.03416,0.0488,-0.03904,0.09272,0.0732,0.03904,0,-0.0244,-0.00976
-0.03416,-0.00244,0.03904,0.05612,0.0732,-0.05368,0.0976,0.09272,0.03904,0.00976,-0.01464,-0.01952
-0.03416,-0.00976,0.05368,0.07076,0.08784,-0.061,0.10248,0.0976,0.04392,0.01464,0.00488,-0.00976
-0.01952,-0.00732,0.03416,0.04392,0.05368,-0.0366,0.10736,0.11224,0.05856,0.02928,0.00488,0.00976
-0.01952,0.0122,-0.00488,0.00488,0.01464,-0.01708,0.10736,0.122,0.0732,0.04392,0.01952,0.00976
0,-0.00732,0.01464,0.01464,0.01464,-0.00732,0.0976,0.122,0.06832,0.03416,0.00976,0.00976
0.00488,-0.02196,0.03904,0.0366,0.03416,-0.01464,0.0976,0.11712,0.07808,0.03416,0.01464,0.00976
0.01464,-0.04148,0.06832,0.061,0.05368,-0.01952,0.09272,0.12688,0.08296,0.0488,0.0244,0.01952
0.01952,-0.04148,0.06344,0.05368,0.04392,-0.0122,0.09272,0.14152,0.0976,0.05856,0.03416,0.02928
0.03416,-0.04636,0.05856,0.04148,0.0244,0.00488,0.08296,0.15616,0.11712,0.07808,0.05368,0.03904
0.04392,-0.05612,0.06832,0.04636,0.0244,0.00976,0.08296,0.16592,0.12688,0.09272,0.06344,0.04392
0.0488,-0.061,0.0732,0.0488,0.0244,0.0122,0.06832,0.16592,0.13176,0.10248,0.06344,0.0488
0.05856,-0.061,0.06344,0.03416,0.00488,0.02684,0.06344,0.1708,0.13664,0.10248,0.07808,0.06344
0.06832,-0.08784,0.10736,0.0732,0.03904,0.01464,0.05368,0.18056,0.13664,0.10248,0.06832,0.05368
0.0732,-0.09516,0.11712,0.08052,0.04392,0.01464,0.05368,0.19032,0.15128,0.10248,0.08296,0.06344
0.0732,-0.10492,0.13664,0.10004,0.06344,0.00488,0.05368,0.20008,0.16104,0.12688,0.09272,0.07808
0.07808,-0.11468,0.15128,0.11224,0.0732,0.00244,0.0488,0.20008,0.17568,0.14152,0.10736,0.07808
0.07808,-0.11224,0.1464,0.10736,0.06832,0.00488,0.05856,0.21472,0.18544,0.1464,0.11712,0.10248
0.0732,-0.1098,0.1464,0.1098,0.0732,0,0.06832,0.2196,0.18544,0.15616,0.11712,0.11224
0.06832,-0.10736,0.1464,0.11224,0.07808,-0.00488,0.06832,0.22936,0.20008,0.16592,0.13664,0.12688
0.06832,-0.10492,0.14152,0.10736,0.0732,-0.00244,0.07808,0.23912,0.20008,0.18056,0.13664,0.13176
0.08784,-0.11712,0.1464,0.10248,0.05856,0.01464,0.06832,0.22936,0.20008,0.17568,0.1464,0.12688
0.0976,-0.122,0.1464,0.0976,0.0488,0.0244,0.06344,0.22448,0.20496,0.17568,0.1464,0.13176
0.0976,-0.11712,0.13664,0.08784,0.03904,0.02928,0.05856,0.21472,0.19032,0.16104,0.13176,0.11224
0.10248,-0.11956,0.13664,0.0854,0.03416,0.03416,0.05856,0.20496,0.18056,0.15616,0.13176,0.11224
0.10248,-0.12444,0.1464,0.09516,0.04392,0.02928,0.05856,0.1952,0.16592,0.13664,0.11224,0.10736
0.08784,-0.11468,0.14152,0.0976,0.05368,0.01708,0.06344,0.18544,0.15616,0.13176,0.10248,0.10248
0.0732,-0.10004,0.12688,0.09028,0.05368,0.00976,0.0732,0.18544,0.15616,0.13176,0.0976,0.10248
0.06344,-0.0854,0.10736,0.07564,0.04392,0.00976,0.07808,0.17568,0.13176,0.12688,0.09272,0.10736
0.06344,-0.08296,0.10248,0.07076,0.03904,0.0122,0.07808,0.15128,0.11224,0.10248,0.06344,0.07808
0.05856,-0.0854,0.11224,0.08296,0.05368,0.00244,0.08296,0.13664,0.0976,0.07808,0.0488,0.05856
0.0488,-0.08296,0.11712,0.09272,0.06832,-0.00976,0.09272,0.11712,0.06832,0.05368,0.03416,0.0488
0.02928,-0.06832,0.10736,0.09272,0.07808,-0.0244,0.09272,0.10736,0.0488,0.03416,0.0244,0.03904
0.01952,-0.04392,0.06832,0.05856,0.0488,-0.01464,0.10736,0.08784,0.03904,0.0244,0.0244,0.03904
0.01464,-0.02684,0.03904,0.03172,0.0244,-0.00488,0.11224,0.06832,0.03416,0.00976,0.00488,0.02928
0,-0.01464,0.02928,0.02928,0.02928,-0.01464,0.10736,0.06832,0.02928,0.00488,0,0.0244
-0.01464,-0.00976,0.03416,0.04148,0.0488,-0.03172,0.10736,0.05856,0.01464,-0.01464,-0.00976,0.01464
-0.00488,-0.01464,0.03416,0.0366,0.03904,-0.02196,0.11224,0.03416,-0.00976,-0.01952,-0.01952,-0.00488
-0.00976,-0.01464,0.03904,0.04392,0.0488,-0.02928,0.10248,0.0244,-0.02928,-0.03904,-0.03904,-0.01952
-0.0244,0.00976,0.00488,0.01708,0.02928,-0.02684,0.11712,0.01952,-0.0244,-0.04392,-0.0488,-0.00976
-0.02928,0.01708,-0.00488,0.00976,0.0244,-0.02684,0.11712,0.01464,-0.0244,-0.0488,-0.05368,-0.01464
-0.03416,0.0244,-0.01464,0.00244,0.01952,-0.02684,0.11712,0.01464,-0.01952,-0.0488,-0.05368,-0.01952
-0.03416,0.0244,-0.01464,0.00244,0.01952,-0.02684,0.12688,0.01464,-0.0244,-0.05368,-0.04392,-0.01952
-0.03904,0.03904,-0.03904,-0.01952,0,-0.01952,0.14152,0.01464,-0.0244,-0.0488,-0.04392,-0.00976
-0.05368,0.0488,-0.04392,-0.01708,0.00976,-0.03172,0.13664,0.00976,-0.03416,-0.05368,-0.05368,-0.01952
-0.04392,0.03416,-0.0244,-0.00244,0.01952,-0.03172,0.12688,0,-0.03904,-0.06344,-0.05368,-0.02928
-0.03904,0.02684,-0.01464,0.00488,0.0244,-0.03172,0.122,-0.00976,-0.04392,-0.0732,-0.05856,-0.03416
-0.02928,0.02684,-0.0244,-0.00976,0.00488,-0.01708,0.122,0.00488,-0.03904,-0.06344,-0.05368,-0.03904
-0.02928,0.03904,-0.0488,-0.03416,-0.01952,-0.00488,0.122,0.00488,-0.03904,-0.05368,-0.05856,-0.03904
-0.0488,0.05124,-0.05368,-0.02928,-0.00488,-0.02196,0.12688,0.00488,-0.0488,-0.06344,-0.06344,-0.0488
-0.05368,0.0488,-0.04392,-0.01708,0.00976,-0.03172,0.12688,0.00488,-0.0488,-0.06344,-0.06344,-0.0488
-0.05856,0.05368,-0.0488,-0.01952,0.00976,-0.03416,0.122,0.00488,-0.0488,-0.06344,-0.05856,-0.03904
-0.05856,0.05368,-0.0488,-0.01952,0.00976,-0.03416,0.122,0.00488,-0.04392,-0.06344,-0.05856,-0.03904
-0.0488,0.03904,-0.02928,-0.00488,0.01952,-0.03416,0.13176,0.01464,-0.03416,-0.05368,-0.0488,-0.02928
-0.03416,0.02196,-0.00976,0.00732,0.0244,-0.02928,0.122,0.00976,-0.03904,-0.05856,-0.0488,-0.02928
-0.04392,0.0366,-0.02928,-0.00732,0.01464,-0.02928,0.13664,0.00976,-0.0244,-0.04392,-0.03904,-0.02928
-0.0488,0.04392,-0.03904,-0.01464,0.00976,-0.02928,0.14152,0.00976,-0.0244,-0.04392,-0.03904,-0.03416
-0.0488,0.05612,-0.06344,-0.03904,-0.01464,-0.01708,0.13664,0.00488,-0.0244,-0.03904,-0.04392,-0.0244
-0.0488,0.061,-0.0732,-0.0488,-0.0244,-0.0122,0.13176,0.00488,-0.01952,-0.03904,-0.03904,-0.0244
-0.03904,0.04148,-0.04392,-0.0244,-0.00488,-0.01708,0.11712,0,-0.02928,-0.0488,-0.03904,-0.03416
-0.03904,0.02928,-0.01952,0,0.01952,-0.02928,0.122,0.00488,-0.02928,-0.04392,-0.03416,-0.03416
-0.03904,0.02928,-0.01952,0,0.01952,-0.02928,0.122,-0.00488,-0.0244,-0.04392,-0.03416,-0.03416
-0.03904,0.02928,-0.01952,0,0.01952,-0.02928,0.122,0,-0.01952,-0.04392,-0.03904,-0.03416
-0.02928,0.02684,-0.0244,-0.00976,0.00488,-0.01708,0.122,0,-0.03416,-0.05856,-0.0488,-0.03904
-0.02928,0.02684,-0.0244,-0.00976,0.00488,-0.01708,0.122,-0.00488,-0.03416,-0.05856,-0.0488,-0.03904
0.00976,0.00976,-0.02928,-0.03416,-0.03904,0.0244,0.10248,-0.01464,-0.04392,-0.07808,-0.06832,-0.05856
0.04392,-0.00976,-0.0244,-0.04636,-0.06832,0.05612,0.09272,-0.0244,-0.0488,-0.08296,-0.08296,-0.0732
-0.01952,0.02928,-0.03904,-0.02928,-0.01952,0,0.11712,0,-0.02928,-0.05856,-0.06344,-0.05368
-0.08296,0.06344,-0.04392,-0.00244,0.03904,-0.061,0.14152,0.01464,-0.01464,-0.0488,-0.05368,-0.04392
-0.09272,0.061,-0.02928,0.01708,0.06344,-0.07808,0.15128,0.0244,-0.00488,-0.03904,-0.03904,-0.0244
-0.0976,0.06588,-0.03416,0.01464,0.06344,-0.08052,0.1464,0.0244,-0.00488,-0.03416,-0.02928,-0.01464
-0.08296,0.05612,-0.02928,0.0122,0.05368,-0.06832,0.1464,0.0244,-0.00488,-0.03416,-0.0244,-0.01464
-0.06344,0.04636,-0.02928,0.00244,0.03416,-0.0488,0.15128,0.02928,-0.00488,-0.03416,-0.01952,-0.01464
-0.05368,0.03904,-0.0244,0.00244,0.02928,-0.04148,0.14152,0.0244,-0.01464,-0.03416,-0.02928,-0.01952
-0.04392,0.03172,-0.01952,0.00244,0.0244,-0.03416,0.14152,0.0244,-0.01464,-0.03416,-0.02928,-0.01952
-0.03416,0.01464,0.00488,0.02196,0.03904,-0.0366,0.122,0.01464,-0.03416,-0.05368,-0.04392,-0.02928
-0.03416,0.01708,0,0.01708,0.03416,-0.03416,0.122,0.00488,-0.02928,-0.0488,-0.03904,-0.0244
-0.03416,0.01464,0.00488,0.02196,0.03904,-0.0366,0.122,0.00976,-0.02928,-0.0488,-0.03904,-0.0244
-0.03416,0.0122,0.00976,0.02684,0.04392,-0.03904,0.12688,0.00976,-0.02928,-0.0488,-0.03904,-0.0244
-0.02928,0.01708,-0.00488,0.00976,0.0244,-0.02684,0.122,0.00976,-0.02928,-0.0488,-0.04392,-0.0244
-0.03416,0.0244,-0.01464,0.00244,0.01952,-0.02684,0.11712,0.00488,-0.03904,-0.05368,-0.04392,-0.03416
-0.03904,0.01952,0,0.01952,0.03904,-0.03904,0.10736,-0.00488,-0.03904,-0.06344,-0.04392,-0.02928
-0.03416,0.00976,0.01464,0.03172,0.0488,-0.04148,0.0976,-0.00976,-0.03904,-0.06344,-0.0488,-0.0244
-0.03416,0.00244,0.02928,0.04636,0.06344,-0.0488,0.09272,-0.01952,-0.0488,-0.06832,-0.0488,-0.04392
-0.03416,-0.00244,0.03904,0.05612,0.0732,-0.05368,0.0976,-0.0244,-0.0488,-0.06832,-0.0488,-0.03904
-0.04392,0.01952,0.00488,0.02684,0.0488,-0.04636,0.10736,-0.00976,-0.03416,-0.05856,-0.03416,-0.02928
-0.03904,0.0244,-0.00976,0.00976,0.02928,-0.03416,0.11712,-0.00488,-0.03416,-0.06832,-0.04392,-0.02928
-0.04392,0.02928,-0.01464,0.00732,0.02928,-0.0366,0.11224,-0.00488,-0.04392,-0.05856,-0.04392,-0.03904
-0.04392,0.0366,-0.02928,-0.00732,0.01464,-0.02928,0.11224,-0.00488,-0.04392,-0.05856,-0.0488,-0.03904
-0.03904,0.0366,-0.03416,-0.01464,0.00488,-0.02196,0.11224,-0.00488,-0.03416,-0.05856,-0.04392,-0.03904
-0.03904,0.0366,-0.03416,-0.01464,0.00488,-0.02196,0.11224,-0.00976,-0.02928,-0.05368,-0.04392,-0.03416
-0.03416,0.04392,-0.05368,-0.0366,-0.01952,-0.00732,0.10736,-0.01952,-0.03904,-0.06344,-0.0488,-0.0488
-0.01952,0.03904,-0.05856,-0.0488,-0.03904,0.00976,0.10736,-0.01464,-0.0488,-0.07808,-0.06344,-0.06832
-0.02928,0.04636,-0.06344,-0.0488,-0.03416,0.00244,0.10248,-0.01464,-0.0488,-0.07808,-0.05368,-0.05856
-0.03416,0.04392,-0.05368,-0.0366,-0.01952,-0.00732,0.10248,-0.01952,-0.0488,-0.07808,-0.06832,-0.05856
-0.0488,0.04392,-0.03904,-0.01464,0.00976,-0.02928,0.10248,-0.01464,-0.03904,-0.0732,-0.0488,-0.03904
-0.06344,0.05368,-0.04392,-0.0122,0.01952,-0.04148,0.10736,-0.00976,-0.03904,-0.05856,-0.03904,-0.02928
-0.05368,0.03904,-0.0244,0.00244,0.02928,-0.04148,0.10248,-0.0244,-0.03904,-0.05856,-0.03904,-0.0244
-0.05368,0.03416,-0.01464,0.0122,0.03904,-0.04636,0.0976,-0.0244,-0.03904,-0.0488,-0.04392,-0.0244
-0.04392,0.03416,-0.0244,-0.00244,0.01952,-0.03172,0.09272,-0.0244,-0.04392,-0.05368,-0.03904,-0.03416
-0.05368,0.04392,-0.03416,-0.00732,0.01952,-0.0366,0.08784,-0.02928,-0.04392,-0.06832,-0.04392,-0.04392
-0.0488,0.04636,-0.04392,-0.01952,0.00488,-0.02684,0.08784,-0.02928,-0.05368,-0.07808,-0.05368,-0.0488
-0.03904,0.0366,-0.03416,-0.01464,0.00488,-0.02196,0.08784,-0.0244,-0.05368,-0.07808,-0.06344,-0.0488
-0.0488,0.04636,-0.04392,-0.01952,0.00488,-0.02684,0.09272,-0.01952,-0.05856,-0.0732,-0.0732,-0.05368
-0.04392,0.05124,-0.05856,-0.0366,-0.01464,-0.01464,0.0976,-0.00976,-0.05368,-0.0732,-0.06832,-0.0488
-0.04392,0.05124,-0.05856,-0.0366,-0.01464,-0.01464,0.09272,-0.01464,-0.04392,-0.06344,-0.05856,-0.0488
-0.04392,0.05124,-0.05856,-0.0366,-0.01464,-0.01464,0.09272,-0.01464,-0.04392,-0.06344,-0.0488,-0.0488
-0.01952,0.03172,-0.04392,-0.03416,-0.0244,0.00244,0.08296,-0.0244,-0.05856,-0.0732,-0.05856,-0.06344
-0.01952,0.03416,-0.0488,-0.03904,-0.02928,0.00488,0.0732,-0.0244,-0.06832,-0.08296,-0.06832,-0.05856
-0.03904,0.02928,-0.01952,0,0.01952,-0.02928,0.08784,-0.0244,-0.05856,-0.0732,-0.05856,-0.05368
-0.04392,0.02684,-0.00976,0.0122,0.03416,-0.03904,0.08296,-0.02928,-0.06832,-0.08296,-0.06832,-0.05368
-0.05856,0.04148,-0.0244,0.00488,0.03416,-0.04636,0.08296,-0.02928,-0.06344,-0.07808,-0.05368,-0.04392
-0.0732,0.05124,-0.02928,0.00732,0.04392,-0.05856,0.07808,-0.02928,-0.06344,-0.08296,-0.05368,-0.04392
-0.06344,0.05368,-0.04392,-0.0122,0.01952,-0.04148,0.07808,-0.01952,-0.06344,-0.08296,-0.05368,-0.03904
-0.05368,0.05856,-0.06344,-0.0366,-0.00976,-0.02196,0.08296,-0.01952,-0.06344,-0.08296,-0.05368,-0.03904
-0.0488,0.03416,-0.01952,0.00488,0.02928,-0.03904,0.08296,-0.01464,-0.06832,-0.07808,-0.05856,-0.03904
-0.0488,0.03416,-0.01952,0.00488,0.02928,-0.03904,0.08784,-0.00976,-0.06344,-0.06832,-0.0488,-0.02928
-0.0488,0.03416,-0.01952,0.00488,0.02928,-0.03904,0.08784,-0.00976,-0.05368,-0.06832,-0.0488,-0.02928
-0.03904,0.01952,0,0.01952,0.03904,-0.03904,0.08784,-0.00488,-0.0488,-0.05856,-0.04392,-0.03416
-0.04392,0.01952,0.00488,0.02684,0.0488,-0.04636,0.0976,0,-0.02928,-0.03904,-0.02928,-0.0244
-0.03904,0.0122,0.01464,0.03416,0.05368,-0.04636,0.10248,-0.00488,-0.02928,-0.0488,-0.02928,-0.0244
-0.02928,0,0.02928,0.04392,0.05856,-0.04392,0.10736,-0.00488,-0.0244,-0.03904,-0.03904,-0.02928
-0.02928,-0.00244,0.03416,0.0488,0.06344,-0.04636,0.12688,0.00488,-0.02928,-0.04392,-0.04392,-0.03904
-0.02928,-0.00488,0.03904,0.05368,0.06832,-0.0488,0.12688,0.00976,-0.0244,-0.0488,-0.04392,-0.03904
-0.03416,0.00488,0.0244,0.04148,0.05856,-0.04636,0.13664,0.03416,-0.00488,-0.04392,-0.04392,-0.04392
-0.02928,0,0.02928,0.04392,0.05856,-0.04392,0.12688,0.03416,-0.00488,-0.03416,-0.03416,-0.03416
-0.02928,0.0122,0.00488,0.01952,0.03416,-0.03172,0.122,0.03416,-0.00976,-0.01952,-0.02928,-0.0244
-0.02928,0.02196,-0.01464,0,0.01464,-0.02196,0.11224,0.01952,-0.01952,-0.03416,-0.03416,-0.02928
-0.02928,0.02684,-0.0244,-0.00976,0.00488,-0.01708,0.08296,-0.00976,-0.03416,-0.05368,-0.0488,-0.03904
-0.01464,0.00732,0,0.00732,0.01464,-0.01464,0.05856,-0.0244,-0.05856,-0.06344,-0.05856,-0.04392
-0.00488,0.00488,-0.00488,-0.00244,0,-0.00244,0.03904,-0.03416,-0.06832,-0.06344,-0.05368,-0.03416
0.00488,0.00244,-0.00976,-0.0122,-0.01464,0.00976,0.0244,-0.04392,-0.0732,-0.06832,-0.05368,-0.03416
0.00976,0.00488,-0.01952,-0.0244,-0.02928,0.01952,0.01952,-0.0488,-0.06344,-0.06832,-0.0488,-0.0244
0.00976,0.00732,-0.0244,-0.02928,-0.03416,0.02196,0.00976,-0.05856,-0.08784,-0.07808,-0.05856,-0.03904
0.01464,0.00244,-0.01952,-0.02684,-0.03416,0.0244,-0.00488,-0.06832,-0.0976,-0.09272,-0.06832,-0.05368
0.01952,-0.00732,-0.00488,-0.01464,-0.0244,0.02196,0,-0.06832,-0.10736,-0.10248,-0.07808,-0.05368
0.01952,-0.00976,0,-0.00976,-0.01952,0.01952,-0.00488,-0.06832,-0.11224,-0.10736,-0.08296,-0.05368
0.01952,-0.00976,0,-0.00976,-0.01952,0.01952,0,-0.05856,-0.0976,-0.09272,-0.06832,-0.04392
-0.00488,-0.00244,0.00976,0.0122,0.01464,-0.00976,0.00976,-0.05856,-0.08784,-0.07808,-0.05368,-0.0244
-0.00488,0.0122,-0.01952,-0.01708,-0.01464,0.00488,0.01952,-0.05368,-0.07808,-0.06832,-0.04392,-0.01952
0,0.00976,-0.01952,-0.01952,-0.01952,0.00976,0.0244,-0.05368,-0.07808,-0.06344,-0.04392,-0.00976
-0.00488,0.01464,-0.0244,-0.02196,-0.01952,0.00732,0.03416,-0.05368,-0.0732,-0.06344,-0.04392,-0.00976
-0.03416,0.03416,-0.03416,-0.01708,0,-0.01708,0.0488,-0.03416,-0.06344,-0.06344,-0.04392,-0.01952
-0.04392,0.03904,-0.03416,-0.0122,0.00976,-0.02684,0.05368,-0.03904,-0.0732,-0.07808,-0.05368,-0.03904
-0.06344,0.05124,-0.03904,-0.00732,0.0244,-0.04392,0.06344,-0.03416,-0.07808,-0.08296,-0.05856,-0.04392
-0.06344,0.061,-0.05856,-0.02684,0.00488,-0.03416,0.0732,-0.04392,-0.0732,-0.08296,-0.05368,-0.04392
-0.05368,0.06344,-0.0732,-0.04636,-0.01952,-0.01708,0.07808,-0.03904,-0.08296,-0.09272,-0.05856,-0.05856
-0.06832,0.07564,-0.08296,-0.0488,-0.01464,-0.02684,0.08296,-0.03904,-0.08296,-0.09272,-0.06832,-0.05856
-0.0732,0.08296,-0.09272,-0.05612,-0.01952,-0.02684,0.08296,-0.03904,-0.08784,-0.08784,-0.0732,-0.05368
-0.05856,0.07564,-0.09272,-0.06344,-0.03416,-0.0122,0.0732,-0.03904,-0.08784,-0.0976,-0.08296,-0.06344
-0.05856,0.06832,-0.07808,-0.0488,-0.01952,-0.01952,0.07808,-0.0488,-0.09272,-0.10248,-0.08784,-0.07808
-0.06832,0.06588,-0.06344,-0.02928,0.00488,-0.0366,0.07808,-0.04392,-0.09272,-0.10248,-0.08296,-0.0732
-0.08296,0.06344,-0.04392,-0.00244,0.03904,-0.061,0.08784,-0.0488,-0.09272,-0.09272,-0.0732,-0.06832
-0.08296,0.0732,-0.06344,-0.02196,0.01952,-0.05124,0.09272,-0.0488,-0.08784,-0.08784,-0.0732,-0.05368
-0.08296,0.07564,-0.06832,-0.02684,0.01464,-0.0488,0.0976,-0.05368,-0.09272,-0.10736,-0.07808,-0.06344
-0.08296,0.08052,-0.07808,-0.0366,0.00488,-0.04392,0.0976,-0.0488,-0.08784,-0.10248,-0.07808,-0.06344
-0.0732,0.06832,-0.06344,-0.02684,0.00976,-0.04148,0.08784,-0.0488,-0.09272,-0.10248,-0.08296,-0.0732
-0.09272,0.08296,-0.0732,-0.02684,0.01952,-0.05612,0.11712,-0.00976,-0.06832,-0.11712,-0.10736,-0.09272
-0.11712,0.0976,-0.07808,-0.01952,0.03904,-0.07808,0.16104,0.03904,-0.02928,-0.10248,-0.11712,-0.10736
-0.10248,0.07808,-0.05368,-0.00244,0.0488,-0.07564,0.20984,0.09272,0.05856,-0.02928,-0.0488,-0.05856
-0.11712,0.05124,0.01464,0.0732,0.13176,-0.12444,0.20496,0.1464,0.13664,0.03416,0.00976,-0.00976
-0.0244,-0.01708,0.05856,0.07076,0.08296,-0.05368,0.1952,0.22448,0.21472,0.12688,0.08296,0.03904
0.13176,-0.08052,0.02928,-0.0366,-0.10248,0.11712,0.20008,0.43432,0.40016,0.27328,0.18544,0.11712
0.23912,-0.17324,0.10736,-0.0122,-0.13176,0.18544,0.20008,0.59048,0.60024,0.47824,0.37088,0.25864
0.42944,-0.34648,0.26352,0.0488,-0.16592,0.29768,0.10248,0.57584,0.77104,0.74664,0.62464,0.488
0.55632,-0.5246,0.49288,0.21472,-0.06344,0.30988,-0.00488,0.39528,0.86864,1.00528,0.91256,0.74664
0.58072,-0.69296,0.8052,0.51484,0.22448,0.17812,-0.19032,0.03904,0.81496,1.16144,1.15656,1.00528
0.6344,-0.71492,0.79544,0.47824,0.16104,0.23668,-0.33672,-0.24888,0.61,1.1468,1.21024,1.06384
0.56608,-0.49044,0.4148,0.13176,-0.15128,0.35868,-0.32208,-0.30744,0.28792,0.69296,0.71736,0.6588
0.45384,-0.36844,0.28304,0.05612,-0.1708,0.31232,-0.39528,-0.50752,-0.0488,0.37088,0.45872,0.49288
0.27328,-0.2196,0.16592,0.02928,-0.10736,0.19032,-0.3904,-0.7076,-0.48312,-0.04392,0.20008,0.3416
0.10248,-0.05612,0.00976,-0.04148,-0.09272,0.0976,-0.32696,-0.74176,-0.69784,-0.3416,-0.04392,0.14152
0.03416,0.0488,-0.13176,-0.14884,-0.16592,0.10004,-0.28304,-0.67832,-0.68808,-0.42456,-0.1952,-0.01464
0.00488,0.06344,-0.13176,-0.1342,-0.13664,0.07076,-0.22936,-0.5368,-0.57096,-0.38552,-0.21472,-0.05856
0.01464,0.05124,-0.11712,-0.12444,-0.13176,0.0732,-0.17568,-0.3904,-0.44896,-0.3172,-0.18056,-0.05856
-0.00488,0.0244,-0.04392,-0.04148,-0.03904,0.01708,-0.09272,-0.244,-0.2684,-0.20496,-0.11712,-0.0488
-0.00488,0,0.00488,0.00732,0.00976,-0.00732,-0.01464,-0.1464,-0.1464,-0.13664,-0.08296,-0.03904
-0.0244,0.01708,-0.00976,0.00244,0.01464,-0.01952,0.02928,-0.08296,-0.09272,-0.08784,-0.05856,-0.02928
-0.05368,0.03904,-0.0244,0.00244,0.02928,-0.04148,0.04392,-0.0488,-0.10248,-0.10248,-0.07808,-0.05368
-0.06344,0.05124,-0.03904,-0.00732,0.0244,-0.04392,0.06344,-0.0244,-0.08784,-0.10248,-0.07808,-0.06344
-0.0732,0.05368,-0.03416,0.00244,0.03904,-0.05612,0.08784,-0.0244,-0.0732,-0.09272,-0.08784,-0.07808
-0.0732,0.04636,-0.01952,0.01708,0.05368,-0.06344,0.09272,-0.0244,-0.06344,-0.0976,-0.08296,-0.07808
-0.07808,0.0488,-0.01952,0.01952,0.05856,-0.06832,0.09272,-0.0244,-0.06344,-0.09272,-0.08296,-0.06344
-0.0732,0.0488,-0.0244,0.0122,0.0488,-0.061,0.09272,-0.01952,-0.05856,-0.09272,-0.08296,-0.06344
-0.06344,0.05124,-0.03904,-0.00732,0.0244,-0.04392,0.0976,-0.00976,-0.05368,-0.09272,-0.07808,-0.06344
-0.0732,0.05368,-0.03416,0.00244,0.03904,-0.05612,0.10248,-0.00976,-0.05368,-0.09272,-0.07808,-0.06832
-0.05856,0.0488,-0.03904,-0.00976,0.01952,-0.03904,0.11712,-0.00488,-0.05856,-0.09272,-0.07808,-0.06832
-0.05368,0.04636,-0.03904,-0.0122,0.01464,-0.03416,0.11712,0,-0.0488,-0.09272,-0.07808,-0.06832
-0.04392,0.0366,-0.02928,-0.00732,0.01464,-0.02928,0.122,0.01464,-0.03904,-0.08296,-0.06832,-0.06832
-0.0488,0.03904,-0.02928,-0.00488,0.01952,-0.03416,0.122,0.02928,-0.03904,-0.07808,-0.06344,-0.06344
-0.06832,0.05124,-0.03416,0,0.03416,-0.05124,0.12688,0.03904,-0.02928,-0.06832,-0.05856,-0.05368
-0.08784,0.06832,-0.0488,-0.00488,0.03904,-0.06344,0.13664,0.0488,-0.01952,-0.05856,-0.0488,-0.0488
-0.08784,0.0732,-0.05856,-0.01464,0.02928,-0.05856,0.14152,0.05368,-0.00488,-0.05368,-0.05368,-0.04392
-0.08296,0.06832,-0.05368,-0.0122,0.02928,-0.05612,0.1464,0.05856,-0.00488,-0.05368,-0.0488,-0.04392
-0.0732,0.05368,-0.03416,0.00244,0.03904,-0.05612,0.14152,0.0488,-0.01464,-0.04392,-0.04392,-0.05368
-0.0732,0.05856,-0.04392,-0.00732,0.02928,-0.05124,0.13664,0.0488,-0.00976,-0.04392,-0.03904,-0.0488
-0.0732,0.05612,-0.03904,-0.00244,0.03416,-0.05368,0.122,0.0488,0,-0.03904,-0.03904,-0.0488
-0.07808,0.05368,-0.02928,0.00976,0.0488,-0.06344,0.12688,0.05368,0.00488,-0.03904,-0.03904,-0.0488
-0.06832,0.05612,-0.04392,-0.00976,0.0244,-0.04636,0.13664,0.06344,0.00488,-0.02928,-0.02928,-0.03904
-0.06832,0.06588,-0.06344,-0.02928,0.00488,-0.0366,0.14152,0.07808,0.01464,-0.0244,-0.01952,-0.03416
-0.05856,0.05612,-0.05368,-0.0244,0.00488,-0.03172,0.13176,0.06832,0.00488,-0.0244,-0.0244,-0.04392
-0.05368,0.06588,-0.07808,-0.05124,-0.0244,-0.01464,0.122,0.0732,0.00976,-0.03416,-0.03416,-0.04392
-0.03904,0.05612,-0.0732,-0.05368,-0.03416,-0.00244,0.11224,0.06832,0,-0.03904,-0.0488,-0.05368
-0.02928,0.04148,-0.05368,-0.03904,-0.0244,-0.00244,0.10248,0.05856,0,-0.04392,-0.05368,-0.05856
-0.03416,0.04148,-0.0488,-0.03172,-0.01464,-0.00976,0.10736,0.07808,0.0244,-0.03904,-0.03904,-0.02928
-0.05368,0.0488,-0.04392,-0.01708,0.00976,-0.03172,0.13176,0.08784,0.03904,-0.01952,-0.0244,-0.01952
-0.07808,0.05612,-0.03416,0.00488,0.04392,-0.061,0.12688,0.0976,0.04392,-0.00488,-0.01952,-0.00976
-0.08296,0.05612,-0.02928,0.0122,0.05368,-0.06832,0.13664,0.0976,0.04392,-0.00488,-0.00976,-0.00488
-0.0732,0.0488,-0.0244,0.0122,0.0488,-0.061,0.12688,0.09272,0.0488,0.01464,-0.00488,0
-0.05368,0.0366,-0.01952,0.00732,0.03416,-0.04392,0.122,0.09272,0.05368,0.01464,-0.00488,0
-0.03416,0.0244,-0.01464,0.00244,0.01952,-0.02684,0.11712,0.11224,0.06832,0.00976,0,0.00976
-0.03416,0.02928,-0.0244,-0.00732,0.00976,-0.02196,0.122,0.11224,0.06832,0.01464,0.01464,0.00976
-0.0244,0.01708,-0.00976,0.00244,0.01464,-0.01952,0.11712,0.11712,0.0732,0.01952,0.01952,0.01464
-0.01952,0.00244,0.01464,0.0244,0.03416,-0.02684,0.10248,0.10736,0.06832,0.02928,0.01464,0.00488
-0.01464,-0.00488,0.0244,0.03172,0.03904,-0.02684,0.08784,0.10736,0.0732,0.03416,0.00976,0.00488
-0.00488,-0.0122,0.02928,0.03172,0.03416,-0.01952,0.08784,0.11712,0.08296,0.03416,0.01464,-0.00488
0.00488,-0.01708,0.02928,0.02684,0.0244,-0.00976,0.08784,0.11712,0.08296,0.03904,0.01464,0
0.01464,-0.03172,0.0488,0.04148,0.03416,-0.00976,0.08296,0.12688,0.09272,0.04392,0.01464,0
0.00976,-0.02684,0.04392,0.03904,0.03416,-0.0122,0.08784,0.1464,0.11224,0.06344,0.03416,0.01952
0.00488,-0.02928,0.05368,0.05124,0.0488,-0.02196,0.08784,0.15128,0.12688,0.0732,0.05368,0.01952
0.00488,-0.03904,0.0732,0.07076,0.06832,-0.03172,0.08296,0.16104,0.1464,0.09272,0.06832,0.03416
0.01464,-0.04392,0.0732,0.06588,0.05856,-0.02196,0.0732,0.1708,0.15616,0.10736,0.07808,0.04392
0.03416,-0.06344,0.09272,0.07564,0.05856,-0.0122,0.06344,0.1708,0.16592,0.11224,0.07808,0.05368
0.04392,-0.07564,0.10736,0.0854,0.06344,-0.00976,0.06344,0.18544,0.17568,0.12688,0.08784,0.05856
0.04392,-0.07808,0.11224,0.09028,0.06832,-0.0122,0.06344,0.1952,0.17568,0.13176,0.0976,0.0732
0.05368,-0.09028,0.12688,0.10004,0.0732,-0.00976,0.06344,0.20008,0.19032,0.14152,0.10736,0.07808
0.06832,-0.09272,0.11712,0.08296,0.0488,0.00976,0.06832,0.2196,0.20984,0.16592,0.13176,0.0976
0.06832,-0.09272,0.11712,0.08296,0.0488,0.00976,0.06832,0.22936,0.2196,0.16592,0.13664,0.10736
0.08296,-0.1098,0.13664,0.09516,0.05368,0.01464,0.05856,0.22448,0.21472,0.16592,0.14152,0.10736
0.08784,-0.11468,0.14152,0.0976,0.05368,0.01708,0.04392,0.21472,0.20496,0.16592,0.13176,0.10248
0.10248,-0.11956,0.13664,0.0854,0.03416,0.03416,0.03904,0.2196,0.20008,0.16104,0.13176,0.10248
0.10736,-0.122,0.13664,0.08296,0.02928,0.03904,0.03904,0.22448,0.20496,0.16592,0.13664,0.10736
0.09272,-0.11468,0.13664,0.09028,0.04392,0.0244,0.0488,0.23424,0.20984,0.18056,0.14152,0.11712
0.08784,-0.11224,0.13664,0.09272,0.0488,0.01952,0.05368,0.22936,0.21472,0.18544,0.1464,0.11712
0.08784,-0.10492,0.122,0.07808,0.03416,0.02684,0.06832,0.23424,0.21472,0.19032,0.15128,0.122
0.07808,-0.09028,0.10248,0.06344,0.0244,0.02684,0.0732,0.23424,0.21472,0.18544,0.15128,0.11712
0.05856,-0.08052,0.10248,0.0732,0.04392,0.00732,0.06344,0.2196,0.20008,0.17568,0.14152,0.11712
0.06832,-0.08784,0.10736,0.0732,0.03904,0.01464,0.06344,0.20984,0.18056,0.15128,0.13176,0.11224
0.06344,-0.0732,0.08296,0.05124,0.01952,0.02196,0.0732,0.19032,0.1708,0.14152,0.122,0.09272
0.06344,-0.05612,0.0488,0.01708,-0.01464,0.03904,0.08296,0.17568,0.15616,0.12688,0.11224,0.08784
0.05856,-0.05612,0.05368,0.0244,-0.00488,0.03172,0.07808,0.15128,0.12688,0.0976,0.08296,0.06344
0.05368,-0.0488,0.04392,0.01708,-0.00976,0.03172,0.07808,0.12688,0.10736,0.0732,0.05856,0.0488
0.0244,-0.03416,0.04392,0.03172,0.01952,0.00244,0.07808,0.10736,0.08784,0.05368,0.05368,0.03416
0,-0.01952,0.03904,0.03904,0.03904,-0.01952,0.08296,0.08784,0.0732,0.03904,0.03904,0.0244
-0.01464,0.00732,0,0.00732,0.01464,-0.01464,0.08784,0.08296,0.06832,0.0488,0.03904,0.01952
-0.02928,0.03904,-0.0488,-0.03416,-0.01952,-0.00488,0.10248,0.07808,0.06832,0.03904,0.04392,0.0244
-0.0244,0.04148,-0.05856,-0.04636,-0.03416,0.00488,0.0976,0.05368,0.03904,0.01464,0.01464,0.01464
-0.0244,0.0244,-0.0244,-0.0122,0,-0.0122,0.07808,0.02928,0.01464,-0.00488,-0.00488,-0.00976
-0.0488,0.0244,0,0.0244,0.0488,-0.0488,0.07808,0.00976,-0.00488,-0.02928,-0.02928,-0.02928
-0.06344,0.03904,-0.01464,0.01708,0.0488,-0.05612,0.07808,0.00488,-0.00976,-0.03416,-0.02928,-0.01952
-0.05856,0.0366,-0.01464,0.01464,0.04392,-0.05124,0.0732,0.00488,-0.01952,-0.03416,-0.02928,-0.0244
-0.0488,0.03172,-0.01464,0.00976,0.03416,-0.04148,0.06832,0,-0.0244,-0.03904,-0.03416,-0.02928
-0.03904,0.03172,-0.0244,-0.00488,0.01464,-0.02684,0.06832,-0.00488,-0.0244,-0.04392,-0.03416,-0.01952
-0.03904,0.03416,-0.02928,-0.00976,0.00976,-0.0244,0.0732,-0.00488,-0.0244,-0.03904,-0.03416,-0.0244
-0.04392,0.04148,-0.03904,-0.01708,0.00488,-0.0244,0.06832,-0.00976,-0.03416,-0.04392,-0.03416,-0.02928
-0.0488,0.04392,-0.03904,-0.01464,0.00976,-0.02928,0.06832,-0.00976,-0.02928,-0.04392,-0.03416,-0.02928
-0.03904,0.03172,-0.0244,-0.00488,0.01464,-0.02684,0.05368,-0.01952,-0.03904,-0.05368,-0.0488,-0.04392
-0.0488,0.03904,-0.02928,-0.00488,0.01952,-0.03416,0.05368,-0.01464,-0.03904,-0.05368,-0.04392,-0.03904
-0.05856,0.04636,-0.03416,-0.00488,0.0244,-0.04148,0.06832,-0.01464,-0.03904,-0.05368,-0.03904,-0.03904
-0.05368,0.0488,-0.04392,-0.01708,0.00976,-0.03172,0.06832,-0.01464,-0.03904,-0.05368,-0.03416,-0.03904
-0.03904,0.03904,-0.03904,-0.01952,0,-0.01952,0.06344,-0.01464,-0.02928,-0.06344,-0.04392,-0.0488
-0.03904,0.03416,-0.02928,-0.00976,0.00976,-0.0244,0.06344,-0.01464,-0.02928,-0.06344,-0.0488,-0.05856
-0.03904,0.02684,-0.01464,0.00488,0.0244,-0.03172,0.05368,-0.0244,-0.03904,-0.0732,-0.06344,-0.05368
-0.03416,0.01464,0.00488,0.02196,0.03904,-0.0366,0.04392,-0.02928,-0.0488,-0.07808,-0.0732,-0.06344
-0.03416,0.01464,0.00488,0.02196,0.03904,-0.0366,0.05856,-0.01952,-0.05368,-0.06344,-0.06832,-0.06832
-0.03904,0.02684,-0.01464,0.00488,0.0244,-0.03172,0.06344,-0.01952,-0.03904,-0.06344,-0.06832,-0.0732
-0.02928,0.0244,-0.01952,-0.00488,0.00976,-0.01952,0.05368,-0.0244,-0.04392,-0.0732,-0.06344,-0.05856
-0.02928,0.0244,-0.01952,-0.00488,0.00976,-0.01952,0.05856,-0.0244,-0.03904,-0.06832,-0.06344,-0.05368
-0.03904,0.02928,-0.01952,0,0.01952,-0.02928,0.05368,-0.01952,-0.03416,-0.05368,-0.04392,-0.0488
-0.05856,0.0366,-0.01464,0.01464,0.04392,-0.05124,0.06832,-0.01464,-0.0244,-0.04392,-0.03416,-0.03904
-0.06832,0.04148,-0.01464,0.01952,0.05368,-0.061,0.06344,-0.00488,-0.01464,-0.03416,-0.03416,-0.03416
-0.06832,0.04636,-0.0244,0.00976,0.04392,-0.05612,0.06344,0,-0.00976,-0.03416,-0.03416,-0.03416
-0.06344,0.04148,-0.01952,0.0122,0.04392,-0.05368,0.05856,-0.00976,-0.0244,-0.04392,-0.0488,-0.05368
-0.05368,0.0244,0.00488,0.03172,0.05856,-0.05612,0.0488,-0.01464,-0.0244,-0.0488,-0.0488,-0.06344
-0.03904,0.01952,0,0.01952,0.03904,-0.03904,0.0488,-0.00976,-0.01464,-0.04392,-0.03416,-0.05856
-0.03904,0.02684,-0.01464,0.00488,0.0244,-0.03172,0.05856,0,-0.01464,-0.03416,-0.0244,-0.03904
-0.02928,0.02196,-0.01464,0,0.01464,-0.02196,0.05856,0,-0.00976,-0.02928,-0.01952,-0.02928
-0.0244,0.0244,-0.0244,-0.0122,0,-0.0122,0.05856,0.00488,-0.00488,-0.03416,-0.02928,-0.03904
-0.03416,0.0366,-0.03904,-0.02196,-0.00488,-0.01464,0.0732,0.00488,-0.00488,-0.02928,-0.03416,-0.04392
-0.03416,0.03416,-0.03416,-0.01708,0,-0.01708,0.0732,0.00488,-0.00488,-0.02928,-0.02928,-0.04392
-0.04392,0.03904,-0.03416,-0.0122,0.00976,-0.02684,0.07808,0.00488,-0.00488,-0.03416,-0.04392,-0.04392
-0.05856,0.04392,-0.02928,0,0.02928,-0.04392,0.08296,0.00976,-0.00488,-0.03416,-0.03904,-0.04392
-0.0732,0.05856,-0.04392,-0.00732,0.02928,-0.05124,0.08296,0.01464,-0.00488,-0.02928,-0.03416,-0.03904
-0.0732,0.061,-0.0488,-0.0122,0.0244,-0.0488,0.08296,0.01464,-0.00488,-0.01952,-0.0244,-0.0244
-0.06344,0.05368,-0.04392,-0.0122,0.01952,-0.04148,0.06832,0.01464,-0.00488,-0.0244,-0.0244,-0.02928
-0.06344,0.05368,-0.04392,-0.0122,0.01952,-0.04148,0.06344,0.01464,-0.00488,-0.01952,-0.0244,-0.0244
-0.06344,0.05124,-0.03904,-0.00732,0.0244,-0.04392,0.05368,0.00976,-0.00488,-0.0244,-0.0244,-0.0244
-0.06344,0.03904,-0.01464,0.01708,0.0488,-0.05612,0.05856,-0.00488,-0.01464,-0.03416,-0.03416,-0.02928
-0.06344,0.0366,-0.00976,0.02196,0.05368,-0.05856,0.06832,0,-0.01952,-0.03904,-0.02928,-0.02928
-0.05856,0.04636,-0.03416,-0.00488,0.0244,-0.04148,0.06344,-0.00488,-0.01952,-0.04392,-0.03416,-0.01952
-0.03904,0.04636,-0.05368,-0.03416,-0.01464,-0.0122,0.05856,-0.00488,-0.01952,-0.04392,-0.0244,-0.0244
-0.03904,0.0488,-0.05856,-0.03904,-0.01952,-0.00976,0.05856,-0.00488,-0.01952,-0.04392,-0.0244,-0.01464
-0.01952,0.0366,-0.05368,-0.04392,-0.03416,0.00732,0.04392,-0.01952,-0.02928,-0.05368,-0.03416,-0.03416
-0.00976,0.02928,-0.0488,-0.04392,-0.03904,0.01464,0.04392,-0.0244,-0.03904,-0.05856,-0.04392,-0.0488
-0.01952,0.03416,-0.0488,-0.03904,-0.02928,0.00488,0.05856,-0.01464,-0.0244,-0.04392,-0.03904,-0.04392
-0.05856,0.05856,-0.05856,-0.02928,0,-0.02928,0.05856,-0.00976,-0.0244,-0.03416,-0.03416,-0.03416
-0.0732,0.061,-0.0488,-0.0122,0.0244,-0.0488,0.05368,-0.01464,-0.0244,-0.03904,-0.0244,-0.03416
-0.07808,0.05856,-0.03904,0,0.03904,-0.05856,0.05368,-0.01464,-0.0244,-0.03904,-0.02928,-0.0244
-0.0732,0.05124,-0.02928,0.00732,0.04392,-0.05856,0.0488,-0.02928,-0.02928,-0.05368,-0.03416,-0.03416
-0.06344,0.03416,-0.00488,0.02684,0.05856,-0.061,0.03904,-0.04392,-0.03904,-0.06344,-0.05368,-0.04392
-0.05368,0.02928,-0.00488,0.02196,0.0488,-0.05124,0.03416,-0.0488,-0.0488,-0.06344,-0.05856,-0.04392
-0.06344,0.03172,0,0.03172,0.06344,-0.06344,0.0244,-0.04392,-0.0488,-0.06344,-0.05856,-0.03904
-0.0488,0.02928,-0.00976,0.01464,0.03904,-0.04392,0.0244,-0.03904,-0.0488,-0.05856,-0.05368,-0.0488
-0.0488,0.02196,0.00488,0.02928,0.05368,-0.05124,0.0244,-0.0488,-0.0488,-0.05856,-0.05856,-0.0488
-0.03904,0.01952,0,0.01952,0.03904,-0.03904,0.0244,-0.04392,-0.05856,-0.0732,-0.06832,-0.05856
-0.04392,0.02684,-0.00976,0.0122,0.03416,-0.03904,0.0244,-0.04392,-0.05856,-0.06832,-0.05856,-0.05856
-0.04392,0.0366,-0.02928,-0.00732,0.01464,-0.02928,0.02928,-0.0488,-0.05856,-0.06832,-0.05856,-0.05856
-0.03416,0.03172,-0.02928,-0.0122,0.00488,-0.01952,0.01952,-0.05368,-0.06832,-0.07808,-0.0732,-0.06344
-0.04392,0.04148,-0.03904,-0.01708,0.00488,-0.0244,0.0244,-0.04392,-0.06344,-0.06344,-0.05856,-0.06344
-0.0488,0.0488,-0.0488,-0.0244,0,-0.0244,0.01952,-0.0488,-0.06344,-0.06832,-0.06344,-0.06344
-0.06344,0.05612,-0.0488,-0.01708,0.01464,-0.03904,0.03416,-0.0488,-0.05368,-0.06832,-0.06344,-0.06344
-0.0732,0.04392,-0.01464,0.02196,0.05856,-0.06588,0.03904,-0.04392,-0.05368,-0.06832,-0.06344,-0.05856
-0.07808,0.03172,0.01464,0.05368,0.09272,-0.0854,0.03416,-0.05368,-0.05856,-0.0732,-0.06344,-0.0488
-0.07808,0.0366,0.00488,0.04392,0.08296,-0.08052,0.03416,-0.05856,-0.05856,-0.0732,-0.06344,-0.05368
-0.06344,0.03904,-0.01464,0.01708,0.0488,-0.05612,0.03904,-0.04392,-0.06344,-0.0732,-0.05856,-0.0488
-0.06344,0.04392,-0.0244,0.00732,0.03904,-0.05124,0.03416,-0.03904,-0.06344,-0.0732,-0.05856,-0.0488
-0.06832,0.04148,-0.01464,0.01952,0.05368,-0.061,0.03416,-0.04392,-0.05368,-0.06344,-0.05856,-0.05368
-0.0732,0.04636,-0.01952,0.01708,0.05368,-0.06344,0.03416,-0.04392,-0.05856,-0.06344,-0.05856,-0.0488
-0.06832,0.04148,-0.01464,0.01952,0.05368,-0.061,0.0244,-0.04392,-0.06832,-0.06344,-0.0488,-0.05368
-0.06344,0.0366,-0.00976,0.02196,0.05368,-0.05856,0.02928,-0.04392,-0.06832,-0.0732,-0.05856,-0.05368
-0.06832,0.04148,-0.01464,0.01952,0.05368,-0.061,0.01464,-0.0488,-0.0732,-0.08296,-0.06344,-0.05368
-0.06832,0.05124,-0.03416,0,0.03416,-0.05124,0.01464,-0.0488,-0.0732,-0.07808,-0.06344,-0.05368
-0.06344,0.05368,-0.04392,-0.0122,0.01952,-0.04148,0.00976,-0.0488,-0.06344,-0.0732,-0.06344,-0.05856
-0.0732,0.05856,-0.04392,-0.00732,0.02928,-0.05124,0.01464,-0.0488,-0.06344,-0.0732,-0.06344,-0.05856
-0.05856,0.0488,-0.03904,-0.00976,0.01952,-0.03904,0.0244,-0.03416,-0.06344,-0.05856,-0.05856,-0.0488
-0.04392,0.03904,-0.03416,-0.0122,0.00976,-0.02684,0.02928,-0.03416,-0.05856,-0.05856,-0.05368,-0.04392
-0.02928,0.01952,-0.00976,0.00488,0.01952,-0.0244,0.01952,-0.02928,-0.06344,-0.06344,-0.06344,-0.05368
-0.04392,0.03172,-0.01952,0.00244,0.0244,-0.03416,0.02928,-0.02928,-0.05856,-0.05856,-0.05856,-0.05856
-0.05368,0.0366,-0.01952,0.00732,0.03416,-0.04392,0.02928,-0.02928,-0.05856,-0.05856,-0.05856,-0.05856
-0.05368,0.02928,-0.00488,0.02196,0.0488,-0.05124,0.02928,-0.0244,-0.0488,-0.05856,-0.05368,-0.05368
-0.0488,0.01952,0.00976,0.03416,0.05856,-0.05368,0.03904,-0.01952,-0.02928,-0.03904,-0.03904,-0.04392
-0.02928,0.00244,0.0244,0.03904,0.05368,-0.04148,0.03416,-0.01464,-0.02928,-0.03904,-0.03416,-0.03904
-0.01952,-0.00976,0.03904,0.0488,0.05856,-0.03904,0.03904,-0.01464,-0.0244,-0.02928,-0.03416,-0.03416
-0.01952,-0.00488,0.02928,0.03904,0.0488,-0.03416,0.05856,-0.00488,-0.02928,-0.03904,-0.03904,-0.03904
-0.01952,-0.00244,0.0244,0.03416,0.04392,-0.03172,0.05856,0,-0.0244,-0.03416,-0.02928,-0.03904
-0.02928,0.00488,0.01952,0.03416,0.0488,-0.03904,0.05856,0.01464,-0.00976,-0.02928,-0.02928,-0.04392
-0.03416,0,0.03416,0.05124,0.06832,-0.05124,0.0488,0.01464,0,-0.02928,-0.02928,-0.03416
-0.03904,0.0122,0.01464,0.03416,0.05368,-0.04636,0.0488,0.03416,0.00976,-0.01464,-0.0244,-0.01464
-0.03904,0.03172,-0.0244,-0.00488,0.01464,-0.02684,0.0488,0.01952,0,-0.01952,-0.01952,-0.01952
-0.03416,0.0366,-0.03904,-0.02196,-0.00488,-0.01464,0.03416,0,-0.01464,-0.0244,-0.01952,-0.02928
-0.00976,0.01708,-0.0244,-0.01952,-0.01464,0.00244,0.00976,-0.01464,-0.03904,-0.03416,-0.02928,-0.03416
0.00976,0.00732,-0.0244,-0.02928,-0.03416,0.02196,-0.02928,-0.03904,-0.05856,-0.04392,-0.03416,-0.03416
0.00976,0,-0.00976,-0.01464,-0.01952,0.01464,-0.04392,-0.05856,-0.06344,-0.0488,-0.03416,-0.03416
0.01464,-0.00488,-0.00488,-0.0122,-0.01952,0.01708,-0.04392,-0.06832,-0.0732,-0.05856,-0.03904,-0.03416
0.00488,-0.00244,0,-0.00244,-0.00488,0.00488,-0.04392,-0.07808,-0.0976,-0.06832,-0.0488,-0.0488
0.00488,0.00488,-0.01464,-0.01708,-0.01952,0.0122,-0.0488,-0.08784,-0.10248,-0.08296,-0.06832,-0.06344
0.00976,0.00976,-0.02928,-0.03416,-0.03904,0.0244,-0.05368,-0.08784,-0.10248,-0.09272,-0.07808,-0.06344
0.00488,0.00732,-0.01952,-0.02196,-0.0244,0.01464,-0.06344,-0.08784,-0.10248,-0.08784,-0.0732,-0.06344
0.01464,0.00244,-0.01952,-0.02684,-0.03416,0.0244,-0.05856,-0.07808,-0.08784,-0.0732,-0.05856,-0.05368
-0.00488,-0.00244,0.00976,0.0122,0.01464,-0.00976,-0.05368,-0.07808,-0.07808,-0.06832,-0.04392,-0.03416
-0.00488,0.00244,0,0.00244,0.00488,-0.00488,-0.05368,-0.0732,-0.06832,-0.05856,-0.03416,-0.02928
0,-0.00244,0.00488,0.00488,0.00488,-0.00244,-0.05368,-0.0732,-0.07808,-0.06344,-0.03416,-0.02928
-0.00488,-0.00244,0.00976,0.0122,0.01464,-0.00976,-0.04392,-0.0732,-0.0732,-0.06344,-0.03416,-0.02928
-0.03416,0.02196,-0.00976,0.00732,0.0244,-0.02928,-0.01952,-0.05368,-0.06832,-0.05856,-0.03904,-0.03416
-0.04392,0.03172,-0.01952,0.00244,0.0244,-0.03416,-0.01464,-0.05856,-0.06832,-0.06344,-0.03904,-0.04392
-0.04392,0.03904,-0.03416,-0.0122,0.00976,-0.02684,-0.01952,-0.0732,-0.08296,-0.0732,-0.06832,-0.05368
-0.04392,0.04392,-0.04392,-0.02196,0,-0.02196,-0.01952,-0.08296,-0.08784,-0.09272,-0.08296,-0.0732
-0.0488,0.04636,-0.04392,-0.01952,0.00488,-0.02684,-0.00976,-0.06832,-0.09272,-0.10248,-0.08296,-0.08784
-0.0732,0.06344,-0.05368,-0.01708,0.01952,-0.04636,-0.00488,-0.06832,-0.09272,-0.10248,-0.08296,-0.08784
-0.08784,0.06588,-0.04392,0,0.04392,-0.06588,0.00488,-0.06832,-0.08784,-0.08296,-0.07808,-0.07808
-0.08296,0.06344,-0.04392,-0.00244,0.03904,-0.061,-0.00488,-0.06832,-0.08784,-0.08296,-0.07808,-0.07808
-0.07808,0.06588,-0.05368,-0.01464,0.0244,-0.05124,0,-0.06832,-0.0732,-0.08296,-0.07808,-0.06832
-0.06832,0.06832,-0.06832,-0.03416,0,-0.03416,0,-0.06344,-0.0732,-0.08296,-0.0732,-0.06344
-0.0732,0.05612,-0.03904,-0.00244,0.03416,-0.05368,-0.00976,-0.06832,-0.07808,-0.09272,-0.07808,-0.06832
-0.0732,0.061,-0.0488,-0.0122,0.0244,-0.0488,-0.00488,-0.06832,-0.08296,-0.08784,-0.08784,-0.0732
-0.0732,0.05856,-0.04392,-0.00732,0.02928,-0.05124,-0.00488,-0.06832,-0.10248,-0.10736,-0.0976,-0.09272
-0.0732,0.05856,-0.04392,-0.00732,0.02928,-0.05124,-0.01464,-0.0732,-0.0976,-0.10248,-0.0976,-0.09272
-0.05368,0.03904,-0.0244,0.00244,0.02928,-0.04148,0,-0.06832,-0.09272,-0.11224,-0.10248,-0.10248
-0.0732,0.06832,-0.06344,-0.02684,0.00976,-0.04148,0.02928,-0.03904,-0.06832,-0.10736,-0.12688,-0.11224
-0.0976,0.07808,-0.05856,-0.00976,0.03904,-0.06832,0.10248,0.03904,-0.00976,-0.08296,-0.10736,-0.10736
-0.122,0.04392,0.03416,0.09516,0.15616,-0.13908,0.09272,0.04392,0.02928,-0.05856,-0.07808,-0.08784
-0.07808,0.03172,0.01464,0.05368,0.09272,-0.0854,0.11712,0.11712,0.12688,0.05368,0.00976,-0.02928
-0.0244,-0.00244,0.02928,0.04148,0.05368,-0.03904,0.11712,0.22448,0.244,0.16592,0.11224,0.05856
0.09272,-0.08052,0.06832,0.02196,-0.0244,0.05856,0.122,0.40504,0.40992,0.2928,0.20496,0.11712
0.25864,-0.18788,0.11712,-0.0122,-0.14152,0.20008,0.10248,0.57096,0.60024,0.47824,0.35136,0.22936
0.46848,-0.35624,0.244,0.00976,-0.22448,0.34648,-0.01464,0.5368,0.77104,0.76616,0.6344,0.46848
0.57584,-0.549,0.52216,0.23424,-0.05368,0.31476,-0.13176,0.35624,0.86864,1.03456,0.92232,0.72712
0.61976,-0.72712,0.83448,0.5246,0.21472,0.20252,-0.29768,-0.00976,0.8052,1.19072,1.17608,1.00528
0.6344,-0.7198,0.8052,0.488,0.1708,0.2318,-0.45384,-0.30744,0.5612,1.11752,1.16144,1.0248
0.59536,-0.45628,0.3172,0.01952,-0.27816,0.43676,-0.42944,-0.33672,0.24888,0.6832,0.7076,0.64904
0.49288,-0.3538,0.21472,-0.03172,-0.27816,0.38552,-0.50264,-0.5368,-0.07808,0.37088,0.46848,0.50264
0.30256,-0.21472,0.12688,-0.0244,-0.17568,0.23912,-0.49776,-0.74664,-0.53192,-0.09272,0.16104,0.33184
0.16104,-0.06588,-0.02928,-0.1098,-0.19032,0.17568,-0.43432,-0.79056,-0.73688,-0.37088,-0.08296,0.122
0.10248,0.03416,-0.1708,-0.22204,-0.27328,0.18788,-0.40016,-0.71736,-0.72712,-0.4636,-0.22448,-0.05368
0.11224,0.01952,-0.15128,-0.2074,-0.26352,0.18788,-0.34648,-0.55632,-0.59048,-0.40504,-0.244,-0.0976
0.03416,0.04636,-0.12688,-0.14396,-0.16104,0.0976,-0.244,-0.38064,-0.41968,-0.29768,-0.1708,-0.05856
-0.0244,0.04392,-0.06344,-0.05124,-0.03904,0.00732,-0.15128,-0.25376,-0.2684,-0.1952,-0.10736,-0.03904
-0.03416,0.03416,-0.03416,-0.01708,0,-0.01708,-0.08296,-0.1464,-0.13664,-0.10736,-0.05368,-0.01952
-0.06344,0.04148,-0.01952,0.0122,0.04392,-0.05368,-0.05856,-0.10248,-0.10248,-0.07808,-0.0488,-0.02928
-0.0732,0.04392,-0.01464,0.02196,0.05856,-0.06588,-0.03416,-0.05856,-0.08296,-0.0732,-0.05856,-0.03416
-0.08296,0.05612,-0.02928,0.0122,0.05368,-0.06832,-0.01464,-0.03416,-0.06832,-0.0732,-0.05856,-0.04392
-0.08296,0.05368,-0.0244,0.01708,0.05856,-0.07076,-0.00488,-0.04392,-0.06832,-0.08296,-0.08296,-0.06344
-0.08296,0.04636,-0.00976,0.03172,0.0732,-0.07808,-0.00976,-0.04392,-0.06832,-0.08784,-0.08784,-0.0732
-0.06832,0.05124,-0.03416,0,0.03416,-0.05124,-0.00488,-0.01952,-0.05856,-0.0732,-0.07808,-0.06344
-0.06344,0.06588,-0.06832,-0.0366,-0.00488,-0.02928,0.01464,-0.00488,-0.04392,-0.0732,-0.06832,-0.06344
-0.06344,0.07076,-0.07808,-0.04636,-0.01464,-0.0244,0.01464,-0.00488,-0.05368,-0.07808,-0.0732,-0.08296
-0.0732,0.06344,-0.05368,-0.01708,0.01952,-0.04636,0.00976,-0.01464,-0.05368,-0.08784,-0.08296,-0.08784
-0.05856,0.05124,-0.04392,-0.01464,0.01464,-0.0366,-0.00488,-0.0244,-0.05368,-0.09272,-0.08784,-0.08784
-0.05368,0.04392,-0.03416,-0.00732,0.01952,-0.0366,-0.01464,-0.01952,-0.05368,-0.09272,-0.08784,-0.08784
-0.06344,0.03172,0,0.03172,0.06344,-0.06344,-0.00488,-0.01464,-0.0488,-0.09272,-0.08784,-0.08784
-0.06832,0.03416,0,0.03416,0.06832,-0.06832,-0.00488,0,-0.0488,-0.08784,-0.08296,-0.08296
-0.08784,0.0488,-0.00976,0.03416,0.07808,-0.08296,0,0.01464,-0.03416,-0.0732,-0.0732,-0.08296
-0.08784,0.05124,-0.01464,0.02928,0.0732,-0.08052,0.00976,0.01464,-0.03416,-0.0732,-0.0732,-0.07808
-0.07808,0.0488,-0.01952,0.01952,0.05856,-0.06832,0.00976,0.00488,-0.03416,-0.06344,-0.0732,-0.0732
-0.0732,0.04392,-0.01464,0.02196,0.05856,-0.06588,0.00488,0.00976,-0.03416,-0.06344,-0.06832,-0.0732
-0.0732,0.02928,0.01464,0.05124,0.08784,-0.08052,-0.00488,0,-0.04392,-0.0732,-0.06832,-0.06344
-0.0732,0.03416,0.00488,0.04148,0.07808,-0.07564,-0.00976,0,-0.03904,-0.0732,-0.0732,-0.05856
-0.07808,0.03416,0.00976,0.0488,0.08784,-0.08296,-0.01464,0,-0.03904,-0.06832,-0.07808,-0.06344
-0.0732,0.02684,0.01952,0.05612,0.09272,-0.08296,-0.00976,0.00488,-0.03416,-0.06832,-0.07808,-0.0732
-0.06344,0.02928,0.00488,0.0366,0.06832,-0.06588,-0.00976,0.00976,-0.02928,-0.06344,-0.06832,-0.06832
-0.05368,0.03416,-0.01464,0.0122,0.03904,-0.04636,-0.00488,0.03416,-0.00976,-0.0488,-0.05856,-0.06344
-0.05368,0.02684,0,0.02684,0.05368,-0.05368,-0.00488,0.03904,-0.00488,-0.03904,-0.0488,-0.06344
-0.05856,0.0366,-0.01464,0.01464,0.04392,-0.05124,0.00488,0.04392,0,-0.03904,-0.0488,-0.06344
-0.06344,0.04636,-0.02928,0.00244,0.03416,-0.0488,0.00976,0.05368,0.00976,-0.03416,-0.03904,-0.05856
-0.06344,0.05124,-0.03904,-0.00732,0.0244,-0.04392,0.00976,0.05368,0.00976,-0.02928,-0.04392,-0.05368
-0.0732,0.05856,-0.04392,-0.00732,0.02928,-0.05124,0.00976,0.06344,0.00976,-0.0244,-0.03416,-0.04392
-0.0732,0.05124,-0.02928,0.00732,0.04392,-0.05856,0.01464,0.06344,0.01464,-0.01464,-0.02928,-0.04392
-0.06344,0.03416,-0.00488,0.02684,0.05856,-0.061,-0.00488,0.06832,0.03416,-0.00488,-0.02928,-0.03904
-0.05856,0.02928,0,0.02928,0.05856,-0.05856,-0.00488,0.06832,0.03416,-0.00488,-0.01952,-0.03416
-0.0488,0.03172,-0.01464,0.00976,0.03416,-0.04148,0,0.08296,0.03904,0.00488,-0.01464,-0.01952
-0.03904,0.0244,-0.00976,0.00976,0.02928,-0.03416,-0.00488,0.08296,0.04392,0.00488,-0.01464,-0.01952
-0.03416,0.01708,0,0.01708,0.03416,-0.03416,-0.01952,0.08296,0.0488,0,-0.0244,-0.02928
-0.03416,0.01708,0,0.01708,0.03416,-0.03416,-0.01464,0.08296,0.0488,0.00488,-0.01952,-0.02928
-0.01952,0.00244,0.01464,0.0244,0.03416,-0.02684,-0.01952,0.08296,0.05856,0,-0.0244,-0.02928
-0.00488,-0.0122,0.02928,0.03172,0.03416,-0.01952,-0.03416,0.08296,0.06344,0.00976,-0.01952,-0.02928
-0.00976,-0.00488,0.01952,0.0244,0.02928,-0.01952,-0.02928,0.0976,0.0732,0.02928,0,-0.00976
-0.00976,-0.00244,0.01464,0.01952,0.0244,-0.01708,-0.02928,0.10736,0.08296,0.03904,0.00488,-0.00976
-0.02928,0.00976,0.00976,0.0244,0.03904,-0.03416,-0.01464,0.11224,0.10248,0.05368,0.01952,0.01464
-0.02928,0.00976,0.00976,0.0244,0.03904,-0.03416,-0.00976,0.13176,0.11224,0.06832,0.02928,0.0244
-0.00976,0,0.00976,0.01464,0.01952,-0.01464,-0.01952,0.14152,0.11712,0.07808,0.04392,0.0244
0.00488,-0.02684,0.0488,0.04636,0.04392,-0.01952,-0.03904,0.13664,0.122,0.07808,0.04392,0.01464
0.01464,-0.05368,0.09272,0.0854,0.07808,-0.03172,-0.05368,0.14152,0.12688,0.0732,0.03904,0.01464
0.0244,-0.05856,0.09272,0.08052,0.06832,-0.02196,-0.06344,0.15128,0.13664,0.08784,0.0488,0.0244
0.04392,-0.06832,0.09272,0.07076,0.0488,-0.00244,-0.05856,0.15616,0.15128,0.0976,0.06832,0.04392
0.05368,-0.07076,0.08784,0.061,0.03416,0.00976,-0.0488,0.18056,0.1708,0.122,0.07808,0.0488
0.05856,-0.0732,0.08784,0.05856,0.02928,0.01464,-0.0488,0.1952,0.18544,0.13176,0.08784,0.05368
0.07808,-0.0854,0.09272,0.05368,0.01464,0.03172,-0.05856,0.20008,0.20008,0.14152,0.0976,0.05856
0.08296,-0.08784,0.09272,0.05124,0.00976,0.0366,-0.06832,0.20008,0.20496,0.15616,0.10248,0.06832
0.0732,-0.08784,0.10248,0.06588,0.02928,0.02196,-0.06832,0.20984,0.20496,0.15616,0.10736,0.07808
0.06832,-0.0976,0.12688,0.09272,0.05856,0.00488,-0.06832,0.2196,0.21472,0.1708,0.12688,0.0976
0.06344,-0.0976,0.13176,0.10004,0.06832,-0.00244,-0.06344,0.2196,0.22448,0.18056,0.1464,0.11224
0.06344,-0.09272,0.122,0.09028,0.05856,0.00244,-0.06832,0.2196,0.22936,0.18056,0.15128,0.122
0.06832,-0.09028,0.11224,0.07808,0.04392,0.0122,-0.06832,0.22448,0.23424,0.18544,0.15616,0.12688
0.0732,-0.09028,0.10736,0.07076,0.03416,0.01952,-0.0732,0.22448,0.22448,0.1952,0.1464,0.13176
0.08784,-0.0976,0.10736,0.06344,0.01952,0.03416,-0.07808,0.2196,0.2196,0.19032,0.14152,0.122
0.11224,-0.11712,0.122,0.06588,0.00976,0.05124,-0.07808,0.22448,0.2196,0.19032,0.13664,0.13176
0.11224,-0.11712,0.122,0.06588,0.00976,0.05124,-0.0732,0.22448,0.20984,0.18544,0.1464,0.12688
0.08296,-0.10004,0.11712,0.07564,0.03416,0.0244,-0.08296,0.20496,0.1952,0.1708,0.12688,0.10248
0.08296,-0.0976,0.11224,0.07076,0.02928,0.02684,-0.08296,0.18544,0.16592,0.13664,0.10736,0.08784
0.0732,-0.08052,0.08784,0.05124,0.01464,0.02928,-0.0732,0.1708,0.15128,0.122,0.08784,0.06832
0.0732,-0.06832,0.06344,0.02684,-0.00976,0.04148,-0.06344,0.15616,0.13664,0.10736,0.08784,0.0732
0.04392,-0.05856,0.0732,0.05124,0.02928,0.00732,-0.05368,0.13664,0.12688,0.10248,0.0732,0.05856
0.02928,-0.04636,0.06344,0.0488,0.03416,-0.00244,-0.04392,0.122,0.10736,0.08784,0.06832,0.05368
0.00976,-0.02684,0.04392,0.03904,0.03416,-0.0122,-0.0488,0.10248,0.07808,0.06344,0.05368,0.03904
-0.00488,-0.01708,0.03904,0.04148,0.04392,-0.0244,-0.04392,0.0732,0.06344,0.02928,0.01952,0.01952
-0.00488,-0.00976,0.0244,0.02684,0.02928,-0.01708,-0.04392,0.05856,0.05368,0.01952,0.00488,0.00488
-0.01952,0.00732,0.00488,0.01464,0.0244,-0.02196,-0.03904,0.04392,0.04392,0.00976,0,0
-0.0244,0.01952,-0.01464,-0.00244,0.00976,-0.01708,-0.04392,0.02928,0.03416,0,-0.00976,-0.00976
-0.0244,0.01708,-0.00976,0.00244,0.01464,-0.01952,-0.05368,0.01464,0.01952,-0.00976,-0.01952,-0.0244
-0.0244,0.0122,0,0.0122,0.0244,-0.0244,-0.05856,-0.00976,-0.00976,-0.02928,-0.03904,-0.0488
-0.02928,0.02196,-0.01464,0,0.01464,-0.02196,-0.05856,-0.01464,-0.0244,-0.03416,-0.03904,-0.03904
-0.04392,0.0366,-0.02928,-0.00732,0.01464,-0.02928,-0.05368,-0.01464,-0.02928,-0.04392,-0.05856,-0.05368
-0.04392,0.04148,-0.03904,-0.01708,0.00488,-0.0244,-0.05856,-0.01952,-0.03416,-0.0488,-0.06344,-0.05856
-0.02928,0.03904,-0.0488,-0.03416,-0.01952,-0.00488,-0.05856,-0.0244,-0.03416,-0.05368,-0.05368,-0.0488
-0.02928,0.0366,-0.04392,-0.02928,-0.01464,-0.00732,-0.05368,-0.0244,-0.03416,-0.0488,-0.05368,-0.05368
-0.03416,0.03416,-0.03416,-0.01708,0,-0.01708,-0.06832,-0.03904,-0.05368,-0.06344,-0.06344,-0.05856
-0.03904,0.03172,-0.0244,-0.00488,0.01464,-0.02684,-0.06832,-0.03904,-0.0488,-0.06344,-0.06344,-0.05856
-0.0488,0.02684,-0.00488,0.01952,0.04392,-0.04636,-0.0732,-0.0488,-0.05856,-0.0732,-0.07808,-0.0732
-0.05856,0.03416,-0.00976,0.01952,0.0488,-0.05368,-0.0732,-0.04392,-0.05856,-0.0732,-0.0732,-0.06832
-0.05856,0.04148,-0.0244,0.00488,0.03416,-0.04636,-0.06344,-0.03416,-0.0488,-0.06832,-0.0732,-0.05856
-0.05368,0.04392,-0.03416,-0.00732,0.01952,-0.0366,-0.05368,-0.03416,-0.0488,-0.05856,-0.05856,-0.05856
-0.0488,0.03904,-0.02928,-0.00488,0.01952,-0.03416,-0.06344,-0.03416,-0.0488,-0.05368,-0.05368,-0.05856
-0.0488,0.03416,-0.01952,0.00488,0.02928,-0.03904,-0.06344,-0.03416,-0.0488,-0.05368,-0.05856,-0.06832
-0.03904,0.0366,-0.03416,-0.01464,0.00488,-0.02196,-0.05368,-0.0244,-0.04392,-0.05368,-0.05856,-0.05856
-0.03416,0.03416,-0.03416,-0.01708,0,-0.01708,-0.06344,-0.02928,-0.04392,-0.05856,-0.05856,-0.05856
-0.03416,0.03172,-0.02928,-0.0122,0.00488,-0.01952,-0.06832,-0.03904,-0.05856,-0.06344,-0.06832,-0.05856
-0.03904,0.03904,-0.03904,-0.01952,0,-0.01952,-0.06344,-0.03904,-0.05368,-0.06344,-0.06832,-0.06344
-0.0488,0.04392,-0.03904,-0.01464,0.00976,-0.02928,-0.0732,-0.04392,-0.05368,-0.06344,-0.06344,-0.05856
-0.0488,0.04392,-0.03904,-0.01464,0.00976,-0.02928,-0.06832,-0.04392,-0.0488,-0.05856,-0.06344,-0.05368
-0.0488,0.04148,-0.03416,-0.00976,0.01464,-0.03172,-0.06832,-0.03416,-0.0488,-0.05856,-0.0488,-0.05368
-0.0488,0.04392,-0.03904,-0.01464,0.00976,-0.02928,-0.06344,-0.03904,-0.0488,-0.05856,-0.0488,-0.05368
-0.0488,0.04636,-0.04392,-0.01952,0.00488,-0.02684,-0.05368,-0.0244,-0.03416,-0.04392,-0.03416,-0.0488
-0.0488,0.05124,-0.05368,-0.02928,-0.00488,-0.02196,-0.05368,-0.01952,-0.02928,-0.04392,-0.03416,-0.03904
-0.0488,0.0488,-0.0488,-0.0244,0,-0.0244,-0.05856,-0.02928,-0.0244,-0.04392,-0.03904,-0.0488
-0.0488,0.04636,-0.04392,-0.01952,0.00488,-0.02684,-0.06832,-0.03416,-0.0244,-0.0488,-0.03904,-0.0488
-0.04392,0.04148,-0.03904,-0.01708,0.00488,-0.0244,-0.0732,-0.03416,-0.02928,-0.05368,-0.04392,-0.05856
-0.03416,0.0244,-0.01464,0.00244,0.01952,-0.02684,-0.0732,-0.03416,-0.03904,-0.06344,-0.05368,-0.05856
-0.02928,0.01952,-0.00976,0.00488,0.01952,-0.0244,-0.07808,-0.03416,-0.0488,-0.06832,-0.05856,-0.05856
-0.0244,0.02684,-0.02928,-0.01708,-0.00488,-0.00976,-0.07808,-0.03904,-0.04392,-0.0732,-0.06832,-0.06832
-0.03904,0.0366,-0.03416,-0.01464,0.00488,-0.02196,-0.0732,-0.04392,-0.03416,-0.06832,-0.0732,-0.08296
-0.0488,0.03416,-0.01952,0.00488,0.02928,-0.03904,-0.0732,-0.04392,-0.03416,-0.06832,-0.06832,-0.08296
-0.05856,0.0366,-0.01464,0.01464,0.04392,-0.05124,-0.06832,-0.03416,-0.0244,-0.05856,-0.06832,-0.06832
-0.06344,0.0366,-0.00976,0.02196,0.05368,-0.05856,-0.06344,-0.02928,-0.0244,-0.0488,-0.05368,-0.05856
-0.0732,0.05124,-0.02928,0.00732,0.04392,-0.05856,-0.05368,-0.0244,-0.01464,-0.04392,-0.0488,-0.04392
-0.0732,0.05856,-0.04392,-0.00732,0.02928,-0.05124,-0.05368,-0.0244,-0.01464,-0.04392,-0.0488,-0.03904
-0.05368,0.0366,-0.01952,0.00732,0.03416,-0.04392,-0.05856,-0.03416,-0.03416,-0.06344,-0.06344,-0.05856
-0.05368,0.03172,-0.00976,0.01708,0.04392,-0.0488,-0.06344,-0.03416,-0.03416,-0.05856,-0.06344,-0.05368
-0.05368,0.02928,-0.00488,0.02196,0.0488,-0.05124,-0.0732,-0.03416,-0.03904,-0.0488,-0.05856,-0.0488
-0.05368,0.02196,0.00976,0.0366,0.06344,-0.05856,-0.06832,-0.03904,-0.03904,-0.0488,-0.05856,-0.04392
-0.0488,0.00976,0.02928,0.05368,0.07808,-0.06344,-0.07808,-0.0488,-0.0488,-0.05368,-0.05856,-0.0488
-0.05368,0.01464,0.0244,0.05124,0.07808,-0.06588,-0.08296,-0.05368,-0.0488,-0.06832,-0.06344,-0.05856
-0.0488,0.01708,0.01464,0.03904,0.06344,-0.05612,-0.07808,-0.05368,-0.05856,-0.0732,-0.06832,-0.0732
-0.0488,0.01952,0.00976,0.03416,0.05856,-0.05368,-0.07808,-0.05368,-0.05856,-0.0732,-0.07808,-0.06344
-0.04392,0.01708,0.00976,0.03172,0.05368,-0.0488,-0.09272,-0.05856,-0.05856,-0.0732,-0.08784,-0.06832
-0.04392,0.01952,0.00488,0.02684,0.0488,-0.04636,-0.09272,-0.06344,-0.06832,-0.07808,-0.08784,-0.0732
-0.05368,0.03172,-0.00976,0.01708,0.04392,-0.0488,-0.08784,-0.06344,-0.06344,-0.06832,-0.0732,-0.05856
-0.06344,0.04148,-0.01952,0.0122,0.04392,-0.05368,-0.08784,-0.05856,-0.06344,-0.06832,-0.07808,-0.05856
-0.05856,0.04148,-0.0244,0.00488,0.03416,-0.04636,-0.08296,-0.06344,-0.06344,-0.06832,-0.0732,-0.05856
-0.05368,0.03904,-0.0244,0.00244,0.02928,-0.04148,-0.08296,-0.06344,-0.06344,-0.06832,-0.07808,-0.05856
-0.05856,0.04148,-0.0244,0.00488,0.03416,-0.04636,-0.09272,-0.06344,-0.06344,-0.06832,-0.0732,-0.05856
-0.05856,0.03416,-0.00976,0.01952,0.0488,-0.05368,-0.09272,-0.06832,-0.06344,-0.06832,-0.0732,-0.05856
-0.05368,0.03172,-0.00976,0.01708,0.04392,-0.0488,-0.0976,-0.07808,-0.06832,-0.06832,-0.07808,-0.05856
-0.06344,0.02928,0.00488,0.0366,0.06832,-0.06588,-0.0976,-0.0732,-0.06832,-0.07808,-0.07808,-0.06344
-0.05856,0.02928,0,0.02928,0.05856,-0.05856,-0.10248,-0.06832,-0.07808,-0.08784,-0.0732,-0.06832
-0.05856,0.03172,-0.00488,0.0244,0.05368,-0.05612,-0.10248,-0.07808,-0.07808,-0.08784,-0.07808,-0.06832
-0.04392,0.0366,-0.02928,-0.00732,0.01464,-0.02928,-0.11224,-0.0732,-0.07808,-0.08296,-0.08784,-0.06832
-0.03904,0.03904,-0.03904,-0.01952,0,-0.01952,-0.11224,-0.0732,-0.07808,-0.07808,-0.07808,-0.06832
-0.03416,0.0366,-0.03904,-0.02196,-0.00488,-0.01464,-0.10736,-0.07808,-0.07808,-0.08784,-0.08784,-0.07808
-0.0244,0.02196,-0.01952,-0.00732,0.00488,-0.01464,-0.11712,-0.08296,-0.08784,-0.0976,-0.10248,-0.08296
-0.04392,0.02684,-0.00976,0.0122,0.03416,-0.03904,-0.10736,-0.0732,-0.07808,-0.08784,-0.09272,-0.0732
-0.06832,0.03416,0,0.03416,0.06832,-0.06832,-0.10248,-0.07808,-0.06832,-0.08296,-0.08784,-0.0732
-0.08784,0.05368,-0.01952,0.0244,0.06832,-0.07808,-0.09272,-0.06832,-0.06344,-0.06832,-0.0732,-0.06344
-0.08784,0.05612,-0.0244,0.01952,0.06344,-0.07564,-0.08784,-0.06344,-0.06344,-0.06832,-0.0732,-0.05856
-0.08296,0.0488,-0.01464,0.02684,0.06832,-0.07564,-0.10248,-0.0732,-0.07808,-0.0732,-0.08296,-0.06344
-0.0732,0.0488,-0.0244,0.0122,0.0488,-0.061,-0.10248,-0.07808,-0.07808,-0.0732,-0.08296,-0.07808
-0.05368,0.04636,-0.03904,-0.0122,0.01464,-0.03416,-0.0976,-0.06832,-0.0732,-0.0732,-0.06832,-0.0732
-0.05368,0.04636,-0.03904,-0.0122,0.01464,-0.03416,-0.10248,-0.0732,-0.0732,-0.0732,-0.06832,-0.06344
-0.0488,0.0366,-0.0244,0,0.0244,-0.0366,-0.10248,-0.0732,-0.0732,-0.0732,-0.07808,-0.06344
-0.05368,0.04148,-0.02928,-0.00244,0.0244,-0.03904,-0.10248,-0.0732,-0.07808,-0.0732,-0.07808,-0.05856
-0.05368,0.03172,-0.00976,0.01708,0.04392,-0.0488,-0.10736,-0.08296,-0.08784,-0.07808,-0.08784,-0.06832
-0.03904,0.01708,0.00488,0.0244,0.04392,-0.04148,-0.11224,-0.08296,-0.08784,-0.0976,-0.0976,-0.07808
-0.03904,0.01952,0,0.01952,0.03904,-0.03904,-0.11712,-0.07808,-0.08784,-0.09272,-0.09272,-0.08296
-0.03904,0.03416,-0.02928,-0.00976,0.00976,-0.0244,-0.10736,-0.07808,-0.07808,-0.08784,-0.09272,-0.08296
-0.03416,0.02684,-0.01952,-0.00244,0.01464,-0.0244,-0.11712,-0.08784,-0.07808,-0.09272,-0.10248,-0.08784
-0.04392,0.02684,-0.00976,0.0122,0.03416,-0.03904,-0.11224,-0.08784,-0.08784,-0.09272,-0.10248,-0.08784
-0.04392,0.02684,-0.00976,0.0122,0.03416,-0.03904,-0.10248,-0.0732,-0.08296,-0.08784,-0.0976,-0.08784
-0.0488,0.04148,-0.03416,-0.00976,0.01464,-0.03172,-0.0976,-0.0732,-0.07808,-0.0976,-0.10248,-0.09272
-0.03904,0.04392,-0.0488,-0.02928,-0.00976,-0.01464,-0.0976,-0.06832,-0.05856,-0.08784,-0.0976,-0.08784
-0.02928,0.03416,-0.03904,-0.0244,-0.00976,-0.00976,-0.08784,-0.05856,-0.06832,-0.07808,-0.08784,-0.08784
-0.01952,0.02928,-0.03904,-0.02928,-0.01952,0,-0.08784,-0.05856,-0.06832,-0.07808,-0.08784,-0.08784
-0.02928,0.0122,0.00488,0.01952,0.03416,-0.03172,-0.07808,-0.05368,-0.05856,-0.05856,-0.06832,-0.06832
-0.04392,0.01464,0.01464,0.0366,0.05856,-0.05124,-0.07808,-0.0488,-0.04392,-0.0488,-0.04392,-0.0488
-0.05368,0.0122,0.02928,0.05612,0.08296,-0.06832,-0.05856,-0.03416,-0.0244,-0.03416,-0.03416,-0.03904
-0.05856,0.01952,0.01952,0.0488,0.07808,-0.06832,-0.03904,-0.0244,-0.01952,-0.02928,-0.02928,-0.0244
-0.0488,0.01708,0.01464,0.03904,0.06344,-0.05612,-0.03904,-0.0244,-0.0244,-0.03904,-0.03416,-0.03416
-0.0488,0.02196,0.00488,0.02928,0.05368,-0.05124,-0.0488,-0.00976,-0.01464,-0.02928,-0.02928,-0.03416
-0.03416,0.00732,0.01952,0.0366,0.05368,-0.04392,-0.06832,-0.01464,-0.01464,-0.01952,-0.03904,-0.02928
-0.02928,0.00732,0.01464,0.02928,0.04392,-0.0366,-0.0732,-0.00488,-0.01464,-0.01952,-0.03904,-0.0244
-0.02928,0.02196,-0.01464,0,0.01464,-0.02196,-0.07808,-0.01952,-0.01952,-0.02928,-0.04392,-0.03904
-0.02928,0.03172,-0.03416,-0.01952,-0.00488,-0.0122,-0.0976,-0.03416,-0.03416,-0.04392,-0.04392,-0.0488
-0.01464,0.02196,-0.02928,-0.02196,-0.01464,0,-0.13176,-0.05856,-0.05368,-0.0488,-0.05368,-0.03904
0,0.00732,-0.01464,-0.01464,-0.01464,0.00732,-0.16104,-0.07808,-0.0732,-0.05856,-0.06344,-0.04392
0.0244,-0.0122,0,-0.0122,-0.0244,0.0244,-0.1708,-0.08784,-0.08784,-0.0732,-0.0732,-0.05368
0.0244,-0.02196,0.01952,0.00732,-0.00488,0.01464,-0.18056,-0.09272,-0.10248,-0.08784,-0.0732,-0.0488
0.00976,0.00244,-0.01464,-0.01952,-0.0244,0.01708,-0.1708,-0.09272,-0.10248,-0.08296,-0.06832,-0.03416
-0.00488,0.02684,-0.0488,-0.04636,-0.04392,0.01952,-0.1708,-0.10248,-0.11224,-0.0976,-0.08784,-0.05368
0,0.02196,-0.04392,-0.04392,-0.04392,0.02196,-0.17568,-0.10736,-0.122,-0.10736,-0.09272,-0.06344
0,0.01952,-0.03904,-0.03904,-0.03904,0.01952,-0.18056,-0.10736,-0.122,-0.10736,-0.0976,-0.06344
0.01952,0.01464,-0.0488,-0.05856,-0.06832,0.04392,-0.1708,-0.09272,-0.10248,-0.07808,-0.0732,-0.0488
0.0244,0.00732,-0.03904,-0.05124,-0.06344,0.04392,-0.16104,-0.08784,-0.08784,-0.05856,-0.05368,-0.02928
0.01464,0.00732,-0.02928,-0.0366,-0.04392,0.02928,-0.16104,-0.09272,-0.07808,-0.05368,-0.04392,-0.01952
0.01464,0.0122,-0.03904,-0.04636,-0.05368,0.03416,-0.16104,-0.09272,-0.07808,-0.0488,-0.04392,-0.01952
0.00488,0.01708,-0.03904,-0.04148,-0.04392,0.0244,-0.16592,-0.09272,-0.08784,-0.06344,-0.05368,-0.02928
-0.00976,0.03416,-0.05856,-0.05368,-0.0488,0.01952,-0.15128,-0.08784,-0.08296,-0.06344,-0.05368,-0.03904
-0.03904,0.05612,-0.0732,-0.05368,-0.03416,-0.00244,-0.13176,-0.08296,-0.08784,-0.06344,-0.05856,-0.03904
-0.05368,0.06344,-0.0732,-0.04636,-0.01952,-0.01708,-0.122,-0.09272,-0.0976,-0.07808,-0.06344,-0.05368
-0.03416,0.061,-0.08784,-0.07076,-0.05368,0.00976,-0.11712,-0.0976,-0.0976,-0.09272,-0.08296,-0.08784
-0.01464,0.05856,-0.10248,-0.09516,-0.08784,0.0366,-0.11712,-0.10248,-0.10248,-0.0976,-0.0976,-0.10248
-0.05856,0.06344,-0.06832,-0.03904,-0.00976,-0.0244,-0.12688,-0.10736,-0.10248,-0.09272,-0.09272,-0.08784
-0.10248,0.0732,-0.04392,0.00732,0.05856,-0.08052,-0.11712,-0.10736,-0.0976,-0.09272,-0.09272,-0.0732
-0.0976,0.07564,-0.05368,-0.00488,0.04392,-0.07076,-0.122,-0.0976,-0.0976,-0.08296,-0.0976,-0.07808
-0.08296,0.06832,-0.05368,-0.0122,0.02928,-0.05612,-0.13176,-0.0976,-0.0976,-0.08296,-0.0976,-0.07808
-0.0732,0.0732,-0.0732,-0.0366,0,-0.0366,-0.11712,-0.09272,-0.09272,-0.08296,-0.0976,-0.08296
-0.06344,0.06344,-0.06344,-0.03172,0,-0.03172,-0.11712,-0.0976,-0.09272,-0.08296,-0.09272,-0.08296
-0.06344,0.07076,-0.07808,-0.04636,-0.01464,-0.0244,-0.10736,-0.0976,-0.09272,-0.08296,-0.09272,-0.0732
-0.06344,0.07564,-0.08784,-0.05612,-0.0244,-0.01952,-0.10248,-0.09272,-0.08784,-0.07808,-0.09272,-0.06832
-0.06344,0.08296,-0.10248,-0.07076,-0.03904,-0.0122,-0.0976,-0.07808,-0.09272,-0.07808,-0.08784,-0.08296
-0.06344,0.08784,-0.11224,-0.08052,-0.0488,-0.00732,-0.0976,-0.07808,-0.08784,-0.0732,-0.08784,-0.08784
-0.08296,0.0976,-0.11224,-0.07076,-0.02928,-0.02684,-0.06344,-0.05368,-0.06832,-0.08784,-0.0976,-0.0976
-0.09272,0.08296,-0.0732,-0.02684,0.01952,-0.05612,-0.02928,-0.00488,-0.03416,-0.0732,-0.10736,-0.11712
-0.0976,0.06832,-0.03904,0.00976,0.05856,-0.07808,0.00488,0.04392,0.03904,-0.03904,-0.06344,-0.08296
-0.10248,0.061,-0.01952,0.03172,0.08296,-0.09272,0.00488,0.06832,0.10248,0.01464,-0.03416,-0.07808
-0.03416,0.00244,0.02928,0.04636,0.06344,-0.0488,0.00976,0.1464,0.1708,0.0976,0.03416,-0.0244
0.02928,-0.01708,0.00488,-0.00976,-0.0244,0.02684,0.01952,0.30744,0.30256,0.20984,0.122,0.05368
0.1952,-0.1098,0.0244,-0.0732,-0.1708,0.183,0.0244,0.5368,0.50752,0.40016,0.28304,0.16592
0.42944,-0.28304,0.13664,-0.07808,-0.2928,0.36112,-0.08296,0.57584,0.68808,0.63928,0.50752,0.36112
0.58072,-0.46848,0.35624,0.06588,-0.22448,0.4026,-0.1952,0.45384,0.81984,0.91256,0.77104,0.61
0.61488,-0.6344,0.65392,0.34648,0.03904,0.28792,-0.32696,0.1708,0.84912,1.1224,1.05896,0.89792
0.66368,-0.72468,0.78568,0.45384,0.122,0.27084,-0.49288,-0.20496,0.64904,1.1468,1.19072,1.05896
0.64416,-0.5246,0.40504,0.08296,-0.23912,0.44164,-0.5124,-0.3172,0.33184,0.74664,0.74664,0.68808
0.53192,-0.37088,0.20984,-0.05612,-0.32208,0.427,-0.58072,-0.49288,-0.01464,0.38552,0.42944,0.44896
0.3416,-0.23424,0.12688,-0.04392,-0.21472,0.27816,-0.57096,-0.70272,-0.3904,0.04392,0.23424,0.366
0.14152,-0.08784,0.03416,-0.0366,-0.10736,0.12444,-0.54168,-0.81984,-0.70272,-0.29768,-0.01464,0.18544
0.06344,0.03416,-0.13176,-0.16348,-0.1952,0.12932,-0.49776,-0.77592,-0.72712,-0.42944,-0.19032,0.00488
0.00488,0.0732,-0.15128,-0.15372,-0.15616,0.08052,-0.44896,-0.65392,-0.62952,-0.40992,-0.23424,-0.08296
0.01952,0.05856,-0.13664,-0.1464,-0.15616,0.08784,-0.37576,-0.48312,-0.50752,-0.34648,-0.22936,-0.08784
-0.00488,0.06344,-0.122,-0.11956,-0.11712,0.05612,-0.29768,-0.3172,-0.3416,-0.23424,-0.16104,-0.0732
-0.00488,0.04636,-0.08784,-0.0854,-0.08296,0.03904,-0.2196,-0.21472,-0.18544,-0.14152,-0.09272,-0.04392
-0.00488,0.01952,-0.03416,-0.03172,-0.02928,0.0122,-0.16592,-0.14152,-0.11712,-0.08784,-0.07808,-0.0488
-0.04392,0.05124,-0.05856,-0.0366,-0.01464,-0.01464,-0.14152,-0.0976,-0.0976,-0.08296,-0.08784,-0.05368
-0.06344,0.06344,-0.06344,-0.03172,0,-0.03172,-0.13176,-0.05856,-0.10248,-0.08296,-0.08784,-0.05368
-0.06832,0.06832,-0.06832,-0.03416,0,-0.03416,-0.11224,-0.05368,-0.07808,-0.08296,-0.10248,-0.06832
-0.06344,0.05856,-0.05368,-0.02196,0.00976,-0.0366,-0.11224,-0.05368,-0.06832,-0.08296,-0.0976,-0.0732
-0.06344,0.05612,-0.0488,-0.01708,0.01464,-0.03904,-0.11712,-0.0488,-0.06832,-0.08784,-0.08784,-0.06832
-0.05856,0.05612,-0.05368,-0.0244,0.00488,-0.03172,-0.10248,-0.03904,-0.0732,-0.08296,-0.08296,-0.06344
-0.05368,0.05368,-0.05368,-0.02684,0,-0.02684,-0.0976,-0.03904,-0.06344,-0.08296,-0.08784,-0.06832
-0.0732,0.05368,-0.03416,0.00244,0.03904,-0.05612,-0.09272,-0.0488,-0.06344,-0.08296,-0.08784,-0.07808
-0.0732,0.04636,-0.01952,0.01708,0.05368,-0.06344,-0.09272,-0.0488,-0.05856,-0.0732,-0.08296,-0.06832
-0.0732,0.061,-0.0488,-0.0122,0.0244,-0.0488,-0.07808,-0.02928,-0.04392,-0.06344,-0.07808,-0.06832
-0.0732,0.0732,-0.0732,-0.0366,0,-0.0366,-0.06832,-0.0244,-0.03904,-0.06344,-0.07808,-0.06832
-0.06832,0.0732,-0.07808,-0.04392,-0.00976,-0.02928,-0.0732,-0.01464,-0.03904,-0.06344,-0.0732,-0.07808
-0.06832,0.07808,-0.08784,-0.05368,-0.01952,-0.0244,-0.0732,-0.00488,-0.03904,-0.05368,-0.0732,-0.0732
-0.05856,0.05856,-0.05856,-0.02928,0,-0.02928,-0.08296,-0.01464,-0.04392,-0.05368,-0.08296,-0.06832
-0.05856,0.0488,-0.03904,-0.00976,0.01952,-0.03904,-0.08296,-0.01464,-0.04392,-0.05368,-0.08296,-0.06832
-0.06344,0.05124,-0.03904,-0.00732,0.0244,-0.04392,-0.07808,-0.00976,-0.03416,-0.05368,-0.06832,-0.06344
-0.0732,0.05368,-0.03416,0.00244,0.03904,-0.05612,-0.07808,-0.00976,-0.03416,-0.05368,-0.06832,-0.06344
-0.0732,0.061,-0.0488,-0.0122,0.0244,-0.0488,-0.07808,-0.00976,-0.0244,-0.04392,-0.05856,-0.06832
-0.0732,0.07564,-0.07808,-0.04148,-0.00488,-0.03416,-0.0732,-0.00976,-0.01952,-0.04392,-0.05856,-0.06832
-0.05856,0.06344,-0.06832,-0.03904,-0.00976,-0.0244,-0.08296,-0.00976,-0.02928,-0.0488,-0.06832,-0.06832
-0.03904,0.05856,-0.07808,-0.05856,-0.03904,0,-0.08784,-0.00488,-0.0244,-0.0488,-0.06832,-0.06832
-0.0488,0.05856,-0.06832,-0.04392,-0.01952,-0.01464,-0.08784,0.00488,-0.00488,-0.03416,-0.05368,-0.05368
-0.0488,0.0488,-0.0488,-0.0244,0,-0.0244,-0.08296,0.00976,-0.00488,-0.02928,-0.03904,-0.04392
-0.05368,0.05124,-0.0488,-0.02196,0.00488,-0.02928,-0.06344,0.0244,0,-0.01952,-0.02928,-0.04392
-0.06344,0.05856,-0.05368,-0.02196,0.00976,-0.0366,-0.06344,0.0244,0,-0.01952,-0.02928,-0.04392
-0.06344,0.06344,-0.06344,-0.03172,0,-0.03172,-0.05856,0.01464,0,-0.0244,-0.04392,-0.05856
-0.06344,0.06588,-0.06832,-0.0366,-0.00488,-0.02928,-0.05856,0.0244,0.00976,-0.01952,-0.03416,-0.05368
-0.05368,0.05856,-0.06344,-0.0366,-0.00976,-0.02196,-0.05368,0.03416,0.00976,-0.00488,-0.0244,-0.04392
-0.05368,0.05612,-0.05856,-0.03172,-0.00488,-0.0244,-0.05856,0.03904,0.01952,0.00488,-0.01952,-0.04392
-0.03904,0.03416,-0.02928,-0.00976,0.00976,-0.0244,-0.08296,0.02928,0.01464,-0.00488,-0.02928,-0.0488
-0.02928,0.02684,-0.0244,-0.00976,0.00488,-0.01708,-0.08784,0.0244,0.00976,-0.00976,-0.0244,-0.03904
-0.00976,0.01464,-0.01952,-0.01464,-0.00976,0,-0.10248,0.0244,0.00488,-0.01464,-0.03416,-0.0488
0,0.00976,-0.01952,-0.01952,-0.01952,0.00976,-0.10248,0.0244,0.00976,-0.00976,-0.04392,-0.05856
-0.00488,0.0122,-0.01952,-0.01708,-0.01464,0.00488,-0.0976,0.03416,0.01952,0,-0.0244,-0.0488
-0.00488,0.01464,-0.0244,-0.02196,-0.01952,0.00732,-0.09272,0.03904,0.03416,0.01464,-0.00488,-0.02928
-0.01952,0.0122,-0.00488,0.00488,0.01464,-0.01708,-0.0976,0.05368,0.0488,0.01952,-0.00488,-0.00976
-0.02928,0.01708,-0.00488,0.00976,0.0244,-0.02684,-0.0976,0.06344,0.06344,0.03416,0.00976,-0.00976
-0.02928,0.0122,0.00488,0.01952,0.03416,-0.03172,-0.08784,0.0732,0.06832,0.04392,0.00976,0
-0.0244,0.00732,0.00976,0.02196,0.03416,-0.02928,-0.08784,0.07808,0.07808,0.05368,0.0244,0.00976
-0.00488,-0.0122,0.02928,0.03172,0.03416,-0.01952,-0.09272,0.07808,0.08296,0.05856,0.03416,0.00976
0,-0.00732,0.01464,0.01464,0.01464,-0.00732,-0.09272,0.09272,0.0976,0.06832,0.04392,0.00976
0.01464,-0.02196,0.02928,0.02196,0.01464,0,-0.11224,0.08784,0.0976,0.06832,0.03416,0.00976
0.0244,-0.0366,0.0488,0.0366,0.0244,0,-0.122,0.0976,0.10736,0.0732,0.03416,0.00488
0.02928,-0.04148,0.05368,0.03904,0.0244,0.00244,-0.11712,0.10736,0.122,0.10248,0.05368,0.02928
0.03904,-0.04636,0.05368,0.03416,0.01464,0.0122,-0.11224,0.11224,0.13664,0.11224,0.06832,0.04392
0.05856,-0.0732,0.08784,0.05856,0.02928,0.01464,-0.13176,0.122,0.12688,0.11224,0.06832,0.04392
0.0732,-0.0854,0.0976,0.061,0.0244,0.0244,-0.14152,0.13176,0.13176,0.122,0.08296,0.05368
0.0732,-0.08052,0.08784,0.05124,0.01464,0.02928,-0.14152,0.14152,0.15128,0.13664,0.10248,0.06832
0.07808,-0.08052,0.08296,0.04392,0.00488,0.0366,-0.1464,0.14152,0.16592,0.15128,0.11712,0.06832
0.08784,-0.08296,0.07808,0.03416,-0.00976,0.0488,-0.1464,0.15616,0.17568,0.1464,0.11712,0.0732
0.09272,-0.09028,0.08784,0.04148,-0.00488,0.0488,-0.1464,0.16104,0.17568,0.15616,0.10736,0.08296
0.10736,-0.0976,0.08784,0.03416,-0.01952,0.06344,-0.1464,0.16104,0.18056,0.15616,0.10736,0.08784
0.10736,-0.09516,0.08296,0.02928,-0.0244,0.06588,-0.13664,0.16104,0.18056,0.16104,0.10736,0.09272
0.10736,-0.10248,0.0976,0.04392,-0.00976,0.05856,-0.1464,0.16104,0.18056,0.16592,0.12688,0.10736
0.0976,-0.10248,0.10736,0.05856,0.00976,0.04392,-0.15128,0.16592,0.18544,0.16592,0.13664,0.11224
0.0976,-0.10248,0.10736,0.05856,0.00976,0.04392,-0.15616,0.16592,0.1708,0.15128,0.122,0.09272
0.10248,-0.10492,0.10736,0.05612,0.00488,0.0488,-0.15616,0.15616,0.1708,0.13664,0.11224,0.08296
0.10248,-0.10004,0.0976,0.04636,-0.00488,0.05368,-0.1464,0.15616,0.16592,0.13664,0.10248,0.07808
0.0976,-0.09028,0.08296,0.03416,-0.01464,0.05612,-0.13176,0.1464,0.15616,0.13176,0.10248,0.0732
0.09272,-0.09516,0.0976,0.05124,0.00488,0.04392,-0.14152,0.13664,0.13664,0.11224,0.08784,0.0732
0.08296,-0.09028,0.0976,0.05612,0.01464,0.03416,-0.13664,0.11712,0.11224,0.0976,0.0732,0.06832
0.09272,-0.08296,0.0732,0.02684,-0.01952,0.05612,-0.13664,0.09272,0.09272,0.08296,0.04392,0.03904
0.0976,-0.08052,0.06344,0.01464,-0.03416,0.06588,-0.13176,0.07808,0.07808,0.06832,0.02928,0.01952
0.07808,-0.0732,0.06832,0.02928,-0.00976,0.04392,-0.122,0.05856,0.0488,0.04392,0.01464,0
0.05856,-0.06344,0.06832,0.03904,0.00976,0.0244,-0.122,0.0488,0.02928,0.01464,0.00488,-0.00976
0.01952,-0.03416,0.0488,0.03904,0.02928,-0.00488,-0.10736,0.01952,0.01952,0.00488,0.00488,0
0.00488,-0.02684,0.0488,0.04636,0.04392,-0.01952,-0.10248,0,0.01464,0,-0.01464,0
-0.00976,-0.00488,0.01952,0.0244,0.02928,-0.01952,-0.0976,0,0.01952,0.00488,-0.00976,0.00488
-0.03416,0.01464,0.00488,0.02196,0.03904,-0.0366,-0.0976,0,0.00488,-0.00488,-0.00976,0.00488
-0.0244,0.01952,-0.01464,-0.00244,0.00976,-0.01708,-0.08296,-0.00488,0,0,-0.00976,0.00488
-0.01952,0.0244,-0.02928,-0.01952,-0.00976,-0.00488,-0.09272,-0.01464,-0.01952,-0.01952,-0.02928,-0.00976
-0.0244,0.03416,-0.04392,-0.03172,-0.01952,-0.00244,-0.07808,-0.01952,-0.0244,-0.0244,-0.02928,-0.01952
-0.02928,0.0366,-0.04392,-0.02928,-0.01464,-0.00732,-0.07808,-0.0244,-0.03416,-0.02928,-0.03416,-0.0244
-0.03416,0.02928,-0.0244,-0.00732,0.00976,-0.02196,-0.0976,-0.04392,-0.0488,-0.0488,-0.05368,-0.05856
-0.03416,0.01952,-0.00488,0.0122,0.02928,-0.03172,-0.0976,-0.06344,-0.05368,-0.05368,-0.06344,-0.06832
-0.02928,0.01952,-0.00976,0.00488,0.01952,-0.0244,-0.10248,-0.0732,-0.06344,-0.05856,-0.0732,-0.07808
-0.03416,0.01952,-0.00488,0.0122,0.02928,-0.03172,-0.10736,-0.07808,-0.0732,-0.0732,-0.08296,-0.08784
-0.0244,0.0244,-0.0244,-0.0122,0,-0.0122,-0.10736,-0.06832,-0.06832,-0.06344,-0.0732,-0.07808
-0.01952,0.02684,-0.03416,-0.0244,-0.01464,-0.00244,-0.11224,-0.07808,-0.0732,-0.0732,-0.07808,-0.08296
-0.03904,0.04148,-0.04392,-0.0244,-0.00488,-0.01708,-0.10248,-0.0732,-0.06832,-0.06344,-0.06344,-0.06832
-0.05856,0.05856,-0.05856,-0.02928,0,-0.02928,-0.09272,-0.0732,-0.06832,-0.06344,-0.06832,-0.05856
-0.05856,0.05612,-0.05368,-0.0244,0.00488,-0.03172,-0.0976,-0.08296,-0.06832,-0.0732,-0.06344,-0.06832
-0.05368,0.0488,-0.04392,-0.01708,0.00976,-0.03172,-0.10736,-0.08296,-0.06832,-0.0732,-0.06344,-0.06832
-0.03904,0.04392,-0.0488,-0.02928,-0.00976,-0.01464,-0.10248,-0.0732,-0.05856,-0.06344,-0.05856,-0.05856
-0.02928,0.03416,-0.03904,-0.0244,-0.00976,-0.00976,-0.09272,-0.06344,-0.04392,-0.05368,-0.0488,-0.0488
-0.03904,0.04392,-0.0488,-0.02928,-0.00976,-0.01464,-0.10248,-0.06344,-0.05368,-0.06344,-0.05856,-0.05856
-0.03416,0.0366,-0.03904,-0.02196,-0.00488,-0.01464,-0.11224,-0.06832,-0.05856,-0.06832,-0.05856,-0.05856
-0.03416,0.04636,-0.05856,-0.04148,-0.0244,-0.00488,-0.0976,-0.06832,-0.04392,-0.06344,-0.05856,-0.05856
-0.03904,0.0488,-0.05856,-0.03904,-0.01952,-0.00976,-0.09272,-0.06832,-0.04392,-0.06344,-0.05856,-0.06344
-0.02928,0.05124,-0.0732,-0.05856,-0.04392,0.00732,-0.08784,-0.05368,-0.04392,-0.0488,-0.05368,-0.05368
-0.02928,0.05124,-0.0732,-0.05856,-0.04392,0.00732,-0.09272,-0.05368,-0.03904,-0.0488,-0.0488,-0.05368
-0.03904,0.04636,-0.05368,-0.03416,-0.01464,-0.0122,-0.0976,-0.06832,-0.0488,-0.05856,-0.05856,-0.06344
-0.03904,0.03904,-0.03904,-0.01952,0,-0.01952,-0.09272,-0.0732,-0.05856,-0.06344,-0.06344,-0.06344
-0.01952,0.03416,-0.0488,-0.03904,-0.02928,0.00488,-0.10248,-0.0732,-0.05368,-0.05368,-0.05368,-0.06344
-0.01952,0.03416,-0.0488,-0.03904,-0.02928,0.00488,-0.10248,-0.06832,-0.0488,-0.05368,-0.05856,-0.06344
-0.02928,0.04636,-0.06344,-0.0488,-0.03416,0.00244,-0.09272,-0.05856,-0.04392,-0.0488,-0.05856,-0.05856
-0.03904,0.05612,-0.0732,-0.05368,-0.03416,-0.00244,-0.08296,-0.05368,-0.03416,-0.03904,-0.05856,-0.05856
-0.02928,0.0488,-0.06832,-0.05368,-0.03904,0.00488,-0.09272,-0.06344,-0.04392,-0.0488,-0.05856,-0.05856
-0.03416,0.04392,-0.05368,-0.0366,-0.01952,-0.00732,-0.09272,-0.06344,-0.03904,-0.05368,-0.05368,-0.05368
-0.02928,0.03416,-0.03904,-0.0244,-0.00976,-0.00976,-0.0976,-0.06832,-0.0488,-0.0488,-0.05368,-0.05368
-0.0244,0.0244,-0.0244,-0.0122,0,-0.0122,-0.09272,-0.06344,-0.04392,-0.0488,-0.05368,-0.05368
-0.01464,0.02196,-0.02928,-0.02196,-0.01464,0,-0.09272,-0.06344,-0.03416,-0.03904,-0.05856,-0.05368
-0.00976,0.03172,-0.05368,-0.0488,-0.04392,0.01708,-0.0976,-0.06344,-0.03416,-0.03416,-0.05856,-0.05368
-0.0244,0.03172,-0.03904,-0.02684,-0.01464,-0.00488,-0.0976,-0.06344,-0.04392,-0.04392,-0.06344,-0.06344
-0.0244,0.03172,-0.03904,-0.02684,-0.01464,-0.00488,-0.09272,-0.05856,-0.04392,-0.05368,-0.05856,-0.06344
-0.04392,0.03416,-0.0244,-0.00244,0.01952,-0.03172,-0.09272,-0.05368,-0.03416,-0.04392,-0.0488,-0.0488
-0.06344,0.04148,-0.01952,0.0122,0.04392,-0.05368,-0.09272,-0.05368,-0.03416,-0.04392,-0.0488,-0.0488
-0.06344,0.03416,-0.00488,0.02684,0.05856,-0.061,-0.10248,-0.06344,-0.05368,-0.05368,-0.06344,-0.06832
-0.06344,0.04148,-0.01952,0.0122,0.04392,-0.05368,-0.10248,-0.06344,-0.0488,-0.0488,-0.05856,-0.06344
-0.04392,0.03904,-0.03416,-0.0122,0.00976,-0.02684,-0.09272,-0.05856,-0.03904,-0.0488,-0.05856,-0.06344
-0.03416,0.04148,-0.0488,-0.03172,-0.01464,-0.00976,-0.08784,-0.05856,-0.03904,-0.0488,-0.05856,-0.06344
-0.03904,0.0366,-0.03416,-0.01464,0.00488,-0.02196,-0.10248,-0.05856,-0.03904,-0.0488,-0.05368,-0.05368
-0.04392,0.03416,-0.0244,-0.00244,0.01952,-0.03172,-0.10736,-0.06344,-0.0488,-0.05368,-0.04392,-0.05368
-0.02928,0.03416,-0.03904,-0.0244,-0.00976,-0.00976,-0.0976,-0.06344,-0.0488,-0.05368,-0.04392,-0.0488
-0.0244,0.02928,-0.03416,-0.02196,-0.00976,-0.00732,-0.0976,-0.06832,-0.0488,-0.05368,-0.0488,-0.04392
-0.0244,0.02196,-0.01952,-0.00732,0.00488,-0.01464,-0.10248,-0.06832,-0.05856,-0.0488,-0.0488,-0.05368
-0.0244,0.02196,-0.01952,-0.00732,0.00488,-0.01464,-0.0976,-0.0732,-0.05856,-0.0488,-0.0488,-0.0488
-0.04392,0.04392,-0.04392,-0.02196,0,-0.02196,-0.0976,-0.07808,-0.05368,-0.05856,-0.05368,-0.05856
-0.03904,0.04392,-0.0488,-0.02928,-0.00976,-0.01464,-0.0976,-0.08296,-0.05368,-0.06832,-0.0732,-0.06832
-0.0244,0.02928,-0.03416,-0.02196,-0.00976,-0.00732,-0.11224,-0.08296,-0.0732,-0.07808,-0.08296,-0.08784
-0.01464,0.02684,-0.03904,-0.03172,-0.0244,0.00488,-0.122,-0.08296,-0.0732,-0.07808,-0.08784,-0.08784
-0.03904,0.03172,-0.0244,-0.00488,0.01464,-0.02684,-0.11224,-0.08296,-0.06344,-0.06832,-0.0732,-0.07808
-0.0488,0.03172,-0.01464,0.00976,0.03416,-0.04148,-0.10248,-0.08784,-0.05856,-0.06344,-0.06344,-0.06344
-0.06344,0.05368,-0.04392,-0.0122,0.01952,-0.04148,-0.08784,-0.07808,-0.05856,-0.06344,-0.06832,-0.0488
-0.05856,0.05368,-0.0488,-0.01952,0.00976,-0.03416,-0.08784,-0.0732,-0.06832,-0.06832,-0.0732,-0.05856
-0.05856,0.04636,-0.03416,-0.00488,0.0244,-0.04148,-0.09272,-0.08296,-0.06832,-0.06832,-0.0732,-0.06832
-0.05368,0.03904,-0.0244,0.00244,0.02928,-0.04148,-0.09272,-0.08784,-0.06832,-0.06832,-0.08784,-0.06832
-0.03904,0.0244,-0.00976,0.00976,0.02928,-0.03416,-0.10248,-0.09272,-0.07808,-0.0732,-0.07808,-0.05856
-0.04392,0.02928,-0.01464,0.00732,0.02928,-0.0366,-0.0976,-0.08784,-0.07808,-0.06832,-0.06832,-0.05856
-0.0244,0.01952,-0.01464,-0.00244,0.00976,-0.01708,-0.10248,-0.10248,-0.08784,-0.08784,-0.07808,-0.0732
-0.0244,0.0244,-0.0244,-0.0122,0,-0.0122,-0.10736,-0.10248,-0.08784,-0.08784,-0.08296,-0.08296
-0.01464,0.01464,-0.01464,-0.00732,0,-0.00732,-0.11224,-0.10248,-0.09272,-0.09272,-0.08784,-0.09272
-0.0244,0.01952,-0.01464,-0.00244,0.00976,-0.01708,-0.11712,-0.10736,-0.09272,-0.10736,-0.10248,-0.09272
-0.0488,0.0366,-0.0244,0,0.0244,-0.0366,-0.0976,-0.0976,-0.08296,-0.08784,-0.09272,-0.07808
-0.05856,0.0366,-0.01464,0.01464,0.04392,-0.05124,-0.0976,-0.09272,-0.08296,-0.07808,-0.08296,-0.07808
-0.05856,0.02684,0.00488,0.03416,0.06344,-0.061,-0.10248,-0.0976,-0.08784,-0.08296,-0.09272,-0.08296
-0.05368,0.02684,0,0.02684,0.05368,-0.05368,-0.0976,-0.08784,-0.08296,-0.08296,-0.08784,-0.07808
-0.05368,0.0366,-0.01952,0.00732,0.03416,-0.04392,-0.10248,-0.09272,-0.08296,-0.08296,-0.08784,-0.07808
-0.05368,0.04148,-0.02928,-0.00244,0.0244,-0.03904,-0.10248,-0.09272,-0.08296,-0.08296,-0.08784,-0.07808
-0.03904,0.02684,-0.01464,0.00488,0.0244,-0.03172,-0.09272,-0.09272,-0.0976,-0.08296,-0.08784,-0.08296
-0.0488,0.02928,-0.00976,0.01464,0.03904,-0.04392,-0.09272,-0.09272,-0.0976,-0.08296,-0.08784,-0.07808
-0.0488,0.0244,0,0.0244,0.0488,-0.0488,-0.0976,-0.09272,-0.08784,-0.0732,-0.07808,-0.08296
-0.04392,0.02196,0,0.02196,0.04392,-0.04392,-0.10248,-0.0976,-0.0976,-0.08296,-0.08784,-0.08296
-0.03904,0.03172,-0.0244,-0.00488,0.01464,-0.02684,-0.09272,-0.08784,-0.09272,-0.07808,-0.08296,-0.0732
-0.03416,0.0366,-0.03904,-0.02196,-0.00488,-0.01464,-0.0976,-0.08784,-0.09272,-0.08296,-0.08296,-0.0732
-0.03416,0.02928,-0.0244,-0.00732,0.00976,-0.02196,-0.0976,-0.08784,-0.09272,-0.0732,-0.08296,-0.07808
-0.03416,0.0244,-0.01464,0.00244,0.01952,-0.02684,-0.09272,-0.08784,-0.09272,-0.0732,-0.08296,-0.07808
-0.01952,-0.01952,0.05856,0.06832,0.07808,-0.0488,-0.122,-0.11224,-0.10736,-0.10736,-0.10736,-0.0976
-0.03904,0.00244,0.03416,0.05368,0.0732,-0.05612,-0.0976,-0.10248,-0.08784,-0.07808,-0.08784,-0.0732
-0.03904,0.00732,0.0244,0.04392,0.06344,-0.05124,-0.0976,-0.09272,-0.08784,-0.07808,-0.08784,-0.08296
-0.02928,0.00976,0.00976,0.0244,0.03904,-0.03416,-0.08296,-0.0732,-0.07808,-0.06832,-0.0732,-0.0732
-0.03416,0.01952,-0.00488,0.0122,0.02928,-0.03172,-0.06344,-0.06832,-0.05856,-0.0488,-0.05856,-0.06344
-0.02928,0.01464,0,0.01464,0.02928,-0.02928,-0.04392,-0.06344,-0.0488,-0.0488,-0.05856,-0.06832
-0.01952,-0.00244,0.0244,0.03416,0.04392,-0.03172,-0.03904,-0.06344,-0.04392,-0.03904,-0.06832,-0.06344
-0.01952,0,0.01952,0.02928,0.03904,-0.02928,-0.02928,-0.04392,-0.04392,-0.0488,-0.07808,-0.06832
-0.01952,0.00244,0.01464,0.0244,0.03416,-0.02684,-0.02928,-0.03904,-0.0488,-0.04392,-0.06832,-0.06832
-0.00488,0.00244,0,0.00244,0.00488,-0.00488,-0.01952,-0.03416,-0.04392,-0.03904,-0.06344,-0.06832
0,0.00244,-0.00488,-0.00488,-0.00488,0.00244,-0.02928,-0.03416,-0.04392,-0.03904,-0.05368,-0.06832
-0.01464,0.0122,-0.00976,-0.00244,0.00488,-0.00976,-0.0244,-0.01464,-0.04392,-0.01952,-0.03904,-0.0488
-0.0244,0.02196,-0.01952,-0.00732,0.00488,-0.01464,-0.03416,-0.02928,-0.04392,-0.03416,-0.04392,-0.04392
-0.02928,0.0244,-0.01952,-0.00488,0.00976,-0.01952,-0.06344,-0.0488,-0.04392,-0.03904,-0.04392,-0.02928
-0.01464,0.00976,-0.00488,0.00244,0.00976,-0.0122,-0.08784,-0.06344,-0.06832,-0.03904,-0.04392,-0.03416
0.00976,-0.00732,0.00488,0,-0.00488,0.00732,-0.12688,-0.08296,-0.08784,-0.0488,-0.05368,-0.0488
0.02928,-0.0244,0.01952,0.00488,-0.00976,0.01952,-0.14152,-0.09272,-0.09272,-0.06344,-0.0732,-0.05856
0.0244,-0.01464,0.00488,-0.00732,-0.01952,0.02196,-0.14152,-0.08784,-0.09272,-0.06832,-0.06832,-0.05368
0.01464,-0.00244,-0.00976,-0.01708,-0.0244,0.01952,-0.14152,-0.0976,-0.11712,-0.07808,-0.07808,-0.06832
0.01464,0.00244,-0.01952,-0.02684,-0.03416,0.0244,-0.14152,-0.10736,-0.11224,-0.07808,-0.0732,-0.06344
0.01952,0.00244,-0.0244,-0.03416,-0.04392,0.03172,-0.13664,-0.10736,-0.11224,-0.07808,-0.0732,-0.06344
0.01464,0.00244,-0.01952,-0.02684,-0.03416,0.0244,-0.14152,-0.11712,-0.122,-0.08296,-0.07808,-0.06344
0.0244,-0.00244,-0.01952,-0.03172,-0.04392,0.03416,-0.13664,-0.10736,-0.10736,-0.07808,-0.0732,-0.05368
0.0244,-0.0122,0,-0.0122,-0.0244,0.0244,-0.14152,-0.10736,-0.10736,-0.07808,-0.0732,-0.04392
0.0244,-0.00732,-0.00976,-0.02196,-0.03416,0.02928,-0.14152,-0.10248,-0.0976,-0.06832,-0.06344,-0.03904
0.0244,-0.00732,-0.00976,-0.02196,-0.03416,0.02928,-0.13664,-0.09272,-0.0976,-0.06344,-0.06344,-0.03904
0.02928,-0.00732,-0.01464,-0.02928,-0.04392,0.0366,-0.11712,-0.09272,-0.09272,-0.06344,-0.06344,-0.03904
0,0.02684,-0.05368,-0.05368,-0.05368,0.02684,-0.08296,-0.07808,-0.07808,-0.05856,-0.06832,-0.03904
-0.01952,0.04636,-0.0732,-0.06344,-0.05368,0.01708,-0.06832,-0.0732,-0.07808,-0.06344,-0.06832,-0.05856
-0.0488,0.061,-0.0732,-0.0488,-0.0244,-0.0122,-0.0732,-0.08296,-0.08784,-0.0732,-0.09272,-0.06832
-0.05856,0.061,-0.06344,-0.03416,-0.00488,-0.02684,-0.08296,-0.09272,-0.10248,-0.09272,-0.0976,-0.07808
-0.05368,0.05368,-0.05368,-0.02684,0,-0.02684,-0.07808,-0.0976,-0.10736,-0.08784,-0.08784,-0.08296
-0.06832,0.06588,-0.06344,-0.02928,0.00488,-0.0366,-0.0732,-0.0976,-0.0976,-0.07808,-0.07808,-0.0732
-0.06832,0.05856,-0.0488,-0.01464,0.01952,-0.04392,-0.0732,-0.10736,-0.09272,-0.0732,-0.07808,-0.0732
-0.06344,0.05124,-0.03904,-0.00732,0.0244,-0.04392,-0.08296,-0.10736,-0.10248,-0.09272,-0.0976,-0.08296
-0.06344,0.06344,-0.06344,-0.03172,0,-0.03172,-0.06832,-0.0976,-0.09272,-0.0976,-0.10248,-0.08296
-0.06344,0.08052,-0.0976,-0.06588,-0.03416,-0.01464,-0.06832,-0.09272,-0.09272,-0.08784,-0.08784,-0.06832
-0.06344,0.07564,-0.08784,-0.05612,-0.0244,-0.01952,-0.06832,-0.08784,-0.08296,-0.0732,-0.0732,-0.06344
-0.06344,0.08052,-0.0976,-0.06588,-0.03416,-0.01464,-0.06344,-0.08784,-0.07808,-0.06832,-0.0732,-0.05856
-0.05368,0.06832,-0.08296,-0.05612,-0.02928,-0.0122,-0.05856,-0.08296,-0.08784,-0.08296,-0.08296,-0.0732
-0.05368,0.06832,-0.08296,-0.05612,-0.02928,-0.0122,-0.05856,-0.07808,-0.09272,-0.08784,-0.09272,-0.0732
-0.05368,0.0732,-0.09272,-0.06588,-0.03904,-0.00732,-0.05856,-0.07808,-0.08296,-0.0732,-0.09272,-0.06344
-0.08296,0.10248,-0.122,-0.08052,-0.03904,-0.02196,-0.00976,-0.02928,-0.05856,-0.06832,-0.08784,-0.0732
-0.06832,0.0732,-0.07808,-0.04392,-0.00976,-0.02928,0.01464,0.01952,0.00976,-0.04392,-0.08784,-0.07808
-0.08296,0.0732,-0.06344,-0.02196,0.01952,-0.05124,0.03416,0.04392,0.0488,-0.00976,-0.0488,-0.05856
-0.06832,0.0366,-0.00488,0.02928,0.06344,-0.06588,0.0488,0.0976,0.12688,0.06344,0.00976,-0.00976
-0.00488,-0.00244,0.00976,0.0122,0.01464,-0.00976,0.06832,0.1952,0.244,0.16592,0.08296,0.03904
0.0732,-0.00732,-0.05856,-0.09516,-0.13176,0.10248,0.09272,0.37576,0.40016,0.30256,0.18544,0.11712
0.25864,-0.1586,0.05856,-0.07076,-0.20008,0.22936,0.03416,0.53192,0.58072,0.488,0.35136,0.23912
0.45872,-0.32696,0.1952,-0.03416,-0.26352,0.36112,-0.06344,0.5368,0.75152,0.76616,0.6344,0.488
0.5368,-0.5002,0.4636,0.1952,-0.0732,0.305,-0.13176,0.34648,0.84912,1.0248,0.92232,0.76616
0.55144,-0.64904,0.74664,0.47092,0.1952,0.17812,-0.27816,0.02928,0.82472,1.21024,1.18584,1.0248
0.56608,-0.63196,0.69784,0.4148,0.13176,0.21716,-0.4148,-0.24888,0.58072,1.098,1.15168,1.03456
0.50752,-0.427,0.34648,0.09272,-0.16104,0.33428,-0.40016,-0.33672,0.2196,0.6344,0.64904,0.62952
0.37576,-0.30012,0.22448,0.0366,-0.15128,0.26352,-0.44408,-0.51728,-0.07808,0.3416,0.4392,0.49288
0.1952,-0.1708,0.1464,0.0488,-0.0488,0.122,-0.4392,-0.72712,-0.5124,-0.09272,0.13176,0.30256
0.06344,-0.04148,0.01952,-0.0122,-0.04392,0.05368,-0.40504,-0.732,-0.67832,-0.33184,-0.08296,0.11224
-0.01464,0.06832,-0.122,-0.11468,-0.10736,0.04636,-0.3416,-0.67832,-0.66856,-0.42456,-0.22448,-0.05368
-0.01464,0.07808,-0.14152,-0.1342,-0.12688,0.05612,-0.3172,-0.5368,-0.57096,-0.37576,-0.23424,-0.07808
-0.04392,0.09028,-0.13664,-0.11468,-0.09272,0.0244,-0.26352,-0.40016,-0.44896,-0.30744,-0.2196,-0.08784
-0.01464,0.0488,-0.08296,-0.07564,-0.06832,0.02684,-0.20008,-0.28304,-0.30744,-0.22448,-0.17568,-0.08784
-0.03416,0.04392,-0.05368,-0.0366,-0.01952,-0.00732,-0.13176,-0.18544,-0.16592,-0.11712,-0.10248,-0.0488
-0.0244,0.0366,-0.0488,-0.0366,-0.0244,0,-0.06832,-0.10248,-0.09272,-0.0488,-0.05856,-0.03904
-0.04392,0.05368,-0.06344,-0.04148,-0.01952,-0.0122,-0.05856,-0.06344,-0.08784,-0.05856,-0.05856,-0.02928
-0.05368,0.06588,-0.07808,-0.05124,-0.0244,-0.01464,-0.0488,-0.0488,-0.08296,-0.06832,-0.05856,-0.0488
-0.05368,0.061,-0.06832,-0.04148,-0.01464,-0.01952,-0.04392,-0.05856,-0.08784,-0.08296,-0.08296,-0.08296
-0.03416,0.03904,-0.04392,-0.02684,-0.00976,-0.0122,-0.0488,-0.06832,-0.08784,-0.08784,-0.08784,-0.09272
-0.0244,0.04392,-0.06344,-0.05124,-0.03904,0.00732,-0.04392,-0.05856,-0.07808,-0.0732,-0.09272,-0.08296
-0.02928,0.05368,-0.07808,-0.06344,-0.0488,0.00976,-0.0244,-0.04392,-0.06344,-0.0732,-0.09272,-0.08296
-0.04392,0.05612,-0.06832,-0.04636,-0.0244,-0.00976,-0.01952,-0.03904,-0.05368,-0.0732,-0.10736,-0.10248
-0.0732,0.05856,-0.04392,-0.00732,0.02928,-0.05124,-0.01464,-0.03904,-0.05368,-0.0732,-0.10736,-0.10736
-0.07808,0.06832,-0.05856,-0.01952,0.01952,-0.0488,0,-0.02928,-0.03904,-0.05856,-0.08296,-0.09272
-0.0732,0.07564,-0.07808,-0.04148,-0.00488,-0.03416,0,-0.01464,-0.02928,-0.0488,-0.0732,-0.08296
-0.06832,0.0732,-0.07808,-0.04392,-0.00976,-0.02928,0.00488,-0.01464,-0.03904,-0.04392,-0.07808,-0.06832
-0.06344,0.07076,-0.07808,-0.04636,-0.01464,-0.0244,0.00488,0,-0.03904,-0.03904,-0.0732,-0.06344
-0.06344,0.06344,-0.06344,-0.03172,0,-0.03172,0,-0.00488,-0.04392,-0.04392,-0.0732,-0.0732
-0.05368,0.04636,-0.03904,-0.0122,0.01464,-0.03416,-0.00976,-0.00488,-0.04392,-0.04392,-0.0732,-0.06832
-0.0488,0.04392,-0.03904,-0.01464,0.00976,-0.02928,-0.00488,0.00488,-0.03416,-0.03416,-0.0732,-0.05368
-0.04392,0.0488,-0.05368,-0.03172,-0.00976,-0.01708,0,0.00976,-0.03416,-0.03416,-0.06832,-0.05368
-0.05368,0.05612,-0.05856,-0.03172,-0.00488,-0.0244,-0.00488,0,-0.0244,-0.03416,-0.06344,-0.04392
-0.05368,0.06588,-0.07808,-0.05124,-0.0244,-0.01464,-0.00976,0,-0.01952,-0.03416,-0.05856,-0.03904
-0.03416,0.05124,-0.06832,-0.05124,-0.03416,0,-0.00488,0.00976,-0.02928,-0.02928,-0.05856,-0.04392
-0.01952,0.03904,-0.05856,-0.0488,-0.03904,0.00976,0,0.01464,-0.0244,-0.02928,-0.05856,-0.05368
-0.0244,0.0366,-0.0488,-0.0366,-0.0244,0,-0.00976,0.01464,-0.01464,-0.02928,-0.05856,-0.05856
-0.03416,0.04636,-0.05856,-0.04148,-0.0244,-0.00488,-0.00488,0.02928,-0.00488,-0.0244,-0.0488,-0.05368
-0.03904,0.0366,-0.03416,-0.01464,0.00488,-0.02196,-0.00488,0.01952,-0.01464,-0.01952,-0.05856,-0.05368
-0.03416,0.0366,-0.03904,-0.02196,-0.00488,-0.01464,0.00488,0.0244,-0.00976,-0.01952,-0.05856,-0.05368
-0.04392,0.03416,-0.0244,-0.00244,0.01952,-0.03172,0,0.0244,-0.00976,-0.01464,-0.0488,-0.05368
-0.04392,0.03416,-0.0244,-0.00244,0.01952,-0.03172,0,0.0244,-0.00976,-0.00976,-0.05368,-0.05856
-0.05368,0.04392,-0.03416,-0.00732,0.01952,-0.0366,0.00488,0.03416,0,-0.00488,-0.04392,-0.03416
-0.05368,0.04636,-0.03904,-0.0122,0.01464,-0.03416,0.01952,0.03416,0.00488,0.00488,-0.03904,-0.03416
-0.0488,0.04148,-0.03416,-0.00976,0.01464,-0.03172,0.01464,0.03904,0.01464,-0.00488,-0.0488,-0.02928
-0.03416,0.03172,-0.02928,-0.0122,0.00488,-0.01952,0.01464,0.03904,0.01464,-0.00488,-0.03904,-0.0244
-0.01952,0.02684,-0.03416,-0.0244,-0.01464,-0.00244,0,0.05368,0.01952,0.01464,-0.02928,-0.01952
-0.00976,0.01952,-0.02928,-0.0244,-0.01952,0.00488,-0.00488,0.05368,0.0244,0.01464,-0.01952,-0.01952
-0.01464,0.0122,-0.00976,-0.00244,0.00488,-0.00976,0,0.05368,0.02928,0.01952,-0.0244,-0.02928
-0.01464,0.0122,-0.00976,-0.00244,0.00488,-0.00976,0.00488,0.05368,0.02928,0.0244,-0.01952,-0.02928
-0.01464,0.00244,0.00976,0.01708,0.0244,-0.01952,-0.00488,0.05368,0.02928,0.0244,-0.0244,-0.02928
-0.00976,-0.00244,0.01464,0.01952,0.0244,-0.01708,-0.00976,0.05368,0.03416,0.0244,-0.01952,-0.02928
-0.00488,0,0.00488,0.00732,0.00976,-0.00732,-0.00976,0.06832,0.05368,0.03416,0,-0.00488
0.00488,-0.00732,0.00976,0.00732,0.00488,0,-0.00976,0.07808,0.06344,0.05368,0.00488,0.00488
0.00488,-0.00976,0.01464,0.0122,0.00976,-0.00244,-0.00976,0.07808,0.08296,0.07808,0.01952,0.01952
0.01464,-0.01952,0.0244,0.01708,0.00976,0.00244,-0.01464,0.08784,0.09272,0.08296,0.02928,0.01952
0.0244,-0.01952,0.01464,0.00244,-0.00976,0.01708,-0.00488,0.0976,0.09272,0.08296,0.03416,0.01952
0.02928,-0.02684,0.0244,0.00976,-0.00488,0.01708,-0.01464,0.10248,0.10736,0.09272,0.03416,0.01952
0.03416,-0.03416,0.03416,0.01708,0,0.01708,-0.01464,0.11224,0.11712,0.09272,0.0488,0.03416
0.04392,-0.03904,0.03416,0.0122,-0.00976,0.02684,-0.0244,0.122,0.12688,0.10736,0.05856,0.04392
0.04392,-0.0366,0.02928,0.00732,-0.01464,0.02928,-0.0244,0.13176,0.1464,0.12688,0.0732,0.05856
0.05368,-0.04392,0.03416,0.00732,-0.01952,0.0366,-0.0244,0.1464,0.15616,0.15128,0.09272,0.0732
0.04392,-0.04392,0.04392,0.02196,0,0.02196,-0.0244,0.1464,0.15616,0.16592,0.0976,0.08784
0.05368,-0.05612,0.05856,0.03172,0.00488,0.0244,-0.0244,0.15128,0.1708,0.16592,0.10736,0.08296
0.07808,-0.0732,0.06832,0.02928,-0.00976,0.04392,-0.03904,0.15128,0.17568,0.17568,0.13176,0.0976
0.07808,-0.08296,0.08784,0.0488,0.00976,0.03416,-0.03904,0.16104,0.17568,0.17568,0.13664,0.10736
0.09272,-0.10736,0.122,0.07564,0.02928,0.03172,-0.04392,0.16104,0.18056,0.18544,0.13664,0.10248
0.0976,-0.11712,0.13664,0.08784,0.03904,0.02928,-0.0488,0.16104,0.18056,0.18544,0.13664,0.10736
0.10248,-0.12688,0.15128,0.10004,0.0488,0.02684,-0.05856,0.15128,0.1708,0.18056,0.13664,0.0976
0.10736,-0.1342,0.16104,0.10736,0.05368,0.02684,-0.05856,0.15616,0.17568,0.18544,0.13176,0.09272
0.0976,-0.12688,0.15616,0.10736,0.05856,0.01952,-0.04392,0.15616,0.17568,0.18544,0.13664,0.0976
0.10248,-0.11956,0.13664,0.0854,0.03416,0.03416,-0.0488,0.15128,0.1708,0.18056,0.13176,0.0976
0.11224,-0.11956,0.12688,0.07076,0.01464,0.0488,-0.04392,0.15128,0.16592,0.18056,0.12688,0.11224
0.11224,-0.11468,0.11712,0.061,0.00488,0.05368,-0.02928,0.16104,0.16592,0.17568,0.13664,0.10736
0.0976,-0.10004,0.10248,0.05368,0.00488,0.04636,-0.02928,0.14152,0.1464,0.15128,0.11712,0.09272
0.10736,-0.10736,0.10736,0.05368,0,0.05368,-0.03904,0.13176,0.11712,0.11712,0.0976,0.07808
0.08784,-0.08052,0.0732,0.02928,-0.01464,0.05124,-0.01952,0.11712,0.10736,0.10736,0.08296,0.05368
0.05856,-0.0488,0.03904,0.00976,-0.01952,0.03904,0,0.11224,0.10248,0.10248,0.0732,0.0488
0.01952,-0.02928,0.03904,0.02928,0.01952,0,0.01464,0.10736,0.09272,0.0976,0.05368,0.04392
0.01464,-0.02684,0.03904,0.03172,0.0244,-0.00488,0.0244,0.09272,0.08296,0.09272,0.0488,0.0488
0,-0.02196,0.04392,0.04392,0.04392,-0.02196,0.01952,0.06832,0.05856,0.06832,0.03416,0.03416
0.00488,-0.02196,0.03904,0.0366,0.03416,-0.01464,0.0244,0.0488,0.04392,0.04392,0.01952,0.0244
0.00488,-0.01952,0.03416,0.03172,0.02928,-0.0122,0.01464,0.03904,0.03416,0.02928,0.00976,0.01464
-0.00976,-0.0122,0.03416,0.03904,0.04392,-0.02684,0.01952,0.0244,0.0244,0.01952,-0.00488,0.00976
-0.00488,-0.00976,0.0244,0.02684,0.02928,-0.01708,0.03416,0.01952,0.01464,0,-0.01952,0
-0.00488,-0.00244,0.00976,0.0122,0.01464,-0.00976,0.0244,0.00488,0,-0.00976,-0.02928,-0.01464
-0.01464,0.01464,-0.01464,-0.00732,0,-0.00732,0.0244,-0.00976,-0.01952,-0.01952,-0.0488,-0.02928
-0.01952,0.02928,-0.03904,-0.02928,-0.01952,0,0.01464,-0.01464,-0.03416,-0.0244,-0.0488,-0.01952
-0.03416,0.0366,-0.03904,-0.02196,-0.00488,-0.01464,0.01464,-0.0244,-0.03904,-0.03416,-0.0488,-0.03416
-0.03416,0.03172,-0.02928,-0.0122,0.00488,-0.01952,0.00976,-0.02928,-0.04392,-0.03904,-0.05368,-0.03904
-0.02928,0.0244,-0.01952,-0.00488,0.00976,-0.01952,0.01952,-0.0244,-0.03416,-0.03416,-0.05368,-0.0488
-0.02928,0.02196,-0.01464,0,0.01464,-0.02196,0.0244,-0.0244,-0.03416,-0.02928,-0.05368,-0.05368
-0.03416,0.02684,-0.01952,-0.00244,0.01464,-0.0244,0.02928,-0.02928,-0.04392,-0.04392,-0.06344,-0.0488
-0.03904,0.02928,-0.01952,0,0.01952,-0.02928,0.02928,-0.02928,-0.03904,-0.04392,-0.06344,-0.0488
-0.03904,0.03172,-0.0244,-0.00488,0.01464,-0.02684,0.0244,-0.03904,-0.05856,-0.06344,-0.06832,-0.06344
-0.0488,0.03904,-0.02928,-0.00488,0.01952,-0.03416,0.0244,-0.03416,-0.05856,-0.06344,-0.06344,-0.05856
-0.0488,0.04148,-0.03416,-0.00976,0.01464,-0.03172,0.02928,-0.03416,-0.05856,-0.05856,-0.05856,-0.05368
-0.04392,0.04392,-0.04392,-0.02196,0,-0.02196,0.02928,-0.03416,-0.05856,-0.0488,-0.05368,-0.04392
-0.03904,0.03416,-0.02928,-0.00976,0.00976,-0.0244,0.0244,-0.03416,-0.06832,-0.05368,-0.05856,-0.0488
-0.03904,0.02928,-0.01952,0,0.01952,-0.02928,0.0244,-0.03416,-0.06832,-0.05368,-0.0732,-0.05856
-0.03416,0.02684,-0.01952,-0.00244,0.01464,-0.0244,0.0244,-0.03416,-0.06344,-0.06344,-0.08784,-0.05368
-0.01952,0.01464,-0.00976,0,0.00976,-0.01464,0.01464,-0.03904,-0.06344,-0.06832,-0.08784,-0.06344
-0.0244,0.0244,-0.0244,-0.0122,0,-0.0122,0.01952,-0.02928,-0.05856,-0.06344,-0.08784,-0.07808
-0.02928,0.0366,-0.04392,-0.02928,-0.01464,-0.00732,0.0244,-0.02928,-0.05368,-0.06344,-0.08784,-0.08296
-0.03904,0.04392,-0.0488,-0.02928,-0.00976,-0.01464,0.03416,-0.0244,-0.04392,-0.05856,-0.07808,-0.0732
-0.03904,0.04392,-0.0488,-0.02928,-0.00976,-0.01464,0.03904,-0.0244,-0.03904,-0.04392,-0.06832,-0.05856
-0.03904,0.03904,-0.03904,-0.01952,0,-0.01952,0.03904,-0.01464,-0.02928,-0.02928,-0.0488,-0.04392
-0.03904,0.0366,-0.03416,-0.01464,0.00488,-0.02196,0.04392,-0.01952,-0.02928,-0.02928,-0.0488,-0.04392
-0.03904,0.0366,-0.03416,-0.01464,0.00488,-0.02196,0.05368,-0.01464,-0.0244,-0.03416,-0.04392,-0.05368
-0.03904,0.04148,-0.04392,-0.0244,-0.00488,-0.01708,0.05368,-0.00976,-0.01952,-0.03416,-0.04392,-0.05368
-0.0488,0.05368,-0.05856,-0.03416,-0.00976,-0.01952,0.05368,-0.00976,-0.03416,-0.03416,-0.0488,-0.0488
-0.0488,0.05124,-0.05368,-0.02928,-0.00488,-0.02196,0.05368,-0.01464,-0.03416,-0.03904,-0.0488,-0.0488
-0.0488,0.05856,-0.06832,-0.04392,-0.01952,-0.01464,0.05856,-0.00976,-0.0244,-0.02928,-0.03904,-0.0488
-0.0488,0.05612,-0.06344,-0.03904,-0.01464,-0.01708,0.06832,0,-0.0244,-0.02928,-0.03904,-0.0488
-0.0488,0.05612,-0.06344,-0.03904,-0.01464,-0.01708,0.06832,0,-0.01952,-0.0244,-0.04392,-0.05368
-0.04392,0.05856,-0.0732,-0.05124,-0.02928,-0.00732,0.06832,0.00488,-0.01464,-0.01952,-0.04392,-0.05368
-0.03416,0.0488,-0.06344,-0.04636,-0.02928,-0.00244,0.06344,0.00488,-0.01464,-0.0244,-0.04392,-0.06344
-0.03416,0.04148,-0.0488,-0.03172,-0.01464,-0.00976,0.06344,0.00488,-0.01464,-0.03416,-0.03904,-0.06344
-0.02928,0.04392,-0.05856,-0.04392,-0.02928,0,0.05856,-0.00488,-0.01464,-0.03416,-0.04392,-0.06344
-0.03416,0.0488,-0.06344,-0.04636,-0.02928,-0.00244,0.06344,0,-0.01464,-0.03416,-0.03904,-0.06344
-0.02928,0.0488,-0.06832,-0.05368,-0.03904,0.00488,0.05368,-0.00488,-0.01952,-0.04392,-0.0488,-0.06344
-0.01952,0.04148,-0.06344,-0.05368,-0.04392,0.0122,0.05368,-0.00488,-0.02928,-0.04392,-0.0488,-0.05856
-0.01464,0.02928,-0.04392,-0.0366,-0.02928,0.00732,0.05856,0.00488,-0.03904,-0.03904,-0.0488,-0.06344
-0.01464,0.02928,-0.04392,-0.0366,-0.02928,0.00732,0.05368,0.00488,-0.02928,-0.0244,-0.03904,-0.0488
-0.01952,0.02928,-0.03904,-0.02928,-0.01952,0,0.05368,-0.00488,-0.02928,-0.02928,-0.02928,-0.0488
-0.02928,0.03172,-0.03416,-0.01952,-0.00488,-0.0122,0.05856,-0.00976,-0.02928,-0.02928,-0.02928,-0.04392
-0.03904,0.0366,-0.03416,-0.01464,0.00488,-0.02196,0.06344,0,-0.01952,-0.01952,-0.02928,-0.04392
-0.04392,0.04636,-0.0488,-0.02684,-0.00488,-0.01952,0.06832,-0.00488,-0.01952,-0.0244,-0.03416,-0.04392
-0.0488,0.05368,-0.05856,-0.03416,-0.00976,-0.01952,0.06832,0.00488,-0.01952,-0.0244,-0.03416,-0.05368
-0.0488,0.061,-0.0732,-0.0488,-0.0244,-0.0122,0.06832,0.00488,-0.01952,-0.0244,-0.03416,-0.04392
-0.03904,0.05124,-0.06344,-0.04392,-0.0244,-0.00732,0.05368,-0.00976,-0.02928,-0.03416,-0.03904,-0.0488
-0.02928,0.04392,-0.05856,-0.04392,-0.02928,0,0.05368,-0.01464,-0.03904,-0.03904,-0.03904,-0.05368
-0.03416,0.05612,-0.07808,-0.061,-0.04392,0.00488,0.06344,-0.00488,-0.03416,-0.03416,-0.03416,-0.04392
-0.04392,0.06588,-0.08784,-0.06588,-0.04392,0,0.0732,0,-0.03416,-0.0244,-0.03904,-0.03416
-0.03416,0.05368,-0.0732,-0.05612,-0.03904,0.00244,0.06344,-0.01464,-0.04392,-0.03416,-0.04392,-0.0488
-0.01952,0.04636,-0.0732,-0.06344,-0.05368,0.01708,0.06344,-0.01464,-0.04392,-0.04392,-0.0488,-0.0488
-0.0244,0.05124,-0.07808,-0.06588,-0.05368,0.01464,0.0732,-0.00488,-0.03416,-0.03904,-0.04392,-0.03904
-0.03416,0.05368,-0.0732,-0.05612,-0.03904,0.00244,0.0732,-0.00976,-0.03416,-0.03904,-0.04392,-0.03904
-0.05368,0.06344,-0.0732,-0.04636,-0.01952,-0.01708,0.07808,-0.01952,-0.02928,-0.0244,-0.0488,-0.04392
-0.06344,0.06588,-0.06832,-0.0366,-0.00488,-0.02928,0.07808,-0.01464,-0.02928,-0.0244,-0.0488,-0.03904
-0.0488,0.05856,-0.06832,-0.04392,-0.01952,-0.01464,0.0732,-0.00976,-0.0488,-0.03416,-0.04392,-0.0488
-0.0488,0.05124,-0.05368,-0.02928,-0.00488,-0.02196,0.0732,-0.01952,-0.0488,-0.04392,-0.0488,-0.0488
-0.02928,0.0488,-0.06832,-0.05368,-0.03904,0.00488,0.08296,-0.00488,-0.03904,-0.0488,-0.0488,-0.03416
-0.03416,0.06588,-0.0976,-0.08052,-0.06344,0.01464,0.08296,-0.00488,-0.03904,-0.03416,-0.03904,-0.0244
-0.03416,0.07076,-0.10736,-0.09028,-0.0732,0.01952,0.07808,-0.00976,-0.0488,-0.03416,-0.0488,-0.0244
