i,aVR,ii,aVF,iii,aVL,V1,V2,V3,V4,V5,V6
0.05368,-0.03172,0.00976,-0.01708,-0.04392,0.0488,0.0488,0.1952,0.0732,0.0488,0.03904,0.00488
0.06344,-0.0366,0.00976,-0.02196,-0.05368,0.05856,0.0488,0.20496,0.06344,0.05856,0.0488,0.01464
0.06832,-0.04148,0.01464,-0.01952,-0.05368,0.061,0.0488,0.20496,0.05856,0.05368,0.0488,0.01464
0.06832,-0.04148,0.01464,-0.01952,-0.05368,0.061,0.05368,0.20008,0.05368,0.05368,0.0488,0.01464
0.06832,-0.04148,0.01464,-0.01952,-0.05368,0.061,0.0488,0.20008,0.05368,0.04392,0.0488,0.01464
0.06344,-0.03172,0,-0.03172,-0.06344,0.06344,0.0488,0.19032,0.05368,0.05368,0.05856,0.0244
0.06832,-0.03904,0.00976,-0.0244,-0.05856,0.06344,0.04392,0.18544,0.05368,0.05368,0.05856,0.02928
0.05856,-0.03172,0.00488,-0.0244,-0.05368,0.05612,0.03904,0.16592,0.05368,0.05368,0.05856,0.02928
0.05856,-0.03416,0.00976,-0.01952,-0.0488,0.05368,0.03416,0.16104,0.04392,0.05368,0.05856,0.02928
0.05368,-0.03172,0.00976,-0.01708,-0.04392,0.0488,0.03416,0.16104,0.04392,0.0488,0.0488,0.02928
0.0488,-0.02684,0.00488,-0.01952,-0.04392,0.04636,0.0244,0.14152,0.03416,0.0488,0.04392,0.02928
0.0488,-0.03172,0.01464,-0.00976,-0.03416,0.04148,0.02928,0.122,0.02928,0.03904,0.04392,0.0244
0.04392,-0.02928,0.01464,-0.00732,-0.02928,0.0366,0.0244,0.10248,0.0244,0.02928,0.03904,0.00976
0.0244,-0.01464,0.00488,-0.00732,-0.01952,0.02196,0.0244,0.08784,0.0244,0.01464,0.0244,0.00488
0.00976,-0.00732,0.00488,0,-0.00488,0.00732,0.01952,0.0732,0.00976,0.00976,0.00976,-0.00488
-0.00488,0.00244,0,0.00244,0.00488,-0.00488,0.00976,0.05368,0.00488,0.00976,0.00976,-0.00976
-0.01464,0.01464,-0.01464,-0.00732,0,-0.00732,0.00976,0.03416,-0.00488,0.00488,0,-0.01464
-0.01952,0.01708,-0.01464,-0.00488,0.00488,-0.0122,0.01464,0.01952,-0.00976,-0.01464,0,-0.00976
-0.01464,0.01464,-0.01464,-0.00732,0,-0.00732,0.01464,0,-0.01464,-0.0244,-0.00976,-0.01464
-0.02928,0.0244,-0.01952,-0.00488,0.00976,-0.01952,0.01464,-0.00488,-0.01464,-0.01952,-0.00488,-0.0244
-0.03904,0.03172,-0.0244,-0.00488,0.01464,-0.02684,0.01464,-0.01952,-0.0244,-0.02928,-0.01952,-0.03416
-0.03416,0.02928,-0.0244,-0.00732,0.00976,-0.02196,0.01464,-0.02928,-0.03904,-0.03416,-0.02928,-0.0488
-0.03416,0.03172,-0.02928,-0.0122,0.00488,-0.01952,0.01464,-0.03904,-0.04392,-0.05368,-0.04392,-0.0488
-0.04392,0.03416,-0.0244,-0.00244,0.01952,-0.03172,0.01464,-0.03904,-0.04392,-0.05856,-0.03904,-0.03904
-0.04392,0.0366,-0.02928,-0.00732,0.01464,-0.02928,0.01464,-0.04392,-0.0488,-0.05368,-0.04392,-0.04392
-0.05856,0.0488,-0.03904,-0.00976,0.01952,-0.03904,0.01464,-0.04392,-0.0488,-0.05856,-0.05856,-0.05368
-0.05856,0.0488,-0.03904,-0.00976,0.01952,-0.03904,0.01464,-0.0488,-0.05368,-0.06832,-0.06344,-0.05368
-0.06832,0.05612,-0.04392,-0.00976,0.0244,-0.04636,0.01464,-0.03904,-0.05368,-0.06832,-0.05368,-0.0488
-0.06832,0.05368,-0.03904,-0.00488,0.02928,-0.0488,0.01464,-0.03904,-0.05368,-0.06832,-0.05368,-0.0488
-0.05856,0.04392,-0.02928,0,0.02928,-0.04392,0.01464,-0.03904,-0.05856,-0.06344,-0.05856,-0.05368
-0.0488,0.04148,-0.03416,-0.00976,0.01464,-0.03172,0.01952,-0.03904,-0.05856,-0.06344,-0.05856,-0.05368
-0.05856,0.04636,-0.03416,-0.00488,0.0244,-0.04148,0.01952,-0.0488,-0.0488,-0.06344,-0.05368,-0.05368
-0.05856,0.04636,-0.03416,-0.00488,0.0244,-0.04148,0.01952,-0.0488,-0.0488,-0.06344,-0.05368,-0.05368
-0.05856,0.04636,-0.03416,-0.00488,0.0244,-0.04148,0.02928,-0.03904,-0.0488,-0.0732,-0.05368,-0.05368
-0.05856,0.04392,-0.02928,0,0.02928,-0.04392,0.02928,-0.03904,-0.0488,-0.0732,-0.0488,-0.05856
-0.06832,0.05368,-0.03904,-0.00488,0.02928,-0.0488,0.02928,-0.03416,-0.05368,-0.06832,-0.0488,-0.05856
-0.0732,0.05856,-0.04392,-0.00732,0.02928,-0.05124,0.03416,-0.03416,-0.05368,-0.06832,-0.05368,-0.05856
-0.0732,0.05368,-0.03416,0.00244,0.03904,-0.05612,0.0244,-0.03416,-0.03904,-0.06832,-0.05368,-0.06832
-0.0732,0.05368,-0.03416,0.00244,0.03904,-0.05612,0.0244,-0.03416,-0.03904,-0.06832,-0.05368,-0.06832
-0.06344,0.0488,-0.03416,-0.00244,0.02928,-0.04636,0.0244,-0.02928,-0.03904,-0.06344,-0.05856,-0.05856
-0.06344,0.04636,-0.02928,0.00244,0.03416,-0.0488,0.0244,-0.03416,-0.03904,-0.06832,-0.05856,-0.06344
-0.06832,0.05124,-0.03416,0,0.03416,-0.05124,0.0244,-0.02928,-0.03904,-0.06344,-0.05368,-0.05856
-0.06832,0.05124,-0.03416,0,0.03416,-0.05124,0.0244,-0.02928,-0.03904,-0.06344,-0.05368,-0.05856
-0.05856,0.05124,-0.04392,-0.01464,0.01464,-0.0366,0.0244,-0.02928,-0.03416,-0.06344,-0.0488,-0.0488
-0.05856,0.05124,-0.04392,-0.01464,0.01464,-0.0366,0.0244,-0.0244,-0.03416,-0.05856,-0.0488,-0.0488
-0.06832,0.05124,-0.03416,0,0.03416,-0.05124,0.0244,-0.03416,-0.04392,-0.06344,-0.05856,-0.05856
-0.06832,0.05124,-0.03416,0,0.03416,-0.05124,0.0244,-0.04392,-0.04392,-0.06344,-0.05856,-0.06832
-0.06832,0.04636,-0.0244,0.00976,0.04392,-0.05612,0.0244,-0.03904,-0.04392,-0.06832,-0.05856,-0.06832
-0.06832,0.04392,-0.01952,0.01464,0.0488,-0.05856,0.01952,-0.03904,-0.04392,-0.06832,-0.05368,-0.06832
-0.05856,0.03904,-0.01952,0.00976,0.03904,-0.0488,0.01952,-0.03904,-0.04392,-0.05856,-0.05368,-0.05368
-0.05856,0.05124,-0.04392,-0.01464,0.01464,-0.0366,0.01952,-0.03904,-0.04392,-0.06344,-0.06344,-0.06344
-0.05856,0.0488,-0.03904,-0.00976,0.01952,-0.03904,0.02928,-0.03904,-0.03904,-0.06832,-0.0488,-0.0488
-0.05856,0.04392,-0.02928,0,0.02928,-0.04392,0.01952,-0.02928,-0.0488,-0.06832,-0.0488,-0.05856
-0.05856,0.04392,-0.02928,0,0.02928,-0.04392,0.01952,-0.02928,-0.0488,-0.06832,-0.0488,-0.05856
-0.05856,0.03904,-0.01952,0.00976,0.03904,-0.0488,0.00976,-0.03904,-0.0488,-0.06832,-0.05856,-0.05856
-0.05856,0.03904,-0.01952,0.00976,0.03904,-0.0488,0.01464,-0.04392,-0.0488,-0.06832,-0.05856,-0.05856
-0.06344,0.05124,-0.03904,-0.00732,0.0244,-0.04392,0.01464,-0.04392,-0.0488,-0.0732,-0.0488,-0.0488
-0.06344,0.05612,-0.0488,-0.01708,0.01464,-0.03904,0.01464,-0.04392,-0.05368,-0.0732,-0.0488,-0.0488
-0.06832,0.05368,-0.03904,-0.00488,0.02928,-0.0488,0.00488,-0.0488,-0.05368,-0.08296,-0.05368,-0.05368
-0.06832,0.0488,-0.02928,0.00488,0.03904,-0.05368,0.00976,-0.0488,-0.05368,-0.08296,-0.05368,-0.05368
-0.06344,0.05368,-0.04392,-0.0122,0.01952,-0.04148,0.00976,-0.0488,-0.05368,-0.08296,-0.05368,-0.05368
-0.06344,0.05124,-0.03904,-0.00732,0.0244,-0.04392,0.00976,-0.0488,-0.05368,-0.08296,-0.05368,-0.0488
-0.06344,0.05124,-0.03904,-0.00732,0.0244,-0.04392,0.01952,-0.03904,-0.04392,-0.08296,-0.05856,-0.05368
-0.06344,0.04392,-0.0244,0.00732,0.03904,-0.05124,0.01952,-0.03904,-0.03904,-0.08296,-0.05856,-0.06344
-0.05856,0.03416,-0.00976,0.01952,0.0488,-0.05368,0.0244,-0.03416,-0.02928,-0.07808,-0.03904,-0.06344
-0.05856,0.02684,0.00488,0.03416,0.06344,-0.061,0.01952,-0.03416,-0.0244,-0.06832,-0.03904,-0.05368
-0.04392,0.01708,0.00976,0.03172,0.05368,-0.0488,0.01464,-0.03416,-0.01952,-0.06344,-0.04392,-0.04392
-0.03416,0.00976,0.01464,0.03172,0.0488,-0.04148,0.00488,-0.03904,-0.01952,-0.05856,-0.03904,-0.04392
-0.03416,0.00732,0.01952,0.0366,0.05368,-0.04392,0.00488,-0.0488,-0.00488,-0.0488,-0.03416,-0.03416
-0.02928,0.00244,0.0244,0.03904,0.05368,-0.04148,-0.01464,-0.05368,-0.00488,-0.0488,-0.03416,-0.02928
-0.01952,-0.00732,0.03416,0.04392,0.05368,-0.0366,-0.05368,-0.08296,-0.01952,-0.05856,-0.02928,-0.0244
-0.00976,-0.02928,0.06832,0.0732,0.07808,-0.04392,-0.0732,-0.10248,-0.01464,-0.04392,-0.01464,-0.00488
0.00488,-0.04636,0.08784,0.0854,0.08296,-0.03904,-0.09272,-0.0976,-0.01952,-0.03416,-0.00488,0.00976
0.00488,-0.03904,0.0732,0.07076,0.06832,-0.03172,-0.08784,-0.0976,-0.01952,-0.03904,-0.00976,0.00488
0.0244,-0.0488,0.0732,0.061,0.0488,-0.0122,-0.0976,-0.0976,-0.0244,-0.04392,-0.00488,-0.00488
0.04392,-0.061,0.07808,0.05612,0.03416,0.00488,-0.08784,-0.07808,-0.01464,-0.03904,0,0.00488
0.05368,-0.05856,0.06344,0.0366,0.00976,0.02196,-0.08784,-0.07808,-0.03416,-0.05856,-0.01464,-0.00488
0.06344,-0.06588,0.06832,0.0366,0.00488,0.02928,-0.08784,-0.0732,-0.03416,-0.05368,-0.00976,-0.00488
0.06344,-0.06588,0.06832,0.0366,0.00488,0.02928,-0.08296,-0.08296,-0.04392,-0.06344,-0.01952,0
0.0488,-0.04392,0.03904,0.01464,-0.00976,0.02928,-0.0732,-0.09272,-0.05856,-0.0732,-0.02928,-0.00488
0.02928,-0.03172,0.03416,0.01952,0.00488,0.0122,-0.06832,-0.08296,-0.06344,-0.07808,-0.0244,0.00488
0.01464,-0.02196,0.02928,0.02196,0.01464,0,-0.05368,-0.08296,-0.06832,-0.08296,-0.02928,-0.00976
-0.00488,-0.00244,0.00976,0.0122,0.01464,-0.00976,-0.04392,-0.08296,-0.06832,-0.08296,-0.04392,-0.01952
-0.0244,0.01708,-0.00976,0.00244,0.01464,-0.01952,-0.03416,-0.08296,-0.07808,-0.10736,-0.06344,-0.03904
-0.05368,0.0488,-0.04392,-0.01708,0.00976,-0.03172,-0.01464,-0.0732,-0.09272,-0.11712,-0.0732,-0.05856
-0.05856,0.05856,-0.05856,-0.02928,0,-0.02928,-0.00488,-0.06832,-0.09272,-0.11712,-0.08296,-0.06832
-0.0488,0.05856,-0.06832,-0.04392,-0.01952,-0.01464,-0.00488,-0.05856,-0.09272,-0.11712,-0.07808,-0.06832
-0.05368,0.06344,-0.0732,-0.04636,-0.01952,-0.01708,0,-0.0488,-0.09272,-0.10736,-0.07808,-0.0732
-0.0488,0.05612,-0.06344,-0.03904,-0.01464,-0.01708,0.00488,-0.05368,-0.09272,-0.11712,-0.08784,-0.08296
-0.05368,0.05856,-0.06344,-0.0366,-0.00976,-0.02196,0.00976,-0.05368,-0.09272,-0.11712,-0.09272,-0.08296
-0.06832,0.0732,-0.07808,-0.04392,-0.00976,-0.02928,0.00976,-0.05856,-0.08784,-0.12688,-0.09272,-0.08296
-0.07808,0.08052,-0.08296,-0.04392,-0.00488,-0.0366,0.00976,-0.05856,-0.08784,-0.12688,-0.09272,-0.08784
-0.07808,0.07808,-0.07808,-0.03904,0,-0.03904,0.01464,-0.05856,-0.0976,-0.12688,-0.09272,-0.08784
-0.08296,0.08052,-0.07808,-0.0366,0.00488,-0.04392,0.01952,-0.05856,-0.10248,-0.12688,-0.09272,-0.08784
-0.0732,0.07808,-0.08296,-0.04636,-0.00976,-0.03172,0.01952,-0.05856,-0.08784,-0.11712,-0.08296,-0.07808
-0.0732,0.07808,-0.08296,-0.04636,-0.00976,-0.03172,0.0244,-0.05368,-0.08296,-0.11224,-0.08296,-0.06832
-0.0732,0.07076,-0.06832,-0.03172,0.00488,-0.03904,0.0244,-0.0488,-0.08296,-0.11712,-0.09272,-0.06832
-0.09272,0.0854,-0.07808,-0.03172,0.01464,-0.05368,0.02928,-0.05856,-0.0732,-0.11224,-0.08296,-0.07808
-0.15128,0.08296,-0.01464,0.061,0.13664,-0.14396,0.03416,-0.08296,-0.03416,-0.0732,-0.06832,-0.07808
-0.15616,0.05856,0.03904,0.11712,0.1952,-0.17568,0.03416,-0.08784,0.03904,-0.00488,-0.00976,-0.05856
-0.14152,0.02196,0.0976,0.16836,0.23912,-0.19032,0.0244,-0.09272,0.15128,0.11224,0.10248,0.01952
-0.02928,-0.08296,0.1952,0.20984,0.22448,-0.12688,0.02928,0.08296,0.33184,0.34648,0.33184,0.20984
0.23424,-0.244,0.25376,0.13664,0.01952,0.10736,0.02928,0.36112,0.54168,0.5856,0.55632,0.39528
0.57584,-0.44164,0.30744,0.01952,-0.2684,0.42212,-0.01464,0.59048,0.79056,0.8784,0.83448,0.61
0.83936,-0.58804,0.33672,-0.08296,-0.50264,0.671,-0.14152,0.55144,0.83448,1.01504,1.0248,0.81984
1.05896,-0.75884,0.45872,-0.07076,-0.60024,0.8296,-0.27816,0.44408,0.854,1.1468,1.22488,1.06872
1.22488,-0.8418,0.45872,-0.15372,-0.76616,0.99552,-0.43432,0.31232,0.6344,0.98576,1.15168,1.13216
1.01992,-0.68564,0.35136,-0.1586,-0.66856,0.84424,-0.48312,0.01464,0.30256,0.53192,0.75152,0.8784
0.72712,-0.51728,0.30744,-0.05612,-0.41968,0.5734,-0.44408,-0.28304,0.00488,0.18544,0.41968,0.64904
0.32696,-0.24156,0.15616,-0.00732,-0.1708,0.24888,-0.3904,-0.61,-0.44408,-0.25376,0.02928,0.3172
-0.01464,-0.01952,0.05368,0.061,0.06832,-0.04148,-0.2684,-0.7076,-0.61488,-0.42456,-0.13664,0.14152
-0.09272,0.07564,-0.05856,-0.0122,0.03416,-0.06344,-0.16104,-0.5124,-0.53192,-0.41968,-0.21472,-0.02928
-0.13664,0.09516,-0.05368,0.01464,0.08296,-0.1098,-0.08296,-0.40016,-0.42456,-0.37088,-0.21472,-0.07808
-0.15128,0.1098,-0.06832,0.00732,0.08296,-0.11712,0,-0.24888,-0.28304,-0.26352,-0.1708,-0.0976
-0.10736,0.10004,-0.09272,-0.03904,0.01464,-0.061,0.04392,-0.0976,-0.1708,-0.17568,-0.13176,-0.08784
-0.08784,0.0732,-0.05856,-0.01464,0.02928,-0.05856,0.03416,-0.03904,-0.08784,-0.10736,-0.08784,-0.09272
-0.0732,0.07076,-0.06832,-0.03172,0.00488,-0.03904,0.03416,-0.04392,-0.08296,-0.10736,-0.08784,-0.08296
-0.07808,0.07808,-0.07808,-0.03904,0,-0.03904,0.05368,-0.01952,-0.05856,-0.0976,-0.08296,-0.08296
-0.07808,0.07564,-0.0732,-0.03416,0.00488,-0.04148,0.06344,0.00488,-0.04392,-0.09272,-0.0732,-0.0732
-0.07808,0.07564,-0.0732,-0.03416,0.00488,-0.04148,0.05368,0.00488,-0.03904,-0.09272,-0.06832,-0.0732
-0.0732,0.06588,-0.05856,-0.02196,0.01464,-0.04392,0.04392,0.00488,-0.03904,-0.09272,-0.06344,-0.0732
-0.0732,0.06588,-0.05856,-0.02196,0.01464,-0.04392,0.0488,0.00488,-0.03904,-0.09272,-0.06832,-0.0732
-0.08296,0.07564,-0.06832,-0.02684,0.01464,-0.0488,0.05856,0.01464,-0.03416,-0.08784,-0.07808,-0.07808
-0.08296,0.07564,-0.06832,-0.02684,0.01464,-0.0488,0.06344,0.01952,-0.02928,-0.08296,-0.0732,-0.0732
-0.07808,0.07564,-0.0732,-0.03416,0.00488,-0.04148,0.0488,0.01952,-0.0244,-0.07808,-0.06832,-0.08296
-0.07808,0.07564,-0.0732,-0.03416,0.00488,-0.04148,0.05368,0.01952,-0.01952,-0.07808,-0.06832,-0.07808
-0.0732,0.06832,-0.06344,-0.02684,0.00976,-0.04148,0.05856,0.0244,-0.02928,-0.08296,-0.06832,-0.07808
-0.0732,0.06588,-0.05856,-0.02196,0.01464,-0.04392,0.06344,0.02928,-0.0244,-0.07808,-0.06344,-0.07808
-0.06344,0.061,-0.05856,-0.02684,0.00488,-0.03416,0.06344,0.03904,-0.00976,-0.06344,-0.05856,-0.0732
-0.06344,0.061,-0.05856,-0.02684,0.00488,-0.03416,0.06344,0.0488,0.00488,-0.05368,-0.05368,-0.0732
-0.0732,0.06588,-0.05856,-0.02196,0.01464,-0.04392,0.05368,0.03904,-0.00488,-0.05856,-0.06832,-0.08296
-0.06832,0.061,-0.05368,-0.01952,0.01464,-0.04148,0.05368,0.03416,-0.00976,-0.06832,-0.06344,-0.08296
-0.05856,0.061,-0.06344,-0.03416,-0.00488,-0.02684,0.06344,0.0488,0.00976,-0.05856,-0.0488,-0.06832
-0.05368,0.05856,-0.06344,-0.0366,-0.00976,-0.02196,0.06344,0.0488,0.00976,-0.05368,-0.04392,-0.05368
-0.05368,0.05612,-0.05856,-0.03172,-0.00488,-0.0244,0.06344,0.05368,0.01464,-0.04392,-0.03416,-0.05368
-0.0488,0.05368,-0.05856,-0.03416,-0.00976,-0.01952,0.06344,0.05856,0.01464,-0.03904,-0.02928,-0.05368
-0.04392,0.04636,-0.0488,-0.02684,-0.00488,-0.01952,0.06344,0.06344,0.01464,-0.02928,-0.02928,-0.0488
-0.04392,0.04636,-0.0488,-0.02684,-0.00488,-0.01952,0.06832,0.06832,0.01952,-0.01952,-0.0244,-0.0488
-0.04392,0.0488,-0.05368,-0.03172,-0.00976,-0.01708,0.05856,0.06344,0.0244,-0.0244,-0.02928,-0.05368
-0.03904,0.04636,-0.05368,-0.03416,-0.01464,-0.0122,0.05856,0.06832,0.0244,-0.0244,-0.02928,-0.06344
-0.04392,0.04636,-0.0488,-0.02684,-0.00488,-0.01952,0.05856,0.07808,0.03416,-0.02928,-0.0244,-0.05368
-0.03904,0.04148,-0.04392,-0.0244,-0.00488,-0.01708,0.05856,0.08784,0.03416,-0.0244,-0.0244,-0.04392
-0.02928,0.0366,-0.04392,-0.02928,-0.01464,-0.00732,0.06832,0.0976,0.0488,-0.00976,-0.00976,-0.03416
-0.0244,0.03416,-0.04392,-0.03172,-0.01952,-0.00244,0.06832,0.10736,0.05368,-0.00488,-0.00488,-0.0244
-0.01952,0.03416,-0.0488,-0.03904,-0.02928,0.00488,0.06832,0.10248,0.05856,0,0.00976,-0.01952
-0.01464,0.03172,-0.0488,-0.04148,-0.03416,0.00976,0.06832,0.10736,0.06344,0.00488,0.01464,-0.01952
0,0.01708,-0.03416,-0.03416,-0.03416,0.01708,0.06832,0.11712,0.06832,0,0.00488,-0.02928
0,0.01464,-0.02928,-0.02928,-0.02928,0.01464,0.06832,0.12688,0.0732,0.00488,0.00976,-0.03416
0,0.01708,-0.03416,-0.03416,-0.03416,0.01708,0.06832,0.13176,0.07808,0.01464,0,-0.02928
0,0.01464,-0.02928,-0.02928,-0.02928,0.01464,0.0732,0.13664,0.07808,0.01952,0.00488,-0.02928
-0.00488,0.02196,-0.03904,-0.0366,-0.03416,0.01464,0.0732,0.1464,0.0732,0.0244,0.01952,-0.01952
0,0.02196,-0.04392,-0.04392,-0.04392,0.02196,0.0732,0.15128,0.0732,0.02928,0.01952,-0.01464
0.01464,0.0122,-0.03904,-0.04636,-0.05368,0.03416,0.0732,0.16104,0.08784,0.02928,0.01464,-0.00976
0.01464,0.0122,-0.03904,-0.04636,-0.05368,0.03416,0.0732,0.1708,0.08784,0.03416,0.01952,-0.00976
0.0244,0,-0.0244,-0.0366,-0.0488,0.0366,0.06344,0.17568,0.08784,0.03416,0.01952,-0.00976
0.0244,0,-0.0244,-0.0366,-0.0488,0.0366,0.06344,0.17568,0.08784,0.03416,0.01952,-0.00976
0.01952,0,-0.01952,-0.02928,-0.03904,0.02928,0.06344,0.17568,0.08784,0.03416,0.03416,-0.00488
0.02928,-0.00732,-0.01464,-0.02928,-0.04392,0.0366,0.06344,0.18056,0.08784,0.03416,0.03416,-0.00488
0.03904,-0.01708,-0.00488,-0.0244,-0.04392,0.04148,0.06344,0.18056,0.09272,0.04392,0.0244,-0.00488
0.04392,-0.01952,-0.00488,-0.02684,-0.0488,0.04636,0.06344,0.18544,0.08784,0.04392,0.0244,-0.00488
0.03416,-0.00976,-0.01464,-0.03172,-0.0488,0.04148,0.05856,0.1952,0.08296,0.02928,0.0244,-0.00488
0.03416,-0.00732,-0.01952,-0.0366,-0.05368,0.04392,0.05856,0.1952,0.0732,0.02928,0.01952,-0.00488
0.03416,-0.0122,-0.00976,-0.02684,-0.04392,0.03904,0.05856,0.18544,0.06832,0.0244,0.02928,-0.00488
0.03904,-0.01708,-0.00488,-0.0244,-0.04392,0.04148,0.05856,0.18544,0.06832,0.0244,0.02928,-0.00488
0.0488,-0.02684,0.00488,-0.01952,-0.04392,0.04636,0.05368,0.18056,0.06344,0.02928,0.03904,-0.00488
0.05856,-0.02928,0,-0.02928,-0.05856,0.05856,0.0488,0.1708,0.06344,0.0244,0.03904,-0.00488
0.04392,-0.02196,0,-0.02196,-0.04392,0.04392,0.0488,0.16592,0.05368,0.0244,0.02928,-0.00488
0.03904,-0.01464,-0.00976,-0.02928,-0.0488,0.04392,0.04392,0.16104,0.05368,0.0244,0.02928,0
0.03904,-0.0122,-0.01464,-0.03416,-0.05368,0.04636,0.04392,0.16592,0.04392,0.0244,0.02928,0
0.03904,-0.01464,-0.00976,-0.02928,-0.0488,0.04392,0.04392,0.15616,0.04392,0.01952,0.02928,0
0.02928,-0.00732,-0.01464,-0.02928,-0.04392,0.0366,0.03416,0.13664,0.03416,0.00976,0.01464,-0.00976
0.02928,-0.00732,-0.01464,-0.02928,-0.04392,0.0366,0.03904,0.11224,0.02928,0.00976,0.01464,-0.00976
0.0244,-0.00976,-0.00488,-0.01708,-0.02928,0.02684,0.02928,0.10248,0.0244,0.00488,0.00976,-0.00976
0.01952,-0.00732,-0.00488,-0.01464,-0.0244,0.02196,0.0244,0.09272,0.0244,0,0.00488,-0.01464
0.01464,0,-0.01464,-0.02196,-0.02928,0.02196,0.0244,0.06832,0.0244,-0.01952,0.00488,-0.01464
0.00976,0.00244,-0.01464,-0.01952,-0.0244,0.01708,0.01952,0.05368,0.01464,-0.01952,0.00976,-0.00976
-0.00976,0.01952,-0.02928,-0.0244,-0.01952,0.00488,0.02928,0.0488,0.00976,-0.01952,-0.00488,-0.00488
-0.01952,0.02928,-0.03904,-0.02928,-0.01952,0,0.02928,0.0244,0,-0.02928,-0.01464,-0.00488
-0.01952,0.02684,-0.03416,-0.0244,-0.01464,-0.00244,0.0244,0.01952,-0.00488,-0.02928,-0.01464,-0.0244
-0.0244,0.02928,-0.03416,-0.02196,-0.00976,-0.00732,0.0244,0.00976,-0.00488,-0.03416,-0.01952,-0.0244
-0.04392,0.03904,-0.03416,-0.0122,0.00976,-0.02684,0.0244,-0.00976,-0.01952,-0.05368,-0.04392,-0.04392
-0.0488,0.04148,-0.03416,-0.00976,0.01464,-0.03172,0.0244,-0.0244,-0.02928,-0.05856,-0.05368,-0.05856
-0.05368,0.0488,-0.04392,-0.01708,0.00976,-0.03172,0.01464,-0.0244,-0.03416,-0.06832,-0.0488,-0.0488
-0.05856,0.05612,-0.05368,-0.0244,0.00488,-0.03172,0.01464,-0.02928,-0.03416,-0.06832,-0.0488,-0.0488
-0.05368,0.05368,-0.05368,-0.02684,0,-0.02684,0.0244,-0.02928,-0.03904,-0.06832,-0.05368,-0.05368
-0.05856,0.05856,-0.05856,-0.02928,0,-0.02928,0.0244,-0.03416,-0.03904,-0.06832,-0.05856,-0.05368
-0.06832,0.06344,-0.05856,-0.0244,0.00976,-0.03904,0.0244,-0.0488,-0.0488,-0.08784,-0.06832,-0.06344
-0.06832,0.06344,-0.05856,-0.0244,0.00976,-0.03904,0.0244,-0.0488,-0.05368,-0.08784,-0.0732,-0.06832
-0.06832,0.06588,-0.06344,-0.02928,0.00488,-0.0366,0.0244,-0.0488,-0.05368,-0.08784,-0.0732,-0.07808
-0.0732,0.06588,-0.05856,-0.02196,0.01464,-0.04392,0.0244,-0.0488,-0.05368,-0.08784,-0.07808,-0.08296
-0.0732,0.06588,-0.05856,-0.02196,0.01464,-0.04392,0.02928,-0.0488,-0.0488,-0.09272,-0.07808,-0.08296
-0.07808,0.07076,-0.06344,-0.0244,0.01464,-0.04636,0.02928,-0.0488,-0.0488,-0.09272,-0.07808,-0.08296
-0.08784,0.07564,-0.06344,-0.01952,0.0244,-0.05612,0.02928,-0.0488,-0.0488,-0.09272,-0.0732,-0.0732
-0.08784,0.07564,-0.06344,-0.01952,0.0244,-0.05612,0.02928,-0.0488,-0.0488,-0.09272,-0.0732,-0.0732
-0.08784,0.08052,-0.0732,-0.02928,0.01464,-0.05124,0.02928,-0.0488,-0.0488,-0.09272,-0.07808,-0.0732
-0.08784,0.08296,-0.07808,-0.03416,0.00976,-0.0488,0.02928,-0.04392,-0.04392,-0.08784,-0.07808,-0.07808
-0.08296,0.07564,-0.06832,-0.02684,0.01464,-0.0488,0.0244,-0.04392,-0.05368,-0.08784,-0.08296,-0.07808
-0.0732,0.06832,-0.06344,-0.02684,0.00976,-0.04148,0.0244,-0.04392,-0.05368,-0.08784,-0.08296,-0.07808
-0.08296,0.0732,-0.06344,-0.02196,0.01952,-0.05124,0.03416,-0.04392,-0.03904,-0.08784,-0.08296,-0.07808
-0.08296,0.0732,-0.06344,-0.02196,0.01952,-0.05124,0.03416,-0.04392,-0.03904,-0.08296,-0.08296,-0.07808
-0.08296,0.0732,-0.06344,-0.02196,0.01952,-0.05124,0.0244,-0.03904,-0.03904,-0.07808,-0.07808,-0.09272
-0.08296,0.07076,-0.05856,-0.01708,0.0244,-0.05368,0.0244,-0.04392,-0.03904,-0.07808,-0.08296,-0.08784
-0.07808,0.06588,-0.05368,-0.01464,0.0244,-0.05124,0.03416,-0.03904,-0.03904,-0.08296,-0.08296,-0.08784
-0.07808,0.06588,-0.05368,-0.01464,0.0244,-0.05124,0.03416,-0.03904,-0.03416,-0.08296,-0.08296,-0.08784
-0.06832,0.06588,-0.06344,-0.02928,0.00488,-0.0366,0.03416,-0.03416,-0.03416,-0.07808,-0.07808,-0.07808
-0.06832,0.06588,-0.06344,-0.02928,0.00488,-0.0366,0.03416,-0.03416,-0.03416,-0.07808,-0.07808,-0.0732
-0.07808,0.06588,-0.05368,-0.01464,0.0244,-0.05124,0.03416,-0.04392,-0.03416,-0.08296,-0.07808,-0.08296
-0.07808,0.06588,-0.05368,-0.01464,0.0244,-0.05124,0.03416,-0.03904,-0.03416,-0.07808,-0.07808,-0.08784
-0.08784,0.0732,-0.05856,-0.01464,0.02928,-0.05856,0.01952,-0.02928,-0.04392,-0.07808,-0.07808,-0.08784
-0.08784,0.0732,-0.05856,-0.01464,0.02928,-0.05856,0.01952,-0.02928,-0.04392,-0.07808,-0.0732,-0.08296
-0.07808,0.0732,-0.06832,-0.02928,0.00976,-0.04392,0.01952,-0.03904,-0.03416,-0.07808,-0.06344,-0.08296
-0.0732,0.06832,-0.06344,-0.02684,0.00976,-0.04148,0.01952,-0.03904,-0.03416,-0.0732,-0.06344,-0.07808
-0.0732,0.061,-0.0488,-0.0122,0.0244,-0.0488,0.01952,-0.03904,-0.03416,-0.05856,-0.06344,-0.06832
-0.06832,0.06344,-0.05856,-0.0244,0.00976,-0.03904,0.02928,-0.03904,-0.02928,-0.05856,-0.05856,-0.06832
-0.06832,0.05856,-0.0488,-0.01464,0.01952,-0.04392,0.01952,-0.03904,-0.03904,-0.06832,-0.06832,-0.07808
-0.06832,0.05856,-0.0488,-0.01464,0.01952,-0.04392,0.01952,-0.03904,-0.03904,-0.06832,-0.06832,-0.07808
-0.07808,0.06344,-0.0488,-0.00976,0.02928,-0.05368,0.01952,-0.03904,-0.0488,-0.07808,-0.07808,-0.07808
-0.07808,0.06344,-0.0488,-0.00976,0.02928,-0.05368,0.0244,-0.04392,-0.0488,-0.07808,-0.07808,-0.07808
-0.0732,0.06588,-0.05856,-0.02196,0.01464,-0.04392,0.0244,-0.04392,-0.03904,-0.08296,-0.07808,-0.06832
-0.0732,0.06588,-0.05856,-0.02196,0.01464,-0.04392,0.0244,-0.04392,-0.04392,-0.08296,-0.07808,-0.06832
-0.06832,0.06832,-0.06832,-0.03416,0,-0.03416,0.01464,-0.0488,-0.05368,-0.09272,-0.08296,-0.08296
-0.06832,0.06832,-0.06832,-0.03416,0,-0.03416,0.01952,-0.0488,-0.05368,-0.09272,-0.08296,-0.08296
-0.08296,0.0732,-0.06344,-0.02196,0.01952,-0.05124,0.00976,-0.0488,-0.04392,-0.08296,-0.0732,-0.0732
-0.08296,0.07076,-0.05856,-0.01708,0.0244,-0.05368,0.00976,-0.0488,-0.04392,-0.08296,-0.0732,-0.06832
-0.0732,0.06588,-0.05856,-0.02196,0.01464,-0.04392,0.01952,-0.0488,-0.04392,-0.0732,-0.06832,-0.06344
-0.06344,0.05368,-0.04392,-0.0122,0.01952,-0.04148,0.01952,-0.0488,-0.03904,-0.0732,-0.06832,-0.06344
-0.06832,0.05368,-0.03904,-0.00488,0.02928,-0.0488,0.0244,-0.04392,-0.03904,-0.07808,-0.06832,-0.0732
-0.07808,0.05124,-0.0244,0.01464,0.05368,-0.06588,0.01952,-0.04392,-0.03416,-0.06832,-0.06832,-0.06344
-0.08296,0.05124,-0.01952,0.02196,0.06344,-0.0732,0.0244,-0.05368,-0.02928,-0.0732,-0.06344,-0.06344
-0.0732,0.04392,-0.01464,0.02196,0.05856,-0.06588,0.01464,-0.05856,-0.02928,-0.06832,-0.05856,-0.06344
-0.06344,0.0366,-0.00976,0.02196,0.05368,-0.05856,0.00488,-0.05856,-0.0244,-0.05856,-0.04392,-0.05368
-0.0488,0.02684,-0.00488,0.01952,0.04392,-0.04636,-0.01464,-0.06344,-0.0244,-0.05856,-0.04392,-0.0488
-0.03904,0.01708,0.00488,0.0244,0.04392,-0.04148,-0.03416,-0.08296,-0.01952,-0.05856,-0.03904,-0.04392
-0.02928,-0.00488,0.03904,0.05368,0.06832,-0.0488,-0.05368,-0.10248,-0.01464,-0.04392,-0.0244,-0.0244
-0.01464,-0.02196,0.05856,0.06588,0.0732,-0.04392,-0.0732,-0.10736,-0.01952,-0.03416,-0.01464,-0.01952
-0.0244,-0.01464,0.05368,0.06588,0.07808,-0.05124,-0.06832,-0.10736,-0.01952,-0.03904,-0.01952,-0.0244
-0.01464,-0.01464,0.04392,0.05124,0.05856,-0.0366,-0.08784,-0.10736,-0.03416,-0.05368,-0.0244,-0.0244
0.00488,-0.02684,0.0488,0.04636,0.04392,-0.01952,-0.07808,-0.08784,-0.0244,-0.0488,-0.01952,-0.01464
0.0244,-0.03416,0.04392,0.03172,0.01952,0.00244,-0.07808,-0.08784,-0.03416,-0.0488,-0.0244,-0.00488
0.03416,-0.04148,0.0488,0.03172,0.01464,0.00976,-0.07808,-0.08296,-0.03416,-0.03416,-0.01952,-0.00488
0.04392,-0.04148,0.03904,0.01708,-0.00488,0.0244,-0.06344,-0.08296,-0.03416,-0.04392,-0.01952,0
0.02928,-0.01952,0.00976,-0.00488,-0.01952,0.0244,-0.05368,-0.08296,-0.0488,-0.05368,-0.02928,-0.00488
0.01952,-0.0122,0.00488,-0.00488,-0.01464,0.01708,-0.05856,-0.08296,-0.05368,-0.05856,-0.03416,-0.00488
0.00488,-0.00244,0,-0.00244,-0.00488,0.00488,-0.04392,-0.08296,-0.05856,-0.06344,-0.03904,-0.01952
-0.01464,0.00732,0,0.00732,0.01464,-0.01464,-0.04392,-0.08296,-0.05856,-0.0732,-0.04392,-0.02928
-0.03416,0.02196,-0.00976,0.00732,0.0244,-0.02928,-0.03416,-0.08296,-0.06832,-0.0976,-0.06344,-0.0488
-0.06344,0.05856,-0.05368,-0.02196,0.00976,-0.0366,-0.0244,-0.0732,-0.08296,-0.10736,-0.08296,-0.05856
-0.06832,0.0732,-0.07808,-0.04392,-0.00976,-0.02928,-0.01464,-0.06832,-0.08296,-0.10736,-0.09272,-0.06832
-0.06832,0.0732,-0.07808,-0.04392,-0.00976,-0.02928,-0.00488,-0.06832,-0.09272,-0.10736,-0.08784,-0.07808
-0.0732,0.07808,-0.08296,-0.04636,-0.00976,-0.03172,0.00976,-0.06832,-0.09272,-0.10736,-0.08784,-0.08296
-0.06832,0.07564,-0.08296,-0.0488,-0.01464,-0.02684,0.00488,-0.06344,-0.08296,-0.0976,-0.08784,-0.08296
-0.06344,0.0732,-0.08296,-0.05124,-0.01952,-0.02196,0.00976,-0.06344,-0.08296,-0.0976,-0.09272,-0.08296
-0.07808,0.08784,-0.0976,-0.05856,-0.01952,-0.02928,0.00976,-0.06832,-0.08784,-0.10736,-0.09272,-0.09272
-0.07808,0.09028,-0.10248,-0.06344,-0.0244,-0.02684,0.00976,-0.06832,-0.08784,-0.10736,-0.09272,-0.0976
-0.08784,0.0976,-0.10736,-0.06344,-0.01952,-0.03416,0.01464,-0.05856,-0.08784,-0.10736,-0.10248,-0.0976
-0.09272,0.10004,-0.10736,-0.061,-0.01464,-0.03904,0.01952,-0.0488,-0.09272,-0.10736,-0.10248,-0.0976
-0.09272,0.09272,-0.09272,-0.04636,0,-0.04636,0.01952,-0.05856,-0.08784,-0.11712,-0.11224,-0.10736
-0.09272,0.09272,-0.09272,-0.04636,0,-0.04636,0.0244,-0.05368,-0.08296,-0.11224,-0.11224,-0.10736
-0.09272,0.09516,-0.0976,-0.05124,-0.00488,-0.04392,0.0244,-0.05856,-0.0732,-0.11712,-0.11224,-0.10736
-0.11224,0.09028,-0.06832,-0.0122,0.04392,-0.07808,0.02928,-0.06832,-0.06344,-0.09272,-0.09272,-0.0976
-0.13176,0.07808,-0.0244,0.04148,0.10736,-0.11956,0.03416,-0.08296,-0.0244,-0.06344,-0.06832,-0.08784
-0.1464,0.05856,0.02928,0.10248,0.17568,-0.16104,0.03416,-0.07808,0.05856,0.00488,-0.01952,-0.06832
-0.14152,0.02684,0.08784,0.1586,0.22936,-0.18544,0.03416,-0.0732,0.15128,0.13176,0.10248,0.00976
-0.01952,-0.08296,0.18544,0.1952,0.20496,-0.11224,0.01952,0.05368,0.3416,0.38552,0.33184,0.20008
0.21472,-0.22936,0.244,0.13664,0.02928,0.09272,0.01952,0.32208,0.59048,0.67344,0.60512,0.43432
0.51728,-0.41236,0.30744,0.0488,-0.20984,0.36356,-0.0244,0.5124,0.88816,0.98576,0.91256,0.67832
0.7808,-0.56364,0.34648,-0.04392,-0.43432,0.60756,-0.14152,0.48312,0.93208,1.15168,1.1224,0.8784
0.99064,-0.7198,0.44896,-0.04636,-0.54168,0.76616,-0.2684,0.42456,0.94184,1.30296,1.35176,1.1468
1.18584,-0.8418,0.49776,-0.09516,-0.68808,0.93696,-0.40504,0.3416,0.77104,1.18096,1.33712,1.27856
1.02968,-0.7198,0.40992,-0.10492,-0.61976,0.82472,-0.45384,0.08296,0.40016,0.68808,0.90768,1.04432
0.7076,-0.50264,0.29768,-0.05612,-0.40992,0.55876,-0.43432,-0.1952,0.04392,0.28304,0.5368,0.76616
0.38552,-0.27572,0.16592,-0.02684,-0.2196,0.30256,-0.40016,-0.50264,-0.43432,-0.1952,0.0976,0.4148
0.01464,-0.04392,0.0732,0.06588,0.05856,-0.02196,-0.30744,-0.66856,-0.66368,-0.42456,-0.13664,0.18056
-0.09272,0.06588,-0.03904,0.00732,0.05368,-0.0732,-0.16104,-0.45384,-0.55144,-0.40992,-0.21472,0
-0.1464,0.10492,-0.06344,0.00976,0.08296,-0.11468,-0.10248,-0.38064,-0.43432,-0.35136,-0.20496,-0.05856
-0.11224,0.08052,-0.0488,0.00732,0.06344,-0.08784,-0.02928,-0.2196,-0.26352,-0.23424,-0.15128,-0.06832
-0.08784,0.08052,-0.0732,-0.02928,0.01464,-0.05124,0.04392,-0.07808,-0.16104,-0.15616,-0.11224,-0.06832
-0.07808,0.07808,-0.07808,-0.03904,0,-0.03904,0.03416,-0.03904,-0.06832,-0.08784,-0.07808,-0.06344
-0.0732,0.08052,-0.08784,-0.05124,-0.01464,-0.02928,0.04392,-0.04392,-0.06344,-0.08784,-0.07808,-0.0732
-0.07808,0.08784,-0.0976,-0.05856,-0.01952,-0.02928,0.06344,-0.01952,-0.03904,-0.07808,-0.0732,-0.0732
-0.0976,0.09028,-0.08296,-0.03416,0.01464,-0.05612,0.05368,-0.01464,-0.04392,-0.0732,-0.08296,-0.08296
-0.0976,0.09028,-0.08296,-0.03416,0.01464,-0.05612,0.04392,-0.01464,-0.03904,-0.0732,-0.07808,-0.08296
-0.09272,0.0854,-0.07808,-0.03172,0.01464,-0.05368,0.04392,-0.01464,-0.03904,-0.08296,-0.0732,-0.0732
-0.09272,0.0854,-0.07808,-0.03172,0.01464,-0.05368,0.0488,-0.01464,-0.03904,-0.08296,-0.07808,-0.0732
-0.09272,0.0854,-0.07808,-0.03172,0.01464,-0.05368,0.05856,0.00488,-0.0244,-0.06832,-0.06832,-0.06832
-0.09272,0.0854,-0.07808,-0.03172,0.01464,-0.05368,0.06344,0.00976,-0.01952,-0.05368,-0.06344,-0.06344
-0.07808,0.07564,-0.0732,-0.03416,0.00488,-0.04148,0.0488,0.00976,-0.01464,-0.0488,-0.05856,-0.0732
-0.06832,0.07076,-0.0732,-0.03904,-0.00488,-0.03172,0.05368,0.00976,-0.00976,-0.0488,-0.05856,-0.06832
-0.0732,0.0732,-0.0732,-0.0366,0,-0.0366,0.0488,0.01464,-0.00976,-0.04392,-0.05856,-0.07808
-0.08296,0.07564,-0.06832,-0.02684,0.01464,-0.0488,0.05368,0.01952,-0.00488,-0.03904,-0.05368,-0.07808
-0.08296,0.07076,-0.05856,-0.01708,0.0244,-0.05368,0.05368,0.00976,0,-0.03416,-0.05856,-0.0732
-0.08296,0.07076,-0.05856,-0.01708,0.0244,-0.05368,0.05368,0.01952,0.00488,-0.03416,-0.05368,-0.0732
-0.08296,0.07564,-0.06832,-0.02684,0.01464,-0.0488,0.05368,0.01952,0.00488,-0.02928,-0.0488,-0.0732
-0.07808,0.07076,-0.06344,-0.0244,0.01464,-0.04636,0.05368,0.0244,0.00976,-0.02928,-0.04392,-0.0732
-0.06832,0.061,-0.05368,-0.01952,0.01464,-0.04148,0.05368,0.02928,0.00976,-0.02928,-0.0488,-0.07808
-0.06344,0.05856,-0.05368,-0.02196,0.00976,-0.0366,0.05368,0.02928,0.00976,-0.0244,-0.04392,-0.0732
-0.0732,0.06588,-0.05856,-0.02196,0.01464,-0.04392,0.05368,0.04392,0.0244,-0.01464,-0.04392,-0.06344
-0.06832,0.06832,-0.06832,-0.03416,0,-0.03416,0.05368,0.0488,0.0244,-0.00976,-0.03904,-0.06344
-0.06344,0.061,-0.05856,-0.02684,0.00488,-0.03416,0.05368,0.04392,0.03416,0,-0.03904,-0.05856
-0.06344,0.05612,-0.0488,-0.01708,0.01464,-0.03904,0.05856,0.0488,0.03904,0.00976,-0.03416,-0.05856
-0.05368,0.05368,-0.05368,-0.02684,0,-0.02684,0.05856,0.05368,0.04392,0.01464,-0.01952,-0.04392
-0.0488,0.05124,-0.05368,-0.02928,-0.00488,-0.02196,0.05856,0.05856,0.04392,0.01464,-0.01952,-0.04392
-0.04392,0.04636,-0.0488,-0.02684,-0.00488,-0.01952,0.06832,0.05856,0.05368,0.01952,-0.01464,-0.04392
-0.03904,0.04148,-0.04392,-0.0244,-0.00488,-0.01708,0.06832,0.06832,0.05368,0.0244,-0.01464,-0.03416
-0.03904,0.04148,-0.04392,-0.0244,-0.00488,-0.01708,0.06832,0.06832,0.06832,0.03904,-0.00976,-0.03416
-0.03416,0.03904,-0.04392,-0.02684,-0.00976,-0.0122,0.06832,0.07808,0.0732,0.04392,-0.00488,-0.03416
-0.03904,0.04392,-0.0488,-0.02928,-0.00976,-0.01464,0.05856,0.08296,0.07808,0.0488,0,-0.02928
-0.03416,0.04148,-0.0488,-0.03172,-0.01464,-0.00976,0.05856,0.08784,0.08296,0.05368,0.00488,-0.02928
-0.02928,0.0366,-0.04392,-0.02928,-0.01464,-0.00732,0.06832,0.0976,0.07808,0.0488,-0.00488,-0.03904
-0.02928,0.03904,-0.0488,-0.03416,-0.01952,-0.00488,0.06832,0.10736,0.08296,0.05368,0,-0.03416
-0.01952,0.03172,-0.04392,-0.03416,-0.0244,0.00244,0.06832,0.11224,0.08784,0.05368,0,-0.02928
-0.01952,0.02928,-0.03904,-0.02928,-0.01952,0,0.0732,0.11712,0.08784,0.05856,0.00488,-0.02928
-0.01464,0.02684,-0.03904,-0.03172,-0.0244,0.00488,0.06344,0.11712,0.09272,0.06344,0.01952,-0.02928
-0.00976,0.02684,-0.04392,-0.03904,-0.03416,0.0122,0.06344,0.122,0.09272,0.06832,0.01952,-0.0244
-0.00488,0.01708,-0.02928,-0.02684,-0.0244,0.00976,0.0732,0.14152,0.10736,0.07808,0.0244,-0.00976
-0.00488,0.01708,-0.02928,-0.02684,-0.0244,0.00976,0.0732,0.15128,0.10736,0.08296,0.02928,-0.00976
-0.00488,0.01952,-0.03416,-0.03172,-0.02928,0.0122,0.0732,0.15616,0.10736,0.08296,0.01952,-0.00976
-0.00488,0.01952,-0.03416,-0.03172,-0.02928,0.0122,0.0732,0.15616,0.10736,0.08296,0.01952,-0.00976
0.00976,0.00976,-0.02928,-0.03416,-0.03904,0.0244,0.08296,0.16592,0.10736,0.08296,0.03416,-0.00488
0.01952,0.00244,-0.0244,-0.03416,-0.04392,0.03172,0.08296,0.1708,0.10736,0.08296,0.03416,-0.00488
0.01952,0.00244,-0.0244,-0.03416,-0.04392,0.03172,0.0732,0.16104,0.10248,0.08296,0.03416,-0.00488
0.0244,0,-0.0244,-0.0366,-0.0488,0.0366,0.06344,0.16592,0.0976,0.08296,0.03416,-0.00488
0.03416,-0.00976,-0.01464,-0.03172,-0.0488,0.04148,0.06832,0.17568,0.10248,0.07808,0.03416,-0.01464
0.03416,-0.0122,-0.00976,-0.02684,-0.04392,0.03904,0.06832,0.17568,0.09272,0.07808,0.02928,-0.01464
0.0244,-0.00244,-0.01952,-0.03172,-0.04392,0.03416,0.06832,0.17568,0.08784,0.06344,0.02928,-0.00488
0.02928,-0.00732,-0.01464,-0.02928,-0.04392,0.0366,0.06832,0.17568,0.08784,0.06344,0.02928,-0.00488
0.01952,0.00244,-0.0244,-0.03416,-0.04392,0.03172,0.06344,0.16104,0.08296,0.06832,0.02928,-0.01464
0.01952,0.00488,-0.02928,-0.03904,-0.0488,0.03416,0.05856,0.15128,0.08296,0.06344,0.02928,-0.01464
0.0244,-0.00732,-0.00976,-0.02196,-0.03416,0.02928,0.05856,0.1464,0.0732,0.06344,0.02928,-0.00488
0.02928,-0.00976,-0.00976,-0.0244,-0.03904,0.03416,0.05368,0.14152,0.0732,0.06344,0.02928,0
0.02928,-0.00732,-0.01464,-0.02928,-0.04392,0.0366,0.04392,0.1464,0.0732,0.06344,0.03904,0
0.02928,-0.00976,-0.00976,-0.0244,-0.03904,0.03416,0.04392,0.13664,0.0732,0.05856,0.03904,0
0.01952,-0.00244,-0.01464,-0.0244,-0.03416,0.02684,0.03416,0.11712,0.05368,0.0488,0.0244,0
0.01952,-0.00244,-0.01464,-0.0244,-0.03416,0.02684,0.03904,0.09272,0.0488,0.0488,0.0244,0
0.01464,0,-0.01464,-0.02196,-0.02928,0.02196,0.02928,0.09272,0.04392,0.04392,0.01952,0
0.00976,0.00244,-0.01464,-0.01952,-0.0244,0.01708,0.0244,0.08296,0.04392,0.03904,0.01464,-0.00488
0.00488,0.00976,-0.0244,-0.02684,-0.02928,0.01708,0.03416,0.05856,0.0244,0.02928,0.01464,-0.01464
0,0.0122,-0.0244,-0.0244,-0.0244,0.0122,0.02928,0.04392,0.01464,0.02928,0.00976,-0.01952
-0.01952,0.02928,-0.03904,-0.02928,-0.01952,0,0.01952,0.02928,0.00976,0.00976,-0.00488,-0.03416
-0.02928,0.03416,-0.03904,-0.0244,-0.00976,-0.00976,0.01952,0.00488,0,0,-0.01464,-0.03416
-0.03904,0.0366,-0.03416,-0.01464,0.00488,-0.02196,0.01464,0,-0.01464,-0.00976,-0.0244,-0.04392
-0.04392,0.03904,-0.03416,-0.0122,0.00976,-0.02684,0.01464,-0.00976,-0.01464,-0.01464,-0.02928,-0.04392
-0.04392,0.04392,-0.04392,-0.02196,0,-0.02196,0.01464,-0.00976,-0.01952,-0.0244,-0.03416,-0.04392
-0.0488,0.04636,-0.04392,-0.01952,0.00488,-0.02684,0.01464,-0.0244,-0.02928,-0.02928,-0.04392,-0.0488
-0.05368,0.05368,-0.05368,-0.02684,0,-0.02684,0.01464,-0.03416,-0.03416,-0.02928,-0.03904,-0.0488
-0.05856,0.061,-0.06344,-0.03416,-0.00488,-0.02684,0.01464,-0.03904,-0.03416,-0.02928,-0.03904,-0.0488
-0.05368,0.05856,-0.06344,-0.0366,-0.00976,-0.02196,0.00488,-0.0488,-0.0488,-0.0488,-0.05368,-0.06344
-0.05856,0.06344,-0.06832,-0.03904,-0.00976,-0.0244,0.00488,-0.05368,-0.0488,-0.05856,-0.06832,-0.06344
-0.06832,0.06344,-0.05856,-0.0244,0.00976,-0.03904,0.01464,-0.0488,-0.0488,-0.05856,-0.06832,-0.0732
-0.06832,0.06344,-0.05856,-0.0244,0.00976,-0.03904,0.01464,-0.0488,-0.05368,-0.05856,-0.0732,-0.07808
-0.06832,0.06588,-0.06344,-0.02928,0.00488,-0.0366,0.0244,-0.0488,-0.05368,-0.05856,-0.0732,-0.06832
-0.0732,0.06588,-0.05856,-0.02196,0.01464,-0.04392,0.0244,-0.0488,-0.05368,-0.05856,-0.07808,-0.0732
-0.08296,0.07076,-0.05856,-0.01708,0.0244,-0.05368,0.01952,-0.05856,-0.05856,-0.06344,-0.07808,-0.06344
-0.08784,0.07564,-0.06344,-0.01952,0.0244,-0.05612,0.01952,-0.05856,-0.05856,-0.06344,-0.07808,-0.06344
-0.07808,0.07076,-0.06344,-0.0244,0.01464,-0.04636,0.00976,-0.05856,-0.05856,-0.0732,-0.08296,-0.0732
-0.07808,0.07076,-0.06344,-0.0244,0.01464,-0.04636,0.00976,-0.05856,-0.05856,-0.0732,-0.08296,-0.0732
-0.07808,0.06588,-0.05368,-0.01464,0.0244,-0.05124,0.01952,-0.05856,-0.05856,-0.06344,-0.08784,-0.0732
-0.07808,0.06344,-0.0488,-0.00976,0.02928,-0.05368,0.01952,-0.05368,-0.05368,-0.05856,-0.08784,-0.07808
-0.0732,0.061,-0.0488,-0.0122,0.0244,-0.0488,0.0244,-0.05368,-0.05368,-0.06832,-0.09272,-0.07808
-0.0732,0.06344,-0.05368,-0.01708,0.01952,-0.04636,0.0244,-0.05368,-0.05368,-0.06832,-0.09272,-0.07808
-0.08296,0.06832,-0.05368,-0.0122,0.02928,-0.05612,0.0244,-0.04392,-0.05856,-0.06832,-0.09272,-0.07808
-0.08296,0.06832,-0.05368,-0.0122,0.02928,-0.05612,0.0244,-0.04392,-0.05856,-0.06344,-0.09272,-0.07808
-0.08296,0.0732,-0.06344,-0.02196,0.01952,-0.05124,0.01464,-0.03904,-0.0488,-0.06832,-0.07808,-0.08296
-0.08296,0.07076,-0.05856,-0.01708,0.0244,-0.05368,0.01464,-0.04392,-0.0488,-0.06832,-0.08296,-0.07808
-0.06832,0.061,-0.05368,-0.01952,0.01464,-0.04148,0.01464,-0.0488,-0.0488,-0.06344,-0.08296,-0.07808
-0.06832,0.061,-0.05368,-0.01952,0.01464,-0.04148,0.01464,-0.0488,-0.04392,-0.06344,-0.08296,-0.07808
-0.07808,0.07076,-0.06344,-0.0244,0.01464,-0.04636,0.01464,-0.04392,-0.04392,-0.05856,-0.07808,-0.08784
-0.07808,0.07076,-0.06344,-0.0244,0.01464,-0.04636,0.01464,-0.04392,-0.04392,-0.05856,-0.07808,-0.08296
-0.07808,0.06588,-0.05368,-0.01464,0.0244,-0.05124,0.01464,-0.04392,-0.04392,-0.05368,-0.08784,-0.08296
-0.07808,0.06588,-0.05368,-0.01464,0.0244,-0.05124,0.01464,-0.03904,-0.04392,-0.0488,-0.08784,-0.08784
-0.06832,0.05856,-0.0488,-0.01464,0.01952,-0.04392,0.01952,-0.03904,-0.04392,-0.0488,-0.07808,-0.07808
-0.06832,0.05856,-0.0488,-0.01464,0.01952,-0.04392,0.01952,-0.03904,-0.04392,-0.0488,-0.0732,-0.06344
-0.07808,0.06832,-0.05856,-0.01952,0.01952,-0.0488,0.01952,-0.03904,-0.04392,-0.0488,-0.08296,-0.0732
-0.0732,0.06344,-0.05368,-0.01708,0.01952,-0.04636,0.01952,-0.03904,-0.04392,-0.04392,-0.08296,-0.06832
-0.0732,0.07076,-0.06832,-0.03172,0.00488,-0.03904,0.01952,-0.03904,-0.03416,-0.0488,-0.0732,-0.06832
-0.06832,0.05856,-0.0488,-0.01464,0.01952,-0.04392,0.00976,-0.03904,-0.0488,-0.05856,-0.07808,-0.07808
-0.06832,0.05856,-0.0488,-0.01464,0.01952,-0.04392,0.00976,-0.03904,-0.0488,-0.05856,-0.07808,-0.07808
-0.06832,0.05856,-0.0488,-0.01464,0.01952,-0.04392,0.00976,-0.03904,-0.0488,-0.05856,-0.07808,-0.07808
-0.06832,0.05856,-0.0488,-0.01464,0.01952,-0.04392,0.00976,-0.03904,-0.03904,-0.0488,-0.07808,-0.07808
-0.06832,0.05856,-0.0488,-0.01464,0.01952,-0.04392,0.01464,-0.04392,-0.03904,-0.0488,-0.07808,-0.07808
-0.0732,0.06588,-0.05856,-0.02196,0.01464,-0.04392,0.00488,-0.05368,-0.0488,-0.05368,-0.07808,-0.06832
-0.0732,0.06588,-0.05856,-0.02196,0.01464,-0.04392,0.00488,-0.05368,-0.05368,-0.05368,-0.07808,-0.06832
-0.06832,0.05856,-0.0488,-0.01464,0.01952,-0.04392,0.00488,-0.0488,-0.05368,-0.06344,-0.0732,-0.0732
-0.06832,0.05856,-0.0488,-0.01464,0.01952,-0.04392,0.00976,-0.0488,-0.05368,-0.06344,-0.0732,-0.0732
-0.0732,0.06344,-0.05368,-0.01708,0.01952,-0.04636,0.00976,-0.0488,-0.05368,-0.06344,-0.0732,-0.0732
-0.0732,0.061,-0.0488,-0.0122,0.0244,-0.0488,0.00976,-0.0488,-0.05368,-0.06344,-0.0732,-0.06832
-0.0732,0.061,-0.0488,-0.0122,0.0244,-0.0488,0,-0.0488,-0.05368,-0.06344,-0.07808,-0.0732
-0.0732,0.05368,-0.03416,0.00244,0.03904,-0.05612,0,-0.0488,-0.0488,-0.06344,-0.07808,-0.0732
-0.06832,0.05368,-0.03904,-0.00488,0.02928,-0.0488,0.01464,-0.04392,-0.0488,-0.05856,-0.06832,-0.0732
-0.06832,0.04636,-0.0244,0.00976,0.04392,-0.05612,0.00976,-0.04392,-0.04392,-0.0488,-0.06832,-0.06344
-0.0732,0.05124,-0.02928,0.00732,0.04392,-0.05856,0.01464,-0.05368,-0.03904,-0.05368,-0.06344,-0.05368
-0.06344,0.04392,-0.0244,0.00732,0.03904,-0.05124,0.00488,-0.05856,-0.03904,-0.0488,-0.05856,-0.05368
-0.05368,0.03172,-0.00976,0.01708,0.04392,-0.0488,-0.00488,-0.06832,-0.0244,-0.03904,-0.05368,-0.04392
-0.0488,0.02684,-0.00488,0.01952,0.04392,-0.04636,-0.0244,-0.0732,-0.0244,-0.03904,-0.05368,-0.03904
-0.0488,0.01708,0.01464,0.03904,0.06344,-0.05612,-0.04392,-0.08296,-0.03904,-0.0488,-0.0488,-0.04392
-0.03904,-0.00488,0.0488,0.06832,0.08784,-0.06344,-0.06344,-0.09272,-0.03416,-0.03416,-0.03416,-0.03416
-0.01464,-0.02684,0.06832,0.07564,0.08296,-0.0488,-0.09272,-0.11712,-0.02928,-0.0244,-0.01464,-0.01952
-0.01464,-0.0244,0.06344,0.07076,0.07808,-0.04636,-0.08784,-0.12688,-0.02928,-0.02928,-0.01952,-0.0244
0.00488,-0.02928,0.05368,0.05124,0.0488,-0.02196,-0.0976,-0.11712,-0.03416,-0.03416,-0.03416,-0.0244
0.0244,-0.04148,0.05856,0.04636,0.03416,-0.00488,-0.08784,-0.0976,-0.0244,-0.02928,-0.02928,-0.01464
0.0244,-0.03416,0.04392,0.03172,0.01952,0.00244,-0.08784,-0.08784,-0.04392,-0.02928,-0.03416,-0.01464
0.0244,-0.0366,0.0488,0.0366,0.0244,0,-0.08784,-0.08296,-0.04392,-0.0244,-0.02928,-0.01464
0.03416,-0.04636,0.05856,0.04148,0.0244,0.00488,-0.09272,-0.09272,-0.04392,-0.03416,-0.02928,-0.00976
0.02928,-0.02928,0.02928,0.01464,0,0.01464,-0.08296,-0.09272,-0.05856,-0.04392,-0.03904,-0.01464
0.01952,-0.01708,0.01464,0.00488,-0.00488,0.0122,-0.07808,-0.08296,-0.06344,-0.03904,-0.04392,-0.00488
0.00488,-0.00732,0.00976,0.00732,0.00488,0,-0.06344,-0.08296,-0.06832,-0.04392,-0.0488,-0.01952
-0.01464,0.00732,0,0.00732,0.01464,-0.01464,-0.05368,-0.08296,-0.05856,-0.04392,-0.05368,-0.02928
-0.03416,0.02684,-0.01952,-0.00244,0.01464,-0.0244,-0.04392,-0.08296,-0.06832,-0.06832,-0.0732,-0.0488
-0.04392,0.04392,-0.04392,-0.02196,0,-0.02196,-0.0244,-0.08296,-0.08296,-0.07808,-0.0732,-0.05856
-0.0488,0.0488,-0.0488,-0.0244,0,-0.0244,-0.01464,-0.07808,-0.08296,-0.07808,-0.08296,-0.06832
-0.05856,0.06344,-0.06832,-0.03904,-0.00976,-0.0244,-0.00488,-0.07808,-0.09272,-0.0976,-0.0976,-0.07808
-0.06344,0.06832,-0.0732,-0.04148,-0.00976,-0.02684,0,-0.07808,-0.09272,-0.0976,-0.10736,-0.08296
-0.05856,0.07076,-0.08296,-0.05368,-0.0244,-0.01708,-0.00488,-0.06344,-0.09272,-0.08784,-0.0976,-0.08296
-0.06344,0.0732,-0.08296,-0.05124,-0.01952,-0.02196,0,-0.06344,-0.09272,-0.08784,-0.10248,-0.08296
-0.06832,0.0732,-0.07808,-0.04392,-0.00976,-0.02928,0,-0.06832,-0.0976,-0.0976,-0.10248,-0.09272
-0.06832,0.07564,-0.08296,-0.0488,-0.01464,-0.02684,0,-0.06832,-0.0976,-0.0976,-0.10248,-0.0976
-0.07808,0.07808,-0.07808,-0.03904,0,-0.03904,0.00488,-0.06832,-0.0976,-0.0976,-0.11224,-0.0976
-0.08296,0.08052,-0.07808,-0.0366,0.00488,-0.04392,0.00976,-0.06832,-0.10248,-0.0976,-0.11224,-0.0976
-0.0732,0.07808,-0.08296,-0.04636,-0.00976,-0.03172,0.00976,-0.06832,-0.08784,-0.0976,-0.10248,-0.08784
-0.0732,0.07808,-0.08296,-0.04636,-0.00976,-0.03172,0.01464,-0.06344,-0.08296,-0.09272,-0.10248,-0.08784
-0.09272,0.09516,-0.0976,-0.05124,-0.00488,-0.04392,0.0244,-0.05856,-0.08296,-0.08784,-0.09272,-0.10736
-0.09272,0.0854,-0.07808,-0.03172,0.01464,-0.05368,0.01952,-0.05856,-0.0732,-0.08296,-0.09272,-0.08784
-0.14152,0.09272,-0.04392,0.02684,0.0976,-0.11956,0.0244,-0.08296,-0.04392,-0.06344,-0.07808,-0.0976
-0.1464,0.06344,0.01952,0.09272,0.16592,-0.15616,0.0244,-0.0976,0.01952,0.00488,-0.02928,-0.05856
-0.14152,0.03172,0.07808,0.14884,0.2196,-0.18056,0.01464,-0.10248,0.09272,0.10248,0.05368,-0.01952
-0.0488,-0.05856,0.16592,0.19032,0.21472,-0.13176,0,0.00488,0.28304,0.3172,0.27328,0.15128
0.1464,-0.17568,0.20496,0.13176,0.05856,0.04392,0.00976,0.244,0.5124,0.5856,0.52704,0.35624
0.45872,-0.38308,0.30744,0.07808,-0.15128,0.305,-0.0244,0.45384,0.79056,0.9272,0.84424,0.61976
0.74176,-0.53924,0.33672,-0.03416,-0.40504,0.5734,-0.13176,0.47336,0.87352,1.1224,1.06384,0.8296
0.93208,-0.68564,0.4392,-0.02684,-0.49288,0.71248,-0.24888,0.40504,0.9028,1.27368,1.2932,1.06872
1.1468,-0.81252,0.47824,-0.09516,-0.66856,0.90768,-0.39528,0.3416,0.81008,1.24928,1.35664,1.23952
1.02968,-0.71004,0.3904,-0.12444,-0.63928,0.83448,-0.45384,0.11224,0.44896,0.79544,0.976,1.04432
0.76616,-0.54168,0.3172,-0.06588,-0.44896,0.60756,-0.4148,-0.1464,0.10248,0.36112,0.55632,0.7564
0.4148,-0.29524,0.17568,-0.03172,-0.23912,0.32696,-0.40016,-0.48312,-0.37576,-0.12688,0.11712,0.40504
0.05368,-0.03904,0.0244,-0.00244,-0.02928,0.04148,-0.32696,-0.67832,-0.6832,-0.44408,-0.15616,0.16104
-0.09272,0.0854,-0.07808,-0.03172,0.01464,-0.05368,-0.16104,-0.47336,-0.60024,-0.4392,-0.244,-0.00976
-0.12688,0.09028,-0.05368,0.00976,0.0732,-0.10004,-0.10248,-0.38064,-0.45384,-0.35136,-0.21472,-0.05856
-0.10248,0.07564,-0.0488,0.00244,0.05368,-0.07808,-0.0488,-0.25864,-0.27328,-0.22448,-0.16104,-0.07808
-0.08784,0.08052,-0.0732,-0.02928,0.01464,-0.05124,0.01464,-0.10736,-0.16104,-0.13664,-0.122,-0.07808
-0.07808,0.0732,-0.06832,-0.02928,0.00976,-0.04392,0.0244,-0.0488,-0.06832,-0.06832,-0.07808,-0.06344
-0.06344,0.06588,-0.06832,-0.0366,-0.00488,-0.02928,0.0244,-0.05368,-0.06344,-0.05856,-0.07808,-0.0732
-0.06832,0.06832,-0.06832,-0.03416,0,-0.03416,0.04392,-0.02928,-0.0488,-0.0488,-0.0732,-0.08296
-0.07808,0.07076,-0.06344,-0.0244,0.01464,-0.04636,0.04392,-0.0244,-0.05368,-0.05368,-0.08296,-0.08296
-0.07808,0.07076,-0.06344,-0.0244,0.01464,-0.04636,0.03416,-0.0244,-0.0488,-0.05368,-0.07808,-0.08296
-0.0732,0.06588,-0.05856,-0.02196,0.01464,-0.04392,0.03416,-0.01464,-0.03904,-0.04392,-0.06344,-0.08296
-0.0732,0.06588,-0.05856,-0.02196,0.01464,-0.04392,0.03904,-0.01464,-0.03904,-0.04392,-0.06832,-0.08296
-0.0732,0.06588,-0.05856,-0.02196,0.01464,-0.04392,0.03904,-0.01464,-0.04392,-0.0488,-0.07808,-0.08784
-0.0732,0.06588,-0.05856,-0.02196,0.01464,-0.04392,0.04392,-0.00976,-0.03904,-0.04392,-0.0732,-0.08296
-0.07808,0.06588,-0.05368,-0.01464,0.0244,-0.05124,0.02928,0,-0.0244,-0.03904,-0.06832,-0.08296
-0.07808,0.06588,-0.05368,-0.01464,0.0244,-0.05124,0.03416,0,-0.01952,-0.03904,-0.06832,-0.07808
-0.06344,0.05856,-0.05368,-0.02196,0.00976,-0.0366,0.03904,-0.00488,-0.01952,-0.0244,-0.06832,-0.07808
-0.06344,0.05612,-0.0488,-0.01708,0.01464,-0.03904,0.04392,0,-0.01464,-0.01952,-0.06344,-0.07808
-0.06344,0.05612,-0.0488,-0.01708,0.01464,-0.03904,0.04392,0.00976,0,-0.0244,-0.0488,-0.06344
-0.06344,0.05612,-0.0488,-0.01708,0.01464,-0.03904,0.04392,0.01952,0.00488,-0.0244,-0.04392,-0.06344
-0.06344,0.05612,-0.0488,-0.01708,0.01464,-0.03904,0.03416,0.00976,-0.00488,-0.01952,-0.05856,-0.0732
-0.05856,0.05124,-0.04392,-0.01464,0.01464,-0.0366,0.03416,0.01464,0,-0.01952,-0.05368,-0.0732
-0.05856,0.05612,-0.05368,-0.0244,0.00488,-0.03172,0.04392,0.02928,0.00976,-0.00976,-0.03904,-0.06832
-0.05368,0.05368,-0.05368,-0.02684,0,-0.02684,0.04392,0.02928,0.00976,-0.00488,-0.03416,-0.06344
-0.06344,0.05124,-0.03904,-0.00732,0.0244,-0.04392,0.04392,0.0244,0.01464,0.00488,-0.04392,-0.06344
-0.05856,0.0488,-0.03904,-0.00976,0.01952,-0.03904,0.04392,0.02928,0.01464,0.00976,-0.03904,-0.06344
-0.05368,0.04636,-0.03904,-0.0122,0.01464,-0.03416,0.04392,0.03416,0.0244,0,-0.02928,-0.05856
-0.05368,0.04636,-0.03904,-0.0122,0.01464,-0.03416,0.0488,0.03904,0.02928,0.00976,-0.0244,-0.05856
-0.04392,0.03904,-0.03416,-0.0122,0.00976,-0.02684,0.0488,0.04392,0.03416,0.0244,-0.01952,-0.05368
-0.03904,0.0366,-0.03416,-0.01464,0.00488,-0.02196,0.0488,0.0488,0.03416,0.0244,-0.01952,-0.05368
-0.03416,0.0366,-0.03904,-0.02196,-0.00488,-0.01464,0.03904,0.0488,0.04392,0.02928,-0.0244,-0.05368
-0.02928,0.03172,-0.03416,-0.01952,-0.00488,-0.0122,0.03904,0.05856,0.04392,0.03416,-0.0244,-0.04392
-0.03904,0.03172,-0.0244,-0.00488,0.01464,-0.02684,0.0488,0.05856,0.05856,0.03904,-0.01952,-0.04392
-0.03416,0.02928,-0.0244,-0.00732,0.00976,-0.02196,0.0488,0.06832,0.06344,0.04392,-0.01464,-0.04392
-0.02928,0.02928,-0.02928,-0.01464,0,-0.01464,0.0488,0.0732,0.05856,0.0488,-0.00976,-0.03904
-0.0244,0.02684,-0.02928,-0.01708,-0.00488,-0.00976,0.0488,0.07808,0.06344,0.05368,-0.00488,-0.03904
-0.01952,0.01708,-0.01464,-0.00488,0.00488,-0.0122,0.0488,0.08784,0.07808,0.05856,-0.00488,-0.03904
-0.01952,0.01952,-0.01952,-0.00976,0,-0.00976,0.0488,0.0976,0.08296,0.06344,0,-0.03416
-0.00976,0.01708,-0.0244,-0.01952,-0.01464,0.00244,0.0488,0.09272,0.08784,0.06344,0,-0.02928
-0.00976,0.01464,-0.01952,-0.01464,-0.00976,0,0.05368,0.0976,0.08784,0.06832,0.00488,-0.02928
-0.00488,0.00732,-0.00976,-0.00732,-0.00488,0,0.05368,0.11712,0.09272,0.0732,0.00976,-0.02928
0,0.00732,-0.01464,-0.01464,-0.01464,0.00732,0.05368,0.122,0.09272,0.07808,0.00976,-0.0244
0.01464,-0.00244,-0.00976,-0.01708,-0.0244,0.01952,0.05368,0.13176,0.0976,0.07808,0.0244,-0.01952
0.01464,-0.00244,-0.00976,-0.01708,-0.0244,0.01952,0.05368,0.14152,0.0976,0.08296,0.02928,-0.01952
0.01464,0,-0.01464,-0.02196,-0.02928,0.02196,0.06344,0.1464,0.0976,0.08296,0.02928,-0.00976
0.01464,0,-0.01464,-0.02196,-0.02928,0.02196,0.06344,0.1464,0.0976,0.08296,0.02928,-0.00976
0.01952,-0.00488,-0.00976,-0.01952,-0.02928,0.0244,0.05368,0.15616,0.0976,0.08296,0.03416,-0.01464
0.02928,-0.0122,-0.00488,-0.01952,-0.03416,0.03172,0.05368,0.16104,0.0976,0.08296,0.03416,-0.01464
0.02928,-0.00732,-0.01464,-0.02928,-0.04392,0.0366,0.05368,0.16104,0.10248,0.0732,0.0244,-0.00488
0.03416,-0.00976,-0.01464,-0.03172,-0.0488,0.04148,0.05368,0.16592,0.0976,0.0732,0.0244,-0.00488
0.04392,-0.01952,-0.00488,-0.02684,-0.0488,0.04636,0.05856,0.17568,0.10248,0.07808,0.0244,-0.01464
0.04392,-0.02196,0,-0.02196,-0.04392,0.04392,0.05856,0.17568,0.09272,0.08784,0.01952,-0.01464
0.04392,-0.01708,-0.00976,-0.03172,-0.05368,0.0488,0.05856,0.17568,0.08784,0.0732,0.01952,-0.01464
0.0488,-0.02196,-0.00488,-0.02928,-0.05368,0.05124,0.05856,0.17568,0.08784,0.0732,0.01952,-0.01464
0.03904,-0.01708,-0.00488,-0.0244,-0.04392,0.04148,0.05368,0.1708,0.0732,0.06832,0.01952,-0.01464
0.03904,-0.01464,-0.00976,-0.02928,-0.0488,0.04392,0.0488,0.16104,0.0732,0.06344,0.01952,-0.01464
0.03416,-0.01708,0,-0.01708,-0.03416,0.03416,0.0488,0.15616,0.06344,0.06344,0.01952,-0.01464
0.03904,-0.01952,0,-0.01952,-0.03904,0.03904,0.04392,0.15128,0.06344,0.06344,0.01952,-0.00976
0.03904,-0.01708,-0.00488,-0.0244,-0.04392,0.04148,0.03416,0.1464,0.05368,0.06344,0.01952,0
0.03904,-0.01952,0,-0.01952,-0.03904,0.03904,0.03416,0.13664,0.05368,0.05856,0.01952,0
0.02928,-0.0122,-0.00488,-0.01952,-0.03416,0.03172,0.01464,0.11712,0.04392,0.0488,0.01464,-0.00976
0.02928,-0.0122,-0.00488,-0.01952,-0.03416,0.03172,0.01952,0.09272,0.03904,0.0488,0.01464,-0.00976
0.0244,-0.00976,-0.00488,-0.01708,-0.02928,0.02684,0.02928,0.09272,0.03416,0.04392,0.00976,-0.00976
0.01952,-0.00732,-0.00488,-0.01464,-0.0244,0.02196,0.0244,0.08296,0.03416,0.03904,0.00488,-0.01464
0.00488,0,-0.00488,-0.00732,-0.00976,0.00732,0.0244,0.05856,0.0244,0.02928,0.00488,-0.01464
0,0.00244,-0.00488,-0.00488,-0.00488,0.00244,0.01952,0.04392,0.01464,0.02928,0,-0.01952
0,0.00488,-0.00976,-0.00976,-0.00976,0.00488,0.00976,0.03904,0.00976,0.00976,-0.01464,-0.0244
-0.00976,0.00976,-0.00976,-0.00488,0,-0.00488,0.00976,0.01464,0,0,-0.03416,-0.0244
-0.00976,0.0122,-0.01464,-0.00976,-0.00488,-0.00244,0.01464,0,-0.01464,-0.00976,-0.03416,-0.04392
-0.01464,0.01464,-0.01464,-0.00732,0,-0.00732,0.01464,-0.00976,-0.01464,-0.01464,-0.03904,-0.04392
-0.0244,0.0244,-0.0244,-0.0122,0,-0.0122,0.00488,-0.01952,-0.01952,-0.0244,-0.04392,-0.04392
-0.02928,0.02684,-0.0244,-0.00976,0.00488,-0.01708,0.00488,-0.03416,-0.02928,-0.02928,-0.05368,-0.05856
-0.04392,0.03904,-0.03416,-0.0122,0.00976,-0.02684,-0.00488,-0.04392,-0.04392,-0.03904,-0.06832,-0.06832
-0.05856,0.05124,-0.04392,-0.01464,0.01464,-0.0366,-0.00488,-0.0488,-0.04392,-0.03904,-0.06832,-0.06832
-0.06344,0.05368,-0.04392,-0.0122,0.01952,-0.04148,0.00488,-0.03904,-0.03904,-0.0488,-0.0732,-0.06344
-0.06832,0.05856,-0.0488,-0.01464,0.01952,-0.04392,0.00488,-0.04392,-0.03904,-0.0488,-0.07808,-0.06344
-0.05856,0.0488,-0.03904,-0.00976,0.01952,-0.03904,0.00488,-0.05856,-0.03904,-0.05856,-0.07808,-0.06344
-0.05856,0.0488,-0.03904,-0.00976,0.01952,-0.03904,0.00488,-0.05856,-0.04392,-0.05856,-0.08296,-0.06832
-0.05856,0.05124,-0.04392,-0.01464,0.01464,-0.0366,0.00488,-0.05856,-0.05368,-0.0488,-0.08296,-0.06832
-0.06344,0.05124,-0.03904,-0.00732,0.0244,-0.04392,0.00488,-0.05856,-0.05368,-0.0488,-0.08784,-0.0732
-0.06344,0.05612,-0.0488,-0.01708,0.01464,-0.03904,0,-0.06832,-0.05856,-0.05368,-0.08784,-0.0732
-0.06832,0.061,-0.05368,-0.01952,0.01464,-0.04148,0,-0.06832,-0.05856,-0.05368,-0.08784,-0.0732
-0.06832,0.061,-0.05368,-0.01952,0.01464,-0.04148,0.00976,-0.06832,-0.05856,-0.05368,-0.09272,-0.08296
-0.06832,0.061,-0.05368,-0.01952,0.01464,-0.04148,0.00976,-0.06832,-0.05856,-0.05368,-0.09272,-0.08296
-0.06832,0.05612,-0.04392,-0.00976,0.0244,-0.04636,0.00976,-0.06832,-0.0488,-0.05368,-0.08784,-0.0732
-0.06832,0.05368,-0.03904,-0.00488,0.02928,-0.0488,0.00976,-0.06344,-0.04392,-0.0488,-0.08784,-0.07808
-0.0732,0.061,-0.0488,-0.0122,0.0244,-0.0488,0.01464,-0.05368,-0.04392,-0.0488,-0.09272,-0.07808
-0.0732,0.06344,-0.05368,-0.01708,0.01952,-0.04636,0.01464,-0.05368,-0.04392,-0.0488,-0.09272,-0.07808
-0.0732,0.06344,-0.05368,-0.01708,0.01952,-0.04636,0.01464,-0.05368,-0.0488,-0.0488,-0.09272,-0.08784
-0.0732,0.06344,-0.05368,-0.01708,0.01952,-0.04636,0.01464,-0.05368,-0.0488,-0.04392,-0.09272,-0.08784
-0.0732,0.06832,-0.06344,-0.02684,0.00976,-0.04148,0.01464,-0.0488,-0.0488,-0.05856,-0.08784,-0.09272
-0.0732,0.06588,-0.05856,-0.02196,0.01464,-0.04392,0.01464,-0.05368,-0.0488,-0.05856,-0.09272,-0.08784
-0.06832,0.061,-0.05368,-0.01952,0.01464,-0.04148,0.01464,-0.0488,-0.0488,-0.06344,-0.09272,-0.08784
-0.06832,0.05612,-0.04392,-0.00976,0.0244,-0.04636,0.01464,-0.0488,-0.04392,-0.06344,-0.09272,-0.08784
-0.07808,0.06588,-0.05368,-0.01464,0.0244,-0.05124,0.01464,-0.04392,-0.04392,-0.05856,-0.0976,-0.08784
-0.07808,0.06588,-0.05368,-0.01464,0.0244,-0.05124,0.01464,-0.04392,-0.04392,-0.05856,-0.0976,-0.08296
-0.07808,0.06588,-0.05368,-0.01464,0.0244,-0.05124,0.01464,-0.05368,-0.04392,-0.05368,-0.08784,-0.08296
-0.07808,0.06588,-0.05368,-0.01464,0.0244,-0.05124,0.01464,-0.0488,-0.04392,-0.0488,-0.08784,-0.08784
-0.07808,0.06344,-0.0488,-0.00976,0.02928,-0.05368,0.00976,-0.0488,-0.04392,-0.0488,-0.08784,-0.07808
-0.07808,0.06344,-0.0488,-0.00976,0.02928,-0.05368,0.00976,-0.0488,-0.04392,-0.0488,-0.08296,-0.0732
-0.06832,0.05856,-0.0488,-0.01464,0.01952,-0.04392,0.01952,-0.0488,-0.03416,-0.0488,-0.08296,-0.08296
-0.06344,0.05368,-0.04392,-0.0122,0.01952,-0.04148,0.01952,-0.0488,-0.03416,-0.04392,-0.08296,-0.07808
-0.06344,0.05612,-0.0488,-0.01708,0.01464,-0.03904,0.00976,-0.03904,-0.03416,-0.0488,-0.08296,-0.07808
-0.0732,0.04636,-0.01952,0.01708,0.05368,-0.06344,0.00976,-0.05368,-0.03904,-0.0488,-0.09272,-0.08296
-0.06832,0.05368,-0.03904,-0.00488,0.02928,-0.0488,0,-0.05856,-0.0488,-0.0488,-0.08784,-0.08784
-0.06832,0.05368,-0.03904,-0.00488,0.02928,-0.0488,0,-0.05856,-0.0488,-0.0488,-0.08784,-0.08784
-0.06832,0.05856,-0.0488,-0.01464,0.01952,-0.04392,0,-0.05856,-0.05856,-0.05856,-0.08784,-0.07808
-0.06832,0.05856,-0.0488,-0.01464,0.01952,-0.04392,0,-0.06344,-0.05856,-0.05856,-0.08784,-0.07808
-0.06344,0.05612,-0.0488,-0.01708,0.01464,-0.03904,0.00488,-0.06344,-0.0488,-0.0488,-0.08784,-0.07808
-0.06344,0.05612,-0.0488,-0.01708,0.01464,-0.03904,0.00488,-0.06344,-0.05368,-0.05368,-0.08784,-0.07808
-0.0732,0.05612,-0.03904,-0.00244,0.03416,-0.05368,0.00976,-0.06832,-0.05368,-0.05368,-0.08296,-0.06832
-0.06832,0.05368,-0.03904,-0.00488,0.02928,-0.0488,0.00488,-0.06832,-0.05368,-0.05368,-0.08296,-0.0732
-0.0732,0.05856,-0.04392,-0.00732,0.02928,-0.05124,0,-0.05856,-0.05368,-0.05368,-0.08296,-0.08296
-0.0732,0.05856,-0.04392,-0.00732,0.02928,-0.05124,0,-0.05856,-0.05368,-0.05368,-0.08296,-0.07808
-0.06344,0.05124,-0.03904,-0.00732,0.0244,-0.04392,0,-0.05856,-0.05368,-0.05368,-0.08296,-0.0732
-0.06344,0.04636,-0.02928,0.00244,0.03416,-0.0488,0,-0.05856,-0.05368,-0.05368,-0.07808,-0.0732
-0.05856,0.03904,-0.01952,0.00976,0.03904,-0.0488,0.00976,-0.05856,-0.0488,-0.03904,-0.0732,-0.06344
-0.05856,0.03416,-0.00976,0.01952,0.0488,-0.05368,0.01464,-0.05368,-0.03904,-0.03904,-0.06832,-0.05856
-0.06832,0.03904,-0.00976,0.0244,0.05856,-0.06344,0.00976,-0.05368,-0.0244,-0.03416,-0.05368,-0.05368
-0.05368,0.02928,-0.00488,0.02196,0.0488,-0.05124,0.00488,-0.05368,-0.01952,-0.03416,-0.0488,-0.05368
-0.04392,0.01952,0.00488,0.02684,0.0488,-0.04636,-0.01952,-0.06832,-0.01952,-0.02928,-0.05856,-0.0488
-0.03904,0.0122,0.01464,0.03416,0.05368,-0.04636,-0.03416,-0.07808,-0.01464,-0.02928,-0.05368,-0.03904
-0.04392,0.00976,0.0244,0.04636,0.06832,-0.05612,-0.04392,-0.08784,-0.02928,-0.02928,-0.0488,-0.03904
-0.03416,0,0.03416,0.05124,0.06832,-0.05124,-0.0732,-0.11224,-0.02928,-0.0244,-0.03904,-0.0244
-0.00976,-0.0244,0.05856,0.06344,0.06832,-0.03904,-0.09272,-0.11712,-0.0244,-0.01464,-0.0244,-0.01952
0.00488,-0.02928,0.05368,0.05124,0.0488,-0.02196,-0.10248,-0.11712,-0.02928,-0.01952,-0.02928,-0.0244
0.01952,-0.0366,0.05368,0.04392,0.03416,-0.00732,-0.08784,-0.10736,-0.03416,-0.00976,-0.03416,-0.01464
0.03416,-0.04636,0.05856,0.04148,0.0244,0.00488,-0.08784,-0.0976,-0.03416,-0.01464,-0.02928,-0.00976
0.03904,-0.04392,0.0488,0.02928,0.00976,0.01464,-0.08784,-0.08784,-0.03416,-0.01952,-0.02928,-0.01464
0.0488,-0.04636,0.04392,0.01952,-0.00488,0.02684,-0.08784,-0.08296,-0.04392,-0.02928,-0.03416,-0.01464
0.04392,-0.04636,0.0488,0.02684,0.00488,0.01952,-0.08784,-0.09272,-0.04392,-0.03416,-0.03904,-0.00976
0.03416,-0.02684,0.01952,0.00244,-0.01464,0.0244,-0.08296,-0.09272,-0.05368,-0.03416,-0.04392,-0.01464
0.01952,-0.00976,0,-0.00976,-0.01952,0.01952,-0.07808,-0.09272,-0.05856,-0.04392,-0.05856,-0.0244
0.00488,0.00244,-0.00976,-0.0122,-0.01464,0.00976,-0.06832,-0.09272,-0.06832,-0.05368,-0.06344,-0.03416
-0.01464,0.00976,-0.00488,0.00244,0.00976,-0.0122,-0.05856,-0.08296,-0.06832,-0.05368,-0.06344,-0.03416
-0.03416,0.02928,-0.0244,-0.00732,0.00976,-0.02196,-0.05368,-0.08296,-0.0732,-0.06344,-0.06832,-0.04392
-0.0488,0.04392,-0.03904,-0.01464,0.00976,-0.02928,-0.02928,-0.07808,-0.08296,-0.0732,-0.08296,-0.05856
-0.0488,0.05612,-0.06344,-0.03904,-0.01464,-0.01708,-0.01464,-0.0732,-0.08296,-0.07808,-0.08784,-0.0732
-0.05856,0.06588,-0.0732,-0.04392,-0.01464,-0.02196,-0.00488,-0.06832,-0.08296,-0.07808,-0.10248,-0.08296
-0.06344,0.07076,-0.07808,-0.04636,-0.01464,-0.0244,-0.00488,-0.06832,-0.08296,-0.08784,-0.10736,-0.09272
-0.0732,0.07808,-0.08296,-0.04636,-0.00976,-0.03172,-0.00976,-0.0732,-0.09272,-0.08784,-0.10736,-0.09272
-0.07808,0.08052,-0.08296,-0.04392,-0.00488,-0.0366,-0.00488,-0.0732,-0.09272,-0.08784,-0.11224,-0.09272
-0.08296,0.08784,-0.09272,-0.05124,-0.00976,-0.0366,0.00976,-0.06832,-0.09272,-0.08784,-0.10248,-0.09272
-0.08784,0.09272,-0.0976,-0.05368,-0.00976,-0.03904,0.00976,-0.06832,-0.08784,-0.08784,-0.10248,-0.09272
-0.07808,0.09028,-0.10248,-0.06344,-0.0244,-0.02684,0.00488,-0.06832,-0.08784,-0.08784,-0.11224,-0.0976
-0.08296,0.09028,-0.0976,-0.05612,-0.01464,-0.03416,0.00976,-0.06832,-0.09272,-0.08784,-0.11224,-0.0976
-0.08296,0.08296,-0.08296,-0.04148,0,-0.04148,0.01952,-0.07808,-0.08784,-0.0976,-0.11224,-0.0976
-0.08296,0.08296,-0.08296,-0.04148,0,-0.04148,0.01952,-0.0732,-0.08296,-0.09272,-0.11224,-0.0976
-0.07808,0.07564,-0.0732,-0.03416,0.00488,-0.04148,0.0244,-0.06832,-0.08296,-0.08784,-0.11224,-0.10736
-0.11224,0.09028,-0.06832,-0.0122,0.04392,-0.07808,0.01952,-0.07808,-0.0732,-0.07808,-0.10248,-0.0976
-0.13664,0.07808,-0.01952,0.0488,0.11712,-0.12688,0.03416,-0.09272,-0.0244,-0.04392,-0.07808,-0.07808
-0.15616,0.07076,0.01464,0.09272,0.1708,-0.16348,0.03416,-0.09272,0.04392,0.01952,-0.02928,-0.06832
-0.15128,0.03904,0.0732,0.14884,0.22448,-0.18788,0.01464,-0.08784,0.12688,0.122,0.06832,0.00976
-0.01464,-0.08784,0.19032,0.19764,0.20496,-0.1098,0.01952,0.08296,0.33184,0.37088,0.30256,0.19032
0.22448,-0.22692,0.22936,0.11712,0.00488,0.1098,0.02928,0.34648,0.5612,0.62464,0.54656,0.39528
0.54656,-0.4026,0.25864,-0.01464,-0.28792,0.41724,-0.01952,0.54656,0.8052,0.92232,0.83448,0.61976
0.81496,-0.55632,0.29768,-0.1098,-0.51728,0.66612,-0.14152,0.51728,0.82472,1.0492,1.01992,0.80032
1.02968,-0.72712,0.42456,-0.09028,-0.60512,0.8174,-0.28304,0.42456,0.83448,1.18096,1.22,1.03944
1.20048,-0.81496,0.42944,-0.1708,-0.77104,0.98576,-0.40016,0.32208,0.6832,1.05408,1.17608,1.1224
0.97112,-0.65392,0.33672,-0.14884,-0.6344,0.80276,-0.43432,0.02928,0.30744,0.57584,0.74176,0.854
0.68808,-0.47092,0.25376,-0.09028,-0.43432,0.5612,-0.40504,-0.25376,-0.03416,0.18544,0.37088,0.57096
0.32208,-0.20984,0.0976,-0.06344,-0.22448,0.27328,-0.36112,-0.5856,-0.48312,-0.27328,-0.05368,0.22936
-0.03904,0.01464,0.00976,0.02928,0.0488,-0.04392,-0.26352,-0.71248,-0.6832,-0.47824,-0.25864,0.03416
-0.11224,0.1098,-0.10736,-0.05124,0.00488,-0.05856,-0.12688,-0.46848,-0.54656,-0.42456,-0.28304,-0.07808
-0.15616,0.11224,-0.06832,0.00976,0.08784,-0.122,-0.09272,-0.38552,-0.43432,-0.34648,-0.24888,-0.10736
-0.12688,0.10004,-0.0732,-0.00976,0.05368,-0.09028,-0.03416,-0.244,-0.26352,-0.2196,-0.1708,-0.0976
-0.11224,0.0976,-0.08296,-0.02684,0.02928,-0.07076,0.03904,-0.0976,-0.14152,-0.12688,-0.13176,-0.09272
-0.0976,0.08784,-0.07808,-0.02928,0.01952,-0.05856,0.03416,-0.06344,-0.0732,-0.07808,-0.09272,-0.0732
-0.08784,0.08784,-0.08784,-0.04392,0,-0.04392,0.0244,-0.0488,-0.08296,-0.08784,-0.08784,-0.08296
-0.08296,0.0854,-0.08784,-0.04636,-0.00488,-0.03904,0.04392,-0.03416,-0.06344,-0.07808,-0.08296,-0.08296
-0.08784,0.0854,-0.08296,-0.03904,0.00488,-0.04636,0.04392,-0.0244,-0.0488,-0.06344,-0.08296,-0.08296
-0.08784,0.07808,-0.06832,-0.0244,0.01952,-0.05368,0.04392,-0.01464,-0.03904,-0.06344,-0.08296,-0.08296
-0.08296,0.07076,-0.05856,-0.01708,0.0244,-0.05368,0.04392,-0.01464,-0.03904,-0.06344,-0.08784,-0.08296
-0.08296,0.07076,-0.05856,-0.01708,0.0244,-0.05368,0.0488,-0.01464,-0.03904,-0.06344,-0.08296,-0.08296
-0.0732,0.07076,-0.06832,-0.03172,0.00488,-0.03904,0.03904,-0.01464,-0.02928,-0.05368,-0.07808,-0.08296
-0.0732,0.07076,-0.06832,-0.03172,0.00488,-0.03904,0.04392,0,-0.0244,-0.0488,-0.07808,-0.08784
-0.08296,0.07564,-0.06832,-0.02684,0.01464,-0.0488,0.03904,0.00976,-0.01952,-0.0488,-0.08296,-0.08296
-0.07808,0.07076,-0.06344,-0.0244,0.01464,-0.04636,0.04392,0.00976,-0.01464,-0.0488,-0.07808,-0.07808
-0.0732,0.06344,-0.05368,-0.01708,0.01952,-0.04636,0.03904,0.01464,-0.00976,-0.04392,-0.06832,-0.06832
-0.0732,0.061,-0.0488,-0.0122,0.0244,-0.0488,0.04392,0.01952,-0.00976,-0.03904,-0.06344,-0.06832
-0.0732,0.06588,-0.05856,-0.02196,0.01464,-0.04392,0.04392,0.00976,-0.00488,-0.03904,-0.06832,-0.06832
-0.0732,0.06588,-0.05856,-0.02196,0.01464,-0.04392,0.04392,0.01464,0,-0.03416,-0.06344,-0.06344
-0.08296,0.07076,-0.05856,-0.01708,0.0244,-0.05368,0.04392,0.01952,-0.00488,-0.03416,-0.05856,-0.06344
-0.07808,0.06588,-0.05368,-0.01464,0.0244,-0.05124,0.04392,0.01952,0,-0.02928,-0.05368,-0.06344
-0.06832,0.05612,-0.04392,-0.00976,0.0244,-0.04636,0.05368,0.0244,0,-0.00976,-0.0488,-0.06344
-0.06832,0.05612,-0.04392,-0.00976,0.0244,-0.04636,0.05368,0.02928,0.00976,-0.00976,-0.0488,-0.05368
-0.05368,0.05368,-0.05368,-0.02684,0,-0.02684,0.04392,0.02928,0.00976,-0.00488,-0.04392,-0.05368
-0.0488,0.0488,-0.0488,-0.0244,0,-0.0244,0.04392,0.03904,0.01464,0,-0.04392,-0.05368
-0.03904,0.03904,-0.03904,-0.01952,0,-0.01952,0.04392,0.03904,0.01952,-0.00976,-0.03904,-0.05368
-0.03416,0.0366,-0.03904,-0.02196,-0.00488,-0.01464,0.0488,0.0488,0.02928,0,-0.03904,-0.0488
-0.03904,0.0366,-0.03416,-0.01464,0.00488,-0.02196,0.05856,0.06344,0.03904,0.00976,-0.03416,-0.0488
-0.0488,0.04148,-0.03416,-0.00976,0.01464,-0.03172,0.05856,0.06832,0.04392,0.01464,-0.02928,-0.04392
-0.03416,0.03416,-0.03416,-0.01708,0,-0.01708,0.0488,0.05856,0.03904,0.00976,-0.0244,-0.05368
-0.03416,0.03172,-0.02928,-0.0122,0.00488,-0.01952,0.0488,0.05856,0.04392,0.01464,-0.0244,-0.0488
-0.03904,0.03172,-0.0244,-0.00488,0.01464,-0.02684,0.03904,0.06832,0.0488,0.01952,-0.01952,-0.03416
-0.03416,0.02928,-0.0244,-0.00732,0.00976,-0.02196,0.03904,0.07808,0.0488,0.01952,-0.01952,-0.03416
-0.03416,0.02928,-0.0244,-0.00732,0.00976,-0.02196,0.0488,0.08296,0.05856,0.02928,-0.01464,-0.04392
-0.02928,0.0244,-0.01952,-0.00488,0.00976,-0.01952,0.0488,0.08784,0.06344,0.02928,-0.00976,-0.03904
-0.01464,0.01464,-0.01464,-0.00732,0,-0.00732,0.05856,0.0976,0.0732,0.04392,0.00488,-0.03416
-0.00976,0.01464,-0.01952,-0.01464,-0.00976,0,0.05856,0.11224,0.07808,0.05368,0.00488,-0.01952
-0.00488,0.00976,-0.01464,-0.0122,-0.00976,0.00244,0.0488,0.122,0.07808,0.05368,0.00976,-0.0244
0,0.00732,-0.01464,-0.01464,-0.01464,0.00732,0.05368,0.122,0.07808,0.05856,0.01464,-0.01952
0.00488,-0.00244,0,-0.00244,-0.00488,0.00488,0.05368,0.122,0.09272,0.05856,0.01464,-0.01952
0.00488,0,-0.00488,-0.00732,-0.00976,0.00732,0.05368,0.12688,0.09272,0.06344,0.01952,-0.01464
0.01464,-0.00244,-0.00976,-0.01708,-0.0244,0.01952,0.05368,0.1464,0.08784,0.06832,0.01464,-0.00488
0.01464,-0.00244,-0.00976,-0.01708,-0.0244,0.01952,0.05368,0.16104,0.08784,0.0732,0.01464,0
0.00976,-0.00244,-0.00488,-0.00976,-0.01464,0.0122,0.05368,0.15128,0.0976,0.08296,0.02928,0
0.01464,-0.00488,-0.00488,-0.0122,-0.01952,0.01708,0.05368,0.15616,0.0976,0.0732,0.02928,0
0.02928,-0.01708,0.00488,-0.00976,-0.0244,0.02684,0.05368,0.16104,0.0976,0.06344,0.01952,-0.00488
0.03904,-0.0244,0.00976,-0.00976,-0.02928,0.03416,0.05368,0.1708,0.0976,0.06344,0.0244,-0.00488
0.0488,-0.03172,0.01464,-0.00976,-0.03416,0.04148,0.05368,0.18056,0.08784,0.0732,0.0244,0.00488
0.0488,-0.03172,0.01464,-0.00976,-0.03416,0.04148,0.05368,0.18544,0.09272,0.0732,0.0244,0.00488
0.04392,-0.0244,0.00488,-0.01708,-0.03904,0.04148,0.05368,0.18544,0.08784,0.06832,0.0244,0.00488
0.04392,-0.02196,0,-0.02196,-0.04392,0.04392,0.0488,0.18544,0.08296,0.05368,0.01952,0.00488
0.03416,-0.0122,-0.00976,-0.02684,-0.04392,0.03904,0.0488,0.17568,0.0732,0.05856,0.01952,-0.00488
0.03904,-0.01708,-0.00488,-0.0244,-0.04392,0.04148,0.0488,0.17568,0.06832,0.05368,0.01952,-0.00488
0.0488,-0.0244,0,-0.0244,-0.0488,0.0488,0.04392,0.1708,0.06344,0.05368,0.01952,-0.00488
0.0488,-0.02928,0.00976,-0.01464,-0.03904,0.04392,0.03904,0.1708,0.06344,0.04392,0.01952,-0.00488
0.04392,-0.02196,0,-0.02196,-0.04392,0.04392,0.03904,0.1708,0.06344,0.04392,0.01952,0.00488
0.0488,-0.02928,0.00976,-0.01464,-0.03904,0.04392,0.03416,0.16592,0.06344,0.04392,0.01952,0.00976
0.03904,-0.02196,0.00488,-0.01464,-0.03416,0.0366,0.03904,0.1464,0.06344,0.04392,0.01952,0
0.03904,-0.0244,0.00976,-0.00976,-0.02928,0.03416,0.03416,0.14152,0.05368,0.04392,0.01952,0
0.04392,-0.02684,0.00976,-0.0122,-0.03416,0.03904,0.0244,0.14152,0.05368,0.03904,0.01952,0.00976
0.03904,-0.02196,0.00488,-0.01464,-0.03416,0.0366,0.01464,0.122,0.04392,0.03904,0.01464,0.00976
0.03904,-0.02196,0.00488,-0.01464,-0.03416,0.0366,0.01952,0.11224,0.03904,0.02928,0.0244,0.00976
0.03416,-0.01952,0.00488,-0.0122,-0.02928,0.03172,0.01464,0.09272,0.03416,0.01952,0.01952,0.00488
0.01464,-0.00488,-0.00488,-0.0122,-0.01952,0.01708,0.01464,0.06832,0.03416,0.01464,0.00488,0.00488
0,0.00244,-0.00488,-0.00488,-0.00488,0.00244,0.00976,0.05368,0.01952,0.00976,-0.00976,-0.00488
-0.00488,0.00976,-0.01464,-0.0122,-0.00976,0.00244,0.00976,0.04392,0.00488,0,-0.00976,-0.01952
-0.01464,0.01708,-0.01952,-0.0122,-0.00488,-0.00488,0.00976,0.0244,-0.00488,-0.00488,-0.01952,-0.0244
-0.0244,0.01952,-0.01464,-0.00244,0.00976,-0.01708,-0.00488,0.00976,-0.00976,-0.01464,-0.02928,-0.02928
-0.02928,0.02196,-0.01464,0,0.01464,-0.02196,-0.00488,-0.00976,-0.01464,-0.0244,-0.03904,-0.03416
-0.03904,0.02928,-0.01952,0,0.01952,-0.02928,0.00488,-0.01464,-0.01464,-0.02928,-0.03416,-0.03416
-0.0488,0.0366,-0.0244,0,0.0244,-0.0366,0.00488,-0.02928,-0.0244,-0.03904,-0.0488,-0.04392
-0.05368,0.04392,-0.03416,-0.00732,0.01952,-0.0366,0.00488,-0.03904,-0.02928,-0.03904,-0.05368,-0.05856
-0.05368,0.04636,-0.03904,-0.0122,0.01464,-0.03416,0.00488,-0.0488,-0.03416,-0.0488,-0.05856,-0.05856
-0.05368,0.04392,-0.03416,-0.00732,0.01952,-0.0366,-0.00488,-0.0488,-0.04392,-0.05368,-0.06832,-0.05856
-0.05368,0.04636,-0.03904,-0.0122,0.01464,-0.03416,-0.00488,-0.05368,-0.0488,-0.05856,-0.0732,-0.06344
-0.06832,0.05368,-0.03904,-0.00488,0.02928,-0.0488,0.00488,-0.05368,-0.0488,-0.0488,-0.06832,-0.05368
-0.06832,0.05368,-0.03904,-0.00488,0.02928,-0.0488,0.00488,-0.05856,-0.05368,-0.05856,-0.0732,-0.05368
-0.06832,0.05124,-0.03416,0,0.03416,-0.05124,0.00488,-0.05856,-0.05368,-0.06832,-0.0732,-0.05856
-0.06832,0.0488,-0.02928,0.00488,0.03904,-0.05368,0.00488,-0.05856,-0.05368,-0.06832,-0.0732,-0.05856
-0.06344,0.05124,-0.03904,-0.00732,0.0244,-0.04392,0.00488,-0.05856,-0.0488,-0.06344,-0.07808,-0.06344
-0.06344,0.05368,-0.04392,-0.0122,0.01952,-0.04148,0.00976,-0.05856,-0.0488,-0.06344,-0.07808,-0.06344
-0.06832,0.05612,-0.04392,-0.00976,0.0244,-0.04636,0.00976,-0.0488,-0.0488,-0.06344,-0.0732,-0.06344
-0.06832,0.05612,-0.04392,-0.00976,0.0244,-0.04636,0.00976,-0.0488,-0.0488,-0.06344,-0.0732,-0.06344
-0.07808,0.06588,-0.05368,-0.01464,0.0244,-0.05124,0.00976,-0.0488,-0.0488,-0.06344,-0.08296,-0.0732
-0.07808,0.06344,-0.0488,-0.00976,0.02928,-0.05368,0.00976,-0.0488,-0.0488,-0.06344,-0.07808,-0.07808
-0.07808,0.06344,-0.0488,-0.00976,0.02928,-0.05368,0.00976,-0.05368,-0.04392,-0.06832,-0.07808,-0.07808
-0.08296,0.06832,-0.05368,-0.0122,0.02928,-0.05612,0.01464,-0.05368,-0.04392,-0.06832,-0.08296,-0.07808
-0.08296,0.06832,-0.05368,-0.0122,0.02928,-0.05612,0.01464,-0.04392,-0.03904,-0.05856,-0.08296,-0.06832
-0.08296,0.06832,-0.05368,-0.0122,0.02928,-0.05612,0.01464,-0.04392,-0.03904,-0.05856,-0.08296,-0.06832
-0.0732,0.061,-0.0488,-0.0122,0.0244,-0.0488,0.01464,-0.03904,-0.0488,-0.06344,-0.07808,-0.06832
-0.0732,0.05368,-0.03416,0.00244,0.03904,-0.05612,0.01464,-0.04392,-0.0488,-0.06832,-0.07808,-0.0732
-0.06832,0.05612,-0.04392,-0.00976,0.0244,-0.04636,0.01464,-0.03904,-0.03904,-0.06344,-0.08296,-0.06832
-0.06832,0.05612,-0.04392,-0.00976,0.0244,-0.04636,0.01464,-0.03904,-0.03904,-0.06344,-0.08296,-0.06832
-0.06832,0.05124,-0.03416,0,0.03416,-0.05124,0.01464,-0.0488,-0.04392,-0.06344,-0.06832,-0.06832
-0.06832,0.05124,-0.03416,0,0.03416,-0.05124,0.01464,-0.04392,-0.04392,-0.05856,-0.06832,-0.06832
-0.06832,0.05124,-0.03416,0,0.03416,-0.05124,0.01464,-0.04392,-0.03416,-0.06344,-0.06832,-0.06344
-0.06832,0.05124,-0.03416,0,0.03416,-0.05124,0.01464,-0.05368,-0.03416,-0.06344,-0.06832,-0.06344
-0.06832,0.05612,-0.04392,-0.00976,0.0244,-0.04636,0.01464,-0.03904,-0.03416,-0.05856,-0.06832,-0.05856
-0.06832,0.05368,-0.03904,-0.00488,0.02928,-0.0488,0.00976,-0.03904,-0.03416,-0.05856,-0.06344,-0.05856
-0.06832,0.05368,-0.03904,-0.00488,0.02928,-0.0488,0.00976,-0.0488,-0.03416,-0.05856,-0.06344,-0.06344
-0.06832,0.05124,-0.03416,0,0.03416,-0.05124,0.00976,-0.0488,-0.03416,-0.05368,-0.06344,-0.06344
-0.06344,0.0488,-0.03416,-0.00244,0.02928,-0.04636,0.00976,-0.03904,-0.03416,-0.0488,-0.06344,-0.05856
-0.0732,0.05124,-0.02928,0.00732,0.04392,-0.05856,0.00976,-0.03904,-0.03904,-0.05856,-0.06344,-0.05856
-0.06832,0.0488,-0.02928,0.00488,0.03904,-0.05368,0.01952,-0.0488,-0.03904,-0.05856,-0.06832,-0.0488
-0.05856,0.04392,-0.02928,0,0.02928,-0.04392,0.00976,-0.05856,-0.03904,-0.05856,-0.06832,-0.05856
-0.05856,0.04392,-0.02928,0,0.02928,-0.04392,0,-0.05856,-0.03904,-0.05856,-0.06832,-0.05856
-0.05856,0.04392,-0.02928,0,0.02928,-0.04392,-0.00976,-0.05856,-0.03904,-0.05856,-0.06832,-0.05856
-0.05856,0.04392,-0.02928,0,0.02928,-0.04392,-0.00488,-0.06344,-0.03904,-0.05856,-0.06832,-0.05856
-0.06344,0.04636,-0.02928,0.00244,0.03416,-0.0488,-0.01464,-0.06344,-0.0488,-0.06344,-0.06832,-0.05856
-0.06344,0.04636,-0.02928,0.00244,0.03416,-0.0488,-0.01464,-0.06344,-0.05368,-0.06344,-0.06832,-0.05856
-0.06832,0.0488,-0.02928,0.00488,0.03904,-0.05368,-0.01464,-0.05856,-0.05368,-0.06344,-0.0732,-0.06344
-0.06832,0.0488,-0.02928,0.00488,0.03904,-0.05368,0,-0.05856,-0.05368,-0.06344,-0.0732,-0.06344
-0.06344,0.04392,-0.0244,0.00732,0.03904,-0.05124,-0.00976,-0.05856,-0.05368,-0.06344,-0.06344,-0.05368
-0.05368,0.03172,-0.00976,0.01708,0.04392,-0.0488,-0.00976,-0.05856,-0.05368,-0.06344,-0.06344,-0.0488
-0.06344,0.04148,-0.01952,0.0122,0.04392,-0.05368,0,-0.05856,-0.04392,-0.06344,-0.06832,-0.05368
-0.06344,0.03416,-0.00488,0.02684,0.05856,-0.061,0,-0.05856,-0.03904,-0.06344,-0.06832,-0.05368
-0.05856,0.03416,-0.00976,0.01952,0.0488,-0.05368,0.01464,-0.05368,-0.02928,-0.05856,-0.0488,-0.05368
-0.05856,0.02684,0.00488,0.03416,0.06344,-0.061,0.00976,-0.05368,-0.0244,-0.0488,-0.0488,-0.04392
-0.05368,0.02196,0.00976,0.0366,0.06344,-0.05856,-0.00488,-0.05368,-0.01952,-0.04392,-0.04392,-0.04392
-0.04392,0.01464,0.01464,0.0366,0.05856,-0.05124,-0.01464,-0.05856,-0.01952,-0.03904,-0.03904,-0.04392
-0.04392,0.00732,0.02928,0.05124,0.0732,-0.05856,-0.0244,-0.06832,-0.01464,-0.03904,-0.03416,-0.03416
-0.03904,0.00244,0.03416,0.05368,0.0732,-0.05612,-0.04392,-0.0732,-0.01464,-0.03904,-0.03416,-0.02928
-0.01952,-0.01708,0.05368,0.06344,0.0732,-0.04636,-0.06344,-0.08296,-0.01952,-0.03904,-0.02928,-0.01464
-0.00976,-0.04392,0.0976,0.10248,0.10736,-0.05856,-0.08296,-0.10248,-0.01464,-0.0244,-0.01464,0.00488
0.01464,-0.05612,0.0976,0.09028,0.08296,-0.03416,-0.10248,-0.11712,-0.01952,-0.0244,-0.00488,0.00976
0.01464,-0.04392,0.0732,0.06588,0.05856,-0.02196,-0.0976,-0.11712,-0.01952,-0.02928,-0.00976,0.00488
0.0244,-0.0488,0.0732,0.061,0.0488,-0.0122,-0.10736,-0.10736,-0.0244,-0.0244,-0.00488,0.00488
0.04392,-0.061,0.07808,0.05612,0.03416,0.00488,-0.0976,-0.08784,-0.01464,-0.01952,0,0.01464
0.04392,-0.0488,0.05368,0.03172,0.00976,0.01708,-0.0976,-0.0976,-0.03416,-0.03904,-0.01464,0.01464
0.05368,-0.05612,0.05856,0.03172,0.00488,0.0244,-0.0976,-0.09272,-0.03416,-0.03416,-0.00976,0.01464
0.05368,-0.05612,0.05856,0.03172,0.00488,0.0244,-0.09272,-0.09272,-0.04392,-0.03416,-0.00976,0.00976
0.03904,-0.03416,0.02928,0.00976,-0.00976,0.0244,-0.08296,-0.09272,-0.05856,-0.04392,-0.01952,0.00488
0.01952,-0.02684,0.03416,0.0244,0.01464,0.00244,-0.08784,-0.09272,-0.05368,-0.03904,-0.0244,0.00488
0.00488,-0.01708,0.02928,0.02684,0.0244,-0.00976,-0.0732,-0.09272,-0.05856,-0.04392,-0.02928,-0.00976
-0.00488,-0.00244,0.00976,0.0122,0.01464,-0.00976,-0.05368,-0.08296,-0.05856,-0.05368,-0.04392,-0.01952
-0.0244,0.01708,-0.00976,0.00244,0.01464,-0.01952,-0.03416,-0.08296,-0.06832,-0.07808,-0.06344,-0.03904
-0.05368,0.0488,-0.04392,-0.01708,0.00976,-0.03172,-0.0244,-0.08296,-0.08296,-0.08784,-0.0732,-0.0488
-0.05856,0.05856,-0.05856,-0.02928,0,-0.02928,-0.01464,-0.07808,-0.08296,-0.08784,-0.08296,-0.05856
-0.05856,0.06344,-0.06832,-0.03904,-0.00976,-0.0244,-0.01464,-0.07808,-0.08296,-0.08784,-0.08784,-0.06832
-0.06344,0.06832,-0.0732,-0.04148,-0.00976,-0.02684,-0.00976,-0.07808,-0.08296,-0.08784,-0.08784,-0.0732
-0.06832,0.07076,-0.0732,-0.03904,-0.00488,-0.03172,-0.00488,-0.0732,-0.08296,-0.0976,-0.07808,-0.0732
-0.0732,0.0732,-0.0732,-0.0366,0,-0.0366,0,-0.0732,-0.08296,-0.0976,-0.08296,-0.0732
-0.06832,0.06832,-0.06832,-0.03416,0,-0.03416,0.00976,-0.05856,-0.07808,-0.0976,-0.08296,-0.0732
-0.06832,0.07076,-0.0732,-0.03904,-0.00488,-0.03172,0.00976,-0.05856,-0.07808,-0.0976,-0.08296,-0.07808
-0.06832,0.0732,-0.07808,-0.04392,-0.00976,-0.02928,0.00488,-0.06832,-0.07808,-0.0976,-0.09272,-0.07808
-0.0732,0.07564,-0.07808,-0.04148,-0.00488,-0.03416,0.00976,-0.06832,-0.08296,-0.0976,-0.09272,-0.07808
-0.0732,0.0732,-0.0732,-0.0366,0,-0.0366,0.00976,-0.06832,-0.07808,-0.0976,-0.08296,-0.07808
-0.0732,0.0732,-0.0732,-0.0366,0,-0.0366,0.01464,-0.06344,-0.0732,-0.09272,-0.08296,-0.07808
-0.08296,0.08052,-0.07808,-0.0366,0.00488,-0.04392,0.01464,-0.06832,-0.08296,-0.08784,-0.08296,-0.07808
-0.11224,0.08052,-0.0488,0.00732,0.06344,-0.08784,0.01952,-0.06832,-0.04392,-0.06344,-0.0732,-0.07808
-0.15128,0.08296,-0.01464,0.061,0.13664,-0.14396,0.0244,-0.09272,-0.01464,-0.03416,-0.03904,-0.06832
-0.16592,0.06832,0.02928,0.11224,0.1952,-0.18056,0.04392,-0.07808,0.05856,0.04392,0.01952,-0.02928
-0.122,-0.0122,0.1464,0.2074,0.2684,-0.1952,0.0244,-0.05368,0.20984,0.20984,0.18056,0.08784
0.0488,-0.13176,0.21472,0.19032,0.16592,-0.05856,0.02928,0.1708,0.40992,0.43432,0.3904,0.24888
0.32208,-0.28304,0.244,0.08296,-0.07808,0.20008,0.02928,0.4392,0.62952,0.6832,0.62464,0.45384
0.64416,-0.4514,0.25864,-0.06344,-0.38552,0.51484,-0.04392,0.61,0.81008,0.91744,0.86376,0.66856
0.88816,-0.61244,0.33672,-0.10736,-0.55144,0.7198,-0.18056,0.53192,0.82472,1.0736,1.06384,0.86864
1.11752,-0.78812,0.45872,-0.10004,-0.6588,0.88816,-0.3172,0.42456,0.82472,1.16632,1.22488,1.06872
1.20536,-0.8174,0.42944,-0.17324,-0.77592,0.99064,-0.45384,0.23424,0.54656,0.8784,1.03456,1.0248
0.9028,-0.60268,0.30256,-0.14884,-0.60024,0.75152,-0.43432,-0.05368,0.20496,0.4148,0.59536,0.732
0.60024,-0.4148,0.22936,-0.07076,-0.37088,0.48556,-0.39528,-0.35136,-0.13176,0.0488,0.25376,0.47336
0.19032,-0.1342,0.07808,-0.01708,-0.11224,0.15128,-0.3416,-0.67832,-0.53192,-0.3416,-0.11712,0.1708
-0.08296,0.05856,-0.03416,0.00732,0.0488,-0.06588,-0.22936,-0.67832,-0.62464,-0.4636,-0.25376,-0.01464
-0.13176,0.1098,-0.08784,-0.02196,0.04392,-0.08784,-0.11224,-0.4636,-0.50264,-0.40992,-0.25376,-0.07808
-0.16592,0.11468,-0.06344,0.01952,0.10248,-0.1342,-0.06344,-0.36112,-0.37576,-0.32208,-0.21472,-0.07808
-0.13176,0.10004,-0.06832,-0.00244,0.06344,-0.0976,0.00976,-0.20008,-0.20496,-0.18544,-0.14152,-0.08784
-0.10736,0.09516,-0.08296,-0.02928,0.0244,-0.06588,0.04392,-0.07808,-0.11224,-0.10736,-0.08296,-0.07808
-0.0976,0.09272,-0.08784,-0.03904,0.00976,-0.05368,0.0244,-0.05856,-0.07808,-0.08784,-0.07808,-0.06344
-0.0732,0.07564,-0.07808,-0.04148,-0.00488,-0.03416,0.03416,-0.04392,-0.06344,-0.06832,-0.06832,-0.05368
-0.07808,0.07808,-0.07808,-0.03904,0,-0.03904,0.05368,-0.00976,-0.03904,-0.05856,-0.06344,-0.05368
-0.07808,0.07076,-0.06344,-0.0244,0.01464,-0.04636,0.05368,-0.00488,-0.03416,-0.06344,-0.05368,-0.06344
-0.07808,0.06588,-0.05368,-0.01464,0.0244,-0.05124,0.04392,-0.00488,-0.02928,-0.06344,-0.0488,-0.06344
-0.08296,0.07076,-0.05856,-0.01708,0.0244,-0.05368,0.04392,-0.00488,-0.03904,-0.05368,-0.05368,-0.06344
-0.08296,0.07564,-0.06832,-0.02684,0.01464,-0.0488,0.0488,-0.00488,-0.03904,-0.05368,-0.06832,-0.06344
-0.09272,0.08052,-0.06832,-0.02196,0.0244,-0.05856,0.03904,0.00488,-0.0244,-0.05856,-0.05856,-0.06832
-0.09272,0.08052,-0.06832,-0.02196,0.0244,-0.05856,0.04392,0.00976,-0.01952,-0.05368,-0.05368,-0.06344
-0.07808,0.06588,-0.05368,-0.01464,0.0244,-0.05124,0.03904,0.00976,-0.01464,-0.0488,-0.05856,-0.06344
-0.06832,0.05612,-0.04392,-0.00976,0.0244,-0.04636,0.04392,0.00976,-0.00976,-0.0488,-0.05856,-0.05856
-0.05368,0.05368,-0.05368,-0.02684,0,-0.02684,0.0488,0.0244,0,-0.03416,-0.0488,-0.05856
-0.05368,0.05124,-0.0488,-0.02196,0.00488,-0.02928,0.06344,0.02928,0.00488,-0.01952,-0.03416,-0.05856
-0.06344,0.061,-0.05856,-0.02684,0.00488,-0.03416,0.05368,0.01952,0,-0.0244,-0.03904,-0.04392
-0.0732,0.06588,-0.05856,-0.02196,0.01464,-0.04392,0.04392,0.02928,0.00488,-0.0244,-0.03416,-0.04392
-0.0732,0.061,-0.0488,-0.0122,0.0244,-0.0488,0.04392,0.02928,0.00488,-0.02928,-0.03904,-0.05368
-0.06832,0.05612,-0.04392,-0.00976,0.0244,-0.04636,0.04392,0.03416,0.00976,-0.02928,-0.03416,-0.05368
-0.05856,0.05124,-0.04392,-0.01464,0.01464,-0.0366,0.04392,0.0488,0.01952,-0.00976,-0.02928,-0.03904
-0.05368,0.0488,-0.04392,-0.01708,0.00976,-0.03172,0.04392,0.0488,0.01952,-0.00488,-0.0244,-0.03416
-0.05368,0.05124,-0.0488,-0.02196,0.00488,-0.02928,0.04392,0.05368,0.0244,-0.01464,-0.0244,-0.04392
-0.0488,0.0488,-0.0488,-0.0244,0,-0.0244,0.04392,0.05856,0.0244,-0.00976,-0.01952,-0.04392
-0.04392,0.04148,-0.03904,-0.01708,0.00488,-0.0244,0.05368,0.06344,0.03416,-0.00976,-0.01952,-0.03904
-0.04392,0.04148,-0.03904,-0.01708,0.00488,-0.0244,0.05856,0.06832,0.03904,0,-0.01464,-0.03904
-0.03416,0.02928,-0.0244,-0.00732,0.00976,-0.02196,0.05856,0.0732,0.03416,0.01464,0,-0.03416
-0.02928,0.02684,-0.0244,-0.00976,0.00488,-0.01708,0.05856,0.07808,0.03416,0.01464,0,-0.03416
-0.0244,0.02196,-0.01952,-0.00732,0.00488,-0.01464,0.0488,0.07808,0.05368,0.01952,-0.00488,-0.03416
-0.01952,0.01708,-0.01464,-0.00488,0.00488,-0.0122,0.0488,0.08784,0.05368,0.0244,-0.00488,-0.0244
-0.01952,0.02196,-0.0244,-0.01464,-0.00488,-0.00732,0.0488,0.08784,0.0488,0.02928,0,-0.0244
-0.01464,0.01952,-0.0244,-0.01708,-0.00976,-0.00244,0.0488,0.0976,0.05368,0.03416,0.00488,-0.0244
-0.01952,0.0244,-0.02928,-0.01952,-0.00976,-0.00488,0.0488,0.10248,0.05856,0.02928,0.00976,-0.01952
-0.01464,0.02196,-0.02928,-0.02196,-0.01464,0,0.0488,0.10736,0.06344,0.03416,0.01464,-0.01952
-0.00976,0.0122,-0.01464,-0.00976,-0.00488,-0.00244,0.0488,0.10736,0.06832,0.03904,0.00488,-0.01952
-0.00976,0.01464,-0.01952,-0.01464,-0.00976,0,0.0488,0.11712,0.0732,0.04392,0.00976,-0.01464
0.00976,-0.00244,-0.00488,-0.00976,-0.01464,0.0122,0.0488,0.13176,0.08784,0.04392,0.01952,-0.00976
0.00976,-0.00488,0,-0.00488,-0.00976,0.00976,0.05368,0.13664,0.08784,0.0488,0.03416,-0.00976
0.01464,-0.00732,0,-0.00732,-0.01464,0.01464,0.05368,0.1464,0.09272,0.06344,0.03904,-0.00976
0.01952,-0.00732,-0.00488,-0.01464,-0.0244,0.02196,0.05368,0.15128,0.09272,0.06832,0.03904,-0.00488
0.01464,-0.00244,-0.00976,-0.01708,-0.0244,0.01952,0.05368,0.16104,0.08784,0.05856,0.03416,0
0.01464,-0.00244,-0.00976,-0.01708,-0.0244,0.01952,0.05368,0.1708,0.08784,0.06344,0.03904,0
0.0244,-0.00488,-0.01464,-0.02684,-0.03904,0.03172,0.05368,0.17568,0.08784,0.05368,0.03904,0
0.0244,-0.00488,-0.01464,-0.02684,-0.03904,0.03172,0.05368,0.17568,0.08784,0.05368,0.03904,0
0.02928,-0.01464,0,-0.01464,-0.02928,0.02928,0.05368,0.18544,0.0976,0.06344,0.04392,0.00488
0.03904,-0.02196,0.00488,-0.01464,-0.03416,0.0366,0.05368,0.19032,0.0976,0.06344,0.04392,0.00488
0.03904,-0.02196,0.00488,-0.01464,-0.03416,0.0366,0.05368,0.20008,0.09272,0.05368,0.03416,0.00488
0.04392,-0.0244,0.00488,-0.01708,-0.03904,0.04148,0.05368,0.20496,0.08784,0.05368,0.03416,0.00488
0.04392,-0.01952,-0.00488,-0.02684,-0.0488,0.04636,0.0488,0.1952,0.08296,0.0488,0.03416,0.00488
0.04392,-0.01708,-0.00976,-0.03172,-0.05368,0.0488,0.0488,0.1952,0.0732,0.0488,0.02928,0.00488
0.03416,-0.0122,-0.00976,-0.02684,-0.04392,0.03904,0.0488,0.1952,0.06832,0.04392,0.02928,0.00488
0.03904,-0.01708,-0.00488,-0.0244,-0.04392,0.04148,0.0488,0.1952,0.06832,0.04392,0.02928,0.00488
0.0488,-0.02196,-0.00488,-0.02928,-0.05368,0.05124,0.05368,0.20008,0.06344,0.03904,0.03904,0.00488
0.0488,-0.01952,-0.00976,-0.03416,-0.05856,0.05368,0.0488,0.19032,0.06344,0.03416,0.03904,0.00488
0.04392,-0.02196,0,-0.02196,-0.04392,0.04392,0.03904,0.17568,0.05368,0.03416,0.02928,0.00488
0.0488,-0.0244,0,-0.0244,-0.0488,0.0488,0.03416,0.1708,0.05368,0.03416,0.02928,0.00976
0.05856,-0.03172,0.00488,-0.0244,-0.05368,0.05612,0.03416,0.16592,0.04392,0.03416,0.02928,0.00976
0.05856,-0.03904,0.01952,-0.00976,-0.03904,0.0488,0.03416,0.15616,0.04392,0.02928,0.02928,0.00976
0.0488,-0.02684,0.00488,-0.01952,-0.04392,0.04636,0.0244,0.15616,0.03416,0.03904,0.0244,0.00976
0.0488,-0.02684,0.00488,-0.01952,-0.04392,0.04636,0.02928,0.13176,0.02928,0.03904,0.0244,0.00976
0.03416,-0.01464,-0.00488,-0.02196,-0.03904,0.0366,0.01952,0.11224,0.0244,0.01464,0.01952,0
0.01952,-0.00244,-0.01464,-0.0244,-0.03416,0.02684,0.01464,0.10248,0.0244,0.00976,0.01464,-0.00488
0.01464,0,-0.01464,-0.02196,-0.02928,0.02196,0.01464,0.08784,0.01464,0,0.00488,-0.00488
0.00976,0.00244,-0.01464,-0.01952,-0.0244,0.01708,0.00976,0.0732,0.00488,0,0,-0.00976
0.00976,0,-0.00976,-0.01464,-0.01952,0.01464,0.01952,0.05856,0.00976,0,0.00488,-0.01464
0,0.00488,-0.00976,-0.00976,-0.00976,0.00488,0.01952,0.03416,0,-0.00976,-0.00488,-0.01464
-0.01952,0.02196,-0.0244,-0.01464,-0.00488,-0.00732,0.01464,0.01952,-0.00488,-0.01952,-0.01464,-0.0244
-0.0244,0.0244,-0.0244,-0.0122,0,-0.0122,0.01464,0.00976,-0.00488,-0.0244,-0.01952,-0.0244
-0.03416,0.03416,-0.03416,-0.01708,0,-0.01708,0.00488,0,-0.01952,-0.03416,-0.03416,-0.03416
-0.03904,0.0366,-0.03416,-0.01464,0.00488,-0.02196,0.00488,-0.01464,-0.02928,-0.03904,-0.04392,-0.0488
-0.04392,0.03904,-0.03416,-0.0122,0.00976,-0.02684,0.01464,-0.0244,-0.04392,-0.05856,-0.0488,-0.0488
-0.0488,0.04636,-0.04392,-0.01952,0.00488,-0.02684,0.01464,-0.02928,-0.04392,-0.05856,-0.0488,-0.0488
-0.05368,0.0488,-0.04392,-0.01708,0.00976,-0.03172,0.01464,-0.02928,-0.03904,-0.05856,-0.04392,-0.05368
-0.05856,0.05368,-0.0488,-0.01952,0.00976,-0.03416,0.01464,-0.03416,-0.03904,-0.05856,-0.0488,-0.05368
-0.05856,0.05368,-0.0488,-0.01952,0.00976,-0.03416,0.01464,-0.03904,-0.03904,-0.06832,-0.05856,-0.05368
-0.05856,0.05368,-0.0488,-0.01952,0.00976,-0.03416,0.01464,-0.03904,-0.04392,-0.06832,-0.06344,-0.05856
-0.06832,0.061,-0.05368,-0.01952,0.01464,-0.04148,0.01464,-0.0488,-0.04392,-0.06832,-0.06344,-0.05856
-0.0732,0.061,-0.0488,-0.0122,0.0244,-0.0488,0.01464,-0.0488,-0.04392,-0.06832,-0.06832,-0.06344
-0.06344,0.05612,-0.0488,-0.01708,0.01464,-0.03904,0.01952,-0.03904,-0.0488,-0.0732,-0.07808,-0.05368
-0.06832,0.061,-0.05368,-0.01952,0.01464,-0.04148,0.01952,-0.03904,-0.0488,-0.0732,-0.07808,-0.05368
-0.06832,0.05612,-0.04392,-0.00976,0.0244,-0.04636,0.01952,-0.03904,-0.0488,-0.06344,-0.0732,-0.06344
-0.06832,0.05612,-0.04392,-0.00976,0.0244,-0.04636,0.01952,-0.03904,-0.0488,-0.06344,-0.0732,-0.06344
-0.06832,0.05612,-0.04392,-0.00976,0.0244,-0.04636,0.01952,-0.03904,-0.0488,-0.0732,-0.06832,-0.06344
-0.06832,0.05368,-0.03904,-0.00488,0.02928,-0.0488,0.01952,-0.03416,-0.04392,-0.07808,-0.06832,-0.06832
-0.08296,0.06588,-0.0488,-0.00732,0.03416,-0.05856,0.0244,-0.03416,-0.04392,-0.06832,-0.0732,-0.06832
-0.08296,0.06832,-0.05368,-0.0122,0.02928,-0.05612,0.0244,-0.03416,-0.04392,-0.06832,-0.0732,-0.06832
-0.08296,0.06832,-0.05368,-0.0122,0.02928,-0.05612,0.0244,-0.03416,-0.03904,-0.06832,-0.06344,-0.05856
-0.08296,0.06832,-0.05368,-0.0122,0.02928,-0.05612,0.0244,-0.03416,-0.03904,-0.06344,-0.06344,-0.05856
-0.0732,0.06344,-0.05368,-0.01708,0.01952,-0.04636,0.0244,-0.03904,-0.0488,-0.06832,-0.06832,-0.06344
-0.0732,0.061,-0.0488,-0.0122,0.0244,-0.0488,0.0244,-0.04392,-0.0488,-0.06832,-0.0732,-0.05856
-0.06832,0.05612,-0.04392,-0.00976,0.0244,-0.04636,0.01464,-0.02928,-0.03904,-0.06344,-0.06344,-0.06832
-0.06832,0.05612,-0.04392,-0.00976,0.0244,-0.04636,0.01464,-0.02928,-0.03416,-0.06344,-0.06344,-0.06832
-0.06832,0.05612,-0.04392,-0.00976,0.0244,-0.04636,0.01464,-0.0244,-0.04392,-0.05856,-0.05856,-0.05856
-0.06832,0.05612,-0.04392,-0.00976,0.0244,-0.04636,0.01464,-0.0244,-0.04392,-0.05856,-0.05856,-0.05368
-0.07808,0.061,-0.04392,-0.00488,0.03416,-0.05612,0.01464,-0.03416,-0.03416,-0.06344,-0.06832,-0.06344
-0.07808,0.061,-0.04392,-0.00488,0.03416,-0.05612,0.01464,-0.02928,-0.03416,-0.05856,-0.06832,-0.06832
-0.07808,0.06344,-0.0488,-0.00976,0.02928,-0.05368,0.01952,-0.02928,-0.03416,-0.05856,-0.06832,-0.05856
-0.07808,0.06344,-0.0488,-0.00976,0.02928,-0.05368,0.01952,-0.02928,-0.03416,-0.05856,-0.06344,-0.05368
-0.07808,0.06832,-0.05856,-0.01952,0.01952,-0.0488,0.01952,-0.02928,-0.03416,-0.05856,-0.05368,-0.05368
-0.0732,0.06344,-0.05368,-0.01708,0.01952,-0.04636,0.01952,-0.02928,-0.03416,-0.05368,-0.05368,-0.0488
-0.06344,0.05124,-0.03904,-0.00732,0.0244,-0.04392,0.01952,-0.02928,-0.03416,-0.05856,-0.06344,-0.05856
-0.06832,0.05368,-0.03904,-0.00488,0.02928,-0.0488,0.01952,-0.03904,-0.03904,-0.05856,-0.05856,-0.05856
-0.06832,0.05856,-0.0488,-0.01464,0.01952,-0.04392,0.00976,-0.03904,-0.03904,-0.05856,-0.05856,-0.0488
-0.06832,0.05856,-0.0488,-0.01464,0.01952,-0.04392,0.00976,-0.03904,-0.03904,-0.05856,-0.05856,-0.0488
-0.06832,0.06344,-0.05856,-0.0244,0.00976,-0.03904,0.00976,-0.03904,-0.03904,-0.05856,-0.0488,-0.0488
-0.06832,0.06344,-0.05856,-0.0244,0.00976,-0.03904,0.01464,-0.04392,-0.03904,-0.05856,-0.0488,-0.0488
-0.06344,0.05612,-0.0488,-0.01708,0.01464,-0.03904,0.01464,-0.04392,-0.03904,-0.06344,-0.05856,-0.0488
-0.06344,0.05612,-0.0488,-0.01708,0.01464,-0.03904,0.01464,-0.04392,-0.04392,-0.06344,-0.05856,-0.0488
-0.06832,0.05856,-0.0488,-0.01464,0.01952,-0.04392,0.00488,-0.0488,-0.04392,-0.06344,-0.05368,-0.05368
-0.06832,0.05856,-0.0488,-0.01464,0.01952,-0.04392,0.00976,-0.0488,-0.04392,-0.06344,-0.05368,-0.05368
-0.06344,0.05368,-0.04392,-0.0122,0.01952,-0.04148,0.00976,-0.0488,-0.04392,-0.06344,-0.05368,-0.05368
-0.06344,0.05124,-0.03904,-0.00732,0.0244,-0.04392,0.00976,-0.0488,-0.04392,-0.06344,-0.05368,-0.0488
-0.05368,0.04636,-0.03904,-0.0122,0.01464,-0.03416,0.01952,-0.03904,-0.03416,-0.06344,-0.0488,-0.04392
-0.05368,0.03904,-0.0244,0.00244,0.02928,-0.04148,0.01952,-0.03904,-0.02928,-0.06344,-0.0488,-0.04392
-0.05856,0.04392,-0.02928,0,0.02928,-0.04392,0.0244,-0.03416,-0.01952,-0.05856,-0.03904,-0.04392
-0.05856,0.0366,-0.01464,0.01464,0.04392,-0.05124,0.01952,-0.03416,-0.01464,-0.0488,-0.03904,-0.03416
-0.05368,0.02684,0,0.02684,0.05368,-0.05368,0.0244,-0.04392,-0.01952,-0.03416,-0.03416,-0.03416
-0.04392,0.01952,0.00488,0.02684,0.0488,-0.04636,0.01464,-0.0488,-0.01952,-0.02928,-0.02928,-0.03416
-0.04392,0.01708,0.00976,0.03172,0.05368,-0.0488,-0.00488,-0.0488,-0.01464,-0.03904,-0.0244,-0.03416
-0.03904,0.0122,0.01464,0.03416,0.05368,-0.04636,-0.0244,-0.05368,-0.01464,-0.0488,-0.0244,-0.02928
-0.03904,0.00732,0.0244,0.04392,0.06344,-0.05124,-0.06344,-0.08296,-0.01952,-0.0488,-0.01952,-0.0244
-0.02928,-0.01464,0.05856,0.0732,0.08784,-0.05856,-0.08296,-0.11224,-0.01464,-0.03416,-0.00488,-0.00488
0.00488,-0.0366,0.06832,0.06588,0.06344,-0.02928,-0.10248,-0.10736,-0.01952,-0.0244,0.00488,0.00976
0.01464,-0.03416,0.05368,0.04636,0.03904,-0.0122,-0.0976,-0.0976,-0.01952,-0.02928,0,0.00488
0.01464,-0.02928,0.04392,0.0366,0.02928,-0.00732,-0.0976,-0.08784,-0.01464,-0.0244,0.00488,0.01464
0.03416,-0.04148,0.0488,0.03172,0.01464,0.00976,-0.08784,-0.06832,-0.00488,-0.01952,0.00976,0.0244
0.04392,-0.04392,0.04392,0.02196,0,0.02196,-0.0976,-0.07808,-0.03416,-0.03904,-0.00488,0.01464
0.05368,-0.05124,0.0488,0.02196,-0.00488,0.02928,-0.0976,-0.08296,-0.04392,-0.04392,0,0.01464
0.06344,-0.05612,0.0488,0.01708,-0.01464,0.03904,-0.08296,-0.08296,-0.03416,-0.03416,0,0.01952
0.0488,-0.03416,0.01952,-0.00488,-0.02928,0.03904,-0.0732,-0.08296,-0.0488,-0.04392,-0.00976,0.01464
0.02928,-0.01708,0.00488,-0.00976,-0.0244,0.02684,-0.07808,-0.08296,-0.06344,-0.05856,-0.0244,0.00488
0.00488,-0.00244,0,-0.00244,-0.00488,0.00488,-0.06344,-0.08296,-0.06832,-0.06344,-0.02928,-0.00976
-0.01464,0.00732,0,0.00732,0.01464,-0.01464,-0.04392,-0.0732,-0.05856,-0.06344,-0.0244,-0.01952
-0.03416,0.02684,-0.01952,-0.00244,0.01464,-0.0244,-0.03416,-0.0732,-0.06832,-0.08784,-0.04392,-0.03904
-0.04392,0.0488,-0.05368,-0.03172,-0.00976,-0.01708,-0.01464,-0.06344,-0.0732,-0.08784,-0.05368,-0.0488
-0.0488,0.05856,-0.06832,-0.04392,-0.01952,-0.01464,-0.00488,-0.05856,-0.0732,-0.08784,-0.06344,-0.05856
-0.0488,0.06344,-0.07808,-0.05368,-0.02928,-0.00976,-0.00488,-0.06832,-0.08296,-0.0976,-0.07808,-0.05856
-0.05368,0.06832,-0.08296,-0.05612,-0.02928,-0.0122,0,-0.06832,-0.08296,-0.0976,-0.07808,-0.06344
-0.05856,0.07076,-0.08296,-0.05368,-0.0244,-0.01708,0.00488,-0.06344,-0.08296,-0.0976,-0.07808,-0.0732
-0.06344,0.0732,-0.08296,-0.05124,-0.01952,-0.02196,0.00976,-0.06344,-0.08296,-0.0976,-0.08296,-0.0732
-0.07808,0.08296,-0.08784,-0.0488,-0.00976,-0.03416,0.00976,-0.0488,-0.07808,-0.0976,-0.0732,-0.06344
-0.07808,0.0854,-0.09272,-0.05368,-0.01464,-0.03172,0.00976,-0.0488,-0.07808,-0.0976,-0.0732,-0.06832
-0.07808,0.07808,-0.07808,-0.03904,0,-0.03904,0.01464,-0.0488,-0.07808,-0.0976,-0.0732,-0.06832
-0.08296,0.08052,-0.07808,-0.0366,0.00488,-0.04392,0.01952,-0.0488,-0.08296,-0.0976,-0.0732,-0.06832
-0.0732,0.07808,-0.08296,-0.04636,-0.00976,-0.03172,0.00976,-0.05856,-0.07808,-0.0976,-0.0732,-0.06832
-0.0732,0.07808,-0.08296,-0.04636,-0.00976,-0.03172,0.01464,-0.05368,-0.0732,-0.09272,-0.0732,-0.06832
-0.09272,0.09028,-0.08784,-0.04148,0.00488,-0.0488,0.01464,-0.05856,-0.0732,-0.08784,-0.08296,-0.06832
-0.11224,0.09028,-0.06832,-0.0122,0.04392,-0.07808,0.01952,-0.07808,-0.05368,-0.0732,-0.0732,-0.06832
-0.16104,0.09272,-0.0244,0.05612,0.13664,-0.14884,0.03416,-0.09272,-0.00488,-0.03416,-0.02928,-0.0488
-0.16592,0.06832,0.02928,0.11224,0.1952,-0.18056,0.04392,-0.08784,0.06832,0.04392,0.02928,-0.01952
-0.13176,0.00732,0.11712,0.183,0.24888,-0.19032,0.01464,-0.05368,0.18056,0.18056,0.16104,0.07808
0.03904,-0.11712,0.1952,0.17568,0.15616,-0.05856,0.02928,0.18056,0.3904,0.4148,0.3904,0.25864
0.32208,-0.28792,0.25376,0.09272,-0.06832,0.1952,0.03904,0.46848,0.62952,0.6832,0.6344,0.4636
0.64416,-0.45628,0.2684,-0.05368,-0.37576,0.50996,-0.03416,0.61976,0.79056,0.91744,0.86376,0.64904
0.90768,-0.6222,0.33672,-0.11712,-0.57096,0.73932,-0.18056,0.54168,0.81496,1.04432,1.03456,0.83936
1.12728,-0.78812,0.44896,-0.11468,-0.67832,0.9028,-0.3172,0.43432,0.8052,1.12728,1.20536,1.05896
1.21512,-0.8174,0.41968,-0.18788,-0.79544,1.00528,-0.45384,0.25376,0.55632,0.85888,1.0248,1.03456
0.91256,-0.61244,0.31232,-0.14396,-0.60024,0.7564,-0.44408,-0.0732,0.22448,0.42456,0.59536,0.732
0.60024,-0.41968,0.23912,-0.061,-0.36112,0.48068,-0.40504,-0.38064,-0.13176,0.05856,0.25376,0.4636
0.20008,-0.1342,0.06832,-0.03172,-0.13176,0.16592,-0.35136,-0.69784,-0.54168,-0.36112,-0.11712,0.1708
-0.0732,0.0488,-0.0244,0.0122,0.0488,-0.061,-0.22936,-0.66856,-0.61488,-0.45384,-0.23424,0.01464
-0.14152,0.10492,-0.06832,0.00244,0.0732,-0.10736,-0.122,-0.48312,-0.49288,-0.40016,-0.23424,-0.07808
-0.16592,0.11468,-0.06344,0.01952,0.10248,-0.1342,-0.0732,-0.40016,-0.38552,-0.32208,-0.21472,-0.10736
-0.13176,0.10492,-0.07808,-0.0122,0.05368,-0.09272,0,-0.20984,-0.23424,-0.20496,-0.15128,-0.0976
-0.08784,0.08052,-0.0732,-0.02928,0.01464,-0.05124,0.03416,-0.05856,-0.11224,-0.11712,-0.09272,-0.07808
-0.08784,0.08296,-0.07808,-0.03416,0.00976,-0.0488,0.0244,-0.03904,-0.06832,-0.08784,-0.05856,-0.06344
-0.06344,0.06588,-0.06832,-0.0366,-0.00488,-0.02928,0.03416,-0.04392,-0.06344,-0.07808,-0.05856,-0.05368
-0.06832,0.06832,-0.06832,-0.03416,0,-0.03416,0.05368,-0.01952,-0.03904,-0.06832,-0.05368,-0.05368
-0.06832,0.061,-0.05368,-0.01952,0.01464,-0.04148,0.05368,0.00488,-0.03416,-0.06344,-0.05368,-0.05368
-0.06832,0.061,-0.05368,-0.01952,0.01464,-0.04148,0.04392,0.00488,-0.02928,-0.06344,-0.0488,-0.05368
-0.0732,0.06588,-0.05856,-0.02196,0.01464,-0.04392,0.03416,-0.00488,-0.03904,-0.06344,-0.05368,-0.06344
-0.08296,0.07564,-0.06832,-0.02684,0.01464,-0.0488,0.03904,-0.00488,-0.03904,-0.06344,-0.05856,-0.0732
-0.09272,0.08052,-0.06832,-0.02196,0.0244,-0.05856,0.03904,0.01464,-0.0244,-0.05856,-0.05856,-0.06832
-0.09272,0.08052,-0.06832,-0.02196,0.0244,-0.05856,0.04392,0.01952,-0.01952,-0.05368,-0.05368,-0.06344
-0.07808,0.06588,-0.05368,-0.01464,0.0244,-0.05124,0.0488,0.01952,-0.01464,-0.0488,-0.0488,-0.06344
-0.06832,0.061,-0.05368,-0.01952,0.01464,-0.04148,0.05368,0.01952,-0.00976,-0.0488,-0.0488,-0.05856
-0.06344,0.05856,-0.05368,-0.02196,0.00976,-0.0366,0.0488,0.01464,-0.01952,-0.05368,-0.0488,-0.05856
-0.06344,0.05612,-0.0488,-0.01708,0.01464,-0.03904,0.05368,0.01952,-0.01464,-0.0488,-0.04392,-0.05856
-0.06344,0.05612,-0.0488,-0.01708,0.01464,-0.03904,0.04392,0.02928,0,-0.04392,-0.03904,-0.05368
-0.06344,0.05612,-0.0488,-0.01708,0.01464,-0.03904,0.04392,0.03904,0.00488,-0.04392,-0.03416,-0.05368
-0.06344,0.05612,-0.0488,-0.01708,0.01464,-0.03904,0.05368,0.03904,-0.00488,-0.03904,-0.03904,-0.05368
-0.05856,0.05124,-0.04392,-0.01464,0.01464,-0.0366,0.05368,0.04392,0,-0.03904,-0.03416,-0.05368
-0.05856,0.05612,-0.05368,-0.0244,0.00488,-0.03172,0.05368,0.05856,0.00976,-0.03904,-0.03904,-0.0488
-0.05368,0.05368,-0.05368,-0.02684,0,-0.02684,0.05368,0.05856,0.00976,-0.03416,-0.03416,-0.04392
-0.04392,0.04636,-0.0488,-0.02684,-0.00488,-0.01952,0.04392,0.05368,0.01464,-0.0244,-0.0244,-0.04392
-0.03904,0.04392,-0.0488,-0.02928,-0.00976,-0.01464,0.04392,0.05856,0.01464,-0.01952,-0.01952,-0.04392
-0.04392,0.04636,-0.0488,-0.02684,-0.00488,-0.01952,0.05368,0.06344,0.01464,-0.02928,-0.01952,-0.03904
-0.04392,0.04636,-0.0488,-0.02684,-0.00488,-0.01952,0.05856,0.06832,0.01952,-0.01952,-0.01464,-0.03904
-0.04392,0.04392,-0.04392,-0.02196,0,-0.02196,0.05856,0.06344,0.03416,-0.01464,-0.01952,-0.03416
-0.03904,0.04148,-0.04392,-0.0244,-0.00488,-0.01708,0.05856,0.06832,0.03416,-0.01464,-0.01952,-0.03416
-0.03416,0.0366,-0.03904,-0.02196,-0.00488,-0.01464,0.05856,0.07808,0.04392,0,-0.00488,-0.03416
-0.02928,0.03172,-0.03416,-0.01952,-0.00488,-0.0122,0.05856,0.0976,0.04392,0.00488,-0.00488,-0.0244
-0.01952,0.02196,-0.0244,-0.01464,-0.00488,-0.00732,0.05856,0.0976,0.0488,0.00976,0,-0.0244
-0.01464,0.01952,-0.0244,-0.01708,-0.00976,-0.00244,0.05856,0.10736,0.05368,0.01464,0.00488,-0.0244
-0.01952,0.0244,-0.02928,-0.01952,-0.00976,-0.00488,0.05856,0.11224,0.0488,0.00976,0.00976,-0.01952
-0.01464,0.02196,-0.02928,-0.02196,-0.01464,0,0.05856,0.11712,0.05368,0.01464,0.01464,-0.01952
-0.00976,0.02196,-0.03416,-0.02928,-0.0244,0.00732,0.05856,0.11712,0.05856,0.01952,0.00488,-0.01952
-0.00976,0.0244,-0.03904,-0.03416,-0.02928,0.00976,0.05856,0.12688,0.06344,0.0244,0.00976,-0.01464
0.00976,0.00732,-0.0244,-0.02928,-0.03416,0.02196,0.05856,0.14152,0.06832,0.0244,0.00976,-0.00976
0.00976,0.00488,-0.01952,-0.0244,-0.02928,0.01952,0.06344,0.1464,0.06832,0.02928,0.01464,-0.00976
0.00488,0.0122,-0.02928,-0.03172,-0.03416,0.01952,0.05368,0.15616,0.0732,0.03416,0.01952,-0.00976
0.00976,0.0122,-0.03416,-0.03904,-0.04392,0.02684,0.05368,0.16104,0.0732,0.03904,0.01952,-0.00488
0.01464,0.00244,-0.01952,-0.02684,-0.03416,0.0244,0.06344,0.1708,0.07808,0.03904,0.0244,0
0.01464,0.00244,-0.01952,-0.02684,-0.03416,0.0244,0.06344,0.18056,0.07808,0.04392,0.02928,0
0.03416,-0.01464,-0.00488,-0.02196,-0.03904,0.0366,0.05368,0.17568,0.07808,0.04392,0.02928,0
0.03416,-0.01464,-0.00488,-0.02196,-0.03904,0.0366,0.05368,0.17568,0.07808,0.04392,0.02928,0
0.03904,-0.01952,0,-0.01952,-0.03904,0.03904,0.06344,0.1952,0.07808,0.04392,0.03416,-0.00488
0.0488,-0.02684,0.00488,-0.01952,-0.04392,0.04636,0.06344,0.20008,0.07808,0.04392,0.03416,-0.00488
0.0488,-0.02684,0.00488,-0.01952,-0.04392,0.04636,0.05368,0.20008,0.0732,0.04392,0.03416,-0.00488
0.05368,-0.02928,0.00488,-0.02196,-0.0488,0.05124,0.05368,0.20496,0.06832,0.04392,0.03416,-0.00488
0.04392,-0.01952,-0.00488,-0.02684,-0.0488,0.04636,0.0488,0.20496,0.06344,0.02928,0.0244,-0.00488
0.04392,-0.01708,-0.00976,-0.03172,-0.05368,0.0488,0.0488,0.20496,0.05368,0.02928,0.01952,-0.00488
0.04392,-0.02196,0,-0.02196,-0.04392,0.04392,0.03904,0.1952,0.03904,0.01464,0.01952,0.00488
0.0488,-0.02684,0.00488,-0.01952,-0.04392,0.04636,0.03904,0.1952,0.03904,0.01464,0.01952,0.00488
0.05856,-0.03172,0.00488,-0.0244,-0.05368,0.05612,0.04392,0.20008,0.04392,0.00976,0.02928,0.00488
0.05856,-0.02928,0,-0.02928,-0.05856,0.05856,0.03904,0.19032,0.04392,0.00488,0.02928,0.00488
0.05368,-0.03172,0.00976,-0.01708,-0.04392,0.0488,0.02928,0.17568,0.0244,0.01464,0.01952,-0.00488
0.05856,-0.03416,0.00976,-0.01952,-0.0488,0.05368,0.0244,0.1708,0.0244,0.01464,0.01952,0
0.0488,-0.02684,0.00488,-0.01952,-0.04392,0.04636,0.0244,0.16592,0.0244,0.01464,0.02928,0
0.0488,-0.02928,0.00976,-0.01464,-0.03904,0.04392,0.0244,0.15616,0.0244,0.00976,0.02928,0
0.03904,-0.02196,0.00488,-0.01464,-0.03416,0.0366,0.01464,0.1464,0.01464,0.00976,0.0244,0
0.03904,-0.02196,0.00488,-0.01464,-0.03416,0.0366,0.01952,0.122,0.00976,0.00976,0.0244,0
0.03416,-0.01952,0.00488,-0.0122,-0.02928,0.03172,0.01952,0.11224,0.01464,0.00488,0.01952,0.00976
0.02928,-0.01708,0.00488,-0.00976,-0.0244,0.02684,0.01464,0.10248,0.01464,0,0.01464,0.00488
0.01464,0,-0.01464,-0.02196,-0.02928,0.02196,0.01464,0.07808,-0.00488,-0.01952,0.00488,-0.00488
0.00976,0.00244,-0.01464,-0.01952,-0.0244,0.01708,0.00976,0.06344,-0.01464,-0.01952,0,-0.00976
0,0.01464,-0.02928,-0.02928,-0.02928,0.01464,0.01952,0.05856,-0.00976,-0.02928,-0.00488,-0.01464
-0.00976,0.01952,-0.02928,-0.0244,-0.01952,0.00488,0.01952,0.03416,-0.00976,-0.03904,-0.01464,-0.01464
-0.01952,0.02196,-0.0244,-0.01464,-0.00488,-0.00732,0.00488,0.01952,-0.0244,-0.03904,-0.0244,-0.0244
-0.0244,0.0244,-0.0244,-0.0122,0,-0.0122,0.00488,0.00976,-0.0244,-0.04392,-0.02928,-0.0244
-0.03416,0.03416,-0.03416,-0.01708,0,-0.01708,0.01464,0,-0.03904,-0.06344,-0.04392,-0.04392
-0.03904,0.0366,-0.03416,-0.01464,0.00488,-0.02196,0.01464,-0.01464,-0.0488,-0.06832,-0.05368,-0.05856
-0.05368,0.03904,-0.0244,0.00244,0.02928,-0.04148,0.01464,-0.01464,-0.04392,-0.06832,-0.05856,-0.05856
-0.05856,0.04636,-0.03416,-0.00488,0.0244,-0.04148,0.01464,-0.01952,-0.04392,-0.06832,-0.05856,-0.05856
-0.06344,0.04392,-0.0244,0.00732,0.03904,-0.05124,0.00488,-0.02928,-0.05856,-0.08784,-0.0732,-0.0732
-0.06832,0.0488,-0.02928,0.00488,0.03904,-0.05368,0.00488,-0.04392,-0.05856,-0.08784,-0.07808,-0.0732
-0.05856,0.04392,-0.02928,0,0.02928,-0.04392,0.01464,-0.03904,-0.05856,-0.08784,-0.06832,-0.06344
-0.05856,0.04392,-0.02928,0,0.02928,-0.04392,0.01464,-0.03904,-0.06344,-0.08784,-0.0732,-0.06832
-0.05856,0.04636,-0.03416,-0.00488,0.0244,-0.04148,0.01464,-0.03904,-0.05368,-0.08784,-0.0732,-0.07808
-0.06344,0.04636,-0.02928,0.00244,0.03416,-0.0488,0.01464,-0.03904,-0.05368,-0.08784,-0.07808,-0.08296
-0.06344,0.04636,-0.02928,0.00244,0.03416,-0.0488,0.01952,-0.03904,-0.05856,-0.10248,-0.08784,-0.0732
-0.06832,0.05124,-0.03416,0,0.03416,-0.05124,0.01952,-0.03904,-0.05856,-0.10248,-0.08784,-0.0732
-0.06832,0.05612,-0.04392,-0.00976,0.0244,-0.04636,0.01952,-0.03904,-0.05856,-0.09272,-0.08296,-0.0732
-0.06832,0.05612,-0.04392,-0.00976,0.0244,-0.04636,0.01952,-0.03904,-0.05856,-0.09272,-0.0732,-0.0732
-0.06832,0.05612,-0.04392,-0.00976,0.0244,-0.04636,0.01952,-0.03904,-0.05856,-0.09272,-0.07808,-0.0732
-0.06832,0.05368,-0.03904,-0.00488,0.02928,-0.0488,0.01952,-0.03416,-0.05368,-0.08784,-0.07808,-0.07808
-0.06344,0.05124,-0.03904,-0.00732,0.0244,-0.04392,0.0244,-0.03416,-0.05368,-0.08784,-0.08296,-0.07808
-0.06344,0.05368,-0.04392,-0.0122,0.01952,-0.04148,0.0244,-0.03416,-0.05368,-0.08784,-0.08296,-0.07808
-0.0732,0.05368,-0.03416,0.00244,0.03904,-0.05612,0.0244,-0.03416,-0.0488,-0.08784,-0.08296,-0.06832
-0.0732,0.05368,-0.03416,0.00244,0.03904,-0.05612,0.0244,-0.03416,-0.0488,-0.08296,-0.08296,-0.06832
-0.08296,0.06344,-0.04392,-0.00244,0.03904,-0.061,0.01464,-0.03904,-0.0488,-0.0976,-0.06832,-0.0732
-0.08296,0.061,-0.03904,0.00244,0.04392,-0.06344,0.01464,-0.04392,-0.0488,-0.0976,-0.0732,-0.06832
-0.07808,0.05612,-0.03416,0.00488,0.04392,-0.061,0.0244,-0.02928,-0.0488,-0.08296,-0.0732,-0.06832
-0.07808,0.05612,-0.03416,0.00488,0.04392,-0.061,0.0244,-0.01952,-0.04392,-0.08296,-0.0732,-0.06832
-0.06832,0.05612,-0.04392,-0.00976,0.0244,-0.04636,0.0244,-0.0244,-0.04392,-0.08784,-0.07808,-0.06832
-0.06832,0.05612,-0.04392,-0.00976,0.0244,-0.04636,0.0244,-0.0244,-0.04392,-0.08784,-0.07808,-0.06344
-0.07808,0.061,-0.04392,-0.00488,0.03416,-0.05612,0.0244,-0.03416,-0.04392,-0.08296,-0.06832,-0.0732
-0.07808,0.061,-0.04392,-0.00488,0.03416,-0.05612,0.0244,-0.02928,-0.04392,-0.07808,-0.06832,-0.07808
-0.06832,0.05368,-0.03904,-0.00488,0.02928,-0.0488,0.01952,-0.03904,-0.04392,-0.07808,-0.07808,-0.07808
-0.06832,0.05368,-0.03904,-0.00488,0.02928,-0.0488,0.01952,-0.03904,-0.04392,-0.07808,-0.0732,-0.0732
-0.06832,0.05368,-0.03904,-0.00488,0.02928,-0.0488,0.00976,-0.02928,-0.04392,-0.07808,-0.0732,-0.08296
-0.06344,0.0488,-0.03416,-0.00244,0.02928,-0.04636,0.00976,-0.02928,-0.04392,-0.0732,-0.0732,-0.07808
-0.0732,0.05612,-0.03904,-0.00244,0.03416,-0.05368,0.01952,-0.03904,-0.05368,-0.07808,-0.06344,-0.06832
-0.05856,0.0488,-0.03904,-0.00976,0.01952,-0.03904,0.00976,-0.03904,-0.0488,-0.08784,-0.06832,-0.06832
-0.05856,0.0488,-0.03904,-0.00976,0.01952,-0.03904,0.00976,-0.03904,-0.0488,-0.08784,-0.06832,-0.06832
-0.05856,0.0488,-0.03904,-0.00976,0.01952,-0.03904,0.00976,-0.03904,-0.0488,-0.07808,-0.06832,-0.06832
-0.05856,0.0488,-0.03904,-0.00976,0.01952,-0.03904,0.00976,-0.04392,-0.0488,-0.07808,-0.06832,-0.06832
-0.05368,0.04148,-0.02928,-0.00244,0.0244,-0.03904,0.00488,-0.03416,-0.0488,-0.08784,-0.06832,-0.06832
-0.05368,0.04148,-0.02928,-0.00244,0.0244,-0.03904,0.00488,-0.03416,-0.05368,-0.09272,-0.06832,-0.06832
-0.05856,0.0488,-0.03904,-0.00976,0.01952,-0.03904,0.00976,-0.0488,-0.05368,-0.09272,-0.0732,-0.06832
-0.06344,0.05124,-0.03904,-0.00732,0.0244,-0.04392,0.00488,-0.0488,-0.05368,-0.09272,-0.0732,-0.0732
-0.06344,0.05368,-0.04392,-0.0122,0.01952,-0.04148,0,-0.0488,-0.04392,-0.08296,-0.0732,-0.0732
-0.06344,0.05368,-0.04392,-0.0122,0.01952,-0.04148,0,-0.0488,-0.04392,-0.08296,-0.0732,-0.06832
-0.06344,0.05124,-0.03904,-0.00732,0.0244,-0.04392,0.00976,-0.03904,-0.04392,-0.08296,-0.0732,-0.06344
-0.06344,0.04636,-0.02928,0.00244,0.03416,-0.0488,0.00976,-0.03904,-0.04392,-0.08296,-0.06832,-0.06344
-0.05856,0.03904,-0.01952,0.00976,0.03904,-0.0488,0.01952,-0.03904,-0.03904,-0.07808,-0.06344,-0.0732
-0.05856,0.03416,-0.00976,0.01952,0.0488,-0.05368,0.0244,-0.03416,-0.02928,-0.07808,-0.05856,-0.06832
-0.0488,0.01952,0.00976,0.03416,0.05856,-0.05368,0.00976,-0.03416,-0.0244,-0.06344,-0.05368,-0.06344
-0.03416,0.00976,0.01464,0.03172,0.0488,-0.04148,0.00488,-0.03416,-0.01952,-0.06344,-0.0488,-0.06344
-0.03416,0.00488,0.0244,0.04148,0.05856,-0.04636,0,-0.03904,-0.01952,-0.05856,-0.0488,-0.05856
-0.02928,-0.00244,0.03416,0.0488,0.06344,-0.04636,-0.01464,-0.0488,-0.01464,-0.05856,-0.04392,-0.0488
-0.03416,-0.00488,0.04392,0.061,0.07808,-0.05612,-0.04392,-0.06832,-0.01952,-0.05856,-0.03904,-0.03904
-0.0244,-0.01464,0.05368,0.06588,0.07808,-0.05124,-0.0732,-0.09272,-0.01952,-0.05368,-0.02928,-0.0244
-0.00976,-0.03416,0.07808,0.08296,0.08784,-0.0488,-0.09272,-0.0976,-0.0244,-0.05368,-0.00488,-0.00976
0.00488,-0.03904,0.0732,0.07076,0.06832,-0.03172,-0.10248,-0.0976,-0.02928,-0.05856,-0.00976,-0.01464
0.01952,-0.0366,0.05368,0.04392,0.03416,-0.00732,-0.08784,-0.08784,-0.0244,-0.0488,-0.01464,-0.01464
0.03416,-0.04636,0.05856,0.04148,0.0244,0.00488,-0.08784,-0.07808,-0.0244,-0.05368,-0.00976,-0.00976
0.0488,-0.05124,0.05368,0.02928,0.00488,0.02196,-0.0976,-0.07808,-0.03416,-0.05856,-0.00976,-0.00488
0.05856,-0.05856,0.05856,0.02928,0,0.02928,-0.0976,-0.0732,-0.04392,-0.06832,-0.01464,-0.00488
0.05368,-0.06588,0.07808,0.05124,0.0244,0.01464,-0.08784,-0.08296,-0.05368,-0.06344,-0.01952,-0.00976
0.04392,-0.04636,0.0488,0.02684,0.00488,0.01952,-0.08296,-0.08296,-0.06344,-0.06344,-0.0244,-0.01464
0.02928,-0.03416,0.03904,0.0244,0.00976,0.00976,-0.06832,-0.08296,-0.05856,-0.0732,-0.02928,-0.00488
0.01464,-0.02196,0.02928,0.02196,0.01464,0,-0.05856,-0.08296,-0.06832,-0.08296,-0.03416,-0.01464
0.00488,-0.01464,0.0244,0.02196,0.01952,-0.00732,-0.0488,-0.08296,-0.06832,-0.08296,-0.04392,-0.0244
-0.01464,0.00488,0.00488,0.0122,0.01952,-0.01708,-0.04392,-0.08296,-0.0732,-0.09272,-0.0488,-0.03416
-0.04392,0.0366,-0.02928,-0.00732,0.01464,-0.02928,-0.02928,-0.06832,-0.09272,-0.122,-0.08296,-0.05856
-0.05368,0.05368,-0.05368,-0.02684,0,-0.02684,-0.01464,-0.06344,-0.09272,-0.12688,-0.08784,-0.0732
-0.05856,0.05612,-0.05368,-0.0244,0.00488,-0.03172,-0.01464,-0.06832,-0.09272,-0.11712,-0.09272,-0.08296
-0.06344,0.061,-0.05856,-0.02684,0.00488,-0.03416,-0.01464,-0.06832,-0.09272,-0.12688,-0.0976,-0.09272
-0.06344,0.06832,-0.0732,-0.04148,-0.00976,-0.02684,-0.00976,-0.06344,-0.09272,-0.12688,-0.10736,-0.10248
-0.06832,0.07076,-0.0732,-0.03904,-0.00488,-0.03172,-0.00488,-0.06344,-0.09272,-0.12688,-0.11224,-0.10248
-0.0732,0.0732,-0.0732,-0.0366,0,-0.0366,0.00976,-0.05856,-0.09272,-0.12688,-0.10248,-0.09272
-0.07808,0.07808,-0.07808,-0.03904,0,-0.03904,0.00976,-0.05856,-0.08784,-0.12688,-0.10248,-0.09272
-0.06832,0.07076,-0.0732,-0.03904,-0.00488,-0.03172,0.01464,-0.0488,-0.08784,-0.12688,-0.10248,-0.0976
-0.0732,0.07076,-0.06832,-0.03172,0.00488,-0.03904,0.01952,-0.0488,-0.09272,-0.12688,-0.10248,-0.0976
-0.0732,0.06832,-0.06344,-0.02684,0.00976,-0.04148,0.00976,-0.05856,-0.08784,-0.12688,-0.10248,-0.10736
-0.0732,0.06832,-0.06344,-0.02684,0.00976,-0.04148,0.00976,-0.05368,-0.08296,-0.122,-0.10248,-0.10736
-0.07808,0.07564,-0.0732,-0.03416,0.00488,-0.04148,-0.00488,-0.07808,-0.09272,-0.13664,-0.11224,-0.10736
-0.10248,0.0854,-0.06832,-0.01708,0.03416,-0.06832,0.02928,-0.0488,-0.0732,-0.11712,-0.09272,-0.08784
-0.1464,0.09272,-0.03904,0.03416,0.10736,-0.12688,0.03416,-0.08296,-0.03416,-0.08296,-0.06832,-0.07808
-0.16592,0.07076,0.0244,0.10736,0.19032,-0.17812,0.03416,-0.08296,0.03416,-0.01952,-0.01952,-0.0488
-0.16104,0.03416,0.09272,0.17324,0.25376,-0.2074,0.0244,-0.07808,0.10736,0.0732,0.06832,-0.00976
-0.04392,-0.07808,0.20008,0.22204,0.244,-0.14396,0,0.0244,0.2928,0.2928,0.28304,0.16104
0.18544,-0.2074,0.22936,0.13664,0.04392,0.07076,0.01952,0.30744,0.5124,0.54656,0.51728,0.35624
0.49776,-0.38308,0.2684,0.01952,-0.22936,0.36356,0.01952,0.57584,0.78568,0.854,0.79544,0.59048
0.78568,-0.54656,0.30744,-0.0854,-0.47824,0.63196,-0.122,0.56608,0.82472,0.99064,0.99064,0.7808
1.02968,-0.732,0.43432,-0.08052,-0.59536,0.81252,-0.27328,0.4636,0.854,1.14192,1.20048,1.02968
1.22,-0.84424,0.46848,-0.14152,-0.75152,0.98576,-0.41968,0.3416,0.70272,1.03456,1.1956,1.15168
1.06872,-0.72712,0.38552,-0.14884,-0.6832,0.87596,-0.47336,0.05856,0.33672,0.5856,0.80032,0.91256
0.7564,-0.54412,0.33184,-0.04636,-0.42456,0.59048,-0.44408,-0.22448,0.05368,0.244,0.46848,0.6588
0.3904,-0.29768,0.20496,0.00976,-0.18544,0.28792,-0.40016,-0.56608,-0.38552,-0.20496,0.05368,0.32696
0.01952,-0.04392,0.06832,0.05856,0.0488,-0.01464,-0.30256,-0.70272,-0.59536,-0.41968,-0.14152,0.14152
-0.09272,0.061,-0.02928,0.01708,0.06344,-0.07808,-0.16592,-0.52704,-0.54656,-0.43432,-0.244,-0.02928
-0.15616,0.10248,-0.0488,0.02928,0.10736,-0.13176,-0.09272,-0.42456,-0.4636,-0.39528,-0.23912,-0.0976
-0.1464,0.10004,-0.05368,0.01952,0.09272,-0.11956,-0.03416,-0.2928,-0.30256,-0.29768,-0.20008,-0.10736
-0.13176,0.11224,-0.09272,-0.02684,0.03904,-0.0854,0.01952,-0.11712,-0.18056,-0.1952,-0.14152,-0.10248
-0.0976,0.08296,-0.06832,-0.01952,0.02928,-0.06344,0.03416,-0.03416,-0.09272,-0.11712,-0.08296,-0.08296
-0.06832,0.06832,-0.06832,-0.03416,0,-0.03416,0.0244,-0.0488,-0.08296,-0.11224,-0.08784,-0.08296
-0.06344,0.06588,-0.06832,-0.0366,-0.00488,-0.02928,0.04392,-0.03416,-0.06344,-0.11224,-0.08296,-0.08296
-0.07808,0.06832,-0.05856,-0.01952,0.01952,-0.0488,0.04392,-0.00488,-0.0488,-0.10248,-0.08296,-0.0732
-0.07808,0.06588,-0.05368,-0.01464,0.0244,-0.05124,0.04392,0.00488,-0.03904,-0.10248,-0.08296,-0.0732
-0.08296,0.06832,-0.05368,-0.0122,0.02928,-0.05612,0.03416,-0.00488,-0.0488,-0.09272,-0.07808,-0.08296
-0.08296,0.0732,-0.06344,-0.02196,0.01952,-0.05124,0.03904,-0.00488,-0.0488,-0.09272,-0.0732,-0.08296
-0.0732,0.07076,-0.06832,-0.03172,0.00488,-0.03904,0.0488,0,-0.03904,-0.09272,-0.07808,-0.08296
-0.0732,0.07076,-0.06832,-0.03172,0.00488,-0.03904,0.05368,0.0244,-0.03416,-0.08784,-0.07808,-0.08784
-0.08296,0.06832,-0.05368,-0.0122,0.02928,-0.05612,0.03904,0.01952,-0.02928,-0.07808,-0.0732,-0.09272
-0.07808,0.05856,-0.03904,0,0.03904,-0.05856,0.04392,0.01952,-0.0244,-0.07808,-0.06832,-0.08784
-0.06344,0.05124,-0.03904,-0.00732,0.0244,-0.04392,0.0488,0.0244,-0.01952,-0.0732,-0.06832,-0.07808
-0.06344,0.05368,-0.04392,-0.0122,0.01952,-0.04148,0.05368,0.02928,-0.01952,-0.06832,-0.06344,-0.07808
-0.06344,0.061,-0.05856,-0.02684,0.00488,-0.03416,0.04392,0.03904,-0.01464,-0.06832,-0.05856,-0.07808
-0.06344,0.061,-0.05856,-0.02684,0.00488,-0.03416,0.04392,0.04392,-0.00976,-0.06344,-0.05368,-0.0732
-0.0732,0.06588,-0.05856,-0.02196,0.01464,-0.04392,0.04392,0.03904,-0.00488,-0.06344,-0.05856,-0.0732
-0.06832,0.061,-0.05368,-0.01952,0.01464,-0.04148,0.04392,0.03904,0,-0.05856,-0.05368,-0.0732
-0.05856,0.05124,-0.04392,-0.01464,0.01464,-0.0366,0.04392,0.04392,0,-0.05856,-0.0488,-0.08296
-0.05856,0.05124,-0.04392,-0.01464,0.01464,-0.0366,0.04392,0.0488,0.00976,-0.05856,-0.0488,-0.0732
-0.06344,0.05856,-0.05368,-0.02196,0.00976,-0.0366,0.05368,0.0488,0,-0.05368,-0.05368,-0.0732
-0.05856,0.05368,-0.0488,-0.01952,0.00976,-0.03416,0.05368,0.05856,0.00488,-0.0488,-0.05368,-0.0732
-0.05856,0.05368,-0.0488,-0.01952,0.00976,-0.03416,0.05368,0.05856,0.01952,-0.03904,-0.03904,-0.06344
-0.05368,0.05124,-0.0488,-0.02196,0.00488,-0.02928,0.05856,0.06832,0.02928,-0.02928,-0.03904,-0.05856
-0.05368,0.0488,-0.04392,-0.01708,0.00976,-0.03172,0.05856,0.0732,0.01952,-0.02928,-0.03416,-0.06832
-0.05368,0.0488,-0.04392,-0.01708,0.00976,-0.03172,0.05856,0.07808,0.0244,-0.0244,-0.02928,-0.06344
-0.03416,0.0366,-0.03904,-0.02196,-0.00488,-0.01464,0.0488,0.06832,0.02928,-0.01952,-0.0244,-0.06344
-0.03416,0.02928,-0.0244,-0.00732,0.00976,-0.02196,0.0488,0.06832,0.03416,-0.01464,-0.0244,-0.05856
-0.03904,0.02928,-0.01952,0,0.01952,-0.02928,0.0488,0.08784,0.0488,-0.00976,-0.01952,-0.04392
-0.03416,0.03172,-0.02928,-0.0122,0.00488,-0.01952,0.0488,0.0976,0.0488,-0.00976,-0.01952,-0.04392
-0.0244,0.02928,-0.03416,-0.02196,-0.00976,-0.00732,0.05856,0.10248,0.0488,0,-0.0244,-0.04392
-0.01952,0.0244,-0.02928,-0.01952,-0.00976,-0.00488,0.05856,0.10736,0.05368,0,-0.01952,-0.03904
-0.0244,0.0244,-0.0244,-0.0122,0,-0.0122,0.0488,0.10736,0.06344,0.00488,-0.00488,-0.03904
-0.01952,0.0244,-0.02928,-0.01952,-0.00976,-0.00488,0.0488,0.122,0.06832,0.01464,-0.00488,-0.03416
-0.01464,0.01464,-0.01464,-0.00732,0,-0.00732,0.0488,0.122,0.06832,0.00488,0,-0.03416
-0.00976,0.0122,-0.01464,-0.00976,-0.00488,-0.00244,0.05368,0.122,0.06832,0.00976,0.00488,-0.02928
-0.00488,0.00976,-0.01464,-0.0122,-0.00976,0.00244,0.06344,0.14152,0.08296,0.01952,0.00488,-0.01952
-0.00488,0.01708,-0.02928,-0.02684,-0.0244,0.00976,0.06344,0.1464,0.08296,0.0244,0.00976,-0.01464
0.00488,0.00732,-0.01952,-0.02196,-0.0244,0.01464,0.05368,0.1464,0.07808,0.02928,0.01464,-0.0244
0.00488,0.00732,-0.01952,-0.02196,-0.0244,0.01464,0.05368,0.16104,0.07808,0.03416,0.01464,-0.01952
0.01952,-0.00244,-0.01464,-0.0244,-0.03416,0.02684,0.05368,0.1708,0.07808,0.03416,0.00976,-0.0244
0.0244,-0.00488,-0.01464,-0.02684,-0.03904,0.03172,0.05368,0.17568,0.07808,0.0244,0.00976,-0.03416
0.01952,-0.00732,-0.00488,-0.01464,-0.0244,0.02196,0.05368,0.1708,0.07808,0.0244,0.00976,-0.03416
0.02928,-0.01464,0,-0.01464,-0.02928,0.02928,0.05368,0.18056,0.07808,0.0244,0.01464,-0.03416
0.02928,-0.01464,0,-0.01464,-0.02928,0.02928,0.06344,0.18056,0.08784,0.03416,0.0244,-0.0244
0.02928,-0.00976,-0.00976,-0.0244,-0.03904,0.03416,0.06344,0.18544,0.09272,0.03416,0.0244,-0.00488
0.03416,-0.00976,-0.01464,-0.03172,-0.0488,0.04148,0.05368,0.18544,0.08784,0.0244,0.03416,-0.00488
0.03416,-0.00732,-0.01952,-0.0366,-0.05368,0.04392,0.0488,0.18544,0.08296,0.01952,0.02928,-0.00488
0.0244,-0.00732,-0.00976,-0.02196,-0.03416,0.02928,0.03904,0.17568,0.06344,0.01952,0.01952,-0.01464
0.02928,-0.0122,-0.00488,-0.01952,-0.03416,0.03172,0.03904,0.17568,0.05856,0.01464,0.01952,-0.01464
0.02928,-0.01708,0.00488,-0.00976,-0.0244,0.02684,0.04392,0.1708,0.04392,0.00488,0.01464,-0.0244
0.02928,-0.01708,0.00488,-0.00976,-0.0244,0.02684,0.03904,0.1708,0.04392,-0.00488,0.00488,-0.0244
0.0244,-0.00976,-0.00488,-0.01708,-0.02928,0.02684,0.03904,0.1708,0.03904,0.00488,0.00488,-0.01952
0.02928,-0.0122,-0.00488,-0.01952,-0.03416,0.03172,0.03416,0.16592,0.0488,0.00488,0.01464,-0.00488
0.03904,-0.01708,-0.00488,-0.0244,-0.04392,0.04148,0.02928,0.15616,0.0488,0.00488,0.01952,0
0.03904,-0.01952,0,-0.01952,-0.03904,0.03904,0.0244,0.15128,0.02928,0.00488,0.01952,0
0.03416,-0.01708,0,-0.01708,-0.03416,0.03416,0.0244,0.13176,0.03416,0,0.01952,-0.00976
0.02928,-0.0122,-0.00488,-0.01952,-0.03416,0.03172,0.01464,0.11224,0.0244,0,0.01464,-0.00976
0.02928,-0.0122,-0.00488,-0.01952,-0.03416,0.03172,0.01952,0.10248,0.01952,-0.00976,0.01464,-0.01952
0.0244,-0.00976,-0.00488,-0.01708,-0.02928,0.02684,0.01464,0.08296,0.01464,-0.01952,0.00976,-0.0244
0.00488,0.00488,-0.01464,-0.01708,-0.01952,0.0122,0.01464,0.07808,0.0244,-0.01464,0.01464,-0.01952
-0.00976,0.0122,-0.01464,-0.00976,-0.00488,-0.00244,0.00976,0.06344,0.00976,-0.01952,0,-0.01952
-0.00488,0.00976,-0.01464,-0.0122,-0.00976,0.00244,0.00976,0.05368,0.00488,-0.02928,-0.00976,-0.01952
-0.01464,0.01708,-0.01952,-0.0122,-0.00488,-0.00488,0.00976,0.03416,-0.00488,-0.03416,-0.01952,-0.0244
-0.0244,0.02928,-0.03416,-0.02196,-0.00976,-0.00732,0.00488,0.01952,-0.01952,-0.04392,-0.03904,-0.03904
-0.02928,0.03172,-0.03416,-0.01952,-0.00488,-0.0122,0.00488,0,-0.0244,-0.05368,-0.0488,-0.04392
-0.0488,0.03904,-0.02928,-0.00488,0.01952,-0.03416,0.00488,-0.00488,-0.0244,-0.05856,-0.04392,-0.05368
-0.05856,0.04636,-0.03416,-0.00488,0.0244,-0.04148,0.00488,-0.01952,-0.03416,-0.06832,-0.05856,-0.06344
-0.05368,0.04392,-0.03416,-0.00732,0.01952,-0.0366,0.00488,-0.02928,-0.03904,-0.06832,-0.06344,-0.06832
-0.05368,0.04636,-0.03904,-0.0122,0.01464,-0.03416,0.00488,-0.03904,-0.04392,-0.07808,-0.06832,-0.06832
-0.0732,0.06344,-0.05368,-0.01708,0.01952,-0.04636,0.01464,-0.02928,-0.04392,-0.08296,-0.06832,-0.06832
-0.0732,0.06588,-0.05856,-0.02196,0.01464,-0.04392,0.01464,-0.03416,-0.0488,-0.08784,-0.0732,-0.0732
-0.07808,0.0732,-0.06832,-0.02928,0.00976,-0.04392,0.01464,-0.04392,-0.05856,-0.07808,-0.07808,-0.0732
-0.07808,0.0732,-0.06832,-0.02928,0.00976,-0.04392,0.01464,-0.0488,-0.06344,-0.08784,-0.08296,-0.0732
-0.08784,0.08052,-0.0732,-0.02928,0.01464,-0.05124,0.00488,-0.0488,-0.05368,-0.0976,-0.0732,-0.07808
-0.08784,0.07808,-0.06832,-0.0244,0.01952,-0.05368,0.00488,-0.0488,-0.05368,-0.0976,-0.0732,-0.07808
-0.08784,0.0732,-0.05856,-0.01464,0.02928,-0.05856,0.01464,-0.0488,-0.0488,-0.10248,-0.08784,-0.08296
-0.07808,0.07076,-0.06344,-0.0244,0.01464,-0.04636,0.01952,-0.0488,-0.0488,-0.10248,-0.08784,-0.08296
-0.07808,0.06588,-0.05368,-0.01464,0.0244,-0.05124,0.01952,-0.0488,-0.0488,-0.09272,-0.08296,-0.0732
-0.07808,0.06588,-0.05368,-0.01464,0.0244,-0.05124,0.01952,-0.0488,-0.0488,-0.09272,-0.08296,-0.0732
-0.06832,0.061,-0.05368,-0.01952,0.01464,-0.04148,0.01952,-0.03904,-0.0488,-0.09272,-0.08296,-0.0732
-0.06832,0.05856,-0.0488,-0.01464,0.01952,-0.04392,0.01952,-0.03904,-0.0488,-0.09272,-0.07808,-0.07808
-0.07808,0.06832,-0.05856,-0.01952,0.01952,-0.0488,0.00976,-0.04392,-0.04392,-0.08784,-0.07808,-0.07808
-0.08296,0.0732,-0.06344,-0.02196,0.01952,-0.05124,0.01464,-0.04392,-0.04392,-0.08784,-0.08296,-0.07808
-0.08296,0.06832,-0.05368,-0.0122,0.02928,-0.05612,0.00488,-0.04392,-0.0488,-0.08784,-0.08296,-0.08784
-0.08296,0.06832,-0.05368,-0.0122,0.02928,-0.05612,0.00488,-0.04392,-0.0488,-0.08784,-0.08296,-0.08784
-0.08296,0.0732,-0.06344,-0.02196,0.01952,-0.05124,0.01464,-0.03904,-0.0488,-0.08296,-0.08784,-0.08784
-0.08296,0.07076,-0.05856,-0.01708,0.0244,-0.05368,0.01464,-0.04392,-0.0488,-0.08784,-0.08784,-0.09272
-0.07808,0.07076,-0.06344,-0.0244,0.01464,-0.04636,0.01464,-0.03904,-0.0488,-0.09272,-0.09272,-0.08784
-0.07808,0.07076,-0.06344,-0.0244,0.01464,-0.04636,0.01464,-0.03904,-0.0488,-0.09272,-0.09272,-0.08784
-0.08784,0.07564,-0.06344,-0.01952,0.0244,-0.05612,0.0244,-0.02928,-0.04392,-0.08784,-0.07808,-0.07808
-0.08784,0.07564,-0.06344,-0.01952,0.0244,-0.05612,0.0244,-0.0244,-0.04392,-0.0732,-0.07808,-0.07808
-0.07808,0.06832,-0.05856,-0.01952,0.01952,-0.0488,0.01464,-0.0244,-0.04392,-0.0732,-0.07808,-0.0732
-0.07808,0.06344,-0.0488,-0.00976,0.02928,-0.05368,0.01464,-0.03416,-0.04392,-0.0732,-0.07808,-0.0732
-0.07808,0.06832,-0.05856,-0.01952,0.01952,-0.0488,0.00488,-0.02928,-0.04392,-0.07808,-0.08784,-0.07808
-0.07808,0.07076,-0.06344,-0.0244,0.01464,-0.04636,0,-0.02928,-0.04392,-0.07808,-0.08296,-0.07808
-0.08784,0.07808,-0.06832,-0.0244,0.01952,-0.05368,0.00976,-0.03904,-0.04392,-0.07808,-0.0732,-0.0732
-0.08784,0.07564,-0.06344,-0.01952,0.0244,-0.05612,0.00976,-0.03904,-0.04392,-0.0732,-0.0732,-0.0732
-0.0732,0.06344,-0.05368,-0.01708,0.01952,-0.04636,0.01952,-0.03904,-0.04392,-0.07808,-0.0732,-0.05856
-0.06832,0.06344,-0.05856,-0.0244,0.00976,-0.03904,0,-0.03904,-0.03904,-0.06832,-0.06832,-0.05856
-0.06832,0.06344,-0.05856,-0.0244,0.00976,-0.03904,0,-0.03904,-0.03904,-0.06832,-0.06832,-0.05856
-0.07808,0.0732,-0.06832,-0.02928,0.00976,-0.04392,0.00976,-0.03904,-0.03904,-0.06832,-0.06832,-0.06832
-0.07808,0.0732,-0.06832,-0.02928,0.00976,-0.04392,0.00976,-0.04392,-0.03904,-0.06832,-0.06832,-0.06832
-0.0732,0.06588,-0.05856,-0.02196,0.01464,-0.04392,0.00488,-0.04392,-0.0488,-0.07808,-0.07808,-0.06832
-0.0732,0.06588,-0.05856,-0.02196,0.01464,-0.04392,0.00488,-0.04392,-0.05368,-0.08296,-0.07808,-0.06832
-0.0732,0.06588,-0.05856,-0.02196,0.01464,-0.04392,0.00976,-0.0488,-0.05368,-0.08296,-0.08296,-0.07808
-0.06832,0.06344,-0.05856,-0.0244,0.00976,-0.03904,0.00488,-0.0488,-0.05368,-0.08296,-0.08296,-0.08296
-0.08296,0.0732,-0.06344,-0.02196,0.01952,-0.05124,0.00976,-0.0488,-0.05368,-0.08296,-0.08296,-0.08296
-0.08296,0.0732,-0.06344,-0.02196,0.01952,-0.05124,0.00976,-0.0488,-0.05368,-0.08296,-0.08296,-0.07808
-0.0732,0.06588,-0.05856,-0.02196,0.01464,-0.04392,0.00976,-0.0488,-0.05368,-0.0732,-0.09272,-0.0732
-0.0732,0.061,-0.0488,-0.0122,0.0244,-0.0488,0.00976,-0.0488,-0.05368,-0.0732,-0.08784,-0.0732
-0.06832,0.05368,-0.03904,-0.00488,0.02928,-0.0488,0.01952,-0.0488,-0.0488,-0.07808,-0.0732,-0.0732
-0.06832,0.0488,-0.02928,0.00488,0.03904,-0.05368,0.0244,-0.04392,-0.03904,-0.07808,-0.06832,-0.06832
-0.07808,0.0488,-0.01952,0.01952,0.05856,-0.06832,0.01952,-0.04392,-0.03416,-0.06344,-0.06344,-0.05368
-0.06344,0.03904,-0.01464,0.01708,0.0488,-0.05612,0.01464,-0.04392,-0.02928,-0.06344,-0.05856,-0.05368
-0.06344,0.03904,-0.01464,0.01708,0.0488,-0.05612,0,-0.0488,-0.01952,-0.05856,-0.05856,-0.0488
-0.05856,0.03172,-0.00488,0.0244,0.05368,-0.05612,-0.01464,-0.05856,-0.01464,-0.05856,-0.05368,-0.03904
