i,aVR,ii,aVF,iii,aVL,V1,V2,V3,V4,V5,V6
-0.11712,0.05612,0.00488,0.06344,0.122,-0.11956,0.03416,0,0.04392,-0.02928,-0.03904,-0.00488
-0.11712,0.05856,0,0.05856,0.11712,-0.11712,0.03416,0,0.04392,-0.0244,-0.03904,-0.00488
-0.11712,0.05368,0.00976,0.06832,0.12688,-0.122,0.03904,0.00976,0.05368,-0.0244,-0.03416,0.00488
-0.11224,0.04636,0.01952,0.07564,0.13176,-0.122,0.04392,0.00976,0.05368,-0.0244,-0.03416,0.00976
-0.10736,0.04392,0.01952,0.0732,0.12688,-0.11712,0.0488,0.01464,0.0488,-0.03416,-0.05368,0.00976
-0.10736,0.04392,0.01952,0.0732,0.12688,-0.11712,0.04392,0.01464,0.05368,-0.02928,-0.04392,0.00976
-0.11224,0.05368,0.00488,0.061,0.11712,-0.11468,0.04392,0.00488,0.0488,-0.03416,-0.05368,0
-0.11224,0.05368,0.00488,0.061,0.11712,-0.11468,0.04392,0.00976,0.0488,-0.03416,-0.05856,0
-0.11224,0.0488,0.01464,0.07076,0.12688,-0.11956,0.05368,0.01464,0.04392,-0.02928,-0.05856,0
-0.10248,0.04392,0.01464,0.06588,0.11712,-0.1098,0.0488,0.01952,0.03904,-0.02928,-0.05368,0
-0.11224,0.05612,0,0.05612,0.11224,-0.11224,0.05856,0.01952,0.0488,-0.03904,-0.04392,0
-0.12688,0.05856,0.00976,0.0732,0.13664,-0.13176,0.05368,0.01952,0.0488,-0.03904,-0.03904,-0.00488
-0.122,0.061,0,0.061,0.122,-0.122,0.04392,0.01464,0.0488,-0.02928,-0.04392,-0.00976
-0.122,0.061,0,0.061,0.122,-0.122,0.04392,0.01464,0.0488,-0.02928,-0.05368,-0.00488
-0.122,0.06344,-0.00488,0.05612,0.11712,-0.11956,0.05368,0.01952,0.05368,-0.02928,-0.03904,0
-0.11224,0.05124,0.00976,0.06588,0.122,-0.11712,0.05368,0.01464,0.05856,-0.0244,-0.03904,0.00976
-0.10736,0.0488,0.00976,0.06344,0.11712,-0.11224,0.04392,0.01464,0.0488,-0.02928,-0.03416,0.00976
-0.11712,0.05368,0.00976,0.06832,0.12688,-0.122,0.04392,0.01464,0.0488,-0.03904,-0.03416,0.00976
-0.10248,0.04636,0.00976,0.061,0.11224,-0.10736,0.04392,0.00488,0.0488,-0.03904,-0.03416,0.01464
-0.10736,0.04392,0.01952,0.0732,0.12688,-0.11712,0.04392,0.00976,0.0488,-0.04392,-0.03416,0.01464
-0.10736,0.04636,0.01464,0.06832,0.122,-0.11468,0.0488,0.01464,0.05368,-0.0488,-0.04392,0.01464
-0.10736,0.04392,0.01952,0.0732,0.12688,-0.11712,0.04392,0.01952,0.05368,-0.0488,-0.03904,0.01952
-0.11224,0.05124,0.00976,0.06588,0.122,-0.11712,0.04392,0.00976,0.04392,-0.05856,-0.03904,0.01952
-0.122,0.061,0,0.061,0.122,-0.122,0.04392,0.01464,0.04392,-0.05856,-0.03416,0.01952
-0.11712,0.05612,0.00488,0.06344,0.122,-0.11956,0.03904,0.01464,0.05368,-0.0488,-0.0488,0.01464
-0.11224,0.05368,0.00488,0.061,0.11712,-0.11468,0.03416,0.01464,0.05368,-0.0488,-0.0488,0.00488
-0.10248,0.04148,0.01952,0.07076,0.122,-0.11224,0.03416,0.01464,0.05368,-0.04392,-0.0488,0
-0.12688,0.06344,0,0.06344,0.12688,-0.12688,0.03904,0,0.0488,-0.05368,-0.05368,0.01952
-0.12688,0.06344,0,0.06344,0.12688,-0.12688,0.03904,0,0.0488,-0.04392,-0.04392,0.01952
-0.11224,0.0488,0.01464,0.07076,0.12688,-0.11956,0.03904,0.00488,0.05856,-0.03904,-0.02928,0.02928
-0.10248,0.03904,0.0244,0.07564,0.12688,-0.11468,0.03904,0.01464,0.05856,-0.03904,-0.02928,0.02928
-0.0976,0.03904,0.01952,0.06832,0.11712,-0.10736,0.0488,0.01952,0.0488,-0.04392,-0.02928,0.0244
-0.11224,0.04636,0.01952,0.07564,0.13176,-0.122,0.0488,0.01952,0.05368,-0.05368,-0.03416,0.01464
-0.11712,0.05856,0,0.05856,0.11712,-0.11712,0.0488,0.00976,0.0488,-0.06344,-0.03416,0.00488
-0.11712,0.061,-0.00488,0.05368,0.11224,-0.11468,0.0488,0.00976,0.04392,-0.05856,-0.03416,0.00488
-0.12688,0.06588,-0.00488,0.05856,0.122,-0.12444,0.03904,0.00976,0.04392,-0.05368,-0.03904,0.01464
-0.12688,0.06344,0,0.06344,0.12688,-0.12688,0.03904,0.00976,0.04392,-0.05368,-0.03904,0.01464
-0.12688,0.06344,0,0.06344,0.12688,-0.12688,0.0488,0.01952,0.0488,-0.05368,-0.03904,0.00976
-0.122,0.061,0,0.061,0.122,-0.122,0.04392,0.01464,0.0488,-0.04392,-0.04392,0.00976
-0.122,0.06344,-0.00488,0.05612,0.11712,-0.11956,0.03416,0.01464,0.05368,-0.05368,-0.03904,0
-0.11224,0.04636,0.01952,0.07564,0.13176,-0.122,0.03416,0.01464,0.05368,-0.0488,-0.03904,0.01464
-0.122,0.05124,0.01952,0.08052,0.14152,-0.13176,0.04392,0.00976,0.04392,-0.0488,-0.03416,0.00488
-0.122,0.05368,0.01464,0.07564,0.13664,-0.12932,0.03904,0.00976,0.0488,-0.04392,-0.04392,0.00488
-0.11712,0.05124,0.01464,0.0732,0.13176,-0.12444,0.0488,0.00976,0.05856,-0.03904,-0.03416,0.0244
-0.11712,0.05124,0.01464,0.0732,0.13176,-0.12444,0.0488,0.00976,0.06344,-0.03416,-0.03416,0.02928
-0.11712,0.04148,0.03416,0.09272,0.15128,-0.1342,0.03416,0,0.06832,-0.02928,-0.0244,0.04392
-0.10736,0.03172,0.04392,0.0976,0.15128,-0.12932,0.0244,-0.00976,0.08296,-0.01464,-0.00976,0.04392
-0.10248,0.0244,0.05368,0.10492,0.15616,-0.12932,0.00976,-0.0244,0.10248,-0.00488,0.00976,0.05856
-0.10248,0.01464,0.0732,0.12444,0.17568,-0.13908,0.00488,-0.02928,0.10736,0.00488,0.00976,0.05856
-0.11224,0.01708,0.07808,0.1342,0.19032,-0.15128,0,-0.03416,0.10248,0.00488,0,0.05856
-0.0976,0.0122,0.0732,0.122,0.1708,-0.1342,-0.00488,-0.03416,0.09272,0,0,0.05856
-0.0976,0.01708,0.06344,0.11224,0.16104,-0.12932,-0.01952,-0.0244,0.07808,-0.01464,-0.01464,0.04392
-0.0976,0.02196,0.05368,0.10248,0.15128,-0.12444,-0.03416,-0.02928,0.06832,-0.0244,-0.02928,0.03416
-0.08296,0.0244,0.03416,0.07564,0.11712,-0.10004,-0.03416,-0.0244,0.0488,-0.03416,-0.0244,0.0244
-0.06344,0.01952,0.0244,0.05612,0.08784,-0.07564,-0.0488,-0.01952,0.03904,-0.03904,-0.01952,0.0244
-0.06344,0.02684,0.00976,0.04148,0.0732,-0.06832,-0.05368,-0.01952,0.0244,-0.05856,-0.02928,0.0244
-0.0732,0.03172,0.00976,0.04636,0.08296,-0.07808,-0.0488,-0.02928,0,-0.05856,-0.02928,0.0244
-0.06832,0.02928,0.00976,0.04392,0.07808,-0.0732,-0.03904,-0.01952,0,-0.06344,-0.0244,0.01464
-0.0488,0.02196,0.00488,0.02928,0.05368,-0.05124,-0.03416,-0.02928,-0.01464,-0.08296,-0.0244,0.00976
-0.02928,0.01464,0,0.01464,0.02928,-0.02928,-0.02928,-0.01464,-0.01952,-0.07808,-0.01464,0.01952
-0.01464,0.00244,0.00976,0.01708,0.0244,-0.01952,-0.0244,-0.00488,-0.00976,-0.08296,-0.01952,0.00976
-0.01952,0.00244,0.01464,0.0244,0.03416,-0.02684,-0.01952,-0.00488,-0.00976,-0.08784,-0.01952,0.00488
-0.0244,0.00244,0.01952,0.03172,0.04392,-0.03416,-0.00488,-0.00976,-0.00976,-0.08784,-0.01952,0.00488
-0.02928,0.00732,0.01464,0.02928,0.04392,-0.0366,-0.00976,-0.01952,-0.00976,-0.09272,-0.01952,0.00488
-0.04392,0.01952,0.00488,0.02684,0.0488,-0.04636,-0.00488,-0.00976,-0.00488,-0.09272,-0.01952,0.00488
-0.06344,0.0366,-0.00976,0.02196,0.05368,-0.05856,0.01952,0,0.01952,-0.07808,-0.0244,0.01464
-0.0732,0.03416,0.00488,0.04148,0.07808,-0.07564,0.02928,0.00488,0.01952,-0.07808,-0.01952,0.01464
-0.10248,0.05368,-0.00488,0.04636,0.0976,-0.10004,0.04392,0.01464,0.01952,-0.08296,-0.03416,0.00488
-0.11712,0.06344,-0.00976,0.0488,0.10736,-0.11224,0.05368,0.01952,0.01952,-0.06832,-0.04392,0.00488
-0.122,0.06832,-0.01464,0.04636,0.10736,-0.11468,0.04392,0.02928,0.02928,-0.06832,-0.0488,0.00488
-0.13176,0.0732,-0.01464,0.05124,0.11712,-0.12444,0.04392,0.02928,0.02928,-0.06832,-0.04392,0.00488
-0.12688,0.06832,-0.00976,0.05368,0.11712,-0.122,0.0488,0.03416,0.02928,-0.05856,-0.02928,0.01464
-0.122,0.061,0,0.061,0.122,-0.122,0.05368,0.03416,0.03416,-0.05856,-0.0244,0.01464
-0.10736,0.05612,-0.00488,0.0488,0.10248,-0.10492,0.0488,0.04392,0.03416,-0.05856,-0.0244,0.01464
-0.11712,0.061,-0.00488,0.05368,0.11224,-0.11468,0.0488,0.03904,0.03416,-0.05856,-0.02928,0.01952
-0.13176,0.07076,-0.00976,0.05612,0.122,-0.12688,0.06344,0.03416,0.04392,-0.0488,-0.02928,0.01952
-0.13176,0.06344,0.00488,0.07076,0.13664,-0.1342,0.05368,0.03904,0.0488,-0.03904,-0.01952,0.03416
-0.13664,0.05368,0.02928,0.0976,0.16592,-0.15128,0.06832,0.05856,0.11224,0.02928,0.01952,0.08784
-0.0488,-0.0244,0.0976,0.122,0.1464,-0.0976,0.06832,0.09272,0.20984,0.13176,0.10736,0.18056
0.02928,-0.09272,0.15616,0.14152,0.12688,-0.0488,0.0244,0.04392,0.22448,0.17568,0.244,0.2928
0.20496,-0.20252,0.20008,0.0976,-0.00488,0.10492,-0.06832,-0.0244,0.21472,0.19032,0.41968,0.3904
0.46848,-0.3416,0.21472,-0.01952,-0.25376,0.36112,-0.20496,-0.13664,0.08296,0.08784,0.55632,0.42456
0.76616,-0.50996,0.25376,-0.12932,-0.5124,0.63928,-0.3904,-0.25864,-0.0488,0.03416,0.75152,0.51728
1.09312,-0.69052,0.28792,-0.25864,-0.8052,0.94916,-0.5612,-0.38064,-0.1464,-0.02928,0.91256,0.58072
1.2688,-0.77592,0.28304,-0.35136,-0.98576,1.12728,-0.69784,-0.5124,-0.37088,-0.22936,0.94184,0.5124
1.24928,-0.74908,0.24888,-0.37576,-1.0004,1.12484,-0.71248,-0.52704,-0.49776,-0.39528,0.77104,0.3416
1.04432,-0.57828,0.11224,-0.40992,-0.93208,0.9882,-0.57096,-0.38552,-0.58072,-0.57096,0.35624,0.0244
0.64416,-0.30012,-0.04392,-0.366,-0.68808,0.66612,-0.366,-0.23912,-0.60512,-0.6588,0.05368,-0.16592
0.26352,-0.02928,-0.20496,-0.33672,-0.46848,0.366,-0.10736,0.01952,-0.47336,-0.64416,-0.22448,-0.30744
0.0488,0.14884,-0.34648,-0.37088,-0.39528,0.22204,0.03416,0.19032,-0.44896,-0.66368,-0.42944,-0.45384
0.0488,0.183,-0.4148,-0.4392,-0.4636,0.2562,0.07808,0.27816,-0.43432,-0.64416,-0.5124,-0.52216
0.01464,0.22692,-0.46848,-0.4758,-0.48312,0.24888,0.122,0.3904,-0.41968,-0.62952,-0.55144,-0.54168
-0.03416,0.23912,-0.44408,-0.427,-0.40992,0.18788,0.15128,0.42456,-0.40016,-0.58072,-0.50264,-0.488
-0.04392,0.20008,-0.35624,-0.33428,-0.31232,0.1342,0.1464,0.39528,-0.28304,-0.4392,-0.41968,-0.3904
-0.04392,0.15372,-0.26352,-0.24156,-0.2196,0.08784,0.122,0.33672,-0.18056,-0.30744,-0.3172,-0.28304
-0.06832,0.1098,-0.15128,-0.11712,-0.08296,0.00732,0.10248,0.28304,-0.10736,-0.2196,-0.22448,-0.1708
-0.08296,0.10736,-0.13176,-0.09028,-0.0488,-0.01708,0.11224,0.244,-0.03904,-0.16592,-0.16592,-0.10736
-0.10248,0.09272,-0.08296,-0.03172,0.01952,-0.061,0.11224,0.20008,0,-0.13176,-0.13176,-0.06832
-0.09272,0.07564,-0.05856,-0.0122,0.03416,-0.06344,0.10248,0.14152,0.01464,-0.09272,-0.0976,-0.05856
-0.122,0.08296,-0.04392,0.01708,0.07808,-0.10004,0.09272,0.10736,0.01952,-0.08296,-0.0732,-0.0244
-0.13664,0.09028,-0.04392,0.0244,0.09272,-0.11468,0.09272,0.08784,0.01952,-0.07808,-0.0732,-0.01952
-0.14152,0.09028,-0.03904,0.03172,0.10248,-0.122,0.08784,0.07808,0.0244,-0.0732,-0.06832,-0.01464
-0.13664,0.07808,-0.01952,0.0488,0.11712,-0.12688,0.0732,0.06344,0.03904,-0.05368,-0.0488,-0.00976
-0.13664,0.0732,-0.00976,0.05856,0.12688,-0.13176,0.0732,0.0488,0.03904,-0.0488,-0.03904,0.00488
-0.13176,0.06588,0,0.06588,0.13176,-0.13176,0.08296,0.05856,0.03904,-0.05856,-0.0488,-0.00488
-0.11712,0.05856,0,0.05856,0.11712,-0.11712,0.07808,0.05856,0.03904,-0.06344,-0.0488,-0.00976
-0.11712,0.061,-0.00488,0.05368,0.11224,-0.11468,0.06832,0.05368,0.04392,-0.05368,-0.04392,-0.00976
-0.12688,0.06344,0,0.06344,0.12688,-0.12688,0.06832,0.03904,0.04392,-0.05368,-0.03904,-0.00976
-0.12688,0.06832,-0.00976,0.05368,0.11712,-0.122,0.06832,0.03416,0.04392,-0.06344,-0.03904,-0.00488
-0.12688,0.06588,-0.00488,0.05856,0.122,-0.12444,0.06832,0.04392,0.0488,-0.06344,-0.03416,0
-0.122,0.05612,0.00976,0.07076,0.13176,-0.12688,0.06832,0.03416,0.05856,-0.05368,-0.0244,0.01464
-0.122,0.05612,0.00976,0.07076,0.13176,-0.12688,0.06832,0.03416,0.05368,-0.04392,-0.0244,0.01464
-0.122,0.061,0,0.061,0.122,-0.122,0.0732,0.03416,0.05368,-0.04392,-0.01952,0.00976
-0.12688,0.06344,0,0.06344,0.12688,-0.12688,0.06832,0.03904,0.05856,-0.03904,-0.03416,0.00976
-0.122,0.05612,0.00976,0.07076,0.13176,-0.12688,0.06832,0.03416,0.0488,-0.0488,-0.0244,0.0244
-0.11712,0.05124,0.01464,0.0732,0.13176,-0.12444,0.06832,0.03416,0.0488,-0.0488,-0.0244,0.0244
-0.11224,0.0488,0.01464,0.07076,0.12688,-0.11956,0.06832,0.03904,0.0488,-0.03904,-0.02928,0.03416
-0.11224,0.05124,0.00976,0.06588,0.122,-0.11712,0.05856,0.03904,0.0488,-0.04392,-0.02928,0.03904
-0.10736,0.04636,0.01464,0.06832,0.122,-0.11468,0.05856,0.03416,0.0488,-0.04392,-0.01952,0.02928
-0.11224,0.05368,0.00488,0.061,0.11712,-0.11468,0.05368,0.03416,0.04392,-0.04392,-0.01952,0.02928
-0.11224,0.05124,0.00976,0.06588,0.122,-0.11712,0.05368,0.02928,0.05368,-0.04392,-0.01464,0.02928
-0.0976,0.04392,0.00976,0.05856,0.10736,-0.10248,0.05368,0.02928,0.05368,-0.03904,-0.01464,0.02928
-0.0976,0.04636,0.00488,0.05368,0.10248,-0.10004,0.03904,0.02928,0.0488,-0.0488,-0.00976,0.0244
-0.0976,0.04636,0.00488,0.05368,0.10248,-0.10004,0.03904,0.02928,0.03416,-0.05368,-0.00976,0.0244
-0.0976,0.04148,0.01464,0.06344,0.11224,-0.10492,0.04392,0.0244,0.03416,-0.03904,-0.01952,0.01952
-0.07808,0.02684,0.0244,0.06344,0.10248,-0.09028,0.03904,0.0244,0.04392,-0.04392,-0.00976,0.01952
-0.06344,0.0122,0.03904,0.07076,0.10248,-0.08296,0.02928,0.0244,0.03416,-0.04392,0.00488,0.0244
-0.0488,0.00244,0.04392,0.06832,0.09272,-0.07076,0.0244,0.01952,0.03416,-0.03904,0.00488,0.03904
-0.05368,0.00488,0.04392,0.07076,0.0976,-0.07564,0.01464,0.00976,0.02928,-0.0488,-0.00488,0.03416
-0.05856,0.0122,0.03416,0.06344,0.09272,-0.07564,0.01464,0.00976,0.02928,-0.04392,0,0.03904
-0.05368,0.00976,0.03416,0.061,0.08784,-0.07076,0.01464,0.00976,0.0244,-0.03416,0.00976,0.0488
-0.03416,-0.00488,0.04392,0.061,0.07808,-0.05612,0.00976,0.01464,0.0244,-0.03416,0.01464,0.06344
-0.01464,-0.01708,0.0488,0.05612,0.06344,-0.03904,0.00488,0.00488,0.02928,-0.04392,0.0244,0.05368
0,-0.02684,0.05368,0.05368,0.05368,-0.02684,-0.00488,0,0.01952,-0.04392,0.03904,0.05856
0.00488,-0.03172,0.05856,0.05612,0.05368,-0.0244,-0.01464,-0.00488,0.01464,-0.05368,0.04392,0.05856
0.0244,-0.04392,0.06344,0.05124,0.03904,-0.00732,-0.0244,-0.01464,0.00976,-0.05368,0.05368,0.05856
0.0488,-0.061,0.0732,0.0488,0.0244,0.0122,-0.02928,-0.01952,0.01464,-0.06344,0.06344,0.06344
0.05368,-0.07076,0.08784,0.061,0.03416,0.00976,-0.0488,-0.0244,0.00488,-0.06344,0.06832,0.0732
0.06832,-0.07564,0.08296,0.0488,0.01464,0.02684,-0.05368,-0.03416,0,-0.0488,0.06344,0.08784
0.06832,-0.07076,0.0732,0.03904,0.00488,0.03172,-0.05856,-0.04392,0,-0.0488,0.0732,0.09272
0.07808,-0.08296,0.08784,0.0488,0.00976,0.03416,-0.06344,-0.03904,-0.00488,-0.0488,0.08784,0.0976
0.0976,-0.10004,0.10248,0.05368,0.00488,0.04636,-0.08296,-0.03904,0,-0.04392,0.08784,0.0976
0.11224,-0.1098,0.10736,0.05124,-0.00488,0.05856,-0.08296,-0.03904,0,-0.04392,0.08784,0.0976
0.122,-0.11956,0.11712,0.05612,-0.00488,0.06344,-0.08296,-0.04392,0,-0.04392,0.0976,0.09272
0.13176,-0.12444,0.11712,0.05124,-0.01464,0.0732,-0.08784,-0.05368,0,-0.04392,0.10248,0.08296
0.13176,-0.12444,0.11712,0.05124,-0.01464,0.0732,-0.08784,-0.05368,0,-0.03904,0.10248,0.07808
0.12688,-0.11956,0.11224,0.0488,-0.01464,0.07076,-0.0976,-0.05368,0,-0.03904,0.0976,0.09272
0.122,-0.11224,0.10248,0.04148,-0.01952,0.07076,-0.0976,-0.05368,0.00488,-0.03904,0.08784,0.10248
0.11712,-0.11224,0.10736,0.0488,-0.00976,0.06344,-0.0976,-0.05856,0.00488,-0.0244,0.08784,0.10248
0.11224,-0.1098,0.10736,0.05124,-0.00488,0.05856,-0.09272,-0.06344,0.00488,-0.01952,0.0976,0.10248
0.10248,-0.10736,0.11224,0.061,0.00976,0.04636,-0.09272,-0.06832,0.00976,-0.01952,0.09272,0.0976
0.08296,-0.09516,0.10736,0.06588,0.0244,0.02928,-0.08784,-0.05856,0.01464,-0.01952,0.09272,0.0976
0.08784,-0.0976,0.10736,0.06344,0.01952,0.03416,-0.08296,-0.0488,0.01952,-0.00976,0.09272,0.0976
0.06344,-0.0854,0.10736,0.07564,0.04392,0.00976,-0.0732,-0.04392,0.01952,0,0.09272,0.10248
0.04392,-0.06832,0.09272,0.07076,0.0488,-0.00244,-0.05856,-0.03904,0.01952,-0.01464,0.0976,0.10248
0.02928,-0.05856,0.08784,0.0732,0.05856,-0.01464,-0.0488,-0.03416,0.03416,-0.01464,0.08784,0.0976
0.00976,-0.03904,0.06832,0.06344,0.05856,-0.0244,-0.0488,-0.02928,0.03416,-0.00976,0.08296,0.08784
-0.00488,-0.03172,0.06832,0.07076,0.0732,-0.03904,-0.03904,-0.0244,0.03416,-0.01464,0.07808,0.07808
-0.01464,-0.0244,0.06344,0.07076,0.07808,-0.04636,-0.01464,-0.01464,0.03416,-0.01952,0.06344,0.0732
-0.0244,-0.02196,0.06832,0.08052,0.09272,-0.05856,-0.00488,-0.00488,0.03416,-0.01952,0.0488,0.06832
-0.04392,-0.00976,0.06344,0.0854,0.10736,-0.07564,0.00488,0,0.0488,-0.00976,0.04392,0.06832
-0.05368,-0.00488,0.06344,0.09028,0.11712,-0.0854,0.00488,0,0.0488,-0.00488,0.03416,0.06832
-0.06832,0.00976,0.0488,0.08296,0.11712,-0.09272,0.0244,0.00976,0.05368,-0.00976,0.03904,0.0732
-0.07808,0.01464,0.0488,0.08784,0.12688,-0.10248,0.0244,0.01952,0.05368,-0.00976,0.02928,0.0732
-0.09272,0.02684,0.03904,0.0854,0.13176,-0.11224,0.01952,0.0244,0.05368,-0.01464,0.0244,0.05368
-0.09272,0.02928,0.03416,0.08052,0.12688,-0.1098,0.02928,0.02928,0.05368,-0.01952,0.0244,0.04392
-0.10248,0.03904,0.0244,0.07564,0.12688,-0.11468,0.03904,0.02928,0.06344,-0.01464,0.00488,0.02928
-0.11224,0.04392,0.0244,0.08052,0.13664,-0.12444,0.03904,0.02928,0.06344,-0.01952,0,0.0244
-0.10736,0.04148,0.0244,0.07808,0.13176,-0.11956,0.03904,0.02928,0.05368,-0.01952,0,0.03416
-0.09272,0.02928,0.03416,0.08052,0.12688,-0.1098,0.03904,0.03416,0.05368,-0.01952,0,0.02928
-0.10248,0.0366,0.02928,0.08052,0.13176,-0.11712,0.03904,0.03416,0.0488,-0.01464,-0.00488,0.02928
-0.10736,0.04148,0.0244,0.07808,0.13176,-0.11956,0.03904,0.02928,0.0488,-0.01952,0,0.02928
-0.11712,0.04392,0.02928,0.08784,0.1464,-0.13176,0.03416,0.02928,0.05368,-0.01464,0,0.01464
-0.11224,0.04148,0.02928,0.0854,0.14152,-0.12688,0.03904,0.03416,0.05368,-0.01952,0,0.01952
-0.10736,0.03904,0.02928,0.08296,0.13664,-0.122,0.03904,0.03416,0.05368,-0.00488,-0.00488,0.01952
-0.10248,0.04148,0.01952,0.07076,0.122,-0.11224,0.03904,0.03416,0.0488,-0.00976,-0.00976,0.01464
-0.10736,0.0488,0.00976,0.06344,0.11712,-0.11224,0.03904,0.0244,0.03904,-0.01952,-0.00976,0.0244
-0.11712,0.05368,0.00976,0.06832,0.12688,-0.122,0.03904,0.0244,0.03904,-0.0244,-0.00976,0.01952
-0.122,0.05612,0.00976,0.07076,0.13176,-0.12688,0.03904,0.02928,0.04392,-0.01464,-0.00488,0.01952
-0.122,0.05612,0.00976,0.07076,0.13176,-0.12688,0.03904,0.0244,0.04392,-0.00976,-0.00488,0.0244
-0.11224,0.05124,0.00976,0.06588,0.122,-0.11712,0.04392,0.02928,0.04392,-0.01952,0,0.01952
-0.0976,0.03904,0.01952,0.06832,0.11712,-0.10736,0.04392,0.04392,0.04392,-0.0244,-0.00488,0.00488
-0.09272,0.03904,0.01464,0.061,0.10736,-0.10004,0.04392,0.03904,0.04392,-0.01952,-0.00976,0.00976
-0.10248,0.0488,0.00488,0.05612,0.10736,-0.10492,0.03416,0.03904,0.04392,-0.00976,-0.01464,0.00488
-0.11712,0.05612,0.00488,0.06344,0.122,-0.11956,0.03904,0.03904,0.03904,-0.00488,-0.0244,-0.00488
-0.122,0.061,0,0.061,0.122,-0.122,0.03904,0.0244,0.03904,-0.00488,-0.0244,-0.00488
-0.10736,0.04636,0.01464,0.06832,0.122,-0.11468,0.04392,0.02928,0.03904,-0.00488,-0.01464,0.00488
-0.10248,0.04392,0.01464,0.06588,0.11712,-0.1098,0.03904,0.01952,0.03904,-0.00488,-0.00976,0.00488
-0.10736,0.0488,0.00976,0.06344,0.11712,-0.11224,0.03416,0.0244,0.03904,0,-0.00976,0.00976
-0.10736,0.0488,0.00976,0.06344,0.11712,-0.11224,0.04392,0.03416,0.04392,-0.00488,-0.00976,0.01952
-0.13176,0.06588,0,0.06588,0.13176,-0.13176,0.03416,0.0244,0.0244,-0.01952,-0.00976,0.00976
-0.13176,0.06588,0,0.06588,0.13176,-0.13176,0.03416,0.0244,0.0244,-0.01464,-0.00976,0.00976
-0.12688,0.06344,0,0.06344,0.12688,-0.12688,0.04392,0.0244,0.03416,-0.00976,-0.01952,0
-0.11712,0.05368,0.00976,0.06832,0.12688,-0.122,0.04392,0.01464,0.03416,-0.00976,-0.01952,0.00488
-0.12688,0.05368,0.01952,0.08296,0.1464,-0.13664,0.03904,0.0244,0.03416,-0.00488,-0.0244,0.00976
-0.122,0.05124,0.01952,0.08052,0.14152,-0.13176,0.04392,0.02928,0.03416,-0.00488,-0.0244,0.01952
-0.11712,0.05124,0.01464,0.0732,0.13176,-0.12444,0.0488,0.01952,0.03416,-0.00488,-0.00976,0.01464
-0.122,0.05368,0.01464,0.07564,0.13664,-0.12932,0.03904,0.01464,0.03416,-0.00976,-0.00976,0.01952
-0.13176,0.05856,0.01464,0.08052,0.1464,-0.13908,0.04392,0.02928,0.04392,0,-0.00488,0.01952
-0.13176,0.061,0.00976,0.07564,0.14152,-0.13664,0.04392,0.02928,0.04392,0.00488,-0.00488,0.01952
-0.122,0.05124,0.01952,0.08052,0.14152,-0.13176,0.04392,0.02928,0.0488,0.00488,0,0.0244
-0.11712,0.04636,0.0244,0.08296,0.14152,-0.12932,0.0488,0.02928,0.04392,0,0,0.0244
-0.13176,0.05856,0.01464,0.08052,0.1464,-0.13908,0.04392,0.01952,0.04392,0,0,0.0244
-0.13664,0.061,0.01464,0.08296,0.15128,-0.14396,0.04392,0.01464,0.0488,0.00488,-0.00976,0.0244
-0.12688,0.05368,0.01952,0.08296,0.1464,-0.13664,0.03904,0.01464,0.03904,0.00488,-0.00488,0.0244
-0.122,0.05368,0.01464,0.07564,0.13664,-0.12932,0.03416,0.01464,0.03416,0,-0.00488,0.02928
-0.13176,0.06344,0.00488,0.07076,0.13664,-0.1342,0.03416,0.00976,0.04392,0,-0.00488,0.01464
-0.14152,0.06832,0.00488,0.07564,0.1464,-0.14396,0.03904,0.01464,0.04392,0,-0.00488,0.00488
-0.13176,0.05612,0.01952,0.0854,0.15128,-0.14152,0.03904,0.01464,0.04392,0,-0.00488,0.00976
-0.12688,0.0488,0.02928,0.09272,0.15616,-0.14152,0.03416,0.01464,0.0488,0.00488,-0.00488,0.00976
-0.11712,0.04392,0.02928,0.08784,0.1464,-0.13176,0.03904,0.01464,0.05856,0.01464,0.00488,0.00976
-0.12688,0.0488,0.02928,0.09272,0.15616,-0.14152,0.04392,0.00976,0.05368,0.00488,0,0.0244
-0.11712,0.04636,0.0244,0.08296,0.14152,-0.12932,0.04392,0.01464,0.04392,0,0.00488,0.03904
-0.11712,0.04636,0.0244,0.08296,0.14152,-0.12932,0.04392,0.01464,0.0488,-0.00488,0.00488,0.02928
-0.11712,0.04636,0.0244,0.08296,0.14152,-0.12932,0.03904,0.0244,0.04392,-0.01464,0,0.0244
-0.11224,0.03904,0.03416,0.09028,0.1464,-0.12932,0.03904,0.0244,0.04392,0,0.00488,0.0244
-0.11712,0.04148,0.03416,0.09272,0.15128,-0.1342,0.04392,0.01952,0.0488,-0.00976,0.00488,0.0244
-0.13176,0.05124,0.02928,0.09516,0.16104,-0.1464,0.04392,0.00976,0.0488,-0.00488,0,0.01952
-0.12688,0.05368,0.01952,0.08296,0.1464,-0.13664,0.04392,0.01952,0.0488,-0.00976,0,0.0244
-0.12688,0.05368,0.01952,0.08296,0.1464,-0.13664,0.03904,0.01464,0.0488,-0.01464,-0.00488,0.01952
-0.14152,0.06588,0.00976,0.08052,0.15128,-0.1464,0.02928,0.00976,0.05856,-0.00488,0,0.00976
-0.14152,0.06588,0.00976,0.08052,0.15128,-0.1464,0.03904,0.00976,0.05368,-0.00488,0,0.01464
-0.13664,0.05856,0.01952,0.08784,0.15616,-0.1464,0.03904,0.00976,0.04392,-0.01464,-0.00976,0.00976
-0.13664,0.05856,0.01952,0.08784,0.15616,-0.1464,0.02928,0.00976,0.04392,-0.01464,-0.00976,0.00976
-0.11712,0.04392,0.02928,0.08784,0.1464,-0.13176,0.02928,0.01952,0.05368,0,-0.00488,0.01952
-0.11224,0.0366,0.03904,0.09516,0.15128,-0.13176,0.03904,0.01952,0.05368,0.00488,0.00976,0.02928
-0.10736,0.03904,0.02928,0.08296,0.13664,-0.122,0.04392,0.01952,0.04392,-0.00976,0.00976,0.0244
-0.11712,0.04392,0.02928,0.08784,0.1464,-0.13176,0.04392,0.01952,0.0488,-0.01464,-0.00488,0.01952
-0.11712,0.04392,0.02928,0.08784,0.1464,-0.13176,0.04392,0.01952,0.04392,-0.01464,-0.00976,0.01464
-0.122,0.04636,0.02928,0.09028,0.15128,-0.13664,0.04392,0.01952,0.0488,-0.01464,-0.00976,0.01464
-0.12688,0.05124,0.0244,0.08784,0.15128,-0.13908,0.04392,0.0244,0.0488,-0.01464,-0.00976,0.01952
-0.12688,0.0488,0.02928,0.09272,0.15616,-0.14152,0.04392,0.0244,0.0488,-0.01952,-0.00976,0.01952
-0.13664,0.06344,0.00976,0.07808,0.1464,-0.14152,0.03416,0.01464,0.0488,-0.02928,-0.01952,0.00488
-0.14152,0.061,0.01952,0.09028,0.16104,-0.15128,0.03416,0.01464,0.0488,-0.03904,-0.01952,0.00488
-0.13176,0.05612,0.01952,0.0854,0.15128,-0.14152,0.03416,0.0244,0.0488,-0.03904,-0.00976,0.02928
-0.13176,0.05856,0.01464,0.08052,0.1464,-0.13908,0.03416,0.0244,0.04392,-0.04392,-0.00976,0.01952
-0.13664,0.05856,0.01952,0.08784,0.15616,-0.1464,0.03416,0.00976,0.04392,-0.05856,-0.00976,0.00488
-0.13664,0.05612,0.0244,0.09272,0.16104,-0.14884,0.03416,0.00976,0.04392,-0.05368,-0.00976,0.00488
-0.13664,0.05612,0.0244,0.09272,0.16104,-0.14884,0.03904,0.01952,0.04392,-0.0488,-0.01464,0.01464
-0.13176,0.05368,0.0244,0.09028,0.15616,-0.14396,0.04392,0.01952,0.04392,-0.03904,-0.01464,0.01952
-0.12688,0.05368,0.01952,0.08296,0.1464,-0.13664,0.0488,0.0244,0.03904,-0.05368,-0.01464,0.01464
-0.12688,0.05368,0.01952,0.08296,0.1464,-0.13664,0.0488,0.02928,0.06832,-0.00976,0,0.02928
-0.13664,0.05856,0.01952,0.08784,0.15616,-0.1464,0.03904,0.01952,0.05856,-0.01952,-0.00976,0.00976
-0.13664,0.05856,0.01952,0.08784,0.15616,-0.1464,0.03904,0.01952,0.0488,-0.01952,-0.00976,0
-0.14152,0.05856,0.0244,0.09516,0.16592,-0.15372,0.03904,0.01952,0.05368,-0.00488,-0.00488,0.01952
-0.13664,0.061,0.01464,0.08296,0.15128,-0.14396,0.03904,0.01952,0.0488,0,-0.00488,0.03416
-0.1464,0.06588,0.01464,0.08784,0.16104,-0.15372,0.0488,0.02928,0.05368,-0.00976,-0.00488,0.0244
-0.13664,0.05856,0.01952,0.08784,0.15616,-0.1464,0.0488,0.02928,0.05368,-0.01464,0,0.0244
-0.13664,0.05856,0.01952,0.08784,0.15616,-0.1464,0.03904,0.02928,0.05368,-0.00488,-0.00976,0.01464
-0.13664,0.05856,0.01952,0.08784,0.15616,-0.1464,0.03904,0.0244,0.05856,0,-0.00976,0.00976
-0.122,0.0488,0.0244,0.0854,0.1464,-0.1342,0.04392,0.0244,0.0732,0.01464,-0.00488,0.01952
-0.122,0.04148,0.03904,0.10004,0.16104,-0.14152,0.04392,0.0244,0.08296,0.01952,0.00976,0.0244
-0.122,0.02928,0.06344,0.12444,0.18544,-0.15372,0.03416,0.01464,0.09272,0.02928,0.00488,0.03416
-0.13176,0.03416,0.06344,0.12932,0.1952,-0.16348,0.02928,0,0.0976,0.04392,0.00976,0.03416
-0.11712,0.01708,0.08296,0.14152,0.20008,-0.1586,0.01952,0,0.11712,0.05856,0.02928,0.04392
-0.11712,0.01708,0.08296,0.14152,0.20008,-0.1586,0.01952,0,0.12688,0.06832,0.03416,0.0488
-0.11712,0.00976,0.0976,0.15616,0.21472,-0.16592,0.00488,-0.01464,0.122,0.06344,0.0244,0.0488
-0.11712,0.00976,0.0976,0.15616,0.21472,-0.16592,-0.00976,-0.02928,0.11712,0.06832,0.02928,0.05368
-0.10248,-0.00244,0.10736,0.1586,0.20984,-0.15616,-0.03904,-0.03904,0.10736,0.07808,0.04392,0.06832
-0.10248,-0.00244,0.10736,0.1586,0.20984,-0.15616,-0.05368,-0.04392,0.09272,0.08784,0.0488,0.07808
-0.10248,-0.00244,0.10736,0.1586,0.20984,-0.15616,-0.05368,-0.04392,0.08784,0.0732,0.04392,0.06344
-0.0976,0,0.0976,0.1464,0.1952,-0.1464,-0.0488,-0.03416,0.08296,0.0732,0.03904,0.05856
-0.09272,0.00732,0.07808,0.12444,0.1708,-0.13176,-0.03904,-0.0244,0.06344,0.05368,0.03904,0.04392
-0.08784,0.00976,0.06832,0.11224,0.15616,-0.122,-0.0488,-0.02928,0.05368,0.0488,0.0244,0.03904
-0.08784,0.01952,0.0488,0.09272,0.13664,-0.11224,-0.05856,-0.02928,0.02928,0.03416,0.0244,0.03416
-0.0732,0.01708,0.03904,0.07564,0.11224,-0.09272,-0.0732,-0.0244,0.01952,0.02928,0.02928,0.03416
-0.0488,0.00488,0.03904,0.06344,0.08784,-0.06832,-0.05856,-0.01952,0,0.0244,0.02928,0.03416
-0.03904,0,0.03904,0.05856,0.07808,-0.05856,-0.04392,-0.01464,-0.00976,0.01952,0.02928,0.03416
-0.0244,-0.01464,0.05368,0.06588,0.07808,-0.05124,-0.03904,0,0,0.03904,0.02928,0.04392
-0.01464,-0.02196,0.05856,0.06588,0.0732,-0.04392,-0.03416,-0.00976,0,0.03416,0.0244,0.02928
-0.0244,-0.00488,0.03416,0.04636,0.05856,-0.04148,-0.03904,-0.00976,-0.00976,0.03416,0.0244,0.02928
-0.01952,-0.00732,0.03416,0.04392,0.05368,-0.0366,-0.03904,-0.00976,-0.00488,0.0244,0.01952,0.01952
-0.02928,0.00244,0.0244,0.03904,0.05368,-0.04148,-0.02928,-0.01952,0,0.01952,0.02928,0.01952
-0.04392,0.01464,0.01464,0.0366,0.05856,-0.05124,-0.0244,-0.01464,0,0.00976,0.02928,0.0244
-0.06832,0.02928,0.00976,0.04392,0.07808,-0.0732,0,-0.01464,0,0.0244,0.00976,0.0244
-0.09272,0.04636,0,0.04636,0.09272,-0.09272,0,-0.00488,0.00488,0.0244,0,0.0244
-0.122,0.05612,0.00976,0.07076,0.13176,-0.12688,0.0244,0.01952,0.0244,0.03416,-0.00976,0.01464
-0.12688,0.06344,0,0.06344,0.12688,-0.12688,0.04392,0.01952,0.02928,0.0488,-0.01464,0.01464
-0.12688,0.061,0.00488,0.06832,0.13176,-0.12932,0.05368,0.03416,0.03904,0.04392,-0.00976,0.01464
-0.1464,0.07808,-0.00976,0.06344,0.13664,-0.14152,0.06344,0.03904,0.03904,0.0488,-0.01464,0.01464
-0.13664,0.0732,-0.00976,0.05856,0.12688,-0.13176,0.06344,0.03416,0.03904,0.0488,-0.01952,0.00488
-0.13664,0.07076,-0.00488,0.06344,0.13176,-0.1342,0.06344,0.03904,0.03904,0.03904,-0.01952,0.00488
-0.1464,0.08052,-0.01464,0.05856,0.13176,-0.13908,0.0732,0.03904,0.02928,0.03904,-0.0244,0.00488
-0.14152,0.07808,-0.01464,0.05612,0.12688,-0.1342,0.08296,0.04392,0.02928,0.03904,-0.01464,0.00488
-0.13664,0.07564,-0.01464,0.05368,0.122,-0.12932,0.0732,0.05368,0.04392,0.03904,-0.00488,0.00488
-0.14152,0.07808,-0.01464,0.05612,0.12688,-0.1342,0.06832,0.0488,0.04392,0.03904,-0.00976,0.00976
-0.15128,0.0854,-0.01952,0.05612,0.13176,-0.14152,0.0732,0.04392,0.04392,0.03904,-0.00976,0.00976
-0.14152,0.07808,-0.01464,0.05612,0.12688,-0.1342,0.0732,0.04392,0.0488,0.0488,-0.01464,0.00976
-0.15128,0.06588,0.01952,0.09516,0.1708,-0.16104,0.07808,0.0488,0.08296,0.0732,0.01952,0.0488
-0.12688,0.0244,0.07808,0.14152,0.20496,-0.16592,0.0732,0.0732,0.16592,0.16104,0.07808,0.13176
-0.03416,-0.04636,0.12688,0.14396,0.16104,-0.0976,0.0488,0.08296,0.22448,0.26352,0.1952,0.23912
0.11712,-0.15616,0.1952,0.13664,0.07808,0.01952,-0.01464,0.01464,0.21472,0.29768,0.34648,0.33672
0.32208,-0.26108,0.20008,0.03904,-0.122,0.22204,-0.13176,-0.07808,0.15616,0.25376,0.4636,0.38552
0.59536,-0.40504,0.21472,-0.08296,-0.38064,0.488,-0.28792,-0.1952,-0.00488,0.122,0.61,0.42456
0.95648,-0.60024,0.244,-0.23424,-0.71248,0.83448,-0.47824,-0.3172,-0.10248,0.08296,0.7808,0.48312
1.26392,-0.7686,0.27328,-0.35868,-0.99064,1.12728,-0.62464,-0.4392,-0.25864,-0.01952,0.84424,0.48312
1.30784,-0.77836,0.24888,-0.40504,-1.05896,1.1834,-0.7076,-0.5124,-0.47824,-0.244,0.74176,0.34648
1.14192,-0.65636,0.1708,-0.40016,-0.97112,1.05652,-0.62464,-0.42944,-0.52704,-0.37576,0.4636,0.1464
0.83448,-0.40992,-0.01464,-0.43188,-0.84912,0.8418,-0.4636,-0.28792,-0.59536,-0.52704,0.13176,-0.14152
0.39528,-0.11224,-0.1708,-0.36844,-0.56608,0.48068,-0.22448,-0.11712,-0.52216,-0.5368,-0.13176,-0.28792
0.10248,0.10492,-0.31232,-0.36356,-0.4148,0.25864,-0.00488,0.13176,-0.45384,-0.54168,-0.366,-0.44408
0.01464,0.17812,-0.37088,-0.3782,-0.38552,0.20008,0.08296,0.244,-0.42944,-0.5368,-0.4636,-0.50264
0.00976,0.2196,-0.44896,-0.45384,-0.45872,0.23424,0.13664,0.36112,-0.40016,-0.51728,-0.52704,-0.55144
-0.02928,0.24888,-0.46848,-0.45384,-0.4392,0.20496,0.15616,0.42456,-0.3904,-0.48312,-0.5368,-0.55144
-0.05368,0.22692,-0.40016,-0.37332,-0.34648,0.1464,0.16104,0.43432,-0.34648,-0.40016,-0.4636,-0.4636
-0.06344,0.17324,-0.28304,-0.25132,-0.2196,0.07808,0.13176,0.38064,-0.22936,-0.2684,-0.36112,-0.33672
-0.06832,0.13176,-0.1952,-0.16104,-0.12688,0.02928,0.122,0.32696,-0.13176,-0.15616,-0.244,-0.22936
-0.08784,0.10736,-0.12688,-0.08296,-0.03904,-0.0244,0.122,0.2684,-0.0488,-0.05368,-0.16104,-0.122
-0.09272,0.09272,-0.09272,-0.04636,0,-0.04636,0.122,0.22936,-0.01952,-0.0244,-0.13176,-0.10248
-0.12688,0.0976,-0.06832,-0.00488,0.05856,-0.09272,0.10736,0.1708,0,0,-0.10248,-0.06832
-0.12688,0.08296,-0.03904,0.0244,0.08784,-0.10736,0.08296,0.10248,0,-0.00488,-0.0732,-0.0488
-0.13664,0.0854,-0.03416,0.03416,0.10248,-0.11956,0.08296,0.0976,0.0244,0.0488,-0.05368,-0.02928
-0.13176,0.08296,-0.03416,0.03172,0.0976,-0.11468,0.08296,0.08784,0.0244,0.03904,-0.05368,-0.0244
-0.12688,0.0732,-0.01952,0.04392,0.10736,-0.11712,0.0732,0.07808,0.03416,0.05368,-0.0488,-0.01952
-0.13664,0.08052,-0.0244,0.04392,0.11224,-0.12444,0.06344,0.05368,0.03904,0.05368,-0.04392,-0.00976
-0.1464,0.08052,-0.01464,0.05856,0.13176,-0.13908,0.06344,0.03904,0.03904,0.0488,-0.03904,-0.00488
-0.14152,0.07564,-0.00976,0.061,0.13176,-0.13664,0.06832,0.0488,0.03904,0.03904,-0.02928,-0.00488
-0.14152,0.07564,-0.00976,0.061,0.13176,-0.13664,0.06832,0.0488,0.03904,0.03416,-0.03416,-0.00976
-0.13176,0.06832,-0.00488,0.061,0.12688,-0.12932,0.06832,0.03904,0.04392,0.04392,-0.01952,0
-0.13176,0.06588,0,0.06588,0.13176,-0.13176,0.06832,0.02928,0.04392,0.04392,-0.00976,0.00488
-0.12688,0.06588,-0.00488,0.05856,0.122,-0.12444,0.07808,0.03904,0.03904,0.04392,-0.01952,0.00488
-0.122,0.061,0,0.061,0.122,-0.122,0.07808,0.03904,0.03904,0.0488,-0.01464,0.01464
-0.122,0.061,0,0.061,0.122,-0.122,0.06832,0.03416,0.0488,0.05856,-0.01464,0.01464
-0.122,0.061,0,0.061,0.122,-0.122,0.06344,0.03416,0.04392,0.05368,-0.00976,0.01952
-0.122,0.06588,-0.00976,0.05124,0.11224,-0.11712,0.0488,0.01464,0.03416,0.0488,-0.01464,0
-0.12688,0.0732,-0.01952,0.04392,0.10736,-0.11712,0.0488,0.00976,0.03904,0.0488,-0.02928,-0.00488
-0.122,0.05856,0.00488,0.06588,0.12688,-0.12444,0.05856,0.0244,0.03904,0.05856,-0.01464,0.00488
-0.11224,0.05124,0.00976,0.06588,0.122,-0.11712,0.05856,0.03416,0.03904,0.05856,-0.01952,0.01464
-0.10248,0.04636,0.00976,0.061,0.11224,-0.10736,0.05368,0.02928,0.03904,0.05856,-0.00976,0.01464
-0.0976,0.04148,0.01464,0.06344,0.11224,-0.10492,0.0488,0.02928,0.03904,0.05368,-0.00488,0.01952
-0.11224,0.05124,0.00976,0.06588,0.122,-0.11712,0.0488,0.0244,0.03416,0.04392,-0.00976,0
-0.11224,0.05124,0.00976,0.06588,0.122,-0.11712,0.04392,0.0244,0.03416,0.04392,-0.01464,0.00976
-0.0976,0.03904,0.01952,0.06832,0.11712,-0.10736,0.03416,0.01952,0.03416,0.03416,-0.00488,0.00976
-0.07808,0.02684,0.0244,0.06344,0.10248,-0.09028,0.03416,0.01952,0.03416,0.03904,-0.00488,0.00976
-0.07808,0.02684,0.0244,0.06344,0.10248,-0.09028,0.02928,0.00976,0.01952,0.0488,0,0.01464
-0.0732,0.02928,0.01464,0.05124,0.08784,-0.08052,0.0244,0.00976,0.01952,0.04392,0,0.00976
-0.07808,0.02928,0.01952,0.05856,0.0976,-0.08784,0.01952,0.00488,0.01952,0.05856,0.00488,0.01952
-0.0732,0.02928,0.01464,0.05124,0.08784,-0.08052,0.00976,0.00488,0.01464,0.05368,0.00976,0.01952
-0.06344,0.0244,0.01464,0.04636,0.07808,-0.07076,0.00488,0.00976,0.0244,0.06344,0.01464,0.0244
-0.06832,0.02684,0.01464,0.0488,0.08296,-0.07564,0.00488,0.00976,0.0244,0.06832,0.01464,0.0244
-0.04392,0.00732,0.02928,0.05124,0.0732,-0.05856,0.00488,-0.00976,0.01952,0.05856,0.02928,0.0244
-0.03416,0,0.03416,0.05124,0.06832,-0.05124,0,-0.01464,0.01952,0.06344,0.03904,0.02928
-0.01464,-0.0122,0.03904,0.04636,0.05368,-0.03416,-0.00976,-0.00976,0.0244,0.06344,0.03904,0.0488
0,-0.0244,0.0488,0.0488,0.0488,-0.0244,-0.01464,-0.00488,0.01952,0.06344,0.0488,0.05368
0.01952,-0.03172,0.04392,0.03416,0.0244,-0.00244,-0.00976,-0.01952,0.00976,0.0732,0.0488,0.05856
0.02928,-0.0366,0.04392,0.02928,0.01464,0.00732,-0.01952,-0.0244,0.01464,0.0732,0.05368,0.06832
0.03904,-0.04392,0.0488,0.02928,0.00976,0.01464,-0.03904,-0.02928,0,0.06344,0.05856,0.05856
0.06344,-0.061,0.05856,0.02684,-0.00488,0.03416,-0.05856,-0.03416,0,0.06344,0.06832,0.04392
0.0732,-0.0732,0.0732,0.0366,0,0.0366,-0.0732,-0.0488,-0.01464,0.05368,0.07808,0.05856
0.0732,-0.07808,0.08296,0.04636,0.00976,0.03172,-0.08784,-0.05368,-0.00976,0.05368,0.08296,0.08296
0.10736,-0.09516,0.08296,0.02928,-0.0244,0.06588,-0.09272,-0.04392,0,0.06832,0.09272,0.09272
0.122,-0.1098,0.0976,0.0366,-0.0244,0.0732,-0.0976,-0.05368,-0.00488,0.07808,0.09272,0.0976
0.122,-0.1098,0.0976,0.0366,-0.0244,0.0732,-0.10736,-0.06832,-0.00976,0.06832,0.10736,0.08784
0.13664,-0.11712,0.0976,0.02928,-0.03904,0.08784,-0.11224,-0.06832,-0.00976,0.06344,0.10736,0.08784
0.15616,-0.12932,0.10248,0.0244,-0.05368,0.10492,-0.11224,-0.07808,-0.00976,0.06344,0.10248,0.08784
0.16104,-0.1342,0.10736,0.02684,-0.05368,0.10736,-0.11224,-0.08296,-0.00976,0.06344,0.10736,0.08784
0.16104,-0.13908,0.11712,0.0366,-0.04392,0.10248,-0.11712,-0.08296,-0.01952,0.0732,0.11224,0.08784
0.16104,-0.13908,0.11712,0.0366,-0.04392,0.10248,-0.11712,-0.08296,-0.01952,0.07808,0.11224,0.08784
0.15616,-0.13664,0.11712,0.03904,-0.03904,0.0976,-0.12688,-0.08296,-0.01952,0.07808,0.122,0.0976
0.15128,-0.1342,0.11712,0.04148,-0.03416,0.09272,-0.12688,-0.08784,-0.01464,0.08296,0.122,0.10248
0.15128,-0.12932,0.10736,0.03172,-0.04392,0.0976,-0.12688,-0.08296,-0.01464,0.08296,0.122,0.10248
0.15128,-0.13176,0.11224,0.0366,-0.03904,0.09516,-0.122,-0.07808,-0.00976,0.08784,0.122,0.10248
0.11712,-0.10736,0.0976,0.03904,-0.01952,0.06832,-0.10736,-0.0732,0,0.0976,0.11224,0.0976
0.10736,-0.10248,0.0976,0.04392,-0.00976,0.05856,-0.0976,-0.06832,0.00488,0.10736,0.11224,0.0976
0.10248,-0.10492,0.10736,0.05612,0.00488,0.0488,-0.09272,-0.06344,0.00976,0.11224,0.10248,0.10248
0.08296,-0.09028,0.0976,0.05612,0.01464,0.03416,-0.07808,-0.05856,0.00976,0.10736,0.0976,0.10248
0.07808,-0.0854,0.09272,0.05368,0.01464,0.03172,-0.08296,-0.05368,0.01464,0.11224,0.10248,0.10248
0.05856,-0.07076,0.08296,0.05368,0.0244,0.01708,-0.0732,-0.04392,0.0244,0.11224,0.09272,0.09272
0.03416,-0.05124,0.06832,0.05124,0.03416,0,-0.05368,-0.03416,0.03416,0.11712,0.08784,0.0732
0.01952,-0.04392,0.06832,0.05856,0.0488,-0.01464,-0.04392,-0.02928,0.03904,0.10736,0.07808,0.06832
-0.00488,-0.02684,0.05856,0.061,0.06344,-0.03416,-0.03416,-0.01952,0.03416,0.11712,0.05856,0.06832
-0.01952,-0.01464,0.0488,0.05856,0.06832,-0.04392,-0.01952,-0.00976,0.03416,0.122,0.0488,0.0732
-0.03904,0.00244,0.03416,0.05368,0.0732,-0.05612,-0.0244,-0.01952,0.03904,0.11224,0.03904,0.05856
-0.05368,0.01464,0.0244,0.05124,0.07808,-0.06588,-0.0244,-0.01952,0.03904,0.0976,0.02928,0.05368
-0.0488,0.00976,0.02928,0.05368,0.07808,-0.06344,0,-0.00976,0.03904,0.10736,0.01952,0.0488
-0.03904,0,0.03904,0.05856,0.07808,-0.05856,0.00976,0,0.0488,0.10736,0.01952,0.03904
-0.03904,0,0.03904,0.05856,0.07808,-0.05856,0.01952,0.00976,0.05856,0.10736,0.01952,0.02928
-0.04392,0.00976,0.0244,0.04636,0.06832,-0.05612,0.02928,0.01952,0.05368,0.11224,0.01464,0.02928
-0.0488,0.01708,0.01464,0.03904,0.06344,-0.05612,0.02928,0.01952,0.0488,0.11712,0.01464,0.03416
-0.06832,0.02684,0.01464,0.0488,0.08296,-0.07564,0.02928,0.01952,0.05368,0.11712,0.00488,0.03416
-0.06832,0.0244,0.01952,0.05368,0.08784,-0.07808,0.02928,0.01952,0.06344,0.11224,0,0.03416
-0.06832,0.02928,0.00976,0.04392,0.07808,-0.0732,0.02928,0.02928,0.05368,0.10248,0,0.0244
-0.06832,0.02928,0.00976,0.04392,0.07808,-0.0732,0.02928,0.0244,0.0488,0.0976,0,0.01952
-0.0732,0.03416,0.00488,0.04148,0.07808,-0.07564,0.0244,0.0244,0.04392,0.09272,-0.00488,0.00976
-0.0732,0.02684,0.01952,0.05612,0.09272,-0.08296,0.0244,0.0244,0.05368,0.08784,0,0.01464
-0.0732,0.02928,0.01464,0.05124,0.08784,-0.08052,0.0244,0.0244,0.05368,0.08784,-0.00488,0.0244
-0.0732,0.03416,0.00488,0.04148,0.07808,-0.07564,0.01952,0.01952,0.0488,0.09272,0,0.0244
-0.07808,0.0366,0.00488,0.04392,0.08296,-0.08052,0.02928,0.01952,0.03904,0.08784,-0.00976,0.0244
-0.07808,0.04148,-0.00488,0.03416,0.0732,-0.07564,0.02928,0.01952,0.03904,0.07808,-0.01464,0.01952
-0.08784,0.0488,-0.00976,0.03416,0.07808,-0.08296,0.0244,0.0244,0.03416,0.0732,-0.0244,0.00976
-0.08784,0.0488,-0.00976,0.03416,0.07808,-0.08296,0.00976,0.01952,0.02928,0.07808,-0.01952,0.00488
-0.0732,0.04636,-0.01952,0.01708,0.05368,-0.06344,0.01952,0.01952,0.02928,0.07808,-0.03416,0
-0.0732,0.05124,-0.02928,0.00732,0.04392,-0.05856,0.03416,0.0244,0.0244,0.07808,-0.03904,0
-0.0732,0.05124,-0.02928,0.00732,0.04392,-0.05856,0.05368,0.03416,0.02928,0.06344,-0.03416,-0.01464
-0.07808,0.05856,-0.03904,0,0.03904,-0.05856,0.06832,0.04392,0.03416,0.06344,-0.03904,-0.01952
-0.08296,0.061,-0.03904,0.00244,0.04392,-0.06344,0.06832,0.03416,0.03416,0.06344,-0.03904,-0.01464
-0.08784,0.06344,-0.03904,0.00488,0.0488,-0.06832,0.05856,0.02928,0.0244,0.06832,-0.05368,-0.01952
-0.10736,0.0732,-0.03904,0.01464,0.06832,-0.08784,0.0488,0.00976,0.01952,0.06344,-0.04392,-0.03416
-0.10248,0.06588,-0.02928,0.02196,0.0732,-0.08784,0.03416,0.00488,0.01952,0.05856,-0.03904,-0.03416
-0.08784,0.05856,-0.02928,0.01464,0.05856,-0.0732,0.01952,-0.00976,0.01952,0.06344,-0.0488,-0.0244
-0.08784,0.05856,-0.02928,0.01464,0.05856,-0.0732,0.01464,-0.01464,0.00976,0.05856,-0.0488,-0.01464
-0.08296,0.06344,-0.04392,-0.00244,0.03904,-0.061,0,-0.00976,-0.01952,0.0488,-0.0488,-0.0244
-0.0732,0.06588,-0.05856,-0.02196,0.01464,-0.04392,-0.00488,-0.01952,-0.03904,0.0244,-0.05368,-0.0488
-0.0732,0.07808,-0.08296,-0.04636,-0.00976,-0.03172,-0.02928,-0.02928,-0.06832,0.00488,-0.06344,-0.0488
-0.06832,0.07564,-0.08296,-0.0488,-0.01464,-0.02684,-0.03904,-0.02928,-0.08296,-0.00488,-0.06832,-0.05856
-0.05856,0.07076,-0.08296,-0.05368,-0.0244,-0.01708,-0.03904,-0.02928,-0.08784,-0.00976,-0.07808,-0.06832
-0.05368,0.0732,-0.09272,-0.06588,-0.03904,-0.00732,-0.04392,-0.0244,-0.08784,-0.00976,-0.08784,-0.0732
-0.02928,0.0488,-0.06832,-0.05368,-0.03904,0.00488,-0.03904,-0.01464,-0.05856,0.01464,-0.06832,-0.05368
-0.00488,0.02684,-0.0488,-0.04636,-0.04392,0.01952,-0.03904,0.00488,-0.03416,0.0244,-0.05856,-0.04392
0.00488,0.0122,-0.02928,-0.03172,-0.03416,0.01952,-0.03416,0.00976,-0.01464,0.03416,-0.02928,-0.0244
0.01952,0.00488,-0.02928,-0.03904,-0.0488,0.03416,-0.0244,0,-0.00976,0.0488,-0.01464,-0.01464
0,0.0122,-0.0244,-0.0244,-0.0244,0.0122,-0.0244,-0.00488,0.00976,0.06344,-0.00976,-0.00488
-0.03904,0.03904,-0.03904,-0.01952,0,-0.01952,-0.0244,0,0.00976,0.06832,-0.01464,-0.00488
-0.05856,0.0488,-0.03904,-0.00976,0.01952,-0.03904,-0.00488,-0.00488,0.01952,0.08784,-0.01952,0.00488
-0.06832,0.05124,-0.03416,0,0.03416,-0.05124,-0.00488,0,0.02928,0.08784,-0.00976,0.01464
-0.0488,0.03172,-0.01464,0.00976,0.03416,-0.04148,0.00488,0.00976,0.03904,0.0976,-0.01464,0.01464
-0.03416,0.01952,-0.00488,0.0122,0.02928,-0.03172,0.01464,0.01464,0.03904,0.10736,-0.00488,0.01464
-0.02928,0.01708,-0.00488,0.00976,0.0244,-0.02684,0.0244,0.0244,0.04392,0.11712,0.00488,0.0244
-0.03416,0.01952,-0.00488,0.0122,0.02928,-0.03172,0.01952,0.01952,0.04392,0.11712,0,0.03904
-0.0244,0.00732,0.00976,0.02196,0.03416,-0.02928,0.0244,0.01464,0.04392,0.11712,0,0.02928
-0.03416,0.00976,0.01464,0.03172,0.0488,-0.04148,0.0244,0.0244,0.0488,0.11712,0.01464,0.02928
-0.04392,0.0122,0.01952,0.04148,0.06344,-0.05368,0.02928,0.01952,0.06344,0.13176,0.02928,0.03904
-0.02928,-0.01464,0.05856,0.0732,0.08784,-0.05856,0.0244,0.0244,0.13664,0.2196,0.06832,0.09272
0.03416,-0.07564,0.11712,0.10004,0.08296,-0.0244,0,0.0244,0.1952,0.30256,0.18544,0.2196
0.18544,-0.1708,0.15616,0.06344,-0.02928,0.10736,-0.0732,-0.0244,0.17568,0.3172,0.35624,0.32696
0.4392,-0.31964,0.20008,-0.01952,-0.23912,0.33916,-0.20008,-0.0976,0.1464,0.33184,0.53192,0.43432
0.77104,-0.51728,0.26352,-0.122,-0.50752,0.63928,-0.38552,-0.244,0.00488,0.23912,0.73688,0.5124
1.13216,-0.71248,0.2928,-0.27328,-0.83936,0.98576,-0.57584,-0.34648,-0.10248,0.18056,0.94672,0.61976
1.40056,-0.83204,0.26352,-0.43676,-1.13704,1.2688,-0.70272,-0.44896,-0.24888,0.08784,1.0004,0.61
1.37616,-0.83204,0.28792,-0.40016,-1.08824,1.2322,-0.73688,-0.52216,-0.3904,-0.07808,0.86864,0.47336
1.16144,-0.69052,0.2196,-0.36112,-0.94184,1.05164,-0.65392,-0.42944,-0.40992,-0.18056,0.59048,0.26352
0.7564,-0.40016,0.04392,-0.33428,-0.71248,0.73444,-0.44408,-0.25864,-0.42944,-0.33184,0.20984,-0.04392
0.3172,-0.0976,-0.122,-0.2806,-0.4392,0.3782,-0.1952,-0.0488,-0.366,-0.33184,-0.14152,-0.24888
0.08296,0.09028,-0.26352,-0.305,-0.34648,0.21472,0.01464,0.15128,-0.25864,-0.29768,-0.37576,-0.39528
0.11224,0.10004,-0.31232,-0.36844,-0.42456,0.2684,0.05368,0.22448,-0.244,-0.31232,-0.43432,-0.43432
0.10736,0.12688,-0.36112,-0.4148,-0.46848,0.28792,0.07808,0.33184,-0.25376,-0.32208,-0.47824,-0.48312
0.0488,0.1464,-0.3416,-0.366,-0.3904,0.2196,0.08784,0.35624,-0.244,-0.28792,-0.4392,-0.45384
0.04392,0.13908,-0.32208,-0.34404,-0.366,0.20496,0.11224,0.37576,-0.24888,-0.244,-0.366,-0.38552
0.00488,0.10004,-0.20496,-0.2074,-0.20984,0.10736,0.09272,0.30256,-0.13176,-0.122,-0.23424,-0.24888
0.00976,0.05368,-0.11712,-0.122,-0.12688,0.06832,0.06344,0.22936,-0.03416,-0.01952,-0.13664,-0.13176
0.00976,0.03904,-0.08784,-0.09272,-0.0976,0.05368,0.04392,0.20008,0,0.0244,-0.10248,-0.09272
0.01464,0.0244,-0.06344,-0.07076,-0.07808,0.04636,0.05368,0.1708,0.00976,0.05368,-0.08296,-0.06344
0,0.0244,-0.0488,-0.0488,-0.0488,0.0244,0.0488,0.122,0.00976,0.05856,-0.05368,-0.0488
0,0.0244,-0.0488,-0.0488,-0.0488,0.0244,0.03416,0.09272,0.02928,0.0732,-0.03416,-0.01952
-0.02928,0.03172,-0.03416,-0.01952,-0.00488,-0.0122,0.0244,0.06832,0.0244,0.07808,-0.0244,-0.01952
-0.04392,0.04392,-0.04392,-0.02196,0,-0.02196,0.03416,0.06832,0.03416,0.07808,-0.0244,-0.01464
-0.03904,0.03416,-0.02928,-0.00976,0.00976,-0.0244,0.0244,0.05856,0.04392,0.09272,-0.01952,-0.00976
-0.03904,0.0366,-0.03416,-0.01464,0.00488,-0.02196,0.0244,0.04392,0.03904,0.09272,-0.01464,-0.00976
-0.03904,0.0366,-0.03416,-0.01464,0.00488,-0.02196,0.0244,0.03904,0.02928,0.08784,-0.01952,-0.01464
-0.03416,0.03172,-0.02928,-0.0122,0.00488,-0.01952,0.02928,0.03904,0.03904,0.08784,-0.02928,-0.0244
-0.03416,0.03172,-0.02928,-0.0122,0.00488,-0.01952,0.02928,0.03904,0.03904,0.08296,-0.03416,-0.02928
-0.03416,0.02928,-0.0244,-0.00732,0.00976,-0.02196,0.02928,0.0488,0.04392,0.09272,-0.01952,-0.00976
-0.03416,0.02684,-0.01952,-0.00244,0.01464,-0.0244,0.02928,0.03904,0.04392,0.09272,-0.00976,0.00488
-0.02928,0.02196,-0.01464,0,0.01464,-0.02196,0.01952,0.03904,0.03904,0.08296,-0.01952,-0.00488
-0.0244,0.01708,-0.00976,0.00244,0.01464,-0.01952,0.01952,0.03904,0.03904,0.08784,-0.01464,0.00488
-0.0244,0.02196,-0.01952,-0.00732,0.00488,-0.01464,0.02928,0.03416,0.03904,0.08784,-0.01464,-0.00488
-0.0244,0.02196,-0.01952,-0.00732,0.00488,-0.01464,0.0244,0.03416,0.03416,0.08296,-0.00976,-0.00976
-0.0244,0.02684,-0.02928,-0.01708,-0.00488,-0.00976,0.01952,0.0244,0.03416,0.08784,-0.01464,-0.00976
-0.01952,0.0244,-0.02928,-0.01952,-0.00976,-0.00488,0.01952,0.02928,0.03904,0.08784,-0.01952,-0.00488
-0.01464,0.01464,-0.01464,-0.00732,0,-0.00732,0.01952,0.0244,0.03904,0.07808,-0.00488,-0.00488
-0.01464,0.01708,-0.01952,-0.0122,-0.00488,-0.00488,0.01952,0.0244,0.03904,0.07808,-0.00976,-0.00488
-0.00488,0.0122,-0.01952,-0.01708,-0.01464,0.00488,0.01464,0.00976,0.03904,0.08784,0,-0.00488
0,0.00244,-0.00488,-0.00488,-0.00488,0.00244,0.00976,0.00976,0.03904,0.08296,0.00488,0
-0.01464,0.0122,-0.00976,-0.00244,0.00488,-0.00976,0.01952,0.01464,0.0244,0.0732,0,-0.01952
-0.01464,0.01708,-0.01952,-0.0122,-0.00488,-0.00488,0.01464,0.01464,0.0244,0.0732,0.00488,-0.00976
0,0.00976,-0.01952,-0.01952,-0.01952,0.00976,0.00488,0,0.0244,0.0732,-0.00488,0
0.00976,0.00244,-0.01464,-0.01952,-0.0244,0.01708,0.00488,0,0.0244,0.07808,-0.01464,0
0.01952,-0.00732,-0.00488,-0.01464,-0.0244,0.02196,0,0,0.01952,0.07808,0,0.00488
0.0244,-0.00488,-0.01464,-0.02684,-0.03904,0.03172,-0.00488,0,0.01952,0.0732,0.00976,0
0.00976,0.00488,-0.01952,-0.0244,-0.02928,0.01952,-0.00976,-0.00488,0.00976,0.06832,0.00488,-0.00976
0.00488,0.01464,-0.03416,-0.0366,-0.03904,0.02196,-0.01952,-0.00488,0.00488,0.06344,0.00976,-0.00976
0.03416,-0.00976,-0.01464,-0.03172,-0.0488,0.04148,-0.0244,-0.00976,0.00488,0.06344,0.01464,0.00488
0.03904,-0.0122,-0.01464,-0.03416,-0.05368,0.04636,-0.0244,-0.00976,0.00488,0.06832,0.01464,0.00488
0.05368,-0.02196,-0.00976,-0.0366,-0.06344,0.05856,-0.0244,-0.01952,0.00976,0.07808,0.02928,0.00488
0.05368,-0.01952,-0.01464,-0.04148,-0.06832,0.061,-0.02928,-0.0244,0.00976,0.08296,0.03904,0.00976
0.06344,-0.02684,-0.00976,-0.04148,-0.0732,0.06832,-0.03904,-0.02928,0.00488,0.0732,0.03904,0.01952
0.07808,-0.03904,0,-0.03904,-0.07808,0.07808,-0.04392,-0.0244,0,0.0732,0.0488,0.0244
0.0976,-0.04636,-0.00488,-0.05368,-0.10248,0.10004,-0.0488,-0.02928,-0.00976,0.0732,0.03904,0.01952
0.10736,-0.05124,-0.00488,-0.05856,-0.11224,0.1098,-0.05856,-0.03416,-0.00488,0.0732,0.04392,0.02928
0.10736,-0.0488,-0.00976,-0.06344,-0.11712,0.11224,-0.06832,-0.0488,-0.01952,0.06344,0.05856,0.02928
0.13176,-0.06588,0,-0.06588,-0.13176,0.13176,-0.07808,-0.05368,-0.01952,0.06344,0.06832,0.0244
0.16104,-0.09272,0.0244,-0.05612,-0.13664,0.14884,-0.08296,-0.0488,-0.0244,0.06344,0.06832,0.02928
0.16104,-0.0976,0.03416,-0.04636,-0.12688,0.14396,-0.0976,-0.05368,-0.01952,0.06344,0.0732,0.04392
0.18544,-0.10492,0.0244,-0.06832,-0.16104,0.17324,-0.09272,-0.05368,-0.01952,0.07808,0.08296,0.05368
0.19032,-0.1098,0.02928,-0.06588,-0.16104,0.17568,-0.0976,-0.06344,-0.0244,0.07808,0.08296,0.05856
0.19032,-0.11468,0.03904,-0.05612,-0.15128,0.1708,-0.0976,-0.06832,-0.01952,0.08784,0.08784,0.06832
0.20496,-0.122,0.03904,-0.06344,-0.16592,0.18544,-0.10248,-0.06832,-0.01952,0.09272,0.08784,0.06832
0.20496,-0.12444,0.04392,-0.05856,-0.16104,0.183,-0.10248,-0.05856,-0.01952,0.09272,0.09272,0.06832
0.20984,-0.12932,0.0488,-0.05612,-0.16104,0.18544,-0.10248,-0.06344,-0.01952,0.09272,0.0976,0.05856
0.20008,-0.11956,0.03904,-0.061,-0.16104,0.18056,-0.10736,-0.0732,-0.01952,0.09272,0.09272,0.05856
0.19032,-0.11468,0.03904,-0.05612,-0.15128,0.1708,-0.10736,-0.0732,-0.01952,0.0976,0.09272,0.05856
0.18544,-0.10736,0.02928,-0.06344,-0.15616,0.1708,-0.11712,-0.0732,-0.02928,0.08784,0.09272,0.0488
0.18056,-0.10492,0.02928,-0.061,-0.15128,0.16592,-0.11712,-0.07808,-0.0244,0.09272,0.09272,0.04392
0.1708,-0.10492,0.03904,-0.04636,-0.13176,0.15128,-0.11712,-0.08296,-0.01464,0.09272,0.09272,0.05368
0.1708,-0.10736,0.04392,-0.04148,-0.12688,0.14884,-0.11224,-0.07808,-0.00976,0.0976,0.09272,0.05368
0.13664,-0.08296,0.02928,-0.03904,-0.10736,0.122,-0.10736,-0.08296,-0.00976,0.0976,0.09272,0.05856
0.12688,-0.07808,0.02928,-0.03416,-0.0976,0.11224,-0.0976,-0.07808,-0.00488,0.0976,0.09272,0.06832
0.10248,-0.06588,0.02928,-0.02196,-0.0732,0.08784,-0.08296,-0.06344,0,0.10248,0.08296,0.06344
0.08296,-0.05124,0.01952,-0.02196,-0.06344,0.0732,-0.06832,-0.05856,0,0.0976,0.07808,0.05368
0.06832,-0.0366,0.00488,-0.02928,-0.06344,0.06588,-0.06344,-0.05368,0.00488,0.10248,0.06344,0.04392
0.0488,-0.02196,-0.00488,-0.02928,-0.05368,0.05124,-0.05368,-0.04392,0.01464,0.11224,0.05368,0.03416
0.04392,-0.01708,-0.00976,-0.03172,-0.05368,0.0488,-0.03416,-0.03416,0.01464,0.10736,0.03904,0.0244
0.02928,-0.00976,-0.00976,-0.0244,-0.03904,0.03416,-0.0244,-0.02928,0.01952,0.0976,0.02928,0.01952
0.0244,-0.00732,-0.00976,-0.02196,-0.03416,0.02928,-0.0244,-0.01952,0.0244,0.0976,0.01952,0.00976
0.01952,0,-0.01952,-0.02928,-0.03904,0.02928,-0.00976,-0.00976,0.0244,0.10248,0.00976,0.00488
0.00976,0.0122,-0.03416,-0.03904,-0.04392,0.02684,-0.00488,0,0.02928,0.11224,0,0.00976
0.00488,0.01464,-0.03416,-0.0366,-0.03904,0.02196,-0.00488,0,0.02928,0.10736,-0.00976,0.00488
0,0.01952,-0.03904,-0.03904,-0.03904,0.01952,0.00488,0,0.0244,0.0976,-0.01464,-0.00488
-0.00976,0.02684,-0.04392,-0.03904,-0.03416,0.0122,0.00976,0,0.0244,0.10248,-0.0244,-0.00976
-0.01464,0.02928,-0.04392,-0.0366,-0.02928,0.00732,0.00976,0.00976,0.0244,0.08784,-0.0244,-0.00976
-0.01464,0.02928,-0.04392,-0.0366,-0.02928,0.00732,0.00976,0.00976,0.0244,0.08784,-0.02928,-0.01952
-0.01952,0.04148,-0.06344,-0.05368,-0.04392,0.0122,0.00976,0.00976,0.0244,0.09272,-0.0488,-0.01952
-0.0244,0.04392,-0.06344,-0.05124,-0.03904,0.00732,0.00976,0.00976,0.0244,0.08296,-0.0488,-0.0244
-0.0244,0.04148,-0.05856,-0.04636,-0.03416,0.00488,0.01952,0.00976,0.0244,0.08784,-0.03904,-0.0244
-0.01952,0.03904,-0.05856,-0.0488,-0.03904,0.00976,0.01952,0.01464,0.0244,0.09272,-0.03416,-0.02928
-0.01464,0.03416,-0.05368,-0.04636,-0.03904,0.0122,0.01952,0.0244,0.01952,0.08784,-0.03416,-0.02928
-0.00976,0.02684,-0.04392,-0.03904,-0.03416,0.0122,0.01464,0.01952,0.01952,0.09272,-0.03416,-0.02928
-0.00976,0.0244,-0.03904,-0.03416,-0.02928,0.00976,0.0244,0.01464,0.0244,0.07808,-0.03904,-0.0244
-0.00488,0.02196,-0.03904,-0.0366,-0.03416,0.01464,0.02928,0.01464,0.0244,0.08296,-0.03416,-0.01952
-0.01464,0.03172,-0.0488,-0.04148,-0.03416,0.00976,0.01952,0.01464,0.01952,0.06832,-0.04392,-0.02928
-0.02928,0.0488,-0.06832,-0.05368,-0.03904,0.00488,0.01952,0.01464,0.01952,0.06832,-0.05856,-0.03416
-0.02928,0.04392,-0.05856,-0.04392,-0.02928,0,0.01952,0.00488,0.00976,0.06344,-0.0488,-0.0244
-0.0244,0.04148,-0.05856,-0.04636,-0.03416,0.00488,0.01952,0.00976,0.00488,0.06344,-0.05368,-0.02928
-0.01464,0.03172,-0.0488,-0.04148,-0.03416,0.00976,0.01952,0.00488,0.01464,0.07808,-0.04392,-0.0244
-0.00488,0.02928,-0.05368,-0.05124,-0.0488,0.02196,0.0244,0.00488,0.0244,0.07808,-0.04392,-0.0244
-0.00488,0.02928,-0.05368,-0.05124,-0.0488,0.02196,0.01464,0.01464,0.01464,0.08784,-0.03904,-0.0244
-0.01464,0.03416,-0.05368,-0.04636,-0.03904,0.0122,0.01952,0.01952,0.01464,0.08296,-0.04392,-0.02928
-0.01464,0.03904,-0.06344,-0.05612,-0.0488,0.01708,0.00976,0.00976,0.01464,0.0732,-0.02928,-0.02928
-0.02928,0.04636,-0.06344,-0.0488,-0.03416,0.00244,0.00976,0.00488,0.00976,0.0732,-0.03416,-0.03416
-0.02928,0.04392,-0.05856,-0.04392,-0.02928,0,0.00976,0.00976,0.01952,0.0732,-0.03416,-0.03416
-0.03416,0.04636,-0.05856,-0.04148,-0.0244,-0.00488,0.01464,0.00976,0.01952,0.0732,-0.03416,-0.03416
-0.01952,0.04148,-0.06344,-0.05368,-0.04392,0.0122,0.01464,0.00488,0.01952,0.0732,-0.04392,-0.0244
-0.00488,0.03416,-0.06344,-0.061,-0.05856,0.02684,0.00488,-0.00488,0.01952,0.06832,-0.03904,-0.02928
0,0.02928,-0.05856,-0.05856,-0.05856,0.02928,0.00976,0,0.01464,0.07808,-0.03904,-0.0244
-0.00976,0.03416,-0.05856,-0.05368,-0.0488,0.01952,0.00976,0.00488,0.00488,0.0732,-0.04392,-0.01952
-0.01464,0.03172,-0.0488,-0.04148,-0.03416,0.00976,0.00488,-0.00488,0.01464,0.0732,-0.03904,-0.01952
-0.01464,0.02684,-0.03904,-0.03172,-0.0244,0.00488,0.00488,-0.00488,0.0244,0.0732,-0.03904,-0.01952
-0.00488,0.0244,-0.04392,-0.04148,-0.03904,0.01708,0.01464,0,0.0244,0.07808,-0.03904,-0.01464
-0.00976,0.0244,-0.03904,-0.03416,-0.02928,0.00976,0.01464,-0.00488,0.0244,0.09272,-0.03904,-0.01464
-0.00488,0.02684,-0.0488,-0.04636,-0.04392,0.01952,0.01464,0.00488,0.01464,0.09272,-0.03416,-0.01464
0,0.0244,-0.0488,-0.0488,-0.0488,0.0244,0.01952,0.00976,0.01464,0.09272,-0.02928,-0.01464
-0.00488,0.02928,-0.05368,-0.05124,-0.0488,0.02196,0.01464,0.00976,0.0244,0.07808,-0.03904,-0.01952
-0.00488,0.02928,-0.05368,-0.05124,-0.0488,0.02196,0.00976,0.00488,0.0244,0.07808,-0.03904,-0.01952
-0.01464,0.03172,-0.0488,-0.04148,-0.03416,0.00976,0.00488,0,0.01464,0.07808,-0.03416,-0.02928
-0.01464,0.03172,-0.0488,-0.04148,-0.03416,0.00976,0.00488,0,0.01952,0.08296,-0.02928,-0.03416
0,0.02196,-0.04392,-0.04392,-0.04392,0.02196,0.00488,0,0.01464,0.07808,-0.02928,-0.03416
-0.00488,0.0244,-0.04392,-0.04148,-0.03904,0.01708,0.01464,0,0.01464,0.07808,-0.02928,-0.03416
0,0.01708,-0.03416,-0.03416,-0.03416,0.01708,0.01464,0.00488,0.01952,0.09272,-0.03904,-0.0244
0.00976,0.00976,-0.02928,-0.03416,-0.03904,0.0244,0.01464,0.00488,0.01952,0.09272,-0.03416,-0.0244
0.00488,0.01708,-0.03904,-0.04148,-0.04392,0.0244,0.00488,0.00488,0.01952,0.08296,-0.03416,-0.01464
-0.00976,0.03172,-0.05368,-0.0488,-0.04392,0.01708,0.00488,0,0.01464,0.07808,-0.03416,-0.00976
-0.00976,0.03172,-0.05368,-0.0488,-0.04392,0.01708,0.00488,0,0.01464,0.07808,-0.03416,-0.00976
-0.00488,0.02684,-0.0488,-0.04636,-0.04392,0.01952,0.00976,0.00488,0.01464,0.07808,-0.03416,-0.00976
-0.01464,0.0366,-0.05856,-0.05124,-0.04392,0.01464,0.00976,0.00488,0.01952,0.08784,-0.04392,-0.01952
-0.00976,0.02928,-0.0488,-0.04392,-0.03904,0.01464,0.00488,0.00488,0.01952,0.09272,-0.04392,-0.01952
-0.01952,0.03904,-0.05856,-0.0488,-0.03904,0.00976,0.00488,-0.00976,0.00976,0.0732,-0.03904,-0.0244
-0.01952,0.04148,-0.06344,-0.05368,-0.04392,0.0122,0.00488,-0.00976,0.00488,0.07808,-0.03416,-0.01952
-0.01952,0.04148,-0.06344,-0.05368,-0.04392,0.0122,0.01464,-0.00488,0.00976,0.07808,-0.03416,-0.03904
-0.01952,0.04148,-0.06344,-0.05368,-0.04392,0.0122,0.00976,-0.00488,0.00488,0.06344,-0.03904,-0.03904
-0.01464,0.04148,-0.06832,-0.061,-0.05368,0.01952,0.00976,0.00488,0.01464,0.07808,-0.0488,-0.0244
-0.01464,0.03904,-0.06344,-0.05612,-0.0488,0.01708,0.01464,0.00976,0.01952,0.0976,-0.04392,-0.01464
-0.00488,0.03172,-0.05856,-0.05612,-0.05368,0.0244,0.0244,0.00976,0.01952,0.09272,-0.04392,-0.0244
-0.00976,0.03416,-0.05856,-0.05368,-0.0488,0.01952,0.0244,0.00976,0.01952,0.08784,-0.0488,-0.02928
-0.00976,0.02928,-0.0488,-0.04392,-0.03904,0.01464,0.01952,0.00488,0.00976,0.08784,-0.04392,-0.03904
-0.01464,0.03172,-0.0488,-0.04148,-0.03416,0.00976,0.01952,0.00488,0.00976,0.08296,-0.02928,-0.03904
-0.01464,0.0366,-0.05856,-0.05124,-0.04392,0.01464,0.01952,0.00976,0.01464,0.0732,-0.03904,-0.03416
-0.00976,0.03416,-0.05856,-0.05368,-0.0488,0.01952,0.0244,0.00976,0.01464,0.0732,-0.03904,-0.02928
-0.01952,0.04392,-0.06832,-0.05856,-0.0488,0.01464,0.01464,0.00976,0.00488,0.08296,-0.0488,-0.02928
-0.0244,0.04392,-0.06344,-0.05124,-0.03904,0.00732,0.01464,0.00976,0.00488,0.08784,-0.05856,-0.03416
-0.0244,0.04392,-0.06344,-0.05124,-0.03904,0.00732,0.01464,0,0.00488,0.08784,-0.06344,-0.03416
-0.02928,0.0488,-0.06832,-0.05368,-0.03904,0.00488,0.01464,0,0.00488,0.09272,-0.0732,-0.03904
-0.01952,0.03904,-0.05856,-0.0488,-0.03904,0.00976,0.01464,0.00976,0.01952,0.08784,-0.06832,-0.03416
-0.01952,0.03416,-0.0488,-0.03904,-0.02928,0.00488,0.01464,0.01952,0.01464,0.08296,-0.05856,-0.03416
-0.01464,0.03172,-0.0488,-0.04148,-0.03416,0.00976,0.0244,0.00976,0.01952,0.08296,-0.05856,-0.03416
-0.00976,0.02928,-0.0488,-0.04392,-0.03904,0.01464,0.03416,0.00976,0.01952,0.08296,-0.05856,-0.03416
-0.01952,0.04148,-0.06344,-0.05368,-0.04392,0.0122,0.0244,0.01464,0.01952,0.0732,-0.05856,-0.03904
-0.01952,0.04392,-0.06832,-0.05856,-0.0488,0.01464,0.0244,0.01464,0.01952,0.06344,-0.05856,-0.04392
-0.01464,0.04148,-0.06832,-0.061,-0.05368,0.01952,0.0244,0.01464,0.01952,0.06344,-0.05856,-0.04392
-0.01464,0.04148,-0.06832,-0.061,-0.05368,0.01952,0.0244,0.01464,0.01952,0.05856,-0.05856,-0.03904
-0.0244,0.04392,-0.06344,-0.05124,-0.03904,0.00732,0.01464,0.00488,0.00976,0.05856,-0.05856,-0.02928
-0.0244,0.04392,-0.06344,-0.05124,-0.03904,0.00732,0.01464,0.00488,0.00488,0.0488,-0.05856,-0.04392
-0.02928,0.05368,-0.07808,-0.06344,-0.0488,0.00976,0.01464,0.00976,0.01464,0.04392,-0.05856,-0.04392
-0.02928,0.05368,-0.07808,-0.06344,-0.0488,0.00976,0.01464,0.00976,0.01464,0.03416,-0.05856,-0.04392
-0.01464,0.0366,-0.05856,-0.05124,-0.04392,0.01464,0.00976,0.00976,0.01464,0.0244,-0.05368,-0.04392
-0.00976,0.02928,-0.0488,-0.04392,-0.03904,0.01464,0.01952,0.01464,0.01952,0.01464,-0.05368,-0.03416
-0.01952,0.04392,-0.06832,-0.05856,-0.0488,0.01464,0.01464,0.01464,0.01952,0.00488,-0.06344,-0.04392
-0.01952,0.05124,-0.08296,-0.0732,-0.06344,0.02196,0.01464,0.01464,0.0244,0.01464,-0.05368,-0.03904
-0.01464,0.04392,-0.0732,-0.06588,-0.05856,0.02196,0.0244,0.00488,0.00976,0.0244,-0.05368,-0.03904
-0.01464,0.03904,-0.06344,-0.05612,-0.0488,0.01708,0.0244,0.00976,0.00976,0.0244,-0.05856,-0.03904
0.00488,0.0244,-0.05368,-0.05612,-0.05856,0.03172,0.0244,0.01464,0.0244,0.02928,-0.05368,-0.02928
0,0.02684,-0.05368,-0.05368,-0.05368,0.02684,0.01952,0.01952,0.01952,0.02928,-0.05368,-0.02928
-0.00976,0.03904,-0.06832,-0.06344,-0.05856,0.0244,0.01952,0.00976,0.00976,0.01952,-0.06344,-0.04392
-0.0244,0.04636,-0.06832,-0.05612,-0.04392,0.00976,0.01464,0.00488,0.00488,0.01952,-0.06832,-0.05856
-0.0244,0.04636,-0.06832,-0.05612,-0.04392,0.00976,0.01464,0.01464,0.00976,0.02928,-0.0732,-0.05368
-0.0244,0.04636,-0.06832,-0.05612,-0.04392,0.00976,0.01464,0.01464,0.00976,0.02928,-0.06832,-0.05368
-0.02928,0.05368,-0.07808,-0.06344,-0.0488,0.00976,0.0244,0.00976,0.00976,0.04392,-0.06832,-0.05368
-0.01952,0.04392,-0.06832,-0.05856,-0.0488,0.01464,0.0244,0.00488,0.00976,0.04392,-0.06344,-0.05368
-0.0244,0.0488,-0.0732,-0.061,-0.0488,0.0122,0.0244,0.01464,0.00976,0.04392,-0.06344,-0.03904
-0.0244,0.0488,-0.0732,-0.061,-0.0488,0.0122,0.0244,0.01464,0.01464,0.05368,-0.06344,-0.03904
-0.02928,0.05124,-0.0732,-0.05856,-0.04392,0.00732,0.01464,0.00976,0.01952,0.05856,-0.06344,-0.04392
-0.02928,0.05124,-0.0732,-0.05856,-0.04392,0.00732,0.01464,0.00976,0.01952,0.0488,-0.06344,-0.04392
-0.01952,0.0488,-0.07808,-0.06832,-0.05856,0.01952,0.00976,0.01464,0.01464,0.0488,-0.06344,-0.03904
-0.01464,0.04392,-0.0732,-0.06588,-0.05856,0.02196,0.00488,0.00488,0.01464,0.0488,-0.05856,-0.03904
-0.0244,0.04392,-0.06344,-0.05124,-0.03904,0.00732,0.00488,0,0.01464,0.03904,-0.05856,-0.0488
-0.01952,0.04148,-0.06344,-0.05368,-0.04392,0.0122,0.00976,0.00488,0.01464,0.02928,-0.05368,-0.05856
-0.02928,0.05124,-0.0732,-0.05856,-0.04392,0.00732,0.00488,0.00488,0.00488,0.02928,-0.05856,-0.0488
-0.01464,0.04148,-0.06832,-0.061,-0.05368,0.01952,0.00488,0,0.00488,0.02928,-0.05856,-0.0488
-0.01952,0.0488,-0.07808,-0.06832,-0.05856,0.01952,0.02928,0.00976,0.02928,0.02928,-0.0488,-0.03904
-0.00976,0.03904,-0.06832,-0.06344,-0.05856,0.0244,0.02928,0.01952,0.01952,0.02928,-0.03904,-0.03904
-0.00976,0.03416,-0.05856,-0.05368,-0.0488,0.01952,0.02928,0.01952,0.01952,0.02928,-0.03904,-0.03904
-0.01952,0.03904,-0.05856,-0.0488,-0.03904,0.00976,0.01952,0.00976,0.00976,0.01952,-0.05856,-0.0488
-0.01952,0.03904,-0.05856,-0.0488,-0.03904,0.00976,0.00976,0,0.00976,0.01952,-0.07808,-0.05856
-0.00976,0.03416,-0.05856,-0.05368,-0.0488,0.01952,0.01952,0.00976,0.01952,0.02928,-0.06832,-0.0488
-0.00976,0.03416,-0.05856,-0.05368,-0.0488,0.01952,0.01952,0.00976,0.01952,0.02928,-0.06832,-0.0488
-0.0244,0.04636,-0.06832,-0.05612,-0.04392,0.00976,0.01952,0,0.01464,0.01952,-0.0732,-0.05856
-0.02928,0.05368,-0.07808,-0.06344,-0.0488,0.00976,0.01952,0,0.00976,0.01464,-0.0732,-0.05368
-0.01952,0.05124,-0.08296,-0.0732,-0.06344,0.02196,0.01952,0.00976,0.01464,0.02928,-0.0732,-0.05368
-0.01952,0.05124,-0.08296,-0.0732,-0.06344,0.02196,0.01952,0.00976,0.01464,0.0244,-0.06832,-0.05368
-0.00976,0.03904,-0.06832,-0.06344,-0.05856,0.0244,0.00976,0,0.00488,0.03416,-0.05856,-0.05368
-0.00976,0.03904,-0.06832,-0.06344,-0.05856,0.0244,0.00976,0,0.00976,0.03416,-0.05856,-0.05856
-0.01464,0.04636,-0.07808,-0.07076,-0.06344,0.0244,0.01464,0.00488,0.00976,0.04392,-0.0732,-0.0488
-0.0244,0.05368,-0.08296,-0.07076,-0.05856,0.01708,0.01464,0.00488,0.01952,0.04392,-0.06832,-0.0488
-0.01464,0.04148,-0.06832,-0.061,-0.05368,0.01952,0.01464,0.00488,0.01952,0.05856,-0.06832,-0.04392
-0.01464,0.03904,-0.06344,-0.05612,-0.0488,0.01708,0.01464,0,0.01464,0.05856,-0.05856,-0.04392
-0.00488,0.02684,-0.0488,-0.04636,-0.04392,0.01952,0.01952,0.00976,0.02928,0.0732,-0.05856,-0.04392
0,0.01708,-0.03416,-0.03416,-0.03416,0.01708,0.02928,0.00976,0.02928,0.07808,-0.04392,-0.03416
-0.00976,0.02196,-0.03416,-0.02928,-0.0244,0.00732,0.03904,0.00976,0.04392,0.09272,-0.04392,-0.02928
-0.00976,0.01952,-0.02928,-0.0244,-0.01952,0.00488,0.03416,0,0.05368,0.09272,-0.03904,-0.0244
-0.00976,0.01464,-0.01952,-0.01464,-0.00976,0,0.01464,-0.01952,0.06832,0.0976,-0.0244,-0.01464
-0.00488,0.0122,-0.01952,-0.01708,-0.01464,0.00488,0,-0.0244,0.06832,0.0976,-0.01952,-0.00976
-0.00488,0.00244,0,0.00244,0.00488,-0.00488,-0.0244,-0.03904,0.0732,0.0976,-0.00976,-0.00976
-0.01952,0.0122,-0.00488,0.00488,0.01464,-0.01708,-0.03416,-0.04392,0.0732,0.09272,-0.01952,-0.01952
-0.01464,0.01708,-0.01952,-0.0122,-0.00488,-0.00488,-0.02928,-0.04392,0.06344,0.08784,-0.02928,-0.01952
-0.00976,0.01708,-0.0244,-0.01952,-0.01464,0.00244,-0.02928,-0.04392,0.05856,0.08296,-0.03904,-0.02928
0,0.0122,-0.0244,-0.0244,-0.0244,0.0122,-0.03416,-0.03904,0.0488,0.0732,-0.05368,-0.02928
0.00488,0.0122,-0.02928,-0.03172,-0.03416,0.01952,-0.04392,-0.03416,0.03904,0.06344,-0.06344,-0.03416
0.0244,0.00732,-0.03904,-0.05124,-0.06344,0.04392,-0.06832,-0.03904,0.01952,0.0488,-0.05856,-0.04392
0.02928,0.00976,-0.0488,-0.06344,-0.07808,0.05368,-0.06344,-0.04392,0,0.02928,-0.05856,-0.04392
0.02928,0.01464,-0.05856,-0.0732,-0.08784,0.05856,-0.05856,-0.04392,-0.0244,0.02928,-0.0488,-0.05368
0.03416,0.01708,-0.06832,-0.0854,-0.10248,0.06832,-0.05856,-0.03904,-0.02928,0.0244,-0.05368,-0.06344
0.05368,0.00488,-0.06344,-0.09028,-0.11712,0.0854,-0.05368,-0.03904,-0.04392,0.00488,-0.04392,-0.05856
0.05368,0.00976,-0.0732,-0.10004,-0.12688,0.09028,-0.05856,-0.02928,-0.0488,0,-0.04392,-0.0488
0.06832,0.00244,-0.0732,-0.10736,-0.14152,0.10492,-0.04392,-0.01952,-0.02928,0.00488,-0.03904,-0.0488
0.06832,0.00732,-0.08296,-0.11712,-0.15128,0.1098,-0.03904,-0.01952,-0.02928,0.01952,-0.03904,-0.03416
0.05368,0.0122,-0.07808,-0.10492,-0.13176,0.09272,-0.0244,-0.0244,-0.03904,0.00976,-0.0488,-0.04392
0.0488,0.01464,-0.07808,-0.10248,-0.12688,0.08784,-0.01952,-0.01952,-0.02928,0.00488,-0.05856,-0.04392
0.0244,0.03172,-0.08784,-0.10004,-0.11224,0.06832,-0.01464,-0.01952,-0.0244,-0.00488,-0.05856,-0.05368
0.01464,0.04636,-0.10736,-0.11468,-0.122,0.06832,0,-0.01952,-0.00976,0,-0.06344,-0.06344
0.01464,0.03416,-0.08296,-0.09028,-0.0976,0.05612,0.00976,-0.00488,-0.00976,0.00976,-0.05856,-0.05368
-0.00488,0.03904,-0.0732,-0.07076,-0.06832,0.03172,0.0244,-0.00488,0,0.01464,-0.06344,-0.05368
-0.02928,0.05856,-0.08784,-0.0732,-0.05856,0.01464,0.04392,0.00976,0,0.02928,-0.0732,-0.06344
-0.02928,0.05612,-0.08296,-0.06832,-0.05368,0.0122,0.04392,0.01952,0,0.02928,-0.07808,-0.06344
-0.01952,0.05124,-0.08296,-0.0732,-0.06344,0.02196,0.03416,0.01952,0,0.01952,-0.0732,-0.06344
-0.00488,0.04392,-0.08296,-0.08052,-0.07808,0.0366,0.03904,0.0244,0,0.00976,-0.06832,-0.06344
-0.00976,0.04148,-0.0732,-0.06832,-0.06344,0.02684,0.04392,0.0244,0.01464,0.01952,-0.06344,-0.05368
-0.00976,0.04636,-0.08296,-0.07808,-0.0732,0.03172,0.03904,0.0244,0.01464,0.02928,-0.06344,-0.05368
-0.02928,0.061,-0.09272,-0.07808,-0.06344,0.01708,0.03904,0.01952,0.00488,0.02928,-0.06832,-0.0488
-0.04392,0.07076,-0.0976,-0.07564,-0.05368,0.00488,0.04392,0.0244,0.00488,0.02928,-0.06832,-0.0488
-0.05368,0.0732,-0.09272,-0.06588,-0.03904,-0.00732,0.05368,0.01952,0.02928,0.0488,-0.05856,-0.0244
0,0.01952,-0.03904,-0.03904,-0.03904,0.01952,0.0488,0.03904,0.11224,0.1464,0,0.0488
0.0488,-0.04392,0.03904,0.01464,-0.00976,0.02928,0.01952,0.05368,0.1708,0.2196,0.11712,0.16104
0.15616,-0.122,0.08784,0.00976,-0.06832,0.11224,-0.03416,0.00488,0.17568,0.25376,0.30256,0.27328
0.36112,-0.24156,0.122,-0.05856,-0.23912,0.30012,-0.12688,-0.0732,0.12688,0.25864,0.47824,0.37088
0.5856,-0.366,0.1464,-0.1464,-0.4392,0.5124,-0.26352,-0.1952,0.00488,0.18544,0.67344,0.44408
0.88328,-0.53924,0.1952,-0.24644,-0.68808,0.78568,-0.4392,-0.3172,-0.0976,0.122,0.90768,0.56608
1.15168,-0.68564,0.2196,-0.35624,-0.93208,1.04188,-0.58072,-0.40992,-0.17568,0.08784,1.07848,0.63928
1.25904,-0.7564,0.25376,-0.37576,-1.00528,1.13216,-0.66856,-0.50264,-0.33184,-0.05368,1.0492,0.5612
1.1224,-0.68076,0.23912,-0.32208,-0.88328,1.00284,-0.62464,-0.45872,-0.38064,-0.15128,0.80032,0.3904
0.84912,-0.44652,0.04392,-0.38064,-0.8052,0.82716,-0.4636,-0.3172,-0.44408,-0.33672,0.38552,0.08296
0.47824,-0.1586,-0.16104,-0.40016,-0.63928,0.55876,-0.24888,-0.16104,-0.488,-0.48312,0.0244,-0.18544
0.18544,0.06344,-0.31232,-0.40504,-0.49776,0.3416,-0.01952,0.0488,-0.40504,-0.49776,-0.27328,-0.39528
0.08784,0.15372,-0.39528,-0.4392,-0.48312,0.28548,0.0732,0.16104,-0.3904,-0.50752,-0.41968,-0.50264
0.07808,0.17324,-0.42456,-0.4636,-0.50264,0.29036,0.0976,0.24888,-0.37576,-0.488,-0.50264,-0.55144
0.05368,0.21716,-0.488,-0.51484,-0.54168,0.29768,0.16104,0.37088,-0.35136,-0.4636,-0.55144,-0.5612
0.00488,0.23912,-0.48312,-0.48556,-0.488,0.24644,0.1708,0.37576,-0.36112,-0.44408,-0.5124,-0.52704
0.0244,0.1952,-0.4148,-0.427,-0.4392,0.2318,0.1464,0.34648,-0.30256,-0.3416,-0.42944,-0.42944
-0.00488,0.1586,-0.31232,-0.30988,-0.30744,0.15128,0.122,0.28792,-0.20008,-0.20008,-0.32696,-0.31232
0,0.1098,-0.2196,-0.2196,-0.2196,0.1098,0.10248,0.25376,-0.12688,-0.122,-0.244,-0.22936
-0.00488,0.0976,-0.19032,-0.18788,-0.18544,0.09028,0.11224,0.23424,-0.07808,-0.05856,-0.18544,-0.16592
0.00488,0.08784,-0.18056,-0.183,-0.18544,0.09516,0.10248,0.19032,-0.03904,-0.03416,-0.16104,-0.1464
-0.01464,0.08052,-0.1464,-0.13908,-0.13176,0.05856,0.08296,0.122,-0.03416,-0.01464,-0.13664,-0.12688
-0.0244,0.0732,-0.122,-0.1098,-0.0976,0.0366,0.06344,0.06832,-0.02928,-0.01464,-0.122,-0.11224
-0.03904,0.08052,-0.122,-0.10248,-0.08296,0.02196,0.06344,0.05856,-0.01952,0,-0.11224,-0.08784
-0.04392,0.08052,-0.11712,-0.09516,-0.0732,0.01464,0.05856,0.0488,-0.01464,0.00488,-0.10736,-0.08296
-0.02928,0.06832,-0.10736,-0.09272,-0.07808,0.0244,0.06344,0.05368,-0.00976,0.01952,-0.0976,-0.07808
-0.02928,0.06344,-0.0976,-0.08296,-0.06832,0.01952,0.06344,0.03904,-0.00976,0.01464,-0.08784,-0.06344
-0.02928,0.05856,-0.08784,-0.0732,-0.05856,0.01464,0.06344,0.03904,-0.00976,0.01952,-0.07808,-0.0732
-0.0244,0.05612,-0.08784,-0.07564,-0.06344,0.01952,0.05856,0.03904,-0.00976,0.01464,-0.07808,-0.07808
-0.03416,0.06344,-0.09272,-0.07564,-0.05856,0.0122,0.05856,0.03904,-0.00488,0.0244,-0.08296,-0.06832
-0.03416,0.061,-0.08784,-0.07076,-0.05368,0.00976,0.05856,0.03416,-0.00488,0.0244,-0.07808,-0.06832
-0.03904,0.06344,-0.08784,-0.06832,-0.0488,0.00488,0.05856,0.02928,-0.00488,0.03416,-0.07808,-0.0732
-0.03904,0.061,-0.08296,-0.06344,-0.04392,0.00244,0.05856,0.02928,0,0.03416,-0.0732,-0.06832
-0.03416,0.061,-0.08784,-0.07076,-0.05368,0.00976,0.0488,0.01464,0,0.03416,-0.08296,-0.0732
-0.03416,0.061,-0.08784,-0.07076,-0.05368,0.00976,0.0488,0.01464,-0.00488,0.0244,-0.08296,-0.0732
-0.02928,0.05368,-0.07808,-0.06344,-0.0488,0.00976,0.05368,0.0244,-0.00488,0.0244,-0.08296,-0.06832
-0.0244,0.05124,-0.07808,-0.06588,-0.05368,0.01464,0.0488,0.02928,0,0.02928,-0.08784,-0.06832
-0.00976,0.04392,-0.07808,-0.0732,-0.06832,0.02928,0.05368,0.0244,0.00976,0.02928,-0.07808,-0.06344
-0.01464,0.04392,-0.0732,-0.06588,-0.05856,0.02196,0.06344,0.0244,0.00976,0.02928,-0.06832,-0.06344
-0.01952,0.05612,-0.09272,-0.08296,-0.0732,0.02684,0.05856,0.02928,0,0.01952,-0.06832,-0.0732
-0.02928,0.06344,-0.0976,-0.08296,-0.06832,0.01952,0.0488,0.02928,0,0.01464,-0.06832,-0.06832
-0.01952,0.05856,-0.0976,-0.08784,-0.07808,0.02928,0.0488,0.0244,0,0.0244,-0.06344,-0.05856
-0.0244,0.061,-0.0976,-0.0854,-0.0732,0.0244,0.04392,0.0244,-0.00488,0.0244,-0.0732,-0.05856
-0.0244,0.05856,-0.09272,-0.08052,-0.06832,0.02196,0.03416,0.00976,-0.00488,0.0244,-0.08296,-0.05856
-0.00976,0.04636,-0.08296,-0.07808,-0.0732,0.03172,0.03416,0.00976,-0.00488,0.02928,-0.08296,-0.05856
-0.00488,0.03904,-0.0732,-0.07076,-0.06832,0.03172,0.03904,0.01952,-0.00488,0.02928,-0.06832,-0.06344
0.00488,0.03416,-0.0732,-0.07564,-0.07808,0.04148,0.03904,0.01952,-0.00976,0.0244,-0.06832,-0.06344
0.00488,0.03416,-0.0732,-0.07564,-0.07808,0.04148,0.03416,0.01464,-0.01952,0.02928,-0.05856,-0.05856
0.01464,0.0244,-0.06344,-0.07076,-0.07808,0.04636,0.02928,0.01464,-0.01952,0.0244,-0.0488,-0.05856
0.01464,0.02196,-0.05856,-0.06588,-0.0732,0.04392,0.01952,0.0244,-0.0244,0.0244,-0.05368,-0.05856
0.02928,0.0122,-0.05368,-0.06832,-0.08296,0.05612,0.01464,0.01952,-0.0244,0.02928,-0.05368,-0.05368
0.03904,0.00488,-0.0488,-0.06832,-0.08784,0.06344,0.01464,0.00976,-0.02928,0.02928,-0.04392,-0.05856
0.04392,0.00244,-0.0488,-0.07076,-0.09272,0.06832,0.01464,0.00976,-0.02928,0.03416,-0.03904,-0.06344
0.03416,0.01464,-0.06344,-0.08052,-0.0976,0.06588,0.00488,-0.00976,-0.03416,0.03416,-0.02928,-0.05856
0.05368,0,-0.05368,-0.08052,-0.10736,0.08052,0,-0.00488,-0.03416,0.03416,-0.0244,-0.0244
0.06344,-0.00732,-0.0488,-0.08052,-0.11224,0.08784,-0.00976,-0.00488,-0.02928,0.03416,-0.01952,-0.0244
0.07808,-0.01708,-0.04392,-0.08296,-0.122,0.10004,-0.02928,-0.00976,-0.03904,0.03416,-0.01464,-0.01952
0.09272,-0.02684,-0.03904,-0.0854,-0.13176,0.11224,-0.03904,-0.01464,-0.04392,0.03416,-0.01464,-0.01464
0.11224,-0.03904,-0.03416,-0.09028,-0.1464,0.12932,-0.03904,-0.0244,-0.0488,0.03416,-0.00488,-0.0244
0.13176,-0.05368,-0.0244,-0.09028,-0.15616,0.14396,-0.02928,-0.02928,-0.04392,0.04392,0.00488,-0.0244
0.12688,-0.05856,-0.00976,-0.0732,-0.13664,0.13176,-0.0488,-0.03416,-0.05368,0.04392,0.00976,-0.01464
0.14152,-0.0732,0.00488,-0.06588,-0.13664,0.13908,-0.06344,-0.04392,-0.0488,0.03904,0.01464,0
0.15128,-0.0732,-0.00488,-0.08052,-0.15616,0.15372,-0.06832,-0.05368,-0.0488,0.03904,0.0244,0.00488
0.15616,-0.07808,0,-0.07808,-0.15616,0.15616,-0.06832,-0.0488,-0.06344,0.03904,0.03416,0.01952
0.17568,-0.0854,-0.00488,-0.09272,-0.18056,0.17812,-0.07808,-0.0488,-0.05856,0.04392,0.04392,0.01952
0.18056,-0.08784,-0.00488,-0.09516,-0.18544,0.183,-0.08296,-0.05856,-0.0488,0.05368,0.0488,0.01464
0.19032,-0.10248,0.01464,-0.08052,-0.17568,0.183,-0.08296,-0.06344,-0.0488,0.05368,0.05856,0.01952
0.19032,-0.10004,0.00976,-0.0854,-0.18056,0.18544,-0.0976,-0.05368,-0.05856,0.05368,0.05856,0.0244
0.19032,-0.10004,0.00976,-0.0854,-0.18056,0.18544,-0.0976,-0.05368,-0.05856,0.05856,0.0488,0.01952
0.18544,-0.09272,0,-0.09272,-0.18544,0.18544,-0.08784,-0.06344,-0.0488,0.05856,0.04392,0.01464
0.18056,-0.09028,0,-0.09028,-0.18056,0.18056,-0.08784,-0.06344,-0.04392,0.05856,0.04392,0.0244
0.18544,-0.0976,0.00976,-0.08296,-0.17568,0.18056,-0.08784,-0.06344,-0.03416,0.0732,0.03416,0.0244
0.18056,-0.09516,0.00976,-0.08052,-0.1708,0.17568,-0.08296,-0.05856,-0.03416,0.07808,0.03416,0.0244
0.18056,-0.10004,0.01952,-0.07076,-0.16104,0.1708,-0.0732,-0.05856,-0.02928,0.08784,0.04392,0.0244
0.16104,-0.09272,0.0244,-0.05612,-0.13664,0.14884,-0.06832,-0.0488,-0.0244,0.08784,0.04392,0.03416
0.1464,-0.0854,0.0244,-0.0488,-0.122,0.1342,-0.06344,-0.03904,-0.01952,0.08784,0.04392,0.02928
0.122,-0.06832,0.01464,-0.04636,-0.10736,0.11468,-0.05368,-0.03416,-0.01952,0.0976,0.04392,0.03416
0.11224,-0.05612,0,-0.05612,-0.11224,0.11224,-0.05856,-0.03904,-0.01952,0.10248,0.03904,0.03416
0.0976,-0.05124,0.00488,-0.04392,-0.09272,0.09516,-0.0488,-0.03416,-0.00488,0.10248,0.02928,0.02928
0.07808,-0.03904,0,-0.03904,-0.07808,0.07808,-0.03904,-0.02928,-0.00488,0.0976,0.0244,0.02928
0.06344,-0.03172,0,-0.03172,-0.06344,0.06344,-0.02928,-0.0244,-0.00488,0.09272,0.01952,0.01952
0.05368,-0.02684,0,-0.02684,-0.05368,0.05368,-0.01464,-0.01464,-0.00488,0.08784,-0.00488,0.00488
0.04392,-0.01952,-0.00488,-0.02684,-0.0488,0.04636,-0.00488,-0.00488,-0.00488,0.08784,-0.01952,0
0.03416,-0.00976,-0.01464,-0.03172,-0.0488,0.04148,0.00488,0.00976,0.00976,0.09272,-0.01464,-0.00488
0.0244,-0.00488,-0.01464,-0.02684,-0.03904,0.03172,0.00488,0.00976,0.00976,0.08784,-0.0244,-0.01464
0.00976,0.00976,-0.02928,-0.03416,-0.03904,0.0244,0.0244,0,0.01464,0.08784,-0.03904,-0.01464
0,0.01464,-0.02928,-0.02928,-0.02928,0.01464,0.0244,0.00976,0.01464,0.08784,-0.0488,-0.01464
-0.00488,0.02196,-0.03904,-0.0366,-0.03416,0.01464,0.01952,0.00488,0.00488,0.08296,-0.04392,-0.0244
-0.00488,0.0244,-0.04392,-0.04148,-0.03904,0.01708,0.02928,0.00976,0.00488,0.07808,-0.04392,-0.03416
-0.01464,0.02928,-0.04392,-0.0366,-0.02928,0.00732,0.02928,0.01952,0.00488,0.08296,-0.05368,-0.03904
-0.0244,0.03416,-0.04392,-0.03172,-0.01952,-0.00244,0.02928,0.01952,0.00488,0.07808,-0.05856,-0.04392
-0.0244,0.0366,-0.0488,-0.0366,-0.0244,0,0.02928,0.01952,-0.00488,0.07808,-0.06832,-0.04392
-0.01952,0.03416,-0.0488,-0.03904,-0.02928,0.00488,0.02928,0.0244,-0.00488,0.07808,-0.06832,-0.0488
-0.0244,0.0366,-0.0488,-0.0366,-0.0244,0,0.03904,0.0244,0,0.08296,-0.06832,-0.0488
-0.02928,0.04148,-0.05368,-0.03904,-0.0244,-0.00244,0.03904,0.01952,0,0.07808,-0.0732,-0.0488
-0.01952,0.03416,-0.0488,-0.03904,-0.02928,0.00488,0.03416,0.01952,0.00488,0.08296,-0.06344,-0.0488
-0.01464,0.03172,-0.0488,-0.04148,-0.03416,0.00976,0.03904,0.0244,0.00488,0.07808,-0.05368,-0.03416
-0.01952,0.02928,-0.03904,-0.02928,-0.01952,0,0.02928,0.0244,0.00488,0.08296,-0.05856,-0.03416
-0.01464,0.03172,-0.0488,-0.04148,-0.03416,0.00976,0.02928,0.0244,0,0.07808,-0.0732,-0.0488
-0.01952,0.03904,-0.05856,-0.0488,-0.03904,0.00976,0.01952,0.0244,0,0.07808,-0.07808,-0.05368
-0.02928,0.04392,-0.05856,-0.04392,-0.02928,0,0.01952,0.0244,0,0.0732,-0.07808,-0.05856
-0.02928,0.03416,-0.03904,-0.0244,-0.00976,-0.00976,0.02928,0.02928,0.00488,0.0732,-0.08296,-0.05856
-0.01952,0.02928,-0.03904,-0.02928,-0.01952,0,0.02928,0.0244,0.00488,0.07808,-0.08296,-0.05368
-0.01952,0.03172,-0.04392,-0.03416,-0.0244,0.00244,0.04392,0.0244,0.00488,0.07808,-0.07808,-0.04392
-0.01464,0.02928,-0.04392,-0.0366,-0.02928,0.00732,0.04392,0.02928,0.00488,0.0732,-0.08296,-0.0488
-0.0244,0.03416,-0.04392,-0.03172,-0.01952,-0.00244,0.04392,0.01952,0.00488,0.06344,-0.08784,-0.0488
-0.03416,0.04392,-0.05368,-0.0366,-0.01952,-0.00732,0.03416,0.01952,0.00488,0.06344,-0.09272,-0.05368
-0.03416,0.03904,-0.04392,-0.02684,-0.00976,-0.0122,0.02928,0.03416,-0.00976,0.0732,-0.08296,-0.05368
-0.02928,0.03904,-0.0488,-0.03416,-0.01952,-0.00488,0.02928,0.02928,-0.00976,0.0732,-0.08296,-0.05368
-0.02928,0.0366,-0.04392,-0.02928,-0.01464,-0.00732,0.03416,0.02928,0,0.0732,-0.08296,-0.05368
-0.0244,0.03416,-0.04392,-0.03172,-0.01952,-0.00244,0.02928,0.01952,0,0.0732,-0.07808,-0.05368
-0.01952,0.0244,-0.02928,-0.01952,-0.00976,-0.00488,0.0244,0.01952,-0.00976,0.06832,-0.07808,-0.05856
-0.01952,0.0244,-0.02928,-0.01952,-0.00976,-0.00488,0.03416,0.01952,-0.00488,0.06344,-0.07808,-0.0488
-0.0244,0.02684,-0.02928,-0.01708,-0.00488,-0.00976,0.03416,0.00976,-0.01952,0.05856,-0.08784,-0.05856
-0.0244,0.02684,-0.02928,-0.01708,-0.00488,-0.00976,0.03416,0.01952,-0.00976,0.06344,-0.08784,-0.05856
-0.0244,0.03172,-0.03904,-0.02684,-0.01464,-0.00488,0.03416,0.03416,-0.00488,0.06832,-0.08296,-0.05856
-0.0244,0.02684,-0.02928,-0.01708,-0.00488,-0.00976,0.03416,0.0244,-0.00488,0.06832,-0.0732,-0.05368
-0.03904,0.03416,-0.02928,-0.00976,0.00976,-0.0244,0.02928,0.0244,-0.00488,0.06344,-0.0732,-0.05368
-0.03416,0.03172,-0.02928,-0.0122,0.00488,-0.01952,0.03416,0.02928,-0.00488,0.06344,-0.0732,-0.05368
-0.01952,0.02196,-0.0244,-0.01464,-0.00488,-0.00732,0.03904,0.01952,-0.00488,0.0732,-0.07808,-0.05368
-0.0244,0.0244,-0.0244,-0.0122,0,-0.0122,0.02928,0.01464,-0.00488,0.06832,-0.07808,-0.0488
-0.0244,0.0244,-0.0244,-0.0122,0,-0.0122,0.03416,0.02928,0.00488,0.07808,-0.0732,-0.03904
-0.0244,0.02684,-0.02928,-0.01708,-0.00488,-0.00976,0.03416,0.02928,0.00488,0.08296,-0.0732,-0.03904
-0.0244,0.02684,-0.02928,-0.01708,-0.00488,-0.00976,0.0244,0.02928,0,0.08296,-0.06832,-0.04392
-0.01952,0.02196,-0.0244,-0.01464,-0.00488,-0.00732,0.02928,0.02928,-0.00488,0.07808,-0.06832,-0.04392
-0.0244,0.0244,-0.0244,-0.0122,0,-0.0122,0.0244,0.01952,-0.01464,0.06832,-0.06832,-0.05368
-0.02928,0.02684,-0.0244,-0.00976,0.00488,-0.01708,0.0244,0.01464,-0.00976,0.0732,-0.07808,-0.05368
-0.02928,0.0244,-0.01952,-0.00488,0.00976,-0.01952,0.02928,0.01464,-0.00976,0.08296,-0.0732,-0.05368
-0.0244,0.0244,-0.0244,-0.0122,0,-0.0122,0.0244,0.01464,-0.01464,0.07808,-0.0732,-0.0488
-0.0244,0.01952,-0.01464,-0.00244,0.00976,-0.01708,0.0244,0.01952,-0.00488,0.07808,-0.06344,-0.03904
-0.01464,0.01464,-0.01464,-0.00732,0,-0.00732,0.02928,0.0244,-0.00488,0.07808,-0.06344,-0.03904
-0.00976,0.01464,-0.01952,-0.01464,-0.00976,0,0.02928,0.01464,-0.00488,0.07808,-0.0732,-0.0488
-0.01464,0.0122,-0.00976,-0.00244,0.00488,-0.00976,0.0244,0.01464,0,0.08296,-0.0732,-0.0488
-0.02928,0.02684,-0.0244,-0.00976,0.00488,-0.01708,0.01952,0.0244,0,0.08296,-0.08296,-0.05368
-0.03904,0.0366,-0.03416,-0.01464,0.00488,-0.02196,0.0244,0.01952,-0.00488,0.0732,-0.08784,-0.0488
-0.03416,0.03172,-0.02928,-0.0122,0.00488,-0.01952,0.0244,0.0244,-0.00488,0.07808,-0.0732,-0.03904
-0.0244,0.02196,-0.01952,-0.00732,0.00488,-0.01464,0.0244,0.0244,0,0.0732,-0.0732,-0.0488
-0.02928,0.02684,-0.0244,-0.00976,0.00488,-0.01708,0.01952,0.0244,0.00488,0.06344,-0.06832,-0.0488
-0.0244,0.01952,-0.01464,-0.00244,0.00976,-0.01708,0.01952,0.0244,0.00488,0.07808,-0.06344,-0.03904
-0.0244,0.01952,-0.01464,-0.00244,0.00976,-0.01708,0.0244,0.01952,0.00976,0.06832,-0.06344,-0.0244
-0.02928,0.0244,-0.01952,-0.00488,0.00976,-0.01952,0.0244,0.00976,0.00976,0.0732,-0.06832,-0.02928
-0.03904,0.03416,-0.02928,-0.00976,0.00976,-0.0244,0.0244,0.01952,0,0.07808,-0.0732,-0.04392
-0.03904,0.03416,-0.02928,-0.00976,0.00976,-0.0244,0.01952,0.01464,0,0.0732,-0.08784,-0.0488
-0.03904,0.03172,-0.0244,-0.00488,0.01464,-0.02684,0.01952,0.02928,0,0.06344,-0.07808,-0.0488
-0.02928,0.02196,-0.01464,0,0.01464,-0.02196,0.02928,0.02928,-0.00488,0.06344,-0.07808,-0.04392
-0.02928,0.01952,-0.00976,0.00488,0.01952,-0.0244,0.0244,0.02928,0.00488,0.0732,-0.06832,-0.0488
-0.02928,0.01952,-0.00976,0.00488,0.01952,-0.0244,0.0244,0.02928,0.00488,0.0732,-0.06832,-0.0488
-0.03416,0.0244,-0.01464,0.00244,0.01952,-0.02684,0.0244,0.02928,-0.00488,0.0732,-0.08784,-0.05368
-0.03904,0.02684,-0.01464,0.00488,0.0244,-0.03172,0.0244,0.02928,-0.00488,0.06832,-0.08296,-0.05368
-0.03904,0.02928,-0.01952,0,0.01952,-0.02928,0.01464,0.01952,-0.00488,0.06832,-0.08296,-0.0488
-0.02928,0.0244,-0.01952,-0.00488,0.00976,-0.01952,0.0244,0.02928,0,0.0732,-0.07808,-0.04392
-0.02928,0.0244,-0.01952,-0.00488,0.00976,-0.01952,0.01952,0.00976,0,0.06832,-0.08784,-0.0488
-0.02928,0.01952,-0.00976,0.00488,0.01952,-0.0244,0.02928,0.01952,0,0.06832,-0.08784,-0.0488
-0.02928,0.01952,-0.00976,0.00488,0.01952,-0.0244,0.02928,0.02928,0,0.06832,-0.08784,-0.0488
-0.03416,0.01952,-0.00488,0.0122,0.02928,-0.03172,0.02928,0.03904,0.00488,0.06344,-0.08296,-0.03904
-0.03904,0.02684,-0.01464,0.00488,0.0244,-0.03172,0.02928,0.03904,0,0.06832,-0.0732,-0.03416
-0.0488,0.03172,-0.01464,0.00976,0.03416,-0.04148,0.02928,0.02928,0.00488,0.06832,-0.08296,-0.04392
-0.03904,0.0244,-0.00976,0.00976,0.02928,-0.03416,0.02928,0.02928,0.00488,0.06344,-0.07808,-0.04392
-0.02928,0.01464,0,0.01464,0.02928,-0.02928,0.01952,0.02928,0.01464,0.06344,-0.07808,-0.03416
-0.02928,0.01464,0,0.01464,0.02928,-0.02928,0.01952,0.0244,0.01952,0.06832,-0.07808,-0.03904
-0.03416,0.01464,0.00488,0.02196,0.03904,-0.0366,0.01464,0.0244,0.03416,0.08296,-0.0732,-0.03904
-0.03416,0.00732,0.01952,0.0366,0.05368,-0.04392,0.01464,0.0244,0.04392,0.08784,-0.06832,-0.03416
-0.01464,-0.01464,0.04392,0.05124,0.05856,-0.0366,0.01464,0.01464,0.05368,0.0976,-0.06344,-0.01464
-0.01464,-0.01952,0.05368,0.061,0.06832,-0.04148,0.00976,0.00976,0.05856,0.10248,-0.05856,-0.01464
-0.01952,-0.01708,0.05368,0.06344,0.0732,-0.04636,0.00976,0.00976,0.06832,0.0976,-0.03904,0.00488
-0.01952,-0.0122,0.04392,0.05368,0.06344,-0.04148,0.00976,0.00976,0.06832,0.08784,-0.03416,0.00976
-0.02928,-0.01464,0.05856,0.0732,0.08784,-0.05856,-0.01464,-0.01464,0.0732,0.08296,-0.03416,0.00976
-0.02928,-0.01952,0.06832,0.08296,0.0976,-0.06344,-0.03904,-0.02928,0.07808,0.08784,-0.02928,0.01464
0.00488,-0.04148,0.07808,0.07564,0.0732,-0.03416,-0.05856,-0.02928,0.06832,0.07808,-0.03416,0.00976
0.01464,-0.05124,0.08784,0.08052,0.0732,-0.02928,-0.06344,-0.03416,0.05368,0.07808,-0.02928,0.00976
-0.00488,-0.0366,0.07808,0.08052,0.08296,-0.04392,-0.05368,-0.03416,0.03904,0.06344,-0.04392,0.00488
-0.01952,-0.01464,0.0488,0.05856,0.06832,-0.04392,-0.0488,-0.0244,0.03416,0.05368,-0.0488,0
-0.00488,-0.01708,0.03904,0.04148,0.04392,-0.0244,-0.05856,-0.0244,0.01464,0.03416,-0.0488,-0.01464
0,-0.01464,0.02928,0.02928,0.02928,-0.01464,-0.06832,-0.02928,-0.00488,0.02928,-0.06344,-0.02928
0.00976,-0.01464,0.01952,0.01464,0.00976,0,-0.06832,-0.01952,-0.01952,0.00488,-0.05368,-0.0244
0.03416,-0.02684,0.01952,0.00244,-0.01464,0.0244,-0.08296,-0.01464,-0.02928,0,-0.0488,-0.01464
0.05856,-0.04392,0.02928,0,-0.02928,0.04392,-0.06832,0,-0.02928,0.00488,-0.0488,-0.01464
0.05856,-0.04392,0.02928,0,-0.02928,0.04392,-0.04392,0.01464,-0.03904,0.00976,-0.0488,-0.01464
0.05368,-0.04392,0.03416,0.00732,-0.01952,0.0366,-0.0488,0.01952,-0.03904,0.01952,-0.0488,-0.00488
0.06344,-0.05124,0.03904,0.00732,-0.0244,0.04392,-0.04392,0.00976,-0.03904,0.00488,-0.05368,-0.00976
0.05368,-0.02928,0.00488,-0.02196,-0.0488,0.05124,-0.03904,0,-0.0488,-0.00488,-0.04392,-0.01952
0.0488,-0.02196,-0.00488,-0.02928,-0.05368,0.05124,-0.03904,0,-0.04392,-0.01464,-0.0488,-0.02928
0.02928,-0.0122,-0.00488,-0.01952,-0.03416,0.03172,-0.02928,0,-0.02928,0,-0.05856,-0.02928
0.01464,0,-0.01464,-0.02196,-0.02928,0.02196,-0.0244,0.00488,-0.02928,0,-0.06832,-0.0244
0,0.00488,-0.00976,-0.00976,-0.00976,0.00488,0,0.00488,-0.02928,-0.00488,-0.06832,-0.03416
-0.01464,0.0122,-0.00976,-0.00244,0.00488,-0.00976,0,0.01464,-0.0244,-0.00488,-0.06832,-0.03416
-0.03416,0.02684,-0.01952,-0.00244,0.01464,-0.0244,0.0244,0.03904,-0.01464,-0.00488,-0.07808,-0.04392
-0.03904,0.03416,-0.02928,-0.00976,0.00976,-0.0244,0.03416,0.0488,-0.00976,0,-0.08296,-0.04392
-0.03904,0.03172,-0.0244,-0.00488,0.01464,-0.02684,0.03416,0.05368,-0.00976,-0.00488,-0.07808,-0.05368
-0.05856,0.04392,-0.02928,0,0.02928,-0.04392,0.04392,0.05856,-0.00976,-0.00976,-0.08296,-0.05368
-0.0488,0.03904,-0.02928,-0.00488,0.01952,-0.03416,0.04392,0.06344,-0.00976,-0.00976,-0.08784,-0.04392
-0.0488,0.0366,-0.0244,0,0.0244,-0.0366,0.04392,0.06832,-0.00976,-0.01952,-0.08784,-0.04392
-0.05856,0.04148,-0.0244,0.00488,0.03416,-0.04636,0.05368,0.06832,0,-0.01952,-0.09272,-0.04392
-0.05368,0.03904,-0.0244,0.00244,0.02928,-0.04148,0.06344,0.0732,0,-0.01952,-0.09272,-0.04392
-0.0488,0.0366,-0.0244,0,0.0244,-0.0366,0.06344,0.0732,-0.00488,-0.00976,-0.10248,-0.04392
-0.05368,0.03904,-0.0244,0.00244,0.02928,-0.04148,0.05856,0.06832,-0.00488,-0.00976,-0.10736,-0.03904
-0.04392,0.03172,-0.01952,0.00244,0.0244,-0.03416,0.05368,0.0732,-0.00488,-0.00976,-0.08784,-0.03904
-0.04392,0.0244,-0.00488,0.01708,0.03904,-0.04148,0.06344,0.08296,0.02928,0.01952,-0.0732,-0.01952
-0.06344,0.02196,0.01952,0.05124,0.08296,-0.0732,0.06832,0.08784,0.0732,0.08296,-0.03904,0.02928
0,-0.03904,0.07808,0.07808,0.07808,-0.03904,0.06344,0.11224,0.15616,0.20008,0.07808,0.13176
0.0732,-0.1098,0.1464,0.1098,0.0732,0,0.00976,0.06344,0.17568,0.23424,0.23424,0.24888
0.23424,-0.20984,0.18544,0.06832,-0.0488,0.14152,-0.08296,-0.00488,0.16592,0.25864,0.4148,0.37576
0.45872,-0.32452,0.19032,-0.03904,-0.2684,0.36356,-0.20008,-0.10736,0.0488,0.18544,0.59048,0.45384
0.76128,-0.49776,0.23424,-0.1464,-0.52704,0.64416,-0.38552,-0.244,-0.08296,0.11224,0.82472,0.54168
1.08336,-0.6832,0.28304,-0.25864,-0.80032,0.94184,-0.52704,-0.32696,-0.14152,0.10248,1.0248,0.64904
1.28344,-0.793,0.30256,-0.33916,-0.98088,1.13216,-0.65392,-0.42944,-0.3172,-0.05856,1.02968,0.58072
1.22976,-0.76372,0.29768,-0.3172,-0.93208,1.08092,-0.64904,-0.45384,-0.42944,-0.22448,0.8296,0.43432
0.99552,-0.56364,0.13176,-0.366,-0.86376,0.92964,-0.51728,-0.30256,-0.46848,-0.35624,0.40504,0.12688
0.64904,-0.29768,-0.05368,-0.3782,-0.70272,0.67588,-0.33672,-0.1708,-0.54656,-0.52704,0.06344,-0.14152
0.27816,-0.02928,-0.2196,-0.35868,-0.49776,0.38796,-0.0976,0.03904,-0.43432,-0.52704,-0.24888,-0.35624
0.10248,0.12932,-0.36112,-0.41236,-0.4636,0.28304,0.05368,0.20984,-0.40504,-0.55144,-0.4636,-0.50264
0.08296,0.16348,-0.40992,-0.4514,-0.49288,0.28792,0.09272,0.27328,-0.40016,-0.54656,-0.54168,-0.55144
0.0488,0.20984,-0.46848,-0.49288,-0.51728,0.28304,0.15616,0.3904,-0.38064,-0.52704,-0.59536,-0.61
0.02928,0.20008,-0.42944,-0.44408,-0.45872,0.244,0.18544,0.43432,-0.36112,-0.48312,-0.55632,-0.5612
-0.00488,0.18788,-0.37088,-0.36844,-0.366,0.18056,0.1708,0.40504,-0.3172,-0.40992,-0.49288,-0.48312
0.00488,0.14396,-0.2928,-0.29524,-0.29768,0.15128,0.13176,0.3416,-0.20984,-0.27816,-0.3904,-0.35624
-0.01952,0.10248,-0.18544,-0.17568,-0.16592,0.0732,0.11224,0.28792,-0.122,-0.18544,-0.28304,-0.25864
0,0.05368,-0.10736,-0.10736,-0.10736,0.05368,0.09272,0.25864,-0.06832,-0.10248,-0.20984,-0.1708
-0.00488,0.03416,-0.06344,-0.061,-0.05856,0.02684,0.09272,0.2196,-0.03904,-0.09272,-0.18056,-0.16104
-0.02928,0.05368,-0.07808,-0.06344,-0.0488,0.00976,0.0976,0.1708,-0.02928,-0.06832,-0.1708,-0.13664
-0.02928,0.03416,-0.03904,-0.0244,-0.00976,-0.00976,0.0732,0.122,-0.01952,-0.0732,-0.14152,-0.12688
-0.05856,0.04636,-0.03416,-0.00488,0.0244,-0.04148,0.06344,0.0976,-0.0244,-0.07808,-0.13176,-0.0976
-0.0732,0.05856,-0.04392,-0.00732,0.02928,-0.05124,0.06344,0.0976,-0.00488,-0.06832,-0.122,-0.09272
-0.06832,0.0488,-0.02928,0.00488,0.03904,-0.05368,0.05368,0.08784,0.00488,-0.05368,-0.11712,-0.08784
-0.05856,0.04148,-0.0244,0.00488,0.03416,-0.04636,0.06344,0.0732,0,-0.05368,-0.11224,-0.08784
-0.05856,0.0366,-0.01464,0.01464,0.04392,-0.05124,0.06344,0.06832,0,-0.05856,-0.10736,-0.08296
-0.06344,0.04148,-0.01952,0.0122,0.04392,-0.05368,0.05856,0.06832,0,-0.06832,-0.0976,-0.08296
-0.06344,0.04148,-0.01952,0.0122,0.04392,-0.05368,0.05856,0.06832,0,-0.0732,-0.10248,-0.08784
-0.05368,0.03416,-0.01464,0.0122,0.03904,-0.04636,0.0488,0.06832,0.00488,-0.06344,-0.0976,-0.07808
-0.05368,0.03172,-0.00976,0.01708,0.04392,-0.0488,0.0488,0.05856,0.00488,-0.06344,-0.0976,-0.0732
-0.05856,0.0366,-0.01464,0.01464,0.04392,-0.05124,0.0488,0.05856,0.00976,-0.06344,-0.0976,-0.0732
-0.05368,0.03172,-0.00976,0.01708,0.04392,-0.0488,0.0488,0.05856,0.00976,-0.05856,-0.09272,-0.06344
-0.06344,0.0366,-0.00976,0.02196,0.05368,-0.05856,0.0488,0.05368,0.00976,-0.06832,-0.09272,-0.0732
-0.06344,0.0366,-0.00976,0.02196,0.05368,-0.05856,0.04392,0.05368,0.00488,-0.0732,-0.08784,-0.06832
-0.04392,0.02684,-0.00976,0.0122,0.03416,-0.03904,0.0488,0.05368,0.00488,-0.05856,-0.0732,-0.06832
-0.03904,0.0244,-0.00976,0.00976,0.02928,-0.03416,0.0488,0.05856,0.00976,-0.05856,-0.07808,-0.06344
-0.05368,0.03416,-0.01464,0.0122,0.03904,-0.04636,0.0488,0.05368,0.00976,-0.05856,-0.08296,-0.05368
-0.06344,0.04148,-0.01952,0.0122,0.04392,-0.05368,0.0488,0.05368,0.00976,-0.05856,-0.08784,-0.05368
-0.05368,0.0366,-0.01952,0.00732,0.03416,-0.04392,0.03416,0.0488,0,-0.05856,-0.0976,-0.06344
-0.03904,0.02196,-0.00488,0.01464,0.03416,-0.0366,0.02928,0.0488,0,-0.06344,-0.09272,-0.06832
-0.04392,0.02196,0,0.02196,0.04392,-0.04392,0.03904,0.04392,0.00488,-0.06344,-0.07808,-0.06832
-0.04392,0.02196,0,0.02196,0.04392,-0.04392,0.03416,0.04392,0.00488,-0.06344,-0.0732,-0.05856
-0.02928,0.01464,0,0.01464,0.02928,-0.02928,0.03416,0.03904,-0.00488,-0.06344,-0.0732,-0.0488
-0.00976,0.00244,0.00488,0.00976,0.01464,-0.0122,0.03416,0.03904,-0.00488,-0.05856,-0.0732,-0.0488
-0.00976,0.00244,0.00488,0.00976,0.01464,-0.0122,0.02928,0.03904,0,-0.0488,-0.06832,-0.04392
-0.01464,0.00976,-0.00488,0.00244,0.00976,-0.0122,0.0244,0.03904,0,-0.05368,-0.06832,-0.0488
-0.01952,0.00976,0,0.00976,0.01952,-0.01952,0.00976,0.04392,0,-0.0488,-0.05368,-0.03904
-0.01464,0.00976,-0.00488,0.00244,0.00976,-0.0122,0,0.04392,-0.00488,-0.05368,-0.0488,-0.03904
0.01464,-0.01464,0.01464,0.00732,0,0.00732,0.00488,0.02928,-0.00488,-0.05368,-0.04392,-0.03416
0.02928,-0.02684,0.0244,0.00976,-0.00488,0.01708,0.00488,0.02928,-0.00488,-0.0488,-0.04392,-0.03416
0.03416,-0.03172,0.02928,0.0122,-0.00488,0.01952,-0.00488,0.01952,-0.00976,-0.03904,-0.0488,-0.03416
0.03416,-0.02928,0.0244,0.00732,-0.00976,0.02196,-0.00976,0.01464,-0.00976,-0.0244,-0.03904,-0.02928
0.03416,-0.03172,0.02928,0.0122,-0.00488,0.01952,-0.00976,0.00976,-0.01464,-0.01464,-0.03904,-0.02928
0.0488,-0.04392,0.03904,0.01464,-0.00976,0.02928,-0.01464,0.01464,-0.01952,-0.01464,-0.02928,-0.0244
0.05856,-0.05124,0.04392,0.01464,-0.01464,0.0366,-0.02928,0,-0.02928,-0.00488,-0.01952,-0.01952
0.06832,-0.05612,0.04392,0.00976,-0.0244,0.04636,-0.03904,-0.00488,-0.0244,-0.00488,-0.01464,-0.00976
0.07808,-0.06832,0.05856,0.01952,-0.01952,0.0488,-0.05856,-0.00976,-0.03904,0.00488,0.00976,0
0.10248,-0.0854,0.06832,0.01708,-0.03416,0.06832,-0.06832,-0.01464,-0.03904,0.00488,0.01952,-0.00488
0.13176,-0.10736,0.08296,0.01708,-0.0488,0.09028,-0.0732,-0.01952,-0.04392,0.00488,0.03904,0
0.13176,-0.11224,0.09272,0.02684,-0.03904,0.0854,-0.08784,-0.0244,-0.03904,0.00488,0.04392,0.01464
0.13664,-0.10492,0.0732,0.00488,-0.06344,0.10004,-0.10248,-0.03416,-0.0488,0.00976,0.04392,0.01464
0.13176,-0.10492,0.07808,0.0122,-0.05368,0.09272,-0.10736,-0.04392,-0.05368,0.00976,0.04392,0.00976
0.14152,-0.11468,0.08784,0.01708,-0.05368,0.0976,-0.10736,-0.05856,-0.0488,0.01952,0.0488,0.01952
0.16592,-0.12688,0.08784,0.00488,-0.07808,0.122,-0.10248,-0.05856,-0.0488,0.0244,0.0488,0.01952
0.17568,-0.13908,0.10248,0.01464,-0.0732,0.12444,-0.11224,-0.0488,-0.03904,0.0244,0.04392,0.03904
0.18056,-0.14396,0.10736,0.01708,-0.0732,0.12688,-0.11224,-0.05368,-0.03904,0.0244,0.0488,0.03904
0.18056,-0.14884,0.11712,0.02684,-0.06344,0.122,-0.11712,-0.04392,-0.03904,0.03416,0.06344,0.03904
0.18056,-0.14884,0.11712,0.02684,-0.06344,0.122,-0.11712,-0.04392,-0.03904,0.03904,0.06344,0.0488
0.17568,-0.14152,0.10736,0.01952,-0.06832,0.122,-0.11712,-0.05368,-0.03904,0.03904,0.06344,0.0488
0.1708,-0.13908,0.10736,0.02196,-0.06344,0.11712,-0.11712,-0.05856,-0.03416,0.04392,0.06344,0.05368
0.15128,-0.12444,0.0976,0.02196,-0.05368,0.10248,-0.11712,-0.05368,-0.03416,0.04392,0.06344,0.04392
0.15128,-0.12688,0.10248,0.02684,-0.0488,0.10004,-0.11224,-0.0488,-0.02928,0.0488,0.06344,0.03416
0.1464,-0.13176,0.11712,0.04392,-0.02928,0.08784,-0.10736,-0.04392,-0.02928,0.0488,0.06344,0.03904
0.15616,-0.14152,0.12688,0.0488,-0.02928,0.09272,-0.0976,-0.03904,-0.0244,0.0488,0.06344,0.0488
0.122,-0.11956,0.11712,0.05612,-0.00488,0.06344,-0.08296,-0.03416,-0.01952,0.06344,0.05368,0.04392
0.08296,-0.09028,0.0976,0.05612,0.01464,0.03416,-0.06832,-0.02928,-0.01952,0.06832,0.0488,0.04392
0.06832,-0.08052,0.09272,0.05856,0.0244,0.02196,-0.0732,-0.0244,-0.01464,0.0732,0.03416,0.04392
0.0488,-0.06588,0.08296,0.05856,0.03416,0.00732,-0.06344,-0.01464,-0.00488,0.0732,0.0244,0.03416
0.04392,-0.061,0.07808,0.05612,0.03416,0.00488,-0.05368,-0.01464,0.00488,0.08784,0.01952,0.0244
0.02928,-0.05368,0.07808,0.06344,0.0488,-0.00976,-0.04392,-0.00976,0.00976,0.07808,0.00976,0.01952
0.00488,-0.03172,0.05856,0.05612,0.05368,-0.0244,-0.0244,0.00976,0.01464,0.06832,0,0.01952
-0.00976,-0.01952,0.0488,0.05368,0.05856,-0.03416,-0.00976,0.01952,0.01464,0.0732,-0.00976,0.01464
-0.00976,-0.02196,0.05368,0.05856,0.06344,-0.0366,-0.00488,0.01952,0.00976,0.05368,-0.01952,0
-0.01464,-0.01952,0.05368,0.061,0.06832,-0.04148,-0.00488,0.01952,0.00976,0.02928,-0.02928,-0.00488
-0.02928,-0.00488,0.03904,0.05368,0.06832,-0.0488,-0.00488,0.02928,0.01464,0.01952,-0.04392,-0.0244
-0.03904,0.00244,0.03416,0.05368,0.0732,-0.05612,0,0.02928,0.01464,0.01464,-0.05368,-0.03904
-0.02928,0.00488,0.01952,0.03416,0.0488,-0.03904,0.01952,0.03904,0.01952,0.01952,-0.05856,-0.03904
-0.03904,0.00488,0.02928,0.0488,0.06832,-0.05368,0.00976,0.02928,0.00976,0.00976,-0.06832,-0.03904
-0.03904,0.00488,0.02928,0.0488,0.06832,-0.05368,0.00976,0.02928,0.00976,0.00976,-0.07808,-0.03904
-0.04392,0.00488,0.03416,0.05612,0.07808,-0.061,0.01952,0.03904,0.01464,0.0244,-0.0732,-0.03904
-0.0488,0.0122,0.0244,0.0488,0.0732,-0.061,0.01952,0.03904,0.00976,0.03904,-0.06344,-0.03416
-0.05856,0.02196,0.01464,0.04392,0.0732,-0.06588,0.01952,0.02928,0.00488,0.0488,-0.06344,-0.03416
-0.0488,0.01464,0.01952,0.04392,0.06832,-0.05856,0.01952,0.02928,0.00488,0.04392,-0.05856,-0.03416
-0.0488,0.01464,0.01952,0.04392,0.06832,-0.05856,0.00976,0.03904,0.00488,0.04392,-0.06832,-0.03416
-0.0488,0.01464,0.01952,0.04392,0.06832,-0.05856,0.00976,0.03416,0.00976,0.0488,-0.07808,-0.03904
-0.05368,0.01952,0.01464,0.04148,0.06832,-0.061,0.01464,0.04392,0.00488,0.05368,-0.0732,-0.03904
-0.05368,0.0122,0.02928,0.05612,0.08296,-0.06832,0.0244,0.04392,0.01464,0.05856,-0.06832,-0.03416
-0.05368,0.01464,0.0244,0.05124,0.07808,-0.06588,0.0244,0.04392,0.01464,0.0488,-0.0732,-0.03416
-0.06344,0.02928,0.00488,0.0366,0.06832,-0.06588,0.01952,0.03904,0.00976,0.04392,-0.06832,-0.04392
-0.0488,0.0122,0.0244,0.0488,0.0732,-0.061,0.02928,0.0488,0,0.0488,-0.06832,-0.04392
-0.0488,0.0122,0.0244,0.0488,0.0732,-0.061,0.02928,0.0488,0,0.0488,-0.0732,-0.03904
-0.05856,0.01952,0.01952,0.0488,0.07808,-0.06832,0.0244,0.05368,-0.00488,0.05368,-0.08296,-0.0488
-0.05856,0.0244,0.00976,0.03904,0.06832,-0.06344,0.00976,0.0488,0,0.05856,-0.07808,-0.04392
-0.05368,0.02684,0,0.02684,0.05368,-0.05368,0.02928,0.0488,0,0.05856,-0.08296,-0.03904
-0.06344,0.0366,-0.00976,0.02196,0.05368,-0.05856,0.04392,0.05368,-0.00488,0.05856,-0.07808,-0.03904
-0.06344,0.03172,0,0.03172,0.06344,-0.06344,0.05368,0.05368,0,0.04392,-0.09272,-0.05368
-0.05856,0.03416,-0.00976,0.01952,0.0488,-0.05368,0.05856,0.06344,0.00488,0.04392,-0.0976,-0.06832
-0.08296,0.04636,-0.00976,0.03172,0.0732,-0.07808,0.05856,0.05368,0.00488,0.04392,-0.08784,-0.06344
-0.0976,0.05856,-0.01952,0.02928,0.07808,-0.08784,0.0488,0.03904,0.00488,0.03904,-0.10248,-0.06832
-0.10736,0.06344,-0.01952,0.03416,0.08784,-0.0976,0.03904,0.01952,0,0.03416,-0.10248,-0.0732
-0.10248,0.061,-0.01952,0.03172,0.08296,-0.09272,0.0244,0.01464,-0.00976,0.03904,-0.0976,-0.0732
-0.07808,0.03904,0,0.03904,0.07808,-0.07808,0.00976,0.00976,-0.00976,0.03416,-0.0976,-0.0732
-0.07808,0.03416,0.00976,0.0488,0.08784,-0.08296,0.00488,0.00488,-0.01952,0.02928,-0.0976,-0.0732
-0.0732,0.04392,-0.01464,0.02196,0.05856,-0.06588,0,0.00976,-0.0488,0.01952,-0.0976,-0.08296
-0.06344,0.05124,-0.03904,-0.00732,0.0244,-0.04392,-0.00488,0,-0.07808,-0.00488,-0.10248,-0.0976
-0.0732,0.06832,-0.06344,-0.02684,0.00976,-0.04148,-0.02928,-0.01952,-0.10736,-0.0244,-0.122,-0.10736
-0.06832,0.06588,-0.06344,-0.02928,0.00488,-0.0366,-0.0488,-0.02928,-0.122,-0.04392,-0.13664,-0.11712
-0.05856,0.061,-0.06344,-0.03416,-0.00488,-0.02684,-0.0488,-0.01952,-0.11712,-0.02928,-0.13664,-0.10736
-0.06344,0.06832,-0.0732,-0.04148,-0.00976,-0.02684,-0.04392,-0.00488,-0.11712,-0.02928,-0.13664,-0.10248
-0.02928,0.03416,-0.03904,-0.0244,-0.00976,-0.00976,-0.02928,0.00488,-0.07808,-0.00488,-0.11712,-0.08296
-0.00488,0.0122,-0.01952,-0.01708,-0.01464,0.00488,-0.02928,0.01464,-0.05368,0.01464,-0.0976,-0.0732
-0.00488,-0.00244,0.00976,0.0122,0.01464,-0.00976,-0.0244,0.01952,-0.04392,0.0244,-0.07808,-0.05368
0.00976,-0.01464,0.01952,0.01464,0.00976,0,-0.0244,0.01952,-0.03904,0.03904,-0.06344,-0.04392
-0.00976,-0.00244,0.01464,0.01952,0.0244,-0.01708,-0.01464,0.01464,-0.01952,0.05368,-0.06832,-0.04392
-0.0488,0.0244,0,0.0244,0.0488,-0.0488,-0.00488,0.01952,-0.01952,0.05856,-0.0732,-0.04392
-0.03904,0.00976,0.01952,0.03904,0.05856,-0.0488,0.01464,0.01464,-0.00976,0.06832,-0.06832,-0.03416
-0.03904,0.00244,0.03416,0.05368,0.0732,-0.05612,0.01464,0.01952,0,0.06832,-0.05856,-0.0244
-0.0488,0.0122,0.0244,0.0488,0.0732,-0.061,0.01464,0.01952,0,0.06832,-0.05368,-0.0244
-0.05368,0.01952,0.01464,0.04148,0.06832,-0.061,0.0244,0.0244,0,0.06832,-0.04392,-0.0244
-0.06832,0.02684,0.01464,0.0488,0.08296,-0.07564,0.01464,0.0244,0.00488,0.06832,-0.04392,-0.03416
-0.0732,0.02928,0.01464,0.05124,0.08784,-0.08052,0.00976,0.01952,0.00488,0.06832,-0.0488,-0.02928
-0.04392,0.00244,0.03904,0.061,0.08296,-0.06344,0.01464,0.03416,0.00488,0.06832,-0.0488,-0.01952
-0.06344,0.01952,0.0244,0.05612,0.08784,-0.07564,0.0244,0.03416,0.01952,0.08784,-0.04392,-0.00976
-0.06344,0.00244,0.05856,0.09028,0.122,-0.09272,0.02928,0.03904,0.06344,0.13176,0.00976,0.0488
0,-0.06344,0.12688,0.12688,0.12688,-0.06344,0.00488,0.04392,0.12688,0.23912,0.07808,0.15128
0.10248,-0.14396,0.18544,0.1342,0.08296,0.00976,-0.02928,0.0244,0.18544,0.32208,0.26352,0.2684
0.2928,-0.25864,0.22448,0.07808,-0.06832,0.18056,-0.13176,-0.05368,0.1464,0.32696,0.45384,0.39528
0.59536,-0.43676,0.27816,-0.01952,-0.3172,0.45628,-0.24888,-0.11712,0.0976,0.31232,0.6588,0.5124
0.89792,-0.59536,0.2928,-0.15616,-0.60512,0.75152,-0.4636,-0.28304,-0.0732,0.20008,0.89304,0.57096
1.22976,-0.77104,0.31232,-0.30256,-0.91744,1.0736,-0.6344,-0.37576,-0.1708,0.1708,1.06384,0.6588
1.37128,-0.8418,0.31232,-0.37332,-1.05896,1.21512,-0.732,-0.44896,-0.35624,-0.00976,0.99064,0.5612
1.27856,-0.793,0.30744,-0.33184,-0.97112,1.12484,-0.69784,-0.44408,-0.45872,-0.15616,0.79056,0.38552
0.976,-0.55388,0.13176,-0.35624,-0.84424,0.91012,-0.54656,-0.31232,-0.47824,-0.29768,0.38552,0.07808
0.53192,-0.27816,0.0244,-0.24156,-0.50752,0.51972,-0.32696,-0.1708,-0.488,-0.3904,0.03416,-0.18056
0.1708,-0.01952,-0.13176,-0.21716,-0.30256,0.23668,-0.0976,0.0488,-0.35624,-0.36112,-0.30744,-0.38552
0.08296,0.09516,-0.27328,-0.31476,-0.35624,0.2196,0.0244,0.20008,-0.29768,-0.35624,-0.45384,-0.45384
0.09272,0.11468,-0.32208,-0.36844,-0.4148,0.25376,0.06344,0.26352,-0.31232,-0.37088,-0.5124,-0.52216
0.08784,0.122,-0.33184,-0.37576,-0.41968,0.25376,0.08784,0.3416,-0.30256,-0.36112,-0.52704,-0.53192
0.02928,0.14152,-0.31232,-0.32696,-0.3416,0.18544,0.08784,0.35624,-0.32208,-0.33672,-0.46848,-0.47336
0.04392,0.10004,-0.244,-0.26596,-0.28792,0.16592,0.09272,0.32696,-0.22936,-0.21472,-0.37576,-0.35624
-0.01464,0.07076,-0.12688,-0.11956,-0.11224,0.0488,0.06344,0.244,-0.13176,-0.08296,-0.244,-0.20984
-0.01952,0.03904,-0.05856,-0.0488,-0.03904,0.00976,0.04392,0.19032,-0.05368,0,-0.16592,-0.14152
-0.02928,0.03416,-0.03904,-0.0244,-0.00976,-0.00976,0.04392,0.18056,-0.02928,0.0244,-0.14152,-0.11224
-0.00488,0.00976,-0.01464,-0.0122,-0.00976,0.00244,0.05368,0.15128,0,0.05368,-0.10248,-0.0732
-0.01952,0.00976,0,0.00976,0.01952,-0.01952,0.03904,0.11224,0,0.06832,-0.0732,-0.05856
-0.03904,0.00976,0.01952,0.03904,0.05856,-0.0488,0.03416,0.09272,0,0.0732,-0.06344,-0.05856
-0.0488,0.00244,0.04392,0.06832,0.09272,-0.07076,0.03416,0.07808,0.00488,0.07808,-0.06344,-0.05856
-0.06344,0.01952,0.0244,0.05612,0.08784,-0.07564,0.03416,0.07808,0.00488,0.08784,-0.06344,-0.04392
-0.05856,0.01464,0.02928,0.05856,0.08784,-0.0732,0.0244,0.06832,0.01464,0.10248,-0.05856,-0.02928
-0.06832,0.02196,0.0244,0.05856,0.09272,-0.08052,0.0244,0.04392,0.01952,0.10248,-0.05368,-0.02928
-0.07808,0.02684,0.0244,0.06344,0.10248,-0.09028,0.0244,0.03904,0.01952,0.0976,-0.05856,-0.03416
-0.06344,0.01708,0.02928,0.061,0.09272,-0.07808,0.01952,0.0488,0.01952,0.0976,-0.0488,-0.0244
-0.06344,0.01708,0.02928,0.061,0.09272,-0.07808,0.01952,0.05856,0.01952,0.09272,-0.05368,-0.02928
-0.05368,0.00976,0.03416,0.061,0.08784,-0.07076,0.02928,0.0488,0.01464,0.09272,-0.03904,-0.02928
-0.05368,0.00732,0.03904,0.06588,0.09272,-0.0732,0.02928,0.03904,0.01464,0.09272,-0.03904,-0.0244
-0.06832,0.01708,0.03416,0.06832,0.10248,-0.0854,0.03904,0.03904,0.01952,0.09272,-0.0488,-0.03416
-0.06344,0.01708,0.02928,0.061,0.09272,-0.07808,0.03904,0.03904,0.01952,0.0976,-0.04392,-0.0244
-0.06344,0.01708,0.02928,0.061,0.09272,-0.07808,0.02928,0.04392,0.01952,0.0976,-0.04392,-0.0244
-0.06344,0.01708,0.02928,0.061,0.09272,-0.07808,0.0244,0.04392,0.01464,0.09272,-0.03904,-0.01952
-0.06344,0.02196,0.01952,0.05124,0.08296,-0.0732,0.02928,0.03416,0.01464,0.0976,-0.04392,-0.02928
-0.05856,0.01952,0.01952,0.0488,0.07808,-0.06832,0.02928,0.02928,0.01952,0.0976,-0.0488,-0.03416
-0.06344,0.01952,0.0244,0.05612,0.08784,-0.07564,0.01952,0.03416,0.01952,0.0976,-0.03416,-0.0244
-0.06344,0.02196,0.01952,0.05124,0.08296,-0.0732,0.01952,0.03416,0.01952,0.0976,-0.03904,-0.01464
-0.06344,0.02196,0.01952,0.05124,0.08296,-0.0732,0.01464,0.01952,0.01952,0.0976,-0.03904,-0.01464
-0.05856,0.01708,0.0244,0.05368,0.08296,-0.07076,0.00976,0.01952,0.01952,0.09272,-0.03416,-0.00976
-0.05368,0.0122,0.02928,0.05612,0.08296,-0.06832,0.00976,0.0244,0.01464,0.09272,-0.02928,-0.01952
-0.05368,0.0122,0.02928,0.05612,0.08296,-0.06832,0.00488,0.0244,0.01464,0.09272,-0.0244,-0.00976
-0.03904,0,0.03904,0.05856,0.07808,-0.05856,0.01464,0.02928,0.01464,0.10248,-0.0244,-0.00976
-0.01952,-0.0122,0.04392,0.05368,0.06344,-0.04148,0.01464,0.02928,0.01464,0.10736,-0.0244,-0.00976
-0.01952,-0.0122,0.04392,0.05368,0.06344,-0.04148,0,0.01952,0,0.0976,-0.01952,-0.01464
-0.0244,-0.00488,0.03416,0.04636,0.05856,-0.04148,-0.00488,0.01952,0,0.09272,-0.01952,-0.01952
-0.02928,-0.00488,0.03904,0.05368,0.06832,-0.0488,0,0.00488,0,0.0976,-0.0244,-0.00976
-0.0244,-0.00488,0.03416,0.04636,0.05856,-0.04148,-0.00976,0.00488,-0.00488,0.09272,-0.01952,-0.00976
-0.01464,-0.00976,0.03416,0.04148,0.0488,-0.03172,-0.01464,0,-0.00488,0.09272,-0.01464,-0.01464
-0.01952,-0.00244,0.0244,0.03416,0.04392,-0.03172,-0.01464,0,-0.00488,0.0976,-0.01464,-0.01464
0.00488,-0.02684,0.0488,0.04636,0.04392,-0.01952,-0.0244,0,-0.00976,0.08784,0,-0.00488
0.01464,-0.03416,0.05368,0.04636,0.03904,-0.0122,-0.02928,-0.00488,-0.00976,0.09272,0.00976,0.00976
0.03416,-0.04148,0.0488,0.03172,0.01464,0.00976,-0.02928,0,-0.00488,0.09272,0.01952,0.00976
0.0488,-0.0488,0.0488,0.0244,0,0.0244,-0.03416,0.00488,-0.00976,0.09272,0.02928,0.01464
0.05856,-0.05612,0.05368,0.0244,-0.00488,0.03172,-0.0488,-0.01952,-0.02928,0.08296,0.02928,0.00976
0.06832,-0.061,0.05368,0.01952,-0.01464,0.04148,-0.05856,-0.0244,-0.0244,0.08296,0.03416,0.01952
0.06832,-0.06344,0.05856,0.0244,-0.00976,0.03904,-0.06832,-0.01952,-0.02928,0.0732,0.03904,0.02928
0.09272,-0.08052,0.06832,0.02196,-0.0244,0.05856,-0.07808,-0.0244,-0.02928,0.0732,0.0488,0.0244
0.122,-0.10248,0.08296,0.02196,-0.03904,0.08052,-0.0732,-0.02928,-0.03416,0.08296,0.05856,0.02928
0.122,-0.10736,0.09272,0.03172,-0.02928,0.07564,-0.08784,-0.03416,-0.02928,0.08296,0.06344,0.04392
0.13664,-0.1098,0.08296,0.01464,-0.05368,0.09516,-0.09272,-0.04392,-0.01952,0.0976,0.0732,0.04392
0.14152,-0.11468,0.08784,0.01708,-0.05368,0.0976,-0.0976,-0.05368,-0.0244,0.0976,0.0732,0.0488
0.13176,-0.1098,0.08784,0.02196,-0.04392,0.08784,-0.0976,-0.05856,-0.02928,0.0976,0.06832,0.05856
0.13664,-0.11224,0.08784,0.01952,-0.0488,0.09272,-0.10248,-0.05856,-0.02928,0.10248,0.06832,0.05856
0.13664,-0.1098,0.08296,0.01464,-0.05368,0.09516,-0.11224,-0.05856,-0.02928,0.08296,0.0732,0.05856
0.13176,-0.1098,0.08784,0.02196,-0.04392,0.08784,-0.11224,-0.06344,-0.02928,0.0732,0.07808,0.05856
0.14152,-0.11956,0.0976,0.02684,-0.04392,0.09272,-0.10736,-0.06344,-0.01952,0.0732,0.0732,0.0488
0.14152,-0.11956,0.0976,0.02684,-0.04392,0.09272,-0.10736,-0.06344,-0.01952,0.07808,0.0732,0.0488
0.13664,-0.11712,0.0976,0.02928,-0.03904,0.08784,-0.0976,-0.05368,-0.01952,0.08784,0.08296,0.06832
0.13176,-0.11468,0.0976,0.03172,-0.03416,0.08296,-0.0976,-0.05856,-0.01464,0.09272,0.08296,0.0732
0.10248,-0.09516,0.08784,0.0366,-0.01464,0.05856,-0.10736,-0.06344,-0.0244,0.08296,0.0732,0.06344
0.09272,-0.09272,0.09272,0.04636,0,0.04636,-0.10248,-0.05856,-0.01952,0.07808,0.0732,0.05368
0.06832,-0.07808,0.08784,0.05368,0.01952,0.0244,-0.08784,-0.05368,-0.01952,0.08784,0.06344,0.0488
0.05856,-0.0732,0.08784,0.05856,0.02928,0.01464,-0.07808,-0.0488,-0.01464,0.08784,0.06344,0.0488
0.05368,-0.07564,0.0976,0.07076,0.04392,0.00488,-0.0732,-0.03416,0,0.10248,0.05368,0.05368
0.03416,-0.061,0.08784,0.07076,0.05368,-0.00976,-0.05856,-0.02928,0,0.10736,0.0488,0.05368
0.01952,-0.04636,0.0732,0.06344,0.05368,-0.01708,-0.04392,-0.0244,-0.00488,0.09272,0.04392,0.04392
0,-0.03172,0.06344,0.06344,0.06344,-0.03172,-0.03416,-0.01464,0.00488,0.09272,0.03416,0.03416
-0.01464,-0.01708,0.0488,0.05612,0.06344,-0.03904,-0.0244,-0.00488,0.01464,0.10736,0.01952,0.0244
-0.02928,-0.00976,0.0488,0.06344,0.07808,-0.05368,-0.01464,0,0.01952,0.0976,0.00976,0.01952
-0.04392,-0.00244,0.0488,0.07076,0.09272,-0.06832,-0.01464,0.00976,0.01464,0.10736,0,0
-0.05856,0.00976,0.03904,0.06832,0.0976,-0.07808,0,0.01952,0.01464,0.11224,-0.00976,-0.00488
-0.06832,0.02684,0.01464,0.0488,0.08296,-0.07564,0.00488,0.01952,0.01952,0.10248,-0.01952,-0.00976
-0.0732,0.03416,0.00488,0.04148,0.07808,-0.07564,0.00488,0.01952,0.01952,0.0976,-0.02928,-0.01464
-0.06832,0.0244,0.01952,0.05368,0.08784,-0.07808,0.00488,0.02928,0.01464,0.08784,-0.0244,-0.00488
-0.06832,0.01708,0.03416,0.06832,0.10248,-0.0854,0.00976,0.02928,0.01464,0.09272,-0.03416,-0.00976
-0.06344,0.0244,0.01464,0.04636,0.07808,-0.07076,0.02928,0.03904,0.0244,0.08784,-0.03416,-0.00976
-0.06344,0.0244,0.01464,0.04636,0.07808,-0.07076,0.02928,0.03904,0.0244,0.08784,-0.03904,-0.01952
-0.06832,0.03172,0.00488,0.03904,0.0732,-0.07076,0.01952,0.02928,0.01464,0.08296,-0.03904,-0.01952
-0.0732,0.03416,0.00488,0.04148,0.07808,-0.07564,0.01952,0.02928,0.01464,0.06344,-0.03904,-0.0244
-0.06344,0.02684,0.00976,0.04148,0.0732,-0.06832,0.01952,0.02928,0.0244,0.06832,-0.03904,-0.01464
-0.05856,0.01952,0.01952,0.0488,0.07808,-0.06832,0.01952,0.03416,0.0244,0.08296,-0.04392,-0.01952
-0.06344,0.02928,0.00488,0.0366,0.06832,-0.06588,0.01952,0.03416,0.01952,0.06832,-0.05368,-0.02928
-0.06832,0.03172,0.00488,0.03904,0.0732,-0.07076,0.01464,0.02928,0.01952,0.06344,-0.05368,-0.02928
-0.07808,0.03416,0.00976,0.0488,0.08784,-0.08296,0.00488,0.03416,0.01464,0.05856,-0.05856,-0.03416
-0.0732,0.03172,0.00976,0.04636,0.08296,-0.07808,0.00976,0.03416,0.00488,0.06344,-0.05368,-0.02928
-0.06344,0.03172,0,0.03172,0.06344,-0.06344,0.00976,0.03416,0.00976,0.0488,-0.04392,-0.01952
-0.06832,0.03904,-0.00976,0.0244,0.05856,-0.06344,0.00976,0.03416,0.00976,0.0488,-0.0488,-0.0244
-0.06832,0.03416,0,0.03416,0.06832,-0.06832,0.01952,0.03416,0.00976,0.05368,-0.0488,-0.0244
-0.0732,0.03172,0.00976,0.04636,0.08296,-0.07808,0.01952,0.03904,0.00488,0.05368,-0.05368,-0.02928
-0.0732,0.03172,0.00976,0.04636,0.08296,-0.07808,0.01952,0.0244,0.00488,0.0488,-0.05368,-0.03416
-0.0732,0.03416,0.00488,0.04148,0.07808,-0.07564,0.0244,0.0244,0.00488,0.0488,-0.05368,-0.04392
-0.06344,0.0244,0.01464,0.04636,0.07808,-0.07076,0.0244,0.0244,0.00488,0.03904,-0.0488,-0.03416
-0.06344,0.0244,0.01464,0.04636,0.07808,-0.07076,0.02928,0.02928,0.00488,0.03416,-0.05368,-0.02928
-0.0732,0.03904,-0.00488,0.03172,0.06832,-0.07076,0.01952,0.02928,0.00488,0.04392,-0.0488,-0.01952
-0.0976,0.05124,-0.00488,0.04392,0.09272,-0.09516,0.00976,0.03416,0,0.04392,-0.05368,-0.0244
-0.07808,0.03904,0,0.03904,0.07808,-0.07808,0.01952,0.02928,0.00976,0.04392,-0.04392,-0.0244
-0.0732,0.03172,0.00976,0.04636,0.08296,-0.07808,0.0244,0.02928,0.00976,0.04392,-0.04392,-0.0244
-0.05856,0.01708,0.0244,0.05368,0.08296,-0.07076,0.03416,0.03416,0.00976,0.04392,-0.04392,-0.01464
-0.05368,0.00976,0.03416,0.061,0.08784,-0.07076,0.0244,0.03416,0.00976,0.03904,-0.03904,-0.01952
-0.06832,0.01952,0.02928,0.06344,0.0976,-0.08296,0.00976,0.02928,0.01464,0.03904,-0.0488,-0.01464
-0.0976,0.03904,0.01952,0.06832,0.11712,-0.10736,0,0.0244,0.00488,0.0244,-0.05368,-0.00976
-0.09272,0.04148,0.00976,0.05612,0.10248,-0.0976,0.00488,0.0244,0.00488,0.0244,-0.0488,-0.01952
-0.08296,0.0366,0.00976,0.05124,0.09272,-0.08784,0.00488,0.0244,0.00488,0.01464,-0.03904,-0.01952
-0.0732,0.0244,0.0244,0.061,0.0976,-0.0854,0.01464,0.02928,0.01464,0.01952,-0.02928,-0.00488
-0.07808,0.01952,0.03904,0.07808,0.11712,-0.0976,0.01464,0.0244,0.01464,0.0244,-0.02928,-0.00488
-0.06344,0.01708,0.02928,0.061,0.09272,-0.07808,0.01464,0.0244,0.00488,0.01464,-0.04392,-0.01464
-0.05856,0.01952,0.01952,0.0488,0.07808,-0.06832,0.01952,0.02928,0.00488,0.00488,-0.0488,-0.0244
-0.0732,0.0244,0.0244,0.061,0.0976,-0.0854,0.0244,0.03904,0.01464,0,-0.03904,-0.00976
-0.08296,0.02928,0.0244,0.06588,0.10736,-0.09516,0.01952,0.03416,0.01464,0,-0.03904,0
-0.08296,0.0366,0.00976,0.05124,0.09272,-0.08784,0.01464,0.02928,0.01464,0,-0.03416,-0.00976
-0.08296,0.0366,0.00976,0.05124,0.09272,-0.08784,0.01464,0.02928,0.01952,0.00488,-0.02928,-0.01464
-0.06832,0.02196,0.0244,0.05856,0.09272,-0.08052,0.00488,0.02928,0.01464,0,-0.03904,-0.01464
-0.0732,0.0244,0.0244,0.061,0.0976,-0.0854,0.01464,0.02928,0.01464,0,-0.03904,-0.01464
-0.06832,0.02196,0.0244,0.05856,0.09272,-0.08052,0.01464,0.0244,0.01952,-0.00488,-0.0488,-0.00488
-0.06832,0.0244,0.01952,0.05368,0.08784,-0.07808,0.01464,0.0244,0.01952,-0.01464,-0.04392,-0.00488
-0.0732,0.03172,0.00976,0.04636,0.08296,-0.07808,0.01464,0.03416,0.01952,-0.0244,-0.03416,-0.01464
-0.07808,0.04148,-0.00488,0.03416,0.0732,-0.07564,0.01464,0.02928,0.01464,-0.02928,-0.03416,-0.00976
-0.06832,0.02684,0.01464,0.0488,0.08296,-0.07564,0.01464,0.02928,0.01464,-0.03904,-0.03416,-0.00976
-0.06344,0.01708,0.02928,0.061,0.09272,-0.07808,0.01952,0.03416,0.01464,-0.03904,-0.03416,-0.00976
-0.0732,0.02684,0.01952,0.05612,0.09272,-0.08296,0.01952,0.0244,0.00976,-0.0488,-0.04392,-0.00976
-0.06832,0.01952,0.02928,0.06344,0.0976,-0.08296,0.01464,0.0244,0.00976,-0.04392,-0.04392,-0.00976
-0.08784,0.03904,0.00976,0.05368,0.0976,-0.09272,0.01464,0.01952,0.00976,-0.06344,-0.0488,-0.0244
-0.0976,0.04636,0.00488,0.05368,0.10248,-0.10004,0.01464,0.01952,0.00488,-0.05856,-0.04392,-0.01952
-0.08784,0.0366,0.01464,0.05856,0.10248,-0.09516,0.0244,0.03416,0.01952,-0.0488,-0.03416,-0.01952
-0.07808,0.02684,0.0244,0.06344,0.10248,-0.09028,0.01952,0.03416,0.01464,-0.05368,-0.02928,-0.00976
-0.08296,0.03172,0.01952,0.061,0.10248,-0.09272,0.00976,0.0244,0.00488,-0.05856,-0.03904,-0.01464
-0.08296,0.03416,0.01464,0.05612,0.0976,-0.09028,0.01464,0.02928,0.00976,-0.05856,-0.03416,-0.01464
-0.0732,0.02684,0.01952,0.05612,0.09272,-0.08296,0.00488,0.02928,0.00976,-0.06344,-0.03416,-0.01464
-0.07808,0.02928,0.01952,0.05856,0.0976,-0.08784,0.00488,0.02928,0.00976,-0.06832,-0.03904,-0.01952
-0.06832,0.0244,0.01952,0.05368,0.08784,-0.07808,0.00976,0.03416,0.01952,-0.05856,-0.03416,-0.01952
-0.0732,0.02684,0.01952,0.05612,0.09272,-0.08296,0.01952,0.03416,0.01952,-0.06344,-0.02928,-0.00976
-0.08296,0.04148,0,0.04148,0.08296,-0.08296,0.00976,0.03904,0.00488,-0.0732,-0.03904,-0.01464
-0.08784,0.0488,-0.00976,0.03416,0.07808,-0.08296,0.01464,0.03904,0.00488,-0.08296,-0.0488,-0.00976
-0.08784,0.04392,0,0.04392,0.08784,-0.08784,0.01464,0.02928,0.01464,-0.0732,-0.03904,-0.00976
-0.08296,0.03904,0.00488,0.04636,0.08784,-0.0854,0.01464,0.02928,0.0244,-0.06832,-0.0488,-0.01464
-0.08296,0.03904,0.00488,0.04636,0.08784,-0.0854,0.00488,0.02928,0.01464,-0.07808,-0.05368,-0.0244
-0.08784,0.04392,0,0.04392,0.08784,-0.08784,0.00488,0.02928,0.01464,-0.08296,-0.05368,-0.02928
-0.08784,0.0488,-0.00976,0.03416,0.07808,-0.08296,0.01464,0.03904,0.01952,-0.07808,-0.0488,-0.0244
-0.0976,0.05368,-0.00976,0.03904,0.08784,-0.09272,0.0244,0.03904,0.01464,-0.08296,-0.0488,-0.0244
-0.08296,0.04148,0,0.04148,0.08296,-0.08296,0.0244,0.03904,0.01952,-0.0732,-0.03904,-0.0244
-0.06832,0.02928,0.00976,0.04392,0.07808,-0.0732,0.0244,0.03904,0.01952,-0.0732,-0.03904,-0.0244
-0.07808,0.0366,0.00488,0.04392,0.08296,-0.08052,0.0244,0.04392,0.02928,-0.0732,-0.03904,-0.02928
-0.07808,0.03416,0.00976,0.0488,0.08784,-0.08296,0.0244,0.04392,0.02928,-0.08296,-0.03904,-0.03416
-0.08296,0.03172,0.01952,0.061,0.10248,-0.09272,0.01464,0.03416,0.01952,-0.0732,-0.0488,-0.0244
-0.08296,0.03172,0.01952,0.061,0.10248,-0.09272,0.01464,0.03416,0.01952,-0.07808,-0.05856,-0.01952
-0.09272,0.04392,0.00488,0.05124,0.0976,-0.09516,0.01464,0.03416,0.01952,-0.06832,-0.0488,0
-0.09272,0.0488,-0.00488,0.04148,0.08784,-0.09028,0.01464,0.03416,0.01464,-0.07808,-0.0488,-0.01464
-0.0976,0.05368,-0.00976,0.03904,0.08784,-0.09272,0.0244,0.02928,0.01464,-0.0732,-0.03904,-0.01464
-0.0976,0.05368,-0.00976,0.03904,0.08784,-0.09272,0.0244,0.02928,0.01464,-0.0732,-0.03904,-0.01464
-0.08296,0.0366,0.00976,0.05124,0.09272,-0.08784,0.01952,0.02928,0.01464,-0.0732,-0.03416,-0.01464
-0.06832,0.0244,0.01952,0.05368,0.08784,-0.07808,0.02928,0.03416,0.01952,-0.0732,-0.03416,-0.00488
-0.06832,0.0244,0.01952,0.05368,0.08784,-0.07808,0.01464,0.03416,0.01952,-0.0732,-0.04392,-0.01464
-0.06832,0.02684,0.01464,0.0488,0.08296,-0.07564,0.01464,0.03416,0.0244,-0.06344,-0.03416,0
-0.08296,0.03904,0.00488,0.04636,0.08784,-0.0854,0.0244,0.0244,0.01952,-0.06344,-0.03416,-0.00976
-0.08296,0.03904,0.00488,0.04636,0.08784,-0.0854,0.0244,0.02928,0.01952,-0.06344,-0.03904,-0.00976
-0.0732,0.03416,0.00488,0.04148,0.07808,-0.07564,0.0244,0.03416,0.03416,-0.05856,-0.03416,-0.00976
-0.07808,0.0366,0.00488,0.04392,0.08296,-0.08052,0.01952,0.03904,0.02928,-0.05856,-0.03416,-0.00976
-0.08784,0.04392,0,0.04392,0.08784,-0.08784,0.01952,0.03904,0.01952,-0.06832,-0.04392,-0.0244
-0.09272,0.04148,0.00976,0.05612,0.10248,-0.0976,0.01464,0.03416,0.01464,-0.06832,-0.03904,-0.02928
-0.10248,0.05612,-0.00976,0.04148,0.09272,-0.0976,0.01464,0.03416,0.01952,-0.06832,-0.04392,-0.01464
-0.10248,0.061,-0.01952,0.03172,0.08296,-0.09272,0.01464,0.03416,0.01952,-0.06832,-0.03904,-0.01464
-0.0976,0.05856,-0.01952,0.02928,0.07808,-0.08784,0.0244,0.03904,0.01952,-0.0732,-0.03904,-0.0244
-0.08784,0.04392,0,0.04392,0.08784,-0.08784,0.0244,0.03416,0.01952,-0.08296,-0.04392,-0.0244
-0.0732,0.02928,0.01464,0.05124,0.08784,-0.08052,0.01464,0.03416,0.00976,-0.0732,-0.03416,-0.01952
-0.06344,0.01952,0.0244,0.05612,0.08784,-0.07564,0.01464,0.03416,0.01464,-0.06344,-0.03416,-0.01952
-0.07808,0.03172,0.01464,0.05368,0.09272,-0.0854,0.01464,0.0488,0.02928,-0.05856,-0.03416,-0.00488
-0.07808,0.0366,0.00488,0.04392,0.08296,-0.08052,0.01464,0.0488,0.02928,-0.06832,-0.03416,-0.00488
-0.07808,0.03904,0,0.03904,0.07808,-0.07808,0.01952,0.04392,0.0244,-0.07808,-0.03416,-0.00976
-0.0732,0.03416,0.00488,0.04148,0.07808,-0.07564,0.0244,0.03416,0.0244,-0.07808,-0.02928,-0.00976
-0.09272,0.0488,-0.00488,0.04148,0.08784,-0.09028,0.01464,0.02928,0.0244,-0.06832,-0.03904,-0.01952
-0.08784,0.04636,-0.00488,0.03904,0.08296,-0.0854,0.01952,0.03416,0.0244,-0.06832,-0.03416,-0.01952
-0.0976,0.05124,-0.00488,0.04392,0.09272,-0.09516,0.0244,0.03416,0.0244,-0.06832,-0.03904,-0.00976
-0.08296,0.04148,0,0.04148,0.08296,-0.08296,0.0244,0.02928,0.0244,-0.06832,-0.03904,-0.00976
-0.07808,0.03416,0.00976,0.0488,0.08784,-0.08296,0.01952,0.03904,0.01952,-0.07808,-0.03904,-0.01952
-0.08784,0.03904,0.00976,0.05368,0.0976,-0.09272,0.01952,0.02928,0.02928,-0.06832,-0.03904,-0.00976
-0.08784,0.03904,0.00976,0.05368,0.0976,-0.09272,0.01952,0.02928,0.02928,-0.05856,-0.03904,-0.00976
-0.07808,0.03416,0.00976,0.0488,0.08784,-0.08296,0.01952,0.02928,0.01952,-0.05856,-0.02928,-0.00976
-0.07808,0.03416,0.00976,0.0488,0.08784,-0.08296,0.01952,0.02928,0.01952,-0.05856,-0.02928,-0.00976
-0.08784,0.04392,0,0.04392,0.08784,-0.08784,0.01952,0.02928,0.01952,-0.06832,-0.02928,-0.01952
-0.10248,0.05368,-0.00488,0.04636,0.0976,-0.10004,0.01952,0.02928,0.0244,-0.06344,-0.03416,-0.01952
-0.08784,0.04148,0.00488,0.0488,0.09272,-0.09028,0.01952,0.03904,0.02928,-0.05856,-0.03416,-0.00488
-0.08784,0.0366,0.01464,0.05856,0.10248,-0.09516,0.01952,0.03904,0.03416,-0.05856,-0.03416,-0.00488
-0.08784,0.03904,0.00976,0.05368,0.0976,-0.09272,0.01952,0.02928,0.0244,-0.0732,-0.02928,-0.01464
-0.08784,0.03904,0.00976,0.05368,0.0976,-0.09272,0.01952,0.02928,0.0244,-0.0732,-0.02928,-0.01464
-0.08784,0.03904,0.00976,0.05368,0.0976,-0.09272,0.01952,0.03416,0.02928,-0.05856,-0.02928,-0.00976
-0.08296,0.03416,0.01464,0.05612,0.0976,-0.09028,0.01464,0.03416,0.03416,-0.05368,-0.03416,-0.00976
-0.0732,0.02684,0.01952,0.05612,0.09272,-0.08296,0.01464,0.03416,0.03416,-0.0488,-0.02928,-0.01464
-0.06344,0.01464,0.03416,0.06588,0.0976,-0.08052,0.01464,0.03416,0.04392,-0.0488,-0.0244,-0.00488
-0.08296,0.02928,0.0244,0.06588,0.10736,-0.09516,0.01952,0.02928,0.03904,-0.05368,-0.02928,-0.01464
-0.08784,0.03172,0.0244,0.06832,0.11224,-0.10004,0.01952,0.02928,0.03904,-0.0488,-0.01952,-0.00488
-0.08784,0.0366,0.01464,0.05856,0.10248,-0.09516,0.01952,0.02928,0.0488,-0.05856,-0.0244,0
-0.08784,0.03416,0.01952,0.06344,0.10736,-0.0976,0.01464,0.0244,0.05368,-0.05368,-0.0244,0
-0.0976,0.03416,0.02928,0.07808,0.12688,-0.11224,0,0.01952,0.06832,-0.03904,-0.01952,0.00488
-0.08296,0.02196,0.03904,0.08052,0.122,-0.10248,-0.00976,0.00976,0.06832,-0.02928,-0.01464,0.00976
-0.0732,0.00244,0.06832,0.10492,0.14152,-0.10736,-0.0244,0.00488,0.08296,-0.00976,0.00976,0.02928
-0.0732,-0.0122,0.0976,0.1342,0.1708,-0.122,-0.0244,-0.00488,0.0976,-0.00488,0.01464,0.03416
-0.06832,-0.00488,0.07808,0.11224,0.1464,-0.10736,-0.02928,-0.00488,0.08296,-0.00488,0.00976,0.02928
-0.06344,0.00244,0.05856,0.09028,0.122,-0.09272,-0.02928,-0.00488,0.0732,-0.01464,0.00976,0.0244
-0.05856,0,0.05856,0.08784,0.11712,-0.08784,-0.03904,0,0.0732,-0.01952,-0.00488,0.02928
-0.05856,0,0.05856,0.08784,0.11712,-0.08784,-0.0488,0,0.05856,-0.03416,-0.00488,0.0244
-0.04392,0.00244,0.03904,0.061,0.08296,-0.06344,-0.0732,-0.00488,0.02928,-0.05856,-0.00976,0.00488
-0.02928,0.00488,0.01952,0.03416,0.0488,-0.03904,-0.07808,0,0,-0.0732,-0.01952,-0.01464
-0.02928,0.00976,0.00976,0.0244,0.03904,-0.03416,-0.0732,-0.00488,0,-0.06832,-0.01952,-0.00488
-0.0244,0.01464,-0.00488,0.00732,0.01952,-0.02196,-0.06832,0,-0.00976,-0.06832,-0.01952,0.00488
-0.00488,-0.00244,0.00976,0.0122,0.01464,-0.00976,-0.05368,0,-0.00976,-0.0732,-0.01464,0
0.00488,-0.00488,0.00488,0.00244,0,0.00244,-0.05856,0.00976,-0.01952,-0.0732,-0.01464,0
0.00976,-0.0122,0.01464,0.00976,0.00488,0.00244,-0.05856,0.01952,-0.01464,-0.0732,-0.00976,-0.00976
0.00976,-0.0122,0.01464,0.00976,0.00488,0.00244,-0.0488,0.01952,-0.00976,-0.06832,-0.00976,-0.00976
0.01464,-0.01464,0.01464,0.00732,0,0.00732,-0.05368,0.01464,-0.01952,-0.07808,-0.01952,-0.01464
0.00976,-0.01464,0.01952,0.01464,0.00976,0,-0.03904,0.01464,-0.00976,-0.0732,-0.01952,-0.0244
-0.01464,0.00732,0,0.00732,0.01464,-0.01464,-0.0488,0.00488,-0.01464,-0.08296,-0.02928,-0.0244
-0.04392,0.03172,-0.01952,0.00244,0.0244,-0.03416,-0.03416,0.00976,-0.01464,-0.08296,-0.02928,-0.0244
-0.05856,0.04392,-0.02928,0,0.02928,-0.04392,-0.01464,0.01952,0,-0.07808,-0.0244,-0.01464
-0.06832,0.04148,-0.01464,0.01952,0.05368,-0.061,0.00488,0.0244,0.00976,-0.0732,-0.01952,-0.01464
-0.08784,0.0488,-0.00976,0.03416,0.07808,-0.08296,0.00488,0.03904,0.01952,-0.05856,-0.01464,-0.00488
-0.07808,0.04392,-0.00976,0.02928,0.06832,-0.0732,0.01464,0.04392,0.01952,-0.0488,-0.02928,-0.00488
-0.08784,0.04636,-0.00488,0.03904,0.08296,-0.0854,0.0244,0.0488,0.00976,-0.05856,-0.03904,-0.01464
-0.08784,0.04636,-0.00488,0.03904,0.08296,-0.0854,0.03416,0.0488,0.00976,-0.05856,-0.03416,-0.0244
-0.08296,0.03904,0.00488,0.04636,0.08784,-0.0854,0.04392,0.05368,0.01952,-0.0488,-0.0244,-0.01464
-0.08784,0.04636,-0.00488,0.03904,0.08296,-0.0854,0.04392,0.05368,0.0244,-0.0488,-0.0244,-0.01464
-0.09272,0.05368,-0.01464,0.03172,0.07808,-0.0854,0.03904,0.05856,0.0244,-0.05856,-0.02928,-0.01952
-0.10248,0.061,-0.01952,0.03172,0.08296,-0.09272,0.04392,0.06344,0.0244,-0.05856,-0.02928,-0.01952
-0.09272,0.0488,-0.00488,0.04148,0.08784,-0.09028,0.05368,0.06344,0.03904,-0.05856,-0.0244,0
-0.09272,0.0366,0.01952,0.06588,0.11224,-0.10248,0.0488,0.05856,0.0732,-0.01464,0.00976,0.02928
-0.05856,-0.00488,0.06832,0.0976,0.12688,-0.09272,0.05368,0.09272,0.15616,0.0732,0.05856,0.10248
0.01464,-0.07564,0.13664,0.12932,0.122,-0.05368,0.03904,0.10248,0.21472,0.12688,0.18544,0.2196
0.12688,-0.15128,0.17568,0.11224,0.0488,0.03904,-0.03416,0.0244,0.20496,0.1708,0.33672,0.30744
0.38064,-0.305,0.22936,0.03904,-0.15128,0.26596,-0.15128,-0.05856,0.1464,0.1464,0.47336,0.37576
0.64416,-0.42944,0.21472,-0.10736,-0.42944,0.5368,-0.30744,-0.18544,-0.01464,0.03416,0.61,0.4148
0.976,-0.61976,0.26352,-0.22448,-0.71248,0.84424,-0.50752,-0.30744,-0.09272,-0.01464,0.80032,0.5124
1.25416,-0.7686,0.28304,-0.34404,-0.97112,1.11264,-0.65392,-0.41968,-0.24888,-0.12688,0.89304,0.5124
1.32736,-0.793,0.25864,-0.40504,-1.06872,1.19804,-0.74664,-0.52216,-0.46848,-0.35136,0.81008,0.38552
1.20048,-0.70028,0.20008,-0.40016,-1.0004,1.10044,-0.67344,-0.44896,-0.5368,-0.48312,0.53192,0.17568
