i,aVR,ii,aVF,iii,aVL,V1,V2,V3,V4,V5,V6
-0.01952,0,0.01952,0.02928,0.03904,-0.02928,0.03416,0.15128,0.15128,0.09272,0.0488,0.0244
-0.01464,0,0.01464,0.02196,0.02928,-0.02196,0.03904,0.16592,0.1708,0.0976,0.05856,0.02928
-0.00488,-0.00488,0.01464,0.01708,0.01952,-0.0122,0.03416,0.16592,0.18056,0.11224,0.0732,0.03904
0.00976,-0.02196,0.03416,0.02928,0.0244,-0.00732,0.01952,0.16104,0.17568,0.11712,0.0732,0.03904
0.00976,-0.02684,0.04392,0.03904,0.03416,-0.0122,0.00488,0.16104,0.18544,0.11712,0.07808,0.0488
0.02928,-0.04636,0.06344,0.0488,0.03416,-0.00244,0,0.16104,0.18544,0.12688,0.08784,0.05856
0.02928,-0.05612,0.08296,0.06832,0.05368,-0.0122,-0.00488,0.15616,0.19032,0.13176,0.09272,0.06344
0.04392,-0.06832,0.09272,0.07076,0.0488,-0.00244,-0.00488,0.15616,0.20008,0.14152,0.10248,0.0732
0.04392,-0.06588,0.08784,0.06588,0.04392,0,-0.01464,0.15128,0.20984,0.15128,0.11712,0.07808
0.03416,-0.05856,0.08296,0.06588,0.0488,-0.00732,-0.01952,0.14152,0.1952,0.15128,0.122,0.09272
0.03416,-0.05124,0.06832,0.05124,0.03416,0,-0.0244,0.13176,0.18544,0.15128,0.122,0.09272
0.0244,-0.04392,0.06344,0.05124,0.03904,-0.00732,-0.0244,0.11224,0.16592,0.13664,0.10736,0.09272
0.02928,-0.04636,0.06344,0.0488,0.03416,-0.00244,-0.02928,0.0976,0.15128,0.12688,0.0976,0.09272
0.03904,-0.0488,0.05856,0.03904,0.01952,0.00976,-0.02928,0.09272,0.13664,0.11712,0.09272,0.08296
0.03416,-0.04392,0.05368,0.0366,0.01952,0.00732,-0.02928,0.08296,0.11712,0.0976,0.08296,0.06832
0.03416,-0.04148,0.0488,0.03172,0.01464,0.00976,-0.03416,0.0732,0.10736,0.09272,0.0732,0.06344
0.0244,-0.02684,0.02928,0.01708,0.00488,0.00976,-0.0244,0.06344,0.08784,0.0732,0.05368,0.05368
0.01952,-0.01952,0.01952,0.00976,0,0.00976,-0.01464,0.05368,0.06832,0.05368,0.03904,0.03904
0.01464,-0.00976,0.00488,-0.00244,-0.00976,0.0122,-0.00976,0.0488,0.0488,0.03904,0.02928,0.02928
0.00976,-0.00244,-0.00488,-0.00976,-0.01464,0.0122,-0.00488,0.02928,0.03416,0.01952,0.01952,0.0244
0.00488,0.00976,-0.0244,-0.02684,-0.02928,0.01708,0.00488,0.0244,0.00976,0,0.00488,0.00488
-0.01464,0.0244,-0.03416,-0.02684,-0.01952,0.00244,0.01464,0.01464,-0.00976,-0.01952,-0.00976,-0.00488
-0.03416,0.0366,-0.03904,-0.02196,-0.00488,-0.01464,0.0244,0.00488,-0.0244,-0.02928,-0.02928,-0.01952
-0.04392,0.0488,-0.05368,-0.03172,-0.00976,-0.01708,0.01952,0.00488,-0.04392,-0.0488,-0.04392,-0.03416
-0.0488,0.06344,-0.07808,-0.05368,-0.02928,-0.00976,0.0244,0,-0.06344,-0.05856,-0.06344,-0.0488
-0.0488,0.06344,-0.07808,-0.05368,-0.02928,-0.00976,0.0244,-0.00976,-0.06344,-0.05856,-0.06832,-0.05368
-0.0488,0.06588,-0.08296,-0.05856,-0.03416,-0.00732,0.0244,-0.01952,-0.06832,-0.0732,-0.0732,-0.05856
-0.0488,0.061,-0.0732,-0.0488,-0.0244,-0.0122,0.0244,-0.00976,-0.06344,-0.06832,-0.07808,-0.05368
-0.0488,0.05856,-0.06832,-0.04392,-0.01952,-0.01464,0.0244,-0.01464,-0.0732,-0.0732,-0.07808,-0.05368
-0.05856,0.06588,-0.0732,-0.04392,-0.01464,-0.02196,0.0244,-0.01464,-0.08296,-0.08296,-0.07808,-0.06344
-0.0732,0.0732,-0.0732,-0.0366,0,-0.0366,0.0244,-0.01952,-0.08784,-0.08296,-0.08296,-0.07808
-0.0732,0.07808,-0.08296,-0.04636,-0.00976,-0.03172,0.0244,-0.01952,-0.08784,-0.08784,-0.08296,-0.07808
-0.0732,0.07808,-0.08296,-0.04636,-0.00976,-0.03172,0.0244,-0.0244,-0.08784,-0.08784,-0.08296,-0.07808
-0.0732,0.08296,-0.09272,-0.05612,-0.01952,-0.02684,0.03416,-0.0244,-0.08296,-0.08784,-0.08296,-0.0732
-0.0732,0.08296,-0.09272,-0.05612,-0.01952,-0.02684,0.03416,-0.0244,-0.08296,-0.08784,-0.08296,-0.0732
-0.06344,0.07076,-0.07808,-0.04636,-0.01464,-0.0244,0.04392,-0.0244,-0.08296,-0.07808,-0.08296,-0.06344
-0.06832,0.06588,-0.06344,-0.02928,0.00488,-0.0366,0.04392,-0.01952,-0.08296,-0.08296,-0.08784,-0.06344
-0.06832,0.06588,-0.06344,-0.02928,0.00488,-0.0366,0.03416,-0.0244,-0.08296,-0.0976,-0.09272,-0.06344
-0.06832,0.06588,-0.06344,-0.02928,0.00488,-0.0366,0.03416,-0.0244,-0.07808,-0.09272,-0.09272,-0.06344
-0.07808,0.08052,-0.08296,-0.04392,-0.00488,-0.0366,0.03416,-0.0244,-0.07808,-0.09272,-0.0976,-0.0732
-0.07808,0.0854,-0.09272,-0.05368,-0.01464,-0.03172,0.03904,-0.01952,-0.0732,-0.08784,-0.09272,-0.06832
-0.06344,0.08296,-0.10248,-0.07076,-0.03904,-0.0122,0.03904,-0.01952,-0.0732,-0.0732,-0.08296,-0.05856
-0.06344,0.08052,-0.0976,-0.06588,-0.03416,-0.01464,0.03416,-0.01952,-0.06832,-0.06344,-0.0732,-0.05856
-0.05368,0.06832,-0.08296,-0.05612,-0.02928,-0.0122,0.0244,-0.01952,-0.06832,-0.06832,-0.08296,-0.06344
-0.05368,0.06832,-0.08296,-0.05612,-0.02928,-0.0122,0.0244,-0.01952,-0.06832,-0.0732,-0.07808,-0.05856
-0.05368,0.061,-0.06832,-0.04148,-0.01464,-0.01952,0.01952,-0.02928,-0.07808,-0.06832,-0.08296,-0.06344
-0.0488,0.05368,-0.05856,-0.03416,-0.00976,-0.01952,0.01464,-0.0244,-0.07808,-0.06832,-0.07808,-0.06344
-0.0488,0.05368,-0.05856,-0.03416,-0.00976,-0.01952,0.01464,-0.0244,-0.0732,-0.06344,-0.07808,-0.05856
-0.04392,0.0488,-0.05368,-0.03172,-0.00976,-0.01708,0.01464,-0.0244,-0.0732,-0.05856,-0.07808,-0.05368
-0.05368,0.05856,-0.06344,-0.0366,-0.00976,-0.02196,0.01952,-0.01464,-0.05856,-0.05856,-0.0732,-0.04392
-0.05368,0.061,-0.06832,-0.04148,-0.01464,-0.01952,0.01952,0,-0.05856,-0.05368,-0.0732,-0.03904
-0.03904,0.05368,-0.06832,-0.0488,-0.02928,-0.00488,0.02928,0.00976,-0.05856,-0.05856,-0.06832,-0.03904
-0.03904,0.0488,-0.05856,-0.03904,-0.01952,-0.00976,0.01952,0.00976,-0.05856,-0.0488,-0.05856,-0.03904
-0.03904,0.0488,-0.05856,-0.03904,-0.01952,-0.00976,0.01952,0.00976,-0.05856,-0.0488,-0.05856,-0.03904
-0.02928,0.03416,-0.03904,-0.0244,-0.00976,-0.00976,0,-0.00488,-0.0488,-0.0488,-0.05856,-0.03904
-0.0244,0.02684,-0.02928,-0.01708,-0.00488,-0.00976,-0.00488,-0.00488,-0.03904,-0.03904,-0.0488,-0.03416
-0.0244,0.0244,-0.0244,-0.0122,0,-0.0122,0,-0.00488,-0.03904,-0.0244,-0.0488,-0.0244
-0.01952,0.01464,-0.00976,0,0.00976,-0.01464,0,0,-0.0244,-0.01464,-0.03416,-0.0244
-0.00976,0,0.00976,0.01464,0.01952,-0.01464,-0.00976,0.00976,-0.01464,0.00488,-0.0244,-0.00976
0.00488,-0.0122,0.01952,0.01708,0.01464,-0.00488,-0.00976,0.01464,-0.00488,0.00976,-0.0244,0
0.00976,-0.01464,0.01952,0.01464,0.00976,0,-0.00976,0,0.00488,0.00976,-0.01952,-0.00488
0.01952,-0.03172,0.04392,0.03416,0.0244,-0.00244,-0.03416,-0.00976,0.00976,0.01952,-0.00976,0.00488
0.01952,-0.03904,0.05856,0.0488,0.03904,-0.00976,-0.0488,-0.01464,0.01952,0.0244,0.00488,0.0244
0.02928,-0.0488,0.06832,0.05368,0.03904,-0.00488,-0.06832,-0.02928,0.01952,0.02928,0.01464,0.03416
0.0488,-0.06344,0.07808,0.05368,0.02928,0.00976,-0.0732,-0.03416,0.01464,0.02928,0.01464,0.03416
0.05856,-0.07076,0.08296,0.05368,0.0244,0.01708,-0.07808,-0.03416,0,0.0244,0.01464,0.03416
0.06832,-0.07808,0.08784,0.05368,0.01952,0.0244,-0.08784,-0.03416,-0.00976,0.03416,0.01464,0.03416
0.06832,-0.07808,0.08784,0.05368,0.01952,0.0244,-0.08784,-0.03416,-0.01952,0.0244,0.00976,0.03416
0.0732,-0.07808,0.08296,0.04636,0.00976,0.03172,-0.08296,-0.02928,-0.0244,0.0244,0.01952,0.04392
0.0732,-0.0732,0.0732,0.0366,0,0.0366,-0.06832,-0.02928,-0.02928,0.01952,0.01464,0.03904
0.0732,-0.06588,0.05856,0.02196,-0.01464,0.04392,-0.06832,-0.0244,-0.0488,0.00488,0.00976,0.03416
0.06832,-0.061,0.05368,0.01952,-0.01464,0.04148,-0.05856,-0.01952,-0.06344,-0.01464,-0.00488,0.0244
0.03904,-0.02928,0.01952,0,-0.01952,0.02928,-0.03416,-0.02928,-0.0732,-0.0244,-0.0244,0.01464
0.01952,-0.00244,-0.01464,-0.0244,-0.03416,0.02684,-0.01464,-0.0244,-0.08296,-0.03904,-0.03904,-0.00488
-0.01464,0.03172,-0.0488,-0.04148,-0.03416,0.00976,-0.00488,-0.01952,-0.09272,-0.0488,-0.05368,-0.01952
-0.03416,0.0488,-0.06344,-0.04636,-0.02928,-0.00244,0.01464,-0.01464,-0.0976,-0.06344,-0.06832,-0.02928
-0.03904,0.05612,-0.0732,-0.05368,-0.03416,-0.00244,0.02928,-0.01464,-0.10248,-0.06832,-0.06832,-0.0488
-0.0488,0.06588,-0.08296,-0.05856,-0.03416,-0.00732,0.03904,-0.00976,-0.11224,-0.07808,-0.07808,-0.05856
-0.06344,0.08784,-0.11224,-0.08052,-0.0488,-0.00732,0.0488,0,-0.10736,-0.07808,-0.07808,-0.05856
-0.06344,0.09272,-0.122,-0.09028,-0.05856,-0.00244,0.0488,0.00488,-0.10736,-0.08784,-0.08784,-0.06832
-0.06344,0.09272,-0.122,-0.09028,-0.05856,-0.00244,0.05368,0.00488,-0.11712,-0.08784,-0.08784,-0.06832
-0.06832,0.09516,-0.122,-0.08784,-0.05368,-0.00732,0.05856,0.00488,-0.11712,-0.08784,-0.08784,-0.06832
-0.07808,0.10248,-0.12688,-0.08784,-0.0488,-0.01464,0.05856,-0.00488,-0.11712,-0.09272,-0.10248,-0.08296
-0.07808,0.10248,-0.12688,-0.08784,-0.0488,-0.01464,0.06344,-0.00488,-0.122,-0.09272,-0.10248,-0.08296
-0.08784,0.11224,-0.13664,-0.09272,-0.0488,-0.01952,0.0732,0.00976,-0.122,-0.10248,-0.10736,-0.07808
-0.08784,0.11224,-0.13664,-0.09272,-0.0488,-0.01952,0.07808,0.00976,-0.122,-0.10248,-0.10736,-0.07808
-0.08296,0.1098,-0.13664,-0.09516,-0.05368,-0.01464,0.06832,0,-0.13176,-0.11224,-0.11224,-0.08784
-0.08296,0.1098,-0.13664,-0.09516,-0.05368,-0.01464,0.0732,0,-0.13176,-0.12688,-0.11712,-0.08784
-0.08296,0.1098,-0.13664,-0.09516,-0.05368,-0.01464,0.06344,-0.00488,-0.14152,-0.11712,-0.11712,-0.0976
-0.08296,0.11224,-0.14152,-0.10004,-0.05856,-0.0122,0.06344,-0.00488,-0.13664,-0.11712,-0.11712,-0.0976
-0.08296,0.11224,-0.14152,-0.10004,-0.05856,-0.0122,0.06832,0.00488,-0.13176,-0.10736,-0.10736,-0.08784
-0.07808,0.11224,-0.1464,-0.10736,-0.06832,-0.00488,0.06832,0.00488,-0.13176,-0.10736,-0.11224,-0.08784
-0.07808,0.10736,-0.13664,-0.0976,-0.05856,-0.00976,0.06832,0,-0.12688,-0.10248,-0.11224,-0.0976
-0.07808,0.1098,-0.14152,-0.10248,-0.06344,-0.00732,0.0732,0.00488,-0.12688,-0.10248,-0.11224,-0.10248
-0.07808,0.11712,-0.15616,-0.11712,-0.07808,0,0.0976,0.01952,-0.11712,-0.10736,-0.11224,-0.09272
-0.08784,0.1342,-0.18056,-0.13664,-0.09272,0.00244,0.122,0.05368,-0.0976,-0.10736,-0.12688,-0.11224
-0.10736,0.15372,-0.20008,-0.1464,-0.09272,-0.00732,0.15128,0.08296,-0.04392,-0.08784,-0.13176,-0.12688
-0.11224,0.15128,-0.19032,-0.1342,-0.07808,-0.01708,0.16592,0.11224,0.05368,-0.0244,-0.10248,-0.11712
-0.06832,0.0976,-0.12688,-0.09272,-0.05856,-0.00488,0.13176,0.13664,0.16592,0.0976,0,-0.03904
0.0488,-0.0122,-0.0244,-0.0488,-0.0732,0.061,0.05856,0.15616,0.28792,0.27328,0.18544,0.10736
0.25864,-0.18788,0.11712,-0.0122,-0.14152,0.20008,-0.0732,0.1952,0.38064,0.49288,0.46848,0.3416
0.53192,-0.41968,0.30744,0.04148,-0.22448,0.3782,-0.26352,0.22448,0.43432,0.71248,0.79056,0.62952
0.8052,-0.65392,0.50264,0.10004,-0.30256,0.55388,-0.4636,0.22936,0.40504,0.88816,1.08336,0.90768
1.0004,-0.82472,0.64904,0.14884,-0.35136,0.67588,-0.65392,0.15128,0.22936,0.86376,1.20536,1.06872
1.06384,-0.89548,0.72712,0.1952,-0.33672,0.70028,-0.77104,-0.03904,-0.0976,0.64416,1.11264,1.06872
0.90768,-0.8052,0.70272,0.24888,-0.20496,0.55632,-0.79544,-0.3172,-0.52704,0.22936,0.76616,0.87352
0.6832,-0.63684,0.59048,0.24888,-0.09272,0.38796,-0.71736,-0.54656,-0.8784,-0.18544,0.366,0.60512
0.44408,-0.44896,0.45384,0.2318,0.00976,0.21716,-0.5856,-0.67344,-1.05408,-0.47336,0.03904,0.35136
0.27328,-0.28548,0.29768,0.16104,0.0244,0.12444,-0.44896,-0.62464,-1.01016,-0.55144,-0.11712,0.20496
0.18056,-0.17812,0.17568,0.0854,-0.00488,0.09272,-0.31232,-0.47824,-0.83448,-0.49288,-0.16104,0.11224
0.10736,-0.10248,0.0976,0.04392,-0.00976,0.05856,-0.2196,-0.3416,-0.62952,-0.39528,-0.16104,0.04392
0.03904,-0.04392,0.0488,0.02928,0.00976,0.01464,-0.122,-0.23424,-0.46848,-0.31232,-0.15616,-0.01464
-0.02928,0.0122,0.00488,0.01952,0.03416,-0.03172,-0.0488,-0.1708,-0.36112,-0.26352,-0.1708,-0.0732
-0.07808,0.06344,-0.0488,-0.00976,0.02928,-0.05368,0,-0.11712,-0.28304,-0.22936,-0.1708,-0.0976
-0.10248,0.09516,-0.08784,-0.0366,0.01464,-0.05856,0.03416,-0.07808,-0.22936,-0.20008,-0.16592,-0.11712
-0.11224,0.11712,-0.122,-0.06588,-0.00976,-0.05124,0.05368,-0.04392,-0.18544,-0.18056,-0.16104,-0.11712
-0.10736,0.11956,-0.13176,-0.07808,-0.0244,-0.04148,0.07808,-0.01952,-0.16104,-0.15128,-0.15128,-0.122
-0.0976,0.11956,-0.14152,-0.09272,-0.04392,-0.02684,0.09272,-0.00488,-0.1464,-0.13664,-0.15128,-0.122
-0.0976,0.11956,-0.14152,-0.09272,-0.04392,-0.02684,0.0976,0.00488,-0.13176,-0.13664,-0.1464,-0.122
-0.10248,0.12688,-0.15128,-0.10004,-0.0488,-0.02684,0.0976,0.00976,-0.13176,-0.1464,-0.1464,-0.122
-0.10248,0.12932,-0.15616,-0.10492,-0.05368,-0.0244,0.0976,0.00976,-0.12688,-0.1464,-0.14152,-0.122
-0.11224,0.1342,-0.15616,-0.10004,-0.04392,-0.03416,0.0976,0.01464,-0.11224,-0.14152,-0.13176,-0.11224
-0.11712,0.13908,-0.16104,-0.10248,-0.04392,-0.0366,0.10736,0.0244,-0.10248,-0.13176,-0.12688,-0.11224
-0.10736,0.13176,-0.15616,-0.10248,-0.0488,-0.02928,0.0976,0.0244,-0.0976,-0.14152,-0.12688,-0.11712
-0.10248,0.12932,-0.15616,-0.10492,-0.05368,-0.0244,0.0976,0.0244,-0.0976,-0.14152,-0.12688,-0.11712
-0.0976,0.12688,-0.15616,-0.10736,-0.05856,-0.01952,0.10736,0.03416,-0.09272,-0.13176,-0.11712,-0.10248
-0.09272,0.12444,-0.15616,-0.1098,-0.06344,-0.01464,0.10248,0.03904,-0.09272,-0.12688,-0.11712,-0.10248
-0.09272,0.11712,-0.14152,-0.09516,-0.0488,-0.02196,0.0976,0.0488,-0.08296,-0.12688,-0.11712,-0.10248
-0.08784,0.11468,-0.14152,-0.0976,-0.05368,-0.01708,0.0976,0.0488,-0.07808,-0.122,-0.11224,-0.10248
-0.08784,0.11956,-0.15128,-0.10736,-0.06344,-0.0122,0.10248,0.03904,-0.07808,-0.122,-0.11224,-0.11224
-0.08784,0.11712,-0.1464,-0.10248,-0.05856,-0.01464,0.10248,0.03904,-0.07808,-0.11712,-0.11224,-0.11224
-0.08784,0.11956,-0.15128,-0.10736,-0.06344,-0.0122,0.08784,0.02928,-0.08784,-0.12688,-0.11224,-0.11224
-0.08784,0.12444,-0.16104,-0.11712,-0.0732,-0.00732,0.08784,0.02928,-0.08784,-0.122,-0.11224,-0.11224
-0.0976,0.122,-0.1464,-0.0976,-0.0488,-0.0244,0.08784,0.02928,-0.09272,-0.122,-0.122,-0.11224
-0.0976,0.11956,-0.14152,-0.09272,-0.04392,-0.02684,0.08296,0.02928,-0.09272,-0.122,-0.122,-0.10736
-0.09272,0.11224,-0.13176,-0.0854,-0.03904,-0.02684,0.08296,0.03416,-0.08784,-0.122,-0.122,-0.11224
-0.09272,0.1098,-0.12688,-0.08052,-0.03416,-0.02928,0.08296,0.03416,-0.08296,-0.11712,-0.122,-0.11224
-0.08296,0.10004,-0.11712,-0.07564,-0.03416,-0.0244,0.08784,0.03416,-0.08296,-0.11712,-0.122,-0.11224
-0.06832,0.09272,-0.11712,-0.08296,-0.0488,-0.00976,0.08784,0.03416,-0.0732,-0.11224,-0.122,-0.11224
-0.0732,0.09028,-0.10736,-0.07076,-0.03416,-0.01952,0.07808,0.04392,-0.06344,-0.10248,-0.11224,-0.10248
-0.06832,0.08784,-0.10736,-0.0732,-0.03904,-0.01464,0.07808,0.04392,-0.06344,-0.0976,-0.10736,-0.10248
-0.07808,0.10004,-0.122,-0.08296,-0.04392,-0.01708,0.07808,0.03904,-0.06344,-0.10248,-0.11224,-0.0976
-0.08784,0.10736,-0.12688,-0.08296,-0.03904,-0.0244,0.07808,0.04392,-0.05368,-0.0976,-0.11224,-0.0976
-0.08784,0.10736,-0.12688,-0.08296,-0.03904,-0.0244,0.07808,0.0488,-0.05856,-0.08784,-0.10736,-0.10248
-0.08784,0.10248,-0.11712,-0.0732,-0.02928,-0.02928,0.07808,0.0488,-0.05368,-0.08296,-0.10736,-0.10248
-0.07808,0.0854,-0.09272,-0.05368,-0.01464,-0.03172,0.07808,0.0488,-0.04392,-0.08296,-0.0976,-0.0976
-0.0732,0.08052,-0.08784,-0.05124,-0.01464,-0.02928,0.0732,0.05368,-0.03416,-0.07808,-0.0976,-0.09272
-0.06832,0.08052,-0.09272,-0.05856,-0.0244,-0.02196,0.06832,0.05856,-0.03416,-0.05856,-0.08784,-0.08296
-0.06344,0.07808,-0.09272,-0.061,-0.02928,-0.01708,0.06344,0.05856,-0.01952,-0.05368,-0.08296,-0.07808
-0.06344,0.07076,-0.07808,-0.04636,-0.01464,-0.0244,0.06344,0.06344,0,-0.03904,-0.0732,-0.08296
-0.05856,0.06832,-0.07808,-0.0488,-0.01952,-0.01952,0.06344,0.06344,0.00976,-0.02928,-0.06832,-0.07808
-0.05368,0.061,-0.06832,-0.04148,-0.01464,-0.01952,0.05856,0.08296,0.01952,-0.01952,-0.0732,-0.07808
-0.04392,0.0488,-0.05368,-0.03172,-0.00976,-0.01708,0.05856,0.09272,0.04392,-0.01464,-0.05856,-0.06832
-0.03904,0.04392,-0.0488,-0.02928,-0.00976,-0.01464,0.06832,0.10736,0.05368,0.00488,-0.03416,-0.0488
-0.03904,0.04148,-0.04392,-0.0244,-0.00488,-0.01708,0.06344,0.11712,0.0732,0.01952,-0.01952,-0.03904
-0.03416,0.03904,-0.04392,-0.02684,-0.00976,-0.0122,0.05856,0.122,0.08296,0.03416,-0.01952,-0.03904
-0.0244,0.0244,-0.0244,-0.0122,0,-0.0122,0.0488,0.12688,0.10248,0.0488,-0.00976,-0.03416
-0.0244,0.01708,-0.00976,0.00244,0.01464,-0.01952,0.03904,0.13176,0.11224,0.06344,0.01952,-0.0244
-0.01464,0.00488,0.00488,0.0122,0.01952,-0.01708,0.02928,0.13176,0.122,0.08296,0.03416,-0.00976
-0.01464,0.00488,0.00488,0.0122,0.01952,-0.01708,0.02928,0.14152,0.13664,0.09272,0.04392,0.00976
0,-0.00244,0.00488,0.00488,0.00488,-0.00244,0.02928,0.1464,0.1464,0.10736,0.05368,0.0244
0.01464,-0.0122,0.00976,0.00244,-0.00488,0.00976,0.0244,0.15128,0.15128,0.11712,0.05856,0.03416
0.01952,-0.01952,0.01952,0.00976,0,0.00976,0.01464,0.15128,0.16104,0.11712,0.0732,0.04392
0.02928,-0.0366,0.04392,0.02928,0.01464,0.00732,0.00976,0.14152,0.16592,0.12688,0.08296,0.04392
0.02928,-0.04636,0.06344,0.0488,0.03416,-0.00244,0.00488,0.14152,0.1708,0.12688,0.08784,0.05368
0.02928,-0.05612,0.08296,0.06832,0.05368,-0.0122,-0.00488,0.1464,0.1708,0.13176,0.09272,0.05368
0.03416,-0.05612,0.07808,0.061,0.04392,-0.00488,-0.01952,0.13664,0.1708,0.13176,0.0976,0.05856
0.03416,-0.05124,0.06832,0.05124,0.03416,0,-0.0244,0.13176,0.16592,0.14152,0.10736,0.0732
0.03416,-0.05368,0.0732,0.05612,0.03904,-0.00244,-0.01464,0.12688,0.16592,0.14152,0.11224,0.0732
0.03416,-0.0488,0.06344,0.04636,0.02928,0.00244,-0.01464,0.10736,0.16104,0.13176,0.10736,0.0732
0.03904,-0.05124,0.06344,0.04392,0.0244,0.00732,-0.01464,0.0976,0.14152,0.122,0.10736,0.0732
0.03904,-0.05368,0.06832,0.0488,0.02928,0.00488,-0.02928,0.08296,0.11712,0.10248,0.08296,0.06832
0.03416,-0.0488,0.06344,0.04636,0.02928,0.00244,-0.02928,0.07808,0.0976,0.09272,0.07808,0.0488
0.03416,-0.0488,0.06344,0.04636,0.02928,0.00244,-0.02928,0.05856,0.08784,0.06832,0.06832,0.03416
0.02928,-0.0366,0.04392,0.02928,0.01464,0.00732,-0.0244,0.0488,0.06832,0.05368,0.05368,0.01952
0.02928,-0.03416,0.03904,0.0244,0.00976,0.00976,-0.01952,0.03904,0.0488,0.04392,0.04392,0.01464
0.0244,-0.0244,0.0244,0.0122,0,0.0122,-0.00976,0.02928,0.02928,0.02928,0.03416,0.00488
0.01464,-0.01464,0.01464,0.00732,0,0.00732,-0.01464,0.0244,0.0244,0.01952,0.0244,-0.00488
0.00488,0,-0.00488,-0.00732,-0.00976,0.00732,-0.00976,0.01952,0.00488,0,0.01464,-0.00488
0,0.0122,-0.0244,-0.0244,-0.0244,0.0122,0.00488,0.0244,-0.00976,-0.00488,0.00976,-0.01464
-0.00976,0.01952,-0.02928,-0.0244,-0.01952,0.00488,0.00488,0.0244,-0.02928,-0.0244,-0.00488,-0.02928
-0.01952,0.03172,-0.04392,-0.03416,-0.0244,0.00244,0.0244,0.0244,-0.02928,-0.0244,-0.00976,-0.02928
-0.0244,0.04636,-0.06832,-0.05612,-0.04392,0.00976,0.03416,0.01952,-0.03904,-0.03416,-0.01952,-0.03416
-0.04392,0.06832,-0.09272,-0.07076,-0.0488,0.00244,0.03904,0.00976,-0.0488,-0.0488,-0.03416,-0.04392
-0.0488,0.0732,-0.0976,-0.0732,-0.0488,0,0.04392,0.00976,-0.05368,-0.05856,-0.04392,-0.04392
-0.05856,0.07564,-0.09272,-0.06344,-0.03416,-0.0122,0.03416,0.00488,-0.06832,-0.06832,-0.05368,-0.06344
-0.05856,0.07564,-0.09272,-0.06344,-0.03416,-0.0122,0.03416,-0.00976,-0.08296,-0.08296,-0.06344,-0.07808
-0.06832,0.0732,-0.07808,-0.04392,-0.00976,-0.02928,0.03416,-0.01464,-0.09272,-0.09272,-0.07808,-0.09272
-0.0732,0.07808,-0.08296,-0.04636,-0.00976,-0.03172,0.03416,-0.01464,-0.0976,-0.09272,-0.07808,-0.09272
-0.06344,0.07808,-0.09272,-0.061,-0.02928,-0.01708,0.04392,-0.01464,-0.08784,-0.08784,-0.0732,-0.09272
-0.06344,0.07808,-0.09272,-0.061,-0.02928,-0.01708,0.04392,-0.00488,-0.08784,-0.08784,-0.0732,-0.08296
-0.05368,0.07808,-0.10248,-0.07564,-0.0488,-0.00244,0.04392,-0.00488,-0.08296,-0.07808,-0.06344,-0.0732
-0.05368,0.07808,-0.10248,-0.07564,-0.0488,-0.00244,0.04392,-0.00488,-0.08296,-0.07808,-0.06344,-0.0732
-0.04392,0.07076,-0.0976,-0.07564,-0.05368,0.00488,0.04392,-0.01464,-0.08296,-0.07808,-0.06344,-0.0732
-0.04392,0.07076,-0.0976,-0.07564,-0.05368,0.00488,0.04392,-0.01464,-0.08296,-0.07808,-0.06832,-0.0732
-0.0488,0.07564,-0.10248,-0.07808,-0.05368,0.00244,0.04392,0,-0.08296,-0.08296,-0.06344,-0.0732
-0.0488,0.07564,-0.10248,-0.07808,-0.05368,0.00244,0.04392,-0.00488,-0.07808,-0.08784,-0.06344,-0.0732
-0.0488,0.0732,-0.0976,-0.0732,-0.0488,0,0.04392,-0.01464,-0.08784,-0.09272,-0.0732,-0.08296
-0.0488,0.06832,-0.08784,-0.06344,-0.03904,-0.00488,0.0488,-0.01464,-0.08784,-0.08784,-0.06832,-0.08296
-0.0488,0.06588,-0.08296,-0.05856,-0.03416,-0.00732,0.0488,0,-0.08296,-0.09272,-0.06344,-0.08784
-0.04392,0.061,-0.07808,-0.05612,-0.03416,-0.00488,0.0488,0,-0.07808,-0.09272,-0.06344,-0.08784
-0.04392,0.06344,-0.08296,-0.061,-0.03904,-0.00244,0.04392,0,-0.07808,-0.08296,-0.06344,-0.08296
-0.04392,0.06344,-0.08296,-0.061,-0.03904,-0.00244,0.04392,0,-0.07808,-0.07808,-0.06344,-0.08296
-0.04392,0.06588,-0.08784,-0.06588,-0.04392,0,0.03416,0,-0.07808,-0.07808,-0.06344,-0.08296
-0.04392,0.06588,-0.08784,-0.06588,-0.04392,0,0.03904,0,-0.07808,-0.07808,-0.06344,-0.08296
-0.03904,0.06344,-0.08784,-0.06832,-0.0488,0.00488,0.04392,0.00488,-0.06832,-0.07808,-0.05856,-0.07808
-0.03904,0.06344,-0.08784,-0.06832,-0.0488,0.00488,0.0488,0.01952,-0.06832,-0.05856,-0.0488,-0.06832
-0.02928,0.05368,-0.07808,-0.06344,-0.0488,0.00976,0.03904,0.00976,-0.05856,-0.05856,-0.0488,-0.05856
-0.02928,0.05368,-0.07808,-0.06344,-0.0488,0.00976,0.03904,0.00976,-0.05856,-0.05856,-0.0488,-0.05856
-0.00976,0.03904,-0.06832,-0.06344,-0.05856,0.0244,0.01952,-0.00488,-0.05856,-0.05856,-0.03904,-0.05856
-0.00488,0.03172,-0.05856,-0.05612,-0.05368,0.0244,0.01464,-0.00488,-0.0488,-0.0488,-0.02928,-0.05368
-0.00488,0.02928,-0.05368,-0.05124,-0.0488,0.02196,0.00976,-0.00488,-0.0488,-0.04392,-0.02928,-0.05368
-0.00976,0.0244,-0.03904,-0.03416,-0.02928,0.00976,0.00976,0,-0.03416,-0.03416,-0.01464,-0.05368
-0.00976,0.01952,-0.02928,-0.0244,-0.01952,0.00488,0.00976,0.00976,-0.0244,-0.0244,-0.00488,-0.03904
-0.00488,0.0122,-0.01952,-0.01708,-0.01464,0.00488,0.00976,0.01464,-0.01464,-0.01952,-0.00488,-0.02928
0.01952,-0.00976,0,-0.00976,-0.01952,0.01952,0.00976,0.00976,0.00488,0,0,-0.0244
0.02928,-0.03172,0.03416,0.01952,0.00488,0.0122,-0.01464,0,0.00976,0.00976,0.00976,-0.01464
0.03904,-0.03904,0.03904,0.01952,0,0.01952,-0.03904,-0.00488,0.00976,0.01464,0.01464,-0.00488
0.0488,-0.0488,0.0488,0.0244,0,0.0244,-0.05856,-0.01952,0.00976,0.01952,0.0244,0.00488
0.0488,-0.05856,0.06832,0.04392,0.01952,0.01464,-0.06344,-0.0244,0.00488,0.01952,0.03416,0.01464
0.05856,-0.06588,0.0732,0.04392,0.01464,0.02196,-0.06832,-0.0244,-0.00976,0.01464,0.03416,0.01464
0.06832,-0.0732,0.07808,0.04392,0.00976,0.02928,-0.06832,-0.03416,-0.01952,0.01464,0.03416,0.01464
0.06832,-0.0732,0.07808,0.04392,0.00976,0.02928,-0.06832,-0.03416,-0.02928,0.00488,0.02928,0.01464
0.0732,-0.0732,0.0732,0.0366,0,0.0366,-0.06344,-0.02928,-0.03416,0.00488,0.02928,0.01464
0.0732,-0.06832,0.06344,0.02684,-0.00976,0.04148,-0.0488,-0.02928,-0.03904,0,0.0244,0.00976
0.06344,-0.05612,0.0488,0.01708,-0.01464,0.03904,-0.0488,-0.0244,-0.0488,-0.01464,0.01952,-0.00488
0.0488,-0.04148,0.03416,0.00976,-0.01464,0.03172,-0.03904,-0.01952,-0.06344,-0.03416,0.00488,-0.01464
0.02928,-0.01464,0,-0.01464,-0.02928,0.02928,-0.0244,-0.00976,-0.06344,-0.03416,0.00488,-0.01464
0.00976,0.0122,-0.03416,-0.03904,-0.04392,0.02684,-0.00488,-0.00488,-0.06344,-0.03904,0,-0.03416
-0.00488,0.0366,-0.06832,-0.06588,-0.06344,0.02928,0.01464,0.00976,-0.06344,-0.0488,-0.01464,-0.03904
-0.0244,0.05368,-0.08296,-0.07076,-0.05856,0.01708,0.03416,0.01464,-0.06832,-0.06344,-0.02928,-0.03904
-0.01952,0.05612,-0.09272,-0.08296,-0.0732,0.02684,0.03904,0.00488,-0.08296,-0.06832,-0.03904,-0.05856
-0.02928,0.06588,-0.10248,-0.08784,-0.0732,0.02196,0.0488,0.00976,-0.09272,-0.07808,-0.0488,-0.06832
-0.04392,0.07808,-0.11224,-0.09028,-0.06832,0.0122,0.05856,0,-0.10736,-0.0976,-0.06832,-0.07808
-0.04392,0.07808,-0.11224,-0.09028,-0.06832,0.0122,0.05856,0.00488,-0.11712,-0.10736,-0.07808,-0.08784
-0.05368,0.08784,-0.122,-0.09516,-0.06832,0.00732,0.06344,0.01464,-0.11712,-0.10736,-0.07808,-0.08784
-0.05856,0.09028,-0.122,-0.09272,-0.06344,0.00244,0.06832,0.01464,-0.11712,-0.10736,-0.07808,-0.08784
-0.05856,0.0976,-0.13664,-0.10736,-0.07808,0.00976,0.07808,0.01464,-0.11712,-0.11224,-0.08296,-0.09272
-0.05856,0.10248,-0.1464,-0.11712,-0.08784,0.01464,0.08296,0.01464,-0.122,-0.11224,-0.08296,-0.09272
-0.06832,0.11712,-0.16592,-0.13176,-0.0976,0.01464,0.08296,0.02928,-0.122,-0.11224,-0.08784,-0.0976
-0.06832,0.12688,-0.18544,-0.15128,-0.11712,0.0244,0.08784,0.02928,-0.122,-0.11224,-0.08784,-0.0976
-0.08296,0.12932,-0.17568,-0.1342,-0.09272,0.00488,0.08784,0.02928,-0.11224,-0.122,-0.09272,-0.0976
-0.08296,0.12932,-0.17568,-0.1342,-0.09272,0.00488,0.09272,0.02928,-0.11224,-0.12688,-0.0976,-0.0976
-0.0732,0.11956,-0.16592,-0.12932,-0.09272,0.00976,0.09272,0.03416,-0.122,-0.11712,-0.08784,-0.08784
-0.0732,0.122,-0.1708,-0.1342,-0.0976,0.0122,0.09272,0.03416,-0.11712,-0.11712,-0.08784,-0.08784
-0.0732,0.11712,-0.16104,-0.12444,-0.08784,0.00732,0.0976,0.0244,-0.11224,-0.10736,-0.07808,-0.07808
-0.06832,0.11712,-0.16592,-0.13176,-0.0976,0.01464,0.0976,0.0244,-0.10248,-0.10736,-0.08296,-0.07808
-0.07808,0.11712,-0.15616,-0.11712,-0.07808,0,0.0976,0.02928,-0.10736,-0.10248,-0.0732,-0.07808
-0.07808,0.11956,-0.16104,-0.122,-0.08296,0.00244,0.10248,0.03416,-0.10736,-0.10248,-0.0732,-0.08296
-0.06832,0.12688,-0.18544,-0.15128,-0.11712,0.0244,0.11712,0.0488,-0.0976,-0.11712,-0.09272,-0.09272
-0.07808,0.14396,-0.20984,-0.1708,-0.13176,0.02684,0.13176,0.08296,-0.05856,-0.10736,-0.0976,-0.11224
-0.10736,0.16836,-0.22936,-0.17568,-0.122,0.00732,0.15128,0.11224,0.01464,-0.05856,-0.09272,-0.12688
-0.11224,0.16104,-0.20984,-0.15372,-0.0976,-0.00732,0.16592,0.15128,0.13176,0.03416,-0.03416,-0.08784
-0.0488,0.08296,-0.11712,-0.09272,-0.06832,0.00976,0.13176,0.16592,0.25376,0.17568,0.10736,0.01952
0.0976,-0.05612,0.01464,-0.03416,-0.08296,0.09028,0.03904,0.1952,0.366,0.38064,0.33184,0.1952
0.33672,-0.26108,0.18544,0.01708,-0.15128,0.244,-0.11224,0.23424,0.46848,0.63928,0.64416,0.45872
0.62952,-0.49776,0.366,0.05124,-0.26352,0.44652,-0.30256,0.25376,0.52216,0.8784,0.98576,0.7564
0.88328,-0.71248,0.54168,0.10004,-0.3416,0.61244,-0.50264,0.25864,0.4636,1.00528,1.25904,1.0248
1.03944,-0.854,0.66856,0.14884,-0.37088,0.70516,-0.66368,0.16104,0.23912,0.92232,1.31272,1.12728
1.0248,-0.87596,0.72712,0.21472,-0.29768,0.66124,-0.76128,-0.03904,-0.13664,0.61488,1.1224,1.06872
0.84912,-0.76616,0.6832,0.25864,-0.16592,0.50752,-0.74664,-0.30744,-0.5856,0.15128,0.73688,0.84424
0.60512,-0.58316,0.5612,0.25864,-0.04392,0.32452,-0.64904,-0.50752,-0.90768,-0.244,0.33672,0.55632
0.38552,-0.3904,0.39528,0.20252,0.00976,0.18788,-0.51728,-0.5856,-1.03456,-0.48312,0.03904,0.32208
0.25376,-0.2562,0.25864,0.13176,0.00488,0.12444,-0.38064,-0.51728,-0.94184,-0.53192,-0.08784,0.17568
0.16104,-0.13908,0.11712,0.0366,-0.04392,0.10248,-0.26352,-0.37088,-0.74664,-0.4636,-0.13176,0.0732
0.07808,-0.05368,0.02928,-0.00976,-0.0488,0.06344,-0.15128,-0.26352,-0.55144,-0.37576,-0.14152,0.00488
0.00976,0.01464,-0.03904,-0.04392,-0.0488,0.02928,-0.0732,-0.17568,-0.40992,-0.31232,-0.1464,-0.05368
-0.05856,0.07564,-0.09272,-0.06344,-0.03416,-0.0122,0,-0.10248,-0.31232,-0.25376,-0.15128,-0.09272
-0.08784,0.0976,-0.10736,-0.06344,-0.01952,-0.03416,0.03904,-0.06832,-0.25376,-0.22936,-0.15128,-0.11712
-0.10248,0.11468,-0.12688,-0.07564,-0.0244,-0.03904,0.06344,-0.03904,-0.20984,-0.20008,-0.1464,-0.12688
-0.11224,0.13176,-0.15128,-0.09516,-0.03904,-0.0366,0.09272,-0.00488,-0.16592,-0.18056,-0.14152,-0.12688
-0.0976,0.12932,-0.16104,-0.11224,-0.06344,-0.01708,0.0976,0.00976,-0.15128,-0.1708,-0.14152,-0.13176
-0.08784,0.12932,-0.1708,-0.12688,-0.08296,-0.00244,0.11224,0.01464,-0.12688,-0.16104,-0.14152,-0.14152
-0.08784,0.12932,-0.1708,-0.12688,-0.08296,-0.00244,0.11712,0.0244,-0.11224,-0.15128,-0.13664,-0.14152
-0.09272,0.12688,-0.16104,-0.11468,-0.06832,-0.0122,0.10736,0.02928,-0.11224,-0.1464,-0.13664,-0.13176
-0.09272,0.12932,-0.16592,-0.11956,-0.0732,-0.00976,0.10736,0.02928,-0.10736,-0.1464,-0.13176,-0.13176
-0.09272,0.12932,-0.16592,-0.11956,-0.0732,-0.00976,0.10736,0.04392,-0.09272,-0.13176,-0.122,-0.122
-0.0976,0.1342,-0.1708,-0.122,-0.0732,-0.0122,0.11712,0.05368,-0.08296,-0.122,-0.11712,-0.122
-0.10736,0.14152,-0.17568,-0.122,-0.06832,-0.01952,0.11712,0.04392,-0.07808,-0.122,-0.0976,-0.11712
-0.10248,0.13908,-0.17568,-0.12444,-0.0732,-0.01464,0.11712,0.04392,-0.07808,-0.122,-0.0976,-0.11712
-0.10736,0.1464,-0.18544,-0.13176,-0.07808,-0.01464,0.10736,0.04392,-0.0732,-0.122,-0.0976,-0.122
-0.10248,0.14396,-0.18544,-0.1342,-0.08296,-0.00976,0.10248,0.0488,-0.0732,-0.11712,-0.0976,-0.122
-0.0976,0.13664,-0.17568,-0.12688,-0.07808,-0.00976,0.10736,0.0488,-0.0732,-0.11712,-0.0976,-0.11224
-0.08296,0.12444,-0.16592,-0.12444,-0.08296,0,0.10736,0.0488,-0.06832,-0.11224,-0.09272,-0.11224
-0.08296,0.12688,-0.1708,-0.12932,-0.08784,0.00244,0.10248,0.03904,-0.07808,-0.122,-0.0976,-0.122
-0.09272,0.12932,-0.16592,-0.11956,-0.0732,-0.00976,0.10248,0.03904,-0.07808,-0.11712,-0.10736,-0.122
-0.10248,0.1342,-0.16592,-0.11468,-0.06344,-0.01952,0.0976,0.03904,-0.06832,-0.11712,-0.11224,-0.122
-0.11224,0.13908,-0.16592,-0.1098,-0.05368,-0.02928,0.0976,0.03904,-0.06832,-0.11224,-0.11224,-0.122
-0.11224,0.12932,-0.1464,-0.09028,-0.03416,-0.03904,0.0976,0.03904,-0.06344,-0.11224,-0.11224,-0.122
-0.10248,0.122,-0.14152,-0.09028,-0.03904,-0.03172,0.09272,0.03904,-0.06344,-0.11224,-0.11224,-0.11712
-0.09272,0.122,-0.15128,-0.10492,-0.05856,-0.01708,0.09272,0.04392,-0.05856,-0.11224,-0.11224,-0.122
-0.09272,0.11956,-0.1464,-0.10004,-0.05368,-0.01952,0.09272,0.04392,-0.05368,-0.10736,-0.11224,-0.122
-0.0976,0.122,-0.1464,-0.0976,-0.0488,-0.0244,0.0976,0.05368,-0.05368,-0.10736,-0.10248,-0.11224
-0.09272,0.11956,-0.1464,-0.10004,-0.05368,-0.01952,0.0976,0.05368,-0.04392,-0.10248,-0.10248,-0.11224
-0.08784,0.1098,-0.13176,-0.08784,-0.04392,-0.02196,0.08784,0.04392,-0.05368,-0.10248,-0.11224,-0.11224
-0.0732,0.0976,-0.122,-0.0854,-0.0488,-0.0122,0.08784,0.04392,-0.05368,-0.0976,-0.10736,-0.11224
-0.08296,0.10004,-0.11712,-0.07564,-0.03416,-0.0244,0.0976,0.0488,-0.04392,-0.09272,-0.10248,-0.10736
-0.08296,0.0976,-0.11224,-0.07076,-0.02928,-0.02684,0.0976,0.05368,-0.03416,-0.08784,-0.10248,-0.10736
-0.08784,0.10492,-0.122,-0.07808,-0.03416,-0.02684,0.0976,0.05856,-0.0244,-0.07808,-0.08784,-0.09272
-0.08784,0.10492,-0.122,-0.07808,-0.03416,-0.02684,0.0976,0.05856,-0.00976,-0.0732,-0.08784,-0.09272
-0.07808,0.09028,-0.10248,-0.06344,-0.0244,-0.02684,0.0976,0.06832,0.00488,-0.06344,-0.07808,-0.07808
-0.0732,0.0854,-0.0976,-0.061,-0.0244,-0.0244,0.09272,0.0732,0.01464,-0.05856,-0.07808,-0.0732
-0.07808,0.09028,-0.10248,-0.06344,-0.0244,-0.02684,0.07808,0.07808,0.0244,-0.0488,-0.06832,-0.08296
-0.0732,0.08784,-0.10248,-0.06588,-0.02928,-0.02196,0.0732,0.07808,0.03904,-0.04392,-0.06344,-0.07808
-0.08296,0.0854,-0.08784,-0.04636,-0.00488,-0.03904,0.0732,0.08296,0.0488,-0.02928,-0.05368,-0.0732
-0.07808,0.08296,-0.08784,-0.0488,-0.00976,-0.03416,0.0732,0.08296,0.05856,-0.01952,-0.0488,-0.06832
-0.0732,0.07564,-0.07808,-0.04148,-0.00488,-0.03416,0.06832,0.09272,0.06832,-0.00488,-0.05368,-0.06832
-0.06344,0.06344,-0.06344,-0.03172,0,-0.03172,0.06832,0.10248,0.09272,0.00976,-0.03904,-0.05856
-0.0488,0.05368,-0.05856,-0.03416,-0.00976,-0.01952,0.07808,0.11224,0.09272,0.01464,-0.0244,-0.0488
-0.0488,0.05124,-0.05368,-0.02928,-0.00488,-0.02196,0.0732,0.11224,0.11224,0.02928,-0.00976,-0.03904
-0.04392,0.04392,-0.04392,-0.02196,0,-0.02196,0.07808,0.11224,0.122,0.04392,0,-0.01952
-0.03416,0.02928,-0.0244,-0.00732,0.00976,-0.02196,0.06832,0.11712,0.14152,0.05856,0.00976,-0.01464
-0.03416,0.01952,-0.00488,0.0122,0.02928,-0.03172,0.05856,0.122,0.1708,0.0732,0.02928,-0.00488
-0.0244,0.00244,0.01952,0.03172,0.04392,-0.03416,0.0488,0.122,0.18056,0.09272,0.04392,0.00976
-0.0244,0,0.0244,0.0366,0.0488,-0.0366,0.03904,0.13176,0.1952,0.10248,0.05368,0.00976
-0.00976,-0.00732,0.0244,0.02928,0.03416,-0.02196,0.03904,0.13664,0.20496,0.11712,0.06344,0.0244
-0.00488,-0.01708,0.03904,0.04148,0.04392,-0.0244,0.03416,0.14152,0.20984,0.122,0.07808,0.04392
0,-0.0244,0.0488,0.0488,0.0488,-0.0244,0.0244,0.14152,0.2196,0.13176,0.09272,0.05368
0.00976,-0.02928,0.0488,0.04392,0.03904,-0.01464,0.00976,0.13176,0.22448,0.1464,0.10248,0.06344
0.00976,-0.03416,0.05856,0.05368,0.0488,-0.01952,0.00488,0.13176,0.22936,0.1464,0.10736,0.0732
0.00976,-0.03904,0.06832,0.06344,0.05856,-0.0244,0.00488,0.12688,0.2196,0.15128,0.11224,0.0732
0.01464,-0.04392,0.0732,0.06588,0.05856,-0.02196,-0.00976,0.11712,0.2196,0.15128,0.11712,0.07808
0.0244,-0.05368,0.08296,0.07076,0.05856,-0.01708,-0.01952,0.10248,0.20984,0.14152,0.11224,0.0732
0.0244,-0.061,0.0976,0.0854,0.0732,-0.0244,-0.01952,0.0976,0.20008,0.14152,0.10736,0.0732
0.0244,-0.06344,0.10248,0.09028,0.07808,-0.02684,-0.0244,0.0976,0.19032,0.13176,0.10736,0.0732
0.02928,-0.06588,0.10248,0.08784,0.0732,-0.02196,-0.0244,0.08784,0.1708,0.122,0.10736,0.0732
0.01952,-0.05612,0.09272,0.08296,0.0732,-0.02684,-0.02928,0.0732,0.15616,0.11224,0.09272,0.0732
0.01464,-0.04636,0.07808,0.07076,0.06344,-0.0244,-0.02928,0.06832,0.13664,0.10248,0.08784,0.06344
0.01464,-0.03416,0.05368,0.04636,0.03904,-0.0122,-0.02928,0.05856,0.11712,0.07808,0.06832,0.05368
0.00976,-0.02196,0.03416,0.02928,0.0244,-0.00732,-0.0244,0.0488,0.0976,0.06344,0.05368,0.03904
-0.00976,0,0.00976,0.01464,0.01952,-0.01464,0,0.03904,0.06832,0.04392,0.03416,0.0244
-0.01464,0.00976,-0.00488,0.00244,0.00976,-0.0122,0.00976,0.02928,0.0488,0.02928,0.0244,0.01464
-0.0244,0.01952,-0.01464,-0.00244,0.00976,-0.01708,0.01464,0.03416,0.03416,0.01952,0.01952,0.00976
-0.03416,0.03416,-0.03416,-0.01708,0,-0.01708,0.01952,0.02928,0.01464,0,0,0
-0.02928,0.0366,-0.04392,-0.02928,-0.01464,-0.00732,0.0244,0.0244,-0.00488,-0.01464,-0.00976,-0.00488
-0.03904,0.04392,-0.0488,-0.02928,-0.00976,-0.01464,0.0244,0.0244,-0.01464,-0.03416,-0.0244,-0.01952
-0.04392,0.04636,-0.0488,-0.02684,-0.00488,-0.01952,0.03416,0.01464,-0.02928,-0.04392,-0.02928,-0.02928
-0.03904,0.05124,-0.06344,-0.04392,-0.0244,-0.00732,0.04392,0.00976,-0.03904,-0.05368,-0.03904,-0.03416
-0.05368,0.06832,-0.08296,-0.05612,-0.02928,-0.0122,0.0488,0.01952,-0.03904,-0.05856,-0.05368,-0.04392
-0.05856,0.0732,-0.08784,-0.05856,-0.02928,-0.01464,0.05368,0.01952,-0.04392,-0.06832,-0.06344,-0.04392
-0.0732,0.08296,-0.09272,-0.05612,-0.01952,-0.02684,0.04392,0.01952,-0.06344,-0.0732,-0.07808,-0.05856
-0.08296,0.08784,-0.09272,-0.05124,-0.00976,-0.0366,0.04392,0.01464,-0.06832,-0.07808,-0.07808,-0.06344
-0.07808,0.07808,-0.07808,-0.03904,0,-0.03904,0.04392,0.01464,-0.06344,-0.08296,-0.07808,-0.06344
-0.08296,0.08296,-0.08296,-0.04148,0,-0.04148,0.04392,0.01464,-0.06832,-0.08296,-0.07808,-0.06344
-0.0732,0.08296,-0.09272,-0.05612,-0.01952,-0.02684,0.04392,0.00976,-0.06832,-0.07808,-0.0732,-0.05856
-0.05368,0.0732,-0.09272,-0.06588,-0.03904,-0.00732,0.04392,0.00976,-0.06832,-0.07808,-0.0732,-0.05856
-0.0488,0.06832,-0.08784,-0.06344,-0.03904,-0.00488,0.04392,0,-0.08296,-0.08296,-0.07808,-0.0732
-0.05856,0.06832,-0.07808,-0.0488,-0.01952,-0.01952,0.04392,-0.00976,-0.08296,-0.09272,-0.08784,-0.0732
-0.07808,0.07808,-0.07808,-0.03904,0,-0.03904,0.04392,-0.01464,-0.08296,-0.0976,-0.09272,-0.08296
-0.08784,0.08296,-0.07808,-0.03416,0.00976,-0.0488,0.04392,-0.01464,-0.08296,-0.0976,-0.0976,-0.08296
-0.08784,0.08052,-0.0732,-0.02928,0.01464,-0.05124,0.04392,0,-0.0732,-0.09272,-0.09272,-0.0732
-0.08784,0.08052,-0.0732,-0.02928,0.01464,-0.05124,0.04392,-0.00488,-0.06832,-0.0976,-0.09272,-0.0732
-0.07808,0.08052,-0.08296,-0.04392,-0.00488,-0.0366,0.04392,0.00488,-0.06832,-0.08296,-0.08296,-0.06344
-0.07808,0.08052,-0.08296,-0.04392,-0.00488,-0.0366,0.0488,0.00488,-0.06832,-0.07808,-0.07808,-0.06344
-0.06832,0.0732,-0.07808,-0.04392,-0.00976,-0.02928,0.03904,0.00976,-0.06344,-0.0732,-0.0732,-0.05856
-0.06344,0.06344,-0.06344,-0.03172,0,-0.03172,0.03904,0.00976,-0.05856,-0.0732,-0.0732,-0.05856
-0.0732,0.07076,-0.06832,-0.03172,0.00488,-0.03904,0.03904,0.00976,-0.06832,-0.07808,-0.08296,-0.06344
-0.0732,0.07564,-0.07808,-0.04148,-0.00488,-0.03416,0.0488,0.00976,-0.06832,-0.08296,-0.08296,-0.06344
-0.0732,0.0854,-0.0976,-0.061,-0.0244,-0.0244,0.06344,0.01952,-0.06832,-0.0976,-0.08296,-0.05368
-0.0732,0.08052,-0.08784,-0.05124,-0.01464,-0.02928,0.05856,0.01952,-0.05856,-0.08784,-0.08296,-0.05368
-0.07808,0.08052,-0.08296,-0.04392,-0.00488,-0.0366,0.0488,0.00976,-0.05856,-0.06832,-0.07808,-0.0488
-0.07808,0.07564,-0.0732,-0.03416,0.00488,-0.04148,0.0488,0.00976,-0.05856,-0.06832,-0.07808,-0.0488
-0.06832,0.05856,-0.0488,-0.01464,0.01952,-0.04392,0.03904,0.00976,-0.04392,-0.06832,-0.06344,-0.0488
-0.05368,0.04148,-0.02928,-0.00244,0.0244,-0.03904,0.0244,0.00488,-0.03416,-0.05368,-0.05368,-0.03904
-0.0488,0.03416,-0.01952,0.00488,0.02928,-0.03904,0.00976,0.00488,-0.0244,-0.0488,-0.05368,-0.02928
-0.0244,0.01708,-0.00976,0.00244,0.01464,-0.01952,0.00976,0.00976,-0.00976,-0.03904,-0.03904,-0.0244
-0.01952,0.0122,-0.00488,0.00488,0.01464,-0.01708,0.00976,0.00976,0.00976,-0.0244,-0.02928,-0.01464
-0.01952,0.00732,0.00488,0.01464,0.0244,-0.02196,0.00976,0.00976,0.01952,-0.00976,-0.01952,0
-0.01464,-0.00488,0.0244,0.03172,0.03904,-0.02684,0,0.00488,0.01952,0.00488,-0.01464,0
-0.00976,-0.01464,0.03904,0.04392,0.0488,-0.02928,-0.01464,-0.00488,0.02928,0.01464,-0.00488,0.00976
0.00488,-0.0366,0.06832,0.06588,0.06344,-0.02928,-0.03416,-0.01952,0.02928,0.00976,0,0.01952
0.01464,-0.0488,0.08296,0.07564,0.06832,-0.02684,-0.05856,-0.03904,0.02928,0.01952,0.00976,0.02928
0.01464,-0.05368,0.09272,0.0854,0.07808,-0.03172,-0.06344,-0.04392,0.01464,0.02928,0.0244,0.03416
0.0244,-0.06344,0.10248,0.09028,0.07808,-0.02684,-0.06832,-0.04392,0.00976,0.0244,0.0244,0.03416
0.03416,-0.06588,0.0976,0.08052,0.06344,-0.01464,-0.06832,-0.04392,-0.01464,0.01464,0.01464,0.03416
0.03904,-0.06588,0.09272,0.0732,0.05368,-0.00732,-0.06832,-0.04392,-0.0244,0.00976,0.01464,0.03416
0.04392,-0.07076,0.0976,0.07564,0.05368,-0.00488,-0.06344,-0.03904,-0.02928,0.01464,0.00976,0.03416
0.04392,-0.06588,0.08784,0.06588,0.04392,0,-0.05368,-0.03904,-0.03904,0.00488,0.00976,0.03416
0.02928,-0.0488,0.06832,0.05368,0.03904,-0.00488,-0.05368,-0.03416,-0.03416,-0.00488,0.00976,0.03416
0.01952,-0.03416,0.0488,0.03904,0.02928,-0.00488,-0.04392,-0.03416,-0.0488,-0.01464,0.00488,0.02928
0.00488,-0.01952,0.03416,0.03172,0.02928,-0.0122,-0.03416,-0.01952,-0.05856,-0.0244,0,0.01952
-0.00488,-0.00488,0.01464,0.01708,0.01952,-0.0122,-0.01952,-0.01952,-0.06832,-0.03416,-0.00976,0.00976
-0.00976,0.00976,-0.00976,-0.00488,0,-0.00488,0.00488,-0.01464,-0.07808,-0.04392,-0.02928,-0.01464
-0.03416,0.03904,-0.04392,-0.02684,-0.00976,-0.0122,0.0244,-0.00488,-0.08784,-0.05368,-0.03904,-0.02928
-0.05856,0.06588,-0.0732,-0.04392,-0.01464,-0.02196,0.03416,-0.00488,-0.09272,-0.07808,-0.06832,-0.03904
-0.06344,0.07564,-0.08784,-0.05612,-0.0244,-0.01952,0.04392,0,-0.11224,-0.08296,-0.0732,-0.05856
-0.06344,0.07808,-0.09272,-0.061,-0.02928,-0.01708,0.05368,0,-0.11712,-0.09272,-0.08296,-0.0732
-0.06344,0.08296,-0.10248,-0.07076,-0.03904,-0.0122,0.05856,0.00488,-0.122,-0.10248,-0.09272,-0.08296
-0.06344,0.09516,-0.12688,-0.09516,-0.06344,0,0.06832,0.00488,-0.12688,-0.11712,-0.0976,-0.08784
-0.06344,0.0976,-0.13176,-0.10004,-0.06832,0.00244,0.0732,0.00488,-0.12688,-0.11712,-0.0976,-0.08784
-0.07808,0.10492,-0.13176,-0.09272,-0.05368,-0.0122,0.08784,0.00488,-0.12688,-0.11712,-0.0976,-0.07808
-0.07808,0.10736,-0.13664,-0.0976,-0.05856,-0.00976,0.08784,0.00488,-0.13176,-0.122,-0.10248,-0.08296
-0.07808,0.1098,-0.14152,-0.10248,-0.06344,-0.00732,0.08296,0.00976,-0.14152,-0.122,-0.09272,-0.07808
-0.07808,0.11468,-0.15128,-0.11224,-0.0732,-0.00244,0.08784,0.00976,-0.14152,-0.122,-0.0976,-0.07808
-0.08296,0.11956,-0.15616,-0.11468,-0.0732,-0.00488,0.08784,0.00976,-0.14152,-0.13176,-0.10248,-0.08784
-0.08296,0.11956,-0.15616,-0.11468,-0.0732,-0.00488,0.08784,0.00976,-0.14152,-0.13176,-0.10248,-0.08784
-0.08296,0.11956,-0.15616,-0.11468,-0.0732,-0.00488,0.10248,0.01464,-0.14152,-0.12688,-0.0976,-0.08784
-0.08296,0.122,-0.16104,-0.11956,-0.07808,-0.00244,0.10248,0.01464,-0.13664,-0.12688,-0.0976,-0.08784
-0.09272,0.122,-0.15128,-0.10492,-0.05856,-0.01708,0.10248,0.00488,-0.13176,-0.12688,-0.0976,-0.08784
-0.09272,0.12444,-0.15616,-0.1098,-0.06344,-0.01464,0.0976,0.00488,-0.13176,-0.12688,-0.10248,-0.08784
-0.08784,0.122,-0.15616,-0.11224,-0.06832,-0.00976,0.08784,0,-0.14152,-0.12688,-0.11224,-0.0976
-0.08784,0.12444,-0.16104,-0.11712,-0.0732,-0.00732,0.08784,0.00488,-0.13664,-0.122,-0.11224,-0.10248
-0.06832,0.122,-0.17568,-0.14152,-0.10736,0.01952,0.09272,0.01464,-0.13664,-0.13176,-0.122,-0.10736
-0.0732,0.13176,-0.19032,-0.15372,-0.11712,0.02196,0.122,0.04392,-0.10736,-0.12688,-0.122,-0.11712
-0.0732,0.14152,-0.20984,-0.17324,-0.13664,0.03172,0.14152,0.07808,-0.05368,-0.0976,-0.12688,-0.12688
-0.08296,0.13664,-0.19032,-0.14884,-0.10736,0.0122,0.15128,0.10736,0.04392,-0.03904,-0.09272,-0.11712
-0.06344,0.10004,-0.13664,-0.10492,-0.0732,0.00488,0.13664,0.11712,0.16104,0.10736,0.0244,-0.04392
0.02928,0,-0.02928,-0.04392,-0.05856,0.04392,0.05856,0.12688,0.2928,0.30744,0.22448,0.10248
0.20984,-0.1708,0.13176,0.02684,-0.07808,0.14396,-0.06832,0.15616,0.40504,0.56608,0.51728,0.35136
0.45872,-0.39528,0.33184,0.10248,-0.12688,0.2928,-0.244,0.1708,0.49288,0.84912,0.88328,0.66368
0.732,-0.63196,0.53192,0.16592,-0.20008,0.46604,-0.43432,0.18544,0.50752,1.0736,1.23464,0.97112
0.93696,-0.81496,0.69296,0.22448,-0.244,0.59048,-0.60512,0.14152,0.36112,1.09312,1.39568,1.16144
1.0004,-0.88572,0.77104,0.27084,-0.22936,0.61488,-0.72712,0.00976,0.04392,0.86864,1.3176,1.17608
0.89304,-0.81984,0.74664,0.30012,-0.1464,0.51972,-0.74664,-0.22448,-0.39528,0.42944,0.976,1.00528
0.67344,-0.65636,0.63928,0.30256,-0.03416,0.3538,-0.67344,-0.43432,-0.80032,-0.05368,0.55144,0.72224
0.44408,-0.46116,0.47824,0.2562,0.03416,0.20496,-0.55144,-0.55144,-1.01016,-0.37576,0.19032,0.4636
0.27328,-0.30256,0.33184,0.1952,0.05856,0.10736,-0.41968,-0.54656,-1.01504,-0.5124,-0.01952,0.2684
0.15616,-0.16348,0.1708,0.09272,0.01464,0.07076,-0.28304,-0.42944,-0.86376,-0.50264,-0.11224,0.13176
0.07808,-0.07076,0.06344,0.0244,-0.01464,0.04636,-0.16592,-0.29768,-0.67344,-0.43432,-0.15128,0.04392
0.00976,0.00976,-0.02928,-0.03416,-0.03904,0.0244,-0.08784,-0.21472,-0.52216,-0.37088,-0.17568,-0.04392
-0.04392,0.06588,-0.08784,-0.06588,-0.04392,0,-0.01464,-0.1464,-0.4148,-0.3172,-0.18544,-0.09272
-0.06832,0.09028,-0.11224,-0.07808,-0.04392,-0.0122,0.0244,-0.10736,-0.33672,-0.27328,-0.19032,-0.12688
-0.07808,0.11224,-0.1464,-0.10736,-0.06832,-0.00488,0.05368,-0.07808,-0.27328,-0.23424,-0.17568,-0.13664
-0.08296,0.12932,-0.17568,-0.1342,-0.09272,0.00488,0.07808,-0.05368,-0.23424,-0.20496,-0.16592,-0.13664
-0.08784,0.13908,-0.19032,-0.1464,-0.10248,0.00732,0.09272,-0.02928,-0.1952,-0.18056,-0.16592,-0.14152
-0.08784,0.13176,-0.17568,-0.13176,-0.08784,0,0.0976,-0.0244,-0.1708,-0.1708,-0.15128,-0.14152
-0.0976,0.1342,-0.1708,-0.122,-0.0732,-0.0122,0.10736,-0.00976,-0.15616,-0.15616,-0.1464,-0.14152
-0.0976,0.12932,-0.16104,-0.11224,-0.06344,-0.01708,0.10736,0,-0.1464,-0.1464,-0.1464,-0.14152
-0.10248,0.13664,-0.1708,-0.11956,-0.06832,-0.01708,0.10736,0,-0.13664,-0.1464,-0.13176,-0.13176
-0.10248,0.13908,-0.17568,-0.12444,-0.0732,-0.01464,0.10736,0,-0.13176,-0.14152,-0.13176,-0.13176
-0.09272,0.13664,-0.18056,-0.1342,-0.08784,-0.00244,0.11224,0.00976,-0.12688,-0.14152,-0.12688,-0.13176
-0.0976,0.13664,-0.17568,-0.12688,-0.07808,-0.00976,0.11712,0.01464,-0.122,-0.13176,-0.12688,-0.12688
-0.0976,0.13664,-0.17568,-0.12688,-0.07808,-0.00976,0.11712,0.01464,-0.12688,-0.13176,-0.12688,-0.12688
-0.08784,0.13176,-0.17568,-0.13176,-0.08784,0,0.11712,0.01464,-0.122,-0.13176,-0.12688,-0.122
-0.0976,0.13664,-0.17568,-0.12688,-0.07808,-0.00976,0.11224,0.00976,-0.13176,-0.13176,-0.12688,-0.13176
-0.09272,0.1342,-0.17568,-0.12932,-0.08296,-0.00488,0.11224,0.00976,-0.13176,-0.12688,-0.12688,-0.13176
-0.10248,0.14152,-0.18056,-0.12932,-0.07808,-0.0122,0.11712,0.00976,-0.122,-0.12688,-0.11712,-0.122
-0.0976,0.13908,-0.18056,-0.13176,-0.08296,-0.00732,0.11712,0.00976,-0.10736,-0.122,-0.11224,-0.122
-0.08784,0.13176,-0.17568,-0.13176,-0.08784,0,0.11224,0.01952,-0.10736,-0.122,-0.11224,-0.122
-0.08784,0.13176,-0.17568,-0.13176,-0.08784,0,0.10736,0.01952,-0.10736,-0.11712,-0.11224,-0.122
-0.08784,0.12688,-0.16592,-0.122,-0.07808,-0.00488,0.10736,0.01952,-0.0976,-0.122,-0.11224,-0.122
-0.08784,0.11712,-0.1464,-0.10248,-0.05856,-0.01464,0.10736,0.01952,-0.09272,-0.122,-0.11224,-0.122
-0.07808,0.11468,-0.15128,-0.11224,-0.0732,-0.00244,0.10248,0.00976,-0.09272,-0.11224,-0.11224,-0.10736
-0.0732,0.11712,-0.16104,-0.12444,-0.08784,0.00732,0.10248,0.00976,-0.08784,-0.11224,-0.11224,-0.10736
-0.0732,0.11712,-0.16104,-0.12444,-0.08784,0.00732,0.09272,0.01464,-0.0976,-0.10736,-0.10248,-0.11224
-0.06832,0.11224,-0.15616,-0.122,-0.08784,0.00976,0.09272,0.01464,-0.09272,-0.10736,-0.10248,-0.11224
-0.07808,0.11224,-0.1464,-0.10736,-0.06832,-0.00488,0.0976,0.00488,-0.08784,-0.10248,-0.11224,-0.11224
-0.0732,0.10004,-0.12688,-0.09028,-0.05368,-0.00976,0.0976,0.00488,-0.08296,-0.10248,-0.11224,-0.11224
-0.07808,0.10248,-0.12688,-0.08784,-0.0488,-0.01464,0.0976,0.01464,-0.08296,-0.0976,-0.10736,-0.10248
-0.08296,0.10492,-0.12688,-0.0854,-0.04392,-0.01952,0.0976,0.01464,-0.0732,-0.09272,-0.10736,-0.10248
-0.0732,0.0976,-0.122,-0.0854,-0.0488,-0.0122,0.0976,0.00976,-0.06832,-0.08784,-0.10248,-0.10736
-0.0732,0.0976,-0.122,-0.0854,-0.0488,-0.0122,0.0976,0.01464,-0.06344,-0.07808,-0.0976,-0.10736
-0.07808,0.10492,-0.13176,-0.09272,-0.05368,-0.0122,0.0976,0.01952,-0.04392,-0.07808,-0.08784,-0.10248
-0.07808,0.10492,-0.13176,-0.09272,-0.05368,-0.0122,0.0976,0.01952,-0.03904,-0.06832,-0.07808,-0.0976
-0.08296,0.10492,-0.12688,-0.0854,-0.04392,-0.01952,0.10248,0.03416,-0.01952,-0.0488,-0.06832,-0.08296
-0.08296,0.10492,-0.12688,-0.0854,-0.04392,-0.01952,0.0976,0.03416,-0.00976,-0.04392,-0.06344,-0.08296
-0.07808,0.09028,-0.10248,-0.06344,-0.0244,-0.02684,0.0976,0.03904,-0.00976,-0.0488,-0.06832,-0.08784
-0.0732,0.0854,-0.0976,-0.061,-0.0244,-0.0244,0.09272,0.0488,0.00488,-0.0488,-0.05856,-0.08296
-0.05856,0.07808,-0.0976,-0.06832,-0.03904,-0.00976,0.08296,0.04392,0.01464,-0.04392,-0.05368,-0.07808
-0.05856,0.08296,-0.10736,-0.07808,-0.0488,-0.00488,0.07808,0.05368,0.0244,-0.03416,-0.04392,-0.0732
-0.0488,0.06832,-0.08784,-0.06344,-0.03904,-0.00488,0.07808,0.0488,0.0488,-0.00976,-0.03416,-0.06344
-0.04392,0.06344,-0.08296,-0.061,-0.03904,-0.00244,0.07808,0.05368,0.06344,0.00488,-0.01952,-0.05368
-0.03904,0.0488,-0.05856,-0.03904,-0.01952,-0.00976,0.06344,0.06344,0.08296,0.00976,-0.01952,-0.05368
-0.03416,0.03416,-0.03416,-0.01708,0,-0.01708,0.05856,0.06344,0.10248,0.02928,-0.00488,-0.04392
-0.03416,0.02928,-0.0244,-0.00732,0.00976,-0.02196,0.06344,0.07808,0.122,0.0488,0.01464,-0.02928
-0.04392,0.02928,-0.01464,0.00732,0.02928,-0.0366,0.05856,0.08784,0.13176,0.06344,0.03904,-0.00976
-0.03904,0.02928,-0.01952,0,0.01952,-0.02928,0.05856,0.10248,0.16104,0.08784,0.05856,0.00976
-0.02928,0.01464,0,0.01464,0.02928,-0.02928,0.04392,0.10248,0.1708,0.11224,0.07808,0.0244
-0.00488,-0.00488,0.01464,0.01708,0.01952,-0.0122,0.03904,0.10736,0.18056,0.11712,0.08784,0.02928
0.01464,-0.01952,0.0244,0.01708,0.00976,0.00244,0.03416,0.0976,0.19032,0.13176,0.10248,0.03904
0.01952,-0.03172,0.04392,0.03416,0.0244,-0.00244,0.02928,0.10248,0.1952,0.13664,0.10248,0.03904
0.01952,-0.0366,0.05368,0.04392,0.03416,-0.00732,0.0244,0.10248,0.20496,0.13664,0.10736,0.0488
0.01952,-0.04148,0.06344,0.05368,0.04392,-0.0122,0.00976,0.10248,0.20496,0.13664,0.10736,0.0488
0.01952,-0.04636,0.0732,0.06344,0.05368,-0.01708,0.00488,0.0976,0.20984,0.14152,0.11224,0.05368
0.01464,-0.03904,0.06344,0.05612,0.0488,-0.01708,0.00488,0.08784,0.20984,0.14152,0.122,0.06344
0.01464,-0.0366,0.05856,0.05124,0.04392,-0.01464,-0.00488,0.08296,0.20984,0.14152,0.12688,0.06832
0.00488,-0.03416,0.06344,0.061,0.05856,-0.02684,-0.00976,0.0732,0.1952,0.15128,0.13176,0.0732
0.00488,-0.03172,0.05856,0.05612,0.05368,-0.0244,-0.01464,0.06344,0.18544,0.15128,0.13176,0.0732
0.01464,-0.03416,0.05368,0.04636,0.03904,-0.0122,-0.01464,0.06344,0.16592,0.13664,0.12688,0.0732
0.02928,-0.04148,0.05368,0.03904,0.0244,0.00244,-0.01952,0.0488,0.15128,0.12688,0.11712,0.0732
0.01952,-0.03416,0.0488,0.03904,0.02928,-0.00488,-0.00976,0.04392,0.12688,0.10736,0.11224,0.06344
0.01464,-0.0244,0.03416,0.02684,0.01952,-0.00244,-0.00976,0.03416,0.10736,0.08784,0.10248,0.0488
0.01464,-0.02196,0.02928,0.02196,0.01464,0,-0.01464,0.0244,0.07808,0.08296,0.09272,0.04392
0.00488,-0.00732,0.00976,0.00732,0.00488,0,-0.00488,0.01464,0.05856,0.06344,0.0732,0.03416
0.00976,0,-0.00976,-0.01464,-0.01952,0.01464,0.00488,0.01464,0.03904,0.03416,0.06832,0.02928
0.00488,0.00976,-0.0244,-0.02684,-0.02928,0.01708,0.00976,0.00976,0.01952,0.01952,0.05856,0.01952
-0.00976,0.02684,-0.04392,-0.03904,-0.03416,0.0122,0.0244,0,-0.00488,-0.00976,0.02928,-0.00488
-0.01464,0.03904,-0.06344,-0.05612,-0.0488,0.01708,0.03416,-0.00488,-0.02928,-0.02928,0.00488,-0.0244
-0.01464,0.03904,-0.06344,-0.05612,-0.0488,0.01708,0.03416,-0.00488,-0.03904,-0.0488,-0.00976,-0.0244
-0.01464,0.04148,-0.06832,-0.061,-0.05368,0.01952,0.04392,-0.01464,-0.05368,-0.05856,-0.02928,-0.03904
-0.03416,0.05368,-0.0732,-0.05612,-0.03904,0.00244,0.0488,-0.00488,-0.05368,-0.06832,-0.0244,-0.04392
-0.03904,0.06344,-0.08784,-0.06832,-0.0488,0.00488,0.05368,-0.00976,-0.06344,-0.07808,-0.03416,-0.0488
-0.05856,0.08296,-0.10736,-0.07808,-0.0488,-0.00488,0.05368,-0.01952,-0.0732,-0.07808,-0.03904,-0.06344
-0.05856,0.09028,-0.122,-0.09272,-0.06344,0.00244,0.05368,-0.01952,-0.07808,-0.09272,-0.04392,-0.06832
-0.05856,0.09516,-0.13176,-0.10248,-0.0732,0.00732,0.05368,-0.01952,-0.08296,-0.08784,-0.0488,-0.06344
-0.05856,0.09272,-0.12688,-0.0976,-0.06832,0.00488,0.05368,-0.0244,-0.09272,-0.09272,-0.0488,-0.06344
-0.0488,0.08052,-0.11224,-0.08784,-0.06344,0.00732,0.05368,-0.0244,-0.09272,-0.09272,-0.05856,-0.0732
-0.05368,0.07808,-0.10248,-0.07564,-0.0488,-0.00244,0.05368,-0.02928,-0.0976,-0.09272,-0.06344,-0.07808
-0.04392,0.07808,-0.11224,-0.09028,-0.06832,0.0122,0.05368,-0.01952,-0.0976,-0.0976,-0.06344,-0.06832
-0.04392,0.07808,-0.11224,-0.09028,-0.06832,0.0122,0.05368,-0.0244,-0.0976,-0.0976,-0.06344,-0.06832
-0.05368,0.08784,-0.122,-0.09516,-0.06832,0.00732,0.06344,-0.01464,-0.09272,-0.10736,-0.05368,-0.06344
-0.05368,0.09272,-0.13176,-0.10492,-0.07808,0.0122,0.06344,-0.01464,-0.09272,-0.10736,-0.05368,-0.06344
-0.04392,0.09028,-0.13664,-0.11468,-0.09272,0.0244,0.06344,-0.0244,-0.10248,-0.10736,-0.06344,-0.0732
-0.0488,0.09028,-0.13176,-0.10736,-0.08296,0.01708,0.06344,-0.01952,-0.10248,-0.11224,-0.06832,-0.0732
-0.03904,0.0854,-0.13176,-0.11224,-0.09272,0.02684,0.06344,-0.0244,-0.10248,-0.11712,-0.06344,-0.0732
-0.03904,0.0854,-0.13176,-0.11224,-0.09272,0.02684,0.06344,-0.0244,-0.0976,-0.11224,-0.06344,-0.0732
-0.0488,0.0854,-0.122,-0.0976,-0.0732,0.0122,0.06344,-0.0244,-0.0976,-0.11224,-0.05856,-0.0732
-0.0488,0.0854,-0.122,-0.0976,-0.0732,0.0122,0.06832,-0.01952,-0.09272,-0.10736,-0.05368,-0.06832
-0.05368,0.08784,-0.122,-0.09516,-0.06832,0.00732,0.06832,-0.01952,-0.09272,-0.10248,-0.05368,-0.06832
-0.05368,0.0854,-0.11712,-0.09028,-0.06344,0.00488,0.06344,-0.01952,-0.08784,-0.10248,-0.05368,-0.06832
-0.06344,0.09272,-0.122,-0.09028,-0.05856,-0.00244,0.06344,-0.01952,-0.08784,-0.0976,-0.05368,-0.0732
-0.0488,0.08296,-0.11712,-0.09272,-0.06832,0.00976,0.05856,-0.02928,-0.07808,-0.0976,-0.0488,-0.06832
-0.0488,0.08296,-0.11712,-0.09272,-0.06832,0.00976,0.05856,-0.02928,-0.07808,-0.0976,-0.0488,-0.06832
-0.0488,0.07564,-0.10248,-0.07808,-0.05368,0.00244,0.0488,-0.02928,-0.0732,-0.0976,-0.04392,-0.05856
-0.03416,0.06344,-0.09272,-0.07564,-0.05856,0.0122,0.03416,-0.03416,-0.06344,-0.08296,-0.03416,-0.0488
-0.04392,0.06588,-0.08784,-0.06588,-0.04392,0,0.02928,-0.0244,-0.04392,-0.05856,-0.01464,-0.02928
-0.02928,0.05368,-0.07808,-0.06344,-0.0488,0.00976,0.02928,-0.01952,-0.02928,-0.0488,0,-0.0244
-0.0244,0.03904,-0.05368,-0.04148,-0.02928,0.00244,0.02928,-0.00976,-0.01464,-0.02928,0.01464,-0.00976
-0.01464,0.02928,-0.04392,-0.0366,-0.02928,0.00732,0.02928,-0.00976,0.00488,-0.0244,0.01464,-0.00488
0.00488,0.00976,-0.0244,-0.02684,-0.02928,0.01708,0.01952,-0.00488,0.00976,-0.01464,0.0244,0.00976
0.00976,0,-0.00976,-0.01464,-0.01952,0.01464,0.00488,-0.01464,0.01952,-0.00488,0.03416,0.01952
0.01464,-0.0122,0.00976,0.00244,-0.00488,0.00976,-0.0244,-0.03904,0.01464,-0.00976,0.02928,0.0244
0.0244,-0.0244,0.0244,0.0122,0,0.0122,-0.0488,-0.05856,0.00488,0,0.03904,0.0244
0.03416,-0.03416,0.03416,0.01708,0,0.01708,-0.0732,-0.06344,-0.01464,-0.00976,0.03416,0.0244
0.04392,-0.04392,0.04392,0.02196,0,0.02196,-0.07808,-0.06344,-0.01952,-0.01464,0.03416,0.0244
0.05368,-0.0488,0.04392,0.01708,-0.00976,0.03172,-0.06832,-0.05368,-0.0244,-0.01464,0.03416,0.0244
0.05856,-0.05368,0.0488,0.01952,-0.00976,0.03416,-0.06832,-0.05368,-0.03416,-0.01952,0.03416,0.0244
0.05368,-0.05124,0.0488,0.02196,-0.00488,0.02928,-0.06344,-0.0488,-0.03904,-0.0244,0.03904,0.0244
0.05368,-0.04636,0.03904,0.0122,-0.01464,0.03416,-0.05368,-0.0488,-0.0488,-0.03416,0.03904,0.0244
0.0488,-0.04148,0.03416,0.00976,-0.01464,0.03172,-0.05368,-0.04392,-0.04392,-0.03904,0.02928,0.01464
0.03904,-0.03172,0.0244,0.00488,-0.01464,0.02684,-0.04392,-0.04392,-0.05856,-0.03904,0.0244,0.00976
0.0244,-0.01952,0.01464,0.00244,-0.00976,0.01708,-0.04392,-0.0488,-0.06832,-0.05368,0.00976,0.00976
0.01464,-0.00488,-0.00488,-0.0122,-0.01952,0.01708,-0.02928,-0.0488,-0.07808,-0.06344,0,0
0.00488,0.01464,-0.03416,-0.0366,-0.03904,0.02196,-0.00488,-0.03416,-0.08784,-0.06344,-0.00976,-0.01464
-0.00976,0.03416,-0.05856,-0.05368,-0.0488,0.01952,0.01464,-0.0244,-0.0976,-0.0732,-0.01952,-0.02928
-0.02928,0.05856,-0.08784,-0.0732,-0.05856,0.01464,0.02928,-0.0244,-0.0976,-0.08784,-0.03904,-0.04392
-0.03416,0.0732,-0.11224,-0.09516,-0.07808,0.02196,0.0488,-0.01952,-0.10736,-0.09272,-0.04392,-0.05368
-0.05368,0.09516,-0.13664,-0.1098,-0.08296,0.01464,0.06344,-0.01464,-0.10736,-0.11224,-0.06344,-0.06344
-0.05368,0.10492,-0.15616,-0.12932,-0.10248,0.0244,0.06832,0,-0.11224,-0.122,-0.0732,-0.0732
-0.05368,0.11956,-0.18544,-0.1586,-0.13176,0.03904,0.06832,-0.00488,-0.122,-0.13664,-0.08296,-0.08784
-0.05368,0.122,-0.19032,-0.16348,-0.13664,0.04148,0.0732,-0.00488,-0.13176,-0.13664,-0.09272,-0.08784
-0.06832,0.12444,-0.18056,-0.1464,-0.11224,0.02196,0.07808,0.00488,-0.13664,-0.13664,-0.0976,-0.08784
-0.06832,0.12688,-0.18544,-0.15128,-0.11712,0.0244,0.07808,0.00488,-0.14152,-0.14152,-0.10248,-0.09272
-0.06832,0.11956,-0.1708,-0.13664,-0.10248,0.01708,0.08296,0,-0.14152,-0.14152,-0.10248,-0.0976
-0.06832,0.11468,-0.16104,-0.12688,-0.09272,0.0122,0.08784,0,-0.14152,-0.14152,-0.10736,-0.0976
-0.06344,0.1098,-0.15616,-0.12444,-0.09272,0.01464,0.08784,0,-0.15128,-0.15128,-0.11224,-0.10736
-0.06344,0.1098,-0.15616,-0.12444,-0.09272,0.01464,0.08784,0,-0.15128,-0.15128,-0.11224,-0.10736
-0.06832,0.11468,-0.16104,-0.12688,-0.09272,0.0122,0.09272,-0.00488,-0.15128,-0.15616,-0.11712,-0.10736
-0.07808,0.12688,-0.17568,-0.13664,-0.0976,0.00976,0.09272,-0.00488,-0.1464,-0.15616,-0.11712,-0.10736
-0.09272,0.14152,-0.19032,-0.14396,-0.0976,0.00244,0.09272,0.00488,-0.14152,-0.15128,-0.10736,-0.10736
-0.09272,0.14396,-0.1952,-0.14884,-0.10248,0.00488,0.08784,0.00488,-0.14152,-0.14152,-0.11224,-0.10736
-0.08296,0.1342,-0.18544,-0.14396,-0.10248,0.00976,0.08784,0.00976,-0.14152,-0.1464,-0.11224,-0.11712
-0.0732,0.13176,-0.19032,-0.15372,-0.11712,0.02196,0.08784,0.01464,-0.13664,-0.14152,-0.11224,-0.122
-0.05856,0.12688,-0.1952,-0.16592,-0.13664,0.03904,0.10248,0.0244,-0.12688,-0.14152,-0.11224,-0.11712
-0.06344,0.14152,-0.2196,-0.18788,-0.15616,0.04636,0.122,0.04392,-0.10736,-0.13664,-0.11224,-0.11712
-0.08296,0.15616,-0.22936,-0.18788,-0.1464,0.03172,0.15128,0.07808,-0.06344,-0.11712,-0.11712,-0.12688
-0.10248,0.16104,-0.2196,-0.16836,-0.11712,0.00732,0.16104,0.08784,0.0244,-0.06832,-0.09272,-0.12688
-0.0732,0.11956,-0.16592,-0.12932,-0.09272,0.00976,0.13664,0.10736,0.13176,0.03904,-0.01464,-0.0732
0.01952,0.02928,-0.07808,-0.08784,-0.0976,0.05856,0.07808,0.12688,0.244,0.2196,0.15616,0.0732
0.19032,-0.12688,0.06344,-0.03172,-0.12688,0.1586,-0.0488,0.1464,0.34648,0.44896,0.42944,0.2928
0.44896,-0.34648,0.244,0.01952,-0.20496,0.32696,-0.21472,0.19032,0.42456,0.72224,0.78568,0.5856
0.72224,-0.57828,0.43432,0.0732,-0.28792,0.50508,-0.4148,0.20496,0.42944,0.93696,1.10776,0.88328
0.94672,-0.7808,0.61488,0.14152,-0.33184,0.63928,-0.60512,0.1708,0.2928,0.976,1.29808,1.09312
1.02968,-0.86132,0.69296,0.17812,-0.33672,0.6832,-0.72712,0.05856,0.01464,0.79056,1.24928,1.12728
0.94184,-0.81984,0.69784,0.22692,-0.244,0.59292,-0.76616,-0.17568,-0.39528,0.3904,0.96624,0.976
0.732,-0.66124,0.59048,0.22448,-0.14152,0.43676,-0.70272,-0.39528,-0.7808,-0.05368,0.5612,0.732
0.5124,-0.48556,0.45872,0.20252,-0.05368,0.28304,-0.58072,-0.54168,-1.0004,-0.37576,0.20984,0.47336
0.33184,-0.32208,0.31232,0.1464,-0.01952,0.17568,-0.45872,-0.56608,-1.0248,-0.54168,-0.02928,0.27816
0.23424,-0.2074,0.18056,0.06344,-0.05368,0.14396,-0.33184,-0.45872,-0.88328,-0.52216,-0.11224,0.15128
0.13664,-0.10492,0.0732,0.00488,-0.06344,0.10004,-0.21472,-0.32696,-0.69296,-0.45384,-0.15128,0.05368
0.05856,-0.0244,-0.00976,-0.03904,-0.06832,0.06344,-0.11712,-0.23424,-0.53192,-0.37088,-0.16592,-0.0244
0.00488,0.03172,-0.06832,-0.07076,-0.0732,0.03904,-0.04392,-0.16592,-0.42456,-0.32696,-0.18544,-0.09272
-0.0488,0.07564,-0.10248,-0.07808,-0.05368,0.00244,0.01464,-0.11712,-0.33672,-0.28304,-0.20008,-0.12688
-0.06832,0.0976,-0.12688,-0.09272,-0.05856,-0.00488,0.04392,-0.07808,-0.28304,-0.25376,-0.1952,-0.1464
-0.08296,0.11468,-0.1464,-0.10492,-0.06344,-0.00976,0.06832,-0.04392,-0.23424,-0.22448,-0.17568,-0.1464
-0.08784,0.11956,-0.15128,-0.10736,-0.06344,-0.0122,0.08296,-0.01952,-0.1952,-0.20008,-0.16592,-0.15128
-0.08784,0.12688,-0.16592,-0.122,-0.07808,-0.00488,0.08784,-0.01464,-0.1708,-0.18056,-0.16104,-0.14152
-0.08784,0.12932,-0.1708,-0.12688,-0.08296,-0.00244,0.0976,0.00976,-0.1464,-0.16592,-0.1464,-0.14152
-0.08784,0.12932,-0.1708,-0.12688,-0.08296,-0.00244,0.0976,0.01952,-0.13664,-0.15616,-0.1464,-0.14152
-0.09272,0.13664,-0.18056,-0.1342,-0.08784,-0.00244,0.10736,0.01952,-0.13664,-0.15616,-0.14152,-0.13176
-0.09272,0.14396,-0.1952,-0.14884,-0.10248,0.00488,0.10736,0.01952,-0.13176,-0.15128,-0.14152,-0.13176
-0.10248,0.15616,-0.20984,-0.1586,-0.10736,0.00244,0.10248,0.01952,-0.12688,-0.15128,-0.13664,-0.13176
-0.10736,0.15616,-0.20496,-0.15128,-0.0976,-0.00488,0.10736,0.0244,-0.122,-0.14152,-0.13664,-0.12688
-0.10736,0.15128,-0.1952,-0.14152,-0.08784,-0.00976,0.10736,0.0244,-0.12688,-0.14152,-0.12688,-0.13664
-0.0976,0.1464,-0.1952,-0.1464,-0.0976,0,0.10736,0.0244,-0.122,-0.14152,-0.12688,-0.13176
-0.0976,0.14152,-0.18544,-0.13664,-0.08784,-0.00488,0.10248,0.02928,-0.11224,-0.14152,-0.12688,-0.13176
-0.09272,0.1342,-0.17568,-0.12932,-0.08296,-0.00488,0.10248,0.02928,-0.11224,-0.13664,-0.12688,-0.13176
-0.08296,0.13176,-0.18056,-0.13908,-0.0976,0.00732,0.10736,0.02928,-0.122,-0.1464,-0.13664,-0.14152
-0.07808,0.12932,-0.18056,-0.14152,-0.10248,0.0122,0.10736,0.02928,-0.11712,-0.14152,-0.14152,-0.14152
-0.08784,0.13176,-0.17568,-0.13176,-0.08784,0,0.11224,0.02928,-0.10736,-0.13176,-0.13176,-0.14152
-0.08784,0.13176,-0.17568,-0.13176,-0.08784,0,0.10736,0.02928,-0.0976,-0.12688,-0.13176,-0.14152
-0.0976,0.13664,-0.17568,-0.12688,-0.07808,-0.00976,0.11712,0.03904,-0.0976,-0.11224,-0.122,-0.13176
-0.0976,0.13176,-0.16592,-0.11712,-0.06832,-0.01464,0.11712,0.03904,-0.09272,-0.11224,-0.122,-0.122
-0.08784,0.11956,-0.15128,-0.10736,-0.06344,-0.0122,0.10248,0.03904,-0.09272,-0.11224,-0.122,-0.11712
-0.08296,0.11712,-0.15128,-0.1098,-0.06832,-0.00732,0.10248,0.03904,-0.08784,-0.11224,-0.122,-0.11712
-0.08296,0.11712,-0.15128,-0.1098,-0.06832,-0.00732,0.10248,0.03416,-0.0976,-0.10736,-0.122,-0.122
-0.07808,0.11224,-0.1464,-0.10736,-0.06832,-0.00488,0.10248,0.03416,-0.09272,-0.10736,-0.122,-0.122
-0.08784,0.11712,-0.1464,-0.10248,-0.05856,-0.01464,0.08784,0.0244,-0.0976,-0.11224,-0.13176,-0.122
-0.08296,0.1098,-0.13664,-0.09516,-0.05368,-0.01464,0.08784,0.0244,-0.09272,-0.11224,-0.13176,-0.122
-0.07808,0.11224,-0.1464,-0.10736,-0.06832,-0.00488,0.0976,0.03416,-0.08296,-0.0976,-0.12688,-0.122
-0.08296,0.11468,-0.1464,-0.10492,-0.06344,-0.00976,0.0976,0.03416,-0.0732,-0.09272,-0.12688,-0.122
-0.09272,0.11712,-0.14152,-0.09516,-0.0488,-0.02196,0.0976,0.03904,-0.05856,-0.08784,-0.11224,-0.11712
-0.09272,0.11712,-0.14152,-0.09516,-0.0488,-0.02196,0.0976,0.04392,-0.05368,-0.07808,-0.10736,-0.11712
-0.0976,0.11468,-0.13176,-0.08296,-0.03416,-0.03172,0.08784,0.03904,-0.05368,-0.07808,-0.11712,-0.122
-0.0976,0.10492,-0.11224,-0.06344,-0.01464,-0.04148,0.08784,0.03904,-0.0488,-0.06832,-0.10736,-0.11712
-0.08296,0.09516,-0.10736,-0.06588,-0.0244,-0.02928,0.08296,0.05368,-0.03904,-0.05856,-0.0976,-0.10248
-0.08296,0.09516,-0.10736,-0.06588,-0.0244,-0.02928,0.07808,0.06344,-0.02928,-0.05368,-0.09272,-0.10248
-0.07808,0.09028,-0.10248,-0.06344,-0.0244,-0.02684,0.08784,0.06832,-0.00976,-0.03904,-0.08784,-0.08784
-0.0732,0.09028,-0.10736,-0.07076,-0.03416,-0.01952,0.08296,0.07808,0.00488,-0.02928,-0.07808,-0.08296
-0.07808,0.08784,-0.0976,-0.05856,-0.01952,-0.02928,0.08296,0.08296,0.01464,-0.0244,-0.06344,-0.07808
-0.07808,0.08784,-0.0976,-0.05856,-0.01952,-0.02928,0.07808,0.09272,0.0244,-0.01464,-0.05368,-0.0732
-0.06832,0.0732,-0.07808,-0.04392,-0.00976,-0.02928,0.07808,0.08784,0.0488,0.00976,-0.04392,-0.06344
-0.06344,0.06832,-0.0732,-0.04148,-0.00976,-0.02684,0.07808,0.09272,0.06344,0.0244,-0.02928,-0.05368
-0.05856,0.05856,-0.05856,-0.02928,0,-0.02928,0.0732,0.10248,0.08296,0.03904,-0.02928,-0.05368
-0.05368,0.0488,-0.04392,-0.01708,0.00976,-0.03172,0.06832,0.10248,0.10248,0.05856,-0.01464,-0.04392
-0.04392,0.03416,-0.0244,-0.00244,0.01952,-0.03172,0.06344,0.11712,0.122,0.06832,0.00488,-0.02928
-0.04392,0.0244,-0.00488,0.01708,0.03904,-0.04148,0.05856,0.12688,0.13176,0.08296,0.01952,-0.01952
-0.02928,0.01464,0,0.01464,0.02928,-0.02928,0.0488,0.122,0.15128,0.0976,0.01952,-0.01952
-0.01952,0,0.01952,0.02928,0.03904,-0.02928,0.03416,0.122,0.16104,0.11224,0.03904,-0.00488
-0.01464,-0.00976,0.03416,0.04148,0.0488,-0.03172,0.01952,0.12688,0.1708,0.11712,0.0488,0
-0.00488,-0.0244,0.05368,0.05612,0.05856,-0.03172,0.01464,0.11712,0.1708,0.122,0.06344,0.00976
0.00976,-0.03172,0.05368,0.0488,0.04392,-0.01708,0.00976,0.122,0.17568,0.1464,0.0732,0.02928
0.00976,-0.0366,0.06344,0.05856,0.05368,-0.02196,0.00488,0.122,0.18544,0.15616,0.08784,0.03904
0.01952,-0.04148,0.06344,0.05368,0.04392,-0.0122,0.00976,0.13176,0.1952,0.16592,0.10736,0.05856
0.01952,-0.04148,0.06344,0.05368,0.04392,-0.0122,0.01464,0.12688,0.20984,0.18056,0.11224,0.06344
0.01464,-0.04392,0.0732,0.06588,0.05856,-0.02196,0.00488,0.11712,0.20984,0.18056,0.122,0.0732
0.01464,-0.04636,0.07808,0.07076,0.06344,-0.0244,-0.00488,0.11224,0.20984,0.18056,0.12688,0.07808
0.00488,-0.0488,0.09272,0.09028,0.08784,-0.04148,-0.00976,0.10248,0.1952,0.1708,0.122,0.0732
0.00488,-0.05124,0.0976,0.09516,0.09272,-0.04392,-0.01464,0.09272,0.18544,0.1708,0.122,0.0732
0.00488,-0.04392,0.08296,0.08052,0.07808,-0.0366,-0.0244,0.08296,0.15616,0.15616,0.11712,0.0732
0.00976,-0.04148,0.0732,0.06832,0.06344,-0.02684,-0.02928,0.06832,0.14152,0.1464,0.10736,0.0732
0,-0.02928,0.05856,0.05856,0.05856,-0.02928,-0.02928,0.06344,0.12688,0.13664,0.10248,0.06344
-0.00488,-0.01952,0.04392,0.04636,0.0488,-0.02684,-0.02928,0.05368,0.10736,0.11712,0.09272,0.0488
0.00488,-0.02196,0.03904,0.0366,0.03416,-0.01464,-0.0244,0.04392,0.07808,0.10248,0.08296,0.04392
0.00488,-0.0122,0.01952,0.01708,0.01464,-0.00488,-0.01464,0.03416,0.05856,0.08296,0.06344,0.03416
0,-0.00488,0.00976,0.00976,0.00976,-0.00488,-0.00488,0.0244,0.03904,0.05368,0.0488,0.02928
-0.00488,0.00488,-0.00488,-0.00244,0,-0.00244,0,0.01952,0.01952,0.03904,0.03904,0.01952
-0.01952,0.02684,-0.03416,-0.0244,-0.01464,-0.00244,0.01464,0.01952,0.00488,0.01952,0.01952,-0.00488
-0.0244,0.03904,-0.05368,-0.04148,-0.02928,0.00244,0.0244,0.01464,-0.01952,0,0.00488,-0.0244
-0.0244,0.03904,-0.05368,-0.04148,-0.02928,0.00244,0.0244,0.00488,-0.03904,-0.02928,-0.01952,-0.03416
-0.0244,0.04148,-0.05856,-0.04636,-0.03416,0.00488,0.03416,-0.00488,-0.05368,-0.03904,-0.03904,-0.0488
-0.03416,0.0488,-0.06344,-0.04636,-0.02928,-0.00244,0.03904,0.00488,-0.05368,-0.03904,-0.03416,-0.04392
-0.03904,0.05856,-0.07808,-0.05856,-0.03904,0,0.04392,0,-0.06344,-0.0488,-0.04392,-0.0488
-0.03904,0.05856,-0.07808,-0.05856,-0.03904,0,0.04392,0,-0.0732,-0.0488,-0.03904,-0.05368
-0.03904,0.061,-0.08296,-0.06344,-0.04392,0.00244,0.04392,0,-0.07808,-0.06344,-0.04392,-0.05856
-0.0488,0.06588,-0.08296,-0.05856,-0.03416,-0.00732,0.04392,0.00976,-0.09272,-0.05856,-0.05856,-0.06344
-0.0488,0.06344,-0.07808,-0.05368,-0.02928,-0.00976,0.04392,0.00488,-0.10248,-0.06344,-0.05856,-0.06344
-0.0488,0.07076,-0.09272,-0.06832,-0.04392,-0.00244,0.04392,0.00488,-0.09272,-0.0732,-0.05856,-0.05368
-0.05368,0.0732,-0.09272,-0.06588,-0.03904,-0.00732,0.04392,0,-0.0976,-0.0732,-0.06344,-0.05856
-0.06344,0.08296,-0.10248,-0.07076,-0.03904,-0.0122,0.03416,-0.00976,-0.0976,-0.07808,-0.06344,-0.06832
-0.06344,0.08296,-0.10248,-0.07076,-0.03904,-0.0122,0.03416,-0.01464,-0.0976,-0.07808,-0.06344,-0.06832
-0.0732,0.08784,-0.10248,-0.06588,-0.02928,-0.02196,0.04392,-0.01464,-0.10248,-0.07808,-0.06344,-0.0732
-0.0732,0.08784,-0.10248,-0.06588,-0.02928,-0.02196,0.04392,-0.01464,-0.10248,-0.07808,-0.06344,-0.0732
-0.06344,0.0854,-0.10736,-0.07564,-0.04392,-0.00976,0.04392,-0.00488,-0.09272,-0.06832,-0.06344,-0.0732
-0.06832,0.0854,-0.10248,-0.06832,-0.03416,-0.01708,0.04392,0,-0.09272,-0.0732,-0.06832,-0.0732
-0.06832,0.0854,-0.10248,-0.06832,-0.03416,-0.01708,0.03416,-0.00488,-0.10248,-0.07808,-0.06344,-0.0732
-0.06832,0.0854,-0.10248,-0.06832,-0.03416,-0.01708,0.03416,-0.00488,-0.0976,-0.0732,-0.06344,-0.0732
-0.07808,0.09028,-0.10248,-0.06344,-0.0244,-0.02684,0.03416,-0.00488,-0.10736,-0.0732,-0.05856,-0.0732
-0.07808,0.09028,-0.10248,-0.06344,-0.0244,-0.02684,0.03904,0,-0.10248,-0.06832,-0.05368,-0.06832
-0.06344,0.08296,-0.10248,-0.07076,-0.03904,-0.0122,0.03904,-0.00976,-0.10248,-0.0732,-0.06344,-0.06832
-0.05368,0.07564,-0.0976,-0.07076,-0.04392,-0.00488,0.03416,-0.00976,-0.0976,-0.0732,-0.06344,-0.06832
-0.05368,0.06832,-0.08296,-0.05612,-0.02928,-0.0122,0.03416,-0.00976,-0.0976,-0.06832,-0.06344,-0.0732
-0.05368,0.06344,-0.0732,-0.04636,-0.01952,-0.01708,0.03416,-0.00976,-0.0976,-0.0732,-0.05856,-0.06832
-0.06344,0.07076,-0.07808,-0.04636,-0.01464,-0.0244,0.03904,0,-0.08784,-0.06832,-0.05368,-0.06344
-0.05856,0.06832,-0.07808,-0.0488,-0.01952,-0.01952,0.03416,0.00488,-0.08784,-0.05856,-0.0488,-0.06344
-0.06832,0.08296,-0.0976,-0.06344,-0.02928,-0.01952,0.04392,0.01464,-0.08296,-0.05368,-0.0488,-0.06832
-0.05856,0.0732,-0.08784,-0.05856,-0.02928,-0.01464,0.03904,0.00976,-0.07808,-0.0488,-0.0488,-0.06832
-0.0488,0.06832,-0.08784,-0.06344,-0.03904,-0.00488,0.03904,0.00976,-0.07808,-0.0488,-0.03904,-0.05856
-0.0488,0.06832,-0.08784,-0.06344,-0.03904,-0.00488,0.03904,0.00976,-0.07808,-0.0488,-0.03904,-0.05856
-0.0488,0.05856,-0.06832,-0.04392,-0.01952,-0.01464,0.02928,0.01464,-0.06832,-0.02928,-0.02928,-0.03904
-0.04392,0.04636,-0.0488,-0.02684,-0.00488,-0.01952,0.0244,0.01464,-0.05856,-0.01952,-0.01952,-0.03416
-0.0244,0.0244,-0.0244,-0.0122,0,-0.0122,0.00976,0.00488,-0.05856,-0.00488,-0.00976,-0.0244
-0.01952,0.01464,-0.00976,0,0.00976,-0.01464,0.00976,0.00976,-0.04392,0.00488,0.00488,-0.0244
-0.00976,0.00976,-0.00976,-0.00488,0,-0.00488,0,0.00976,-0.03416,0.00488,0.00488,-0.02928
-0.00488,0.00732,-0.00976,-0.00732,-0.00488,0,0,0.01464,-0.0244,0.00976,0.00488,-0.01952
0,-0.00488,0.00976,0.00976,0.00976,-0.00488,0,0.00976,-0.00488,0.01952,0.00976,-0.0244
0,-0.01708,0.03416,0.03416,0.03416,-0.01708,-0.0244,0,0,0.02928,0.01952,-0.01464
0,-0.02928,0.05856,0.05856,0.05856,-0.02928,-0.05856,-0.01464,0.00976,0.04392,0.0244,-0.00488
0.00976,-0.03904,0.06832,0.06344,0.05856,-0.0244,-0.07808,-0.02928,0.00976,0.0488,0.03416,0.00488
0.02928,-0.05856,0.08784,0.0732,0.05856,-0.01464,-0.09272,-0.04392,-0.00488,0.03904,0.03416,-0.00488
0.03904,-0.06588,0.09272,0.0732,0.05368,-0.00732,-0.0976,-0.04392,-0.01952,0.03416,0.03416,-0.00488
0.0488,-0.0732,0.0976,0.0732,0.0488,0,-0.0976,-0.04392,-0.02928,0.03416,0.03416,-0.00488
0.0488,-0.0732,0.0976,0.0732,0.0488,0,-0.0976,-0.04392,-0.03904,0.0244,0.02928,-0.00488
0.05368,-0.06832,0.08296,0.05612,0.02928,0.0122,-0.08296,-0.02928,-0.04392,0.0244,0.02928,-0.00488
0.05368,-0.06344,0.0732,0.04636,0.01952,0.01708,-0.06832,-0.02928,-0.0488,0.01952,0.0244,-0.00976
0.05368,-0.05124,0.0488,0.02196,-0.00488,0.02928,-0.05856,-0.03416,-0.06832,0.00488,0.01952,-0.0244
0.0488,-0.04148,0.03416,0.00976,-0.01464,0.03172,-0.0488,-0.02928,-0.08296,-0.01464,0.00488,-0.04392
0.02928,-0.0244,0.01952,0.00488,-0.00976,0.01952,-0.03416,-0.02928,-0.08296,-0.0244,-0.01464,-0.06344
0.00976,-0.00244,-0.00488,-0.00976,-0.01464,0.0122,-0.01464,-0.0244,-0.09272,-0.03904,-0.02928,-0.08296
-0.01464,0.01708,-0.01952,-0.0122,-0.00488,-0.00488,0.00488,-0.00976,-0.09272,-0.0488,-0.04392,-0.08784
-0.03416,0.03416,-0.03416,-0.01708,0,-0.01708,0.0244,-0.00488,-0.0976,-0.06344,-0.05856,-0.0976
-0.02928,0.04636,-0.06344,-0.0488,-0.03416,0.00244,0.03904,-0.00488,-0.11224,-0.06832,-0.06832,-0.11712
-0.03904,0.061,-0.08296,-0.06344,-0.04392,0.00244,0.0488,0,-0.122,-0.07808,-0.07808,-0.13664
-0.05368,0.08296,-0.11224,-0.0854,-0.05856,0.00244,0.0488,0,-0.11712,-0.07808,-0.07808,-0.13664
-0.06344,0.09272,-0.122,-0.09028,-0.05856,-0.00244,0.0488,0.00488,-0.12688,-0.08784,-0.08784,-0.1464
-0.08296,0.11224,-0.14152,-0.10004,-0.05856,-0.0122,0.05368,0.00488,-0.13664,-0.0976,-0.08784,-0.1464
-0.08784,0.11468,-0.14152,-0.0976,-0.05368,-0.01708,0.05856,0.00488,-0.1464,-0.0976,-0.08784,-0.1464
-0.08784,0.122,-0.15616,-0.11224,-0.06832,-0.00976,0.05856,0.00488,-0.1464,-0.11224,-0.10248,-0.16104
-0.08784,0.122,-0.15616,-0.11224,-0.06832,-0.00976,0.06344,0.00488,-0.15128,-0.11224,-0.10248,-0.16104
-0.08784,0.11712,-0.1464,-0.10248,-0.05856,-0.01464,0.06344,0,-0.15128,-0.11224,-0.11712,-0.17568
-0.08784,0.11712,-0.1464,-0.10248,-0.05856,-0.01464,0.06832,0,-0.15128,-0.11224,-0.11712,-0.17568
-0.09272,0.11956,-0.1464,-0.10004,-0.05368,-0.01952,0.07808,0.00976,-0.14152,-0.10248,-0.10248,-0.17568
-0.09272,0.11956,-0.1464,-0.10004,-0.05368,-0.01952,0.08296,0.00976,-0.14152,-0.10736,-0.10736,-0.17568
-0.08296,0.11468,-0.1464,-0.10492,-0.06344,-0.00976,0.0732,0.00488,-0.14152,-0.10736,-0.10736,-0.16592
-0.08296,0.11712,-0.15128,-0.1098,-0.06832,-0.00732,0.0732,0.00488,-0.13664,-0.10736,-0.10736,-0.16592
-0.08296,0.11712,-0.15128,-0.1098,-0.06832,-0.00732,0.06832,0.01464,-0.14152,-0.10736,-0.10736,-0.17568
-0.07808,0.11712,-0.15616,-0.11712,-0.07808,0,0.06832,0.01464,-0.14152,-0.10736,-0.11224,-0.17568
-0.07808,0.122,-0.16592,-0.12688,-0.08784,0.00488,0.06832,0.00976,-0.13664,-0.11224,-0.11224,-0.17568
-0.07808,0.12444,-0.1708,-0.13176,-0.09272,0.00732,0.0732,0.01464,-0.13664,-0.11224,-0.11224,-0.18056
-0.06832,0.11712,-0.16592,-0.13176,-0.0976,0.01464,0.08784,0.02928,-0.13664,-0.11712,-0.122,-0.18056
-0.07808,0.12932,-0.18056,-0.14152,-0.10248,0.0122,0.122,0.06344,-0.10736,-0.10736,-0.12688,-0.20008
-0.08784,0.1342,-0.18056,-0.13664,-0.09272,0.00244,0.15128,0.09272,-0.03416,-0.07808,-0.11224,-0.21472
-0.09272,0.122,-0.15128,-0.10492,-0.05856,-0.01708,0.16592,0.122,0.0732,0.01464,-0.06344,-0.18544
-0.0488,0.0732,-0.0976,-0.0732,-0.0488,0,0.13176,0.1464,0.1952,0.15616,0.06832,-0.08784
0.07808,-0.04148,0.00488,-0.03416,-0.0732,0.07564,0.03904,0.16592,0.29768,0.3416,0.27328,0.07808
0.28792,-0.21716,0.1464,0.00244,-0.14152,0.21472,-0.11224,0.18544,0.36112,0.5612,0.56608,0.33184
0.5612,-0.44408,0.32696,0.04636,-0.23424,0.39772,-0.32208,0.20496,0.39528,0.7808,0.89792,0.61976
0.84424,-0.68808,0.53192,0.1098,-0.31232,0.57828,-0.54168,0.19032,0.3172,0.89792,1.15168,0.8784
1.01992,-0.84424,0.66856,0.1586,-0.35136,0.68564,-0.70272,0.11224,0.09272,0.82472,1.21512,0.99064
1.04432,-0.88572,0.72712,0.20496,-0.3172,0.68076,-0.80032,-0.07808,-0.244,0.5368,1.05408,0.94184
0.8784,-0.77592,0.67344,0.23424,-0.20496,0.54168,-0.79544,-0.34648,-0.66368,0.11224,0.68808,0.72712
0.65392,-0.60268,0.55144,0.22448,-0.10248,0.3782,-0.69784,-0.54656,-0.95648,-0.27328,0.30744,0.46848
0.43432,-0.42456,0.4148,0.19764,-0.01952,0.22692,-0.55632,-0.64416,-1.0736,-0.50264,0.01952,0.244
0.2928,-0.2806,0.2684,0.122,-0.0244,0.1586,-0.41968,-0.56608,-0.98088,-0.54168,-0.10736,0.10736
0.19032,-0.16348,0.13664,0.04148,-0.05368,0.122,-0.2928,-0.42944,-0.79544,-0.48312,-0.16104,0.00488
0.08784,-0.06832,0.0488,0.00488,-0.03904,0.06344,-0.18056,-0.30256,-0.61,-0.39528,-0.1708,-0.0732
0.00976,0.00488,-0.01952,-0.0244,-0.02928,0.01952,-0.08296,-0.20496,-0.46848,-0.33184,-0.17568,-0.14152
-0.0488,0.05124,-0.05368,-0.02928,-0.00488,-0.02196,-0.01952,-0.14152,-0.36112,-0.28304,-0.19032,-0.19032
-0.07808,0.08296,-0.08784,-0.0488,-0.00976,-0.03416,0.01952,-0.0976,-0.2928,-0.24888,-0.19032,-0.20496
-0.10248,0.1098,-0.11712,-0.06588,-0.01464,-0.04392,0.04392,-0.06832,-0.24888,-0.2196,-0.18544,-0.21472
-0.11224,0.122,-0.13176,-0.07564,-0.01952,-0.04636,0.06344,-0.0244,-0.1952,-0.18056,-0.1708,-0.21472
-0.11712,0.1342,-0.15128,-0.09272,-0.03416,-0.04148,0.07808,0,-0.1708,-0.16104,-0.15128,-0.20984
-0.12688,0.14884,-0.1708,-0.10736,-0.04392,-0.04148,0.09272,0.01464,-0.1464,-0.14152,-0.14152,-0.20008
-0.12688,0.14884,-0.1708,-0.10736,-0.04392,-0.04148,0.0976,0.0244,-0.13176,-0.13176,-0.13664,-0.20008
-0.12688,0.14396,-0.16104,-0.0976,-0.03416,-0.04636,0.10736,0.01952,-0.122,-0.11712,-0.13664,-0.20008
-0.11712,0.14152,-0.16592,-0.10736,-0.0488,-0.03416,0.10736,0.01952,-0.11712,-0.11712,-0.13176,-0.20008
-0.122,0.13908,-0.15616,-0.09516,-0.03416,-0.04392,0.0976,0.0244,-0.11224,-0.11224,-0.122,-0.20008
-0.12688,0.14396,-0.16104,-0.0976,-0.03416,-0.04636,0.10736,0.03416,-0.10248,-0.10248,-0.11712,-0.20008
-0.11712,0.13664,-0.15616,-0.0976,-0.03904,-0.03904,0.10736,0.03416,-0.10736,-0.11224,-0.11224,-0.1952
-0.11224,0.1342,-0.15616,-0.10004,-0.04392,-0.03416,0.10736,0.03416,-0.10736,-0.11224,-0.122,-0.1952
-0.10736,0.13664,-0.16592,-0.11224,-0.05856,-0.0244,0.0976,0.0244,-0.10248,-0.122,-0.12688,-0.19032
-0.10248,0.1342,-0.16592,-0.11468,-0.06344,-0.01952,0.09272,0.02928,-0.10248,-0.11712,-0.12688,-0.19032
-0.10248,0.12688,-0.15128,-0.10004,-0.0488,-0.02684,0.0976,0.03904,-0.09272,-0.10736,-0.11712,-0.18056
-0.0976,0.12444,-0.15128,-0.10248,-0.05368,-0.02196,0.0976,0.03904,-0.08784,-0.10248,-0.11224,-0.18056
-0.0976,0.11956,-0.14152,-0.09272,-0.04392,-0.02684,0.09272,0.02928,-0.08784,-0.10248,-0.122,-0.19032
-0.0976,0.11712,-0.13664,-0.08784,-0.03904,-0.02928,0.09272,0.02928,-0.08784,-0.0976,-0.122,-0.19032
-0.08784,0.10736,-0.12688,-0.08296,-0.03904,-0.0244,0.0976,0.03904,-0.08784,-0.0976,-0.122,-0.18056
-0.08784,0.10736,-0.12688,-0.08296,-0.03904,-0.0244,0.0976,0.03904,-0.08784,-0.09272,-0.122,-0.18056
-0.09272,0.1098,-0.12688,-0.08052,-0.03416,-0.02928,0.0976,0.02928,-0.09272,-0.09272,-0.122,-0.18056
-0.10248,0.11224,-0.122,-0.07076,-0.01952,-0.04148,0.09272,0.02928,-0.09272,-0.09272,-0.122,-0.17568
-0.10736,0.11712,-0.12688,-0.0732,-0.01952,-0.04392,0.09272,0.03416,-0.07808,-0.09272,-0.11224,-0.1708
-0.11712,0.12444,-0.13176,-0.0732,-0.01464,-0.05124,0.09272,0.03416,-0.0732,-0.08784,-0.11224,-0.1708
-0.11224,0.12444,-0.13664,-0.08052,-0.0244,-0.04392,0.0976,0.04392,-0.0732,-0.08784,-0.11224,-0.16104
-0.0976,0.11712,-0.13664,-0.08784,-0.03904,-0.02928,0.0976,0.04392,-0.06344,-0.08296,-0.11224,-0.16104
-0.08784,0.10004,-0.11224,-0.06832,-0.0244,-0.03172,0.08784,0.04392,-0.06344,-0.08296,-0.122,-0.16104
-0.0732,0.08784,-0.10248,-0.06588,-0.02928,-0.02196,0.08784,0.04392,-0.06344,-0.07808,-0.11712,-0.16104
-0.06344,0.08052,-0.0976,-0.06588,-0.03416,-0.01464,0.0976,0.05856,-0.04392,-0.06344,-0.10248,-0.1464
-0.06344,0.07808,-0.09272,-0.061,-0.02928,-0.01708,0.0976,0.06344,-0.03416,-0.05856,-0.10248,-0.1464
-0.0732,0.08296,-0.09272,-0.05612,-0.01952,-0.02684,0.08784,0.05856,-0.03904,-0.0488,-0.0976,-0.14152
-0.08296,0.08784,-0.09272,-0.05124,-0.00976,-0.0366,0.08784,0.05856,-0.03416,-0.04392,-0.0976,-0.14152
-0.0976,0.09028,-0.08296,-0.03416,0.01464,-0.05612,0.07808,0.0488,-0.03416,-0.03904,-0.0976,-0.14152
-0.09272,0.0854,-0.07808,-0.03172,0.01464,-0.05368,0.0732,0.05368,-0.0244,-0.04392,-0.0976,-0.1464
-0.08296,0.08052,-0.07808,-0.0366,0.00488,-0.04392,0.06832,0.05856,-0.00488,-0.02928,-0.07808,-0.14152
-0.06832,0.06832,-0.06832,-0.03416,0,-0.03416,0.06344,0.05856,0.00976,-0.0244,-0.0732,-0.13664
-0.0732,0.07076,-0.06832,-0.03172,0.00488,-0.03904,0.0732,0.08296,0.02928,-0.00976,-0.06344,-0.122
-0.06832,0.06832,-0.06832,-0.03416,0,-0.03416,0.0732,0.08296,0.03904,0,-0.05856,-0.11712
-0.0732,0.06832,-0.06344,-0.02684,0.00976,-0.04148,0.05856,0.09272,0.03904,0.00488,-0.06344,-0.11712
-0.06344,0.061,-0.05856,-0.02684,0.00488,-0.03416,0.05856,0.10248,0.06344,0.01952,-0.0488,-0.10736
-0.06832,0.06588,-0.06344,-0.02928,0.00488,-0.0366,0.05856,0.10248,0.06344,0.03416,-0.03416,-0.0976
-0.06832,0.05856,-0.0488,-0.01464,0.01952,-0.04392,0.05368,0.10248,0.08296,0.0488,-0.01952,-0.08784
-0.05368,0.04392,-0.03416,-0.00732,0.01952,-0.0366,0.0488,0.11224,0.10248,0.06344,-0.00976,-0.07808
-0.04392,0.02928,-0.01464,0.00732,0.02928,-0.0366,0.03904,0.11712,0.122,0.07808,0,-0.0732
-0.03416,0.01464,0.00488,0.02196,0.03904,-0.0366,0.03904,0.13176,0.14152,0.09272,0.01952,-0.06344
-0.0244,-0.00244,0.02928,0.04148,0.05368,-0.03904,0.02928,0.13176,0.15128,0.11224,0.03416,-0.0488
-0.01464,-0.01952,0.05368,0.061,0.06832,-0.04148,0.02928,0.13176,0.17568,0.122,0.04392,-0.03904
0,-0.02684,0.05368,0.05368,0.05368,-0.02684,0.02928,0.13664,0.18544,0.13664,0.05368,-0.0244
0.01464,-0.04148,0.06832,0.061,0.05368,-0.01952,0.0244,0.14152,0.20008,0.15128,0.06832,-0.00488
0.01952,-0.0488,0.07808,0.06832,0.05856,-0.01952,0.01464,0.14152,0.20984,0.16104,0.08296,0.00488
0.01952,-0.0488,0.07808,0.06832,0.05856,-0.01952,0.00976,0.15128,0.21472,0.17568,0.10248,0.01952
0.01952,-0.05368,0.08784,0.07808,0.06832,-0.0244,0.00488,0.15128,0.2196,0.17568,0.10736,0.03904
0.00976,-0.0488,0.08784,0.08296,0.07808,-0.03416,0.00488,0.1464,0.2196,0.18056,0.122,0.04392
0.01464,-0.04392,0.0732,0.06588,0.05856,-0.02196,-0.00976,0.13664,0.2196,0.18056,0.12688,0.0488
0.01952,-0.05124,0.08296,0.0732,0.06344,-0.02196,-0.02928,0.11224,0.20008,0.1708,0.11712,0.04392
0.02928,-0.06344,0.0976,0.08296,0.06832,-0.01952,-0.02928,0.10736,0.19032,0.1708,0.122,0.04392
0.03416,-0.06832,0.10248,0.0854,0.06832,-0.01708,-0.04392,0.08784,0.18056,0.16104,0.10736,0.04392
0.03904,-0.07076,0.10248,0.08296,0.06344,-0.0122,-0.04392,0.07808,0.16104,0.15128,0.10736,0.04392
0.02928,-0.05856,0.08784,0.0732,0.05856,-0.01464,-0.03904,0.06344,0.1464,0.14152,0.10248,0.04392
0.0244,-0.04392,0.06344,0.05124,0.03904,-0.00732,-0.03904,0.05856,0.12688,0.13176,0.0976,0.03416
0.03416,-0.04636,0.05856,0.04148,0.0244,0.00488,-0.02928,0.0488,0.10736,0.10736,0.07808,0.03416
0.02928,-0.03904,0.0488,0.03416,0.01952,0.00488,-0.0244,0.03904,0.08784,0.09272,0.06344,0.01952
0.01952,-0.02928,0.03904,0.02928,0.01952,0,-0.01952,0.03904,0.07808,0.0732,0.05368,0.01464
0.01464,-0.01952,0.0244,0.01708,0.00976,0.00244,-0.00976,0.02928,0.05856,0.05856,0.04392,0.00488
0,0.00244,-0.00488,-0.00488,-0.00488,0.00244,0.00488,0.0244,0.03416,0.03904,0.02928,0
-0.01952,0.03172,-0.04392,-0.03416,-0.0244,0.00244,0.00976,0.01952,0.01464,0.01952,0.00976,-0.00976
-0.02928,0.0488,-0.06832,-0.05368,-0.03904,0.00488,0.00488,0.00488,-0.01952,0.00488,-0.00976,-0.03416
-0.03904,0.05124,-0.06344,-0.04392,-0.0244,-0.00732,0.00488,0.00488,-0.03904,-0.01464,-0.0244,-0.0488
-0.04392,0.0488,-0.05368,-0.03172,-0.00976,-0.01708,0.00488,-0.01464,-0.05856,-0.03416,-0.03904,-0.06832
-0.03904,0.0488,-0.05856,-0.03904,-0.01952,-0.00976,0.01464,-0.01952,-0.06832,-0.04392,-0.0488,-0.0732
-0.04392,0.0488,-0.05368,-0.03172,-0.00976,-0.01708,0.02928,-0.01952,-0.06832,-0.0488,-0.05368,-0.0732
-0.0488,0.05368,-0.05856,-0.03416,-0.00976,-0.01952,0.03416,-0.01952,-0.0732,-0.05856,-0.06344,-0.0732
-0.0488,0.05612,-0.06344,-0.03904,-0.01464,-0.01708,0.04392,-0.00976,-0.0732,-0.05368,-0.05856,-0.06832
-0.0488,0.05612,-0.06344,-0.03904,-0.01464,-0.01708,0.04392,-0.01464,-0.07808,-0.05856,-0.05856,-0.0732
-0.03904,0.0488,-0.05856,-0.03904,-0.01952,-0.00976,0.04392,-0.01464,-0.08296,-0.06344,-0.05856,-0.0732
-0.04392,0.05368,-0.06344,-0.04148,-0.01952,-0.0122,0.04392,-0.01464,-0.08784,-0.06344,-0.05856,-0.0732
-0.05368,0.06344,-0.0732,-0.04636,-0.01952,-0.01708,0.03416,-0.01952,-0.08784,-0.06832,-0.06344,-0.07808
-0.05368,0.06344,-0.0732,-0.04636,-0.01952,-0.01708,0.03416,-0.01952,-0.08784,-0.06832,-0.06344,-0.07808
-0.06344,0.07076,-0.07808,-0.04636,-0.01464,-0.0244,0.03416,-0.0244,-0.09272,-0.06832,-0.06344,-0.08296
-0.06344,0.07564,-0.08784,-0.05612,-0.0244,-0.01952,0.03416,-0.0244,-0.09272,-0.06832,-0.06344,-0.08296
-0.06344,0.07564,-0.08784,-0.05612,-0.0244,-0.01952,0.03416,-0.0244,-0.08296,-0.06832,-0.06344,-0.0732
-0.06344,0.07564,-0.08784,-0.05612,-0.0244,-0.01952,0.03416,-0.0244,-0.08296,-0.06832,-0.06832,-0.0732
-0.06832,0.07076,-0.0732,-0.03904,-0.00488,-0.03172,0.03416,-0.01952,-0.09272,-0.06344,-0.06344,-0.0732
-0.06832,0.07076,-0.0732,-0.03904,-0.00488,-0.03172,0.03416,-0.0244,-0.08784,-0.06832,-0.06344,-0.0732
-0.05856,0.06588,-0.0732,-0.04392,-0.01464,-0.02196,0.04392,-0.0244,-0.07808,-0.06344,-0.06344,-0.0732
-0.05856,0.06588,-0.0732,-0.04392,-0.01464,-0.02196,0.0488,-0.0244,-0.07808,-0.05856,-0.05856,-0.0732
-0.05856,0.06588,-0.0732,-0.04392,-0.01464,-0.02196,0.0488,-0.01952,-0.0732,-0.06344,-0.05368,-0.06832
-0.05368,0.061,-0.06832,-0.04148,-0.01464,-0.01952,0.0488,-0.01952,-0.06832,-0.06344,-0.05368,-0.06832
-0.06344,0.06832,-0.0732,-0.04148,-0.00976,-0.02684,0.03416,-0.00976,-0.06832,-0.05368,-0.05368,-0.06344
-0.06344,0.06832,-0.0732,-0.04148,-0.00976,-0.02684,0.03416,-0.00976,-0.06832,-0.0488,-0.05368,-0.06344
-0.05368,0.06588,-0.07808,-0.05124,-0.0244,-0.01464,0.0244,-0.01952,-0.07808,-0.05856,-0.05368,-0.06344
-0.05368,0.06588,-0.07808,-0.05124,-0.0244,-0.01464,0.02928,-0.01952,-0.07808,-0.05856,-0.05368,-0.06344
-0.0488,0.06832,-0.08784,-0.06344,-0.03904,-0.00488,0.03416,-0.00488,-0.06832,-0.0488,-0.0488,-0.0488
-0.0488,0.06832,-0.08784,-0.06344,-0.03904,-0.00488,0.03416,-0.00488,-0.06344,-0.04392,-0.0488,-0.0488
-0.05368,0.06832,-0.08296,-0.05612,-0.02928,-0.0122,0.03416,-0.01464,-0.0732,-0.0488,-0.03904,-0.04392
-0.04392,0.05612,-0.06832,-0.04636,-0.0244,-0.00976,0.03904,-0.00976,-0.06832,-0.0488,-0.04392,-0.03904
-0.03904,0.04392,-0.0488,-0.02928,-0.00976,-0.01464,0.02928,-0.01952,-0.07808,-0.05856,-0.0488,-0.0488
-0.03904,0.04392,-0.0488,-0.02928,-0.00976,-0.01464,0.02928,-0.01952,-0.07808,-0.05856,-0.0488,-0.0488
-0.03904,0.0366,-0.03416,-0.01464,0.00488,-0.02196,0.03904,-0.00976,-0.06344,-0.0488,-0.04392,-0.03904
-0.0244,0.0244,-0.0244,-0.0122,0,-0.0122,0.0244,-0.01464,-0.05368,-0.03416,-0.03416,-0.02928
-0.03416,0.02684,-0.01952,-0.00244,0.01464,-0.0244,0.01952,-0.00488,-0.04392,-0.01952,-0.0244,-0.01952
-0.01952,0.01464,-0.00976,0,0.00976,-0.01464,0.01952,0,-0.02928,-0.00976,-0.00976,-0.01464
-0.00976,0.00732,-0.00488,0,0.00488,-0.00732,0.00976,-0.00976,-0.02928,0,0.00488,-0.00976
-0.00976,0.00244,0.00488,0.00976,0.01464,-0.0122,0.00976,-0.00976,-0.01952,0.00488,0.00488,-0.00488
0.00488,-0.00976,0.01464,0.0122,0.00976,-0.00244,0.00976,0.00488,0,0.01464,0.01464,0
0.00976,-0.01952,0.02928,0.0244,0.01952,-0.00488,-0.00488,-0.00488,0.00976,0.0244,0.0244,0.00976
0.0244,-0.03416,0.04392,0.03172,0.01952,0.00244,-0.0244,-0.00976,0.01952,0.03904,0.03904,0.02928
0.03416,-0.04148,0.0488,0.03172,0.01464,0.00976,-0.0488,-0.02928,0.01952,0.0488,0.0488,0.03904
0.04392,-0.05124,0.05856,0.0366,0.01464,0.01464,-0.0732,-0.04392,0.00488,0.0488,0.04392,0.04392
0.05368,-0.06588,0.07808,0.05124,0.0244,0.01464,-0.07808,-0.04392,0,0.04392,0.04392,0.04392
0.06344,-0.07564,0.08784,0.05612,0.0244,0.01952,-0.08784,-0.05368,-0.0244,0.03904,0.03904,0.03416
0.06832,-0.0854,0.10248,0.06832,0.03416,0.01708,-0.08784,-0.05368,-0.03416,0.0244,0.02928,0.03416
0.0732,-0.0854,0.0976,0.061,0.0244,0.0244,-0.08296,-0.0488,-0.02928,0.0244,0.02928,0.03416
0.0732,-0.08052,0.08784,0.05124,0.01464,0.02928,-0.0732,-0.0488,-0.03904,0.01464,0.02928,0.03416
0.07808,-0.06832,0.05856,0.01952,-0.01952,0.0488,-0.06344,-0.03416,-0.03416,0.01464,0.02928,0.02928
0.06832,-0.05368,0.03904,0.00488,-0.02928,0.0488,-0.05368,-0.03416,-0.0488,0.00488,0.0244,0.03416
0.05856,-0.04148,0.0244,-0.00488,-0.03416,0.04636,-0.03416,-0.02928,-0.06832,-0.01464,0.00976,0.02928
0.03904,-0.02196,0.00488,-0.01464,-0.03416,0.0366,-0.01952,-0.02928,-0.07808,-0.0244,0,0.01952
0.00976,-0.00244,-0.00488,-0.00976,-0.01464,0.0122,-0.00488,-0.03416,-0.08784,-0.03416,-0.01952,-0.01464
-0.01464,0.02196,-0.02928,-0.02196,-0.01464,0,0.01464,-0.0244,-0.0976,-0.04392,-0.02928,-0.02928
-0.03904,0.04636,-0.05368,-0.03416,-0.01464,-0.0122,0.02928,-0.01464,-0.0976,-0.05856,-0.0488,-0.04392
-0.04392,0.05612,-0.06832,-0.04636,-0.0244,-0.00976,0.0488,-0.00976,-0.10736,-0.06344,-0.05368,-0.05368
-0.05368,0.06832,-0.08296,-0.05612,-0.02928,-0.0122,0.05368,-0.01952,-0.11712,-0.08296,-0.0732,-0.05368
-0.05368,0.0732,-0.09272,-0.06588,-0.03904,-0.00732,0.05856,-0.01464,-0.122,-0.09272,-0.08296,-0.06344
-0.06344,0.09028,-0.11712,-0.0854,-0.05368,-0.00488,0.06832,-0.01464,-0.13664,-0.10736,-0.08784,-0.06832
-0.06344,0.09272,-0.122,-0.09028,-0.05856,-0.00244,0.0732,-0.01464,-0.13664,-0.10736,-0.08784,-0.06832
-0.07808,0.10492,-0.13176,-0.09272,-0.05368,-0.0122,0.07808,-0.00488,-0.12688,-0.0976,-0.08784,-0.07808
-0.07808,0.10736,-0.13664,-0.0976,-0.05856,-0.00976,0.07808,-0.00488,-0.13176,-0.10248,-0.09272,-0.08296
-0.07808,0.11224,-0.1464,-0.10736,-0.06832,-0.00488,0.08296,-0.00976,-0.13176,-0.10248,-0.09272,-0.07808
-0.07808,0.11224,-0.1464,-0.10736,-0.06832,-0.00488,0.08784,-0.00976,-0.13176,-0.10248,-0.0976,-0.07808
-0.08296,0.11224,-0.14152,-0.10004,-0.05856,-0.0122,0.08784,-0.00976,-0.13176,-0.10248,-0.09272,-0.07808
-0.08296,0.10736,-0.13176,-0.09028,-0.0488,-0.01708,0.08784,-0.00976,-0.13176,-0.10248,-0.09272,-0.07808
-0.09272,0.1098,-0.12688,-0.08052,-0.03416,-0.02928,0.08296,-0.01464,-0.14152,-0.10736,-0.0976,-0.08784
-0.09272,0.11224,-0.13176,-0.0854,-0.03904,-0.02684,0.08296,-0.01464,-0.13664,-0.10736,-0.0976,-0.08784
-0.08784,0.11468,-0.14152,-0.0976,-0.05368,-0.01708,0.09272,-0.00488,-0.13176,-0.10736,-0.08784,-0.07808
-0.07808,0.11224,-0.1464,-0.10736,-0.06832,-0.00488,0.08784,-0.00488,-0.13176,-0.10736,-0.09272,-0.07808
-0.06832,0.10736,-0.1464,-0.11224,-0.07808,0.00488,0.08784,-0.00976,-0.13176,-0.11712,-0.10248,-0.08784
-0.06832,0.1098,-0.15128,-0.11712,-0.08296,0.00732,0.08784,-0.00488,-0.12688,-0.11224,-0.10248,-0.09272
-0.07808,0.11224,-0.1464,-0.10736,-0.06832,-0.00488,0.09272,0.00488,-0.12688,-0.11224,-0.10248,-0.08784
-0.09272,0.13176,-0.1708,-0.12444,-0.07808,-0.00732,0.11224,0.03416,-0.11712,-0.10736,-0.10248,-0.0976
-0.10248,0.14152,-0.18056,-0.12932,-0.07808,-0.0122,0.13176,0.05856,-0.08296,-0.0976,-0.10736,-0.10736
-0.122,0.15616,-0.19032,-0.12932,-0.06832,-0.02684,0.16104,0.08784,-0.01464,-0.0488,-0.09272,-0.11712
-0.11224,0.13908,-0.16592,-0.1098,-0.05368,-0.02928,0.16592,0.12688,0.10248,0.03904,-0.03416,-0.08296
-0.03904,0.0732,-0.10736,-0.08784,-0.06832,0.01464,0.13664,0.1464,0.22448,0.18056,0.0976,0.03416
0.122,-0.0732,0.0244,-0.0366,-0.0976,0.1098,0.03904,0.16592,0.30744,0.35136,0.30256,0.20496
0.36112,-0.2684,0.17568,-0.00488,-0.18544,0.27328,-0.12688,0.18056,0.35624,0.54656,0.59048,0.44896
0.66368,-0.51484,0.366,0.03416,-0.29768,0.48068,-0.32696,0.20496,0.36112,0.74176,0.9028,0.72712
0.93696,-0.74664,0.55632,0.08784,-0.38064,0.6588,-0.54656,0.1708,0.25376,0.81008,1.1224,0.95648
1.08824,-0.88572,0.6832,0.13908,-0.40504,0.74664,-0.71736,0.05856,0.00488,0.69296,1.1224,1.03944
1.0492,-0.8784,0.7076,0.183,-0.3416,0.6954,-0.79544,-0.16592,-0.35624,0.3904,0.91744,0.95648
0.83936,-0.7442,0.64904,0.22936,-0.19032,0.51484,-0.77104,-0.43432,-0.732,-0.01464,0.55144,0.732
0.59048,-0.55876,0.52704,0.2318,-0.06344,0.32696,-0.66856,-0.62952,-0.98088,-0.34648,0.19032,0.47336
0.38064,-0.37576,0.37088,0.18056,-0.00976,0.1952,-0.5368,-0.6832,-1.05408,-0.52216,-0.0488,0.2684
0.26352,-0.2562,0.24888,0.11712,-0.01464,0.13908,-0.40016,-0.59536,-0.94184,-0.54168,-0.15128,0.14152
0.16592,-0.14396,0.122,0.03904,-0.04392,0.10492,-0.27328,-0.43432,-0.75152,-0.47336,-0.18056,0.06344
0.07808,-0.05856,0.03904,0,-0.03904,0.05856,-0.16592,-0.31232,-0.57096,-0.38064,-0.18544,0.00488
-0.0244,0.03172,-0.03904,-0.02684,-0.01464,-0.00488,-0.0732,-0.21472,-0.43432,-0.3172,-0.18544,-0.05368
-0.07808,0.0854,-0.09272,-0.05368,-0.01464,-0.03172,-0.00488,-0.1464,-0.33672,-0.27328,-0.18056,-0.08784
-0.10736,0.10736,-0.10736,-0.05368,0,-0.05368,0.03416,-0.10736,-0.27328,-0.23424,-0.17568,-0.10736
-0.122,0.11956,-0.11712,-0.05612,0.00488,-0.06344,0.05856,-0.0732,-0.22448,-0.20496,-0.16592,-0.11712
-0.11712,0.12444,-0.13176,-0.0732,-0.01464,-0.05124,0.0732,-0.0488,-0.1952,-0.18056,-0.16592,-0.122
-0.12688,0.13664,-0.1464,-0.08296,-0.01952,-0.05368,0.08784,-0.0244,-0.16104,-0.16104,-0.15128,-0.122
-0.12688,0.13908,-0.15128,-0.08784,-0.0244,-0.05124,0.0976,-0.00976,-0.1464,-0.15616,-0.1464,-0.122
-0.12688,0.13908,-0.15128,-0.08784,-0.0244,-0.05124,0.0976,0,-0.13664,-0.1464,-0.1464,-0.122
-0.122,0.13664,-0.15128,-0.09028,-0.02928,-0.04636,0.10736,0.00976,-0.11712,-0.13664,-0.13176,-0.11224
-0.11224,0.1342,-0.15616,-0.10004,-0.04392,-0.03416,0.10736,0.00976,-0.11224,-0.122,-0.13176,-0.11224
-0.10248,0.13176,-0.16104,-0.1098,-0.05856,-0.02196,0.11224,0.01952,-0.0976,-0.11224,-0.11712,-0.11224
-0.10736,0.13176,-0.15616,-0.10248,-0.0488,-0.02928,0.11712,0.0244,-0.09272,-0.10248,-0.11712,-0.10736
-0.11712,0.13176,-0.1464,-0.08784,-0.02928,-0.04392,0.11712,0.0244,-0.0976,-0.11224,-0.11712,-0.10736
-0.11712,0.13176,-0.1464,-0.08784,-0.02928,-0.04392,0.11712,0.0244,-0.10248,-0.11224,-0.12688,-0.10248
-0.11712,0.13176,-0.1464,-0.08784,-0.02928,-0.04392,0.11224,0.02928,-0.10248,-0.11224,-0.12688,-0.10248
-0.11224,0.12932,-0.1464,-0.09028,-0.03416,-0.03904,0.11224,0.02928,-0.10248,-0.10736,-0.12688,-0.10248
-0.11224,0.13176,-0.15128,-0.09516,-0.03904,-0.0366,0.11712,0.03904,-0.10248,-0.10736,-0.12688,-0.10248
-0.10736,0.1342,-0.16104,-0.10736,-0.05368,-0.02684,0.11712,0.03904,-0.0976,-0.10248,-0.122,-0.10248
-0.11712,0.14152,-0.16592,-0.10736,-0.0488,-0.03416,0.11224,0.02928,-0.0976,-0.11224,-0.13176,-0.11224
-0.11712,0.14152,-0.16592,-0.10736,-0.0488,-0.03416,0.10736,0.02928,-0.0976,-0.10736,-0.13176,-0.11224
-0.11712,0.14152,-0.16592,-0.10736,-0.0488,-0.03416,0.10736,0.02928,-0.08784,-0.11224,-0.13176,-0.11224
-0.11712,0.13664,-0.15616,-0.0976,-0.03904,-0.03904,0.10736,0.02928,-0.08296,-0.11224,-0.13176,-0.11224
-0.10736,0.12444,-0.14152,-0.08784,-0.03416,-0.0366,0.10248,0.02928,-0.08296,-0.10248,-0.122,-0.10736
-0.10248,0.11712,-0.13176,-0.08052,-0.02928,-0.0366,0.10248,0.02928,-0.07808,-0.10248,-0.122,-0.10736
-0.11224,0.11712,-0.122,-0.06588,-0.00976,-0.05124,0.09272,0.03416,-0.08784,-0.0976,-0.122,-0.10248
-0.10736,0.11224,-0.11712,-0.06344,-0.00976,-0.0488,0.09272,0.03416,-0.08296,-0.0976,-0.122,-0.10248
-0.0976,0.10736,-0.11712,-0.06832,-0.01952,-0.03904,0.0976,0.03416,-0.08784,-0.09272,-0.122,-0.10248
-0.09272,0.10004,-0.10736,-0.061,-0.01464,-0.03904,0.0976,0.03416,-0.08296,-0.09272,-0.122,-0.10248
-0.08784,0.10248,-0.11712,-0.0732,-0.02928,-0.02928,0.0976,0.03416,-0.08296,-0.08784,-0.11712,-0.10248
-0.09272,0.10492,-0.11712,-0.07076,-0.0244,-0.03416,0.0976,0.03416,-0.0732,-0.08296,-0.11712,-0.10248
-0.10248,0.11224,-0.122,-0.07076,-0.01952,-0.04148,0.0976,0.03904,-0.05856,-0.07808,-0.11224,-0.0976
-0.10248,0.11224,-0.122,-0.07076,-0.01952,-0.04148,0.0976,0.04392,-0.05368,-0.06832,-0.10736,-0.0976
-0.10736,0.1098,-0.11224,-0.05856,-0.00488,-0.05124,0.10736,0.05856,-0.03416,-0.05856,-0.0976,-0.09272
-0.10736,0.10492,-0.10248,-0.0488,0.00488,-0.05612,0.10736,0.05856,-0.02928,-0.0488,-0.08784,-0.08784
-0.09272,0.09516,-0.0976,-0.05124,-0.00488,-0.04392,0.10248,0.0732,-0.02928,-0.0488,-0.08784,-0.0732
-0.09272,0.09516,-0.0976,-0.05124,-0.00488,-0.04392,0.0976,0.0732,-0.01952,-0.04392,-0.08296,-0.0732
-0.07808,0.07564,-0.0732,-0.03416,0.00488,-0.04148,0.08784,0.06832,-0.01952,-0.0488,-0.08784,-0.07808
-0.0732,0.07076,-0.06832,-0.03172,0.00488,-0.03904,0.08296,0.07808,-0.01464,-0.03904,-0.07808,-0.0732
-0.07808,0.0732,-0.06832,-0.02928,0.00976,-0.04392,0.08296,0.0732,-0.00488,-0.04392,-0.08296,-0.07808
-0.07808,0.0732,-0.06832,-0.02928,0.00976,-0.04392,0.07808,0.08296,0.00488,-0.03416,-0.0732,-0.0732
-0.07808,0.07808,-0.07808,-0.03904,0,-0.03904,0.07808,0.0976,0.02928,-0.00976,-0.06344,-0.06344
-0.0732,0.08296,-0.09272,-0.05612,-0.01952,-0.02684,0.07808,0.10248,0.04392,0.01464,-0.0488,-0.05368
-0.06832,0.0732,-0.07808,-0.04392,-0.00976,-0.02928,0.0732,0.11224,0.06344,0.02928,-0.03904,-0.04392
-0.06344,0.06344,-0.06344,-0.03172,0,-0.03172,0.06832,0.11224,0.08296,0.0488,-0.0244,-0.03416
-0.05368,0.04392,-0.03416,-0.00732,0.01952,-0.0366,0.06344,0.12688,0.10248,0.05856,-0.01464,-0.02928
-0.05368,0.03416,-0.01464,0.0122,0.03904,-0.04636,0.05856,0.1464,0.11224,0.0732,0,-0.01952
-0.03904,0.01952,0,0.01952,0.03904,-0.03904,0.06832,0.15128,0.122,0.07808,0.01952,0
-0.01952,0,0.01952,0.02928,0.03904,-0.02928,0.05368,0.15128,0.13176,0.09272,0.03904,0.01464
-0.01464,0,0.01464,0.02196,0.02928,-0.02196,0.0488,0.16592,0.15128,0.10736,0.0488,0.01952
-0.00488,-0.00976,0.0244,0.02684,0.02928,-0.01708,0.04392,0.16592,0.16104,0.122,0.06344,0.02928
0,-0.0122,0.0244,0.0244,0.0244,-0.0122,0.02928,0.16104,0.15616,0.12688,0.06344,0.03904
0,-0.01708,0.03416,0.03416,0.03416,-0.01708,0.0244,0.16104,0.16592,0.12688,0.07808,0.0488
0,-0.02196,0.04392,0.04392,0.04392,-0.02196,0.01952,0.15128,0.16592,0.13664,0.08784,0.0488
-0.00976,-0.02196,0.05368,0.05856,0.06344,-0.0366,0.01464,0.1464,0.1708,0.14152,0.09272,0.05368
0.00488,-0.02928,0.05368,0.05124,0.0488,-0.02196,0.01464,0.1464,0.18056,0.15128,0.09272,0.06344
0.00488,-0.02684,0.0488,0.04636,0.04392,-0.01952,0.00488,0.15128,0.18056,0.15128,0.0976,0.07808
0.01464,-0.03904,0.06344,0.05612,0.0488,-0.01708,0.00976,0.15128,0.16592,0.14152,0.10248,0.08296
0.01464,-0.04148,0.06832,0.061,0.05368,-0.01952,0.00488,0.14152,0.15616,0.14152,0.10248,0.08296
0.01464,-0.03904,0.06344,0.05612,0.0488,-0.01708,0.00488,0.122,0.13664,0.12688,0.0976,0.0732
0.01952,-0.0366,0.05368,0.04392,0.03416,-0.00732,0,0.10736,0.122,0.11712,0.08784,0.0732
0.01952,-0.03416,0.0488,0.03904,0.02928,-0.00488,0,0.09272,0.10736,0.10736,0.08296,0.0732
0.01464,-0.02928,0.04392,0.0366,0.02928,-0.00732,0,0.08296,0.08784,0.08784,0.0732,0.05856
0.0244,-0.03172,0.03904,0.02684,0.01464,0.00488,0.00488,0.06344,0.06832,0.0732,0.06344,0.05368
0.01464,-0.02196,0.02928,0.02196,0.01464,0,0.01464,0.05368,0.0488,0.05368,0.04392,0.04392
0,-0.00488,0.00976,0.00976,0.00976,-0.00488,0.0244,0.05368,0.02928,0.04392,0.02928,0.03904
-0.00488,0.00488,-0.00488,-0.00244,0,-0.00244,0.02928,0.0488,0.00976,0.02928,0.01952,0.02928
-0.02928,0.03172,-0.03416,-0.01952,-0.00488,-0.0122,0.0244,0.02928,-0.01464,0,-0.00976,0.00488
-0.03416,0.04392,-0.05368,-0.0366,-0.01952,-0.00732,0.03416,0.0244,-0.03904,-0.01952,-0.0244,-0.01464
-0.05368,0.06344,-0.0732,-0.04636,-0.01952,-0.01708,0.04392,0.01464,-0.0488,-0.03904,-0.03904,-0.03416
-0.06344,0.07076,-0.07808,-0.04636,-0.01464,-0.0244,0.05368,0.00488,-0.06344,-0.0488,-0.05856,-0.0488
-0.06344,0.06832,-0.0732,-0.04148,-0.00976,-0.02684,0.05856,0.01464,-0.06344,-0.0488,-0.05368,-0.04392
-0.06832,0.07808,-0.08784,-0.05368,-0.01952,-0.0244,0.06344,0.00976,-0.0732,-0.05856,-0.06344,-0.0488
-0.07808,0.08296,-0.08784,-0.0488,-0.00976,-0.03416,0.06344,0,-0.08296,-0.05856,-0.06832,-0.06344
-0.07808,0.08052,-0.08296,-0.04392,-0.00488,-0.0366,0.06344,0,-0.08784,-0.0732,-0.0732,-0.06832
-0.08784,0.09516,-0.10248,-0.05856,-0.01464,-0.0366,0.05368,0,-0.10248,-0.08784,-0.08784,-0.0732
-0.08784,0.0976,-0.10736,-0.06344,-0.01952,-0.03416,0.05368,-0.00488,-0.11224,-0.09272,-0.08784,-0.0732
-0.08784,0.10004,-0.11224,-0.06832,-0.0244,-0.03172,0.06344,-0.01464,-0.11224,-0.10248,-0.0976,-0.0732
-0.09272,0.10248,-0.11224,-0.06588,-0.01952,-0.0366,0.06344,-0.01952,-0.11712,-0.10248,-0.10248,-0.07808
-0.08296,0.0976,-0.11224,-0.07076,-0.02928,-0.02684,0.0732,-0.01952,-0.11712,-0.10736,-0.09272,-0.07808
-0.0732,0.08784,-0.10248,-0.06588,-0.02928,-0.02196,0.0732,-0.0244,-0.11712,-0.10736,-0.09272,-0.07808
-0.08296,0.0976,-0.11224,-0.07076,-0.02928,-0.02684,0.0732,-0.01464,-0.11224,-0.10736,-0.09272,-0.08296
-0.09272,0.10736,-0.122,-0.07564,-0.02928,-0.03172,0.0732,-0.01464,-0.11224,-0.10736,-0.09272,-0.08296
-0.10248,0.11468,-0.12688,-0.07564,-0.0244,-0.03904,0.0732,-0.00488,-0.10248,-0.0976,-0.09272,-0.08296
-0.10736,0.11468,-0.122,-0.06832,-0.01464,-0.04636,0.0732,0,-0.10248,-0.10248,-0.0976,-0.08296
-0.0976,0.10492,-0.11224,-0.06344,-0.01464,-0.04148,0.0732,-0.00488,-0.10248,-0.0976,-0.09272,-0.08296
-0.0976,0.10492,-0.11224,-0.06344,-0.01464,-0.04148,0.0732,-0.00488,-0.0976,-0.09272,-0.09272,-0.08296
-0.08784,0.09028,-0.09272,-0.0488,-0.00488,-0.04148,0.06344,-0.01464,-0.0976,-0.09272,-0.08784,-0.0732
-0.08784,0.0854,-0.08296,-0.03904,0.00488,-0.04636,0.06832,-0.00976,-0.09272,-0.08784,-0.08296,-0.06832
-0.08296,0.08784,-0.09272,-0.05124,-0.00976,-0.0366,0.06832,-0.00976,-0.10248,-0.09272,-0.08296,-0.06832
-0.08296,0.09028,-0.0976,-0.05612,-0.01464,-0.03416,0.06344,-0.00976,-0.0976,-0.09272,-0.08296,-0.06832
-0.09272,0.10248,-0.11224,-0.06588,-0.01952,-0.0366,0.06344,-0.00976,-0.0976,-0.08784,-0.09272,-0.0732
-0.09272,0.10736,-0.122,-0.07564,-0.02928,-0.03172,0.06344,-0.00976,-0.0976,-0.09272,-0.08784,-0.06832
-0.09272,0.10004,-0.10736,-0.061,-0.01464,-0.03904,0.06832,-0.00976,-0.10736,-0.0976,-0.09272,-0.0732
-0.08784,0.0976,-0.10736,-0.06344,-0.01952,-0.03416,0.06344,-0.00488,-0.10736,-0.0976,-0.08784,-0.08296
-0.0976,0.10248,-0.10736,-0.05856,-0.00976,-0.04392,0.06344,-0.00488,-0.10248,-0.09272,-0.08784,-0.08784
-0.09272,0.0976,-0.10248,-0.05612,-0.00976,-0.04148,0.06344,-0.00488,-0.10248,-0.08784,-0.08784,-0.08296
-0.08296,0.0976,-0.11224,-0.07076,-0.02928,-0.02684,0.06832,0.00488,-0.08784,-0.08784,-0.08296,-0.0732
-0.08296,0.09516,-0.10736,-0.06588,-0.0244,-0.02928,0.06832,0.00976,-0.08784,-0.08296,-0.08296,-0.06832
-0.08296,0.0976,-0.11224,-0.07076,-0.02928,-0.02684,0.06344,0.00976,-0.0976,-0.09272,-0.07808,-0.06832
-0.07808,0.09028,-0.10248,-0.06344,-0.0244,-0.02684,0.06344,0.00488,-0.09272,-0.08784,-0.07808,-0.05856
-0.08296,0.09028,-0.0976,-0.05612,-0.01464,-0.03416,0.06832,0.00488,-0.0976,-0.09272,-0.07808,-0.06344
-0.07808,0.08784,-0.0976,-0.05856,-0.01952,-0.02928,0.05856,0.00976,-0.0976,-0.08784,-0.06832,-0.05856
-0.07808,0.08784,-0.0976,-0.05856,-0.01952,-0.02928,0.05856,0.00976,-0.0976,-0.08784,-0.06832,-0.05856
-0.07808,0.08052,-0.08296,-0.04392,-0.00488,-0.0366,0.05856,0.00976,-0.08296,-0.07808,-0.06344,-0.05856
-0.06344,0.06832,-0.0732,-0.04148,-0.00976,-0.02684,0.04392,0.00488,-0.0732,-0.06344,-0.05368,-0.0488
-0.05368,0.05124,-0.0488,-0.02196,0.00488,-0.02928,0.0488,0.01464,-0.06344,-0.0488,-0.04392,-0.03904
-0.03904,0.03904,-0.03904,-0.01952,0,-0.01952,0.0488,0.01952,-0.0488,-0.03904,-0.02928,-0.03416
-0.0488,0.04148,-0.03416,-0.00976,0.01464,-0.03172,0.0488,0.01952,-0.03904,-0.03904,-0.03416,-0.03904
-0.0488,0.0366,-0.0244,0,0.0244,-0.0366,0.0488,0.01952,-0.02928,-0.03416,-0.03416,-0.03416
-0.03416,0.02684,-0.01952,-0.00244,0.01464,-0.0244,0.02928,0.0244,-0.02928,-0.0244,-0.0244,-0.02928
-0.02928,0.02196,-0.01464,0,0.01464,-0.02196,0.01464,0.01464,-0.01952,-0.01464,-0.01464,-0.01952
-0.01464,0.00488,0.00488,0.0122,0.01952,-0.01708,-0.01464,-0.00976,-0.01952,-0.00976,-0.00976,0
-0.00488,-0.0122,0.02928,0.03172,0.03416,-0.01952,-0.03904,-0.02928,-0.01952,0,0,0.00976
0.01464,-0.03416,0.05368,0.04636,0.03904,-0.0122,-0.05368,-0.03416,-0.03416,-0.00976,-0.00488,0.00488
0.0244,-0.04392,0.06344,0.05124,0.03904,-0.00732,-0.05856,-0.03416,-0.03904,-0.01464,-0.00488,0.00488
0.03416,-0.04392,0.05368,0.0366,0.01952,0.00732,-0.05856,-0.03416,-0.04392,-0.0244,-0.01464,0.00488
0.03904,-0.0488,0.05856,0.03904,0.01952,0.00976,-0.05856,-0.03416,-0.05368,-0.02928,-0.01464,0.00488
0.04392,-0.0488,0.05368,0.03172,0.00976,0.01708,-0.05368,-0.01952,-0.05856,-0.0244,-0.00976,0.00488
0.04392,-0.03904,0.03416,0.0122,-0.00976,0.02684,-0.04392,-0.01952,-0.06832,-0.03416,-0.00976,0.00488
0.02928,-0.0244,0.01952,0.00488,-0.00976,0.01952,-0.02928,-0.01464,-0.06344,-0.03416,-0.00976,0.00488
0.01952,-0.00976,0,-0.00976,-0.01952,0.01952,-0.00976,-0.01464,-0.07808,-0.04392,-0.01464,0
0,0.00488,-0.00976,-0.00976,-0.00976,0.00488,0.00488,-0.01952,-0.0976,-0.06344,-0.02928,-0.00976
-0.01952,0.02928,-0.03904,-0.02928,-0.01952,0,0.01952,-0.01952,-0.10736,-0.0732,-0.03904,-0.01952
-0.02928,0.05124,-0.0732,-0.05856,-0.04392,0.00732,0.03416,-0.01464,-0.11712,-0.08296,-0.05856,-0.04392
-0.05368,0.07564,-0.0976,-0.07076,-0.04392,-0.00488,0.05368,-0.00488,-0.12688,-0.09272,-0.06832,-0.05856
-0.07808,0.09028,-0.10248,-0.06344,-0.0244,-0.02684,0.06344,-0.01464,-0.12688,-0.10736,-0.07808,-0.06344
-0.08296,0.10004,-0.11712,-0.07564,-0.03416,-0.0244,0.0732,-0.00976,-0.13664,-0.11224,-0.08296,-0.0732
-0.10248,0.11224,-0.122,-0.07076,-0.01952,-0.04148,0.08296,-0.00976,-0.1464,-0.122,-0.10248,-0.0732
-0.10248,0.11712,-0.13176,-0.08052,-0.02928,-0.0366,0.08784,-0.00488,-0.15128,-0.13176,-0.11224,-0.08296
-0.11224,0.1342,-0.15616,-0.10004,-0.04392,-0.03416,0.0976,0.00488,-0.15616,-0.13664,-0.10736,-0.08784
-0.11224,0.13664,-0.16104,-0.10492,-0.0488,-0.03172,0.10248,0.00488,-0.15616,-0.13664,-0.10736,-0.08784
-0.11712,0.13908,-0.16104,-0.10248,-0.04392,-0.0366,0.10736,0.00488,-0.15616,-0.13664,-0.11712,-0.0976
-0.11712,0.14152,-0.16592,-0.10736,-0.0488,-0.03416,0.10736,0.00488,-0.16104,-0.14152,-0.122,-0.10248
-0.10736,0.13664,-0.16592,-0.11224,-0.05856,-0.0244,0.11224,0.00976,-0.15128,-0.13176,-0.11224,-0.0976
-0.10736,0.13664,-0.16592,-0.11224,-0.05856,-0.0244,0.11712,0.00976,-0.15128,-0.13176,-0.11712,-0.0976
-0.11224,0.1342,-0.15616,-0.10004,-0.04392,-0.03416,0.10736,0.00976,-0.15128,-0.13176,-0.11224,-0.0976
-0.11224,0.1342,-0.15616,-0.10004,-0.04392,-0.03416,0.10736,0.00976,-0.15128,-0.13176,-0.11224,-0.0976
-0.11224,0.13176,-0.15128,-0.09516,-0.03904,-0.0366,0.10248,0.00976,-0.15616,-0.1464,-0.12688,-0.0976
-0.11224,0.12932,-0.1464,-0.09028,-0.03416,-0.03904,0.10248,0,-0.16104,-0.1464,-0.12688,-0.0976
-0.11224,0.13176,-0.15128,-0.09516,-0.03904,-0.0366,0.11224,-0.00488,-0.1708,-0.1464,-0.12688,-0.10736
-0.11224,0.1342,-0.15616,-0.10004,-0.04392,-0.03416,0.10736,-0.00488,-0.1708,-0.1464,-0.13176,-0.10736
-0.10736,0.13664,-0.16592,-0.11224,-0.05856,-0.0244,0.10736,0,-0.1708,-0.1464,-0.13176,-0.10736
-0.10736,0.13908,-0.1708,-0.11712,-0.06344,-0.02196,0.10736,0.00488,-0.16592,-0.14152,-0.13176,-0.11224
-0.10736,0.13664,-0.16592,-0.11224,-0.05856,-0.0244,0.10248,0.00488,-0.16592,-0.15128,-0.14152,-0.11712
-0.11224,0.1464,-0.18056,-0.12444,-0.06832,-0.02196,0.122,0.0244,-0.1464,-0.1464,-0.14152,-0.12688
-0.122,0.16104,-0.20008,-0.13908,-0.07808,-0.02196,0.15128,0.05856,-0.11224,-0.12688,-0.1464,-0.13664
-0.122,0.1708,-0.2196,-0.1586,-0.0976,-0.0122,0.18056,0.0976,-0.03416,-0.08784,-0.13176,-0.12688
-0.122,0.1586,-0.1952,-0.1342,-0.0732,-0.0244,0.20496,0.13664,0.0732,0.00976,-0.06344,-0.08296
-0.06832,0.0976,-0.12688,-0.09272,-0.05856,-0.00488,0.15616,0.16592,0.18544,0.14152,0.06832,0.01464
0.08296,-0.02928,-0.0244,-0.06588,-0.10736,0.09516,0.05856,0.18544,0.2684,0.31232,0.28304,0.18544
0.32208,-0.22448,0.12688,-0.03416,-0.1952,0.25864,-0.10736,0.2196,0.3172,0.49776,0.55144,0.41968
0.64416,-0.48068,0.3172,-0.00488,-0.32696,0.48556,-0.30744,0.23424,0.32208,0.67344,0.854,0.69784
0.9272,-0.71248,0.49776,0.03416,-0.42944,0.67832,-0.52704,0.19032,0.18544,0.72224,1.03456,0.89792
1.098,-0.8662,0.6344,0.0854,-0.4636,0.7808,-0.69784,0.08784,-0.05368,0.59536,1.05408,0.98088
1.0492,-0.85888,0.66856,0.14396,-0.38064,0.71492,-0.77592,-0.15616,-0.40504,0.2928,0.8296,0.88816
0.8296,-0.71492,0.60024,0.18544,-0.22936,0.52948,-0.76128,-0.44408,-0.7808,-0.09272,0.4636,0.66368
0.57096,-0.5246,0.47824,0.19276,-0.09272,0.33184,-0.6588,-0.64904,-1.01992,-0.40504,0.122,0.4148
0.36112,-0.35624,0.35136,0.1708,-0.00976,0.18544,-0.52704,-0.71248,-1.0736,-0.5612,-0.0976,0.2196
0.22448,-0.2318,0.23912,0.12688,0.01464,0.10492,-0.3904,-0.61488,-0.96136,-0.57096,-0.19032,0.10248
0.13664,-0.1342,0.13176,0.06344,-0.00488,0.07076,-0.26352,-0.45384,-0.77104,-0.49288,-0.20008,0.03416
0.0488,-0.04392,0.03904,0.01464,-0.00976,0.02928,-0.15616,-0.32208,-0.59048,-0.40992,-0.21472,-0.0244
-0.03416,0.04148,-0.0488,-0.03172,-0.01464,-0.00976,-0.06344,-0.22448,-0.4636,-0.33672,-0.21472,-0.0732
-0.08784,0.09028,-0.09272,-0.0488,-0.00488,-0.04148,0.00488,-0.15616,-0.366,-0.2928,-0.20984,-0.10736
-0.11712,0.11224,-0.10736,-0.0488,0.00976,-0.06344,0.04392,-0.10736,-0.30256,-0.26352,-0.20496,-0.13664
-0.122,0.11956,-0.11712,-0.05612,0.00488,-0.06344,0.06832,-0.0732,-0.25376,-0.23424,-0.1952,-0.13664
-0.11712,0.12444,-0.13176,-0.0732,-0.01464,-0.05124,0.09272,-0.0488,-0.22448,-0.20984,-0.18544,-0.14152
-0.11712,0.12688,-0.13664,-0.07808,-0.01952,-0.0488,0.10736,-0.0244,-0.18056,-0.18056,-0.1708,-0.14152
-0.12688,0.14396,-0.16104,-0.0976,-0.03416,-0.04636,0.11712,-0.00976,-0.15616,-0.16592,-0.16592,-0.14152
-0.12688,0.14884,-0.1708,-0.10736,-0.04392,-0.04148,0.11712,0,-0.1464,-0.15616,-0.16592,-0.14152
-0.14152,0.16104,-0.18056,-0.1098,-0.03904,-0.05124,0.11712,0.00976,-0.13664,-0.1464,-0.15128,-0.13176
-0.15128,0.16836,-0.18544,-0.1098,-0.03416,-0.05856,0.11712,0.01952,-0.13176,-0.14152,-0.15128,-0.13176
-0.14152,0.16104,-0.18056,-0.1098,-0.03904,-0.05124,0.122,0.02928,-0.11712,-0.14152,-0.13664,-0.122
-0.1464,0.16104,-0.17568,-0.10248,-0.02928,-0.05856,0.12688,0.03416,-0.11224,-0.13176,-0.13664,-0.11712
-0.13664,0.15128,-0.16592,-0.0976,-0.02928,-0.05368,0.11712,0.0244,-0.11712,-0.14152,-0.13664,-0.12688
-0.12688,0.14152,-0.15616,-0.09272,-0.02928,-0.0488,0.11712,0.0244,-0.122,-0.14152,-0.13664,-0.122
-0.12688,0.14152,-0.15616,-0.09272,-0.02928,-0.0488,0.11224,0.02928,-0.122,-0.14152,-0.1464,-0.122
-0.122,0.13908,-0.15616,-0.09516,-0.03416,-0.04392,0.11224,0.02928,-0.122,-0.13664,-0.1464,-0.122
-0.13176,0.1464,-0.16104,-0.09516,-0.02928,-0.05124,0.11712,0.02928,-0.122,-0.12688,-0.13664,-0.122
-0.12688,0.14396,-0.16104,-0.0976,-0.03416,-0.04636,0.11712,0.02928,-0.11712,-0.122,-0.13176,-0.122
-0.13664,0.14152,-0.1464,-0.07808,-0.00976,-0.06344,0.11224,0.02928,-0.10736,-0.122,-0.13176,-0.122
-0.13664,0.14152,-0.1464,-0.07808,-0.00976,-0.06344,0.10736,0.02928,-0.10736,-0.11712,-0.13176,-0.122
-0.12688,0.13176,-0.13664,-0.0732,-0.00976,-0.05856,0.10736,0.03904,-0.10736,-0.122,-0.13176,-0.122
-0.11712,0.11712,-0.11712,-0.05856,0,-0.05856,0.10736,0.03904,-0.10248,-0.122,-0.13176,-0.122
-0.10736,0.11468,-0.122,-0.06832,-0.01464,-0.04636,0.10248,0.03904,-0.10248,-0.122,-0.13176,-0.10736
-0.09272,0.11224,-0.13176,-0.0854,-0.03904,-0.02684,0.10248,0.03904,-0.0976,-0.122,-0.13176,-0.10736
-0.10248,0.122,-0.14152,-0.09028,-0.03904,-0.03172,0.10248,0.04392,-0.0976,-0.10736,-0.122,-0.10248
-0.0976,0.11712,-0.13664,-0.08784,-0.03904,-0.02928,0.10248,0.04392,-0.09272,-0.10736,-0.122,-0.10248
-0.10736,0.12688,-0.1464,-0.09272,-0.03904,-0.03416,0.0976,0.04392,-0.08784,-0.10248,-0.122,-0.10248
-0.10248,0.12444,-0.1464,-0.09516,-0.04392,-0.02928,0.0976,0.04392,-0.08296,-0.10248,-0.122,-0.10248
-0.10736,0.122,-0.13664,-0.08296,-0.02928,-0.03904,0.0976,0.04392,-0.08296,-0.0976,-0.11712,-0.10248
-0.11224,0.12444,-0.13664,-0.08052,-0.0244,-0.04392,0.0976,0.04392,-0.0732,-0.09272,-0.11712,-0.10248
-0.11224,0.122,-0.13176,-0.07564,-0.01952,-0.04636,0.08784,0.03904,-0.07808,-0.0976,-0.122,-0.0976
-0.11224,0.122,-0.13176,-0.07564,-0.01952,-0.04636,0.08784,0.04392,-0.0732,-0.08784,-0.11712,-0.0976
-0.10736,0.11956,-0.13176,-0.07808,-0.0244,-0.04148,0.08784,0.05856,-0.05368,-0.07808,-0.10736,-0.09272
-0.10736,0.11468,-0.122,-0.06832,-0.01464,-0.04636,0.08784,0.05856,-0.0488,-0.06832,-0.0976,-0.08784
-0.09272,0.10004,-0.10736,-0.061,-0.01464,-0.03904,0.09272,0.0732,-0.03904,-0.06832,-0.0976,-0.08296
-0.09272,0.09516,-0.0976,-0.05124,-0.00488,-0.04392,0.08784,0.0732,-0.02928,-0.06344,-0.09272,-0.08296
-0.08784,0.09028,-0.09272,-0.0488,-0.00488,-0.04148,0.08784,0.07808,-0.01952,-0.05856,-0.08784,-0.07808
-0.08296,0.09028,-0.0976,-0.05612,-0.01464,-0.03416,0.08296,0.08784,-0.00488,-0.0488,-0.07808,-0.0732
-0.07808,0.08784,-0.0976,-0.05856,-0.01952,-0.02928,0.08296,0.08296,0.00488,-0.03416,-0.0732,-0.06832
-0.07808,0.08784,-0.0976,-0.05856,-0.01952,-0.02928,0.07808,0.09272,0.01464,-0.0244,-0.06344,-0.06344
-0.06832,0.0732,-0.07808,-0.04392,-0.00976,-0.02928,0.06832,0.10736,0.02928,0,-0.04392,-0.05368
-0.06344,0.06344,-0.06344,-0.03172,0,-0.03172,0.06832,0.11224,0.04392,0.01464,-0.02928,-0.04392
-0.05856,0.05856,-0.05856,-0.02928,0,-0.02928,0.06344,0.122,0.06344,0.01952,-0.02928,-0.04392
-0.05368,0.0488,-0.04392,-0.01708,0.00976,-0.03172,0.05856,0.122,0.08296,0.02928,-0.0244,-0.03416
-0.05368,0.04392,-0.03416,-0.00732,0.01952,-0.0366,0.05368,0.13664,0.09272,0.02928,-0.0244,-0.03904
-0.05368,0.03904,-0.0244,0.00244,0.02928,-0.04148,0.0488,0.1464,0.10248,0.04392,-0.00976,-0.02928
-0.03904,0.03416,-0.02928,-0.00976,0.00976,-0.0244,0.0488,0.15128,0.13176,0.06832,0.00976,-0.00976
-0.02928,0.01952,-0.00976,0.00488,0.01952,-0.0244,0.03416,0.15128,0.14152,0.08296,0.03904,0.01464
-0.01464,0,0.01464,0.02196,0.02928,-0.02196,0.02928,0.16592,0.15128,0.0976,0.0488,0.01952
-0.00488,-0.01464,0.03416,0.0366,0.03904,-0.02196,0.0244,0.16592,0.16104,0.11224,0.06344,0.02928
0.00976,-0.02684,0.04392,0.03904,0.03416,-0.0122,0.00976,0.16104,0.16592,0.11712,0.06344,0.0488
0.01952,-0.0366,0.05368,0.04392,0.03416,-0.00732,0.00488,0.16104,0.17568,0.12688,0.07808,0.05856
0.02928,-0.04148,0.05368,0.03904,0.0244,0.00244,0.00976,0.1708,0.17568,0.13664,0.08784,0.06832
0.02928,-0.04636,0.06344,0.0488,0.03416,-0.00244,0.00488,0.16592,0.18056,0.14152,0.09272,0.0732
0.0244,-0.0488,0.0732,0.061,0.0488,-0.0122,-0.00488,0.15616,0.18056,0.14152,0.10248,0.08296
0.0244,-0.04636,0.06832,0.05612,0.04392,-0.00976,-0.01464,0.15128,0.18056,0.14152,0.10736,0.08784
0.0244,-0.05368,0.08296,0.07076,0.05856,-0.01708,-0.01952,0.15128,0.17568,0.14152,0.10248,0.08296
0.0244,-0.05612,0.08784,0.07564,0.06344,-0.01952,-0.0244,0.14152,0.16592,0.14152,0.10248,0.08296
0.0244,-0.05368,0.08296,0.07076,0.05856,-0.01708,-0.03416,0.122,0.15616,0.13664,0.10736,0.08296
0.02928,-0.05124,0.0732,0.05856,0.04392,-0.00732,-0.03904,0.10736,0.14152,0.12688,0.0976,0.08296
0.03904,-0.0488,0.05856,0.03904,0.01952,0.00976,-0.02928,0.11224,0.12688,0.11712,0.10248,0.09272
0.03416,-0.03904,0.04392,0.02684,0.00976,0.0122,-0.02928,0.10248,0.10736,0.0976,0.09272,0.07808
0.03416,-0.03172,0.02928,0.0122,-0.00488,0.01952,-0.03416,0.08296,0.08784,0.0732,0.0732,0.06344
0.0244,-0.01708,0.00976,-0.00244,-0.01464,0.01952,-0.0244,0.06344,0.06832,0.05368,0.05368,0.05368
0.00976,-0.00488,0,-0.00488,-0.00976,0.00976,-0.0244,0.04392,0.03904,0.03416,0.02928,0.03904
0.00488,0.00488,-0.01464,-0.01708,-0.01952,0.0122,-0.01952,0.03904,0.00976,0.01952,0.01952,0.01952
-0.01952,0.03172,-0.04392,-0.03416,-0.0244,0.00244,-0.00488,0.02928,0.00488,-0.00976,-0.00976,0.00488
-0.0244,0.04392,-0.06344,-0.05124,-0.03904,0.00732,0.00488,0.0244,-0.01952,-0.02928,-0.0244,-0.01464
-0.04392,0.05856,-0.0732,-0.05124,-0.02928,-0.00732,0.01464,0.0244,-0.02928,-0.03904,-0.02928,-0.0244
-0.05368,0.06588,-0.07808,-0.05124,-0.0244,-0.01464,0.0244,0.01464,-0.04392,-0.0488,-0.0488,-0.03904
-0.05368,0.05856,-0.06344,-0.0366,-0.00976,-0.02196,0.01952,0.00488,-0.06344,-0.05856,-0.05368,-0.05368
-0.05856,0.05856,-0.05856,-0.02928,0,-0.02928,0.01464,0,-0.0732,-0.06832,-0.06344,-0.05856
-0.05856,0.05856,-0.05856,-0.02928,0,-0.02928,0.0244,0,-0.0732,-0.05856,-0.06832,-0.05368
-0.05856,0.061,-0.06344,-0.03416,-0.00488,-0.02684,0.0244,0,-0.07808,-0.0732,-0.0732,-0.0488
-0.05856,0.07076,-0.08296,-0.05368,-0.0244,-0.01708,0.03416,0,-0.0732,-0.06832,-0.06832,-0.04392
-0.05856,0.0732,-0.08784,-0.05856,-0.02928,-0.01464,0.03416,-0.00488,-0.08296,-0.0732,-0.06832,-0.04392
-0.0488,0.06588,-0.08296,-0.05856,-0.03416,-0.00732,0.0244,-0.01464,-0.09272,-0.08296,-0.07808,-0.05368
-0.05368,0.06832,-0.08296,-0.05612,-0.02928,-0.0122,0.0244,-0.02928,-0.0976,-0.08296,-0.08296,-0.05856
-0.05368,0.06344,-0.0732,-0.04636,-0.01952,-0.01708,0.03416,-0.02928,-0.0976,-0.08784,-0.08296,-0.05856
-0.05368,0.05856,-0.06344,-0.0366,-0.00976,-0.02196,0.03416,-0.03416,-0.0976,-0.08784,-0.08296,-0.05856
-0.06344,0.0732,-0.08296,-0.05124,-0.01952,-0.02196,0.04392,-0.0244,-0.09272,-0.07808,-0.08296,-0.05368
-0.0732,0.08296,-0.09272,-0.05612,-0.01952,-0.02684,0.04392,-0.01464,-0.09272,-0.07808,-0.08296,-0.05368
-0.08296,0.09028,-0.0976,-0.05612,-0.01464,-0.03416,0.03416,-0.0244,-0.08296,-0.08784,-0.09272,-0.06344
-0.08784,0.09516,-0.10248,-0.05856,-0.01464,-0.0366,0.03416,-0.01952,-0.08296,-0.09272,-0.0976,-0.06344
-0.08784,0.09028,-0.09272,-0.0488,-0.00488,-0.04148,0.0244,-0.03416,-0.09272,-0.10736,-0.10248,-0.0732
-0.08784,0.09028,-0.09272,-0.0488,-0.00488,-0.04148,0.0244,-0.03416,-0.0976,-0.10248,-0.10248,-0.0732
-0.07808,0.09028,-0.10248,-0.06344,-0.0244,-0.02684,0.0244,-0.0244,-0.08784,-0.09272,-0.08784,-0.06344
-0.07808,0.09028,-0.10248,-0.06344,-0.0244,-0.02684,0.02928,-0.01952,-0.08296,-0.08784,-0.08296,-0.05856
-0.06344,0.07808,-0.09272,-0.061,-0.02928,-0.01708,0.02928,-0.01952,-0.08296,-0.08296,-0.0732,-0.05856
-0.06344,0.07564,-0.08784,-0.05612,-0.0244,-0.01952,0.0244,-0.01952,-0.07808,-0.08296,-0.0732,-0.05856
-0.05368,0.06344,-0.0732,-0.04636,-0.01952,-0.01708,0.03416,-0.01952,-0.07808,-0.07808,-0.06344,-0.05368
-0.05368,0.05856,-0.06344,-0.0366,-0.00976,-0.02196,0.03416,-0.01952,-0.07808,-0.08296,-0.05856,-0.0488
-0.05368,0.05612,-0.05856,-0.03172,-0.00488,-0.0244,0.02928,-0.00976,-0.06832,-0.07808,-0.06344,-0.04392
-0.0488,0.05368,-0.05856,-0.03416,-0.00976,-0.01952,0.0244,-0.00488,-0.06832,-0.06832,-0.05856,-0.04392
-0.06832,0.06832,-0.06832,-0.03416,0,-0.03416,0.03416,0.00488,-0.06344,-0.0732,-0.06832,-0.0488
-0.0732,0.0732,-0.0732,-0.0366,0,-0.0366,0.03416,0.00488,-0.06344,-0.06832,-0.06832,-0.04392
-0.06344,0.0732,-0.08296,-0.05124,-0.01952,-0.02196,0.01952,-0.00488,-0.06832,-0.07808,-0.0732,-0.05368
-0.06344,0.07564,-0.08784,-0.05612,-0.0244,-0.01952,0.01952,-0.00976,-0.06832,-0.0732,-0.0732,-0.0488
-0.06344,0.06832,-0.0732,-0.04148,-0.00976,-0.02684,0.01464,-0.00976,-0.07808,-0.08296,-0.06832,-0.05856
-0.05856,0.061,-0.06344,-0.03416,-0.00488,-0.02684,0.01464,-0.01464,-0.0732,-0.07808,-0.06832,-0.0488
-0.04392,0.05124,-0.05856,-0.0366,-0.01464,-0.01464,0.00976,-0.01464,-0.07808,-0.0732,-0.06832,-0.04392
-0.01952,0.04392,-0.06832,-0.05856,-0.0488,0.01464,0.01952,0,-0.06832,-0.06832,-0.05856,-0.02928
-0.02928,0.0488,-0.06832,-0.05368,-0.03904,0.00488,0.00976,-0.00976,-0.06832,-0.07808,-0.05856,-0.02928
-0.02928,0.0488,-0.06832,-0.05368,-0.03904,0.00488,0.00976,-0.00976,-0.06832,-0.07808,-0.05856,-0.02928
-0.02928,0.04392,-0.05856,-0.04392,-0.02928,0,0,-0.00488,-0.05856,-0.06832,-0.0488,-0.01952
-0.03416,0.04148,-0.0488,-0.03172,-0.01464,-0.00976,-0.00488,-0.00488,-0.0488,-0.05856,-0.03904,-0.01464
-0.0244,0.02928,-0.03416,-0.02196,-0.00976,-0.00732,0,-0.00488,-0.02928,-0.04392,-0.03904,-0.00488
-0.01952,0.01952,-0.01952,-0.00976,0,-0.00976,0,0,-0.01464,-0.03416,-0.0244,-0.00488
-0.00976,0.00976,-0.00976,-0.00488,0,-0.00488,0,0,-0.01464,-0.0244,-0.0244,0
-0.00488,0.00244,0,0.00244,0.00488,-0.00488,0,0.00488,-0.00488,-0.01952,-0.0244,0.00976
0.00976,-0.00976,0.00976,0.00488,0,0.00488,-0.00976,0.00976,0.01464,0,-0.00976,0.01464
0.01952,-0.02684,0.03416,0.0244,0.01464,0.00244,-0.03416,0,0.01952,0.00976,0,0.0244
0.03904,-0.03904,0.03904,0.01952,0,0.01952,-0.05856,-0.0244,0.01952,0.0244,0.01464,0.03416
0.0488,-0.0488,0.0488,0.0244,0,0.0244,-0.07808,-0.03904,0.01952,0.02928,0.0244,0.04392
0.0488,-0.0488,0.0488,0.0244,0,0.0244,-0.08296,-0.03416,0.01464,0.02928,0.0244,0.04392
0.05856,-0.05612,0.05368,0.0244,-0.00488,0.03172,-0.08784,-0.03416,0,0.0244,0.0244,0.04392
0.05856,-0.06344,0.06832,0.03904,0.00976,0.0244,-0.08784,-0.03416,0,0.0244,0.0244,0.05368
0.05856,-0.06832,0.07808,0.0488,0.01952,0.01952,-0.08784,-0.03416,-0.00976,0.01464,0.01952,0.05368
0.0732,-0.0732,0.0732,0.0366,0,0.0366,-0.0732,-0.01952,-0.01464,0.00488,0.01952,0.05368
0.0732,-0.06832,0.06344,0.02684,-0.00976,0.04148,-0.05856,-0.01952,-0.01952,0,0.01464,0.0488
0.0732,-0.05124,0.02928,-0.00732,-0.04392,0.05856,-0.0488,-0.01464,-0.02928,-0.00488,0.00976,0.04392
0.05856,-0.0366,0.01464,-0.01464,-0.04392,0.05124,-0.03904,-0.00976,-0.04392,-0.0244,-0.00488,0.03416
0.02928,-0.00488,-0.01952,-0.03416,-0.0488,0.03904,-0.03416,-0.01952,-0.06344,-0.04392,-0.0244,0.01464
0,0.03172,-0.06344,-0.06344,-0.06344,0.03172,-0.01464,-0.0244,-0.08296,-0.06832,-0.0488,-0.01464
-0.03416,0.05612,-0.07808,-0.061,-0.04392,0.00488,-0.00488,-0.02928,-0.09272,-0.07808,-0.05368,-0.02928
-0.05368,0.0732,-0.09272,-0.06588,-0.03904,-0.00732,0.01464,-0.0244,-0.0976,-0.09272,-0.06832,-0.03904
-0.05856,0.08052,-0.10248,-0.0732,-0.04392,-0.00732,0.01952,-0.0244,-0.10248,-0.08784,-0.06832,-0.0488
-0.06832,0.0854,-0.10248,-0.06832,-0.03416,-0.01708,0.02928,-0.01952,-0.11224,-0.0976,-0.07808,-0.05856
-0.06344,0.09272,-0.122,-0.09028,-0.05856,-0.00244,0.03904,-0.01952,-0.11712,-0.10736,-0.08784,-0.05856
-0.06344,0.0976,-0.13176,-0.10004,-0.06832,0.00244,0.03904,-0.01464,-0.12688,-0.11712,-0.0976,-0.06832
-0.06344,0.10736,-0.15128,-0.11956,-0.08784,0.0122,0.05368,-0.01464,-0.12688,-0.11712,-0.0976,-0.06832
-0.06832,0.1098,-0.15128,-0.11712,-0.08296,0.00732,0.05856,-0.01464,-0.12688,-0.11712,-0.0976,-0.06832
-0.08784,0.11712,-0.1464,-0.10248,-0.05856,-0.01464,0.05856,-0.01464,-0.12688,-0.13176,-0.11224,-0.08296
-0.0976,0.122,-0.1464,-0.0976,-0.0488,-0.0244,0.06344,-0.01464,-0.13176,-0.13176,-0.11224,-0.08296
-0.0976,0.122,-0.1464,-0.0976,-0.0488,-0.0244,0.06344,-0.01952,-0.13176,-0.13176,-0.11712,-0.08784
-0.0976,0.122,-0.1464,-0.0976,-0.0488,-0.0244,0.06832,-0.01952,-0.13176,-0.13176,-0.11712,-0.08784
-0.09272,0.11956,-0.1464,-0.10004,-0.05368,-0.01952,0.06832,-0.00976,-0.122,-0.122,-0.10248,-0.07808
-0.09272,0.11956,-0.1464,-0.10004,-0.05368,-0.01952,0.0732,0,-0.122,-0.12688,-0.10736,-0.07808
-0.09272,0.11956,-0.1464,-0.10004,-0.05368,-0.01952,0.06344,-0.00488,-0.13176,-0.12688,-0.10736,-0.07808
-0.09272,0.122,-0.15128,-0.10492,-0.05856,-0.01708,0.06344,-0.00488,-0.12688,-0.12688,-0.10736,-0.07808
-0.08296,0.11712,-0.15128,-0.1098,-0.06832,-0.00732,0.05856,-0.00488,-0.13176,-0.12688,-0.10736,-0.07808
-0.06832,0.11224,-0.15616,-0.122,-0.08784,0.00976,0.05856,-0.00488,-0.13176,-0.12688,-0.11224,-0.07808
-0.06832,0.11224,-0.15616,-0.122,-0.08784,0.00976,0.06832,0,-0.11712,-0.11224,-0.10248,-0.06832
-0.06832,0.11468,-0.16104,-0.12688,-0.09272,0.0122,0.08296,0.01464,-0.11712,-0.11224,-0.10248,-0.0732
-0.07808,0.122,-0.16592,-0.12688,-0.08784,0.00488,0.08784,0.01952,-0.12688,-0.12688,-0.11224,-0.09272
-0.08784,0.13908,-0.19032,-0.1464,-0.10248,0.00732,0.10248,0.04392,-0.10736,-0.12688,-0.12688,-0.11224
-0.0976,0.1586,-0.2196,-0.1708,-0.122,0.0122,0.13176,0.0732,-0.05368,-0.0976,-0.13176,-0.11712
-0.11224,0.16592,-0.2196,-0.16348,-0.10736,-0.00244,0.1464,0.11224,0.05368,-0.03416,-0.08296,-0.0976
-0.08784,0.122,-0.15616,-0.11224,-0.06832,-0.00976,0.13176,0.13664,0.16592,0.08784,0.00976,-0.02928
0.01952,0.02196,-0.06344,-0.0732,-0.08296,0.05124,0.05856,0.16592,0.27816,0.244,0.18544,0.10736
0.2196,-0.15372,0.08784,-0.02196,-0.13176,0.17568,-0.0732,0.20496,0.37088,0.45384,0.44896,0.32208
0.50264,-0.38552,0.2684,0.01708,-0.23424,0.36844,-0.25376,0.23424,0.43432,0.67344,0.76128,0.60024
0.79544,-0.62952,0.4636,0.06588,-0.33184,0.56364,-0.45384,0.23912,0.4148,0.84912,1.06384,0.88816
1.01992,-0.81984,0.61976,0.1098,-0.40016,0.71004,-0.65392,0.1708,0.23912,0.82472,1.17608,1.0492
1.09312,-0.89548,0.69784,0.15128,-0.39528,0.7442,-0.7808,0,-0.06832,0.62464,1.10288,1.05896
0.94672,-0.81496,0.6832,0.20984,-0.26352,0.60512,-0.8052,-0.28792,-0.49776,0.2196,0.77592,0.88328
0.71248,-0.6466,0.58072,0.22448,-0.13176,0.42212,-0.73688,-0.51728,-0.84912,-0.17568,0.39528,0.62464
0.4636,-0.44896,0.43432,0.20252,-0.02928,0.24644,-0.59536,-0.66368,-1.03456,-0.4636,0.06832,0.38064
0.28304,-0.29524,0.30744,0.16592,0.0244,0.12932,-0.45872,-0.64416,-1.01016,-0.55144,-0.0976,0.21472
0.19032,-0.19764,0.20496,0.1098,0.01464,0.08784,-0.33184,-0.49776,-0.84424,-0.5124,-0.15128,0.11224
0.10736,-0.10736,0.10736,0.05368,0,0.05368,-0.2196,-0.35136,-0.64904,-0.42456,-0.16104,0.05368
