i,aVR,ii,aVF,iii,aVL,V1,V2,V3,V4,V5,V6
-0.08296,0.10492,-0.12688,-0.0854,-0.04392,-0.01952,0.07808,0.04392,-0.03416,-0.08296,-0.08296,-0.07808
-0.07808,0.10004,-0.122,-0.08296,-0.04392,-0.01708,0.07808,0.05368,-0.0244,-0.08296,-0.08784,-0.0732
-0.07808,0.0976,-0.11712,-0.07808,-0.03904,-0.01952,0.0732,0.05856,-0.0244,-0.08296,-0.08784,-0.06832
-0.07808,0.09516,-0.11224,-0.0732,-0.03416,-0.02196,0.0732,0.06832,-0.01952,-0.0732,-0.08296,-0.06832
-0.08296,0.09516,-0.10736,-0.06588,-0.0244,-0.02928,0.0732,0.06832,-0.01952,-0.06344,-0.08296,-0.06832
-0.07808,0.09272,-0.10736,-0.06832,-0.02928,-0.0244,0.0732,0.0732,-0.01952,-0.05856,-0.07808,-0.06344
-0.0732,0.08784,-0.10248,-0.06588,-0.02928,-0.02196,0.06832,0.08784,-0.01464,-0.05856,-0.0732,-0.06344
-0.0732,0.0854,-0.0976,-0.061,-0.0244,-0.0244,0.06832,0.0976,-0.00976,-0.05368,-0.0732,-0.06344
-0.0732,0.0854,-0.0976,-0.061,-0.0244,-0.0244,0.06832,0.10248,-0.00488,-0.0488,-0.06832,-0.05856
-0.05856,0.07076,-0.08296,-0.05368,-0.0244,-0.01708,0.06344,0.11224,0,-0.0488,-0.06832,-0.05856
-0.05856,0.07076,-0.08296,-0.05368,-0.0244,-0.01708,0.06344,0.122,0.00976,-0.0488,-0.06344,-0.05856
-0.05856,0.06832,-0.07808,-0.0488,-0.01952,-0.01952,0.06832,0.13664,0.01464,-0.0488,-0.05368,-0.05856
-0.05368,0.061,-0.06832,-0.04148,-0.01464,-0.01952,0.06832,0.1464,0.01952,-0.0488,-0.05368,-0.05368
-0.04392,0.05368,-0.06344,-0.04148,-0.01952,-0.0122,0.06344,0.16104,0.02928,-0.03904,-0.0488,-0.04392
-0.03904,0.04636,-0.05368,-0.03416,-0.01464,-0.0122,0.05856,0.18056,0.03904,-0.02928,-0.04392,-0.03416
-0.03416,0.03904,-0.04392,-0.02684,-0.00976,-0.0122,0.05856,0.20496,0.04392,-0.01464,-0.03904,-0.02928
-0.02928,0.02928,-0.02928,-0.01464,0,-0.01464,0.05856,0.21472,0.05368,0,-0.02928,-0.0244
-0.01952,0.02196,-0.0244,-0.01464,-0.00488,-0.00732,0.05368,0.23912,0.06832,0.00976,-0.01952,-0.01464
-0.00976,0.0122,-0.01464,-0.00976,-0.00488,-0.00244,0.0488,0.25864,0.07808,0.01952,-0.00976,-0.00976
0,-0.00244,0.00488,0.00488,0.00488,-0.00244,0.0488,0.28792,0.08784,0.03416,0,0.00976
0.01464,-0.01708,0.01952,0.0122,0.00488,0.00488,0.03904,0.3172,0.10736,0.0488,0.01464,0.01952
0.02928,-0.0366,0.04392,0.02928,0.01464,0.00732,0.03416,0.33672,0.11712,0.06344,0.02928,0.02928
0.04392,-0.05368,0.06344,0.04148,0.01952,0.0122,0.03416,0.36112,0.13664,0.07808,0.0488,0.03904
0.05856,-0.07076,0.08296,0.05368,0.0244,0.01708,0.0244,0.38552,0.15128,0.08784,0.06344,0.05368
0.0732,-0.08784,0.10248,0.06588,0.02928,0.02196,0.01464,0.40504,0.16104,0.10736,0.07808,0.06344
0.0976,-0.11224,0.12688,0.07808,0.02928,0.03416,0,0.4148,0.1708,0.12688,0.09272,0.08296
0.10736,-0.12688,0.1464,0.09272,0.03904,0.03416,-0.00976,0.42944,0.18056,0.14152,0.10736,0.0976
0.122,-0.1464,0.1708,0.1098,0.0488,0.0366,-0.01464,0.4392,0.19032,0.15128,0.122,0.10736
0.13664,-0.16348,0.19032,0.122,0.05368,0.04148,-0.0244,0.44896,0.20008,0.16592,0.13664,0.122
0.15128,-0.18056,0.20984,0.1342,0.05856,0.04636,-0.02928,0.45384,0.21472,0.18056,0.1464,0.13176
0.16592,-0.1952,0.22448,0.14152,0.05856,0.05368,-0.03904,0.45872,0.22448,0.19032,0.16104,0.14152
0.18056,-0.2074,0.23424,0.14396,0.05368,0.06344,-0.0488,0.4636,0.22448,0.20008,0.1708,0.15616
0.19032,-0.2196,0.24888,0.15372,0.05856,0.06588,-0.05368,0.45872,0.22936,0.20496,0.17568,0.16104
0.1952,-0.22936,0.26352,0.16592,0.06832,0.06344,-0.06344,0.45384,0.23424,0.20496,0.18544,0.16592
0.20008,-0.23668,0.27328,0.17324,0.0732,0.06344,-0.0732,0.44408,0.23424,0.20984,0.1952,0.17568
0.20008,-0.23912,0.27816,0.17812,0.07808,0.061,-0.07808,0.42456,0.23424,0.21472,0.1952,0.18544
0.20008,-0.23912,0.27816,0.17812,0.07808,0.061,-0.08784,0.39528,0.22448,0.20984,0.1952,0.19032
0.20008,-0.23912,0.27816,0.17812,0.07808,0.061,-0.08784,0.366,0.20984,0.20984,0.19032,0.18544
0.19032,-0.22936,0.2684,0.17324,0.07808,0.05612,-0.08784,0.33184,0.1952,0.1952,0.18056,0.18056
0.18544,-0.22448,0.26352,0.1708,0.07808,0.05368,-0.08784,0.28792,0.18056,0.18056,0.17568,0.1708
0.1708,-0.20496,0.23912,0.15372,0.06832,0.05124,-0.08296,0.23912,0.16104,0.16104,0.16104,0.16592
0.1464,-0.18056,0.21472,0.14152,0.06832,0.03904,-0.0732,0.21472,0.1464,0.14152,0.1464,0.1464
0.122,-0.15372,0.18544,0.12444,0.06344,0.02928,-0.06344,0.18056,0.122,0.11712,0.12688,0.12688
0.09272,-0.12444,0.15616,0.1098,0.06344,0.01464,-0.04392,0.15128,0.0976,0.0976,0.10248,0.10736
0.0732,-0.10004,0.12688,0.09028,0.05368,0.00976,-0.03416,0.122,0.08296,0.0732,0.08296,0.08784
0.04392,-0.07076,0.0976,0.07564,0.05368,-0.00488,-0.01464,0.0976,0.06344,0.05368,0.06344,0.06832
0.02928,-0.0488,0.06832,0.05368,0.03904,-0.00488,-0.00488,0.07808,0.04392,0.02928,0.03904,0.0488
0.00976,-0.0244,0.03904,0.03416,0.02928,-0.00976,0.00976,0.0488,0.03416,0.01464,0.01952,0.02928
-0.01464,0.00488,0.00488,0.0122,0.01952,-0.01708,0.01952,0.0244,0.01952,-0.00488,-0.00488,0.00976
-0.02928,0.02196,-0.01464,0,0.01464,-0.02196,0.02928,0.01464,0.00976,-0.01952,-0.01464,-0.00976
-0.04392,0.04148,-0.03904,-0.01708,0.00488,-0.0244,0.03904,0.00488,0,-0.02928,-0.02928,-0.0244
-0.05856,0.05612,-0.05368,-0.0244,0.00488,-0.03172,0.05368,-0.00976,-0.01464,-0.03904,-0.03416,-0.02928
-0.06832,0.06344,-0.05856,-0.0244,0.00976,-0.03904,0.05856,-0.0244,-0.01952,-0.0488,-0.04392,-0.03904
-0.0732,0.07076,-0.06832,-0.03172,0.00488,-0.03904,0.05856,-0.0244,-0.03416,-0.06344,-0.05368,-0.0488
-0.07808,0.07808,-0.07808,-0.03904,0,-0.03904,0.06344,-0.02928,-0.03416,-0.07808,-0.06344,-0.0488
-0.08296,0.08296,-0.08296,-0.04148,0,-0.04148,0.06832,-0.02928,-0.03416,-0.07808,-0.06344,-0.05368
-0.08296,0.08784,-0.09272,-0.05124,-0.00976,-0.0366,0.06832,-0.03416,-0.03904,-0.08296,-0.06832,-0.05856
-0.08296,0.08784,-0.09272,-0.05124,-0.00976,-0.0366,0.06344,-0.03904,-0.03904,-0.08296,-0.06832,-0.05856
-0.07808,0.0854,-0.09272,-0.05368,-0.01464,-0.03172,0.06344,-0.03904,-0.04392,-0.08784,-0.06832,-0.05856
-0.07808,0.0854,-0.09272,-0.05368,-0.01464,-0.03172,0.06344,-0.03904,-0.0488,-0.08784,-0.0732,-0.06832
-0.07808,0.08296,-0.08784,-0.0488,-0.00976,-0.03416,0.05856,-0.04392,-0.0488,-0.08784,-0.0732,-0.0732
-0.07808,0.08296,-0.08784,-0.0488,-0.00976,-0.03416,0.05856,-0.04392,-0.0488,-0.09272,-0.07808,-0.0732
-0.08296,0.08784,-0.09272,-0.05124,-0.00976,-0.0366,0.05856,-0.04392,-0.0488,-0.09272,-0.07808,-0.07808
-0.08296,0.08784,-0.09272,-0.05124,-0.00976,-0.0366,0.05856,-0.04392,-0.05368,-0.0976,-0.07808,-0.07808
-0.08296,0.09028,-0.0976,-0.05612,-0.01464,-0.03416,0.06344,-0.04392,-0.05856,-0.0976,-0.07808,-0.07808
-0.08296,0.09028,-0.0976,-0.05612,-0.01464,-0.03416,0.06344,-0.04392,-0.05856,-0.0976,-0.07808,-0.0732
-0.08296,0.09028,-0.0976,-0.05612,-0.01464,-0.03416,0.06344,-0.03904,-0.05856,-0.0976,-0.07808,-0.0732
-0.08296,0.09028,-0.0976,-0.05612,-0.01464,-0.03416,0.06344,-0.03904,-0.05856,-0.0976,-0.07808,-0.07808
-0.08296,0.09028,-0.0976,-0.05612,-0.01464,-0.03416,0.06344,-0.03904,-0.05856,-0.0976,-0.07808,-0.07808
-0.08784,0.09272,-0.0976,-0.05368,-0.00976,-0.03904,0.06344,-0.03904,-0.05856,-0.10248,-0.07808,-0.0732
-0.09272,0.09516,-0.0976,-0.05124,-0.00488,-0.04392,0.06344,-0.03416,-0.05368,-0.10736,-0.08296,-0.0732
-0.09272,0.09516,-0.0976,-0.05124,-0.00488,-0.04392,0.06344,-0.03416,-0.05368,-0.10736,-0.08784,-0.0732
-0.08784,0.09516,-0.10248,-0.05856,-0.01464,-0.0366,0.06344,-0.03416,-0.05368,-0.10248,-0.08784,-0.0732
-0.08784,0.09516,-0.10248,-0.05856,-0.01464,-0.0366,0.06344,-0.02928,-0.05368,-0.10248,-0.08784,-0.07808
-0.08784,0.09516,-0.10248,-0.05856,-0.01464,-0.0366,0.06344,-0.02928,-0.05368,-0.10248,-0.08784,-0.08296
-0.08784,0.09516,-0.10248,-0.05856,-0.01464,-0.0366,0.06344,-0.02928,-0.0488,-0.10248,-0.08784,-0.07808
-0.08296,0.09272,-0.10248,-0.061,-0.01952,-0.03172,0.06344,-0.02928,-0.0488,-0.10248,-0.08784,-0.07808
-0.08296,0.09028,-0.0976,-0.05612,-0.01464,-0.03416,0.06344,-0.02928,-0.0488,-0.0976,-0.08784,-0.07808
-0.08296,0.09028,-0.0976,-0.05612,-0.01464,-0.03416,0.06344,-0.02928,-0.0488,-0.0976,-0.08784,-0.07808
-0.08296,0.09028,-0.0976,-0.05612,-0.01464,-0.03416,0.05856,-0.02928,-0.0488,-0.09272,-0.08784,-0.07808
-0.07808,0.08784,-0.0976,-0.05856,-0.01952,-0.02928,0.05856,-0.02928,-0.0488,-0.08784,-0.08784,-0.07808
-0.07808,0.08784,-0.0976,-0.05856,-0.01952,-0.02928,0.05856,-0.03416,-0.05368,-0.08296,-0.08296,-0.0732
-0.07808,0.09028,-0.10248,-0.06344,-0.0244,-0.02684,0.05856,-0.03416,-0.05856,-0.08296,-0.08296,-0.0732
-0.07808,0.09028,-0.10248,-0.06344,-0.0244,-0.02684,0.05856,-0.03416,-0.05368,-0.08784,-0.08296,-0.0732
-0.07808,0.09272,-0.10736,-0.06832,-0.02928,-0.0244,0.05856,-0.03416,-0.05368,-0.09272,-0.08296,-0.0732
-0.08296,0.09516,-0.10736,-0.06588,-0.0244,-0.02928,0.05856,-0.03416,-0.0488,-0.09272,-0.08296,-0.0732
-0.08296,0.09516,-0.10736,-0.06588,-0.0244,-0.02928,0.05856,-0.03416,-0.04392,-0.09272,-0.08296,-0.0732
-0.08296,0.09516,-0.10736,-0.06588,-0.0244,-0.02928,0.05856,-0.03416,-0.04392,-0.08784,-0.07808,-0.0732
-0.08296,0.09516,-0.10736,-0.06588,-0.0244,-0.02928,0.05856,-0.03416,-0.04392,-0.08784,-0.07808,-0.06832
-0.08296,0.09516,-0.10736,-0.06588,-0.0244,-0.02928,0.05856,-0.03416,-0.04392,-0.08296,-0.07808,-0.06344
-0.08784,0.0976,-0.10736,-0.06344,-0.01952,-0.03416,0.05856,-0.03416,-0.04392,-0.08296,-0.07808,-0.06344
-0.08784,0.09516,-0.10248,-0.05856,-0.01464,-0.0366,0.05856,-0.03416,-0.04392,-0.08296,-0.07808,-0.06344
-0.08784,0.09272,-0.0976,-0.05368,-0.00976,-0.03904,0.05856,-0.03904,-0.04392,-0.08296,-0.07808,-0.06344
-0.08784,0.09272,-0.0976,-0.05368,-0.00976,-0.03904,0.05856,-0.03904,-0.04392,-0.08296,-0.07808,-0.06344
-0.09272,0.0976,-0.10248,-0.05612,-0.00976,-0.04148,0.05856,-0.03904,-0.04392,-0.08296,-0.08296,-0.06832
-0.08784,0.09516,-0.10248,-0.05856,-0.01464,-0.0366,0.05856,-0.03904,-0.04392,-0.07808,-0.07808,-0.06832
-0.08784,0.0976,-0.10736,-0.06344,-0.01952,-0.03416,0.05856,-0.03904,-0.0488,-0.07808,-0.07808,-0.06832
-0.08784,0.0976,-0.10736,-0.06344,-0.01952,-0.03416,0.05856,-0.04392,-0.0488,-0.07808,-0.07808,-0.06832
-0.08784,0.0976,-0.10736,-0.06344,-0.01952,-0.03416,0.05856,-0.0488,-0.0488,-0.07808,-0.07808,-0.06832
-0.08784,0.0976,-0.10736,-0.06344,-0.01952,-0.03416,0.05856,-0.0488,-0.0488,-0.08296,-0.07808,-0.06832
-0.08784,0.0976,-0.10736,-0.06344,-0.01952,-0.03416,0.05856,-0.0488,-0.0488,-0.08296,-0.07808,-0.06832
-0.08784,0.0976,-0.10736,-0.06344,-0.01952,-0.03416,0.05856,-0.0488,-0.0488,-0.08784,-0.07808,-0.0732
-0.08784,0.0976,-0.10736,-0.06344,-0.01952,-0.03416,0.05856,-0.0488,-0.0488,-0.08784,-0.07808,-0.0732
-0.08784,0.0976,-0.10736,-0.06344,-0.01952,-0.03416,0.05856,-0.0488,-0.05368,-0.08784,-0.07808,-0.06344
-0.08784,0.09516,-0.10248,-0.05856,-0.01464,-0.0366,0.05856,-0.04392,-0.05368,-0.08784,-0.07808,-0.05856
-0.08784,0.09028,-0.09272,-0.0488,-0.00488,-0.04148,0.06832,-0.04392,-0.04392,-0.08296,-0.07808,-0.05856
-0.08784,0.0854,-0.08296,-0.03904,0.00488,-0.04636,0.07808,-0.03904,-0.03904,-0.08296,-0.0732,-0.05368
-0.08784,0.07808,-0.06832,-0.0244,0.01952,-0.05368,0.08784,-0.0244,-0.03416,-0.0732,-0.06832,-0.0488
-0.08784,0.07564,-0.06344,-0.01952,0.0244,-0.05612,0.0976,-0.00976,-0.02928,-0.06832,-0.06344,-0.04392
-0.08296,0.07076,-0.05856,-0.01708,0.0244,-0.05368,0.11224,-0.00488,-0.01952,-0.06344,-0.05856,-0.04392
-0.08296,0.06832,-0.05368,-0.0122,0.02928,-0.05612,0.11712,0,-0.01464,-0.06344,-0.05856,-0.03904
-0.08296,0.06832,-0.05368,-0.0122,0.02928,-0.05612,0.11712,0,-0.01464,-0.06344,-0.05368,-0.03904
-0.07808,0.06344,-0.0488,-0.00976,0.02928,-0.05368,0.0976,-0.01464,-0.01952,-0.05856,-0.05368,-0.03904
-0.07808,0.05856,-0.03904,0,0.03904,-0.05856,0.07808,-0.02928,-0.01952,-0.05856,-0.05368,-0.03904
-0.06344,0.0488,-0.03416,-0.00244,0.02928,-0.04636,0.0488,-0.04392,-0.0244,-0.05368,-0.0488,-0.03904
-0.05368,0.04148,-0.02928,-0.00244,0.0244,-0.03904,0.0244,-0.05368,-0.0244,-0.05368,-0.0488,-0.03416
-0.04392,0.02928,-0.01464,0.00732,0.02928,-0.0366,0.01952,-0.05856,-0.01952,-0.0488,-0.03904,-0.02928
-0.03904,0.01708,0.00488,0.0244,0.04392,-0.04148,0.01952,-0.05368,-0.01464,-0.03904,-0.02928,-0.01952
-0.03904,0.02196,-0.00488,0.01464,0.03416,-0.0366,0.0244,-0.05368,-0.00976,-0.03904,-0.02928,-0.01952
-0.03904,0.02196,-0.00488,0.01464,0.03416,-0.0366,0.0244,-0.05856,-0.01464,-0.04392,-0.02928,-0.01952
-0.03904,0.02928,-0.01952,0,0.01952,-0.02928,0.0244,-0.06344,-0.02928,-0.06344,-0.03904,-0.0244
-0.03904,0.0366,-0.03416,-0.01464,0.00488,-0.02196,0.0244,-0.0732,-0.03904,-0.0732,-0.05368,-0.03416
-0.03904,0.05124,-0.06344,-0.04392,-0.0244,-0.00732,0.01952,-0.08296,-0.06344,-0.08296,-0.06832,-0.04392
-0.03904,0.05368,-0.06832,-0.0488,-0.02928,-0.00488,0.01952,-0.08784,-0.06832,-0.09272,-0.07808,-0.0488
-0.0488,0.06832,-0.08784,-0.06344,-0.03904,-0.00488,0.01952,-0.08296,-0.07808,-0.10248,-0.08296,-0.05856
-0.05856,0.07564,-0.09272,-0.06344,-0.03416,-0.0122,0.02928,-0.08296,-0.07808,-0.10248,-0.08296,-0.05856
-0.07808,0.0854,-0.09272,-0.05368,-0.01464,-0.03172,0.03904,-0.0732,-0.0732,-0.10248,-0.08296,-0.05856
-0.09272,0.0976,-0.10248,-0.05612,-0.00976,-0.04148,0.05368,-0.06832,-0.06832,-0.10248,-0.08296,-0.06344
-0.0976,0.10736,-0.11712,-0.06832,-0.01952,-0.03904,0.05856,-0.06832,-0.06832,-0.10248,-0.0976,-0.0732
-0.10248,0.122,-0.14152,-0.09028,-0.03904,-0.03172,0.05856,-0.06832,-0.07808,-0.11712,-0.10248,-0.08296
-0.10248,0.12688,-0.15128,-0.10004,-0.0488,-0.02684,0.05856,-0.0732,-0.08296,-0.11712,-0.11224,-0.08296
-0.10736,0.12932,-0.15128,-0.0976,-0.04392,-0.03172,0.05856,-0.0732,-0.08784,-0.11712,-0.11224,-0.08296
-0.11224,0.1342,-0.15616,-0.10004,-0.04392,-0.03416,0.05856,-0.0732,-0.08784,-0.122,-0.11224,-0.08784
-0.11224,0.13176,-0.15128,-0.09516,-0.03904,-0.0366,0.06344,-0.0732,-0.08784,-0.122,-0.11224,-0.08784
-0.11224,0.13176,-0.15128,-0.09516,-0.03904,-0.0366,0.06344,-0.06832,-0.08784,-0.122,-0.11224,-0.08784
-0.11712,0.1342,-0.15128,-0.09272,-0.03416,-0.04148,0.06344,-0.06832,-0.08784,-0.122,-0.11224,-0.08784
-0.122,0.13664,-0.15128,-0.09028,-0.02928,-0.04636,0.06832,-0.06832,-0.08784,-0.122,-0.11224,-0.08784
-0.122,0.13664,-0.15128,-0.09028,-0.02928,-0.04636,0.06832,-0.06832,-0.08784,-0.122,-0.11224,-0.08784
-0.122,0.13664,-0.15128,-0.09028,-0.02928,-0.04636,0.06832,-0.06832,-0.08296,-0.122,-0.11224,-0.08784
-0.122,0.13664,-0.15128,-0.09028,-0.02928,-0.04636,0.06832,-0.06832,-0.08296,-0.122,-0.11224,-0.08784
-0.11712,0.1342,-0.15128,-0.09272,-0.03416,-0.04148,0.06832,-0.06832,-0.08296,-0.122,-0.11224,-0.08784
-0.11224,0.1342,-0.15616,-0.10004,-0.04392,-0.03416,0.07808,-0.06344,-0.08296,-0.122,-0.11224,-0.0976
-0.122,0.14396,-0.16592,-0.10492,-0.04392,-0.03904,0.0976,-0.00488,-0.06344,-0.122,-0.122,-0.11224
-0.122,0.1464,-0.1708,-0.1098,-0.0488,-0.0366,0.15128,0.19032,0,-0.10736,-0.122,-0.11712
-0.0976,0.09028,-0.08296,-0.03416,0.01464,-0.05612,0.16104,0.36112,0.11224,-0.0244,-0.05856,-0.08296
-0.00976,-0.03172,0.0732,0.07808,0.08296,-0.04636,0.14152,0.40992,0.22936,0.11712,0.06344,0.0244
0.20984,-0.25864,0.30744,0.20252,0.0976,0.05612,-0.00976,0.31232,0.31232,0.3172,0.25376,0.20008
0.5368,-0.59536,0.65392,0.38552,0.11712,0.20984,-0.27328,0.06832,0.35624,0.55632,0.54168,0.4636
0.85888,-0.91988,0.98088,0.55144,0.122,0.36844,-0.61488,-0.45872,0.244,0.74176,0.8052,0.75152
1.15168,-1.20536,1.25904,0.6832,0.10736,0.52216,-0.96624,-0.9516,0.08296,0.89304,1.0248,0.98576
1.27856,-1.28832,1.29808,0.6588,0.01952,0.62952,-1.1956,-1.32736,-0.15128,0.82472,1.01504,1.02968
1.17608,-1.04188,0.90768,0.31964,-0.2684,0.72224,-1.1712,-1.52744,-0.4636,0.42944,0.66368,0.7808
0.7076,-0.62952,0.55144,0.19764,-0.15616,0.43188,-0.90768,-1.54696,-0.57584,0.08784,0.3172,0.49776
0.28304,-0.27816,0.27328,0.13176,-0.00976,0.1464,-0.6588,-1.50792,-0.6832,-0.2196,0.02928,0.24888
0.17568,-0.15616,0.13664,0.0488,-0.03904,0.10736,-0.5124,-1.27856,-0.6832,-0.30744,-0.05856,0.15128
0.15616,-0.11956,0.08296,0.00488,-0.0732,0.11468,-0.3904,-0.90768,-0.53192,-0.25376,-0.0732,0.0976
0.10248,-0.0732,0.04392,-0.00732,-0.05856,0.08052,-0.25376,-0.59048,-0.37576,-0.1952,-0.06832,0.05368
0.01464,0,-0.01464,-0.02196,-0.02928,0.02196,-0.1464,-0.40504,-0.25376,-0.16104,-0.07808,0
-0.05368,0.061,-0.06832,-0.04148,-0.01464,-0.01952,-0.06832,-0.28304,-0.18544,-0.14152,-0.09272,-0.04392
-0.06832,0.0854,-0.10248,-0.06832,-0.03416,-0.01708,-0.01952,-0.20496,-0.15616,-0.13664,-0.10248,-0.05856
-0.0732,0.09516,-0.11712,-0.08052,-0.04392,-0.01464,0.00488,-0.13664,-0.14152,-0.13664,-0.11224,-0.06344
-0.07808,0.10736,-0.13664,-0.0976,-0.05856,-0.00976,0.0244,-0.09272,-0.122,-0.13664,-0.122,-0.07808
-0.09272,0.122,-0.15128,-0.10492,-0.05856,-0.01708,0.05368,-0.06344,-0.0976,-0.13664,-0.12688,-0.08784
-0.10248,0.12932,-0.15616,-0.10492,-0.05368,-0.0244,0.06832,-0.05368,-0.0976,-0.13664,-0.12688,-0.09272
-0.10248,0.13176,-0.16104,-0.1098,-0.05856,-0.02196,0.06832,-0.04392,-0.0976,-0.13664,-0.13176,-0.09272
-0.10248,0.1342,-0.16592,-0.11468,-0.06344,-0.01952,0.0732,-0.0244,-0.0976,-0.13664,-0.12688,-0.10248
-0.11224,0.13908,-0.16592,-0.1098,-0.05368,-0.02928,0.08296,-0.01464,-0.08784,-0.13664,-0.122,-0.10248
-0.11712,0.14152,-0.16592,-0.10736,-0.0488,-0.03416,0.08784,-0.01464,-0.08784,-0.13176,-0.122,-0.10248
-0.11712,0.14152,-0.16592,-0.10736,-0.0488,-0.03416,0.08784,-0.00976,-0.08296,-0.13176,-0.122,-0.0976
-0.11224,0.13664,-0.16104,-0.10492,-0.0488,-0.03172,0.08784,-0.00488,-0.08296,-0.13176,-0.122,-0.0976
-0.11224,0.13664,-0.16104,-0.10492,-0.0488,-0.03172,0.09272,0,-0.07808,-0.13176,-0.122,-0.10248
-0.11224,0.13664,-0.16104,-0.10492,-0.0488,-0.03172,0.09272,0,-0.07808,-0.12688,-0.122,-0.10248
-0.10736,0.1342,-0.16104,-0.10736,-0.05368,-0.02684,0.09272,0,-0.0732,-0.12688,-0.11712,-0.10248
-0.10248,0.13176,-0.16104,-0.1098,-0.05856,-0.02196,0.09272,0.00488,-0.0732,-0.12688,-0.11712,-0.10248
-0.10248,0.13176,-0.16104,-0.1098,-0.05856,-0.02196,0.09272,0.01464,-0.0732,-0.12688,-0.11712,-0.10248
-0.10248,0.12932,-0.15616,-0.10492,-0.05368,-0.0244,0.09272,0.01952,-0.06832,-0.122,-0.11712,-0.10248
-0.10248,0.12688,-0.15128,-0.10004,-0.0488,-0.02684,0.09272,0.01952,-0.06832,-0.122,-0.11712,-0.0976
-0.10248,0.12444,-0.1464,-0.09516,-0.04392,-0.02928,0.09272,0.0244,-0.06344,-0.122,-0.11712,-0.0976
-0.10248,0.12444,-0.1464,-0.09516,-0.04392,-0.02928,0.09272,0.02928,-0.06344,-0.122,-0.11224,-0.0976
-0.10248,0.12444,-0.1464,-0.09516,-0.04392,-0.02928,0.09272,0.03416,-0.06344,-0.11712,-0.11224,-0.0976
-0.10248,0.12444,-0.1464,-0.09516,-0.04392,-0.02928,0.08784,0.03416,-0.06344,-0.122,-0.11224,-0.0976
-0.0976,0.11956,-0.14152,-0.09272,-0.04392,-0.02684,0.08784,0.04392,-0.05368,-0.122,-0.11712,-0.09272
-0.0976,0.11712,-0.13664,-0.08784,-0.03904,-0.02928,0.08296,0.0488,-0.05368,-0.122,-0.11712,-0.08784
-0.09272,0.11224,-0.13176,-0.0854,-0.03904,-0.02684,0.07808,0.05856,-0.0488,-0.11712,-0.11224,-0.08784
-0.09272,0.1098,-0.12688,-0.08052,-0.03416,-0.02928,0.0732,0.05856,-0.0488,-0.11224,-0.11224,-0.08784
-0.07808,0.10248,-0.12688,-0.08784,-0.0488,-0.01464,0.0732,0.06344,-0.0488,-0.10736,-0.10736,-0.08296
-0.06344,0.09272,-0.122,-0.09028,-0.05856,-0.00244,0.06832,0.07808,-0.04392,-0.10736,-0.10248,-0.08296
-0.0732,0.0976,-0.122,-0.0854,-0.0488,-0.0122,0.0732,0.08784,-0.03904,-0.10248,-0.0976,-0.08296
-0.08296,0.10492,-0.12688,-0.0854,-0.04392,-0.01952,0.07808,0.09272,-0.03416,-0.0976,-0.08784,-0.07808
-0.0732,0.09272,-0.11224,-0.07564,-0.03904,-0.01708,0.0732,0.10248,-0.02928,-0.09272,-0.08784,-0.0732
-0.07808,0.09516,-0.11224,-0.0732,-0.03416,-0.02196,0.0732,0.11224,-0.01952,-0.08784,-0.08296,-0.06832
-0.07808,0.09272,-0.10736,-0.06832,-0.02928,-0.0244,0.07808,0.12688,-0.01464,-0.08296,-0.0732,-0.06832
-0.0732,0.0854,-0.0976,-0.061,-0.0244,-0.0244,0.07808,0.13664,-0.00976,-0.07808,-0.0732,-0.06344
-0.06344,0.07808,-0.09272,-0.061,-0.02928,-0.01708,0.0732,0.15128,0,-0.06832,-0.06344,-0.05368
-0.05856,0.07076,-0.08296,-0.05368,-0.0244,-0.01708,0.06832,0.1708,0.00976,-0.05856,-0.05368,-0.04392
-0.0488,0.061,-0.0732,-0.0488,-0.0244,-0.0122,0.06344,0.1952,0.01464,-0.05368,-0.0488,-0.03904
-0.03904,0.0488,-0.05856,-0.03904,-0.01952,-0.00976,0.05856,0.20496,0.0244,-0.0488,-0.03904,-0.03416
-0.02928,0.03904,-0.0488,-0.03416,-0.01952,-0.00488,0.05368,0.22936,0.03904,-0.03904,-0.03416,-0.02928
-0.01952,0.02684,-0.03416,-0.0244,-0.01464,-0.00244,0.0488,0.24888,0.0488,-0.02928,-0.02928,-0.02928
-0.00976,0.0122,-0.01464,-0.00976,-0.00488,-0.00244,0.04392,0.27328,0.05856,-0.00976,-0.01952,-0.00976
0.00488,-0.00244,0,-0.00244,-0.00488,0.00488,0.02928,0.29768,0.07808,0.00976,-0.00488,0
0.01952,-0.02196,0.0244,0.01464,0.00488,0.00732,0.0244,0.32208,0.08784,0.0244,0.00976,0.00976
0.03416,-0.03904,0.04392,0.02684,0.00976,0.0122,0.0244,0.35136,0.10736,0.03904,0.02928,0.01952
0.0488,-0.05612,0.06344,0.03904,0.01464,0.01708,0.01952,0.37088,0.12688,0.0488,0.04392,0.03416
0.06344,-0.0732,0.08296,0.05124,0.01952,0.02196,0.01464,0.38552,0.14152,0.06832,0.05856,0.04392
0.09272,-0.10004,0.10736,0.061,0.01464,0.03904,0,0.39528,0.15128,0.08784,0.0732,0.06344
0.10736,-0.11712,0.12688,0.0732,0.01952,0.04392,-0.00976,0.40992,0.16104,0.10248,0.08784,0.07808
0.122,-0.13664,0.15128,0.09028,0.02928,0.04636,-0.01464,0.41968,0.16592,0.11224,0.10248,0.08784
0.13664,-0.15372,0.1708,0.10248,0.03416,0.05124,-0.0244,0.42944,0.1708,0.12688,0.11712,0.10248
0.1464,-0.16836,0.19032,0.11712,0.04392,0.05124,-0.02928,0.42944,0.18544,0.14152,0.122,0.11224
0.15616,-0.18056,0.20496,0.12688,0.0488,0.05368,-0.03904,0.42944,0.1952,0.15128,0.13176,0.122
0.1708,-0.19276,0.21472,0.12932,0.04392,0.06344,-0.0488,0.42944,0.1952,0.16104,0.14152,0.13664
0.18056,-0.20496,0.22936,0.13908,0.0488,0.06588,-0.05368,0.41968,0.20008,0.16592,0.1464,0.14152
0.18544,-0.21472,0.244,0.15128,0.05856,0.06344,-0.06344,0.40992,0.20008,0.16592,0.15128,0.14152
0.19032,-0.22204,0.25376,0.1586,0.06344,0.06344,-0.0732,0.39528,0.1952,0.1708,0.15616,0.1464
0.18544,-0.2196,0.25376,0.16104,0.06832,0.05856,-0.0732,0.37576,0.20008,0.1708,0.15616,0.15128
0.18056,-0.21472,0.24888,0.1586,0.06832,0.05612,-0.07808,0.34648,0.1952,0.16104,0.15616,0.15128
0.17568,-0.20984,0.244,0.15616,0.06832,0.05368,-0.07808,0.3172,0.18056,0.16104,0.15128,0.15128
0.16104,-0.1952,0.22936,0.14884,0.06832,0.04636,-0.07808,0.28304,0.16592,0.1464,0.14152,0.15128
0.15128,-0.18544,0.2196,0.14396,0.06832,0.04148,-0.0732,0.24888,0.15128,0.13176,0.13176,0.13664
0.13176,-0.16104,0.19032,0.12444,0.05856,0.0366,-0.06344,0.20984,0.13176,0.11224,0.11224,0.12688
0.11712,-0.14396,0.1708,0.11224,0.05368,0.03172,-0.05368,0.18056,0.11712,0.09272,0.0976,0.10736
0.10248,-0.12444,0.1464,0.09516,0.04392,0.02928,-0.04392,0.14152,0.09272,0.06832,0.07808,0.08784
0.0732,-0.09272,0.11224,0.07564,0.03904,0.01708,-0.0244,0.11224,0.06344,0.0488,0.05368,0.06832
0.05368,-0.06588,0.07808,0.05124,0.0244,0.01464,-0.01464,0.08296,0.04392,0.0244,0.03416,0.0488
0.01952,-0.03416,0.0488,0.03904,0.02928,-0.00488,0.00488,0.05856,0.0244,0.00976,0.01952,0.02928
0,-0.00976,0.01952,0.01952,0.01952,-0.00976,0.01464,0.03904,0.00488,-0.00976,0,0.00976
-0.01952,0.0122,-0.00488,0.00488,0.01464,-0.01708,0.02928,0.01952,0,-0.0244,-0.01464,-0.00488
-0.04392,0.03904,-0.03416,-0.0122,0.00976,-0.02684,0.03904,0.00488,-0.00976,-0.04392,-0.03416,-0.01952
-0.05368,0.05124,-0.0488,-0.02196,0.00488,-0.02928,0.0488,-0.00488,-0.01952,-0.05856,-0.0488,-0.03416
-0.06344,0.06588,-0.06832,-0.0366,-0.00488,-0.02928,0.05856,-0.01464,-0.02928,-0.06832,-0.06832,-0.04392
-0.07808,0.08052,-0.08296,-0.04392,-0.00488,-0.0366,0.06832,-0.0244,-0.03904,-0.07808,-0.0732,-0.0488
-0.08784,0.08784,-0.08784,-0.04392,0,-0.04392,0.06832,-0.03416,-0.03904,-0.08784,-0.08296,-0.05856
-0.09272,0.09516,-0.0976,-0.05124,-0.00488,-0.04392,0.06832,-0.03416,-0.05368,-0.09272,-0.08784,-0.06832
-0.0976,0.10248,-0.10736,-0.05856,-0.00976,-0.04392,0.0732,-0.03904,-0.05368,-0.0976,-0.09272,-0.06832
-0.10248,0.10492,-0.10736,-0.05612,-0.00488,-0.0488,0.0732,-0.03904,-0.05368,-0.0976,-0.09272,-0.06832
-0.10248,0.10736,-0.11224,-0.061,-0.00976,-0.04636,0.06832,-0.04392,-0.05856,-0.10248,-0.0976,-0.06832
-0.10736,0.1098,-0.11224,-0.05856,-0.00488,-0.05124,0.06832,-0.0488,-0.05856,-0.10736,-0.0976,-0.0732
-0.10736,0.1098,-0.11224,-0.05856,-0.00488,-0.05124,0.0732,-0.0488,-0.06344,-0.11712,-0.0976,-0.07808
-0.10736,0.11224,-0.11712,-0.06344,-0.00976,-0.0488,0.0732,-0.0488,-0.06832,-0.11712,-0.10248,-0.08296
-0.10736,0.11224,-0.11712,-0.06344,-0.00976,-0.0488,0.06832,-0.05368,-0.06832,-0.11712,-0.10248,-0.08296
-0.10736,0.11224,-0.11712,-0.06344,-0.00976,-0.0488,0.06832,-0.05368,-0.06832,-0.122,-0.10736,-0.08296
-0.11224,0.11712,-0.122,-0.06588,-0.00976,-0.05124,0.06832,-0.05368,-0.06832,-0.122,-0.10736,-0.08784
-0.11224,0.11712,-0.122,-0.06588,-0.00976,-0.05124,0.06832,-0.05368,-0.06832,-0.122,-0.10736,-0.08784
-0.11224,0.11956,-0.12688,-0.07076,-0.01464,-0.0488,0.0732,-0.05368,-0.06832,-0.11712,-0.10736,-0.08784
-0.11224,0.11956,-0.12688,-0.07076,-0.01464,-0.0488,0.0732,-0.05368,-0.06832,-0.11712,-0.10736,-0.08784
-0.11224,0.11956,-0.12688,-0.07076,-0.01464,-0.0488,0.0732,-0.0488,-0.06832,-0.11712,-0.10736,-0.09272
-0.10736,0.11712,-0.12688,-0.0732,-0.01952,-0.04392,0.0732,-0.0488,-0.06832,-0.11712,-0.10736,-0.0976
-0.10248,0.11468,-0.12688,-0.07564,-0.0244,-0.03904,0.0732,-0.0488,-0.06832,-0.11712,-0.10736,-0.0976
-0.10248,0.11468,-0.12688,-0.07564,-0.0244,-0.03904,0.0732,-0.0488,-0.06832,-0.11712,-0.10248,-0.09272
-0.10248,0.11468,-0.12688,-0.07564,-0.0244,-0.03904,0.0732,-0.04392,-0.06344,-0.11712,-0.10248,-0.09272
-0.10248,0.11224,-0.122,-0.07076,-0.01952,-0.04148,0.0732,-0.04392,-0.06344,-0.11712,-0.10248,-0.08784
-0.0976,0.1098,-0.122,-0.0732,-0.0244,-0.0366,0.0732,-0.04392,-0.06344,-0.11224,-0.0976,-0.08296
-0.0976,0.1098,-0.122,-0.0732,-0.0244,-0.0366,0.0732,-0.03904,-0.06344,-0.11224,-0.0976,-0.08296
-0.0976,0.1098,-0.122,-0.0732,-0.0244,-0.0366,0.0732,-0.03904,-0.06344,-0.11224,-0.0976,-0.08296
-0.0976,0.1098,-0.122,-0.0732,-0.0244,-0.0366,0.0732,-0.03904,-0.05856,-0.11224,-0.0976,-0.08296
-0.09272,0.10736,-0.122,-0.07564,-0.02928,-0.03172,0.0732,-0.03904,-0.05856,-0.11224,-0.0976,-0.08784
-0.09272,0.10492,-0.11712,-0.07076,-0.0244,-0.03416,0.0732,-0.03904,-0.05856,-0.10736,-0.0976,-0.08784
-0.09272,0.10492,-0.11712,-0.07076,-0.0244,-0.03416,0.0732,-0.03904,-0.05856,-0.10736,-0.0976,-0.08784
-0.0976,0.1098,-0.122,-0.0732,-0.0244,-0.0366,0.06832,-0.03904,-0.05856,-0.10736,-0.0976,-0.08784
-0.0976,0.11224,-0.12688,-0.07808,-0.02928,-0.03416,0.06832,-0.03904,-0.05856,-0.10736,-0.0976,-0.08784
-0.0976,0.1098,-0.122,-0.0732,-0.0244,-0.0366,0.06832,-0.04392,-0.05856,-0.10248,-0.09272,-0.08296
-0.0976,0.1098,-0.122,-0.0732,-0.0244,-0.0366,0.06832,-0.04392,-0.05856,-0.10248,-0.09272,-0.08296
-0.0976,0.10736,-0.11712,-0.06832,-0.01952,-0.03904,0.06832,-0.04392,-0.05368,-0.10248,-0.09272,-0.08296
-0.0976,0.10736,-0.11712,-0.06832,-0.01952,-0.03904,0.06832,-0.04392,-0.05368,-0.10248,-0.09272,-0.08296
-0.10248,0.1098,-0.11712,-0.06588,-0.01464,-0.04392,0.06832,-0.04392,-0.05368,-0.10248,-0.09272,-0.07808
-0.10248,0.1098,-0.11712,-0.06588,-0.01464,-0.04392,0.06832,-0.04392,-0.05368,-0.10248,-0.09272,-0.0732
-0.10248,0.1098,-0.11712,-0.06588,-0.01464,-0.04392,0.06832,-0.04392,-0.05368,-0.0976,-0.08784,-0.07808
-0.10248,0.1098,-0.11712,-0.06588,-0.01464,-0.04392,0.06832,-0.04392,-0.05368,-0.0976,-0.08784,-0.07808
-0.0976,0.10736,-0.11712,-0.06832,-0.01952,-0.03904,0.06832,-0.04392,-0.05368,-0.0976,-0.08784,-0.0732
-0.0976,0.10736,-0.11712,-0.06832,-0.01952,-0.03904,0.06832,-0.04392,-0.05368,-0.10248,-0.08784,-0.0732
-0.0976,0.10736,-0.11712,-0.06832,-0.01952,-0.03904,0.06832,-0.04392,-0.05368,-0.10248,-0.08784,-0.0732
-0.0976,0.10736,-0.11712,-0.06832,-0.01952,-0.03904,0.06832,-0.0488,-0.05368,-0.10248,-0.08784,-0.0732
-0.0976,0.10736,-0.11712,-0.06832,-0.01952,-0.03904,0.06832,-0.0488,-0.05368,-0.10248,-0.09272,-0.0732
-0.0976,0.10736,-0.11712,-0.06832,-0.01952,-0.03904,0.06832,-0.0488,-0.05856,-0.10736,-0.0976,-0.07808
-0.0976,0.10736,-0.11712,-0.06832,-0.01952,-0.03904,0.06832,-0.0488,-0.05856,-0.10736,-0.0976,-0.07808
-0.0976,0.10736,-0.11712,-0.06832,-0.01952,-0.03904,0.06832,-0.0488,-0.05856,-0.10736,-0.0976,-0.07808
-0.0976,0.1098,-0.122,-0.0732,-0.0244,-0.0366,0.06832,-0.0488,-0.05856,-0.10736,-0.0976,-0.07808
-0.0976,0.11224,-0.12688,-0.07808,-0.02928,-0.03416,0.06832,-0.0488,-0.05856,-0.10736,-0.0976,-0.07808
-0.0976,0.11224,-0.12688,-0.07808,-0.02928,-0.03416,0.0732,-0.0488,-0.05856,-0.10736,-0.0976,-0.07808
-0.0976,0.11224,-0.12688,-0.07808,-0.02928,-0.03416,0.0732,-0.0488,-0.05856,-0.10736,-0.09272,-0.07808
-0.10248,0.11712,-0.13176,-0.08052,-0.02928,-0.0366,0.07808,-0.0488,-0.05856,-0.10736,-0.09272,-0.08296
-0.10736,0.122,-0.13664,-0.08296,-0.02928,-0.03904,0.07808,-0.0488,-0.05856,-0.10736,-0.08784,-0.07808
-0.10736,0.11956,-0.13176,-0.07808,-0.0244,-0.04148,0.07808,-0.04392,-0.05368,-0.10248,-0.08784,-0.07808
-0.10736,0.11468,-0.122,-0.06832,-0.01464,-0.04636,0.08784,-0.04392,-0.04392,-0.09272,-0.08784,-0.07808
-0.10736,0.10736,-0.10736,-0.05368,0,-0.05368,0.0976,-0.03904,-0.03904,-0.09272,-0.08296,-0.0732
-0.10736,0.0976,-0.08784,-0.03416,0.01952,-0.06344,0.10736,-0.02928,-0.03416,-0.08296,-0.07808,-0.06832
-0.10736,0.09516,-0.08296,-0.02928,0.0244,-0.06588,0.11712,-0.01952,-0.02928,-0.07808,-0.0732,-0.06344
-0.10248,0.09028,-0.07808,-0.02684,0.0244,-0.06344,0.12688,-0.01464,-0.01952,-0.0732,-0.06832,-0.06344
-0.10248,0.08784,-0.0732,-0.02196,0.02928,-0.06588,0.12688,-0.00976,-0.01952,-0.07808,-0.0732,-0.06344
-0.10248,0.08784,-0.0732,-0.02196,0.02928,-0.06588,0.12688,-0.00976,-0.01952,-0.08296,-0.0732,-0.06832
-0.09272,0.08052,-0.06832,-0.02196,0.0244,-0.05856,0.10736,-0.0244,-0.01952,-0.07808,-0.0732,-0.06832
-0.08784,0.0732,-0.05856,-0.01464,0.02928,-0.05856,0.08784,-0.03904,-0.01952,-0.07808,-0.0732,-0.06344
-0.0732,0.06344,-0.05368,-0.01708,0.01952,-0.04636,0.05856,-0.0488,-0.01952,-0.0732,-0.06344,-0.05856
-0.06344,0.05612,-0.0488,-0.01708,0.01464,-0.03904,0.03416,-0.0488,-0.01952,-0.0732,-0.05856,-0.05368
-0.05856,0.04392,-0.02928,0,0.02928,-0.04392,0.02928,-0.0488,-0.01952,-0.06832,-0.0488,-0.0488
-0.05856,0.03172,-0.00488,0.0244,0.05368,-0.05612,0.02928,-0.04392,-0.01464,-0.05856,-0.03904,-0.03904
-0.05856,0.0366,-0.01464,0.01464,0.04392,-0.05124,0.03416,-0.04392,-0.00976,-0.05856,-0.03904,-0.03904
-0.05856,0.0366,-0.01464,0.01464,0.04392,-0.05124,0.03416,-0.04392,-0.00976,-0.05856,-0.03904,-0.03904
-0.05368,0.04392,-0.03416,-0.00732,0.01952,-0.0366,0.02928,-0.0488,-0.01952,-0.0732,-0.0488,-0.04392
-0.0488,0.05124,-0.05368,-0.02928,-0.00488,-0.02196,0.0244,-0.06344,-0.02928,-0.08296,-0.05856,-0.05368
-0.0488,0.06832,-0.08784,-0.06344,-0.03904,-0.00488,0.01952,-0.0732,-0.05368,-0.09272,-0.0732,-0.06344
-0.0488,0.0732,-0.0976,-0.0732,-0.0488,0,0.01952,-0.08296,-0.05856,-0.10248,-0.08784,-0.06832
-0.06344,0.09028,-0.11712,-0.0854,-0.05368,-0.00488,0.01952,-0.08296,-0.06832,-0.11224,-0.0976,-0.07808
-0.07808,0.10004,-0.122,-0.08296,-0.04392,-0.01708,0.02928,-0.08296,-0.06832,-0.11224,-0.10248,-0.07808
-0.0976,0.10736,-0.11712,-0.06832,-0.01952,-0.03904,0.03904,-0.0732,-0.06344,-0.11224,-0.10248,-0.07808
-0.11224,0.11712,-0.122,-0.06588,-0.00976,-0.05124,0.05368,-0.06832,-0.05856,-0.11224,-0.10248,-0.08296
-0.11712,0.12688,-0.13664,-0.07808,-0.01952,-0.0488,0.05856,-0.06832,-0.05856,-0.11224,-0.11224,-0.09272
-0.122,0.13908,-0.15616,-0.09516,-0.03416,-0.04392,0.05856,-0.06832,-0.06832,-0.12688,-0.11224,-0.10248
-0.122,0.14152,-0.16104,-0.10004,-0.03904,-0.04148,0.06344,-0.0732,-0.0732,-0.12688,-0.122,-0.10248
-0.122,0.14152,-0.16104,-0.10004,-0.03904,-0.04148,0.06832,-0.0732,-0.07808,-0.12688,-0.122,-0.10248
-0.122,0.14396,-0.16592,-0.10492,-0.04392,-0.03904,0.06832,-0.0732,-0.07808,-0.13176,-0.122,-0.10736
-0.122,0.14396,-0.16592,-0.10492,-0.04392,-0.03904,0.0732,-0.0732,-0.07808,-0.13176,-0.122,-0.10736
-0.122,0.14396,-0.16592,-0.10492,-0.04392,-0.03904,0.06832,-0.06832,-0.07808,-0.13176,-0.11712,-0.10736
-0.12688,0.14396,-0.16104,-0.0976,-0.03416,-0.04636,0.06344,-0.06832,-0.07808,-0.13176,-0.11224,-0.10736
-0.13176,0.1464,-0.16104,-0.09516,-0.02928,-0.05124,0.06832,-0.06832,-0.07808,-0.12688,-0.11224,-0.10736
-0.13176,0.1464,-0.16104,-0.09516,-0.02928,-0.05124,0.06832,-0.06832,-0.07808,-0.122,-0.11224,-0.10736
-0.13176,0.1464,-0.16104,-0.09516,-0.02928,-0.05124,0.06832,-0.06344,-0.0732,-0.122,-0.11224,-0.10736
-0.13176,0.1464,-0.16104,-0.09516,-0.02928,-0.05124,0.06832,-0.05856,-0.0732,-0.122,-0.11224,-0.10736
-0.122,0.14152,-0.16104,-0.10004,-0.03904,-0.04148,0.06832,-0.05856,-0.06832,-0.11712,-0.11224,-0.10736
-0.11712,0.14152,-0.16592,-0.10736,-0.0488,-0.03416,0.07808,-0.04392,-0.06344,-0.11224,-0.11224,-0.11712
-0.13176,0.15372,-0.17568,-0.1098,-0.04392,-0.04392,0.0976,0.01464,-0.04392,-0.11224,-0.11712,-0.13176
-0.13176,0.15372,-0.17568,-0.1098,-0.04392,-0.04392,0.15128,0.18544,0.01952,-0.09272,-0.11224,-0.13176
-0.0976,0.09028,-0.08296,-0.03416,0.01464,-0.05612,0.15128,0.36112,0.13176,-0.00488,-0.0488,-0.09272
0.00488,-0.04392,0.08296,0.08052,0.07808,-0.0366,0.11224,0.4148,0.25376,0.14152,0.08784,0.01952
0.22936,-0.27816,0.32696,0.21228,0.0976,0.06588,-0.03416,0.30744,0.3416,0.33672,0.27816,0.20008
0.55632,-0.6222,0.68808,0.40992,0.13176,0.21228,-0.28304,0.06832,0.38552,0.58072,0.5612,0.47336
0.86376,-0.92964,0.99552,0.56364,0.13176,0.366,-0.60024,-0.45872,0.27328,0.73688,0.80032,0.74664
1.13704,-1.1834,1.22976,0.66124,0.09272,0.52216,-0.92232,-0.91744,0.122,0.84424,0.98576,0.95648
1.22976,-1.24928,1.2688,0.65392,0.03904,0.59536,-1.13216,-1.2688,-0.10248,0.79056,0.98576,1.0004
1.098,-0.9882,0.8784,0.3294,-0.2196,0.6588,-1.08824,-1.47376,-0.42456,0.39528,0.62464,0.73688
0.63928,-0.5856,0.53192,0.21228,-0.10736,0.37332,-0.83448,-1.50304,-0.54168,0.0732,0.28304,0.45384
0.22448,-0.244,0.26352,0.15128,0.03904,0.09272,-0.60024,-1.47864,-0.64416,-0.20008,0.01952,0.2196
0.13176,-0.12444,0.11712,0.05124,-0.01464,0.0732,-0.46848,-1.24928,-0.64416,-0.28792,-0.05856,0.12688
0.12688,-0.09516,0.06344,0,-0.06344,0.09516,-0.36112,-0.89304,-0.49776,-0.244,-0.06832,0.07808
0.0732,-0.0488,0.0244,-0.0122,-0.0488,0.061,-0.22936,-0.58072,-0.34648,-0.1952,-0.06832,0.04392
-0.00976,0.02196,-0.03416,-0.02928,-0.0244,0.00732,-0.122,-0.38552,-0.22448,-0.16104,-0.07808,0
-0.06344,0.0732,-0.08296,-0.05124,-0.01952,-0.02196,-0.0488,-0.26352,-0.16104,-0.14152,-0.09272,-0.04392
-0.06832,0.09028,-0.11224,-0.07808,-0.04392,-0.0122,-0.00976,-0.18544,-0.13664,-0.13664,-0.10248,-0.06344
-0.0732,0.10004,-0.12688,-0.09028,-0.05368,-0.00976,0.01464,-0.122,-0.12688,-0.13664,-0.11224,-0.07808
-0.08296,0.11468,-0.1464,-0.10492,-0.06344,-0.00976,0.02928,-0.08296,-0.11224,-0.13664,-0.11712,-0.0976
-0.10736,0.1342,-0.16104,-0.10736,-0.05368,-0.02684,0.05368,-0.05368,-0.08784,-0.13664,-0.11712,-0.10736
-0.122,0.14396,-0.16592,-0.10492,-0.04392,-0.03904,0.06832,-0.0488,-0.08784,-0.13664,-0.11712,-0.11224
-0.122,0.1464,-0.1708,-0.1098,-0.0488,-0.0366,0.06832,-0.04392,-0.08784,-0.13664,-0.122,-0.11224
-0.122,0.14884,-0.17568,-0.11468,-0.05368,-0.03416,0.0732,-0.0244,-0.08784,-0.13664,-0.122,-0.122
-0.13176,0.15372,-0.17568,-0.1098,-0.04392,-0.04392,0.08296,-0.01464,-0.07808,-0.13176,-0.122,-0.122
-0.13176,0.15372,-0.17568,-0.1098,-0.04392,-0.04392,0.08784,-0.01464,-0.07808,-0.122,-0.122,-0.122
-0.12688,0.15372,-0.18056,-0.11712,-0.05368,-0.0366,0.08784,-0.00976,-0.0732,-0.122,-0.122,-0.11712
-0.122,0.15128,-0.18056,-0.11956,-0.05856,-0.03172,0.08784,0,-0.0732,-0.122,-0.122,-0.11712
-0.122,0.15128,-0.18056,-0.11956,-0.05856,-0.03172,0.09272,0.01464,-0.06832,-0.122,-0.122,-0.122
-0.12688,0.15372,-0.18056,-0.11712,-0.05368,-0.0366,0.09272,0.01952,-0.06832,-0.11712,-0.122,-0.122
-0.12688,0.15616,-0.18544,-0.122,-0.05856,-0.03416,0.09272,0.01952,-0.06344,-0.11712,-0.11712,-0.122
-0.122,0.15616,-0.19032,-0.12932,-0.06832,-0.02684,0.09272,0.01952,-0.06344,-0.11712,-0.11712,-0.122
-0.122,0.15616,-0.19032,-0.12932,-0.06832,-0.02684,0.09272,0.0244,-0.06344,-0.11712,-0.11712,-0.122
-0.122,0.15372,-0.18544,-0.12444,-0.06344,-0.02928,0.09272,0.02928,-0.05856,-0.11224,-0.11712,-0.122
-0.11712,0.1464,-0.17568,-0.11712,-0.05856,-0.02928,0.09272,0.0244,-0.05856,-0.11224,-0.122,-0.11712
-0.10736,0.13664,-0.16592,-0.11224,-0.05856,-0.0244,0.09272,0.0244,-0.05368,-0.11224,-0.12688,-0.11712
-0.10248,0.1342,-0.16592,-0.11468,-0.06344,-0.01952,0.09272,0.02928,-0.05368,-0.122,-0.122,-0.11224
-0.10248,0.1342,-0.16592,-0.11468,-0.06344,-0.01952,0.09272,0.03416,-0.05368,-0.122,-0.122,-0.10736
-0.10248,0.1342,-0.16592,-0.11468,-0.06344,-0.01952,0.08784,0.03904,-0.05368,-0.11224,-0.11712,-0.10736
-0.0976,0.12932,-0.16104,-0.11224,-0.06344,-0.01708,0.08784,0.05368,-0.04392,-0.10248,-0.11224,-0.10248
-0.0976,0.12688,-0.15616,-0.10736,-0.05856,-0.01952,0.08296,0.05856,-0.03904,-0.10248,-0.10736,-0.0976
-0.09272,0.122,-0.15128,-0.10492,-0.05856,-0.01708,0.08296,0.06832,-0.02928,-0.0976,-0.10248,-0.0976
-0.09272,0.11956,-0.1464,-0.10004,-0.05368,-0.01952,0.08296,0.06832,-0.02928,-0.09272,-0.10248,-0.0976
-0.08784,0.11712,-0.1464,-0.10248,-0.05856,-0.01464,0.08296,0.0732,-0.02928,-0.08784,-0.0976,-0.09272
-0.08296,0.11224,-0.14152,-0.10004,-0.05856,-0.0122,0.07808,0.07808,-0.02928,-0.08784,-0.09272,-0.0976
-0.08296,0.1098,-0.13664,-0.09516,-0.05368,-0.01464,0.07808,0.07808,-0.02928,-0.08296,-0.09272,-0.10248
-0.08296,0.1098,-0.13664,-0.09516,-0.05368,-0.01464,0.0732,0.08296,-0.0244,-0.07808,-0.08296,-0.0976
-0.06832,0.09516,-0.122,-0.08784,-0.05368,-0.00732,0.06344,0.09272,-0.01952,-0.0732,-0.07808,-0.09272
-0.06832,0.09516,-0.122,-0.08784,-0.05368,-0.00732,0.06344,0.10248,-0.00976,-0.06832,-0.0732,-0.08296
-0.06832,0.09272,-0.11712,-0.08296,-0.0488,-0.00976,0.06344,0.11712,-0.00488,-0.06344,-0.06344,-0.07808
-0.06344,0.0854,-0.10736,-0.07564,-0.04392,-0.00976,0.06344,0.12688,0,-0.05856,-0.06344,-0.0732
-0.05368,0.07808,-0.10248,-0.07564,-0.0488,-0.00244,0.06344,0.14152,0.00976,-0.0488,-0.05368,-0.06344
-0.0488,0.07076,-0.09272,-0.06832,-0.04392,-0.00244,0.05856,0.16104,0.01952,-0.03904,-0.04392,-0.05368
-0.03904,0.061,-0.08296,-0.06344,-0.04392,0.00244,0.05856,0.18544,0.0244,-0.02928,-0.03904,-0.0488
-0.0244,0.04392,-0.06344,-0.05124,-0.03904,0.00732,0.05368,0.19032,0.03416,-0.01952,-0.02928,-0.04392
-0.00976,0.02928,-0.0488,-0.04392,-0.03904,0.01464,0.04392,0.20984,0.0488,-0.00976,-0.01952,-0.03416
0,0.01708,-0.03416,-0.03416,-0.03416,0.01708,0.03904,0.22936,0.05856,0,-0.00976,-0.02928
0.00976,0.00244,-0.01464,-0.01952,-0.0244,0.01708,0.03416,0.25376,0.06832,0.01464,0,-0.00976
0.0244,-0.0122,0,-0.0122,-0.0244,0.0244,0.01952,0.27816,0.08296,0.02928,0.01464,0
0.03904,-0.03172,0.0244,0.00488,-0.01464,0.02684,0.01464,0.29768,0.08784,0.04392,0.0244,0.00976
0.05368,-0.0488,0.04392,0.01708,-0.00976,0.03172,0.01464,0.32208,0.10736,0.05856,0.03904,0.01952
0.06832,-0.06588,0.06344,0.02928,-0.00488,0.0366,0.00488,0.3416,0.122,0.06832,0.05368,0.03416
0.08296,-0.08052,0.07808,0.0366,-0.00488,0.04392,-0.00488,0.35136,0.13176,0.08784,0.06832,0.04392
0.10736,-0.10248,0.0976,0.04392,-0.00976,0.05856,-0.01952,0.35624,0.14152,0.10736,0.08296,0.06344
0.11224,-0.11468,0.11712,0.061,0.00488,0.05368,-0.02928,0.37088,0.15128,0.122,0.0976,0.07808
0.122,-0.13176,0.14152,0.08052,0.01952,0.05124,-0.03416,0.38064,0.16104,0.13176,0.11224,0.08784
0.13664,-0.14884,0.16104,0.09272,0.0244,0.05612,-0.04392,0.3904,0.1708,0.14152,0.122,0.0976
0.1464,-0.16348,0.18056,0.10736,0.03416,0.05612,-0.0488,0.3904,0.18544,0.15128,0.12688,0.10248
0.15616,-0.17568,0.1952,0.11712,0.03904,0.05856,-0.05856,0.3904,0.1952,0.16104,0.14152,0.11224
0.1708,-0.18788,0.20496,0.11956,0.03416,0.06832,-0.06832,0.3904,0.1952,0.1708,0.15128,0.12688
0.18056,-0.19764,0.21472,0.12444,0.03416,0.0732,-0.0732,0.38064,0.20008,0.18056,0.16104,0.13176
0.18544,-0.20496,0.22448,0.13176,0.03904,0.0732,-0.08296,0.37088,0.20008,0.18544,0.1708,0.13664
0.19032,-0.21228,0.23424,0.13908,0.04392,0.0732,-0.09272,0.35624,0.1952,0.19032,0.17568,0.1464
0.19032,-0.21472,0.23912,0.14396,0.0488,0.07076,-0.09272,0.33672,0.1952,0.19032,0.17568,0.15128
0.19032,-0.21716,0.244,0.14884,0.05368,0.06832,-0.0976,0.31232,0.18544,0.18056,0.1708,0.15128
0.18544,-0.21472,0.244,0.15128,0.05856,0.06344,-0.0976,0.28792,0.1708,0.18056,0.16104,0.1464
0.1708,-0.20008,0.22936,0.14396,0.05856,0.05612,-0.0976,0.25864,0.15616,0.16592,0.15128,0.14152
0.16104,-0.19032,0.2196,0.13908,0.05856,0.05124,-0.09272,0.22936,0.14152,0.15128,0.14152,0.12688
0.14152,-0.16348,0.18544,0.11468,0.04392,0.0488,-0.07808,0.1952,0.122,0.13176,0.12688,0.11712
0.11712,-0.13664,0.15616,0.0976,0.03904,0.03904,-0.06344,0.17568,0.10736,0.11224,0.11712,0.0976
0.08784,-0.10736,0.12688,0.08296,0.03904,0.0244,-0.0488,0.1464,0.08784,0.08784,0.0976,0.07808
0.05368,-0.0732,0.09272,0.06588,0.03904,0.00732,-0.0244,0.122,0.06832,0.06832,0.0732,0.05856
0.03416,-0.0488,0.06344,0.04636,0.02928,0.00244,-0.01464,0.09272,0.05368,0.04392,0.05368,0.03416
0.00488,-0.02196,0.03904,0.0366,0.03416,-0.01464,0.00488,0.06832,0.03416,0.0244,0.03416,0.00976
-0.00488,-0.00244,0.00976,0.0122,0.01464,-0.00976,0.01464,0.0488,0.01464,0,0.00976,-0.00976
-0.01952,0.01708,-0.01464,-0.00488,0.00488,-0.0122,0.02928,0.02928,0.00488,-0.01464,-0.00488,-0.0244
-0.04392,0.04392,-0.04392,-0.02196,0,-0.02196,0.03904,0.01952,-0.00976,-0.02928,-0.0244,-0.03416
-0.05368,0.05612,-0.05856,-0.03172,-0.00488,-0.0244,0.0488,0.01464,-0.01952,-0.03904,-0.03416,-0.04392
-0.06344,0.07076,-0.07808,-0.04636,-0.01464,-0.0244,0.05856,0.00488,-0.0244,-0.0488,-0.0488,-0.05368
-0.07808,0.0854,-0.09272,-0.05368,-0.01464,-0.03172,0.06832,-0.00488,-0.02928,-0.05856,-0.05368,-0.05856
-0.09272,0.09516,-0.0976,-0.05124,-0.00488,-0.04392,0.06832,-0.01464,-0.02928,-0.06832,-0.06344,-0.06832
-0.0976,0.10248,-0.10736,-0.05856,-0.00976,-0.04392,0.06832,-0.01464,-0.04392,-0.0732,-0.06832,-0.07808
-0.0976,0.10736,-0.11712,-0.06832,-0.01952,-0.03904,0.0732,-0.01952,-0.04392,-0.08296,-0.0732,-0.07808
-0.10248,0.1098,-0.11712,-0.06588,-0.01464,-0.04392,0.07808,-0.01952,-0.04392,-0.08784,-0.0732,-0.07808
-0.10248,0.11224,-0.122,-0.07076,-0.01952,-0.04148,0.07808,-0.0244,-0.0488,-0.09272,-0.07808,-0.07808
-0.10736,0.11468,-0.122,-0.06832,-0.01464,-0.04636,0.07808,-0.02928,-0.0488,-0.09272,-0.07808,-0.07808
-0.10736,0.11468,-0.122,-0.06832,-0.01464,-0.04636,0.08296,-0.02928,-0.05368,-0.0976,-0.07808,-0.07808
-0.10736,0.11712,-0.12688,-0.0732,-0.01952,-0.04392,0.08296,-0.02928,-0.05856,-0.0976,-0.08296,-0.08296
-0.10736,0.11712,-0.12688,-0.0732,-0.01952,-0.04392,0.08296,-0.02928,-0.05368,-0.0976,-0.07808,-0.08296
-0.10736,0.11712,-0.12688,-0.0732,-0.01952,-0.04392,0.08784,-0.0244,-0.0488,-0.10248,-0.07808,-0.08296
-0.11224,0.122,-0.13176,-0.07564,-0.01952,-0.04636,0.08784,-0.0244,-0.0488,-0.0976,-0.07808,-0.08784
-0.11224,0.122,-0.13176,-0.07564,-0.01952,-0.04636,0.08784,-0.0244,-0.0488,-0.0976,-0.07808,-0.08784
-0.11224,0.12688,-0.14152,-0.0854,-0.02928,-0.04148,0.08784,-0.0244,-0.0488,-0.0976,-0.08296,-0.08784
-0.11224,0.12932,-0.1464,-0.09028,-0.03416,-0.03904,0.08296,-0.0244,-0.0488,-0.0976,-0.08784,-0.08784
-0.10736,0.12688,-0.1464,-0.09272,-0.03904,-0.03416,0.08296,-0.0244,-0.0488,-0.0976,-0.08784,-0.09272
-0.10248,0.12444,-0.1464,-0.09516,-0.04392,-0.02928,0.08296,-0.02928,-0.0488,-0.0976,-0.08784,-0.0976
-0.10248,0.122,-0.14152,-0.09028,-0.03904,-0.03172,0.08296,-0.02928,-0.05368,-0.0976,-0.08784,-0.0976
-0.10248,0.11956,-0.13664,-0.0854,-0.03416,-0.03416,0.08296,-0.02928,-0.05856,-0.0976,-0.08784,-0.09272
-0.10248,0.11956,-0.13664,-0.0854,-0.03416,-0.03416,0.07808,-0.0244,-0.05368,-0.0976,-0.09272,-0.09272
-0.10248,0.11712,-0.13176,-0.08052,-0.02928,-0.0366,0.0732,-0.0244,-0.05368,-0.0976,-0.09272,-0.09272
-0.0976,0.11468,-0.13176,-0.08296,-0.03416,-0.03172,0.0732,-0.0244,-0.05368,-0.09272,-0.08784,-0.09272
-0.0976,0.11468,-0.13176,-0.08296,-0.03416,-0.03172,0.0732,-0.01952,-0.05368,-0.09272,-0.08784,-0.09272
-0.10248,0.11712,-0.13176,-0.08052,-0.02928,-0.0366,0.0732,-0.01952,-0.05368,-0.09272,-0.08784,-0.08784
-0.10736,0.11956,-0.13176,-0.07808,-0.0244,-0.04148,0.0732,-0.01952,-0.0488,-0.09272,-0.08784,-0.07808
-0.10248,0.11712,-0.13176,-0.08052,-0.02928,-0.0366,0.0732,-0.01952,-0.0488,-0.09272,-0.08784,-0.07808
-0.10248,0.11468,-0.12688,-0.07564,-0.0244,-0.03904,0.0732,-0.01952,-0.0488,-0.08784,-0.08784,-0.07808
-0.10248,0.11468,-0.12688,-0.07564,-0.0244,-0.03904,0.0732,-0.01952,-0.04392,-0.08296,-0.08296,-0.08296
-0.10248,0.11468,-0.12688,-0.07564,-0.0244,-0.03904,0.06832,-0.01952,-0.03904,-0.07808,-0.07808,-0.08784
-0.0976,0.11224,-0.12688,-0.07808,-0.02928,-0.03416,0.0732,-0.01464,-0.03904,-0.07808,-0.07808,-0.08784
-0.0976,0.1098,-0.122,-0.0732,-0.0244,-0.0366,0.07808,-0.01464,-0.03904,-0.0732,-0.0732,-0.08296
-0.0976,0.1098,-0.122,-0.0732,-0.0244,-0.0366,0.07808,-0.01464,-0.03904,-0.0732,-0.0732,-0.08296
-0.0976,0.1098,-0.122,-0.0732,-0.0244,-0.0366,0.07808,-0.01464,-0.03416,-0.0732,-0.0732,-0.08296
-0.09272,0.1098,-0.12688,-0.08052,-0.03416,-0.02928,0.07808,-0.01464,-0.03416,-0.0732,-0.0732,-0.08296
-0.09272,0.1098,-0.12688,-0.08052,-0.03416,-0.02928,0.07808,-0.01464,-0.03416,-0.0732,-0.0732,-0.08296
-0.09272,0.1098,-0.12688,-0.08052,-0.03416,-0.02928,0.07808,-0.01464,-0.03416,-0.0732,-0.0732,-0.08296
-0.09272,0.1098,-0.12688,-0.08052,-0.03416,-0.02928,0.07808,-0.01464,-0.03416,-0.06832,-0.06832,-0.08784
-0.09272,0.1098,-0.12688,-0.08052,-0.03416,-0.02928,0.07808,-0.01464,-0.02928,-0.06832,-0.06832,-0.08296
-0.0976,0.11224,-0.12688,-0.07808,-0.02928,-0.03416,0.07808,-0.01464,-0.0244,-0.06832,-0.06832,-0.0732
-0.0976,0.11224,-0.12688,-0.07808,-0.02928,-0.03416,0.07808,-0.01464,-0.0244,-0.06832,-0.06832,-0.0732
-0.0976,0.11224,-0.12688,-0.07808,-0.02928,-0.03416,0.07808,-0.01952,-0.02928,-0.06832,-0.06832,-0.07808
-0.0976,0.11468,-0.13176,-0.08296,-0.03416,-0.03172,0.07808,-0.01952,-0.02928,-0.06832,-0.06832,-0.07808
-0.0976,0.11712,-0.13664,-0.08784,-0.03904,-0.02928,0.07808,-0.01952,-0.02928,-0.06832,-0.06832,-0.07808
-0.0976,0.11712,-0.13664,-0.08784,-0.03904,-0.02928,0.07808,-0.01952,-0.02928,-0.06832,-0.0732,-0.08296
-0.0976,0.11712,-0.13664,-0.08784,-0.03904,-0.02928,0.07808,-0.01952,-0.02928,-0.06832,-0.0732,-0.08784
-0.0976,0.11712,-0.13664,-0.08784,-0.03904,-0.02928,0.07808,-0.01952,-0.02928,-0.06832,-0.07808,-0.09272
-0.0976,0.11712,-0.13664,-0.08784,-0.03904,-0.02928,0.07808,-0.01952,-0.02928,-0.06832,-0.07808,-0.09272
-0.0976,0.11712,-0.13664,-0.08784,-0.03904,-0.02928,0.07808,-0.01952,-0.02928,-0.06832,-0.0732,-0.08784
-0.0976,0.11468,-0.13176,-0.08296,-0.03416,-0.03172,0.07808,-0.01464,-0.0244,-0.06832,-0.06832,-0.08784
-0.0976,0.1098,-0.122,-0.0732,-0.0244,-0.0366,0.09272,-0.01464,-0.01464,-0.05856,-0.06832,-0.08296
-0.0976,0.10492,-0.11224,-0.06344,-0.01464,-0.04148,0.10736,-0.00976,-0.00976,-0.05368,-0.06344,-0.0732
-0.0976,0.0976,-0.0976,-0.0488,0,-0.0488,0.11712,0,-0.00488,-0.04392,-0.05856,-0.06832
-0.0976,0.09516,-0.09272,-0.04392,0.00488,-0.05124,0.12688,0.00976,0,-0.03904,-0.05368,-0.06344
-0.09272,0.09272,-0.09272,-0.04636,0,-0.04636,0.13664,0.01464,0.00976,-0.03416,-0.0488,-0.06344
-0.09272,0.09272,-0.09272,-0.04636,0,-0.04636,0.13664,0.01952,0.01464,-0.03416,-0.0488,-0.05856
-0.0976,0.09516,-0.09272,-0.04392,0.00488,-0.05124,0.13664,0.01952,0.01952,-0.03416,-0.04392,-0.05856
-0.0976,0.09272,-0.08784,-0.03904,0.00976,-0.05368,0.11712,0.00488,0.01952,-0.02928,-0.04392,-0.05856
-0.0976,0.08784,-0.07808,-0.02928,0.01952,-0.05856,0.0976,-0.00976,0.0244,-0.02928,-0.04392,-0.05368
-0.08296,0.07808,-0.0732,-0.03172,0.00976,-0.04636,0.06832,-0.0244,0.0244,-0.0244,-0.03904,-0.0488
-0.0732,0.07076,-0.06832,-0.03172,0.00488,-0.03904,0.04392,-0.02928,0.01952,-0.0244,-0.03904,-0.04392
-0.06344,0.05856,-0.05368,-0.02196,0.00976,-0.0366,0.03904,-0.02928,0.01952,-0.01952,-0.02928,-0.03904
-0.05856,0.04392,-0.02928,0,0.02928,-0.04392,0.03904,-0.0244,0.0244,-0.00976,-0.01952,-0.02928
-0.05856,0.04636,-0.03416,-0.00488,0.0244,-0.04148,0.04392,-0.0244,0.02928,-0.00976,-0.01952,-0.02928
-0.05368,0.04148,-0.02928,-0.00244,0.0244,-0.03904,0.04392,-0.0244,0.02928,-0.00976,-0.01952,-0.02928
-0.0488,0.04392,-0.03904,-0.01464,0.00976,-0.02928,0.04392,-0.0244,0.01952,-0.0244,-0.02928,-0.03416
-0.0488,0.05124,-0.05368,-0.02928,-0.00488,-0.02196,0.04392,-0.03416,0.00488,-0.03416,-0.03904,-0.0488
-0.0488,0.06588,-0.08296,-0.05856,-0.03416,-0.00732,0.03904,-0.04392,-0.0244,-0.04392,-0.0488,-0.06344
-0.0488,0.06832,-0.08784,-0.06344,-0.03904,-0.00488,0.03904,-0.05368,-0.02928,-0.05368,-0.05856,-0.06832
-0.05856,0.08296,-0.10736,-0.07808,-0.0488,-0.00488,0.03904,-0.05368,-0.03904,-0.06344,-0.06344,-0.07808
-0.06832,0.09028,-0.11224,-0.07808,-0.04392,-0.0122,0.0488,-0.05368,-0.03904,-0.06344,-0.06344,-0.07808
-0.08784,0.10004,-0.11224,-0.06832,-0.0244,-0.03172,0.05856,-0.04392,-0.03416,-0.06344,-0.06344,-0.07808
-0.10248,0.11468,-0.12688,-0.07564,-0.0244,-0.03904,0.0732,-0.03416,-0.02928,-0.06344,-0.05856,-0.08296
-0.10736,0.12688,-0.1464,-0.09272,-0.03904,-0.03416,0.07808,-0.02928,-0.02928,-0.06344,-0.06832,-0.09272
-0.11224,0.13908,-0.16592,-0.1098,-0.05368,-0.02928,0.07808,-0.02928,-0.03904,-0.07808,-0.0732,-0.10248
-0.11224,0.14152,-0.1708,-0.11468,-0.05856,-0.02684,0.07808,-0.03416,-0.04392,-0.07808,-0.08296,-0.10248
-0.11224,0.14152,-0.1708,-0.11468,-0.05856,-0.02684,0.07808,-0.03416,-0.04392,-0.0732,-0.08296,-0.10248
-0.11224,0.14396,-0.17568,-0.11956,-0.06344,-0.0244,0.07808,-0.03416,-0.03904,-0.0732,-0.08296,-0.10736
-0.10736,0.14152,-0.17568,-0.122,-0.06832,-0.01952,0.08296,-0.03416,-0.03904,-0.0732,-0.08296,-0.10736
-0.10248,0.14152,-0.18056,-0.12932,-0.07808,-0.0122,0.08296,-0.02928,-0.03904,-0.0732,-0.08296,-0.10736
-0.10736,0.14396,-0.18056,-0.12688,-0.0732,-0.01708,0.08296,-0.02928,-0.03904,-0.0732,-0.08296,-0.10736
-0.11224,0.1464,-0.18056,-0.12444,-0.06832,-0.02196,0.08784,-0.02928,-0.03904,-0.0732,-0.08296,-0.10736
-0.11712,0.14884,-0.18056,-0.122,-0.06344,-0.02684,0.09272,-0.02928,-0.03904,-0.0732,-0.08296,-0.10736
-0.122,0.15128,-0.18056,-0.11956,-0.05856,-0.03172,0.0976,-0.02928,-0.03416,-0.0732,-0.08296,-0.10736
-0.122,0.15128,-0.18056,-0.11956,-0.05856,-0.03172,0.0976,-0.02928,-0.03416,-0.0732,-0.08296,-0.10248
-0.11712,0.14884,-0.18056,-0.122,-0.06344,-0.02684,0.0976,-0.02928,-0.03416,-0.0732,-0.08296,-0.0976
-0.11712,0.15128,-0.18544,-0.12688,-0.06832,-0.0244,0.10248,-0.03416,-0.03904,-0.0732,-0.08296,-0.10736
-0.13176,0.16348,-0.1952,-0.12932,-0.06344,-0.03416,0.11712,0.01464,-0.0244,-0.0732,-0.09272,-0.122
-0.13664,0.17568,-0.21472,-0.1464,-0.07808,-0.02928,0.1708,0.20984,0.02928,-0.06832,-0.10736,-0.13664
-0.11712,0.12932,-0.14152,-0.08296,-0.0244,-0.04636,0.18056,0.38064,0.13176,0.00488,-0.05856,-0.11224
-0.04392,0.01708,0.00976,0.03172,0.05368,-0.0488,0.17568,0.4636,0.27816,0.15128,0.06832,-0.00488
0.16104,-0.20008,0.23912,0.1586,0.07808,0.04148,0.03904,0.40016,0.3904,0.35624,0.26352,0.1708
0.46848,-0.54656,0.62464,0.3904,0.15616,0.15616,-0.18544,0.20496,0.47824,0.6344,0.58072,0.44408
0.77104,-0.88084,0.99064,0.60512,0.2196,0.27572,-0.488,-0.27328,0.40992,0.85888,0.87352,0.74176
1.07848,-1.19804,1.3176,0.77836,0.23912,0.41968,-0.854,-0.732,0.28304,1.06872,1.15168,1.02968
1.22,-1.31272,1.40544,0.79544,0.18544,0.51728,-1.098,-1.0736,0.08296,1.05896,1.20048,1.12728
1.15656,-1.09556,1.03456,0.45628,-0.122,0.63928,-1.10288,-1.32736,-0.2684,0.64904,0.83936,0.8784
0.72712,-0.71248,0.69784,0.33428,-0.02928,0.3782,-0.86864,-1.40056,-0.41968,0.2928,0.48312,0.59536
0.26352,-0.30744,0.35136,0.2196,0.08784,0.08784,-0.62464,-1.42984,-0.59048,-0.08784,0.13664,0.30744
0.11712,-0.13176,0.1464,0.08784,0.02928,0.04392,-0.48312,-1.2688,-0.65392,-0.24888,-0.00976,0.1708
0.11224,-0.0976,0.08296,0.02684,-0.02928,0.07076,-0.366,-0.89304,-0.50752,-0.1952,-0.02928,0.11224
0.0732,-0.05368,0.03416,-0.00244,-0.03904,0.05612,-0.23424,-0.57096,-0.35624,-0.13664,-0.02928,0.06344
-0.00488,0.01464,-0.0244,-0.02196,-0.01952,0.00732,-0.122,-0.37576,-0.22448,-0.10248,-0.03904,0.00976
-0.06344,0.07076,-0.07808,-0.04636,-0.01464,-0.0244,-0.03904,-0.244,-0.1464,-0.08296,-0.05368,-0.03416
-0.0732,0.09516,-0.11712,-0.08052,-0.04392,-0.01464,0.00976,-0.16104,-0.11712,-0.07808,-0.06344,-0.05368
-0.0732,0.10492,-0.13664,-0.10004,-0.06344,-0.00488,0.03416,-0.08784,-0.10248,-0.07808,-0.0732,-0.06344
-0.08296,0.11956,-0.15616,-0.11468,-0.0732,-0.00488,0.0488,-0.04392,-0.08296,-0.07808,-0.08296,-0.08296
-0.10248,0.13664,-0.1708,-0.11956,-0.06832,-0.01708,0.0732,-0.01464,-0.05856,-0.07808,-0.08784,-0.0976
-0.11224,0.14396,-0.17568,-0.11956,-0.06344,-0.0244,0.08784,-0.00976,-0.05856,-0.07808,-0.08784,-0.10248
-0.11224,0.1464,-0.18056,-0.12444,-0.06832,-0.02196,0.08784,-0.00488,-0.05856,-0.07808,-0.09272,-0.10248
-0.11224,0.14884,-0.18544,-0.12932,-0.0732,-0.01952,0.09272,0.01952,-0.05368,-0.07808,-0.09272,-0.11224
-0.122,0.15372,-0.18544,-0.12444,-0.06344,-0.02928,0.10248,0.03416,-0.03904,-0.07808,-0.09272,-0.11224
-0.122,0.15372,-0.18544,-0.12444,-0.06344,-0.02928,0.10736,0.03416,-0.03904,-0.0732,-0.09272,-0.11712
-0.11712,0.15128,-0.18544,-0.12688,-0.06832,-0.0244,0.10736,0.03904,-0.03416,-0.0732,-0.09272,-0.11712
-0.11224,0.1464,-0.18056,-0.12444,-0.06832,-0.02196,0.10736,0.04392,-0.03416,-0.0732,-0.09272,-0.11712
-0.11224,0.1464,-0.18056,-0.12444,-0.06832,-0.02196,0.11224,0.0488,-0.02928,-0.0732,-0.09272,-0.122
-0.11224,0.1464,-0.18056,-0.12444,-0.06832,-0.02196,0.11224,0.0488,-0.02928,-0.06832,-0.09272,-0.122
-0.10736,0.14396,-0.18056,-0.12688,-0.0732,-0.01708,0.11224,0.0488,-0.0244,-0.06832,-0.08784,-0.122
-0.10248,0.14396,-0.18544,-0.1342,-0.08296,-0.00976,0.11224,0.0488,-0.0244,-0.06832,-0.08784,-0.11712
-0.10248,0.1464,-0.19032,-0.13908,-0.08784,-0.00732,0.11224,0.05368,-0.0244,-0.06832,-0.08784,-0.11224
-0.10248,0.14396,-0.18544,-0.1342,-0.08296,-0.00976,0.11224,0.05856,-0.01952,-0.05856,-0.08296,-0.11224
-0.10248,0.14152,-0.18056,-0.12932,-0.07808,-0.0122,0.11224,0.05856,-0.01952,-0.05368,-0.07808,-0.10736
-0.0976,0.13664,-0.17568,-0.12688,-0.07808,-0.00976,0.10736,0.06344,-0.01464,-0.05368,-0.07808,-0.10736
-0.09272,0.1342,-0.17568,-0.12932,-0.08296,-0.00488,0.10248,0.06832,-0.01464,-0.05368,-0.0732,-0.10736
-0.09272,0.1342,-0.17568,-0.12932,-0.08296,-0.00488,0.10248,0.0732,-0.01464,-0.04392,-0.0732,-0.10736
-0.09272,0.1342,-0.17568,-0.12932,-0.08296,-0.00488,0.0976,0.0732,-0.01464,-0.04392,-0.0732,-0.10736
-0.08784,0.12932,-0.1708,-0.12688,-0.08296,-0.00244,0.0976,0.07808,-0.00488,-0.04392,-0.0732,-0.10248
-0.08784,0.12688,-0.16592,-0.122,-0.07808,-0.00488,0.09272,0.07808,-0.00488,-0.04392,-0.06832,-0.0976
-0.08296,0.122,-0.16104,-0.11956,-0.07808,-0.00244,0.09272,0.08784,0,-0.03904,-0.06344,-0.0976
-0.08296,0.11956,-0.15616,-0.11468,-0.0732,-0.00488,0.09272,0.08784,0,-0.03416,-0.06344,-0.0976
-0.07808,0.11468,-0.15128,-0.11224,-0.0732,-0.00244,0.09272,0.09272,-0.00488,-0.02928,-0.05856,-0.09272
-0.0732,0.10736,-0.14152,-0.10492,-0.06832,-0.00244,0.08784,0.10736,-0.00488,-0.02928,-0.05368,-0.09272
-0.06832,0.10248,-0.13664,-0.10248,-0.06832,0,0.08784,0.11712,0,-0.0244,-0.05368,-0.09272
-0.06344,0.10004,-0.13664,-0.10492,-0.0732,0.00488,0.08784,0.122,0.00488,-0.01952,-0.0488,-0.08784
-0.0488,0.0854,-0.122,-0.0976,-0.0732,0.0122,0.08296,0.13176,0.00976,-0.01464,-0.0488,-0.08296
-0.0488,0.0854,-0.122,-0.0976,-0.0732,0.0122,0.08296,0.14152,0.01952,-0.00976,-0.04392,-0.07808
-0.05368,0.0854,-0.11712,-0.09028,-0.06344,0.00488,0.07808,0.15616,0.0244,-0.00488,-0.03416,-0.07808
-0.05368,0.08052,-0.10736,-0.08052,-0.05368,0,0.06832,0.16592,0.02928,0,-0.03416,-0.0732
-0.04392,0.0732,-0.10248,-0.08052,-0.05856,0.00732,0.06344,0.1708,0.03416,0.00976,-0.0244,-0.06344
-0.03904,0.06588,-0.09272,-0.0732,-0.05368,0.00732,0.05856,0.18056,0.03904,0.01952,-0.01464,-0.05368
-0.0244,0.05368,-0.08296,-0.07076,-0.05856,0.01708,0.05368,0.20496,0.04392,0.02928,-0.00976,-0.0488
-0.00976,0.03904,-0.06832,-0.06344,-0.05856,0.0244,0.0488,0.21472,0.05368,0.03904,0,-0.04392
0,0.02928,-0.05856,-0.05856,-0.05856,0.02928,0.04392,0.23912,0.06832,0.0488,0.00976,-0.03416
0.00976,0.01708,-0.04392,-0.0488,-0.05368,0.03172,0.03904,0.25864,0.07808,0.05856,0.01952,-0.02928
0.0244,0,-0.0244,-0.0366,-0.0488,0.0366,0.03416,0.27816,0.08296,0.0732,0.02928,-0.00976
0.04392,-0.01708,-0.00976,-0.03172,-0.05368,0.0488,0.01952,0.29768,0.0976,0.08784,0.04392,0
0.05856,-0.0366,0.01464,-0.01464,-0.04392,0.05124,0.01464,0.3172,0.10736,0.0976,0.05368,0.00976
0.0732,-0.05368,0.03416,-0.00244,-0.03904,0.05612,0.01464,0.3416,0.12688,0.10736,0.06832,0.01952
0.08784,-0.07076,0.05368,0.00976,-0.03416,0.061,0.00488,0.36112,0.14152,0.11712,0.08296,0.03416
0.10248,-0.08784,0.0732,0.02196,-0.02928,0.06588,-0.00488,0.37576,0.15128,0.13664,0.0976,0.04392
0.122,-0.1098,0.0976,0.0366,-0.0244,0.0732,-0.01952,0.38552,0.16104,0.15616,0.11224,0.06344
0.12688,-0.122,0.11712,0.05368,-0.00976,0.06832,-0.02928,0.40016,0.1708,0.1708,0.12688,0.07808
0.14152,-0.14152,0.14152,0.07076,0,0.07076,-0.03904,0.40504,0.18056,0.18056,0.14152,0.08784
0.15616,-0.1586,0.16104,0.08296,0.00488,0.07564,-0.05368,0.40992,0.19032,0.1952,0.15616,0.10248
0.16592,-0.17324,0.18056,0.0976,0.01464,0.07564,-0.05856,0.40992,0.20496,0.20984,0.16592,0.10736
0.17568,-0.18544,0.1952,0.10736,0.01952,0.07808,-0.06832,0.40992,0.21472,0.2196,0.18056,0.11224
0.19032,-0.19764,0.20496,0.1098,0.01464,0.08784,-0.07808,0.40992,0.21472,0.22936,0.19032,0.12688
0.20008,-0.20984,0.2196,0.11956,0.01952,0.09028,-0.08296,0.40016,0.2196,0.23424,0.1952,0.13176
0.20008,-0.21716,0.23424,0.1342,0.03416,0.08296,-0.09272,0.3904,0.2196,0.23424,0.1952,0.13664
0.20008,-0.22204,0.244,0.14396,0.04392,0.07808,-0.10248,0.37576,0.21472,0.23912,0.1952,0.1464
0.20008,-0.22448,0.24888,0.14884,0.0488,0.07564,-0.0976,0.366,0.2196,0.23912,0.1952,0.15616
0.20008,-0.22448,0.24888,0.14884,0.0488,0.07564,-0.0976,0.34648,0.21472,0.22936,0.1952,0.16104
0.1952,-0.2196,0.244,0.1464,0.0488,0.0732,-0.0976,0.32208,0.20008,0.22936,0.19032,0.15616
0.18056,-0.20496,0.22936,0.13908,0.0488,0.06588,-0.0976,0.2928,0.18544,0.21472,0.18056,0.15128
0.1708,-0.1952,0.2196,0.1342,0.0488,0.061,-0.08784,0.25864,0.1708,0.20008,0.1708,0.13664
0.15128,-0.1708,0.19032,0.11468,0.03904,0.05612,-0.0732,0.2196,0.15128,0.18056,0.15128,0.12688
0.12688,-0.14884,0.1708,0.10736,0.04392,0.04148,-0.06344,0.1952,0.14152,0.16104,0.13664,0.10736
0.10248,-0.12444,0.1464,0.09516,0.04392,0.02928,-0.05368,0.16104,0.122,0.13664,0.11712,0.08784
0.0732,-0.09272,0.11224,0.07564,0.03904,0.01708,-0.03416,0.13664,0.0976,0.11712,0.09272,0.06832
0.05368,-0.06588,0.07808,0.05124,0.0244,0.01464,-0.0244,0.11224,0.08296,0.09272,0.0732,0.0488
0.0244,-0.03904,0.05368,0.04148,0.02928,-0.00244,-0.00488,0.08784,0.06344,0.0732,0.05856,0.02928
0.00976,-0.01952,0.02928,0.0244,0.01952,-0.00488,0.00488,0.06832,0.04392,0.0488,0.03904,0.00976
-0.00976,0.00244,0.00488,0.00976,0.01464,-0.0122,0.01952,0.05368,0.03904,0.03904,0.0244,-0.00488
-0.03416,0.02928,-0.0244,-0.00732,0.00976,-0.02196,0.02928,0.04392,0.02928,0.0244,0.00488,-0.01952
-0.04392,0.04148,-0.03904,-0.01708,0.00488,-0.0244,0.03904,0.03416,0.01952,0.00976,-0.00488,-0.03416
-0.05368,0.05612,-0.05856,-0.03172,-0.00488,-0.0244,0.0488,0.0244,0.00976,0,-0.01952,-0.04392
-0.06832,0.07076,-0.0732,-0.03904,-0.00488,-0.03172,0.05856,0.01464,0,-0.00976,-0.0244,-0.0488
-0.07808,0.07808,-0.07808,-0.03904,0,-0.03904,0.05856,0.00488,0,-0.01952,-0.03416,-0.05856
-0.07808,0.08296,-0.08784,-0.0488,-0.00976,-0.03416,0.05856,0.00488,-0.01464,-0.0244,-0.03904,-0.06832
-0.07808,0.08784,-0.0976,-0.05856,-0.01952,-0.02928,0.06344,0,-0.01464,-0.02928,-0.04392,-0.06832
-0.08296,0.09028,-0.0976,-0.05612,-0.01464,-0.03416,0.06832,0,-0.01464,-0.02928,-0.04392,-0.06832
-0.08296,0.09272,-0.10248,-0.061,-0.01952,-0.03172,0.06832,-0.00488,-0.01952,-0.03416,-0.0488,-0.06832
-0.08784,0.09516,-0.10248,-0.05856,-0.01464,-0.0366,0.06832,-0.00976,-0.01952,-0.03416,-0.0488,-0.06832
-0.08784,0.09516,-0.10248,-0.05856,-0.01464,-0.0366,0.0732,-0.00976,-0.0244,-0.03904,-0.0488,-0.06832
-0.08784,0.0976,-0.10736,-0.06344,-0.01952,-0.03416,0.0732,-0.00976,-0.02928,-0.03904,-0.05368,-0.0732
-0.08784,0.0976,-0.10736,-0.06344,-0.01952,-0.03416,0.06832,-0.01464,-0.02928,-0.03904,-0.05368,-0.0732
-0.08296,0.09516,-0.10736,-0.06588,-0.0244,-0.02928,0.06832,-0.01464,-0.02928,-0.04392,-0.05856,-0.0732
-0.08296,0.0976,-0.11224,-0.07076,-0.02928,-0.02684,0.06832,-0.01464,-0.02928,-0.04392,-0.05856,-0.07808
-0.08296,0.09516,-0.10736,-0.06588,-0.0244,-0.02928,0.06832,-0.01464,-0.02928,-0.0488,-0.05856,-0.07808
-0.08296,0.09516,-0.10736,-0.06588,-0.0244,-0.02928,0.0732,-0.01464,-0.02928,-0.0488,-0.05856,-0.07808
-0.08296,0.09516,-0.10736,-0.06588,-0.0244,-0.02928,0.0732,-0.01464,-0.02928,-0.0488,-0.05856,-0.0732
-0.08296,0.09516,-0.10736,-0.06588,-0.0244,-0.02928,0.0732,-0.00976,-0.02928,-0.0488,-0.05856,-0.0732
-0.08296,0.09272,-0.10248,-0.061,-0.01952,-0.03172,0.0732,-0.00976,-0.03416,-0.0488,-0.05856,-0.07808
-0.08296,0.09028,-0.0976,-0.05612,-0.01464,-0.03416,0.0732,-0.00976,-0.03904,-0.0488,-0.05856,-0.07808
-0.08296,0.09028,-0.0976,-0.05612,-0.01464,-0.03416,0.0732,-0.01464,-0.03904,-0.0488,-0.05856,-0.0732
-0.08296,0.09028,-0.0976,-0.05612,-0.01464,-0.03416,0.0732,-0.01464,-0.03416,-0.0488,-0.06344,-0.0732
-0.07808,0.0854,-0.09272,-0.05368,-0.01464,-0.03172,0.06832,-0.01952,-0.03904,-0.0488,-0.06344,-0.0732
-0.06832,0.08052,-0.09272,-0.05856,-0.0244,-0.02196,0.06344,-0.0244,-0.04392,-0.04392,-0.05856,-0.0732
-0.06832,0.08052,-0.09272,-0.05856,-0.0244,-0.02196,0.06344,-0.01952,-0.04392,-0.04392,-0.05856,-0.0732
-0.06832,0.08052,-0.09272,-0.05856,-0.0244,-0.02196,0.06344,-0.01952,-0.04392,-0.04392,-0.05856,-0.0732
-0.06832,0.07808,-0.08784,-0.05368,-0.01952,-0.0244,0.06344,-0.01464,-0.03416,-0.04392,-0.05368,-0.06832
-0.06344,0.0732,-0.08296,-0.05124,-0.01952,-0.02196,0.06344,-0.00976,-0.02928,-0.04392,-0.0488,-0.06832
-0.06344,0.07076,-0.07808,-0.04636,-0.01464,-0.0244,0.05856,-0.00976,-0.02928,-0.03904,-0.0488,-0.06832
-0.06344,0.07076,-0.07808,-0.04636,-0.01464,-0.0244,0.05368,-0.00976,-0.02928,-0.03904,-0.0488,-0.06832
-0.06344,0.07076,-0.07808,-0.04636,-0.01464,-0.0244,0.04392,-0.00976,-0.02928,-0.03904,-0.0488,-0.06832
-0.05856,0.06832,-0.07808,-0.0488,-0.01952,-0.01952,0.03904,-0.00976,-0.02928,-0.03904,-0.0488,-0.06832
-0.05856,0.06588,-0.0732,-0.04392,-0.01464,-0.02196,0.03904,-0.01464,-0.02928,-0.03416,-0.0488,-0.06344
-0.05856,0.06588,-0.0732,-0.04392,-0.01464,-0.02196,0.03904,-0.01464,-0.02928,-0.03416,-0.05368,-0.06344
-0.05856,0.06344,-0.06832,-0.03904,-0.00976,-0.0244,0.03904,-0.01464,-0.02928,-0.03416,-0.05368,-0.06344
-0.05856,0.06344,-0.06832,-0.03904,-0.00976,-0.0244,0.03904,-0.01464,-0.03416,-0.03416,-0.05368,-0.06344
-0.06344,0.06588,-0.06832,-0.0366,-0.00488,-0.02928,0.03904,-0.01464,-0.03416,-0.03416,-0.05368,-0.05856
-0.06344,0.06588,-0.06832,-0.0366,-0.00488,-0.02928,0.03904,-0.01464,-0.03416,-0.03416,-0.05368,-0.05368
-0.06344,0.06588,-0.06832,-0.0366,-0.00488,-0.02928,0.03904,-0.00976,-0.02928,-0.02928,-0.0488,-0.05856
-0.06344,0.06588,-0.06832,-0.0366,-0.00488,-0.02928,0.03904,-0.00488,-0.0244,-0.02928,-0.0488,-0.05856
-0.06344,0.06588,-0.06832,-0.0366,-0.00488,-0.02928,0.04392,-0.00488,-0.0244,-0.02928,-0.04392,-0.05368
-0.06832,0.06832,-0.06832,-0.03416,0,-0.03416,0.0488,-0.00488,-0.0244,-0.03416,-0.03904,-0.05368
-0.06832,0.06832,-0.06832,-0.03416,0,-0.03416,0.0488,-0.00488,-0.0244,-0.02928,-0.03904,-0.05368
-0.06832,0.06832,-0.06832,-0.03416,0,-0.03416,0.0488,-0.00976,-0.02928,-0.02928,-0.03904,-0.05856
-0.06832,0.07076,-0.0732,-0.03904,-0.00488,-0.03172,0.0488,-0.00976,-0.02928,-0.02928,-0.03904,-0.05856
-0.06832,0.0732,-0.07808,-0.04392,-0.00976,-0.02928,0.0488,-0.00976,-0.02928,-0.02928,-0.03904,-0.05856
-0.06832,0.0732,-0.07808,-0.04392,-0.00976,-0.02928,0.0488,-0.01464,-0.02928,-0.03416,-0.04392,-0.05856
-0.06832,0.0732,-0.07808,-0.04392,-0.00976,-0.02928,0.0488,-0.01952,-0.02928,-0.03904,-0.0488,-0.05856
-0.06832,0.07076,-0.0732,-0.03904,-0.00488,-0.03172,0.0488,-0.01952,-0.02928,-0.03904,-0.0488,-0.05856
-0.06832,0.06832,-0.06832,-0.03416,0,-0.03416,0.0488,-0.01952,-0.02928,-0.03904,-0.0488,-0.05856
-0.06832,0.06832,-0.06832,-0.03416,0,-0.03416,0.0488,-0.01952,-0.02928,-0.03904,-0.0488,-0.06344
-0.06832,0.06832,-0.06832,-0.03416,0,-0.03416,0.0488,-0.01952,-0.02928,-0.03904,-0.0488,-0.05856
-0.06832,0.06588,-0.06344,-0.02928,0.00488,-0.0366,0.0488,-0.01464,-0.0244,-0.03904,-0.0488,-0.05856
-0.06832,0.061,-0.05368,-0.01952,0.01464,-0.04148,0.05856,-0.01464,-0.01464,-0.03416,-0.0488,-0.05856
-0.06832,0.05612,-0.04392,-0.00976,0.0244,-0.04636,0.06832,-0.00976,-0.00976,-0.03416,-0.04392,-0.05368
-0.06832,0.0488,-0.02928,0.00488,0.03904,-0.05368,0.07808,0,-0.00488,-0.0244,-0.03904,-0.0488
-0.06832,0.04636,-0.0244,0.00976,0.04392,-0.05612,0.08784,0.01464,0,-0.01952,-0.03416,-0.04392
-0.06344,0.04148,-0.01952,0.0122,0.04392,-0.05368,0.0976,0.0244,0.00976,-0.01464,-0.02928,-0.04392
-0.06344,0.0366,-0.00976,0.02196,0.05368,-0.05856,0.10248,0.02928,0.01464,-0.01464,-0.02928,-0.03904
-0.06344,0.03416,-0.00488,0.02684,0.05856,-0.061,0.10736,0.02928,0.01952,-0.01464,-0.0244,-0.03904
-0.06344,0.03172,0,0.03172,0.06344,-0.06344,0.08784,0.01464,0.01952,-0.00976,-0.0244,-0.03904
-0.06832,0.02928,0.00976,0.04392,0.07808,-0.0732,0.06832,0,0.01952,-0.00976,-0.0244,-0.03416
-0.05368,0.02196,0.00976,0.0366,0.06344,-0.05856,0.03904,-0.01952,0.00976,-0.00488,-0.01952,-0.02928
-0.04392,0.01708,0.00976,0.03172,0.05368,-0.0488,0.01464,-0.02928,0,-0.00488,-0.01952,-0.0244
-0.03416,0.00488,0.0244,0.04148,0.05856,-0.04636,0.00488,-0.02928,0,0,-0.00976,-0.01952
-0.02928,-0.00732,0.04392,0.05856,0.0732,-0.05124,0,-0.0244,0.00488,0.00976,0,-0.00976
-0.02928,-0.00488,0.03904,0.05368,0.06832,-0.0488,0.00488,-0.0244,0.01464,0.00976,0.00488,-0.00976
-0.02928,-0.00732,0.04392,0.05856,0.0732,-0.05124,0.00488,-0.0244,0.01952,0.00976,0.00976,-0.00976
-0.0244,-0.00244,0.02928,0.04148,0.05368,-0.03904,0.00488,-0.01952,0.00976,0,0,-0.00976
-0.01952,0.00244,0.01464,0.0244,0.03416,-0.02684,0.00488,-0.0244,0,-0.00488,-0.00976,-0.01464
-0.01952,0.01708,-0.01464,-0.00488,0.00488,-0.0122,0,-0.03416,-0.0244,-0.01464,-0.01952,-0.0244
-0.01952,0.01952,-0.01952,-0.00976,0,-0.00976,0,-0.04392,-0.02928,-0.0244,-0.02928,-0.02928
-0.0244,0.03172,-0.03904,-0.02684,-0.01464,-0.00488,0,-0.0488,-0.04392,-0.03904,-0.04392,-0.04392
-0.02928,0.0366,-0.04392,-0.02928,-0.01464,-0.00732,0.00976,-0.05368,-0.0488,-0.04392,-0.05368,-0.0488
-0.0488,0.04636,-0.04392,-0.01952,0.00488,-0.02684,0.01952,-0.04392,-0.04392,-0.04392,-0.05368,-0.0488
-0.06344,0.05856,-0.05368,-0.02196,0.00976,-0.0366,0.03416,-0.03904,-0.03904,-0.04392,-0.05368,-0.05368
-0.0732,0.07076,-0.06832,-0.03172,0.00488,-0.03904,0.03904,-0.03904,-0.03416,-0.04392,-0.06832,-0.06344
-0.08296,0.0854,-0.08784,-0.04636,-0.00488,-0.03904,0.03904,-0.03904,-0.03904,-0.05856,-0.0732,-0.0732
-0.08296,0.09028,-0.0976,-0.05612,-0.01464,-0.03416,0.03904,-0.04392,-0.04392,-0.05856,-0.08296,-0.0732
-0.08296,0.09272,-0.10248,-0.061,-0.01952,-0.03172,0.03904,-0.04392,-0.0488,-0.05856,-0.08296,-0.0732
-0.08296,0.09516,-0.10736,-0.06588,-0.0244,-0.02928,0.03904,-0.0488,-0.05368,-0.06344,-0.08296,-0.07808
-0.08296,0.09516,-0.10736,-0.06588,-0.0244,-0.02928,0.04392,-0.05368,-0.05856,-0.06344,-0.08296,-0.07808
-0.08296,0.0976,-0.11224,-0.07076,-0.02928,-0.02684,0.04392,-0.0488,-0.05856,-0.06832,-0.08296,-0.07808
-0.08784,0.10004,-0.11224,-0.06832,-0.0244,-0.03172,0.04392,-0.0488,-0.05856,-0.0732,-0.08296,-0.07808
-0.09272,0.10248,-0.11224,-0.06588,-0.01952,-0.0366,0.0488,-0.0488,-0.06344,-0.0732,-0.08296,-0.07808
-0.09272,0.10248,-0.11224,-0.06588,-0.01952,-0.0366,0.0488,-0.0488,-0.06832,-0.0732,-0.08296,-0.07808
-0.09272,0.10248,-0.11224,-0.06588,-0.01952,-0.0366,0.0488,-0.0488,-0.06344,-0.0732,-0.07808,-0.07808
-0.09272,0.10248,-0.11224,-0.06588,-0.01952,-0.0366,0.0488,-0.0488,-0.06344,-0.0732,-0.0732,-0.07808
-0.08784,0.10004,-0.11224,-0.06832,-0.0244,-0.03172,0.04392,-0.05856,-0.06344,-0.0732,-0.0732,-0.07808
-0.08784,0.10248,-0.11712,-0.0732,-0.02928,-0.02928,0.0488,-0.05368,-0.06344,-0.0732,-0.0732,-0.08784
-0.10736,0.12688,-0.1464,-0.09272,-0.03904,-0.03416,0.06832,-0.01464,-0.06344,-0.09272,-0.10248,-0.11712
-0.11224,0.13908,-0.16592,-0.1098,-0.05368,-0.02928,0.122,0.13664,-0.01952,-0.09272,-0.122,-0.13176
-0.13176,0.122,-0.11224,-0.04636,0.01952,-0.07564,0.16592,0.35136,0.09272,-0.02928,-0.08784,-0.122
-0.08296,0.03416,0.01464,0.05612,0.0976,-0.09028,0.1708,0.44408,0.21472,0.09272,0.01952,-0.03904
0.10248,-0.16836,0.23424,0.183,0.13176,-0.01464,0.06344,0.40992,0.34648,0.29768,0.20496,0.11712
0.3904,-0.48068,0.57096,0.37576,0.18056,0.10492,-0.1464,0.244,0.43432,0.55144,0.48312,0.366
0.75152,-0.87108,0.99064,0.61488,0.23912,0.2562,-0.50752,-0.28304,0.366,0.8296,0.83936,0.72712
1.07848,-1.2078,1.33712,0.79788,0.25864,0.40992,-0.87352,-0.74176,0.25864,1.05896,1.14192,1.0248
1.33712,-1.41276,1.4884,0.81984,0.15128,0.59292,-1.21512,-1.1468,0.03416,1.08824,1.23952,1.17608
1.37128,-1.29076,1.21024,0.5246,-0.16104,0.76616,-1.30296,-1.40544,-0.28792,0.77592,0.976,1.01992
0.86376,-0.82228,0.7808,0.34892,-0.08296,0.47336,-1.0248,-1.48352,-0.45872,0.3416,0.5368,0.67344
0.40016,-0.4148,0.42944,0.22936,0.02928,0.18544,-0.76616,-1.50792,-0.61488,-0.04392,0.17568,0.37576
0.25376,-0.24644,0.23912,0.11224,-0.01464,0.1342,-0.60512,-1.32248,-0.67344,-0.19032,0.03904,0.23912
0.1952,-0.16836,0.14152,0.04392,-0.05368,0.12444,-0.46848,-1.01016,-0.5856,-0.20496,-0.02928,0.1464
0.14152,-0.122,0.10248,0.03172,-0.03904,0.09028,-0.32696,-0.66368,-0.40992,-0.15616,-0.02928,0.0976
0.05856,-0.05124,0.04392,0.01464,-0.01464,0.0366,-0.20984,-0.43432,-0.26352,-0.122,-0.03904,0.03904
-0.01464,0.01708,-0.01952,-0.0122,-0.00488,-0.00488,-0.10736,-0.30256,-0.18056,-0.0976,-0.05368,-0.00976
-0.03904,0.05124,-0.06344,-0.04392,-0.0244,-0.00732,-0.03904,-0.21472,-0.13664,-0.08784,-0.06344,-0.03416
-0.04392,0.061,-0.07808,-0.05612,-0.03416,-0.00488,-0.01464,-0.13176,-0.122,-0.08784,-0.0732,-0.04392
-0.05368,0.07564,-0.0976,-0.07076,-0.04392,-0.00488,0,-0.0732,-0.10248,-0.08784,-0.07808,-0.05856
-0.0732,0.09272,-0.11224,-0.07564,-0.03904,-0.01708,0.0244,-0.03904,-0.07808,-0.08784,-0.07808,-0.06832
-0.08296,0.10004,-0.11712,-0.07564,-0.03416,-0.0244,0.03904,-0.02928,-0.07808,-0.08784,-0.07808,-0.0732
-0.08296,0.10248,-0.122,-0.08052,-0.03904,-0.02196,0.03904,-0.0244,-0.0732,-0.08784,-0.08784,-0.0732
-0.08296,0.10492,-0.12688,-0.0854,-0.04392,-0.01952,0.04392,-0.00488,-0.06832,-0.08784,-0.09272,-0.08296
-0.09272,0.11224,-0.13176,-0.0854,-0.03904,-0.02684,0.05368,0.00488,-0.05856,-0.08784,-0.09272,-0.08784
-0.09272,0.11468,-0.13664,-0.09028,-0.04392,-0.0244,0.05856,0.00488,-0.05856,-0.08296,-0.09272,-0.09272
-0.08784,0.11224,-0.13664,-0.09272,-0.0488,-0.01952,0.05856,0.00976,-0.05368,-0.08296,-0.09272,-0.08784
-0.08296,0.10736,-0.13176,-0.09028,-0.0488,-0.01708,0.05856,0.01952,-0.05368,-0.08296,-0.09272,-0.08784
-0.08296,0.10736,-0.13176,-0.09028,-0.0488,-0.01708,0.06344,0.02928,-0.0488,-0.08296,-0.09272,-0.09272
-0.08784,0.1098,-0.13176,-0.08784,-0.04392,-0.02196,0.06344,0.02928,-0.0488,-0.07808,-0.09272,-0.09272
-0.09272,0.11224,-0.13176,-0.0854,-0.03904,-0.02684,0.06832,0.02928,-0.04392,-0.07808,-0.08784,-0.09272
-0.09272,0.11224,-0.13176,-0.0854,-0.03904,-0.02684,0.0732,0.02928,-0.04392,-0.07808,-0.08784,-0.09272
-0.09272,0.1098,-0.12688,-0.08052,-0.03416,-0.02928,0.0732,0.03416,-0.04392,-0.07808,-0.08784,-0.09272
-0.09272,0.10492,-0.11712,-0.07076,-0.0244,-0.03416,0.0732,0.03904,-0.03904,-0.0732,-0.08784,-0.09272
-0.08784,0.10004,-0.11224,-0.06832,-0.0244,-0.03172,0.0732,0.03904,-0.03904,-0.0732,-0.08784,-0.08784
-0.07808,0.09272,-0.10736,-0.06832,-0.02928,-0.0244,0.0732,0.04392,-0.03416,-0.0732,-0.08784,-0.08784
-0.0732,0.09272,-0.11224,-0.07564,-0.03904,-0.01708,0.0732,0.0488,-0.03416,-0.0732,-0.08296,-0.09272
-0.0732,0.09516,-0.11712,-0.08052,-0.04392,-0.01464,0.0732,0.05368,-0.03416,-0.06344,-0.08296,-0.0976
-0.0732,0.09516,-0.11712,-0.08052,-0.04392,-0.01464,0.06832,0.05368,-0.03416,-0.06344,-0.08296,-0.0976
-0.06832,0.09028,-0.11224,-0.07808,-0.04392,-0.0122,0.06832,0.06344,-0.0244,-0.06344,-0.08296,-0.09272
-0.06832,0.08784,-0.10736,-0.0732,-0.03904,-0.01464,0.06344,0.06832,-0.0244,-0.06344,-0.07808,-0.08784
-0.06344,0.08296,-0.10248,-0.07076,-0.03904,-0.0122,0.06344,0.07808,-0.01952,-0.05856,-0.0732,-0.08784
-0.06344,0.07808,-0.09272,-0.061,-0.02928,-0.01708,0.06344,0.07808,-0.01952,-0.05368,-0.0732,-0.08784
-0.05856,0.0732,-0.08784,-0.05856,-0.02928,-0.01464,0.06344,0.08296,-0.01952,-0.0488,-0.06832,-0.08296
-0.05856,0.07076,-0.08296,-0.05368,-0.0244,-0.01708,0.05856,0.0976,-0.01464,-0.0488,-0.06344,-0.08296
-0.06344,0.07076,-0.07808,-0.04636,-0.01464,-0.0244,0.05856,0.10736,-0.00976,-0.04392,-0.06344,-0.08296
-0.06344,0.0732,-0.08296,-0.05124,-0.01952,-0.02196,0.05856,0.10736,-0.00488,-0.03904,-0.05856,-0.07808
-0.0488,0.061,-0.0732,-0.0488,-0.0244,-0.0122,0.05368,0.11224,0,-0.03416,-0.05856,-0.0732
-0.0488,0.061,-0.0732,-0.0488,-0.0244,-0.0122,0.05368,0.122,0.00976,-0.02928,-0.05368,-0.06832
-0.0488,0.05856,-0.06832,-0.04392,-0.01952,-0.01464,0.05368,0.13664,0.01464,-0.0244,-0.04392,-0.06832
-0.04392,0.05124,-0.05856,-0.0366,-0.01464,-0.01464,0.0488,0.1464,0.01952,-0.0244,-0.04392,-0.06344
-0.03416,0.04392,-0.05368,-0.0366,-0.01952,-0.00732,0.04392,0.16104,0.02928,-0.01952,-0.03416,-0.05368
-0.02928,0.0366,-0.04392,-0.02928,-0.01464,-0.00732,0.03904,0.18056,0.03904,-0.00976,-0.0244,-0.04392
-0.01952,0.02684,-0.03416,-0.0244,-0.01464,-0.00244,0.03904,0.20496,0.04392,0,-0.01952,-0.03904
-0.00976,0.01464,-0.01952,-0.01464,-0.00976,0,0.03904,0.21472,0.05368,0.00976,-0.00976,-0.03416
0,0.00488,-0.00976,-0.00976,-0.00976,0.00488,0.03416,0.23912,0.06832,0.01952,0,-0.0244
0.00976,-0.00488,0,-0.00488,-0.00976,0.00976,0.02928,0.25864,0.07808,0.02928,0.00976,-0.01952
0.01952,-0.01708,0.01464,0.00488,-0.00488,0.0122,0.0244,0.28304,0.08784,0.04392,0.01952,0
0.03416,-0.03172,0.02928,0.0122,-0.00488,0.01952,0.00976,0.30744,0.10736,0.05856,0.03416,0.01464
0.0488,-0.05124,0.05368,0.02928,0.00488,0.02196,0.00488,0.32696,0.11712,0.0732,0.04392,0.02928
0.06344,-0.06832,0.0732,0.04148,0.00976,0.02684,0.00488,0.35136,0.13664,0.08784,0.05856,0.03904
0.07808,-0.0854,0.09272,0.05368,0.01464,0.03172,-0.00488,0.37088,0.15128,0.0976,0.0732,0.05368
0.09272,-0.10248,0.11224,0.06588,0.01952,0.0366,-0.01464,0.38552,0.16104,0.11712,0.08784,0.05856
0.11712,-0.12688,0.13664,0.07808,0.01952,0.0488,-0.02928,0.39528,0.1708,0.13664,0.10248,0.0732
0.12688,-0.14152,0.15616,0.09272,0.02928,0.0488,-0.03904,0.40992,0.18544,0.15616,0.11712,0.08784
0.14152,-0.16104,0.18056,0.1098,0.03904,0.05124,-0.04392,0.41968,0.20008,0.1708,0.13176,0.0976
0.16104,-0.18056,0.20008,0.11956,0.03904,0.061,-0.05856,0.43432,0.20984,0.18544,0.15128,0.11712
0.17568,-0.19764,0.2196,0.13176,0.04392,0.06588,-0.06832,0.4392,0.22448,0.20008,0.16592,0.13176
0.18544,-0.20984,0.23424,0.14152,0.0488,0.06832,-0.07808,0.4392,0.23424,0.20984,0.18056,0.14152
0.20008,-0.22204,0.244,0.14396,0.04392,0.07808,-0.08784,0.4392,0.23424,0.2196,0.19032,0.15616
0.20984,-0.23424,0.25864,0.15372,0.0488,0.08052,-0.08784,0.43432,0.23912,0.22936,0.1952,0.16592
0.21472,-0.244,0.27328,0.16592,0.05856,0.07808,-0.09272,0.42944,0.23912,0.23424,0.20008,0.17568
0.2196,-0.25132,0.28304,0.17324,0.06344,0.07808,-0.10248,0.4148,0.23424,0.23912,0.20984,0.18544
0.2196,-0.25376,0.28792,0.17812,0.06832,0.07564,-0.10248,0.39528,0.23424,0.23912,0.21472,0.19032
0.2196,-0.2562,0.2928,0.183,0.0732,0.0732,-0.11224,0.366,0.22448,0.22936,0.21472,0.19032
0.21472,-0.25376,0.2928,0.18544,0.07808,0.06832,-0.11712,0.33672,0.20984,0.22936,0.20984,0.18544
0.20008,-0.23912,0.27816,0.17812,0.07808,0.061,-0.11712,0.30256,0.20008,0.21472,0.20008,0.18056
0.19032,-0.22936,0.2684,0.17324,0.07808,0.05612,-0.11224,0.2684,0.19032,0.20008,0.19032,0.16592
0.1708,-0.20496,0.23912,0.15372,0.06832,0.05124,-0.10248,0.22448,0.1708,0.18056,0.1708,0.15616
0.1464,-0.18056,0.21472,0.14152,0.06832,0.03904,-0.09272,0.1952,0.15616,0.16104,0.15616,0.13664
0.122,-0.15372,0.18544,0.12444,0.06344,0.02928,-0.07808,0.16104,0.13176,0.13664,0.13664,0.11712
0.09272,-0.122,0.15128,0.10492,0.05856,0.01708,-0.05368,0.13176,0.10736,0.11712,0.11224,0.0976
0.0732,-0.09516,0.11712,0.08052,0.04392,0.01464,-0.04392,0.10736,0.09272,0.09272,0.09272,0.07808
0.04392,-0.06588,0.08784,0.06588,0.04392,0,-0.0244,0.08784,0.0732,0.0732,0.0732,0.05856
0.02928,-0.04392,0.05856,0.04392,0.02928,0,-0.01464,0.06832,0.05368,0.0488,0.04392,0.03904
0.00976,-0.02196,0.03416,0.02928,0.0244,-0.00732,0,0.0488,0.04392,0.03416,0.0244,0.0244
-0.01464,0.00488,0.00488,0.0122,0.01952,-0.01708,0.00976,0.03416,0.02928,0.00976,0.00488,0.00976
-0.0244,0.01708,-0.00976,0.00244,0.01464,-0.01952,0.01952,0.0244,0.01952,-0.00976,-0.00488,-0.00488
-0.03416,0.03172,-0.02928,-0.0122,0.00488,-0.01952,0.02928,0.01464,0.00488,-0.01952,-0.01952,-0.01952
-0.0488,0.04636,-0.04392,-0.01952,0.00488,-0.02684,0.03904,0.00488,-0.00976,-0.02928,-0.0244,-0.02928
-0.05856,0.05612,-0.05368,-0.0244,0.00488,-0.03172,0.03904,-0.00976,-0.00976,-0.03904,-0.03416,-0.03904
-0.05856,0.06344,-0.06832,-0.03904,-0.00976,-0.0244,0.03904,-0.01464,-0.0244,-0.04392,-0.03904,-0.0488
-0.05856,0.06832,-0.07808,-0.0488,-0.01952,-0.01952,0.04392,-0.01952,-0.0244,-0.0488,-0.0488,-0.0488
-0.06344,0.07076,-0.07808,-0.04636,-0.01464,-0.0244,0.0488,-0.01952,-0.0244,-0.0488,-0.05368,-0.0488
-0.06832,0.07564,-0.08296,-0.0488,-0.01464,-0.02684,0.0488,-0.0244,-0.02928,-0.05368,-0.05856,-0.0488
-0.07808,0.08052,-0.08296,-0.04392,-0.00488,-0.0366,0.0488,-0.02928,-0.02928,-0.05368,-0.05856,-0.0488
-0.07808,0.08052,-0.08296,-0.04392,-0.00488,-0.0366,0.05368,-0.02928,-0.03416,-0.05856,-0.05856,-0.0488
-0.07808,0.08296,-0.08784,-0.0488,-0.00976,-0.03416,0.05368,-0.02928,-0.03904,-0.05856,-0.06344,-0.05368
-0.07808,0.08296,-0.08784,-0.0488,-0.00976,-0.03416,0.0488,-0.03416,-0.03904,-0.05856,-0.06344,-0.05368
-0.07808,0.08296,-0.08784,-0.0488,-0.00976,-0.03416,0.0488,-0.03416,-0.03904,-0.06344,-0.06832,-0.05368
-0.08296,0.08784,-0.09272,-0.05124,-0.00976,-0.0366,0.0488,-0.03416,-0.03904,-0.06344,-0.06832,-0.05856
-0.08296,0.08784,-0.09272,-0.05124,-0.00976,-0.0366,0.0488,-0.03416,-0.03904,-0.06832,-0.06832,-0.05856
-0.08296,0.09028,-0.0976,-0.05612,-0.01464,-0.03416,0.05368,-0.03416,-0.03904,-0.06832,-0.06832,-0.05856
-0.08296,0.09028,-0.0976,-0.05612,-0.01464,-0.03416,0.05368,-0.03416,-0.03904,-0.06832,-0.06832,-0.05856
-0.08296,0.09028,-0.0976,-0.05612,-0.01464,-0.03416,0.05368,-0.02928,-0.03904,-0.06832,-0.06832,-0.06344
-0.08296,0.09028,-0.0976,-0.05612,-0.01464,-0.03416,0.05368,-0.02928,-0.03904,-0.06832,-0.06832,-0.06832
-0.08296,0.09028,-0.0976,-0.05612,-0.01464,-0.03416,0.05368,-0.02928,-0.03904,-0.06832,-0.06832,-0.06832
-0.08296,0.09028,-0.0976,-0.05612,-0.01464,-0.03416,0.05368,-0.02928,-0.03904,-0.06832,-0.06832,-0.06344
-0.08296,0.09028,-0.0976,-0.05612,-0.01464,-0.03416,0.05368,-0.0244,-0.03416,-0.06832,-0.0732,-0.06344
-0.08296,0.08784,-0.09272,-0.05124,-0.00976,-0.0366,0.05368,-0.0244,-0.03416,-0.06832,-0.0732,-0.06344
-0.07808,0.0854,-0.09272,-0.05368,-0.01464,-0.03172,0.05368,-0.0244,-0.02928,-0.06344,-0.06832,-0.06344
-0.07808,0.0854,-0.09272,-0.05368,-0.01464,-0.03172,0.05368,-0.01952,-0.0244,-0.06344,-0.06832,-0.06344
-0.07808,0.0854,-0.09272,-0.05368,-0.01464,-0.03172,0.05368,-0.01952,-0.0244,-0.06344,-0.06832,-0.06344
-0.07808,0.0854,-0.09272,-0.05368,-0.01464,-0.03172,0.05368,-0.01952,-0.01952,-0.06344,-0.06832,-0.05856
-0.0732,0.08052,-0.08784,-0.05124,-0.01464,-0.02928,0.05368,-0.01952,-0.01952,-0.06344,-0.06344,-0.05856
-0.0732,0.07564,-0.07808,-0.04148,-0.00488,-0.03416,0.05368,-0.01952,-0.01952,-0.05856,-0.05856,-0.05856
-0.06832,0.0732,-0.07808,-0.04392,-0.00976,-0.02928,0.05368,-0.01952,-0.01952,-0.05856,-0.05856,-0.05856
-0.06344,0.07076,-0.07808,-0.04636,-0.01464,-0.0244,0.0488,-0.01952,-0.01952,-0.05856,-0.05856,-0.05856
-0.05856,0.06832,-0.07808,-0.0488,-0.01952,-0.01952,0.0488,-0.01952,-0.01952,-0.05856,-0.06344,-0.05856
-0.05856,0.06588,-0.0732,-0.04392,-0.01464,-0.02196,0.0488,-0.0244,-0.01952,-0.05368,-0.06344,-0.05368
-0.05856,0.06588,-0.0732,-0.04392,-0.01464,-0.02196,0.04392,-0.0244,-0.01952,-0.05368,-0.06344,-0.05368
-0.05856,0.06588,-0.0732,-0.04392,-0.01464,-0.02196,0.03904,-0.0244,-0.01464,-0.05368,-0.06344,-0.05368
-0.05856,0.06832,-0.07808,-0.0488,-0.01952,-0.01952,0.03904,-0.0244,-0.01464,-0.05368,-0.06344,-0.05368
-0.06344,0.07076,-0.07808,-0.04636,-0.01464,-0.0244,0.03904,-0.0244,-0.01464,-0.05368,-0.06344,-0.05368
-0.0732,0.07564,-0.07808,-0.04148,-0.00488,-0.03416,0.03904,-0.0244,-0.01464,-0.05368,-0.06344,-0.05368
-0.08296,0.08052,-0.07808,-0.0366,0.00488,-0.04392,0.03904,-0.0244,-0.01464,-0.0488,-0.05856,-0.05856
-0.0732,0.07564,-0.07808,-0.04148,-0.00488,-0.03416,0.03904,-0.02928,-0.01464,-0.0488,-0.05856,-0.05856
-0.06344,0.07076,-0.07808,-0.04636,-0.01464,-0.0244,0.03904,-0.03416,-0.01464,-0.0488,-0.05856,-0.05368
-0.06832,0.0732,-0.07808,-0.04392,-0.00976,-0.02928,0.03904,-0.03416,-0.01464,-0.05368,-0.05856,-0.05368
-0.06832,0.0732,-0.07808,-0.04392,-0.00976,-0.02928,0.03904,-0.03416,-0.01464,-0.05368,-0.05856,-0.05368
-0.0732,0.07564,-0.07808,-0.04148,-0.00488,-0.03416,0.03904,-0.03904,-0.01952,-0.05368,-0.05856,-0.05368
-0.07808,0.07808,-0.07808,-0.03904,0,-0.03904,0.03904,-0.03904,-0.0244,-0.05368,-0.05856,-0.05368
-0.07808,0.07808,-0.07808,-0.03904,0,-0.03904,0.03904,-0.03904,-0.0244,-0.0488,-0.05856,-0.05368
-0.07808,0.07808,-0.07808,-0.03904,0,-0.03904,0.03904,-0.03904,-0.02928,-0.0488,-0.05856,-0.05856
-0.0732,0.07564,-0.07808,-0.04148,-0.00488,-0.03416,0.03416,-0.03904,-0.02928,-0.05368,-0.05856,-0.05856
-0.06832,0.0732,-0.07808,-0.04392,-0.00976,-0.02928,0.02928,-0.03904,-0.02928,-0.05856,-0.05856,-0.05856
-0.06832,0.0732,-0.07808,-0.04392,-0.00976,-0.02928,0.02928,-0.03904,-0.02928,-0.05856,-0.05856,-0.05856
-0.06832,0.0732,-0.07808,-0.04392,-0.00976,-0.02928,0.02928,-0.03904,-0.02928,-0.05856,-0.05856,-0.05856
-0.06832,0.0732,-0.07808,-0.04392,-0.00976,-0.02928,0.02928,-0.03904,-0.02928,-0.05856,-0.05856,-0.06344
-0.06832,0.0732,-0.07808,-0.04392,-0.00976,-0.02928,0.02928,-0.03904,-0.02928,-0.05856,-0.05856,-0.06344
-0.0732,0.07564,-0.07808,-0.04148,-0.00488,-0.03416,0.03416,-0.03904,-0.02928,-0.05368,-0.05368,-0.05368
-0.07808,0.07564,-0.0732,-0.03416,0.00488,-0.04148,0.03904,-0.03416,-0.0244,-0.0488,-0.0488,-0.0488
-0.07808,0.07076,-0.06344,-0.0244,0.01464,-0.04636,0.0488,-0.03416,-0.01464,-0.04392,-0.0488,-0.0488
-0.07808,0.06588,-0.05368,-0.01464,0.0244,-0.05124,0.05856,-0.02928,-0.00976,-0.04392,-0.04392,-0.04392
-0.07808,0.05856,-0.03904,0,0.03904,-0.05856,0.06832,-0.01952,-0.00488,-0.03904,-0.03904,-0.04392
-0.07808,0.05612,-0.03416,0.00488,0.04392,-0.061,0.07808,-0.00976,0,-0.03904,-0.03416,-0.04392
-0.06832,0.0488,-0.02928,0.00488,0.03904,-0.05368,0.08784,-0.00976,0.00488,-0.03416,-0.03904,-0.04392
-0.06344,0.04392,-0.0244,0.00732,0.03904,-0.05124,0.08784,-0.00976,0.00488,-0.03416,-0.0488,-0.03904
-0.06344,0.04148,-0.01952,0.0122,0.04392,-0.05368,0.08784,-0.00976,0.00976,-0.03416,-0.04392,-0.03904
-0.05856,0.03416,-0.00976,0.01952,0.0488,-0.05368,0.06832,-0.0244,0.00976,-0.02928,-0.04392,-0.03904
-0.06344,0.03172,0,0.03172,0.06344,-0.06344,0.0488,-0.03416,0.00976,-0.02928,-0.03904,-0.02928
-0.05368,0.0244,0.00488,0.03172,0.05856,-0.05612,0.01952,-0.04392,0.00488,-0.0244,-0.02928,-0.01952
-0.04392,0.01708,0.00976,0.03172,0.05368,-0.0488,-0.00488,-0.0488,0,-0.0244,-0.02928,-0.01464
-0.03416,0.00488,0.0244,0.04148,0.05856,-0.04636,-0.00976,-0.0488,0,-0.01952,-0.01952,-0.00976
-0.02928,-0.00488,0.03904,0.05368,0.06832,-0.0488,-0.00976,-0.04392,0.00488,-0.00976,-0.00976,-0.00488
-0.02928,0.00244,0.0244,0.03904,0.05368,-0.04148,-0.00488,-0.04392,0.00976,-0.00976,-0.00976,-0.00976
-0.02928,0.00244,0.0244,0.03904,0.05368,-0.04148,-0.00488,-0.04392,0.00976,-0.00976,-0.00976,-0.00976
-0.02928,0.00976,0.00976,0.0244,0.03904,-0.03416,-0.00488,-0.04392,0,-0.0244,-0.01952,-0.01464
-0.02928,0.01708,-0.00488,0.00976,0.0244,-0.02684,-0.00488,-0.05856,-0.00976,-0.03416,-0.03416,-0.01952
-0.02928,0.03172,-0.03416,-0.01952,-0.00488,-0.0122,-0.00976,-0.0732,-0.03416,-0.04392,-0.0488,-0.0244
-0.02928,0.03416,-0.03904,-0.0244,-0.00976,-0.00976,-0.00976,-0.08296,-0.03904,-0.05368,-0.05856,-0.02928
-0.03904,0.0488,-0.05856,-0.03904,-0.01952,-0.00976,-0.00976,-0.08296,-0.0488,-0.06344,-0.06344,-0.03904
-0.04392,0.05368,-0.06344,-0.04148,-0.01952,-0.0122,0,-0.08296,-0.0488,-0.06344,-0.06344,-0.04392
-0.05856,0.061,-0.06344,-0.03416,-0.00488,-0.02684,0.00976,-0.0732,-0.04392,-0.06344,-0.06344,-0.0488
-0.0732,0.0732,-0.0732,-0.0366,0,-0.0366,0.0244,-0.06832,-0.03904,-0.06832,-0.06344,-0.05368
-0.07808,0.08296,-0.08784,-0.0488,-0.00976,-0.03416,0.02928,-0.06832,-0.03904,-0.0732,-0.07808,-0.06344
-0.08784,0.0976,-0.10736,-0.06344,-0.01952,-0.03416,0.02928,-0.06832,-0.0488,-0.08784,-0.07808,-0.0732
-0.09272,0.10248,-0.11224,-0.06588,-0.01952,-0.0366,0.02928,-0.0732,-0.05368,-0.08784,-0.08296,-0.0732
-0.09272,0.10248,-0.11224,-0.06588,-0.01952,-0.0366,0.02928,-0.0732,-0.05856,-0.08784,-0.08296,-0.0732
-0.09272,0.10492,-0.11712,-0.07076,-0.0244,-0.03416,0.02928,-0.0732,-0.05856,-0.09272,-0.08296,-0.07808
-0.09272,0.10492,-0.11712,-0.07076,-0.0244,-0.03416,0.03416,-0.0732,-0.05856,-0.09272,-0.08784,-0.07808
-0.09272,0.10736,-0.122,-0.07564,-0.02928,-0.03172,0.03416,-0.06832,-0.05856,-0.09272,-0.09272,-0.07808
-0.0976,0.1098,-0.122,-0.0732,-0.0244,-0.0366,0.03416,-0.06344,-0.05856,-0.08784,-0.09272,-0.07808
-0.10248,0.11224,-0.122,-0.07076,-0.01952,-0.04148,0.03904,-0.05856,-0.05856,-0.08296,-0.09272,-0.07808
-0.10248,0.11224,-0.122,-0.07076,-0.01952,-0.04148,0.03904,-0.05856,-0.05856,-0.08296,-0.09272,-0.07808
-0.10248,0.11224,-0.122,-0.07076,-0.01952,-0.04148,0.03904,-0.05856,-0.05368,-0.08296,-0.09272,-0.07808
-0.10248,0.11224,-0.122,-0.07076,-0.01952,-0.04148,0.03904,-0.05856,-0.05368,-0.08296,-0.09272,-0.07808
-0.0976,0.1098,-0.122,-0.0732,-0.0244,-0.0366,0.03904,-0.05856,-0.05368,-0.08296,-0.09272,-0.07808
-0.0976,0.11224,-0.12688,-0.07808,-0.02928,-0.03416,0.05856,-0.03416,-0.0488,-0.08296,-0.09272,-0.08784
-0.11224,0.12444,-0.13664,-0.08052,-0.0244,-0.04392,0.08784,0.04392,-0.0244,-0.08296,-0.10248,-0.10248
-0.11224,0.122,-0.13176,-0.07564,-0.01952,-0.04636,0.13176,0.20984,0.03904,-0.06344,-0.0976,-0.0976
-0.08784,0.061,-0.03416,0.00976,0.05368,-0.07076,0.13176,0.35136,0.15128,0.0244,-0.02928,-0.05368
0.01952,-0.08052,0.14152,0.13176,0.122,-0.05124,0.09272,0.37088,0.26352,0.18056,0.11224,0.06344
0.25864,-0.32696,0.39528,0.26596,0.13664,0.061,-0.07808,0.244,0.3416,0.39528,0.32208,0.24888
0.5856,-0.671,0.7564,0.4636,0.1708,0.2074,-0.35624,-0.01952,0.37088,0.64904,0.62952,0.52216
0.90768,-1.00284,1.098,0.64416,0.19032,0.35868,-0.71248,-0.56608,0.244,0.84912,0.91256,0.81984
1.1956,-1.27124,1.34688,0.74908,0.15128,0.52216,-1.05896,-1.01504,0.09272,0.98576,1.11264,1.04432
1.3176,-1.33712,1.35664,0.69784,0.03904,0.63928,-1.28344,-1.34688,-0.13176,0.9028,1.08336,1.07848
1.20048,-1.07116,0.94184,0.3416,-0.25864,0.72956,-1.23464,-1.51768,-0.44896,0.47824,0.7076,0.80032
0.71736,-0.63928,0.5612,0.20252,-0.15616,0.43676,-0.94672,-1.50792,-0.56608,0.10736,0.33672,0.488
0.31232,-0.29768,0.28304,0.12688,-0.02928,0.1708,-0.68808,-1.44448,-0.65392,-0.18056,0.0488,0.24888
0.22448,-0.18544,0.1464,0.03416,-0.07808,0.15128,-0.53192,-1.19072,-0.6344,-0.24888,-0.03904,0.16104
0.19032,-0.14152,0.09272,-0.00244,-0.0976,0.14396,-0.40992,-0.84912,-0.488,-0.20496,-0.05856,0.10736
0.122,-0.08784,0.05368,-0.00732,-0.06832,0.09516,-0.27328,-0.5612,-0.33672,-0.15616,-0.05856,0.06344
0.03416,-0.01708,0,-0.01708,-0.03416,0.03416,-0.16104,-0.38064,-0.22448,-0.12688,-0.06832,0.00976
-0.03416,0.04148,-0.0488,-0.03172,-0.01464,-0.00976,-0.07808,-0.26352,-0.16592,-0.11224,-0.08296,-0.03416
-0.0488,0.06588,-0.08296,-0.05856,-0.03416,-0.00732,-0.02928,-0.18544,-0.13664,-0.10736,-0.08784,-0.05368
-0.05368,0.07564,-0.0976,-0.07076,-0.04392,-0.00488,-0.00488,-0.11712,-0.122,-0.10736,-0.09272,-0.06344
-0.06344,0.08784,-0.11224,-0.08052,-0.0488,-0.00732,0.00976,-0.0732,-0.0976,-0.10736,-0.0976,-0.0732
-0.08296,0.10248,-0.122,-0.08052,-0.03904,-0.02196,0.03416,-0.04392,-0.06832,-0.10736,-0.0976,-0.07808
-0.09272,0.1098,-0.12688,-0.08052,-0.03416,-0.02928,0.0488,-0.03904,-0.06832,-0.10736,-0.0976,-0.08296
-0.09272,0.11224,-0.13176,-0.0854,-0.03904,-0.02684,0.0488,-0.03416,-0.06832,-0.10736,-0.10248,-0.08296
-0.09272,0.11468,-0.13664,-0.09028,-0.04392,-0.0244,0.05368,-0.01464,-0.06832,-0.10736,-0.10248,-0.09272
-0.10248,0.11956,-0.13664,-0.0854,-0.03416,-0.03416,0.06344,-0.00488,-0.05856,-0.10736,-0.10248,-0.09272
-0.10248,0.11956,-0.13664,-0.0854,-0.03416,-0.03416,0.06832,-0.00488,-0.05856,-0.10248,-0.10248,-0.09272
-0.0976,0.11712,-0.13664,-0.08784,-0.03904,-0.02928,0.06832,0,-0.05368,-0.10248,-0.10248,-0.08784
-0.09272,0.11224,-0.13176,-0.0854,-0.03904,-0.02684,0.06832,0.00976,-0.05368,-0.0976,-0.10248,-0.08784
-0.09272,0.11224,-0.13176,-0.0854,-0.03904,-0.02684,0.0732,0.01952,-0.0488,-0.09272,-0.10248,-0.09272
-0.0976,0.11224,-0.12688,-0.07808,-0.02928,-0.03416,0.06832,0.01952,-0.0488,-0.08784,-0.10248,-0.09272
-0.0976,0.1098,-0.122,-0.0732,-0.0244,-0.0366,0.06344,0.01952,-0.04392,-0.08784,-0.0976,-0.09272
-0.09272,0.10736,-0.122,-0.07564,-0.02928,-0.03172,0.06344,0.01952,-0.04392,-0.08784,-0.0976,-0.09272
-0.09272,0.10736,-0.122,-0.07564,-0.02928,-0.03172,0.06344,0.0244,-0.04392,-0.08784,-0.0976,-0.09272
-0.09272,0.10492,-0.11712,-0.07076,-0.0244,-0.03416,0.06344,0.02928,-0.03904,-0.08296,-0.0976,-0.09272
-0.09272,0.10248,-0.11224,-0.06588,-0.01952,-0.0366,0.06344,0.02928,-0.03904,-0.08296,-0.0976,-0.08784
-0.08784,0.0976,-0.10736,-0.06344,-0.01952,-0.03416,0.06344,0.03416,-0.03416,-0.08296,-0.0976,-0.08784
-0.08296,0.09516,-0.10736,-0.06588,-0.0244,-0.02928,0.06344,0.03904,-0.03416,-0.08296,-0.09272,-0.08784
-0.08296,0.09516,-0.10736,-0.06588,-0.0244,-0.02928,0.06344,0.04392,-0.03416,-0.0732,-0.09272,-0.08784
-0.08296,0.09516,-0.10736,-0.06588,-0.0244,-0.02928,0.05856,0.04392,-0.03416,-0.0732,-0.09272,-0.08784
-0.07808,0.09028,-0.10248,-0.06344,-0.0244,-0.02684,0.05856,0.05368,-0.0244,-0.07808,-0.09272,-0.08296
-0.07808,0.08784,-0.0976,-0.05856,-0.01952,-0.02928,0.05368,0.05856,-0.0244,-0.08296,-0.08784,-0.07808
-0.0732,0.08296,-0.09272,-0.05612,-0.01952,-0.02684,0.05368,0.06832,-0.01464,-0.07808,-0.08296,-0.07808
-0.0732,0.08052,-0.08784,-0.05124,-0.01464,-0.02928,0.05368,0.06832,-0.00976,-0.0732,-0.08296,-0.07808
-0.06832,0.08052,-0.09272,-0.05856,-0.0244,-0.02196,0.05368,0.0732,-0.00976,-0.06832,-0.07808,-0.0732
-0.06344,0.07808,-0.09272,-0.061,-0.02928,-0.01708,0.0488,0.08784,-0.00488,-0.06832,-0.0732,-0.0732
-0.06344,0.07564,-0.08784,-0.05612,-0.0244,-0.01952,0.0488,0.0976,0,-0.05856,-0.0732,-0.0732
-0.06344,0.07564,-0.08784,-0.05612,-0.0244,-0.01952,0.0488,0.10248,0.00488,-0.0488,-0.06832,-0.06832
-0.05368,0.06344,-0.0732,-0.04636,-0.01952,-0.01708,0.0488,0.11224,0.00976,-0.04392,-0.06832,-0.06344
-0.05856,0.06588,-0.0732,-0.04392,-0.01464,-0.02196,0.05368,0.122,0.01952,-0.03904,-0.06344,-0.05856
-0.05856,0.06344,-0.06832,-0.03904,-0.00976,-0.0244,0.05368,0.13664,0.0244,-0.03416,-0.05368,-0.05856
-0.05368,0.05612,-0.05856,-0.03172,-0.00488,-0.0244,0.0488,0.1464,0.02928,-0.02928,-0.05368,-0.05368
-0.04392,0.0488,-0.05368,-0.03172,-0.00976,-0.01708,0.04392,0.16104,0.03904,-0.01952,-0.04392,-0.04392
-0.03904,0.04148,-0.04392,-0.0244,-0.00488,-0.01708,0.03904,0.18056,0.0488,-0.00976,-0.03416,-0.03416
-0.02928,0.03172,-0.03416,-0.01952,-0.00488,-0.0122,0.03904,0.21472,0.05856,0.00488,-0.0244,-0.02928
-0.01952,0.01952,-0.01952,-0.00976,0,-0.00976,0.03904,0.23424,0.0732,0.01952,-0.00976,-0.0244
-0.00976,0.00976,-0.00976,-0.00488,0,-0.00488,0.03416,0.25864,0.08784,0.02928,0,-0.01464
0,-0.00244,0.00488,0.00488,0.00488,-0.00244,0.02928,0.27816,0.0976,0.03904,0.00976,-0.00976
0.01464,-0.01952,0.0244,0.01708,0.00976,0.00244,0.0244,0.30256,0.10736,0.05368,0.01952,0.00976
0.03416,-0.0366,0.03904,0.02196,0.00488,0.01464,0.00976,0.32696,0.12688,0.06832,0.03416,0.01952
0.0488,-0.05612,0.06344,0.03904,0.01464,0.01708,0.00488,0.34648,0.13664,0.08296,0.04392,0.02928
0.06344,-0.0732,0.08296,0.05124,0.01952,0.02196,0.00488,0.37088,0.15616,0.0976,0.05856,0.03904
0.07808,-0.09028,0.10248,0.06344,0.0244,0.02684,-0.00488,0.3904,0.1708,0.10248,0.0732,0.05368
0.09272,-0.10736,0.122,0.07564,0.02928,0.03172,-0.01464,0.40504,0.18056,0.11712,0.08784,0.06344
0.11712,-0.1342,0.15128,0.09272,0.03416,0.04148,-0.02928,0.4148,0.19032,0.13664,0.10248,0.08296
0.12688,-0.15128,0.17568,0.11224,0.0488,0.03904,-0.03904,0.42944,0.20008,0.15128,0.11712,0.0976
0.14152,-0.1708,0.20008,0.12932,0.05856,0.04148,-0.04392,0.4392,0.20984,0.16104,0.13176,0.10736
0.15616,-0.18788,0.2196,0.14152,0.06344,0.04636,-0.05368,0.44896,0.2196,0.17568,0.1464,0.122
0.16592,-0.20252,0.23912,0.15616,0.0732,0.04636,-0.05856,0.44896,0.23424,0.19032,0.15616,0.13176
0.17568,-0.21472,0.25376,0.16592,0.07808,0.0488,-0.06832,0.44896,0.244,0.20008,0.1708,0.14152
0.19032,-0.22692,0.26352,0.16836,0.0732,0.05856,-0.07808,0.44896,0.244,0.21472,0.18056,0.16104
0.20008,-0.23912,0.27816,0.17812,0.07808,0.061,-0.08296,0.4392,0.24888,0.22448,0.18544,0.1708
0.20496,-0.24888,0.2928,0.19032,0.08784,0.05856,-0.09272,0.42944,0.24888,0.22448,0.19032,0.17568
0.20984,-0.2562,0.30256,0.19764,0.09272,0.05856,-0.10248,0.4148,0.244,0.22936,0.1952,0.18544
0.20984,-0.25864,0.30744,0.20252,0.0976,0.05612,-0.10248,0.3904,0.244,0.22936,0.1952,0.19032
0.20984,-0.25864,0.30744,0.20252,0.0976,0.05612,-0.10736,0.35624,0.23424,0.2196,0.1952,0.19032
0.20496,-0.25132,0.29768,0.1952,0.09272,0.05612,-0.10736,0.32208,0.2196,0.2196,0.19032,0.18544
0.19032,-0.23424,0.27816,0.183,0.08784,0.05124,-0.10736,0.28304,0.20496,0.20496,0.18056,0.18056
0.18056,-0.22448,0.2684,0.17812,0.08784,0.04636,-0.10248,0.24888,0.18056,0.19032,0.1708,0.16592
0.16104,-0.20008,0.23912,0.1586,0.07808,0.04148,-0.09272,0.20984,0.15128,0.1708,0.15128,0.15616
0.13176,-0.17324,0.21472,0.14884,0.08296,0.0244,-0.08296,0.18056,0.13664,0.1464,0.13176,0.13664
0.10248,-0.14396,0.18544,0.1342,0.08296,0.00976,-0.0732,0.14152,0.11224,0.11712,0.10736,0.11712
0.0732,-0.11224,0.15128,0.11468,0.07808,-0.00244,-0.05368,0.11224,0.08784,0.0976,0.08296,0.0976
0.05368,-0.0854,0.11712,0.09028,0.06344,-0.00488,-0.04392,0.08296,0.0732,0.0732,0.06344,0.07808
0.0244,-0.05612,0.08784,0.07564,0.06344,-0.01952,-0.0244,0.05856,0.05368,0.05368,0.04392,0.06344
0.00976,-0.03416,0.05856,0.05368,0.0488,-0.01952,-0.01464,0.03904,0.03416,0.02928,0.01952,0.0488
-0.00976,-0.0122,0.03416,0.03904,0.04392,-0.02684,-0.00488,0.01464,0.0244,0.00976,0.00488,0.03416
-0.03416,0.01464,0.00488,0.02196,0.03904,-0.0366,0,-0.00488,0.00976,-0.01464,-0.01464,0.01952
-0.03904,0.0244,-0.00976,0.00976,0.02928,-0.03416,0.00976,-0.01464,0,-0.02928,-0.0244,0
-0.04392,0.0366,-0.02928,-0.00732,0.01464,-0.02928,0.01952,-0.0244,-0.00976,-0.03904,-0.03904,-0.01464
-0.05856,0.05124,-0.04392,-0.01464,0.01464,-0.0366,0.02928,-0.03416,-0.01952,-0.0488,-0.04392,-0.01952
-0.06832,0.05856,-0.0488,-0.01464,0.01952,-0.04392,0.02928,-0.04392,-0.01952,-0.05856,-0.05368,-0.02928
-0.06832,0.06344,-0.05856,-0.0244,0.00976,-0.03904,0.02928,-0.04392,-0.03904,-0.06344,-0.05856,-0.03904
-0.06832,0.06832,-0.06832,-0.03416,0,-0.03416,0.03416,-0.0488,-0.04392,-0.06832,-0.06344,-0.03904
-0.07808,0.0732,-0.06832,-0.02928,0.00976,-0.04392,0.03904,-0.0488,-0.04392,-0.06832,-0.06344,-0.04392
-0.08296,0.07808,-0.0732,-0.03172,0.00976,-0.04636,0.03904,-0.05368,-0.0488,-0.0732,-0.06832,-0.0488
-0.08784,0.08052,-0.0732,-0.02928,0.01464,-0.05124,0.03904,-0.05856,-0.0488,-0.0732,-0.06832,-0.0488
-0.08784,0.08052,-0.0732,-0.02928,0.01464,-0.05124,0.04392,-0.05856,-0.05368,-0.07808,-0.06832,-0.0488
-0.08784,0.08296,-0.07808,-0.03416,0.00976,-0.0488,0.04392,-0.05856,-0.05856,-0.07808,-0.0732,-0.0488
-0.08784,0.08296,-0.07808,-0.03416,0.00976,-0.0488,0.03904,-0.06344,-0.05856,-0.07808,-0.0732,-0.04392
-0.08784,0.08296,-0.07808,-0.03416,0.00976,-0.0488,0.03904,-0.06344,-0.05856,-0.08296,-0.07808,-0.04392
-0.09272,0.08784,-0.08296,-0.0366,0.00976,-0.05124,0.03904,-0.06344,-0.05856,-0.08296,-0.07808,-0.0488
-0.09272,0.08784,-0.08296,-0.0366,0.00976,-0.05124,0.03904,-0.06344,-0.05856,-0.08784,-0.07808,-0.0488
-0.09272,0.09028,-0.08784,-0.04148,0.00488,-0.0488,0.04392,-0.06344,-0.05856,-0.08784,-0.07808,-0.0488
-0.09272,0.09028,-0.08784,-0.04148,0.00488,-0.0488,0.04392,-0.06344,-0.06344,-0.08784,-0.07808,-0.0488
-0.09272,0.09028,-0.08784,-0.04148,0.00488,-0.0488,0.04392,-0.05856,-0.06832,-0.08784,-0.07808,-0.05368
-0.08296,0.0854,-0.08784,-0.04636,-0.00488,-0.03904,0.04392,-0.05856,-0.06832,-0.09272,-0.07808,-0.06344
-0.0732,0.08052,-0.08784,-0.05124,-0.01464,-0.02928,0.04392,-0.05856,-0.06832,-0.0976,-0.07808,-0.06832
-0.08296,0.08784,-0.09272,-0.05124,-0.00976,-0.0366,0.04392,-0.05856,-0.06832,-0.0976,-0.07808,-0.06344
-0.09272,0.09516,-0.0976,-0.05124,-0.00488,-0.04392,0.04392,-0.05368,-0.06344,-0.0976,-0.08296,-0.06344
-0.09272,0.09272,-0.09272,-0.04636,0,-0.04636,0.04392,-0.05368,-0.06344,-0.09272,-0.08296,-0.06344
-0.08784,0.09028,-0.09272,-0.0488,-0.00488,-0.04148,0.04392,-0.05368,-0.06344,-0.08296,-0.07808,-0.06344
-0.08784,0.09028,-0.09272,-0.0488,-0.00488,-0.04148,0.04392,-0.0488,-0.06344,-0.08296,-0.07808,-0.06344
-0.08784,0.09028,-0.09272,-0.0488,-0.00488,-0.04148,0.04392,-0.0488,-0.06344,-0.08296,-0.07808,-0.06344
-0.08784,0.09028,-0.09272,-0.0488,-0.00488,-0.04148,0.04392,-0.04392,-0.05856,-0.08784,-0.07808,-0.05856
-0.08296,0.08784,-0.09272,-0.05124,-0.00976,-0.0366,0.04392,-0.03904,-0.05856,-0.09272,-0.07808,-0.05856
-0.08296,0.0854,-0.08784,-0.04636,-0.00488,-0.03904,0.04392,-0.03904,-0.05856,-0.08784,-0.07808,-0.05856
-0.08296,0.0854,-0.08784,-0.04636,-0.00488,-0.03904,0.04392,-0.03904,-0.05856,-0.08784,-0.07808,-0.05856
-0.08296,0.0854,-0.08784,-0.04636,-0.00488,-0.03904,0.03904,-0.03904,-0.05856,-0.08296,-0.07808,-0.05856
-0.07808,0.08296,-0.08784,-0.0488,-0.00976,-0.03416,0.03904,-0.03904,-0.05856,-0.07808,-0.07808,-0.05856
-0.07808,0.08052,-0.08296,-0.04392,-0.00488,-0.0366,0.03904,-0.04392,-0.05856,-0.0732,-0.0732,-0.05368
-0.07808,0.08052,-0.08296,-0.04392,-0.00488,-0.0366,0.03904,-0.04392,-0.05856,-0.0732,-0.0732,-0.05368
-0.07808,0.08052,-0.08296,-0.04392,-0.00488,-0.0366,0.04392,-0.04392,-0.0488,-0.0732,-0.0732,-0.05368
-0.07808,0.08296,-0.08784,-0.0488,-0.00976,-0.03416,0.0488,-0.04392,-0.04392,-0.0732,-0.0732,-0.05368
-0.08296,0.08296,-0.08296,-0.04148,0,-0.04148,0.0488,-0.04392,-0.04392,-0.0732,-0.0732,-0.05368
-0.08296,0.08052,-0.07808,-0.0366,0.00488,-0.04392,0.0488,-0.04392,-0.04392,-0.0732,-0.0732,-0.05368
-0.08296,0.08052,-0.07808,-0.0366,0.00488,-0.04392,0.04392,-0.04392,-0.04392,-0.06832,-0.06832,-0.05856
-0.08296,0.08052,-0.07808,-0.0366,0.00488,-0.04392,0.03904,-0.04392,-0.04392,-0.06832,-0.06832,-0.05856
-0.08296,0.08296,-0.08296,-0.04148,0,-0.04148,0.03904,-0.04392,-0.04392,-0.06832,-0.06832,-0.05368
-0.08784,0.08784,-0.08784,-0.04392,0,-0.04392,0.03904,-0.04392,-0.04392,-0.0732,-0.06832,-0.05368
-0.08784,0.08784,-0.08784,-0.04392,0,-0.04392,0.03904,-0.04392,-0.04392,-0.0732,-0.0732,-0.05368
-0.08784,0.08784,-0.08784,-0.04392,0,-0.04392,0.03904,-0.0488,-0.04392,-0.0732,-0.07808,-0.05368
-0.08784,0.08784,-0.08784,-0.04392,0,-0.04392,0.03904,-0.0488,-0.04392,-0.0732,-0.07808,-0.05368
-0.08784,0.08784,-0.08784,-0.04392,0,-0.04392,0.03904,-0.0488,-0.0488,-0.07808,-0.07808,-0.05856
-0.08784,0.08784,-0.08784,-0.04392,0,-0.04392,0.03904,-0.0488,-0.0488,-0.07808,-0.0732,-0.05856
-0.08784,0.08784,-0.08784,-0.04392,0,-0.04392,0.03904,-0.0488,-0.0488,-0.07808,-0.06832,-0.05856
-0.08784,0.08784,-0.08784,-0.04392,0,-0.04392,0.03904,-0.0488,-0.0488,-0.07808,-0.06832,-0.05856
-0.08784,0.08784,-0.08784,-0.04392,0,-0.04392,0.03904,-0.0488,-0.0488,-0.07808,-0.06832,-0.05856
-0.08784,0.08784,-0.08784,-0.04392,0,-0.04392,0.03904,-0.05368,-0.0488,-0.07808,-0.06832,-0.06344
-0.08784,0.08784,-0.08784,-0.04392,0,-0.04392,0.03904,-0.05856,-0.0488,-0.07808,-0.06832,-0.06344
-0.08784,0.08784,-0.08784,-0.04392,0,-0.04392,0.03904,-0.05856,-0.0488,-0.07808,-0.06832,-0.05856
-0.08784,0.0854,-0.08296,-0.03904,0.00488,-0.04636,0.03904,-0.05368,-0.04392,-0.07808,-0.06832,-0.05856
-0.08784,0.08052,-0.0732,-0.02928,0.01464,-0.05124,0.0488,-0.05368,-0.03416,-0.0732,-0.06832,-0.05856
-0.08784,0.07564,-0.06344,-0.01952,0.0244,-0.05612,0.05856,-0.0488,-0.02928,-0.0732,-0.06344,-0.05368
-0.08784,0.06832,-0.0488,-0.00488,0.03904,-0.06344,0.06832,-0.03904,-0.0244,-0.06344,-0.05856,-0.0488
-0.08784,0.06588,-0.04392,0,0.04392,-0.06588,0.07808,-0.02928,-0.01952,-0.05856,-0.05368,-0.04392
-0.07808,0.05856,-0.03904,0,0.03904,-0.05856,0.08784,-0.0244,-0.00976,-0.0488,-0.0488,-0.04392
-0.0732,0.05368,-0.03416,0.00244,0.03904,-0.05612,0.08784,-0.01952,-0.00488,-0.04392,-0.0488,-0.03904
-0.0732,0.05368,-0.03416,0.00244,0.03904,-0.05612,0.09272,-0.01464,0,-0.04392,-0.04392,-0.03904
-0.06832,0.0488,-0.02928,0.00488,0.03904,-0.05368,0.07808,-0.0244,0,-0.03904,-0.04392,-0.03904
-0.0732,0.04636,-0.01952,0.01708,0.05368,-0.06344,0.05856,-0.03904,0,-0.04392,-0.04392,-0.03416
-0.06344,0.03904,-0.01464,0.01708,0.0488,-0.05612,0.02928,-0.05368,-0.00488,-0.04392,-0.03904,-0.02928
-0.05368,0.02928,-0.00488,0.02196,0.0488,-0.05124,0,-0.05856,-0.00976,-0.04392,-0.03904,-0.0244
-0.04392,0.01464,0.01464,0.0366,0.05856,-0.05124,-0.00976,-0.05856,-0.00976,-0.03904,-0.02928,-0.01952
-0.03904,0.00244,0.03416,0.05368,0.0732,-0.05612,-0.00976,-0.05368,0,-0.02928,-0.01952,-0.00488
-0.03904,0.00732,0.0244,0.04392,0.06344,-0.05124,-0.00488,-0.05368,0.00976,-0.02928,-0.01952,0
-0.03904,0.00488,0.02928,0.0488,0.06832,-0.05368,-0.00488,-0.05368,0.00976,-0.02928,-0.01952,0
-0.03904,0.00976,0.01952,0.03904,0.05856,-0.0488,-0.00488,-0.05368,0,-0.04392,-0.02928,-0.00488
-0.03416,0.01464,0.00488,0.02196,0.03904,-0.0366,-0.00488,-0.06344,-0.00976,-0.05368,-0.03904,-0.01464
-0.02928,0.02684,-0.0244,-0.00976,0.00488,-0.01708,-0.00976,-0.0732,-0.03416,-0.06344,-0.0488,-0.0244
-0.02928,0.03172,-0.03416,-0.01952,-0.00488,-0.0122,-0.00976,-0.08296,-0.03904,-0.0732,-0.05856,-0.02928
-0.03904,0.0488,-0.05856,-0.03904,-0.01952,-0.00976,-0.00976,-0.08296,-0.0488,-0.08296,-0.06344,-0.03904
-0.0488,0.05612,-0.06344,-0.03904,-0.01464,-0.01708,0,-0.08296,-0.0488,-0.08296,-0.06344,-0.03904
-0.06832,0.06588,-0.06344,-0.02928,0.00488,-0.0366,0.00976,-0.0732,-0.04392,-0.08296,-0.06344,-0.03904
-0.08296,0.07808,-0.0732,-0.03172,0.00976,-0.04636,0.0244,-0.0732,-0.04392,-0.08296,-0.06344,-0.04392
-0.08784,0.08784,-0.08784,-0.04392,0,-0.04392,0.02928,-0.07808,-0.0488,-0.08296,-0.07808,-0.05368
-0.0976,0.10248,-0.10736,-0.05856,-0.00976,-0.04392,0.02928,-0.07808,-0.05856,-0.0976,-0.08296,-0.06344
-0.10248,0.10736,-0.11224,-0.061,-0.00976,-0.04636,0.02928,-0.08296,-0.06344,-0.0976,-0.09272,-0.06344
-0.10248,0.10736,-0.11224,-0.061,-0.00976,-0.04636,0.02928,-0.08296,-0.06832,-0.0976,-0.09272,-0.06344
-0.10248,0.1098,-0.11712,-0.06588,-0.01464,-0.04392,0.02928,-0.08296,-0.06832,-0.10248,-0.09272,-0.06832
-0.10248,0.1098,-0.11712,-0.06588,-0.01464,-0.04392,0.02928,-0.08296,-0.06832,-0.10248,-0.09272,-0.06832
-0.10248,0.11224,-0.122,-0.07076,-0.01952,-0.04148,0.0244,-0.07808,-0.06832,-0.10248,-0.09272,-0.06832
-0.10736,0.11468,-0.122,-0.06832,-0.01464,-0.04636,0.0244,-0.07808,-0.06832,-0.10248,-0.09272,-0.06832
-0.11224,0.11712,-0.122,-0.06588,-0.00976,-0.05124,0.02928,-0.07808,-0.06832,-0.10248,-0.09272,-0.06832
-0.11224,0.11712,-0.122,-0.06588,-0.00976,-0.05124,0.02928,-0.07808,-0.06832,-0.10248,-0.09272,-0.06832
-0.11224,0.11712,-0.122,-0.06588,-0.00976,-0.05124,0.02928,-0.07808,-0.06344,-0.10248,-0.09272,-0.06832
-0.11224,0.11712,-0.122,-0.06588,-0.00976,-0.05124,0.02928,-0.07808,-0.06344,-0.10248,-0.09272,-0.06832
-0.10736,0.11468,-0.122,-0.06832,-0.01464,-0.04636,0.02928,-0.07808,-0.06344,-0.10248,-0.09272,-0.06832
-0.10736,0.11712,-0.12688,-0.0732,-0.01952,-0.04392,0.02928,-0.0976,-0.0732,-0.10248,-0.09272,-0.07808
-0.122,0.12932,-0.13664,-0.07564,-0.01464,-0.05368,0.03904,-0.06344,-0.06344,-0.10248,-0.10248,-0.09272
-0.1464,0.16104,-0.17568,-0.10248,-0.02928,-0.05856,0.11712,0.13664,-0.01952,-0.11712,-0.13176,-0.122
-0.1464,0.1342,-0.122,-0.0488,0.0244,-0.0854,0.15128,0.31232,0.0732,-0.06344,-0.0976,-0.11224
-0.11224,0.05612,0,0.05612,0.11224,-0.11224,0.18056,0.42456,0.20984,0.0488,-0.00488,-0.03904
0.05368,-0.12688,0.20008,0.17324,0.1464,-0.04636,0.07808,0.3904,0.31232,0.2196,0.15616,0.10248
0.3904,-0.4758,0.5612,0.366,0.1708,0.1098,-0.16592,0.20496,0.40016,0.49288,0.45384,0.37576
0.72224,-0.81252,0.9028,0.54168,0.18056,0.27084,-0.488,-0.26352,0.33184,0.71248,0.72712,0.67344
1.11264,-1.21756,1.32248,0.76616,0.20984,0.4514,-0.9272,-0.8052,0.21472,0.99064,1.08824,1.01992
1.33712,-1.42008,1.50304,0.83448,0.16592,0.5856,-1.2444,-1.22976,0.0244,1.0492,1.22,1.17608
1.33712,-1.22,1.10288,0.43432,-0.23424,0.78568,-1.28832,-1.48352,-0.34648,0.62952,0.84912,0.93208
0.97112,-0.854,0.73688,0.25132,-0.23424,0.60268,-1.09312,-1.55672,-0.51728,0.26352,0.48312,0.65392
0.4392,-0.41724,0.39528,0.17568,-0.04392,0.24156,-0.8052,-1.58112,-0.66368,-0.11712,0.13176,0.35624
0.22448,-0.20984,0.1952,0.08296,-0.02928,0.12688,-0.61976,-1.4152,-0.70272,-0.27816,-0.01952,0.20984
0.20496,-0.17324,0.14152,0.03904,-0.06344,0.1342,-0.49288,-1.02968,-0.55632,-0.23424,-0.04392,0.15128
0.15128,-0.12688,0.10248,0.02684,-0.0488,0.10004,-0.35136,-0.69784,-0.40504,-0.18544,-0.0488,0.10248
0.05368,-0.04636,0.03904,0.0122,-0.01464,0.03416,-0.22448,-0.48312,-0.2684,-0.1464,-0.05856,0.04392
-0.0244,0.02196,-0.01952,-0.00732,0.00488,-0.01464,-0.12688,-0.33184,-0.18544,-0.122,-0.0732,-0.00488
-0.03904,0.04636,-0.05368,-0.03416,-0.01464,-0.0122,-0.06832,-0.23912,-0.1464,-0.11712,-0.08296,-0.0244
-0.04392,0.05612,-0.06832,-0.04636,-0.0244,-0.00976,-0.03416,-0.15616,-0.122,-0.11712,-0.09272,-0.03416
-0.05856,0.07564,-0.09272,-0.06344,-0.03416,-0.0122,-0.01464,-0.10248,-0.0976,-0.11712,-0.0976,-0.0488
-0.08296,0.0976,-0.11224,-0.07076,-0.02928,-0.02684,0.01464,-0.06344,-0.06832,-0.11712,-0.0976,-0.05856
-0.0976,0.10736,-0.11712,-0.06832,-0.01952,-0.03904,0.03416,-0.05856,-0.06832,-0.11712,-0.0976,-0.06344
-0.10248,0.11224,-0.122,-0.07076,-0.01952,-0.04148,0.03904,-0.05368,-0.06832,-0.11712,-0.10248,-0.06344
-0.10248,0.11468,-0.12688,-0.07564,-0.0244,-0.03904,0.04392,-0.03416,-0.06832,-0.11712,-0.10248,-0.0732
-0.11224,0.11956,-0.12688,-0.07076,-0.01464,-0.0488,0.05368,-0.0244,-0.05856,-0.11712,-0.10248,-0.0732
-0.11224,0.11956,-0.12688,-0.07076,-0.01464,-0.0488,0.05856,-0.0244,-0.05856,-0.11224,-0.10248,-0.0732
-0.10736,0.11712,-0.12688,-0.0732,-0.01952,-0.04392,0.05856,-0.01952,-0.05368,-0.11224,-0.10248,-0.06832
-0.10248,0.11224,-0.122,-0.07076,-0.01952,-0.04148,0.05856,-0.00976,-0.05368,-0.11712,-0.10248,-0.0732
-0.10248,0.11224,-0.122,-0.07076,-0.01952,-0.04148,0.06344,0,-0.0488,-0.122,-0.10248,-0.08296
-0.10736,0.11468,-0.122,-0.06832,-0.01464,-0.04636,0.06344,0.00488,-0.0488,-0.11712,-0.10248,-0.08296
-0.10736,0.11468,-0.122,-0.06832,-0.01464,-0.04636,0.06344,0.00976,-0.04392,-0.11712,-0.0976,-0.08296
-0.10248,0.11468,-0.12688,-0.07564,-0.0244,-0.03904,0.06344,0.00976,-0.04392,-0.11224,-0.0976,-0.08296
-0.10248,0.11712,-0.13176,-0.08052,-0.02928,-0.0366,0.06344,0.01464,-0.04392,-0.10736,-0.0976,-0.08296
-0.10248,0.11468,-0.12688,-0.07564,-0.0244,-0.03904,0.06344,0.01952,-0.03904,-0.10248,-0.0976,-0.08296
-0.10248,0.11224,-0.122,-0.07076,-0.01952,-0.04148,0.06344,0.01952,-0.03904,-0.10248,-0.0976,-0.07808
-0.0976,0.10736,-0.11712,-0.06832,-0.01952,-0.03904,0.06344,0.0244,-0.03416,-0.10248,-0.0976,-0.07808
-0.09272,0.10492,-0.11712,-0.07076,-0.0244,-0.03416,0.06344,0.02928,-0.03416,-0.10248,-0.09272,-0.07808
-0.09272,0.10492,-0.11712,-0.07076,-0.0244,-0.03416,0.06344,0.03416,-0.03416,-0.09272,-0.09272,-0.07808
-0.09272,0.10492,-0.11712,-0.07076,-0.0244,-0.03416,0.05856,0.03416,-0.03416,-0.09272,-0.09272,-0.07808
-0.08784,0.10004,-0.11224,-0.06832,-0.0244,-0.03172,0.05856,0.03904,-0.02928,-0.0976,-0.09272,-0.0732
-0.08784,0.0976,-0.10736,-0.06344,-0.01952,-0.03416,0.05368,0.03904,-0.03416,-0.10248,-0.08784,-0.06832
-0.08296,0.09272,-0.10248,-0.061,-0.01952,-0.03172,0.05368,0.0488,-0.02928,-0.0976,-0.08296,-0.06832
-0.08296,0.09028,-0.0976,-0.05612,-0.01464,-0.03416,0.05368,0.0488,-0.02928,-0.09272,-0.08296,-0.06832
-0.07808,0.08784,-0.0976,-0.05856,-0.01952,-0.02928,0.05368,0.05368,-0.0244,-0.08296,-0.07808,-0.06344
-0.0732,0.08296,-0.09272,-0.05612,-0.01952,-0.02684,0.0488,0.06832,-0.01464,-0.07808,-0.0732,-0.06344
-0.0732,0.08052,-0.08784,-0.05124,-0.01464,-0.02928,0.0488,0.07808,-0.00976,-0.0732,-0.0732,-0.06344
-0.0732,0.08052,-0.08784,-0.05124,-0.01464,-0.02928,0.0488,0.08296,-0.00488,-0.06832,-0.06832,-0.05856
-0.05856,0.06344,-0.06832,-0.03904,-0.00976,-0.0244,0.04392,0.09272,-0.00488,-0.06832,-0.06832,-0.05856
-0.05856,0.061,-0.06344,-0.03416,-0.00488,-0.02684,0.04392,0.10248,0,-0.06832,-0.06344,-0.05856
-0.05856,0.05856,-0.05856,-0.02928,0,-0.02928,0.04392,0.11712,0.00488,-0.06344,-0.05368,-0.05856
-0.05368,0.05124,-0.0488,-0.02196,0.00488,-0.02928,0.03904,0.12688,0.00976,-0.05856,-0.05368,-0.05368
-0.0488,0.04636,-0.04392,-0.01952,0.00488,-0.02684,0.03904,0.14152,0.01952,-0.0488,-0.0488,-0.04392
-0.0488,0.04148,-0.03416,-0.00976,0.01464,-0.03172,0.03904,0.16104,0.02928,-0.03904,-0.04392,-0.03416
-0.03904,0.03416,-0.02928,-0.00976,0.00976,-0.0244,0.03904,0.19032,0.03416,-0.02928,-0.03904,-0.02928
-0.02928,0.0244,-0.01952,-0.00488,0.00976,-0.01952,0.03904,0.20496,0.04392,-0.01952,-0.02928,-0.0244
-0.01952,0.01464,-0.00976,0,0.00976,-0.01464,0.03416,0.22936,0.05856,-0.00976,-0.01952,-0.01464
-0.00976,0.00244,0.00488,0.00976,0.01464,-0.0122,0.02928,0.24888,0.06832,0,-0.00976,-0.00976
0,-0.00976,0.01952,0.01952,0.01952,-0.00976,0.0244,0.27328,0.07808,0.01464,0,0.00976
0.01464,-0.02196,0.02928,0.02196,0.01464,0,0.00976,0.29768,0.0976,0.02928,0.01464,0.01952
0.02928,-0.04148,0.05368,0.03904,0.0244,0.00244,0.00488,0.3172,0.10736,0.04392,0.0244,0.02928
0.04392,-0.05856,0.0732,0.05124,0.02928,0.00732,0.00488,0.3416,0.12688,0.05856,0.03904,0.03904
0.05856,-0.07564,0.09272,0.06344,0.03416,0.0122,0,0.36112,0.14152,0.06344,0.05368,0.05368
0.0732,-0.09272,0.11224,0.07564,0.03904,0.01708,-0.00488,0.37576,0.15128,0.07808,0.06832,0.06344
0.10248,-0.11956,0.13664,0.0854,0.03416,0.03416,-0.01952,0.3904,0.16104,0.0976,0.08296,0.08296
0.11712,-0.13664,0.15616,0.0976,0.03904,0.03904,-0.02928,0.40992,0.1708,0.11224,0.0976,0.0976
0.13176,-0.15616,0.18056,0.11468,0.0488,0.04148,-0.03416,0.41968,0.18056,0.12688,0.11224,0.10736
0.1464,-0.17324,0.20008,0.12688,0.05368,0.04636,-0.04392,0.42944,0.19032,0.1464,0.12688,0.122
0.15616,-0.18788,0.2196,0.14152,0.06344,0.04636,-0.0488,0.42944,0.20496,0.16104,0.13664,0.13176
0.16592,-0.20008,0.23424,0.15128,0.06832,0.0488,-0.05856,0.42944,0.21472,0.1708,0.15128,0.14152
0.18056,-0.21472,0.24888,0.1586,0.06832,0.05612,-0.06832,0.43432,0.21472,0.18056,0.16104,0.15616
0.19032,-0.22936,0.2684,0.17324,0.07808,0.05612,-0.0732,0.42944,0.2196,0.18544,0.16592,0.16104
0.1952,-0.23912,0.28304,0.18544,0.08784,0.05368,-0.08296,0.42456,0.2196,0.19032,0.17568,0.16592
0.20008,-0.24644,0.2928,0.19276,0.09272,0.05368,-0.09272,0.4148,0.21472,0.20008,0.18544,0.17568
0.20008,-0.24888,0.29768,0.19764,0.0976,0.05124,-0.0976,0.39528,0.21472,0.20008,0.18544,0.18056
0.20008,-0.24888,0.29768,0.19764,0.0976,0.05124,-0.10736,0.366,0.20496,0.19032,0.18544,0.18056
0.20008,-0.24888,0.29768,0.19764,0.0976,0.05124,-0.10736,0.33672,0.19032,0.1952,0.18056,0.18056
0.19032,-0.23912,0.28792,0.19276,0.0976,0.04636,-0.10736,0.30256,0.17568,0.18544,0.1708,0.18056
0.18544,-0.2318,0.27816,0.18544,0.09272,0.04636,-0.10248,0.26352,0.16104,0.1708,0.16104,0.16592
0.1708,-0.20984,0.24888,0.16348,0.07808,0.04636,-0.09272,0.2196,0.14152,0.15128,0.14152,0.15616
0.1464,-0.18544,0.22448,0.15128,0.07808,0.03416,-0.08296,0.19032,0.13176,0.13176,0.12688,0.14152
0.122,-0.1586,0.1952,0.1342,0.0732,0.0244,-0.0732,0.15128,0.11224,0.10736,0.10736,0.12688
0.08784,-0.12444,0.16104,0.11712,0.0732,0.00732,-0.05368,0.122,0.08784,0.08784,0.08784,0.10736
0.06344,-0.09516,0.12688,0.09516,0.06344,0,-0.04392,0.09272,0.0732,0.06344,0.0732,0.08784
0.02928,-0.06344,0.0976,0.08296,0.06832,-0.01952,-0.0244,0.06832,0.05368,0.04392,0.05368,0.06832
0.00976,-0.03904,0.06832,0.06344,0.05856,-0.0244,-0.01464,0.0488,0.03416,0.01952,0.02928,0.0488
-0.00976,-0.01464,0.03904,0.04392,0.0488,-0.02928,0,0.02928,0.01952,0.00488,0.01464,0.03416
-0.03416,0.01464,0.00488,0.02196,0.03904,-0.0366,0.00976,0.01464,0,-0.01464,-0.00488,0.01952
-0.04392,0.02684,-0.00976,0.0122,0.03416,-0.03904,0.01952,0,-0.00976,-0.03416,-0.01952,0
-0.05368,0.04148,-0.02928,-0.00244,0.0244,-0.03904,0.02928,-0.01464,-0.01952,-0.0488,-0.03904,-0.01464
-0.06832,0.05612,-0.04392,-0.00976,0.0244,-0.04636,0.03904,-0.0244,-0.02928,-0.06344,-0.0488,-0.01952
-0.07808,0.06344,-0.0488,-0.00976,0.02928,-0.05368,0.03904,-0.03416,-0.02928,-0.07808,-0.06344,-0.02928
-0.07808,0.06832,-0.05856,-0.01952,0.01952,-0.0488,0.03904,-0.03416,-0.0488,-0.08296,-0.06832,-0.04392
-0.07808,0.0732,-0.06832,-0.02928,0.00976,-0.04392,0.04392,-0.03904,-0.05368,-0.08784,-0.0732,-0.0488
-0.08296,0.07564,-0.06832,-0.02684,0.01464,-0.0488,0.0488,-0.04392,-0.05368,-0.08784,-0.0732,-0.0488
-0.08296,0.07808,-0.0732,-0.03172,0.00976,-0.04636,0.0488,-0.05368,-0.05856,-0.09272,-0.07808,-0.0488
-0.08784,0.08052,-0.0732,-0.02928,0.01464,-0.05124,0.04392,-0.05856,-0.05856,-0.09272,-0.07808,-0.0488
-0.08784,0.08052,-0.0732,-0.02928,0.01464,-0.05124,0.04392,-0.05856,-0.06344,-0.0976,-0.07808,-0.0488
-0.08784,0.08296,-0.07808,-0.03416,0.00976,-0.0488,0.04392,-0.05856,-0.06832,-0.0976,-0.08296,-0.05368
-0.08784,0.08296,-0.07808,-0.03416,0.00976,-0.0488,0.03904,-0.06344,-0.06832,-0.0976,-0.08296,-0.05368
-0.08784,0.08296,-0.07808,-0.03416,0.00976,-0.0488,0.03904,-0.06344,-0.06832,-0.0976,-0.08784,-0.05368
-0.09272,0.08784,-0.08296,-0.0366,0.00976,-0.05124,0.03904,-0.06344,-0.06832,-0.09272,-0.08784,-0.05856
-0.0976,0.09028,-0.08296,-0.03416,0.01464,-0.05612,0.04392,-0.06344,-0.06344,-0.0976,-0.08784,-0.05856
-0.10248,0.09516,-0.08784,-0.0366,0.01464,-0.05856,0.05368,-0.06344,-0.05856,-0.0976,-0.08784,-0.05856
-0.10248,0.0976,-0.09272,-0.04148,0.00976,-0.05612,0.05368,-0.06344,-0.05856,-0.0976,-0.08784,-0.05368
-0.10248,0.10004,-0.0976,-0.04636,0.00488,-0.05368,0.05368,-0.05856,-0.05856,-0.0976,-0.08784,-0.05368
-0.10248,0.10004,-0.0976,-0.04636,0.00488,-0.05368,0.05368,-0.05368,-0.05856,-0.0976,-0.08784,-0.05856
-0.10248,0.10004,-0.0976,-0.04636,0.00488,-0.05368,0.05368,-0.0488,-0.05856,-0.0976,-0.08784,-0.05856
-0.10248,0.10004,-0.0976,-0.04636,0.00488,-0.05368,0.05368,-0.0488,-0.05856,-0.0976,-0.08784,-0.05368
-0.10248,0.10004,-0.0976,-0.04636,0.00488,-0.05368,0.05368,-0.04392,-0.05368,-0.0976,-0.09272,-0.05368
-0.10248,0.0976,-0.09272,-0.04148,0.00976,-0.05612,0.05368,-0.04392,-0.05368,-0.0976,-0.09272,-0.05368
-0.0976,0.09516,-0.09272,-0.04392,0.00488,-0.05124,0.05368,-0.04392,-0.05368,-0.09272,-0.08784,-0.05368
-0.0976,0.09516,-0.09272,-0.04392,0.00488,-0.05124,0.05368,-0.03904,-0.05368,-0.09272,-0.08296,-0.05368
-0.0976,0.09516,-0.09272,-0.04392,0.00488,-0.05124,0.05368,-0.03904,-0.05368,-0.09272,-0.07808,-0.05368
-0.0976,0.09516,-0.09272,-0.04392,0.00488,-0.05124,0.05368,-0.03904,-0.04392,-0.09272,-0.07808,-0.05368
-0.09272,0.09272,-0.09272,-0.04636,0,-0.04636,0.05368,-0.03904,-0.03904,-0.09272,-0.07808,-0.05856
-0.09272,0.09028,-0.08784,-0.04148,0.00488,-0.0488,0.05368,-0.03904,-0.03904,-0.08784,-0.07808,-0.05856
-0.09272,0.09028,-0.08784,-0.04148,0.00488,-0.0488,0.05368,-0.03904,-0.03904,-0.08784,-0.07808,-0.05856
-0.0976,0.09272,-0.08784,-0.03904,0.00976,-0.05368,0.0488,-0.03904,-0.03904,-0.08784,-0.07808,-0.05856
-0.0976,0.09272,-0.08784,-0.03904,0.00976,-0.05368,0.0488,-0.03904,-0.03904,-0.08784,-0.07808,-0.05856
-0.0976,0.09028,-0.08296,-0.03416,0.01464,-0.05612,0.0488,-0.04392,-0.03904,-0.08296,-0.0732,-0.05368
-0.0976,0.09028,-0.08296,-0.03416,0.01464,-0.05612,0.0488,-0.04392,-0.03904,-0.08296,-0.0732,-0.05368
-0.09272,0.08784,-0.08296,-0.0366,0.00976,-0.05124,0.0488,-0.04392,-0.03416,-0.08296,-0.0732,-0.0488
-0.08784,0.08784,-0.08784,-0.04392,0,-0.04392,0.0488,-0.04392,-0.03416,-0.08296,-0.0732,-0.04392
-0.09272,0.08784,-0.08296,-0.0366,0.00976,-0.05124,0.04392,-0.04392,-0.03416,-0.08296,-0.07808,-0.04392
-0.09272,0.0854,-0.07808,-0.03172,0.01464,-0.05368,0.03904,-0.04392,-0.03416,-0.08296,-0.08296,-0.04392
-0.09272,0.0854,-0.07808,-0.03172,0.01464,-0.05368,0.03904,-0.04392,-0.03416,-0.07808,-0.07808,-0.0488
-0.09272,0.0854,-0.07808,-0.03172,0.01464,-0.05368,0.03904,-0.04392,-0.03416,-0.07808,-0.07808,-0.0488
-0.09272,0.0854,-0.07808,-0.03172,0.01464,-0.05368,0.04392,-0.04392,-0.03416,-0.0732,-0.07808,-0.0488
-0.0976,0.08784,-0.07808,-0.02928,0.01952,-0.05856,0.0488,-0.04392,-0.03416,-0.0732,-0.07808,-0.05368
-0.0976,0.09028,-0.08296,-0.03416,0.01464,-0.05612,0.0488,-0.04392,-0.03416,-0.0732,-0.07808,-0.05368
-0.0976,0.09272,-0.08784,-0.03904,0.00976,-0.05368,0.0488,-0.0488,-0.03416,-0.0732,-0.07808,-0.05368
-0.0976,0.09516,-0.09272,-0.04392,0.00488,-0.05124,0.0488,-0.0488,-0.03416,-0.0732,-0.07808,-0.05368
-0.0976,0.0976,-0.0976,-0.0488,0,-0.0488,0.0488,-0.0488,-0.03904,-0.07808,-0.07808,-0.05856
-0.0976,0.0976,-0.0976,-0.0488,0,-0.0488,0.0488,-0.0488,-0.03904,-0.07808,-0.07808,-0.05856
-0.0976,0.0976,-0.0976,-0.0488,0,-0.0488,0.0488,-0.0488,-0.03904,-0.07808,-0.07808,-0.05856
-0.0976,0.09516,-0.09272,-0.04392,0.00488,-0.05124,0.0488,-0.05368,-0.03904,-0.07808,-0.07808,-0.05856
-0.0976,0.09272,-0.08784,-0.03904,0.00976,-0.05368,0.0488,-0.05856,-0.03904,-0.07808,-0.07808,-0.05856
-0.0976,0.09272,-0.08784,-0.03904,0.00976,-0.05368,0.0488,-0.05856,-0.03904,-0.07808,-0.07808,-0.05368
-0.0976,0.09272,-0.08784,-0.03904,0.00976,-0.05368,0.0488,-0.05856,-0.03904,-0.07808,-0.07808,-0.05368
-0.0976,0.09272,-0.08784,-0.03904,0.00976,-0.05368,0.0488,-0.05856,-0.03904,-0.07808,-0.07808,-0.05368
-0.0976,0.09272,-0.08784,-0.03904,0.00976,-0.05368,0.0488,-0.05856,-0.03904,-0.07808,-0.07808,-0.0488
-0.0976,0.09028,-0.08296,-0.03416,0.01464,-0.05612,0.04392,-0.05368,-0.03416,-0.07808,-0.0732,-0.0488
-0.0976,0.0854,-0.0732,-0.0244,0.0244,-0.061,0.0488,-0.05368,-0.0244,-0.0732,-0.06832,-0.0488
-0.0976,0.08052,-0.06344,-0.01464,0.03416,-0.06588,0.05856,-0.0488,-0.01952,-0.0732,-0.06344,-0.04392
-0.0976,0.0732,-0.0488,0,0.0488,-0.0732,0.06832,-0.03904,-0.01464,-0.06344,-0.05856,-0.03904
-0.0976,0.0732,-0.0488,0,0.0488,-0.0732,0.07808,-0.02928,-0.00976,-0.05856,-0.05368,-0.03416
-0.09272,0.07076,-0.0488,-0.00244,0.04392,-0.06832,0.08784,-0.0244,0,-0.05368,-0.0488,-0.03416
-0.09272,0.06832,-0.04392,0.00244,0.0488,-0.07076,0.0976,-0.01464,0.00488,-0.05368,-0.0488,-0.02928
-0.09272,0.06832,-0.04392,0.00244,0.0488,-0.07076,0.10736,-0.00976,0.00976,-0.05368,-0.04392,-0.02928
-0.08784,0.061,-0.03416,0.00976,0.05368,-0.07076,0.08784,-0.0244,0.00976,-0.0488,-0.0488,-0.03416
-0.08784,0.05368,-0.01952,0.0244,0.06832,-0.07808,0.06832,-0.03904,0.00976,-0.0488,-0.05368,-0.03416
-0.06832,0.04148,-0.01464,0.01952,0.05368,-0.061,0.03416,-0.05856,0.00488,-0.0488,-0.0488,-0.02928
-0.05368,0.03172,-0.00976,0.01708,0.04392,-0.0488,0.00488,-0.06832,0,-0.05368,-0.0488,-0.0244
-0.04392,0.01952,0.00488,0.02684,0.0488,-0.04636,0,-0.06832,0,-0.0488,-0.03904,-0.01952
-0.03904,0.00732,0.0244,0.04392,0.06344,-0.05124,0,-0.06344,0.00488,-0.03904,-0.02928,-0.00976
-0.04392,0.0122,0.01952,0.04148,0.06344,-0.05368,0.00488,-0.06344,0.00976,-0.02928,-0.0244,-0.00488
-0.0488,0.0122,0.0244,0.0488,0.0732,-0.061,0.00488,-0.06344,0.00976,-0.01952,-0.01952,0
-0.0488,0.01952,0.00976,0.03416,0.05856,-0.05368,0.00488,-0.05856,0,-0.03416,-0.0244,-0.00488
-0.0488,0.02684,-0.00488,0.01952,0.04392,-0.04636,0.00488,-0.06344,-0.00976,-0.04392,-0.02928,-0.01464
-0.04392,0.03904,-0.03416,-0.0122,0.00976,-0.02684,-0.00488,-0.0732,-0.03416,-0.05368,-0.03904,-0.0244
-0.03904,0.03904,-0.03904,-0.01952,0,-0.01952,-0.00976,-0.08296,-0.03904,-0.06344,-0.0488,-0.02928
-0.0488,0.05368,-0.05856,-0.03416,-0.00976,-0.01952,-0.00976,-0.08784,-0.0488,-0.0732,-0.05368,-0.03904
-0.05856,0.061,-0.06344,-0.03416,-0.00488,-0.02684,0,-0.09272,-0.0488,-0.0732,-0.05368,-0.03904
-0.07808,0.07076,-0.06344,-0.0244,0.01464,-0.04636,0.00976,-0.08296,-0.04392,-0.0732,-0.05368,-0.03904
-0.09272,0.08296,-0.0732,-0.02684,0.01952,-0.05612,0.0244,-0.07808,-0.03904,-0.0732,-0.05368,-0.04392
-0.10248,0.09516,-0.08784,-0.0366,0.01464,-0.05856,0.02928,-0.07808,-0.03416,-0.0732,-0.06832,-0.05368
-0.11224,0.1098,-0.10736,-0.05124,0.00488,-0.05856,0.02928,-0.07808,-0.03904,-0.08784,-0.0732,-0.06344
