i,aVR,ii,aVF,iii,aVL,V1,V2,V3,V4,V5,V6
-0.03904,0.05856,-0.07808,-0.05856,-0.03904,0,0.01952,-0.01464,-0.03904,-0.07808,-0.0976,0.52216
-0.03416,0.05368,-0.0732,-0.05612,-0.03904,0.00244,0.01464,-0.00976,-0.0488,-0.0732,-0.10736,0.52216
-0.01464,0.03172,-0.0488,-0.04148,-0.03416,0.00976,0.01464,-0.00488,-0.0488,-0.0732,-0.0976,0.55144
-0.01464,0.0244,-0.03416,-0.02684,-0.01952,0.00244,0.00976,-0.01464,-0.04392,-0.08296,-0.08296,0.57096
-0.03904,0.04392,-0.0488,-0.02928,-0.00976,-0.01464,0.00488,-0.00488,-0.03416,-0.06832,-0.07808,0.5612
-0.03904,0.0488,-0.05856,-0.03904,-0.01952,-0.00976,0.00488,-0.01464,-0.03904,-0.06344,-0.07808,0.58072
-0.03904,0.04636,-0.05368,-0.03416,-0.01464,-0.0122,0.00488,-0.00976,-0.02928,-0.05368,-0.06832,0.60024
-0.02928,0.03904,-0.0488,-0.03416,-0.01952,-0.00488,0,-0.00976,-0.03904,-0.05368,-0.06832,0.61
-0.00488,0.02196,-0.03904,-0.0366,-0.03416,0.01464,-0.01464,-0.01952,-0.04392,-0.06344,-0.07808,0.59536
0,0.01708,-0.03416,-0.03416,-0.03416,0.01708,0,-0.00976,-0.03416,-0.05368,-0.0732,0.61
-0.00976,0.01708,-0.0244,-0.01952,-0.01464,0.00244,0.00976,0,-0.00976,-0.03416,-0.05856,0.61488
0.00488,0.00732,-0.01952,-0.02196,-0.0244,0.01464,0.00488,-0.00488,0,-0.02928,-0.04392,0.62464
0.00488,0.00732,-0.01952,-0.02196,-0.0244,0.01464,0.00976,0,-0.00976,-0.0244,-0.03904,0.63928
-0.01464,0.02196,-0.02928,-0.02196,-0.01464,0,-0.00488,-0.00976,-0.01464,-0.01952,-0.02928,0.66368
-0.04392,0.03416,-0.0244,-0.00244,0.01952,-0.03172,-0.00488,0,0,-0.01464,-0.01952,0.67344
-0.05368,0.04392,-0.03416,-0.00732,0.01952,-0.0366,0.00488,0.00976,-0.00488,-0.00976,-0.01464,0.6832
-0.04392,0.03172,-0.01952,0.00244,0.0244,-0.03416,-0.00488,0,-0.00488,-0.00976,-0.01952,0.68808
-0.01952,0.01952,-0.01952,-0.00976,0,-0.00976,0,0.00976,0,-0.01464,-0.00976,0.70272
-0.02928,0.02684,-0.0244,-0.00976,0.00488,-0.01708,0.00488,0.00488,0.00976,-0.00488,-0.01464,0.70272
-0.01952,0.0244,-0.02928,-0.01952,-0.00976,-0.00488,0.00976,0,0.00976,-0.00488,-0.01952,0.7076
-0.0244,0.02684,-0.02928,-0.01708,-0.00488,-0.00976,0.00488,-0.00976,0,-0.00976,-0.01464,0.7076
-0.00976,0.00732,-0.00488,0,0.00488,-0.00732,-0.00488,-0.00976,0.00976,-0.01952,-0.01952,0.72224
-0.01464,0,0.01464,0.02196,0.02928,-0.02196,0,-0.00976,0.00976,-0.00976,-0.01464,0.72712
-0.01952,-0.00732,0.03416,0.04392,0.05368,-0.0366,0.02928,0.00976,0.03416,0.00488,0.00976,0.73688
-0.01952,-0.00732,0.03416,0.04392,0.05368,-0.0366,0.0488,0.03416,0.04392,0.02928,0.01952,0.76128
-0.00488,-0.01708,0.03904,0.04148,0.04392,-0.0244,0.0488,0.0488,0.0488,0.03416,0.01952,0.76616
0.01952,-0.03172,0.04392,0.03416,0.0244,-0.00244,0.04392,0.04392,0.05368,0.02928,0.00976,0.77104
0.01952,-0.04392,0.06832,0.05856,0.0488,-0.01464,0.05856,0.04392,0.05856,0.03904,0.02928,0.79056
0,-0.05368,0.10736,0.10736,0.10736,-0.05368,0.05368,0.03904,0.06832,0.05856,0.0488,0.81984
-0.10736,-0.02684,0.16104,0.21472,0.2684,-0.18788,0.03904,0.02928,0.07808,0.07808,0.06832,0.854
-0.04392,-0.0732,0.19032,0.21228,0.23424,-0.13908,0.03904,0.03416,0.08784,0.0976,0.06832,0.8784
-0.03416,-0.08296,0.20008,0.21716,0.23424,-0.1342,0.03904,0.0244,0.08784,0.0976,0.06832,0.8784
-0.02928,-0.0854,0.20008,0.21472,0.22936,-0.12932,0.00976,-0.00488,0.08296,0.08296,0.07808,0.8784
-0.0244,-0.0854,0.1952,0.2074,0.2196,-0.122,-0.0244,-0.03416,0.05856,0.06832,0.06344,0.8784
-0.01952,-0.09516,0.20984,0.2196,0.22936,-0.12444,-0.0244,-0.03416,0.05856,0.0732,0.06832,0.88816
-0.00976,-0.11224,0.23424,0.23912,0.244,-0.12688,-0.03416,-0.03904,0.05856,0.07808,0.06832,0.89304
-0.01464,-0.11224,0.23912,0.24644,0.25376,-0.1342,-0.0488,-0.06344,0.04392,0.06344,0.05856,0.8784
-0.01464,-0.10004,0.21472,0.22204,0.22936,-0.122,-0.05368,-0.06832,0.03416,0.04392,0.0488,0.854
-0.03904,-0.06832,0.17568,0.1952,0.21472,-0.12688,-0.0488,-0.0732,0.01464,0.03416,0.0244,0.81496
-0.0488,-0.0488,0.1464,0.1708,0.1952,-0.122,-0.05856,-0.06832,-0.00488,0.00976,0.00488,0.7808
-0.0488,-0.0244,0.0976,0.122,0.1464,-0.0976,-0.0488,-0.05856,-0.00488,0,0,0.7808
-0.02928,-0.00244,0.03416,0.0488,0.06344,-0.04636,-0.03416,-0.04392,0,0,0,0.77104
-0.00976,0.00732,-0.00488,0,0.00488,-0.00732,-0.02928,-0.03416,-0.00488,-0.00976,-0.01952,0.7564
0,0.01464,-0.02928,-0.02928,-0.02928,0.01464,-0.02928,-0.03904,-0.02928,-0.02928,-0.03904,0.72712
-0.00488,0.02928,-0.05368,-0.05124,-0.0488,0.02196,-0.02928,-0.04392,-0.05856,-0.0488,-0.06344,0.6832
0,0.02928,-0.05856,-0.05856,-0.05856,0.02928,-0.02928,-0.04392,-0.0732,-0.06832,-0.07808,0.65392
-0.0244,0.04148,-0.05856,-0.04636,-0.03416,0.00488,-0.03416,-0.03416,-0.0732,-0.07808,-0.08296,0.64904
-0.0488,0.05612,-0.06344,-0.03904,-0.01464,-0.01708,-0.02928,-0.03904,-0.06344,-0.06832,-0.0732,0.63928
-0.05856,0.06832,-0.07808,-0.0488,-0.01952,-0.01952,-0.03416,-0.0488,-0.06344,-0.05856,-0.05856,0.62952
-0.02928,0.05368,-0.07808,-0.06344,-0.0488,0.00976,-0.0244,-0.04392,-0.05856,-0.05856,-0.05368,0.63928
-0.0244,0.05368,-0.08296,-0.07076,-0.05856,0.01708,-0.04392,-0.05856,-0.06832,-0.06832,-0.05856,0.61488
-0.01952,0.05124,-0.08296,-0.0732,-0.06344,0.02196,-0.04392,-0.05856,-0.06832,-0.07808,-0.07808,0.60512
-0.02928,0.05856,-0.08784,-0.0732,-0.05856,0.01464,-0.04392,-0.05856,-0.06344,-0.08296,-0.0732,0.59048
-0.0244,0.05612,-0.08784,-0.07564,-0.06344,0.01952,-0.04392,-0.05856,-0.06344,-0.07808,-0.0732,0.5856
-0.00976,0.0488,-0.08784,-0.08296,-0.07808,0.03416,-0.0488,-0.0732,-0.0732,-0.06832,-0.0732,0.56608
0,0.04392,-0.08784,-0.08784,-0.08784,0.04392,-0.0488,-0.07808,-0.08296,-0.07808,-0.07808,0.5612
0.00488,0.04636,-0.0976,-0.10004,-0.10248,0.05368,-0.03904,-0.06832,-0.07808,-0.07808,-0.0732,0.55144
0.00488,0.05124,-0.10736,-0.1098,-0.11224,0.05856,-0.03904,-0.05368,-0.07808,-0.08296,-0.08296,0.55144
-0.0244,0.05612,-0.08784,-0.07564,-0.06344,0.01952,-0.04392,-0.05368,-0.0732,-0.07808,-0.06832,0.54168
-0.0244,0.04148,-0.05856,-0.04636,-0.03416,0.00488,0,-0.01952,-0.03904,-0.0488,-0.05856,0.5368
-0.04392,0.0366,-0.02928,-0.00732,0.01464,-0.02928,0.00976,-0.01464,-0.02928,-0.03904,-0.05856,0.53192
-0.06832,0.08296,-0.0976,-0.06344,-0.02928,-0.01952,0.0244,0.01952,0,-0.01464,-0.0244,0.52704
0.01464,0.01708,-0.0488,-0.05612,-0.06344,0.03904,0.01464,0.02928,0.06832,0.08784,0.07808,0.61
0.04392,-0.01464,-0.01464,-0.0366,-0.05856,0.05124,-0.04392,-0.00976,0.08296,0.18544,0.19032,0.71736
0.0488,-0.04636,0.04392,0.01952,-0.00488,0.02684,-0.10248,-0.03904,0.11224,0.2684,0.30744,0.86376
0.13664,-0.12444,0.11224,0.04392,-0.0244,0.08052,-0.16104,-0.03904,0.20984,0.45384,0.56608,1.09312
0.18544,-0.16592,0.1464,0.05368,-0.03904,0.11224,-0.244,-0.0244,0.3172,0.67832,0.86864,1.37128
0.30256,-0.25864,0.21472,0.06344,-0.08784,0.1952,-0.29768,-0.00976,0.38552,0.81984,1.05408,1.5372
0.3904,-0.305,0.2196,0.0244,-0.1708,0.2806,-0.24888,0.08784,0.42456,0.79544,1.0248,1.49816
0.39528,-0.305,0.21472,0.01708,-0.18056,0.28792,-0.14152,0.1952,0.48312,0.73688,0.93696,1.34688
0.23424,-0.11712,0,-0.11712,-0.23424,0.23424,-0.00976,0.1952,0.33184,0.36112,0.45872,0.81496
0.05368,0.06344,-0.18056,-0.2074,-0.23424,0.14396,0.06832,0.04392,-0.10248,-0.2684,-0.30256,0.0976
-0.03904,0.19276,-0.34648,-0.32696,-0.30744,0.1342,0.12688,0.08784,-0.18544,-0.40504,-0.488,-0.08784
-0.04392,0.19032,-0.33672,-0.31476,-0.2928,0.12444,0.0732,0.05368,-0.19032,-0.41968,-0.488,-0.11712
-0.08296,0.22692,-0.37088,-0.3294,-0.28792,0.10248,0.22936,0.2196,-0.06832,-0.35624,-0.4636,-0.15616
-0.13176,0.25376,-0.37576,-0.30988,-0.244,0.05612,0.3416,0.30744,-0.01464,-0.35624,-0.47824,-0.24888
-0.13664,0.2318,-0.32696,-0.25864,-0.19032,0.02684,0.5124,0.45872,0.05856,-0.3172,-0.46848,-0.27328
-0.244,0.31476,-0.38552,-0.26352,-0.14152,-0.05124,0.6344,0.5368,0.0976,-0.28792,-0.45872,-0.27328
-0.23912,0.26108,-0.28304,-0.16348,-0.04392,-0.0976,0.68808,0.59536,0.14152,-0.244,-0.40016,-0.25376
-0.27816,0.27084,-0.26352,-0.12444,0.01464,-0.1464,0.81496,0.6832,0.20984,-0.18544,-0.35624,-0.23424
-0.23424,0.22692,-0.2196,-0.10248,0.01464,-0.12444,0.976,0.81008,0.2928,-0.11224,-0.2928,-0.1952
-0.244,0.23912,-0.23424,-0.11224,0.00976,-0.12688,1.1224,0.94184,0.3416,-0.0732,-0.244,-0.15616
-0.27816,0.27816,-0.27816,-0.13908,0,-0.13908,1.19072,0.94672,0.30744,-0.08784,-0.22936,-0.17568
-0.244,0.25132,-0.25864,-0.13664,-0.01464,-0.11468,1.25416,0.96624,0.31232,-0.07808,-0.21472,-0.20008
-0.22448,0.27084,-0.3172,-0.20496,-0.09272,-0.06588,1.3908,1.0736,0.38552,-0.00488,-0.1464,-0.1464
-0.2196,0.2318,-0.244,-0.1342,-0.0244,-0.0976,1.49328,1.16144,0.42944,0.01464,-0.13176,-0.13176
-0.20984,0.23424,-0.25864,-0.15372,-0.0488,-0.08052,1.44936,1.12728,0.4392,0.05368,-0.07808,-0.09272
-0.16592,0.20008,-0.23424,-0.15128,-0.06832,-0.0488,1.25416,0.9516,0.366,0.0488,-0.04392,-0.06832
-0.13664,0.16104,-0.18544,-0.11712,-0.0488,-0.04392,0.8052,0.47824,0.11712,-0.0488,-0.10736,-0.08784
-0.13176,0.12444,-0.11712,-0.05124,0.01464,-0.0732,0.35624,0.07808,-0.05368,-0.11224,-0.13664,-0.0976
-0.05368,0.05124,-0.0488,-0.02196,0.00488,-0.02928,0.15616,-0.02928,-0.08784,-0.11712,-0.11712,-0.05856
-0.05368,0.061,-0.06832,-0.04148,-0.01464,-0.01952,0.08784,-0.03904,-0.08296,-0.09272,-0.08784,-0.03416
-0.00976,0.02196,-0.03416,-0.02928,-0.0244,0.00732,-0.02928,-0.0976,-0.12688,-0.0976,-0.0976,-0.0488
0.01464,0,-0.01464,-0.02196,-0.02928,0.02196,-0.10736,-0.14152,-0.1464,-0.10736,-0.10248,-0.0732
0.00976,0.00488,-0.01952,-0.0244,-0.02928,0.01952,-0.13664,-0.15616,-0.15128,-0.10736,-0.0976,-0.05368
0,0.00732,-0.01464,-0.01464,-0.01464,0.00732,-0.12688,-0.1464,-0.13664,-0.09272,-0.08296,-0.04392
-0.00488,0.00976,-0.01464,-0.0122,-0.00976,0.00244,-0.11712,-0.13664,-0.12688,-0.07808,-0.06832,-0.04392
-0.02928,0.02928,-0.02928,-0.01464,0,-0.01464,-0.13176,-0.15128,-0.122,-0.06344,-0.05368,-0.05856
-0.0488,0.04148,-0.03416,-0.00976,0.01464,-0.03172,-0.13664,-0.15616,-0.122,-0.06344,-0.0488,-0.0488
-0.04392,0.0366,-0.02928,-0.00732,0.01464,-0.02928,-0.15128,-0.15616,-0.122,-0.0732,-0.05368,-0.0488
-0.01464,0.01464,-0.01464,-0.00732,0,-0.00732,-0.15128,-0.15616,-0.122,-0.0732,-0.05368,-0.06832
0.00488,0.00732,-0.01952,-0.02196,-0.0244,0.01464,-0.1464,-0.1464,-0.122,-0.05856,-0.05368,-0.08296
0.00976,0.00488,-0.01952,-0.0244,-0.02928,0.01952,-0.15128,-0.15616,-0.11712,-0.05856,-0.0488,-0.0976
0,0.00488,-0.00976,-0.00976,-0.00976,0.00488,-0.15616,-0.16104,-0.11712,-0.05368,-0.04392,-0.10736
0.00488,-0.00244,0,-0.00244,-0.00488,0.00488,-0.16104,-0.16592,-0.11712,-0.06344,-0.03904,-0.11224
0.00976,-0.00976,0.00976,0.00488,0,0.00488,-0.15128,-0.15616,-0.11224,-0.0488,-0.03416,-0.12688
0.01952,-0.01708,0.01464,0.00488,-0.00488,0.0122,-0.15616,-0.15616,-0.11224,-0.0488,-0.02928,-0.122
0.03904,-0.0244,0.00976,-0.00976,-0.02928,0.03416,-0.1708,-0.16104,-0.11224,-0.05368,-0.03904,-0.11712
0.0488,-0.02684,0.00488,-0.01952,-0.04392,0.04636,-0.1952,-0.17568,-0.13176,-0.06344,-0.0488,-0.14152
0.0732,-0.04392,0.01464,-0.02196,-0.05856,0.06588,-0.20008,-0.18056,-0.11712,-0.05368,-0.02928,-0.1464
0.08296,-0.05124,0.01952,-0.02196,-0.06344,0.0732,-0.20984,-0.18056,-0.11712,-0.0488,-0.02928,-0.1464
0.05368,-0.04148,0.02928,0.00244,-0.0244,0.03904,-0.20496,-0.17568,-0.09272,-0.01952,0.00488,-0.14152
0.01952,-0.02928,0.03904,0.02928,0.01952,0,-0.20008,-0.1708,-0.08296,-0.00488,0.02928,-0.10736
0.00976,-0.0244,0.03904,0.03416,0.02928,-0.00976,-0.2196,-0.18056,-0.08784,0.00488,0.03416,-0.10736
0.01952,-0.0366,0.05368,0.04392,0.03416,-0.00732,-0.22936,-0.1952,-0.09272,0,0.04392,-0.10736
0.04392,-0.05124,0.05856,0.0366,0.01464,0.01464,-0.244,-0.20496,-0.08784,0.00976,0.05856,-0.0976
0.05368,-0.061,0.06832,0.04148,0.01464,0.01952,-0.25376,-0.20008,-0.07808,0.0244,0.08784,-0.07808
0.05856,-0.07076,0.08296,0.05368,0.0244,0.01708,-0.26352,-0.20496,-0.08296,0.03416,0.10248,-0.06832
0.06344,-0.07808,0.09272,0.061,0.02928,0.01708,-0.28304,-0.20984,-0.0732,0.0488,0.11224,-0.06344
0.08296,-0.09516,0.10736,0.06588,0.0244,0.02928,-0.30744,-0.22936,-0.09272,0.04392,0.11712,-0.0732
0.11712,-0.122,0.12688,0.06832,0.00976,0.05368,-0.32696,-0.25864,-0.0976,0.05368,0.122,-0.04392
0.122,-0.12444,0.12688,0.06588,0.00488,0.05856,-0.33184,-0.26352,-0.0976,0.05856,0.13176,-0.0244
0.12688,-0.12444,0.122,0.05856,-0.00488,0.06588,-0.3416,-0.26352,-0.08784,0.06832,0.16104,-0.02928
0.14152,-0.13664,0.13176,0.061,-0.00976,0.07564,-0.37088,-0.28792,-0.10248,0.06832,0.16104,-0.04392
0.15128,-0.1586,0.16592,0.09028,0.01464,0.06832,-0.3904,-0.31232,-0.122,0.05368,0.14152,-0.03416
0.15616,-0.16592,0.17568,0.0976,0.01952,0.06832,-0.40016,-0.3172,-0.11712,0.05856,0.14152,-0.0244
0.15616,-0.15616,0.15616,0.07808,0,0.07808,-0.41968,-0.3172,-0.122,0.05856,0.15616,-0.01952
0.14152,-0.15372,0.16592,0.09516,0.0244,0.05856,-0.42944,-0.32208,-0.12688,0.05856,0.15616,-0.02928
0.12688,-0.14884,0.1708,0.10736,0.04392,0.04148,-0.43432,-0.33672,-0.14152,0.0488,0.15128,-0.02928
0.13176,-0.1464,0.16104,0.09516,0.02928,0.05124,-0.44896,-0.35624,-0.15616,0.02928,0.13176,-0.03904
0.13664,-0.14884,0.16104,0.09272,0.0244,0.05612,-0.44896,-0.35624,-0.15616,0.02928,0.13176,-0.03904
0.13176,-0.14396,0.15616,0.09028,0.0244,0.05368,-0.44896,-0.35136,-0.15128,0.03416,0.13176,-0.03904
0.13176,-0.14396,0.15616,0.09028,0.0244,0.05368,-0.42456,-0.33184,-0.15128,0.0244,0.13176,-0.0488
0.13176,-0.1342,0.13664,0.07076,0.00488,0.06344,-0.41968,-0.33672,-0.15128,0.01464,0.11224,-0.06344
0.13176,-0.12932,0.12688,0.061,-0.00488,0.06832,-0.40016,-0.3172,-0.14152,0.00976,0.10248,-0.08784
0.122,-0.12932,0.13664,0.07564,0.01464,0.05368,-0.3904,-0.30744,-0.14152,-0.00976,0.08784,-0.0976
0.10736,-0.11712,0.12688,0.0732,0.01952,0.04392,-0.37088,-0.30256,-0.15128,-0.01952,0.0732,-0.11712
0.08784,-0.10248,0.11712,0.0732,0.02928,0.02928,-0.34648,-0.2928,-0.14152,-0.01464,0.06344,-0.13664
0.07808,-0.0976,0.11712,0.07808,0.03904,0.01952,-0.31232,-0.25376,-0.122,-0.01464,0.05856,-0.1464
0.06344,-0.08052,0.0976,0.06588,0.03416,0.01464,-0.28304,-0.21472,-0.11712,-0.00488,0.0488,-0.17568
0.0488,-0.07076,0.09272,0.06832,0.04392,0.00244,-0.25864,-0.20984,-0.10736,-0.00488,0.03416,-0.20008
0.0488,-0.05856,0.06832,0.04392,0.01952,0.01464,-0.244,-0.19032,-0.08784,-0.01464,0.01952,-0.2196
0.05368,-0.05368,0.05368,0.02684,0,0.02684,-0.21472,-0.1708,-0.07808,-0.01952,0.01464,-0.23424
0.03904,-0.03904,0.03904,0.01952,0,0.01952,-0.18544,-0.13176,-0.05856,-0.01952,0.01464,-0.22936
0.03416,-0.0366,0.03904,0.02196,0.00488,0.01464,-0.14152,-0.10248,-0.04392,-0.01464,0,-0.25864
0.00488,-0.01952,0.03416,0.03172,0.02928,-0.0122,-0.11712,-0.08296,-0.0244,-0.00488,-0.00976,-0.26352
-0.0244,-0.00488,0.03416,0.04636,0.05856,-0.04148,-0.09272,-0.06344,-0.01464,0.00976,0,-0.25376
-0.03416,0.00488,0.0244,0.04148,0.05856,-0.04636,-0.08784,-0.05368,-0.01464,0.00488,-0.00488,-0.27328
-0.02928,0.01464,0,0.01464,0.02928,-0.02928,-0.06344,-0.0488,-0.00976,-0.00976,-0.00976,-0.27816
-0.00976,0.00976,-0.00976,-0.00488,0,-0.00488,-0.03416,-0.03416,-0.01952,-0.01952,-0.03416,-0.28792
0,0.00976,-0.01952,-0.01952,-0.01952,0.00976,-0.02928,-0.02928,-0.01952,-0.0244,-0.03416,-0.31232
0,0.00976,-0.01952,-0.01952,-0.01952,0.00976,-0.03904,-0.0244,-0.01952,-0.03416,-0.02928,-0.3172
-0.01464,0.0122,-0.00976,-0.00244,0.00488,-0.00976,-0.03416,-0.01952,-0.01952,-0.03904,-0.03904,-0.31232
-0.0244,0.01708,-0.00976,0.00244,0.01464,-0.01952,-0.01464,-0.00976,-0.0244,-0.03904,-0.04392,-0.32208
-0.0244,0.0244,-0.0244,-0.0122,0,-0.0122,-0.01464,-0.01952,-0.0244,-0.04392,-0.04392,-0.32208
-0.03416,0.03416,-0.03416,-0.01708,0,-0.01708,-0.01952,-0.03416,-0.03416,-0.04392,-0.06832,-0.33184
-0.0244,0.02928,-0.03416,-0.02196,-0.00976,-0.00732,-0.02928,-0.03416,-0.04392,-0.06344,-0.07808,-0.35136
-0.00976,0.01708,-0.0244,-0.01952,-0.01464,0.00244,-0.01952,-0.03416,-0.05368,-0.06344,-0.07808,-0.35136
-0.01952,0.01952,-0.01952,-0.00976,0,-0.00976,-0.01464,-0.02928,-0.05368,-0.06344,-0.07808,-0.35136
-0.03416,0.0244,-0.01464,0.00244,0.01952,-0.02684,-0.01464,-0.02928,-0.05368,-0.05856,-0.06832,-0.34648
-0.03416,0.02684,-0.01952,-0.00244,0.01464,-0.0244,-0.00488,-0.01952,-0.04392,-0.06344,-0.06832,-0.35136
-0.03904,0.02684,-0.01464,0.00488,0.0244,-0.03172,-0.00488,-0.01952,-0.05368,-0.0732,-0.08784,-0.36112
-0.03416,0.02684,-0.01952,-0.00244,0.01464,-0.0244,-0.0244,-0.03904,-0.06344,-0.07808,-0.0976,-0.35624
-0.0244,0.02196,-0.01952,-0.00732,0.00488,-0.01464,-0.01952,-0.03416,-0.05856,-0.06832,-0.09272,-0.34648
-0.03416,0.02928,-0.0244,-0.00732,0.00976,-0.02196,-0.00488,-0.01952,-0.04392,-0.06832,-0.08296,-0.34648
-0.04392,0.03416,-0.0244,-0.00244,0.01952,-0.03172,-0.00488,-0.01952,-0.03904,-0.06344,-0.08784,-0.35136
-0.04392,0.03172,-0.01952,0.00244,0.0244,-0.03416,-0.00488,-0.01464,-0.03904,-0.06344,-0.07808,-0.33184
-0.01952,0.01952,-0.01952,-0.00976,0,-0.00976,-0.01464,-0.01464,-0.04392,-0.06344,-0.0732,-0.33672
-0.01464,0.01952,-0.0244,-0.01708,-0.00976,-0.00244,-0.00976,-0.00488,-0.03416,-0.0488,-0.06832,-0.34648
-0.01952,0.02196,-0.0244,-0.01464,-0.00488,-0.00732,-0.00488,-0.00488,-0.02928,-0.05368,-0.06832,-0.32696
-0.01952,0.01464,-0.00976,0,0.00976,-0.01464,-0.00488,0,-0.01952,-0.04392,-0.05856,-0.30744
-0.02928,0.0244,-0.01952,-0.00488,0.00976,-0.01952,-0.00976,0,-0.0244,-0.02928,-0.04392,-0.29768
-0.0244,0.01708,-0.00976,0.00244,0.01464,-0.01952,-0.0244,-0.00976,-0.01952,-0.02928,-0.04392,-0.2928
-0.01464,0.00732,0,0.00732,0.01464,-0.01464,-0.00488,-0.00976,-0.00976,-0.00976,-0.03416,-0.2684
-0.01464,-0.00244,0.01952,0.02684,0.03416,-0.0244,-0.00488,0,0.00488,0,-0.01952,-0.26352
-0.01464,-0.00976,0.03416,0.04148,0.0488,-0.03172,0,0.00976,0.01952,0.01952,0,-0.25376
-0.03416,-0.00488,0.04392,0.061,0.07808,-0.05612,0.01464,0.0244,0.02928,0.0244,0.01464,-0.23912
-0.03904,0.00244,0.03416,0.05368,0.0732,-0.05612,0.00976,0.00976,0.02928,0.02928,0.00976,-0.2196
-0.01952,-0.00488,0.02928,0.03904,0.0488,-0.03416,0,0.01952,0.03416,0.03416,0.01952,-0.2196
-0.00976,0,0.00976,0.01464,0.01952,-0.01464,-0.00488,0.00976,0.0244,0.02928,0.01464,-0.22936
0.00976,-0.0122,0.01464,0.00976,0.00488,0.00244,-0.01464,0,0.0244,0.02928,0.00976,-0.23424
0.02928,-0.01952,0.00976,-0.00488,-0.01952,0.0244,-0.01464,0,0.0244,0.01952,0,-0.22936
0.01952,-0.0122,0.00488,-0.00488,-0.01464,0.01708,-0.01952,-0.00488,0.0244,0.01952,-0.00488,-0.23912
0.00976,-0.0122,0.01464,0.00976,0.00488,0.00244,-0.0244,-0.00488,0.0244,0.00976,0,-0.23912
0.00488,-0.01464,0.0244,0.02196,0.01952,-0.00732,-0.01952,-0.00488,0.0244,0.01464,0.00488,-0.23912
0.00976,-0.02928,0.0488,0.04392,0.03904,-0.01464,-0.0244,-0.00976,0.0244,0.01952,0,-0.23424
0.00488,-0.03172,0.05856,0.05612,0.05368,-0.0244,-0.01952,-0.00976,0.01464,0.02928,0.00488,-0.22936
-0.00976,-0.03172,0.0732,0.07808,0.08296,-0.04636,0,0.01464,0.03904,0.0488,0.02928,-0.2196
-0.02928,-0.02196,0.0732,0.08784,0.10248,-0.06588,0.01952,0.02928,0.05856,0.06344,0.03904,-0.1952
-0.03904,-0.0244,0.08784,0.10736,0.12688,-0.08296,0.04392,0.04392,0.07808,0.06832,0.05368,-0.1952
-0.04392,-0.03416,0.11224,0.1342,0.15616,-0.10004,0.0488,0.0488,0.08296,0.0732,0.05368,-0.18056
-0.02928,-0.04392,0.11712,0.13176,0.1464,-0.08784,0.06344,0.05368,0.08296,0.0732,0.05368,-0.18056
-0.00976,-0.06344,0.13664,0.14152,0.1464,-0.07808,0.0488,0.0488,0.08296,0.08296,0.06344,-0.18056
0,-0.07564,0.15128,0.15128,0.15128,-0.07564,0.0488,0.0488,0.08784,0.08784,0.05856,-0.18056
-0.02928,-0.06344,0.15616,0.1708,0.18544,-0.10736,0.03904,0.03904,0.0976,0.10736,0.08784,-0.15616
-0.01952,-0.08296,0.18544,0.1952,0.20496,-0.11224,0.01952,0.01952,0.08784,0.0976,0.07808,-0.16592
-0.01952,-0.09272,0.20496,0.21472,0.22448,-0.122,0.00976,0,0.07808,0.08784,0.06832,-0.17568
-0.0244,-0.0854,0.1952,0.2074,0.2196,-0.122,-0.02928,-0.02928,0.06344,0.07808,0.05368,-0.17568
-0.01464,-0.09516,0.20496,0.21228,0.2196,-0.11712,-0.0488,-0.0488,0.0488,0.0732,0.04392,-0.17568
-0.01464,-0.1098,0.23424,0.24156,0.24888,-0.13176,-0.05368,-0.05856,0.0488,0.07808,0.05856,-0.18056
-0.01464,-0.12688,0.2684,0.27572,0.28304,-0.14884,-0.06832,-0.06344,0.04392,0.0732,0.05856,-0.18056
-0.01464,-0.12932,0.27328,0.2806,0.28792,-0.15128,-0.06344,-0.06832,0.03904,0.06344,0.05368,-0.18544
-0.0244,-0.10492,0.23424,0.24644,0.25864,-0.14152,-0.05856,-0.05368,0.0244,0.05368,0.03904,-0.20496
-0.01464,-0.08296,0.18056,0.18788,0.1952,-0.10492,-0.07808,-0.08296,-0.00488,0.02928,0.01464,-0.22448
-0.00488,-0.05856,0.122,0.12444,0.12688,-0.06588,-0.06832,-0.08784,-0.01464,0.00976,0,-0.24888
-0.00488,-0.03904,0.08296,0.0854,0.08784,-0.04636,-0.05368,-0.06832,-0.01464,0,0,-0.24888
-0.00488,-0.02196,0.0488,0.05124,0.05368,-0.02928,-0.03904,-0.04392,-0.00976,0,0,-0.25864
0.01464,-0.0244,0.03416,0.02684,0.01952,-0.00244,-0.03904,-0.04392,-0.01952,-0.00976,-0.01952,-0.27328
0.0244,-0.00976,-0.00488,-0.01708,-0.02928,0.02684,-0.03416,-0.04392,-0.0244,-0.01464,-0.02928,-0.2928
-0.00976,0.00732,-0.00488,0,0.00488,-0.00732,-0.02928,-0.03904,-0.03904,-0.03904,-0.03416,-0.30744
-0.04392,0.02928,-0.01464,0.00732,0.02928,-0.0366,-0.03416,-0.03416,-0.03416,-0.02928,-0.03416,-0.30744
-0.03416,0.03416,-0.03416,-0.01708,0,-0.01708,-0.05368,-0.05856,-0.06344,-0.05368,-0.05856,-0.34648
-0.03904,0.03904,-0.03904,-0.01952,0,-0.01952,-0.05368,-0.06832,-0.0732,-0.06344,-0.06832,-0.35624
-0.02928,0.04392,-0.05856,-0.04392,-0.02928,0,-0.0488,-0.05368,-0.06832,-0.05856,-0.06344,-0.3416
-0.02928,0.05124,-0.0732,-0.05856,-0.04392,0.00732,-0.04392,-0.05368,-0.06832,-0.05856,-0.06344,-0.33672
-0.04392,0.0488,-0.05368,-0.03172,-0.00976,-0.01708,-0.04392,-0.0488,-0.05856,-0.0488,-0.05856,-0.33672
-0.02928,0.03172,-0.03416,-0.01952,-0.00488,-0.0122,-0.03416,-0.0488,-0.05368,-0.05368,-0.05368,-0.33184
-0.02928,0.03904,-0.0488,-0.03416,-0.01952,-0.00488,-0.03416,-0.03904,-0.05368,-0.05856,-0.06344,-0.33672
-0.01464,0.03172,-0.0488,-0.04148,-0.03416,0.00976,-0.03416,-0.03904,-0.05368,-0.05856,-0.06344,-0.3416
-0.01464,0.02684,-0.03904,-0.03172,-0.0244,0.00488,-0.0488,-0.05368,-0.06832,-0.07808,-0.07808,-0.35624
-0.01464,0.02928,-0.04392,-0.0366,-0.02928,0.00732,-0.0488,-0.06344,-0.07808,-0.07808,-0.08296,-0.35624
-0.0244,0.03904,-0.05368,-0.04148,-0.02928,0.00244,-0.0488,-0.06832,-0.07808,-0.06832,-0.0732,-0.35624
-0.0244,0.04636,-0.06832,-0.05612,-0.04392,0.00976,-0.0488,-0.06832,-0.0732,-0.0732,-0.0732,-0.35624
-0.01464,0.0366,-0.05856,-0.05124,-0.04392,0.01464,-0.05368,-0.05368,-0.06344,-0.05856,-0.06832,-0.36112
-0.0244,0.0122,0,0.0122,0.0244,-0.0244,-0.03416,-0.05368,-0.05856,-0.06832,-0.07808,-0.37088
-0.01464,0.02196,-0.02928,-0.02196,-0.01464,0,-0.01952,-0.03904,-0.04392,-0.0488,-0.06344,-0.36112
-0.03416,0.0244,-0.01464,0.00244,0.01952,-0.02684,0.01464,0,0.0244,0.0244,-0.00488,-0.3172
0.0244,-0.01464,0.00488,-0.00732,-0.01952,0.02196,0.00488,0.04392,0.11224,0.16592,0.1464,-0.1708
0.03904,-0.03416,0.02928,0.00976,-0.00976,0.0244,-0.05856,0.00976,0.10736,0.22448,0.25864,-0.05368
0.08296,-0.07564,0.06832,0.02684,-0.01464,0.0488,-0.14152,-0.06832,0.12688,0.30256,0.36112,0.08784
0.15616,-0.14396,0.13176,0.05368,-0.0244,0.09028,-0.20008,-0.04392,0.24888,0.50752,0.64416,0.38064
0.27328,-0.22448,0.17568,0.03904,-0.0976,0.18544,-0.24888,-0.01464,0.35136,0.72712,0.93696,0.6588
0.37576,-0.305,0.23424,0.04636,-0.14152,0.25864,-0.28304,0.01464,0.39528,0.81008,1.05408,0.78568
0.41968,-0.33428,0.24888,0.03904,-0.1708,0.29524,-0.20496,0.15616,0.47336,0.8052,1.0248,0.7564
0.38552,-0.26596,0.1464,-0.04636,-0.23912,0.31232,-0.0732,0.25864,0.50264,0.66368,0.83448,0.52216
0.22448,-0.10736,-0.00976,-0.122,-0.23424,0.22936,0.0244,0.20496,0.244,0.20008,0.24888,-0.09272
0,0.1098,-0.2196,-0.2196,-0.2196,0.1098,0.10248,0.08296,-0.122,-0.32696,-0.3904,-0.67344
-0.0488,0.17812,-0.30744,-0.28304,-0.25864,0.10492,0.13664,0.10736,-0.15616,-0.38064,-0.45384,-0.75152
-0.06344,0.183,-0.30256,-0.27084,-0.23912,0.08784,0.15128,0.122,-0.12688,-0.38064,-0.47336,-0.76616
-0.0732,0.20252,-0.33184,-0.29524,-0.25864,0.09272,0.24888,0.244,-0.05368,-0.35624,-0.46848,-0.8296
-0.11224,0.22448,-0.33672,-0.2806,-0.22448,0.05612,0.41968,0.40992,0.0488,-0.30744,-0.45384,-0.84912
-0.18056,0.24888,-0.3172,-0.22692,-0.13664,-0.02196,0.57584,0.5368,0.0976,-0.28304,-0.45872,-0.86864
-0.24888,0.31232,-0.37576,-0.25132,-0.12688,-0.061,0.71736,0.61976,0.1708,-0.22936,-0.4148,-0.81496
-0.22448,0.25864,-0.2928,-0.18056,-0.06832,-0.07808,0.7564,0.6588,0.19032,-0.2196,-0.3904,-0.81008
-0.22448,0.2318,-0.23912,-0.12688,-0.01464,-0.10492,0.89792,0.78568,0.26352,-0.1464,-0.3416,-0.77104
-0.27328,0.25132,-0.22936,-0.09272,0.04392,-0.1586,1.07848,0.93208,0.34648,-0.06832,-0.25376,-0.69296
-0.25376,0.24644,-0.23912,-0.11224,0.01464,-0.1342,1.23464,1.06384,0.41968,-0.0244,-0.20008,-0.6344
-0.25864,0.25864,-0.25864,-0.12932,0,-0.12932,1.23952,0.99552,0.33672,-0.06832,-0.2196,-0.6344
-0.21472,0.24156,-0.2684,-0.16104,-0.05368,-0.08052,1.33224,1.08336,0.37088,-0.03416,-0.1952,-0.62952
-0.26352,0.27572,-0.28792,-0.15616,-0.0244,-0.11956,1.464,1.18096,0.42944,0.03904,-0.13664,-0.55632
-0.27816,0.2684,-0.25864,-0.11956,0.01952,-0.14884,1.56648,1.26392,0.49776,0.08296,-0.0732,-0.50752
-0.18544,0.19032,-0.1952,-0.10248,-0.00976,-0.08784,1.43472,1.12728,0.45384,0.08784,-0.0488,-0.47824
-0.14152,0.16104,-0.18056,-0.1098,-0.03904,-0.05124,1.09312,0.81984,0.28304,0.0244,-0.07808,-0.47824
-0.11712,0.11956,-0.122,-0.06344,-0.00488,-0.05612,0.59048,0.33672,0.05856,-0.05856,-0.11712,-0.46848
-0.08784,0.09028,-0.09272,-0.0488,-0.00488,-0.04148,0.25864,0.02928,-0.06344,-0.0976,-0.12688,-0.4636
-0.10248,0.10004,-0.0976,-0.04636,0.00488,-0.05368,0.13176,-0.01952,-0.07808,-0.08296,-0.11224,-0.43432
-0.05856,0.04148,-0.0244,0.00488,0.03416,-0.04636,0.0488,-0.0488,-0.09272,-0.08296,-0.07808,-0.38552
-0.04392,0.0366,-0.02928,-0.00732,0.01464,-0.02928,-0.04392,-0.10248,-0.11712,-0.08296,-0.08784,-0.40016
-0.02928,0.03416,-0.03904,-0.0244,-0.00976,-0.00976,-0.07808,-0.12688,-0.11224,-0.06832,-0.06832,-0.39528
-0.0244,0.02928,-0.03416,-0.02196,-0.00976,-0.00732,-0.09272,-0.12688,-0.11224,-0.06832,-0.06832,-0.38552
-0.00488,0.0244,-0.04392,-0.04148,-0.03904,0.01708,-0.10248,-0.14152,-0.13176,-0.08296,-0.07808,-0.39528
0.00976,0.02196,-0.05368,-0.05856,-0.06344,0.0366,-0.11712,-0.1464,-0.14152,-0.09272,-0.08296,-0.40016
-0.00976,0.02196,-0.03416,-0.02928,-0.0244,0.00732,-0.12688,-0.15616,-0.13176,-0.08296,-0.07808,-0.40504
-0.01952,0.01708,-0.01464,-0.00488,0.00488,-0.0122,-0.13176,-0.15616,-0.13176,-0.08296,-0.0732,-0.39528
-0.01464,0.01952,-0.0244,-0.01708,-0.00976,-0.00244,-0.14152,-0.15616,-0.13176,-0.08296,-0.08296,-0.3904
-0.01464,0.01708,-0.01952,-0.0122,-0.00488,-0.00488,-0.14152,-0.15616,-0.13176,-0.07808,-0.08296,-0.3904
0.01952,0,-0.01952,-0.02928,-0.03904,0.02928,-0.16104,-0.16592,-0.13664,-0.08784,-0.08296,-0.39528
0.03904,-0.01464,-0.00976,-0.02928,-0.0488,0.04392,-0.16592,-0.16104,-0.13664,-0.07808,-0.07808,-0.39528
0.03416,-0.01464,-0.00488,-0.02196,-0.03904,0.0366,-0.15616,-0.16592,-0.12688,-0.06832,-0.05856,-0.38552
0.0244,-0.00976,-0.00488,-0.01708,-0.02928,0.02684,-0.15128,-0.16592,-0.11712,-0.06832,-0.05856,-0.37088
0.00488,0,-0.00488,-0.00732,-0.00976,0.00732,-0.15616,-0.15128,-0.10248,-0.0488,-0.03904,-0.35136
-0.01464,0.00976,-0.00488,0.00244,0.00976,-0.0122,-0.15616,-0.15128,-0.0976,-0.0488,-0.02928,-0.33184
0.00488,0.00244,-0.00976,-0.0122,-0.01464,0.00976,-0.16592,-0.15616,-0.10736,-0.03904,-0.03416,-0.33184
0.01952,0,-0.01952,-0.02928,-0.03904,0.02928,-0.1708,-0.16104,-0.10736,-0.03416,-0.0244,-0.32696
0.01952,-0.00732,-0.00488,-0.01464,-0.0244,0.02196,-0.18544,-0.1708,-0.11712,-0.03416,-0.02928,-0.32696
0.01952,-0.01464,0.00976,0,-0.00976,0.01464,-0.19032,-0.1708,-0.11224,-0.03904,-0.02928,-0.3172
0.01464,-0.01952,0.0244,0.01708,0.00976,0.00244,-0.18056,-0.16592,-0.0976,-0.0244,-0.00488,-0.2928
-0.00488,-0.01708,0.03904,0.04148,0.04392,-0.0244,-0.19032,-0.16592,-0.09272,-0.01464,0.00976,-0.2684
0.0244,-0.02684,0.02928,0.01708,0.00488,0.00976,-0.20984,-0.16592,-0.09272,-0.00976,0.00976,-0.25376
0.05368,-0.04636,0.03904,0.0122,-0.01464,0.03416,-0.2196,-0.17568,-0.08784,-0.00488,0.01952,-0.23424
0.06344,-0.05856,0.05368,0.02196,-0.00976,0.0366,-0.23912,-0.19032,-0.08784,0,0.0244,-0.21472
0.0732,-0.0732,0.0732,0.0366,0,0.0366,-0.26352,-0.20984,-0.10248,0.00976,0.0488,-0.19032
0.06832,-0.0732,0.07808,0.04392,0.00976,0.02928,-0.2684,-0.20496,-0.08296,0.03416,0.06832,-0.15616
0.07808,-0.08052,0.08296,0.04392,0.00488,0.0366,-0.27816,-0.2196,-0.07808,0.03904,0.08784,-0.13664
0.10736,-0.10248,0.0976,0.04392,-0.00976,0.05856,-0.30256,-0.23424,-0.08784,0.0488,0.09272,-0.11224
0.10248,-0.10248,0.10248,0.05124,0,0.05124,-0.3172,-0.24888,-0.09272,0.05368,0.10248,-0.09272
0.0976,-0.10004,0.10248,0.05368,0.00488,0.04636,-0.32208,-0.244,-0.08296,0.06344,0.12688,-0.05856
0.0976,-0.10492,0.11224,0.06344,0.01464,0.04148,-0.33672,-0.244,-0.08296,0.0732,0.1464,-0.04392
0.10736,-0.11224,0.11712,0.06344,0.00976,0.0488,-0.36112,-0.27328,-0.11224,0.06832,0.13664,-0.03416
0.11712,-0.12444,0.13176,0.0732,0.01464,0.05124,-0.38064,-0.28792,-0.11224,0.06832,0.13664,-0.00488
0.11712,-0.11956,0.122,0.06344,0.00488,0.05612,-0.38552,-0.29768,-0.12688,0.05856,0.13664,-0.00488
0.11712,-0.11956,0.122,0.06344,0.00488,0.05612,-0.40016,-0.30744,-0.13176,0.0488,0.1464,0
0.11224,-0.11712,0.122,0.06588,0.00976,0.05124,-0.40992,-0.3172,-0.13176,0.05368,0.13176,0.00976
0.10736,-0.1098,0.11224,0.05856,0.00488,0.05124,-0.41968,-0.33184,-0.14152,0.03904,0.12688,0.00488
0.12688,-0.12444,0.122,0.05856,-0.00488,0.06588,-0.42944,-0.33672,-0.1464,0.03904,0.122,0.00976
0.122,-0.12688,0.13176,0.07076,0.00976,0.05612,-0.43432,-0.33672,-0.15128,0.03904,0.122,0.00976
0.11224,-0.11956,0.12688,0.07076,0.01464,0.0488,-0.4148,-0.33672,-0.15128,0.03416,0.122,0.01464
0.0976,-0.11224,0.12688,0.07808,0.02928,0.03416,-0.40504,-0.32696,-0.15128,0.0244,0.11712,0.00976
0.10736,-0.10736,0.10736,0.05368,0,0.05368,-0.40016,-0.31232,-0.16104,0.00976,0.09272,0.00488
0.09272,-0.09516,0.0976,0.05124,0.00488,0.04392,-0.38064,-0.29768,-0.1464,0.00976,0.08296,0.00488
0.08296,-0.09272,0.10248,0.061,0.01952,0.03172,-0.35624,-0.28304,-0.15616,-0.00976,0.06344,-0.01952
0.07808,-0.08296,0.08784,0.0488,0.00976,0.03416,-0.3416,-0.28792,-0.15128,-0.01952,0.03416,-0.05856
0.08296,-0.07808,0.0732,0.03172,-0.00976,0.04636,-0.32208,-0.27328,-0.15616,-0.01952,0.02928,-0.05856
0.06832,-0.06344,0.05856,0.0244,-0.00976,0.03904,-0.2928,-0.24888,-0.14152,-0.01952,0.03416,-0.05368
0.03904,-0.04148,0.04392,0.0244,0.00488,0.01708,-0.27328,-0.21472,-0.122,-0.01464,0.02928,-0.05856
0.00976,-0.02928,0.0488,0.04392,0.03904,-0.01464,-0.244,-0.1952,-0.10248,-0.01952,0.01952,-0.0732
0.00976,-0.02196,0.03416,0.02928,0.0244,-0.00732,-0.20496,-0.1708,-0.09272,-0.01464,0.00976,-0.07808
0.01464,-0.01708,0.01952,0.0122,0.00488,0.00488,-0.18056,-0.14152,-0.08296,-0.01464,-0.00488,-0.09272
0.01464,-0.01708,0.01952,0.0122,0.00488,0.00488,-0.1464,-0.11712,-0.06832,-0.01464,-0.00488,-0.09272
0.01952,-0.01464,0.00976,0,-0.00976,0.01464,-0.11712,-0.0976,-0.05368,-0.0244,-0.0244,-0.11712
-0.00488,0.00244,0,0.00244,0.00488,-0.00488,-0.07808,-0.0732,-0.03904,-0.01952,-0.02928,-0.11712
-0.0244,0.0122,0,0.0122,0.0244,-0.0244,-0.06344,-0.05368,-0.03416,-0.00976,-0.01952,-0.122
-0.01464,0.01464,-0.01464,-0.00732,0,-0.00732,-0.05368,-0.04392,-0.02928,-0.01952,-0.04392,-0.12688
-0.00488,0.01464,-0.0244,-0.02196,-0.01952,0.00732,-0.04392,-0.0244,-0.02928,-0.03416,-0.05856,-0.13176
-0.01464,0.01708,-0.01952,-0.0122,-0.00488,-0.00488,-0.0244,-0.00976,-0.02928,-0.03416,-0.06344,-0.1464
-0.01464,0.02196,-0.02928,-0.02196,-0.01464,0,-0.01952,-0.01464,-0.02928,-0.03904,-0.05856,-0.15128
-0.00976,0.02684,-0.04392,-0.03904,-0.03416,0.0122,-0.00488,-0.00976,-0.01952,-0.0488,-0.05856,-0.13664
-0.00976,0.03172,-0.05368,-0.0488,-0.04392,0.01708,-0.00488,-0.00976,-0.03416,-0.0488,-0.0732,-0.13664
-0.03416,0.04636,-0.05856,-0.04148,-0.0244,-0.00488,0.00488,0,-0.0244,-0.03904,-0.0732,-0.12688
-0.03416,0.0488,-0.06344,-0.04636,-0.02928,-0.00244,0.00488,-0.00488,-0.03416,-0.04392,-0.08296,-0.1464
-0.0244,0.04392,-0.06344,-0.05124,-0.03904,0.00732,-0.00488,-0.01464,-0.05368,-0.06832,-0.09272,-0.16104
-0.00976,0.03904,-0.06832,-0.06344,-0.05856,0.0244,-0.00488,-0.01464,-0.05368,-0.08296,-0.0976,-0.16592
-0.02928,0.05368,-0.07808,-0.06344,-0.0488,0.00976,0.01464,0,-0.05368,-0.08296,-0.10736,-0.15616
-0.03416,0.05856,-0.08296,-0.06588,-0.0488,0.00732,0.00976,0,-0.05368,-0.08296,-0.10736,-0.1464
-0.05368,0.07076,-0.08784,-0.061,-0.03416,-0.00976,0.00976,0.00488,-0.0488,-0.06832,-0.0976,-0.1464
-0.05856,0.07564,-0.09272,-0.06344,-0.03416,-0.0122,0.01464,0.01464,-0.03904,-0.06344,-0.08784,-0.15128
-0.03416,0.05856,-0.08296,-0.06588,-0.0488,0.00732,0.00488,0,-0.0488,-0.07808,-0.10248,-0.15616
-0.01464,0.04636,-0.07808,-0.07076,-0.06344,0.0244,-0.00488,-0.00976,-0.05856,-0.08296,-0.10736,-0.14152
-0.03416,0.04636,-0.05856,-0.04148,-0.0244,-0.00488,0.01952,0.00488,-0.04392,-0.06832,-0.0976,-0.122
-0.06832,0.06588,-0.06344,-0.02928,0.00488,-0.0366,0.0244,0.00976,-0.03904,-0.06832,-0.0976,-0.122
-0.06832,0.0732,-0.07808,-0.04392,-0.00976,-0.02928,0.00488,0,-0.03904,-0.0732,-0.10248,-0.13176
-0.05368,0.06832,-0.08296,-0.05612,-0.02928,-0.0122,-0.00488,-0.00488,-0.03416,-0.0732,-0.09272,-0.11224
-0.03416,0.05368,-0.0732,-0.05612,-0.03904,0.00244,0.00976,0.00488,-0.02928,-0.07808,-0.10248,-0.122
-0.02928,0.0488,-0.06832,-0.05368,-0.03904,0.00488,0.00488,0.00488,-0.0244,-0.06832,-0.0976,-0.13176
-0.05856,0.05856,-0.05856,-0.02928,0,-0.02928,0.01464,0.01464,0,-0.03416,-0.0732,-0.09272
-0.05856,0.05124,-0.04392,-0.01464,0.01464,-0.0366,0.02928,0.02928,0,-0.0244,-0.05368,-0.05856
-0.04392,0.04636,-0.0488,-0.02684,-0.00488,-0.01952,0.0244,0.01464,0,-0.01952,-0.06344,-0.06832
-0.03416,0.0366,-0.03904,-0.02196,-0.00488,-0.01464,0.01464,0.00488,0,-0.02928,-0.06344,-0.07808
-0.0244,0.03416,-0.04392,-0.03172,-0.01952,-0.00244,0.01464,0.01464,0.00976,-0.00976,-0.04392,-0.05856
-0.0244,0.02928,-0.03416,-0.02196,-0.00976,-0.00732,0.01464,0.01464,0.00976,-0.00976,-0.03416,-0.06344
-0.00488,0.02196,-0.03904,-0.0366,-0.03416,0.01464,0.01952,0.01952,0.01464,-0.00488,-0.03904,-0.0488
0,0.01952,-0.03904,-0.03904,-0.03904,0.01952,0.01464,0.01464,0.01464,-0.01464,-0.0488,-0.0488
-0.01952,0.03172,-0.04392,-0.03416,-0.0244,0.00244,0.00488,0,0.00976,-0.01952,-0.0488,-0.04392
-0.03416,0.03904,-0.04392,-0.02684,-0.00976,-0.0122,-0.00488,0.00976,0.01464,-0.00976,-0.03416,-0.0488
-0.03416,0.03172,-0.02928,-0.0122,0.00488,-0.01952,0.00488,0.01952,0.03416,0,-0.02928,-0.0244
-0.04392,0.0366,-0.02928,-0.00732,0.01464,-0.02928,0.01464,0.02928,0.04392,0.01952,-0.01952,-0.01464
-0.01952,0.01952,-0.01952,-0.00976,0,-0.00976,0.01464,0.01952,0.03416,0.00976,-0.03416,-0.01952
-0.01952,0.01952,-0.01952,-0.00976,0,-0.00976,0.00976,0.01464,0.0244,0.00976,-0.02928,-0.0244
-0.01464,0.02196,-0.02928,-0.02196,-0.01464,0,0.00976,0.00488,0.0244,0.00488,-0.0244,-0.0244
-0.00488,0.01708,-0.02928,-0.02684,-0.0244,0.00976,0,0.00976,0.0244,0.00488,-0.02928,-0.0244
-0.00976,0.00976,-0.00976,-0.00488,0,-0.00488,0.00488,0.01952,0.02928,0.01464,-0.01952,-0.00488
-0.01464,0.00976,-0.00488,0.00244,0.00976,-0.0122,0.02928,0.0244,0.04392,0.0244,-0.00488,-0.00488
-0.03904,0.00732,0.0244,0.04392,0.06344,-0.05124,0.03904,0.03904,0.05856,0.03416,0.01464,0.00976
-0.0488,0.00488,0.03904,0.06344,0.08784,-0.06832,0.0488,0.0488,0.0732,0.0488,0.01464,0.00976
-0.0488,0.00244,0.04392,0.06832,0.09272,-0.07076,0.06344,0.06832,0.07808,0.0488,0.0244,0.01952
-0.05368,0,0.05368,0.08052,0.10736,-0.08052,0.08296,0.0732,0.08296,0.06344,0.03416,0.05368
-0.0488,-0.01952,0.08784,0.11224,0.13664,-0.09272,0.08296,0.06832,0.09272,0.0732,0.04392,0.0488
-0.0488,-0.03416,0.11712,0.14152,0.16592,-0.10736,0.07808,0.06832,0.10736,0.09272,0.05856,0.06344
-0.02928,-0.06344,0.15616,0.1708,0.18544,-0.10736,0.05856,0.0488,0.10736,0.0976,0.06832,0.08784
-0.00976,-0.07808,0.16592,0.1708,0.17568,-0.09272,0.02928,0.02928,0.08784,0.07808,0.0488,0.07808
0.00976,-0.08784,0.16592,0.16104,0.15616,-0.0732,0.00976,0.00976,0.07808,0.06832,0.03904,0.06832
-0.00488,-0.08052,0.16592,0.16836,0.1708,-0.08784,-0.00976,-0.01952,0.0732,0.06832,0.04392,0.07808
-0.00488,-0.0854,0.17568,0.17812,0.18056,-0.09272,-0.01952,-0.02928,0.05856,0.06344,0.03416,0.07808
-0.03416,-0.08052,0.1952,0.21228,0.22936,-0.13176,-0.0244,-0.03904,0.06832,0.07808,0.0488,0.09272
-0.05368,-0.08296,0.2196,0.24644,0.27328,-0.16348,-0.03904,-0.04392,0.06344,0.0732,0.0488,0.09272
-0.04392,-0.0854,0.21472,0.23668,0.25864,-0.15128,-0.05368,-0.05856,0.0488,0.06344,0.04392,0.0976
-0.04392,-0.061,0.16592,0.18788,0.20984,-0.12688,-0.0488,-0.05368,0.03416,0.05368,0.02928,0.07808
-0.05368,-0.03416,0.122,0.14884,0.17568,-0.11468,-0.0488,-0.05368,0.01464,0.02928,0.01464,0.06832
-0.05368,-0.00976,0.0732,0.10004,0.12688,-0.09028,-0.03904,-0.0488,0.00488,0.00976,0,0.05368
-0.03416,0.00488,0.0244,0.04148,0.05856,-0.04636,-0.04392,-0.0488,-0.01464,-0.00976,-0.02928,0.0244
-0.03416,0.02684,-0.01952,-0.00244,0.01464,-0.0244,-0.03904,-0.04392,-0.01952,-0.01952,-0.03904,0.00488
-0.0244,0.02928,-0.03416,-0.02196,-0.00976,-0.00732,-0.02928,-0.03416,-0.01952,-0.02928,-0.03904,0.00976
-0.01464,0.04392,-0.0732,-0.06588,-0.05856,0.02196,-0.0244,-0.03416,-0.0244,-0.03416,-0.0488,0
-0.02928,0.05612,-0.08296,-0.06832,-0.05368,0.0122,-0.01952,-0.03904,-0.03904,-0.05856,-0.06344,-0.00488
-0.05368,0.0732,-0.09272,-0.06588,-0.03904,-0.00732,-0.0244,-0.03416,-0.03416,-0.0488,-0.06344,-0.00488
-0.03416,0.06344,-0.09272,-0.07564,-0.05856,0.0122,-0.03416,-0.0488,-0.05368,-0.0732,-0.07808,-0.03416
-0.03904,0.06344,-0.08784,-0.06832,-0.0488,0.00488,-0.03416,-0.05856,-0.05368,-0.0732,-0.07808,-0.03416
-0.03904,0.06832,-0.0976,-0.07808,-0.05856,0.00976,-0.01952,-0.04392,-0.0488,-0.06832,-0.06344,-0.00976
-0.03904,0.07076,-0.10248,-0.08296,-0.06344,0.0122,-0.01464,-0.04392,-0.0488,-0.06832,-0.06344,0.00488
-0.06344,0.08784,-0.11224,-0.08052,-0.0488,-0.00732,-0.03416,-0.0488,-0.05856,-0.06832,-0.06832,-0.00488
-0.05856,0.0854,-0.11224,-0.08296,-0.05368,-0.00244,-0.03416,-0.0488,-0.06344,-0.08296,-0.0732,-0.00976
-0.06832,0.08784,-0.10736,-0.0732,-0.03904,-0.01464,-0.0244,-0.03904,-0.05368,-0.06832,-0.0732,-0.00488
-0.06344,0.08052,-0.0976,-0.06588,-0.03416,-0.01464,-0.0244,-0.03904,-0.05368,-0.05856,-0.0732,-0.00976
-0.04392,0.07076,-0.0976,-0.07564,-0.05368,0.00488,-0.03904,-0.06344,-0.06832,-0.08784,-0.08784,-0.0244
-0.03416,0.06832,-0.10248,-0.0854,-0.06832,0.01708,-0.0488,-0.08296,-0.07808,-0.0976,-0.09272,-0.0244
-0.0244,0.06344,-0.10248,-0.09028,-0.07808,0.02684,-0.03904,-0.06832,-0.07808,-0.08784,-0.08296,-0.01464
-0.0244,0.06588,-0.10736,-0.09516,-0.08296,0.02928,-0.02928,-0.05856,-0.0732,-0.09272,-0.08296,-0.00488
-0.03416,0.061,-0.08784,-0.07076,-0.05368,0.00976,-0.00488,-0.03416,-0.04392,-0.05856,-0.06832,0.01952
-0.0244,0.05612,-0.08784,-0.07564,-0.06344,0.01952,-0.00488,-0.03416,-0.02928,-0.05856,-0.05856,0.00976
-0.0244,0.05124,-0.07808,-0.06588,-0.05368,0.01464,0.02928,0,0.00488,-0.02928,-0.04392,0.02928
-0.01464,0.04392,-0.0732,-0.06588,-0.05856,0.02196,0.03416,0.02928,0.04392,0.04392,0.0244,0.09272
-0.0244,0.02928,-0.03416,-0.02196,-0.00976,-0.00732,-0.01464,0.0244,0.09272,0.15616,0.16592,0.24888
0.02928,-0.00976,-0.00976,-0.0244,-0.03904,0.03416,-0.0976,-0.0488,0.08784,0.1952,0.24888,0.35624
0.08296,-0.07076,0.05856,0.01708,-0.0244,0.05368,-0.16104,-0.05856,0.17568,0.3904,0.47824,0.60512
0.18544,-0.14884,0.11224,0.01952,-0.0732,0.12932,-0.23912,-0.06344,0.24888,0.59536,0.77104,0.91744
0.2928,-0.23424,0.17568,0.02928,-0.11712,0.20496,-0.28792,-0.04392,0.35136,0.76616,1.00528,1.16632
0.35624,-0.26108,0.16592,-0.0122,-0.19032,0.27328,-0.26352,0.05368,0.40504,0.77104,1.01504,1.16632
0.3416,-0.2318,0.122,-0.0488,-0.2196,0.2806,-0.1952,0.13664,0.44408,0.72712,0.95648,1.06872
0.19032,-0.10004,0.00976,-0.0854,-0.18056,0.18544,-0.05368,0.16104,0.3172,0.40992,0.53192,0.61
0.0488,0.06832,-0.18544,-0.20984,-0.23424,0.14152,0.03416,0.02928,-0.08784,-0.24888,-0.25864,-0.11224
-0.0488,0.19276,-0.33672,-0.31232,-0.28792,0.11956,0.09272,0.03416,-0.2196,-0.47336,-0.52704,-0.37088
-0.03904,0.19276,-0.34648,-0.32696,-0.30744,0.1342,0.05856,0.02928,-0.20496,-0.4392,-0.50264,-0.36112
-0.122,0.26108,-0.40016,-0.33916,-0.27816,0.07808,0.19032,0.1708,-0.08784,-0.37088,-0.45384,-0.37576
-0.15128,0.26108,-0.37088,-0.29524,-0.2196,0.03416,0.33672,0.30256,-0.00488,-0.35624,-0.47824,-0.40992
-0.18056,0.27328,-0.366,-0.27572,-0.18544,0.00244,0.49776,0.41968,0.06832,-0.32696,-0.47336,-0.42944
-0.22936,0.30744,-0.38552,-0.27084,-0.15616,-0.0366,0.61488,0.49776,0.08784,-0.31232,-0.47824,-0.44896
-0.25864,0.28304,-0.30744,-0.17812,-0.0488,-0.10492,0.69784,0.5612,0.13176,-0.25864,-0.42456,-0.40504
-0.23424,0.24888,-0.26352,-0.1464,-0.02928,-0.10248,0.7564,0.62952,0.18056,-0.2196,-0.38064,-0.35136
-0.25376,0.24644,-0.23912,-0.11224,0.01464,-0.1342,0.95648,0.76616,0.28304,-0.15616,-0.2928,-0.26352
-0.26352,0.25132,-0.23912,-0.10736,0.0244,-0.14396,1.06872,0.82472,0.30744,-0.10736,-0.26352,-0.23424
-0.30256,0.29036,-0.27816,-0.12688,0.0244,-0.16348,1.1468,0.8784,0.28304,-0.11224,-0.24888,-0.22448
-0.29768,0.30256,-0.30744,-0.1586,-0.00976,-0.14396,1.21024,0.90768,0.27816,-0.0976,-0.22936,-0.20496
-0.23424,0.26108,-0.28792,-0.1708,-0.05368,-0.09028,1.35176,1.00528,0.3416,-0.05368,-0.17568,-0.16104
-0.26352,0.28548,-0.30744,-0.17568,-0.04392,-0.1098,1.47376,1.10288,0.42944,0.01952,-0.11712,-0.12688
-0.22936,0.24888,-0.2684,-0.15372,-0.03904,-0.09516,1.41032,1.02968,0.40016,0.01464,-0.11224,-0.11712
-0.15616,0.1952,-0.23424,-0.15616,-0.07808,-0.03904,1.24928,0.9028,0.32696,0.00976,-0.11712,-0.08784
-0.0732,0.14152,-0.20984,-0.17324,-0.13664,0.03172,0.8296,0.47824,0.11712,-0.0732,-0.1464,-0.10736
-0.07808,0.1098,-0.14152,-0.10248,-0.06344,-0.00732,0.37576,0.0732,-0.05856,-0.12688,-0.1464,-0.07808
-0.0976,0.08052,-0.06344,-0.01464,0.03416,-0.06588,0.15128,-0.06832,-0.09272,-0.11712,-0.11712,-0.03416
-0.08296,0.07076,-0.05856,-0.01708,0.0244,-0.05368,0.0732,-0.05856,-0.0976,-0.10248,-0.09272,-0.01464
-0.0488,0.05612,-0.06344,-0.03904,-0.01464,-0.01708,0.00976,-0.07808,-0.10248,-0.09272,-0.07808,-0.00488
-0.04392,0.05124,-0.05856,-0.0366,-0.01464,-0.01464,-0.03416,-0.09272,-0.10736,-0.0732,-0.05856,-0.00976
-0.0488,0.05368,-0.05856,-0.03416,-0.00976,-0.01952,-0.08784,-0.11712,-0.10248,-0.07808,-0.05856,-0.00488
-0.05368,0.0488,-0.04392,-0.01708,0.00976,-0.03172,-0.10248,-0.11712,-0.10248,-0.07808,-0.05856,-0.00488
-0.04392,0.03904,-0.03416,-0.0122,0.00976,-0.02684,-0.10248,-0.122,-0.11224,-0.0732,-0.05856,-0.01464
-0.03904,0.0366,-0.03416,-0.01464,0.00488,-0.02196,-0.10736,-0.12688,-0.11224,-0.0732,-0.05368,-0.02928
0,0.02196,-0.04392,-0.04392,-0.04392,0.02196,-0.13664,-0.15616,-0.122,-0.08296,-0.06832,-0.05368
0.02928,0.00244,-0.03416,-0.0488,-0.06344,0.04636,-0.15128,-0.17568,-0.13176,-0.09272,-0.0732,-0.06344
0.03416,0,-0.03416,-0.05124,-0.06832,0.05124,-0.16104,-0.16592,-0.14152,-0.10248,-0.0732,-0.07808
0.03416,-0.00244,-0.02928,-0.04636,-0.06344,0.0488,-0.16104,-0.15616,-0.14152,-0.0976,-0.0732,-0.08784
0,0.01464,-0.02928,-0.02928,-0.02928,0.01464,-0.16104,-0.15616,-0.11712,-0.07808,-0.05368,-0.08296
-0.02928,0.0244,-0.01952,-0.00488,0.00976,-0.01952,-0.15616,-0.15128,-0.0976,-0.0488,-0.03904,-0.08296
-0.00488,0.00488,-0.00488,-0.00244,0,-0.00244,-0.15616,-0.15616,-0.10736,-0.05856,-0.03904,-0.09272
0.00488,-0.00488,0.00488,0.00244,0,0.00244,-0.16104,-0.15616,-0.11712,-0.06832,-0.03904,-0.0976
-0.00488,0,0.00488,0.00732,0.00976,-0.00732,-0.15616,-0.14152,-0.10248,-0.03904,-0.00976,-0.08784
-0.00488,0,0.00488,0.00732,0.00976,-0.00732,-0.15616,-0.15128,-0.08784,-0.02928,0,-0.07808
-0.00488,-0.00732,0.01952,0.02196,0.0244,-0.01464,-0.16592,-0.1464,-0.08784,-0.03904,-0.00488,-0.07808
0,-0.00976,0.01952,0.01952,0.01952,-0.00976,-0.1708,-0.15128,-0.08784,-0.03416,0.00488,-0.0732
0.01952,-0.02196,0.0244,0.01464,0.00488,0.00732,-0.18544,-0.16104,-0.08784,-0.03416,0,-0.09272
0.02928,-0.02928,0.02928,0.01464,0,0.01464,-0.19032,-0.16104,-0.08296,-0.02928,0.00976,-0.10248
0.03416,-0.02928,0.0244,0.00732,-0.00976,0.02196,-0.20008,-0.17568,-0.08784,-0.0244,0.01464,-0.10736
0.03416,-0.03172,0.02928,0.0122,-0.00488,0.01952,-0.20984,-0.17568,-0.08296,-0.01464,0.02928,-0.09272
0.05368,-0.04148,0.02928,0.00244,-0.0244,0.03904,-0.22936,-0.18544,-0.09272,-0.01952,0.03904,-0.0976
0.06344,-0.05612,0.0488,0.01708,-0.01464,0.03904,-0.23912,-0.1952,-0.08784,-0.01464,0.0488,-0.07808
0.0732,-0.06832,0.06344,0.02684,-0.00976,0.04148,-0.24888,-0.20008,-0.06832,0.00976,0.0732,-0.06832
0.08296,-0.07808,0.0732,0.03172,-0.00976,0.04636,-0.26352,-0.20984,-0.0732,0.02928,0.0976,-0.04392
0.07808,-0.08296,0.08784,0.0488,0.00976,0.03416,-0.2684,-0.20496,-0.06344,0.04392,0.10736,-0.03904
0.07808,-0.0854,0.09272,0.05368,0.01464,0.03172,-0.28792,-0.20984,-0.06832,0.0488,0.11712,-0.02928
0.10736,-0.10736,0.10736,0.05368,0,0.05368,-0.32208,-0.23424,-0.07808,0.05856,0.13176,-0.01464
0.11224,-0.11224,0.11224,0.05612,0,0.05612,-0.33672,-0.24888,-0.08296,0.06344,0.14152,0.00488
0.11712,-0.11468,0.11224,0.05368,-0.00488,0.061,-0.36112,-0.26352,-0.09272,0.06344,0.1464,0
0.12688,-0.12444,0.122,0.05856,-0.00488,0.06588,-0.37576,-0.28304,-0.09272,0.06344,0.15616,-0.00488
0.1464,-0.13664,0.12688,0.05368,-0.01952,0.08296,-0.3904,-0.2928,-0.11224,0.05856,0.15616,-0.00488
0.15616,-0.14884,0.14152,0.06344,-0.01464,0.0854,-0.40016,-0.28792,-0.10248,0.05856,0.15616,0.01464
0.16592,-0.14884,0.13176,0.0488,-0.03416,0.10004,-0.4148,-0.29768,-0.11712,0.05856,0.15616,-0.00488
0.16592,-0.14884,0.13176,0.0488,-0.03416,0.10004,-0.42944,-0.30744,-0.122,0.05856,0.16592,-0.00976
0.122,-0.13664,0.15128,0.09028,0.02928,0.04636,-0.41968,-0.30744,-0.11224,0.0732,0.1708,0.00976
0.0976,-0.12444,0.15128,0.10248,0.05368,0.02196,-0.41968,-0.32208,-0.11224,0.06832,0.17568,0.01464
0.11712,-0.13908,0.16104,0.10248,0.04392,0.0366,-0.41968,-0.3172,-0.10736,0.07808,0.18056,0.01952
0.10248,-0.13664,0.1708,0.11956,0.06832,0.01708,-0.42456,-0.30744,-0.11224,0.07808,0.18056,0.01952
0.11224,-0.12932,0.1464,0.09028,0.03416,0.03904,-0.42456,-0.3172,-0.122,0.05368,0.15128,-0.00488
0.10736,-0.11712,0.12688,0.0732,0.01952,0.04392,-0.4148,-0.30744,-0.13176,0.0244,0.13664,-0.03904
0.11712,-0.122,0.12688,0.06832,0.00976,0.05368,-0.3904,-0.2928,-0.14152,0.01952,0.11224,-0.06344
0.10248,-0.1098,0.11712,0.06588,0.01464,0.04392,-0.37088,-0.27816,-0.12688,0.01952,0.09272,-0.06344
0.10248,-0.11224,0.122,0.07076,0.01952,0.04148,-0.35624,-0.26352,-0.12688,0.00976,0.08296,-0.08784
0.10736,-0.10736,0.10736,0.05368,0,0.05368,-0.3416,-0.25864,-0.122,0,0.06344,-0.11712
0.08296,-0.08784,0.09272,0.05124,0.00976,0.0366,-0.31232,-0.244,-0.12688,-0.00976,0.05856,-0.12688
0.0488,-0.06344,0.07808,0.05368,0.02928,0.00976,-0.28304,-0.2196,-0.11224,-0.00976,0.05368,-0.122
0.0488,-0.061,0.0732,0.0488,0.0244,0.0122,-0.244,-0.18544,-0.08296,0.00488,0.0488,-0.13664
0.03904,-0.05856,0.07808,0.05856,0.03904,0,-0.20496,-0.15616,-0.06344,0,0.03904,-0.15128
0.02928,-0.04148,0.05368,0.03904,0.0244,0.00244,-0.18544,-0.14152,-0.05368,0.00488,0.03904,-0.16592
0.03416,-0.0366,0.03904,0.02196,0.00488,0.01464,-0.16104,-0.11224,-0.04392,0.00488,0.0244,-0.18056
0.00488,-0.02684,0.0488,0.04636,0.04392,-0.01952,-0.1464,-0.0976,-0.02928,0.00488,0.0244,-0.19032
-0.00976,-0.01464,0.03904,0.04392,0.0488,-0.02928,-0.11712,-0.07808,-0.01464,-0.00488,0.00488,-0.21472
-0.00488,-0.00732,0.01952,0.02196,0.0244,-0.01464,-0.08784,-0.06344,-0.00976,-0.00976,-0.00976,-0.21472
0.00488,-0.00732,0.00976,0.00732,0.00488,0,-0.0732,-0.04392,-0.01464,-0.00976,0,-0.22936
0.00488,-0.00488,0.00488,0.00244,0,0.00244,-0.06344,-0.04392,-0.01952,-0.01952,-0.01464,-0.244
0.01464,-0.00488,-0.00488,-0.0122,-0.01952,0.01708,-0.04392,-0.03416,-0.01952,-0.0244,-0.02928,-0.24888
-0.00488,-0.00244,0.00976,0.0122,0.01464,-0.00976,-0.03416,-0.01952,-0.00976,-0.0244,-0.03416,-0.25376
-0.01464,0.00732,0,0.00732,0.01464,-0.01464,-0.02928,-0.0244,-0.00976,-0.02928,-0.02928,-0.25864
-0.00976,0.00244,0.00488,0.00976,0.01464,-0.0122,-0.01464,-0.01952,-0.00976,-0.02928,-0.02928,-0.25376
-0.00976,0.00244,0.00488,0.00976,0.01464,-0.0122,-0.01464,-0.01952,-0.0244,-0.01952,-0.04392,-0.25376
-0.0244,0.02196,-0.01952,-0.00732,0.00488,-0.01464,-0.00488,-0.00976,-0.01464,-0.02928,-0.03416,-0.25376
-0.0244,0.0244,-0.0244,-0.0122,0,-0.0122,-0.00488,-0.01464,-0.0244,-0.03416,-0.04392,-0.28304
-0.03416,0.02928,-0.0244,-0.00732,0.00976,-0.02196,-0.00488,-0.0244,-0.03416,-0.0488,-0.06344,-0.29768
-0.02928,0.02928,-0.02928,-0.01464,0,-0.01464,-0.00488,-0.03416,-0.03416,-0.05368,-0.06832,-0.30256
-0.02928,0.02928,-0.02928,-0.01464,0,-0.01464,-0.00488,-0.03904,-0.04392,-0.06344,-0.07808,-0.30256
-0.0244,0.02928,-0.03416,-0.02196,-0.00976,-0.00732,-0.01952,-0.03904,-0.05368,-0.0732,-0.08784,-0.31232
-0.01464,0.02684,-0.03904,-0.03172,-0.0244,0.00488,-0.01952,-0.04392,-0.05856,-0.07808,-0.08784,-0.33184
0,0.01708,-0.03416,-0.03416,-0.03416,0.01708,-0.01464,-0.04392,-0.05856,-0.08296,-0.08784,-0.34648
-0.01464,0.01952,-0.0244,-0.01708,-0.00976,-0.00244,-0.0244,-0.03904,-0.0488,-0.07808,-0.08296,-0.3416
-0.0244,0.02684,-0.02928,-0.01708,-0.00488,-0.00976,-0.0244,-0.03904,-0.0488,-0.06344,-0.07808,-0.32696
-0.03416,0.02684,-0.01952,-0.00244,0.01464,-0.0244,-0.00976,-0.0244,-0.03416,-0.0488,-0.06832,-0.30744
-0.05856,0.04148,-0.0244,0.00488,0.03416,-0.04636,-0.00488,-0.00976,-0.02928,-0.0488,-0.06832,-0.30744
-0.0488,0.02928,-0.00976,0.01464,0.03904,-0.04392,0.00488,-0.00976,-0.02928,-0.04392,-0.05368,-0.30744
-0.03416,0.01464,0.00488,0.02196,0.03904,-0.0366,0.00488,-0.00488,-0.0244,-0.04392,-0.04392,-0.27816
-0.01464,0.00976,-0.00488,0.00244,0.00976,-0.0122,0,-0.01464,-0.02928,-0.0488,-0.05368,-0.29768
-0.00976,0.00976,-0.00976,-0.00488,0,-0.00488,-0.01464,-0.01464,-0.0244,-0.03904,-0.05856,-0.3172
-0.01952,0.01464,-0.00976,0,0.00976,-0.01464,-0.01464,-0.01464,-0.01952,-0.0244,-0.04392,-0.29768
-0.00976,0.00732,-0.00488,0,0.00488,-0.00732,-0.00976,-0.00976,-0.01952,-0.0244,-0.03416,-0.27328
-0.00488,0.00244,0,0.00244,0.00488,-0.00488,-0.01464,-0.00488,-0.00976,-0.01952,-0.03416,-0.27328
-0.00488,-0.00244,0.00976,0.0122,0.01464,-0.00976,-0.0244,-0.00488,-0.00976,-0.03904,-0.03416,-0.28304
-0.0244,0.00976,0.00488,0.01708,0.02928,-0.02684,-0.0244,-0.00488,0,-0.01952,-0.0244,-0.27328
-0.03416,0.01464,0.00488,0.02196,0.03904,-0.0366,-0.0244,-0.00488,0,-0.01952,-0.01464,-0.27816
-0.01464,0.00244,0.00976,0.01708,0.0244,-0.01952,-0.01952,0,0.00488,-0.00488,-0.00976,-0.26352
-0.01952,0,0.01952,0.02928,0.03904,-0.02928,-0.0244,-0.00488,0.00488,-0.00488,-0.00976,-0.26352
-0.00976,-0.0122,0.03416,0.03904,0.04392,-0.02684,-0.01464,0,0.00976,0,0,-0.25864
-0.00488,-0.01464,0.03416,0.0366,0.03904,-0.02196,-0.00488,0.00976,0.01464,0.00976,0.01464,-0.25376
-0.00488,-0.01708,0.03904,0.04148,0.04392,-0.0244,-0.01464,0,0.01464,0,0,-0.25864
-0.00488,-0.0122,0.02928,0.03172,0.03416,-0.01952,-0.01464,0,0.01464,0.00976,0,-0.25864
0.01952,-0.0244,0.02928,0.01952,0.00976,0.00488,-0.01464,0,0.01464,0,-0.00488,-0.26352
0.00976,-0.01464,0.01952,0.01464,0.00976,0,-0.01952,-0.00488,0.01464,0,0,-0.2684
-0.00488,-0.0122,0.02928,0.03172,0.03416,-0.01952,-0.01952,-0.00488,0.0244,0.01464,0.01464,-0.25864
-0.00488,-0.01708,0.03904,0.04148,0.04392,-0.0244,-0.01952,0,0.0244,0.01464,0.00976,-0.24888
-0.00976,-0.02928,0.06832,0.0732,0.07808,-0.04392,-0.01464,0,0.03904,0.03416,0.01952,-0.22936
-0.01464,-0.03416,0.08296,0.09028,0.0976,-0.05612,0.00976,0.00488,0.05368,0.04392,0.04392,-0.22936
-0.01952,-0.04148,0.10248,0.11224,0.122,-0.07076,0.01952,0.01952,0.05856,0.05368,0.04392,-0.21472
-0.01952,-0.0488,0.11712,0.12688,0.13664,-0.07808,0.02928,0.02928,0.06344,0.05856,0.04392,-0.21472
-0.00976,-0.06588,0.14152,0.1464,0.15128,-0.08052,0.04392,0.0488,0.07808,0.06832,0.05368,-0.21472
-0.01464,-0.06832,0.15128,0.1586,0.16592,-0.09028,0.06344,0.05368,0.08296,0.09272,0.06344,-0.19032
0.01952,-0.0976,0.17568,0.16592,0.15616,-0.06832,0.05368,0.0488,0.09272,0.08296,0.0732,-0.20496
-0.00976,-0.08784,0.18544,0.19032,0.1952,-0.10248,0.00976,0.01952,0.0976,0.08784,0.08784,-0.16592
0,-0.0976,0.1952,0.1952,0.1952,-0.0976,0,0.00976,0.08784,0.0976,0.07808,-0.16592
0,-0.10248,0.20496,0.20496,0.20496,-0.10248,0,0,0.08784,0.0976,0.07808,-0.16592
-0.01464,-0.10492,0.22448,0.2318,0.23912,-0.12688,-0.02928,-0.02928,0.08296,0.08784,0.0732,-0.16592
-0.0244,-0.1098,0.244,0.2562,0.2684,-0.1464,-0.03904,-0.03904,0.06832,0.08296,0.06344,-0.16592
-0.0244,-0.11956,0.26352,0.27572,0.28792,-0.15616,-0.04392,-0.03904,0.06832,0.08784,0.07808,-0.15128
-0.0244,-0.13176,0.28792,0.30012,0.31232,-0.16836,-0.05856,-0.04392,0.06344,0.08296,0.07808,-0.15128
-0.00488,-0.13908,0.28304,0.28548,0.28792,-0.1464,-0.0732,-0.06832,0.0488,0.06344,0.06344,-0.15616
-0.00488,-0.11468,0.23424,0.23668,0.23912,-0.122,-0.06832,-0.0732,0.0244,0.05368,0.0488,-0.17568
-0.0244,-0.08296,0.19032,0.20252,0.21472,-0.11956,-0.06832,-0.0732,0.01464,0.03904,0.03416,-0.18544
-0.03416,-0.05368,0.14152,0.1586,0.17568,-0.10492,-0.05856,-0.06832,0.00488,0.01952,0.01952,-0.20984
0.00488,-0.05368,0.10248,0.10004,0.0976,-0.04636,-0.06344,-0.05856,-0.01464,0,-0.00976,-0.22936
0.0244,-0.04148,0.05856,0.04636,0.03416,-0.00488,-0.0488,-0.04392,-0.01952,-0.00976,-0.01952,-0.24888
-0.00488,-0.01952,0.04392,0.04636,0.0488,-0.02684,-0.02928,-0.03416,-0.01952,-0.00976,-0.01952,-0.244
-0.0244,0.00976,0.00488,0.01708,0.02928,-0.02684,-0.0244,-0.03416,-0.01464,-0.00488,-0.01952,-0.244
-0.01952,0.00732,0.00488,0.01464,0.0244,-0.02196,-0.01952,-0.03904,-0.02928,-0.02928,-0.03416,-0.25864
-0.0244,0.01464,-0.00488,0.00732,0.01952,-0.02196,-0.0244,-0.03416,-0.03416,-0.02928,-0.03416,-0.2684
-0.03416,0.02928,-0.0244,-0.00732,0.00976,-0.02196,-0.03416,-0.0488,-0.05368,-0.04392,-0.03904,-0.27816
-0.0488,0.04392,-0.03904,-0.01464,0.00976,-0.02928,-0.03416,-0.0488,-0.05368,-0.04392,-0.03904,-0.27816
-0.0488,0.05368,-0.05856,-0.03416,-0.00976,-0.01952,-0.03904,-0.05368,-0.05856,-0.0488,-0.04392,-0.28304
-0.0488,0.06588,-0.08296,-0.05856,-0.03416,-0.00732,-0.04392,-0.05368,-0.05856,-0.05856,-0.05368,-0.28792
-0.04392,0.05856,-0.0732,-0.05124,-0.02928,-0.00732,-0.04392,-0.0488,-0.05856,-0.05856,-0.05856,-0.29768
-0.02928,0.04636,-0.06344,-0.0488,-0.03416,0.00244,-0.04392,-0.0488,-0.06344,-0.0732,-0.06344,-0.30256
-0.02928,0.05368,-0.07808,-0.06344,-0.0488,0.00976,-0.05368,-0.05856,-0.0732,-0.07808,-0.0732,-0.30744
-0.01464,0.04636,-0.07808,-0.07076,-0.06344,0.0244,-0.05368,-0.05856,-0.0732,-0.07808,-0.08296,-0.31232
0.01464,0.02684,-0.06832,-0.07564,-0.08296,0.0488,-0.05856,-0.06344,-0.08784,-0.08784,-0.08784,-0.32696
0.03416,0.01952,-0.0732,-0.09028,-0.10736,0.07076,-0.05856,-0.0732,-0.0976,-0.08784,-0.09272,-0.33672
0.01464,0.0244,-0.06344,-0.07076,-0.07808,0.04636,-0.05856,-0.06832,-0.08784,-0.08784,-0.09272,-0.32696
-0.00488,0.0366,-0.06832,-0.06588,-0.06344,0.02928,-0.05856,-0.06832,-0.08296,-0.09272,-0.09272,-0.32696
-0.09272,0.07076,-0.0488,-0.00244,0.04392,-0.06832,-0.01464,-0.04392,-0.05368,-0.0488,-0.0488,-0.2928
-0.06344,0.05124,-0.03904,-0.00732,0.0244,-0.04392,-0.01464,-0.03416,-0.0488,-0.03904,-0.0488,-0.2928
-0.06344,0.05612,-0.0488,-0.01708,0.01464,-0.03904,0.01952,0.00976,0.00488,-0.01952,-0.0244,-0.2928
-0.03416,0.04392,-0.05368,-0.0366,-0.01952,-0.00732,0.03416,0.0488,0.04392,0.03416,0.01464,-0.25864
-0.00488,0.01952,-0.03416,-0.03172,-0.02928,0.0122,0.01464,0.04392,0.10248,0.15616,0.13664,-0.122
0.0488,-0.02928,0.00976,-0.01464,-0.03904,0.04392,-0.07808,-0.01952,0.08784,0.22448,0.24888,0.00488
0.10248,-0.09516,0.08784,0.0366,-0.01464,0.05856,-0.13176,-0.02928,0.16592,0.3416,0.40992,0.16592
0.1952,-0.16836,0.14152,0.04392,-0.05368,0.12444,-0.20984,-0.03416,0.2684,0.55632,0.6832,0.44896
0.26352,-0.23912,0.21472,0.08296,-0.0488,0.15616,-0.24888,0.00488,0.40016,0.81496,0.99552,0.76616
0.33672,-0.28548,0.23424,0.06588,-0.10248,0.2196,-0.26352,0.04392,0.43432,0.86864,1.09312,0.86376
0.42944,-0.33428,0.23912,0.0244,-0.19032,0.30988,-0.23424,0.12688,0.49288,0.81496,1.03456,0.77592
0.38552,-0.27572,0.16592,-0.02684,-0.2196,0.30256,-0.10248,0.20984,0.47336,0.64416,0.79544,0.48312
0.1464,-0.05856,-0.02928,-0.10248,-0.17568,0.16104,0.01464,0.13664,0.15616,0.09272,0.122,-0.14152
0.01952,0.09028,-0.20008,-0.20984,-0.2196,0.11956,0.08296,0.04392,-0.20984,-0.42456,-0.46848,-0.64416
-0.02928,0.16348,-0.29768,-0.28304,-0.2684,0.11956,0.0976,0.05856,-0.1952,-0.4392,-0.48312,-0.71248
-0.06344,0.17324,-0.28304,-0.25132,-0.2196,0.07808,0.14152,0.11224,-0.1464,-0.40992,-0.47336,-0.72712
-0.13176,0.22204,-0.31232,-0.24644,-0.18056,0.0244,0.30744,0.27328,-0.04392,-0.366,-0.46848,-0.76128
-0.1708,0.23424,-0.29768,-0.21228,-0.12688,-0.02196,0.47824,0.41968,0.05856,-0.30744,-0.44408,-0.76128
-0.20984,0.26352,-0.3172,-0.21228,-0.10736,-0.05124,0.60512,0.50752,0.08784,-0.31232,-0.44896,-0.80032
-0.23912,0.27816,-0.3172,-0.19764,-0.07808,-0.08052,0.66856,0.55144,0.10248,-0.30744,-0.45384,-0.79544
-0.26352,0.244,-0.22448,-0.09272,0.03904,-0.15128,0.77592,0.61,0.1708,-0.22936,-0.38064,-0.72224
-0.2928,0.2562,-0.2196,-0.0732,0.0732,-0.183,0.93696,0.73688,0.23424,-0.15616,-0.33184,-0.6832
-0.3416,0.28548,-0.22936,-0.05856,0.11224,-0.22692,1.10776,0.88328,0.33672,-0.0976,-0.25376,-0.62464
-0.2928,0.25132,-0.20984,-0.06344,0.08296,-0.18788,1.22488,0.976,0.38064,-0.04392,-0.20008,-0.56608
-0.2684,0.25376,-0.23912,-0.10492,0.02928,-0.14884,1.24928,0.9272,0.34648,-0.0488,-0.19032,-0.54656
-0.25376,0.25132,-0.24888,-0.122,0.00488,-0.12932,1.3908,1.06384,0.40992,0.00488,-0.16592,-0.53192
-0.244,0.2318,-0.2196,-0.0976,0.0244,-0.1342,1.52256,1.13216,0.47824,0.05856,-0.0976,-0.488
-0.2196,0.20984,-0.20008,-0.09028,0.01952,-0.11956,1.46888,1.10776,0.488,0.08296,-0.06344,-0.44896
-0.18544,0.18544,-0.18544,-0.09272,0,-0.09272,1.2688,0.91256,0.39528,0.05856,-0.06832,-0.42944
-0.1708,0.16104,-0.15128,-0.06588,0.01952,-0.09516,0.84912,0.5368,0.1952,0.01464,-0.07808,-0.40016
-0.11712,0.09516,-0.0732,-0.01464,0.04392,-0.08052,0.38552,0.14152,-0.01952,-0.06832,-0.11712,-0.3904
-0.06832,0.05612,-0.04392,-0.00976,0.0244,-0.04636,0.1708,-0.00976,-0.0732,-0.07808,-0.07808,-0.34648
-0.05368,0.061,-0.06832,-0.04148,-0.01464,-0.01952,0.06344,-0.05856,-0.0976,-0.11224,-0.09272,-0.34648
-0.00976,0.02684,-0.04392,-0.03904,-0.03416,0.0122,-0.00976,-0.08784,-0.122,-0.11224,-0.11712,-0.35624
-0.01464,0.02196,-0.02928,-0.02196,-0.01464,0,-0.06344,-0.11224,-0.11712,-0.08296,-0.0976,-0.33184
-0.01952,0.0244,-0.02928,-0.01952,-0.00976,-0.00488,-0.0976,-0.12688,-0.122,-0.08784,-0.07808,-0.3172
-0.0244,0.01952,-0.01464,-0.00244,0.00976,-0.01708,-0.11224,-0.12688,-0.122,-0.08784,-0.06832,-0.30744
-0.01464,0.01464,-0.01464,-0.00732,0,-0.00732,-0.122,-0.14152,-0.122,-0.08296,-0.06832,-0.30744
0,0.00732,-0.01464,-0.01464,-0.01464,0.00732,-0.12688,-0.1464,-0.122,-0.08296,-0.06344,-0.31232
0,0.00244,-0.00488,-0.00488,-0.00488,0.00244,-0.13664,-0.1464,-0.122,-0.08296,-0.06832,-0.30744
0,-0.00244,0.00488,0.00488,0.00488,-0.00244,-0.14152,-0.1464,-0.122,-0.08296,-0.06344,-0.29768
0.01464,-0.00488,-0.00488,-0.0122,-0.01952,0.01708,-0.15128,-0.15616,-0.13176,-0.09272,-0.06344,-0.2928
0.01464,-0.00732,0,-0.00732,-0.01464,0.01464,-0.15128,-0.15616,-0.13176,-0.08784,-0.06344,-0.2928
0.00976,0.00488,-0.01952,-0.0244,-0.02928,0.01952,-0.16104,-0.16592,-0.12688,-0.08784,-0.0732,-0.29768
0.00976,0.00488,-0.01952,-0.0244,-0.02928,0.01952,-0.16592,-0.16104,-0.12688,-0.07808,-0.06832,-0.29768
-0.00488,0.00488,-0.00488,-0.00244,0,-0.00244,-0.15616,-0.16592,-0.11712,-0.06832,-0.0488,-0.27816
-0.0244,0.01464,-0.00488,0.00732,0.01952,-0.02196,-0.16104,-0.16592,-0.10736,-0.06832,-0.03904,-0.26352
-0.01464,0,0.01464,0.02196,0.02928,-0.02196,-0.16592,-0.15128,-0.11224,-0.05856,-0.03904,-0.27328
-0.00488,-0.00976,0.0244,0.02684,0.02928,-0.01708,-0.16592,-0.16104,-0.11712,-0.05856,-0.03904,-0.26352
0.01464,-0.02684,0.03904,0.03172,0.0244,-0.00488,-0.18544,-0.16592,-0.11712,-0.06832,-0.03416,-0.25376
0.03904,-0.03904,0.03904,0.01952,0,0.01952,-0.19032,-0.1708,-0.11712,-0.06344,-0.0244,-0.24888
0.05856,-0.05124,0.04392,0.01464,-0.01464,0.0366,-0.18544,-0.16104,-0.0976,-0.03416,-0.00976,-0.24888
0.05856,-0.05368,0.0488,0.01952,-0.00976,0.03416,-0.18056,-0.15128,-0.08296,-0.01952,0,-0.23912
0.08296,-0.05856,0.03416,-0.00732,-0.0488,0.06588,-0.20008,-0.16592,-0.0976,-0.03416,-0.00488,-0.25376
0.09272,-0.061,0.02928,-0.01708,-0.06344,0.07808,-0.22936,-0.17568,-0.11224,-0.04392,-0.00976,-0.24888
0.05368,-0.04148,0.02928,0.00244,-0.0244,0.03904,-0.23912,-0.1952,-0.10248,-0.02928,0.00976,-0.23424
0.0244,-0.0366,0.0488,0.0366,0.0244,0,-0.23912,-0.20496,-0.0976,-0.01464,0.01952,-0.20496
0.0244,-0.04392,0.06344,0.05124,0.03904,-0.00732,-0.23912,-0.19032,-0.07808,0.01952,0.05368,-0.16592
0.03416,-0.05856,0.08296,0.06588,0.0488,-0.00732,-0.25376,-0.19032,-0.0732,0.03904,0.08784,-0.13176
0.0488,-0.06832,0.08784,0.06344,0.03904,0.00488,-0.27816,-0.20496,-0.06344,0.04392,0.08784,-0.12688
0.05856,-0.07564,0.09272,0.06344,0.03416,0.0122,-0.29768,-0.2196,-0.06832,0.0488,0.0976,-0.12688
0.07808,-0.0976,0.11712,0.07808,0.03904,0.01952,-0.31232,-0.22448,-0.06832,0.0488,0.11224,-0.10248
0.0732,-0.0976,0.122,0.0854,0.0488,0.0122,-0.32696,-0.23912,-0.0732,0.05368,0.122,-0.08296
0.08784,-0.1098,0.13176,0.08784,0.04392,0.02196,-0.35136,-0.25376,-0.08296,0.06344,0.1464,-0.07808
0.10736,-0.12444,0.14152,0.08784,0.03416,0.0366,-0.37576,-0.27328,-0.09272,0.0732,0.15616,-0.0732
0.11712,-0.13176,0.1464,0.08784,0.02928,0.04392,-0.38064,-0.28304,-0.10248,0.07808,0.15616,-0.06344
0.12688,-0.14396,0.16104,0.0976,0.03416,0.04636,-0.3904,-0.27816,-0.08296,0.07808,0.15616,-0.04392
0.13664,-0.14884,0.16104,0.09272,0.0244,0.05612,-0.39528,-0.28792,-0.0976,0.06832,0.15616,-0.05368
0.13664,-0.14884,0.16104,0.09272,0.0244,0.05612,-0.40992,-0.29768,-0.10248,0.06832,0.16592,-0.0488
0.13176,-0.15128,0.1708,0.10492,0.03904,0.04636,-0.40992,-0.28792,-0.11224,0.06344,0.15128,-0.0488
0.12688,-0.14884,0.1708,0.10736,0.04392,0.04148,-0.41968,-0.30256,-0.122,0.0488,0.1464,-0.05368
0.12688,-0.13908,0.15128,0.08784,0.0244,0.05124,-0.4392,-0.32696,-0.13664,0.03904,0.13176,-0.05856
0.11224,-0.12688,0.14152,0.0854,0.02928,0.04148,-0.45384,-0.34648,-0.15128,0.03904,0.13176,-0.05856
0.16104,-0.15372,0.1464,0.06588,-0.01464,0.08784,-0.45384,-0.35624,-0.16104,0.0244,0.11224,-0.0732
0.1952,-0.1708,0.1464,0.0488,-0.0488,0.122,-0.44408,-0.34648,-0.1708,0.00488,0.0976,-0.0976
0.17568,-0.16104,0.1464,0.05856,-0.02928,0.10248,-0.41968,-0.32208,-0.16104,0.00976,0.09272,-0.10248
0.15128,-0.14884,0.1464,0.07076,-0.00488,0.07808,-0.40016,-0.30744,-0.13664,0.00976,0.08296,-0.09272
0.09272,-0.11712,0.14152,0.09516,0.0488,0.02196,-0.366,-0.27328,-0.12688,0.01952,0.09272,-0.08784
0.0488,-0.08784,0.12688,0.10248,0.07808,-0.01464,-0.3416,-0.2684,-0.122,0.01952,0.09272,-0.0976
0.03416,-0.07808,0.122,0.10492,0.08784,-0.02684,-0.31232,-0.244,-0.11712,0,0.06832,-0.11712
0.01952,-0.06344,0.10736,0.0976,0.08784,-0.03416,-0.28304,-0.2196,-0.10248,0,0.05368,-0.122
0.02928,-0.05612,0.08296,0.06832,0.05368,-0.0122,-0.26352,-0.20496,-0.10248,-0.00488,0.03904,-0.1464
0.02928,-0.05856,0.08784,0.0732,0.05856,-0.01464,-0.244,-0.1952,-0.10248,-0.01952,0.02928,-0.1708
0.03904,-0.05612,0.0732,0.05368,0.03416,0.00244,-0.20496,-0.16104,-0.08296,-0.00488,0.01952,-0.17568
0.04392,-0.05124,0.05856,0.0366,0.01464,0.01464,-0.18056,-0.13176,-0.0732,-0.00488,0.00488,-0.19032
0.05368,-0.05124,0.0488,0.02196,-0.00488,0.02928,-0.16592,-0.11712,-0.06832,-0.0244,-0.00488,-0.20984
0.05856,-0.0488,0.03904,0.00976,-0.01952,0.03904,-0.13664,-0.0976,-0.05368,-0.04392,-0.03416,-0.244
0.04392,-0.04636,0.0488,0.02684,0.00488,0.01952,-0.0976,-0.08296,-0.02928,-0.02928,-0.02928,-0.22448
0.03416,-0.04636,0.05856,0.04148,0.0244,0.00488,-0.0732,-0.06344,-0.0244,-0.00976,-0.00976,-0.2196
-0.00488,-0.01464,0.03416,0.0366,0.03904,-0.02196,-0.04392,-0.03416,-0.00976,0,-0.01464,-0.21472
-0.03416,0.00976,0.01464,0.03172,0.0488,-0.04148,-0.0244,-0.00488,0,-0.00488,-0.01952,-0.2196
-0.04392,0.01708,0.00976,0.03172,0.05368,-0.0488,-0.0244,-0.00976,0,-0.00488,-0.0244,-0.23424
-0.04392,0.02196,0,0.02196,0.04392,-0.04392,-0.01952,-0.0244,0,-0.00976,-0.01952,-0.23912
-0.02928,0.0122,0.00488,0.01952,0.03416,-0.03172,-0.01464,-0.00976,-0.00976,-0.02928,-0.02928,-0.244
-0.00976,0.00244,0.00488,0.00976,0.01464,-0.0122,-0.01464,-0.00976,-0.0244,-0.02928,-0.05368,-0.244
-0.01464,0.0122,-0.00976,-0.00244,0.00488,-0.00976,-0.00488,-0.01952,-0.01464,-0.03904,-0.05368,-0.244
-0.00488,0.00976,-0.01464,-0.0122,-0.00976,0.00244,-0.00488,-0.0244,-0.0244,-0.04392,-0.06344,-0.26352
-0.01464,0.01952,-0.0244,-0.01708,-0.00976,-0.00244,-0.01464,-0.0244,-0.03416,-0.05856,-0.0732,-0.27816
0,0.01464,-0.02928,-0.02928,-0.02928,0.01464,-0.0244,-0.0244,-0.03416,-0.06344,-0.07808,-0.27328
-0.02928,0.0244,-0.01952,-0.00488,0.00976,-0.01952,0.00488,-0.00976,-0.0244,-0.05368,-0.06832,-0.25376
-0.04392,0.02928,-0.01464,0.00732,0.02928,-0.0366,0.00976,-0.00976,-0.01464,-0.04392,-0.06832,-0.244
-0.04392,0.03172,-0.01952,0.00244,0.0244,-0.03416,0,-0.01464,-0.01952,-0.03904,-0.05856,-0.244
-0.03904,0.02684,-0.01464,0.00488,0.0244,-0.03172,0.00488,-0.01464,-0.01952,-0.04392,-0.05856,-0.25864
-0.04392,0.0244,-0.00488,0.01708,0.03904,-0.04148,0.01464,0,-0.01952,-0.0488,-0.06344,-0.25376
-0.04392,0.02684,-0.00976,0.0122,0.03416,-0.03904,0.01464,0,-0.01952,-0.04392,-0.05856,-0.23912
-0.03416,0.02196,-0.00976,0.00732,0.0244,-0.02928,0.00976,-0.00488,-0.01464,-0.03904,-0.06832,-0.23912
-0.03904,0.03172,-0.0244,-0.00488,0.01464,-0.02684,0.00488,0,-0.00976,-0.03904,-0.06832,-0.24888
-0.02928,0.02928,-0.02928,-0.01464,0,-0.01464,0.00488,0,-0.01952,-0.04392,-0.06344,-0.24888
-0.01464,0.01464,-0.01464,-0.00732,0,-0.00732,0.00488,0.00488,-0.01464,-0.04392,-0.05368,-0.2196
-0.0244,0.01952,-0.01464,-0.00244,0.00976,-0.01708,0,-0.00488,-0.00976,-0.02928,-0.06344,-0.22936
-0.03904,0.0244,-0.00976,0.00976,0.02928,-0.03416,-0.00488,-0.00488,-0.00488,-0.01952,-0.05856,-0.23912
-0.02928,0.01952,-0.00976,0.00488,0.01952,-0.0244,0.00488,0.00488,0,-0.01464,-0.04392,-0.2196
-0.00976,0.00732,-0.00488,0,0.00488,-0.00732,0.00976,0.00976,0,-0.01464,-0.03416,-0.1952
0.00488,-0.00244,0,-0.00244,-0.00488,0.00488,0.00488,0.01464,0.00976,0,-0.03416,-0.1952
0.01464,-0.0122,0.00976,0.00244,-0.00488,0.00976,-0.00488,0.01464,0.00976,-0.00976,-0.03416,-0.1952
0.00488,-0.00488,0.00488,0.00244,0,0.00244,0.00488,0.01464,0.01952,0,-0.0244,-0.1952
0.00488,-0.00976,0.01464,0.0122,0.00976,-0.00244,0.00488,0.01464,0.01952,0,-0.01464,-0.20008
0.00488,-0.00732,0.00976,0.00732,0.00488,0,0,0.00976,0.0244,0.01464,0,-0.18544
-0.00976,0,0.00976,0.01464,0.01952,-0.01464,-0.00488,0.00488,0.0244,0.01464,0,-0.17568
0,-0.0122,0.0244,0.0244,0.0244,-0.0122,0.00488,0.00976,0.02928,0.01952,0,-0.15128
-0.00488,-0.01464,0.03416,0.0366,0.03904,-0.02196,0.00488,0.01952,0.03416,0.02928,0.01464,-0.1464
-0.00488,-0.01708,0.03904,0.04148,0.04392,-0.0244,0.00488,0.00976,0.03416,0.01952,0.00976,-0.15128
-0.00488,-0.01708,0.03904,0.04148,0.04392,-0.0244,0.00488,0.00976,0.03416,0.02928,0.00976,-0.15128
0.00976,-0.0244,0.03904,0.03416,0.02928,-0.00976,-0.00488,0,0.0244,0.01952,-0.00488,-0.16592
0,-0.01464,0.02928,0.02928,0.02928,-0.01464,-0.01952,-0.00488,0.01464,0.01952,0,-0.1708
0.00488,-0.01708,0.02928,0.02684,0.0244,-0.00976,-0.00976,-0.00488,0.01464,0.01464,-0.00488,-0.16104
0.00488,-0.01708,0.02928,0.02684,0.0244,-0.00976,-0.00976,0,0.01464,0.01464,-0.00976,-0.16104
0,-0.01952,0.03904,0.03904,0.03904,-0.01952,-0.00488,0,0.01952,0.0244,-0.00976,-0.14152
-0.01464,-0.01464,0.04392,0.05124,0.05856,-0.0366,0.00976,0.00488,0.03416,0.03416,0.00488,-0.15128
-0.01952,-0.01708,0.05368,0.06344,0.0732,-0.04636,0.01952,0.00976,0.0488,0.04392,0.0244,-0.13664
-0.01952,-0.01952,0.05856,0.06832,0.07808,-0.0488,0.02928,0.01952,0.05368,0.0488,0.0244,-0.12688
-0.00976,-0.03172,0.0732,0.07808,0.08296,-0.04636,0.03416,0.03904,0.06832,0.03904,0.0244,-0.13664
-0.01464,-0.03416,0.08296,0.09028,0.0976,-0.05612,0.05368,0.04392,0.0732,0.05368,0.03416,-0.11224
-0.00976,-0.05368,0.11712,0.122,0.12688,-0.06832,0.05368,0.0488,0.08296,0.06344,0.03416,-0.11712
-0.00976,-0.06832,0.1464,0.15128,0.15616,-0.08296,0.05856,0.0488,0.08784,0.08296,0.0488,-0.10248
-0.0244,-0.06832,0.16104,0.17324,0.18544,-0.10492,0.03904,0.0488,0.09272,0.08784,0.05368,-0.08784
-0.03416,-0.07808,0.19032,0.2074,0.22448,-0.12932,0.03904,0.0488,0.0976,0.0976,0.07808,-0.0488
-0.04392,-0.07808,0.20008,0.22204,0.244,-0.14396,0.01952,0.02928,0.0976,0.0976,0.07808,-0.0488
-0.03416,-0.08784,0.20984,0.22692,0.244,-0.13908,-0.01464,-0.00488,0.08296,0.09272,0.0732,-0.06344
-0.01952,-0.10248,0.22448,0.23424,0.244,-0.13176,-0.03904,-0.03416,0.05856,0.07808,0.0488,-0.0732
-0.02928,-0.10004,0.22936,0.244,0.25864,-0.14396,-0.04392,-0.05368,0.0488,0.06344,0.0488,-0.07808
-0.03904,-0.10736,0.25376,0.27328,0.2928,-0.16592,-0.05368,-0.05856,0.0488,0.06832,0.0488,-0.0732
-0.03904,-0.11956,0.27816,0.29768,0.3172,-0.17812,-0.05368,-0.0732,0.0488,0.06344,0.04392,-0.05856
-0.02928,-0.11224,0.25376,0.2684,0.28304,-0.15616,-0.0488,-0.05856,0.0488,0.06344,0.04392,-0.06344
-0.0244,-0.09028,0.20496,0.21716,0.22936,-0.12688,-0.0488,-0.05856,0.0244,0.05368,0.0244,-0.07808
-0.0244,-0.07564,0.17568,0.18788,0.20008,-0.11224,-0.05856,-0.06344,0.00488,0.02928,0.00488,-0.10248
-0.03416,-0.04392,0.122,0.13908,0.15616,-0.09516,-0.0488,-0.06832,0.00488,0.00976,0,-0.10736
-0.0244,-0.02196,0.06832,0.08052,0.09272,-0.05856,-0.03416,-0.05368,0.00976,0.00976,0,-0.11712
-0.0244,-0.00976,0.04392,0.05612,0.06832,-0.04636,-0.0244,-0.02928,0.00976,0.01464,-0.00488,-0.122
-0.0244,0.00244,0.01952,0.03172,0.04392,-0.03416,-0.01464,-0.0244,-0.00488,0.00488,-0.01464,-0.13176
-0.03416,0.0244,-0.01464,0.00244,0.01952,-0.02684,-0.02928,-0.02928,-0.01952,-0.01464,-0.03416,-0.15128
-0.02928,0.03416,-0.03904,-0.0244,-0.00976,-0.00976,-0.02928,-0.03904,-0.03416,-0.04392,-0.0488,-0.1708
-0.0244,0.0366,-0.0488,-0.0366,-0.0244,0,-0.03904,-0.05368,-0.0488,-0.06344,-0.06832,-0.18056
-0.02928,0.04148,-0.05368,-0.03904,-0.0244,-0.00244,-0.04392,-0.05856,-0.06832,-0.06344,-0.06832,-0.19032
-0.03904,0.0488,-0.05856,-0.03904,-0.01952,-0.00976,-0.04392,-0.05856,-0.06344,-0.05856,-0.06832,-0.18056
-0.02928,0.04392,-0.05856,-0.04392,-0.02928,0,-0.03416,-0.05368,-0.05856,-0.05856,-0.06344,-0.1708
-0.0244,0.0488,-0.0732,-0.061,-0.0488,0.0122,-0.04392,-0.05856,-0.05856,-0.05856,-0.06344,-0.18056
-0.01952,0.04636,-0.0732,-0.06344,-0.05368,0.01708,-0.04392,-0.05856,-0.05856,-0.06832,-0.0732,-0.18056
-0.02928,0.0488,-0.06832,-0.05368,-0.03904,0.00488,-0.03904,-0.05368,-0.05368,-0.06344,-0.06832,-0.17568
-0.0244,0.04636,-0.06832,-0.05612,-0.04392,0.00976,-0.02928,-0.04392,-0.05368,-0.05856,-0.05856,-0.1708
-0.01464,0.03904,-0.06344,-0.05612,-0.0488,0.01708,-0.02928,-0.05368,-0.05368,-0.05856,-0.06344,-0.17568
0.00488,0.0244,-0.05368,-0.05612,-0.05856,0.03172,-0.02928,-0.05856,-0.06344,-0.06832,-0.06832,-0.18056
0.00488,0.03416,-0.0732,-0.07564,-0.07808,0.04148,-0.04392,-0.06832,-0.08296,-0.0732,-0.07808,-0.1952
-0.01464,0.05368,-0.09272,-0.0854,-0.07808,0.03172,-0.05368,-0.0732,-0.09272,-0.08784,-0.0976,-0.20496
-0.04392,0.06588,-0.08784,-0.06588,-0.04392,0,-0.04392,-0.06344,-0.0732,-0.06832,-0.07808,-0.20008
-0.03416,0.04636,-0.05856,-0.04148,-0.0244,-0.00488,-0.00976,-0.01952,-0.0488,-0.0488,-0.0488,-0.17568
-0.08296,0.07076,-0.05856,-0.01708,0.0244,-0.05368,0.02928,0.00488,0,-0.00976,-0.02928,-0.15128
-0.0488,0.06344,-0.07808,-0.05368,-0.02928,-0.00976,0.0244,0.00976,0.00976,-0.00488,-0.03416,-0.1464
-0.00488,0.03172,-0.05856,-0.05612,-0.05368,0.0244,0.00488,0.01952,0.05856,0.07808,0.0488,-0.08296
0.04392,-0.00488,-0.03416,-0.05612,-0.07808,0.061,-0.05368,-0.00976,0.08296,0.15616,0.18056,0.05368
0.08784,-0.06588,0.04392,0,-0.04392,0.06588,-0.10248,-0.0488,0.09272,0.23912,0.28792,0.19032
0.13664,-0.11956,0.10248,0.03416,-0.03416,0.0854,-0.16104,-0.02928,0.20008,0.43432,0.51728,0.4392
0.22448,-0.17568,0.12688,0.01464,-0.0976,0.16104,-0.22448,-0.0244,0.3172,0.62952,0.80032,0.71736
0.31232,-0.244,0.17568,0.01952,-0.13664,0.22448,-0.27816,0,0.37576,0.77104,1.00528,0.93208
0.41968,-0.305,0.19032,-0.01952,-0.22936,0.32452,-0.25864,0.07808,0.40504,0.76616,0.99552,0.92232
0.4148,-0.28548,0.15616,-0.05124,-0.25864,0.33672,-0.13176,0.23424,0.5124,0.7564,0.94672,0.83936
0.28304,-0.16592,0.0488,-0.09272,-0.23424,0.25864,0,0.244,0.38064,0.42944,0.51728,0.366
0.01464,0.0488,-0.11224,-0.11956,-0.12688,0.07076,0.07808,0.10248,-0.00488,-0.18056,-0.21472,-0.2928
-0.02928,0.14884,-0.2684,-0.25376,-0.23912,0.10492,0.12688,0.08784,-0.16592,-0.40504,-0.46848,-0.52704
-0.03416,0.17568,-0.3172,-0.30012,-0.28304,0.12444,0.10248,0.0732,-0.16104,-0.3904,-0.46848,-0.55632
-0.0732,0.19764,-0.32208,-0.28548,-0.24888,0.08784,0.2196,0.20984,-0.05856,-0.34648,-0.45384,-0.57584
-0.14152,0.22936,-0.3172,-0.24644,-0.17568,0.01708,0.36112,0.32696,0.01464,-0.3172,-0.45872,-0.61
-0.20496,0.26596,-0.32696,-0.22448,-0.122,-0.04148,0.55144,0.49776,0.12688,-0.25864,-0.42944,-0.60512
-0.23424,0.2806,-0.32696,-0.20984,-0.09272,-0.07076,0.65392,0.5856,0.13664,-0.25864,-0.42944,-0.61488
-0.23912,0.24644,-0.25376,-0.1342,-0.01464,-0.11224,0.73688,0.64416,0.20008,-0.20496,-0.38064,-0.57584
-0.27816,0.2562,-0.23424,-0.09516,0.04392,-0.16104,0.84424,0.72224,0.2684,-0.1464,-0.33672,-0.5368
-0.25376,0.2318,-0.20984,-0.08296,0.04392,-0.14884,1.0248,0.88816,0.35136,-0.0732,-0.26352,-0.45872
-0.22448,0.23912,-0.25376,-0.14152,-0.02928,-0.0976,1.1712,1.02968,0.40992,-0.03416,-0.22448,-0.42944
-0.20984,0.244,-0.27816,-0.17324,-0.06832,-0.07076,1.22976,1.03456,0.37576,-0.03904,-0.2196,-0.41968
-0.23424,0.24156,-0.24888,-0.13176,-0.01464,-0.1098,1.342,1.09312,0.4392,0.00976,-0.15616,-0.366
-0.2928,0.2562,-0.2196,-0.0732,0.0732,-0.183,1.47864,1.21024,0.50264,0.08296,-0.0976,-0.30256
-0.28792,0.26108,-0.23424,-0.09028,0.05368,-0.1708,1.57136,1.27856,0.54656,0.122,-0.04392,-0.24888
-0.23912,0.22448,-0.20984,-0.09028,0.02928,-0.1342,1.44936,1.17608,0.50752,0.122,-0.00976,-0.2196
-0.21472,0.2196,-0.22448,-0.11712,-0.00976,-0.10248,1.15656,0.89304,0.38552,0.07808,-0.04392,-0.21472
-0.08784,0.10736,-0.12688,-0.08296,-0.03904,-0.0244,0.67832,0.41968,0.12688,-0.02928,-0.0976,-0.22448
-0.10248,0.09516,-0.08784,-0.0366,0.01464,-0.05856,0.28792,0.08784,-0.04392,-0.08296,-0.10736,-0.20496
-0.10248,0.0854,-0.06832,-0.01708,0.03416,-0.06832,0.13664,-0.00976,-0.06832,-0.07808,-0.07808,-0.16592
-0.06344,0.06588,-0.06832,-0.0366,-0.00488,-0.02928,0.05856,-0.0488,-0.08296,-0.08296,-0.07808,-0.16104
-0.00976,0.02684,-0.04392,-0.03904,-0.03416,0.0122,-0.00976,-0.07808,-0.0976,-0.07808,-0.08784,-0.15616
-0.00488,0.0122,-0.01952,-0.01708,-0.01464,0.00488,-0.08784,-0.122,-0.11224,-0.08784,-0.08296,-0.15128
-0.00976,0.0122,-0.01464,-0.00976,-0.00488,-0.00244,-0.11712,-0.13664,-0.12688,-0.08784,-0.07808,-0.13176
-0.0244,0.02196,-0.01952,-0.00732,0.00488,-0.01464,-0.122,-0.14152,-0.122,-0.08784,-0.07808,-0.13176
-0.01952,0.0244,-0.02928,-0.01952,-0.00976,-0.00488,-0.122,-0.14152,-0.122,-0.08296,-0.0732,-0.13176
-0.00976,0.02196,-0.03416,-0.02928,-0.0244,0.00732,-0.13176,-0.14152,-0.122,-0.0732,-0.06344,-0.13664
-0.00976,0.01952,-0.02928,-0.0244,-0.01952,0.00488,-0.13664,-0.1464,-0.122,-0.0732,-0.05856,-0.12688
0.00488,0.00488,-0.01464,-0.01708,-0.01952,0.0122,-0.14152,-0.15616,-0.122,-0.08296,-0.06344,-0.12688
0.01464,-0.00244,-0.00976,-0.01708,-0.0244,0.01952,-0.14152,-0.15616,-0.122,-0.08296,-0.06344,-0.12688
0.0244,-0.00488,-0.01464,-0.02684,-0.03904,0.03172,-0.15128,-0.16104,-0.12688,-0.08296,-0.06832,-0.13664
0.0488,-0.0122,-0.0244,-0.0488,-0.0732,0.061,-0.16592,-0.18056,-0.13176,-0.09272,-0.0732,-0.14152
0.0488,-0.01708,-0.01464,-0.03904,-0.06344,0.05612,-0.16592,-0.17568,-0.12688,-0.07808,-0.06344,-0.13664
0.05368,-0.02928,0.00488,-0.02196,-0.0488,0.05124,-0.1708,-0.1708,-0.12688,-0.07808,-0.05856,-0.122
0.0244,-0.01708,0.00976,-0.00244,-0.01464,0.01952,-0.15616,-0.15616,-0.10736,-0.05856,-0.04392,-0.0976
-0.01464,0,0.01464,0.02196,0.02928,-0.02196,-0.15128,-0.15616,-0.0976,-0.03904,-0.01952,-0.0732
-0.03416,0.01708,0,0.01708,0.03416,-0.03416,-0.15616,-0.16104,-0.10248,-0.04392,-0.01952,-0.06344
-0.03416,0.01952,-0.00488,0.0122,0.02928,-0.03172,-0.19032,-0.17568,-0.122,-0.05368,-0.02928,-0.07808
0.00488,-0.00488,0.00488,0.00244,0,0.00244,-0.20008,-0.1708,-0.11712,-0.0488,-0.02928,-0.07808
0.03416,-0.02196,0.00976,-0.00732,-0.0244,0.02928,-0.20984,-0.1708,-0.11712,-0.05368,-0.02928,-0.07808
0.05856,-0.03416,0.00976,-0.01952,-0.0488,0.05368,-0.20984,-0.17568,-0.11712,-0.05368,-0.01464,-0.09272
0.09272,-0.05612,0.01952,-0.02684,-0.0732,0.08296,-0.21472,-0.19032,-0.11712,-0.0488,-0.00976,-0.07808
0.08296,-0.06344,0.04392,0.00244,-0.03904,0.061,-0.21472,-0.19032,-0.10736,-0.0244,0.00976,-0.05368
0.04392,-0.05612,0.06832,0.04636,0.0244,0.00976,-0.21472,-0.18544,-0.09272,-0.00976,0.02928,-0.0244
0.02928,-0.05856,0.08784,0.0732,0.05856,-0.01464,-0.22448,-0.19032,-0.08784,0.00976,0.0488,0.00488
0.02928,-0.06344,0.0976,0.08296,0.06832,-0.01952,-0.23424,-0.1952,-0.07808,0.0244,0.07808,0.03416
0.04392,-0.0732,0.10248,0.08052,0.05856,-0.00732,-0.25864,-0.2196,-0.0976,0.01952,0.07808,0.04392
0.07808,-0.09516,0.11224,0.0732,0.03416,0.02196,-0.28792,-0.23424,-0.0976,0.0244,0.07808,0.03904
0.08296,-0.10004,0.11712,0.07564,0.03416,0.0244,-0.29768,-0.244,-0.10736,0.0244,0.08784,0.03416
0.07808,-0.0976,0.11712,0.07808,0.03904,0.01952,-0.3172,-0.26352,-0.10248,0.03416,0.11224,0.06344
0.08296,-0.0976,0.11224,0.07076,0.02928,0.02684,-0.3416,-0.27328,-0.10736,0.0244,0.11224,0.0732
0.10736,-0.11224,0.11712,0.06344,0.00976,0.0488,-0.35136,-0.2928,-0.11712,0.0244,0.122,0.06832
0.12688,-0.12932,0.13176,0.06832,0.00488,0.061,-0.366,-0.30744,-0.11712,0.03904,0.13176,0.07808
0.1464,-0.15616,0.16592,0.09272,0.01952,0.06344,-0.37576,-0.31232,-0.12688,0.04392,0.13176,0.0976
0.15616,-0.16348,0.1708,0.09272,0.01464,0.07076,-0.3904,-0.32208,-0.13664,0.04392,0.12688,0.10248
0.15616,-0.1586,0.16104,0.08296,0.00488,0.07564,-0.40992,-0.33184,-0.14152,0.03416,0.13176,0.10736
0.1464,-0.15616,0.16592,0.09272,0.01952,0.06344,-0.41968,-0.33672,-0.15128,0.03904,0.13664,0.11712
0.122,-0.1464,0.1708,0.1098,0.0488,0.0366,-0.42456,-0.3416,-0.15616,0.02928,0.13176,0.11712
0.122,-0.14396,0.16592,0.10492,0.04392,0.03904,-0.43432,-0.36112,-0.17568,0.01464,0.11712,0.0976
0.12688,-0.14152,0.15616,0.09272,0.02928,0.0488,-0.44408,-0.37088,-0.17568,0.00488,0.10736,0.0976
0.10248,-0.122,0.14152,0.09028,0.03904,0.03172,-0.44896,-0.37088,-0.1708,0,0.0976,0.10736
0.10248,-0.11712,0.13176,0.08052,0.02928,0.0366,-0.42456,-0.35136,-0.1708,0,0.10736,0.0976
0.10248,-0.11712,0.13176,0.08052,0.02928,0.0366,-0.40016,-0.33672,-0.16104,0.01464,0.11224,0.0976
0.10248,-0.11712,0.13176,0.08052,0.02928,0.0366,-0.38064,-0.3172,-0.15128,0.00976,0.10248,0.08296
0.11224,-0.122,0.13176,0.07564,0.01952,0.04636,-0.37088,-0.29768,-0.15616,-0.00976,0.07808,0.06832
0.11712,-0.11468,0.11224,0.05368,-0.00488,0.061,-0.35136,-0.2928,-0.15616,-0.01952,0.06344,0.0488
0.11712,-0.10492,0.09272,0.03416,-0.0244,0.07076,-0.3416,-0.2928,-0.15616,-0.01952,0.0488,0.02928
0.10736,-0.09516,0.08296,0.02928,-0.0244,0.06588,-0.3172,-0.27328,-0.1464,-0.02928,0.03416,0.01952
0.0732,-0.07076,0.06832,0.03172,-0.00488,0.03904,-0.27328,-0.23424,-0.122,-0.01464,0.03904,0.01464
0.03904,-0.061,0.08296,0.06344,0.04392,-0.00244,-0.24888,-0.20984,-0.10248,-0.01464,0.0244,0
0.02928,-0.05368,0.07808,0.06344,0.0488,-0.00976,-0.22448,-0.18056,-0.08784,-0.00976,0.02928,0
0.03416,-0.0488,0.06344,0.04636,0.02928,0.00244,-0.1952,-0.16104,-0.07808,-0.00488,0.0244,-0.00488
0.02928,-0.03904,0.0488,0.03416,0.01952,0.00488,-0.16104,-0.13176,-0.06344,0.00488,0.0244,-0.01464
0.0244,-0.0366,0.0488,0.0366,0.0244,0,-0.12688,-0.10248,-0.03904,0,0.00976,-0.04392
0.0244,-0.03172,0.03904,0.02684,0.01464,0.00488,-0.11712,-0.08296,-0.0244,-0.01464,0,-0.05856
0.01464,-0.02196,0.02928,0.02196,0.01464,0,-0.09272,-0.06344,-0.01464,0,0.00976,-0.0488
0.00976,-0.01952,0.02928,0.0244,0.01952,-0.00488,-0.06832,-0.04392,-0.00488,0,-0.00488,-0.06832
0.00488,-0.00976,0.01464,0.0122,0.00976,-0.00244,-0.04392,-0.03904,0,-0.00488,-0.00976,-0.0732
0,-0.00976,0.01952,0.01952,0.01952,-0.00976,-0.01464,-0.01952,0.00488,-0.00488,-0.01952,-0.06832
-0.00976,0,0.00976,0.01464,0.01952,-0.01464,-0.00976,-0.00488,0.01464,0,-0.00976,-0.08296
0,-0.00732,0.01464,0.01464,0.01464,-0.00732,-0.01952,-0.00976,0.00488,-0.01464,-0.01464,-0.0976
0.00488,-0.00976,0.01464,0.0122,0.00976,-0.00244,-0.01464,-0.01464,-0.00488,-0.01952,-0.03416,-0.10248
-0.00976,0.00488,0,0.00488,0.00976,-0.00976,-0.00976,-0.00976,-0.01464,-0.02928,-0.05368,-0.11712
-0.01952,0.01708,-0.01464,-0.00488,0.00488,-0.0122,-0.01952,-0.01952,-0.01464,-0.03416,-0.05368,-0.11712
-0.03416,0.02928,-0.0244,-0.00732,0.00976,-0.02196,-0.01952,-0.01464,-0.01464,-0.03416,-0.06344,-0.12688
-0.0244,0.0244,-0.0244,-0.0122,0,-0.0122,-0.00976,-0.01464,-0.0244,-0.05368,-0.06344,-0.12688
-0.00488,0.0122,-0.01952,-0.01708,-0.01464,0.00488,0.00976,-0.00976,-0.01952,-0.03904,-0.0488,-0.11224
-0.00488,0.01464,-0.0244,-0.02196,-0.01952,0.00732,0.01464,0.00488,-0.00976,-0.02928,-0.0488,-0.10248
-0.00976,0.02196,-0.03416,-0.02928,-0.0244,0.00732,-0.00488,-0.00976,-0.0244,-0.03904,-0.05856,-0.11224
0,0.01952,-0.03904,-0.03904,-0.03904,0.01952,-0.01464,-0.01952,-0.03416,-0.06344,-0.07808,-0.13664
-0.00488,0.01708,-0.02928,-0.02684,-0.0244,0.00976,0,-0.00488,-0.02928,-0.05856,-0.0732,-0.13176
-0.02928,0.02684,-0.0244,-0.00976,0.00488,-0.01708,0.00976,0.00488,-0.00976,-0.03416,-0.05368,-0.0976
-0.0244,0.01952,-0.01464,-0.00244,0.00976,-0.01708,0.00976,-0.00488,-0.00976,-0.03416,-0.04392,-0.08784
-0.01464,0.0122,-0.00976,-0.00244,0.00488,-0.00976,0.00488,-0.00976,-0.01464,-0.04392,-0.05368,-0.0976
-0.0244,0.0244,-0.0244,-0.0122,0,-0.0122,0,0,-0.01464,-0.03904,-0.0488,-0.09272
-0.0244,0.02196,-0.01952,-0.00732,0.00488,-0.01464,0.00976,0.00488,-0.00488,-0.02928,-0.03904,-0.06344
-0.02928,0.01708,-0.00488,0.00976,0.0244,-0.02684,0.00488,0.01464,0.01464,-0.01952,-0.02928,-0.05368
-0.04392,0.02196,0,0.02196,0.04392,-0.04392,0.00976,0.0244,0.0244,0.00488,-0.01464,-0.06344
-0.02928,0.00976,0.00976,0.0244,0.03904,-0.03416,-0.00488,0.00488,0.01464,0,-0.00976,-0.06832
-0.00976,-0.00244,0.01464,0.01952,0.0244,-0.01708,-0.00488,0.00976,0.01464,0,-0.01952,-0.05856
0.00976,-0.01708,0.0244,0.01952,0.01464,-0.00244,0.00976,0.01464,0.01464,0.00976,-0.01464,-0.05368
0.01464,-0.02928,0.04392,0.0366,0.02928,-0.00732,-0.00488,0.01464,0.01952,0.00976,-0.01464,-0.0488
0.01952,-0.03172,0.04392,0.03416,0.0244,-0.00244,-0.00488,0.00488,0.01464,0.01464,-0.01952,-0.0488
0.02928,-0.03172,0.03416,0.01952,0.00488,0.0122,-0.00488,0.00488,0.01952,0.01464,-0.01464,-0.05368
0.03416,-0.03172,0.02928,0.0122,-0.00488,0.01952,0.00488,0.01464,0.0244,0.01952,-0.00488,-0.0488
0.01464,-0.02196,0.02928,0.02196,0.01464,0,0.00976,0.01952,0.0244,0.0244,0,-0.03416
-0.00976,-0.00488,0.01952,0.0244,0.02928,-0.01952,0.00488,0.00976,0.0244,0.02928,0.00976,-0.01464
-0.00976,-0.00732,0.0244,0.02928,0.03416,-0.02196,0.00488,0.01952,0.03904,0.03416,0.01952,-0.01464
-0.0244,0.00488,0.01464,0.02684,0.03904,-0.03172,0.00488,0.01952,0.03904,0.03416,0.01952,-0.01952
-0.01464,-0.00732,0.02928,0.0366,0.04392,-0.02928,-0.00488,0.00976,0.02928,0.0244,0.00488,-0.01464
0.01952,-0.02928,0.03904,0.02928,0.01952,0,-0.01464,0.00488,0.01952,0.00488,-0.00488,-0.01952
0.02928,-0.03172,0.03416,0.01952,0.00488,0.0122,-0.01952,-0.00976,0.00976,-0.00488,-0.01952,-0.03904
0.01952,-0.02928,0.03904,0.02928,0.01952,0,-0.00488,0,0.01952,0.00488,-0.00488,-0.03904
-0.00488,-0.01708,0.03904,0.04148,0.04392,-0.0244,0,0.00976,0.02928,0.01952,0.00976,-0.02928
-0.0244,-0.00976,0.04392,0.05612,0.06832,-0.04636,0.00488,0.00976,0.02928,0.02928,0.00976,-0.01464
-0.03904,-0.00244,0.04392,0.06344,0.08296,-0.061,0.00976,0.00976,0.02928,0.03904,0.01464,0
-0.03904,-0.00732,0.05368,0.0732,0.09272,-0.06588,0.01464,0.01952,0.0488,0.04392,0.0244,-0.00488
-0.01952,-0.01708,0.05368,0.06344,0.0732,-0.04636,0.0244,0.0244,0.0488,0.0488,0.0244,0
-0.01952,-0.02684,0.0732,0.08296,0.09272,-0.05612,0.03416,0.0244,0.05856,0.0488,0.03416,0
-0.0244,-0.03172,0.08784,0.10004,0.11224,-0.06832,0.03904,0.02928,0.06344,0.05368,0.03416,0.01464
-0.01464,-0.04148,0.0976,0.10492,0.11224,-0.06344,0.06344,0.04392,0.05368,0.05856,0.03904,0.00976
0.01464,-0.06588,0.11712,0.1098,0.10248,-0.04392,0.0488,0.03904,0.05368,0.05856,0.03904,0
-0.03904,-0.04636,0.13176,0.15128,0.1708,-0.10492,0.06832,0.0488,0.08784,0.06832,0.03904,0.00488
-0.02928,-0.08296,0.1952,0.20984,0.22448,-0.12688,0.01952,0.00976,0.07808,0.07808,0.05856,0.01952
-0.01952,-0.09272,0.20496,0.21472,0.22448,-0.122,0.01952,0.00976,0.07808,0.07808,0.05856,0.02928
-0.01952,-0.09272,0.20496,0.21472,0.22448,-0.122,0.01952,0.00976,0.07808,0.07808,0.05856,0.03904
-0.0244,-0.0854,0.1952,0.2074,0.2196,-0.122,-0.00976,-0.01952,0.0732,0.08784,0.06344,0.0488
-0.0244,-0.0854,0.1952,0.2074,0.2196,-0.122,-0.01952,-0.02928,0.05856,0.08296,0.05368,0.0488
-0.0244,-0.10004,0.22448,0.23668,0.24888,-0.13664,-0.03416,-0.0488,0.0488,0.07808,0.0488,0.04392
-0.0244,-0.11712,0.25864,0.27084,0.28304,-0.15372,-0.0488,-0.05368,0.04392,0.0732,0.0488,0.04392
-0.01464,-0.12444,0.26352,0.27084,0.27816,-0.1464,-0.04392,-0.05856,0.0488,0.0732,0.05368,0.0488
-0.01464,-0.10004,0.21472,0.22204,0.22936,-0.122,-0.02928,-0.04392,0.03416,0.06344,0.03904,0.02928
-0.0244,-0.0732,0.1708,0.183,0.1952,-0.1098,-0.0488,-0.06344,0.01464,0.03904,0.0244,0.00976
-0.0244,-0.05368,0.13176,0.14396,0.15616,-0.09028,-0.03904,-0.05856,0.00488,0.01952,0.00976,-0.01464
-0.0244,-0.0244,0.0732,0.0854,0.0976,-0.061,-0.04392,-0.0488,-0.00488,0.00976,-0.00976,-0.03416
-0.03416,0.00732,0.01952,0.0366,0.05368,-0.04392,-0.02928,-0.03416,0,0.00976,-0.00976,-0.04392
-0.0244,0.00976,0.00488,0.01708,0.02928,-0.02684,-0.01952,-0.01464,-0.00976,-0.00976,-0.02928,-0.0488
-0.01464,0.01952,-0.0244,-0.01708,-0.00976,-0.00244,-0.01464,-0.01464,-0.01464,-0.01464,-0.03904,-0.05856
0.00976,0.00732,-0.0244,-0.02928,-0.03416,0.02196,-0.01952,-0.03904,-0.0488,-0.0488,-0.05368,-0.0732
0.01464,0.00976,-0.03416,-0.04148,-0.0488,0.03172,-0.0244,-0.04392,-0.05368,-0.0488,-0.06344,-0.08296
0.0244,0.00488,-0.03416,-0.04636,-0.05856,0.04148,-0.04392,-0.05856,-0.0732,-0.06344,-0.07808,-0.10248
0.00976,0.01464,-0.03904,-0.04392,-0.0488,0.02928,-0.04392,-0.06832,-0.0732,-0.06344,-0.07808,-0.10248
-0.01952,0.03416,-0.0488,-0.03904,-0.02928,0.00488,-0.02928,-0.04392,-0.0488,-0.0488,-0.06344,-0.08784
-0.0488,0.05612,-0.06344,-0.03904,-0.01464,-0.01708,-0.0244,-0.03416,-0.03904,-0.0488,-0.05368,-0.0732
-0.06344,0.0732,-0.08296,-0.05124,-0.01952,-0.02196,-0.0244,-0.0488,-0.0488,-0.05856,-0.06832,-0.09272
-0.05856,0.07564,-0.09272,-0.06344,-0.03416,-0.0122,-0.0244,-0.0488,-0.06344,-0.0732,-0.08296,-0.10736
-0.0488,0.06832,-0.08784,-0.06344,-0.03904,-0.00488,-0.03416,-0.0488,-0.06344,-0.06832,-0.08296,-0.09272
-0.0244,0.05124,-0.07808,-0.06588,-0.05368,0.01464,-0.04392,-0.0488,-0.06344,-0.06832,-0.08296,-0.0976
-0.01464,0.04636,-0.07808,-0.07076,-0.06344,0.0244,-0.03904,-0.05368,-0.06832,-0.07808,-0.07808,-0.09272
-0.01464,0.0488,-0.08296,-0.07564,-0.06832,0.02684,-0.03904,-0.06344,-0.07808,-0.07808,-0.08296,-0.09272
-0.00488,0.03904,-0.0732,-0.07076,-0.06832,0.03172,-0.03904,-0.05856,-0.07808,-0.06832,-0.0732,-0.09272
-0.00488,0.04148,-0.07808,-0.07564,-0.0732,0.03416,-0.03904,-0.05856,-0.0732,-0.0732,-0.0732,-0.09272
0.01464,0.02684,-0.06832,-0.07564,-0.08296,0.0488,-0.03416,-0.06344,-0.0732,-0.06832,-0.08784,-0.0976
-0.03416,0.04636,-0.05856,-0.04148,-0.0244,-0.00488,-0.01464,-0.04392,-0.05856,-0.06832,-0.07808,-0.0976
-0.01464,0.04148,-0.06832,-0.061,-0.05368,0.01952,0.01952,0,-0.01464,-0.02928,-0.05368,-0.0976
-0.01464,0.03416,-0.05368,-0.04636,-0.03904,0.0122,0.03416,0.03904,0.04392,0.04392,0.00488,-0.01464
0.00488,0.01952,-0.04392,-0.04636,-0.0488,0.02684,0.0244,0.06344,0.11224,0.15616,0.16592,0.14152
0.05856,-0.00976,-0.03904,-0.06832,-0.0976,0.07808,-0.08784,-0.05856,0.06832,0.18544,0.2196,0.22936
0.13176,-0.09516,0.05856,-0.00732,-0.0732,0.10248,-0.16104,-0.06832,0.12688,0.33184,0.40992,0.42944
0.244,-0.17812,0.11224,-0.00976,-0.13176,0.18788,-0.20984,-0.04392,0.22936,0.5368,0.6832,0.72224
0.28304,-0.22448,0.16592,0.0244,-0.11712,0.20008,-0.24888,-0.0244,0.32208,0.71736,0.93696,0.97112
0.34648,-0.27084,0.1952,0.02196,-0.15128,0.24888,-0.22448,0.06344,0.39528,0.74176,0.98576,1.02968
0.3904,-0.26596,0.14152,-0.05368,-0.24888,0.31964,-0.17568,0.17568,0.4636,0.72712,0.93696,0.94184
0.35624,-0.2074,0.05856,-0.11956,-0.29768,0.32696,-0.06344,0.20984,0.35624,0.47824,0.59048,0.55144
0.10736,0.0244,-0.15616,-0.20984,-0.26352,0.18544,0.03416,0.08784,0.00976,-0.11224,-0.13176,-0.122
-0.05856,0.183,-0.30744,-0.27816,-0.24888,0.09516,0.122,0.05368,-0.2196,-0.45384,-0.52704,-0.488
-0.0976,0.22204,-0.34648,-0.29768,-0.24888,0.07564,0.10736,0.07808,-0.16592,-0.40992,-0.50264,-0.50752
-0.0732,0.20252,-0.33184,-0.29524,-0.25864,0.09272,0.16104,0.14152,-0.13664,-0.38064,-0.49288,-0.52216
-0.122,0.26108,-0.40016,-0.33916,-0.27816,0.07808,0.29768,0.25376,-0.06344,-0.38552,-0.52704,-0.5856
-0.122,0.24888,-0.37576,-0.31476,-0.25376,0.06588,0.488,0.42944,0.05856,-0.3172,-0.48312,-0.56608
-0.24888,0.3172,-0.38552,-0.26108,-0.13664,-0.05612,0.59536,0.52704,0.0976,-0.2928,-0.47824,-0.57584
-0.2684,0.3172,-0.366,-0.2318,-0.0976,-0.0854,0.67832,0.59048,0.13176,-0.25864,-0.44408,-0.53192
-0.22448,0.24888,-0.27328,-0.16104,-0.0488,-0.08784,0.79544,0.6588,0.19032,-0.20984,-0.3904,-0.47824
-0.23424,0.24644,-0.25864,-0.14152,-0.0244,-0.10492,0.95648,0.78568,0.27328,-0.1464,-0.33184,-0.42944
-0.26352,0.26108,-0.25864,-0.12688,0.00488,-0.1342,1.08824,0.91256,0.33672,-0.07808,-0.26352,-0.36112
-0.26352,0.28548,-0.30744,-0.17568,-0.04392,-0.1098,1.18584,0.976,0.35136,-0.06344,-0.23912,-0.33184
-0.27816,0.29768,-0.3172,-0.17812,-0.03904,-0.11956,1.23952,0.94672,0.28792,-0.0976,-0.23912,-0.32208
-0.26352,0.29524,-0.32696,-0.1952,-0.06344,-0.10004,1.38104,1.06384,0.37088,-0.04392,-0.1952,-0.28792
-0.25376,0.27572,-0.29768,-0.1708,-0.04392,-0.10492,1.464,1.14192,0.40016,0,-0.16592,-0.25376
-0.20008,0.24888,-0.29768,-0.19764,-0.0976,-0.05124,1.47864,1.13704,0.41968,0.0244,-0.13176,-0.23424
-0.20496,0.23912,-0.27328,-0.1708,-0.06832,-0.06832,1.3176,0.99064,0.37576,0.03904,-0.08784,-0.17568
-0.15128,0.18056,-0.20984,-0.1342,-0.05856,-0.04636,0.95648,0.62464,0.1952,-0.0244,-0.10736,-0.1464
-0.07808,0.10004,-0.122,-0.08296,-0.04392,-0.01708,0.49288,0.22936,0.01952,-0.08784,-0.1464,-0.13664
-0.07808,0.09516,-0.11224,-0.0732,-0.03416,-0.02196,0.20008,-0.00976,-0.08296,-0.11712,-0.13664,-0.13176
-0.03416,0.061,-0.08784,-0.07076,-0.05368,0.00976,0.06344,-0.06832,-0.10736,-0.10248,-0.11224,-0.11224
-0.0488,0.05612,-0.06344,-0.03904,-0.01464,-0.01708,0.02928,-0.07808,-0.10248,-0.10248,-0.0976,-0.08296
-0.05368,0.05612,-0.05856,-0.03172,-0.00488,-0.0244,-0.0244,-0.08296,-0.11712,-0.09272,-0.0976,-0.07808
-0.03904,0.0488,-0.05856,-0.03904,-0.01952,-0.00976,-0.08784,-0.12688,-0.122,-0.08784,-0.07808,-0.0732
-0.03416,0.03904,-0.04392,-0.02684,-0.00976,-0.0122,-0.122,-0.13664,-0.122,-0.08784,-0.07808,-0.06344
-0.03416,0.04392,-0.05368,-0.0366,-0.01952,-0.00732,-0.10248,-0.13176,-0.11224,-0.08296,-0.07808,-0.05368
-0.02928,0.04148,-0.05368,-0.03904,-0.0244,-0.00244,-0.0976,-0.13664,-0.11224,-0.08296,-0.0732,-0.05856
0,0.01708,-0.03416,-0.03416,-0.03416,0.01708,-0.12688,-0.13664,-0.122,-0.08296,-0.06832,-0.06344
0.02928,-0.00732,-0.01464,-0.02928,-0.04392,0.0366,-0.14152,-0.13664,-0.122,-0.08296,-0.06344,-0.05368
0.01464,0.00976,-0.03416,-0.04148,-0.0488,0.03172,-0.14152,-0.1464,-0.13176,-0.08296,-0.06344,-0.05856
-0.00488,0.02196,-0.03904,-0.0366,-0.03416,0.01464,-0.14152,-0.15616,-0.13176,-0.07808,-0.06344,-0.05856
-0.00976,0.0244,-0.03904,-0.03416,-0.02928,0.00976,-0.15128,-0.15616,-0.11712,-0.07808,-0.06344,-0.05368
-0.01952,0.01952,-0.01952,-0.00976,0,-0.00976,-0.15616,-0.15128,-0.11712,-0.06832,-0.05856,-0.05368
0.00488,0.00976,-0.0244,-0.02684,-0.02928,0.01708,-0.15616,-0.16592,-0.12688,-0.07808,-0.05856,-0.05368
0.0244,0,-0.0244,-0.0366,-0.0488,0.0366,-0.16104,-0.16592,-0.12688,-0.07808,-0.05856,-0.0488
0.03416,-0.00488,-0.0244,-0.04148,-0.05856,0.04636,-0.17568,-0.16104,-0.122,-0.07808,-0.05856,-0.05856
0.03416,-0.00488,-0.0244,-0.04148,-0.05856,0.04636,-0.17568,-0.1708,-0.11712,-0.07808,-0.05856,-0.05856
0.0244,-0.0122,0,-0.0122,-0.0244,0.0244,-0.17568,-0.15616,-0.0976,-0.05856,-0.03416,-0.02928
0.02928,-0.01952,0.00976,-0.00488,-0.01952,0.0244,-0.1708,-0.15128,-0.08784,-0.03416,-0.01464,-0.01464
0.02928,-0.01708,0.00488,-0.00976,-0.0244,0.02684,-0.18544,-0.16104,-0.0976,-0.03416,-0.01952,-0.01464
0.01952,-0.00976,0,-0.00976,-0.01952,0.01952,-0.19032,-0.16104,-0.09272,-0.03904,-0.00976,-0.00488
0.06344,-0.03416,0.00488,-0.02684,-0.05856,0.061,-0.20008,-0.17568,-0.0976,-0.03416,-0.00488,-0.00976
0.08296,-0.05124,0.01952,-0.02196,-0.06344,0.0732,-0.2196,-0.18544,-0.10248,-0.03416,0,0.00488
0.05368,-0.04148,0.02928,0.00244,-0.0244,0.03904,-0.22936,-0.17568,-0.09272,-0.01952,0.01952,0.01952
0.0244,-0.04148,0.05856,0.04636,0.03416,-0.00488,-0.22936,-0.17568,-0.08784,-0.01464,0.03904,0.0488
0.04392,-0.0488,0.05368,0.03172,0.00976,0.01708,-0.24888,-0.19032,-0.08784,0,0.04392,0.0488
0.05368,-0.05368,0.05368,0.02684,0,0.02684,-0.26352,-0.20008,-0.09272,0.00976,0.05856,0.06344
0.06832,-0.06832,0.06832,0.03416,0,0.03416,-0.2684,-0.1952,-0.0732,0.0244,0.07808,0.08784
0.07808,-0.07564,0.0732,0.03416,-0.00488,0.04148,-0.27816,-0.20984,-0.07808,0.02928,0.0976,0.10736
0.12688,-0.10736,0.08784,0.0244,-0.03904,0.08296,-0.32208,-0.23424,-0.0976,0.02928,0.09272,0.122
0.14152,-0.11712,0.09272,0.02196,-0.0488,0.09516,-0.34648,-0.25864,-0.11224,0.0244,0.09272,0.13176
0.10736,-0.09516,0.08296,0.02928,-0.0244,0.06588,-0.35136,-0.26352,-0.10248,0.03416,0.11712,0.1464
0.08784,-0.09028,0.09272,0.0488,0.00488,0.04148,-0.366,-0.27328,-0.10248,0.04392,0.13664,0.15128
0.10736,-0.0976,0.08784,0.03416,-0.01952,0.06344,-0.38064,-0.2928,-0.13176,0.02928,0.11712,0.14152
0.11712,-0.1098,0.10248,0.04392,-0.01464,0.06588,-0.3904,-0.29768,-0.13176,0.02928,0.11712,0.16104
0.12688,-0.1098,0.09272,0.02928,-0.03416,0.08052,-0.40504,-0.30744,-0.13664,0.01952,0.11712,0.16104
0.13664,-0.11468,0.09272,0.0244,-0.04392,0.09028,-0.41968,-0.3172,-0.14152,0.01952,0.12688,0.16592
0.122,-0.122,0.122,0.061,0,0.061,-0.40992,-0.30744,-0.13176,0.0244,0.13176,0.17568
0.11712,-0.12444,0.13176,0.0732,0.01464,0.05124,-0.40992,-0.32208,-0.14152,0.01952,0.12688,0.1708
0.13664,-0.1342,0.13176,0.06344,-0.00488,0.07076,-0.41968,-0.32696,-0.1464,0.01952,0.122,0.17568
0.122,-0.12688,0.13176,0.07076,0.00976,0.05612,-0.42456,-0.32696,-0.15128,0.01952,0.122,0.17568
0.10248,-0.1098,0.11712,0.06588,0.01464,0.04392,-0.4148,-0.33672,-0.15128,0.01464,0.10248,0.16104
0.07808,-0.0976,0.11712,0.07808,0.03904,0.01952,-0.40504,-0.32696,-0.15128,0.00488,0.0976,0.1464
0.0976,-0.0976,0.0976,0.0488,0,0.0488,-0.38064,-0.30256,-0.16104,-0.00976,0.08296,0.14152
0.09272,-0.09028,0.08784,0.04148,-0.00488,0.0488,-0.36112,-0.28792,-0.1464,-0.00976,0.0732,0.14152
0.09272,-0.08784,0.08296,0.0366,-0.00976,0.05124,-0.34648,-0.26352,-0.13664,-0.00976,0.0732,0.11712
0.08784,-0.07808,0.06832,0.0244,-0.01952,0.05368,-0.33184,-0.25864,-0.13176,-0.00976,0.05368,0.08784
0.08296,-0.07808,0.0732,0.03172,-0.00976,0.04636,-0.30256,-0.244,-0.13664,-0.02928,0.03904,0.06832
0.06832,-0.06832,0.06832,0.03416,0,0.03416,-0.27328,-0.2196,-0.122,-0.02928,0.03416,0.06344
0.0488,-0.05124,0.05368,0.02928,0.00488,0.02196,-0.244,-0.18544,-0.10248,-0.0244,0.01952,0.05856
0.02928,-0.04392,0.05856,0.04392,0.02928,0,-0.21472,-0.16592,-0.09272,-0.02928,0.00976,0.04392
0.01952,-0.02684,0.03416,0.0244,0.01464,0.00244,-0.1952,-0.15128,-0.0732,-0.0244,0.01952,0.02928
0.0244,-0.02196,0.01952,0.00732,-0.00488,0.01464,-0.1708,-0.122,-0.06344,-0.0244,0.00488,0.01464
0.0244,-0.02196,0.01952,0.00732,-0.00488,0.01464,-0.15616,-0.11712,-0.0488,-0.01464,-0.00488,0.01464
0.01952,-0.01464,0.00976,0,-0.00976,0.01464,-0.12688,-0.0976,-0.03416,-0.0244,-0.0244,-0.00976
0.00488,-0.00244,0,-0.00244,-0.00488,0.00488,-0.08784,-0.06344,-0.01952,-0.02928,-0.01952,0
-0.00488,0.00244,0,0.00244,0.00488,-0.00488,-0.0732,-0.04392,-0.01464,-0.01952,-0.00976,-0.00488
-0.00488,0.00488,-0.00488,-0.00244,0,-0.00244,-0.04392,-0.03416,-0.00976,-0.01952,-0.0244,-0.01952
-0.00488,0.00976,-0.01464,-0.0122,-0.00976,0.00244,-0.0244,-0.01464,-0.00976,-0.0244,-0.02928,-0.0244
0.00488,0.00732,-0.01952,-0.02196,-0.0244,0.01464,-0.0244,-0.01952,-0.00976,-0.04392,-0.05368,-0.0488
0.00488,0.0122,-0.02928,-0.03172,-0.03416,0.01952,-0.01952,-0.0244,-0.00976,-0.0488,-0.05856,-0.06344
-0.01952,0.03172,-0.04392,-0.03416,-0.0244,0.00244,-0.01464,-0.00976,-0.00976,-0.0488,-0.0488,-0.0488
-0.02928,0.04148,-0.05368,-0.03904,-0.0244,-0.00244,-0.01464,-0.00976,-0.0244,-0.03904,-0.05368,-0.0488
-0.03416,0.04636,-0.05856,-0.04148,-0.0244,-0.00488,0.00488,0,-0.00488,-0.02928,-0.05368,-0.03904
-0.03416,0.04392,-0.05368,-0.0366,-0.01952,-0.00732,0.01464,0.00488,-0.01464,-0.03416,-0.06344,-0.05856
-0.04392,0.05368,-0.06344,-0.04148,-0.01952,-0.0122,0.00488,-0.00488,-0.03416,-0.06832,-0.08296,-0.09272
-0.02928,0.0488,-0.06832,-0.05368,-0.03904,0.00488,0.00488,-0.01464,-0.03416,-0.08296,-0.0976,-0.0976
-0.02928,0.05368,-0.07808,-0.06344,-0.0488,0.00976,0.00488,-0.00976,-0.03416,-0.0732,-0.08784,-0.07808
-0.03416,0.05856,-0.08296,-0.06588,-0.0488,0.00732,0,-0.00976,-0.03416,-0.06344,-0.07808,-0.06832
-0.03416,0.05124,-0.06832,-0.05124,-0.03416,0,0.00976,-0.00488,-0.02928,-0.06832,-0.08784,-0.07808
-0.01952,0.0366,-0.05368,-0.04392,-0.03416,0.00732,0.01464,-0.00488,-0.02928,-0.0732,-0.08784,-0.09272
-0.0244,0.03416,-0.04392,-0.03172,-0.01952,-0.00244,0.01464,0,-0.02928,-0.06832,-0.09272,-0.07808
-0.03416,0.04148,-0.0488,-0.03172,-0.01464,-0.00976,0.01464,0,-0.02928,-0.06344,-0.08784,-0.06344
-0.03416,0.04148,-0.0488,-0.03172,-0.01464,-0.00976,0.00976,0.00488,-0.03416,-0.05856,-0.07808,-0.06344
-0.0488,0.05124,-0.05368,-0.02928,-0.00488,-0.02196,0.00488,0.00976,-0.02928,-0.05856,-0.07808,-0.0732
-0.0488,0.05368,-0.05856,-0.03416,-0.00976,-0.01952,0.00488,0,-0.01952,-0.05368,-0.0732,-0.06344
-0.03416,0.04392,-0.05368,-0.0366,-0.01952,-0.00732,0.00488,0.00488,-0.01464,-0.05368,-0.06344,-0.03416
-0.01464,0.03904,-0.06344,-0.05612,-0.0488,0.01708,0.00976,0.00488,-0.00976,-0.0488,-0.06344,-0.04392
-0.01952,0.03904,-0.05856,-0.0488,-0.03904,0.00976,0.00488,0.00488,-0.00488,-0.03904,-0.05856,-0.05368
-0.02928,0.03904,-0.0488,-0.03416,-0.01952,-0.00488,0.00488,0.00488,0,-0.03416,-0.05368,-0.04392
-0.01952,0.03172,-0.04392,-0.03416,-0.0244,0.00244,0.00976,0.00976,0,-0.03416,-0.04392,-0.02928
-0.01464,0.02684,-0.03904,-0.03172,-0.0244,0.00488,0.01464,0.0244,0.00976,-0.00976,-0.03416,-0.02928
-0.01464,0.01708,-0.01952,-0.0122,-0.00488,-0.00488,0.01464,0.0244,0.00976,-0.01952,-0.03416,-0.02928
-0.0244,0.01464,-0.00488,0.00732,0.01952,-0.02196,0.01464,0.01464,0.02928,0.00976,-0.01464,-0.00976
-0.0244,0.00976,0.00488,0.01708,0.02928,-0.02684,0.00488,0.01464,0.02928,0.00976,0.00488,-0.00488
-0.03416,0.01708,0,0.01708,0.03416,-0.03416,0.01952,0.02928,0.04392,0.0244,0,0.00976
-0.0488,0.0244,0,0.0244,0.0488,-0.0488,0.01464,0.03416,0.04392,0.0244,0,0.00976
-0.02928,0.01708,-0.00488,0.00976,0.0244,-0.02684,0.01464,0.01952,0.03904,0.00976,0,0.01464
-0.01464,0.01464,-0.01464,-0.00732,0,-0.00732,0.01464,0.02928,0.04392,0.01952,0.01464,0.01952
-0.01464,0.0122,-0.00976,-0.00244,0.00488,-0.00976,-0.00488,0.00976,0.03416,0.00976,0,0.01464
-0.01464,0.0122,-0.00976,-0.00244,0.00488,-0.00976,-0.01464,0,0.0244,0.01952,0,0.01464
-0.00976,0.00976,-0.00976,-0.00488,0,-0.00488,-0.00488,0,0.01464,0,-0.01464,0
-0.01952,0.01952,-0.01952,-0.00976,0,-0.00976,-0.00976,-0.00488,0.01464,0,-0.00976,-0.00488
-0.03416,0.01708,0,0.01708,0.03416,-0.03416,0.00976,0.01464,0.03416,0.0244,0.01464,0.01464
-0.03416,0.0122,0.00976,0.02684,0.04392,-0.03904,0.01952,0.03904,0.05368,0.04392,0.02928,0.03416
-0.00976,-0.01464,0.03904,0.04392,0.0488,-0.02928,0.00488,0.01952,0.03904,0.03416,0.01952,0.03416
-0.00488,-0.0244,0.05368,0.05612,0.05856,-0.03172,0.01952,0.01464,0.04392,0.03416,0.03416,0.0244
-0.01952,-0.01708,0.05368,0.06344,0.0732,-0.04636,0.02928,0.02928,0.05856,0.03416,0.03416,0.03904
-0.01952,-0.01952,0.05856,0.06832,0.07808,-0.0488,0.03904,0.03904,0.06344,0.03904,0.0244,0.03904
-0.02928,-0.02196,0.0732,0.08784,0.10248,-0.06588,0.05368,0.05856,0.07808,0.0488,0.03416,0.0488
-0.03416,-0.0244,0.08296,0.10004,0.11712,-0.07564,0.08296,0.0732,0.08296,0.0732,0.05368,0.08296
-0.0488,-0.04392,0.13664,0.16104,0.18544,-0.11712,0.08296,0.07808,0.11224,0.10248,0.0732,0.0976
-0.00976,-0.08296,0.17568,0.18056,0.18544,-0.0976,0.03904,0.03904,0.08784,0.08296,0.06832,0.10248
-0.03904,-0.06832,0.17568,0.1952,0.21472,-0.12688,0.0244,0.03416,0.0976,0.08784,0.07808,0.10736
-0.03904,-0.06832,0.17568,0.1952,0.21472,-0.12688,0.01464,0.0244,0.0976,0.08784,0.07808,0.10736
-0.02928,-0.07808,0.18544,0.20008,0.21472,-0.122,-0.00976,-0.00488,0.08296,0.08296,0.0732,0.10736
-0.00488,-0.09272,0.19032,0.19276,0.1952,-0.10004,-0.04392,-0.03416,0.05856,0.06832,0.0488,0.10736
-0.00488,-0.10492,0.21472,0.21716,0.2196,-0.11224,-0.03904,-0.03904,0.06344,0.06832,0.05368,0.11224
-0.0244,-0.11224,0.24888,0.26108,0.27328,-0.14884,-0.03904,-0.03416,0.0732,0.08296,0.06344,0.12688
-0.0244,-0.11468,0.25376,0.26596,0.27816,-0.15128,-0.05368,-0.0488,0.06832,0.06832,0.05368,0.13176
-0.0244,-0.0976,0.2196,0.2318,0.244,-0.1342,-0.0488,-0.04392,0.0488,0.05856,0.05368,0.11712
-0.01952,-0.06832,0.15616,0.16592,0.17568,-0.0976,-0.05368,-0.06344,0.01952,0.02928,0.00976,0.07808
-0.00976,-0.05856,0.12688,0.13176,0.13664,-0.0732,-0.0732,-0.07808,-0.00976,-0.00488,-0.01952,0.03416
-0.01952,-0.03416,0.08784,0.0976,0.10736,-0.06344,-0.05368,-0.06832,-0.01464,-0.00976,-0.01952,0.03904
-0.03904,-0.00244,0.04392,0.06344,0.08296,-0.061,-0.02928,-0.03416,0.00976,0.00976,0,0.0488
-0.05368,0.02196,0.00976,0.0366,0.06344,-0.05856,-0.01464,-0.01952,0.00976,0,0,0.0488
-0.05368,0.03904,-0.0244,0.00244,0.02928,-0.04148,-0.00488,-0.01464,-0.00488,-0.01952,-0.01952,0.02928
-0.04392,0.05124,-0.05856,-0.0366,-0.01464,-0.01464,-0.01464,-0.0244,-0.0244,-0.03904,-0.04392,0.01464
-0.01952,0.04636,-0.0732,-0.06344,-0.05368,0.01708,-0.0244,-0.04392,-0.0488,-0.05856,-0.05856,-0.00488
-0.01464,0.04392,-0.0732,-0.06588,-0.05856,0.02196,-0.03416,-0.0488,-0.05856,-0.06832,-0.06344,-0.00976
-0.01952,0.04392,-0.06832,-0.05856,-0.0488,0.01464,-0.02928,-0.04392,-0.05856,-0.05856,-0.05368,-0.00976
-0.01952,0.03904,-0.05856,-0.0488,-0.03904,0.00976,-0.02928,-0.04392,-0.05368,-0.05856,-0.05368,-0.00976
-0.00976,0.03416,-0.05856,-0.05368,-0.0488,0.01952,-0.02928,-0.0488,-0.0488,-0.05856,-0.05856,-0.00976
-0.01952,0.04148,-0.06344,-0.05368,-0.04392,0.0122,-0.02928,-0.05368,-0.05856,-0.0488,-0.05368,-0.01952
-0.0244,0.04392,-0.06344,-0.05124,-0.03904,0.00732,-0.01952,-0.04392,-0.05856,-0.05856,-0.06344,-0.00976
-0.02928,0.05124,-0.0732,-0.05856,-0.04392,0.00732,-0.01952,-0.04392,-0.06344,-0.0732,-0.0732,-0.01952
-0.0244,0.05368,-0.08296,-0.07076,-0.05856,0.01708,-0.02928,-0.05368,-0.06344,-0.06832,-0.0732,-0.01464
-0.02928,0.05856,-0.08784,-0.0732,-0.05856,0.01464,-0.03416,-0.0488,-0.05856,-0.05856,-0.06832,-0.01464
-0.03904,0.06344,-0.08784,-0.06832,-0.0488,0.00488,-0.0244,-0.04392,-0.05856,-0.06832,-0.06344,-0.00976
-0.04392,0.06832,-0.09272,-0.07076,-0.0488,0.00244,-0.01952,-0.05368,-0.05856,-0.06832,-0.06344,-0.01464
-0.04392,0.06832,-0.09272,-0.07076,-0.0488,0.00244,-0.01952,-0.0488,-0.05856,-0.0732,-0.0732,-0.01464
0.00488,0.04636,-0.0976,-0.10004,-0.10248,0.05368,-0.04392,-0.0732,-0.06344,-0.07808,-0.08784,-0.03416
-0.00488,0.04636,-0.08784,-0.0854,-0.08296,0.03904,-0.00976,-0.02928,-0.0488,-0.05856,-0.06832,-0.02928
-0.01464,0.04636,-0.07808,-0.07076,-0.06344,0.0244,0.01952,-0.00488,-0.00976,-0.02928,-0.0488,-0.01464
-0.00976,0.0488,-0.08784,-0.08296,-0.07808,0.03416,0.0244,0.00976,0.02928,0.01464,-0.01464,0.02928
-0.00488,0.01708,-0.02928,-0.02684,-0.0244,0.00976,0.0244,0.0488,0.10736,0.1464,0.1464,0.19032
0.04392,-0.00976,-0.0244,-0.04636,-0.06832,0.05612,-0.0732,-0.01952,0.08296,0.1952,0.2196,0.29768
0.05856,-0.04148,0.0244,-0.00488,-0.03416,0.04636,-0.13176,-0.05856,0.122,0.29768,0.37576,0.43432
0.1952,-0.13908,0.08296,-0.01464,-0.11224,0.15372,-0.20008,-0.05856,0.22936,0.50264,0.64416,0.732
0.26352,-0.20984,0.15616,0.0244,-0.10736,0.18544,-0.244,-0.01464,0.35624,0.73688,0.94672,1.0492
0.33184,-0.244,0.15616,-0.00976,-0.17568,0.25376,-0.25864,0.03904,0.39528,0.7808,1.0248,1.11752
0.38064,-0.26108,0.14152,-0.0488,-0.23912,0.30988,-0.19032,0.15616,0.45384,0.7564,0.98576,1.0492
0.3172,-0.18788,0.05856,-0.10004,-0.25864,0.28792,-0.09272,0.18544,0.40504,0.57096,0.71248,0.74176
0.15616,-0.00976,-0.13664,-0.21472,-0.2928,0.22448,0,0.08784,0.08784,0.00976,0.02928,0.08296
-0.01464,0.15616,-0.29768,-0.29036,-0.28304,0.1342,0.07808,0.0244,-0.22936,-0.4636,-0.51728,-0.40016
-0.03904,0.19764,-0.35624,-0.33672,-0.3172,0.13908,0.0976,0.0488,-0.18544,-0.4148,-0.49776,-0.42944
-0.06344,0.20008,-0.33672,-0.305,-0.27328,0.10492,0.14152,0.122,-0.13176,-0.38064,-0.45872,-0.41968
-0.11224,0.23668,-0.36112,-0.305,-0.24888,0.06832,0.29768,0.2684,-0.01952,-0.32696,-0.45384,-0.4392
-0.16104,0.26352,-0.366,-0.28548,-0.20496,0.02196,0.4392,0.38552,0.05368,-0.3172,-0.45872,-0.47336
-0.20496,0.28548,-0.366,-0.26352,-0.16104,-0.02196,0.58072,0.49776,0.08784,-0.29768,-0.46848,-0.49776
-0.244,0.29524,-0.34648,-0.22448,-0.10248,-0.07076,0.6832,0.57584,0.12688,-0.2684,-0.4392,-0.47824
-0.23912,0.25132,-0.26352,-0.14396,-0.0244,-0.10736,0.77592,0.65392,0.20984,-0.1952,-0.36112,-0.3904
-0.20984,0.21716,-0.22448,-0.11956,-0.01464,-0.0976,0.89304,0.74176,0.2684,-0.13664,-0.3172,-0.35136
-0.22448,0.22692,-0.22936,-0.11712,-0.00488,-0.1098,1.0248,0.8296,0.30256,-0.11224,-0.28304,-0.32208
-0.23424,0.244,-0.25376,-0.13664,-0.01952,-0.10736,1.14192,0.91256,0.32208,-0.08296,-0.244,-0.2928
-0.24888,0.27816,-0.30744,-0.183,-0.05856,-0.09516,1.20048,0.90768,0.28792,-0.0976,-0.23912,-0.26352
-0.23424,0.2806,-0.32696,-0.20984,-0.09272,-0.07076,1.32248,1.01504,0.35136,-0.03904,-0.17568,-0.2196
-0.244,0.27084,-0.29768,-0.17568,-0.05368,-0.09516,1.42008,1.0736,0.39528,-0.00488,-0.1464,-0.18544
-0.22936,0.2562,-0.28304,-0.16836,-0.05368,-0.08784,1.49328,1.1224,0.4392,0.04392,-0.09272,-0.16104
-0.19032,0.2196,-0.24888,-0.15372,-0.05856,-0.06588,1.38104,1.0004,0.40016,0.04392,-0.08784,-0.122
-0.1464,0.18056,-0.21472,-0.14152,-0.06832,-0.03904,1.05896,0.7076,0.25864,0.00976,-0.09272,-0.08784
-0.13664,0.1464,-0.15616,-0.08784,-0.01952,-0.05856,0.58072,0.27328,0.0488,-0.0488,-0.10736,-0.07808
-0.10248,0.09028,-0.07808,-0.02684,0.0244,-0.06344,0.22936,-0.00976,-0.0732,-0.10248,-0.11712,-0.0488
-0.04392,0.04636,-0.0488,-0.02684,-0.00488,-0.01952,0.12688,-0.0488,-0.07808,-0.0976,-0.0976,-0.01952
-0.03416,0.0366,-0.03904,-0.02196,-0.00488,-0.01464,0.0488,-0.05856,-0.08296,-0.09272,-0.08784,-0.00488
0.01952,0.0122,-0.04392,-0.05368,-0.06344,0.04148,-0.02928,-0.07808,-0.10736,-0.07808,-0.07808,0
0.0244,0.00244,-0.02928,-0.04148,-0.05368,0.03904,-0.07808,-0.10248,-0.0976,-0.06832,-0.0732,0.01464
0.01952,0.00244,-0.0244,-0.03416,-0.04392,0.03172,-0.10736,-0.11712,-0.10248,-0.06832,-0.06832,0.03416
0.00976,0.00488,-0.01952,-0.0244,-0.02928,0.01952,-0.10248,-0.122,-0.10248,-0.06832,-0.06344,0.04392
0.00488,0.0122,-0.02928,-0.03172,-0.03416,0.01952,-0.10248,-0.122,-0.10248,-0.06344,-0.0488,0.04392
0.00488,0.01952,-0.04392,-0.04636,-0.0488,0.02684,-0.13176,-0.14152,-0.10248,-0.05368,-0.05368,0.02928
0.01464,0.0122,-0.03904,-0.04636,-0.05368,0.03416,-0.13664,-0.1464,-0.10248,-0.05368,-0.0488,0.03904
0.00976,0.00976,-0.02928,-0.03416,-0.03904,0.0244,-0.13176,-0.13664,-0.09272,-0.05368,-0.03416,0.05856
0.00976,0.00244,-0.01464,-0.01952,-0.0244,0.01708,-0.13176,-0.13664,-0.09272,-0.05368,-0.03416,0.05856
0.00488,0,-0.00488,-0.00732,-0.00976,0.00732,-0.12688,-0.12688,-0.09272,-0.0488,-0.0244,0.06344
0.00976,-0.00732,0.00488,0,-0.00488,0.00732,-0.13176,-0.13664,-0.08784,-0.0488,-0.01952,0.06832
0.01952,-0.01464,0.00976,0,-0.00976,0.01464,-0.1464,-0.14152,-0.08784,-0.03904,-0.0244,0.06344
0.0244,-0.0122,0,-0.0122,-0.0244,0.0244,-0.15128,-0.1464,-0.08784,-0.03904,-0.01952,0.06832
0.03416,-0.0122,-0.00976,-0.02684,-0.04392,0.03904,-0.15616,-0.15128,-0.08784,-0.03904,-0.0244,0.05856
0.03416,-0.01464,-0.00488,-0.02196,-0.03904,0.0366,-0.1708,-0.16104,-0.0976,-0.03904,-0.01952,0.06344
0.03416,-0.01464,-0.00488,-0.02196,-0.03904,0.0366,-0.16104,-0.15128,-0.08296,-0.03416,-0.00976,0.08296
0.03416,-0.01708,0,-0.01708,-0.03416,0.03416,-0.16592,-0.1464,-0.08296,-0.0244,0,0.08784
0.0488,-0.03172,0.01464,-0.00976,-0.03416,0.04148,-0.1708,-0.1464,-0.0732,-0.00976,0.00976,0.09272
0.0488,-0.03416,0.01952,-0.00488,-0.02928,0.03904,-0.18056,-0.15616,-0.08296,-0.01464,0.00976,0.10248
0.05856,-0.04148,0.0244,-0.00488,-0.03416,0.04636,-0.19032,-0.16104,-0.07808,-0.00488,0.02928,0.11224
0.0732,-0.05856,0.04392,0.00732,-0.02928,0.05124,-0.1952,-0.16592,-0.07808,0,0.04392,0.12688
0.0732,-0.06588,0.05856,0.02196,-0.01464,0.04392,-0.20008,-0.16592,-0.06344,0.01952,0.05368,0.13176
0.0732,-0.0732,0.0732,0.0366,0,0.0366,-0.20984,-0.1708,-0.05856,0.0244,0.06344,0.14152
0.08784,-0.08784,0.08784,0.04392,0,0.04392,-0.23424,-0.18056,-0.06344,0.02928,0.06832,0.15128
0.10736,-0.10248,0.0976,0.04392,-0.00976,0.05856,-0.244,-0.18544,-0.06344,0.04392,0.0976,0.18056
0.11712,-0.11224,0.10736,0.0488,-0.00976,0.06344,-0.27328,-0.20008,-0.08296,0.0488,0.10248,0.19032
0.122,-0.11468,0.10736,0.04636,-0.01464,0.06832,-0.2928,-0.21472,-0.0732,0.05368,0.11224,0.20496
0.122,-0.11712,0.11224,0.05124,-0.00976,0.06588,-0.29768,-0.23424,-0.0732,0.05368,0.122,0.20984
0.13664,-0.12932,0.122,0.05368,-0.01464,0.07564,-0.3172,-0.25376,-0.07808,0.06344,0.13664,0.23912
0.12688,-0.12688,0.12688,0.06344,0,0.06344,-0.3416,-0.2684,-0.09272,0.06344,0.1464,0.26352
0.122,-0.13176,0.14152,0.08052,0.01952,0.05124,-0.35136,-0.27816,-0.09272,0.06344,0.16592,0.2684
0.13664,-0.13664,0.13664,0.06832,0,0.06832,-0.38552,-0.28304,-0.09272,0.06344,0.16592,0.25864
0.15616,-0.14884,0.14152,0.06344,-0.01464,0.0854,-0.39528,-0.29768,-0.11224,0.05856,0.15616,0.2684
0.15128,-0.15372,0.15616,0.08052,0.00488,0.0732,-0.40504,-0.2928,-0.11224,0.06832,0.16592,0.2684
0.14152,-0.14884,0.15616,0.0854,0.01464,0.06344,-0.4148,-0.30256,-0.10736,0.06832,0.1708,0.27328
0.1464,-0.15128,0.15616,0.08296,0.00976,0.06832,-0.41968,-0.31232,-0.10736,0.05856,0.16592,0.26352
0.14152,-0.15128,0.16104,0.09028,0.01952,0.061,-0.42456,-0.32696,-0.122,0.0488,0.16104,0.26352
0.1708,-0.17324,0.17568,0.09028,0.00488,0.08296,-0.4392,-0.34648,-0.14152,0.02928,0.14152,0.244
0.1952,-0.19032,0.18544,0.08784,-0.00976,0.10248,-0.4392,-0.34648,-0.15128,0.02928,0.14152,0.244
0.18056,-0.183,0.18544,0.09516,0.00488,0.08784,-0.42944,-0.3416,-0.15128,0.03904,0.13664,0.24888
0.16104,-0.17324,0.18544,0.10492,0.0244,0.06832,-0.40504,-0.32208,-0.13176,0.03904,0.1464,0.24888
0.1464,-0.15372,0.16104,0.08784,0.01464,0.06588,-0.40016,-0.3172,-0.13176,0.03416,0.13176,0.23424
0.13664,-0.13908,0.14152,0.0732,0.00488,0.06588,-0.38064,-0.29768,-0.122,0.02928,0.122,0.2196
0.11224,-0.12932,0.1464,0.09028,0.03416,0.03904,-0.35624,-0.26352,-0.11224,0.02928,0.11712,0.21472
0.0976,-0.11712,0.13664,0.08784,0.03904,0.02928,-0.32696,-0.24888,-0.10248,0.01952,0.10248,0.1952
0.0976,-0.11468,0.13176,0.08296,0.03416,0.03172,-0.29768,-0.23912,-0.08784,0.0244,0.08784,0.16592
0.08784,-0.10492,0.122,0.07808,0.03416,0.02684,-0.26352,-0.20984,-0.07808,0.0244,0.0732,0.15616
0.09272,-0.09516,0.0976,0.05124,0.00488,0.04392,-0.23424,-0.18544,-0.0732,0.0244,0.05856,0.12688
0.0976,-0.09516,0.09272,0.04392,-0.00488,0.05124,-0.22936,-0.18056,-0.0732,0.00488,0.04392,0.10248
0.08784,-0.0854,0.08296,0.03904,-0.00488,0.04636,-0.20008,-0.15616,-0.05856,-0.00488,0.0488,0.10248
0.0732,-0.07564,0.07808,0.04148,0.00488,0.03416,-0.16104,-0.12688,-0.0488,0.00976,0.04392,0.08784
0.0488,-0.05856,0.06832,0.04392,0.01952,0.01464,-0.14152,-0.0976,-0.02928,0.0244,0.04392,0.09272
0.0244,-0.04636,0.06832,0.05612,0.04392,-0.00976,-0.10736,-0.07808,-0.01464,0.01952,0.02928,0.06344
0.02928,-0.04392,0.05856,0.04392,0.02928,0,-0.08784,-0.06344,-0.00488,0.00976,0.00976,0.05368
0.0488,-0.0488,0.0488,0.0244,0,0.0244,-0.06344,-0.04392,0.00488,0.01464,0.01952,0.05368
0.0488,-0.04636,0.04392,0.01952,-0.00488,0.02684,-0.05856,-0.0244,0.00488,0.01952,0.00488,0.03904
0.04392,-0.04148,0.03904,0.01708,-0.00488,0.0244,-0.03416,-0.01952,0.00976,0.01464,0,0.03416
0.0244,-0.03172,0.03904,0.02684,0.01464,0.00488,-0.01464,-0.00488,0.01952,0.00976,-0.00488,0.03416
0.00488,-0.01708,0.02928,0.02684,0.0244,-0.00976,-0.00976,0,0.01952,0.00488,-0.00488,0.00976
0.00976,-0.0122,0.01464,0.00976,0.00488,0.00244,-0.01952,-0.01464,0.01464,-0.01464,-0.01952,0
0.03416,-0.0244,0.01464,-0.00244,-0.01952,0.02684,-0.01464,-0.00976,0.00488,-0.01952,-0.02928,-0.00488
0.0244,-0.01708,0.00976,-0.00244,-0.01464,0.01952,-0.00488,0,-0.01464,-0.01952,-0.03416,-0.00976
0.0244,-0.00976,-0.00488,-0.01708,-0.02928,0.02684,-0.00488,-0.00976,-0.01464,-0.0244,-0.03416,-0.00976
0.00488,-0.00488,0.00488,0.00244,0,0.00244,0,-0.00976,-0.00976,-0.01952,-0.04392,-0.01952
-0.00488,0,0.00488,0.00732,0.00976,-0.00732,0.00976,0,-0.00976,-0.02928,-0.04392,-0.01952
-0.00488,-0.00244,0.00976,0.0122,0.01464,-0.00976,0.01464,-0.00488,-0.01464,-0.01464,-0.03904,-0.00976
-0.00488,0,0.00488,0.00732,0.00976,-0.00732,0.00976,0,-0.01464,-0.01464,-0.03904,-0.00976
0,-0.00244,0.00488,0.00488,0.00488,-0.00244,0,-0.01464,-0.01952,-0.01464,-0.04392,-0.01952
0.00976,-0.00488,0,-0.00488,-0.00976,0.00976,0,-0.01464,-0.01952,-0.02928,-0.05368,-0.03416
0.01464,-0.00732,0,-0.00732,-0.01464,0.01464,0.00488,0,-0.01952,-0.03904,-0.05368,-0.04392
0.00976,-0.00732,0.00488,0,-0.00488,0.00732,0.00488,0,-0.01952,-0.03416,-0.05368,-0.02928
0.01464,-0.00976,0.00488,-0.00244,-0.00976,0.0122,0.01464,0,-0.01464,-0.02928,-0.0488,-0.01464
0.00488,-0.00732,0.00976,0.00732,0.00488,0,0.01952,0.00488,-0.00976,-0.02928,-0.0488,-0.01464
-0.00976,0.00244,0.00488,0.00976,0.01464,-0.0122,0.01464,0,-0.00976,-0.0244,-0.03904,-0.01952
0,-0.00488,0.00976,0.00976,0.00976,-0.00488,0.01464,0.00488,-0.00976,-0.0244,-0.02928,0
0.01464,-0.01952,0.0244,0.01708,0.00976,0.00244,0.01464,0.01464,0.00488,-0.0244,-0.0244,0.00488
0.00976,-0.01952,0.02928,0.0244,0.01952,-0.00488,0.01952,0.0244,0.01464,-0.00976,-0.01952,-0.00488
0.00976,-0.01464,0.01952,0.01464,0.00976,0,0.00488,0.00488,0.00976,0.00488,-0.00976,0.00488
0.00976,-0.01708,0.0244,0.01952,0.01464,-0.00244,0.00488,0.00976,0.01952,0.01464,0,0.0244
0.01952,-0.0244,0.02928,0.01952,0.00976,0.00488,0.00976,0.00976,0.01952,0.01464,-0.00488,0.02928
0.0244,-0.03172,0.03904,0.02684,0.01464,0.00488,-0.00488,0,0.01464,0.00488,-0.00488,0.0244
0.0244,-0.02928,0.03416,0.02196,0.00976,0.00732,0.01464,0.00976,0.01952,0.01464,0.00488,0.03416
0.0244,-0.03416,0.04392,0.03172,0.01952,0.00244,0.01464,0.01952,0.03416,0.03416,0.01952,0.03904
0.04392,-0.04148,0.03904,0.01708,-0.00488,0.0244,0.00488,0.01464,0.04392,0.03904,0.0244,0.04392
0.04392,-0.04148,0.03904,0.01708,-0.00488,0.0244,0.00976,0.01952,0.04392,0.04392,0.02928,0.0488
0.03416,-0.04148,0.0488,0.03172,0.01464,0.00976,0.00488,0.00976,0.03904,0.03904,0.01952,0.05856
0.0244,-0.03904,0.05368,0.04148,0.02928,-0.00244,0.00488,0.01952,0.04392,0.04392,0.02928,0.0488
0.02928,-0.04636,0.06344,0.0488,0.03416,-0.00244,0.01464,0.02928,0.04392,0.0488,0.03416,0.0488
0.0488,-0.06344,0.07808,0.05368,0.02928,0.00976,0.00488,0.01952,0.04392,0.0488,0.02928,0.05368
0.05856,-0.06832,0.07808,0.0488,0.01952,0.01952,-0.00488,0.00976,0.04392,0.03904,0.01952,0.05368
0.0488,-0.061,0.0732,0.0488,0.0244,0.0122,-0.00976,0.00488,0.04392,0.03904,0.01464,0.04392
0.04392,-0.05612,0.06832,0.04636,0.0244,0.00976,-0.00488,-0.00488,0.04392,0.03904,0.02928,0.0488
0.02928,-0.0488,0.06832,0.05368,0.03904,-0.00488,0,-0.00488,0.04392,0.04392,0.03416,0.05856
0.02928,-0.0488,0.06832,0.05368,0.03904,-0.00488,-0.00488,0.00488,0.0488,0.0488,0.03904,0.06832
0.0244,-0.05124,0.07808,0.06588,0.05368,-0.01464,0,0.01464,0.0488,0.05856,0.04392,0.0732
0.01952,-0.061,0.10248,0.09272,0.08296,-0.03172,0.00488,0.01952,0.06344,0.05368,0.05856,0.06344
0.01952,-0.061,0.10248,0.09272,0.08296,-0.03172,0.01464,0.0244,0.05368,0.05856,0.0488,0.06832
0.02928,-0.07564,0.122,0.10736,0.09272,-0.03172,0.03416,0.02928,0.06832,0.05856,0.05368,0.06832
0.0244,-0.08052,0.13664,0.12444,0.11224,-0.04392,0.03904,0.0244,0.0732,0.06344,0.05368,0.08296
0.03904,-0.0854,0.13176,0.11224,0.09272,-0.02684,0.05368,0.02928,0.0732,0.0732,0.05368,0.08296
0.05856,-0.10004,0.14152,0.11224,0.08296,-0.0122,0.03904,0.03416,0.0732,0.08296,0.06344,0.08296
0,-0.08052,0.16104,0.16104,0.16104,-0.08052,0.08784,0.07808,0.10736,0.12688,0.08784,0.10248
-0.01464,-0.08784,0.19032,0.19764,0.20496,-0.1098,0.06832,0.05368,0.11224,0.10736,0.08784,0.11712
0,-0.11224,0.22448,0.22448,0.22448,-0.11224,0.03904,0.03904,0.10736,0.11712,0.08784,0.11712
0.00976,-0.122,0.23424,0.22936,0.22448,-0.10736,0.02928,0.02928,0.10736,0.11712,0.0976,0.11712
0.00976,-0.12688,0.244,0.23912,0.23424,-0.11224,0.01952,0.02928,0.10736,0.11712,0.0976,0.11712
0.00488,-0.12444,0.244,0.24156,0.23912,-0.11712,-0.01952,-0.00976,0.09272,0.11712,0.09272,0.12688
0.00488,-0.12932,0.25376,0.25132,0.24888,-0.122,-0.02928,-0.03904,0.06832,0.11224,0.08296,0.13664
0.01464,-0.14884,0.28304,0.27572,0.2684,-0.12688,-0.04392,-0.0488,0.05856,0.0976,0.07808,0.13176
0.0244,-0.1708,0.3172,0.305,0.2928,-0.1342,-0.05856,-0.05368,0.05368,0.08296,0.07808,0.13176
0.01464,-0.15372,0.2928,0.28548,0.27816,-0.13176,-0.05368,-0.0488,0.05856,0.08296,0.08296,0.1464
0.00488,-0.11956,0.23424,0.2318,0.22936,-0.11224,-0.03904,-0.03416,0.04392,0.08296,0.07808,0.12688
-0.00488,-0.0976,0.20008,0.20252,0.20496,-0.10492,-0.05856,-0.06344,0.01464,0.0488,0.03416,0.08784
-0.00488,-0.07808,0.16104,0.16348,0.16592,-0.0854,-0.05856,-0.07808,0.00488,0.01952,0.00976,0.05368
0.00488,-0.06344,0.122,0.11956,0.11712,-0.05612,-0.04392,-0.05856,0.00488,0.01952,0.00976,0.05368
0.00488,-0.04636,0.08784,0.0854,0.08296,-0.03904,-0.01952,-0.03416,0.01952,0.02928,0.00976,0.05368
-0.00488,-0.02928,0.06344,0.06588,0.06832,-0.0366,0,-0.00488,0.01952,0.02928,0.00976,0.05856
-0.00488,-0.00976,0.0244,0.02684,0.02928,-0.01708,0.01464,0.00488,0.0244,0.03416,0.00976,0.0488
0.00976,-0.00732,0.00488,0,-0.00488,0.00732,-0.00976,-0.02928,-0.01952,-0.01952,-0.03416,0.00488
0.00488,0.00488,-0.01464,-0.01708,-0.01952,0.0122,-0.0244,-0.04392,-0.03416,-0.03904,-0.05368,-0.01464
0.00488,0.00488,-0.01464,-0.01708,-0.01952,0.0122,-0.04392,-0.05856,-0.05368,-0.04392,-0.0488,-0.0244
-0.00976,0.01464,-0.01952,-0.01464,-0.00976,0,-0.04392,-0.05856,-0.05368,-0.03416,-0.0488,-0.01464
0.00976,0.00976,-0.02928,-0.03416,-0.03904,0.0244,-0.02928,-0.04392,-0.03904,-0.03904,-0.03416,0
0.00976,0.0122,-0.03416,-0.03904,-0.04392,0.02684,-0.01464,-0.03416,-0.03904,-0.03904,-0.03416,0.01464
-0.01464,0.0244,-0.03416,-0.02684,-0.01952,0.00244,-0.01464,-0.02928,-0.03904,-0.02928,-0.02928,0.01464
-0.00976,0.02196,-0.03416,-0.02928,-0.0244,0.00732,-0.01464,-0.01952,-0.04392,-0.03416,-0.03416,0.01952
0,0.01952,-0.03904,-0.03904,-0.03904,0.01952,-0.0244,-0.03904,-0.05368,-0.03904,-0.04392,0.00488
0.01464,0.0122,-0.03904,-0.04636,-0.05368,0.03416,-0.0244,-0.0488,-0.05368,-0.03904,-0.05368,-0.00976
-0.00488,0.02196,-0.03904,-0.0366,-0.03416,0.01464,-0.02928,-0.04392,-0.0488,-0.0488,-0.06832,-0.0244
-0.0244,0.03416,-0.04392,-0.03172,-0.01952,-0.00244,-0.02928,-0.05368,-0.05856,-0.0488,-0.0732,-0.0244
-0.01464,0.02928,-0.04392,-0.0366,-0.02928,0.00732,-0.01952,-0.03904,-0.0488,-0.03904,-0.06344,-0.01464
-0.01464,0.03172,-0.0488,-0.04148,-0.03416,0.00976,-0.01952,-0.03904,-0.04392,-0.04392,-0.05368,-0.01464
0.03416,0.00244,-0.03904,-0.05612,-0.0732,0.05368,-0.03416,-0.04392,-0.03416,-0.03904,-0.0488,0
0.01464,0.0122,-0.03904,-0.04636,-0.05368,0.03416,0.0244,-0.00488,-0.00976,-0.02928,-0.0488,-0.01952
-0.0244,0.03172,-0.03904,-0.02684,-0.01464,-0.00488,0.07808,0.0488,0.03416,0.03904,-0.00488,0.02928
0.01464,0.00488,-0.0244,-0.03172,-0.03904,0.02684,0.06344,0.07808,0.09272,0.11224,0.0732,0.08296
0.0244,0.00976,-0.04392,-0.05612,-0.06832,0.04636,-0.01464,0.03416,0.10248,0.15616,0.1464,0.1708
0.03904,-0.01464,-0.00976,-0.02928,-0.0488,0.04392,-0.10736,-0.03904,0.08784,0.22448,0.24888,0.30744
0.11224,-0.10492,0.0976,0.04148,-0.01464,0.06344,-0.15128,-0.03904,0.15616,0.36112,0.42944,0.49776
0.244,-0.183,0.122,0,-0.122,0.183,-0.2196,-0.04392,0.25864,0.55632,0.69296,0.76128
