i,aVR,ii,aVF,iii,aVL,V1,V2,V3,V4,V5,V6
0,0.0122,-0.0244,-0.0244,-0.0244,0.0122,0.01464,-0.00976,-0.01464,0,0.00488,-0.02928
-0.02928,0.02928,-0.02928,-0.01464,0,-0.01464,0.01952,0,0,0.00488,0.00488,-0.02928
-0.03416,0.03416,-0.03416,-0.01708,0,-0.01708,0.0244,0.00488,0,0.00976,0.01464,-0.02928
-0.02928,0.03416,-0.03904,-0.0244,-0.00976,-0.00976,0.01952,-0.00976,-0.01952,-0.00976,-0.01464,-0.03904
-0.03416,0.03172,-0.02928,-0.0122,0.00488,-0.01952,0.01952,-0.00976,-0.01952,-0.01464,-0.01464,-0.04392
-0.03904,0.0366,-0.03416,-0.01464,0.00488,-0.02196,0.01952,-0.00976,-0.01464,-0.00488,-0.00976,-0.03416
-0.04392,0.0366,-0.02928,-0.00732,0.01464,-0.02928,0.01952,0,-0.00976,-0.00488,0,-0.03416
-0.04392,0.03904,-0.03416,-0.0122,0.00976,-0.02684,0.00488,0.00488,-0.00976,-0.00488,0.00488,-0.02928
-0.04392,0.04148,-0.03904,-0.01708,0.00488,-0.0244,0.00976,0.00488,-0.00976,-0.00488,0.00488,-0.02928
-0.04392,0.04636,-0.0488,-0.02684,-0.00488,-0.01952,0.01952,0,-0.01952,-0.0244,-0.00488,-0.0488
-0.0488,0.0488,-0.0488,-0.0244,0,-0.0244,0.01952,0.00488,-0.01952,-0.0244,-0.01464,-0.0488
-0.03904,0.0366,-0.03416,-0.01464,0.00488,-0.02196,0.00488,-0.00976,-0.02928,-0.01464,-0.00976,-0.03904
-0.02928,0.03416,-0.03904,-0.0244,-0.00976,-0.00976,0,-0.00976,-0.02928,-0.00976,-0.00976,-0.03904
-0.02928,0.0244,-0.01952,-0.00488,0.00976,-0.01952,0.00976,0.00976,-0.01952,0,0.00976,-0.01952
-0.03416,0.02928,-0.0244,-0.00732,0.00976,-0.02196,0.01952,0,-0.00976,0,0.00976,-0.02928
-0.0244,0.01952,-0.01464,-0.00244,0.00976,-0.01708,0.0244,0.00488,-0.00488,-0.00488,0.00976,-0.02928
-0.01952,0.01708,-0.01464,-0.00488,0.00488,-0.0122,0.0244,0.00976,-0.00488,-0.00488,-0.00488,-0.03416
-0.02928,0.03172,-0.03416,-0.01952,-0.00488,-0.0122,0.01464,-0.00488,-0.00976,-0.00976,-0.00976,-0.03904
-0.0244,0.0366,-0.0488,-0.0366,-0.0244,0,0.01952,-0.00488,-0.01952,-0.01464,-0.00976,-0.03904
-0.0244,0.03172,-0.03904,-0.02684,-0.01464,-0.00488,0.01952,0,-0.00976,-0.00488,-0.00488,-0.03416
-0.03416,0.03904,-0.04392,-0.02684,-0.00976,-0.0122,0.01952,0,-0.00976,-0.00488,0,-0.02928
-0.0244,0.03172,-0.03904,-0.02684,-0.01464,-0.00488,0.00976,-0.01464,-0.01952,-0.01464,-0.00976,-0.03904
-0.01464,0.0244,-0.03416,-0.02684,-0.01952,0.00244,0.00488,-0.01952,-0.01952,-0.01464,-0.01464,-0.0488
-0.02928,0.0244,-0.01952,-0.00488,0.00976,-0.01952,0.01464,-0.00976,-0.00976,-0.01464,0,-0.02928
-0.03416,0.02928,-0.0244,-0.00732,0.00976,-0.02196,0.01952,0,-0.00976,-0.00976,0.00488,-0.02928
-0.0244,0.02684,-0.02928,-0.01708,-0.00488,-0.00976,0.01952,0,-0.01464,-0.01464,-0.00976,-0.03904
-0.02928,0.0244,-0.01952,-0.00488,0.00976,-0.01952,0.00976,-0.01952,-0.01952,-0.01952,-0.00976,-0.03904
-0.02928,0.0244,-0.01952,-0.00488,0.00976,-0.01952,0.00976,-0.01952,-0.01952,-0.01952,-0.00976,-0.03904
-0.04392,0.03172,-0.01952,0.00244,0.0244,-0.03416,0.01952,-0.01464,-0.00976,-0.01464,0,-0.02928
-0.05368,0.0366,-0.01952,0.00732,0.03416,-0.04392,0.01952,-0.00488,-0.00976,-0.00488,0,-0.02928
-0.0488,0.03904,-0.02928,-0.00488,0.01952,-0.03416,0.01952,0,-0.00976,-0.00976,-0.00976,-0.02928
-0.0488,0.03904,-0.02928,-0.00488,0.01952,-0.03416,0.01952,0,-0.00976,-0.00976,-0.00976,-0.02928
-0.03416,0.0366,-0.03904,-0.02196,-0.00488,-0.01464,0.00976,0,-0.01952,-0.00976,-0.00976,-0.03904
-0.0244,0.03172,-0.03904,-0.02684,-0.01464,-0.00488,0.00976,0,-0.01952,-0.00976,-0.00976,-0.03904
-0.0244,0.02684,-0.02928,-0.01708,-0.00488,-0.00976,0.00976,-0.00488,-0.02928,-0.01952,-0.00976,-0.03904
-0.0244,0.0366,-0.0488,-0.0366,-0.0244,0,0,-0.01952,-0.03416,-0.01952,-0.01464,-0.03904
-0.01464,0.02928,-0.04392,-0.0366,-0.02928,0.00732,-0.00976,-0.01952,-0.0244,-0.0244,-0.01464,-0.03904
0.01952,0.0122,-0.04392,-0.05368,-0.06344,0.04148,-0.00976,-0.01464,-0.0244,-0.0244,-0.01464,-0.03416
0.01952,0.01464,-0.0488,-0.05856,-0.06832,0.04392,0.00488,0.01464,-0.00976,-0.00976,-0.00488,-0.02928
0.03416,0.00976,-0.05368,-0.07076,-0.08784,0.061,0.00488,0.01952,-0.00488,0,0,-0.01952
0.05856,-0.00732,-0.04392,-0.0732,-0.10248,0.08052,-0.01464,0.01464,-0.00488,-0.00488,-0.00488,-0.0244
0.10248,-0.0366,-0.02928,-0.08052,-0.13176,0.11712,-0.01952,0.01952,-0.00488,-0.00488,-0.00488,-0.02928
0.08784,-0.03416,-0.01952,-0.06344,-0.10736,0.0976,0,0.02928,0,0,0.01464,-0.01464
0.0732,-0.03172,-0.00976,-0.04636,-0.08296,0.07808,0.00976,0.03416,0.00488,0.01464,0.01952,-0.00976
0.06344,-0.02928,-0.00488,-0.0366,-0.06832,0.06588,-0.01464,0.00488,-0.0244,-0.00488,0.00488,-0.0244
0.05856,-0.02196,-0.01464,-0.04392,-0.0732,0.06588,-0.0244,-0.01464,-0.03904,-0.0244,-0.00488,-0.03416
0.05368,-0.0244,-0.00488,-0.03172,-0.05856,0.05612,-0.03416,-0.00976,-0.03904,-0.0244,0,-0.0244
0.0488,-0.01952,-0.00976,-0.03416,-0.05856,0.05368,-0.02928,-0.00976,-0.03416,-0.00976,0,-0.01464
0.02928,-0.01464,0,-0.01464,-0.02928,0.02928,0,0,-0.01952,0,0.00976,-0.01464
0.01464,-0.00244,-0.00976,-0.01708,-0.0244,0.01952,0.00488,0.00488,-0.01952,0,0.01464,-0.01464
0.01464,0,-0.01464,-0.02196,-0.02928,0.02196,0.01464,-0.00488,-0.0244,-0.00488,-0.00488,-0.0244
-0.01464,0.02684,-0.03904,-0.03172,-0.0244,0.00488,0.01952,-0.01952,-0.04392,-0.0244,-0.01952,-0.03904
-0.02928,0.04392,-0.05856,-0.04392,-0.02928,0,0.00488,-0.0244,-0.05368,-0.04392,-0.03416,-0.05368
-0.05368,0.05856,-0.06344,-0.0366,-0.00976,-0.02196,0,-0.0244,-0.05368,-0.04392,-0.03904,-0.05856
-0.05856,0.0732,-0.08784,-0.05856,-0.02928,-0.01464,-0.00488,-0.0244,-0.06344,-0.0488,-0.0488,-0.05856
-0.06344,0.07564,-0.08784,-0.05612,-0.0244,-0.01952,-0.00488,-0.02928,-0.07808,-0.05856,-0.05856,-0.06832
-0.06832,0.08784,-0.10736,-0.0732,-0.03904,-0.01464,-0.01464,-0.04392,-0.07808,-0.06832,-0.05368,-0.0732
-0.05368,0.08052,-0.10736,-0.08052,-0.05368,0,-0.01464,-0.04392,-0.06832,-0.06832,-0.05368,-0.06832
-0.04392,0.05612,-0.06832,-0.04636,-0.0244,-0.00976,-0.01952,-0.04392,-0.05856,-0.04392,-0.03416,-0.06832
-0.0244,0.04148,-0.05856,-0.04636,-0.03416,0.00488,-0.01464,-0.03904,-0.05368,-0.03904,-0.0244,-0.06344
-0.02928,0.04148,-0.05368,-0.03904,-0.0244,-0.00244,-0.00976,-0.02928,-0.03416,-0.01952,-0.0244,-0.0488
-0.0488,0.05124,-0.05368,-0.02928,-0.00488,-0.02196,-0.00488,-0.0244,-0.03416,-0.0244,-0.0244,-0.0488
-0.0488,0.05612,-0.06344,-0.03904,-0.01464,-0.01708,-0.00976,-0.00488,-0.02928,-0.00976,-0.0244,-0.03416
-0.05856,0.061,-0.06344,-0.03416,-0.00488,-0.02684,-0.00488,-0.00488,-0.0244,-0.00488,-0.01952,-0.03416
-0.04392,0.0366,-0.02928,-0.00732,0.01464,-0.02928,0,-0.00488,-0.02928,-0.01464,-0.01952,-0.02928
-0.03904,0.02928,-0.01952,0,0.01952,-0.02928,0.01952,-0.00488,-0.02928,-0.01464,-0.01952,-0.03904
-0.03904,0.03904,-0.03904,-0.01952,0,-0.01952,0.02928,-0.00488,-0.02928,-0.0244,-0.01952,-0.03904
-0.03904,0.04148,-0.04392,-0.0244,-0.00488,-0.01708,0.01952,-0.01464,-0.02928,-0.02928,-0.02928,-0.0488
-0.03416,0.04148,-0.0488,-0.03172,-0.01464,-0.00976,0.01464,-0.01464,-0.03416,-0.02928,-0.03904,-0.05368
-0.03904,0.04148,-0.04392,-0.0244,-0.00488,-0.01708,0.01952,-0.01464,-0.03416,-0.02928,-0.03904,-0.05368
-0.05856,0.05368,-0.0488,-0.01952,0.00976,-0.03416,0.00976,0,-0.02928,-0.0244,-0.03416,-0.04392
-0.05856,0.05612,-0.05368,-0.0244,0.00488,-0.03172,0.01464,0.00488,-0.02928,-0.0244,-0.01952,-0.04392
-0.0976,0.0854,-0.0732,-0.0244,0.0244,-0.061,0.03904,0.04392,-0.00976,-0.00976,-0.01464,-0.04392
-0.09272,0.08296,-0.0732,-0.02684,0.01952,-0.05612,0.09272,0.10248,0.02928,-0.00976,-0.0244,-0.06344
-0.1464,0.1098,-0.0732,0,0.0732,-0.1098,0.20496,0.22448,0.16104,0.07808,0.01952,-0.03904
-0.08296,0.06832,-0.05368,-0.0122,0.02928,-0.05612,0.33672,0.45384,0.3172,0.16592,0.0732,-0.01464
0.03904,0.00244,-0.04392,-0.06344,-0.08296,0.061,0.366,0.56608,0.3904,0.23424,0.11224,0
0.20496,-0.09272,-0.01952,-0.122,-0.22448,0.21472,0.35136,0.72224,0.52216,0.36112,0.244,0.11224
0.44408,-0.26352,0.08296,-0.13908,-0.36112,0.4026,0.43432,0.99552,0.7808,0.54656,0.40504,0.25864
0.59048,-0.42212,0.25376,-0.04148,-0.33672,0.4636,0.4636,1.05408,1.0004,0.77592,0.59048,0.45384
0.7564,-0.56852,0.38064,0.00244,-0.37576,0.56608,0.35136,0.94184,0.99064,0.82472,0.69296,0.55144
0.89792,-0.71004,0.52216,0.0732,-0.37576,0.63684,0.03904,0.45384,0.6832,0.732,0.69296,0.61488
1.06384,-0.88572,0.7076,0.17568,-0.35624,0.71004,-0.27816,-0.13664,0.25864,0.55144,0.66368,0.67344
1.06384,-0.96624,0.86864,0.33672,-0.1952,0.62952,-0.64904,-0.74176,-0.07808,0.45872,0.69296,0.79056
0.54656,-0.81008,1.0736,0.80032,0.52704,0.00976,-0.62952,-1.0004,-0.05856,0.57096,0.84424,0.94184
0.22936,-0.58316,0.93696,0.82228,0.7076,-0.23912,-0.64416,-1.13216,-0.2928,0.3904,0.6832,0.8052
0.11224,-0.40016,0.68808,0.63196,0.57584,-0.2318,-0.75152,-1.20536,-0.59048,0.05368,0.35624,0.50752
0.02928,-0.19276,0.35624,0.3416,0.32696,-0.14884,-0.68808,-1.05408,-0.72712,-0.22936,0.0488,0.2196
0.00488,-0.07808,0.15128,0.14884,0.1464,-0.07076,-0.5856,-0.84424,-0.69784,-0.28304,-0.0488,0.0976
-0.0732,0.05124,-0.02928,0.00732,0.04392,-0.05856,-0.44896,-0.67832,-0.65392,-0.35624,-0.16104,-0.03904
-0.04392,0.03904,-0.03416,-0.0122,0.00976,-0.02684,-0.35624,-0.56608,-0.56608,-0.35624,-0.2196,-0.13176
-0.11224,0.08052,-0.0488,0.00732,0.06344,-0.08784,-0.2196,-0.38064,-0.34648,-0.23424,-0.15128,-0.10248
-0.11224,0.09028,-0.06832,-0.0122,0.04392,-0.07808,-0.11712,-0.21472,-0.23424,-0.18544,-0.1464,-0.13176
-0.11224,0.09272,-0.0732,-0.01708,0.03904,-0.07564,-0.07808,-0.14152,-0.13176,-0.08296,-0.06344,-0.05856
-0.08784,0.07076,-0.05368,-0.00976,0.03416,-0.061,-0.00976,-0.07808,-0.07808,-0.03416,-0.00976,-0.02928
-0.07808,0.061,-0.04392,-0.00488,0.03416,-0.05612,-0.01464,-0.06344,-0.0732,-0.04392,-0.01952,-0.03416
-0.07808,0.06344,-0.0488,-0.00976,0.02928,-0.05368,-0.01464,-0.05856,-0.06832,-0.05856,-0.04392,-0.04392
-0.09272,0.07564,-0.05856,-0.0122,0.03416,-0.06344,-0.01464,-0.03904,-0.06344,-0.05856,-0.03904,-0.05368
-0.08784,0.0732,-0.05856,-0.01464,0.02928,-0.05856,-0.00488,-0.03416,-0.05856,-0.03904,-0.02928,-0.06344
-0.10248,0.0854,-0.06832,-0.01708,0.03416,-0.06832,0.01952,-0.01464,-0.0488,-0.0488,-0.03904,-0.06344
-0.11712,0.0976,-0.07808,-0.01952,0.03904,-0.07808,0.01952,-0.00976,-0.04392,-0.05368,-0.05368,-0.06344
-0.09272,0.08052,-0.06832,-0.02196,0.0244,-0.05856,0.00976,-0.01952,-0.0488,-0.04392,-0.04392,-0.05856
-0.05368,0.05856,-0.06344,-0.0366,-0.00976,-0.02196,0,-0.03416,-0.06344,-0.03904,-0.03904,-0.05856
-0.0732,0.06588,-0.05856,-0.02196,0.01464,-0.04392,0.00976,-0.02928,-0.05368,-0.04392,-0.0488,-0.06344
-0.09272,0.07564,-0.05856,-0.0122,0.03416,-0.06344,0.0244,-0.02928,-0.05368,-0.05368,-0.05368,-0.0732
-0.10248,0.0854,-0.06832,-0.01708,0.03416,-0.06832,0.01464,-0.02928,-0.06344,-0.06344,-0.06344,-0.08296
-0.10248,0.0854,-0.06832,-0.01708,0.03416,-0.06832,0.00488,-0.01952,-0.05856,-0.05368,-0.06344,-0.07808
-0.08784,0.07564,-0.06344,-0.01952,0.0244,-0.05612,0.01464,-0.01952,-0.0488,-0.0488,-0.0488,-0.06344
-0.0732,0.061,-0.0488,-0.0122,0.0244,-0.0488,0.01464,-0.01952,-0.05368,-0.0488,-0.03904,-0.05368
-0.08296,0.07076,-0.05856,-0.01708,0.0244,-0.05368,0,-0.02928,-0.0488,-0.05368,-0.0488,-0.06832
-0.08784,0.07808,-0.06832,-0.0244,0.01952,-0.05368,0,-0.02928,-0.0488,-0.05368,-0.05368,-0.0732
-0.07808,0.07076,-0.06344,-0.0244,0.01464,-0.04636,0,-0.03904,-0.05856,-0.05368,-0.05368,-0.0732
-0.08296,0.07564,-0.06832,-0.02684,0.01464,-0.0488,0,-0.03904,-0.05856,-0.05856,-0.05368,-0.07808
-0.09272,0.08784,-0.08296,-0.0366,0.00976,-0.05124,0.00488,-0.03904,-0.06344,-0.06832,-0.06344,-0.06832
-0.09272,0.08784,-0.08296,-0.0366,0.00976,-0.05124,0.00976,-0.02928,-0.05856,-0.06832,-0.05856,-0.06832
-0.09272,0.09272,-0.09272,-0.04636,0,-0.04636,0,-0.03416,-0.06344,-0.06832,-0.06832,-0.07808
-0.08296,0.0854,-0.08784,-0.04636,-0.00488,-0.03904,-0.00488,-0.03416,-0.06344,-0.06832,-0.07808,-0.0732
-0.0732,0.0732,-0.0732,-0.0366,0,-0.0366,-0.00976,-0.03904,-0.0732,-0.07808,-0.07808,-0.08296
-0.0732,0.06832,-0.06344,-0.02684,0.00976,-0.04148,-0.00976,-0.04392,-0.07808,-0.08296,-0.07808,-0.08296
-0.07808,0.07808,-0.07808,-0.03904,0,-0.03904,-0.01464,-0.05368,-0.07808,-0.0732,-0.06832,-0.0732
-0.07808,0.08052,-0.08296,-0.04392,-0.00488,-0.0366,-0.00976,-0.05856,-0.0732,-0.0732,-0.05856,-0.0732
-0.06832,0.06344,-0.05856,-0.0244,0.00976,-0.03904,-0.01952,-0.05856,-0.0732,-0.0732,-0.06832,-0.0732
-0.05856,0.05856,-0.05856,-0.02928,0,-0.02928,-0.01952,-0.05368,-0.0732,-0.07808,-0.0732,-0.0732
-0.06832,0.07076,-0.0732,-0.03904,-0.00488,-0.03172,-0.0244,-0.04392,-0.0732,-0.06832,-0.06344,-0.0732
-0.06832,0.07076,-0.0732,-0.03904,-0.00488,-0.03172,-0.0244,-0.04392,-0.0732,-0.06832,-0.06344,-0.07808
-0.0732,0.07808,-0.08296,-0.04636,-0.00976,-0.03172,-0.01464,-0.04392,-0.08784,-0.07808,-0.06344,-0.06832
-0.0732,0.07564,-0.07808,-0.04148,-0.00488,-0.03416,-0.00976,-0.0488,-0.08784,-0.07808,-0.06832,-0.06832
-0.0732,0.07076,-0.06832,-0.03172,0.00488,-0.03904,-0.0244,-0.04392,-0.07808,-0.06832,-0.05856,-0.05856
-0.06832,0.05856,-0.0488,-0.01464,0.01952,-0.04392,-0.01952,-0.03904,-0.07808,-0.06832,-0.05368,-0.05856
-0.0732,0.07076,-0.06832,-0.03172,0.00488,-0.03904,-0.02928,-0.03904,-0.07808,-0.07808,-0.06832,-0.0732
-0.0732,0.07076,-0.06832,-0.03172,0.00488,-0.03904,-0.0244,-0.04392,-0.08296,-0.08784,-0.06344,-0.06832
-0.05856,0.061,-0.06344,-0.03416,-0.00488,-0.02684,-0.01464,-0.03904,-0.08296,-0.06344,-0.05856,-0.05856
-0.04392,0.05368,-0.06344,-0.04148,-0.01952,-0.0122,-0.01464,-0.0488,-0.08296,-0.06344,-0.06832,-0.06344
-0.03904,0.05124,-0.06344,-0.04392,-0.0244,-0.00732,-0.0244,-0.03904,-0.08296,-0.0732,-0.0732,-0.06832
-0.04392,0.05368,-0.06344,-0.04148,-0.01952,-0.0122,-0.02928,-0.03904,-0.08296,-0.08296,-0.0732,-0.06832
-0.03416,0.04636,-0.05856,-0.04148,-0.0244,-0.00488,-0.03904,-0.0488,-0.0732,-0.06344,-0.06832,-0.05856
-0.03416,0.0366,-0.03904,-0.02196,-0.00488,-0.01464,-0.03904,-0.05368,-0.0732,-0.0488,-0.05368,-0.04392
-0.03416,0.03904,-0.04392,-0.02684,-0.00976,-0.0122,-0.03904,-0.04392,-0.07808,-0.05856,-0.04392,-0.03904
-0.03904,0.03904,-0.03904,-0.01952,0,-0.01952,-0.03904,-0.04392,-0.07808,-0.06344,-0.04392,-0.04392
-0.03416,0.04148,-0.0488,-0.03172,-0.01464,-0.00976,-0.03904,-0.03416,-0.06832,-0.05368,-0.05368,-0.04392
-0.03416,0.03904,-0.04392,-0.02684,-0.00976,-0.0122,-0.03904,-0.03416,-0.0488,-0.04392,-0.03904,-0.03904
-0.00976,0.03172,-0.05368,-0.0488,-0.04392,0.01708,-0.03904,-0.0244,-0.05368,-0.04392,-0.04392,-0.03904
0,0.02196,-0.04392,-0.04392,-0.04392,0.02196,-0.04392,-0.01952,-0.05856,-0.05368,-0.04392,-0.04392
0,0.01464,-0.02928,-0.02928,-0.02928,0.01464,-0.04392,-0.01952,-0.05368,-0.04392,-0.03904,-0.03416
0,0.01464,-0.02928,-0.02928,-0.02928,0.01464,-0.04392,-0.01952,-0.0488,-0.03904,-0.03904,-0.03416
0.01464,-0.00732,0,-0.00732,-0.01464,0.01464,-0.03416,0.00976,-0.03416,-0.01464,-0.01952,-0.00976
0.01464,-0.01464,0.01464,0.00732,0,0.00732,-0.0244,0.01952,-0.01952,-0.00488,-0.00488,-0.00976
0.00488,0.00488,-0.01464,-0.01708,-0.01952,0.0122,-0.02928,0.0244,-0.01952,-0.01952,-0.00976,-0.01464
0.00488,0.01464,-0.03416,-0.0366,-0.03904,0.02196,-0.03416,0.0244,-0.00976,-0.01464,-0.00488,-0.00488
0.00488,0.01464,-0.03416,-0.0366,-0.03904,0.02196,-0.03416,0.01952,-0.01464,-0.00976,0,-0.00488
0.01952,0,-0.01952,-0.02928,-0.03904,0.02928,-0.03904,0.02928,-0.01464,0,-0.00488,-0.00488
0.04392,-0.02196,0,-0.02196,-0.04392,0.04392,-0.03904,0.03904,0,0,0.00488,0
0.05856,-0.0366,0.01464,-0.01464,-0.04392,0.05124,-0.03416,0.06344,0.00976,0.01464,0.00976,0.00976
0.0488,-0.03416,0.01952,-0.00488,-0.02928,0.03904,-0.0244,0.06832,0.0244,0.01952,0.01464,0.01464
0.05368,-0.03904,0.0244,-0.00244,-0.02928,0.04148,-0.00488,0.06832,0.0244,0.01952,0.0244,0.02928
0.04392,-0.02684,0.00976,-0.0122,-0.03416,0.03904,-0.01464,0.06832,0.01952,0.01952,0.02928,0.02928
0.05856,-0.0366,0.01464,-0.01464,-0.04392,0.05124,-0.00976,0.08296,0.02928,0.02928,0.03416,0.03416
0.05856,-0.03904,0.01952,-0.00976,-0.03904,0.0488,-0.00976,0.0976,0.0488,0.03904,0.03904,0.03416
0.05856,-0.03904,0.01952,-0.00976,-0.03904,0.0488,-0.00488,0.122,0.05856,0.04392,0.0488,0.0488
0.06832,-0.0488,0.02928,-0.00488,-0.03904,0.05368,-0.00488,0.11712,0.05856,0.05368,0.05368,0.05368
0.09272,-0.06588,0.03904,-0.00732,-0.05368,0.0732,-0.00488,0.13176,0.06344,0.05856,0.05856,0.05368
0.0732,-0.061,0.0488,0.0122,-0.0244,0.0488,0.00976,0.15128,0.08784,0.07808,0.08296,0.0732
0.09272,-0.08052,0.06832,0.02196,-0.0244,0.05856,0.01952,0.16104,0.10736,0.0976,0.08296,0.07808
0.08296,-0.07808,0.0732,0.03172,-0.00976,0.04636,0.01464,0.16592,0.10248,0.10248,0.09272,0.08296
0.08784,-0.08052,0.0732,0.02928,-0.01464,0.05124,0.0244,0.16104,0.10736,0.10736,0.10248,0.09272
0.10248,-0.0854,0.06832,0.01708,-0.03416,0.06832,0.00976,0.16592,0.11224,0.11224,0.10736,0.08296
0.10248,-0.0854,0.06832,0.01708,-0.03416,0.06832,0.00976,0.16592,0.11224,0.10248,0.0976,0.08784
0.08784,-0.07808,0.06832,0.0244,-0.01952,0.05368,0.03416,0.17568,0.12688,0.09272,0.08296,0.07808
0.07808,-0.07564,0.0732,0.03416,-0.00488,0.04148,0.06832,0.19032,0.12688,0.10248,0.0976,0.07808
0.06832,-0.07808,0.08784,0.05368,0.01952,0.0244,0.05856,0.17568,0.13664,0.11224,0.10736,0.08784
0.05856,-0.07076,0.08296,0.05368,0.0244,0.01708,0.0488,0.16104,0.122,0.11712,0.08784,0.07808
0.03416,-0.04148,0.0488,0.03172,0.01464,0.00976,0.05856,0.15128,0.13176,0.10248,0.09272,0.08296
0.0244,-0.03172,0.03904,0.02684,0.01464,0.00488,0.05368,0.13176,0.11712,0.08784,0.08784,0.06832
0.00488,-0.00976,0.01464,0.0122,0.00976,-0.00244,0.06344,0.12688,0.122,0.09272,0.08784,0.05368
0.00488,-0.00488,0.00488,0.00244,0,0.00244,0.06344,0.11224,0.11224,0.08784,0.05856,0.04392
0.00976,-0.00488,0,-0.00488,-0.00976,0.00976,0.06832,0.09272,0.09272,0.06832,0.04392,0.04392
0.00488,0,-0.00488,-0.00732,-0.00976,0.00732,0.06832,0.08784,0.08784,0.05856,0.03904,0.03904
0.00976,-0.00488,0,-0.00488,-0.00976,0.00976,0.05856,0.08784,0.08296,0.05856,0.04392,0.03904
-0.00976,0.00732,-0.00488,0,0.00488,-0.00732,0.03904,0.0732,0.07808,0.04392,0.0244,0.0244
0,-0.00488,0.00976,0.00976,0.00976,-0.00488,0.0244,0.05856,0.05368,0.03416,0.02928,0.00976
0.01464,-0.01708,0.01952,0.0122,0.00488,0.00488,0.02928,0.0488,0.04392,0.03416,0.02928,0.00976
-0.00976,0.00244,0.00488,0.00976,0.01464,-0.0122,0.03904,0.0488,0.0488,0,0,-0.00976
-0.01952,0.02196,-0.0244,-0.01464,-0.00488,-0.00732,0.0488,0.0488,0.03416,0.00488,-0.00976,-0.00976
-0.01952,0.02196,-0.0244,-0.01464,-0.00488,-0.00732,0.03904,0.04392,0.03904,0.01464,0,0
-0.03416,0.03416,-0.03416,-0.01708,0,-0.01708,0.03904,0.04392,0.03904,0.01464,0.00976,0.00488
-0.04392,0.0366,-0.02928,-0.00732,0.01464,-0.02928,0.03416,0.03416,0.03904,0.01464,0,0.00488
-0.05368,0.04392,-0.03416,-0.00732,0.01952,-0.0366,0.03904,0.03904,0.03416,0.01464,0,0.00488
-0.04392,0.04148,-0.03904,-0.01708,0.00488,-0.0244,0.02928,0.03416,0.0244,0.00976,-0.00488,-0.00488
-0.03904,0.04148,-0.04392,-0.0244,-0.00488,-0.01708,0.0244,0.03416,0.0244,-0.00488,-0.00976,-0.01464
-0.01952,0.02928,-0.03904,-0.02928,-0.01952,0,0.01952,0.03904,0.03416,0,-0.00976,-0.00488
-0.01952,0.0244,-0.02928,-0.01952,-0.00976,-0.00488,0.01952,0.03416,0.03904,0.00976,-0.00976,-0.00976
-0.03416,0.0244,-0.01464,0.00244,0.01952,-0.02684,0.00976,0.0244,0.03904,0.01952,-0.00488,0
-0.02928,0.02196,-0.01464,0,0.01464,-0.02196,0.00976,0.00976,0.03904,0.01464,0.00488,-0.00488
-0.0488,0.0366,-0.0244,0,0.0244,-0.0366,0.00976,0.00976,0.02928,0.01464,-0.00488,-0.01464
-0.05856,0.05124,-0.04392,-0.01464,0.01464,-0.0366,0.00976,0.00976,0.01952,0.00976,-0.00488,-0.01464
-0.0488,0.0366,-0.0244,0,0.0244,-0.0366,0.0244,0.00976,0.03416,0.01952,0.00488,0.00488
-0.03904,0.0366,-0.03416,-0.01464,0.00488,-0.02196,0.03416,0.01464,0.03416,0.00488,-0.01464,0.00976
-0.02928,0.02684,-0.0244,-0.00976,0.00488,-0.01708,0.01952,0.00488,0.03416,0.00488,-0.00488,0
-0.01952,0.01952,-0.01952,-0.00976,0,-0.00976,0.01952,-0.00488,0.02928,0.00976,-0.00488,-0.00488
-0.03904,0.03416,-0.02928,-0.00976,0.00976,-0.0244,0.0244,0,0.03904,0.00976,-0.00976,-0.00488
-0.03416,0.03172,-0.02928,-0.0122,0.00488,-0.01952,0.0244,0.00976,0.04392,0.01464,-0.00976,0.00488
-0.03416,0.03416,-0.03416,-0.01708,0,-0.01708,0.0244,0.0244,0.03416,0.00488,-0.01464,-0.00976
-0.04392,0.04148,-0.03904,-0.01708,0.00488,-0.0244,0.02928,0.0244,0.03416,0,-0.01464,-0.00976
-0.04392,0.03904,-0.03416,-0.0122,0.00976,-0.02684,0.03904,0.01464,0.01952,-0.00976,-0.0244,-0.01464
-0.04392,0.0366,-0.02928,-0.00732,0.01464,-0.02928,0.03416,0.00976,0.01952,-0.00976,-0.0244,-0.01464
-0.04392,0.03416,-0.0244,-0.00244,0.01952,-0.03172,0.0244,0.01952,0.02928,0.00488,-0.00976,0.00488
-0.04392,0.03416,-0.0244,-0.00244,0.01952,-0.03172,0.02928,0.01952,0.04392,0.01464,-0.00976,0.01464
-0.0244,0.01952,-0.01464,-0.00244,0.00976,-0.01708,0.01952,0.00976,0.03416,0.01952,0,0.00976
0,0.00488,-0.00976,-0.00976,-0.00976,0.00488,0.01952,0.00976,0.02928,0.02928,0,0.00976
-0.03904,0.02684,-0.01464,0.00488,0.0244,-0.03172,0.01952,0.01952,0.03904,0.01464,-0.00488,0.00976
-0.05856,0.04392,-0.02928,0,0.02928,-0.04392,0.01464,0.01952,0.03416,0.00488,-0.00488,0.00976
-0.03416,0.0366,-0.03904,-0.02196,-0.00488,-0.01464,0.01464,0.00488,0.01952,0,-0.0244,-0.01464
-0.0488,0.04636,-0.04392,-0.01952,0.00488,-0.02684,0.01952,0.00976,0.00976,-0.00488,-0.03416,-0.01952
-0.01952,0.02196,-0.0244,-0.01464,-0.00488,-0.00732,0,0.01952,0.00976,-0.01464,-0.03416,-0.01464
-0.00976,0.00976,-0.00976,-0.00488,0,-0.00488,0,0.01952,0.0244,-0.00976,-0.0244,0
-0.02928,0.01952,-0.00976,0.00488,0.01952,-0.0244,0.00488,0.00488,0.02928,0,-0.00976,0
-0.03904,0.02928,-0.01952,0,0.01952,-0.02928,0.00488,0.00488,0.0244,0.00976,-0.01464,0
-0.0244,0.02928,-0.03416,-0.02196,-0.00976,-0.00732,0.00488,0,0.01464,0.00488,-0.02928,-0.00976
-0.02928,0.03904,-0.0488,-0.03416,-0.01952,-0.00488,0.00488,0,0.00488,-0.00976,-0.02928,-0.0244
-0.02928,0.03904,-0.0488,-0.03416,-0.01952,-0.00488,0.01464,0.00488,0,-0.00976,-0.03904,-0.01952
-0.01952,0.0366,-0.05368,-0.04392,-0.03416,0.00732,0.00976,-0.00488,0.00976,-0.00488,-0.03904,-0.01952
-0.01952,0.02928,-0.03904,-0.02928,-0.01952,0,0.00976,-0.00488,0.00976,-0.00976,-0.03904,-0.01952
-0.0244,0.02928,-0.03416,-0.02196,-0.00976,-0.00732,0.00976,-0.00488,0.00976,-0.01464,-0.03904,-0.02928
-0.03416,0.0366,-0.03904,-0.02196,-0.00488,-0.01464,0.00976,0.00976,0,-0.01952,-0.03904,-0.01464
-0.03904,0.03904,-0.03904,-0.01952,0,-0.01952,0.00976,0.00976,0,-0.01952,-0.03904,-0.01464
-0.04392,0.05124,-0.05856,-0.0366,-0.01464,-0.01464,0.01952,0.01464,-0.00488,-0.01952,-0.03904,-0.01952
-0.0488,0.05368,-0.05856,-0.03416,-0.00976,-0.01952,0.01464,0.00976,-0.00488,-0.02928,-0.03904,-0.02928
-0.04392,0.04636,-0.0488,-0.02684,-0.00488,-0.01952,0.00488,-0.00976,-0.00976,-0.02928,-0.0488,-0.03416
-0.03416,0.03904,-0.04392,-0.02684,-0.00976,-0.0122,0.00488,-0.00976,-0.00976,-0.02928,-0.0488,-0.02928
-0.0244,0.03416,-0.04392,-0.03172,-0.01952,-0.00244,0.01952,0,0.00488,-0.01952,-0.03416,-0.01464
-0.01464,0.02928,-0.04392,-0.0366,-0.02928,0.00732,0.0244,0.00488,0.00488,-0.00976,-0.0488,-0.00976
-0.02928,0.03416,-0.03904,-0.0244,-0.00976,-0.00976,0.00976,-0.00488,0,-0.02928,-0.05856,-0.01952
-0.03416,0.04148,-0.0488,-0.03172,-0.01464,-0.00976,0.00976,-0.00488,-0.00488,-0.0244,-0.05368,-0.01952
-0.0488,0.05368,-0.05856,-0.03416,-0.00976,-0.01952,0.00976,-0.00488,-0.00976,-0.0244,-0.05368,-0.0244
-0.05856,0.06344,-0.06832,-0.03904,-0.00976,-0.0244,0.00976,0.00488,0,-0.0244,-0.0488,-0.0244
-0.05856,0.05368,-0.0488,-0.01952,0.00976,-0.03416,0.01952,-0.00488,-0.00976,-0.03416,-0.05856,-0.03416
-0.03416,0.04392,-0.05368,-0.0366,-0.01952,-0.00732,0.00488,-0.01464,-0.01952,-0.05368,-0.07808,-0.03904
-0.01952,0.03416,-0.0488,-0.03904,-0.02928,0.00488,0.01952,-0.01464,-0.01464,-0.03904,-0.06832,-0.03904
-0.01464,0.0244,-0.03416,-0.02684,-0.01952,0.00244,0.03416,-0.01464,-0.01464,-0.03904,-0.06344,-0.03904
-0.01952,0.0366,-0.05368,-0.04392,-0.03416,0.00732,0.0244,-0.00976,-0.01464,-0.02928,-0.05856,-0.02928
-0.03416,0.04636,-0.05856,-0.04148,-0.0244,-0.00488,0.00976,-0.00976,-0.01464,-0.02928,-0.05856,-0.0244
-0.03416,0.03904,-0.04392,-0.02684,-0.00976,-0.0122,0.00976,0.00488,0,-0.02928,-0.05368,-0.02928
-0.02928,0.03416,-0.03904,-0.0244,-0.00976,-0.00976,0.01464,0,-0.00488,-0.03416,-0.06344,-0.02928
-0.02928,0.04148,-0.05368,-0.03904,-0.0244,-0.00244,0.00976,-0.00976,-0.00976,-0.03416,-0.0732,-0.03416
-0.03416,0.04392,-0.05368,-0.0366,-0.01952,-0.00732,0.00976,-0.01464,-0.01464,-0.02928,-0.06344,-0.0244
-0.0488,0.0488,-0.0488,-0.0244,0,-0.0244,0.00976,-0.01464,-0.00976,-0.03904,-0.0732,-0.03416
-0.06344,0.05612,-0.0488,-0.01708,0.01464,-0.03904,0.00976,-0.01464,-0.00976,-0.03416,-0.0732,-0.03416
-0.04392,0.04392,-0.04392,-0.02196,0,-0.02196,-0.00488,-0.01464,-0.01952,-0.04392,-0.08296,-0.03904
-0.03416,0.04392,-0.05368,-0.0366,-0.01952,-0.00732,0,-0.00976,-0.01952,-0.0488,-0.08296,-0.0488
-0.03904,0.05368,-0.06832,-0.0488,-0.02928,-0.00488,-0.00976,-0.01464,-0.02928,-0.05368,-0.07808,-0.0488
-0.03904,0.05368,-0.06832,-0.0488,-0.02928,-0.00488,-0.00976,-0.02928,-0.02928,-0.05368,-0.07808,-0.0488
-0.04392,0.05856,-0.0732,-0.05124,-0.02928,-0.00732,-0.00976,-0.02928,-0.02928,-0.05368,-0.08784,-0.0488
-0.04392,0.06588,-0.08784,-0.06588,-0.04392,0,0,-0.01952,-0.02928,-0.0488,-0.08296,-0.03904
-0.02928,0.0488,-0.06832,-0.05368,-0.03904,0.00488,0.01464,0,-0.0244,-0.0488,-0.08784,-0.03904
-0.03416,0.0488,-0.06344,-0.04636,-0.02928,-0.00244,0.01464,-0.00976,-0.0244,-0.05368,-0.08784,-0.0488
-0.01952,0.0366,-0.05368,-0.04392,-0.03416,0.00732,0.00488,-0.00976,-0.0244,-0.06344,-0.0976,-0.05368
-0.00976,0.03172,-0.05368,-0.0488,-0.04392,0.01708,0.00488,-0.0244,-0.0244,-0.06344,-0.10248,-0.05368
-0.0244,0.03172,-0.03904,-0.02684,-0.01464,-0.00488,0.00976,-0.01464,-0.01464,-0.05368,-0.0732,-0.03904
-0.03416,0.03172,-0.02928,-0.0122,0.00488,-0.01952,0.00976,-0.00976,-0.00976,-0.03904,-0.06344,-0.0244
-0.03904,0.02928,-0.01952,0,0.01952,-0.02928,0.00976,-0.00976,0,-0.03416,-0.05856,-0.01952
-0.04392,0.03416,-0.0244,-0.00244,0.01952,-0.03172,0.00976,-0.00976,0,-0.03416,-0.05856,-0.02928
-0.03416,0.0366,-0.03904,-0.02196,-0.00488,-0.01464,-0.00488,-0.02928,-0.00976,-0.03416,-0.06832,-0.02928
-0.03904,0.03416,-0.02928,-0.00976,0.00976,-0.0244,-0.01464,-0.0244,-0.01952,-0.03416,-0.08296,-0.03904
-0.03416,0.03904,-0.04392,-0.02684,-0.00976,-0.0122,-0.00488,-0.0244,-0.00976,-0.03904,-0.06344,-0.02928
-0.03416,0.02928,-0.0244,-0.00732,0.00976,-0.02196,0,-0.0244,-0.00488,-0.03904,-0.06832,-0.02928
-0.01952,0.01952,-0.01952,-0.00976,0,-0.00976,0.01952,-0.00976,0,-0.01952,-0.06832,-0.01952
-0.03904,0.03904,-0.03904,-0.01952,0,-0.01952,0.00976,-0.01952,-0.00976,-0.03904,-0.07808,-0.02928
-0.0488,0.0488,-0.0488,-0.0244,0,-0.0244,0.00976,-0.02928,-0.01952,-0.0488,-0.07808,-0.03904
-0.0488,0.04392,-0.03904,-0.01464,0.00976,-0.02928,0,-0.02928,-0.01952,-0.0488,-0.08784,-0.0488
-0.0488,0.04392,-0.03904,-0.01464,0.00976,-0.02928,0,-0.02928,-0.01952,-0.0488,-0.08784,-0.0488
-0.02928,0.0488,-0.06832,-0.05368,-0.03904,0.00488,-0.01952,-0.03416,-0.03416,-0.05856,-0.10248,-0.0488
-0.01464,0.03904,-0.06344,-0.05612,-0.0488,0.01708,-0.01952,-0.02928,-0.04392,-0.06344,-0.09272,-0.0488
0.00976,0.02196,-0.05368,-0.05856,-0.06344,0.0366,-0.01952,-0.01464,-0.04392,-0.06344,-0.09272,-0.05368
0.0244,0.01464,-0.05368,-0.06588,-0.07808,0.05124,-0.01464,0.00488,-0.02928,-0.05856,-0.08296,-0.0488
0.0488,0.00488,-0.05856,-0.08296,-0.10736,0.07808,-0.00488,0.01952,-0.01464,-0.03904,-0.07808,-0.03904
0.05856,0,-0.05856,-0.08784,-0.11712,0.08784,-0.00488,0.01464,-0.01464,-0.04392,-0.08296,-0.04392
0.06344,0,-0.06344,-0.09516,-0.12688,0.09516,-0.01952,0.00976,-0.0244,-0.05368,-0.08296,-0.03904
0.04392,0.00732,-0.05856,-0.08052,-0.10248,0.0732,-0.01952,0.00976,-0.01952,-0.0488,-0.0732,-0.0244
0.0488,-0.00488,-0.03904,-0.06344,-0.08784,0.06832,0,0.01464,-0.00488,-0.0244,-0.05856,-0.00976
0.06344,-0.02196,-0.01952,-0.05124,-0.08296,0.0732,-0.0244,-0.00488,-0.01464,-0.02928,-0.05856,-0.00488
0.06832,-0.01952,-0.02928,-0.06344,-0.0976,0.08296,-0.0244,-0.0244,-0.03904,-0.0488,-0.07808,-0.03416
0.05368,-0.01952,-0.01464,-0.04148,-0.06832,0.061,-0.0244,-0.02928,-0.03904,-0.05856,-0.0976,-0.03904
0.0488,-0.01952,-0.00976,-0.03416,-0.05856,0.05368,-0.01952,-0.01952,-0.03416,-0.04392,-0.07808,-0.01952
0.02928,-0.00976,-0.00976,-0.0244,-0.03904,0.03416,0,-0.00976,-0.01952,-0.02928,-0.05856,-0.00488
0.01464,-0.00244,-0.00976,-0.01708,-0.0244,0.01952,-0.01464,-0.00488,-0.00976,-0.03904,-0.06344,-0.01464
0.00488,0,-0.00488,-0.00732,-0.00976,0.00732,-0.0244,-0.00488,-0.01464,-0.04392,-0.0732,-0.03416
-0.03416,0.04636,-0.05856,-0.04148,-0.0244,-0.00488,-0.00976,-0.02928,-0.04392,-0.08296,-0.10736,-0.05856
-0.03904,0.06832,-0.0976,-0.07808,-0.05856,0.00976,-0.00976,-0.03416,-0.06344,-0.10248,-0.13176,-0.0732
-0.05368,0.0732,-0.09272,-0.06588,-0.03904,-0.00732,-0.00488,-0.0244,-0.05368,-0.09272,-0.12688,-0.07808
-0.05856,0.07808,-0.0976,-0.06832,-0.03904,-0.00976,-0.00488,-0.0244,-0.05368,-0.08784,-0.11712,-0.07808
-0.0732,0.08052,-0.08784,-0.05124,-0.01464,-0.02928,-0.01464,-0.03904,-0.06832,-0.0976,-0.12688,-0.08784
-0.0732,0.08052,-0.08784,-0.05124,-0.01464,-0.02928,-0.03904,-0.06344,-0.0732,-0.10736,-0.13176,-0.09272
-0.03904,0.06832,-0.0976,-0.07808,-0.05856,0.00976,-0.03904,-0.05368,-0.0732,-0.0976,-0.13176,-0.07808
-0.0244,0.05124,-0.07808,-0.06588,-0.05368,0.01464,-0.03904,-0.04392,-0.05856,-0.0732,-0.11224,-0.06832
-0.03416,0.05124,-0.06832,-0.05124,-0.03416,0,-0.0244,-0.03904,-0.06344,-0.07808,-0.10248,-0.0732
-0.03904,0.05124,-0.06344,-0.04392,-0.0244,-0.00732,-0.00976,-0.02928,-0.05368,-0.06832,-0.10248,-0.06832
-0.0488,0.061,-0.0732,-0.0488,-0.0244,-0.0122,-0.00488,-0.0244,-0.04392,-0.06344,-0.09272,-0.05856
-0.0488,0.06588,-0.08296,-0.05856,-0.03416,-0.00732,0,-0.01464,-0.03904,-0.05856,-0.09272,-0.05368
-0.0488,0.061,-0.0732,-0.0488,-0.0244,-0.0122,0.00488,-0.00488,-0.0244,-0.05368,-0.08784,-0.04392
-0.0488,0.05124,-0.05368,-0.02928,-0.00488,-0.02196,0.00488,-0.00488,-0.01952,-0.05368,-0.08784,-0.03904
-0.05368,0.0488,-0.04392,-0.01708,0.00976,-0.03172,0.01464,-0.01464,-0.01952,-0.05368,-0.08784,-0.0488
-0.05856,0.05856,-0.05856,-0.02928,0,-0.02928,0.01952,-0.00976,-0.01952,-0.05368,-0.08296,-0.04392
-0.05856,0.061,-0.06344,-0.03416,-0.00488,-0.02684,0.00976,-0.01952,-0.02928,-0.06832,-0.09272,-0.05368
-0.0488,0.05368,-0.05856,-0.03416,-0.00976,-0.01952,0.00488,-0.0244,-0.03416,-0.06832,-0.0976,-0.06344
-0.03416,0.0488,-0.06344,-0.04636,-0.02928,-0.00244,0,-0.03416,-0.03416,-0.07808,-0.10736,-0.0732
-0.04392,0.05124,-0.05856,-0.0366,-0.01464,-0.01464,0,-0.02928,-0.02928,-0.08296,-0.10736,-0.0732
-0.0732,0.07808,-0.08296,-0.04636,-0.00976,-0.03172,0.01464,-0.01464,-0.01952,-0.06344,-0.10248,-0.06344
-0.0488,0.05124,-0.05368,-0.02928,-0.00488,-0.02196,0.03904,0.0244,0,-0.0488,-0.09272,-0.05368
-0.11224,0.09272,-0.0732,-0.01708,0.03904,-0.07564,0.10248,0.11224,0.06832,-0.01952,-0.0732,-0.05368
-0.13664,0.1098,-0.08296,-0.01464,0.05368,-0.09516,0.22448,0.26352,0.1708,0.03904,-0.0488,-0.0488
-0.10248,0.10248,-0.10248,-0.05124,0,-0.05124,0.35624,0.45384,0.32696,0.12688,-0.01464,-0.05368
0.03904,0.02196,-0.08296,-0.10248,-0.122,0.08052,0.38552,0.55632,0.4392,0.22448,0.06344,0.00976
0.25376,-0.122,-0.00976,-0.13664,-0.26352,0.25864,0.37088,0.74176,0.58072,0.36112,0.21472,0.13176
0.45384,-0.26352,0.0732,-0.15372,-0.38064,0.41724,0.4636,1.06384,0.86864,0.59536,0.38552,0.27816
0.58072,-0.43188,0.28304,-0.00732,-0.29768,0.4392,0.49288,1.08336,1.098,0.83448,0.61,0.49288
0.72712,-0.56852,0.40992,0.04636,-0.3172,0.52216,0.3904,0.9516,1.098,0.89304,0.71248,0.62952
0.83936,-0.6954,0.55144,0.13176,-0.28792,0.56364,0.06832,0.45384,0.77104,0.77104,0.69296,0.67344
1.00528,-0.84668,0.68808,0.18544,-0.3172,0.66124,-0.30744,-0.1464,0.29768,0.57096,0.65392,0.72224
0.9272,-0.9272,0.9272,0.4636,0,0.4636,-0.58072,-0.67344,0.00976,0.5368,0.74176,0.8784
0.3416,-0.70272,1.06384,0.89304,0.72224,-0.19032,-0.54168,-0.93208,0.00976,0.61976,0.86376,1.01992
0.16104,-0.53436,0.90768,0.82716,0.74664,-0.2928,-0.59536,-1.0736,-0.2928,0.35136,0.61488,0.78568
0.0244,-0.32696,0.62952,0.61732,0.60512,-0.29036,-0.70272,-1.1468,-0.62952,-0.03416,0.22936,0.42944
0,-0.16836,0.33672,0.33672,0.33672,-0.16836,-0.61976,-0.96624,-0.71736,-0.24888,0,0.20984
-0.0244,-0.05368,0.13176,0.14396,0.15616,-0.09028,-0.54656,-0.79544,-0.71736,-0.3416,-0.12688,0.06832
-0.08296,0.061,-0.03904,0.00244,0.04392,-0.06344,-0.3904,-0.62952,-0.64416,-0.40504,-0.24888,-0.07808
-0.10248,0.10736,-0.11224,-0.061,-0.00976,-0.04636,-0.29768,-0.49776,-0.55632,-0.40504,-0.30744,-0.18056
-0.13176,0.11468,-0.0976,-0.03172,0.03416,-0.08296,-0.19032,-0.36112,-0.37576,-0.30256,-0.25864,-0.16104
-0.11224,0.11956,-0.12688,-0.07076,-0.01464,-0.0488,-0.08784,-0.20496,-0.22448,-0.22448,-0.20496,-0.13176
-0.0732,0.05856,-0.04392,-0.00732,0.02928,-0.05124,-0.0488,-0.13176,-0.11224,-0.11224,-0.10248,-0.0488
-0.05856,0.04636,-0.03416,-0.00488,0.0244,-0.04148,-0.02928,-0.0976,-0.08784,-0.0732,-0.08784,-0.05856
-0.07808,0.061,-0.04392,-0.00488,0.03416,-0.05612,-0.01464,-0.06344,-0.0732,-0.08296,-0.0976,-0.06344
-0.08784,0.0732,-0.05856,-0.01464,0.02928,-0.05856,-0.01464,-0.05856,-0.06832,-0.0976,-0.11224,-0.0732
-0.09272,0.08052,-0.06832,-0.02196,0.0244,-0.05856,-0.01464,-0.0488,-0.05368,-0.08784,-0.10736,-0.0732
-0.08784,0.07808,-0.06832,-0.0244,0.01952,-0.05368,-0.00488,-0.04392,-0.0488,-0.06832,-0.0976,-0.0732
-0.0732,0.06588,-0.05856,-0.02196,0.01464,-0.04392,0,-0.04392,-0.05856,-0.08784,-0.10736,-0.09272
-0.07808,0.0732,-0.06832,-0.02928,0.00976,-0.04392,-0.00976,-0.0488,-0.05368,-0.09272,-0.122,-0.09272
-0.09272,0.0854,-0.07808,-0.03172,0.01464,-0.05368,0,-0.03904,-0.0488,-0.09272,-0.11224,-0.08784
-0.08296,0.08296,-0.08296,-0.04148,0,-0.04148,0.00976,-0.04392,-0.05368,-0.08784,-0.10736,-0.08784
-0.0732,0.07564,-0.07808,-0.04148,-0.00488,-0.03416,-0.00976,-0.03904,-0.05368,-0.08296,-0.11712,-0.09272
-0.0732,0.07076,-0.06832,-0.03172,0.00488,-0.03904,-0.00488,-0.02928,-0.05368,-0.08296,-0.11224,-0.09272
-0.09272,0.0854,-0.07808,-0.03172,0.01464,-0.05368,0.00488,-0.02928,-0.05368,-0.10248,-0.11224,-0.09272
-0.09272,0.0854,-0.07808,-0.03172,0.01464,-0.05368,0.01464,-0.01952,-0.0488,-0.09272,-0.11224,-0.08784
-0.08784,0.09516,-0.10248,-0.05856,-0.01464,-0.0366,0.00488,-0.02928,-0.05856,-0.08784,-0.11712,-0.09272
-0.08296,0.09028,-0.0976,-0.05612,-0.01464,-0.03416,0.00488,-0.02928,-0.06344,-0.08784,-0.11712,-0.09272
-0.09272,0.09516,-0.0976,-0.05124,-0.00488,-0.04392,0,-0.03904,-0.05856,-0.09272,-0.11712,-0.0976
-0.0976,0.0976,-0.0976,-0.0488,0,-0.0488,0,-0.03904,-0.05856,-0.09272,-0.122,-0.10248
-0.0976,0.09516,-0.09272,-0.04392,0.00488,-0.05124,-0.00976,-0.0488,-0.05856,-0.09272,-0.11224,-0.09272
-0.10248,0.10004,-0.0976,-0.04636,0.00488,-0.05368,-0.00976,-0.0488,-0.05856,-0.0976,-0.11224,-0.0976
-0.09272,0.08784,-0.08296,-0.0366,0.00976,-0.05124,-0.01464,-0.05856,-0.06344,-0.0976,-0.11224,-0.0976
-0.09272,0.08296,-0.0732,-0.02684,0.01952,-0.05612,-0.00976,-0.0488,-0.05856,-0.0976,-0.10736,-0.0976
-0.09272,0.08784,-0.08296,-0.0366,0.00976,-0.05124,-0.01952,-0.05368,-0.0732,-0.0976,-0.11712,-0.10736
-0.08296,0.08052,-0.07808,-0.0366,0.00488,-0.04392,-0.0244,-0.05368,-0.0732,-0.0976,-0.12688,-0.10248
-0.0732,0.0732,-0.0732,-0.0366,0,-0.0366,-0.01952,-0.05856,-0.0732,-0.10736,-0.12688,-0.11224
-0.06344,0.06832,-0.0732,-0.04148,-0.00976,-0.02684,-0.00976,-0.06344,-0.07808,-0.122,-0.12688,-0.11224
-0.07808,0.08296,-0.08784,-0.0488,-0.00976,-0.03416,-0.00488,-0.05368,-0.07808,-0.122,-0.12688,-0.11224
-0.07808,0.08052,-0.08296,-0.04392,-0.00488,-0.0366,0,-0.05856,-0.0732,-0.122,-0.12688,-0.11224
-0.08784,0.08784,-0.08784,-0.04392,0,-0.04392,-0.00976,-0.05856,-0.08296,-0.11224,-0.11712,-0.10248
-0.08784,0.09272,-0.0976,-0.05368,-0.00976,-0.03904,-0.00976,-0.05368,-0.09272,-0.11712,-0.122,-0.09272
-0.06832,0.07564,-0.08296,-0.0488,-0.01464,-0.02684,-0.01464,-0.06344,-0.08296,-0.10736,-0.122,-0.10248
-0.05856,0.061,-0.06344,-0.03416,-0.00488,-0.02684,-0.01464,-0.06344,-0.08296,-0.10736,-0.122,-0.10736
-0.06344,0.06832,-0.0732,-0.04148,-0.00976,-0.02684,-0.01464,-0.05368,-0.08784,-0.11712,-0.122,-0.0976
-0.05368,0.06588,-0.07808,-0.05124,-0.0244,-0.01464,-0.01952,-0.05856,-0.08784,-0.11712,-0.12688,-0.0976
-0.06344,0.07564,-0.08784,-0.05612,-0.0244,-0.01952,-0.0244,-0.06344,-0.08784,-0.10736,-0.12688,-0.0976
-0.05856,0.06832,-0.07808,-0.0488,-0.01952,-0.01952,-0.01952,-0.06832,-0.08784,-0.10736,-0.122,-0.0976
-0.06344,0.07076,-0.07808,-0.04636,-0.01464,-0.0244,-0.02928,-0.06832,-0.08784,-0.10736,-0.11712,-0.09272
-0.06344,0.06588,-0.06832,-0.0366,-0.00488,-0.02928,-0.0244,-0.06344,-0.09272,-0.10736,-0.10248,-0.08784
-0.06832,0.07076,-0.0732,-0.03904,-0.00488,-0.03172,-0.0244,-0.0488,-0.08296,-0.10248,-0.0976,-0.08784
-0.06344,0.06832,-0.0732,-0.04148,-0.00976,-0.02684,-0.0244,-0.0488,-0.08296,-0.10248,-0.11712,-0.09272
-0.06832,0.08052,-0.09272,-0.05856,-0.0244,-0.02196,-0.03416,-0.05856,-0.08296,-0.10248,-0.11224,-0.08784
-0.0732,0.08784,-0.10248,-0.06588,-0.02928,-0.02196,-0.03904,-0.05856,-0.08296,-0.10248,-0.11224,-0.08784
-0.06344,0.07564,-0.08784,-0.05612,-0.0244,-0.01952,-0.0488,-0.06832,-0.08296,-0.10248,-0.10736,-0.08784
-0.06344,0.06588,-0.06832,-0.0366,-0.00488,-0.02928,-0.0488,-0.06344,-0.08296,-0.0976,-0.09272,-0.08296
-0.03416,0.04392,-0.05368,-0.0366,-0.01952,-0.00732,-0.0488,-0.06344,-0.07808,-0.0976,-0.09272,-0.07808
-0.01952,0.02928,-0.03904,-0.02928,-0.01952,0,-0.0488,-0.06344,-0.07808,-0.10248,-0.09272,-0.08296
-0.0244,0.04148,-0.05856,-0.04636,-0.03416,0.00488,-0.03904,-0.05368,-0.07808,-0.09272,-0.09272,-0.08296
-0.03416,0.0488,-0.06344,-0.04636,-0.02928,-0.00244,-0.03904,-0.05368,-0.06832,-0.08296,-0.07808,-0.07808
-0.01952,0.0366,-0.05368,-0.04392,-0.03416,0.00732,-0.03904,-0.04392,-0.06344,-0.08296,-0.08296,-0.06832
-0.01952,0.02684,-0.03416,-0.0244,-0.01464,-0.00244,-0.04392,-0.03904,-0.05856,-0.08296,-0.08296,-0.06344
0,0.01464,-0.02928,-0.02928,-0.02928,0.01464,-0.04392,-0.03904,-0.04392,-0.0732,-0.07808,-0.05368
0,0.01464,-0.02928,-0.02928,-0.02928,0.01464,-0.04392,-0.03904,-0.03904,-0.06832,-0.07808,-0.05368
0.00488,0.01708,-0.03904,-0.04148,-0.04392,0.0244,-0.05368,-0.01952,-0.04392,-0.06344,-0.07808,-0.0488
-0.00488,0.0244,-0.04392,-0.04148,-0.03904,0.01708,-0.05368,-0.01952,-0.0488,-0.06344,-0.0732,-0.0488
-0.01464,0.0244,-0.03416,-0.02684,-0.01952,0.00244,-0.03904,-0.01464,-0.03904,-0.05856,-0.05856,-0.05368
-0.01464,0.0244,-0.03416,-0.02684,-0.01952,0.00244,-0.0244,-0.00488,-0.02928,-0.05368,-0.05368,-0.04392
0.0244,-0.00488,-0.01464,-0.02684,-0.03904,0.03172,-0.03416,0.00976,-0.01464,-0.03904,-0.03904,-0.0244
0.05856,-0.03416,0.00976,-0.01952,-0.0488,0.05368,-0.03904,0.01952,-0.00488,-0.02928,-0.03416,-0.01464
0.03416,-0.01708,0,-0.01708,-0.03416,0.03416,-0.02928,0.02928,-0.00976,-0.02928,-0.0244,-0.01952
0.01952,-0.00732,-0.00488,-0.01464,-0.0244,0.02196,-0.0244,0.05368,0,-0.0244,-0.01952,-0.00976
0.02928,-0.01464,0,-0.01464,-0.02928,0.02928,-0.03416,0.05856,0.01464,-0.00976,-0.01464,-0.01464
0.04392,-0.0244,0.00488,-0.01708,-0.03904,0.04148,-0.03416,0.0488,0.01464,-0.00976,-0.01464,0
0.06344,-0.04148,0.01952,-0.0122,-0.04392,0.05368,-0.0244,0.05856,0.02928,0,0.00976,0.00976
0.08784,-0.061,0.03416,-0.00976,-0.05368,0.07076,-0.01952,0.0732,0.03904,0.01952,0.01464,0.0244
0.06832,-0.05856,0.0488,0.01464,-0.01952,0.04392,-0.00976,0.08784,0.03904,0.01952,0.00976,0.01464
0.05856,-0.05368,0.0488,0.01952,-0.00976,0.03416,-0.00488,0.10248,0.0488,0.0244,0.01952,0.02928
0.0488,-0.03904,0.02928,0.00488,-0.01952,0.03416,0.00488,0.11712,0.06832,0.03416,0.0244,0.03416
0.05368,-0.04148,0.02928,0.00244,-0.0244,0.03904,0.00488,0.13176,0.0732,0.03904,0.02928,0.03416
0.05368,-0.04148,0.02928,0.00244,-0.0244,0.03904,0,0.13176,0.07808,0.03904,0.04392,0.04392
0.08296,-0.06588,0.0488,0.00732,-0.03416,0.05856,0,0.122,0.07808,0.0488,0.03416,0.03904
0.10248,-0.08296,0.06344,0.0122,-0.03904,0.07076,0.00488,0.13664,0.09272,0.08296,0.05368,0.06344
0.11712,-0.09516,0.0732,0.01464,-0.04392,0.08052,0.01464,0.14152,0.10736,0.0976,0.08296,0.08296
0.09272,-0.08052,0.06832,0.02196,-0.0244,0.05856,0.02928,0.15616,0.122,0.10248,0.08784,0.0732
0.0732,-0.07076,0.06832,0.03172,-0.00488,0.03904,0.03904,0.16592,0.122,0.10248,0.08784,0.07808
0.07808,-0.07808,0.07808,0.03904,0,0.03904,0.03416,0.15616,0.12688,0.09272,0.0732,0.06832
0.07808,-0.08052,0.08296,0.04392,0.00488,0.0366,0.0488,0.16104,0.12688,0.09272,0.08784,0.06832
0.06832,-0.0732,0.07808,0.04392,0.00976,0.02928,0.0488,0.1464,0.13664,0.09272,0.07808,0.06832
0.05856,-0.06588,0.0732,0.04392,0.01464,0.02196,0.0488,0.13176,0.122,0.08784,0.05856,0.05856
0.04392,-0.04636,0.0488,0.02684,0.00488,0.01952,0.05856,0.122,0.13176,0.08296,0.06344,0.05368
0.03416,-0.0366,0.03904,0.02196,0.00488,0.01464,0.05368,0.10248,0.11712,0.06832,0.0488,0.03904
0.01464,-0.0244,0.03416,0.02684,0.01952,-0.00244,0.05368,0.10736,0.10248,0.06344,0.0488,0.03416
0.01464,-0.0244,0.03416,0.02684,0.01952,-0.00244,0.04392,0.10248,0.09272,0.05856,0.02928,0.0244
0,-0.00488,0.00976,0.00976,0.00976,-0.00488,0.05856,0.08296,0.08296,0.03904,0.0244,0.01464
-0.00488,0,0.00488,0.00732,0.00976,-0.00732,0.05856,0.07808,0.07808,0.02928,0.01952,0.00976
0,-0.00488,0.00976,0.00976,0.00976,-0.00488,0.06832,0.06832,0.06344,0.03904,0.0244,0.00976
-0.01952,0.0122,-0.00488,0.00488,0.01464,-0.01708,0.05856,0.05368,0.05856,0.0244,0.00488,-0.00488
-0.03904,0.01952,0,0.01952,0.03904,-0.03904,0.06344,0.05856,0.05368,0.0244,0.00976,0
-0.03416,0.01708,0,0.01708,0.03416,-0.03416,0.06832,0.06832,0.06344,0.03416,0.01952,0
-0.03904,0.02684,-0.01464,0.00488,0.0244,-0.03172,0.0488,0.0488,0.0488,0,0,-0.02928
-0.02928,0.03172,-0.03416,-0.01952,-0.00488,-0.0122,0.0488,0.03904,0.03416,-0.00488,-0.00976,-0.02928
-0.01952,0.02196,-0.0244,-0.01464,-0.00488,-0.00732,0.03904,0.0244,0.03904,-0.00488,-0.01952,-0.02928
-0.0244,0.0244,-0.0244,-0.0122,0,-0.0122,0.03904,0.0244,0.03904,-0.00488,-0.01952,-0.0244
-0.03416,0.03172,-0.02928,-0.0122,0.00488,-0.01952,0.04392,0.03416,0.0488,0.00488,-0.00976,-0.01464
-0.03416,0.03416,-0.03416,-0.01708,0,-0.01708,0.0488,0.0488,0.04392,0.00488,0,-0.01464
-0.03416,0.02684,-0.01952,-0.00244,0.01464,-0.0244,0.05856,0.03416,0.04392,0.00976,-0.00488,-0.00488
-0.02928,0.02196,-0.01464,0,0.01464,-0.02196,0.05368,0.03416,0.04392,0.00488,0,-0.00488
-0.03904,0.03416,-0.02928,-0.00976,0.00976,-0.0244,0.03904,0.02928,0.03416,0.00976,-0.00976,-0.01464
-0.05856,0.04392,-0.02928,0,0.02928,-0.04392,0.02928,0.0244,0.02928,0.00976,-0.00976,-0.01952
-0.05368,0.03904,-0.0244,0.00244,0.02928,-0.04148,0.03904,0.0244,0.02928,0,-0.01464,-0.01952
-0.03904,0.03172,-0.0244,-0.00488,0.01464,-0.02684,0.03904,0.01952,0.02928,-0.00488,-0.01464,-0.0244
-0.05856,0.04636,-0.03416,-0.00488,0.0244,-0.04148,0.0488,0.00976,0.01952,-0.00488,-0.01464,-0.0244
-0.05856,0.05612,-0.05368,-0.0244,0.00488,-0.03172,0.0488,0.00976,0.00976,0,-0.01464,-0.0244
-0.03904,0.03172,-0.0244,-0.00488,0.01464,-0.02684,0.05368,0.00976,0.01464,0,-0.00488,-0.0244
-0.02928,0.02196,-0.01464,0,0.01464,-0.02196,0.05368,0.01464,0.01464,-0.01464,-0.0244,-0.01952
-0.03904,0.02684,-0.01464,0.00488,0.0244,-0.03172,0.03904,0.00488,0.0244,-0.01464,-0.01464,-0.01952
-0.02928,0.01952,-0.00976,0.00488,0.01952,-0.0244,0.03904,0.00488,0.01952,-0.00976,-0.01464,-0.0244
-0.0488,0.02928,-0.00976,0.01464,0.03904,-0.04392,0.03416,0.00976,0.02928,0,-0.00976,-0.0244
-0.04392,0.02684,-0.00976,0.0122,0.03416,-0.03904,0.03416,0.01952,0.03416,0.00488,-0.00976,-0.01464
-0.0244,0.0244,-0.0244,-0.0122,0,-0.0122,0.03416,0.0244,0.03416,0.00488,-0.01464,-0.01952
-0.03416,0.0366,-0.03904,-0.02196,-0.00488,-0.01464,0.03904,0.0244,0.03416,0,-0.01464,-0.01952
-0.03416,0.03416,-0.03416,-0.01708,0,-0.01708,0.02928,0.01464,0.02928,0,-0.0244,-0.01464
-0.03416,0.03172,-0.02928,-0.0122,0.00488,-0.01952,0.01464,0.00976,0.02928,0,-0.01464,-0.01464
-0.0244,0.01464,-0.00488,0.00732,0.01952,-0.02196,0.0244,0.00976,0.01952,-0.00488,-0.00976,-0.01464
-0.0244,0.01464,-0.00488,0.00732,0.01952,-0.02196,0.02928,0.00976,0.0244,-0.00488,-0.01952,-0.01464
-0.01464,0.00976,-0.00488,0.00244,0.00976,-0.0122,0.01952,0.01952,0.03416,0,-0.00976,-0.01952
-0.00976,0.00976,-0.00976,-0.00488,0,-0.00488,0.01952,0.01952,0.02928,0,-0.01952,-0.01952
-0.00976,0.00732,-0.00488,0,0.00488,-0.00732,0.01952,0.01952,0.02928,-0.00488,-0.01464,-0.00976
-0.00976,0.00976,-0.00976,-0.00488,0,-0.00488,0.01464,0.00976,0.0244,-0.01464,-0.01464,-0.00976
-0.00488,0.0122,-0.01952,-0.01708,-0.01464,0.00488,0.0244,0.01464,0.02928,0,-0.00488,-0.01464
-0.01952,0.01708,-0.01464,-0.00488,0.00488,-0.0122,0.02928,0.01952,0.02928,0.00488,0.00488,-0.00976
-0.00976,0.01708,-0.0244,-0.01952,-0.01464,0.00244,0.00976,0.00976,0.00976,-0.01464,-0.01464,-0.0244
-0.00976,0.01952,-0.02928,-0.0244,-0.01952,0.00488,0,0,0.01464,-0.00976,-0.01464,-0.01952
0,0.01464,-0.02928,-0.02928,-0.02928,0.01464,0.01464,0.00488,0.00976,-0.00976,-0.01952,-0.02928
0,0.01952,-0.03904,-0.03904,-0.03904,0.01952,0.01464,0.00488,0.00488,-0.00976,-0.0244,-0.02928
-0.01464,0.01952,-0.0244,-0.01708,-0.00976,-0.00244,0.0244,0.01952,0.01464,0.00488,-0.00976,-0.01952
-0.02928,0.0244,-0.01952,-0.00488,0.00976,-0.01952,0.0244,0.01952,0.0244,0,0.00976,-0.0244
-0.01952,0.01952,-0.01952,-0.00976,0,-0.00976,0.0244,0.01464,0.00976,-0.01952,-0.01952,-0.02928
0,0.0122,-0.0244,-0.0244,-0.0244,0.0122,0.01952,0.00488,0.00976,-0.01464,-0.01952,-0.02928
-0.01952,0.0244,-0.02928,-0.01952,-0.00976,-0.00488,0.00976,0.00488,0,-0.01952,-0.02928,-0.02928
-0.04392,0.04392,-0.04392,-0.02196,0,-0.02196,0.00976,0.00488,0,-0.0244,-0.02928,-0.03904
-0.03416,0.03172,-0.02928,-0.0122,0.00488,-0.01952,0.01952,0.00976,0,-0.01952,-0.01952,-0.0244
-0.02928,0.0244,-0.01952,-0.00488,0.00976,-0.01952,0.01952,0.00976,0,-0.01952,-0.01952,-0.0244
-0.0244,0.02196,-0.01952,-0.00732,0.00488,-0.01464,0.01952,0.01464,0.00488,-0.00976,-0.01952,-0.02928
-0.02928,0.0244,-0.01952,-0.00488,0.00976,-0.01952,0.01464,0.00976,0.00488,-0.01952,-0.01952,-0.03904
-0.01464,0.02196,-0.02928,-0.02196,-0.01464,0,0.00488,0,-0.00976,-0.02928,-0.02928,-0.04392
0.00488,0.00976,-0.0244,-0.02684,-0.02928,0.01708,0.00488,0,-0.00976,-0.02928,-0.02928,-0.03904
-0.0244,0.02928,-0.03416,-0.02196,-0.00976,-0.00732,0.01952,0,0.00488,-0.01952,-0.01464,-0.0244
-0.03416,0.03416,-0.03416,-0.01708,0,-0.01708,0.0244,0.00488,0.00488,-0.01952,-0.02928,-0.02928
-0.02928,0.02928,-0.02928,-0.01464,0,-0.01464,0.00976,-0.00488,0,-0.02928,-0.02928,-0.03904
-0.0244,0.03172,-0.03904,-0.02684,-0.01464,-0.00488,0.00976,-0.00488,-0.00488,-0.0244,-0.0244,-0.03904
-0.00976,0.01464,-0.01952,-0.01464,-0.00976,0,0.01952,0.00488,0,-0.0244,-0.0244,-0.03416
0,0.00488,-0.00976,-0.00976,-0.00976,0.00488,0.01952,0.0244,0.00976,-0.0244,-0.01952,-0.03416
-0.02928,0.0244,-0.01952,-0.00488,0.00976,-0.01952,0.01952,0.00488,0,-0.03416,-0.02928,-0.04392
-0.0244,0.03416,-0.04392,-0.03172,-0.01952,-0.00244,0.00488,-0.01464,-0.01952,-0.04392,-0.03904,-0.0488
-0.02928,0.03904,-0.0488,-0.03416,-0.01952,-0.00488,0.00976,-0.00488,-0.00488,-0.03904,-0.02928,-0.0488
-0.03416,0.03904,-0.04392,-0.02684,-0.00976,-0.0122,0.01464,-0.00488,-0.00488,-0.03904,-0.0244,-0.0488
-0.01952,0.02196,-0.0244,-0.01464,-0.00488,-0.00732,0.01464,0.00976,-0.01464,-0.03904,-0.03904,-0.0488
-0.0244,0.01708,-0.00976,0.00244,0.01464,-0.01952,0.00976,0.00976,-0.01464,-0.03904,-0.03904,-0.04392
-0.03416,0.03416,-0.03416,-0.01708,0,-0.01708,0.00976,0.00488,0,-0.02928,-0.03416,-0.03904
-0.02928,0.04392,-0.05856,-0.04392,-0.02928,0,0.01464,0,-0.00488,-0.03416,-0.03416,-0.03904
-0.01952,0.03172,-0.04392,-0.03416,-0.0244,0.00244,0.00976,0,-0.01952,-0.03416,-0.04392,-0.04392
-0.01464,0.0244,-0.03416,-0.02684,-0.01952,0.00244,0.00976,-0.00488,-0.0244,-0.02928,-0.03416,-0.04392
-0.01952,0.0244,-0.02928,-0.01952,-0.00976,-0.00488,0.01952,-0.00488,-0.00976,-0.02928,-0.03416,-0.04392
-0.0244,0.02684,-0.02928,-0.01708,-0.00488,-0.00976,0.01952,-0.00488,-0.00976,-0.0244,-0.03416,-0.04392
-0.03416,0.03416,-0.03416,-0.01708,0,-0.01708,0.01464,-0.00488,-0.01952,-0.03416,-0.04392,-0.0488
-0.03416,0.03904,-0.04392,-0.02684,-0.00976,-0.0122,0.01952,0,-0.01952,-0.0488,-0.04392,-0.05856
-0.0488,0.0488,-0.0488,-0.0244,0,-0.0244,0.01952,0.01464,-0.01952,-0.04392,-0.03904,-0.0488
-0.0488,0.0488,-0.0488,-0.0244,0,-0.0244,0.01952,0.00976,-0.01952,-0.03416,-0.03904,-0.03904
-0.0244,0.0244,-0.0244,-0.0122,0,-0.0122,0.00976,0,-0.01952,-0.04392,-0.0488,-0.0488
-0.01464,0.01708,-0.01952,-0.0122,-0.00488,-0.00488,0.00976,0,-0.01952,-0.03904,-0.04392,-0.0488
-0.01952,0.01952,-0.01952,-0.00976,0,-0.00976,0.01464,0.00976,-0.0244,-0.03904,-0.0488,-0.05856
-0.0244,0.02928,-0.03416,-0.02196,-0.00976,-0.00732,0.01464,0,-0.03416,-0.04392,-0.0488,-0.06832
-0.02928,0.0366,-0.04392,-0.02928,-0.01464,-0.00732,0.00488,0,-0.0244,-0.04392,-0.0488,-0.06344
-0.03904,0.04636,-0.05368,-0.03416,-0.01464,-0.0122,0.00488,-0.01464,-0.0244,-0.04392,-0.05368,-0.06344
-0.0244,0.03172,-0.03904,-0.02684,-0.01464,-0.00488,0.01952,-0.00488,-0.01464,-0.03416,-0.04392,-0.0488
-0.0244,0.02684,-0.02928,-0.01708,-0.00488,-0.00976,0.02928,0.00976,-0.00976,-0.02928,-0.04392,-0.04392
-0.00976,0.01952,-0.02928,-0.0244,-0.01952,0.00488,0.02928,0.00976,-0.00976,-0.03416,-0.03904,-0.0488
-0.00488,0.01952,-0.03416,-0.03172,-0.02928,0.0122,0.02928,0.00976,-0.00976,-0.03416,-0.03904,-0.05856
-0.00488,0.02196,-0.03904,-0.0366,-0.03416,0.01464,0.01464,0,-0.01952,-0.04392,-0.0488,-0.05856
-0.00976,0.01952,-0.02928,-0.0244,-0.01952,0.00488,0.01464,0.00488,-0.02928,-0.04392,-0.05368,-0.05856
-0.03416,0.02928,-0.0244,-0.00732,0.00976,-0.02196,0.0244,0.01464,-0.00976,-0.02928,-0.03416,-0.0488
-0.04392,0.01952,0.00488,0.02684,0.0488,-0.04636,0.02928,0.0244,-0.00488,-0.01952,-0.02928,-0.03904
-0.03904,0.03416,-0.02928,-0.00976,0.00976,-0.0244,0.01952,0.00976,-0.00976,-0.02928,-0.02928,-0.03904
-0.02928,0.03416,-0.03904,-0.0244,-0.00976,-0.00976,0.00976,0,-0.01952,-0.03904,-0.03904,-0.0488
-0.02928,0.03416,-0.03904,-0.0244,-0.00976,-0.00976,0,-0.00976,-0.01952,-0.03904,-0.03904,-0.0488
-0.01952,0.0244,-0.02928,-0.01952,-0.00976,-0.00488,0.00976,0,-0.00976,-0.03904,-0.03904,-0.0488
-0.00976,0.01952,-0.02928,-0.0244,-0.01952,0.00488,0.01952,0,-0.00976,-0.03904,-0.03904,-0.0488
-0.01952,0.01952,-0.01952,-0.00976,0,-0.00976,0.01952,0.00976,-0.00976,-0.02928,-0.02928,-0.0488
-0.02928,0.0244,-0.01952,-0.00488,0.00976,-0.01952,0.01952,0.00976,-0.00976,-0.02928,-0.02928,-0.0488
-0.03904,0.03904,-0.03904,-0.01952,0,-0.01952,0.01952,0,-0.01952,-0.03904,-0.03904,-0.05856
-0.02928,0.0488,-0.06832,-0.05368,-0.03904,0.00488,0.01464,-0.00488,-0.0244,-0.03904,-0.04392,-0.05856
-0.02928,0.03904,-0.0488,-0.03416,-0.01952,-0.00488,0,-0.01464,-0.0244,-0.03904,-0.03904,-0.0488
-0.00488,0.01952,-0.03416,-0.03172,-0.02928,0.0122,0,-0.00976,-0.0244,-0.03416,-0.03416,-0.04392
0.00976,0.01708,-0.04392,-0.0488,-0.05368,0.03172,0.01464,0.01464,-0.02928,-0.02928,-0.03904,-0.04392
0.02928,0.00732,-0.04392,-0.05856,-0.0732,0.05124,0.01464,0.0244,-0.01952,-0.0244,-0.03416,-0.03416
0.0488,-0.00488,-0.03904,-0.06344,-0.08784,0.06832,0.00488,0.03904,-0.01464,-0.02928,-0.02928,-0.03904
0.05856,-0.00976,-0.03904,-0.06832,-0.0976,0.07808,-0.00976,0.03416,-0.01464,-0.03416,-0.03416,-0.0488
0.09272,-0.0366,-0.01952,-0.06588,-0.11224,0.10248,0.00488,0.03904,-0.00488,-0.01952,-0.01952,-0.02928
0.08784,-0.03416,-0.01952,-0.06344,-0.10736,0.0976,0.01952,0.04392,0.00976,-0.00488,0,-0.0244
0.07808,-0.03416,-0.00976,-0.0488,-0.08784,0.08296,0.00976,0.03904,0.00488,-0.01464,-0.00976,-0.02928
0.0732,-0.02196,-0.02928,-0.06588,-0.10248,0.08784,-0.01464,0.00488,-0.01952,-0.02928,-0.01952,-0.04392
0.0488,-0.0122,-0.0244,-0.0488,-0.0732,0.061,-0.0244,-0.00488,-0.03904,-0.03904,-0.02928,-0.03904
0.03904,-0.00732,-0.0244,-0.04392,-0.06344,0.05124,-0.01952,-0.01952,-0.03416,-0.03416,-0.02928,-0.03904
0.05368,-0.02196,-0.00976,-0.0366,-0.06344,0.05856,-0.01952,-0.01952,-0.03416,-0.01952,-0.02928,-0.0244
0.03904,-0.0244,0.00976,-0.00976,-0.02928,0.03416,0,-0.00488,-0.02928,-0.01952,-0.0244,-0.0244
0.01952,-0.00244,-0.01464,-0.0244,-0.03416,0.02684,0.01464,0.00488,-0.01952,-0.01952,-0.01952,-0.0244
-0.00488,0.01464,-0.0244,-0.02196,-0.01952,0.00732,0.01952,0,-0.01952,-0.02928,-0.01952,-0.04392
-0.01952,0.03904,-0.05856,-0.0488,-0.03904,0.00976,0,-0.0244,-0.05368,-0.0488,-0.05368,-0.0732
-0.03904,0.05612,-0.0732,-0.05368,-0.03416,-0.00244,-0.00488,-0.0244,-0.05368,-0.05368,-0.05368,-0.07808
-0.0488,0.06344,-0.07808,-0.05368,-0.02928,-0.00976,0.00488,-0.01464,-0.05368,-0.05368,-0.05856,-0.06832
-0.05368,0.06588,-0.07808,-0.05124,-0.0244,-0.01464,0.01464,-0.01464,-0.05856,-0.05856,-0.05856,-0.06832
-0.06344,0.08052,-0.0976,-0.06588,-0.03416,-0.01464,0.00488,-0.02928,-0.0732,-0.0732,-0.0732,-0.09272
-0.06344,0.08052,-0.0976,-0.06588,-0.03416,-0.01464,-0.00488,-0.03416,-0.0732,-0.07808,-0.0732,-0.09272
-0.0488,0.06832,-0.08784,-0.06344,-0.03904,-0.00488,-0.01952,-0.04392,-0.07808,-0.0732,-0.0732,-0.09272
-0.04392,0.05612,-0.06832,-0.04636,-0.0244,-0.00976,-0.01952,-0.0488,-0.06344,-0.05856,-0.05856,-0.08296
-0.03904,0.04636,-0.05368,-0.03416,-0.01464,-0.0122,-0.00488,-0.03416,-0.04392,-0.03904,-0.05368,-0.06832
-0.02928,0.04148,-0.05368,-0.03904,-0.0244,-0.00244,0.00488,-0.01464,-0.04392,-0.04392,-0.05368,-0.05856
-0.02928,0.03904,-0.0488,-0.03416,-0.01952,-0.00488,0,-0.01464,-0.04392,-0.05368,-0.05368,-0.06832
-0.03904,0.04148,-0.04392,-0.0244,-0.00488,-0.01708,0,-0.01464,-0.03904,-0.0488,-0.05368,-0.06344
-0.03904,0.03416,-0.02928,-0.00976,0.00976,-0.0244,0.0244,-0.00488,-0.01952,-0.04392,-0.03904,-0.05368
-0.04392,0.03416,-0.0244,-0.00244,0.01952,-0.03172,0.03416,0.00488,-0.01952,-0.04392,-0.03904,-0.0488
-0.05368,0.05124,-0.0488,-0.02196,0.00488,-0.02928,0.03904,0.00488,-0.02928,-0.04392,-0.03416,-0.05856
-0.06832,0.07076,-0.0732,-0.03904,-0.00488,-0.03172,0.03416,0.00976,-0.02928,-0.04392,-0.03416,-0.05368
-0.06344,0.06344,-0.06344,-0.03172,0,-0.03172,0.01464,-0.00488,-0.03416,-0.03904,-0.03904,-0.06344
-0.05368,0.05368,-0.05368,-0.02684,0,-0.02684,0.01464,-0.00488,-0.03416,-0.03904,-0.03904,-0.06344
-0.04392,0.04636,-0.0488,-0.02684,-0.00488,-0.01952,0.02928,-0.00488,-0.03416,-0.04392,-0.03904,-0.06344
-0.05368,0.05124,-0.0488,-0.02196,0.00488,-0.02928,0.02928,0.00488,-0.02928,-0.04392,-0.03904,-0.06344
-0.0244,0.0244,-0.0244,-0.0122,0,-0.0122,0.02928,0.00488,-0.0244,-0.0244,-0.0244,-0.05368
-0.07808,0.07564,-0.0732,-0.03416,0.00488,-0.04148,0.04392,0.01464,-0.01464,-0.03416,-0.04392,-0.06344
-0.10736,0.09516,-0.08296,-0.02928,0.0244,-0.06588,0.11712,0.0976,0.05368,0,-0.02928,-0.05368
-0.10736,0.08052,-0.05368,0,0.05368,-0.08052,0.20496,0.22936,0.15616,0.06344,0.00488,-0.0488
-0.08296,0.0732,-0.06344,-0.02196,0.01952,-0.05124,0.32696,0.44408,0.29768,0.1464,0.03904,-0.04392
0.04392,0.0122,-0.06832,-0.09028,-0.11224,0.07808,0.37088,0.55632,0.3904,0.20496,0.08296,-0.00976
0.24888,-0.11468,-0.01952,-0.14396,-0.2684,0.25864,0.366,0.72712,0.51728,0.31232,0.1952,0.07808
0.41968,-0.24644,0.0732,-0.13664,-0.34648,0.38308,0.43432,0.98088,0.79056,0.55632,0.40016,0.244
0.51728,-0.38552,0.25376,-0.00488,-0.26352,0.3904,0.4392,0.95648,0.95648,0.75152,0.57584,0.41968
0.69784,-0.5368,0.37576,0.02684,-0.32208,0.50996,0.30256,0.7808,0.89792,0.76616,0.64904,0.52704
0.8296,-0.6832,0.5368,0.122,-0.2928,0.5612,-0.0244,0.22936,0.52704,0.60512,0.60024,0.54656
0.94184,-0.79788,0.65392,0.183,-0.28792,0.61488,-0.3904,-0.40504,0.02928,0.3904,0.53192,0.56608
1.01992,-0.96136,0.9028,0.39284,-0.11712,0.56852,-0.76616,-0.96624,-0.2928,0.3172,0.57584,0.6832
0.50264,-0.7808,1.05896,0.80764,0.55632,-0.02684,-0.7564,-1.19072,-0.26352,0.42456,0.732,0.87352
0.22936,-0.5734,0.91744,0.80276,0.68808,-0.22936,-0.80032,-1.28344,-0.45872,0.2684,0.59048,0.74664
0.11712,-0.37576,0.6344,0.57584,0.51728,-0.20008,-0.854,-1.2688,-0.66856,0,0.3172,0.47824
0.03904,-0.183,0.32696,0.30744,0.28792,-0.12444,-0.74176,-1.0736,-0.78568,-0.23424,0.06832,0.23424
0.02928,-0.09272,0.15616,0.14152,0.12688,-0.0488,-0.61,-0.8784,-0.73688,-0.31232,-0.0732,0.09272
0.01952,-0.02684,0.03416,0.0244,0.01464,0.00244,-0.47336,-0.71248,-0.69784,-0.42456,-0.2196,-0.09272
-0.04392,0.04392,-0.04392,-0.02196,0,-0.02196,-0.38064,-0.60024,-0.5856,-0.38552,-0.244,-0.15128
-0.11224,0.08052,-0.0488,0.00732,0.06344,-0.08784,-0.22936,-0.37576,-0.35624,-0.22448,-0.14152,-0.10248
-0.11224,0.0854,-0.05856,-0.00244,0.05368,-0.08296,-0.10248,-0.1708,-0.18544,-0.15616,-0.0976,-0.08296
-0.0976,0.06344,-0.02928,0.01952,0.06832,-0.08296,-0.06344,-0.12688,-0.12688,-0.09272,-0.06344,-0.06344
-0.08784,0.061,-0.03416,0.00976,0.05368,-0.07076,-0.02928,-0.0732,-0.08784,-0.05368,-0.03416,-0.0488
-0.08784,0.06588,-0.04392,0,0.04392,-0.06588,-0.01952,-0.05368,-0.07808,-0.05368,-0.0488,-0.06344
-0.07808,0.061,-0.04392,-0.00488,0.03416,-0.05612,-0.00976,-0.0488,-0.06344,-0.05368,-0.0488,-0.06344
-0.08296,0.06588,-0.0488,-0.00732,0.03416,-0.05856,0,-0.0488,-0.06344,-0.05368,-0.04392,-0.06344
-0.08296,0.06588,-0.0488,-0.00732,0.03416,-0.05856,0.0244,-0.02928,-0.0488,-0.04392,-0.02928,-0.05368
-0.08784,0.07076,-0.05368,-0.00976,0.03416,-0.061,0.02928,-0.01464,-0.0488,-0.0488,-0.03904,-0.06344
-0.09272,0.08052,-0.06832,-0.02196,0.0244,-0.05856,0.02928,-0.00488,-0.0488,-0.05368,-0.05368,-0.0732
-0.09272,0.07808,-0.06344,-0.01708,0.02928,-0.061,0.02928,-0.01952,-0.05368,-0.05368,-0.05368,-0.07808
-0.0732,0.06588,-0.05856,-0.02196,0.01464,-0.04392,0.0244,-0.02928,-0.05368,-0.05856,-0.05856,-0.08784
-0.0732,0.06588,-0.05856,-0.02196,0.01464,-0.04392,0.01952,-0.02928,-0.05368,-0.05368,-0.05856,-0.08296
-0.08296,0.07076,-0.05856,-0.01708,0.0244,-0.05368,0.01464,-0.02928,-0.05368,-0.05856,-0.04392,-0.0732
-0.09272,0.07564,-0.05856,-0.0122,0.03416,-0.06344,0.0244,-0.0244,-0.0488,-0.03904,-0.04392,-0.06832
-0.08784,0.06832,-0.0488,-0.00488,0.03904,-0.06344,0.01464,-0.00976,-0.03904,-0.03416,-0.0488,-0.06344
-0.08296,0.0732,-0.06344,-0.02196,0.01952,-0.05124,0.01464,-0.00976,-0.04392,-0.03904,-0.0488,-0.06344
-0.08296,0.07564,-0.06832,-0.02684,0.01464,-0.0488,0.0244,-0.00488,-0.04392,-0.02928,-0.03904,-0.06344
-0.08296,0.07564,-0.06832,-0.02684,0.01464,-0.0488,0.01952,-0.00976,-0.0488,-0.03416,-0.04392,-0.0732
-0.0732,0.061,-0.0488,-0.0122,0.0244,-0.0488,0.00976,-0.01952,-0.03904,-0.04392,-0.04392,-0.08296
-0.06344,0.05368,-0.04392,-0.0122,0.01952,-0.04148,0.00976,-0.01952,-0.03904,-0.04392,-0.04392,-0.0732
-0.06832,0.061,-0.05368,-0.01952,0.01464,-0.04148,0.01464,-0.01952,-0.05368,-0.0488,-0.04392,-0.0732
-0.07808,0.0732,-0.06832,-0.02928,0.00976,-0.04392,0.01952,-0.01952,-0.0488,-0.0488,-0.04392,-0.06344
-0.09272,0.0854,-0.07808,-0.03172,0.01464,-0.05368,0.00976,-0.01952,-0.05856,-0.05856,-0.04392,-0.06344
-0.08296,0.09028,-0.0976,-0.05612,-0.01464,-0.03416,0.00976,-0.0244,-0.06344,-0.05856,-0.06344,-0.08296
-0.09272,0.09272,-0.09272,-0.04636,0,-0.04636,0.00976,-0.0244,-0.05368,-0.0488,-0.05856,-0.0732
-0.09272,0.0854,-0.07808,-0.03172,0.01464,-0.05368,0.01464,-0.03416,-0.05856,-0.05368,-0.05856,-0.0732
-0.08784,0.08052,-0.0732,-0.02928,0.01464,-0.05124,0.01464,-0.0244,-0.06344,-0.05368,-0.0488,-0.0732
-0.08296,0.08052,-0.07808,-0.0366,0.00488,-0.04392,0,-0.0244,-0.06832,-0.05368,-0.0488,-0.0732
-0.08784,0.07808,-0.06832,-0.0244,0.01952,-0.05368,-0.00976,-0.01952,-0.06344,-0.05368,-0.05856,-0.0732
-0.08784,0.08296,-0.07808,-0.03416,0.00976,-0.0488,-0.00976,-0.01464,-0.06344,-0.05856,-0.06344,-0.0732
-0.08296,0.08296,-0.08296,-0.04148,0,-0.04148,0,-0.0244,-0.06344,-0.05856,-0.06344,-0.08296
-0.0732,0.0732,-0.0732,-0.0366,0,-0.0366,-0.00488,-0.0244,-0.06344,-0.05856,-0.06344,-0.08296
-0.07808,0.07076,-0.06344,-0.0244,0.01464,-0.04636,-0.00488,-0.0244,-0.05368,-0.05856,-0.06344,-0.07808
-0.0732,0.06588,-0.05856,-0.02196,0.01464,-0.04392,-0.00976,-0.0244,-0.05856,-0.05856,-0.05368,-0.06832
-0.06344,0.05612,-0.0488,-0.01708,0.01464,-0.03904,-0.00976,-0.03904,-0.05856,-0.05856,-0.05856,-0.07808
-0.05856,0.05368,-0.0488,-0.01952,0.00976,-0.03416,-0.01464,-0.02928,-0.05856,-0.05856,-0.05368,-0.07808
-0.0732,0.06832,-0.06344,-0.02684,0.00976,-0.04148,-0.00976,-0.03904,-0.06832,-0.06832,-0.05856,-0.0732
-0.08296,0.07808,-0.0732,-0.03172,0.00976,-0.04636,-0.01952,-0.05856,-0.0732,-0.06832,-0.05856,-0.0732
-0.07808,0.0732,-0.06832,-0.02928,0.00976,-0.04392,-0.01464,-0.03904,-0.06832,-0.05856,-0.0488,-0.0732
-0.05856,0.05856,-0.05856,-0.02928,0,-0.02928,-0.01464,-0.0244,-0.06344,-0.05368,-0.05856,-0.06832
-0.0488,0.0488,-0.0488,-0.0244,0,-0.0244,-0.00488,-0.01952,-0.05368,-0.05368,-0.0488,-0.06344
-0.0488,0.04392,-0.03904,-0.01464,0.00976,-0.02928,-0.00976,-0.01952,-0.05368,-0.05368,-0.04392,-0.05856
-0.05368,0.0488,-0.04392,-0.01708,0.00976,-0.03172,-0.0244,-0.02928,-0.05368,-0.04392,-0.03904,-0.05856
-0.05368,0.0488,-0.04392,-0.01708,0.00976,-0.03172,-0.02928,-0.0244,-0.05368,-0.04392,-0.03904,-0.05856
-0.06344,0.05368,-0.04392,-0.0122,0.01952,-0.04148,-0.01952,-0.01464,-0.05368,-0.02928,-0.03416,-0.0488
-0.0488,0.04392,-0.03904,-0.01464,0.00976,-0.02928,-0.01952,-0.01464,-0.0488,-0.02928,-0.03416,-0.0488
-0.05368,0.0488,-0.04392,-0.01708,0.00976,-0.03172,-0.00976,-0.0244,-0.05856,-0.0488,-0.0488,-0.05856
-0.05368,0.05124,-0.0488,-0.02196,0.00488,-0.02928,-0.00976,-0.0244,-0.05368,-0.0488,-0.05856,-0.06832
-0.02928,0.03416,-0.03904,-0.0244,-0.00976,-0.00976,-0.00976,-0.00488,-0.03904,-0.02928,-0.03416,-0.05368
-0.01464,0.02196,-0.02928,-0.02196,-0.01464,0,-0.01464,-0.00488,-0.03416,-0.01952,-0.01952,-0.02928
-0.01464,0.01952,-0.0244,-0.01708,-0.00976,-0.00244,-0.01464,0.00488,-0.03416,-0.0244,-0.0244,-0.03416
-0.0244,0.02196,-0.01952,-0.00732,0.00488,-0.01464,-0.01464,0.00976,-0.02928,-0.01952,-0.01952,-0.03416
-0.01464,0.0122,-0.00976,-0.00244,0.00488,-0.00976,-0.01464,0.00976,-0.01952,-0.00976,-0.00976,-0.02928
-0.01464,0.00732,0,0.00732,0.01464,-0.01464,-0.01464,0.01952,-0.01464,-0.00488,0.00488,-0.01952
-0.00488,0,0.00488,0.00732,0.00976,-0.00732,-0.00488,0.01952,-0.00976,0.00488,0,-0.01464
-0.00488,0,0.00488,0.00732,0.00976,-0.00732,0,0.03904,0,0,0,-0.00488
-0.00488,0.00488,-0.00488,-0.00244,0,-0.00244,0.00488,0.0488,0.00488,0.00488,0.00976,-0.01464
0.00976,-0.00732,0.00488,0,-0.00488,0.00732,0,0.05856,0.00488,0.00976,0.00488,-0.01464
0.03416,-0.01708,0,-0.01708,-0.03416,0.03416,0,0.05856,0.00488,0.01952,0.01464,-0.00976
0.03904,-0.02196,0.00488,-0.01464,-0.03416,0.0366,0,0.06832,0.00976,0.0244,0.01952,-0.00488
0.02928,-0.0122,-0.00488,-0.01952,-0.03416,0.03172,0.00488,0.07808,0.0244,0.0244,0.02928,0
0.03416,-0.01708,0,-0.01708,-0.03416,0.03416,0.00976,0.08784,0.03416,0.02928,0.0244,0.00976
0.03904,-0.03172,0.0244,0.00488,-0.01464,0.02684,0.00488,0.09272,0.0488,0.03416,0.03904,0.02928
0.05856,-0.05124,0.04392,0.01464,-0.01464,0.0366,0.00976,0.10736,0.0488,0.05368,0.05856,0.02928
0.06344,-0.05612,0.0488,0.01708,-0.01464,0.03904,0.01464,0.122,0.06344,0.05368,0.06344,0.03416
0.05368,-0.0488,0.04392,0.01708,-0.00976,0.03172,0.0244,0.13176,0.0732,0.05856,0.06344,0.04392
0.0488,-0.03904,0.02928,0.00488,-0.01952,0.03416,0.03416,0.15128,0.0732,0.07808,0.0732,0.04392
0.05856,-0.0488,0.03904,0.00976,-0.01952,0.03904,0.03416,0.16592,0.08296,0.08784,0.07808,0.04392
0.06344,-0.05612,0.0488,0.01708,-0.01464,0.03904,0.0244,0.16104,0.08296,0.08296,0.08296,0.05368
0.0732,-0.06588,0.05856,0.02196,-0.01464,0.04392,0.02928,0.15616,0.09272,0.09272,0.09272,0.06832
0.07808,-0.0732,0.06832,0.02928,-0.00976,0.04392,0.03416,0.1708,0.10736,0.10248,0.09272,0.06344
0.08784,-0.0854,0.08296,0.03904,-0.00488,0.04636,0.03416,0.17568,0.11224,0.11712,0.10248,0.06832
0.08784,-0.08052,0.0732,0.02928,-0.01464,0.05124,0.0488,0.18544,0.12688,0.11712,0.11224,0.08296
0.09272,-0.0854,0.07808,0.03172,-0.01464,0.05368,0.05368,0.18544,0.13176,0.122,0.11712,0.08296
0.08296,-0.08052,0.07808,0.0366,-0.00488,0.04392,0.05368,0.1952,0.14152,0.12688,0.122,0.09272
0.07808,-0.08052,0.08296,0.04392,0.00488,0.0366,0.06832,0.20008,0.1464,0.1464,0.13664,0.10248
0.07808,-0.0854,0.09272,0.05368,0.01464,0.03172,0.07808,0.1952,0.1464,0.14152,0.1464,0.10736
0.07808,-0.09028,0.10248,0.06344,0.0244,0.02684,0.07808,0.18544,0.13664,0.14152,0.13664,0.10736
0.06832,-0.07808,0.08784,0.05368,0.01952,0.0244,0.07808,0.17568,0.13176,0.12688,0.122,0.08296
0.04392,-0.0488,0.05368,0.03172,0.00976,0.01708,0.08784,0.16592,0.122,0.11224,0.0976,0.0732
0.03904,-0.04636,0.05368,0.03416,0.01464,0.0122,0.09272,0.14152,0.11712,0.10736,0.08784,0.06832
0.03904,-0.04636,0.05368,0.03416,0.01464,0.0122,0.09272,0.13176,0.11224,0.0976,0.08784,0.05856
0.03904,-0.04148,0.04392,0.0244,0.00488,0.01708,0.0732,0.10736,0.0976,0.0976,0.0732,0.0488
0.03416,-0.04148,0.0488,0.03172,0.01464,0.00976,0.07808,0.08784,0.08784,0.07808,0.0732,0.03904
0.02928,-0.04148,0.05368,0.03904,0.0244,0.00244,0.06832,0.08296,0.09272,0.08296,0.09272,0.04392
0.00488,-0.02196,0.03904,0.0366,0.03416,-0.01464,0.05856,0.06832,0.08296,0.08296,0.08296,0.03904
0,-0.0122,0.0244,0.0244,0.0244,-0.0122,0.04392,0.06832,0.06344,0.06832,0.05856,0.03416
0,-0.00976,0.01952,0.01952,0.01952,-0.00976,0.0488,0.06832,0.05368,0.06344,0.05856,0.02928
-0.00976,0.00244,0.00488,0.00976,0.01464,-0.0122,0.0488,0.05368,0.03904,0.05856,0.04392,0.01464
-0.00976,0.00732,-0.00488,0,0.00488,-0.00732,0.03904,0.03904,0.02928,0.03904,0.03904,0
-0.00976,0.0122,-0.01464,-0.00976,-0.00488,-0.00244,0.03904,0.03416,0.0244,0.03416,0.04392,0
-0.01464,0.00976,-0.00488,0.00244,0.00976,-0.0122,0.02928,0.03416,0.02928,0.03416,0.02928,0.00488
-0.0244,0.02196,-0.01952,-0.00732,0.00488,-0.01464,0.02928,0.0244,0.02928,0.0244,0.03416,-0.00488
-0.0244,0.0244,-0.0244,-0.0122,0,-0.0122,0.03904,0.03904,0.02928,0.0244,0.0244,-0.00488
-0.01464,0.01952,-0.0244,-0.01708,-0.00976,-0.00244,0.02928,0.02928,0.0244,0.02928,0.02928,0.00488
0,0.00732,-0.01464,-0.01464,-0.01464,0.00732,0.02928,0.0244,0.0244,0.04392,0.03904,0.00488
-0.01952,0.01464,-0.00976,0,0.00976,-0.01464,0.00976,0.01952,0.03416,0.04392,0.03904,0.00976
-0.0244,0.01464,-0.00488,0.00732,0.01952,-0.02196,0.00976,0.01464,0.02928,0.03904,0.04392,0.01464
-0.03416,0.02196,-0.00976,0.00732,0.0244,-0.02928,0.01464,0.0244,0.02928,0.0488,0.04392,0.01952
-0.0244,0.01464,-0.00488,0.00732,0.01952,-0.02196,0.0244,0.01952,0.02928,0.04392,0.04392,0.01952
-0.00976,0.00244,0.00488,0.00976,0.01464,-0.0122,0.03416,0.01952,0.03416,0.05368,0.04392,0.0244
-0.01952,0.0122,-0.00488,0.00488,0.01464,-0.01708,0.04392,0.01952,0.04392,0.05368,0.04392,0.0244
-0.01952,0.0122,-0.00488,0.00488,0.01464,-0.01708,0.03416,0.01952,0.04392,0.05368,0.03904,0.01464
-0.01952,0.00732,0.00488,0.01464,0.0244,-0.02196,0.02928,0.01952,0.03904,0.04392,0.02928,0.01464
-0.00976,0.0122,-0.01464,-0.00976,-0.00488,-0.00244,0.03416,0.03416,0.03416,0.0244,0.01464,0.01464
0,0.00488,-0.00976,-0.00976,-0.00976,0.00488,0.02928,0.03416,0.03416,0.02928,0.01464,0.00976
-0.00976,0.00732,-0.00488,0,0.00488,-0.00732,0.03904,0.02928,0.02928,0.03904,0.02928,0.01464
-0.01952,0.00732,0.00488,0.01464,0.0244,-0.02196,0.03416,0.02928,0.02928,0.04392,0.04392,0.01952
-0.01464,0.00488,0.00488,0.0122,0.01952,-0.01708,0.0244,0.01952,0.03416,0.03416,0.04392,0.01952
-0.0244,0.00732,0.00976,0.02196,0.03416,-0.02928,0.0244,0.0244,0.03416,0.03416,0.02928,0.00488
-0.02928,0.01952,-0.00976,0.00488,0.01952,-0.0244,0.03904,0.02928,0.04392,0.02928,0.03416,0.00976
-0.03904,0.03172,-0.0244,-0.00488,0.01464,-0.02684,0.03416,0.03904,0.03904,0.02928,0.03904,0.01464
-0.04392,0.02928,-0.01464,0.00732,0.02928,-0.0366,0.03416,0.0488,0.03904,0.03904,0.05368,0.01952
-0.04392,0.02196,0,0.02196,0.04392,-0.04392,0.03416,0.0488,0.04392,0.0488,0.05368,0.02928
-0.03416,0.01952,-0.00488,0.0122,0.02928,-0.03172,0.03904,0.03904,0.04392,0.03904,0.04392,0.02928
-0.02928,0.01708,-0.00488,0.00976,0.0244,-0.02684,0.03904,0.03904,0.03904,0.03904,0.0244,0.01464
-0.03904,0.03172,-0.0244,-0.00488,0.01464,-0.02684,0.02928,0.03904,0.03416,0.02928,0.01464,0.00488
-0.05856,0.04392,-0.02928,0,0.02928,-0.04392,0.02928,0.03416,0.0244,0.01952,0.01464,-0.00488
-0.03416,0.03172,-0.02928,-0.0122,0.00488,-0.01952,0.0244,0.02928,0.01952,0.0244,0.01464,-0.00976
-0.0488,0.03904,-0.02928,-0.00488,0.01952,-0.03416,0.02928,0.04392,0.03416,0.03416,0.0244,0.00488
-0.03904,0.0244,-0.00976,0.00976,0.02928,-0.03416,0.02928,0.03904,0.03904,0.04392,0.02928,0.00976
-0.01464,0.00732,0,0.00732,0.01464,-0.01464,0.01952,0.03904,0.02928,0.03416,0.0244,0.00488
-0.02928,0.0122,0.00488,0.01952,0.03416,-0.03172,0.0244,0.0244,0.02928,0.03416,0.01952,0
-0.02928,0.01708,-0.00488,0.00976,0.0244,-0.02684,0.0244,0.0244,0.0244,0.0244,0.01464,0
-0.02928,0.02196,-0.01464,0,0.01464,-0.02196,0.03416,0.0244,0.0244,0.02928,0.0244,0
-0.0244,0.0122,0,0.0122,0.0244,-0.0244,0.03416,0.02928,0.0244,0.03416,0.03904,0
-0.03904,0.02196,-0.00488,0.01464,0.03416,-0.0366,0.04392,0.0244,0.01464,0.01464,0.01464,-0.00976
-0.02928,0.02196,-0.01464,0,0.01464,-0.02196,0.03904,0.01952,0.00976,0.00976,0.00976,-0.00976
-0.02928,0.02196,-0.01464,0,0.01464,-0.02196,0.03904,0.0244,0.00976,0.01464,0.00976,-0.00976
-0.03416,0.02196,-0.00976,0.00732,0.0244,-0.02928,0.03904,0.0244,0.00976,0.00976,0.00976,-0.00976
-0.03416,0.02928,-0.0244,-0.00732,0.00976,-0.02196,0.04392,0.01952,0,-0.00488,0,-0.01952
-0.03904,0.02928,-0.01952,0,0.01952,-0.02928,0.03416,0.01464,0,0,0,-0.01464
-0.03416,0.02196,-0.00976,0.00732,0.0244,-0.02928,0.01952,0.00488,0,0.00976,0.00976,-0.00976
-0.03904,0.02928,-0.01952,0,0.01952,-0.02928,0.01464,0.00488,-0.00488,0.00976,0.00976,-0.01952
-0.03416,0.02684,-0.01952,-0.00244,0.01464,-0.0244,0.01464,0,0.00488,0.00976,0.00488,-0.00976
-0.03416,0.02684,-0.01952,-0.00244,0.01464,-0.0244,0.01464,0.00488,0,0.00976,0.01464,0.00488
-0.0244,0.01952,-0.01464,-0.00244,0.00976,-0.01708,0.00976,0,-0.00488,0.00488,0.00976,0.00488
-0.0244,0.01952,-0.01464,-0.00244,0.00976,-0.01708,0.00976,0,-0.00488,-0.00488,-0.00976,-0.01952
-0.0244,0.0244,-0.0244,-0.0122,0,-0.0122,0.00488,-0.00488,-0.01464,-0.00976,-0.00976,-0.01952
-0.03416,0.03416,-0.03416,-0.01708,0,-0.01708,0,-0.00488,-0.0244,-0.00488,-0.00976,-0.01952
-0.03904,0.03416,-0.02928,-0.00976,0.00976,-0.0244,0,-0.00488,-0.03904,-0.01464,-0.01464,-0.0244
-0.03904,0.03416,-0.02928,-0.00976,0.00976,-0.0244,0,0,-0.02928,-0.01464,-0.01464,-0.0244
-0.0488,0.0366,-0.0244,0,0.0244,-0.0366,0.00976,0.00976,-0.01464,0,-0.00488,-0.01952
-0.03416,0.02684,-0.01952,-0.00244,0.01464,-0.0244,0.00488,0.01952,-0.01464,0.00976,-0.00488,-0.01464
-0.0244,0.02928,-0.03416,-0.02196,-0.00976,-0.00732,0,0.00976,-0.01464,0,-0.00488,-0.01464
-0.03416,0.0366,-0.03904,-0.02196,-0.00488,-0.01464,0,0,-0.01464,-0.00488,-0.01464,-0.0244
-0.02928,0.0244,-0.01952,-0.00488,0.00976,-0.01952,0.01464,-0.00488,-0.00488,-0.00976,-0.00488,-0.0244
-0.01952,0.01464,-0.00976,0,0.00976,-0.01464,0.01464,0,-0.00488,-0.00976,-0.00976,-0.01464
-0.03416,0.01708,0,0.01708,0.03416,-0.03416,0.01952,0.00976,0,-0.01464,-0.01464,-0.00976
-0.02928,0.01708,-0.00488,0.00976,0.0244,-0.02684,0.0244,0.01464,0,-0.00976,-0.00488,-0.00976
-0.03904,0.02928,-0.01952,0,0.01952,-0.02928,0.02928,0,-0.00976,-0.00976,-0.01952,-0.00976
-0.04392,0.0366,-0.02928,-0.00732,0.01464,-0.02928,0.02928,0,-0.00976,-0.01464,-0.00976,-0.01464
-0.03904,0.04148,-0.04392,-0.0244,-0.00488,-0.01708,0.0244,-0.00976,-0.0244,-0.00976,-0.01464,-0.01464
-0.04392,0.04148,-0.03904,-0.01708,0.00488,-0.0244,0.01464,-0.01952,-0.01952,-0.01952,-0.01464,-0.01464
-0.03416,0.03416,-0.03416,-0.01708,0,-0.01708,-0.00488,-0.01464,-0.00976,-0.01464,-0.00488,-0.01952
-0.03416,0.02684,-0.01952,-0.00244,0.01464,-0.0244,0,-0.01464,-0.00976,-0.01464,-0.00488,-0.01952
-0.03416,0.0366,-0.03904,-0.02196,-0.00488,-0.01464,0.00488,-0.00976,-0.01952,-0.03416,-0.01464,-0.03904
-0.03904,0.03904,-0.03904,-0.01952,0,-0.01952,0.01464,-0.00488,-0.01952,-0.03416,-0.0244,-0.03904
-0.03416,0.03904,-0.04392,-0.02684,-0.00976,-0.0122,0.01464,-0.01952,-0.02928,-0.04392,-0.03904,-0.0488
-0.03416,0.04148,-0.0488,-0.03172,-0.01464,-0.00976,0.00976,-0.01952,-0.02928,-0.03904,-0.03904,-0.0488
-0.03416,0.04392,-0.05368,-0.0366,-0.01952,-0.00732,0.01464,0,-0.0244,-0.03416,-0.01952,-0.03416
-0.0488,0.05856,-0.06832,-0.04392,-0.01952,-0.01464,0.01464,-0.00976,-0.0244,-0.0244,-0.01952,-0.03416
-0.0488,0.05856,-0.06832,-0.04392,-0.01952,-0.01464,0.00976,-0.00976,-0.03416,-0.0244,-0.01952,-0.03904
-0.03416,0.04636,-0.05856,-0.04148,-0.0244,-0.00488,0,-0.01464,-0.03416,-0.0244,-0.03416,-0.04392
-0.0244,0.0366,-0.0488,-0.0366,-0.0244,0,-0.00488,-0.01464,-0.0244,-0.03416,-0.03416,-0.03416
-0.00976,0.02196,-0.03416,-0.02928,-0.0244,0.00732,0,-0.01464,-0.0244,-0.02928,-0.0244,-0.0244
-0.00488,0.00976,-0.01464,-0.0122,-0.00976,0.00244,0,-0.01952,-0.01952,-0.0244,-0.0244,-0.0244
-0.01464,0.0122,-0.00976,-0.00244,0.00488,-0.00976,0,-0.01952,-0.01952,-0.0244,-0.01952,-0.01952
-0.01952,0.01952,-0.01952,-0.00976,0,-0.00976,0.01464,-0.01952,-0.01952,-0.01464,-0.01952,-0.02928
-0.01952,0.02684,-0.03416,-0.0244,-0.01464,-0.00244,0.01952,-0.01464,-0.01952,-0.01464,-0.0244,-0.03904
-0.01952,0.0244,-0.02928,-0.01952,-0.00976,-0.00488,0.01952,-0.01464,-0.01952,-0.0244,-0.02928,-0.02928
-0.0244,0.02928,-0.03416,-0.02196,-0.00976,-0.00732,0.01464,-0.01464,-0.01952,-0.01952,-0.0244,-0.02928
-0.03416,0.01708,0,0.01708,0.03416,-0.03416,0.00976,-0.02928,-0.01464,-0.00488,0,-0.00976
-0.03416,0.0244,-0.01464,0.00244,0.01952,-0.02684,0.01952,-0.01952,-0.01952,-0.00488,-0.00488,-0.01464
-0.04392,0.04392,-0.04392,-0.02196,0,-0.02196,0.01952,-0.01952,-0.01952,-0.01464,-0.01464,-0.0244
-0.04392,0.04148,-0.03904,-0.01708,0.00488,-0.0244,0.01464,-0.02928,-0.02928,-0.01952,-0.01952,-0.02928
-0.03416,0.02684,-0.01952,-0.00244,0.01464,-0.0244,0.00488,-0.02928,-0.02928,-0.01952,-0.01952,-0.02928
-0.02928,0.02196,-0.01464,0,0.01464,-0.02196,0.00976,-0.0244,-0.01952,-0.01952,-0.01952,-0.0244
-0.02928,0.02684,-0.0244,-0.00976,0.00488,-0.01708,0.00976,-0.01464,-0.01952,-0.01952,-0.01952,-0.01464
-0.03416,0.03416,-0.03416,-0.01708,0,-0.01708,0,-0.00976,-0.02928,-0.02928,-0.01952,-0.01464
-0.03416,0.04392,-0.05368,-0.0366,-0.01952,-0.00732,-0.00488,-0.01464,-0.03416,-0.02928,-0.0244,-0.0244
-0.02928,0.04392,-0.05856,-0.04392,-0.02928,0,-0.01464,-0.0244,-0.04392,-0.03416,-0.03416,-0.03904
-0.00488,0.02928,-0.05368,-0.05124,-0.0488,0.02196,-0.0244,-0.01952,-0.04392,-0.03904,-0.03904,-0.03416
0.00976,0.01708,-0.04392,-0.0488,-0.05368,0.03172,-0.01464,-0.01464,-0.02928,-0.02928,-0.02928,-0.04392
0.02928,0.00732,-0.04392,-0.05856,-0.0732,0.05124,-0.01464,-0.00488,-0.01952,-0.0244,-0.0244,-0.03416
0.0488,-0.00488,-0.03904,-0.06344,-0.08784,0.06832,-0.00488,0,-0.0244,-0.01952,-0.00976,-0.0244
0.05856,-0.00976,-0.03904,-0.06832,-0.0976,0.07808,-0.01952,-0.00488,-0.0244,-0.0244,-0.01464,-0.0244
0.08784,-0.02928,-0.02928,-0.0732,-0.11712,0.10248,-0.0244,-0.00976,-0.03416,-0.0244,-0.0244,-0.0244
0.08296,-0.02684,-0.02928,-0.07076,-0.11224,0.0976,-0.00976,-0.00488,-0.02928,-0.02928,-0.0244,-0.02928
0.08784,-0.04392,0,-0.04392,-0.08784,0.08784,-0.00976,-0.00488,-0.01464,-0.0244,-0.02928,-0.0244
0.09272,-0.04148,-0.00976,-0.05612,-0.10248,0.0976,-0.03416,-0.02928,-0.03904,-0.03904,-0.03904,-0.02928
0.06832,-0.03172,-0.00488,-0.03904,-0.0732,0.07076,-0.0244,-0.03416,-0.04392,-0.03416,-0.03416,-0.00976
0.03904,-0.02196,0.00488,-0.01464,-0.03416,0.0366,-0.01952,-0.03904,-0.02928,-0.01952,-0.0244,-0.00976
0.03904,-0.01952,0,-0.01952,-0.03904,0.03904,-0.0244,-0.03904,-0.01952,-0.01952,-0.01952,-0.00488
0.0244,-0.0122,0,-0.0122,-0.0244,0.0244,-0.01464,-0.0244,-0.0244,-0.01952,-0.01464,-0.00488
0.00976,0.00244,-0.01464,-0.01952,-0.0244,0.01708,-0.00488,-0.0244,-0.02928,-0.02928,-0.02928,-0.01464
-0.00488,0.01464,-0.0244,-0.02196,-0.01952,0.00732,0,-0.02928,-0.03904,-0.03904,-0.03904,-0.03416
-0.02928,0.04392,-0.05856,-0.04392,-0.02928,0,-0.00976,-0.03416,-0.05368,-0.0488,-0.06344,-0.05368
-0.0488,0.061,-0.0732,-0.0488,-0.0244,-0.0122,-0.00488,-0.03416,-0.05368,-0.05368,-0.06344,-0.05856
-0.06832,0.07808,-0.08784,-0.05368,-0.01952,-0.0244,-0.00488,-0.03416,-0.05368,-0.05368,-0.05856,-0.0488
-0.0732,0.08052,-0.08784,-0.05124,-0.01464,-0.02928,0.00488,-0.03416,-0.05856,-0.05856,-0.05856,-0.0488
-0.06832,0.07808,-0.08784,-0.05368,-0.01952,-0.0244,-0.01464,-0.0488,-0.0732,-0.08296,-0.08296,-0.06832
-0.0488,0.06832,-0.08784,-0.06344,-0.03904,-0.00488,-0.0244,-0.05368,-0.0732,-0.08784,-0.08296,-0.07808
-0.02928,0.0488,-0.06832,-0.05368,-0.03904,0.00488,-0.02928,-0.05368,-0.06832,-0.06344,-0.06344,-0.06832
-0.0244,0.0366,-0.0488,-0.0366,-0.0244,0,-0.02928,-0.0488,-0.05368,-0.0488,-0.0488,-0.0488
-0.02928,0.03172,-0.03416,-0.01952,-0.00488,-0.0122,-0.0244,-0.04392,-0.04392,-0.03904,-0.05368,-0.0488
-0.02928,0.03172,-0.03416,-0.01952,-0.00488,-0.0122,-0.01464,-0.03416,-0.04392,-0.04392,-0.05368,-0.0488
-0.03904,0.04392,-0.0488,-0.02928,-0.00976,-0.01464,-0.00976,-0.03416,-0.0488,-0.0488,-0.06344,-0.05856
-0.0488,0.05124,-0.05368,-0.02928,-0.00488,-0.02196,-0.00976,-0.03416,-0.05368,-0.05368,-0.06344,-0.05368
-0.05856,0.05124,-0.04392,-0.01464,0.01464,-0.0366,-0.00488,-0.04392,-0.0488,-0.05368,-0.05856,-0.05368
-0.06344,0.05612,-0.0488,-0.01708,0.01464,-0.03904,-0.00488,-0.04392,-0.0488,-0.05368,-0.05856,-0.0488
-0.05368,0.05368,-0.05368,-0.02684,0,-0.02684,0,-0.03904,-0.03904,-0.0488,-0.04392,-0.04392
-0.05856,0.05856,-0.05856,-0.02928,0,-0.02928,-0.00488,-0.0244,-0.03904,-0.03904,-0.04392,-0.02928
-0.0488,0.05368,-0.05856,-0.03416,-0.00976,-0.01952,-0.00976,-0.02928,-0.04392,-0.04392,-0.05856,-0.03416
-0.02928,0.04392,-0.05856,-0.04392,-0.02928,0,0,-0.03904,-0.04392,-0.05368,-0.05856,-0.05368
-0.03904,0.0488,-0.05856,-0.03904,-0.01952,-0.00976,0.01464,-0.03904,-0.03904,-0.04392,-0.05368,-0.05856
-0.05856,0.05856,-0.05856,-0.02928,0,-0.02928,0.0244,-0.01952,-0.0244,-0.04392,-0.04392,-0.0488
-0.08296,0.06344,-0.04392,-0.00244,0.03904,-0.061,0.01952,-0.01464,-0.03416,-0.04392,-0.05368,-0.05368
-0.07808,0.06588,-0.05368,-0.01464,0.0244,-0.05124,0.06344,0.0244,0.00488,-0.01464,-0.03416,-0.03416
-0.11712,0.09516,-0.0732,-0.01464,0.04392,-0.08052,0.11712,0.12688,0.09272,0.02928,-0.00976,-0.03416
-0.10736,0.10492,-0.10248,-0.0488,0.00488,-0.05612,0.25376,0.3172,0.21472,0.0732,-0.01464,-0.05856
-0.04392,0.06344,-0.08296,-0.061,-0.03904,-0.00244,0.35624,0.49288,0.34648,0.16592,0.03904,-0.03416
0.10248,-0.02684,-0.0488,-0.10004,-0.15128,0.12688,0.38064,0.65392,0.50752,0.30256,0.1708,0.06832
0.35624,-0.17324,-0.00976,-0.18788,-0.366,0.36112,0.39528,0.88328,0.65392,0.42944,0.26352,0.16592
0.52704,-0.34404,0.16104,-0.10248,-0.366,0.44652,0.49288,1.15656,0.98576,0.732,0.55632,0.40992
0.64416,-0.49288,0.3416,0.01952,-0.30256,0.47336,0.44896,1.06384,1.10288,0.88816,0.732,0.59536
0.86376,-0.67344,0.48312,0.05124,-0.38064,0.6222,0.25376,0.80032,0.95648,0.854,0.74664,0.65392
0.976,-0.8052,0.6344,0.1464,-0.3416,0.6588,-0.06344,0.25864,0.5856,0.70272,0.69784,0.69296
1.07848,-0.93452,0.79056,0.25132,-0.28792,0.6832,-0.47824,-0.42456,0.08784,0.50752,0.66856,0.77104
0.6588,-0.8052,0.9516,0.6222,0.2928,0.183,-0.57096,-0.79056,0.00976,0.59048,0.83936,0.95648
0.25864,-0.64904,1.03944,0.91012,0.7808,-0.26108,-0.5124,-0.976,-0.06832,0.54168,0.80032,0.93208
0.13176,-0.44652,0.76128,0.6954,0.62952,-0.24888,-0.64416,-1.10776,-0.45872,0.18056,0.43432,0.61
0,-0.26352,0.52704,0.52704,0.52704,-0.26352,-0.69784,-1.1224,-0.69784,-0.12688,0.15128,0.3416
0,-0.11468,0.22936,0.22936,0.22936,-0.11468,-0.57584,-0.88816,-0.71736,-0.27328,-0.00976,0.17568
-0.05856,0.00976,0.03904,0.06832,0.0976,-0.07808,-0.48312,-0.74176,-0.68808,-0.35136,-0.16104,-0.00488
-0.05856,0.06588,-0.0732,-0.04392,-0.01464,-0.02196,-0.38552,-0.5856,-0.61,-0.39528,-0.25864,-0.13176
-0.122,0.11224,-0.10248,-0.04148,0.01952,-0.07076,-0.26352,-0.47336,-0.47824,-0.3172,-0.23424,-0.14152
-0.14152,0.12444,-0.10736,-0.0366,0.03416,-0.08784,-0.15128,-0.3172,-0.29768,-0.22448,-0.1708,-0.122
-0.11224,0.09516,-0.07808,-0.02196,0.03416,-0.0732,-0.06344,-0.1708,-0.15616,-0.1464,-0.10736,-0.0732
-0.0976,0.0732,-0.0488,0,0.0488,-0.0732,-0.05368,-0.12688,-0.0976,-0.0732,-0.0732,-0.05368
-0.07808,0.05124,-0.0244,0.01464,0.05368,-0.06588,-0.03904,-0.08784,-0.08296,-0.05368,-0.05856,-0.0488
-0.07808,0.05612,-0.03416,0.00488,0.04392,-0.061,-0.02928,-0.07808,-0.08296,-0.0732,-0.08296,-0.06344
-0.07808,0.06344,-0.0488,-0.00976,0.02928,-0.05368,-0.01952,-0.05856,-0.06344,-0.08784,-0.08784,-0.06344
-0.08296,0.0732,-0.06344,-0.02196,0.01952,-0.05124,-0.00976,-0.05856,-0.06344,-0.07808,-0.08296,-0.06344
-0.07808,0.0732,-0.06832,-0.02928,0.00976,-0.04392,0,-0.05368,-0.06344,-0.06832,-0.07808,-0.06344
-0.09272,0.08296,-0.0732,-0.02684,0.01952,-0.05612,-0.00488,-0.0488,-0.0732,-0.08296,-0.08784,-0.0732
-0.09272,0.09028,-0.08784,-0.04148,0.00488,-0.0488,0,-0.02928,-0.05856,-0.0732,-0.08296,-0.0732
-0.09272,0.08784,-0.08296,-0.0366,0.00976,-0.05124,0,-0.03416,-0.06344,-0.0732,-0.08296,-0.07808
-0.07808,0.08052,-0.08296,-0.04392,-0.00488,-0.0366,-0.01464,-0.03904,-0.06344,-0.06832,-0.07808,-0.06832
-0.06832,0.07076,-0.0732,-0.03904,-0.00488,-0.03172,-0.01952,-0.03904,-0.06344,-0.06344,-0.07808,-0.06344
-0.07808,0.0732,-0.06832,-0.02928,0.00976,-0.04392,-0.00488,-0.0488,-0.05368,-0.08296,-0.07808,-0.0732
-0.0976,0.08296,-0.06832,-0.01952,0.02928,-0.06344,0.00488,-0.04392,-0.0488,-0.0732,-0.08784,-0.06832
-0.10736,0.08784,-0.06832,-0.01464,0.03904,-0.0732,0.00488,-0.03904,-0.0488,-0.06344,-0.09272,-0.0732
-0.10248,0.09272,-0.08296,-0.03172,0.01952,-0.061,0.00488,-0.03904,-0.05368,-0.06832,-0.08296,-0.0732
-0.09272,0.0854,-0.07808,-0.03172,0.01464,-0.05368,-0.00488,-0.03416,-0.06344,-0.07808,-0.08784,-0.06344
-0.0732,0.07564,-0.07808,-0.04148,-0.00488,-0.03416,-0.00976,-0.03904,-0.06832,-0.08296,-0.09272,-0.0732
-0.0732,0.0732,-0.0732,-0.0366,0,-0.0366,-0.00976,-0.0488,-0.06832,-0.08296,-0.09272,-0.08296
-0.08296,0.08052,-0.07808,-0.0366,0.00488,-0.04392,-0.00976,-0.0488,-0.06832,-0.08296,-0.09272,-0.0732
-0.07808,0.07808,-0.07808,-0.03904,0,-0.03904,-0.01464,-0.05856,-0.0732,-0.0976,-0.0976,-0.08784
-0.06832,0.07564,-0.08296,-0.0488,-0.01464,-0.02684,-0.00976,-0.05856,-0.06832,-0.0976,-0.10736,-0.08784
-0.0732,0.07564,-0.07808,-0.04148,-0.00488,-0.03416,-0.00976,-0.0488,-0.05856,-0.09272,-0.10248,-0.07808
-0.06344,0.07076,-0.07808,-0.04636,-0.01464,-0.0244,-0.00976,-0.05368,-0.06344,-0.08296,-0.10248,-0.08784
-0.07808,0.07808,-0.07808,-0.03904,0,-0.03904,-0.0244,-0.05368,-0.0732,-0.08296,-0.10736,-0.08296
-0.08784,0.08052,-0.0732,-0.02928,0.01464,-0.05124,-0.02928,-0.06344,-0.07808,-0.0976,-0.10736,-0.08296
-0.07808,0.08052,-0.08296,-0.04392,-0.00488,-0.0366,-0.01952,-0.06344,-0.09272,-0.11224,-0.11712,-0.08784
-0.0732,0.08052,-0.08784,-0.05124,-0.01464,-0.02928,-0.0244,-0.06344,-0.0976,-0.11224,-0.11712,-0.0976
-0.07808,0.07564,-0.0732,-0.03416,0.00488,-0.04148,-0.01952,-0.05856,-0.08296,-0.10248,-0.11224,-0.08784
-0.07808,0.07564,-0.0732,-0.03416,0.00488,-0.04148,-0.01952,-0.05368,-0.08296,-0.10736,-0.10736,-0.07808
-0.07808,0.07564,-0.0732,-0.03416,0.00488,-0.04148,-0.00976,-0.04392,-0.0732,-0.0976,-0.10248,-0.08296
-0.07808,0.07076,-0.06344,-0.0244,0.01464,-0.04636,-0.01464,-0.04392,-0.0732,-0.0976,-0.10248,-0.08296
-0.07808,0.07564,-0.0732,-0.03416,0.00488,-0.04148,-0.0244,-0.0488,-0.08296,-0.10736,-0.11712,-0.0976
-0.0732,0.07076,-0.06832,-0.03172,0.00488,-0.03904,-0.02928,-0.05856,-0.08784,-0.10736,-0.11712,-0.08784
-0.0732,0.07564,-0.07808,-0.04148,-0.00488,-0.03416,-0.02928,-0.06832,-0.08784,-0.10736,-0.11712,-0.07808
-0.06832,0.0732,-0.07808,-0.04392,-0.00976,-0.02928,-0.03416,-0.05856,-0.08784,-0.10736,-0.11224,-0.07808
-0.06832,0.06832,-0.06832,-0.03416,0,-0.03416,-0.01952,-0.05368,-0.0976,-0.11712,-0.11712,-0.09272
-0.06832,0.06832,-0.06832,-0.03416,0,-0.03416,-0.02928,-0.06344,-0.10248,-0.11712,-0.11712,-0.09272
-0.0732,0.07076,-0.06832,-0.03172,0.00488,-0.03904,-0.03416,-0.06344,-0.08784,-0.0976,-0.0976,-0.08296
-0.06344,0.07076,-0.07808,-0.04636,-0.01464,-0.0244,-0.03416,-0.05856,-0.08296,-0.09272,-0.10736,-0.07808
-0.0488,0.05856,-0.06832,-0.04392,-0.01952,-0.01464,-0.03416,-0.0488,-0.07808,-0.08296,-0.0976,-0.07808
-0.0488,0.05368,-0.05856,-0.03416,-0.00976,-0.01952,-0.03904,-0.0488,-0.06832,-0.08296,-0.09272,-0.06344
-0.05368,0.05856,-0.06344,-0.0366,-0.00976,-0.02196,-0.04392,-0.05856,-0.07808,-0.08784,-0.10736,-0.06344
-0.05368,0.05856,-0.06344,-0.0366,-0.00976,-0.02196,-0.0488,-0.05368,-0.08784,-0.0976,-0.10736,-0.0732
-0.05856,0.06344,-0.06832,-0.03904,-0.00976,-0.0244,-0.0488,-0.04392,-0.08296,-0.0976,-0.10248,-0.06832
-0.05368,0.06344,-0.0732,-0.04636,-0.01952,-0.01708,-0.0488,-0.04392,-0.07808,-0.0976,-0.10248,-0.06832
-0.03416,0.05124,-0.06832,-0.05124,-0.03416,0,-0.0488,-0.05368,-0.07808,-0.09272,-0.10248,-0.06344
-0.01464,0.02928,-0.04392,-0.0366,-0.02928,0.00732,-0.0488,-0.05368,-0.0732,-0.08296,-0.10248,-0.06344
-0.00488,0.02684,-0.0488,-0.04636,-0.04392,0.01952,-0.04392,-0.04392,-0.06832,-0.0732,-0.08784,-0.06832
0,0.02928,-0.05856,-0.05856,-0.05856,0.02928,-0.03904,-0.04392,-0.06344,-0.0732,-0.08296,-0.05368
0.00488,0.02196,-0.0488,-0.05124,-0.05368,0.02928,-0.04392,-0.03416,-0.05368,-0.0732,-0.0732,-0.0488
-0.00488,0.01952,-0.03416,-0.03172,-0.02928,0.0122,-0.04392,-0.02928,-0.0488,-0.06832,-0.06832,-0.03904
0,0.01708,-0.03416,-0.03416,-0.03416,0.01708,-0.04392,-0.01952,-0.0488,-0.05856,-0.06832,-0.03904
-0.00976,0.02196,-0.03416,-0.02928,-0.0244,0.00732,-0.04392,-0.00976,-0.04392,-0.05368,-0.05368,-0.02928
-0.00488,0.01952,-0.03416,-0.03172,-0.02928,0.0122,-0.05368,0,-0.03904,-0.04392,-0.0488,-0.01464
-0.00488,0.01952,-0.03416,-0.03172,-0.02928,0.0122,-0.0488,0.01952,-0.02928,-0.0488,-0.0488,-0.00488
0,0.0122,-0.0244,-0.0244,-0.0244,0.0122,-0.04392,0.01952,-0.01464,-0.04392,-0.03904,-0.00976
0.0244,-0.00488,-0.01464,-0.02684,-0.03904,0.03172,-0.0488,0.02928,-0.01464,-0.03904,-0.04392,-0.01952
0.03416,-0.01708,0,-0.01708,-0.03416,0.03416,-0.05856,0.01952,-0.0244,-0.03416,-0.03416,-0.01952
0.03904,-0.02196,0.00488,-0.01464,-0.03416,0.0366,-0.05856,0.02928,-0.01952,-0.01952,-0.02928,-0.01464
0.03904,-0.02196,0.00488,-0.01464,-0.03416,0.0366,-0.05368,0.0488,0.00488,-0.00488,-0.01952,0
0.04392,-0.02684,0.00976,-0.0122,-0.03416,0.03904,-0.0488,0.05856,0.01464,0,-0.0244,0.00976
0.04392,-0.02684,0.00976,-0.0122,-0.03416,0.03904,-0.02928,0.06344,0.01952,-0.00976,-0.01464,0.01952
0.05368,-0.0366,0.01952,-0.00732,-0.03416,0.04392,-0.01464,0.07808,0.01952,0,-0.00488,0.01952
0.06344,-0.04392,0.0244,-0.00732,-0.03904,0.05124,-0.01952,0.0732,0.0244,0.01464,0,0.0244
0.0732,-0.05124,0.02928,-0.00732,-0.04392,0.05856,-0.01952,0.08296,0.03416,0.01952,0.00976,0.03416
0.07808,-0.061,0.04392,0.00488,-0.03416,0.05612,-0.00976,0.09272,0.05368,0.03904,0.0244,0.05368
0.08784,-0.07564,0.06344,0.01952,-0.0244,0.05612,-0.01952,0.10736,0.06344,0.0488,0.02928,0.05368
0.07808,-0.07076,0.06344,0.0244,-0.01464,0.04636,-0.01464,0.12688,0.0732,0.04392,0.03416,0.06344
0.07808,-0.07076,0.06344,0.0244,-0.01464,0.04636,-0.00976,0.13176,0.08296,0.05368,0.04392,0.07808
0.07808,-0.0732,0.06832,0.02928,-0.00976,0.04392,-0.01464,0.14152,0.0976,0.06344,0.04392,0.0732
0.08784,-0.0854,0.08296,0.03904,-0.00488,0.04636,-0.01464,0.1464,0.10248,0.07808,0.05368,0.07808
0.10736,-0.0854,0.06344,0.00976,-0.04392,0.07564,0,0.15128,0.11224,0.08296,0.05368,0.0732
0.11224,-0.09028,0.06832,0.0122,-0.04392,0.07808,0.00488,0.14152,0.10736,0.07808,0.05856,0.0732
0.10248,-0.0854,0.06832,0.01708,-0.03416,0.06832,0.0244,0.13664,0.11224,0.07808,0.05368,0.07808
0.0976,-0.0854,0.0732,0.0244,-0.0244,0.061,0.03904,0.14152,0.11712,0.0976,0.06832,0.07808
0.0732,-0.07564,0.07808,0.04148,0.00488,0.03416,0.0488,0.15128,0.13176,0.10248,0.0732,0.08296
0.06344,-0.07076,0.07808,0.04636,0.01464,0.0244,0.0488,0.15128,0.13176,0.10248,0.0732,0.09272
0.03904,-0.05124,0.06344,0.04392,0.0244,0.00732,0.0488,0.15128,0.14152,0.0976,0.06832,0.08296
0.01464,-0.02684,0.03904,0.03172,0.0244,-0.00488,0.05856,0.15128,0.13176,0.08296,0.05368,0.0732
0.00976,-0.02196,0.03416,0.02928,0.0244,-0.00732,0.06344,0.13176,0.12688,0.07808,0.04392,0.05856
0.00976,-0.02196,0.03416,0.02928,0.0244,-0.00732,0.06344,0.122,0.122,0.06832,0.03416,0.0488
0.00976,-0.01464,0.01952,0.01464,0.00976,0,0.04392,0.10736,0.0976,0.05856,0.00976,0.02928
0.00488,-0.00976,0.01464,0.0122,0.00976,-0.00244,0.0488,0.08784,0.08784,0.03904,0,0.01952
0.00488,-0.01464,0.0244,0.02196,0.01952,-0.00732,0.05856,0.09272,0.09272,0.0488,0.01464,0.0244
-0.00976,0,0.00976,0.01464,0.01952,-0.01464,0.0488,0.07808,0.08296,0.03904,0.00488,0.01952
-0.01952,0.0122,-0.00488,0.00488,0.01464,-0.01708,0.03416,0.06832,0.0732,0.02928,0,0.0244
-0.01952,0.01464,-0.00976,0,0.00976,-0.01464,0.03904,0.06832,0.06344,0.0244,0,0.01952
-0.02928,0.02684,-0.0244,-0.00976,0.00488,-0.01708,0.0488,0.0488,0.06832,0.01952,-0.00976,0.00488
-0.02928,0.03172,-0.03416,-0.01952,-0.00488,-0.0122,0.03904,0.04392,0.05856,0,-0.0244,-0.00976
-0.01952,0.03172,-0.04392,-0.03416,-0.0244,0.00244,0.03904,0.03416,0.0488,0,-0.04392,-0.01952
-0.0244,0.02928,-0.03416,-0.02196,-0.00976,-0.00732,0.02928,0.03416,0.04392,-0.00976,-0.05856,-0.01464
-0.03416,0.0366,-0.03904,-0.02196,-0.00488,-0.01464,0.03904,0.0244,0.03904,-0.00488,-0.03904,-0.01464
-0.03416,0.03904,-0.04392,-0.02684,-0.00976,-0.0122,0.0488,0.03904,0.03904,-0.00488,-0.03904,-0.01464
-0.04392,0.03904,-0.03416,-0.0122,0.00976,-0.02684,0.0488,0.03904,0.04392,-0.01464,-0.0488,-0.01464
-0.02928,0.02684,-0.0244,-0.00976,0.00488,-0.01708,0.0488,0.03416,0.04392,-0.00976,-0.03904,-0.01464
-0.03904,0.03172,-0.0244,-0.00488,0.01464,-0.02684,0.03904,0.02928,0.03416,-0.01464,-0.03416,-0.01464
-0.04392,0.0366,-0.02928,-0.00732,0.01464,-0.02928,0.03904,0.0244,0.02928,-0.01952,-0.03904,-0.01952
-0.06344,0.0488,-0.03416,-0.00244,0.02928,-0.04636,0.02928,0.0244,0.03904,-0.00976,-0.05368,-0.02928
-0.05368,0.04636,-0.03904,-0.0122,0.01464,-0.03416,0.02928,0.01952,0.03904,-0.01464,-0.05368,-0.02928
-0.0488,0.04148,-0.03416,-0.00976,0.01464,-0.03172,0.03904,0.01952,0.02928,-0.01464,-0.04392,-0.0244
-0.05856,0.05124,-0.04392,-0.01464,0.01464,-0.0366,0.03904,0.01952,0.02928,-0.01464,-0.04392,-0.0244
-0.0488,0.04148,-0.03416,-0.00976,0.01464,-0.03172,0.03904,0.01952,0.02928,-0.00976,-0.04392,-0.01952
-0.0488,0.0366,-0.0244,0,0.0244,-0.0366,0.04392,0.01952,0.03416,-0.00976,-0.04392,-0.00976
-0.03904,0.0366,-0.03416,-0.01464,0.00488,-0.02196,0.03416,0.0244,0.04392,-0.01952,-0.0488,-0.00488
-0.02928,0.02928,-0.02928,-0.01464,0,-0.01464,0.02928,0.0244,0.04392,-0.00488,-0.03904,-0.00976
-0.02928,0.03172,-0.03416,-0.01952,-0.00488,-0.0122,0.02928,0.02928,0.03416,-0.00488,-0.03904,-0.0244
-0.03904,0.04148,-0.04392,-0.0244,-0.00488,-0.01708,0.0244,0.02928,0.0244,-0.00976,-0.04392,-0.01952
-0.0244,0.0244,-0.0244,-0.0122,0,-0.0122,0.01464,0.0244,0.03416,-0.00488,-0.04392,-0.00488
-0.03416,0.01708,0,0.01708,0.03416,-0.03416,0.01464,0.01952,0.03416,-0.00488,-0.03904,-0.00976
-0.04392,0.02196,0,0.02196,0.04392,-0.04392,0.01952,0.01464,0.04392,0,-0.03416,-0.00976
-0.04392,0.02928,-0.01464,0.00732,0.02928,-0.0366,0.01464,0.01464,0.03904,0,-0.02928,-0.00488
-0.0244,0.02196,-0.01952,-0.00732,0.00488,-0.01464,0.00488,0.00976,0.02928,-0.00976,-0.0244,-0.01464
-0.0244,0.01952,-0.01464,-0.00244,0.00976,-0.01708,0.00488,0.00976,0.03416,-0.01952,-0.04392,-0.01464
-0.03416,0.0244,-0.01464,0.00244,0.01952,-0.02684,0.01952,0.00976,0.04392,-0.01464,-0.04392,-0.01464
-0.02928,0.02196,-0.01464,0,0.01464,-0.02196,0.01952,0.00976,0.03904,-0.00488,-0.04392,-0.01952
-0.0244,0.02196,-0.01952,-0.00732,0.00488,-0.01464,0.00976,0.00488,0.02928,-0.00976,-0.04392,-0.01952
-0.03416,0.0244,-0.01464,0.00244,0.01952,-0.02684,0.00976,0.00976,0.02928,-0.01952,-0.04392,-0.01952
-0.01464,0.02196,-0.02928,-0.02196,-0.01464,0,0.01464,0.01464,0.03416,-0.01464,-0.03416,-0.01464
-0.02928,0.02928,-0.02928,-0.01464,0,-0.01464,0.01952,0.01952,0.03904,-0.00488,-0.0244,-0.00976
-0.0244,0.0244,-0.0244,-0.0122,0,-0.0122,0.01464,0.01464,0.03904,-0.00488,-0.03904,-0.00976
-0.00976,0.01708,-0.0244,-0.01952,-0.01464,0.00244,-0.00488,0.00488,0.02928,-0.01464,-0.04392,-0.01464
-0.01952,0.01952,-0.01952,-0.00976,0,-0.00976,0.00488,-0.00488,0.03416,-0.01952,-0.03904,-0.00976
-0.01952,0.01952,-0.01952,-0.00976,0,-0.00976,0.00488,-0.00488,0.01952,-0.01952,-0.04392,-0.00976
-0.01952,0.01952,-0.01952,-0.00976,0,-0.00976,0.00488,0.00488,0.0244,-0.00976,-0.04392,-0.00976
-0.01464,0.01464,-0.01464,-0.00732,0,-0.00732,0.00488,0.00976,0.0244,-0.00488,-0.02928,-0.00976
-0.02928,0.02928,-0.02928,-0.01464,0,-0.01464,0.00488,0.01464,0.01464,-0.0244,-0.04392,-0.01952
-0.01952,0.0244,-0.02928,-0.01952,-0.00976,-0.00488,0,0.00976,0.00976,-0.02928,-0.0488,-0.01952
-0.01952,0.02684,-0.03416,-0.0244,-0.01464,-0.00244,0,-0.00488,0.00976,-0.0244,-0.0488,-0.01952
-0.0244,0.02684,-0.02928,-0.01708,-0.00488,-0.00976,0,-0.00488,0.00976,-0.02928,-0.0488,-0.01952
-0.01464,0.0244,-0.03416,-0.02684,-0.01952,0.00244,0.00976,-0.00488,0.00976,-0.0244,-0.03904,-0.02928
-0.01952,0.0244,-0.02928,-0.01952,-0.00976,-0.00488,0.00976,0,0.00976,-0.01952,-0.03904,-0.0244
-0.0244,0.02196,-0.01952,-0.00732,0.00488,-0.01464,0.01952,0.01464,0.01952,-0.00976,-0.02928,-0.0244
-0.02928,0.02928,-0.02928,-0.01464,0,-0.01464,0.01464,0.01464,0.01464,-0.00976,-0.02928,-0.0244
-0.0244,0.02684,-0.02928,-0.01708,-0.00488,-0.00976,0.01464,0.00488,0.00488,-0.02928,-0.04392,-0.03416
-0.0244,0.02684,-0.02928,-0.01708,-0.00488,-0.00976,0.01464,0,0,-0.02928,-0.05368,-0.02928
-0.02928,0.02928,-0.02928,-0.01464,0,-0.01464,0.00976,0,0.00488,-0.02928,-0.04392,-0.0244
-0.03904,0.03904,-0.03904,-0.01952,0,-0.01952,0.00976,0,0.00488,-0.02928,-0.05368,-0.02928
-0.03416,0.0366,-0.03904,-0.02196,-0.00488,-0.01464,0.01464,-0.00488,-0.00488,-0.0488,-0.06832,-0.03904
-0.0244,0.03172,-0.03904,-0.02684,-0.01464,-0.00488,0.00976,-0.00488,-0.01464,-0.04392,-0.06832,-0.03904
-0.01464,0.03172,-0.0488,-0.04148,-0.03416,0.00976,0.01952,-0.01464,-0.01464,-0.04392,-0.05368,-0.03416
-0.0244,0.0366,-0.0488,-0.0366,-0.0244,0,0.01952,-0.00976,0.00488,-0.04392,-0.05368,-0.03416
-0.02928,0.04148,-0.05368,-0.03904,-0.0244,-0.00244,0.01464,0.00488,0,-0.03416,-0.0488,-0.04392
-0.01464,0.03172,-0.0488,-0.04148,-0.03416,0.00976,0,0.00488,-0.00976,-0.03416,-0.05856,-0.0488
-0.0244,0.03172,-0.03904,-0.02684,-0.01464,-0.00488,0.00976,-0.00488,-0.00488,-0.04392,-0.05856,-0.03904
-0.03416,0.03416,-0.03416,-0.01708,0,-0.01708,0.00976,-0.00488,-0.00488,-0.03904,-0.05856,-0.03904
-0.04392,0.04148,-0.03904,-0.01708,0.00488,-0.0244,0.00488,0.00488,-0.00488,-0.03904,-0.05368,-0.03904
-0.04392,0.04636,-0.0488,-0.02684,-0.00488,-0.01952,0.00488,0.00976,-0.00488,-0.03904,-0.05856,-0.03904
-0.05856,0.0488,-0.03904,-0.00976,0.01952,-0.03904,0.00976,0,-0.00976,-0.04392,-0.05856,-0.03416
-0.04392,0.04392,-0.04392,-0.02196,0,-0.02196,0.01464,0.00488,-0.00976,-0.03904,-0.05856,-0.04392
-0.02928,0.04148,-0.05368,-0.03904,-0.0244,-0.00244,0.00976,0,-0.00976,-0.0488,-0.07808,-0.0488
-0.03416,0.04392,-0.05368,-0.0366,-0.01952,-0.00732,0.00976,0,-0.00976,-0.05368,-0.06832,-0.05368
-0.02928,0.04148,-0.05368,-0.03904,-0.0244,-0.00244,0,-0.00488,-0.01464,-0.0488,-0.06344,-0.05368
-0.03416,0.04148,-0.0488,-0.03172,-0.01464,-0.00976,0,-0.00488,-0.00976,-0.05856,-0.06344,-0.05368
-0.03416,0.0366,-0.03904,-0.02196,-0.00488,-0.01464,0.00488,-0.00488,0,-0.04392,-0.05368,-0.03904
-0.03416,0.03416,-0.03416,-0.01708,0,-0.01708,0.00976,-0.00488,0,-0.04392,-0.05368,-0.03904
-0.04392,0.04148,-0.03904,-0.01708,0.00488,-0.0244,0.00976,0,-0.00976,-0.04392,-0.05856,-0.0488
-0.0488,0.04392,-0.03904,-0.01464,0.00976,-0.02928,0.00976,0.00488,-0.00976,-0.04392,-0.05856,-0.0488
-0.05368,0.0488,-0.04392,-0.01708,0.00976,-0.03172,0.00488,0,-0.01952,-0.05368,-0.0732,-0.05368
-0.05368,0.061,-0.06832,-0.04148,-0.01464,-0.01952,0,0,-0.01952,-0.0488,-0.08296,-0.06344
-0.03904,0.04636,-0.05368,-0.03416,-0.01464,-0.0122,-0.00488,0,-0.01464,-0.0488,-0.06832,-0.0488
-0.04392,0.04636,-0.0488,-0.02684,-0.00488,-0.01952,-0.00488,-0.00976,-0.01464,-0.0488,-0.06832,-0.05856
-0.03904,0.04148,-0.04392,-0.0244,-0.00488,-0.01708,0,-0.00488,-0.00488,-0.05368,-0.05856,-0.0488
-0.0244,0.03416,-0.04392,-0.03172,-0.01952,-0.00244,0.00976,0,-0.00488,-0.05368,-0.0732,-0.05368
-0.0244,0.03416,-0.04392,-0.03172,-0.01952,-0.00244,0.00488,-0.00488,-0.01464,-0.04392,-0.06344,-0.04392
-0.02928,0.03416,-0.03904,-0.0244,-0.00976,-0.00976,0.00976,-0.00488,-0.01464,-0.03904,-0.05368,-0.03416
-0.04392,0.0366,-0.02928,-0.00732,0.01464,-0.02928,0.00976,0,-0.00976,-0.04392,-0.05368,-0.03416
-0.05368,0.04392,-0.03416,-0.00732,0.01952,-0.0366,0.00976,0,-0.00976,-0.04392,-0.0488,-0.02928
-0.04392,0.03416,-0.0244,-0.00244,0.01952,-0.03172,0.01464,0.00488,-0.00976,-0.03416,-0.0488,-0.02928
-0.03416,0.03172,-0.02928,-0.0122,0.00488,-0.01952,0.01952,0,-0.00976,-0.03416,-0.05368,-0.03904
-0.03904,0.03416,-0.02928,-0.00976,0.00976,-0.0244,0.01952,-0.00488,-0.01952,-0.03904,-0.05368,-0.03904
-0.04392,0.03904,-0.03416,-0.0122,0.00976,-0.02684,0.01464,-0.00488,-0.01952,-0.04392,-0.05856,-0.03904
-0.04392,0.0366,-0.02928,-0.00732,0.01464,-0.02928,0.02928,0,-0.00488,-0.04392,-0.0488,-0.03904
-0.0488,0.04392,-0.03904,-0.01464,0.00976,-0.02928,0.01464,-0.00976,-0.01952,-0.0488,-0.06832,-0.0488
-0.0488,0.04392,-0.03904,-0.01464,0.00976,-0.02928,0.00488,-0.00976,-0.01952,-0.0488,-0.06832,-0.0488
-0.03904,0.04392,-0.0488,-0.02928,-0.00976,-0.01464,0,-0.01952,-0.02928,-0.05368,-0.07808,-0.05856
-0.02928,0.0488,-0.06832,-0.05368,-0.03904,0.00488,-0.00976,-0.0244,-0.03416,-0.06344,-0.08296,-0.05856
-0.01464,0.03416,-0.05368,-0.04636,-0.03904,0.0122,-0.01952,-0.01952,-0.03416,-0.05368,-0.06344,-0.0488
0.01952,0.01708,-0.05368,-0.06344,-0.0732,0.04636,-0.01952,-0.01464,-0.03416,-0.05368,-0.06344,-0.04392
0.03416,0.00488,-0.04392,-0.061,-0.07808,0.05612,-0.00488,0.01464,-0.01952,-0.03904,-0.05368,-0.03904
0.05856,-0.00976,-0.03904,-0.06832,-0.0976,0.07808,-0.00488,0.01952,-0.01464,-0.02928,-0.0488,-0.02928
0.06832,-0.00976,-0.0488,-0.08296,-0.11712,0.09272,-0.01464,0.00488,-0.01464,-0.03904,-0.05368,-0.04392
0.09272,-0.0244,-0.04392,-0.09028,-0.13664,0.11468,-0.01952,0.00976,-0.01464,-0.0488,-0.05368,-0.0488
0.06832,-0.01464,-0.03904,-0.0732,-0.10736,0.08784,-0.00976,0.01952,0,-0.03904,-0.04392,-0.0244
0.05368,-0.0122,-0.02928,-0.05612,-0.08296,0.06832,0,0.0244,0.00488,-0.0244,-0.03904,-0.01952
0.06344,-0.01708,-0.02928,-0.061,-0.09272,0.07808,-0.03416,-0.00488,-0.01952,-0.04392,-0.05856,-0.02928
0.05856,-0.01464,-0.02928,-0.05856,-0.08784,0.0732,-0.04392,-0.0244,-0.04392,-0.06344,-0.05856,-0.0488
0.03416,-0.01464,-0.00488,-0.02196,-0.03904,0.0366,-0.04392,-0.0244,-0.03904,-0.06344,-0.0488,-0.03904
0.02928,-0.00976,-0.00976,-0.0244,-0.03904,0.03416,-0.03904,-0.01464,-0.03416,-0.0488,-0.0488,-0.03904
0.0244,-0.00732,-0.00976,-0.02196,-0.03416,0.02928,-0.00976,-0.00976,-0.00976,-0.03904,-0.0488,-0.04392
0.01952,0,-0.01952,-0.02928,-0.03904,0.02928,-0.00488,-0.00488,-0.00976,-0.03904,-0.04392,-0.04392
0.00488,0.00976,-0.0244,-0.02684,-0.02928,0.01708,-0.01464,-0.00488,-0.0244,-0.04392,-0.05368,-0.04392
-0.0244,0.0366,-0.0488,-0.0366,-0.0244,0,-0.00976,-0.01952,-0.04392,-0.06344,-0.06832,-0.05856
-0.03416,0.05612,-0.07808,-0.061,-0.04392,0.00488,-0.00976,-0.0244,-0.05368,-0.08296,-0.09272,-0.08296
-0.06832,0.07564,-0.08296,-0.0488,-0.01464,-0.02684,-0.00488,-0.0244,-0.05368,-0.08296,-0.0976,-0.08784
-0.07808,0.08784,-0.0976,-0.05856,-0.01952,-0.02928,-0.01464,-0.0244,-0.05368,-0.07808,-0.09272,-0.08296
-0.08296,0.09028,-0.0976,-0.05612,-0.01464,-0.03416,-0.01464,-0.02928,-0.06832,-0.08784,-0.09272,-0.08296
-0.0732,0.0854,-0.0976,-0.061,-0.0244,-0.0244,-0.01952,-0.04392,-0.06344,-0.08784,-0.09272,-0.08296
-0.0488,0.0732,-0.0976,-0.0732,-0.0488,0,-0.02928,-0.04392,-0.06344,-0.08784,-0.09272,-0.07808
-0.04392,0.061,-0.07808,-0.05612,-0.03416,-0.00488,-0.03904,-0.04392,-0.0488,-0.0732,-0.0732,-0.06832
-0.04392,0.05612,-0.06832,-0.04636,-0.0244,-0.00976,-0.03416,-0.03904,-0.04392,-0.06832,-0.06344,-0.06344
-0.03904,0.05124,-0.06344,-0.04392,-0.0244,-0.00732,-0.02928,-0.03904,-0.04392,-0.06832,-0.06832,-0.06344
-0.03904,0.05124,-0.06344,-0.04392,-0.0244,-0.00732,-0.0244,-0.03416,-0.04392,-0.0732,-0.07808,-0.0732
-0.02928,0.04636,-0.06344,-0.0488,-0.03416,0.00244,-0.01464,-0.01464,-0.03904,-0.05856,-0.0732,-0.06344
-0.03904,0.05124,-0.06344,-0.04392,-0.0244,-0.00732,0,-0.01464,-0.03416,-0.05368,-0.06832,-0.06344
-0.05368,0.04392,-0.03416,-0.00732,0.01952,-0.0366,0.01464,-0.0244,-0.01952,-0.04392,-0.05856,-0.0488
-0.06832,0.05124,-0.03416,0,0.03416,-0.05124,0.0244,-0.0244,-0.01952,-0.04392,-0.05856,-0.05856
-0.06832,0.06588,-0.06344,-0.02928,0.00488,-0.0366,0.0244,-0.01952,-0.02928,-0.0488,-0.06344,-0.06344
-0.06832,0.0732,-0.07808,-0.04392,-0.00976,-0.02928,0.00488,-0.01952,-0.02928,-0.06344,-0.06344,-0.06344
-0.0488,0.05856,-0.06832,-0.04392,-0.01952,-0.01464,0,-0.0244,-0.03416,-0.05856,-0.06832,-0.06344
-0.04392,0.04392,-0.04392,-0.02196,0,-0.02196,0.01464,-0.0244,-0.03416,-0.05856,-0.06832,-0.06344
-0.04392,0.04148,-0.03904,-0.01708,0.00488,-0.0244,0.00976,-0.01464,-0.0244,-0.05368,-0.05856,-0.05368
-0.03416,0.03904,-0.04392,-0.02684,-0.00976,-0.0122,0.01464,0,-0.01464,-0.05368,-0.05368,-0.05368
-0.02928,0.04148,-0.05368,-0.03904,-0.0244,-0.00244,0.00976,0.00488,-0.01952,-0.05856,-0.0732,-0.0732
-0.10248,0.08296,-0.06344,-0.0122,0.03904,-0.07076,0.10248,0.09272,0.05856,-0.00976,-0.04392,-0.06344
-0.10736,0.09028,-0.0732,-0.01952,0.03416,-0.07076,0.21472,0.244,0.1708,0.0488,-0.00976,-0.05856
-0.09272,0.09272,-0.09272,-0.04636,0,-0.04636,0.32696,0.45384,0.30744,0.11712,0.00488,-0.05368
0.03904,0.01708,-0.0732,-0.09272,-0.11224,0.07564,0.33672,0.52704,0.3904,0.18544,0.0732,-0.01952
0.21472,-0.0976,-0.01952,-0.12688,-0.23424,0.22448,0.36112,0.71248,0.54168,0.33184,0.1952,0.10248
0.44408,-0.26352,0.08296,-0.13908,-0.36112,0.4026,0.44408,1.01504,0.81984,0.54656,0.39528,0.2684
0.5612,-0.41236,0.26352,-0.01708,-0.29768,0.42944,0.43432,1.00528,1.0004,0.74664,0.58072,0.44408
0.73688,-0.5734,0.40992,0.04148,-0.32696,0.53192,0.32208,0.86376,0.98088,0.8052,0.67344,0.5612
0.88816,-0.7198,0.55144,0.10736,-0.33672,0.61244,0,0.33672,0.62464,0.67344,0.64416,0.60512
0.99552,-0.83204,0.66856,0.1708,-0.32696,0.66124,-0.366,-0.26352,0.16104,0.45384,0.57584,0.62464
0.98576,-0.94184,0.89792,0.40504,-0.08784,0.5368,-0.66856,-0.79056,-0.12688,0.40016,0.65392,0.7808
0.46848,-0.77592,1.08336,0.84912,0.61488,-0.0732,-0.64904,-1.05896,-0.10736,0.5124,0.79544,0.91256
0.2196,-0.56364,0.90768,0.79788,0.68808,-0.23424,-0.6832,-1.1712,-0.36112,0.30256,0.59536,0.74664
0.0732,-0.35624,0.63928,0.60268,0.56608,-0.24644,-0.7808,-1.22488,-0.63928,-0.0244,0.27816,0.4392
0,-0.183,0.366,0.366,0.366,-0.183,-0.67832,-1.0248,-0.73688,-0.23912,0.0488,0.2196
-0.03416,-0.05856,0.15128,0.16836,0.18544,-0.1098,-0.57584,-0.84424,-0.7076,-0.33184,-0.07808,0.07808
-0.04392,0.03172,-0.01952,0.00244,0.0244,-0.03416,-0.4392,-0.67832,-0.65392,-0.39528,-0.20984,-0.06832
-0.06344,0.0732,-0.08296,-0.05124,-0.01952,-0.02196,-0.35624,-0.56608,-0.57584,-0.40504,-0.2684,-0.16104
-0.09272,0.0854,-0.07808,-0.03172,0.01464,-0.05368,-0.23912,-0.40016,-0.37576,-0.27328,-0.19032,-0.14152
-0.13176,0.1098,-0.08784,-0.02196,0.04392,-0.08784,-0.10736,-0.20496,-0.20496,-0.1952,-0.15616,-0.13176
-0.0732,0.04392,-0.01464,0.02196,0.05856,-0.06588,-0.0488,-0.13176,-0.10248,-0.09272,-0.0732,-0.05856
-0.0976,0.06588,-0.03416,0.01464,0.06344,-0.08052,-0.01952,-0.07808,-0.06832,-0.04392,-0.0488,-0.0488
-0.08784,0.061,-0.03416,0.00976,0.05368,-0.07076,-0.0244,-0.06344,-0.0732,-0.06344,-0.05856,-0.06344
-0.08784,0.06832,-0.0488,-0.00488,0.03904,-0.06344,-0.03416,-0.06832,-0.06832,-0.08784,-0.08296,-0.0732
-0.10248,0.0854,-0.06832,-0.01708,0.03416,-0.06832,-0.0244,-0.0488,-0.06344,-0.0976,-0.07808,-0.0732
-0.0976,0.08296,-0.06832,-0.01952,0.02928,-0.06344,-0.01464,-0.04392,-0.05856,-0.07808,-0.06832,-0.0732
-0.0732,0.06588,-0.05856,-0.02196,0.01464,-0.04392,0.00976,-0.03416,-0.05856,-0.07808,-0.06832,-0.08296
-0.06832,0.06344,-0.05856,-0.0244,0.00976,-0.03904,0.00976,-0.02928,-0.05368,-0.08296,-0.08296,-0.08296
-0.09272,0.08052,-0.06832,-0.02196,0.0244,-0.05856,0.00976,-0.01952,-0.03904,-0.0732,-0.08296,-0.07808
-0.09272,0.07808,-0.06344,-0.01708,0.02928,-0.061,0.00976,-0.0244,-0.04392,-0.06832,-0.07808,-0.07808
-0.09272,0.08052,-0.06832,-0.02196,0.0244,-0.05856,0,-0.01952,-0.04392,-0.06344,-0.06832,-0.0732
-0.09272,0.08052,-0.06832,-0.02196,0.0244,-0.05856,0.00488,-0.01952,-0.04392,-0.06344,-0.06344,-0.0732
-0.08296,0.07076,-0.05856,-0.01708,0.0244,-0.05368,-0.00488,-0.01952,-0.04392,-0.0732,-0.06344,-0.0732
-0.0732,0.06588,-0.05856,-0.02196,0.01464,-0.04392,-0.01464,-0.00976,-0.03904,-0.06344,-0.06344,-0.06832
-0.07808,0.08052,-0.08296,-0.04392,-0.00488,-0.0366,-0.00488,-0.02928,-0.0488,-0.07808,-0.07808,-0.09272
-0.0732,0.07564,-0.07808,-0.04148,-0.00488,-0.03416,-0.00488,-0.03904,-0.06344,-0.08784,-0.08784,-0.10248
-0.08296,0.08052,-0.07808,-0.0366,0.00488,-0.04392,0.00976,-0.03904,-0.05856,-0.08296,-0.07808,-0.0976
-0.08784,0.08296,-0.07808,-0.03416,0.00976,-0.0488,0.01952,-0.03904,-0.05856,-0.08296,-0.08296,-0.09272
-0.07808,0.07076,-0.06344,-0.0244,0.01464,-0.04636,0.01952,-0.02928,-0.0488,-0.0732,-0.0732,-0.0732
-0.08296,0.07564,-0.06832,-0.02684,0.01464,-0.0488,0.01952,-0.01952,-0.0488,-0.07808,-0.0732,-0.07808
-0.08296,0.0732,-0.06344,-0.02196,0.01952,-0.05124,0.00488,-0.01952,-0.05368,-0.07808,-0.0732,-0.07808
-0.08296,0.0732,-0.06344,-0.02196,0.01952,-0.05124,0,-0.00976,-0.0488,-0.07808,-0.06832,-0.07808
-0.08296,0.08296,-0.08296,-0.04148,0,-0.04148,0,-0.0244,-0.06344,-0.07808,-0.07808,-0.08784
-0.0732,0.07564,-0.07808,-0.04148,-0.00488,-0.03416,-0.00488,-0.03416,-0.06344,-0.07808,-0.08784,-0.08296
-0.08296,0.07808,-0.0732,-0.03172,0.00976,-0.04636,-0.00976,-0.02928,-0.05368,-0.07808,-0.06832,-0.08296
-0.08296,0.07808,-0.0732,-0.03172,0.00976,-0.04636,-0.00976,-0.03416,-0.05856,-0.08296,-0.06832,-0.08296
-0.07808,0.0732,-0.06832,-0.02928,0.00976,-0.04392,-0.01464,-0.03416,-0.06832,-0.08296,-0.07808,-0.08296
-0.07808,0.07076,-0.06344,-0.0244,0.01464,-0.04636,-0.00976,-0.03904,-0.06344,-0.08296,-0.07808,-0.08296
-0.06832,0.05856,-0.0488,-0.01464,0.01952,-0.04392,-0.00976,-0.03904,-0.0732,-0.08296,-0.07808,-0.08296
-0.06832,0.06344,-0.05856,-0.0244,0.00976,-0.03904,-0.00976,-0.03416,-0.0732,-0.08784,-0.08296,-0.08296
-0.07808,0.07564,-0.0732,-0.03416,0.00488,-0.04148,-0.01464,-0.03416,-0.0732,-0.07808,-0.0732,-0.08296
-0.08784,0.08052,-0.0732,-0.02928,0.01464,-0.05124,-0.01464,-0.03416,-0.0732,-0.07808,-0.0732,-0.08784
-0.0732,0.06832,-0.06344,-0.02684,0.00976,-0.04148,-0.00488,-0.0244,-0.06832,-0.07808,-0.06344,-0.07808
-0.06344,0.061,-0.05856,-0.02684,0.00488,-0.03416,-0.00976,-0.02928,-0.06832,-0.07808,-0.06832,-0.07808
-0.05368,0.061,-0.06832,-0.04148,-0.01464,-0.01952,-0.0244,-0.03416,-0.07808,-0.08784,-0.07808,-0.07808
-0.0488,0.05368,-0.05856,-0.03416,-0.00976,-0.01952,-0.01952,-0.02928,-0.07808,-0.08784,-0.08296,-0.07808
-0.0732,0.07076,-0.06832,-0.03172,0.00488,-0.03904,-0.02928,-0.0488,-0.07808,-0.08784,-0.08784,-0.09272
-0.08296,0.07564,-0.06832,-0.02684,0.01464,-0.0488,-0.0244,-0.05368,-0.08296,-0.08784,-0.08296,-0.08784
-0.06832,0.061,-0.05368,-0.01952,0.01464,-0.04148,-0.03416,-0.02928,-0.0732,-0.08296,-0.06832,-0.07808
-0.05368,0.05368,-0.05368,-0.02684,0,-0.02684,-0.03416,-0.02928,-0.0732,-0.08296,-0.07808,-0.08296
-0.03904,0.04636,-0.05368,-0.03416,-0.01464,-0.0122,-0.03416,-0.03904,-0.08296,-0.08296,-0.0732,-0.07808
-0.04392,0.0488,-0.05368,-0.03172,-0.00976,-0.01708,-0.03904,-0.0488,-0.08296,-0.08296,-0.0732,-0.07808
-0.04392,0.04636,-0.0488,-0.02684,-0.00488,-0.01952,-0.03904,-0.03904,-0.0732,-0.0732,-0.06832,-0.06832
-0.04392,0.04148,-0.03904,-0.01708,0.00488,-0.0244,-0.03904,-0.03416,-0.0732,-0.06832,-0.06344,-0.06344
-0.04392,0.04392,-0.04392,-0.02196,0,-0.02196,-0.0488,-0.03416,-0.06832,-0.06832,-0.05368,-0.05856
-0.0488,0.0488,-0.0488,-0.0244,0,-0.0244,-0.0488,-0.03416,-0.06832,-0.0732,-0.05368,-0.06344
-0.03416,0.04148,-0.0488,-0.03172,-0.01464,-0.00976,-0.0488,-0.03416,-0.06832,-0.0732,-0.06344,-0.0732
-0.03416,0.03904,-0.04392,-0.02684,-0.00976,-0.0122,-0.0488,-0.03416,-0.05856,-0.06344,-0.0488,-0.06832
-0.02928,0.03172,-0.03416,-0.01952,-0.00488,-0.0122,-0.02928,-0.01464,-0.04392,-0.04392,-0.04392,-0.05856
-0.02928,0.02684,-0.0244,-0.00976,0.00488,-0.01708,-0.0244,-0.00976,-0.03904,-0.04392,-0.04392,-0.05368
-0.00976,0.00976,-0.00976,-0.00488,0,-0.00488,-0.0244,-0.00976,-0.04392,-0.04392,-0.02928,-0.05368
0,0.00488,-0.00976,-0.00976,-0.00976,0.00488,-0.0244,-0.00976,-0.03904,-0.03904,-0.02928,-0.05368
-0.00488,0.00732,-0.00976,-0.00732,-0.00488,0,-0.03416,0.00976,-0.03416,-0.03416,-0.02928,-0.03904
-0.01464,0.00976,-0.00488,0.00244,0.00976,-0.0122,-0.03416,0.00976,-0.02928,-0.0244,-0.0244,-0.03904
0.00488,0,-0.00488,-0.00732,-0.00976,0.00732,-0.01952,0.03416,-0.01952,-0.02928,-0.01952,-0.03416
0.01464,-0.00488,-0.00488,-0.0122,-0.01952,0.01708,-0.01464,0.04392,-0.00976,-0.0244,-0.01464,-0.0244
0.03416,-0.01952,0.00488,-0.0122,-0.02928,0.03172,-0.01464,0.03904,-0.00488,-0.00976,0,-0.0244
0.0488,-0.03416,0.01952,-0.00488,-0.02928,0.03904,-0.01952,0.0488,-0.00488,0,-0.00488,-0.0244
0.03416,-0.02196,0.00976,-0.00732,-0.0244,0.02928,-0.01952,0.0488,0,0,0.00488,-0.00976
0.02928,-0.02196,0.01464,0,-0.01464,0.02196,-0.01464,0.06344,0.00976,0.00488,0.01952,0
0.03904,-0.02928,0.01952,0,-0.01952,0.02928,-0.0244,0.07808,0.0244,0.00976,0.0244,-0.00488
0.05368,-0.03904,0.0244,-0.00244,-0.02928,0.04148,-0.01464,0.07808,0.0244,0.00976,0.0244,0.00976
0.04392,-0.04148,0.03904,0.01708,-0.00488,0.0244,-0.01464,0.08784,0.02928,0.01952,0.03904,0.01952
0.0488,-0.05124,0.05368,0.02928,0.00488,0.02196,-0.00976,0.10248,0.03904,0.03904,0.04392,0.0244
0.0488,-0.0488,0.0488,0.0244,0,0.0244,-0.00976,0.10736,0.0488,0.03904,0.03904,0.0244
0.0488,-0.0488,0.0488,0.0244,0,0.0244,-0.00488,0.122,0.05856,0.04392,0.0488,0.03904
0.05856,-0.05856,0.05856,0.02928,0,0.02928,0.00488,0.12688,0.06832,0.05368,0.06344,0.04392
0.0732,-0.07076,0.06832,0.03172,-0.00488,0.03904,0.00488,0.14152,0.0732,0.05856,0.06832,0.04392
0.05368,-0.06588,0.07808,0.05124,0.0244,0.01464,0.01952,0.15128,0.08784,0.07808,0.09272,0.06344
0.0732,-0.0854,0.0976,0.061,0.0244,0.0244,0.02928,0.15128,0.0976,0.08784,0.09272,0.06832
0.08296,-0.08784,0.09272,0.05124,0.00976,0.0366,0.0244,0.15616,0.10248,0.09272,0.08296,0.06344
0.08784,-0.09028,0.09272,0.0488,0.00488,0.04148,0.0244,0.16104,0.10736,0.0976,0.09272,0.0732
0.08296,-0.0854,0.08784,0.04636,0.00488,0.03904,0.03904,0.16592,0.11224,0.11224,0.10736,0.08296
0.0732,-0.07564,0.07808,0.04148,0.00488,0.03416,0.0488,0.16592,0.11224,0.11224,0.10736,0.08784
0.06832,-0.07808,0.08784,0.05368,0.01952,0.0244,0.04392,0.16592,0.12688,0.11224,0.10248,0.07808
0.06832,-0.0854,0.10248,0.06832,0.03416,0.01708,0.05856,0.1708,0.12688,0.122,0.11712,0.07808
0.07808,-0.08784,0.0976,0.05856,0.01952,0.02928,0.05856,0.16592,0.13664,0.122,0.11712,0.07808
0.07808,-0.0854,0.09272,0.05368,0.01464,0.03172,0.05856,0.15128,0.122,0.11712,0.0976,0.06832
0.05368,-0.06588,0.07808,0.05124,0.0244,0.01464,0.06832,0.15128,0.122,0.11224,0.10248,0.0732
0.04392,-0.061,0.07808,0.05612,0.03416,0.00488,0.06344,0.13176,0.10736,0.0976,0.08784,0.05856
0.04392,-0.05368,0.06344,0.04148,0.01952,0.0122,0.06344,0.11712,0.09272,0.08296,0.08784,0.04392
0.05368,-0.05856,0.06344,0.0366,0.00976,0.02196,0.05368,0.09272,0.08296,0.06832,0.06832,0.0244
0.01952,-0.03904,0.05856,0.0488,0.03904,-0.00976,0.06832,0.08296,0.08296,0.06832,0.06344,0.0244
-0.00488,-0.0244,0.05368,0.05612,0.05856,-0.03172,0.06832,0.08784,0.08784,0.05856,0.05856,0.02928
-0.01952,-0.00976,0.03904,0.0488,0.05856,-0.03904,0.05856,0.08784,0.06344,0.06832,0.06344,0.03904
-0.03904,0.0122,0.01464,0.03416,0.05368,-0.04636,0.0488,0.0732,0.05856,0.05368,0.04392,0.0244
-0.02928,0.00488,0.01952,0.03416,0.0488,-0.03904,0.04392,0.06832,0.05368,0.04392,0.0488,0.01952
-0.01464,-0.00732,0.02928,0.0366,0.04392,-0.02928,0.0488,0.06832,0.05368,0.04392,0.0488,0.01952
-0.02928,0.00244,0.0244,0.03904,0.05368,-0.04148,0.03904,0.0488,0.0488,0.01952,0.03904,-0.00976
-0.02928,0.0122,0.00488,0.01952,0.03416,-0.03172,0.03904,0.03904,0.03416,0.0244,0.03904,-0.00976
-0.01952,0.00732,0.00488,0.01464,0.0244,-0.02196,0.03904,0.04392,0.02928,0.0244,0.02928,0
-0.0244,0.00976,0.00488,0.01708,0.02928,-0.02684,0.03904,0.04392,0.02928,0.0244,0.02928,0.00488
-0.0244,0.00732,0.00976,0.02196,0.03416,-0.02928,0.03416,0.03416,0.03904,0.03416,0.03904,0.00488
-0.0244,0.00488,0.01464,0.02684,0.03904,-0.03172,0.03904,0.03904,0.03416,0.03416,0.03904,0.00488
-0.03416,0.0122,0.00976,0.02684,0.04392,-0.03904,0.03904,0.0244,0.0244,0.02928,0.03416,-0.00488
-0.03904,0.01708,0.00488,0.0244,0.04392,-0.04148,0.03416,0.0244,0.0244,0.0244,0.02928,-0.00488
-0.03904,0.01952,0,0.01952,0.03904,-0.03904,0.03904,0.02928,0.03416,0.01952,0.02928,-0.00488
-0.0488,0.0244,0,0.0244,0.0488,-0.0488,0.03904,0.03416,0.02928,0.01952,0.02928,-0.00976
-0.03416,0.00976,0.01464,0.03172,0.0488,-0.04148,0.02928,0.0244,0.02928,0.02928,0.03416,0
-0.00976,-0.00244,0.01464,0.01952,0.0244,-0.01708,0.02928,0.01952,0.02928,0.0244,0.03416,-0.00488
-0.02928,0.0122,0.00488,0.01952,0.03416,-0.03172,0.01952,0.00976,0.01952,0.0244,0.0244,-0.01464
-0.03904,0.02684,-0.01464,0.00488,0.0244,-0.03172,0.01952,0.00976,0.00976,0.01952,0.01464,-0.0244
-0.02928,0.0122,0.00488,0.01952,0.03416,-0.03172,0.0244,0.01952,0.03416,0.02928,0.04392,-0.00488
-0.02928,0.01708,-0.00488,0.00976,0.0244,-0.02684,0.0244,0.0244,0.03416,0.01464,0.0244,0
-0.0488,0.03172,-0.01464,0.00976,0.03416,-0.04148,0.02928,0.03416,0.0244,0.0244,0.03416,0
-0.05856,0.03416,-0.00976,0.01952,0.0488,-0.05368,0.02928,0.03416,0.01952,0.02928,0.03416,-0.00488
-0.0488,0.02928,-0.00976,0.01464,0.03904,-0.04392,0.0244,0.01952,0.01952,0.00976,0.01952,-0.01464
-0.0244,0.01708,-0.00976,0.00244,0.01464,-0.01952,0.0244,0.01952,0.0244,0.00488,0.00976,-0.01464
-0.0244,0.01952,-0.01464,-0.00244,0.00976,-0.01708,0.0244,0.03416,0.03416,0.01464,0.01464,-0.00976
-0.04392,0.02684,-0.00976,0.0122,0.03416,-0.03904,0.02928,0.03416,0.03416,0.01952,0.0244,-0.00976
-0.03416,0.01952,-0.00488,0.0122,0.02928,-0.03172,0.03904,0.03416,0.01952,0.01952,0.01464,-0.00488
-0.0244,0.0122,0,0.0122,0.0244,-0.0244,0.0244,0.02928,0.01952,0.01952,0.0244,-0.00488
-0.0244,0.00488,0.01464,0.02684,0.03904,-0.03172,0.0244,0.02928,0.02928,0.0244,0.02928,-0.01464
-0.0244,0.00488,0.01464,0.02684,0.03904,-0.03172,0.02928,0.02928,0.03416,0.0244,0.01952,-0.01464
-0.0244,0.00976,0.00488,0.01708,0.02928,-0.02684,0.02928,0.02928,0.03416,0.01952,0.02928,-0.00976
-0.01952,0.00976,0,0.00976,0.01952,-0.01952,0.02928,0.02928,0.02928,0.01952,0.02928,-0.00976
-0.00976,0.00244,0.00488,0.00976,0.01464,-0.0122,0.01952,0.02928,0.01952,0.01464,0.0244,-0.01952
0,0,0,0,0,0,0.01464,0.02928,0.01464,0.00488,0.0244,-0.01952
0.00488,-0.00732,0.00976,0.00732,0.00488,0,0.01464,0.03416,0.01952,0.01952,0.03416,-0.01464
-0.01952,0.00244,0.01464,0.0244,0.03416,-0.02684,0.01952,0.03904,0.01952,0.0244,0.04392,0
-0.00976,0.00732,-0.00488,0,0.00488,-0.00732,0.01952,0.03904,0.01952,0.00488,0.0244,-0.01464
-0.01952,0.01464,-0.00976,0,0.00976,-0.01464,0.01952,0.03904,0.0244,0.00976,0.01464,-0.00976
-0.01952,0.00976,0,0.00976,0.01952,-0.01952,0.01464,0.0244,0.01952,0,0.01952,-0.01952
-0.02928,0.01464,0,0.01464,0.02928,-0.02928,0.01464,0.0244,0.00488,0,0.01464,-0.01952
-0.01464,0.00976,-0.00488,0.00244,0.00976,-0.0122,0.0244,0.02928,0.00488,0.01464,0.00976,-0.00976
-0.01952,0.01464,-0.00976,0,0.00976,-0.01464,0.0244,0.02928,0.00488,0.00976,0.01952,-0.01464
-0.03904,0.0244,-0.00976,0.00976,0.02928,-0.03416,0.0244,0.0244,0,0,0.00976,-0.01952
-0.03904,0.02684,-0.01464,0.00488,0.0244,-0.03172,0.01952,0.01464,0,0.00488,0.00976,-0.01952
-0.02928,0.01952,-0.00976,0.00488,0.01952,-0.0244,0.01952,0.0244,0,0,0.01952,-0.00976
-0.0244,0.01952,-0.01464,-0.00244,0.00976,-0.01708,0.01952,0.0244,0,-0.00488,0.01952,-0.01952
-0.01464,0.00732,0,0.00732,0.01464,-0.01464,0.02928,0.02928,0.00976,0.00976,0.01952,-0.01464
-0.01952,0.00976,0,0.00976,0.01952,-0.01952,0.02928,0.02928,0.00976,0.00976,0.01952,-0.01464
-0.01464,0.01708,-0.01952,-0.0122,-0.00488,-0.00488,0.00976,0.01464,-0.00488,0,0.00976,-0.01952
-0.01952,0.01952,-0.01952,-0.00976,0,-0.00976,-0.00488,0,-0.01464,-0.01952,0.00976,-0.02928
-0.01464,0.00732,0,0.00732,0.01464,-0.01464,-0.00488,0,-0.00976,-0.00976,0.00976,-0.0244
-0.00488,-0.00488,0.01464,0.01708,0.01952,-0.0122,0.00488,0.00976,-0.00976,0,0.00976,-0.00976
-0.00488,-0.00488,0.01464,0.01708,0.01952,-0.0122,0.00976,0,-0.01464,0,0.0244,-0.01464
-0.00488,-0.00488,0.01464,0.01708,0.01952,-0.0122,0.01464,0.00488,-0.01464,0,0.00976,-0.01952
-0.02928,0.01952,-0.00976,0.00488,0.01952,-0.0244,0.01952,0.01464,-0.00976,-0.01952,0,-0.02928
-0.04392,0.0366,-0.02928,-0.00732,0.01464,-0.02928,0.01952,0.01464,-0.01464,-0.01464,-0.00488,-0.02928
-0.02928,0.03416,-0.03904,-0.0244,-0.00976,-0.00976,0.01952,0.00488,-0.01952,-0.01464,-0.00488,-0.03416
-0.01952,0.02928,-0.03904,-0.02928,-0.01952,0,0.01952,0.01464,-0.00976,-0.01464,0,-0.03416
-0.01952,0.01464,-0.00976,0,0.00976,-0.01464,0.01952,0.01464,-0.00976,-0.01464,0.00976,-0.0244
-0.00488,0.00488,-0.00488,-0.00244,0,-0.00244,0.00488,0.00488,-0.01952,-0.0244,0.00976,-0.01952
-0.02928,0.0244,-0.01952,-0.00488,0.00976,-0.01952,0.00976,0.01464,-0.00488,-0.01952,0,-0.02928
-0.04392,0.02928,-0.01464,0.00732,0.02928,-0.0366,0.01464,0.01464,-0.00488,-0.01952,0.00488,-0.02928
-0.03904,0.03172,-0.0244,-0.00488,0.01464,-0.02684,0.01464,0.01952,-0.01464,-0.02928,-0.00976,-0.03904
-0.04392,0.0366,-0.02928,-0.00732,0.01464,-0.02928,0.00976,0.01952,-0.01464,-0.02928,-0.00976,-0.03416
-0.03416,0.02928,-0.0244,-0.00732,0.00976,-0.02196,0.01952,0.01464,-0.01952,-0.00976,0.00488,-0.02928
-0.01952,0.01952,-0.01952,-0.00976,0,-0.00976,0.03416,0.00976,-0.0244,-0.01464,0.00488,-0.02928
-0.02928,0.03172,-0.03416,-0.01952,-0.00488,-0.0122,0.01952,0.00976,-0.01952,-0.0244,-0.01464,-0.03416
-0.04392,0.03904,-0.03416,-0.0122,0.00976,-0.02684,0.01952,0.00488,-0.0244,-0.01952,-0.01464,-0.03416
-0.01952,0.01952,-0.01952,-0.00976,0,-0.00976,0.00976,0.00488,-0.02928,-0.03904,-0.01464,-0.03416
-0.00488,0.0122,-0.01952,-0.01708,-0.01464,0.00488,0.00976,0.00488,-0.02928,-0.03416,-0.01464,-0.03416
-0.01464,0.00976,-0.00488,0.00244,0.00976,-0.0122,0.01464,0.00488,-0.01952,-0.01464,0.00488,-0.01952
-0.0244,0.01464,-0.00488,0.00732,0.01952,-0.02196,0.01952,0.00976,-0.00976,-0.00976,0.01464,-0.01952
-0.01952,0.01952,-0.01952,-0.00976,0,-0.00976,0.00976,0.00488,-0.02928,-0.03416,-0.00976,-0.03904
-0.00976,0.01464,-0.01952,-0.01464,-0.00976,0,0.00976,0,-0.02928,-0.04392,-0.02928,-0.0488
-0.0244,0.0244,-0.0244,-0.0122,0,-0.0122,0,-0.00976,-0.02928,-0.03416,-0.01952,-0.03904
-0.03416,0.0366,-0.03904,-0.02196,-0.00488,-0.01464,0,-0.00976,-0.02928,-0.02928,-0.01464,-0.02928
-0.02928,0.0244,-0.01952,-0.00488,0.00976,-0.01952,0.01464,0,-0.01464,-0.01952,0,-0.01952
-0.03416,0.0244,-0.01464,0.00244,0.01952,-0.02684,0.0244,-0.00976,-0.01464,-0.0244,0,-0.02928
-0.02928,0.02684,-0.0244,-0.00976,0.00488,-0.01708,0.01464,0.00976,-0.0244,-0.03416,-0.01952,-0.04392
-0.02928,0.02684,-0.0244,-0.00976,0.00488,-0.01708,0.01464,0.00488,-0.03416,-0.03416,-0.0244,-0.04392
-0.03416,0.03172,-0.02928,-0.0122,0.00488,-0.01952,0.00976,0.00488,-0.0244,-0.03416,-0.0244,-0.0488
-0.03416,0.02684,-0.01952,-0.00244,0.01464,-0.0244,0,0.00976,-0.01952,-0.02928,-0.0244,-0.04392
-0.02928,0.01952,-0.00976,0.00488,0.01952,-0.0244,0.00976,0.01952,-0.01952,-0.01464,-0.00976,-0.02928
-0.03416,0.01952,-0.00488,0.0122,0.02928,-0.03172,0.00976,0.01952,-0.01952,-0.01464,0,-0.03904
-0.01464,0.0122,-0.00976,-0.00244,0.00488,-0.00976,0.01464,0,-0.00976,-0.01464,0.00976,-0.01952
-0.01952,0.00976,0,0.00976,0.01952,-0.01952,0.01464,0.00488,-0.00976,-0.01464,0.00488,-0.01952
-0.04392,0.02928,-0.01464,0.00732,0.02928,-0.0366,0.0244,-0.00488,-0.01952,-0.01952,0.00488,-0.02928
-0.05368,0.02928,-0.00488,0.02196,0.0488,-0.05124,0.02928,-0.00488,-0.0244,-0.01952,-0.00976,-0.02928
-0.0488,0.03904,-0.02928,-0.00488,0.01952,-0.03416,0.00976,-0.01952,-0.02928,-0.02928,-0.02928,-0.0488
-0.03904,0.02928,-0.01952,0,0.01952,-0.02928,0.01952,-0.00976,-0.02928,-0.02928,-0.01952,-0.03904
-0.02928,0.0244,-0.01952,-0.00488,0.00976,-0.01952,0.02928,0,-0.02928,-0.02928,-0.00976,-0.02928
-0.03904,0.0244,-0.00976,0.00976,0.02928,-0.03416,0.01952,-0.00976,-0.01952,-0.01952,0,-0.01952
-0.03904,0.0244,-0.00976,0.00976,0.02928,-0.03416,0.01952,-0.00976,-0.01952,-0.01952,0.00976,-0.01952
-0.03904,0.03416,-0.02928,-0.00976,0.00976,-0.0244,0.00976,-0.01952,-0.03904,-0.0488,-0.01952,-0.0488
-0.02928,0.04392,-0.05856,-0.04392,-0.02928,0,0.00488,-0.0244,-0.05368,-0.06832,-0.05368,-0.06832
