i,aVR,ii,aVF,iii,aVL,V1,V2,V3,V4,V5,V6
0.00976,-0.00488,0,-0.00488,-0.00976,0.00976,0.02928,0.01464,0.00976,0.00488,-0.122,-0.00488
0,0.0122,-0.0244,-0.0244,-0.0244,0.0122,0.01952,-0.00976,-0.01464,-0.0244,-0.15128,-0.01952
-0.01952,0.03172,-0.04392,-0.03416,-0.0244,0.00244,0.00976,-0.01464,-0.02928,-0.03904,-0.15128,-0.0244
-0.03904,0.05124,-0.06344,-0.04392,-0.0244,-0.00732,0,-0.03904,-0.0488,-0.05856,-0.15616,-0.03416
-0.02928,0.04636,-0.06344,-0.0488,-0.03416,0.00244,-0.00976,-0.05856,-0.06344,-0.06344,-0.18544,-0.03904
-0.0244,0.0488,-0.0732,-0.061,-0.0488,0.0122,-0.01464,-0.06832,-0.0732,-0.07808,-0.18544,-0.04392
-0.00976,0.0366,-0.06344,-0.05856,-0.05368,0.02196,0,-0.06832,-0.08296,-0.08296,-0.18056,-0.0488
-0.01464,0.0366,-0.05856,-0.05124,-0.04392,0.01464,-0.00488,-0.0732,-0.08784,-0.08296,-0.17568,-0.0488
-0.01952,0.03904,-0.05856,-0.0488,-0.03904,0.00976,0.00488,-0.06832,-0.07808,-0.0732,-0.18056,-0.03904
-0.01952,0.04148,-0.06344,-0.05368,-0.04392,0.0122,0.00488,-0.07808,-0.08784,-0.08296,-0.18056,-0.04392
-0.01952,0.04148,-0.06344,-0.05368,-0.04392,0.0122,-0.00976,-0.06832,-0.08296,-0.08296,-0.19032,-0.04392
-0.01952,0.04148,-0.06344,-0.05368,-0.04392,0.0122,-0.00976,-0.06832,-0.08296,-0.07808,-0.18544,-0.04392
-0.02928,0.04392,-0.05856,-0.04392,-0.02928,0,-0.01952,-0.06832,-0.09272,-0.08296,-0.19032,-0.05368
-0.0244,0.04392,-0.06344,-0.05124,-0.03904,0.00732,-0.01952,-0.06832,-0.09272,-0.08784,-0.19032,-0.05856
-0.03416,0.05856,-0.08296,-0.06588,-0.0488,0.00732,-0.00976,-0.07808,-0.08784,-0.0976,-0.19032,-0.05368
-0.03416,0.05612,-0.07808,-0.061,-0.04392,0.00488,-0.01464,-0.0732,-0.08784,-0.0976,-0.1952,-0.05368
-0.02928,0.04636,-0.06344,-0.0488,-0.03416,0.00244,0,-0.06344,-0.08784,-0.08784,-0.19032,-0.04392
-0.0244,0.04392,-0.06344,-0.05124,-0.03904,0.00732,0.00488,-0.05856,-0.08296,-0.08296,-0.19032,-0.04392
-0.01952,0.04636,-0.0732,-0.06344,-0.05368,0.01708,-0.00488,-0.06832,-0.09272,-0.08296,-0.19032,-0.05368
-0.01952,0.05368,-0.08784,-0.07808,-0.06832,0.0244,0,-0.06344,-0.08784,-0.08784,-0.18544,-0.0488
-0.02928,0.05368,-0.07808,-0.06344,-0.0488,0.00976,0,-0.05368,-0.08784,-0.09272,-0.1952,-0.0488
-0.03416,0.05856,-0.08296,-0.06588,-0.0488,0.00732,0,-0.05368,-0.09272,-0.09272,-0.1952,-0.05368
-0.02928,0.0488,-0.06832,-0.05368,-0.03904,0.00488,0.01464,-0.04392,-0.07808,-0.09272,-0.18544,-0.04392
-0.03904,0.05368,-0.06832,-0.0488,-0.02928,-0.00488,0.01464,-0.04392,-0.07808,-0.09272,-0.19032,-0.04392
-0.02928,0.05124,-0.0732,-0.05856,-0.04392,0.00732,0.0244,-0.03416,-0.06832,-0.08296,-0.1708,-0.03416
-0.01952,0.04636,-0.0732,-0.06344,-0.05368,0.01708,0.0244,-0.02928,-0.06832,-0.08296,-0.1708,-0.03416
-0.02928,0.05612,-0.08296,-0.06832,-0.05368,0.0122,0.01952,-0.03904,-0.07808,-0.08784,-0.18056,-0.04392
-0.03416,0.06344,-0.09272,-0.07564,-0.05856,0.0122,0.01952,-0.03904,-0.08296,-0.08784,-0.19032,-0.0488
-0.03416,0.05856,-0.08296,-0.06588,-0.0488,0.00732,0.00976,-0.03904,-0.08296,-0.08784,-0.18056,-0.0488
-0.03904,0.061,-0.08296,-0.06344,-0.04392,0.00244,0.00976,-0.03904,-0.07808,-0.08784,-0.17568,-0.0488
-0.02928,0.0488,-0.06832,-0.05368,-0.03904,0.00488,0.01952,-0.0244,-0.06832,-0.0732,-0.1708,-0.03904
-0.03416,0.05368,-0.0732,-0.05612,-0.03904,0.00244,0.0244,-0.0244,-0.06344,-0.0732,-0.16592,-0.04392
-0.0244,0.04636,-0.06832,-0.05612,-0.04392,0.00976,0.0244,-0.03416,-0.0732,-0.07808,-0.17568,-0.0488
-0.02928,0.04636,-0.06344,-0.0488,-0.03416,0.00244,0.0244,-0.03416,-0.07808,-0.0732,-0.18056,-0.0488
-0.01952,0.04148,-0.06344,-0.05368,-0.04392,0.0122,0.01464,-0.03416,-0.07808,-0.0732,-0.1708,-0.03904
-0.01464,0.03904,-0.06344,-0.05612,-0.0488,0.01708,0.01952,-0.03416,-0.07808,-0.06832,-0.1708,-0.02928
-0.02928,0.05124,-0.0732,-0.05856,-0.04392,0.00732,0.01952,-0.0244,-0.06832,-0.06832,-0.1708,-0.03416
-0.01952,0.04148,-0.06344,-0.05368,-0.04392,0.0122,0.02928,-0.0244,-0.06344,-0.06832,-0.1708,-0.03416
-0.01952,0.05124,-0.08296,-0.0732,-0.06344,0.02196,0.01464,-0.02928,-0.07808,-0.0732,-0.1708,-0.03904
-0.02928,0.05124,-0.0732,-0.05856,-0.04392,0.00732,0.01464,-0.0244,-0.07808,-0.06832,-0.1708,-0.03416
-0.01464,0.03904,-0.06344,-0.05612,-0.0488,0.01708,0.01952,-0.03416,-0.06832,-0.06344,-0.1708,-0.02928
-0.01952,0.04148,-0.06344,-0.05368,-0.04392,0.0122,0.01952,-0.03904,-0.06832,-0.0732,-0.16592,-0.03416
-0.00488,0.0366,-0.06832,-0.06588,-0.06344,0.02928,0.0244,-0.02928,-0.06344,-0.06832,-0.16104,-0.02928
-0.00488,0.0366,-0.06832,-0.06588,-0.06344,0.02928,0.01952,-0.02928,-0.06832,-0.06832,-0.16592,-0.0244
-0.0244,0.05368,-0.08296,-0.07076,-0.05856,0.01708,0.00488,-0.0488,-0.08296,-0.07808,-0.1708,-0.02928
-0.03904,0.06588,-0.09272,-0.0732,-0.05368,0.00732,-0.00488,-0.05856,-0.08296,-0.08296,-0.1708,-0.0488
-0.03416,0.05856,-0.08296,-0.06588,-0.0488,0.00732,0,-0.05368,-0.08784,-0.08296,-0.17568,-0.0488
-0.03416,0.05612,-0.07808,-0.061,-0.04392,0.00488,0.00488,-0.05856,-0.08784,-0.08296,-0.17568,-0.0488
-0.0244,0.05124,-0.07808,-0.06588,-0.05368,0.01464,0,-0.05368,-0.07808,-0.0732,-0.1708,-0.03416
-0.00976,0.0366,-0.06344,-0.05856,-0.05368,0.02196,0,-0.05856,-0.08296,-0.07808,-0.1708,-0.03416
-0.01952,0.04148,-0.06344,-0.05368,-0.04392,0.0122,0,-0.05368,-0.08296,-0.08784,-0.18056,-0.04392
-0.0244,0.04636,-0.06832,-0.05612,-0.04392,0.00976,-0.00488,-0.05856,-0.08784,-0.09272,-0.18056,-0.03904
-0.01952,0.04392,-0.06832,-0.05856,-0.0488,0.01464,0.00976,-0.06344,-0.08784,-0.08296,-0.1708,-0.03416
-0.01952,0.0488,-0.07808,-0.06832,-0.05856,0.01952,0.00976,-0.06832,-0.09272,-0.08784,-0.1708,-0.03904
-0.01952,0.04636,-0.0732,-0.06344,-0.05368,0.01708,0,-0.06832,-0.10248,-0.0976,-0.19032,-0.0488
-0.00976,0.03904,-0.06832,-0.06344,-0.05856,0.0244,-0.00488,-0.06832,-0.10248,-0.0976,-0.19032,-0.0488
-0.01952,0.04636,-0.0732,-0.06344,-0.05368,0.01708,-0.00488,-0.0732,-0.0976,-0.08784,-0.18056,-0.03904
-0.0244,0.0488,-0.0732,-0.061,-0.0488,0.0122,-0.00976,-0.07808,-0.10248,-0.08784,-0.18056,-0.04392
-0.0244,0.05368,-0.08296,-0.07076,-0.05856,0.01708,-0.00976,-0.08784,-0.10736,-0.10736,-0.19032,-0.0488
-0.02928,0.061,-0.09272,-0.07808,-0.06344,0.01708,-0.01464,-0.09272,-0.11712,-0.10736,-0.19032,-0.0488
-0.03904,0.07076,-0.10248,-0.08296,-0.06344,0.0122,-0.01464,-0.08296,-0.10736,-0.0976,-0.19032,-0.05856
-0.03416,0.06832,-0.10248,-0.0854,-0.06832,0.01708,-0.01464,-0.08296,-0.10736,-0.0976,-0.19032,-0.05368
-0.01464,0.05124,-0.08784,-0.08052,-0.0732,0.02928,-0.00488,-0.0732,-0.10736,-0.10248,-0.18544,-0.04392
-0.00488,0.03416,-0.06344,-0.061,-0.05856,0.02684,-0.00488,-0.0732,-0.10736,-0.0976,-0.18056,-0.04392
-0.00976,0.04148,-0.0732,-0.06832,-0.06344,0.02684,-0.00976,-0.0732,-0.10736,-0.0976,-0.18056,-0.05368
-0.00976,0.03904,-0.06832,-0.06344,-0.05856,0.0244,-0.00976,-0.08296,-0.10736,-0.10248,-0.19032,-0.0488
-0.0244,0.05368,-0.08296,-0.07076,-0.05856,0.01708,-0.01464,-0.08784,-0.11712,-0.10248,-0.19032,-0.05368
-0.03416,0.05856,-0.08296,-0.06588,-0.0488,0.00732,-0.01952,-0.08784,-0.11712,-0.10248,-0.18544,-0.05368
-0.03416,0.061,-0.08784,-0.07076,-0.05368,0.00976,-0.01952,-0.08784,-0.11712,-0.11224,-0.1952,-0.05368
-0.03416,0.061,-0.08784,-0.07076,-0.05368,0.00976,-0.01464,-0.08784,-0.122,-0.10736,-0.20496,-0.05368
-0.03416,0.06344,-0.09272,-0.07564,-0.05856,0.0122,-0.01464,-0.08784,-0.11224,-0.10736,-0.1952,-0.05368
-0.02928,0.06344,-0.0976,-0.08296,-0.06832,0.01952,-0.01464,-0.08784,-0.11712,-0.10736,-0.1952,-0.05368
-0.02928,0.06344,-0.0976,-0.08296,-0.06832,0.01952,-0.01464,-0.0976,-0.122,-0.11224,-0.20496,-0.05368
-0.02928,0.06344,-0.0976,-0.08296,-0.06832,0.01952,-0.01952,-0.10736,-0.12688,-0.11224,-0.20984,-0.05368
-0.03904,0.06832,-0.0976,-0.07808,-0.05856,0.00976,-0.01952,-0.0976,-0.12688,-0.11712,-0.21472,-0.06344
-0.02928,0.061,-0.09272,-0.07808,-0.06344,0.01708,-0.01952,-0.0976,-0.12688,-0.11712,-0.20984,-0.05856
-0.02928,0.05856,-0.08784,-0.0732,-0.05856,0.01464,-0.00976,-0.08296,-0.12688,-0.10736,-0.20984,-0.05368
-0.01952,0.05124,-0.08296,-0.0732,-0.06344,0.02196,-0.01952,-0.08784,-0.12688,-0.10736,-0.20496,-0.05856
-0.00488,0.03904,-0.0732,-0.07076,-0.06832,0.03172,-0.01952,-0.09272,-0.11712,-0.10736,-0.20984,-0.05368
-0.00488,0.03904,-0.0732,-0.07076,-0.06832,0.03172,-0.01952,-0.09272,-0.11712,-0.10248,-0.20984,-0.05856
-0.01464,0.05124,-0.08784,-0.08052,-0.0732,0.02928,-0.01952,-0.09272,-0.11712,-0.10248,-0.20496,-0.05368
-0.0244,0.061,-0.0976,-0.0854,-0.0732,0.0244,-0.01952,-0.09272,-0.11712,-0.10736,-0.20496,-0.05368
-0.04392,0.07076,-0.0976,-0.07564,-0.05368,0.00488,-0.02928,-0.09272,-0.12688,-0.11712,-0.21472,-0.05856
-0.02928,0.06344,-0.0976,-0.08296,-0.06832,0.01952,-0.02928,-0.09272,-0.12688,-0.122,-0.21472,-0.05856
-0.02928,0.061,-0.09272,-0.07808,-0.06344,0.01708,-0.01952,-0.0976,-0.12688,-0.10736,-0.2196,-0.0488
-0.02928,0.061,-0.09272,-0.07808,-0.06344,0.01708,-0.01952,-0.0976,-0.12688,-0.10736,-0.2196,-0.05856
-0.01464,0.04636,-0.07808,-0.07076,-0.06344,0.0244,-0.00976,-0.08784,-0.11712,-0.10736,-0.21472,-0.05856
-0.01464,0.0488,-0.08296,-0.07564,-0.06832,0.02684,-0.01464,-0.08784,-0.122,-0.11224,-0.21472,-0.05368
-0.0244,0.05856,-0.09272,-0.08052,-0.06832,0.02196,-0.0244,-0.08784,-0.13176,-0.122,-0.2196,-0.05856
-0.0244,0.05856,-0.09272,-0.08052,-0.06832,0.02196,-0.02928,-0.08784,-0.13176,-0.122,-0.2196,-0.05368
-0.02928,0.061,-0.09272,-0.07808,-0.06344,0.01708,-0.0244,-0.0976,-0.13176,-0.11224,-0.22448,-0.05368
-0.02928,0.05856,-0.08784,-0.0732,-0.05856,0.01464,-0.0244,-0.0976,-0.13176,-0.11224,-0.22448,-0.05856
-0.03416,0.06344,-0.09272,-0.07564,-0.05856,0.0122,-0.01952,-0.0976,-0.122,-0.122,-0.22448,-0.05856
-0.03416,0.06832,-0.10248,-0.0854,-0.06832,0.01708,-0.01952,-0.0976,-0.122,-0.122,-0.22936,-0.05368
-0.02928,0.061,-0.09272,-0.07808,-0.06344,0.01708,-0.0244,-0.10248,-0.13664,-0.11712,-0.22936,-0.05368
-0.0244,0.05856,-0.09272,-0.08052,-0.06832,0.02196,-0.01952,-0.10248,-0.13664,-0.11224,-0.22936,-0.05856
-0.0244,0.05612,-0.08784,-0.07564,-0.06344,0.01952,-0.01464,-0.09272,-0.12688,-0.11712,-0.22448,-0.05368
-0.00976,0.04636,-0.08296,-0.07808,-0.0732,0.03172,-0.00976,-0.09272,-0.12688,-0.11712,-0.22448,-0.05368
-0.0488,0.08296,-0.11712,-0.09272,-0.06832,0.00976,-0.02928,-0.10248,-0.13664,-0.13176,-0.24888,-0.06344
-0.03416,0.06832,-0.10248,-0.0854,-0.06832,0.01708,-0.0244,-0.0976,-0.13664,-0.11712,-0.23424,-0.05856
-0.0244,0.05856,-0.09272,-0.08052,-0.06832,0.02196,-0.01464,-0.0976,-0.13664,-0.11712,-0.23424,-0.05856
-0.01952,0.05368,-0.08784,-0.07808,-0.06832,0.0244,-0.01952,-0.0976,-0.12688,-0.11712,-0.23424,-0.05856
-0.01952,0.05368,-0.08784,-0.07808,-0.06832,0.0244,-0.01952,-0.0976,-0.12688,-0.11712,-0.23424,-0.05856
-0.02928,0.05856,-0.08784,-0.0732,-0.05856,0.01464,-0.01952,-0.0976,-0.12688,-0.11712,-0.23424,-0.05856
-0.02928,0.05856,-0.08784,-0.0732,-0.05856,0.01464,-0.01952,-0.0976,-0.12688,-0.11712,-0.23424,-0.05856
-0.02928,0.0488,-0.06832,-0.05368,-0.03904,0.00488,-0.00976,-0.07808,-0.10736,-0.10736,-0.23424,-0.05368
-0.0244,0.03172,-0.03904,-0.02684,-0.01464,-0.00488,0.01464,-0.06832,-0.0976,-0.09272,-0.22448,-0.04392
-0.01464,0.02684,-0.03904,-0.03172,-0.0244,0.00488,0.01464,-0.06344,-0.09272,-0.0976,-0.2196,-0.04392
-0.01952,0.02684,-0.03416,-0.0244,-0.01464,-0.00244,0.01952,-0.06344,-0.09272,-0.09272,-0.2196,-0.04392
-0.0244,0.02928,-0.03416,-0.02196,-0.00976,-0.00732,0.03416,-0.06344,-0.09272,-0.08784,-0.2196,-0.03416
-0.01952,0.02684,-0.03416,-0.0244,-0.01464,-0.00244,0.03416,-0.06344,-0.09272,-0.08784,-0.22448,-0.03416
-0.01952,0.03172,-0.04392,-0.03416,-0.0244,0.00244,0.0244,-0.06344,-0.08784,-0.08296,-0.22936,-0.04392
-0.00976,0.01952,-0.02928,-0.0244,-0.01952,0.00488,0.0244,-0.05856,-0.08296,-0.08296,-0.22448,-0.03416
-0.00976,0.0244,-0.03904,-0.03416,-0.02928,0.00976,0.00488,-0.05856,-0.08296,-0.08784,-0.21472,-0.03416
0.01464,0.00488,-0.0244,-0.03172,-0.03904,0.02684,-0.00976,-0.0488,-0.0732,-0.0732,-0.20496,-0.01952
0.01464,0.00488,-0.0244,-0.03172,-0.03904,0.02684,-0.02928,-0.06344,-0.0732,-0.0732,-0.20008,-0.01952
0.01464,0,-0.01464,-0.02196,-0.02928,0.02196,-0.04392,-0.0732,-0.07808,-0.0732,-0.20496,-0.01952
-0.00488,0.02684,-0.0488,-0.04636,-0.04392,0.01952,-0.05856,-0.10736,-0.122,-0.0976,-0.22448,-0.03416
0,0.02928,-0.05856,-0.05856,-0.05856,0.02928,-0.05368,-0.122,-0.13664,-0.11224,-0.22936,-0.02928
0.00488,0.01708,-0.03904,-0.04148,-0.04392,0.0244,-0.03904,-0.11224,-0.122,-0.0976,-0.23424,-0.01464
0.01464,0.00732,-0.02928,-0.0366,-0.04392,0.02928,-0.02928,-0.08784,-0.10736,-0.08784,-0.2196,-0.00976
0.00976,0.00976,-0.02928,-0.03416,-0.03904,0.0244,-0.01952,-0.07808,-0.10248,-0.08296,-0.21472,-0.01952
0.00976,0.00976,-0.02928,-0.03416,-0.03904,0.0244,-0.00976,-0.0732,-0.0976,-0.07808,-0.21472,-0.01464
0.00488,0.01952,-0.04392,-0.04636,-0.0488,0.02684,0,-0.06832,-0.09272,-0.08784,-0.22448,-0.00976
-0.00488,0.03904,-0.0732,-0.07076,-0.06832,0.03172,-0.00488,-0.08296,-0.11224,-0.10736,-0.23912,-0.03416
-0.03416,0.0732,-0.11224,-0.09516,-0.07808,0.02196,-0.01952,-0.09272,-0.12688,-0.12688,-0.25864,-0.05856
-0.03416,0.0732,-0.11224,-0.09516,-0.07808,0.02196,-0.0244,-0.10248,-0.13664,-0.13664,-0.26352,-0.06832
-0.0488,0.0976,-0.1464,-0.122,-0.0976,0.0244,-0.02928,-0.122,-0.16104,-0.1464,-0.28304,-0.0732
-0.0488,0.0976,-0.1464,-0.122,-0.0976,0.0244,-0.0488,-0.13176,-0.17568,-0.15128,-0.2928,-0.07808
-0.03416,0.0854,-0.13664,-0.11956,-0.10248,0.03416,-0.0488,-0.122,-0.16592,-0.15616,-0.28304,-0.07808
-0.03416,0.08052,-0.12688,-0.1098,-0.09272,0.02928,-0.03904,-0.122,-0.16592,-0.15616,-0.28304,-0.07808
-0.02928,0.07808,-0.12688,-0.11224,-0.0976,0.03416,-0.03904,-0.11712,-0.16104,-0.15616,-0.2928,-0.06832
-0.0244,0.0732,-0.122,-0.1098,-0.0976,0.0366,-0.03904,-0.11712,-0.16592,-0.16104,-0.29768,-0.0732
-0.0244,0.07076,-0.11712,-0.10492,-0.09272,0.03416,-0.0488,-0.13176,-0.17568,-0.16104,-0.29768,-0.08296
-0.03416,0.08052,-0.12688,-0.1098,-0.09272,0.02928,-0.0488,-0.13176,-0.17568,-0.16104,-0.30256,-0.08784
-0.03416,0.08296,-0.13176,-0.11468,-0.0976,0.03172,-0.03904,-0.12688,-0.17568,-0.16104,-0.31232,-0.09272
-0.03904,0.09028,-0.14152,-0.122,-0.10248,0.03172,-0.03904,-0.12688,-0.17568,-0.16104,-0.31232,-0.09272
-0.02928,0.07808,-0.12688,-0.11224,-0.0976,0.03416,-0.03416,-0.11712,-0.16104,-0.16104,-0.30256,-0.08296
-0.0244,0.0732,-0.122,-0.1098,-0.0976,0.0366,-0.03416,-0.11712,-0.16592,-0.15616,-0.29768,-0.08296
-0.03416,0.0854,-0.13664,-0.11956,-0.10248,0.03416,-0.03904,-0.11712,-0.16592,-0.16104,-0.31232,-0.08296
-0.02928,0.08296,-0.13664,-0.122,-0.10736,0.03904,-0.03416,-0.11224,-0.16104,-0.16104,-0.30744,-0.08296
-0.03904,0.08052,-0.122,-0.10248,-0.08296,0.02196,-0.02928,-0.122,-0.16104,-0.16104,-0.30744,-0.08296
-0.05368,0.09516,-0.13664,-0.1098,-0.08296,0.01464,-0.03416,-0.122,-0.16104,-0.16104,-0.31232,-0.08296
-0.03416,0.08784,-0.14152,-0.12444,-0.10736,0.0366,-0.04392,-0.12688,-0.16104,-0.15128,-0.3172,-0.08784
-0.06344,0.11468,-0.16592,-0.1342,-0.10248,0.01952,-0.03904,-0.11224,-0.18056,-0.17568,-0.32696,-0.09272
-0.03416,0.11468,-0.1952,-0.17812,-0.16104,0.06344,0.02928,-0.06832,-0.2196,-0.23912,-0.38064,-0.13664
-0.01464,0.1586,-0.30256,-0.29524,-0.28792,0.13664,0.13664,0.03904,-0.27816,-0.3416,-0.4636,-0.18544
0.01464,0.1586,-0.33184,-0.33916,-0.34648,0.18056,0.27816,0.2928,-0.2196,-0.35624,-0.488,-0.2196
0.08296,0.0854,-0.25376,-0.29524,-0.33672,0.20984,0.488,0.60024,-0.0244,-0.23912,-0.4148,-0.1708
0.122,0.0122,-0.1464,-0.2074,-0.2684,0.1952,0.5612,0.72224,0.26352,0.00976,-0.22936,-0.0244
0.23912,-0.21716,0.1952,0.07564,-0.04392,0.14152,0.45872,0.68808,0.67832,0.45384,0.15616,0.25376
0.35136,-0.47092,0.59048,0.4148,0.23912,0.05612,0.27816,0.60512,1.04432,0.93208,0.59048,0.58072
0.36112,-0.71248,1.06384,0.88328,0.70272,-0.1708,-0.20496,0.20984,1.28344,1.43472,1.0492,0.94672
0.27816,-0.87352,1.46888,1.3298,1.19072,-0.45628,-0.76128,-0.26352,1.61528,1.88856,1.41032,1.22976
0.1952,-0.90524,1.61528,1.51768,1.42008,-0.61244,-1.08824,-0.65392,1.8544,2.15208,1.54696,1.32248
0.16592,-0.78812,1.41032,1.32736,1.2444,-0.53924,-1.27368,-0.9028,1.70312,2.00568,1.42496,1.21512
0.03416,-0.55632,1.07848,1.0614,1.04432,-0.50508,-1.2444,-1.15168,0.81984,1.20536,0.89792,0.88328
-0.08784,-0.24156,0.57096,0.61488,0.6588,-0.37332,-1.04432,-1.23952,-0.20984,0.19032,0.20496,0.42456
-0.09272,-0.05612,0.20496,0.25132,0.29768,-0.1952,-0.84912,-1.098,-0.59536,-0.25376,-0.18544,0.13664
-0.0732,0.03172,0.00976,0.04636,0.08296,-0.07808,-0.6344,-0.86864,-0.57584,-0.31232,-0.3172,-0.00488
-0.06344,0.061,-0.05856,-0.02684,0.00488,-0.03416,-0.44408,-0.62464,-0.45872,-0.27816,-0.32696,-0.0244
-0.03904,0.06832,-0.0976,-0.07808,-0.05856,0.00976,-0.2684,-0.38552,-0.32208,-0.22448,-0.33672,-0.0488
-0.03904,0.07076,-0.10248,-0.08296,-0.06344,0.0122,-0.16592,-0.23424,-0.18544,-0.15128,-0.30256,-0.04392
-0.02928,0.0488,-0.06832,-0.05368,-0.03904,0.00488,-0.0732,-0.13176,-0.10736,-0.08784,-0.25864,-0.00488
-0.02928,0.03416,-0.03904,-0.0244,-0.00976,-0.00976,-0.00488,-0.05368,-0.09272,-0.07808,-0.244,-0.01952
-0.01952,0.04148,-0.06344,-0.05368,-0.04392,0.0122,0.0244,-0.01952,-0.11224,-0.11224,-0.30256,-0.03416
-0.00976,0.04392,-0.07808,-0.0732,-0.06832,0.02928,0.01952,-0.01464,-0.10248,-0.11224,-0.30256,-0.04392
-0.02928,0.05612,-0.08296,-0.06832,-0.05368,0.0122,0.01952,-0.01464,-0.10248,-0.11712,-0.30744,-0.0488
-0.0244,0.05368,-0.08296,-0.07076,-0.05856,0.01708,0.03416,0.00488,-0.0976,-0.11224,-0.29768,-0.04392
-0.01464,0.05124,-0.08784,-0.08052,-0.0732,0.02928,0.0488,0.0244,-0.0976,-0.122,-0.30744,-0.05368
-0.01952,0.05612,-0.09272,-0.08296,-0.0732,0.02684,0.05368,0.02928,-0.09272,-0.11712,-0.30744,-0.06344
-0.01952,0.05612,-0.09272,-0.08296,-0.0732,0.02684,0.05368,0.02928,-0.08784,-0.11712,-0.30744,-0.06344
-0.03904,0.06832,-0.0976,-0.07808,-0.05856,0.00976,0.05856,0.03904,-0.09272,-0.122,-0.3172,-0.05368
-0.03904,0.07076,-0.10248,-0.08296,-0.06344,0.0122,0.06344,0.0488,-0.09272,-0.12688,-0.31232,-0.05368
-0.02928,0.06344,-0.0976,-0.08296,-0.06832,0.01952,0.06344,0.0488,-0.08296,-0.11712,-0.3172,-0.05368
-0.01952,0.05612,-0.09272,-0.08296,-0.0732,0.02684,0.06344,0.05368,-0.06832,-0.10736,-0.3172,-0.0488
-0.01464,0.0488,-0.08296,-0.07564,-0.06832,0.02684,0.07808,0.06344,-0.06832,-0.10248,-0.29768,-0.04392
-0.00488,0.04392,-0.08296,-0.08052,-0.07808,0.0366,0.08296,0.06832,-0.06832,-0.10248,-0.29768,-0.0488
0.00488,0.04148,-0.08784,-0.09028,-0.09272,0.0488,0.08296,0.08784,-0.05856,-0.0976,-0.30256,-0.04392
0.00976,0.02684,-0.06344,-0.06832,-0.0732,0.04148,0.08784,0.09272,-0.05368,-0.09272,-0.29768,-0.04392
-0.01952,0.04636,-0.0732,-0.06344,-0.05368,0.01708,0.08784,0.08296,-0.06344,-0.0976,-0.30744,-0.05368
-0.01952,0.05368,-0.08784,-0.07808,-0.06832,0.0244,0.09272,0.08784,-0.05856,-0.09272,-0.30256,-0.05368
-0.03416,0.06344,-0.09272,-0.07564,-0.05856,0.0122,0.08296,0.08296,-0.06832,-0.10248,-0.3172,-0.05368
-0.02928,0.06344,-0.0976,-0.08296,-0.06832,0.01952,0.08296,0.09272,-0.05856,-0.10248,-0.3172,-0.0488
-0.01952,0.0488,-0.07808,-0.06832,-0.05856,0.01952,0.09272,0.0976,-0.03904,-0.09272,-0.30256,-0.04392
-0.01952,0.0488,-0.07808,-0.06832,-0.05856,0.01952,0.10248,0.10248,-0.03904,-0.08784,-0.29768,-0.04392
-0.0244,0.05612,-0.08784,-0.07564,-0.06344,0.01952,0.09272,0.10736,-0.03904,-0.09272,-0.30744,-0.04392
-0.0244,0.05368,-0.08296,-0.07076,-0.05856,0.01708,0.0976,0.11712,-0.03416,-0.09272,-0.30744,-0.04392
-0.01464,0.04392,-0.0732,-0.06588,-0.05856,0.02196,0.10248,0.12688,-0.01952,-0.0732,-0.2928,-0.03416
-0.00488,0.03416,-0.06344,-0.061,-0.05856,0.02684,0.11712,0.14152,-0.00976,-0.0732,-0.2928,-0.02928
-0.00976,0.0366,-0.06344,-0.05856,-0.05368,0.02196,0.122,0.1464,-0.01464,-0.06832,-0.30256,-0.02928
-0.00976,0.03904,-0.06832,-0.06344,-0.05856,0.0244,0.11712,0.15616,-0.00488,-0.06832,-0.29768,-0.0244
-0.00488,0.02684,-0.0488,-0.04636,-0.04392,0.01952,0.122,0.16592,0.00976,-0.05368,-0.27328,-0.01952
0.00976,0.01952,-0.0488,-0.05368,-0.05856,0.03416,0.12688,0.17568,0.01952,-0.0488,-0.27816,-0.01464
0.00976,0.01708,-0.04392,-0.0488,-0.05368,0.03172,0.122,0.17568,0.01952,-0.05856,-0.27816,-0.0244
0,0.02196,-0.04392,-0.04392,-0.04392,0.02196,0.122,0.18056,0.01952,-0.0488,-0.27816,-0.01952
0.00488,0.01708,-0.03904,-0.04148,-0.04392,0.0244,0.14152,0.20008,0.03416,-0.04392,-0.2684,-0.01464
0.01952,0.00488,-0.02928,-0.03904,-0.0488,0.03416,0.15128,0.20984,0.04392,-0.03416,-0.26352,-0.00976
0.00976,0.00976,-0.02928,-0.03416,-0.03904,0.0244,0.15128,0.21472,0.03904,-0.0244,-0.26352,-0.00488
0.00488,0.01464,-0.03416,-0.0366,-0.03904,0.02196,0.15616,0.22936,0.05368,-0.01952,-0.25864,-0.00488
0.00488,0.00488,-0.01464,-0.01708,-0.01952,0.0122,0.15616,0.25376,0.06832,-0.00488,-0.25376,0
0.01464,-0.00488,-0.00488,-0.0122,-0.01952,0.01708,0.16104,0.25864,0.07808,0,-0.244,0
0.0244,-0.01464,0.00488,-0.00732,-0.01952,0.02196,0.17568,0.28304,0.08784,0.00976,-0.22936,0.01952
0.03416,-0.0244,0.01464,-0.00244,-0.01952,0.02684,0.18544,0.29768,0.10736,0.0244,-0.2196,0.02928
0.01464,-0.01952,0.0244,0.01708,0.00976,0.00244,0.18544,0.31232,0.12688,0.03416,-0.20496,0.03416
0.02928,-0.03172,0.03416,0.01952,0.00488,0.0122,0.1952,0.32208,0.13664,0.04392,-0.20984,0.03904
0.03904,-0.03416,0.02928,0.00976,-0.00976,0.0244,0.18544,0.33184,0.1464,0.05368,-0.20496,0.03416
0.05368,-0.05368,0.05368,0.02684,0,0.02684,0.1952,0.35624,0.16592,0.06344,-0.18544,0.05856
0.03416,-0.04148,0.0488,0.03172,0.01464,0.00976,0.20008,0.37088,0.18056,0.08784,-0.1708,0.0732
0.03904,-0.05124,0.06344,0.04392,0.0244,0.00732,0.20008,0.40016,0.20496,0.10736,-0.1464,0.08296
0.05368,-0.07076,0.08784,0.061,0.03416,0.00976,0.20984,0.42456,0.22936,0.14152,-0.13664,0.10736
0.06344,-0.08296,0.10248,0.07076,0.03904,0.0122,0.21472,0.43432,0.25376,0.16104,-0.10736,0.11712
0.0732,-0.10004,0.12688,0.09028,0.05368,0.00976,0.2196,0.45384,0.2928,0.18056,-0.07808,0.1464
0.08296,-0.11224,0.14152,0.10004,0.05856,0.0122,0.21472,0.46848,0.30744,0.20496,-0.06344,0.15616
0.09272,-0.13176,0.1708,0.12444,0.07808,0.00732,0.21472,0.47336,0.33672,0.23912,-0.05368,0.16104
0.0976,-0.13908,0.18056,0.13176,0.08296,0.00732,0.20984,0.48312,0.34648,0.25376,-0.03416,0.18056
0.09272,-0.13908,0.18544,0.13908,0.09272,0,0.20496,0.488,0.366,0.27816,-0.01952,0.19032
0.09272,-0.14396,0.1952,0.14884,0.10248,-0.00488,0.1952,0.488,0.38552,0.2928,-0.00488,0.20008
0.122,-0.17324,0.22448,0.16348,0.10248,0.00976,0.18544,0.49776,0.3904,0.30256,0.0244,0.20984
0.122,-0.17568,0.22936,0.16836,0.10736,0.00732,0.18056,0.49288,0.40016,0.32696,0.03904,0.22448
0.13176,-0.19032,0.24888,0.183,0.11712,0.00732,0.17568,0.488,0.4148,0.33672,0.05856,0.23424
0.13664,-0.20252,0.2684,0.20008,0.13176,0.00244,0.1708,0.488,0.41968,0.35136,0.06344,0.244
0.12688,-0.18788,0.24888,0.18544,0.122,0.00244,0.15616,0.47824,0.42944,0.34648,0.0732,0.24888
0.122,-0.18544,0.24888,0.18788,0.12688,-0.00244,0.13176,0.4636,0.42456,0.34648,0.06832,0.25376
0.10736,-0.17324,0.23912,0.18544,0.13176,-0.0122,0.11712,0.43432,0.42456,0.34648,0.05856,0.24888
0.10248,-0.16836,0.23424,0.183,0.13176,-0.01464,0.10736,0.4148,0.4148,0.33672,0.0488,0.23912
0.10736,-0.17324,0.23912,0.18544,0.13176,-0.0122,0.11224,0.38552,0.3904,0.32696,0.04392,0.23912
0.11712,-0.17568,0.23424,0.17568,0.11712,0,0.10248,0.35624,0.37088,0.31232,0.01464,0.22936
0.10248,-0.15128,0.20008,0.14884,0.0976,0.00244,0.10248,0.32696,0.32696,0.28304,-0.00976,0.1952
0.0732,-0.12444,0.17568,0.13908,0.10248,-0.01464,0.09272,0.28304,0.2928,0.24888,-0.04392,0.16592
0.06344,-0.11224,0.16104,0.12932,0.0976,-0.01708,0.07808,0.244,0.26352,0.20496,-0.07808,0.16104
0.03904,-0.0854,0.13176,0.11224,0.09272,-0.02684,0.06832,0.20984,0.21472,0.16104,-0.11224,0.12688
0.04392,-0.07564,0.10736,0.0854,0.06344,-0.00976,0.05856,0.16104,0.16592,0.122,-0.14152,0.09272
0.03904,-0.05856,0.07808,0.05856,0.03904,0,0.0488,0.13176,0.13176,0.09272,-0.1708,0.06832
0.01952,-0.03172,0.04392,0.03416,0.0244,-0.00244,0.05368,0.09272,0.0976,0.06344,-0.19032,0.06344
0.00488,-0.01708,0.02928,0.02684,0.0244,-0.00976,0.0488,0.06344,0.06832,0.03904,-0.21472,0.04392
0,0,0,0,0,0,0.02928,0.0244,0.01952,0,-0.244,0.01952
0,0.00976,-0.01952,-0.01952,-0.01952,0.00976,0.00976,0.00488,-0.01464,-0.03416,-0.26352,-0.00976
-0.00976,0.0122,-0.01464,-0.00976,-0.00488,-0.00244,0.00976,-0.01464,-0.0244,-0.03904,-0.27816,-0.01464
-0.01464,0.02196,-0.02928,-0.02196,-0.01464,0,0,-0.02928,-0.03416,-0.05856,-0.28304,-0.01464
-0.00976,0.01708,-0.0244,-0.01952,-0.01464,0.00244,0.00488,-0.03904,-0.05856,-0.05856,-0.28792,-0.01464
-0.01464,0.02684,-0.03904,-0.03172,-0.0244,0.00488,0,-0.04392,-0.06832,-0.07808,-0.28792,-0.0244
-0.00976,0.02684,-0.04392,-0.03904,-0.03416,0.0122,0.00488,-0.05856,-0.07808,-0.08296,-0.28792,-0.03904
-0.01464,0.03172,-0.0488,-0.04148,-0.03416,0.00976,-0.00976,-0.0732,-0.08296,-0.08296,-0.2928,-0.03904
-0.02928,0.04392,-0.05856,-0.04392,-0.02928,0,-0.01464,-0.06832,-0.0976,-0.09272,-0.30256,-0.0488
-0.02928,0.04392,-0.05856,-0.04392,-0.02928,0,-0.01464,-0.06832,-0.0976,-0.0976,-0.30744,-0.0488
-0.02928,0.04148,-0.05368,-0.03904,-0.0244,-0.00244,-0.00976,-0.07808,-0.0976,-0.09272,-0.30256,-0.04392
-0.02928,0.04148,-0.05368,-0.03904,-0.0244,-0.00244,-0.00976,-0.07808,-0.09272,-0.08784,-0.28792,-0.04392
-0.01952,0.0366,-0.05368,-0.04392,-0.03416,0.00732,-0.01952,-0.07808,-0.09272,-0.09272,-0.28304,-0.03416
-0.01464,0.02684,-0.03904,-0.03172,-0.0244,0.00488,-0.01952,-0.07808,-0.09272,-0.0976,-0.28792,-0.03416
-0.03416,0.0488,-0.06344,-0.04636,-0.02928,-0.00244,-0.01952,-0.07808,-0.0976,-0.0976,-0.28792,-0.0488
-0.03416,0.04636,-0.05856,-0.04148,-0.0244,-0.00488,-0.0244,-0.07808,-0.0976,-0.0976,-0.28792,-0.04392
-0.02928,0.04392,-0.05856,-0.04392,-0.02928,0,-0.01952,-0.0732,-0.0976,-0.10736,-0.28792,-0.04392
-0.0244,0.04636,-0.06832,-0.05612,-0.04392,0.00976,-0.01952,-0.06832,-0.0976,-0.10248,-0.27328,-0.04392
-0.02928,0.0488,-0.06832,-0.05368,-0.03904,0.00488,-0.01464,-0.05856,-0.09272,-0.09272,-0.25864,-0.03416
-0.02928,0.04392,-0.05856,-0.04392,-0.02928,0,-0.01464,-0.05368,-0.09272,-0.0976,-0.25864,-0.02928
-0.01952,0.03904,-0.05856,-0.0488,-0.03904,0.00976,-0.00976,-0.06344,-0.08784,-0.09272,-0.244,-0.03904
-0.0244,0.04392,-0.06344,-0.05124,-0.03904,0.00732,-0.00976,-0.06344,-0.08784,-0.09272,-0.244,-0.04392
-0.02928,0.03904,-0.0488,-0.03416,-0.01952,-0.00488,0.00488,-0.0488,-0.09272,-0.09272,-0.244,-0.04392
-0.02928,0.03904,-0.0488,-0.03416,-0.01952,-0.00488,0.00488,-0.04392,-0.08784,-0.09272,-0.244,-0.04392
-0.02928,0.04392,-0.05856,-0.04392,-0.02928,0,-0.00488,-0.05368,-0.0976,-0.10248,-0.244,-0.04392
-0.02928,0.04636,-0.06344,-0.0488,-0.03416,0.00244,-0.00488,-0.05368,-0.0976,-0.10248,-0.22448,-0.04392
-0.01952,0.04148,-0.06344,-0.05368,-0.04392,0.0122,0.00976,-0.0488,-0.0976,-0.08784,-0.2196,-0.04392
-0.01464,0.03904,-0.06344,-0.05612,-0.0488,0.01708,0.00976,-0.03904,-0.09272,-0.08784,-0.2196,-0.03904
-0.00488,0.02928,-0.05368,-0.05124,-0.0488,0.02196,0.00976,-0.03904,-0.08296,-0.08784,-0.20984,-0.03904
-0.00976,0.03172,-0.05368,-0.0488,-0.04392,0.01708,0.00976,-0.03904,-0.08296,-0.08784,-0.20496,-0.03904
-0.01464,0.03416,-0.05368,-0.04636,-0.03904,0.0122,0.00976,-0.0488,-0.08784,-0.0976,-0.20984,-0.0488
-0.02928,0.0488,-0.06832,-0.05368,-0.03904,0.00488,0.00976,-0.04392,-0.08784,-0.09272,-0.20496,-0.05368
-0.03904,0.0488,-0.05856,-0.03904,-0.01952,-0.00976,0.01464,-0.04392,-0.08296,-0.09272,-0.1952,-0.0488
-0.03416,0.04392,-0.05368,-0.0366,-0.01952,-0.00732,0.01464,-0.04392,-0.08296,-0.0976,-0.19032,-0.0488
-0.02928,0.04148,-0.05368,-0.03904,-0.0244,-0.00244,0.00488,-0.03416,-0.08784,-0.08296,-0.18544,-0.03904
-0.0244,0.03904,-0.05368,-0.04148,-0.02928,0.00244,0.00488,-0.03416,-0.08784,-0.07808,-0.17568,-0.03416
-0.0244,0.0366,-0.0488,-0.0366,-0.0244,0,0,-0.04392,-0.08784,-0.08296,-0.1708,-0.02928
-0.02928,0.04148,-0.05368,-0.03904,-0.0244,-0.00244,0,-0.04392,-0.08784,-0.09272,-0.1708,-0.03416
-0.00976,0.02684,-0.04392,-0.03904,-0.03416,0.0122,0.00976,-0.03416,-0.0732,-0.09272,-0.15616,-0.03416
-0.01952,0.0366,-0.05368,-0.04392,-0.03416,0.00732,0.00488,-0.03904,-0.07808,-0.08784,-0.1464,-0.03904
-0.01464,0.03416,-0.05368,-0.04636,-0.03904,0.0122,-0.00488,-0.04392,-0.08784,-0.08296,-0.13664,-0.03904
-0.01952,0.0366,-0.05368,-0.04392,-0.03416,0.00732,-0.00976,-0.04392,-0.08784,-0.09272,-0.1464,-0.03904
-0.0244,0.03416,-0.04392,-0.03172,-0.01952,-0.00244,0.00488,-0.03904,-0.08296,-0.07808,-0.12688,-0.03904
-0.0244,0.0366,-0.0488,-0.0366,-0.0244,0,0,-0.03904,-0.08296,-0.07808,-0.122,-0.03904
-0.03416,0.04392,-0.05368,-0.0366,-0.01952,-0.00732,-0.00488,-0.04392,-0.08784,-0.07808,-0.11712,-0.03904
-0.03416,0.04392,-0.05368,-0.0366,-0.01952,-0.00732,-0.00488,-0.0488,-0.09272,-0.08296,-0.122,-0.04392
-0.01464,0.02928,-0.04392,-0.0366,-0.02928,0.00732,0.00488,-0.04392,-0.08296,-0.08296,-0.11712,-0.03904
-0.00976,0.0244,-0.03904,-0.03416,-0.02928,0.00976,0,-0.0488,-0.08784,-0.08296,-0.10248,-0.03904
-0.00976,0.0244,-0.03904,-0.03416,-0.02928,0.00976,0.00488,-0.05368,-0.0976,-0.08296,-0.10248,-0.03904
-0.01952,0.02684,-0.03416,-0.0244,-0.01464,-0.00244,0,-0.05368,-0.0976,-0.08784,-0.10248,-0.03416
-0.02928,0.0366,-0.04392,-0.02928,-0.01464,-0.00732,-0.00488,-0.05856,-0.10248,-0.08784,-0.09272,-0.0488
-0.02928,0.0488,-0.06832,-0.05368,-0.03904,0.00488,-0.01952,-0.06832,-0.10248,-0.09272,-0.09272,-0.05368
-0.0244,0.04392,-0.06344,-0.05124,-0.03904,0.00732,-0.00976,-0.06344,-0.0976,-0.08296,-0.08784,-0.03416
-0.01952,0.0366,-0.05368,-0.04392,-0.03416,0.00732,-0.00976,-0.06344,-0.0976,-0.08296,-0.07808,-0.03904
-0.01952,0.03904,-0.05856,-0.0488,-0.03904,0.00976,-0.00976,-0.06832,-0.10248,-0.0976,-0.07808,-0.0488
-0.01464,0.03416,-0.05368,-0.04636,-0.03904,0.0122,-0.01464,-0.06832,-0.10248,-0.0976,-0.06832,-0.0488
-0.0244,0.03904,-0.05368,-0.04148,-0.02928,0.00244,-0.01464,-0.07808,-0.10248,-0.0976,-0.05368,-0.0488
-0.03416,0.05124,-0.06832,-0.05124,-0.03416,0,-0.01464,-0.08784,-0.11224,-0.0976,-0.05368,-0.05368
-0.03904,0.05124,-0.06344,-0.04392,-0.0244,-0.00732,-0.01952,-0.07808,-0.10736,-0.0976,-0.04392,-0.0488
-0.02928,0.0488,-0.06832,-0.05368,-0.03904,0.00488,-0.0244,-0.08296,-0.10736,-0.10736,-0.04392,-0.0488
-0.02928,0.0488,-0.06832,-0.05368,-0.03904,0.00488,-0.0244,-0.09272,-0.11712,-0.10736,-0.03416,-0.05856
-0.0244,0.04148,-0.05856,-0.04636,-0.03416,0.00488,-0.0244,-0.09272,-0.11712,-0.10736,-0.03416,-0.05368
-0.01464,0.04148,-0.06832,-0.061,-0.05368,0.01952,-0.01464,-0.08296,-0.11712,-0.0976,-0.03416,-0.05368
-0.0244,0.04392,-0.06344,-0.05124,-0.03904,0.00732,-0.01464,-0.08296,-0.11712,-0.10248,-0.01952,-0.05368
-0.01464,0.04392,-0.0732,-0.06588,-0.05856,0.02196,-0.0244,-0.08296,-0.12688,-0.10736,-0.00488,-0.05368
-0.01952,0.04636,-0.0732,-0.06344,-0.05368,0.01708,-0.02928,-0.09272,-0.12688,-0.10736,-0.00976,-0.0488
-0.01464,0.0366,-0.05856,-0.05124,-0.04392,0.01464,-0.02928,-0.08784,-0.12688,-0.11224,-0.01464,-0.05368
-0.01464,0.03904,-0.06344,-0.05612,-0.0488,0.01708,-0.0244,-0.08784,-0.12688,-0.11224,-0.00976,-0.05368
-0.01464,0.03416,-0.05368,-0.04636,-0.03904,0.0122,-0.02928,-0.08784,-0.11712,-0.11224,-0.00488,-0.05368
-0.01464,0.03172,-0.0488,-0.04148,-0.03416,0.00976,-0.0244,-0.08784,-0.122,-0.11224,0.00488,-0.06344
-0.0244,0.04148,-0.05856,-0.04636,-0.03416,0.00488,-0.03416,-0.08784,-0.122,-0.10736,0.01952,-0.05368
-0.03416,0.05612,-0.07808,-0.061,-0.04392,0.00488,-0.03416,-0.08784,-0.12688,-0.10736,0.01952,-0.05368
-0.02928,0.05368,-0.07808,-0.06344,-0.0488,0.00976,-0.0244,-0.08784,-0.11712,-0.11224,0.02928,-0.0488
-0.02928,0.05368,-0.07808,-0.06344,-0.0488,0.00976,-0.02928,-0.08784,-0.11224,-0.11224,0.02928,-0.05856
-0.03904,0.05856,-0.07808,-0.05856,-0.03904,0,-0.02928,-0.0976,-0.122,-0.11712,0.01952,-0.0732
-0.03416,0.05368,-0.0732,-0.05612,-0.03904,0.00244,-0.02928,-0.0976,-0.13176,-0.11712,0.01952,-0.0732
-0.02928,0.05124,-0.0732,-0.05856,-0.04392,0.00732,-0.01952,-0.09272,-0.13664,-0.11712,0.03416,-0.06344
-0.03904,0.061,-0.08296,-0.06344,-0.04392,0.00244,-0.01952,-0.0976,-0.13664,-0.11712,0.03416,-0.06832
-0.03904,0.06344,-0.08784,-0.06832,-0.0488,0.00488,-0.02928,-0.09272,-0.12688,-0.11712,0.04392,-0.05856
-0.03416,0.05856,-0.08296,-0.06588,-0.0488,0.00732,-0.02928,-0.09272,-0.12688,-0.11712,0.0488,-0.05368
-0.0244,0.05124,-0.07808,-0.06588,-0.05368,0.01464,-0.02928,-0.09272,-0.12688,-0.10248,0.05856,-0.05368
-0.0244,0.05124,-0.07808,-0.06588,-0.05368,0.01464,-0.02928,-0.09272,-0.12688,-0.10248,0.05856,-0.05368
-0.0244,0.05124,-0.07808,-0.06588,-0.05368,0.01464,-0.02928,-0.09272,-0.12688,-0.11712,0.05856,-0.05856
-0.01952,0.0488,-0.07808,-0.06832,-0.05856,0.01952,-0.02928,-0.09272,-0.12688,-0.11712,0.06344,-0.05856
-0.02928,0.05124,-0.0732,-0.05856,-0.04392,0.00732,-0.01952,-0.0976,-0.12688,-0.11224,0.0732,-0.05856
-0.02928,0.05124,-0.0732,-0.05856,-0.04392,0.00732,-0.01952,-0.0976,-0.12688,-0.10736,0.07808,-0.06344
-0.02928,0.05368,-0.07808,-0.06344,-0.0488,0.00976,-0.0244,-0.10736,-0.13664,-0.11712,0.07808,-0.06832
-0.0244,0.05368,-0.08296,-0.07076,-0.05856,0.01708,-0.03416,-0.10736,-0.14152,-0.11712,0.07808,-0.06344
-0.02928,0.0488,-0.06832,-0.05368,-0.03904,0.00488,-0.03904,-0.10248,-0.13664,-0.122,0.08296,-0.05856
-0.01952,0.03904,-0.05856,-0.0488,-0.03904,0.00976,-0.0244,-0.09272,-0.12688,-0.122,0.08784,-0.05368
-0.01952,0.03904,-0.05856,-0.0488,-0.03904,0.00976,-0.01952,-0.0976,-0.122,-0.11224,0.09272,-0.05368
-0.01952,0.04392,-0.06832,-0.05856,-0.0488,0.01464,-0.0244,-0.0976,-0.122,-0.11224,0.10248,-0.06832
-0.02928,0.05124,-0.0732,-0.05856,-0.04392,0.00732,-0.02928,-0.10736,-0.12688,-0.122,0.0976,-0.06832
-0.0244,0.05124,-0.07808,-0.06588,-0.05368,0.01464,-0.02928,-0.10736,-0.13664,-0.122,0.09272,-0.06832
-0.03904,0.061,-0.08296,-0.06344,-0.04392,0.00244,-0.03904,-0.0976,-0.13664,-0.12688,0.10248,-0.07808
-0.03416,0.05856,-0.08296,-0.06588,-0.0488,0.00732,-0.04392,-0.10248,-0.13664,-0.122,0.10248,-0.0732
-0.04392,0.07076,-0.0976,-0.07564,-0.05368,0.00488,-0.02928,-0.10248,-0.1464,-0.11712,0.11712,-0.0732
-0.04392,0.06832,-0.09272,-0.07076,-0.0488,0.00244,-0.03416,-0.10248,-0.1464,-0.11712,0.11712,-0.0732
-0.0244,0.05124,-0.07808,-0.06588,-0.05368,0.01464,-0.02928,-0.09272,-0.12688,-0.11712,0.11712,-0.05368
-0.00976,0.03904,-0.06832,-0.06344,-0.05856,0.0244,-0.01952,-0.0976,-0.12688,-0.11712,0.12688,-0.05856
-0.01952,0.05368,-0.08784,-0.07808,-0.06832,0.0244,-0.02928,-0.0976,-0.13664,-0.10736,0.12688,-0.06832
-0.02928,0.06344,-0.0976,-0.08296,-0.06832,0.01952,-0.02928,-0.0976,-0.13664,-0.10736,0.12688,-0.06832
-0.03904,0.06344,-0.08784,-0.06832,-0.0488,0.00488,-0.03904,-0.10736,-0.13664,-0.11712,0.13664,-0.06832
-0.03904,0.06344,-0.08784,-0.06832,-0.0488,0.00488,-0.03904,-0.10736,-0.13664,-0.11712,0.13664,-0.06832
-0.02928,0.05368,-0.07808,-0.06344,-0.0488,0.00976,-0.03904,-0.11712,-0.1464,-0.11712,0.13664,-0.06832
-0.02928,0.0488,-0.06832,-0.05368,-0.03904,0.00488,-0.03904,-0.11712,-0.1464,-0.11712,0.13664,-0.06832
-0.02928,0.04392,-0.05856,-0.04392,-0.02928,0,-0.02928,-0.10736,-0.13664,-0.11712,0.1464,-0.05856
-0.02928,0.04148,-0.05368,-0.03904,-0.0244,-0.00244,-0.0244,-0.09272,-0.122,-0.11712,0.1464,-0.05368
-0.01464,0.0244,-0.03416,-0.02684,-0.01952,0.00244,-0.00488,-0.06832,-0.11224,-0.09272,0.16592,-0.05856
-0.01464,0.01708,-0.01952,-0.0122,-0.00488,-0.00488,0.01464,-0.06344,-0.10248,-0.08296,0.16592,-0.05368
-0.0244,0.02684,-0.02928,-0.01708,-0.00488,-0.00976,0.00976,-0.0732,-0.10248,-0.08296,0.1708,-0.04392
-0.03416,0.02928,-0.0244,-0.00732,0.00976,-0.02196,0.00488,-0.0732,-0.10248,-0.08784,0.1708,-0.04392
-0.02928,0.02196,-0.01464,0,0.01464,-0.02196,0.00488,-0.0732,-0.11224,-0.08784,0.17568,-0.05368
-0.02928,0.02196,-0.01464,0,0.01464,-0.02196,0.00488,-0.0732,-0.11712,-0.08296,0.17568,-0.06344
-0.01464,0.01464,-0.01464,-0.00732,0,-0.00732,0.01464,-0.06344,-0.10248,-0.09272,0.18544,-0.0488
-0.00976,0.00976,-0.00976,-0.00488,0,-0.00488,0.01952,-0.05856,-0.0976,-0.08784,0.19032,-0.04392
0,0.00488,-0.00976,-0.00976,-0.00976,0.00488,0.00488,-0.05368,-0.08784,-0.06832,0.20008,-0.0488
0.01464,-0.00976,0.00488,-0.00244,-0.00976,0.0122,-0.01952,-0.0488,-0.08296,-0.06344,0.20984,-0.03904
0.01464,-0.00976,0.00488,-0.00244,-0.00976,0.0122,-0.02928,-0.06832,-0.08296,-0.06344,0.20496,-0.02928
0.00488,-0.00488,0.00488,0.00244,0,0.00244,-0.04392,-0.08784,-0.10248,-0.06832,0.20008,-0.03416
-0.00488,0.0122,-0.01952,-0.01708,-0.01464,0.00488,-0.06832,-0.122,-0.12688,-0.0976,0.19032,-0.04392
0,0.00976,-0.01952,-0.01952,-0.01952,0.00976,-0.06832,-0.122,-0.12688,-0.10248,0.19032,-0.03904
0.00976,-0.00244,-0.00488,-0.00976,-0.01464,0.0122,-0.04392,-0.10736,-0.122,-0.10248,0.20496,-0.03416
0.00976,-0.00244,-0.00488,-0.00976,-0.01464,0.0122,-0.02928,-0.09272,-0.10736,-0.08784,0.22448,-0.02928
0,0.00488,-0.00976,-0.00976,-0.00976,0.00488,-0.0244,-0.0732,-0.0976,-0.06832,0.22448,-0.02928
-0.01464,0.01952,-0.0244,-0.01708,-0.00976,-0.00244,-0.01952,-0.06832,-0.0976,-0.05856,0.22448,-0.0244
0.00488,0.0122,-0.02928,-0.03172,-0.03416,0.01952,-0.01952,-0.07808,-0.11224,-0.08296,0.2196,-0.02928
-0.00976,0.03416,-0.05856,-0.05368,-0.0488,0.01952,-0.0244,-0.08784,-0.13176,-0.10736,0.20008,-0.05368
-0.03416,0.05856,-0.08296,-0.06588,-0.0488,0.00732,-0.03904,-0.0976,-0.1464,-0.11712,0.17568,-0.06832
-0.0488,0.0732,-0.0976,-0.0732,-0.0488,0,-0.04392,-0.11224,-0.15128,-0.13664,0.1708,-0.07808
-0.0488,0.07808,-0.10736,-0.08296,-0.05856,0.00488,-0.0488,-0.122,-0.16104,-0.15128,0.15128,-0.08784
-0.0488,0.07808,-0.10736,-0.08296,-0.05856,0.00488,-0.05368,-0.14152,-0.17568,-0.15616,0.1464,-0.08784
-0.04392,0.07808,-0.11224,-0.09028,-0.06832,0.0122,-0.05368,-0.13176,-0.17568,-0.15616,0.15616,-0.08784
-0.04392,0.07808,-0.11224,-0.09028,-0.06832,0.0122,-0.0488,-0.12688,-0.1708,-0.15616,0.15616,-0.08784
-0.03416,0.07564,-0.11712,-0.10004,-0.08296,0.0244,-0.0488,-0.12688,-0.16104,-0.15128,0.1464,-0.09272
-0.02928,0.06832,-0.10736,-0.09272,-0.07808,0.0244,-0.0488,-0.13176,-0.16592,-0.15128,0.14152,-0.09272
-0.02928,0.07076,-0.11224,-0.0976,-0.08296,0.02684,-0.03904,-0.122,-0.16592,-0.15128,0.15128,-0.0976
-0.0244,0.06832,-0.11224,-0.10004,-0.08784,0.03172,-0.03904,-0.11712,-0.16592,-0.15128,0.15616,-0.09272
-0.03904,0.08052,-0.122,-0.10248,-0.08296,0.02196,-0.0488,-0.12688,-0.17568,-0.15128,0.15616,-0.10248
-0.03904,0.08052,-0.122,-0.10248,-0.08296,0.02196,-0.0488,-0.1464,-0.1708,-0.15128,0.15616,-0.10248
-0.03416,0.06832,-0.10248,-0.0854,-0.06832,0.01708,-0.04392,-0.12688,-0.1708,-0.15616,0.16104,-0.09272
-0.04392,0.0854,-0.12688,-0.10492,-0.08296,0.01952,-0.0488,-0.11712,-0.17568,-0.16104,0.15616,-0.09272
-0.0488,0.08296,-0.11712,-0.09272,-0.06832,0.00976,-0.03416,-0.122,-0.1708,-0.15128,0.15616,-0.09272
-0.0488,0.08784,-0.12688,-0.10248,-0.07808,0.01464,-0.03416,-0.122,-0.1708,-0.15128,0.16104,-0.09272
-0.03416,0.06832,-0.10248,-0.0854,-0.06832,0.01708,-0.02928,-0.122,-0.1708,-0.14152,0.15616,-0.08296
-0.03416,0.07076,-0.10736,-0.09028,-0.0732,0.01952,-0.03416,-0.122,-0.1708,-0.14152,0.16104,-0.08296
-0.0244,0.05856,-0.09272,-0.08052,-0.06832,0.02196,-0.0244,-0.0976,-0.15128,-0.14152,0.1708,-0.08784
-0.04392,0.0976,-0.15128,-0.12932,-0.10736,0.03172,-0.03416,-0.10736,-0.19032,-0.18056,0.13664,-0.10736
-0.00488,0.10736,-0.20984,-0.2074,-0.20496,0.10004,0.03904,-0.03904,-0.244,-0.25864,0.06832,-0.15128
-0.01464,0.1586,-0.30256,-0.29524,-0.28792,0.13664,0.15128,0.10248,-0.27816,-0.36112,-0.00976,-0.22936
0.02928,0.14152,-0.31232,-0.32696,-0.3416,0.18544,0.29768,0.37088,-0.16104,-0.33184,0,-0.22448
0.10248,0.061,-0.22448,-0.27572,-0.32696,0.21472,0.52216,0.67832,0.07808,-0.1708,0.11712,-0.13664
0.13664,-0.0488,-0.03904,-0.10736,-0.17568,0.15616,0.52216,0.75152,0.41968,0.16592,0.38064,0.05856
0.26352,-0.30256,0.3416,0.20984,0.07808,0.09272,0.42456,0.65392,0.8296,0.64416,0.7808,0.34648
0.3416,-0.54168,0.74176,0.57096,0.40016,-0.02928,0.18056,0.43432,1.10776,1.11264,1.20048,0.6832
0.32696,-0.78324,1.23952,1.07604,0.91256,-0.2928,-0.33672,-0.0488,1.38592,1.6348,1.66408,1.0248
0.18056,-0.84668,1.5128,1.42252,1.33224,-0.57584,-0.83936,-0.5124,1.66896,2.03496,1.92272,1.20536
0.11712,-0.83692,1.55672,1.49816,1.4396,-0.66124,-1.11752,-0.86376,1.79584,2.2204,1.98616,1.22
0.10248,-0.6954,1.28832,1.23708,1.18584,-0.54168,-1.21512,-1.05896,1.4396,1.84952,1.70312,1.03456
-0.03416,-0.427,0.88816,0.90524,0.92232,-0.47824,-1.11752,-1.27856,0.38552,0.84424,1.0736,0.64904
-0.13176,-0.13176,0.39528,0.46116,0.52704,-0.3294,-0.94672,-1.2444,-0.44408,-0.0732,0.43432,0.23424
-0.10248,-0.00488,0.11224,0.16348,0.21472,-0.1586,-0.76128,-1.04432,-0.64904,-0.32208,0.17568,0.0244
-0.08784,0.05856,-0.02928,0.01464,0.05856,-0.0732,-0.57584,-0.81008,-0.56608,-0.32208,0.10248,-0.05856
-0.0732,0.08784,-0.10248,-0.06588,-0.02928,-0.02196,-0.38552,-0.57096,-0.44896,-0.27816,0.10736,-0.06832
-0.01464,0.05612,-0.0976,-0.09028,-0.08296,0.03416,-0.23424,-0.35136,-0.30256,-0.20984,0.122,-0.07808
-0.03904,0.07564,-0.11224,-0.09272,-0.0732,0.01708,-0.17568,-0.21472,-0.1708,-0.13664,0.16592,-0.06832
-0.03904,0.04392,-0.0488,-0.02928,-0.00976,-0.01464,-0.08296,-0.122,-0.11224,-0.07808,0.20496,-0.0488
-0.03904,0.0366,-0.03416,-0.01464,0.00488,-0.02196,-0.01464,-0.05368,-0.10248,-0.07808,0.20008,-0.0488
0.00976,0.0122,-0.03416,-0.03904,-0.04392,0.02684,0.02928,-0.00488,-0.0976,-0.09272,0.18544,-0.05856
0,0.02928,-0.05856,-0.05856,-0.05856,0.02928,0.02928,-0.00488,-0.09272,-0.10736,0.1708,-0.06832
-0.02928,0.05124,-0.0732,-0.05856,-0.04392,0.00732,0.02928,0,-0.08784,-0.10248,0.1708,-0.06344
-0.02928,0.05124,-0.0732,-0.05856,-0.04392,0.00732,0.03904,0.00976,-0.0976,-0.10248,0.1708,-0.0732
-0.03416,0.05856,-0.08296,-0.06588,-0.0488,0.00732,0.04392,0.0244,-0.0976,-0.11224,0.16104,-0.0732
-0.01952,0.05612,-0.09272,-0.08296,-0.0732,0.02684,0.04392,0.02928,-0.08296,-0.0976,0.15128,-0.06344
-0.01952,0.05368,-0.08784,-0.07808,-0.06832,0.0244,0.04392,0.02928,-0.0732,-0.0976,0.15128,-0.06344
-0.01952,0.0488,-0.07808,-0.06832,-0.05856,0.01952,0.0488,0.03416,-0.08296,-0.09272,0.16592,-0.06344
-0.01952,0.04636,-0.0732,-0.06344,-0.05368,0.01708,0.05368,0.03904,-0.08296,-0.0976,0.16104,-0.06344
-0.0244,0.05368,-0.08296,-0.07076,-0.05856,0.01708,0.05368,0.05368,-0.08296,-0.0976,0.14152,-0.0732
-0.0244,0.061,-0.0976,-0.0854,-0.0732,0.0244,0.05856,0.05368,-0.07808,-0.10736,0.14152,-0.07808
-0.00488,0.03416,-0.06344,-0.061,-0.05856,0.02684,0.06344,0.05856,-0.06832,-0.09272,0.15128,-0.06344
-0.01464,0.04392,-0.0732,-0.06588,-0.05856,0.02196,0.06344,0.06344,-0.06832,-0.08784,0.1464,-0.06832
0,0.02928,-0.05856,-0.05856,-0.05856,0.02928,0.07808,0.08296,-0.05856,-0.08296,0.13664,-0.0732
-0.01464,0.03904,-0.06344,-0.05612,-0.0488,0.01708,0.08784,0.08296,-0.05368,-0.07808,0.14152,-0.0732
-0.01464,0.04148,-0.06832,-0.061,-0.05368,0.01952,0.07808,0.0732,-0.05368,-0.0732,0.1464,-0.06344
-0.0244,0.0488,-0.0732,-0.061,-0.0488,0.0122,0.0732,0.07808,-0.0488,-0.0732,0.14152,-0.05368
-0.00976,0.04392,-0.07808,-0.0732,-0.06832,0.02928,0.0732,0.08296,-0.0488,-0.08296,0.13176,-0.05856
-0.00976,0.03904,-0.06832,-0.06344,-0.05856,0.0244,0.0732,0.09272,-0.03904,-0.08296,0.13664,-0.05856
-0.01952,0.04392,-0.06832,-0.05856,-0.0488,0.01464,0.07808,0.0976,-0.02928,-0.06832,0.13664,-0.05368
-0.01952,0.04392,-0.06832,-0.05856,-0.0488,0.01464,0.08296,0.10736,-0.02928,-0.06344,0.14152,-0.05368
-0.01464,0.03904,-0.06344,-0.05612,-0.0488,0.01708,0.08784,0.11224,-0.02928,-0.06344,0.13176,-0.06344
-0.01464,0.0366,-0.05856,-0.05124,-0.04392,0.01464,0.08784,0.11712,-0.01952,-0.05368,0.13176,-0.06344
-0.01952,0.03416,-0.0488,-0.03904,-0.02928,0.00488,0.0976,0.13176,-0.01952,-0.05368,0.12688,-0.05856
-0.01952,0.03416,-0.0488,-0.03904,-0.02928,0.00488,0.10248,0.13664,-0.00976,-0.0488,0.12688,-0.05856
-0.00976,0.02684,-0.04392,-0.03904,-0.03416,0.0122,0.0976,0.14152,0,-0.05856,0.11712,-0.05368
-0.00976,0.02928,-0.0488,-0.04392,-0.03904,0.01464,0.10248,0.14152,0.00976,-0.0488,0.13176,-0.05368
0,0.01952,-0.03904,-0.03904,-0.03904,0.01952,0.10248,0.15616,0.01464,-0.02928,0.13664,-0.0488
0.00488,0.01464,-0.03416,-0.0366,-0.03904,0.02196,0.11224,0.16592,0.0244,-0.02928,0.13176,-0.04392
-0.00488,0.01952,-0.03416,-0.03172,-0.02928,0.0122,0.122,0.17568,0.02928,-0.02928,0.1464,-0.02928
-0.00488,0.01952,-0.03416,-0.03172,-0.02928,0.0122,0.12688,0.18544,0.03904,-0.01464,0.15616,-0.0244
0,0.01952,-0.03904,-0.03904,-0.03904,0.01952,0.122,0.1952,0.0488,-0.00976,0.15128,-0.00976
0.00976,0.00732,-0.0244,-0.02928,-0.03416,0.02196,0.13176,0.20496,0.05856,0,0.1464,-0.00976
0.00488,0.00244,-0.00976,-0.0122,-0.01464,0.00976,0.122,0.20984,0.05856,-0.00488,0.13664,-0.01464
0.00976,-0.00488,0,-0.00488,-0.00976,0.00976,0.12688,0.22936,0.07808,0.00488,0.15128,-0.0244
0.00976,0,-0.00976,-0.01464,-0.01952,0.01464,0.13176,0.24888,0.09272,0.01464,0.15128,-0.01952
0.01464,-0.00244,-0.00976,-0.01708,-0.0244,0.01952,0.13664,0.25864,0.10248,0.0244,0.15616,-0.00976
0.0244,-0.01952,0.01464,0.00244,-0.00976,0.01708,0.15128,0.28304,0.11712,0.04392,0.16592,0.01464
0.0244,-0.0244,0.0244,0.0122,0,0.0122,0.15616,0.29768,0.13664,0.05856,0.18056,0.01952
0.0244,-0.02196,0.01952,0.00732,-0.00488,0.01464,0.16592,0.31232,0.15128,0.06832,0.18544,0.01952
0.02928,-0.02684,0.0244,0.00976,-0.00488,0.01708,0.16592,0.32208,0.16104,0.07808,0.19032,0.01952
0.01952,-0.0244,0.02928,0.01952,0.00976,0.00488,0.17568,0.34648,0.18544,0.10248,0.20008,0.0244
0.0244,-0.03416,0.04392,0.03172,0.01952,0.00244,0.17568,0.35624,0.20496,0.11712,0.20496,0.03904
0.03904,-0.05368,0.06832,0.0488,0.02928,0.00488,0.18056,0.366,0.20984,0.13664,0.20984,0.05856
0.05856,-0.07808,0.0976,0.06832,0.03904,0.00976,0.18056,0.38552,0.23424,0.16104,0.22936,0.06832
0.05368,-0.0732,0.09272,0.06588,0.03904,0.00732,0.18056,0.40992,0.2684,0.18056,0.23912,0.08296
0.05368,-0.08296,0.11224,0.0854,0.05856,-0.00244,0.19032,0.41968,0.28304,0.20008,0.24888,0.10248
0.06344,-0.09272,0.122,0.09028,0.05856,0.00244,0.17568,0.42944,0.30256,0.2196,0.27328,0.10736
0.07808,-0.1098,0.14152,0.10248,0.06344,0.00732,0.17568,0.4392,0.3172,0.25376,0.27816,0.122
0.08784,-0.12688,0.16592,0.122,0.07808,0.00488,0.18056,0.45384,0.35136,0.28304,0.30744,0.14152
0.08784,-0.14152,0.1952,0.15128,0.10736,-0.00976,0.18056,0.45384,0.366,0.29768,0.32208,0.15128
0.10248,-0.14884,0.1952,0.14396,0.09272,0.00488,0.17568,0.45872,0.38552,0.31232,0.3416,0.18056
0.11712,-0.16836,0.2196,0.16104,0.10248,0.00732,0.1708,0.45872,0.39528,0.33184,0.36112,0.18544
0.11224,-0.16592,0.2196,0.16348,0.10736,0.00244,0.15128,0.45384,0.39528,0.34648,0.34648,0.18544
0.10248,-0.16348,0.22448,0.17324,0.122,-0.00976,0.14152,0.45384,0.40504,0.36112,0.35624,0.20496
0.11712,-0.17812,0.23912,0.18056,0.122,-0.00244,0.1464,0.44896,0.42456,0.38064,0.37576,0.20984
0.11712,-0.183,0.24888,0.19032,0.13176,-0.00732,0.13176,0.43432,0.42944,0.39528,0.38552,0.21472
0.11712,-0.183,0.24888,0.19032,0.13176,-0.00732,0.10736,0.42456,0.41968,0.38552,0.38552,0.22448
0.11224,-0.18544,0.25864,0.20252,0.1464,-0.01708,0.08784,0.40016,0.4148,0.37576,0.38064,0.2196
0.11712,-0.18056,0.244,0.18544,0.12688,-0.00488,0.09272,0.38552,0.41968,0.39528,0.38064,0.2196
0.11224,-0.17812,0.244,0.18788,0.13176,-0.00976,0.09272,0.36112,0.40016,0.3904,0.36112,0.21472
0.11224,-0.17812,0.244,0.18788,0.13176,-0.00976,0.08296,0.3416,0.3904,0.36112,0.33184,0.20496
0.10248,-0.16348,0.22448,0.17324,0.122,-0.00976,0.0732,0.31232,0.36112,0.3416,0.31232,0.18544
0.08296,-0.13664,0.19032,0.14884,0.10736,-0.0122,0.06344,0.26352,0.31232,0.30744,0.2684,0.15128
0.05368,-0.10248,0.15128,0.12444,0.0976,-0.02196,0.05856,0.22448,0.27816,0.26352,0.22936,0.122
0.05856,-0.10248,0.1464,0.11712,0.08784,-0.01464,0.06832,0.20008,0.24888,0.22448,0.18056,0.10248
0.04392,-0.07808,0.11224,0.09028,0.06832,-0.0122,0.05368,0.16104,0.20008,0.18544,0.14152,0.0732
0.03416,-0.06344,0.09272,0.07564,0.05856,-0.0122,0.05368,0.13176,0.1708,0.15616,0.11712,0.06832
0.0244,-0.04392,0.06344,0.05124,0.03904,-0.00732,0.04392,0.11224,0.14152,0.12688,0.09272,0.05368
0.00488,-0.02684,0.0488,0.04636,0.04392,-0.01952,0.02928,0.06832,0.0976,0.08784,0.06344,0.01952
-0.00976,-0.00976,0.02928,0.03416,0.03904,-0.0244,0.02928,0.02928,0.05368,0.06344,0.03416,-0.01464
-0.00976,0,0.00976,0.01464,0.01952,-0.01464,0.01952,0.01464,0.01952,0.0244,0.00488,-0.0244
-0.01952,0.01708,-0.01464,-0.00488,0.00488,-0.0122,0.00976,-0.00976,-0.00488,-0.00488,-0.03416,-0.02928
-0.00976,0.02196,-0.03416,-0.02928,-0.0244,0.00732,0,-0.0244,-0.02928,-0.02928,-0.05368,-0.04392
-0.01952,0.03172,-0.04392,-0.03416,-0.0244,0.00244,-0.00976,-0.0488,-0.0488,-0.0488,-0.05856,-0.06344
-0.01952,0.03172,-0.04392,-0.03416,-0.0244,0.00244,-0.00976,-0.0488,-0.05368,-0.04392,-0.07808,-0.05856
-0.0244,0.03416,-0.04392,-0.03172,-0.01952,-0.00244,-0.00488,-0.0488,-0.06344,-0.0488,-0.07808,-0.06344
-0.01952,0.02684,-0.03416,-0.0244,-0.01464,-0.00244,0,-0.05856,-0.06344,-0.05368,-0.0732,-0.05856
-0.0244,0.03172,-0.03904,-0.02684,-0.01464,-0.00488,-0.00488,-0.06344,-0.06832,-0.05368,-0.07808,-0.05856
-0.03904,0.04392,-0.0488,-0.02928,-0.00976,-0.01464,-0.01464,-0.06832,-0.07808,-0.05368,-0.08296,-0.05856
-0.03904,0.04636,-0.05368,-0.03416,-0.01464,-0.0122,-0.01464,-0.07808,-0.08784,-0.06344,-0.08296,-0.06344
-0.02928,0.04148,-0.05368,-0.03904,-0.0244,-0.00244,-0.00976,-0.06832,-0.09272,-0.0732,-0.10248,-0.0732
-0.02928,0.04148,-0.05368,-0.03904,-0.0244,-0.00244,-0.00976,-0.06832,-0.09272,-0.07808,-0.10736,-0.0732
-0.02928,0.03904,-0.0488,-0.03416,-0.01952,-0.00488,-0.00976,-0.07808,-0.08296,-0.0732,-0.11224,-0.06344
-0.0244,0.03904,-0.05368,-0.04148,-0.02928,0.00244,-0.00976,-0.07808,-0.08296,-0.07808,-0.11224,-0.06832
-0.04392,0.05856,-0.0732,-0.05124,-0.02928,-0.00732,-0.01952,-0.08784,-0.0976,-0.07808,-0.122,-0.0732
-0.04392,0.05612,-0.06832,-0.04636,-0.0244,-0.00976,-0.0244,-0.08296,-0.0976,-0.07808,-0.13664,-0.08296
-0.0488,0.05612,-0.06344,-0.03904,-0.01464,-0.01708,-0.01952,-0.08296,-0.0976,-0.08784,-0.14152,-0.08296
-0.04392,0.05368,-0.06344,-0.04148,-0.01952,-0.0122,-0.01464,-0.07808,-0.09272,-0.08296,-0.14152,-0.08296
-0.03904,0.04636,-0.05368,-0.03416,-0.01464,-0.0122,-0.00488,-0.06832,-0.09272,-0.0732,-0.13176,-0.08296
-0.02928,0.04392,-0.05856,-0.04392,-0.02928,0,0,-0.06344,-0.08784,-0.07808,-0.12688,-0.07808
-0.03904,0.0488,-0.05856,-0.03904,-0.01952,-0.00976,0,-0.0732,-0.08784,-0.0732,-0.13664,-0.07808
-0.04392,0.05368,-0.06344,-0.04148,-0.01952,-0.0122,0,-0.0732,-0.09272,-0.0732,-0.1464,-0.08296
-0.01952,0.02928,-0.03904,-0.02928,-0.01952,0,-0.00488,-0.05368,-0.08784,-0.0732,-0.1464,-0.08296
-0.02928,0.03416,-0.03904,-0.0244,-0.00976,-0.00976,-0.00488,-0.05368,-0.08784,-0.0732,-0.15128,-0.08296
-0.03904,0.04636,-0.05368,-0.03416,-0.01464,-0.0122,-0.00488,-0.05368,-0.08784,-0.08296,-0.15128,-0.0732
-0.03904,0.04636,-0.05368,-0.03416,-0.01464,-0.0122,-0.00488,-0.0488,-0.08784,-0.08296,-0.15128,-0.0732
-0.03904,0.04636,-0.05368,-0.03416,-0.01464,-0.0122,0,-0.0488,-0.08784,-0.07808,-0.15128,-0.08296
-0.03416,0.04392,-0.05368,-0.0366,-0.01952,-0.00732,0.00976,-0.03904,-0.08296,-0.07808,-0.15128,-0.07808
-0.03416,0.0488,-0.06344,-0.04636,-0.02928,-0.00244,0,-0.0488,-0.08296,-0.07808,-0.16104,-0.08784
-0.03904,0.05124,-0.06344,-0.04392,-0.0244,-0.00732,0,-0.0488,-0.07808,-0.07808,-0.15616,-0.08784
-0.03904,0.04392,-0.0488,-0.02928,-0.00976,-0.01464,0,-0.03416,-0.07808,-0.06344,-0.16104,-0.07808
-0.04392,0.04392,-0.04392,-0.02196,0,-0.02196,0.00488,-0.03416,-0.0732,-0.06344,-0.15616,-0.0732
-0.03416,0.0366,-0.03904,-0.02196,-0.00488,-0.01464,0.00488,-0.03416,-0.0732,-0.06832,-0.15616,-0.07808
-0.03904,0.0366,-0.03416,-0.01464,0.00488,-0.02196,0.00488,-0.03416,-0.07808,-0.06344,-0.15128,-0.07808
-0.02928,0.0366,-0.04392,-0.02928,-0.01464,-0.00732,0.01464,-0.0244,-0.06832,-0.06344,-0.15128,-0.07808
-0.0244,0.03416,-0.04392,-0.03172,-0.01952,-0.00244,0.02928,-0.0244,-0.06832,-0.05856,-0.15128,-0.06832
-0.02928,0.0366,-0.04392,-0.02928,-0.01464,-0.00732,0.00976,-0.03416,-0.06832,-0.05856,-0.16104,-0.0732
-0.01952,0.02196,-0.0244,-0.01464,-0.00488,-0.00732,0.00976,-0.04392,-0.06344,-0.05856,-0.16104,-0.0732
-0.02928,0.04148,-0.05368,-0.03904,-0.0244,-0.00244,0.00488,-0.03904,-0.06832,-0.06344,-0.16104,-0.07808
-0.03904,0.04636,-0.05368,-0.03416,-0.01464,-0.0122,0.00488,-0.03416,-0.06832,-0.05856,-0.16104,-0.0732
-0.04392,0.0488,-0.05368,-0.03172,-0.00976,-0.01708,0,-0.04392,-0.07808,-0.06344,-0.16104,-0.07808
-0.0488,0.05124,-0.05368,-0.02928,-0.00488,-0.02196,0,-0.0488,-0.07808,-0.0732,-0.16592,-0.09272
-0.0244,0.0366,-0.0488,-0.0366,-0.0244,0,0.00488,-0.03904,-0.0732,-0.05856,-0.15128,-0.07808
-0.01464,0.02684,-0.03904,-0.03172,-0.0244,0.00488,0,-0.03904,-0.07808,-0.0488,-0.15616,-0.06344
-0.0244,0.0244,-0.0244,-0.0122,0,-0.0122,-0.00488,-0.0488,-0.0732,-0.05856,-0.15128,-0.06832
-0.01952,0.02196,-0.0244,-0.01464,-0.00488,-0.00732,-0.00488,-0.0488,-0.0732,-0.06344,-0.15128,-0.07808
-0.0244,0.02928,-0.03416,-0.02196,-0.00976,-0.00732,-0.00976,-0.04392,-0.07808,-0.05368,-0.15616,-0.07808
-0.0244,0.03172,-0.03904,-0.02684,-0.01464,-0.00488,-0.00488,-0.0488,-0.07808,-0.05368,-0.16592,-0.07808
-0.03416,0.04148,-0.0488,-0.03172,-0.01464,-0.00976,-0.01952,-0.06344,-0.08784,-0.06344,-0.18056,-0.08296
-0.02928,0.0366,-0.04392,-0.02928,-0.01464,-0.00732,-0.01952,-0.06832,-0.09272,-0.06832,-0.19032,-0.08296
-0.02928,0.03172,-0.03416,-0.01952,-0.00488,-0.0122,-0.00976,-0.06344,-0.08296,-0.06832,-0.18056,-0.08296
-0.03416,0.0366,-0.03904,-0.02196,-0.00488,-0.01464,-0.01464,-0.06832,-0.08784,-0.0732,-0.1708,-0.07808
-0.02928,0.03904,-0.0488,-0.03416,-0.01952,-0.00488,-0.00976,-0.0732,-0.0976,-0.0732,-0.18056,-0.08296
-0.02928,0.04392,-0.05856,-0.04392,-0.02928,0,-0.00976,-0.07808,-0.10248,-0.07808,-0.18056,-0.08784
-0.03904,0.04636,-0.05368,-0.03416,-0.01464,-0.0122,-0.01952,-0.06832,-0.09272,-0.07808,-0.18056,-0.08784
-0.02928,0.03904,-0.0488,-0.03416,-0.01952,-0.00488,-0.0244,-0.06832,-0.09272,-0.07808,-0.18056,-0.08784
-0.01952,0.03172,-0.04392,-0.03416,-0.0244,0.00244,-0.01464,-0.0732,-0.0976,-0.07808,-0.19032,-0.07808
-0.0244,0.02928,-0.03416,-0.02196,-0.00976,-0.00732,-0.01952,-0.07808,-0.10248,-0.07808,-0.19032,-0.08296
-0.03416,0.03904,-0.04392,-0.02684,-0.00976,-0.0122,-0.01952,-0.07808,-0.0976,-0.07808,-0.19032,-0.08784
-0.03904,0.04636,-0.05368,-0.03416,-0.01464,-0.0122,-0.0244,-0.08296,-0.10736,-0.07808,-0.19032,-0.08784
-0.02928,0.04148,-0.05368,-0.03904,-0.0244,-0.00244,-0.0244,-0.08296,-0.10736,-0.08784,-0.19032,-0.0976
-0.0244,0.03904,-0.05368,-0.04148,-0.02928,0.00244,-0.0244,-0.08296,-0.10736,-0.08784,-0.19032,-0.09272
-0.03416,0.04636,-0.05856,-0.04148,-0.0244,-0.00488,-0.03416,-0.09272,-0.11712,-0.08296,-0.1952,-0.09272
-0.03416,0.04392,-0.05368,-0.0366,-0.01952,-0.00732,-0.03416,-0.09272,-0.11712,-0.07808,-0.19032,-0.09272
-0.03904,0.05124,-0.06344,-0.04392,-0.0244,-0.00732,-0.02928,-0.08296,-0.11712,-0.08784,-0.19032,-0.10248
-0.03904,0.0488,-0.05856,-0.03904,-0.01952,-0.00976,-0.02928,-0.09272,-0.11712,-0.09272,-0.20008,-0.0976
-0.03416,0.04392,-0.05368,-0.0366,-0.01952,-0.00732,-0.0244,-0.08784,-0.10736,-0.09272,-0.20008,-0.09272
-0.03416,0.03904,-0.04392,-0.02684,-0.00976,-0.0122,-0.02928,-0.08784,-0.10736,-0.09272,-0.1952,-0.09272
-0.0244,0.03172,-0.03904,-0.02684,-0.01464,-0.00488,-0.02928,-0.08784,-0.10736,-0.09272,-0.1952,-0.10248
-0.0244,0.03172,-0.03904,-0.02684,-0.01464,-0.00488,-0.0244,-0.08784,-0.11224,-0.08784,-0.1952,-0.10248
-0.04392,0.05368,-0.06344,-0.04148,-0.01952,-0.0122,-0.03416,-0.0976,-0.122,-0.0976,-0.20496,-0.09272
-0.0488,0.06344,-0.07808,-0.05368,-0.02928,-0.00976,-0.03416,-0.0976,-0.12688,-0.0976,-0.20496,-0.09272
-0.03904,0.0488,-0.05856,-0.03904,-0.01952,-0.00976,-0.0244,-0.08784,-0.11224,-0.09272,-0.1952,-0.09272
-0.03904,0.04392,-0.0488,-0.02928,-0.00976,-0.01464,-0.02928,-0.0976,-0.11712,-0.09272,-0.20008,-0.09272
-0.02928,0.03416,-0.03904,-0.0244,-0.00976,-0.00976,-0.01952,-0.0976,-0.11712,-0.0976,-0.1952,-0.09272
-0.00976,0.02196,-0.03416,-0.02928,-0.0244,0.00732,-0.01952,-0.0976,-0.11712,-0.0976,-0.19032,-0.08784
-0.02928,0.03904,-0.0488,-0.03416,-0.01952,-0.00488,-0.02928,-0.10248,-0.11712,-0.0976,-0.20008,-0.09272
-0.03904,0.04636,-0.05368,-0.03416,-0.01464,-0.0122,-0.0488,-0.10736,-0.11712,-0.0976,-0.1952,-0.10736
-0.04392,0.0488,-0.05368,-0.03172,-0.00976,-0.01708,-0.02928,-0.10248,-0.12688,-0.0976,-0.19032,-0.09272
-0.04392,0.0488,-0.05368,-0.03172,-0.00976,-0.01708,-0.02928,-0.10248,-0.12688,-0.09272,-0.19032,-0.0976
-0.03416,0.04148,-0.0488,-0.03172,-0.01464,-0.00976,-0.02928,-0.10248,-0.12688,-0.10248,-0.18544,-0.10248
-0.0244,0.0366,-0.0488,-0.0366,-0.0244,0,-0.02928,-0.10248,-0.12688,-0.10736,-0.18544,-0.10248
-0.04392,0.05124,-0.05856,-0.0366,-0.01464,-0.01464,-0.02928,-0.09272,-0.11712,-0.0976,-0.18544,-0.0976
-0.02928,0.04392,-0.05856,-0.04392,-0.02928,0,-0.02928,-0.09272,-0.11712,-0.10248,-0.18544,-0.0976
-0.03904,0.04636,-0.05368,-0.03416,-0.01464,-0.0122,-0.03904,-0.10736,-0.12688,-0.0976,-0.19032,-0.0976
-0.03904,0.04636,-0.05368,-0.03416,-0.01464,-0.0122,-0.03904,-0.10736,-0.12688,-0.0976,-0.19032,-0.10736
-0.04392,0.05612,-0.06832,-0.04636,-0.0244,-0.00976,-0.03904,-0.10736,-0.12688,-0.10736,-0.18544,-0.0976
-0.04392,0.06344,-0.08296,-0.061,-0.03904,-0.00244,-0.04392,-0.10736,-0.13176,-0.11224,-0.18544,-0.09272
-0.04392,0.05368,-0.06344,-0.04148,-0.01952,-0.0122,-0.04392,-0.10736,-0.13176,-0.10248,-0.19032,-0.0976
-0.04392,0.0488,-0.05368,-0.03172,-0.00976,-0.01708,-0.03904,-0.10736,-0.13176,-0.10248,-0.19032,-0.09272
-0.03904,0.04636,-0.05368,-0.03416,-0.01464,-0.0122,-0.03416,-0.0976,-0.122,-0.10248,-0.18544,-0.10248
-0.03904,0.04392,-0.0488,-0.02928,-0.00976,-0.01464,-0.03416,-0.0976,-0.122,-0.10248,-0.17568,-0.10736
-0.0244,0.03416,-0.04392,-0.03172,-0.01952,-0.00244,-0.02928,-0.10736,-0.122,-0.09272,-0.17568,-0.0976
-0.0244,0.03904,-0.05368,-0.04148,-0.02928,0.00244,-0.02928,-0.10736,-0.122,-0.09272,-0.18056,-0.09272
-0.02928,0.04636,-0.06344,-0.0488,-0.03416,0.00244,-0.04392,-0.10248,-0.12688,-0.10736,-0.18056,-0.10248
-0.0244,0.04392,-0.06344,-0.05124,-0.03904,0.00732,-0.03904,-0.10248,-0.12688,-0.10248,-0.18056,-0.10736
-0.04392,0.061,-0.07808,-0.05612,-0.03416,-0.00488,-0.03416,-0.11224,-0.13664,-0.0976,-0.17568,-0.10248
-0.03904,0.05612,-0.0732,-0.05368,-0.03416,-0.00244,-0.02928,-0.11224,-0.13664,-0.0976,-0.17568,-0.10248
-0.0488,0.06344,-0.07808,-0.05368,-0.02928,-0.00976,-0.03904,-0.11224,-0.13664,-0.10248,-0.18056,-0.11224
-0.03904,0.0488,-0.05856,-0.03904,-0.01952,-0.00976,-0.0488,-0.11712,-0.13664,-0.10736,-0.17568,-0.10736
-0.03904,0.0488,-0.05856,-0.03904,-0.01952,-0.00976,-0.0488,-0.11712,-0.13664,-0.10736,-0.17568,-0.10736
-0.02928,0.03904,-0.0488,-0.03416,-0.01952,-0.00488,-0.04392,-0.10736,-0.12688,-0.0976,-0.1708,-0.0976
-0.02928,0.03904,-0.0488,-0.03416,-0.01952,-0.00488,-0.03416,-0.10736,-0.12688,-0.0976,-0.16104,-0.0976
-0.02928,0.03904,-0.0488,-0.03416,-0.01952,-0.00488,-0.02928,-0.0976,-0.12688,-0.0976,-0.15616,-0.0976
-0.02928,0.03904,-0.0488,-0.03416,-0.01952,-0.00488,-0.02928,-0.0976,-0.12688,-0.0976,-0.15616,-0.0976
-0.03904,0.03904,-0.03904,-0.01952,0,-0.01952,-0.0244,-0.0976,-0.10736,-0.0976,-0.1464,-0.09272
-0.03416,0.02196,-0.00976,0.00732,0.0244,-0.02928,-0.00976,-0.08784,-0.0976,-0.08296,-0.13664,-0.08296
-0.0244,0.01708,-0.00976,0.00244,0.01464,-0.01952,-0.00488,-0.0732,-0.09272,-0.06832,-0.13176,-0.08296
-0.02928,0.01708,-0.00488,0.00976,0.0244,-0.02684,0,-0.0732,-0.09272,-0.06344,-0.13176,-0.08296
-0.04392,0.02928,-0.01464,0.00732,0.02928,-0.0366,-0.00488,-0.0732,-0.10248,-0.07808,-0.14152,-0.08296
-0.03904,0.02684,-0.01464,0.00488,0.0244,-0.03172,-0.00488,-0.0732,-0.10248,-0.07808,-0.1464,-0.08296
-0.0488,0.03172,-0.01464,0.00976,0.03416,-0.04148,0.00488,-0.0732,-0.0976,-0.0732,-0.13176,-0.09272
-0.03904,0.01952,0,0.01952,0.03904,-0.03904,0.00488,-0.06832,-0.09272,-0.0732,-0.12688,-0.08296
-0.0244,0.0122,0,0.0122,0.0244,-0.0244,-0.00488,-0.05856,-0.0732,-0.05856,-0.10736,-0.07808
0.00976,-0.0122,0.01464,0.00976,0.00488,0.00244,-0.01952,-0.0488,-0.06344,-0.04392,-0.0976,-0.05368
0.00488,-0.00976,0.01464,0.0122,0.00976,-0.00244,-0.02928,-0.05856,-0.06344,-0.05368,-0.09272,-0.05856
0.00488,-0.01464,0.0244,0.02196,0.01952,-0.00732,-0.04392,-0.07808,-0.06832,-0.05368,-0.0976,-0.05856
-0.00488,0.00244,0,0.00244,0.00488,-0.00488,-0.0732,-0.11712,-0.10736,-0.07808,-0.12688,-0.08296
0,0.00488,-0.00976,-0.00976,-0.00976,0.00488,-0.07808,-0.13176,-0.13176,-0.09272,-0.13176,-0.07808
-0.00488,0.00976,-0.01464,-0.0122,-0.00976,0.00244,-0.06832,-0.11712,-0.122,-0.08784,-0.11712,-0.0732
-0.01464,0.01464,-0.01464,-0.00732,0,-0.00732,-0.05856,-0.10248,-0.10736,-0.07808,-0.10248,-0.06832
-0.01464,0.00976,-0.00488,0.00244,0.00976,-0.0122,-0.03904,-0.07808,-0.08296,-0.05368,-0.08784,-0.05856
-0.00488,0,0.00488,0.00732,0.00976,-0.00732,-0.02928,-0.0732,-0.07808,-0.0488,-0.08784,-0.05368
-0.01464,0.0122,-0.00976,-0.00244,0.00488,-0.00976,-0.02928,-0.07808,-0.08296,-0.06832,-0.08784,-0.05856
-0.0244,0.0366,-0.0488,-0.0366,-0.0244,0,-0.03416,-0.09272,-0.10248,-0.08784,-0.10248,-0.08296
-0.03416,0.05368,-0.0732,-0.05612,-0.03904,0.00244,-0.03904,-0.10248,-0.12688,-0.0976,-0.122,-0.0976
-0.03416,0.05368,-0.0732,-0.05612,-0.03904,0.00244,-0.04392,-0.11224,-0.13664,-0.10736,-0.12688,-0.10736
-0.0488,0.0732,-0.0976,-0.0732,-0.0488,0,-0.05368,-0.13176,-0.15128,-0.122,-0.13664,-0.11224
-0.0488,0.0732,-0.0976,-0.0732,-0.0488,0,-0.06344,-0.14152,-0.16592,-0.13664,-0.1464,-0.11712
-0.03416,0.06344,-0.09272,-0.07564,-0.05856,0.0122,-0.05368,-0.13176,-0.16592,-0.14152,-0.1464,-0.11712
-0.03416,0.06344,-0.09272,-0.07564,-0.05856,0.0122,-0.05368,-0.13176,-0.16592,-0.13176,-0.1464,-0.11712
-0.04392,0.07808,-0.11224,-0.09028,-0.06832,0.0122,-0.05856,-0.13664,-0.15128,-0.13664,-0.13664,-0.11712
-0.0488,0.08296,-0.11712,-0.09272,-0.06832,0.00976,-0.05856,-0.13664,-0.15616,-0.14152,-0.14152,-0.122
-0.04392,0.07564,-0.10736,-0.0854,-0.06344,0.00976,-0.05368,-0.13664,-0.15616,-0.13176,-0.13176,-0.11224
-0.03416,0.06588,-0.0976,-0.08052,-0.06344,0.01464,-0.04392,-0.12688,-0.15616,-0.13176,-0.13664,-0.11712
-0.02928,0.06588,-0.10248,-0.08784,-0.0732,0.02196,-0.0488,-0.12688,-0.16592,-0.14152,-0.1464,-0.122
-0.04392,0.07808,-0.11224,-0.09028,-0.06832,0.0122,-0.0488,-0.12688,-0.16592,-0.14152,-0.1464,-0.122
-0.05856,0.08052,-0.10248,-0.0732,-0.04392,-0.00732,-0.0488,-0.13664,-0.16592,-0.14152,-0.15616,-0.12688
-0.05368,0.08052,-0.10736,-0.08052,-0.05368,0,-0.05856,-0.13664,-0.18056,-0.13664,-0.15128,-0.13664
-0.05856,0.08784,-0.11712,-0.08784,-0.05856,0,-0.06344,-0.13176,-0.1708,-0.14152,-0.15128,-0.13664
-0.04392,0.08052,-0.11712,-0.09516,-0.0732,0.01464,-0.0488,-0.11712,-0.15616,-0.14152,-0.13664,-0.12688
-0.02928,0.06344,-0.0976,-0.08296,-0.06832,0.01952,-0.0488,-0.122,-0.16104,-0.14152,-0.122,-0.11224
-0.04392,0.0732,-0.10248,-0.08052,-0.05856,0.00732,-0.05368,-0.122,-0.16104,-0.14152,-0.12688,-0.11224
-0.0244,0.05368,-0.08296,-0.07076,-0.05856,0.01708,-0.04392,-0.11712,-0.15128,-0.13176,-0.11224,-0.10736
-0.04392,0.10004,-0.15616,-0.1342,-0.11224,0.03416,-0.02928,-0.11224,-0.1708,-0.15616,-0.13176,-0.13176
-0.03416,0.1098,-0.18544,-0.16836,-0.15128,0.05856,0,-0.06832,-0.20984,-0.20984,-0.18544,-0.16592
-0.0244,0.14396,-0.26352,-0.25132,-0.23912,0.10736,0.11712,0.0488,-0.25864,-0.32208,-0.25864,-0.23424
0.00488,0.1586,-0.32208,-0.32452,-0.32696,0.16592,0.25864,0.30256,-0.20008,-0.35624,-0.30256,-0.25864
0.04392,0.1098,-0.26352,-0.28548,-0.30744,0.17568,0.46848,0.60024,0.0244,-0.2196,-0.20008,-0.19032
0.14152,-0.02684,-0.08784,-0.1586,-0.22936,0.18544,0.54168,0.75152,0.33184,0.0488,0.00488,-0.04392
0.23912,-0.24644,0.25376,0.1342,0.01464,0.11224,0.42944,0.66856,0.72712,0.5124,0.3904,0.23424
0.31232,-0.45628,0.60024,0.44408,0.28792,0.0122,0.24888,0.488,1.04432,0.98088,0.79544,0.53192
0.30256,-0.66368,1.0248,0.87352,0.72224,-0.20984,-0.17568,0.09272,1.28344,1.49328,1.23464,0.86864
0.24888,-0.86864,1.4884,1.36396,1.23952,-0.49532,-0.76128,-0.4392,1.60552,1.9764,1.61528,1.13216
0.12688,-0.87108,1.61528,1.55184,1.4884,-0.68076,-1.08824,-0.84912,1.79584,2.24968,1.72264,1.1956
0.11712,-0.75884,1.40056,1.342,1.28344,-0.58316,-1.23464,-1.05896,1.64456,2.1228,1.58112,1.07848
-0.0244,-0.49776,1.01992,1.03212,1.04432,-0.53436,-1.17608,-1.22976,0.80032,1.27368,1.03456,0.73688
-0.10736,-0.21716,0.54168,0.59536,0.64904,-0.3782,-1.0248,-1.3176,-0.24888,0.1708,0.3416,0.28792
-0.122,-0.03172,0.18544,0.24644,0.30744,-0.21472,-0.85888,-1.13704,-0.64416,-0.2928,-0.03904,0.02928
-0.11224,0.061,-0.00976,0.04636,0.10248,-0.10736,-0.6344,-0.88816,-0.61488,-0.35136,-0.15128,-0.0732
-0.09272,0.09516,-0.0976,-0.05124,-0.00488,-0.04392,-0.44408,-0.64416,-0.50752,-0.3172,-0.15128,-0.10248
-0.03904,0.06832,-0.0976,-0.07808,-0.05856,0.00976,-0.28792,-0.42456,-0.32208,-0.21472,-0.11224,-0.10736
-0.01952,0.05124,-0.08296,-0.0732,-0.06344,0.02196,-0.20496,-0.26352,-0.1952,-0.14152,-0.0976,-0.09272
-0.03904,0.04392,-0.0488,-0.02928,-0.00976,-0.01464,-0.10248,-0.15128,-0.11712,-0.07808,-0.05368,-0.06344
-0.0488,0.0488,-0.0488,-0.0244,0,-0.0244,-0.01464,-0.0732,-0.10248,-0.08784,-0.03904,-0.06832
-0.03904,0.05612,-0.0732,-0.05368,-0.03416,-0.00244,0.01464,-0.01952,-0.09272,-0.10248,-0.03904,-0.08296
-0.01952,0.04392,-0.06832,-0.05856,-0.0488,0.01464,0,-0.0244,-0.09272,-0.10248,-0.05856,-0.09272
-0.03904,0.05612,-0.0732,-0.05368,-0.03416,-0.00244,0,-0.0244,-0.09272,-0.10736,-0.06344,-0.0976
-0.04392,0.05368,-0.06344,-0.04148,-0.01952,-0.0122,0.01952,-0.00488,-0.08784,-0.09272,-0.05368,-0.08296
-0.03416,0.05124,-0.06832,-0.05124,-0.03416,0,0.04392,0.01464,-0.08784,-0.10248,-0.06344,-0.09272
-0.01952,0.04636,-0.0732,-0.06344,-0.05368,0.01708,0.04392,0.02928,-0.0732,-0.08784,-0.05368,-0.09272
-0.01952,0.04636,-0.0732,-0.06344,-0.05368,0.01708,0.04392,0.02928,-0.06832,-0.08784,-0.05368,-0.09272
-0.03904,0.05856,-0.07808,-0.05856,-0.03904,0,0.0488,0.02928,-0.0732,-0.09272,-0.05368,-0.08296
-0.03904,0.061,-0.08296,-0.06344,-0.04392,0.00244,0.05368,0.03904,-0.0732,-0.0976,-0.0488,-0.08296
-0.03416,0.06344,-0.09272,-0.07564,-0.05856,0.0122,0.05368,0.0488,-0.0732,-0.10736,-0.05368,-0.09272
-0.03416,0.06588,-0.0976,-0.08052,-0.06344,0.01464,0.05368,0.05368,-0.05856,-0.0976,-0.05368,-0.08784
-0.02928,0.05368,-0.07808,-0.06344,-0.0488,0.00976,0.05856,0.05368,-0.0488,-0.08296,-0.03416,-0.0732
-0.00976,0.03904,-0.06832,-0.06344,-0.05856,0.0244,0.06344,0.05856,-0.0488,-0.08296,-0.03416,-0.07808
-0.00488,0.03904,-0.0732,-0.07076,-0.06832,0.03172,0.0732,0.07808,-0.0488,-0.08784,-0.02928,-0.0732
0,0.02928,-0.05856,-0.05856,-0.05856,0.02928,0.07808,0.08296,-0.04392,-0.08296,-0.0244,-0.0732
-0.0244,0.04636,-0.06832,-0.05612,-0.04392,0.00976,0.06832,0.0732,-0.05368,-0.08784,-0.03416,-0.07808
-0.01464,0.04392,-0.0732,-0.06588,-0.05856,0.02196,0.0732,0.07808,-0.0488,-0.08296,-0.02928,-0.08784
-0.03416,0.05368,-0.0732,-0.05612,-0.03904,0.00244,0.0732,0.08296,-0.05368,-0.08296,-0.0244,-0.08296
-0.02928,0.05368,-0.07808,-0.06344,-0.0488,0.00976,0.0732,0.09272,-0.03416,-0.08296,-0.0244,-0.07808
-0.0244,0.04148,-0.05856,-0.04636,-0.03416,0.00488,0.0732,0.0976,-0.02928,-0.0732,-0.00976,-0.0732
-0.01464,0.0366,-0.05856,-0.05124,-0.04392,0.01464,0.08296,0.10248,-0.02928,-0.06832,-0.00488,-0.0732
-0.00976,0.03904,-0.06832,-0.06344,-0.05856,0.0244,0.09272,0.10736,-0.00976,-0.06344,-0.00488,-0.06344
-0.01952,0.04148,-0.06344,-0.05368,-0.04392,0.0122,0.0976,0.11712,-0.00488,-0.06344,-0.00488,-0.06344
-0.00976,0.03416,-0.05856,-0.05368,-0.0488,0.01952,0.08784,0.122,-0.00976,-0.05368,0,-0.06832
-0.00976,0.03416,-0.05856,-0.05368,-0.0488,0.01952,0.09272,0.12688,0,-0.05368,0,-0.0732
-0.01952,0.0366,-0.05368,-0.04392,-0.03416,0.00732,0.10736,0.13664,0.00488,-0.05856,0,-0.06832
-0.01952,0.03904,-0.05856,-0.0488,-0.03904,0.00976,0.11224,0.1464,0.01464,-0.05856,0.00488,-0.06344
-0.00488,0.02196,-0.03904,-0.0366,-0.03416,0.01464,0.10248,0.15616,0.01952,-0.04392,0.01952,-0.05856
0.00976,0.01464,-0.03904,-0.04392,-0.0488,0.02928,0.10736,0.16592,0.02928,-0.03904,0.01464,-0.05368
0.00488,0.01708,-0.03904,-0.04148,-0.04392,0.0244,0.11224,0.17568,0.03416,-0.03904,0.01952,-0.04392
-0.01464,0.03172,-0.0488,-0.04148,-0.03416,0.00976,0.11224,0.18056,0.04392,-0.02928,0.02928,-0.03904
-0.01952,0.02928,-0.03904,-0.02928,-0.01952,0,0.122,0.19032,0.05368,-0.0244,0.04392,-0.04392
0.00488,0.0122,-0.02928,-0.03172,-0.03416,0.01952,0.13176,0.20008,0.06344,-0.01464,0.0488,-0.03904
0.01464,0,-0.01464,-0.02196,-0.02928,0.02196,0.13176,0.21472,0.06832,-0.00488,0.05856,-0.03416
0.01952,-0.00488,-0.00976,-0.01952,-0.02928,0.0244,0.13664,0.22936,0.08296,0,0.06344,-0.03416
0.01952,-0.00488,-0.00976,-0.01952,-0.02928,0.0244,0.13664,0.244,0.0976,0.0244,0.07808,-0.02928
0.01952,-0.00488,-0.00976,-0.01952,-0.02928,0.0244,0.14152,0.24888,0.10736,0.02928,0.08784,-0.02928
0.01464,-0.00488,-0.00488,-0.0122,-0.01952,0.01708,0.15616,0.26352,0.10736,0.03904,0.09272,-0.00976
0.0244,-0.01464,0.00488,-0.00732,-0.01952,0.02196,0.16592,0.27816,0.12688,0.05368,0.10248,0
0.01464,-0.01952,0.0244,0.01708,0.00976,0.00244,0.16592,0.30256,0.15616,0.0732,0.12688,0.01464
0.02928,-0.03172,0.03416,0.01952,0.00488,0.0122,0.17568,0.31232,0.16592,0.08296,0.14152,0.01952
0.03904,-0.03904,0.03904,0.01952,0,0.01952,0.17568,0.33184,0.18544,0.09272,0.15128,0.0244
0.05368,-0.05856,0.06344,0.0366,0.00976,0.02196,0.18544,0.35624,0.20496,0.10248,0.16104,0.0488
0.03904,-0.04636,0.05368,0.03416,0.01464,0.0122,0.19032,0.35624,0.2196,0.11712,0.1708,0.04392
0.03416,-0.04636,0.05856,0.04148,0.0244,0.00488,0.19032,0.37576,0.244,0.13664,0.1952,0.05368
0.04392,-0.06344,0.08296,0.061,0.03904,0.00244,0.19032,0.40504,0.26352,0.1708,0.20984,0.06832
0.05368,-0.07076,0.08784,0.061,0.03416,0.00976,0.1952,0.4148,0.27816,0.19032,0.22936,0.07808
0.05856,-0.09272,0.12688,0.0976,0.06832,-0.00488,0.20008,0.43432,0.32208,0.2196,0.2684,0.11712
0.07808,-0.1098,0.14152,0.10248,0.06344,0.00732,0.1952,0.44896,0.33672,0.244,0.2928,0.12688
0.08296,-0.122,0.16104,0.11956,0.07808,0.00244,0.18544,0.45384,0.35624,0.2684,0.30744,0.13176
0.08784,-0.12932,0.1708,0.12688,0.08296,0.00244,0.18056,0.4636,0.366,0.28304,0.32696,0.15128
0.08784,-0.13176,0.17568,0.13176,0.08784,0,0.16592,0.45872,0.38552,0.29768,0.33184,0.16104
0.07808,-0.13176,0.18544,0.1464,0.10736,-0.01464,0.15616,0.45872,0.40504,0.31232,0.34648,0.1708
0.10248,-0.1586,0.21472,0.16348,0.11224,-0.00488,0.15128,0.46848,0.40992,0.33184,0.37576,0.18056
0.10248,-0.16104,0.2196,0.16836,0.11712,-0.00732,0.15616,0.4636,0.41968,0.35624,0.3904,0.1952
0.11712,-0.183,0.24888,0.19032,0.13176,-0.00732,0.15616,0.45872,0.44408,0.366,0.40992,0.21472
0.13176,-0.20008,0.2684,0.20252,0.13664,-0.00244,0.15128,0.45872,0.44896,0.38064,0.4148,0.22448
0.13176,-0.1952,0.25864,0.19276,0.12688,0.00244,0.13664,0.4392,0.4392,0.38552,0.42944,0.2196
0.11712,-0.18788,0.25864,0.20008,0.14152,-0.0122,0.11224,0.42456,0.43432,0.38552,0.43432,0.22448
0.10736,-0.17812,0.24888,0.1952,0.14152,-0.01708,0.10736,0.40504,0.44408,0.38552,0.42944,0.22448
0.10248,-0.17324,0.244,0.19276,0.14152,-0.01952,0.0976,0.38552,0.43432,0.37576,0.41968,0.22448
0.10248,-0.17324,0.244,0.19276,0.14152,-0.01952,0.08296,0.35624,0.40016,0.34648,0.40504,0.20984
0.10248,-0.16592,0.22936,0.17812,0.12688,-0.0122,0.0732,0.32696,0.38064,0.33184,0.37576,0.20008
0.0976,-0.14884,0.20008,0.15128,0.10248,-0.00244,0.08296,0.29768,0.34648,0.30256,0.36112,0.17568
0.07808,-0.12688,0.17568,0.13664,0.0976,-0.00976,0.0732,0.25376,0.31232,0.2684,0.32696,0.1464
0.06832,-0.1098,0.15128,0.11712,0.08296,-0.00732,0.07808,0.21472,0.27328,0.23424,0.30256,0.13176
0.03416,-0.07808,0.122,0.10492,0.08784,-0.02684,0.06832,0.18056,0.22448,0.19032,0.2684,0.0976
0.0244,-0.05856,0.09272,0.08052,0.06832,-0.02196,0.0488,0.14152,0.17568,0.14152,0.22936,0.0732
0.01952,-0.0366,0.05368,0.04392,0.03416,-0.00732,0.03904,0.11224,0.14152,0.11224,0.20008,0.0488
0.01952,-0.02196,0.0244,0.01464,0.00488,0.00732,0.03416,0.08296,0.0976,0.08296,0.18056,0.0244
0.00488,-0.00732,0.00976,0.00732,0.00488,0,0.02928,0.05368,0.06832,0.05856,0.15616,0.00488
-0.00976,0.00488,0,0.00488,0.00976,-0.00976,0.0244,0.0244,0.03904,0.02928,0.12688,-0.00976
-0.00976,0.01464,-0.01952,-0.01464,-0.00976,0,0.01464,0.00488,0.00488,-0.00488,0.10736,-0.01952
-0.02928,0.03172,-0.03416,-0.01952,-0.00488,-0.0122,0.00976,-0.01464,-0.0244,-0.02928,0.08296,-0.0244
-0.03416,0.04148,-0.0488,-0.03172,-0.01464,-0.00976,0,-0.02928,-0.03416,-0.0488,0.07808,-0.04392
-0.03416,0.03904,-0.04392,-0.02684,-0.00976,-0.0122,0,-0.0488,-0.0488,-0.05856,0.07808,-0.04392
-0.02928,0.04392,-0.05856,-0.04392,-0.02928,0,-0.01464,-0.05368,-0.05856,-0.07808,0.06832,-0.05368
-0.00976,0.03172,-0.05368,-0.0488,-0.04392,0.01708,0,-0.0488,-0.06832,-0.0732,0.06344,-0.0488
-0.01464,0.0366,-0.05856,-0.05124,-0.04392,0.01464,-0.00488,-0.06344,-0.0732,-0.0732,0.05856,-0.0488
-0.02928,0.04392,-0.05856,-0.04392,-0.02928,0,-0.01464,-0.05856,-0.06832,-0.0732,0.05856,-0.0488
-0.02928,0.04392,-0.05856,-0.04392,-0.02928,0,-0.01464,-0.05856,-0.06832,-0.07808,0.05368,-0.0488
-0.02928,0.05124,-0.0732,-0.05856,-0.04392,0.00732,-0.01952,-0.07808,-0.08784,-0.08296,0.05368,-0.06344
-0.02928,0.05124,-0.0732,-0.05856,-0.04392,0.00732,-0.01952,-0.07808,-0.08296,-0.07808,0.05856,-0.06344
-0.02928,0.05612,-0.08296,-0.06832,-0.05368,0.0122,-0.00976,-0.06832,-0.08296,-0.08296,0.06832,-0.05368
-0.0244,0.04636,-0.06832,-0.05612,-0.04392,0.00976,-0.00976,-0.06832,-0.08296,-0.08784,0.06344,-0.05368
-0.02928,0.05124,-0.0732,-0.05856,-0.04392,0.00732,-0.00976,-0.07808,-0.08784,-0.07808,0.06344,-0.05856
-0.01952,0.04392,-0.06832,-0.05856,-0.0488,0.01464,-0.01464,-0.07808,-0.08784,-0.07808,0.06344,-0.05368
-0.01464,0.03904,-0.06344,-0.05612,-0.0488,0.01708,0,-0.0732,-0.07808,-0.08784,0.05856,-0.05368
-0.01952,0.04148,-0.06344,-0.05368,-0.04392,0.0122,0,-0.06832,-0.07808,-0.08296,0.06344,-0.05368
-0.02928,0.05124,-0.0732,-0.05856,-0.04392,0.00732,0,-0.06832,-0.08296,-0.08296,0.06344,-0.06344
-0.02928,0.05124,-0.0732,-0.05856,-0.04392,0.00732,-0.00976,-0.06344,-0.08296,-0.08784,0.06344,-0.05856
-0.03904,0.05856,-0.07808,-0.05856,-0.03904,0,-0.00976,-0.06344,-0.08784,-0.09272,0.05856,-0.0488
-0.04392,0.06344,-0.08296,-0.061,-0.03904,-0.00244,-0.00976,-0.06344,-0.08784,-0.09272,0.05856,-0.05368
-0.03416,0.05124,-0.06832,-0.05124,-0.03416,0,-0.00488,-0.05856,-0.08296,-0.09272,0.05856,-0.06344
-0.0244,0.04636,-0.06832,-0.05612,-0.04392,0.00976,-0.00488,-0.05368,-0.07808,-0.09272,0.05856,-0.06344
-0.03416,0.05612,-0.07808,-0.061,-0.04392,0.00488,0.00488,-0.05368,-0.07808,-0.08296,0.05368,-0.06344
-0.04392,0.06344,-0.08296,-0.061,-0.03904,-0.00244,0.00488,-0.05368,-0.07808,-0.08296,0.06344,-0.06344
-0.0488,0.061,-0.0732,-0.0488,-0.0244,-0.0122,0.00976,-0.0488,-0.06832,-0.07808,0.06344,-0.06344
-0.04392,0.05856,-0.0732,-0.05124,-0.02928,-0.00732,0.00976,-0.03904,-0.06344,-0.07808,0.06344,-0.05856
-0.02928,0.04636,-0.06344,-0.0488,-0.03416,0.00244,0.01952,-0.03904,-0.0732,-0.07808,0.0732,-0.0488
-0.0244,0.04392,-0.06344,-0.05124,-0.03904,0.00732,0.01952,-0.03904,-0.0732,-0.07808,0.07808,-0.0488
-0.02928,0.0488,-0.06832,-0.05368,-0.03904,0.00488,0.00976,-0.03904,-0.06832,-0.08784,0.0732,-0.05856
-0.03416,0.05368,-0.0732,-0.05612,-0.03904,0.00244,0.00976,-0.03416,-0.06832,-0.08296,0.07808,-0.06344
-0.02928,0.04392,-0.05856,-0.04392,-0.02928,0,0.01464,-0.0244,-0.06344,-0.07808,0.07808,-0.0488
-0.0244,0.03904,-0.05368,-0.04148,-0.02928,0.00244,0.01464,-0.0244,-0.06344,-0.0732,0.08296,-0.0488
-0.02928,0.04148,-0.05368,-0.03904,-0.0244,-0.00244,0.00488,-0.0244,-0.06832,-0.0732,0.08296,-0.05856
-0.0244,0.03904,-0.05368,-0.04148,-0.02928,0.00244,0.00488,-0.0244,-0.06832,-0.06832,0.08296,-0.05368
-0.0244,0.04148,-0.05856,-0.04636,-0.03416,0.00488,0.00976,-0.0244,-0.05856,-0.06832,0.09272,-0.03904
-0.02928,0.04636,-0.06344,-0.0488,-0.03416,0.00244,0.00976,-0.0244,-0.05856,-0.06832,0.09272,-0.04392
-0.02928,0.04148,-0.05368,-0.03904,-0.0244,-0.00244,0.01952,-0.0244,-0.05368,-0.06832,0.10248,-0.04392
-0.03904,0.05124,-0.06344,-0.04392,-0.0244,-0.00732,0.01464,-0.02928,-0.05856,-0.0732,0.10248,-0.0488
-0.03416,0.04636,-0.05856,-0.04148,-0.0244,-0.00488,0.00488,-0.03416,-0.06832,-0.06344,0.0976,-0.0488
-0.03904,0.05368,-0.06832,-0.0488,-0.02928,-0.00488,0,-0.03416,-0.06832,-0.0732,0.08784,-0.0488
-0.02928,0.04392,-0.05856,-0.04392,-0.02928,0,0.00488,-0.03904,-0.06344,-0.06832,0.10248,-0.0488
-0.01952,0.0366,-0.05368,-0.04392,-0.03416,0.00732,0,-0.03904,-0.06344,-0.06832,0.0976,-0.0488
-0.01464,0.03416,-0.05368,-0.04636,-0.03904,0.0122,0.00488,-0.03416,-0.06832,-0.05856,0.10248,-0.02928
-0.01464,0.03416,-0.05368,-0.04636,-0.03904,0.0122,0.00488,-0.03904,-0.0732,-0.06344,0.10736,-0.03416
-0.01952,0.04148,-0.06344,-0.05368,-0.04392,0.0122,-0.00488,-0.04392,-0.0732,-0.0732,0.10736,-0.0488
-0.0244,0.04148,-0.05856,-0.04636,-0.03416,0.00488,-0.00976,-0.0488,-0.07808,-0.0732,0.10248,-0.0488
-0.0244,0.04636,-0.06832,-0.05612,-0.04392,0.00976,-0.00488,-0.05368,-0.07808,-0.0732,0.10248,-0.0488
-0.0244,0.04392,-0.06344,-0.05124,-0.03904,0.00732,-0.00976,-0.05368,-0.07808,-0.07808,0.10248,-0.04392
-0.01952,0.0366,-0.05368,-0.04392,-0.03416,0.00732,-0.00976,-0.05856,-0.08296,-0.07808,0.10248,-0.0488
-0.01952,0.03904,-0.05856,-0.0488,-0.03904,0.00976,-0.01464,-0.06832,-0.08296,-0.08296,0.10248,-0.05368
-0.0244,0.04148,-0.05856,-0.04636,-0.03416,0.00488,-0.00976,-0.06344,-0.08784,-0.08296,0.09272,-0.04392
-0.01952,0.03904,-0.05856,-0.0488,-0.03904,0.00976,-0.00976,-0.06344,-0.08784,-0.08296,0.09272,-0.0488
-0.01952,0.04392,-0.06832,-0.05856,-0.0488,0.01464,-0.00976,-0.05856,-0.08296,-0.08784,0.08784,-0.0488
-0.01464,0.03904,-0.06344,-0.05612,-0.0488,0.01708,-0.01464,-0.05856,-0.08296,-0.08784,0.0976,-0.0488
-0.01952,0.03904,-0.05856,-0.0488,-0.03904,0.00976,-0.01464,-0.06832,-0.09272,-0.08784,0.09272,-0.05856
-0.01952,0.04148,-0.06344,-0.05368,-0.04392,0.0122,-0.01464,-0.07808,-0.10248,-0.08784,0.09272,-0.06344
-0.03416,0.0488,-0.06344,-0.04636,-0.02928,-0.00244,-0.00976,-0.06832,-0.0976,-0.07808,0.10248,-0.06344
-0.03416,0.05124,-0.06832,-0.05124,-0.03416,0,-0.01464,-0.0732,-0.0976,-0.08784,0.10248,-0.05368
-0.02928,0.0488,-0.06832,-0.05368,-0.03904,0.00488,-0.0244,-0.0732,-0.0976,-0.0976,0.09272,-0.0488
-0.0244,0.04148,-0.05856,-0.04636,-0.03416,0.00488,-0.0244,-0.0732,-0.0976,-0.0976,0.09272,-0.04392
-0.0244,0.04392,-0.06344,-0.05124,-0.03904,0.00732,-0.0244,-0.08296,-0.10736,-0.0976,0.07808,-0.0488
-0.03416,0.05124,-0.06832,-0.05124,-0.03416,0,-0.0244,-0.08296,-0.10736,-0.10248,0.08296,-0.05856
-0.01464,0.04392,-0.0732,-0.06588,-0.05856,0.02196,-0.0244,-0.08296,-0.11712,-0.0976,0.09272,-0.06344
-0.01952,0.04636,-0.0732,-0.06344,-0.05368,0.01708,-0.02928,-0.09272,-0.11712,-0.0976,0.08784,-0.05856
-0.01464,0.0366,-0.05856,-0.05124,-0.04392,0.01464,-0.02928,-0.07808,-0.10736,-0.0976,0.08296,-0.05368
-0.01464,0.03904,-0.06344,-0.05612,-0.0488,0.01708,-0.0244,-0.07808,-0.10736,-0.08784,0.08784,-0.05368
-0.02928,0.0488,-0.06832,-0.05368,-0.03904,0.00488,-0.02928,-0.08784,-0.11712,-0.0976,0.08784,-0.06344
-0.03904,0.05612,-0.0732,-0.05368,-0.03416,-0.00244,-0.0244,-0.08784,-0.122,-0.10736,0.08784,-0.0732
-0.03904,0.05612,-0.0732,-0.05368,-0.03416,-0.00244,-0.0244,-0.08784,-0.11224,-0.10736,0.07808,-0.06344
-0.03904,0.061,-0.08296,-0.06344,-0.04392,0.00244,-0.0244,-0.08784,-0.11712,-0.10736,0.07808,-0.06344
-0.02928,0.05368,-0.07808,-0.06344,-0.0488,0.00976,-0.0244,-0.08784,-0.11712,-0.10248,0.08784,-0.06344
-0.02928,0.05368,-0.07808,-0.06344,-0.0488,0.00976,-0.02928,-0.08784,-0.11224,-0.10248,0.08784,-0.06344
-0.01952,0.0488,-0.07808,-0.06832,-0.05856,0.01952,-0.02928,-0.0976,-0.11712,-0.10736,0.07808,-0.06344
-0.01464,0.04392,-0.0732,-0.06588,-0.05856,0.02196,-0.02928,-0.0976,-0.11712,-0.10736,0.07808,-0.06344
-0.01464,0.04392,-0.0732,-0.06588,-0.05856,0.02196,-0.01952,-0.08296,-0.10736,-0.0976,0.08296,-0.06344
-0.03416,0.05856,-0.08296,-0.06588,-0.0488,0.00732,-0.01952,-0.08784,-0.10736,-0.0976,0.08296,-0.06832
-0.03416,0.05612,-0.07808,-0.061,-0.04392,0.00488,-0.01952,-0.09272,-0.10736,-0.10736,0.07808,-0.06832
-0.01952,0.04636,-0.0732,-0.06344,-0.05368,0.01708,-0.01952,-0.09272,-0.10736,-0.10736,0.0732,-0.06344
-0.01952,0.0488,-0.07808,-0.06832,-0.05856,0.01952,-0.01952,-0.09272,-0.11712,-0.10248,0.07808,-0.06832
-0.02928,0.05368,-0.07808,-0.06344,-0.0488,0.00976,-0.01952,-0.09272,-0.11712,-0.10248,0.07808,-0.05856
-0.03416,0.05612,-0.07808,-0.061,-0.04392,0.00488,-0.02928,-0.09272,-0.11712,-0.10736,0.08296,-0.05856
-0.02928,0.05368,-0.07808,-0.06344,-0.0488,0.00976,-0.02928,-0.09272,-0.11712,-0.10736,0.07808,-0.05856
-0.01952,0.04636,-0.0732,-0.06344,-0.05368,0.01708,-0.02928,-0.0976,-0.11712,-0.11224,0.08784,-0.06832
-0.01952,0.04636,-0.0732,-0.06344,-0.05368,0.01708,-0.02928,-0.0976,-0.11712,-0.10736,0.08296,-0.0732
-0.01952,0.04392,-0.06832,-0.05856,-0.0488,0.01464,-0.01952,-0.08784,-0.10736,-0.0976,0.08784,-0.0732
-0.01464,0.04392,-0.0732,-0.06588,-0.05856,0.02196,-0.01952,-0.08784,-0.11224,-0.0976,0.08784,-0.05856
-0.02928,0.05368,-0.07808,-0.06344,-0.0488,0.00976,-0.0244,-0.0976,-0.11712,-0.10736,0.08296,-0.05368
-0.03904,0.06344,-0.08784,-0.06832,-0.0488,0.00488,-0.01952,-0.0976,-0.12688,-0.11712,0.06832,-0.05856
-0.03904,0.06588,-0.09272,-0.0732,-0.05368,0.00732,-0.02928,-0.0976,-0.122,-0.11712,0.06344,-0.06344
-0.03904,0.06588,-0.09272,-0.0732,-0.05368,0.00732,-0.03416,-0.0976,-0.122,-0.10736,0.0732,-0.07808
-0.02928,0.05368,-0.07808,-0.06344,-0.0488,0.00976,-0.02928,-0.0976,-0.122,-0.10248,0.08784,-0.06344
-0.0244,0.0488,-0.0732,-0.061,-0.0488,0.0122,-0.02928,-0.0976,-0.122,-0.10248,0.08296,-0.05368
-0.01952,0.04636,-0.0732,-0.06344,-0.05368,0.01708,-0.02928,-0.08784,-0.11712,-0.10736,0.08296,-0.06344
-0.01464,0.04392,-0.0732,-0.06588,-0.05856,0.02196,-0.03416,-0.09272,-0.11712,-0.10248,0.08296,-0.06832
-0.0244,0.05612,-0.08784,-0.07564,-0.06344,0.01952,-0.02928,-0.10248,-0.12688,-0.11712,0.07808,-0.06344
-0.0244,0.05368,-0.08296,-0.07076,-0.05856,0.01708,-0.03416,-0.10248,-0.12688,-0.11712,0.07808,-0.06344
-0.00488,0.03172,-0.05856,-0.05612,-0.05368,0.0244,-0.02928,-0.09272,-0.11712,-0.10736,0.08784,-0.06344
-0.0488,0.07808,-0.10736,-0.08296,-0.05856,0.00488,-0.02928,-0.0976,-0.11712,-0.10736,0.07808,-0.06832
-0.03904,0.06832,-0.0976,-0.07808,-0.05856,0.00976,-0.02928,-0.0976,-0.11712,-0.10736,0.07808,-0.05856
-0.02928,0.05856,-0.08784,-0.0732,-0.05856,0.01464,-0.02928,-0.0976,-0.11712,-0.10736,0.07808,-0.05856
-0.02928,0.05856,-0.08784,-0.0732,-0.05856,0.01464,-0.02928,-0.10736,-0.12688,-0.11712,0.06832,-0.06832
-0.02928,0.05856,-0.08784,-0.0732,-0.05856,0.01464,-0.02928,-0.10736,-0.12688,-0.11712,0.06832,-0.06832
-0.03904,0.06344,-0.08784,-0.06832,-0.0488,0.00488,-0.03904,-0.10736,-0.12688,-0.11712,0.06832,-0.06832
-0.03904,0.06344,-0.08784,-0.06832,-0.0488,0.00488,-0.03904,-0.10736,-0.12688,-0.11712,0.06832,-0.06832
-0.02928,0.05368,-0.07808,-0.06344,-0.0488,0.00976,-0.02928,-0.0976,-0.12688,-0.11712,0.07808,-0.06832
-0.01952,0.04392,-0.06832,-0.05856,-0.0488,0.01464,-0.02928,-0.0976,-0.12688,-0.11712,0.07808,-0.06832
-0.00976,0.03416,-0.05856,-0.05368,-0.0488,0.01952,-0.01952,-0.0976,-0.11712,-0.10736,0.07808,-0.05856
-0.00976,0.02684,-0.04392,-0.03904,-0.03416,0.0122,-0.01464,-0.09272,-0.10248,-0.0976,0.07808,-0.05368
-0.01464,0.0244,-0.03416,-0.02684,-0.01952,0.00244,-0.00488,-0.06832,-0.09272,-0.08296,0.0976,-0.0488
-0.0244,0.02684,-0.02928,-0.01708,-0.00488,-0.00976,0.00488,-0.06344,-0.08296,-0.08296,0.0976,-0.04392
-0.0244,0.02684,-0.02928,-0.01708,-0.00488,-0.00976,0,-0.0732,-0.08296,-0.08296,0.09272,-0.04392
-0.03416,0.02928,-0.0244,-0.00732,0.00976,-0.02196,0.00488,-0.0732,-0.08296,-0.08784,0.09272,-0.04392
-0.01952,0.02196,-0.0244,-0.01464,-0.00488,-0.00732,0.01464,-0.0732,-0.09272,-0.08784,0.08784,-0.04392
-0.01952,0.02196,-0.0244,-0.01464,-0.00488,-0.00732,0.01464,-0.0732,-0.0976,-0.08296,0.08784,-0.04392
-0.01464,0.01952,-0.0244,-0.01708,-0.00976,-0.00244,0.01464,-0.06344,-0.08296,-0.0732,0.0976,-0.02928
-0.00976,0.01464,-0.01952,-0.01464,-0.00976,0,0.00976,-0.05856,-0.07808,-0.06832,0.10248,-0.0244
0.01952,-0.00976,0,-0.00976,-0.01952,0.01952,-0.00488,-0.05368,-0.06832,-0.05856,0.11224,-0.02928
0.03416,-0.0244,0.01464,-0.00244,-0.01952,0.02684,-0.01952,-0.0488,-0.06344,-0.05368,0.122,-0.01952
0.0244,-0.00976,-0.00488,-0.01708,-0.02928,0.02684,-0.03904,-0.06832,-0.06344,-0.06344,0.11712,-0.00976
0.00488,0,-0.00488,-0.00732,-0.00976,0.00732,-0.05368,-0.08784,-0.08296,-0.06832,0.11224,-0.01464
0.00488,0.01708,-0.03904,-0.04148,-0.04392,0.0244,-0.05856,-0.13176,-0.12688,-0.10736,0.08296,-0.03416
0.00976,0.01952,-0.0488,-0.05368,-0.05856,0.03416,-0.05856,-0.13176,-0.13664,-0.11224,0.08296,-0.03904
0,0.01708,-0.03416,-0.03416,-0.03416,0.01708,-0.04392,-0.0976,-0.10248,-0.09272,0.0976,-0.0244
-0.00976,0.02196,-0.03416,-0.02928,-0.0244,0.00732,-0.02928,-0.0732,-0.07808,-0.06832,0.11712,-0.01952
0,0.01464,-0.02928,-0.02928,-0.02928,0.01464,-0.03416,-0.0732,-0.07808,-0.06832,0.10736,-0.01952
0.00488,0.01464,-0.03416,-0.0366,-0.03904,0.02196,-0.02928,-0.06832,-0.08784,-0.06832,0.10736,-0.01464
0.01464,0.0122,-0.03904,-0.04636,-0.05368,0.03416,-0.02928,-0.07808,-0.09272,-0.08296,0.09272,-0.02928
-0.00976,0.04392,-0.07808,-0.0732,-0.06832,0.02928,-0.03416,-0.08784,-0.11224,-0.10736,0.0732,-0.05368
-0.0244,0.05856,-0.09272,-0.08052,-0.06832,0.02196,-0.03904,-0.10736,-0.13664,-0.11712,0.05856,-0.05856
-0.02928,0.06832,-0.10736,-0.09272,-0.07808,0.0244,-0.04392,-0.122,-0.14152,-0.13664,0.05368,-0.06832
-0.02928,0.06832,-0.10736,-0.09272,-0.07808,0.0244,-0.03904,-0.122,-0.15128,-0.14152,0.05368,-0.07808
-0.02928,0.06832,-0.10736,-0.09272,-0.07808,0.0244,-0.04392,-0.13176,-0.16592,-0.1464,0.0488,-0.07808
-0.03416,0.06832,-0.10248,-0.0854,-0.06832,0.01708,-0.05368,-0.13176,-0.16592,-0.15616,0.03904,-0.08784
-0.03416,0.06832,-0.10248,-0.0854,-0.06832,0.01708,-0.0488,-0.12688,-0.16104,-0.15616,0.03904,-0.08784
-0.03416,0.08052,-0.12688,-0.1098,-0.09272,0.02928,-0.0488,-0.12688,-0.16104,-0.15128,0.03904,-0.08296
-0.03904,0.08296,-0.12688,-0.10736,-0.08784,0.0244,-0.0488,-0.13176,-0.16592,-0.15128,0.03416,-0.08296
-0.03904,0.08052,-0.122,-0.10248,-0.08296,0.02196,-0.0488,-0.13176,-0.16592,-0.16104,0.0244,-0.08784
-0.03416,0.07808,-0.122,-0.10492,-0.08784,0.02684,-0.0488,-0.12688,-0.16592,-0.16104,0.01952,-0.08296
-0.0488,0.09028,-0.13176,-0.10736,-0.08296,0.01708,-0.03904,-0.12688,-0.15616,-0.15128,0.02928,-0.08296
-0.0488,0.09028,-0.13176,-0.10736,-0.08296,0.01708,-0.03904,-0.13664,-0.15128,-0.15128,0.02928,-0.08296
-0.03416,0.06832,-0.10248,-0.0854,-0.06832,0.01708,-0.03416,-0.11712,-0.16104,-0.13664,0.03416,-0.0732
-0.03416,0.08052,-0.12688,-0.1098,-0.09272,0.02928,-0.03904,-0.11712,-0.16592,-0.14152,0.02928,-0.0732
-0.02928,0.0732,-0.11712,-0.10248,-0.08784,0.02928,-0.04392,-0.122,-0.16104,-0.15128,0.01952,-0.08296
-0.02928,0.07808,-0.12688,-0.11224,-0.0976,0.03416,-0.04392,-0.122,-0.16104,-0.15128,0.0244,-0.09272
-0.04392,0.08296,-0.122,-0.10004,-0.07808,0.01708,-0.03904,-0.122,-0.16104,-0.15128,0.02928,-0.08296
-0.05368,0.09516,-0.13664,-0.1098,-0.08296,0.01464,-0.04392,-0.122,-0.16104,-0.15128,0.03416,-0.08296
-0.01464,0.06344,-0.11224,-0.10492,-0.0976,0.04148,-0.0244,-0.0976,-0.15128,-0.13176,0.04392,-0.06832
-0.01464,0.08296,-0.15128,-0.14396,-0.13664,0.061,-0.00488,-0.08784,-0.20008,-0.19032,-0.00976,-0.10736
-0.01464,0.13176,-0.24888,-0.24156,-0.23424,0.1098,0.08784,-0.00976,-0.25376,-0.29768,-0.0976,-0.18056
-0.00488,0.16348,-0.32208,-0.31964,-0.3172,0.15616,0.2196,0.18056,-0.25864,-0.36112,-0.15616,-0.23912
0.03904,0.13176,-0.30256,-0.32208,-0.3416,0.19032,0.4148,0.49776,-0.08296,-0.28304,-0.11712,-0.1952
0.10248,0.05612,-0.21472,-0.26596,-0.3172,0.20984,0.5612,0.71736,0.15616,-0.09272,0.02928,-0.0976
0.23424,-0.17568,0.11712,0,-0.11712,0.17568,0.5124,0.732,0.56608,0.31232,0.37088,0.16592
0.2928,-0.37088,0.44896,0.30256,0.15616,0.06832,0.35624,0.6344,0.93696,0.77104,0.76128,0.44408
0.31232,-0.58072,0.84912,0.69296,0.5368,-0.11224,-0.01464,0.32696,1.17608,1.22976,1.20048,0.80032
0.32696,-0.85156,1.37616,1.21268,1.0492,-0.36112,-0.61,-0.13664,1.52256,1.79096,1.65432,1.14192
0.22936,-0.93452,1.63968,1.525,1.41032,-0.59048,-1.00528,-0.55144,1.8056,2.13256,1.88368,1.2932
0.18544,-0.85644,1.52744,1.43472,1.342,-0.57828,-1.2444,-0.87352,1.82512,2.1716,1.84952,1.2688
0.11224,-0.671,1.22976,1.17364,1.11752,-0.50264,-1.2932,-1.08824,1.2444,1.59576,1.44936,0.99552
-0.05368,-0.34404,0.74176,0.7686,0.79544,-0.42456,-1.1468,-1.29808,0.10248,0.53192,0.76128,0.5612
-0.10248,-0.10736,0.3172,0.36844,0.41968,-0.26108,-0.9272,-1.15656,-0.50264,-0.15128,0.23912,0.1952
-0.0732,0,0.0732,0.1098,0.1464,-0.1098,-0.70272,-0.94672,-0.61,-0.30256,0.03904,0.03416
-0.06832,0.06344,-0.05856,-0.0244,0.00976,-0.03904,-0.52704,-0.732,-0.51728,-0.30256,-0.00488,-0.03904
-0.0244,0.0488,-0.0732,-0.061,-0.0488,0.0122,-0.32696,-0.4636,-0.36112,-0.22936,0.02928,-0.05856
-0.04392,0.07564,-0.10736,-0.0854,-0.06344,0.00976,-0.20496,-0.28304,-0.23424,-0.18056,0.03416,-0.05856
0,0.02684,-0.05368,-0.05368,-0.05368,0.02684,-0.10736,-0.16592,-0.11224,-0.0976,0.08784,-0.02928
-0.03904,0.04392,-0.0488,-0.02928,-0.00976,-0.01464,-0.04392,-0.10248,-0.10248,-0.07808,0.0976,-0.02928
-0.03904,0.04636,-0.05368,-0.03416,-0.01464,-0.0122,0.0244,-0.0244,-0.09272,-0.08784,0.09272,-0.03904
-0.02928,0.05124,-0.0732,-0.05856,-0.04392,0.00732,0.02928,0.00488,-0.08784,-0.09272,0.05856,-0.0488
-0.00976,0.03904,-0.06832,-0.06344,-0.05856,0.0244,0.01952,-0.00488,-0.08296,-0.10736,0.05368,-0.0488
-0.01952,0.04148,-0.06344,-0.05368,-0.04392,0.0122,0.01952,-0.00976,-0.07808,-0.10248,0.06344,-0.04392
-0.00976,0.0366,-0.06344,-0.05856,-0.05368,0.02196,0.03904,0.01952,-0.08784,-0.10248,0.06344,-0.05368
-0.00488,0.03904,-0.0732,-0.07076,-0.06832,0.03172,0.05368,0.03416,-0.08784,-0.11224,0.05368,-0.05368
-0.00976,0.04636,-0.08296,-0.07808,-0.0732,0.03172,0.04392,0.02928,-0.08296,-0.10736,0.05368,-0.06344
-0.01952,0.05368,-0.08784,-0.07808,-0.06832,0.0244,0.04392,0.02928,-0.0732,-0.10736,0.05368,-0.06344
-0.02928,0.05856,-0.08784,-0.0732,-0.05856,0.01464,0.05856,0.03416,-0.08296,-0.10248,0.0488,-0.06344
-0.02928,0.061,-0.09272,-0.07808,-0.06344,0.01708,0.06344,0.03904,-0.08296,-0.10736,0.04392,-0.06344
-0.0244,0.05368,-0.08296,-0.07076,-0.05856,0.01708,0.06344,0.06344,-0.06344,-0.0976,0.05368,-0.06344
-0.0244,0.05124,-0.07808,-0.06588,-0.05368,0.01464,0.06832,0.06344,-0.05856,-0.0976,0.06344,-0.05856
-0.00488,0.02928,-0.05368,-0.05124,-0.0488,0.02196,0.0732,0.06832,-0.05856,-0.10248,0.05368,-0.05368
-0.01464,0.04392,-0.0732,-0.06588,-0.05856,0.02196,0.0732,0.0732,-0.05856,-0.10736,0.0488,-0.05856
-0.00976,0.03904,-0.06832,-0.06344,-0.05856,0.0244,0.07808,0.0732,-0.05856,-0.09272,0.05856,-0.05368
-0.0244,0.0488,-0.0732,-0.061,-0.0488,0.0122,0.07808,0.0732,-0.05368,-0.08784,0.06344,-0.05368
-0.00488,0.0366,-0.06832,-0.06588,-0.06344,0.02928,0.06832,0.0732,-0.05368,-0.09272,0.06832,-0.05368
-0.01464,0.04392,-0.0732,-0.06588,-0.05856,0.02196,0.0732,0.07808,-0.0488,-0.09272,0.06344,-0.05368
-0.00976,0.03904,-0.06832,-0.06344,-0.05856,0.0244,0.08296,0.09272,-0.03904,-0.08296,0.06344,-0.0488
-0.00976,0.03416,-0.05856,-0.05368,-0.0488,0.01952,0.09272,0.10248,-0.02928,-0.08296,0.06832,-0.0488
-0.00976,0.03904,-0.06832,-0.06344,-0.05856,0.0244,0.08784,0.0976,-0.03904,-0.07808,0.06832,-0.03416
-0.00976,0.03904,-0.06832,-0.06344,-0.05856,0.0244,0.09272,0.10736,-0.03904,-0.0732,0.0732,-0.03416
0.00488,0.02928,-0.06344,-0.06588,-0.06832,0.0366,0.0976,0.122,-0.01952,-0.0732,0.0732,-0.04392
0.00488,0.02684,-0.05856,-0.061,-0.06344,0.03416,0.0976,0.12688,-0.00976,-0.06344,0.0732,-0.04392
0,0.02928,-0.05856,-0.05856,-0.05856,0.02928,0.08784,0.122,-0.01952,-0.0732,0.06832,-0.03904
-0.00976,0.03416,-0.05856,-0.05368,-0.0488,0.01952,0.09272,0.12688,-0.01952,-0.06832,0.06832,-0.03904
0,0.02684,-0.05368,-0.05368,-0.05368,0.02684,0.10736,0.14152,0,-0.06832,0.07808,-0.03416
0,0.02928,-0.05856,-0.05856,-0.05856,0.02928,0.11224,0.15128,0.00976,-0.05856,0.09272,-0.03416
-0.00976,0.03416,-0.05856,-0.05368,-0.0488,0.01952,0.11224,0.15616,0.01464,-0.0488,0.0976,-0.02928
-0.00488,0.02928,-0.05368,-0.05124,-0.0488,0.02196,0.122,0.16592,0.0244,-0.0488,0.09272,-0.0244
-0.00488,0.0244,-0.04392,-0.04148,-0.03904,0.01708,0.122,0.17568,0.02928,-0.0488,0.0976,-0.01952
-0.00488,0.0244,-0.04392,-0.04148,-0.03904,0.01708,0.12688,0.18544,0.03904,-0.03416,0.10736,-0.01464
0.00976,0.00976,-0.02928,-0.03416,-0.03904,0.0244,0.14152,0.20496,0.0488,-0.02928,0.11224,-0.00976
0.02928,-0.00732,-0.01464,-0.02928,-0.04392,0.0366,0.15128,0.21472,0.05856,-0.01952,0.11712,-0.00976
0.00488,0.00732,-0.01952,-0.02196,-0.0244,0.01464,0.14152,0.2196,0.06832,-0.0244,0.11712,-0.00488
0,0.00976,-0.01952,-0.01952,-0.01952,0.00976,0.13664,0.23912,0.08784,-0.01464,0.13176,-0.00488
0.00976,0,-0.00976,-0.01464,-0.01952,0.01464,0.15128,0.25864,0.09272,0.00488,0.14152,0
0.01464,-0.00244,-0.00976,-0.01708,-0.0244,0.01952,0.15616,0.2684,0.10248,0.01464,0.1464,0.00976
0.01464,-0.00976,0.00488,-0.00244,-0.00976,0.0122,0.16104,0.28304,0.10736,0.0244,0.15616,0.0244
0.01464,-0.01464,0.01464,0.00732,0,0.00732,0.16592,0.29768,0.12688,0.03904,0.1708,0.02928
0.03416,-0.03172,0.02928,0.0122,-0.00488,0.01952,0.18544,0.32208,0.15128,0.05856,0.18544,0.0488
0.0488,-0.04148,0.03416,0.00976,-0.01464,0.03172,0.18544,0.33184,0.16104,0.06832,0.19032,0.0488
0.03904,-0.04392,0.0488,0.02928,0.00976,0.01464,0.1952,0.35624,0.17568,0.08296,0.20984,0.06344
0.04392,-0.05368,0.06344,0.04148,0.01952,0.0122,0.1952,0.366,0.1952,0.0976,0.22448,0.07808
0.05856,-0.06832,0.07808,0.0488,0.01952,0.01952,0.20984,0.38552,0.2196,0.11712,0.22936,0.07808
0.06832,-0.08296,0.0976,0.06344,0.02928,0.01952,0.20984,0.40504,0.244,0.14152,0.24888,0.08784
0.0732,-0.09272,0.11224,0.07564,0.03904,0.01708,0.20984,0.42944,0.2684,0.1708,0.27816,0.11224
0.08296,-0.10736,0.13176,0.09028,0.0488,0.01708,0.2196,0.44896,0.28304,0.19032,0.28792,0.13176
0.06344,-0.09272,0.122,0.09028,0.05856,0.00244,0.20496,0.44896,0.30256,0.20008,0.31232,0.13664
0.05856,-0.09028,0.122,0.09272,0.06344,-0.00244,0.1952,0.44896,0.3172,0.22448,0.3172,0.14152
0.07808,-0.11224,0.1464,0.10736,0.06832,0.00488,0.20008,0.47336,0.35136,0.25376,0.34648,0.1708
0.08784,-0.13176,0.17568,0.13176,0.08784,0,0.20008,0.48312,0.366,0.2684,0.36112,0.18056
0.10248,-0.14396,0.18544,0.1342,0.08296,0.00976,0.1952,0.488,0.38552,0.2928,0.3904,0.20008
0.11712,-0.16836,0.2196,0.16104,0.10248,0.00732,0.19032,0.488,0.39528,0.31232,0.40992,0.20496
0.14152,-0.19032,0.23912,0.16836,0.0976,0.02196,0.19032,0.49288,0.4148,0.32696,0.4148,0.22448
0.15128,-0.2074,0.26352,0.18788,0.11224,0.01952,0.19032,0.49288,0.42456,0.3416,0.43432,0.244
0.12688,-0.18788,0.24888,0.18544,0.122,0.00244,0.17568,0.47824,0.43432,0.35136,0.43432,0.24888
0.10736,-0.17324,0.23912,0.18544,0.13176,-0.0122,0.16104,0.4636,0.4392,0.366,0.44408,0.25376
0.11712,-0.17812,0.23912,0.18056,0.122,-0.00244,0.15616,0.4636,0.4392,0.366,0.44408,0.25376
0.122,-0.18544,0.24888,0.18788,0.12688,-0.00244,0.13664,0.44896,0.43432,0.366,0.44896,0.24888
0.12688,-0.18544,0.244,0.18056,0.11712,0.00488,0.122,0.42456,0.42944,0.366,0.44896,0.24888
0.122,-0.183,0.244,0.183,0.122,0,0.11224,0.40016,0.40992,0.35136,0.42944,0.244
0.11224,-0.17324,0.23424,0.17812,0.122,-0.00488,0.11224,0.36112,0.3904,0.3416,0.40992,0.23424
0.10248,-0.1586,0.21472,0.16348,0.11224,-0.00488,0.10248,0.33184,0.36112,0.32208,0.3904,0.21472
0.08296,-0.13176,0.18056,0.13908,0.0976,-0.00732,0.08296,0.2928,0.32208,0.27816,0.34648,0.18056
0.06344,-0.10248,0.14152,0.1098,0.07808,-0.00732,0.07808,0.25376,0.28792,0.22448,0.3172,0.15128
0.06832,-0.10248,0.13664,0.10248,0.06832,0,0.08784,0.2196,0.24888,0.1952,0.27816,0.13176
0.04392,-0.06832,0.09272,0.07076,0.0488,-0.00244,0.0732,0.18056,0.20008,0.15616,0.23912,0.10248
0.05368,-0.06832,0.08296,0.05612,0.02928,0.0122,0.06344,0.14152,0.16104,0.11712,0.21472,0.0976
0.04392,-0.05368,0.06344,0.04148,0.01952,0.0122,0.05368,0.11224,0.122,0.07808,0.19032,0.0732
0.01464,-0.01708,0.01952,0.0122,0.00488,0.00488,0.03904,0.07808,0.07808,0.03904,0.16104,0.0488
-0.00976,0.01464,-0.01952,-0.01464,-0.00976,0,0.02928,0.0488,0.04392,0.01464,0.122,0.01464
0,0.00488,-0.00976,-0.00976,-0.00976,0.00488,0.02928,0.03416,0.01952,-0.00488,0.11224,0.00488
0,0.00732,-0.01464,-0.01464,-0.01464,0.00732,0.01952,0.00976,0.00488,-0.0244,0.09272,0
0,0.01708,-0.03416,-0.03416,-0.03416,0.01708,0.01952,-0.00488,-0.01952,-0.03904,0.08296,-0.00488
-0.00976,0.02684,-0.04392,-0.03904,-0.03416,0.0122,0.00976,-0.02928,-0.03904,-0.05856,0.07808,-0.01464
-0.01952,0.0366,-0.05368,-0.04392,-0.03416,0.00732,-0.00976,-0.03904,-0.05368,-0.0732,0.05856,-0.02928
-0.0244,0.04392,-0.06344,-0.05124,-0.03904,0.00732,-0.01464,-0.0488,-0.06344,-0.08784,0.05856,-0.03416
-0.00976,0.03172,-0.05368,-0.0488,-0.04392,0.01708,-0.00976,-0.05856,-0.0732,-0.09272,0.04392,-0.03904
-0.01464,0.0366,-0.05856,-0.05124,-0.04392,0.01464,-0.01464,-0.06344,-0.07808,-0.09272,0.03904,-0.03904
-0.00976,0.03416,-0.05856,-0.05368,-0.0488,0.01952,-0.01464,-0.05856,-0.07808,-0.09272,0.04392,-0.02928
-0.00976,0.0366,-0.06344,-0.05856,-0.05368,0.02196,-0.01464,-0.06832,-0.08784,-0.10248,0.04392,-0.03416
-0.01952,0.04636,-0.0732,-0.06344,-0.05368,0.01708,-0.01952,-0.06832,-0.09272,-0.11224,0.03416,-0.03416
-0.02928,0.05124,-0.0732,-0.05856,-0.04392,0.00732,-0.01952,-0.06832,-0.09272,-0.10736,0.02928,-0.03416
-0.02928,0.04392,-0.05856,-0.04392,-0.02928,0,-0.00976,-0.06832,-0.08296,-0.10248,0.03416,-0.03416
-0.0244,0.04392,-0.06344,-0.05124,-0.03904,0.00732,-0.00976,-0.06832,-0.08296,-0.0976,0.03416,-0.03904
-0.03416,0.05856,-0.08296,-0.06588,-0.0488,0.00732,-0.00976,-0.06832,-0.08784,-0.10736,0.03416,-0.03416
-0.03416,0.05612,-0.07808,-0.061,-0.04392,0.00488,-0.01464,-0.06344,-0.08784,-0.10736,0.02928,-0.03416
-0.02928,0.05124,-0.0732,-0.05856,-0.04392,0.00732,-0.00976,-0.0732,-0.0976,-0.10736,0.0244,-0.04392
-0.0244,0.0488,-0.0732,-0.061,-0.0488,0.0122,-0.00488,-0.06832,-0.09272,-0.10248,0.0244,-0.04392
-0.02928,0.05612,-0.08296,-0.06832,-0.05368,0.0122,-0.01464,-0.06832,-0.08296,-0.10248,0.03416,-0.04392
-0.02928,0.05856,-0.08784,-0.0732,-0.05856,0.01464,-0.00976,-0.06344,-0.07808,-0.10736,0.03904,-0.03904
-0.01952,0.04392,-0.06832,-0.05856,-0.0488,0.01464,0,-0.05368,-0.07808,-0.09272,0.03904,-0.02928
-0.01464,0.03904,-0.06344,-0.05612,-0.0488,0.01708,0.00976,-0.05368,-0.08296,-0.09272,0.03904,-0.03416
0,0.02928,-0.05856,-0.05856,-0.05856,0.02928,0.00488,-0.04392,-0.07808,-0.09272,0.03904,-0.03416
-0.00976,0.03416,-0.05856,-0.05368,-0.0488,0.01952,0.00488,-0.04392,-0.07808,-0.09272,0.03416,-0.03416
-0.01952,0.04636,-0.0732,-0.06344,-0.05368,0.01708,-0.00488,-0.04392,-0.07808,-0.10248,0.03416,-0.03416
-0.01952,0.04636,-0.0732,-0.06344,-0.05368,0.01708,-0.00488,-0.03904,-0.07808,-0.10248,0.03416,-0.03416
-0.02928,0.04636,-0.06344,-0.0488,-0.03416,0.00244,0.00976,-0.03904,-0.07808,-0.08784,0.03416,-0.03416
-0.0244,0.04392,-0.06344,-0.05124,-0.03904,0.00732,0.01952,-0.02928,-0.0732,-0.08784,0.03416,-0.02928
-0.0244,0.04392,-0.06344,-0.05124,-0.03904,0.00732,0,-0.03904,-0.08296,-0.0976,0.0244,-0.03904
-0.02928,0.04636,-0.06344,-0.0488,-0.03416,0.00244,0,-0.03904,-0.07808,-0.0976,0.02928,-0.03904
-0.01952,0.03904,-0.05856,-0.0488,-0.03904,0.00976,0.00976,-0.03416,-0.07808,-0.10248,0.0244,-0.03904
-0.0244,0.04392,-0.06344,-0.05124,-0.03904,0.00732,0.01464,-0.03416,-0.0732,-0.10248,0.02928,-0.04392
-0.01464,0.0366,-0.05856,-0.05124,-0.04392,0.01464,0.0244,-0.0244,-0.0732,-0.0976,0.02928,-0.02928
-0.01952,0.0366,-0.05368,-0.04392,-0.03416,0.00732,0.0244,-0.0244,-0.07808,-0.09272,0.03416,-0.02928
-0.02928,0.04636,-0.06344,-0.0488,-0.03416,0.00244,0.01464,-0.03416,-0.07808,-0.10248,0.0244,-0.03904
-0.0244,0.0488,-0.0732,-0.061,-0.0488,0.0122,0.01952,-0.03416,-0.07808,-0.0976,0.01464,-0.02928
-0.03904,0.05612,-0.0732,-0.05368,-0.03416,-0.00244,0,-0.03416,-0.08784,-0.0976,0.0244,-0.04392
-0.02928,0.04148,-0.05368,-0.03904,-0.0244,-0.00244,0.00976,-0.03416,-0.08296,-0.0976,0.0244,-0.04392
-0.01952,0.04148,-0.06344,-0.05368,-0.04392,0.0122,0.01464,-0.03904,-0.07808,-0.09272,0.03416,-0.03904
-0.02928,0.04148,-0.05368,-0.03904,-0.0244,-0.00244,0.01464,-0.03416,-0.07808,-0.08784,0.04392,-0.0244
-0.01464,0.03904,-0.06344,-0.05612,-0.0488,0.01708,0.01952,-0.03416,-0.07808,-0.08296,0.04392,-0.01952
-0.01952,0.04148,-0.06344,-0.05368,-0.04392,0.0122,0.01952,-0.03904,-0.07808,-0.09272,0.03904,-0.0244
-0.0244,0.05124,-0.07808,-0.06588,-0.05368,0.01464,0.01464,-0.03904,-0.0732,-0.08784,0.04392,-0.02928
-0.03416,0.05612,-0.07808,-0.061,-0.04392,0.00488,0,-0.03904,-0.07808,-0.08784,0.03904,-0.0244
-0.0244,0.04392,-0.06344,-0.05124,-0.03904,0.00732,0.00488,-0.03904,-0.08296,-0.08784,0.0244,-0.02928
-0.01952,0.04148,-0.06344,-0.05368,-0.04392,0.0122,0.00488,-0.03904,-0.08296,-0.09272,0.0244,-0.03904
-0.01464,0.03416,-0.05368,-0.04636,-0.03904,0.0122,0,-0.04392,-0.08784,-0.09272,0.03904,-0.02928
-0.00488,0.02684,-0.0488,-0.04636,-0.04392,0.01952,0.00488,-0.0488,-0.08784,-0.09272,0.03904,-0.02928
-0.01464,0.0366,-0.05856,-0.05124,-0.04392,0.01464,0,-0.04392,-0.08784,-0.09272,0.03416,-0.0244
-0.00976,0.03172,-0.05368,-0.0488,-0.04392,0.01708,0,-0.0488,-0.09272,-0.0976,0.03416,-0.0244
-0.00976,0.02684,-0.04392,-0.03904,-0.03416,0.0122,0,-0.05368,-0.09272,-0.0976,0.0244,-0.03416
-0.01464,0.03172,-0.0488,-0.04148,-0.03416,0.00976,-0.00488,-0.05856,-0.0976,-0.10248,0.0244,-0.02928
-0.00976,0.03416,-0.05856,-0.05368,-0.0488,0.01952,-0.00976,-0.05368,-0.08784,-0.10248,0.0244,-0.0244
-0.00976,0.03904,-0.06832,-0.06344,-0.05856,0.0244,-0.00976,-0.05856,-0.09272,-0.10736,0.0244,-0.02928
-0.02928,0.05124,-0.0732,-0.05856,-0.04392,0.00732,-0.00976,-0.06832,-0.09272,-0.0976,0.0244,-0.02928
-0.01952,0.0488,-0.07808,-0.06832,-0.05856,0.01952,-0.01464,-0.06832,-0.09272,-0.0976,0.0244,-0.02928
-0.01952,0.04636,-0.0732,-0.06344,-0.05368,0.01708,-0.00488,-0.06344,-0.0976,-0.0976,0.0244,-0.02928
-0.0244,0.04392,-0.06344,-0.05124,-0.03904,0.00732,-0.00976,-0.06832,-0.10248,-0.0976,0.0244,-0.03416
-0.0244,0.0488,-0.0732,-0.061,-0.0488,0.0122,-0.00976,-0.06832,-0.10736,-0.11712,0.01464,-0.03904
-0.02928,0.05612,-0.08296,-0.06832,-0.05368,0.0122,-0.01464,-0.0732,-0.11712,-0.11712,0.01464,-0.03904
-0.02928,0.05612,-0.08296,-0.06832,-0.05368,0.0122,-0.0244,-0.08296,-0.11712,-0.11712,0.01464,-0.0488
-0.0244,0.05368,-0.08296,-0.07076,-0.05856,0.01708,-0.0244,-0.08296,-0.11712,-0.11712,0.01464,-0.04392
-0.0244,0.05612,-0.08784,-0.07564,-0.06344,0.01952,-0.01464,-0.08296,-0.11712,-0.122,0,-0.04392
-0.0244,0.05368,-0.08296,-0.07076,-0.05856,0.01708,-0.01464,-0.08296,-0.11712,-0.11712,0.00488,-0.04392
-0.00976,0.0366,-0.06344,-0.05856,-0.05368,0.02196,-0.00976,-0.0732,-0.10736,-0.10736,0.01464,-0.04392
0,0.0244,-0.0488,-0.0488,-0.0488,0.0244,-0.00976,-0.08296,-0.10736,-0.11224,0.00488,-0.03904
-0.01464,0.04392,-0.0732,-0.06588,-0.05856,0.02196,-0.01464,-0.07808,-0.11712,-0.11224,0.00488,-0.04392
-0.03416,0.05856,-0.08296,-0.06588,-0.0488,0.00732,-0.01952,-0.07808,-0.11712,-0.11224,0.00976,-0.04392
-0.03416,0.05612,-0.07808,-0.061,-0.04392,0.00488,-0.01952,-0.07808,-0.10736,-0.11224,0.00976,-0.04392
-0.03416,0.05612,-0.07808,-0.061,-0.04392,0.00488,-0.01464,-0.07808,-0.11224,-0.10736,0.00976,-0.03416
-0.03416,0.05856,-0.08296,-0.06588,-0.0488,0.00732,-0.00488,-0.08784,-0.11224,-0.11712,0,-0.04392
-0.01952,0.05368,-0.08784,-0.07808,-0.06832,0.0244,-0.00488,-0.08784,-0.11712,-0.11712,0,-0.04392
-0.02928,0.06344,-0.0976,-0.08296,-0.06832,0.01952,-0.01464,-0.08784,-0.122,-0.122,0.00976,-0.04392
-0.03904,0.06832,-0.0976,-0.07808,-0.05856,0.00976,-0.01952,-0.0976,-0.12688,-0.122,0.00488,-0.04392
-0.02928,0.05856,-0.08784,-0.0732,-0.05856,0.01464,-0.01952,-0.08784,-0.11712,-0.11712,0,-0.04392
-0.00976,0.04148,-0.0732,-0.06832,-0.06344,0.02684,-0.01952,-0.08784,-0.11712,-0.11712,0.00488,-0.03904
-0.02928,0.05856,-0.08784,-0.0732,-0.05856,0.01464,-0.01952,-0.08296,-0.11712,-0.11712,-0.00488,-0.03416
-0.03904,0.06588,-0.09272,-0.0732,-0.05368,0.00732,-0.02928,-0.08784,-0.11712,-0.11712,0,-0.03904
-0.0244,0.05368,-0.08296,-0.07076,-0.05856,0.01708,-0.02928,-0.09272,-0.12688,-0.12688,-0.00488,-0.04392
-0.01464,0.0488,-0.08296,-0.07564,-0.06832,0.02684,-0.02928,-0.09272,-0.12688,-0.122,-0.00488,-0.05856
-0.01464,0.04636,-0.07808,-0.07076,-0.06344,0.0244,-0.01952,-0.08296,-0.11712,-0.11224,0.00976,-0.04392
-0.01464,0.04636,-0.07808,-0.07076,-0.06344,0.0244,-0.00976,-0.08296,-0.10736,-0.10736,0.00976,-0.03416
-0.0244,0.05612,-0.08784,-0.07564,-0.06344,0.01952,-0.01952,-0.09272,-0.11712,-0.11712,0.00976,-0.03904
-0.00976,0.0488,-0.08784,-0.08296,-0.07808,0.03416,-0.02928,-0.09272,-0.11712,-0.122,0.00976,-0.03904
-0.02928,0.061,-0.09272,-0.07808,-0.06344,0.01708,-0.01952,-0.08784,-0.12688,-0.12688,-0.00488,-0.03904
-0.02928,0.061,-0.09272,-0.07808,-0.06344,0.01708,-0.01952,-0.08784,-0.12688,-0.12688,-0.00488,-0.0488
-0.0244,0.05612,-0.08784,-0.07564,-0.06344,0.01952,-0.02928,-0.08784,-0.11712,-0.11712,-0.00976,-0.0488
-0.0244,0.05856,-0.09272,-0.08052,-0.06832,0.02196,-0.03416,-0.08784,-0.122,-0.122,-0.00976,-0.04392
-0.0244,0.05856,-0.09272,-0.08052,-0.06832,0.02196,-0.0244,-0.08784,-0.122,-0.122,-0.0244,-0.0488
-0.0244,0.05856,-0.09272,-0.08052,-0.06832,0.02196,-0.01952,-0.08784,-0.122,-0.122,-0.0244,-0.04392
-0.02928,0.061,-0.09272,-0.07808,-0.06344,0.01708,-0.03416,-0.0976,-0.13176,-0.13176,-0.01952,-0.04392
-0.02928,0.05856,-0.08784,-0.0732,-0.05856,0.01464,-0.03416,-0.0976,-0.13176,-0.13176,-0.00976,-0.0488
-0.03416,0.06344,-0.09272,-0.07564,-0.05856,0.0122,-0.01952,-0.08784,-0.122,-0.122,-0.00976,-0.0488
-0.03416,0.06832,-0.10248,-0.0854,-0.06832,0.01708,-0.01952,-0.08784,-0.122,-0.122,-0.01464,-0.04392
-0.02928,0.06588,-0.10248,-0.08784,-0.0732,0.02196,-0.03416,-0.09272,-0.12688,-0.12688,-0.01464,-0.05368
-0.0244,0.06344,-0.10248,-0.09028,-0.07808,0.02684,-0.02928,-0.09272,-0.12688,-0.122,-0.01464,-0.05856
-0.04392,0.07564,-0.10736,-0.0854,-0.06344,0.00976,-0.0244,-0.09272,-0.13664,-0.12688,-0.01952,-0.05368
-0.03904,0.07076,-0.10248,-0.08296,-0.06344,0.0122,-0.01952,-0.09272,-0.13664,-0.12688,-0.01952,-0.05368
0,0.02928,-0.05856,-0.05856,-0.05856,0.02928,0,-0.08296,-0.11712,-0.10248,-0.00488,-0.04392
-0.01952,0.04148,-0.06344,-0.05368,-0.04392,0.0122,-0.01952,-0.0976,-0.11224,-0.10248,-0.00488,-0.04392
-0.01952,0.04636,-0.0732,-0.06344,-0.05368,0.01708,-0.01952,-0.0976,-0.122,-0.11224,-0.01464,-0.05368
-0.02928,0.05612,-0.08296,-0.06832,-0.05368,0.0122,-0.01952,-0.08784,-0.12688,-0.11712,-0.00976,-0.0488
-0.02928,0.061,-0.09272,-0.07808,-0.06344,0.01708,-0.01952,-0.08784,-0.12688,-0.11712,-0.00976,-0.0488
-0.01952,0.05612,-0.09272,-0.08296,-0.0732,0.02684,-0.01952,-0.0976,-0.12688,-0.11712,-0.01952,-0.0488
-0.01952,0.05124,-0.08296,-0.0732,-0.06344,0.02196,-0.01952,-0.0976,-0.12688,-0.11712,-0.01952,-0.0488
-0.02928,0.061,-0.09272,-0.07808,-0.06344,0.01708,-0.01952,-0.0976,-0.13664,-0.11712,-0.01952,-0.0488
-0.02928,0.06588,-0.10248,-0.08784,-0.0732,0.02196,-0.01952,-0.0976,-0.13664,-0.11712,-0.01952,-0.0488
-0.01952,0.06344,-0.10736,-0.0976,-0.08784,0.03416,-0.02928,-0.0976,-0.12688,-0.12688,-0.02928,-0.05856
-0.01952,0.06344,-0.10736,-0.0976,-0.08784,0.03416,-0.02928,-0.0976,-0.12688,-0.12688,-0.02928,-0.05856
-0.0244,0.06588,-0.10736,-0.09516,-0.08296,0.02928,-0.02928,-0.0976,-0.13664,-0.11712,-0.01952,-0.05856
-0.03416,0.07076,-0.10736,-0.09028,-0.0732,0.01952,-0.02928,-0.0976,-0.13664,-0.11712,-0.01952,-0.05856
-0.03416,0.06588,-0.0976,-0.08052,-0.06344,0.01464,-0.01952,-0.0976,-0.12688,-0.11712,-0.01952,-0.0488
-0.0244,0.061,-0.0976,-0.0854,-0.0732,0.0244,-0.01952,-0.0976,-0.12688,-0.11712,-0.01952,-0.0488
-0.01952,0.05368,-0.08784,-0.07808,-0.06832,0.0244,-0.00976,-0.09272,-0.11712,-0.10736,-0.00976,-0.03904
-0.01952,0.04148,-0.06344,-0.05368,-0.04392,0.0122,-0.00488,-0.07808,-0.10248,-0.10736,-0.00976,-0.03416
-0.0244,0.03172,-0.03904,-0.02684,-0.01464,-0.00488,0.00488,-0.06832,-0.0976,-0.09272,-0.00976,-0.03904
-0.0244,0.02928,-0.03416,-0.02196,-0.00976,-0.00732,0.01464,-0.06344,-0.0976,-0.09272,-0.00976,-0.03416
-0.01464,0.02196,-0.02928,-0.02196,-0.01464,0,0.00976,-0.05368,-0.09272,-0.08296,0.00488,-0.03416
-0.0244,0.0244,-0.0244,-0.0122,0,-0.0122,0.01464,-0.05368,-0.09272,-0.08784,0.00488,-0.03416
-0.01952,0.02684,-0.03416,-0.0244,-0.01464,-0.00244,0.0244,-0.05368,-0.09272,-0.08784,0,-0.03416
-0.01952,0.02684,-0.03416,-0.0244,-0.01464,-0.00244,0.0244,-0.05368,-0.0976,-0.08296,0,-0.03416
-0.00976,0.01708,-0.0244,-0.01952,-0.01464,0.00244,0.0244,-0.04392,-0.08784,-0.0732,0.01952,-0.01952
0.00488,0.00732,-0.01952,-0.02196,-0.0244,0.01464,0.01952,-0.03904,-0.0732,-0.06832,0.0244,-0.01464
0.0244,-0.00244,-0.01952,-0.03172,-0.04392,0.03416,0.00488,-0.03904,-0.06344,-0.05856,0.0244,-0.01952
0.02928,-0.0122,-0.00488,-0.01952,-0.03416,0.03172,-0.00976,-0.04392,-0.06832,-0.05368,0.03416,-0.00976
0.00976,0.0122,-0.03416,-0.03904,-0.04392,0.02684,-0.03904,-0.06344,-0.08296,-0.06832,0.0244,-0.01952
-0.00976,0.03172,-0.05368,-0.0488,-0.04392,0.01708,-0.05368,-0.09272,-0.10248,-0.08296,0.00976,-0.0244
-0.01952,0.0488,-0.07808,-0.06832,-0.05856,0.01952,-0.06344,-0.12688,-0.13664,-0.11224,0,-0.0244
-0.00488,0.03172,-0.05856,-0.05612,-0.05368,0.0244,-0.05368,-0.11712,-0.13664,-0.10736,0.00976,-0.01952
0.01464,0.00732,-0.02928,-0.0366,-0.04392,0.02928,-0.03416,-0.08784,-0.11712,-0.09272,0.01952,-0.00488
0.0244,-0.00244,-0.01952,-0.03172,-0.04392,0.03416,-0.01952,-0.0732,-0.09272,-0.07808,0.03904,0
0.00976,0.00976,-0.02928,-0.03416,-0.03904,0.0244,-0.0244,-0.06832,-0.08784,-0.06832,0.02928,-0.00976
-0.01464,0.03416,-0.05368,-0.04636,-0.03904,0.0122,-0.01952,-0.0732,-0.08784,-0.06832,0.02928,-0.00488
-0.00976,0.04148,-0.0732,-0.06832,-0.06344,0.02684,-0.01952,-0.07808,-0.10248,-0.09272,0.00488,-0.02928
-0.0244,0.06344,-0.10248,-0.09028,-0.07808,0.02684,-0.0244,-0.08784,-0.122,-0.11712,-0.01464,-0.05368
-0.03416,0.0732,-0.11224,-0.09516,-0.07808,0.02196,-0.02928,-0.0976,-0.13664,-0.11712,-0.02928,-0.05856
-0.03904,0.08296,-0.12688,-0.10736,-0.08784,0.0244,-0.03416,-0.11224,-0.14152,-0.13664,-0.03416,-0.06832
-0.02928,0.07808,-0.12688,-0.11224,-0.0976,0.03416,-0.03904,-0.11224,-0.15128,-0.13176,-0.04392,-0.06832
-0.02928,0.07808,-0.12688,-0.11224,-0.0976,0.03416,-0.04392,-0.122,-0.16592,-0.13664,-0.0488,-0.06832
-0.0244,0.0732,-0.122,-0.1098,-0.0976,0.0366,-0.03416,-0.11224,-0.15616,-0.1464,-0.0488,-0.06832
-0.0244,0.0732,-0.122,-0.1098,-0.0976,0.0366,-0.02928,-0.10736,-0.15128,-0.1464,-0.0488,-0.06832
-0.03416,0.08052,-0.12688,-0.1098,-0.09272,0.02928,-0.02928,-0.10736,-0.16104,-0.14152,-0.03904,-0.06344
-0.03904,0.08296,-0.12688,-0.10736,-0.08784,0.0244,-0.02928,-0.11224,-0.16592,-0.14152,-0.04392,-0.06344
-0.03416,0.07808,-0.122,-0.10492,-0.08784,0.02684,-0.02928,-0.11224,-0.15616,-0.14152,-0.04392,-0.06832
-0.01952,0.07076,-0.122,-0.11224,-0.10248,0.04148,-0.02928,-0.10736,-0.15616,-0.14152,-0.0488,-0.06344
-0.03416,0.0854,-0.13664,-0.11956,-0.10248,0.03416,-0.03416,-0.11712,-0.16592,-0.14152,-0.05368,-0.07808
-0.04392,0.09516,-0.1464,-0.12444,-0.10248,0.02928,-0.04392,-0.12688,-0.16104,-0.14152,-0.06344,-0.08784
-0.03904,0.08052,-0.122,-0.10248,-0.08296,0.02196,-0.03904,-0.11712,-0.15128,-0.13664,-0.05368,-0.08784
-0.03904,0.09272,-0.1464,-0.12688,-0.10736,0.03416,-0.03416,-0.11712,-0.15616,-0.14152,-0.05856,-0.07808
-0.03904,0.09272,-0.1464,-0.12688,-0.10736,0.03416,-0.03416,-0.10248,-0.16104,-0.14152,-0.06832,-0.0732
-0.03904,0.0976,-0.15616,-0.13664,-0.11712,0.03904,-0.03416,-0.10248,-0.16104,-0.14152,-0.06344,-0.0732
-0.04392,0.09028,-0.13664,-0.11468,-0.09272,0.0244,-0.03904,-0.11224,-0.1708,-0.15128,-0.07808,-0.08296
-0.05368,0.0976,-0.14152,-0.11468,-0.08784,0.01708,-0.04392,-0.11224,-0.1708,-0.15128,-0.0732,-0.08296
-0.0244,0.0732,-0.122,-0.1098,-0.0976,0.0366,-0.01464,-0.0976,-0.15128,-0.15128,-0.06344,-0.07808
-0.00488,0.08784,-0.1708,-0.16836,-0.16592,0.08052,-0.00488,-0.07808,-0.20984,-0.20984,-0.10736,-0.11712
-0.03416,0.16104,-0.28792,-0.27084,-0.25376,0.1098,0.0976,0.00976,-0.26352,-0.30744,-0.20496,-0.1708
0.00488,0.17812,-0.36112,-0.36356,-0.366,0.18544,0.2196,0.20984,-0.24888,-0.36112,-0.25376,-0.2196
0.03904,0.13664,-0.31232,-0.33184,-0.35136,0.1952,0.40504,0.52704,-0.04392,-0.25376,-0.1952,-0.18544
0.13176,0.02684,-0.18544,-0.25132,-0.3172,0.22448,0.5612,0.74664,0.20496,-0.06344,-0.02928,-0.06832
0.20496,-0.15616,0.10736,0.00488,-0.0976,0.15128,0.50264,0.732,0.5856,0.36112,0.31232,0.18544
0.30256,-0.38552,0.46848,0.3172,0.16592,0.06832,0.33672,0.5856,0.94672,0.81008,0.69296,0.48312
0.32208,-0.61488,0.90768,0.74664,0.5856,-0.13176,0.00488,0.2684,1.18584,1.29808,1.15168,0.8296
0.27816,-0.8174,1.35664,1.21756,1.07848,-0.40016,-0.58072,-0.23424,1.52256,1.83,1.586,1.14192
0.20008,-0.90524,1.6104,1.51036,1.41032,-0.60512,-0.96624,-0.64904,1.76656,2.15208,1.7568,1.26392
0.1464,-0.793,1.4396,1.3664,1.2932,-0.5734,-1.18584,-0.94184,1.7568,2.1716,1.70312,1.21024
0.03416,-0.5734,1.11264,1.09556,1.07848,-0.52216,-1.21512,-1.15656,1.10776,1.51768,1.26392,0.90768
-0.0732,-0.305,0.6832,0.7198,0.7564,-0.4148,-1.06872,-1.30784,-0.01464,0.43432,0.57584,0.48312
-0.10248,-0.08296,0.2684,0.31964,0.37088,-0.23668,-0.88816,-1.17608,-0.57096,-0.20984,0.09272,0.1464
-0.0732,0.01464,0.04392,0.08052,0.11712,-0.09516,-0.66368,-0.91744,-0.61,-0.30256,-0.07808,0.00488
-0.10736,0.11224,-0.11712,-0.06344,-0.00976,-0.0488,-0.49776,-0.72224,-0.5368,-0.32208,-0.122,-0.05856
-0.06344,0.0976,-0.13176,-0.10004,-0.06832,0.00244,-0.3172,-0.4636,-0.36112,-0.23912,-0.0976,-0.06832
-0.03416,0.09028,-0.1464,-0.12932,-0.11224,0.03904,-0.20496,-0.2928,-0.244,-0.18056,-0.0732,-0.05856
-0.02928,0.05124,-0.0732,-0.05856,-0.04392,0.00732,-0.11712,-0.17568,-0.14152,-0.0976,-0.03904,-0.03904
0,0.01952,-0.03904,-0.03904,-0.03904,0.01952,-0.03416,-0.0732,-0.08296,-0.05856,0,-0.00976
-0.02928,0.05612,-0.08296,-0.06832,-0.05368,0.0122,0.00488,-0.0244,-0.09272,-0.08784,-0.03416,-0.0488
0,0.04148,-0.08296,-0.08296,-0.08296,0.04148,0.01952,0.01464,-0.08784,-0.09272,-0.03904,-0.0488
-0.01952,0.05856,-0.0976,-0.08784,-0.07808,0.02928,0.00976,-0.00488,-0.09272,-0.0976,-0.04392,-0.05856
-0.0488,0.07564,-0.10248,-0.07808,-0.05368,0.00244,0.00976,-0.00976,-0.08784,-0.09272,-0.03416,-0.05368
-0.02928,0.061,-0.09272,-0.07808,-0.06344,0.01708,0.03904,0.02928,-0.08784,-0.09272,-0.03416,-0.05368
-0.0244,0.05856,-0.09272,-0.08052,-0.06832,0.02196,0.06344,0.05368,-0.08784,-0.10248,-0.04392,-0.05368
-0.00976,0.04636,-0.08296,-0.07808,-0.0732,0.03172,0.05368,0.0488,-0.0732,-0.08784,-0.05368,-0.05368
-0.00976,0.04392,-0.07808,-0.0732,-0.06832,0.02928,0.05368,0.0488,-0.06344,-0.08784,-0.05368,-0.05368
-0.02928,0.05856,-0.08784,-0.0732,-0.05856,0.01464,0.05856,0.05368,-0.0732,-0.08296,-0.0488,-0.06344
-0.02928,0.06588,-0.10248,-0.08784,-0.0732,0.02196,0.06344,0.05856,-0.0732,-0.08784,-0.05368,-0.06344
-0.01464,0.05368,-0.09272,-0.0854,-0.07808,0.03172,0.06344,0.06344,-0.06344,-0.08784,-0.06344,-0.06344
-0.01464,0.05124,-0.08784,-0.08052,-0.0732,0.02928,0.06832,0.06344,-0.05856,-0.08784,-0.05368,-0.05856
-0.00488,0.03904,-0.0732,-0.07076,-0.06832,0.03172,0.0732,0.07808,-0.05856,-0.08296,-0.04392,-0.04392
-0.01464,0.05368,-0.09272,-0.0854,-0.07808,0.03172,0.0732,0.08296,-0.05856,-0.08784,-0.0488,-0.0488
-0.00976,0.0488,-0.08784,-0.08296,-0.07808,0.03416,0.06832,0.08296,-0.05856,-0.09272,-0.05856,-0.05368
-0.0244,0.05856,-0.09272,-0.08052,-0.06832,0.02196,0.06832,0.08296,-0.05368,-0.08784,-0.05368,-0.05368
-0.0244,0.061,-0.0976,-0.0854,-0.0732,0.0244,0.07808,0.08296,-0.04392,-0.0732,-0.0488,-0.05368
-0.03416,0.0732,-0.11224,-0.09516,-0.07808,0.02196,0.08296,0.08784,-0.03904,-0.0732,-0.05368,-0.05368
-0.01952,0.05856,-0.0976,-0.08784,-0.07808,0.02928,0.08296,0.09272,-0.03904,-0.0732,-0.04392,-0.0488
-0.00976,0.04392,-0.07808,-0.0732,-0.06832,0.02928,0.08296,0.10248,-0.02928,-0.0732,-0.03904,-0.0488
-0.01952,0.05368,-0.08784,-0.07808,-0.06832,0.0244,0.07808,0.0976,-0.02928,-0.06832,-0.0488,-0.04392
-0.02928,0.05856,-0.08784,-0.0732,-0.05856,0.01464,0.08296,0.10736,-0.02928,-0.06344,-0.04392,-0.04392
-0.0244,0.05856,-0.09272,-0.08052,-0.06832,0.02196,0.08784,0.11224,-0.01952,-0.0732,-0.03416,-0.03416
-0.0244,0.05612,-0.08784,-0.07564,-0.06344,0.01952,0.08784,0.11712,-0.00976,-0.06344,-0.03416,-0.03416
0,0.03416,-0.06832,-0.06832,-0.06832,0.03416,0.0976,0.13176,0,-0.05368,-0.01952,-0.03904
0.01952,0.01464,-0.0488,-0.05856,-0.06832,0.04392,0.10248,0.13664,0.00976,-0.0488,-0.01952,-0.03904
0.00976,0.02196,-0.05368,-0.05856,-0.06344,0.0366,0.0976,0.15128,0.00976,-0.03904,-0.02928,-0.03416
0,0.02928,-0.05856,-0.05856,-0.05856,0.02928,0.10248,0.16104,0.01952,-0.02928,-0.01464,-0.03416
-0.00976,0.02928,-0.0488,-0.04392,-0.03904,0.01464,0.11224,0.17568,0.0244,-0.02928,-0.00976,-0.03904
-0.00488,0.0244,-0.04392,-0.04148,-0.03904,0.01708,0.122,0.18544,0.03416,-0.02928,-0.01464,-0.03416
0.00488,0.0244,-0.05368,-0.05612,-0.05856,0.03172,0.11224,0.18544,0.03904,-0.01952,-0.00976,-0.02928
0.00488,0.0244,-0.05368,-0.05612,-0.05856,0.03172,0.11712,0.1952,0.0488,-0.00488,0,-0.0244
0,0.0244,-0.0488,-0.0488,-0.0488,0.0244,0.11224,0.20496,0.0488,-0.00976,0.00488,-0.01952
0.00976,0.0122,-0.03416,-0.03904,-0.04392,0.02684,0.122,0.21472,0.05856,0,0.00976,-0.01952
0.01464,0.00244,-0.01952,-0.02684,-0.03416,0.0244,0.13176,0.22936,0.07808,0.01464,0.01952,-0.00488
0.02928,-0.01464,0,-0.01464,-0.02928,0.02928,0.1464,0.24888,0.10736,0.0244,0.03416,-0.00488
0.00976,0.00488,-0.01952,-0.0244,-0.02928,0.01952,0.14152,0.25864,0.10248,0.0244,0.03416,-0.00976
0.00488,0.01708,-0.03904,-0.04148,-0.04392,0.0244,0.1464,0.2684,0.11224,0.03416,0.02928,0
-0.00488,0.01464,-0.0244,-0.02196,-0.01952,0.00732,0.16104,0.28304,0.11712,0.03416,0.02928,0.00488
-0.00488,0.00976,-0.01464,-0.0122,-0.00976,0.00244,0.16592,0.29768,0.13664,0.0488,0.04392,0.00976
0.0244,-0.02196,0.01952,0.00732,-0.00488,0.01464,0.16592,0.32208,0.16104,0.07808,0.06832,0.02928
0.0488,-0.04636,0.04392,0.01952,-0.00488,0.02684,0.16592,0.33184,0.18056,0.0976,0.08296,0.03904
0.03904,-0.04392,0.0488,0.02928,0.00976,0.01464,0.18544,0.366,0.20496,0.11224,0.10248,0.06344
0.04392,-0.0488,0.05368,0.03172,0.00976,0.01708,0.18544,0.37576,0.22448,0.12688,0.11712,0.07808
0.03904,-0.0488,0.05856,0.03904,0.01952,0.00976,0.19032,0.38552,0.22936,0.1464,0.13176,0.07808
0.0488,-0.06344,0.07808,0.05368,0.02928,0.00976,0.19032,0.40504,0.25376,0.1708,0.15128,0.08784
0.04392,-0.05856,0.0732,0.05124,0.02928,0.00732,0.18056,0.40992,0.27816,0.19032,0.16104,0.09272
0.05368,-0.0732,0.09272,0.06588,0.03904,0.00732,0.18056,0.41968,0.2928,0.20984,0.1708,0.11224
0.06344,-0.09272,0.122,0.09028,0.05856,0.00244,0.18544,0.44896,0.32208,0.22936,0.20496,0.12688
0.08784,-0.11468,0.14152,0.0976,0.05368,0.01708,0.1952,0.45872,0.33672,0.26352,0.2196,0.14152
0.08784,-0.122,0.15616,0.11224,0.06832,0.00976,0.18056,0.47336,0.36112,0.28304,0.24888,0.16104
0.08784,-0.13176,0.17568,0.13176,0.08784,0,0.1708,0.47336,0.37576,0.29768,0.26352,0.1708
0.09272,-0.1342,0.17568,0.12932,0.08296,0.00488,0.16592,0.47824,0.39528,0.33184,0.2928,0.20008
0.10736,-0.15372,0.20008,0.1464,0.09272,0.00732,0.1708,0.47824,0.40504,0.35136,0.32208,0.20496
0.10248,-0.15128,0.20008,0.14884,0.0976,0.00244,0.15128,0.4636,0.4148,0.35624,0.3172,0.20496
0.10248,-0.15372,0.20496,0.15372,0.10248,0,0.15128,0.4636,0.42456,0.37088,0.32696,0.22448
0.11712,-0.17324,0.22936,0.1708,0.11224,0.00244,0.13664,0.44896,0.42456,0.38064,0.32696,0.2196
0.11712,-0.183,0.24888,0.19032,0.13176,-0.00732,0.122,0.43432,0.42944,0.39528,0.33672,0.22448
0.10736,-0.16836,0.22936,0.17568,0.122,-0.00732,0.11712,0.43432,0.42944,0.39528,0.34648,0.23424
0.10248,-0.16592,0.22936,0.17812,0.12688,-0.0122,0.10736,0.40992,0.42456,0.39528,0.35136,0.22936
0.10736,-0.1708,0.23424,0.18056,0.12688,-0.00976,0.10248,0.39528,0.41968,0.39528,0.3416,0.22936
0.10248,-0.16836,0.23424,0.183,0.13176,-0.01464,0.09272,0.37088,0.40016,0.38064,0.32208,0.22448
0.10248,-0.16348,0.22448,0.17324,0.122,-0.00976,0.10248,0.3416,0.3904,0.37088,0.31232,0.21472
0.09272,-0.14884,0.20496,0.1586,0.11224,-0.00976,0.09272,0.31232,0.36112,0.35136,0.30256,0.1952
0.08296,-0.13176,0.18056,0.13908,0.0976,-0.00732,0.06344,0.26352,0.31232,0.30744,0.25864,0.1708
0.06344,-0.10736,0.15128,0.11956,0.08784,-0.0122,0.0488,0.22448,0.27816,0.25376,0.2196,0.14152
0.05856,-0.10248,0.1464,0.11712,0.08784,-0.01464,0.05856,0.20008,0.22936,0.22448,0.18056,0.11224
0.03416,-0.06832,0.10248,0.0854,0.06832,-0.01708,0.04392,0.16104,0.18056,0.18544,0.14152,0.08296
0.03416,-0.05368,0.0732,0.05612,0.03904,-0.00244,0.04392,0.122,0.15128,0.1464,0.10736,0.06832
0.0244,-0.03416,0.04392,0.03172,0.01952,0.00244,0.03416,0.09272,0.122,0.10736,0.08296,0.04392
0.01464,-0.02196,0.02928,0.02196,0.01464,0,0.01952,0.06832,0.08784,0.07808,0.06344,0.02928
