i,aVR,ii,aVF,iii,aVL,V1,V2,V3,V4,V5,V6
-0.03416,0.01464,0.00488,0.02196,0.03904,-0.0366,0.02928,-0.00976,0.04392,0,-0.01464,-0.01464
-0.03416,0.00488,0.0244,0.04148,0.05856,-0.04636,0.02928,-0.00976,0.05368,-0.00488,-0.01464,-0.00976
-0.02928,0.00488,0.01952,0.03416,0.0488,-0.03904,0.02928,-0.01464,0.0488,-0.00488,-0.00976,-0.00976
-0.01952,0.00244,0.01464,0.0244,0.03416,-0.02684,0.03904,-0.01464,0.05368,0.00488,0,-0.01464
-0.01952,0.00244,0.01464,0.0244,0.03416,-0.02684,0.03904,-0.01464,0.05368,0.00488,0.00488,-0.00976
-0.02928,0.00488,0.01952,0.03416,0.0488,-0.03904,0.03416,-0.01952,0.03904,0,-0.00488,-0.01464
-0.02928,0.00488,0.01952,0.03416,0.0488,-0.03904,0.03416,-0.01952,0.03904,0,-0.00488,-0.01952
-0.02928,-0.00244,0.03416,0.0488,0.06344,-0.04636,0.02928,-0.01952,0.04392,0,-0.00488,-0.01464
-0.02928,0,0.02928,0.04392,0.05856,-0.04392,0.02928,-0.0244,0.04392,-0.00488,-0.00488,-0.01464
-0.03416,0.0122,0.00976,0.02684,0.04392,-0.03904,0.02928,-0.0244,0.03416,0.00488,-0.00488,-0.00488
-0.03416,0.00976,0.01464,0.03172,0.0488,-0.04148,0.02928,-0.0244,0.02928,0,-0.00488,-0.00976
-0.03416,0.0122,0.00976,0.02684,0.04392,-0.03904,0.02928,-0.01952,0.03416,0,0,-0.00488
-0.02928,0.0122,0.00488,0.01952,0.03416,-0.03172,0.02928,-0.0244,0.03416,0,0.00488,-0.00488
-0.03416,0.00488,0.0244,0.04148,0.05856,-0.04636,0.0244,-0.0244,0.01952,0.00488,0.00488,-0.01464
-0.03416,0.00732,0.01952,0.0366,0.05368,-0.04392,0.0244,-0.0244,0.01952,0,0,-0.01464
-0.03416,0.01708,0,0.01708,0.03416,-0.03416,0.0244,-0.0244,0.02928,0,-0.00488,-0.00976
-0.03416,0.01708,0,0.01708,0.03416,-0.03416,0.0244,-0.02928,0.0244,-0.00488,0.00488,-0.00976
-0.03416,0.01952,-0.00488,0.0122,0.02928,-0.03172,0.0244,-0.02928,0.0244,-0.00488,0.00488,-0.00976
-0.03416,0.01708,0,0.01708,0.03416,-0.03416,0.0244,-0.02928,0.0244,-0.00488,0.00488,-0.00976
-0.03416,0.0122,0.00976,0.02684,0.04392,-0.03904,0.01464,-0.02928,0.01464,-0.00488,0.00488,-0.00488
-0.03416,0.01708,0,0.01708,0.03416,-0.03416,0.01952,-0.02928,0.01464,-0.00488,0.00488,-0.00488
-0.03416,0.01464,0.00488,0.02196,0.03904,-0.0366,0.01952,-0.02928,0.01464,-0.00488,0.00488,-0.01464
-0.03416,0.01708,0,0.01708,0.03416,-0.03416,0.02928,-0.02928,0.00976,-0.00488,0.00488,-0.00976
-0.04392,0.02684,-0.00976,0.0122,0.03416,-0.03904,0.02928,-0.03904,0,-0.00488,0.00488,-0.0244
-0.04392,0.02196,0,0.02196,0.04392,-0.04392,0.01952,-0.04392,0,-0.00488,-0.00976,-0.01952
-0.03416,0.01952,-0.00488,0.0122,0.02928,-0.03172,0.0244,-0.03416,0,-0.00488,-0.00488,-0.01952
-0.03416,0.01952,-0.00488,0.0122,0.02928,-0.03172,0.0244,-0.03416,0,-0.00488,0.00488,-0.0244
-0.04392,0.02196,0,0.02196,0.04392,-0.04392,0.0244,-0.03416,0,-0.00488,0.00488,-0.01464
-0.04392,0.02196,0,0.02196,0.04392,-0.04392,0.0244,-0.03416,0,-0.00488,0.00488,-0.01464
-0.03904,0.0244,-0.00976,0.00976,0.02928,-0.03416,0.0244,-0.03416,0.00488,0,0,-0.00976
-0.03904,0.03172,-0.0244,-0.00488,0.01464,-0.02684,0.0244,-0.03416,0.00488,-0.00488,0.00488,-0.01464
-0.03904,0.01952,0,0.01952,0.03904,-0.03904,0.00976,-0.0488,0,-0.01952,-0.00976,-0.02928
-0.03904,0.01952,0,0.01952,0.03904,-0.03904,0.00976,-0.0488,0,-0.01952,-0.00976,-0.02928
-0.03904,0.01952,0,0.01952,0.03904,-0.03904,0.01464,-0.03904,0.00976,-0.00488,-0.00488,-0.0244
-0.03416,0.01464,0.00488,0.02196,0.03904,-0.0366,0.0244,-0.03904,0.0244,0.00488,0.00976,-0.01464
-0.03416,0.0122,0.00976,0.02684,0.04392,-0.03904,0.01952,-0.03416,0.01464,0.00488,0.00976,-0.01464
-0.02928,0.00244,0.0244,0.03904,0.05368,-0.04148,0.01952,-0.03416,0.0244,0.01464,0.01952,-0.00488
-0.01952,-0.0122,0.04392,0.05368,0.06344,-0.04148,0.01952,-0.03904,0.03904,0.01464,0.0244,0
-0.01952,-0.01952,0.05856,0.06832,0.07808,-0.0488,0.0244,-0.03904,0.03904,0.0244,0.02928,0
-0.01952,-0.01952,0.05856,0.06832,0.07808,-0.0488,0.0244,-0.02928,0.05368,0.03416,0.04392,0.00488
-0.01464,-0.01952,0.05368,0.061,0.06832,-0.04148,0.0244,-0.02928,0.05856,0.03904,0.04392,0.00976
-0.01464,-0.0122,0.03904,0.04636,0.05368,-0.03416,0.0244,-0.0244,0.05368,0.04392,0.03904,0.00976
-0.00488,-0.01464,0.03416,0.0366,0.03904,-0.02196,0.01952,-0.0244,0.05368,0.04392,0.04392,0.01464
-0.00488,-0.00732,0.01952,0.02196,0.0244,-0.01464,0.01952,-0.01464,0.05368,0.04392,0.04392,0.01952
0.00488,-0.00732,0.00976,0.00732,0.00488,0,0.01952,-0.01464,0.05368,0.04392,0.03904,0.01464
0.01464,-0.01464,0.01464,0.00732,0,0.00732,-0.00976,-0.02928,0.05368,0.05368,0.05856,0.02928
0.0244,-0.01952,0.01464,0.00244,-0.00976,0.01708,-0.02928,-0.04392,0.04392,0.0488,0.05368,0.03416
0.03904,-0.03904,0.03904,0.01952,0,0.01952,-0.0488,-0.06344,0.03416,0.03904,0.05856,0.04392
0.04392,-0.03904,0.03416,0.0122,-0.00976,0.02684,-0.05856,-0.06832,0.01464,0.02928,0.05368,0.03904
0.06832,-0.05368,0.03904,0.00488,-0.02928,0.0488,-0.06344,-0.0732,0.00488,0.0244,0.05856,0.0488
0.07808,-0.05856,0.03904,0,-0.03904,0.05856,-0.06344,-0.06832,0.00976,0.03416,0.06832,0.05368
0.09272,-0.05856,0.0244,-0.02196,-0.06832,0.08052,-0.06344,-0.06832,0.01464,0.03416,0.06344,0.0488
0.10248,-0.061,0.01952,-0.03172,-0.08296,0.09272,-0.06344,-0.06832,0.00976,0.03904,0.06344,0.05368
0.09272,-0.05124,0.00976,-0.0366,-0.08296,0.08784,-0.08296,-0.08296,-0.0244,0.01952,0.04392,0.05368
0.08296,-0.04392,0.00488,-0.0366,-0.07808,0.08052,-0.06832,-0.08296,-0.0244,0.00488,0.04392,0.04392
0.06832,-0.03904,0.00976,-0.0244,-0.05856,0.06344,-0.06344,-0.08784,-0.02928,-0.00488,0.0244,0.03416
0.03904,-0.02196,0.00488,-0.01464,-0.03416,0.0366,-0.02928,-0.0732,-0.01952,0,0.0244,0.0244
0,0.00244,-0.00488,-0.00488,-0.00488,0.00244,-0.01464,-0.0732,-0.00976,0,0.0244,0.01464
-0.00488,0.00976,-0.01464,-0.0122,-0.00976,0.00244,-0.00488,-0.07808,-0.01464,-0.00976,0.00976,-0.00488
-0.02928,0.02928,-0.02928,-0.01464,0,-0.01464,0.00488,-0.0732,-0.01464,-0.01464,0,-0.01464
-0.03416,0.03416,-0.03416,-0.01708,0,-0.01708,0.01464,-0.06344,-0.00976,-0.00976,-0.00488,-0.01952
-0.03904,0.0366,-0.03416,-0.01464,0.00488,-0.02196,0.01952,-0.06344,-0.01952,-0.02928,-0.01464,-0.02928
-0.05368,0.04148,-0.02928,-0.00244,0.0244,-0.03904,0.01952,-0.06344,-0.01952,-0.03416,-0.02928,-0.03416
-0.06344,0.05124,-0.03904,-0.00732,0.0244,-0.04392,0.0244,-0.06344,-0.01464,-0.04392,-0.03416,-0.0488
-0.06344,0.05124,-0.03904,-0.00732,0.0244,-0.04392,0.0244,-0.06344,-0.0244,-0.04392,-0.03416,-0.05368
-0.06344,0.05368,-0.04392,-0.0122,0.01952,-0.04148,0.01952,-0.06344,-0.01952,-0.03416,-0.0244,-0.04392
-0.06344,0.05612,-0.0488,-0.01708,0.01464,-0.03904,0.0244,-0.05856,-0.01952,-0.03416,-0.0244,-0.04392
-0.06832,0.061,-0.05368,-0.01952,0.01464,-0.04148,0.0244,-0.0488,-0.00976,-0.03416,-0.0244,-0.03904
-0.06832,0.06344,-0.05856,-0.0244,0.00976,-0.03904,0.0244,-0.0488,-0.00976,-0.03416,-0.0244,-0.03904
-0.06832,0.05612,-0.04392,-0.00976,0.0244,-0.04636,0.02928,-0.05856,-0.01952,-0.03416,-0.03904,-0.0488
-0.06832,0.05612,-0.04392,-0.00976,0.0244,-0.04636,0.02928,-0.05856,-0.01952,-0.02928,-0.03904,-0.04392
-0.06832,0.05612,-0.04392,-0.00976,0.0244,-0.04636,0.02928,-0.0488,-0.00976,-0.02928,-0.03416,-0.03904
-0.06832,0.05612,-0.04392,-0.00976,0.0244,-0.04636,0.02928,-0.0488,-0.00488,-0.02928,-0.03416,-0.0488
-0.06832,0.05612,-0.04392,-0.00976,0.0244,-0.04636,0.03904,-0.0488,-0.00488,-0.0488,-0.04392,-0.0488
-0.09272,0.08296,-0.0732,-0.02684,0.01952,-0.05612,0.06344,-0.03904,-0.02928,-0.0976,-0.0976,-0.09272
-0.13664,0.11956,-0.10248,-0.03416,0.03416,-0.0854,0.10736,-0.01952,-0.0488,-0.22448,-0.20984,-0.18056
-0.15616,0.14884,-0.14152,-0.06344,0.01464,-0.0854,0.13176,0.01952,-0.04392,-0.27328,-0.27328,-0.244
-0.14152,0.13664,-0.13176,-0.061,0.00976,-0.07564,0.11712,0,-0.00976,-0.12688,-0.20496,-0.21472
-0.09272,0.10492,-0.11712,-0.07076,-0.0244,-0.03416,0.06344,0,0.12688,0.16104,-0.00976,-0.10248
0.01464,-0.00732,0,-0.00732,-0.01464,0.01464,-0.05856,-0.00976,0.35136,0.71248,0.41968,0.18056
0.18544,-0.18544,0.18544,0.09272,0,0.09272,-0.18056,0.05368,0.73688,1.53232,1.0736,0.61488
0.33672,-0.35624,0.37576,0.2074,0.03904,0.14884,-0.366,-0.0244,0.8052,2.01544,1.58112,0.98576
0.56608,-0.5368,0.50752,0.22448,-0.05856,0.31232,-0.54656,-0.09272,0.90768,2.48392,2.12768,1.40056
0.72712,-0.66368,0.60024,0.23668,-0.12688,0.427,-0.7076,-0.15616,0.98088,2.88408,2.50832,1.68848
0.75152,-0.68076,0.61,0.23424,-0.14152,0.44652,-0.83448,-0.42944,0.71248,2.73768,2.43024,1.69824
0.59048,-0.59048,0.59048,0.29524,0,0.29524,-0.79544,-0.76616,0.02928,1.74216,1.84464,1.44936
0.33672,-0.44408,0.55144,0.38308,0.21472,0.061,-0.84424,-1.32248,-1.34688,-0.18056,0.61976,0.8296
0.13176,-0.244,0.35624,0.29036,0.22448,-0.04636,-0.89304,-1.66896,-2.54736,-1.73728,-0.38064,0.27328
0.00488,-0.10248,0.20008,0.19764,0.1952,-0.09516,-0.83936,-1.66896,-2.68888,-2.04472,-0.83936,-0.11224
-0.06344,0.00732,0.0488,0.08052,0.11224,-0.08784,-0.76128,-1.49328,-2.38144,-1.87392,-0.93696,-0.2684
-0.11224,0.07808,-0.04392,0.0122,0.06832,-0.09028,-0.60024,-1.20536,-1.952,-1.57136,-0.84912,-0.30744
-0.10248,0.061,-0.01952,0.03172,0.08296,-0.09272,-0.38552,-0.85888,-1.3664,-1.14192,-0.63928,-0.24888
-0.122,0.05856,0.00488,0.06588,0.12688,-0.12444,-0.23424,-0.53192,-0.83936,-0.74664,-0.44408,-0.20008
-0.0976,0.03416,0.02928,0.07808,0.12688,-0.11224,-0.15616,-0.33672,-0.52704,-0.48312,-0.2684,-0.10248
-0.0976,0.0244,0.0488,0.0976,0.1464,-0.122,-0.10248,-0.25864,-0.37088,-0.36112,-0.2196,-0.0976
-0.09272,0.03904,0.01464,0.061,0.10736,-0.10004,-0.03416,-0.18544,-0.23424,-0.27328,-0.17568,-0.09272
-0.08784,0.04148,0.00488,0.0488,0.09272,-0.09028,-0.00976,-0.122,-0.13664,-0.19032,-0.13664,-0.09272
-0.08784,0.061,-0.03416,0.00976,0.05368,-0.07076,0.01464,-0.05856,-0.07808,-0.15128,-0.11224,-0.08784
-0.07808,0.06832,-0.05856,-0.01952,0.01952,-0.0488,0.03904,-0.04392,-0.0732,-0.15128,-0.11712,-0.09272
-0.07808,0.06832,-0.05856,-0.01952,0.01952,-0.0488,0.05368,-0.02928,-0.0488,-0.13664,-0.11712,-0.10248
-0.08784,0.06832,-0.0488,-0.00488,0.03904,-0.06344,0.05856,-0.02928,-0.02928,-0.11224,-0.11224,-0.09272
-0.08784,0.07076,-0.05368,-0.00976,0.03416,-0.061,0.05856,-0.01952,-0.0244,-0.10736,-0.10248,-0.08784
-0.0976,0.07564,-0.05368,-0.00488,0.04392,-0.07076,0.0488,-0.00976,-0.01464,-0.10736,-0.0976,-0.09272
-0.0976,0.07564,-0.05368,-0.00488,0.04392,-0.07076,0.05368,-0.00488,-0.00976,-0.10248,-0.0976,-0.0976
-0.08784,0.07808,-0.06832,-0.0244,0.01952,-0.05368,0.06344,0,-0.00488,-0.0976,-0.09272,-0.10248
-0.08296,0.0732,-0.06344,-0.02196,0.01952,-0.05124,0.06344,0.00488,0,-0.09272,-0.09272,-0.10248
-0.09272,0.08052,-0.06832,-0.02196,0.0244,-0.05856,0.06832,0.00976,0.00976,-0.09272,-0.08296,-0.0976
-0.09272,0.08052,-0.06832,-0.02196,0.0244,-0.05856,0.0732,0.00976,0.00976,-0.08784,-0.08296,-0.0976
-0.09272,0.08052,-0.06832,-0.02196,0.0244,-0.05856,0.06344,0.0244,0.00488,-0.08784,-0.09272,-0.0976
-0.09272,0.08052,-0.06832,-0.02196,0.0244,-0.05856,0.06832,0.0244,0.00976,-0.08296,-0.09272,-0.0976
-0.08784,0.07808,-0.06832,-0.0244,0.01952,-0.05368,0.0732,0.02928,0.01952,-0.08296,-0.08296,-0.0976
-0.08296,0.07808,-0.0732,-0.03172,0.00976,-0.04636,0.0732,0.03416,0.01952,-0.07808,-0.08296,-0.0976
-0.08296,0.0732,-0.06344,-0.02196,0.01952,-0.05124,0.06344,0.03416,0.01952,-0.07808,-0.08784,-0.0976
-0.08296,0.0732,-0.06344,-0.02196,0.01952,-0.05124,0.0732,0.03416,0.0244,-0.0732,-0.0976,-0.0976
-0.08296,0.07808,-0.0732,-0.03172,0.00976,-0.04636,0.08296,0.03904,0.0244,-0.06344,-0.09272,-0.0976
-0.08296,0.07808,-0.0732,-0.03172,0.00976,-0.04636,0.08296,0.03904,0.0244,-0.06344,-0.0976,-0.10248
-0.08296,0.08052,-0.07808,-0.0366,0.00488,-0.04392,0.0732,0.05368,0.02928,-0.0732,-0.0976,-0.09272
-0.07808,0.08052,-0.08296,-0.04392,-0.00488,-0.0366,0.07808,0.05856,0.02928,-0.06832,-0.09272,-0.09272
-0.07808,0.0854,-0.09272,-0.05368,-0.01464,-0.03172,0.08296,0.05368,0.03416,-0.05856,-0.09272,-0.0976
-0.07808,0.08296,-0.08784,-0.0488,-0.00976,-0.03416,0.08784,0.05368,0.03416,-0.05856,-0.09272,-0.0976
-0.07808,0.0854,-0.09272,-0.05368,-0.01464,-0.03172,0.08784,0.06832,0.03416,-0.06344,-0.0976,-0.0976
-0.07808,0.0854,-0.09272,-0.05368,-0.01464,-0.03172,0.08784,0.0732,0.03416,-0.06832,-0.09272,-0.0976
-0.06344,0.07076,-0.07808,-0.04636,-0.01464,-0.0244,0.09272,0.06832,0.03416,-0.08296,-0.10248,-0.0976
-0.06344,0.0732,-0.08296,-0.05124,-0.01952,-0.02196,0.09272,0.0732,0.03904,-0.08296,-0.10248,-0.0976
-0.0732,0.0732,-0.0732,-0.0366,0,-0.0366,0.09272,0.08784,0.03904,-0.06832,-0.09272,-0.0976
-0.06832,0.06588,-0.06344,-0.02928,0.00488,-0.0366,0.09272,0.08784,0.03904,-0.0732,-0.0976,-0.0976
-0.06832,0.07564,-0.08296,-0.0488,-0.01464,-0.02684,0.0976,0.10248,0.0488,-0.0732,-0.10248,-0.09272
-0.06832,0.08052,-0.09272,-0.05856,-0.0244,-0.02196,0.10248,0.10736,0.0488,-0.06832,-0.0976,-0.08784
-0.06832,0.0732,-0.07808,-0.04392,-0.00976,-0.02928,0.10248,0.10736,0.05368,-0.06832,-0.0976,-0.08784
-0.06832,0.06832,-0.06832,-0.03416,0,-0.03416,0.10248,0.11224,0.05856,-0.06344,-0.0976,-0.08296
-0.06832,0.06832,-0.06832,-0.03416,0,-0.03416,0.11712,0.11712,0.05856,-0.06344,-0.0976,-0.07808
-0.06344,0.06588,-0.06832,-0.0366,-0.00488,-0.02928,0.11712,0.14152,0.06832,-0.06344,-0.0976,-0.07808
-0.05856,0.061,-0.06344,-0.03416,-0.00488,-0.02684,0.11712,0.1464,0.0732,-0.05856,-0.09272,-0.08296
-0.05856,0.06344,-0.06832,-0.03904,-0.00976,-0.0244,0.122,0.15616,0.08296,-0.05368,-0.08296,-0.08296
-0.05856,0.061,-0.06344,-0.03416,-0.00488,-0.02684,0.12688,0.16592,0.09272,-0.05856,-0.09272,-0.07808
-0.05368,0.05368,-0.05368,-0.02684,0,-0.02684,0.13176,0.18056,0.09272,-0.05856,-0.08784,-0.0732
-0.0488,0.05368,-0.05856,-0.03416,-0.00976,-0.01952,0.14152,0.19032,0.11224,-0.05856,-0.07808,-0.0732
-0.0488,0.05124,-0.05368,-0.02928,-0.00488,-0.02196,0.14152,0.20008,0.122,-0.05368,-0.0732,-0.06344
-0.04392,0.05124,-0.05856,-0.0366,-0.01464,-0.01464,0.16592,0.23424,0.12688,-0.03416,-0.06344,-0.03904
-0.03904,0.0488,-0.05856,-0.03904,-0.01952,-0.00976,0.16592,0.244,0.12688,-0.03416,-0.05856,-0.03904
-0.02928,0.03416,-0.03904,-0.0244,-0.00976,-0.00976,0.16104,0.25376,0.13176,-0.03416,-0.06344,-0.03416
-0.02928,0.03416,-0.03904,-0.0244,-0.00976,-0.00976,0.17568,0.2684,0.14152,-0.02928,-0.05368,-0.0244
-0.0244,0.02928,-0.03416,-0.02196,-0.00976,-0.00732,0.18544,0.28304,0.15128,-0.02928,-0.03904,-0.01952
-0.01464,0.01708,-0.01952,-0.0122,-0.00488,-0.00488,0.19032,0.2928,0.15616,-0.02928,-0.03904,-0.01464
-0.00976,0.00732,-0.00488,0,0.00488,-0.00732,0.19032,0.30744,0.1464,-0.0244,-0.03416,-0.00976
-0.00488,-0.00244,0.00976,0.0122,0.01464,-0.00976,0.1952,0.31232,0.1464,-0.0244,-0.03416,0
0,-0.00732,0.01464,0.01464,0.01464,-0.00732,0.18544,0.30744,0.1464,-0.0244,-0.0244,0.00488
0.00976,-0.01708,0.0244,0.01952,0.01464,-0.00244,0.18544,0.30744,0.14152,-0.02928,-0.0244,0.00976
0.01464,-0.01952,0.0244,0.01708,0.00976,0.00244,0.18544,0.30744,0.12688,-0.03904,-0.01952,0.01464
0.01464,-0.02196,0.02928,0.02196,0.01464,0,0.18544,0.30744,0.11712,-0.0488,-0.00976,0.0244
0.00976,-0.01952,0.02928,0.0244,0.01952,-0.00488,0.18544,0.29768,0.11224,-0.0488,-0.00976,0.03416
0.01952,-0.0244,0.02928,0.01952,0.00976,0.00488,0.17568,0.28792,0.10248,-0.0488,-0.00976,0.04392
0.01952,-0.03172,0.04392,0.03416,0.0244,-0.00244,0.16592,0.28304,0.09272,-0.05368,-0.00976,0.0488
0.0244,-0.0366,0.0488,0.0366,0.0244,0,0.15616,0.2684,0.08784,-0.0488,0,0.0488
0.02928,-0.04148,0.05368,0.03904,0.0244,0.00244,0.15616,0.24888,0.09272,-0.04392,0.01952,0.05856
0.02928,-0.04148,0.05368,0.03904,0.0244,0.00244,0.1464,0.23424,0.08296,-0.02928,0.02928,0.06344
0.04392,-0.04636,0.0488,0.02684,0.00488,0.01952,0.13176,0.2196,0.08296,-0.01952,0.02928,0.07808
0.04392,-0.04636,0.0488,0.02684,0.00488,0.01952,0.11224,0.20008,0.07808,-0.01464,0.03416,0.07808
0.03416,-0.04392,0.05368,0.0366,0.01952,0.00732,0.10248,0.1708,0.07808,-0.00976,0.04392,0.0732
0.02928,-0.04392,0.05856,0.04392,0.02928,0,0.08296,0.1464,0.05856,-0.01464,0.03904,0.0732
0.03904,-0.04392,0.0488,0.02928,0.00976,0.01464,0.0732,0.14152,0.05368,-0.00976,0.04392,0.06344
0.0244,-0.03172,0.03904,0.02684,0.01464,0.00488,0.06832,0.122,0.0488,-0.00488,0.03416,0.05856
0.01952,-0.0244,0.02928,0.01952,0.00976,0.00488,0.05856,0.10736,0.04392,0,0.0244,0.05368
0.01464,-0.01952,0.0244,0.01708,0.00976,0.00244,0.05368,0.08784,0.03416,-0.00976,0.01464,0.04392
0.01464,-0.0122,0.00976,0.00244,-0.00488,0.00976,0.03416,0.06832,0.03416,-0.01952,0.01464,0.04392
0.00488,-0.00732,0.00976,0.00732,0.00488,0,0.03416,0.05368,0.01952,-0.02928,0.00488,0.03416
0.00976,-0.00976,0.00976,0.00488,0,0.00488,0.02928,0.0488,0.00976,-0.03904,-0.00976,0.01952
0.00488,-0.00732,0.00976,0.00732,0.00488,0,0.0244,0.03904,0.00488,-0.0488,-0.01952,0.00976
-0.01464,0.00732,0,0.00732,0.01464,-0.01464,0.02928,0.02928,-0.00488,-0.04392,-0.02928,0.01464
-0.01464,0.00976,-0.00488,0.00244,0.00976,-0.0122,0.03416,0.0244,-0.00976,-0.05856,-0.03416,0.00976
-0.00976,0.00488,0,0.00488,0.00976,-0.00976,0.02928,0.01952,-0.00976,-0.0732,-0.03904,0
-0.00976,0.00732,-0.00488,0,0.00488,-0.00732,0.02928,0.01952,-0.01464,-0.07808,-0.0488,0
-0.01952,0.00732,0.00488,0.01464,0.0244,-0.02196,0.02928,0,-0.02928,-0.08296,-0.06344,-0.01464
-0.01952,0.00732,0.00488,0.01464,0.0244,-0.02196,0.02928,0,-0.02928,-0.09272,-0.0732,-0.01952
-0.02928,0.01464,0,0.01464,0.02928,-0.02928,0.02928,0.00976,-0.02928,-0.09272,-0.0732,-0.02928
-0.02928,0.01464,0,0.01464,0.02928,-0.02928,0.03416,0.00488,-0.02928,-0.09272,-0.0732,-0.02928
-0.0244,0.0122,0,0.0122,0.0244,-0.0244,0.03904,0.00488,-0.03904,-0.10248,-0.08784,-0.0244
-0.02928,0.01708,-0.00488,0.00976,0.0244,-0.02684,0.03904,0.00976,-0.03904,-0.10736,-0.08784,-0.02928
-0.02928,0.02196,-0.01464,0,0.01464,-0.02196,0.04392,0.01952,-0.03416,-0.10736,-0.08784,-0.02928
-0.02928,0.01952,-0.00976,0.00488,0.01952,-0.0244,0.04392,0.01952,-0.03416,-0.10736,-0.09272,-0.02928
-0.03416,0.02196,-0.00976,0.00732,0.0244,-0.02928,0.04392,0.00976,-0.02928,-0.10736,-0.08296,-0.03904
-0.03416,0.01952,-0.00488,0.0122,0.02928,-0.03172,0.04392,0.01464,-0.0244,-0.10248,-0.08784,-0.03904
-0.03416,0.01952,-0.00488,0.0122,0.02928,-0.03172,0.04392,0.01464,-0.02928,-0.11224,-0.0976,-0.03904
-0.03416,0.0122,0.00976,0.02684,0.04392,-0.03904,0.0488,0.00976,-0.0244,-0.10736,-0.0976,-0.04392
-0.03416,0.01708,0,0.01708,0.03416,-0.03416,0.0488,0.00976,-0.01464,-0.08784,-0.08296,-0.02928
-0.03416,0.02196,-0.00976,0.00732,0.0244,-0.02928,0.0488,0.01952,0,-0.08784,-0.08296,-0.02928
-0.04392,0.0244,-0.00488,0.01708,0.03904,-0.04148,0.04392,0.01952,0.00976,-0.09272,-0.08296,-0.03904
-0.04392,0.01952,0.00488,0.02684,0.0488,-0.04636,0.04392,0.0244,0.00488,-0.08296,-0.08784,-0.03904
-0.03416,0.01464,0.00488,0.02196,0.03904,-0.0366,0.04392,0.0244,0.01952,-0.0732,-0.08296,-0.03416
-0.02928,0.01708,-0.00488,0.00976,0.0244,-0.02684,0.04392,0.0244,0.01952,-0.06832,-0.07808,-0.02928
-0.03416,0.02684,-0.01952,-0.00244,0.01464,-0.0244,0.0488,0.03904,0.03416,-0.05856,-0.06832,-0.02928
-0.03416,0.02684,-0.01952,-0.00244,0.01464,-0.0244,0.0488,0.03904,0.04392,-0.0488,-0.05856,-0.02928
-0.0244,0.01464,-0.00488,0.00732,0.01952,-0.02196,0.03416,0.02928,0.03416,-0.0488,-0.06832,-0.03416
-0.0244,0.01464,-0.00488,0.00732,0.01952,-0.02196,0.03904,0.02928,0.03904,-0.04392,-0.06832,-0.03416
-0.0244,0.02196,-0.01952,-0.00732,0.00488,-0.01464,0.03904,0.03904,0.04392,-0.03416,-0.0488,-0.02928
-0.01952,0.01708,-0.01464,-0.00488,0.00488,-0.0122,0.0488,0.03904,0.05856,-0.0244,-0.04392,-0.0244
-0.02928,0.01708,-0.00488,0.00976,0.0244,-0.02684,0.0488,0.03904,0.05368,-0.0244,-0.05368,-0.02928
-0.03416,0.01952,-0.00488,0.0122,0.02928,-0.03172,0.03904,0.03904,0.05368,-0.01952,-0.04392,-0.01952
-0.03416,0.01952,-0.00488,0.0122,0.02928,-0.03172,0.03904,0.03904,0.06344,-0.00488,-0.03416,-0.00976
-0.02928,0.01952,-0.00976,0.00488,0.01952,-0.0244,0.03904,0.03416,0.05856,-0.00488,-0.02928,-0.00976
-0.01952,0.0122,-0.00488,0.00488,0.01464,-0.01708,0.03904,0.0244,0.06344,-0.01464,-0.02928,-0.01464
-0.01952,0.0122,-0.00488,0.00488,0.01464,-0.01708,0.03904,0.0244,0.06344,-0.01464,-0.0244,-0.00976
-0.02928,0.01952,-0.00976,0.00488,0.01952,-0.0244,0.04392,0.02928,0.05856,0,-0.0244,-0.00488
-0.02928,0.01952,-0.00976,0.00488,0.01952,-0.0244,0.04392,0.02928,0.05856,0,-0.0244,-0.00976
-0.01952,0.01708,-0.01464,-0.00488,0.00488,-0.0122,0.03904,0.02928,0.06344,0,-0.01464,-0.01464
-0.01952,0.01952,-0.01952,-0.00976,0,-0.00976,0.03904,0.0244,0.06344,-0.00488,-0.01464,-0.01464
-0.0244,0.0244,-0.0244,-0.0122,0,-0.0122,0.02928,0.0244,0.06344,-0.00488,-0.01464,-0.00488
-0.0244,0.01708,-0.00976,0.00244,0.01464,-0.01952,0.02928,0.0244,0.05856,-0.00976,-0.01464,-0.00976
-0.0244,0.01708,-0.00976,0.00244,0.01464,-0.01952,0.02928,0.01952,0.06344,-0.00976,-0.01952,-0.00488
-0.01952,0.01708,-0.01464,-0.00488,0.00488,-0.0122,0.02928,0.01464,0.06344,-0.00976,-0.01464,-0.00488
-0.0244,0.01952,-0.01464,-0.00244,0.00976,-0.01708,0.0244,0.01464,0.05856,-0.00488,-0.01464,-0.00488
-0.0244,0.02196,-0.01952,-0.00732,0.00488,-0.01464,0.0244,0.01464,0.05856,-0.00976,-0.01952,-0.00488
-0.0244,0.02196,-0.01952,-0.00732,0.00488,-0.01464,0.0244,0.01464,0.05856,-0.00976,-0.0244,0
-0.0244,0.02196,-0.01952,-0.00732,0.00488,-0.01464,0.0244,0.00976,0.05368,-0.01464,-0.01464,0
-0.0244,0.0244,-0.0244,-0.0122,0,-0.0122,0.0244,0.00976,0.04392,-0.01464,-0.01464,0
-0.0244,0.02196,-0.01952,-0.00732,0.00488,-0.01464,0.0244,0.00976,0.04392,-0.01464,-0.01464,0
-0.0244,0.01708,-0.00976,0.00244,0.01464,-0.01952,0.0244,0.00976,0.05368,-0.01464,-0.0244,-0.00488
-0.0244,0.02196,-0.01952,-0.00732,0.00488,-0.01464,0.02928,0.00976,0.05368,-0.01464,-0.0244,-0.00488
-0.0244,0.01952,-0.01464,-0.00244,0.00976,-0.01708,0.0244,0.00976,0.05368,-0.01464,-0.0244,-0.00488
-0.0244,0.02196,-0.01952,-0.00732,0.00488,-0.01464,0.0244,0.00976,0.0488,-0.01464,-0.0244,0
-0.0244,0.0244,-0.0244,-0.0122,0,-0.0122,0.0244,0.01952,0.0488,-0.01464,-0.01952,-0.00488
-0.0244,0.0244,-0.0244,-0.0122,0,-0.0122,0.0244,0.01464,0.0488,-0.01464,-0.0244,0
-0.03416,0.02928,-0.0244,-0.00732,0.00976,-0.02196,0.0244,0.01464,0.0488,-0.0244,-0.0244,0
-0.03416,0.02928,-0.0244,-0.00732,0.00976,-0.02196,0.0244,0.01464,0.0488,-0.0244,-0.01464,-0.00488
-0.0244,0.02196,-0.01952,-0.00732,0.00488,-0.01464,0.0244,0.00488,0.0488,-0.01464,-0.0244,-0.00488
-0.0244,0.02196,-0.01952,-0.00732,0.00488,-0.01464,0.0244,0.00488,0.0488,-0.01464,-0.0244,-0.00488
-0.02928,0.0244,-0.01952,-0.00488,0.00976,-0.01952,0.0244,0.01464,0.05368,-0.01952,-0.01952,0
-0.01952,0.0244,-0.02928,-0.01952,-0.00976,-0.00488,0.02928,0.01952,0.0488,-0.01952,-0.01952,-0.00976
-0.01952,0.0244,-0.02928,-0.01952,-0.00976,-0.00488,0.02928,0.01952,0.0488,-0.01952,-0.01952,-0.00976
-0.0244,0.0244,-0.0244,-0.0122,0,-0.0122,0.01952,0.01952,0.0488,-0.01464,-0.01952,0
-0.02928,0.01952,-0.00976,0.00488,0.01952,-0.0244,0.01952,0.01952,0.06344,-0.00488,-0.01464,0
-0.02928,0.00976,0.00976,0.0244,0.03904,-0.03416,0.01952,0.0244,0.06344,-0.01464,-0.00976,-0.00488
-0.01464,-0.00488,0.0244,0.03172,0.03904,-0.02684,0.01952,0.0244,0.0732,-0.00488,0,0.00488
-0.00488,-0.01708,0.03904,0.04148,0.04392,-0.0244,0.02928,0.03904,0.0976,0.01464,0.01464,0.01952
-0.01464,-0.01464,0.04392,0.05124,0.05856,-0.0366,0.03416,0.03904,0.0976,0.0244,0.01952,0.01952
-0.01464,-0.01708,0.0488,0.05612,0.06344,-0.03904,0.0244,0.03904,0.10248,0.02928,0.01464,0.0244
0,-0.02196,0.04392,0.04392,0.04392,-0.02196,0.0244,0.03904,0.10736,0.0244,0.01464,0.02928
0.00488,-0.01952,0.03416,0.03172,0.02928,-0.0122,0.03416,0.04392,0.10248,0.03416,0.01952,0.02928
0.01464,-0.01708,0.01952,0.0122,0.00488,0.00488,0.02928,0.04392,0.10248,0.03416,0.0244,0.03416
0.01464,-0.00488,-0.00488,-0.0122,-0.01952,0.01708,0.01952,0.05368,0.11224,0.04392,0.0244,0.0488
0.0244,-0.00976,-0.00488,-0.01708,-0.02928,0.02684,0.01952,0.05368,0.11224,0.04392,0.01952,0.04392
0.0244,-0.01464,0.00488,-0.00732,-0.01952,0.02196,0,0.0488,0.11224,0.05368,0.03904,0.05856
0.03416,-0.01952,0.00488,-0.0122,-0.02928,0.03172,-0.01952,0.03416,0.10248,0.0488,0.03416,0.06344
0.05856,-0.03904,0.01952,-0.00976,-0.03904,0.0488,-0.02928,0.01464,0.09272,0.05856,0.0488,0.0732
0.06344,-0.03904,0.01464,-0.01708,-0.0488,0.05612,-0.03904,0.00976,0.0732,0.0488,0.04392,0.06832
0.06832,-0.03904,0.00976,-0.0244,-0.05856,0.06344,-0.04392,0.01464,0.0732,0.03416,0.03904,0.07808
0.07808,-0.04392,0.00976,-0.02928,-0.06832,0.0732,-0.04392,0.01952,0.07808,0.04392,0.0488,0.08296
0.08296,-0.0488,0.01464,-0.02684,-0.06832,0.07564,-0.05368,0.01952,0.06344,0.03904,0.05368,0.07808
0.09272,-0.05124,0.00976,-0.0366,-0.08296,0.08784,-0.05368,0.01952,0.05856,0.03416,0.05368,0.08296
0.10248,-0.05124,0,-0.05124,-0.10248,0.10248,-0.06344,-0.00488,0.03416,0.01464,0.03416,0.08296
0.09272,-0.04392,-0.00488,-0.05124,-0.0976,0.09516,-0.0488,-0.00488,0.03416,0.00976,0.03416,0.0732
0.05856,-0.0244,-0.00976,-0.03904,-0.06832,0.06344,-0.04392,-0.01952,0.02928,0.00488,0.00488,0.06344
0.02928,-0.00732,-0.01464,-0.02928,-0.04392,0.0366,-0.00976,-0.00488,0.03904,0.00976,0.00488,0.05368
0,0.00732,-0.01464,-0.01464,-0.01464,0.00732,-0.01464,-0.00488,0.02928,0,0.00488,0.03416
-0.00488,0.01464,-0.0244,-0.02196,-0.01952,0.00732,-0.00488,-0.00976,0.0244,-0.00976,-0.00976,0.01464
-0.02928,0.03416,-0.03904,-0.0244,-0.00976,-0.00976,0.00488,-0.00488,0.03416,-0.01464,-0.01952,0.01464
-0.03416,0.03904,-0.04392,-0.02684,-0.00976,-0.0122,0.01464,0.00488,0.03904,-0.00976,-0.0244,0.00976
-0.03904,0.03904,-0.03904,-0.01952,0,-0.01952,0.02928,0.00488,0.02928,-0.02928,-0.0244,-0.00976
-0.05368,0.0488,-0.04392,-0.01708,0.00976,-0.03172,0.02928,0.00488,0.02928,-0.03416,-0.03904,-0.01464
-0.06344,0.05612,-0.0488,-0.01708,0.01464,-0.03904,0.03416,0.00488,0.0244,-0.04392,-0.04392,-0.01952
-0.06344,0.05612,-0.0488,-0.01708,0.01464,-0.03904,0.03416,0.00488,0.01464,-0.04392,-0.04392,-0.0244
-0.06344,0.05856,-0.05368,-0.02196,0.00976,-0.0366,0.02928,0.00488,0.02928,-0.03416,-0.04392,-0.01464
-0.06344,0.061,-0.05856,-0.02684,0.00488,-0.03416,0.03416,0.00976,0.02928,-0.03416,-0.04392,-0.01464
-0.05856,0.05124,-0.04392,-0.01464,0.01464,-0.0366,0.03416,0,0.02928,-0.04392,-0.04392,-0.02928
-0.05856,0.05368,-0.0488,-0.01952,0.00976,-0.03416,0.03416,0,0.02928,-0.04392,-0.04392,-0.02928
-0.05856,0.05368,-0.0488,-0.01952,0.00976,-0.03416,0.03904,0.00488,0.03904,-0.04392,-0.0488,-0.01952
-0.05856,0.05856,-0.05856,-0.02928,0,-0.02928,0.03904,0.01464,0.03904,-0.03904,-0.0488,-0.01464
-0.05856,0.05612,-0.05368,-0.0244,0.00488,-0.03172,0.03904,0.01952,0.03904,-0.02928,-0.04392,-0.01952
-0.05856,0.061,-0.06344,-0.03416,-0.00488,-0.02684,0.0488,0.01952,0.04392,-0.02928,-0.03416,-0.01952
-0.06832,0.06588,-0.06344,-0.02928,0.00488,-0.0366,0.0488,0.02928,0.03416,-0.05856,-0.05368,-0.03904
-0.10248,0.07808,-0.05368,-0.00244,0.0488,-0.07564,0.06344,0.01952,0.01952,-0.12688,-0.12688,-0.09272
-0.12688,0.12932,-0.13176,-0.06832,-0.00488,-0.061,0.11712,0.06832,0.01952,-0.21472,-0.22936,-0.1708
-0.15616,0.14884,-0.14152,-0.06344,0.01464,-0.0854,0.13176,0.06832,0.0244,-0.23424,-0.27328,-0.20496
-0.13176,0.13664,-0.14152,-0.07564,-0.00976,-0.061,0.10736,0.06832,0.06832,-0.06832,-0.17568,-0.16592
-0.09272,0.1098,-0.12688,-0.08052,-0.03416,-0.02928,0.05368,0.06832,0.21472,0.23912,0.0488,-0.03416
0.03416,-0.02196,0.00976,-0.00732,-0.0244,0.02928,-0.06832,0.07808,0.44896,0.81984,0.488,0.25864
0.22448,-0.20496,0.18544,0.0732,-0.03904,0.13176,-0.20008,0.13176,0.78568,1.59088,1.1224,0.6832
0.38552,-0.37088,0.35624,0.16348,-0.02928,0.2074,-0.37576,0.04392,0.8052,1.99592,1.59088,1.04432
0.5856,-0.54656,0.50752,0.21472,-0.07808,0.33184,-0.5856,-0.01464,0.93696,2.44488,2.11792,1.4396
0.7564,-0.64904,0.54168,0.16348,-0.21472,0.48556,-0.72712,-0.07808,0.99064,2.7572,2.42048,1.68848
0.75152,-0.671,0.59048,0.21472,-0.16104,0.45628,-0.854,-0.40992,0.61488,2.45464,2.23504,1.63968
0.58072,-0.59048,0.60024,0.30988,0.01952,0.2806,-0.81496,-0.8052,-0.1464,1.35176,1.5616,1.33224
0.27816,-0.38552,0.49288,0.3538,0.21472,0.03172,-0.84424,-1.33224,-1.52256,-0.60024,0.30744,0.69296
0.11224,-0.23424,0.35624,0.30012,0.244,-0.06588,-0.89304,-1.62992,-2.5864,-1.86416,-0.54656,0.20496
0.00488,-0.08784,0.1708,0.16836,0.16592,-0.08052,-0.81984,-1.59088,-2.58152,-2.03496,-0.9272,-0.15128
-0.06344,0.02196,0.01952,0.05124,0.08296,-0.0732,-0.732,-1.4152,-2.28384,-1.84464,-0.96624,-0.27816
-0.11224,0.06832,-0.0244,0.03172,0.08784,-0.10004,-0.57096,-1.13704,-1.83488,-1.5128,-0.84912,-0.28792
-0.13176,0.06588,0,0.06588,0.13176,-0.13176,-0.37576,-0.7808,-1.2688,-1.10288,-0.64904,-0.23912
-0.122,0.04392,0.03416,0.09516,0.15616,-0.13908,-0.244,-0.4636,-0.76128,-0.69784,-0.43432,-0.15128
-0.08784,0.01464,0.05856,0.10248,0.1464,-0.11712,-0.15616,-0.27816,-0.46848,-0.45384,-0.2684,-0.06344
-0.0976,0.01464,0.06832,0.11712,0.16592,-0.13176,-0.09272,-0.20984,-0.31232,-0.35136,-0.22936,-0.06832
-0.09272,0.01952,0.05368,0.10004,0.1464,-0.11956,-0.04392,-0.13664,-0.18544,-0.27328,-0.1952,-0.06344
-0.08784,0.04148,0.00488,0.0488,0.09272,-0.09028,-0.00976,-0.0732,-0.08784,-0.19032,-0.15616,-0.0732
-0.06832,0.05612,-0.04392,-0.00976,0.0244,-0.04636,0.0244,-0.00976,-0.03904,-0.14152,-0.122,-0.05856
-0.07808,0.06344,-0.0488,-0.00976,0.02928,-0.05368,0.03904,0.00488,-0.03416,-0.15128,-0.13664,-0.0732
-0.07808,0.06344,-0.0488,-0.00976,0.02928,-0.05368,0.05368,0.01952,-0.00976,-0.13664,-0.13664,-0.08296
-0.07808,0.06344,-0.0488,-0.00976,0.02928,-0.05368,0.0488,0.03904,0.01952,-0.11224,-0.13176,-0.0732
-0.07808,0.06588,-0.05368,-0.01464,0.0244,-0.05124,0.0488,0.0488,0.0244,-0.10736,-0.122,-0.06832
-0.07808,0.06588,-0.05368,-0.01464,0.0244,-0.05124,0.0488,0.0488,0.0244,-0.0976,-0.11712,-0.0732
-0.07808,0.06588,-0.05368,-0.01464,0.0244,-0.05124,0.05368,0.05368,0.02928,-0.09272,-0.11712,-0.07808
-0.08784,0.0732,-0.05856,-0.01464,0.02928,-0.05856,0.06344,0.05856,0.04392,-0.08784,-0.11224,-0.0732
-0.08296,0.06832,-0.05368,-0.0122,0.02928,-0.05612,0.06344,0.06344,0.0488,-0.08296,-0.11224,-0.0732
-0.08296,0.07076,-0.05856,-0.01708,0.0244,-0.05368,0.05856,0.06832,0.0488,-0.08296,-0.11224,-0.06832
-0.08296,0.07076,-0.05856,-0.01708,0.0244,-0.05368,0.06344,0.06832,0.0488,-0.07808,-0.11224,-0.06832
-0.08296,0.07076,-0.05856,-0.01708,0.0244,-0.05368,0.06344,0.0732,0.05368,-0.07808,-0.11224,-0.06832
-0.08296,0.07076,-0.05856,-0.01708,0.0244,-0.05368,0.06832,0.0732,0.05856,-0.0732,-0.11224,-0.06832
-0.08784,0.07808,-0.06832,-0.0244,0.01952,-0.05368,0.0732,0.07808,0.06832,-0.06344,-0.10248,-0.05856
-0.08296,0.07808,-0.0732,-0.03172,0.00976,-0.04636,0.0732,0.08296,0.06832,-0.05856,-0.10248,-0.05856
-0.08296,0.0732,-0.06344,-0.02196,0.01952,-0.05124,0.06344,0.08296,0.06832,-0.06832,-0.10248,-0.06832
-0.08296,0.0732,-0.06344,-0.02196,0.01952,-0.05124,0.0732,0.08296,0.0732,-0.06344,-0.10248,-0.06832
-0.08296,0.07808,-0.0732,-0.03172,0.00976,-0.04636,0.0732,0.08784,0.08296,-0.06344,-0.11224,-0.06832
-0.08296,0.07808,-0.0732,-0.03172,0.00976,-0.04636,0.0732,0.08784,0.08296,-0.06344,-0.11712,-0.0732
-0.08296,0.08052,-0.07808,-0.0366,0.00488,-0.04392,0.0732,0.09272,0.08784,-0.06344,-0.11712,-0.0732
-0.07808,0.08052,-0.08296,-0.04392,-0.00488,-0.0366,0.07808,0.0976,0.08784,-0.05856,-0.11224,-0.0732
-0.06832,0.07564,-0.08296,-0.0488,-0.01464,-0.02684,0.07808,0.10248,0.08296,-0.0488,-0.11224,-0.06832
-0.06832,0.0732,-0.07808,-0.04392,-0.00976,-0.02928,0.0732,0.10248,0.08296,-0.0488,-0.11224,-0.06832
-0.07808,0.0854,-0.09272,-0.05368,-0.01464,-0.03172,0.07808,0.11712,0.09272,-0.04392,-0.11712,-0.05856
-0.07808,0.0854,-0.09272,-0.05368,-0.01464,-0.03172,0.07808,0.122,0.09272,-0.0488,-0.11224,-0.05856
-0.0732,0.07564,-0.07808,-0.04148,-0.00488,-0.03416,0.08296,0.11712,0.09272,-0.05368,-0.11224,-0.06832
-0.0732,0.07808,-0.08296,-0.04636,-0.00976,-0.03172,0.08296,0.122,0.0976,-0.05368,-0.11224,-0.06832
-0.0732,0.08296,-0.09272,-0.05612,-0.01952,-0.02684,0.08296,0.12688,0.0976,-0.0488,-0.11224,-0.06832
-0.06832,0.07564,-0.08296,-0.0488,-0.01464,-0.02684,0.08296,0.12688,0.0976,-0.05368,-0.11712,-0.06832
-0.06832,0.07808,-0.08784,-0.05368,-0.01952,-0.0244,0.08784,0.14152,0.0976,-0.06344,-0.11224,-0.06344
-0.06832,0.07808,-0.08784,-0.05368,-0.01952,-0.0244,0.09272,0.1464,0.0976,-0.05856,-0.10736,-0.05856
-0.06832,0.07564,-0.08296,-0.0488,-0.01464,-0.02684,0.09272,0.15616,0.10248,-0.05856,-0.11712,-0.05856
-0.06832,0.07564,-0.08296,-0.0488,-0.01464,-0.02684,0.09272,0.16104,0.10736,-0.05368,-0.11712,-0.05368
-0.06832,0.07808,-0.08784,-0.05368,-0.01952,-0.0244,0.0976,0.16104,0.10736,-0.05368,-0.11712,-0.05856
-0.06344,0.07564,-0.08784,-0.05612,-0.0244,-0.01952,0.0976,0.17568,0.11712,-0.05368,-0.11712,-0.05856
-0.05856,0.06588,-0.0732,-0.04392,-0.01464,-0.02196,0.10736,0.1952,0.13176,-0.0488,-0.11224,-0.04392
-0.05856,0.06832,-0.07808,-0.0488,-0.01952,-0.01952,0.11224,0.20496,0.14152,-0.04392,-0.10248,-0.04392
-0.0488,0.06588,-0.08296,-0.05856,-0.03416,-0.00732,0.11712,0.21472,0.14152,-0.03904,-0.10248,-0.03904
-0.04392,0.05856,-0.0732,-0.05124,-0.02928,-0.00732,0.122,0.22936,0.14152,-0.03904,-0.0976,-0.03416
-0.0488,0.061,-0.0732,-0.0488,-0.0244,-0.0122,0.13176,0.23912,0.15128,-0.03904,-0.0976,-0.0244
-0.0488,0.05368,-0.05856,-0.03416,-0.00976,-0.01952,0.13176,0.24888,0.16104,-0.03416,-0.09272,-0.01464
-0.03416,0.05124,-0.06832,-0.05124,-0.03416,0,0.15616,0.27328,0.17568,-0.0244,-0.08296,-0.00976
-0.02928,0.0488,-0.06832,-0.05368,-0.03904,0.00488,0.15616,0.28304,0.17568,-0.0244,-0.07808,-0.00976
-0.02928,0.03416,-0.03904,-0.0244,-0.00976,-0.00976,0.15128,0.2928,0.1708,-0.0244,-0.0732,-0.00488
-0.02928,0.03416,-0.03904,-0.0244,-0.00976,-0.00976,0.16592,0.30744,0.18056,-0.01952,-0.06344,0.00488
-0.01464,0.0244,-0.03416,-0.02684,-0.01952,0.00244,0.16592,0.31232,0.18056,-0.01952,-0.05856,0.01952
-0.00488,0.0122,-0.01952,-0.01708,-0.01464,0.00488,0.1708,0.32208,0.18544,-0.01952,-0.05856,0.0244
-0.00976,0.01464,-0.01952,-0.01464,-0.00976,0,0.1708,0.33672,0.18544,-0.0244,-0.05368,0.03416
-0.00488,0.00976,-0.01464,-0.0122,-0.00976,0.00244,0.17568,0.3416,0.18544,-0.0244,-0.05368,0.03416
-0.00976,0.00732,-0.00488,0,0.00488,-0.00732,0.16592,0.33672,0.17568,-0.0244,-0.05368,0.03416
0,-0.00244,0.00488,0.00488,0.00488,-0.00244,0.16592,0.33672,0.1708,-0.02928,-0.05368,0.03904
0.01464,-0.00976,0.00488,-0.00244,-0.00976,0.0122,0.17568,0.33672,0.16592,-0.02928,-0.0488,0.04392
0.01464,-0.0122,0.00976,0.00244,-0.00488,0.00976,0.17568,0.33672,0.15616,-0.03904,-0.03904,0.05368
0.01952,-0.01952,0.01952,0.00976,0,0.00976,0.16592,0.3172,0.14152,-0.0488,-0.03904,0.05368
0.02928,-0.0244,0.01952,0.00488,-0.00976,0.01952,0.15616,0.30744,0.13176,-0.0488,-0.03904,0.06344
0.02928,-0.02684,0.0244,0.00976,-0.00488,0.01708,0.1464,0.30256,0.11224,-0.05368,-0.03904,0.06344
0.03416,-0.03172,0.02928,0.0122,-0.00488,0.01952,0.13664,0.28792,0.10736,-0.0488,-0.02928,0.0732
0.03904,-0.04148,0.04392,0.0244,0.00488,0.01708,0.11712,0.2684,0.10248,-0.04392,-0.00976,0.08296
0.03904,-0.04148,0.04392,0.0244,0.00488,0.01708,0.10736,0.25376,0.09272,-0.02928,0,0.0976
0.04392,-0.04148,0.03904,0.01708,-0.00488,0.0244,0.10736,0.24888,0.10248,-0.00976,0,0.10736
0.04392,-0.04148,0.03904,0.01708,-0.00488,0.0244,0.0976,0.22936,0.0976,-0.00488,0.00488,0.10736
0.04392,-0.03904,0.03416,0.0122,-0.00976,0.02684,0.08296,0.20008,0.10248,0,0.01464,0.10248
0.03904,-0.03904,0.03904,0.01952,0,0.01952,0.06344,0.17568,0.09272,-0.00488,0.00976,0.10248
0.03904,-0.03416,0.02928,0.00976,-0.00976,0.0244,0.06344,0.15128,0.09272,-0.00488,0.00488,0.10248
0.0244,-0.02196,0.01952,0.00732,-0.00488,0.01464,0.05856,0.13176,0.08784,-0.00976,-0.00488,0.0976
0.02928,-0.0244,0.01952,0.00488,-0.00976,0.01952,0.03904,0.122,0.08296,-0.00976,-0.00488,0.09272
0.0244,-0.01952,0.01464,0.00244,-0.00976,0.01708,0.03416,0.11224,0.0732,-0.01952,-0.01464,0.08296
0.0244,-0.02196,0.01952,0.00732,-0.00488,0.01464,0.0244,0.08784,0.05368,-0.02928,-0.03416,0.07808
0.01464,-0.01708,0.01952,0.0122,0.00488,0.00488,0.0244,0.0732,0.03904,-0.03904,-0.04392,0.05856
0,-0.00488,0.00976,0.00976,0.00976,-0.00488,0.01952,0.07808,0.03904,-0.0488,-0.05856,0.0488
-0.00488,-0.00244,0.00976,0.0122,0.01464,-0.00976,0.01464,0.06832,0.03416,-0.05856,-0.06832,0.03904
-0.00488,0.00244,0,0.00244,0.00488,-0.00488,0.01464,0.0488,0.03416,-0.06344,-0.07808,0.0244
-0.00488,0.00488,-0.00488,-0.00244,0,-0.00244,0.00976,0.04392,0.02928,-0.07808,-0.08296,0.01952
-0.00976,0.01464,-0.01952,-0.01464,-0.00976,0,0.01952,0.03904,0.01952,-0.08296,-0.0976,0.01952
-0.00976,0.01708,-0.0244,-0.01952,-0.01464,0.00244,0.01952,0.03904,0.01464,-0.08784,-0.10736,0.01952
-0.02928,0.02196,-0.01464,0,0.01464,-0.02196,0.00976,0.02928,0.00976,-0.09272,-0.11224,-0.00488
-0.02928,0.02196,-0.01464,0,0.01464,-0.02196,0.00976,0.02928,0.00976,-0.10248,-0.122,-0.00976
-0.02928,0.0244,-0.01952,-0.00488,0.00976,-0.01952,0.01952,0.02928,0.00976,-0.10248,-0.122,0
-0.02928,0.0244,-0.01952,-0.00488,0.00976,-0.01952,0.0244,0.0244,0.00976,-0.10248,-0.122,0
-0.04392,0.03172,-0.01952,0.00244,0.0244,-0.03416,0.02928,0.0244,0.00976,-0.10248,-0.12688,0.00488
-0.0488,0.0366,-0.0244,0,0.0244,-0.0366,0.02928,0.02928,0.00976,-0.10736,-0.12688,0
-0.03904,0.03172,-0.0244,-0.00488,0.01464,-0.02684,0.0244,0.02928,0.0244,-0.0976,-0.11712,-0.00976
-0.03904,0.02928,-0.01952,0,0.01952,-0.02928,0.0244,0.02928,0.0244,-0.0976,-0.122,-0.00976
-0.04392,0.02684,-0.00976,0.0122,0.03416,-0.03904,0.0244,0.02928,0.01952,-0.10736,-0.122,-0.00976
-0.04392,0.0244,-0.00488,0.01708,0.03904,-0.04148,0.0244,0.03416,0.0244,-0.10248,-0.12688,-0.00976
-0.04392,0.02928,-0.01464,0.00732,0.02928,-0.0366,0.03416,0.03904,0.03904,-0.09272,-0.12688,0
-0.04392,0.03172,-0.01952,0.00244,0.0244,-0.03416,0.03904,0.04392,0.04392,-0.08784,-0.12688,-0.00488
-0.04392,0.02928,-0.01464,0.00732,0.02928,-0.0366,0.03904,0.04392,0.0488,-0.08784,-0.122,-0.00976
-0.04392,0.02928,-0.01464,0.00732,0.02928,-0.0366,0.03904,0.04392,0.05368,-0.08784,-0.122,-0.00976
-0.03416,0.02684,-0.01952,-0.00244,0.01464,-0.0244,0.03416,0.0488,0.06344,-0.0732,-0.11712,-0.00976
-0.03416,0.02684,-0.01952,-0.00244,0.01464,-0.0244,0.03416,0.05368,0.06832,-0.06344,-0.11224,-0.00976
-0.03416,0.02684,-0.01952,-0.00244,0.01464,-0.0244,0.03416,0.05368,0.07808,-0.05368,-0.10248,-0.00488
-0.02928,0.0244,-0.01952,-0.00488,0.00976,-0.01952,0.03416,0.05368,0.07808,-0.0488,-0.0976,0
-0.0244,0.02196,-0.01952,-0.00732,0.00488,-0.01464,0.02928,0.05856,0.08296,-0.0488,-0.09272,-0.00976
-0.0244,0.02196,-0.01952,-0.00732,0.00488,-0.01464,0.02928,0.05856,0.09272,-0.03904,-0.09272,-0.00976
-0.03416,0.01952,-0.00488,0.0122,0.02928,-0.03172,0.0244,0.0488,0.09272,-0.02928,-0.0976,0.00488
-0.03416,0.01952,-0.00488,0.0122,0.02928,-0.03172,0.02928,0.0488,0.0976,-0.0244,-0.0976,0.00488
-0.0244,0.01708,-0.00976,0.00244,0.01464,-0.01952,0.0244,0.05856,0.0976,-0.01952,-0.08784,0.00976
-0.01952,0.0122,-0.00488,0.00488,0.01464,-0.01708,0.0244,0.05856,0.10248,-0.01952,-0.08296,0.01464
-0.02928,0.02196,-0.01464,0,0.01464,-0.02196,0.02928,0.05856,0.10248,-0.01464,-0.0732,0.01952
-0.03416,0.0244,-0.01464,0.00244,0.01952,-0.02684,0.01952,0.05856,0.10248,-0.00976,-0.06344,0.02928
-0.03416,0.0244,-0.01464,0.00244,0.01952,-0.02684,0.01952,0.0488,0.10248,-0.01464,-0.0732,0.01952
-0.02928,0.0244,-0.01952,-0.00488,0.00976,-0.01952,0.01952,0.04392,0.0976,-0.01464,-0.06832,0.01952
-0.02928,0.02196,-0.01464,0,0.01464,-0.02196,0.01952,0.05368,0.10248,-0.00488,-0.06832,0.01464
-0.02928,0.02196,-0.01464,0,0.01464,-0.02196,0.01952,0.05368,0.10248,-0.00488,-0.06344,0.01952
-0.02928,0.01952,-0.00976,0.00488,0.01952,-0.0244,0.01464,0.03904,0.0976,-0.00976,-0.06344,0.0244
-0.02928,0.01952,-0.00976,0.00488,0.01952,-0.0244,0.01464,0.03904,0.0976,-0.00976,-0.06344,0.01952
-0.02928,0.02196,-0.01464,0,0.01464,-0.02196,0.00976,0.0488,0.09272,-0.00976,-0.06344,0.01464
-0.02928,0.0244,-0.01952,-0.00488,0.00976,-0.01952,0.00976,0.04392,0.09272,-0.01464,-0.06344,0.01464
-0.04392,0.0366,-0.02928,-0.00732,0.01464,-0.02928,0.00976,0.04392,0.08296,-0.01464,-0.06344,0.0244
-0.04392,0.03416,-0.0244,-0.00244,0.01952,-0.03172,0.00976,0.04392,0.07808,-0.01952,-0.06344,0.01952
-0.04392,0.03172,-0.01952,0.00244,0.0244,-0.03416,0.00976,0.03904,0.08296,-0.01952,-0.07808,0.01464
-0.03904,0.03172,-0.0244,-0.00488,0.01464,-0.02684,0.00976,0.03416,0.08296,-0.01952,-0.0732,0.01464
-0.03416,0.0244,-0.01464,0.00244,0.01952,-0.02684,0.00488,0.03416,0.07808,-0.0244,-0.06344,0.01464
-0.03416,0.02684,-0.01952,-0.00244,0.01464,-0.0244,0.00488,0.03416,0.07808,-0.02928,-0.06832,0.01464
-0.03416,0.0366,-0.03904,-0.02196,-0.00488,-0.01464,0.00488,0.04392,0.08784,-0.0244,-0.0732,0.01952
-0.03416,0.0366,-0.03904,-0.02196,-0.00488,-0.01464,0.00488,0.03904,0.08296,-0.01952,-0.06344,0.01952
-0.04392,0.04148,-0.03904,-0.01708,0.00488,-0.0244,0.00488,0.02928,0.07808,-0.0244,-0.0732,0.01464
-0.04392,0.03416,-0.0244,-0.00244,0.01952,-0.03172,0.00488,0.02928,0.06832,-0.0244,-0.0732,0.00488
-0.03416,0.02928,-0.0244,-0.00732,0.00976,-0.02196,0.00488,0.02928,0.06344,-0.03416,-0.0732,0.00488
-0.03416,0.03904,-0.04392,-0.02684,-0.00976,-0.0122,0.00976,0.02928,0.06344,-0.03416,-0.0732,0.00488
-0.0244,0.02928,-0.03416,-0.02196,-0.00976,-0.00732,0.00488,0.02928,0.06344,-0.0244,-0.0732,0.00488
-0.0244,0.03172,-0.03904,-0.02684,-0.01464,-0.00488,0.00488,0.02928,0.05856,-0.0244,-0.0732,0.00976
-0.03416,0.0366,-0.03904,-0.02196,-0.00488,-0.01464,-0.00488,0.01952,0.05856,-0.03416,-0.07808,-0.00488
-0.03416,0.03172,-0.02928,-0.0122,0.00488,-0.01952,-0.00488,0.01464,0.05856,-0.03416,-0.08296,0
-0.04392,0.04392,-0.04392,-0.02196,0,-0.02196,0.00488,0.0244,0.0488,-0.03416,-0.08296,0.00976
-0.04392,0.04392,-0.04392,-0.02196,0,-0.02196,0.00488,0.0244,0.0488,-0.03416,-0.0732,0.00488
-0.03416,0.04148,-0.0488,-0.03172,-0.01464,-0.00976,0.00488,0.0244,0.0488,-0.0244,-0.0732,0.00488
-0.03416,0.04148,-0.0488,-0.03172,-0.01464,-0.00976,0.00488,0.0244,0.0488,-0.0244,-0.0732,0.00488
-0.03904,0.03904,-0.03904,-0.01952,0,-0.01952,0.00488,0.0244,0.05368,-0.02928,-0.07808,0
-0.03904,0.04392,-0.0488,-0.02928,-0.00976,-0.01464,0.00976,0.01952,0.0488,-0.02928,-0.06832,0.00976
-0.03904,0.04392,-0.0488,-0.02928,-0.00976,-0.01464,0.00976,0.01952,0.05856,-0.02928,-0.06832,0
-0.03904,0.04392,-0.0488,-0.02928,-0.00976,-0.01464,0.00976,0.01952,0.05856,-0.02928,-0.06832,0
-0.02928,0.02928,-0.02928,-0.01464,0,-0.01464,0.00976,0.01952,0.06344,-0.0244,-0.06832,0
-0.0244,0.02196,-0.01952,-0.00732,0.00488,-0.01464,0.00976,0.0244,0.0732,-0.01464,-0.06344,0.00488
-0.02928,0.01708,-0.00488,0.00976,0.0244,-0.02684,0,0.01464,0.06832,-0.01952,-0.06832,0.00488
-0.0244,0.00244,0.01952,0.03172,0.04392,-0.03416,0,0.01952,0.08296,-0.00976,-0.05368,0.01952
-0.01952,0.00244,0.01464,0.0244,0.03416,-0.02684,0.01464,0.02928,0.0976,0,-0.04392,0.01952
-0.01952,0.00732,0.00488,0.01464,0.0244,-0.02196,0.01464,0.02928,0.10248,0.00976,-0.03416,0.0244
-0.00488,-0.00732,0.01952,0.02196,0.0244,-0.01464,0.01464,0.02928,0.10248,0.01464,-0.03416,0.0244
-0.00488,0,0.00488,0.00732,0.00976,-0.00732,0.01464,0.03416,0.10736,0.01952,-0.02928,0.02928
0.00976,0.00732,-0.0244,-0.02928,-0.03416,0.02196,0.01464,0.05368,0.11224,0.0244,-0.02928,0.03416
0.01464,0.0122,-0.03904,-0.04636,-0.05368,0.03416,0.00976,0.05368,0.11224,0.0244,-0.0244,0.03904
0.01952,0.00732,-0.03416,-0.04392,-0.05368,0.0366,0,0.04392,0.10248,0.01464,-0.03904,0.0244
0.02928,0,-0.02928,-0.04392,-0.05856,0.04392,-0.01464,0.03904,0.10248,0.0244,-0.0244,0.03416
0.03904,-0.00732,-0.0244,-0.04392,-0.06344,0.05124,-0.01464,0.02928,0.11224,0.02928,-0.00976,0.0488
0.05368,-0.01708,-0.01952,-0.04636,-0.0732,0.06344,-0.03904,0.01464,0.0976,0.02928,-0.01464,0.05368
0.05368,-0.03172,0.00976,-0.01708,-0.04392,0.0488,-0.06832,0.00488,0.07808,0.01952,-0.01952,0.05368
0.06344,-0.03172,0,-0.03172,-0.06344,0.06344,-0.0732,-0.00488,0.04392,0.00488,-0.0244,0.0488
0.08296,-0.0366,-0.00976,-0.05124,-0.09272,0.08784,-0.0732,0,0.05856,0.01464,-0.00976,0.0732
0.09272,-0.03904,-0.01464,-0.061,-0.10736,0.10004,-0.0732,0,0.05368,0.00976,-0.01464,0.06832
0.09272,-0.03904,-0.01464,-0.061,-0.10736,0.10004,-0.0732,0,0.04392,0.00976,-0.01464,0.0732
0.09272,-0.03416,-0.0244,-0.07076,-0.11712,0.10492,-0.08296,-0.00976,0.0244,-0.00488,-0.01952,0.0732
0.09272,-0.02928,-0.03416,-0.08052,-0.12688,0.1098,-0.07808,-0.01464,0.0244,-0.01464,-0.03416,0.06344
0.0732,-0.01952,-0.03416,-0.07076,-0.10736,0.09028,-0.06832,-0.01952,0.01952,-0.01952,-0.03904,0.0488
0.03416,0.00488,-0.04392,-0.061,-0.07808,0.05612,-0.03904,-0.00488,0.0244,-0.0244,-0.05368,0.02928
0,0.02196,-0.04392,-0.04392,-0.04392,0.02196,-0.01464,-0.00488,0.02928,-0.01952,-0.05856,0.01464
-0.01464,0.03416,-0.05368,-0.04636,-0.03904,0.0122,0,-0.00488,0.0244,-0.03416,-0.06832,0.01952
-0.02928,0.05368,-0.07808,-0.06344,-0.0488,0.00976,0.00976,-0.00976,0.0244,-0.04392,-0.08296,0.00488
-0.02928,0.0488,-0.06832,-0.05368,-0.03904,0.00488,0.00976,-0.00488,0.02928,-0.03904,-0.09272,-0.00488
-0.03904,0.05856,-0.07808,-0.05856,-0.03904,0,0.01464,0.00488,0.02928,-0.0488,-0.09272,-0.01464
-0.05856,0.06344,-0.06832,-0.03904,-0.00976,-0.0244,0.01952,0.00488,0.02928,-0.0488,-0.10248,-0.0244
-0.06344,0.07076,-0.07808,-0.04636,-0.01464,-0.0244,0.0244,0.00488,0.0244,-0.05856,-0.11224,-0.02928
-0.06344,0.07076,-0.07808,-0.04636,-0.01464,-0.0244,0.0244,0.00488,0.01952,-0.0732,-0.122,-0.03904
-0.06344,0.07076,-0.07808,-0.04636,-0.01464,-0.0244,0.01952,0.00488,0.01464,-0.0732,-0.122,-0.04392
-0.06344,0.0732,-0.08296,-0.05124,-0.01952,-0.02196,0.0244,-0.00488,0.02928,-0.06344,-0.122,-0.04392
-0.06832,0.07808,-0.08784,-0.05368,-0.01952,-0.0244,0.0244,0,0.02928,-0.06344,-0.122,-0.0488
-0.05856,0.07076,-0.08296,-0.05368,-0.0244,-0.01708,0.0244,0,0.01952,-0.06344,-0.11224,-0.0488
-0.05856,0.0732,-0.08784,-0.05856,-0.02928,-0.01464,0.02928,0,0.01952,-0.06344,-0.11712,-0.0488
-0.06832,0.08052,-0.09272,-0.05856,-0.0244,-0.02196,0.02928,0.00976,0.02928,-0.06344,-0.10736,-0.03416
-0.06832,0.08052,-0.09272,-0.05856,-0.0244,-0.02196,0.02928,0.00976,0.02928,-0.05856,-0.10248,-0.02928
-0.06832,0.07564,-0.08296,-0.0488,-0.01464,-0.02684,0.01952,0.00976,0.0244,-0.0488,-0.11224,-0.02928
-0.06832,0.08784,-0.10736,-0.0732,-0.03904,-0.01464,0.02928,0.00976,0.03416,-0.0488,-0.10736,-0.03904
-0.09272,0.10004,-0.10736,-0.061,-0.01464,-0.03904,0.0488,0.02928,0.02928,-0.08784,-0.16104,-0.07808
-0.122,0.11956,-0.11712,-0.05612,0.00488,-0.06344,0.08296,0.0488,0.03904,-0.16104,-0.23912,-0.15616
-0.1464,0.15372,-0.16104,-0.08784,-0.01464,-0.06588,0.13176,0.07808,0.04392,-0.22448,-0.32208,-0.22448
-0.15128,0.16104,-0.1708,-0.09516,-0.01952,-0.06588,0.10736,0.05856,0.08784,-0.11224,-0.27816,-0.20984
-0.11224,0.13176,-0.15128,-0.09516,-0.03904,-0.0366,0.08296,0.06832,0.18056,0.14152,-0.10736,-0.11224
-0.0488,0.0732,-0.0976,-0.0732,-0.0488,0,0.00976,0.0488,0.3416,0.59048,0.25376,0.11224
0.1464,-0.11224,0.07808,0.00488,-0.06832,0.10736,-0.13664,0.10248,0.64904,1.2932,0.85888,0.50264
0.33184,-0.29768,0.26352,0.0976,-0.06832,0.20008,-0.31232,0.06344,0.74664,1.83,1.40056,0.91744
0.5124,-0.44164,0.37088,0.11468,-0.14152,0.32696,-0.488,0.0244,0.78568,2.16672,1.87392,1.30296
0.72712,-0.58804,0.44896,0.0854,-0.27816,0.50264,-0.64416,0.01464,0.92232,2.56688,2.3424,1.65432
0.81008,-0.64904,0.488,0.08296,-0.32208,0.56608,-0.7808,-0.1952,0.74664,2.49856,2.31312,1.708
0.732,-0.62708,0.52216,0.15616,-0.20984,0.47092,-0.854,-0.64416,0.05368,1.51768,1.7324,1.48352
0.42944,-0.4636,0.49776,0.28304,0.06832,0.18056,-0.79544,-1.10776,-0.89792,-0.01952,0.64416,0.93696
0.18056,-0.2562,0.33184,0.24156,0.15128,0.01464,-0.86376,-1.57624,-2.29848,-1.68848,-0.45384,0.32208
0.0244,-0.10492,0.18544,0.17324,0.16104,-0.06832,-0.82472,-1.66896,-2.65472,-2.11792,-0.9516,-0.08296
-0.0488,-0.00244,0.05368,0.07808,0.10248,-0.07564,-0.75152,-1.5128,-2.38632,-2.00568,-1.11264,-0.32696
-0.10248,0.10004,-0.0976,-0.04636,0.00488,-0.05368,-0.6344,-1.28344,-2.04472,-1.7568,-1.05896,-0.38552
-0.14152,0.1342,-0.12688,-0.05612,0.01464,-0.07808,-0.45872,-0.98576,-1.5616,-1.36152,-0.86864,-0.34648
-0.16104,0.12932,-0.0976,-0.01708,0.06344,-0.11224,-0.27328,-0.64904,-1.0248,-0.94184,-0.6588,-0.28304
-0.10248,0.05856,-0.01464,0.0366,0.08784,-0.09516,-0.19032,-0.37088,-0.61976,-0.60512,-0.41968,-0.15616
-0.0976,0.05856,-0.01952,0.02928,0.07808,-0.08784,-0.11224,-0.20984,-0.37088,-0.43432,-0.32208,-0.12688
-0.10248,0.07564,-0.0488,0.00244,0.05368,-0.07808,-0.03904,-0.13176,-0.2196,-0.31232,-0.2684,-0.11224
-0.09272,0.08052,-0.06832,-0.02196,0.0244,-0.05856,0.00488,-0.06832,-0.13664,-0.23424,-0.244,-0.11224
-0.07808,0.07808,-0.07808,-0.03904,0,-0.03904,0.01464,-0.03416,-0.0732,-0.20008,-0.22448,-0.11224
-0.08784,0.09516,-0.10248,-0.05856,-0.01464,-0.0366,0.01464,0.00976,-0.04392,-0.18056,-0.20008,-0.10248
-0.08784,0.0976,-0.10736,-0.06344,-0.01952,-0.03416,0.03904,0.01464,-0.03416,-0.1708,-0.21472,-0.11224
-0.08784,0.0976,-0.10736,-0.06344,-0.01952,-0.03416,0.04392,0.0244,-0.00488,-0.15128,-0.21472,-0.122
-0.08784,0.09516,-0.10248,-0.05856,-0.01464,-0.0366,0.0488,0.03416,0.00488,-0.13664,-0.20008,-0.11224
-0.08784,0.09028,-0.09272,-0.0488,-0.00488,-0.04148,0.0488,0.03904,0.00488,-0.13664,-0.20008,-0.10736
-0.07808,0.09028,-0.10248,-0.06344,-0.0244,-0.02684,0.05368,0.0488,0.01464,-0.122,-0.18544,-0.11224
-0.07808,0.09028,-0.10248,-0.06344,-0.0244,-0.02684,0.05856,0.05368,0.0244,-0.11712,-0.18544,-0.11712
-0.08784,0.0976,-0.10736,-0.06344,-0.01952,-0.03416,0.05368,0.0488,0.02928,-0.11224,-0.19032,-0.11224
-0.08296,0.09272,-0.10248,-0.061,-0.01952,-0.03172,0.0488,0.05368,0.01952,-0.122,-0.18544,-0.10736
-0.08296,0.09516,-0.10736,-0.06588,-0.0244,-0.02928,0.06344,0.06832,0.02928,-0.11224,-0.1708,-0.0976
-0.08296,0.09516,-0.10736,-0.06588,-0.0244,-0.02928,0.06344,0.06832,0.04392,-0.10736,-0.1708,-0.0976
-0.08296,0.10004,-0.11712,-0.07564,-0.03416,-0.0244,0.06344,0.0732,0.03904,-0.10248,-0.18056,-0.10736
-0.08784,0.10248,-0.11712,-0.0732,-0.02928,-0.02928,0.06832,0.0732,0.03904,-0.10248,-0.19032,-0.10736
-0.08296,0.09516,-0.10736,-0.06588,-0.0244,-0.02928,0.06344,0.06832,0.03904,-0.10248,-0.19032,-0.11712
-0.08296,0.09272,-0.10248,-0.061,-0.01952,-0.03172,0.06344,0.0732,0.03904,-0.0976,-0.19032,-0.11712
-0.08296,0.0976,-0.11224,-0.07076,-0.02928,-0.02684,0.06832,0.0732,0.03416,-0.0976,-0.18056,-0.11712
-0.08296,0.0976,-0.11224,-0.07076,-0.02928,-0.02684,0.0732,0.07808,0.03416,-0.09272,-0.18056,-0.11712
-0.08296,0.09272,-0.10248,-0.061,-0.01952,-0.03172,0.06344,0.07808,0.04392,-0.08296,-0.18544,-0.11224
-0.08296,0.09516,-0.10736,-0.06588,-0.0244,-0.02928,0.06344,0.07808,0.04392,-0.08296,-0.18544,-0.10248
-0.07808,0.0976,-0.11712,-0.07808,-0.03904,-0.01952,0.0732,0.09272,0.0488,-0.07808,-0.18056,-0.10248
-0.07808,0.10004,-0.122,-0.08296,-0.04392,-0.01708,0.07808,0.0976,0.0488,-0.07808,-0.18056,-0.0976
-0.07808,0.09516,-0.11224,-0.0732,-0.03416,-0.02196,0.06832,0.10248,0.05368,-0.08784,-0.19032,-0.10736
-0.07808,0.08784,-0.0976,-0.05856,-0.01952,-0.02928,0.06344,0.10736,0.05368,-0.08784,-0.19032,-0.11712
-0.07808,0.09516,-0.11224,-0.0732,-0.03416,-0.02196,0.06832,0.10248,0.05368,-0.08296,-0.18544,-0.10736
-0.0732,0.09272,-0.11224,-0.07564,-0.03904,-0.01708,0.06832,0.10248,0.05368,-0.08784,-0.18056,-0.10736
-0.06344,0.09028,-0.11712,-0.0854,-0.05368,-0.00488,0.0732,0.11224,0.05368,-0.09272,-0.19032,-0.11712
-0.06344,0.0976,-0.13176,-0.10004,-0.06832,0.00244,0.0732,0.11712,0.05856,-0.09272,-0.19032,-0.11712
-0.0732,0.0976,-0.122,-0.0854,-0.0488,-0.0122,0.06344,0.11712,0.05856,-0.08784,-0.1952,-0.11712
-0.06832,0.09028,-0.11224,-0.07808,-0.04392,-0.0122,0.06344,0.122,0.06344,-0.09272,-0.1952,-0.11712
-0.05856,0.08296,-0.10736,-0.07808,-0.0488,-0.00488,0.06832,0.13664,0.06832,-0.09272,-0.19032,-0.10736
-0.05856,0.08052,-0.10248,-0.0732,-0.04392,-0.00732,0.0732,0.14152,0.0732,-0.08784,-0.18544,-0.10736
-0.05856,0.08052,-0.10248,-0.0732,-0.04392,-0.00732,0.08296,0.15128,0.0732,-0.07808,-0.18544,-0.10248
-0.05856,0.08052,-0.10248,-0.0732,-0.04392,-0.00732,0.08296,0.15128,0.07808,-0.0732,-0.18544,-0.0976
-0.05368,0.07564,-0.0976,-0.07076,-0.04392,-0.00488,0.08784,0.16104,0.08784,-0.0732,-0.17568,-0.08784
-0.0488,0.07076,-0.09272,-0.06832,-0.04392,-0.00244,0.08784,0.1708,0.09272,-0.0732,-0.1708,-0.08784
-0.0488,0.06588,-0.08296,-0.05856,-0.03416,-0.00732,0.07808,0.18544,0.09272,-0.07808,-0.1708,-0.08296
-0.0488,0.06832,-0.08784,-0.06344,-0.03904,-0.00488,0.08784,0.20008,0.10736,-0.0732,-0.16104,-0.07808
-0.04392,0.06344,-0.08296,-0.061,-0.03904,-0.00244,0.10248,0.20984,0.11224,-0.05856,-0.15616,-0.06832
-0.03904,0.061,-0.08296,-0.06344,-0.04392,0.00244,0.11224,0.2196,0.11224,-0.0488,-0.15616,-0.06344
-0.03904,0.05856,-0.07808,-0.05856,-0.03904,0,0.10248,0.23424,0.12688,-0.04392,-0.15616,-0.06832
-0.03416,0.05124,-0.06832,-0.05124,-0.03416,0,0.11224,0.25376,0.13664,-0.03416,-0.1464,-0.05368
-0.01952,0.03904,-0.05856,-0.0488,-0.03904,0.00976,0.11712,0.25376,0.1464,-0.04392,-0.14152,-0.0488
-0.00976,0.02684,-0.04392,-0.03904,-0.03416,0.0122,0.11712,0.2684,0.15128,-0.04392,-0.13176,-0.04392
-0.00976,0.02928,-0.0488,-0.04392,-0.03904,0.01464,0.12688,0.2928,0.15616,-0.03416,-0.12688,-0.03904
-0.00488,0.0244,-0.04392,-0.04148,-0.03904,0.01708,0.13664,0.30744,0.16104,-0.02928,-0.122,-0.02928
0,0.0122,-0.0244,-0.0244,-0.0244,0.0122,0.12688,0.30744,0.16592,-0.02928,-0.11712,-0.03904
0.00488,0.00488,-0.01464,-0.01708,-0.01952,0.0122,0.13176,0.3172,0.16592,-0.02928,-0.10736,-0.0244
0.00976,-0.00244,-0.00488,-0.00976,-0.01464,0.0122,0.13176,0.32696,0.17568,-0.0244,-0.10248,-0.00488
0.01464,-0.00732,0,-0.00732,-0.01464,0.01464,0.13664,0.34648,0.17568,-0.0244,-0.09272,0.00488
0.02928,-0.01464,0,-0.01464,-0.02928,0.02928,0.1464,0.34648,0.1708,-0.02928,-0.08296,0.00976
0.02928,-0.01708,0.00488,-0.00976,-0.0244,0.02684,0.1464,0.34648,0.16592,-0.02928,-0.07808,0.01464
0.03416,-0.02196,0.00976,-0.00732,-0.0244,0.02928,0.1464,0.35624,0.16104,-0.03904,-0.0732,0.02928
0.03416,-0.0244,0.01464,-0.00244,-0.01952,0.02684,0.1464,0.34648,0.15128,-0.03904,-0.06832,0.03416
0.0488,-0.03416,0.01952,-0.00488,-0.02928,0.03904,0.14152,0.34648,0.1464,-0.02928,-0.05856,0.03416
0.05856,-0.03904,0.01952,-0.00976,-0.03904,0.0488,0.13176,0.33184,0.13664,-0.03416,-0.05368,0.0488
0.05856,-0.04392,0.02928,0,-0.02928,0.04392,0.13176,0.32696,0.12688,-0.02928,-0.03416,0.0488
0.06344,-0.04636,0.02928,-0.00244,-0.03416,0.0488,0.122,0.31232,0.122,-0.0244,-0.0244,0.05856
0.06832,-0.05612,0.04392,0.00976,-0.0244,0.04636,0.0976,0.2928,0.11224,-0.0244,-0.01464,0.06344
0.0732,-0.06344,0.05368,0.01708,-0.01952,0.04636,0.09272,0.27328,0.10248,-0.01464,-0.00976,0.06344
0.08296,-0.06588,0.0488,0.00732,-0.03416,0.05856,0.09272,0.25864,0.10736,0,0.00488,0.07808
0.08296,-0.05856,0.03416,-0.00732,-0.0488,0.06588,0.08296,0.23912,0.11224,0.00976,0.00488,0.08296
0.0732,-0.0488,0.0244,-0.0122,-0.0488,0.061,0.08296,0.2196,0.09272,0,-0.00976,0.08296
0.05856,-0.04392,0.02928,0,-0.02928,0.04392,0.06832,0.1952,0.09272,-0.00488,-0.00976,0.08296
0.0488,-0.0366,0.0244,0,-0.0244,0.0366,0.06344,0.1708,0.08296,-0.00976,-0.01952,0.06832
0.04392,-0.02928,0.01464,-0.00732,-0.02928,0.0366,0.05368,0.15128,0.0732,-0.00976,-0.02928,0.06344
0.03416,-0.02684,0.01952,0.00244,-0.01464,0.0244,0.03904,0.12688,0.05856,-0.0244,-0.03904,0.03904
0.03416,-0.0244,0.01464,-0.00244,-0.01952,0.02684,0.02928,0.10736,0.0488,-0.03416,-0.0488,0.03416
0.01464,-0.00732,0,-0.00732,-0.01464,0.01464,0.03416,0.08784,0.02928,-0.04392,-0.06832,0.01952
0.00976,-0.00244,-0.00488,-0.00976,-0.01464,0.0122,0.02928,0.08296,0.01464,-0.05368,-0.09272,0.00488
0.00976,-0.00488,0,-0.00488,-0.00976,0.00976,0.01952,0.06344,0.00976,-0.0732,-0.09272,0
0,0.00488,-0.00976,-0.00976,-0.00976,0.00488,0.01464,0.04392,0,-0.07808,-0.10248,-0.00976
-0.00488,0.0122,-0.01952,-0.01708,-0.01464,0.00488,0.01952,0.03416,-0.01464,-0.08296,-0.11224,-0.02928
-0.00488,0.01708,-0.02928,-0.02684,-0.0244,0.00976,0.01952,0.02928,-0.0244,-0.09272,-0.11712,-0.03416
-0.00976,0.01708,-0.0244,-0.01952,-0.01464,0.00244,0.00976,0.02928,-0.01952,-0.10736,-0.12688,-0.03904
-0.01952,0.02196,-0.0244,-0.01464,-0.00488,-0.00732,0.00976,0.01952,-0.0244,-0.10736,-0.14152,-0.0488
-0.01952,0.02684,-0.03416,-0.0244,-0.01464,-0.00244,0.01952,0.02928,-0.02928,-0.10248,-0.13664,-0.04392
-0.01952,0.02684,-0.03416,-0.0244,-0.01464,-0.00244,0.01952,0.02928,-0.02928,-0.11224,-0.14152,-0.0488
-0.01952,0.01952,-0.01952,-0.00976,0,-0.00976,0.0244,0.0244,-0.02928,-0.11224,-0.15128,-0.03904
-0.0244,0.02684,-0.02928,-0.01708,-0.00488,-0.00976,0.02928,0.0244,-0.02928,-0.11224,-0.15616,-0.03416
-0.01952,0.02684,-0.03416,-0.0244,-0.01464,-0.00244,0.02928,0.02928,-0.01952,-0.10248,-0.1464,-0.0488
-0.01952,0.02684,-0.03416,-0.0244,-0.01464,-0.00244,0.03416,0.02928,-0.01464,-0.10736,-0.1464,-0.0488
-0.02928,0.03416,-0.03904,-0.0244,-0.00976,-0.00976,0.03416,0.02928,-0.00488,-0.0976,-0.1464,-0.0488
-0.03416,0.04148,-0.0488,-0.03172,-0.01464,-0.00976,0.03416,0.02928,0,-0.0976,-0.15128,-0.0488
-0.03416,0.03416,-0.03416,-0.01708,0,-0.01708,0.03416,0.03904,0.00488,-0.09272,-0.16592,-0.05856
-0.03416,0.02928,-0.0244,-0.00732,0.00976,-0.02196,0.03416,0.0488,0.00488,-0.09272,-0.16592,-0.05856
-0.0244,0.02684,-0.02928,-0.01708,-0.00488,-0.00976,0.03904,0.04392,0.01952,-0.07808,-0.15616,-0.05856
-0.0244,0.0244,-0.0244,-0.0122,0,-0.0122,0.03904,0.04392,0.0244,-0.06832,-0.15128,-0.06344
-0.0244,0.02928,-0.03416,-0.02196,-0.00976,-0.00732,0.03904,0.04392,0.04392,-0.05856,-0.15128,-0.0488
-0.0244,0.02684,-0.02928,-0.01708,-0.00488,-0.00976,0.04392,0.0488,0.04392,-0.05368,-0.1464,-0.0488
-0.0244,0.02684,-0.02928,-0.01708,-0.00488,-0.00976,0.04392,0.05856,0.0488,-0.05368,-0.13176,-0.0488
-0.0244,0.02684,-0.02928,-0.01708,-0.00488,-0.00976,0.04392,0.06344,0.05368,-0.03416,-0.122,-0.04392
-0.00976,0.01952,-0.02928,-0.0244,-0.01952,0.00488,0.03416,0.06344,0.05856,-0.0244,-0.122,-0.03904
-0.00976,0.01952,-0.02928,-0.0244,-0.01952,0.00488,0.03416,0.06832,0.06344,-0.01464,-0.11224,-0.03904
-0.01464,0.02196,-0.02928,-0.02196,-0.01464,0,0.03904,0.06832,0.08296,-0.00976,-0.10248,-0.02928
-0.01464,0.02196,-0.02928,-0.02196,-0.01464,0,0.03416,0.06832,0.08296,0,-0.0976,-0.0244
-0.00488,0.00976,-0.01464,-0.0122,-0.00976,0.00244,0.03416,0.05856,0.0732,-0.00976,-0.10736,-0.03416
-0.00488,0.00488,-0.00488,-0.00244,0,-0.00244,0.03904,0.05856,0.07808,0,-0.10248,-0.02928
-0.00488,0.0122,-0.01952,-0.01708,-0.01464,0.00488,0.03416,0.05856,0.07808,0.00976,-0.08296,-0.01464
0,0.00732,-0.01464,-0.01464,-0.01464,0.00732,0.03904,0.05856,0.08296,0.01464,-0.08296,-0.00976
0,0.0122,-0.0244,-0.0244,-0.0244,0.0122,0.03416,0.06832,0.08296,0.01952,-0.07808,-0.01464
-0.00488,0.0122,-0.01952,-0.01708,-0.01464,0.00488,0.02928,0.06832,0.08296,0.0244,-0.0732,-0.01952
-0.00976,0.00732,-0.00488,0,0.00488,-0.00732,0.02928,0.05856,0.0732,0.01464,-0.0732,-0.01952
-0.00976,0.00976,-0.00976,-0.00488,0,-0.00488,0.02928,0.05368,0.06832,0.00488,-0.06832,-0.01952
0,0.00732,-0.01464,-0.01464,-0.01464,0.00732,0.02928,0.05368,0.0732,0.01464,-0.06344,-0.03416
0,0.00976,-0.01952,-0.01952,-0.01952,0.00976,0.0244,0.05368,0.06832,0.01952,-0.06344,-0.02928
0,0.00488,-0.00976,-0.00976,-0.00976,0.00488,0.0244,0.0488,0.06832,0.00976,-0.05368,-0.01464
0,0.00488,-0.00976,-0.00976,-0.00976,0.00488,0.01952,0.0488,0.06832,0.00976,-0.05368,-0.0244
-0.00976,0.0122,-0.01464,-0.00976,-0.00488,-0.00244,0.02928,0.03416,0.06344,0.00976,-0.06344,-0.0244
-0.01464,0.02684,-0.03904,-0.03172,-0.0244,0.00488,0.02928,0.03416,0.06344,0.00488,-0.0732,-0.01952
-0.00488,0.02196,-0.03904,-0.0366,-0.03416,0.01464,0.02928,0.04392,0.05856,0.01464,-0.0732,-0.0244
-0.00488,0.01708,-0.02928,-0.02684,-0.0244,0.00976,0.02928,0.04392,0.05856,0.00976,-0.07808,-0.03416
0,0.00976,-0.01952,-0.01952,-0.01952,0.00976,0.01952,0.02928,0.05368,0,-0.0732,-0.0244
0,0.00732,-0.01464,-0.01464,-0.01464,0.00732,0.01464,0.0244,0.05368,0,-0.0732,-0.0244
-0.00488,0.00976,-0.01464,-0.0122,-0.00976,0.00244,0.01464,0.0244,0.0488,0.00488,-0.06344,-0.03416
-0.00488,0.01708,-0.02928,-0.02684,-0.0244,0.00976,0.01464,0.0244,0.0488,0,-0.0732,-0.03416
-0.00488,0.0122,-0.01952,-0.01708,-0.01464,0.00488,0.00488,0.03416,0.0488,0.00976,-0.05856,-0.02928
-0.00488,0.01464,-0.0244,-0.02196,-0.01952,0.00732,0.00488,0.02928,0.04392,0.00488,-0.05368,-0.02928
-0.00488,0.0122,-0.01952,-0.01708,-0.01464,0.00488,0.00488,0.01952,0.04392,-0.00488,-0.05368,-0.03904
-0.00488,0.0122,-0.01952,-0.01708,-0.01464,0.00488,0.00488,0.01952,0.04392,-0.00488,-0.05368,-0.03904
-0.00488,0.02196,-0.03904,-0.0366,-0.03416,0.01464,0.00488,0.01952,0.04392,-0.00488,-0.06344,-0.03416
-0.00488,0.01952,-0.03416,-0.03172,-0.02928,0.0122,0.00976,0.01952,0.04392,-0.00488,-0.06344,-0.03416
-0.01464,0.01952,-0.0244,-0.01708,-0.00976,-0.00244,0.00488,0.01952,0.03904,0.00488,-0.06344,-0.04392
-0.01464,0.02196,-0.02928,-0.02196,-0.01464,0,0.00488,0.01952,0.03904,0.00488,-0.05856,-0.03904
-0.0244,0.02928,-0.03416,-0.02196,-0.00976,-0.00732,0.01464,0.01464,0.02928,0.00488,-0.05856,-0.05368
-0.0244,0.03172,-0.03904,-0.02684,-0.01464,-0.00488,0.01464,0.01464,0.02928,0.00488,-0.06344,-0.0488
-0.0244,0.02928,-0.03416,-0.02196,-0.00976,-0.00732,0.01464,0.01464,0.02928,-0.00488,-0.05856,-0.05368
-0.0244,0.02928,-0.03416,-0.02196,-0.00976,-0.00732,0.01464,0.01464,0.02928,-0.00488,-0.05368,-0.05368
-0.00976,0.02928,-0.0488,-0.04392,-0.03904,0.01464,0.01952,0.01952,0.03904,0.00976,-0.03904,-0.03904
-0.01952,0.02928,-0.03904,-0.02928,-0.01952,0,0.00976,0.01952,0.02928,0.00976,-0.0488,-0.0488
-0.01952,0.02928,-0.03904,-0.02928,-0.01952,0,0.00976,0.01952,0.02928,0.00976,-0.0488,-0.0488
-0.01952,0.0244,-0.02928,-0.01952,-0.00976,-0.00488,0.01952,0.00976,0.03416,0.00488,-0.0488,-0.03904
-0.01464,0.01708,-0.01952,-0.0122,-0.00488,-0.00488,0.01952,0.01464,0.04392,0.01464,-0.04392,-0.03416
0,0.00244,-0.00488,-0.00488,-0.00488,0.00244,0.00976,0.0244,0.0488,0.02928,-0.03904,-0.03416
0.00488,-0.0122,0.01952,0.01708,0.01464,-0.00488,0.00976,0.02928,0.06344,0.03904,-0.0244,-0.01952
0,-0.0122,0.0244,0.0244,0.0244,-0.0122,0.01464,0.02928,0.07808,0.03904,-0.0244,-0.01952
0,-0.0122,0.0244,0.0244,0.0244,-0.0122,0.01464,0.02928,0.08296,0.0488,-0.01464,-0.01464
0.01464,-0.02196,0.02928,0.02196,0.01464,0,0.01464,0.02928,0.08296,0.05368,-0.01464,-0.01464
0.01464,-0.01464,0.01464,0.00732,0,0.00732,0.01464,0.03416,0.08784,0.05856,-0.00976,-0.00976
0.00976,0.00244,-0.01464,-0.01952,-0.0244,0.01708,0.01464,0.04392,0.09272,0.05368,-0.00976,-0.00488
0.01464,0.00732,-0.02928,-0.0366,-0.04392,0.02928,0.00976,0.04392,0.09272,0.05368,-0.00488,0
0.02928,-0.00244,-0.0244,-0.03904,-0.05368,0.04148,0,0.03416,0.08296,0.04392,-0.00976,-0.01464
0.03904,-0.01464,-0.00976,-0.02928,-0.0488,0.04392,-0.01464,0.02928,0.08296,0.05368,0.00488,-0.01464
0.0488,-0.01708,-0.01464,-0.03904,-0.06344,0.05612,-0.01464,0.02928,0.08296,0.05856,0.00976,0
0.06344,-0.02684,-0.00976,-0.04148,-0.0732,0.06832,-0.03904,0.01464,0.06832,0.06832,0.00488,0.00488
0.0732,-0.04148,0.00976,-0.02684,-0.06344,0.06832,-0.05856,0.01464,0.06832,0.05856,0.01952,0.0244
0.08296,-0.04148,0,-0.04148,-0.08296,0.08296,-0.06344,0.00488,0.03416,0.04392,0.01464,0.01952
0.08296,-0.04148,0,-0.04148,-0.08296,0.08296,-0.06344,0,0.03904,0.06344,0.02928,0.0244
0.09272,-0.04392,-0.00488,-0.05124,-0.0976,0.09516,-0.06344,0,0.03416,0.05856,0.0244,0.01952
0.09272,-0.04392,-0.00488,-0.05124,-0.0976,0.09516,-0.06344,0,0.0244,0.0488,0.0244,0.03416
0.09272,-0.03904,-0.01464,-0.061,-0.10736,0.10004,-0.0732,-0.00976,0.00488,0.03416,0.01952,0.03416
0.10248,-0.03904,-0.0244,-0.07564,-0.12688,0.11468,-0.07808,-0.01464,-0.00488,0.03416,0.01464,0.0244
0.08296,-0.02928,-0.0244,-0.06588,-0.10736,0.09516,-0.06832,-0.01952,-0.00976,0.02928,0.00976,0.00976
0.05368,-0.00976,-0.03416,-0.061,-0.08784,0.07076,-0.03904,-0.00488,0.00488,0.0244,0.00488,0
0.01952,0.00732,-0.03416,-0.04392,-0.05368,0.0366,-0.01464,-0.00488,0.00976,0.02928,0,-0.01464
0.00488,0.01464,-0.03416,-0.0366,-0.03904,0.02196,-0.01952,-0.00488,-0.00488,0.01464,-0.01952,-0.02928
-0.00976,0.02928,-0.0488,-0.04392,-0.03904,0.01464,-0.00976,-0.00976,-0.00488,0.00488,-0.04392,-0.05368
-0.01952,0.03416,-0.0488,-0.03904,-0.02928,0.00488,0.00976,0.00488,0.00976,0,-0.04392,-0.05368
-0.02928,0.04392,-0.05856,-0.04392,-0.02928,0,0.01464,0.01464,0.00976,-0.00976,-0.04392,-0.06344
-0.02928,0.04392,-0.05856,-0.04392,-0.02928,0,0.01952,0.01464,0.00976,0,-0.05368,-0.06344
-0.03416,0.05124,-0.06832,-0.05124,-0.03416,0,0.0244,0.01464,0.00488,-0.00976,-0.06344,-0.06832
-0.04392,0.05612,-0.06832,-0.04636,-0.0244,-0.00976,0.0244,0.01464,0,-0.00488,-0.06344,-0.05856
-0.04392,0.05612,-0.06832,-0.04636,-0.0244,-0.00976,0.01952,0.01464,-0.00488,-0.00488,-0.06344,-0.06344
-0.04392,0.05368,-0.06344,-0.04148,-0.01952,-0.0122,0.0244,0.01464,0,-0.01464,-0.05368,-0.06344
-0.0488,0.05856,-0.06832,-0.04392,-0.01952,-0.01464,0.0244,0.01952,0,-0.01464,-0.05368,-0.06832
-0.0488,0.05612,-0.06344,-0.03904,-0.01464,-0.01708,0.01464,0.00976,-0.00976,-0.01464,-0.06344,-0.07808
-0.0488,0.05856,-0.06832,-0.04392,-0.01952,-0.01464,0.01952,0.00976,-0.00976,-0.01464,-0.06832,-0.07808
-0.0488,0.05124,-0.05368,-0.02928,-0.00488,-0.02196,0.01952,0.00976,-0.00976,-0.0244,-0.06832,-0.0732
-0.0488,0.04636,-0.04392,-0.01952,0.00488,-0.02684,0.01952,0.00976,-0.00976,-0.01952,-0.06344,-0.07808
-0.0488,0.05612,-0.06344,-0.03904,-0.01464,-0.01708,0.03904,0.01952,-0.00488,0,-0.04392,-0.05856
-0.03904,0.05856,-0.07808,-0.05856,-0.03904,0,0.03904,0.01952,0.00488,-0.00976,-0.06832,-0.07808
-0.0732,0.07564,-0.07808,-0.04148,-0.00488,-0.03416,0.0488,0.02928,0,-0.05856,-0.11224,-0.12688
-0.10248,0.09028,-0.07808,-0.02684,0.0244,-0.06344,0.08296,0.03904,-0.00976,-0.15128,-0.2196,-0.20496
-0.12688,0.13908,-0.15128,-0.08784,-0.0244,-0.05124,0.13176,0.07808,-0.00488,-0.20496,-0.31232,-0.28304
-0.122,0.122,-0.122,-0.061,0,-0.061,0.10736,0.05856,0.03904,-0.08296,-0.23912,-0.24888
-0.08296,0.122,-0.16104,-0.11956,-0.07808,-0.00244,0.08296,0.06832,0.14152,0.1708,-0.06832,-0.16104
0,0.01952,-0.03904,-0.03904,-0.03904,0.01952,0,0.03904,0.2928,0.63928,0.2928,0.06344
0.17568,-0.14152,0.10736,0.01952,-0.06832,0.122,-0.13664,0.10248,0.61,1.3908,0.91744,0.48312
0.3416,-0.3172,0.2928,0.122,-0.0488,0.1952,-0.31232,0.05368,0.72712,1.94712,1.47864,0.89792
0.52216,-0.48556,0.44896,0.18788,-0.0732,0.29768,-0.47824,0.00488,0.77592,2.30336,2.0008,1.30296
0.73688,-0.63684,0.5368,0.16836,-0.20008,0.46848,-0.64416,-0.0244,0.91256,2.75232,2.4888,1.67384
0.8296,-0.70272,0.57584,0.16104,-0.25376,0.54168,-0.79056,-0.22448,0.72712,2.69376,2.4888,1.74704
0.72224,-0.65636,0.59048,0.22936,-0.13176,0.427,-0.84424,-0.61488,0.10248,1.76168,1.96664,1.55184
0.41968,-0.50264,0.5856,0.37576,0.16592,0.12688,-0.79544,-1.06872,-0.8784,0.13664,0.83936,0.99552
0.19032,-0.31476,0.4392,0.34404,0.24888,-0.02928,-0.87352,-1.54696,-2.2692,-1.59088,-0.30744,0.36112
0.0244,-0.1342,0.244,0.2318,0.2196,-0.0976,-0.8052,-1.60064,-2.60592,-1.99104,-0.84424,-0.0732
-0.03904,-0.02684,0.09272,0.11224,0.13176,-0.0854,-0.72224,-1.42496,-2.29848,-1.86904,-0.99552,-0.30744
-0.08296,0.08052,-0.07808,-0.0366,0.00488,-0.04392,-0.60512,-1.18584,-1.9764,-1.64944,-0.97112,-0.39528
-0.11224,0.10492,-0.0976,-0.04148,0.01464,-0.06344,-0.4392,-0.91744,-1.5128,-1.26392,-0.7808,-0.35624
-0.13176,0.1098,-0.08784,-0.02196,0.04392,-0.08784,-0.244,-0.57096,-0.976,-0.854,-0.59048,-0.30256
-0.0732,0.05368,-0.03416,0.00244,0.03904,-0.05612,-0.1708,-0.31232,-0.59048,-0.52704,-0.36112,-0.18544
-0.06832,0.06344,-0.05856,-0.0244,0.00976,-0.03904,-0.08296,-0.15128,-0.35136,-0.366,-0.27328,-0.16592
-0.05368,0.04636,-0.03904,-0.0122,0.01464,-0.03416,-0.03904,-0.10248,-0.22936,-0.26352,-0.22936,-0.15128
-0.06344,0.05124,-0.03904,-0.00732,0.0244,-0.04392,-0.00488,-0.06832,-0.13664,-0.18544,-0.18544,-0.14152
-0.05856,0.05368,-0.0488,-0.01952,0.00976,-0.03416,0.00488,-0.01464,-0.09272,-0.14152,-0.16592,-0.14152
-0.05856,0.061,-0.06344,-0.03416,-0.00488,-0.02684,0.00488,0.01952,-0.06344,-0.122,-0.15128,-0.13176
-0.05856,0.06344,-0.06832,-0.03904,-0.00976,-0.0244,0.02928,0.0244,-0.05368,-0.122,-0.1464,-0.13176
-0.05856,0.06344,-0.06832,-0.03904,-0.00976,-0.0244,0.03416,0.03416,-0.0244,-0.10248,-0.1464,-0.14152
-0.06832,0.06588,-0.06344,-0.02928,0.00488,-0.0366,0.02928,0.03416,-0.00488,-0.07808,-0.14152,-0.15128
-0.06832,0.06588,-0.06344,-0.02928,0.00488,-0.0366,0.02928,0.03904,-0.00488,-0.07808,-0.14152,-0.1464
-0.05856,0.05612,-0.05368,-0.0244,0.00488,-0.03172,0.04392,0.0488,-0.00488,-0.08296,-0.12688,-0.13176
-0.0488,0.05124,-0.05368,-0.02928,-0.00488,-0.02196,0.0488,0.05368,0.00488,-0.07808,-0.12688,-0.13664
-0.05856,0.06344,-0.06832,-0.03904,-0.00976,-0.0244,0.05368,0.05856,0.01952,-0.05368,-0.122,-0.13176
-0.05368,0.06344,-0.0732,-0.04636,-0.01952,-0.01708,0.0488,0.06344,0.01952,-0.05368,-0.11712,-0.12688
-0.05368,0.061,-0.06832,-0.04148,-0.01464,-0.01952,0.05368,0.06832,0.00976,-0.05368,-0.122,-0.12688
-0.05368,0.05612,-0.05856,-0.03172,-0.00488,-0.0244,0.05368,0.06832,0.01464,-0.0488,-0.122,-0.12688
-0.05368,0.061,-0.06832,-0.04148,-0.01464,-0.01952,0.05368,0.06344,0.02928,-0.03416,-0.11224,-0.11712
-0.05856,0.06832,-0.07808,-0.0488,-0.01952,-0.01952,0.05856,0.06344,0.02928,-0.03416,-0.10248,-0.11712
-0.04392,0.05612,-0.06832,-0.04636,-0.0244,-0.00976,0.04392,0.06832,0.01952,-0.04392,-0.11224,-0.11712
-0.04392,0.05856,-0.0732,-0.05124,-0.02928,-0.00732,0.04392,0.0732,0.01952,-0.03904,-0.11224,-0.11712
-0.04392,0.05856,-0.0732,-0.05124,-0.02928,-0.00732,0.05856,0.0732,0.03416,-0.03904,-0.11224,-0.11712
-0.04392,0.05856,-0.0732,-0.05124,-0.02928,-0.00732,0.06344,0.07808,0.03416,-0.03416,-0.11224,-0.11712
-0.04392,0.05856,-0.0732,-0.05124,-0.02928,-0.00732,0.06344,0.07808,0.03416,-0.03416,-0.11712,-0.13176
-0.04392,0.061,-0.07808,-0.05612,-0.03416,-0.00488,0.06344,0.07808,0.03416,-0.03416,-0.11712,-0.14152
-0.03904,0.05368,-0.06832,-0.0488,-0.02928,-0.00488,0.0732,0.08296,0.02928,-0.03904,-0.11224,-0.13176
-0.03904,0.05612,-0.0732,-0.05368,-0.03416,-0.00244,0.07808,0.08784,0.02928,-0.03904,-0.11224,-0.12688
-0.03904,0.061,-0.08296,-0.06344,-0.04392,0.00244,0.07808,0.09272,0.03416,-0.02928,-0.11224,-0.12688
-0.03904,0.05856,-0.07808,-0.05856,-0.03904,0,0.0732,0.0976,0.03416,-0.02928,-0.11224,-0.12688
-0.0488,0.061,-0.0732,-0.0488,-0.0244,-0.0122,0.06832,0.09272,0.03416,-0.03416,-0.12688,-0.12688
-0.04392,0.05856,-0.0732,-0.05124,-0.02928,-0.00732,0.06832,0.09272,0.03416,-0.03904,-0.122,-0.12688
-0.04392,0.05612,-0.06832,-0.04636,-0.0244,-0.00976,0.08296,0.10248,0.03416,-0.03416,-0.11224,-0.11712
-0.04392,0.05856,-0.0732,-0.05124,-0.02928,-0.00732,0.08296,0.10736,0.03904,-0.0244,-0.11224,-0.11712
-0.04392,0.05856,-0.0732,-0.05124,-0.02928,-0.00732,0.08296,0.11712,0.03904,-0.02928,-0.10736,-0.10736
-0.03904,0.05124,-0.06344,-0.04392,-0.0244,-0.00732,0.08296,0.122,0.04392,-0.03416,-0.10736,-0.10736
-0.02928,0.05368,-0.07808,-0.06344,-0.0488,0.00976,0.07808,0.12688,0.0488,-0.0244,-0.10248,-0.0976
-0.02928,0.05124,-0.0732,-0.05856,-0.04392,0.00732,0.08296,0.13176,0.05368,-0.01952,-0.0976,-0.0976
-0.02928,0.04636,-0.06344,-0.0488,-0.03416,0.00244,0.08296,0.14152,0.05368,-0.02928,-0.0976,-0.10248
-0.02928,0.04636,-0.06344,-0.0488,-0.03416,0.00244,0.08296,0.14152,0.05856,-0.0244,-0.0976,-0.0976
-0.0244,0.04148,-0.05856,-0.04636,-0.03416,0.00488,0.08784,0.15128,0.05856,-0.03416,-0.0976,-0.10736
-0.01952,0.0366,-0.05368,-0.04392,-0.03416,0.00732,0.08784,0.16104,0.06344,-0.03416,-0.09272,-0.10736
-0.01952,0.0366,-0.05368,-0.04392,-0.03416,0.00732,0.08784,0.15616,0.0732,-0.01952,-0.09272,-0.09272
-0.01952,0.03904,-0.05856,-0.0488,-0.03904,0.00976,0.0976,0.1708,0.08784,-0.00488,-0.08296,-0.08784
-0.01464,0.02928,-0.04392,-0.0366,-0.02928,0.00732,0.10248,0.19032,0.09272,0,-0.06832,-0.07808
-0.00976,0.02684,-0.04392,-0.03904,-0.03416,0.0122,0.11224,0.20008,0.09272,0,-0.06832,-0.0732
-0.00976,0.0244,-0.03904,-0.03416,-0.02928,0.00976,0.11224,0.21472,0.11712,0.00488,-0.06832,-0.06832
-0.00488,0.01708,-0.02928,-0.02684,-0.0244,0.00976,0.122,0.23424,0.12688,0.01464,-0.05856,-0.05368
-0.00976,0.01952,-0.02928,-0.0244,-0.01952,0.00488,0.12688,0.23424,0.12688,0.0244,-0.04392,-0.05856
0,0.00732,-0.01464,-0.01464,-0.01464,0.00732,0.12688,0.24888,0.13176,0.0244,-0.03416,-0.05368
0,0.00488,-0.00976,-0.00976,-0.00976,0.00488,0.13664,0.27328,0.1464,0.0244,-0.03904,-0.03904
0.00488,0,-0.00488,-0.00732,-0.00976,0.00732,0.1464,0.28792,0.15128,0.02928,-0.03416,-0.02928
0.01952,-0.01708,0.01464,0.00488,-0.00488,0.0122,0.1464,0.29768,0.16592,0.03904,-0.01952,-0.03904
0.0244,-0.0244,0.0244,0.0122,0,0.0122,0.15128,0.30744,0.16592,0.03904,-0.00976,-0.0244
0.02928,-0.03172,0.03416,0.01952,0.00488,0.0122,0.15128,0.30744,0.16592,0.03416,-0.01464,-0.0244
0.03416,-0.0366,0.03904,0.02196,0.00488,0.01464,0.15616,0.3172,0.16592,0.03416,-0.00488,-0.01464
0.0488,-0.05368,0.05856,0.03416,0.00976,0.01952,0.15616,0.3172,0.16104,0.02928,-0.00488,-0.00976
0.0488,-0.05612,0.06344,0.03904,0.01464,0.01708,0.15616,0.3172,0.15616,0.02928,0,-0.00488
0.05368,-0.05612,0.05856,0.03172,0.00488,0.0244,0.15616,0.32696,0.15128,0.02928,0.01464,0.00976
0.05368,-0.05368,0.05368,0.02684,0,0.02684,0.15616,0.3172,0.14152,0.03904,0.02928,0.0244
0.05856,-0.06344,0.06832,0.03904,0.00976,0.0244,0.15128,0.3172,0.13664,0.03904,0.03904,0.0244
0.06832,-0.0732,0.07808,0.04392,0.00976,0.02928,0.14152,0.30256,0.12688,0.03416,0.04392,0.03904
0.07808,-0.08784,0.0976,0.05856,0.01952,0.02928,0.13176,0.29768,0.12688,0.0488,0.05368,0.0488
0.08296,-0.09028,0.0976,0.05612,0.01464,0.03416,0.122,0.28304,0.122,0.05368,0.06344,0.05856
0.07808,-0.0854,0.09272,0.05368,0.01464,0.03172,0.11712,0.27328,0.122,0.05368,0.0732,0.06344
0.0732,-0.07808,0.08296,0.04636,0.00976,0.03172,0.122,0.25376,0.11224,0.06344,0.07808,0.06344
0.0732,-0.07564,0.07808,0.04148,0.00488,0.03416,0.11224,0.24888,0.10736,0.06832,0.08296,0.07808
0.0732,-0.06832,0.06344,0.02684,-0.00976,0.04148,0.10248,0.22936,0.11224,0.07808,0.08296,0.08296
0.0732,-0.06832,0.06344,0.02684,-0.00976,0.04148,0.09272,0.20984,0.10248,0.07808,0.07808,0.0732
0.06832,-0.06832,0.06832,0.03416,0,0.03416,0.07808,0.18544,0.10248,0.0732,0.07808,0.0732
0.05856,-0.061,0.06344,0.03416,0.00488,0.02684,0.08296,0.1708,0.09272,0.05856,0.05856,0.0488
0.05368,-0.05368,0.05368,0.02684,0,0.02684,0.0732,0.15128,0.08296,0.0488,0.0488,0.04392
0.04392,-0.04636,0.0488,0.02684,0.00488,0.01952,0.05856,0.12688,0.06832,0.04392,0.03904,0.02928
0.04392,-0.04392,0.04392,0.02196,0,0.02196,0.0488,0.0976,0.0488,0.03416,0.02928,0.0244
0.0244,-0.03172,0.03904,0.02684,0.01464,0.00488,0.05368,0.08784,0.0488,0.0244,0.00976,0.00976
0.01952,-0.02684,0.03416,0.0244,0.01464,0.00244,0.0488,0.09272,0.03416,0.01464,-0.00488,-0.00488
0.00976,-0.01952,0.02928,0.0244,0.01952,-0.00488,0.03904,0.0732,0.01952,-0.00488,-0.0244,-0.01952
0,-0.00976,0.01952,0.01952,0.01952,-0.00976,0.03416,0.05368,0.00976,-0.01952,-0.03416,-0.02928
-0.00488,-0.00732,0.01952,0.02196,0.0244,-0.01464,0.02928,0.04392,-0.00488,-0.03416,-0.04392,-0.02928
-0.00488,-0.00244,0.00976,0.0122,0.01464,-0.00976,0.02928,0.03904,-0.01464,-0.04392,-0.0488,-0.03416
0,-0.00244,0.00488,0.00488,0.00488,-0.00244,0.03904,0.02928,-0.02928,-0.0488,-0.0488,-0.0488
-0.00976,0.00244,0.00488,0.00976,0.01464,-0.0122,0.03904,0.01952,-0.03416,-0.0488,-0.06344,-0.05856
-0.01952,0.0122,-0.00488,0.00488,0.01464,-0.01708,0.03904,0.02928,-0.03904,-0.05368,-0.07808,-0.06344
-0.01952,0.0122,-0.00488,0.00488,0.01464,-0.01708,0.03904,0.02928,-0.03904,-0.06344,-0.08296,-0.06832
-0.01952,0.00976,0,0.00976,0.01952,-0.01952,0.04392,0.0244,-0.03904,-0.06344,-0.08296,-0.06832
-0.0244,0.01708,-0.00976,0.00244,0.01464,-0.01952,0.0488,0.0244,-0.03904,-0.06344,-0.08784,-0.06344
-0.01952,0.01708,-0.01464,-0.00488,0.00488,-0.0122,0.03904,0.02928,-0.03904,-0.06344,-0.08784,-0.06832
-0.01952,0.01708,-0.01464,-0.00488,0.00488,-0.0122,0.04392,0.02928,-0.03416,-0.06832,-0.08784,-0.06832
-0.02928,0.01952,-0.00976,0.00488,0.01952,-0.0244,0.04392,0.02928,-0.03416,-0.06832,-0.08784,-0.07808
-0.03416,0.02196,-0.00976,0.00732,0.0244,-0.02928,0.04392,0.02928,-0.02928,-0.06832,-0.09272,-0.07808
-0.0244,0.01952,-0.01464,-0.00244,0.00976,-0.01708,0.04392,0.02928,-0.01464,-0.05368,-0.08784,-0.06832
-0.0244,0.01952,-0.01464,-0.00244,0.00976,-0.01708,0.04392,0.03904,-0.01464,-0.04392,-0.07808,-0.06832
-0.01464,0.0122,-0.00976,-0.00244,0.00488,-0.00976,0.03904,0.03416,-0.00976,-0.03904,-0.07808,-0.06832
-0.01464,0.00488,0.00488,0.0122,0.01952,-0.01708,0.03904,0.03416,-0.00488,-0.03904,-0.0732,-0.0732
-0.01464,0.00488,0.00488,0.0122,0.01952,-0.01708,0.03904,0.03416,0.00488,-0.02928,-0.06344,-0.07808
-0.01464,0.00244,0.00976,0.01708,0.0244,-0.01952,0.04392,0.03904,0.00488,-0.0244,-0.05856,-0.07808
-0.0244,0.0122,0,0.0122,0.0244,-0.0244,0.05368,0.0488,0.02928,-0.01464,-0.04392,-0.06832
-0.0244,0.0122,0,0.0122,0.0244,-0.0244,0.05368,0.05368,0.03416,0.01464,-0.03416,-0.05368
-0.00976,0,0.00976,0.01464,0.01952,-0.01464,0.04392,0.04392,0.02928,0.01464,-0.04392,-0.0488
-0.00976,-0.00488,0.01952,0.0244,0.02928,-0.01952,0.04392,0.03904,0.03416,0.0244,-0.03416,-0.0488
-0.00488,-0.00244,0.00976,0.0122,0.01464,-0.00976,0.02928,0.03904,0.03416,0.01952,-0.03416,-0.0488
-0.00488,-0.00244,0.00976,0.0122,0.01464,-0.00976,0.0244,0.03904,0.03416,0.02928,-0.03904,-0.04392
-0.01464,0.00488,0.00488,0.0122,0.01952,-0.01708,0.03416,0.0488,0.04392,0.02928,-0.02928,-0.03416
-0.01464,0.00488,0.00488,0.0122,0.01952,-0.01708,0.0488,0.0488,0.05856,0.03904,-0.01464,-0.02928
-0.00488,-0.00244,0.00976,0.0122,0.01464,-0.00976,0.03416,0.0488,0.0488,0.0488,-0.00488,-0.03416
0,-0.0122,0.0244,0.0244,0.0244,-0.0122,0.03904,0.0488,0.05368,0.05368,-0.00488,-0.02928
0,-0.0122,0.0244,0.0244,0.0244,-0.0122,0.03416,0.0488,0.04392,0.05856,-0.00976,-0.03416
-0.00488,-0.0122,0.02928,0.03172,0.03416,-0.01952,0.02928,0.0488,0.04392,0.06344,-0.00488,-0.02928
0,-0.0122,0.0244,0.0244,0.0244,-0.0122,0.02928,0.0488,0.05368,0.05368,-0.01464,-0.02928
0,-0.00976,0.01952,0.01952,0.01952,-0.00976,0.02928,0.04392,0.0488,0.05368,-0.00976,-0.02928
0,-0.00732,0.01464,0.01464,0.01464,-0.00732,0.03904,0.04392,0.05368,0.06344,0.00488,-0.0244
0,-0.00488,0.00976,0.00976,0.00976,-0.00488,0.03416,0.04392,0.0488,0.06832,0.00488,-0.00976
0,-0.00976,0.01952,0.01952,0.01952,-0.00976,0.03416,0.03904,0.03904,0.05856,-0.00488,-0.0244
0,-0.00976,0.01952,0.01952,0.01952,-0.00976,0.02928,0.03904,0.03904,0.05856,-0.00488,-0.04392
0,-0.0122,0.0244,0.0244,0.0244,-0.0122,0.02928,0.03416,0.03416,0.05856,-0.01464,-0.03416
-0.00488,-0.00244,0.00976,0.0122,0.01464,-0.00976,0.02928,0.03416,0.03416,0.05368,-0.01464,-0.02928
-0.00488,-0.00244,0.00976,0.0122,0.01464,-0.00976,0.02928,0.03416,0.03904,0.06344,-0.00488,-0.01464
-0.00488,-0.00732,0.01952,0.02196,0.0244,-0.01464,0.02928,0.03416,0.03904,0.06832,-0.00976,-0.0244
0,-0.00976,0.01952,0.01952,0.01952,-0.00976,0.02928,0.01952,0.0244,0.05856,-0.00488,-0.0244
0,-0.00732,0.01464,0.01464,0.01464,-0.00732,0.0244,0.01464,0.0244,0.05856,-0.00488,-0.0244
-0.00488,-0.00976,0.0244,0.02684,0.02928,-0.01708,0.03416,0.0244,0.02928,0.06344,0.00488,-0.0244
-0.00488,-0.00244,0.00976,0.0122,0.01464,-0.00976,0.03416,0.0244,0.02928,0.05856,-0.00488,-0.0244
-0.01464,0.00244,0.00976,0.01708,0.0244,-0.01952,0.03416,0.0244,0.02928,0.06832,0,-0.01952
-0.01464,0.00488,0.00488,0.0122,0.01952,-0.01708,0.03416,0.01952,0.0244,0.06344,0.00488,-0.01952
-0.01464,-0.00244,0.01952,0.02684,0.03416,-0.0244,0.0244,0.01952,0.0244,0.05368,-0.00488,-0.01952
-0.01464,-0.00244,0.01952,0.02684,0.03416,-0.0244,0.0244,0.01952,0.0244,0.05368,-0.00488,-0.01952
-0.00488,-0.00244,0.00976,0.0122,0.01464,-0.00976,0.0244,0.01952,0.0244,0.05368,-0.00488,-0.03416
-0.00488,-0.00488,0.01464,0.01708,0.01952,-0.0122,0.02928,0.01952,0.0244,0.05368,-0.00488,-0.03416
-0.00488,-0.00976,0.0244,0.02684,0.02928,-0.01708,0.0244,0.01952,0.01952,0.05368,-0.00488,-0.03416
-0.00488,-0.00732,0.01952,0.02196,0.0244,-0.01464,0.0244,0.01952,0.01952,0.05368,0,-0.02928
-0.00488,-0.00976,0.0244,0.02684,0.02928,-0.01708,0.03416,0.00488,0.01952,0.04392,0,-0.03416
-0.00488,-0.0122,0.02928,0.03172,0.03416,-0.01952,0.03416,0.00488,0.01952,0.04392,-0.00488,-0.02928
-0.00488,0,0.00488,0.00732,0.00976,-0.00732,0.04392,0.0244,0.02928,0.06344,0.00976,-0.0244
0.00976,-0.00976,0.00976,0.00488,0,0.00488,0.02928,0.00976,0.01952,0.0488,-0.00976,-0.0488
0,-0.00976,0.01952,0.01952,0.01952,-0.00976,0.02928,0.00976,0.00976,0.0488,-0.00976,-0.03904
-0.00976,-0.00488,0.01952,0.0244,0.02928,-0.01952,0.02928,0.00976,0.00976,0.0488,-0.00976,-0.03904
0,-0.00976,0.01952,0.01952,0.01952,-0.00976,0.02928,0.00976,0.0244,0.05368,0,-0.02928
0.00488,-0.01708,0.02928,0.02684,0.0244,-0.00976,0.02928,0.01464,0.03416,0.06344,0.00488,-0.0244
0.00976,-0.02684,0.04392,0.03904,0.03416,-0.0122,0.02928,0.0244,0.03904,0.07808,0.01952,-0.0244
0.01464,-0.04148,0.06832,0.061,0.05368,-0.01952,0.02928,0.02928,0.05368,0.08784,0.03416,-0.00976
0.01952,-0.05124,0.08296,0.0732,0.06344,-0.02196,0.03416,0.01952,0.0488,0.08784,0.0244,-0.00976
0.01952,-0.05124,0.08296,0.0732,0.06344,-0.02196,0.03416,0.01952,0.05368,0.08784,0.03416,-0.00488
0.01464,-0.05612,0.0976,0.09028,0.08296,-0.03416,0.0244,0.01952,0.05368,0.09272,0.03416,-0.00488
0.01464,-0.0488,0.08296,0.07564,0.06832,-0.02684,0.0244,0.0244,0.05856,0.0976,0.03904,0
0.01952,-0.0366,0.05368,0.04392,0.03416,-0.00732,0.03416,0.03416,0.06344,0.09272,0.03904,-0.00488
0.0244,-0.02684,0.02928,0.01708,0.00488,0.00976,0.02928,0.03416,0.06344,0.09272,0.04392,0
0.01952,-0.02684,0.03416,0.0244,0.01464,0.00244,0.01952,0.0244,0.05368,0.08296,0.02928,-0.00488
0.02928,-0.03904,0.0488,0.03416,0.01952,0.00488,-0.00488,0.01952,0.04392,0.09272,0.04392,0.00488
0.0488,-0.04148,0.03416,0.00976,-0.01464,0.03172,-0.00488,0.01952,0.05368,0.0976,0.05856,0.00976
0.06344,-0.04636,0.02928,-0.00244,-0.03416,0.0488,-0.01952,0.00488,0.0488,0.10736,0.05368,0.01464
0.0732,-0.061,0.0488,0.0122,-0.0244,0.0488,-0.03904,0.00488,0.0488,0.10736,0.05856,0.03416
0.08296,-0.061,0.03904,-0.00244,-0.04392,0.06344,-0.04392,-0.00488,0.01464,0.09272,0.05368,0.02928
0.09272,-0.07076,0.0488,0.00244,-0.04392,0.06832,-0.04392,0,0.01952,0.10248,0.06832,0.04392
0.10248,-0.0732,0.04392,-0.00732,-0.05856,0.08052,-0.04392,0,0.01464,0.0976,0.06344,0.03904
0.11224,-0.0732,0.03416,-0.02196,-0.07808,0.09516,-0.04392,0.00976,0.0244,0.10736,0.0732,0.04392
0.11224,-0.06832,0.0244,-0.03172,-0.08784,0.10004,-0.04392,0,0.01464,0.09272,0.06832,0.04392
0.11224,-0.06344,0.01464,-0.04148,-0.0976,0.10492,-0.0488,-0.01464,-0.00488,0.08296,0.06344,0.05368
0.09272,-0.05368,0.01464,-0.03172,-0.07808,0.0854,-0.03904,-0.01952,-0.00976,0.07808,0.05856,0.03904
0.0732,-0.03904,0.00488,-0.03172,-0.06832,0.07076,-0.01952,-0.00488,-0.00488,0.0732,0.05368,0.03904
0.03904,-0.02196,0.00488,-0.01464,-0.03416,0.0366,0.00488,-0.00488,0,0.07808,0.0488,0.0244
0.0244,-0.01952,0.01464,0.00244,-0.00976,0.01708,0.00976,-0.00488,-0.00488,0.06344,0.02928,0.00976
0.00976,-0.00488,0,-0.00488,-0.00976,0.00976,0.01952,-0.00976,-0.00488,0.05368,0.01464,-0.00488
0,0.00488,-0.00976,-0.00976,-0.00976,0.00488,0.02928,0.00488,0,0.05856,0.00488,-0.01464
-0.00976,0.01464,-0.01952,-0.01464,-0.00976,0,0.03416,0.01464,0,0.0488,0.00488,-0.0244
-0.01952,0.01464,-0.00976,0,0.00976,-0.01464,0.02928,0.00488,-0.00976,0.03904,-0.00488,-0.03416
-0.0244,0.02196,-0.01952,-0.00732,0.00488,-0.01464,0.03416,0.00488,-0.01464,0.02928,-0.01464,-0.03904
-0.0244,0.02196,-0.01952,-0.00732,0.00488,-0.01464,0.03416,0.00488,-0.01952,0.0244,-0.0244,-0.0488
-0.0244,0.02196,-0.01952,-0.00732,0.00488,-0.01464,0.02928,0.00488,-0.0244,0.0244,-0.0244,-0.05368
-0.0244,0.02928,-0.03416,-0.02196,-0.00976,-0.00732,0.04392,0.00488,-0.00976,0.03416,-0.01464,-0.04392
-0.02928,0.03416,-0.03904,-0.0244,-0.00976,-0.00976,0.04392,0.00976,0,0.03416,-0.01464,-0.0488
-0.02928,0.02684,-0.0244,-0.00976,0.00488,-0.01708,0.04392,0.00976,-0.00976,0.03416,-0.01464,-0.05856
-0.02928,0.02928,-0.02928,-0.01464,0,-0.01464,0.0488,0.00976,-0.00976,0.03416,-0.01952,-0.05856
-0.02928,0.02196,-0.01464,0,0.01464,-0.02196,0.03904,0,-0.01952,0.0244,-0.01952,-0.06344
-0.02928,0.02196,-0.01464,0,0.01464,-0.02196,0.03904,0,-0.01952,0.02928,-0.01464,-0.06832
-0.02928,0.03172,-0.03416,-0.01952,-0.00488,-0.0122,0.0488,0.01952,-0.00488,0.0488,-0.01464,-0.05856
-0.02928,0.02928,-0.02928,-0.01464,0,-0.01464,0.0488,0.01952,-0.00488,0.02928,-0.01952,-0.05856
-0.04392,0.04148,-0.03904,-0.01708,0.00488,-0.0244,0.05856,0.00976,-0.01952,0,-0.06344,-0.0976
-0.0732,0.06588,-0.05856,-0.02196,0.01464,-0.04392,0.09272,0.02928,-0.02928,-0.10248,-0.15128,-0.15616
-0.0976,0.10004,-0.10248,-0.05368,-0.00488,-0.04636,0.13176,0.05856,-0.03416,-0.20496,-0.26352,-0.25376
-0.10248,0.10736,-0.11224,-0.061,-0.00976,-0.04636,0.12688,0.0488,-0.00976,-0.13176,-0.23912,-0.23912
-0.08296,0.10248,-0.122,-0.08052,-0.03904,-0.02196,0.10248,0.05856,0.0732,0.10248,-0.0976,-0.18056
-0.00976,0.0244,-0.03904,-0.03416,-0.02928,0.00976,0.02928,0.02928,0.23424,0.53192,0.21472,0.00488
0.13664,-0.12688,0.11712,0.0488,-0.01952,0.07808,-0.08784,0.08296,0.5612,1.27368,0.8296,0.40504
0.2928,-0.30744,0.32208,0.17568,0.02928,0.13176,-0.26352,0.04392,0.76616,1.96664,1.4396,0.8296
0.47336,-0.47092,0.46848,0.2318,-0.00488,0.23912,-0.42944,-0.01464,0.8052,2.35216,1.94224,1.22488
0.68808,-0.64172,0.59536,0.25132,-0.09272,0.3904,-0.60512,-0.05368,0.96136,2.88896,2.51808,1.62504
0.7808,-0.7076,0.6344,0.244,-0.1464,0.4636,-0.732,-0.20496,0.88328,3.04512,2.67424,1.78608
0.732,-0.6954,0.6588,0.2928,-0.0732,0.4026,-0.8052,-0.52704,0.366,2.33752,2.2692,1.63968
0.488,-0.58072,0.67344,0.42944,0.18544,0.15128,-0.77592,-0.96136,-0.57584,0.81984,1.30784,1.1712
0.20008,-0.36356,0.52704,0.427,0.32696,-0.06344,-0.84424,-1.46888,-2.08376,-1.2688,-0.05368,0.46848
0.06344,-0.20252,0.3416,0.30988,0.27816,-0.10736,-0.81496,-1.60064,-2.6352,-1.9032,-0.64904,0.04392
-0.02928,-0.06588,0.16104,0.17568,0.19032,-0.1098,-0.71248,-1.45424,-2.40584,-1.88856,-0.91744,-0.24888
-0.06344,0.04148,-0.01952,0.0122,0.04392,-0.05368,-0.60512,-1.22488,-2.074,-1.64944,-0.89304,-0.34648
-0.09272,0.08052,-0.06832,-0.02196,0.0244,-0.05856,-0.4392,-0.9272,-1.6104,-1.27368,-0.732,-0.32696
-0.10248,0.0854,-0.06832,-0.01708,0.03416,-0.06832,-0.23424,-0.59048,-1.06384,-0.87352,-0.5612,-0.30256
-0.0732,0.0488,-0.0244,0.0122,0.0488,-0.061,-0.13176,-0.32208,-0.61,-0.50752,-0.31232,-0.17568
-0.06832,0.05368,-0.03904,-0.00488,0.02928,-0.0488,-0.06344,-0.16104,-0.3904,-0.32696,-0.20496,-0.13664
-0.05368,0.03172,-0.00976,0.01708,0.04392,-0.0488,-0.00976,-0.11224,-0.25864,-0.22448,-0.16104,-0.13176
-0.04392,0.02196,0,0.02196,0.04392,-0.04392,0.01464,-0.07808,-0.16592,-0.15616,-0.13664,-0.122
-0.0488,0.03416,-0.01952,0.00488,0.02928,-0.03904,0.04392,-0.03416,-0.08296,-0.10248,-0.08784,-0.11224
-0.0488,0.0366,-0.0244,0,0.0244,-0.0366,0.04392,0,-0.08296,-0.09272,-0.08296,-0.10248
-0.0488,0.03904,-0.02928,-0.00488,0.01952,-0.03416,0.0488,0.00488,-0.0732,-0.08296,-0.0976,-0.11224
-0.0488,0.03904,-0.02928,-0.00488,0.01952,-0.03416,0.05368,0.01464,-0.04392,-0.06344,-0.0976,-0.122
-0.03904,0.03172,-0.0244,-0.00488,0.01464,-0.02684,0.06832,0.01464,-0.01464,-0.0488,-0.0732,-0.13176
-0.03904,0.03172,-0.0244,-0.00488,0.01464,-0.02684,0.06832,0.01952,-0.01464,-0.0488,-0.0732,-0.12688
-0.03904,0.03172,-0.0244,-0.00488,0.01464,-0.02684,0.0732,0.02928,-0.01464,-0.04392,-0.06832,-0.11224
-0.03904,0.03172,-0.0244,-0.00488,0.01464,-0.02684,0.07808,0.03416,-0.00488,-0.03904,-0.06832,-0.11712
-0.03904,0.03904,-0.03904,-0.01952,0,-0.01952,0.08296,0.03904,0,-0.01464,-0.05368,-0.10248
-0.03416,0.03416,-0.03416,-0.01708,0,-0.01708,0.07808,0.04392,0,-0.01464,-0.0488,-0.0976
-0.04392,0.04636,-0.0488,-0.02684,-0.00488,-0.01952,0.08296,0.0488,0.00976,-0.00488,-0.03416,-0.0976
-0.04392,0.04636,-0.0488,-0.02684,-0.00488,-0.01952,0.08296,0.0488,0.01464,0,-0.03416,-0.0976
-0.04392,0.04148,-0.03904,-0.01708,0.00488,-0.0244,0.08296,0.05368,0.01952,-0.00488,-0.04392,-0.0976
-0.0488,0.04392,-0.03904,-0.01464,0.00976,-0.02928,0.08784,0.05368,0.01952,-0.00488,-0.04392,-0.0976
-0.04392,0.04148,-0.03904,-0.01708,0.00488,-0.0244,0.08296,0.05856,0.00976,-0.00488,-0.03416,-0.0976
-0.04392,0.04392,-0.04392,-0.02196,0,-0.02196,0.08296,0.06344,0.00976,0,-0.03416,-0.0976
-0.03416,0.03904,-0.04392,-0.02684,-0.00976,-0.0122,0.08784,0.06344,0.01464,-0.00976,-0.03416,-0.0976
-0.03416,0.03904,-0.04392,-0.02684,-0.00976,-0.0122,0.09272,0.06832,0.01464,-0.00488,-0.03416,-0.0976
-0.03416,0.03904,-0.04392,-0.02684,-0.00976,-0.0122,0.09272,0.07808,0.0244,0.00488,-0.03904,-0.10248
-0.03416,0.04148,-0.0488,-0.03172,-0.01464,-0.00976,0.09272,0.07808,0.0244,0.00488,-0.03904,-0.10248
-0.03904,0.04392,-0.0488,-0.02928,-0.00976,-0.01464,0.09272,0.0732,0.01952,0,-0.04392,-0.10248
-0.03904,0.04636,-0.05368,-0.03416,-0.01464,-0.0122,0.0976,0.07808,0.01952,0,-0.04392,-0.0976
-0.03904,0.04148,-0.04392,-0.0244,-0.00488,-0.01708,0.0976,0.0732,0.0244,0,-0.04392,-0.10736
-0.03904,0.03904,-0.03904,-0.01952,0,-0.01952,0.09272,0.07808,0.0244,0,-0.04392,-0.10736
-0.02928,0.04148,-0.05368,-0.03904,-0.0244,-0.00244,0.0976,0.09272,0.03416,0.00488,-0.03904,-0.0976
-0.0244,0.03904,-0.05368,-0.04148,-0.02928,0.00244,0.0976,0.09272,0.03416,0,-0.03416,-0.0976
-0.0244,0.04148,-0.05856,-0.04636,-0.03416,0.00488,0.09272,0.09272,0.0244,0.00488,-0.03416,-0.0976
-0.0244,0.04392,-0.06344,-0.05124,-0.03904,0.00732,0.09272,0.0976,0.02928,0.00488,-0.03416,-0.0976
-0.03416,0.0488,-0.06344,-0.04636,-0.02928,-0.00244,0.09272,0.10736,0.02928,0,-0.03904,-0.0976
-0.02928,0.04148,-0.05368,-0.03904,-0.0244,-0.00244,0.09272,0.11224,0.03416,-0.00488,-0.03904,-0.0976
-0.02928,0.03904,-0.0488,-0.03416,-0.01952,-0.00488,0.0976,0.11712,0.03904,0.00488,-0.0244,-0.08784
-0.02928,0.0366,-0.04392,-0.02928,-0.01464,-0.00732,0.10248,0.122,0.04392,0.00976,-0.01952,-0.08784
-0.01952,0.0366,-0.05368,-0.04392,-0.03416,0.00732,0.11224,0.14152,0.05368,0.00976,-0.01952,-0.08296
-0.01952,0.0366,-0.05368,-0.04392,-0.03416,0.00732,0.11224,0.14152,0.05856,0.01464,-0.01952,-0.07808
-0.0244,0.0366,-0.0488,-0.0366,-0.0244,0,0.11712,0.15128,0.05856,0.0244,-0.01952,-0.06832
-0.01952,0.03172,-0.04392,-0.03416,-0.0244,0.00244,0.11712,0.16104,0.06344,0.0244,-0.01464,-0.06832
-0.02928,0.03172,-0.03416,-0.01952,-0.00488,-0.0122,0.11712,0.15616,0.0732,0.01952,-0.01464,-0.0732
-0.02928,0.03416,-0.03904,-0.0244,-0.00976,-0.00976,0.12688,0.1708,0.08784,0.0244,-0.00488,-0.06832
-0.0244,0.02928,-0.03416,-0.02196,-0.00976,-0.00732,0.13176,0.18056,0.09272,0.02928,0,-0.06832
-0.01952,0.02684,-0.03416,-0.0244,-0.01464,-0.00244,0.14152,0.19032,0.09272,0.02928,0,-0.06344
-0.00976,0.01952,-0.02928,-0.0244,-0.01952,0.00488,0.14152,0.20496,0.10736,0.03416,0,-0.0488
-0.00488,0.0122,-0.01952,-0.01708,-0.01464,0.00488,0.15128,0.22448,0.11712,0.04392,0.00976,-0.03416
0,0.00976,-0.01952,-0.01952,-0.01952,0.00976,0.15616,0.22448,0.11712,0.04392,0.0244,-0.03904
0.00976,-0.00244,-0.00488,-0.00976,-0.01464,0.0122,0.15616,0.23912,0.122,0.04392,0.03416,-0.03416
0.00976,-0.00488,0,-0.00488,-0.00976,0.00976,0.16592,0.26352,0.13664,0.05368,0.03904,-0.02928
0.01464,-0.00976,0.00488,-0.00244,-0.00976,0.0122,0.17568,0.27816,0.14152,0.05856,0.04392,-0.01952
0.00976,-0.0122,0.01464,0.00976,0.00488,0.00244,0.17568,0.28792,0.15616,0.05856,0.05856,-0.01952
0.01464,-0.01952,0.0244,0.01708,0.00976,0.00244,0.18056,0.29768,0.15616,0.05856,0.06832,-0.00488
0.02928,-0.03172,0.03416,0.01952,0.00488,0.0122,0.1708,0.29768,0.15616,0.06344,0.06344,0.00488
0.03416,-0.0366,0.03904,0.02196,0.00488,0.01464,0.17568,0.30744,0.15616,0.06344,0.0732,0.01464
0.0488,-0.0488,0.0488,0.0244,0,0.0244,0.18544,0.30744,0.15128,0.05856,0.08296,0.01952
0.0488,-0.05124,0.05368,0.02928,0.00488,0.02196,0.18544,0.30744,0.1464,0.05856,0.08784,0.0244
0.04392,-0.05612,0.06832,0.04636,0.0244,0.00976,0.17568,0.30744,0.14152,0.0488,0.08296,0.03904
0.04392,-0.05856,0.0732,0.05124,0.02928,0.00732,0.17568,0.29768,0.13176,0.0488,0.08784,0.04392
0.05856,-0.0732,0.08784,0.05856,0.02928,0.01464,0.1708,0.28792,0.11712,0.0488,0.0976,0.04392
0.06832,-0.07808,0.08784,0.05368,0.01952,0.0244,0.16104,0.27328,0.10736,0.04392,0.10248,0.05856
0.05856,-0.0732,0.08784,0.05856,0.02928,0.01464,0.16104,0.27816,0.10736,0.0488,0.11224,0.06832
0.06344,-0.07076,0.07808,0.04636,0.01464,0.0244,0.15128,0.26352,0.10248,0.05368,0.122,0.07808
0.07808,-0.0854,0.09272,0.05368,0.01464,0.03172,0.1464,0.25376,0.10248,0.06344,0.122,0.08296
0.08296,-0.08784,0.09272,0.05124,0.00976,0.0366,0.14152,0.23424,0.09272,0.0732,0.12688,0.08296
0.08296,-0.09028,0.0976,0.05612,0.01464,0.03416,0.122,0.22936,0.07808,0.06832,0.14152,0.07808
0.08296,-0.08784,0.09272,0.05124,0.00976,0.0366,0.11224,0.20984,0.08296,0.07808,0.14152,0.08296
0.0732,-0.07808,0.08296,0.04636,0.00976,0.03172,0.11224,0.19032,0.08296,0.08784,0.1464,0.09272
0.06832,-0.07808,0.08784,0.05368,0.01952,0.0244,0.0976,0.16592,0.08296,0.09272,0.1464,0.09272
0.05856,-0.06588,0.0732,0.04392,0.01464,0.02196,0.09272,0.15128,0.0732,0.08784,0.12688,0.06832
0.05368,-0.05856,0.06344,0.0366,0.00976,0.02196,0.08296,0.13176,0.06344,0.08784,0.11712,0.06344
0.04392,-0.05612,0.06832,0.04636,0.0244,0.00976,0.07808,0.10736,0.0488,0.0732,0.0976,0.0488
0.04392,-0.05368,0.06344,0.04148,0.01952,0.0122,0.06832,0.08784,0.03904,0.05368,0.08784,0.04392
0.03416,-0.04636,0.05856,0.04148,0.0244,0.00488,0.06344,0.07808,0.02928,0.05368,0.08784,0.02928
0.02928,-0.04148,0.05368,0.03904,0.0244,0.00244,0.05856,0.0732,0.01464,0.04392,0.0732,0.01464
0.02928,-0.03904,0.0488,0.03416,0.01952,0.00488,0.05856,0.05368,0.00976,0.0244,0.06344,0.00976
0.01952,-0.02928,0.03904,0.02928,0.01952,0,0.05368,0.04392,0,0.01952,0.05368,0
0.0244,-0.03172,0.03904,0.02684,0.01464,0.00488,0.0488,0.04392,0.00488,0.01464,0.04392,0
0.0244,-0.02684,0.02928,0.01708,0.00488,0.00976,0.0488,0.03904,-0.00488,0.00488,0.03904,-0.00488
0.01952,-0.02196,0.0244,0.01464,0.00488,0.00732,0.03904,0.02928,-0.01952,0,0.02928,-0.00976
0.00976,-0.01708,0.0244,0.01952,0.01464,-0.00244,0.03904,0.01952,-0.0244,0,0.01464,-0.01952
0.00976,-0.0122,0.01464,0.00976,0.00488,0.00244,0.0488,0.01952,-0.02928,-0.01464,0.01952,-0.01464
0.00976,-0.00732,0.00488,0,-0.00488,0.00732,0.0488,0.01952,-0.02928,-0.0244,0.01464,-0.01952
0.00976,-0.01464,0.01952,0.01464,0.00976,0,0.04392,0.01464,-0.03904,-0.03416,0.00488,-0.02928
0.00488,-0.00732,0.00976,0.00732,0.00488,0,0.0488,0.01464,-0.03904,-0.03416,0,-0.03416
0,0.00244,-0.00488,-0.00488,-0.00488,0.00244,0.0488,0.01952,-0.03904,-0.03416,0,-0.03904
0,0.00244,-0.00488,-0.00488,-0.00488,0.00244,0.05368,0.01952,-0.03416,-0.03904,0,-0.03904
-0.00976,0,0.00976,0.01464,0.01952,-0.01464,0.05368,0.01952,-0.04392,-0.0488,-0.00976,-0.0488
-0.01464,0.00244,0.00976,0.01708,0.0244,-0.01952,0.05368,0.01952,-0.03904,-0.0488,-0.01464,-0.0488
-0.01464,0.00488,0.00488,0.0122,0.01952,-0.01708,0.05368,0.00976,-0.03416,-0.03416,-0.00976,-0.0488
-0.01464,0.00488,0.00488,0.0122,0.01952,-0.01708,0.05368,0.01952,-0.03416,-0.03416,-0.00976,-0.0488
-0.00488,0.00244,0,0.00244,0.00488,-0.00488,0.05856,0.0244,-0.02928,-0.02928,0,-0.03904
-0.00488,0,0.00488,0.00732,0.00976,-0.00732,0.05856,0.0244,-0.0244,-0.02928,0.00488,-0.04392
-0.00488,0.00488,-0.00488,-0.00244,0,-0.00244,0.05856,0.0244,-0.00488,-0.01952,-0.00488,-0.03904
-0.00488,0.00244,0,0.00244,0.00488,-0.00488,0.06344,0.02928,-0.00488,-0.01464,0,-0.03904
-0.00488,-0.00244,0.00976,0.0122,0.01464,-0.00976,0.06344,0.02928,0.00976,-0.01464,0.00488,-0.02928
-0.00488,-0.00244,0.00976,0.0122,0.01464,-0.00976,0.06344,0.03416,0.01464,0.00488,0.01464,-0.0244
0,-0.00976,0.01952,0.01952,0.01952,-0.00976,0.06344,0.03416,0.02928,0.01464,0.00488,-0.02928
0,-0.00976,0.01952,0.01952,0.01952,-0.00976,0.06344,0.03904,0.03416,0.0244,0.01464,-0.02928
0.00488,-0.00732,0.00976,0.00732,0.00488,0,0.05856,0.03904,0.04392,0.02928,0.0244,-0.02928
0.00488,-0.00732,0.00976,0.00732,0.00488,0,0.05368,0.03904,0.04392,0.03904,0.02928,-0.0244
0.00488,-0.01464,0.0244,0.02196,0.01952,-0.00732,0.05368,0.03904,0.04392,0.03904,0.03904,-0.01464
0.00488,-0.01464,0.0244,0.02196,0.01952,-0.00732,0.05856,0.03904,0.0488,0.0488,0.04392,-0.00976
-0.00488,-0.00244,0.00976,0.0122,0.01464,-0.00976,0.05368,0.02928,0.0488,0.0488,0.04392,-0.01464
0,-0.00732,0.01464,0.01464,0.01464,-0.00732,0.05856,0.02928,0.05368,0.05368,0.04392,-0.00976
0,-0.0122,0.0244,0.0244,0.0244,-0.0122,0.05368,0.02928,0.05368,0.05856,0.0488,-0.01464
-0.00488,-0.0122,0.02928,0.03172,0.03416,-0.01952,0.0488,0.02928,0.05368,0.06344,0.05368,-0.00976
0.00976,-0.01708,0.0244,0.01952,0.01464,-0.00244,0.0488,0.03904,0.06344,0.06344,0.05368,-0.00976
0.00976,-0.00976,0.00976,0.00488,0,0.00488,0.0488,0.03416,0.05856,0.06344,0.05856,-0.00976
0,-0.0122,0.0244,0.0244,0.0244,-0.0122,0.0488,0.0244,0.05368,0.06344,0.05368,-0.00488
0,-0.00976,0.01952,0.01952,0.01952,-0.00976,0.04392,0.0244,0.0488,0.06832,0.05368,0
0.00976,-0.01464,0.01952,0.01464,0.00976,0,0.04392,0.01952,0.0488,0.06832,0.06344,-0.00488
0.00976,-0.01464,0.01952,0.01464,0.00976,0,0.03904,0.01952,0.0488,0.06832,0.06344,-0.01464
0,-0.0122,0.0244,0.0244,0.0244,-0.0122,0.0488,0.01464,0.05368,0.06832,0.06344,-0.01464
-0.00488,-0.00244,0.00976,0.0122,0.01464,-0.00976,0.0488,0.01464,0.05368,0.06344,0.06344,-0.00976
0.00488,-0.0122,0.01952,0.01708,0.01464,-0.00488,0.0488,0.00488,0.0488,0.06344,0.06344,-0.00488
0.00488,-0.01708,0.02928,0.02684,0.0244,-0.00976,0.0488,0.00488,0.0488,0.05856,0.05856,-0.01464
0.00976,-0.01952,0.02928,0.0244,0.01952,-0.00488,0.03904,0,0.03416,0.05856,0.06344,-0.01464
0.00976,-0.01708,0.0244,0.01952,0.01464,-0.00244,0.03416,-0.00488,0.03416,0.05856,0.06344,-0.01464
0.01464,-0.01952,0.0244,0.01708,0.00976,0.00244,0.04392,-0.00488,0.03904,0.06344,0.06344,-0.01464
0.01464,-0.00732,0,-0.00732,-0.01464,0.01464,0.04392,-0.00488,0.03904,0.05856,0.05368,-0.01464
0.00488,-0.00732,0.00976,0.00732,0.00488,0,0.04392,-0.00488,0.03904,0.05856,0.05856,-0.00976
0.00488,-0.00976,0.01464,0.0122,0.00976,-0.00244,0.04392,-0.00976,0.03416,0.05368,0.06344,-0.00976
0.00488,-0.01708,0.02928,0.02684,0.0244,-0.00976,0.03416,-0.01952,0.0244,0.05368,0.05368,-0.01952
0.00488,-0.01708,0.02928,0.02684,0.0244,-0.00976,0.03416,-0.01952,0.0244,0.05368,0.05368,-0.01952
0.00488,-0.00732,0.00976,0.00732,0.00488,0,0.03416,-0.01952,0.03416,0.05368,0.05368,-0.01464
0.00488,-0.00976,0.01464,0.0122,0.00976,-0.00244,0.03904,-0.01952,0.03416,0.05368,0.05368,-0.01464
-0.00488,-0.00488,0.01464,0.01708,0.01952,-0.0122,0.03416,-0.01952,0.02928,0.04392,0.05368,-0.01464
-0.00488,-0.00244,0.00976,0.0122,0.01464,-0.00976,0.03416,-0.01952,0.02928,0.04392,0.05856,-0.00976
0.00488,-0.00976,0.01464,0.0122,0.00976,-0.00244,0.03416,-0.0244,0.01952,0.04392,0.05856,-0.01464
0.00488,-0.0122,0.01952,0.01708,0.01464,-0.00488,0.03416,-0.0244,0.01952,0.04392,0.05368,-0.00976
0.00488,-0.01464,0.0244,0.02196,0.01952,-0.00732,0.03416,-0.0244,0.01952,0.05368,0.05856,-0.01464
0.00488,-0.00488,0.00488,0.00244,0,0.00244,0.03416,-0.0244,0.00976,0.05368,0.06344,-0.01464
0,-0.00488,0.00976,0.00976,0.00976,-0.00488,0.02928,-0.02928,0.00976,0.03904,0.05856,-0.01952
0,-0.00488,0.00976,0.00976,0.00976,-0.00488,0.02928,-0.02928,0.00976,0.03904,0.05856,-0.01952
0,-0.00244,0.00488,0.00488,0.00488,-0.00244,0.02928,-0.01952,0.01952,0.05368,0.06832,-0.00976
0.00488,-0.0122,0.01952,0.01708,0.01464,-0.00488,0.02928,-0.01952,0.03416,0.06344,0.0732,-0.00976
0.01464,-0.0244,0.03416,0.02684,0.01952,-0.00244,0.02928,-0.01464,0.03416,0.06344,0.06832,-0.01464
0.01952,-0.03904,0.05856,0.0488,0.03904,-0.00976,0.02928,-0.01464,0.04392,0.0732,0.07808,-0.00488
0.02928,-0.05856,0.08784,0.0732,0.05856,-0.01464,0.01952,-0.00976,0.0488,0.0732,0.08296,0
0.02928,-0.061,0.09272,0.07808,0.06344,-0.01708,0.0244,-0.00976,0.0488,0.08296,0.08784,0
0.01952,-0.05368,0.08784,0.07808,0.06832,-0.0244,0.0244,-0.01952,0.06344,0.0976,0.09272,0.00488
0.0244,-0.05368,0.08296,0.07076,0.05856,-0.01708,0.0244,-0.01952,0.06832,0.09272,0.09272,0.00976
0.03416,-0.0488,0.06344,0.04636,0.02928,0.00244,0.03416,-0.00488,0.0732,0.10248,0.0976,0.01952
0.04392,-0.04636,0.0488,0.02684,0.00488,0.01952,0.02928,-0.00488,0.0732,0.10248,0.10248,0.0244
0.03416,-0.02928,0.0244,0.00732,-0.00976,0.02196,0.01952,-0.00488,0.06344,0.09272,0.10248,0.01952
0.04392,-0.03416,0.0244,0.00244,-0.01952,0.03172,0.01952,-0.00488,0.06344,0.09272,0.0976,0.01464
0.04392,-0.03904,0.03416,0.0122,-0.00976,0.02684,0.00976,0,0.06344,0.10248,0.11712,0.02928
0.05368,-0.04392,0.03416,0.00732,-0.01952,0.0366,-0.00976,-0.01464,0.05368,0.0976,0.11224,0.03416
0.0732,-0.06588,0.05856,0.02196,-0.01464,0.04392,-0.02928,-0.04392,0.05368,0.0976,0.11712,0.05368
0.08784,-0.07076,0.05368,0.00976,-0.03416,0.061,-0.03904,-0.0488,0.03416,0.08784,0.11224,0.0488
0.0976,-0.06832,0.03904,-0.00976,-0.05856,0.07808,-0.04392,-0.04392,0.0244,0.09272,0.11712,0.0488
0.10736,-0.0732,0.03904,-0.01464,-0.06832,0.08784,-0.04392,-0.03904,0.02928,0.10248,0.12688,0.05368
0.122,-0.08296,0.04392,-0.01708,-0.07808,0.10004,-0.04392,-0.03904,0.03416,0.0976,0.122,0.05856
0.13176,-0.0854,0.03904,-0.02684,-0.09272,0.11224,-0.04392,-0.03904,0.02928,0.09272,0.122,0.06344
0.122,-0.08052,0.03904,-0.02196,-0.08296,0.10248,-0.06344,-0.05368,-0.00488,0.0732,0.11224,0.06344
0.11224,-0.0732,0.03416,-0.02196,-0.07808,0.09516,-0.0488,-0.05368,-0.00488,0.06832,0.11224,0.05368
0.08784,-0.05612,0.0244,-0.01952,-0.06344,0.07564,-0.03416,-0.05856,-0.00488,0.06344,0.10248,0.05368
0.05856,-0.03416,0.00976,-0.01952,-0.0488,0.05368,0,-0.04392,0.01464,0.06832,0.10248,0.04392
0.02928,-0.02196,0.01464,0,-0.01464,0.02196,0.00488,-0.04392,0.00976,0.06832,0.09272,0.0244
0.0244,-0.01464,0.00488,-0.00732,-0.01952,0.02196,0.01464,-0.0488,0.00488,0.05856,0.07808,0.00488
0.00976,-0.00976,0.00976,0.00488,0,0.00488,0.01464,-0.04392,0.00488,0.04392,0.06832,-0.00488
0.00488,-0.00488,0.00488,0.00244,0,0.00244,0.0244,-0.03416,0.00976,0.0488,0.06344,-0.00976
-0.00976,0.00976,-0.00976,-0.00488,0,-0.00488,0.03904,-0.03416,0.00976,0.0488,0.06344,-0.00976
-0.0244,0.01952,-0.01464,-0.00244,0.00976,-0.01708,0.03904,-0.03416,0.00976,0.04392,0.0488,-0.01464
-0.01464,0.0122,-0.00976,-0.00244,0.00488,-0.00976,0.03416,-0.04392,-0.00488,0.0244,0.03416,-0.0244
-0.01464,0.0122,-0.00976,-0.00244,0.00488,-0.00976,0.03416,-0.04392,-0.01464,0.0244,0.03416,-0.03904
-0.01464,0.01464,-0.01464,-0.00732,0,-0.00732,0.02928,-0.03416,0,0.03416,0.03416,-0.03416
-0.01464,0.01708,-0.01952,-0.0122,-0.00488,-0.00488,0.03416,-0.02928,0,0.03416,0.03416,-0.03416
-0.01952,0.01708,-0.01464,-0.00488,0.00488,-0.0122,0.03416,-0.02928,0,0.0244,0.03416,-0.03904
-0.01952,0.01952,-0.01952,-0.00976,0,-0.00976,0.03416,-0.02928,0,0.0244,0.03416,-0.03904
-0.02928,0.02196,-0.01464,0,0.01464,-0.02196,0.03904,-0.03904,0,0.0244,0.02928,-0.0488
-0.02928,0.02196,-0.01464,0,0.01464,-0.02196,0.03904,-0.03904,0,0.02928,0.02928,-0.04392
-0.02928,0.02196,-0.01464,0,0.01464,-0.02196,0.03904,-0.03904,0,0.02928,0.03416,-0.0488
-0.01952,0.01708,-0.01464,-0.00488,0.00488,-0.0122,0.0488,-0.02928,0.00488,0.02928,0.03416,-0.0488
-0.03904,0.02684,-0.01464,0.00488,0.0244,-0.03172,0.03904,-0.03904,-0.00488,0,0.00488,-0.06832
-0.05368,0.04392,-0.03416,-0.00732,0.01952,-0.0366,0.0732,-0.02928,-0.01952,-0.06832,-0.05856,-0.122
-0.0976,0.08052,-0.06344,-0.01464,0.03416,-0.06588,0.11712,0,-0.03904,-0.18544,-0.18056,-0.2196
-0.11712,0.11956,-0.122,-0.06344,-0.00488,-0.05612,0.14152,0.01952,-0.0244,-0.18544,-0.20496,-0.244
-0.09272,0.10248,-0.11224,-0.06588,-0.01952,-0.0366,0.10736,0.00976,0.02928,-0.01952,-0.10736,-0.1952
-0.04392,0.061,-0.07808,-0.05612,-0.03416,-0.00488,0.04392,0.00976,0.17568,0.32696,0.11712,-0.06344
0.0732,-0.06588,0.05856,0.02196,-0.01464,0.04392,-0.05856,0.01952,0.4392,0.94672,0.60512,0.24888
0.244,-0.24888,0.25376,0.13176,0.00976,0.11712,-0.20008,0.04392,0.77592,1.74704,1.2688,0.69296
0.40504,-0.4148,0.42456,0.22204,0.01952,0.19276,-0.39528,-0.04392,0.79544,2.16184,1.7568,1.05408
0.6344,-0.59048,0.54656,0.22936,-0.08784,0.36112,-0.5856,-0.08296,0.95648,2.68888,2.33264,1.4884
0.77592,-0.70272,0.62952,0.24156,-0.1464,0.46116,-0.72712,-0.1952,0.96136,3.02072,2.6352,1.72752
0.77104,-0.70516,0.63928,0.25376,-0.13176,0.4514,-0.82472,-0.47824,0.60512,2.67912,2.44,1.67872
0.58072,-0.61488,0.64904,0.35868,0.06832,0.2562,-0.79544,-0.86376,-0.18544,1.47864,1.71776,1.35176
0.30744,-0.41968,0.53192,0.3782,0.22448,0.04148,-0.854,-1.3908,-1.62016,-0.60024,0.40504,0.6832
0.13176,-0.25376,0.37576,0.30988,0.244,-0.05612,-0.88328,-1.6592,-2.61568,-1.8056,-0.42944,0.1952
0.00488,-0.10736,0.20984,0.2074,0.20496,-0.10004,-0.79056,-1.60064,-2.60104,-1.98616,-0.85888,-0.18056
-0.03416,-0.00732,0.0488,0.06588,0.08296,-0.05856,-0.71248,-1.42496,-2.27408,-1.77632,-0.88816,-0.30744
-0.06344,0.0488,-0.03416,-0.00244,0.02928,-0.04636,-0.53192,-1.10776,-1.79584,-1.42496,-0.75152,-0.30744
-0.09272,0.05612,-0.01952,0.02684,0.0732,-0.08296,-0.33672,-0.77104,-1.23952,-1.01504,-0.5612,-0.27816
-0.09272,0.03416,0.0244,0.07076,0.11712,-0.10492,-0.1952,-0.45384,-0.732,-0.61976,-0.33672,-0.19032
-0.07808,0.01952,0.03904,0.07808,0.11712,-0.0976,-0.11712,-0.29768,-0.46848,-0.40504,-0.20984,-0.122
-0.0488,0.00488,0.03904,0.06344,0.08784,-0.06832,-0.05368,-0.20984,-0.30256,-0.27328,-0.14152,-0.10736
-0.04392,0.00976,0.0244,0.04636,0.06832,-0.05612,-0.01464,-0.1464,-0.18544,-0.18544,-0.10736,-0.11224
-0.0488,0.01708,0.01464,0.03904,0.06344,-0.05612,0.01952,-0.09272,-0.08784,-0.11224,-0.06832,-0.09272
-0.05856,0.04148,-0.0244,0.00488,0.03416,-0.04636,0.04392,-0.0488,-0.05856,-0.09272,-0.04392,-0.08784
-0.0488,0.03904,-0.02928,-0.00488,0.01952,-0.03416,0.03904,-0.04392,-0.06344,-0.10248,-0.05856,-0.08784
-0.0488,0.03904,-0.02928,-0.00488,0.01952,-0.03416,0.05368,-0.02928,-0.03904,-0.08784,-0.05856,-0.10736
-0.05856,0.0488,-0.03904,-0.00976,0.01952,-0.03904,0.06832,-0.01952,0,-0.05368,-0.04392,-0.10248
-0.05856,0.05124,-0.04392,-0.01464,0.01464,-0.0366,0.06832,-0.00976,0.00488,-0.0488,-0.03416,-0.0976
-0.05856,0.05124,-0.04392,-0.01464,0.01464,-0.0366,0.06832,0,0.00488,-0.0488,-0.03904,-0.10248
-0.05856,0.05124,-0.04392,-0.01464,0.01464,-0.0366,0.0732,0.00488,0.00976,-0.04392,-0.03904,-0.10736
-0.0488,0.04392,-0.03904,-0.01464,0.00976,-0.02928,0.0732,0.00976,0.01464,-0.02928,-0.03416,-0.10248
-0.04392,0.03904,-0.03416,-0.0122,0.00976,-0.02684,0.0732,0.01464,0.01952,-0.0244,-0.03416,-0.10248
-0.05368,0.04636,-0.03904,-0.0122,0.01464,-0.03416,0.06832,0.01952,0.02928,-0.0244,-0.0244,-0.08784
-0.05368,0.04636,-0.03904,-0.0122,0.01464,-0.03416,0.0732,0.01952,0.02928,-0.01952,-0.0244,-0.08784
-0.05368,0.05124,-0.0488,-0.02196,0.00488,-0.02928,0.0732,0.0244,0.03416,-0.01952,-0.01464,-0.0976
-0.05368,0.05124,-0.0488,-0.02196,0.00488,-0.02928,0.07808,0.0244,0.03904,-0.01464,-0.01464,-0.0976
-0.05856,0.05368,-0.0488,-0.01952,0.00976,-0.03416,0.08296,0.02928,0.03904,-0.01464,-0.01464,-0.08784
-0.05368,0.05368,-0.05368,-0.02684,0,-0.02684,0.08296,0.03416,0.03904,-0.00976,-0.01464,-0.08784
-0.04392,0.0488,-0.05368,-0.03172,-0.00976,-0.01708,0.08296,0.03416,0.03904,-0.00976,-0.01464,-0.08784
-0.04392,0.0488,-0.05368,-0.03172,-0.00976,-0.01708,0.09272,0.03416,0.04392,-0.00488,-0.01464,-0.08784
-0.04392,0.04392,-0.04392,-0.02196,0,-0.02196,0.09272,0.03904,0.04392,-0.00488,-0.0244,-0.08784
-0.04392,0.04392,-0.04392,-0.02196,0,-0.02196,0.09272,0.03904,0.04392,-0.00488,-0.02928,-0.09272
-0.05368,0.05612,-0.05856,-0.03172,-0.00488,-0.0244,0.09272,0.04392,0.0488,-0.00488,-0.01952,-0.09272
-0.0488,0.05612,-0.06344,-0.03904,-0.01464,-0.01708,0.0976,0.0488,0.0488,0,-0.01464,-0.09272
-0.03904,0.05124,-0.06344,-0.04392,-0.0244,-0.00732,0.0976,0.05368,0.05368,0,-0.0244,-0.0976
-0.03904,0.0488,-0.05856,-0.03904,-0.01952,-0.00976,0.09272,0.05368,0.05368,0,-0.0244,-0.0976
-0.03904,0.04636,-0.05368,-0.03416,-0.01464,-0.0122,0.0976,0.06832,0.05368,-0.00488,-0.02928,-0.0976
-0.03904,0.04636,-0.05368,-0.03416,-0.01464,-0.0122,0.0976,0.0732,0.05368,-0.00976,-0.0244,-0.0976
-0.04392,0.04636,-0.0488,-0.02684,-0.00488,-0.01952,0.10248,0.06832,0.05368,-0.00488,-0.0244,-0.0976
-0.04392,0.0488,-0.05368,-0.03172,-0.00976,-0.01708,0.10248,0.0732,0.05856,-0.00488,-0.0244,-0.0976
-0.04392,0.0488,-0.05368,-0.03172,-0.00976,-0.01708,0.10248,0.08784,0.05856,-0.00976,-0.0244,-0.0976
-0.03904,0.04148,-0.04392,-0.0244,-0.00488,-0.01708,0.10248,0.08784,0.05856,-0.01464,-0.02928,-0.0976
-0.0488,0.0488,-0.0488,-0.0244,0,-0.0244,0.10736,0.09272,0.05856,-0.01464,-0.03416,-0.10248
-0.0488,0.0488,-0.0488,-0.0244,0,-0.0244,0.11224,0.0976,0.05856,-0.00976,-0.02928,-0.0976
-0.0488,0.05124,-0.05368,-0.02928,-0.00488,-0.02196,0.11224,0.10736,0.0732,-0.01952,-0.02928,-0.0976
-0.0488,0.05124,-0.05368,-0.02928,-0.00488,-0.02196,0.11224,0.11224,0.07808,-0.01464,-0.02928,-0.09272
-0.03904,0.03904,-0.03904,-0.01952,0,-0.01952,0.11712,0.11224,0.07808,-0.00488,-0.02928,-0.08784
-0.03416,0.0366,-0.03904,-0.02196,-0.00488,-0.01464,0.11712,0.12688,0.08784,-0.00488,-0.02928,-0.08784
-0.02928,0.03172,-0.03416,-0.01952,-0.00488,-0.0122,0.11712,0.1464,0.09272,0,-0.0244,-0.08296
-0.02928,0.03416,-0.03904,-0.0244,-0.00976,-0.00976,0.122,0.15616,0.10248,0.00488,-0.01464,-0.08296
-0.02928,0.03172,-0.03416,-0.01952,-0.00488,-0.0122,0.13664,0.15616,0.11224,0,-0.01464,-0.07808
-0.0244,0.0244,-0.0244,-0.0122,0,-0.0122,0.14152,0.1708,0.11224,0,-0.00976,-0.0732
-0.01952,0.02196,-0.0244,-0.01464,-0.00488,-0.00732,0.15128,0.18056,0.122,0,-0.00976,-0.0732
-0.01952,0.01464,-0.00976,0,0.00976,-0.01464,0.15128,0.19032,0.13176,0.00488,-0.00488,-0.06344
-0.01464,0.0122,-0.00976,-0.00244,0.00488,-0.00976,0.15616,0.21472,0.1464,0.0244,-0.00488,-0.05856
-0.00976,0.00976,-0.00976,-0.00488,0,-0.00488,0.15616,0.22448,0.1464,0.0244,0,-0.05856
-0.00976,-0.00488,0.01952,0.0244,0.02928,-0.01952,0.16104,0.22448,0.14152,0.01464,0.00488,-0.05368
-0.00976,-0.00488,0.01952,0.0244,0.02928,-0.01952,0.17568,0.23912,0.15128,0.01952,0.01464,-0.04392
-0.00488,-0.00976,0.0244,0.02684,0.02928,-0.01708,0.17568,0.25376,0.15128,0.01952,0.01952,-0.03904
0.00488,-0.02196,0.03904,0.0366,0.03416,-0.01464,0.18056,0.26352,0.15616,0.01952,0.01952,-0.03416
0.00976,-0.02684,0.04392,0.03904,0.03416,-0.0122,0.18056,0.2684,0.15616,0.0244,0.0244,-0.01952
0.01464,-0.0366,0.05856,0.05124,0.04392,-0.01464,0.18544,0.27328,0.15616,0.0244,0.0244,-0.00976
0.00976,-0.0366,0.06344,0.05856,0.05368,-0.02196,0.17568,0.2684,0.15616,0.01464,0.03416,-0.01464
0.01952,-0.04636,0.0732,0.06344,0.05368,-0.01708,0.17568,0.2684,0.15128,0.00976,0.03416,-0.00976
0.0244,-0.04392,0.06344,0.05124,0.03904,-0.00732,0.18544,0.27816,0.13664,0.00976,0.03904,0.00488
0.0244,-0.04636,0.06832,0.05612,0.04392,-0.00976,0.18544,0.27816,0.12688,0,0.0488,0.01464
0.02928,-0.05368,0.07808,0.06344,0.0488,-0.00976,0.17568,0.25864,0.11224,-0.00976,0.05856,0.01464
0.03904,-0.05856,0.07808,0.05856,0.03904,0,0.16592,0.24888,0.10248,-0.00976,0.05856,0.0244
0.03904,-0.06344,0.08784,0.06832,0.0488,-0.00488,0.15616,0.23424,0.09272,-0.0244,0.05856,0.02928
0.04392,-0.0732,0.10248,0.08052,0.05856,-0.00732,0.1464,0.2196,0.08784,-0.01952,0.06832,0.02928
0.0488,-0.07564,0.10248,0.07808,0.05368,-0.00244,0.1464,0.20496,0.0732,-0.00488,0.07808,0.03904
0.0488,-0.07564,0.10248,0.07808,0.05368,-0.00244,0.13664,0.20008,0.06344,0.00976,0.08784,0.04392
0.06344,-0.08052,0.0976,0.06588,0.03416,0.01464,0.12688,0.18056,0.0732,0.01952,0.0976,0.0488
0.06344,-0.08052,0.0976,0.06588,0.03416,0.01464,0.11712,0.16104,0.06832,0.0244,0.10248,0.0488
0.06344,-0.08296,0.10248,0.07076,0.03904,0.0122,0.10248,0.14152,0.0732,0.02928,0.10248,0.04392
0.05856,-0.08296,0.10736,0.07808,0.0488,0.00488,0.08296,0.11712,0.06344,0.0244,0.0976,0.04392
0.0488,-0.07808,0.10736,0.08296,0.05856,-0.00488,0.06344,0.09272,0.05368,0.0244,0.08296,0.03416
0.03416,-0.06588,0.0976,0.08052,0.06344,-0.01464,0.05856,0.0732,0.0488,0.01952,0.0732,0.02928
0.03904,-0.05856,0.07808,0.05856,0.03904,0,0.05856,0.06832,0.05368,0.01952,0.0732,0.01952
0.03416,-0.05368,0.0732,0.05612,0.03904,-0.00244,0.05368,0.0488,0.04392,0.00976,0.06344,0.01952
0.03416,-0.05124,0.06832,0.05124,0.03416,0,0.03416,0.03904,0.03416,0.00976,0.06344,0.01464
0.0244,-0.04636,0.06832,0.05612,0.04392,-0.00976,0.03416,0.0244,0.01952,0,0.05368,0.00488
0.01952,-0.03904,0.05856,0.0488,0.03904,-0.00976,0.02928,0.00976,0.01952,-0.00976,0.03904,0
0.01464,-0.0366,0.05856,0.05124,0.04392,-0.01464,0.0244,0,0.01464,-0.01952,0.02928,-0.00976
0.00488,-0.03172,0.05856,0.05612,0.05368,-0.0244,0.03416,0,0.00488,-0.01464,0.01952,-0.01464
0.00488,-0.02928,0.05368,0.05124,0.0488,-0.02196,0.02928,-0.00488,0,-0.02928,0.01464,-0.01952
0.00976,-0.02928,0.0488,0.04392,0.03904,-0.01464,0.02928,-0.00976,0,-0.03416,0.00976,-0.02928
0.00976,-0.02684,0.04392,0.03904,0.03416,-0.0122,0.02928,-0.00976,-0.00488,-0.03904,0,-0.02928
0,-0.01708,0.03416,0.03416,0.03416,-0.01708,0.02928,-0.01952,-0.00976,-0.04392,-0.00488,-0.04392
0,-0.01708,0.03416,0.03416,0.03416,-0.01708,0.02928,-0.01952,-0.00976,-0.05368,-0.01464,-0.0488
-0.00976,-0.01952,0.0488,0.05368,0.05856,-0.03416,0.01952,-0.01952,-0.01464,-0.05856,-0.0244,-0.05856
-0.00976,-0.01952,0.0488,0.05368,0.05856,-0.03416,0.0244,-0.0244,-0.0244,-0.06832,-0.0244,-0.05856
-0.00488,-0.02196,0.0488,0.05124,0.05368,-0.02928,0.03904,-0.0244,-0.01952,-0.0732,-0.02928,-0.05368
-0.00976,-0.01708,0.04392,0.0488,0.05368,-0.03172,0.03904,-0.01952,-0.01952,-0.07808,-0.02928,-0.05856
-0.01952,-0.00732,0.03416,0.04392,0.05368,-0.0366,0.04392,-0.01952,-0.01464,-0.06832,-0.01952,-0.05856
-0.01952,-0.00976,0.03904,0.0488,0.05856,-0.03904,0.04392,-0.01952,-0.01464,-0.06832,-0.0244,-0.05856
-0.01464,-0.0122,0.03904,0.04636,0.05368,-0.03416,0.03416,-0.02928,-0.01952,-0.06832,-0.0244,-0.05856
-0.01464,-0.01464,0.04392,0.05124,0.05856,-0.0366,0.03416,-0.0244,-0.01464,-0.06344,-0.02928,-0.05856
-0.0244,-0.00732,0.03904,0.05124,0.06344,-0.04392,0.04392,-0.02928,-0.00976,-0.06344,-0.02928,-0.06832
-0.0244,-0.00976,0.04392,0.05612,0.06832,-0.04636,0.0488,-0.0244,-0.00488,-0.05856,-0.02928,-0.0732
-0.0244,-0.00488,0.03416,0.04636,0.05856,-0.04148,0.0488,-0.0244,0.00976,-0.0488,-0.0244,-0.05856
-0.0244,-0.00488,0.03416,0.04636,0.05856,-0.04148,0.0488,-0.0244,0.01464,-0.0488,-0.0244,-0.05856
-0.0244,-0.00732,0.03904,0.05124,0.06344,-0.04392,0.05368,-0.01952,0.0244,-0.04392,-0.02928,-0.06832
-0.0244,-0.00732,0.03904,0.05124,0.06344,-0.04392,0.05368,-0.01464,0.02928,-0.03416,-0.0244,-0.06832
-0.0244,-0.00732,0.03904,0.05124,0.06344,-0.04392,0.05368,-0.01464,0.03904,-0.03416,-0.0244,-0.06344
-0.01952,-0.00976,0.03904,0.0488,0.05856,-0.03904,0.05368,-0.01464,0.03904,-0.02928,-0.01952,-0.05856
-0.01464,-0.01708,0.0488,0.05612,0.06344,-0.03904,0.03904,-0.00976,0.03416,-0.01952,-0.01952,-0.05856
-0.01464,-0.01708,0.0488,0.05612,0.06344,-0.03904,0.03904,-0.00976,0.04392,-0.00976,-0.00976,-0.05856
-0.01464,-0.01464,0.04392,0.05124,0.05856,-0.0366,0.04392,-0.00976,0.05368,-0.00976,-0.00976,-0.06344
-0.01464,-0.01464,0.04392,0.05124,0.05856,-0.0366,0.0488,-0.00976,0.05856,-0.00488,-0.00976,-0.06344
-0.01464,-0.0122,0.03904,0.04636,0.05368,-0.03416,0.04392,-0.00976,0.05856,0,0,-0.05856
-0.00976,-0.01708,0.04392,0.0488,0.05368,-0.03172,0.04392,-0.00976,0.06344,0,0.00488,-0.05368
-0.00976,-0.01952,0.0488,0.05368,0.05856,-0.03416,0.03904,-0.00976,0.06344,0.00488,-0.00488,-0.05856
-0.01464,-0.02196,0.05856,0.06588,0.0732,-0.04392,0.02928,-0.00976,0.06344,0.00976,0.00488,-0.0488
-0.01464,-0.02928,0.0732,0.08052,0.08784,-0.05124,0.03904,-0.00976,0.06344,0.01464,0.01464,-0.0488
-0.00976,-0.02928,0.06832,0.0732,0.07808,-0.04392,0.03904,-0.01464,0.05856,0.01464,0.01952,-0.0488
0,-0.03172,0.06344,0.06344,0.06344,-0.03172,0.03904,-0.01464,0.06344,0.01464,0.00976,-0.04392
0,-0.03172,0.06344,0.06344,0.06344,-0.03172,0.03904,-0.01464,0.06344,0.01464,0.01464,-0.03904
0,-0.02928,0.05856,0.05856,0.05856,-0.02928,0.0244,-0.01952,0.05856,0.02928,0.01464,-0.04392
0,-0.02928,0.05856,0.05856,0.05856,-0.02928,0.0244,-0.01952,0.05856,0.02928,0.01464,-0.0488
0,-0.02684,0.05368,0.05368,0.05368,-0.02684,0.02928,-0.00976,0.06344,0.02928,0.0244,-0.04392
0,-0.0244,0.0488,0.0488,0.0488,-0.0244,0.02928,-0.01464,0.06344,0.0244,0.0244,-0.04392
-0.00488,-0.02196,0.0488,0.05124,0.05368,-0.02928,0.01952,-0.0244,0.05368,0.01464,0.01464,-0.04392
-0.00488,-0.0244,0.05368,0.05612,0.05856,-0.03172,0.01952,-0.0244,0.0488,0.00976,0.01464,-0.0488
-0.01464,-0.02196,0.05856,0.06588,0.0732,-0.04392,0.01952,-0.02928,0.04392,0.00976,0.01952,-0.04392
-0.00976,-0.02196,0.05368,0.05856,0.06344,-0.0366,0.01952,-0.03416,0.04392,0.00976,0.0244,-0.04392
-0.00488,-0.0244,0.05368,0.05612,0.05856,-0.03172,0.01464,-0.03416,0.03904,0.01464,0.01464,-0.04392
-0.00488,-0.02196,0.0488,0.05124,0.05368,-0.02928,0.01464,-0.03416,0.03904,0.00976,0.00976,-0.04392
-0.01464,-0.01464,0.04392,0.05124,0.05856,-0.0366,0.01464,-0.03416,0.03904,0.00976,0.01464,-0.0488
-0.01464,-0.01952,0.05368,0.061,0.06832,-0.04148,0.01464,-0.03904,0.03416,0.00488,0.0244,-0.0488
-0.00488,-0.01952,0.04392,0.04636,0.0488,-0.02684,0.0244,-0.03904,0.03416,0.00488,0.01464,-0.0488
-0.00488,-0.02196,0.0488,0.05124,0.05368,-0.02928,0.0244,-0.03904,0.03416,0.00488,0.01464,-0.0488
-0.01464,-0.01708,0.0488,0.05612,0.06344,-0.03904,0.01464,-0.03904,0.03416,0.00488,0.01464,-0.04392
-0.01464,-0.0122,0.03904,0.04636,0.05368,-0.03416,0.01952,-0.03904,0.03416,0.00488,0.01464,-0.04392
-0.01464,-0.01464,0.04392,0.05124,0.05856,-0.0366,0.01464,-0.03904,0.0244,0.00488,0.00488,-0.05368
-0.01464,-0.0122,0.03904,0.04636,0.05368,-0.03416,0.01464,-0.03904,0.01952,0.00488,0.00488,-0.0488
-0.01464,-0.00244,0.01952,0.02684,0.03416,-0.0244,0.0244,-0.02928,0.02928,0.01464,0.01952,-0.04392
-0.01464,-0.01708,0.0488,0.05612,0.06344,-0.03904,0.0244,-0.03416,0.01952,0.00488,0.01464,-0.05856
-0.00976,-0.01464,0.03904,0.04392,0.0488,-0.02928,0.01952,-0.03904,0.01952,0,0.00976,-0.05856
-0.00976,-0.01464,0.03904,0.04392,0.0488,-0.02928,0.01952,-0.03904,0.01952,0,0.00976,-0.05856
-0.00976,-0.01708,0.04392,0.0488,0.05368,-0.03172,0.01952,-0.03904,0.01952,0.00488,0.01952,-0.0488
-0.00488,-0.02684,0.05856,0.061,0.06344,-0.03416,0.01952,-0.03904,0.03416,0.01464,0.0244,-0.0488
-0.00488,-0.03172,0.06832,0.07076,0.0732,-0.03904,0.00976,-0.04392,0.03416,0.00488,0.01952,-0.05368
0,-0.04148,0.08296,0.08296,0.08296,-0.04148,0.00976,-0.04392,0.04392,0.01464,0.02928,-0.04392
0.00976,-0.05368,0.0976,0.09272,0.08784,-0.03904,0.01952,-0.02928,0.05856,0.03416,0.03416,-0.03904
0.00976,-0.05612,0.10248,0.0976,0.09272,-0.04148,0.0244,-0.02928,0.05856,0.04392,0.03904,-0.03904
0,-0.05368,0.10736,0.10736,0.10736,-0.05368,0.0244,-0.03904,0.0732,0.0488,0.04392,-0.03416
0.00488,-0.05368,0.10248,0.10004,0.0976,-0.04636,0.0244,-0.03904,0.07808,0.04392,0.04392,-0.02928
0.01464,-0.0488,0.08296,0.07564,0.06832,-0.02684,0.01464,-0.0244,0.0732,0.05368,0.04392,-0.03904
0.0244,-0.04636,0.06832,0.05612,0.04392,-0.00976,0.00976,-0.0244,0.0732,0.05368,0.03904,-0.03416
0.0244,-0.03904,0.05368,0.04148,0.02928,-0.00244,0.00976,-0.01464,0.0732,0.04392,0.04392,-0.02928
0.03416,-0.04392,0.05368,0.0366,0.01952,0.00732,0.00976,-0.01464,0.0732,0.04392,0.03904,-0.03416
0.04392,-0.05368,0.06344,0.04148,0.01952,0.0122,-0.00976,-0.01952,0.0732,0.06344,0.05856,-0.01952
0.05368,-0.05856,0.06344,0.0366,0.00976,0.02196,-0.02928,-0.03416,0.06344,0.05856,0.05368,-0.01464
0.06832,-0.08296,0.0976,0.06344,0.02928,0.01952,-0.05856,-0.05856,0.04392,0.05368,0.05856,-0.01464
0.0732,-0.08296,0.09272,0.05612,0.01952,0.02684,-0.06832,-0.0732,0.0244,0.03416,0.05368,-0.01952
0.08784,-0.08784,0.08784,0.04392,0,0.04392,-0.0732,-0.0732,0.01464,0.0244,0.0488,0
0.0976,-0.09272,0.08784,0.03904,-0.00976,0.05368,-0.0732,-0.06832,0.01952,0.03416,0.05856,0.00488
0.10248,-0.09272,0.08296,0.03172,-0.01952,0.061,-0.0732,-0.06832,0.01464,0.03904,0.06344,-0.00976
0.11224,-0.09516,0.07808,0.02196,-0.03416,0.0732,-0.0732,-0.06832,0.00976,0.03416,0.06344,-0.00488
0.11224,-0.0854,0.05856,0.00244,-0.05368,0.08296,-0.08296,-0.08296,-0.01464,0.01464,0.05368,-0.00488
0.10248,-0.07808,0.05368,0.00244,-0.0488,0.07564,-0.06832,-0.08296,-0.01464,0.00976,0.05368,-0.01464
0.06832,-0.05856,0.0488,0.01464,-0.01952,0.04392,-0.06344,-0.08784,-0.00976,0.00488,0.0244,-0.0244
0.03904,-0.04148,0.04392,0.0244,0.00488,0.01708,-0.02928,-0.0732,0,0.00976,0.0244,-0.03416
0.00976,-0.02684,0.04392,0.03904,0.03416,-0.0122,-0.0244,-0.0732,-0.00976,-0.00976,0.01464,-0.05368
0.00488,-0.01952,0.03416,0.03172,0.02928,-0.0122,-0.01464,-0.07808,-0.01464,-0.01952,0,-0.0732
-0.01952,-0.00488,0.02928,0.03904,0.0488,-0.03416,-0.00488,-0.0732,-0.00488,-0.0244,0,-0.08296
-0.0244,0,0.0244,0.0366,0.0488,-0.0366,0.00488,-0.06344,0,-0.01952,-0.00488,-0.08784
-0.01952,-0.00488,0.02928,0.03904,0.0488,-0.03416,0.01952,-0.06344,-0.00488,-0.02928,-0.01464,-0.08784
-0.03416,0.00488,0.0244,0.04148,0.05856,-0.04636,0.01952,-0.06344,-0.01464,-0.03416,-0.02928,-0.09272
-0.03416,0.0122,0.00976,0.02684,0.04392,-0.03904,0.0244,-0.06344,-0.01464,-0.04392,-0.04392,-0.10736
-0.03416,0.0122,0.00976,0.02684,0.04392,-0.03904,0.0244,-0.06344,-0.0244,-0.04392,-0.04392,-0.11224
-0.03416,0.0122,0.00976,0.02684,0.04392,-0.03904,0.00976,-0.06344,-0.01952,-0.04392,-0.04392,-0.11224
