i,aVR,ii,aVF,iii,aVL,V1,V2,V3,V4,V5,V6
0.03416,0.00732,-0.0488,-0.06588,-0.08296,0.05856,0.04392,0.06344,0.05856,0.0488,0.03416,0.03416
0.03904,0.00488,-0.0488,-0.06832,-0.08784,0.06344,0.02928,0.05368,0.0488,0.04392,0.03416,0.0244
0.03416,0.00244,-0.03904,-0.05612,-0.0732,0.05368,0.03416,0.05368,0.0488,0.04392,0.02928,0.0244
0.03416,0.00488,-0.04392,-0.061,-0.07808,0.05612,0.04392,0.05368,0.05856,0.0488,0.02928,0.03416
0.03904,0,-0.03904,-0.05856,-0.07808,0.05856,0.04392,0.05368,0.05856,0.0488,0.03416,0.03416
0.03904,-0.00488,-0.02928,-0.0488,-0.06832,0.05368,0.03904,0.05856,0.05856,0.0488,0.02928,0.02928
0.03904,-0.00732,-0.0244,-0.04392,-0.06344,0.05124,0.04392,0.05856,0.05856,0.04392,0.0244,0.02928
0.0488,-0.01708,-0.01464,-0.03904,-0.06344,0.05612,0.04392,0.05368,0.05368,0.03904,0.0244,0.02928
0.0488,-0.01708,-0.01464,-0.03904,-0.06344,0.05612,0.03904,0.05368,0.05368,0.03904,0.02928,0.02928
0.0488,-0.02196,-0.00488,-0.02928,-0.05368,0.05124,0.0488,0.05856,0.06344,0.04392,0.03904,0.03904
0.06344,-0.03416,0.00488,-0.02684,-0.05856,0.061,0.0488,0.06344,0.06832,0.03904,0.03904,0.03904
0.06344,-0.02684,-0.00976,-0.04148,-0.0732,0.06832,0.0488,0.05368,0.06344,0.0488,0.03904,0.03904
0.06344,-0.02928,-0.00488,-0.0366,-0.06832,0.06588,0.0488,0.05856,0.06832,0.0488,0.03904,0.03904
0.05856,-0.03172,0.00488,-0.0244,-0.05368,0.05612,0.04392,0.06344,0.06344,0.0488,0.03904,0.04392
0.06832,-0.0366,0.00488,-0.02928,-0.06344,0.06588,0.04392,0.06344,0.06344,0.05368,0.03416,0.03904
0.08296,-0.0488,0.01464,-0.02684,-0.06832,0.07564,0.03904,0.06344,0.05856,0.05368,0.03416,0.03904
0.06344,-0.0366,0.00976,-0.02196,-0.05368,0.05856,0.04392,0.05856,0.05856,0.05856,0.03904,0.04392
0.0732,-0.04148,0.00976,-0.02684,-0.06344,0.06832,0.0488,0.06344,0.05856,0.05856,0.03904,0.04392
0.05856,-0.03416,0.00976,-0.01952,-0.0488,0.05368,0.04392,0.06344,0.05856,0.05856,0.03904,0.0488
0.06344,-0.03904,0.01464,-0.01708,-0.0488,0.05612,0.04392,0.0732,0.06832,0.05856,0.04392,0.03416
0.0732,-0.04148,0.00976,-0.02684,-0.06344,0.06832,0.0488,0.06832,0.06832,0.05856,0.04392,0.03416
0.0732,-0.04636,0.01952,-0.01708,-0.05368,0.06344,0.0488,0.06832,0.05856,0.05368,0.0488,0.03416
0.06832,-0.04392,0.01952,-0.01464,-0.0488,0.05856,0.0488,0.06832,0.06344,0.05368,0.0488,0.03416
0.06344,-0.03904,0.01464,-0.01708,-0.0488,0.05612,0.0488,0.05856,0.05856,0.05368,0.03904,0.04392
0.06344,-0.03416,0.00488,-0.02684,-0.05856,0.061,0.0488,0.05856,0.05856,0.05856,0.04392,0.04392
0.06832,-0.0366,0.00488,-0.02928,-0.06344,0.06588,0.0488,0.06344,0.06832,0.05368,0.03904,0.03416
0.05856,-0.03172,0.00488,-0.0244,-0.05368,0.05612,0.0488,0.06344,0.06832,0.05368,0.03904,0.02928
0.05856,-0.02684,-0.00488,-0.03416,-0.06344,0.061,0.04392,0.05368,0.05856,0.0488,0.02928,0.03904
0.06344,-0.02928,-0.00488,-0.0366,-0.06832,0.06588,0.04392,0.05856,0.05856,0.05368,0.02928,0.03904
0.05368,-0.02196,-0.00976,-0.0366,-0.06344,0.05856,0.04392,0.05856,0.05856,0.04392,0.0244,0.0244
0.05368,-0.02196,-0.00976,-0.0366,-0.06344,0.05856,0.04392,0.05856,0.05856,0.04392,0.01464,0.0244
0.05368,-0.0244,-0.00488,-0.03172,-0.05856,0.05612,0.03904,0.04392,0.0488,0.0244,0.01952,0.01952
0.05368,-0.0244,-0.00488,-0.03172,-0.05856,0.05612,0.04392,0.04392,0.0488,0.0244,0.01464,0.01952
0.04392,-0.01464,-0.01464,-0.0366,-0.05856,0.05124,0.0488,0.0488,0.03904,0.01952,0.01464,0.00976
0.04392,-0.01464,-0.01464,-0.0366,-0.05856,0.05124,0.0488,0.0488,0.03904,0.0244,0.01464,0.00488
0.0488,-0.01464,-0.01952,-0.04392,-0.06832,0.05856,0.0488,0.0488,0.04392,0.03416,0.01464,0.01952
0.05368,-0.01708,-0.01952,-0.04636,-0.0732,0.06344,0.0488,0.0488,0.04392,0.0244,0.00976,0.01464
0.0488,-0.01708,-0.01464,-0.03904,-0.06344,0.05612,0.0488,0.05368,0.03904,0.02928,0.00488,0.00976
0.0488,-0.01708,-0.01464,-0.03904,-0.06344,0.05612,0.0488,0.05368,0.03904,0.02928,0.00488,0.00976
0.05368,-0.01952,-0.01464,-0.04148,-0.06832,0.061,0.05368,0.04392,0.02928,0.01952,0.00488,0.00976
0.05368,-0.01952,-0.01464,-0.04148,-0.06832,0.061,0.05368,0.04392,0.02928,0.01952,0.00488,0.00976
0.05856,-0.02196,-0.01464,-0.04392,-0.0732,0.06588,0.05856,0.05368,0.03416,0.02928,0,0.00976
0.05856,-0.02196,-0.01464,-0.04392,-0.0732,0.06588,0.05856,0.05368,0.03416,0.0244,0,0.00488
0.06344,-0.0244,-0.01464,-0.04636,-0.07808,0.07076,0.04392,0.05368,0.03416,0.00976,0,0.00488
0.06344,-0.0244,-0.01464,-0.04636,-0.07808,0.07076,0.0488,0.0488,0.02928,0.00976,0,0.00488
0.05856,-0.01952,-0.01952,-0.0488,-0.07808,0.06832,0.0488,0.0488,0.01952,0.01464,0,0.00488
0.05856,-0.01952,-0.01952,-0.0488,-0.07808,0.06832,0.0488,0.0488,0.0244,0.01464,0,0.00488
0.05856,-0.0244,-0.00976,-0.03904,-0.06832,0.06344,0.04392,0.03904,0.01952,0.01952,0,0
0.06344,-0.02684,-0.00976,-0.04148,-0.0732,0.06832,0.04392,0.04392,0.01952,0.01952,-0.00488,0
0.05368,-0.01708,-0.01952,-0.04636,-0.0732,0.06344,0.0488,0.04392,0.0244,0.00976,-0.00488,-0.00488
0.06344,-0.02196,-0.01952,-0.05124,-0.08296,0.0732,0.05368,0.04392,0.0244,0.00976,-0.00976,-0.00488
0.05856,-0.01708,-0.0244,-0.05368,-0.08296,0.07076,0.05368,0.04392,0.03416,0.00976,-0.00488,0.00488
0.04392,-0.0122,-0.01952,-0.04148,-0.06344,0.05368,0.05368,0.03904,0.03416,0.00488,-0.00488,0
0.0488,-0.01464,-0.01952,-0.04392,-0.06832,0.05856,0.05368,0.03904,0.02928,0.00488,-0.00488,-0.00976
0.05368,-0.01708,-0.01952,-0.04636,-0.0732,0.06344,0.05368,0.04392,0.02928,0.00488,-0.00488,-0.00488
0.06832,-0.03416,0,-0.03416,-0.06832,0.06832,0.05368,0.04392,0.02928,0.00976,-0.00976,-0.00488
0.0732,-0.03416,-0.00488,-0.04148,-0.07808,0.07564,0.06344,0.0488,0.02928,0.01464,-0.00976,-0.00488
0.0488,-0.02928,0.00976,-0.01464,-0.03904,0.04392,0.06832,0.05856,0.0488,0.02928,0.00976,0.00976
0.05856,-0.03904,0.01952,-0.00976,-0.03904,0.0488,0.07808,0.06832,0.0488,0.03904,0.00976,0.01952
0.05856,-0.03904,0.01952,-0.00976,-0.03904,0.0488,0.07808,0.06832,0.0488,0.03904,0.00976,0.01952
0.06832,-0.0488,0.02928,-0.00488,-0.03904,0.05368,0.08296,0.07808,0.06344,0.02928,0.01952,0.00976
0.06832,-0.0488,0.02928,-0.00488,-0.03904,0.05368,0.08784,0.07808,0.06344,0.03416,0.01952,0.00976
0.0732,-0.0488,0.0244,-0.0122,-0.0488,0.061,0.08296,0.06832,0.06832,0.04392,0.01952,0.00976
0.06832,-0.05368,0.03904,0.00488,-0.02928,0.0488,0.08296,0.0732,0.07808,0.05368,0.0244,0.01952
0.06344,-0.05856,0.05368,0.02196,-0.00976,0.0366,0.05368,0.06344,0.06832,0.05368,0.03416,0.02928
0.07808,-0.06588,0.05368,0.01464,-0.0244,0.05124,0.02928,0.05368,0.06344,0.05856,0.03416,0.03416
0.10736,-0.0854,0.06344,0.00976,-0.04392,0.07564,0.0244,0.04392,0.06344,0.05368,0.03904,0.04392
0.11712,-0.09516,0.0732,0.01464,-0.04392,0.08052,0.01952,0.04392,0.06344,0.05368,0.05368,0.05368
0.11712,-0.10248,0.08784,0.02928,-0.02928,0.0732,0.03416,0.06344,0.07808,0.07808,0.05856,0.05856
0.13176,-0.11956,0.10736,0.04148,-0.0244,0.07808,0.03416,0.0732,0.09272,0.09272,0.06832,0.06344
0.11712,-0.10736,0.0976,0.03904,-0.01952,0.06832,0.02928,0.0732,0.09272,0.09272,0.08296,0.08296
0.10248,-0.10004,0.0976,0.04636,-0.00488,0.05368,0.0244,0.0732,0.09272,0.0976,0.08296,0.08296
0.11712,-0.10004,0.08296,0.0244,-0.03416,0.07564,0.01464,0.05368,0.0732,0.07808,0.07808,0.06832
0.10736,-0.09028,0.0732,0.01952,-0.03416,0.07076,0.00488,0.04392,0.06344,0.06832,0.06832,0.05856
0.09272,-0.0732,0.05368,0.00732,-0.03904,0.06588,0.00976,0.0488,0.05856,0.0732,0.06832,0.05856
0.0732,-0.0488,0.0244,-0.0122,-0.0488,0.061,0.0244,0.05368,0.0488,0.06344,0.05368,0.05856
0.05368,-0.02684,0,-0.02684,-0.05368,0.05368,0.03416,0.03904,0.03416,0.04392,0.03904,0.02928
0.03416,-0.00976,-0.01464,-0.03172,-0.0488,0.04148,0.04392,0.0488,0.03416,0.04392,0.03416,0.0244
0.04392,-0.0122,-0.01952,-0.04148,-0.06344,0.05368,0.03904,0.05368,0.03904,0.03904,0.02928,0.0244
0.03904,-0.00488,-0.02928,-0.0488,-0.06832,0.05368,0.03904,0.05368,0.03904,0.02928,0.0244,0.01952
0.03904,0,-0.03904,-0.05856,-0.07808,0.05856,0.05368,0.06344,0.03416,0.02928,0.00976,0.00976
0.03416,0.00732,-0.0488,-0.06588,-0.08296,0.05856,0.05368,0.05856,0.0244,0.01464,0.00488,0
0.01952,0.0244,-0.06832,-0.07808,-0.08784,0.05368,0.04392,0.03416,0.00488,-0.00488,-0.00976,-0.01464
0.00976,0.0366,-0.08296,-0.08784,-0.09272,0.05124,0.04392,0.0244,0,-0.01952,-0.0244,-0.01952
0.00976,0.04148,-0.09272,-0.0976,-0.10248,0.05612,0.05368,0.03416,-0.00488,-0.01464,-0.02928,-0.03416
0.00976,0.04392,-0.0976,-0.10248,-0.10736,0.05856,0.05368,0.03416,0,-0.01464,-0.02928,-0.02928
0.01464,0.0366,-0.08784,-0.09516,-0.10248,0.05856,0.04392,0.01952,-0.00488,-0.01464,-0.02928,-0.03416
0.0244,0.03172,-0.08784,-0.10004,-0.11224,0.06832,0.04392,0.01952,-0.00976,-0.01464,-0.02928,-0.03416
0.01464,0.03172,-0.07808,-0.0854,-0.09272,0.05368,0.05368,0.01952,-0.00976,-0.0244,-0.03416,-0.03416
0.00488,0.04148,-0.08784,-0.09028,-0.09272,0.0488,0.05368,0.01952,-0.00976,-0.0244,-0.03416,-0.0244
0.00488,0.04148,-0.08784,-0.09028,-0.09272,0.0488,0.04392,0.01464,-0.0244,-0.03416,-0.0488,-0.04392
0.00488,0.04148,-0.08784,-0.09028,-0.09272,0.0488,0.03416,0.01464,-0.02928,-0.03416,-0.0488,-0.05368
-0.01464,0.05612,-0.0976,-0.09028,-0.08296,0.03416,0.04392,0.00976,-0.01952,-0.0244,-0.04392,-0.04392
-0.00488,0.05612,-0.10736,-0.10492,-0.10248,0.0488,0.05368,0.00976,-0.01952,-0.03416,-0.04392,-0.03904
-0.00488,0.05124,-0.0976,-0.09516,-0.09272,0.04392,0.04392,0.00488,-0.03416,-0.04392,-0.0488,-0.0488
0.00488,0.04636,-0.0976,-0.10004,-0.10248,0.05368,0.04392,-0.00488,-0.03904,-0.04392,-0.0488,-0.05368
-0.00488,0.05368,-0.10248,-0.10004,-0.0976,0.04636,0.03416,-0.00488,-0.03904,-0.04392,-0.05368,-0.05368
-0.00976,0.05612,-0.10248,-0.0976,-0.09272,0.04148,0.03416,-0.00976,-0.03904,-0.04392,-0.0488,-0.05368
-0.01952,0.06832,-0.11712,-0.10736,-0.0976,0.03904,0.03416,-0.00488,-0.03904,-0.04392,-0.05856,-0.05368
-0.03416,0.07564,-0.11712,-0.10004,-0.08296,0.0244,0.03416,-0.00976,-0.03904,-0.04392,-0.06832,-0.0488
-0.01952,0.0732,-0.12688,-0.11712,-0.10736,0.04392,0.03416,-0.00976,-0.03904,-0.0488,-0.06344,-0.06344
-0.0244,0.07564,-0.12688,-0.11468,-0.10248,0.03904,0.03904,-0.00976,-0.03904,-0.04392,-0.05856,-0.06344
-0.02928,0.08052,-0.13176,-0.11712,-0.10248,0.0366,0.03904,-0.00488,-0.02928,-0.05368,-0.06832,-0.05368
-0.02928,0.07808,-0.12688,-0.11224,-0.0976,0.03416,0.0488,0.00976,-0.03416,-0.05368,-0.06832,-0.05368
-0.0244,0.09272,-0.16104,-0.14884,-0.13664,0.05612,0.05856,0.05368,-0.00976,-0.06344,-0.08784,-0.09272
-0.05368,0.11712,-0.18056,-0.15372,-0.12688,0.0366,0.13664,0.16592,0.05856,-0.05856,-0.13176,-0.13664
-0.0732,0.13176,-0.19032,-0.15372,-0.11712,0.02196,0.19032,0.31232,0.18056,0,-0.11712,-0.14152
-0.0488,0.0732,-0.0976,-0.0732,-0.0488,0,0.22448,0.4148,0.3172,0.13176,-0.0244,-0.08296
-0.00976,-0.00976,0.02928,0.03416,0.03904,-0.0244,0.22448,0.51728,0.48312,0.38064,0.2196,0.07808
0.0732,-0.15616,0.23912,0.20252,0.16592,-0.04636,0.25864,0.72224,0.77104,0.71248,0.54656,0.30744
0.2684,-0.37332,0.47824,0.34404,0.20984,0.02928,0.28304,0.99552,1.05408,1.06384,0.98088,0.60512
0.4148,-0.53192,0.64904,0.44164,0.23424,0.09028,0.31232,1.1712,1.28344,1.40544,1.38592,0.8784
0.55144,-0.63684,0.72224,0.44652,0.1708,0.19032,0.24888,1.13216,1.30296,1.60552,1.65432,1.05896
0.61976,-0.73932,0.85888,0.549,0.23912,0.19032,0.00488,0.61976,0.96136,1.60552,1.83488,1.27856
0.61976,-0.67344,0.72712,0.41724,0.10736,0.2562,-0.21472,-0.03904,0.3904,1.06384,1.35664,1.09312
0.5124,-0.4148,0.3172,0.061,-0.1952,0.3538,-0.32208,-0.61976,-0.3416,0.15616,0.47336,0.60024
0.33184,-0.20496,0.07808,-0.08784,-0.25376,0.2928,-0.4636,-1.16144,-1.01504,-0.51728,-0.05368,0.36112
0.23424,-0.09516,-0.04392,-0.16104,-0.27816,0.2562,-0.55632,-1.41032,-1.26392,-0.69296,-0.1464,0.2684
0.10736,-0.01952,-0.06832,-0.122,-0.17568,0.14152,-0.60512,-1.3908,-1.22,-0.65392,-0.18056,0.20008
0.0488,0.01952,-0.08784,-0.11224,-0.13664,0.09272,-0.5368,-1.16144,-1.02968,-0.57096,-0.1952,0.11224
0.03904,0.02196,-0.08296,-0.10248,-0.122,0.08052,-0.44408,-0.86376,-0.76616,-0.41968,-0.16592,0.07808
0.00976,0.01708,-0.04392,-0.0488,-0.05368,0.03172,-0.25864,-0.52704,-0.46848,-0.244,-0.09272,0.0732
-0.00976,0.01464,-0.01952,-0.01464,-0.00976,0,-0.1464,-0.31232,-0.28304,-0.1464,-0.05368,0.05856
-0.01952,0.02684,-0.03416,-0.0244,-0.01464,-0.00244,-0.10248,-0.21472,-0.20984,-0.12688,-0.0488,0.0244
-0.03904,0.05612,-0.0732,-0.05368,-0.03416,-0.00244,-0.06344,-0.15128,-0.16592,-0.10736,-0.0732,-0.0244
-0.03904,0.0732,-0.10736,-0.08784,-0.06832,0.01464,-0.00976,-0.07808,-0.0976,-0.0732,-0.06344,-0.02928
-0.05856,0.09516,-0.13176,-0.10248,-0.0732,0.00732,0.01952,-0.03904,-0.06344,-0.06832,-0.06344,-0.02928
-0.05856,0.09272,-0.12688,-0.0976,-0.06832,0.00488,0.01464,-0.0488,-0.07808,-0.06832,-0.06344,-0.03416
-0.05856,0.09272,-0.12688,-0.0976,-0.06832,0.00488,0.00976,-0.05856,-0.08784,-0.07808,-0.0732,-0.05368
-0.06344,0.0976,-0.13176,-0.10004,-0.06832,0.00244,0.01464,-0.04392,-0.06832,-0.06832,-0.0732,-0.05856
-0.06344,0.10248,-0.14152,-0.1098,-0.07808,0.00732,0.0244,-0.01952,-0.0488,-0.06344,-0.0732,-0.05368
-0.06344,0.10248,-0.14152,-0.1098,-0.07808,0.00732,0.01952,-0.01952,-0.0488,-0.06344,-0.0732,-0.05368
-0.06344,0.10004,-0.13664,-0.10492,-0.0732,0.00488,0.01464,-0.02928,-0.05856,-0.0732,-0.08296,-0.06344
-0.06344,0.10004,-0.13664,-0.10492,-0.0732,0.00488,0.01464,-0.02928,-0.05856,-0.0732,-0.08296,-0.0732
-0.07808,0.1098,-0.14152,-0.10248,-0.06344,-0.00732,0.0244,-0.01464,-0.04392,-0.05856,-0.07808,-0.0732
-0.06832,0.10736,-0.1464,-0.11224,-0.07808,0.00488,0.0244,-0.01464,-0.04392,-0.05856,-0.07808,-0.05856
-0.06344,0.10004,-0.13664,-0.10492,-0.0732,0.00488,0.0244,-0.00488,-0.04392,-0.06344,-0.08296,-0.05856
-0.0732,0.10492,-0.13664,-0.10004,-0.06344,-0.00488,0.0244,-0.00976,-0.04392,-0.05856,-0.08296,-0.05856
-0.06832,0.0976,-0.12688,-0.09272,-0.05856,-0.00488,0.0244,0,-0.03904,-0.05856,-0.0732,-0.05368
-0.06832,0.09516,-0.122,-0.08784,-0.05368,-0.00732,0.0244,0.00488,-0.03904,-0.05368,-0.0732,-0.05368
-0.05856,0.09028,-0.122,-0.09272,-0.06344,0.00244,0.0244,-0.00488,-0.03904,-0.05368,-0.06344,-0.05856
-0.05856,0.09028,-0.122,-0.09272,-0.06344,0.00244,0.02928,-0.00488,-0.03904,-0.05368,-0.06832,-0.05368
-0.06832,0.0976,-0.12688,-0.09272,-0.05856,-0.00488,0.02928,0.00488,-0.03416,-0.05368,-0.05856,-0.05856
-0.0488,0.08296,-0.11712,-0.09272,-0.06832,0.00976,0.02928,0.00976,-0.02928,-0.05368,-0.05856,-0.05368
-0.05856,0.09028,-0.122,-0.09272,-0.06344,0.00244,0.01952,0.00976,-0.02928,-0.05856,-0.06344,-0.05368
-0.05856,0.08784,-0.11712,-0.08784,-0.05856,0,0.01952,0,-0.0244,-0.05856,-0.06344,-0.05368
-0.05368,0.0854,-0.11712,-0.09028,-0.06344,0.00488,0.01952,0.00976,-0.0244,-0.04392,-0.05856,-0.05368
-0.05368,0.08296,-0.11224,-0.0854,-0.05856,0.00244,0.01464,0.00488,-0.01952,-0.04392,-0.05856,-0.05368
-0.05856,0.08296,-0.10736,-0.07808,-0.0488,-0.00488,0.01464,-0.00488,-0.0244,-0.0488,-0.06832,-0.05856
-0.05368,0.07808,-0.10248,-0.07564,-0.0488,-0.00244,0.01952,0,-0.0244,-0.04392,-0.06344,-0.05856
-0.05368,0.0854,-0.11712,-0.09028,-0.06344,0.00488,0.01952,0.00976,-0.0244,-0.03416,-0.06344,-0.05856
-0.05368,0.07808,-0.10248,-0.07564,-0.0488,-0.00244,0.01952,0.01464,-0.01952,-0.03416,-0.06344,-0.05856
-0.05368,0.07808,-0.10248,-0.07564,-0.0488,-0.00244,0.01952,0.00976,-0.00488,-0.02928,-0.05856,-0.05368
-0.06344,0.0854,-0.10736,-0.07564,-0.04392,-0.00976,0.01952,0.01464,-0.00488,-0.0244,-0.05856,-0.05368
-0.06832,0.0854,-0.10248,-0.06832,-0.03416,-0.01708,0.00488,0.01464,-0.00976,-0.03416,-0.05856,-0.05368
-0.07808,0.09028,-0.10248,-0.06344,-0.0244,-0.02684,0.00976,0.01952,-0.00488,-0.02928,-0.05368,-0.05368
-0.06832,0.08296,-0.0976,-0.06344,-0.02928,-0.01952,0.01464,0.01952,-0.00488,-0.0244,-0.0488,-0.0488
-0.0732,0.08296,-0.09272,-0.05612,-0.01952,-0.02684,0.01464,0.02928,-0.00488,-0.0244,-0.0488,-0.0488
-0.06832,0.08052,-0.09272,-0.05856,-0.0244,-0.02196,0.00976,0.02928,0.00488,-0.0244,-0.0488,-0.04392
-0.06344,0.07808,-0.09272,-0.061,-0.02928,-0.01708,0.00488,0.02928,0.00488,-0.0244,-0.03904,-0.03904
-0.05856,0.0732,-0.08784,-0.05856,-0.02928,-0.01464,0.00488,0.03416,0.00976,-0.01952,-0.03904,-0.02928
-0.06832,0.07808,-0.08784,-0.05368,-0.01952,-0.0244,0,0.04392,0.01464,-0.01464,-0.03416,-0.02928
-0.0732,0.07564,-0.07808,-0.04148,-0.00488,-0.03416,0,0.03904,0.00488,-0.00976,-0.03416,-0.02928
-0.06832,0.07076,-0.0732,-0.03904,-0.00488,-0.03172,0,0.04392,0.01464,-0.00976,-0.02928,-0.01952
-0.06832,0.06588,-0.06344,-0.02928,0.00488,-0.0366,-0.00488,0.05856,0.01464,0.00488,-0.02928,-0.01464
-0.0732,0.06588,-0.05856,-0.02196,0.01464,-0.04392,-0.00488,0.05856,0.0244,0.00488,-0.01952,-0.00976
-0.06344,0.05612,-0.0488,-0.01708,0.01464,-0.03904,-0.00488,0.06344,0.02928,0,-0.01952,-0.00976
-0.06344,0.05124,-0.03904,-0.00732,0.0244,-0.04392,-0.00976,0.0732,0.03416,0.01464,-0.01464,0
-0.0732,0.061,-0.0488,-0.0122,0.0244,-0.0488,-0.00976,0.0732,0.04392,0.0244,-0.00488,-0.00488
-0.06344,0.05124,-0.03904,-0.00732,0.0244,-0.04392,-0.00488,0.08296,0.0488,0.02928,-0.00488,0.00488
-0.05368,0.04392,-0.03416,-0.00732,0.01952,-0.0366,-0.01952,0.08784,0.04392,0.02928,0,0.00488
-0.06344,0.04392,-0.0244,0.00732,0.03904,-0.05124,-0.0244,0.09272,0.05368,0.03416,0.00976,0.01464
-0.06344,0.04148,-0.01952,0.0122,0.04392,-0.05368,-0.01464,0.09272,0.05368,0.03416,0.00976,0.01464
-0.05856,0.04392,-0.02928,0,0.02928,-0.04392,-0.01952,0.09272,0.05856,0.0488,0.0244,0.01952
-0.0488,0.03172,-0.01464,0.00976,0.03416,-0.04148,-0.01952,0.10248,0.05856,0.03904,0.01464,0.02928
-0.05368,0.03416,-0.01464,0.0122,0.03904,-0.04636,-0.01952,0.10736,0.06344,0.03904,0.01952,0.03416
-0.04392,0.02684,-0.00976,0.0122,0.03416,-0.03904,-0.02928,0.0976,0.06344,0.03904,0.0244,0.0244
-0.03904,0.01952,0,0.01952,0.03904,-0.03904,-0.03904,0.10248,0.06832,0.03904,0.0244,0.02928
-0.03904,0.01708,0.00488,0.0244,0.04392,-0.04148,-0.03416,0.10248,0.07808,0.05368,0.02928,0.04392
-0.03416,0.00976,0.01464,0.03172,0.0488,-0.04148,-0.03416,0.10248,0.07808,0.06344,0.03416,0.0488
-0.03416,0.00732,0.01952,0.0366,0.05368,-0.04392,-0.0488,0.11224,0.07808,0.07808,0.03904,0.0488
-0.01952,-0.00244,0.0244,0.03416,0.04392,-0.03172,-0.04392,0.10736,0.07808,0.07808,0.05856,0.05856
-0.01952,-0.00976,0.03904,0.0488,0.05856,-0.03904,-0.05856,0.0976,0.07808,0.07808,0.06344,0.06344
-0.00976,-0.01464,0.03904,0.04392,0.0488,-0.02928,-0.05856,0.0976,0.08296,0.08784,0.0732,0.0732
-0.00488,-0.01708,0.03904,0.04148,0.04392,-0.0244,-0.05856,0.08296,0.09272,0.0976,0.0976,0.07808
-0.00976,-0.01708,0.04392,0.0488,0.05368,-0.03172,-0.06832,0.08784,0.10248,0.10736,0.10736,0.09272
-0.00488,-0.01952,0.04392,0.04636,0.0488,-0.02684,-0.06832,0.0976,0.0976,0.12688,0.11224,0.10248
-0.00976,-0.01464,0.03904,0.04392,0.0488,-0.02928,-0.06832,0.08784,0.10248,0.122,0.11224,0.10248
0.00976,-0.02928,0.0488,0.04392,0.03904,-0.01464,-0.06344,0.09272,0.0976,0.122,0.122,0.10248
-0.00488,-0.01464,0.03416,0.0366,0.03904,-0.02196,-0.06344,0.08784,0.0976,0.122,0.122,0.09272
-0.00488,-0.00488,0.01464,0.01708,0.01952,-0.0122,-0.05368,0.08784,0.10248,0.122,0.10248,0.07808
-0.00976,0.00732,-0.00488,0,0.00488,-0.00732,-0.04392,0.08296,0.09272,0.11224,0.0976,0.06832
-0.00976,0.00244,0.00488,0.00976,0.01464,-0.0122,-0.04392,0.0732,0.0976,0.11224,0.08784,0.05856
-0.03416,0.02928,-0.0244,-0.00732,0.00976,-0.02196,-0.03416,0.06832,0.09272,0.10736,0.06832,0.0488
-0.04392,0.04148,-0.03904,-0.01708,0.00488,-0.0244,-0.04392,0.05856,0.07808,0.08784,0.05856,0.03416
-0.04392,0.04636,-0.0488,-0.02684,-0.00488,-0.01952,-0.03416,0.05368,0.06832,0.06832,0.0488,0.01952
-0.0488,0.05856,-0.06832,-0.04392,-0.01952,-0.01464,-0.02928,0.03416,0.0488,0.06344,0.0488,0.00976
-0.05368,0.06588,-0.07808,-0.05124,-0.0244,-0.01464,-0.02928,0.02928,0.04392,0.0488,0.02928,0.00976
-0.06832,0.07808,-0.08784,-0.05368,-0.01952,-0.0244,-0.0244,0.02928,0.04392,0.0488,0.01952,0
-0.06832,0.08052,-0.09272,-0.05856,-0.0244,-0.02196,-0.0244,0.0244,0.03416,0.03416,0.00976,-0.00976
-0.05856,0.07808,-0.0976,-0.06832,-0.03904,-0.00976,-0.01464,0.00976,0.0244,0.02928,0.00488,-0.0244
-0.0732,0.09028,-0.10736,-0.07076,-0.03416,-0.01952,-0.00976,0.00488,0.01952,0.0244,-0.00488,-0.0244
-0.07808,0.09516,-0.11224,-0.0732,-0.03416,-0.02196,-0.01952,0.00976,0.01952,0.0244,-0.00488,-0.01464
-0.08296,0.10248,-0.122,-0.08052,-0.03904,-0.02196,-0.01952,0.00488,0.00488,0.01952,-0.01464,-0.0244
-0.07808,0.10004,-0.122,-0.08296,-0.04392,-0.01708,-0.01952,0,-0.00488,0,-0.01464,-0.03904
-0.08296,0.10492,-0.12688,-0.0854,-0.04392,-0.01952,-0.0244,-0.00488,-0.00488,0.00488,-0.01464,-0.03904
-0.08296,0.10492,-0.12688,-0.0854,-0.04392,-0.01952,-0.01952,-0.00976,-0.00488,0.00488,-0.01952,-0.03904
-0.08296,0.10248,-0.122,-0.08052,-0.03904,-0.02196,-0.01952,-0.00976,-0.00976,0,-0.01952,-0.03904
-0.08296,0.10248,-0.122,-0.08052,-0.03904,-0.02196,-0.00976,-0.00976,0.00488,-0.00488,-0.01952,-0.03416
-0.08296,0.10248,-0.122,-0.08052,-0.03904,-0.02196,-0.00976,-0.01464,0,0,-0.01952,-0.03416
-0.0732,0.09272,-0.11224,-0.07564,-0.03904,-0.01708,-0.01464,-0.00488,-0.00976,0,-0.01952,-0.03416
-0.0732,0.09028,-0.10736,-0.07076,-0.03416,-0.01952,-0.01464,-0.00488,-0.00976,0,-0.01464,-0.03416
-0.07808,0.09028,-0.10248,-0.06344,-0.0244,-0.02684,-0.00976,-0.01464,0,-0.00488,-0.01464,-0.03416
-0.08296,0.09272,-0.10248,-0.061,-0.01952,-0.03172,-0.00488,-0.01464,0,-0.00488,-0.01952,-0.03416
-0.0732,0.08784,-0.10248,-0.06588,-0.02928,-0.02196,-0.01464,-0.01464,-0.00976,0,-0.01952,-0.0244
-0.06832,0.08296,-0.0976,-0.06344,-0.02928,-0.01952,-0.01464,-0.01464,-0.00976,0,-0.01464,-0.0244
-0.06832,0.08784,-0.10736,-0.0732,-0.03904,-0.01464,-0.01952,-0.00976,0,0,-0.00976,-0.01952
-0.06832,0.0854,-0.10248,-0.06832,-0.03416,-0.01708,-0.01464,-0.00976,0,-0.00488,-0.01464,-0.01952
-0.06832,0.08052,-0.09272,-0.05856,-0.0244,-0.02196,-0.00488,-0.00488,0.00488,0.00976,-0.01464,-0.01952
-0.06832,0.08052,-0.09272,-0.05856,-0.0244,-0.02196,-0.00976,-0.00488,0.00488,0.00976,-0.00976,-0.01952
-0.06832,0.07564,-0.08296,-0.0488,-0.01464,-0.02684,-0.00976,-0.00976,-0.00488,0.00488,-0.00976,-0.01952
-0.05368,0.06344,-0.0732,-0.04636,-0.01952,-0.01708,-0.00976,-0.00488,0,0,-0.00976,-0.01952
-0.06344,0.08052,-0.0976,-0.06588,-0.03416,-0.01464,-0.01952,-0.01464,-0.00488,0,-0.00976,-0.01952
-0.06344,0.07808,-0.09272,-0.061,-0.02928,-0.01708,-0.01952,-0.00976,0,0,-0.00976,-0.01952
-0.06832,0.07564,-0.08296,-0.0488,-0.01464,-0.02684,-0.01464,-0.01464,-0.00488,0,-0.00976,-0.01464
-0.05856,0.07076,-0.08296,-0.05368,-0.0244,-0.01708,-0.01464,-0.01464,-0.00488,0.00488,-0.01464,-0.01952
-0.04392,0.05856,-0.0732,-0.05124,-0.02928,-0.00732,-0.01952,-0.00488,0,0.00488,-0.01464,-0.01952
-0.06344,0.07076,-0.07808,-0.04636,-0.01464,-0.0244,-0.01464,-0.00976,0,0.00976,-0.00976,-0.01464
-0.04392,0.061,-0.07808,-0.05612,-0.03416,-0.00488,-0.00976,-0.00488,0,0.00976,0,-0.01464
-0.05856,0.06832,-0.07808,-0.0488,-0.01952,-0.01952,-0.01464,-0.00488,0,0.00976,0,-0.00976
-0.0488,0.061,-0.0732,-0.0488,-0.0244,-0.0122,-0.01464,-0.00488,0,0.00976,-0.00488,-0.01464
-0.0488,0.06344,-0.07808,-0.05368,-0.02928,-0.00976,-0.00976,-0.00976,0,0.00976,-0.00488,-0.01464
-0.05368,0.06588,-0.07808,-0.05124,-0.0244,-0.01464,-0.00976,-0.00976,0,0.01464,0,-0.01464
-0.05856,0.06832,-0.07808,-0.0488,-0.01952,-0.01952,-0.00976,-0.00976,0.00488,0.01464,0,-0.01464
-0.06344,0.07076,-0.07808,-0.04636,-0.01464,-0.0244,-0.01952,-0.00976,0,0.00488,-0.00976,-0.0244
-0.06344,0.07076,-0.07808,-0.04636,-0.01464,-0.0244,-0.01952,-0.00976,0,0.00976,-0.00488,-0.0244
-0.05368,0.06832,-0.08296,-0.05612,-0.02928,-0.0122,-0.01952,-0.01464,0,0.00488,-0.00976,-0.0244
-0.05368,0.06832,-0.08296,-0.05612,-0.02928,-0.0122,-0.01952,-0.01464,0,0.00488,-0.00976,-0.02928
-0.05368,0.0732,-0.09272,-0.06588,-0.03904,-0.00732,-0.01464,-0.01464,-0.00976,0,-0.00976,-0.02928
-0.05856,0.07564,-0.09272,-0.06344,-0.03416,-0.0122,-0.01464,-0.00976,-0.00976,0.00488,-0.00976,-0.02928
-0.0732,0.0854,-0.0976,-0.061,-0.0244,-0.0244,-0.01464,-0.00976,-0.00976,-0.00488,-0.01464,-0.03416
-0.0732,0.0854,-0.0976,-0.061,-0.0244,-0.0244,-0.01464,-0.00976,-0.00976,-0.00488,-0.0244,-0.03416
-0.0732,0.08784,-0.10248,-0.06588,-0.02928,-0.02196,-0.00976,-0.01464,-0.00976,-0.00488,-0.01952,-0.03904
-0.0732,0.08784,-0.10248,-0.06588,-0.02928,-0.02196,-0.00488,-0.01464,-0.00976,-0.00488,-0.0244,-0.03904
-0.0732,0.09272,-0.11224,-0.07564,-0.03904,-0.01708,-0.00976,-0.01952,-0.01952,-0.01952,-0.0244,-0.03904
-0.0732,0.09272,-0.11224,-0.07564,-0.03904,-0.01708,-0.00976,-0.01952,-0.01952,-0.01464,-0.0244,-0.04392
-0.06344,0.09028,-0.11712,-0.0854,-0.05368,-0.00488,-0.00976,-0.02928,-0.0244,-0.01464,-0.03416,-0.0488
-0.06832,0.09272,-0.11712,-0.08296,-0.0488,-0.00976,-0.00976,-0.02928,-0.0244,-0.0244,-0.03904,-0.05368
-0.07808,0.10004,-0.122,-0.08296,-0.04392,-0.01708,-0.00976,-0.02928,-0.01952,-0.01952,-0.03416,-0.0488
-0.07808,0.10004,-0.122,-0.08296,-0.04392,-0.01708,-0.00976,-0.01952,-0.01952,-0.01952,-0.03416,-0.0488
-0.0732,0.09272,-0.11224,-0.07564,-0.03904,-0.01708,-0.00488,-0.0244,-0.01952,-0.01952,-0.03416,-0.0488
-0.0732,0.09272,-0.11224,-0.07564,-0.03904,-0.01708,-0.00488,-0.0244,-0.01952,-0.01952,-0.03416,-0.0488
-0.07808,0.10004,-0.122,-0.08296,-0.04392,-0.01708,-0.00976,-0.0244,-0.0244,-0.01952,-0.03904,-0.05856
-0.07808,0.10004,-0.122,-0.08296,-0.04392,-0.01708,-0.00976,-0.0244,-0.0244,-0.0244,-0.03904,-0.06344
-0.0732,0.10248,-0.13176,-0.09516,-0.05856,-0.00732,-0.01464,-0.0244,-0.03416,-0.02928,-0.0488,-0.06344
-0.0732,0.10248,-0.13176,-0.09516,-0.05856,-0.00732,-0.00976,-0.02928,-0.03904,-0.02928,-0.0488,-0.06344
-0.07808,0.10492,-0.13176,-0.09272,-0.05368,-0.0122,-0.01952,-0.02928,-0.03904,-0.03416,-0.0488,-0.06344
-0.07808,0.10004,-0.122,-0.08296,-0.04392,-0.01708,-0.01952,-0.02928,-0.03416,-0.03416,-0.0488,-0.06344
-0.07808,0.0976,-0.11712,-0.07808,-0.03904,-0.01952,-0.01464,-0.02928,-0.02928,-0.02928,-0.0488,-0.05856
-0.0732,0.09516,-0.11712,-0.08052,-0.04392,-0.01464,-0.01464,-0.0244,-0.02928,-0.02928,-0.05368,-0.05856
-0.0732,0.09516,-0.11712,-0.08052,-0.04392,-0.01464,-0.01952,-0.0244,-0.03416,-0.03904,-0.04392,-0.05368
-0.06344,0.09028,-0.11712,-0.0854,-0.05368,-0.00488,-0.01464,-0.0244,-0.03416,-0.03904,-0.0488,-0.05368
-0.0732,0.0976,-0.122,-0.0854,-0.0488,-0.0122,-0.0244,-0.0244,-0.03416,-0.02928,-0.04392,-0.06344
-0.07808,0.0976,-0.11712,-0.07808,-0.03904,-0.01952,-0.0244,-0.02928,-0.03416,-0.03416,-0.04392,-0.06832
-0.07808,0.09272,-0.10736,-0.06832,-0.02928,-0.0244,-0.01464,-0.03904,-0.03904,-0.04392,-0.04392,-0.07808
-0.0732,0.09028,-0.10736,-0.07076,-0.03416,-0.01952,-0.01464,-0.03416,-0.03904,-0.04392,-0.04392,-0.0732
-0.06832,0.09272,-0.11712,-0.08296,-0.0488,-0.00976,-0.01464,-0.04392,-0.03904,-0.0488,-0.05856,-0.0732
-0.0732,0.09272,-0.11224,-0.07564,-0.03904,-0.01708,-0.01464,-0.0488,-0.03904,-0.04392,-0.05856,-0.0732
-0.07808,0.10004,-0.122,-0.08296,-0.04392,-0.01708,-0.0244,-0.03904,-0.03904,-0.0488,-0.05856,-0.0732
-0.0732,0.08784,-0.10248,-0.06588,-0.02928,-0.02196,-0.0244,-0.03416,-0.03904,-0.0488,-0.05856,-0.0732
-0.07808,0.09272,-0.10736,-0.06832,-0.02928,-0.0244,-0.01464,-0.03416,-0.03904,-0.03904,-0.0488,-0.06832
-0.08296,0.0976,-0.11224,-0.07076,-0.02928,-0.02684,-0.01464,-0.03416,-0.03904,-0.04392,-0.0488,-0.0732
-0.06344,0.08784,-0.11224,-0.08052,-0.0488,-0.00732,-0.01464,-0.03416,-0.04392,-0.03904,-0.05856,-0.06832
-0.06832,0.08784,-0.10736,-0.0732,-0.03904,-0.01464,-0.01464,-0.03416,-0.0488,-0.03904,-0.0488,-0.06832
-0.0488,0.06344,-0.07808,-0.05368,-0.02928,-0.00976,-0.00488,-0.0244,-0.03416,-0.0244,-0.04392,-0.0488
-0.05856,0.05856,-0.05856,-0.02928,0,-0.02928,0.00976,-0.00976,-0.0244,-0.01952,-0.04392,-0.0488
-0.05856,0.05856,-0.05856,-0.02928,0,-0.02928,0.00976,-0.00976,-0.01464,-0.01952,-0.03416,-0.0488
-0.05856,0.06344,-0.06832,-0.03904,-0.00976,-0.0244,0.01952,-0.00976,-0.00488,-0.01952,-0.02928,-0.05856
-0.05856,0.06344,-0.06832,-0.03904,-0.00976,-0.0244,0.02928,-0.00976,-0.00488,-0.01464,-0.02928,-0.05856
-0.05368,0.05368,-0.05368,-0.02684,0,-0.02684,0.01952,-0.00976,-0.01464,-0.01464,-0.03904,-0.0488
-0.05856,0.05368,-0.0488,-0.01952,0.00976,-0.03416,0.01464,-0.00976,-0.00976,-0.01464,-0.03416,-0.04392
-0.04392,0.03416,-0.0244,-0.00244,0.01952,-0.03172,0.00488,-0.00488,0,-0.01464,-0.01464,-0.03904
-0.03904,0.03172,-0.0244,-0.00488,0.01464,-0.02684,-0.01952,-0.01952,0,-0.00976,-0.01464,-0.03416
-0.0244,0.02196,-0.01952,-0.00732,0.00488,-0.01464,-0.02928,-0.0244,-0.00488,0,-0.00976,-0.02928
-0.00976,0.0122,-0.01464,-0.00976,-0.00488,-0.00244,-0.03416,-0.0244,-0.00488,0.00488,-0.00488,-0.01952
0,0,0,0,0,0,-0.0488,-0.01952,-0.00488,0.01464,0,-0.01952
0.00976,-0.01952,0.02928,0.0244,0.01952,-0.00488,-0.04392,-0.00976,0.01464,0.02928,0.01464,-0.00488
0.00488,-0.01708,0.02928,0.02684,0.0244,-0.00976,-0.03904,-0.00488,0.0244,0.03416,0.0244,0.00488
-0.00488,-0.0122,0.02928,0.03172,0.03416,-0.01952,-0.04392,-0.00488,0.0244,0.03904,0.0244,0.01464
0,-0.01464,0.02928,0.02928,0.02928,-0.01464,-0.0488,-0.01464,0.01952,0.03904,0.03416,0.01464
-0.00488,-0.00732,0.01952,0.02196,0.0244,-0.01464,-0.03904,-0.01952,0.00488,0.0244,0.0244,0.00976
0,0,0,0,0,0,-0.0488,-0.02928,-0.00976,0.00976,0.00976,0
-0.00976,0.0122,-0.01464,-0.00976,-0.00488,-0.00244,-0.03904,-0.0244,-0.01464,0,0,-0.00488
-0.02928,0.03904,-0.0488,-0.03416,-0.01952,-0.00488,-0.02928,-0.03416,-0.0244,-0.00976,-0.00976,-0.02928
-0.05856,0.061,-0.06344,-0.03416,-0.00488,-0.02684,-0.0244,-0.03904,-0.0244,-0.01464,-0.01952,-0.03904
-0.05368,0.06588,-0.07808,-0.05124,-0.0244,-0.01464,-0.01952,-0.0244,-0.01952,-0.01464,-0.0244,-0.04392
-0.05856,0.07076,-0.08296,-0.05368,-0.0244,-0.01708,-0.01952,-0.00976,-0.01952,-0.01952,-0.03416,-0.04392
-0.05856,0.07076,-0.08296,-0.05368,-0.0244,-0.01708,-0.01952,-0.01464,-0.0244,-0.01952,-0.03904,-0.04392
-0.05856,0.07564,-0.09272,-0.06344,-0.03416,-0.0122,-0.01464,-0.01464,-0.0244,-0.02928,-0.03904,-0.05368
-0.06344,0.08296,-0.10248,-0.07076,-0.03904,-0.0122,-0.01464,-0.01952,-0.02928,-0.03904,-0.05368,-0.0732
-0.06832,0.09028,-0.11224,-0.07808,-0.04392,-0.0122,-0.01464,-0.02928,-0.04392,-0.05368,-0.0732,-0.08296
-0.05856,0.0854,-0.11224,-0.08296,-0.05368,-0.00244,-0.01464,-0.03904,-0.06344,-0.06344,-0.07808,-0.10248
-0.05856,0.08784,-0.11712,-0.08784,-0.05856,0,-0.01464,-0.0488,-0.05856,-0.06344,-0.07808,-0.0976
-0.0732,0.10004,-0.12688,-0.09028,-0.05368,-0.00976,-0.01464,-0.04392,-0.06344,-0.0732,-0.07808,-0.08784
-0.0732,0.10004,-0.12688,-0.09028,-0.05368,-0.00976,-0.01464,-0.0488,-0.06832,-0.0732,-0.07808,-0.09272
-0.08296,0.10492,-0.12688,-0.0854,-0.04392,-0.01952,-0.00488,-0.0488,-0.05856,-0.0732,-0.0732,-0.08784
-0.09272,0.1098,-0.12688,-0.08052,-0.03416,-0.02928,-0.00488,-0.0488,-0.05856,-0.0732,-0.0732,-0.09272
-0.08296,0.10492,-0.12688,-0.0854,-0.04392,-0.01952,-0.01464,-0.06344,-0.0732,-0.08296,-0.08296,-0.10248
-0.08296,0.10492,-0.12688,-0.0854,-0.04392,-0.01952,-0.01464,-0.06344,-0.0732,-0.08296,-0.08784,-0.10248
-0.09272,0.11468,-0.13664,-0.09028,-0.04392,-0.0244,-0.00488,-0.05856,-0.06832,-0.0732,-0.09272,-0.09272
-0.08784,0.11224,-0.13664,-0.09272,-0.0488,-0.01952,-0.00488,-0.05856,-0.06832,-0.07808,-0.09272,-0.0976
-0.08296,0.1098,-0.13664,-0.09516,-0.05368,-0.01464,-0.01464,-0.06344,-0.07808,-0.0732,-0.09272,-0.0976
-0.08296,0.1098,-0.13664,-0.09516,-0.05368,-0.01464,-0.01464,-0.06344,-0.08296,-0.0732,-0.0976,-0.10248
-0.08296,0.11224,-0.14152,-0.10004,-0.05856,-0.0122,-0.01464,-0.06344,-0.07808,-0.08296,-0.09272,-0.10248
-0.08296,0.11224,-0.14152,-0.10004,-0.05856,-0.0122,-0.01464,-0.06832,-0.07808,-0.08296,-0.09272,-0.10248
-0.08784,0.11468,-0.14152,-0.0976,-0.05368,-0.01708,-0.00488,-0.06344,-0.07808,-0.09272,-0.0976,-0.11224
-0.09272,0.11956,-0.1464,-0.10004,-0.05368,-0.01952,-0.00488,-0.06832,-0.07808,-0.09272,-0.0976,-0.11224
-0.08784,0.11224,-0.13664,-0.09272,-0.0488,-0.01952,-0.00488,-0.06832,-0.08784,-0.08784,-0.10248,-0.10736
-0.09272,0.11468,-0.13664,-0.09028,-0.04392,-0.0244,-0.00488,-0.06832,-0.08784,-0.08784,-0.0976,-0.11224
-0.08296,0.10736,-0.13176,-0.09028,-0.0488,-0.01708,-0.00976,-0.0732,-0.08784,-0.09272,-0.0976,-0.10248
-0.08784,0.1098,-0.13176,-0.08784,-0.04392,-0.02196,-0.00976,-0.05856,-0.08784,-0.08296,-0.0976,-0.11224
-0.08784,0.122,-0.15616,-0.11224,-0.06832,-0.00976,0.00488,-0.0244,-0.06344,-0.08296,-0.0976,-0.11712
-0.122,0.14884,-0.17568,-0.11468,-0.05368,-0.03416,0.0732,0.0732,-0.00488,-0.09272,-0.14152,-0.15128
-0.11224,0.1464,-0.18056,-0.12444,-0.06832,-0.02196,0.13176,0.1952,0.08784,-0.06832,-0.16104,-0.18544
-0.13664,0.14152,-0.1464,-0.07808,-0.00976,-0.06344,0.20496,0.35136,0.24888,0.0488,-0.0976,-0.15616
-0.09272,0.05856,-0.0244,0.02196,0.06832,-0.08052,0.18544,0.41968,0.38064,0.23424,0.0732,-0.04392
-0.00976,-0.08296,0.17568,0.18056,0.18544,-0.0976,0.2196,0.60512,0.61488,0.51728,0.35624,0.1464
0.11712,-0.26108,0.40504,0.34648,0.28792,-0.0854,0.28792,0.9028,0.94184,0.88328,0.75152,0.42944
0.30744,-0.44164,0.57584,0.42212,0.2684,0.01952,0.28304,1.08336,1.16144,1.20536,1.1468,0.70272
0.4636,-0.58072,0.69784,0.46604,0.23424,0.11468,0.24888,1.1224,1.27856,1.45912,1.47376,0.91256
0.62952,-0.71492,0.80032,0.48556,0.1708,0.22936,0.02928,0.79056,1.05408,1.54208,1.69824,1.11264
0.67832,-0.74908,0.81984,0.48068,0.14152,0.2684,-0.26352,0.09272,0.53192,1.25904,1.57624,1.16632
0.5612,-0.49776,0.43432,0.15372,-0.12688,0.34404,-0.40992,-0.50752,-0.12688,0.43432,0.7564,0.72224
0.45384,-0.26352,0.0732,-0.15372,-0.38064,0.41724,-0.57096,-1.15656,-0.94184,-0.44896,0,0.33184
0.32208,-0.14152,-0.03904,-0.20008,-0.36112,0.3416,-0.66368,-1.50792,-1.33712,-0.76128,-0.19032,0.2196
0.17568,-0.0488,-0.07808,-0.16592,-0.25376,0.21472,-0.72712,-1.57624,-1.37128,-0.77104,-0.2196,0.18544
0.07808,0,-0.07808,-0.11712,-0.15616,0.11712,-0.67344,-1.37616,-1.18584,-0.65392,-0.2196,0.122
0.05368,0.01464,-0.08296,-0.1098,-0.13664,0.09516,-0.57096,-1.0736,-0.91256,-0.51728,-0.20008,0.05856
-0.00488,0.0244,-0.04392,-0.04148,-0.03904,0.01708,-0.37576,-0.7076,-0.59536,-0.33672,-0.12688,0.03416
-0.02928,0.0244,-0.01952,-0.00488,0.00976,-0.01952,-0.20984,-0.4392,-0.37088,-0.20496,-0.08784,0.02928
-0.0488,0.03416,-0.01952,0.00488,0.02928,-0.03904,-0.15128,-0.28792,-0.25864,-0.16104,-0.07808,0.00488
-0.05856,0.05856,-0.05856,-0.02928,0,-0.02928,-0.11224,-0.23424,-0.21472,-0.1464,-0.09272,-0.02928
-0.05368,0.05856,-0.06344,-0.0366,-0.00976,-0.02196,-0.05856,-0.15616,-0.15128,-0.10736,-0.08296,-0.06832
-0.08784,0.0854,-0.08296,-0.03904,0.00488,-0.04636,-0.00976,-0.08784,-0.09272,-0.07808,-0.0732,-0.06832
-0.08784,0.09028,-0.09272,-0.0488,-0.00488,-0.04148,-0.01952,-0.09272,-0.10248,-0.08784,-0.08296,-0.0732
-0.08784,0.09272,-0.0976,-0.05368,-0.00976,-0.03904,-0.03416,-0.0976,-0.11712,-0.10736,-0.08784,-0.07808
-0.08296,0.09272,-0.10248,-0.061,-0.01952,-0.03172,-0.02928,-0.08784,-0.0976,-0.10248,-0.10248,-0.0976
-0.08296,0.09272,-0.10248,-0.061,-0.01952,-0.03172,-0.00976,-0.06344,-0.08296,-0.09272,-0.10248,-0.09272
-0.09272,0.0976,-0.10248,-0.05612,-0.00976,-0.04148,-0.00488,-0.05856,-0.08784,-0.09272,-0.10248,-0.09272
-0.09272,0.09516,-0.0976,-0.05124,-0.00488,-0.04392,-0.00976,-0.05856,-0.08784,-0.09272,-0.10248,-0.09272
-0.08296,0.09028,-0.0976,-0.05612,-0.01464,-0.03416,-0.01464,-0.05856,-0.07808,-0.09272,-0.09272,-0.09272
-0.0976,0.0976,-0.0976,-0.0488,0,-0.0488,-0.00976,-0.0488,-0.06344,-0.08784,-0.09272,-0.0976
-0.10248,0.10248,-0.10248,-0.05124,0,-0.05124,0.00488,-0.04392,-0.06344,-0.08784,-0.0976,-0.09272
-0.08784,0.10248,-0.11712,-0.0732,-0.02928,-0.02928,0.00488,-0.04392,-0.06344,-0.09272,-0.0976,-0.08784
-0.0732,0.0854,-0.0976,-0.061,-0.0244,-0.0244,0.00488,-0.0488,-0.0732,-0.08296,-0.10248,-0.08784
-0.08296,0.09028,-0.0976,-0.05612,-0.01464,-0.03416,0.00488,-0.04392,-0.0732,-0.07808,-0.10248,-0.09272
-0.08784,0.08784,-0.08784,-0.04392,0,-0.04392,-0.00488,-0.03416,-0.05856,-0.07808,-0.09272,-0.09272
-0.08784,0.0854,-0.08296,-0.03904,0.00488,-0.04636,-0.00488,-0.03416,-0.05856,-0.0732,-0.08784,-0.08784
-0.08784,0.0854,-0.08296,-0.03904,0.00488,-0.04636,0.00976,-0.03416,-0.0488,-0.0732,-0.09272,-0.08296
-0.08784,0.08296,-0.07808,-0.03416,0.00976,-0.0488,0.00976,-0.03416,-0.04392,-0.0732,-0.0976,-0.08784
-0.07808,0.08296,-0.08784,-0.0488,-0.00976,-0.03416,0,-0.02928,-0.0488,-0.08296,-0.0976,-0.08784
-0.06832,0.0732,-0.07808,-0.04392,-0.00976,-0.02928,0,-0.0244,-0.0488,-0.07808,-0.0976,-0.08296
-0.06832,0.07076,-0.0732,-0.03904,-0.00488,-0.03172,0,-0.03416,-0.04392,-0.07808,-0.09272,-0.08296
-0.06344,0.061,-0.05856,-0.02684,0.00488,-0.03416,0,-0.03416,-0.04392,-0.0732,-0.09272,-0.08296
-0.0732,0.06588,-0.05856,-0.02196,0.01464,-0.04392,0.00488,-0.01952,-0.03904,-0.0732,-0.07808,-0.08296
-0.07808,0.06588,-0.05368,-0.01464,0.0244,-0.05124,0.00488,-0.0244,-0.03416,-0.0732,-0.07808,-0.08296
-0.0732,0.06344,-0.05368,-0.01708,0.01952,-0.04636,0.00976,-0.01952,-0.03416,-0.05856,-0.08296,-0.07808
-0.0732,0.06344,-0.05368,-0.01708,0.01952,-0.04636,0.00976,-0.01952,-0.03416,-0.05368,-0.08296,-0.07808
-0.06344,0.05612,-0.0488,-0.01708,0.01464,-0.03904,0,-0.01952,-0.03416,-0.06344,-0.08296,-0.08784
-0.05856,0.04636,-0.03416,-0.00488,0.0244,-0.04148,0,-0.01464,-0.0244,-0.05856,-0.07808,-0.08296
-0.06832,0.05368,-0.03904,-0.00488,0.02928,-0.0488,0,-0.01952,-0.0244,-0.05856,-0.06832,-0.08296
-0.06832,0.05124,-0.03416,0,0.03416,-0.05124,0,-0.01464,-0.0244,-0.05368,-0.06832,-0.08296
-0.05856,0.04148,-0.0244,0.00488,0.03416,-0.04636,0.00488,-0.01464,-0.01464,-0.0488,-0.06344,-0.0732
-0.05856,0.04148,-0.0244,0.00488,0.03416,-0.04636,0.00976,-0.00976,-0.01464,-0.04392,-0.06344,-0.0732
-0.0488,0.03172,-0.01464,0.00976,0.03416,-0.04148,0.01464,0.00488,-0.00488,-0.04392,-0.05856,-0.06832
-0.05856,0.0366,-0.01464,0.01464,0.04392,-0.05124,0.01464,0.00976,0,-0.03904,-0.05856,-0.06344
-0.05856,0.0366,-0.01464,0.01464,0.04392,-0.05124,0.00976,0.00976,-0.00488,-0.03416,-0.05368,-0.06344
-0.0488,0.02684,-0.00488,0.01952,0.04392,-0.04636,0.00488,0.00976,0,-0.02928,-0.0488,-0.05856
-0.06832,0.03904,-0.00976,0.0244,0.05856,-0.06344,0,0.01464,0.00488,-0.0244,-0.04392,-0.0488
-0.06832,0.0366,-0.00488,0.02928,0.06344,-0.06588,0,0.02928,0.00488,-0.0244,-0.04392,-0.0488
-0.0488,0.01708,0.01464,0.03904,0.06344,-0.05612,0,0.04392,0.01952,-0.01952,-0.03904,-0.0488
-0.0488,0.01464,0.01952,0.04392,0.06832,-0.05856,0,0.0488,0.0244,-0.01464,-0.03416,-0.03904
-0.0488,0.01464,0.01952,0.04392,0.06832,-0.05856,-0.00488,0.0488,0.0244,-0.00488,-0.03416,-0.04392
-0.05368,0.0122,0.02928,0.05612,0.08296,-0.06832,-0.00488,0.05368,0.0244,-0.00488,-0.02928,-0.03904
-0.05368,0.0122,0.02928,0.05612,0.08296,-0.06832,-0.00488,0.05856,0.03416,0.00976,-0.01952,-0.02928
-0.05368,0.01708,0.01952,0.04636,0.0732,-0.06344,-0.00976,0.06344,0.04392,0.01464,-0.01464,-0.01464
-0.03904,0,0.03904,0.05856,0.07808,-0.05856,-0.00976,0.0732,0.04392,0.01464,-0.01464,-0.01464
-0.03416,-0.00976,0.05368,0.07076,0.08784,-0.061,-0.00488,0.0732,0.0488,0.01952,-0.01464,-0.01464
-0.03416,-0.0122,0.05856,0.07564,0.09272,-0.06344,-0.00976,0.07808,0.04392,0.01952,-0.00976,-0.01464
-0.04392,-0.0122,0.06832,0.09028,0.11224,-0.07808,-0.01464,0.08296,0.05368,0.03416,0,-0.00488
-0.04392,-0.0122,0.06832,0.09028,0.11224,-0.07808,-0.01952,0.09272,0.06832,0.03416,0.00488,0
-0.03416,-0.02196,0.07808,0.09516,0.11224,-0.0732,-0.01952,0.0976,0.06832,0.0488,0.01464,0.00976
-0.02928,-0.03172,0.09272,0.10736,0.122,-0.07564,-0.01952,0.10248,0.07808,0.0488,0.02928,0.01952
-0.03416,-0.02928,0.09272,0.1098,0.12688,-0.08052,-0.02928,0.10736,0.08784,0.05856,0.02928,0.0244
-0.01952,-0.04148,0.10248,0.11224,0.122,-0.07076,-0.02928,0.10736,0.09272,0.05856,0.0244,0.02928
-0.00976,-0.0488,0.10736,0.11224,0.11712,-0.06344,-0.02928,0.11224,0.0976,0.06344,0.0244,0.03416
-0.00976,-0.04636,0.10248,0.10736,0.11224,-0.061,-0.03416,0.11224,0.0976,0.06832,0.03416,0.03416
0.00488,-0.061,0.11712,0.11468,0.11224,-0.05368,-0.03904,0.11224,0.0976,0.07808,0.03904,0.03904
0.00488,-0.06588,0.12688,0.12444,0.122,-0.05856,-0.03904,0.122,0.10736,0.08296,0.05856,0.0488
0.00976,-0.0732,0.13664,0.13176,0.12688,-0.05856,-0.03416,0.11712,0.11224,0.0976,0.0732,0.06344
0.01952,-0.08296,0.1464,0.13664,0.12688,-0.05368,-0.0488,0.10736,0.10736,0.10248,0.06344,0.05368
0.03416,-0.09028,0.1464,0.12932,0.11224,-0.03904,-0.0488,0.10736,0.11224,0.11224,0.07808,0.06832
0.0244,-0.0854,0.1464,0.1342,0.122,-0.0488,-0.0488,0.10248,0.11224,0.122,0.10248,0.07808
0.0244,-0.08784,0.15128,0.13908,0.12688,-0.05124,-0.05856,0.10736,0.12688,0.13176,0.11712,0.09272
0.03416,-0.09028,0.1464,0.12932,0.11224,-0.03904,-0.05856,0.10248,0.11712,0.13664,0.11224,0.08296
0.02928,-0.08784,0.1464,0.13176,0.11712,-0.04392,-0.05856,0.09272,0.122,0.13176,0.11224,0.08296
0.03904,-0.08784,0.13664,0.11712,0.0976,-0.02928,-0.05368,0.09272,0.12688,0.13176,0.11224,0.07808
0.03416,-0.08052,0.12688,0.1098,0.09272,-0.02928,-0.05368,0.08784,0.12688,0.12688,0.10248,0.06832
0.02928,-0.06832,0.10736,0.09272,0.07808,-0.0244,-0.04392,0.0732,0.10248,0.122,0.0976,0.06344
0.02928,-0.061,0.09272,0.07808,0.06344,-0.01708,-0.04392,0.06344,0.10248,0.10736,0.09272,0.05368
0.01464,-0.05124,0.08784,0.08052,0.0732,-0.02928,-0.03416,0.06344,0.08296,0.10248,0.0732,0.04392
0,-0.03172,0.06344,0.06344,0.06344,-0.03172,-0.03416,0.05368,0.0732,0.09272,0.05368,0.02928
-0.00488,-0.0244,0.05368,0.05612,0.05856,-0.03172,-0.0244,0.04392,0.06344,0.08296,0.05368,0.01952
-0.00976,-0.01708,0.04392,0.0488,0.05368,-0.03172,-0.01952,0.03904,0.05368,0.06832,0.03904,0.00488
-0.01952,-0.00732,0.03416,0.04392,0.05368,-0.0366,-0.02928,0.02928,0.04392,0.05856,0.02928,0
-0.02928,0.00244,0.0244,0.03904,0.05368,-0.04148,-0.0244,0.0244,0.03904,0.04392,0.01952,-0.00488
-0.02928,0.0122,0.00488,0.01952,0.03416,-0.03172,-0.0244,0.00976,0.01952,0.01952,0.00488,-0.01464
-0.02928,0.01708,-0.00488,0.00976,0.0244,-0.02684,-0.0244,0,0.00976,0.00976,-0.00488,-0.0244
-0.04392,0.0244,-0.00488,0.01708,0.03904,-0.04148,-0.01952,0.00488,0.01464,0.00976,-0.00976,-0.0244
-0.03904,0.02684,-0.01464,0.00488,0.0244,-0.03172,-0.01952,0.00488,0.00976,0.00488,-0.01464,-0.0244
-0.03904,0.03172,-0.0244,-0.00488,0.01464,-0.02684,-0.00976,-0.00488,0.00976,0.00488,-0.00976,-0.03416
-0.0488,0.03416,-0.01952,0.00488,0.02928,-0.03904,-0.00976,0,0.00488,-0.00488,-0.01464,-0.03416
-0.03904,0.03172,-0.0244,-0.00488,0.01464,-0.02684,-0.0244,-0.01464,-0.00488,-0.00976,-0.0244,-0.03904
-0.04392,0.0366,-0.02928,-0.00732,0.01464,-0.02928,-0.01952,-0.01464,-0.00488,-0.00488,-0.0244,-0.03904
-0.04392,0.03416,-0.0244,-0.00244,0.01952,-0.03172,-0.01952,-0.00976,-0.00488,-0.00976,-0.02928,-0.03904
-0.04392,0.03416,-0.0244,-0.00244,0.01952,-0.03172,-0.01952,-0.00976,-0.00976,-0.01464,-0.02928,-0.03904
-0.05368,0.04392,-0.03416,-0.00732,0.01952,-0.0366,-0.01952,-0.00976,-0.00488,0,-0.02928,-0.04392
-0.04392,0.03904,-0.03416,-0.0122,0.00976,-0.02684,-0.01464,-0.01464,-0.00976,0,-0.02928,-0.04392
-0.03416,0.02928,-0.0244,-0.00732,0.00976,-0.02196,-0.01464,-0.01464,0,-0.00976,-0.01952,-0.04392
-0.03416,0.02196,-0.00976,0.00732,0.0244,-0.02928,-0.01464,-0.01464,0,-0.00976,-0.01464,-0.04392
-0.03416,0.0244,-0.01464,0.00244,0.01952,-0.02684,-0.01952,-0.01464,-0.00976,-0.01464,-0.02928,-0.04392
-0.02928,0.02196,-0.01464,0,0.01464,-0.02196,-0.01464,-0.01464,-0.01952,-0.01464,-0.02928,-0.04392
-0.02928,0.01952,-0.00976,0.00488,0.01952,-0.0244,-0.0244,-0.0244,-0.00976,-0.00976,-0.01952,-0.04392
-0.03904,0.0244,-0.00976,0.00976,0.02928,-0.03416,-0.0244,-0.0244,0,-0.00976,-0.00976,-0.03904
-0.02928,0.01708,-0.00488,0.00976,0.0244,-0.02684,-0.01952,-0.01952,-0.00976,-0.01464,-0.0244,-0.03904
-0.02928,0.01708,-0.00488,0.00976,0.0244,-0.02684,-0.01464,-0.01952,-0.01464,-0.00976,-0.0244,-0.03904
-0.01952,0.01708,-0.01464,-0.00488,0.00488,-0.0122,-0.01952,-0.0244,-0.01464,-0.00976,-0.0244,-0.02928
-0.01952,0.01708,-0.01464,-0.00488,0.00488,-0.0122,-0.01952,-0.0244,-0.01464,-0.00976,-0.01952,-0.02928
-0.0244,0.01464,-0.00488,0.00732,0.01952,-0.02196,-0.00976,-0.01952,0,-0.00488,-0.01952,-0.02928
-0.03416,0.02684,-0.01952,-0.00244,0.01464,-0.0244,-0.00976,-0.01464,-0.00488,-0.00976,-0.01952,-0.02928
-0.0244,0.01708,-0.00976,0.00244,0.01464,-0.01952,-0.01952,-0.0244,-0.01464,-0.00976,-0.01952,-0.02928
-0.02928,0.01708,-0.00488,0.00976,0.0244,-0.02684,-0.01952,-0.01952,-0.00976,-0.00976,-0.01952,-0.02928
-0.03416,0.01952,-0.00488,0.0122,0.02928,-0.03172,-0.0244,-0.01464,-0.01464,-0.00488,-0.01952,-0.0244
-0.0244,0.0122,0,0.0122,0.0244,-0.0244,-0.01952,-0.01464,-0.00976,-0.00488,-0.0244,-0.02928
-0.01464,0.00488,0.00488,0.0122,0.01952,-0.01708,-0.00488,-0.01952,0,-0.00488,-0.01464,-0.0244
-0.0244,0.0122,0,0.0122,0.0244,-0.0244,-0.00488,-0.01952,0,0,-0.00976,-0.0244
-0.01464,0.00732,0,0.00732,0.01464,-0.01464,-0.01952,-0.01464,-0.00976,0,-0.00976,-0.0244
-0.02928,0.0122,0.00488,0.01952,0.03416,-0.03172,-0.0244,-0.01464,-0.00976,0,-0.00976,-0.01952
-0.01952,0.01464,-0.00976,0,0.00976,-0.01464,-0.01952,-0.01464,-0.00976,0,-0.01464,-0.03416
-0.01952,0.01464,-0.00976,0,0.00976,-0.01464,-0.01952,-0.01952,-0.00976,0,-0.01952,-0.03416
-0.0244,0.0122,0,0.0122,0.0244,-0.0244,-0.01952,-0.01952,0.00488,-0.00488,-0.01952,-0.0244
-0.01952,0.00976,0,0.00976,0.01952,-0.01952,-0.01952,-0.01952,0,-0.00488,-0.01952,-0.0244
-0.01464,0.00244,0.00976,0.01708,0.0244,-0.01952,-0.01952,-0.01952,-0.00976,-0.00976,-0.01464,-0.03416
-0.01464,0.00244,0.00976,0.01708,0.0244,-0.01952,-0.01952,-0.0244,-0.00976,-0.00976,-0.01952,-0.04392
-0.02928,0.01708,-0.00488,0.00976,0.0244,-0.02684,-0.01952,-0.0244,-0.00976,-0.00488,-0.01952,-0.03416
-0.02928,0.01708,-0.00488,0.00976,0.0244,-0.02684,-0.01464,-0.0244,-0.00976,-0.00976,-0.01952,-0.03904
-0.02928,0.01708,-0.00488,0.00976,0.0244,-0.02684,-0.01464,-0.00976,0,-0.00488,-0.00976,-0.03904
-0.0244,0.01464,-0.00488,0.00732,0.01952,-0.02196,-0.01464,-0.00976,0,-0.00488,-0.01464,-0.03904
-0.03416,0.01708,0,0.01708,0.03416,-0.03416,-0.01464,-0.01952,-0.00976,-0.00488,-0.0244,-0.04392
-0.03416,0.01952,-0.00488,0.0122,0.02928,-0.03172,-0.01952,-0.0244,-0.01952,-0.01464,-0.03416,-0.0488
-0.03416,0.01952,-0.00488,0.0122,0.02928,-0.03172,-0.00488,-0.0244,-0.01952,-0.01464,-0.01952,-0.03904
-0.03416,0.0244,-0.01464,0.00244,0.01952,-0.02684,-0.00976,-0.0244,-0.01952,-0.01952,-0.0244,-0.03904
-0.03416,0.02928,-0.0244,-0.00732,0.00976,-0.02196,-0.01952,-0.02928,-0.01952,-0.0244,-0.03416,-0.05368
-0.03416,0.02928,-0.0244,-0.00732,0.00976,-0.02196,-0.01952,-0.02928,-0.0244,-0.0244,-0.03416,-0.05368
-0.03904,0.03904,-0.03904,-0.01952,0,-0.01952,-0.00976,-0.02928,-0.01464,-0.02928,-0.02928,-0.0488
-0.03904,0.03904,-0.03904,-0.01952,0,-0.01952,-0.00976,-0.02928,-0.01464,-0.03904,-0.02928,-0.05856
-0.0488,0.04148,-0.03416,-0.00976,0.01464,-0.03172,-0.00976,-0.03416,-0.01952,-0.02928,-0.03416,-0.05856
-0.0488,0.04148,-0.03416,-0.00976,0.01464,-0.03172,-0.00488,-0.03416,-0.01952,-0.02928,-0.03416,-0.05856
-0.04392,0.03904,-0.03416,-0.0122,0.00976,-0.02684,-0.01464,-0.03416,-0.02928,-0.03904,-0.04392,-0.05856
-0.04392,0.03904,-0.03416,-0.0122,0.00976,-0.02684,-0.01952,-0.03416,-0.02928,-0.03904,-0.0488,-0.05856
-0.03904,0.0366,-0.03416,-0.01464,0.00488,-0.02196,-0.01952,-0.03416,-0.03416,-0.03904,-0.0488,-0.06344
-0.03904,0.0366,-0.03416,-0.01464,0.00488,-0.02196,-0.0244,-0.03416,-0.03416,-0.0488,-0.0488,-0.06344
-0.04392,0.04392,-0.04392,-0.02196,0,-0.02196,-0.01464,-0.03904,-0.02928,-0.03904,-0.0488,-0.06344
-0.04392,0.04392,-0.04392,-0.02196,0,-0.02196,-0.00976,-0.03904,-0.02928,-0.03904,-0.0488,-0.06344
-0.0488,0.0488,-0.0488,-0.0244,0,-0.0244,-0.00976,-0.03904,-0.0244,-0.04392,-0.0488,-0.06344
-0.0488,0.0488,-0.0488,-0.0244,0,-0.0244,-0.00488,-0.03904,-0.0244,-0.0488,-0.0488,-0.06344
-0.0488,0.0488,-0.0488,-0.0244,0,-0.0244,-0.01464,-0.03904,-0.03904,-0.0488,-0.05368,-0.06832
-0.04392,0.04636,-0.0488,-0.02684,-0.00488,-0.01952,-0.01464,-0.03416,-0.03416,-0.0488,-0.05368,-0.06344
-0.04392,0.04148,-0.03904,-0.01708,0.00488,-0.0244,-0.01952,-0.03416,-0.03416,-0.0488,-0.05856,-0.06344
-0.03416,0.0366,-0.03904,-0.02196,-0.00488,-0.01464,-0.01464,-0.03416,-0.03416,-0.0488,-0.05368,-0.06344
-0.0488,0.05124,-0.05368,-0.02928,-0.00488,-0.02196,-0.01464,-0.03904,-0.0244,-0.04392,-0.05368,-0.05856
-0.03904,0.04392,-0.0488,-0.02928,-0.00976,-0.01464,-0.01464,-0.03904,-0.02928,-0.04392,-0.05368,-0.05856
-0.0488,0.05368,-0.05856,-0.03416,-0.00976,-0.01952,-0.01464,-0.03416,-0.02928,-0.04392,-0.05368,-0.06344
-0.04392,0.04636,-0.0488,-0.02684,-0.00488,-0.01952,-0.01464,-0.03416,-0.02928,-0.04392,-0.05856,-0.06344
-0.04392,0.04636,-0.0488,-0.02684,-0.00488,-0.01952,-0.01464,-0.03904,-0.03904,-0.05856,-0.05856,-0.06344
-0.03416,0.03904,-0.04392,-0.02684,-0.00976,-0.0122,-0.01464,-0.03904,-0.03904,-0.0488,-0.05856,-0.06344
-0.0488,0.0488,-0.0488,-0.0244,0,-0.0244,-0.01464,-0.0488,-0.03904,-0.0488,-0.05856,-0.0732
-0.03904,0.04148,-0.04392,-0.0244,-0.00488,-0.01708,-0.01464,-0.04392,-0.03904,-0.0488,-0.05856,-0.07808
-0.04392,0.0488,-0.05368,-0.03172,-0.00976,-0.01708,-0.01464,-0.03416,-0.02928,-0.05368,-0.05856,-0.06832
-0.03416,0.04148,-0.0488,-0.03172,-0.01464,-0.00976,-0.01464,-0.03416,-0.02928,-0.0488,-0.05856,-0.0732
-0.0244,0.03172,-0.03904,-0.02684,-0.01464,-0.00488,-0.01464,-0.03416,-0.03416,-0.0488,-0.06344,-0.06832
-0.02928,0.03416,-0.03904,-0.0244,-0.00976,-0.00976,-0.01464,-0.03416,-0.03904,-0.0488,-0.05856,-0.06832
-0.04392,0.04148,-0.03904,-0.01708,0.00488,-0.0244,-0.00488,-0.03416,-0.03416,-0.04392,-0.06344,-0.06832
-0.04392,0.05124,-0.05856,-0.0366,-0.01464,-0.01464,-0.00976,-0.03416,-0.03904,-0.0488,-0.06344,-0.06832
-0.04392,0.05368,-0.06344,-0.04148,-0.01952,-0.0122,-0.01952,-0.05368,-0.03904,-0.05856,-0.05856,-0.07808
-0.03904,0.04636,-0.05368,-0.03416,-0.01464,-0.0122,-0.01952,-0.04392,-0.03416,-0.06344,-0.05856,-0.0732
-0.03904,0.04636,-0.05368,-0.03416,-0.01464,-0.0122,-0.00976,-0.03904,-0.02928,-0.05368,-0.05368,-0.06344
-0.03416,0.03904,-0.04392,-0.02684,-0.00976,-0.0122,-0.00488,-0.03416,-0.0244,-0.0488,-0.05368,-0.05856
-0.05368,0.04636,-0.03904,-0.0122,0.01464,-0.03416,0,-0.03416,-0.01464,-0.03904,-0.0488,-0.05368
-0.02928,0.02196,-0.01464,0,0.01464,-0.02196,0.00488,-0.0244,0,-0.03416,-0.02928,-0.0488
-0.02928,0.01708,-0.00488,0.00976,0.0244,-0.02684,0.01464,-0.01464,0,-0.0244,-0.02928,-0.0488
-0.02928,0.01952,-0.00976,0.00488,0.01952,-0.0244,0.01952,-0.00976,-0.00488,-0.02928,-0.03904,-0.03904
-0.02928,0.01952,-0.00976,0.00488,0.01952,-0.0244,0.02928,-0.00976,-0.00488,-0.0244,-0.03904,-0.03904
-0.0244,0.00976,0.00488,0.01708,0.02928,-0.02684,0.01952,-0.00976,0.00488,-0.01464,-0.02928,-0.03904
-0.02928,0.00976,0.00976,0.0244,0.03904,-0.03416,0.01464,-0.00976,0.00976,-0.01464,-0.0244,-0.03416
-0.01464,-0.00976,0.03416,0.04148,0.0488,-0.03172,-0.00488,-0.01464,0.00976,-0.00488,-0.01464,-0.02928
-0.00976,-0.0122,0.03416,0.03904,0.04392,-0.02684,-0.02928,-0.02928,0.00976,0,-0.01464,-0.0244
0.01464,-0.02684,0.03904,0.03172,0.0244,-0.00488,-0.02928,-0.0244,0.01464,0,0,-0.01952
0.02928,-0.0366,0.04392,0.02928,0.01464,0.00732,-0.03416,-0.0244,0.01464,0.00488,0.00488,-0.00976
0.03904,-0.0488,0.05856,0.03904,0.01952,0.00976,-0.02928,-0.00976,0.01464,0.01464,0.00976,0
0.0488,-0.06832,0.08784,0.06344,0.03904,0.00488,-0.0244,0,0.03416,0.02928,0.0244,0.01464
0.05368,-0.06588,0.07808,0.05124,0.0244,0.01464,-0.0244,0,0.03416,0.0244,0.0244,0.00488
0.04392,-0.061,0.07808,0.05612,0.03416,0.00488,-0.03904,-0.00976,0.03416,0.02928,0.0244,0.01464
0.03904,-0.05368,0.06832,0.0488,0.02928,0.00488,-0.04392,-0.0244,0.01952,0.01952,0.0244,0.01464
0.03416,-0.04636,0.05856,0.04148,0.0244,0.00488,-0.04392,-0.02928,0.00488,0.00488,0.01464,0.00976
0.01952,-0.02928,0.03904,0.02928,0.01952,0,-0.0488,-0.02928,-0.00976,0.00976,0.00976,0
0.00976,-0.01708,0.0244,0.01952,0.01464,-0.00244,-0.03904,-0.0244,-0.01464,0,0,-0.00488
-0.00976,0.00488,0,0.00488,0.00976,-0.00976,-0.02928,-0.0244,-0.01952,-0.00976,0,-0.01952
-0.03904,0.02684,-0.01464,0.00488,0.0244,-0.03172,-0.0244,-0.02928,-0.00976,-0.01464,-0.00976,-0.02928
-0.03416,0.0366,-0.03904,-0.02196,-0.00488,-0.01464,-0.01952,-0.02928,-0.00488,-0.0244,-0.0244,-0.03416
-0.03904,0.04148,-0.04392,-0.0244,-0.00488,-0.01708,-0.01952,-0.0244,-0.01464,-0.02928,-0.03416,-0.03416
-0.03904,0.04148,-0.04392,-0.0244,-0.00488,-0.01708,-0.01952,-0.0244,-0.0244,-0.03904,-0.0488,-0.05368
-0.03904,0.04636,-0.05368,-0.03416,-0.01464,-0.0122,-0.01464,-0.0244,-0.0244,-0.0488,-0.0488,-0.06344
-0.05368,0.05856,-0.06344,-0.0366,-0.00976,-0.02196,-0.0244,-0.03904,-0.03904,-0.05856,-0.06344,-0.0732
-0.05856,0.06588,-0.0732,-0.04392,-0.01464,-0.02196,-0.0244,-0.0488,-0.05368,-0.0732,-0.08296,-0.08296
-0.0488,0.061,-0.0732,-0.0488,-0.0244,-0.0122,-0.01464,-0.05368,-0.05368,-0.0732,-0.07808,-0.09272
-0.0488,0.06344,-0.07808,-0.05368,-0.02928,-0.00976,-0.01464,-0.05368,-0.0488,-0.0732,-0.07808,-0.08784
-0.05368,0.061,-0.06832,-0.04148,-0.01464,-0.01952,-0.01464,-0.05368,-0.06344,-0.08296,-0.08784,-0.08784
-0.05368,0.061,-0.06832,-0.04148,-0.01464,-0.01952,-0.01464,-0.05856,-0.06832,-0.08296,-0.08784,-0.09272
-0.05368,0.06344,-0.0732,-0.04636,-0.01952,-0.01708,-0.01464,-0.05856,-0.06832,-0.08296,-0.09272,-0.08784
-0.06344,0.0732,-0.08296,-0.05124,-0.01952,-0.02196,-0.01464,-0.05856,-0.06832,-0.08296,-0.09272,-0.09272
-0.0732,0.08052,-0.08784,-0.05124,-0.01464,-0.02928,-0.01464,-0.05368,-0.06344,-0.08296,-0.08296,-0.09272
-0.0732,0.08052,-0.08784,-0.05124,-0.01464,-0.02928,-0.01464,-0.05368,-0.06344,-0.08296,-0.08784,-0.09272
-0.07808,0.08296,-0.08784,-0.0488,-0.00976,-0.03416,-0.01464,-0.05856,-0.06832,-0.08296,-0.09272,-0.09272
-0.06344,0.07564,-0.08784,-0.05612,-0.0244,-0.01952,-0.01464,-0.05856,-0.06832,-0.08784,-0.09272,-0.0976
-0.06344,0.07564,-0.08784,-0.05612,-0.0244,-0.01952,-0.01464,-0.06344,-0.07808,-0.09272,-0.09272,-0.0976
-0.06344,0.07564,-0.08784,-0.05612,-0.0244,-0.01952,-0.01464,-0.06344,-0.08296,-0.09272,-0.0976,-0.10248
-0.06344,0.07808,-0.09272,-0.061,-0.02928,-0.01708,-0.01464,-0.06344,-0.07808,-0.09272,-0.10248,-0.10248
-0.06344,0.07808,-0.09272,-0.061,-0.02928,-0.01708,-0.01464,-0.06832,-0.07808,-0.09272,-0.10248,-0.10248
-0.06832,0.08052,-0.09272,-0.05856,-0.0244,-0.02196,-0.01464,-0.0732,-0.07808,-0.10248,-0.0976,-0.10248
-0.0732,0.0854,-0.0976,-0.061,-0.0244,-0.0244,-0.01464,-0.07808,-0.07808,-0.10248,-0.0976,-0.10248
-0.06832,0.08296,-0.0976,-0.06344,-0.02928,-0.01952,-0.01464,-0.06832,-0.07808,-0.0976,-0.10248,-0.10736
-0.0732,0.0854,-0.0976,-0.061,-0.0244,-0.0244,-0.01464,-0.06832,-0.07808,-0.0976,-0.0976,-0.11224
-0.0732,0.08296,-0.09272,-0.05612,-0.01952,-0.02684,-0.00976,-0.06344,-0.06832,-0.09272,-0.0976,-0.10248
-0.0488,0.07076,-0.09272,-0.06832,-0.04392,-0.00244,-0.00976,-0.05856,-0.06832,-0.10248,-0.10736,-0.11224
-0.07808,0.10248,-0.12688,-0.08784,-0.0488,-0.01464,0.03416,0.00488,-0.04392,-0.10248,-0.11712,-0.12688
-0.10248,0.12932,-0.15616,-0.10492,-0.05368,-0.0244,0.0732,0.11224,0.01464,-0.10248,-0.1708,-0.18056
-0.10248,0.122,-0.14152,-0.09028,-0.03904,-0.03172,0.15128,0.25376,0.13664,-0.0488,-0.15128,-0.18544
-0.0976,0.0732,-0.0488,0,0.0488,-0.0732,0.1952,0.37088,0.29768,0.0976,-0.03904,-0.11712
-0.06344,-0.01464,0.09272,0.12444,0.15616,-0.1098,0.21472,0.49776,0.47824,0.33184,0.20008,0.04392
0.0488,-0.1708,0.2928,0.2684,0.244,-0.0976,0.23912,0.732,0.76128,0.67344,0.52216,0.27328
0.22448,-0.36844,0.5124,0.40016,0.28792,-0.03172,0.28792,1.0004,1.03944,1.0004,0.9272,0.55632
0.4148,-0.54412,0.67344,0.46604,0.25864,0.07808,0.28304,1.14192,1.24928,1.31272,1.31272,0.81984
0.54168,-0.63928,0.73688,0.46604,0.1952,0.17324,0.19032,1.05408,1.22,1.47864,1.55184,0.99064
0.67832,-0.77348,0.86864,0.52948,0.19032,0.244,-0.11712,0.49776,0.84912,1.464,1.708,1.20048
0.66856,-0.69052,0.71248,0.3782,0.04392,0.31232,-0.35136,-0.20008,0.2684,0.90768,1.23464,1.0004
0.5612,-0.4148,0.2684,-0.0122,-0.2928,0.427,-0.47824,-0.8296,-0.49776,-0.03416,0.34648,0.50752
0.38552,-0.22448,0.06344,-0.12932,-0.32208,0.3538,-0.60024,-1.35176,-1.1468,-0.64416,-0.12688,0.27328
0.25376,-0.10248,-0.0488,-0.17568,-0.30256,0.27816,-0.72224,-1.59576,-1.38592,-0.79056,-0.22936,0.20008
0.13664,-0.0488,-0.03904,-0.10736,-0.17568,0.15616,-0.72712,-1.51768,-1.28344,-0.71248,-0.2196,0.17568
0.07808,-0.01464,-0.0488,-0.08784,-0.12688,0.10248,-0.6344,-1.24928,-1.0492,-0.59536,-0.20984,0.09272
0.04392,-0.01464,-0.01464,-0.0366,-0.05856,0.05124,-0.48312,-0.90768,-0.7564,-0.4392,-0.16104,0.05856
-0.0244,0.00488,0.01464,0.02684,0.03904,-0.03172,-0.28792,-0.5612,-0.47824,-0.25864,-0.0976,0.04392
-0.01952,-0.00976,0.03904,0.0488,0.05856,-0.03904,-0.19032,-0.36112,-0.30256,-0.17568,-0.07808,0.02928
-0.02928,0.00976,0.00976,0.0244,0.03904,-0.03416,-0.14152,-0.27816,-0.24888,-0.16104,-0.07808,-0.01464
-0.03904,0.0244,-0.00976,0.00976,0.02928,-0.03416,-0.09272,-0.1952,-0.18544,-0.13664,-0.08296,-0.05856
-0.0732,0.06344,-0.05368,-0.01708,0.01952,-0.04636,-0.03904,-0.11712,-0.11224,-0.10736,-0.0732,-0.05856
-0.06832,0.061,-0.05368,-0.01952,0.01464,-0.04148,-0.02928,-0.08784,-0.10248,-0.10736,-0.08296,-0.06832
-0.06832,0.06588,-0.06344,-0.02928,0.00488,-0.0366,-0.02928,-0.10248,-0.10248,-0.11712,-0.09272,-0.0732
-0.06832,0.06344,-0.05856,-0.0244,0.00976,-0.03904,-0.03416,-0.10736,-0.10736,-0.12688,-0.0976,-0.07808
-0.08296,0.0732,-0.06344,-0.02196,0.01952,-0.05124,-0.01952,-0.08784,-0.0976,-0.11224,-0.10248,-0.08784
-0.08296,0.0732,-0.06344,-0.02196,0.01952,-0.05124,0,-0.05368,-0.08296,-0.09272,-0.10248,-0.08296
-0.0732,0.0732,-0.0732,-0.0366,0,-0.0366,-0.00488,-0.05856,-0.07808,-0.10248,-0.10248,-0.09272
-0.0732,0.07076,-0.06832,-0.03172,0.00488,-0.03904,-0.00976,-0.06832,-0.07808,-0.11224,-0.10248,-0.09272
-0.08296,0.07564,-0.06832,-0.02684,0.01464,-0.0488,-0.00488,-0.05856,-0.07808,-0.10248,-0.10248,-0.09272
-0.0976,0.08296,-0.06832,-0.01952,0.02928,-0.06344,0,-0.03904,-0.06344,-0.0976,-0.10248,-0.0976
-0.08296,0.0732,-0.06344,-0.02196,0.01952,-0.05124,-0.00488,-0.04392,-0.06344,-0.0976,-0.0976,-0.09272
-0.06832,0.06832,-0.06832,-0.03416,0,-0.03416,-0.00488,-0.04392,-0.06344,-0.10248,-0.0976,-0.08784
-0.06344,0.061,-0.05856,-0.02684,0.00488,-0.03416,-0.00488,-0.0488,-0.06344,-0.11224,-0.10248,-0.08784
-0.0732,0.06588,-0.05856,-0.02196,0.01464,-0.04392,-0.00488,-0.04392,-0.06344,-0.10736,-0.10248,-0.09272
-0.06832,0.06832,-0.06832,-0.03416,0,-0.03416,-0.00488,-0.03416,-0.05856,-0.0976,-0.09272,-0.09272
-0.06832,0.06588,-0.06344,-0.02928,0.00488,-0.0366,-0.00488,-0.03416,-0.05856,-0.09272,-0.08784,-0.08784
-0.06832,0.061,-0.05368,-0.01952,0.01464,-0.04148,0,-0.03416,-0.0488,-0.09272,-0.09272,-0.08296
-0.06832,0.05368,-0.03904,-0.00488,0.02928,-0.0488,0,-0.03416,-0.04392,-0.09272,-0.0976,-0.08784
-0.06832,0.05856,-0.0488,-0.01464,0.01952,-0.04392,0,-0.02928,-0.0488,-0.09272,-0.0976,-0.0976
-0.05856,0.0488,-0.03904,-0.00976,0.01952,-0.03904,0,-0.0244,-0.0488,-0.08784,-0.0976,-0.09272
-0.06832,0.05612,-0.04392,-0.00976,0.0244,-0.04636,-0.00976,-0.03416,-0.04392,-0.08784,-0.09272,-0.08296
-0.06344,0.05124,-0.03904,-0.00732,0.0244,-0.04392,-0.00976,-0.03416,-0.04392,-0.08296,-0.09272,-0.08296
-0.05368,0.04148,-0.02928,-0.00244,0.0244,-0.03904,-0.00488,-0.02928,-0.03904,-0.08296,-0.08784,-0.08296
-0.05856,0.0366,-0.01464,0.01464,0.04392,-0.05124,-0.00488,-0.03416,-0.03416,-0.08296,-0.08784,-0.08296
-0.05368,0.03416,-0.01464,0.0122,0.03904,-0.04636,0,-0.01952,-0.03416,-0.07808,-0.08296,-0.07808
-0.05368,0.03904,-0.0244,0.00244,0.02928,-0.04148,0,-0.00976,-0.03416,-0.0732,-0.08296,-0.07808
-0.05368,0.04148,-0.02928,-0.00244,0.0244,-0.03904,0,-0.00976,-0.03416,-0.0732,-0.08296,-0.07808
-0.0488,0.03172,-0.01464,0.00976,0.03416,-0.04148,0,-0.00488,-0.0244,-0.06832,-0.07808,-0.0732
-0.0488,0.02928,-0.00976,0.01464,0.03904,-0.04392,0,-0.00976,-0.0244,-0.06832,-0.07808,-0.0732
-0.0488,0.02684,-0.00488,0.01952,0.04392,-0.04636,0,-0.00488,-0.0244,-0.06344,-0.07808,-0.0732
-0.0488,0.02684,-0.00488,0.01952,0.04392,-0.04636,-0.00488,-0.00488,-0.01464,-0.05856,-0.06344,-0.0732
-0.05856,0.03172,-0.00488,0.0244,0.05368,-0.05612,0,0,-0.01464,-0.05368,-0.06344,-0.0732
-0.03904,0.02196,-0.00488,0.01464,0.03416,-0.0366,-0.00488,0.00488,-0.01464,-0.06344,-0.06832,-0.07808
-0.0488,0.02684,-0.00488,0.01952,0.04392,-0.04636,-0.00488,0.00976,-0.00976,-0.05856,-0.06832,-0.0732
-0.05856,0.02684,0.00488,0.03416,0.06344,-0.061,0,0.01952,-0.00488,-0.04392,-0.06344,-0.06344
-0.0488,0.0122,0.0244,0.0488,0.0732,-0.061,-0.00488,0.01952,0,-0.03904,-0.05856,-0.05856
-0.05856,0.01952,0.01952,0.0488,0.07808,-0.06832,0,0.0244,0.00488,-0.03416,-0.05368,-0.0488
-0.05856,0.01708,0.0244,0.05368,0.08296,-0.07076,0,0.03904,0.00488,-0.03416,-0.05368,-0.0488
-0.03904,0.00244,0.03416,0.05368,0.0732,-0.05612,-0.00976,0.04392,0.00976,-0.02928,-0.0488,-0.0488
-0.03904,0,0.03904,0.05856,0.07808,-0.05856,-0.00976,0.0488,0.01464,-0.0244,-0.04392,-0.03904
-0.03904,0,0.03904,0.05856,0.07808,-0.05856,-0.00488,0.05856,0.0244,-0.01464,-0.03416,-0.03416
-0.04392,-0.00244,0.0488,0.07076,0.09272,-0.06832,-0.00488,0.06344,0.0244,-0.01464,-0.02928,-0.02928
-0.04392,-0.00732,0.05856,0.08052,0.10248,-0.0732,-0.00488,0.05856,0.03416,-0.00976,-0.02928,-0.02928
-0.04392,-0.00244,0.0488,0.07076,0.09272,-0.06832,-0.00976,0.06344,0.04392,-0.00488,-0.0244,-0.01464
-0.03904,-0.00976,0.05856,0.07808,0.0976,-0.06832,-0.00976,0.08296,0.04392,0.00488,-0.01464,-0.00488
-0.03416,-0.01464,0.06344,0.08052,0.0976,-0.06588,-0.00488,0.08296,0.0488,0.00976,-0.01464,-0.00488
-0.03416,-0.01708,0.06832,0.0854,0.10248,-0.06832,-0.00976,0.08784,0.06344,0.00976,0,-0.00488
-0.04392,-0.01708,0.07808,0.10004,0.122,-0.08296,-0.01464,0.09272,0.0732,0.0244,0.00976,0.00488
-0.0244,-0.03172,0.08784,0.10004,0.11224,-0.06832,-0.01952,0.10248,0.07808,0.0244,0.00488,0.01952
-0.00488,-0.05124,0.10736,0.1098,0.11224,-0.05856,-0.01952,0.11712,0.07808,0.03904,0.01464,0.02928
0,-0.05612,0.11224,0.11224,0.11224,-0.05612,-0.01952,0.11224,0.07808,0.03904,0.01952,0.01952
-0.00488,-0.05368,0.11224,0.11468,0.11712,-0.061,-0.02928,0.10736,0.08784,0.0488,0.01952,0.0244
0,-0.061,0.122,0.122,0.122,-0.061,-0.02928,0.11712,0.09272,0.0488,0.0244,0.03904
0,-0.06344,0.12688,0.12688,0.12688,-0.06344,-0.02928,0.122,0.0976,0.05368,0.0244,0.04392
0.00976,-0.07564,0.14152,0.13664,0.13176,-0.061,-0.03416,0.11224,0.0976,0.05856,0.03416,0.05368
0.0244,-0.09028,0.15616,0.14396,0.13176,-0.05368,-0.03904,0.11224,0.0976,0.06832,0.03904,0.05856
0.0244,-0.0854,0.1464,0.1342,0.122,-0.0488,-0.03904,0.122,0.0976,0.0732,0.05856,0.05856
0.02928,-0.09272,0.15616,0.14152,0.12688,-0.0488,-0.03416,0.11712,0.10248,0.08784,0.0732,0.0732
0.02928,-0.0976,0.16592,0.15128,0.13664,-0.05368,-0.03904,0.11712,0.10736,0.09272,0.0732,0.0732
0.03416,-0.10004,0.16592,0.14884,0.13176,-0.0488,-0.03904,0.11712,0.11224,0.10248,0.08784,0.08784
0.05368,-0.11468,0.17568,0.14884,0.122,-0.03416,-0.0488,0.11224,0.10248,0.10248,0.09272,0.07808
0.0732,-0.12688,0.18056,0.14396,0.10736,-0.01708,-0.05856,0.11712,0.11712,0.11224,0.10736,0.09272
0.06344,-0.11468,0.16592,0.1342,0.10248,-0.01952,-0.0488,0.11224,0.11712,0.11712,0.10248,0.09272
0.05856,-0.11224,0.16592,0.13664,0.10736,-0.0244,-0.0488,0.10248,0.122,0.11224,0.10248,0.09272
0.06832,-0.11224,0.15616,0.122,0.08784,-0.00976,-0.04392,0.09272,0.11712,0.11224,0.10248,0.08784
0.06344,-0.10492,0.1464,0.11468,0.08296,-0.00976,-0.04392,0.08784,0.11712,0.10736,0.09272,0.07808
0.0488,-0.08784,0.12688,0.10248,0.07808,-0.01464,-0.03416,0.08296,0.09272,0.10248,0.08784,0.06344
0.0488,-0.08052,0.11224,0.08784,0.06344,-0.00732,-0.03416,0.0732,0.09272,0.08784,0.08296,0.05368
0.0244,-0.061,0.0976,0.0854,0.0732,-0.0244,-0.03416,0.06344,0.09272,0.09272,0.0732,0.05368
0.00976,-0.04148,0.0732,0.06832,0.06344,-0.02684,-0.03416,0.05368,0.08296,0.08296,0.05368,0.03904
0.01464,-0.03904,0.06344,0.05612,0.0488,-0.01708,-0.0244,0.05368,0.0732,0.06344,0.04392,0.02928
0.00976,-0.03172,0.05368,0.0488,0.04392,-0.01708,-0.01952,0.0488,0.06344,0.0488,0.02928,0.01464
0,-0.02684,0.05368,0.05368,0.05368,-0.02684,-0.01952,0.02928,0.04392,0.03904,0.01952,0
-0.00976,-0.01708,0.04392,0.0488,0.05368,-0.03172,-0.01464,0.0244,0.03904,0.0244,0.00976,-0.00488
0,-0.01708,0.03416,0.03416,0.03416,-0.01708,-0.01464,0.01952,0.03904,0.00976,0.00488,-0.01464
0,-0.01708,0.03416,0.03416,0.03416,-0.01708,-0.01464,0.00976,0.02928,0,-0.00488,-0.0244
-0.0244,0.00488,0.01464,0.02684,0.03904,-0.03172,-0.00976,0.01464,0.0244,0.00976,-0.00976,-0.01464
-0.01952,0.00732,0.00488,0.01464,0.0244,-0.02196,-0.00976,0.01464,0.01952,0.00488,-0.01464,-0.01464
-0.00976,0.00732,-0.00488,0,0.00488,-0.00732,-0.00976,-0.00488,0.00976,-0.00488,-0.01952,-0.0244
-0.00976,0,0.00976,0.01464,0.01952,-0.01464,-0.00976,0,0.00488,-0.01464,-0.0244,-0.0244
-0.00976,-0.00732,0.0244,0.02928,0.03416,-0.02196,-0.00488,-0.00488,0.01464,-0.00976,-0.0244,-0.02928
-0.01464,-0.00244,0.01952,0.02684,0.03416,-0.0244,0,-0.00488,0.01464,-0.00488,-0.0244,-0.02928
-0.01464,0,0.01464,0.02196,0.02928,-0.02196,-0.00976,0,0.00488,-0.01952,-0.02928,-0.02928
-0.01464,0.00488,0.00488,0.0122,0.01952,-0.01708,-0.00976,0,0,-0.0244,-0.02928,-0.02928
-0.00488,-0.00488,0.01464,0.01708,0.01952,-0.0122,-0.01952,0,0.00488,-0.01952,-0.03904,-0.03416
0.01464,-0.01952,0.0244,0.01708,0.00976,0.00244,-0.01464,-0.00488,0,-0.01952,-0.03904,-0.04392
0.00488,-0.00976,0.01464,0.0122,0.00976,-0.00244,-0.01464,-0.00488,0,-0.01952,-0.02928,-0.03416
-0.00488,-0.00732,0.01952,0.02196,0.0244,-0.01464,-0.01464,-0.00488,0,-0.01952,-0.0244,-0.03416
-0.00488,-0.00976,0.0244,0.02684,0.02928,-0.01708,-0.01952,-0.01464,0,-0.0244,-0.02928,-0.03416
0.00976,-0.01708,0.0244,0.01952,0.01464,-0.00244,-0.01464,-0.01464,0,-0.0244,-0.02928,-0.03416
0.00976,-0.01952,0.02928,0.0244,0.01952,-0.00488,-0.00488,-0.00488,0,-0.00976,-0.01952,-0.0244
0.00976,-0.01952,0.02928,0.0244,0.01952,-0.00488,-0.00488,-0.00488,0,-0.00976,-0.00976,-0.01952
0.00976,-0.02196,0.03416,0.02928,0.0244,-0.00732,0,0,0.00976,-0.01464,-0.01464,-0.00976
0.00976,-0.02196,0.03416,0.02928,0.0244,-0.00732,0.00488,0,0.00488,-0.00976,-0.01464,-0.00976
0.01952,-0.03172,0.04392,0.03416,0.0244,-0.00244,-0.00976,-0.00488,0.00488,-0.01952,-0.0244,-0.01952
0.01952,-0.03172,0.04392,0.03416,0.0244,-0.00244,-0.00976,-0.00488,0.00488,-0.01952,-0.01952,-0.01952
0.01464,-0.03416,0.05368,0.04636,0.03904,-0.0122,-0.00976,0,0.00976,-0.00488,-0.01952,-0.01952
0.01464,-0.02684,0.03904,0.03172,0.0244,-0.00488,-0.00976,0.00488,0.00488,-0.00976,-0.01952,-0.01952
0.0244,-0.0366,0.0488,0.0366,0.0244,0,-0.00976,-0.00488,-0.00488,-0.00976,-0.01952,-0.01952
0.02928,-0.04148,0.05368,0.03904,0.0244,0.00244,-0.00976,0,0,-0.00976,-0.01952,-0.01952
0.0244,-0.03904,0.05368,0.04148,0.02928,-0.00244,-0.00488,-0.00488,0.00488,-0.00488,-0.01952,-0.01464
0.0244,-0.04148,0.05856,0.04636,0.03416,-0.00488,0,-0.00488,0.00976,-0.00488,-0.0244,-0.01952
0.03416,-0.04392,0.05368,0.0366,0.01952,0.00732,0.00488,0,0.00976,-0.01464,-0.0244,-0.00488
0.0244,-0.0366,0.0488,0.0366,0.0244,0,0.00488,0,0.00976,-0.00976,-0.01952,-0.00488
0.03416,-0.04148,0.0488,0.03172,0.01464,0.00976,0,0.00488,0.00976,0,-0.01952,-0.01464
0.01952,-0.0366,0.05368,0.04392,0.03416,-0.00732,-0.00488,0.00488,0.00976,0,-0.01952,-0.00976
0.02928,-0.04392,0.05856,0.04392,0.02928,0,0,0.00488,0.00976,0,-0.01464,-0.01464
0.02928,-0.04392,0.05856,0.04392,0.02928,0,0,0,0.00976,0,-0.01952,-0.01464
0.04392,-0.05612,0.06832,0.04636,0.0244,0.00976,0,0,0.00488,-0.01464,-0.01952,-0.01464
0.0488,-0.05856,0.06832,0.04392,0.01952,0.01464,0,0,0,-0.01464,-0.01952,-0.01464
0.03416,-0.04636,0.05856,0.04148,0.0244,0.00488,0.00976,0.00976,0.00976,0,-0.01464,-0.01464
0.0244,-0.0366,0.0488,0.0366,0.0244,0,0.00976,0.00488,0.01952,0,-0.01952,-0.0244
0.01952,-0.0366,0.05368,0.04392,0.03416,-0.00732,0,0.00488,0.00976,-0.00488,-0.01952,-0.00488
0.02928,-0.04148,0.05368,0.03904,0.0244,0.00244,0.00488,0.00488,0.00976,-0.00976,-0.01952,-0.00976
0.02928,-0.04148,0.05368,0.03904,0.0244,0.00244,0.00488,0.00976,0.00976,-0.00488,-0.01952,-0.01952
0.03416,-0.04392,0.05368,0.0366,0.01952,0.00732,0.00488,0.00976,0.00976,-0.00488,-0.0244,-0.01952
0.03416,-0.04148,0.0488,0.03172,0.01464,0.00976,0.00488,0,0.00976,-0.01464,-0.0244,-0.01464
0.03416,-0.03904,0.04392,0.02684,0.00976,0.0122,0,-0.00488,0,-0.0244,-0.03416,-0.01952
0.03416,-0.04392,0.05368,0.0366,0.01952,0.00732,0.00488,-0.00488,0,-0.0244,-0.02928,-0.02928
0.03416,-0.03904,0.04392,0.02684,0.00976,0.0122,0,-0.00488,0,-0.02928,-0.03416,-0.02928
0.03416,-0.03904,0.04392,0.02684,0.00976,0.0122,0,0,0,-0.0244,-0.03416,-0.03416
0.03416,-0.03904,0.04392,0.02684,0.00976,0.0122,0,0,-0.00488,-0.0244,-0.03416,-0.03416
0.02928,-0.03416,0.03904,0.0244,0.00976,0.00976,0,0,-0.00488,-0.02928,-0.0488,-0.03904
0.02928,-0.03416,0.03904,0.0244,0.00976,0.00976,0,0,-0.00488,-0.03904,-0.0488,-0.0488
0.02928,-0.03172,0.03416,0.01952,0.00488,0.0122,0,-0.00488,-0.00976,-0.03904,-0.04392,-0.03904
0.02928,-0.03172,0.03416,0.01952,0.00488,0.0122,0.00488,-0.00488,-0.00976,-0.03904,-0.04392,-0.03904
0.03416,-0.03416,0.03416,0.01708,0,0.01708,0.01464,-0.00488,-0.00976,-0.03904,-0.04392,-0.03904
0.03416,-0.03416,0.03416,0.01708,0,0.01708,0.00976,-0.00488,-0.00976,-0.03904,-0.0488,-0.03904
0.02928,-0.03172,0.03416,0.01952,0.00488,0.0122,0.00976,-0.00488,-0.01464,-0.03904,-0.05856,-0.04392
0.02928,-0.03172,0.03416,0.01952,0.00488,0.0122,0.00488,-0.00488,-0.01464,-0.0488,-0.05856,-0.04392
0.04392,-0.03904,0.03416,0.0122,-0.00976,0.02684,0.00488,-0.00976,-0.00976,-0.0488,-0.05856,-0.04392
0.04392,-0.03904,0.03416,0.0122,-0.00976,0.02684,0.00976,-0.00976,-0.00976,-0.0488,-0.05856,-0.04392
0.03904,-0.03904,0.03904,0.01952,0,0.01952,0.01952,0,-0.00488,-0.03416,-0.0488,-0.03416
0.03904,-0.03904,0.03904,0.01952,0,0.01952,0.0244,0,-0.00488,-0.03904,-0.0488,-0.03416
0.03904,-0.03904,0.03904,0.01952,0,0.01952,0.01464,0,-0.00976,-0.03904,-0.05368,-0.0488
0.04392,-0.04148,0.03904,0.01708,-0.00488,0.0244,0.01464,0.00488,-0.00488,-0.03904,-0.05368,-0.04392
0.03416,-0.0366,0.03904,0.02196,0.00488,0.01464,0.01952,0.00488,-0.00488,-0.03904,-0.05856,-0.04392
0.04392,-0.04148,0.03904,0.01708,-0.00488,0.0244,0.0244,0.00488,-0.00488,-0.03904,-0.05368,-0.04392
0.03904,-0.04148,0.04392,0.0244,0.00488,0.01708,0.0244,0,-0.00488,-0.04392,-0.05368,-0.03904
0.0488,-0.0488,0.0488,0.0244,0,0.0244,0.0244,0,-0.00976,-0.04392,-0.05368,-0.03904
0.03904,-0.03416,0.02928,0.00976,-0.00976,0.0244,0.01464,0.00488,-0.00976,-0.04392,-0.06344,-0.03416
0.04392,-0.04148,0.03904,0.01708,-0.00488,0.0244,0.01464,0.00488,-0.00976,-0.04392,-0.06832,-0.03416
0.04392,-0.04148,0.03904,0.01708,-0.00488,0.0244,0.01464,0,-0.01952,-0.0488,-0.05856,-0.04392
0.04392,-0.04392,0.04392,0.02196,0,0.02196,0.01464,0,-0.01952,-0.03904,-0.0488,-0.04392
0.0488,-0.04392,0.03904,0.01464,-0.00976,0.02928,0.0244,0.00976,-0.00976,-0.03904,-0.05856,-0.04392
0.05856,-0.05612,0.05368,0.0244,-0.00488,0.03172,0.0244,0.01464,-0.00976,-0.03904,-0.05856,-0.0488
0.05368,-0.0488,0.04392,0.01708,-0.00976,0.03172,0.0244,0.00488,-0.00976,-0.05368,-0.05856,-0.03904
0.06344,-0.05612,0.0488,0.01708,-0.01464,0.03904,0.0244,-0.00488,-0.00976,-0.0488,-0.05856,-0.04392
0.06344,-0.05612,0.0488,0.01708,-0.01464,0.03904,0.03416,0.00488,-0.00488,-0.03904,-0.05368,-0.03904
0.0488,-0.0488,0.0488,0.0244,0,0.0244,0.03416,0.00488,-0.00976,-0.03904,-0.0488,-0.03904
0.05368,-0.05124,0.0488,0.02196,-0.00488,0.02928,0.03416,0.01464,-0.00488,-0.03416,-0.05368,-0.03904
0.06344,-0.04636,0.02928,-0.00244,-0.03416,0.0488,0.02928,0.01464,-0.00976,-0.03904,-0.05368,-0.03904
0.06344,-0.06344,0.06344,0.03172,0,0.03172,0.03904,0.01464,0,-0.03904,-0.0488,-0.03904
0.06832,-0.0732,0.07808,0.04392,0.00976,0.02928,0.0488,0.03904,0.01952,-0.01952,-0.03904,-0.01952
0.06832,-0.0732,0.07808,0.04392,0.00976,0.02928,0.0488,0.03904,0.01952,-0.01952,-0.03904,-0.01952
0.07808,-0.08052,0.08296,0.04392,0.00488,0.0366,0.05856,0.02928,0.0244,-0.00976,-0.03904,-0.01952
0.07808,-0.0854,0.09272,0.05368,0.01464,0.03172,0.06832,0.02928,0.0244,-0.00488,-0.03904,-0.01952
0.07808,-0.09028,0.10248,0.06344,0.0244,0.02684,0.06832,0.03904,0.0244,-0.00488,-0.03904,-0.01952
0.06344,-0.0854,0.10736,0.07564,0.04392,0.00976,0.06344,0.03904,0.02928,-0.00488,-0.03416,-0.01464
0.0732,-0.10248,0.13176,0.09516,0.05856,0.00732,0.05368,0.04392,0.02928,0.00488,-0.0244,-0.00976
0.07808,-0.10492,0.13176,0.09272,0.05368,0.0122,0.02928,0.02928,0.02928,0.00976,-0.0244,-0.00488
0.10248,-0.11956,0.13664,0.0854,0.03416,0.03416,0.01952,0.0244,0.03416,0,-0.00976,-0.00976
0.11712,-0.12932,0.14152,0.08296,0.0244,0.04636,0.01464,0.0244,0.03416,0.00488,-0.00488,0
0.12688,-0.14396,0.16104,0.0976,0.03416,0.04636,0.00976,0.03904,0.04392,0.0244,0.00976,0.01952
0.13664,-0.16836,0.20008,0.13176,0.06344,0.0366,0.01464,0.0488,0.06344,0.03904,0.0244,0.03416
0.15128,-0.17324,0.1952,0.11956,0.04392,0.05368,0.01952,0.04392,0.06344,0.04392,0.0244,0.03416
0.14152,-0.16836,0.1952,0.12444,0.05368,0.04392,0.01464,0.04392,0.06344,0.0488,0.0244,0.04392
0.13664,-0.16592,0.1952,0.12688,0.05856,0.03904,-0.00488,0.03416,0.06832,0.05856,0.03416,0.04392
0.13176,-0.1586,0.18544,0.11956,0.05368,0.03904,-0.00488,0.02928,0.05368,0.04392,0.0244,0.03904
0.12688,-0.1464,0.16592,0.10248,0.03904,0.04392,-0.00976,0.01952,0.03904,0.02928,0.01952,0.03904
0.11712,-0.1342,0.15128,0.09272,0.03416,0.04148,0,0.0244,0.03416,0.01952,0.00976,0.03416
0.11712,-0.11224,0.10736,0.0488,-0.00976,0.06344,0.00976,0.0244,0.01464,0,-0.00976,0.00976
0.08784,-0.09028,0.09272,0.0488,0.00488,0.04148,0.01464,0.01952,0.01464,-0.00488,-0.01952,0
0.08296,-0.08296,0.08296,0.04148,0,0.04148,0.02928,0.03904,0.02928,0.00488,-0.0244,-0.00488
0.07808,-0.08296,0.08784,0.0488,0.00976,0.03416,0.02928,0.04392,0.02928,0,-0.03416,-0.00488
0.07808,-0.07808,0.07808,0.03904,0,0.03904,0.02928,0.03416,0.0244,-0.01952,-0.03904,-0.01464
0.07808,-0.06832,0.05856,0.01952,-0.01952,0.0488,0.03416,0.03416,0.0244,-0.02928,-0.03904,-0.0244
0.06344,-0.05856,0.05368,0.02196,-0.00976,0.0366,0.03416,0.01952,0.00976,-0.02928,-0.04392,-0.03416
0.05856,-0.05124,0.04392,0.01464,-0.01464,0.0366,0.03416,0.00976,-0.00488,-0.04392,-0.06344,-0.04392
0.06832,-0.05124,0.03416,0,-0.03416,0.05124,0.03416,0.01464,-0.0244,-0.05368,-0.06832,-0.05368
0.06832,-0.0488,0.02928,-0.00488,-0.03904,0.05368,0.03416,0.01464,-0.01952,-0.05368,-0.06832,-0.0488
0.05368,-0.04148,0.02928,0.00244,-0.0244,0.03904,0.03416,0.00488,-0.0244,-0.05368,-0.07808,-0.0488
0.05368,-0.04148,0.02928,0.00244,-0.0244,0.03904,0.03416,0,-0.02928,-0.05368,-0.07808,-0.05368
0.05368,-0.0366,0.01952,-0.00732,-0.03416,0.04392,0.03416,0,-0.01952,-0.06344,-0.08296,-0.05856
0.04392,-0.03172,0.01952,-0.00244,-0.0244,0.03416,0.03416,0,-0.01952,-0.06344,-0.08296,-0.06344
0.05368,-0.03172,0.00976,-0.01708,-0.04392,0.0488,0.04392,-0.00488,-0.0244,-0.06344,-0.0732,-0.06344
0.05368,-0.03172,0.00976,-0.01708,-0.04392,0.0488,0.04392,-0.00488,-0.0244,-0.06344,-0.07808,-0.06344
0.04392,-0.02684,0.00976,-0.0122,-0.03416,0.03904,0.03416,-0.00976,-0.02928,-0.0732,-0.09272,-0.06344
0.0488,-0.02928,0.00976,-0.01464,-0.03904,0.04392,0.03416,-0.00976,-0.02928,-0.07808,-0.09272,-0.06832
0.05368,-0.0366,0.01952,-0.00732,-0.03416,0.04392,0.04392,-0.00488,-0.02928,-0.08296,-0.09272,-0.06832
0.05368,-0.0366,0.01952,-0.00732,-0.03416,0.04392,0.04392,-0.00488,-0.03416,-0.08296,-0.0976,-0.0732
0.05368,-0.03416,0.01464,-0.0122,-0.03904,0.04636,0.03416,-0.00488,-0.03904,-0.0732,-0.10248,-0.0732
0.05368,-0.03416,0.01464,-0.0122,-0.03904,0.04636,0.03416,-0.00976,-0.03904,-0.0732,-0.10248,-0.0732
0.05856,-0.0366,0.01464,-0.01464,-0.04392,0.05124,0.03416,-0.01464,-0.0488,-0.08296,-0.0976,-0.0732
0.05368,-0.03172,0.00976,-0.01708,-0.04392,0.0488,0.03416,-0.01952,-0.0488,-0.08296,-0.0976,-0.0732
0.05368,-0.02684,0,-0.02684,-0.05368,0.05368,0.03904,-0.01464,-0.04392,-0.08296,-0.09272,-0.05856
0.03904,-0.01952,0,-0.01952,-0.03904,0.03904,0.0488,-0.00488,-0.03416,-0.0732,-0.08784,-0.06344
0.04392,-0.0244,0.00488,-0.01708,-0.03904,0.04148,0.0488,-0.00488,-0.03904,-0.0732,-0.08784,-0.06344
0.0488,-0.02684,0.00488,-0.01952,-0.04392,0.04636,0.0488,-0.00976,-0.03904,-0.0732,-0.0976,-0.06344
0.05856,-0.02928,0,-0.02928,-0.05856,0.05856,0.05368,0.0244,-0.03416,-0.08296,-0.0976,-0.07808
0.04392,-0.00244,-0.03904,-0.061,-0.08296,0.06344,0.10248,0.122,0.01464,-0.08296,-0.14152,-0.11224
0.0244,0.01952,-0.06344,-0.07564,-0.08784,0.05612,0.1708,0.23424,0.10736,-0.06832,-0.1708,-0.15616
0.01952,0,-0.01952,-0.02928,-0.03904,0.02928,0.244,0.38064,0.25864,0.02928,-0.11712,-0.1464
0.03416,-0.05856,0.08296,0.06588,0.0488,-0.00732,0.244,0.44896,0.40016,0.1952,0.04392,-0.03416
0.12688,-0.20008,0.27328,0.20984,0.1464,-0.00976,0.23912,0.59536,0.59536,0.47824,0.3172,0.15616
0.22448,-0.36356,0.50264,0.3904,0.27816,-0.02684,0.2684,0.84424,0.9028,0.86376,0.72224,0.4392
0.43432,-0.56852,0.70272,0.48556,0.2684,0.08296,0.30256,1.0736,1.16144,1.21512,1.17608,0.75152
0.53192,-0.69296,0.854,0.58804,0.32208,0.10492,0.32696,1.19072,1.37616,1.5372,1.54208,1.01016
0.64904,-0.80276,0.95648,0.63196,0.30744,0.1708,0.20496,0.98576,1.23952,1.6592,1.78608,1.19072
0.7076,-0.87596,1.04432,0.69052,0.33672,0.18544,-0.08784,0.28792,0.74664,1.48352,1.77144,1.2932
0.63928,-0.68808,0.73688,0.41724,0.0976,0.27084,-0.20496,-0.25376,0.16592,0.7564,1.02968,0.91744
0.5124,-0.43432,0.35624,0.10004,-0.15616,0.33428,-0.366,-0.88328,-0.64904,-0.20496,0.17568,0.488
0.35136,-0.28792,0.22448,0.0488,-0.12688,0.23912,-0.45872,-1.25416,-1.10288,-0.61488,-0.11224,0.34648
0.26352,-0.18056,0.0976,-0.03416,-0.16592,0.21472,-0.55144,-1.42008,-1.26392,-0.70272,-0.20008,0.244
0.1464,-0.11224,0.07808,0.00488,-0.06832,0.10736,-0.54656,-1.2688,-1.12728,-0.6344,-0.20984,0.15128
0.14152,-0.0976,0.05368,-0.01708,-0.08784,0.11468,-0.48312,-1.0248,-0.92232,-0.55632,-0.2196,0.06832
0.08296,-0.07808,0.0732,0.03172,-0.00976,0.04636,-0.32696,-0.7076,-0.6344,-0.38552,-0.17568,0.05368
0.08784,-0.10248,0.11712,0.0732,0.02928,0.02928,-0.16104,-0.40016,-0.38064,-0.22448,-0.11712,0.03904
0.07808,-0.0976,0.11712,0.07808,0.03904,0.01952,-0.09272,-0.25864,-0.24888,-0.1708,-0.0976,0.01464
0.08784,-0.0976,0.10736,0.06344,0.01952,0.03416,-0.06344,-0.18544,-0.18544,-0.15616,-0.09272,0
0.06344,-0.06832,0.0732,0.04148,0.00976,0.02684,-0.01952,-0.0976,-0.122,-0.11712,-0.09272,-0.00976
0.06832,-0.05612,0.04392,0.00976,-0.0244,0.04636,0.02928,-0.03904,-0.06344,-0.08784,-0.09272,-0.02928
0.06832,-0.05612,0.04392,0.00976,-0.0244,0.04636,0.03904,-0.03416,-0.05368,-0.08784,-0.09272,-0.03416
0.06832,-0.05856,0.0488,0.01464,-0.01952,0.04392,0.03416,-0.02928,-0.05856,-0.0976,-0.0976,-0.03904
0.05368,-0.0488,0.04392,0.01708,-0.00976,0.03172,0.02928,-0.02928,-0.05856,-0.10248,-0.10248,-0.0488
0.05368,-0.0488,0.04392,0.01708,-0.00976,0.03172,0.0488,-0.00488,-0.05368,-0.09272,-0.10248,-0.04392
0.05368,-0.04392,0.03416,0.00732,-0.01952,0.0366,0.05368,0,-0.0488,-0.09272,-0.10248,-0.05368
0.05368,-0.04636,0.03904,0.0122,-0.01464,0.03416,0.0488,0,-0.0488,-0.09272,-0.10248,-0.05368
0.06344,-0.05124,0.03904,0.00732,-0.0244,0.04392,0.05368,0,-0.03904,-0.09272,-0.10248,-0.05368
0.0488,-0.04392,0.03904,0.01464,-0.00976,0.02928,0.05856,0.00976,-0.0244,-0.08784,-0.10248,-0.05856
0.06344,-0.05856,0.05368,0.02196,-0.00976,0.0366,0.06344,0.01464,-0.0244,-0.08784,-0.0976,-0.05368
0.07808,-0.06344,0.0488,0.00976,-0.02928,0.05368,0.06344,0.01464,-0.0244,-0.09272,-0.0976,-0.0488
0.0732,-0.06588,0.05856,0.02196,-0.01464,0.04392,0.05368,0.01952,-0.0244,-0.08296,-0.10248,-0.0488
0.06344,-0.061,0.05856,0.02684,-0.00488,0.03416,0.05368,0.0244,-0.0244,-0.07808,-0.10248,-0.05368
0.06832,-0.05856,0.0488,0.01464,-0.01952,0.04392,0.05368,0.0244,-0.02928,-0.08784,-0.10248,-0.05368
0.06832,-0.061,0.05368,0.01952,-0.01464,0.04148,0.05368,0.0244,-0.02928,-0.08296,-0.0976,-0.0488
0.05856,-0.05612,0.05368,0.0244,-0.00488,0.03172,0.0488,0.01464,-0.01952,-0.08296,-0.09272,-0.05368
0.05856,-0.05856,0.05856,0.02928,0,0.02928,0.0488,0.01464,-0.01464,-0.08296,-0.0976,-0.05856
0.0488,-0.0488,0.0488,0.0244,0,0.0244,0.05856,0.02928,-0.01952,-0.0732,-0.0976,-0.05856
0.05856,-0.05856,0.05856,0.02928,0,0.02928,0.05856,0.03416,-0.01952,-0.06832,-0.0976,-0.05368
0.05856,-0.061,0.06344,0.03416,0.00488,0.02684,0.0488,0.0244,-0.01464,-0.06832,-0.08296,-0.05368
0.06344,-0.06588,0.06832,0.0366,0.00488,0.02928,0.0488,0.0244,-0.01464,-0.06344,-0.08296,-0.05368
0.06344,-0.06588,0.06832,0.0366,0.00488,0.02928,0.05368,0.03904,0,-0.06344,-0.07808,-0.04392
0.05856,-0.06588,0.0732,0.04392,0.01464,0.02196,0.05368,0.03416,0.00488,-0.06344,-0.07808,-0.04392
0.05368,-0.05856,0.06344,0.0366,0.00976,0.02196,0.0488,0.03904,-0.00488,-0.05856,-0.0732,-0.0488
0.05368,-0.05368,0.05368,0.02684,0,0.02684,0.0488,0.03904,-0.00488,-0.05368,-0.0732,-0.0488
0.04392,-0.05124,0.05856,0.0366,0.01464,0.01464,0.0488,0.0488,0.00488,-0.05368,-0.0732,-0.0488
0.0488,-0.061,0.0732,0.0488,0.0244,0.0122,0.0488,0.05368,0.01464,-0.0488,-0.06832,-0.04392
0.05856,-0.06344,0.06832,0.03904,0.00976,0.0244,0.0488,0.0488,0.00488,-0.0488,-0.07808,-0.03416
0.05856,-0.06588,0.0732,0.04392,0.01464,0.02196,0.0488,0.05368,0.00488,-0.04392,-0.07808,-0.03416
0.06832,-0.07564,0.08296,0.0488,0.01464,0.02684,0.05368,0.05368,0.01464,-0.03904,-0.06344,-0.03416
0.05856,-0.07076,0.08296,0.05368,0.0244,0.01708,0.05856,0.05856,0.01464,-0.03416,-0.06344,-0.03416
0.05856,-0.07076,0.08296,0.05368,0.0244,0.01708,0.05368,0.06344,0.01464,-0.04392,-0.06832,-0.02928
0.0488,-0.06588,0.08296,0.05856,0.03416,0.00732,0.05368,0.06832,0.01952,-0.03904,-0.06832,-0.0244
0.0488,-0.06588,0.08296,0.05856,0.03416,0.00732,0.0488,0.06832,0.0244,-0.04392,-0.0732,-0.0244
0.05856,-0.07564,0.09272,0.06344,0.03416,0.0122,0.04392,0.06832,0.02928,-0.03904,-0.06832,-0.01952
0.05856,-0.07808,0.0976,0.06832,0.03904,0.00976,0.03904,0.0732,0.03416,-0.03416,-0.05368,-0.01952
0.05856,-0.08052,0.10248,0.0732,0.04392,0.00732,0.03904,0.08784,0.03416,-0.03416,-0.05368,-0.01952
0.05856,-0.08052,0.10248,0.0732,0.04392,0.00732,0.03904,0.09272,0.03904,-0.02928,-0.03904,-0.00976
0.05856,-0.08296,0.10736,0.07808,0.0488,0.00488,0.03904,0.0976,0.04392,-0.0244,-0.03416,0
0.07808,-0.10248,0.12688,0.08784,0.0488,0.01464,0.04392,0.0976,0.05368,-0.00488,-0.0244,0.01464
0.0732,-0.1098,0.1464,0.1098,0.0732,0,0.04392,0.10248,0.05368,-0.00488,-0.01952,0.01952
0.06344,-0.10004,0.13664,0.10492,0.0732,-0.00488,0.03416,0.11712,0.06344,0,-0.02928,0.00976
0.06344,-0.09028,0.11712,0.0854,0.05368,0.00488,0.02928,0.122,0.0732,0.00488,-0.0244,0.01464
0.07808,-0.11224,0.1464,0.10736,0.06832,0.00488,0.01952,0.122,0.0732,0.00488,-0.00488,0.0244
0.08296,-0.122,0.16104,0.11956,0.07808,0.00244,0.0244,0.122,0.07808,0.00976,-0.00488,0.0244
0.08296,-0.12444,0.16592,0.12444,0.08296,0,0.01952,0.13664,0.08296,0.00976,-0.00976,0.03416
0.0732,-0.11956,0.16592,0.12932,0.09272,-0.00976,0.01464,0.14152,0.09272,0.0244,0,0.04392
0.09272,-0.12444,0.15616,0.1098,0.06344,0.01464,0.00976,0.13176,0.08784,0.01464,-0.00488,0.03904
0.10248,-0.1342,0.16592,0.11468,0.06344,0.01952,0.00976,0.13664,0.08784,0.01952,0.00488,0.0488
0.0976,-0.14396,0.19032,0.14152,0.09272,0.00244,0.00976,0.15128,0.08784,0.02928,0.00976,0.0488
0.09272,-0.14152,0.19032,0.14396,0.0976,-0.00244,0,0.15616,0.0976,0.03904,0.00976,0.05368
0.08784,-0.13908,0.19032,0.1464,0.10248,-0.00732,0,0.1464,0.09272,0.0488,0.01464,0.0488
0.08784,-0.13664,0.18544,0.14152,0.0976,-0.00488,0,0.15128,0.0976,0.05368,0.01464,0.05368
0.0976,-0.14396,0.19032,0.14152,0.09272,0.00244,-0.00488,0.15128,0.0976,0.0488,0.0244,0.06344
0.122,-0.16348,0.20496,0.14396,0.08296,0.01952,-0.00976,0.15128,0.0976,0.05856,0.02928,0.06832
0.122,-0.16348,0.20496,0.14396,0.08296,0.01952,-0.00976,0.15128,0.10736,0.06344,0.0488,0.07808
0.12688,-0.1708,0.21472,0.15128,0.08784,0.01952,0.00488,0.1464,0.122,0.07808,0.06344,0.09272
0.13664,-0.18056,0.22448,0.15616,0.08784,0.0244,-0.00976,0.1464,0.11712,0.0732,0.05368,0.09272
0.14152,-0.183,0.22448,0.15372,0.08296,0.02928,-0.01952,0.1464,0.11224,0.08296,0.06832,0.10736
0.14152,-0.18788,0.23424,0.16348,0.09272,0.0244,-0.01952,0.14152,0.11224,0.10248,0.08296,0.10736
0.15128,-0.1952,0.23912,0.16348,0.08784,0.03172,-0.02928,0.1464,0.12688,0.11224,0.0976,0.122
0.14152,-0.183,0.22448,0.15372,0.08296,0.02928,-0.02928,0.13176,0.12688,0.11712,0.10248,0.11224
0.13664,-0.18056,0.22448,0.15616,0.08784,0.0244,-0.02928,0.122,0.13176,0.11224,0.10248,0.11224
0.1464,-0.18544,0.22448,0.15128,0.07808,0.03416,-0.0244,0.13176,0.12688,0.11224,0.11224,0.11712
0.14152,-0.17812,0.21472,0.14396,0.0732,0.03416,-0.0244,0.12688,0.12688,0.10736,0.10248,0.10736
0.12688,-0.1708,0.21472,0.15128,0.08784,0.01952,-0.00488,0.122,0.122,0.11224,0.10736,0.10248
0.12688,-0.16348,0.20008,0.13664,0.0732,0.02684,-0.00488,0.11224,0.13176,0.10736,0.10248,0.09272
0.11224,-0.14884,0.18544,0.12932,0.0732,0.01952,0.01464,0.11224,0.122,0.10248,0.09272,0.08296
0.0976,-0.12932,0.16104,0.11224,0.06344,0.01708,0.01464,0.10248,0.11224,0.09272,0.0732,0.06832
0.10248,-0.12688,0.15128,0.10004,0.0488,0.02684,0.0244,0.10248,0.10248,0.08296,0.06344,0.05856
0.0976,-0.11956,0.14152,0.09272,0.04392,0.02684,0.02928,0.0976,0.09272,0.06832,0.0488,0.04392
0.08784,-0.1098,0.13176,0.08784,0.04392,0.02196,0.02928,0.08784,0.08296,0.05856,0.02928,0.03904
0.07808,-0.10004,0.122,0.08296,0.04392,0.01708,0.03416,0.08296,0.07808,0.04392,0.01952,0.03416
0.08784,-0.10004,0.11224,0.06832,0.0244,0.03172,0.0244,0.07808,0.06832,0.02928,0.00488,0.01464
0.08784,-0.10004,0.11224,0.06832,0.0244,0.03172,0.0244,0.06832,0.05856,0.01952,-0.00488,0.00488
0.06344,-0.08296,0.10248,0.07076,0.03904,0.0122,0.02928,0.06344,0.05368,0.01952,0,0.00488
0.06832,-0.08052,0.09272,0.05856,0.0244,0.02196,0.02928,0.06344,0.0488,0.01464,-0.00488,0.00488
0.06832,-0.07076,0.0732,0.03904,0.00488,0.03172,0.03904,0.05368,0.03904,0.01464,-0.01952,-0.00488
0.05856,-0.06832,0.07808,0.0488,0.01952,0.01952,0.03904,0.05856,0.03416,0.00488,-0.0244,-0.00488
0.05856,-0.06588,0.0732,0.04392,0.01464,0.02196,0.03416,0.04392,0.03416,-0.00976,-0.0244,-0.00976
0.05368,-0.061,0.06832,0.04148,0.01464,0.01952,0.03904,0.04392,0.03416,-0.00488,-0.0244,-0.00976
0.06344,-0.0732,0.08296,0.05124,0.01952,0.02196,0.02928,0.03904,0.04392,-0.00976,-0.02928,0
0.06344,-0.0732,0.08296,0.05124,0.01952,0.02196,0.02928,0.03904,0.03904,-0.01464,-0.02928,0
0.06344,-0.06832,0.0732,0.04148,0.00976,0.02684,0.03904,0.03904,0.03416,-0.00976,-0.02928,-0.00488
0.0732,-0.0732,0.0732,0.0366,0,0.0366,0.04392,0.03416,0.02928,-0.00976,-0.02928,-0.01464
0.06344,-0.06832,0.0732,0.04148,0.00976,0.02684,0.03416,0.03416,0.02928,-0.00976,-0.03904,-0.00488
0.06344,-0.07076,0.07808,0.04636,0.01464,0.0244,0.03416,0.03416,0.02928,-0.00976,-0.03416,-0.00488
0.05368,-0.06832,0.08296,0.05612,0.02928,0.0122,0.03904,0.03416,0.02928,-0.00488,-0.02928,-0.00488
0.05856,-0.07076,0.08296,0.05368,0.0244,0.01708,0.04392,0.03416,0.02928,-0.00488,-0.02928,-0.00488
0.05856,-0.0732,0.08784,0.05856,0.02928,0.01464,0.03416,0.03416,0.02928,-0.00976,-0.02928,-0.00488
0.05856,-0.0732,0.08784,0.05856,0.02928,0.01464,0.03416,0.03416,0.02928,-0.00976,-0.01952,0
0.05856,-0.08052,0.10248,0.0732,0.04392,0.00732,0.03904,0.03904,0.02928,-0.01464,-0.0244,0
0.05856,-0.08052,0.10248,0.0732,0.04392,0.00732,0.04392,0.03904,0.0244,-0.00976,-0.0244,0
0.05856,-0.07564,0.09272,0.06344,0.03416,0.0122,0.02928,0.03416,0.0244,-0.00976,-0.0244,0
0.05856,-0.07564,0.09272,0.06344,0.03416,0.0122,0.02928,0.03416,0.0244,-0.00976,-0.01952,0
0.05368,-0.07808,0.10248,0.07564,0.0488,0.00244,0.02928,0.02928,0.02928,-0.00488,-0.01952,0
0.05368,-0.07076,0.08784,0.061,0.03416,0.00976,0.02928,0.03416,0.0244,-0.00976,-0.01952,0
0.06344,-0.08052,0.0976,0.06588,0.03416,0.01464,0.02928,0.04392,0.0244,-0.00976,-0.01952,0
0.05856,-0.08052,0.10248,0.0732,0.04392,0.00732,0.02928,0.0488,0.02928,-0.00976,-0.01952,0
0.05368,-0.0732,0.09272,0.06588,0.03904,0.00732,0.01464,0.03416,0.01464,-0.01464,-0.01952,0.00488
0.06344,-0.07564,0.08784,0.05612,0.0244,0.01952,0.01952,0.03416,0.01952,-0.01464,-0.0244,0
0.06344,-0.07808,0.09272,0.061,0.02928,0.01708,0.01464,0.01952,0.00976,-0.01464,-0.0244,-0.00488
0.05368,-0.07076,0.08784,0.061,0.03416,0.00976,0.01464,0.01952,0.00976,-0.00976,-0.01952,-0.00488
0.06344,-0.07564,0.08784,0.05612,0.0244,0.01952,0.01952,0.03416,0.01952,-0.00976,-0.01952,-0.00488
0.0488,-0.07076,0.09272,0.06832,0.04392,0.00244,0.0244,0.03416,0.01952,-0.00976,-0.01952,0
0.0488,-0.06832,0.08784,0.06344,0.03904,0.00488,0.01952,0.0244,0.01952,-0.00976,-0.01464,-0.00488
0.0488,-0.06832,0.08784,0.06344,0.03904,0.00488,0.01952,0.01952,0.01952,-0.00976,-0.01952,-0.00488
0.05368,-0.06588,0.07808,0.05124,0.0244,0.01464,0.01952,0.01952,0.01464,-0.00488,-0.00976,-0.00488
0.05856,-0.06832,0.07808,0.0488,0.01952,0.01952,0.01952,0.01952,0.00976,-0.00488,-0.00976,-0.00488
0.04392,-0.061,0.07808,0.05612,0.03416,0.00488,0.01952,0.02928,0.00976,-0.00976,-0.01464,-0.00488
0.03416,-0.05612,0.07808,0.061,0.04392,-0.00488,0.01952,0.0244,0.00976,-0.00976,-0.01952,-0.01464
0.02928,-0.05124,0.0732,0.05856,0.04392,-0.00732,0.00976,0.0244,0.00976,-0.01464,-0.01952,-0.00488
0.03904,-0.05612,0.0732,0.05368,0.03416,0.00244,0.01464,0.0244,0.00976,-0.01952,-0.01952,-0.00976
0.02928,-0.05124,0.0732,0.05856,0.04392,-0.00732,0.01464,0.01952,0.00976,-0.01464,-0.01952,-0.00976
0.03416,-0.05368,0.0732,0.05612,0.03904,-0.00244,0.01464,0.01952,0.00976,-0.01464,-0.0244,-0.00976
0.0244,-0.04148,0.05856,0.04636,0.03416,-0.00488,0.01464,0.01952,0.00976,-0.01464,-0.03416,-0.01464
0.0244,-0.03904,0.05368,0.04148,0.02928,-0.00244,0.00976,0.01464,0,-0.0244,-0.04392,-0.01952
0.0244,-0.03416,0.04392,0.03172,0.01952,0.00244,0.01464,0.01464,-0.00976,-0.03416,-0.03904,-0.02928
0.0244,-0.02928,0.03416,0.02196,0.00976,0.00732,0.00976,0.01464,-0.00976,-0.03904,-0.04392,-0.02928
0.01464,-0.02928,0.04392,0.0366,0.02928,-0.00732,0.00976,0,-0.00976,-0.03416,-0.05368,-0.03416
0.00488,-0.0244,0.04392,0.04148,0.03904,-0.01708,0.00976,0,-0.01464,-0.03416,-0.05368,-0.03416
0,-0.01464,0.02928,0.02928,0.02928,-0.01464,0.00976,0.00976,-0.01464,-0.03904,-0.05856,-0.02928
0,-0.01464,0.02928,0.02928,0.02928,-0.01464,0.00976,0.00976,-0.01464,-0.0488,-0.05856,-0.03904
0,-0.0122,0.0244,0.0244,0.0244,-0.0122,0.00976,0.00488,-0.00976,-0.03904,-0.06344,-0.03904
0,-0.0122,0.0244,0.0244,0.0244,-0.0122,0.01464,0.00488,-0.00976,-0.03904,-0.06344,-0.03904
-0.00488,-0.00488,0.01464,0.01708,0.01952,-0.0122,0.01464,-0.00488,-0.01952,-0.03904,-0.06344,-0.03904
-0.00488,-0.00488,0.01464,0.01708,0.01952,-0.0122,0.00976,-0.00488,-0.01952,-0.03904,-0.06832,-0.03904
0,-0.00244,0.00488,0.00488,0.00488,-0.00244,0.00976,-0.00488,-0.0244,-0.0488,-0.06832,-0.05368
0,-0.00244,0.00488,0.00488,0.00488,-0.00244,0.00488,-0.00488,-0.0244,-0.05856,-0.06832,-0.05368
-0.00488,0.00488,-0.00488,-0.00244,0,-0.00244,0.01464,-0.00976,-0.02928,-0.05856,-0.07808,-0.05368
-0.00488,0.00488,-0.00488,-0.00244,0,-0.00244,0.01952,-0.00976,-0.02928,-0.05856,-0.07808,-0.05368
-0.01952,0.00976,0,0.00976,0.01952,-0.01952,0.00976,-0.00976,-0.0244,-0.05368,-0.06832,-0.05368
-0.01952,0.00976,0,0.00976,0.01952,-0.01952,0.01464,-0.00976,-0.0244,-0.05856,-0.06832,-0.05368
-0.01952,0.01464,-0.00976,0,0.00976,-0.01464,0.01464,-0.00976,-0.02928,-0.05856,-0.0732,-0.05856
-0.01464,0.01708,-0.01952,-0.0122,-0.00488,-0.00488,0.01464,-0.00488,-0.0244,-0.05856,-0.0732,-0.05368
-0.0244,0.02196,-0.01952,-0.00732,0.00488,-0.01464,0,-0.01464,-0.03416,-0.06832,-0.07808,-0.06344
-0.01464,0.01708,-0.01952,-0.0122,-0.00488,-0.00488,0.00488,-0.01464,-0.03416,-0.06832,-0.0732,-0.06344
-0.02928,0.02196,-0.01464,0,0.01464,-0.02196,0.00488,-0.01952,-0.03416,-0.0732,-0.0732,-0.05856
-0.01952,0.01464,-0.00976,0,0.00976,-0.01464,0.00488,-0.01952,-0.03904,-0.0732,-0.0732,-0.05856
-0.01952,0.0244,-0.02928,-0.01952,-0.00976,-0.00488,0.00488,-0.01464,-0.03904,-0.06344,-0.08296,-0.06344
-0.01464,0.01708,-0.01952,-0.0122,-0.00488,-0.00488,0.00488,-0.01464,-0.03904,-0.06344,-0.08784,-0.06344
-0.0244,0.02196,-0.01952,-0.00732,0.00488,-0.01464,0.00488,-0.01952,-0.03904,-0.06832,-0.08784,-0.06344
-0.0244,0.01952,-0.01464,-0.00244,0.00976,-0.01708,0.00488,-0.01952,-0.03904,-0.05856,-0.08784,-0.06344
-0.02928,0.02928,-0.02928,-0.01464,0,-0.01464,0.00488,-0.01952,-0.03904,-0.06832,-0.08784,-0.06344
-0.01952,0.02196,-0.0244,-0.01464,-0.00488,-0.00732,0.00488,-0.01464,-0.03904,-0.06832,-0.08784,-0.06832
-0.03416,0.03416,-0.03416,-0.01708,0,-0.01708,0.00488,-0.0244,-0.03904,-0.08296,-0.08784,-0.06832
-0.0244,0.02684,-0.02928,-0.01708,-0.00488,-0.00976,0.00488,-0.0244,-0.03904,-0.07808,-0.08784,-0.0732
-0.0244,0.02684,-0.02928,-0.01708,-0.00488,-0.00976,-0.00488,-0.0244,-0.04392,-0.06832,-0.09272,-0.06832
-0.03904,0.03904,-0.03904,-0.01952,0,-0.01952,-0.00488,-0.0244,-0.0488,-0.06832,-0.08784,-0.06832
-0.05368,0.04636,-0.03904,-0.0122,0.01464,-0.03416,-0.00488,-0.0244,-0.04392,-0.0732,-0.08296,-0.07808
-0.05368,0.061,-0.06832,-0.04148,-0.01464,-0.01952,-0.00976,-0.0244,-0.0488,-0.07808,-0.08296,-0.07808
-0.06344,0.06344,-0.06344,-0.03172,0,-0.03172,0,-0.03416,-0.0488,-0.07808,-0.08784,-0.07808
-0.05856,0.05612,-0.05368,-0.0244,0.00488,-0.03172,0,-0.0244,-0.04392,-0.0732,-0.08784,-0.0732
-0.01952,0.0244,-0.02928,-0.01952,-0.00976,-0.00488,0,-0.01952,-0.0488,-0.06832,-0.07808,-0.06832
-0.03904,0.03416,-0.02928,-0.00976,0.00976,-0.0244,0.00976,-0.00976,-0.03904,-0.05856,-0.07808,-0.06832
-0.0488,0.03904,-0.02928,-0.00488,0.01952,-0.03416,0.00976,-0.00976,-0.02928,-0.05856,-0.07808,-0.06832
-0.05856,0.0488,-0.03904,-0.00976,0.01952,-0.03904,0.0244,-0.00976,-0.0244,-0.05856,-0.07808,-0.06832
-0.05856,0.0488,-0.03904,-0.00976,0.01952,-0.03904,0.02928,-0.00976,-0.0244,-0.05368,-0.07808,-0.06832
-0.05368,0.04392,-0.03416,-0.00732,0.01952,-0.0366,0.0244,0,-0.01952,-0.06344,-0.06832,-0.06832
-0.05856,0.03904,-0.01952,0.00976,0.03904,-0.0488,0.0244,0.00488,-0.00976,-0.05368,-0.06344,-0.05856
-0.06344,0.03416,-0.00488,0.02684,0.05856,-0.061,0.00488,-0.01464,-0.01952,-0.04392,-0.05368,-0.05856
-0.0488,0.02684,-0.00488,0.01952,0.04392,-0.04636,-0.01952,-0.0244,-0.0244,-0.03904,-0.05368,-0.05368
-0.01952,0.0122,-0.00488,0.00488,0.01464,-0.01708,-0.03416,-0.03416,-0.0244,-0.03416,-0.05856,-0.04392
-0.00976,0.00244,0.00488,0.00976,0.01464,-0.0122,-0.03904,-0.03416,-0.0244,-0.03416,-0.04392,-0.03416
-0.01952,0,0.01952,0.02928,0.03904,-0.02928,-0.03416,-0.01464,-0.01952,-0.02928,-0.02928,-0.01952
-0.00488,-0.01708,0.03904,0.04148,0.04392,-0.0244,-0.03416,-0.00488,-0.00488,-0.01464,-0.01952,-0.01464
-0.01952,-0.00976,0.03904,0.0488,0.05856,-0.03904,-0.02928,-0.00488,0.00488,-0.00488,-0.01464,-0.00488
-0.03416,-0.00244,0.03904,0.05612,0.0732,-0.05368,-0.03416,-0.00488,0.00488,0,-0.01464,-0.00488
-0.00976,-0.01708,0.04392,0.0488,0.05368,-0.03172,-0.04392,-0.01464,-0.00488,-0.00976,-0.01952,0
-0.00976,-0.0122,0.03416,0.03904,0.04392,-0.02684,-0.05368,-0.0244,-0.01464,-0.01952,-0.02928,0
-0.0244,0.00488,0.01464,0.02684,0.03904,-0.03172,-0.05856,-0.02928,-0.01952,-0.0244,-0.01952,-0.00976
-0.04392,0.02928,-0.01464,0.00732,0.02928,-0.0366,-0.04392,-0.0244,-0.02928,-0.03416,-0.03416,-0.01952
-0.05368,0.05124,-0.0488,-0.02196,0.00488,-0.02928,-0.03416,-0.03904,-0.04392,-0.05368,-0.05856,-0.0488
-0.0732,0.06832,-0.06344,-0.02684,0.00976,-0.04148,-0.0244,-0.02928,-0.04392,-0.05368,-0.06344,-0.05368
-0.08296,0.08052,-0.07808,-0.0366,0.00488,-0.04392,-0.02928,-0.0244,-0.03904,-0.05856,-0.06832,-0.06344
-0.08784,0.08784,-0.08784,-0.04392,0,-0.04392,-0.02928,-0.0244,-0.03904,-0.06832,-0.0732,-0.06832
-0.0976,0.10248,-0.10736,-0.05856,-0.00976,-0.04392,-0.01464,-0.0244,-0.05368,-0.05856,-0.07808,-0.06832
-0.10248,0.1098,-0.11712,-0.06588,-0.01464,-0.04392,-0.01464,-0.02928,-0.06344,-0.0732,-0.08296,-0.07808
-0.10736,0.11224,-0.11712,-0.06344,-0.00976,-0.0488,-0.0244,-0.03416,-0.0732,-0.08296,-0.0976,-0.09272
-0.10736,0.11468,-0.122,-0.06832,-0.01464,-0.04636,-0.0244,-0.04392,-0.07808,-0.0976,-0.11224,-0.0976
-0.10736,0.12444,-0.14152,-0.08784,-0.03416,-0.0366,-0.0244,-0.05368,-0.09272,-0.11224,-0.11712,-0.10248
-0.10736,0.12688,-0.1464,-0.09272,-0.03904,-0.03416,-0.0244,-0.05368,-0.08784,-0.11224,-0.11712,-0.0976
-0.122,0.1342,-0.1464,-0.0854,-0.0244,-0.0488,-0.0244,-0.05856,-0.09272,-0.11224,-0.11712,-0.10248
-0.122,0.1342,-0.1464,-0.0854,-0.0244,-0.0488,-0.0244,-0.05856,-0.0976,-0.11224,-0.11712,-0.10248
-0.11224,0.1342,-0.15616,-0.10004,-0.04392,-0.03416,-0.0244,-0.05856,-0.0976,-0.11224,-0.13176,-0.11224
-0.122,0.14396,-0.16592,-0.10492,-0.04392,-0.03904,-0.0244,-0.05856,-0.0976,-0.11224,-0.13176,-0.11224
-0.13176,0.14884,-0.16592,-0.10004,-0.03416,-0.0488,-0.0244,-0.06344,-0.10248,-0.122,-0.13664,-0.122
-0.13176,0.14884,-0.16592,-0.10004,-0.03416,-0.0488,-0.0244,-0.06344,-0.10736,-0.122,-0.13664,-0.122
-0.13176,0.14884,-0.16592,-0.10004,-0.03416,-0.0488,-0.03416,-0.07808,-0.10736,-0.122,-0.13176,-0.122
-0.122,0.14396,-0.16592,-0.10492,-0.04392,-0.03904,-0.03416,-0.07808,-0.10736,-0.13176,-0.13176,-0.12688
-0.13176,0.15372,-0.17568,-0.1098,-0.04392,-0.04392,-0.03416,-0.0732,-0.11224,-0.122,-0.13664,-0.11712
-0.122,0.14884,-0.17568,-0.11468,-0.05368,-0.03416,-0.03416,-0.08296,-0.11712,-0.122,-0.13664,-0.122
-0.13176,0.15616,-0.18056,-0.11468,-0.0488,-0.04148,-0.0244,-0.08296,-0.11712,-0.13176,-0.14152,-0.13176
-0.13664,0.1586,-0.18056,-0.11224,-0.04392,-0.04636,-0.0244,-0.08784,-0.11712,-0.13176,-0.13664,-0.13176
-0.1464,0.1708,-0.1952,-0.122,-0.0488,-0.0488,-0.0244,-0.0732,-0.10736,-0.13176,-0.13664,-0.122
-0.15128,0.17324,-0.1952,-0.11956,-0.04392,-0.05368,-0.0244,-0.07808,-0.10736,-0.13176,-0.13664,-0.11712
-0.13664,0.16104,-0.18544,-0.11712,-0.0488,-0.04392,-0.0244,-0.07808,-0.10736,-0.12688,-0.14152,-0.122
-0.14152,0.16348,-0.18544,-0.11468,-0.04392,-0.0488,-0.01952,-0.07808,-0.10736,-0.122,-0.13664,-0.122
-0.15616,0.17324,-0.19032,-0.11224,-0.03416,-0.061,-0.01952,-0.0732,-0.10736,-0.122,-0.12688,-0.122
-0.15616,0.18544,-0.21472,-0.13664,-0.05856,-0.0488,-0.01952,-0.07808,-0.11224,-0.13176,-0.1464,-0.13176
-0.15128,0.19032,-0.22936,-0.15372,-0.07808,-0.0366,0,-0.00488,-0.08784,-0.14152,-0.16592,-0.16104
-0.19032,0.2196,-0.24888,-0.15372,-0.05856,-0.06588,0.06832,0.10736,-0.01952,-0.12688,-0.20984,-0.20496
-0.20008,0.22936,-0.25864,-0.1586,-0.05856,-0.07076,0.13176,0.244,0.11224,-0.07808,-0.20496,-0.2196
-0.18544,0.18056,-0.17568,-0.08296,0.00976,-0.0976,0.17568,0.34648,0.25864,0.04392,-0.11224,-0.1708
-0.12688,0.07808,-0.02928,0.03416,0.0976,-0.11224,0.17568,0.46848,0.43432,0.2928,0.13176,0
-0.05368,-0.05856,0.1708,0.19764,0.22448,-0.13908,0.2196,0.67344,0.71248,0.64416,0.47824,0.22936
0.122,-0.26108,0.40016,0.33916,0.27816,-0.07808,0.244,0.9272,0.99552,1.01504,0.91256,0.52704
0.25864,-0.41968,0.58072,0.4514,0.32208,-0.03172,0.23424,1.05408,1.21512,1.3664,1.33712,0.81008
0.39528,-0.52948,0.66368,0.46604,0.2684,0.06344,0.1708,0.98576,1.20536,1.57624,1.6348,1.01992
0.5124,-0.66124,0.81008,0.55388,0.29768,0.10736,-0.10248,0.4636,0.854,1.62504,1.84464,1.23952
0.50264,-0.60512,0.7076,0.45628,0.20496,0.14884,-0.3416,-0.22448,0.27328,1.10288,1.42496,1.09312
0.37576,-0.3172,0.25864,0.07076,-0.11712,0.24644,-0.45872,-0.78568,-0.488,0.10736,0.48312,0.59048
0.26352,-0.14152,0.01952,-0.11224,-0.244,0.25376,-0.59048,-1.30784,-1.1712,-0.64416,-0.09272,0.33184
0.12688,0.00244,-0.13176,-0.1952,-0.25864,0.19276,-0.70272,-1.54696,-1.4396,-0.81008,-0.21472,0.22936
0.01952,0.06344,-0.1464,-0.15616,-0.16592,0.09272,-0.71248,-1.51768,-1.3664,-0.77104,-0.23912,0.1708
-0.05856,0.11224,-0.16592,-0.13664,-0.10736,0.0244,-0.64416,-1.2688,-1.13704,-0.66856,-0.25376,0.05368
-0.06832,0.10492,-0.14152,-0.10736,-0.0732,0.00244,-0.50264,-0.94184,-0.84424,-0.50752,-0.21472,0.02928
-0.0976,0.1098,-0.122,-0.0732,-0.0244,-0.0366,-0.32696,-0.60512,-0.55632,-0.33184,-0.1708,0.00488
-0.11712,0.10736,-0.0976,-0.03904,0.01952,-0.06832,-0.20496,-0.40016,-0.38064,-0.22448,-0.13176,-0.00976
-0.12688,0.11468,-0.10248,-0.03904,0.0244,-0.07564,-0.15128,-0.30256,-0.28792,-0.21472,-0.11712,-0.03416
-0.13664,0.12932,-0.122,-0.05368,0.01464,-0.07564,-0.122,-0.22936,-0.244,-0.1952,-0.122,-0.0732
-0.13664,0.1464,-0.15616,-0.08784,-0.01952,-0.05856,-0.07808,-0.1464,-0.17568,-0.15128,-0.13176,-0.08784
-0.16592,0.17812,-0.19032,-0.10736,-0.0244,-0.07076,-0.03904,-0.10736,-0.14152,-0.1464,-0.13176,-0.08784
-0.16592,0.17568,-0.18544,-0.10248,-0.01952,-0.0732,-0.04392,-0.11712,-0.15616,-0.1464,-0.13176,-0.09272
-0.17568,0.18056,-0.18544,-0.0976,-0.00976,-0.08296,-0.05368,-0.12688,-0.15616,-0.1464,-0.13176,-0.10248
-0.18056,0.18544,-0.19032,-0.10004,-0.00976,-0.0854,-0.03904,-0.11224,-0.13664,-0.13664,-0.13176,-0.10736
-0.18056,0.19032,-0.20008,-0.1098,-0.01952,-0.08052,-0.0244,-0.08784,-0.12688,-0.14152,-0.14152,-0.11224
-0.18056,0.19032,-0.20008,-0.1098,-0.01952,-0.08052,-0.02928,-0.08784,-0.12688,-0.14152,-0.14152,-0.11224
-0.1708,0.183,-0.1952,-0.1098,-0.0244,-0.0732,-0.03416,-0.08784,-0.12688,-0.14152,-0.15128,-0.122
-0.1708,0.183,-0.1952,-0.1098,-0.0244,-0.0732,-0.03416,-0.08784,-0.12688,-0.14152,-0.15128,-0.13176
-0.19032,0.1952,-0.20008,-0.10492,-0.00976,-0.09028,-0.03416,-0.0732,-0.11224,-0.13664,-0.1464,-0.12688
-0.19032,0.19764,-0.20496,-0.1098,-0.01464,-0.08784,-0.03416,-0.0732,-0.11224,-0.13664,-0.1464,-0.122
-0.1708,0.183,-0.1952,-0.1098,-0.0244,-0.0732,-0.03416,-0.0732,-0.11224,-0.14152,-0.15128,-0.12688
-0.18056,0.18788,-0.1952,-0.10492,-0.01464,-0.08296,-0.03416,-0.07808,-0.11224,-0.13664,-0.15128,-0.12688
-0.17568,0.19032,-0.20496,-0.11712,-0.02928,-0.0732,-0.0244,-0.07808,-0.10736,-0.13664,-0.15128,-0.122
-0.17568,0.18788,-0.20008,-0.11224,-0.0244,-0.07564,-0.0244,-0.0732,-0.10736,-0.13176,-0.15128,-0.122
-0.18544,0.19276,-0.20008,-0.10736,-0.01464,-0.0854,-0.0244,-0.06344,-0.10736,-0.13176,-0.14152,-0.12688
-0.18544,0.19276,-0.20008,-0.10736,-0.01464,-0.0854,-0.01952,-0.06344,-0.10736,-0.13176,-0.1464,-0.122
-0.17568,0.18056,-0.18544,-0.0976,-0.00976,-0.08296,-0.02928,-0.06344,-0.10248,-0.13176,-0.13664,-0.11712
-0.15616,0.16592,-0.17568,-0.0976,-0.01952,-0.06832,-0.02928,-0.05856,-0.0976,-0.13176,-0.13664,-0.11224
-0.17568,0.17812,-0.18056,-0.09272,-0.00488,-0.0854,-0.01952,-0.06344,-0.08784,-0.12688,-0.13176,-0.11224
-0.17568,0.17568,-0.17568,-0.08784,0,-0.08784,-0.01952,-0.06344,-0.08296,-0.12688,-0.13176,-0.11224
-0.16104,0.16836,-0.17568,-0.09516,-0.01464,-0.0732,-0.01952,-0.05856,-0.09272,-0.122,-0.12688,-0.11224
-0.16104,0.16592,-0.1708,-0.09028,-0.00976,-0.07564,-0.0244,-0.06344,-0.08784,-0.122,-0.12688,-0.11224
-0.15616,0.16104,-0.16592,-0.08784,-0.00976,-0.0732,-0.0244,-0.05368,-0.0732,-0.11712,-0.12688,-0.10736
-0.15128,0.15616,-0.16104,-0.0854,-0.00976,-0.07076,-0.01952,-0.0488,-0.0732,-0.11224,-0.122,-0.10736
-0.16104,0.1586,-0.15616,-0.07564,0.00488,-0.08296,-0.01952,-0.0488,-0.0732,-0.11224,-0.122,-0.0976
-0.16104,0.15128,-0.14152,-0.061,0.01952,-0.09028,-0.01952,-0.04392,-0.06832,-0.11224,-0.122,-0.0976
-0.1464,0.14396,-0.14152,-0.06832,0.00488,-0.07564,-0.01952,-0.0488,-0.06344,-0.10736,-0.12688,-0.0976
-0.1464,0.1464,-0.1464,-0.0732,0,-0.0732,-0.01952,-0.04392,-0.06344,-0.10248,-0.12688,-0.10736
-0.1464,0.14884,-0.15128,-0.07808,-0.00488,-0.07076,-0.01464,-0.03416,-0.05856,-0.10248,-0.11712,-0.10248
-0.15616,0.15372,-0.15128,-0.0732,0.00488,-0.08052,-0.00976,-0.02928,-0.05368,-0.0976,-0.11224,-0.10248
-0.1464,0.1464,-0.1464,-0.0732,0,-0.0732,-0.0244,-0.02928,-0.05368,-0.09272,-0.10736,-0.0976
-0.15128,0.1464,-0.14152,-0.06588,0.00976,-0.08052,-0.0244,-0.01952,-0.05368,-0.09272,-0.10736,-0.0976
-0.15616,0.14396,-0.13176,-0.05368,0.0244,-0.09028,-0.01952,-0.01952,-0.04392,-0.0732,-0.10736,-0.09272
-0.15128,0.14152,-0.13176,-0.05612,0.01952,-0.0854,-0.0244,-0.01952,-0.04392,-0.0732,-0.0976,-0.08784
-0.1464,0.13176,-0.11712,-0.04392,0.02928,-0.08784,-0.01464,-0.01464,-0.03904,-0.06832,-0.0976,-0.07808
-0.15616,0.13664,-0.11712,-0.03904,0.03904,-0.0976,-0.01952,-0.00488,-0.03416,-0.06344,-0.09272,-0.07808
-0.15128,0.1342,-0.11712,-0.04148,0.03416,-0.09272,-0.02928,0,-0.03416,-0.05856,-0.09272,-0.07808
-0.1464,0.12932,-0.11224,-0.03904,0.03416,-0.09028,-0.02928,0.00488,-0.0244,-0.05856,-0.08784,-0.06832
-0.1464,0.12444,-0.10248,-0.02928,0.04392,-0.09516,-0.03416,0.01952,-0.0244,-0.05368,-0.07808,-0.06344
-0.15128,0.12444,-0.0976,-0.02196,0.05368,-0.10248,-0.03416,0.01952,-0.01464,-0.05368,-0.06832,-0.05856
-0.14152,0.11956,-0.0976,-0.02684,0.04392,-0.09272,-0.0244,0.0244,0,-0.03904,-0.05856,-0.0488
-0.14152,0.11468,-0.08784,-0.01708,0.05368,-0.0976,-0.02928,0.03416,0.00488,-0.0244,-0.05368,-0.03904
-0.14152,0.11468,-0.08784,-0.01708,0.05368,-0.0976,-0.03904,0.03416,0.01464,-0.0244,-0.04392,-0.03904
-0.13176,0.10492,-0.07808,-0.0122,0.05368,-0.09272,-0.03416,0.04392,0.01952,-0.01952,-0.04392,-0.03904
-0.122,0.09272,-0.06344,-0.00244,0.05856,-0.09028,-0.02928,0.05856,0.01464,-0.01952,-0.03904,-0.03416
-0.13176,0.09272,-0.05368,0.0122,0.07808,-0.10492,-0.03416,0.06344,0.0244,-0.01464,-0.02928,-0.0244
-0.13176,0.0854,-0.03904,0.02684,0.09272,-0.11224,-0.03416,0.0732,0.03416,-0.00488,-0.02928,-0.0244
-0.12688,0.08784,-0.0488,0.01464,0.07808,-0.10248,-0.03904,0.0732,0.03904,0.00976,-0.01464,-0.01952
-0.11712,0.07076,-0.0244,0.03416,0.09272,-0.10492,-0.03904,0.08296,0.0488,0.01952,-0.01464,-0.00976
-0.122,0.0732,-0.0244,0.0366,0.0976,-0.1098,-0.03904,0.08784,0.05368,0.01952,-0.00976,-0.00488
-0.11224,0.06588,-0.01952,0.0366,0.09272,-0.10248,-0.0488,0.08784,0.05368,0.01952,0.00488,0.00488
-0.10736,0.05856,-0.00976,0.04392,0.0976,-0.10248,-0.05856,0.09272,0.05856,0.01952,0.00488,0.00976
-0.10736,0.05612,-0.00488,0.0488,0.10248,-0.10492,-0.05368,0.09272,0.05856,0.02928,0.00976,0.0244
-0.10248,0.0488,0.00488,0.05612,0.10736,-0.10492,-0.05368,0.09272,0.05856,0.02928,0.01464,0.02928
-0.09272,0.0366,0.01952,0.06588,0.11224,-0.10248,-0.06832,0.09272,0.06832,0.04392,0.01952,0.03904
-0.07808,0.02684,0.0244,0.06344,0.10248,-0.09028,-0.06344,0.08784,0.06832,0.05368,0.03904,0.0488
-0.07808,0.01952,0.03904,0.07808,0.11712,-0.0976,-0.06832,0.08784,0.06832,0.05856,0.03416,0.04392
-0.06832,0.01464,0.03904,0.0732,0.10736,-0.08784,-0.06832,0.08784,0.0732,0.06832,0.04392,0.05368
-0.06832,0.01952,0.02928,0.06344,0.0976,-0.08296,-0.06832,0.0732,0.08296,0.07808,0.05856,0.05856
-0.06344,0.01464,0.03416,0.06588,0.0976,-0.08052,-0.07808,0.07808,0.09272,0.08784,0.06832,0.0732
-0.04392,0.00488,0.03416,0.05612,0.07808,-0.061,-0.07808,0.07808,0.08784,0.10736,0.09272,0.0732
-0.0488,0.00976,0.02928,0.05368,0.07808,-0.06344,-0.07808,0.06832,0.09272,0.10248,0.09272,0.0732
-0.03904,0.00488,0.02928,0.0488,0.06832,-0.05368,-0.0732,0.06344,0.08784,0.10248,0.09272,0.0732
-0.05368,0.01952,0.01464,0.04148,0.06832,-0.061,-0.0732,0.05856,0.08784,0.10248,0.09272,0.06344
-0.06344,0.03416,-0.00488,0.02684,0.05856,-0.061,-0.0732,0.05856,0.08296,0.09272,0.08296,0.05856
-0.06832,0.04636,-0.0244,0.00976,0.04392,-0.05612,-0.06344,0.05368,0.0732,0.08296,0.07808,0.0488
-0.05856,0.04148,-0.0244,0.00488,0.03416,-0.04636,-0.06344,0.03416,0.05856,0.0732,0.06832,0.02928
-0.08296,0.06832,-0.05368,-0.0122,0.02928,-0.05612,-0.05368,0.02928,0.05368,0.06832,0.0488,0.01952
-0.09272,0.07564,-0.05856,-0.0122,0.03416,-0.06344,-0.06344,0.01952,0.03904,0.05856,0.03904,0.00488
-0.09272,0.08052,-0.06832,-0.02196,0.0244,-0.05856,-0.05368,0.01464,0.02928,0.03904,0.02928,-0.00976
-0.10736,0.0976,-0.08784,-0.03416,0.01952,-0.06344,-0.03904,0.01464,0.02928,0.0244,0.00976,-0.01952
-0.11224,0.10492,-0.0976,-0.04148,0.01464,-0.06344,-0.03904,0.00976,0.0244,0.00976,-0.00976,-0.01952
-0.11712,0.11224,-0.10736,-0.0488,0.00976,-0.06344,-0.04392,-0.00976,0.00488,0.00976,-0.00976,-0.02928
-0.11712,0.11468,-0.11224,-0.05368,0.00488,-0.061,-0.04392,-0.01464,-0.00488,-0.00488,-0.01952,-0.03904
-0.11712,0.122,-0.12688,-0.06832,-0.00976,-0.05368,-0.04392,-0.00976,-0.00488,-0.00976,-0.0244,-0.05368
-0.13176,0.1342,-0.13664,-0.07076,-0.00488,-0.06344,-0.03904,-0.01464,-0.00976,-0.01464,-0.03416,-0.05368
-0.11712,0.12932,-0.14152,-0.08296,-0.0244,-0.04636,-0.03904,-0.02928,-0.00976,-0.01464,-0.03416,-0.05368
-0.122,0.13664,-0.15128,-0.09028,-0.02928,-0.04636,-0.03904,-0.03416,-0.0244,-0.01952,-0.04392,-0.06344
-0.12688,0.1342,-0.14152,-0.07808,-0.01464,-0.05612,-0.02928,-0.02928,-0.03416,-0.02928,-0.04392,-0.05856
-0.13176,0.13908,-0.1464,-0.08052,-0.01464,-0.05856,-0.03416,-0.03416,-0.03416,-0.0244,-0.04392,-0.05856
-0.122,0.1342,-0.1464,-0.0854,-0.0244,-0.0488,-0.02928,-0.03904,-0.03416,-0.0244,-0.0488,-0.05856
-0.122,0.13176,-0.14152,-0.08052,-0.01952,-0.05124,-0.02928,-0.03904,-0.03904,-0.02928,-0.0488,-0.05856
-0.13176,0.14152,-0.15128,-0.0854,-0.01952,-0.05612,-0.02928,-0.03904,-0.03416,-0.04392,-0.0488,-0.05368
-0.13176,0.14152,-0.15128,-0.0854,-0.01952,-0.05612,-0.02928,-0.04392,-0.03904,-0.03904,-0.0488,-0.05368
-0.122,0.13664,-0.15128,-0.09028,-0.02928,-0.04636,-0.03416,-0.04392,-0.03904,-0.03904,-0.0488,-0.05368
-0.122,0.1342,-0.1464,-0.0854,-0.0244,-0.0488,-0.03416,-0.04392,-0.03904,-0.03904,-0.04392,-0.05368
-0.11712,0.12932,-0.14152,-0.08296,-0.0244,-0.04636,-0.03904,-0.04392,-0.03904,-0.03416,-0.04392,-0.06344
-0.122,0.13176,-0.14152,-0.08052,-0.01952,-0.05124,-0.03416,-0.04392,-0.03904,-0.03416,-0.0488,-0.06344
-0.11224,0.12688,-0.14152,-0.0854,-0.02928,-0.04148,-0.03416,-0.04392,-0.03904,-0.02928,-0.0488,-0.06344
-0.10736,0.122,-0.13664,-0.08296,-0.02928,-0.03904,-0.03416,-0.04392,-0.03904,-0.02928,-0.04392,-0.06344
-0.11712,0.13176,-0.1464,-0.08784,-0.02928,-0.04392,-0.03904,-0.0488,-0.03904,-0.02928,-0.03904,-0.05856
-0.11712,0.12932,-0.14152,-0.08296,-0.0244,-0.04636,-0.03416,-0.0488,-0.03904,-0.03416,-0.04392,-0.05856
-0.11712,0.12932,-0.14152,-0.08296,-0.0244,-0.04636,-0.03416,-0.05368,-0.04392,-0.03904,-0.04392,-0.0488
-0.11712,0.12932,-0.14152,-0.08296,-0.0244,-0.04636,-0.03904,-0.05368,-0.04392,-0.03904,-0.03904,-0.0488
-0.11712,0.12444,-0.13176,-0.0732,-0.01464,-0.05124,-0.03904,-0.0488,-0.04392,-0.03416,-0.0488,-0.05856
-0.10248,0.11224,-0.122,-0.07076,-0.01952,-0.04148,-0.03904,-0.04392,-0.03904,-0.03904,-0.0488,-0.05856
-0.11224,0.11956,-0.12688,-0.07076,-0.01464,-0.0488,-0.02928,-0.04392,-0.04392,-0.02928,-0.03904,-0.0488
-0.11224,0.11712,-0.122,-0.06588,-0.00976,-0.05124,-0.02928,-0.03904,-0.03904,-0.02928,-0.03904,-0.0488
-0.10736,0.1098,-0.11224,-0.05856,-0.00488,-0.05124,-0.03416,-0.04392,-0.04392,-0.02928,-0.03904,-0.04392
-0.0976,0.10492,-0.11224,-0.06344,-0.01464,-0.04148,-0.03416,-0.04392,-0.04392,-0.0244,-0.04392,-0.0488
-0.09272,0.10248,-0.11224,-0.06588,-0.01952,-0.0366,-0.03904,-0.04392,-0.03904,-0.03416,-0.04392,-0.0488
-0.11224,0.11468,-0.11712,-0.061,-0.00488,-0.05368,-0.03416,-0.0488,-0.03904,-0.02928,-0.03904,-0.04392
-0.0976,0.10492,-0.11224,-0.06344,-0.01464,-0.04148,-0.02928,-0.05368,-0.0488,-0.03904,-0.03904,-0.04392
-0.10248,0.10248,-0.10248,-0.05124,0,-0.05124,-0.03416,-0.05368,-0.0488,-0.03904,-0.03904,-0.03904
-0.0976,0.09516,-0.09272,-0.04392,0.00488,-0.05124,-0.03416,-0.04392,-0.03904,-0.02928,-0.03416,-0.04392
-0.0976,0.0976,-0.0976,-0.0488,0,-0.0488,-0.02928,-0.0488,-0.03904,-0.02928,-0.03416,-0.04392
-0.0976,0.0976,-0.0976,-0.0488,0,-0.0488,-0.02928,-0.03904,-0.03904,-0.0244,-0.03904,-0.04392
-0.09272,0.09516,-0.0976,-0.05124,-0.00488,-0.04392,-0.02928,-0.03904,-0.03416,-0.0244,-0.03904,-0.04392
-0.09272,0.09028,-0.08784,-0.04148,0.00488,-0.0488,-0.01952,-0.03904,-0.03904,-0.0244,-0.02928,-0.03416
-0.09272,0.09028,-0.08784,-0.04148,0.00488,-0.0488,-0.01952,-0.03904,-0.03904,-0.01952,-0.0244,-0.03416
-0.08784,0.09028,-0.09272,-0.0488,-0.00488,-0.04148,-0.02928,-0.04392,-0.03904,-0.03416,-0.02928,-0.04392
-0.0976,0.09516,-0.09272,-0.04392,0.00488,-0.05124,-0.02928,-0.04392,-0.03904,-0.03416,-0.02928,-0.0488
-0.08784,0.09028,-0.09272,-0.0488,-0.00488,-0.04148,-0.0244,-0.04392,-0.03904,-0.02928,-0.02928,-0.0488
-0.08296,0.08784,-0.09272,-0.05124,-0.00976,-0.0366,-0.0244,-0.03904,-0.03904,-0.0244,-0.02928,-0.0488
-0.10248,0.10004,-0.0976,-0.04636,0.00488,-0.05368,-0.0244,-0.0488,-0.02928,-0.0244,-0.0244,-0.05368
-0.10248,0.10004,-0.0976,-0.04636,0.00488,-0.05368,-0.0244,-0.0488,-0.02928,-0.0244,-0.03416,-0.05368
-0.11224,0.10736,-0.10248,-0.04636,0.00976,-0.061,-0.02928,-0.05368,-0.04392,-0.03416,-0.03904,-0.05856
-0.11224,0.10736,-0.10248,-0.04636,0.00976,-0.061,-0.0244,-0.05368,-0.05368,-0.03416,-0.04392,-0.05856
-0.10736,0.1098,-0.11224,-0.05856,-0.00488,-0.05124,-0.02928,-0.05856,-0.0488,-0.0488,-0.04392,-0.05856
-0.0976,0.10492,-0.11224,-0.06344,-0.01464,-0.04148,-0.02928,-0.05856,-0.0488,-0.04392,-0.04392,-0.06344
-0.0976,0.10736,-0.11712,-0.06832,-0.01952,-0.03904,-0.02928,-0.0488,-0.04392,-0.03416,-0.04392,-0.0488
-0.11224,0.11468,-0.11712,-0.061,-0.00488,-0.05368,-0.02928,-0.0488,-0.04392,-0.04392,-0.0488,-0.05368
-0.11224,0.11224,-0.11224,-0.05612,0,-0.05612,-0.02928,-0.05368,-0.05856,-0.0488,-0.05368,-0.06832
-0.10248,0.10736,-0.11224,-0.061,-0.00976,-0.04636,-0.02928,-0.05368,-0.05856,-0.0488,-0.05368,-0.06832
-0.11224,0.11712,-0.122,-0.06588,-0.00976,-0.05124,-0.0244,-0.05368,-0.05856,-0.0488,-0.05368,-0.06832
-0.11224,0.11712,-0.122,-0.06588,-0.00976,-0.05124,-0.0244,-0.05368,-0.05856,-0.0488,-0.05368,-0.06832
-0.0976,0.1098,-0.122,-0.0732,-0.0244,-0.0366,-0.02928,-0.06344,-0.06344,-0.05856,-0.05856,-0.06832
-0.0976,0.1098,-0.122,-0.0732,-0.0244,-0.0366,-0.02928,-0.06344,-0.06344,-0.06344,-0.05856,-0.0732
-0.09272,0.10248,-0.11224,-0.06588,-0.01952,-0.0366,-0.03416,-0.05368,-0.06344,-0.05856,-0.06832,-0.0732
-0.09272,0.10248,-0.11224,-0.06588,-0.01952,-0.0366,-0.02928,-0.05856,-0.06832,-0.05856,-0.06832,-0.0732
-0.0976,0.10736,-0.11712,-0.06832,-0.01952,-0.03904,-0.02928,-0.05856,-0.05856,-0.06344,-0.05856,-0.06344
-0.0976,0.10736,-0.11712,-0.06832,-0.01952,-0.03904,-0.02928,-0.05856,-0.05368,-0.06344,-0.05856,-0.06344
-0.0976,0.10736,-0.11712,-0.06832,-0.01952,-0.03904,-0.01464,-0.0488,-0.05856,-0.05856,-0.05856,-0.06832
-0.09272,0.10492,-0.11712,-0.07076,-0.0244,-0.03416,-0.01464,-0.04392,-0.05856,-0.05856,-0.06344,-0.06832
-0.09272,0.1098,-0.12688,-0.08052,-0.03416,-0.02928,-0.02928,-0.05368,-0.06344,-0.05856,-0.05368,-0.06344
-0.08296,0.10492,-0.12688,-0.0854,-0.04392,-0.01952,-0.0244,-0.05368,-0.06344,-0.05856,-0.05856,-0.06344
-0.08296,0.10736,-0.13176,-0.09028,-0.0488,-0.01708,-0.0244,-0.04392,-0.06344,-0.05856,-0.05856,-0.0732
-0.08784,0.10736,-0.12688,-0.08296,-0.03904,-0.0244,-0.0244,-0.0488,-0.06344,-0.06344,-0.06832,-0.07808
-0.08784,0.10248,-0.11712,-0.0732,-0.02928,-0.02928,-0.0244,-0.05856,-0.06832,-0.06344,-0.06344,-0.06832
-0.08296,0.10004,-0.11712,-0.07564,-0.03416,-0.0244,-0.0244,-0.05368,-0.06832,-0.06344,-0.06344,-0.06344
-0.0976,0.1098,-0.122,-0.0732,-0.0244,-0.0366,-0.01464,-0.05368,-0.05856,-0.06832,-0.05856,-0.0732
-0.10248,0.11468,-0.12688,-0.07564,-0.0244,-0.03904,-0.01464,-0.05856,-0.05856,-0.06344,-0.05856,-0.0732
-0.10736,0.12444,-0.14152,-0.08784,-0.03416,-0.0366,-0.0244,-0.05856,-0.06832,-0.06832,-0.06832,-0.0732
-0.10248,0.11224,-0.122,-0.07076,-0.01952,-0.04148,-0.0244,-0.05368,-0.06832,-0.06832,-0.06832,-0.0732
-0.0976,0.11712,-0.13664,-0.08784,-0.03904,-0.02928,-0.01464,-0.06344,-0.06832,-0.06832,-0.06832,-0.07808
-0.10248,0.122,-0.14152,-0.09028,-0.03904,-0.03172,-0.01464,-0.06344,-0.06832,-0.0732,-0.06832,-0.08296
-0.09272,0.11712,-0.14152,-0.09516,-0.0488,-0.02196,-0.0244,-0.06344,-0.06344,-0.07808,-0.07808,-0.07808
-0.0976,0.11712,-0.13664,-0.08784,-0.03904,-0.02928,-0.0244,-0.06344,-0.06832,-0.07808,-0.06832,-0.07808
-0.0976,0.11712,-0.13664,-0.08784,-0.03904,-0.02928,-0.01464,-0.05368,-0.06344,-0.06344,-0.0732,-0.07808
-0.10248,0.12444,-0.1464,-0.09516,-0.04392,-0.02928,-0.01464,-0.05368,-0.06344,-0.06832,-0.0732,-0.07808
-0.10248,0.12688,-0.15128,-0.10004,-0.0488,-0.02684,-0.01952,-0.05368,-0.06832,-0.07808,-0.0732,-0.07808
-0.10248,0.122,-0.14152,-0.09028,-0.03904,-0.03172,-0.01952,-0.05368,-0.06344,-0.0732,-0.06832,-0.0732
-0.10736,0.12444,-0.14152,-0.08784,-0.03416,-0.0366,-0.01952,-0.06344,-0.0732,-0.0732,-0.07808,-0.08296
-0.10736,0.11956,-0.13176,-0.07808,-0.0244,-0.04148,-0.01464,-0.05856,-0.06832,-0.0732,-0.0732,-0.07808
-0.10248,0.11712,-0.13176,-0.08052,-0.02928,-0.0366,-0.0244,-0.06344,-0.0732,-0.07808,-0.06832,-0.08784
-0.10248,0.11956,-0.13664,-0.0854,-0.03416,-0.03416,-0.01952,-0.06344,-0.06832,-0.07808,-0.06832,-0.08296
-0.0976,0.11224,-0.12688,-0.07808,-0.02928,-0.03416,-0.00976,-0.05368,-0.06344,-0.06344,-0.06344,-0.08296
-0.09272,0.1098,-0.12688,-0.08052,-0.03416,-0.02928,-0.00976,-0.05368,-0.06344,-0.06344,-0.06344,-0.07808
-0.09272,0.11224,-0.13176,-0.0854,-0.03904,-0.02684,-0.01464,-0.05368,-0.05368,-0.05856,-0.06344,-0.07808
-0.0976,0.10736,-0.11712,-0.06832,-0.01952,-0.03904,-0.01464,-0.0488,-0.06344,-0.05856,-0.06832,-0.0732
-0.07808,0.08784,-0.0976,-0.05856,-0.01952,-0.02928,0,-0.03904,-0.03904,-0.0488,-0.0488,-0.05856
-0.07808,0.08784,-0.0976,-0.05856,-0.01952,-0.02928,0.00976,-0.02928,-0.02928,-0.03904,-0.0488,-0.05856
-0.07808,0.08784,-0.0976,-0.05856,-0.01952,-0.02928,0.00976,-0.02928,-0.02928,-0.03904,-0.0488,-0.05856
-0.07808,0.08296,-0.08784,-0.0488,-0.00976,-0.03416,0.01464,-0.02928,-0.03416,-0.03904,-0.0488,-0.05856
-0.07808,0.07808,-0.07808,-0.03904,0,-0.03904,0.01952,-0.02928,-0.03416,-0.03416,-0.0488,-0.05856
-0.0732,0.07808,-0.08296,-0.04636,-0.00976,-0.03172,0.01464,-0.02928,-0.02928,-0.03416,-0.0488,-0.05856
-0.07808,0.0732,-0.06832,-0.02928,0.00976,-0.04392,0.01464,-0.0244,-0.01952,-0.0244,-0.04392,-0.0488
-0.0732,0.05856,-0.04392,-0.00732,0.02928,-0.05124,-0.00488,-0.03416,-0.01952,-0.0244,-0.03416,-0.0488
-0.05856,0.05124,-0.04392,-0.01464,0.01464,-0.0366,-0.02928,-0.04392,-0.0244,-0.01952,-0.03416,-0.04392
-0.03904,0.04148,-0.04392,-0.0244,-0.00488,-0.01708,-0.03416,-0.04392,-0.0244,-0.01464,-0.02928,-0.03416
-0.02928,0.0366,-0.04392,-0.02928,-0.01464,-0.00732,-0.03904,-0.04392,-0.0244,-0.01464,-0.01464,-0.0244
-0.02928,0.0244,-0.01952,-0.00488,0.00976,-0.01952,-0.03416,-0.03416,-0.00976,-0.00976,0,-0.01952
-0.01464,0.00732,0,0.00732,0.01464,-0.01464,-0.03416,-0.0244,0.00488,0.00488,0.00976,-0.01464
-0.01952,0.00976,0,0.00976,0.01952,-0.01952,-0.02928,-0.0244,0.00488,0.01464,0.01464,0.00488
-0.0244,0.0122,0,0.0122,0.0244,-0.0244,-0.03416,-0.0244,0.00488,0.01952,0.01464,0.00488
-0.01952,0.01708,-0.01464,-0.00488,0.00488,-0.0122,-0.04392,-0.03416,-0.01464,0,0.00976,-0.00976
-0.02928,0.02684,-0.0244,-0.00976,0.00488,-0.01708,-0.05368,-0.04392,-0.0244,-0.00976,0,-0.00976
-0.03416,0.03416,-0.03416,-0.01708,0,-0.01708,-0.06832,-0.05856,-0.02928,-0.01464,-0.00976,-0.00976
-0.04392,0.05368,-0.06344,-0.04148,-0.01952,-0.0122,-0.05368,-0.05368,-0.03904,-0.0244,-0.0244,-0.01952
-0.06344,0.07076,-0.07808,-0.04636,-0.01464,-0.0244,-0.03416,-0.0488,-0.03416,-0.0244,-0.02928,-0.02928
-0.08296,0.08784,-0.09272,-0.05124,-0.00976,-0.0366,-0.0244,-0.03904,-0.03416,-0.0244,-0.03416,-0.03416
-0.08296,0.09516,-0.10736,-0.06588,-0.0244,-0.02928,-0.01952,-0.03416,-0.03904,-0.03904,-0.03904,-0.04392
-0.08784,0.10248,-0.11712,-0.0732,-0.02928,-0.02928,-0.01952,-0.03416,-0.03904,-0.0488,-0.04392,-0.05856
-0.07808,0.0976,-0.11712,-0.07808,-0.03904,-0.01952,-0.00488,-0.03416,-0.03416,-0.03904,-0.03904,-0.05856
-0.08296,0.10004,-0.11712,-0.07564,-0.03416,-0.0244,-0.00488,-0.03904,-0.04392,-0.05368,-0.04392,-0.05856
-0.0976,0.11712,-0.13664,-0.08784,-0.03904,-0.02928,-0.01464,-0.05368,-0.0732,-0.0732,-0.06832,-0.08296
-0.0976,0.11956,-0.14152,-0.09272,-0.04392,-0.02684,-0.0244,-0.06344,-0.07808,-0.08784,-0.08296,-0.08784
-0.0976,0.12444,-0.15128,-0.10248,-0.05368,-0.02196,-0.01464,-0.05368,-0.0732,-0.09272,-0.08784,-0.09272
-0.0976,0.12688,-0.15616,-0.10736,-0.05856,-0.01952,-0.01464,-0.05368,-0.06832,-0.09272,-0.08784,-0.08784
-0.09272,0.11956,-0.1464,-0.10004,-0.05368,-0.01952,-0.01464,-0.05856,-0.0732,-0.09272,-0.07808,-0.09272
-0.09272,0.11956,-0.1464,-0.10004,-0.05368,-0.01952,-0.01464,-0.05856,-0.07808,-0.09272,-0.07808,-0.09272
-0.09272,0.11956,-0.1464,-0.10004,-0.05368,-0.01952,-0.0244,-0.06832,-0.07808,-0.09272,-0.09272,-0.10248
-0.10248,0.12932,-0.15616,-0.10492,-0.05368,-0.0244,-0.0244,-0.06832,-0.07808,-0.09272,-0.09272,-0.10248
-0.10248,0.12932,-0.15616,-0.10492,-0.05368,-0.0244,-0.01464,-0.0732,-0.08296,-0.09272,-0.08784,-0.10248
-0.10248,0.12932,-0.15616,-0.10492,-0.05368,-0.0244,-0.01464,-0.0732,-0.08784,-0.09272,-0.08784,-0.10248
-0.10248,0.1342,-0.16592,-0.11468,-0.06344,-0.01952,-0.0244,-0.07808,-0.0976,-0.10248,-0.10248,-0.10248
-0.09272,0.12932,-0.16592,-0.11956,-0.0732,-0.00976,-0.0244,-0.07808,-0.0976,-0.11224,-0.10248,-0.10736
-0.11224,0.13908,-0.16592,-0.1098,-0.05368,-0.02928,-0.0244,-0.08296,-0.10248,-0.11224,-0.10736,-0.10736
-0.11224,0.13908,-0.16592,-0.1098,-0.05368,-0.02928,-0.0244,-0.09272,-0.10736,-0.11224,-0.10736,-0.11224
-0.10248,0.13176,-0.16104,-0.1098,-0.05856,-0.02196,-0.01464,-0.0732,-0.0976,-0.11224,-0.10248,-0.10248
-0.10736,0.1342,-0.16104,-0.10736,-0.05368,-0.02684,-0.01464,-0.07808,-0.0976,-0.11224,-0.0976,-0.10248
-0.11712,0.1464,-0.17568,-0.11712,-0.05856,-0.02928,-0.01464,-0.08296,-0.0976,-0.11224,-0.10736,-0.11224
