i,aVR,ii,aVF,iii,aVL,V1,V2,V3,V4,V5,V6
-0.00976,0.00488,0,0.00488,0.00976,-0.00976,-0.00976,-0.01952,-0.01952,-0.03904,-0.03904,-0.02928
-0.0244,0.0122,0,0.0122,0.0244,-0.0244,-0.00976,-0.01464,-0.01952,-0.03904,-0.03904,-0.02928
-0.03904,0.01952,0,0.01952,0.03904,-0.03904,-0.00976,-0.00976,-0.01952,-0.03904,-0.03904,-0.02928
-0.0244,0.0122,0,0.0122,0.0244,-0.0244,-0.00976,-0.00976,-0.01952,-0.03904,-0.03416,-0.02928
-0.00976,0.00488,0,0.00488,0.00976,-0.00976,-0.00976,-0.00976,-0.01952,-0.03904,-0.02928,-0.02928
-0.00976,0,0.00976,0.01464,0.01952,-0.01464,-0.00976,-0.00976,-0.01952,-0.03904,-0.02928,-0.02928
-0.00976,-0.00488,0.01952,0.0244,0.02928,-0.01952,-0.00976,-0.00976,-0.01952,-0.03904,-0.02928,-0.02928
-0.01464,0.00976,-0.00488,0.00244,0.00976,-0.0122,-0.00976,-0.00976,-0.01952,-0.03904,-0.03416,-0.02928
-0.01952,0.0244,-0.02928,-0.01952,-0.00976,-0.00488,-0.00976,-0.00976,-0.01952,-0.03904,-0.03904,-0.02928
-0.02928,0.0244,-0.01952,-0.00488,0.00976,-0.01952,-0.00976,-0.00976,-0.01952,-0.03904,-0.03904,-0.0244
-0.03904,0.0244,-0.00976,0.00976,0.02928,-0.03416,-0.00976,-0.00976,-0.01952,-0.03904,-0.03904,-0.01952
-0.0244,0.01708,-0.00976,0.00244,0.01464,-0.01952,-0.00976,-0.00976,-0.01952,-0.03904,-0.03904,-0.01952
-0.00976,0.00976,-0.00976,-0.00488,0,-0.00488,-0.00976,-0.00976,-0.01952,-0.03904,-0.03904,-0.01952
-0.02928,0.01952,-0.00976,0.00488,0.01952,-0.0244,-0.00976,-0.00976,-0.01952,-0.03416,-0.03904,-0.0244
-0.0488,0.02928,-0.00976,0.01464,0.03904,-0.04392,-0.00976,-0.00976,-0.01952,-0.02928,-0.03904,-0.02928
-0.02928,0.01708,-0.00488,0.00976,0.0244,-0.02684,-0.00976,-0.00976,-0.01952,-0.02928,-0.03904,-0.02928
-0.00976,0.00488,0,0.00488,0.00976,-0.00976,-0.00976,-0.00976,-0.01952,-0.02928,-0.03904,-0.02928
-0.02928,0.01464,0,0.01464,0.02928,-0.02928,-0.00976,-0.00976,-0.01952,-0.02928,-0.03904,-0.02928
-0.0488,0.0244,0,0.0244,0.0488,-0.0488,-0.00976,-0.00976,-0.01952,-0.02928,-0.03904,-0.02928
-0.03416,0.01464,0.00488,0.02196,0.03904,-0.0366,-0.00976,-0.00976,-0.01952,-0.02928,-0.03904,-0.02928
-0.01952,0.00488,0.00976,0.01952,0.02928,-0.0244,-0.00976,-0.00976,-0.01952,-0.02928,-0.03904,-0.02928
-0.01952,0.00488,0.00976,0.01952,0.02928,-0.0244,-0.00976,-0.00976,-0.0244,-0.02928,-0.03904,-0.02928
-0.01952,0.00488,0.00976,0.01952,0.02928,-0.0244,-0.00976,-0.00976,-0.02928,-0.02928,-0.03904,-0.02928
-0.03904,0.0244,-0.00976,0.00976,0.02928,-0.03416,-0.00976,-0.00976,-0.02928,-0.03904,-0.0488,-0.02928
-0.05856,0.04392,-0.02928,0,0.02928,-0.04392,-0.00976,-0.00976,-0.02928,-0.0488,-0.05856,-0.02928
-0.04392,0.02928,-0.01464,0.00732,0.02928,-0.0366,-0.00488,-0.00976,-0.01952,-0.03904,-0.0488,-0.02928
-0.02928,0.01464,0,0.01464,0.02928,-0.02928,0,-0.00976,-0.00976,-0.02928,-0.03904,-0.02928
-0.0244,0.0122,0,0.0122,0.0244,-0.0244,0,-0.00976,-0.01952,-0.02928,-0.03904,-0.02928
-0.01952,0.00976,0,0.00976,0.01952,-0.01952,0,-0.00976,-0.02928,-0.02928,-0.03904,-0.02928
-0.01952,0.00976,0,0.00976,0.01952,-0.01952,0,-0.00976,-0.02928,-0.02928,-0.03904,-0.03416
-0.01464,0.00488,0.00488,0.0122,0.01952,-0.01708,0,-0.00976,-0.0244,-0.02928,-0.03904,-0.03416
-0.00976,0,0.00976,0.01464,0.01952,-0.01464,-0.00488,-0.00976,-0.0244,-0.03416,-0.03904,-0.03416
-0.00488,-0.00244,0.00976,0.0122,0.01464,-0.00976,-0.00976,-0.00488,-0.01952,-0.03416,-0.03416,-0.02928
0.00976,-0.00976,0.00976,0.00488,0,0.00488,-0.00976,-0.00488,-0.0244,-0.03416,-0.03416,-0.0244
0.02928,-0.0244,0.01952,0.00488,-0.00976,0.01952,-0.00976,0,-0.01952,-0.02928,-0.02928,-0.0244
0,-0.00488,0.00976,0.00976,0.00976,-0.00488,0,0.00488,-0.01464,-0.01952,-0.0244,-0.0244
-0.02928,0.01464,0,0.01464,0.02928,-0.02928,0.00488,0.00976,-0.00976,-0.01464,-0.01952,-0.01464
-0.01952,0.00976,0,0.00976,0.01952,-0.01952,0.00976,0.01464,-0.00976,-0.01464,-0.01952,-0.01464
0.00488,-0.0122,0.01952,0.01708,0.01464,-0.00488,0.00976,0.01464,-0.00488,-0.00976,-0.01464,-0.01464
0.0244,-0.02684,0.02928,0.01708,0.00488,0.00976,0.00976,0.01952,0.01464,0.00488,-0.00488,-0.00488
0.05368,-0.0488,0.04392,0.01708,-0.00976,0.03172,-0.00488,0.01952,0.01464,0.01464,0,0
0.02928,-0.04148,0.05368,0.03904,0.0244,0.00244,-0.00488,0.02928,0.0244,0.0244,0.01464,0.01464
0.00488,-0.0244,0.04392,0.04148,0.03904,-0.01708,-0.01464,0.03904,0.03416,0.02928,0.01952,0.00976
0.03904,-0.05124,0.06344,0.04392,0.0244,0.00732,-0.01952,0.0244,0.02928,0.0244,0.00976,0.00976
0.0488,-0.06588,0.08296,0.05856,0.03416,0.00732,-0.01952,0.01952,0.02928,0.0244,0.00976,0.01464
0.02928,-0.0488,0.06832,0.05368,0.03904,-0.00488,-0.01952,0.00976,0.00488,0.00488,0.00488,0.01464
0.0244,-0.03172,0.03904,0.02684,0.01464,0.00488,-0.01952,-0.00488,-0.00488,-0.00488,0.00488,0.00488
0.0244,-0.0244,0.0244,0.0122,0,0.0122,-0.03904,-0.01464,-0.01952,-0.01464,-0.00976,0
0.0244,-0.01952,0.01464,0.00244,-0.00976,0.01708,-0.0488,-0.0244,-0.0244,-0.01464,-0.00976,0
0.05856,-0.05124,0.04392,0.01464,-0.01464,0.0366,-0.04392,-0.0244,-0.0244,-0.01464,-0.00976,0
0.0488,-0.05124,0.05368,0.02928,0.00488,0.02196,-0.03416,-0.01952,-0.02928,-0.01952,-0.01464,-0.00488
0.03416,-0.02928,0.0244,0.00732,-0.00976,0.02196,-0.02928,-0.0244,-0.03904,-0.02928,-0.02928,-0.01952
0.0244,-0.01952,0.01464,0.00244,-0.00976,0.01708,-0.0244,-0.02928,-0.05368,-0.0488,-0.04392,-0.03416
0.00976,-0.0122,0.01464,0.00976,0.00488,0.00244,-0.0244,-0.0244,-0.05368,-0.0488,-0.04392,-0.03904
-0.01464,0.00244,0.00976,0.01708,0.0244,-0.01952,-0.01952,-0.0244,-0.05368,-0.05368,-0.05368,-0.04392
-0.03904,0.0244,-0.00976,0.00976,0.02928,-0.03416,-0.00976,-0.0244,-0.05856,-0.0488,-0.0488,-0.0488
-0.0488,0.02928,-0.00976,0.01464,0.03904,-0.04392,0,-0.01952,-0.05856,-0.04392,-0.04392,-0.0488
-0.0488,0.0366,-0.0244,0,0.0244,-0.0366,0,-0.01952,-0.06832,-0.05856,-0.0488,-0.05368
-0.05856,0.0488,-0.03904,-0.00976,0.01952,-0.03904,0.00488,-0.01952,-0.06832,-0.05856,-0.0488,-0.05368
-0.0488,0.0366,-0.0244,0,0.0244,-0.0366,0.00488,-0.01952,-0.06832,-0.05368,-0.0488,-0.05368
-0.03904,0.02196,-0.00488,0.01464,0.03416,-0.0366,0.00488,-0.01952,-0.06832,-0.0488,-0.0488,-0.05368
-0.02928,0.01708,-0.00488,0.00976,0.0244,-0.02684,0.00488,-0.00976,-0.06344,-0.0488,-0.0488,-0.05368
-0.0244,0.01464,-0.00488,0.00732,0.01952,-0.02196,0.00488,-0.00488,-0.05856,-0.0488,-0.0488,-0.05368
-0.0488,0.03172,-0.01464,0.00976,0.03416,-0.04148,0.00488,-0.00488,-0.05368,-0.0488,-0.0488,-0.05368
-0.0488,0.03172,-0.01464,0.00976,0.03416,-0.04148,0.00488,-0.00488,-0.05368,-0.05368,-0.05368,-0.05368
-0.0488,0.0366,-0.0244,0,0.0244,-0.0366,0.00488,-0.00488,-0.05368,-0.05368,-0.05368,-0.0488
-0.05856,0.04148,-0.0244,0.00488,0.03416,-0.04636,0.00976,-0.00488,-0.05368,-0.0488,-0.04392,-0.04392
-0.0488,0.0366,-0.0244,0,0.0244,-0.0366,0.00976,-0.00488,-0.05368,-0.0488,-0.04392,-0.04392
-0.0488,0.0366,-0.0244,0,0.0244,-0.0366,0.00976,-0.00488,-0.05368,-0.0488,-0.04392,-0.04392
-0.0488,0.0366,-0.0244,0,0.0244,-0.0366,0.00976,-0.00488,-0.05368,-0.05368,-0.0488,-0.0488
-0.01952,0.01952,-0.01952,-0.00976,0,-0.00976,0.00976,-0.00488,-0.05856,-0.05856,-0.05856,-0.05368
-0.03904,0.02928,-0.01952,0,0.01952,-0.02928,0.01464,0.00488,-0.05856,-0.05856,-0.06344,-0.05368
-0.05856,0.04392,-0.02928,0,0.02928,-0.04392,0.01952,0.0244,-0.0488,-0.05856,-0.06832,-0.06344
-0.0488,0.02928,-0.00976,0.01464,0.03904,-0.04392,0.03416,0.03416,-0.01952,-0.03904,-0.05368,-0.0488
-0.02928,0.0122,0.00488,0.01952,0.03416,-0.03172,0.00976,0.02928,0.02928,0.0244,0,-0.00976
0.05856,-0.02928,0,-0.02928,-0.05856,0.05856,-0.01952,0.02928,0.10248,0.10248,0.05368,0.04392
0.13176,-0.0732,0.01464,-0.05124,-0.11712,0.12444,-0.07808,-0.01464,0.16104,0.20984,0.15128,0.122
0.28304,-0.20252,0.122,-0.01952,-0.16104,0.22204,-0.2196,-0.15616,0.20496,0.38064,0.31232,0.25864
0.41968,-0.33672,0.25376,0.04392,-0.16592,0.2928,-0.38552,-0.3416,0.23912,0.54168,0.49288,0.42456
0.54656,-0.4514,0.35624,0.08296,-0.19032,0.36844,-0.58072,-0.56608,0.11224,0.58072,0.58072,0.5368
0.59048,-0.4636,0.33672,0.04148,-0.25376,0.42212,-0.6832,-0.69784,-0.14152,0.39528,0.47824,0.488
0.49288,-0.31964,0.1464,-0.10004,-0.34648,0.41968,-0.66856,-0.76128,-0.56608,-0.05856,0.14152,0.244
0.28304,-0.122,-0.03904,-0.18056,-0.32208,0.30256,-0.59536,-0.79056,-0.92232,-0.4392,-0.15128,0.00488
0.10248,0.01952,-0.14152,-0.19276,-0.244,0.17324,-0.49776,-0.76616,-1.0248,-0.55632,-0.28304,-0.11224
-0.00976,0.1098,-0.20984,-0.20496,-0.20008,0.09516,-0.40992,-0.67832,-0.96624,-0.5612,-0.32208,-0.16104
-0.02928,0.09028,-0.15128,-0.13664,-0.122,0.04636,-0.32208,-0.52216,-0.77592,-0.45872,-0.2684,-0.13664
-0.0244,0.0366,-0.0488,-0.0366,-0.0244,0,-0.244,-0.37088,-0.57096,-0.33184,-0.18544,-0.08296
-0.02928,0.0244,-0.01952,-0.00488,0.00976,-0.01952,-0.16592,-0.24888,-0.40016,-0.23912,-0.13664,-0.06344
-0.03416,0.01952,-0.00488,0.0122,0.02928,-0.03172,-0.10736,-0.16592,-0.27816,-0.18056,-0.11712,-0.05368
-0.0488,0.0244,0,0.0244,0.0488,-0.0488,-0.06832,-0.11224,-0.20008,-0.12688,-0.08784,-0.04392
-0.0488,0.02196,0.00488,0.02928,0.05368,-0.05124,-0.04392,-0.06344,-0.12688,-0.07808,-0.05856,-0.03904
-0.03416,0.0122,0.00976,0.02684,0.04392,-0.03904,-0.01464,-0.02928,-0.08784,-0.05368,-0.04392,-0.03904
-0.02928,0.00732,0.01464,0.02928,0.04392,-0.0366,0,-0.00976,-0.06344,-0.04392,-0.04392,-0.03904
-0.03416,0.00488,0.0244,0.04148,0.05856,-0.04636,0.01464,0.00488,-0.0488,-0.04392,-0.03904,-0.03416
-0.01464,-0.00732,0.02928,0.0366,0.04392,-0.02928,0.01464,0.00488,-0.0488,-0.04392,-0.03904,-0.03416
-0.0244,0,0.0244,0.0366,0.0488,-0.0366,0.01952,0.01464,-0.03904,-0.03416,-0.03904,-0.03416
-0.01464,-0.00244,0.01952,0.02684,0.03416,-0.0244,0.0244,0.01952,-0.02928,-0.03416,-0.04392,-0.03416
-0.02928,0.0122,0.00488,0.01952,0.03416,-0.03172,0.02928,0.0244,-0.0244,-0.03416,-0.04392,-0.03904
-0.03904,0.0244,-0.00976,0.00976,0.02928,-0.03416,0.02928,0.02928,-0.01952,-0.02928,-0.04392,-0.03904
-0.03904,0.01952,0,0.01952,0.03904,-0.03904,0.03416,0.02928,-0.01952,-0.0244,-0.03904,-0.03904
-0.01464,-0.00244,0.01952,0.02684,0.03416,-0.0244,0.03416,0.03416,-0.01464,-0.0244,-0.03904,-0.03904
-0.0488,0.01464,0.01952,0.04392,0.06832,-0.05856,0.03416,0.04392,0,-0.01952,-0.03904,-0.03904
-0.06832,0.0244,0.01952,0.05368,0.08784,-0.07808,0.03904,0.0488,0,-0.01952,-0.03904,-0.03904
-0.03416,0.00244,0.02928,0.04636,0.06344,-0.0488,0.03904,0.0488,0,-0.01464,-0.03416,-0.03904
-0.01464,-0.00244,0.01952,0.02684,0.03416,-0.0244,0.04392,0.05368,0,-0.01464,-0.03416,-0.03904
-0.0244,0.00244,0.01952,0.03172,0.04392,-0.03416,0.04392,0.05368,0,-0.01464,-0.03416,-0.03904
-0.04392,0.0122,0.01952,0.04148,0.06344,-0.05368,0.04392,0.05368,0,-0.01464,-0.03416,-0.03904
-0.03416,0.00732,0.01952,0.0366,0.05368,-0.04392,0.0488,0.05368,0.00488,-0.01464,-0.03416,-0.03416
-0.01952,-0.00244,0.0244,0.03416,0.04392,-0.03172,0.05368,0.05856,0.00976,-0.00976,-0.02928,-0.0244
-0.01952,-0.00244,0.0244,0.03416,0.04392,-0.03172,0.05368,0.05856,0.00976,-0.00976,-0.02928,-0.0244
-0.0244,0,0.0244,0.0366,0.0488,-0.0366,0.05368,0.05856,0.00976,-0.01464,-0.02928,-0.0244
-0.02928,0.00488,0.01952,0.03416,0.0488,-0.03904,0.05368,0.05856,0.00976,-0.01464,-0.02928,-0.02928
-0.02928,0.00488,0.01952,0.03416,0.0488,-0.03904,0.05368,0.05856,0.00976,-0.01464,-0.03416,-0.03904
-0.02928,0,0.02928,0.04392,0.05856,-0.04392,0.05368,0.06344,0.00976,-0.00976,-0.03416,-0.03904
-0.03416,0,0.03416,0.05124,0.06832,-0.05124,0.05856,0.06832,0.01464,0,-0.03416,-0.03416
-0.0488,0.00976,0.02928,0.05368,0.07808,-0.06344,0.06344,0.06832,0.01952,0,-0.02928,-0.03416
-0.0488,0.00976,0.02928,0.05368,0.07808,-0.06344,0.06344,0.06832,0.01952,0,-0.02928,-0.03416
-0.04392,0.00732,0.02928,0.05124,0.0732,-0.05856,0.05368,0.06344,0.01464,0,-0.02928,-0.03416
-0.03904,0.00488,0.02928,0.0488,0.06832,-0.05368,0.0488,0.05856,0.00976,0,-0.02928,-0.03416
-0.04392,0.00488,0.03416,0.05612,0.07808,-0.061,0.0488,0.05856,0.01464,0,-0.02928,-0.03904
-0.0488,0.00976,0.02928,0.05368,0.07808,-0.06344,0.0488,0.05856,0.01464,0,-0.03416,-0.04392
-0.0488,0.0122,0.0244,0.0488,0.0732,-0.061,0.04392,0.05856,0.00976,-0.00976,-0.03904,-0.04392
-0.0488,0.0122,0.0244,0.0488,0.0732,-0.061,0.04392,0.05856,0.00488,-0.01464,-0.03904,-0.04392
-0.0488,0.01952,0.00976,0.03416,0.05856,-0.05368,0.0488,0.06344,0.01464,-0.01952,-0.03904,-0.04392
-0.03904,0.02196,-0.00488,0.01464,0.03416,-0.0366,0.0488,0.06344,0.00488,-0.02928,-0.03904,-0.0488
-0.03904,0.0122,0.01464,0.03416,0.05368,-0.04636,0.05856,0.07808,0.01952,-0.01952,-0.02928,-0.03416
-0.04392,0.00488,0.03416,0.05612,0.07808,-0.061,0.06832,0.08784,0.04392,-0.00488,-0.01952,-0.01464
0,-0.01952,0.03904,0.03904,0.03904,-0.01952,0.05856,0.07808,0.03416,-0.00488,-0.02928,-0.0244
0.0488,-0.04636,0.04392,0.01952,-0.00488,0.02684,0.0488,0.06832,0.02928,-0.00488,-0.03904,-0.03416
0.01464,-0.02684,0.03904,0.03172,0.0244,-0.00488,0.0488,0.0732,0.02928,-0.00488,-0.03904,-0.03416
-0.01952,-0.0122,0.04392,0.05368,0.06344,-0.04148,0.05368,0.07808,0.03416,0,-0.03904,-0.03416
-0.00976,-0.0122,0.03416,0.03904,0.04392,-0.02684,0.05856,0.07808,0.03416,0,-0.03416,-0.03416
-0.02928,-0.00244,0.03416,0.0488,0.06344,-0.04636,0.05856,0.07808,0.03904,0.00488,-0.0244,-0.03416
-0.0244,-0.00488,0.03416,0.04636,0.05856,-0.04148,0.05856,0.07808,0.03904,0.00488,-0.0244,-0.03416
-0.0244,-0.00732,0.03904,0.05124,0.06344,-0.04392,0.05856,0.08296,0.04392,0.00488,-0.0244,-0.03416
-0.0244,-0.00976,0.04392,0.05612,0.06832,-0.04636,0.05368,0.08296,0.0488,0.00488,-0.0244,-0.03416
-0.01464,-0.01464,0.04392,0.05124,0.05856,-0.0366,0.0488,0.08296,0.05368,0.00976,-0.0244,-0.02928
-0.01464,-0.0244,0.06344,0.07076,0.07808,-0.04636,0.0488,0.10248,0.06832,0.01464,-0.01464,-0.0244
0.00976,-0.04636,0.08296,0.07808,0.0732,-0.03172,0.05368,0.10248,0.0732,0.01952,-0.00976,-0.0244
-0.01952,-0.02684,0.0732,0.08296,0.09272,-0.05612,0.06344,0.10248,0.07808,0.0244,-0.00976,-0.01952
-0.0488,-0.00732,0.06344,0.08784,0.11224,-0.08052,0.0732,0.10736,0.08784,0.02928,-0.00488,-0.01952
-0.0244,-0.02196,0.06832,0.08052,0.09272,-0.05856,0.05856,0.10248,0.08296,0.01952,-0.00488,-0.01952
0,-0.03416,0.06832,0.06832,0.06832,-0.03416,0.0488,0.0976,0.08296,0.01464,-0.00976,-0.01952
0,-0.03904,0.07808,0.07808,0.07808,-0.03904,0.0488,0.10736,0.09272,0.0244,-0.00488,-0.00488
0.02928,-0.06344,0.0976,0.08296,0.06832,-0.01952,0.0488,0.10736,0.10248,0.0244,0,-0.00488
0.0244,-0.06344,0.10248,0.09028,0.07808,-0.02684,0.0488,0.11224,0.10736,0.03904,0.00488,0.00488
0.03416,-0.07076,0.10736,0.09028,0.0732,-0.01952,0.0488,0.11224,0.11712,0.04392,0.00488,0.00976
0.04392,-0.08052,0.11712,0.09516,0.0732,-0.01464,0.04392,0.11712,0.122,0.0488,0.00488,0.00976
0.05856,-0.09272,0.12688,0.0976,0.06832,-0.00488,0.04392,0.11712,0.12688,0.05368,0.00976,0.01952
0.04392,-0.08296,0.122,0.10004,0.07808,-0.01708,0.03904,0.11712,0.13176,0.05368,0.01464,0.01464
0.03904,-0.09028,0.14152,0.122,0.10248,-0.03172,0.03904,0.11712,0.14152,0.06344,0.01952,0.01952
0.02928,-0.0854,0.14152,0.12688,0.11224,-0.04148,0.03416,0.11712,0.14152,0.06344,0.0244,0.01952
0.01952,-0.0854,0.15128,0.14152,0.13176,-0.05612,0.03416,0.11712,0.14152,0.06344,0.03416,0.02928
0.03416,-0.09272,0.15128,0.1342,0.11712,-0.04148,0.02928,0.11712,0.14152,0.06832,0.03416,0.02928
0.05368,-0.10492,0.15616,0.12932,0.10248,-0.0244,0.0244,0.11224,0.14152,0.0732,0.03904,0.03904
0.04392,-0.0976,0.15128,0.12932,0.10736,-0.03172,0.01464,0.10248,0.13664,0.0732,0.02928,0.03416
0.03416,-0.08784,0.14152,0.12444,0.10736,-0.0366,0.01464,0.0976,0.13176,0.06832,0.01952,0.02928
0.03416,-0.0976,0.16104,0.14396,0.12688,-0.04636,0.01464,0.09272,0.13176,0.0732,0.03904,0.03904
0.04392,-0.1098,0.17568,0.15372,0.13176,-0.04392,0.00976,0.08784,0.13176,0.07808,0.0488,0.03904
0.05368,-0.11468,0.17568,0.14884,0.122,-0.03416,0.00488,0.07808,0.12688,0.07808,0.0488,0.04392
0.05368,-0.11468,0.17568,0.14884,0.122,-0.03416,0.00488,0.07808,0.11712,0.07808,0.0488,0.0488
0.0488,-0.11468,0.18056,0.15616,0.13176,-0.04148,0,0.06832,0.11224,0.06344,0.03904,0.03904
0.05368,-0.11468,0.17568,0.14884,0.122,-0.03416,0,0.05856,0.0976,0.05368,0.03904,0.03904
0.0488,-0.1098,0.1708,0.1464,0.122,-0.0366,0.00488,0.06344,0.09272,0.05368,0.03904,0.03904
0.04392,-0.0976,0.15128,0.12932,0.10736,-0.03172,0.00488,0.05856,0.08296,0.0488,0.03416,0.03904
0.03904,-0.0854,0.13176,0.11224,0.09272,-0.02684,0.00488,0.05368,0.08296,0.0488,0.02928,0.02928
0.02928,-0.07808,0.12688,0.11224,0.0976,-0.03416,0.00488,0.0488,0.07808,0.04392,0.02928,0.0244
0.02928,-0.07564,0.122,0.10736,0.09272,-0.03172,0.00488,0.03904,0.05856,0.03416,0.01952,0.01952
0.04392,-0.07564,0.10736,0.0854,0.06344,-0.00976,0.00488,0.02928,0.0488,0.0244,0.00976,0.00976
0.01464,-0.05368,0.09272,0.0854,0.07808,-0.03172,0.00976,0.0244,0.0488,0.0244,0.00488,0
0.01464,-0.0488,0.08296,0.07564,0.06832,-0.02684,0.01464,0.01464,0.03416,0.01952,0,0
0.01952,-0.0488,0.07808,0.06832,0.05856,-0.01952,0.01464,0.01952,0.0244,0.01952,-0.00488,-0.00976
0.0244,-0.04148,0.05856,0.04636,0.03416,-0.00488,0.01464,0.01464,0.00976,0.00488,-0.01464,-0.01952
0.01464,-0.02928,0.04392,0.0366,0.02928,-0.00732,0.01464,0.01464,0,-0.00488,-0.0244,-0.0244
0.00488,-0.01708,0.02928,0.02684,0.0244,-0.00976,0.01464,0.01464,-0.00488,-0.00976,-0.02928,-0.0244
-0.00976,-0.00976,0.02928,0.03416,0.03904,-0.0244,0.01464,0.00976,-0.00976,-0.01464,-0.02928,-0.02928
-0.01952,-0.00488,0.02928,0.03904,0.0488,-0.03416,0.01952,0.00488,-0.0244,-0.01952,-0.03904,-0.03416
-0.0244,0,0.0244,0.0366,0.0488,-0.0366,0.01952,0.00488,-0.0244,-0.01952,-0.03416,-0.03416
-0.0244,0.00244,0.01952,0.03172,0.04392,-0.03416,0.01952,0.00488,-0.0244,-0.0244,-0.03904,-0.03904
-0.00488,-0.00732,0.01952,0.02196,0.0244,-0.01464,0.01952,0.00488,-0.02928,-0.02928,-0.03904,-0.03904
-0.01952,0,0.01952,0.02928,0.03904,-0.02928,0.01952,0.00488,-0.02928,-0.02928,-0.03904,-0.03904
-0.01952,0.00244,0.01464,0.0244,0.03416,-0.02684,0.0244,0.00976,-0.02928,-0.02928,-0.03904,-0.04392
-0.01464,0,0.01464,0.02196,0.02928,-0.02196,0.0244,0.00976,-0.03416,-0.03416,-0.04392,-0.05368
-0.01464,0.00488,0.00488,0.0122,0.01952,-0.01708,0.0244,0.00976,-0.03904,-0.03416,-0.04392,-0.05368
-0.0244,0.0122,0,0.0122,0.0244,-0.0244,0.01952,0.00488,-0.04392,-0.03904,-0.04392,-0.05368
-0.0244,0.0122,0,0.0122,0.0244,-0.0244,0.01952,0.00488,-0.0488,-0.03904,-0.0488,-0.05368
-0.01952,0.00732,0.00488,0.01464,0.0244,-0.02196,0.0244,0.00488,-0.0488,-0.03904,-0.05368,-0.05368
-0.00976,-0.00244,0.01464,0.01952,0.0244,-0.01708,0.0244,0.00976,-0.0488,-0.03904,-0.05856,-0.05856
0,-0.0122,0.0244,0.0244,0.0244,-0.0122,0.0244,0.00976,-0.04392,-0.03904,-0.05856,-0.05856
-0.0244,0.00488,0.01464,0.02684,0.03904,-0.03172,0.0244,0.00976,-0.04392,-0.04392,-0.05856,-0.05856
-0.03904,0.01464,0.00976,0.02928,0.0488,-0.04392,0.0244,0.00488,-0.05368,-0.0488,-0.06344,-0.06344
-0.01952,0.00732,0.00488,0.01464,0.0244,-0.02196,0.0244,0.00488,-0.05856,-0.05368,-0.06832,-0.06344
-0.00488,0,0.00488,0.00732,0.00976,-0.00732,0.0244,0.00488,-0.05856,-0.05856,-0.0732,-0.06344
-0.02928,0.01464,0,0.01464,0.02928,-0.02928,0.03416,0.00976,-0.05856,-0.05856,-0.0732,-0.06344
-0.06344,0.03416,-0.00488,0.02684,0.05856,-0.061,0.03904,0.01464,-0.05856,-0.05856,-0.0732,-0.06344
-0.02928,0.01708,-0.00488,0.00976,0.0244,-0.02684,0.03904,0.01464,-0.05856,-0.05368,-0.07808,-0.06344
-0.01464,0.00976,-0.00488,0.00244,0.00976,-0.0122,0.03416,0.01464,-0.05856,-0.05368,-0.07808,-0.06832
-0.0488,0.03172,-0.01464,0.00976,0.03416,-0.04148,0.03416,0.00976,-0.05856,-0.05368,-0.07808,-0.06832
-0.06832,0.04148,-0.01464,0.01952,0.05368,-0.061,0.03416,0.00976,-0.05856,-0.05368,-0.07808,-0.06832
-0.05368,0.02684,0,0.02684,0.05368,-0.05368,0.03416,0.00976,-0.05368,-0.04392,-0.06832,-0.06344
-0.03904,0.0122,0.01464,0.03416,0.05368,-0.04636,0.03904,0.00976,-0.04392,-0.02928,-0.05856,-0.05368
-0.02928,0.00488,0.01952,0.03416,0.0488,-0.03904,0.03416,0.01952,-0.04392,-0.02928,-0.05856,-0.05368
-0.01464,-0.00244,0.01952,0.02684,0.03416,-0.0244,0.0244,0.00488,-0.04392,-0.02928,-0.05856,-0.06344
-0.01464,0.00244,0.00976,0.01708,0.0244,-0.01952,0.0244,0.00488,-0.04392,-0.03416,-0.05856,-0.06344
-0.01464,0.00732,0,0.00732,0.01464,-0.01464,0.0244,0.00976,-0.03904,-0.03416,-0.05856,-0.05856
-0.01464,-0.00488,0.0244,0.03172,0.03904,-0.02684,0.02928,0.01464,-0.03416,-0.02928,-0.05368,-0.05368
-0.01952,-0.00244,0.0244,0.03416,0.04392,-0.03172,0.03416,0.01464,-0.03416,-0.02928,-0.05368,-0.05368
-0.01952,-0.00244,0.0244,0.03416,0.04392,-0.03172,0.03416,0.01464,-0.03416,-0.02928,-0.05368,-0.0488
-0.0244,0.00244,0.01952,0.03172,0.04392,-0.03416,0.03904,0.01464,-0.02928,-0.02928,-0.0488,-0.04392
-0.02928,0.00732,0.01464,0.02928,0.04392,-0.0366,0.03904,0.01464,-0.02928,-0.02928,-0.0488,-0.03904
-0.02928,0.00732,0.01464,0.02928,0.04392,-0.0366,0.04392,0.01464,-0.0244,-0.0244,-0.0488,-0.03904
-0.03904,0.01708,0.00488,0.0244,0.04392,-0.04148,0.04392,0.01464,-0.0244,-0.0244,-0.0488,-0.03904
-0.0488,0.0244,0,0.0244,0.0488,-0.0488,0.04392,0.01952,-0.0244,-0.01952,-0.04392,-0.03416
-0.03904,0.00976,0.01952,0.03904,0.05856,-0.0488,0.03904,0.01952,-0.0244,-0.01952,-0.04392,-0.03416
-0.02928,-0.00488,0.03904,0.05368,0.06832,-0.0488,0.03904,0.01464,-0.0244,-0.01952,-0.04392,-0.03416
-0.0244,-0.00244,0.02928,0.04148,0.05368,-0.03904,0.02928,0.00976,-0.0244,-0.0244,-0.0488,-0.04392
-0.0244,0.00488,0.01464,0.02684,0.03904,-0.03172,0.01952,0.00488,-0.0244,-0.02928,-0.05368,-0.05368
-0.0244,0.00976,0.00488,0.01708,0.02928,-0.02684,0.01952,0.00488,-0.0244,-0.02928,-0.0488,-0.05368
-0.01464,0.00732,0,0.00732,0.01464,-0.01464,0.01952,0.00488,-0.02928,-0.02928,-0.0488,-0.05368
-0.00488,-0.00244,0.00976,0.0122,0.01464,-0.00976,0.0244,0.00976,-0.02928,-0.02928,-0.04392,-0.0488
0.00488,-0.0122,0.01952,0.01708,0.01464,-0.00488,0.0244,0.00488,-0.03416,-0.02928,-0.03904,-0.04392
0.00488,-0.01464,0.0244,0.02196,0.01952,-0.00732,0.02928,0.00488,-0.02928,-0.0244,-0.03904,-0.04392
-0.01464,-0.00488,0.0244,0.03172,0.03904,-0.02684,0.04392,0.01464,-0.01464,-0.01464,-0.03904,-0.03904
-0.01464,-0.00488,0.0244,0.03172,0.03904,-0.02684,0.04392,0.00976,-0.01464,-0.00488,-0.03416,-0.03904
-0.01464,-0.00732,0.02928,0.0366,0.04392,-0.02928,0.03904,0.00488,-0.01952,-0.01464,-0.03416,-0.03904
-0.01464,-0.00732,0.02928,0.0366,0.04392,-0.02928,0.03904,0.00488,-0.01952,-0.01464,-0.03416,-0.03904
-0.01952,-0.00244,0.0244,0.03416,0.04392,-0.03172,0.03416,0,-0.0244,-0.01952,-0.04392,-0.0488
-0.01952,0.00244,0.01464,0.0244,0.03416,-0.02684,0.02928,0.00488,-0.02928,-0.0244,-0.04392,-0.0488
-0.01952,0.00732,0.00488,0.01464,0.0244,-0.02196,0.02928,0.00976,-0.02928,-0.0244,-0.04392,-0.04392
-0.01952,0.00732,0.00488,0.01464,0.0244,-0.02196,0.02928,0.00976,-0.02928,-0.0244,-0.04392,-0.04392
-0.00976,0.00488,0,0.00488,0.00976,-0.00976,0.02928,0.00976,-0.02928,-0.0244,-0.04392,-0.04392
-0.03416,0.01952,-0.00488,0.0122,0.02928,-0.03172,0.02928,0.00976,-0.02928,-0.01952,-0.04392,-0.04392
-0.03416,0.01952,-0.00488,0.0122,0.02928,-0.03172,0.02928,0.00488,-0.03416,-0.01952,-0.04392,-0.0488
-0.01464,0.00976,-0.00488,0.00244,0.00976,-0.0122,0.02928,0,-0.03904,-0.0244,-0.0488,-0.05368
-0.02928,0.01708,-0.00488,0.00976,0.0244,-0.02684,0.02928,-0.00488,-0.04392,-0.02928,-0.05368,-0.05856
-0.02928,0.01708,-0.00488,0.00976,0.0244,-0.02684,0.02928,-0.00488,-0.04392,-0.03416,-0.05368,-0.05856
-0.0244,0.01464,-0.00488,0.00732,0.01952,-0.02196,0.02928,-0.00488,-0.0488,-0.03416,-0.05368,-0.05856
-0.0244,0.0122,0,0.0122,0.0244,-0.0244,0.0244,-0.00488,-0.05368,-0.03904,-0.05368,-0.05368
-0.0244,0.00732,0.00976,0.02196,0.03416,-0.02928,0.01952,-0.00488,-0.05368,-0.03904,-0.05368,-0.0488
-0.0244,0.00732,0.00976,0.02196,0.03416,-0.02928,0.01952,-0.00488,-0.05368,-0.03904,-0.05368,-0.0488
-0.01952,0.00244,0.01464,0.0244,0.03416,-0.02684,0.0244,0,-0.0488,-0.03904,-0.05368,-0.04392
-0.01952,0,0.01952,0.02928,0.03904,-0.02928,0.0244,0,-0.0488,-0.03904,-0.05368,-0.04392
-0.0244,0.00732,0.00976,0.02196,0.03416,-0.02928,0.0244,0,-0.0488,-0.03904,-0.05368,-0.04392
-0.03416,0.01708,0,0.01708,0.03416,-0.03416,0.0244,0,-0.0488,-0.03904,-0.05368,-0.0488
-0.0244,0.0122,0,0.0122,0.0244,-0.0244,0.0244,-0.00488,-0.0488,-0.03904,-0.05368,-0.0488
-0.02928,0.0122,0.00488,0.01952,0.03416,-0.03172,0.0244,-0.00488,-0.0488,-0.03904,-0.05368,-0.0488
-0.03904,0.01708,0.00488,0.0244,0.04392,-0.04148,0.02928,0,-0.0488,-0.03904,-0.05368,-0.0488
-0.03904,0.02196,-0.00488,0.01464,0.03416,-0.0366,0.02928,0,-0.05368,-0.03904,-0.05856,-0.05368
-0.0244,0.00976,0.00488,0.01708,0.02928,-0.02684,0.02928,0,-0.05368,-0.03904,-0.06344,-0.05856
-0.01464,0,0.01464,0.02196,0.02928,-0.02196,0.02928,0,-0.05368,-0.03904,-0.06344,-0.05856
-0.01464,0.00244,0.00976,0.01708,0.0244,-0.01952,0.03416,0,-0.05368,-0.03904,-0.05856,-0.05856
-0.0244,0.00976,0.00488,0.01708,0.02928,-0.02684,0.03416,0,-0.05368,-0.04392,-0.05856,-0.05368
-0.0488,0.02928,-0.00976,0.01464,0.03904,-0.04392,0.03416,0,-0.05368,-0.04392,-0.05856,-0.05368
-0.03904,0.0244,-0.00976,0.00976,0.02928,-0.03416,0.03416,0,-0.05368,-0.04392,-0.05368,-0.05368
-0.03904,0.02684,-0.01464,0.00488,0.0244,-0.03172,0.03416,-0.00488,-0.05856,-0.0488,-0.05368,-0.0488
-0.0244,0.01464,-0.00488,0.00732,0.01952,-0.02196,0.02928,-0.00488,-0.05856,-0.0488,-0.05856,-0.0488
0,-0.00732,0.01464,0.01464,0.01464,-0.00732,0.0244,-0.00488,-0.05856,-0.04392,-0.05856,-0.0488
-0.00976,-0.00244,0.01464,0.01952,0.0244,-0.01708,0.02928,-0.00488,-0.05368,-0.03416,-0.0488,-0.0488
-0.00488,-0.00732,0.01952,0.02196,0.0244,-0.01464,0.0244,-0.00488,-0.05368,-0.03416,-0.0488,-0.05368
-0.00976,-0.00244,0.01464,0.01952,0.0244,-0.01708,0.01952,-0.00488,-0.05368,-0.03416,-0.0488,-0.05368
-0.01952,0.00488,0.00976,0.01952,0.02928,-0.0244,0.01952,-0.00976,-0.05856,-0.03904,-0.0488,-0.05856
-0.0244,0.01464,-0.00488,0.00732,0.01952,-0.02196,0.01952,-0.00976,-0.05856,-0.03904,-0.0488,-0.05856
-0.02928,0.0244,-0.01952,-0.00488,0.00976,-0.01952,0.01952,-0.00976,-0.05856,-0.03904,-0.0488,-0.05856
-0.02928,0.0122,0.00488,0.01952,0.03416,-0.03172,0.0244,-0.00976,-0.05856,-0.03904,-0.0488,-0.05856
-0.02928,0,0.02928,0.04392,0.05856,-0.04392,0.02928,-0.00976,-0.05856,-0.03904,-0.0488,-0.05856
-0.02928,0.00488,0.01952,0.03416,0.0488,-0.03904,0.02928,-0.00976,-0.05856,-0.03904,-0.0488,-0.05856
-0.02928,0.00976,0.00976,0.0244,0.03904,-0.03416,0.02928,-0.00976,-0.05856,-0.03904,-0.0488,-0.05856
-0.02928,0.00976,0.00976,0.0244,0.03904,-0.03416,0.02928,-0.00976,-0.05856,-0.03904,-0.0488,-0.05368
-0.02928,0.00976,0.00976,0.0244,0.03904,-0.03416,0.02928,-0.00976,-0.05856,-0.03904,-0.0488,-0.0488
-0.02928,0.00976,0.00976,0.0244,0.03904,-0.03416,0.0244,-0.01464,-0.05856,-0.03904,-0.0488,-0.0488
-0.02928,0.00976,0.00976,0.0244,0.03904,-0.03416,0.01952,-0.01952,-0.05856,-0.03904,-0.0488,-0.0488
-0.01952,0.00488,0.00976,0.01952,0.02928,-0.0244,0.01952,-0.01952,-0.05856,-0.04392,-0.05368,-0.05368
-0.00976,0,0.00976,0.01464,0.01952,-0.01464,0.01952,-0.01952,-0.05856,-0.0488,-0.05856,-0.05856
-0.02928,0.00976,0.00976,0.0244,0.03904,-0.03416,0.01952,-0.01952,-0.05856,-0.0488,-0.05856,-0.05856
-0.0488,0.01952,0.00976,0.03416,0.05856,-0.05368,0.01952,-0.01952,-0.05856,-0.0488,-0.05856,-0.05856
-0.0488,0.01952,0.00976,0.03416,0.05856,-0.05368,0.01952,-0.01952,-0.05856,-0.0488,-0.05856,-0.05856
-0.0488,0.01952,0.00976,0.03416,0.05856,-0.05368,0.01952,-0.01952,-0.05856,-0.0488,-0.05856,-0.05856
-0.03416,0.0122,0.00976,0.02684,0.04392,-0.03904,0.01464,-0.0244,-0.05856,-0.0488,-0.05856,-0.05856
-0.01952,0.00488,0.00976,0.01952,0.02928,-0.0244,0.00976,-0.02928,-0.05856,-0.0488,-0.05856,-0.05856
-0.00488,-0.00244,0.00976,0.0122,0.01464,-0.00976,0.00976,-0.02928,-0.05856,-0.0488,-0.05856,-0.05856
0.00976,-0.00976,0.00976,0.00488,0,0.00488,0.00976,-0.02928,-0.05856,-0.0488,-0.05856,-0.05856
-0.00976,0,0.00976,0.01464,0.01952,-0.01464,0.00976,-0.0244,-0.05856,-0.04392,-0.05368,-0.05856
-0.02928,0.00976,0.00976,0.0244,0.03904,-0.03416,0.00976,-0.01952,-0.05856,-0.03904,-0.0488,-0.05856
-0.02928,0.00732,0.01464,0.02928,0.04392,-0.0366,0.00976,-0.01952,-0.05856,-0.03904,-0.0488,-0.05856
-0.02928,0.00488,0.01952,0.03416,0.0488,-0.03904,0.00976,-0.01952,-0.05856,-0.03904,-0.0488,-0.05856
-0.03416,0.00732,0.01952,0.0366,0.05368,-0.04392,0.00976,-0.01952,-0.05856,-0.03904,-0.0488,-0.05856
-0.03904,0.00976,0.01952,0.03904,0.05856,-0.0488,0.00976,-0.01952,-0.05856,-0.03904,-0.0488,-0.05856
-0.0488,0.01952,0.00976,0.03416,0.05856,-0.05368,0.01464,-0.01952,-0.05856,-0.03904,-0.0488,-0.05856
-0.05856,0.02928,0,0.02928,0.05856,-0.05856,0.01952,-0.01952,-0.05856,-0.03904,-0.0488,-0.05856
-0.04392,0.01708,0.00976,0.03172,0.05368,-0.0488,0.01952,-0.01952,-0.05856,-0.03904,-0.0488,-0.05856
-0.02928,0.00488,0.01952,0.03416,0.0488,-0.03904,0.01952,-0.01952,-0.05856,-0.03904,-0.0488,-0.05856
-0.02928,0.00488,0.01952,0.03416,0.0488,-0.03904,0.01464,-0.0244,-0.06344,-0.03904,-0.0488,-0.05856
-0.02928,0.00488,0.01952,0.03416,0.0488,-0.03904,0.00976,-0.0244,-0.06344,-0.03904,-0.0488,-0.05368
-0.02928,0.00244,0.0244,0.03904,0.05368,-0.04148,0.00976,-0.02928,-0.06344,-0.03904,-0.0488,-0.05368
-0.03416,0.00732,0.01952,0.0366,0.05368,-0.04392,0.00976,-0.0244,-0.05856,-0.03416,-0.04392,-0.0488
-0.02928,0.00488,0.01952,0.03416,0.0488,-0.03904,0.00976,-0.0244,-0.05856,-0.03904,-0.04392,-0.04392
-0.01952,-0.00488,0.02928,0.03904,0.0488,-0.03416,0.00976,-0.01952,-0.0488,-0.03904,-0.03904,-0.04392
-0.00976,-0.00976,0.02928,0.03416,0.03904,-0.0244,0.00976,-0.01464,-0.04392,-0.02928,-0.03416,-0.04392
0,-0.01464,0.02928,0.02928,0.02928,-0.01464,0.00488,-0.00976,-0.03904,-0.0244,-0.02928,-0.03416
0.00488,-0.01952,0.03416,0.03172,0.02928,-0.0122,0.01464,0,-0.03904,-0.0244,-0.02928,-0.03416
0.0244,-0.04148,0.05856,0.04636,0.03416,-0.00488,0.01952,0.00488,-0.03416,-0.01952,-0.0244,-0.03416
0.0244,-0.04392,0.06344,0.05124,0.03904,-0.00732,0.0244,0.00976,-0.01464,-0.00976,-0.01464,-0.0244
0.03416,-0.05368,0.0732,0.05612,0.03904,-0.00244,0.01464,0.00976,-0.01464,-0.00488,-0.00976,-0.01952
0.03904,-0.061,0.08296,0.06344,0.04392,-0.00244,0.00976,0.00976,-0.00488,0.00488,0.00488,-0.00488
0.04392,-0.05856,0.0732,0.05124,0.02928,0.00732,-0.00488,0.00976,0.00488,0.00976,0.00976,-0.00976
0.05856,-0.06588,0.0732,0.04392,0.01464,0.02196,-0.00976,-0.00488,0,0.00488,0,-0.00976
0.0488,-0.061,0.0732,0.0488,0.0244,0.0122,-0.00976,-0.00976,0,0.00488,0,-0.00488
0.01952,-0.0488,0.07808,0.06832,0.05856,-0.01952,-0.00976,-0.01952,-0.01952,0,-0.00488,-0.00488
0.00488,-0.0366,0.06832,0.06588,0.06344,-0.02928,-0.00976,-0.03416,-0.0244,0.00488,-0.00488,-0.01464
0.00488,-0.03416,0.06344,0.061,0.05856,-0.02684,-0.02928,-0.04392,-0.04392,-0.01464,-0.01952,-0.0244
0.00488,-0.03416,0.06344,0.061,0.05856,-0.02684,-0.03904,-0.05368,-0.05368,-0.0244,-0.01952,-0.02928
0.02928,-0.04148,0.05368,0.03904,0.0244,0.00244,-0.03416,-0.05368,-0.05368,-0.0244,-0.01952,-0.02928
0.00976,-0.01708,0.0244,0.01952,0.01464,-0.00244,-0.0244,-0.0488,-0.05856,-0.02928,-0.0244,-0.03416
-0.00488,-0.00488,0.01464,0.01708,0.01952,-0.0122,-0.01952,-0.0488,-0.06344,-0.02928,-0.02928,-0.03416
-0.01464,-0.00488,0.0244,0.03172,0.03904,-0.02684,-0.01464,-0.0488,-0.0732,-0.03904,-0.03416,-0.03416
-0.00488,-0.0122,0.02928,0.03172,0.03416,-0.01952,-0.01464,-0.04392,-0.06832,-0.03904,-0.03416,-0.03904
-0.00488,-0.0122,0.02928,0.03172,0.03416,-0.01952,-0.00976,-0.04392,-0.06344,-0.04392,-0.04392,-0.04392
-0.0488,0.01952,0.00976,0.03416,0.05856,-0.05368,-0.00488,-0.04392,-0.06832,-0.04392,-0.04392,-0.0488
-0.07808,0.03416,0.00976,0.0488,0.08784,-0.08296,0,-0.03904,-0.06832,-0.04392,-0.04392,-0.0488
-0.05368,0.02196,0.00976,0.0366,0.06344,-0.05856,0,-0.04392,-0.08296,-0.05856,-0.05368,-0.05856
-0.03904,0.01464,0.00976,0.02928,0.0488,-0.04392,0.00488,-0.0488,-0.08784,-0.05856,-0.05856,-0.06344
-0.03904,0.01708,0.00488,0.0244,0.04392,-0.04148,0.00488,-0.0488,-0.08784,-0.05856,-0.05856,-0.06344
-0.03904,0.01708,0.00488,0.0244,0.04392,-0.04148,0.00488,-0.0488,-0.08784,-0.05856,-0.05856,-0.06344
-0.03904,0.01708,0.00488,0.0244,0.04392,-0.04148,0.00488,-0.04392,-0.08784,-0.05856,-0.05856,-0.06344
-0.04392,0.01952,0.00488,0.02684,0.0488,-0.04636,0.00488,-0.04392,-0.08784,-0.05856,-0.05856,-0.06344
-0.05368,0.0244,0.00488,0.03172,0.05856,-0.05612,0.00488,-0.04392,-0.08296,-0.05856,-0.05856,-0.06344
-0.03904,0.0122,0.01464,0.03416,0.05368,-0.04636,0.00488,-0.04392,-0.08296,-0.06344,-0.06344,-0.06344
-0.03904,0.01708,0.00488,0.0244,0.04392,-0.04148,0.00488,-0.04392,-0.08296,-0.05856,-0.05856,-0.06344
-0.0488,0.02196,0.00488,0.02928,0.05368,-0.05124,0.00976,-0.04392,-0.08296,-0.0488,-0.04392,-0.06344
-0.03904,0.01708,0.00488,0.0244,0.04392,-0.04148,0.00976,-0.04392,-0.08296,-0.0488,-0.04392,-0.06344
-0.03904,0.01708,0.00488,0.0244,0.04392,-0.04148,0.00976,-0.04392,-0.08296,-0.0488,-0.04392,-0.06344
-0.05856,0.02684,0.00488,0.03416,0.06344,-0.061,0.00976,-0.04392,-0.07808,-0.0488,-0.04392,-0.06344
-0.0488,0.01952,0.00976,0.03416,0.05856,-0.05368,0.00976,-0.04392,-0.07808,-0.0488,-0.0488,-0.06344
-0.0488,0.01952,0.00976,0.03416,0.05856,-0.05368,0.01464,-0.03904,-0.08296,-0.05856,-0.05368,-0.06832
-0.0488,0.0244,0,0.0244,0.0488,-0.0488,0.01952,-0.0244,-0.07808,-0.06832,-0.05856,-0.08296
-0.03904,0.00732,0.0244,0.04392,0.06344,-0.05124,0.0244,-0.01464,-0.04392,-0.03904,-0.03904,-0.06344
-0.01952,-0.0122,0.04392,0.05368,0.06344,-0.04148,-0.00976,-0.01952,0.00976,0.03416,0.01952,-0.01952
0.06832,-0.05612,0.04392,0.00976,-0.0244,0.04636,-0.03904,-0.01952,0.0976,0.12688,0.07808,0.04392
0.14152,-0.10248,0.06344,-0.00732,-0.07808,0.1098,-0.0976,-0.06344,0.1708,0.24888,0.18056,0.13176
0.25376,-0.20496,0.15616,0.02928,-0.0976,0.17568,-0.22936,-0.18544,0.23424,0.43432,0.35624,0.27816
0.35136,-0.31232,0.27328,0.0976,-0.07808,0.21472,-0.38552,-0.35136,0.28792,0.61,0.55144,0.45384
0.488,-0.42944,0.37088,0.12688,-0.11712,0.30256,-0.57584,-0.56608,0.15128,0.64416,0.63928,0.5612
0.54168,-0.44408,0.34648,0.07564,-0.1952,0.36844,-0.67344,-0.68808,-0.11224,0.45384,0.5368,0.50752
0.4636,-0.30988,0.15616,-0.07564,-0.30744,0.38552,-0.66856,-0.76128,-0.57584,-0.03904,0.17568,0.244
0.27328,-0.122,-0.02928,-0.16592,-0.30256,0.28792,-0.60512,-0.80032,-0.97112,-0.45872,-0.14152,-0.01464
0.11224,0.00244,-0.11712,-0.17324,-0.22936,0.1708,-0.51728,-0.79056,-1.08336,-0.5856,-0.27816,-0.13664
0.01952,0.07564,-0.1708,-0.18056,-0.19032,0.10492,-0.4392,-0.71736,-1.03456,-0.60024,-0.32208,-0.19032
-0.01464,0.06832,-0.122,-0.11468,-0.10736,0.04636,-0.3416,-0.57096,-0.8296,-0.488,-0.2684,-0.16104
-0.0244,0.02684,-0.02928,-0.01708,-0.00488,-0.00976,-0.25376,-0.42944,-0.61,-0.35136,-0.18544,-0.10248
-0.03416,0.01464,0.00488,0.02196,0.03904,-0.0366,-0.18544,-0.29768,-0.42944,-0.24888,-0.12688,-0.08296
-0.04392,0.00976,0.0244,0.04636,0.06832,-0.05612,-0.13664,-0.20496,-0.29768,-0.18056,-0.0976,-0.0732
-0.06832,0.01952,0.02928,0.06344,0.0976,-0.08296,-0.09272,-0.15616,-0.22448,-0.13664,-0.07808,-0.06344
-0.07808,0.02196,0.03416,0.0732,0.11224,-0.09516,-0.06344,-0.11224,-0.15616,-0.0976,-0.05856,-0.05856
-0.0488,0.00732,0.03416,0.05856,0.08296,-0.06588,-0.03416,-0.07808,-0.11712,-0.0732,-0.04392,-0.05856
-0.02928,-0.00244,0.03416,0.0488,0.06344,-0.04636,-0.01952,-0.05856,-0.09272,-0.06344,-0.04392,-0.05856
-0.00976,-0.0244,0.05856,0.06344,0.06832,-0.03904,-0.00488,-0.04392,-0.0732,-0.05856,-0.03904,-0.05368
0.03416,-0.05612,0.07808,0.061,0.04392,-0.00488,-0.00488,-0.04392,-0.06832,-0.05368,-0.03904,-0.05368
-0.00488,-0.02928,0.06344,0.06588,0.06832,-0.0366,0,-0.03416,-0.05856,-0.04392,-0.03416,-0.05368
-0.0244,-0.0122,0.0488,0.061,0.0732,-0.0488,0.00488,-0.02928,-0.0488,-0.04392,-0.03416,-0.05368
-0.03416,-0.00732,0.0488,0.06588,0.08296,-0.05856,0.00976,-0.0244,-0.04392,-0.04392,-0.03416,-0.05368
-0.03904,-0.00488,0.0488,0.06832,0.08784,-0.06344,0.00976,-0.01952,-0.03904,-0.03904,-0.03416,-0.0488
-0.03904,-0.00488,0.0488,0.06832,0.08784,-0.06344,0.01464,-0.01952,-0.03904,-0.02928,-0.02928,-0.0488
-0.01464,-0.02196,0.05856,0.06588,0.0732,-0.04392,0.01464,-0.01464,-0.03416,-0.0244,-0.02928,-0.0488
-0.02928,-0.0122,0.05368,0.06832,0.08296,-0.05612,0.01464,-0.00976,-0.01952,-0.01952,-0.02928,-0.04392
-0.02928,-0.00976,0.0488,0.06344,0.07808,-0.05368,0.01952,-0.00976,-0.01952,-0.01952,-0.02928,-0.03904
-0.02928,-0.01464,0.05856,0.0732,0.08784,-0.05856,0.01464,-0.00976,-0.01952,-0.01464,-0.0244,-0.03904
-0.04392,-0.00244,0.0488,0.07076,0.09272,-0.06832,0.01464,-0.00488,-0.01952,-0.01464,-0.0244,-0.03904
-0.03416,-0.00732,0.0488,0.06588,0.08296,-0.05856,0.01464,-0.00488,-0.01952,-0.01952,-0.02928,-0.04392
-0.03416,-0.00732,0.0488,0.06588,0.08296,-0.05856,0.01464,-0.00488,-0.01952,-0.0244,-0.03416,-0.0488
-0.04392,0.00244,0.03904,0.061,0.08296,-0.06344,0.01952,-0.00488,-0.01464,-0.0244,-0.03416,-0.0488
-0.0488,0.00732,0.03416,0.05856,0.08296,-0.06588,0.0244,0,-0.00976,-0.01952,-0.02928,-0.04392
-0.0488,0.00244,0.04392,0.06832,0.09272,-0.07076,0.0244,0,-0.00976,-0.01464,-0.0244,-0.04392
-0.05368,0,0.05368,0.08052,0.10736,-0.08052,0.0244,0,-0.00976,-0.01464,-0.01952,-0.04392
-0.03904,-0.00488,0.0488,0.06832,0.08784,-0.06344,0.01952,0,-0.00976,-0.01464,-0.01952,-0.04392
-0.01952,-0.01464,0.0488,0.05856,0.06832,-0.04392,0.01464,0,-0.00976,-0.01464,-0.0244,-0.0488
-0.01464,-0.01952,0.05368,0.061,0.06832,-0.04148,0.01464,0.00488,-0.00488,-0.01952,-0.0244,-0.0488
-0.01464,-0.01952,0.05368,0.061,0.06832,-0.04148,0.01952,0.00976,0.00488,-0.01952,-0.0244,-0.04392
-0.03416,-0.00732,0.0488,0.06588,0.08296,-0.05856,0.02928,0.00976,0.00976,-0.01952,-0.01952,-0.04392
-0.03904,-0.00488,0.0488,0.06832,0.08784,-0.06344,0.03416,0.00976,0.00976,-0.01952,-0.01952,-0.04392
-0.03416,-0.00732,0.0488,0.06588,0.08296,-0.05856,0.02928,0.00976,0.00976,-0.01952,-0.01952,-0.04392
-0.02928,-0.00976,0.0488,0.06344,0.07808,-0.05368,0.02928,0.00976,0.00976,-0.01952,-0.01952,-0.04392
-0.02928,-0.01464,0.05856,0.0732,0.08784,-0.05856,0.02928,0.00976,0.01464,-0.01464,-0.00976,-0.03904
-0.02928,-0.01464,0.05856,0.0732,0.08784,-0.05856,0.02928,0.00976,0.01464,-0.00976,-0.00488,-0.03416
-0.02928,-0.0122,0.05368,0.06832,0.08296,-0.05612,0.0244,0.00976,0.01464,-0.01464,-0.00976,-0.03416
-0.02928,-0.0122,0.05368,0.06832,0.08296,-0.05612,0.0244,0.00976,0.01464,-0.01464,-0.00976,-0.03416
-0.02928,-0.0122,0.05368,0.06832,0.08296,-0.05612,0.02928,0.01464,0.0244,-0.01464,-0.01464,-0.03416
-0.01952,-0.01708,0.05368,0.06344,0.0732,-0.04636,0.02928,0.01464,0.01464,-0.01952,-0.01952,-0.03904
-0.01952,-0.0122,0.04392,0.05368,0.06344,-0.04148,0.02928,0.01952,0.01464,-0.01952,-0.01952,-0.03904
-0.0244,-0.00488,0.03416,0.04636,0.05856,-0.04148,0.02928,0.01952,0.0244,-0.01464,-0.01952,-0.03416
-0.03416,-0.00244,0.03904,0.05612,0.0732,-0.05368,0.02928,0.01952,0.0244,-0.00976,-0.01464,-0.03416
-0.03904,-0.00244,0.04392,0.06344,0.08296,-0.061,0.02928,0.01952,0.02928,-0.00488,-0.00976,-0.03416
-0.02928,-0.01464,0.05856,0.0732,0.08784,-0.05856,0.02928,0.0244,0.02928,-0.00488,-0.00976,-0.03416
-0.01952,-0.03172,0.08296,0.09272,0.10248,-0.061,0.03416,0.02928,0.03416,0,-0.00976,-0.03416
-0.00976,-0.02684,0.06344,0.06832,0.0732,-0.04148,0.03416,0.0244,0.03416,0,-0.01464,-0.03416
-0.02928,-0.0122,0.05368,0.06832,0.08296,-0.05612,0.02928,0.01952,0.03904,0.00488,-0.01464,-0.03416
-0.02928,-0.0122,0.05368,0.06832,0.08296,-0.05612,0.02928,0.01952,0.03904,0.00488,-0.01464,-0.03416
-0.03416,-0.0122,0.05856,0.07564,0.09272,-0.06344,0.02928,0.0244,0.04392,0.00488,-0.01464,-0.03416
-0.01952,-0.0244,0.06832,0.07808,0.08784,-0.05368,0.0244,0.0244,0.0488,0.00488,-0.01464,-0.03416
0.00488,-0.03904,0.0732,0.07076,0.06832,-0.03172,0.01952,0.0244,0.05368,0.00976,-0.01464,-0.02928
-0.00488,-0.0366,0.07808,0.08052,0.08296,-0.04392,0.01952,0.04392,0.06832,0.00976,-0.00488,-0.0244
0.00976,-0.04636,0.08296,0.07808,0.0732,-0.03172,0.0244,0.04392,0.0732,0.00976,0,-0.0244
0.00976,-0.04636,0.08296,0.07808,0.0732,-0.03172,0.0244,0.04392,0.07808,0.01464,0,-0.01952
0.00976,-0.04636,0.08296,0.07808,0.0732,-0.03172,0.0244,0.0488,0.08784,0.01952,0.00488,-0.01952
-0.00488,-0.0366,0.07808,0.08052,0.08296,-0.04392,0.01952,0.05368,0.08784,0.01952,0.00976,-0.01952
-0.01952,-0.0244,0.06832,0.07808,0.08784,-0.05368,0.01952,0.05856,0.09272,0.0244,0.00976,-0.01952
-0.00976,-0.03904,0.08784,0.09272,0.0976,-0.05368,0.01952,0.06832,0.10248,0.03416,0.01464,-0.00488
0.02928,-0.0732,0.11712,0.10248,0.08784,-0.02928,0.01952,0.06832,0.11224,0.03416,0.01952,-0.00488
0.01464,-0.06588,0.11712,0.1098,0.10248,-0.04392,0.02928,0.0732,0.11712,0.0488,0.02928,0.00488
0.01464,-0.06588,0.11712,0.1098,0.10248,-0.04392,0.03904,0.0732,0.12688,0.05368,0.03416,0.00976
0.01464,-0.07076,0.12688,0.11956,0.11224,-0.0488,0.0244,0.07808,0.12688,0.05856,0.03904,0.00976
0.01952,-0.07808,0.13664,0.12688,0.11712,-0.0488,0.01464,0.07808,0.12688,0.06344,0.0488,0.01952
0.0244,-0.07808,0.13176,0.11956,0.10736,-0.04148,0.00976,0.07808,0.13176,0.05856,0.05368,0.01952
0.03904,-0.09516,0.15128,0.13176,0.11224,-0.0366,0.00976,0.07808,0.14152,0.06344,0.05856,0.02928
0.03904,-0.09516,0.15128,0.13176,0.11224,-0.0366,0.00488,0.0732,0.14152,0.06344,0.05856,0.0244
0.03904,-0.10004,0.16104,0.14152,0.122,-0.04148,0.00488,0.06832,0.14152,0.06344,0.06344,0.02928
0.03904,-0.10004,0.16104,0.14152,0.122,-0.04148,0,0.06832,0.14152,0.06832,0.06344,0.02928
0.04392,-0.10492,0.16592,0.14396,0.122,-0.03904,-0.00488,0.06344,0.14152,0.0732,0.06832,0.03904
0.04392,-0.1098,0.17568,0.15372,0.13176,-0.04392,-0.01464,0.05368,0.13664,0.0732,0.06832,0.04392
0.04392,-0.11224,0.18056,0.1586,0.13664,-0.04636,-0.01464,0.0488,0.13176,0.06832,0.06832,0.0488
0.03904,-0.11468,0.19032,0.1708,0.15128,-0.05612,-0.00976,0.0488,0.13176,0.06832,0.07808,0.06344
0.04392,-0.11956,0.1952,0.17324,0.15128,-0.05368,-0.00976,0.0488,0.13176,0.06832,0.07808,0.06832
0.05368,-0.122,0.19032,0.16348,0.13664,-0.04148,-0.01464,0.03904,0.13176,0.06832,0.07808,0.06832
0.05368,-0.11956,0.18544,0.1586,0.13176,-0.03904,-0.01464,0.03904,0.12688,0.06832,0.07808,0.06832
0.0488,-0.11468,0.18056,0.15616,0.13176,-0.04148,-0.01952,0.02928,0.122,0.05856,0.06832,0.05368
0.05368,-0.1098,0.16592,0.13908,0.11224,-0.02928,-0.01952,0.01952,0.10736,0.05368,0.06832,0.0488
0.0488,-0.10492,0.16104,0.13664,0.11224,-0.03172,-0.01952,0.01952,0.10248,0.05368,0.06344,0.0488
0.04392,-0.09272,0.14152,0.11956,0.0976,-0.02684,-0.0244,0.00976,0.09272,0.0488,0.05368,0.0488
0.04392,-0.0854,0.12688,0.10492,0.08296,-0.01952,-0.01952,0.00976,0.09272,0.05368,0.0488,0.03904
0.03904,-0.08296,0.12688,0.10736,0.08784,-0.0244,-0.01464,0.00976,0.08784,0.05368,0.0488,0.03416
0.0244,-0.0732,0.122,0.1098,0.0976,-0.0366,-0.01464,0.00488,0.06832,0.04392,0.04392,0.02928
0.0244,-0.06588,0.10736,0.09516,0.08296,-0.02928,-0.01464,0,0.05856,0.03416,0.03904,0.01952
0.00488,-0.05368,0.10248,0.10004,0.0976,-0.04636,-0.01464,-0.00488,0.05856,0.02928,0.03416,0.00976
0.01464,-0.05856,0.10248,0.09516,0.08784,-0.0366,-0.01464,-0.01464,0.04392,0.01952,0.02928,0.00976
0.01464,-0.05612,0.0976,0.09028,0.08296,-0.03416,-0.01464,-0.01464,0.03416,0.01952,0.0244,0.00488
0.01464,-0.04636,0.07808,0.07076,0.06344,-0.0244,-0.01464,-0.0244,0.01952,0.00488,0.01464,0
0.00976,-0.03904,0.06832,0.06344,0.05856,-0.0244,-0.01952,-0.0244,0.00976,0,0.00976,-0.00488
0.00488,-0.03172,0.05856,0.05612,0.05368,-0.0244,-0.0244,-0.0244,0.00488,0,0.00976,-0.00488
0,-0.02684,0.05368,0.05368,0.05368,-0.02684,-0.02928,-0.03416,0,-0.00488,0.00976,-0.01464
0,-0.0244,0.0488,0.0488,0.0488,-0.0244,-0.02928,-0.04392,-0.01464,-0.00976,0,-0.0244
-0.00976,-0.01708,0.04392,0.0488,0.05368,-0.03172,-0.02928,-0.04392,-0.01464,-0.00976,0,-0.0244
-0.01464,-0.0122,0.03904,0.04636,0.05368,-0.03416,-0.02928,-0.04392,-0.01464,-0.01464,-0.00976,-0.02928
0,-0.01708,0.03416,0.03416,0.03416,-0.01708,-0.0244,-0.04392,-0.01952,-0.01952,-0.00976,-0.02928
-0.01952,-0.00488,0.02928,0.03904,0.0488,-0.03416,-0.01952,-0.04392,-0.01952,-0.01952,-0.00976,-0.02928
-0.01464,-0.00488,0.0244,0.03172,0.03904,-0.02684,-0.01464,-0.03904,-0.01952,-0.01952,-0.00976,-0.02928
-0.00488,-0.00976,0.0244,0.02684,0.02928,-0.01708,-0.01464,-0.03904,-0.0244,-0.0244,-0.01464,-0.03416
-0.00488,-0.00732,0.01952,0.02196,0.0244,-0.01464,-0.01464,-0.03416,-0.0244,-0.01952,-0.01464,-0.03416
-0.01464,-0.00244,0.01952,0.02684,0.03416,-0.0244,-0.01952,-0.03416,-0.0244,-0.01952,-0.01464,-0.03416
-0.0244,0.00244,0.01952,0.03172,0.04392,-0.03416,-0.01952,-0.03416,-0.0244,-0.01952,-0.01464,-0.03416
-0.02928,0.00244,0.0244,0.03904,0.05368,-0.04148,-0.01464,-0.03416,-0.01952,-0.01952,-0.01464,-0.03416
-0.02928,0.00244,0.0244,0.03904,0.05368,-0.04148,-0.01464,-0.02928,-0.0244,-0.01952,-0.01952,-0.03904
-0.02928,0.00244,0.0244,0.03904,0.05368,-0.04148,-0.01464,-0.02928,-0.0244,-0.01952,-0.01952,-0.03904
-0.03416,0.00976,0.01464,0.03172,0.0488,-0.04148,-0.01464,-0.02928,-0.0244,-0.02928,-0.01952,-0.03904
-0.02928,0.00976,0.00976,0.0244,0.03904,-0.03416,-0.01464,-0.03416,-0.03416,-0.03904,-0.0244,-0.04392
-0.0244,0.00732,0.00976,0.02196,0.03416,-0.02928,-0.01464,-0.03416,-0.03416,-0.03904,-0.0244,-0.04392
-0.0244,0.00488,0.01464,0.02684,0.03904,-0.03172,-0.01464,-0.03416,-0.02928,-0.03904,-0.0244,-0.04392
-0.0244,0.00488,0.01464,0.02684,0.03904,-0.03172,-0.00976,-0.03416,-0.02928,-0.03416,-0.0244,-0.04392
-0.03416,0.00976,0.01464,0.03172,0.0488,-0.04148,-0.00976,-0.03416,-0.02928,-0.02928,-0.0244,-0.04392
-0.01464,0,0.01464,0.02196,0.02928,-0.02196,-0.00976,-0.03416,-0.02928,-0.02928,-0.02928,-0.04392
-0.01464,0,0.01464,0.02196,0.02928,-0.02196,-0.01464,-0.03416,-0.02928,-0.03416,-0.02928,-0.0488
-0.04392,0.02196,0,0.02196,0.04392,-0.04392,-0.01464,-0.03416,-0.02928,-0.03416,-0.02928,-0.04392
-0.05856,0.03172,-0.00488,0.0244,0.05368,-0.05612,-0.01464,-0.02928,-0.02928,-0.03416,-0.02928,-0.03904
-0.05856,0.02928,0,0.02928,0.05856,-0.05856,-0.01464,-0.02928,-0.02928,-0.03904,-0.02928,-0.03904
-0.05856,0.02684,0.00488,0.03416,0.06344,-0.061,-0.00976,-0.02928,-0.0244,-0.03904,-0.02928,-0.03416
-0.03904,0.00976,0.01952,0.03904,0.05856,-0.0488,-0.00976,-0.01952,-0.0244,-0.03904,-0.02928,-0.03904
-0.01464,-0.00732,0.02928,0.0366,0.04392,-0.02928,-0.01464,-0.03416,-0.0244,-0.03904,-0.02928,-0.05368
-0.01464,-0.00732,0.02928,0.0366,0.04392,-0.02928,-0.01464,-0.03416,-0.0244,-0.03904,-0.02928,-0.05368
-0.01464,-0.00732,0.02928,0.0366,0.04392,-0.02928,-0.01464,-0.02928,-0.01952,-0.03416,-0.02928,-0.0488
-0.01464,-0.0122,0.03904,0.04636,0.05368,-0.03416,-0.01464,-0.0244,-0.01464,-0.02928,-0.0244,-0.03904
-0.01952,-0.00244,0.0244,0.03416,0.04392,-0.03172,-0.01464,-0.0244,-0.01464,-0.02928,-0.0244,-0.03416
-0.01952,-0.00244,0.0244,0.03416,0.04392,-0.03172,-0.01464,-0.0244,-0.01464,-0.0244,-0.01952,-0.03416
-0.0244,0.00244,0.01952,0.03172,0.04392,-0.03416,-0.00976,-0.0244,-0.00976,-0.01952,-0.00976,-0.03416
-0.0244,0,0.0244,0.0366,0.0488,-0.0366,-0.00976,-0.0244,-0.00976,-0.01952,-0.00976,-0.02928
-0.01952,-0.00732,0.03416,0.04392,0.05368,-0.0366,-0.00488,-0.0244,-0.00488,-0.01464,-0.00976,-0.02928
-0.01952,-0.00732,0.03416,0.04392,0.05368,-0.0366,-0.00488,-0.0244,-0.00488,-0.01952,-0.01464,-0.03416
-0.01952,-0.00976,0.03904,0.0488,0.05856,-0.03904,-0.00488,-0.01952,-0.00488,-0.01952,-0.01464,-0.03416
-0.01952,-0.00976,0.03904,0.0488,0.05856,-0.03904,-0.00976,-0.01952,-0.00488,-0.01952,-0.01464,-0.03416
-0.01952,-0.00976,0.03904,0.0488,0.05856,-0.03904,-0.00976,-0.0244,-0.00488,-0.01952,-0.01464,-0.03416
-0.0244,-0.00732,0.03904,0.05124,0.06344,-0.04392,-0.00976,-0.01952,-0.00488,-0.01952,-0.01464,-0.02928
-0.03416,0,0.03416,0.05124,0.06832,-0.05124,-0.00976,-0.01464,-0.00488,-0.01952,-0.01464,-0.0244
-0.03416,0.00488,0.0244,0.04148,0.05856,-0.04636,-0.00976,-0.01464,0,-0.01952,-0.00976,-0.0244
-0.0244,0.00244,0.01952,0.03172,0.04392,-0.03416,-0.00976,-0.01464,0,-0.01952,-0.00976,-0.0244
-0.01464,-0.00732,0.02928,0.0366,0.04392,-0.02928,-0.00976,-0.01464,0,-0.01464,-0.00488,-0.0244
-0.00488,-0.01708,0.03904,0.04148,0.04392,-0.0244,-0.01464,-0.0244,-0.00488,-0.00976,0,-0.0244
-0.00488,-0.01952,0.04392,0.04636,0.0488,-0.02684,-0.01464,-0.0244,-0.00488,-0.00976,0,-0.0244
-0.0244,-0.00976,0.04392,0.05612,0.06832,-0.04636,-0.00488,-0.01464,0.00488,-0.00488,0,-0.01952
-0.03416,0,0.03416,0.05124,0.06832,-0.05124,-0.00488,-0.01464,0.00488,0.00488,0.00488,-0.01952
-0.04392,0.00732,0.02928,0.05124,0.0732,-0.05856,-0.00976,-0.01464,0,-0.00488,0.00488,-0.01952
-0.01464,-0.00732,0.02928,0.0366,0.04392,-0.02928,-0.00976,-0.01464,0,-0.01464,0.00488,-0.01952
0.00976,-0.01708,0.0244,0.01952,0.01464,-0.00244,-0.01464,-0.01952,-0.00488,-0.02928,-0.00488,-0.02928
0,-0.0122,0.0244,0.0244,0.0244,-0.0122,-0.01952,-0.01952,-0.00976,-0.0244,-0.00488,-0.02928
-0.00976,-0.00732,0.0244,0.02928,0.03416,-0.02196,-0.01952,-0.01952,-0.00976,-0.01464,-0.00488,-0.0244
-0.00976,-0.00732,0.0244,0.02928,0.03416,-0.02196,-0.01952,-0.01952,-0.00976,-0.01464,-0.00488,-0.0244
0,-0.00976,0.01952,0.01952,0.01952,-0.00976,-0.01952,-0.01952,-0.00976,-0.01464,-0.00488,-0.0244
-0.0244,0.00488,0.01464,0.02684,0.03904,-0.03172,-0.01952,-0.01952,-0.00976,-0.01464,-0.00488,-0.0244
-0.0244,0.00488,0.01464,0.02684,0.03904,-0.03172,-0.01952,-0.0244,-0.01464,-0.01952,-0.00488,-0.02928
-0.00488,-0.00488,0.01464,0.01708,0.01952,-0.0122,-0.01952,-0.0244,-0.01464,-0.01952,-0.00488,-0.02928
-0.01952,0.00244,0.01464,0.0244,0.03416,-0.02684,-0.01952,-0.0244,-0.01464,-0.01952,-0.00488,-0.02928
-0.01464,0,0.01464,0.02196,0.02928,-0.02196,-0.01952,-0.0244,-0.01464,-0.0244,-0.00488,-0.02928
-0.00488,-0.00488,0.01464,0.01708,0.01952,-0.0122,-0.01952,-0.0244,-0.01952,-0.0244,-0.00488,-0.02928
-0.00488,0,0.00488,0.00732,0.00976,-0.00732,-0.01952,-0.0244,-0.01952,-0.0244,-0.00488,-0.02928
-0.00488,0.00244,0,0.00244,0.00488,-0.00488,-0.01952,-0.0244,-0.01464,-0.01952,-0.00488,-0.02928
-0.00488,-0.00244,0.00976,0.0122,0.01464,-0.00976,-0.01952,-0.0244,-0.01464,-0.01952,-0.00488,-0.02928
0,-0.0122,0.0244,0.0244,0.0244,-0.0122,-0.01464,-0.01952,-0.00976,-0.01952,-0.00488,-0.0244
-0.00488,-0.00976,0.0244,0.02684,0.02928,-0.01708,-0.00976,-0.01952,-0.00976,-0.01952,-0.00488,-0.01952
-0.01464,0.00244,0.00976,0.01708,0.0244,-0.01952,-0.00488,-0.01952,-0.00976,-0.01952,-0.00488,-0.01464
-0.03904,0.01952,0,0.01952,0.03904,-0.03904,-0.00488,-0.01952,-0.00976,-0.01952,-0.00488,-0.01952
-0.04392,0.02196,0,0.02196,0.04392,-0.04392,-0.00488,-0.0244,-0.00976,-0.01952,-0.00488,-0.01952
-0.02928,0.00732,0.01464,0.02928,0.04392,-0.0366,-0.00488,-0.0244,-0.00976,-0.01464,0,-0.01464
-0.01952,-0.00244,0.0244,0.03416,0.04392,-0.03172,0,-0.01952,-0.00976,-0.00976,0.00488,-0.00976
-0.01952,0.00732,0.00488,0.01464,0.0244,-0.02196,0,-0.01952,-0.01464,-0.00976,0,-0.01464
-0.00488,0,0.00488,0.00732,0.00976,-0.00732,0,-0.01952,-0.01464,-0.00976,-0.00488,-0.01952
-0.01464,0.00488,0.00488,0.0122,0.01952,-0.01708,-0.00488,-0.01952,-0.01464,-0.00976,-0.00488,-0.01952
-0.03416,0.02196,-0.00976,0.00732,0.0244,-0.02928,-0.00488,-0.01952,-0.01464,-0.00976,0,-0.01952
-0.01952,0.00976,0,0.00976,0.01952,-0.01952,-0.00488,-0.01952,-0.01464,-0.01464,0,-0.01464
-0.01952,0.00976,0,0.00976,0.01952,-0.01952,-0.00488,-0.01952,-0.01464,-0.01464,0,-0.01464
-0.01952,0.0122,-0.00488,0.00488,0.01464,-0.01708,-0.00976,-0.01952,-0.01464,-0.01464,0,-0.0244
-0.02928,0.02196,-0.01464,0,0.01464,-0.02196,-0.01464,-0.0244,-0.01952,-0.01952,-0.00488,-0.02928
-0.01952,0.01708,-0.01464,-0.00488,0.00488,-0.0122,-0.01464,-0.0244,-0.0244,-0.0244,-0.01464,-0.02928
0,0.00244,-0.00488,-0.00488,-0.00488,0.00244,-0.01464,-0.0244,-0.02928,-0.0244,-0.01952,-0.02928
-0.00976,0.00244,0.00488,0.00976,0.01464,-0.0122,-0.00488,-0.01952,-0.0244,-0.01464,-0.00976,-0.0244
-0.00488,-0.00732,0.01952,0.02196,0.0244,-0.01464,-0.00488,-0.01464,-0.0244,-0.01464,-0.00976,-0.0244
-0.00976,-0.00244,0.01464,0.01952,0.0244,-0.01708,-0.00488,-0.01952,-0.0244,-0.01464,-0.00976,-0.0244
-0.01952,0.00488,0.00976,0.01952,0.02928,-0.0244,-0.00976,-0.02928,-0.02928,-0.01952,-0.00976,-0.02928
-0.0244,0.0122,0,0.0122,0.0244,-0.0244,-0.00976,-0.02928,-0.02928,-0.01952,-0.01464,-0.02928
-0.02928,0.01952,-0.00976,0.00488,0.01952,-0.0244,-0.00976,-0.02928,-0.02928,-0.01952,-0.01952,-0.02928
-0.03416,0.02196,-0.00976,0.00732,0.0244,-0.02928,-0.00976,-0.0244,-0.0244,-0.01952,-0.01952,-0.02928
-0.03904,0.0244,-0.00976,0.00976,0.02928,-0.03416,-0.00976,-0.01952,-0.01952,-0.01952,-0.01952,-0.02928
-0.03904,0.0244,-0.00976,0.00976,0.02928,-0.03416,-0.00976,-0.01952,-0.01952,-0.01952,-0.01464,-0.02928
-0.03904,0.0244,-0.00976,0.00976,0.02928,-0.03416,-0.00976,-0.01952,-0.01952,-0.01952,-0.00976,-0.02928
-0.02928,0.01952,-0.00976,0.00488,0.01952,-0.0244,-0.00976,-0.0244,-0.0244,-0.01952,-0.00976,-0.02928
-0.01952,0.01464,-0.00976,0,0.00976,-0.01464,-0.00976,-0.02928,-0.02928,-0.01952,-0.00976,-0.02928
-0.01952,0.01464,-0.00976,0,0.00976,-0.01464,-0.00976,-0.02928,-0.02928,-0.01952,-0.01464,-0.02928
-0.01952,0.01464,-0.00976,0,0.00976,-0.01464,-0.00976,-0.02928,-0.02928,-0.01952,-0.01952,-0.02928
-0.0244,0.01708,-0.00976,0.00244,0.01464,-0.01952,-0.00976,-0.02928,-0.02928,-0.01952,-0.01952,-0.02928
-0.02928,0.01952,-0.00976,0.00488,0.01952,-0.0244,-0.00976,-0.02928,-0.02928,-0.01952,-0.01952,-0.02928
-0.02928,0.01708,-0.00488,0.00976,0.0244,-0.02684,-0.00976,-0.02928,-0.0244,-0.01952,-0.01952,-0.02928
-0.02928,0.01464,0,0.01464,0.02928,-0.02928,-0.00976,-0.02928,-0.01952,-0.01952,-0.01952,-0.02928
-0.02928,0.01464,0,0.01464,0.02928,-0.02928,-0.00976,-0.02928,-0.01952,-0.01952,-0.01952,-0.02928
-0.02928,0.01464,0,0.01464,0.02928,-0.02928,-0.00976,-0.02928,-0.01952,-0.01952,-0.01952,-0.02928
-0.0244,0.0122,0,0.0122,0.0244,-0.0244,-0.00976,-0.02928,-0.01952,-0.01952,-0.01952,-0.02928
-0.01952,0.00976,0,0.00976,0.01952,-0.01952,-0.00976,-0.02928,-0.01952,-0.01952,-0.01952,-0.02928
-0.01952,0.00976,0,0.00976,0.01952,-0.01952,-0.00976,-0.0244,-0.01952,-0.01952,-0.00976,-0.0244
-0.01952,0.00976,0,0.00976,0.01952,-0.01952,-0.00976,-0.01952,-0.01952,-0.01952,0,-0.01952
-0.0244,0.0122,0,0.0122,0.0244,-0.0244,-0.00488,-0.01952,-0.01952,-0.01464,0,-0.01952
-0.02928,0.01464,0,0.01464,0.02928,-0.02928,0,-0.01952,-0.01952,-0.00976,0,-0.01952
-0.02928,0.01464,0,0.01464,0.02928,-0.02928,0,-0.01952,-0.0244,-0.00976,-0.00488,-0.01952
-0.02928,0.01464,0,0.01464,0.02928,-0.02928,0,-0.01952,-0.02928,-0.00976,-0.00976,-0.01952
-0.02928,0.01464,0,0.01464,0.02928,-0.02928,-0.00488,-0.01952,-0.02928,-0.01464,-0.00976,-0.0244
-0.02928,0.01464,0,0.01464,0.02928,-0.02928,-0.00976,-0.01952,-0.02928,-0.01952,-0.00976,-0.02928
-0.04392,0.02684,-0.00976,0.0122,0.03416,-0.03904,-0.00976,-0.01952,-0.02928,-0.01952,-0.00976,-0.02928
-0.05856,0.03904,-0.01952,0.00976,0.03904,-0.0488,-0.00976,-0.01952,-0.02928,-0.01952,-0.00976,-0.02928
-0.03904,0.0244,-0.00976,0.00976,0.02928,-0.03416,-0.00976,-0.01952,-0.02928,-0.01952,-0.00976,-0.02928
-0.01952,0.00976,0,0.00976,0.01952,-0.01952,-0.00976,-0.01952,-0.02928,-0.01952,-0.00976,-0.02928
-0.01952,0.00976,0,0.00976,0.01952,-0.01952,-0.00976,-0.01952,-0.02928,-0.01952,-0.00976,-0.02928
-0.01952,0.00976,0,0.00976,0.01952,-0.01952,-0.00976,-0.01952,-0.02928,-0.01952,-0.00976,-0.02928
-0.03416,0.01952,-0.00488,0.0122,0.02928,-0.03172,-0.00976,-0.01952,-0.0244,-0.01952,-0.00976,-0.02928
-0.0488,0.02928,-0.00976,0.01464,0.03904,-0.04392,-0.00976,-0.01952,-0.01952,-0.01952,-0.00976,-0.02928
-0.05856,0.04392,-0.02928,0,0.02928,-0.04392,-0.00976,-0.01952,-0.01952,-0.02928,-0.00976,-0.02928
-0.06832,0.05856,-0.0488,-0.01464,0.01952,-0.04392,-0.00976,-0.01952,-0.01952,-0.03904,-0.00976,-0.02928
-0.03416,0.0244,-0.01464,0.00244,0.01952,-0.02684,-0.00976,-0.01952,-0.01952,-0.02928,-0.00976,-0.02928
0,-0.00976,0.01952,0.01952,0.01952,-0.00976,-0.00976,-0.01952,-0.01952,-0.01952,-0.00976,-0.02928
-0.00976,0,0.00976,0.01464,0.01952,-0.01464,-0.00976,-0.01952,-0.01952,-0.01952,-0.00976,-0.02928
-0.01464,0.00732,0,0.00732,0.01464,-0.01464,-0.00976,-0.01952,-0.01464,-0.01952,-0.00976,-0.0244
-0.0244,0.01464,-0.00488,0.00732,0.01952,-0.02196,-0.00976,-0.01952,-0.01464,-0.01952,-0.00976,-0.0244
-0.0244,0.01708,-0.00976,0.00244,0.01464,-0.01952,-0.00976,-0.01952,-0.01464,-0.01952,-0.00976,-0.0244
-0.0244,0.01708,-0.00976,0.00244,0.01464,-0.01952,-0.01464,-0.01952,-0.01464,-0.01952,-0.00488,-0.01952
-0.01952,0.01464,-0.00976,0,0.00976,-0.01464,-0.01952,-0.0244,-0.01952,-0.0244,-0.00488,-0.01464
-0.00976,0.00488,0,0.00488,0.00976,-0.00976,-0.01952,-0.01952,-0.00976,-0.01952,0,-0.01464
-0.00976,0.00488,0,0.00488,0.00976,-0.00976,-0.00976,-0.01464,-0.00488,-0.00976,0.00488,-0.01464
-0.00976,0.00732,-0.00488,0,0.00488,-0.00732,0,-0.00488,0,-0.00488,0.00488,-0.00488
-0.00976,0.00976,-0.00976,-0.00488,0,-0.00488,0.00488,0.00488,0,-0.00488,0,-0.00488
0.00488,-0.00732,0.00976,0.00732,0.00488,0,0.00488,0.00488,0.00488,0,0.00488,-0.00488
0.00488,-0.00976,0.01464,0.0122,0.00976,-0.00244,0.00976,0.00976,0.0244,0.00976,0.01464,0.00488
0.01464,-0.02196,0.02928,0.02196,0.01464,0,-0.00488,0.01464,0.03416,0.01952,0.0244,0.00976
0.0244,-0.03416,0.04392,0.03172,0.01952,0.00244,-0.00976,0.01464,0.04392,0.02928,0.03904,0.01952
0.03904,-0.0366,0.03416,0.01464,-0.00488,0.02196,-0.0244,0.01464,0.04392,0.02928,0.03904,0.00976
0.05856,-0.04636,0.03416,0.00488,-0.0244,0.04148,-0.02928,0.00488,0.03904,0.0244,0.02928,0.00976
0.0488,-0.04392,0.03904,0.01464,-0.00976,0.02928,-0.03416,0,0.03904,0.02928,0.02928,0.01952
0.02928,-0.0366,0.04392,0.02928,0.01464,0.00732,-0.03904,-0.00488,0.01952,0.01952,0.0244,0.0244
0.01464,-0.02196,0.02928,0.02196,0.01464,0,-0.03904,-0.01952,0.01464,0.01464,0.02928,0.01464
0.00488,-0.01464,0.0244,0.02196,0.01952,-0.00732,-0.0488,-0.02928,0,0.00488,0.01952,0.00976
0.00488,-0.01464,0.0244,0.02196,0.01952,-0.00732,-0.0488,-0.03416,-0.00488,0.00488,0.01952,0.00976
0.0244,-0.0244,0.0244,0.0122,0,0.0122,-0.04392,-0.03416,-0.00488,0.00488,0.01952,0.00976
0.01464,-0.00976,0.00488,-0.00244,-0.00976,0.0122,-0.04392,-0.03416,-0.01464,-0.00488,0.01464,0.00488
0.01464,0,-0.01464,-0.02196,-0.02928,0.02196,-0.0488,-0.03904,-0.0244,-0.01464,0.00488,-0.00488
0.00976,0.00244,-0.01464,-0.01952,-0.0244,0.01708,-0.04392,-0.03904,-0.03416,-0.02928,-0.00488,-0.01464
0.01464,0,-0.01464,-0.02196,-0.02928,0.02196,-0.04392,-0.03416,-0.03416,-0.02928,-0.00488,-0.01952
0.01464,-0.00488,-0.00488,-0.0122,-0.01952,0.01708,-0.03904,-0.03416,-0.02928,-0.02928,-0.01464,-0.0244
0,0.00488,-0.00976,-0.00976,-0.00976,0.00488,-0.03416,-0.03416,-0.02928,-0.0244,-0.01464,-0.02928
-0.02928,0.0244,-0.01952,-0.00488,0.00976,-0.01952,-0.01952,-0.02928,-0.02928,-0.0244,-0.01464,-0.02928
-0.03904,0.03416,-0.02928,-0.00976,0.00976,-0.0244,-0.00976,-0.02928,-0.03904,-0.03904,-0.01952,-0.03416
-0.04392,0.03904,-0.03416,-0.0122,0.00976,-0.02684,-0.00488,-0.02928,-0.03904,-0.04392,-0.01952,-0.03416
-0.0488,0.04636,-0.04392,-0.01952,0.00488,-0.02684,-0.00488,-0.02928,-0.03904,-0.04392,-0.01952,-0.03416
-0.0488,0.04636,-0.04392,-0.01952,0.00488,-0.02684,-0.00976,-0.03416,-0.03904,-0.03904,-0.01952,-0.03416
-0.0488,0.04636,-0.04392,-0.01952,0.00488,-0.02684,-0.01464,-0.03416,-0.03904,-0.03904,-0.01952,-0.03416
-0.05368,0.05368,-0.05368,-0.02684,0,-0.02684,-0.01464,-0.03416,-0.04392,-0.03904,-0.01952,-0.03416
-0.06344,0.06344,-0.06344,-0.03172,0,-0.03172,-0.01464,-0.03416,-0.04392,-0.03904,-0.01952,-0.03416
-0.04392,0.04392,-0.04392,-0.02196,0,-0.02196,-0.00976,-0.03416,-0.04392,-0.03904,-0.0244,-0.03416
-0.03904,0.04148,-0.04392,-0.0244,-0.00488,-0.01708,-0.00488,-0.03416,-0.04392,-0.03416,-0.0244,-0.03416
-0.0488,0.04636,-0.04392,-0.01952,0.00488,-0.02684,0,-0.0244,-0.03904,-0.02928,-0.01464,-0.03416
-0.03904,0.04148,-0.04392,-0.0244,-0.00488,-0.01708,0,-0.01464,-0.03416,-0.02928,-0.01464,-0.03416
-0.05368,0.0488,-0.04392,-0.01708,0.00976,-0.03172,0,-0.01464,-0.03416,-0.02928,-0.01464,-0.03416
-0.08296,0.06344,-0.04392,-0.00244,0.03904,-0.061,0,-0.01464,-0.02928,-0.02928,-0.01464,-0.03416
-0.04392,0.03172,-0.01952,0.00244,0.0244,-0.03416,0,-0.01464,-0.02928,-0.02928,-0.01952,-0.03416
-0.01952,0.00976,0,0.00976,0.01952,-0.01952,0.00488,-0.00976,-0.02928,-0.02928,-0.01952,-0.03416
-0.03416,0.02928,-0.0244,-0.00732,0.00976,-0.02196,0.00976,0,-0.02928,-0.03904,-0.0244,-0.0488
-0.03904,0.02684,-0.01464,0.00488,0.0244,-0.03172,0.00976,-0.00488,-0.00488,-0.01952,-0.00976,-0.03416
-0.0244,0.00976,0.00488,0.01708,0.02928,-0.02684,-0.03416,-0.02928,0.0488,0.05368,0.0488,0.00976
0.05856,-0.0366,0.01464,-0.01464,-0.04392,0.05124,-0.07808,-0.05368,0.122,0.1464,0.11712,0.0732
0.13176,-0.08784,0.04392,-0.02196,-0.08784,0.1098,-0.1464,-0.11224,0.18056,0.2684,0.2196,0.15128
0.26352,-0.20008,0.13664,0.00488,-0.12688,0.1952,-0.28792,-0.25376,0.20496,0.42456,0.36112,0.27816
0.38552,-0.32208,0.25864,0.06588,-0.12688,0.2562,-0.4636,-0.44408,0.244,0.61,0.57584,0.47824
0.50752,-0.41968,0.33184,0.07808,-0.17568,0.3416,-0.64904,-0.64904,0.11224,0.64904,0.67832,0.59536
0.58072,-0.42944,0.27816,-0.0122,-0.30256,0.44164,-0.74664,-0.7564,-0.18544,0.42456,0.54656,0.52704
0.54168,-0.31476,0.08784,-0.183,-0.45384,0.49776,-0.74176,-0.8052,-0.62464,-0.02928,0.20984,0.2928
0.35136,-0.11224,-0.12688,-0.30256,-0.47824,0.4148,-0.66368,-0.81984,-1.02968,-0.4636,-0.122,0.01464
0.1952,0.0244,-0.244,-0.3416,-0.4392,0.3172,-0.56608,-0.79056,-1.15656,-0.62952,-0.28792,-0.14152
0.08296,0.11468,-0.31232,-0.3538,-0.39528,0.23912,-0.45872,-0.6832,-1.05408,-0.62952,-0.32208,-0.19032
0.0244,0.11956,-0.26352,-0.27572,-0.28792,0.15616,-0.3416,-0.5124,-0.81984,-0.50752,-0.26352,-0.16104
0.00976,0.05856,-0.12688,-0.13176,-0.13664,0.0732,-0.25376,-0.36112,-0.57584,-0.3416,-0.1708,-0.09272
0,0.02684,-0.05368,-0.05368,-0.05368,0.02684,-0.18544,-0.244,-0.3904,-0.2196,-0.10736,-0.05856
-0.00488,0.01464,-0.0244,-0.02196,-0.01952,0.00732,-0.13176,-0.1708,-0.2684,-0.15128,-0.07808,-0.04392
-0.01952,0.01952,-0.01952,-0.00976,0,-0.00976,-0.08784,-0.13176,-0.20008,-0.11224,-0.05856,-0.03416
-0.00976,0.00732,-0.00488,0,0.00488,-0.00732,-0.05856,-0.09272,-0.13176,-0.07808,-0.03904,-0.02928
0.00976,-0.00732,0.00488,0,-0.00488,0.00732,-0.0244,-0.05856,-0.08784,-0.05368,-0.0244,-0.02928
-0.00488,0.00488,-0.00488,-0.00244,0,-0.00244,-0.00976,-0.03904,-0.05856,-0.04392,-0.0244,-0.02928
-0.02928,0.01952,-0.00976,0.00488,0.01952,-0.0244,0.00488,-0.0244,-0.03416,-0.03904,-0.01952,-0.0244
-0.01464,0.0122,-0.00976,-0.00244,0.00488,-0.00976,0.00488,-0.0244,-0.02928,-0.03416,-0.01952,-0.0244
-0.03416,0.0244,-0.01464,0.00244,0.01952,-0.02684,0.00976,-0.01464,-0.01952,-0.0244,-0.01464,-0.0244
-0.03416,0.01952,-0.00488,0.0122,0.02928,-0.03172,0.01464,-0.00488,-0.00976,-0.0244,-0.00976,-0.0244
-0.03904,0.01464,0.00976,0.02928,0.0488,-0.04392,0.01952,0.00488,-0.00488,-0.0244,-0.00488,-0.0244
-0.04392,0.0244,-0.00488,0.01708,0.03904,-0.04148,0.01952,0.00976,0,-0.01952,-0.00488,-0.01952
-0.0488,0.03416,-0.01952,0.00488,0.02928,-0.03904,0.0244,0.00976,0,-0.01464,0,-0.01952
-0.0244,0.01708,-0.00976,0.00244,0.01464,-0.01952,0.0244,0.01952,0.00488,-0.01464,0,-0.01952
-0.03904,0.0244,-0.00976,0.00976,0.02928,-0.03416,0.0244,0.02928,0.01952,-0.00976,0,-0.01952
-0.03904,0.0244,-0.00976,0.00976,0.02928,-0.03416,0.02928,0.02928,0.0244,-0.00976,0,-0.01952
-0.03904,0.01952,0,0.01952,0.03904,-0.03904,0.02928,0.02928,0.02928,-0.00488,0.00488,-0.01952
-0.03904,0.01708,0.00488,0.0244,0.04392,-0.04148,0.03416,0.03416,0.02928,0,0.00488,-0.01952
-0.01464,-0.00244,0.01952,0.02684,0.03416,-0.0244,0.03416,0.03416,0.02928,0.00488,0.00488,-0.01952
-0.0244,0.00732,0.00976,0.02196,0.03416,-0.02928,0.03416,0.03416,0.02928,0.00488,0.00488,-0.01952
-0.03416,0.01708,0,0.01708,0.03416,-0.03416,0.03416,0.03416,0.03416,0.00488,0.00488,-0.01952
-0.03904,0.02196,-0.00488,0.01464,0.03416,-0.0366,0.03416,0.03904,0.03904,0.00976,0.00488,-0.01464
-0.0488,0.03172,-0.01464,0.00976,0.03416,-0.04148,0.03416,0.03904,0.03904,0.00976,0,-0.01464
-0.04392,0.0244,-0.00488,0.01708,0.03904,-0.04148,0.03416,0.03904,0.03904,0.00488,0,-0.01464
-0.03416,0.01708,0,0.01708,0.03416,-0.03416,0.03416,0.03904,0.03904,0.00488,0,-0.01464
-0.02928,0.01464,0,0.01464,0.02928,-0.02928,0.03416,0.03904,0.03904,0.00488,-0.00488,-0.01952
-0.0244,0.00976,0.00488,0.01708,0.02928,-0.02684,0.03416,0.04392,0.03904,0.00488,-0.00488,-0.01952
-0.0244,0.00976,0.00488,0.01708,0.02928,-0.02684,0.03416,0.04392,0.03904,0.00488,-0.00488,-0.0244
-0.03904,0.01952,0,0.01952,0.03904,-0.03904,0.03416,0.03904,0.03904,0,0,-0.03416
-0.05368,0.02928,-0.00488,0.02196,0.0488,-0.05124,0.03416,0.03904,0.03904,0,-0.00488,-0.03416
-0.06344,0.0366,-0.00976,0.02196,0.05368,-0.05856,0.02928,0.03904,0.03904,0,-0.00976,-0.03416
-0.03416,0.02196,-0.00976,0.00732,0.0244,-0.02928,0.03416,0.03904,0.04392,0,-0.00976,-0.02928
-0.00976,0.00488,0,0.00488,0.00976,-0.00976,0.03904,0.03904,0.05368,0,-0.00488,-0.0244
-0.0244,0.0122,0,0.0122,0.0244,-0.0244,0.04392,0.0488,0.05856,0.00976,0.00976,-0.01952
-0.03904,0.02196,-0.00488,0.01464,0.03416,-0.0366,0.04392,0.05856,0.06344,0.01464,0.01952,-0.01464
-0.03904,0.01708,0.00488,0.0244,0.04392,-0.04148,0.05368,0.05856,0.06344,0.01464,0.01952,-0.00488
-0.03904,0.0122,0.01464,0.03416,0.05368,-0.04636,0.06832,0.06344,0.0732,0.01952,0.01952,0.00488
-0.01952,0.00244,0.01464,0.0244,0.03416,-0.02684,0.05856,0.06344,0.06344,0.01464,0.01464,-0.00976
-0.00976,-0.00244,0.01464,0.01952,0.0244,-0.01708,0.0488,0.06832,0.06344,0.00976,0.00976,-0.01952
-0.04392,0.01952,0.00488,0.02684,0.0488,-0.04636,0.0488,0.06832,0.0732,0.01464,0.00976,-0.01464
-0.0732,0.0366,0,0.0366,0.0732,-0.0732,0.0488,0.06832,0.0732,0.01464,0.00976,-0.01464
-0.05368,0.0244,0.00488,0.03172,0.05856,-0.05612,0.0488,0.06832,0.0732,0.01464,0.00488,-0.01952
-0.03904,0.01708,0.00488,0.0244,0.04392,-0.04148,0.0488,0.0732,0.06832,0.01464,0,-0.0244
-0.03416,0.00976,0.01464,0.03172,0.0488,-0.04148,0.05368,0.07808,0.0732,0.01952,0,-0.0244
-0.01952,0.00732,0.00488,0.01464,0.0244,-0.02196,0.05368,0.07808,0.0732,0.01952,0,-0.0244
-0.03416,0.0122,0.00976,0.02684,0.04392,-0.03904,0.0488,0.07808,0.07808,0.0244,0.00488,-0.0244
-0.01952,0.00244,0.01464,0.0244,0.03416,-0.02684,0.0488,0.07808,0.07808,0.0244,0.00488,-0.0244
-0.01464,-0.00244,0.01952,0.02684,0.03416,-0.0244,0.0488,0.08296,0.08784,0.0244,0.00488,-0.01952
-0.01464,-0.00488,0.0244,0.03172,0.03904,-0.02684,0.0488,0.08296,0.0976,0.0244,0.00488,-0.01464
-0.00488,-0.00976,0.0244,0.02684,0.02928,-0.01708,0.0488,0.08296,0.10248,0.02928,0.00488,-0.00976
-0.01952,-0.00488,0.02928,0.03904,0.0488,-0.03416,0.0488,0.10248,0.11712,0.03416,0.01464,-0.00488
-0.00976,-0.0122,0.03416,0.03904,0.04392,-0.02684,0.05368,0.10248,0.122,0.03904,0.01952,-0.00976
-0.00976,-0.01464,0.03904,0.04392,0.0488,-0.02928,0.05368,0.10248,0.12688,0.04392,0.01952,-0.00976
-0.00976,-0.01708,0.04392,0.0488,0.05368,-0.03172,0.05368,0.11224,0.13664,0.0488,0.0244,-0.00976
-0.00488,-0.02196,0.0488,0.05124,0.05368,-0.02928,0.0488,0.11712,0.13664,0.0488,0.02928,-0.00976
-0.00488,-0.02196,0.0488,0.05124,0.05368,-0.02928,0.0488,0.11712,0.14152,0.05368,0.02928,-0.00976
-0.00976,-0.0244,0.05856,0.06344,0.06832,-0.03904,0.0488,0.12688,0.15128,0.06344,0.03416,0.00488
0.01952,-0.04636,0.0732,0.06344,0.05368,-0.01708,0.0488,0.12688,0.16104,0.06344,0.03904,0.00488
0.00488,-0.0366,0.06832,0.06588,0.06344,-0.02928,0.0488,0.13176,0.16592,0.0732,0.04392,0.01464
-0.00488,-0.03172,0.06832,0.07076,0.0732,-0.03904,0.05368,0.13176,0.17568,0.0732,0.04392,0.01952
-0.01464,-0.03172,0.07808,0.0854,0.09272,-0.05368,0.05368,0.13664,0.18056,0.07808,0.0488,0.01952
0.00488,-0.05124,0.0976,0.09516,0.09272,-0.04392,0.05368,0.13664,0.18544,0.08296,0.06344,0.03416
0.0244,-0.06588,0.10736,0.09516,0.08296,-0.02928,0.0488,0.13664,0.19032,0.08296,0.0732,0.03904
0.03904,-0.0854,0.13176,0.11224,0.09272,-0.02684,0.05368,0.13664,0.20984,0.0976,0.08296,0.05368
0.03904,-0.0854,0.13176,0.11224,0.09272,-0.02684,0.05368,0.13664,0.2196,0.10248,0.08784,0.05856
0.03416,-0.08784,0.14152,0.12444,0.10736,-0.0366,0.05368,0.13664,0.2196,0.10248,0.09272,0.06832
0.0244,-0.08296,0.14152,0.12932,0.11712,-0.04636,0.0488,0.13664,0.2196,0.10736,0.09272,0.06832
0.0244,-0.0854,0.1464,0.1342,0.122,-0.0488,0.04392,0.13176,0.2196,0.11224,0.0976,0.07808
0.0244,-0.08784,0.15128,0.13908,0.12688,-0.05124,0.03416,0.122,0.21472,0.11224,0.0976,0.07808
0.0244,-0.0854,0.1464,0.1342,0.122,-0.0488,0.03416,0.11712,0.20984,0.10736,0.0976,0.0732
0.0244,-0.08784,0.15128,0.13908,0.12688,-0.05124,0.03416,0.11224,0.20984,0.10736,0.10736,0.07808
0.0244,-0.09028,0.15616,0.14396,0.13176,-0.05368,0.02928,0.10736,0.20984,0.10736,0.10736,0.07808
0.0244,-0.09028,0.15616,0.14396,0.13176,-0.05368,0.0244,0.0976,0.20496,0.10736,0.10736,0.07808
0.04392,-0.10004,0.15616,0.1342,0.11224,-0.03416,0.01464,0.0976,0.19032,0.10736,0.10248,0.07808
0.05368,-0.10248,0.15128,0.12444,0.0976,-0.02196,0,0.08784,0.18056,0.0976,0.08784,0.06832
0.04392,-0.08784,0.13176,0.1098,0.08784,-0.02196,0,0.0732,0.16104,0.08784,0.08296,0.06344
0.02928,-0.07564,0.122,0.10736,0.09272,-0.03172,0,0.06832,0.15128,0.08296,0.07808,0.05856
0.0244,-0.06344,0.10248,0.09028,0.07808,-0.02684,-0.00488,0.05856,0.13176,0.07808,0.0732,0.05856
0.0244,-0.05612,0.08784,0.07564,0.06344,-0.01952,-0.00488,0.05368,0.11712,0.07808,0.06832,0.0488
0.04392,-0.07564,0.10736,0.0854,0.06344,-0.00976,-0.00488,0.0488,0.122,0.07808,0.07808,0.05368
0.06832,-0.09516,0.122,0.08784,0.05368,0.00732,-0.00488,0.04392,0.11712,0.0732,0.07808,0.05856
0.06344,-0.07808,0.09272,0.061,0.02928,0.01708,-0.00488,0.03904,0.0976,0.06344,0.06832,0.0488
0.01464,-0.03904,0.06344,0.05612,0.0488,-0.01708,-0.00488,0.03416,0.08784,0.05856,0.06344,0.03904
0.01464,-0.03416,0.05368,0.04636,0.03904,-0.0122,-0.00488,0.0244,0.0732,0.0488,0.05368,0.03904
0.01464,-0.03172,0.0488,0.04148,0.03416,-0.00976,-0.00488,0.0244,0.06344,0.0488,0.04392,0.02928
0.00976,-0.01952,0.02928,0.0244,0.01952,-0.00488,-0.00488,0.01464,0.0488,0.03416,0.03416,0.01952
-0.00488,-0.00732,0.01952,0.02196,0.0244,-0.01464,-0.00488,0.01464,0.03904,0.02928,0.02928,0.01464
-0.01464,0.00244,0.00976,0.01708,0.0244,-0.01952,-0.00488,0.01464,0.03416,0.02928,0.02928,0.01464
-0.01952,0.00488,0.00976,0.01952,0.02928,-0.0244,-0.00488,0.00976,0.02928,0.0244,0.02928,0.00976
-0.01464,0.00244,0.00976,0.01708,0.0244,-0.01952,-0.00488,0,0.01464,0.00976,0.01464,0.00488
-0.01464,0.00488,0.00488,0.0122,0.01952,-0.01708,-0.00976,-0.00488,0.01464,0,0.00976,0.00488
-0.01464,0.00976,-0.00488,0.00244,0.00976,-0.0122,-0.00976,-0.00488,0.00976,-0.00488,0,-0.00488
0,0.00732,-0.01464,-0.01464,-0.01464,0.00732,-0.00976,-0.00488,0,-0.00976,0,-0.00976
-0.01952,0.01952,-0.01952,-0.00976,0,-0.00976,-0.00976,-0.00488,0,-0.00488,0.00488,-0.00976
-0.01952,0.02196,-0.0244,-0.01464,-0.00488,-0.00732,-0.00488,0,0,0,0.00976,-0.00976
-0.0244,0.0244,-0.0244,-0.0122,0,-0.0122,-0.00488,0.00488,-0.00488,-0.00488,0.00488,-0.01464
-0.03416,0.03172,-0.02928,-0.0122,0.00488,-0.01952,-0.00488,0.00976,-0.00488,-0.00488,0.00488,-0.01464
-0.0244,0.0244,-0.0244,-0.0122,0,-0.0122,-0.00976,0.00488,-0.00488,-0.00976,0.00488,-0.01464
-0.00488,0.0122,-0.01952,-0.01708,-0.01464,0.00488,-0.00976,0.00488,-0.00976,-0.00976,0.00488,-0.01464
0,0.00732,-0.01464,-0.01464,-0.01464,0.00732,-0.00488,0.00488,-0.00976,-0.00976,0.00488,-0.01464
0,0.00732,-0.01464,-0.01464,-0.01464,0.00732,-0.00488,0.00976,-0.01464,-0.00976,0,-0.01952
-0.01464,0.01464,-0.01464,-0.00732,0,-0.00732,-0.00488,0.00976,-0.00976,-0.00976,0,-0.01464
-0.03904,0.03172,-0.0244,-0.00488,0.01464,-0.02684,-0.00488,0.00976,-0.00488,-0.01464,0,-0.00976
-0.03904,0.03172,-0.0244,-0.00488,0.01464,-0.02684,-0.00488,0.00488,-0.01464,-0.01952,-0.00488,-0.01464
-0.03416,0.02684,-0.01952,-0.00244,0.01464,-0.0244,-0.00488,0.00488,-0.01464,-0.01952,-0.00488,-0.01464
-0.0244,0.01952,-0.01464,-0.00244,0.00976,-0.01708,-0.00488,0,-0.00976,-0.01464,-0.00488,-0.01464
-0.01952,0.01708,-0.01464,-0.00488,0.00488,-0.0122,0,-0.00488,-0.00976,-0.00976,-0.00488,-0.01464
-0.03416,0.0244,-0.01464,0.00244,0.01952,-0.02684,0,-0.00488,-0.00976,-0.00976,-0.00488,-0.01464
-0.01464,0.01464,-0.01464,-0.00732,0,-0.00732,0,-0.00488,-0.00976,-0.00976,-0.00976,-0.01464
-0.01952,0.02196,-0.0244,-0.01464,-0.00488,-0.00732,-0.00488,-0.00488,-0.00976,-0.01952,-0.00976,-0.01952
-0.03904,0.04148,-0.04392,-0.0244,-0.00488,-0.01708,-0.00488,-0.00488,-0.00976,-0.0244,-0.00976,-0.01952
-0.03904,0.04148,-0.04392,-0.0244,-0.00488,-0.01708,-0.00488,0,-0.01464,-0.0244,-0.00976,-0.0244
-0.03904,0.03904,-0.03904,-0.01952,0,-0.01952,-0.00488,0,-0.01952,-0.0244,-0.00976,-0.02928
-0.0488,0.04392,-0.03904,-0.01464,0.00976,-0.02928,0,0,-0.01464,-0.01952,-0.00976,-0.0244
-0.05856,0.0488,-0.03904,-0.00976,0.01952,-0.03904,0,0.00976,-0.01464,-0.01952,-0.00976,-0.0244
-0.04392,0.04148,-0.03904,-0.01708,0.00488,-0.0244,-0.00488,-0.00488,-0.01464,-0.0244,-0.00976,-0.03416
-0.03416,0.0366,-0.03904,-0.02196,-0.00488,-0.01464,-0.00488,-0.00488,-0.01464,-0.02928,-0.00976,-0.03416
-0.03416,0.0366,-0.03904,-0.02196,-0.00488,-0.01464,0,0,-0.00976,-0.0244,-0.01464,-0.02928
-0.02928,0.02684,-0.0244,-0.00976,0.00488,-0.01708,0.00488,0.00488,-0.00488,-0.01952,-0.01464,-0.0244
-0.03416,0.03416,-0.03416,-0.01708,0,-0.01708,0.00488,0.00488,-0.00488,-0.01952,-0.01464,-0.0244
-0.03904,0.0366,-0.03416,-0.01464,0.00488,-0.02196,0.00488,0.00488,-0.00488,-0.01952,-0.01464,-0.0244
-0.04392,0.03904,-0.03416,-0.0122,0.00976,-0.02684,0.00976,0.00488,0,-0.01464,-0.00976,-0.0244
-0.04392,0.0366,-0.02928,-0.00732,0.01464,-0.02928,0.00976,0.00488,0,-0.00976,-0.00976,-0.01952
-0.03904,0.03172,-0.0244,-0.00488,0.01464,-0.02684,0.01464,0.00488,0.00488,-0.00488,-0.00976,-0.01952
-0.03904,0.03172,-0.0244,-0.00488,0.01464,-0.02684,0.01464,0.00488,0.00488,-0.00488,-0.00976,-0.01952
-0.03416,0.02684,-0.01952,-0.00244,0.01464,-0.0244,0.00976,0.00976,0.00488,-0.00488,-0.00488,-0.01952
-0.02928,0.0244,-0.01952,-0.00488,0.00976,-0.01952,0,0.00976,0.00488,-0.00976,-0.00488,-0.0244
-0.02928,0.0244,-0.01952,-0.00488,0.00976,-0.01952,0,0.00488,0.00488,-0.00976,-0.00488,-0.0244
-0.02928,0.0244,-0.01952,-0.00488,0.00976,-0.01952,0,0.00488,0.00488,-0.00976,-0.00488,-0.0244
-0.03904,0.03172,-0.0244,-0.00488,0.01464,-0.02684,0.00488,0.00976,0.00976,-0.00976,-0.00488,-0.01952
-0.04392,0.03416,-0.0244,-0.00244,0.01952,-0.03172,0.00976,0.01464,0.01952,-0.00976,0,-0.01464
-0.03416,0.02684,-0.01952,-0.00244,0.01464,-0.0244,0.00976,0.01464,0.01952,-0.00976,0,-0.00976
-0.02928,0.0244,-0.01952,-0.00488,0.00976,-0.01952,0.00976,0.01464,0.01952,-0.00976,0,-0.00488
-0.01952,0.01952,-0.01952,-0.00976,0,-0.00976,0.00488,0.00488,0.01464,-0.00976,0,-0.00488
-0.01464,0.01464,-0.01464,-0.00732,0,-0.00732,0.00488,0.00488,0.01464,-0.00976,0,-0.00488
-0.03416,0.0244,-0.01464,0.00244,0.01952,-0.02684,0.01464,0.01464,0.0244,-0.00488,0,0
-0.03416,0.02684,-0.01952,-0.00244,0.01464,-0.0244,0.01464,0.01464,0.0244,0.00488,0.00488,0
-0.03416,0.02684,-0.01952,-0.00244,0.01464,-0.0244,0.00976,0.01464,0.01952,0,0.00488,0
-0.0244,0.02196,-0.01952,-0.00732,0.00488,-0.01464,0.00976,0.01464,0.01952,0.00488,0.00488,0
-0.01952,0.01952,-0.01952,-0.00976,0,-0.00976,0.00488,0.00976,0.01464,0,0,-0.00976
-0.01952,0.01708,-0.01464,-0.00488,0.00488,-0.0122,0,0.00976,0.00976,-0.00488,0.00488,-0.00976
-0.02928,0.02196,-0.01464,0,0.01464,-0.02196,0.00488,0.00976,0.00976,-0.00488,0.00488,-0.00488
-0.03904,0.02684,-0.01464,0.00488,0.0244,-0.03172,0.00976,0.00976,0.00976,-0.00488,0.00488,-0.00488
-0.01464,0.01952,-0.0244,-0.01708,-0.00976,-0.00244,0.00976,0.00976,0.00976,-0.00488,0.00488,-0.00488
-0.0244,0.02928,-0.03416,-0.02196,-0.00976,-0.00732,0.00976,0.00976,0.00976,0,0.00488,-0.00488
-0.03416,0.03416,-0.03416,-0.01708,0,-0.01708,0.00488,0.00488,0.00488,0,0.00488,-0.00976
-0.0244,0.02928,-0.03416,-0.02196,-0.00976,-0.00732,0,0.00488,0.00488,0,0.00488,-0.00976
-0.03904,0.03416,-0.02928,-0.00976,0.00976,-0.0244,0,0.00488,0.00488,0,0.00488,-0.00976
-0.03904,0.03172,-0.0244,-0.00488,0.01464,-0.02684,0,0.00488,0.00488,-0.00488,0.00488,-0.00976
-0.02928,0.02684,-0.0244,-0.00976,0.00488,-0.01708,0,0,0,-0.00488,0,-0.01464
-0.0244,0.0244,-0.0244,-0.0122,0,-0.0122,0,-0.00488,-0.00488,-0.00976,-0.00488,-0.01952
-0.0244,0.0244,-0.0244,-0.0122,0,-0.0122,-0.00488,-0.00488,-0.00976,-0.00976,-0.00488,-0.01952
-0.0244,0.02684,-0.02928,-0.01708,-0.00488,-0.00976,-0.00976,-0.00488,-0.01464,-0.00976,-0.00488,-0.01952
-0.01952,0.02196,-0.0244,-0.01464,-0.00488,-0.00732,-0.00488,0,-0.00976,-0.00976,-0.00488,-0.01464
-0.01952,0.02196,-0.0244,-0.01464,-0.00488,-0.00732,-0.00488,0,-0.00976,-0.00976,-0.00488,-0.01464
-0.0244,0.03172,-0.03904,-0.02684,-0.01464,-0.00488,-0.00488,0,-0.00976,-0.00976,-0.00488,-0.01464
-0.03416,0.04148,-0.0488,-0.03172,-0.01464,-0.00976,-0.00488,0,-0.00976,-0.00976,-0.00488,-0.01952
-0.0244,0.03172,-0.03904,-0.02684,-0.01464,-0.00488,-0.00488,0,-0.00488,-0.00976,0,-0.01464
-0.0244,0.0244,-0.0244,-0.0122,0,-0.0122,-0.00976,0,0,-0.00976,0.00488,-0.00976
-0.01952,0.02196,-0.0244,-0.01464,-0.00488,-0.00732,-0.00976,0,0,-0.00976,0.00488,-0.00976
-0.00976,0.02196,-0.03416,-0.02928,-0.0244,0.00732,-0.00976,0,-0.00488,-0.00976,0,-0.01464
-0.00488,0.01464,-0.0244,-0.02196,-0.01952,0.00732,-0.00976,0,-0.00488,-0.00976,-0.00488,-0.01952
-0.0244,0.0244,-0.0244,-0.0122,0,-0.0122,-0.00976,0,-0.00488,-0.00976,-0.00488,-0.01952
-0.05368,0.04636,-0.03904,-0.0122,0.01464,-0.03416,-0.00488,0,-0.00488,-0.00976,0,-0.01952
-0.04392,0.0366,-0.02928,-0.00732,0.01464,-0.02928,-0.00488,0,-0.00488,-0.01464,0,-0.01464
-0.02928,0.0244,-0.01952,-0.00488,0.00976,-0.01952,-0.00488,0,-0.00488,-0.01464,0,-0.01464
-0.01952,0.01464,-0.00976,0,0.00976,-0.01464,-0.00488,0,-0.00488,-0.01464,0,-0.01952
-0.02928,0.02928,-0.02928,-0.01464,0,-0.01464,-0.00488,-0.00488,-0.01464,-0.01952,-0.00488,-0.01952
-0.02928,0.0366,-0.04392,-0.02928,-0.01464,-0.00732,-0.00488,-0.00488,-0.01952,-0.01952,-0.00976,-0.01952
-0.01952,0.02684,-0.03416,-0.0244,-0.01464,-0.00244,-0.00488,-0.00488,-0.01952,-0.01464,-0.01464,-0.01952
-0.02928,0.03172,-0.03416,-0.01952,-0.00488,-0.0122,0,0,-0.01464,-0.00488,-0.00976,-0.01464
-0.0244,0.0244,-0.0244,-0.0122,0,-0.0122,-0.00488,0,-0.01464,-0.00488,-0.00976,-0.00976
-0.01952,0.01952,-0.01952,-0.00976,0,-0.00976,-0.00976,0,-0.01952,-0.00976,-0.00976,-0.00976
-0.01952,0.02196,-0.0244,-0.01464,-0.00488,-0.00732,-0.00976,-0.00488,-0.01952,-0.01464,-0.00976,-0.01464
-0.01952,0.0244,-0.02928,-0.01952,-0.00976,-0.00488,-0.00976,-0.00976,-0.01952,-0.01952,-0.00976,-0.01952
-0.01952,0.0244,-0.02928,-0.01952,-0.00976,-0.00488,-0.00976,-0.00976,-0.01464,-0.01952,-0.00976,-0.01952
-0.01952,0.0244,-0.02928,-0.01952,-0.00976,-0.00488,-0.00976,-0.00976,-0.00976,-0.01952,-0.00976,-0.01952
-0.01952,0.0244,-0.02928,-0.01952,-0.00976,-0.00488,-0.00976,-0.00976,-0.00976,-0.01952,-0.00976,-0.01952
-0.01952,0.0244,-0.02928,-0.01952,-0.00976,-0.00488,-0.00976,-0.00976,-0.00976,-0.01952,-0.00976,-0.01952
-0.02928,0.02928,-0.02928,-0.01464,0,-0.01464,0,0,-0.00976,-0.01952,-0.00488,-0.01952
-0.03904,0.03416,-0.02928,-0.00976,0.00976,-0.0244,0.00976,0.00976,-0.00976,-0.01952,0,-0.01952
-0.03904,0.03416,-0.02928,-0.00976,0.00976,-0.0244,0,0,-0.00976,-0.01952,0,-0.01952
-0.03904,0.03416,-0.02928,-0.00976,0.00976,-0.0244,-0.00976,-0.00976,-0.00976,-0.01952,0,-0.01952
-0.03416,0.03416,-0.03416,-0.01708,0,-0.01708,-0.01464,-0.01464,-0.01464,-0.0244,-0.00488,-0.0244
-0.02928,0.03416,-0.03904,-0.0244,-0.00976,-0.00976,-0.01952,-0.01952,-0.01952,-0.02928,-0.00976,-0.02928
-0.02928,0.03416,-0.03904,-0.0244,-0.00976,-0.00976,-0.01952,-0.01952,-0.01952,-0.02928,-0.00976,-0.02928
-0.02928,0.03416,-0.03904,-0.0244,-0.00976,-0.00976,-0.01952,-0.01952,-0.01952,-0.02928,-0.00976,-0.02928
-0.02928,0.03172,-0.03416,-0.01952,-0.00488,-0.0122,-0.01464,-0.00976,-0.01464,-0.01952,-0.00976,-0.0244
-0.02928,0.02928,-0.02928,-0.01464,0,-0.01464,-0.00976,0,-0.00976,-0.00976,-0.00976,-0.01952
-0.01952,0.02196,-0.0244,-0.01464,-0.00488,-0.00732,-0.00976,0,-0.00976,-0.00976,-0.00976,-0.01952
-0.00976,0.01464,-0.01952,-0.01464,-0.00976,0,-0.00976,0,-0.00976,-0.00976,-0.00976,-0.01952
-0.01952,0.01952,-0.01952,-0.00976,0,-0.00976,-0.00976,-0.00488,-0.00976,-0.01464,-0.00976,-0.01952
-0.02928,0.0244,-0.01952,-0.00488,0.00976,-0.01952,-0.00976,-0.00976,-0.00976,-0.01952,-0.00976,-0.01952
-0.03904,0.03172,-0.0244,-0.00488,0.01464,-0.02684,-0.00976,-0.00976,-0.00976,-0.01952,-0.00976,-0.01952
-0.0488,0.03904,-0.02928,-0.00488,0.01952,-0.03416,-0.00976,-0.00976,-0.00976,-0.01952,-0.00976,-0.01952
-0.01464,0.02196,-0.02928,-0.02196,-0.01464,0,-0.00976,-0.00976,-0.01464,-0.0244,-0.00976,-0.01952
0.01952,0.00488,-0.02928,-0.03904,-0.0488,0.03416,-0.00976,-0.00976,-0.01952,-0.02928,-0.00976,-0.01952
-0.00488,0.01708,-0.02928,-0.02684,-0.0244,0.00976,-0.00976,-0.00976,-0.01952,-0.02928,-0.00976,-0.01952
-0.02928,0.02928,-0.02928,-0.01464,0,-0.01464,-0.00976,-0.00976,-0.01952,-0.02928,-0.00976,-0.01952
-0.02928,0.02928,-0.02928,-0.01464,0,-0.01464,-0.00976,-0.00976,-0.01464,-0.0244,-0.00488,-0.01952
-0.02928,0.02928,-0.02928,-0.01464,0,-0.01464,-0.00976,-0.00976,-0.00976,-0.01952,0,-0.01952
-0.02928,0.02928,-0.02928,-0.01464,0,-0.01464,-0.00488,-0.00488,-0.00976,-0.01464,0,-0.01464
-0.02928,0.02928,-0.02928,-0.01464,0,-0.01464,0,0,-0.00976,-0.00976,0,-0.00976
-0.0244,0.02684,-0.02928,-0.01708,-0.00488,-0.00976,0,0,-0.00976,-0.00976,0,-0.00976
-0.01952,0.0244,-0.02928,-0.01952,-0.00976,-0.00488,0,0,-0.00976,-0.00976,0,-0.00976
-0.00976,0.01952,-0.02928,-0.0244,-0.01952,0.00488,-0.00488,-0.00488,-0.01464,-0.01952,-0.00976,-0.01952
0,0.01464,-0.02928,-0.02928,-0.02928,0.01464,-0.00976,-0.00976,-0.01952,-0.02928,-0.01952,-0.02928
-0.0244,0.02684,-0.02928,-0.01708,-0.00488,-0.00976,-0.00976,-0.00976,-0.01952,-0.02928,-0.01952,-0.02928
-0.0488,0.03904,-0.02928,-0.00488,0.01952,-0.03416,-0.00976,-0.00976,-0.01952,-0.02928,-0.01952,-0.02928
-0.0488,0.03904,-0.02928,-0.00488,0.01952,-0.03416,-0.00976,-0.00976,-0.01952,-0.02928,-0.01952,-0.02928
-0.0488,0.03904,-0.02928,-0.00488,0.01952,-0.03416,-0.00976,-0.00976,-0.01952,-0.02928,-0.01952,-0.02928
-0.0244,0.02684,-0.02928,-0.01708,-0.00488,-0.00976,-0.00976,-0.00976,-0.01952,-0.02928,-0.01952,-0.02928
0,0.01464,-0.02928,-0.02928,-0.02928,0.01464,-0.00976,-0.00976,-0.01952,-0.02928,-0.01952,-0.02928
-0.01952,0.0244,-0.02928,-0.01952,-0.00976,-0.00488,-0.00976,-0.00976,-0.01952,-0.0244,-0.01464,-0.02928
-0.03904,0.03416,-0.02928,-0.00976,0.00976,-0.0244,-0.00976,-0.00976,-0.01952,-0.01952,-0.00976,-0.02928
-0.03904,0.03416,-0.02928,-0.00976,0.00976,-0.0244,-0.00976,-0.00976,-0.01952,-0.01952,-0.00976,-0.02928
-0.03904,0.03416,-0.02928,-0.00976,0.00976,-0.0244,-0.00976,-0.00976,-0.01952,-0.01952,-0.00976,-0.02928
-0.03904,0.03416,-0.02928,-0.00976,0.00976,-0.0244,-0.00976,-0.00976,-0.01952,-0.01952,-0.00976,-0.0244
-0.03416,0.02928,-0.0244,-0.00732,0.00976,-0.02196,-0.00976,-0.00976,-0.01464,-0.01952,-0.00976,-0.01952
-0.03416,0.02684,-0.01952,-0.00244,0.01464,-0.0244,-0.00976,-0.00976,-0.01464,-0.01952,-0.00976,-0.01464
-0.03416,0.02684,-0.01952,-0.00244,0.01464,-0.0244,-0.00976,-0.00488,-0.00976,-0.01464,-0.00488,-0.00976
-0.02928,0.03416,-0.03904,-0.0244,-0.00976,-0.00976,-0.01464,-0.00488,-0.01464,-0.01952,-0.00976,-0.00976
-0.01952,0.03416,-0.0488,-0.03904,-0.02928,0.00488,-0.01952,0,-0.00976,-0.01952,-0.00976,-0.01464
-0.01464,0.02684,-0.03904,-0.03172,-0.0244,0.00488,-0.00976,0.00488,-0.00488,-0.00976,-0.00488,-0.01464
-0.00976,0.01952,-0.02928,-0.0244,-0.01952,0.00488,-0.00488,0.00976,0,-0.00488,0,-0.00488
-0.00976,0.01952,-0.02928,-0.0244,-0.01952,0.00488,0,0.01464,0,-0.00488,0,-0.00488
0.00488,0.00244,-0.00976,-0.0122,-0.01464,0.00976,0,0.01464,0.00488,0,0.00488,-0.00488
0.00976,-0.00244,-0.00488,-0.00976,-0.01464,0.0122,0.00488,0.0244,0.02928,0.00976,0.01464,0.00488
0.0244,-0.01464,0.00488,-0.00732,-0.01952,0.02196,-0.00488,0.02928,0.03416,0.01464,0.01952,0.00976
0.04392,-0.03416,0.0244,0.00244,-0.01952,0.03172,-0.00976,0.02928,0.03904,0.0244,0.03416,0.0244
0.06344,-0.04392,0.0244,-0.00732,-0.03904,0.05124,-0.0244,0.02928,0.04392,0.02928,0.03904,0.01952
0.06832,-0.04636,0.0244,-0.00976,-0.04392,0.05612,-0.02928,0.0244,0.04392,0.02928,0.02928,0.01952
0.0488,-0.0366,0.0244,0,-0.0244,0.0366,-0.02928,0.02928,0.0488,0.03416,0.02928,0.0244
0.02928,-0.02684,0.0244,0.00976,-0.00488,0.01708,-0.02928,0.00976,0.02928,0.01952,0.0244,0.0244
0.0244,-0.01708,0.00976,-0.00244,-0.01464,0.01952,-0.02928,-0.01464,0.0244,0.01464,0.0244,0.01464
0.02928,-0.02196,0.01464,0,-0.01464,0.02196,-0.04392,-0.0244,0.00976,0.00488,0.00976,0.00976
0.03416,-0.02928,0.0244,0.00732,-0.00976,0.02196,-0.0488,-0.03416,0.00488,0.00488,0.00976,0.00976
0.05368,-0.03416,0.01464,-0.0122,-0.03904,0.04636,-0.04392,-0.03416,-0.00488,-0.00488,0.00976,0
0.02928,-0.00732,-0.01464,-0.02928,-0.04392,0.0366,-0.03416,-0.02928,-0.01952,-0.01952,0.00488,-0.01464
0.01464,0.00976,-0.03416,-0.04148,-0.0488,0.03172,-0.02928,-0.0244,-0.01464,-0.01464,0,-0.00976
0.00488,0.01464,-0.03416,-0.0366,-0.03904,0.02196,-0.0244,-0.01952,-0.01464,-0.01952,-0.00488,-0.00488
-0.00976,0.0244,-0.03904,-0.03416,-0.02928,0.00976,-0.01952,-0.01464,-0.01464,-0.01952,-0.00488,-0.00976
-0.03416,0.04148,-0.0488,-0.03172,-0.01464,-0.00976,-0.00976,-0.01464,-0.01464,-0.0244,-0.01464,-0.01464
-0.05856,0.06344,-0.06832,-0.03904,-0.00976,-0.0244,-0.00488,-0.01464,-0.0244,-0.0244,-0.01952,-0.0244
-0.06832,0.06832,-0.06832,-0.03416,0,-0.03416,0,-0.00976,-0.02928,-0.0244,-0.0244,-0.02928
-0.0488,0.05612,-0.06344,-0.03904,-0.01464,-0.01708,-0.00488,-0.00976,-0.03904,-0.03904,-0.02928,-0.03416
-0.03904,0.0488,-0.05856,-0.03904,-0.01952,-0.00976,-0.00488,-0.00976,-0.03904,-0.03904,-0.02928,-0.03416
-0.03904,0.05124,-0.06344,-0.04392,-0.0244,-0.00732,-0.00488,-0.00976,-0.03904,-0.03904,-0.02928,-0.03416
-0.03904,0.05124,-0.06344,-0.04392,-0.0244,-0.00732,-0.00488,-0.00976,-0.03904,-0.03904,-0.02928,-0.03416
-0.02928,0.04392,-0.05856,-0.04392,-0.02928,0,0,-0.00488,-0.03904,-0.03904,-0.02928,-0.03416
-0.0244,0.03904,-0.05368,-0.04148,-0.02928,0.00244,0.00488,-0.00488,-0.03904,-0.03904,-0.02928,-0.03416
-0.0488,0.05124,-0.05368,-0.02928,-0.00488,-0.02196,0.00488,-0.00488,-0.03416,-0.03416,-0.02928,-0.03416
-0.0488,0.04636,-0.04392,-0.01952,0.00488,-0.02684,0.00488,-0.00488,-0.03416,-0.03416,-0.03416,-0.03416
-0.05856,0.05856,-0.05856,-0.02928,0,-0.02928,0.00488,-0.00488,-0.03416,-0.03416,-0.03416,-0.03416
-0.07808,0.07076,-0.06344,-0.0244,0.01464,-0.04636,0.00976,-0.00488,-0.03416,-0.02928,-0.0244,-0.03416
-0.0488,0.05612,-0.06344,-0.03904,-0.01464,-0.01708,0.00488,-0.00488,-0.03904,-0.03416,-0.0244,-0.03416
-0.02928,0.04636,-0.06344,-0.0488,-0.03416,0.00244,0,-0.00488,-0.04392,-0.03904,-0.0244,-0.03416
-0.04392,0.05368,-0.06344,-0.04148,-0.01952,-0.0122,0,-0.00488,-0.03904,-0.03904,-0.0244,-0.03416
-0.02928,0.04392,-0.05856,-0.04392,-0.02928,0,0,-0.00488,-0.03904,-0.03904,-0.02928,-0.03416
-0.02928,0.04392,-0.05856,-0.04392,-0.02928,0,0.00976,0,-0.04392,-0.04392,-0.03416,-0.03416
-0.02928,0.0488,-0.06832,-0.05368,-0.03904,0.00488,0.01952,0.01464,-0.03904,-0.0488,-0.03904,-0.04392
-0.04392,0.0488,-0.05368,-0.03172,-0.00976,-0.01708,0.0244,0.01952,-0.00976,-0.0244,-0.01952,-0.0244
-0.0488,0.04636,-0.04392,-0.01952,0.00488,-0.02684,-0.00976,0.00976,0.03904,0.04392,0.03904,0.01952
0.03904,0,-0.03904,-0.05856,-0.07808,0.05856,-0.03416,0,0.11224,0.11712,0.09272,0.06344
0.11224,-0.0488,-0.01464,-0.07076,-0.12688,0.11956,-0.08784,-0.05368,0.1708,0.2196,0.19032,0.13176
0.27328,-0.17568,0.07808,-0.05856,-0.1952,0.23424,-0.23912,-0.1952,0.20496,0.38552,0.3416,0.2684
0.41968,-0.30744,0.1952,-0.01464,-0.22448,0.32208,-0.4148,-0.38064,0.22936,0.54168,0.5124,0.43432
0.54656,-0.41968,0.2928,0.01952,-0.25376,0.40016,-0.61,-0.59536,0.12688,0.61,0.62952,0.56608
0.59048,-0.42944,0.2684,-0.02684,-0.32208,0.45628,-0.71248,-0.71736,-0.10248,0.45384,0.55632,0.5368
0.52704,-0.29768,0.06832,-0.1952,-0.45872,0.49288,-0.69784,-0.77104,-0.55144,-0.0244,0.20008,0.28304
0.35136,-0.11224,-0.12688,-0.30256,-0.47824,0.4148,-0.62464,-0.79056,-0.93208,-0.42944,-0.11224,0.03416
0.18056,0.01952,-0.2196,-0.30988,-0.40016,0.29036,-0.52704,-0.7808,-1.05408,-0.56608,-0.25864,-0.10248
0.07808,0.10004,-0.27816,-0.3172,-0.35624,0.21716,-0.4392,-0.7076,-1.01504,-0.59048,-0.31232,-0.1708
0.03904,0.08784,-0.21472,-0.23424,-0.25376,0.1464,-0.33184,-0.5368,-0.79056,-0.46848,-0.25376,-0.14152
0.0244,0.04148,-0.10736,-0.11956,-0.13176,0.07808,-0.23424,-0.37088,-0.55144,-0.32208,-0.16592,-0.08296
0.01464,0.0244,-0.06344,-0.07076,-0.07808,0.04636,-0.16592,-0.244,-0.38064,-0.2196,-0.10736,-0.05856
0.00488,0.01464,-0.03416,-0.0366,-0.03904,0.02196,-0.11712,-0.15616,-0.25864,-0.15128,-0.07808,-0.04392
-0.01464,0.0244,-0.03416,-0.02684,-0.01952,0.00244,-0.06832,-0.10736,-0.19032,-0.11224,-0.05856,-0.02928
-0.01952,0.02684,-0.03416,-0.0244,-0.01464,-0.00244,-0.03416,-0.06344,-0.12688,-0.07808,-0.03904,-0.01952
-0.01952,0.02684,-0.03416,-0.0244,-0.01464,-0.00244,-0.00488,-0.0244,-0.08296,-0.0488,-0.01952,-0.01952
-0.02928,0.03172,-0.03416,-0.01952,-0.00488,-0.0122,0.00976,0,-0.05368,-0.03416,-0.01464,-0.01952
-0.03904,0.03416,-0.02928,-0.00976,0.00976,-0.0244,0.0244,0.01464,-0.03416,-0.02928,-0.00976,-0.01464
-0.0244,0.02684,-0.02928,-0.01708,-0.00488,-0.00976,0.0244,0.01464,-0.02928,-0.0244,-0.00976,-0.01464
-0.0488,0.03904,-0.02928,-0.00488,0.01952,-0.03416,0.02928,0.02928,-0.01464,-0.01464,-0.00488,-0.01464
-0.05368,0.04148,-0.02928,-0.00244,0.0244,-0.03904,0.03416,0.03904,0,-0.01464,-0.00488,-0.01464
-0.05856,0.04392,-0.02928,0,0.02928,-0.04392,0.03904,0.04392,0.00488,-0.01464,-0.00976,-0.01952
-0.05856,0.04392,-0.02928,0,0.02928,-0.04392,0.03904,0.0488,0.00976,-0.00976,-0.01464,-0.01952
-0.04392,0.0366,-0.02928,-0.00732,0.01464,-0.02928,0.04392,0.04392,0.00976,-0.00488,-0.00976,-0.01952
-0.00488,0.0122,-0.01952,-0.01708,-0.01464,0.00488,0.04392,0.04392,0.01464,-0.00488,-0.00976,-0.01952
-0.01952,0.01952,-0.01952,-0.00976,0,-0.00976,0.04392,0.0488,0.02928,-0.00488,-0.00976,-0.01464
-0.01952,0.01952,-0.01952,-0.00976,0,-0.00976,0.0488,0.0488,0.02928,-0.00976,-0.00976,-0.00976
-0.0244,0.01952,-0.01464,-0.00244,0.00976,-0.01708,0.0488,0.0488,0.02928,-0.00488,-0.00488,-0.00976
-0.04392,0.0366,-0.02928,-0.00732,0.01464,-0.02928,0.05368,0.05368,0.02928,-0.00488,-0.00488,-0.00976
-0.03416,0.03172,-0.02928,-0.0122,0.00488,-0.01952,0.05368,0.05368,0.02928,-0.00488,-0.00488,-0.00976
-0.03416,0.03172,-0.02928,-0.0122,0.00488,-0.01952,0.05368,0.05368,0.02928,-0.00488,-0.00488,-0.00976
-0.04392,0.03904,-0.03416,-0.0122,0.00976,-0.02684,0.05368,0.05368,0.02928,-0.00488,-0.00488,-0.00976
-0.0488,0.04148,-0.03416,-0.00976,0.01464,-0.03172,0.05368,0.05856,0.02928,0,0,-0.00488
-0.01952,0.02684,-0.03416,-0.0244,-0.01464,-0.00244,0.05368,0.05856,0.02928,0,0,-0.00488
0.00488,0.01464,-0.03416,-0.0366,-0.03904,0.02196,0.05368,0.05856,0.02928,-0.00488,0,-0.00488
-0.0244,0.02928,-0.03416,-0.02196,-0.00976,-0.00732,0.05368,0.05856,0.02928,-0.00488,0,-0.00488
-0.0488,0.03904,-0.02928,-0.00488,0.01952,-0.03416,0.05368,0.05856,0.02928,-0.00488,-0.00488,-0.00976
-0.02928,0.02684,-0.0244,-0.00976,0.00488,-0.01708,0.05368,0.06344,0.02928,-0.00488,-0.00488,-0.00976
-0.01464,0.01952,-0.0244,-0.01708,-0.00976,-0.00244,0.05856,0.06832,0.03416,0,-0.00488,-0.00488
-0.04392,0.0366,-0.02928,-0.00732,0.01464,-0.02928,0.06832,0.0732,0.03904,0.00488,0,-0.00488
-0.05856,0.04392,-0.02928,0,0.02928,-0.04392,0.0732,0.07808,0.03904,0.00976,0,-0.00488
-0.04392,0.0366,-0.02928,-0.00732,0.01464,-0.02928,0.06832,0.07808,0.03904,0.00976,0,-0.00488
-0.02928,0.02928,-0.02928,-0.01464,0,-0.01464,0.06832,0.07808,0.03904,0.00976,0,-0.00488
-0.01464,0.01708,-0.01952,-0.0122,-0.00488,-0.00488,0.06832,0.07808,0.04392,0.00976,0.00488,-0.00488
0,0.00976,-0.01952,-0.01952,-0.01952,0.00976,0.06832,0.07808,0.04392,0.00976,0.00488,-0.00488
-0.01952,0.01952,-0.01952,-0.00976,0,-0.00976,0.06344,0.07808,0.04392,0.00488,0,-0.00488
-0.03904,0.02684,-0.01464,0.00488,0.0244,-0.03172,0.06344,0.07808,0.04392,0.00488,0,-0.00488
-0.03904,0.02684,-0.01464,0.00488,0.0244,-0.03172,0.06832,0.08296,0.05368,0.00976,0,-0.00488
-0.02928,0.02196,-0.01464,0,0.01464,-0.02196,0.06832,0.08296,0.04392,0.00976,0,-0.00976
-0.02928,0.02684,-0.0244,-0.00976,0.00488,-0.01708,0.06832,0.09272,0.04392,0.00976,0,-0.00976
-0.03416,0.03416,-0.03416,-0.01708,0,-0.01708,0.06832,0.0976,0.05368,0.01464,0,-0.00488
-0.04392,0.04392,-0.04392,-0.02196,0,-0.02196,0.06832,0.0976,0.05368,0.01464,0,-0.00488
-0.0488,0.05124,-0.05368,-0.02928,-0.00488,-0.02196,0.06832,0.0976,0.05856,0.01464,0,-0.00488
-0.03904,0.0366,-0.03416,-0.01464,0.00488,-0.02196,0.06832,0.10248,0.05856,0.01464,0.00488,-0.00488
-0.02928,0.01708,-0.00488,0.00976,0.0244,-0.02684,0.0732,0.10736,0.06344,0.01952,0.00976,-0.00488
-0.01952,0.0122,-0.00488,0.00488,0.01464,-0.01708,0.0732,0.10736,0.06344,0.02928,0.00976,-0.00488
-0.03904,0.01708,0.00488,0.0244,0.04392,-0.04148,0.06832,0.10736,0.06832,0.04392,0.01464,-0.00488
-0.00976,0.00732,-0.00488,0,0.00488,-0.00732,0.05856,0.10248,0.06344,0.02928,0.00976,-0.00976
0.01464,-0.00244,-0.00976,-0.01708,-0.0244,0.01952,0.0488,0.10248,0.06344,0.01464,0.00488,-0.01464
0,0.00488,-0.00976,-0.00976,-0.00976,0.00488,0.05856,0.10248,0.06832,0.01464,0.00488,-0.01464
-0.00488,0.00976,-0.01464,-0.0122,-0.00976,0.00244,0.06832,0.10248,0.0732,0.01952,0.00488,-0.00976
-0.03416,0.02196,-0.00976,0.00732,0.0244,-0.02928,0.06832,0.122,0.08784,0.02928,0.01464,0
-0.03904,0.02196,-0.00488,0.01464,0.03416,-0.0366,0.0732,0.122,0.09272,0.03904,0.01952,0.00488
-0.02928,0.01464,0,0.01464,0.02928,-0.02928,0.0732,0.122,0.0976,0.04392,0.01952,0.00976
-0.01952,0.00732,0.00488,0.01464,0.0244,-0.02196,0.0732,0.12688,0.10736,0.0488,0.0244,0.00976
-0.01464,0,0.01464,0.02196,0.02928,-0.02196,0.0732,0.13176,0.11224,0.0488,0.03416,0.01464
-0.00976,-0.00488,0.01952,0.0244,0.02928,-0.01952,0.07808,0.13664,0.122,0.05368,0.03904,0.01952
-0.00488,-0.0122,0.02928,0.03172,0.03416,-0.01952,0.07808,0.1464,0.13176,0.06344,0.04392,0.03416
0.02928,-0.03904,0.0488,0.03416,0.01952,0.00488,0.07808,0.1464,0.14152,0.06344,0.0488,0.03416
0.01464,-0.02684,0.03904,0.03172,0.0244,-0.00488,0.07808,0.15128,0.1464,0.0732,0.05368,0.03904
0.01464,-0.02196,0.02928,0.02196,0.01464,0,0.07808,0.15128,0.15616,0.0732,0.05368,0.03904
0.02928,-0.04636,0.06344,0.0488,0.03416,-0.00244,0.0732,0.15616,0.16104,0.08296,0.05856,0.03904
0.0488,-0.0732,0.0976,0.0732,0.0488,0,0.0732,0.15616,0.16592,0.09272,0.06832,0.0488
0.04392,-0.06344,0.08296,0.061,0.03904,0.00244,0.06832,0.15616,0.1708,0.09272,0.0732,0.0488
0.0488,-0.07076,0.09272,0.06832,0.04392,0.00244,0.06832,0.15616,0.18056,0.10248,0.07808,0.05856
0.0488,-0.06832,0.08784,0.06344,0.03904,0.00488,0.06344,0.15128,0.18056,0.0976,0.0732,0.05856
0.0488,-0.07076,0.09272,0.06832,0.04392,0.00244,0.06344,0.1464,0.18056,0.09272,0.0732,0.06832
0.05856,-0.07564,0.09272,0.06344,0.03416,0.0122,0.05856,0.1464,0.18056,0.0976,0.0732,0.06832
0.0732,-0.0854,0.0976,0.061,0.0244,0.0244,0.05368,0.14152,0.18056,0.10248,0.07808,0.07808
0.0488,-0.07564,0.10248,0.07808,0.05368,-0.00244,0.04392,0.13664,0.18056,0.10736,0.07808,0.07808
0.0244,-0.06344,0.10248,0.09028,0.07808,-0.02684,0.04392,0.13664,0.18056,0.10736,0.07808,0.07808
0.0244,-0.0732,0.122,0.1098,0.0976,-0.0366,0.04392,0.13176,0.18056,0.10736,0.08784,0.08784
0.03416,-0.0854,0.13664,0.11956,0.10248,-0.03416,0.03904,0.12688,0.18056,0.10736,0.08784,0.08784
0.06344,-0.10004,0.13664,0.10492,0.0732,-0.00488,0.03416,0.11712,0.17568,0.10248,0.08784,0.08784
0.08296,-0.1098,0.13664,0.09516,0.05368,0.01464,0.03416,0.11712,0.16592,0.0976,0.08784,0.08784
0.05856,-0.09028,0.122,0.09272,0.06344,-0.00244,0.02928,0.10736,0.16104,0.08784,0.07808,0.07808
0.04392,-0.07076,0.0976,0.07564,0.05368,-0.00488,0.02928,0.0976,0.1464,0.08296,0.07808,0.07808
0.03904,-0.06588,0.09272,0.0732,0.05368,-0.00732,0.02928,0.0976,0.14152,0.08296,0.07808,0.07808
0.03416,-0.05368,0.0732,0.05612,0.03904,-0.00244,0.0244,0.08784,0.13176,0.07808,0.0732,0.07808
0.03416,-0.04636,0.05856,0.04148,0.0244,0.00488,0.01464,0.08296,0.122,0.07808,0.06832,0.06832
0.02928,-0.04392,0.05856,0.04392,0.02928,0,0.00488,0.07808,0.10736,0.0732,0.06832,0.06344
0.0244,-0.03904,0.05368,0.04148,0.02928,-0.00244,0.01464,0.0732,0.08784,0.06832,0.05856,0.06344
0.03416,-0.0366,0.03904,0.02196,0.00488,0.01464,0.0244,0.06832,0.07808,0.06344,0.0488,0.05856
0.00488,-0.01464,0.0244,0.02196,0.01952,-0.00732,0.0244,0.06344,0.07808,0.05856,0.04392,0.0488
0.00488,-0.00976,0.01464,0.0122,0.00976,-0.00244,0.0244,0.05368,0.06344,0.0488,0.03904,0.0488
0.0244,-0.01708,0.00976,-0.00244,-0.01464,0.01952,0.0244,0.0488,0.05368,0.04392,0.03416,0.03416
0.04392,-0.01708,-0.00976,-0.03172,-0.05368,0.0488,0.0244,0.03416,0.03904,0.0244,0.0244,0.01952
0.03416,-0.01708,0,-0.01708,-0.03416,0.03416,0.0244,0.03416,0.03416,0.01952,0.01952,0.01464
0.0244,-0.01708,0.00976,-0.00244,-0.01464,0.01952,0.0244,0.03416,0.03416,0.01952,0.01952,0.01464
0.01952,-0.00976,0,-0.00976,-0.01952,0.01952,0.0244,0.03416,0.02928,0.01464,0.01952,0.00976
0.01952,-0.00488,-0.00976,-0.01952,-0.02928,0.0244,0.02928,0.03416,0.01464,0.00976,0.00976,0.00488
-0.01464,0.01952,-0.0244,-0.01708,-0.00976,-0.00244,0.03416,0.03416,0.00976,0.00976,0.00976,0.00488
-0.04392,0.04148,-0.03904,-0.01708,0.00488,-0.0244,0.03904,0.03416,0.00488,0.00488,0,0
-0.01464,0.02928,-0.04392,-0.0366,-0.02928,0.00732,0.03904,0.03416,0,0,0,0
-0.01952,0.03416,-0.0488,-0.03904,-0.02928,0.00488,0.03904,0.03416,0,0,0,0
-0.01952,0.0366,-0.05368,-0.04392,-0.03416,0.00732,0.03904,0.03904,0,0,0,0
-0.01464,0.03416,-0.05368,-0.04636,-0.03904,0.0122,0.03416,0.03904,-0.00488,-0.00488,-0.00488,-0.00488
-0.00488,0.03172,-0.05856,-0.05612,-0.05368,0.0244,0.03416,0.03416,-0.00488,-0.00488,-0.00976,-0.00488
-0.00488,0.03172,-0.05856,-0.05612,-0.05368,0.0244,0.02928,0.0244,-0.00488,-0.00976,-0.01464,-0.00488
-0.01952,0.03904,-0.05856,-0.0488,-0.03904,0.00976,0.02928,0.01952,-0.00976,-0.00976,-0.01464,-0.00488
-0.02928,0.04148,-0.05368,-0.03904,-0.0244,-0.00244,0.03416,0.01464,-0.00976,-0.00976,-0.01464,-0.00488
-0.01952,0.0366,-0.05368,-0.04392,-0.03416,0.00732,0.03416,0.01952,-0.01464,-0.00976,-0.01952,-0.00976
-0.00976,0.03172,-0.05368,-0.0488,-0.04392,0.01708,0.03416,0.01952,-0.01464,-0.00976,-0.01952,-0.00976
-0.01952,0.04392,-0.06832,-0.05856,-0.0488,0.01464,0.02928,0.01952,-0.01464,-0.01464,-0.01952,-0.01464
-0.01952,0.0488,-0.07808,-0.06832,-0.05856,0.01952,0.0244,0.01464,-0.0244,-0.01952,-0.0244,-0.0244
-0.01464,0.04636,-0.07808,-0.07076,-0.06344,0.0244,0.0244,0.01464,-0.0244,-0.01952,-0.0244,-0.0244
-0.01464,0.04392,-0.0732,-0.06588,-0.05856,0.02196,0.0244,0.01464,-0.01952,-0.01952,-0.0244,-0.0244
-0.0244,0.0488,-0.0732,-0.061,-0.0488,0.0122,0.03416,0.01952,-0.01952,-0.01952,-0.0244,-0.0244
-0.04392,0.05856,-0.0732,-0.05124,-0.02928,-0.00732,0.03904,0.0244,-0.01952,-0.01952,-0.0244,-0.0244
-0.03416,0.05124,-0.06832,-0.05124,-0.03416,0,0.03904,0.0244,-0.0244,-0.01952,-0.02928,-0.0244
-0.04392,0.05368,-0.06344,-0.04148,-0.01952,-0.0122,0.03416,0.0244,-0.02928,-0.0244,-0.02928,-0.02928
-0.0488,0.061,-0.0732,-0.0488,-0.0244,-0.0122,0.03904,0.0244,-0.02928,-0.0244,-0.02928,-0.02928
-0.03904,0.05612,-0.0732,-0.05368,-0.03416,-0.00244,0.04392,0.02928,-0.02928,-0.0244,-0.02928,-0.02928
-0.03904,0.05368,-0.06832,-0.0488,-0.02928,-0.00488,0.04392,0.02928,-0.02928,-0.0244,-0.02928,-0.02928
-0.03904,0.05124,-0.06344,-0.04392,-0.0244,-0.00732,0.0488,0.02928,-0.0244,-0.01952,-0.02928,-0.0244
-0.03904,0.0488,-0.05856,-0.03904,-0.01952,-0.00976,0.0488,0.03904,-0.0244,-0.01952,-0.02928,-0.0244
-0.03416,0.04636,-0.05856,-0.04148,-0.0244,-0.00488,0.04392,0.0244,-0.0244,-0.01952,-0.02928,-0.03416
-0.0244,0.03416,-0.04392,-0.03172,-0.01952,-0.00244,0.04392,0.0244,-0.0244,-0.01952,-0.02928,-0.03416
-0.01464,0.02196,-0.02928,-0.02196,-0.01464,0,0.04392,0.02928,-0.01952,-0.01464,-0.02928,-0.02928
-0.01952,0.0244,-0.02928,-0.01952,-0.00976,-0.00488,0.04392,0.03416,-0.01464,-0.00976,-0.0244,-0.0244
-0.02928,0.04148,-0.05368,-0.03904,-0.0244,-0.00244,0.04392,0.03416,-0.01464,-0.00976,-0.0244,-0.0244
-0.02928,0.04392,-0.05856,-0.04392,-0.02928,0,0.04392,0.03416,-0.01464,-0.01464,-0.0244,-0.0244
-0.03416,0.05124,-0.06832,-0.05124,-0.03416,0,0.0488,0.03416,-0.00976,-0.01952,-0.01952,-0.0244
-0.02928,0.0488,-0.06832,-0.05368,-0.03904,0.00488,0.0488,0.03416,-0.00976,-0.01952,-0.01952,-0.01952
-0.01952,0.04148,-0.06344,-0.05368,-0.04392,0.0122,0.05368,0.03416,-0.00488,-0.01464,-0.01952,-0.01952
-0.01952,0.0366,-0.05368,-0.04392,-0.03416,0.00732,0.0488,0.03416,-0.00488,-0.00976,-0.01952,-0.01952
-0.01952,0.02928,-0.03904,-0.02928,-0.01952,0,0.04392,0.03904,-0.00488,0,-0.01464,-0.01464
-0.0244,0.03172,-0.03904,-0.02684,-0.01464,-0.00488,0.03904,0.03904,-0.00488,0,-0.01464,-0.01952
-0.02928,0.03416,-0.03904,-0.0244,-0.00976,-0.00976,0.03904,0.03416,-0.00488,0,-0.01464,-0.0244
-0.02928,0.04392,-0.05856,-0.04392,-0.02928,0,0.03904,0.03416,-0.00488,0,-0.01464,-0.0244
-0.03416,0.05856,-0.08296,-0.06588,-0.0488,0.00732,0.03904,0.03416,-0.00488,0,-0.01464,-0.0244
-0.0244,0.03904,-0.05368,-0.04148,-0.02928,0.00244,0.04392,0.03904,0.00488,0,-0.00976,-0.01952
-0.00488,0.0122,-0.01952,-0.01708,-0.01464,0.00488,0.0488,0.04392,0.00976,0,-0.00976,-0.01464
-0.00976,0.0244,-0.03904,-0.03416,-0.02928,0.00976,0.0488,0.04392,0.00976,0,-0.00976,-0.01464
-0.01464,0.0366,-0.05856,-0.05124,-0.04392,0.01464,0.04392,0.03416,0.00488,0,-0.00976,-0.01464
-0.01464,0.03416,-0.05368,-0.04636,-0.03904,0.0122,0.03416,0.02928,-0.00488,-0.00488,-0.00976,-0.01464
-0.03416,0.04392,-0.05368,-0.0366,-0.01952,-0.00732,0.03416,0.03416,-0.00488,-0.00488,-0.00976,-0.00976
-0.03416,0.04636,-0.05856,-0.04148,-0.0244,-0.00488,0.03416,0.03416,-0.00488,0.00488,-0.00488,-0.00976
-0.03416,0.04636,-0.05856,-0.04148,-0.0244,-0.00488,0.02928,0.03416,-0.00976,-0.00488,-0.00488,-0.00976
-0.01952,0.03904,-0.05856,-0.0488,-0.03904,0.00976,0.03904,0.03416,-0.00488,0,-0.00488,-0.00976
-0.00976,0.0366,-0.06344,-0.05856,-0.05368,0.02196,0.04392,0.02928,-0.00488,0,-0.01464,-0.01952
0,0.0244,-0.0488,-0.0488,-0.0488,0.0244,0.03904,0.02928,-0.00976,-0.00488,-0.01464,-0.01952
0.00976,0.0122,-0.03416,-0.03904,-0.04392,0.02684,0.03904,0.02928,-0.00976,-0.00488,-0.01464,-0.01464
0,0.0244,-0.0488,-0.0488,-0.0488,0.0244,0.03904,0.02928,-0.00976,-0.00488,-0.01464,-0.01464
0,0.03416,-0.06832,-0.06832,-0.06832,0.03416,0.03904,0.02928,-0.00976,-0.00488,-0.01464,-0.01464
-0.03416,0.05368,-0.0732,-0.05612,-0.03904,0.00244,0.03904,0.02928,-0.00976,0,-0.01464,-0.01464
-0.04392,0.05856,-0.0732,-0.05124,-0.02928,-0.00732,0.03904,0.0244,-0.01464,0,-0.01464,-0.01952
-0.00976,0.03904,-0.06832,-0.06344,-0.05856,0.0244,0.03904,0.0244,-0.01464,0,-0.01464,-0.01952
-0.00976,0.0366,-0.06344,-0.05856,-0.05368,0.02196,0.03904,0.0244,-0.01464,0,-0.01464,-0.01952
-0.00976,0.0366,-0.06344,-0.05856,-0.05368,0.02196,0.03904,0.0244,-0.01464,-0.00488,-0.01464,-0.01952
-0.00488,0.03416,-0.06344,-0.061,-0.05856,0.02684,0.03904,0.0244,-0.01952,-0.00488,-0.01464,-0.01952
-0.0244,0.04392,-0.06344,-0.05124,-0.03904,0.00732,0.03904,0.0244,-0.0244,-0.00976,-0.01464,-0.01952
-0.04392,0.05124,-0.05856,-0.0366,-0.01464,-0.01464,0.03904,0.0244,-0.0244,-0.00976,-0.01464,-0.01952
-0.0244,0.04148,-0.05856,-0.04636,-0.03416,0.00488,0.03904,0.01952,-0.0244,-0.00976,-0.01952,-0.01952
0,0.02684,-0.05368,-0.05368,-0.05368,0.02684,0.04392,0.01952,-0.01952,-0.00976,-0.0244,-0.01464
-0.00976,0.03172,-0.05368,-0.0488,-0.04392,0.01708,0.04392,0.01952,-0.0244,-0.00976,-0.0244,-0.01464
-0.0244,0.04636,-0.06832,-0.05612,-0.04392,0.00976,0.04392,0.01952,-0.02928,-0.00976,-0.0244,-0.01464
-0.03416,0.05612,-0.07808,-0.061,-0.04392,0.00488,0.03904,0.01952,-0.02928,-0.00976,-0.01952,-0.01952
-0.0244,0.05124,-0.07808,-0.06588,-0.05368,0.01464,0.03416,0.01464,-0.02928,-0.00976,-0.01464,-0.01952
-0.01952,0.04148,-0.06344,-0.05368,-0.04392,0.0122,0.02928,0.00976,-0.0244,-0.00976,-0.01464,-0.01952
-0.01952,0.0366,-0.05368,-0.04392,-0.03416,0.00732,0.02928,0.00976,-0.01952,-0.00976,-0.01464,-0.01952
-0.01952,0.04636,-0.0732,-0.06344,-0.05368,0.01708,0.02928,0.01464,-0.0244,-0.00976,-0.0244,-0.0244
-0.00488,0.03904,-0.0732,-0.07076,-0.06832,0.03172,0.02928,0.01952,-0.0244,-0.00976,-0.03416,-0.02928
-0.01464,0.04392,-0.0732,-0.06588,-0.05856,0.02196,0.03416,0.01952,-0.0244,-0.00976,-0.03416,-0.02928
-0.03416,0.061,-0.08784,-0.07076,-0.05368,0.00976,0.04392,0.01952,-0.0244,-0.00976,-0.02928,-0.02928
-0.01464,0.04636,-0.07808,-0.07076,-0.06344,0.0244,0.04392,0.01952,-0.02928,-0.01464,-0.02928,-0.0244
-0.00976,0.04392,-0.07808,-0.0732,-0.06832,0.02928,0.04392,0.01952,-0.03416,-0.01464,-0.02928,-0.0244
-0.01952,0.0488,-0.07808,-0.06832,-0.05856,0.01952,0.04392,0.01952,-0.03416,-0.01464,-0.02928,-0.02928
-0.03904,0.061,-0.08296,-0.06344,-0.04392,0.00244,0.04392,0.01464,-0.03904,-0.01952,-0.03416,-0.02928
-0.03904,0.061,-0.08296,-0.06344,-0.04392,0.00244,0.04392,0.01464,-0.03416,-0.01952,-0.03904,-0.02928
-0.02928,0.05124,-0.0732,-0.05856,-0.04392,0.00732,0.04392,0.01464,-0.02928,-0.01464,-0.03904,-0.02928
-0.02928,0.05124,-0.0732,-0.05856,-0.04392,0.00732,0.0488,0.01464,-0.0244,-0.00976,-0.02928,-0.0244
-0.01464,0.04148,-0.06832,-0.061,-0.05368,0.01952,0.04392,0.01464,-0.0244,-0.01464,-0.02928,-0.0244
-0.01952,0.04392,-0.06832,-0.05856,-0.0488,0.01464,0.03904,0.00976,-0.0244,-0.01464,-0.02928,-0.01952
-0.02928,0.0488,-0.06832,-0.05368,-0.03904,0.00488,0.03904,0.00976,-0.02928,-0.01952,-0.02928,-0.01952
-0.02928,0.0488,-0.06832,-0.05368,-0.03904,0.00488,0.03904,0.00976,-0.02928,-0.01464,-0.02928,-0.01464
-0.02928,0.0488,-0.06832,-0.05368,-0.03904,0.00488,0.03904,0.00976,-0.02928,-0.00976,-0.02928,-0.00976
-0.02928,0.04636,-0.06344,-0.0488,-0.03416,0.00244,0.03904,0.00976,-0.02928,-0.00976,-0.02928,-0.00976
-0.02928,0.04392,-0.05856,-0.04392,-0.02928,0,0.03904,0.00976,-0.02928,-0.00976,-0.02928,-0.00976
-0.02928,0.04392,-0.05856,-0.04392,-0.02928,0,0.03904,0.00976,-0.02928,-0.00976,-0.02928,-0.01464
-0.02928,0.04392,-0.05856,-0.04392,-0.02928,0,0.03904,0.00976,-0.02928,-0.00976,-0.02928,-0.01952
-0.0244,0.04636,-0.06832,-0.05612,-0.04392,0.00976,0.03904,0.00976,-0.02928,-0.01464,-0.03416,-0.0244
-0.01952,0.0488,-0.07808,-0.06832,-0.05856,0.01952,0.03904,0.00976,-0.02928,-0.01952,-0.03904,-0.02928
-0.01952,0.0488,-0.07808,-0.06832,-0.05856,0.01952,0.03904,0.00976,-0.02928,-0.01952,-0.03904,-0.02928
-0.01952,0.0488,-0.07808,-0.06832,-0.05856,0.01952,0.03904,0.00976,-0.02928,-0.01952,-0.03904,-0.02928
-0.01952,0.0488,-0.07808,-0.06832,-0.05856,0.01952,0.03904,0.00976,-0.02928,-0.01952,-0.03904,-0.0244
-0.01952,0.0488,-0.07808,-0.06832,-0.05856,0.01952,0.03904,0.00976,-0.02928,-0.01952,-0.03904,-0.01952
-0.01952,0.0488,-0.07808,-0.06832,-0.05856,0.01952,0.03904,0.00976,-0.02928,-0.01952,-0.03416,-0.01952
-0.01952,0.0488,-0.07808,-0.06832,-0.05856,0.01952,0.03904,0.00976,-0.02928,-0.01952,-0.02928,-0.01952
-0.02928,0.05368,-0.07808,-0.06344,-0.0488,0.00976,0.04392,0.00976,-0.02928,-0.01952,-0.02928,-0.01952
-0.03904,0.05856,-0.07808,-0.05856,-0.03904,0,0.0488,0.00976,-0.02928,-0.01952,-0.02928,-0.01952
-0.03904,0.05856,-0.07808,-0.05856,-0.03904,0,0.0488,0.00976,-0.03416,-0.01952,-0.03416,-0.01952
-0.03904,0.05856,-0.07808,-0.05856,-0.03904,0,0.0488,0.00976,-0.03904,-0.01952,-0.03904,-0.01952
-0.03416,0.05612,-0.07808,-0.061,-0.04392,0.00488,0.04392,0,-0.0488,-0.0244,-0.03904,-0.0244
-0.02928,0.05368,-0.07808,-0.06344,-0.0488,0.00976,0.03904,-0.00976,-0.05856,-0.02928,-0.03904,-0.02928
-0.02928,0.05368,-0.07808,-0.06344,-0.0488,0.00976,0.03904,0,-0.0488,-0.02928,-0.03904,-0.02928
-0.02928,0.05368,-0.07808,-0.06344,-0.0488,0.00976,0.03904,0.00976,-0.03904,-0.02928,-0.03904,-0.02928
-0.02928,0.05612,-0.08296,-0.06832,-0.05368,0.0122,0.04392,0.01464,-0.03904,-0.02928,-0.03904,-0.02928
-0.02928,0.05856,-0.08784,-0.0732,-0.05856,0.01464,0.0488,0.01952,-0.03904,-0.02928,-0.03904,-0.02928
-0.04392,0.06588,-0.08784,-0.06588,-0.04392,0,0.05856,0.01952,-0.02928,-0.01952,-0.02928,-0.01952
-0.05856,0.0732,-0.08784,-0.05856,-0.02928,-0.01464,0.06832,0.01952,-0.01952,-0.00976,-0.01952,-0.00976
-0.03416,0.05856,-0.08296,-0.06588,-0.0488,0.00732,0.05368,0.01464,-0.02928,-0.01952,-0.03416,-0.0244
-0.00976,0.04392,-0.07808,-0.0732,-0.06832,0.02928,0.03904,0.00976,-0.03904,-0.02928,-0.0488,-0.03904
-0.00976,0.04392,-0.07808,-0.0732,-0.06832,0.02928,0.03904,0.00976,-0.03904,-0.02928,-0.0488,-0.03904
-0.00976,0.04148,-0.0732,-0.06832,-0.06344,0.02684,0.03904,0.00976,-0.03416,-0.02928,-0.0488,-0.03416
-0.01464,0.04392,-0.0732,-0.06588,-0.05856,0.02196,0.03904,0.00976,-0.03416,-0.02928,-0.0488,-0.03416
-0.01464,0.04148,-0.06832,-0.061,-0.05368,0.01952,0.03904,0.00976,-0.03416,-0.02928,-0.0488,-0.03416
-0.01464,0.04148,-0.06832,-0.061,-0.05368,0.01952,0.03904,0.01952,-0.02928,-0.0244,-0.04392,-0.02928
-0.00976,0.03904,-0.06832,-0.06344,-0.05856,0.0244,0.03904,0.0244,-0.02928,-0.0244,-0.04392,-0.0244
0,0.0244,-0.0488,-0.0488,-0.0488,0.0244,0.03904,0.02928,-0.01464,-0.01464,-0.02928,-0.01952
0,0.01952,-0.03904,-0.03904,-0.03904,0.01952,0.0488,0.03416,-0.00488,0,-0.01464,-0.01464
0,0.0122,-0.0244,-0.0244,-0.0244,0.0122,0.05368,0.03904,0,0.00488,-0.00976,-0.00488
0,0.00488,-0.00976,-0.00976,-0.00976,0.00488,0.05368,0.04392,0,0.00488,-0.00976,-0.00488
0,0.00244,-0.00488,-0.00488,-0.00488,0.00244,0.05856,0.05368,0.00488,0.0244,-0.00488,0
-0.01464,0.01464,-0.01464,-0.00732,0,-0.00732,0.06832,0.06832,0.0244,0.0488,0.00488,0.01464
0.00488,0,-0.00488,-0.00732,-0.00976,0.00732,0.05368,0.05856,0.0244,0.04392,0.00976,0.01952
0.0244,-0.01464,0.00488,-0.00732,-0.01952,0.02196,0.0488,0.04392,0.0244,0.03904,0.01952,0.02928
0.04392,-0.01952,-0.00488,-0.02684,-0.0488,0.04636,0.0244,0.03416,0.0244,0.03904,0.01952,0.01952
0.06832,-0.03172,-0.00488,-0.03904,-0.0732,0.07076,0.00976,0.01464,0.01952,0.03416,0.00976,0.01952
0.06344,-0.02928,-0.00488,-0.0366,-0.06832,0.06588,0.00976,0.00976,0.01952,0.03416,0.00976,0.0244
0.0488,-0.02196,-0.00488,-0.02928,-0.05368,0.05124,0.00976,0.00488,0,0.01952,0.00488,0.0244
0.04392,-0.0122,-0.01952,-0.04148,-0.06344,0.05368,0.01952,0,-0.00488,0.00976,0.00488,0.01464
0.04392,-0.00976,-0.0244,-0.04636,-0.06832,0.05612,0.01952,0,-0.01952,-0.00488,-0.00976,0.00976
0.04392,-0.00244,-0.03904,-0.061,-0.08296,0.06344,0.00976,-0.00488,-0.02928,-0.01464,-0.0244,0.00488
0.06344,-0.00488,-0.05368,-0.0854,-0.11712,0.09028,0.00488,-0.00488,-0.03416,-0.0244,-0.03904,0
0.03416,0.01952,-0.0732,-0.09028,-0.10736,0.07076,0.01464,0,-0.03904,-0.01952,-0.03416,-0.00488
0.01464,0.03904,-0.09272,-0.10004,-0.10736,0.061,0.01952,0,-0.04392,-0.01464,-0.03416,-0.01464
-0.00976,0.04636,-0.08296,-0.07808,-0.0732,0.03172,0.0244,0,-0.05368,-0.02928,-0.04392,-0.0244
-0.0244,0.0488,-0.0732,-0.061,-0.0488,0.0122,0.0244,0.00488,-0.05368,-0.02928,-0.04392,-0.02928
-0.01464,0.04636,-0.07808,-0.07076,-0.06344,0.0244,0.02928,0.00488,-0.05368,-0.03416,-0.05368,-0.03416
-0.01952,0.05856,-0.0976,-0.08784,-0.07808,0.02928,0.03416,0.00488,-0.05856,-0.03416,-0.05368,-0.03904
-0.03904,0.07076,-0.10248,-0.08296,-0.06344,0.0122,0.04392,0.00976,-0.05368,-0.03416,-0.05368,-0.03904
-0.03904,0.0732,-0.10736,-0.08784,-0.06832,0.01464,0.0488,0.00976,-0.05856,-0.0488,-0.05856,-0.04392
-0.0488,0.07808,-0.10736,-0.08296,-0.05856,0.00488,0.05368,0.00976,-0.05856,-0.0488,-0.05856,-0.04392
-0.05856,0.0854,-0.11224,-0.08296,-0.05368,-0.00244,0.05368,0.00976,-0.05856,-0.04392,-0.05856,-0.04392
-0.05856,0.0854,-0.11224,-0.08296,-0.05368,-0.00244,0.05368,0.00976,-0.05856,-0.03904,-0.05856,-0.0488
-0.05856,0.0854,-0.11224,-0.08296,-0.05368,-0.00244,0.05368,0.01464,-0.05856,-0.03904,-0.05856,-0.05368
-0.06344,0.09272,-0.122,-0.09028,-0.05856,-0.00244,0.05368,0.01464,-0.05856,-0.03904,-0.05856,-0.05368
-0.0732,0.10248,-0.13176,-0.09516,-0.05856,-0.00732,0.05368,0.01464,-0.05368,-0.03904,-0.05856,-0.05368
-0.04392,0.07076,-0.0976,-0.07564,-0.05368,0.00488,0.05368,0.00976,-0.05368,-0.04392,-0.06344,-0.0488
-0.02928,0.05612,-0.08296,-0.06832,-0.05368,0.0122,0.05368,0.00488,-0.05368,-0.04392,-0.06344,-0.04392
-0.03904,0.06588,-0.09272,-0.0732,-0.05368,0.00732,0.05368,0.00488,-0.05856,-0.03904,-0.05368,-0.04392
-0.02928,0.06588,-0.10248,-0.08784,-0.0732,0.02196,0.0488,0.00488,-0.06344,-0.03904,-0.05368,-0.04392
-0.01952,0.061,-0.10248,-0.09272,-0.08296,0.03172,0.0488,0.00488,-0.06344,-0.03904,-0.05368,-0.04392
-0.0244,0.06344,-0.10248,-0.09028,-0.07808,0.02684,0.0488,0.00488,-0.05856,-0.03904,-0.05368,-0.04392
-0.01952,0.061,-0.10248,-0.09272,-0.08296,0.03172,0.05368,0.00976,-0.05368,-0.03904,-0.05856,-0.04392
-0.02928,0.06832,-0.10736,-0.09272,-0.07808,0.0244,0.06344,0.01952,-0.0488,-0.03904,-0.05856,-0.04392
-0.03416,0.07564,-0.11712,-0.10004,-0.08296,0.0244,0.06832,0.03416,-0.03904,-0.03416,-0.05856,-0.05368
-0.02928,0.061,-0.09272,-0.07808,-0.06344,0.01708,0.06832,0.03416,-0.00488,0,-0.03904,-0.03416
-0.01464,0.0488,-0.08296,-0.07564,-0.06832,0.02684,0.03904,0.03904,0.05856,0.0732,0.0244,0.01464
0.06832,0.00732,-0.08296,-0.11712,-0.15128,0.1098,0.00976,0.04392,0.14152,0.16592,0.0976,0.08296
0.14152,-0.05368,-0.03416,-0.10492,-0.17568,0.1586,-0.0488,0,0.22936,0.31232,0.2196,0.18056
0.27328,-0.17568,0.07808,-0.05856,-0.1952,0.23424,-0.18056,-0.12688,0.28304,0.49288,0.38064,0.32696
0.37576,-0.28548,0.1952,0.00732,-0.18056,0.27816,-0.34648,-0.31232,0.28792,0.62952,0.55144,0.49288
0.47824,-0.37088,0.26352,0.0244,-0.21472,0.34648,-0.52216,-0.5124,0.122,0.61976,0.61,0.57584
0.47824,-0.34404,0.20984,-0.02928,-0.2684,0.37332,-0.59536,-0.62464,-0.16592,0.38064,0.45872,0.488
0.366,-0.19276,0.01952,-0.16348,-0.34648,0.35624,-0.56608,-0.67832,-0.59536,-0.08784,0.10248,0.23424
0.20008,-0.04148,-0.11712,-0.21716,-0.3172,0.25864,-0.49776,-0.7076,-0.9516,-0.45872,-0.1708,0.00976
0.06832,0.04392,-0.15616,-0.19032,-0.22448,0.1464,-0.40992,-0.69296,-1.02968,-0.5612,-0.27816,-0.09272
-0.01952,0.12444,-0.22936,-0.2196,-0.20984,0.09516,-0.32696,-0.61488,-0.95648,-0.5612,-0.31232,-0.14152
-0.05368,0.11956,-0.18544,-0.1586,-0.13176,0.03904,-0.23424,-0.47336,-0.75152,-0.4392,-0.25376,-0.11224
-0.0488,0.07808,-0.10736,-0.08296,-0.05856,0.00488,-0.15616,-0.32208,-0.54168,-0.30744,-0.18056,-0.0732
-0.03904,0.06588,-0.09272,-0.0732,-0.05368,0.00732,-0.0976,-0.20496,-0.3904,-0.2196,-0.13664,-0.06832
-0.02928,0.04636,-0.06344,-0.0488,-0.03416,0.00244,-0.05368,-0.12688,-0.2684,-0.15128,-0.10736,-0.05368
-0.02928,0.04392,-0.05856,-0.04392,-0.02928,0,-0.01952,-0.08296,-0.20008,-0.11224,-0.08784,-0.04392
-0.02928,0.04148,-0.05368,-0.03904,-0.0244,-0.00244,0.00488,-0.04392,-0.13664,-0.07808,-0.06832,-0.03904
-0.01952,0.0366,-0.05368,-0.04392,-0.03416,0.00732,0.03416,-0.00976,-0.0976,-0.05368,-0.05368,-0.03904
-0.0244,0.03904,-0.05368,-0.04148,-0.02928,0.00244,0.0488,0.00976,-0.06832,-0.04392,-0.05368,-0.03416
-0.03904,0.04392,-0.0488,-0.02928,-0.00976,-0.01464,0.06344,0.0244,-0.04392,-0.03904,-0.0488,-0.0244
-0.0244,0.0366,-0.0488,-0.0366,-0.0244,0,0.05856,0.01952,-0.03904,-0.03416,-0.0488,-0.0244
-0.04392,0.0488,-0.05368,-0.03172,-0.00976,-0.01708,0.05856,0.0244,-0.02928,-0.0244,-0.04392,-0.0244
-0.03416,0.05124,-0.06832,-0.05124,-0.03416,0,0.06344,0.02928,-0.0244,-0.0244,-0.04392,-0.0244
-0.02928,0.05368,-0.07808,-0.06344,-0.0488,0.00976,0.06832,0.03416,-0.0244,-0.0244,-0.04392,-0.0244
-0.02928,0.0488,-0.06832,-0.05368,-0.03904,0.00488,0.06832,0.03904,-0.01952,-0.01952,-0.04392,-0.01952
-0.02928,0.04392,-0.05856,-0.04392,-0.02928,0,0.0732,0.03904,-0.01952,-0.01464,-0.03904,-0.01952
0.00488,0.02196,-0.0488,-0.05124,-0.05368,0.02928,0.0732,0.04392,-0.01464,-0.01464,-0.03904,-0.01952
0,0.0244,-0.0488,-0.0488,-0.0488,0.0244,0.0732,0.0488,0,-0.00976,-0.03904,-0.01952
-0.01464,0.03172,-0.0488,-0.04148,-0.03416,0.00976,0.07808,0.0488,0,-0.00976,-0.03904,-0.01952
-0.02928,0.03416,-0.03904,-0.0244,-0.00976,-0.00976,0.07808,0.0488,0,-0.00488,-0.03416,-0.01952
-0.04392,0.04636,-0.0488,-0.02684,-0.00488,-0.01952,0.08296,0.0488,0,-0.00488,-0.03416,-0.01952
-0.03416,0.04148,-0.0488,-0.03172,-0.01464,-0.00976,0.08296,0.04392,0,-0.00488,-0.03416,-0.01952
-0.03416,0.04148,-0.0488,-0.03172,-0.01464,-0.00976,0.08296,0.04392,-0.00488,-0.00488,-0.03416,-0.01952
-0.03416,0.04148,-0.0488,-0.03172,-0.01464,-0.00976,0.08296,0.04392,-0.00488,-0.00488,-0.03416,-0.01952
-0.03416,0.03904,-0.04392,-0.02684,-0.00976,-0.0122,0.08296,0.0488,0,0,-0.0244,-0.01464
-0.03904,0.04148,-0.04392,-0.0244,-0.00488,-0.01708,0.08296,0.0488,0,0,-0.01952,-0.01464
-0.05368,0.04636,-0.03904,-0.0122,0.01464,-0.03416,0.08296,0.0488,0.00976,0.00488,-0.01952,-0.01464
-0.06344,0.05124,-0.03904,-0.00732,0.0244,-0.04392,0.08296,0.0488,0.01952,0.01464,-0.01952,-0.01464
-0.03416,0.0366,-0.03904,-0.02196,-0.00488,-0.01464,0.07808,0.0488,0.00976,0.00488,-0.02928,-0.01952
-0.00488,0.01952,-0.03416,-0.03172,-0.02928,0.0122,0.0732,0.05368,0,-0.00488,-0.03416,-0.01952
-0.01464,0.02684,-0.03904,-0.03172,-0.0244,0.00488,0.07808,0.05856,0.00488,0,-0.03416,-0.01464
-0.03904,0.04392,-0.0488,-0.02928,-0.00976,-0.01464,0.08296,0.05856,0.00976,0,-0.02928,-0.01464
-0.05856,0.05612,-0.05368,-0.0244,0.00488,-0.03172,0.08784,0.05856,0.01952,0,-0.02928,-0.01464
-0.0732,0.06588,-0.05856,-0.02196,0.01464,-0.04392,0.08784,0.05856,0.02928,0,-0.02928,-0.01464
-0.03904,0.0488,-0.05856,-0.03904,-0.01952,-0.00976,0.08784,0.05368,0.01952,0,-0.02928,-0.01464
-0.00976,0.02928,-0.0488,-0.04392,-0.03904,0.01464,0.08784,0.0488,0.01464,0,-0.0244,-0.01464
-0.00976,0.02684,-0.04392,-0.03904,-0.03416,0.0122,0.08784,0.0488,0.01464,0,-0.0244,-0.01464
-0.00976,0.02684,-0.04392,-0.03904,-0.03416,0.0122,0.08296,0.0488,0.01464,-0.00488,-0.02928,-0.01464
-0.0244,0.03416,-0.04392,-0.03172,-0.01952,-0.00244,0.07808,0.0488,0.01952,-0.00488,-0.0244,-0.01464
-0.03904,0.04148,-0.04392,-0.0244,-0.00488,-0.01708,0.07808,0.05368,0.03416,0,-0.01952,-0.01464
-0.01464,0.02928,-0.04392,-0.0366,-0.02928,0.00732,0.07808,0.05368,0.0244,0,-0.01952,-0.01952
0,0.02196,-0.04392,-0.04392,-0.04392,0.02196,0.07808,0.05856,0.0244,0,-0.01952,-0.01952
-0.01464,0.02928,-0.04392,-0.0366,-0.02928,0.00732,0.07808,0.05856,0.03416,0.00488,-0.01952,-0.01464
-0.0244,0.03172,-0.03904,-0.02684,-0.01464,-0.00488,0.07808,0.05856,0.03416,0.00488,-0.01952,-0.01464
-0.01952,0.02684,-0.03416,-0.0244,-0.01464,-0.00244,0.07808,0.05856,0.03904,0.00488,-0.01952,-0.01464
-0.01952,0.02684,-0.03416,-0.0244,-0.01464,-0.00244,0.07808,0.06344,0.03904,0.00488,-0.01952,-0.01464
-0.02928,0.03416,-0.03904,-0.0244,-0.00976,-0.00976,0.08296,0.06832,0.04392,0.00976,-0.0244,-0.01952
-0.02928,0.04636,-0.06344,-0.0488,-0.03416,0.00244,0.08296,0.06832,0.04392,0.00976,-0.02928,-0.0244
-0.03904,0.04636,-0.05368,-0.03416,-0.01464,-0.0122,0.07808,0.06832,0.0488,0.01464,-0.0244,-0.0244
-0.01952,0.03172,-0.04392,-0.03416,-0.0244,0.00244,0.07808,0.06832,0.0488,0.01464,-0.0244,-0.0244
-0.01464,0.0244,-0.03416,-0.02684,-0.01952,0.00244,0.07808,0.0732,0.05368,0.01464,-0.01952,-0.01952
-0.01464,0.01952,-0.0244,-0.01708,-0.00976,-0.00244,0.07808,0.0732,0.05856,0.01464,-0.01464,-0.01464
-0.00488,0.01464,-0.0244,-0.02196,-0.01952,0.00732,0.07808,0.06832,0.05856,0.01952,-0.01464,-0.00976
-0.01952,0.01952,-0.01952,-0.00976,0,-0.00976,0.07808,0.08296,0.06832,0.0244,-0.00488,-0.00488
0,0.00732,-0.01464,-0.01464,-0.01464,0.00732,0.07808,0.08296,0.0732,0.02928,-0.00488,-0.00488
0.00976,0,-0.00976,-0.01464,-0.01952,0.01464,0.0732,0.08296,0.07808,0.03416,-0.00976,0
-0.00488,0.00732,-0.00976,-0.00732,-0.00488,0,0.0732,0.08784,0.08784,0.03904,-0.00488,0
-0.01464,0.0122,-0.00976,-0.00244,0.00488,-0.00976,0.06832,0.08784,0.08784,0.03904,0,0
-0.00976,0.00976,-0.00976,-0.00488,0,-0.00488,0.06832,0.08784,0.09272,0.04392,0.00488,0
-0.00976,0.00488,0,0.00488,0.00976,-0.00976,0.06832,0.0976,0.10248,0.05368,0.01464,0.01464
0.0244,-0.0244,0.0244,0.0122,0,0.0122,0.06832,0.0976,0.11224,0.05368,0.01952,0.01464
0.01464,-0.02196,0.02928,0.02196,0.01464,0,0.06832,0.10248,0.11712,0.06344,0.0244,0.0244
0.0244,-0.02684,0.02928,0.01708,0.00488,0.00976,0.06832,0.10248,0.12688,0.05856,0.01952,0.02928
0.03416,-0.0366,0.03904,0.02196,0.00488,0.01464,0.06344,0.10736,0.13176,0.05856,0.01952,0.02928
0.02928,-0.0366,0.04392,0.02928,0.01464,0.00732,0.06344,0.10736,0.13176,0.06344,0.02928,0.03904
0.0244,-0.03172,0.03904,0.02684,0.01464,0.00488,0.05856,0.10736,0.13176,0.06344,0.03416,0.03904
0.03904,-0.05124,0.06344,0.04392,0.0244,0.00732,0.05856,0.10248,0.14152,0.0732,0.03904,0.0488
0.03904,-0.05124,0.06344,0.04392,0.0244,0.00732,0.05368,0.0976,0.14152,0.0732,0.03904,0.0488
0.0488,-0.06344,0.07808,0.05368,0.02928,0.00976,0.05368,0.0976,0.14152,0.0732,0.0488,0.05856
0.05368,-0.06832,0.08296,0.05612,0.02928,0.0122,0.0488,0.0976,0.14152,0.07808,0.05368,0.05856
0.03904,-0.06344,0.08784,0.06832,0.0488,-0.00488,0.04392,0.0976,0.14152,0.08296,0.05856,0.06832
0.0244,-0.05856,0.09272,0.08052,0.06832,-0.02196,0.03416,0.09272,0.13664,0.08296,0.05856,0.06832
0.0244,-0.05856,0.09272,0.08052,0.06832,-0.02196,0.03416,0.08784,0.13176,0.07808,0.05856,0.06832
0.0244,-0.06344,0.10248,0.09028,0.07808,-0.02684,0.03416,0.08296,0.13176,0.07808,0.06832,0.07808
