i,aVR,ii,aVF,iii,aVL,V1,V2,V3,V4,V5,V6
-0.04392,0.03416,-0.0244,-0.00244,0.01952,-0.03172,0.01464,-0.05856,-0.0488,-0.05856,-0.05856,-0.06832
-0.04392,0.03416,-0.0244,-0.00244,0.01952,-0.03172,0.0244,-0.05856,-0.05368,-0.05856,-0.05856,-0.06832
-0.04392,0.03416,-0.0244,-0.00244,0.01952,-0.03172,0.0244,-0.05856,-0.05368,-0.05856,-0.05856,-0.06832
-0.04392,0.03416,-0.0244,-0.00244,0.01952,-0.03172,0.01464,-0.05856,-0.05368,-0.05856,-0.05856,-0.06832
-0.04392,0.03416,-0.0244,-0.00244,0.01952,-0.03172,0.01464,-0.05856,-0.0488,-0.05856,-0.05856,-0.06832
-0.04392,0.03416,-0.0244,-0.00244,0.01952,-0.03172,0.0244,-0.05368,-0.05368,-0.05368,-0.05856,-0.0732
-0.04392,0.03416,-0.0244,-0.00244,0.01952,-0.03172,0.0244,-0.05856,-0.05368,-0.05368,-0.05856,-0.0732
-0.0488,0.0366,-0.0244,0,0.0244,-0.0366,0.01464,-0.05856,-0.05368,-0.04392,-0.05368,-0.06344
-0.05368,0.03904,-0.0244,0.00244,0.02928,-0.04148,0.01464,-0.06832,-0.0488,-0.04392,-0.05368,-0.06344
-0.0488,0.03416,-0.01952,0.00488,0.02928,-0.03904,0.01952,-0.06344,-0.0488,-0.0488,-0.05368,-0.06832
-0.0488,0.03172,-0.01464,0.00976,0.03416,-0.04148,0.01952,-0.06344,-0.0488,-0.0488,-0.05368,-0.0732
-0.0488,0.03172,-0.01464,0.00976,0.03416,-0.04148,0.01464,-0.06832,-0.0488,-0.0488,-0.06344,-0.06344
-0.0488,0.03172,-0.01464,0.00976,0.03416,-0.04148,0.01464,-0.06832,-0.0488,-0.04392,-0.05856,-0.05856
-0.0488,0.03172,-0.01464,0.00976,0.03416,-0.04148,0.01464,-0.0732,-0.0488,-0.04392,-0.05856,-0.05856
-0.0488,0.03172,-0.01464,0.00976,0.03416,-0.04148,0.00976,-0.0732,-0.04392,-0.04392,-0.05856,-0.05368
-0.0488,0.03172,-0.01464,0.00976,0.03416,-0.04148,0.01952,-0.0732,-0.03416,-0.04392,-0.0488,-0.05368
-0.04392,0.02928,-0.01464,0.00732,0.02928,-0.0366,0.01952,-0.0732,-0.03416,-0.04392,-0.04392,-0.0488
-0.03416,0.02196,-0.00976,0.00732,0.0244,-0.02928,0.00488,-0.06344,-0.04392,-0.04392,-0.04392,-0.0488
-0.03416,0.02196,-0.00976,0.00732,0.0244,-0.02928,0.00488,-0.06344,-0.05856,-0.03904,-0.04392,-0.0488
-0.03904,0.0244,-0.00976,0.00976,0.02928,-0.03416,0.00488,-0.06832,-0.04392,-0.02928,-0.04392,-0.05368
-0.03904,0.0244,-0.00976,0.00976,0.02928,-0.03416,0.00488,-0.06832,-0.03904,-0.02928,-0.03904,-0.05368
-0.03904,0.0244,-0.00976,0.00976,0.02928,-0.03416,0.00488,-0.06832,-0.03904,-0.03416,-0.03904,-0.05368
-0.03904,0.0244,-0.00976,0.00976,0.02928,-0.03416,0.00488,-0.06832,-0.03904,-0.03416,-0.03904,-0.0488
-0.02928,0.01464,0,0.01464,0.02928,-0.02928,0,-0.06832,-0.03904,-0.0244,-0.03416,-0.0488
-0.02928,0.0122,0.00488,0.01952,0.03416,-0.03172,0,-0.06344,-0.04392,-0.0244,-0.03416,-0.0488
-0.02928,0.01464,0,0.01464,0.02928,-0.02928,0.00976,-0.06344,-0.04392,-0.03416,-0.04392,-0.0488
-0.02928,0.01464,0,0.01464,0.02928,-0.02928,0.00976,-0.06344,-0.04392,-0.03416,-0.0488,-0.0488
-0.03416,0.01708,0,0.01708,0.03416,-0.03416,0.00976,-0.06344,-0.04392,-0.03416,-0.03904,-0.0488
-0.03416,0.01952,-0.00488,0.0122,0.02928,-0.03172,0.00976,-0.06344,-0.04392,-0.03416,-0.03904,-0.0488
-0.03416,0.01464,0.00488,0.02196,0.03904,-0.0366,0,-0.0732,-0.04392,-0.0244,-0.04392,-0.03904
-0.03416,0.01464,0.00488,0.02196,0.03904,-0.0366,-0.00488,-0.0732,-0.04392,-0.0244,-0.04392,-0.03904
-0.03416,0.01464,0.00488,0.02196,0.03904,-0.0366,-0.00488,-0.06344,-0.04392,-0.03416,-0.03416,-0.05368
-0.03416,0.01708,0,0.01708,0.03416,-0.03416,-0.00976,-0.06344,-0.04392,-0.03416,-0.03904,-0.05368
-0.03416,0.01708,0,0.01708,0.03416,-0.03416,-0.00976,-0.06344,-0.0488,-0.03416,-0.03904,-0.05368
-0.03416,0.01952,-0.00488,0.0122,0.02928,-0.03172,-0.00976,-0.06344,-0.0488,-0.03416,-0.03904,-0.0488
-0.03416,0.01464,0.00488,0.02196,0.03904,-0.0366,0,-0.06344,-0.0488,-0.03416,-0.03904,-0.0488
-0.03416,0.01464,0.00488,0.02196,0.03904,-0.0366,0,-0.06344,-0.0488,-0.03416,-0.03904,-0.0488
-0.03416,0.01952,-0.00488,0.0122,0.02928,-0.03172,-0.00488,-0.06344,-0.0488,-0.0244,-0.03904,-0.05368
-0.03416,0.02196,-0.00976,0.00732,0.0244,-0.02928,-0.00488,-0.06344,-0.0488,-0.0244,-0.03904,-0.05368
-0.03416,0.01708,0,0.01708,0.03416,-0.03416,-0.00488,-0.06344,-0.0488,-0.02928,-0.03904,-0.05368
-0.03416,0.01708,0,0.01708,0.03416,-0.03416,-0.00488,-0.06344,-0.0488,-0.02928,-0.03904,-0.05856
-0.02928,0.01708,-0.00488,0.00976,0.0244,-0.02684,-0.00488,-0.06344,-0.0488,-0.02928,-0.03904,-0.05856
-0.02928,0.01708,-0.00488,0.00976,0.0244,-0.02684,0,-0.06344,-0.0488,-0.02928,-0.03904,-0.05856
-0.02928,0.01708,-0.00488,0.00976,0.0244,-0.02684,-0.00976,-0.06832,-0.05368,-0.02928,-0.05368,-0.05856
-0.02928,0.01708,-0.00488,0.00976,0.0244,-0.02684,-0.00976,-0.06832,-0.05368,-0.02928,-0.05368,-0.05368
-0.02928,0.01952,-0.00976,0.00488,0.01952,-0.0244,0.00488,-0.06832,-0.05368,-0.03416,-0.04392,-0.05856
-0.02928,0.02196,-0.01464,0,0.01464,-0.02196,0.00488,-0.06832,-0.05368,-0.02928,-0.04392,-0.05368
-0.02928,0.02196,-0.01464,0,0.01464,-0.02196,-0.00488,-0.06832,-0.06832,-0.03416,-0.05368,-0.05856
-0.03416,0.0244,-0.01464,0.00244,0.01952,-0.02684,-0.00488,-0.06832,-0.06344,-0.03416,-0.05368,-0.05856
-0.03416,0.0244,-0.01464,0.00244,0.01952,-0.02684,-0.00488,-0.06832,-0.06344,-0.03416,-0.05368,-0.05856
-0.03416,0.02684,-0.01952,-0.00244,0.01464,-0.0244,-0.00488,-0.06832,-0.06832,-0.03416,-0.05368,-0.05856
-0.03416,0.02196,-0.00976,0.00732,0.0244,-0.02928,-0.00488,-0.06832,-0.05856,-0.03416,-0.05368,-0.05856
-0.03416,0.02196,-0.00976,0.00732,0.0244,-0.02928,-0.00488,-0.06832,-0.05368,-0.03416,-0.05368,-0.05856
-0.03416,0.02196,-0.00976,0.00732,0.0244,-0.02928,-0.00488,-0.06832,-0.06344,-0.03416,-0.05368,-0.06832
-0.03416,0.02196,-0.00976,0.00732,0.0244,-0.02928,-0.00488,-0.06832,-0.06344,-0.03416,-0.05856,-0.06832
-0.03416,0.02684,-0.01952,-0.00244,0.01464,-0.0244,-0.00488,-0.0732,-0.06344,-0.03904,-0.05856,-0.05856
-0.03416,0.02684,-0.01952,-0.00244,0.01464,-0.0244,-0.00488,-0.0732,-0.06344,-0.03904,-0.05368,-0.05856
-0.04392,0.03172,-0.01952,0.00244,0.0244,-0.03416,0.00488,-0.06832,-0.05368,-0.03904,-0.0488,-0.05856
-0.04392,0.03172,-0.01952,0.00244,0.0244,-0.03416,0.00976,-0.06832,-0.05856,-0.03904,-0.0488,-0.05856
-0.03416,0.02684,-0.01952,-0.00244,0.01464,-0.0244,0,-0.0732,-0.05856,-0.03904,-0.05856,-0.06832
-0.03416,0.02684,-0.01952,-0.00244,0.01464,-0.0244,0,-0.0732,-0.05856,-0.03904,-0.05856,-0.06832
-0.03416,0.02928,-0.0244,-0.00732,0.00976,-0.02196,-0.00488,-0.06344,-0.05856,-0.03904,-0.05856,-0.06344
-0.03416,0.02928,-0.0244,-0.00732,0.00976,-0.02196,-0.00488,-0.06344,-0.05856,-0.03904,-0.05856,-0.05856
-0.04392,0.03416,-0.0244,-0.00244,0.01952,-0.03172,-0.00488,-0.06832,-0.05368,-0.03904,-0.0488,-0.06832
-0.04392,0.03172,-0.01952,0.00244,0.0244,-0.03416,-0.00488,-0.06832,-0.05368,-0.03416,-0.0488,-0.06832
-0.03416,0.02684,-0.01952,-0.00244,0.01464,-0.0244,0.00488,-0.06832,-0.05368,-0.0488,-0.0488,-0.05856
-0.03904,0.02928,-0.01952,0,0.01952,-0.02928,0.00488,-0.06832,-0.05856,-0.0488,-0.0488,-0.05856
-0.04392,0.0366,-0.02928,-0.00732,0.01464,-0.02928,0,-0.06832,-0.05856,-0.0488,-0.05856,-0.06344
-0.04392,0.0366,-0.02928,-0.00732,0.01464,-0.02928,0,-0.0732,-0.05368,-0.0488,-0.05856,-0.06344
-0.04392,0.0366,-0.02928,-0.00732,0.01464,-0.02928,0,-0.0732,-0.06832,-0.03904,-0.05856,-0.06344
-0.04392,0.03416,-0.0244,-0.00244,0.01952,-0.03172,-0.00488,-0.0732,-0.06832,-0.03904,-0.05856,-0.06344
-0.0488,0.0366,-0.0244,0,0.0244,-0.0366,0,-0.0732,-0.05856,-0.03904,-0.05856,-0.06344
-0.0488,0.0366,-0.0244,0,0.0244,-0.0366,0,-0.06832,-0.05856,-0.03904,-0.05856,-0.06344
-0.0488,0.03416,-0.01952,0.00488,0.02928,-0.03904,0,-0.0732,-0.05856,-0.03904,-0.0488,-0.05856
-0.0488,0.03416,-0.01952,0.00488,0.02928,-0.03904,0,-0.0732,-0.05856,-0.03904,-0.0488,-0.05856
-0.03904,0.02928,-0.01952,0,0.01952,-0.02928,0,-0.06344,-0.05856,-0.03904,-0.05368,-0.06344
-0.0488,0.03416,-0.01952,0.00488,0.02928,-0.03904,0.00976,-0.06832,-0.05856,-0.03904,-0.0488,-0.06832
-0.0488,0.03416,-0.01952,0.00488,0.02928,-0.03904,0,-0.07808,-0.05856,-0.03904,-0.0488,-0.06832
-0.0488,0.03416,-0.01952,0.00488,0.02928,-0.03904,0,-0.07808,-0.05856,-0.03904,-0.0488,-0.06832
-0.0488,0.03416,-0.01952,0.00488,0.02928,-0.03904,0,-0.07808,-0.06832,-0.03904,-0.05856,-0.06832
-0.0488,0.03416,-0.01952,0.00488,0.02928,-0.03904,0,-0.07808,-0.06832,-0.03904,-0.05856,-0.06832
-0.0488,0.03416,-0.01952,0.00488,0.02928,-0.03904,0,-0.06832,-0.06832,-0.03904,-0.05856,-0.06832
-0.0488,0.03416,-0.01952,0.00488,0.02928,-0.03904,0,-0.06832,-0.06832,-0.03904,-0.05856,-0.06832
-0.0488,0.03416,-0.01952,0.00488,0.02928,-0.03904,0,-0.06832,-0.06832,-0.03904,-0.05856,-0.05856
-0.0488,0.03416,-0.01952,0.00488,0.02928,-0.03904,0,-0.06832,-0.06832,-0.03904,-0.05856,-0.05856
-0.0488,0.03904,-0.02928,-0.00488,0.01952,-0.03416,0.00976,-0.06832,-0.05856,-0.03904,-0.05856,-0.06832
-0.0488,0.03904,-0.02928,-0.00488,0.01952,-0.03416,0.00976,-0.06832,-0.05856,-0.03904,-0.05856,-0.06832
-0.03904,0.02928,-0.01952,0,0.01952,-0.02928,0.00976,-0.07808,-0.05856,-0.03904,-0.0488,-0.06832
-0.03904,0.02928,-0.01952,0,0.01952,-0.02928,0.00976,-0.07808,-0.05856,-0.03904,-0.0488,-0.06832
-0.0488,0.03416,-0.01952,0.00488,0.02928,-0.03904,0.00976,-0.06832,-0.05856,-0.03904,-0.05856,-0.06832
-0.0488,0.03416,-0.01952,0.00488,0.02928,-0.03904,0.00976,-0.06832,-0.05856,-0.03904,-0.05856,-0.06832
-0.0488,0.03904,-0.02928,-0.00488,0.01952,-0.03416,0,-0.07808,-0.06832,-0.0488,-0.05856,-0.06832
-0.0488,0.03904,-0.02928,-0.00488,0.01952,-0.03416,0,-0.07808,-0.06832,-0.0488,-0.05856,-0.06832
-0.03904,0.03416,-0.02928,-0.00976,0.00976,-0.0244,0,-0.06832,-0.06832,-0.0488,-0.06832,-0.06832
-0.03904,0.03416,-0.02928,-0.00976,0.00976,-0.0244,0,-0.06832,-0.06832,-0.0488,-0.06832,-0.06832
-0.03904,0.03416,-0.02928,-0.00976,0.00976,-0.0244,0,-0.07808,-0.06832,-0.0488,-0.05856,-0.06832
-0.03904,0.03416,-0.02928,-0.00976,0.00976,-0.0244,0,-0.07808,-0.06832,-0.0488,-0.05856,-0.06832
-0.0488,0.03904,-0.02928,-0.00488,0.01952,-0.03416,0.00976,-0.07808,-0.05856,-0.0488,-0.05856,-0.06832
-0.0488,0.03904,-0.02928,-0.00488,0.01952,-0.03416,0.00976,-0.07808,-0.05856,-0.0488,-0.05856,-0.06832
-0.0488,0.03904,-0.02928,-0.00488,0.01952,-0.03416,0,-0.06832,-0.05856,-0.0488,-0.05856,-0.06832
-0.0488,0.03904,-0.02928,-0.00488,0.01952,-0.03416,0,-0.06832,-0.05856,-0.0488,-0.05856,-0.06832
-0.0488,0.03904,-0.02928,-0.00488,0.01952,-0.03416,0.00976,-0.07808,-0.06832,-0.0488,-0.05856,-0.06832
-0.0488,0.03904,-0.02928,-0.00488,0.01952,-0.03416,0.00976,-0.07808,-0.06832,-0.0488,-0.05856,-0.06832
-0.0488,0.03904,-0.02928,-0.00488,0.01952,-0.03416,0.00976,-0.06832,-0.06832,-0.03904,-0.05856,-0.06832
-0.0488,0.03904,-0.02928,-0.00488,0.01952,-0.03416,0.00976,-0.06832,-0.06832,-0.03904,-0.05856,-0.06832
-0.0488,0.03904,-0.02928,-0.00488,0.01952,-0.03416,0.00976,-0.07808,-0.05856,-0.03904,-0.06832,-0.06832
-0.0488,0.03904,-0.02928,-0.00488,0.01952,-0.03416,0.00976,-0.07808,-0.05856,-0.03904,-0.06832,-0.06832
-0.0488,0.03904,-0.02928,-0.00488,0.01952,-0.03416,0.00976,-0.07808,-0.05856,-0.0488,-0.06832,-0.06832
-0.0488,0.03904,-0.02928,-0.00488,0.01952,-0.03416,0.00976,-0.07808,-0.05856,-0.0488,-0.06832,-0.06832
-0.03904,0.03416,-0.02928,-0.00976,0.00976,-0.0244,0,-0.06832,-0.05856,-0.03904,-0.05856,-0.06832
-0.03904,0.03416,-0.02928,-0.00976,0.00976,-0.0244,0,-0.06832,-0.05856,-0.03904,-0.05856,-0.06832
-0.0488,0.03904,-0.02928,-0.00488,0.01952,-0.03416,0,-0.07808,-0.06832,-0.0488,-0.05856,-0.06832
-0.0488,0.03904,-0.02928,-0.00488,0.01952,-0.03416,0,-0.07808,-0.06832,-0.0488,-0.05856,-0.06832
-0.0488,0.03904,-0.02928,-0.00488,0.01952,-0.03416,0,-0.07808,-0.06832,-0.0488,-0.05856,-0.06832
-0.0488,0.03904,-0.02928,-0.00488,0.01952,-0.03416,0,-0.07808,-0.06832,-0.0488,-0.05856,-0.06832
-0.0488,0.03416,-0.01952,0.00488,0.02928,-0.03904,0.00976,-0.07808,-0.05856,-0.03904,-0.05856,-0.05856
-0.0488,0.03416,-0.01952,0.00488,0.02928,-0.03904,0.00976,-0.07808,-0.05856,-0.03904,-0.05856,-0.05856
-0.0488,0.03904,-0.02928,-0.00488,0.01952,-0.03416,0.00976,-0.07808,-0.05856,-0.03904,-0.05856,-0.06832
-0.05368,0.04148,-0.02928,-0.00244,0.0244,-0.03904,0.00976,-0.07808,-0.05856,-0.03904,-0.05856,-0.06832
-0.0488,0.03904,-0.02928,-0.00488,0.01952,-0.03416,0.00488,-0.07808,-0.05856,-0.04392,-0.06832,-0.06832
-0.0488,0.03904,-0.02928,-0.00488,0.01952,-0.03416,0.00488,-0.07808,-0.05856,-0.04392,-0.06832,-0.06832
-0.04392,0.04148,-0.03904,-0.01708,0.00488,-0.0244,0.01464,-0.06344,-0.05368,-0.04392,-0.06344,-0.06344
-0.03904,0.0366,-0.03416,-0.01464,0.00488,-0.02196,0.01464,-0.05856,-0.0488,-0.03904,-0.06344,-0.06344
-0.0244,0.01708,-0.00976,0.00244,0.01464,-0.01952,0.01952,-0.05856,-0.05368,-0.02928,-0.04392,-0.05856
-0.01952,0.00976,0,0.00976,0.01952,-0.01952,0.01952,-0.0488,-0.04392,-0.02928,-0.03416,-0.0488
-0.01464,0.00732,0,0.00732,0.01464,-0.01464,0.0244,-0.03904,-0.02928,-0.0244,-0.03416,-0.04392
-0.00976,0.00244,0.00488,0.00976,0.01464,-0.0122,0.02928,-0.03416,-0.0244,-0.01952,-0.02928,-0.04392
0,-0.00976,0.01952,0.01952,0.01952,-0.00976,0.02928,-0.0244,-0.0244,-0.00976,-0.01464,-0.04392
0.01464,-0.02196,0.02928,0.02196,0.01464,0,0.02928,-0.01464,-0.01952,0,-0.00976,-0.03904
0.02928,-0.03416,0.03904,0.0244,0.00976,0.00976,0.04392,-0.00488,-0.00976,0.00976,0,-0.02928
0.02928,-0.04392,0.05856,0.04392,0.02928,0,0.04392,0.00976,0,0.01464,0.00976,-0.01952
0.0244,-0.0366,0.0488,0.0366,0.0244,0,0.05368,0.00976,0.00488,0.01464,0.00976,-0.00976
0.01952,-0.03416,0.0488,0.03904,0.02928,-0.00488,0.05368,0.00976,0.00488,0.01464,0.00976,-0.00976
0.01464,-0.02684,0.03904,0.03172,0.0244,-0.00488,0.0488,0.00488,0.00488,0.01464,0.00488,-0.0244
0.01464,-0.02684,0.03904,0.03172,0.0244,-0.00488,0.0244,-0.01952,-0.00488,0,-0.00488,-0.0244
0.00488,-0.02196,0.03904,0.0366,0.03416,-0.01464,0.01464,-0.03416,-0.02928,-0.00488,-0.01464,-0.03416
0.00488,-0.01952,0.03416,0.03172,0.02928,-0.0122,-0.00488,-0.04392,-0.03904,-0.00976,-0.0244,-0.03904
0.01464,-0.01464,0.01464,0.00732,0,0.00732,-0.02928,-0.05856,-0.0488,-0.01464,-0.0244,-0.03904
0.01464,-0.00976,0.00488,-0.00244,-0.00976,0.0122,-0.03904,-0.0732,-0.05856,-0.02928,-0.03904,-0.0488
0.00976,0.00488,-0.01952,-0.0244,-0.02928,0.01952,-0.03416,-0.09272,-0.0732,-0.03904,-0.06344,-0.05856
-0.00488,0.01952,-0.03416,-0.03172,-0.02928,0.0122,-0.02928,-0.0976,-0.07808,-0.0488,-0.0732,-0.06832
-0.02928,0.03416,-0.03904,-0.0244,-0.00976,-0.00976,-0.00488,-0.0976,-0.0732,-0.05856,-0.0732,-0.06832
-0.0488,0.04636,-0.04392,-0.01952,0.00488,-0.02684,0,-0.0976,-0.0732,-0.05856,-0.0732,-0.06832
-0.0488,0.0488,-0.0488,-0.0244,0,-0.0244,0,-0.09272,-0.0732,-0.06344,-0.06344,-0.0732
-0.0488,0.05124,-0.05368,-0.02928,-0.00488,-0.02196,0,-0.0976,-0.07808,-0.06344,-0.06832,-0.07808
-0.05856,0.05856,-0.05856,-0.02928,0,-0.02928,0,-0.0976,-0.08296,-0.06344,-0.07808,-0.10248
-0.06344,0.061,-0.05856,-0.02684,0.00488,-0.03416,0,-0.0976,-0.08784,-0.06832,-0.08296,-0.10248
-0.05368,0.061,-0.06832,-0.04148,-0.01464,-0.01952,-0.00488,-0.10736,-0.0976,-0.06832,-0.09272,-0.10248
-0.0488,0.05612,-0.06344,-0.03904,-0.01464,-0.01708,-0.00488,-0.10736,-0.0976,-0.06832,-0.09272,-0.10248
-0.05856,0.061,-0.06344,-0.03416,-0.00488,-0.02684,-0.00488,-0.10736,-0.08784,-0.0732,-0.09272,-0.09272
-0.06344,0.06588,-0.06832,-0.0366,-0.00488,-0.02928,-0.00488,-0.10736,-0.08784,-0.0732,-0.09272,-0.09272
-0.06344,0.06588,-0.06832,-0.0366,-0.00488,-0.02928,-0.00488,-0.0976,-0.08784,-0.06832,-0.08784,-0.0976
-0.06344,0.06588,-0.06832,-0.0366,-0.00488,-0.02928,-0.00488,-0.10248,-0.09272,-0.0732,-0.08784,-0.0976
-0.06344,0.06588,-0.06832,-0.0366,-0.00488,-0.02928,-0.00976,-0.11224,-0.0976,-0.0732,-0.08784,-0.10248
-0.06832,0.06832,-0.06832,-0.03416,0,-0.03416,-0.00976,-0.11224,-0.0976,-0.0732,-0.08296,-0.10248
-0.06832,0.06832,-0.06832,-0.03416,0,-0.03416,-0.00488,-0.11712,-0.08784,-0.0732,-0.09272,-0.10248
-0.06832,0.06588,-0.06344,-0.02928,0.00488,-0.0366,-0.00488,-0.11712,-0.08784,-0.0732,-0.09272,-0.10248
-0.06832,0.06588,-0.06344,-0.02928,0.00488,-0.0366,-0.00488,-0.10736,-0.09272,-0.0732,-0.08296,-0.0976
-0.06832,0.06832,-0.06832,-0.03416,0,-0.03416,-0.00488,-0.10248,-0.09272,-0.06832,-0.08296,-0.0976
-0.06832,0.06832,-0.06832,-0.03416,0,-0.03416,0,-0.10248,-0.07808,-0.05856,-0.08784,-0.0976
-0.08296,0.0732,-0.06344,-0.02196,0.01952,-0.05124,0.0244,-0.0976,-0.07808,-0.06832,-0.09272,-0.10736
-0.10736,0.09272,-0.07808,-0.0244,0.02928,-0.06832,0.05368,-0.10248,-0.08784,-0.09272,-0.10736,-0.13176
-0.13664,0.1098,-0.08296,-0.01464,0.05368,-0.09516,0.0976,-0.05368,-0.07808,-0.08296,-0.10248,-0.14152
-0.14152,0.1098,-0.07808,-0.00732,0.06344,-0.10248,0.11224,-0.01952,-0.03416,-0.06344,-0.06832,-0.122
-0.12688,0.10004,-0.0732,-0.00976,0.05368,-0.09028,0.13176,0.14152,0.03904,-0.0244,-0.00976,-0.0976
-0.0488,0.03172,-0.01464,0.00976,0.03416,-0.04148,0.14152,0.40504,0.1708,0.0732,0.11712,-0.03904
0.10248,-0.10736,0.11224,0.061,0.00976,0.04636,0.0732,0.69296,0.35136,0.244,0.30744,0.0976
0.32208,-0.29036,0.25864,0.0976,-0.06344,0.19276,-0.07808,0.76616,0.50264,0.43432,0.50752,0.28304
0.49288,-0.47336,0.45384,0.2074,-0.03904,0.26596,-0.30256,0.57584,0.61976,0.60024,0.65392,0.4392
0.64416,-0.6832,0.72224,0.40016,0.07808,0.28304,-0.59536,0.35624,0.76128,0.79544,0.8296,0.63928
0.69784,-0.76372,0.8296,0.48068,0.13176,0.28304,-0.86864,-0.0732,0.60512,0.79544,0.77592,0.7076
0.59048,-0.61244,0.6344,0.33916,0.04392,0.27328,-0.89304,-0.47336,0.30744,0.59536,0.5124,0.60024
0.38064,-0.35868,0.33672,0.1464,-0.04392,0.21228,-0.74176,-0.74176,-0.05856,0.26352,0.14152,0.3416
0.21472,-0.18056,0.1464,0.03904,-0.06832,0.14152,-0.6344,-0.85888,-0.28304,0.02928,-0.0976,0.15128
0.10736,-0.08784,0.06832,0.01464,-0.03904,0.0732,-0.55632,-0.89792,-0.3416,-0.06832,-0.1952,0.06344
0.06344,-0.01952,-0.0244,-0.05612,-0.08784,0.07564,-0.48312,-0.74664,-0.32208,-0.09272,-0.20496,-0.01464
-0.00976,0.05124,-0.09272,-0.08784,-0.08296,0.0366,-0.366,-0.59536,-0.29768,-0.122,-0.21472,-0.06344
-0.03904,0.07076,-0.10248,-0.08296,-0.06344,0.0122,-0.27328,-0.44408,-0.25864,-0.13664,-0.20008,-0.11224
-0.03904,0.061,-0.08296,-0.06344,-0.04392,0.00244,-0.1952,-0.28304,-0.18544,-0.09272,-0.15616,-0.09272
-0.0244,0.0366,-0.0488,-0.0366,-0.0244,0,-0.11712,-0.20496,-0.11224,-0.05856,-0.08784,-0.07808
-0.02928,0.03904,-0.0488,-0.03416,-0.01952,-0.00488,-0.06832,-0.19032,-0.10736,-0.05368,-0.08296,-0.0732
-0.02928,0.02928,-0.02928,-0.01464,0,-0.01464,-0.03904,-0.12688,-0.09272,-0.05856,-0.08784,-0.0732
-0.05368,0.04392,-0.03416,-0.00732,0.01952,-0.0366,-0.02928,-0.08296,-0.07808,-0.0488,-0.06832,-0.0732
-0.0488,0.04392,-0.03904,-0.01464,0.00976,-0.02928,-0.00488,-0.08296,-0.06344,-0.03904,-0.05856,-0.0732
-0.0488,0.03904,-0.02928,-0.00488,0.01952,-0.03416,0.00488,-0.08296,-0.06344,-0.03904,-0.05856,-0.0732
-0.0488,0.03904,-0.02928,-0.00488,0.01952,-0.03416,0.00976,-0.0732,-0.05368,-0.03416,-0.0488,-0.0732
-0.0488,0.0366,-0.0244,0,0.0244,-0.0366,0.00488,-0.06832,-0.0488,-0.03416,-0.0488,-0.07808
-0.05856,0.03904,-0.01952,0.00976,0.03904,-0.0488,0.00488,-0.06344,-0.0488,-0.03416,-0.05368,-0.07808
-0.05856,0.04148,-0.0244,0.00488,0.03416,-0.04636,0.00976,-0.06344,-0.0488,-0.03416,-0.0488,-0.07808
-0.05856,0.04148,-0.0244,0.00488,0.03416,-0.04636,0.0244,-0.06344,-0.0488,-0.04392,-0.0488,-0.07808
-0.05856,0.04148,-0.0244,0.00488,0.03416,-0.04636,0.0244,-0.05856,-0.0488,-0.03904,-0.0488,-0.0732
-0.05368,0.03904,-0.0244,0.00244,0.02928,-0.04148,0.01464,-0.04392,-0.0488,-0.03904,-0.0488,-0.0732
-0.05368,0.03904,-0.0244,0.00244,0.02928,-0.04148,0.01952,-0.03904,-0.0488,-0.03904,-0.0488,-0.0732
-0.06832,0.04392,-0.01952,0.01464,0.0488,-0.05856,0.01464,-0.04392,-0.0488,-0.03904,-0.0488,-0.0732
-0.06832,0.04148,-0.01464,0.01952,0.05368,-0.061,0.01952,-0.04392,-0.04392,-0.03904,-0.04392,-0.06832
-0.05856,0.03904,-0.01952,0.00976,0.03904,-0.0488,0.02928,-0.02928,-0.04392,-0.03904,-0.04392,-0.06832
-0.05856,0.03904,-0.01952,0.00976,0.03904,-0.0488,0.02928,-0.02928,-0.04392,-0.03904,-0.04392,-0.06832
-0.05856,0.03904,-0.01952,0.00976,0.03904,-0.0488,0.0244,-0.02928,-0.03416,-0.02928,-0.04392,-0.06832
-0.05856,0.03904,-0.01952,0.00976,0.03904,-0.0488,0.0244,-0.0244,-0.03904,-0.02928,-0.04392,-0.06832
-0.05856,0.03904,-0.01952,0.00976,0.03904,-0.0488,0.03416,-0.03416,-0.03904,-0.02928,-0.0488,-0.06832
-0.05856,0.0366,-0.01464,0.01464,0.04392,-0.05124,0.03416,-0.03416,-0.04392,-0.0244,-0.0488,-0.06344
-0.05368,0.03416,-0.01464,0.0122,0.03904,-0.04636,0.0244,-0.03416,-0.04392,-0.03416,-0.04392,-0.06344
-0.05368,0.03416,-0.01464,0.0122,0.03904,-0.04636,0.0244,-0.02928,-0.03904,-0.03416,-0.04392,-0.05856
-0.05368,0.02928,-0.00488,0.02196,0.0488,-0.05124,0.01952,-0.01952,-0.03904,-0.0244,-0.04392,-0.06344
-0.05368,0.02928,-0.00488,0.02196,0.0488,-0.05124,0.01952,-0.01952,-0.03904,-0.01952,-0.03904,-0.06344
-0.05368,0.02684,0,0.02684,0.05368,-0.05368,0.02928,-0.0244,-0.02928,-0.01952,-0.03904,-0.06344
-0.05368,0.02928,-0.00488,0.02196,0.0488,-0.05124,0.02928,-0.0244,-0.02928,-0.01464,-0.03416,-0.06344
-0.05368,0.02684,0,0.02684,0.05368,-0.05368,0.02928,-0.01464,-0.0244,-0.00488,-0.0244,-0.05856
-0.0488,0.0244,0,0.0244,0.0488,-0.0488,0.02928,-0.01952,-0.0244,-0.00488,-0.01952,-0.05856
-0.0488,0.02196,0.00488,0.02928,0.05368,-0.05124,0.01952,-0.01952,-0.0244,-0.00976,-0.02928,-0.05856
-0.0488,0.01708,0.01464,0.03904,0.06344,-0.05612,0.01464,-0.01464,-0.01464,-0.00976,-0.0244,-0.05368
-0.05368,0.01708,0.01952,0.04636,0.0732,-0.06344,0.01464,0,-0.0244,-0.00488,-0.0244,-0.05368
-0.05368,0.01708,0.01952,0.04636,0.0732,-0.06344,0.01464,0.00488,-0.01952,0,-0.01952,-0.05368
-0.04392,0.00976,0.0244,0.04636,0.06832,-0.05612,0.01464,0.01464,-0.01952,0,-0.01952,-0.0488
-0.03904,0.00732,0.0244,0.04392,0.06344,-0.05124,0.00976,0.01952,-0.01464,0.00488,-0.01464,-0.0488
-0.03416,0,0.03416,0.05124,0.06832,-0.05124,0.00976,0.0244,-0.00976,0.00488,-0.00976,-0.04392
-0.03416,0,0.03416,0.05124,0.06832,-0.05124,0.00976,0.02928,-0.00976,0.00976,-0.00488,-0.03904
-0.02928,-0.00732,0.04392,0.05856,0.0732,-0.05124,0,0.03416,-0.00488,0.01464,0,-0.03416
-0.0244,-0.01464,0.05368,0.06588,0.07808,-0.05124,0,0.04392,0,0.01952,0,-0.03416
-0.01952,-0.01952,0.05856,0.06832,0.07808,-0.0488,-0.00488,0.0488,0.00488,0.0244,-0.00488,-0.02928
-0.01952,-0.02196,0.06344,0.0732,0.08296,-0.05124,-0.00488,0.06344,0.01464,0.03416,0.00488,-0.01952
0,-0.03416,0.06832,0.06832,0.06832,-0.03416,-0.00976,0.07808,0.01464,0.03904,0.0244,-0.01952
0.00976,-0.04148,0.0732,0.06832,0.06344,-0.02684,-0.00976,0.09272,0.0244,0.04392,0.03904,-0.01464
0.00488,-0.04636,0.08784,0.0854,0.08296,-0.03904,-0.01464,0.09272,0.0244,0.03904,0.04392,-0.0244
0.01464,-0.05612,0.0976,0.09028,0.08296,-0.03416,-0.01464,0.11224,0.03904,0.05368,0.05368,-0.00488
0.01952,-0.06344,0.10736,0.0976,0.08784,-0.03416,-0.01952,0.13176,0.0488,0.06344,0.06344,0.00488
0.02928,-0.0732,0.11712,0.10248,0.08784,-0.02928,-0.01952,0.1464,0.05856,0.0732,0.0732,0.00976
0.03904,-0.08296,0.12688,0.10736,0.08784,-0.0244,-0.01952,0.16104,0.0732,0.08784,0.08784,0.03416
0.0488,-0.09516,0.14152,0.11712,0.09272,-0.02196,-0.0244,0.18056,0.08784,0.10248,0.10248,0.04392
0.05856,-0.10492,0.15128,0.122,0.09272,-0.01708,-0.0244,0.21472,0.10248,0.11712,0.10736,0.04392
0.0732,-0.122,0.1708,0.1342,0.0976,-0.0122,-0.03416,0.23912,0.122,0.13176,0.12688,0.06344
0.08784,-0.14152,0.1952,0.15128,0.10736,-0.00976,-0.04392,0.244,0.13176,0.13664,0.1464,0.0732
0.10736,-0.15372,0.20008,0.1464,0.09272,0.00732,-0.0488,0.27816,0.15128,0.16104,0.16592,0.08784
0.12688,-0.17568,0.22448,0.16104,0.0976,0.01464,-0.06344,0.3172,0.16592,0.18056,0.18544,0.10248
0.14152,-0.19032,0.23912,0.16836,0.0976,0.02196,-0.0732,0.33672,0.18056,0.19032,0.20008,0.11712
0.15616,-0.20496,0.25376,0.17568,0.0976,0.02928,-0.0732,0.35136,0.1952,0.21472,0.21472,0.13176
0.18056,-0.22448,0.2684,0.17812,0.08784,0.04636,-0.07808,0.37576,0.21472,0.22936,0.22936,0.1464
0.19032,-0.23424,0.27816,0.183,0.08784,0.05124,-0.09272,0.40504,0.22448,0.23912,0.25376,0.15616
0.20008,-0.244,0.28792,0.18788,0.08784,0.05612,-0.10248,0.42944,0.23912,0.24888,0.26352,0.16592
0.21472,-0.25864,0.30256,0.1952,0.08784,0.06344,-0.10736,0.43432,0.25376,0.26352,0.27816,0.16592
0.22448,-0.2684,0.31232,0.20008,0.08784,0.06832,-0.11224,0.44408,0.26352,0.27328,0.28792,0.18056
0.23912,-0.27816,0.3172,0.19764,0.07808,0.08052,-0.11224,0.4636,0.25864,0.28304,0.29768,0.19032
0.244,-0.27816,0.31232,0.19032,0.06832,0.08784,-0.11224,0.46848,0.25864,0.28304,0.30744,0.1952
0.244,-0.27816,0.31232,0.19032,0.06832,0.08784,-0.122,0.45872,0.2684,0.29768,0.30744,0.1952
0.23424,-0.2684,0.30256,0.18544,0.06832,0.08296,-0.122,0.4392,0.2684,0.28792,0.29768,0.1952
0.22936,-0.26108,0.2928,0.17812,0.06344,0.08296,-0.122,0.40992,0.23912,0.2684,0.27328,0.1708
0.21472,-0.244,0.27328,0.16592,0.05856,0.07808,-0.11712,0.366,0.20984,0.244,0.25376,0.1464
0.1952,-0.22448,0.25376,0.15616,0.05856,0.06832,-0.11224,0.30744,0.1952,0.21472,0.22936,0.13176
0.16592,-0.19276,0.2196,0.13664,0.05368,0.05612,-0.09272,0.25864,0.16104,0.18544,0.19032,0.10736
0.13176,-0.16348,0.1952,0.12932,0.06344,0.03416,-0.08296,0.20984,0.13176,0.16104,0.16592,0.07808
0.11224,-0.13664,0.16104,0.10492,0.0488,0.03172,-0.06832,0.16592,0.0976,0.13176,0.12688,0.0488
0.08784,-0.1098,0.13176,0.08784,0.04392,0.02196,-0.05856,0.122,0.06832,0.08784,0.08784,0.01464
0.06832,-0.08784,0.10736,0.0732,0.03904,0.01464,-0.0488,0.08784,0.04392,0.06832,0.05368,-0.00488
0.03904,-0.06588,0.09272,0.0732,0.05368,-0.00732,-0.03904,0.05856,0.02928,0.05368,0.03904,-0.01464
0.01952,-0.04392,0.06832,0.05856,0.0488,-0.01464,-0.02928,0.01464,0.00488,0.03904,0.01952,-0.02928
0,-0.02196,0.04392,0.04392,0.04392,-0.02196,-0.0244,0,-0.00488,0.01952,0.00488,-0.0488
-0.00488,-0.01464,0.03416,0.0366,0.03904,-0.02196,-0.0244,-0.00976,-0.01952,0,-0.01464,-0.05368
-0.00976,-0.00976,0.02928,0.03416,0.03904,-0.0244,-0.01952,-0.03904,-0.03904,-0.01464,-0.0244,-0.06344
-0.01952,-0.00244,0.0244,0.03416,0.04392,-0.03172,-0.01464,-0.0488,-0.04392,-0.0244,-0.02928,-0.0732
-0.0244,0.00488,0.01464,0.02684,0.03904,-0.03172,-0.00976,-0.06832,-0.05368,-0.0244,-0.03904,-0.08296
-0.0244,0.00732,0.00976,0.02196,0.03416,-0.02928,-0.00976,-0.0732,-0.05856,-0.02928,-0.0488,-0.08784
-0.03416,0.01952,-0.00488,0.0122,0.02928,-0.03172,-0.00976,-0.06832,-0.06344,-0.02928,-0.06344,-0.0976
-0.04392,0.02684,-0.00976,0.0122,0.03416,-0.03904,-0.00488,-0.06832,-0.06344,-0.02928,-0.06344,-0.0976
-0.03904,0.01952,0,0.01952,0.03904,-0.03904,-0.00488,-0.0732,-0.06832,-0.04392,-0.06344,-0.10248
-0.04392,0.02196,0,0.02196,0.04392,-0.04392,-0.00488,-0.0732,-0.06832,-0.04392,-0.06832,-0.10736
-0.04392,0.02196,0,0.02196,0.04392,-0.04392,-0.00488,-0.08784,-0.06832,-0.04392,-0.05856,-0.09272
-0.04392,0.02196,0,0.02196,0.04392,-0.04392,-0.00488,-0.08784,-0.0732,-0.04392,-0.05856,-0.09272
-0.04392,0.02684,-0.00976,0.0122,0.03416,-0.03904,-0.00488,-0.08784,-0.0732,-0.0488,-0.06832,-0.0976
-0.04392,0.02684,-0.00976,0.0122,0.03416,-0.03904,-0.00488,-0.08784,-0.0732,-0.0488,-0.06832,-0.0976
-0.03416,0.0244,-0.01464,0.00244,0.01952,-0.02684,-0.00488,-0.08296,-0.06832,-0.0488,-0.06344,-0.10736
-0.03416,0.0244,-0.01464,0.00244,0.01952,-0.02684,-0.00976,-0.08296,-0.06832,-0.0488,-0.05856,-0.10736
-0.04392,0.0244,-0.00488,0.01708,0.03904,-0.04148,0,-0.08784,-0.06832,-0.03904,-0.05856,-0.0976
-0.04392,0.0244,-0.00488,0.01708,0.03904,-0.04148,0.00488,-0.08784,-0.06832,-0.03904,-0.05856,-0.0976
-0.04392,0.0244,-0.00488,0.01708,0.03904,-0.04148,-0.00488,-0.08784,-0.08296,-0.0488,-0.06832,-0.0976
-0.04392,0.0244,-0.00488,0.01708,0.03904,-0.04148,-0.00488,-0.08784,-0.08296,-0.0488,-0.06832,-0.0976
-0.04392,0.0244,-0.00488,0.01708,0.03904,-0.04148,-0.00488,-0.08784,-0.0732,-0.03904,-0.06832,-0.10736
-0.04392,0.0244,-0.00488,0.01708,0.03904,-0.04148,-0.00488,-0.08784,-0.06832,-0.03904,-0.06832,-0.10736
-0.04392,0.0244,-0.00488,0.01708,0.03904,-0.04148,-0.00488,-0.08296,-0.0732,-0.04392,-0.05856,-0.09272
-0.04392,0.0244,-0.00488,0.01708,0.03904,-0.04148,-0.00488,-0.08784,-0.0732,-0.04392,-0.05856,-0.09272
-0.03904,0.02196,-0.00488,0.01464,0.03416,-0.0366,-0.00488,-0.08784,-0.0732,-0.03416,-0.05368,-0.08296
-0.04392,0.0244,-0.00488,0.01708,0.03904,-0.04148,-0.00488,-0.0976,-0.06832,-0.03416,-0.05368,-0.08296
-0.03904,0.0244,-0.00976,0.00976,0.02928,-0.03416,-0.00976,-0.09272,-0.06832,-0.02928,-0.05368,-0.08784
-0.03904,0.02196,-0.00488,0.01464,0.03416,-0.0366,-0.00976,-0.09272,-0.06832,-0.02928,-0.05368,-0.09272
-0.0488,0.02684,-0.00488,0.01952,0.04392,-0.04636,-0.00488,-0.08784,-0.06832,-0.02928,-0.05368,-0.08296
-0.0488,0.02684,-0.00488,0.01952,0.04392,-0.04636,-0.00488,-0.08784,-0.06832,-0.0244,-0.0488,-0.07808
-0.0488,0.02196,0.00488,0.02928,0.05368,-0.05124,-0.01464,-0.10248,-0.06832,-0.03416,-0.0488,-0.07808
-0.0488,0.02196,0.00488,0.02928,0.05368,-0.05124,-0.01952,-0.10248,-0.06344,-0.03416,-0.0488,-0.0732
-0.0488,0.02684,-0.00488,0.01952,0.04392,-0.04636,-0.00976,-0.10248,-0.06344,-0.0244,-0.0488,-0.08296
-0.04392,0.0244,-0.00488,0.01708,0.03904,-0.04148,-0.00976,-0.10248,-0.06344,-0.0244,-0.04392,-0.07808
-0.04392,0.02196,0,0.02196,0.04392,-0.04392,-0.00488,-0.09272,-0.05368,-0.0244,-0.04392,-0.07808
-0.04392,0.02196,0,0.02196,0.04392,-0.04392,-0.00488,-0.09272,-0.05856,-0.01952,-0.04392,-0.07808
-0.03904,0.01464,0.00976,0.02928,0.0488,-0.04392,-0.01464,-0.08784,-0.05368,-0.01952,-0.04392,-0.0732
-0.03904,0.01464,0.00976,0.02928,0.0488,-0.04392,-0.01464,-0.08784,-0.0488,-0.01952,-0.03904,-0.0732
-0.03904,0.01464,0.00976,0.02928,0.0488,-0.04392,-0.01464,-0.08784,-0.05856,-0.01464,-0.03904,-0.06344
-0.03904,0.01464,0.00976,0.02928,0.0488,-0.04392,-0.01464,-0.08784,-0.05856,-0.01464,-0.03904,-0.05856
-0.03904,0.01952,0,0.01952,0.03904,-0.03904,-0.00976,-0.08784,-0.05856,-0.01464,-0.03416,-0.05856
-0.03904,0.01708,0.00488,0.0244,0.04392,-0.04148,-0.00976,-0.08296,-0.06344,-0.01464,-0.03416,-0.05856
-0.02928,0.00976,0.00976,0.0244,0.03904,-0.03416,-0.00976,-0.08296,-0.05368,-0.01464,-0.03416,-0.05856
-0.02928,0.00976,0.00976,0.0244,0.03904,-0.03416,-0.00976,-0.08296,-0.05368,-0.01464,-0.03904,-0.05856
-0.0244,0.00732,0.00976,0.02196,0.03416,-0.02928,-0.00976,-0.08296,-0.05368,-0.0244,-0.03904,-0.05856
-0.0244,0.00976,0.00488,0.01708,0.02928,-0.02684,-0.00976,-0.08296,-0.05368,-0.0244,-0.03904,-0.05856
-0.03416,0.01464,0.00488,0.02196,0.03904,-0.0366,-0.00976,-0.08296,-0.05368,-0.01464,-0.03416,-0.05856
-0.03416,0.01464,0.00488,0.02196,0.03904,-0.0366,-0.01464,-0.08296,-0.05368,-0.01464,-0.03416,-0.05856
-0.0244,0.00976,0.00488,0.01708,0.02928,-0.02684,-0.01464,-0.08296,-0.05368,-0.01464,-0.03416,-0.05368
-0.0244,0.0122,0,0.0122,0.0244,-0.0244,-0.01952,-0.08296,-0.05368,-0.01464,-0.03904,-0.05368
-0.0244,0.0122,0,0.0122,0.0244,-0.0244,-0.01952,-0.0732,-0.05856,-0.01464,-0.03904,-0.05368
-0.0244,0.01464,-0.00488,0.00732,0.01952,-0.02196,-0.01952,-0.0732,-0.05856,-0.01464,-0.03904,-0.0488
-0.03416,0.01952,-0.00488,0.0122,0.02928,-0.03172,-0.01952,-0.0732,-0.05856,-0.01464,-0.03904,-0.0488
-0.03416,0.01952,-0.00488,0.0122,0.02928,-0.03172,-0.01952,-0.0732,-0.05856,-0.01464,-0.03904,-0.0488
-0.03416,0.01952,-0.00488,0.0122,0.02928,-0.03172,-0.01464,-0.08296,-0.05856,-0.0244,-0.03904,-0.05368
-0.03416,0.02196,-0.00976,0.00732,0.0244,-0.02928,-0.01464,-0.08296,-0.05856,-0.0244,-0.03904,-0.05368
-0.03416,0.02196,-0.00976,0.00732,0.0244,-0.02928,-0.01464,-0.0732,-0.05856,-0.01952,-0.03904,-0.05368
-0.03416,0.02196,-0.00976,0.00732,0.0244,-0.02928,-0.01464,-0.0732,-0.05856,-0.01952,-0.03904,-0.05856
-0.03904,0.02684,-0.01464,0.00488,0.0244,-0.03172,-0.01464,-0.0732,-0.05856,-0.01952,-0.03904,-0.05856
-0.03904,0.02684,-0.01464,0.00488,0.0244,-0.03172,-0.00976,-0.0732,-0.05856,-0.01952,-0.03904,-0.05856
-0.03904,0.02684,-0.01464,0.00488,0.0244,-0.03172,-0.01952,-0.07808,-0.05368,-0.01952,-0.05368,-0.0488
-0.03904,0.02684,-0.01464,0.00488,0.0244,-0.03172,-0.01952,-0.07808,-0.05368,-0.01952,-0.05368,-0.04392
-0.03904,0.03416,-0.02928,-0.00976,0.00976,-0.0244,-0.01464,-0.08784,-0.06344,-0.0244,-0.05368,-0.05856
-0.03904,0.0366,-0.03416,-0.01464,0.00488,-0.02196,-0.01464,-0.08784,-0.06344,-0.01952,-0.05368,-0.05368
-0.03904,0.03172,-0.0244,-0.00488,0.01464,-0.02684,-0.01464,-0.07808,-0.05856,-0.0244,-0.04392,-0.0488
-0.04392,0.03416,-0.0244,-0.00244,0.01952,-0.03172,-0.01464,-0.07808,-0.05368,-0.0244,-0.04392,-0.0488
-0.04392,0.03416,-0.0244,-0.00244,0.01952,-0.03172,-0.01464,-0.07808,-0.05368,-0.0244,-0.04392,-0.0488
-0.04392,0.0366,-0.02928,-0.00732,0.01464,-0.02928,-0.01464,-0.07808,-0.05856,-0.0244,-0.04392,-0.0488
-0.04392,0.0366,-0.02928,-0.00732,0.01464,-0.02928,-0.01464,-0.07808,-0.05856,-0.03416,-0.05368,-0.03904
-0.04392,0.0366,-0.02928,-0.00732,0.01464,-0.02928,-0.01464,-0.07808,-0.05368,-0.03416,-0.05368,-0.03904
-0.03416,0.03172,-0.02928,-0.0122,0.00488,-0.01952,-0.00488,-0.06832,-0.05368,-0.0244,-0.04392,-0.0488
-0.03416,0.03172,-0.02928,-0.0122,0.00488,-0.01952,-0.00488,-0.06832,-0.05368,-0.0244,-0.0488,-0.0488
-0.04392,0.0366,-0.02928,-0.00732,0.01464,-0.02928,-0.01464,-0.08296,-0.05368,-0.02928,-0.0488,-0.0488
-0.04392,0.0366,-0.02928,-0.00732,0.01464,-0.02928,-0.01464,-0.08296,-0.05368,-0.02928,-0.04392,-0.0488
-0.04392,0.04148,-0.03904,-0.01708,0.00488,-0.0244,-0.00488,-0.07808,-0.05368,-0.02928,-0.0488,-0.0488
-0.04392,0.04148,-0.03904,-0.01708,0.00488,-0.0244,0,-0.07808,-0.05856,-0.02928,-0.0488,-0.0488
-0.04392,0.04148,-0.03904,-0.01708,0.00488,-0.0244,-0.00976,-0.0732,-0.05856,-0.02928,-0.0488,-0.0488
-0.04392,0.04148,-0.03904,-0.01708,0.00488,-0.0244,-0.00976,-0.0732,-0.05856,-0.02928,-0.0488,-0.0488
-0.03416,0.03904,-0.04392,-0.02684,-0.00976,-0.0122,-0.00488,-0.0732,-0.0488,-0.02928,-0.0488,-0.05368
-0.03416,0.03904,-0.04392,-0.02684,-0.00976,-0.0122,-0.00488,-0.0732,-0.0488,-0.02928,-0.0488,-0.0488
-0.03416,0.03904,-0.04392,-0.02684,-0.00976,-0.0122,-0.00488,-0.06832,-0.05368,-0.02928,-0.0488,-0.03904
-0.03416,0.0366,-0.03904,-0.02196,-0.00488,-0.01464,-0.00488,-0.06832,-0.05368,-0.0244,-0.0488,-0.03904
-0.04392,0.04636,-0.0488,-0.02684,-0.00488,-0.01952,0.00488,-0.06832,-0.04392,-0.01952,-0.03904,-0.03904
-0.0488,0.0488,-0.0488,-0.0244,0,-0.0244,0.00488,-0.06832,-0.0488,-0.01952,-0.03904,-0.03904
-0.04392,0.05124,-0.05856,-0.0366,-0.01464,-0.01464,0,-0.06832,-0.0488,-0.02928,-0.03904,-0.04392
-0.04392,0.05124,-0.05856,-0.0366,-0.01464,-0.01464,0,-0.0732,-0.04392,-0.02928,-0.03904,-0.04392
-0.04392,0.05124,-0.05856,-0.0366,-0.01464,-0.01464,0,-0.06344,-0.03904,-0.02928,-0.0488,-0.04392
-0.04392,0.0488,-0.05368,-0.03172,-0.00976,-0.01708,-0.00488,-0.06344,-0.03904,-0.02928,-0.0488,-0.04392
-0.0488,0.05612,-0.06344,-0.03904,-0.01464,-0.01708,0.00976,-0.06344,-0.03904,-0.02928,-0.0488,-0.04392
-0.0488,0.05612,-0.06344,-0.03904,-0.01464,-0.01708,0.00976,-0.05856,-0.03904,-0.02928,-0.0488,-0.04392
-0.0488,0.05368,-0.05856,-0.03416,-0.00976,-0.01952,0,-0.06344,-0.03904,-0.02928,-0.0488,-0.03904
-0.0488,0.05368,-0.05856,-0.03416,-0.00976,-0.01952,0,-0.06344,-0.03904,-0.02928,-0.0488,-0.03904
-0.03904,0.0488,-0.05856,-0.03904,-0.01952,-0.00976,0,-0.06344,-0.03904,-0.02928,-0.04392,-0.04392
-0.03904,0.0488,-0.05856,-0.03904,-0.01952,-0.00976,0,-0.06832,-0.03904,-0.01952,-0.03904,-0.03904
-0.03904,0.0488,-0.05856,-0.03904,-0.01952,-0.00976,0,-0.06832,-0.03904,-0.01952,-0.0488,-0.03904
-0.03904,0.0488,-0.05856,-0.03904,-0.01952,-0.00976,0,-0.06832,-0.03904,-0.01952,-0.0488,-0.03904
-0.03904,0.0488,-0.05856,-0.03904,-0.01952,-0.00976,0.00976,-0.05856,-0.03904,-0.02928,-0.0488,-0.03904
-0.03904,0.0488,-0.05856,-0.03904,-0.01952,-0.00976,0.00976,-0.05856,-0.03904,-0.02928,-0.0488,-0.03904
-0.03904,0.0488,-0.05856,-0.03904,-0.01952,-0.00976,0.00976,-0.05856,-0.03904,-0.02928,-0.0488,-0.03904
-0.03904,0.0488,-0.05856,-0.03904,-0.01952,-0.00976,0.00976,-0.05856,-0.03904,-0.02928,-0.0488,-0.03904
-0.0488,0.05856,-0.06832,-0.04392,-0.01952,-0.01464,0.00976,-0.05856,-0.03904,-0.02928,-0.0488,-0.03904
-0.0488,0.05856,-0.06832,-0.04392,-0.01952,-0.01464,0.00976,-0.05856,-0.03904,-0.02928,-0.0488,-0.03904
-0.0488,0.06344,-0.07808,-0.05368,-0.02928,-0.00976,0.00976,-0.05856,-0.02928,-0.02928,-0.03904,-0.03904
-0.0488,0.06344,-0.07808,-0.05368,-0.02928,-0.00976,0.00976,-0.05856,-0.02928,-0.02928,-0.03904,-0.03904
-0.03904,0.05856,-0.07808,-0.05856,-0.03904,0,0.00976,-0.05856,-0.01952,-0.02928,-0.03904,-0.03904
-0.03904,0.05856,-0.07808,-0.05856,-0.03904,0,0.00976,-0.05856,-0.01952,-0.02928,-0.03904,-0.03904
-0.03904,0.05856,-0.07808,-0.05856,-0.03904,0,0.00976,-0.06832,-0.02928,-0.02928,-0.0488,-0.03904
-0.03904,0.05856,-0.07808,-0.05856,-0.03904,0,0.00976,-0.06832,-0.02928,-0.02928,-0.0488,-0.03904
-0.03904,0.05368,-0.06832,-0.0488,-0.02928,-0.00488,0.00976,-0.05856,-0.03904,-0.02928,-0.0488,-0.03904
-0.03904,0.05368,-0.06832,-0.0488,-0.02928,-0.00488,0.00976,-0.05856,-0.03904,-0.02928,-0.0488,-0.03904
-0.03904,0.05856,-0.07808,-0.05856,-0.03904,0,0.01952,-0.0488,-0.02928,-0.01952,-0.03904,-0.02928
-0.03904,0.05856,-0.07808,-0.05856,-0.03904,0,0.01952,-0.0488,-0.02928,-0.01952,-0.03904,-0.02928
-0.03904,0.05856,-0.07808,-0.05856,-0.03904,0,0.01952,-0.0488,-0.02928,-0.01952,-0.03904,-0.02928
-0.03904,0.05856,-0.07808,-0.05856,-0.03904,0,0.01952,-0.0488,-0.02928,-0.01952,-0.03904,-0.02928
-0.03904,0.06344,-0.08784,-0.06832,-0.0488,0.00488,0.01952,-0.05856,-0.02928,-0.02928,-0.03904,-0.02928
-0.03904,0.06832,-0.0976,-0.07808,-0.05856,0.00976,0.01952,-0.05856,-0.02928,-0.02928,-0.03904,-0.02928
-0.03904,0.06344,-0.08784,-0.06832,-0.0488,0.00488,0.01952,-0.05856,-0.03904,-0.03904,-0.0488,-0.02928
-0.03904,0.06344,-0.08784,-0.06832,-0.0488,0.00488,0.01952,-0.05856,-0.03904,-0.03904,-0.0488,-0.02928
-0.03904,0.05856,-0.07808,-0.05856,-0.03904,0,0.01952,-0.0488,-0.02928,-0.02928,-0.03904,-0.02928
-0.03904,0.05856,-0.07808,-0.05856,-0.03904,0,0.01952,-0.0488,-0.02928,-0.02928,-0.03904,-0.02928
-0.03904,0.06344,-0.08784,-0.06832,-0.0488,0.00488,0.01952,-0.0488,-0.02928,-0.02928,-0.03904,-0.02928
-0.03904,0.06344,-0.08784,-0.06832,-0.0488,0.00488,0.01952,-0.0488,-0.02928,-0.02928,-0.03904,-0.02928
-0.03904,0.06832,-0.0976,-0.07808,-0.05856,0.00976,0.01952,-0.0488,-0.02928,-0.02928,-0.0488,-0.01952
-0.03904,0.06832,-0.0976,-0.07808,-0.05856,0.00976,0.01952,-0.0488,-0.02928,-0.02928,-0.0488,-0.01952
-0.02928,0.06344,-0.0976,-0.08296,-0.06832,0.01952,0.02928,-0.0488,-0.01952,-0.02928,-0.0488,-0.02928
-0.02928,0.06344,-0.0976,-0.08296,-0.06832,0.01952,0.02928,-0.0488,-0.01952,-0.02928,-0.0488,-0.02928
-0.03904,0.06832,-0.0976,-0.07808,-0.05856,0.00976,0.02928,-0.0488,-0.01952,-0.02928,-0.03904,-0.01952
-0.03904,0.06832,-0.0976,-0.07808,-0.05856,0.00976,0.02928,-0.0488,-0.01952,-0.02928,-0.03904,-0.01952
-0.03904,0.0732,-0.10736,-0.08784,-0.06832,0.01464,0.02928,-0.0488,-0.01952,-0.02928,-0.03904,-0.01952
-0.03904,0.0732,-0.10736,-0.08784,-0.06832,0.01464,0.02928,-0.0488,-0.01952,-0.02928,-0.03904,-0.01952
-0.02928,0.06832,-0.10736,-0.09272,-0.07808,0.0244,0.02928,-0.0488,-0.01952,-0.02928,-0.03904,-0.01952
-0.02928,0.06832,-0.10736,-0.09272,-0.07808,0.0244,0.02928,-0.0488,-0.01952,-0.02928,-0.03904,-0.01952
-0.03904,0.0732,-0.10736,-0.08784,-0.06832,0.01464,0.02928,-0.0488,-0.01952,-0.03904,-0.03904,-0.01952
-0.03904,0.0732,-0.10736,-0.08784,-0.06832,0.01464,0.02928,-0.0488,-0.01952,-0.03904,-0.03904,-0.01952
-0.03904,0.0732,-0.10736,-0.08784,-0.06832,0.01464,0.03904,-0.03904,-0.00976,-0.02928,-0.03904,-0.01952
-0.03904,0.0732,-0.10736,-0.08784,-0.06832,0.01464,0.03904,-0.03904,-0.00976,-0.02928,-0.03904,-0.01952
-0.03904,0.0732,-0.10736,-0.08784,-0.06832,0.01464,0.02928,-0.0488,-0.00976,-0.02928,-0.03904,-0.01952
-0.04392,0.07564,-0.10736,-0.0854,-0.06344,0.00976,0.02928,-0.0488,-0.00976,-0.02928,-0.03904,-0.01952
-0.03904,0.0732,-0.10736,-0.08784,-0.06832,0.01464,0.04392,-0.03904,-0.00976,-0.03416,-0.03904,-0.01952
-0.03904,0.0732,-0.10736,-0.08784,-0.06832,0.01464,0.04392,-0.03904,-0.00976,-0.03416,-0.03904,-0.01952
-0.03416,0.07076,-0.10736,-0.09028,-0.0732,0.01952,0.04392,-0.03416,-0.01464,-0.03416,-0.03416,-0.00488
-0.02928,0.06588,-0.10248,-0.08784,-0.0732,0.02196,0.04392,-0.02928,-0.00976,-0.02928,-0.03416,-0.00488
-0.01464,0.05124,-0.08784,-0.08052,-0.0732,0.02928,0.03904,-0.02928,-0.01464,-0.01952,-0.03416,-0.00976
-0.00976,0.04392,-0.07808,-0.0732,-0.06832,0.02928,0.03904,-0.01952,-0.00488,-0.01952,-0.0244,0
-0.00488,0.04148,-0.07808,-0.07564,-0.0732,0.03416,0.05368,0,0.00976,-0.01464,-0.01464,0.00488
-0.00976,0.04148,-0.0732,-0.06832,-0.06344,0.02684,0.05856,0.00488,0.01464,-0.00976,-0.00976,0.00488
0.00976,0.02928,-0.06832,-0.0732,-0.07808,0.04392,0.06832,0.01464,0.03416,0,0.00488,0.01464
0.0244,0.01708,-0.05856,-0.07076,-0.08296,0.05368,0.07808,0.0244,0.03904,0.00976,0.00976,0.01952
0.03904,0,-0.03904,-0.05856,-0.07808,0.05856,0.08296,0.03416,0.03904,0.01952,0.00976,0.02928
0.03904,-0.00976,-0.01952,-0.03904,-0.05856,0.0488,0.08296,0.0488,0.0488,0.0244,0.01952,0.03904
0.03416,-0.00244,-0.02928,-0.04636,-0.06344,0.0488,0.08296,0.0488,0.05368,0.03416,0.02928,0.03904
0.02928,0,-0.02928,-0.04392,-0.05856,0.04392,0.08296,0.0488,0.05368,0.03416,0.02928,0.03904
0.03416,0.00244,-0.03904,-0.05612,-0.0732,0.05368,0.08784,0.04392,0.04392,0.03416,0.0244,0.04392
0.03416,0.00244,-0.03904,-0.05612,-0.0732,0.05368,0.06344,0.01952,0.03416,0.01952,0.01464,0.04392
0.0244,0.0122,-0.0488,-0.061,-0.0732,0.0488,0.05368,0.00488,0.02928,0.01464,0.00488,0.03416
0.0244,0.01464,-0.05368,-0.06588,-0.07808,0.05124,0.03416,-0.00488,0.01952,0.00976,-0.00488,0.02928
0.0244,0.0244,-0.0732,-0.0854,-0.0976,0.061,0.02928,-0.01952,0.01952,0.00488,-0.00488,0.02928
0.0244,0.02928,-0.08296,-0.09516,-0.10736,0.06588,0.01952,-0.03416,0.00976,-0.00976,-0.01952,0.01952
0.00976,0.04392,-0.0976,-0.10248,-0.10736,0.05856,0.01464,-0.04392,-0.01464,-0.02928,-0.03416,0.00976
-0.00488,0.05856,-0.11224,-0.1098,-0.10736,0.05124,0.01952,-0.0488,-0.01952,-0.03904,-0.04392,0
-0.01952,0.06832,-0.11712,-0.10736,-0.0976,0.03904,0.04392,-0.0488,-0.0244,-0.03904,-0.04392,0
-0.03904,0.08052,-0.122,-0.10248,-0.08296,0.02196,0.0488,-0.0488,-0.0244,-0.03904,-0.04392,0
-0.03904,0.08296,-0.12688,-0.10736,-0.08784,0.0244,0.0488,-0.05368,-0.0244,-0.05368,-0.04392,-0.00488
-0.03904,0.0854,-0.13176,-0.11224,-0.09272,0.02684,0.0488,-0.05856,-0.02928,-0.05368,-0.0488,-0.00976
-0.03904,0.09272,-0.1464,-0.12688,-0.10736,0.03416,0.0488,-0.06832,-0.0244,-0.06344,-0.06832,-0.03416
-0.04392,0.09516,-0.1464,-0.12444,-0.10248,0.02928,0.0488,-0.06832,-0.02928,-0.06832,-0.0732,-0.03416
-0.05368,0.10492,-0.15616,-0.12932,-0.10248,0.0244,0.05368,-0.06832,-0.02928,-0.06832,-0.06344,-0.03416
-0.0488,0.10004,-0.15128,-0.12688,-0.10248,0.02684,0.05368,-0.06832,-0.02928,-0.06832,-0.06344,-0.03416
-0.0488,0.10004,-0.15128,-0.12688,-0.10248,0.02684,0.05368,-0.06832,-0.02928,-0.0732,-0.06344,-0.0244
-0.05368,0.10492,-0.15616,-0.12932,-0.10248,0.0244,0.05368,-0.06832,-0.02928,-0.0732,-0.06344,-0.0244
-0.04392,0.10004,-0.15616,-0.1342,-0.11224,0.03416,0.04392,-0.05856,-0.02928,-0.06832,-0.06832,-0.02928
-0.04392,0.10004,-0.15616,-0.1342,-0.11224,0.03416,0.04392,-0.06344,-0.03416,-0.0732,-0.06832,-0.02928
-0.05368,0.10492,-0.15616,-0.12932,-0.10248,0.0244,0.0488,-0.06344,-0.01952,-0.0732,-0.06832,-0.0244
-0.05856,0.10736,-0.15616,-0.12688,-0.0976,0.01952,0.0488,-0.06344,-0.01952,-0.0732,-0.06344,-0.0244
-0.0488,0.10248,-0.15616,-0.13176,-0.10736,0.02928,0.05368,-0.05856,-0.01952,-0.0732,-0.06344,-0.03416
-0.0488,0.10004,-0.15128,-0.12688,-0.10248,0.02684,0.05368,-0.05856,-0.01952,-0.0732,-0.06344,-0.03416
-0.0488,0.10004,-0.15128,-0.12688,-0.10248,0.02684,0.05368,-0.05856,-0.01464,-0.0732,-0.06344,-0.02928
-0.0488,0.10248,-0.15616,-0.13176,-0.10736,0.02928,0.05368,-0.05368,-0.01464,-0.06832,-0.06344,-0.02928
-0.0488,0.10248,-0.15616,-0.13176,-0.10736,0.02928,0.05856,-0.04392,-0.00976,-0.06832,-0.05856,-0.02928
-0.06344,0.11224,-0.16104,-0.12932,-0.0976,0.01708,0.0732,-0.0488,-0.01952,-0.06832,-0.06344,-0.03904
-0.0976,0.13664,-0.17568,-0.12688,-0.07808,-0.00976,0.122,-0.0244,-0.00976,-0.08296,-0.06832,-0.06344
-0.11712,0.14884,-0.18056,-0.122,-0.06344,-0.02684,0.16592,0.01464,0,-0.10248,-0.0732,-0.08296
-0.11224,0.14396,-0.17568,-0.11956,-0.06344,-0.0244,0.1708,0.05856,0.04392,-0.0732,-0.0488,-0.04392
-0.08784,0.12444,-0.16104,-0.11712,-0.0732,-0.00732,0.19032,0.20984,0.10736,-0.0244,0.02928,-0.02928
-0.01952,0.06588,-0.11224,-0.10248,-0.09272,0.0366,0.19032,0.4636,0.25864,0.09272,0.15616,0.0488
0.14152,-0.06832,-0.00488,-0.07564,-0.1464,0.14396,0.15128,0.79056,0.42944,0.26352,0.35624,0.18544
0.33184,-0.23668,0.14152,-0.0244,-0.19032,0.26108,0,0.86376,0.59048,0.44408,0.5368,0.37088
0.5124,-0.43432,0.35624,0.10004,-0.15616,0.33428,-0.22448,0.62464,0.69784,0.61,0.70272,0.54656
0.6344,-0.62952,0.62464,0.30744,-0.00976,0.32208,-0.51728,0.34648,0.81008,0.81496,0.85888,0.73688
0.64904,-0.67588,0.70272,0.3782,0.05368,0.29768,-0.75152,-0.10248,0.66368,0.78568,0.77592,0.77592
0.52216,-0.49532,0.46848,0.2074,-0.05368,0.28792,-0.72712,-0.47336,0.34648,0.5368,0.49288,0.61976
0.31232,-0.22204,0.13176,-0.0244,-0.18056,0.24644,-0.56608,-0.69296,-0.0488,0.17568,0.09272,0.3416
0.15616,-0.05856,-0.03904,-0.11712,-0.1952,0.17568,-0.46848,-0.83936,-0.27328,-0.05856,-0.15616,0.15128
0.06832,0.03416,-0.13664,-0.1708,-0.20496,0.13664,-0.41968,-0.81984,-0.32208,-0.13664,-0.244,0.04392
0.03416,0.10736,-0.24888,-0.26596,-0.28304,0.1586,-0.33672,-0.6588,-0.31232,-0.18056,-0.26352,-0.0244
-0.03904,0.16836,-0.29768,-0.27816,-0.25864,0.1098,-0.22936,-0.51728,-0.28792,-0.20984,-0.26352,-0.08296
-0.0488,0.16836,-0.28792,-0.26352,-0.23912,0.09516,-0.17568,-0.366,-0.23912,-0.1952,-0.23912,-0.08296
-0.02928,0.12932,-0.22936,-0.21472,-0.20008,0.0854,-0.10736,-0.23424,-0.15616,-0.14152,-0.16592,-0.05368
-0.01464,0.09028,-0.16592,-0.1586,-0.15128,0.06832,-0.0488,-0.16592,-0.06344,-0.08784,-0.0976,-0.01952
-0.01952,0.08784,-0.15616,-0.1464,-0.13664,0.05856,0,-0.13176,-0.0488,-0.06344,-0.08296,-0.00488
-0.01952,0.08296,-0.1464,-0.13664,-0.12688,0.05368,0.02928,-0.06832,-0.03416,-0.05856,-0.06832,-0.00488
-0.03416,0.08296,-0.13176,-0.11468,-0.0976,0.03172,0.05856,-0.0244,0,-0.05856,-0.0488,-0.00488
-0.03904,0.08296,-0.12688,-0.10736,-0.08784,0.0244,0.0732,-0.03416,0.00488,-0.05856,-0.0488,-0.01464
-0.03904,0.07808,-0.11712,-0.0976,-0.07808,0.01952,0.0732,-0.04392,0.00488,-0.05856,-0.0488,-0.01464
-0.03904,0.07808,-0.11712,-0.0976,-0.07808,0.01952,0.06832,-0.01464,0.00488,-0.05368,-0.03904,-0.00488
-0.03904,0.07564,-0.11224,-0.09272,-0.0732,0.01708,0.06344,-0.00976,0.00976,-0.05368,-0.03904,-0.00976
-0.0488,0.07808,-0.10736,-0.08296,-0.05856,0.00488,0.0732,-0.00488,0.02928,-0.04392,-0.03416,0
-0.0488,0.08052,-0.11224,-0.08784,-0.06344,0.00732,0.08784,-0.00488,0.02928,-0.04392,-0.02928,0
-0.03904,0.07564,-0.11224,-0.09272,-0.0732,0.01708,0.09272,-0.00488,0.01952,-0.04392,-0.02928,0
-0.03904,0.07564,-0.11224,-0.09272,-0.0732,0.01708,0.09272,0,0.01952,-0.03904,-0.02928,0.00488
-0.04392,0.0732,-0.10248,-0.08052,-0.05856,0.00732,0.08296,0.00488,0.01952,-0.0488,-0.02928,-0.00488
-0.04392,0.0732,-0.10248,-0.08052,-0.05856,0.00732,0.08784,0.00976,0.01952,-0.0488,-0.02928,-0.00488
-0.03904,0.06832,-0.0976,-0.07808,-0.05856,0.00976,0.08296,0.00488,0.01952,-0.0488,-0.02928,-0.00488
-0.03904,0.06588,-0.09272,-0.0732,-0.05368,0.00732,0.08784,0.00488,0.0244,-0.0488,-0.0244,0
-0.03904,0.06832,-0.0976,-0.07808,-0.05856,0.00976,0.08784,0.00976,0.03416,-0.0488,-0.0244,0
-0.03904,0.06832,-0.0976,-0.07808,-0.05856,0.00976,0.08784,0.00976,0.03416,-0.0488,-0.0244,0
-0.0488,0.06832,-0.08784,-0.06344,-0.03904,-0.00488,0.09272,0.00976,0.03416,-0.0488,-0.0244,0
-0.0488,0.06832,-0.08784,-0.06344,-0.03904,-0.00488,0.09272,0.01464,0.02928,-0.0488,-0.0244,0
-0.03904,0.06344,-0.08784,-0.06832,-0.0488,0.00488,0.09272,0.0244,0.03904,-0.0488,-0.01952,0.00976
-0.03904,0.061,-0.08296,-0.06344,-0.04392,0.00244,0.09272,0.0244,0.03416,-0.04392,-0.01952,0.01464
-0.03416,0.05368,-0.0732,-0.05612,-0.03904,0.00244,0.09272,0.0244,0.03416,-0.05368,-0.0244,0.00488
-0.03416,0.05368,-0.0732,-0.05612,-0.03904,0.00244,0.09272,0.02928,0.03904,-0.05368,-0.0244,0.00976
-0.04392,0.05856,-0.0732,-0.05124,-0.02928,-0.00732,0.08784,0.02928,0.02928,-0.05368,-0.0244,0.00488
-0.04392,0.05856,-0.0732,-0.05124,-0.02928,-0.00732,0.08784,0.02928,0.02928,-0.0488,-0.01952,0.00488
-0.04392,0.05612,-0.06832,-0.04636,-0.0244,-0.00976,0.08784,0.03416,0.02928,-0.0488,-0.01952,0.01464
-0.04392,0.05856,-0.0732,-0.05124,-0.02928,-0.00732,0.08784,0.03416,0.02928,-0.04392,-0.01464,0.01464
-0.04392,0.05612,-0.06832,-0.04636,-0.0244,-0.00976,0.08784,0.04392,0.03416,-0.04392,-0.0244,0.01952
-0.03904,0.05368,-0.06832,-0.0488,-0.02928,-0.00488,0.08784,0.03904,0.03416,-0.04392,-0.01952,0.01952
-0.03904,0.04636,-0.05368,-0.03416,-0.01464,-0.0122,0.08784,0.0488,0.03416,-0.03904,-0.00976,0.01952
-0.03904,0.04148,-0.04392,-0.0244,-0.00488,-0.01708,0.08296,0.05368,0.04392,-0.03904,-0.00488,0.0244
-0.03416,0.04148,-0.0488,-0.03172,-0.01464,-0.00976,0.08296,0.05856,0.05368,-0.0244,-0.00488,0.0244
-0.03416,0.04148,-0.0488,-0.03172,-0.01464,-0.00976,0.08296,0.06344,0.05856,-0.01952,0,0.0244
-0.03416,0.03416,-0.03416,-0.01708,0,-0.01708,0.08296,0.06344,0.0488,-0.02928,0,0.02928
-0.02928,0.03172,-0.03416,-0.01952,-0.00488,-0.0122,0.07808,0.06832,0.05368,-0.0244,0.00488,0.02928
-0.0244,0.01952,-0.01464,-0.00244,0.00976,-0.01708,0.08784,0.06344,0.05856,-0.0244,0.00976,0.03416
-0.0244,0.01952,-0.01464,-0.00244,0.00976,-0.01708,0.08784,0.06832,0.05856,-0.01952,0.01464,0.03904
-0.01952,0.01708,-0.01464,-0.00488,0.00488,-0.0122,0.07808,0.09272,0.06344,-0.01464,0.01952,0.04392
-0.01464,0.00976,-0.00488,0.00244,0.00976,-0.0122,0.07808,0.10248,0.06832,-0.00976,0.01952,0.04392
0,0,0,0,0,0,0.0732,0.0976,0.0732,-0.01464,0.0244,0.0488
0,-0.00244,0.00488,0.00488,0.00488,-0.00244,0.0732,0.11224,0.08296,-0.00488,0.03416,0.05856
0.00976,-0.01464,0.01952,0.01464,0.00976,0,0.06832,0.11712,0.09272,0,0.03416,0.06832
0.01952,-0.02196,0.0244,0.01464,0.00488,0.00732,0.06832,0.13176,0.10248,0.00488,0.03904,0.0732
0.0244,-0.03172,0.03904,0.02684,0.01464,0.00488,0.0732,0.15128,0.10248,0.00976,0.06344,0.0732
0.03416,-0.04148,0.0488,0.03172,0.01464,0.00976,0.0732,0.1708,0.11712,0.0244,0.0732,0.09272
0.02928,-0.04392,0.05856,0.04392,0.02928,0,0.05856,0.19032,0.12688,0.03416,0.08296,0.10248
0.03904,-0.05368,0.06832,0.0488,0.02928,0.00488,0.05856,0.20496,0.13664,0.04392,0.09272,0.10736
0.05856,-0.0732,0.08784,0.05856,0.02928,0.01464,0.0488,0.20984,0.14152,0.05856,0.10736,0.122
0.06832,-0.0854,0.10248,0.06832,0.03416,0.01708,0.04392,0.22936,0.15616,0.0732,0.122,0.13176
0.07808,-0.10004,0.122,0.08296,0.04392,0.01708,0.03416,0.25376,0.1708,0.08784,0.13664,0.14152
0.09272,-0.11712,0.14152,0.09516,0.0488,0.02196,0.0244,0.27816,0.19032,0.10248,0.15616,0.16104
0.0976,-0.12688,0.15616,0.10736,0.05856,0.01952,0.0244,0.30256,0.2196,0.12688,0.17568,0.1708
0.11712,-0.13908,0.16104,0.10248,0.04392,0.0366,0.01952,0.33672,0.23912,0.15128,0.1952,0.18544
0.13664,-0.16592,0.1952,0.12688,0.05856,0.03904,0.01464,0.35624,0.244,0.16104,0.21472,0.20008
0.15128,-0.18056,0.20984,0.1342,0.05856,0.04636,0.00488,0.37576,0.25864,0.1708,0.22936,0.21472
0.16592,-0.1952,0.22448,0.14152,0.05856,0.05368,-0.00488,0.3904,0.27328,0.1952,0.244,0.22936
0.19032,-0.21472,0.23912,0.14396,0.0488,0.07076,-0.00976,0.4148,0.2928,0.20984,0.25864,0.244
0.20008,-0.22936,0.25864,0.1586,0.05856,0.07076,-0.01464,0.43432,0.30256,0.2196,0.27328,0.244
0.20984,-0.23912,0.2684,0.16348,0.05856,0.07564,-0.0244,0.45872,0.3172,0.2196,0.28304,0.25376
0.21472,-0.244,0.27328,0.16592,0.05856,0.07808,-0.03904,0.47336,0.33184,0.244,0.29768,0.27328
0.22448,-0.25376,0.28304,0.1708,0.05856,0.08296,-0.04392,0.48312,0.3416,0.25376,0.30744,0.28792
0.23912,-0.2684,0.29768,0.17812,0.05856,0.09028,-0.05368,0.48312,0.33672,0.25376,0.30744,0.28792
0.244,-0.2684,0.2928,0.1708,0.0488,0.0976,-0.05368,0.488,0.33672,0.25376,0.3172,0.2928
0.244,-0.2684,0.2928,0.1708,0.0488,0.0976,-0.05368,0.488,0.33672,0.25864,0.32696,0.28304
0.23424,-0.25864,0.28304,0.16592,0.0488,0.09272,-0.05368,0.46848,0.32696,0.24888,0.3172,0.28304
0.22936,-0.25132,0.27328,0.1586,0.04392,0.09272,-0.05368,0.4392,0.3172,0.22936,0.2928,0.2684
0.21472,-0.23424,0.25376,0.1464,0.03904,0.08784,-0.0488,0.39528,0.28792,0.20496,0.27328,0.244
0.18544,-0.20984,0.23424,0.14152,0.0488,0.06832,-0.03416,0.35624,0.26352,0.17568,0.24888,0.2196
0.15616,-0.17812,0.20008,0.122,0.04392,0.05612,-0.01464,0.30744,0.22936,0.1464,0.20984,0.1952
0.13176,-0.15372,0.17568,0.1098,0.04392,0.04392,-0.00488,0.24888,0.19032,0.11224,0.17568,0.16592
0.11224,-0.12688,0.14152,0.0854,0.02928,0.04148,0.00976,0.20496,0.15616,0.08296,0.13664,0.13664
0.07808,-0.09028,0.10248,0.06344,0.0244,0.02684,0.01952,0.1708,0.13664,0.03904,0.10736,0.11224
0.05856,-0.06832,0.07808,0.0488,0.01952,0.01952,0.02928,0.13664,0.11224,0.01952,0.0732,0.09272
0.03904,-0.05124,0.06344,0.04392,0.0244,0.00732,0.03904,0.10736,0.08784,0.00488,0.03904,0.0732
0.01952,-0.03416,0.0488,0.03904,0.02928,-0.00488,0.0488,0.06344,0.06344,-0.00976,0.01952,0.05856
0,-0.0122,0.0244,0.0244,0.0244,-0.0122,0.05368,0.0488,0.05368,-0.03904,0.00488,0.03904
-0.00488,-0.00488,0.01464,0.01708,0.01952,-0.0122,0.05368,0.03904,0.03904,-0.05856,-0.01464,0.03416
-0.00976,0,0.00976,0.01464,0.01952,-0.01464,0.05856,0.01952,0.01952,-0.06344,-0.0244,0.01464
-0.01952,0.00732,0.00488,0.01464,0.0244,-0.02196,0.06344,0.00976,0.01464,-0.0732,-0.02928,0.00488
-0.03416,0.01952,-0.00488,0.0122,0.02928,-0.03172,0.07808,0,0.00488,-0.08296,-0.03904,0.00488
-0.03416,0.02196,-0.00976,0.00732,0.0244,-0.02928,0.07808,-0.00488,0,-0.08784,-0.0488,0
-0.04392,0.03416,-0.0244,-0.00244,0.01952,-0.03172,0.07808,-0.00976,-0.00488,-0.08784,-0.05368,-0.00976
-0.04392,0.0366,-0.02928,-0.00732,0.01464,-0.02928,0.08296,-0.00976,-0.00488,-0.08784,-0.05368,-0.00976
-0.0488,0.03904,-0.02928,-0.00488,0.01952,-0.03416,0.08296,-0.0244,-0.00976,-0.09272,-0.05368,-0.01464
-0.05368,0.04148,-0.02928,-0.00244,0.0244,-0.03904,0.08296,-0.0244,-0.00976,-0.09272,-0.05856,-0.01952
-0.04392,0.0366,-0.02928,-0.00732,0.01464,-0.02928,0.08296,-0.01952,-0.00976,-0.09272,-0.05856,-0.01464
-0.04392,0.0366,-0.02928,-0.00732,0.01464,-0.02928,0.08296,-0.01952,-0.01464,-0.09272,-0.05856,-0.01464
-0.04392,0.0366,-0.02928,-0.00732,0.01464,-0.02928,0.08296,-0.01952,-0.00488,-0.0976,-0.0488,-0.00976
-0.04392,0.0366,-0.02928,-0.00732,0.01464,-0.02928,0.08296,-0.01952,-0.00488,-0.0976,-0.0488,-0.00976
-0.04392,0.03904,-0.03416,-0.0122,0.00976,-0.02684,0.08296,-0.0244,-0.00976,-0.0976,-0.06344,-0.01952
-0.04392,0.03904,-0.03416,-0.0122,0.00976,-0.02684,0.07808,-0.0244,-0.01952,-0.0976,-0.05856,-0.01952
-0.04392,0.03416,-0.0244,-0.00244,0.01952,-0.03172,0.06832,-0.02928,-0.01952,-0.0976,-0.06832,-0.01952
-0.04392,0.03416,-0.0244,-0.00244,0.01952,-0.03172,0.0732,-0.02928,-0.01952,-0.0976,-0.06832,-0.01952
-0.04392,0.03416,-0.0244,-0.00244,0.01952,-0.03172,0.0732,-0.02928,-0.01464,-0.0976,-0.05856,-0.01952
-0.04392,0.03416,-0.0244,-0.00244,0.01952,-0.03172,0.0732,-0.02928,-0.01464,-0.0976,-0.05856,-0.01952
-0.04392,0.03416,-0.0244,-0.00244,0.01952,-0.03172,0.0732,-0.02928,-0.01464,-0.08784,-0.05856,-0.01952
-0.04392,0.03416,-0.0244,-0.00244,0.01952,-0.03172,0.0732,-0.02928,-0.00976,-0.08784,-0.05856,-0.01952
-0.04392,0.03416,-0.0244,-0.00244,0.01952,-0.03172,0.0732,-0.0244,-0.01464,-0.08296,-0.0488,-0.01464
-0.04392,0.03416,-0.0244,-0.00244,0.01952,-0.03172,0.0732,-0.02928,-0.01464,-0.08296,-0.0488,-0.01464
-0.03904,0.03172,-0.0244,-0.00488,0.01464,-0.02684,0.0732,-0.02928,-0.01464,-0.08296,-0.05368,-0.00488
-0.04392,0.03416,-0.0244,-0.00244,0.01952,-0.03172,0.0732,-0.03904,-0.00976,-0.08296,-0.05368,-0.00488
-0.0488,0.03416,-0.01952,0.00488,0.02928,-0.03904,0.07808,-0.0244,-0.01952,-0.08784,-0.04392,0
-0.0488,0.03172,-0.01464,0.00976,0.03416,-0.04148,0.07808,-0.0244,-0.01952,-0.08784,-0.04392,-0.00488
-0.03904,0.02684,-0.01464,0.00488,0.0244,-0.03172,0.0732,-0.02928,-0.01952,-0.07808,-0.04392,-0.01464
-0.03904,0.02684,-0.01464,0.00488,0.0244,-0.03172,0.0732,-0.02928,-0.01952,-0.0732,-0.03904,-0.00976
-0.03904,0.02684,-0.01464,0.00488,0.0244,-0.03172,0.06344,-0.03416,-0.00976,-0.0732,-0.03904,0
-0.03904,0.02684,-0.01464,0.00488,0.0244,-0.03172,0.05856,-0.03416,-0.00488,-0.0732,-0.03904,0.00488
-0.03904,0.02684,-0.01464,0.00488,0.0244,-0.03172,0.05856,-0.0244,-0.00488,-0.0732,-0.03904,0.00488
-0.03416,0.0244,-0.01464,0.00244,0.01952,-0.02684,0.05856,-0.0244,-0.00488,-0.0732,-0.03416,0.00976
-0.03416,0.02684,-0.01952,-0.00244,0.01464,-0.0244,0.05368,-0.03416,-0.01464,-0.0732,-0.04392,0
-0.03416,0.02684,-0.01952,-0.00244,0.01464,-0.0244,0.05368,-0.03416,-0.01952,-0.06832,-0.04392,0
-0.02928,0.01952,-0.00976,0.00488,0.01952,-0.0244,0.05368,-0.02928,-0.0244,-0.06832,-0.04392,0.00488
-0.02928,0.01952,-0.00976,0.00488,0.01952,-0.0244,0.05368,-0.02928,-0.01952,-0.06832,-0.03904,0.00488
-0.02928,0.01952,-0.00976,0.00488,0.01952,-0.0244,0.05368,-0.01952,-0.01952,-0.06344,-0.03904,0.00488
-0.02928,0.01952,-0.00976,0.00488,0.01952,-0.0244,0.05368,-0.01952,-0.01952,-0.06344,-0.03904,0.00976
-0.02928,0.0244,-0.01952,-0.00488,0.00976,-0.01952,0.05856,-0.01952,-0.00976,-0.05368,-0.0244,0.00976
-0.02928,0.02196,-0.01464,0,0.01464,-0.02196,0.05856,-0.01464,-0.01464,-0.05368,-0.0244,0.00976
-0.01952,0.01952,-0.01952,-0.00976,0,-0.00976,0.0488,-0.01464,-0.01464,-0.06344,-0.0244,0
-0.01952,0.01952,-0.01952,-0.00976,0,-0.00976,0.0488,-0.01464,-0.01464,-0.06344,-0.02928,0
-0.0244,0.02196,-0.01952,-0.00732,0.00488,-0.01464,0.0488,-0.01464,-0.01464,-0.06344,-0.02928,0
-0.0244,0.0244,-0.0244,-0.0122,0,-0.0122,0.0488,-0.01464,-0.01464,-0.06344,-0.02928,0
-0.0244,0.0244,-0.0244,-0.0122,0,-0.0122,0.03904,-0.00488,-0.01464,-0.05368,-0.0244,0
-0.0244,0.0244,-0.0244,-0.0122,0,-0.0122,0.03416,-0.00488,-0.01464,-0.05368,-0.0244,0
-0.0244,0.02928,-0.03416,-0.02196,-0.00976,-0.00732,0.04392,-0.01464,-0.01464,-0.06344,-0.03416,0.00488
-0.0244,0.03172,-0.03904,-0.02684,-0.01464,-0.00488,0.0488,-0.01464,-0.01464,-0.06344,-0.03904,0.00488
-0.0244,0.02684,-0.02928,-0.01708,-0.00488,-0.00976,0.0488,-0.0244,-0.01952,-0.05368,-0.03904,-0.00488
-0.0244,0.02928,-0.03416,-0.02196,-0.00976,-0.00732,0.0488,-0.0244,-0.01952,-0.05368,-0.03904,0
-0.0244,0.02928,-0.03416,-0.02196,-0.00976,-0.00732,0.0488,-0.01464,-0.01952,-0.05368,-0.03904,0
-0.0244,0.02928,-0.03416,-0.02196,-0.00976,-0.00732,0.0488,-0.01464,-0.01952,-0.05368,-0.03904,0
-0.0244,0.02928,-0.03416,-0.02196,-0.00976,-0.00732,0.04392,-0.01464,-0.01952,-0.05368,-0.03904,-0.00488
-0.0244,0.03172,-0.03904,-0.02684,-0.01464,-0.00488,0.04392,-0.01464,-0.01952,-0.05368,-0.03904,-0.00488
-0.0244,0.03172,-0.03904,-0.02684,-0.01464,-0.00488,0.04392,-0.01464,-0.02928,-0.05856,-0.03904,-0.00488
-0.0244,0.03172,-0.03904,-0.02684,-0.01464,-0.00488,0.04392,-0.01464,-0.02928,-0.05856,-0.03904,-0.00976
-0.03904,0.04148,-0.04392,-0.0244,-0.00488,-0.01708,0.03416,-0.01464,-0.02928,-0.05856,-0.03904,-0.00976
-0.03904,0.04148,-0.04392,-0.0244,-0.00488,-0.01708,0.03904,-0.01464,-0.02928,-0.05856,-0.03904,-0.00976
-0.03904,0.04148,-0.04392,-0.0244,-0.00488,-0.01708,0.03904,-0.01952,-0.0244,-0.0488,-0.03416,-0.00976
-0.03904,0.04148,-0.04392,-0.0244,-0.00488,-0.01708,0.03904,-0.01952,-0.0244,-0.0488,-0.03416,-0.00488
-0.02928,0.03416,-0.03904,-0.0244,-0.00976,-0.00976,0.04392,-0.01952,-0.0244,-0.06344,-0.03416,-0.00976
-0.02928,0.0366,-0.04392,-0.02928,-0.01464,-0.00732,0.04392,-0.01952,-0.0244,-0.05856,-0.03416,-0.00488
-0.02928,0.04148,-0.05368,-0.03904,-0.0244,-0.00244,0.03416,-0.02928,-0.03904,-0.0732,-0.04392,-0.01952
-0.03416,0.04392,-0.05368,-0.0366,-0.01952,-0.00732,0.03416,-0.02928,-0.03416,-0.0732,-0.04392,-0.01952
-0.03416,0.04392,-0.05368,-0.0366,-0.01952,-0.00732,0.03416,-0.02928,-0.03416,-0.06344,-0.04392,-0.01952
-0.03416,0.04636,-0.05856,-0.04148,-0.0244,-0.00488,0.03416,-0.02928,-0.03904,-0.06344,-0.04392,-0.01952
-0.04392,0.04636,-0.0488,-0.02684,-0.00488,-0.01952,0.03416,-0.02928,-0.02928,-0.06344,-0.03416,-0.00976
-0.04392,0.04636,-0.0488,-0.02684,-0.00488,-0.01952,0.03416,-0.02928,-0.0244,-0.06344,-0.03416,-0.00976
-0.03416,0.04148,-0.0488,-0.03172,-0.01464,-0.00976,0.03416,-0.02928,-0.03416,-0.06344,-0.04392,-0.00976
-0.03416,0.04148,-0.0488,-0.03172,-0.01464,-0.00976,0.03416,-0.02928,-0.03416,-0.06344,-0.0488,-0.00976
-0.03416,0.04148,-0.0488,-0.03172,-0.01464,-0.00976,0.03416,-0.03416,-0.03416,-0.05856,-0.03904,-0.00976
-0.03416,0.04148,-0.0488,-0.03172,-0.01464,-0.00976,0.03416,-0.03416,-0.03416,-0.05856,-0.03416,-0.00976
-0.04392,0.04636,-0.0488,-0.02684,-0.00488,-0.01952,0.03416,-0.02928,-0.04392,-0.05856,-0.03904,-0.01952
-0.04392,0.04636,-0.0488,-0.02684,-0.00488,-0.01952,0.03904,-0.02928,-0.0488,-0.05856,-0.03904,-0.01952
-0.04392,0.04636,-0.0488,-0.02684,-0.00488,-0.01952,0.02928,-0.0244,-0.03904,-0.05856,-0.03904,-0.01952
-0.04392,0.04636,-0.0488,-0.02684,-0.00488,-0.01952,0.02928,-0.0244,-0.03904,-0.05856,-0.03904,-0.01952
-0.04392,0.05368,-0.06344,-0.04148,-0.01952,-0.0122,0.03416,-0.03416,-0.03904,-0.05856,-0.03904,-0.0244
-0.04392,0.05368,-0.06344,-0.04148,-0.01952,-0.0122,0.03416,-0.03416,-0.03904,-0.05856,-0.03904,-0.01952
-0.04392,0.0488,-0.05368,-0.03172,-0.00976,-0.01708,0.03416,-0.02928,-0.04392,-0.06832,-0.02928,-0.01952
-0.04392,0.04636,-0.0488,-0.02684,-0.00488,-0.01952,0.03416,-0.02928,-0.04392,-0.06344,-0.02928,-0.01952
-0.04392,0.04636,-0.0488,-0.02684,-0.00488,-0.01952,0.03416,-0.02928,-0.04392,-0.05856,-0.03904,-0.01952
-0.0488,0.0488,-0.0488,-0.0244,0,-0.0244,0.03416,-0.02928,-0.0488,-0.05856,-0.03904,-0.01952
-0.04392,0.04636,-0.0488,-0.02684,-0.00488,-0.01952,0.03904,-0.02928,-0.0488,-0.05856,-0.03904,-0.0244
-0.04392,0.04636,-0.0488,-0.02684,-0.00488,-0.01952,0.03904,-0.03416,-0.04392,-0.05856,-0.03904,-0.0244
-0.04392,0.04636,-0.0488,-0.02684,-0.00488,-0.01952,0.02928,-0.03416,-0.0488,-0.05856,-0.03904,-0.0244
-0.04392,0.04392,-0.04392,-0.02196,0,-0.02196,0.0244,-0.03416,-0.0488,-0.05856,-0.03904,-0.0244
-0.03904,0.04636,-0.05368,-0.03416,-0.01464,-0.0122,0.02928,-0.03416,-0.0488,-0.05856,-0.03904,-0.0244
-0.03904,0.04636,-0.05368,-0.03416,-0.01464,-0.0122,0.02928,-0.02928,-0.0488,-0.05856,-0.03904,-0.0244
-0.03904,0.0488,-0.05856,-0.03904,-0.01952,-0.00976,0.02928,-0.03416,-0.0488,-0.05856,-0.0488,-0.01952
-0.03904,0.0488,-0.05856,-0.03904,-0.01952,-0.00976,0.02928,-0.03416,-0.0488,-0.05856,-0.0488,-0.01952
-0.0488,0.0488,-0.0488,-0.0244,0,-0.0244,0.03904,-0.0244,-0.03904,-0.0488,-0.04392,-0.0244
-0.0488,0.0488,-0.0488,-0.0244,0,-0.0244,0.03904,-0.02928,-0.0488,-0.05856,-0.03904,-0.01952
-0.03904,0.04392,-0.0488,-0.02928,-0.00976,-0.01464,0.02928,-0.03904,-0.0488,-0.05856,-0.03904,-0.01952
-0.03904,0.04392,-0.0488,-0.02928,-0.00976,-0.01464,0.02928,-0.03904,-0.0488,-0.05856,-0.03904,-0.01952
-0.0488,0.0488,-0.0488,-0.0244,0,-0.0244,0.02928,-0.03904,-0.0488,-0.05856,-0.03904,-0.01952
-0.0488,0.0488,-0.0488,-0.0244,0,-0.0244,0.02928,-0.03904,-0.0488,-0.05856,-0.03904,-0.01952
-0.03904,0.04392,-0.0488,-0.02928,-0.00976,-0.01464,0.01952,-0.03904,-0.0488,-0.05856,-0.0488,-0.01952
-0.03904,0.04392,-0.0488,-0.02928,-0.00976,-0.01464,0.01952,-0.03904,-0.0488,-0.05856,-0.0488,-0.01952
-0.03904,0.04392,-0.0488,-0.02928,-0.00976,-0.01464,0.01952,-0.03904,-0.05856,-0.05856,-0.03904,-0.02928
-0.03904,0.04392,-0.0488,-0.02928,-0.00976,-0.01464,0.01952,-0.03904,-0.05856,-0.05856,-0.03904,-0.02928
-0.0488,0.0488,-0.0488,-0.0244,0,-0.0244,0.01952,-0.03904,-0.05856,-0.05856,-0.0488,-0.01952
-0.0488,0.0488,-0.0488,-0.0244,0,-0.0244,0.01952,-0.03904,-0.05856,-0.05856,-0.0488,-0.01952
-0.0488,0.05368,-0.05856,-0.03416,-0.00976,-0.01952,0.02928,-0.02928,-0.0488,-0.0488,-0.0488,-0.01952
-0.0488,0.05368,-0.05856,-0.03416,-0.00976,-0.01952,0.02928,-0.02928,-0.0488,-0.0488,-0.0488,-0.01952
-0.0488,0.05368,-0.05856,-0.03416,-0.00976,-0.01952,0.01952,-0.03904,-0.05856,-0.05856,-0.0488,-0.01952
-0.0488,0.05368,-0.05856,-0.03416,-0.00976,-0.01952,0.01952,-0.03904,-0.05856,-0.05856,-0.0488,-0.01952
-0.0488,0.05368,-0.05856,-0.03416,-0.00976,-0.01952,0.01952,-0.03904,-0.0488,-0.0488,-0.0488,-0.01952
-0.0488,0.05368,-0.05856,-0.03416,-0.00976,-0.01952,0.01952,-0.03904,-0.0488,-0.0488,-0.0488,-0.01952
-0.0488,0.0488,-0.0488,-0.0244,0,-0.0244,0.01952,-0.03904,-0.0488,-0.0488,-0.0488,-0.01952
-0.0488,0.0488,-0.0488,-0.0244,0,-0.0244,0.01952,-0.03904,-0.0488,-0.0488,-0.0488,-0.01952
-0.0488,0.0488,-0.0488,-0.0244,0,-0.0244,0.01952,-0.03904,-0.05856,-0.05856,-0.0488,-0.01952
-0.0488,0.0488,-0.0488,-0.0244,0,-0.0244,0.01952,-0.03904,-0.05856,-0.05856,-0.0488,-0.01952
-0.0488,0.0488,-0.0488,-0.0244,0,-0.0244,0.01952,-0.03904,-0.05856,-0.0488,-0.03904,-0.02928
-0.0488,0.0488,-0.0488,-0.0244,0,-0.0244,0.01952,-0.03904,-0.05856,-0.0488,-0.03904,-0.02928
-0.03904,0.0488,-0.05856,-0.03904,-0.01952,-0.00976,0.01952,-0.03904,-0.05856,-0.0488,-0.03904,-0.02928
-0.03904,0.0488,-0.05856,-0.03904,-0.01952,-0.00976,0.01952,-0.03904,-0.05856,-0.0488,-0.03904,-0.02928
-0.0488,0.05368,-0.05856,-0.03416,-0.00976,-0.01952,0.02928,-0.02928,-0.05856,-0.0488,-0.0488,-0.01952
-0.0488,0.05368,-0.05856,-0.03416,-0.00976,-0.01952,0.02928,-0.02928,-0.05856,-0.0488,-0.0488,-0.01952
-0.0488,0.05368,-0.05856,-0.03416,-0.00976,-0.01952,0.01952,-0.03904,-0.05856,-0.0488,-0.03904,-0.02928
-0.0488,0.05368,-0.05856,-0.03416,-0.00976,-0.01952,0.01952,-0.03904,-0.05856,-0.0488,-0.03904,-0.02928
-0.0488,0.0488,-0.0488,-0.0244,0,-0.0244,0.01952,-0.03904,-0.05856,-0.05856,-0.0488,-0.01952
-0.0488,0.0488,-0.0488,-0.0244,0,-0.0244,0.01952,-0.03904,-0.05856,-0.05856,-0.0488,-0.01952
-0.03904,0.04392,-0.0488,-0.02928,-0.00976,-0.01464,0.01952,-0.02928,-0.05856,-0.05856,-0.03904,-0.02928
-0.03904,0.04392,-0.0488,-0.02928,-0.00976,-0.01464,0.01952,-0.02928,-0.05856,-0.05856,-0.03904,-0.02928
-0.0488,0.05368,-0.05856,-0.03416,-0.00976,-0.01952,0.01952,-0.03904,-0.06832,-0.05856,-0.0488,-0.02928
-0.0488,0.05368,-0.05856,-0.03416,-0.00976,-0.01952,0.01952,-0.03904,-0.06832,-0.05856,-0.0488,-0.02928
-0.0488,0.05368,-0.05856,-0.03416,-0.00976,-0.01952,0.01952,-0.03904,-0.06832,-0.05856,-0.0488,-0.02928
-0.0488,0.05368,-0.05856,-0.03416,-0.00976,-0.01952,0.01952,-0.03904,-0.06832,-0.05856,-0.0488,-0.02928
-0.0488,0.05368,-0.05856,-0.03416,-0.00976,-0.01952,0.01952,-0.03904,-0.05856,-0.0488,-0.0488,-0.02928
-0.0488,0.05368,-0.05856,-0.03416,-0.00976,-0.01952,0.01952,-0.03904,-0.05856,-0.0488,-0.0488,-0.02928
-0.03904,0.0488,-0.05856,-0.03904,-0.01952,-0.00976,0.01952,-0.03904,-0.05856,-0.0488,-0.03904,-0.02928
-0.03904,0.0488,-0.05856,-0.03904,-0.01952,-0.00976,0.01952,-0.03904,-0.05856,-0.0488,-0.03904,-0.02928
-0.04392,0.05124,-0.05856,-0.0366,-0.01464,-0.01464,0.01952,-0.03904,-0.0488,-0.0488,-0.0488,-0.02928
-0.03904,0.0488,-0.05856,-0.03904,-0.01952,-0.00976,0.01952,-0.03904,-0.0488,-0.0488,-0.0488,-0.02928
-0.0488,0.05368,-0.05856,-0.03416,-0.00976,-0.01952,0.0244,-0.03904,-0.05856,-0.05368,-0.0488,-0.02928
-0.0488,0.05368,-0.05856,-0.03416,-0.00976,-0.01952,0.0244,-0.03904,-0.05368,-0.05368,-0.0488,-0.02928
-0.03416,0.03904,-0.04392,-0.02684,-0.00976,-0.0122,0.0244,-0.02928,-0.05368,-0.0488,-0.03416,-0.01464
-0.02928,0.03172,-0.03416,-0.01952,-0.00488,-0.0122,0.0244,-0.01952,-0.04392,-0.04392,-0.0244,-0.00976
-0.0244,0.0244,-0.0244,-0.0122,0,-0.0122,0.02928,-0.01464,-0.03416,-0.02928,-0.0244,-0.01464
-0.01464,0.01708,-0.01952,-0.0122,-0.00488,-0.00488,0.03416,-0.00488,-0.03416,-0.0244,-0.01464,-0.00488
-0.00976,0.01464,-0.01952,-0.01464,-0.00976,0,0.0488,0.00488,-0.02928,-0.03416,-0.0244,-0.01464
-0.00488,0.00488,-0.00488,-0.00244,0,-0.00244,0.0488,0.00976,-0.0244,-0.0244,-0.00976,-0.00488
0.01464,-0.00488,-0.00488,-0.0122,-0.01952,0.01708,0.05856,0.01952,-0.01464,-0.01952,0,0.00976
0.01464,-0.00976,0.00488,-0.00244,-0.00976,0.0122,0.06344,0.02928,-0.00976,-0.00488,0,0.00976
0.02928,-0.02684,0.0244,0.00976,-0.00488,0.01708,0.06344,0.04392,0.00488,0.00976,0.01464,0.00976
0.03416,-0.03172,0.02928,0.0122,-0.00488,0.01952,0.06344,0.0488,0.01464,0.01464,0.01952,0.01952
0.01952,-0.0244,0.02928,0.01952,0.00976,0.00488,0.06344,0.05856,0.01464,0.01464,0.01952,0.02928
0.01464,-0.01708,0.01952,0.0122,0.00488,0.00488,0.05856,0.05856,0.01464,0.01464,0.01952,0.02928
0.01464,-0.01708,0.01952,0.0122,0.00488,0.00488,0.0488,0.0244,-0.00976,0.00488,0.00976,0.0244
0.00488,-0.00976,0.01464,0.0122,0.00976,-0.00244,0.03416,0,-0.01952,-0.00488,0,0.01464
0.01464,-0.00976,0.00488,-0.00244,-0.00976,0.0122,0.01464,-0.01464,-0.0244,-0.00976,-0.00976,0
0.01464,-0.00732,0,-0.00732,-0.01464,0.01464,0,-0.01952,-0.0244,-0.00976,-0.01464,0
0.01464,-0.00732,0,-0.00732,-0.01464,0.01464,-0.00976,-0.03904,-0.03904,-0.01952,-0.03416,0
0.01464,0.00244,-0.01952,-0.02684,-0.03416,0.0244,-0.01952,-0.0488,-0.05856,-0.03416,-0.04392,-0.01464
0.00488,0.01708,-0.03904,-0.04148,-0.04392,0.0244,-0.0244,-0.05856,-0.06832,-0.04392,-0.0488,-0.03416
-0.01952,0.03172,-0.04392,-0.03416,-0.0244,0.00244,-0.00976,-0.05856,-0.06832,-0.0488,-0.05368,-0.03904
-0.03904,0.04636,-0.05368,-0.03416,-0.01464,-0.0122,0.00488,-0.05856,-0.06344,-0.0488,-0.05368,-0.03904
-0.0488,0.05368,-0.05856,-0.03416,-0.00976,-0.01952,0.00976,-0.05368,-0.06344,-0.0488,-0.05368,-0.04392
-0.05856,0.06344,-0.06832,-0.03904,-0.00976,-0.0244,0.01952,-0.05856,-0.07808,-0.05368,-0.06832,-0.0488
-0.05856,0.06588,-0.0732,-0.04392,-0.01464,-0.02196,0.01952,-0.06832,-0.08296,-0.06344,-0.0732,-0.0488
-0.06344,0.07076,-0.07808,-0.04636,-0.01464,-0.0244,0.00976,-0.07808,-0.08784,-0.06344,-0.0732,-0.05368
-0.06344,0.07076,-0.07808,-0.04636,-0.01464,-0.0244,0.00488,-0.07808,-0.08784,-0.06832,-0.0732,-0.05368
-0.05856,0.0732,-0.08784,-0.05856,-0.02928,-0.01464,0.00488,-0.07808,-0.08784,-0.07808,-0.08296,-0.06344
-0.05856,0.07076,-0.08296,-0.05368,-0.0244,-0.01708,0.00488,-0.07808,-0.08784,-0.07808,-0.08296,-0.06344
-0.05856,0.06832,-0.07808,-0.0488,-0.01952,-0.01952,0.00488,-0.07808,-0.08784,-0.0732,-0.0732,-0.0732
-0.06344,0.07076,-0.07808,-0.04636,-0.01464,-0.0244,0.00488,-0.07808,-0.08784,-0.0732,-0.07808,-0.0732
-0.05368,0.06588,-0.07808,-0.05124,-0.0244,-0.01464,0.00488,-0.08296,-0.09272,-0.07808,-0.07808,-0.06832
-0.05368,0.06588,-0.07808,-0.05124,-0.0244,-0.01464,0,-0.08296,-0.09272,-0.08296,-0.07808,-0.06344
-0.06344,0.07076,-0.07808,-0.04636,-0.01464,-0.0244,0,-0.08296,-0.08784,-0.0732,-0.08296,-0.06344
-0.06832,0.0732,-0.07808,-0.04392,-0.00976,-0.02928,0.00488,-0.07808,-0.08784,-0.0732,-0.08296,-0.06344
-0.05856,0.06588,-0.0732,-0.04392,-0.01464,-0.02196,0.00488,-0.07808,-0.08784,-0.0732,-0.08296,-0.06344
-0.05856,0.06588,-0.0732,-0.04392,-0.01464,-0.02196,0.00488,-0.07808,-0.08784,-0.0732,-0.08296,-0.06832
-0.05856,0.06588,-0.0732,-0.04392,-0.01464,-0.02196,0.00488,-0.07808,-0.08296,-0.06832,-0.08296,-0.05856
-0.05856,0.06832,-0.07808,-0.0488,-0.01952,-0.01952,0.00488,-0.0732,-0.07808,-0.06832,-0.07808,-0.05856
-0.06832,0.0732,-0.07808,-0.04392,-0.00976,-0.02928,0.01952,-0.06344,-0.07808,-0.06832,-0.0732,-0.05856
-0.08784,0.0854,-0.08296,-0.03904,0.00488,-0.04636,0.03416,-0.0732,-0.08784,-0.08784,-0.08296,-0.08296
-0.11712,0.1098,-0.10248,-0.04392,0.01464,-0.06588,0.08784,-0.0488,-0.07808,-0.10248,-0.08784,-0.11224
-0.12688,0.1098,-0.09272,-0.02928,0.03416,-0.08052,0.11712,-0.00976,-0.05856,-0.08784,-0.08296,-0.0976
-0.12688,0.10492,-0.08296,-0.01952,0.04392,-0.0854,0.122,0.07808,0.00976,-0.05856,-0.0244,-0.07808
-0.07808,0.06588,-0.05368,-0.01464,0.0244,-0.05124,0.15128,0.28792,0.10248,0.00976,0.06344,-0.03904
0.0244,-0.03904,0.05368,0.04148,0.02928,-0.00244,0.11224,0.5856,0.27816,0.16592,0.23912,0.06832
0.21472,-0.19032,0.16592,0.05856,-0.0488,0.13176,0,0.78568,0.4392,0.3416,0.40992,0.22448
0.40504,-0.3782,0.35136,0.14884,-0.05368,0.22936,-0.18544,0.6832,0.58072,0.50264,0.58072,0.39528
0.59048,-0.59292,0.59536,0.30012,0.00488,0.2928,-0.45872,0.50264,0.71736,0.7076,0.77104,0.58072
0.66856,-0.7442,0.81984,0.48556,0.15128,0.25864,-0.77592,0.17568,0.732,0.83448,0.854,0.73688
0.65392,-0.69052,0.72712,0.40016,0.0732,0.29036,-0.91256,-0.20496,0.47824,0.71736,0.67344,0.69784
0.49288,-0.48068,0.46848,0.22204,-0.0244,0.25864,-0.83448,-0.59048,0.122,0.41968,0.33184,0.49776
0.2928,-0.23668,0.18056,0.03416,-0.11224,0.20252,-0.67344,-0.73688,-0.22448,0.10248,-0.01952,0.24888
0.16592,-0.12688,0.08784,0.00488,-0.07808,0.122,-0.60024,-0.86864,-0.35136,-0.03416,-0.1708,0.12688
0.0976,-0.0366,-0.0244,-0.0732,-0.122,0.1098,-0.52216,-0.76128,-0.35136,-0.10248,-0.21472,0.03904
0.03904,0.02684,-0.09272,-0.11224,-0.13176,0.0854,-0.4148,-0.61488,-0.32208,-0.14152,-0.2196,-0.0244
-0.00976,0.061,-0.11224,-0.10736,-0.10248,0.04636,-0.30256,-0.46848,-0.27816,-0.15128,-0.20496,-0.06832
-0.01952,0.06588,-0.11224,-0.10248,-0.09272,0.0366,-0.23424,-0.32696,-0.22936,-0.13664,-0.18056,-0.08296
-0.01464,0.04636,-0.07808,-0.07076,-0.06344,0.0244,-0.13664,-0.21472,-0.14152,-0.09272,-0.11712,-0.0488
-0.01952,0.04392,-0.06832,-0.05856,-0.0488,0.01464,-0.08296,-0.16104,-0.10736,-0.0732,-0.08296,-0.04392
-0.01952,0.03416,-0.0488,-0.03904,-0.02928,0.00488,-0.04392,-0.122,-0.0976,-0.06832,-0.06832,-0.03416
-0.01952,0.02684,-0.03416,-0.0244,-0.01464,-0.00244,-0.03904,-0.06832,-0.07808,-0.05368,-0.05368,-0.03416
-0.03904,0.03904,-0.03904,-0.01952,0,-0.01952,-0.01952,-0.06344,-0.05856,-0.02928,-0.04392,-0.03416
-0.03904,0.0366,-0.03416,-0.01464,0.00488,-0.02196,0,-0.06344,-0.05368,-0.02928,-0.03904,-0.03416
-0.03904,0.03904,-0.03904,-0.01952,0,-0.01952,0.00976,-0.05856,-0.05368,-0.02928,-0.0488,-0.04392
-0.03904,0.03904,-0.03904,-0.01952,0,-0.01952,0.00488,-0.04392,-0.05368,-0.03904,-0.0488,-0.0488
-0.03904,0.03416,-0.02928,-0.00976,0.00976,-0.0244,0.00488,-0.03416,-0.05368,-0.03416,-0.0488,-0.0488
-0.0488,0.04148,-0.03416,-0.00976,0.01464,-0.03172,0.00488,-0.03416,-0.0488,-0.03416,-0.04392,-0.0488
-0.0488,0.04148,-0.03416,-0.00976,0.01464,-0.03172,0.01464,-0.03416,-0.03904,-0.03416,-0.03904,-0.0488
-0.0488,0.04148,-0.03416,-0.00976,0.01464,-0.03172,0.01464,-0.02928,-0.03904,-0.02928,-0.03904,-0.0488
-0.05856,0.04148,-0.0244,0.00488,0.03416,-0.04636,0.01464,-0.0244,-0.0488,-0.03904,-0.0488,-0.04392
-0.05368,0.03904,-0.0244,0.00244,0.02928,-0.04148,0.01952,-0.0244,-0.0488,-0.03904,-0.0488,-0.04392
-0.04392,0.0366,-0.02928,-0.00732,0.01464,-0.02928,0.01464,-0.01952,-0.0488,-0.03904,-0.03904,-0.04392
-0.0488,0.03904,-0.02928,-0.00488,0.01952,-0.03416,0.01952,-0.01464,-0.0488,-0.03904,-0.03904,-0.03904
-0.0488,0.03416,-0.01952,0.00488,0.02928,-0.03904,0.01952,-0.01464,-0.04392,-0.02928,-0.04392,-0.03904
-0.0488,0.03416,-0.01952,0.00488,0.02928,-0.03904,0.01952,-0.00976,-0.04392,-0.02928,-0.04392,-0.03904
-0.0488,0.03416,-0.01952,0.00488,0.02928,-0.03904,0.01464,-0.00976,-0.04392,-0.03904,-0.03416,-0.03904
-0.0488,0.03416,-0.01952,0.00488,0.02928,-0.03904,0.01464,-0.00488,-0.0488,-0.03904,-0.03416,-0.03904
-0.0488,0.03416,-0.01952,0.00488,0.02928,-0.03904,0.01464,-0.00488,-0.04392,-0.03904,-0.03904,-0.03904
-0.0488,0.03172,-0.01464,0.00976,0.03416,-0.04148,0.01464,-0.00488,-0.03904,-0.03416,-0.03904,-0.03904
-0.05368,0.02928,-0.00488,0.02196,0.0488,-0.05124,0.0244,-0.00488,-0.03416,-0.03416,-0.03904,-0.03416
-0.05368,0.02928,-0.00488,0.02196,0.0488,-0.05124,0.0244,0,-0.02928,-0.03416,-0.04392,-0.02928
-0.05368,0.02928,-0.00488,0.02196,0.0488,-0.05124,0.0244,0,-0.02928,-0.0244,-0.03416,-0.02928
-0.05368,0.02928,-0.00488,0.02196,0.0488,-0.05124,0.01952,0,-0.02928,-0.0244,-0.03416,-0.03416
-0.04392,0.0244,-0.00488,0.01708,0.03904,-0.04148,0.01952,0.00976,-0.02928,-0.01952,-0.02928,-0.03416
-0.04392,0.02196,0,0.02196,0.04392,-0.04392,0.01952,0.01464,-0.02928,-0.01952,-0.02928,-0.03416
-0.04392,0.0244,-0.00488,0.01708,0.03904,-0.04148,0.01952,0.01464,-0.0244,-0.0244,-0.03416,-0.02928
-0.04392,0.02196,0,0.02196,0.04392,-0.04392,0.01952,0.00976,-0.0244,-0.0244,-0.03416,-0.02928
-0.03904,0.01708,0.00488,0.0244,0.04392,-0.04148,0.01952,0.00976,-0.03416,-0.0244,-0.02928,-0.02928
-0.03904,0.01464,0.00976,0.02928,0.0488,-0.04392,0.01464,0.01464,-0.02928,-0.01952,-0.02928,-0.02928
-0.04392,0.0122,0.01952,0.04148,0.06344,-0.05368,0.01464,0.0244,-0.0244,-0.00488,-0.01464,-0.0244
-0.04392,0.0122,0.01952,0.04148,0.06344,-0.05368,0.01464,0.03416,-0.0244,-0.00488,-0.00976,-0.0244
-0.03416,0.00488,0.0244,0.04148,0.05856,-0.04636,0.01464,0.02928,-0.00976,0,-0.00976,-0.01952
-0.02928,0.00244,0.0244,0.03904,0.05368,-0.04148,0.01464,0.03416,-0.00488,0,-0.00976,-0.01952
-0.02928,0,0.02928,0.04392,0.05856,-0.04392,0.00976,0.04392,-0.00488,0.00488,-0.01464,-0.01464
-0.0244,-0.00488,0.03416,0.04636,0.05856,-0.04148,0.00976,0.0488,0,0.00488,-0.00976,-0.01464
-0.02928,0,0.02928,0.04392,0.05856,-0.04392,0.00976,0.0488,0.00488,0.00488,-0.00488,-0.01952
-0.0244,-0.00732,0.03904,0.05124,0.06344,-0.04392,0.00976,0.05856,0.00488,0.00976,0,-0.01464
-0.0244,-0.01464,0.05368,0.06588,0.07808,-0.05124,0.00976,0.06832,0,0.01464,0.00488,-0.00976
-0.01952,-0.01952,0.05856,0.06832,0.07808,-0.0488,0.00488,0.0732,0.00976,0.0244,0.01464,-0.00976
-0.01464,-0.02684,0.06832,0.07564,0.08296,-0.0488,0.00488,0.0976,0.01952,0.03416,0.01464,0
-0.00976,-0.02928,0.06832,0.0732,0.07808,-0.04392,0,0.10248,0.02928,0.03904,0.02928,0.00488
-0.00488,-0.03172,0.06832,0.07076,0.0732,-0.03904,-0.00488,0.10736,0.04392,0.03416,0.03416,0.01464
0,-0.04148,0.08296,0.08296,0.08296,-0.04148,-0.00488,0.11712,0.05368,0.0488,0.0488,0.02928
0.01952,-0.061,0.10248,0.09272,0.08296,-0.03172,-0.00488,0.1464,0.05368,0.0732,0.0488,0.02928
0.0244,-0.06832,0.11224,0.10004,0.08784,-0.03172,-0.00976,0.16104,0.06344,0.07808,0.05856,0.03904
0.03416,-0.07808,0.122,0.10492,0.08784,-0.02684,-0.00488,0.18056,0.0732,0.09272,0.07808,0.04392
0.04392,-0.09028,0.13664,0.11468,0.09272,-0.0244,-0.01464,0.20008,0.08784,0.10736,0.0976,0.05856
0.05856,-0.10248,0.1464,0.11712,0.08784,-0.01464,-0.0244,0.20984,0.11712,0.122,0.10736,0.06832
0.06832,-0.11712,0.16592,0.13176,0.0976,-0.01464,-0.03416,0.23912,0.13176,0.13664,0.12688,0.08296
0.0732,-0.122,0.1708,0.1342,0.0976,-0.0122,-0.02928,0.2684,0.13664,0.15128,0.1464,0.10736
0.09272,-0.13908,0.18544,0.13908,0.09272,0,-0.03416,0.2928,0.16104,0.1708,0.16592,0.122
0.10248,-0.15128,0.20008,0.14884,0.0976,0.00244,-0.03904,0.30744,0.18544,0.19032,0.18544,0.12688
0.11712,-0.16836,0.2196,0.16104,0.10248,0.00732,-0.0488,0.33672,0.20008,0.20984,0.20496,0.13664
0.13176,-0.18544,0.23912,0.17324,0.10736,0.0122,-0.05856,0.366,0.2196,0.21472,0.22448,0.16104
0.15128,-0.20252,0.25376,0.17812,0.10248,0.0244,-0.06344,0.3904,0.23912,0.23424,0.23424,0.17568
0.1708,-0.2196,0.2684,0.183,0.0976,0.0366,-0.0732,0.4148,0.24888,0.25376,0.26352,0.18056
0.18544,-0.23424,0.28304,0.19032,0.0976,0.04392,-0.08296,0.4392,0.26352,0.26352,0.27328,0.19032
0.1952,-0.24644,0.29768,0.20008,0.10248,0.04636,-0.08784,0.45384,0.26352,0.27816,0.29768,0.20008
0.20984,-0.25864,0.30744,0.20252,0.0976,0.05612,-0.08784,0.47336,0.27816,0.28792,0.30256,0.21472
0.22448,-0.27084,0.3172,0.20496,0.09272,0.06588,-0.0976,0.47824,0.29768,0.30256,0.30744,0.2196
0.23424,-0.27328,0.31232,0.1952,0.07808,0.07808,-0.10248,0.48312,0.29768,0.31232,0.3172,0.22448
0.244,-0.28304,0.32208,0.20008,0.07808,0.08296,-0.11224,0.488,0.29768,0.31232,0.3172,0.22448
0.244,-0.28304,0.32208,0.20008,0.07808,0.08296,-0.11224,0.47336,0.29768,0.3172,0.3172,0.22448
0.23424,-0.2684,0.30256,0.18544,0.06832,0.08296,-0.10248,0.45384,0.2928,0.31232,0.31232,0.22448
0.22448,-0.25376,0.28304,0.1708,0.05856,0.08296,-0.0976,0.4148,0.2684,0.28792,0.2928,0.20496
0.20496,-0.23424,0.26352,0.16104,0.05856,0.0732,-0.10248,0.37088,0.22448,0.24888,0.25376,0.17568
0.1708,-0.20252,0.23424,0.14884,0.06344,0.05368,-0.09272,0.32208,0.20008,0.2196,0.2196,0.14152
0.13664,-0.16836,0.20008,0.13176,0.06344,0.0366,-0.07808,0.26352,0.17568,0.20008,0.1952,0.11712
0.11712,-0.14152,0.16592,0.10736,0.0488,0.03416,-0.06832,0.21472,0.13664,0.1708,0.16104,0.0976
0.08296,-0.1098,0.13664,0.09516,0.05368,0.01464,-0.05368,0.1708,0.0976,0.12688,0.11712,0.06832
0.05368,-0.08052,0.10736,0.08052,0.05368,0,-0.04392,0.13176,0.0732,0.0976,0.09272,0.0488
0.03904,-0.061,0.08296,0.06344,0.04392,-0.00244,-0.03416,0.0976,0.04392,0.06832,0.0732,0.01952
0.01464,-0.03416,0.05368,0.04636,0.03904,-0.0122,-0.0244,0.06344,0.01952,0.04392,0.0488,0.00488
0,-0.02196,0.04392,0.04392,0.04392,-0.02196,-0.01464,0.02928,0,0.02928,0.0244,-0.01952
-0.00976,-0.00976,0.02928,0.03416,0.03904,-0.0244,-0.01464,0.01464,-0.01464,0.00976,0.00488,-0.03416
-0.0244,0.00488,0.01464,0.02684,0.03904,-0.03172,-0.00976,0.00976,-0.02928,0,0.00488,-0.02928
-0.03416,0.01952,-0.00488,0.0122,0.02928,-0.03172,-0.00488,-0.00976,-0.03416,-0.00976,-0.00488,-0.03904
-0.04392,0.02684,-0.00976,0.0122,0.03416,-0.03904,-0.00488,-0.0244,-0.03904,-0.01952,-0.01952,-0.05856
-0.04392,0.03172,-0.01952,0.00244,0.0244,-0.03416,0,-0.03416,-0.0488,-0.02928,-0.03904,-0.06344
-0.04392,0.02684,-0.00976,0.0122,0.03416,-0.03904,-0.00976,-0.0488,-0.05368,-0.02928,-0.03904,-0.06832
-0.04392,0.03172,-0.01952,0.00244,0.0244,-0.03416,-0.00488,-0.0488,-0.05368,-0.02928,-0.04392,-0.06832
-0.04392,0.03172,-0.01952,0.00244,0.0244,-0.03416,0.00488,-0.05368,-0.06344,-0.03416,-0.05368,-0.06832
-0.05368,0.0366,-0.01952,0.00732,0.03416,-0.04392,0.00488,-0.05368,-0.06832,-0.03416,-0.05368,-0.0732
-0.05368,0.0366,-0.01952,0.00732,0.03416,-0.04392,0.00488,-0.0488,-0.05856,-0.03416,-0.05856,-0.07808
-0.05368,0.0366,-0.01952,0.00732,0.03416,-0.04392,0.00488,-0.0488,-0.06344,-0.03416,-0.05856,-0.0732
-0.05368,0.04148,-0.02928,-0.00244,0.0244,-0.03904,0.00488,-0.05856,-0.06344,-0.03416,-0.05856,-0.07808
-0.05368,0.04148,-0.02928,-0.00244,0.0244,-0.03904,0.00488,-0.05856,-0.06344,-0.03904,-0.05856,-0.07808
-0.05368,0.0366,-0.01952,0.00732,0.03416,-0.04392,0.00488,-0.05368,-0.06344,-0.02928,-0.0488,-0.07808
-0.05368,0.03904,-0.0244,0.00244,0.02928,-0.04148,0,-0.05368,-0.05856,-0.02928,-0.05368,-0.07808
-0.05368,0.03904,-0.0244,0.00244,0.02928,-0.04148,0,-0.05856,-0.06832,-0.03904,-0.05856,-0.07808
-0.05368,0.03904,-0.0244,0.00244,0.02928,-0.04148,0,-0.05856,-0.06832,-0.03904,-0.05856,-0.07808
-0.05368,0.03904,-0.0244,0.00244,0.02928,-0.04148,-0.00488,-0.06832,-0.06832,-0.0488,-0.06832,-0.07808
-0.05368,0.03904,-0.0244,0.00244,0.02928,-0.04148,-0.00488,-0.06832,-0.0732,-0.0488,-0.06832,-0.07808
-0.04392,0.03904,-0.03416,-0.0122,0.00976,-0.02684,-0.00488,-0.06832,-0.0732,-0.03904,-0.06832,-0.07808
-0.04392,0.03904,-0.03416,-0.0122,0.00976,-0.02684,-0.00488,-0.06832,-0.0732,-0.03904,-0.06832,-0.07808
-0.04392,0.03904,-0.03416,-0.0122,0.00976,-0.02684,0.00488,-0.06832,-0.06832,-0.0488,-0.05856,-0.0732
-0.04392,0.03904,-0.03416,-0.0122,0.00976,-0.02684,0.00488,-0.06344,-0.0732,-0.04392,-0.05856,-0.0732
-0.0488,0.0366,-0.0244,0,0.0244,-0.0366,0.00488,-0.05856,-0.0732,-0.04392,-0.06832,-0.0732
-0.05368,0.03904,-0.0244,0.00244,0.02928,-0.04148,0.00488,-0.05856,-0.06832,-0.04392,-0.06344,-0.0732
-0.05368,0.04148,-0.02928,-0.00244,0.0244,-0.03904,0,-0.06832,-0.06832,-0.03904,-0.05368,-0.0732
-0.0488,0.0366,-0.0244,0,0.0244,-0.0366,0,-0.06344,-0.06832,-0.03904,-0.05368,-0.06832
-0.0488,0.0366,-0.0244,0,0.0244,-0.0366,-0.00488,-0.06832,-0.05856,-0.02928,-0.05368,-0.06344
-0.0488,0.0366,-0.0244,0,0.0244,-0.0366,-0.00488,-0.06832,-0.05856,-0.0244,-0.05368,-0.05856
-0.0488,0.0366,-0.0244,0,0.0244,-0.0366,0.00488,-0.0732,-0.06832,-0.03416,-0.05856,-0.05856
-0.0488,0.0366,-0.0244,0,0.0244,-0.0366,0,-0.0732,-0.06832,-0.03416,-0.05856,-0.05856
-0.03904,0.02684,-0.01464,0.00488,0.0244,-0.03172,0,-0.0732,-0.06344,-0.03416,-0.05856,-0.05856
-0.03416,0.0244,-0.01464,0.00244,0.01952,-0.02684,0,-0.0732,-0.06344,-0.03416,-0.05856,-0.06832
-0.03416,0.0244,-0.01464,0.00244,0.01952,-0.02684,0,-0.0732,-0.05368,-0.0244,-0.05368,-0.05856
-0.03416,0.02196,-0.00976,0.00732,0.0244,-0.02928,-0.00488,-0.0732,-0.05856,-0.01952,-0.05368,-0.05856
-0.03904,0.0244,-0.00976,0.00976,0.02928,-0.03416,-0.00488,-0.0732,-0.06832,-0.01952,-0.05368,-0.05368
-0.03904,0.0244,-0.00976,0.00976,0.02928,-0.03416,-0.00488,-0.06832,-0.05856,-0.01952,-0.0488,-0.05368
-0.03904,0.0244,-0.00976,0.00976,0.02928,-0.03416,-0.01464,-0.07808,-0.05856,-0.0244,-0.0488,-0.05368
-0.03904,0.0244,-0.00976,0.00976,0.02928,-0.03416,-0.01464,-0.07808,-0.05856,-0.0244,-0.0488,-0.05368
-0.03904,0.0244,-0.00976,0.00976,0.02928,-0.03416,-0.00976,-0.06832,-0.05856,-0.01464,-0.03904,-0.0488
-0.03904,0.0244,-0.00976,0.00976,0.02928,-0.03416,-0.00976,-0.06344,-0.05856,-0.01464,-0.03416,-0.0488
-0.02928,0.01464,0,0.01464,0.02928,-0.02928,-0.01952,-0.0732,-0.05368,-0.0244,-0.04392,-0.05856
-0.02928,0.01464,0,0.01464,0.02928,-0.02928,-0.01952,-0.0732,-0.05368,-0.0244,-0.04392,-0.05856
-0.03904,0.01952,0,0.01952,0.03904,-0.03904,-0.01952,-0.06344,-0.06344,-0.0244,-0.0488,-0.05856
-0.03416,0.01708,0,0.01708,0.03416,-0.03416,-0.01952,-0.06344,-0.06344,-0.0244,-0.0488,-0.05856
-0.03416,0.01952,-0.00488,0.0122,0.02928,-0.03172,-0.01952,-0.06344,-0.05368,-0.01464,-0.04392,-0.0488
-0.03416,0.01952,-0.00488,0.0122,0.02928,-0.03172,-0.01952,-0.06344,-0.05368,-0.01464,-0.04392,-0.0488
-0.03416,0.01464,0.00488,0.02196,0.03904,-0.0366,-0.01464,-0.0732,-0.05368,-0.0244,-0.04392,-0.0488
-0.03416,0.01708,0,0.01708,0.03416,-0.03416,-0.01464,-0.0732,-0.05368,-0.0244,-0.0488,-0.05368
-0.0244,0.0122,0,0.0122,0.0244,-0.0244,-0.01952,-0.0732,-0.05368,-0.0244,-0.03904,-0.05368
-0.0244,0.01464,-0.00488,0.00732,0.01952,-0.02196,-0.01952,-0.0732,-0.05856,-0.0244,-0.03904,-0.05368
-0.03416,0.01952,-0.00488,0.0122,0.02928,-0.03172,-0.01952,-0.0732,-0.05856,-0.01464,-0.0488,-0.05856
-0.03416,0.01952,-0.00488,0.0122,0.02928,-0.03172,-0.01952,-0.0732,-0.05856,-0.01464,-0.0488,-0.05856
-0.03416,0.01952,-0.00488,0.0122,0.02928,-0.03172,-0.01464,-0.0732,-0.05856,-0.0244,-0.0488,-0.05856
-0.03416,0.02196,-0.00976,0.00732,0.0244,-0.02928,-0.01464,-0.0732,-0.05856,-0.0244,-0.0488,-0.06344
-0.0244,0.01708,-0.00976,0.00244,0.01464,-0.01952,-0.0244,-0.0732,-0.06832,-0.02928,-0.0488,-0.05368
-0.0244,0.01708,-0.00976,0.00244,0.01464,-0.01952,-0.0244,-0.0732,-0.06832,-0.02928,-0.0488,-0.05368
-0.02928,0.01464,0,0.01464,0.02928,-0.02928,-0.0244,-0.0732,-0.06832,-0.02928,-0.05856,-0.06832
-0.02928,0.01708,-0.00488,0.00976,0.0244,-0.02684,-0.01952,-0.0732,-0.06832,-0.02928,-0.05856,-0.06832
-0.03904,0.02684,-0.01464,0.00488,0.0244,-0.03172,-0.0244,-0.07808,-0.0732,-0.02928,-0.05856,-0.06832
-0.03904,0.02684,-0.01464,0.00488,0.0244,-0.03172,-0.02928,-0.07808,-0.0732,-0.02928,-0.06344,-0.06344
-0.02928,0.01708,-0.00488,0.00976,0.0244,-0.02684,-0.02928,-0.07808,-0.06344,-0.03416,-0.06344,-0.06344
-0.02928,0.02196,-0.01464,0,0.01464,-0.02196,-0.0244,-0.07808,-0.06344,-0.02928,-0.06344,-0.06832
-0.03904,0.02684,-0.01464,0.00488,0.0244,-0.03172,-0.0244,-0.07808,-0.06832,-0.03416,-0.06344,-0.05368
-0.03904,0.02684,-0.01464,0.00488,0.0244,-0.03172,-0.0244,-0.07808,-0.06832,-0.03416,-0.06344,-0.05856
-0.03416,0.0244,-0.01464,0.00244,0.01952,-0.02684,-0.0244,-0.07808,-0.0732,-0.03416,-0.06344,-0.06832
-0.03416,0.0244,-0.01464,0.00244,0.01952,-0.02684,-0.0244,-0.07808,-0.0732,-0.03416,-0.06344,-0.06832
-0.03416,0.02684,-0.01952,-0.00244,0.01464,-0.0244,-0.0244,-0.08784,-0.07808,-0.03416,-0.06344,-0.06832
-0.03416,0.02684,-0.01952,-0.00244,0.01464,-0.0244,-0.0244,-0.08784,-0.07808,-0.03416,-0.06344,-0.06832
-0.03416,0.02684,-0.01952,-0.00244,0.01464,-0.0244,-0.0244,-0.07808,-0.0732,-0.03416,-0.06344,-0.05856
-0.03416,0.02684,-0.01952,-0.00244,0.01464,-0.0244,-0.0244,-0.07808,-0.0732,-0.03416,-0.06344,-0.05856
-0.04392,0.03172,-0.01952,0.00244,0.0244,-0.03416,-0.03416,-0.07808,-0.08296,-0.03416,-0.06832,-0.06832
-0.04392,0.03172,-0.01952,0.00244,0.0244,-0.03416,-0.03416,-0.08296,-0.08296,-0.03904,-0.06344,-0.06832
-0.03416,0.02684,-0.01952,-0.00244,0.01464,-0.0244,-0.0244,-0.08296,-0.08296,-0.03904,-0.06832,-0.05856
-0.03416,0.02684,-0.01952,-0.00244,0.01464,-0.0244,-0.0244,-0.07808,-0.08784,-0.03904,-0.06832,-0.05856
-0.03416,0.02196,-0.00976,0.00732,0.0244,-0.02928,-0.02928,-0.08296,-0.07808,-0.03904,-0.06832,-0.06832
-0.03416,0.02196,-0.00976,0.00732,0.0244,-0.02928,-0.02928,-0.08296,-0.07808,-0.03904,-0.06832,-0.06832
-0.04392,0.02684,-0.00976,0.0122,0.03416,-0.03904,-0.0244,-0.08296,-0.07808,-0.03904,-0.05856,-0.05856
-0.04392,0.02928,-0.01464,0.00732,0.02928,-0.0366,-0.0244,-0.08296,-0.07808,-0.03904,-0.05856,-0.06344
-0.05368,0.03416,-0.01464,0.0122,0.03904,-0.04636,-0.0244,-0.07808,-0.0732,-0.03904,-0.05856,-0.06832
-0.05368,0.03416,-0.01464,0.0122,0.03904,-0.04636,-0.0244,-0.07808,-0.0732,-0.03416,-0.05856,-0.06832
-0.04392,0.03172,-0.01952,0.00244,0.0244,-0.03416,-0.0244,-0.07808,-0.0732,-0.03416,-0.06832,-0.06832
-0.04392,0.03172,-0.01952,0.00244,0.0244,-0.03416,-0.0244,-0.07808,-0.0732,-0.03904,-0.06832,-0.06832
-0.03904,0.02928,-0.01952,0,0.01952,-0.02928,-0.02928,-0.07808,-0.07808,-0.03904,-0.06832,-0.05856
-0.03416,0.02684,-0.01952,-0.00244,0.01464,-0.0244,-0.02928,-0.07808,-0.0732,-0.03904,-0.06832,-0.06344
-0.03416,0.0244,-0.01464,0.00244,0.01952,-0.02684,-0.02928,-0.08296,-0.08296,-0.03904,-0.05856,-0.0732
-0.03416,0.01952,-0.00488,0.0122,0.02928,-0.03172,-0.03416,-0.08296,-0.08784,-0.03904,-0.05856,-0.0732
-0.03416,0.0244,-0.01464,0.00244,0.01952,-0.02684,-0.02928,-0.08296,-0.07808,-0.03904,-0.06832,-0.0732
-0.03904,0.02684,-0.01464,0.00488,0.0244,-0.03172,-0.02928,-0.08296,-0.07808,-0.03904,-0.06832,-0.0732
-0.03904,0.0244,-0.00976,0.00976,0.02928,-0.03416,-0.02928,-0.07808,-0.07808,-0.03904,-0.06832,-0.0732
-0.03904,0.0244,-0.00976,0.00976,0.02928,-0.03416,-0.02928,-0.08296,-0.07808,-0.03904,-0.06832,-0.06832
-0.03904,0.0244,-0.00976,0.00976,0.02928,-0.03416,-0.01952,-0.0732,-0.06832,-0.03904,-0.05368,-0.05368
-0.03904,0.02928,-0.01952,0,0.01952,-0.02928,-0.0244,-0.08296,-0.07808,-0.03904,-0.06344,-0.06344
-0.03904,0.01952,0,0.01952,0.03904,-0.03904,-0.02928,-0.08784,-0.07808,-0.0488,-0.06832,-0.06832
-0.03904,0.01952,0,0.01952,0.03904,-0.03904,-0.02928,-0.08784,-0.07808,-0.0488,-0.06832,-0.06832
-0.03904,0.01952,0,0.01952,0.03904,-0.03904,-0.01952,-0.08784,-0.07808,-0.0488,-0.06832,-0.06832
-0.03904,0.01952,0,0.01952,0.03904,-0.03904,-0.01952,-0.08784,-0.07808,-0.0488,-0.06832,-0.06832
-0.03904,0.0244,-0.00976,0.00976,0.02928,-0.03416,-0.01952,-0.08784,-0.07808,-0.03904,-0.05856,-0.07808
-0.03904,0.0244,-0.00976,0.00976,0.02928,-0.03416,-0.01952,-0.08784,-0.07808,-0.03904,-0.05856,-0.07808
-0.03904,0.01952,0,0.01952,0.03904,-0.03904,-0.02928,-0.08784,-0.08784,-0.03904,-0.05856,-0.06832
-0.03904,0.01952,0,0.01952,0.03904,-0.03904,-0.02928,-0.08784,-0.08784,-0.03904,-0.05856,-0.06832
-0.03904,0.01952,0,0.01952,0.03904,-0.03904,-0.02928,-0.0976,-0.08784,-0.03904,-0.06832,-0.06832
-0.03904,0.01952,0,0.01952,0.03904,-0.03904,-0.02928,-0.0976,-0.08784,-0.03904,-0.06832,-0.06832
-0.03904,0.0244,-0.00976,0.00976,0.02928,-0.03416,-0.03904,-0.08784,-0.08784,-0.0488,-0.06832,-0.06832
-0.03904,0.0244,-0.00976,0.00976,0.02928,-0.03416,-0.03904,-0.08784,-0.08784,-0.0488,-0.06832,-0.06832
-0.03904,0.0244,-0.00976,0.00976,0.02928,-0.03416,-0.02928,-0.08784,-0.07808,-0.03904,-0.05856,-0.06832
-0.03904,0.0244,-0.00976,0.00976,0.02928,-0.03416,-0.02928,-0.08784,-0.07808,-0.03904,-0.05856,-0.06832
-0.03904,0.0244,-0.00976,0.00976,0.02928,-0.03416,-0.02928,-0.08784,-0.07808,-0.03904,-0.05856,-0.06832
-0.03904,0.0244,-0.00976,0.00976,0.02928,-0.03416,-0.02928,-0.08784,-0.07808,-0.03904,-0.05856,-0.06832
-0.03904,0.0244,-0.00976,0.00976,0.02928,-0.03416,-0.02928,-0.08784,-0.07808,-0.03904,-0.05856,-0.06832
-0.03904,0.0244,-0.00976,0.00976,0.02928,-0.03416,-0.02928,-0.08784,-0.07808,-0.03904,-0.05856,-0.06832
-0.03904,0.0244,-0.00976,0.00976,0.02928,-0.03416,-0.02928,-0.08784,-0.07808,-0.03904,-0.05856,-0.06832
-0.03904,0.0244,-0.00976,0.00976,0.02928,-0.03416,-0.02928,-0.08784,-0.07808,-0.03904,-0.05856,-0.06832
-0.0488,0.02928,-0.00976,0.01464,0.03904,-0.04392,-0.02928,-0.08784,-0.07808,-0.03904,-0.05856,-0.06832
-0.0488,0.02928,-0.00976,0.01464,0.03904,-0.04392,-0.02928,-0.08784,-0.07808,-0.03904,-0.05856,-0.06832
-0.0488,0.02928,-0.00976,0.01464,0.03904,-0.04392,-0.02928,-0.08784,-0.07808,-0.03904,-0.05856,-0.06832
-0.0488,0.02928,-0.00976,0.01464,0.03904,-0.04392,-0.02928,-0.08784,-0.07808,-0.03904,-0.05856,-0.06832
-0.03904,0.0244,-0.00976,0.00976,0.02928,-0.03416,-0.02928,-0.08784,-0.07808,-0.03904,-0.05856,-0.06832
-0.03904,0.0244,-0.00976,0.00976,0.02928,-0.03416,-0.02928,-0.08784,-0.07808,-0.03904,-0.05856,-0.06832
-0.03904,0.0244,-0.00976,0.00976,0.02928,-0.03416,-0.02928,-0.0976,-0.07808,-0.0488,-0.05856,-0.06832
-0.03904,0.0244,-0.00976,0.00976,0.02928,-0.03416,-0.02928,-0.0976,-0.07808,-0.0488,-0.05856,-0.06832
-0.03904,0.0244,-0.00976,0.00976,0.02928,-0.03416,-0.01952,-0.09272,-0.06832,-0.03904,-0.05856,-0.05856
-0.03904,0.0244,-0.00976,0.00976,0.02928,-0.03416,-0.01952,-0.08296,-0.06832,-0.03904,-0.05856,-0.05856
-0.03904,0.0244,-0.00976,0.00976,0.02928,-0.03416,-0.01952,-0.08784,-0.07808,-0.03904,-0.05856,-0.06832
-0.03904,0.0244,-0.00976,0.00976,0.02928,-0.03416,-0.01952,-0.08784,-0.07808,-0.03904,-0.05856,-0.06832
-0.03904,0.02684,-0.01464,0.00488,0.0244,-0.03172,-0.01952,-0.08784,-0.07808,-0.03904,-0.05856,-0.06832
-0.03904,0.03172,-0.0244,-0.00488,0.01464,-0.02684,-0.01952,-0.08784,-0.07808,-0.03904,-0.05856,-0.06832
-0.03904,0.02928,-0.01952,0,0.01952,-0.02928,-0.02928,-0.08784,-0.07808,-0.03904,-0.05856,-0.06832
-0.03904,0.02928,-0.01952,0,0.01952,-0.02928,-0.02928,-0.08784,-0.07808,-0.03904,-0.05856,-0.06832
-0.0488,0.03416,-0.01952,0.00488,0.02928,-0.03904,-0.02928,-0.08784,-0.08784,-0.0488,-0.05856,-0.06832
-0.0488,0.03416,-0.01952,0.00488,0.02928,-0.03904,-0.02928,-0.08784,-0.08784,-0.0488,-0.05856,-0.06832
-0.03904,0.02928,-0.01952,0,0.01952,-0.02928,-0.02928,-0.08784,-0.08784,-0.03904,-0.05856,-0.06832
-0.03904,0.02928,-0.01952,0,0.01952,-0.02928,-0.02928,-0.08784,-0.08784,-0.03904,-0.05856,-0.06832
-0.03904,0.02928,-0.01952,0,0.01952,-0.02928,-0.02928,-0.08784,-0.08784,-0.03904,-0.05856,-0.06832
-0.03904,0.02928,-0.01952,0,0.01952,-0.02928,-0.02928,-0.08784,-0.08784,-0.03904,-0.05856,-0.06832
-0.03904,0.02928,-0.01952,0,0.01952,-0.02928,-0.02928,-0.0976,-0.08784,-0.0488,-0.06832,-0.07808
-0.03904,0.02928,-0.01952,0,0.01952,-0.02928,-0.02928,-0.0976,-0.08784,-0.0488,-0.06832,-0.07808
-0.03904,0.02928,-0.01952,0,0.01952,-0.02928,-0.02928,-0.08784,-0.08784,-0.03904,-0.05856,-0.06832
-0.04392,0.03172,-0.01952,0.00244,0.0244,-0.03416,-0.02928,-0.08784,-0.08784,-0.03904,-0.05856,-0.06832
-0.03904,0.02928,-0.01952,0,0.01952,-0.02928,-0.02928,-0.08784,-0.08784,-0.0488,-0.05856,-0.06832
-0.03904,0.02928,-0.01952,0,0.01952,-0.02928,-0.0244,-0.08784,-0.08784,-0.04392,-0.05856,-0.06832
-0.03904,0.02928,-0.01952,0,0.01952,-0.02928,-0.0244,-0.08784,-0.08296,-0.04392,-0.05856,-0.06832
-0.03416,0.0244,-0.01464,0.00244,0.01952,-0.02684,-0.0244,-0.07808,-0.08296,-0.03904,-0.05368,-0.06344
-0.02928,0.01708,-0.00488,0.00976,0.0244,-0.02684,-0.01464,-0.06832,-0.0732,-0.03416,-0.04392,-0.05856
-0.0244,0.00976,0.00488,0.01708,0.02928,-0.02684,-0.00976,-0.06344,-0.06344,-0.02928,-0.04392,-0.05368
-0.01464,0.00732,0,0.00732,0.01464,-0.01464,-0.01464,-0.06344,-0.05368,-0.0244,-0.0244,-0.04392
0,0,0,0,0,0,0,-0.05368,-0.0488,-0.0244,-0.0244,-0.04392
0.00488,-0.00976,0.01464,0.0122,0.00976,-0.00244,0.00976,-0.03904,-0.04392,-0.01464,-0.01952,-0.03416
0.0244,-0.0244,0.0244,0.0122,0,0.0122,0.00976,-0.02928,-0.03416,-0.00976,-0.00976,-0.02928
0.0244,-0.02928,0.03416,0.02196,0.00976,0.00732,0.00488,-0.01952,-0.02928,0.00488,-0.00976,-0.02928
0.02928,-0.0366,0.04392,0.02928,0.01464,0.00732,0.01464,-0.00488,-0.01464,0.00976,0.00488,-0.01952
0.03416,-0.0366,0.03904,0.02196,0.00488,0.01464,0.01464,0,-0.00488,0.0244,0.00976,0
0.02928,-0.03416,0.03904,0.0244,0.00976,0.00976,0.01464,0,-0.00488,0.0244,0.00976,0
0.03416,-0.0366,0.03904,0.02196,0.00488,0.01464,0.01952,0.00976,-0.00488,0.01464,0.01952,-0.00976
0.03416,-0.0366,0.03904,0.02196,0.00488,0.01464,0.00976,-0.01464,-0.01952,0.00488,0.00976,-0.01464
0.0244,-0.02928,0.03416,0.02196,0.00976,0.00732,-0.00488,-0.03904,-0.02928,0.00488,0,-0.01464
0.0244,-0.0244,0.0244,0.0122,0,0.0122,-0.0244,-0.05368,-0.04392,0,-0.00976,-0.01952
0.0244,-0.02196,0.01952,0.00732,-0.00488,0.01464,-0.03904,-0.06832,-0.05368,0,-0.01464,-0.01952
0.0244,-0.01708,0.00976,-0.00244,-0.01464,0.01952,-0.0488,-0.08784,-0.05856,-0.00976,-0.0244,-0.01952
0.01464,-0.00244,-0.00976,-0.01708,-0.0244,0.01952,-0.05856,-0.0976,-0.07808,-0.0244,-0.04392,-0.03416
0.00488,0.0122,-0.02928,-0.03172,-0.03416,0.01952,-0.05368,-0.10736,-0.08784,-0.03416,-0.05856,-0.04392
-0.01952,0.03172,-0.04392,-0.03416,-0.0244,0.00244,-0.0488,-0.10736,-0.0976,-0.03904,-0.06344,-0.05856
-0.03904,0.04636,-0.05368,-0.03416,-0.01464,-0.0122,-0.03416,-0.10736,-0.09272,-0.03904,-0.06344,-0.05856
-0.0488,0.0488,-0.0488,-0.0244,0,-0.0244,-0.01952,-0.10248,-0.08784,-0.03904,-0.05368,-0.05368
-0.0488,0.0488,-0.0488,-0.0244,0,-0.0244,-0.01952,-0.10736,-0.08296,-0.04392,-0.05856,-0.05856
-0.05856,0.05856,-0.05856,-0.02928,0,-0.02928,-0.01952,-0.10736,-0.09272,-0.05368,-0.0732,-0.05856
-0.06344,0.06832,-0.0732,-0.04148,-0.00976,-0.02684,-0.01952,-0.10736,-0.0976,-0.05368,-0.08296,-0.0732
-0.05368,0.06344,-0.0732,-0.04636,-0.01952,-0.01708,-0.0244,-0.10736,-0.0976,-0.06832,-0.08296,-0.0732
-0.0488,0.061,-0.0732,-0.0488,-0.0244,-0.0122,-0.0244,-0.10736,-0.0976,-0.06832,-0.08296,-0.0732
-0.0488,0.05612,-0.06344,-0.03904,-0.01464,-0.01708,-0.03416,-0.11712,-0.10736,-0.06832,-0.09272,-0.0732
-0.0488,0.05856,-0.06832,-0.04392,-0.01952,-0.01464,-0.03416,-0.11712,-0.10736,-0.0732,-0.09272,-0.0732
-0.05368,0.061,-0.06832,-0.04148,-0.01464,-0.01952,-0.04392,-0.11712,-0.0976,-0.06344,-0.08784,-0.0732
-0.05368,0.061,-0.06832,-0.04148,-0.01464,-0.01952,-0.04392,-0.122,-0.10248,-0.05856,-0.08784,-0.07808
-0.06344,0.07076,-0.07808,-0.04636,-0.01464,-0.0244,-0.04392,-0.11224,-0.10248,-0.05368,-0.07808,-0.0732
-0.06344,0.07076,-0.07808,-0.04636,-0.01464,-0.0244,-0.03416,-0.11224,-0.0976,-0.05368,-0.0732,-0.0732
-0.06832,0.0732,-0.07808,-0.04392,-0.00976,-0.02928,-0.0244,-0.11712,-0.0976,-0.05368,-0.0732,-0.0732
-0.06832,0.07076,-0.0732,-0.03904,-0.00488,-0.03172,-0.0244,-0.11712,-0.0976,-0.05368,-0.0732,-0.0732
-0.05856,0.06588,-0.0732,-0.04392,-0.01464,-0.02196,-0.0244,-0.10736,-0.0976,-0.05368,-0.0732,-0.06832
-0.05856,0.06588,-0.0732,-0.04392,-0.01464,-0.02196,-0.0244,-0.10736,-0.09272,-0.0488,-0.0732,-0.06832
-0.05856,0.06832,-0.07808,-0.0488,-0.01952,-0.01952,-0.01464,-0.09272,-0.08784,-0.0488,-0.07808,-0.06832
-0.06832,0.06832,-0.06832,-0.03416,0,-0.03416,-0.00976,-0.09272,-0.08784,-0.05856,-0.0732,-0.06832
-0.08784,0.0854,-0.08296,-0.03904,0.00488,-0.04636,0.01464,-0.09272,-0.07808,-0.06832,-0.0732,-0.0732
-0.12688,0.11468,-0.10248,-0.03904,0.0244,-0.07564,0.05856,-0.07808,-0.07808,-0.09272,-0.08784,-0.11224
-0.13664,0.11956,-0.10248,-0.03416,0.03416,-0.0854,0.08784,-0.03904,-0.05856,-0.07808,-0.08296,-0.10736
-0.11712,0.10492,-0.09272,-0.03416,0.0244,-0.07076,0.09272,0.0488,-0.00976,-0.03904,-0.0244,-0.08784
-0.07808,0.07564,-0.0732,-0.03416,0.00488,-0.04148,0.122,0.2684,0.10248,0.02928,0.06344,-0.03904
0.03416,-0.02928,0.0244,0.00732,-0.00976,0.02196,0.10248,0.55632,0.2684,0.18544,0.22936,0.06832
0.23424,-0.18544,0.13664,0.01952,-0.0976,0.16592,-0.00976,0.8052,0.42944,0.35136,0.40992,0.21472
0.42456,-0.37332,0.32208,0.1098,-0.10248,0.26352,-0.1952,0.70272,0.5612,0.54168,0.59048,0.38552
0.59048,-0.5734,0.55632,0.26108,-0.03416,0.31232,-0.47824,0.49288,0.69784,0.72712,0.76128,0.60024
0.69784,-0.75396,0.81008,0.46116,0.11224,0.2928,-0.77592,0.1464,0.72224,0.854,0.84424,0.7564
0.66368,-0.6954,0.72712,0.39528,0.06344,0.30012,-0.91256,-0.244,0.488,0.73688,0.67344,0.69784
0.49288,-0.47092,0.44896,0.20252,-0.04392,0.2684,-0.84424,-0.62952,0.122,0.44896,0.3416,0.49776
0.27328,-0.21716,0.16104,0.0244,-0.11224,0.19276,-0.6832,-0.77592,-0.21472,0.122,-0.00976,0.24888
0.15616,-0.11224,0.06832,-0.00976,-0.08784,0.122,-0.61,-0.91744,-0.3416,-0.01464,-0.1708,0.12688
0.08784,-0.02196,-0.04392,-0.08784,-0.13176,0.1098,-0.52216,-0.81008,-0.3416,-0.08296,-0.21472,0.0488
0.02928,0.05612,-0.14152,-0.15616,-0.1708,0.10004,-0.42456,-0.66368,-0.33184,-0.13176,-0.2196,-0.03416
-0.02928,0.09516,-0.16104,-0.1464,-0.13176,0.05124,-0.32208,-0.49776,-0.28792,-0.14152,-0.20496,-0.08784
-0.02928,0.09516,-0.16104,-0.1464,-0.13176,0.05124,-0.25376,-0.34648,-0.23912,-0.12688,-0.19032,-0.08296
-0.0244,0.07564,-0.12688,-0.11468,-0.10248,0.03904,-0.15616,-0.22448,-0.15128,-0.0732,-0.12688,-0.05856
-0.01952,0.06832,-0.11712,-0.10736,-0.0976,0.03904,-0.11224,-0.19032,-0.10736,-0.04392,-0.08296,-0.05368
-0.01952,0.05856,-0.0976,-0.08784,-0.07808,0.02928,-0.06344,-0.14152,-0.0976,-0.03904,-0.07808,-0.03416
-0.02928,0.05612,-0.08296,-0.06832,-0.05368,0.0122,-0.0488,-0.08784,-0.07808,-0.03416,-0.06344,-0.04392
-0.0488,0.06344,-0.07808,-0.05368,-0.02928,-0.00976,-0.03904,-0.08296,-0.0488,-0.01952,-0.04392,-0.04392
-0.0488,0.061,-0.0732,-0.0488,-0.0244,-0.0122,-0.01952,-0.08296,-0.04392,-0.01952,-0.03904,-0.04392
-0.0488,0.061,-0.0732,-0.0488,-0.0244,-0.0122,0,-0.06832,-0.04392,-0.0244,-0.03904,-0.04392
-0.0488,0.06588,-0.08296,-0.05856,-0.03416,-0.00732,-0.00488,-0.05368,-0.04392,-0.0244,-0.03904,-0.0488
-0.0488,0.06344,-0.07808,-0.05368,-0.02928,-0.00976,0.00488,-0.04392,-0.04392,-0.01464,-0.03904,-0.03904
-0.05856,0.07076,-0.08296,-0.05368,-0.0244,-0.01708,0.00488,-0.04392,-0.03904,-0.01464,-0.03416,-0.03904
-0.05856,0.07076,-0.08296,-0.05368,-0.0244,-0.01708,0.01464,-0.04392,-0.02928,-0.0244,-0.03904,-0.03904
-0.05856,0.07076,-0.08296,-0.05368,-0.0244,-0.01708,0.01464,-0.03904,-0.02928,-0.01952,-0.03904,-0.03904
-0.0488,0.06588,-0.08296,-0.05856,-0.03416,-0.00732,0.01464,-0.03416,-0.02928,-0.00976,-0.03904,-0.03416
-0.04392,0.06344,-0.08296,-0.061,-0.03904,-0.00244,0.01952,-0.03416,-0.02928,-0.00976,-0.03904,-0.03416
-0.04392,0.06588,-0.08784,-0.06588,-0.04392,0,0.01464,-0.02928,-0.01952,-0.01952,-0.03904,-0.03416
-0.0488,0.06832,-0.08784,-0.06344,-0.03904,-0.00488,0.01952,-0.0244,-0.01952,-0.01952,-0.03904,-0.02928
-0.0488,0.06832,-0.08784,-0.06344,-0.03904,-0.00488,0.01952,-0.0244,-0.0244,-0.01952,-0.03416,-0.02928
-0.0488,0.06832,-0.08784,-0.06344,-0.03904,-0.00488,0.01952,-0.01952,-0.0244,-0.01952,-0.03416,-0.02928
-0.05856,0.06832,-0.07808,-0.0488,-0.01952,-0.01952,0.01464,-0.01952,-0.0244,-0.00976,-0.03416,-0.02928
-0.05856,0.06832,-0.07808,-0.0488,-0.01952,-0.01952,0.01464,-0.01464,-0.02928,-0.00976,-0.03416,-0.02928
-0.05856,0.06832,-0.07808,-0.0488,-0.01952,-0.01952,0.01464,-0.01464,-0.0244,-0.00976,-0.01952,-0.02928
-0.05856,0.06588,-0.0732,-0.04392,-0.01464,-0.02196,0.01464,-0.01464,-0.01952,-0.00488,-0.01952,-0.02928
-0.05368,0.06344,-0.0732,-0.04636,-0.01952,-0.01708,0.01464,-0.01464,-0.01464,-0.00488,-0.01952,-0.0244
-0.05368,0.06344,-0.0732,-0.04636,-0.01952,-0.01708,0.01464,-0.00976,-0.00976,-0.00488,-0.0244,-0.01952
-0.05368,0.06344,-0.0732,-0.04636,-0.01952,-0.01708,0.0244,0,-0.00976,-0.00488,-0.0244,-0.01952
-0.05368,0.06344,-0.0732,-0.04636,-0.01952,-0.01708,0.01952,0,-0.00976,-0.00488,-0.0244,-0.0244
-0.05368,0.06344,-0.0732,-0.04636,-0.01952,-0.01708,0.01952,0,0,0,-0.01952,-0.0244
-0.05368,0.061,-0.06832,-0.04148,-0.01464,-0.01952,0.01952,0.00488,0,0,-0.01952,-0.0244
-0.04392,0.05856,-0.0732,-0.05124,-0.02928,-0.00732,0.01952,0,-0.00488,0.00488,-0.01464,-0.00976
-0.04392,0.05612,-0.06832,-0.04636,-0.0244,-0.00976,0.01952,0.00488,-0.00488,0.00488,-0.01464,-0.00976
-0.03904,0.05124,-0.06344,-0.04392,-0.0244,-0.00732,0.01952,0.00976,0.00488,0.00488,-0.00976,-0.00976
-0.03904,0.0488,-0.05856,-0.03904,-0.01952,-0.00976,0.01464,0.01464,0.00976,0.00976,-0.00976,-0.00976
-0.04392,0.05124,-0.05856,-0.0366,-0.01464,-0.01464,0.01464,0.0244,0.01464,0.01464,-0.00488,-0.01464
-0.04392,0.05124,-0.05856,-0.0366,-0.01464,-0.01464,0.01464,0.03416,0.01464,0.01464,0,-0.01464
-0.04392,0.0488,-0.05368,-0.03172,-0.00976,-0.01708,0.01464,0.02928,0.00976,0.01952,0,-0.00976
-0.03904,0.04636,-0.05368,-0.03416,-0.01464,-0.0122,0.01464,0.03416,0.01464,0.01952,0,-0.00976
-0.03904,0.03904,-0.03904,-0.01952,0,-0.01952,0.00976,0.04392,0.0244,0.0244,0.00488,0.00488
-0.03416,0.03416,-0.03416,-0.01708,0,-0.01708,0.00976,0.0488,0.02928,0.0244,0.00976,0.00488
-0.01952,0.02928,-0.03904,-0.02928,-0.01952,0,0.00976,0.0488,0.0244,0.0244,0.01464,0
-0.01464,0.02196,-0.02928,-0.02196,-0.01464,0,0.00976,0.05856,0.0244,0.02928,0.01952,0.00488
-0.01464,0.01952,-0.0244,-0.01708,-0.00976,-0.00244,0.00976,0.07808,0.02928,0.04392,0.0244,0.00976
-0.00976,0.01464,-0.01952,-0.01464,-0.00976,0,0.00488,0.08296,0.03904,0.05368,0.03416,0.00976
-0.00488,0.00732,-0.00976,-0.00732,-0.00488,0,0.01464,0.0976,0.0488,0.05368,0.0244,0.01952
0,0.00488,-0.00976,-0.00976,-0.00976,0.00488,0.00976,0.10248,0.05856,0.05856,0.03904,0.0244
0.00488,0.00244,-0.00976,-0.0122,-0.01464,0.00976,-0.00488,0.11712,0.06344,0.06344,0.04392,0.03416
0.00976,-0.00732,0.00488,0,-0.00488,0.00732,-0.00488,0.12688,0.0732,0.07808,0.05856,0.0488
0.02928,-0.02196,0.01464,0,-0.01464,0.02196,0.00488,0.13664,0.08296,0.09272,0.06832,0.0488
0.03416,-0.02928,0.0244,0.00732,-0.00976,0.02196,0,0.15128,0.09272,0.0976,0.07808,0.05856
0.04392,-0.03904,0.03416,0.0122,-0.00976,0.02684,0.00488,0.18056,0.11224,0.11224,0.08784,0.0732
0.05368,-0.05124,0.0488,0.02196,-0.00488,0.02928,-0.00488,0.20008,0.12688,0.12688,0.10736,0.08784
0.05856,-0.05856,0.05856,0.02928,0,0.02928,-0.01464,0.20984,0.1464,0.14152,0.11712,0.08784
0.06832,-0.0732,0.07808,0.04392,0.00976,0.02928,-0.0244,0.23912,0.16104,0.15616,0.13664,0.10248
0.08296,-0.08784,0.09272,0.05124,0.00976,0.0366,-0.01952,0.26352,0.17568,0.1708,0.16592,0.12688
0.10248,-0.10492,0.10736,0.05612,0.00488,0.0488,-0.0244,0.29768,0.20008,0.19032,0.18544,0.14152
0.122,-0.122,0.122,0.061,0,0.061,-0.03904,0.32696,0.21472,0.20984,0.1952,0.15616
0.13664,-0.13908,0.14152,0.0732,0.00488,0.06588,-0.0488,0.35624,0.22936,0.22936,0.21472,0.16592
0.15128,-0.15616,0.16104,0.0854,0.00976,0.07076,-0.05856,0.366,0.24888,0.244,0.244,0.19032
0.1708,-0.17324,0.17568,0.09028,0.00488,0.08296,-0.06344,0.3904,0.2684,0.26352,0.25376,0.20496
0.18056,-0.18056,0.18056,0.09028,0,0.09028,-0.0732,0.4148,0.28792,0.27328,0.27328,0.20984
0.1952,-0.1952,0.1952,0.0976,0,0.0976,-0.08296,0.4392,0.30256,0.28304,0.28304,0.2196
0.20496,-0.2074,0.20984,0.10736,0.00488,0.10004,-0.08784,0.4636,0.31232,0.28792,0.30744,0.2196
0.2196,-0.2196,0.2196,0.1098,0,0.1098,-0.08784,0.48312,0.32696,0.29768,0.31232,0.23424
0.23424,-0.2318,0.22936,0.11224,-0.00488,0.11956,-0.0976,0.488,0.32696,0.31232,0.30744,0.24888
0.244,-0.23424,0.22448,0.10248,-0.01952,0.13176,-0.10248,0.49288,0.32696,0.32208,0.3172,0.25376
0.25376,-0.23912,0.22448,0.0976,-0.02928,0.14152,-0.10248,0.49776,0.33672,0.32208,0.32696,0.25376
0.25376,-0.23912,0.22448,0.0976,-0.02928,0.14152,-0.10248,0.48312,0.33672,0.32696,0.32696,0.25376
0.25376,-0.23424,0.21472,0.08784,-0.03904,0.1464,-0.11224,0.4636,0.33184,0.31232,0.31232,0.244
0.244,-0.2196,0.1952,0.0732,-0.0488,0.1464,-0.10736,0.42456,0.30744,0.28792,0.2928,0.22448
0.22448,-0.20008,0.17568,0.06344,-0.0488,0.13664,-0.09272,0.38064,0.28304,0.25864,0.27328,0.20008
0.19032,-0.16836,0.1464,0.05124,-0.04392,0.11712,-0.08296,0.33184,0.25864,0.22936,0.23912,0.17568
0.15616,-0.1342,0.11224,0.03416,-0.04392,0.10004,-0.06832,0.28304,0.23424,0.20984,0.20496,0.16104
0.13664,-0.10736,0.07808,0.00976,-0.05856,0.0976,-0.05856,0.23424,0.1952,0.18056,0.1708,0.13176
0.11224,-0.0854,0.05856,0.00244,-0.05368,0.08296,-0.04392,0.19032,0.15616,0.13664,0.13664,0.0976
0.08296,-0.05612,0.02928,-0.0122,-0.05368,0.06832,-0.03416,0.15128,0.13176,0.10736,0.11224,0.07808
0.06344,-0.02928,-0.00488,-0.0366,-0.06832,0.06588,-0.01464,0.11712,0.11224,0.0976,0.08296,0.05856
0.02928,0.00244,-0.03416,-0.0488,-0.06344,0.04636,-0.00488,0.08296,0.08784,0.0732,0.05856,0.04392
0.01952,0.0122,-0.04392,-0.05368,-0.06344,0.04148,0.01464,0.0488,0.05856,0.0488,0.03416,0.02928
0.00976,0.0244,-0.05856,-0.06344,-0.06832,0.03904,0.01464,0.03416,0.04392,0.02928,0.01464,0.01464
-0.01464,0.04148,-0.06832,-0.061,-0.05368,0.01952,0.01952,0.01952,0.02928,0.00976,-0.00488,0
-0.0244,0.061,-0.0976,-0.0854,-0.0732,0.0244,0.0244,0,0.0244,0,-0.01464,-0.00976
-0.03416,0.06588,-0.0976,-0.08052,-0.06344,0.01464,0.0244,-0.00488,0.01952,0,-0.0244,-0.01952
-0.03416,0.07076,-0.10736,-0.09028,-0.0732,0.01952,0.02928,-0.01464,0.00976,-0.00976,-0.03416,-0.0244
-0.03416,0.07076,-0.10736,-0.09028,-0.0732,0.01952,0.02928,-0.02928,0.01464,-0.01464,-0.03904,-0.02928
-0.03416,0.07564,-0.11712,-0.10004,-0.08296,0.0244,0.03416,-0.02928,0.01464,-0.0244,-0.04392,-0.02928
-0.03416,0.07564,-0.11712,-0.10004,-0.08296,0.0244,0.03416,-0.03416,0.01464,-0.0244,-0.04392,-0.02928
-0.04392,0.08052,-0.11712,-0.09516,-0.0732,0.01464,0.03416,-0.03416,0.00976,-0.0244,-0.04392,-0.03416
-0.04392,0.0854,-0.12688,-0.10492,-0.08296,0.01952,0.03416,-0.03904,0.00976,-0.0244,-0.0488,-0.0488
-0.04392,0.0854,-0.12688,-0.10492,-0.08296,0.01952,0.03416,-0.03904,0.00488,-0.0244,-0.0488,-0.04392
-0.04392,0.0854,-0.12688,-0.10492,-0.08296,0.01952,0.0244,-0.0488,-0.00488,-0.03416,-0.0488,-0.0488
-0.04392,0.0854,-0.12688,-0.10492,-0.08296,0.01952,0.0244,-0.0488,-0.00488,-0.03904,-0.0488,-0.0488
-0.04392,0.08052,-0.11712,-0.09516,-0.0732,0.01464,0.03416,-0.04392,0.00488,-0.0488,-0.0488,-0.0488
-0.04392,0.08296,-0.122,-0.10004,-0.07808,0.01708,0.02928,-0.04392,0.00976,-0.0488,-0.05368,-0.0488
-0.04392,0.08296,-0.122,-0.10004,-0.07808,0.01708,0.02928,-0.0488,0.00976,-0.03904,-0.05856,-0.03904
-0.04392,0.08296,-0.122,-0.10004,-0.07808,0.01708,0.02928,-0.0488,0.00976,-0.03904,-0.05856,-0.03904
-0.04392,0.0854,-0.12688,-0.10492,-0.08296,0.01952,0.03416,-0.0488,0.00976,-0.02928,-0.05368,-0.03904
-0.04392,0.09028,-0.13664,-0.11468,-0.09272,0.0244,0.03416,-0.0488,0.00488,-0.02928,-0.04392,-0.03904
-0.05368,0.10248,-0.15128,-0.12444,-0.0976,0.02196,0.03416,-0.03904,0.01464,-0.02928,-0.03904,-0.03904
-0.05368,0.10248,-0.15128,-0.12444,-0.0976,0.02196,0.03416,-0.03904,0.01464,-0.02928,-0.03904,-0.03904
-0.04392,0.09516,-0.1464,-0.12444,-0.10248,0.02928,0.03416,-0.03904,0.02928,-0.03904,-0.0488,-0.04392
-0.04392,0.09028,-0.13664,-0.11468,-0.09272,0.0244,0.03416,-0.03416,0.0244,-0.03416,-0.0488,-0.04392
-0.03904,0.0854,-0.13176,-0.11224,-0.09272,0.02684,0.03416,-0.03904,0.01464,-0.03416,-0.0488,-0.03416
-0.04392,0.08784,-0.13176,-0.1098,-0.08784,0.02196,0.03416,-0.03904,0.01952,-0.03416,-0.04392,-0.03416
-0.04392,0.09028,-0.13664,-0.11468,-0.09272,0.0244,0.03904,-0.0488,0.01952,-0.03904,-0.04392,-0.04392
-0.03904,0.0854,-0.13176,-0.11224,-0.09272,0.02684,0.03904,-0.04392,0.01952,-0.03904,-0.04392,-0.03904
-0.03904,0.0854,-0.13176,-0.11224,-0.09272,0.02684,0.04392,-0.0488,0.02928,-0.03904,-0.03416,-0.03416
-0.03904,0.0854,-0.13176,-0.11224,-0.09272,0.02684,0.04392,-0.0488,0.02928,-0.03416,-0.03416,-0.02928
-0.03904,0.0854,-0.13176,-0.11224,-0.09272,0.02684,0.04392,-0.05368,0.02928,-0.04392,-0.03904,-0.02928
-0.03904,0.0854,-0.13176,-0.11224,-0.09272,0.02684,0.03904,-0.05368,0.02928,-0.04392,-0.03904,-0.02928
-0.03904,0.08296,-0.12688,-0.10736,-0.08784,0.0244,0.03904,-0.05368,0.0244,-0.04392,-0.03904,-0.03416
-0.03416,0.07564,-0.11712,-0.10004,-0.08296,0.0244,0.03904,-0.05368,0.0244,-0.04392,-0.03904,-0.03416
-0.04392,0.0732,-0.10248,-0.08052,-0.05856,0.00732,0.03904,-0.04392,0.03416,-0.04392,-0.03416,-0.02928
-0.04392,0.07076,-0.0976,-0.07564,-0.05368,0.00488,0.03416,-0.04392,0.02928,-0.03904,-0.03416,-0.02928
-0.03904,0.0732,-0.10736,-0.08784,-0.06832,0.01464,0.03416,-0.05368,0.01952,-0.03904,-0.04392,-0.0244
-0.03904,0.0732,-0.10736,-0.08784,-0.06832,0.01464,0.03416,-0.0488,0.02928,-0.03904,-0.03904,-0.0244
-0.03416,0.07076,-0.10736,-0.09028,-0.0732,0.01952,0.04392,-0.0488,0.01952,-0.03416,-0.03904,-0.01464
-0.0244,0.06588,-0.10736,-0.09516,-0.08296,0.02928,0.04392,-0.0488,0.01952,-0.03416,-0.03904,-0.01464
-0.02928,0.06832,-0.10736,-0.09272,-0.07808,0.0244,0.03904,-0.03904,0.02928,-0.04392,-0.02928,-0.01952
-0.02928,0.06832,-0.10736,-0.09272,-0.07808,0.0244,0.03904,-0.03416,0.02928,-0.04392,-0.0244,-0.01952
-0.02928,0.06832,-0.10736,-0.09272,-0.07808,0.0244,0.03904,-0.04392,0.03416,-0.04392,-0.0244,-0.01952
-0.02928,0.06832,-0.10736,-0.09272,-0.07808,0.0244,0.03904,-0.04392,0.03416,-0.04392,-0.0244,-0.01952
-0.02928,0.06344,-0.0976,-0.08296,-0.06832,0.01952,0.03904,-0.04392,0.03416,-0.04392,-0.02928,-0.01952
-0.0244,0.061,-0.0976,-0.0854,-0.0732,0.0244,0.03904,-0.04392,0.03416,-0.04392,-0.02928,-0.01952
-0.0244,0.05856,-0.09272,-0.08052,-0.06832,0.02196,0.03904,-0.04392,0.03416,-0.04392,-0.0244,-0.00976
-0.0244,0.05856,-0.09272,-0.08052,-0.06832,0.02196,0.03904,-0.04392,0.03416,-0.04392,-0.0244,-0.00976
-0.0244,0.05856,-0.09272,-0.08052,-0.06832,0.02196,0.04392,-0.04392,0.03416,-0.04392,-0.01464,-0.00976
-0.0244,0.061,-0.0976,-0.0854,-0.0732,0.0244,0.04392,-0.04392,0.03416,-0.04392,-0.01952,-0.01464
-0.0244,0.05612,-0.08784,-0.07564,-0.06344,0.01952,0.03904,-0.04392,0.03416,-0.05368,-0.01952,-0.01464
-0.0244,0.05856,-0.09272,-0.08052,-0.06832,0.02196,0.03904,-0.04392,0.02928,-0.05368,-0.01952,-0.01464
-0.03416,0.06344,-0.09272,-0.07564,-0.05856,0.0122,0.0488,-0.04392,0.02928,-0.05368,-0.01952,-0.01952
-0.03416,0.06344,-0.09272,-0.07564,-0.05856,0.0122,0.0488,-0.04392,0.02928,-0.05368,-0.01952,-0.01952
-0.0244,0.05856,-0.09272,-0.08052,-0.06832,0.02196,0.04392,-0.04392,0.02928,-0.05368,-0.01952,-0.01952
-0.0244,0.061,-0.0976,-0.0854,-0.0732,0.0244,0.04392,-0.04392,0.02928,-0.05368,-0.01952,-0.0244
-0.0244,0.05612,-0.08784,-0.07564,-0.06344,0.01952,0.04392,-0.04392,0.01952,-0.06832,-0.02928,-0.03416
-0.0244,0.05612,-0.08784,-0.07564,-0.06344,0.01952,0.04392,-0.04392,0.01952,-0.06832,-0.02928,-0.03416
-0.03904,0.05856,-0.07808,-0.05856,-0.03904,0,0.05368,-0.05368,0.01952,-0.06832,-0.01952,-0.03904
-0.03904,0.061,-0.08296,-0.06344,-0.04392,0.00244,0.05856,-0.05368,0.01952,-0.06832,-0.01952,-0.03904
-0.03904,0.061,-0.08296,-0.06344,-0.04392,0.00244,0.06344,-0.0488,0.0244,-0.06832,-0.01952,-0.02928
-0.03904,0.061,-0.08296,-0.06344,-0.04392,0.00244,0.05856,-0.0488,0.0244,-0.06832,-0.0244,-0.0244
-0.03904,0.061,-0.08296,-0.06344,-0.04392,0.00244,0.0488,-0.0488,0.01464,-0.06344,-0.0244,-0.01464
-0.03904,0.06588,-0.09272,-0.0732,-0.05368,0.00732,0.05368,-0.0488,0.01464,-0.05856,-0.0244,-0.01952
-0.02928,0.05612,-0.08296,-0.06832,-0.05368,0.0122,0.05368,-0.0488,0.01952,-0.0732,-0.0244,-0.0244
-0.02928,0.05612,-0.08296,-0.06832,-0.05368,0.0122,0.05368,-0.0488,0.01952,-0.0732,-0.0244,-0.02928
-0.03416,0.05368,-0.0732,-0.05612,-0.03904,0.00244,0.06344,-0.0488,0.01464,-0.0732,-0.0244,-0.02928
-0.03416,0.05368,-0.0732,-0.05612,-0.03904,0.00244,0.06344,-0.0488,0.01464,-0.0732,-0.0244,-0.02928
-0.04392,0.05612,-0.06832,-0.04636,-0.0244,-0.00976,0.06344,-0.0488,0.00976,-0.08296,-0.03416,-0.03904
-0.04392,0.05612,-0.06832,-0.04636,-0.0244,-0.00976,0.06344,-0.0488,0.00976,-0.08296,-0.03416,-0.03904
-0.04392,0.05612,-0.06832,-0.04636,-0.0244,-0.00976,0.06344,-0.0488,0.00488,-0.08296,-0.03416,-0.03904
-0.04392,0.05612,-0.06832,-0.04636,-0.0244,-0.00976,0.06344,-0.0488,0.00488,-0.08296,-0.03416,-0.03904
-0.04392,0.05612,-0.06832,-0.04636,-0.0244,-0.00976,0.06344,-0.0488,-0.00488,-0.08296,-0.03904,-0.02928
-0.04392,0.05612,-0.06832,-0.04636,-0.0244,-0.00976,0.06344,-0.05368,-0.00488,-0.08784,-0.03416,-0.02928
-0.04392,0.05124,-0.05856,-0.0366,-0.01464,-0.01464,0.0732,-0.05368,0.00488,-0.08784,-0.03904,-0.02928
-0.04392,0.05124,-0.05856,-0.0366,-0.01464,-0.01464,0.0732,-0.0488,0,-0.08784,-0.03904,-0.02928
-0.04392,0.05124,-0.05856,-0.0366,-0.01464,-0.01464,0.06832,-0.05368,0,-0.08784,-0.02928,-0.02928
-0.04392,0.05124,-0.05856,-0.0366,-0.01464,-0.01464,0.06832,-0.05368,0,-0.08784,-0.02928,-0.02928
-0.04392,0.0488,-0.05368,-0.03172,-0.00976,-0.01708,0.0732,-0.05368,-0.00976,-0.08784,-0.03904,-0.02928
-0.04392,0.04636,-0.0488,-0.02684,-0.00488,-0.01952,0.0732,-0.05368,-0.00976,-0.08784,-0.03904,-0.03416
-0.04392,0.04392,-0.04392,-0.02196,0,-0.02196,0.0732,-0.0488,-0.00488,-0.0976,-0.03904,-0.02928
-0.04392,0.04392,-0.04392,-0.02196,0,-0.02196,0.0732,-0.0488,-0.00488,-0.09272,-0.03904,-0.02928
-0.04392,0.04148,-0.03904,-0.01708,0.00488,-0.0244,0.0732,-0.0488,-0.00488,-0.09272,-0.03904,-0.02928
-0.04392,0.04148,-0.03904,-0.01708,0.00488,-0.0244,0.0732,-0.0488,-0.00488,-0.0976,-0.03904,-0.02928
-0.0488,0.04392,-0.03904,-0.01464,0.00976,-0.02928,0.07808,-0.05856,-0.01952,-0.10736,-0.0488,-0.02928
-0.04392,0.04148,-0.03904,-0.01708,0.00488,-0.0244,0.07808,-0.05856,-0.01464,-0.10736,-0.0488,-0.03416
-0.04392,0.03416,-0.0244,-0.00244,0.01952,-0.03172,0.07808,-0.05368,-0.00488,-0.10736,-0.0488,-0.03416
-0.04392,0.02928,-0.01464,0.00732,0.02928,-0.0366,0.0732,-0.05368,-0.00976,-0.10736,-0.0488,-0.03416
-0.03416,0.0244,-0.01464,0.00244,0.01952,-0.02684,0.07808,-0.05368,-0.01952,-0.10736,-0.05856,-0.0244
-0.03904,0.02684,-0.01464,0.00488,0.0244,-0.03172,0.07808,-0.05368,-0.01952,-0.10736,-0.05856,-0.0244
-0.03904,0.02928,-0.01952,0,0.01952,-0.02928,0.07808,-0.05856,-0.01952,-0.11712,-0.05856,-0.03416
-0.03904,0.02928,-0.01952,0,0.01952,-0.02928,0.07808,-0.06344,-0.01952,-0.11712,-0.05856,-0.02928
-0.03904,0.02928,-0.01952,0,0.01952,-0.02928,0.08784,-0.05368,-0.01952,-0.11712,-0.05368,-0.0244
-0.0488,0.02928,-0.00976,0.01464,0.03904,-0.04392,0.0732,-0.05368,-0.01952,-0.10736,-0.05368,-0.01464
-0.03904,0.0244,-0.00976,0.00976,0.02928,-0.03416,0.07808,-0.05856,-0.02928,-0.11712,-0.05856,-0.02928
-0.03904,0.0244,-0.00976,0.00976,0.02928,-0.03416,0.07808,-0.05856,-0.02928,-0.11712,-0.05856,-0.02928
-0.0488,0.0244,0,0.0244,0.0488,-0.0488,0.07808,-0.06832,-0.03904,-0.12688,-0.06832,-0.02928
-0.0488,0.0244,0,0.0244,0.0488,-0.0488,0.07808,-0.06832,-0.03904,-0.12688,-0.06832,-0.02928
-0.03904,0.01464,0.00976,0.02928,0.0488,-0.04392,0.07808,-0.05856,-0.02928,-0.12688,-0.06832,-0.02928
-0.03904,0.01464,0.00976,0.02928,0.0488,-0.04392,0.07808,-0.05856,-0.02928,-0.12688,-0.06832,-0.02928
-0.03904,0.01464,0.00976,0.02928,0.0488,-0.04392,0.07808,-0.05856,-0.03904,-0.12688,-0.06832,-0.02928
-0.03904,0.01464,0.00976,0.02928,0.0488,-0.04392,0.07808,-0.05856,-0.03904,-0.12688,-0.06832,-0.02928
-0.03904,0.00976,0.01952,0.03904,0.05856,-0.0488,0.06832,-0.05856,-0.03904,-0.13664,-0.06832,-0.02928
-0.03904,0.00976,0.01952,0.03904,0.05856,-0.0488,0.06832,-0.05856,-0.03904,-0.13664,-0.06832,-0.02928
-0.0488,0.01464,0.01952,0.04392,0.06832,-0.05856,0.07808,-0.06832,-0.0488,-0.13664,-0.07808,-0.02928
-0.0488,0.01464,0.01952,0.04392,0.06832,-0.05856,0.07808,-0.06832,-0.0488,-0.13664,-0.07808,-0.02928
-0.03904,0.00488,0.02928,0.0488,0.06832,-0.05368,0.07808,-0.06832,-0.05856,-0.13664,-0.07808,-0.02928
-0.03904,0.00488,0.02928,0.0488,0.06832,-0.05368,0.07808,-0.06832,-0.05856,-0.13664,-0.07808,-0.02928
-0.0488,0.00976,0.02928,0.05368,0.07808,-0.06344,0.07808,-0.06832,-0.05856,-0.13664,-0.08784,-0.02928
-0.0488,0.00976,0.02928,0.05368,0.07808,-0.06344,0.07808,-0.06832,-0.05856,-0.13664,-0.08784,-0.02928
-0.05856,0.00976,0.03904,0.06832,0.0976,-0.07808,0.07808,-0.06832,-0.05856,-0.13664,-0.07808,-0.02928
-0.05856,0.00976,0.03904,0.06832,0.0976,-0.07808,0.07808,-0.06832,-0.05856,-0.13664,-0.07808,-0.02928
-0.0488,0.00488,0.03904,0.06344,0.08784,-0.06832,0.07808,-0.06832,-0.06832,-0.1464,-0.07808,-0.02928
-0.0488,0.00488,0.03904,0.06344,0.08784,-0.06832,0.07808,-0.06832,-0.06832,-0.1464,-0.07808,-0.02928
-0.0488,0,0.0488,0.0732,0.0976,-0.0732,0.06832,-0.06832,-0.06832,-0.1464,-0.08784,-0.02928
-0.0488,0,0.0488,0.0732,0.0976,-0.0732,0.06832,-0.06832,-0.06832,-0.1464,-0.08784,-0.02928
-0.0488,0,0.0488,0.0732,0.0976,-0.0732,0.07808,-0.06832,-0.06832,-0.13664,-0.07808,-0.02928
-0.0488,0,0.0488,0.0732,0.0976,-0.0732,0.07808,-0.06832,-0.06832,-0.13664,-0.07808,-0.02928
-0.0488,0,0.0488,0.0732,0.0976,-0.0732,0.07808,-0.06832,-0.06832,-0.1464,-0.08784,-0.02928
-0.0488,0,0.0488,0.0732,0.0976,-0.0732,0.07808,-0.06832,-0.06832,-0.1464,-0.08784,-0.02928
-0.03904,-0.00488,0.0488,0.06832,0.08784,-0.06344,0.06832,-0.07808,-0.06832,-0.1464,-0.07808,-0.01952
-0.03904,-0.00488,0.0488,0.06832,0.08784,-0.06344,0.06832,-0.07808,-0.06832,-0.1464,-0.07808,-0.01952
-0.0488,0,0.0488,0.0732,0.0976,-0.0732,0.07808,-0.07808,-0.07808,-0.1464,-0.08784,-0.01952
-0.0488,0,0.0488,0.0732,0.0976,-0.0732,0.07808,-0.07808,-0.07808,-0.1464,-0.08784,-0.01952
-0.0488,0,0.0488,0.0732,0.0976,-0.0732,0.06832,-0.06832,-0.07808,-0.1464,-0.07808,-0.01952
-0.0488,0,0.0488,0.0732,0.0976,-0.0732,0.06832,-0.06832,-0.07808,-0.1464,-0.07808,-0.01952
-0.03904,-0.00976,0.05856,0.07808,0.0976,-0.06832,0.06832,-0.0732,-0.06832,-0.15616,-0.08784,-0.01952
-0.03904,-0.00976,0.05856,0.07808,0.0976,-0.06832,0.06832,-0.08296,-0.06832,-0.15616,-0.08784,-0.01952
-0.0488,-0.00488,0.05856,0.08296,0.10736,-0.07808,0.07808,-0.07808,-0.07808,-0.15616,-0.08784,-0.02928
-0.0488,-0.00488,0.05856,0.08296,0.10736,-0.07808,0.07808,-0.07808,-0.07808,-0.15616,-0.08784,-0.02928
