i,aVR,ii,aVF,iii,aVL,V1,V2,V3,V4,V5,V6
-0.01464,0.02196,-0.02928,-0.02196,-0.01464,0,-0.01464,-0.0488,-0.06832,-0.06832,-0.03416,-0.02928
-0.00488,0.01708,-0.02928,-0.02684,-0.0244,0.00976,-0.00488,-0.0488,-0.06832,-0.06832,-0.03416,-0.02928
-0.00976,0.0244,-0.03904,-0.03416,-0.02928,0.00976,-0.00488,-0.0488,-0.06832,-0.06832,-0.03904,-0.02928
-0.00976,0.02684,-0.04392,-0.03904,-0.03416,0.0122,-0.00488,-0.0488,-0.0732,-0.06344,-0.03904,-0.02928
-0.00976,0.02684,-0.04392,-0.03904,-0.03416,0.0122,-0.00488,-0.0488,-0.0732,-0.06344,-0.03904,-0.03416
-0.00976,0.02684,-0.04392,-0.03904,-0.03416,0.0122,-0.00488,-0.05368,-0.08296,-0.0732,-0.03904,-0.03904
-0.00976,0.02684,-0.04392,-0.03904,-0.03416,0.0122,-0.00488,-0.05368,-0.07808,-0.0732,-0.03904,-0.03904
-0.01952,0.02684,-0.03416,-0.0244,-0.01464,-0.00244,-0.00488,-0.05368,-0.07808,-0.07808,-0.05368,-0.0488
-0.0244,0.02928,-0.03416,-0.02196,-0.00976,-0.00732,-0.00488,-0.0488,-0.07808,-0.07808,-0.05368,-0.04392
-0.01464,0.02928,-0.04392,-0.0366,-0.02928,0.00732,0,-0.05368,-0.08784,-0.07808,-0.04392,-0.0488
-0.00976,0.02928,-0.0488,-0.04392,-0.03904,0.01464,0,-0.05368,-0.08784,-0.07808,-0.0488,-0.0488
-0.00976,0.02928,-0.0488,-0.04392,-0.03904,0.01464,-0.00488,-0.03904,-0.07808,-0.06832,-0.04392,-0.03904
-0.01464,0.03172,-0.0488,-0.04148,-0.03416,0.00976,-0.00488,-0.04392,-0.0732,-0.06832,-0.04392,-0.03416
-0.01464,0.03172,-0.0488,-0.04148,-0.03416,0.00976,0.00488,-0.05368,-0.08296,-0.07808,-0.05368,-0.04392
-0.01464,0.03172,-0.0488,-0.04148,-0.03416,0.00976,0.00488,-0.05368,-0.08296,-0.07808,-0.05368,-0.04392
-0.0244,0.04148,-0.05856,-0.04636,-0.03416,0.00488,-0.00488,-0.06344,-0.08296,-0.07808,-0.06344,-0.04392
-0.0244,0.04148,-0.05856,-0.04636,-0.03416,0.00488,-0.00488,-0.06344,-0.08784,-0.07808,-0.06344,-0.04392
-0.0244,0.03416,-0.04392,-0.03172,-0.01952,-0.00244,0.00488,-0.05368,-0.08784,-0.07808,-0.05368,-0.04392
-0.01952,0.03416,-0.0488,-0.03904,-0.02928,0.00488,0.00488,-0.05368,-0.08784,-0.07808,-0.05368,-0.04392
-0.01952,0.03416,-0.0488,-0.03904,-0.02928,0.00488,0.00488,-0.0488,-0.07808,-0.07808,-0.05368,-0.04392
-0.0244,0.03904,-0.05368,-0.04148,-0.02928,0.00244,0.00488,-0.04392,-0.0732,-0.07808,-0.05856,-0.04392
-0.0244,0.04148,-0.05856,-0.04636,-0.03416,0.00488,0.00488,-0.05368,-0.08296,-0.07808,-0.0488,-0.0488
-0.0244,0.04148,-0.05856,-0.04636,-0.03416,0.00488,0.00488,-0.05368,-0.08784,-0.08296,-0.0488,-0.0488
-0.0244,0.04392,-0.06344,-0.05124,-0.03904,0.00732,0.00488,-0.05368,-0.08784,-0.08296,-0.05856,-0.0488
-0.0244,0.04392,-0.06344,-0.05124,-0.03904,0.00732,0.00488,-0.05368,-0.08784,-0.08296,-0.05368,-0.04392
-0.0244,0.0366,-0.0488,-0.0366,-0.0244,0,0.00488,-0.05368,-0.08784,-0.07808,-0.05368,-0.05368
-0.0244,0.0366,-0.0488,-0.0366,-0.0244,0,0.00488,-0.05368,-0.08784,-0.07808,-0.05368,-0.05368
-0.01464,0.02684,-0.03904,-0.03172,-0.0244,0.00488,0.00488,-0.05368,-0.08296,-0.07808,-0.05368,-0.05856
-0.01464,0.03172,-0.0488,-0.04148,-0.03416,0.00976,0.00488,-0.05368,-0.08784,-0.07808,-0.05368,-0.05368
-0.02928,0.04392,-0.05856,-0.04392,-0.02928,0,0.00488,-0.0488,-0.08784,-0.07808,-0.05368,-0.05368
-0.02928,0.04148,-0.05368,-0.03904,-0.0244,-0.00244,0.00488,-0.0488,-0.09272,-0.07808,-0.05368,-0.05368
-0.0244,0.04392,-0.06344,-0.05124,-0.03904,0.00732,0.00488,-0.0488,-0.08784,-0.08296,-0.0488,-0.04392
-0.02928,0.04636,-0.06344,-0.0488,-0.03416,0.00244,0.00488,-0.0488,-0.09272,-0.08296,-0.0488,-0.0488
-0.0244,0.0488,-0.0732,-0.061,-0.0488,0.0122,0.00488,-0.0488,-0.10248,-0.08296,-0.05856,-0.0488
-0.0244,0.0488,-0.0732,-0.061,-0.0488,0.0122,0.00488,-0.0488,-0.0976,-0.08784,-0.05856,-0.0488
-0.0244,0.04392,-0.06344,-0.05124,-0.03904,0.00732,0.00488,-0.0488,-0.0976,-0.08296,-0.05856,-0.0488
-0.0244,0.04392,-0.06344,-0.05124,-0.03904,0.00732,0.00488,-0.0488,-0.09272,-0.08296,-0.05856,-0.0488
-0.0244,0.03904,-0.05368,-0.04148,-0.02928,0.00244,0.01464,-0.0488,-0.08296,-0.07808,-0.05856,-0.0488
-0.0244,0.04148,-0.05856,-0.04636,-0.03416,0.00488,0.01464,-0.0488,-0.08296,-0.07808,-0.05856,-0.0488
-0.03416,0.0488,-0.06344,-0.04636,-0.02928,-0.00244,0.00488,-0.05856,-0.0976,-0.08296,-0.06832,-0.0488
-0.03416,0.0488,-0.06344,-0.04636,-0.02928,-0.00244,0.00488,-0.05856,-0.0976,-0.07808,-0.06832,-0.04392
-0.02928,0.04392,-0.05856,-0.04392,-0.02928,0,0.00488,-0.05856,-0.08784,-0.07808,-0.06344,-0.05368
-0.0244,0.04148,-0.05856,-0.04636,-0.03416,0.00488,0.00488,-0.05368,-0.09272,-0.07808,-0.06344,-0.05368
-0.0244,0.04392,-0.06344,-0.05124,-0.03904,0.00732,0.01464,-0.05368,-0.09272,-0.08784,-0.05856,-0.05856
-0.0244,0.04392,-0.06344,-0.05124,-0.03904,0.00732,0.01464,-0.05368,-0.09272,-0.08296,-0.05856,-0.05856
-0.03904,0.05368,-0.06832,-0.0488,-0.02928,-0.00488,0.01952,-0.04392,-0.08784,-0.0732,-0.05856,-0.05856
-0.02928,0.04392,-0.05856,-0.04392,-0.02928,0,0.00976,-0.0488,-0.08784,-0.08784,-0.05856,-0.05856
-0.02928,0.04392,-0.05856,-0.04392,-0.02928,0,0.00976,-0.0488,-0.08784,-0.07808,-0.05856,-0.05856
-0.02928,0.04392,-0.05856,-0.04392,-0.02928,0,0.00976,-0.0488,-0.08784,-0.07808,-0.05856,-0.05856
-0.03904,0.04392,-0.0488,-0.02928,-0.00976,-0.01464,0.00976,-0.0488,-0.08784,-0.08784,-0.06832,-0.05856
-0.03904,0.04392,-0.0488,-0.02928,-0.00976,-0.01464,0.00976,-0.0488,-0.08784,-0.08784,-0.06832,-0.05856
-0.02928,0.04392,-0.05856,-0.04392,-0.02928,0,0.00976,-0.0488,-0.0976,-0.08784,-0.06832,-0.05856
-0.02928,0.04392,-0.05856,-0.04392,-0.02928,0,0.00976,-0.0488,-0.0976,-0.08784,-0.06832,-0.05856
-0.02928,0.03904,-0.0488,-0.03416,-0.01952,-0.00488,0.00976,-0.05856,-0.08784,-0.08784,-0.06832,-0.05856
-0.02928,0.03904,-0.0488,-0.03416,-0.01952,-0.00488,0.00976,-0.05856,-0.08784,-0.08784,-0.06832,-0.05856
-0.02928,0.04392,-0.05856,-0.04392,-0.02928,0,0.01952,-0.0488,-0.08784,-0.07808,-0.05856,-0.05856
-0.02928,0.0488,-0.06832,-0.05368,-0.03904,0.00488,0.01952,-0.03904,-0.08784,-0.07808,-0.05856,-0.05856
-0.03904,0.05368,-0.06832,-0.0488,-0.02928,-0.00488,0.00976,-0.0488,-0.0976,-0.07808,-0.05856,-0.05856
-0.03904,0.05368,-0.06832,-0.0488,-0.02928,-0.00488,0.00976,-0.0488,-0.0976,-0.07808,-0.05856,-0.05856
-0.02928,0.04392,-0.05856,-0.04392,-0.02928,0,0.00976,-0.0488,-0.0976,-0.07808,-0.06832,-0.05856
-0.02928,0.04392,-0.05856,-0.04392,-0.02928,0,0.00976,-0.0488,-0.0976,-0.07808,-0.06832,-0.05856
-0.02928,0.0488,-0.06832,-0.05368,-0.03904,0.00488,0.00976,-0.0488,-0.0976,-0.08784,-0.06832,-0.05856
-0.02928,0.0488,-0.06832,-0.05368,-0.03904,0.00488,0.00976,-0.0488,-0.0976,-0.08784,-0.06832,-0.05856
-0.02928,0.0488,-0.06832,-0.05368,-0.03904,0.00488,0.00976,-0.0488,-0.0976,-0.08784,-0.05856,-0.05856
-0.02928,0.0488,-0.06832,-0.05368,-0.03904,0.00488,0.00976,-0.0488,-0.0976,-0.08784,-0.05856,-0.05856
-0.02928,0.04392,-0.05856,-0.04392,-0.02928,0,0.00976,-0.0488,-0.08784,-0.08784,-0.06832,-0.05856
-0.02928,0.04392,-0.05856,-0.04392,-0.02928,0,0.00976,-0.0488,-0.08784,-0.08784,-0.06832,-0.05856
-0.0244,0.03416,-0.04392,-0.03172,-0.01952,-0.00244,0.00976,-0.0488,-0.0976,-0.08784,-0.06832,-0.05856
-0.0244,0.03416,-0.04392,-0.03172,-0.01952,-0.00244,0.00976,-0.05368,-0.0976,-0.0976,-0.06832,-0.05856
-0.03416,0.04636,-0.05856,-0.04148,-0.0244,-0.00488,0.00976,-0.05368,-0.0976,-0.09272,-0.0732,-0.06832
-0.03416,0.0488,-0.06344,-0.04636,-0.02928,-0.00244,0.01464,-0.04392,-0.09272,-0.08784,-0.06832,-0.06832
-0.0244,0.0366,-0.0488,-0.0366,-0.0244,0,0.01464,-0.03904,-0.08296,-0.07808,-0.05856,-0.05368
-0.01464,0.01952,-0.0244,-0.01708,-0.00976,-0.00244,0.01952,-0.03904,-0.08296,-0.07808,-0.05856,-0.05368
-0.0244,0.0244,-0.0244,-0.0122,0,-0.0122,0.03904,-0.02928,-0.05856,-0.05856,-0.03904,-0.0488
-0.01952,0.01464,-0.00976,0,0.00976,-0.01464,0.03904,-0.02928,-0.05856,-0.05856,-0.03416,-0.04392
-0.01464,0.00244,0.00976,0.01708,0.0244,-0.01952,0.02928,-0.02928,-0.05368,-0.05368,-0.03416,-0.03416
-0.01464,0,0.01464,0.02196,0.02928,-0.02196,0.02928,-0.0244,-0.04392,-0.0488,-0.0244,-0.03416
-0.00488,-0.0122,0.02928,0.03172,0.03416,-0.01952,0.02928,-0.0244,-0.05368,-0.0488,-0.03416,-0.03416
-0.00488,-0.0122,0.02928,0.03172,0.03416,-0.01952,0.03416,-0.01464,-0.04392,-0.0488,-0.03416,-0.02928
-0.01464,-0.00244,0.01952,0.02684,0.03416,-0.0244,0.03416,-0.00976,-0.03904,-0.03416,-0.01952,-0.02928
-0.01464,-0.00488,0.0244,0.03172,0.03904,-0.02684,0.02928,-0.00976,-0.03904,-0.03416,-0.01952,-0.02928
0.00488,-0.01952,0.03416,0.03172,0.02928,-0.0122,0,-0.0488,-0.04392,-0.03904,-0.01952,-0.0244
0.00976,-0.0244,0.03904,0.03416,0.02928,-0.00976,-0.01952,-0.0732,-0.04392,-0.03904,-0.01464,-0.0244
0.01952,-0.03172,0.04392,0.03416,0.0244,-0.00244,-0.02928,-0.07808,-0.04392,-0.04392,-0.00976,-0.00976
0.02928,-0.03904,0.0488,0.03416,0.01952,0.00488,-0.03416,-0.07808,-0.04392,-0.04392,-0.00976,-0.00488
0.03416,-0.04148,0.0488,0.03172,0.01464,0.00976,-0.04392,-0.07808,-0.05856,-0.04392,-0.00976,-0.00976
0.03904,-0.04392,0.0488,0.02928,0.00976,0.01464,-0.04392,-0.08296,-0.06832,-0.0488,-0.01464,-0.01464
0.03904,-0.03172,0.0244,0.00488,-0.01464,0.02684,-0.04392,-0.07808,-0.0732,-0.05368,-0.0244,-0.01464
0.04392,-0.0366,0.02928,0.00732,-0.01464,0.02928,-0.04392,-0.07808,-0.0732,-0.0488,-0.0244,-0.01464
0.0488,-0.03416,0.01952,-0.00488,-0.02928,0.03904,-0.04392,-0.07808,-0.0732,-0.0488,-0.01464,-0.01952
0.0488,-0.02928,0.00976,-0.01464,-0.03904,0.04392,-0.04392,-0.0732,-0.06344,-0.0488,-0.00976,-0.01464
0.0488,-0.03172,0.01464,-0.00976,-0.03416,0.04148,-0.04392,-0.0732,-0.06344,-0.04392,-0.00976,-0.00488
0.03904,-0.01708,-0.00488,-0.0244,-0.04392,0.04148,-0.03904,-0.08296,-0.07808,-0.0488,-0.01952,-0.01464
0.02928,0.00732,-0.04392,-0.05856,-0.0732,0.05124,-0.02928,-0.08296,-0.09272,-0.06832,-0.03904,-0.03416
0.00976,0.02196,-0.05368,-0.05856,-0.06344,0.0366,-0.0244,-0.07808,-0.10248,-0.07808,-0.0488,-0.03904
-0.00488,0.02684,-0.0488,-0.04636,-0.04392,0.01952,-0.02928,-0.08784,-0.10736,-0.08784,-0.05856,-0.0488
-0.01952,0.0366,-0.05368,-0.04392,-0.03416,0.00732,-0.00976,-0.0732,-0.10248,-0.08296,-0.05856,-0.05856
-0.03904,0.04148,-0.04392,-0.0244,-0.00488,-0.01708,0.00488,-0.0732,-0.10736,-0.09272,-0.06832,-0.05856
-0.03904,0.04636,-0.05368,-0.03416,-0.01464,-0.0122,0.00976,-0.06832,-0.10736,-0.09272,-0.0732,-0.05856
-0.03416,0.05124,-0.06832,-0.05124,-0.03416,0,0,-0.06344,-0.10736,-0.10248,-0.0732,-0.06832
-0.03904,0.05612,-0.0732,-0.05368,-0.03416,-0.00244,0,-0.06344,-0.11224,-0.10736,-0.0732,-0.06832
-0.0244,0.05612,-0.08784,-0.07564,-0.06344,0.01952,0.00976,-0.06344,-0.11224,-0.09272,-0.0732,-0.0732
-0.02928,0.061,-0.09272,-0.07808,-0.06344,0.01708,0.01464,-0.06344,-0.11224,-0.09272,-0.0732,-0.0732
-0.0244,0.0488,-0.0732,-0.061,-0.0488,0.0122,0.01464,-0.0488,-0.11224,-0.10248,-0.07808,-0.07808
-0.02928,0.04636,-0.06344,-0.0488,-0.03416,0.00244,0.01464,-0.0488,-0.10736,-0.10248,-0.07808,-0.07808
-0.02928,0.05124,-0.0732,-0.05856,-0.04392,0.00732,0.01952,-0.0488,-0.10736,-0.0976,-0.07808,-0.0732
-0.03416,0.06588,-0.0976,-0.08052,-0.06344,0.01464,0.03416,-0.00976,-0.0976,-0.11712,-0.0976,-0.09272
-0.0488,0.07564,-0.10248,-0.07808,-0.05368,0.00244,0.06344,0.0244,-0.07808,-0.11712,-0.10736,-0.10736
-0.05856,0.08052,-0.10248,-0.0732,-0.04392,-0.00732,0.08784,0.06344,-0.0488,-0.11224,-0.11712,-0.11224
-0.06344,0.07564,-0.08784,-0.05612,-0.0244,-0.01952,0.08296,0.0488,0.02928,-0.05368,-0.07808,-0.0976
-0.0244,0.05124,-0.07808,-0.06588,-0.05368,0.01464,0.0488,0.01464,0.10736,0.02928,-0.0244,-0.0488
0.0244,0.02196,-0.06832,-0.08052,-0.09272,0.05856,0.05856,0.0976,0.27816,0.17568,0.06344,0.0244
0.11224,-0.05124,-0.00976,-0.06588,-0.122,0.11712,0.05856,0.20008,0.53192,0.3904,0.20496,0.13664
0.22448,-0.14396,0.06344,-0.0488,-0.16104,0.19276,0.03416,0.27328,0.83936,0.67832,0.3904,0.30744
0.30744,-0.27572,0.244,0.09028,-0.06344,0.18544,-0.122,0.122,1.08824,0.98088,0.64904,0.50752
0.33672,-0.3904,0.44408,0.27572,0.10736,0.11468,-0.27328,-0.11224,1.25416,1.19072,0.8296,0.66368
0.32696,-0.4392,0.55144,0.38796,0.22448,0.05124,-0.48312,-0.44896,1.03944,1.07848,0.8296,0.68808
0.2196,-0.366,0.5124,0.4026,0.2928,-0.0366,-0.59536,-0.76128,0.68808,0.75152,0.64904,0.5612
0.04392,-0.16348,0.28304,0.26108,0.23912,-0.0976,-0.5368,-0.88328,0.0488,0.16592,0.26352,0.2684
-0.08296,-0.05856,0.20008,0.24156,0.28304,-0.183,-0.53192,-1.0492,-0.55144,-0.21472,0.04392,0.08784
-0.09272,0.04148,0.00976,0.05612,0.10248,-0.0976,-0.48312,-0.94184,-0.76616,-0.38064,-0.13176,-0.06344
-0.05856,0.0732,-0.08784,-0.05856,-0.02928,-0.01464,-0.45384,-0.82472,-0.76616,-0.37088,-0.1464,-0.06344
-0.02928,0.05856,-0.08784,-0.0732,-0.05856,0.01464,-0.32696,-0.56608,-0.57096,-0.32208,-0.15128,-0.07808
-0.01952,0.0854,-0.15128,-0.14152,-0.13176,0.05612,-0.18544,-0.32208,-0.41968,-0.27816,-0.15616,-0.08784
-0.01464,0.08052,-0.1464,-0.13908,-0.13176,0.05856,-0.0976,-0.16104,-0.25864,-0.18056,-0.10736,-0.06344
-0.01464,0.06832,-0.122,-0.11468,-0.10736,0.04636,-0.06344,-0.0976,-0.18544,-0.1464,-0.10736,-0.0732
-0.00976,0.06344,-0.11712,-0.11224,-0.10736,0.0488,-0.0244,-0.0488,-0.15128,-0.12688,-0.09272,-0.06832
-0.02928,0.05612,-0.08296,-0.06832,-0.05368,0.0122,0.0244,0.00976,-0.11712,-0.11224,-0.07808,-0.06344
-0.03416,0.05124,-0.06832,-0.05124,-0.03416,0,0.01952,0.00488,-0.10248,-0.0976,-0.06344,-0.0732
-0.03416,0.05368,-0.0732,-0.05612,-0.03904,0.00244,0.01464,-0.01952,-0.08296,-0.09272,-0.06344,-0.06832
-0.03904,0.05856,-0.07808,-0.05856,-0.03904,0,0.02928,-0.00976,-0.08296,-0.0976,-0.0732,-0.06832
-0.03904,0.05856,-0.07808,-0.05856,-0.03904,0,0.03904,0.01464,-0.08296,-0.0976,-0.07808,-0.0732
-0.04392,0.05612,-0.06832,-0.04636,-0.0244,-0.00976,0.03904,0.01464,-0.09272,-0.0976,-0.06832,-0.0732
-0.04392,0.05612,-0.06832,-0.04636,-0.0244,-0.00976,0.04392,0.01464,-0.0732,-0.09272,-0.06832,-0.0732
-0.03904,0.05856,-0.07808,-0.05856,-0.03904,0,0.04392,0.0244,-0.0732,-0.08784,-0.06832,-0.0732
-0.03904,0.061,-0.08296,-0.06344,-0.04392,0.00244,0.0488,0.03416,-0.0732,-0.08784,-0.06344,-0.0732
-0.03904,0.05124,-0.06344,-0.04392,-0.0244,-0.00732,0.0488,0.03904,-0.05856,-0.07808,-0.0732,-0.0732
-0.04392,0.05612,-0.06832,-0.04636,-0.0244,-0.00976,0.05368,0.04392,-0.0488,-0.06832,-0.0732,-0.0732
-0.02928,0.0488,-0.06832,-0.05368,-0.03904,0.00488,0.05368,0.03416,-0.05368,-0.07808,-0.07808,-0.0732
-0.02928,0.0488,-0.06832,-0.05368,-0.03904,0.00488,0.05368,0.03904,-0.05368,-0.07808,-0.07808,-0.0732
-0.03904,0.05612,-0.0732,-0.05368,-0.03416,-0.00244,0.05856,0.03904,-0.03904,-0.07808,-0.06832,-0.08296
-0.03904,0.05368,-0.06832,-0.0488,-0.02928,-0.00488,0.05368,0.04392,-0.03904,-0.0732,-0.06832,-0.07808
-0.03904,0.05856,-0.07808,-0.05856,-0.03904,0,0.05856,0.0488,-0.03416,-0.05856,-0.06344,-0.06832
-0.03904,0.05124,-0.06344,-0.04392,-0.0244,-0.00732,0.05856,0.0488,-0.02928,-0.05856,-0.06344,-0.06832
-0.03416,0.04392,-0.05368,-0.0366,-0.01952,-0.00732,0.05856,0.05856,-0.0244,-0.05368,-0.05368,-0.06832
-0.03416,0.04392,-0.05368,-0.0366,-0.01952,-0.00732,0.05856,0.05856,-0.01952,-0.0488,-0.05368,-0.06344
-0.03416,0.0488,-0.06344,-0.04636,-0.02928,-0.00244,0.06344,0.06344,-0.01464,-0.04392,-0.05856,-0.06344
-0.02928,0.04636,-0.06344,-0.0488,-0.03416,0.00244,0.06344,0.06832,0,-0.03904,-0.05368,-0.05856
-0.02928,0.03904,-0.0488,-0.03416,-0.01952,-0.00488,0.06344,0.06344,-0.00976,-0.03416,-0.0488,-0.06832
-0.02928,0.03904,-0.0488,-0.03416,-0.01952,-0.00488,0.06344,0.06832,-0.00488,-0.03416,-0.0488,-0.06344
-0.02928,0.04148,-0.05368,-0.03904,-0.0244,-0.00244,0.06344,0.08296,0.00976,-0.0244,-0.04392,-0.06344
-0.02928,0.03904,-0.0488,-0.03416,-0.01952,-0.00488,0.06344,0.08296,0.01464,-0.0244,-0.04392,-0.05856
-0.02928,0.03904,-0.0488,-0.03416,-0.01952,-0.00488,0.06344,0.08784,0.0244,-0.01464,-0.03904,-0.0488
-0.0244,0.0366,-0.0488,-0.0366,-0.0244,0,0.06344,0.09272,0.03416,-0.00488,-0.03904,-0.04392
-0.01952,0.03172,-0.04392,-0.03416,-0.0244,0.00244,0.06832,0.10248,0.04392,0,-0.03416,-0.04392
-0.01952,0.02928,-0.03904,-0.02928,-0.01952,0,0.06832,0.11712,0.05368,0.00976,-0.02928,-0.03904
-0.01464,0.0244,-0.03416,-0.02684,-0.01952,0.00244,0.07808,0.11224,0.06344,0.00976,-0.01464,-0.03904
-0.00976,0.02196,-0.03416,-0.02928,-0.0244,0.00732,0.07808,0.12688,0.0732,0.01952,-0.01464,-0.03416
-0.01464,0.02196,-0.02928,-0.02196,-0.01464,0,0.07808,0.14152,0.08296,0.0244,-0.00488,-0.0244
-0.01464,0.01708,-0.01952,-0.0122,-0.00488,-0.00488,0.07808,0.15128,0.09272,0.02928,-0.00488,-0.01952
-0.00488,0.0122,-0.01952,-0.01708,-0.01464,0.00488,0.07808,0.16592,0.10248,0.04392,-0.00488,-0.0244
0,0.00976,-0.01952,-0.01952,-0.01952,0.00976,0.08296,0.17568,0.11712,0.05368,-0.00488,-0.01952
0.00488,0.00488,-0.01464,-0.01708,-0.01952,0.0122,0.0732,0.19032,0.13176,0.05856,0.01464,-0.01464
0.00976,0,-0.00976,-0.01464,-0.01952,0.01464,0.0732,0.20008,0.1464,0.06832,0.01464,-0.00976
0.01464,-0.00976,0.00488,-0.00244,-0.00976,0.0122,0.0732,0.21472,0.16104,0.07808,0.01464,-0.00976
0.01464,-0.00976,0.00488,-0.00244,-0.00976,0.0122,0.07808,0.22936,0.18056,0.08784,0.0244,0
0.02928,-0.02196,0.01464,0,-0.01464,0.02196,0.08784,0.25864,0.20008,0.10248,0.03416,0.00976
0.03416,-0.0244,0.01464,-0.00244,-0.01952,0.02684,0.08784,0.28304,0.22448,0.11712,0.04392,0.01952
0.03416,-0.03172,0.02928,0.0122,-0.00488,0.01952,0.08784,0.2928,0.24888,0.122,0.04392,0.01464
0.04392,-0.04392,0.04392,0.02196,0,0.02196,0.08784,0.30744,0.26352,0.13664,0.05368,0.01952
0.03904,-0.03904,0.03904,0.01952,0,0.01952,0.09272,0.3416,0.28792,0.16104,0.0732,0.02928
0.04392,-0.04392,0.04392,0.02196,0,0.02196,0.10736,0.36112,0.31232,0.1708,0.08296,0.0488
0.05856,-0.05368,0.0488,0.01952,-0.00976,0.03416,0.11712,0.38064,0.3416,0.18544,0.09272,0.0488
0.06344,-0.05612,0.0488,0.01708,-0.01464,0.03904,0.11712,0.39528,0.366,0.20008,0.0976,0.06344
0.06832,-0.061,0.05368,0.01952,-0.01464,0.04148,0.11224,0.40016,0.37576,0.20984,0.09272,0.05368
0.0732,-0.06832,0.06344,0.02684,-0.00976,0.04148,0.11712,0.4148,0.39528,0.2196,0.10248,0.05856
0.06832,-0.06832,0.06832,0.03416,0,0.03416,0.11712,0.43432,0.40992,0.22448,0.11224,0.0732
0.06832,-0.07076,0.0732,0.03904,0.00488,0.03172,0.12688,0.44408,0.41968,0.23424,0.12688,0.07808
0.06832,-0.0732,0.07808,0.04392,0.00976,0.02928,0.12688,0.44896,0.43432,0.244,0.12688,0.0732
0.06832,-0.07564,0.08296,0.0488,0.01464,0.02684,0.122,0.45384,0.44408,0.24888,0.12688,0.0732
0.07808,-0.07564,0.0732,0.03416,-0.00488,0.04148,0.13176,0.45872,0.45384,0.25864,0.12688,0.0732
0.07808,-0.08052,0.08296,0.04392,0.00488,0.0366,0.13176,0.45872,0.45872,0.25864,0.13176,0.0732
0.07808,-0.08052,0.08296,0.04392,0.00488,0.0366,0.13176,0.4392,0.44896,0.24888,0.122,0.0732
0.07808,-0.08296,0.08784,0.0488,0.00976,0.03416,0.13664,0.42944,0.44408,0.24888,0.11712,0.0732
0.06832,-0.07808,0.08784,0.05368,0.01952,0.0244,0.12688,0.40504,0.4392,0.24888,0.11712,0.0732
0.06344,-0.07564,0.08784,0.05612,0.0244,0.01952,0.11712,0.3904,0.42456,0.244,0.11224,0.0732
0.0732,-0.07808,0.08296,0.04636,0.00976,0.03172,0.11712,0.366,0.40016,0.23424,0.122,0.07808
0.05856,-0.06832,0.07808,0.0488,0.01952,0.01952,0.10736,0.33672,0.38064,0.22936,0.122,0.07808
0.0488,-0.06344,0.07808,0.05368,0.02928,0.00976,0.0976,0.29768,0.35624,0.2196,0.11224,0.06832
0.04392,-0.05124,0.05856,0.0366,0.01464,0.01464,0.08784,0.2684,0.3172,0.20008,0.10248,0.06344
0.03416,-0.0488,0.06344,0.04636,0.02928,0.00244,0.07808,0.22936,0.27816,0.17568,0.08784,0.0488
0.02928,-0.04636,0.06344,0.0488,0.03416,-0.00244,0.0732,0.1952,0.23912,0.16104,0.08296,0.03904
0.03416,-0.04636,0.05856,0.04148,0.0244,0.00488,0.06344,0.16592,0.20496,0.13176,0.06832,0.04392
0.0244,-0.03416,0.04392,0.03172,0.01952,0.00244,0.05856,0.14152,0.17568,0.11224,0.05856,0.02928
0.00976,-0.0244,0.03904,0.03416,0.02928,-0.00976,0.0488,0.10736,0.13664,0.10248,0.03904,0.00488
0.00488,-0.01708,0.02928,0.02684,0.0244,-0.00976,0.03904,0.09272,0.11224,0.08296,0.01952,0.00488
0,-0.01708,0.03416,0.03416,0.03416,-0.01708,0.03416,0.0732,0.08784,0.06832,0.0244,-0.00488
-0.00976,-0.00488,0.01952,0.0244,0.02928,-0.01952,0.03416,0.05856,0.05856,0.0488,0.00976,-0.00976
-0.00976,-0.00488,0.01952,0.0244,0.02928,-0.01952,0.0244,0.03416,0.03416,0.03416,0.00488,-0.0244
-0.01952,0.00488,0.00976,0.01952,0.02928,-0.0244,0.02928,0.0244,0.01952,0.0244,-0.00976,-0.02928
-0.0244,0.01464,-0.00488,0.00732,0.01952,-0.02196,0.03416,0.0244,0,0.01464,-0.00976,-0.02928
-0.0244,0.01708,-0.00976,0.00244,0.01464,-0.01952,0.03416,0.01464,-0.01464,0.00976,-0.01464,-0.03416
-0.0244,0.0122,0,0.0122,0.0244,-0.0244,0.0244,0.00488,-0.01952,0,-0.0244,-0.03904
-0.02928,0.02196,-0.01464,0,0.01464,-0.02196,0.0244,-0.00488,-0.02928,-0.00976,-0.02928,-0.04392
-0.03416,0.02928,-0.0244,-0.00732,0.00976,-0.02196,0.01952,0.00488,-0.03904,-0.0244,-0.03904,-0.04392
-0.03416,0.02928,-0.0244,-0.00732,0.00976,-0.02196,0.01464,-0.00488,-0.0488,-0.02928,-0.04392,-0.0488
-0.04392,0.04392,-0.04392,-0.02196,0,-0.02196,0.0244,-0.01464,-0.0488,-0.01952,-0.03416,-0.0488
-0.04392,0.04148,-0.03904,-0.01708,0.00488,-0.0244,0.0244,-0.01952,-0.05856,-0.0244,-0.04392,-0.0488
-0.03416,0.03416,-0.03416,-0.01708,0,-0.01708,0.01464,-0.00976,-0.05856,-0.03416,-0.05368,-0.05368
-0.03416,0.03172,-0.02928,-0.0122,0.00488,-0.01952,0.01464,-0.00976,-0.05856,-0.03416,-0.05368,-0.05368
-0.03416,0.03416,-0.03416,-0.01708,0,-0.01708,0.0244,-0.01952,-0.05856,-0.03904,-0.03904,-0.05368
-0.03416,0.03416,-0.03416,-0.01708,0,-0.01708,0.0244,-0.01952,-0.06344,-0.03904,-0.03904,-0.0488
-0.03416,0.03416,-0.03416,-0.01708,0,-0.01708,0.01464,-0.01952,-0.06344,-0.03904,-0.0488,-0.0488
-0.03416,0.03172,-0.02928,-0.0122,0.00488,-0.01952,0.01464,-0.01952,-0.06344,-0.03416,-0.0488,-0.05368
-0.03416,0.02684,-0.01952,-0.00244,0.01464,-0.0244,0.01464,-0.01952,-0.06344,-0.03416,-0.03904,-0.0488
-0.03416,0.02684,-0.01952,-0.00244,0.01464,-0.0244,0.01464,-0.01952,-0.06344,-0.03416,-0.03904,-0.0488
-0.02928,0.02928,-0.02928,-0.01464,0,-0.01464,0.01464,-0.01952,-0.06344,-0.03416,-0.03904,-0.05368
-0.02928,0.03172,-0.03416,-0.01952,-0.00488,-0.0122,0.01464,-0.01464,-0.05856,-0.02928,-0.03416,-0.05368
-0.03416,0.0366,-0.03904,-0.02196,-0.00488,-0.01464,0.01464,-0.01952,-0.0488,-0.02928,-0.03416,-0.05368
-0.02928,0.03416,-0.03904,-0.0244,-0.00976,-0.00976,0.01464,-0.01464,-0.0488,-0.02928,-0.03416,-0.05368
-0.03416,0.03416,-0.03416,-0.01708,0,-0.01708,0.01464,-0.01952,-0.05856,-0.0244,-0.02928,-0.04392
-0.03416,0.02928,-0.0244,-0.00732,0.00976,-0.02196,0.00976,-0.01952,-0.05856,-0.0244,-0.02928,-0.04392
-0.0244,0.02196,-0.01952,-0.00732,0.00488,-0.01464,0.00976,-0.01952,-0.05856,-0.01952,-0.01952,-0.03416
-0.0244,0.02196,-0.01952,-0.00732,0.00488,-0.01464,0.00976,-0.01952,-0.05856,-0.01464,-0.01952,-0.03416
-0.02928,0.01952,-0.00976,0.00488,0.01952,-0.0244,0.00976,-0.01952,-0.05856,-0.01464,-0.01952,-0.04392
-0.02928,0.0244,-0.01952,-0.00488,0.00976,-0.01952,0.00488,-0.01464,-0.05856,-0.01464,-0.02928,-0.04392
-0.01952,0.01952,-0.01952,-0.00976,0,-0.00976,0.00976,-0.02928,-0.06832,-0.01952,-0.03416,-0.04392
-0.0244,0.01952,-0.01464,-0.00244,0.00976,-0.01708,0.00488,-0.02928,-0.06832,-0.0244,-0.03416,-0.03904
-0.0244,0.0244,-0.0244,-0.0122,0,-0.0122,0.00488,-0.01952,-0.06344,-0.0244,-0.0244,-0.03904
-0.01952,0.02196,-0.0244,-0.01464,-0.00488,-0.00732,0.00488,-0.01952,-0.05856,-0.01952,-0.0244,-0.03904
-0.01952,0.02196,-0.0244,-0.01464,-0.00488,-0.00732,0.00488,-0.01952,-0.05856,-0.00976,-0.0244,-0.03904
-0.0244,0.02196,-0.01952,-0.00732,0.00488,-0.01464,0.00488,-0.0244,-0.06344,-0.00976,-0.0244,-0.03904
-0.01952,0.02196,-0.0244,-0.01464,-0.00488,-0.00732,0.01464,-0.01952,-0.06344,-0.01464,-0.0244,-0.03416
-0.01952,0.0244,-0.02928,-0.01952,-0.00976,-0.00488,0.01464,-0.01952,-0.06344,-0.01464,-0.02928,-0.03416
-0.02928,0.0244,-0.01952,-0.00488,0.00976,-0.01952,0.00488,-0.0244,-0.06344,-0.0244,-0.02928,-0.04392
-0.02928,0.0244,-0.01952,-0.00488,0.00976,-0.01952,0,-0.0244,-0.06832,-0.02928,-0.03416,-0.0488
-0.0244,0.02196,-0.01952,-0.00732,0.00488,-0.01464,-0.00488,-0.03416,-0.0732,-0.02928,-0.04392,-0.0488
-0.0244,0.0244,-0.0244,-0.0122,0,-0.0122,-0.00488,-0.03416,-0.0732,-0.03416,-0.04392,-0.0488
-0.02928,0.03416,-0.03904,-0.0244,-0.00976,-0.00976,0.00488,-0.02928,-0.0732,-0.03416,-0.03416,-0.0488
-0.03416,0.0366,-0.03904,-0.02196,-0.00488,-0.01464,0.00976,-0.0244,-0.0732,-0.03416,-0.03904,-0.05368
-0.03904,0.03172,-0.0244,-0.00488,0.01464,-0.02684,0.00488,-0.01952,-0.07808,-0.02928,-0.03904,-0.05368
-0.03904,0.0366,-0.03416,-0.01464,0.00488,-0.02196,0.00488,-0.01952,-0.07808,-0.02928,-0.03904,-0.05368
-0.03904,0.03904,-0.03904,-0.01952,0,-0.01952,0.00488,-0.02928,-0.08784,-0.03416,-0.03904,-0.05368
-0.03904,0.03904,-0.03904,-0.01952,0,-0.01952,0.00488,-0.03416,-0.09272,-0.03416,-0.04392,-0.06344
-0.04392,0.04148,-0.03904,-0.01708,0.00488,-0.0244,0.00488,-0.03416,-0.09272,-0.03416,-0.04392,-0.05856
-0.04392,0.04636,-0.0488,-0.02684,-0.00488,-0.01952,0.00488,-0.03416,-0.09272,-0.03904,-0.0488,-0.06344
-0.03416,0.03416,-0.03416,-0.01708,0,-0.01708,0.00488,-0.03416,-0.09272,-0.0488,-0.0488,-0.06344
-0.03416,0.0366,-0.03904,-0.02196,-0.00488,-0.01464,0.00488,-0.03416,-0.10248,-0.0488,-0.0488,-0.06344
-0.03416,0.0366,-0.03904,-0.02196,-0.00488,-0.01464,-0.00488,-0.03904,-0.10248,-0.05368,-0.0488,-0.06344
-0.03416,0.0366,-0.03904,-0.02196,-0.00488,-0.01464,-0.00488,-0.03904,-0.10248,-0.05368,-0.0488,-0.06344
-0.03904,0.03904,-0.03904,-0.01952,0,-0.01952,-0.00488,-0.03904,-0.0976,-0.04392,-0.05368,-0.05856
-0.04392,0.04148,-0.03904,-0.01708,0.00488,-0.0244,-0.00488,-0.03904,-0.0976,-0.0488,-0.05368,-0.05856
-0.04392,0.04148,-0.03904,-0.01708,0.00488,-0.0244,0.00488,-0.03904,-0.10736,-0.0488,-0.05368,-0.06832
-0.0488,0.0488,-0.0488,-0.0244,0,-0.0244,0.00488,-0.03904,-0.10736,-0.0488,-0.05368,-0.06832
-0.0488,0.04636,-0.04392,-0.01952,0.00488,-0.02684,0.00488,-0.03904,-0.10248,-0.04392,-0.05856,-0.05856
-0.0488,0.04636,-0.04392,-0.01952,0.00488,-0.02684,0.00488,-0.03904,-0.10248,-0.04392,-0.05856,-0.06344
-0.03904,0.0488,-0.05856,-0.03904,-0.01952,-0.00976,0.00488,-0.03416,-0.11224,-0.05368,-0.05856,-0.0732
-0.03904,0.05368,-0.06832,-0.0488,-0.02928,-0.00488,0.00488,-0.03416,-0.10736,-0.05368,-0.05856,-0.07808
-0.0488,0.05612,-0.06344,-0.03904,-0.01464,-0.01708,0.00488,-0.04392,-0.10736,-0.05368,-0.05856,-0.06832
-0.0488,0.05612,-0.06344,-0.03904,-0.01464,-0.01708,0.00488,-0.03904,-0.10736,-0.05856,-0.06344,-0.06832
-0.04392,0.05124,-0.05856,-0.0366,-0.01464,-0.01464,-0.00488,-0.04392,-0.11712,-0.05856,-0.06344,-0.0732
-0.04392,0.0488,-0.05368,-0.03172,-0.00976,-0.01708,-0.00976,-0.04392,-0.11712,-0.05856,-0.06832,-0.07808
-0.03904,0.04636,-0.05368,-0.03416,-0.01464,-0.0122,0.00488,-0.02928,-0.11712,-0.05856,-0.06344,-0.06832
-0.03904,0.05124,-0.06344,-0.04392,-0.0244,-0.00732,0.00488,-0.03416,-0.11224,-0.05856,-0.06344,-0.06344
-0.03416,0.04636,-0.05856,-0.04148,-0.0244,-0.00488,-0.00488,-0.04392,-0.11224,-0.05856,-0.06344,-0.06344
-0.03416,0.04636,-0.05856,-0.04148,-0.0244,-0.00488,-0.00488,-0.04392,-0.11224,-0.05856,-0.06344,-0.06344
-0.03416,0.04636,-0.05856,-0.04148,-0.0244,-0.00488,0.00488,-0.04392,-0.10248,-0.05856,-0.05368,-0.06344
-0.03416,0.04636,-0.05856,-0.04148,-0.0244,-0.00488,0.00488,-0.04392,-0.10736,-0.05856,-0.05368,-0.06344
-0.04392,0.05612,-0.06832,-0.04636,-0.0244,-0.00976,0.01464,-0.03416,-0.10736,-0.0488,-0.05368,-0.06344
-0.04392,0.05368,-0.06344,-0.04148,-0.01952,-0.0122,0.01464,-0.03416,-0.10736,-0.0488,-0.05368,-0.06344
-0.03904,0.0488,-0.05856,-0.03904,-0.01952,-0.00976,0.00976,-0.03904,-0.11712,-0.05856,-0.06344,-0.06344
-0.04392,0.05368,-0.06344,-0.04148,-0.01952,-0.0122,0,-0.03416,-0.11712,-0.05856,-0.06344,-0.06344
-0.04392,0.05124,-0.05856,-0.0366,-0.01464,-0.01464,0.00488,-0.04392,-0.11224,-0.05856,-0.05856,-0.0732
-0.04392,0.05124,-0.05856,-0.0366,-0.01464,-0.01464,0.00488,-0.04392,-0.11224,-0.05856,-0.05856,-0.07808
-0.03416,0.0488,-0.06344,-0.04636,-0.02928,-0.00244,0.00488,-0.04392,-0.11712,-0.05368,-0.05856,-0.06832
-0.03416,0.0488,-0.06344,-0.04636,-0.02928,-0.00244,0.00488,-0.04392,-0.11712,-0.05368,-0.05856,-0.06832
-0.04392,0.05124,-0.05856,-0.0366,-0.01464,-0.01464,0.00488,-0.04392,-0.11712,-0.05856,-0.06344,-0.06344
-0.04392,0.05124,-0.05856,-0.0366,-0.01464,-0.01464,0.00488,-0.04392,-0.11712,-0.05856,-0.06344,-0.06344
-0.03416,0.05124,-0.06832,-0.05124,-0.03416,0,0.00488,-0.04392,-0.11224,-0.05856,-0.05368,-0.06344
-0.03416,0.05124,-0.06832,-0.05124,-0.03416,0,0.00488,-0.04392,-0.11712,-0.05856,-0.05368,-0.06832
-0.03416,0.05368,-0.0732,-0.05612,-0.03904,0.00244,-0.00488,-0.04392,-0.11712,-0.06832,-0.06344,-0.06344
-0.03904,0.05124,-0.06344,-0.04392,-0.0244,-0.00732,-0.00488,-0.0488,-0.122,-0.06832,-0.06344,-0.06344
-0.03416,0.0488,-0.06344,-0.04636,-0.02928,-0.00244,0.00488,-0.0488,-0.11712,-0.06344,-0.05856,-0.06344
-0.03904,0.05124,-0.06344,-0.04392,-0.0244,-0.00732,0.00488,-0.0488,-0.122,-0.06344,-0.05856,-0.06832
-0.03416,0.0488,-0.06344,-0.04636,-0.02928,-0.00244,0.00488,-0.0488,-0.122,-0.05368,-0.05856,-0.06832
-0.03416,0.0488,-0.06344,-0.04636,-0.02928,-0.00244,0.00488,-0.0488,-0.11712,-0.05856,-0.05856,-0.06832
-0.03416,0.05368,-0.0732,-0.05612,-0.03904,0.00244,0.00488,-0.0488,-0.11712,-0.05856,-0.06832,-0.06832
-0.03416,0.05368,-0.0732,-0.05612,-0.03904,0.00244,0.00488,-0.0488,-0.11224,-0.05368,-0.06832,-0.06832
-0.03416,0.05124,-0.06832,-0.05124,-0.03416,0,-0.00488,-0.0488,-0.11224,-0.05368,-0.05856,-0.06832
-0.03416,0.0488,-0.06344,-0.04636,-0.02928,-0.00244,-0.00488,-0.0488,-0.11224,-0.06344,-0.05856,-0.06832
-0.03416,0.04392,-0.05368,-0.0366,-0.01952,-0.00732,0.00488,-0.0488,-0.11712,-0.05856,-0.05856,-0.06832
-0.03416,0.04392,-0.05368,-0.0366,-0.01952,-0.00732,0.00488,-0.0488,-0.11712,-0.06344,-0.05856,-0.06344
-0.03904,0.04636,-0.05368,-0.03416,-0.01464,-0.0122,-0.00488,-0.0488,-0.11712,-0.05856,-0.06344,-0.06344
-0.03416,0.04636,-0.05856,-0.04148,-0.0244,-0.00488,-0.00488,-0.04392,-0.11712,-0.05856,-0.06344,-0.06344
-0.03416,0.04636,-0.05856,-0.04148,-0.0244,-0.00488,-0.00488,-0.03416,-0.122,-0.0488,-0.05856,-0.06344
-0.03416,0.04392,-0.05368,-0.0366,-0.01952,-0.00732,-0.00488,-0.03416,-0.122,-0.05856,-0.05856,-0.06832
-0.03416,0.0488,-0.06344,-0.04636,-0.02928,-0.00244,0.00488,-0.04392,-0.11224,-0.06344,-0.05856,-0.05856
-0.03904,0.03416,-0.02928,-0.00976,0.00976,-0.0244,-0.00976,-0.05368,-0.122,-0.06344,-0.06832,-0.06832
-0.02928,0.0366,-0.04392,-0.02928,-0.01464,-0.00732,0,-0.0488,-0.11712,-0.0488,-0.0488,-0.05856
-0.02928,0.04148,-0.05368,-0.03904,-0.0244,-0.00244,0,-0.0488,-0.11712,-0.0488,-0.0488,-0.05856
-0.03904,0.05368,-0.06832,-0.0488,-0.02928,-0.00488,0,-0.0488,-0.11712,-0.05856,-0.05856,-0.05856
-0.03904,0.05368,-0.06832,-0.0488,-0.02928,-0.00488,0,-0.0488,-0.11712,-0.05856,-0.05856,-0.05856
-0.03904,0.05368,-0.06832,-0.0488,-0.02928,-0.00488,0,-0.0488,-0.12688,-0.06832,-0.05856,-0.05856
-0.03904,0.05368,-0.06832,-0.0488,-0.02928,-0.00488,0,-0.0488,-0.12688,-0.06832,-0.05856,-0.05856
-0.02928,0.0488,-0.06832,-0.05368,-0.03904,0.00488,0,-0.0488,-0.12688,-0.05856,-0.06832,-0.06832
-0.02928,0.0488,-0.06832,-0.05368,-0.03904,0.00488,0,-0.0488,-0.12688,-0.05856,-0.06832,-0.06832
-0.03904,0.0488,-0.05856,-0.03904,-0.01952,-0.00976,0,-0.0488,-0.11712,-0.05856,-0.06832,-0.06832
-0.03904,0.0488,-0.05856,-0.03904,-0.01952,-0.00976,0,-0.0488,-0.11712,-0.05856,-0.06832,-0.06832
-0.03904,0.0488,-0.05856,-0.03904,-0.01952,-0.00976,0,-0.0488,-0.12688,-0.05856,-0.05856,-0.06832
-0.03904,0.0488,-0.05856,-0.03904,-0.01952,-0.00976,0,-0.0488,-0.12688,-0.05856,-0.05856,-0.06832
-0.03904,0.05368,-0.06832,-0.0488,-0.02928,-0.00488,0,-0.0488,-0.11712,-0.05856,-0.05856,-0.05856
-0.03904,0.05368,-0.06832,-0.0488,-0.02928,-0.00488,0,-0.0488,-0.11712,-0.05856,-0.05856,-0.05856
-0.03904,0.0488,-0.05856,-0.03904,-0.01952,-0.00976,-0.00976,-0.0488,-0.11712,-0.05856,-0.0488,-0.05856
-0.03904,0.0488,-0.05856,-0.03904,-0.01952,-0.00976,-0.00976,-0.0488,-0.11712,-0.05856,-0.0488,-0.05856
-0.02928,0.04636,-0.06344,-0.0488,-0.03416,0.00244,0,-0.0488,-0.12688,-0.05856,-0.05856,-0.06832
-0.02928,0.05124,-0.0732,-0.05856,-0.04392,0.00732,0,-0.0488,-0.12688,-0.05856,-0.05856,-0.06832
-0.03904,0.05856,-0.07808,-0.05856,-0.03904,0,0,-0.0488,-0.11712,-0.05856,-0.05856,-0.06832
-0.03904,0.05856,-0.07808,-0.05856,-0.03904,0,0,-0.0488,-0.11712,-0.05856,-0.05856,-0.06832
-0.03904,0.05612,-0.0732,-0.05368,-0.03416,-0.00244,0,-0.0488,-0.11712,-0.05856,-0.05856,-0.06832
-0.03904,0.05124,-0.06344,-0.04392,-0.0244,-0.00732,0,-0.0488,-0.11712,-0.05856,-0.05856,-0.06832
-0.03904,0.05368,-0.06832,-0.0488,-0.02928,-0.00488,0,-0.0488,-0.11712,-0.05856,-0.0488,-0.05856
-0.03904,0.05368,-0.06832,-0.0488,-0.02928,-0.00488,0,-0.0488,-0.11712,-0.05856,-0.0488,-0.05856
-0.03904,0.0488,-0.05856,-0.03904,-0.01952,-0.00976,-0.00976,-0.0488,-0.12688,-0.0488,-0.0488,-0.05856
-0.03904,0.0488,-0.05856,-0.03904,-0.01952,-0.00976,-0.00976,-0.0488,-0.12688,-0.0488,-0.0488,-0.05856
-0.0244,0.03904,-0.05368,-0.04148,-0.02928,0.00244,-0.00976,-0.04392,-0.12688,-0.05856,-0.0488,-0.05856
-0.0244,0.03904,-0.05368,-0.04148,-0.02928,0.00244,-0.00976,-0.04392,-0.12688,-0.06832,-0.05368,-0.05856
-0.0244,0.04148,-0.05856,-0.04636,-0.03416,0.00488,0.00488,-0.0488,-0.11712,-0.06344,-0.0488,-0.0488
-0.0244,0.0366,-0.0488,-0.0366,-0.0244,0,0.00488,-0.04392,-0.11224,-0.0488,-0.04392,-0.04392
-0.01464,0.03172,-0.0488,-0.04148,-0.03416,0.00976,0,-0.03904,-0.11224,-0.0488,-0.03904,-0.04392
-0.01464,0.02928,-0.04392,-0.0366,-0.02928,0.00732,0.00976,-0.02928,-0.10736,-0.03904,-0.03904,-0.03904
-0.01464,0.02196,-0.02928,-0.02196,-0.01464,0,0.01952,-0.0244,-0.08784,-0.02928,-0.02928,-0.03416
-0.01952,0.01708,-0.01464,-0.00488,0.00488,-0.0122,0.01952,-0.01464,-0.08784,-0.0244,-0.0244,-0.03416
-0.01464,0.00976,-0.00488,0.00244,0.00976,-0.0122,0.01952,-0.01952,-0.0732,-0.00976,-0.01952,-0.03416
-0.01464,0.00488,0.00488,0.0122,0.01952,-0.01708,0.01952,-0.01464,-0.06344,-0.00976,-0.01464,-0.03416
0.00488,-0.00732,0.00976,0.00732,0.00488,0,0.00976,-0.01952,-0.06344,-0.00976,-0.0244,-0.01952
0.00488,-0.00732,0.00976,0.00732,0.00488,0,0.01464,-0.00976,-0.06344,-0.00488,-0.01952,-0.01952
-0.00488,0.00244,0,0.00244,0.00488,-0.00488,0.0244,-0.00488,-0.05856,-0.00488,-0.00976,-0.01952
0,-0.00244,0.00488,0.00488,0.00488,-0.00244,0.01464,-0.01464,-0.06344,0,-0.00976,-0.01464
0.00488,-0.00732,0.00976,0.00732,0.00488,0,-0.00976,-0.02928,-0.06344,0,-0.00488,-0.01464
0.00976,-0.00976,0.00976,0.00488,0,0.00488,-0.02928,-0.05368,-0.0732,0,0,-0.00976
0.03904,-0.03416,0.02928,0.00976,-0.00976,0.0244,-0.05368,-0.06344,-0.08296,-0.00488,0,-0.01464
0.03904,-0.03416,0.02928,0.00976,-0.00976,0.0244,-0.05856,-0.0732,-0.08296,-0.00488,0,-0.00976
0.03416,-0.03172,0.02928,0.0122,-0.00488,0.01952,-0.06344,-0.08296,-0.08296,-0.00488,-0.00976,-0.00488
0.03904,-0.02928,0.01952,0,-0.01952,0.02928,-0.06344,-0.07808,-0.09272,-0.01464,-0.01464,-0.00488
0.0488,-0.02684,0.00488,-0.01952,-0.04392,0.04636,-0.06344,-0.07808,-0.10248,-0.01952,-0.01464,-0.01464
0.05368,-0.03172,0.00976,-0.01708,-0.04392,0.0488,-0.06344,-0.07808,-0.10248,-0.01952,-0.01464,-0.00976
0.0488,-0.02684,0.00488,-0.01952,-0.04392,0.04636,-0.0732,-0.0732,-0.0976,-0.01952,-0.01464,-0.00488
0.0488,-0.02196,-0.00488,-0.02928,-0.05368,0.05124,-0.0732,-0.0732,-0.09272,-0.01952,-0.00976,-0.00488
0.03416,-0.00488,-0.0244,-0.04148,-0.05856,0.04636,-0.06344,-0.07808,-0.10248,-0.02928,-0.01464,-0.00976
0.0244,0.0122,-0.0488,-0.061,-0.0732,0.0488,-0.05856,-0.08784,-0.122,-0.04392,-0.02928,-0.01952
0.01952,0.02684,-0.0732,-0.08296,-0.09272,0.05612,-0.05368,-0.09272,-0.14152,-0.05856,-0.0488,-0.03904
0.00488,0.03172,-0.06832,-0.07076,-0.0732,0.03904,-0.05368,-0.08784,-0.1464,-0.06344,-0.05368,-0.04392
-0.01464,0.04392,-0.0732,-0.06588,-0.05856,0.02196,-0.04392,-0.07808,-0.14152,-0.06832,-0.05856,-0.04392
-0.01952,0.04636,-0.0732,-0.06344,-0.05368,0.01708,-0.03416,-0.0732,-0.13664,-0.06344,-0.05856,-0.0488
-0.02928,0.05368,-0.07808,-0.06344,-0.0488,0.00976,-0.03416,-0.07808,-0.13664,-0.06344,-0.06344,-0.05856
-0.0244,0.0488,-0.0732,-0.061,-0.0488,0.0122,-0.02928,-0.0732,-0.13664,-0.06344,-0.06344,-0.06344
-0.02928,0.0488,-0.06832,-0.05368,-0.03904,0.00488,-0.02928,-0.06344,-0.14152,-0.06832,-0.06344,-0.06344
-0.0244,0.0488,-0.0732,-0.061,-0.0488,0.0122,-0.02928,-0.06344,-0.14152,-0.06344,-0.06344,-0.0488
-0.02928,0.061,-0.09272,-0.07808,-0.06344,0.01708,-0.02928,-0.06344,-0.14152,-0.06344,-0.06344,-0.05368
-0.0244,0.05612,-0.08784,-0.07564,-0.06344,0.01952,-0.0244,-0.06344,-0.14152,-0.06344,-0.05856,-0.05368
-0.03904,0.061,-0.08296,-0.06344,-0.04392,0.00244,-0.01464,-0.05856,-0.13176,-0.06344,-0.05856,-0.0488
-0.03904,0.06588,-0.09272,-0.0732,-0.05368,0.00732,-0.00976,-0.0488,-0.12688,-0.06344,-0.05368,-0.0488
-0.03416,0.06588,-0.0976,-0.08052,-0.06344,0.01464,0.01464,-0.01464,-0.122,-0.06344,-0.06344,-0.05856
-0.03904,0.0854,-0.13176,-0.11224,-0.09272,0.02684,0.03416,0.01464,-0.10736,-0.07808,-0.09272,-0.08784
-0.05368,0.08052,-0.10736,-0.08052,-0.05368,0,0.03904,0.04392,-0.07808,-0.09272,-0.10736,-0.10248
-0.0732,0.0854,-0.0976,-0.061,-0.0244,-0.0244,0.05856,0.06344,0.00488,-0.03416,-0.07808,-0.08784
-0.0488,0.05856,-0.06832,-0.04392,-0.01952,-0.01464,0.02928,0.01464,0.0732,0.05856,-0.0244,-0.04392
0.02928,0.02196,-0.0732,-0.08784,-0.10248,0.06588,0.01952,0.0732,0.20008,0.18056,0.05856,0.00976
0.09272,-0.0366,-0.01952,-0.06588,-0.11224,0.10248,0.02928,0.1708,0.44408,0.38064,0.1952,0.13176
0.19032,-0.11224,0.03416,-0.061,-0.15616,0.17324,0.01464,0.30744,0.77592,0.6588,0.38552,0.30744
0.25376,-0.21472,0.17568,0.0488,-0.07808,0.16592,-0.07808,0.20984,1.0004,0.9516,0.59048,0.46848
0.31232,-0.35136,0.3904,0.23424,0.07808,0.11712,-0.22936,-0.05368,1.19072,1.22,0.82472,0.66368
0.32696,-0.39772,0.46848,0.305,0.14152,0.09272,-0.3904,-0.30256,1.06384,1.16144,0.85888,0.7076
0.2196,-0.35624,0.49288,0.38308,0.27328,-0.02684,-0.56608,-0.70272,0.74176,0.90768,0.74664,0.64416
0.03904,-0.16592,0.2928,0.27328,0.25376,-0.10736,-0.52704,-0.8296,0.16104,0.2928,0.33184,0.32208
-0.0976,-0.05124,0.20008,0.24888,0.29768,-0.19764,-0.52216,-1.03456,-0.55144,-0.20008,0.0244,0.07808
-0.13176,0.05124,0.02928,0.09516,0.16104,-0.1464,-0.488,-0.96136,-0.77104,-0.37576,-0.1464,-0.0732
-0.10736,0.10736,-0.10736,-0.05368,0,-0.05368,-0.45872,-0.86376,-0.82472,-0.38064,-0.15616,-0.0732
-0.06832,0.11712,-0.16592,-0.13176,-0.0976,0.01464,-0.35136,-0.62464,-0.6588,-0.33672,-0.17568,-0.08784
-0.01952,0.09028,-0.16104,-0.15128,-0.14152,0.061,-0.244,-0.40504,-0.53192,-0.29768,-0.18544,-0.0976
-0.00976,0.07808,-0.1464,-0.14152,-0.13664,0.06344,-0.15616,-0.22448,-0.35624,-0.19032,-0.122,-0.05856
-0.01464,0.06832,-0.122,-0.11468,-0.10736,0.04636,-0.10248,-0.122,-0.2196,-0.11712,-0.07808,-0.04392
-0.01952,0.07564,-0.13176,-0.122,-0.11224,0.04636,-0.06832,-0.0732,-0.18544,-0.10248,-0.07808,-0.04392
-0.00976,0.04392,-0.07808,-0.0732,-0.06832,0.02928,-0.0244,-0.01952,-0.17568,-0.10248,-0.06832,-0.03904
-0.0244,0.05124,-0.07808,-0.06588,-0.05368,0.01464,0,0,-0.15128,-0.0732,-0.05368,-0.03416
-0.0244,0.04636,-0.06832,-0.05612,-0.04392,0.00976,-0.01464,-0.0244,-0.122,-0.05368,-0.05368,-0.03904
-0.0244,0.0488,-0.0732,-0.061,-0.0488,0.0122,-0.00976,-0.0244,-0.11224,-0.05856,-0.05368,-0.03904
-0.02928,0.05368,-0.07808,-0.06344,-0.0488,0.00976,0,0.00488,-0.11224,-0.06832,-0.06832,-0.05368
-0.02928,0.05368,-0.07808,-0.06344,-0.0488,0.00976,0.00976,0.01464,-0.11224,-0.06832,-0.06832,-0.05368
-0.03416,0.05124,-0.06832,-0.05124,-0.03416,0,0.00976,0.01464,-0.10736,-0.06344,-0.05856,-0.05368
-0.02928,0.0488,-0.06832,-0.05368,-0.03904,0.00488,0.01464,0.01952,-0.09272,-0.05856,-0.05856,-0.05368
-0.03904,0.05612,-0.0732,-0.05368,-0.03416,-0.00244,0.01464,0.0244,-0.09272,-0.05856,-0.05856,-0.05368
-0.03904,0.05124,-0.06344,-0.04392,-0.0244,-0.00732,0.01952,0.01952,-0.08784,-0.05856,-0.05368,-0.05368
-0.03904,0.05612,-0.0732,-0.05368,-0.03416,-0.00244,0.0244,0.02928,-0.08784,-0.05856,-0.05368,-0.05368
-0.04392,0.061,-0.07808,-0.05612,-0.03416,-0.00488,0.0244,0.03416,-0.07808,-0.0488,-0.0488,-0.05368
-0.03904,0.05368,-0.06832,-0.0488,-0.02928,-0.00488,0.01464,0.03904,-0.0732,-0.0488,-0.05856,-0.05368
-0.03904,0.0488,-0.05856,-0.03904,-0.01952,-0.00976,0.01464,0.03904,-0.06832,-0.0488,-0.05856,-0.05368
-0.02928,0.04392,-0.05856,-0.04392,-0.02928,0,0.02928,0.03904,-0.06832,-0.04392,-0.0488,-0.0488
-0.02928,0.0488,-0.06832,-0.05368,-0.03904,0.00488,0.0244,0.04392,-0.06344,-0.03904,-0.04392,-0.0488
-0.03904,0.05856,-0.07808,-0.05856,-0.03904,0,0.01952,0.03904,-0.05856,-0.03904,-0.04392,-0.03904
-0.03416,0.0488,-0.06344,-0.04636,-0.02928,-0.00244,0.01952,0.03904,-0.05368,-0.03416,-0.04392,-0.03904
-0.0244,0.04392,-0.06344,-0.05124,-0.03904,0.00732,0.01952,0.0488,-0.05368,-0.03416,-0.04392,-0.03904
-0.0244,0.04392,-0.06344,-0.05124,-0.03904,0.00732,0.0244,0.05368,-0.0488,-0.02928,-0.03904,-0.03416
-0.0244,0.04392,-0.06344,-0.05124,-0.03904,0.00732,0.0244,0.05856,-0.03416,-0.0244,-0.03416,-0.03416
-0.01952,0.04148,-0.06344,-0.05368,-0.04392,0.0122,0.0244,0.06344,-0.02928,-0.01464,-0.02928,-0.02928
-0.02928,0.03904,-0.0488,-0.03416,-0.01952,-0.00488,0.0244,0.05856,-0.0244,-0.01464,-0.02928,-0.03904
-0.02928,0.03904,-0.0488,-0.03416,-0.01952,-0.00488,0.0244,0.05856,-0.01952,-0.00976,-0.02928,-0.03416
-0.02928,0.0366,-0.04392,-0.02928,-0.01464,-0.00732,0.0244,0.0732,-0.00488,0.00488,-0.0244,-0.01952
-0.02928,0.03416,-0.03904,-0.0244,-0.00976,-0.00976,0.0244,0.08296,0.00488,0.00488,-0.01952,-0.01952
-0.01464,0.03172,-0.0488,-0.04148,-0.03416,0.00976,0.0244,0.07808,0,0.01464,-0.01952,-0.01464
-0.01464,0.02928,-0.04392,-0.0366,-0.02928,0.00732,0.02928,0.08296,0.00976,0.01464,-0.01464,-0.01464
-0.01952,0.0244,-0.02928,-0.01952,-0.00976,-0.00488,0.01952,0.09272,0.01952,0.01464,0,-0.00976
-0.01464,0.01952,-0.0244,-0.01708,-0.00976,-0.00244,0.01952,0.10248,0.02928,0.01952,0.00488,-0.00976
0,0.00732,-0.01464,-0.01464,-0.01464,0.00732,0.01952,0.10736,0.03904,0.02928,-0.00488,-0.00488
0.00488,-0.00244,0,-0.00244,-0.00488,0.00488,0.01952,0.11712,0.0488,0.03416,0,-0.00488
0.00488,-0.00488,0.00488,0.00244,0,0.00244,0.01952,0.11712,0.05856,0.03416,0.00488,-0.00488
0.00488,-0.00732,0.00976,0.00732,0.00488,0,0.01952,0.122,0.06832,0.0488,0.00488,0
0.00488,-0.00244,0,-0.00244,-0.00488,0.00488,0.0244,0.14152,0.08784,0.05856,0.01464,0.00488
0.01464,-0.00488,-0.00488,-0.0122,-0.01952,0.01708,0.0244,0.15128,0.09272,0.06344,0.01952,0.00976
0.0244,-0.00976,-0.00488,-0.01708,-0.02928,0.02684,0.03416,0.17568,0.11712,0.0732,0.0244,0.01464
0.02928,-0.01708,0.00488,-0.00976,-0.0244,0.02684,0.03416,0.18544,0.13176,0.08296,0.02928,0.01952
0.0244,-0.01952,0.01464,0.00244,-0.00976,0.01708,0.03904,0.19032,0.15128,0.09272,0.03904,0.03416
0.01952,-0.02196,0.0244,0.01464,0.00488,0.00732,0.03904,0.21472,0.1708,0.10248,0.0488,0.03904
0.04392,-0.03416,0.0244,0.00244,-0.01952,0.03172,0.03904,0.23912,0.19032,0.122,0.0732,0.0488
0.04392,-0.03416,0.0244,0.00244,-0.01952,0.03172,0.04392,0.25376,0.21472,0.13664,0.07808,0.06344
0.05368,-0.04636,0.03904,0.0122,-0.01464,0.03416,0.03904,0.2684,0.23424,0.15128,0.07808,0.05856
0.05368,-0.0488,0.04392,0.01708,-0.00976,0.03172,0.03904,0.27816,0.25376,0.16592,0.07808,0.06344
0.06344,-0.05612,0.0488,0.01708,-0.01464,0.03904,0.0488,0.30256,0.28304,0.1708,0.0976,0.0732
0.06344,-0.06344,0.06344,0.03172,0,0.03172,0.05368,0.31232,0.30256,0.1952,0.10736,0.07808
0.05856,-0.06344,0.06832,0.03904,0.00976,0.0244,0.05856,0.33184,0.32208,0.20008,0.11224,0.08296
0.06344,-0.06588,0.06832,0.0366,0.00488,0.02928,0.05856,0.34648,0.34648,0.2196,0.122,0.09272
0.06832,-0.0732,0.07808,0.04392,0.00976,0.02928,0.05368,0.35624,0.366,0.22448,0.122,0.09272
0.0732,-0.07808,0.08296,0.04636,0.00976,0.03172,0.05856,0.37088,0.38552,0.23424,0.122,0.10248
0.08784,-0.08296,0.07808,0.03416,-0.00976,0.0488,0.06344,0.38064,0.40504,0.24888,0.13664,0.10248
0.08784,-0.08052,0.0732,0.02928,-0.01464,0.05124,0.06832,0.3904,0.41968,0.25864,0.14152,0.11224
0.08784,-0.08784,0.08784,0.04392,0,0.04392,0.06344,0.3904,0.41968,0.2684,0.15616,0.11224
0.08784,-0.09028,0.09272,0.0488,0.00488,0.04148,0.06832,0.39528,0.42456,0.2684,0.15616,0.11224
0.07808,-0.09028,0.10248,0.06344,0.0244,0.02684,0.06344,0.3904,0.42456,0.2684,0.1464,0.11224
0.07808,-0.09028,0.10248,0.06344,0.0244,0.02684,0.06344,0.38064,0.42944,0.2684,0.15128,0.11224
0.07808,-0.0854,0.09272,0.05368,0.01464,0.03172,0.06832,0.37576,0.42944,0.25864,0.15128,0.11224
0.07808,-0.08296,0.08784,0.0488,0.00976,0.03416,0.06344,0.35624,0.4148,0.24888,0.1464,0.11224
0.07808,-0.08784,0.0976,0.05856,0.01952,0.02928,0.06344,0.3416,0.40504,0.244,0.13176,0.11224
0.0732,-0.0854,0.0976,0.061,0.0244,0.0244,0.05856,0.32208,0.38552,0.23912,0.13176,0.10736
0.06344,-0.07564,0.08784,0.05612,0.0244,0.01952,0.05368,0.28304,0.37088,0.23424,0.14152,0.11712
0.05856,-0.0732,0.08784,0.05856,0.02928,0.01464,0.04392,0.25376,0.3416,0.21472,0.13176,0.11224
0.05856,-0.07076,0.08296,0.05368,0.0244,0.01708,0.04392,0.22448,0.30256,0.20984,0.13664,0.10248
0.0488,-0.061,0.0732,0.0488,0.0244,0.0122,0.03416,0.1952,0.2684,0.1952,0.12688,0.0976
0.04392,-0.05856,0.0732,0.05124,0.02928,0.00732,0.01952,0.1708,0.244,0.18056,0.11712,0.09272
0.03416,-0.05124,0.06832,0.05124,0.03416,0,0.00976,0.14152,0.20008,0.16104,0.10248,0.08296
0.02928,-0.04392,0.05856,0.04392,0.02928,0,0.01464,0.122,0.16592,0.14152,0.09272,0.0732
0.0244,-0.03904,0.05368,0.04148,0.02928,-0.00244,0.00976,0.0976,0.13176,0.122,0.08296,0.05856
0.01464,-0.03416,0.05368,0.04636,0.03904,-0.0122,0,0.08296,0.10736,0.11224,0.06832,0.06344
0.00976,-0.02684,0.04392,0.03904,0.03416,-0.0122,-0.00488,0.06344,0.08296,0.0976,0.05856,0.05856
0.00976,-0.01708,0.0244,0.01952,0.01464,-0.00244,-0.01464,0.03904,0.05368,0.06832,0.03416,0.03904
0,-0.00976,0.01952,0.01952,0.01952,-0.00976,-0.01464,0.01952,0.0244,0.05368,0.02928,0.02928
0,-0.00732,0.01464,0.01464,0.01464,-0.00732,-0.01464,0.01952,0.00976,0.0244,0.01464,0.01952
-0.00976,0,0.00976,0.01464,0.01952,-0.01464,-0.00976,0.00976,-0.00976,0.01464,0.00488,0.01464
-0.01464,0.00732,0,0.00732,0.01464,-0.01464,-0.01464,0,-0.01464,0.01464,0,0
-0.01464,0.00732,0,0.00732,0.01464,-0.01464,-0.01464,-0.00488,-0.02928,0.00488,-0.00976,-0.00488
-0.02928,0.00976,0.00976,0.0244,0.03904,-0.03416,-0.0244,-0.01464,-0.04392,-0.00488,-0.00976,-0.00976
-0.02928,0.01708,-0.00488,0.00976,0.0244,-0.02684,-0.0244,-0.01464,-0.05368,-0.00976,-0.00976,-0.01464
-0.0244,0.01464,-0.00488,0.00732,0.01952,-0.02196,-0.01952,-0.01464,-0.06344,-0.01464,-0.01464,-0.00976
-0.01464,0.00976,-0.00488,0.00244,0.00976,-0.0122,-0.0244,-0.01464,-0.06832,-0.01952,-0.01464,-0.00976
-0.0244,0.01464,-0.00488,0.00732,0.01952,-0.02196,-0.01464,-0.0244,-0.06832,-0.0244,-0.01952,-0.00976
-0.0244,0.0122,0,0.0122,0.0244,-0.0244,-0.01464,-0.02928,-0.06832,-0.0244,-0.0244,-0.01464
-0.0244,0.01952,-0.01464,-0.00244,0.00976,-0.01708,-0.01464,-0.02928,-0.06832,-0.0244,-0.01464,-0.00488
-0.0244,0.0244,-0.0244,-0.0122,0,-0.0122,-0.01464,-0.02928,-0.06832,-0.0244,-0.01464,-0.00488
-0.0244,0.01952,-0.01464,-0.00244,0.00976,-0.01708,-0.01464,-0.02928,-0.0732,-0.02928,-0.01952,-0.00488
-0.0244,0.01952,-0.01464,-0.00244,0.00976,-0.01708,-0.01464,-0.02928,-0.0732,-0.02928,-0.01952,0
-0.01464,0.0122,-0.00976,-0.00244,0.00488,-0.00976,-0.0244,-0.02928,-0.0732,-0.0244,-0.01952,-0.00976
-0.01464,0.0122,-0.00976,-0.00244,0.00488,-0.00976,-0.0244,-0.02928,-0.0732,-0.0244,-0.01952,-0.01464
-0.01464,0.0122,-0.00976,-0.00244,0.00488,-0.00976,-0.0244,-0.02928,-0.0732,-0.0244,-0.01952,-0.01952
-0.00976,0.00976,-0.00976,-0.00488,0,-0.00488,-0.0244,-0.02928,-0.0732,-0.0244,-0.01952,-0.01464
-0.00976,0.0122,-0.01464,-0.00976,-0.00488,-0.00244,-0.0244,-0.02928,-0.06832,-0.00976,-0.00976,-0.00488
-0.00976,0.00976,-0.00976,-0.00488,0,-0.00488,-0.0244,-0.0244,-0.06832,-0.00976,0.00488,-0.00488
-0.00488,0.00244,0,0.00244,0.00488,-0.00488,-0.0244,-0.02928,-0.06832,-0.00976,-0.00488,-0.00488
0,0,0,0,0,0,-0.0244,-0.0244,-0.06832,-0.00976,0,-0.00488
-0.00488,0.00244,0,0.00244,0.00488,-0.00488,-0.03416,-0.02928,-0.06832,-0.01464,-0.00976,0.00488
-0.01464,0.00488,0.00488,0.0122,0.01952,-0.01708,-0.03904,-0.02928,-0.06832,-0.01952,-0.00976,0.00488
-0.00488,0.00244,0,0.00244,0.00488,-0.00488,-0.02928,-0.02928,-0.06832,-0.01952,-0.00976,0.00488
0,0.00488,-0.00976,-0.00976,-0.00976,0.00488,-0.02928,-0.02928,-0.06832,-0.01464,-0.00488,0.00488
0,0,0,0,0,0,-0.04392,-0.02928,-0.06832,-0.01464,-0.01464,0.00488
0,0.00488,-0.00976,-0.00976,-0.00976,0.00488,-0.03904,-0.0244,-0.06832,-0.01464,-0.01464,0.00488
-0.01464,0.0122,-0.00976,-0.00244,0.00488,-0.00976,-0.04392,-0.02928,-0.07808,-0.00976,-0.00488,0
-0.01464,0.00976,-0.00488,0.00244,0.00976,-0.0122,-0.04392,-0.02928,-0.08296,-0.01464,-0.00488,0
-0.00488,0.00488,-0.00488,-0.00244,0,-0.00244,-0.04392,-0.03904,-0.07808,-0.00976,-0.00488,-0.00976
0,0.00244,-0.00488,-0.00488,-0.00488,0.00244,-0.04392,-0.03904,-0.07808,-0.00976,-0.00488,-0.00976
-0.00976,0.00488,0,0.00488,0.00976,-0.00976,-0.03416,-0.02928,-0.0732,-0.00976,-0.00488,0
-0.01464,0.00976,-0.00488,0.00244,0.00976,-0.0122,-0.03416,-0.03416,-0.0732,-0.01464,-0.00488,0
0,0.00244,-0.00488,-0.00488,-0.00488,0.00244,-0.03416,-0.03904,-0.0732,-0.01464,-0.00976,-0.00488
0,0.00488,-0.00976,-0.00976,-0.00976,0.00488,-0.03416,-0.05368,-0.0732,-0.01464,-0.00976,-0.00488
-0.00976,0.01464,-0.01952,-0.01464,-0.00976,0,-0.03416,-0.04392,-0.07808,-0.01464,-0.00976,0.00488
-0.00976,0.01464,-0.01952,-0.01464,-0.00976,0,-0.03904,-0.04392,-0.07808,-0.01952,-0.01464,0
-0.01464,0.01464,-0.01464,-0.00732,0,-0.00732,-0.03416,-0.04392,-0.08296,-0.01952,-0.0244,-0.00976
0,0.00732,-0.01464,-0.01464,-0.01464,0.00732,-0.03416,-0.0488,-0.08296,-0.0244,-0.0244,-0.00976
-0.01464,0.0122,-0.00976,-0.00244,0.00488,-0.00976,-0.03904,-0.04392,-0.09272,-0.03416,-0.01952,-0.0244
-0.01464,0.00976,-0.00488,0.00244,0.00976,-0.0122,-0.04392,-0.0488,-0.09272,-0.03416,-0.01952,-0.0244
-0.01952,0.01708,-0.01464,-0.00488,0.00488,-0.0122,-0.04392,-0.0488,-0.0976,-0.03904,-0.01952,-0.01464
-0.01952,0.02196,-0.0244,-0.01464,-0.00488,-0.00732,-0.04392,-0.0488,-0.0976,-0.03904,-0.01952,-0.01464
-0.00976,0.01464,-0.01952,-0.01464,-0.00976,0,-0.03416,-0.05368,-0.0976,-0.04392,-0.0244,-0.00976
-0.01464,0.01708,-0.01952,-0.0122,-0.00488,-0.00488,-0.03416,-0.05368,-0.10248,-0.04392,-0.0244,-0.01464
-0.01464,0.02196,-0.02928,-0.02196,-0.01464,0,-0.04392,-0.05368,-0.10248,-0.03416,-0.02928,-0.00976
-0.01464,0.02684,-0.03904,-0.03172,-0.0244,0.00488,-0.04392,-0.05368,-0.10248,-0.03904,-0.02928,-0.01464
-0.01464,0.01952,-0.0244,-0.01708,-0.00976,-0.00244,-0.04392,-0.06344,-0.10736,-0.0488,-0.02928,-0.01464
-0.01464,0.01708,-0.01952,-0.0122,-0.00488,-0.00488,-0.04392,-0.06832,-0.11224,-0.05368,-0.02928,-0.01464
-0.01464,0.02196,-0.02928,-0.02196,-0.01464,0,-0.03416,-0.05856,-0.11224,-0.04392,-0.02928,-0.01464
-0.00976,0.01952,-0.02928,-0.0244,-0.01952,0.00488,-0.03416,-0.05856,-0.11712,-0.04392,-0.03416,-0.01464
-0.01952,0.01952,-0.01952,-0.00976,0,-0.00976,-0.04392,-0.05856,-0.11712,-0.04392,-0.03416,-0.01952
-0.0244,0.02196,-0.01952,-0.00732,0.00488,-0.01464,-0.05368,-0.05856,-0.11712,-0.0488,-0.03416,-0.01952
-0.0244,0.02684,-0.02928,-0.01708,-0.00488,-0.00976,-0.03416,-0.05856,-0.11712,-0.05856,-0.03416,-0.02928
-0.02928,0.03416,-0.03904,-0.0244,-0.00976,-0.00976,-0.03416,-0.05856,-0.11712,-0.05856,-0.03904,-0.02928
-0.02928,0.03172,-0.03416,-0.01952,-0.00488,-0.0122,-0.03416,-0.05856,-0.11224,-0.06344,-0.03904,-0.02928
-0.02928,0.03172,-0.03416,-0.01952,-0.00488,-0.0122,-0.03416,-0.05856,-0.11224,-0.06344,-0.03904,-0.03416
-0.02928,0.03172,-0.03416,-0.01952,-0.00488,-0.0122,-0.03416,-0.05368,-0.11224,-0.05368,-0.02928,-0.02928
-0.02928,0.03172,-0.03416,-0.01952,-0.00488,-0.0122,-0.03416,-0.05368,-0.10736,-0.05368,-0.02928,-0.02928
-0.02928,0.02684,-0.0244,-0.00976,0.00488,-0.01708,-0.04392,-0.06344,-0.12688,-0.06832,-0.05368,-0.03904
-0.03416,0.02928,-0.0244,-0.00732,0.00976,-0.02196,-0.04392,-0.06832,-0.12688,-0.06832,-0.06344,-0.03416
-0.03416,0.02928,-0.0244,-0.00732,0.00976,-0.02196,-0.0488,-0.0732,-0.12688,-0.07808,-0.05368,-0.03904
-0.02928,0.02928,-0.02928,-0.01464,0,-0.01464,-0.0488,-0.0732,-0.12688,-0.07808,-0.05856,-0.03904
-0.01952,0.0244,-0.02928,-0.01952,-0.00976,-0.00488,-0.04392,-0.05856,-0.12688,-0.06832,-0.04392,-0.02928
-0.0244,0.02684,-0.02928,-0.01708,-0.00488,-0.00976,-0.04392,-0.06344,-0.122,-0.06832,-0.04392,-0.0244
-0.03416,0.0366,-0.03904,-0.02196,-0.00488,-0.01464,-0.04392,-0.06344,-0.122,-0.05856,-0.04392,-0.03416
-0.03416,0.04148,-0.0488,-0.03172,-0.01464,-0.00976,-0.04392,-0.06344,-0.122,-0.05856,-0.04392,-0.03416
-0.03416,0.0366,-0.03904,-0.02196,-0.00488,-0.01464,-0.04392,-0.06344,-0.122,-0.05856,-0.04392,-0.0244
-0.03416,0.0366,-0.03904,-0.02196,-0.00488,-0.01464,-0.04392,-0.06344,-0.12688,-0.05856,-0.04392,-0.0244
-0.03416,0.02928,-0.0244,-0.00732,0.00976,-0.02196,-0.04392,-0.06344,-0.11712,-0.05856,-0.04392,-0.0244
-0.02928,0.02928,-0.02928,-0.01464,0,-0.01464,-0.04392,-0.06344,-0.11712,-0.05856,-0.04392,-0.0244
-0.03904,0.03416,-0.02928,-0.00976,0.00976,-0.0244,-0.04392,-0.06832,-0.12688,-0.06832,-0.05368,-0.03416
-0.04392,0.03904,-0.03416,-0.0122,0.00976,-0.02684,-0.04392,-0.06344,-0.122,-0.06832,-0.05856,-0.03416
-0.04392,0.04148,-0.03904,-0.01708,0.00488,-0.0244,-0.04392,-0.06344,-0.122,-0.06832,-0.0488,-0.02928
-0.04392,0.04148,-0.03904,-0.01708,0.00488,-0.0244,-0.04392,-0.06344,-0.12688,-0.0732,-0.03904,-0.02928
-0.03416,0.03416,-0.03416,-0.01708,0,-0.01708,-0.04392,-0.06344,-0.12688,-0.0732,-0.0488,-0.03904
-0.03416,0.03416,-0.03416,-0.01708,0,-0.01708,-0.04392,-0.06344,-0.12688,-0.0732,-0.04392,-0.03416
-0.03416,0.03172,-0.02928,-0.0122,0.00488,-0.01952,-0.04392,-0.06344,-0.11712,-0.06832,-0.04392,-0.0244
-0.03416,0.03172,-0.02928,-0.0122,0.00488,-0.01952,-0.04392,-0.06344,-0.11712,-0.06832,-0.04392,-0.0244
-0.03416,0.0366,-0.03904,-0.02196,-0.00488,-0.01464,-0.04392,-0.06344,-0.11224,-0.06832,-0.04392,-0.01952
-0.03416,0.04148,-0.0488,-0.03172,-0.01464,-0.00976,-0.04392,-0.06344,-0.11712,-0.06832,-0.04392,-0.01464
-0.03904,0.04392,-0.0488,-0.02928,-0.00976,-0.01464,-0.04392,-0.06832,-0.11712,-0.05856,-0.03416,-0.0244
-0.03904,0.04148,-0.04392,-0.0244,-0.00488,-0.01708,-0.04392,-0.06832,-0.122,-0.05856,-0.03416,-0.0244
-0.04392,0.03904,-0.03416,-0.0122,0.00976,-0.02684,-0.03416,-0.06832,-0.12688,-0.0732,-0.0488,-0.03416
-0.0488,0.0366,-0.0244,0,0.0244,-0.0366,-0.03416,-0.06832,-0.13176,-0.08296,-0.0488,-0.03904
-0.03416,0.03416,-0.03416,-0.01708,0,-0.01708,-0.03416,-0.06832,-0.13176,-0.0732,-0.0488,-0.03904
-0.03416,0.03416,-0.03416,-0.01708,0,-0.01708,-0.03416,-0.06832,-0.12688,-0.07808,-0.0488,-0.03904
-0.04392,0.03904,-0.03416,-0.0122,0.00976,-0.02684,-0.04392,-0.06832,-0.12688,-0.06344,-0.0488,-0.03904
-0.04392,0.03904,-0.03416,-0.0122,0.00976,-0.02684,-0.04392,-0.06832,-0.122,-0.06344,-0.0488,-0.03904
-0.03416,0.02928,-0.0244,-0.00732,0.00976,-0.02196,-0.04392,-0.06832,-0.122,-0.05856,-0.0488,-0.02928
-0.03416,0.03172,-0.02928,-0.0122,0.00488,-0.01952,-0.04392,-0.06832,-0.122,-0.05856,-0.0488,-0.02928
-0.03416,0.03416,-0.03416,-0.01708,0,-0.01708,-0.03416,-0.06832,-0.11712,-0.06344,-0.0488,-0.02928
-0.03416,0.03904,-0.04392,-0.02684,-0.00976,-0.0122,-0.03416,-0.06832,-0.11712,-0.05856,-0.0488,-0.0244
-0.03904,0.03904,-0.03904,-0.01952,0,-0.01952,-0.04392,-0.05856,-0.11712,-0.06832,-0.03416,-0.01464
-0.03416,0.0366,-0.03904,-0.02196,-0.00488,-0.01464,-0.04392,-0.05368,-0.122,-0.06832,-0.03416,-0.01464
-0.04392,0.03904,-0.03416,-0.0122,0.00976,-0.02684,-0.04392,-0.06344,-0.122,-0.06832,-0.03904,-0.02928
-0.04392,0.03904,-0.03416,-0.0122,0.00976,-0.02684,-0.04392,-0.06344,-0.122,-0.06344,-0.03904,-0.02928
-0.0488,0.05368,-0.05856,-0.03416,-0.00976,-0.01952,-0.02928,-0.05368,-0.10736,-0.06344,-0.03904,-0.02928
-0.02928,0.0244,-0.01952,-0.00488,0.00976,-0.01952,-0.0488,-0.05856,-0.11712,-0.07808,-0.0488,-0.03904
-0.03904,0.03416,-0.02928,-0.00976,0.00976,-0.0244,-0.03904,-0.06832,-0.12688,-0.07808,-0.0488,-0.02928
-0.03904,0.03416,-0.02928,-0.00976,0.00976,-0.0244,-0.03904,-0.06832,-0.12688,-0.07808,-0.0488,-0.02928
-0.03904,0.03904,-0.03904,-0.01952,0,-0.01952,-0.03904,-0.06832,-0.11712,-0.06832,-0.0488,-0.02928
-0.03904,0.03904,-0.03904,-0.01952,0,-0.01952,-0.03904,-0.06832,-0.11712,-0.06832,-0.0488,-0.02928
-0.03904,0.03904,-0.03904,-0.01952,0,-0.01952,-0.03904,-0.06832,-0.11712,-0.06832,-0.03904,-0.02928
-0.03904,0.03904,-0.03904,-0.01952,0,-0.01952,-0.03904,-0.06832,-0.11712,-0.06832,-0.03904,-0.02928
-0.03904,0.03416,-0.02928,-0.00976,0.00976,-0.0244,-0.03904,-0.06832,-0.11712,-0.06832,-0.03904,-0.01952
-0.03904,0.03416,-0.02928,-0.00976,0.00976,-0.0244,-0.03904,-0.06832,-0.11712,-0.06832,-0.03904,-0.01952
-0.03904,0.03416,-0.02928,-0.00976,0.00976,-0.0244,-0.03904,-0.06832,-0.12688,-0.06832,-0.03904,-0.02928
-0.03904,0.03416,-0.02928,-0.00976,0.00976,-0.0244,-0.03904,-0.06832,-0.12688,-0.06832,-0.03904,-0.02928
-0.03904,0.03416,-0.02928,-0.00976,0.00976,-0.0244,-0.03904,-0.06832,-0.11712,-0.06832,-0.03904,-0.01952
-0.03904,0.03416,-0.02928,-0.00976,0.00976,-0.0244,-0.03904,-0.06832,-0.11712,-0.06832,-0.03904,-0.01952
-0.03904,0.03416,-0.02928,-0.00976,0.00976,-0.0244,-0.03904,-0.06832,-0.11712,-0.06832,-0.0488,-0.02928
-0.03904,0.03416,-0.02928,-0.00976,0.00976,-0.0244,-0.03904,-0.06832,-0.11712,-0.06832,-0.0488,-0.02928
-0.03904,0.03416,-0.02928,-0.00976,0.00976,-0.0244,-0.03904,-0.06832,-0.12688,-0.07808,-0.0488,-0.02928
-0.03904,0.03416,-0.02928,-0.00976,0.00976,-0.0244,-0.03904,-0.06832,-0.12688,-0.07808,-0.0488,-0.02928
-0.02928,0.03416,-0.03904,-0.0244,-0.00976,-0.00976,-0.03904,-0.05856,-0.11712,-0.07808,-0.03904,-0.01952
-0.02928,0.03904,-0.0488,-0.03416,-0.01952,-0.00488,-0.03904,-0.05856,-0.11712,-0.07808,-0.03904,-0.01952
-0.03904,0.03904,-0.03904,-0.01952,0,-0.01952,-0.03904,-0.06832,-0.11712,-0.06832,-0.03904,-0.02928
-0.03904,0.03904,-0.03904,-0.01952,0,-0.01952,-0.03904,-0.06832,-0.11712,-0.06832,-0.03904,-0.02928
-0.03904,0.03416,-0.02928,-0.00976,0.00976,-0.0244,-0.03904,-0.06832,-0.12688,-0.07808,-0.0488,-0.02928
-0.03904,0.02928,-0.01952,0,0.01952,-0.02928,-0.03904,-0.06832,-0.12688,-0.07808,-0.0488,-0.02928
-0.03904,0.02928,-0.01952,0,0.01952,-0.02928,-0.03904,-0.06832,-0.12688,-0.06832,-0.03904,-0.01952
-0.03904,0.02928,-0.01952,0,0.01952,-0.02928,-0.03904,-0.06832,-0.12688,-0.06832,-0.03904,-0.01952
-0.03416,0.02928,-0.0244,-0.00732,0.00976,-0.02196,-0.03904,-0.06344,-0.11712,-0.05856,-0.03904,-0.01952
-0.03416,0.02928,-0.0244,-0.00732,0.00976,-0.02196,-0.03904,-0.06344,-0.11712,-0.06832,-0.04392,-0.01952
-0.03416,0.03172,-0.02928,-0.0122,0.00488,-0.01952,-0.03416,-0.06832,-0.11712,-0.06344,-0.03904,-0.01952
-0.03416,0.02684,-0.01952,-0.00244,0.01464,-0.0244,-0.03416,-0.06344,-0.11224,-0.0488,-0.03416,-0.01464
-0.0244,0.01708,-0.00976,0.00244,0.01464,-0.01952,-0.02928,-0.05856,-0.11224,-0.05856,-0.02928,-0.01464
-0.0244,0.01464,-0.00488,0.00732,0.01952,-0.02196,-0.01952,-0.0488,-0.10736,-0.0488,-0.02928,-0.00976
-0.02928,0.00976,0.00976,0.0244,0.03904,-0.03416,-0.01952,-0.0488,-0.08784,-0.0488,-0.01952,-0.00488
-0.0244,0,0.0244,0.0366,0.0488,-0.0366,-0.01952,-0.0488,-0.08784,-0.04392,-0.01464,-0.00488
-0.01464,-0.00488,0.0244,0.03172,0.03904,-0.02684,-0.02928,-0.0488,-0.09272,-0.03904,-0.01952,-0.00488
-0.01464,-0.00976,0.03416,0.04148,0.0488,-0.03172,-0.02928,-0.04392,-0.08296,-0.03904,-0.01464,-0.01464
-0.01464,-0.01708,0.0488,0.05612,0.06344,-0.03904,-0.02928,-0.0488,-0.0732,-0.03904,-0.01464,0
-0.01464,-0.01708,0.0488,0.05612,0.06344,-0.03904,-0.0244,-0.03904,-0.0732,-0.03416,-0.00976,0
-0.01464,-0.01708,0.0488,0.05612,0.06344,-0.03904,-0.0244,-0.03904,-0.06832,-0.03416,-0.00976,0
-0.00976,-0.02196,0.05368,0.05856,0.06344,-0.0366,-0.03416,-0.05856,-0.0732,-0.02928,-0.00976,0.00488
-0.00488,-0.02196,0.0488,0.05124,0.05368,-0.02928,-0.0488,-0.06832,-0.0732,-0.02928,-0.00488,0.00488
0,-0.0244,0.0488,0.0488,0.0488,-0.0244,-0.06832,-0.08296,-0.08296,-0.02928,0,0.00976
0.01952,-0.04392,0.06832,0.05856,0.0488,-0.01464,-0.08296,-0.0976,-0.08296,-0.0244,0,0.0244
0.01952,-0.04392,0.06832,0.05856,0.0488,-0.01464,-0.08784,-0.0976,-0.08296,-0.0244,0,0.03904
0.03416,-0.05124,0.06832,0.05124,0.03416,0,-0.09272,-0.10248,-0.08296,-0.0244,0,0.0244
0.03904,-0.0488,0.05856,0.03904,0.01952,0.00976,-0.09272,-0.0976,-0.09272,-0.03416,-0.00488,0.01464
0.03904,-0.04148,0.04392,0.0244,0.00488,0.01708,-0.09272,-0.10736,-0.10248,-0.02928,-0.00488,0.0244
0.04392,-0.04636,0.0488,0.02684,0.00488,0.01952,-0.09272,-0.10736,-0.10248,-0.02928,-0.00488,0.02928
0.03904,-0.0366,0.03416,0.01464,-0.00488,0.02196,-0.09272,-0.09272,-0.08784,-0.02928,0.00488,0.04392
0.03904,-0.02684,0.01464,-0.00488,-0.0244,0.03172,-0.09272,-0.09272,-0.08296,-0.02928,0.00976,0.04392
0.03416,-0.0244,0.01464,-0.00244,-0.01952,0.02684,-0.09272,-0.0976,-0.09272,-0.02928,0.00488,0.02928
0.0244,-0.00732,-0.00976,-0.02196,-0.03416,0.02928,-0.08784,-0.10736,-0.11224,-0.04392,-0.00976,0.01952
0.01952,0.00244,-0.0244,-0.03416,-0.04392,0.03172,-0.08296,-0.11224,-0.13176,-0.06832,-0.03904,0
0.00488,0.00244,-0.00976,-0.0122,-0.01464,0.00976,-0.08296,-0.10736,-0.13664,-0.0732,-0.04392,-0.00488
-0.01464,0.01952,-0.0244,-0.01708,-0.00976,-0.00244,-0.06344,-0.0976,-0.13176,-0.07808,-0.0488,-0.0244
-0.01952,0.02196,-0.0244,-0.01464,-0.00488,-0.00732,-0.05368,-0.09272,-0.12688,-0.0732,-0.0488,-0.02928
-0.02928,0.02684,-0.0244,-0.00976,0.00488,-0.01708,-0.06344,-0.07808,-0.13664,-0.08296,-0.05368,-0.02928
-0.0244,0.02684,-0.02928,-0.01708,-0.00488,-0.00976,-0.05856,-0.0732,-0.13664,-0.08296,-0.05368,-0.03416
-0.02928,0.03416,-0.03904,-0.0244,-0.00976,-0.00976,-0.05856,-0.08296,-0.14152,-0.08784,-0.06344,-0.03904
-0.0244,0.03416,-0.04392,-0.03172,-0.01952,-0.00244,-0.05856,-0.09272,-0.14152,-0.08296,-0.06344,-0.03416
-0.03904,0.04636,-0.05368,-0.03416,-0.01464,-0.0122,-0.05856,-0.08296,-0.13176,-0.08296,-0.05368,-0.0244
-0.03416,0.04148,-0.0488,-0.03172,-0.01464,-0.00976,-0.05368,-0.08296,-0.13176,-0.08296,-0.0488,-0.0244
-0.02928,0.04148,-0.05368,-0.03904,-0.0244,-0.00244,-0.05368,-0.07808,-0.122,-0.08296,-0.0488,-0.01952
-0.02928,0.04148,-0.05368,-0.03904,-0.0244,-0.00244,-0.0488,-0.07808,-0.11712,-0.08296,-0.05368,-0.01952
-0.0244,0.0366,-0.0488,-0.0366,-0.0244,0,-0.03416,-0.04392,-0.11224,-0.09272,-0.06344,-0.03904
-0.03904,0.061,-0.08296,-0.06344,-0.04392,0.00244,-0.00488,-0.00488,-0.0976,-0.10736,-0.08296,-0.05856
-0.04392,0.061,-0.07808,-0.05612,-0.03416,-0.00488,0.00976,0.0244,-0.06832,-0.10248,-0.08784,-0.0732
-0.0732,0.06588,-0.05856,-0.02196,0.01464,-0.04392,0.03904,0.03416,0.00488,-0.06344,-0.07808,-0.06832
-0.0488,0.04392,-0.03904,-0.01464,0.00976,-0.02928,0,-0.00488,0.08296,0.03904,-0.00488,-0.00488
0.01952,0.00732,-0.03416,-0.04392,-0.05368,0.0366,-0.00976,0.03416,0.20008,0.16104,0.07808,0.05856
0.08296,-0.04148,0,-0.04148,-0.08296,0.08296,-0.00976,0.122,0.42456,0.37088,0.20496,0.15128
0.1708,-0.12688,0.08296,-0.00244,-0.08784,0.12932,-0.00488,0.24888,0.76616,0.66856,0.40504,0.3172
0.244,-0.23424,0.22448,0.10248,-0.01952,0.13176,-0.07808,0.20984,1.02968,0.96136,0.61976,0.49776
0.27328,-0.35136,0.42944,0.2928,0.15616,0.05856,-0.22936,-0.0244,1.20048,1.24928,0.86376,0.67344
0.27816,-0.39772,0.51728,0.3782,0.23912,0.01952,-0.36112,-0.23424,1.1224,1.20048,0.8784,0.69784
0.18056,-0.36112,0.54168,0.4514,0.36112,-0.09028,-0.52704,-0.59536,0.79056,0.94672,0.76616,0.6344
0.02928,-0.16592,0.30256,0.28792,0.27328,-0.122,-0.488,-0.69296,0.28792,0.36112,0.37088,0.35136
-0.10736,-0.02684,0.16104,0.21472,0.2684,-0.18788,-0.49288,-0.85888,-0.48312,-0.22936,-0.00488,0.06832
-0.15128,0.061,0.02928,0.10492,0.18056,-0.16592,-0.45872,-0.87352,-0.76128,-0.43432,-0.18544,-0.10248
-0.11712,0.11224,-0.10736,-0.0488,0.00976,-0.06344,-0.4392,-0.81496,-0.84424,-0.45872,-0.22448,-0.11224
-0.07808,0.122,-0.16592,-0.12688,-0.08784,0.00488,-0.37088,-0.6344,-0.71736,-0.42456,-0.22448,-0.0976
-0.05856,0.11468,-0.1708,-0.14152,-0.11224,0.02684,-0.28304,-0.42456,-0.5612,-0.35624,-0.18544,-0.08784
-0.02928,0.08784,-0.1464,-0.13176,-0.11712,0.04392,-0.18544,-0.26352,-0.39528,-0.25864,-0.15128,-0.06832
-0.0244,0.0732,-0.122,-0.1098,-0.0976,0.0366,-0.13176,-0.15128,-0.24888,-0.17568,-0.10736,-0.05368
-0.01952,0.04636,-0.0732,-0.06344,-0.05368,0.01708,-0.0976,-0.09272,-0.18544,-0.13176,-0.08784,-0.03416
-0.01952,0.03904,-0.05856,-0.0488,-0.03904,0.00976,-0.06344,-0.03904,-0.16592,-0.122,-0.07808,-0.03904
-0.0244,0.02684,-0.02928,-0.01708,-0.00488,-0.00976,-0.03904,-0.01952,-0.13176,-0.10248,-0.05368,-0.03416
-0.03416,0.0366,-0.03904,-0.02196,-0.00488,-0.01464,-0.03416,-0.04392,-0.11224,-0.08296,-0.05368,-0.02928
-0.03416,0.04392,-0.05368,-0.0366,-0.01952,-0.00732,-0.02928,-0.04392,-0.10248,-0.08784,-0.05368,-0.02928
-0.03904,0.03904,-0.03904,-0.01952,0,-0.01952,-0.02928,-0.01464,-0.10248,-0.08784,-0.05856,-0.0244
-0.03904,0.03904,-0.03904,-0.01952,0,-0.01952,-0.01952,-0.00488,-0.10248,-0.08784,-0.05856,-0.0244
-0.03416,0.03172,-0.02928,-0.0122,0.00488,-0.01952,-0.01952,-0.01464,-0.0976,-0.0732,-0.0488,-0.03416
-0.02928,0.02928,-0.02928,-0.01464,0,-0.01464,-0.01464,-0.00976,-0.08296,-0.06832,-0.0488,-0.03416
-0.03904,0.04148,-0.04392,-0.0244,-0.00488,-0.01708,-0.01464,-0.00488,-0.08296,-0.07808,-0.0488,-0.03416
-0.03904,0.0366,-0.03416,-0.01464,0.00488,-0.02196,-0.00976,-0.00976,-0.07808,-0.07808,-0.04392,-0.03416
-0.02928,0.03172,-0.03416,-0.01952,-0.00488,-0.0122,-0.00488,0,-0.07808,-0.07808,-0.04392,-0.03416
-0.03416,0.0366,-0.03904,-0.02196,-0.00488,-0.01464,-0.00488,0.00488,-0.06832,-0.06832,-0.03904,-0.03416
-0.03904,0.03904,-0.03904,-0.01952,0,-0.01952,0.00488,0.00976,-0.06344,-0.05856,-0.03904,-0.0244
-0.03904,0.03904,-0.03904,-0.01952,0,-0.01952,0.00488,0.00976,-0.05856,-0.05856,-0.03904,-0.0244
-0.03904,0.03416,-0.02928,-0.00976,0.00976,-0.0244,0,0.00976,-0.05856,-0.05368,-0.03904,-0.01952
-0.03904,0.03416,-0.02928,-0.00976,0.00976,-0.0244,-0.00488,0.01464,-0.05368,-0.0488,-0.03416,-0.01952
-0.02928,0.03416,-0.03904,-0.0244,-0.00976,-0.00976,0,0.01952,-0.0488,-0.0488,-0.03416,-0.00976
-0.0244,0.0244,-0.0244,-0.0122,0,-0.0122,0,0.01952,-0.04392,-0.04392,-0.03416,-0.00976
-0.0244,0.02928,-0.03416,-0.02196,-0.00976,-0.00732,0,0.01952,-0.03416,-0.04392,-0.0244,-0.01952
-0.0244,0.02928,-0.03416,-0.02196,-0.00976,-0.00732,0.00488,0.0244,-0.02928,-0.03904,-0.01952,-0.01464
-0.03416,0.02928,-0.0244,-0.00732,0.00976,-0.02196,-0.00488,0.01952,-0.0244,-0.03416,-0.0244,-0.00488
-0.02928,0.02196,-0.01464,0,0.01464,-0.02196,-0.00488,0.0244,-0.01952,-0.0244,-0.01952,0
-0.01952,0.01952,-0.01952,-0.00976,0,-0.00976,0.00488,0.03904,-0.01464,-0.0244,-0.01952,0
-0.01952,0.01952,-0.01952,-0.00976,0,-0.00976,0.00488,0.03904,-0.00976,-0.01952,-0.01952,0.00488
-0.02928,0.02196,-0.01464,0,0.01464,-0.02196,-0.00488,0.04392,-0.00488,-0.01464,-0.01464,0
-0.02928,0.01952,-0.00976,0.00488,0.01952,-0.0244,-0.00488,0.05368,0.00488,-0.01464,-0.00976,0
-0.0244,0.01708,-0.00976,0.00244,0.01464,-0.01952,-0.00488,0.0488,0.00976,-0.01464,-0.01952,-0.00488
-0.0244,0.01464,-0.00488,0.00732,0.01952,-0.02196,0,0.05368,0.01952,-0.01464,-0.01464,-0.00488
-0.00976,0.00488,0,0.00488,0.00976,-0.00976,0,0.05368,0.02928,0.00488,0,0.00976
-0.00488,0,0.00488,0.00732,0.00976,-0.00732,0,0.06344,0.03904,0.00976,0.00488,0.00976
0,-0.00244,0.00488,0.00488,0.00488,-0.00244,0,0.06832,0.0488,0.00976,0.00488,0.00488
0.00488,-0.00732,0.00976,0.00732,0.00488,0,0,0.07808,0.05856,0.01464,0.00976,0.00488
-0.00488,-0.00488,0.01464,0.01708,0.01952,-0.0122,0,0.08784,0.06832,0.0244,0.00488,0.01464
-0.00488,-0.00732,0.01952,0.02196,0.0244,-0.01464,0,0.09272,0.07808,0.03904,0.00488,0.01952
-0.00488,-0.00732,0.01952,0.02196,0.0244,-0.01464,0.00488,0.10248,0.0976,0.03904,0.0244,0.03416
0.00488,-0.01464,0.0244,0.02196,0.01952,-0.00732,0.00488,0.11224,0.10248,0.04392,0.02928,0.03904
0.00488,-0.01464,0.0244,0.02196,0.01952,-0.00732,0.00488,0.12688,0.12688,0.06344,0.03416,0.04392
0.00976,-0.02196,0.03416,0.02928,0.0244,-0.00732,0.00488,0.13664,0.14152,0.0732,0.03904,0.0488
0.0244,-0.03416,0.04392,0.03172,0.01952,0.00244,0.00976,0.15128,0.16104,0.08296,0.0488,0.05368
0.02928,-0.04148,0.05368,0.03904,0.0244,0.00244,0.00976,0.17568,0.18056,0.09272,0.05856,0.05856
0.04392,-0.0488,0.05368,0.03172,0.00976,0.01708,0.00976,0.19032,0.20008,0.11224,0.0732,0.05856
0.04392,-0.0488,0.05368,0.03172,0.00976,0.01708,0.01464,0.20496,0.22448,0.12688,0.07808,0.0732
0.04392,-0.05124,0.05856,0.0366,0.01464,0.01464,0.01952,0.2196,0.244,0.14152,0.08784,0.07808
0.04392,-0.05368,0.06344,0.04148,0.01952,0.0122,0.01952,0.22936,0.26352,0.15616,0.0976,0.08296
0.05368,-0.061,0.06832,0.04148,0.01464,0.01952,0.01952,0.25376,0.30256,0.1708,0.10736,0.09272
0.05368,-0.06832,0.08296,0.05612,0.02928,0.0122,0.0244,0.26352,0.32208,0.1952,0.11712,0.0976
0.05856,-0.06832,0.07808,0.0488,0.01952,0.01952,0.02928,0.28304,0.3416,0.20008,0.122,0.11224
0.06344,-0.07076,0.07808,0.04636,0.01464,0.0244,0.02928,0.29768,0.366,0.2196,0.13176,0.122
0.06832,-0.0732,0.07808,0.04392,0.00976,0.02928,0.03416,0.30744,0.37576,0.22448,0.14152,0.122
0.0732,-0.07808,0.08296,0.04636,0.00976,0.03172,0.03904,0.32208,0.39528,0.23424,0.14152,0.13176
0.06832,-0.08296,0.0976,0.06344,0.02928,0.01952,0.03416,0.32208,0.4148,0.24888,0.1464,0.122
0.06832,-0.09028,0.11224,0.07808,0.04392,0.0122,0.03904,0.33184,0.42944,0.25864,0.15128,0.13176
0.07808,-0.0976,0.11712,0.07808,0.03904,0.01952,0.03416,0.32208,0.42944,0.25864,0.15616,0.13176
0.07808,-0.10004,0.122,0.08296,0.04392,0.01708,0.03904,0.32696,0.43432,0.25864,0.15616,0.13176
0.08784,-0.10492,0.122,0.07808,0.03416,0.02684,0.04392,0.33184,0.42456,0.24888,0.1464,0.122
0.08784,-0.10492,0.122,0.07808,0.03416,0.02684,0.04392,0.32208,0.42944,0.24888,0.15128,0.122
0.07808,-0.10004,0.122,0.08296,0.04392,0.01708,0.0488,0.3172,0.4392,0.25864,0.16104,0.13176
0.06832,-0.0976,0.12688,0.09272,0.05856,0.00488,0.04392,0.29768,0.42456,0.24888,0.15616,0.13176
0.07808,-0.0976,0.11712,0.07808,0.03904,0.01952,0.03416,0.2928,0.4148,0.244,0.15128,0.13176
0.08296,-0.10004,0.11712,0.07564,0.03416,0.0244,0.02928,0.27328,0.39528,0.23912,0.15128,0.12688
0.06344,-0.0854,0.10736,0.07564,0.04392,0.00976,0.03416,0.25376,0.38064,0.23424,0.16104,0.12688
0.05856,-0.08296,0.10736,0.07808,0.0488,0.00488,0.0244,0.22448,0.35136,0.21472,0.15128,0.122
0.05856,-0.09028,0.122,0.09272,0.06344,-0.00244,0.00488,0.18544,0.30256,0.20008,0.13664,0.11224
0.0488,-0.08052,0.11224,0.08784,0.06344,-0.00732,-0.00488,0.15616,0.2684,0.18544,0.11712,0.10736
0.03416,-0.06832,0.10248,0.0854,0.06832,-0.01708,0,0.13176,0.244,0.16104,0.10736,0.09272
0.0244,-0.061,0.0976,0.0854,0.0732,-0.0244,0,0.11224,0.20008,0.14152,0.09272,0.08296
0.01952,-0.05856,0.0976,0.08784,0.07808,-0.02928,-0.01464,0.09272,0.17568,0.122,0.08296,0.0732
0.01464,-0.05368,0.09272,0.0854,0.07808,-0.03172,-0.01952,0.06832,0.14152,0.10248,0.0732,0.05856
0.01464,-0.04392,0.0732,0.06588,0.05856,-0.02196,-0.01952,0.05368,0.10736,0.08296,0.05856,0.05368
0.00976,-0.0366,0.06344,0.05856,0.05368,-0.02196,-0.0244,0.03416,0.08296,0.06832,0.0488,0.0488
0.00976,-0.03172,0.05368,0.0488,0.04392,-0.01708,-0.03416,0.00976,0.05368,0.03904,0.03416,0.03904
0,-0.0244,0.0488,0.0488,0.0488,-0.0244,-0.03416,-0.00976,0.0244,0.0244,0.02928,0.02928
0,-0.02196,0.04392,0.04392,0.04392,-0.02196,-0.03416,-0.00976,0.01952,0.01464,0.01464,0.02928
-0.00976,-0.01464,0.03904,0.04392,0.0488,-0.02928,-0.02928,-0.00976,0,0.00488,0.00488,0.0244
-0.01464,-0.00732,0.02928,0.0366,0.04392,-0.02928,-0.03416,-0.01952,-0.00488,0.00488,0,0.01952
-0.01464,-0.00732,0.02928,0.0366,0.04392,-0.02928,-0.03416,-0.0244,-0.01952,-0.00488,-0.00976,0.01464
-0.02928,0.00488,0.01952,0.03416,0.0488,-0.03904,-0.0244,-0.03416,-0.03416,-0.01464,-0.00976,0.00976
-0.02928,0.0122,0.00488,0.01952,0.03416,-0.03172,-0.0244,-0.03416,-0.04392,-0.01952,-0.00976,0.00488
-0.03416,0.01464,0.00488,0.02196,0.03904,-0.0366,-0.01952,-0.04392,-0.05368,-0.03416,-0.0244,-0.00976
-0.03416,0.01464,0.00488,0.02196,0.03904,-0.0366,-0.0244,-0.04392,-0.05856,-0.03904,-0.0244,-0.00976
-0.03416,0.01464,0.00488,0.02196,0.03904,-0.0366,-0.0244,-0.03416,-0.05856,-0.04392,-0.02928,-0.00976
-0.03416,0.0122,0.00976,0.02684,0.04392,-0.03904,-0.0244,-0.03904,-0.05856,-0.04392,-0.03416,-0.01464
-0.03416,0.01952,-0.00488,0.0122,0.02928,-0.03172,-0.0244,-0.03904,-0.05856,-0.04392,-0.03416,-0.00488
-0.03416,0.01952,-0.00488,0.0122,0.02928,-0.03172,-0.0244,-0.03904,-0.05856,-0.04392,-0.03416,-0.00488
-0.03416,0.01952,-0.00488,0.0122,0.02928,-0.03172,-0.0244,-0.03904,-0.06344,-0.03904,-0.02928,-0.01464
-0.03416,0.01952,-0.00488,0.0122,0.02928,-0.03172,-0.0244,-0.03904,-0.06344,-0.03904,-0.02928,-0.00976
-0.03416,0.0122,0.00976,0.02684,0.04392,-0.03904,-0.0244,-0.03904,-0.06344,-0.03416,-0.01952,0
-0.03416,0.00732,0.01952,0.0366,0.05368,-0.04392,-0.0244,-0.03904,-0.06344,-0.03416,-0.01952,-0.00488
-0.03416,0.0122,0.00976,0.02684,0.04392,-0.03904,-0.0244,-0.03904,-0.06344,-0.04392,-0.02928,0
-0.02928,0.01464,0,0.01464,0.02928,-0.02928,-0.0244,-0.03904,-0.06344,-0.04392,-0.02928,0.00488
-0.02928,0.01708,-0.00488,0.00976,0.0244,-0.02684,-0.0244,-0.03904,-0.05856,-0.03904,-0.02928,-0.00488
-0.02928,0.01464,0,0.01464,0.02928,-0.02928,-0.0244,-0.03416,-0.05856,-0.03904,-0.0244,-0.00488
-0.03416,0.01708,0,0.01708,0.03416,-0.03416,-0.0244,-0.03904,-0.0488,-0.02928,-0.03416,0.00488
-0.02928,0.01464,0,0.01464,0.02928,-0.02928,-0.0244,-0.03416,-0.0488,-0.02928,-0.02928,0.00488
-0.0244,0.00732,0.00976,0.02196,0.03416,-0.02928,-0.01464,-0.02928,-0.05856,-0.03416,-0.01952,0.00488
-0.0244,0.00488,0.01464,0.02684,0.03904,-0.03172,-0.01952,-0.02928,-0.05856,-0.03904,-0.01952,0.00488
-0.0244,-0.00244,0.02928,0.04148,0.05368,-0.03904,-0.02928,-0.03904,-0.0488,-0.03904,-0.01952,0.00488
-0.01952,-0.00976,0.03904,0.0488,0.05856,-0.03904,-0.02928,-0.03904,-0.0488,-0.03416,-0.01464,0.00488
-0.02928,0,0.02928,0.04392,0.05856,-0.04392,-0.03416,-0.02928,-0.05856,-0.0244,-0.0244,0.00488
-0.02928,0.00488,0.01952,0.03416,0.0488,-0.03904,-0.02928,-0.0244,-0.05856,-0.0244,-0.0244,0.00488
-0.03416,0.0122,0.00976,0.02684,0.04392,-0.03904,-0.03416,-0.03904,-0.05856,-0.01952,-0.01464,0.00976
-0.03416,0.01464,0.00488,0.02196,0.03904,-0.0366,-0.03416,-0.03904,-0.06344,-0.0244,-0.01464,0.00976
-0.03416,0.00976,0.01464,0.03172,0.0488,-0.04148,-0.0244,-0.03904,-0.0488,-0.02928,-0.01464,0
-0.02928,0.00732,0.01464,0.02928,0.04392,-0.0366,-0.0244,-0.03904,-0.0488,-0.02928,-0.01464,0
-0.01952,0,0.01952,0.02928,0.03904,-0.02928,-0.03416,-0.03904,-0.06344,-0.02928,-0.0244,0
-0.0244,0.00488,0.01464,0.02684,0.03904,-0.03172,-0.03416,-0.04392,-0.06344,-0.03416,-0.0244,0
-0.02928,0.00732,0.01464,0.02928,0.04392,-0.0366,-0.03416,-0.03904,-0.06344,-0.03416,-0.01952,-0.00488
-0.02928,0.00976,0.00976,0.0244,0.03904,-0.03416,-0.03416,-0.04392,-0.06344,-0.03416,-0.01952,-0.00488
-0.02928,0.01464,0,0.01464,0.02928,-0.02928,-0.03416,-0.03416,-0.06832,-0.03416,-0.01952,0.00488
-0.02928,0.01464,0,0.01464,0.02928,-0.02928,-0.03904,-0.03416,-0.06832,-0.03904,-0.0244,0
-0.04392,0.01952,0.00488,0.02684,0.0488,-0.04636,-0.0244,-0.04392,-0.06344,-0.02928,-0.0244,0
-0.02928,0.0122,0.00488,0.01952,0.03416,-0.03172,-0.0244,-0.0488,-0.06344,-0.03416,-0.0244,0
-0.0244,0.0122,0,0.0122,0.0244,-0.0244,-0.02928,-0.04392,-0.06344,-0.04392,-0.02928,-0.01464
-0.0244,0.00976,0.00488,0.01708,0.02928,-0.02684,-0.03416,-0.0488,-0.06344,-0.04392,-0.02928,-0.01464
-0.02928,0.0122,0.00488,0.01952,0.03416,-0.03172,-0.03416,-0.0488,-0.06832,-0.0488,-0.03904,-0.01464
-0.02928,0.01708,-0.00488,0.00976,0.0244,-0.02684,-0.03416,-0.0488,-0.06832,-0.0488,-0.03904,-0.01464
-0.02928,0.01952,-0.00976,0.00488,0.01952,-0.0244,-0.03416,-0.05368,-0.07808,-0.05368,-0.04392,-0.01952
-0.03416,0.02196,-0.00976,0.00732,0.0244,-0.02928,-0.03416,-0.05368,-0.08296,-0.05368,-0.04392,-0.0244
-0.0244,0.0122,0,0.0122,0.0244,-0.0244,-0.03416,-0.04392,-0.08296,-0.05368,-0.03904,-0.01952
-0.0244,0.01708,-0.00976,0.00244,0.01464,-0.01952,-0.03416,-0.04392,-0.08296,-0.05856,-0.03904,-0.0244
-0.0244,0.01464,-0.00488,0.00732,0.01952,-0.02196,-0.03416,-0.05368,-0.07808,-0.05856,-0.0488,-0.0244
-0.0244,0.01708,-0.00976,0.00244,0.01464,-0.01952,-0.03416,-0.05856,-0.08296,-0.06344,-0.0488,-0.0244
-0.03416,0.01708,0,0.01708,0.03416,-0.03416,-0.03416,-0.05856,-0.09272,-0.0732,-0.05856,-0.0244
-0.02928,0.01464,0,0.01464,0.02928,-0.02928,-0.03416,-0.05856,-0.0976,-0.0732,-0.06344,-0.0244
-0.02928,0.01464,0,0.01464,0.02928,-0.02928,-0.03416,-0.05856,-0.08784,-0.06344,-0.05368,-0.02928
-0.03416,0.01708,0,0.01708,0.03416,-0.03416,-0.04392,-0.05856,-0.08784,-0.06832,-0.04392,-0.02928
-0.0244,0.01708,-0.00976,0.00244,0.01464,-0.01952,-0.03416,-0.05856,-0.08784,-0.06832,-0.04392,-0.01952
-0.02928,0.0244,-0.01952,-0.00488,0.00976,-0.01952,-0.03416,-0.05856,-0.08784,-0.06832,-0.0488,-0.01952
-0.02928,0.01708,-0.00488,0.00976,0.0244,-0.02684,-0.03416,-0.05856,-0.10248,-0.0732,-0.0488,-0.02928
-0.02928,0.01708,-0.00488,0.00976,0.0244,-0.02684,-0.03416,-0.05856,-0.10248,-0.0732,-0.0488,-0.03416
-0.02928,0.01708,-0.00488,0.00976,0.0244,-0.02684,-0.03416,-0.06344,-0.10248,-0.08296,-0.05856,-0.03904
-0.02928,0.01708,-0.00488,0.00976,0.0244,-0.02684,-0.03416,-0.06344,-0.0976,-0.08296,-0.05856,-0.03904
-0.02928,0.02196,-0.01464,0,0.01464,-0.02196,-0.03416,-0.06344,-0.0976,-0.08784,-0.06344,-0.03904
-0.03416,0.0244,-0.01464,0.00244,0.01952,-0.02684,-0.03416,-0.05856,-0.0976,-0.08784,-0.06344,-0.03416
-0.03416,0.0244,-0.01464,0.00244,0.01952,-0.02684,-0.03904,-0.05368,-0.0976,-0.07808,-0.06344,-0.03904
-0.02928,0.0244,-0.01952,-0.00488,0.00976,-0.01952,-0.03904,-0.05368,-0.0976,-0.07808,-0.06832,-0.03904
-0.03904,0.02928,-0.01952,0,0.01952,-0.02928,-0.03416,-0.05856,-0.0976,-0.07808,-0.06344,-0.03904
-0.04392,0.03172,-0.01952,0.00244,0.0244,-0.03416,-0.03416,-0.06344,-0.09272,-0.07808,-0.06344,-0.03416
-0.03416,0.02196,-0.00976,0.00732,0.0244,-0.02928,-0.03416,-0.06344,-0.10248,-0.07808,-0.06344,-0.04392
-0.03416,0.02196,-0.00976,0.00732,0.0244,-0.02928,-0.03416,-0.06344,-0.10248,-0.07808,-0.06344,-0.04392
-0.03416,0.02196,-0.00976,0.00732,0.0244,-0.02928,-0.03416,-0.06344,-0.10248,-0.07808,-0.05368,-0.04392
-0.03416,0.02196,-0.00976,0.00732,0.0244,-0.02928,-0.03416,-0.06344,-0.10736,-0.07808,-0.05368,-0.04392
-0.03416,0.0244,-0.01464,0.00244,0.01952,-0.02684,-0.03416,-0.06344,-0.0976,-0.07808,-0.06344,-0.04392
-0.02928,0.0244,-0.01952,-0.00488,0.00976,-0.01952,-0.03416,-0.06344,-0.0976,-0.07808,-0.06344,-0.04392
-0.02928,0.02928,-0.02928,-0.01464,0,-0.01464,-0.0244,-0.05856,-0.0976,-0.07808,-0.05368,-0.03416
-0.03416,0.03416,-0.03416,-0.01708,0,-0.01708,-0.0244,-0.05368,-0.09272,-0.07808,-0.0488,-0.03416
-0.03416,0.02684,-0.01952,-0.00244,0.01464,-0.0244,-0.03416,-0.05368,-0.10248,-0.07808,-0.05856,-0.03904
-0.03416,0.02684,-0.01952,-0.00244,0.01464,-0.0244,-0.03416,-0.05368,-0.10736,-0.08296,-0.05856,-0.03904
-0.03416,0.03416,-0.03416,-0.01708,0,-0.01708,-0.03416,-0.06344,-0.0976,-0.08296,-0.05856,-0.03904
-0.03416,0.03416,-0.03416,-0.01708,0,-0.01708,-0.03416,-0.06344,-0.0976,-0.08296,-0.05368,-0.03416
-0.03416,0.02684,-0.01952,-0.00244,0.01464,-0.0244,-0.03416,-0.06344,-0.10736,-0.08784,-0.06344,-0.04392
-0.03416,0.02196,-0.00976,0.00732,0.0244,-0.02928,-0.03416,-0.06344,-0.10736,-0.08784,-0.06344,-0.04392
-0.04392,0.02684,-0.00976,0.0122,0.03416,-0.03904,-0.0244,-0.06344,-0.09272,-0.08784,-0.06344,-0.0488
-0.04392,0.03172,-0.01952,0.00244,0.0244,-0.03416,-0.0244,-0.06344,-0.0976,-0.08784,-0.06344,-0.04392
-0.03904,0.03416,-0.02928,-0.00976,0.00976,-0.0244,-0.0244,-0.05856,-0.08784,-0.07808,-0.05368,-0.03416
-0.03904,0.0366,-0.03416,-0.01464,0.00488,-0.02196,-0.0244,-0.05856,-0.09272,-0.07808,-0.05368,-0.03416
-0.04392,0.03416,-0.0244,-0.00244,0.01952,-0.03172,-0.03416,-0.05856,-0.0976,-0.08296,-0.05856,-0.03416
-0.0488,0.0366,-0.0244,0,0.0244,-0.0366,-0.03416,-0.05856,-0.10248,-0.08296,-0.05856,-0.03904
-0.04392,0.03416,-0.0244,-0.00244,0.01952,-0.03172,-0.03416,-0.06832,-0.10248,-0.08296,-0.05856,-0.0488
-0.04392,0.03416,-0.0244,-0.00244,0.01952,-0.03172,-0.03416,-0.06832,-0.0976,-0.08784,-0.05856,-0.0488
-0.04392,0.03416,-0.0244,-0.00244,0.01952,-0.03172,-0.03416,-0.06832,-0.10736,-0.08296,-0.05856,-0.0488
-0.04392,0.03416,-0.0244,-0.00244,0.01952,-0.03172,-0.03416,-0.06832,-0.10248,-0.08296,-0.05856,-0.0488
-0.04392,0.03904,-0.03416,-0.0122,0.00976,-0.02684,-0.0244,-0.05856,-0.09272,-0.07808,-0.05856,-0.03904
-0.04392,0.04148,-0.03904,-0.01708,0.00488,-0.0244,-0.0244,-0.05856,-0.09272,-0.07808,-0.05856,-0.03904
-0.04392,0.03904,-0.03416,-0.0122,0.00976,-0.02684,-0.03416,-0.06832,-0.0976,-0.08296,-0.05856,-0.0488
-0.04392,0.03904,-0.03416,-0.0122,0.00976,-0.02684,-0.03416,-0.06832,-0.0976,-0.07808,-0.05856,-0.04392
-0.0488,0.04392,-0.03904,-0.01464,0.00976,-0.02928,-0.0244,-0.05856,-0.0976,-0.08784,-0.05368,-0.04392
-0.04392,0.04148,-0.03904,-0.01708,0.00488,-0.0244,-0.0244,-0.05368,-0.10248,-0.08784,-0.05368,-0.04392
-0.03416,0.02928,-0.0244,-0.00732,0.00976,-0.02196,-0.03416,-0.06344,-0.10248,-0.08784,-0.05856,-0.0488
-0.03416,0.02928,-0.0244,-0.00732,0.00976,-0.02196,-0.03416,-0.06344,-0.10248,-0.08296,-0.05856,-0.0488
-0.0488,0.03904,-0.02928,-0.00488,0.01952,-0.03416,-0.01952,-0.05368,-0.08784,-0.08296,-0.05856,-0.03904
-0.0488,0.03904,-0.02928,-0.00488,0.01952,-0.03416,-0.02928,-0.06832,-0.0976,-0.08784,-0.05856,-0.03904
-0.0488,0.04392,-0.03904,-0.01464,0.00976,-0.02928,-0.02928,-0.05856,-0.0976,-0.07808,-0.0488,-0.03904
-0.0488,0.04392,-0.03904,-0.01464,0.00976,-0.02928,-0.02928,-0.05856,-0.0976,-0.07808,-0.0488,-0.03904
-0.0488,0.03904,-0.02928,-0.00488,0.01952,-0.03416,-0.02928,-0.06832,-0.0976,-0.08784,-0.05856,-0.0488
-0.0488,0.03416,-0.01952,0.00488,0.02928,-0.03904,-0.02928,-0.06832,-0.0976,-0.08784,-0.05856,-0.0488
-0.03904,0.0244,-0.00976,0.00976,0.02928,-0.03416,-0.02928,-0.06832,-0.0976,-0.07808,-0.05856,-0.0488
-0.03904,0.0244,-0.00976,0.00976,0.02928,-0.03416,-0.02928,-0.06832,-0.0976,-0.07808,-0.05856,-0.0488
-0.03904,0.02928,-0.01952,0,0.01952,-0.02928,-0.02928,-0.06832,-0.0976,-0.08784,-0.05856,-0.0488
-0.03904,0.02928,-0.01952,0,0.01952,-0.02928,-0.02928,-0.06832,-0.0976,-0.08784,-0.05856,-0.0488
-0.0488,0.03904,-0.02928,-0.00488,0.01952,-0.03416,-0.02928,-0.06832,-0.0976,-0.08784,-0.05856,-0.0488
-0.0488,0.03904,-0.02928,-0.00488,0.01952,-0.03416,-0.02928,-0.06832,-0.0976,-0.08784,-0.05856,-0.0488
-0.0488,0.03904,-0.02928,-0.00488,0.01952,-0.03416,-0.02928,-0.06832,-0.0976,-0.08784,-0.06832,-0.0488
-0.0488,0.03904,-0.02928,-0.00488,0.01952,-0.03416,-0.02928,-0.06832,-0.0976,-0.08784,-0.06832,-0.0488
-0.05856,0.04392,-0.02928,0,0.02928,-0.04392,-0.01952,-0.05856,-0.0976,-0.08784,-0.05856,-0.0488
-0.05856,0.04392,-0.02928,0,0.02928,-0.04392,-0.01952,-0.05856,-0.0976,-0.08784,-0.05856,-0.0488
-0.0488,0.03904,-0.02928,-0.00488,0.01952,-0.03416,-0.02928,-0.06832,-0.10736,-0.08784,-0.06832,-0.0488
-0.0488,0.03904,-0.02928,-0.00488,0.01952,-0.03416,-0.02928,-0.06832,-0.10736,-0.08784,-0.06832,-0.0488
-0.0488,0.03416,-0.01952,0.00488,0.02928,-0.03904,-0.02928,-0.06832,-0.10736,-0.08784,-0.05856,-0.0488
-0.0488,0.02928,-0.00976,0.01464,0.03904,-0.04392,-0.02928,-0.06832,-0.10736,-0.08784,-0.05856,-0.0488
-0.05856,0.03904,-0.01952,0.00976,0.03904,-0.0488,-0.01952,-0.05856,-0.0976,-0.08784,-0.05856,-0.0488
-0.05856,0.04392,-0.02928,0,0.02928,-0.04392,-0.01952,-0.05856,-0.0976,-0.08784,-0.05856,-0.0488
-0.05856,0.04392,-0.02928,0,0.02928,-0.04392,-0.01952,-0.06832,-0.0976,-0.08784,-0.06832,-0.05856
-0.05856,0.04392,-0.02928,0,0.02928,-0.04392,-0.01952,-0.06832,-0.0976,-0.08784,-0.06832,-0.05856
-0.0488,0.03416,-0.01952,0.00488,0.02928,-0.03904,-0.01952,-0.06832,-0.0976,-0.08784,-0.06832,-0.05856
-0.0488,0.03416,-0.01952,0.00488,0.02928,-0.03904,-0.01952,-0.06832,-0.0976,-0.08784,-0.06832,-0.05856
-0.0488,0.03416,-0.01952,0.00488,0.02928,-0.03904,-0.01952,-0.06832,-0.0976,-0.0976,-0.06832,-0.05856
-0.0488,0.03416,-0.01952,0.00488,0.02928,-0.03904,-0.01952,-0.06832,-0.0976,-0.0976,-0.06832,-0.05856
-0.05368,0.03904,-0.0244,0.00244,0.02928,-0.04148,-0.02928,-0.06344,-0.0976,-0.08784,-0.06832,-0.05856
-0.05368,0.03904,-0.0244,0.00244,0.02928,-0.04148,-0.02928,-0.06344,-0.0976,-0.0976,-0.0732,-0.05856
-0.04392,0.03172,-0.01952,0.00244,0.0244,-0.03416,-0.0244,-0.06832,-0.0976,-0.09272,-0.05856,-0.0488
-0.04392,0.02684,-0.00976,0.0122,0.03416,-0.03904,-0.0244,-0.06344,-0.09272,-0.07808,-0.05368,-0.04392
-0.04392,0.02196,0,0.02196,0.04392,-0.04392,-0.00976,-0.05856,-0.08296,-0.07808,-0.0488,-0.04392
-0.04392,0.01952,0.00488,0.02684,0.0488,-0.04636,0,-0.0488,-0.07808,-0.06832,-0.0488,-0.03904
-0.0488,0.00976,0.02928,0.05368,0.07808,-0.06344,-0.00976,-0.0488,-0.06832,-0.06832,-0.03904,-0.04392
-0.04392,0,0.04392,0.06588,0.08784,-0.06588,-0.00976,-0.0488,-0.06832,-0.06344,-0.03416,-0.04392
-0.04392,0,0.04392,0.06588,0.08784,-0.06588,-0.00976,-0.0488,-0.06344,-0.0488,-0.02928,-0.03416
-0.04392,-0.00488,0.05368,0.07564,0.0976,-0.07076,-0.00976,-0.04392,-0.05368,-0.0488,-0.0244,-0.03416
-0.03416,-0.0122,0.05856,0.07564,0.09272,-0.06344,0,-0.02928,-0.04392,-0.0488,-0.0244,-0.01952
-0.03416,-0.0122,0.05856,0.07564,0.09272,-0.06344,0.00488,-0.01952,-0.04392,-0.04392,-0.01952,-0.01952
-0.03416,-0.0122,0.05856,0.07564,0.09272,-0.06344,0.00488,-0.01952,-0.03904,-0.04392,-0.01952,-0.01952
-0.02928,-0.01708,0.06344,0.07808,0.09272,-0.061,-0.00488,-0.03904,-0.04392,-0.03904,-0.01952,-0.01464
-0.0244,-0.02196,0.06832,0.08052,0.09272,-0.05856,-0.03904,-0.06832,-0.04392,-0.0488,-0.0244,-0.0244
-0.01952,-0.0244,0.06832,0.07808,0.08784,-0.05368,-0.05856,-0.09272,-0.05368,-0.0488,-0.01952,-0.01952
0.00976,-0.03904,0.06832,0.06344,0.05856,-0.0244,-0.06344,-0.08784,-0.06344,-0.05368,-0.00976,-0.01464
0.00976,-0.03904,0.06832,0.06344,0.05856,-0.0244,-0.06832,-0.08784,-0.06344,-0.05368,-0.00976,-0.00976
0.00488,-0.04148,0.07808,0.07564,0.0732,-0.03416,-0.08296,-0.10248,-0.06344,-0.05368,-0.00976,-0.01464
0.00976,-0.03904,0.06832,0.06344,0.05856,-0.0244,-0.08296,-0.0976,-0.0732,-0.06344,-0.01464,-0.01464
0.00976,-0.03172,0.05368,0.0488,0.04392,-0.01708,-0.0732,-0.0976,-0.0732,-0.0488,-0.01464,-0.01464
0.01464,-0.0366,0.05856,0.05124,0.04392,-0.01464,-0.0732,-0.0976,-0.0732,-0.0488,-0.01464,-0.00976
0.02928,-0.04148,0.05368,0.03904,0.0244,0.00244,-0.0732,-0.09272,-0.06832,-0.0488,-0.01464,-0.00488
0.02928,-0.0366,0.04392,0.02928,0.01464,0.00732,-0.0732,-0.09272,-0.06344,-0.0488,-0.00976,-0.00488
0.01464,-0.0244,0.03416,0.02684,0.01952,-0.00244,-0.08296,-0.10736,-0.08296,-0.06832,-0.0244,-0.00976
0.00488,-0.00732,0.00976,0.00732,0.00488,0,-0.07808,-0.11712,-0.10248,-0.08296,-0.03904,-0.01952
0,0.00732,-0.01464,-0.01464,-0.01464,0.00732,-0.06344,-0.11224,-0.11224,-0.08784,-0.0488,-0.02928
-0.01464,0.0122,-0.00976,-0.00244,0.00488,-0.00976,-0.06344,-0.10736,-0.11712,-0.09272,-0.05368,-0.03416
-0.03416,0.0244,-0.01464,0.00244,0.01952,-0.02684,-0.04392,-0.0976,-0.11224,-0.0976,-0.05856,-0.05368
-0.03904,0.02684,-0.01464,0.00488,0.0244,-0.03172,-0.03416,-0.09272,-0.10736,-0.09272,-0.05856,-0.05856
-0.0488,0.04148,-0.03416,-0.00976,0.01464,-0.03172,-0.03416,-0.08784,-0.11712,-0.10248,-0.0732,-0.05856
-0.04392,0.04148,-0.03904,-0.01708,0.00488,-0.0244,-0.02928,-0.08296,-0.11712,-0.10248,-0.0732,-0.06344
-0.0488,0.03904,-0.02928,-0.00488,0.01952,-0.03416,-0.02928,-0.08296,-0.122,-0.10736,-0.0732,-0.06832
-0.04392,0.03904,-0.03416,-0.0122,0.00976,-0.02684,-0.02928,-0.08296,-0.122,-0.10248,-0.0732,-0.06344
-0.0488,0.04636,-0.04392,-0.01952,0.00488,-0.02684,-0.02928,-0.08296,-0.122,-0.11224,-0.08296,-0.0732
-0.04392,0.04148,-0.03904,-0.01708,0.00488,-0.0244,-0.0244,-0.08296,-0.122,-0.11224,-0.07808,-0.0732
-0.0488,0.04148,-0.03416,-0.00976,0.01464,-0.03172,-0.0244,-0.07808,-0.122,-0.11224,-0.07808,-0.06832
-0.0488,0.04148,-0.03416,-0.00976,0.01464,-0.03172,-0.01952,-0.07808,-0.11712,-0.11224,-0.08296,-0.06832
-0.05368,0.05612,-0.05856,-0.03172,-0.00488,-0.0244,0.00488,-0.03416,-0.10248,-0.122,-0.10248,-0.07808
-0.06832,0.08052,-0.09272,-0.05856,-0.0244,-0.02196,0.03416,0.01464,-0.08784,-0.12688,-0.11224,-0.0976
-0.08296,0.07564,-0.06832,-0.02684,0.01464,-0.0488,0.0488,0.03416,-0.05856,-0.122,-0.12688,-0.122
-0.0732,0.061,-0.0488,-0.0122,0.0244,-0.0488,0.0488,0.03416,0.0244,-0.08296,-0.0976,-0.10736
-0.05856,0.04392,-0.02928,0,0.02928,-0.04392,0.02928,-0.00488,0.08296,0.01952,-0.01464,-0.03416
0,0.01708,-0.03416,-0.03416,-0.03416,0.01708,0.01952,0.05368,0.2196,0.15128,0.05856,0.01952
0.0732,-0.0366,0,-0.0366,-0.0732,0.0732,0.03904,0.16104,0.47336,0.37088,0.18544,0.122
0.1708,-0.13664,0.10248,0.01708,-0.06832,0.11956,0.00488,0.24888,0.78568,0.62952,0.37576,0.27816
0.244,-0.23912,0.23424,0.11224,-0.00976,0.12688,-0.0976,0.122,1.02968,0.94184,0.62952,0.488
0.28304,-0.37088,0.45872,0.3172,0.17568,0.05368,-0.25864,-0.11224,1.22,1.22,0.84424,0.66368
0.29768,-0.43188,0.56608,0.41724,0.2684,0.01464,-0.44896,-0.38064,1.08336,1.15168,0.85888,0.68808
0.19032,-0.37088,0.55144,0.45628,0.36112,-0.0854,-0.57584,-0.72224,0.76128,0.86864,0.72712,0.59536
0.01952,-0.16592,0.31232,0.30256,0.2928,-0.13664,-0.51728,-0.81008,0.20008,0.26352,0.33184,0.31232
-0.12688,-0.02684,0.18056,0.244,0.30744,-0.21716,-0.5124,-0.99552,-0.5124,-0.2196,0.0244,0.07808
-0.13176,0.05612,0.01952,0.0854,0.15128,-0.14152,-0.46848,-0.91256,-0.74176,-0.40504,-0.15616,-0.0732
-0.10736,0.09272,-0.07808,-0.0244,0.02928,-0.06832,-0.44896,-0.84424,-0.81496,-0.4392,-0.18544,-0.09272
-0.06832,0.10248,-0.13664,-0.10248,-0.06832,0,-0.3416,-0.60512,-0.61976,-0.37576,-0.17568,-0.08784
-0.0488,0.09516,-0.14152,-0.11712,-0.09272,0.02196,-0.22448,-0.37576,-0.49288,-0.33672,-0.17568,-0.0976
-0.03904,0.08296,-0.12688,-0.10736,-0.08784,0.0244,-0.1464,-0.21472,-0.3172,-0.23912,-0.14152,-0.08784
-0.0244,0.06344,-0.10248,-0.09028,-0.07808,0.02684,-0.08296,-0.11224,-0.19032,-0.16592,-0.10736,-0.0732
-0.03904,0.061,-0.08296,-0.06344,-0.04392,0.00244,-0.0488,-0.0732,-0.15616,-0.15128,-0.0976,-0.0732
-0.02928,0.04392,-0.05856,-0.04392,-0.02928,0,-0.0244,-0.03904,-0.1464,-0.14152,-0.08784,-0.05856
-0.04392,0.0366,-0.02928,-0.00732,0.01464,-0.02928,0,-0.00976,-0.122,-0.10248,-0.0732,-0.05368
-0.05368,0.04636,-0.03904,-0.0122,0.01464,-0.03416,-0.00488,-0.03416,-0.10248,-0.10248,-0.0732,-0.05856
-0.05368,0.05368,-0.05368,-0.02684,0,-0.02684,0,-0.03416,-0.09272,-0.10736,-0.0732,-0.05856
-0.05856,0.0488,-0.03904,-0.00976,0.01952,-0.03904,0.00976,-0.01464,-0.09272,-0.10736,-0.07808,-0.0732
-0.05856,0.0488,-0.03904,-0.00976,0.01952,-0.03904,0.01952,-0.00488,-0.09272,-0.10736,-0.07808,-0.0732
-0.05368,0.04636,-0.03904,-0.0122,0.01464,-0.03416,0.01952,0.00488,-0.07808,-0.09272,-0.07808,-0.06344
-0.0488,0.04392,-0.03904,-0.01464,0.00976,-0.02928,0.0244,0.00976,-0.06344,-0.08784,-0.07808,-0.06344
-0.05856,0.05124,-0.04392,-0.01464,0.01464,-0.0366,0.03416,0.01464,-0.06344,-0.08784,-0.06832,-0.06344
-0.05856,0.04636,-0.03416,-0.00488,0.0244,-0.04148,0.03904,0.00976,-0.05856,-0.08784,-0.06344,-0.06344
-0.05856,0.05124,-0.04392,-0.01464,0.01464,-0.0366,0.03416,0.01952,-0.05856,-0.08784,-0.06344,-0.06344
-0.06344,0.05612,-0.0488,-0.01708,0.01464,-0.03904,0.03416,0.0244,-0.0488,-0.07808,-0.05856,-0.06344
-0.0488,0.04392,-0.03904,-0.01464,0.00976,-0.02928,0.03416,0.01952,-0.04392,-0.08784,-0.06832,-0.05368
-0.0488,0.04392,-0.03904,-0.01464,0.00976,-0.02928,0.03416,0.01952,-0.03904,-0.08784,-0.06832,-0.05368
-0.0488,0.03904,-0.02928,-0.00488,0.01952,-0.03416,0.03904,0.02928,-0.03904,-0.08296,-0.05856,-0.05856
-0.0488,0.03904,-0.02928,-0.00488,0.01952,-0.03416,0.03416,0.03416,-0.03416,-0.07808,-0.05368,-0.05856
-0.0488,0.04392,-0.03904,-0.01464,0.00976,-0.02928,0.03904,0.02928,-0.02928,-0.07808,-0.06344,-0.06832
-0.04392,0.03416,-0.0244,-0.00244,0.01952,-0.03172,0.03904,0.02928,-0.0244,-0.0732,-0.06344,-0.06832
-0.04392,0.02928,-0.01464,0.00732,0.02928,-0.0366,0.03904,0.02928,-0.0244,-0.0732,-0.06344,-0.05856
-0.04392,0.02928,-0.01464,0.00732,0.02928,-0.0366,0.04392,0.03416,-0.01952,-0.06832,-0.05856,-0.05368
-0.04392,0.03416,-0.0244,-0.00244,0.01952,-0.03172,0.04392,0.0488,-0.00488,-0.06344,-0.05368,-0.05368
-0.03904,0.0366,-0.03416,-0.01464,0.00488,-0.02196,0.04392,0.05368,0,-0.05368,-0.0488,-0.0488
-0.03904,0.02928,-0.01952,0,0.01952,-0.02928,0.03416,0.0488,0.00488,-0.05368,-0.05856,-0.05856
-0.03904,0.02928,-0.01952,0,0.01952,-0.02928,0.03416,0.0488,0.00976,-0.0488,-0.05856,-0.05368
-0.0488,0.03172,-0.01464,0.00976,0.03416,-0.04148,0.04392,0.05368,0.01464,-0.04392,-0.04392,-0.03904
-0.0488,0.02928,-0.00976,0.01464,0.03904,-0.04392,0.04392,0.06344,0.0244,-0.04392,-0.03904,-0.03904
-0.03416,0.02196,-0.00976,0.00732,0.0244,-0.02928,0.04392,0.06832,0.01952,-0.03416,-0.03904,-0.03416
-0.03416,0.01952,-0.00488,0.0122,0.02928,-0.03172,0.0488,0.0732,0.02928,-0.03416,-0.03416,-0.03416
-0.03904,0.01464,0.00976,0.02928,0.0488,-0.04392,0.0488,0.08296,0.0488,-0.0244,-0.02928,-0.03904
-0.03416,0.00976,0.01464,0.03172,0.0488,-0.04148,0.0488,0.09272,0.05856,-0.01952,-0.0244,-0.03904
-0.01952,0.00732,0.00488,0.01464,0.0244,-0.02196,0.05856,0.0976,0.06832,-0.00976,-0.0244,-0.0244
-0.01464,0.00244,0.00976,0.01708,0.0244,-0.01952,0.05856,0.10736,0.07808,-0.00488,-0.01952,-0.0244
-0.01464,0,0.01464,0.02196,0.02928,-0.02196,0.05856,0.11712,0.08784,-0.00488,-0.01464,-0.0244
-0.01464,-0.00244,0.01952,0.02684,0.03416,-0.0244,0.05856,0.122,0.0976,0.00976,-0.01464,-0.01952
-0.01464,0.00244,0.00976,0.01708,0.0244,-0.01952,0.0732,0.14152,0.12688,0.02928,0.00488,-0.00488
-0.00488,0,0.00488,0.00732,0.00976,-0.00732,0.08296,0.16104,0.13176,0.03416,0.00976,0
-0.00488,-0.00976,0.0244,0.02684,0.02928,-0.01708,0.0732,0.16592,0.1464,0.03416,0.00488,-0.00488
0,-0.01708,0.03416,0.03416,0.03416,-0.01708,0.06344,0.17568,0.16104,0.04392,0.00976,0
0.00488,-0.0244,0.04392,0.04148,0.03904,-0.01708,0.06832,0.19032,0.18056,0.06344,0.01952,0.01464
0.00976,-0.03172,0.05368,0.0488,0.04392,-0.01708,0.06832,0.21472,0.20008,0.0732,0.02928,0.01952
0.01464,-0.03416,0.05368,0.04636,0.03904,-0.0122,0.07808,0.22936,0.22936,0.08296,0.04392,0.01952
0.01464,-0.03416,0.05368,0.04636,0.03904,-0.0122,0.08296,0.244,0.25376,0.0976,0.0488,0.03416
0.03416,-0.05124,0.06832,0.05124,0.03416,0,0.08784,0.2684,0.26352,0.122,0.05856,0.03904
0.03416,-0.05368,0.0732,0.05612,0.03904,-0.00244,0.08784,0.27816,0.28304,0.13664,0.06832,0.04392
0.04392,-0.05612,0.06832,0.04636,0.0244,0.00976,0.07808,0.30256,0.31232,0.13176,0.06832,0.05368
0.04392,-0.06344,0.08296,0.061,0.03904,0.00244,0.08296,0.31232,0.33184,0.15616,0.07808,0.05856
0.0488,-0.0732,0.0976,0.0732,0.0488,0,0.0976,0.33184,0.3416,0.16104,0.09272,0.05368
0.05368,-0.07564,0.0976,0.07076,0.04392,0.00488,0.0976,0.34648,0.366,0.18056,0.10248,0.06344
0.05856,-0.07808,0.0976,0.06832,0.03904,0.00976,0.10248,0.35624,0.39528,0.20496,0.122,0.0732
0.06344,-0.08296,0.10248,0.07076,0.03904,0.0122,0.10736,0.37088,0.4148,0.21472,0.122,0.08296
0.06832,-0.08296,0.0976,0.06344,0.02928,0.01952,0.10248,0.38064,0.42456,0.20984,0.11712,0.0732
0.06832,-0.0854,0.10248,0.06832,0.03416,0.01708,0.10736,0.3904,0.4392,0.2196,0.122,0.08296
0.06832,-0.08784,0.10736,0.0732,0.03904,0.01464,0.11224,0.3904,0.44896,0.23912,0.12688,0.08296
0.06832,-0.09028,0.11224,0.07808,0.04392,0.0122,0.11712,0.39528,0.45384,0.23912,0.12688,0.08296
0.06832,-0.09516,0.122,0.08784,0.05368,0.00732,0.11224,0.40016,0.45384,0.22936,0.11712,0.08296
0.06832,-0.09516,0.122,0.08784,0.05368,0.00732,0.11224,0.3904,0.45872,0.22936,0.122,0.08296
0.05856,-0.09028,0.122,0.09272,0.06344,-0.00244,0.10736,0.38552,0.45872,0.22936,0.13176,0.08296
0.05856,-0.09272,0.12688,0.0976,0.06832,-0.00488,0.10248,0.366,0.44408,0.2196,0.12688,0.08296
0.05856,-0.09272,0.12688,0.0976,0.06832,-0.00488,0.10248,0.35136,0.43432,0.22448,0.122,0.08296
0.05368,-0.09028,0.12688,0.10004,0.0732,-0.00976,0.0976,0.33184,0.4148,0.2196,0.122,0.07808
0.04392,-0.08052,0.11712,0.09516,0.0732,-0.01464,0.10248,0.30256,0.40016,0.21472,0.122,0.07808
0.03904,-0.07808,0.11712,0.0976,0.07808,-0.01952,0.09272,0.27328,0.37088,0.1952,0.11224,0.0732
0.03904,-0.07564,0.11224,0.09272,0.0732,-0.01708,0.0732,0.23424,0.32208,0.1708,0.0976,0.06344
0.02928,-0.06588,0.10248,0.08784,0.0732,-0.02196,0.06344,0.20496,0.28792,0.15616,0.08784,0.05856
0.0244,-0.06344,0.10248,0.09028,0.07808,-0.02684,0.06832,0.1708,0.27328,0.13176,0.08784,0.05368
0.01464,-0.05612,0.0976,0.09028,0.08296,-0.03416,0.05856,0.14152,0.22936,0.11224,0.0732,0.04392
0.00976,-0.05368,0.0976,0.09272,0.08784,-0.03904,0.04392,0.11224,0.18544,0.10248,0.05368,0.03416
0.00488,-0.0488,0.09272,0.09028,0.08784,-0.04148,0.03904,0.08784,0.15128,0.08296,0.04392,0.01952
0.00488,-0.0488,0.09272,0.09028,0.08784,-0.04148,0.02928,0.0732,0.12688,0.06344,0.02928,0.01464
0,-0.04148,0.08296,0.08296,0.08296,-0.04148,0.0244,0.05368,0.10248,0.0488,0.01952,0.00976
0,-0.03172,0.06344,0.06344,0.06344,-0.03172,0.0244,0.03904,0.0732,0.01952,0.00488,0
-0.00976,-0.0244,0.05856,0.06344,0.06832,-0.03904,0.0244,0.01952,0.04392,0.00488,0,-0.00976
-0.00976,-0.02196,0.05368,0.05856,0.06344,-0.0366,0.01464,0.00976,0.02928,-0.00488,-0.01464,-0.01952
-0.01952,-0.01464,0.0488,0.05856,0.06832,-0.04392,0.01952,0,0.00976,-0.01464,-0.0244,-0.0244
-0.03416,0.00244,0.02928,0.04636,0.06344,-0.0488,0.01464,-0.00976,-0.00488,-0.0244,-0.01952,-0.02928
-0.03416,0.00244,0.02928,0.04636,0.06344,-0.0488,0.01464,-0.01464,-0.01952,-0.03416,-0.02928,-0.03416
-0.03904,0,0.03904,0.05856,0.07808,-0.05856,0.01464,-0.0244,-0.0244,-0.04392,-0.0488,-0.0488
-0.03904,0.00732,0.0244,0.04392,0.06344,-0.05124,0.01464,-0.0244,-0.03416,-0.0488,-0.0488,-0.05368
-0.03416,0.00488,0.0244,0.04148,0.05856,-0.04636,0.00976,-0.03416,-0.05368,-0.05368,-0.05368,-0.05856
-0.03416,0.00488,0.0244,0.04148,0.05856,-0.04636,0.00488,-0.03416,-0.05856,-0.05856,-0.05368,-0.05856
-0.03416,0.00976,0.01464,0.03172,0.0488,-0.04148,0.00488,-0.04392,-0.06832,-0.06344,-0.05856,-0.0488
-0.03416,0.00732,0.01952,0.0366,0.05368,-0.04392,0.00488,-0.0488,-0.06832,-0.06344,-0.06344,-0.05368
-0.04392,0.01952,0.00488,0.02684,0.0488,-0.04636,0.01464,-0.03904,-0.05856,-0.06344,-0.06344,-0.05368
-0.04392,0.01952,0.00488,0.02684,0.0488,-0.04636,0.01464,-0.03904,-0.05856,-0.06344,-0.06344,-0.05368
-0.04392,0.01464,0.01464,0.0366,0.05856,-0.05124,0.00488,-0.03904,-0.06344,-0.07808,-0.05856,-0.05368
-0.04392,0.01464,0.01464,0.0366,0.05856,-0.05124,0.00488,-0.03904,-0.06344,-0.07808,-0.05856,-0.0488
-0.04392,0.01708,0.00976,0.03172,0.05368,-0.0488,0.01464,-0.03904,-0.06344,-0.06344,-0.0488,-0.0488
-0.04392,0.01708,0.00976,0.03172,0.05368,-0.0488,0.01464,-0.03904,-0.06344,-0.06344,-0.0488,-0.05368
-0.03416,0.01708,0,0.01708,0.03416,-0.03416,0.01464,-0.03904,-0.06344,-0.06344,-0.0488,-0.03904
-0.02928,0.01464,0,0.01464,0.02928,-0.02928,0.01464,-0.03904,-0.06344,-0.06344,-0.0488,-0.03416
-0.02928,0.0122,0.00488,0.01952,0.03416,-0.03172,0.00488,-0.03904,-0.05856,-0.05856,-0.0488,-0.04392
-0.02928,0.00976,0.00976,0.0244,0.03904,-0.03416,0.00488,-0.03416,-0.05856,-0.05856,-0.04392,-0.04392
-0.03416,0.0122,0.00976,0.02684,0.04392,-0.03904,0.01464,-0.03904,-0.05856,-0.05856,-0.04392,-0.04392
-0.02928,0.00976,0.00976,0.0244,0.03904,-0.03416,0.01464,-0.03416,-0.05856,-0.05856,-0.03904,-0.04392
-0.03416,0.0122,0.00976,0.02684,0.04392,-0.03904,0.0244,-0.02928,-0.05856,-0.05368,-0.03904,-0.03416
-0.03416,0.00976,0.01464,0.03172,0.0488,-0.04148,0.01952,-0.02928,-0.05856,-0.05856,-0.03904,-0.03416
-0.03416,0.00244,0.02928,0.04636,0.06344,-0.0488,0.00976,-0.03904,-0.05856,-0.05856,-0.0488,-0.03416
-0.02928,0,0.02928,0.04392,0.05856,-0.04392,0.00976,-0.03904,-0.05856,-0.05368,-0.04392,-0.03416
-0.01952,0,0.01952,0.02928,0.03904,-0.02928,0.01464,-0.03904,-0.05856,-0.05368,-0.03416,-0.03416
-0.01952,0.00488,0.00976,0.01952,0.02928,-0.0244,0.01952,-0.03416,-0.05856,-0.05368,-0.03416,-0.03416
-0.0244,0.0122,0,0.0122,0.0244,-0.0244,0.01464,-0.03904,-0.05856,-0.03904,-0.04392,-0.03904
-0.0244,0.01464,-0.00488,0.00732,0.01952,-0.02196,0.01464,-0.03904,-0.06344,-0.04392,-0.04392,-0.03904
-0.03416,0.01464,0.00488,0.02196,0.03904,-0.0366,0.01464,-0.03904,-0.05856,-0.03904,-0.04392,-0.03904
-0.02928,0.00732,0.01464,0.02928,0.04392,-0.0366,0.01464,-0.03904,-0.05856,-0.03904,-0.04392,-0.03904
-0.01952,0.00488,0.00976,0.01952,0.02928,-0.0244,0.01464,-0.02928,-0.06344,-0.03904,-0.04392,-0.02928
-0.0244,0.01464,-0.00488,0.00732,0.01952,-0.02196,0.01464,-0.03416,-0.06344,-0.04392,-0.04392,-0.02928
-0.01952,0.00732,0.00488,0.01464,0.0244,-0.02196,0.01464,-0.03904,-0.06344,-0.05368,-0.0488,-0.04392
-0.01952,0.00488,0.00976,0.01952,0.02928,-0.0244,0.01464,-0.04392,-0.06344,-0.05368,-0.0488,-0.04392
-0.02928,0.00976,0.00976,0.0244,0.03904,-0.03416,0.01464,-0.03416,-0.06832,-0.04392,-0.0488,-0.04392
-0.02928,0.00976,0.00976,0.0244,0.03904,-0.03416,0.00976,-0.03416,-0.06832,-0.0488,-0.05368,-0.0488
-0.03416,0.01952,-0.00488,0.0122,0.02928,-0.03172,0.01464,-0.03416,-0.0732,-0.05856,-0.05368,-0.0488
-0.01952,0.0122,-0.00488,0.00488,0.01464,-0.01708,0.01464,-0.03904,-0.0732,-0.06344,-0.05368,-0.0488
-0.0244,0.0122,0,0.0122,0.0244,-0.0244,0.00976,-0.04392,-0.0732,-0.06344,-0.05856,-0.05368
-0.0244,0.00976,0.00488,0.01708,0.02928,-0.02684,0.00488,-0.0488,-0.0732,-0.06344,-0.05856,-0.05368
-0.01952,0.0122,-0.00488,0.00488,0.01464,-0.01708,0.00488,-0.0488,-0.07808,-0.06832,-0.05856,-0.05368
-0.01952,0.01708,-0.01464,-0.00488,0.00488,-0.0122,0.00488,-0.0488,-0.07808,-0.06832,-0.05856,-0.05368
-0.02928,0.01464,0,0.01464,0.02928,-0.02928,0.01464,-0.05368,-0.08784,-0.0732,-0.06344,-0.0488
-0.04392,0.02196,0,0.02196,0.04392,-0.04392,0.01464,-0.05368,-0.09272,-0.0732,-0.06344,-0.05368
-0.04392,0.02196,0,0.02196,0.04392,-0.04392,0.00488,-0.05368,-0.08296,-0.0732,-0.06832,-0.05856
-0.04392,0.02684,-0.00976,0.0122,0.03416,-0.03904,0.00488,-0.05368,-0.08296,-0.07808,-0.06832,-0.06344
-0.04392,0.0244,-0.00488,0.01708,0.03904,-0.04148,0.01464,-0.05368,-0.08784,-0.07808,-0.06832,-0.06344
-0.04392,0.02684,-0.00976,0.0122,0.03416,-0.03904,0.01464,-0.05856,-0.09272,-0.08296,-0.06832,-0.06344
-0.04392,0.03172,-0.01952,0.00244,0.0244,-0.03416,0.01464,-0.05856,-0.09272,-0.0732,-0.06832,-0.05368
-0.03904,0.02928,-0.01952,0,0.01952,-0.02928,0.01464,-0.05856,-0.0976,-0.0732,-0.0732,-0.05368
-0.02928,0.02928,-0.02928,-0.01464,0,-0.01464,0.01464,-0.05856,-0.0976,-0.0732,-0.0732,-0.06832
-0.03416,0.03172,-0.02928,-0.0122,0.00488,-0.01952,0.00488,-0.05856,-0.0976,-0.07808,-0.0732,-0.06832
-0.03416,0.02684,-0.01952,-0.00244,0.01464,-0.0244,0.01464,-0.05856,-0.0976,-0.07808,-0.0732,-0.06832
-0.03904,0.02928,-0.01952,0,0.01952,-0.02928,0.01464,-0.05856,-0.0976,-0.07808,-0.07808,-0.06832
-0.03904,0.03172,-0.0244,-0.00488,0.01464,-0.02684,0.01464,-0.05856,-0.10248,-0.08296,-0.07808,-0.05856
-0.03904,0.0366,-0.03416,-0.01464,0.00488,-0.02196,0.01464,-0.05856,-0.10248,-0.08296,-0.07808,-0.06344
-0.03904,0.03172,-0.0244,-0.00488,0.01464,-0.02684,0.00488,-0.06344,-0.11224,-0.08296,-0.07808,-0.07808
-0.03904,0.02684,-0.01464,0.00488,0.0244,-0.03172,0.00488,-0.06344,-0.10736,-0.08296,-0.07808,-0.07808
-0.0488,0.0366,-0.0244,0,0.0244,-0.0366,0.01464,-0.05368,-0.10736,-0.08784,-0.08296,-0.06832
-0.05368,0.03904,-0.0244,0.00244,0.02928,-0.04148,0.01464,-0.0488,-0.0976,-0.08784,-0.08296,-0.06344
-0.04392,0.03416,-0.0244,-0.00244,0.01952,-0.03172,0.00976,-0.06344,-0.10736,-0.07808,-0.08296,-0.06832
-0.03904,0.03416,-0.02928,-0.00976,0.00976,-0.0244,0.00976,-0.06344,-0.10736,-0.07808,-0.08784,-0.06832
-0.03904,0.02928,-0.01952,0,0.01952,-0.02928,0.01464,-0.0488,-0.0976,-0.07808,-0.0732,-0.06832
-0.04392,0.03172,-0.01952,0.00244,0.0244,-0.03416,0.01464,-0.05368,-0.09272,-0.07808,-0.0732,-0.06344
-0.04392,0.03172,-0.01952,0.00244,0.0244,-0.03416,0.01464,-0.04392,-0.10248,-0.07808,-0.0732,-0.0732
-0.04392,0.03172,-0.01952,0.00244,0.0244,-0.03416,0.01464,-0.04392,-0.10248,-0.07808,-0.0732,-0.0732
-0.05368,0.0366,-0.01952,0.00732,0.03416,-0.04392,0.01464,-0.05368,-0.10248,-0.08784,-0.08296,-0.0732
-0.05368,0.0366,-0.01952,0.00732,0.03416,-0.04392,0.01464,-0.05368,-0.10736,-0.08784,-0.08296,-0.0732
-0.04392,0.0244,-0.00488,0.01708,0.03904,-0.04148,0.01464,-0.05368,-0.10736,-0.07808,-0.08296,-0.0732
-0.03904,0.0244,-0.00976,0.00976,0.02928,-0.03416,0.01464,-0.05368,-0.10736,-0.07808,-0.08296,-0.0732
-0.03904,0.02928,-0.01952,0,0.01952,-0.02928,0.01464,-0.05856,-0.10736,-0.08784,-0.0732,-0.06344
-0.04392,0.03416,-0.0244,-0.00244,0.01952,-0.03172,0.01464,-0.05368,-0.10248,-0.08784,-0.07808,-0.06344
-0.04392,0.0366,-0.02928,-0.00732,0.01464,-0.02928,0.00488,-0.05368,-0.10248,-0.08784,-0.07808,-0.06832
-0.04392,0.0366,-0.02928,-0.00732,0.01464,-0.02928,0.00488,-0.05368,-0.10736,-0.09272,-0.07808,-0.06832
-0.04392,0.03416,-0.0244,-0.00244,0.01952,-0.03172,0.00488,-0.05368,-0.10736,-0.09272,-0.08784,-0.07808
-0.04392,0.02928,-0.01464,0.00732,0.02928,-0.0366,0.00488,-0.05368,-0.10736,-0.09272,-0.08296,-0.0732
-0.04392,0.03172,-0.01952,0.00244,0.0244,-0.03416,0.00488,-0.05368,-0.10736,-0.08784,-0.08296,-0.0732
-0.04392,0.0366,-0.02928,-0.00732,0.01464,-0.02928,0.00488,-0.05368,-0.10736,-0.08784,-0.08296,-0.0732
-0.04392,0.0366,-0.02928,-0.00732,0.01464,-0.02928,0.01464,-0.05368,-0.10248,-0.08784,-0.08296,-0.07808
-0.04392,0.04148,-0.03904,-0.01708,0.00488,-0.0244,0.01464,-0.05368,-0.10736,-0.08784,-0.08296,-0.0732
-0.0488,0.03904,-0.02928,-0.00488,0.01952,-0.03416,0.01464,-0.0488,-0.10736,-0.08784,-0.09272,-0.0732
-0.0488,0.0366,-0.0244,0,0.0244,-0.0366,0.01464,-0.0488,-0.11224,-0.08784,-0.09272,-0.0732
-0.05368,0.03904,-0.0244,0.00244,0.02928,-0.04148,0.00488,-0.05856,-0.10736,-0.08296,-0.08784,-0.0732
-0.05856,0.04148,-0.0244,0.00488,0.03416,-0.04636,0.00488,-0.05856,-0.11224,-0.08296,-0.08784,-0.07808
-0.04392,0.03416,-0.0244,-0.00244,0.01952,-0.03172,0.00488,-0.05856,-0.10248,-0.08296,-0.07808,-0.06832
-0.04392,0.03416,-0.0244,-0.00244,0.01952,-0.03172,0.00488,-0.05856,-0.0976,-0.08784,-0.07808,-0.06832
-0.05368,0.04392,-0.03416,-0.00732,0.01952,-0.0366,0.01464,-0.0488,-0.10736,-0.08296,-0.07808,-0.06832
-0.05368,0.0488,-0.04392,-0.01708,0.00976,-0.03172,0.01464,-0.0488,-0.10248,-0.08296,-0.07808,-0.06832
-0.05368,0.04392,-0.03416,-0.00732,0.01952,-0.0366,0.01464,-0.03904,-0.10248,-0.07808,-0.07808,-0.06832
-0.05368,0.04636,-0.03904,-0.0122,0.01464,-0.03416,0.01464,-0.03904,-0.10248,-0.07808,-0.07808,-0.06832
-0.04392,0.03904,-0.03416,-0.0122,0.00976,-0.02684,0.01464,-0.0488,-0.10736,-0.08296,-0.07808,-0.07808
-0.04392,0.03904,-0.03416,-0.0122,0.00976,-0.02684,0.01464,-0.0488,-0.10736,-0.07808,-0.07808,-0.0732
-0.0488,0.04392,-0.03904,-0.01464,0.00976,-0.02928,0.00488,-0.05856,-0.10736,-0.07808,-0.08296,-0.08296
-0.04392,0.04148,-0.03904,-0.01708,0.00488,-0.0244,0.00488,-0.05368,-0.11224,-0.07808,-0.08296,-0.08296
-0.05368,0.03904,-0.0244,0.00244,0.02928,-0.04148,0.00488,-0.05368,-0.11224,-0.08784,-0.08784,-0.07808
-0.05368,0.03904,-0.0244,0.00244,0.02928,-0.04148,0.00488,-0.05368,-0.11224,-0.08296,-0.08784,-0.07808
-0.0488,0.04392,-0.03904,-0.01464,0.00976,-0.02928,0.01952,-0.04392,-0.0976,-0.08296,-0.07808,-0.06832
-0.0488,0.03904,-0.02928,-0.00488,0.01952,-0.03416,0.01952,-0.0488,-0.0976,-0.07808,-0.07808,-0.06832
-0.0488,0.04392,-0.03904,-0.01464,0.00976,-0.02928,0.01952,-0.0488,-0.10736,-0.07808,-0.07808,-0.06832
-0.0488,0.04392,-0.03904,-0.01464,0.00976,-0.02928,0.01952,-0.0488,-0.10736,-0.07808,-0.07808,-0.06832
-0.0488,0.04392,-0.03904,-0.01464,0.00976,-0.02928,0.01952,-0.0488,-0.10736,-0.08784,-0.08784,-0.06832
-0.0488,0.04392,-0.03904,-0.01464,0.00976,-0.02928,0.01952,-0.0488,-0.10736,-0.08784,-0.08784,-0.06832
-0.0488,0.04392,-0.03904,-0.01464,0.00976,-0.02928,0.01952,-0.0488,-0.10736,-0.08784,-0.08784,-0.07808
-0.0488,0.04392,-0.03904,-0.01464,0.00976,-0.02928,0.01952,-0.0488,-0.10736,-0.08784,-0.08784,-0.07808
-0.05856,0.0488,-0.03904,-0.00976,0.01952,-0.03904,0.01952,-0.0488,-0.11712,-0.08784,-0.08784,-0.06832
-0.05856,0.0488,-0.03904,-0.00976,0.01952,-0.03904,0.01952,-0.0488,-0.11712,-0.08784,-0.08784,-0.06832
-0.05856,0.0488,-0.03904,-0.00976,0.01952,-0.03904,0.01952,-0.0488,-0.10736,-0.07808,-0.07808,-0.06832
-0.05856,0.0488,-0.03904,-0.00976,0.01952,-0.03904,0.01952,-0.0488,-0.10736,-0.07808,-0.07808,-0.06832
-0.05856,0.04392,-0.02928,0,0.02928,-0.04392,0.01952,-0.0488,-0.10736,-0.07808,-0.08784,-0.06832
-0.05856,0.04392,-0.02928,0,0.02928,-0.04392,0.01952,-0.0488,-0.10736,-0.07808,-0.08784,-0.06832
-0.05856,0.0488,-0.03904,-0.00976,0.01952,-0.03904,0.00976,-0.05856,-0.10736,-0.07808,-0.08784,-0.07808
-0.05856,0.0488,-0.03904,-0.00976,0.01952,-0.03904,0.00976,-0.05856,-0.10736,-0.07808,-0.08784,-0.07808
-0.0488,0.04392,-0.03904,-0.01464,0.00976,-0.02928,0.01952,-0.0488,-0.10736,-0.08784,-0.08784,-0.08784
-0.0488,0.04392,-0.03904,-0.01464,0.00976,-0.02928,0.01952,-0.0488,-0.10736,-0.08784,-0.08784,-0.08784
-0.05856,0.04392,-0.02928,0,0.02928,-0.04392,0.00976,-0.0488,-0.11712,-0.08784,-0.07808,-0.07808
-0.05856,0.04392,-0.02928,0,0.02928,-0.04392,0.00976,-0.0488,-0.11712,-0.08784,-0.07808,-0.07808
-0.0488,0.03904,-0.02928,-0.00488,0.01952,-0.03416,0.00976,-0.0488,-0.10736,-0.08784,-0.08784,-0.06832
-0.0488,0.03904,-0.02928,-0.00488,0.01952,-0.03416,0.00976,-0.0488,-0.10736,-0.08784,-0.08784,-0.06832
-0.0488,0.04392,-0.03904,-0.01464,0.00976,-0.02928,0.00976,-0.0488,-0.11712,-0.08784,-0.08784,-0.06832
-0.0488,0.04392,-0.03904,-0.01464,0.00976,-0.02928,0.00976,-0.0488,-0.11712,-0.08784,-0.08784,-0.06832
-0.0488,0.03904,-0.02928,-0.00488,0.01952,-0.03416,0.00976,-0.0488,-0.11712,-0.08784,-0.08784,-0.06832
-0.04392,0.03416,-0.0244,-0.00244,0.01952,-0.03172,0.00976,-0.05368,-0.11712,-0.08784,-0.08784,-0.06832
-0.05368,0.04392,-0.03416,-0.00732,0.01952,-0.0366,0.01952,-0.04392,-0.10736,-0.08784,-0.08296,-0.06832
-0.05368,0.04636,-0.03904,-0.0122,0.01464,-0.03416,0.0244,-0.03904,-0.10736,-0.0732,-0.07808,-0.06832
-0.04392,0.03172,-0.01952,0.00244,0.0244,-0.03416,0.01464,-0.03416,-0.10248,-0.06832,-0.0732,-0.06344
-0.03416,0.02196,-0.00976,0.00732,0.0244,-0.02928,0.01952,-0.02928,-0.09272,-0.06832,-0.06832,-0.06344
-0.03416,0.01952,-0.00488,0.0122,0.02928,-0.03172,0.03904,-0.02928,-0.08784,-0.05856,-0.06832,-0.0488
-0.02928,0.00976,0.00976,0.0244,0.03904,-0.03416,0.03904,-0.02928,-0.07808,-0.05856,-0.05856,-0.04392
-0.03416,0.00488,0.0244,0.04148,0.05856,-0.04636,0.02928,-0.02928,-0.08784,-0.05368,-0.05368,-0.05368
-0.03416,0,0.03416,0.05124,0.06832,-0.05124,0.02928,-0.02928,-0.08296,-0.03904,-0.0488,-0.04392
-0.03416,-0.00488,0.04392,0.061,0.07808,-0.05612,0.03904,-0.0244,-0.06344,-0.03904,-0.05368,-0.05368
-0.0244,-0.0122,0.0488,0.061,0.0732,-0.0488,0.03904,-0.01952,-0.05368,-0.03904,-0.05368,-0.0488
-0.0244,-0.0122,0.0488,0.061,0.0732,-0.0488,0.03416,0,-0.04392,-0.03416,-0.03904,-0.03904
-0.0244,-0.0122,0.0488,0.061,0.0732,-0.0488,0.03416,0,-0.03904,-0.03416,-0.03904,-0.03904
-0.01952,-0.02196,0.06344,0.0732,0.08296,-0.05124,0.03416,-0.02928,-0.05368,-0.02928,-0.03904,-0.03416
-0.01464,-0.02684,0.06832,0.07564,0.08296,-0.0488,0.00976,-0.0488,-0.05368,-0.02928,-0.03416,-0.03416
0,-0.03416,0.06832,0.06832,0.06832,-0.03416,-0.01952,-0.0732,-0.06344,-0.02928,-0.02928,-0.02928
0.01952,-0.0488,0.07808,0.06832,0.05856,-0.01952,-0.03416,-0.07808,-0.06344,-0.03416,-0.02928,-0.0244
0.00976,-0.03904,0.06832,0.06344,0.05856,-0.0244,-0.02928,-0.06832,-0.06344,-0.0244,-0.02928,-0.01952
0.01464,-0.04148,0.06832,0.061,0.05368,-0.01952,-0.03416,-0.0732,-0.0732,-0.0244,-0.02928,-0.0244
0.02928,-0.03904,0.0488,0.03416,0.01952,0.00488,-0.03416,-0.06832,-0.08296,-0.03416,-0.03416,-0.0244
0.02928,-0.03172,0.03416,0.01952,0.00488,0.0122,-0.03416,-0.06832,-0.08296,-0.02928,-0.03416,-0.0244
0.03416,-0.04148,0.0488,0.03172,0.01464,0.00976,-0.04392,-0.07808,-0.08296,-0.02928,-0.03416,-0.01952
0.03904,-0.04148,0.04392,0.0244,0.00488,0.01708,-0.04392,-0.0732,-0.07808,-0.02928,-0.03416,-0.01464
0.03904,-0.0366,0.03416,0.01464,-0.00488,0.02196,-0.04392,-0.06344,-0.0732,-0.02928,-0.02928,-0.00488
0.03416,-0.02928,0.0244,0.00732,-0.00976,0.02196,-0.04392,-0.06832,-0.08296,-0.03904,-0.03416,-0.00976
0.0244,-0.0122,0,-0.0122,-0.0244,0.0244,-0.02928,-0.07808,-0.10248,-0.06344,-0.0488,-0.02928
0.00976,0.00732,-0.0244,-0.02928,-0.03416,0.02196,-0.0244,-0.08296,-0.122,-0.07808,-0.06832,-0.0488
-0.01464,0.0122,-0.00976,-0.00244,0.00488,-0.00976,-0.0244,-0.07808,-0.12688,-0.0732,-0.0732,-0.05368
-0.03416,0.0244,-0.01464,0.00244,0.01952,-0.02684,-0.00488,-0.06832,-0.122,-0.07808,-0.07808,-0.06344
-0.03904,0.03172,-0.0244,-0.00488,0.01464,-0.02684,0.00488,-0.06344,-0.11712,-0.0732,-0.07808,-0.06832
-0.0488,0.04148,-0.03416,-0.00976,0.01464,-0.03172,0.00488,-0.05856,-0.11712,-0.0732,-0.08296,-0.06832
-0.04392,0.04148,-0.03904,-0.01708,0.00488,-0.0244,0,-0.05368,-0.12688,-0.08296,-0.08296,-0.0732
-0.0488,0.04392,-0.03904,-0.01464,0.00976,-0.02928,0,-0.05368,-0.13176,-0.0976,-0.09272,-0.07808
-0.03416,0.03904,-0.04392,-0.02684,-0.00976,-0.0122,0.00976,-0.05368,-0.122,-0.09272,-0.09272,-0.0732
-0.03904,0.04636,-0.05368,-0.03416,-0.01464,-0.0122,0.00976,-0.05368,-0.122,-0.09272,-0.09272,-0.0732
-0.04392,0.05124,-0.05856,-0.0366,-0.01464,-0.01464,0.01464,-0.05368,-0.13176,-0.09272,-0.08784,-0.0732
-0.0488,0.05124,-0.05368,-0.02928,-0.00488,-0.02196,0.01464,-0.0488,-0.13176,-0.09272,-0.08784,-0.07808
-0.0488,0.04148,-0.03416,-0.00976,0.01464,-0.03172,0.00976,-0.0488,-0.11712,-0.08296,-0.08296,-0.06832
-0.05368,0.061,-0.06832,-0.04148,-0.01464,-0.01952,0.03416,-0.0244,-0.11224,-0.08296,-0.10248,-0.07808
-0.06832,0.08052,-0.09272,-0.05856,-0.0244,-0.02196,0.05368,0.01464,-0.10736,-0.10736,-0.122,-0.10736
-0.06344,0.0854,-0.10736,-0.07564,-0.04392,-0.00976,0.07808,0.06344,-0.07808,-0.11224,-0.11712,-0.11224
-0.08296,0.09028,-0.0976,-0.05612,-0.01464,-0.03416,0.0976,0.08296,-0.0244,-0.08296,-0.11712,-0.10736
-0.06832,0.06344,-0.05856,-0.0244,0.00976,-0.03904,0.06832,0.03416,0.03416,0,-0.06344,-0.0732
-0.00976,0.02684,-0.04392,-0.03904,-0.03416,0.0122,0.0488,0.05368,0.16104,0.10248,0.00976,-0.00976
0.03416,0.00244,-0.03904,-0.05612,-0.0732,0.05368,0.06832,0.14152,0.34648,0.244,0.08784,0.05368
0.15128,-0.08296,0.01464,-0.061,-0.13664,0.14396,0.06344,0.2684,0.66856,0.52216,0.25864,0.19032
0.23424,-0.18056,0.12688,0.00976,-0.10736,0.1708,-0.00976,0.27816,0.93208,0.79544,0.47336,0.37088
0.33184,-0.35136,0.37088,0.20496,0.03904,0.1464,-0.20008,0.03416,1.18096,1.10288,0.71736,0.57584
0.34648,-0.43676,0.52704,0.3538,0.18056,0.08296,-0.35136,-0.21472,1.19072,1.1712,0.8296,0.67832
0.30744,-0.42944,0.55144,0.39772,0.244,0.03172,-0.55632,-0.60512,0.90768,0.98576,0.76616,0.65392
0.12688,-0.26352,0.40016,0.33672,0.27328,-0.0732,-0.57584,-0.80032,0.4636,0.5368,0.47824,0.44896
-0.02928,-0.1098,0.24888,0.26352,0.27816,-0.15372,-0.5612,-0.98576,-0.2684,-0.01464,0.14152,0.18544
-0.10248,-0.0122,0.12688,0.17812,0.22936,-0.16592,-0.51728,-1.0004,-0.65392,-0.28792,-0.05856,0.00488
-0.08784,0.06344,-0.03904,0.00488,0.0488,-0.06832,-0.47824,-0.9028,-0.8052,-0.3904,-0.16592,-0.06344
-0.0488,0.08296,-0.11712,-0.09272,-0.06832,0.00976,-0.3904,-0.70272,-0.67832,-0.33672,-0.15616,-0.0488
-0.02928,0.07564,-0.122,-0.10736,-0.09272,0.03172,-0.25376,-0.44408,-0.5124,-0.2684,-0.13664,-0.05856
-0.01952,0.0732,-0.12688,-0.11712,-0.10736,0.04392,-0.1464,-0.23424,-0.34648,-0.20984,-0.122,-0.06832
-0.00488,0.05856,-0.11224,-0.1098,-0.10736,0.05124,-0.08296,-0.122,-0.2196,-0.15616,-0.0976,-0.0732
-0.00976,0.061,-0.11224,-0.10736,-0.10248,0.04636,-0.03904,-0.0732,-0.17568,-0.122,-0.0976,-0.0732
-0.01952,0.04392,-0.06832,-0.05856,-0.0488,0.01464,0.00488,-0.00976,-0.15616,-0.122,-0.08784,-0.07808
-0.03416,0.04148,-0.0488,-0.03172,-0.01464,-0.00976,0.01952,0.01952,-0.13176,-0.09272,-0.0732,-0.06344
-0.04392,0.04636,-0.0488,-0.02684,-0.00488,-0.01952,0.01464,-0.00488,-0.10248,-0.0732,-0.0732,-0.05856
-0.04392,0.0488,-0.05368,-0.03172,-0.00976,-0.01708,0.01952,-0.00488,-0.09272,-0.07808,-0.0732,-0.05856
-0.03904,0.0488,-0.05856,-0.03904,-0.01952,-0.00976,0.02928,0.0244,-0.09272,-0.06832,-0.07808,-0.06344
-0.03904,0.0488,-0.05856,-0.03904,-0.01952,-0.00976,0.03904,0.03416,-0.09272,-0.06832,-0.07808,-0.06344
-0.04392,0.05124,-0.05856,-0.0366,-0.01464,-0.01464,0.0488,0.0244,-0.08784,-0.0732,-0.06832,-0.06344
-0.03904,0.0488,-0.05856,-0.03904,-0.01952,-0.00976,0.05368,0.02928,-0.0732,-0.06832,-0.06832,-0.06344
-0.03904,0.05612,-0.0732,-0.05368,-0.03416,-0.00244,0.05368,0.04392,-0.0732,-0.06832,-0.07808,-0.06344
-0.03904,0.05124,-0.06344,-0.04392,-0.0244,-0.00732,0.05856,0.03904,-0.06832,-0.06832,-0.0732,-0.06344
-0.03904,0.04636,-0.05368,-0.03416,-0.01464,-0.0122,0.06344,0.03904,-0.06832,-0.06832,-0.0732,-0.06344
-0.04392,0.05124,-0.05856,-0.0366,-0.01464,-0.01464,0.06344,0.04392,-0.05856,-0.05856,-0.06832,-0.06344
-0.0488,0.05368,-0.05856,-0.03416,-0.00976,-0.01952,0.06344,0.0488,-0.05368,-0.0488,-0.05856,-0.06344
-0.0488,0.05368,-0.05856,-0.03416,-0.00976,-0.01952,0.06344,0.0488,-0.0488,-0.0488,-0.05856,-0.06344
-0.03904,0.0488,-0.05856,-0.03904,-0.01952,-0.00976,0.06832,0.05856,-0.0488,-0.04392,-0.05856,-0.0488
-0.03904,0.0488,-0.05856,-0.03904,-0.01952,-0.00976,0.06344,0.06344,-0.04392,-0.03904,-0.05368,-0.0488
-0.03904,0.0488,-0.05856,-0.03904,-0.01952,-0.00976,0.05856,0.05856,-0.03904,-0.0488,-0.06344,-0.05856
-0.03416,0.03416,-0.03416,-0.01708,0,-0.01708,0.05856,0.05856,-0.03416,-0.04392,-0.06344,-0.05856
-0.03416,0.03904,-0.04392,-0.02684,-0.00976,-0.0122,0.06832,0.06832,-0.03416,-0.04392,-0.05368,-0.05856
-0.03416,0.04392,-0.05368,-0.0366,-0.01952,-0.00732,0.0732,0.08296,-0.02928,-0.03904,-0.0488,-0.05368
-0.03416,0.04392,-0.05368,-0.0366,-0.01952,-0.00732,0.0732,0.07808,-0.01464,-0.03416,-0.04392,-0.05368
-0.02928,0.04148,-0.05368,-0.03904,-0.0244,-0.00244,0.0732,0.08296,-0.00976,-0.0244,-0.03904,-0.0488
-0.02928,0.03904,-0.0488,-0.03416,-0.01952,-0.00488,0.06344,0.08784,-0.00488,-0.0244,-0.0488,-0.0488
-0.02928,0.03904,-0.0488,-0.03416,-0.01952,-0.00488,0.06344,0.08784,0,-0.01952,-0.0488,-0.04392
-0.02928,0.03172,-0.03416,-0.01952,-0.00488,-0.0122,0.06344,0.09272,0.00488,-0.0244,-0.03416,-0.03904
-0.02928,0.02928,-0.02928,-0.01464,0,-0.01464,0.06344,0.10248,0.01464,-0.0244,-0.02928,-0.03904
-0.01464,0.02196,-0.02928,-0.02196,-0.01464,0,0.0732,0.10736,0.01952,-0.00488,-0.02928,-0.0244
-0.01464,0.01952,-0.0244,-0.01708,-0.00976,-0.00244,0.07808,0.11224,0.02928,-0.00488,-0.0244,-0.0244
-0.01952,0.0244,-0.02928,-0.01952,-0.00976,-0.00488,0.07808,0.122,0.02928,0.00488,-0.01952,-0.01952
-0.01464,0.01952,-0.0244,-0.01708,-0.00976,-0.00244,0.07808,0.13176,0.03904,0.00976,-0.01464,-0.01952
-0.00976,0.0122,-0.01464,-0.00976,-0.00488,-0.00244,0.06832,0.13664,0.05856,0.01952,-0.01464,-0.0244
-0.00488,0.00732,-0.00976,-0.00732,-0.00488,0,0.06832,0.1464,0.06832,0.0244,-0.00976,-0.0244
-0.00488,0.00488,-0.00488,-0.00244,0,-0.00244,0.06832,0.16592,0.07808,0.0244,-0.00488,-0.0244
-0.00488,0.00244,0,0.00244,0.00488,-0.00488,0.06832,0.1708,0.08784,0.03904,-0.00488,-0.01952
0.00488,-0.00244,0,-0.00244,-0.00488,0.00488,0.08296,0.1708,0.10736,0.03904,0.00488,-0.00488
0.01464,-0.00976,0.00488,-0.00244,-0.00976,0.0122,0.08296,0.18056,0.11224,0.04392,0.00976,0
0.00488,-0.00976,0.01464,0.0122,0.00976,-0.00244,0.0732,0.20496,0.12688,0.05368,0.01464,0.00488
0.00976,-0.01708,0.0244,0.01952,0.01464,-0.00244,0.0732,0.21472,0.14152,0.06344,0.01952,0.00976
0.01464,-0.01952,0.0244,0.01708,0.00976,0.00244,0.07808,0.22936,0.16104,0.08296,0.02928,0.0244
0.01952,-0.02684,0.03416,0.0244,0.01464,0.00244,0.07808,0.25376,0.18056,0.09272,0.03904,0.02928
0.03416,-0.03416,0.03416,0.01708,0,0.01708,0.08784,0.2684,0.19032,0.11224,0.05368,0.02928
0.03416,-0.03416,0.03416,0.01708,0,0.01708,0.09272,0.28304,0.21472,0.12688,0.05856,0.04392
0.05368,-0.04636,0.03904,0.0122,-0.01464,0.03416,0.0976,0.3172,0.244,0.14152,0.06832,0.0488
0.05368,-0.0488,0.04392,0.01708,-0.00976,0.03172,0.0976,0.32696,0.26352,0.15616,0.07808,0.05368
0.06344,-0.061,0.05856,0.02684,-0.00488,0.03416,0.0976,0.3416,0.28304,0.15128,0.0976,0.0732
0.06344,-0.06832,0.0732,0.04148,0.00976,0.02684,0.10248,0.35136,0.30256,0.17568,0.10736,0.07808
0.06832,-0.07808,0.08784,0.05368,0.01952,0.0244,0.0976,0.37088,0.32208,0.19032,0.10248,0.0732
0.0732,-0.08052,0.08784,0.05124,0.01464,0.02928,0.0976,0.38552,0.34648,0.20984,0.11224,0.08296
0.07808,-0.07808,0.07808,0.03904,0,0.03904,0.11224,0.40504,0.37576,0.22448,0.13176,0.08296
0.08296,-0.08296,0.08296,0.04148,0,0.04148,0.11712,0.41968,0.39528,0.23424,0.13176,0.09272
0.08784,-0.09272,0.0976,0.05368,0.00976,0.03904,0.122,0.42944,0.4148,0.23912,0.13664,0.10248
0.08784,-0.09516,0.10248,0.05856,0.01464,0.0366,0.12688,0.4392,0.42944,0.24888,0.14152,0.11224
0.08784,-0.09272,0.0976,0.05368,0.00976,0.03904,0.122,0.4392,0.42944,0.25864,0.1464,0.10248
0.08784,-0.09028,0.09272,0.0488,0.00488,0.04148,0.12688,0.44408,0.43432,0.25864,0.1464,0.10248
0.08784,-0.09028,0.09272,0.0488,0.00488,0.04148,0.13176,0.44896,0.44408,0.2684,0.1464,0.11224
