i,aVR,ii,aVF,iii,aVL,V1,V2,V3,V4,V5,V6
-0.04392,-0.0122,0.06832,0.09028,0.11224,-0.07808,-0.02928,-0.04392,-0.01464,-0.14152,-0.01464,-0.07808
-0.04392,-0.01464,0.0732,0.09516,0.11712,-0.08052,-0.02928,-0.04392,-0.01464,-0.1464,-0.01464,-0.07808
-0.04392,-0.01708,0.07808,0.10004,0.122,-0.08296,-0.03416,-0.03904,-0.01464,-0.1464,-0.00976,-0.07808
-0.04392,-0.01708,0.07808,0.10004,0.122,-0.08296,-0.03416,-0.03904,-0.01464,-0.1464,-0.00976,-0.07808
-0.03904,-0.01952,0.07808,0.0976,0.11712,-0.07808,-0.03416,-0.03904,-0.01952,-0.14152,-0.00976,-0.07808
-0.03416,-0.02196,0.07808,0.09516,0.11224,-0.0732,-0.03416,-0.03904,-0.01952,-0.14152,-0.00976,-0.07808
-0.03416,-0.02196,0.07808,0.09516,0.11224,-0.0732,-0.03416,-0.03904,-0.01952,-0.14152,-0.00976,-0.07808
-0.03416,-0.02196,0.07808,0.09516,0.11224,-0.0732,-0.0244,-0.04392,-0.01952,-0.15128,-0.01464,-0.0732
-0.03416,-0.02196,0.07808,0.09516,0.11224,-0.0732,-0.01952,-0.04392,-0.0244,-0.15128,-0.01464,-0.06832
-0.03904,-0.01464,0.06832,0.08784,0.10736,-0.0732,-0.02928,-0.04392,-0.02928,-0.15128,-0.01464,-0.0732
-0.04392,-0.00732,0.05856,0.08052,0.10248,-0.0732,-0.03416,-0.04392,-0.03416,-0.15128,-0.01464,-0.0732
-0.0488,-0.00488,0.05856,0.08296,0.10736,-0.07808,-0.03416,-0.04392,-0.03416,-0.15128,-0.01464,-0.0732
-0.0488,-0.00488,0.05856,0.08296,0.10736,-0.07808,-0.03904,-0.04392,-0.03416,-0.15616,-0.01952,-0.0732
-0.03904,-0.01464,0.06832,0.08784,0.10736,-0.0732,-0.03416,-0.04392,-0.03416,-0.15128,-0.01952,-0.0732
-0.03416,-0.0244,0.08296,0.10004,0.11712,-0.07564,-0.02928,-0.04392,-0.02928,-0.1464,-0.01952,-0.0732
-0.03904,-0.01708,0.0732,0.09272,0.11224,-0.07564,-0.02928,-0.04392,-0.02928,-0.1464,-0.01952,-0.06832
-0.04392,-0.00976,0.06344,0.0854,0.10736,-0.07564,-0.02928,-0.04392,-0.03416,-0.1464,-0.0244,-0.06344
-0.04392,-0.00732,0.05856,0.08052,0.10248,-0.0732,-0.02928,-0.04392,-0.02928,-0.14152,-0.01952,-0.0732
-0.04392,-0.00732,0.05856,0.08052,0.10248,-0.0732,-0.03416,-0.0488,-0.02928,-0.1464,-0.0244,-0.0732
-0.03904,-0.00732,0.05368,0.0732,0.09272,-0.06588,-0.03416,-0.0488,-0.02928,-0.15128,-0.0244,-0.06832
-0.03416,-0.00976,0.05368,0.07076,0.08784,-0.061,-0.02928,-0.0488,-0.02928,-0.15128,-0.0244,-0.06344
-0.03416,-0.00976,0.05368,0.07076,0.08784,-0.061,-0.02928,-0.0488,-0.02928,-0.1464,-0.0244,-0.06344
-0.03416,-0.00976,0.05368,0.07076,0.08784,-0.061,-0.02928,-0.0488,-0.02928,-0.1464,-0.0244,-0.06344
-0.03416,-0.00732,0.0488,0.06588,0.08296,-0.05856,-0.0244,-0.05368,-0.02928,-0.1464,-0.02928,-0.06832
-0.03416,-0.00488,0.04392,0.061,0.07808,-0.05612,-0.01952,-0.05368,-0.03416,-0.15128,-0.02928,-0.0732
-0.03416,-0.00244,0.03904,0.05612,0.0732,-0.05368,-0.0244,-0.05368,-0.03904,-0.15128,-0.02928,-0.0732
-0.03416,0,0.03416,0.05124,0.06832,-0.05124,-0.0244,-0.05368,-0.04392,-0.15128,-0.03416,-0.0732
-0.03904,0.00244,0.03416,0.05368,0.0732,-0.05612,-0.0244,-0.05368,-0.04392,-0.1464,-0.03416,-0.0732
-0.03904,0.00244,0.03416,0.05368,0.0732,-0.05612,-0.01952,-0.05368,-0.04392,-0.1464,-0.03416,-0.0732
-0.04392,0.00732,0.02928,0.05124,0.0732,-0.05856,-0.01952,-0.05856,-0.03904,-0.1464,-0.03416,-0.0732
-0.04392,0.00976,0.0244,0.04636,0.06832,-0.05612,-0.0244,-0.05856,-0.03416,-0.1464,-0.03416,-0.0732
-0.04392,0.0122,0.01952,0.04148,0.06344,-0.05368,-0.02928,-0.05856,-0.03416,-0.1464,-0.03416,-0.0732
-0.04392,0.01464,0.01464,0.0366,0.05856,-0.05124,-0.03416,-0.05856,-0.03904,-0.1464,-0.03416,-0.0732
-0.03904,0.0122,0.01464,0.03416,0.05368,-0.04636,-0.02928,-0.05856,-0.04392,-0.15128,-0.03416,-0.07808
-0.04392,0.01464,0.01464,0.0366,0.05856,-0.05124,-0.02928,-0.05856,-0.04392,-0.15128,-0.03416,-0.07808
-0.04392,0.01464,0.01464,0.0366,0.05856,-0.05124,-0.03416,-0.05368,-0.03904,-0.15128,-0.03416,-0.08296
-0.04392,0.01464,0.01464,0.0366,0.05856,-0.05124,-0.03416,-0.05368,-0.03904,-0.15616,-0.03416,-0.08784
-0.04392,0.01464,0.01464,0.0366,0.05856,-0.05124,-0.03416,-0.05368,-0.03904,-0.15616,-0.03416,-0.08784
-0.04392,0.01464,0.01464,0.0366,0.05856,-0.05124,-0.03416,-0.05368,-0.03904,-0.15616,-0.03904,-0.08784
-0.04392,0.01464,0.01464,0.0366,0.05856,-0.05124,-0.02928,-0.05368,-0.04392,-0.15616,-0.03904,-0.08296
-0.04392,0.01464,0.01464,0.0366,0.05856,-0.05124,-0.0244,-0.05368,-0.04392,-0.1464,-0.03904,-0.07808
-0.03904,0.0122,0.01464,0.03416,0.05368,-0.04636,-0.0244,-0.05368,-0.04392,-0.14152,-0.03416,-0.07808
-0.03904,0.0122,0.01464,0.03416,0.05368,-0.04636,-0.0244,-0.05368,-0.04392,-0.13664,-0.03416,-0.07808
-0.04392,0.01952,0.00488,0.02684,0.0488,-0.04636,-0.01952,-0.05368,-0.03904,-0.13664,-0.03416,-0.07808
-0.05368,0.02928,-0.00488,0.02196,0.0488,-0.05124,-0.01952,-0.05856,-0.03904,-0.13664,-0.02928,-0.07808
-0.05368,0.02928,-0.00488,0.02196,0.0488,-0.05124,-0.01952,-0.05856,-0.03904,-0.14152,-0.02928,-0.07808
-0.05368,0.02928,-0.00488,0.02196,0.0488,-0.05124,-0.0244,-0.05856,-0.03904,-0.14152,-0.03416,-0.07808
-0.0488,0.02684,-0.00488,0.01952,0.04392,-0.04636,-0.0244,-0.05368,-0.04392,-0.14152,-0.03416,-0.07808
-0.04392,0.0244,-0.00488,0.01708,0.03904,-0.04148,-0.0244,-0.0488,-0.04392,-0.14152,-0.03416,-0.07808
-0.03904,0.01464,0.00976,0.02928,0.0488,-0.04392,-0.01952,-0.0488,-0.04392,-0.13664,-0.02928,-0.0732
-0.03904,0.0122,0.01464,0.03416,0.05368,-0.04636,-0.01464,-0.0488,-0.04392,-0.13176,-0.0244,-0.06832
-0.04392,0.01464,0.01464,0.0366,0.05856,-0.05124,-0.01464,-0.05368,-0.04392,-0.13176,-0.0244,-0.06832
-0.05856,0.02928,0,0.02928,0.05856,-0.05856,-0.01464,-0.05368,-0.04392,-0.13176,-0.0244,-0.06832
-0.06344,0.04636,-0.02928,0.00244,0.03416,-0.0488,-0.01952,-0.05368,-0.04392,-0.13176,-0.03416,-0.0732
-0.06344,0.05124,-0.03904,-0.00732,0.0244,-0.04392,-0.0244,-0.05368,-0.04392,-0.13176,-0.03904,-0.08296
-0.06344,0.04636,-0.02928,0.00244,0.03416,-0.0488,-0.0244,-0.05368,-0.04392,-0.13176,-0.03416,-0.08296
-0.06344,0.04636,-0.02928,0.00244,0.03416,-0.0488,-0.0244,-0.05368,-0.04392,-0.13176,-0.03416,-0.07808
-0.05856,0.04148,-0.0244,0.00488,0.03416,-0.04636,-0.0244,-0.0488,-0.04392,-0.13176,-0.03416,-0.0732
-0.05368,0.0366,-0.01952,0.00732,0.03416,-0.04392,-0.0244,-0.0488,-0.04392,-0.13176,-0.03416,-0.07808
-0.05368,0.0366,-0.01952,0.00732,0.03416,-0.04392,-0.0244,-0.0488,-0.04392,-0.13176,-0.03416,-0.07808
-0.05368,0.0366,-0.01952,0.00732,0.03416,-0.04392,-0.0244,-0.05368,-0.04392,-0.13176,-0.03416,-0.0732
-0.05368,0.04148,-0.02928,-0.00244,0.0244,-0.03904,-0.01952,-0.0488,-0.03904,-0.12688,-0.03416,-0.0732
-0.05856,0.0488,-0.03904,-0.00976,0.01952,-0.03904,-0.01952,-0.0488,-0.03904,-0.12688,-0.03904,-0.07808
-0.06344,0.05124,-0.03904,-0.00732,0.0244,-0.04392,-0.01952,-0.0488,-0.03904,-0.12688,-0.03904,-0.07808
-0.06832,0.05368,-0.03904,-0.00488,0.02928,-0.0488,-0.01952,-0.0488,-0.03904,-0.12688,-0.03904,-0.07808
-0.06832,0.05368,-0.03904,-0.00488,0.02928,-0.0488,-0.01952,-0.0488,-0.03904,-0.12688,-0.03904,-0.07808
-0.06832,0.05368,-0.03904,-0.00488,0.02928,-0.0488,-0.01952,-0.0488,-0.03904,-0.12688,-0.03904,-0.07808
-0.05856,0.04392,-0.02928,0,0.02928,-0.04392,-0.01952,-0.0488,-0.03904,-0.11712,-0.03416,-0.07808
-0.0488,0.03416,-0.01952,0.00488,0.02928,-0.03904,-0.01952,-0.0488,-0.03904,-0.10736,-0.02928,-0.07808
-0.0488,0.03416,-0.01952,0.00488,0.02928,-0.03904,-0.01952,-0.05368,-0.03904,-0.10736,-0.02928,-0.07808
-0.0488,0.03416,-0.01952,0.00488,0.02928,-0.03904,-0.01952,-0.05856,-0.03904,-0.10736,-0.02928,-0.07808
-0.05368,0.04148,-0.02928,-0.00244,0.0244,-0.03904,-0.01952,-0.05856,-0.03904,-0.11224,-0.02928,-0.07808
-0.05856,0.0488,-0.03904,-0.00976,0.01952,-0.03904,-0.01952,-0.05856,-0.03904,-0.11712,-0.02928,-0.07808
-0.05856,0.0488,-0.03904,-0.00976,0.01952,-0.03904,-0.01464,-0.05368,-0.03904,-0.11712,-0.02928,-0.07808
-0.05856,0.0488,-0.03904,-0.00976,0.01952,-0.03904,-0.00976,-0.0488,-0.03904,-0.11712,-0.02928,-0.07808
-0.05368,0.04392,-0.03416,-0.00732,0.01952,-0.0366,-0.00976,-0.0488,-0.03416,-0.11712,-0.02928,-0.0732
-0.0488,0.03904,-0.02928,-0.00488,0.01952,-0.03416,-0.00976,-0.0488,-0.02928,-0.11712,-0.02928,-0.06832
-0.03904,0.02928,-0.01952,0,0.01952,-0.02928,-0.00488,-0.03416,-0.0244,-0.10248,-0.0244,-0.05856
-0.02928,0.01952,-0.00976,0.00488,0.01952,-0.0244,0,-0.01952,-0.01952,-0.08784,-0.01952,-0.0488
-0.01952,0.01464,-0.00976,0,0.00976,-0.01464,0,-0.01952,-0.01464,-0.08784,-0.00976,-0.0488
-0.01464,0.00976,-0.00488,0.00244,0.00976,-0.0122,0.00488,-0.00976,-0.00488,-0.07808,-0.00488,-0.04392
-0.01464,0.00732,0,0.00732,0.01464,-0.01464,0.00976,-0.00488,0.00488,-0.06832,0,-0.03904
-0.02928,0.01464,0,0.01464,0.02928,-0.02928,0.01952,0.00976,0.0244,-0.05856,0.00488,-0.03904
-0.0244,0.00488,0.01464,0.02684,0.03904,-0.03172,0.01464,0.01464,0.03416,-0.0488,0.00976,-0.03416
-0.01952,0.00244,0.01464,0.0244,0.03416,-0.02684,0.00976,0.01952,0.03416,-0.04392,0.01464,-0.03416
-0.00976,-0.00244,0.01464,0.01952,0.0244,-0.01708,0.00976,0.0244,0.03416,-0.04392,0.01464,-0.02928
0,-0.00732,0.01464,0.01464,0.01464,-0.00732,0,0.02928,0.03416,-0.04392,0.01464,-0.0244
0,-0.0122,0.0244,0.0244,0.0244,-0.0122,-0.00488,0.02928,0.04392,-0.03416,0.0244,-0.0244
0.00488,-0.01708,0.02928,0.02684,0.0244,-0.00976,-0.00976,0.03416,0.0488,-0.01952,0.03904,-0.01464
0.01464,-0.02196,0.02928,0.02196,0.01464,0,-0.0244,0.04392,0.04392,-0.00976,0.03904,-0.01464
0.01464,-0.01708,0.01952,0.0122,0.00488,0.00488,-0.03904,0.03416,0.02928,-0.01952,0.02928,-0.01464
0.00976,-0.0122,0.01464,0.00976,0.00488,0.00244,-0.0488,-0.01464,-0.00488,-0.03904,0.01464,-0.0244
0.00976,-0.00976,0.00976,0.00488,0,0.00488,-0.06832,-0.05856,-0.03416,-0.06344,0,-0.02928
0.00976,-0.00244,-0.00488,-0.00976,-0.01464,0.0122,-0.0732,-0.07808,-0.05856,-0.08296,-0.00976,-0.02928
0.00976,0.00244,-0.01464,-0.01952,-0.0244,0.01708,-0.0732,-0.07808,-0.05856,-0.08784,-0.01464,-0.02928
0.01464,0.00244,-0.01952,-0.02684,-0.03416,0.0244,-0.06344,-0.06344,-0.05368,-0.08784,-0.01952,-0.0244
0.01464,0.00732,-0.02928,-0.0366,-0.04392,0.02928,-0.0488,-0.06344,-0.0488,-0.08784,-0.0244,-0.0244
0,0.01708,-0.03416,-0.03416,-0.03416,0.01708,-0.03904,-0.06832,-0.0488,-0.09272,-0.02928,-0.03416
-0.00976,0.0244,-0.03904,-0.03416,-0.02928,0.00976,-0.03416,-0.0732,-0.0488,-0.09272,-0.02928,-0.03904
-0.0244,0.03904,-0.05368,-0.04148,-0.02928,0.00244,-0.02928,-0.0732,-0.0488,-0.0976,-0.03904,-0.0488
-0.03904,0.05124,-0.06344,-0.04392,-0.0244,-0.00732,-0.01952,-0.0732,-0.0488,-0.0976,-0.03904,-0.05368
-0.05368,0.05856,-0.06344,-0.0366,-0.00976,-0.02196,-0.00976,-0.06344,-0.0488,-0.0976,-0.03904,-0.05856
-0.06344,0.06832,-0.0732,-0.04148,-0.00976,-0.02684,0,-0.05856,-0.0488,-0.0976,-0.04392,-0.06344
-0.06832,0.06832,-0.06832,-0.03416,0,-0.03416,0,-0.06344,-0.0488,-0.10248,-0.05368,-0.0732
-0.06832,0.07076,-0.0732,-0.03904,-0.00488,-0.03172,0,-0.06832,-0.05856,-0.11224,-0.05368,-0.0732
-0.05856,0.07076,-0.08296,-0.05368,-0.0244,-0.01708,0,-0.0732,-0.05856,-0.11712,-0.05856,-0.0732
-0.05368,0.07076,-0.08784,-0.061,-0.03416,-0.00976,-0.00488,-0.0732,-0.05856,-0.11712,-0.05856,-0.0732
-0.06832,0.08296,-0.0976,-0.06344,-0.02928,-0.01952,-0.00488,-0.06832,-0.05856,-0.11712,-0.05856,-0.07808
-0.08296,0.09272,-0.10248,-0.061,-0.01952,-0.03172,0,-0.06832,-0.05856,-0.11712,-0.05856,-0.08296
-0.08296,0.09516,-0.10736,-0.06588,-0.0244,-0.02928,0,-0.06832,-0.05856,-0.11712,-0.06344,-0.08296
-0.08296,0.0976,-0.11224,-0.07076,-0.02928,-0.02684,0,-0.06832,-0.05856,-0.11712,-0.06344,-0.07808
-0.08296,0.0976,-0.11224,-0.07076,-0.02928,-0.02684,0,-0.0732,-0.05368,-0.10736,-0.05856,-0.07808
-0.08784,0.10004,-0.11224,-0.06832,-0.0244,-0.03172,0,-0.0732,-0.05368,-0.10248,-0.05856,-0.07808
-0.08784,0.10004,-0.11224,-0.06832,-0.0244,-0.03172,0,-0.0732,-0.05368,-0.10248,-0.05856,-0.07808
-0.08784,0.10004,-0.11224,-0.06832,-0.0244,-0.03172,0,-0.0732,-0.05368,-0.0976,-0.05856,-0.07808
-0.08296,0.09516,-0.10736,-0.06588,-0.0244,-0.02928,0,-0.0732,-0.0488,-0.0976,-0.05856,-0.07808
-0.07808,0.09272,-0.10736,-0.06832,-0.02928,-0.0244,0.00976,-0.06832,-0.0488,-0.0976,-0.05856,-0.07808
-0.07808,0.09028,-0.10248,-0.06344,-0.0244,-0.02684,0.01952,-0.06344,-0.05856,-0.10736,-0.05856,-0.07808
-0.08784,0.10004,-0.11224,-0.06832,-0.0244,-0.03172,0.03904,-0.00976,-0.03904,-0.0976,-0.05856,-0.08784
-0.10248,0.11712,-0.13176,-0.08052,-0.02928,-0.0366,0.12688,0.15128,0.0732,-0.03904,-0.06344,-0.122
-0.0732,0.09028,-0.10736,-0.07076,-0.03416,-0.01952,0.23912,0.4148,0.2684,0.11224,0.01464,-0.11712
-0.00976,0.01952,-0.02928,-0.0244,-0.01952,0.00488,0.33184,0.81496,0.5124,0.33184,0.16592,-0.04392
0.0976,-0.06588,0.03416,-0.01464,-0.06344,0.08052,0.35136,1.0248,0.64416,0.50264,0.33184,0.07808
0.30744,-0.1952,0.08296,-0.07076,-0.22448,0.26596,0.25864,1.02968,0.6344,0.56608,0.45872,0.24888
0.5368,-0.34404,0.15128,-0.11712,-0.38552,0.46116,0.11224,0.93208,0.57584,0.60024,0.56608,0.43432
0.732,-0.52216,0.31232,-0.05368,-0.41968,0.57584,-0.08784,0.6588,0.47336,0.63928,0.71248,0.63928
0.75152,-0.63928,0.52704,0.15128,-0.22448,0.488,-0.24888,0.16592,0.3172,0.5856,0.74664,0.74664
0.64416,-0.65148,0.6588,0.33672,0.01464,0.31476,-0.34648,-0.46848,0.03416,0.31232,0.5856,0.72224
0.3904,-0.5246,0.6588,0.4636,0.2684,0.061,-0.42456,-1.098,-0.2684,0.00976,0.36112,0.60512
0.15616,-0.366,0.57584,0.49776,0.41968,-0.13176,-0.50752,-1.54696,-0.5612,-0.27328,0.13664,0.42944
0.00976,-0.22204,0.43432,0.42944,0.42456,-0.2074,-0.50752,-1.6348,-0.72712,-0.45384,-0.03416,0.26352
-0.06344,-0.14152,0.34648,0.3782,0.40992,-0.23668,-0.42456,-1.5128,-0.76616,-0.53192,-0.11712,0.18056
-0.11712,-0.07076,0.25864,0.3172,0.37576,-0.24644,-0.38552,-1.35664,-0.76128,-0.55632,-0.18056,0.10736
-0.16592,-0.00244,0.1708,0.25376,0.33672,-0.25132,-0.3416,-1.10288,-0.64416,-0.5124,-0.19032,0.02928
-0.16592,0.01952,0.12688,0.20984,0.2928,-0.22936,-0.30744,-0.83448,-0.49288,-0.40992,-0.16592,-0.01952
-0.10736,0.00732,0.09272,0.1464,0.20008,-0.15372,-0.23912,-0.58072,-0.33184,-0.2684,-0.10736,-0.0244
-0.08784,0.01708,0.05368,0.0976,0.14152,-0.11468,-0.14152,-0.37088,-0.21472,-0.18056,-0.06832,-0.0244
-0.06832,0.02928,0.00976,0.04392,0.07808,-0.0732,-0.05856,-0.20496,-0.12688,-0.13176,-0.04392,-0.0244
-0.05856,0.0366,-0.01464,0.01464,0.04392,-0.05124,-0.01952,-0.11224,-0.0732,-0.10736,-0.03416,-0.02928
-0.03904,0.0366,-0.03416,-0.01464,0.00488,-0.02196,-0.00488,-0.08784,-0.05368,-0.07808,-0.03416,-0.02928
-0.0244,0.03416,-0.04392,-0.03172,-0.01952,-0.00244,0.00976,-0.05368,-0.03416,-0.05856,-0.03416,-0.0244
-0.03416,0.04392,-0.05368,-0.0366,-0.01952,-0.00732,0.02928,-0.01952,-0.02928,-0.05856,-0.02928,-0.03416
-0.04392,0.05368,-0.06344,-0.04148,-0.01952,-0.0122,0.03416,-0.00488,-0.0244,-0.05368,-0.02928,-0.03904
-0.0488,0.06344,-0.07808,-0.05368,-0.02928,-0.00976,0.03416,0.00488,-0.0244,-0.05368,-0.02928,-0.04392
-0.0488,0.07076,-0.09272,-0.06832,-0.04392,-0.00244,0.03904,0.01464,-0.01464,-0.0488,-0.02928,-0.04392
-0.0488,0.07076,-0.09272,-0.06832,-0.04392,-0.00244,0.03904,0.0244,-0.01464,-0.0488,-0.02928,-0.04392
-0.03904,0.06832,-0.0976,-0.07808,-0.05856,0.00976,0.03904,0.03416,-0.00976,-0.0488,-0.02928,-0.04392
-0.0488,0.0732,-0.0976,-0.0732,-0.0488,0,0.03904,0.02928,-0.00976,-0.04392,-0.03904,-0.0488
-0.0488,0.0732,-0.0976,-0.0732,-0.0488,0,0.04392,0.02928,-0.00976,-0.04392,-0.04392,-0.0488
-0.05856,0.07808,-0.0976,-0.06832,-0.03904,-0.00976,0.04392,0.03416,-0.00488,-0.03904,-0.03904,-0.05368
-0.05856,0.07808,-0.0976,-0.06832,-0.03904,-0.00976,0.04392,0.04392,-0.00488,-0.03904,-0.03904,-0.05856
-0.03904,0.06344,-0.08784,-0.06832,-0.0488,0.00488,0.04392,0.0488,0.00488,-0.03416,-0.02928,-0.05368
-0.01952,0.05124,-0.08296,-0.0732,-0.06344,0.02196,0.04392,0.05856,0.00976,-0.0244,-0.0244,-0.05368
-0.01952,0.05124,-0.08296,-0.0732,-0.06344,0.02196,0.04392,0.05856,0.00488,-0.0244,-0.0244,-0.0488
-0.01464,0.0488,-0.08296,-0.07564,-0.06832,0.02684,0.04392,0.06832,0.00488,-0.0244,-0.01952,-0.04392
-0.01464,0.05124,-0.08784,-0.08052,-0.0732,0.02928,0.04392,0.0732,0.01464,-0.0244,-0.01952,-0.03904
-0.01952,0.05612,-0.09272,-0.08296,-0.0732,0.02684,0.04392,0.0732,0.01464,-0.01952,-0.01952,-0.03904
-0.01952,0.05612,-0.09272,-0.08296,-0.0732,0.02684,0.04392,0.06832,0.00976,-0.01952,-0.01952,-0.03904
-0.01952,0.05368,-0.08784,-0.07808,-0.06832,0.0244,0.04392,0.06832,0.00488,-0.01464,-0.01464,-0.03904
-0.01464,0.0488,-0.08296,-0.07564,-0.06832,0.02684,0.04392,0.07808,0.01464,-0.01464,-0.01464,-0.02928
-0.01464,0.04392,-0.0732,-0.06588,-0.05856,0.02196,0.04392,0.08296,0.01464,-0.01464,-0.00976,-0.0244
-0.01464,0.04148,-0.06832,-0.061,-0.05368,0.01952,0.04392,0.08784,0.01952,-0.00976,-0.01464,-0.01952
-0.01464,0.04148,-0.06832,-0.061,-0.05368,0.01952,0.04392,0.0976,0.0244,-0.00976,-0.01952,-0.01952
-0.01952,0.0488,-0.07808,-0.06832,-0.05856,0.01952,0.03904,0.0976,0.0244,-0.00976,-0.01464,-0.01952
-0.01464,0.0488,-0.08296,-0.07564,-0.06832,0.02684,0.03904,0.10736,0.0244,-0.00488,-0.01464,-0.00976
-0.01464,0.0488,-0.08296,-0.07564,-0.06832,0.02684,0.04392,0.11224,0.02928,0.00488,-0.00488,-0.00976
-0.00488,0.03904,-0.0732,-0.07076,-0.06832,0.03172,0.0488,0.11712,0.03416,0.01464,0,-0.00488
0.01464,0.02196,-0.05856,-0.06588,-0.0732,0.04392,0.04392,0.12688,0.02928,0.01952,0,-0.00976
0.0244,0.0122,-0.0488,-0.061,-0.0732,0.0488,0.03904,0.13176,0.02928,0.01952,0.00488,-0.00488
0.0244,0.0122,-0.0488,-0.061,-0.0732,0.0488,0.03904,0.13664,0.03416,0.01464,0.00976,-0.00488
0.02928,0.00732,-0.04392,-0.05856,-0.0732,0.05124,0.03904,0.14152,0.03416,0.01464,0.00976,-0.00488
0.03416,0.00732,-0.0488,-0.06588,-0.08296,0.05856,0.03416,0.1464,0.03904,0.01952,0.00976,0.00488
0.03904,0.00732,-0.05368,-0.0732,-0.09272,0.06588,0.03416,0.15616,0.04392,0.0244,0.01464,0.00488
0.04392,0,-0.04392,-0.06588,-0.08784,0.06588,0.02928,0.16592,0.0488,0.02928,0.0244,0.01952
0.05368,-0.00732,-0.03904,-0.06588,-0.09272,0.0732,0.02928,0.17568,0.05368,0.04392,0.02928,0.02928
0.0488,-0.00976,-0.02928,-0.05368,-0.07808,0.06344,0.01952,0.18544,0.05856,0.04392,0.03904,0.03904
0.05368,-0.01464,-0.0244,-0.05124,-0.07808,0.06588,0.01952,0.18544,0.05856,0.0488,0.03904,0.04392
0.06832,-0.02684,-0.01464,-0.0488,-0.08296,0.07564,0.01952,0.1952,0.06832,0.05368,0.0488,0.04392
0.06832,-0.03172,-0.00488,-0.03904,-0.0732,0.07076,0.00488,0.20496,0.06832,0.05856,0.05368,0.05368
0.08784,-0.04148,-0.00488,-0.0488,-0.09272,0.09028,0,0.21472,0.06832,0.06832,0.05856,0.05856
0.09272,-0.0488,0.00488,-0.04148,-0.08784,0.09028,-0.00488,0.2196,0.07808,0.0732,0.06832,0.06832
0.10248,-0.05856,0.01464,-0.0366,-0.08784,0.09516,-0.00976,0.22448,0.08296,0.07808,0.07808,0.08296
0.11224,-0.06832,0.0244,-0.03172,-0.08784,0.10004,-0.01464,0.23424,0.09272,0.08784,0.08296,0.09272
0.13176,-0.08784,0.04392,-0.02196,-0.08784,0.1098,-0.0244,0.23424,0.09272,0.09272,0.08784,0.10248
0.15128,-0.10736,0.06344,-0.0122,-0.08784,0.11956,-0.02928,0.23912,0.09272,0.0976,0.0976,0.10736
0.15616,-0.1098,0.06344,-0.01464,-0.09272,0.12444,-0.02928,0.244,0.09272,0.10248,0.0976,0.11224
0.15616,-0.11224,0.06832,-0.00976,-0.08784,0.122,-0.03416,0.24888,0.09272,0.10736,0.10248,0.11712
0.15616,-0.11468,0.0732,-0.00488,-0.08296,0.11956,-0.03416,0.244,0.09272,0.11224,0.11224,0.12688
0.1708,-0.12688,0.08296,-0.00244,-0.08784,0.12932,-0.03904,0.244,0.08784,0.11712,0.122,0.13176
0.16104,-0.122,0.08296,0.00244,-0.07808,0.11956,-0.0488,0.23912,0.08784,0.11712,0.122,0.13664
0.15616,-0.11468,0.0732,-0.00488,-0.08296,0.11956,-0.05368,0.23912,0.08784,0.11712,0.122,0.1464
0.15616,-0.1098,0.06344,-0.01464,-0.09272,0.12444,-0.05856,0.22448,0.08784,0.11712,0.122,0.1464
0.15128,-0.10492,0.05856,-0.01708,-0.09272,0.122,-0.05856,0.2196,0.08784,0.11224,0.122,0.1464
0.15616,-0.11468,0.0732,-0.00488,-0.08296,0.11956,-0.05368,0.20984,0.09272,0.11224,0.11712,0.14152
0.15616,-0.11224,0.06832,-0.00976,-0.08784,0.122,-0.04392,0.20496,0.0976,0.10736,0.10736,0.12688
0.14152,-0.0976,0.05368,-0.01708,-0.08784,0.11468,-0.03904,0.20008,0.0976,0.10736,0.10248,0.11712
0.13176,-0.08784,0.04392,-0.02196,-0.08784,0.1098,-0.03416,0.19032,0.0976,0.10248,0.10248,0.11224
0.11224,-0.07076,0.02928,-0.02684,-0.08296,0.0976,-0.0244,0.17568,0.09272,0.10248,0.09272,0.0976
0.10736,-0.06588,0.0244,-0.02928,-0.08296,0.09516,-0.01952,0.16592,0.09272,0.0976,0.08296,0.08784
0.09272,-0.05124,0.00976,-0.0366,-0.08296,0.08784,-0.00976,0.15616,0.09272,0.0976,0.08296,0.07808
0.07808,-0.03172,-0.01464,-0.05368,-0.09272,0.0854,0,0.13664,0.09272,0.09272,0.0732,0.06832
0.05368,-0.00976,-0.03416,-0.061,-0.08784,0.07076,0.00488,0.12688,0.08784,0.09272,0.06344,0.06344
0.03416,0.00976,-0.05368,-0.07076,-0.08784,0.061,0.01464,0.11712,0.08784,0.08296,0.05856,0.06344
0.03904,0.00244,-0.04392,-0.06344,-0.08296,0.061,0.01464,0.10736,0.08296,0.0732,0.0488,0.0488
0.04392,0,-0.04392,-0.06588,-0.08784,0.06588,0.01952,0.09272,0.08296,0.06832,0.0488,0.03904
0.03904,0.00976,-0.05856,-0.07808,-0.0976,0.06832,0.0244,0.08296,0.0732,0.06344,0.04392,0.03416
0.0244,0.02196,-0.06832,-0.08052,-0.09272,0.05856,0.0244,0.0732,0.06344,0.05368,0.03416,0.0244
0.00976,0.03172,-0.0732,-0.07808,-0.08296,0.04636,0.0244,0.06344,0.05856,0.05856,0.03416,0.01952
0,0.03904,-0.07808,-0.07808,-0.07808,0.03904,0.0244,0.05856,0.05856,0.05856,0.02928,0.01952
0,0.04148,-0.08296,-0.08296,-0.08296,0.04148,0.02928,0.05368,0.05368,0.05368,0.0244,0.00976
0,0.04636,-0.09272,-0.09272,-0.09272,0.04636,0.02928,0.04392,0.04392,0.04392,0.01464,0
-0.00976,0.05612,-0.10248,-0.0976,-0.09272,0.04148,0.02928,0.03904,0.04392,0.03904,0.01464,0
-0.0244,0.07076,-0.11712,-0.10492,-0.09272,0.03416,0.02928,0.03416,0.04392,0.03416,0.00976,-0.00488
-0.02928,0.0732,-0.11712,-0.10248,-0.08784,0.02928,0.02928,0.02928,0.03416,0.03416,0.00976,-0.00976
-0.02928,0.0732,-0.11712,-0.10248,-0.08784,0.02928,0.03416,0.02928,0.02928,0.02928,0.00976,-0.00976
-0.0244,0.07076,-0.11712,-0.10492,-0.09272,0.03416,0.03416,0.02928,0.02928,0.02928,0.00976,-0.01464
-0.0244,0.07076,-0.11712,-0.10492,-0.09272,0.03416,0.03416,0.02928,0.02928,0.03416,0.00488,-0.01952
-0.0244,0.06832,-0.11224,-0.10004,-0.08784,0.03172,0.03416,0.0244,0.0244,0.03416,0,-0.0244
-0.0244,0.06832,-0.11224,-0.10004,-0.08784,0.03172,0.03416,0.0244,0.02928,0.03416,0,-0.0244
-0.01952,0.06344,-0.10736,-0.0976,-0.08784,0.03416,0.03416,0.01952,0.02928,0.03416,0,-0.01952
-0.01464,0.05612,-0.0976,-0.09028,-0.08296,0.03416,0.03416,0.01952,0.02928,0.03904,0,-0.01464
-0.01464,0.05856,-0.10248,-0.09516,-0.08784,0.0366,0.03416,0.01952,0.02928,0.03904,0.00488,-0.01464
-0.0244,0.06832,-0.11224,-0.10004,-0.08784,0.03172,0.03416,0.01952,0.02928,0.03904,0.00976,-0.01464
-0.0244,0.06832,-0.11224,-0.10004,-0.08784,0.03172,0.03416,0.01952,0.02928,0.03904,0.00976,-0.01464
-0.01952,0.06588,-0.11224,-0.10248,-0.09272,0.0366,0.03904,0.01952,0.0244,0.03416,0.00976,-0.01464
-0.01952,0.06344,-0.10736,-0.0976,-0.08784,0.03416,0.03904,0.01952,0.0244,0.03416,0.00976,-0.01952
-0.0244,0.06344,-0.10248,-0.09028,-0.07808,0.02684,0.03416,0.01952,0.01952,0.03416,0.00976,-0.01952
-0.02928,0.06832,-0.10736,-0.09272,-0.07808,0.0244,0.03416,0.01464,0.01952,0.03416,0.00976,-0.0244
-0.02928,0.06832,-0.10736,-0.09272,-0.07808,0.0244,0.03416,0.00976,0.01952,0.03416,0.00488,-0.02928
-0.03904,0.07808,-0.11712,-0.0976,-0.07808,0.01952,0.03904,0.00976,0.01952,0.0244,0.00488,-0.02928
-0.0488,0.08784,-0.12688,-0.10248,-0.07808,0.01464,0.03904,0.00976,0.01952,0.01952,0.00976,-0.02928
-0.0488,0.09028,-0.13176,-0.10736,-0.08296,0.01708,0.03904,0.01464,0.01952,0.0244,0.00488,-0.02928
-0.0488,0.09272,-0.13664,-0.11224,-0.08784,0.01952,0.03904,0.01464,0.01952,0.0244,0,-0.02928
-0.0488,0.09272,-0.13664,-0.11224,-0.08784,0.01952,0.03416,0.00976,0.01952,0.02928,0.00488,-0.02928
-0.0488,0.09028,-0.13176,-0.10736,-0.08296,0.01708,0.03416,0.00976,0.01952,0.03416,0.00488,-0.02928
-0.0488,0.09028,-0.13176,-0.10736,-0.08296,0.01708,0.03904,0.00976,0.01952,0.03416,0.00976,-0.02928
-0.04392,0.08784,-0.13176,-0.1098,-0.08784,0.02196,0.04392,0.00488,0.01952,0.03416,0.01464,-0.02928
-0.04392,0.0854,-0.12688,-0.10492,-0.08296,0.01952,0.04392,0.00488,0.01952,0.03416,0.01464,-0.02928
-0.04392,0.0854,-0.12688,-0.10492,-0.08296,0.01952,0.04392,0.00488,0.01952,0.03416,0.01464,-0.0244
-0.03416,0.07564,-0.11712,-0.10004,-0.08296,0.0244,0.04392,0.00976,0.0244,0.03904,0.0244,-0.0244
-0.01952,0.06588,-0.11224,-0.10248,-0.09272,0.0366,0.0488,0.01464,0.02928,0.03904,0.02928,-0.01952
-0.00976,0.05612,-0.10248,-0.0976,-0.09272,0.04148,0.0488,0.01952,0.02928,0.03904,0.02928,-0.01464
-0.00488,0.0488,-0.09272,-0.09028,-0.08784,0.04148,0.0488,0.0244,0.02928,0.03904,0.02928,-0.00976
-0.01952,0.061,-0.10248,-0.09272,-0.08296,0.03172,0.04392,0.0244,0.02928,0.03904,0.02928,-0.00976
-0.03416,0.0732,-0.11224,-0.09516,-0.07808,0.02196,0.04392,0.0244,0.02928,0.03904,0.02928,-0.00976
-0.03904,0.08052,-0.122,-0.10248,-0.08296,0.02196,0.03904,0.01952,0.02928,0.03416,0.02928,-0.01464
-0.03904,0.08784,-0.13664,-0.11712,-0.0976,0.02928,0.02928,0.01464,0.02928,0.02928,0.02928,-0.01952
-0.03904,0.0854,-0.13176,-0.11224,-0.09272,0.02684,0.02928,0.01464,0.02928,0.03416,0.02928,-0.01952
-0.03904,0.0854,-0.13176,-0.11224,-0.09272,0.02684,0.02928,0.01464,0.0244,0.03416,0.03416,-0.01952
-0.03904,0.0854,-0.13176,-0.11224,-0.09272,0.02684,0.03416,0.01952,0.0244,0.03416,0.03416,-0.01952
-0.03416,0.08052,-0.12688,-0.1098,-0.09272,0.02928,0.03904,0.01952,0.0244,0.02928,0.02928,-0.01952
-0.03416,0.08052,-0.12688,-0.1098,-0.09272,0.02928,0.03416,0.01952,0.0244,0.02928,0.02928,-0.01464
-0.03416,0.08052,-0.12688,-0.1098,-0.09272,0.02928,0.03416,0.01952,0.0244,0.02928,0.02928,-0.00976
-0.02928,0.07564,-0.122,-0.10736,-0.09272,0.03172,0.03416,0.01952,0.01952,0.04392,0.03416,-0.00976
-0.0244,0.07076,-0.11712,-0.10492,-0.09272,0.03416,0.03416,0.01952,0.01952,0.05368,0.03904,-0.00976
-0.0244,0.07076,-0.11712,-0.10492,-0.09272,0.03416,0.03416,0.01952,0.0244,0.05368,0.03904,-0.00976
-0.0244,0.07076,-0.11712,-0.10492,-0.09272,0.03416,0.03416,0.01464,0.02928,0.04392,0.03416,-0.00976
-0.0244,0.0732,-0.122,-0.1098,-0.0976,0.0366,0.02928,0.01464,0.0244,0.04392,0.03416,-0.00976
-0.0244,0.07564,-0.12688,-0.11468,-0.10248,0.03904,0.02928,0.01464,0.0244,0.04392,0.03416,-0.01464
-0.0244,0.07564,-0.12688,-0.11468,-0.10248,0.03904,0.03416,0.01464,0.0244,0.04392,0.03416,-0.01464
-0.02928,0.07808,-0.12688,-0.11224,-0.0976,0.03416,0.03416,0.01464,0.0244,0.04392,0.03416,-0.01464
-0.02928,0.07564,-0.122,-0.10736,-0.09272,0.03172,0.02928,0.01464,0.0244,0.03904,0.02928,-0.01464
-0.0244,0.0732,-0.122,-0.1098,-0.0976,0.0366,0.02928,0.00976,0.01952,0.03904,0.02928,-0.01464
-0.01464,0.06832,-0.122,-0.11468,-0.10736,0.04636,0.02928,0.00488,0.01952,0.03904,0.03416,-0.01464
-0.00976,0.06588,-0.122,-0.11712,-0.11224,0.05124,0.02928,0.00488,0.01952,0.03904,0.03904,-0.01464
-0.0244,0.07564,-0.12688,-0.11468,-0.10248,0.03904,0.02928,0.00488,0.01464,0.03904,0.03416,-0.01464
-0.03416,0.0854,-0.13664,-0.11956,-0.10248,0.03416,0.02928,0.00488,0.01464,0.03904,0.03416,-0.0244
-0.04392,0.09028,-0.13664,-0.11468,-0.09272,0.0244,0.0244,0,0.00976,0.02928,0.0244,-0.0244
-0.05368,0.0976,-0.14152,-0.11468,-0.08784,0.01708,0.0244,0,0.00976,0.0244,0.0244,-0.0244
-0.04392,0.09028,-0.13664,-0.11468,-0.09272,0.0244,0.02928,0,0.00976,0.0244,0.02928,-0.0244
-0.03416,0.08296,-0.13176,-0.11468,-0.0976,0.03172,0.02928,0,0.00976,0.02928,0.03416,-0.0244
-0.03416,0.08296,-0.13176,-0.11468,-0.0976,0.03172,0.02928,0,0.00976,0.02928,0.03416,-0.0244
-0.03416,0.08296,-0.13176,-0.11468,-0.0976,0.03172,0.02928,-0.00488,0.00976,0.02928,0.02928,-0.0244
-0.03904,0.0854,-0.13176,-0.11224,-0.09272,0.02684,0.02928,-0.00488,0,0.0244,0.02928,-0.02928
-0.04392,0.08784,-0.13176,-0.1098,-0.08784,0.02196,0.0244,-0.00488,-0.00488,0.0244,0.02928,-0.03416
-0.04392,0.09028,-0.13664,-0.11468,-0.09272,0.0244,0.0244,-0.00976,-0.00488,0.01952,0.0244,-0.03416
-0.0488,0.09516,-0.14152,-0.11712,-0.09272,0.02196,0.0244,-0.01464,-0.00488,0.01952,0.0244,-0.03416
-0.05856,0.10004,-0.14152,-0.11224,-0.08296,0.0122,0.02928,-0.01464,-0.00488,0.01952,0.0244,-0.03416
-0.06832,0.10492,-0.14152,-0.10736,-0.0732,0.00244,0.02928,-0.01952,-0.00488,0.01952,0.0244,-0.03416
-0.04392,0.09028,-0.13664,-0.11468,-0.09272,0.0244,0.0244,-0.00976,0,0.0244,0.02928,-0.02928
-0.0244,0.07808,-0.13176,-0.11956,-0.10736,0.04148,0.0244,0,0.00488,0.02928,0.03416,-0.0244
-0.0244,0.07808,-0.13176,-0.11956,-0.10736,0.04148,0.0244,0,0,0.02928,0.03416,-0.01464
-0.0244,0.07808,-0.13176,-0.11956,-0.10736,0.04148,0.02928,0,-0.00488,0.0244,0.03416,-0.00976
-0.03904,0.08784,-0.13664,-0.11712,-0.0976,0.02928,0.02928,-0.00488,-0.00488,0.0244,0.02928,-0.01952
-0.04392,0.09516,-0.1464,-0.12444,-0.10248,0.02928,0.0244,-0.00976,0,0.0244,0.0244,-0.02928
-0.04392,0.0976,-0.15128,-0.12932,-0.10736,0.03172,0.0244,-0.01464,0,0.01952,0.0244,-0.02928
-0.04392,0.0976,-0.15128,-0.12932,-0.10736,0.03172,0.0244,-0.01464,0,0.01952,0.0244,-0.02928
-0.04392,0.09516,-0.1464,-0.12444,-0.10248,0.02928,0.0244,-0.01464,0,0.01952,0.0244,-0.02928
-0.04392,0.09272,-0.14152,-0.11956,-0.0976,0.02684,0.0244,-0.01464,-0.00488,0.01952,0.02928,-0.02928
-0.04392,0.09272,-0.14152,-0.11956,-0.0976,0.02684,0.0244,-0.00976,-0.00488,0.02928,0.02928,-0.02928
-0.03904,0.09028,-0.14152,-0.122,-0.10248,0.03172,0.0244,-0.00488,-0.00488,0.02928,0.03416,-0.02928
-0.03904,0.09028,-0.14152,-0.122,-0.10248,0.03172,0.0244,-0.00488,-0.00488,0.03416,0.03416,-0.02928
-0.03904,0.09028,-0.14152,-0.122,-0.10248,0.03172,0.02928,0,0,0.03904,0.03416,-0.02928
-0.04392,0.09272,-0.14152,-0.11956,-0.0976,0.02684,0.02928,-0.00488,0,0.03904,0.03904,-0.02928
-0.04392,0.09272,-0.14152,-0.11956,-0.0976,0.02684,0.02928,-0.00976,0,0.03416,0.03904,-0.02928
-0.04392,0.09516,-0.1464,-0.12444,-0.10248,0.02928,0.0244,-0.00976,0,0.02928,0.02928,-0.03416
-0.04392,0.0976,-0.15128,-0.12932,-0.10736,0.03172,0.0244,-0.00976,-0.00488,0.0244,0.0244,-0.03904
-0.04392,0.0976,-0.15128,-0.12932,-0.10736,0.03172,0.0244,-0.00976,-0.00488,0.0244,0.0244,-0.03904
-0.03904,0.09028,-0.14152,-0.122,-0.10248,0.03172,0.0244,-0.00976,-0.00488,0.0244,0.0244,-0.03904
-0.03416,0.0854,-0.13664,-0.11956,-0.10248,0.03416,0.0244,-0.00976,-0.00488,0.01952,0.0244,-0.03904
-0.02928,0.08052,-0.13176,-0.11712,-0.10248,0.0366,0.0244,-0.01464,-0.00488,0.01464,0.0244,-0.03904
-0.02928,0.08784,-0.1464,-0.13176,-0.11712,0.04392,0.0244,-0.01464,-0.00488,0.01464,0.0244,-0.03904
-0.01952,0.08784,-0.15616,-0.1464,-0.13664,0.05856,0.0244,-0.01464,-0.00488,0.01464,0.01952,-0.03904
-0.0244,0.0854,-0.1464,-0.1342,-0.122,0.0488,0.0244,-0.01464,-0.00488,0.01952,0.01952,-0.04392
-0.03416,0.0854,-0.13664,-0.11956,-0.10248,0.03416,0.0244,-0.01464,-0.00488,0.0244,0.0244,-0.04392
-0.03416,0.0854,-0.13664,-0.11956,-0.10248,0.03416,0.0244,-0.01464,-0.00488,0.0244,0.0244,-0.03416
-0.03416,0.08784,-0.14152,-0.12444,-0.10736,0.0366,0.0244,-0.01464,-0.00488,0.0244,0.0244,-0.02928
-0.03416,0.09028,-0.1464,-0.12932,-0.11224,0.03904,0.0244,-0.01952,-0.00488,0.0244,0.0244,-0.03904
-0.03416,0.09028,-0.1464,-0.12932,-0.11224,0.03904,0.0244,-0.01952,-0.00488,0.0244,0.0244,-0.03416
-0.03904,0.09028,-0.14152,-0.122,-0.10248,0.03172,0.0244,-0.00976,0,0.0244,0.0244,-0.03416
-0.04392,0.09028,-0.13664,-0.11468,-0.09272,0.0244,0.02928,0,0,0.02928,0.0244,-0.03416
-0.04392,0.09272,-0.14152,-0.11956,-0.0976,0.02684,0.0244,-0.00976,-0.00488,0.0244,0.01464,-0.03416
-0.0488,0.0976,-0.1464,-0.122,-0.0976,0.0244,0.01952,-0.01952,-0.00976,0.01952,0.00976,-0.03904
-0.0488,0.0976,-0.1464,-0.122,-0.0976,0.0244,0.01952,-0.01952,-0.00976,0.01952,0.00976,-0.03904
-0.0488,0.0976,-0.1464,-0.122,-0.0976,0.0244,0.01952,-0.01952,-0.00976,0.01952,0.00976,-0.03904
-0.03904,0.09272,-0.1464,-0.12688,-0.10736,0.03416,0.01952,-0.01952,-0.00976,0.01952,0.01464,-0.03904
-0.02928,0.08784,-0.1464,-0.13176,-0.11712,0.04392,0.01952,-0.01952,-0.00976,0.01952,0.01952,-0.03904
-0.03904,0.09272,-0.1464,-0.12688,-0.10736,0.03416,0.0244,-0.01952,-0.00976,0.01952,0.01952,-0.03904
-0.0488,0.0976,-0.1464,-0.122,-0.0976,0.0244,0.02928,-0.01952,-0.00976,0.01952,0.01952,-0.03904
-0.0488,0.09516,-0.14152,-0.11712,-0.09272,0.02196,0.03416,-0.01464,-0.00488,0.01952,0.01952,-0.03904
-0.0488,0.09272,-0.13664,-0.11224,-0.08784,0.01952,0.03904,-0.00976,0,0.01952,0.01952,-0.03904
-0.03904,0.08784,-0.13664,-0.11712,-0.0976,0.02928,0.03904,-0.00488,0,0.0244,0.0244,-0.03416
-0.02928,0.08296,-0.13664,-0.122,-0.10736,0.03904,0.03904,0,0,0.02928,0.02928,-0.02928
-0.02928,0.08296,-0.13664,-0.122,-0.10736,0.03904,0.02928,0.00488,0.00488,0.02928,0.02928,-0.02928
-0.02928,0.08296,-0.13664,-0.122,-0.10736,0.03904,0.01952,0.00976,0.00976,0.02928,0.02928,-0.02928
-0.01952,0.07564,-0.13176,-0.122,-0.11224,0.04636,0.01952,0.00976,0.01464,0.03416,0.02928,-0.02928
-0.00976,0.061,-0.11224,-0.10736,-0.10248,0.04636,0.0244,0.01952,0.0244,0.0488,0.03416,-0.01952
0,0.0488,-0.0976,-0.0976,-0.0976,0.0488,0.02928,0.02928,0.03416,0.06344,0.04392,-0.01464
0,0.03904,-0.07808,-0.07808,-0.07808,0.03904,0.03904,0.0488,0.05368,0.07808,0.06344,-0.00976
0.00488,0.02928,-0.06344,-0.06588,-0.06832,0.0366,0.03904,0.05368,0.06344,0.08784,0.06832,-0.00488
0.00976,0.02684,-0.06344,-0.06832,-0.0732,0.04148,0.03904,0.05856,0.06344,0.09272,0.0732,-0.00488
0.00976,0.02684,-0.06344,-0.06832,-0.0732,0.04148,0.04392,0.05856,0.06832,0.09272,0.0732,0
0.00976,0.02684,-0.06344,-0.06832,-0.0732,0.04148,0.03904,0.05856,0.0732,0.09272,0.0732,0.00488
0.00976,0.02196,-0.05368,-0.05856,-0.06344,0.0366,0.02928,0.05856,0.07808,0.0976,0.07808,0.00488
0.01464,0.01708,-0.0488,-0.05612,-0.06344,0.03904,0.01952,0.06344,0.07808,0.10736,0.08784,0.01464
0.0244,0.0122,-0.0488,-0.061,-0.0732,0.0488,0,0.06344,0.0732,0.11224,0.09272,0.01464
0.0244,0.01708,-0.05856,-0.07076,-0.08296,0.05368,-0.01952,0.04392,0.05856,0.0976,0.08784,0.01464
0.01952,0.02196,-0.06344,-0.0732,-0.08296,0.05124,-0.02928,0.00488,0.02928,0.07808,0.0732,0.00488
0.01952,0.0244,-0.06832,-0.07808,-0.08784,0.05368,-0.0488,-0.02928,0.00488,0.05368,0.05856,0
0.0244,0.02928,-0.08296,-0.09516,-0.10736,0.06588,-0.04392,-0.0488,-0.01952,0.03904,0.0488,0
0.02928,0.03172,-0.09272,-0.10736,-0.122,0.07564,-0.03416,-0.0488,-0.01952,0.03904,0.04392,0
0.02928,0.03416,-0.0976,-0.11224,-0.12688,0.07808,-0.03416,-0.03416,-0.01952,0.03416,0.03904,0
0.0244,0.04148,-0.10736,-0.11956,-0.13176,0.07808,-0.02928,-0.03416,-0.01952,0.02928,0.03416,-0.00488
0.00488,0.05612,-0.11712,-0.11956,-0.122,0.06344,-0.01952,-0.03904,-0.01952,0.01952,0.0244,-0.01952
-0.00976,0.06832,-0.12688,-0.122,-0.11712,0.05368,-0.01464,-0.04392,-0.01952,0.01464,0.01952,-0.02928
-0.01952,0.07808,-0.13664,-0.12688,-0.11712,0.0488,-0.00488,-0.04392,-0.01952,0.00976,0.00976,-0.03416
-0.02928,0.0854,-0.14152,-0.12688,-0.11224,0.04148,0.00976,-0.04392,-0.01952,0.00976,0.00976,-0.03416
-0.04392,0.09272,-0.14152,-0.11956,-0.0976,0.02684,0.01952,-0.03904,-0.01952,0.00976,0.01464,-0.03904
-0.05368,0.10248,-0.15128,-0.12444,-0.0976,0.02196,0.02928,-0.03904,-0.01952,0.00976,0.01464,-0.04392
-0.05856,0.10492,-0.15128,-0.122,-0.09272,0.01708,0.0244,-0.04392,-0.01952,0.00976,0.00488,-0.05368
-0.05856,0.1098,-0.16104,-0.13176,-0.10248,0.02196,0.01952,-0.0488,-0.02928,0.00488,0.00488,-0.05368
-0.05856,0.11468,-0.1708,-0.14152,-0.11224,0.02684,0.01952,-0.05368,-0.03416,0,0,-0.05368
-0.06344,0.11956,-0.17568,-0.14396,-0.11224,0.0244,0.01464,-0.05368,-0.03904,0,0,-0.05368
-0.06344,0.11956,-0.17568,-0.14396,-0.11224,0.0244,0.01464,-0.0488,-0.03904,0,0,-0.05856
-0.06344,0.11712,-0.1708,-0.13908,-0.10736,0.02196,0.01952,-0.0488,-0.03904,0,0,-0.06344
-0.06344,0.11712,-0.1708,-0.13908,-0.10736,0.02196,0.01952,-0.0488,-0.03904,0,-0.00488,-0.06344
-0.06344,0.11712,-0.1708,-0.13908,-0.10736,0.02196,0.01952,-0.0488,-0.03904,0,-0.00488,-0.05856
-0.06344,0.11956,-0.17568,-0.14396,-0.11224,0.0244,0.01952,-0.0488,-0.03416,0.00488,-0.00976,-0.05856
-0.06832,0.12444,-0.18056,-0.1464,-0.11224,0.02196,0.01952,-0.04392,-0.03416,0.00488,-0.01952,-0.05856
-0.06832,0.12444,-0.18056,-0.1464,-0.11224,0.02196,0.01952,-0.03904,-0.03416,0.00488,-0.00976,-0.05856
-0.06832,0.12444,-0.18056,-0.1464,-0.11224,0.02196,0.01952,-0.03416,-0.03416,0.00976,0,-0.05856
-0.06344,0.11712,-0.1708,-0.13908,-0.10736,0.02196,0.01952,-0.03416,-0.02928,0.00976,0,-0.05368
-0.05856,0.11224,-0.16592,-0.13664,-0.10736,0.0244,0.02928,-0.02928,-0.02928,0.00976,0,-0.0488
-0.05856,0.11468,-0.1708,-0.14152,-0.11224,0.02684,0.03904,-0.02928,-0.03416,-0.00488,-0.01464,-0.05856
-0.06832,0.12932,-0.19032,-0.15616,-0.122,0.02684,0.05856,0.01952,-0.00976,0,-0.02928,-0.07808
-0.08784,0.15128,-0.21472,-0.1708,-0.12688,0.01952,0.1464,0.18056,0.10736,0.06832,-0.01952,-0.10736
-0.06344,0.12932,-0.1952,-0.16348,-0.13176,0.03416,0.25864,0.44408,0.30744,0.22936,0.0732,-0.0976
0.01464,0.04392,-0.10248,-0.1098,-0.11712,0.06588,0.32696,0.8296,0.54656,0.44896,0.23424,-0.00976
0.13664,-0.05612,-0.0244,-0.09272,-0.16104,0.14884,0.32208,1.0248,0.67344,0.61976,0.40992,0.12688
0.3416,-0.20008,0.05856,-0.11224,-0.28304,0.31232,0.23912,1.02968,0.66856,0.70272,0.5612,0.32208
0.56608,-0.36356,0.16104,-0.122,-0.40504,0.48556,0.10248,0.93208,0.61488,0.7564,0.69296,0.53192
0.74176,-0.53924,0.33672,-0.03416,-0.40504,0.5734,-0.0732,0.6588,0.53192,0.79056,0.83448,0.72712
0.74176,-0.65392,0.56608,0.1952,-0.17568,0.45872,-0.20984,0.16592,0.39528,0.732,0.86376,0.82472
0.59536,-0.62952,0.66368,0.366,0.06832,0.26352,-0.2928,-0.43432,0.11224,0.44896,0.6832,0.76616
0.30256,-0.46604,0.62952,0.47824,0.32696,-0.0122,-0.35624,-1.02968,-0.19032,0.13664,0.4392,0.61488
0.09272,-0.3294,0.56608,0.51972,0.47336,-0.19032,-0.42456,-1.45912,-0.44896,-0.10736,0.22936,0.44408
-0.02928,-0.2074,0.44408,0.45872,0.47336,-0.25132,-0.40992,-1.52744,-0.58072,-0.24888,0.0732,0.28304
-0.09272,-0.13176,0.35624,0.4026,0.44896,-0.27084,-0.32696,-1.40056,-0.63928,-0.34648,-0.01952,0.20008
-0.13664,-0.06588,0.2684,0.33672,0.40504,-0.27084,-0.28792,-1.23952,-0.65392,-0.3904,-0.09272,0.12688
-0.17568,0.00976,0.15616,0.244,0.33184,-0.25376,-0.25864,-1.02968,-0.57096,-0.37576,-0.122,0.0488
-0.16592,0.03904,0.08784,0.1708,0.25376,-0.20984,-0.23912,-0.8052,-0.45384,-0.30256,-0.11712,0
-0.10736,0.02928,0.0488,0.10248,0.15616,-0.13176,-0.20496,-0.5612,-0.30256,-0.1708,-0.06344,-0.00976
-0.08784,0.04148,0.00488,0.0488,0.09272,-0.09028,-0.14152,-0.36112,-0.1952,-0.09272,-0.02928,-0.01464
-0.0732,0.05612,-0.03904,-0.00244,0.03416,-0.05368,-0.05368,-0.1952,-0.11712,-0.04392,-0.00976,-0.01464
-0.06832,0.06588,-0.06344,-0.02928,0.00488,-0.0366,-0.00976,-0.10248,-0.0732,-0.01952,-0.00488,-0.01952
-0.05368,0.06832,-0.08296,-0.05612,-0.02928,-0.0122,0.00488,-0.0732,-0.04392,0.00488,0,-0.0244
-0.04392,0.06832,-0.09272,-0.07076,-0.0488,0.00244,0.01952,-0.03416,-0.01464,0.01952,0.00488,-0.0244
-0.04392,0.07564,-0.10736,-0.0854,-0.06344,0.00976,0.03904,0.00488,-0.00976,0.0244,0.00976,-0.02928
-0.04392,0.08296,-0.122,-0.10004,-0.07808,0.01708,0.04392,0.0244,-0.00488,0.03416,0.00976,-0.02928
-0.03904,0.08052,-0.122,-0.10248,-0.08296,0.02196,0.04392,0.02928,-0.00488,0.03416,0.00976,-0.02928
-0.02928,0.07564,-0.122,-0.10736,-0.09272,0.03172,0.0488,0.03416,0.00488,0.03904,0.00976,-0.0244
-0.02928,0.07564,-0.122,-0.10736,-0.09272,0.03172,0.0488,0.04392,0.00488,0.03416,0.00976,-0.0244
-0.01952,0.0732,-0.12688,-0.11712,-0.10736,0.04392,0.0488,0.05368,0.00976,0.02928,0.00976,-0.0244
-0.03416,0.08052,-0.12688,-0.1098,-0.09272,0.02928,0.0488,0.05368,0.00976,0.03416,0.00488,-0.02928
-0.03904,0.08296,-0.12688,-0.10736,-0.08784,0.0244,0.05368,0.05856,0.00976,0.03416,0.00488,-0.02928
-0.03904,0.0854,-0.13176,-0.11224,-0.09272,0.02684,0.05368,0.06344,0.01464,0.03904,0.00488,-0.02928
-0.02928,0.08296,-0.13664,-0.122,-0.10736,0.03904,0.05368,0.0732,0.01464,0.03904,0,-0.02928
-0.0244,0.07808,-0.13176,-0.11956,-0.10736,0.04148,0.05368,0.06832,0.01952,0.03904,0.00488,-0.02928
-0.01952,0.07564,-0.13176,-0.122,-0.11224,0.04636,0.05368,0.06832,0.01952,0.04392,0.00488,-0.03416
-0.01952,0.07564,-0.13176,-0.122,-0.11224,0.04636,0.0488,0.06832,0.00976,0.04392,0,-0.03904
-0.01464,0.0732,-0.13176,-0.12444,-0.11712,0.05124,0.04392,0.07808,0.00488,0.04392,0,-0.04392
-0.00976,0.06832,-0.12688,-0.122,-0.11712,0.05368,0.04392,0.08296,0.01464,0.04392,0,-0.03904
-0.00976,0.06588,-0.122,-0.11712,-0.11224,0.05124,0.04392,0.08296,0.01464,0.0488,0,-0.03904
-0.00488,0.06344,-0.122,-0.11956,-0.11712,0.05612,0.04392,0.08296,0.01464,0.0488,0,-0.03416
0,0.05856,-0.11712,-0.11712,-0.11712,0.05856,0.04392,0.08784,0.01464,0.05368,0.00488,-0.02928
0.00488,0.05612,-0.11712,-0.11956,-0.122,0.06344,0.04392,0.09272,0.0244,0.05368,0.00488,-0.0244
0.00488,0.05368,-0.11224,-0.11468,-0.11712,0.061,0.04392,0.09272,0.0244,0.05368,0.00976,-0.0244
0.00488,0.05124,-0.10736,-0.1098,-0.11224,0.05856,0.04392,0.09272,0.0244,0.05856,0.00976,-0.01952
0.00488,0.05124,-0.10736,-0.1098,-0.11224,0.05856,0.04392,0.0976,0.0244,0.05856,0.00976,-0.01952
0,0.05368,-0.10736,-0.10736,-0.10736,0.05368,0.03904,0.0976,0.0244,0.05856,0.01464,-0.01952
0.00488,0.0488,-0.10248,-0.10492,-0.10736,0.05612,0.03904,0.10736,0.0244,0.06344,0.01464,-0.00976
0.00488,0.0488,-0.10248,-0.10492,-0.10736,0.05612,0.03904,0.11224,0.02928,0.06832,0.0244,-0.00976
0.01464,0.03904,-0.09272,-0.10004,-0.10736,0.061,0.03904,0.11712,0.03416,0.0732,0.02928,-0.00488
0.02928,0.02928,-0.08784,-0.10248,-0.11712,0.0732,0.03416,0.12688,0.03416,0.07808,0.0244,-0.00488
0.03416,0.02684,-0.08784,-0.10492,-0.122,0.07808,0.02928,0.13176,0.03904,0.07808,0.0244,0.00488
0.03416,0.0244,-0.08296,-0.10004,-0.11712,0.07564,0.02928,0.13664,0.04392,0.0732,0.02928,0.00488
0.03904,0.01708,-0.0732,-0.09272,-0.11224,0.07564,0.02928,0.14152,0.04392,0.0732,0.02928,0.00488
0.04392,0.0122,-0.06832,-0.09028,-0.11224,0.07808,0.0244,0.1464,0.04392,0.07808,0.02928,0.01464
0.0488,0.00732,-0.06344,-0.08784,-0.11224,0.08052,0.0244,0.15616,0.04392,0.08296,0.03416,0.01464
0.05368,0,-0.05368,-0.08052,-0.10736,0.08052,0.01952,0.16104,0.0488,0.08296,0.03904,0.0244
0.06344,-0.00732,-0.0488,-0.08052,-0.11224,0.08784,0.01952,0.16592,0.05368,0.09272,0.03904,0.02928
0.05856,-0.00732,-0.04392,-0.0732,-0.10248,0.08052,0.00488,0.17568,0.05856,0.09272,0.0488,0.03904
0.06344,-0.00976,-0.04392,-0.07564,-0.10736,0.0854,0,0.17568,0.05856,0.0976,0.0488,0.04392
0.07808,-0.01952,-0.03904,-0.07808,-0.11712,0.0976,0,0.18544,0.06832,0.0976,0.05856,0.0488
0.07808,-0.02196,-0.03416,-0.0732,-0.11224,0.09516,-0.01464,0.1952,0.06832,0.0976,0.06344,0.06344
0.0976,-0.03416,-0.02928,-0.07808,-0.12688,0.11224,-0.01952,0.20008,0.05856,0.10736,0.06832,0.06832
0.10248,-0.04392,-0.01464,-0.06588,-0.11712,0.1098,-0.0244,0.20008,0.05856,0.11224,0.07808,0.07808
0.11224,-0.05612,0,-0.05612,-0.11224,0.11224,-0.02928,0.20496,0.05856,0.11712,0.08296,0.08784
0.122,-0.06832,0.01464,-0.04636,-0.10736,0.11468,-0.03416,0.21472,0.06344,0.12688,0.08296,0.09272
0.13176,-0.07808,0.0244,-0.04148,-0.10736,0.11956,-0.04392,0.21472,0.06344,0.12688,0.08784,0.10248
0.14152,-0.08784,0.03416,-0.0366,-0.10736,0.12444,-0.0488,0.2196,0.06344,0.12688,0.0976,0.10736
0.1464,-0.09028,0.03416,-0.03904,-0.11224,0.12932,-0.0488,0.2196,0.06344,0.13176,0.0976,0.11224
0.1464,-0.09272,0.03904,-0.03416,-0.10736,0.12688,-0.05368,0.2196,0.06344,0.13664,0.10248,0.11712
0.1464,-0.09516,0.04392,-0.02928,-0.10248,0.12444,-0.05368,0.21472,0.06832,0.13664,0.10736,0.12688
0.16104,-0.10736,0.05368,-0.02684,-0.10736,0.1342,-0.05856,0.21472,0.06832,0.13664,0.11224,0.13176
0.16592,-0.11468,0.06344,-0.01952,-0.10248,0.1342,-0.05856,0.21472,0.06832,0.13664,0.11224,0.13176
0.17568,-0.11956,0.06344,-0.0244,-0.11224,0.14396,-0.05368,0.2196,0.06832,0.13664,0.11224,0.13664
0.17568,-0.11956,0.06344,-0.0244,-0.11224,0.14396,-0.05856,0.20496,0.0732,0.13664,0.11224,0.13664
0.1708,-0.11956,0.06832,-0.01708,-0.10248,0.13664,-0.05856,0.20008,0.07808,0.13176,0.11224,0.13664
0.16104,-0.11468,0.06832,-0.0122,-0.09272,0.12688,-0.05856,0.19032,0.07808,0.13176,0.10736,0.13176
0.1464,-0.0976,0.0488,-0.0244,-0.0976,0.122,-0.05368,0.18544,0.07808,0.12688,0.0976,0.11712
0.13176,-0.08296,0.03416,-0.03172,-0.0976,0.11468,-0.0488,0.18544,0.07808,0.12688,0.0976,0.10736
0.122,-0.0732,0.0244,-0.0366,-0.0976,0.1098,-0.04392,0.18056,0.07808,0.122,0.10248,0.10248
0.10248,-0.05856,0.01464,-0.0366,-0.08784,0.09516,-0.03416,0.16592,0.07808,0.122,0.09272,0.08784
0.0976,-0.05612,0.01464,-0.03416,-0.08296,0.09028,-0.02928,0.15616,0.08296,0.11712,0.08296,0.07808
0.08296,-0.04636,0.00976,-0.03172,-0.0732,0.07808,-0.01464,0.15128,0.08784,0.122,0.08296,0.06832
0.06832,-0.03172,-0.00488,-0.03904,-0.0732,0.07076,0,0.13664,0.09272,0.122,0.0732,0.05856
0.05856,-0.02196,-0.01464,-0.04392,-0.0732,0.06588,0.00976,0.12688,0.09272,0.12688,0.06344,0.0488
0.05368,-0.01464,-0.0244,-0.05124,-0.07808,0.06588,0.0244,0.11712,0.0976,0.122,0.05856,0.04392
0.04392,-0.00976,-0.0244,-0.04636,-0.06832,0.05612,0.0244,0.11224,0.09272,0.11224,0.0488,0.02928
0.03416,0,-0.03416,-0.05124,-0.06832,0.05124,0.02928,0.10248,0.09272,0.10736,0.0488,0.01952
0.0244,0.01464,-0.05368,-0.06588,-0.07808,0.05124,0.03416,0.09272,0.08296,0.10248,0.04392,0.01464
0.00488,0.03172,-0.06832,-0.07076,-0.0732,0.03904,0.03416,0.08296,0.0732,0.09272,0.03416,0.00488
-0.01464,0.04392,-0.0732,-0.06588,-0.05856,0.02196,0.03416,0.0732,0.06832,0.0976,0.03416,0
-0.02928,0.05368,-0.07808,-0.06344,-0.0488,0.00976,0.03416,0.06832,0.06832,0.0976,0.02928,0
-0.01952,0.04636,-0.0732,-0.06344,-0.05368,0.01708,0.03904,0.06344,0.06832,0.09272,0.0244,-0.00488
-0.00976,0.04148,-0.0732,-0.06832,-0.06344,0.02684,0.03904,0.05368,0.06344,0.08296,0.01464,-0.00976
-0.00488,0.04148,-0.07808,-0.07564,-0.0732,0.03416,0.03904,0.0488,0.06344,0.07808,0.01464,-0.00976
-0.00488,0.04636,-0.08784,-0.0854,-0.08296,0.03904,0.03904,0.04392,0.06344,0.0732,0.00976,-0.01464
-0.00976,0.0488,-0.08784,-0.08296,-0.07808,0.03416,0.03416,0.03904,0.05368,0.0732,0.00976,-0.01952
-0.00976,0.0488,-0.08784,-0.08296,-0.07808,0.03416,0.03416,0.03904,0.0488,0.06832,0.00976,-0.01952
-0.00976,0.0488,-0.08784,-0.08296,-0.07808,0.03416,0.03416,0.03904,0.0488,0.06344,0.00976,-0.01952
-0.01464,0.05124,-0.08784,-0.08052,-0.0732,0.02928,0.03416,0.03904,0.0488,0.06344,0.00488,-0.01952
-0.01464,0.0488,-0.08296,-0.07564,-0.06832,0.02684,0.03416,0.03416,0.04392,0.06344,0,-0.0244
-0.01464,0.0488,-0.08296,-0.07564,-0.06832,0.02684,0.03416,0.03416,0.0488,0.06344,0,-0.0244
-0.01464,0.05124,-0.08784,-0.08052,-0.0732,0.02928,0.03904,0.02928,0.0488,0.05856,0,-0.01952
-0.01464,0.05124,-0.08784,-0.08052,-0.0732,0.02928,0.04392,0.02928,0.0488,0.05856,0,-0.01464
-0.01464,0.05124,-0.08784,-0.08052,-0.0732,0.02928,0.04392,0.02928,0.0488,0.05856,0,-0.01464
-0.0244,0.05856,-0.09272,-0.08052,-0.06832,0.02196,0.04392,0.02928,0.0488,0.05856,0,-0.01464
-0.02928,0.061,-0.09272,-0.07808,-0.06344,0.01708,0.04392,0.02928,0.0488,0.05856,0,-0.01464
-0.02928,0.061,-0.09272,-0.07808,-0.06344,0.01708,0.0488,0.02928,0.04392,0.05368,0,-0.01464
-0.02928,0.061,-0.09272,-0.07808,-0.06344,0.01708,0.0488,0.02928,0.04392,0.05368,-0.00488,-0.01952
-0.03416,0.06344,-0.09272,-0.07564,-0.05856,0.0122,0.04392,0.02928,0.03904,0.05368,-0.00976,-0.01952
-0.03904,0.06588,-0.09272,-0.0732,-0.05368,0.00732,0.04392,0.02928,0.04392,0.05856,-0.00488,-0.01952
-0.03904,0.06344,-0.08784,-0.06832,-0.0488,0.00488,0.04392,0.02928,0.0488,0.06344,-0.00488,-0.01952
-0.03416,0.05856,-0.08296,-0.06588,-0.0488,0.00732,0.0488,0.02928,0.0488,0.05856,-0.00488,-0.01952
-0.02928,0.05368,-0.07808,-0.06344,-0.0488,0.00976,0.0488,0.02928,0.0488,0.05856,0,-0.01952
-0.0244,0.05124,-0.07808,-0.06588,-0.05368,0.01464,0.0488,0.03416,0.0488,0.06344,0,-0.01952
-0.01952,0.0488,-0.07808,-0.06832,-0.05856,0.01952,0.0488,0.03416,0.0488,0.06344,0,-0.01952
-0.01952,0.0488,-0.07808,-0.06832,-0.05856,0.01952,0.04392,0.02928,0.0488,0.06344,0.00488,-0.01952
-0.01952,0.04636,-0.0732,-0.06344,-0.05368,0.01708,0.04392,0.02928,0.0488,0.06344,0.00488,-0.01952
-0.01952,0.04636,-0.0732,-0.06344,-0.05368,0.01708,0.04392,0.03416,0.0488,0.06344,0.00488,-0.01952
-0.01464,0.04392,-0.0732,-0.06588,-0.05856,0.02196,0.04392,0.03416,0.0488,0.06344,0.00488,-0.01952
-0.01952,0.04636,-0.0732,-0.06344,-0.05368,0.01708,0.03904,0.02928,0.04392,0.06344,0,-0.0244
-0.0244,0.05124,-0.07808,-0.06588,-0.05368,0.01464,0.03416,0.0244,0.03904,0.06344,-0.00488,-0.0244
-0.0244,0.05124,-0.07808,-0.06588,-0.05368,0.01464,0.03416,0.0244,0.03904,0.06832,0,-0.0244
-0.01952,0.05124,-0.08296,-0.0732,-0.06344,0.02196,0.03904,0.0244,0.03904,0.06832,0,-0.01952
-0.01952,0.0488,-0.07808,-0.06832,-0.05856,0.01952,0.03904,0.0244,0.03904,0.06832,0,-0.01952
-0.0244,0.0488,-0.0732,-0.061,-0.0488,0.0122,0.03904,0.0244,0.03904,0.06832,0,-0.01952
-0.0244,0.0488,-0.0732,-0.061,-0.0488,0.0122,0.03416,0.0244,0.03904,0.06832,0,-0.01952
-0.0244,0.0488,-0.0732,-0.061,-0.0488,0.0122,0.03416,0.0244,0.03904,0.06832,0,-0.01952
-0.0244,0.04636,-0.06832,-0.05612,-0.04392,0.00976,0.03416,0.0244,0.03904,0.06344,0,-0.01464
-0.01952,0.04392,-0.06832,-0.05856,-0.0488,0.01464,0.02928,0.0244,0.03904,0.05856,0,-0.00976
-0.01952,0.04392,-0.06832,-0.05856,-0.0488,0.01464,0.02928,0.0244,0.03904,0.06344,0,-0.00976
-0.01952,0.04636,-0.0732,-0.06344,-0.05368,0.01708,0.02928,0.0244,0.03416,0.06344,0.00488,-0.00976
-0.0244,0.05124,-0.07808,-0.06588,-0.05368,0.01464,0.02928,0.0244,0.03416,0.06344,0.00488,-0.00976
-0.0244,0.05124,-0.07808,-0.06588,-0.05368,0.01464,0.02928,0.01952,0.03416,0.05856,0,-0.00976
-0.0244,0.05124,-0.07808,-0.06588,-0.05368,0.01464,0.0244,0.01464,0.02928,0.05368,-0.00488,-0.01464
-0.0244,0.05124,-0.07808,-0.06588,-0.05368,0.01464,0.0244,0.00976,0.0244,0.0488,-0.00976,-0.01952
-0.01952,0.0488,-0.07808,-0.06832,-0.05856,0.01952,0.0244,0.00976,0.01952,0.05368,-0.00976,-0.01952
-0.01464,0.04636,-0.07808,-0.07076,-0.06344,0.0244,0.0244,0.00976,0.01952,0.05368,-0.00976,-0.01952
-0.01464,0.04636,-0.07808,-0.07076,-0.06344,0.0244,0.0244,0.00976,0.01952,0.05856,-0.00488,-0.01464
-0.01464,0.04636,-0.07808,-0.07076,-0.06344,0.0244,0.0244,0.00488,0.01952,0.05368,-0.00488,-0.00976
-0.01464,0.04392,-0.0732,-0.06588,-0.05856,0.02196,0.01952,0.00488,0.01464,0.05368,-0.00488,-0.00976
-0.01464,0.04148,-0.06832,-0.061,-0.05368,0.01952,0.01952,0.00488,0.01464,0.05368,-0.00488,-0.01464
-0.00976,0.03904,-0.06832,-0.06344,-0.05856,0.0244,0.0244,0.00488,0.01464,0.05368,-0.00488,-0.01952
-0.00976,0.03904,-0.06832,-0.06344,-0.05856,0.0244,0.0244,0.00488,0.01464,0.05368,-0.00488,-0.0244
-0.00976,0.03904,-0.06832,-0.06344,-0.05856,0.0244,0.01952,0.00488,0.01464,0.04392,-0.01464,-0.0244
-0.00488,0.03904,-0.0732,-0.07076,-0.06832,0.03172,0.01952,0,0.00976,0.03904,-0.01952,-0.0244
-0.00488,0.03904,-0.0732,-0.07076,-0.06832,0.03172,0.01952,-0.00488,0.00976,0.03904,-0.01952,-0.0244
-0.00976,0.04148,-0.0732,-0.06832,-0.06344,0.02684,0.01952,-0.00488,0.00976,0.03904,-0.01952,-0.0244
-0.01464,0.04392,-0.0732,-0.06588,-0.05856,0.02196,0.01952,-0.00488,0.00976,0.03904,-0.01952,-0.0244
-0.01464,0.04636,-0.07808,-0.07076,-0.06344,0.0244,0.01952,-0.00488,0.01464,0.03904,-0.01464,-0.03416
-0.01464,0.04392,-0.0732,-0.06588,-0.05856,0.02196,0.01464,-0.00976,0.00976,0.02928,-0.0244,-0.03416
-0.01464,0.04392,-0.0732,-0.06588,-0.05856,0.02196,0.01464,-0.00976,0.00976,0.0244,-0.0244,-0.03416
-0.01464,0.04392,-0.0732,-0.06588,-0.05856,0.02196,0.01952,-0.00976,0.00976,0.01952,-0.02928,-0.03416
-0.01464,0.04392,-0.0732,-0.06588,-0.05856,0.02196,0.01952,-0.00976,0.00976,0.01952,-0.03416,-0.03416
-0.01464,0.04392,-0.0732,-0.06588,-0.05856,0.02196,0.01952,-0.00976,0.00488,0.01952,-0.03416,-0.03416
-0.01464,0.04392,-0.0732,-0.06588,-0.05856,0.02196,0.01952,-0.01464,0,0.01952,-0.03904,-0.03416
-0.00976,0.03904,-0.06832,-0.06344,-0.05856,0.0244,0.01952,-0.01464,-0.00488,0.01464,-0.03904,-0.03416
-0.00488,0.03416,-0.06344,-0.061,-0.05856,0.02684,0.01464,-0.01464,-0.00488,0.01464,-0.03904,-0.03416
-0.00488,0.03416,-0.06344,-0.061,-0.05856,0.02684,0.01464,-0.01464,-0.00488,0.01464,-0.04392,-0.03416
-0.00976,0.0366,-0.06344,-0.05856,-0.05368,0.02196,0.01464,-0.01464,-0.00488,0.01952,-0.04392,-0.03416
-0.00976,0.0366,-0.06344,-0.05856,-0.05368,0.02196,0.01952,-0.01464,-0.00488,0.01952,-0.04392,-0.03416
-0.00976,0.0366,-0.06344,-0.05856,-0.05368,0.02196,0.01952,-0.01952,-0.00488,0.01952,-0.04392,-0.03416
-0.01464,0.04392,-0.0732,-0.06588,-0.05856,0.02196,0.01464,-0.01952,-0.00488,0.01464,-0.0488,-0.03416
-0.0244,0.05368,-0.08296,-0.07076,-0.05856,0.01708,0.01464,-0.01952,-0.00488,0.00976,-0.05368,-0.03416
-0.0244,0.05368,-0.08296,-0.07076,-0.05856,0.01708,0.01464,-0.01952,-0.00976,0.00976,-0.05368,-0.03416
-0.0244,0.05368,-0.08296,-0.07076,-0.05856,0.01708,0.01952,-0.01952,-0.01464,0.00488,-0.05368,-0.03904
-0.02928,0.05124,-0.0732,-0.05856,-0.04392,0.00732,0.01952,-0.01952,-0.01464,0.00488,-0.05368,-0.03904
-0.0244,0.04636,-0.06832,-0.05612,-0.04392,0.00976,0.01464,-0.01952,-0.00976,0.00488,-0.05368,-0.03904
-0.0244,0.0488,-0.0732,-0.061,-0.0488,0.0122,0.01464,-0.0244,-0.00976,0,-0.05368,-0.03904
-0.0244,0.0488,-0.0732,-0.061,-0.0488,0.0122,0.01464,-0.0244,-0.00976,0,-0.05368,-0.03904
-0.0244,0.0488,-0.0732,-0.061,-0.0488,0.0122,0.01464,-0.0244,-0.00488,0,-0.05856,-0.03904
-0.0244,0.0488,-0.0732,-0.061,-0.0488,0.0122,0.01464,-0.0244,-0.00488,0,-0.05856,-0.03904
-0.02928,0.05124,-0.0732,-0.05856,-0.04392,0.00732,0.01464,-0.0244,-0.00488,0.00488,-0.06344,-0.03904
-0.02928,0.05124,-0.0732,-0.05856,-0.04392,0.00732,0.01464,-0.0244,-0.00488,0,-0.06344,-0.03904
-0.02928,0.05124,-0.0732,-0.05856,-0.04392,0.00732,0.00976,-0.02928,-0.00976,0,-0.06344,-0.04392
-0.02928,0.05124,-0.0732,-0.05856,-0.04392,0.00732,0.00976,-0.02928,-0.00976,0,-0.06344,-0.0488
-0.03416,0.05368,-0.0732,-0.05612,-0.03904,0.00244,0.00976,-0.02928,-0.00976,0,-0.05856,-0.0488
-0.03416,0.05368,-0.0732,-0.05612,-0.03904,0.00244,0.00976,-0.02928,-0.00976,-0.00488,-0.05856,-0.0488
-0.02928,0.05124,-0.0732,-0.05856,-0.04392,0.00732,0.00488,-0.02928,-0.00488,0,-0.06344,-0.04392
-0.0244,0.0488,-0.0732,-0.061,-0.0488,0.0122,0.00488,-0.02928,-0.00488,0.00488,-0.06344,-0.03904
-0.0244,0.0488,-0.0732,-0.061,-0.0488,0.0122,0.00488,-0.02928,-0.00488,0.00488,-0.06832,-0.03904
-0.01952,0.04148,-0.06344,-0.05368,-0.04392,0.0122,0.00488,-0.02928,-0.00488,0.00488,-0.0732,-0.03904
-0.01952,0.04148,-0.06344,-0.05368,-0.04392,0.0122,0.00976,-0.0244,-0.00488,0.00488,-0.0732,-0.03904
-0.01952,0.04148,-0.06344,-0.05368,-0.04392,0.0122,0.01464,-0.0244,-0.00488,0.00488,-0.0732,-0.03904
-0.02928,0.05368,-0.07808,-0.06344,-0.0488,0.00976,0.01464,-0.0244,-0.00488,0.00488,-0.0732,-0.03904
-0.02928,0.05856,-0.08784,-0.0732,-0.05856,0.01464,0.01464,-0.0244,-0.00488,0.00488,-0.07808,-0.03904
-0.0244,0.05124,-0.07808,-0.06588,-0.05368,0.01464,0.01464,-0.0244,-0.00488,0,-0.07808,-0.04392
-0.0244,0.04636,-0.06832,-0.05612,-0.04392,0.00976,0.01464,-0.0244,-0.00488,-0.00488,-0.0732,-0.04392
-0.0244,0.04148,-0.05856,-0.04636,-0.03416,0.00488,0.01464,-0.0244,-0.00488,-0.00488,-0.0732,-0.03904
-0.0244,0.03904,-0.05368,-0.04148,-0.02928,0.00244,0.01464,-0.0244,-0.00488,-0.00488,-0.0732,-0.03904
-0.02928,0.0488,-0.06832,-0.05368,-0.03904,0.00488,0.00976,-0.03416,-0.00488,-0.00488,-0.0732,-0.0488
-0.03416,0.05612,-0.07808,-0.061,-0.04392,0.00488,0.00488,-0.03904,-0.00488,-0.00488,-0.0732,-0.04392
-0.03416,0.05612,-0.07808,-0.061,-0.04392,0.00488,0,-0.03416,-0.00488,-0.00488,-0.0732,-0.04392
-0.03416,0.05612,-0.07808,-0.061,-0.04392,0.00488,0,-0.02928,-0.00976,-0.00976,-0.0732,-0.04392
-0.02928,0.05124,-0.0732,-0.05856,-0.04392,0.00732,0,-0.02928,-0.00976,-0.00976,-0.0732,-0.04392
-0.02928,0.0488,-0.06832,-0.05368,-0.03904,0.00488,0,-0.02928,-0.00976,-0.00976,-0.07808,-0.0488
-0.02928,0.0488,-0.06832,-0.05368,-0.03904,0.00488,0.00488,-0.03416,-0.00976,-0.00488,-0.07808,-0.0488
-0.02928,0.0488,-0.06832,-0.05368,-0.03904,0.00488,0.00976,-0.03904,-0.00976,0,-0.07808,-0.0488
-0.02928,0.0488,-0.06832,-0.05368,-0.03904,0.00488,0.00976,-0.03904,-0.00976,0,-0.07808,-0.0488
-0.02928,0.0488,-0.06832,-0.05368,-0.03904,0.00488,0.00976,-0.03904,-0.00976,0,-0.07808,-0.0488
-0.02928,0.0488,-0.06832,-0.05368,-0.03904,0.00488,0.00976,-0.03904,-0.00976,0,-0.07808,-0.0488
-0.02928,0.0488,-0.06832,-0.05368,-0.03904,0.00488,0.00976,-0.03904,-0.00976,0,-0.07808,-0.0488
-0.02928,0.0488,-0.06832,-0.05368,-0.03904,0.00488,0.00976,-0.03904,-0.00976,-0.00488,-0.07808,-0.0488
-0.02928,0.0488,-0.06832,-0.05368,-0.03904,0.00488,0.00976,-0.03904,-0.00976,-0.00976,-0.07808,-0.0488
-0.01952,0.04148,-0.06344,-0.05368,-0.04392,0.0122,0.00976,-0.03416,-0.00488,-0.00976,-0.07808,-0.0488
-0.00976,0.03416,-0.05856,-0.05368,-0.0488,0.01952,0.00976,-0.02928,0,-0.00976,-0.07808,-0.0488
0,0.0244,-0.0488,-0.0488,-0.0488,0.0244,0.00976,-0.01952,0.00488,0,-0.0732,-0.04392
0.00976,0.01464,-0.03904,-0.04392,-0.0488,0.02928,0.00976,-0.00976,0.00976,0.00976,-0.06832,-0.03904
0.01464,0.00732,-0.02928,-0.0366,-0.04392,0.02928,0.01952,-0.00488,0.01952,0.01952,-0.05856,-0.03416
0.01464,0.00244,-0.01952,-0.02684,-0.03416,0.0244,0.02928,0.00976,0.03416,0.02928,-0.04392,-0.0244
0.01952,-0.00488,-0.00976,-0.01952,-0.02928,0.0244,0.03904,0.0244,0.05368,0.03904,-0.03416,-0.01952
0.0244,-0.01464,0.00488,-0.00732,-0.01952,0.02196,0.03904,0.03416,0.06344,0.0488,-0.02928,-0.01464
0.02928,-0.01708,0.00488,-0.00976,-0.0244,0.02684,0.03904,0.03904,0.06344,0.05856,-0.02928,-0.01464
0.02928,-0.01708,0.00488,-0.00976,-0.0244,0.02684,0.03904,0.03904,0.06344,0.06344,-0.03416,-0.01464
0.02928,-0.01708,0.00488,-0.00976,-0.0244,0.02684,0.02928,0.03904,0.06344,0.06344,-0.03416,-0.01464
0.02928,-0.02196,0.01464,0,-0.01464,0.02196,0.01952,0.03904,0.06832,0.06832,-0.02928,-0.01464
0.03416,-0.02684,0.01952,0.00244,-0.01464,0.0244,0.00976,0.04392,0.06832,0.07808,-0.01952,-0.00488
0.04392,-0.03172,0.01952,-0.00244,-0.0244,0.03416,-0.00488,0.04392,0.06344,0.07808,-0.01952,-0.00488
0.03904,-0.02928,0.01952,0,-0.01952,0.02928,-0.0244,0.0244,0.0488,0.05856,-0.02928,-0.00488
0.02928,-0.02684,0.0244,0.00976,-0.00488,0.01708,-0.03904,-0.01464,0.01464,0.03904,-0.04392,-0.01464
0.02928,-0.01952,0.00976,-0.00488,-0.01952,0.0244,-0.05856,-0.05368,-0.01464,0.00976,-0.06832,-0.01952
0.02928,-0.00732,-0.01464,-0.02928,-0.04392,0.0366,-0.06344,-0.07808,-0.03904,-0.00976,-0.08784,-0.01952
0.03416,-0.00488,-0.0244,-0.04148,-0.05856,0.04636,-0.06344,-0.07808,-0.03904,-0.00976,-0.08296,-0.01952
0.03904,-0.00488,-0.02928,-0.0488,-0.06832,0.05368,-0.05368,-0.06344,-0.03416,-0.00976,-0.0732,-0.01952
0.03416,0.00244,-0.03904,-0.05612,-0.0732,0.05368,-0.03904,-0.06344,-0.03416,-0.00976,-0.0732,-0.0244
0.01952,0.0122,-0.04392,-0.05368,-0.06344,0.04148,-0.02928,-0.06344,-0.03904,-0.01464,-0.07808,-0.03416
0.00488,0.02196,-0.0488,-0.05124,-0.05368,0.02928,-0.0244,-0.06344,-0.03904,-0.01464,-0.07808,-0.03904
-0.00976,0.03416,-0.05856,-0.05368,-0.0488,0.01952,-0.01952,-0.06344,-0.03904,-0.01952,-0.08784,-0.04392
-0.01952,0.04148,-0.06344,-0.05368,-0.04392,0.0122,-0.01464,-0.06344,-0.03904,-0.01952,-0.08784,-0.04392
-0.03416,0.0488,-0.06344,-0.04636,-0.02928,-0.00244,-0.00976,-0.05856,-0.03904,-0.01952,-0.08784,-0.0488
-0.04392,0.05856,-0.0732,-0.05124,-0.02928,-0.00732,0,-0.05856,-0.03904,-0.01952,-0.09272,-0.05368
-0.0488,0.061,-0.0732,-0.0488,-0.0244,-0.0122,0,-0.06344,-0.03904,-0.0244,-0.10248,-0.06344
-0.0488,0.06588,-0.08296,-0.05856,-0.03416,-0.00732,0,-0.06832,-0.0488,-0.03416,-0.10736,-0.06832
-0.0488,0.07076,-0.09272,-0.06832,-0.04392,-0.00244,0,-0.0732,-0.0488,-0.03904,-0.11712,-0.0732
-0.05368,0.07564,-0.0976,-0.07076,-0.04392,-0.00488,-0.00488,-0.0732,-0.0488,-0.03904,-0.11712,-0.0732
-0.05368,0.07564,-0.0976,-0.07076,-0.04392,-0.00488,-0.00488,-0.06832,-0.0488,-0.03904,-0.11712,-0.07808
-0.0488,0.06588,-0.08296,-0.05856,-0.03416,-0.00732,0.00488,-0.06344,-0.0488,-0.03904,-0.11224,-0.07808
-0.04392,0.05856,-0.0732,-0.05124,-0.02928,-0.00732,0.00976,-0.05856,-0.0488,-0.03904,-0.11224,-0.0732
-0.04392,0.05856,-0.0732,-0.05124,-0.02928,-0.00732,0.00976,-0.05856,-0.0488,-0.03904,-0.11224,-0.06832
-0.04392,0.05856,-0.0732,-0.05124,-0.02928,-0.00732,0.00976,-0.05856,-0.04392,-0.03416,-0.10736,-0.06832
-0.05368,0.06588,-0.07808,-0.05124,-0.0244,-0.01464,0.00976,-0.05856,-0.04392,-0.03416,-0.10736,-0.06832
-0.05856,0.07076,-0.08296,-0.05368,-0.0244,-0.01708,0.00976,-0.06344,-0.04392,-0.03416,-0.10736,-0.06832
-0.05856,0.07076,-0.08296,-0.05368,-0.0244,-0.01708,0.00488,-0.06344,-0.04392,-0.02928,-0.10736,-0.06832
-0.05856,0.06832,-0.07808,-0.0488,-0.01952,-0.01952,0,-0.06344,-0.03904,-0.02928,-0.10736,-0.06832
-0.05856,0.06832,-0.07808,-0.0488,-0.01952,-0.01952,0.00976,-0.05856,-0.03904,-0.02928,-0.11224,-0.06832
-0.05856,0.07076,-0.08296,-0.05368,-0.0244,-0.01708,0.02928,-0.03416,-0.0244,-0.02928,-0.11712,-0.07808
-0.06832,0.0854,-0.10248,-0.06832,-0.03416,-0.01708,0.06344,0.03904,0.01952,-0.00976,-0.11712,-0.0976
-0.06832,0.0854,-0.10248,-0.06832,-0.03416,-0.01708,0.15616,0.23912,0.15128,0.07808,-0.09272,-0.10736
-0.0244,0.04148,-0.05856,-0.04636,-0.03416,0.00488,0.2684,0.54168,0.37088,0.25864,0.01952,-0.07808
0.06344,-0.04392,0.0244,-0.00732,-0.03904,0.05124,0.33184,0.8784,0.59048,0.46848,0.18544,0.01952
0.18544,-0.13908,0.09272,0,-0.09272,0.13908,0.32208,1.0248,0.69296,0.62952,0.36112,0.15616
0.37088,-0.2684,0.16592,-0.01952,-0.20496,0.28792,0.21472,0.96624,0.65392,0.6832,0.488,0.3172
0.59536,-0.427,0.25864,-0.03904,-0.33672,0.46604,0.05368,0.81008,0.5612,0.7076,0.59536,0.5124
0.74664,-0.58316,0.41968,0.04636,-0.32696,0.5368,-0.13176,0.47824,0.42456,0.69296,0.69784,0.68808
0.732,-0.69052,0.64904,0.28304,-0.08296,0.40748,-0.28304,-0.07808,0.23912,0.59536,0.70272,0.76128
0.61488,-0.6832,0.75152,0.44408,0.13664,0.23912,-0.37576,-0.66368,-0.05368,0.31232,0.52704,0.7076
0.3172,-0.50752,0.69784,0.53924,0.38064,-0.03172,-0.44408,-1.25416,-0.37576,-0.02928,0.25864,0.55632
0.10736,-0.35624,0.60512,0.55144,0.49776,-0.1952,-0.5124,-1.62504,-0.64416,-0.30256,0.03416,0.3904
0,-0.22936,0.45872,0.45872,0.45872,-0.22936,-0.50264,-1.6348,-0.79056,-0.45384,-0.12688,0.22448
-0.06344,-0.15128,0.366,0.39772,0.42944,-0.24644,-0.42456,-1.4884,-0.81496,-0.50752,-0.20008,0.13664
-0.10736,-0.0854,0.27816,0.33184,0.38552,-0.24644,-0.38552,-1.29808,-0.77104,-0.50752,-0.24888,0.06832
-0.14152,-0.02684,0.1952,0.26596,0.33672,-0.23912,-0.3416,-1.05408,-0.6344,-0.44896,-0.24888,0.00488
-0.122,-0.01708,0.15616,0.21716,0.27816,-0.20008,-0.30744,-0.78568,-0.46848,-0.32696,-0.21472,-0.02928
-0.05856,-0.03172,0.122,0.15128,0.18056,-0.11956,-0.23912,-0.53192,-0.31232,-0.19032,-0.15616,-0.03416
-0.03904,-0.0244,0.08784,0.10736,0.12688,-0.08296,-0.14152,-0.33184,-0.20496,-0.11224,-0.11712,-0.03416
-0.0244,-0.0122,0.0488,0.061,0.0732,-0.0488,-0.06832,-0.19032,-0.12688,-0.06832,-0.0976,-0.03416
-0.0244,0,0.0244,0.0366,0.0488,-0.0366,-0.03904,-0.122,-0.08296,-0.0488,-0.09272,-0.03904
-0.0244,0.00976,0.00488,0.01708,0.02928,-0.02684,-0.0244,-0.0976,-0.06344,-0.02928,-0.09272,-0.04392
-0.0244,0.01464,-0.00488,0.00732,0.01952,-0.02196,-0.00976,-0.06344,-0.03904,-0.01464,-0.09272,-0.04392
-0.0244,0.01952,-0.01464,-0.00244,0.00976,-0.01708,0.00976,-0.02928,-0.02928,-0.00976,-0.08784,-0.05368
-0.01952,0.02196,-0.0244,-0.01464,-0.00488,-0.00732,0.01464,-0.01464,-0.0244,-0.00488,-0.08784,-0.06344
-0.01464,0.01952,-0.0244,-0.01708,-0.00976,-0.00244,0.01464,-0.00976,-0.0244,-0.00488,-0.08784,-0.06832
-0.00976,0.01708,-0.0244,-0.01952,-0.01464,0.00244,0.01952,-0.00488,-0.01464,0,-0.08784,-0.06344
-0.00976,0.01708,-0.0244,-0.01952,-0.01464,0.00244,0.01952,0.00488,-0.01464,0,-0.08784,-0.06344
0,0.01464,-0.02928,-0.02928,-0.02928,0.01464,0.01952,0.01464,-0.00976,0,-0.08784,-0.06344
-0.00976,0.01952,-0.02928,-0.0244,-0.01952,0.00488,0.01952,0.01464,-0.00976,0.00488,-0.09272,-0.06832
-0.00976,0.01952,-0.02928,-0.0244,-0.01952,0.00488,0.0244,0.01952,-0.00976,0.00488,-0.09272,-0.06832
-0.00976,0.01952,-0.02928,-0.0244,-0.01952,0.00488,0.0244,0.0244,-0.00488,0.00976,-0.08784,-0.06832
-0.00488,0.01708,-0.02928,-0.02684,-0.0244,0.00976,0.0244,0.03416,-0.00488,0.00488,-0.08784,-0.06832
-0.00976,0.01708,-0.0244,-0.01952,-0.01464,0.00244,0.0244,0.03416,0,0,-0.08296,-0.06344
-0.00976,0.01708,-0.0244,-0.01952,-0.01464,0.00244,0.0244,0.03904,0,0.00488,-0.08784,-0.06344
-0.00976,0.01708,-0.0244,-0.01952,-0.01464,0.00244,0.0244,0.03904,-0.00488,0.00488,-0.09272,-0.06344
-0.00488,0.01464,-0.0244,-0.02196,-0.01952,0.00732,0.0244,0.0488,-0.00488,0.00488,-0.08784,-0.06344
0,0.0122,-0.0244,-0.0244,-0.0244,0.0122,0.0244,0.05368,0.00488,0.00488,-0.08784,-0.05856
0,0.0122,-0.0244,-0.0244,-0.0244,0.0122,0.0244,0.05368,0.00488,0.00976,-0.08784,-0.05856
0,0.0122,-0.0244,-0.0244,-0.0244,0.0122,0.0244,0.05368,0.00488,0.00976,-0.08784,-0.05856
0,0.00976,-0.01952,-0.01952,-0.01952,0.00976,0.02928,0.05856,0.00488,0.01464,-0.07808,-0.05856
0.00488,0.00732,-0.01952,-0.02196,-0.0244,0.01464,0.03416,0.06832,0.01464,0.01464,-0.0732,-0.05368
0.00488,0.00244,-0.00976,-0.0122,-0.01464,0.00976,0.03416,0.07808,0.01952,0.01464,-0.06832,-0.05368
0.00488,-0.00244,0,-0.00244,-0.00488,0.00488,0.03416,0.08296,0.0244,0.01952,-0.06832,-0.0488
0.00488,-0.00244,0,-0.00244,-0.00488,0.00488,0.02928,0.08784,0.0244,0.01952,-0.06832,-0.0488
0.00488,-0.00244,0,-0.00244,-0.00488,0.00488,0.01952,0.08784,0.0244,0.01952,-0.06344,-0.0488
0.00488,-0.00488,0.00488,0.00244,0,0.00244,0.01952,0.0976,0.0244,0.0244,-0.06344,-0.03904
-0.00488,0,0.00488,0.00732,0.00976,-0.00732,0.01952,0.10248,0.02928,0.02928,-0.05368,-0.03904
0.01952,-0.02196,0.0244,0.01464,0.00488,0.00732,0.0244,0.11224,0.03904,0.03904,-0.04392,-0.02928
0.04392,-0.04148,0.03904,0.01708,-0.00488,0.0244,0.0244,0.12688,0.04392,0.0488,-0.03904,-0.0244
0.04392,-0.04148,0.03904,0.01708,-0.00488,0.0244,0.01952,0.13176,0.0488,0.0488,-0.03416,-0.01464
0.04392,-0.04148,0.03904,0.01708,-0.00488,0.0244,0.01952,0.13664,0.05368,0.0488,-0.02928,-0.01464
0.0244,-0.0244,0.0244,0.0122,0,0.0122,0.01464,0.13664,0.05368,0.0488,-0.03416,-0.01464
0.00488,-0.00732,0.00976,0.00732,0.00488,0,0.00488,0.13664,0.05368,0.0488,-0.03904,-0.00488
0.01952,-0.02196,0.0244,0.01464,0.00488,0.00732,0.00488,0.1464,0.05368,0.05368,-0.03416,-0.00488
0.03416,-0.03904,0.04392,0.02684,0.00976,0.0122,0,0.15616,0.05856,0.05368,-0.0244,0.00488
0.0488,-0.0488,0.0488,0.0244,0,0.0244,0,0.16592,0.06344,0.06344,-0.01952,0.00976
0.05368,-0.05612,0.05856,0.03172,0.00488,0.0244,-0.00976,0.17568,0.06832,0.06344,-0.00976,0.01952
0.06344,-0.06344,0.06344,0.03172,0,0.03172,-0.00976,0.17568,0.06832,0.06832,-0.00976,0.0244
0.07808,-0.07564,0.0732,0.03416,-0.00488,0.04148,-0.00976,0.18544,0.07808,0.0732,0,0.02928
0.07808,-0.08296,0.08784,0.0488,0.00976,0.03416,-0.01952,0.1952,0.07808,0.07808,0.00976,0.04392
0.0976,-0.0976,0.0976,0.0488,0,0.0488,-0.01952,0.20496,0.07808,0.08784,0.01952,0.0488
0.10248,-0.10736,0.11224,0.061,0.00976,0.04636,-0.0244,0.20984,0.08784,0.09272,0.02928,0.05856
0.11224,-0.11712,0.122,0.06588,0.00976,0.05124,-0.02928,0.21472,0.09272,0.0976,0.03904,0.06832
0.10736,-0.11468,0.122,0.06832,0.01464,0.04636,-0.03416,0.22448,0.10248,0.10736,0.03904,0.0732
0.10248,-0.11224,0.122,0.07076,0.01952,0.04148,-0.04392,0.22448,0.10248,0.10736,0.03904,0.08296
0.122,-0.13176,0.14152,0.08052,0.01952,0.05124,-0.0488,0.23424,0.10248,0.10736,0.0488,0.09272
0.13664,-0.14396,0.15128,0.08296,0.01464,0.061,-0.0488,0.23912,0.10248,0.11224,0.0488,0.10248
0.1464,-0.15372,0.16104,0.08784,0.01464,0.06588,-0.05368,0.23912,0.10248,0.11712,0.05368,0.10736
0.15616,-0.16348,0.1708,0.09272,0.01464,0.07076,-0.05368,0.23424,0.10248,0.11712,0.05856,0.11712
0.1708,-0.17568,0.18056,0.09516,0.00976,0.08052,-0.05856,0.23424,0.09272,0.11712,0.06344,0.122
0.1708,-0.18056,0.19032,0.10492,0.01952,0.07564,-0.06344,0.22936,0.08784,0.11712,0.06344,0.122
0.17568,-0.18056,0.18544,0.0976,0.00976,0.08296,-0.06344,0.22936,0.08784,0.11712,0.06344,0.12688
0.17568,-0.17812,0.18056,0.09272,0.00488,0.0854,-0.06832,0.21472,0.08784,0.11712,0.06344,0.12688
0.1708,-0.17812,0.18544,0.10004,0.01464,0.07808,-0.06832,0.20496,0.08784,0.11224,0.06344,0.12688
0.16592,-0.17568,0.18544,0.10248,0.01952,0.0732,-0.06832,0.19032,0.08784,0.11224,0.05856,0.122
0.15616,-0.16104,0.16592,0.08784,0.00976,0.0732,-0.06344,0.18544,0.08784,0.10248,0.04392,0.10736
0.14152,-0.1464,0.15128,0.08052,0.00976,0.06588,-0.05856,0.17568,0.08784,0.0976,0.03416,0.0976
0.12688,-0.13176,0.13664,0.0732,0.00976,0.05856,-0.05368,0.16104,0.08784,0.09272,0.03416,0.09272
0.10248,-0.1098,0.11712,0.06588,0.01464,0.04392,-0.04392,0.1464,0.08296,0.09272,0.0244,0.07808
0.0976,-0.10492,0.11224,0.06344,0.01464,0.04148,-0.03904,0.13664,0.08296,0.08784,0.01464,0.06832
0.08296,-0.09272,0.10248,0.061,0.01952,0.03172,-0.02928,0.13176,0.08296,0.08784,0.01464,0.05856
0.0732,-0.08052,0.08784,0.05124,0.01464,0.02928,-0.01952,0.11712,0.08296,0.08296,0.00488,0.0488
0.06832,-0.07564,0.08296,0.0488,0.01464,0.02684,-0.01464,0.10736,0.07808,0.08296,-0.00488,0.03904
0.06344,-0.06832,0.0732,0.04148,0.00976,0.02684,-0.00488,0.09272,0.07808,0.0732,-0.00976,0.03416
0.05368,-0.06344,0.0732,0.04636,0.01952,0.01708,-0.00488,0.07808,0.0732,0.06344,-0.01952,0.01952
0.03416,-0.04636,0.05856,0.04148,0.0244,0.00488,0,0.06344,0.0732,0.06344,-0.0244,0.00488
0.01952,-0.02928,0.03904,0.02928,0.01952,0,0.00488,0.05368,0.06344,0.06344,-0.03416,-0.00488
0.00488,-0.01708,0.02928,0.02684,0.0244,-0.00976,0.00488,0.0488,0.05368,0.05368,-0.04392,-0.01464
-0.00488,-0.00976,0.0244,0.02684,0.02928,-0.01708,0.00488,0.04392,0.0488,0.05368,-0.04392,-0.01952
-0.00488,-0.00976,0.0244,0.02684,0.02928,-0.01708,0.00488,0.03904,0.0488,0.0488,-0.04392,-0.01952
0,-0.01464,0.02928,0.02928,0.02928,-0.01464,0.00976,0.03416,0.04392,0.04392,-0.04392,-0.0244
0,-0.0122,0.0244,0.0244,0.0244,-0.0122,0.00976,0.0244,0.03416,0.03416,-0.05368,-0.02928
-0.00488,-0.00732,0.01952,0.02196,0.0244,-0.01464,0.00976,0.01952,0.03416,0.03416,-0.05368,-0.02928
-0.01952,0.00976,0,0.00976,0.01952,-0.01952,0.00488,0.00976,0.02928,0.02928,-0.06344,-0.03416
-0.02928,0.01952,-0.00976,0.00488,0.01952,-0.0244,0,0,0.01952,0.0244,-0.06832,-0.03904
-0.02928,0.01952,-0.00976,0.00488,0.01952,-0.0244,0.00488,0,0.01952,0.01952,-0.06832,-0.03904
-0.0244,0.01708,-0.00976,0.00244,0.01464,-0.01952,0.00488,0,0.01952,0.01464,-0.06832,-0.03904
-0.0244,0.01464,-0.00488,0.00732,0.01952,-0.02196,0.00488,0,0.0244,0.01464,-0.0732,-0.03904
-0.0244,0.0122,0,0.0122,0.0244,-0.0244,0.00488,-0.00488,0.01952,0.01464,-0.07808,-0.04392
-0.0244,0.01464,-0.00488,0.00732,0.01952,-0.02196,0.00488,-0.00488,0.01952,0.01464,-0.07808,-0.04392
-0.0244,0.01708,-0.00976,0.00244,0.01464,-0.01952,0.00488,-0.00976,0.01952,0.00976,-0.07808,-0.04392
-0.01464,0.00976,-0.00488,0.00244,0.00976,-0.0122,0.00488,-0.00976,0.01952,0.00976,-0.07808,-0.04392
-0.00488,0,0.00488,0.00732,0.00976,-0.00732,0.00488,-0.00976,0.01952,0.00976,-0.07808,-0.04392
-0.01464,0.00488,0.00488,0.0122,0.01952,-0.01708,0.00488,-0.00976,0.01952,0.00976,-0.07808,-0.04392
-0.01464,0.00488,0.00488,0.0122,0.01952,-0.01708,0.00488,-0.00976,0.01952,0.00976,-0.07808,-0.04392
-0.01464,0.00732,0,0.00732,0.01464,-0.01464,0.00488,-0.01464,0.00976,0.00488,-0.07808,-0.04392
-0.01952,0.0122,-0.00488,0.00488,0.01464,-0.01708,0,-0.01952,0.00488,0.00488,-0.08296,-0.0488
-0.0244,0.01464,-0.00488,0.00732,0.01952,-0.02196,-0.00488,-0.01952,0,0.00488,-0.08784,-0.0488
-0.02928,0.01952,-0.00976,0.00488,0.01952,-0.0244,-0.00488,-0.0244,0,0.00488,-0.08784,-0.0488
-0.02928,0.01952,-0.00976,0.00488,0.01952,-0.0244,-0.00488,-0.0244,0,0.00488,-0.09272,-0.0488
-0.02928,0.01952,-0.00976,0.00488,0.01952,-0.0244,0,-0.01952,0,0,-0.09272,-0.0488
-0.02928,0.01952,-0.00976,0.00488,0.01952,-0.0244,0,-0.01952,0,0,-0.08784,-0.0488
-0.02928,0.01952,-0.00976,0.00488,0.01952,-0.0244,0,-0.01464,0,0.00488,-0.08784,-0.0488
-0.02928,0.01952,-0.00976,0.00488,0.01952,-0.0244,0.00488,-0.01464,0,0.00488,-0.08784,-0.0488
-0.02928,0.01952,-0.00976,0.00488,0.01952,-0.0244,0.00488,-0.01952,0,0.00488,-0.08296,-0.0488
-0.0244,0.0122,0,0.0122,0.0244,-0.0244,0.00488,-0.01952,0.00488,0.00488,-0.08296,-0.0488
-0.01952,0.00732,0.00488,0.01464,0.0244,-0.02196,0.00488,-0.01464,0.00976,0.00488,-0.08296,-0.0488
-0.01464,0.00488,0.00488,0.0122,0.01952,-0.01708,0.00488,-0.01464,0.00976,0.00488,-0.08784,-0.0488
-0.01464,0.00244,0.00976,0.01708,0.0244,-0.01952,0.00488,-0.01464,0.00976,0.00488,-0.09272,-0.0488
-0.04392,0.02196,0,0.02196,0.04392,-0.04392,0,-0.01464,0.00488,0.00488,-0.0976,-0.05368
-0.0732,0.04148,-0.00976,0.02684,0.06344,-0.06832,-0.00488,-0.01464,0,0.00976,-0.0976,-0.06344
-0.0488,0.03172,-0.01464,0.00976,0.03416,-0.04148,0,-0.01464,0,0.00976,-0.0976,-0.05856
-0.02928,0.02196,-0.01464,0,0.01464,-0.02196,0,-0.01464,0,0.00976,-0.0976,-0.05856
-0.02928,0.01708,-0.00488,0.00976,0.0244,-0.02684,0.00976,-0.00976,0.00488,0.01464,-0.09272,-0.0488
-0.0244,0.00976,0.00488,0.01708,0.02928,-0.02684,0.01464,-0.00488,0.00976,0.01952,-0.08784,-0.03904
-0.0244,0.00976,0.00488,0.01708,0.02928,-0.02684,0.01464,-0.00488,0.00976,0.01952,-0.08784,-0.03904
-0.0244,0.00732,0.00976,0.02196,0.03416,-0.02928,0.01464,-0.00488,0.00976,0.01952,-0.08784,-0.03904
-0.01952,0.00488,0.00976,0.01952,0.02928,-0.0244,0.00976,-0.00488,0.00976,0.01464,-0.08784,-0.03904
-0.01952,0.00244,0.01464,0.0244,0.03416,-0.02684,0.00976,-0.00488,0.00976,0.01464,-0.08784,-0.03904
-0.01952,0.00244,0.01464,0.0244,0.03416,-0.02684,0.00488,-0.00488,0.00488,0.01464,-0.08296,-0.03904
-0.0244,0.00732,0.00976,0.02196,0.03416,-0.02928,0,-0.00488,0.00488,0.01464,-0.08296,-0.03904
-0.0244,0.00976,0.00488,0.01708,0.02928,-0.02684,0,-0.00976,0.00488,0.00976,-0.08784,-0.03904
-0.0244,0.0122,0,0.0122,0.0244,-0.0244,-0.00488,-0.00976,0.00488,0.00976,-0.08784,-0.03904
-0.0244,0.0122,0,0.0122,0.0244,-0.0244,-0.00488,-0.00976,0.00488,0.00976,-0.09272,-0.03904
-0.01952,0.00976,0,0.00976,0.01952,-0.01952,-0.00488,-0.00976,0,0.01464,-0.0976,-0.03904
-0.01464,0.00488,0.00488,0.0122,0.01952,-0.01708,-0.00488,-0.00976,0,0.01464,-0.0976,-0.03904
-0.01464,0.00244,0.00976,0.01708,0.0244,-0.01952,-0.00488,-0.00976,0,0.01464,-0.0976,-0.03904
-0.00976,0,0.00976,0.01464,0.01952,-0.01464,0,-0.01464,0,0.00488,-0.10248,-0.03904
-0.00488,-0.00244,0.00976,0.0122,0.01464,-0.00976,0,-0.01464,-0.00488,0.00488,-0.10248,-0.03904
-0.00488,-0.00244,0.00976,0.0122,0.01464,-0.00976,0,-0.01952,-0.00488,0.00488,-0.10248,-0.04392
-0.00488,-0.00244,0.00976,0.0122,0.01464,-0.00976,0.00488,-0.0244,-0.00488,0.00488,-0.10248,-0.04392
-0.02928,0.01708,-0.00488,0.00976,0.0244,-0.02684,0,-0.0244,-0.00976,0,-0.10248,-0.0488
-0.0488,0.03416,-0.01952,0.00488,0.02928,-0.03904,-0.00976,-0.0244,-0.01464,-0.00976,-0.10736,-0.05368
-0.04392,0.03416,-0.0244,-0.00244,0.01952,-0.03172,-0.00976,-0.02928,-0.01952,-0.00976,-0.10736,-0.05368
-0.04392,0.03416,-0.0244,-0.00244,0.01952,-0.03172,-0.00976,-0.03416,-0.01952,-0.00976,-0.10736,-0.05368
-0.03904,0.02928,-0.01952,0,0.01952,-0.02928,-0.00976,-0.03416,-0.01464,-0.00976,-0.10248,-0.05368
-0.03416,0.0244,-0.01464,0.00244,0.01952,-0.02684,-0.00976,-0.03416,-0.01464,-0.00976,-0.10248,-0.05368
-0.03416,0.02684,-0.01952,-0.00244,0.01464,-0.0244,-0.00976,-0.03416,-0.01464,-0.00488,-0.10248,-0.06344
-0.03416,0.02684,-0.01952,-0.00244,0.01464,-0.0244,-0.01464,-0.03904,-0.01952,-0.00976,-0.11224,-0.06344
-0.03416,0.02928,-0.0244,-0.00732,0.00976,-0.02196,-0.01464,-0.03904,-0.01952,-0.01464,-0.11712,-0.06344
-0.03416,0.02928,-0.0244,-0.00732,0.00976,-0.02196,-0.00976,-0.03904,-0.01952,-0.01464,-0.122,-0.06344
-0.02928,0.0244,-0.01952,-0.00488,0.00976,-0.01952,-0.00976,-0.03904,-0.01952,-0.00976,-0.122,-0.06344
-0.0244,0.01952,-0.01464,-0.00244,0.00976,-0.01708,-0.00976,-0.03904,-0.01952,-0.00976,-0.122,-0.06344
-0.0244,0.01952,-0.01464,-0.00244,0.00976,-0.01708,-0.00488,-0.04392,-0.01952,-0.00976,-0.12688,-0.06344
-0.0244,0.01952,-0.01464,-0.00244,0.00976,-0.01708,0,-0.04392,-0.0244,-0.01464,-0.12688,-0.06344
-0.0244,0.01952,-0.01464,-0.00244,0.00976,-0.01708,-0.00488,-0.04392,-0.0244,-0.01464,-0.12688,-0.06344
-0.0244,0.01952,-0.01464,-0.00244,0.00976,-0.01708,-0.00488,-0.04392,-0.0244,-0.01464,-0.13176,-0.06344
-0.03416,0.02684,-0.01952,-0.00244,0.01464,-0.0244,-0.00976,-0.04392,-0.0244,-0.00976,-0.13176,-0.06344
-0.03904,0.03172,-0.0244,-0.00488,0.01464,-0.02684,-0.00976,-0.04392,-0.0244,-0.00976,-0.13176,-0.06344
-0.03904,0.03416,-0.02928,-0.00976,0.00976,-0.0244,-0.00976,-0.0488,-0.0244,-0.00976,-0.13664,-0.06344
-0.03416,0.03416,-0.03416,-0.01708,0,-0.01708,-0.01464,-0.0488,-0.0244,-0.00976,-0.14152,-0.06344
-0.03416,0.03416,-0.03416,-0.01708,0,-0.01708,-0.01464,-0.0488,-0.0244,-0.00976,-0.14152,-0.05856
-0.03416,0.03416,-0.03416,-0.01708,0,-0.01708,-0.01464,-0.0488,-0.02928,-0.00976,-0.14152,-0.05368
-0.03416,0.03416,-0.03416,-0.01708,0,-0.01708,-0.00488,-0.0488,-0.03416,-0.01464,-0.14152,-0.05856
-0.04392,0.03904,-0.03416,-0.0122,0.00976,-0.02684,0,-0.0488,-0.03416,-0.01464,-0.14152,-0.05856
-0.03904,0.03172,-0.0244,-0.00488,0.01464,-0.02684,-0.00488,-0.0488,-0.02928,-0.01464,-0.14152,-0.05856
-0.03416,0.0244,-0.01464,0.00244,0.01952,-0.02684,-0.00488,-0.05368,-0.02928,-0.01952,-0.14152,-0.05856
-0.03416,0.0244,-0.01464,0.00244,0.01952,-0.02684,-0.00488,-0.05368,-0.02928,-0.01952,-0.14152,-0.05856
-0.03416,0.0244,-0.01464,0.00244,0.01952,-0.02684,-0.00488,-0.05368,-0.02928,-0.01952,-0.1464,-0.05856
-0.03904,0.02928,-0.01952,0,0.01952,-0.02928,-0.00488,-0.05368,-0.03416,-0.01952,-0.1464,-0.06344
-0.04392,0.03416,-0.0244,-0.00244,0.01952,-0.03172,-0.00488,-0.05368,-0.03416,-0.00976,-0.1464,-0.06832
-0.03904,0.03172,-0.0244,-0.00488,0.01464,-0.02684,-0.00976,-0.05368,-0.03904,-0.00976,-0.14152,-0.06832
-0.03904,0.03172,-0.0244,-0.00488,0.01464,-0.02684,-0.01464,-0.05368,-0.04392,-0.00976,-0.14152,-0.06832
-0.03904,0.03416,-0.02928,-0.00976,0.00976,-0.0244,-0.00976,-0.0488,-0.03904,-0.00976,-0.14152,-0.06832
-0.04392,0.03904,-0.03416,-0.0122,0.00976,-0.02684,-0.00976,-0.0488,-0.03904,-0.00976,-0.13664,-0.06832
-0.03904,0.0366,-0.03416,-0.01464,0.00488,-0.02196,-0.00488,-0.0488,-0.03416,-0.01464,-0.13664,-0.06832
-0.03416,0.03416,-0.03416,-0.01708,0,-0.01708,-0.00488,-0.0488,-0.02928,-0.01464,-0.14152,-0.06832
-0.03416,0.03416,-0.03416,-0.01708,0,-0.01708,-0.00488,-0.0488,-0.03416,-0.00976,-0.14152,-0.06832
-0.03416,0.03416,-0.03416,-0.01708,0,-0.01708,-0.00488,-0.0488,-0.03416,-0.00488,-0.14152,-0.06832
-0.02928,0.02684,-0.0244,-0.00976,0.00488,-0.01708,-0.00488,-0.0488,-0.03416,-0.00488,-0.14152,-0.06832
-0.02928,0.02684,-0.0244,-0.00976,0.00488,-0.01708,-0.00488,-0.0488,-0.03416,-0.00488,-0.14152,-0.06832
-0.03416,0.02928,-0.0244,-0.00732,0.00976,-0.02196,-0.00976,-0.05368,-0.03904,-0.01464,-0.1464,-0.06832
-0.0488,0.04392,-0.03904,-0.01464,0.00976,-0.02928,-0.01464,-0.05368,-0.04392,-0.0244,-0.15128,-0.06832
-0.0488,0.0488,-0.0488,-0.0244,0,-0.0244,-0.01464,-0.05368,-0.04392,-0.0244,-0.15616,-0.06832
-0.04392,0.04148,-0.03904,-0.01708,0.00488,-0.0244,-0.01464,-0.05368,-0.04392,-0.0244,-0.15616,-0.0732
-0.02928,0.02684,-0.0244,-0.00976,0.00488,-0.01708,-0.00976,-0.05368,-0.03904,-0.01952,-0.15128,-0.0732
-0.01464,0.01708,-0.01952,-0.0122,-0.00488,-0.00488,-0.00488,-0.05368,-0.03416,-0.01464,-0.15128,-0.06832
-0.0244,0.0244,-0.0244,-0.0122,0,-0.0122,-0.00488,-0.0488,-0.03416,-0.01464,-0.15128,-0.06832
-0.03416,0.03172,-0.02928,-0.0122,0.00488,-0.01952,-0.00488,-0.0488,-0.03416,-0.01464,-0.15128,-0.07808
-0.03904,0.0366,-0.03416,-0.01464,0.00488,-0.02196,-0.00488,-0.0488,-0.03416,-0.01464,-0.15128,-0.07808
-0.04392,0.04148,-0.03904,-0.01708,0.00488,-0.0244,-0.00488,-0.05368,-0.03416,-0.01464,-0.15128,-0.0732
-0.03904,0.0366,-0.03416,-0.01464,0.00488,-0.02196,-0.00488,-0.0488,-0.03416,-0.00976,-0.1464,-0.06832
-0.03904,0.03416,-0.02928,-0.00976,0.00976,-0.0244,-0.00976,-0.0488,-0.03904,-0.00976,-0.1464,-0.06832
-0.03904,0.03416,-0.02928,-0.00976,0.00976,-0.0244,-0.00976,-0.0488,-0.03904,-0.00976,-0.1464,-0.06832
-0.03904,0.03416,-0.02928,-0.00976,0.00976,-0.0244,-0.00976,-0.0488,-0.03904,-0.00976,-0.1464,-0.06832
-0.03416,0.03172,-0.02928,-0.0122,0.00488,-0.01952,-0.00976,-0.0488,-0.03904,-0.00976,-0.15128,-0.06832
-0.02928,0.02928,-0.02928,-0.01464,0,-0.01464,-0.00976,-0.0488,-0.03904,-0.00976,-0.15616,-0.06832
-0.02928,0.02928,-0.02928,-0.01464,0,-0.01464,-0.00976,-0.0488,-0.03904,-0.01464,-0.15616,-0.06832
-0.02928,0.02928,-0.02928,-0.01464,0,-0.01464,-0.00976,-0.0488,-0.03904,-0.01952,-0.15616,-0.06832
-0.02928,0.02928,-0.02928,-0.01464,0,-0.01464,-0.00976,-0.0488,-0.03904,-0.01952,-0.15616,-0.06832
-0.02928,0.02928,-0.02928,-0.01464,0,-0.01464,-0.00976,-0.0488,-0.03904,-0.01952,-0.15616,-0.06832
-0.02928,0.02928,-0.02928,-0.01464,0,-0.01464,-0.00488,-0.0488,-0.03904,-0.01952,-0.15616,-0.06832
-0.02928,0.02928,-0.02928,-0.01464,0,-0.01464,0,-0.0488,-0.03904,-0.01952,-0.15616,-0.06832
-0.02928,0.02928,-0.02928,-0.01464,0,-0.01464,0,-0.04392,-0.03416,-0.01464,-0.15616,-0.06832
-0.02928,0.02928,-0.02928,-0.01464,0,-0.01464,0,-0.03904,-0.02928,-0.00976,-0.15616,-0.06832
-0.02928,0.02928,-0.02928,-0.01464,0,-0.01464,-0.00488,-0.03904,-0.02928,-0.00976,-0.15616,-0.06832
-0.02928,0.02928,-0.02928,-0.01464,0,-0.01464,-0.00976,-0.03904,-0.02928,-0.00976,-0.15616,-0.06832
-0.0244,0.0244,-0.0244,-0.0122,0,-0.0122,-0.00976,-0.03416,-0.02928,-0.00488,-0.15128,-0.06832
-0.01952,0.01952,-0.01952,-0.00976,0,-0.00976,-0.00976,-0.02928,-0.02928,0,-0.1464,-0.06832
0.00488,0,-0.00488,-0.00732,-0.00976,0.00732,-0.00488,-0.01464,-0.01464,0.01464,-0.14152,-0.06344
0.00976,-0.00732,0.00488,0,-0.00488,0.00732,0,0,0.00488,0.0244,-0.13176,-0.05368
0.01464,-0.01708,0.01952,0.0122,0.00488,0.00488,0.00976,0.01952,0.0244,0.03904,-0.122,-0.0488
0.00488,-0.01952,0.03416,0.03172,0.02928,-0.0122,0.00976,0.0244,0.03416,0.0488,-0.11712,-0.04392
0.00976,-0.02196,0.03416,0.02928,0.0244,-0.00732,0.00976,0.02928,0.03416,0.0488,-0.11224,-0.03904
0.00976,-0.02196,0.03416,0.02928,0.0244,-0.00732,0.00976,0.02928,0.03416,0.04392,-0.11224,-0.03416
0.00976,-0.02196,0.03416,0.02928,0.0244,-0.00732,0,0.02928,0.03416,0.04392,-0.11224,-0.03416
0.00976,-0.02684,0.04392,0.03904,0.03416,-0.0122,-0.00976,0.02928,0.03904,0.0488,-0.10736,-0.03416
0.01464,-0.02928,0.04392,0.0366,0.02928,-0.00732,-0.01952,0.03416,0.03904,0.05856,-0.0976,-0.0244
0.0244,-0.03172,0.03904,0.02684,0.01464,0.00488,-0.03416,0.03416,0.03416,0.05856,-0.0976,-0.0244
0.03416,-0.03172,0.02928,0.0122,-0.00488,0.01952,-0.0488,0.01464,0.01952,0.03904,-0.10736,-0.0244
0.03904,-0.03172,0.0244,0.00488,-0.01464,0.02684,-0.05856,-0.0244,-0.01464,0.01952,-0.122,-0.03416
0.03904,-0.02928,0.01952,0,-0.01952,0.02928,-0.07808,-0.05856,-0.04392,-0.00488,-0.13664,-0.03904
0.03904,-0.02196,0.00488,-0.01464,-0.03416,0.0366,-0.08296,-0.07808,-0.06832,-0.01952,-0.1464,-0.03904
0.03904,-0.01708,-0.00488,-0.0244,-0.04392,0.04148,-0.08296,-0.07808,-0.06832,-0.01952,-0.15128,-0.03904
0.03904,-0.01464,-0.00976,-0.02928,-0.0488,0.04392,-0.0732,-0.06344,-0.06344,-0.01952,-0.15128,-0.03904
0.03416,-0.0122,-0.00976,-0.02684,-0.04392,0.03904,-0.05856,-0.06344,-0.05856,-0.01952,-0.15128,-0.04392
0.01952,-0.00732,-0.00488,-0.01464,-0.0244,0.02196,-0.0488,-0.06344,-0.05856,-0.0244,-0.15616,-0.05368
0.00976,0,-0.00976,-0.01464,-0.01952,0.01464,-0.04392,-0.06832,-0.05856,-0.0244,-0.15616,-0.05856
0,0.00976,-0.01952,-0.01952,-0.01952,0.00976,-0.03904,-0.0732,-0.05856,-0.02928,-0.16592,-0.06344
-0.00976,0.01708,-0.0244,-0.01952,-0.01464,0.00244,-0.0244,-0.0732,-0.05856,-0.02928,-0.16592,-0.06344
-0.0244,0.0244,-0.0244,-0.0122,0,-0.0122,-0.00976,-0.06832,-0.05856,-0.02928,-0.16592,-0.06832
-0.03416,0.03416,-0.03416,-0.01708,0,-0.01708,0,-0.06832,-0.05856,-0.02928,-0.1708,-0.0732
-0.03904,0.0366,-0.03416,-0.01464,0.00488,-0.02196,0,-0.0732,-0.05856,-0.03416,-0.18056,-0.08296
-0.0488,0.05124,-0.05368,-0.02928,-0.00488,-0.02196,0,-0.07808,-0.06832,-0.04392,-0.18056,-0.08784
-0.05856,0.06588,-0.0732,-0.04392,-0.01464,-0.02196,0,-0.08296,-0.06832,-0.0488,-0.18544,-0.09272
-0.06344,0.07076,-0.07808,-0.04636,-0.01464,-0.0244,-0.00488,-0.08296,-0.06832,-0.0488,-0.18544,-0.09272
-0.06344,0.07076,-0.07808,-0.04636,-0.01464,-0.0244,-0.00488,-0.07808,-0.06832,-0.0488,-0.18544,-0.0976
-0.06344,0.06588,-0.06832,-0.0366,-0.00488,-0.02928,0,-0.07808,-0.06832,-0.0488,-0.18056,-0.0976
-0.06344,0.06344,-0.06344,-0.03172,0,-0.03172,0,-0.07808,-0.06832,-0.0488,-0.18056,-0.09272
-0.05856,0.061,-0.06344,-0.03416,-0.00488,-0.02684,0,-0.0732,-0.06832,-0.0488,-0.18056,-0.08784
-0.05368,0.05856,-0.06344,-0.0366,-0.00976,-0.02196,0,-0.06832,-0.06344,-0.04392,-0.17568,-0.08784
-0.05856,0.061,-0.06344,-0.03416,-0.00488,-0.02684,0,-0.06344,-0.05856,-0.04392,-0.17568,-0.08784
-0.05856,0.061,-0.06344,-0.03416,-0.00488,-0.02684,0,-0.06344,-0.05368,-0.04392,-0.17568,-0.08784
-0.05856,0.06588,-0.0732,-0.04392,-0.01464,-0.02196,0,-0.06344,-0.05368,-0.03904,-0.17568,-0.08784
-0.05856,0.06832,-0.07808,-0.0488,-0.01952,-0.01952,0,-0.06344,-0.0488,-0.03904,-0.17568,-0.08784
-0.0732,0.07564,-0.07808,-0.04148,-0.00488,-0.03416,0.00976,-0.05856,-0.0488,-0.03904,-0.17568,-0.08784
-0.08784,0.0854,-0.08296,-0.03904,0.00488,-0.04636,0.02928,-0.03416,-0.03416,-0.03904,-0.17568,-0.0976
-0.08784,0.09272,-0.0976,-0.05368,-0.00976,-0.03904,0.05856,0.04392,0.00976,-0.01952,-0.17568,-0.11712
-0.07808,0.0854,-0.09272,-0.05368,-0.01464,-0.03172,0.1464,0.24888,0.14152,0.06832,-0.15128,-0.12688
-0.0244,0.03416,-0.04392,-0.03172,-0.01952,-0.00244,0.25864,0.55144,0.35624,0.24888,-0.04392,-0.09272
0.0732,-0.05856,0.04392,0.00732,-0.02928,0.05124,0.32208,0.88816,0.57096,0.45872,0.11712,0.00976
0.20496,-0.1586,0.11224,0.00976,-0.09272,0.14884,0.31232,1.02968,0.66856,0.61976,0.2928,0.15616
0.40016,-0.2928,0.18544,-0.01464,-0.21472,0.30744,0.20496,0.96624,0.62464,0.67344,0.41968,0.32696
0.62464,-0.4514,0.27816,-0.03416,-0.34648,0.48556,0.03904,0.79056,0.52704,0.6832,0.5124,0.50264
0.77592,-0.60756,0.4392,0.05124,-0.33672,0.55632,-0.15128,0.4392,0.38552,0.65392,0.60024,0.6588
0.71736,-0.67588,0.6344,0.27572,-0.08296,0.40016,-0.29768,-0.11712,0.20008,0.54656,0.59048,0.72712
0.55632,-0.62952,0.70272,0.42456,0.1464,0.20496,-0.38552,-0.70272,-0.09272,0.25376,0.40016,0.66856
0.28304,-0.47092,0.6588,0.51728,0.37576,-0.04636,-0.45384,-1.27856,-0.40504,-0.06832,0.1464,0.51728
0.0976,-0.33672,0.57584,0.52704,0.47824,-0.19032,-0.52216,-1.6348,-0.66368,-0.32208,-0.06344,0.35136
-0.00976,-0.21228,0.43432,0.4392,0.44408,-0.22692,-0.50752,-1.62504,-0.7808,-0.45872,-0.20496,0.20008
-0.0732,-0.13664,0.34648,0.38308,0.41968,-0.24644,-0.42456,-1.45912,-0.77592,-0.49776,-0.25864,0.12688
-0.122,-0.07076,0.26352,0.32452,0.38552,-0.25376,-0.38552,-1.2688,-0.73688,-0.49288,-0.30256,0.05856
-0.16104,-0.0122,0.18544,0.26596,0.34648,-0.25376,-0.3416,-1.0248,-0.60512,-0.42944,-0.29768,-0.00488
-0.1464,-0.00244,0.15128,0.22448,0.29768,-0.22204,-0.30256,-0.76128,-0.44408,-0.31232,-0.26352,-0.03904
-0.08784,-0.01708,0.122,0.16592,0.20984,-0.14884,-0.22936,-0.5124,-0.2928,-0.18056,-0.20496,-0.04392
-0.06832,-0.00732,0.08296,0.11712,0.15128,-0.1098,-0.13176,-0.31232,-0.19032,-0.10248,-0.16592,-0.04392
-0.05368,0.00732,0.03904,0.06588,0.09272,-0.0732,-0.05856,-0.1708,-0.11712,-0.05856,-0.1464,-0.04392
-0.04392,0.01464,0.01464,0.0366,0.05856,-0.05124,-0.02928,-0.10248,-0.0732,-0.03904,-0.13664,-0.0488
-0.03416,0.01952,-0.00488,0.0122,0.02928,-0.03172,-0.01464,-0.07808,-0.05368,-0.01952,-0.13176,-0.05368
-0.03416,0.0244,-0.01464,0.00244,0.01952,-0.02684,0,-0.0488,-0.03416,-0.00976,-0.13176,-0.05368
-0.03416,0.02928,-0.0244,-0.00732,0.00976,-0.02196,0.01952,-0.01952,-0.02928,-0.00976,-0.12688,-0.06344
-0.04392,0.03904,-0.03416,-0.0122,0.00976,-0.02684,0.0244,-0.00488,-0.0244,-0.00488,-0.12688,-0.06832
-0.05368,0.04392,-0.03416,-0.00732,0.01952,-0.0366,0.0244,0,-0.0244,-0.00488,-0.12688,-0.06832
-0.03904,0.0366,-0.03416,-0.01464,0.00488,-0.02196,0.03416,0.00488,-0.01464,0,-0.12688,-0.06344
-0.02928,0.03172,-0.03416,-0.01952,-0.00488,-0.0122,0.03904,0.01464,-0.01464,0,-0.12688,-0.06344
-0.01464,0.0244,-0.03416,-0.02684,-0.01952,0.00244,0.03904,0.02928,-0.00976,0,-0.122,-0.06344
-0.01952,0.0244,-0.02928,-0.01952,-0.00976,-0.00488,0.03904,0.03416,-0.00976,0.00488,-0.122,-0.06832
-0.01952,0.0244,-0.02928,-0.01952,-0.00976,-0.00488,0.03904,0.03904,-0.00976,0.00488,-0.122,-0.06832
-0.01952,0.0244,-0.02928,-0.01952,-0.00976,-0.00488,0.03416,0.04392,-0.00488,0.00976,-0.11712,-0.06832
-0.01952,0.02684,-0.03416,-0.0244,-0.01464,-0.00244,0.03416,0.0488,-0.00488,0.00976,-0.11712,-0.06832
-0.02928,0.03172,-0.03416,-0.01952,-0.00488,-0.0122,0.03416,0.04392,0,0.00976,-0.11224,-0.06344
-0.02928,0.03172,-0.03416,-0.01952,-0.00488,-0.0122,0.03416,0.0488,0,0.01464,-0.11224,-0.06344
-0.02928,0.03172,-0.03416,-0.01952,-0.00488,-0.0122,0.03416,0.0488,-0.00488,0.01464,-0.11224,-0.06344
-0.0244,0.02928,-0.03416,-0.02196,-0.00976,-0.00732,0.03416,0.05856,-0.00488,0.01464,-0.10736,-0.06344
-0.01952,0.02684,-0.03416,-0.0244,-0.01464,-0.00244,0.03416,0.06344,0.00488,0.01464,-0.10736,-0.05856
-0.01952,0.02684,-0.03416,-0.0244,-0.01464,-0.00244,0.03416,0.06344,0.00488,0.01952,-0.10736,-0.05856
-0.01952,0.02684,-0.03416,-0.0244,-0.01464,-0.00244,0.03416,0.06344,0.00488,0.01952,-0.10736,-0.05856
-0.0244,0.02928,-0.03416,-0.02196,-0.00976,-0.00732,0.03416,0.06832,0.00488,0.0244,-0.10248,-0.05856
-0.0244,0.03172,-0.03904,-0.02684,-0.01464,-0.00488,0.03416,0.07808,0.01464,0.0244,-0.10248,-0.05368
-0.0244,0.02928,-0.03416,-0.02196,-0.00976,-0.00732,0.03416,0.08296,0.01464,0.0244,-0.09272,-0.0488
-0.0244,0.02684,-0.02928,-0.01708,-0.00488,-0.00976,0.03416,0.08296,0.01464,0.02928,-0.08784,-0.03904
-0.01952,0.02196,-0.0244,-0.01464,-0.00488,-0.00732,0.03904,0.09272,0.01464,0.02928,-0.08784,-0.03904
-0.01464,0.01708,-0.01952,-0.0122,-0.00488,-0.00488,0.03904,0.0976,0.01464,0.02928,-0.08296,-0.03904
-0.00488,0.00976,-0.01464,-0.0122,-0.00976,0.00244,0.03904,0.10736,0.01464,0.03416,-0.08296,-0.02928
-0.00488,0.00976,-0.01464,-0.0122,-0.00976,0.00244,0.03904,0.11224,0.01952,0.03904,-0.0732,-0.02928
0.00488,0,-0.00488,-0.00732,-0.00976,0.00732,0.03904,0.11712,0.02928,0.04392,-0.06832,-0.0244
0.01464,-0.00732,0,-0.00732,-0.01464,0.01464,0.03416,0.12688,0.03416,0.0488,-0.06832,-0.0244
0.01464,-0.00732,0,-0.00732,-0.01464,0.01464,0.02928,0.13176,0.03904,0.0488,-0.06344,-0.01464
0.01464,-0.00732,0,-0.00732,-0.01464,0.01464,0.02928,0.13664,0.04392,0.0488,-0.05856,-0.01464
0.01952,-0.00976,0,-0.00976,-0.01952,0.01952,0.0244,0.14152,0.04392,0.0488,-0.05856,-0.01464
0.0244,-0.0122,0,-0.0122,-0.0244,0.0244,0.01464,0.1464,0.04392,0.0488,-0.05856,-0.00488
0.0244,-0.0122,0,-0.0122,-0.0244,0.0244,0.01464,0.15616,0.04392,0.05368,-0.05368,-0.00488
0.0244,-0.01464,0.00488,-0.00732,-0.01952,0.02196,0.00976,0.16592,0.0488,0.05368,-0.04392,0.00488
0.03416,-0.02196,0.00976,-0.00732,-0.0244,0.02928,0.00976,0.17568,0.05368,0.06832,-0.03904,0.00976
0.03416,-0.02684,0.01952,0.00244,-0.01464,0.0244,0,0.18544,0.05856,0.0732,-0.02928,0.01952
0.0488,-0.0366,0.0244,0,-0.0244,0.0366,0.00488,0.18544,0.05856,0.07808,-0.0244,0.0244
0.06832,-0.05124,0.03416,0,-0.03416,0.05124,0.00976,0.1952,0.06832,0.08296,-0.00976,0.02928
0.06832,-0.05612,0.04392,0.00976,-0.0244,0.04636,-0.00488,0.20496,0.06832,0.08784,-0.00488,0.03904
0.08784,-0.06832,0.0488,0.00488,-0.03904,0.06344,-0.00976,0.21472,0.06832,0.0976,0,0.03904
0.09272,-0.07808,0.06344,0.01708,-0.02928,0.061,-0.01464,0.2196,0.07808,0.10248,0.00976,0.0488
0.10248,-0.08784,0.0732,0.02196,-0.02928,0.06588,-0.01952,0.22448,0.08296,0.10736,0.01952,0.05856
0.11224,-0.0976,0.08296,0.02684,-0.02928,0.07076,-0.0244,0.23424,0.09272,0.11712,0.0244,0.06344
0.122,-0.10736,0.09272,0.03172,-0.02928,0.07564,-0.03416,0.23424,0.09272,0.11712,0.02928,0.0732
0.13176,-0.11712,0.10248,0.0366,-0.02928,0.08052,-0.03904,0.23912,0.08784,0.11224,0.03904,0.07808
0.13664,-0.11956,0.10248,0.03416,-0.03416,0.0854,-0.03904,0.23912,0.08296,0.11224,0.03904,0.08296
0.13664,-0.122,0.10736,0.03904,-0.02928,0.08296,-0.0488,0.23912,0.08296,0.11712,0.04392,0.08784
0.13664,-0.12444,0.11224,0.04392,-0.0244,0.08052,-0.05368,0.23424,0.08296,0.11712,0.0488,0.0976
0.15128,-0.13664,0.122,0.04636,-0.02928,0.09028,-0.05856,0.23424,0.08296,0.122,0.05368,0.10248
0.15128,-0.14152,0.13176,0.05612,-0.01952,0.0854,-0.06344,0.22936,0.08784,0.12688,0.05368,0.10248
0.15616,-0.14396,0.13176,0.05368,-0.0244,0.09028,-0.06344,0.22936,0.08784,0.12688,0.05368,0.10736
0.15616,-0.14396,0.13176,0.05368,-0.0244,0.09028,-0.06832,0.21472,0.08784,0.12688,0.05368,0.10736
0.15128,-0.13908,0.12688,0.05124,-0.0244,0.08784,-0.06832,0.20496,0.08296,0.11712,0.05368,0.10736
0.1464,-0.13176,0.11712,0.04392,-0.02928,0.08784,-0.06832,0.19032,0.07808,0.11224,0.0488,0.10248
0.13664,-0.122,0.10736,0.03904,-0.02928,0.08296,-0.06344,0.18544,0.07808,0.10736,0.03904,0.08784
0.122,-0.11224,0.10248,0.04148,-0.01952,0.07076,-0.05856,0.17568,0.07808,0.10736,0.03416,0.07808
0.11224,-0.10248,0.09272,0.0366,-0.01952,0.06588,-0.05368,0.16592,0.07808,0.10248,0.03904,0.0732
0.09272,-0.0854,0.07808,0.03172,-0.01464,0.05368,-0.04392,0.15616,0.0732,0.10248,0.03416,0.05856
0.08784,-0.08052,0.0732,0.02928,-0.01464,0.05124,-0.03904,0.1464,0.0732,0.0976,0.0244,0.0488
0.0732,-0.06832,0.06344,0.02684,-0.00976,0.04148,-0.02928,0.14152,0.0732,0.0976,0.0244,0.03904
0.05856,-0.05124,0.04392,0.01464,-0.01464,0.0366,-0.01952,0.12688,0.0732,0.09272,0.01464,0.02928
0.0488,-0.04148,0.03416,0.00976,-0.01464,0.03172,-0.01464,0.11712,0.06832,0.09272,0.00488,0.01952
0.04392,-0.03416,0.0244,0.00244,-0.01952,0.03172,-0.00488,0.10736,0.06832,0.08296,0,0.01464
0.03416,-0.02928,0.0244,0.00732,-0.00976,0.02196,-0.00488,0.0976,0.06344,0.0732,-0.00976,0
0.0244,-0.02196,0.01952,0.00732,-0.00488,0.01464,0.00488,0.08296,0.06832,0.06832,-0.00976,-0.00488
0.01952,-0.01464,0.00976,0,-0.00976,0.01464,0.01464,0.0732,0.06344,0.06344,-0.01464,-0.00488
0.01464,-0.00732,0,-0.00732,-0.01464,0.01464,0.01464,0.06344,0.05368,0.05856,-0.0244,-0.01464
0.01464,-0.00488,-0.00488,-0.0122,-0.01952,0.01708,0.01464,0.05368,0.0488,0.06344,-0.0244,-0.01952
-0.00976,0.01708,-0.0244,-0.01952,-0.01464,0.00244,0.01464,0.0488,0.0488,0.05856,-0.02928,-0.01952
-0.02928,0.03416,-0.03904,-0.0244,-0.00976,-0.00976,0.01952,0.04392,0.04392,0.05368,-0.03416,-0.0244
-0.02928,0.0366,-0.04392,-0.02928,-0.01464,-0.00732,0.01952,0.03416,0.03416,0.04392,-0.04392,-0.02928
-0.03416,0.04148,-0.0488,-0.03172,-0.01464,-0.00976,0.01952,0.02928,0.03416,0.04392,-0.04392,-0.02928
-0.03904,0.04392,-0.0488,-0.02928,-0.00976,-0.01464,0.01952,0.0244,0.03416,0.04392,-0.0488,-0.03416
-0.03904,0.03904,-0.03904,-0.01952,0,-0.01952,0.01952,0.01952,0.02928,0.04392,-0.0488,-0.03904
-0.0244,0.03172,-0.03904,-0.02684,-0.01464,-0.00488,0.01952,0.01952,0.02928,0.03904,-0.0488,-0.03904
-0.00488,0.02196,-0.03904,-0.0366,-0.03416,0.01464,0.01464,0.01952,0.02928,0.03416,-0.0488,-0.03904
-0.00488,0.01708,-0.02928,-0.02684,-0.0244,0.00976,0.01464,0.01952,0.02928,0.03416,-0.05368,-0.03904
-0.00488,0.0122,-0.01952,-0.01708,-0.01464,0.00488,0.01464,0.01464,0.01952,0.03416,-0.05856,-0.04392
-0.01464,0.0244,-0.03416,-0.02684,-0.01952,0.00244,0.01464,0.01464,0.01952,0.02928,-0.05856,-0.04392
-0.0244,0.0366,-0.0488,-0.0366,-0.0244,0,0.01464,0.00976,0.01952,0.01952,-0.05856,-0.04392
-0.0244,0.03904,-0.05368,-0.04148,-0.02928,0.00244,0.01464,0.00976,0.01952,0.01952,-0.05856,-0.04392
-0.0244,0.03904,-0.05368,-0.04148,-0.02928,0.00244,0.01464,0.00976,0.01952,0.01952,-0.05856,-0.04392
-0.03416,0.04392,-0.05368,-0.0366,-0.01952,-0.00732,0.01464,0.00976,0.01952,0.01952,-0.05856,-0.04392
-0.03416,0.04392,-0.05368,-0.0366,-0.01952,-0.00732,0.01464,0.00976,0.01952,0.01952,-0.05856,-0.04392
-0.0244,0.02928,-0.03416,-0.02196,-0.00976,-0.00732,0.01952,0.00976,0.01464,0.01464,-0.05856,-0.04392
-0.01952,0.01708,-0.01464,-0.00488,0.00488,-0.0122,0.01952,0.00976,0.01464,0.01464,-0.06344,-0.0488
-0.0244,0.01952,-0.01464,-0.00244,0.00976,-0.01708,0.01464,0.00976,0.00976,0.01464,-0.06832,-0.05368
-0.02928,0.0244,-0.01952,-0.00488,0.00976,-0.01952,0.01464,0.00488,0.00976,0.01464,-0.06832,-0.05856
-0.02928,0.0244,-0.01952,-0.00488,0.00976,-0.01952,0.01464,-0.00488,0.00976,0.01464,-0.06832,-0.05856
-0.02928,0.0244,-0.01952,-0.00488,0.00976,-0.01952,0.01952,-0.00976,0.00976,0.00976,-0.06344,-0.05856
-0.02928,0.0244,-0.01952,-0.00488,0.00976,-0.01952,0.01952,-0.00976,0.00976,0.00976,-0.05856,-0.05368
-0.02928,0.0244,-0.01952,-0.00488,0.00976,-0.01952,0.01952,-0.00488,0.00976,0.01464,-0.05856,-0.0488
-0.02928,0.02684,-0.0244,-0.00976,0.00488,-0.01708,0.01952,0,0.00976,0.01464,-0.05856,-0.0488
-0.02928,0.02928,-0.02928,-0.01464,0,-0.01464,0.01464,0,0.00976,0.01464,-0.05368,-0.0488
-0.02928,0.02928,-0.02928,-0.01464,0,-0.01464,0.01464,0,0.00976,0.01464,-0.05368,-0.0488
-0.02928,0.03172,-0.03416,-0.01952,-0.00488,-0.0122,0.01464,0.00488,0.00976,0.01464,-0.05368,-0.0488
-0.0244,0.02928,-0.03416,-0.02196,-0.00976,-0.00732,0.01464,0.00488,0.00976,0.01464,-0.05368,-0.0488
-0.0244,0.02684,-0.02928,-0.01708,-0.00488,-0.00976,0.01464,0.00488,0.00976,0.01464,-0.05368,-0.0488
-0.0244,0.02684,-0.02928,-0.01708,-0.00488,-0.00976,0.01464,0.00488,0.00976,0.01464,-0.05368,-0.04392
-0.0244,0.02684,-0.02928,-0.01708,-0.00488,-0.00976,0.01464,0.00488,0.00976,0.01952,-0.0488,-0.04392
-0.01952,0.02684,-0.03416,-0.0244,-0.01464,-0.00244,0.01952,0.00488,0.00976,0.01952,-0.05368,-0.03904
-0.01952,0.02684,-0.03416,-0.0244,-0.01464,-0.00244,0.01952,0.00488,0.00976,0.01952,-0.05856,-0.03904
-0.02928,0.03172,-0.03416,-0.01952,-0.00488,-0.0122,0.01952,0.00488,0.00976,0.01952,-0.05856,-0.03904
-0.03416,0.03416,-0.03416,-0.01708,0,-0.01708,0.01464,0.00488,0.00976,0.01952,-0.05856,-0.03904
-0.03416,0.0366,-0.03904,-0.02196,-0.00488,-0.01464,0.01464,0,0.01464,0.01952,-0.05368,-0.03904
-0.03416,0.0366,-0.03904,-0.02196,-0.00488,-0.01464,0.01464,-0.00488,0.01952,0.01952,-0.0488,-0.03904
-0.02928,0.03416,-0.03904,-0.0244,-0.00976,-0.00976,0.00976,-0.00488,0.01952,0.01952,-0.0488,-0.03904
-0.02928,0.03172,-0.03416,-0.01952,-0.00488,-0.0122,0.00976,-0.00488,0.01952,0.0244,-0.0488,-0.03904
-0.02928,0.03172,-0.03416,-0.01952,-0.00488,-0.0122,0.00976,-0.00488,0.01464,0.0244,-0.04392,-0.03904
-0.03416,0.0366,-0.03904,-0.02196,-0.00488,-0.01464,0.00976,-0.00488,0.01464,0.0244,-0.04392,-0.03904
-0.03416,0.0366,-0.03904,-0.02196,-0.00488,-0.01464,0.01464,-0.00488,0.01464,0.01952,-0.0488,-0.03904
-0.03416,0.0366,-0.03904,-0.02196,-0.00488,-0.01464,0.01464,0,0.01464,0.01952,-0.0488,-0.03904
-0.01952,0.0244,-0.02928,-0.01952,-0.00976,-0.00488,0.01464,0,0.01952,0.01952,-0.04392,-0.03416
0,0.00976,-0.01952,-0.01952,-0.01952,0.00976,0.01464,0,0.01952,0.0244,-0.03904,-0.02928
-0.00488,0.0122,-0.01952,-0.01708,-0.01464,0.00488,0.01464,0,0.01952,0.0244,-0.03904,-0.02928
-0.01464,0.01708,-0.01952,-0.0122,-0.00488,-0.00488,0.01464,0,0.01952,0.0244,-0.03904,-0.02928
-0.0244,0.02684,-0.02928,-0.01708,-0.00488,-0.00976,0.01464,-0.00976,0.01464,0.01464,-0.04392,-0.03416
-0.03416,0.0366,-0.03904,-0.02196,-0.00488,-0.01464,0.00976,-0.01464,0.00488,0.01464,-0.04392,-0.03904
-0.03416,0.0366,-0.03904,-0.02196,-0.00488,-0.01464,0.00488,-0.01464,0.00488,0.01464,-0.0488,-0.04392
-0.03416,0.0366,-0.03904,-0.02196,-0.00488,-0.01464,0.00488,-0.01464,0.00488,0.01464,-0.05368,-0.04392
-0.03416,0.0366,-0.03904,-0.02196,-0.00488,-0.01464,0.00488,-0.01464,0.00488,0.01464,-0.05368,-0.04392
-0.02928,0.03416,-0.03904,-0.0244,-0.00976,-0.00976,0,-0.01464,0.00488,0.00976,-0.05856,-0.04392
-0.0244,0.03172,-0.03904,-0.02684,-0.01464,-0.00488,0,-0.01952,0,0.00976,-0.05856,-0.04392
-0.0244,0.02928,-0.03416,-0.02196,-0.00976,-0.00732,0,-0.0244,0,0.00976,-0.05856,-0.04392
-0.02928,0.03172,-0.03416,-0.01952,-0.00488,-0.0122,0.00488,-0.0244,0.00488,0.00976,-0.05368,-0.04392
-0.03416,0.03416,-0.03416,-0.01708,0,-0.01708,0.00976,-0.0244,0.00488,0.00976,-0.05368,-0.04392
-0.03416,0.0366,-0.03904,-0.02196,-0.00488,-0.01464,0.00976,-0.01952,0.00488,0.00976,-0.05368,-0.0488
-0.03416,0.0366,-0.03904,-0.02196,-0.00488,-0.01464,0.00488,-0.01952,0,0,-0.06344,-0.04392
-0.03416,0.04148,-0.0488,-0.03172,-0.01464,-0.00976,0.00488,-0.01952,0,-0.00488,-0.06344,-0.04392
-0.03416,0.04392,-0.05368,-0.0366,-0.01952,-0.00732,0.00976,-0.01952,0,-0.00488,-0.06344,-0.04392
-0.03904,0.04636,-0.05368,-0.03416,-0.01464,-0.0122,0.00976,-0.01952,-0.00488,0,-0.06344,-0.0488
-0.04392,0.0488,-0.05368,-0.03172,-0.00976,-0.01708,0.00976,-0.01952,-0.00976,0,-0.06344,-0.05368
-0.04392,0.0488,-0.05368,-0.03172,-0.00976,-0.01708,0.00976,-0.0244,-0.00976,0,-0.06832,-0.05368
-0.04392,0.0488,-0.05368,-0.03172,-0.00976,-0.01708,0.00976,-0.0244,-0.01464,-0.00488,-0.06832,-0.05368
-0.03904,0.04636,-0.05368,-0.03416,-0.01464,-0.0122,0.00488,-0.0244,-0.00976,-0.00488,-0.06832,-0.05368
-0.03416,0.04392,-0.05368,-0.0366,-0.01952,-0.00732,0.00488,-0.0244,-0.00488,-0.00488,-0.0732,-0.05368
-0.03904,0.04636,-0.05368,-0.03416,-0.01464,-0.0122,0.00488,-0.0244,-0.00488,0,-0.06832,-0.05368
-0.03904,0.04636,-0.05368,-0.03416,-0.01464,-0.0122,0.00976,-0.0244,-0.00488,0,-0.06344,-0.05368
-0.03416,0.04148,-0.0488,-0.03172,-0.01464,-0.00976,0.00976,-0.02928,-0.00488,0,-0.06344,-0.05368
-0.0244,0.03416,-0.04392,-0.03172,-0.01952,-0.00244,0.00488,-0.02928,-0.00488,0,-0.06344,-0.05368
-0.0244,0.03416,-0.04392,-0.03172,-0.01952,-0.00244,0.00488,-0.02928,-0.00488,0,-0.06344,-0.0488
-0.0244,0.03416,-0.04392,-0.03172,-0.01952,-0.00244,0.00488,-0.02928,-0.00976,0,-0.06344,-0.04392
-0.02928,0.04148,-0.05368,-0.03904,-0.0244,-0.00244,0.00976,-0.02928,-0.01464,-0.00488,-0.06344,-0.0488
-0.04392,0.05368,-0.06344,-0.04148,-0.01952,-0.0122,0.00976,-0.02928,-0.01464,-0.00488,-0.06344,-0.0488
-0.04392,0.05612,-0.06832,-0.04636,-0.0244,-0.00976,0.00488,-0.02928,-0.00976,-0.00488,-0.06344,-0.0488
-0.04392,0.05856,-0.0732,-0.05124,-0.02928,-0.00732,0.00488,-0.03416,-0.00976,-0.00976,-0.06344,-0.0488
-0.0488,0.061,-0.0732,-0.0488,-0.0244,-0.0122,0.00488,-0.03416,-0.00976,-0.00976,-0.06832,-0.05368
-0.05368,0.06344,-0.0732,-0.04636,-0.01952,-0.01708,0.00488,-0.03416,-0.00976,-0.00976,-0.07808,-0.05856
-0.05368,0.06344,-0.0732,-0.04636,-0.01952,-0.01708,0.00488,-0.03416,-0.01464,-0.00976,-0.07808,-0.05856
-0.05368,0.06344,-0.0732,-0.04636,-0.01952,-0.01708,0.00488,-0.03416,-0.01464,0,-0.07808,-0.05856
-0.0488,0.061,-0.0732,-0.0488,-0.0244,-0.0122,0.00488,-0.03416,-0.01464,0,-0.0732,-0.05856
-0.0488,0.061,-0.0732,-0.0488,-0.0244,-0.0122,0.00488,-0.03416,-0.01464,0,-0.0732,-0.05856
-0.04392,0.05612,-0.06832,-0.04636,-0.0244,-0.00976,0.00976,-0.02928,-0.00976,0,-0.0732,-0.05856
-0.04392,0.05368,-0.06344,-0.04148,-0.01952,-0.0122,0.00976,-0.02928,-0.00976,0,-0.06832,-0.05856
-0.04392,0.05368,-0.06344,-0.04148,-0.01952,-0.0122,0.00976,-0.02928,-0.00976,-0.00488,-0.06832,-0.05856
-0.04392,0.05368,-0.06344,-0.04148,-0.01952,-0.0122,0.00488,-0.02928,-0.00976,-0.00488,-0.0732,-0.05856
-0.0488,0.05856,-0.06832,-0.04392,-0.01952,-0.01464,0.00488,-0.02928,-0.01464,-0.00488,-0.0732,-0.05368
-0.05368,0.06344,-0.0732,-0.04636,-0.01952,-0.01708,0.00488,-0.02928,-0.01464,-0.00488,-0.0732,-0.0488
-0.0488,0.05612,-0.06344,-0.03904,-0.01464,-0.01708,0.00488,-0.02928,-0.01464,-0.00488,-0.06832,-0.0488
-0.0488,0.05612,-0.06344,-0.03904,-0.01464,-0.01708,0.00488,-0.02928,-0.01464,-0.00488,-0.06344,-0.0488
-0.0488,0.0488,-0.0488,-0.0244,0,-0.0244,0.00488,-0.03416,-0.01464,-0.00488,-0.06344,-0.0488
-0.05856,0.05368,-0.0488,-0.01952,0.00976,-0.03416,0.00488,-0.03416,-0.01464,-0.00488,-0.06344,-0.0488
-0.05856,0.06344,-0.06832,-0.03904,-0.00976,-0.0244,0.00488,-0.03416,-0.01464,-0.00488,-0.06832,-0.0488
-0.05368,0.061,-0.06832,-0.04148,-0.01464,-0.01952,0.00488,-0.03416,-0.01464,-0.00488,-0.06832,-0.05368
-0.05368,0.05612,-0.05856,-0.03172,-0.00488,-0.0244,0.00488,-0.03416,-0.01464,-0.00488,-0.06344,-0.05368
-0.05368,0.05612,-0.05856,-0.03172,-0.00488,-0.0244,0.00488,-0.03416,-0.01464,-0.00488,-0.06344,-0.0488
-0.04392,0.05124,-0.05856,-0.0366,-0.01464,-0.01464,0.00488,-0.02928,-0.01464,-0.00488,-0.06344,-0.0488
-0.03416,0.04636,-0.05856,-0.04148,-0.0244,-0.00488,0.00488,-0.02928,-0.01464,-0.00488,-0.06344,-0.05856
-0.04392,0.05124,-0.05856,-0.0366,-0.01464,-0.01464,0.00488,-0.02928,-0.01464,-0.00488,-0.06344,-0.05856
-0.05368,0.05612,-0.05856,-0.03172,-0.00488,-0.0244,0.00488,-0.03416,-0.01464,-0.00488,-0.06344,-0.05368
-0.0488,0.05612,-0.06344,-0.03904,-0.01464,-0.01708,0.00488,-0.02928,-0.00976,0,-0.06344,-0.0488
-0.0488,0.05856,-0.06832,-0.04392,-0.01952,-0.01464,0.00976,-0.02928,-0.00976,0,-0.06832,-0.0488
-0.0488,0.05856,-0.06832,-0.04392,-0.01952,-0.01464,0.00976,-0.02928,-0.00976,-0.00488,-0.06832,-0.0488
-0.0488,0.05856,-0.06832,-0.04392,-0.01952,-0.01464,0.00976,-0.02928,-0.00976,-0.00976,-0.06832,-0.0488
-0.0488,0.05856,-0.06832,-0.04392,-0.01952,-0.01464,0.00976,-0.02928,-0.01464,-0.00976,-0.06832,-0.05368
-0.0488,0.05856,-0.06832,-0.04392,-0.01952,-0.01464,0.00976,-0.02928,-0.01952,-0.00976,-0.06832,-0.05856
-0.0488,0.05856,-0.06832,-0.04392,-0.01952,-0.01464,0.00976,-0.02928,-0.01952,-0.00488,-0.06832,-0.05856
-0.0488,0.05856,-0.06832,-0.04392,-0.01952,-0.01464,0.00976,-0.02928,-0.01952,0,-0.06832,-0.05856
-0.04392,0.05124,-0.05856,-0.0366,-0.01464,-0.01464,0.00976,-0.02928,-0.01952,0,-0.06832,-0.05856
-0.03904,0.04392,-0.0488,-0.02928,-0.00976,-0.01464,0.00976,-0.02928,-0.01952,0,-0.06832,-0.05856
-0.03904,0.04392,-0.0488,-0.02928,-0.00976,-0.01464,0.00976,-0.02928,-0.01464,0,-0.06832,-0.05368
-0.03904,0.04392,-0.0488,-0.02928,-0.00976,-0.01464,0.00976,-0.02928,-0.00976,0,-0.06832,-0.0488
-0.0488,0.0488,-0.0488,-0.0244,0,-0.0244,0.00976,-0.02928,-0.00976,0,-0.06344,-0.0488
-0.05856,0.05368,-0.0488,-0.01952,0.00976,-0.03416,0.00976,-0.02928,-0.00976,0,-0.05856,-0.0488
-0.0488,0.0488,-0.0488,-0.0244,0,-0.0244,0.00976,-0.02928,-0.00976,0,-0.05856,-0.0488
-0.03904,0.04392,-0.0488,-0.02928,-0.00976,-0.01464,0.00976,-0.02928,-0.00976,0,-0.05856,-0.0488
-0.03416,0.03904,-0.04392,-0.02684,-0.00976,-0.0122,0.00976,-0.01952,-0.00488,0.00976,-0.05368,-0.0488
-0.02928,0.03416,-0.03904,-0.0244,-0.00976,-0.00976,0.00976,-0.00976,0,0.01952,-0.0488,-0.0488
-0.02928,0.03416,-0.03904,-0.0244,-0.00976,-0.00976,0.00976,-0.00488,0,0.01952,-0.0488,-0.0488
-0.0244,0.02928,-0.03416,-0.02196,-0.00976,-0.00732,0.01464,0.00488,0.00488,0.02928,-0.04392,-0.03904
-0.01952,0.0244,-0.02928,-0.01952,-0.00976,-0.00488,0.01952,0.01464,0.01464,0.03904,-0.03904,-0.03416
-0.01952,0.0244,-0.02928,-0.01952,-0.00976,-0.00488,0.02928,0.02928,0.03416,0.0488,-0.0244,-0.02928
-0.00976,0.00732,-0.00488,0,0.00488,-0.00732,0.02928,0.03416,0.05368,0.05856,-0.01464,-0.0244
0,-0.00244,0.00488,0.00488,0.00488,-0.00244,0.02928,0.03904,0.06344,0.06344,-0.00488,-0.0244
0,-0.00244,0.00488,0.00488,0.00488,-0.00244,0.02928,0.03904,0.06344,0.06344,-0.00488,-0.0244
0,-0.00244,0.00488,0.00488,0.00488,-0.00244,0.01952,0.03904,0.06344,0.06344,-0.00488,-0.0244
-0.00488,-0.00488,0.01464,0.01708,0.01952,-0.0122,0.00976,0.03904,0.06832,0.06832,0,-0.0244
-0.00488,-0.00732,0.01952,0.02196,0.0244,-0.01464,0,0.04392,0.06832,0.07808,0.00976,-0.01464
0.00488,-0.00976,0.01464,0.0122,0.00976,-0.00244,-0.01464,0.05368,0.06344,0.07808,0.00976,-0.01464
0.00488,-0.00244,0,-0.00244,-0.00488,0.00488,-0.02928,0.04392,0.0488,0.05856,0,-0.01464
0,0.00244,-0.00488,-0.00488,-0.00488,0.00244,-0.03904,0.00488,0.01464,0.03904,-0.01464,-0.0244
0,0.00488,-0.00976,-0.00976,-0.00976,0.00488,-0.05856,-0.02928,-0.01464,0.01464,-0.02928,-0.02928
0,0.00976,-0.01952,-0.01952,-0.01952,0.00976,-0.06344,-0.05856,-0.03904,0,-0.03904,-0.02928
0,0.0122,-0.0244,-0.0244,-0.0244,0.0122,-0.06344,-0.06832,-0.03904,0,-0.04392,-0.02928
0,0.01464,-0.02928,-0.02928,-0.02928,0.01464,-0.05368,-0.05368,-0.03416,0,-0.04392,-0.02928
-0.00488,0.02196,-0.03904,-0.0366,-0.03416,0.01464,-0.03904,-0.05368,-0.02928,0,-0.04392,-0.03416
-0.00976,0.02684,-0.04392,-0.03904,-0.03416,0.0122,-0.02928,-0.05368,-0.03416,-0.00488,-0.0488,-0.04392
-0.00976,0.02928,-0.0488,-0.04392,-0.03904,0.01464,-0.0244,-0.05368,-0.03904,-0.00488,-0.0488,-0.0488
-0.01952,0.03904,-0.05856,-0.0488,-0.03904,0.00976,-0.01952,-0.05368,-0.03904,-0.00976,-0.05856,-0.05368
-0.02928,0.04636,-0.06344,-0.0488,-0.03416,0.00244,-0.00976,-0.05368,-0.03904,-0.00976,-0.05856,-0.05368
-0.0488,0.05612,-0.06344,-0.03904,-0.01464,-0.01708,0,-0.0488,-0.03904,-0.00488,-0.05856,-0.05856
-0.06344,0.06832,-0.0732,-0.04148,-0.00976,-0.02684,0.00976,-0.0488,-0.03904,0,-0.06344,-0.06344
-0.06832,0.07564,-0.08296,-0.0488,-0.01464,-0.02684,0.00976,-0.05368,-0.03904,-0.00488,-0.0732,-0.0732
-0.06832,0.0854,-0.10248,-0.06832,-0.03416,-0.01708,0.00976,-0.05856,-0.0488,-0.01464,-0.0732,-0.0732
-0.06832,0.0854,-0.10248,-0.06832,-0.03416,-0.01708,0.00976,-0.06344,-0.04392,-0.01952,-0.07808,-0.0732
-0.0732,0.0854,-0.0976,-0.061,-0.0244,-0.0244,0.00488,-0.06344,-0.03904,-0.01952,-0.07808,-0.0732
-0.06344,0.07564,-0.08784,-0.05612,-0.0244,-0.01952,0.00488,-0.05856,-0.03904,-0.01952,-0.07808,-0.0732
-0.05368,0.06344,-0.0732,-0.04636,-0.01952,-0.01708,0.00976,-0.05856,-0.03904,-0.01952,-0.07808,-0.0732
-0.05368,0.06344,-0.0732,-0.04636,-0.01952,-0.01708,0.00976,-0.05856,-0.03904,-0.01952,-0.08296,-0.0732
-0.05368,0.06344,-0.0732,-0.04636,-0.01952,-0.01708,0.00976,-0.05856,-0.03904,-0.01952,-0.08296,-0.06832
-0.06344,0.07808,-0.09272,-0.061,-0.02928,-0.01708,0.01464,-0.05856,-0.03416,-0.01464,-0.07808,-0.06832
-0.07808,0.09516,-0.11224,-0.0732,-0.03416,-0.02196,0.01952,-0.05368,-0.03416,-0.01464,-0.07808,-0.06832
-0.07808,0.09028,-0.10248,-0.06344,-0.0244,-0.02684,0.01952,-0.05368,-0.03416,-0.01464,-0.07808,-0.06832
-0.07808,0.0854,-0.09272,-0.05368,-0.01464,-0.03172,0.01952,-0.05368,-0.03416,-0.00976,-0.07808,-0.06832
-0.06832,0.07076,-0.0732,-0.03904,-0.00488,-0.03172,0.01952,-0.05368,-0.02928,-0.00976,-0.07808,-0.06832
-0.05856,0.05856,-0.05856,-0.02928,0,-0.02928,0.02928,-0.0488,-0.02928,-0.00976,-0.07808,-0.06832
-0.06832,0.07076,-0.0732,-0.03904,-0.00488,-0.03172,0.03416,-0.0488,-0.03416,-0.01952,-0.07808,-0.07808
-0.08784,0.09516,-0.10248,-0.05856,-0.01464,-0.0366,0.0488,0,-0.00976,-0.00976,-0.07808,-0.0976
-0.11224,0.122,-0.13176,-0.07564,-0.01952,-0.04636,0.13664,0.1708,0.10248,0.05368,-0.08296,-0.122
-0.09272,0.10492,-0.11712,-0.07076,-0.0244,-0.03416,0.24888,0.44408,0.29768,0.20984,-0.00488,-0.10736
-0.00488,0.00976,-0.01464,-0.0122,-0.00976,0.00244,0.33672,0.84424,0.54656,0.43432,0.15616,-0.0244
0.12688,-0.10004,0.0732,0.00976,-0.05368,0.09028,0.35136,1.05408,0.6832,0.61,0.33184,0.10736
0.3416,-0.23912,0.13664,-0.03416,-0.20496,0.27328,0.25864,1.04432,0.6588,0.66856,0.45872,0.27816
0.57584,-0.39772,0.2196,-0.06832,-0.35624,0.46604,0.11224,0.93208,0.5856,0.69784,0.56608,0.4636
0.76616,-0.5734,0.38064,-0.00244,-0.38552,0.57584,-0.08296,0.64416,0.488,0.72224,0.70272,0.6588
0.7808,-0.68808,0.59536,0.20496,-0.18544,0.48312,-0.23912,0.13664,0.33672,0.65392,0.72712,0.7564
0.64416,-0.67344,0.70272,0.38064,0.05856,0.2928,-0.33184,-0.49288,0.04392,0.38064,0.55144,0.72224
0.36112,-0.51972,0.67832,0.49776,0.3172,0.02196,-0.40504,-1.11752,-0.2684,0.07808,0.31232,0.59536
0.12688,-0.36112,0.59536,0.53192,0.46848,-0.1708,-0.48312,-1.55184,-0.5368,-0.1952,0.10248,0.41968
-0.01952,-0.21716,0.45384,0.4636,0.47336,-0.24644,-0.47824,-1.62504,-0.67832,-0.366,-0.05368,0.25376
-0.08296,-0.14884,0.38064,0.42212,0.4636,-0.27328,-0.39528,-1.4884,-0.72224,-0.43432,-0.12688,0.17568
-0.12688,-0.09028,0.30744,0.37088,0.43432,-0.2806,-0.35624,-1.3176,-0.72224,-0.44896,-0.18056,0.10736
-0.16104,-0.03172,0.22448,0.305,0.38552,-0.27328,-0.3172,-1.0736,-0.60024,-0.40992,-0.19032,0.03416
-0.1464,-0.01952,0.18544,0.25864,0.33184,-0.23912,-0.28792,-0.81496,-0.44408,-0.31232,-0.16592,-0.00976
-0.07808,-0.0366,0.15128,0.19032,0.22936,-0.15372,-0.2196,-0.55632,-0.2928,-0.1708,-0.10736,-0.01464
-0.0488,-0.03172,0.11224,0.13664,0.16104,-0.10492,-0.122,-0.3416,-0.18544,-0.08296,-0.06832,-0.01464
-0.0488,0,0.0488,0.0732,0.0976,-0.0732,-0.0488,-0.19032,-0.10736,-0.03904,-0.0488,-0.01464
-0.05856,0.02684,0.00488,0.03416,0.06344,-0.061,-0.01952,-0.11224,-0.06344,-0.01952,-0.04392,-0.01952
-0.05368,0.03416,-0.01464,0.0122,0.03904,-0.04636,-0.00488,-0.08784,-0.04392,0,-0.04392,-0.02928
-0.05368,0.03904,-0.0244,0.00244,0.02928,-0.04148,0.00976,-0.05368,-0.0244,0.00976,-0.04392,-0.03416
-0.0488,0.04148,-0.03416,-0.00976,0.01464,-0.03172,0.02928,-0.01464,-0.01464,0.00976,-0.03904,-0.04392
-0.04392,0.04392,-0.04392,-0.02196,0,-0.02196,0.03416,0.00488,-0.00488,0.01464,-0.03904,-0.0488
-0.04392,0.04392,-0.04392,-0.02196,0,-0.02196,0.03416,0.00976,-0.00488,0.01952,-0.03904,-0.0488
-0.03904,0.04148,-0.04392,-0.0244,-0.00488,-0.01708,0.03904,0.01464,0.00488,0.02928,-0.03904,-0.04392
-0.05368,0.05368,-0.05368,-0.02684,0,-0.02684,0.03904,0.02928,0.00488,0.02928,-0.03904,-0.04392
-0.05856,0.06344,-0.06832,-0.03904,-0.00976,-0.0244,0.03904,0.04392,0.00976,0.02928,-0.03904,-0.04392
-0.05856,0.06344,-0.06832,-0.03904,-0.00976,-0.0244,0.03904,0.04392,0.00976,0.03416,-0.04392,-0.0488
-0.0488,0.05856,-0.06832,-0.04392,-0.01952,-0.01464,0.04392,0.0488,0.00976,0.03416,-0.04392,-0.0488
-0.0488,0.05368,-0.05856,-0.03416,-0.00976,-0.01952,0.0488,0.05368,0.01464,0.04392,-0.03904,-0.0488
-0.03904,0.04392,-0.0488,-0.02928,-0.00976,-0.01464,0.05368,0.06344,0.01464,0.0488,-0.03904,-0.0488
-0.03904,0.04148,-0.04392,-0.0244,-0.00488,-0.01708,0.05368,0.06344,0.01952,0.0488,-0.03416,-0.04392
-0.03904,0.04148,-0.04392,-0.0244,-0.00488,-0.01708,0.05368,0.06832,0.01952,0.05368,-0.03416,-0.04392
-0.04392,0.04636,-0.0488,-0.02684,-0.00488,-0.01952,0.05368,0.06832,0.01464,0.0488,-0.03416,-0.04392
-0.04392,0.0488,-0.05368,-0.03172,-0.00976,-0.01708,0.05368,0.07808,0.01464,0.04392,-0.02928,-0.04392
-0.03904,0.04636,-0.05368,-0.03416,-0.01464,-0.0122,0.05368,0.08296,0.0244,0.04392,-0.02928,-0.03904
-0.03904,0.04636,-0.05368,-0.03416,-0.01464,-0.0122,0.05368,0.08296,0.0244,0.0488,-0.02928,-0.03904
-0.03416,0.04392,-0.05368,-0.0366,-0.01952,-0.00732,0.05368,0.07808,0.0244,0.0488,-0.02928,-0.03904
-0.02928,0.03904,-0.0488,-0.03416,-0.01952,-0.00488,0.05368,0.07808,0.0244,0.05368,-0.0244,-0.03904
-0.0244,0.0366,-0.0488,-0.0366,-0.0244,0,0.05368,0.08784,0.03416,0.05368,-0.0244,-0.03416
-0.0244,0.03416,-0.04392,-0.03172,-0.01952,-0.00244,0.05368,0.09272,0.03416,0.05368,-0.01952,-0.03416
-0.0244,0.03172,-0.03904,-0.02684,-0.01464,-0.00488,0.05368,0.09272,0.03416,0.05856,-0.01952,-0.02928
-0.0244,0.03172,-0.03904,-0.02684,-0.01464,-0.00488,0.05368,0.0976,0.03416,0.05856,-0.01952,-0.02928
-0.01952,0.02684,-0.03416,-0.0244,-0.01464,-0.00244,0.0488,0.0976,0.03416,0.05856,-0.00976,-0.02928
-0.00488,0.01464,-0.0244,-0.02196,-0.01952,0.00732,0.0488,0.10736,0.03416,0.06344,-0.00488,-0.01952
-0.00488,0.01464,-0.0244,-0.02196,-0.01952,0.00732,0.0488,0.11224,0.03904,0.06832,0.00488,-0.01952
0.00488,0.00488,-0.01464,-0.01708,-0.01952,0.0122,0.0488,0.11712,0.04392,0.0732,0.00976,-0.01464
0.01464,-0.00244,-0.00976,-0.01708,-0.0244,0.01952,0.03904,0.12688,0.03904,0.0732,0.00976,-0.01464
0.01464,-0.00244,-0.00976,-0.01708,-0.0244,0.01952,0.02928,0.13176,0.03904,0.06832,0.01464,-0.00488
0.01464,-0.00244,-0.00976,-0.01708,-0.0244,0.01952,0.02928,0.13664,0.04392,0.06832,0.01952,-0.00488
0.01952,-0.00732,-0.00488,-0.01464,-0.0244,0.02196,0.02928,0.14152,0.04392,0.0732,0.01952,-0.00488
0.0244,-0.0122,0,-0.0122,-0.0244,0.0244,0.02928,0.1464,0.04392,0.07808,0.01464,0.00488
0.02928,-0.01708,0.00488,-0.00976,-0.0244,0.02684,0.03416,0.15616,0.04392,0.08296,0.01464,0.00488
0.03416,-0.02196,0.00976,-0.00732,-0.0244,0.02928,0.02928,0.16592,0.0488,0.08296,0.0244,0.00976
0.04392,-0.02684,0.00976,-0.0122,-0.03416,0.03904,0.02928,0.17568,0.05368,0.09272,0.02928,0.00976
0.03904,-0.02928,0.01952,0,-0.01952,0.02928,0.01952,0.18544,0.05856,0.09272,0.03904,0.01952
0.04392,-0.03416,0.0244,0.00244,-0.01952,0.03172,0.01952,0.18544,0.05856,0.0976,0.03904,0.0244
0.05856,-0.04636,0.03416,0.00488,-0.0244,0.04148,0.01952,0.1952,0.06832,0.10248,0.0488,0.02928
0.05856,-0.05124,0.04392,0.01464,-0.01464,0.0366,0.00488,0.20496,0.06832,0.10736,0.05368,0.04392
0.08784,-0.0732,0.05856,0.01464,-0.02928,0.05856,0,0.21472,0.06832,0.11712,0.05856,0.05368
0.10248,-0.09272,0.08296,0.03172,-0.01952,0.061,-0.00488,0.2196,0.07808,0.122,0.06832,0.06832
0.11224,-0.10248,0.09272,0.0366,-0.01952,0.06588,-0.00976,0.2196,0.07808,0.12688,0.07808,0.07808
0.122,-0.11224,0.10248,0.04148,-0.01952,0.07076,-0.01464,0.22448,0.08296,0.13664,0.08296,0.08296
0.122,-0.11468,0.10736,0.04636,-0.01464,0.06832,-0.02928,0.22448,0.08296,0.13664,0.08784,0.09272
0.122,-0.11712,0.11224,0.05124,-0.00976,0.06588,-0.03904,0.22936,0.08296,0.13664,0.0976,0.0976
0.12688,-0.11956,0.11224,0.0488,-0.01464,0.07076,-0.03904,0.23424,0.08296,0.14152,0.0976,0.10248
0.12688,-0.122,0.11712,0.05368,-0.00976,0.06832,-0.04392,0.23912,0.08296,0.1464,0.10248,0.10736
0.12688,-0.122,0.11712,0.05368,-0.00976,0.06832,-0.04392,0.23424,0.08784,0.15128,0.10736,0.11712
0.14152,-0.13176,0.122,0.05124,-0.01952,0.08052,-0.0488,0.23424,0.08784,0.15616,0.11224,0.122
0.15128,-0.14152,0.13176,0.05612,-0.01952,0.0854,-0.05368,0.22936,0.08784,0.15616,0.11224,0.122
0.16592,-0.14884,0.13176,0.0488,-0.03416,0.10004,-0.05368,0.22936,0.08784,0.15616,0.11224,0.12688
0.16592,-0.14884,0.13176,0.0488,-0.03416,0.10004,-0.05856,0.2196,0.08784,0.15616,0.11224,0.12688
0.16104,-0.14884,0.13664,0.05612,-0.0244,0.09272,-0.05856,0.2196,0.08784,0.15128,0.11224,0.12688
0.15616,-0.15128,0.1464,0.06832,-0.00976,0.08296,-0.05856,0.21472,0.09272,0.15616,0.11224,0.12688
0.1464,-0.14152,0.13664,0.06344,-0.00976,0.07808,-0.05368,0.21472,0.0976,0.15616,0.10736,0.11712
0.13664,-0.12932,0.122,0.05368,-0.01464,0.07564,-0.04392,0.20496,0.0976,0.15616,0.10248,0.10736
0.13176,-0.122,0.11224,0.04636,-0.01952,0.07564,-0.03416,0.19032,0.0976,0.15128,0.10248,0.10248
0.11224,-0.10492,0.0976,0.04148,-0.01464,0.06344,-0.0244,0.17568,0.09272,0.15128,0.09272,0.08784
0.10736,-0.10004,0.09272,0.03904,-0.01464,0.061,-0.01952,0.16592,0.09272,0.1464,0.08296,0.07808
0.08784,-0.08052,0.0732,0.02928,-0.01464,0.05124,-0.01464,0.16104,0.09272,0.1464,0.08296,0.06832
0.06832,-0.05612,0.04392,0.00976,-0.0244,0.04636,-0.00976,0.1464,0.09272,0.14152,0.0732,0.05856
0.05856,-0.05124,0.04392,0.01464,-0.01464,0.0366,-0.00488,0.13664,0.08784,0.1464,0.06344,0.0488
0.05368,-0.0488,0.04392,0.01708,-0.00976,0.03172,0.00488,0.12688,0.08784,0.14152,0.05856,0.04392
0.04392,-0.04392,0.04392,0.02196,0,0.02196,0.00976,0.11712,0.08296,0.13176,0.0488,0.02928
0.03416,-0.03416,0.03416,0.01708,0,0.01708,0.01952,0.10248,0.08296,0.12688,0.0488,0.01952
0.0244,-0.01952,0.01464,0.00244,-0.00976,0.01708,0.0244,0.08784,0.0732,0.11712,0.04392,0.01464
0.00488,-0.00244,0,-0.00244,-0.00488,0.00488,0.0244,0.0732,0.06344,0.10248,0.03416,0.00488
-0.00488,0.00488,-0.00488,-0.00244,0,-0.00244,0.0244,0.06344,0.05856,0.10248,0.03416,-0.00488
-0.00976,0.00976,-0.00976,-0.00488,0,-0.00488,0.0244,0.05856,0.05856,0.0976,0.02928,-0.00976
-0.00976,0.00732,-0.00488,0,0.00488,-0.00732,0.02928,0.05368,0.05368,0.09272,0.0244,-0.01464
-0.00976,0.00732,-0.00488,0,0.00488,-0.00732,0.02928,0.04392,0.04392,0.08296,0.01464,-0.01952
-0.01464,0.0122,-0.00976,-0.00244,0.00488,-0.00976,0.02928,0.03904,0.04392,0.08296,0.01464,-0.01952
-0.0244,0.02196,-0.01952,-0.00732,0.00488,-0.01464,0.02928,0.03416,0.04392,0.08296,0.00976,-0.0244
-0.02928,0.0244,-0.01952,-0.00488,0.00976,-0.01952,0.02928,0.02928,0.03904,0.08296,0.00976,-0.02928
-0.02928,0.0244,-0.01952,-0.00488,0.00976,-0.01952,0.03416,0.02928,0.03904,0.07808,0.00976,-0.02928
-0.0244,0.02196,-0.01952,-0.00732,0.00488,-0.01464,0.03416,0.02928,0.03904,0.0732,0.00976,-0.02928
-0.0244,0.02196,-0.01952,-0.00732,0.00488,-0.01464,0.03416,0.02928,0.03904,0.0732,0.00488,-0.02928
-0.03416,0.02928,-0.0244,-0.00732,0.00976,-0.02196,0.02928,0.01952,0.02928,0.0732,-0.00488,-0.03416
-0.04392,0.03904,-0.03416,-0.0122,0.00976,-0.02684,0.0244,0.01464,0.02928,0.0732,-0.00976,-0.03416
-0.04392,0.04148,-0.03904,-0.01708,0.00488,-0.0244,0.0244,0.00976,0.0244,0.06344,-0.01464,-0.03416
-0.04392,0.04148,-0.03904,-0.01708,0.00488,-0.0244,0.0244,0.00976,0.01952,0.05856,-0.01952,-0.03416
-0.03904,0.0366,-0.03416,-0.01464,0.00488,-0.02196,0.02928,0.00976,0.01952,0.05856,-0.01952,-0.03416
-0.04392,0.03904,-0.03416,-0.0122,0.00976,-0.02684,0.03416,0.00976,0.01952,0.05856,-0.01952,-0.03416
-0.04392,0.03904,-0.03416,-0.0122,0.00976,-0.02684,0.03416,0.00976,0.01952,0.06344,-0.01464,-0.03416
-0.03904,0.0366,-0.03416,-0.01464,0.00488,-0.02196,0.03904,0.00976,0.01464,0.06344,-0.00976,-0.03416
-0.03904,0.0366,-0.03416,-0.01464,0.00488,-0.02196,0.03904,0.00976,0.01952,0.06344,-0.00976,-0.03904
-0.04392,0.03904,-0.03416,-0.0122,0.00976,-0.02684,0.03416,0.00976,0.01952,0.06344,-0.00976,-0.03904
-0.04392,0.04148,-0.03904,-0.01708,0.00488,-0.0244,0.03416,0.00976,0.01952,0.06344,-0.00976,-0.03904
-0.03904,0.03904,-0.03904,-0.01952,0,-0.01952,0.03416,0.00976,0.01952,0.06344,-0.01464,-0.03904
-0.03904,0.03904,-0.03904,-0.01952,0,-0.01952,0.03904,0.00976,0.01952,0.05856,-0.01464,-0.03904
-0.03904,0.03904,-0.03904,-0.01952,0,-0.01952,0.03904,0.00976,0.01952,0.05856,-0.00976,-0.03904
-0.04392,0.04148,-0.03904,-0.01708,0.00488,-0.0244,0.03904,0.01464,0.01952,0.05856,-0.01464,-0.04392
