i,aVR,ii,aVF,iii,aVL,V1,V2,V3,V4,V5,V6
0.05368,-0.01708,-0.01952,-0.04636,-0.0732,0.06344,0.03416,0.1952,0.11712,-0.01952,-0.05856,-0.08784
0.06344,-0.02684,-0.00976,-0.04148,-0.0732,0.06832,0.02928,0.18056,0.122,-0.01464,-0.0488,-0.08784
0.06832,-0.03172,-0.00488,-0.03904,-0.0732,0.07076,0.01952,0.16592,0.122,-0.00488,-0.0488,-0.07808
0.0732,-0.04392,0.01464,-0.02196,-0.05856,0.06588,0.00976,0.18056,0.13664,0.01464,-0.02928,-0.06344
0.08296,-0.05612,0.02928,-0.0122,-0.05368,0.06832,0.00976,0.1952,0.1464,0.02928,-0.00976,-0.04392
0.09272,-0.06832,0.04392,-0.00244,-0.0488,0.07076,0.01464,0.1952,0.15616,0.03904,0,-0.02928
0.10736,-0.08296,0.05856,0.00488,-0.0488,0.07808,0.01464,0.20008,0.1708,0.05368,0.00976,-0.01952
0.11712,-0.09272,0.06832,0.00976,-0.0488,0.08296,0.00488,0.20008,0.18544,0.06344,0.01952,-0.00488
0.12688,-0.10004,0.0732,0.00976,-0.05368,0.09028,0,0.20008,0.19032,0.0732,0.02928,0.00976
0.13664,-0.11224,0.08784,0.01952,-0.0488,0.09272,-0.00488,0.20496,0.19032,0.09272,0.04392,0.01464
0.15128,-0.12444,0.0976,0.02196,-0.05368,0.10248,-0.01464,0.20496,0.1952,0.0976,0.05856,0.03416
0.15616,-0.1342,0.11224,0.03416,-0.04392,0.10004,-0.01952,0.20008,0.20008,0.11712,0.06832,0.04392
0.16104,-0.14152,0.122,0.04148,-0.03904,0.10004,-0.02928,0.1952,0.20008,0.13176,0.07808,0.05368
0.16104,-0.1464,0.13176,0.05124,-0.02928,0.09516,-0.02928,0.18544,0.20008,0.14152,0.08784,0.06344
0.15616,-0.14884,0.14152,0.06344,-0.01464,0.0854,-0.02928,0.18056,0.20008,0.15128,0.0976,0.07808
0.1708,-0.16104,0.15128,0.06588,-0.01952,0.09516,-0.03416,0.1708,0.20008,0.16104,0.10736,0.08784
0.1708,-0.16836,0.16592,0.08052,-0.00488,0.08784,-0.0488,0.16592,0.20008,0.16592,0.10736,0.0976
0.1708,-0.16836,0.16592,0.08052,-0.00488,0.08784,-0.0488,0.16104,0.1952,0.16104,0.11712,0.09272
0.16592,-0.16592,0.16592,0.08296,0,0.08296,-0.0488,0.1464,0.19032,0.15616,0.11712,0.09272
0.16592,-0.16592,0.16592,0.08296,0,0.08296,-0.0488,0.13664,0.19032,0.15616,0.11712,0.08784
0.16592,-0.16592,0.16592,0.08296,0,0.08296,-0.0488,0.12688,0.18544,0.15128,0.11224,0.08296
0.16104,-0.16348,0.16592,0.0854,0.00488,0.07808,-0.05368,0.11712,0.16592,0.13664,0.10248,0.07808
0.15616,-0.1586,0.16104,0.08296,0.00488,0.07564,-0.05368,0.11224,0.15616,0.11712,0.09272,0.06344
0.1464,-0.14884,0.15128,0.07808,0.00488,0.07076,-0.0488,0.10248,0.15128,0.11712,0.08296,0.05368
0.13176,-0.13664,0.14152,0.07564,0.00976,0.061,-0.03416,0.0976,0.13664,0.0976,0.0732,0.04392
0.11224,-0.11468,0.11712,0.061,0.00488,0.05368,-0.02928,0.09272,0.122,0.0732,0.05368,0.0244
0.10248,-0.10248,0.10248,0.05124,0,0.05124,-0.02928,0.08784,0.11224,0.05368,0.02928,0
0.08784,-0.09028,0.09272,0.0488,0.00488,0.04148,-0.0244,0.07808,0.10248,0.04392,0.01464,-0.01464
0.08296,-0.0732,0.06344,0.02196,-0.01952,0.05124,-0.01952,0.0732,0.08784,0.01952,-0.00488,-0.03416
0.06832,-0.061,0.05368,0.01952,-0.01464,0.04148,-0.01464,0.06832,0.08296,0.00488,-0.0244,-0.04392
0.05856,-0.0488,0.03904,0.00976,-0.01952,0.03904,-0.00976,0.06832,0.0732,-0.00976,-0.03904,-0.05856
0.0488,-0.03904,0.02928,0.00488,-0.01952,0.03416,-0.00976,0.06832,0.0732,-0.0244,-0.04392,-0.0732
0.04392,-0.03416,0.0244,0.00244,-0.01952,0.03172,-0.00488,0.06832,0.05856,-0.03904,-0.0488,-0.08296
0.03904,-0.02196,0.00488,-0.01464,-0.03416,0.0366,0,0.06344,0.05368,-0.04392,-0.06344,-0.09272
0.03416,-0.01708,0,-0.01708,-0.03416,0.03416,0.00488,0.06344,0.04392,-0.0488,-0.06832,-0.10248
0.02928,-0.0122,-0.00488,-0.01952,-0.03416,0.03172,0.00488,0.05856,0.03904,-0.06344,-0.07808,-0.11712
0.02928,-0.0122,-0.00488,-0.01952,-0.03416,0.03172,0.00488,0.05368,0.03904,-0.0732,-0.08296,-0.11712
0.0244,-0.00976,-0.00488,-0.01708,-0.02928,0.02684,0.00488,0.05368,0.03904,-0.0732,-0.08296,-0.11712
0.01464,-0.00244,-0.00976,-0.01708,-0.0244,0.01952,0.00488,0.05368,0.03416,-0.0732,-0.08784,-0.11712
0.01464,0,-0.01464,-0.02196,-0.02928,0.02196,0.00488,0.05368,0.0244,-0.07808,-0.08784,-0.12688
0.00976,0.00244,-0.01464,-0.01952,-0.0244,0.01708,0.00488,0.05368,0.01952,-0.08296,-0.08784,-0.12688
0.00976,0.00488,-0.01952,-0.0244,-0.02928,0.01952,0.00488,0.05368,0.01952,-0.08784,-0.08784,-0.122
0.00488,0.00732,-0.01952,-0.02196,-0.0244,0.01464,0.00488,0.05368,0.01952,-0.08784,-0.08784,-0.11712
0.00488,0.00488,-0.01464,-0.01708,-0.01952,0.0122,0.00976,0.05368,0.0244,-0.08784,-0.09272,-0.122
0.00488,0.00488,-0.01464,-0.01708,-0.01952,0.0122,0.00976,0.05368,0.0244,-0.08784,-0.09272,-0.12688
0,0.00732,-0.01464,-0.01464,-0.01464,0.00732,0.00976,0.05368,0.0244,-0.09272,-0.09272,-0.12688
0,0.00732,-0.01464,-0.01464,-0.01464,0.00732,0.00976,0.05368,0.02928,-0.09272,-0.09272,-0.12688
0,0.00732,-0.01464,-0.01464,-0.01464,0.00732,0.00976,0.05856,0.02928,-0.09272,-0.09272,-0.12688
0,0.00244,-0.00488,-0.00488,-0.00488,0.00244,0.00976,0.05856,0.02928,-0.09272,-0.09272,-0.12688
0,0.00732,-0.01464,-0.01464,-0.01464,0.00732,0.00976,0.06344,0.02928,-0.09272,-0.08784,-0.12688
0,0.00732,-0.01464,-0.01464,-0.01464,0.00732,0.00976,0.06344,0.02928,-0.09272,-0.08296,-0.12688
-0.00488,0.00976,-0.01464,-0.0122,-0.00976,0.00244,0.00976,0.06344,0.02928,-0.09272,-0.08296,-0.12688
-0.00488,0.00976,-0.01464,-0.0122,-0.00976,0.00244,0.00976,0.06344,0.03416,-0.09272,-0.08296,-0.12688
-0.00488,0.00976,-0.01464,-0.0122,-0.00976,0.00244,0.00976,0.06832,0.03416,-0.09272,-0.08296,-0.122
-0.00488,0.00976,-0.01464,-0.0122,-0.00976,0.00244,0.00976,0.06832,0.03416,-0.08784,-0.08296,-0.122
-0.00488,0.00488,-0.00488,-0.00244,0,-0.00244,0.00976,0.06344,0.02928,-0.08784,-0.08296,-0.122
-0.00488,0.00244,0,0.00244,0.00488,-0.00488,0.00976,0.05856,0.02928,-0.08784,-0.08296,-0.122
0,0,0,0,0,0,0.00976,0.06344,0.02928,-0.08784,-0.08296,-0.122
0,0.00244,-0.00488,-0.00488,-0.00488,0.00244,0.00976,0.06344,0.02928,-0.08784,-0.08296,-0.122
0,0.00244,-0.00488,-0.00488,-0.00488,0.00244,0,0.05856,0.02928,-0.08784,-0.08296,-0.122
0.00488,0,-0.00488,-0.00732,-0.00976,0.00732,-0.00488,0.05368,0.02928,-0.08784,-0.07808,-0.122
0.00488,0,-0.00488,-0.00732,-0.00976,0.00732,-0.00488,0.05368,0.02928,-0.08784,-0.07808,-0.11712
0.00488,0,-0.00488,-0.00732,-0.00976,0.00732,-0.00488,0.05368,0.02928,-0.08784,-0.07808,-0.11712
0.00976,-0.00488,0,-0.00488,-0.00976,0.00976,-0.00976,0.05368,0.02928,-0.08296,-0.07808,-0.11712
0.00976,-0.00488,0,-0.00488,-0.00976,0.00976,-0.01464,0.05368,0.02928,-0.08296,-0.07808,-0.11712
0.00488,-0.00244,0,-0.00244,-0.00488,0.00488,-0.01464,0.05368,0.0244,-0.08784,-0.07808,-0.122
0,0,0,0,0,0,-0.01464,0.05368,0.01952,-0.08784,-0.07808,-0.122
0.00488,-0.00244,0,-0.00244,-0.00488,0.00488,-0.01464,0.05368,0.01952,-0.08296,-0.07808,-0.11712
0.00488,-0.00244,0,-0.00244,-0.00488,0.00488,-0.01464,0.05368,0.01952,-0.08296,-0.07808,-0.11712
0.00488,-0.00244,0,-0.00244,-0.00488,0.00488,-0.01464,0.05368,0.01952,-0.08784,-0.07808,-0.11712
0.00488,-0.00244,0,-0.00244,-0.00488,0.00488,-0.01464,0.05368,0.01952,-0.08784,-0.07808,-0.11712
0.00488,-0.00244,0,-0.00244,-0.00488,0.00488,-0.01464,0.05368,0.01464,-0.08784,-0.07808,-0.11712
0.00488,-0.00244,0,-0.00244,-0.00488,0.00488,-0.01464,0.0488,0.01464,-0.09272,-0.07808,-0.11712
0.00976,-0.00488,0,-0.00488,-0.00976,0.00976,-0.01464,0.0488,0.01464,-0.09272,-0.0732,-0.122
0.01464,-0.00488,-0.00488,-0.0122,-0.01952,0.01708,-0.01952,0.0488,0.01464,-0.09272,-0.06832,-0.122
0.01464,-0.00488,-0.00488,-0.0122,-0.01952,0.01708,-0.0244,0.0488,0.00976,-0.09272,-0.0732,-0.11712
0.01464,-0.00488,-0.00488,-0.0122,-0.01952,0.01708,-0.0244,0.0488,0.00488,-0.09272,-0.0732,-0.11712
0.01464,-0.00488,-0.00488,-0.0122,-0.01952,0.01708,-0.0244,0.04392,0.00488,-0.09272,-0.0732,-0.11712
0.01464,-0.00488,-0.00488,-0.0122,-0.01952,0.01708,-0.02928,0.04392,0.00488,-0.0976,-0.0732,-0.122
0.01464,-0.00488,-0.00488,-0.0122,-0.01952,0.01708,-0.02928,0.03904,0,-0.0976,-0.07808,-0.11712
0.01464,-0.00244,-0.00976,-0.01708,-0.0244,0.01952,-0.02928,0.03416,0,-0.0976,-0.07808,-0.11712
0.01464,-0.00244,-0.00976,-0.01708,-0.0244,0.01952,-0.02928,0.03416,0.00488,-0.0976,-0.0732,-0.11712
0.01464,-0.00244,-0.00976,-0.01708,-0.0244,0.01952,-0.02928,0.03416,0.00976,-0.0976,-0.0732,-0.11712
0.01464,-0.00244,-0.00976,-0.01708,-0.0244,0.01952,-0.02928,0.02928,0.00976,-0.10248,-0.0732,-0.11224
0.01464,-0.00244,-0.00976,-0.01708,-0.0244,0.01952,-0.0244,0.02928,0.00976,-0.10248,-0.0732,-0.10248
0.01464,-0.00244,-0.00976,-0.01708,-0.0244,0.01952,-0.0244,0.02928,0.00488,-0.10248,-0.0732,-0.10248
0.01464,-0.00244,-0.00976,-0.01708,-0.0244,0.01952,-0.02928,0.02928,0,-0.10736,-0.07808,-0.11224
0.01464,-0.00488,-0.00488,-0.0122,-0.01952,0.01708,-0.02928,0.0244,0,-0.10736,-0.07808,-0.11712
0.00976,-0.00488,0,-0.00488,-0.00976,0.00976,-0.02928,0.0244,-0.00488,-0.10248,-0.07808,-0.11712
0.00976,-0.00488,0,-0.00488,-0.00976,0.00976,-0.02928,0.0244,-0.00488,-0.10248,-0.07808,-0.11712
0.00976,-0.00244,-0.00488,-0.00976,-0.01464,0.0122,-0.02928,0.01952,-0.00488,-0.10736,-0.07808,-0.11712
0.00976,-0.00488,0,-0.00488,-0.00976,0.00976,-0.0244,0.01952,-0.00488,-0.10736,-0.07808,-0.11712
0.00976,-0.00488,0,-0.00488,-0.00976,0.00976,-0.01952,0.01952,-0.00976,-0.10736,-0.07808,-0.11712
0.00976,-0.00488,0,-0.00488,-0.00976,0.00976,-0.01952,0.01952,-0.00976,-0.10736,-0.07808,-0.11712
0.00976,-0.00488,0,-0.00488,-0.00976,0.00976,-0.01952,0.01952,-0.00976,-0.10736,-0.07808,-0.11712
0.00976,-0.00488,0,-0.00488,-0.00976,0.00976,-0.01952,0.01952,-0.00488,-0.10248,-0.0732,-0.11224
0.00976,-0.00732,0.00488,0,-0.00488,0.00732,-0.01952,0.01952,0,-0.0976,-0.06832,-0.10736
0.00976,-0.00976,0.00976,0.00488,0,0.00488,-0.01952,0.01952,0.00488,-0.09272,-0.06832,-0.10736
0.00976,-0.01464,0.01952,0.01464,0.00976,0,-0.0244,0.01952,0.00488,-0.09272,-0.06344,-0.10736
0.00976,-0.01952,0.02928,0.0244,0.01952,-0.00488,-0.02928,0.01464,0.00976,-0.08784,-0.06344,-0.10248
0.00976,-0.0244,0.03904,0.03416,0.02928,-0.00976,-0.02928,0.00976,0.01952,-0.08296,-0.05368,-0.0976
0.01952,-0.03416,0.0488,0.03904,0.02928,-0.00488,-0.02928,0.00488,0.0244,-0.0732,-0.0488,-0.09272
0.01952,-0.03416,0.0488,0.03904,0.02928,-0.00488,-0.02928,0.00488,0.02928,-0.0732,-0.0488,-0.08784
0.01952,-0.03416,0.0488,0.03904,0.02928,-0.00488,-0.0244,0.01464,0.03904,-0.0732,-0.0488,-0.08784
0.0244,-0.03904,0.05368,0.04148,0.02928,-0.00244,-0.0244,0.01952,0.04392,-0.06832,-0.0488,-0.08784
0.02928,-0.04148,0.05368,0.03904,0.0244,0.00244,-0.03904,0.0244,0.04392,-0.05856,-0.03904,-0.07808
0.03904,-0.05612,0.0732,0.05368,0.03416,0.00244,-0.0488,0.00976,0.04392,-0.05856,-0.03416,-0.0732
0.03904,-0.05612,0.0732,0.05368,0.03416,0.00244,-0.0488,-0.00488,0.03904,-0.05856,-0.03416,-0.06832
0.03416,-0.05368,0.0732,0.05612,0.03904,-0.00244,-0.04392,-0.01952,0.02928,-0.05856,-0.03416,-0.06344
0.03416,-0.05368,0.0732,0.05612,0.03904,-0.00244,-0.04392,-0.01952,0.02928,-0.05856,-0.03416,-0.05856
0.03416,-0.05124,0.06832,0.05124,0.03416,0,-0.0488,-0.02928,0.0244,-0.05856,-0.03416,-0.05856
0.03904,-0.05368,0.06832,0.0488,0.02928,0.00488,-0.05368,-0.02928,0.01952,-0.06344,-0.03416,-0.05856
0.0488,-0.05856,0.06832,0.04392,0.01952,0.01464,-0.05368,-0.0244,0.01952,-0.06832,-0.03416,-0.05856
0.0488,-0.05368,0.05856,0.03416,0.00976,0.01952,-0.05856,-0.0244,0.00976,-0.0732,-0.04392,-0.06344
0.04392,-0.04392,0.04392,0.02196,0,0.02196,-0.05856,-0.02928,0,-0.08296,-0.0488,-0.0732
0.03416,-0.0366,0.03904,0.02196,0.00488,0.01464,-0.05856,-0.02928,-0.00488,-0.08784,-0.05368,-0.0732
0.02928,-0.02928,0.02928,0.01464,0,0.01464,-0.05368,-0.0244,-0.00488,-0.08784,-0.05368,-0.0732
0.0244,-0.01952,0.01464,0.00244,-0.00976,0.01708,-0.04392,-0.01464,-0.00488,-0.08784,-0.06344,-0.07808
0.00488,-0.00244,0,-0.00244,-0.00488,0.00488,-0.03416,-0.00976,-0.00976,-0.09272,-0.06344,-0.08296
0.00488,0,-0.00488,-0.00732,-0.00976,0.00732,-0.03416,-0.00488,-0.00976,-0.0976,-0.0732,-0.08784
0.00488,0,-0.00488,-0.00732,-0.00976,0.00732,-0.02928,0,-0.00976,-0.10248,-0.07808,-0.09272
0.00488,0.00488,-0.01464,-0.01708,-0.01952,0.0122,-0.0244,0.00488,-0.01464,-0.10248,-0.07808,-0.0976
0,0.0122,-0.0244,-0.0244,-0.0244,0.0122,-0.01952,0.00488,-0.01952,-0.11224,-0.07808,-0.10248
-0.00488,0.01708,-0.02928,-0.02684,-0.0244,0.00976,-0.01464,0.00488,-0.0244,-0.11224,-0.08296,-0.10248
-0.00488,0.01708,-0.02928,-0.02684,-0.0244,0.00976,-0.01464,0.00488,-0.02928,-0.11224,-0.08296,-0.10248
-0.00488,0.01708,-0.02928,-0.02684,-0.0244,0.00976,-0.01952,0,-0.03416,-0.11224,-0.08296,-0.10248
-0.00488,0.01708,-0.02928,-0.02684,-0.0244,0.00976,-0.0244,-0.00488,-0.03904,-0.11224,-0.08296,-0.10248
-0.01464,0.0244,-0.03416,-0.02684,-0.01952,0.00244,-0.0244,-0.00488,-0.03904,-0.11224,-0.08296,-0.10248
-0.0244,0.02928,-0.03416,-0.02196,-0.00976,-0.00732,-0.01952,-0.00488,-0.03904,-0.11712,-0.08784,-0.10736
-0.01464,0.02196,-0.02928,-0.02196,-0.01464,0,-0.01952,0,-0.03904,-0.11712,-0.08784,-0.10736
-0.00488,0.01464,-0.0244,-0.02196,-0.01952,0.00732,-0.01952,0.00488,-0.03416,-0.11224,-0.08296,-0.10248
-0.00488,0.01464,-0.0244,-0.02196,-0.01952,0.00732,-0.01952,0.00976,-0.03416,-0.11224,-0.08296,-0.10248
-0.00488,0.01464,-0.0244,-0.02196,-0.01952,0.00732,-0.01952,0.00976,-0.03416,-0.11224,-0.08296,-0.10248
-0.00488,0.01464,-0.0244,-0.02196,-0.01952,0.00732,-0.01952,0.00488,-0.03416,-0.10736,-0.08296,-0.10248
-0.00488,0.01708,-0.02928,-0.02684,-0.0244,0.00976,-0.01952,0,-0.03416,-0.10736,-0.08296,-0.10248
-0.00488,0.02196,-0.03904,-0.0366,-0.03416,0.01464,-0.01952,-0.00976,-0.03416,-0.11712,-0.09272,-0.10736
-0.00488,0.0244,-0.04392,-0.04148,-0.03904,0.01708,-0.00976,0.00488,-0.02928,-0.11712,-0.0976,-0.11712
-0.00488,0.01952,-0.03416,-0.03172,-0.02928,0.0122,0.00976,0.04392,0.0244,-0.10248,-0.0976,-0.11712
0,0.00244,-0.00488,-0.00488,-0.00488,0.00244,0.03904,0.0976,0.10736,-0.05368,-0.06344,-0.08296
0.03416,-0.02684,0.01952,0.00244,-0.01464,0.0244,0.05856,0.19032,0.20008,0.02928,0,-0.03904
0.14152,-0.08296,0.0244,-0.04636,-0.11712,0.12932,0.06344,0.31232,0.29768,0.11224,0.06344,0.03416
0.31232,-0.19764,0.08296,-0.0732,-0.22936,0.27084,0.01952,0.3416,0.40016,0.26352,0.20496,0.21472
0.50264,-0.34648,0.19032,-0.061,-0.31232,0.40748,-0.06832,0.19032,0.40992,0.40992,0.37576,0.42456
0.67832,-0.51972,0.36112,0.02196,-0.3172,0.49776,-0.25376,-0.1464,0.1708,0.47336,0.51728,0.6344
0.75152,-0.65636,0.5612,0.18544,-0.19032,0.47092,-0.40016,-0.47824,-0.10248,0.51728,0.62952,0.78568
0.76616,-0.73688,0.7076,0.32452,-0.05856,0.41236,-0.46848,-0.7076,-0.27328,0.53192,0.69784,0.84912
0.55632,-0.63684,0.71736,0.4392,0.16104,0.19764,-0.47824,-0.854,-0.49288,0.40504,0.62952,0.76616
0.24888,-0.4148,0.58072,0.45628,0.33184,-0.04148,-0.41968,-0.92232,-0.60512,0.17568,0.4148,0.5124
-0.02928,-0.22448,0.47824,0.49288,0.50752,-0.2684,-0.3904,-1.0004,-0.77592,-0.0244,0.23424,0.29768
-0.21472,-0.0854,0.38552,0.49288,0.60024,-0.40748,-0.33184,-0.96624,-0.77104,-0.13176,0.11224,0.14152
-0.25864,-0.02684,0.31232,0.44164,0.57096,-0.4148,-0.28304,-0.8296,-0.65392,-0.1464,0.05368,0.06344
-0.18544,-0.02196,0.22936,0.32208,0.4148,-0.30012,-0.22448,-0.61,-0.488,-0.15128,0.00488,0.01952
-0.11712,-0.01952,0.15616,0.21472,0.27328,-0.1952,-0.16592,-0.4148,-0.35136,-0.14152,-0.0244,-0.01952
-0.10248,0.0122,0.07808,0.12932,0.18056,-0.14152,-0.12688,-0.30256,-0.28304,-0.15128,-0.06344,-0.05368
-0.08296,0.0366,0.00976,0.05124,0.09272,-0.08784,-0.08784,-0.20496,-0.2196,-0.15128,-0.07808,-0.07808
-0.06832,0.04148,-0.01464,0.01952,0.05368,-0.061,-0.05856,-0.122,-0.15616,-0.14152,-0.07808,-0.08296
-0.0488,0.03416,-0.01952,0.00488,0.02928,-0.03904,-0.03904,-0.07808,-0.10248,-0.12688,-0.07808,-0.08784
-0.0244,0.02684,-0.02928,-0.01708,-0.00488,-0.00976,-0.0244,-0.03904,-0.06832,-0.11224,-0.07808,-0.08784
-0.00488,0.01952,-0.03416,-0.03172,-0.02928,0.0122,-0.00976,-0.01952,-0.04392,-0.10736,-0.0732,-0.08784
-0.00976,0.0244,-0.03904,-0.03416,-0.02928,0.00976,0,-0.00488,-0.02928,-0.10736,-0.0732,-0.08784
-0.01952,0.02928,-0.03904,-0.02928,-0.01952,0,0,0.00488,-0.0244,-0.10248,-0.0732,-0.08296
-0.01464,0.03172,-0.0488,-0.04148,-0.03416,0.00976,0.00488,0.01464,-0.00976,-0.10248,-0.07808,-0.08296
-0.00976,0.03172,-0.05368,-0.0488,-0.04392,0.01708,0.00976,0.01464,-0.00976,-0.10248,-0.07808,-0.08296
-0.00488,0.02928,-0.05368,-0.05124,-0.0488,0.02196,0.01464,0.01952,-0.00488,-0.10248,-0.0732,-0.08296
-0.00488,0.02928,-0.05368,-0.05124,-0.0488,0.02196,0.01952,0.0244,-0.00488,-0.10248,-0.0732,-0.08296
0,0.02684,-0.05368,-0.05368,-0.05368,0.02684,0.01952,0.0244,0,-0.09272,-0.0732,-0.07808
0.00488,0.0244,-0.05368,-0.05612,-0.05856,0.03172,0.01952,0.02928,0.00976,-0.08784,-0.0732,-0.06832
0.00488,0.02196,-0.0488,-0.05124,-0.05368,0.02928,0.01952,0.03416,0.00976,-0.08784,-0.0732,-0.06832
0.00488,0.02196,-0.0488,-0.05124,-0.05368,0.02928,0.01952,0.03904,0.00976,-0.08784,-0.06832,-0.06832
0.00976,0.01952,-0.0488,-0.05368,-0.05856,0.03416,0.0244,0.04392,0.00976,-0.08784,-0.06832,-0.06832
0.00976,0.01952,-0.0488,-0.05368,-0.05856,0.03416,0.02928,0.0488,0.01464,-0.08784,-0.06832,-0.06344
0.01464,0.01952,-0.05368,-0.061,-0.06832,0.04148,0.02928,0.05368,0.01464,-0.08296,-0.06832,-0.06344
0.01464,0.01952,-0.05368,-0.061,-0.06832,0.04148,0.02928,0.05368,0.01464,-0.08296,-0.06344,-0.06344
0.00976,0.02196,-0.05368,-0.05856,-0.06344,0.0366,0.02928,0.05368,0.01464,-0.07808,-0.05856,-0.05368
0.00488,0.0244,-0.05368,-0.05612,-0.05856,0.03172,0.02928,0.05368,0.01952,-0.0732,-0.05368,-0.0488
0.00976,0.01952,-0.0488,-0.05368,-0.05856,0.03416,0.0244,0.05856,0.01464,-0.06832,-0.05368,-0.0488
0.00976,0.01952,-0.0488,-0.05368,-0.05856,0.03416,0.0244,0.05856,0.01464,-0.06344,-0.0488,-0.0488
0.01464,0.01708,-0.0488,-0.05612,-0.06344,0.03904,0.0244,0.06344,0.01464,-0.06344,-0.0488,-0.04392
0.01464,0.01952,-0.05368,-0.061,-0.06832,0.04148,0.01952,0.06344,0.01464,-0.05856,-0.0488,-0.04392
0.01952,0.01464,-0.0488,-0.05856,-0.06832,0.04392,0.0244,0.06832,0.0244,-0.05856,-0.0488,-0.03904
0.01952,0.01464,-0.0488,-0.05856,-0.06832,0.04392,0.0244,0.06832,0.02928,-0.05856,-0.04392,-0.03904
0.0244,0.00976,-0.04392,-0.05612,-0.06832,0.04636,0.0244,0.0732,0.02928,-0.05368,-0.03904,-0.03416
0.0244,0,-0.0244,-0.0366,-0.0488,0.0366,0.0244,0.08296,0.03416,-0.0488,-0.02928,-0.03416
0.02928,-0.00244,-0.0244,-0.03904,-0.05368,0.04148,0.0244,0.08296,0.03416,-0.0488,-0.01952,-0.02928
0.03416,-0.00732,-0.01952,-0.0366,-0.05368,0.04392,0.0244,0.08784,0.03904,-0.04392,-0.00976,-0.02928
0.03904,-0.00732,-0.0244,-0.04392,-0.06344,0.05124,0.01952,0.08784,0.03904,-0.03416,-0.00976,-0.01952
0.04392,-0.00976,-0.0244,-0.04636,-0.06832,0.05612,0.01952,0.09272,0.0488,-0.0244,-0.00976,-0.01952
0.04392,-0.01464,-0.01464,-0.0366,-0.05856,0.05124,0.01952,0.09272,0.05368,-0.01464,0,-0.01464
0.05368,-0.02196,-0.00976,-0.0366,-0.06344,0.05856,0.0244,0.0976,0.06832,0,0.00976,0
0.06344,-0.02928,-0.00488,-0.0366,-0.06832,0.06588,0.0244,0.10248,0.07808,0.00488,0.01952,0.00488
0.06832,-0.03172,-0.00488,-0.03904,-0.0732,0.07076,0.01952,0.10736,0.08296,0.01464,0.01952,0.01952
0.0732,-0.03904,0.00488,-0.03172,-0.06832,0.07076,0.00976,0.11224,0.09272,0.0244,0.02928,0.0244
0.08296,-0.04636,0.00976,-0.03172,-0.0732,0.07808,0.00976,0.11712,0.0976,0.02928,0.03904,0.03416
0.09272,-0.05856,0.0244,-0.02196,-0.06832,0.08052,0.00976,0.11712,0.10248,0.03904,0.0488,0.0488
0.10736,-0.0732,0.03904,-0.01464,-0.06832,0.08784,0.00488,0.122,0.11224,0.05368,0.05856,0.05856
0.11224,-0.08052,0.0488,-0.00732,-0.06344,0.08784,0,0.122,0.12688,0.06832,0.06832,0.07808
0.11712,-0.0854,0.05368,-0.00488,-0.06344,0.09028,0,0.122,0.13176,0.08296,0.07808,0.0976
0.12688,-0.0976,0.06832,0.00488,-0.05856,0.09272,-0.00488,0.12688,0.13176,0.10248,0.09272,0.10248
0.14152,-0.1098,0.07808,0.00732,-0.06344,0.10248,-0.01464,0.12688,0.13664,0.10736,0.10736,0.122
0.15128,-0.11956,0.08784,0.0122,-0.06344,0.10736,-0.01952,0.12688,0.14152,0.122,0.122,0.13176
0.16104,-0.12688,0.09272,0.0122,-0.06832,0.11468,-0.02928,0.12688,0.14152,0.13176,0.13664,0.14152
0.16592,-0.1342,0.10248,0.01952,-0.06344,0.11468,-0.02928,0.11712,0.14152,0.14152,0.1464,0.15128
0.16592,-0.13908,0.11224,0.02928,-0.05368,0.1098,-0.02928,0.11224,0.14152,0.15128,0.15616,0.16592
0.18056,-0.15128,0.122,0.03172,-0.05856,0.11956,-0.03416,0.10736,0.14152,0.16592,0.16592,0.17568
0.18056,-0.1586,0.13664,0.04636,-0.04392,0.11224,-0.0488,0.10736,0.14152,0.17568,0.16592,0.18544
0.18056,-0.16104,0.14152,0.05124,-0.03904,0.1098,-0.0488,0.10248,0.13664,0.17568,0.17568,0.18544
0.17568,-0.16104,0.1464,0.05856,-0.02928,0.10248,-0.0488,0.08784,0.13176,0.17568,0.17568,0.19032
0.17568,-0.16104,0.1464,0.05856,-0.02928,0.10248,-0.0488,0.07808,0.13176,0.17568,0.18056,0.19032
0.17568,-0.16104,0.1464,0.05856,-0.02928,0.10248,-0.0488,0.06832,0.12688,0.1708,0.18056,0.19032
0.1708,-0.15616,0.14152,0.05612,-0.02928,0.10004,-0.05368,0.05856,0.11224,0.16592,0.17568,0.19032
0.16592,-0.14884,0.13176,0.0488,-0.03416,0.10004,-0.05368,0.05368,0.10736,0.15616,0.1708,0.18056
0.15616,-0.13908,0.122,0.04392,-0.03416,0.09516,-0.0488,0.04392,0.10736,0.15616,0.16104,0.16592
0.14152,-0.12688,0.11224,0.04148,-0.02928,0.0854,-0.03416,0.03904,0.0976,0.13664,0.15128,0.15128
0.12688,-0.1098,0.09272,0.02928,-0.03416,0.08052,-0.02928,0.02928,0.08296,0.11712,0.13664,0.13664
0.122,-0.10248,0.08296,0.02196,-0.03904,0.08052,-0.02928,0.01952,0.0732,0.10248,0.11712,0.11712
0.10248,-0.09028,0.07808,0.02684,-0.0244,0.06344,-0.0244,0.01464,0.06832,0.09272,0.10736,0.10248
0.09272,-0.0732,0.05368,0.00732,-0.03904,0.06588,-0.01952,0.01464,0.05856,0.06832,0.09272,0.08296
0.07808,-0.05856,0.03904,0,-0.03904,0.05856,-0.01464,0.01464,0.0488,0.05368,0.06832,0.06832
0.06832,-0.04392,0.01952,-0.01464,-0.0488,0.05856,-0.00976,0.01952,0.03416,0.03904,0.0488,0.0488
0.05368,-0.03172,0.00976,-0.01708,-0.04392,0.0488,-0.00488,0.01952,0.03416,0.0244,0.03904,0.03416
0.04392,-0.0244,0.00488,-0.01708,-0.03904,0.04148,0.00488,0.01952,0.01952,0.00976,0.02928,0.0244
0.03416,-0.00976,-0.01464,-0.03172,-0.0488,0.04148,0.00976,0.01464,0.01952,0.00488,0.01464,0.01464
0.0244,-0.00244,-0.01952,-0.03172,-0.04392,0.03416,0.01464,0.01464,0.01464,0,0.00976,0.00488
0.01952,0.00488,-0.02928,-0.03904,-0.0488,0.03416,0.01952,0.01464,0.00976,-0.01464,0,-0.00976
0.01952,0.00732,-0.03416,-0.04392,-0.05368,0.0366,0.0244,0.01464,0.00976,-0.0244,-0.00488,-0.00976
0.01464,0.0122,-0.03904,-0.04636,-0.05368,0.03416,0.0244,0.01464,0.00976,-0.0244,-0.00976,-0.01464
0.00488,0.02196,-0.0488,-0.05124,-0.05368,0.02928,0.0244,0.01464,0.00488,-0.0244,-0.01952,-0.01952
0.00976,0.02196,-0.05368,-0.05856,-0.06344,0.0366,0.02928,0.01464,0,-0.02928,-0.01952,-0.02928
0.00976,0.02196,-0.05368,-0.05856,-0.06344,0.0366,0.03416,0.01464,0,-0.03416,-0.01952,-0.02928
0.00976,0.0244,-0.05856,-0.06344,-0.06832,0.03904,0.03416,0.01464,0,-0.04392,-0.01952,-0.02928
0.00488,0.02684,-0.05856,-0.061,-0.06344,0.03416,0.03416,0.01464,0,-0.0488,-0.01952,-0.02928
0.00488,0.02684,-0.05856,-0.061,-0.06344,0.03416,0.03904,0.01464,0,-0.0488,-0.0244,-0.02928
0.00488,0.02928,-0.06344,-0.06588,-0.06832,0.0366,0.03904,0.01464,-0.00488,-0.0488,-0.0244,-0.02928
0,0.03416,-0.06832,-0.06832,-0.06832,0.03416,0.03904,0.01464,-0.00488,-0.05368,-0.0244,-0.02928
0,0.0366,-0.0732,-0.0732,-0.0732,0.0366,0.03904,0.01464,0,-0.05368,-0.0244,-0.02928
0,0.0366,-0.0732,-0.0732,-0.0732,0.0366,0.03904,0.01952,0,-0.05368,-0.0244,-0.02928
0,0.03172,-0.06344,-0.06344,-0.06344,0.03172,0.03904,0.01952,0,-0.05368,-0.0244,-0.02928
0,0.0366,-0.0732,-0.0732,-0.0732,0.0366,0.03904,0.0244,0,-0.0488,-0.0244,-0.02928
0,0.0366,-0.0732,-0.0732,-0.0732,0.0366,0.03904,0.0244,0,-0.04392,-0.0244,-0.02928
-0.00488,0.03904,-0.0732,-0.07076,-0.06832,0.03172,0.03904,0.0244,0,-0.04392,-0.0244,-0.02928
-0.00488,0.03904,-0.0732,-0.07076,-0.06832,0.03172,0.03904,0.0244,0.00488,-0.04392,-0.0244,-0.02928
-0.00488,0.03904,-0.0732,-0.07076,-0.06832,0.03172,0.03904,0.02928,0.00488,-0.04392,-0.0244,-0.0244
-0.00488,0.03904,-0.0732,-0.07076,-0.06832,0.03172,0.03904,0.02928,0.00488,-0.03904,-0.0244,-0.0244
-0.00488,0.0366,-0.06832,-0.06588,-0.06344,0.02928,0.03904,0.02928,0.00488,-0.04392,-0.0244,-0.0244
-0.00488,0.0366,-0.06832,-0.06588,-0.06344,0.02928,0.03904,0.02928,0.00976,-0.0488,-0.0244,-0.0244
0,0.03416,-0.06832,-0.06832,-0.06832,0.03416,0.04392,0.03416,0.00976,-0.0488,-0.0244,-0.0244
0,0.0366,-0.0732,-0.0732,-0.0732,0.0366,0.0488,0.03416,0.00976,-0.0488,-0.0244,-0.0244
0,0.0366,-0.0732,-0.0732,-0.0732,0.0366,0.04392,0.03416,0.00976,-0.0488,-0.0244,-0.02928
0.00488,0.03416,-0.0732,-0.07564,-0.07808,0.04148,0.04392,0.03416,0.00976,-0.0488,-0.01952,-0.03416
0,0.0366,-0.0732,-0.0732,-0.0732,0.0366,0.04392,0.03416,0.00976,-0.0488,-0.01952,-0.02928
-0.00488,0.03904,-0.0732,-0.07076,-0.06832,0.03172,0.04392,0.03416,0.00976,-0.0488,-0.01952,-0.02928
0,0.0366,-0.0732,-0.0732,-0.0732,0.0366,0.04392,0.03416,0.00976,-0.04392,-0.0244,-0.02928
0,0.03904,-0.07808,-0.07808,-0.07808,0.03904,0.04392,0.03416,0.00976,-0.04392,-0.02928,-0.02928
0,0.03904,-0.07808,-0.07808,-0.07808,0.03904,0.04392,0.03416,0.00976,-0.0488,-0.02928,-0.03416
0,0.03904,-0.07808,-0.07808,-0.07808,0.03904,0.04392,0.03416,0.00976,-0.0488,-0.02928,-0.03416
0.00488,0.0366,-0.07808,-0.08052,-0.08296,0.04392,0.04392,0.03416,0.00976,-0.04392,-0.02928,-0.02928
0.00488,0.0366,-0.07808,-0.08052,-0.08296,0.04392,0.04392,0.03416,0.00976,-0.04392,-0.02928,-0.02928
0.00488,0.0366,-0.07808,-0.08052,-0.08296,0.04392,0.04392,0.03904,0.00976,-0.0488,-0.02928,-0.02928
0.00488,0.0366,-0.07808,-0.08052,-0.08296,0.04392,0.04392,0.04392,0.00976,-0.0488,-0.02928,-0.02928
0.00488,0.0366,-0.07808,-0.08052,-0.08296,0.04392,0.04392,0.04392,0.00488,-0.04392,-0.02928,-0.02928
0.00488,0.0366,-0.07808,-0.08052,-0.08296,0.04392,0.04392,0.03904,0.00488,-0.04392,-0.02928,-0.02928
0.00488,0.0366,-0.07808,-0.08052,-0.08296,0.04392,0.04392,0.03904,0.00488,-0.03904,-0.02928,-0.03416
0.00488,0.03904,-0.08296,-0.0854,-0.08784,0.04636,0.03904,0.03904,0.00488,-0.03416,-0.02928,-0.03416
0.00488,0.03904,-0.08296,-0.0854,-0.08784,0.04636,0.03904,0.03904,0.00488,-0.03416,-0.03416,-0.02928
0.00488,0.03904,-0.08296,-0.0854,-0.08784,0.04636,0.04392,0.03904,0.00488,-0.03416,-0.03416,-0.02928
0.00488,0.03904,-0.08296,-0.0854,-0.08784,0.04636,0.04392,0.03416,0.00976,-0.03416,-0.02928,-0.02928
0.00488,0.03904,-0.08296,-0.0854,-0.08784,0.04636,0.03904,0.03416,0.01464,-0.03904,-0.0244,-0.03416
0.00976,0.03416,-0.07808,-0.08296,-0.08784,0.0488,0.03904,0.03416,0.00976,-0.03904,-0.02928,-0.03416
0.01464,0.03172,-0.07808,-0.0854,-0.09272,0.05368,0.03904,0.03416,0.00976,-0.03904,-0.02928,-0.03904
0.01464,0.03172,-0.07808,-0.0854,-0.09272,0.05368,0.03904,0.03416,0.00976,-0.03904,-0.0244,-0.03904
0.01464,0.03172,-0.07808,-0.0854,-0.09272,0.05368,0.03904,0.03416,0.00976,-0.03904,-0.0244,-0.03904
0.01464,0.03416,-0.08296,-0.09028,-0.0976,0.05612,0.03904,0.02928,0.00488,-0.04392,-0.0244,-0.03904
0.01464,0.0366,-0.08784,-0.09516,-0.10248,0.05856,0.04392,0.02928,0,-0.04392,-0.0244,-0.03416
0.00976,0.03904,-0.08784,-0.09272,-0.0976,0.05368,0.04392,0.02928,0,-0.04392,-0.0244,-0.03416
0.00488,0.04148,-0.08784,-0.09028,-0.09272,0.0488,0.03904,0.02928,0,-0.0488,-0.02928,-0.04392
0.00488,0.04148,-0.08784,-0.09028,-0.09272,0.0488,0.03904,0.0244,0,-0.05368,-0.02928,-0.03904
0,0.04392,-0.08784,-0.08784,-0.08784,0.04392,0.03904,0.0244,-0.00488,-0.05368,-0.02928,-0.02928
0.00488,0.03904,-0.08296,-0.0854,-0.08784,0.04636,0.03904,0.02928,-0.00488,-0.05368,-0.02928,-0.02928
0.00976,0.0366,-0.08296,-0.08784,-0.09272,0.05124,0.03904,0.02928,-0.00488,-0.05856,-0.02928,-0.02928
0.00976,0.0366,-0.08296,-0.08784,-0.09272,0.05124,0.03416,0.0244,-0.00488,-0.05856,-0.03416,-0.03416
0.00976,0.0366,-0.08296,-0.08784,-0.09272,0.05124,0.02928,0.01952,-0.00488,-0.05856,-0.02928,-0.03904
0.00976,0.03416,-0.07808,-0.08296,-0.08784,0.0488,0.03416,0.01952,-0.00488,-0.05856,-0.02928,-0.03904
0.00976,0.03416,-0.07808,-0.08296,-0.08784,0.0488,0.03904,0.01952,-0.00976,-0.05856,-0.02928,-0.03904
0.00976,0.03416,-0.07808,-0.08296,-0.08784,0.0488,0.03904,0.01952,-0.00976,-0.05368,-0.02928,-0.03416
0.00976,0.03416,-0.07808,-0.08296,-0.08784,0.0488,0.03904,0.01952,-0.00976,-0.0488,-0.02928,-0.02928
0.00976,0.03416,-0.07808,-0.08296,-0.08784,0.0488,0.03904,0.01952,-0.00976,-0.0488,-0.02928,-0.02928
0.00976,0.03416,-0.07808,-0.08296,-0.08784,0.0488,0.03904,0.01952,-0.00488,-0.04392,-0.02928,-0.02928
0.00976,0.03416,-0.07808,-0.08296,-0.08784,0.0488,0.04392,0.01952,-0.00488,-0.04392,-0.02928,-0.02928
0.00976,0.03416,-0.07808,-0.08296,-0.08784,0.0488,0.04392,0.01952,-0.00488,-0.04392,-0.0244,-0.02928
0.00976,0.02928,-0.06832,-0.0732,-0.07808,0.04392,0.03904,0.01952,0,-0.03904,-0.0244,-0.0244
0.00976,0.0244,-0.05856,-0.06344,-0.06832,0.03904,0.03904,0.01952,0.00976,-0.03416,-0.01464,-0.01952
0.01464,0.01708,-0.0488,-0.05612,-0.06344,0.03904,0.03904,0.0244,0.01464,-0.0244,-0.00976,-0.01464
0.00976,0.01952,-0.0488,-0.05368,-0.05856,0.03416,0.03904,0.03416,0.01952,-0.0244,-0.00976,-0.00976
0.01464,0.01708,-0.0488,-0.05612,-0.06344,0.03904,0.04392,0.04392,0.02928,-0.0244,-0.00976,-0.00976
0.0244,0.00976,-0.04392,-0.05612,-0.06832,0.04636,0.04392,0.0488,0.03416,-0.01952,-0.00976,-0.00976
0.03416,0.00488,-0.04392,-0.061,-0.07808,0.05612,0.02928,0.0488,0.03416,-0.00976,0,0
0.0488,-0.0122,-0.0244,-0.0488,-0.0732,0.061,0.01952,0.02928,0.03416,-0.00976,0.00488,0.00488
0.0488,-0.0122,-0.0244,-0.0488,-0.0732,0.061,0.01464,0.01464,0.02928,-0.00976,0.00488,0.00488
0.04392,-0.00976,-0.0244,-0.04636,-0.06832,0.05612,0.01464,0,0.01952,-0.00976,0.00488,0.00488
0.03904,-0.00976,-0.01952,-0.03904,-0.05856,0.0488,0.01464,0,0.01952,-0.00976,0.00488,0.00976
0.03416,-0.00732,-0.01952,-0.0366,-0.05368,0.04392,0.00976,-0.00976,0.01464,-0.00976,0.00488,0.00976
0.03904,-0.00976,-0.01952,-0.03904,-0.05856,0.0488,0.00488,-0.00976,0.00976,-0.01464,0.00488,0.00976
0.0488,-0.01464,-0.01952,-0.04392,-0.06832,0.05856,0.00488,-0.00488,0.00976,-0.01952,0.00488,0.00976
0.0488,-0.0122,-0.0244,-0.0488,-0.0732,0.061,0,-0.00488,-0.00488,-0.0244,-0.00488,0.00488
0.04392,-0.00488,-0.03416,-0.05612,-0.07808,0.061,0,-0.00976,-0.01952,-0.03416,-0.00976,-0.00488
0.03416,0.00244,-0.03904,-0.05612,-0.0732,0.05368,0,-0.00976,-0.0244,-0.03904,-0.01464,-0.00976
0.02928,0.00976,-0.0488,-0.06344,-0.07808,0.05368,0.00488,-0.00488,-0.0244,-0.03904,-0.01464,-0.01464
0.0244,0.01952,-0.06344,-0.07564,-0.08784,0.05612,0.01464,0.00488,-0.01952,-0.03904,-0.0244,-0.01952
0.00488,0.0366,-0.07808,-0.08052,-0.08296,0.04392,0.0244,0.00976,-0.01952,-0.04392,-0.0244,-0.0244
0.00488,0.03904,-0.08296,-0.0854,-0.08784,0.04636,0.0244,0.00976,-0.01952,-0.05368,-0.03416,-0.02928
0.00488,0.03904,-0.08296,-0.0854,-0.08784,0.04636,0.02928,0.00976,-0.01952,-0.06344,-0.03904,-0.03416
0.00488,0.04392,-0.09272,-0.09516,-0.0976,0.05124,0.02928,0.01464,-0.0244,-0.06344,-0.04392,-0.03904
0,0.05124,-0.10248,-0.10248,-0.10248,0.05124,0.02928,0.01464,-0.02928,-0.0732,-0.0488,-0.04392
-0.00488,0.05368,-0.10248,-0.10004,-0.0976,0.04636,0.03416,0.01464,-0.02928,-0.0732,-0.05368,-0.04392
-0.00488,0.05124,-0.0976,-0.09516,-0.09272,0.04392,0.03416,0.01464,-0.02928,-0.0732,-0.05368,-0.04392
-0.00976,0.05368,-0.0976,-0.09272,-0.08784,0.03904,0.03416,0.01464,-0.02928,-0.0732,-0.0488,-0.04392
-0.01464,0.05612,-0.0976,-0.09028,-0.08296,0.03416,0.03416,0.01464,-0.02928,-0.0732,-0.04392,-0.04392
-0.01464,0.05856,-0.10248,-0.09516,-0.08784,0.0366,0.02928,0.01464,-0.02928,-0.0732,-0.04392,-0.04392
-0.01464,0.05856,-0.10248,-0.09516,-0.08784,0.0366,0.02928,0.01464,-0.02928,-0.07808,-0.0488,-0.0488
-0.01464,0.05856,-0.10248,-0.09516,-0.08784,0.0366,0.02928,0.01464,-0.03416,-0.07808,-0.05368,-0.0488
-0.01464,0.05856,-0.10248,-0.09516,-0.08784,0.0366,0.02928,0.01464,-0.03416,-0.0732,-0.05368,-0.04392
-0.01464,0.05856,-0.10248,-0.09516,-0.08784,0.0366,0.02928,0.01952,-0.03416,-0.0732,-0.05368,-0.04392
-0.01464,0.05856,-0.10248,-0.09516,-0.08784,0.0366,0.02928,0.01952,-0.03416,-0.0732,-0.05368,-0.04392
-0.01464,0.05856,-0.10248,-0.09516,-0.08784,0.0366,0.03416,0.01952,-0.03416,-0.06832,-0.05368,-0.04392
-0.01464,0.061,-0.10736,-0.10004,-0.09272,0.03904,0.03904,0.01952,-0.03416,-0.06832,-0.05368,-0.04392
-0.01464,0.06344,-0.11224,-0.10492,-0.0976,0.04148,0.03904,0.01952,-0.02928,-0.07808,-0.05856,-0.0488
-0.01464,0.06344,-0.11224,-0.10492,-0.0976,0.04148,0.0488,0.04392,-0.01952,-0.07808,-0.05856,-0.05856
-0.01464,0.061,-0.10736,-0.10004,-0.09272,0.03904,0.06344,0.08296,0.02928,-0.06344,-0.05856,-0.06832
-0.00976,0.04636,-0.08296,-0.07808,-0.0732,0.03172,0.08784,0.13664,0.10736,-0.01464,-0.0244,-0.04392
0.0244,0.0244,-0.0732,-0.0854,-0.0976,0.061,0.10248,0.22936,0.1708,0.05368,0.0244,0
0.13176,-0.0244,-0.08296,-0.14884,-0.21472,0.17324,0.10248,0.35136,0.23912,0.122,0.0732,0.0732
0.33184,-0.15616,-0.01952,-0.18544,-0.35136,0.3416,0.0488,0.3904,0.36112,0.24888,0.18544,0.22448
0.55144,-0.32208,0.09272,-0.183,-0.45872,0.50508,-0.0488,0.24888,0.3904,0.37088,0.32696,0.40504
0.72712,-0.488,0.24888,-0.11468,-0.47824,0.60268,-0.20496,-0.07808,0.23912,0.44896,0.46848,0.60024
0.80032,-0.61732,0.43432,0.03416,-0.366,0.58316,-0.32208,-0.40016,0.05368,0.50752,0.58072,0.73688
0.81008,-0.70028,0.59048,0.18544,-0.2196,0.51484,-0.3904,-0.63928,-0.11224,0.5368,0.64904,0.81008
0.59536,-0.60268,0.61,0.31232,0.01464,0.29036,-0.40016,-0.79544,-0.32696,0.42456,0.58072,0.73688
0.24888,-0.366,0.48312,0.35868,0.23424,0.00732,-0.33184,-0.88816,-0.47336,0.2196,0.40504,0.5124
-0.06832,-0.16104,0.3904,0.42456,0.45872,-0.26352,-0.2928,-0.99064,-0.67832,0.04392,0.26352,0.32696
-0.24888,-0.02928,0.30744,0.43188,0.55632,-0.4026,-0.24888,-0.976,-0.70272,-0.0732,0.1464,0.1708
-0.28792,0.02196,0.244,0.38796,0.53192,-0.40992,-0.21472,-0.85888,-0.61488,-0.0976,0.09272,0.09272
-0.21472,0.02928,0.15616,0.26352,0.37088,-0.2928,-0.16104,-0.62464,-0.4636,-0.10248,0.0488,0.05368
-0.1464,0.03416,0.07808,0.15128,0.22448,-0.18544,-0.10736,-0.4148,-0.3416,-0.09272,0.0244,0.01952
-0.122,0.05368,0.01464,0.07564,0.13664,-0.12932,-0.0732,-0.29768,-0.27816,-0.11224,-0.0244,-0.01952
-0.09272,0.06588,-0.03904,0.00732,0.05368,-0.0732,-0.03904,-0.1952,-0.2196,-0.122,-0.0488,-0.0488
-0.07808,0.0732,-0.06832,-0.02928,0.00976,-0.04392,-0.00488,-0.10736,-0.16104,-0.11224,-0.0488,-0.0488
-0.05856,0.06832,-0.07808,-0.0488,-0.01952,-0.01952,0.01952,-0.05856,-0.11224,-0.0976,-0.0488,-0.0488
-0.04392,0.06588,-0.08784,-0.06588,-0.04392,0,0.02928,-0.01464,-0.07808,-0.08296,-0.0488,-0.0488
-0.03416,0.06344,-0.09272,-0.07564,-0.05856,0.0122,0.03904,0.00976,-0.05368,-0.07808,-0.04392,-0.0488
-0.03416,0.06588,-0.0976,-0.08052,-0.06344,0.01464,0.0488,0.0244,-0.03904,-0.07808,-0.04392,-0.05368
-0.03904,0.06832,-0.0976,-0.07808,-0.05856,0.00976,0.0488,0.03416,-0.03416,-0.0732,-0.04392,-0.05368
-0.03416,0.06832,-0.10248,-0.0854,-0.06832,0.01708,0.05368,0.04392,-0.0244,-0.0732,-0.05368,-0.05368
-0.02928,0.06588,-0.10248,-0.08784,-0.0732,0.02196,0.05856,0.04392,-0.02928,-0.0732,-0.05856,-0.05368
-0.0244,0.06344,-0.10248,-0.09028,-0.07808,0.02684,0.05856,0.0488,-0.0244,-0.0732,-0.05368,-0.05368
-0.0244,0.06344,-0.10248,-0.09028,-0.07808,0.02684,0.05856,0.05368,-0.0244,-0.0732,-0.05368,-0.05368
-0.01952,0.061,-0.10248,-0.09272,-0.08296,0.03172,0.05856,0.05368,-0.01952,-0.06832,-0.05368,-0.05368
-0.01464,0.05856,-0.10248,-0.09516,-0.08784,0.0366,0.05856,0.05856,-0.00976,-0.06832,-0.05368,-0.0488
-0.01464,0.05612,-0.0976,-0.09028,-0.08296,0.03416,0.05856,0.06344,-0.00976,-0.06832,-0.05368,-0.0488
-0.01464,0.05612,-0.0976,-0.09028,-0.08296,0.03416,0.05856,0.06832,-0.00976,-0.06832,-0.0488,-0.0488
-0.00976,0.05368,-0.0976,-0.09272,-0.08784,0.03904,0.05368,0.06832,-0.00976,-0.06832,-0.0488,-0.0488
-0.00976,0.05368,-0.0976,-0.09272,-0.08784,0.03904,0.0488,0.06832,-0.00488,-0.06832,-0.0488,-0.04392
-0.00488,0.05124,-0.0976,-0.09516,-0.09272,0.04392,0.0488,0.0732,-0.00488,-0.06344,-0.0488,-0.04392
-0.00488,0.0488,-0.09272,-0.09028,-0.08784,0.04148,0.0488,0.0732,-0.00488,-0.06344,-0.04392,-0.04392
-0.00488,0.04636,-0.08784,-0.0854,-0.08296,0.03904,0.0488,0.06832,-0.00976,-0.06344,-0.04392,-0.03904
-0.00488,0.04392,-0.08296,-0.08052,-0.07808,0.0366,0.0488,0.06344,-0.00976,-0.06344,-0.04392,-0.03904
-0.00488,0.04148,-0.07808,-0.07564,-0.0732,0.03416,0.04392,0.06832,-0.00976,-0.05856,-0.04392,-0.03904
-0.00976,0.04392,-0.07808,-0.0732,-0.06832,0.02928,0.04392,0.06832,-0.00488,-0.05368,-0.03904,-0.03904
-0.00488,0.03904,-0.0732,-0.07076,-0.06832,0.03172,0.04392,0.0732,-0.00488,-0.05856,-0.03904,-0.03904
-0.00488,0.03904,-0.0732,-0.07076,-0.06832,0.03172,0.03904,0.0732,-0.00488,-0.05856,-0.03904,-0.04392
0,0.03416,-0.06832,-0.06832,-0.06832,0.03416,0.04392,0.07808,0,-0.05856,-0.03904,-0.03904
0,0.03416,-0.06832,-0.06832,-0.06832,0.03416,0.04392,0.07808,0,-0.05856,-0.03416,-0.03904
0.00488,0.03172,-0.06832,-0.07076,-0.0732,0.03904,0.04392,0.07808,0.00488,-0.05368,-0.03416,-0.03416
0.00488,0.0244,-0.05368,-0.05612,-0.05856,0.03172,0.04392,0.08296,0.01464,-0.0488,-0.02928,-0.03416
0.00976,0.02196,-0.05368,-0.05856,-0.06344,0.0366,0.03904,0.08296,0.01464,-0.0488,-0.0244,-0.02928
0.01464,0.01708,-0.0488,-0.05612,-0.06344,0.03904,0.03416,0.08784,0.01952,-0.04392,-0.01952,-0.02928
0.01952,0.01464,-0.0488,-0.05856,-0.06832,0.04392,0.02928,0.08784,0.01952,-0.03904,-0.01952,-0.01952
0.0244,0.00976,-0.04392,-0.05612,-0.06832,0.04636,0.02928,0.09272,0.02928,-0.03416,-0.01952,-0.01952
0.02928,0.00244,-0.03416,-0.0488,-0.06344,0.04636,0.0244,0.09272,0.02928,-0.0244,-0.00488,-0.01464
0.04392,-0.00732,-0.02928,-0.05124,-0.0732,0.05856,0.0244,0.0976,0.03904,-0.00976,0.00976,0
0.05368,-0.01464,-0.0244,-0.05124,-0.07808,0.06588,0.0244,0.10248,0.0488,-0.00488,0.01952,0.00488
0.05856,-0.01708,-0.0244,-0.05368,-0.08296,0.07076,0.01952,0.10736,0.05368,0.00488,0.01952,0.01952
0.05856,-0.01952,-0.01952,-0.0488,-0.07808,0.06832,0.00976,0.11712,0.06344,0.01464,0.02928,0.0244
0.06344,-0.02196,-0.01952,-0.05124,-0.08296,0.0732,0.00976,0.12688,0.06832,0.01952,0.03904,0.03416
0.0732,-0.03416,-0.00488,-0.04148,-0.07808,0.07564,0.00976,0.12688,0.0732,0.02928,0.0488,0.0488
0.08784,-0.0488,0.00976,-0.03416,-0.07808,0.08296,0.00488,0.13176,0.08296,0.04392,0.05856,0.05856
0.0976,-0.061,0.0244,-0.0244,-0.0732,0.0854,-0.00488,0.13176,0.09272,0.05856,0.06832,0.0732
0.10736,-0.07076,0.03416,-0.01952,-0.0732,0.09028,-0.00976,0.13176,0.09272,0.0732,0.07808,0.08784
0.11712,-0.08296,0.0488,-0.00976,-0.06832,0.09272,-0.00976,0.13664,0.09272,0.09272,0.09272,0.09272
0.13176,-0.09516,0.05856,-0.00732,-0.0732,0.10248,-0.01464,0.13664,0.0976,0.0976,0.10736,0.11224
0.14152,-0.10492,0.06832,-0.00244,-0.0732,0.10736,-0.01952,0.12688,0.10248,0.10736,0.11712,0.122
0.15128,-0.11224,0.0732,-0.00244,-0.07808,0.11468,-0.02928,0.11712,0.10248,0.11224,0.12688,0.13176
0.15128,-0.11712,0.08296,0.00732,-0.06832,0.1098,-0.03416,0.10736,0.10248,0.122,0.13664,0.14152
0.1464,-0.11956,0.09272,0.01952,-0.05368,0.10004,-0.03904,0.10248,0.10248,0.13176,0.1464,0.15616
0.16104,-0.13176,0.10248,0.02196,-0.05856,0.1098,-0.04392,0.0976,0.0976,0.14152,0.15616,0.16592
0.16104,-0.13908,0.11712,0.0366,-0.04392,0.10248,-0.05856,0.0976,0.09272,0.1464,0.15616,0.17568
0.16104,-0.13908,0.11712,0.0366,-0.04392,0.10248,-0.05856,0.09272,0.09272,0.1464,0.16592,0.17568
0.15616,-0.13664,0.11712,0.03904,-0.03904,0.0976,-0.05856,0.07808,0.09272,0.1464,0.16592,0.18056
0.15616,-0.13664,0.11712,0.03904,-0.03904,0.0976,-0.05856,0.06832,0.09272,0.15128,0.1708,0.18056
0.15616,-0.13664,0.11712,0.03904,-0.03904,0.0976,-0.05856,0.05856,0.08784,0.15128,0.1708,0.18056
0.15128,-0.1342,0.11712,0.04148,-0.03416,0.09272,-0.06344,0.0488,0.07808,0.1464,0.16592,0.18056
0.1464,-0.12932,0.11224,0.03904,-0.03416,0.09028,-0.06344,0.04392,0.07808,0.13664,0.16104,0.1708
0.13664,-0.11956,0.10248,0.03416,-0.03416,0.0854,-0.05856,0.03416,0.0732,0.13664,0.15128,0.16104
0.122,-0.10736,0.09272,0.03172,-0.02928,0.07564,-0.04392,0.02928,0.05856,0.11712,0.14152,0.15128
0.10248,-0.08784,0.0732,0.02196,-0.02928,0.06588,-0.03904,0.02928,0.0488,0.10248,0.12688,0.13664
0.09272,-0.07808,0.06344,0.01708,-0.02928,0.061,-0.03904,0.02928,0.04392,0.09272,0.10736,0.11712
0.0732,-0.06588,0.05856,0.02196,-0.01464,0.04392,-0.02928,0.01952,0.03904,0.07808,0.09272,0.10248
0.06344,-0.0488,0.03416,0.00244,-0.02928,0.04636,-0.01952,0.01464,0.02928,0.0488,0.0732,0.08296
0.0488,-0.0366,0.0244,0,-0.0244,0.0366,-0.01464,0.00976,0.01952,0.03416,0.05368,0.06832
0.03904,-0.0244,0.00976,-0.00976,-0.02928,0.03416,-0.00976,0.00976,0.00488,0.01952,0.03904,0.0488
0.0244,-0.0122,0,-0.0122,-0.0244,0.0244,-0.00488,0.00976,0.00488,0.00488,0.02928,0.02928
0.01464,-0.00488,-0.00488,-0.0122,-0.01952,0.01708,0.00488,0.00976,-0.00976,-0.00976,0.01952,0.01464
0.00488,0.00976,-0.0244,-0.02684,-0.02928,0.01708,0.00976,0.00488,-0.00976,-0.01464,0.00488,0.00488
-0.00488,0.01708,-0.02928,-0.02684,-0.0244,0.00976,0.01464,0.00488,-0.01464,-0.01952,0,-0.00488
-0.00976,0.0244,-0.03904,-0.03416,-0.02928,0.00976,0.01464,0.00488,-0.01952,-0.03416,-0.00976,-0.01952
-0.00976,0.02684,-0.04392,-0.03904,-0.03416,0.0122,0.01464,0.00488,-0.01952,-0.04392,-0.01464,-0.01952
-0.01464,0.03172,-0.0488,-0.04148,-0.03416,0.00976,0.01464,0.00488,-0.01952,-0.0488,-0.01952,-0.0244
-0.0244,0.04148,-0.05856,-0.04636,-0.03416,0.00488,0.01464,0.00488,-0.0244,-0.05368,-0.02928,-0.02928
-0.0244,0.04148,-0.05856,-0.04636,-0.03416,0.00488,0.01952,0.00488,-0.02928,-0.05856,-0.03416,-0.04392
-0.02928,0.04148,-0.05368,-0.03904,-0.0244,-0.00244,0.0244,0.00488,-0.02928,-0.06344,-0.03904,-0.0488
-0.02928,0.04392,-0.05856,-0.04392,-0.02928,0,0.0244,0.00488,-0.02928,-0.06832,-0.03904,-0.0488
-0.03416,0.04636,-0.05856,-0.04148,-0.0244,-0.00488,0.0244,0.00488,-0.02928,-0.06832,-0.03904,-0.0488
-0.03416,0.04392,-0.05368,-0.0366,-0.01952,-0.00732,0.02928,0.00488,-0.02928,-0.06344,-0.04392,-0.05368
-0.03416,0.04392,-0.05368,-0.0366,-0.01952,-0.00732,0.02928,0.00488,-0.03416,-0.05856,-0.04392,-0.05856
-0.03904,0.0488,-0.05856,-0.03904,-0.01952,-0.00976,0.02928,0.00488,-0.03416,-0.06344,-0.04392,-0.05856
-0.03904,0.05124,-0.06344,-0.04392,-0.0244,-0.00732,0.02928,0.00488,-0.02928,-0.06344,-0.04392,-0.05856
-0.03904,0.05612,-0.0732,-0.05368,-0.03416,-0.00244,0.02928,0.00488,-0.02928,-0.06832,-0.04392,-0.05856
-0.03904,0.05612,-0.0732,-0.05368,-0.03416,-0.00244,0.02928,0,-0.02928,-0.0732,-0.04392,-0.05856
-0.03904,0.05612,-0.0732,-0.05368,-0.03416,-0.00244,0.02928,0.00488,-0.02928,-0.0732,-0.04392,-0.05856
-0.03904,0.05124,-0.06344,-0.04392,-0.0244,-0.00732,0.02928,0.00488,-0.02928,-0.0732,-0.04392,-0.05856
-0.05368,0.05856,-0.06344,-0.0366,-0.00976,-0.02196,0.02928,0.00976,-0.02928,-0.0732,-0.04392,-0.05856
-0.06344,0.06344,-0.06344,-0.03172,0,-0.03172,0.02928,0.01464,-0.0244,-0.0732,-0.04392,-0.05856
-0.05368,0.05856,-0.06344,-0.0366,-0.00976,-0.02196,0.02928,0.01952,-0.0244,-0.0732,-0.04392,-0.05368
-0.04392,0.05368,-0.06344,-0.04148,-0.01952,-0.0122,0.02928,0.01952,-0.0244,-0.06832,-0.04392,-0.05368
-0.04392,0.05124,-0.05856,-0.0366,-0.01464,-0.01464,0.02928,0.01464,-0.0244,-0.06832,-0.04392,-0.05368
-0.04392,0.05124,-0.05856,-0.0366,-0.01464,-0.01464,0.02928,0.00976,-0.01952,-0.06832,-0.04392,-0.05368
-0.04392,0.05124,-0.05856,-0.0366,-0.01464,-0.01464,0.02928,0.01464,-0.01952,-0.06832,-0.04392,-0.05368
-0.0488,0.05612,-0.06344,-0.03904,-0.01464,-0.01708,0.02928,0.01464,-0.01952,-0.06832,-0.04392,-0.05368
-0.0488,0.05612,-0.06344,-0.03904,-0.01464,-0.01708,0.0244,0.01464,-0.01952,-0.06832,-0.04392,-0.05368
-0.04392,0.05368,-0.06344,-0.04148,-0.01952,-0.0122,0.0244,0.01464,-0.01952,-0.06832,-0.03904,-0.05368
-0.04392,0.05368,-0.06344,-0.04148,-0.01952,-0.0122,0.0244,0.01464,-0.01952,-0.06832,-0.03904,-0.0488
-0.04392,0.05368,-0.06344,-0.04148,-0.01952,-0.0122,0.0244,0.01464,-0.01952,-0.06832,-0.03904,-0.0488
-0.03904,0.0488,-0.05856,-0.03904,-0.01952,-0.00976,0.0244,0.01952,-0.01952,-0.06344,-0.03904,-0.0488
-0.03904,0.0488,-0.05856,-0.03904,-0.01952,-0.00976,0.0244,0.0244,-0.01952,-0.06344,-0.03904,-0.0488
-0.03904,0.0488,-0.05856,-0.03904,-0.01952,-0.00976,0.0244,0.0244,-0.01952,-0.06832,-0.03904,-0.05368
-0.03904,0.0488,-0.05856,-0.03904,-0.01952,-0.00976,0.0244,0.0244,-0.01952,-0.06832,-0.03904,-0.05368
-0.03416,0.04636,-0.05856,-0.04148,-0.0244,-0.00488,0.0244,0.0244,-0.01952,-0.06344,-0.03904,-0.0488
-0.03416,0.04636,-0.05856,-0.04148,-0.0244,-0.00488,0.0244,0.0244,-0.01952,-0.06344,-0.03904,-0.0488
-0.03416,0.04636,-0.05856,-0.04148,-0.0244,-0.00488,0.0244,0.0244,-0.01952,-0.06832,-0.03904,-0.0488
-0.03416,0.04636,-0.05856,-0.04148,-0.0244,-0.00488,0.0244,0.0244,-0.01952,-0.06832,-0.03904,-0.0488
-0.02928,0.04148,-0.05368,-0.03904,-0.0244,-0.00244,0.0244,0.0244,-0.0244,-0.06344,-0.03904,-0.0488
-0.0244,0.0366,-0.0488,-0.0366,-0.0244,0,0.0244,0.01952,-0.0244,-0.06344,-0.03904,-0.0488
-0.0244,0.0366,-0.0488,-0.0366,-0.0244,0,0.0244,0.01952,-0.0244,-0.06344,-0.03904,-0.05856
-0.0244,0.03904,-0.05368,-0.04148,-0.02928,0.00244,0.01952,0.01952,-0.0244,-0.06344,-0.03904,-0.06344
-0.03416,0.04636,-0.05856,-0.04148,-0.0244,-0.00488,0.01952,0.01952,-0.0244,-0.06344,-0.04392,-0.05856
-0.04392,0.05368,-0.06344,-0.04148,-0.01952,-0.0122,0.0244,0.01952,-0.0244,-0.06344,-0.04392,-0.05856
-0.03416,0.0488,-0.06344,-0.04636,-0.02928,-0.00244,0.0244,0.01464,-0.0244,-0.06344,-0.04392,-0.05856
-0.0244,0.04392,-0.06344,-0.05124,-0.03904,0.00732,0.01952,0.01464,-0.0244,-0.06832,-0.04392,-0.06344
-0.0244,0.04392,-0.06344,-0.05124,-0.03904,0.00732,0.01952,0.01464,-0.02928,-0.06832,-0.0488,-0.06344
-0.0244,0.04636,-0.06832,-0.05612,-0.04392,0.00976,0.01952,0.01464,-0.02928,-0.06832,-0.0488,-0.06832
-0.0244,0.04636,-0.06832,-0.05612,-0.04392,0.00976,0.01952,0.00976,-0.03416,-0.06832,-0.04392,-0.06832
-0.0244,0.04636,-0.06832,-0.05612,-0.04392,0.00976,0.01952,0.00488,-0.03904,-0.06832,-0.04392,-0.06832
-0.02928,0.0488,-0.06832,-0.05368,-0.03904,0.00488,0.01952,0,-0.03904,-0.0732,-0.04392,-0.06832
-0.03416,0.05124,-0.06832,-0.05124,-0.03416,0,0.0244,0,-0.03904,-0.0732,-0.04392,-0.06344
-0.03416,0.05124,-0.06832,-0.05124,-0.03416,0,0.0244,0,-0.03904,-0.0732,-0.04392,-0.05856
-0.03416,0.05124,-0.06832,-0.05124,-0.03416,0,0.01952,0,-0.03904,-0.07808,-0.0488,-0.06344
-0.03416,0.05124,-0.06832,-0.05124,-0.03416,0,0.01952,-0.00488,-0.03904,-0.07808,-0.0488,-0.06344
-0.03904,0.05368,-0.06832,-0.0488,-0.02928,-0.00488,0.01952,-0.00488,-0.04392,-0.0732,-0.0488,-0.05856
-0.03904,0.05368,-0.06832,-0.0488,-0.02928,-0.00488,0.01952,0,-0.04392,-0.0732,-0.05368,-0.06344
-0.03904,0.05612,-0.0732,-0.05368,-0.03416,-0.00244,0.01952,0,-0.04392,-0.07808,-0.05856,-0.06832
-0.03904,0.05368,-0.06832,-0.0488,-0.02928,-0.00488,0.01952,0,-0.03904,-0.07808,-0.05856,-0.06832
-0.03904,0.05368,-0.06832,-0.0488,-0.02928,-0.00488,0.01952,0,-0.03904,-0.07808,-0.05856,-0.06832
-0.03904,0.05368,-0.06832,-0.0488,-0.02928,-0.00488,0.01952,0,-0.03904,-0.07808,-0.05368,-0.06832
-0.03904,0.05368,-0.06832,-0.0488,-0.02928,-0.00488,0.01952,0,-0.03904,-0.07808,-0.0488,-0.06832
-0.03904,0.05368,-0.06832,-0.0488,-0.02928,-0.00488,0.01952,0,-0.03904,-0.07808,-0.0488,-0.06344
-0.03904,0.05124,-0.06344,-0.04392,-0.0244,-0.00732,0.01952,0,-0.03416,-0.0732,-0.0488,-0.05856
-0.03904,0.05124,-0.06344,-0.04392,-0.0244,-0.00732,0.0244,0,-0.03416,-0.0732,-0.0488,-0.05856
-0.03904,0.0488,-0.05856,-0.03904,-0.01952,-0.00976,0.0244,0,-0.03416,-0.0732,-0.04392,-0.05856
-0.03904,0.04392,-0.0488,-0.02928,-0.00976,-0.01464,0.01952,0,-0.03416,-0.06832,-0.04392,-0.05856
-0.03904,0.03904,-0.03904,-0.01952,0,-0.01952,0.01952,0,-0.02928,-0.06344,-0.03416,-0.05856
-0.02928,0.02928,-0.02928,-0.01464,0,-0.01464,0.01952,0,-0.0244,-0.05368,-0.02928,-0.05368
-0.02928,0.02928,-0.02928,-0.01464,0,-0.01464,0.01952,0.00488,-0.01952,-0.05368,-0.02928,-0.0488
-0.0244,0.02684,-0.02928,-0.01708,-0.00488,-0.00976,0.02928,0.01464,-0.00488,-0.05368,-0.02928,-0.0488
-0.01464,0.01952,-0.0244,-0.01708,-0.00976,-0.00244,0.03416,0.01952,0.00488,-0.0488,-0.02928,-0.0488
-0.00976,0.01708,-0.0244,-0.01952,-0.01464,0.00244,0.01952,0.01952,0.00488,-0.03904,-0.01952,-0.03904
0,0.00244,-0.00488,-0.00488,-0.00488,0.00244,0.00976,0,0.00488,-0.03904,-0.01464,-0.03416
0,0.00244,-0.00488,-0.00488,-0.00488,0.00244,0.00488,-0.01464,0,-0.03904,-0.01464,-0.03416
-0.00488,0.00488,-0.00488,-0.00244,0,-0.00244,0.00488,-0.02928,-0.00976,-0.03904,-0.01464,-0.03416
-0.00488,0.00488,-0.00488,-0.00244,0,-0.00244,0.00488,-0.02928,-0.00976,-0.03904,-0.01464,-0.02928
-0.00488,0.00732,-0.00976,-0.00732,-0.00488,0,0,-0.03904,-0.01464,-0.03904,-0.01464,-0.02928
0,0.00488,-0.00976,-0.00976,-0.00976,0.00488,-0.00976,-0.03904,-0.01952,-0.04392,-0.01464,-0.02928
0.00976,0,-0.00976,-0.01464,-0.01952,0.01464,-0.01464,-0.03416,-0.01952,-0.0488,-0.01464,-0.02928
0.00976,0.00244,-0.01464,-0.01952,-0.0244,0.01708,-0.01952,-0.03416,-0.03416,-0.05368,-0.0244,-0.03416
0.00488,0.00976,-0.0244,-0.02684,-0.02928,0.01708,-0.01952,-0.03904,-0.0488,-0.06344,-0.02928,-0.04392
-0.00488,0.01708,-0.02928,-0.02684,-0.0244,0.00976,-0.01952,-0.03904,-0.05856,-0.06832,-0.03416,-0.0488
-0.00976,0.0244,-0.03904,-0.03416,-0.02928,0.00976,-0.01464,-0.03416,-0.06344,-0.06832,-0.03416,-0.05368
-0.01464,0.03172,-0.0488,-0.04148,-0.03416,0.00976,-0.00488,-0.0244,-0.05856,-0.06832,-0.04392,-0.05856
-0.03416,0.04636,-0.05856,-0.04148,-0.0244,-0.00488,0.00488,-0.01952,-0.05856,-0.0732,-0.04392,-0.06344
-0.03416,0.0488,-0.06344,-0.04636,-0.02928,-0.00244,0.00488,-0.01952,-0.05856,-0.07808,-0.05368,-0.06832
-0.03416,0.0488,-0.06344,-0.04636,-0.02928,-0.00244,0.00976,-0.01952,-0.05856,-0.08296,-0.05856,-0.0732
-0.03904,0.05612,-0.0732,-0.05368,-0.03416,-0.00244,0.00976,-0.01464,-0.06344,-0.08296,-0.05856,-0.07808
-0.0488,0.06588,-0.08296,-0.05856,-0.03416,-0.00732,0.00976,-0.01464,-0.06832,-0.09272,-0.05856,-0.08296
-0.05368,0.06832,-0.08296,-0.05612,-0.02928,-0.0122,0.01464,-0.01464,-0.06832,-0.0976,-0.06832,-0.08784
-0.05368,0.06588,-0.07808,-0.05124,-0.0244,-0.01464,0.01464,-0.01464,-0.06832,-0.10248,-0.0732,-0.09272
-0.05368,0.06588,-0.07808,-0.05124,-0.0244,-0.01464,0.01464,-0.01464,-0.06832,-0.10248,-0.0732,-0.09272
-0.05368,0.06588,-0.07808,-0.05124,-0.0244,-0.01464,0.01464,-0.01464,-0.06832,-0.10248,-0.0732,-0.09272
-0.05368,0.06832,-0.08296,-0.05612,-0.02928,-0.0122,0.01464,-0.01952,-0.06832,-0.10248,-0.0732,-0.09272
-0.05368,0.06832,-0.08296,-0.05612,-0.02928,-0.0122,0.01952,-0.0244,-0.06832,-0.10736,-0.07808,-0.0976
-0.05856,0.0732,-0.08784,-0.05856,-0.02928,-0.01464,0.01952,-0.0244,-0.06832,-0.10736,-0.07808,-0.09272
-0.06344,0.07808,-0.09272,-0.061,-0.02928,-0.01708,0.01952,-0.0244,-0.06344,-0.10248,-0.0732,-0.08296
-0.06344,0.07808,-0.09272,-0.061,-0.02928,-0.01708,0.01952,-0.01952,-0.06344,-0.10248,-0.0732,-0.08296
-0.06344,0.07808,-0.09272,-0.061,-0.02928,-0.01708,0.01952,-0.01952,-0.06344,-0.10248,-0.0732,-0.08296
-0.05856,0.07564,-0.09272,-0.06344,-0.03416,-0.0122,0.01952,-0.01952,-0.06832,-0.0976,-0.0732,-0.08296
-0.05368,0.07564,-0.0976,-0.07076,-0.04392,-0.00488,0.01952,-0.01952,-0.0732,-0.0976,-0.0732,-0.08296
-0.05368,0.07808,-0.10248,-0.07564,-0.0488,-0.00244,0.01952,-0.0244,-0.07808,-0.10736,-0.07808,-0.08784
-0.05368,0.07808,-0.10248,-0.07564,-0.0488,-0.00244,0.02928,-0.00488,-0.07808,-0.10736,-0.07808,-0.0976
-0.06344,0.08052,-0.0976,-0.06588,-0.03416,-0.01464,0.0488,0.03416,-0.03416,-0.10248,-0.08296,-0.10248
-0.06832,0.07076,-0.0732,-0.03904,-0.00488,-0.03172,0.07808,0.08784,0.03904,-0.06344,-0.05368,-0.0732
-0.04392,0.05124,-0.05856,-0.0366,-0.01464,-0.01464,0.08296,0.17568,0.0976,-0.00976,-0.01464,-0.0488
0.05368,0.00488,-0.06344,-0.09028,-0.11712,0.0854,0.0732,0.2928,0.16104,0.04392,0.0244,0.00488
0.2684,-0.12444,-0.01952,-0.15372,-0.28792,0.27816,0.03904,0.37576,0.29768,0.16104,0.122,0.14152
0.50264,-0.28792,0.0732,-0.17812,-0.42944,0.46604,-0.03904,0.27816,0.3416,0.27328,0.24888,0.30744
0.70272,-0.45872,0.21472,-0.13664,-0.488,0.59536,-0.20496,-0.0488,0.20496,0.35136,0.38064,0.49776
0.80032,-0.59292,0.38552,-0.01464,-0.4148,0.60756,-0.33184,-0.37088,0.03416,0.40992,0.48312,0.62952
0.82472,-0.69296,0.5612,0.14884,-0.26352,0.54412,-0.39528,-0.61488,-0.08296,0.47824,0.59048,0.73688
0.62464,-0.61244,0.60024,0.28792,-0.0244,0.32452,-0.40016,-0.77592,-0.24888,0.40504,0.5612,0.69784
0.25864,-0.37332,0.488,0.35868,0.22936,0.01464,-0.32696,-0.8784,-0.39528,0.21472,0.3904,0.48312
-0.07808,-0.16592,0.40992,0.44896,0.488,-0.28304,-0.28304,-0.99064,-0.60024,0.05368,0.25376,0.30744
-0.28792,-0.01952,0.32696,0.47092,0.61488,-0.4514,-0.23912,-1.01016,-0.67344,-0.07808,0.13176,0.1464
-0.35624,0.04636,0.26352,0.44164,0.61976,-0.488,-0.20496,-0.9272,-0.6344,-0.11712,0.0732,0.06344
-0.28304,0.05368,0.17568,0.3172,0.45872,-0.37088,-0.16592,-0.68808,-0.49776,-0.13176,0.0244,0.0244
-0.21472,0.05856,0.0976,0.20496,0.31232,-0.26352,-0.12688,-0.47336,-0.3904,-0.13176,-0.00488,-0.00976
-0.18544,0.07564,0.03416,0.12688,0.2196,-0.20252,-0.09272,-0.35624,-0.32696,-0.15128,-0.05368,-0.05368
-0.15128,0.0854,-0.01952,0.05612,0.13176,-0.14152,-0.05856,-0.25376,-0.2684,-0.16104,-0.07808,-0.08784
-0.13664,0.09516,-0.05368,0.01464,0.08296,-0.1098,-0.0244,-0.16104,-0.20496,-0.15128,-0.07808,-0.08784
-0.11712,0.09272,-0.06832,-0.00976,0.0488,-0.08296,0,-0.10736,-0.15128,-0.13664,-0.07808,-0.08784
-0.0976,0.08784,-0.07808,-0.02928,0.01952,-0.05856,0.00976,-0.05856,-0.11712,-0.11712,-0.07808,-0.08784
-0.08296,0.08296,-0.08296,-0.04148,0,-0.04148,0.01952,-0.02928,-0.09272,-0.10736,-0.0732,-0.08784
-0.07808,0.08296,-0.08784,-0.0488,-0.00976,-0.03416,0.02928,-0.01464,-0.07808,-0.10736,-0.0732,-0.09272
-0.07808,0.08296,-0.08784,-0.0488,-0.00976,-0.03416,0.02928,-0.00488,-0.0732,-0.10248,-0.0732,-0.09272
-0.0732,0.08296,-0.09272,-0.05612,-0.01952,-0.02684,0.03416,0.00488,-0.05856,-0.10248,-0.08296,-0.09272
-0.06832,0.08052,-0.09272,-0.05856,-0.0244,-0.02196,0.03904,0.00488,-0.05856,-0.10248,-0.08784,-0.09272
-0.06344,0.07808,-0.09272,-0.061,-0.02928,-0.01708,0.03904,0.00976,-0.05368,-0.10248,-0.08296,-0.09272
-0.06344,0.07808,-0.09272,-0.061,-0.02928,-0.01708,0.03904,0.01464,-0.05368,-0.10248,-0.08296,-0.09272
-0.06344,0.07808,-0.09272,-0.061,-0.02928,-0.01708,0.03904,0.01464,-0.05368,-0.0976,-0.08296,-0.09272
-0.06344,0.07808,-0.09272,-0.061,-0.02928,-0.01708,0.03904,0.01952,-0.0488,-0.0976,-0.08296,-0.08784
-0.06344,0.07564,-0.08784,-0.05612,-0.0244,-0.01952,0.03904,0.0244,-0.0488,-0.0976,-0.08296,-0.08784
-0.06344,0.07564,-0.08784,-0.05612,-0.0244,-0.01952,0.03904,0.02928,-0.0488,-0.0976,-0.07808,-0.08784
-0.05856,0.07076,-0.08296,-0.05368,-0.0244,-0.01708,0.03904,0.02928,-0.0488,-0.0976,-0.07808,-0.08784
-0.05856,0.06832,-0.07808,-0.0488,-0.01952,-0.01952,0.03904,0.02928,-0.04392,-0.0976,-0.07808,-0.08296
-0.05368,0.06588,-0.07808,-0.05124,-0.0244,-0.01464,0.03904,0.03416,-0.04392,-0.09272,-0.07808,-0.08296
-0.05368,0.06344,-0.0732,-0.04636,-0.01952,-0.01708,0.03904,0.03416,-0.04392,-0.09272,-0.0732,-0.08296
-0.05368,0.06344,-0.0732,-0.04636,-0.01952,-0.01708,0.03904,0.03416,-0.0488,-0.0976,-0.0732,-0.07808
-0.05368,0.06344,-0.0732,-0.04636,-0.01952,-0.01708,0.03904,0.03416,-0.0488,-0.10248,-0.0732,-0.07808
-0.0488,0.05856,-0.06832,-0.04392,-0.01952,-0.01464,0.03416,0.03904,-0.0488,-0.0976,-0.06832,-0.07808
-0.0488,0.05856,-0.06832,-0.04392,-0.01952,-0.01464,0.03416,0.03904,-0.04392,-0.09272,-0.05856,-0.07808
-0.04392,0.05612,-0.06832,-0.04636,-0.0244,-0.00976,0.03416,0.04392,-0.04392,-0.09272,-0.05856,-0.0732
-0.04392,0.05856,-0.0732,-0.05124,-0.02928,-0.00732,0.02928,0.04392,-0.04392,-0.08784,-0.05856,-0.0732
-0.03904,0.05368,-0.06832,-0.0488,-0.02928,-0.00488,0.02928,0.0488,-0.03904,-0.08784,-0.05856,-0.06832
-0.03904,0.05368,-0.06832,-0.0488,-0.02928,-0.00488,0.0244,0.0488,-0.03904,-0.08784,-0.05368,-0.06832
-0.03416,0.05124,-0.06832,-0.05124,-0.03416,0,0.0244,0.0488,-0.03904,-0.08296,-0.05368,-0.06344
-0.03416,0.04392,-0.05368,-0.0366,-0.01952,-0.00732,0.0244,0.05368,-0.03416,-0.07808,-0.0488,-0.06344
-0.02928,0.04148,-0.05368,-0.03904,-0.0244,-0.00244,0.0244,0.05368,-0.03416,-0.07808,-0.04392,-0.05856
-0.0244,0.0366,-0.0488,-0.0366,-0.0244,0,0.0244,0.05856,-0.02928,-0.0732,-0.03904,-0.05856
-0.01952,0.03416,-0.0488,-0.03904,-0.02928,0.00488,0.01464,0.05368,-0.02928,-0.06832,-0.04392,-0.0488
-0.01464,0.02928,-0.04392,-0.0366,-0.02928,0.00732,0.00976,0.05368,-0.01952,-0.06344,-0.0488,-0.0488
-0.01464,0.0244,-0.03416,-0.02684,-0.01952,0.00244,0.00488,0.05368,-0.01952,-0.05856,-0.03904,-0.04392
-0.00488,0.01708,-0.02928,-0.02684,-0.0244,0.00976,0.00488,0.05856,-0.00976,-0.0488,-0.02928,-0.02928
0.00488,0.00976,-0.0244,-0.02684,-0.02928,0.01708,0.00976,0.06344,0,-0.04392,-0.01952,-0.02928
0.00976,0.00732,-0.0244,-0.02928,-0.03416,0.02196,0.00976,0.06832,0.00488,-0.03416,-0.01952,-0.01952
0.01464,0,-0.01464,-0.02196,-0.02928,0.02196,0,0.0732,0.01464,-0.0244,-0.00976,-0.01464
0.0244,-0.00732,-0.00976,-0.02196,-0.03416,0.02928,0,0.07808,0.01952,-0.01952,0,-0.00488
0.03416,-0.01708,0,-0.01708,-0.03416,0.03416,0,0.07808,0.0244,-0.00976,0.00976,0.00976
0.0488,-0.02928,0.00976,-0.01464,-0.03904,0.04392,-0.00488,0.08296,0.03416,0.00488,0.01952,0.01952
0.05856,-0.03904,0.01952,-0.00976,-0.03904,0.0488,-0.01464,0.08784,0.04392,0.01464,0.02928,0.03416
0.06832,-0.04636,0.0244,-0.00976,-0.04392,0.05612,-0.01952,0.09272,0.04392,0.0244,0.03904,0.0488
0.0732,-0.05612,0.03904,0.00244,-0.03416,0.05368,-0.0244,0.0976,0.04392,0.04392,0.05368,0.05368
0.08296,-0.06588,0.0488,0.00732,-0.03416,0.05856,-0.03416,0.0976,0.0488,0.0488,0.06832,0.0732
0.09272,-0.07808,0.06344,0.01708,-0.02928,0.061,-0.03904,0.09272,0.05368,0.06344,0.07808,0.08296
0.10248,-0.08784,0.0732,0.02196,-0.02928,0.06588,-0.0488,0.08784,0.05368,0.0732,0.08784,0.09272
0.11224,-0.0976,0.08296,0.02684,-0.02928,0.07076,-0.0488,0.07808,0.0488,0.08296,0.0976,0.10248
0.11712,-0.10492,0.09272,0.03416,-0.0244,0.07076,-0.0488,0.0732,0.04392,0.09272,0.10736,0.11712
0.13176,-0.11712,0.10248,0.0366,-0.02928,0.08052,-0.05368,0.06832,0.04392,0.10248,0.11712,0.12688
0.13176,-0.12444,0.11712,0.05124,-0.01464,0.0732,-0.06832,0.06832,0.04392,0.10736,0.11712,0.13664
0.13176,-0.12444,0.11712,0.05124,-0.01464,0.0732,-0.06832,0.06832,0.04392,0.10736,0.12688,0.13664
0.12688,-0.122,0.11712,0.05368,-0.00976,0.06832,-0.06832,0.05856,0.04392,0.10736,0.12688,0.14152
0.12688,-0.122,0.11712,0.05368,-0.00976,0.06832,-0.06832,0.0488,0.04392,0.11224,0.13176,0.14152
0.12688,-0.122,0.11712,0.05368,-0.00976,0.06832,-0.06832,0.03904,0.03904,0.11224,0.13176,0.14152
0.122,-0.11956,0.11712,0.05612,-0.00488,0.06344,-0.0732,0.02928,0.02928,0.10736,0.12688,0.14152
0.11712,-0.11468,0.11224,0.05368,-0.00488,0.061,-0.0732,0.0244,0.02928,0.0976,0.122,0.13176
0.10736,-0.10492,0.10248,0.0488,-0.00488,0.05612,-0.06832,0.00976,0.02928,0.0976,0.11224,0.122
0.09272,-0.09272,0.09272,0.04636,0,0.04636,-0.05368,0,0.01952,0.07808,0.10248,0.11224
0.0732,-0.0732,0.0732,0.0366,0,0.0366,-0.0488,0,0.00976,0.06344,0.08784,0.0976
0.06344,-0.06344,0.06344,0.03172,0,0.03172,-0.0488,0,0.00488,0.05368,0.06832,0.07808
0.04392,-0.05124,0.05856,0.0366,0.01464,0.01464,-0.03904,-0.00488,0,0.04392,0.05856,0.06344
0.03416,-0.03416,0.03416,0.01708,0,0.01708,-0.02928,-0.00488,-0.00976,0.01952,0.04392,0.04392
0.0244,-0.0244,0.0244,0.0122,0,0.0122,-0.0244,-0.00976,-0.01464,0.00488,0.0244,0.03416
0.01952,-0.01464,0.00976,0,-0.00976,0.01464,-0.01952,-0.00976,-0.0244,-0.00976,0.00976,0.01952
0.00488,-0.00244,0,-0.00244,-0.00488,0.00488,-0.01464,-0.00976,-0.0244,-0.0244,0,0.00488
-0.00488,0.00488,-0.00488,-0.00244,0,-0.00244,-0.00488,-0.00976,-0.03904,-0.03904,-0.00976,-0.00488
-0.01952,0.0244,-0.02928,-0.01952,-0.00976,-0.00488,0,-0.01464,-0.03904,-0.04392,-0.0244,-0.01464
-0.03416,0.0366,-0.03904,-0.02196,-0.00488,-0.01464,0.00488,-0.01464,-0.04392,-0.0488,-0.02928,-0.0244
-0.04392,0.04392,-0.04392,-0.02196,0,-0.02196,0.00488,-0.01464,-0.0488,-0.06344,-0.03904,-0.03904
-0.0488,0.04636,-0.04392,-0.01952,0.00488,-0.02684,0.00488,-0.01464,-0.0488,-0.0732,-0.04392,-0.03904
-0.05368,0.05124,-0.0488,-0.02196,0.00488,-0.02928,0.00488,-0.01464,-0.0488,-0.0732,-0.0488,-0.04392
-0.06344,0.061,-0.05856,-0.02684,0.00488,-0.03416,0.00488,-0.01464,-0.05368,-0.0732,-0.05856,-0.0488
-0.05856,0.061,-0.06344,-0.03416,-0.00488,-0.02684,0.00976,-0.01464,-0.05856,-0.07808,-0.05856,-0.06344
-0.05856,0.061,-0.06344,-0.03416,-0.00488,-0.02684,0.01464,-0.01464,-0.05856,-0.08296,-0.05856,-0.06832
-0.05856,0.06344,-0.06832,-0.03904,-0.00976,-0.0244,0.01464,-0.01464,-0.05856,-0.08784,-0.05856,-0.06832
-0.06344,0.06588,-0.06832,-0.0366,-0.00488,-0.02928,0.01464,-0.01464,-0.05856,-0.08784,-0.05856,-0.06832
-0.06832,0.06588,-0.06344,-0.02928,0.00488,-0.0366,0.01952,-0.01464,-0.05856,-0.08784,-0.06344,-0.0732
-0.0732,0.06832,-0.06344,-0.02684,0.00976,-0.04148,0.01952,-0.01464,-0.06344,-0.08784,-0.06344,-0.07808
-0.07808,0.0732,-0.06832,-0.02928,0.00976,-0.04392,0.01952,-0.01464,-0.06344,-0.09272,-0.06344,-0.07808
-0.07808,0.07564,-0.0732,-0.03416,0.00488,-0.04148,0.01952,-0.01464,-0.05856,-0.09272,-0.06344,-0.07808
-0.0732,0.0732,-0.0732,-0.0366,0,-0.0366,0.01952,-0.00976,-0.05856,-0.09272,-0.06344,-0.07808
-0.06832,0.06588,-0.06344,-0.02928,0.00488,-0.0366,0.01952,-0.00976,-0.05856,-0.09272,-0.06344,-0.07808
-0.06832,0.07076,-0.0732,-0.03904,-0.00488,-0.03172,0.01952,-0.00488,-0.05856,-0.09272,-0.06344,-0.07808
-0.06832,0.07076,-0.0732,-0.03904,-0.00488,-0.03172,0.01952,-0.00488,-0.05856,-0.09272,-0.06344,-0.07808
-0.0732,0.0732,-0.0732,-0.0366,0,-0.0366,0.01952,-0.00488,-0.05856,-0.0976,-0.06344,-0.07808
-0.0732,0.0732,-0.0732,-0.0366,0,-0.0366,0.01952,-0.00488,-0.05368,-0.10248,-0.06344,-0.07808
-0.0732,0.0732,-0.0732,-0.0366,0,-0.0366,0.01952,0,-0.05368,-0.10248,-0.06344,-0.0732
-0.0732,0.0732,-0.0732,-0.0366,0,-0.0366,0.01952,0,-0.05368,-0.0976,-0.06344,-0.0732
-0.0732,0.07076,-0.06832,-0.03172,0.00488,-0.03904,0.01952,0,-0.05368,-0.0976,-0.06344,-0.0732
-0.0732,0.07076,-0.06832,-0.03172,0.00488,-0.03904,0.01952,0,-0.0488,-0.0976,-0.06344,-0.0732
-0.06832,0.06832,-0.06832,-0.03416,0,-0.03416,0.01952,0.00488,-0.0488,-0.09272,-0.06344,-0.0732
-0.06832,0.07076,-0.0732,-0.03904,-0.00488,-0.03172,0.01952,0.00488,-0.0488,-0.08784,-0.06344,-0.0732
-0.06832,0.07076,-0.0732,-0.03904,-0.00488,-0.03172,0.01464,0.00488,-0.0488,-0.08784,-0.06832,-0.0732
-0.06344,0.06832,-0.0732,-0.04148,-0.00976,-0.02684,0.01464,0.00488,-0.0488,-0.08784,-0.06832,-0.0732
-0.06344,0.06832,-0.0732,-0.04148,-0.00976,-0.02684,0.01464,0.00488,-0.0488,-0.08784,-0.06832,-0.06832
-0.06344,0.06832,-0.0732,-0.04148,-0.00976,-0.02684,0.01464,0.00488,-0.0488,-0.08784,-0.06832,-0.06832
-0.05856,0.06344,-0.06832,-0.03904,-0.00976,-0.0244,0.01464,0.00488,-0.0488,-0.08296,-0.06344,-0.06832
-0.05856,0.06344,-0.06832,-0.03904,-0.00976,-0.0244,0.01464,0.00488,-0.0488,-0.08296,-0.05856,-0.06832
-0.05856,0.06344,-0.06832,-0.03904,-0.00976,-0.0244,0.01464,0.00488,-0.0488,-0.08784,-0.05856,-0.0732
-0.05856,0.06344,-0.06832,-0.03904,-0.00976,-0.0244,0.01464,0.00488,-0.0488,-0.08784,-0.05856,-0.0732
-0.05368,0.061,-0.06832,-0.04148,-0.01464,-0.01952,0.01464,0.00488,-0.0488,-0.08296,-0.05856,-0.06832
-0.05368,0.061,-0.06832,-0.04148,-0.01464,-0.01952,0.01464,0.00488,-0.0488,-0.08296,-0.05856,-0.06832
-0.05368,0.061,-0.06832,-0.04148,-0.01464,-0.01952,0.01464,0.00488,-0.0488,-0.08784,-0.05856,-0.06832
-0.05368,0.061,-0.06832,-0.04148,-0.01464,-0.01952,0.01464,0.00488,-0.0488,-0.08784,-0.05856,-0.06832
-0.05368,0.061,-0.06832,-0.04148,-0.01464,-0.01952,0.01464,0.00488,-0.05368,-0.08296,-0.05856,-0.06832
-0.05368,0.061,-0.06832,-0.04148,-0.01464,-0.01952,0.01464,0,-0.05368,-0.08296,-0.05856,-0.06832
-0.05368,0.061,-0.06832,-0.04148,-0.01464,-0.01952,0.01464,0,-0.05368,-0.08296,-0.05856,-0.0732
-0.05368,0.06344,-0.0732,-0.04636,-0.01952,-0.01708,0.00976,0,-0.05368,-0.08296,-0.05856,-0.0732
-0.05368,0.06588,-0.07808,-0.05124,-0.0244,-0.01464,0.00976,0,-0.05368,-0.08296,-0.06344,-0.06832
-0.05368,0.06832,-0.08296,-0.05612,-0.02928,-0.0122,0.01464,0,-0.05368,-0.08296,-0.06344,-0.06832
-0.05368,0.06832,-0.08296,-0.05612,-0.02928,-0.0122,0.01464,-0.00488,-0.0488,-0.08296,-0.06344,-0.06832
-0.05368,0.06832,-0.08296,-0.05612,-0.02928,-0.0122,0.00976,-0.00488,-0.04392,-0.08784,-0.06344,-0.0732
-0.05368,0.06832,-0.08296,-0.05612,-0.02928,-0.0122,0.00976,-0.00488,-0.0488,-0.08784,-0.06832,-0.0732
-0.05368,0.07076,-0.08784,-0.061,-0.03416,-0.00976,0.00976,-0.00488,-0.0488,-0.08784,-0.06832,-0.07808
-0.05368,0.06832,-0.08296,-0.05612,-0.02928,-0.0122,0.00976,-0.00488,-0.0488,-0.08784,-0.06344,-0.07808
-0.05368,0.06588,-0.07808,-0.05124,-0.0244,-0.01464,0.00976,-0.00488,-0.0488,-0.08784,-0.06344,-0.07808
-0.05368,0.06588,-0.07808,-0.05124,-0.0244,-0.01464,0.00976,-0.00976,-0.0488,-0.09272,-0.06344,-0.07808
-0.05368,0.06588,-0.07808,-0.05124,-0.0244,-0.01464,0.01464,-0.00976,-0.0488,-0.09272,-0.06344,-0.0732
-0.05368,0.06588,-0.07808,-0.05124,-0.0244,-0.01464,0.01464,-0.00976,-0.0488,-0.09272,-0.06344,-0.0732
-0.05368,0.06588,-0.07808,-0.05124,-0.0244,-0.01464,0.00976,-0.00976,-0.0488,-0.0976,-0.06832,-0.08296
-0.05368,0.06588,-0.07808,-0.05124,-0.0244,-0.01464,0.00976,-0.01464,-0.0488,-0.0976,-0.06832,-0.07808
-0.05856,0.06832,-0.07808,-0.0488,-0.01952,-0.01952,0.00976,-0.01464,-0.05368,-0.09272,-0.06832,-0.06832
-0.05856,0.06832,-0.07808,-0.0488,-0.01952,-0.01952,0.00976,-0.00976,-0.05368,-0.09272,-0.06832,-0.06832
-0.05856,0.07076,-0.08296,-0.05368,-0.0244,-0.01708,0.00976,-0.00976,-0.05368,-0.0976,-0.06832,-0.06832
-0.05856,0.0732,-0.08784,-0.05856,-0.02928,-0.01464,0.00976,-0.00976,-0.05368,-0.09272,-0.0732,-0.06832
-0.05856,0.07564,-0.09272,-0.06344,-0.03416,-0.0122,0.00976,-0.00976,-0.05368,-0.08784,-0.06832,-0.06832
-0.05368,0.07076,-0.08784,-0.061,-0.03416,-0.00976,0.00976,-0.00976,-0.05368,-0.08784,-0.06832,-0.06832
-0.0488,0.06832,-0.08784,-0.06344,-0.03904,-0.00488,0.00976,-0.00976,-0.05856,-0.08784,-0.06832,-0.06832
-0.0488,0.06588,-0.08296,-0.05856,-0.03416,-0.00732,0.00976,-0.00976,-0.05856,-0.08784,-0.06832,-0.06832
-0.0488,0.06344,-0.07808,-0.05368,-0.02928,-0.00976,0.00976,-0.00976,-0.05856,-0.08784,-0.06832,-0.06832
-0.0488,0.06344,-0.07808,-0.05368,-0.02928,-0.00976,0.00976,-0.00976,-0.05368,-0.08784,-0.06832,-0.06832
-0.0488,0.061,-0.0732,-0.0488,-0.0244,-0.0122,0.00976,-0.00976,-0.0488,-0.08296,-0.06832,-0.06832
-0.0488,0.061,-0.0732,-0.0488,-0.0244,-0.0122,0.01464,-0.00976,-0.04392,-0.08296,-0.06832,-0.06832
-0.0488,0.05856,-0.06832,-0.04392,-0.01952,-0.01464,0.01464,-0.00976,-0.04392,-0.08296,-0.06344,-0.06832
-0.0488,0.05368,-0.05856,-0.03416,-0.00976,-0.01952,0.00976,-0.00976,-0.03904,-0.07808,-0.06344,-0.06344
-0.0488,0.0488,-0.0488,-0.0244,0,-0.0244,0.00976,-0.00976,-0.02928,-0.0732,-0.05368,-0.05856
-0.03904,0.03904,-0.03904,-0.01952,0,-0.01952,0.00976,-0.00976,-0.0244,-0.06344,-0.0488,-0.05368
-0.03904,0.03904,-0.03904,-0.01952,0,-0.01952,0.00976,-0.00488,-0.01952,-0.06344,-0.0488,-0.0488
-0.03416,0.0366,-0.03904,-0.02196,-0.00488,-0.01464,0.01464,0.00976,-0.00976,-0.06344,-0.0488,-0.0488
-0.0244,0.02928,-0.03416,-0.02196,-0.00976,-0.00732,0.01464,0.01952,-0.00488,-0.05856,-0.0488,-0.0488
-0.01952,0.02684,-0.03416,-0.0244,-0.01464,-0.00244,0.00488,0.01952,-0.00488,-0.0488,-0.03416,-0.03416
-0.00976,0.0122,-0.01464,-0.00976,-0.00488,-0.00244,0,0,-0.00488,-0.0488,-0.0244,-0.0244
-0.00976,0.0122,-0.01464,-0.00976,-0.00488,-0.00244,-0.00488,-0.01952,-0.00976,-0.0488,-0.0244,-0.0244
-0.01464,0.01464,-0.01464,-0.00732,0,-0.00732,-0.00488,-0.03904,-0.01952,-0.0488,-0.0244,-0.0244
-0.01464,0.01464,-0.01464,-0.00732,0,-0.00732,-0.00976,-0.03904,-0.01952,-0.0488,-0.0244,-0.01952
-0.01464,0.01708,-0.01952,-0.0122,-0.00488,-0.00488,-0.01952,-0.0488,-0.0244,-0.0488,-0.0244,-0.01952
-0.01952,0.01952,-0.01952,-0.00976,0,-0.00976,-0.0244,-0.0488,-0.02928,-0.05368,-0.0244,-0.01952
-0.01952,0.01952,-0.01952,-0.00976,0,-0.00976,-0.0244,-0.04392,-0.02928,-0.05856,-0.0244,-0.01952
-0.00976,0.01952,-0.02928,-0.0244,-0.01952,0.00488,-0.02928,-0.04392,-0.04392,-0.06344,-0.03416,-0.0244
-0.00488,0.0244,-0.04392,-0.04148,-0.03904,0.01708,-0.02928,-0.0488,-0.05856,-0.0732,-0.03904,-0.03416
-0.01464,0.03172,-0.0488,-0.04148,-0.03416,0.00976,-0.02928,-0.0488,-0.06344,-0.07808,-0.04392,-0.03904
-0.01952,0.03904,-0.05856,-0.0488,-0.03904,0.00976,-0.0244,-0.04392,-0.06344,-0.07808,-0.04392,-0.04392
-0.0244,0.04636,-0.06832,-0.05612,-0.04392,0.00976,-0.01464,-0.03416,-0.05856,-0.07808,-0.05368,-0.0488
-0.04392,0.061,-0.07808,-0.05612,-0.03416,-0.00488,-0.00488,-0.02928,-0.05856,-0.08296,-0.05368,-0.05368
-0.04392,0.06344,-0.08296,-0.061,-0.03904,-0.00244,-0.00488,-0.02928,-0.05368,-0.08784,-0.06344,-0.05856
-0.04392,0.06344,-0.08296,-0.061,-0.03904,-0.00244,0,-0.02928,-0.0488,-0.09272,-0.06832,-0.06344
-0.0488,0.07076,-0.09272,-0.06832,-0.04392,-0.00244,0,-0.0244,-0.05368,-0.09272,-0.0732,-0.0732
-0.05856,0.08052,-0.10248,-0.0732,-0.04392,-0.00732,0,-0.0244,-0.05856,-0.10248,-0.07808,-0.08296
-0.06344,0.08296,-0.10248,-0.07076,-0.03904,-0.0122,0.00488,-0.0244,-0.06344,-0.10248,-0.08296,-0.08296
-0.06344,0.08052,-0.0976,-0.06588,-0.03416,-0.01464,0.00488,-0.0244,-0.06832,-0.10248,-0.08296,-0.08296
-0.06344,0.08052,-0.0976,-0.06588,-0.03416,-0.01464,0.00488,-0.0244,-0.06832,-0.10248,-0.08296,-0.08296
-0.06344,0.08052,-0.0976,-0.06588,-0.03416,-0.01464,0.00488,-0.0244,-0.06832,-0.10248,-0.08296,-0.08296
-0.06344,0.08296,-0.10248,-0.07076,-0.03904,-0.0122,0.00488,-0.0244,-0.06832,-0.10248,-0.07808,-0.08296
-0.06344,0.08296,-0.10248,-0.07076,-0.03904,-0.0122,0.00976,-0.0244,-0.06832,-0.10736,-0.07808,-0.08784
-0.06344,0.08296,-0.10248,-0.07076,-0.03904,-0.0122,0.00976,-0.0244,-0.06832,-0.10736,-0.07808,-0.08784
-0.06344,0.08296,-0.10248,-0.07076,-0.03904,-0.0122,0.00976,-0.0244,-0.06344,-0.10248,-0.0732,-0.08296
-0.06344,0.08296,-0.10248,-0.07076,-0.03904,-0.0122,0.00976,-0.01952,-0.06344,-0.10248,-0.0732,-0.08296
-0.06344,0.08296,-0.10248,-0.07076,-0.03904,-0.0122,0.00976,-0.01952,-0.06344,-0.10248,-0.0732,-0.08296
-0.06344,0.08296,-0.10248,-0.07076,-0.03904,-0.0122,0.00976,-0.01952,-0.06344,-0.0976,-0.0732,-0.08296
-0.06344,0.0854,-0.10736,-0.07564,-0.04392,-0.00976,0.00976,-0.01952,-0.06344,-0.0976,-0.0732,-0.08296
-0.06832,0.09028,-0.11224,-0.07808,-0.04392,-0.0122,0.00976,-0.01952,-0.06832,-0.10736,-0.07808,-0.08784
-0.0732,0.09272,-0.11224,-0.07564,-0.03904,-0.01708,0.01952,0.00488,-0.06832,-0.10736,-0.07808,-0.0976
-0.06832,0.0854,-0.10248,-0.06832,-0.03416,-0.01708,0.03416,0.04392,-0.0244,-0.10248,-0.08784,-0.10248
-0.05856,0.06588,-0.0732,-0.04392,-0.01464,-0.02196,0.05856,0.0976,0.0488,-0.06344,-0.06344,-0.0732
-0.01464,0.0366,-0.05856,-0.05124,-0.04392,0.01464,0.06344,0.19032,0.10736,-0.00488,-0.01952,-0.03904
0.10248,-0.01952,-0.06344,-0.11468,-0.16592,0.1342,0.05368,0.31232,0.1708,0.05368,0.0244,0.0244
0.30744,-0.14152,-0.0244,-0.17812,-0.33184,0.31964,0.00488,0.36112,0.28304,0.16104,0.11224,0.16104
0.53192,-0.29768,0.06344,-0.20252,-0.46848,0.5002,-0.08784,0.22936,0.30256,0.26352,0.22936,0.32696
0.72712,-0.47092,0.21472,-0.14884,-0.5124,0.61976,-0.23912,-0.0976,0.1708,0.34648,0.366,0.50752
0.81984,-0.60756,0.39528,-0.01464,-0.42456,0.6222,-0.35136,-0.41968,0.00488,0.40992,0.47336,0.62952
0.81496,-0.68564,0.55632,0.14884,-0.25864,0.5368,-0.40504,-0.64904,-0.0976,0.45872,0.56608,0.71248
0.5856,-0.58316,0.58072,0.28792,-0.00488,0.29524,-0.40016,-0.79544,-0.24888,0.366,0.52216,0.64904
0.22936,-0.34892,0.46848,0.3538,0.23912,-0.00488,-0.32208,-0.88328,-0.37088,0.19032,0.36112,0.44408
-0.0976,-0.1464,0.3904,0.4392,0.488,-0.2928,-0.27328,-0.98088,-0.55144,0.04392,0.23424,0.27816
-0.30256,-0.00244,0.30744,0.45872,0.61,-0.45628,-0.22936,-0.99552,-0.62464,-0.08296,0.11712,0.13176
-0.366,0.061,0.244,0.427,0.61,-0.488,-0.1952,-0.90768,-0.5856,-0.11712,0.06344,0.06344
-0.28304,0.061,0.16104,0.30256,0.44408,-0.36356,-0.16104,-0.67344,-0.45384,-0.13176,0.01464,0.0244
-0.20496,0.05856,0.08784,0.19032,0.2928,-0.24888,-0.12688,-0.4636,-0.35136,-0.13176,-0.01464,-0.00976
-0.18056,0.08052,0.01952,0.1098,0.20008,-0.19032,-0.09272,-0.3416,-0.28792,-0.1464,-0.05856,-0.05368
-0.15128,0.09516,-0.03904,0.0366,0.11224,-0.13176,-0.05856,-0.23424,-0.22936,-0.15128,-0.07808,-0.08784
-0.13176,0.0976,-0.06344,0.00244,0.06832,-0.10004,-0.02928,-0.1464,-0.17568,-0.14152,-0.07808,-0.08784
-0.10736,0.08784,-0.06832,-0.01464,0.03904,-0.0732,-0.00976,-0.0976,-0.13176,-0.12688,-0.07808,-0.08784
-0.09272,0.08784,-0.08296,-0.0366,0.00976,-0.05124,0,-0.05368,-0.10248,-0.11224,-0.08296,-0.08784
-0.08296,0.08784,-0.09272,-0.05124,-0.00976,-0.0366,0.00976,-0.02928,-0.08296,-0.10736,-0.08296,-0.08784
-0.07808,0.08784,-0.0976,-0.05856,-0.01952,-0.02928,0.0244,-0.01464,-0.06832,-0.10736,-0.08296,-0.08784
-0.07808,0.08784,-0.0976,-0.05856,-0.01952,-0.02928,0.02928,-0.00488,-0.06344,-0.10248,-0.08296,-0.08296
-0.0732,0.08784,-0.10248,-0.06588,-0.02928,-0.02196,0.03416,0.00976,-0.0488,-0.10248,-0.08784,-0.08296
-0.06832,0.0854,-0.10248,-0.06832,-0.03416,-0.01708,0.03904,0.01464,-0.0488,-0.10248,-0.08784,-0.08296
-0.06344,0.08296,-0.10248,-0.07076,-0.03904,-0.0122,0.03904,0.01952,-0.04392,-0.10736,-0.08296,-0.08296
-0.06344,0.08296,-0.10248,-0.07076,-0.03904,-0.0122,0.03904,0.0244,-0.04392,-0.11224,-0.08296,-0.08296
-0.06344,0.08296,-0.10248,-0.07076,-0.03904,-0.0122,0.03904,0.0244,-0.04392,-0.10736,-0.08296,-0.08296
-0.06344,0.08296,-0.10248,-0.07076,-0.03904,-0.0122,0.03904,0.02928,-0.03904,-0.10736,-0.08296,-0.07808
-0.06344,0.08052,-0.0976,-0.06588,-0.03416,-0.01464,0.03904,0.02928,-0.03904,-0.10736,-0.08296,-0.07808
-0.06344,0.08052,-0.0976,-0.06588,-0.03416,-0.01464,0.03904,0.02928,-0.03904,-0.10736,-0.07808,-0.07808
-0.05856,0.07808,-0.0976,-0.06832,-0.03904,-0.00976,0.03904,0.02928,-0.03904,-0.10248,-0.07808,-0.08296
-0.05856,0.07808,-0.0976,-0.06832,-0.03904,-0.00976,0.03904,0.02928,-0.03416,-0.0976,-0.07808,-0.08296
-0.0488,0.0732,-0.0976,-0.0732,-0.0488,0,0.03904,0.03416,-0.03416,-0.09272,-0.07808,-0.08296
-0.04392,0.06832,-0.09272,-0.07076,-0.0488,0.00244,0.03904,0.03416,-0.03416,-0.09272,-0.0732,-0.08296
-0.04392,0.06832,-0.09272,-0.07076,-0.0488,0.00244,0.03904,0.03416,-0.03416,-0.09272,-0.0732,-0.0732
-0.04392,0.06832,-0.09272,-0.07076,-0.0488,0.00244,0.03904,0.03416,-0.02928,-0.09272,-0.0732,-0.06832
-0.03904,0.06344,-0.08784,-0.06832,-0.0488,0.00488,0.03416,0.03904,-0.02928,-0.08784,-0.0732,-0.06832
-0.03904,0.06344,-0.08784,-0.06832,-0.0488,0.00488,0.03416,0.03904,-0.0244,-0.08296,-0.06832,-0.06832
-0.03904,0.061,-0.08296,-0.06344,-0.04392,0.00244,0.03416,0.04392,-0.0244,-0.08296,-0.06832,-0.06344
-0.04392,0.06344,-0.08296,-0.061,-0.03904,-0.00244,0.02928,0.04392,-0.0244,-0.07808,-0.06832,-0.06344
-0.03904,0.05856,-0.07808,-0.05856,-0.03904,0,0.02928,0.0488,-0.01952,-0.08296,-0.06832,-0.05856
-0.03904,0.05856,-0.07808,-0.05856,-0.03904,0,0.0244,0.0488,-0.01952,-0.08784,-0.06344,-0.05856
-0.03416,0.05612,-0.07808,-0.061,-0.04392,0.00488,0.0244,0.05368,-0.01952,-0.08296,-0.06344,-0.05368
-0.03416,0.0488,-0.06344,-0.04636,-0.02928,-0.00244,0.0244,0.06344,-0.01464,-0.07808,-0.05856,-0.05368
-0.02928,0.04636,-0.06344,-0.0488,-0.03416,0.00244,0.0244,0.06344,-0.01464,-0.07808,-0.05368,-0.0488
-0.0244,0.04148,-0.05856,-0.04636,-0.03416,0.00488,0.0244,0.06832,-0.00976,-0.0732,-0.0488,-0.0488
-0.01952,0.03904,-0.05856,-0.0488,-0.03904,0.00976,0.01952,0.06832,-0.00976,-0.06832,-0.0488,-0.03904
-0.01464,0.03416,-0.05368,-0.04636,-0.03904,0.0122,0.01952,0.0732,0,-0.06344,-0.0488,-0.03904
-0.01464,0.02928,-0.04392,-0.0366,-0.02928,0.00732,0.01464,0.0732,0,-0.05856,-0.03904,-0.03416
-0.00488,0.02196,-0.03904,-0.0366,-0.03416,0.01464,0.01464,0.07808,0.00976,-0.0488,-0.02928,-0.01952
0.00488,0.01464,-0.03416,-0.0366,-0.03904,0.02196,0.01464,0.08296,0.01464,-0.03904,-0.01952,-0.01952
0.00976,0.0122,-0.03416,-0.03904,-0.04392,0.02684,0.00976,0.08784,0.01464,-0.0244,-0.01952,-0.00976
0.01464,0.00488,-0.0244,-0.03172,-0.03904,0.02684,0,0.09272,0.0244,-0.01464,-0.00976,-0.00488
0.0244,-0.00244,-0.01952,-0.03172,-0.04392,0.03416,0,0.0976,0.02928,-0.00976,0,0.00488
0.03416,-0.01464,-0.00488,-0.02196,-0.03904,0.0366,0.00488,0.0976,0.03416,0,0.00976,0.01952
0.0488,-0.02928,0.00976,-0.01464,-0.03904,0.04392,0.00488,0.10248,0.04392,0.01464,0.01952,0.02928
0.05856,-0.03904,0.01952,-0.00976,-0.03904,0.0488,-0.00488,0.10248,0.05368,0.0244,0.02928,0.04392
0.06832,-0.04636,0.0244,-0.00976,-0.04392,0.05612,-0.00976,0.10248,0.05368,0.03416,0.03904,0.05856
0.07808,-0.05856,0.03904,0,-0.03904,0.05856,-0.00976,0.10736,0.05368,0.05368,0.05368,0.06344
0.09272,-0.07076,0.0488,0.00244,-0.04392,0.06832,-0.01464,0.10736,0.05856,0.05856,0.06832,0.08296
0.0976,-0.07808,0.05856,0.00976,-0.03904,0.06832,-0.01952,0.10248,0.06344,0.0732,0.07808,0.09272
0.10248,-0.08296,0.06344,0.0122,-0.03904,0.07076,-0.02928,0.0976,0.06344,0.08296,0.08784,0.10248
0.10736,-0.0854,0.06344,0.00976,-0.04392,0.07564,-0.02928,0.08784,0.06344,0.08784,0.0976,0.11224
0.10736,-0.0854,0.06344,0.00976,-0.04392,0.07564,-0.02928,0.08296,0.06344,0.09272,0.10736,0.12688
0.13176,-0.10736,0.08296,0.01708,-0.0488,0.09028,-0.03416,0.07808,0.06832,0.10248,0.11712,0.13664
0.14152,-0.12444,0.10736,0.0366,-0.03416,0.08784,-0.0488,0.07808,0.0732,0.10736,0.11712,0.1464
0.14152,-0.12444,0.10736,0.0366,-0.03416,0.08784,-0.05368,0.0732,0.0732,0.11224,0.12688,0.1464
0.13664,-0.122,0.10736,0.03904,-0.02928,0.08296,-0.05856,0.05856,0.0732,0.11712,0.12688,0.15128
0.13176,-0.11956,0.10736,0.04148,-0.0244,0.07808,-0.05856,0.0488,0.0732,0.122,0.13176,0.15128
0.12688,-0.11712,0.10736,0.04392,-0.01952,0.0732,-0.05856,0.03904,0.06832,0.122,0.13176,0.15128
0.122,-0.11468,0.10736,0.04636,-0.01464,0.06832,-0.05856,0.02928,0.05856,0.11712,0.12688,0.15128
0.11712,-0.1098,0.10248,0.04392,-0.01464,0.06588,-0.05368,0.0244,0.05856,0.10736,0.122,0.14152
0.10736,-0.10004,0.09272,0.03904,-0.01464,0.061,-0.0488,0.01464,0.05856,0.10736,0.11712,0.13176
0.09272,-0.08784,0.08296,0.0366,-0.00976,0.05124,-0.03416,0.00976,0.0488,0.08784,0.11224,0.122
0.0732,-0.06832,0.06344,0.02684,-0.00976,0.04148,-0.02928,0.00976,0.03904,0.0732,0.0976,0.10736
0.06344,-0.05856,0.05368,0.02196,-0.00976,0.0366,-0.02928,0.00976,0.03416,0.06344,0.07808,0.08784
0.03904,-0.04392,0.0488,0.02928,0.00976,0.01464,-0.01952,0.00488,0.02928,0.05368,0.06832,0.0732
0.0244,-0.0244,0.0244,0.0122,0,0.0122,-0.00976,0.00488,0.01952,0.02928,0.05368,0.05368
0.00976,-0.0122,0.01464,0.00976,0.00488,0.00244,-0.00488,0,0.01464,0.01464,0.02928,0.03904
0,0,0,0,0,0,0,0,0.00488,0,0.00976,0.01952
-0.00976,0.00976,-0.00976,-0.00488,0,-0.00488,0.00488,0,0.00488,-0.01464,0,0.00488
-0.01464,0.01464,-0.01464,-0.00732,0,-0.00732,0.01464,0,-0.00976,-0.02928,-0.00976,-0.00488
-0.0244,0.02928,-0.03416,-0.02196,-0.00976,-0.00732,0.01952,-0.00488,-0.01464,-0.03904,-0.0244,-0.01464
-0.03416,0.0366,-0.03904,-0.02196,-0.00488,-0.01464,0.0244,-0.00488,-0.0244,-0.0488,-0.02928,-0.0244
-0.03904,0.04148,-0.04392,-0.0244,-0.00488,-0.01708,0.02928,-0.00488,-0.02928,-0.06344,-0.03904,-0.03904
-0.03904,0.04148,-0.04392,-0.0244,-0.00488,-0.01708,0.03416,-0.00488,-0.02928,-0.0732,-0.04392,-0.03904
-0.04392,0.04636,-0.0488,-0.02684,-0.00488,-0.01952,0.03416,-0.00976,-0.0244,-0.0732,-0.0488,-0.04392
-0.05368,0.05612,-0.05856,-0.03172,-0.00488,-0.0244,0.03416,-0.01464,-0.0244,-0.0732,-0.05856,-0.0488
-0.06832,0.06832,-0.06832,-0.03416,0,-0.03416,0.03904,-0.01464,-0.02928,-0.07808,-0.05856,-0.05856
-0.08784,0.08052,-0.0732,-0.02928,0.01464,-0.05124,0.04392,-0.01464,-0.02928,-0.08296,-0.05856,-0.05856
-0.07808,0.07808,-0.07808,-0.03904,0,-0.03904,0.04392,-0.01464,-0.03416,-0.08784,-0.06344,-0.06344
-0.0732,0.07564,-0.07808,-0.04148,-0.00488,-0.03416,0.04392,-0.01464,-0.03904,-0.08784,-0.06832,-0.06832
-0.0732,0.0732,-0.0732,-0.0366,0,-0.0366,0.0488,-0.01464,-0.03904,-0.08784,-0.0732,-0.0732
-0.0732,0.0732,-0.0732,-0.0366,0,-0.0366,0.0488,-0.01464,-0.04392,-0.08784,-0.0732,-0.07808
-0.07808,0.07808,-0.07808,-0.03904,0,-0.03904,0.0488,-0.01464,-0.04392,-0.09272,-0.0732,-0.07808
-0.07808,0.08052,-0.08296,-0.04392,-0.00488,-0.0366,0.0488,-0.01464,-0.03904,-0.09272,-0.0732,-0.07808
-0.07808,0.08052,-0.08296,-0.04392,-0.00488,-0.0366,0.05368,-0.00976,-0.03904,-0.09272,-0.0732,-0.07808
-0.07808,0.07564,-0.0732,-0.03416,0.00488,-0.04148,0.05856,-0.00976,-0.03904,-0.09272,-0.0732,-0.07808
-0.07808,0.08052,-0.08296,-0.04392,-0.00488,-0.0366,0.05856,-0.00488,-0.03904,-0.09272,-0.0732,-0.07808
-0.07808,0.08052,-0.08296,-0.04392,-0.00488,-0.0366,0.05856,-0.00488,-0.03904,-0.09272,-0.0732,-0.07808
-0.08296,0.08296,-0.08296,-0.04148,0,-0.04148,0.05856,-0.00488,-0.03904,-0.09272,-0.0732,-0.07808
-0.08296,0.08296,-0.08296,-0.04148,0,-0.04148,0.05856,-0.00488,-0.03416,-0.09272,-0.0732,-0.07808
-0.08296,0.08052,-0.07808,-0.0366,0.00488,-0.04392,0.05856,0,-0.03416,-0.0976,-0.0732,-0.0732
-0.08296,0.07808,-0.0732,-0.03172,0.00976,-0.04636,0.05856,0,-0.03416,-0.0976,-0.0732,-0.0732
-0.08296,0.07564,-0.06832,-0.02684,0.01464,-0.0488,0.05856,0.00488,-0.03416,-0.0976,-0.0732,-0.0732
-0.08296,0.07564,-0.06832,-0.02684,0.01464,-0.0488,0.05856,0.00976,-0.02928,-0.0976,-0.0732,-0.0732
-0.07808,0.0732,-0.06832,-0.02928,0.00976,-0.04392,0.05856,0.01464,-0.03416,-0.0976,-0.07808,-0.07808
-0.07808,0.07564,-0.0732,-0.03416,0.00488,-0.04148,0.05856,0.01464,-0.03904,-0.0976,-0.08296,-0.08296
-0.08296,0.07808,-0.0732,-0.03172,0.00976,-0.04636,0.05368,0.01464,-0.03904,-0.0976,-0.08296,-0.08296
-0.08296,0.07808,-0.0732,-0.03172,0.00976,-0.04636,0.05368,0.01464,-0.03904,-0.0976,-0.07808,-0.08296
-0.08296,0.08052,-0.07808,-0.0366,0.00488,-0.04392,0.05368,0.01464,-0.03904,-0.0976,-0.07808,-0.07808
-0.08296,0.08296,-0.08296,-0.04148,0,-0.04148,0.05368,0.01464,-0.03904,-0.0976,-0.07808,-0.07808
-0.07808,0.07808,-0.07808,-0.03904,0,-0.03904,0.05368,0.01464,-0.03904,-0.09272,-0.07808,-0.0732
-0.07808,0.07808,-0.07808,-0.03904,0,-0.03904,0.05368,0.01464,-0.03904,-0.09272,-0.07808,-0.06832
-0.07808,0.07808,-0.07808,-0.03904,0,-0.03904,0.05368,0.01464,-0.03904,-0.0976,-0.07808,-0.0732
-0.07808,0.07808,-0.07808,-0.03904,0,-0.03904,0.05368,0.01464,-0.03904,-0.0976,-0.07808,-0.0732
-0.0732,0.07564,-0.07808,-0.04148,-0.00488,-0.03416,0.05368,0.01464,-0.03904,-0.09272,-0.07808,-0.06832
-0.0732,0.07564,-0.07808,-0.04148,-0.00488,-0.03416,0.05368,0.01464,-0.03904,-0.09272,-0.07808,-0.06832
-0.0732,0.07564,-0.07808,-0.04148,-0.00488,-0.03416,0.05368,0.01464,-0.03416,-0.10248,-0.07808,-0.06832
-0.0732,0.07564,-0.07808,-0.04148,-0.00488,-0.03416,0.05368,0.01464,-0.02928,-0.10736,-0.07808,-0.06832
-0.0732,0.07564,-0.07808,-0.04148,-0.00488,-0.03416,0.05368,0.01464,-0.03416,-0.10248,-0.07808,-0.06832
-0.0732,0.07564,-0.07808,-0.04148,-0.00488,-0.03416,0.05368,0.00976,-0.03416,-0.10248,-0.07808,-0.06832
-0.0732,0.07564,-0.07808,-0.04148,-0.00488,-0.03416,0.05368,0.00976,-0.03416,-0.10248,-0.0732,-0.0732
-0.0732,0.07808,-0.08296,-0.04636,-0.00976,-0.03172,0.0488,0.00976,-0.03416,-0.10248,-0.06832,-0.0732
-0.06832,0.07564,-0.08296,-0.0488,-0.01464,-0.02684,0.0488,0.00976,-0.03416,-0.10248,-0.0732,-0.06832
-0.06344,0.0732,-0.08296,-0.05124,-0.01952,-0.02196,0.05368,0.00976,-0.03416,-0.10248,-0.0732,-0.06832
-0.06344,0.0732,-0.08296,-0.05124,-0.01952,-0.02196,0.05368,0.00488,-0.03416,-0.0976,-0.0732,-0.06832
-0.06344,0.0732,-0.08296,-0.05124,-0.01952,-0.02196,0.0488,0.00488,-0.03416,-0.0976,-0.0732,-0.0732
-0.06344,0.0732,-0.08296,-0.05124,-0.01952,-0.02196,0.0488,0.00488,-0.03904,-0.0976,-0.08296,-0.0732
-0.06344,0.07564,-0.08784,-0.05612,-0.0244,-0.01952,0.0488,0.00488,-0.03904,-0.0976,-0.08784,-0.07808
-0.06832,0.07808,-0.08784,-0.05368,-0.01952,-0.0244,0.0488,0.00488,-0.03904,-0.0976,-0.08296,-0.07808
-0.0732,0.08052,-0.08784,-0.05124,-0.01464,-0.02928,0.0488,0.00488,-0.03904,-0.0976,-0.08296,-0.07808
-0.0732,0.08052,-0.08784,-0.05124,-0.01464,-0.02928,0.0488,0,-0.03904,-0.10248,-0.08296,-0.07808
-0.0732,0.08052,-0.08784,-0.05124,-0.01464,-0.02928,0.05368,0,-0.03904,-0.10248,-0.08296,-0.0732
-0.0732,0.08052,-0.08784,-0.05124,-0.01464,-0.02928,0.05368,0,-0.03904,-0.10248,-0.08296,-0.0732
-0.0732,0.08052,-0.08784,-0.05124,-0.01464,-0.02928,0.0488,0,-0.03904,-0.10736,-0.08784,-0.08296
-0.0732,0.08052,-0.08784,-0.05124,-0.01464,-0.02928,0.0488,-0.00488,-0.03904,-0.10736,-0.08784,-0.08296
-0.07808,0.08296,-0.08784,-0.0488,-0.00976,-0.03416,0.0488,-0.00488,-0.04392,-0.10248,-0.08784,-0.07808
-0.07808,0.08296,-0.08784,-0.0488,-0.00976,-0.03416,0.0488,0,-0.04392,-0.10248,-0.08784,-0.07808
-0.07808,0.0854,-0.09272,-0.05368,-0.01464,-0.03172,0.0488,0,-0.04392,-0.10736,-0.08784,-0.07808
-0.07808,0.0854,-0.09272,-0.05368,-0.01464,-0.03172,0.0488,0,-0.04392,-0.10736,-0.09272,-0.08296
-0.07808,0.0854,-0.09272,-0.05368,-0.01464,-0.03172,0.0488,0,-0.04392,-0.10736,-0.08784,-0.08784
-0.07808,0.0854,-0.09272,-0.05368,-0.01464,-0.03172,0.05368,0,-0.04392,-0.10248,-0.08784,-0.08784
-0.07808,0.08784,-0.0976,-0.05856,-0.01952,-0.02928,0.05856,0,-0.0488,-0.0976,-0.08784,-0.08784
-0.07808,0.08784,-0.0976,-0.05856,-0.01952,-0.02928,0.05368,0,-0.04392,-0.0976,-0.08784,-0.08784
-0.07808,0.08784,-0.0976,-0.05856,-0.01952,-0.02928,0.0488,0,-0.03904,-0.0976,-0.08784,-0.08784
-0.07808,0.0854,-0.09272,-0.05368,-0.01464,-0.03172,0.0488,0,-0.03904,-0.0976,-0.08784,-0.08296
-0.0732,0.08052,-0.08784,-0.05124,-0.01464,-0.02928,0.0488,0,-0.03416,-0.09272,-0.08784,-0.07808
-0.0732,0.07808,-0.08296,-0.04636,-0.00976,-0.03172,0.05368,0,-0.03416,-0.09272,-0.08784,-0.07808
-0.06832,0.0732,-0.07808,-0.04392,-0.00976,-0.02928,0.05368,0,-0.03416,-0.09272,-0.08296,-0.07808
-0.06832,0.06832,-0.06832,-0.03416,0,-0.03416,0.05368,0,-0.02928,-0.08784,-0.08296,-0.0732
-0.06832,0.06344,-0.05856,-0.0244,0.00976,-0.03904,0.05856,0,-0.01952,-0.08296,-0.0732,-0.06832
-0.05856,0.05368,-0.0488,-0.01952,0.00976,-0.03416,0.05856,0,-0.01464,-0.0732,-0.06832,-0.06344
-0.05856,0.05368,-0.0488,-0.01952,0.00976,-0.03416,0.05856,0.00488,-0.00976,-0.0732,-0.06832,-0.05856
-0.05368,0.05124,-0.0488,-0.02196,0.00488,-0.02928,0.05856,0.01464,0,-0.0732,-0.06832,-0.05856
-0.04392,0.04392,-0.04392,-0.02196,0,-0.02196,0.05368,0.01952,0.00488,-0.06832,-0.06832,-0.05856
-0.03904,0.04148,-0.04392,-0.0244,-0.00488,-0.01708,0.03904,0.01952,0.00488,-0.05856,-0.05856,-0.0488
-0.02928,0.02684,-0.0244,-0.00976,0.00488,-0.01708,0.02928,0,0.00488,-0.05856,-0.05368,-0.04392
-0.03416,0.02928,-0.0244,-0.00732,0.00976,-0.02196,0.0244,-0.01464,0.00488,-0.05856,-0.05368,-0.04392
-0.04392,0.03416,-0.0244,-0.00244,0.01952,-0.03172,0.0244,-0.02928,0,-0.05856,-0.05368,-0.04392
-0.04392,0.03416,-0.0244,-0.00244,0.01952,-0.03172,0.0244,-0.02928,0,-0.05856,-0.05368,-0.03904
-0.04392,0.0366,-0.02928,-0.00732,0.01464,-0.02928,0.01952,-0.03904,-0.00488,-0.05856,-0.05368,-0.03904
-0.03904,0.03416,-0.02928,-0.00976,0.00976,-0.0244,0.01464,-0.03904,-0.00976,-0.06344,-0.05368,-0.03904
-0.02928,0.02928,-0.02928,-0.01464,0,-0.01464,0.01464,-0.03416,-0.00976,-0.06832,-0.05368,-0.03904
-0.0244,0.02928,-0.03416,-0.02196,-0.00976,-0.00732,0.00976,-0.03416,-0.0244,-0.0732,-0.06344,-0.04392
-0.0244,0.03416,-0.04392,-0.03172,-0.01952,-0.00244,0.00976,-0.03904,-0.03904,-0.08296,-0.06832,-0.05368
-0.03416,0.04148,-0.0488,-0.03172,-0.01464,-0.00976,0.00976,-0.03904,-0.04392,-0.08784,-0.0732,-0.05856
-0.03904,0.0488,-0.05856,-0.03904,-0.01952,-0.00976,0.01464,-0.03416,-0.04392,-0.08784,-0.0732,-0.06344
-0.0488,0.05856,-0.06832,-0.04392,-0.01952,-0.01464,0.0244,-0.0244,-0.04392,-0.09272,-0.08296,-0.06832
-0.0732,0.07564,-0.07808,-0.04148,-0.00488,-0.03416,0.03416,-0.01952,-0.0488,-0.10248,-0.08296,-0.0732
-0.0732,0.07808,-0.08296,-0.04636,-0.00976,-0.03172,0.03416,-0.01952,-0.0488,-0.10736,-0.09272,-0.07808
-0.0732,0.07808,-0.08296,-0.04636,-0.00976,-0.03172,0.03904,-0.01952,-0.0488,-0.11224,-0.0976,-0.08296
-0.07808,0.0854,-0.09272,-0.05368,-0.01464,-0.03172,0.03904,-0.01464,-0.0488,-0.10736,-0.0976,-0.08784
-0.08784,0.09516,-0.10248,-0.05856,-0.01464,-0.0366,0.03904,-0.01464,-0.0488,-0.11224,-0.0976,-0.09272
-0.09272,0.0976,-0.10248,-0.05612,-0.00976,-0.04148,0.04392,-0.01464,-0.0488,-0.11224,-0.10248,-0.09272
-0.09272,0.09516,-0.0976,-0.05124,-0.00488,-0.04392,0.04392,-0.01464,-0.0488,-0.11224,-0.10248,-0.09272
-0.09272,0.0976,-0.10248,-0.05612,-0.00976,-0.04148,0.04392,-0.01464,-0.0488,-0.11224,-0.10248,-0.09272
-0.09272,0.10004,-0.10736,-0.061,-0.01464,-0.03904,0.04392,-0.01464,-0.0488,-0.11224,-0.10248,-0.09272
-0.09272,0.10248,-0.11224,-0.06588,-0.01952,-0.0366,0.04392,-0.01464,-0.0488,-0.11224,-0.10248,-0.09272
-0.09272,0.10248,-0.11224,-0.06588,-0.01952,-0.0366,0.0488,-0.01464,-0.0488,-0.11712,-0.10736,-0.0976
-0.09272,0.10248,-0.11224,-0.06588,-0.01952,-0.0366,0.0488,-0.01464,-0.0488,-0.11712,-0.10736,-0.10248
-0.09272,0.10248,-0.11224,-0.06588,-0.01952,-0.0366,0.0488,-0.01464,-0.04392,-0.11224,-0.10248,-0.10248
-0.09272,0.10248,-0.11224,-0.06588,-0.01952,-0.0366,0.0488,-0.00976,-0.04392,-0.11224,-0.10248,-0.10248
-0.09272,0.10248,-0.11224,-0.06588,-0.01952,-0.0366,0.0488,-0.00976,-0.04392,-0.11224,-0.10248,-0.10248
-0.09272,0.10248,-0.11224,-0.06588,-0.01952,-0.0366,0.0488,-0.00976,-0.04392,-0.10736,-0.10248,-0.10248
-0.09272,0.10492,-0.11712,-0.07076,-0.0244,-0.03416,0.0488,-0.00976,-0.04392,-0.10736,-0.10248,-0.10248
-0.09272,0.10736,-0.122,-0.07564,-0.02928,-0.03172,0.04392,-0.01464,-0.0488,-0.122,-0.10736,-0.10736
-0.09272,0.10736,-0.122,-0.07564,-0.02928,-0.03172,0.0488,0.00488,-0.0488,-0.12688,-0.10736,-0.11712
-0.0976,0.10736,-0.11712,-0.06832,-0.01952,-0.03904,0.06344,0.04392,-0.00488,-0.11712,-0.11224,-0.122
-0.0976,0.09516,-0.09272,-0.04392,0.00488,-0.05124,0.08784,0.0976,0.06832,-0.0732,-0.08296,-0.09272
-0.05368,0.06344,-0.0732,-0.04636,-0.01952,-0.01708,0.09272,0.18544,0.11224,-0.01952,-0.04392,-0.06832
0.06344,0.00488,-0.0732,-0.10492,-0.13664,0.10004,0.08296,0.30256,0.16104,0.03416,-0.00488,-0.01464
0.2684,-0.11468,-0.03904,-0.17324,-0.30744,0.28792,0.04392,0.3904,0.29768,0.14152,0.08784,0.122
0.49288,-0.2684,0.04392,-0.20252,-0.44896,0.47092,-0.03904,0.29768,0.3416,0.244,0.20984,0.28792
0.70272,-0.44408,0.18544,-0.16592,-0.51728,0.61,-0.20008,-0.04392,0.21472,0.3172,0.33184,0.4636
0.81008,-0.58316,0.35624,-0.0488,-0.45384,0.63196,-0.32208,-0.38064,0.05368,0.37088,0.42456,0.58072
0.83448,-0.6832,0.53192,0.11468,-0.30256,0.56852,-0.37576,-0.61,-0.0488,0.45384,0.5368,0.69296
0.6344,-0.60268,0.57096,0.25376,-0.06344,0.34892,-0.37088,-0.7564,-0.20008,0.39528,0.5124,0.6588
0.25376,-0.35624,0.45872,0.33184,0.20496,0.0244,-0.2928,-0.85888,-0.32208,0.20984,0.35136,0.45384
-0.0976,-0.14152,0.38064,0.42944,0.47824,-0.28792,-0.244,-0.97112,-0.50264,0.05368,0.22448,0.28792
-0.30744,0.00488,0.29768,0.4514,0.60512,-0.45628,-0.20008,-0.99552,-0.58072,-0.0732,0.10736,0.13664
-0.37576,0.07076,0.23424,0.42212,0.61,-0.49288,-0.16592,-0.91744,-0.54656,-0.10736,0.05368,0.06344
-0.30256,0.07564,0.15128,0.30256,0.45384,-0.3782,-0.13664,-0.6832,-0.42456,-0.12688,0,0.01464
-0.23424,0.07808,0.07808,0.1952,0.31232,-0.27328,-0.10736,-0.47336,-0.33184,-0.13176,-0.03416,-0.02928
-0.20496,0.0976,0.00976,0.11224,0.21472,-0.20984,-0.0732,-0.34648,-0.2684,-0.14152,-0.07808,-0.06344
-0.1708,0.1098,-0.0488,0.0366,0.122,-0.1464,-0.03904,-0.23424,-0.20984,-0.14152,-0.0976,-0.08784
-0.15616,0.11712,-0.07808,0,0.07808,-0.11712,-0.00976,-0.14152,-0.15616,-0.13664,-0.10248,-0.09272
-0.13664,0.11224,-0.08784,-0.01952,0.0488,-0.09272,0.00976,-0.08784,-0.11224,-0.12688,-0.10736,-0.0976
-0.122,0.1098,-0.0976,-0.0366,0.0244,-0.0732,0.0244,-0.04392,-0.0732,-0.11224,-0.10736,-0.0976
-0.11224,0.10736,-0.10248,-0.04636,0.00976,-0.061,0.03904,-0.01952,-0.04392,-0.10736,-0.10248,-0.0976
-0.10736,0.1098,-0.11224,-0.05856,-0.00488,-0.05124,0.0488,-0.00488,-0.02928,-0.10736,-0.10248,-0.0976
-0.10736,0.11224,-0.11712,-0.06344,-0.00976,-0.0488,0.0488,0.00488,-0.0244,-0.10248,-0.10248,-0.09272
-0.10248,0.11224,-0.122,-0.07076,-0.01952,-0.04148,0.05368,0.01952,-0.00976,-0.10248,-0.10736,-0.09272
-0.0976,0.1098,-0.122,-0.0732,-0.0244,-0.0366,0.05856,0.0244,-0.00976,-0.10248,-0.10736,-0.09272
-0.09272,0.10736,-0.122,-0.07564,-0.02928,-0.03172,0.05856,0.02928,-0.00488,-0.10248,-0.10248,-0.09272
-0.09272,0.10736,-0.122,-0.07564,-0.02928,-0.03172,0.05856,0.03416,-0.00488,-0.10248,-0.10248,-0.09272
-0.08296,0.10004,-0.11712,-0.07564,-0.03416,-0.0244,0.05856,0.03416,-0.00488,-0.0976,-0.10248,-0.09272
-0.0732,0.09272,-0.11224,-0.07564,-0.03904,-0.01708,0.05856,0.03904,0,-0.0976,-0.10248,-0.08784
-0.0732,0.09028,-0.10736,-0.07076,-0.03416,-0.01952,0.05368,0.04392,0,-0.0976,-0.10248,-0.08784
-0.0732,0.09028,-0.10736,-0.07076,-0.03416,-0.01952,0.0488,0.0488,0,-0.0976,-0.0976,-0.08784
-0.0732,0.09028,-0.10736,-0.07076,-0.03416,-0.01952,0.0488,0.0488,0,-0.0976,-0.0976,-0.08784
-0.07808,0.09272,-0.10736,-0.06832,-0.02928,-0.0244,0.0488,0.0488,0.00488,-0.0976,-0.0976,-0.08296
-0.0732,0.09028,-0.10736,-0.07076,-0.03416,-0.01952,0.0488,0.05368,0.00976,-0.08784,-0.0976,-0.08296
-0.0732,0.08784,-0.10248,-0.06588,-0.02928,-0.02196,0.0488,0.05368,0.01464,-0.08296,-0.09272,-0.08296
-0.0732,0.08784,-0.10248,-0.06588,-0.02928,-0.02196,0.0488,0.0488,0.01464,-0.08296,-0.08784,-0.07808
-0.0732,0.08784,-0.10248,-0.06588,-0.02928,-0.02196,0.0488,0.04392,0.01952,-0.08296,-0.08296,-0.07808
-0.06832,0.08296,-0.0976,-0.06344,-0.02928,-0.01952,0.04392,0.0488,0.01952,-0.07808,-0.08296,-0.07808
-0.06832,0.08296,-0.0976,-0.06344,-0.02928,-0.01952,0.04392,0.0488,0.0244,-0.0732,-0.07808,-0.07808
-0.06344,0.07564,-0.08784,-0.05612,-0.0244,-0.01952,0.04392,0.05856,0.0244,-0.0732,-0.07808,-0.0732
-0.06344,0.0732,-0.08296,-0.05124,-0.01952,-0.02196,0.03904,0.06344,0.0244,-0.06832,-0.07808,-0.0732
-0.05856,0.06832,-0.07808,-0.0488,-0.01952,-0.01952,0.03904,0.06832,0.02928,-0.06832,-0.07808,-0.06832
-0.05856,0.06832,-0.07808,-0.0488,-0.01952,-0.01952,0.03416,0.06832,0.02928,-0.06832,-0.0732,-0.06832
-0.05368,0.06832,-0.08296,-0.05612,-0.02928,-0.0122,0.03416,0.06832,0.02928,-0.06344,-0.0732,-0.06344
-0.05368,0.06344,-0.0732,-0.04636,-0.01952,-0.01708,0.03416,0.0732,0.03416,-0.05856,-0.06832,-0.06344
-0.0488,0.061,-0.0732,-0.0488,-0.0244,-0.0122,0.03416,0.0732,0.03416,-0.05856,-0.06344,-0.05856
-0.04392,0.05612,-0.06832,-0.04636,-0.0244,-0.00976,0.03416,0.07808,0.03904,-0.05368,-0.05856,-0.05856
-0.03416,0.05124,-0.06832,-0.05124,-0.03416,0,0.02928,0.07808,0.03904,-0.0488,-0.05856,-0.0488
-0.0244,0.04392,-0.06344,-0.05124,-0.03904,0.00732,0.02928,0.08296,0.0488,-0.04392,-0.05856,-0.0488
-0.0244,0.03904,-0.05368,-0.04148,-0.02928,0.00244,0.0244,0.08296,0.0488,-0.03904,-0.0488,-0.04392
-0.01464,0.03172,-0.0488,-0.04148,-0.03416,0.00976,0.0244,0.08784,0.05856,-0.02928,-0.03904,-0.02928
-0.00488,0.0244,-0.04392,-0.04148,-0.03904,0.01708,0.0244,0.09272,0.06344,-0.0244,-0.02928,-0.02928
0,0.02196,-0.04392,-0.04392,-0.04392,0.02196,0.01952,0.0976,0.06344,-0.01464,-0.02928,-0.01952
0.00488,0.01464,-0.03416,-0.0366,-0.03904,0.02196,0.00976,0.10248,0.0732,0,-0.01952,-0.01464
0.01464,0.00732,-0.02928,-0.0366,-0.04392,0.02928,0.00976,0.10736,0.07808,0.00976,-0.00976,-0.00488
0.03416,-0.00976,-0.01464,-0.03172,-0.0488,0.04148,0.00976,0.10736,0.08296,0.01952,0,0.00976
0.05856,-0.02928,0,-0.02928,-0.05856,0.05856,0.00488,0.11224,0.09272,0.03416,0.00976,0.01952
0.05856,-0.03416,0.00976,-0.01952,-0.0488,0.05368,-0.00488,0.11224,0.10736,0.04392,0.01952,0.03416
0.05856,-0.0366,0.01464,-0.01464,-0.04392,0.05124,-0.00976,0.11224,0.11224,0.05368,0.02928,0.0488
0.06832,-0.0488,0.02928,-0.00488,-0.03904,0.05368,-0.01464,0.11712,0.11224,0.0732,0.04392,0.05368
0.08296,-0.061,0.03904,-0.00244,-0.04392,0.06344,-0.0244,0.11712,0.11712,0.07808,0.05856,0.0732
0.09272,-0.07076,0.0488,0.00244,-0.04392,0.06832,-0.02928,0.11224,0.122,0.09272,0.06832,0.08296
0.10248,-0.07808,0.05368,0.00244,-0.0488,0.07564,-0.03904,0.10736,0.122,0.10248,0.07808,0.09272
0.11224,-0.08784,0.06344,0.00732,-0.0488,0.08052,-0.03904,0.0976,0.122,0.10736,0.08784,0.10248
0.11712,-0.09516,0.0732,0.01464,-0.04392,0.08052,-0.03904,0.09272,0.122,0.11224,0.0976,0.11712
0.13176,-0.10736,0.08296,0.01708,-0.0488,0.09028,-0.04392,0.08784,0.122,0.122,0.10736,0.12688
0.13176,-0.11468,0.0976,0.03172,-0.03416,0.08296,-0.05856,0.08784,0.122,0.12688,0.10736,0.13664
0.13176,-0.11468,0.0976,0.03172,-0.03416,0.08296,-0.05856,0.08296,0.122,0.12688,0.11712,0.13664
0.12688,-0.11224,0.0976,0.03416,-0.02928,0.07808,-0.05856,0.06832,0.122,0.12688,0.11712,0.14152
0.12688,-0.11468,0.10248,0.03904,-0.0244,0.07564,-0.05856,0.06344,0.122,0.13664,0.12688,0.1464
0.12688,-0.11712,0.10736,0.04392,-0.01952,0.0732,-0.05856,0.05856,0.11712,0.14152,0.13176,0.15128
0.122,-0.11468,0.10736,0.04636,-0.01464,0.06832,-0.06344,0.0488,0.10736,0.13664,0.12688,0.15128
0.11712,-0.1098,0.10248,0.04392,-0.01464,0.06588,-0.06344,0.04392,0.10736,0.12688,0.122,0.14152
0.10736,-0.10004,0.09272,0.03904,-0.01464,0.061,-0.05856,0.02928,0.10736,0.12688,0.11224,0.13176
0.09272,-0.08784,0.08296,0.0366,-0.00976,0.05124,-0.04392,0.01952,0.0976,0.10736,0.10248,0.122
0.07808,-0.07076,0.06344,0.0244,-0.01464,0.04636,-0.03904,0.01952,0.08784,0.09272,0.08784,0.10736
0.0732,-0.06344,0.05368,0.01708,-0.01952,0.04636,-0.03904,0.01952,0.08296,0.08296,0.06832,0.08784
0.05368,-0.05124,0.0488,0.02196,-0.00488,0.02928,-0.02928,0.01464,0.07808,0.07808,0.05856,0.0732
0.04392,-0.03416,0.0244,0.00244,-0.01952,0.03172,-0.01952,0.01464,0.06832,0.05856,0.04392,0.05368
0.02928,-0.02196,0.01464,0,-0.01464,0.02196,-0.01464,0.00976,0.06832,0.04392,0.0244,0.03904
0.01952,-0.00976,0,-0.00976,-0.01952,0.01952,-0.00976,0.00976,0.06344,0.02928,0.00976,0.01952
0.00488,0.00244,-0.00976,-0.0122,-0.01464,0.00976,-0.00488,0.00976,0.06344,0.01464,0,0.00488
-0.00488,0.00976,-0.01464,-0.0122,-0.00976,0.00244,0.00488,0.00976,0.0488,0,-0.00976,-0.00488
-0.01952,0.02684,-0.03416,-0.0244,-0.01464,-0.00244,0.00976,0.00488,0.0488,-0.00488,-0.0244,-0.01464
-0.03416,0.0366,-0.03904,-0.02196,-0.00488,-0.01464,0.01464,0.00488,0.04392,-0.00976,-0.02928,-0.0244
-0.03904,0.04148,-0.04392,-0.0244,-0.00488,-0.01708,0.01464,0.00488,0.03904,-0.0244,-0.03904,-0.03904
-0.03904,0.04148,-0.04392,-0.0244,-0.00488,-0.01708,0.01464,0.00488,0.03904,-0.03416,-0.04392,-0.03904
-0.04392,0.04392,-0.04392,-0.02196,0,-0.02196,0.01464,0.00488,0.03904,-0.03904,-0.0488,-0.04392
-0.05368,0.05124,-0.0488,-0.02196,0.00488,-0.02928,0.01464,0.00488,0.03416,-0.04392,-0.05856,-0.0488
-0.05368,0.05368,-0.05368,-0.02684,0,-0.02684,0.01952,0.00488,0.02928,-0.0488,-0.05856,-0.05856
-0.05856,0.05612,-0.05368,-0.0244,0.00488,-0.03172,0.0244,0.00488,0.02928,-0.05368,-0.05856,-0.05856
-0.06344,0.061,-0.05856,-0.02684,0.00488,-0.03416,0.0244,0.00488,0.02928,-0.05856,-0.05856,-0.05856
-0.0732,0.06588,-0.05856,-0.02196,0.01464,-0.04392,0.0244,0.00488,0.02928,-0.05856,-0.05856,-0.05856
-0.0732,0.06344,-0.05368,-0.01708,0.01952,-0.04636,0.0244,0.00488,0.0244,-0.05856,-0.06344,-0.06344
-0.0732,0.06344,-0.05368,-0.01708,0.01952,-0.04636,0.01952,0.00488,0.01464,-0.05856,-0.06344,-0.06832
-0.07808,0.06832,-0.05856,-0.01952,0.01952,-0.0488,0.01952,0.00488,0.01464,-0.05856,-0.06344,-0.06832
-0.07808,0.07076,-0.06344,-0.0244,0.01464,-0.04636,0.01952,0.00488,0.01952,-0.05368,-0.06344,-0.06832
-0.07808,0.07076,-0.06344,-0.0244,0.01464,-0.04636,0.01952,0.00976,0.01952,-0.05368,-0.06344,-0.06832
-0.07808,0.06588,-0.05368,-0.01464,0.0244,-0.05124,0.01952,0.00976,0.01952,-0.05368,-0.06344,-0.06832
-0.07808,0.07076,-0.06344,-0.0244,0.01464,-0.04636,0.01952,0.01464,0.01952,-0.05368,-0.06344,-0.06832
-0.07808,0.07076,-0.06344,-0.0244,0.01464,-0.04636,0.01952,0.01464,0.01952,-0.05368,-0.06344,-0.06832
-0.07808,0.07076,-0.06344,-0.0244,0.01464,-0.04636,0.01952,0.01464,0.01952,-0.05856,-0.06344,-0.06832
-0.0732,0.06832,-0.06344,-0.02684,0.00976,-0.04148,0.01952,0.01464,0.0244,-0.06344,-0.06344,-0.06832
-0.0732,0.06832,-0.06344,-0.02684,0.00976,-0.04148,0.01952,0.01952,0.0244,-0.06344,-0.06344,-0.05856
-0.0732,0.06832,-0.06344,-0.02684,0.00976,-0.04148,0.01952,0.01952,0.0244,-0.05856,-0.06344,-0.05368
-0.0732,0.06588,-0.05856,-0.02196,0.01464,-0.04392,0.01952,0.01952,0.01952,-0.05856,-0.06344,-0.05368
-0.0732,0.06588,-0.05856,-0.02196,0.01464,-0.04392,0.01952,0.01952,0.01952,-0.05856,-0.06344,-0.05368
-0.06832,0.061,-0.05368,-0.01952,0.01464,-0.04148,0.01952,0.0244,0.01952,-0.05856,-0.06344,-0.05368
-0.06832,0.061,-0.05368,-0.01952,0.01464,-0.04148,0.01952,0.0244,0.01952,-0.05856,-0.06344,-0.05368
-0.06832,0.061,-0.05368,-0.01952,0.01464,-0.04148,0.01464,0.0244,0.01952,-0.05856,-0.06344,-0.05368
-0.06344,0.05856,-0.05368,-0.02196,0.00976,-0.0366,0.01464,0.0244,0.01952,-0.05856,-0.05856,-0.05368
-0.06344,0.05856,-0.05368,-0.02196,0.00976,-0.0366,0.01464,0.0244,0.01952,-0.05856,-0.05856,-0.0488
-0.06344,0.05856,-0.05368,-0.02196,0.00976,-0.0366,0.01464,0.0244,0.01952,-0.05856,-0.05856,-0.0488
-0.05856,0.05368,-0.0488,-0.01952,0.00976,-0.03416,0.01464,0.0244,0.01952,-0.05368,-0.05856,-0.0488
-0.05856,0.05368,-0.0488,-0.01952,0.00976,-0.03416,0.01464,0.0244,0.01952,-0.05368,-0.05856,-0.0488
-0.05856,0.05368,-0.0488,-0.01952,0.00976,-0.03416,0.01464,0.0244,0.01952,-0.05856,-0.05856,-0.05368
-0.05856,0.05368,-0.0488,-0.01952,0.00976,-0.03416,0.01464,0.0244,0.01952,-0.05856,-0.05856,-0.05368
-0.05368,0.05124,-0.0488,-0.02196,0.00488,-0.02928,0.01464,0.01952,0.01952,-0.05368,-0.05856,-0.0488
-0.05368,0.05124,-0.0488,-0.02196,0.00488,-0.02928,0.01464,0.01464,0.01952,-0.05368,-0.05856,-0.0488
-0.05368,0.05124,-0.0488,-0.02196,0.00488,-0.02928,0.01464,0.01464,0.01952,-0.05856,-0.05856,-0.0488
-0.05368,0.05124,-0.0488,-0.02196,0.00488,-0.02928,0.01464,0.01464,0.01952,-0.05856,-0.05856,-0.0488
-0.05368,0.05368,-0.05368,-0.02684,0,-0.02684,0.01464,0.01464,0.01464,-0.05368,-0.05856,-0.0488
-0.05368,0.05612,-0.05856,-0.03172,-0.00488,-0.0244,0.01464,0.00976,0.01464,-0.05368,-0.05856,-0.0488
-0.05368,0.05612,-0.05856,-0.03172,-0.00488,-0.0244,0.01464,0.00976,0.01464,-0.05368,-0.05368,-0.05368
-0.05368,0.05856,-0.06344,-0.0366,-0.00976,-0.02196,0.00976,0.00976,0.01464,-0.05368,-0.0488,-0.05368
-0.05368,0.05856,-0.06344,-0.0366,-0.00976,-0.02196,0.00976,0.00976,0.01464,-0.05368,-0.05368,-0.0488
-0.05368,0.05856,-0.06344,-0.0366,-0.00976,-0.02196,0.01464,0.00976,0.01464,-0.05368,-0.05368,-0.0488
-0.05368,0.05612,-0.05856,-0.03172,-0.00488,-0.0244,0.01464,0.00488,0.01464,-0.0488,-0.0488,-0.0488
-0.05368,0.05368,-0.05368,-0.02684,0,-0.02684,0.00976,0.00488,0.01464,-0.0488,-0.04392,-0.05368
-0.05368,0.05368,-0.05368,-0.02684,0,-0.02684,0.00976,0.00488,0.00976,-0.0488,-0.0488,-0.05368
-0.05368,0.05612,-0.05856,-0.03172,-0.00488,-0.0244,0.00976,0.00488,0.00976,-0.0488,-0.0488,-0.05856
-0.05368,0.05612,-0.05856,-0.03172,-0.00488,-0.0244,0.00976,0.00488,0.00976,-0.0488,-0.0488,-0.05856
-0.05368,0.05612,-0.05856,-0.03172,-0.00488,-0.0244,0.00976,0.00488,0.00976,-0.0488,-0.05368,-0.05856
-0.05368,0.05612,-0.05856,-0.03172,-0.00488,-0.0244,0.00976,0.00488,0.00976,-0.05368,-0.05368,-0.05856
-0.05368,0.05612,-0.05856,-0.03172,-0.00488,-0.0244,0.01464,0.00976,0.00976,-0.05368,-0.05368,-0.05368
-0.05368,0.05612,-0.05856,-0.03172,-0.00488,-0.0244,0.01464,0.00976,0.00976,-0.05368,-0.05368,-0.05368
-0.05368,0.05612,-0.05856,-0.03172,-0.00488,-0.0244,0.00976,0.00976,0.00976,-0.05856,-0.05856,-0.06344
-0.05368,0.05612,-0.05856,-0.03172,-0.00488,-0.0244,0.00976,0.00488,0.00976,-0.06344,-0.05856,-0.06344
-0.05856,0.05856,-0.05856,-0.02928,0,-0.02928,0.00976,0.00488,0.00488,-0.06344,-0.05856,-0.05856
-0.05856,0.05856,-0.05856,-0.02928,0,-0.02928,0.00976,0.00976,0.00488,-0.06344,-0.05856,-0.05856
-0.05856,0.061,-0.06344,-0.03416,-0.00488,-0.02684,0.00976,0.00976,0.00488,-0.06832,-0.05856,-0.05856
-0.05856,0.06344,-0.06832,-0.03904,-0.00976,-0.0244,0.00976,0.00976,0.00488,-0.06832,-0.06344,-0.05856
-0.05856,0.06588,-0.0732,-0.04392,-0.01464,-0.02196,0.00976,0.00976,0.00488,-0.06832,-0.06344,-0.05856
-0.05856,0.06588,-0.0732,-0.04392,-0.01464,-0.02196,0.00976,0.00488,0.00488,-0.06344,-0.05856,-0.05856
-0.05856,0.06588,-0.0732,-0.04392,-0.01464,-0.02196,0.00976,0,0,-0.06832,-0.05856,-0.06344
-0.05856,0.06344,-0.06832,-0.03904,-0.00976,-0.0244,0.00976,0,0,-0.06832,-0.05856,-0.05856
-0.05856,0.06344,-0.06832,-0.03904,-0.00976,-0.0244,0.00976,0,0,-0.06832,-0.05856,-0.05856
-0.05856,0.061,-0.06344,-0.03416,-0.00488,-0.02684,0.00976,0,0,-0.06832,-0.05856,-0.05856
-0.05856,0.05856,-0.05856,-0.02928,0,-0.02928,0.00976,0,0,-0.06832,-0.05856,-0.05856
-0.05856,0.05856,-0.05856,-0.02928,0,-0.02928,0.00976,0,0,-0.06344,-0.05856,-0.05856
-0.05856,0.05612,-0.05368,-0.0244,0.00488,-0.03172,0.00976,0,0,-0.05856,-0.05856,-0.05856
-0.05856,0.05612,-0.05368,-0.0244,0.00488,-0.03172,0.01464,0,0.00488,-0.05368,-0.05856,-0.05856
-0.05856,0.05368,-0.0488,-0.01952,0.00976,-0.03416,0.01464,0,0.00488,-0.05368,-0.05368,-0.05856
-0.05856,0.0488,-0.03904,-0.00976,0.01952,-0.03904,0.00976,0.00488,0.01464,-0.04392,-0.05368,-0.0488
-0.05856,0.04392,-0.02928,0,0.02928,-0.04392,0.00976,0.00976,0.02928,-0.03416,-0.04392,-0.03904
-0.04392,0.03172,-0.01952,0.00244,0.0244,-0.03416,0.00976,0.00976,0.03416,-0.0244,-0.03904,-0.03416
-0.03904,0.02928,-0.01952,0,0.01952,-0.02928,0.00976,0.01464,0.03904,-0.0244,-0.03904,-0.02928
-0.03416,0.02684,-0.01952,-0.00244,0.01464,-0.0244,0.01464,0.0244,0.0488,-0.0244,-0.03416,-0.02928
-0.0244,0.01952,-0.01464,-0.00244,0.00976,-0.01708,0.01464,0.02928,0.05368,-0.01952,-0.02928,-0.02928
-0.01952,0.01708,-0.01464,-0.00488,0.00488,-0.0122,0,0.02928,0.0488,-0.00976,-0.01952,-0.01952
-0.00976,0.00244,0.00488,0.00976,0.01464,-0.0122,-0.00976,0.00976,0.04392,-0.00976,-0.01464,-0.01464
-0.01464,0.00732,0,0.00732,0.01464,-0.01464,-0.01464,-0.00488,0.03904,-0.00976,-0.01464,-0.01464
-0.0244,0.01464,-0.00488,0.00732,0.01952,-0.02196,-0.01464,-0.01952,0.02928,-0.00976,-0.01464,-0.01464
-0.0244,0.01464,-0.00488,0.00732,0.01952,-0.02196,-0.01464,-0.01952,0.02928,-0.00976,-0.01464,-0.00976
-0.0244,0.01708,-0.00976,0.00244,0.01464,-0.01952,-0.01952,-0.02928,0.0244,-0.00976,-0.01464,-0.00976
-0.01464,0.00976,-0.00488,0.00244,0.00976,-0.0122,-0.0244,-0.02928,0.01952,-0.01464,-0.01464,-0.00976
0,0,0,0,0,0,-0.0244,-0.0244,0.01952,-0.01952,-0.01464,-0.00976
0,0.00488,-0.00976,-0.00976,-0.00976,0.00488,-0.02928,-0.0244,0.00488,-0.0244,-0.0244,-0.01464
-0.00488,0.01464,-0.0244,-0.02196,-0.01952,0.00732,-0.02928,-0.02928,-0.00976,-0.03416,-0.02928,-0.0244
-0.01464,0.02196,-0.02928,-0.02196,-0.01464,0,-0.02928,-0.02928,-0.01464,-0.04392,-0.03416,-0.02928
-0.01952,0.02928,-0.03904,-0.02928,-0.01952,0,-0.0244,-0.0244,-0.01464,-0.0488,-0.03416,-0.03416
-0.0244,0.0366,-0.0488,-0.0366,-0.0244,0,-0.01464,-0.01464,-0.00976,-0.0488,-0.04392,-0.03904
-0.04392,0.05124,-0.05856,-0.0366,-0.01464,-0.01464,-0.00488,-0.00976,-0.00976,-0.05368,-0.04392,-0.04392
-0.0488,0.05612,-0.06344,-0.03904,-0.01464,-0.01708,-0.00488,-0.00976,-0.00976,-0.05856,-0.05368,-0.0488
-0.05368,0.05856,-0.06344,-0.0366,-0.00976,-0.02196,0,-0.00976,-0.00976,-0.06344,-0.05856,-0.05368
-0.05856,0.06832,-0.07808,-0.0488,-0.01952,-0.01952,0,-0.00488,-0.01464,-0.06344,-0.06344,-0.06344
-0.06832,0.08052,-0.09272,-0.05856,-0.0244,-0.02196,0,-0.00488,-0.01952,-0.0732,-0.06832,-0.0732
-0.0732,0.08296,-0.09272,-0.05612,-0.01952,-0.02684,0.00488,-0.00488,-0.01952,-0.0732,-0.0732,-0.0732
-0.0732,0.08052,-0.08784,-0.05124,-0.01464,-0.02928,0.00488,-0.00488,-0.01952,-0.0732,-0.0732,-0.0732
-0.0732,0.08052,-0.08784,-0.05124,-0.01464,-0.02928,0.00488,-0.00488,-0.01952,-0.06832,-0.0732,-0.06832
-0.0732,0.08052,-0.08784,-0.05124,-0.01464,-0.02928,0.00488,-0.00488,-0.01952,-0.06344,-0.0732,-0.06344
-0.0732,0.08296,-0.09272,-0.05612,-0.01952,-0.02684,0.00488,-0.00488,-0.01952,-0.06344,-0.0732,-0.06344
-0.0732,0.08296,-0.09272,-0.05612,-0.01952,-0.02684,0.00976,-0.00488,-0.01952,-0.06832,-0.07808,-0.06832
-0.0732,0.08296,-0.09272,-0.05612,-0.01952,-0.02684,0.00976,-0.00488,-0.01952,-0.0732,-0.07808,-0.06832
-0.0732,0.08296,-0.09272,-0.05612,-0.01952,-0.02684,0.00976,-0.00488,-0.01464,-0.0732,-0.0732,-0.06344
-0.06832,0.08052,-0.09272,-0.05856,-0.0244,-0.02196,0.00976,0,-0.01464,-0.0732,-0.0732,-0.06344
-0.06344,0.07808,-0.09272,-0.061,-0.02928,-0.01708,0.00976,0,-0.01464,-0.0732,-0.0732,-0.06344
-0.06344,0.07808,-0.09272,-0.061,-0.02928,-0.01708,0.00976,0,-0.01464,-0.06832,-0.0732,-0.06344
-0.06344,0.08052,-0.0976,-0.06588,-0.03416,-0.01464,0.00976,0,-0.01464,-0.06832,-0.0732,-0.06344
-0.06344,0.08296,-0.10248,-0.07076,-0.03904,-0.0122,0.00976,-0.00488,-0.01952,-0.07808,-0.07808,-0.0732
-0.06344,0.08296,-0.10248,-0.07076,-0.03904,-0.0122,0.01952,0.01464,-0.01952,-0.07808,-0.07808,-0.08784
-0.05856,0.07564,-0.09272,-0.06344,-0.03416,-0.0122,0.03416,0.05368,0.0244,-0.06832,-0.07808,-0.08784
-0.0488,0.05612,-0.06344,-0.03904,-0.01464,-0.01708,0.05856,0.10736,0.0976,-0.0244,-0.04392,-0.05368
-0.00488,0.02684,-0.0488,-0.04636,-0.04392,0.01952,0.05856,0.1952,0.1464,0.02928,-0.00488,-0.0244
0.11224,-0.02928,-0.05368,-0.1098,-0.16592,0.13908,0.04392,0.31232,0.20008,0.08296,0.03416,0.03416
0.3172,-0.15372,-0.00976,-0.16836,-0.32696,0.32208,-0.00488,0.37576,0.31232,0.19032,0.122,0.1708
0.54168,-0.31232,0.08296,-0.18788,-0.45872,0.5002,-0.0976,0.25864,0.33184,0.2928,0.23912,0.33672
0.74664,-0.48556,0.22448,-0.14884,-0.52216,0.6344,-0.24888,-0.08296,0.20496,0.366,0.36112,0.5124
0.84912,-0.6222,0.39528,-0.02928,-0.45384,0.65148,-0.36112,-0.41968,0.04392,0.41968,0.45384,0.62952
0.84424,-0.70272,0.5612,0.13908,-0.28304,0.56364,-0.40504,-0.63928,-0.0488,0.48312,0.55632,0.71736
0.61488,-0.60268,0.59048,0.28304,-0.0244,0.31964,-0.3904,-0.77592,-0.19032,0.40504,0.52216,0.6588
0.244,-0.36112,0.47824,0.35624,0.23424,0.00488,-0.30744,-0.86864,-0.31232,0.2196,0.36112,0.45384
-0.0976,-0.15128,0.40016,0.44896,0.49776,-0.29768,-0.25376,-0.97112,-0.49288,0.06344,0.23424,0.28792
-0.30256,-0.00732,0.3172,0.46848,0.61976,-0.46116,-0.20984,-0.98088,-0.56608,-0.05856,0.122,0.1464
-0.366,0.05612,0.25376,0.43676,0.61976,-0.49288,-0.17568,-0.88816,-0.52704,-0.08784,0.0732,0.08296
-0.28304,0.05612,0.1708,0.31232,0.45384,-0.36844,-0.1464,-0.6588,-0.40504,-0.10736,0.01952,0.03904
-0.20496,0.05368,0.0976,0.20008,0.30256,-0.25376,-0.11712,-0.45384,-0.31232,-0.11224,-0.01464,0
-0.18056,0.07564,0.02928,0.11956,0.20984,-0.1952,-0.08296,-0.33184,-0.24888,-0.122,-0.05368,-0.03416
-0.15128,0.09028,-0.02928,0.04636,0.122,-0.13664,-0.0488,-0.22448,-0.19032,-0.122,-0.06832,-0.05856
-0.13664,0.0976,-0.05856,0.00976,0.07808,-0.10736,-0.01952,-0.13176,-0.13664,-0.11224,-0.06832,-0.06344
-0.11712,0.09272,-0.06832,-0.00976,0.0488,-0.08296,0,-0.07808,-0.09272,-0.0976,-0.06832,-0.06832
-0.10248,0.09028,-0.07808,-0.02684,0.0244,-0.06344,0.00976,-0.03416,-0.05856,-0.08296,-0.06832,-0.06832
-0.09272,0.08784,-0.08296,-0.0366,0.00976,-0.05124,0.01952,-0.00976,-0.03416,-0.07808,-0.06344,-0.06832
-0.08784,0.08784,-0.08784,-0.04392,0,-0.04392,0.02928,0.00488,-0.01952,-0.07808,-0.06344,-0.0732
-0.08784,0.08784,-0.08784,-0.04392,0,-0.04392,0.02928,0.01464,-0.01464,-0.0732,-0.06344,-0.0732
-0.08296,0.08784,-0.09272,-0.05124,-0.00976,-0.0366,0.03416,0.0244,0,-0.0732,-0.06832,-0.0732
-0.07808,0.0854,-0.09272,-0.05368,-0.01464,-0.03172,0.03904,0.0244,0,-0.0732,-0.06832,-0.0732
-0.0732,0.08296,-0.09272,-0.05612,-0.01952,-0.02684,0.03904,0.02928,0.00488,-0.0732,-0.06344,-0.0732
-0.0732,0.08296,-0.09272,-0.05612,-0.01952,-0.02684,0.03904,0.03416,0.00488,-0.0732,-0.06344,-0.0732
-0.06832,0.08052,-0.09272,-0.05856,-0.0244,-0.02196,0.04392,0.03416,0.00488,-0.06832,-0.06344,-0.06832
-0.06344,0.07808,-0.09272,-0.061,-0.02928,-0.01708,0.0488,0.03904,0.00976,-0.06832,-0.06344,-0.05856
-0.05856,0.0732,-0.08784,-0.05856,-0.02928,-0.01464,0.0488,0.03904,0.00976,-0.06832,-0.06344,-0.05856
-0.05368,0.07076,-0.08784,-0.061,-0.03416,-0.00976,0.0488,0.03904,0.00976,-0.06832,-0.05856,-0.05856
-0.0488,0.06832,-0.08784,-0.06344,-0.03904,-0.00488,0.0488,0.03904,0.00976,-0.06832,-0.05856,-0.06344
-0.0488,0.06832,-0.08784,-0.06344,-0.03904,-0.00488,0.0488,0.03904,0.01464,-0.06832,-0.05856,-0.06344
-0.04392,0.06588,-0.08784,-0.06588,-0.04392,0,0.0488,0.04392,0.01464,-0.06344,-0.05856,-0.06344
-0.04392,0.06344,-0.08296,-0.061,-0.03904,-0.00244,0.0488,0.04392,0.01464,-0.06344,-0.05368,-0.06344
-0.0488,0.06588,-0.08296,-0.05856,-0.03416,-0.00732,0.0488,0.0488,0.01464,-0.06344,-0.05368,-0.05368
-0.05368,0.06832,-0.08296,-0.05612,-0.02928,-0.0122,0.0488,0.05368,0.01952,-0.06344,-0.05368,-0.0488
-0.0488,0.06344,-0.07808,-0.05368,-0.02928,-0.00976,0.04392,0.05856,0.01464,-0.05856,-0.05856,-0.0488
-0.0488,0.06344,-0.07808,-0.05368,-0.02928,-0.00976,0.04392,0.05856,0.01464,-0.05368,-0.05856,-0.0488
-0.03416,0.0488,-0.06344,-0.04636,-0.02928,-0.00244,0.04392,0.05856,0.01464,-0.05368,-0.05856,-0.04392
-0.0244,0.03904,-0.05368,-0.04148,-0.02928,0.00244,0.03904,0.05368,0.01464,-0.0488,-0.05856,-0.04392
-0.02928,0.03904,-0.0488,-0.03416,-0.01952,-0.00488,0.03904,0.05856,0.01464,-0.0488,-0.05856,-0.03904
-0.03904,0.04392,-0.0488,-0.02928,-0.00976,-0.01464,0.03416,0.05856,0.00976,-0.0488,-0.05368,-0.03904
-0.03416,0.04392,-0.05368,-0.0366,-0.01952,-0.00732,0.03416,0.05856,0.00976,-0.0488,-0.05368,-0.03416
-0.03416,0.03904,-0.04392,-0.02684,-0.00976,-0.0122,0.03416,0.06344,0.01464,-0.0488,-0.0488,-0.03416
-0.02928,0.0366,-0.04392,-0.02928,-0.01464,-0.00732,0.03416,0.05856,0.01464,-0.0488,-0.04392,-0.02928
-0.0244,0.03172,-0.03904,-0.02684,-0.01464,-0.00488,0.03416,0.05856,0.01952,-0.04392,-0.03904,-0.02928
-0.01464,0.02684,-0.03904,-0.03172,-0.0244,0.00488,0.02928,0.05856,0.01464,-0.03904,-0.03904,-0.01952
-0.00488,0.01952,-0.03416,-0.03172,-0.02928,0.0122,0.02928,0.06344,0.01952,-0.03416,-0.03904,-0.01952
-0.00488,0.01464,-0.0244,-0.02196,-0.01952,0.00732,0.0244,0.06832,0.01952,-0.02928,-0.02928,-0.01464
0.00488,0.00732,-0.01952,-0.02196,-0.0244,0.01464,0.0244,0.07808,0.02928,-0.01952,-0.01952,0
0.01464,0,-0.01464,-0.02196,-0.02928,0.02196,0.0244,0.08296,0.03416,-0.01952,-0.00976,0
0.01952,-0.00244,-0.01464,-0.0244,-0.03416,0.02684,0.01952,0.08784,0.03416,-0.01464,-0.00976,0.00976
0.0244,-0.00976,-0.00488,-0.01708,-0.02928,0.02684,0.00976,0.09272,0.04392,-0.00488,0,0.01464
0.03416,-0.01708,0,-0.01708,-0.03416,0.03416,0.00976,0.0976,0.0488,0,0.00976,0.0244
0.04392,-0.02928,0.01464,-0.00732,-0.02928,0.0366,0.00976,0.0976,0.05368,0.00976,0.01952,0.03904
0.05856,-0.04392,0.02928,0,-0.02928,0.04392,0.00488,0.10248,0.06344,0.0244,0.02928,0.0488
0.06832,-0.05368,0.03904,0.00488,-0.02928,0.0488,0,0.10248,0.0732,0.03416,0.03904,0.06344
0.07808,-0.061,0.04392,0.00488,-0.03416,0.05612,0,0.10248,0.0732,0.04392,0.0488,0.07808
0.08784,-0.0732,0.05856,0.01464,-0.02928,0.05856,-0.00488,0.10736,0.0732,0.06344,0.06344,0.08296
0.10248,-0.0854,0.06832,0.01708,-0.03416,0.06832,-0.01464,0.10736,0.07808,0.06832,0.07808,0.10248
0.11224,-0.09516,0.07808,0.02196,-0.03416,0.0732,-0.01952,0.10248,0.08296,0.08296,0.08784,0.11224
0.122,-0.10248,0.08296,0.02196,-0.03904,0.08052,-0.02928,0.0976,0.08296,0.09272,0.0976,0.122
0.12688,-0.10736,0.08784,0.0244,-0.03904,0.08296,-0.02928,0.08784,0.08296,0.0976,0.10736,0.12688
0.12688,-0.1098,0.09272,0.02928,-0.03416,0.08052,-0.02928,0.08296,0.08296,0.10248,0.11712,0.13664
0.14152,-0.122,0.10248,0.03172,-0.03904,0.09028,-0.03416,0.07808,0.08296,0.11224,0.12688,0.1464
0.14152,-0.12932,0.11712,0.04636,-0.0244,0.08296,-0.0488,0.07808,0.08296,0.11712,0.12688,0.15616
0.14152,-0.12932,0.11712,0.04636,-0.0244,0.08296,-0.0488,0.0732,0.07808,0.11712,0.13664,0.15616
0.13664,-0.12688,0.11712,0.0488,-0.01952,0.07808,-0.0488,0.05856,0.0732,0.11712,0.13664,0.16104
0.13664,-0.12688,0.11712,0.0488,-0.01952,0.07808,-0.0488,0.0488,0.0732,0.122,0.14152,0.16104
0.13664,-0.12688,0.11712,0.0488,-0.01952,0.07808,-0.0488,0.03904,0.06832,0.122,0.14152,0.16104
0.13176,-0.12688,0.122,0.05612,-0.00976,0.07076,-0.05368,0.02928,0.05856,0.11712,0.13664,0.16104
0.12688,-0.12444,0.122,0.05856,-0.00488,0.06588,-0.05368,0.0244,0.05856,0.10736,0.13176,0.15128
0.11712,-0.11468,0.11224,0.05368,-0.00488,0.061,-0.0488,0.01464,0.05856,0.10736,0.122,0.14152
0.10248,-0.10248,0.10248,0.05124,0,0.05124,-0.03416,0.00976,0.0488,0.08784,0.11224,0.13176
0.08296,-0.08296,0.08296,0.04148,0,0.04148,-0.02928,0.00488,0.03904,0.0732,0.0976,0.11712
0.0732,-0.0732,0.0732,0.0366,0,0.0366,-0.02928,0,0.03416,0.06344,0.07808,0.0976
0.05368,-0.061,0.06832,0.04148,0.01464,0.01952,-0.01952,-0.00488,0.02928,0.05368,0.06832,0.08296
0.04392,-0.04392,0.04392,0.02196,0,0.02196,-0.00976,-0.00488,0.01952,0.02928,0.05368,0.06344
0.02928,-0.03172,0.03416,0.01952,0.00488,0.0122,-0.00488,-0.00976,0.01464,0.01464,0.03416,0.0488
0.01952,-0.01952,0.01952,0.00976,0,0.00976,0,-0.00976,0.00488,0,0.01952,0.02928
0.00488,-0.00732,0.00976,0.00732,0.00488,0,0.00488,-0.00488,0.00488,-0.01464,0.00976,0.01464
-0.00488,0,0.00488,0.00732,0.00976,-0.00732,0.01464,0,-0.00976,-0.02928,0,0.00488
-0.01464,0.01464,-0.01464,-0.00732,0,-0.00732,0.01952,-0.00488,-0.00976,-0.03416,-0.01464,-0.00488
-0.0244,0.02196,-0.01952,-0.00732,0.00488,-0.01464,0.0244,-0.00488,-0.01464,-0.03904,-0.01952,-0.01464
-0.03416,0.02928,-0.0244,-0.00732,0.00976,-0.02196,0.0244,-0.00488,-0.01952,-0.05368,-0.03416,-0.02928
-0.03904,0.03172,-0.0244,-0.00488,0.01464,-0.02684,0.0244,-0.00488,-0.01952,-0.06344,-0.04392,-0.02928
-0.04392,0.0366,-0.02928,-0.00732,0.01464,-0.02928,0.0244,-0.00488,-0.01952,-0.06344,-0.0488,-0.03416
-0.05368,0.04636,-0.03904,-0.0122,0.01464,-0.03416,0.0244,-0.00488,-0.0244,-0.06344,-0.05856,-0.03904
-0.05368,0.0488,-0.04392,-0.01708,0.00976,-0.03172,0.02928,-0.00488,-0.02928,-0.06832,-0.05856,-0.0488
-0.05856,0.05124,-0.04392,-0.01464,0.01464,-0.0366,0.03416,-0.00488,-0.02928,-0.0732,-0.05856,-0.0488
-0.05856,0.05368,-0.0488,-0.01952,0.00976,-0.03416,0.03416,-0.00488,-0.02928,-0.07808,-0.05856,-0.0488
-0.06344,0.05612,-0.0488,-0.01708,0.01464,-0.03904,0.03416,-0.00488,-0.02928,-0.07808,-0.05856,-0.0488
-0.06344,0.05368,-0.04392,-0.0122,0.01952,-0.04148,0.03904,-0.00488,-0.0244,-0.07808,-0.06344,-0.05368
-0.06344,0.05368,-0.04392,-0.0122,0.01952,-0.04148,0.03904,-0.00488,-0.0244,-0.07808,-0.06344,-0.05856
-0.06832,0.05856,-0.0488,-0.01464,0.01952,-0.04392,0.03904,-0.00488,-0.0244,-0.08296,-0.06344,-0.05856
-0.06832,0.061,-0.05368,-0.01952,0.01464,-0.04148,0.03904,-0.00488,-0.01952,-0.08296,-0.06344,-0.05856
-0.06832,0.061,-0.05368,-0.01952,0.01464,-0.04148,0.03904,0,-0.0244,-0.08296,-0.06344,-0.05856
-0.06832,0.05612,-0.04392,-0.00976,0.0244,-0.04636,0.03904,0,-0.02928,-0.08296,-0.06344,-0.05856
-0.06832,0.061,-0.05368,-0.01952,0.01464,-0.04148,0.03904,0.00488,-0.02928,-0.08296,-0.06344,-0.05856
-0.06832,0.061,-0.05368,-0.01952,0.01464,-0.04148,0.03904,0.00488,-0.02928,-0.08296,-0.06344,-0.05856
-0.0732,0.06344,-0.05368,-0.01708,0.01952,-0.04636,0.03904,0.00488,-0.02928,-0.08296,-0.06344,-0.05856
-0.0732,0.06344,-0.05368,-0.01708,0.01952,-0.04636,0.03904,0.00488,-0.0244,-0.08296,-0.06344,-0.05856
-0.0732,0.06344,-0.05368,-0.01708,0.01952,-0.04636,0.03904,0.00976,-0.0244,-0.08296,-0.06344,-0.05368
-0.0732,0.06344,-0.05368,-0.01708,0.01952,-0.04636,0.03904,0.00976,-0.0244,-0.07808,-0.06344,-0.05368
-0.0732,0.061,-0.0488,-0.0122,0.0244,-0.0488,0.03904,0.00976,-0.0244,-0.07808,-0.06344,-0.05368
-0.0732,0.061,-0.0488,-0.0122,0.0244,-0.0488,0.03904,0.00976,-0.01952,-0.07808,-0.06344,-0.05368
-0.07808,0.06344,-0.0488,-0.00976,0.02928,-0.05368,0.03904,0.01464,-0.01952,-0.07808,-0.06344,-0.05368
-0.08784,0.07076,-0.05368,-0.00976,0.03416,-0.061,0.03904,0.01464,-0.01952,-0.07808,-0.06344,-0.05368
-0.07808,0.06588,-0.05368,-0.01464,0.0244,-0.05124,0.03416,0.01464,-0.01952,-0.07808,-0.06344,-0.05368
-0.06344,0.05856,-0.05368,-0.02196,0.00976,-0.0366,0.03416,0.01464,-0.01952,-0.07808,-0.05856,-0.05368
-0.06344,0.05856,-0.05368,-0.02196,0.00976,-0.0366,0.03416,0.01464,-0.01952,-0.07808,-0.05856,-0.0488
-0.06344,0.05856,-0.05368,-0.02196,0.00976,-0.0366,0.03416,0.01464,-0.01952,-0.07808,-0.05856,-0.0488
-0.05856,0.05368,-0.0488,-0.01952,0.00976,-0.03416,0.03416,0.01464,-0.01952,-0.0732,-0.05856,-0.0488
-0.05856,0.05368,-0.0488,-0.01952,0.00976,-0.03416,0.03416,0.01464,-0.01952,-0.0732,-0.05856,-0.0488
-0.05856,0.05368,-0.0488,-0.01952,0.00976,-0.03416,0.03416,0.01464,-0.01952,-0.07808,-0.05856,-0.05368
-0.05856,0.05368,-0.0488,-0.01952,0.00976,-0.03416,0.03416,0.01464,-0.01952,-0.07808,-0.05856,-0.05368
-0.05368,0.05124,-0.0488,-0.02196,0.00488,-0.02928,0.03416,0.01464,-0.01952,-0.0732,-0.05856,-0.0488
-0.05368,0.05124,-0.0488,-0.02196,0.00488,-0.02928,0.03416,0.01464,-0.01952,-0.0732,-0.05856,-0.0488
-0.05368,0.05124,-0.0488,-0.02196,0.00488,-0.02928,0.03416,0.01464,-0.01952,-0.07808,-0.05856,-0.0488
-0.05368,0.05124,-0.0488,-0.02196,0.00488,-0.02928,0.03416,0.01464,-0.01952,-0.07808,-0.05856,-0.0488
-0.05368,0.05124,-0.0488,-0.02196,0.00488,-0.02928,0.03416,0.01464,-0.01952,-0.0732,-0.05856,-0.0488
-0.05368,0.05124,-0.0488,-0.02196,0.00488,-0.02928,0.03416,0.00976,-0.01464,-0.0732,-0.05856,-0.0488
-0.05368,0.05124,-0.0488,-0.02196,0.00488,-0.02928,0.03416,0.00976,-0.01464,-0.06832,-0.05856,-0.05368
-0.05368,0.05368,-0.05368,-0.02684,0,-0.02684,0.02928,0.00976,-0.01464,-0.06344,-0.05856,-0.05368
