i,aVR,ii,aVF,iii,aVL,V1,V2,V3,V4,V5,V6
-0.02928,-0.00732,0.04392,0.05856,0.0732,-0.05124,-0.05856,0.0244,0.76128,0.40016,0.06832,0.06832
-0.03904,-0.00244,0.04392,0.06344,0.08296,-0.061,-0.05856,0.01952,0.76616,0.41968,0.07808,0.0732
-0.03904,-0.00244,0.04392,0.06344,0.08296,-0.061,-0.05856,0.01952,0.7808,0.43432,0.09272,0.07808
-0.0488,0,0.0488,0.0732,0.0976,-0.0732,-0.06832,0.01464,0.79056,0.44408,0.10248,0.08784
-0.05856,0.00244,0.05368,0.08296,0.11224,-0.0854,-0.06832,0.00488,0.80032,0.45384,0.11224,0.10248
-0.06344,0.00488,0.05368,0.0854,0.11712,-0.09028,-0.0732,0.00488,0.81008,0.47336,0.122,0.11224
-0.06832,0.00732,0.05368,0.08784,0.122,-0.09516,-0.07808,0.00488,0.81984,0.48312,0.13176,0.122
-0.07808,0.00976,0.05856,0.0976,0.13664,-0.10736,-0.07808,0.00488,0.83936,0.50752,0.15616,0.13664
-0.08784,0.0122,0.06344,0.10736,0.15128,-0.11956,-0.08784,0.00488,0.854,0.53192,0.18056,0.16104
-0.0976,0.00976,0.07808,0.12688,0.17568,-0.13664,-0.09272,0,0.86376,0.55632,0.20008,0.17568
-0.10736,0.00976,0.08784,0.14152,0.1952,-0.15128,-0.0976,0,0.8784,0.58072,0.22448,0.19032
-0.11712,0.00976,0.0976,0.15616,0.21472,-0.16592,-0.11224,0,0.89304,0.60512,0.23912,0.20984
-0.12688,0.00976,0.10736,0.1708,0.23424,-0.18056,-0.122,-0.00488,0.90768,0.62464,0.25376,0.21472
-0.13664,0.0122,0.11224,0.18056,0.24888,-0.19276,-0.13176,-0.00976,0.91744,0.63928,0.26352,0.22936
-0.1464,0.00976,0.12688,0.20008,0.27328,-0.20984,-0.14152,-0.01464,0.9272,0.6588,0.28304,0.23912
-0.1464,0.00488,0.13664,0.20984,0.28304,-0.21472,-0.15128,-0.01464,0.9272,0.67344,0.28792,0.24888
-0.15128,0.00244,0.1464,0.22204,0.29768,-0.22448,-0.15616,-0.01464,0.93208,0.6832,0.29768,0.25376
-0.1464,-0.00244,0.15128,0.22448,0.29768,-0.22204,-0.15616,-0.00976,0.93208,0.6832,0.30256,0.26352
-0.14152,-0.00488,0.15128,0.22204,0.2928,-0.21716,-0.15616,-0.00488,0.93208,0.67832,0.30744,0.2684
-0.13664,-0.00732,0.15128,0.2196,0.28792,-0.21228,-0.16104,-0.00488,0.92232,0.67344,0.30744,0.27328
-0.13176,-0.00976,0.15128,0.21716,0.28304,-0.2074,-0.16592,-0.00488,0.91256,0.66368,0.30744,0.27328
-0.12688,-0.0122,0.15128,0.21472,0.27816,-0.20252,-0.16104,-0.00488,0.90768,0.65392,0.29768,0.27328
-0.122,-0.0122,0.1464,0.2074,0.2684,-0.1952,-0.15616,0,0.9028,0.64416,0.2928,0.26352
-0.10248,-0.01708,0.13664,0.18788,0.23912,-0.1708,-0.15616,0,0.89304,0.61976,0.27816,0.24888
-0.08784,-0.02196,0.13176,0.17568,0.2196,-0.15372,-0.1464,0.00488,0.87352,0.59536,0.24888,0.23424
-0.07808,-0.0244,0.12688,0.16592,0.20496,-0.14152,-0.14152,0.00488,0.854,0.57584,0.2196,0.20984
-0.06344,-0.02684,0.11712,0.14884,0.18056,-0.122,-0.12688,0.00976,0.83936,0.55632,0.20008,0.19032
-0.05368,-0.02684,0.10736,0.1342,0.16104,-0.10736,-0.11712,0.00976,0.81984,0.52216,0.17568,0.16592
-0.04392,-0.02684,0.0976,0.11956,0.14152,-0.09272,-0.10736,0.00488,0.79544,0.488,0.1464,0.1464
-0.03904,-0.0244,0.08784,0.10736,0.12688,-0.08296,-0.09272,0.00976,0.78568,0.47336,0.122,0.13176
-0.0244,-0.0244,0.0732,0.0854,0.0976,-0.061,-0.0732,0.01464,0.77104,0.45872,0.0976,0.11712
-0.00976,-0.02684,0.06344,0.06832,0.0732,-0.04148,-0.06832,0.00976,0.7564,0.43432,0.08296,0.11224
0,-0.02684,0.05368,0.05368,0.05368,-0.02684,-0.05856,0.00976,0.74176,0.4148,0.06344,0.0976
0.00976,-0.02928,0.0488,0.04392,0.03904,-0.01464,-0.0488,0.00488,0.732,0.40016,0.0488,0.08296
0.00976,-0.02928,0.0488,0.04392,0.03904,-0.01464,-0.03904,0,0.71736,0.3904,0.04392,0.07808
0.01464,-0.0244,0.03416,0.02684,0.01952,-0.00244,-0.0244,0,0.71248,0.37576,0.03416,0.06344
0.01952,-0.0244,0.02928,0.01952,0.00976,0.00488,-0.01952,0,0.7076,0.366,0.0244,0.05856
0.0244,-0.02684,0.02928,0.01708,0.00488,0.00976,-0.01464,0,0.69784,0.366,0.01464,0.0488
0.02928,-0.02928,0.02928,0.01464,0,0.01464,-0.00976,0,0.69296,0.36112,0.00488,0.0488
0.02928,-0.02684,0.0244,0.00976,-0.00488,0.01708,-0.00488,0,0.68808,0.36112,0.00488,0.0488
0.02928,-0.0244,0.01952,0.00488,-0.00976,0.01952,0,0,0.6832,0.35624,0,0.04392
0.02928,-0.02196,0.01464,0,-0.01464,0.02196,0.00488,0.00488,0.6832,0.35136,0,0.04392
0.02928,-0.01952,0.00976,-0.00488,-0.01952,0.0244,0.00976,0.00976,0.6832,0.35136,0,0.0488
0.02928,-0.01952,0.00976,-0.00488,-0.01952,0.0244,0.00976,0.00976,0.67832,0.34648,-0.00488,0.04392
0.02928,-0.01708,0.00488,-0.00976,-0.0244,0.02684,0.01464,0.00976,0.67832,0.34648,-0.00488,0.04392
0.02928,-0.01708,0.00488,-0.00976,-0.0244,0.02684,0.01464,0.00976,0.67832,0.35624,0,0.04392
0.02928,-0.01708,0.00488,-0.00976,-0.0244,0.02684,0.01464,0.01952,0.67832,0.36112,0,0.04392
0.0244,-0.00976,-0.00488,-0.01708,-0.02928,0.02684,0.01952,0.02928,0.6832,0.35624,0,0.04392
0.0244,-0.00732,-0.00976,-0.02196,-0.03416,0.02928,0.01952,0.03416,0.68808,0.35624,-0.00488,0.04392
0.0244,-0.00732,-0.00976,-0.02196,-0.03416,0.02928,0.01952,0.03904,0.68808,0.35136,-0.00488,0.04392
0.0244,-0.00732,-0.00976,-0.02196,-0.03416,0.02928,0.01952,0.04392,0.68808,0.35136,0,0.04392
0.0244,-0.00976,-0.00488,-0.01708,-0.02928,0.02684,0.01952,0.0488,0.6832,0.35136,-0.00488,0.04392
0.0244,-0.0122,0,-0.0122,-0.0244,0.0244,0.01952,0.0488,0.67832,0.35136,-0.00488,0.04392
0.01952,-0.00976,0,-0.00976,-0.01952,0.01952,0.01952,0.0488,0.6832,0.35136,-0.00488,0.03904
0.01952,-0.00976,0,-0.00976,-0.01952,0.01952,0.01952,0.05368,0.6832,0.35136,-0.00488,0.03416
0.01952,-0.00732,-0.00488,-0.01464,-0.0244,0.02196,0.01952,0.05368,0.67832,0.35136,0,0.03416
0.01952,-0.00732,-0.00488,-0.01464,-0.0244,0.02196,0.01952,0.05368,0.67832,0.35624,0,0.03416
0.01952,-0.00488,-0.00976,-0.01952,-0.02928,0.0244,0.01952,0.0488,0.6832,0.36112,0.00488,0.03416
0.01952,-0.00244,-0.01464,-0.0244,-0.03416,0.02684,0.01952,0.0488,0.68808,0.37088,0.00976,0.03904
0.01464,-0.00244,-0.00976,-0.01708,-0.0244,0.01952,0.01952,0.04392,0.6832,0.37088,0.00976,0.03904
0.00976,0,-0.00976,-0.01464,-0.01952,0.01464,0.01952,0.03904,0.6832,0.37088,0.00976,0.03904
0.00976,0,-0.00976,-0.01464,-0.01952,0.01464,0.01952,0.03416,0.6832,0.37088,0.00976,0.03904
0.00976,0,-0.00976,-0.01464,-0.01952,0.01464,0.01952,0.02928,0.6832,0.37088,0.00976,0.03904
0.01464,-0.00244,-0.00976,-0.01708,-0.0244,0.01952,0.01952,0.02928,0.67344,0.366,0.00488,0.03904
0.01464,-0.00244,-0.00976,-0.01708,-0.0244,0.01952,0.01464,0.0244,0.66856,0.35624,0,0.03416
0.01952,-0.00488,-0.00976,-0.01952,-0.02928,0.0244,0.01464,0.01952,0.66368,0.35136,-0.00488,0.02928
0.0244,-0.00732,-0.00976,-0.02196,-0.03416,0.02928,0.00976,0.01464,0.6588,0.34648,-0.00976,0.0244
0.0244,-0.00976,-0.00488,-0.01708,-0.02928,0.02684,0.00976,0.01464,0.64904,0.3416,-0.00976,0.0244
0.0244,-0.00976,-0.00488,-0.01708,-0.02928,0.02684,0.00976,0.00976,0.64416,0.3416,-0.00976,0.0244
0.0244,-0.0122,0,-0.0122,-0.0244,0.0244,0.00976,0.00976,0.64904,0.3416,-0.00976,0.0244
0.01952,-0.0122,0.00488,-0.00488,-0.01464,0.01708,0.00976,0.00976,0.64904,0.3416,-0.00976,0.0244
0.01952,-0.0122,0.00488,-0.00488,-0.01464,0.01708,0.00976,0.00976,0.65392,0.35136,-0.00488,0.0244
0.01952,-0.0122,0.00488,-0.00488,-0.01464,0.01708,0.00976,0.00976,0.6588,0.35624,0,0.0244
0.01464,-0.0122,0.00976,0.00244,-0.00488,0.00976,0.01464,0.00976,0.6588,0.35624,0,0.0244
0.00976,-0.00976,0.00976,0.00488,0,0.00488,0.01464,0.01952,0.6588,0.35624,0,0.0244
0.00488,-0.00732,0.00976,0.00732,0.00488,0,0.01464,0.01952,0.6588,0.35624,0.00488,0.0244
0,-0.00488,0.00976,0.00976,0.00976,-0.00488,0.01464,0.0244,0.6588,0.366,0.00488,0.0244
0,-0.00244,0.00488,0.00488,0.00488,-0.00244,0.01464,0.02928,0.66856,0.37088,0.01464,0.03416
0,-0.00244,0.00488,0.00488,0.00488,-0.00244,0.01464,0.03904,0.67344,0.37576,0.01952,0.03416
-0.00976,0.00732,-0.00488,0,0.00488,-0.00732,0.01952,0.04392,0.67832,0.37576,0.01952,0.03416
-0.01952,0.01464,-0.00976,0,0.00976,-0.01464,0.01952,0.05368,0.67832,0.37576,0.01952,0.03416
-0.02928,0.01952,-0.00976,0.00488,0.01952,-0.0244,0.01952,0.05856,0.6832,0.38064,0.01952,0.03416
-0.03904,0.0244,-0.00976,0.00976,0.02928,-0.03416,0.00488,0.05856,0.68808,0.38552,0.01952,0.03904
-0.03904,0.02928,-0.01952,0,0.01952,-0.02928,-0.00488,0.05368,0.67832,0.38064,0.01952,0.03904
-0.03904,0.03416,-0.02928,-0.00976,0.00976,-0.0244,-0.00976,0.04392,0.66856,0.37576,0.01464,0.03416
-0.03904,0.04636,-0.05368,-0.03416,-0.01464,-0.0122,-0.00976,0.03904,0.65392,0.37088,0.00976,0.0244
-0.03904,0.0488,-0.05856,-0.03904,-0.01952,-0.00976,-0.00976,0.03904,0.64416,0.366,0.00488,0.01952
-0.03416,0.04636,-0.05856,-0.04148,-0.0244,-0.00488,-0.00976,0.03904,0.6344,0.36112,0,0.01464
-0.03416,0.04392,-0.05368,-0.0366,-0.01952,-0.00732,-0.00976,0.03416,0.61976,0.34648,-0.00488,0.01464
-0.01952,0.03904,-0.05856,-0.0488,-0.03904,0.00976,-0.00976,0.0244,0.61488,0.33184,-0.00976,0.00488
-0.00488,0.02928,-0.05368,-0.05124,-0.0488,0.02196,-0.00488,0.01464,0.61488,0.32696,-0.01464,-0.00488
0.00976,0.01464,-0.03904,-0.04392,-0.0488,0.02928,0.00488,0.00976,0.61488,0.32208,-0.01464,-0.00488
0.01952,0.00244,-0.0244,-0.03416,-0.04392,0.03172,0.00976,0.00976,0.61488,0.32208,-0.01464,-0.00488
0.02928,-0.00732,-0.01464,-0.02928,-0.04392,0.0366,0.01464,0.00488,0.61488,0.33184,-0.01464,0
0.02928,-0.00732,-0.01464,-0.02928,-0.04392,0.0366,0.01952,0.00488,0.61488,0.33672,-0.01464,0.00488
0.02928,-0.00732,-0.01464,-0.02928,-0.04392,0.0366,0.01952,0.00488,0.61,0.33184,-0.00976,0.00488
0.02928,-0.00732,-0.01464,-0.02928,-0.04392,0.0366,0.01952,0,0.61,0.33184,-0.00976,0.00488
0.03416,-0.00976,-0.01464,-0.03172,-0.0488,0.04148,0.01952,0,0.61,0.33184,-0.00976,0.00976
0.03416,-0.00732,-0.01952,-0.0366,-0.05368,0.04392,0.01952,0,0.61,0.33184,-0.00976,0.00976
0.03416,-0.00732,-0.01952,-0.0366,-0.05368,0.04392,0.01952,0,0.61,0.32696,-0.00976,0.00976
0.03416,-0.00732,-0.01952,-0.0366,-0.05368,0.04392,0.01952,0,0.60512,0.32696,-0.01464,0.00976
0.03416,-0.00732,-0.01952,-0.0366,-0.05368,0.04392,0.01464,0,0.60512,0.32696,-0.01464,0.00976
0.03416,-0.00976,-0.01464,-0.03172,-0.0488,0.04148,0.00976,-0.00488,0.60024,0.32208,-0.01464,0.00976
0.03416,-0.00976,-0.01464,-0.03172,-0.0488,0.04148,0.00976,-0.00488,0.60024,0.32208,-0.01464,0.00976
0.03416,-0.00976,-0.01464,-0.03172,-0.0488,0.04148,0.00976,-0.00488,0.60024,0.32208,-0.01464,0.00976
0.03416,-0.00976,-0.01464,-0.03172,-0.0488,0.04148,0.00976,-0.00488,0.60024,0.3172,-0.01464,0.00976
0.03416,-0.00976,-0.01464,-0.03172,-0.0488,0.04148,0.00976,-0.00488,0.60024,0.3172,-0.00976,0.00976
0.03416,-0.00732,-0.01952,-0.0366,-0.05368,0.04392,0.01464,-0.00488,0.59536,0.3172,-0.00976,0.00976
0.03416,-0.00488,-0.0244,-0.04148,-0.05856,0.04636,0.01952,0,0.59048,0.3172,-0.00976,0.00976
0.02928,0.00244,-0.03416,-0.0488,-0.06344,0.04636,0.02928,0.00976,0.56608,0.2928,-0.0244,0.00976
0.0244,0.00732,-0.03904,-0.05124,-0.06344,0.04392,0.03416,0.01464,0.58072,0.2928,-0.02928,0.00976
0.02928,-0.00976,-0.00976,-0.0244,-0.03904,0.03416,0.03904,0.0244,0.64416,0.3416,-0.00488,0.00976
0,-0.03172,0.06344,0.06344,0.06344,-0.03172,0.01952,0.02928,0.83936,0.56608,0.15128,0.0976
-0.06832,-0.07808,0.22448,0.25864,0.2928,-0.18056,-0.0244,0.02928,1.15656,0.9516,0.4148,0.2684
-0.13664,-0.11224,0.36112,0.42944,0.49776,-0.3172,-0.09272,0.02928,1.50792,1.38104,0.70272,0.44896
-0.21472,-0.18788,0.59048,0.69784,0.8052,-0.50996,-0.15616,0.00488,1.98128,2.00568,1.10776,0.69784
-0.25864,-0.23424,0.72712,0.85644,0.98576,-0.6222,-0.18544,0,2.12768,2.23016,1.26392,0.81496
-0.30256,-0.0976,0.49776,0.64904,0.80032,-0.55144,-0.1708,0.00488,1.89832,1.83976,1.0492,0.72224
-0.30256,0.03172,0.23912,0.3904,0.54168,-0.42212,-0.1708,-0.01952,1.44448,1.3176,0.74664,0.59536
-0.12688,0.02196,0.08296,0.1464,0.20984,-0.16836,-0.0976,-0.07808,0.58072,0.49288,0.34648,0.40016
0.1464,-0.11956,0.09272,0.01952,-0.05368,0.10004,-0.05368,-0.22936,-0.14152,-0.14152,0.03904,0.2684
0.25864,-0.16592,0.0732,-0.05612,-0.18544,0.22204,-0.05368,-0.31232,-0.22936,-0.22936,-0.05856,0.19032
0.25864,-0.13176,0.00488,-0.12444,-0.25376,0.2562,-0.0488,-0.2928,-0.23424,-0.25864,-0.12688,0.12688
0.21472,-0.06832,-0.07808,-0.18544,-0.2928,0.25376,-0.0488,-0.19032,-0.14152,-0.25376,-0.17568,0.05368
0.16592,-0.0244,-0.11712,-0.20008,-0.28304,0.22448,-0.01952,-0.08784,0,-0.18056,-0.20496,0.00488
0.11712,-0.00732,-0.10248,-0.16104,-0.2196,0.16836,0.0244,-0.01952,0.18544,0.00488,-0.15128,0.00488
0.07808,0.00732,-0.09272,-0.13176,-0.1708,0.12444,0.06344,0.01952,0.32208,0.10736,-0.122,0.00488
0.06344,0.01464,-0.09272,-0.12444,-0.15616,0.1098,0.08296,0.08296,0.3904,0.12688,-0.10248,0.00488
0.03904,0.02684,-0.09272,-0.11224,-0.13176,0.0854,0.09272,0.14152,0.46848,0.18544,-0.08296,0.00488
0.02928,0.02928,-0.08784,-0.10248,-0.11712,0.0732,0.09272,0.13664,0.54168,0.2684,-0.05368,0.00976
0.01952,0.02684,-0.0732,-0.08296,-0.09272,0.05612,0.08784,0.122,0.5612,0.28792,-0.04392,0.00976
0.01952,0.01708,-0.05368,-0.06344,-0.0732,0.04636,0.06832,0.0976,0.57096,0.28792,-0.02928,0.01952
0.01952,0.00732,-0.03416,-0.04392,-0.05368,0.0366,0.04392,0.08784,0.59048,0.31232,-0.0244,0.02928
0.01952,0,-0.01952,-0.02928,-0.03904,0.02928,0.03416,0.06344,0.61,0.33184,0,0.03416
0.01952,-0.00244,-0.01464,-0.0244,-0.03416,0.02684,0.0244,0.0488,0.61488,0.34648,0.01464,0.03904
0.01952,-0.00732,-0.00488,-0.01464,-0.0244,0.02196,0.0244,0.04392,0.62464,0.34648,0.01952,0.04392
0.01952,-0.0122,0.00488,-0.00488,-0.01464,0.01708,0.01952,0.03904,0.62464,0.35624,0.0244,0.0488
0.01464,-0.00976,0.00488,-0.00244,-0.00976,0.0122,0.01464,0.03416,0.62952,0.36112,0.02928,0.0488
0.01464,-0.00976,0.00488,-0.00244,-0.00976,0.0122,0.01464,0.03416,0.6344,0.37088,0.02928,0.0488
0.01464,-0.0122,0.00976,0.00244,-0.00488,0.00976,0.01464,0.03416,0.63928,0.37576,0.0244,0.05368
0.00488,-0.00732,0.00976,0.00732,0.00488,0,0.01464,0.03416,0.64416,0.38064,0.0244,0.05368
0,-0.00488,0.00976,0.00976,0.00976,-0.00488,0.00488,0.02928,0.64904,0.38552,0.03416,0.06832
-0.00488,-0.00244,0.00976,0.0122,0.01464,-0.00976,0,0.02928,0.64904,0.38552,0.03416,0.0732
-0.00488,-0.00488,0.01464,0.01708,0.01952,-0.0122,-0.00976,0.02928,0.65392,0.3904,0.04392,0.0732
-0.00976,-0.00244,0.01464,0.01952,0.0244,-0.01708,-0.00976,0.0244,0.6588,0.39528,0.05368,0.08296
-0.00976,-0.00244,0.01464,0.01952,0.0244,-0.01708,-0.00976,0.0244,0.66368,0.40016,0.05368,0.08296
-0.01464,-0.00244,0.01952,0.02684,0.03416,-0.0244,-0.01464,0.0244,0.66856,0.40504,0.05856,0.08784
-0.01952,0.00244,0.01464,0.0244,0.03416,-0.02684,-0.01952,0.01952,0.67832,0.4148,0.06344,0.08784
-0.01952,0.00244,0.01464,0.0244,0.03416,-0.02684,-0.01952,0.01464,0.6832,0.41968,0.06832,0.08784
-0.02928,0.00488,0.01952,0.03416,0.0488,-0.03904,-0.01952,0.00976,0.68808,0.4392,0.0732,0.09272
-0.02928,0.00244,0.0244,0.03904,0.05368,-0.04148,-0.01952,0.00976,0.70272,0.45384,0.08296,0.0976
-0.03416,0.00488,0.0244,0.04148,0.05856,-0.04636,-0.02928,0.00976,0.71736,0.4636,0.09272,0.0976
-0.03904,0.00732,0.0244,0.04392,0.06344,-0.05124,-0.02928,0.00488,0.732,0.47336,0.10248,0.10248
-0.04392,0.00732,0.02928,0.05124,0.0732,-0.05856,-0.02928,0.00488,0.74176,0.49288,0.11224,0.11224
-0.0488,0.00732,0.03416,0.05856,0.08296,-0.06588,-0.02928,0.00488,0.75152,0.50264,0.122,0.122
-0.05856,0.00976,0.03904,0.06832,0.0976,-0.07808,-0.02928,0.00488,0.76616,0.52704,0.14152,0.13176
-0.06832,0.0122,0.04392,0.07808,0.11224,-0.09028,-0.03904,0.00488,0.77592,0.55144,0.16104,0.15128
-0.07808,0.00976,0.05856,0.0976,0.13664,-0.10736,-0.04392,0,0.79544,0.57584,0.18056,0.16592
-0.08784,0.00976,0.06832,0.11224,0.15616,-0.122,-0.0488,0,0.81984,0.60024,0.20496,0.18056
-0.0976,0.00732,0.08296,0.13176,0.18056,-0.13908,-0.06344,0,0.83936,0.62952,0.22936,0.20496
-0.10736,0.00488,0.0976,0.15128,0.20496,-0.15616,-0.0732,-0.00488,0.85888,0.65392,0.25376,0.21472
-0.11712,0.00488,0.10736,0.16592,0.22448,-0.1708,-0.08296,-0.00488,0.86864,0.67344,0.26352,0.22936
-0.12688,0,0.12688,0.19032,0.25376,-0.19032,-0.09272,-0.00488,0.8784,0.69784,0.28304,0.23912
-0.12688,-0.00244,0.13176,0.1952,0.25864,-0.19276,-0.10736,0,0.88328,0.71248,0.2928,0.25376
-0.13176,-0.00244,0.13664,0.20252,0.2684,-0.20008,-0.11712,0.00488,0.89304,0.72224,0.30744,0.26352
-0.12688,-0.00732,0.14152,0.20496,0.2684,-0.19764,-0.122,0.00488,0.89304,0.72712,0.31232,0.27328
-0.122,-0.00976,0.14152,0.20252,0.26352,-0.19276,-0.12688,0.00488,0.89304,0.72712,0.3172,0.27816
-0.122,-0.0122,0.1464,0.2074,0.2684,-0.1952,-0.12688,0.00488,0.89304,0.732,0.32208,0.28304
-0.122,-0.01464,0.15128,0.21228,0.27328,-0.19764,-0.12688,0.00488,0.89304,0.732,0.32696,0.28304
-0.11712,-0.01708,0.15128,0.20984,0.2684,-0.19276,-0.12688,0,0.88816,0.72224,0.3172,0.28792
-0.11224,-0.01708,0.1464,0.20252,0.25864,-0.18544,-0.12688,0,0.88328,0.71248,0.31232,0.28304
-0.0976,-0.0244,0.1464,0.1952,0.244,-0.1708,-0.12688,0,0.86864,0.68808,0.30256,0.2684
-0.08784,-0.03172,0.15128,0.1952,0.23912,-0.16348,-0.11712,0.00488,0.84424,0.66368,0.27816,0.25376
-0.08296,-0.02928,0.14152,0.183,0.22448,-0.15372,-0.11712,0.00488,0.8296,0.64904,0.24888,0.23424
-0.0732,-0.02684,0.12688,0.16348,0.20008,-0.13664,-0.10736,0.00976,0.81984,0.6344,0.22936,0.2196
-0.05856,-0.0244,0.10736,0.13664,0.16592,-0.11224,-0.0976,0.00976,0.80032,0.60024,0.20496,0.1952
-0.04392,-0.02196,0.08784,0.1098,0.13176,-0.08784,-0.08784,0.00488,0.77592,0.56608,0.17568,0.17568
-0.03904,-0.01708,0.0732,0.09272,0.11224,-0.07564,-0.0732,0.00488,0.7564,0.54168,0.15128,0.15616
-0.0244,-0.01464,0.05368,0.06588,0.07808,-0.05124,-0.05368,0.00488,0.732,0.51728,0.12688,0.13664
-0.00976,-0.01708,0.04392,0.0488,0.05368,-0.03172,-0.0488,0,0.71736,0.49288,0.11224,0.12688
0,-0.01708,0.03416,0.03416,0.03416,-0.01708,-0.03904,0,0.70272,0.47336,0.09272,0.10736
0.00976,-0.01708,0.0244,0.01952,0.01464,-0.00244,-0.0244,0,0.68808,0.45872,0.0732,0.08784
0.00976,-0.01464,0.01952,0.01464,0.00976,0,-0.00976,0,0.66856,0.44896,0.06344,0.07808
0.01464,-0.00976,0.00488,-0.00244,-0.00976,0.0122,0,0,0.6588,0.42944,0.05368,0.06344
0.01952,-0.00976,0,-0.00976,-0.01952,0.01952,0,0,0.64904,0.4148,0.04392,0.05856
0.0244,-0.00732,-0.00976,-0.02196,-0.03416,0.02928,0.00488,0,0.63928,0.40992,0.03416,0.05368
0.02928,-0.00488,-0.01952,-0.03416,-0.0488,0.03904,0.00976,0,0.6344,0.40016,0.0244,0.05856
0.02928,-0.00244,-0.0244,-0.03904,-0.05368,0.04148,0.01464,-0.00488,0.62952,0.40016,0.0244,0.05368
0.02928,0,-0.02928,-0.04392,-0.05856,0.04392,0.01952,-0.00976,0.62464,0.39528,0.01952,0.04392
0.02928,0,-0.02928,-0.04392,-0.05856,0.04392,0.01952,-0.00976,0.61976,0.38552,0.01464,0.03904
0.02928,0,-0.02928,-0.04392,-0.05856,0.04392,0.01952,-0.00976,0.61488,0.38064,0.00976,0.03904
0.03416,-0.00488,-0.0244,-0.04148,-0.05856,0.04636,0.01952,-0.00976,0.60512,0.37576,0,0.02928
0.03904,-0.00732,-0.0244,-0.04392,-0.06344,0.05124,0.0244,-0.00976,0.60024,0.37576,-0.00488,0.0244
0.03904,-0.00732,-0.0244,-0.04392,-0.06344,0.05124,0.0244,-0.00976,0.60024,0.37576,-0.00488,0.0244
0.03904,-0.00732,-0.0244,-0.04392,-0.06344,0.05124,0.0244,0,0.60024,0.37088,-0.00976,0.0244
0.03416,-0.00244,-0.02928,-0.04636,-0.06344,0.0488,0.02928,0.00488,0.60024,0.366,-0.00976,0.01952
0.03416,-0.00244,-0.02928,-0.04636,-0.06344,0.0488,0.02928,0.00488,0.60024,0.366,-0.01464,0.01464
0.02928,0.00244,-0.03416,-0.0488,-0.06344,0.04636,0.02928,0.01952,0.60512,0.366,-0.01464,0.01464
0.0244,0.00732,-0.03904,-0.05124,-0.06344,0.04392,0.02928,0.03416,0.61,0.37088,-0.00976,0.01464
0.0244,0.00976,-0.04392,-0.05612,-0.06832,0.04636,0.02928,0.0488,0.61,0.38064,0,0.0244
0.0244,0.0122,-0.0488,-0.061,-0.0732,0.0488,0.02928,0.05856,0.61,0.3904,0.01464,0.03416
0.01952,0.01464,-0.0488,-0.05856,-0.06832,0.04392,0.0244,0.05856,0.61488,0.3904,0.01464,0.03416
0.01952,0.01464,-0.0488,-0.05856,-0.06832,0.04392,0.01952,0.06344,0.61488,0.3904,0.01464,0.03416
0.01952,0.0122,-0.04392,-0.05368,-0.06344,0.04148,0.01952,0.06344,0.61488,0.3904,0.01952,0.02928
0.01952,0.00732,-0.03416,-0.04392,-0.05368,0.0366,0.01952,0.06344,0.61976,0.3904,0.01952,0.0244
0.01952,0.00732,-0.03416,-0.04392,-0.05368,0.0366,0.01464,0.06344,0.61976,0.39528,0.01952,0.0244
0.01952,0.00732,-0.03416,-0.04392,-0.05368,0.0366,0.00976,0.06344,0.61976,0.39528,0.01952,0.01952
0.01952,0.00732,-0.03416,-0.04392,-0.05368,0.0366,0.00976,0.05856,0.61976,0.39528,0.01952,0.01952
0.01952,0.00732,-0.03416,-0.04392,-0.05368,0.0366,0.00976,0.05856,0.61976,0.40016,0.01952,0.01952
0.01952,0.00732,-0.03416,-0.04392,-0.05368,0.0366,0.00488,0.05856,0.61976,0.40016,0.01952,0.01952
0.01952,0.00976,-0.03904,-0.0488,-0.05856,0.03904,0,0.05856,0.62464,0.40016,0.01952,0.01952
0.01952,0.00976,-0.03904,-0.0488,-0.05856,0.03904,0,0.05856,0.61976,0.40504,0.01952,0.01464
0.01952,0.00976,-0.03904,-0.0488,-0.05856,0.03904,0,0.05856,0.61488,0.40992,0.01952,0.00976
0.01464,0.0122,-0.03904,-0.04636,-0.05368,0.03416,0.00488,0.05856,0.61,0.40992,0.01952,0.00976
0.00976,0.01464,-0.03904,-0.04392,-0.0488,0.02928,0.00488,0.05368,0.60512,0.40504,0.01464,0.00488
0.00976,0.01464,-0.03904,-0.04392,-0.0488,0.02928,0.00488,0.0488,0.60512,0.40504,0.01464,0.00488
0.01464,0.0122,-0.03904,-0.04636,-0.05368,0.03416,0,0.04392,0.60024,0.40504,0.00976,0.00488
0.01464,0.0122,-0.03904,-0.04636,-0.05368,0.03416,0,0.04392,0.59536,0.39528,0.00976,0.00488
0.01464,0.01464,-0.04392,-0.05124,-0.05856,0.0366,0,0.03904,0.59536,0.3904,0.00976,0.00488
0.01464,0.01464,-0.04392,-0.05124,-0.05856,0.0366,0.00488,0.03904,0.60024,0.3904,0.00976,0.00488
0.00976,0.01708,-0.04392,-0.0488,-0.05368,0.03172,0.00976,0.03904,0.60024,0.3904,0.00976,0.00488
0.00976,0.01952,-0.0488,-0.05368,-0.05856,0.03416,0.00976,0.04392,0.60024,0.39528,0.01464,0.00488
0.00976,0.02196,-0.05368,-0.05856,-0.06344,0.0366,0.00976,0.0488,0.60024,0.39528,0.01952,0.00488
0.00976,0.03172,-0.0732,-0.07808,-0.08296,0.04636,0.01952,0.05368,0.61,0.40504,0.0244,0.00976
0.00976,0.04392,-0.0976,-0.10248,-0.10736,0.05856,0.0244,0.06832,0.61976,0.4148,0.02928,0.01464
0.00488,0.05368,-0.11224,-0.11468,-0.11712,0.061,0.02928,0.07808,0.62464,0.41968,0.04392,0.01952
0,0.06344,-0.12688,-0.12688,-0.12688,0.06344,0.03416,0.09272,0.62952,0.43432,0.05368,0.0244
-0.00488,0.07808,-0.15128,-0.14884,-0.1464,0.07076,0.03416,0.0976,0.63928,0.4392,0.06344,0.03904
-0.00976,0.09028,-0.1708,-0.16592,-0.16104,0.07564,0.03416,0.10736,0.64416,0.44408,0.06832,0.04392
-0.01464,0.10004,-0.18544,-0.17812,-0.1708,0.07808,0.03904,0.11712,0.65392,0.44896,0.0732,0.04392
-0.01952,0.10736,-0.1952,-0.18544,-0.17568,0.07808,0.03904,0.13176,0.6588,0.45384,0.07808,0.04392
-0.0244,0.11224,-0.20008,-0.18788,-0.17568,0.07564,0.04392,0.13664,0.6588,0.45872,0.07808,0.04392
-0.02928,0.11712,-0.20496,-0.19032,-0.17568,0.0732,0.03416,0.13664,0.6588,0.4636,0.07808,0.0488
-0.02928,0.12688,-0.22448,-0.20984,-0.1952,0.08296,0.0244,0.13176,0.65392,0.4636,0.08296,0.0488
-0.02928,0.13664,-0.244,-0.22936,-0.21472,0.09272,0.01952,0.122,0.64904,0.4636,0.08296,0.04392
-0.02928,0.14884,-0.2684,-0.25376,-0.23912,0.10492,0.01952,0.122,0.63928,0.45872,0.07808,0.03904
-0.02928,0.15128,-0.27328,-0.25864,-0.244,0.10736,0.01952,0.12688,0.6344,0.45384,0.0732,0.03904
-0.0244,0.15128,-0.27816,-0.26596,-0.25376,0.11468,0.01952,0.13176,0.6344,0.45384,0.0732,0.03416
-0.0244,0.15128,-0.27816,-0.26596,-0.25376,0.11468,0.01952,0.13176,0.62952,0.44408,0.0732,0.03416
-0.01464,0.15372,-0.2928,-0.28548,-0.27816,0.13176,0.01952,0.12688,0.62464,0.43432,0.06832,0.02928
-0.00488,0.15128,-0.29768,-0.29524,-0.2928,0.14396,0.0244,0.122,0.62464,0.43432,0.06344,0.0244
0.00976,0.13908,-0.28792,-0.2928,-0.29768,0.15372,0.03416,0.11712,0.62464,0.42944,0.06344,0.0244
0.01952,0.12932,-0.27816,-0.28792,-0.29768,0.1586,0.03904,0.11712,0.62464,0.42944,0.06344,0.0244
0.02928,0.11956,-0.2684,-0.28304,-0.29768,0.16348,0.03904,0.11224,0.62464,0.43432,0.06344,0.0244
0.02928,0.11956,-0.2684,-0.28304,-0.29768,0.16348,0.03904,0.11224,0.62464,0.43432,0.06344,0.0244
0.02928,0.11712,-0.26352,-0.27816,-0.2928,0.16104,0.03904,0.11712,0.61976,0.42944,0.06832,0.0244
0.02928,0.11468,-0.25864,-0.27328,-0.28792,0.1586,0.03904,0.11712,0.61976,0.42944,0.06832,0.0244
0.03416,0.1098,-0.25376,-0.27084,-0.28792,0.16104,0.03904,0.11712,0.61976,0.42944,0.06344,0.0244
0.03416,0.1098,-0.25376,-0.27084,-0.28792,0.16104,0.03904,0.11712,0.61976,0.42944,0.05856,0.01952
0.03416,0.1098,-0.25376,-0.27084,-0.28792,0.16104,0.03904,0.11712,0.61976,0.42456,0.05856,0.01464
0.03416,0.1098,-0.25376,-0.27084,-0.28792,0.16104,0.03904,0.11712,0.61488,0.42456,0.05368,0.00976
0.03416,0.1098,-0.25376,-0.27084,-0.28792,0.16104,0.03416,0.11712,0.61488,0.42456,0.05368,0.00976
0.03416,0.10736,-0.24888,-0.26596,-0.28304,0.1586,0.02928,0.11224,0.61,0.41968,0.05368,0.00976
0.03416,0.1098,-0.25376,-0.27084,-0.28792,0.16104,0.02928,0.11712,0.61,0.42456,0.05856,0.00976
0.03416,0.11224,-0.25864,-0.27572,-0.2928,0.16348,0.02928,0.122,0.61,0.42944,0.06344,0.00976
0.03416,0.11468,-0.26352,-0.2806,-0.29768,0.16592,0.02928,0.122,0.61,0.42944,0.06344,0.00976
0.03416,0.11712,-0.2684,-0.28548,-0.30256,0.16836,0.02928,0.122,0.61,0.43432,0.06832,0.00976
0.03416,0.122,-0.27816,-0.29524,-0.31232,0.17324,0.03416,0.122,0.61,0.43432,0.06344,0.00488
0.03416,0.12688,-0.28792,-0.305,-0.32208,0.17812,0.03904,0.12688,0.61,0.43432,0.05856,0
0.02928,0.12688,-0.28304,-0.29768,-0.31232,0.1708,0.04392,0.13664,0.60512,0.42456,0.0488,-0.00488
0.0244,0.12444,-0.27328,-0.28548,-0.29768,0.16104,0.04392,0.14152,0.63928,0.4392,0.0488,-0.00976
0.01464,0.10004,-0.21472,-0.22204,-0.22936,0.122,0.03904,0.1464,0.75152,0.55144,0.11712,0.0244
-0.02928,0.07076,-0.11224,-0.0976,-0.08296,0.02684,0.00976,0.1464,0.99552,0.83936,0.3172,0.1464
-0.09272,0.0244,0.04392,0.09028,0.13664,-0.11468,-0.03904,0.14152,1.3176,1.22488,0.58072,0.32208
-0.15616,-0.00976,0.17568,0.25376,0.33184,-0.244,-0.11224,0.13664,1.67384,1.65432,0.86864,0.50752
-0.22448,-0.05856,0.3416,0.45384,0.56608,-0.39528,-0.16592,0.10736,2.02032,2.14232,1.18584,0.71248
-0.25864,-0.07808,0.4148,0.54412,0.67344,-0.46604,-0.18544,0.0976,2.03984,2.23016,1.25416,0.78568
-0.27816,0.05124,0.17568,0.31476,0.45384,-0.366,-0.1708,0.10248,1.75192,1.79096,1.01016,0.67344
-0.25376,0.17324,-0.09272,0.03416,0.16104,-0.2074,-0.1708,0.07808,1.23952,1.22,0.67832,0.52704
-0.09272,0.16836,-0.244,-0.19764,-0.15128,0.02928,-0.09272,0.0244,0.45872,0.47824,0.3172,0.3416
0.16592,0.03172,-0.22936,-0.31232,-0.39528,0.2806,-0.04392,-0.122,-0.18056,-0.0732,0.0488,0.2196
0.25376,0,-0.25376,-0.38064,-0.50752,0.38064,-0.04392,-0.17568,-0.21472,-0.12688,-0.03904,0.1464
0.22936,0.0488,-0.32696,-0.44164,-0.55632,0.39284,-0.03904,-0.12688,-0.16592,-0.122,-0.0976,0.08784
0.18544,0.10492,-0.39528,-0.488,-0.58072,0.38308,-0.02928,-0.0244,-0.05368,-0.08296,-0.122,0.02928
0.13664,0.14152,-0.41968,-0.488,-0.55632,0.34648,0.00976,0.07808,0.10736,0.0244,-0.12688,-0.00488
0.09272,0.1464,-0.38552,-0.43188,-0.47824,0.28548,0.0488,0.13664,0.27328,0.18544,-0.0732,-0.00488
0.05856,0.14884,-0.35624,-0.38552,-0.4148,0.23668,0.08296,0.16592,0.3904,0.26352,-0.04392,-0.00488
0.04392,0.15616,-0.35624,-0.3782,-0.40016,0.22204,0.0976,0.21472,0.44408,0.28304,-0.02928,-0.00488
0.01952,0.16836,-0.35624,-0.366,-0.37576,0.19764,0.10248,0.25864,0.50752,0.3416,-0.01464,-0.00488
0.01464,0.16836,-0.35136,-0.35868,-0.366,0.19032,0.10248,0.24888,0.57584,0.40992,0.01464,0
0.00976,0.16348,-0.33672,-0.3416,-0.34648,0.17812,0.0976,0.22936,0.59048,0.4148,0.0244,0
0.00976,0.15616,-0.32208,-0.32696,-0.33184,0.1708,0.0732,0.20496,0.60024,0.4148,0.03904,0.00976
0.00976,0.14884,-0.30744,-0.31232,-0.3172,0.16348,0.04392,0.1952,0.61976,0.4392,0.04392,0.01952
0.00976,0.13908,-0.28792,-0.2928,-0.29768,0.15372,0.03904,0.1708,0.6344,0.45384,0.05856,0.02928
0.00976,0.1342,-0.27816,-0.28304,-0.28792,0.14884,0.03416,0.15616,0.6344,0.4636,0.06344,0.03904
0.00976,0.1342,-0.27816,-0.28304,-0.28792,0.14884,0.03416,0.15616,0.64904,0.4636,0.06832,0.04392
0.00976,0.1342,-0.27816,-0.28304,-0.28792,0.14884,0.02928,0.15616,0.65392,0.47336,0.0732,0.0488
0.00488,0.13664,-0.27816,-0.2806,-0.28304,0.14396,0.01952,0.15128,0.6588,0.47824,0.07808,0.0488
0.00488,0.13664,-0.27816,-0.2806,-0.28304,0.14396,0.01464,0.15128,0.66368,0.488,0.07808,0.0488
0.00488,0.1342,-0.27328,-0.27572,-0.27816,0.14152,0.01464,0.15128,0.66856,0.49288,0.07808,0.05368
-0.00488,0.13908,-0.27328,-0.27084,-0.2684,0.13176,0.01464,0.15128,0.67344,0.49776,0.08296,0.05368
-0.00488,0.13908,-0.27328,-0.27084,-0.2684,0.13176,0.00976,0.15128,0.67832,0.50752,0.09272,0.06832
-0.00488,0.13908,-0.27328,-0.27084,-0.2684,0.13176,0.00976,0.15616,0.67832,0.5124,0.09272,0.0732
-0.00488,0.1342,-0.26352,-0.26108,-0.25864,0.12688,0,0.15616,0.6832,0.51728,0.0976,0.0732
-0.00976,0.1342,-0.25864,-0.25376,-0.24888,0.11956,0,0.15128,0.68808,0.52216,0.10248,0.08296
-0.00976,0.1342,-0.25864,-0.25376,-0.24888,0.11956,0.00488,0.1464,0.69296,0.52704,0.10248,0.08296
-0.01464,0.1342,-0.25376,-0.24644,-0.23912,0.11224,0.00488,0.14152,0.69784,0.53192,0.10736,0.08784
-0.01952,0.13908,-0.25864,-0.24888,-0.23912,0.1098,0,0.14152,0.7076,0.54168,0.11224,0.09272
-0.01952,0.13908,-0.25864,-0.24888,-0.23912,0.1098,0,0.14152,0.71248,0.54656,0.11712,0.0976
-0.02928,0.14152,-0.25376,-0.23912,-0.22448,0.0976,0,0.13664,0.71736,0.5612,0.122,0.10248
-0.02928,0.13908,-0.24888,-0.23424,-0.2196,0.09516,0,0.13664,0.732,0.57096,0.13176,0.10736
-0.03416,0.13664,-0.23912,-0.22204,-0.20496,0.0854,-0.00976,0.13664,0.74664,0.58072,0.14152,0.11224
-0.03904,0.1342,-0.22936,-0.20984,-0.19032,0.07564,-0.00976,0.13176,0.76128,0.59048,0.15128,0.122
-0.04392,0.1342,-0.22448,-0.20252,-0.18056,0.06832,-0.01952,0.13176,0.77104,0.61488,0.16104,0.13176
-0.0488,0.1342,-0.2196,-0.1952,-0.1708,0.061,-0.02928,0.13176,0.7808,0.62952,0.1708,0.14152
-0.05856,0.1342,-0.20984,-0.18056,-0.15128,0.04636,-0.02928,0.13176,0.80032,0.65392,0.19032,0.1464
-0.06832,0.1342,-0.20008,-0.16592,-0.13176,0.03172,-0.03904,0.13176,0.81496,0.67832,0.20984,0.16104
-0.07808,0.12932,-0.18056,-0.14152,-0.10248,0.0122,-0.04392,0.12688,0.83448,0.70272,0.22936,0.17568
-0.08784,0.12688,-0.16592,-0.122,-0.07808,-0.00488,-0.0488,0.12688,0.85888,0.72712,0.25376,0.19032
-0.09272,0.12444,-0.15616,-0.1098,-0.06344,-0.01464,-0.05856,0.13176,0.8784,0.7564,0.27816,0.2196
-0.0976,0.122,-0.1464,-0.0976,-0.0488,-0.0244,-0.06344,0.13176,0.89792,0.7808,0.30256,0.23424
-0.10736,0.122,-0.13664,-0.08296,-0.02928,-0.03904,-0.0732,0.13176,0.91256,0.8052,0.3172,0.25376
-0.11712,0.11712,-0.11712,-0.05856,0,-0.05856,-0.08296,0.13176,0.9272,0.83448,0.3416,0.2684
-0.11712,0.11224,-0.10736,-0.0488,0.00976,-0.06344,-0.0976,0.13176,0.93208,0.84912,0.35136,0.28304
-0.122,0.1098,-0.0976,-0.0366,0.0244,-0.0732,-0.10736,0.13176,0.94184,0.85888,0.366,0.2928
-0.12688,0.1098,-0.09272,-0.02928,0.03416,-0.08052,-0.11224,0.12688,0.94184,0.86376,0.37088,0.30256
-0.13176,0.11224,-0.09272,-0.02684,0.03904,-0.0854,-0.11712,0.122,0.94184,0.86376,0.37576,0.30744
-0.13176,0.1098,-0.08784,-0.02196,0.04392,-0.08784,-0.12688,0.11712,0.93696,0.86376,0.38064,0.31232
-0.13176,0.10736,-0.08296,-0.01708,0.0488,-0.09028,-0.13664,0.11224,0.93208,0.85888,0.38552,0.31232
-0.12688,0.10248,-0.07808,-0.01464,0.0488,-0.08784,-0.13664,0.10736,0.9272,0.84912,0.37576,0.31232
-0.122,0.10004,-0.07808,-0.01708,0.04392,-0.08296,-0.13664,0.10736,0.92232,0.83936,0.37088,0.30256
-0.10736,0.0976,-0.08784,-0.03416,0.01952,-0.06344,-0.14152,0.10736,0.90768,0.81984,0.35624,0.28792
-0.0976,0.09516,-0.09272,-0.04392,0.00488,-0.05124,-0.13664,0.11224,0.88328,0.80032,0.32696,0.27328
-0.08784,0.09516,-0.10248,-0.05856,-0.01464,-0.0366,-0.13176,0.11224,0.85888,0.77592,0.2928,0.25376
-0.0732,0.09516,-0.11712,-0.08052,-0.04392,-0.01464,-0.11712,0.11712,0.83936,0.75152,0.2684,0.23912
-0.05856,0.09516,-0.13176,-0.10248,-0.0732,0.00732,-0.10736,0.11712,0.81984,0.71736,0.244,0.21472
-0.04392,0.09516,-0.1464,-0.12444,-0.10248,0.02928,-0.0976,0.11224,0.79544,0.6832,0.21472,0.1952
-0.03904,0.0976,-0.15616,-0.13664,-0.11712,0.03904,-0.08296,0.11224,0.77592,0.6588,0.19032,0.17568
-0.0244,0.0976,-0.1708,-0.1586,-0.1464,0.061,-0.06344,0.11224,0.75152,0.6344,0.16592,0.15616
-0.00976,0.09516,-0.18056,-0.17568,-0.1708,0.08052,-0.05856,0.10736,0.73688,0.61,0.15128,0.1464
0,0.09516,-0.19032,-0.19032,-0.19032,0.09516,-0.0488,0.10736,0.72224,0.59048,0.13176,0.12688
0.00976,0.09516,-0.20008,-0.20496,-0.20984,0.1098,-0.03904,0.10248,0.71248,0.57584,0.11224,0.11712
0.00976,0.0976,-0.20496,-0.20984,-0.21472,0.11224,-0.02928,0.0976,0.69784,0.56608,0.10248,0.11712
0.01464,0.10248,-0.2196,-0.22692,-0.23424,0.12444,-0.01952,0.0976,0.68808,0.54168,0.09272,0.10248
0.01952,0.10248,-0.22448,-0.23424,-0.244,0.13176,-0.01952,0.0976,0.67832,0.52216,0.08296,0.0976
0.0244,0.10004,-0.22448,-0.23668,-0.24888,0.13664,-0.01464,0.0976,0.66368,0.51728,0.06832,0.08784
0.02928,0.0976,-0.22448,-0.23912,-0.25376,0.14152,-0.00976,0.0976,0.65392,0.50752,0.05368,0.08784
0.02928,0.10004,-0.22936,-0.244,-0.25864,0.14396,-0.00488,0.0976,0.64904,0.50752,0.05368,0.08296
0.02928,0.10248,-0.23424,-0.24888,-0.26352,0.1464,0,0.0976,0.64416,0.50264,0.0488,0.0732
0.02928,0.10248,-0.23424,-0.24888,-0.26352,0.1464,0.00488,0.0976,0.63928,0.49776,0.0488,0.0732
0.02928,0.10248,-0.23424,-0.24888,-0.26352,0.1464,0.00976,0.0976,0.6344,0.49776,0.0488,0.07808
0.02928,0.10248,-0.23424,-0.24888,-0.26352,0.1464,0.00976,0.0976,0.62952,0.49288,0.04392,0.0732
0.02928,0.10492,-0.23912,-0.25376,-0.2684,0.14884,0.01464,0.0976,0.62952,0.49288,0.04392,0.0732
0.02928,0.10248,-0.23424,-0.24888,-0.26352,0.1464,0.01464,0.09272,0.62952,0.49288,0.04392,0.06832
0.02928,0.10004,-0.22936,-0.244,-0.25864,0.14396,0.01464,0.0976,0.62952,0.488,0.03904,0.06344
0.0244,0.10492,-0.23424,-0.24644,-0.25864,0.14152,0.01952,0.10248,0.62952,0.48312,0.03416,0.06344
0.0244,0.10492,-0.23424,-0.24644,-0.25864,0.14152,0.01952,0.10248,0.62952,0.48312,0.0244,0.06344
0.0244,0.10492,-0.23424,-0.24644,-0.25864,0.14152,0.01952,0.11224,0.62952,0.48312,0.0244,0.05856
0.0244,0.10492,-0.23424,-0.24644,-0.25864,0.14152,0.01952,0.122,0.62952,0.488,0.02928,0.05368
0.0244,0.10492,-0.23424,-0.24644,-0.25864,0.14152,0.0244,0.12688,0.6344,0.49288,0.02928,0.05368
0.0244,0.10492,-0.23424,-0.24644,-0.25864,0.14152,0.02928,0.12688,0.63928,0.49776,0.03416,0.05368
0.01952,0.10736,-0.23424,-0.244,-0.25376,0.13664,0.02928,0.13176,0.64416,0.50264,0.03416,0.05856
0.01952,0.10736,-0.23424,-0.244,-0.25376,0.13664,0.02928,0.14152,0.64416,0.50752,0.03416,0.06344
0.01464,0.11224,-0.23912,-0.24644,-0.25376,0.1342,0.02928,0.14152,0.64904,0.50752,0.03904,0.06344
0.00976,0.11468,-0.23912,-0.244,-0.24888,0.12932,0.02928,0.14152,0.6588,0.50752,0.03904,0.06344
0.00976,0.11468,-0.23912,-0.244,-0.24888,0.12932,0.0244,0.14152,0.6588,0.5124,0.03904,0.06344
0.00976,0.11468,-0.23912,-0.244,-0.24888,0.12932,0.01952,0.14152,0.6588,0.5124,0.03904,0.05856
0.00976,0.11224,-0.23424,-0.23912,-0.244,0.12688,0.01464,0.13664,0.65392,0.5124,0.03904,0.05856
0.00976,0.11224,-0.23424,-0.23912,-0.244,0.12688,0.00976,0.13664,0.65392,0.51728,0.03904,0.05856
0.00976,0.1098,-0.22936,-0.23424,-0.23912,0.12444,0.00976,0.13176,0.65392,0.51728,0.03416,0.05856
0.00976,0.10736,-0.22448,-0.22936,-0.23424,0.122,0.00976,0.12688,0.65392,0.51728,0.02928,0.05856
0.00976,0.10492,-0.2196,-0.22448,-0.22936,0.11956,0.00976,0.122,0.65392,0.51728,0.02928,0.05856
0.00976,0.10248,-0.21472,-0.2196,-0.22448,0.11712,0.00488,0.11712,0.64904,0.5124,0.0244,0.05856
0.00976,0.10248,-0.21472,-0.2196,-0.22448,0.11712,0.00488,0.11224,0.64416,0.5124,0.0244,0.05856
0.00976,0.10248,-0.21472,-0.2196,-0.22448,0.11712,0.00488,0.10736,0.64416,0.5124,0.01952,0.05368
0.01464,0.10004,-0.21472,-0.22204,-0.22936,0.122,0,0.0976,0.63928,0.5124,0.01464,0.0488
0.01464,0.0976,-0.20984,-0.21716,-0.22448,0.11956,0,0.08784,0.6344,0.50752,0.00976,0.04392
0.01464,0.0976,-0.20984,-0.21716,-0.22448,0.11956,0,0.0732,0.62952,0.50752,0.00976,0.04392
0.01464,0.0976,-0.20984,-0.21716,-0.22448,0.11956,0,0.06832,0.62952,0.50752,0.00976,0.04392
0.01464,0.09516,-0.20496,-0.21228,-0.2196,0.11712,0,0.06344,0.62952,0.50264,0.00976,0.04392
0.01952,0.09028,-0.20008,-0.20984,-0.2196,0.11956,0,0.05856,0.62952,0.50264,0.00976,0.04392
0.01952,0.09028,-0.20008,-0.20984,-0.2196,0.11956,0,0.05856,0.62952,0.50264,0.00976,0.04392
0.01464,0.09028,-0.1952,-0.20252,-0.20984,0.11224,0.00488,0.05856,0.62952,0.50264,0.00976,0.04392
0.00976,0.09272,-0.1952,-0.20008,-0.20496,0.10736,0.00488,0.06344,0.62952,0.50264,0.00488,0.04392
0.00488,0.09516,-0.1952,-0.19764,-0.20008,0.10248,0.00488,0.05856,0.62952,0.50264,0.00488,0.04392
0,0.09516,-0.19032,-0.19032,-0.19032,0.09516,0.00488,0.06344,0.62952,0.5124,0,0.04392
-0.00488,0.0976,-0.19032,-0.18788,-0.18544,0.09028,0.00488,0.06832,0.63928,0.51728,0.00488,0.05368
-0.00976,0.10004,-0.19032,-0.18544,-0.18056,0.0854,0.00488,0.07808,0.64416,0.52216,0.00976,0.05368
-0.01952,0.1098,-0.20008,-0.19032,-0.18056,0.08052,0.00976,0.08296,0.64904,0.52216,0.00976,0.05368
-0.02928,0.11712,-0.20496,-0.19032,-0.17568,0.0732,0.01464,0.0976,0.64904,0.52704,0.00976,0.05368
-0.03416,0.11956,-0.20496,-0.18788,-0.1708,0.06832,0.01952,0.10248,0.64904,0.53192,0.00976,0.05368
-0.03904,0.11956,-0.20008,-0.18056,-0.16104,0.061,0.00488,0.0976,0.65392,0.53192,0.00976,0.05856
-0.03904,0.122,-0.20496,-0.18544,-0.16592,0.06344,-0.00488,0.09272,0.64904,0.52704,0.00976,0.05856
-0.03904,0.122,-0.20496,-0.18544,-0.16592,0.06344,-0.01464,0.08296,0.63928,0.52216,0.00488,0.05368
-0.03904,0.12688,-0.21472,-0.1952,-0.17568,0.06832,-0.01952,0.08296,0.62464,0.51728,0,0.04392
-0.04392,0.1342,-0.22448,-0.20252,-0.18056,0.06832,-0.01952,0.08784,0.61488,0.51728,-0.00488,0.03904
-0.04392,0.13908,-0.23424,-0.21228,-0.19032,0.0732,-0.01952,0.08784,0.61,0.51728,-0.00976,0.03416
-0.0488,0.14152,-0.23424,-0.20984,-0.18544,0.06832,-0.01952,0.08296,0.60024,0.50264,-0.01464,0.02928
-0.03904,0.13908,-0.23912,-0.2196,-0.20008,0.08052,-0.01952,0.07808,0.59536,0.49288,-0.01952,0.01952
-0.0244,0.12688,-0.22936,-0.21716,-0.20496,0.09028,-0.01464,0.0732,0.59048,0.49288,-0.0244,0.01464
-0.00976,0.11224,-0.21472,-0.20984,-0.20496,0.0976,-0.00488,0.06832,0.5856,0.488,-0.0244,0.01464
0.00488,0.0976,-0.20008,-0.20252,-0.20496,0.10492,0.00488,0.06832,0.5856,0.48312,-0.0244,0.01464
0.01952,0.0854,-0.19032,-0.20008,-0.20984,0.11468,0.00976,0.06344,0.5856,0.48312,-0.0244,0.01464
0.01952,0.08052,-0.18056,-0.19032,-0.20008,0.1098,0.00976,0.05856,0.5856,0.48312,-0.02928,0.00976
0.01952,0.07564,-0.1708,-0.18056,-0.19032,0.10492,0.00976,0.05368,0.58072,0.47824,-0.02928,0.00488
0.01952,0.07564,-0.1708,-0.18056,-0.19032,0.10492,0.00488,0.0488,0.57584,0.47336,-0.02928,0
0.0244,0.07076,-0.16592,-0.17812,-0.19032,0.10736,0,0.0488,0.57096,0.46848,-0.02928,0
0.0244,0.06832,-0.16104,-0.17324,-0.18544,0.10492,0,0.04392,0.57096,0.46848,-0.02928,0
0.0244,0.06588,-0.15616,-0.16836,-0.18056,0.10248,0,0.03904,0.57096,0.4636,-0.02928,0
0.0244,0.06588,-0.15616,-0.16836,-0.18056,0.10248,0,0.03904,0.56608,0.4636,-0.03416,-0.00488
0.0244,0.06588,-0.15616,-0.16836,-0.18056,0.10248,0,0.03904,0.56608,0.4636,-0.03416,-0.00976
0.0244,0.06588,-0.15616,-0.16836,-0.18056,0.10248,0,0.03416,0.5612,0.45872,-0.03416,-0.00976
0.0244,0.06832,-0.16104,-0.17324,-0.18544,0.10492,0,0.03416,0.5612,0.45872,-0.03416,-0.00976
0.0244,0.06832,-0.16104,-0.17324,-0.18544,0.10492,0,0.03416,0.5612,0.4636,-0.03416,-0.00488
0.0244,0.06832,-0.16104,-0.17324,-0.18544,0.10492,0,0.03416,0.5612,0.4636,-0.03416,0
0.0244,0.06832,-0.16104,-0.17324,-0.18544,0.10492,0,0.02928,0.5612,0.4636,-0.02928,0
0.0244,0.06832,-0.16104,-0.17324,-0.18544,0.10492,0,0.0244,0.5612,0.4636,-0.02928,0
0.0244,0.07076,-0.16592,-0.17812,-0.19032,0.10736,0,0.0244,0.55144,0.45872,-0.02928,0
0.01952,0.0732,-0.16592,-0.17568,-0.18544,0.10248,0.00488,0.02928,0.54656,0.45384,-0.02928,0
0.0244,0.07564,-0.17568,-0.18788,-0.20008,0.11224,0.01464,0.03416,0.52704,0.40504,-0.06832,-0.02928
0.01952,0.061,-0.14152,-0.15128,-0.16104,0.09028,0.01952,0.03904,0.57584,0.44408,-0.0488,-0.0244
-0.00976,0.03172,-0.05368,-0.0488,-0.04392,0.01708,0,0.03416,0.76616,0.66368,0.10736,0.06832
-0.05856,-0.0122,0.08296,0.11224,0.14152,-0.10004,-0.03416,0.02928,1.02968,0.98088,0.32696,0.20984
-0.13664,-0.05124,0.23912,0.30744,0.37576,-0.2562,-0.11712,0.02928,1.47864,1.52256,0.68808,0.41968
-0.21472,-0.10004,0.4148,0.52216,0.62952,-0.42212,-0.18544,0,1.88856,2.05936,1.03944,0.62952
-0.28304,-0.14884,0.58072,0.72224,0.86376,-0.5734,-0.22936,-0.00976,2.08864,2.40096,1.24928,0.7808
-0.32696,-0.07076,0.46848,0.63196,0.79544,-0.5612,-0.23912,-0.00976,2.0008,2.24968,1.18584,0.77104
-0.37576,0.14152,0.09272,0.2806,0.46848,-0.42212,-0.24888,0.00976,1.50792,1.60064,0.8052,0.61488
-0.29768,0.22448,-0.15128,-0.00244,0.1464,-0.22204,-0.1952,0,0.80032,0.87352,0.4148,0.42944
0.05368,0.0244,-0.10248,-0.12932,-0.15616,0.10492,-0.12688,-0.18056,-0.04392,0.1464,0.07808,0.27816
0.23424,-0.06588,-0.10248,-0.2196,-0.33672,0.28548,-0.09272,-0.26352,-0.32208,-0.13664,-0.08784,0.16592
0.22448,-0.03172,-0.16104,-0.27328,-0.38552,0.305,-0.0976,-0.25376,-0.3172,-0.15128,-0.16104,0.0976
0.1952,0.00976,-0.21472,-0.31232,-0.40992,0.30256,-0.0976,-0.19032,-0.23912,-0.13664,-0.20496,0.03904
0.1464,0.03904,-0.22448,-0.29768,-0.37088,0.25864,-0.05856,-0.06832,-0.0488,-0.0244,-0.21472,0.00488
0.10248,0.05368,-0.20984,-0.26108,-0.31232,0.2074,-0.01464,0.01952,0.13664,0.13664,-0.1708,-0.00488
0.06344,0.06344,-0.19032,-0.22204,-0.25376,0.1586,0.02928,0.05856,0.2684,0.23424,-0.13176,-0.00488
0.04392,0.06832,-0.18056,-0.20252,-0.22448,0.1342,0.0488,0.10736,0.33672,0.27328,-0.10736,-0.00488
0.01464,0.08784,-0.19032,-0.19764,-0.20496,0.1098,0.05856,0.18056,0.42456,0.3416,-0.08784,-0.00488
0.00488,0.09516,-0.1952,-0.19764,-0.20008,0.10248,0.06344,0.1952,0.5124,0.41968,-0.05368,0
0,0.09028,-0.18056,-0.18056,-0.18056,0.09028,0.05856,0.16104,0.52216,0.42944,-0.04392,0
0,0.08296,-0.16592,-0.16592,-0.16592,0.08296,0.04392,0.12688,0.53192,0.43432,-0.02928,0.00976
0,0.07564,-0.15128,-0.15128,-0.15128,0.07564,0.01952,0.11224,0.55632,0.45872,-0.0244,0.01952
0,0.06832,-0.13664,-0.13664,-0.13664,0.06832,0.00976,0.08784,0.57584,0.47336,-0.00976,0.0244
0,0.06344,-0.12688,-0.12688,-0.12688,0.06344,0.00488,0.06832,0.57584,0.48312,-0.00488,0.02928
0,0.061,-0.122,-0.122,-0.122,0.061,0.00488,0.05856,0.5856,0.48312,0,0.03416
0.00488,0.05856,-0.122,-0.12444,-0.12688,0.06588,0,0.05856,0.5856,0.49288,0.00488,0.03904
0.00488,0.05856,-0.122,-0.12444,-0.12688,0.06588,-0.00488,0.05368,0.59048,0.49776,0.00976,0.03904
0.00488,0.061,-0.12688,-0.12932,-0.13176,0.06832,-0.00488,0.05368,0.59536,0.50752,0.00976,0.03904
0.00488,0.061,-0.12688,-0.12932,-0.13176,0.06832,-0.00488,0.05368,0.60024,0.5124,0.00976,0.04392
-0.00488,0.06588,-0.12688,-0.12444,-0.122,0.05856,-0.00488,0.05368,0.61,0.51728,0.00976,0.04392
-0.00488,0.06588,-0.12688,-0.12444,-0.122,0.05856,-0.00976,0.05368,0.61976,0.52216,0.01464,0.05368
-0.00488,0.06588,-0.12688,-0.12444,-0.122,0.05856,-0.00976,0.05856,0.61976,0.52216,0.01464,0.05368
-0.00488,0.06344,-0.122,-0.11956,-0.11712,0.05612,-0.01952,0.05856,0.62464,0.52704,0.01952,0.05368
-0.00976,0.06588,-0.122,-0.11712,-0.11224,0.05124,-0.01952,0.05368,0.62952,0.53192,0.0244,0.06344
-0.00976,0.06588,-0.122,-0.11712,-0.11224,0.05124,-0.01952,0.05368,0.6344,0.5368,0.0244,0.06344
-0.01464,0.06588,-0.11712,-0.1098,-0.10248,0.04392,-0.0244,0.05368,0.63928,0.54168,0.02928,0.06832
-0.01952,0.06832,-0.11712,-0.10736,-0.0976,0.03904,-0.02928,0.05368,0.64904,0.55144,0.03416,0.0732
-0.01464,0.06588,-0.11712,-0.1098,-0.10248,0.04392,-0.02928,0.05368,0.65392,0.55632,0.03904,0.07808
-0.01952,0.06832,-0.11712,-0.10736,-0.0976,0.03904,-0.02928,0.0488,0.6588,0.57096,0.04392,0.08296
-0.01952,0.06588,-0.11224,-0.10248,-0.09272,0.0366,-0.02928,0.0488,0.66856,0.58072,0.05368,0.08784
-0.0244,0.06588,-0.10736,-0.09516,-0.08296,0.02928,-0.03904,0.0488,0.67344,0.59048,0.06344,0.09272
-0.03416,0.06832,-0.10248,-0.0854,-0.06832,0.01708,-0.03904,0.03904,0.6832,0.60024,0.0732,0.0976
-0.04392,0.07076,-0.0976,-0.07564,-0.05368,0.00488,-0.04392,0.03416,0.69296,0.61976,0.08296,0.10248
-0.0488,0.07076,-0.09272,-0.06832,-0.04392,-0.00244,-0.05368,0.03416,0.70272,0.62464,0.09272,0.11224
-0.05856,0.0732,-0.08784,-0.05856,-0.02928,-0.01464,-0.05856,0.03416,0.72224,0.64416,0.11224,0.122
-0.06344,0.0732,-0.08296,-0.05124,-0.01952,-0.02196,-0.06832,0.03416,0.73688,0.66856,0.13176,0.14152
-0.06832,0.06832,-0.06832,-0.03416,0,-0.03416,-0.0732,0.02928,0.7564,0.69296,0.15128,0.15616
-0.07808,0.06832,-0.05856,-0.01952,0.01952,-0.0488,-0.0732,0.02928,0.7808,0.71736,0.17568,0.17568
-0.08784,0.06832,-0.0488,-0.00488,0.03904,-0.06344,-0.08296,0.02928,0.80032,0.74664,0.20008,0.20496
-0.0976,0.06588,-0.03416,0.01464,0.06344,-0.08052,-0.09272,0.01952,0.82472,0.77592,0.22448,0.21472
-0.10736,0.06344,-0.01952,0.03416,0.08784,-0.0976,-0.10248,0.01464,0.83936,0.8052,0.23912,0.23424
-0.122,0.061,0,0.061,0.122,-0.122,-0.11224,0.01464,0.854,0.83936,0.2684,0.25376
-0.12688,0.05856,0.00976,0.0732,0.13664,-0.13176,-0.122,0.01464,0.86376,0.85888,0.28304,0.27328
-0.13176,0.05612,0.01952,0.0854,0.15128,-0.14152,-0.12688,0.01464,0.87352,0.86864,0.29768,0.28304
-0.13176,0.05368,0.0244,0.09028,0.15616,-0.14396,-0.13176,0.00976,0.8784,0.87352,0.30256,0.2928
-0.13176,0.05124,0.02928,0.09516,0.16104,-0.1464,-0.13664,0.00488,0.88328,0.8784,0.31232,0.30256
-0.13176,0.04636,0.03904,0.10492,0.1708,-0.15128,-0.14152,0.00488,0.88328,0.88816,0.3172,0.31232
-0.13176,0.04392,0.04392,0.1098,0.17568,-0.15372,-0.1464,0.00976,0.88328,0.89304,0.32696,0.31232
-0.12688,0.04148,0.04392,0.10736,0.1708,-0.14884,-0.1464,0.00976,0.8784,0.88816,0.32696,0.31232
-0.12688,0.04148,0.04392,0.10736,0.1708,-0.14884,-0.15128,0.00976,0.8784,0.88816,0.32208,0.31232
-0.11712,0.03904,0.03904,0.0976,0.15616,-0.13664,-0.15616,0.00976,0.86864,0.87352,0.30744,0.30744
-0.10736,0.0366,0.03416,0.08784,0.14152,-0.12444,-0.1464,0.01464,0.84912,0.84912,0.27816,0.2928
-0.0976,0.0366,0.0244,0.0732,0.122,-0.1098,-0.14152,0.01464,0.8296,0.82472,0.24888,0.27328
-0.08296,0.03904,0.00488,0.04636,0.08784,-0.0854,-0.12688,0.0244,0.81008,0.80032,0.22936,0.25864
-0.06832,0.04148,-0.01464,0.01952,0.05368,-0.061,-0.11712,0.02928,0.79056,0.76616,0.20496,0.23424
-0.05368,0.04148,-0.02928,-0.00244,0.0244,-0.03904,-0.10736,0.02928,0.76616,0.732,0.17568,0.21472
-0.0488,0.04392,-0.03904,-0.01464,0.00976,-0.02928,-0.09272,0.03416,0.74664,0.7076,0.15128,0.1952
-0.03416,0.04636,-0.05856,-0.04148,-0.0244,-0.00488,-0.0732,0.03416,0.71736,0.67832,0.122,0.1708
-0.01952,0.04636,-0.0732,-0.06344,-0.05368,0.01708,-0.06832,0.02928,0.69784,0.64904,0.10248,0.15616
-0.00976,0.04636,-0.08296,-0.07808,-0.0732,0.03172,-0.05856,0.02928,0.6832,0.62464,0.08296,0.13664
0,0.04636,-0.09272,-0.09272,-0.09272,0.04636,-0.0488,0.02928,0.66856,0.60512,0.06344,0.122
0.00488,0.04636,-0.0976,-0.10004,-0.10248,0.05368,-0.03904,0.03416,0.64904,0.59536,0.0488,0.11712
0.01464,0.0488,-0.11224,-0.11956,-0.12688,0.07076,-0.02928,0.03904,0.63928,0.58072,0.03416,0.10248
0.01952,0.0488,-0.11712,-0.12688,-0.13664,0.07808,-0.0244,0.03904,0.62464,0.56608,0.0244,0.09272
0.0244,0.0488,-0.122,-0.1342,-0.1464,0.0854,-0.01464,0.03904,0.61,0.55632,0.01464,0.07808
0.02928,0.0488,-0.12688,-0.14152,-0.15616,0.09272,-0.00976,0.03904,0.60512,0.54656,0,0.07808
0.02928,0.05124,-0.13176,-0.1464,-0.16104,0.09516,-0.00488,0.03904,0.60024,0.54168,-0.00488,0.0732
0.02928,0.05368,-0.13664,-0.15128,-0.16592,0.0976,0,0.03904,0.59536,0.53192,-0.00976,0.06344
0.02928,0.05368,-0.13664,-0.15128,-0.16592,0.0976,0,0.03904,0.59048,0.52216,-0.01464,0.05856
0.02928,0.05368,-0.13664,-0.15128,-0.16592,0.0976,0,0.03904,0.5856,0.51728,-0.01952,0.05856
0.02928,0.05368,-0.13664,-0.15128,-0.16592,0.0976,0,0.03904,0.58072,0.5124,-0.0244,0.05368
0.02928,0.05856,-0.1464,-0.16104,-0.17568,0.10248,0.00488,0.03904,0.58072,0.5124,-0.0244,0.05368
0.02928,0.061,-0.15128,-0.16592,-0.18056,0.10492,0.00488,0.03904,0.58072,0.51728,-0.01952,0.05368
0.02928,0.061,-0.15128,-0.16592,-0.18056,0.10492,0.00976,0.04392,0.58072,0.51728,-0.01952,0.05368
0.0244,0.06588,-0.15616,-0.16836,-0.18056,0.10248,0.01952,0.04392,0.58072,0.5124,-0.01952,0.05368
0.0244,0.06588,-0.15616,-0.16836,-0.18056,0.10248,0.01952,0.04392,0.58072,0.5124,-0.0244,0.05368
0.0244,0.06588,-0.15616,-0.16836,-0.18056,0.10248,0.01952,0.0488,0.58072,0.5124,-0.0244,0.05368
0.0244,0.06588,-0.15616,-0.16836,-0.18056,0.10248,0.01952,0.05368,0.58072,0.5124,-0.01952,0.05368
0.0244,0.06588,-0.15616,-0.16836,-0.18056,0.10248,0.01952,0.05856,0.58072,0.5124,-0.01952,0.05368
0.0244,0.06588,-0.15616,-0.16836,-0.18056,0.10248,0.01952,0.05856,0.58072,0.51728,-0.01464,0.05368
0.01952,0.06832,-0.15616,-0.16592,-0.17568,0.0976,0.01952,0.05856,0.5856,0.51728,-0.01464,0.05368
0.01952,0.07076,-0.16104,-0.1708,-0.18056,0.10004,0.0244,0.06832,0.5856,0.51728,-0.01464,0.05368
0.01952,0.0732,-0.16592,-0.17568,-0.18544,0.10248,0.02928,0.0732,0.5856,0.51728,-0.00976,0.05368
0.01952,0.07076,-0.16104,-0.1708,-0.18056,0.10004,0.02928,0.0732,0.59048,0.51728,-0.00976,0.05368
0.01952,0.07076,-0.16104,-0.1708,-0.18056,0.10004,0.02928,0.0732,0.59048,0.52216,-0.00976,0.05368
0.01952,0.07076,-0.16104,-0.1708,-0.18056,0.10004,0.02928,0.07808,0.59048,0.52216,-0.00976,0.05856
0.01952,0.07076,-0.16104,-0.1708,-0.18056,0.10004,0.02928,0.08296,0.59048,0.52216,-0.00976,0.05856
0.01952,0.06832,-0.15616,-0.16592,-0.17568,0.0976,0.02928,0.08296,0.59048,0.52216,-0.00976,0.05856
0.01952,0.06832,-0.15616,-0.16592,-0.17568,0.0976,0.02928,0.08784,0.59536,0.52704,-0.00976,0.05856
0.01952,0.06832,-0.15616,-0.16592,-0.17568,0.0976,0.02928,0.08784,0.59048,0.52704,-0.00976,0.05368
0.01952,0.06832,-0.15616,-0.16592,-0.17568,0.0976,0.02928,0.08784,0.5856,0.52704,-0.00976,0.0488
0.01952,0.06832,-0.15616,-0.16592,-0.17568,0.0976,0.02928,0.08784,0.5856,0.52704,-0.00976,0.0488
0.01952,0.06832,-0.15616,-0.16592,-0.17568,0.0976,0.02928,0.08296,0.58072,0.52216,-0.00976,0.0488
0.01952,0.06832,-0.15616,-0.16592,-0.17568,0.0976,0.02928,0.08296,0.57584,0.52216,-0.00976,0.0488
0.01952,0.06832,-0.15616,-0.16592,-0.17568,0.0976,0.03416,0.07808,0.57584,0.52216,-0.00976,0.04392
0.0244,0.06588,-0.15616,-0.16836,-0.18056,0.10248,0.02928,0.0732,0.57096,0.52216,-0.00976,0.04392
0.0244,0.06344,-0.15128,-0.16348,-0.17568,0.10004,0.02928,0.06832,0.56608,0.51728,-0.00976,0.04392
0.0244,0.06344,-0.15128,-0.16348,-0.17568,0.10004,0.02928,0.05856,0.56608,0.51728,-0.00976,0.04392
0.0244,0.06344,-0.15128,-0.16348,-0.17568,0.10004,0.02928,0.05856,0.57096,0.51728,-0.00976,0.04392
0.0244,0.061,-0.1464,-0.1586,-0.1708,0.0976,0.02928,0.05368,0.57096,0.51728,-0.00488,0.04392
0.02928,0.05612,-0.14152,-0.15616,-0.1708,0.10004,0.02928,0.0488,0.57096,0.52216,0,0.04392
0.02928,0.05612,-0.14152,-0.15616,-0.1708,0.10004,0.0244,0.0488,0.57096,0.52216,0,0.04392
0.0244,0.05612,-0.13664,-0.14884,-0.16104,0.09272,0.0244,0.0488,0.57096,0.52216,0,0.04392
0.01952,0.05856,-0.13664,-0.1464,-0.15616,0.08784,0.0244,0.05368,0.57096,0.52216,-0.00488,0.04392
0.01464,0.061,-0.13664,-0.14396,-0.15128,0.08296,0.0244,0.0488,0.57096,0.52216,-0.00488,0.04392
0.00488,0.06588,-0.13664,-0.13908,-0.14152,0.0732,0.0244,0.05368,0.57096,0.53192,-0.00488,0.04392
-0.00488,0.0732,-0.14152,-0.13908,-0.13664,0.06588,0.0244,0.05856,0.58072,0.5368,0.00488,0.05368
-0.00976,0.07564,-0.14152,-0.13664,-0.13176,0.061,0.0244,0.06344,0.5856,0.54656,0.01464,0.05368
-0.01952,0.0854,-0.15128,-0.14152,-0.13176,0.05612,0.02928,0.06344,0.59048,0.55144,0.01952,0.05368
-0.02928,0.09272,-0.15616,-0.14152,-0.12688,0.0488,0.02928,0.0732,0.59048,0.55144,0.01952,0.05368
-0.03416,0.09516,-0.15616,-0.13908,-0.122,0.04392,0.02928,0.0732,0.59048,0.55144,0.01952,0.05368
-0.03904,0.0976,-0.15616,-0.13664,-0.11712,0.03904,0.00976,0.06832,0.59048,0.55144,0.01952,0.05856
-0.03904,0.10248,-0.16592,-0.1464,-0.12688,0.04392,-0.00488,0.06344,0.58072,0.54656,0.01952,0.05856
-0.03416,0.10492,-0.17568,-0.1586,-0.14152,0.05368,-0.00976,0.05368,0.57584,0.54168,0.01464,0.05368
-0.02928,0.11224,-0.1952,-0.18056,-0.16592,0.06832,-0.00976,0.05368,0.56608,0.5368,0.00976,0.04392
-0.02928,0.11224,-0.1952,-0.18056,-0.16592,0.06832,-0.00976,0.05856,0.55632,0.53192,0.00488,0.03416
-0.0244,0.1098,-0.1952,-0.183,-0.1708,0.0732,-0.00976,0.05856,0.55144,0.52704,0,0.0244
-0.0244,0.10492,-0.18544,-0.17324,-0.16104,0.06832,-0.00976,0.05368,0.5368,0.50752,-0.00488,0.0244
-0.00976,0.09516,-0.18056,-0.17568,-0.1708,0.08052,-0.00976,0.0488,0.52704,0.49288,-0.00976,0.01952
0.00488,0.08296,-0.1708,-0.17324,-0.17568,0.09028,-0.00488,0.04392,0.52216,0.49288,-0.01464,0.01464
0.01952,0.06832,-0.15616,-0.16592,-0.17568,0.0976,0.00488,0.03904,0.51728,0.488,-0.01464,0.01464
0.02928,0.05612,-0.14152,-0.15616,-0.1708,0.10004,0.00976,0.03904,0.51728,0.488,-0.01464,0.01464
0.03904,0.04636,-0.13176,-0.15128,-0.1708,0.10492,0.00976,0.03416,0.51728,0.49288,-0.01464,0.01464
0.03904,0.04636,-0.13176,-0.15128,-0.1708,0.10492,0.00976,0.02928,0.52216,0.49288,-0.01952,0.01464
0.03904,0.04636,-0.13176,-0.15128,-0.1708,0.10492,0.00976,0.0244,0.52216,0.488,-0.01952,0.01464
0.03904,0.04636,-0.13176,-0.15128,-0.1708,0.10492,0.00976,0.01952,0.52216,0.488,-0.01952,0.00976
0.04392,0.04148,-0.12688,-0.14884,-0.1708,0.10736,0.00976,0.01952,0.52216,0.488,-0.01952,0.00976
0.04392,0.04148,-0.12688,-0.14884,-0.1708,0.10736,0.00976,0.01952,0.51728,0.488,-0.01952,0.00976
0.04392,0.04148,-0.12688,-0.14884,-0.1708,0.10736,0.00976,0.01952,0.5124,0.48312,-0.01952,0.00976
0.04392,0.04148,-0.12688,-0.14884,-0.1708,0.10736,0.00976,0.01952,0.50752,0.48312,-0.01952,0.00976
0.04392,0.04148,-0.12688,-0.14884,-0.1708,0.10736,0.00976,0.01952,0.50752,0.48312,-0.01464,0.00976
0.04392,0.03904,-0.122,-0.14396,-0.16592,0.10492,0.00976,0.01952,0.50264,0.48312,-0.01464,0.00976
0.04392,0.03904,-0.122,-0.14396,-0.16592,0.10492,0.00976,0.0244,0.50264,0.488,-0.01464,0.00976
0.04392,0.0366,-0.11712,-0.13908,-0.16104,0.10248,0.00976,0.0244,0.50264,0.488,-0.01464,0.00976
0.04392,0.03416,-0.11224,-0.1342,-0.15616,0.10004,0.00976,0.0244,0.50264,0.48312,-0.01464,0.00976
0.04392,0.03416,-0.11224,-0.1342,-0.15616,0.10004,0.00976,0.01952,0.50264,0.48312,-0.00976,0.00488
0.04392,0.03416,-0.11224,-0.1342,-0.15616,0.10004,0.00976,0.01464,0.50264,0.48312,-0.00976,0
0.04392,0.03416,-0.11224,-0.1342,-0.15616,0.10004,0.01464,0.01952,0.50264,0.47336,-0.01464,0
0.03904,0.03416,-0.10736,-0.12688,-0.1464,0.09272,0.0244,0.02928,0.50752,0.4636,-0.01952,0
0.03416,0.0366,-0.10736,-0.12444,-0.14152,0.08784,0.0244,0.03416,0.5368,0.48312,-0.01464,0
0.01952,0.02196,-0.06344,-0.0732,-0.08296,0.05124,0.01952,0.03904,0.6344,0.59048,0.0488,0.03416
-0.02928,-0.00244,0.03416,0.0488,0.06344,-0.04636,-0.00976,0.03904,0.8784,0.8784,0.24888,0.1464
-0.0976,-0.04148,0.18056,0.22936,0.27816,-0.18788,-0.05368,0.03904,1.1956,1.26392,0.5124,0.30744
-0.1708,-0.0732,0.3172,0.4026,0.488,-0.3294,-0.12688,0.03904,1.58112,1.73728,0.8296,0.50752
-0.244,-0.11468,0.47336,0.59536,0.71736,-0.48068,-0.18544,0.00976,1.9276,2.20576,1.13704,0.7076
-0.2928,-0.10492,0.50264,0.64904,0.79544,-0.54412,-0.20496,0,1.91296,2.25944,1.16632,0.7564
-0.3172,0.03172,0.25376,0.41236,0.57096,-0.44408,-0.19032,0,1.6104,1.82024,0.92232,0.64416
-0.28304,0.15372,-0.0244,0.11712,0.25864,-0.27084,-0.19032,-0.02928,1.06384,1.17608,0.57584,0.49776
-0.122,0.1464,-0.1708,-0.1098,-0.0488,-0.0366,-0.12688,-0.08784,0.30256,0.45384,0.2196,0.32208
0.15616,-0.02684,-0.10248,-0.18056,-0.25864,0.2074,-0.09272,-0.244,-0.29768,-0.05368,-0.02928,0.20984
0.26352,-0.09028,-0.08296,-0.21472,-0.34648,0.305,-0.09272,-0.30256,-0.33184,-0.11712,-0.10736,0.13664
0.23912,-0.05368,-0.13176,-0.25132,-0.37088,0.305,-0.08784,-0.25376,-0.2928,-0.10248,-0.15616,0.07808
0.1952,-0.00976,-0.17568,-0.27328,-0.37088,0.28304,-0.07808,-0.15128,-0.18056,-0.05856,-0.17568,0.02928
0.1464,0.01952,-0.18544,-0.25864,-0.33184,0.23912,-0.03904,-0.0488,0,0.05368,-0.17568,0.00976
0.10248,0.03416,-0.1708,-0.22204,-0.27328,0.18788,0.00488,0.01952,0.17568,0.21472,-0.122,0.01464
0.06832,0.04636,-0.16104,-0.1952,-0.22936,0.14884,0.04392,0.05856,0.2928,0.2928,-0.09272,0.01464
0.05368,0.05368,-0.16104,-0.18788,-0.21472,0.1342,0.05856,0.10736,0.34648,0.31232,-0.07808,0.01464
0.02928,0.06832,-0.16592,-0.18056,-0.1952,0.11224,0.06832,0.15128,0.40992,0.37576,-0.06832,0.00976
0.0244,0.07076,-0.16592,-0.17812,-0.19032,0.10736,0.0732,0.13664,0.47336,0.44896,-0.04392,0.00976
0.01952,0.06832,-0.15616,-0.16592,-0.17568,0.0976,0.06832,0.11224,0.48312,0.45384,-0.03416,0.00976
0.01952,0.06344,-0.1464,-0.15616,-0.16592,0.09272,0.05368,0.08784,0.49288,0.45384,-0.01952,0.01952
0.01952,0.05612,-0.13176,-0.14152,-0.15128,0.0854,0.03416,0.07808,0.5124,0.47824,-0.01464,0.02928
0.01952,0.0488,-0.11712,-0.12688,-0.13664,0.07808,0.02928,0.05856,0.52704,0.49288,0,0.03416
0.01952,0.04636,-0.11224,-0.122,-0.13176,0.07564,0.0244,0.0488,0.53192,0.50264,0.00488,0.03904
0.01952,0.04636,-0.11224,-0.122,-0.13176,0.07564,0.0244,0.0488,0.54656,0.50264,0.00976,0.04392
0.01952,0.04636,-0.11224,-0.122,-0.13176,0.07564,0.01952,0.0488,0.54656,0.5124,0.01464,0.0488
0.01464,0.0488,-0.11224,-0.11956,-0.12688,0.07076,0.01464,0.04392,0.55144,0.51728,0.01952,0.0488
0.01464,0.0488,-0.11224,-0.11956,-0.12688,0.07076,0.01464,0.04392,0.55632,0.52704,0.01952,0.0488
0.01464,0.04636,-0.10736,-0.11468,-0.122,0.06832,0.01464,0.04392,0.5612,0.53192,0.01952,0.05368
0.00488,0.05124,-0.10736,-0.1098,-0.11224,0.05856,0.01464,0.0488,0.56608,0.5368,0.0244,0.05368
0.00488,0.05124,-0.10736,-0.1098,-0.11224,0.05856,0.00976,0.05368,0.57096,0.54168,0.03416,0.06344
0.00488,0.05124,-0.10736,-0.1098,-0.11224,0.05856,0.00976,0.05856,0.57096,0.54168,0.03416,0.06344
0.00488,0.0488,-0.10248,-0.10492,-0.10736,0.05612,0,0.05856,0.57584,0.54656,0.03904,0.06344
0,0.05124,-0.10248,-0.10248,-0.10248,0.05124,0,0.05368,0.58072,0.55144,0.04392,0.0732
0,0.05124,-0.10248,-0.10248,-0.10248,0.05124,0,0.05368,0.5856,0.55632,0.04392,0.0732
-0.00488,0.05124,-0.0976,-0.09516,-0.09272,0.04392,-0.00976,0.05368,0.59048,0.5612,0.0488,0.07808
-0.00976,0.05368,-0.0976,-0.09272,-0.08784,0.03904,-0.01952,0.05368,0.60024,0.57096,0.05368,0.08296
-0.00976,0.05124,-0.09272,-0.08784,-0.08296,0.0366,-0.01952,0.05368,0.60512,0.57584,0.05856,0.08784
-0.01952,0.05368,-0.08784,-0.07808,-0.06832,0.0244,-0.01952,0.0488,0.61,0.59048,0.06344,0.09272
-0.01952,0.05124,-0.08296,-0.0732,-0.06344,0.02196,-0.01952,0.0488,0.62464,0.60024,0.0732,0.0976
-0.0244,0.05124,-0.07808,-0.06588,-0.05368,0.01464,-0.02928,0.0488,0.6344,0.61,0.08296,0.10248
-0.02928,0.05124,-0.0732,-0.05856,-0.04392,0.00732,-0.02928,0.04392,0.64416,0.61976,0.09272,0.11224
-0.03416,0.05124,-0.06832,-0.05124,-0.03416,0,-0.03416,0.04392,0.65392,0.63928,0.10248,0.122
-0.03904,0.05124,-0.06344,-0.04392,-0.0244,-0.00732,-0.03904,0.04392,0.66368,0.64904,0.11224,0.13176
-0.0488,0.05368,-0.05856,-0.03416,-0.00976,-0.01952,-0.03904,0.04392,0.6832,0.67344,0.13176,0.14152
-0.05856,0.05612,-0.05368,-0.0244,0.00488,-0.03172,-0.0488,0.04392,0.69784,0.69784,0.15128,0.15616
-0.06832,0.05368,-0.03904,-0.00488,0.02928,-0.0488,-0.05368,0.03904,0.71736,0.72224,0.1708,0.16592
-0.07808,0.05368,-0.02928,0.00976,0.0488,-0.06344,-0.05856,0.03416,0.74176,0.74664,0.1952,0.18056
-0.08784,0.05368,-0.01952,0.0244,0.06832,-0.07808,-0.0732,0.02928,0.76128,0.77592,0.2196,0.20496
-0.0976,0.05368,-0.00976,0.03904,0.08784,-0.09272,-0.08296,0.01952,0.7808,0.80032,0.244,0.2196
-0.10736,0.05368,0,0.05368,0.10736,-0.10736,-0.09272,0.01464,0.79056,0.82472,0.25864,0.244
-0.11712,0.0488,0.01952,0.07808,0.13664,-0.12688,-0.10736,0.00976,0.80032,0.854,0.28304,0.25864
-0.11712,0.04392,0.02928,0.08784,0.1464,-0.13176,-0.122,0.00488,0.8052,0.86864,0.2928,0.27328
-0.122,0.03904,0.04392,0.10492,0.16592,-0.14396,-0.12688,0,0.81496,0.8784,0.31232,0.28304
-0.122,0.03416,0.05368,0.11468,0.17568,-0.14884,-0.13176,-0.00976,0.81984,0.88328,0.32208,0.2928
-0.122,0.03416,0.05368,0.11468,0.17568,-0.14884,-0.13664,-0.01464,0.82472,0.88328,0.32696,0.29768
-0.122,0.03172,0.05856,0.11956,0.18056,-0.15128,-0.14152,-0.01464,0.82472,0.88816,0.32696,0.30256
-0.122,0.02684,0.06832,0.12932,0.19032,-0.15616,-0.1464,-0.00976,0.82472,0.89304,0.33184,0.30256
-0.11712,0.02196,0.0732,0.13176,0.19032,-0.15372,-0.1464,-0.00976,0.81984,0.88816,0.32696,0.30256
-0.11224,0.02196,0.06832,0.12444,0.18056,-0.1464,-0.1464,-0.00976,0.81496,0.88328,0.32208,0.29768
-0.0976,0.01952,0.05856,0.10736,0.15616,-0.12688,-0.1464,-0.00976,0.80032,0.86376,0.30744,0.28792
-0.08784,0.01708,0.05368,0.0976,0.14152,-0.11468,-0.13664,0,0.7808,0.83936,0.27816,0.27328
-0.07808,0.01708,0.04392,0.08296,0.122,-0.10004,-0.13176,0.00488,0.76128,0.81496,0.24888,0.25376
-0.06344,0.01708,0.02928,0.061,0.09272,-0.07808,-0.11712,0.01464,0.74176,0.79056,0.22936,0.23912
-0.0488,0.01708,0.01464,0.03904,0.06344,-0.05612,-0.10736,0.01952,0.72224,0.7564,0.20496,0.21472
-0.03416,0.01708,0,0.01708,0.03416,-0.03416,-0.10248,0.01952,0.69784,0.72224,0.17568,0.1952
-0.02928,0.01952,-0.00976,0.00488,0.01952,-0.0244,-0.09272,0.0244,0.67832,0.69784,0.15128,0.17568
-0.01464,0.01952,-0.0244,-0.01708,-0.00976,-0.00244,-0.0732,0.0244,0.65392,0.67344,0.12688,0.15616
0,0.01708,-0.03416,-0.03416,-0.03416,0.01708,-0.06832,0.01952,0.63928,0.64904,0.11224,0.1464
0.00976,0.01708,-0.04392,-0.0488,-0.05368,0.03172,-0.05856,0.0244,0.62464,0.62464,0.08784,0.12688
0.01952,0.01708,-0.05368,-0.06344,-0.0732,0.04636,-0.0488,0.02928,0.61,0.60512,0.06344,0.11224
0.01952,0.01952,-0.05856,-0.06832,-0.07808,0.0488,-0.03904,0.02928,0.59048,0.59536,0.05368,0.10736
0.0244,0.0244,-0.0732,-0.0854,-0.0976,0.061,-0.02928,0.02928,0.58072,0.58072,0.04392,0.09272
0.02928,0.0244,-0.07808,-0.09272,-0.10736,0.06832,-0.02928,0.02928,0.57096,0.57096,0.03416,0.08784
0.03416,0.0244,-0.08296,-0.10004,-0.11712,0.07564,-0.0244,0.02928,0.5612,0.56608,0.0244,0.07808
0.03904,0.0244,-0.08784,-0.10736,-0.12688,0.08296,-0.01952,0.02928,0.55144,0.55632,0.01464,0.07808
0.03904,0.02684,-0.09272,-0.11224,-0.13176,0.0854,-0.01464,0.02928,0.54168,0.55144,0.01464,0.0732
0.03904,0.02928,-0.0976,-0.11712,-0.13664,0.08784,-0.00976,0.02928,0.5368,0.54168,0.00976,0.06344
0.03904,0.02928,-0.0976,-0.11712,-0.13664,0.08784,-0.00976,0.02928,0.53192,0.53192,0.00488,0.05856
0.03904,0.02928,-0.0976,-0.11712,-0.13664,0.08784,-0.00976,0.02928,0.52704,0.52704,0,0.05856
0.03904,0.02928,-0.0976,-0.11712,-0.13664,0.08784,-0.00976,0.02928,0.52216,0.52216,-0.00488,0.05368
0.03904,0.03172,-0.10248,-0.122,-0.14152,0.09028,-0.00488,0.02928,0.52216,0.52216,-0.00976,0.05368
0.03904,0.03172,-0.10248,-0.122,-0.14152,0.09028,-0.00488,0.02928,0.52216,0.52704,-0.00976,0.05368
0.03904,0.03172,-0.10248,-0.122,-0.14152,0.09028,-0.00488,0.03416,0.52216,0.52704,-0.00976,0.0488
0.03416,0.0366,-0.10736,-0.12444,-0.14152,0.08784,0,0.03416,0.52216,0.52216,-0.00976,0.04392
0.03416,0.0366,-0.10736,-0.12444,-0.14152,0.08784,0,0.03416,0.52216,0.52216,-0.01464,0.04392
0.03416,0.0366,-0.10736,-0.12444,-0.14152,0.08784,0,0.03904,0.52216,0.52216,-0.01464,0.04392
0.03416,0.0366,-0.10736,-0.12444,-0.14152,0.08784,0,0.04392,0.52216,0.52216,-0.00976,0.04392
0.03416,0.0366,-0.10736,-0.12444,-0.14152,0.08784,0,0.0488,0.52216,0.52216,-0.00976,0.04392
0.03904,0.03172,-0.10248,-0.122,-0.14152,0.09028,0,0.0488,0.52216,0.52704,-0.00488,0.04392
0.03904,0.02928,-0.0976,-0.11712,-0.13664,0.08784,0,0.0488,0.52704,0.52704,-0.00488,0.04392
0.03904,0.02928,-0.0976,-0.11712,-0.13664,0.08784,0,0.05368,0.52704,0.52704,-0.00488,0.04392
0.03904,0.02928,-0.0976,-0.11712,-0.13664,0.08784,0,0.05368,0.52704,0.52704,0,0.04392
0.03904,0.02684,-0.09272,-0.11224,-0.13176,0.0854,0,0.05856,0.52704,0.52704,0,0.04392
0.03904,0.02684,-0.09272,-0.11224,-0.13176,0.0854,0,0.06344,0.52216,0.53192,0,0.04392
0.03904,0.02684,-0.09272,-0.11224,-0.13176,0.0854,-0.00488,0.06832,0.52216,0.53192,0,0.04392
0.03904,0.02684,-0.09272,-0.11224,-0.13176,0.0854,-0.00976,0.0732,0.52216,0.53192,0,0.03904
0.03416,0.02684,-0.08784,-0.10492,-0.122,0.07808,-0.00976,0.06832,0.52216,0.53192,0,0.03904
0.02928,0.02928,-0.08784,-0.10248,-0.11712,0.0732,-0.00976,0.06832,0.52704,0.5368,0,0.03904
0.02928,0.02928,-0.08784,-0.10248,-0.11712,0.0732,-0.00976,0.06832,0.52216,0.5368,0,0.03904
0.02928,0.02928,-0.08784,-0.10248,-0.11712,0.0732,-0.00976,0.06832,0.51728,0.5368,0,0.03904
0.02928,0.02928,-0.08784,-0.10248,-0.11712,0.0732,-0.00976,0.06832,0.51728,0.5368,0,0.03904
0.02928,0.02928,-0.08784,-0.10248,-0.11712,0.0732,-0.00976,0.06344,0.5124,0.5368,0,0.03904
0.02928,0.02928,-0.08784,-0.10248,-0.11712,0.0732,-0.00976,0.06344,0.5124,0.5368,0,0.03904
0.02928,0.02928,-0.08784,-0.10248,-0.11712,0.0732,-0.00488,0.05856,0.51728,0.54168,0,0.03416
0.03416,0.02684,-0.08784,-0.10492,-0.122,0.07808,-0.00976,0.05368,0.5124,0.54168,0,0.02928
0.03416,0.0244,-0.08296,-0.10004,-0.11712,0.07564,-0.00976,0.0488,0.50752,0.5368,0,0.0244
0.03416,0.0244,-0.08296,-0.10004,-0.11712,0.07564,-0.00976,0.03904,0.50752,0.5368,0,0.0244
0.03416,0.0244,-0.08296,-0.10004,-0.11712,0.07564,-0.00976,0.03904,0.5124,0.5368,0,0.0244
0.02928,0.02684,-0.08296,-0.0976,-0.11224,0.07076,-0.00976,0.03904,0.5124,0.5368,0.00488,0.02928
0.02928,0.02684,-0.08296,-0.0976,-0.11224,0.07076,-0.00976,0.03904,0.5124,0.54168,0.00976,0.03416
0.02928,0.02928,-0.08784,-0.10248,-0.11712,0.0732,-0.00976,0.03416,0.5124,0.54168,0.00976,0.03416
0.0244,0.03172,-0.08784,-0.10004,-0.11224,0.06832,-0.00488,0.02928,0.5124,0.54168,0.00976,0.03416
0.01464,0.0366,-0.08784,-0.09516,-0.10248,0.05856,0,0.03904,0.51728,0.54168,0.00976,0.03416
0.00488,0.04148,-0.08784,-0.09028,-0.09272,0.0488,0.00488,0.03904,0.52216,0.54168,0.01464,0.03416
0,0.04636,-0.09272,-0.09272,-0.09272,0.04636,0.00488,0.04392,0.52216,0.55144,0.01464,0.03416
-0.00488,0.05368,-0.10248,-0.10004,-0.0976,0.04636,0.00488,0.0488,0.53192,0.55632,0.0244,0.04392
-0.00976,0.05612,-0.10248,-0.0976,-0.09272,0.04148,0,0.05368,0.5368,0.5612,0.02928,0.04392
-0.01952,0.06588,-0.11224,-0.10248,-0.09272,0.0366,0,0.05368,0.54168,0.5612,0.02928,0.04392
-0.02928,0.0732,-0.11712,-0.10248,-0.08784,0.02928,-0.00488,0.05856,0.5368,0.5612,0.02928,0.04392
-0.03416,0.07564,-0.11712,-0.10004,-0.08296,0.0244,-0.00976,0.05368,0.53192,0.5612,0.02928,0.04392
-0.03904,0.07808,-0.11712,-0.0976,-0.07808,0.01952,-0.0244,0.0488,0.53192,0.55632,0.0244,0.03904
-0.03904,0.08296,-0.12688,-0.10736,-0.08784,0.0244,-0.03416,0.04392,0.52216,0.54656,0.01952,0.02928
-0.03904,0.0854,-0.13176,-0.11224,-0.09272,0.02684,-0.03416,0.03904,0.5124,0.54168,0.01464,0.0244
-0.03904,0.09272,-0.1464,-0.12688,-0.10736,0.03416,-0.02928,0.04392,0.49776,0.5368,0.00976,0.01464
-0.03416,0.08784,-0.14152,-0.12444,-0.10736,0.0366,-0.02928,0.0488,0.488,0.53192,0.00488,0.00976
-0.0244,0.08052,-0.13664,-0.12444,-0.11224,0.04392,-0.02928,0.0488,0.48312,0.52704,0,0.00488
-0.0244,0.0732,-0.122,-0.1098,-0.0976,0.0366,-0.0244,0.04392,0.47336,0.51728,-0.00488,0.00488
-0.00976,0.061,-0.11224,-0.10736,-0.10248,0.04636,-0.01952,0.03904,0.46848,0.5124,-0.00976,0
0.00488,0.0488,-0.10248,-0.10492,-0.10736,0.05612,-0.01464,0.03416,0.46848,0.5124,-0.01464,-0.00488
0.01952,0.03416,-0.08784,-0.0976,-0.10736,0.06344,-0.00488,0.02928,0.46848,0.50752,-0.01464,-0.00488
0.02928,0.02196,-0.0732,-0.08784,-0.10248,0.06588,0,0.02928,0.46848,0.50264,-0.01464,-0.00488
0.03904,0.0122,-0.06344,-0.08296,-0.10248,0.07076,0,0.0244,0.46848,0.50264,-0.01464,-0.00488
0.03904,0.0122,-0.06344,-0.08296,-0.10248,0.07076,0,0.0244,0.46848,0.50264,-0.01464,-0.00488
0.03904,0.0122,-0.06344,-0.08296,-0.10248,0.07076,0,0.0244,0.4636,0.49776,-0.00976,-0.00488
0.03904,0.0122,-0.06344,-0.08296,-0.10248,0.07076,0,0.0244,0.45872,0.49776,-0.00976,-0.00488
0.04392,0.00732,-0.05856,-0.08052,-0.10248,0.0732,0,0.02928,0.45384,0.49776,-0.00976,0
0.04392,0.00732,-0.05856,-0.08052,-0.10248,0.0732,0,0.02928,0.45384,0.49776,-0.00976,0
0.04392,0.00732,-0.05856,-0.08052,-0.10248,0.0732,0,0.02928,0.45384,0.49288,-0.00976,0
0.04392,0.00732,-0.05856,-0.08052,-0.10248,0.0732,0,0.02928,0.44896,0.49776,-0.00976,0
0.04392,0.00732,-0.05856,-0.08052,-0.10248,0.0732,0,0.02928,0.44896,0.50264,-0.00488,0
0.04392,0.00488,-0.05368,-0.07564,-0.0976,0.07076,0,0.0244,0.44896,0.49776,-0.00488,0.00488
0.04392,0.00488,-0.05368,-0.07564,-0.0976,0.07076,0,0.0244,0.45384,0.49776,-0.00488,0.00976
0.04392,0.00488,-0.05368,-0.07564,-0.0976,0.07076,0,0.0244,0.45384,0.49776,-0.00488,0.00976
0.04392,0.00488,-0.05368,-0.07564,-0.0976,0.07076,0,0.0244,0.45384,0.49288,-0.00488,0.00976
0.04392,0.00488,-0.05368,-0.07564,-0.0976,0.07076,0.00488,0.02928,0.45384,0.49288,0,0.00976
0.04392,0.00488,-0.05368,-0.07564,-0.0976,0.07076,0.00976,0.03416,0.45384,0.49288,0,0.00976
0.03416,0,-0.03416,-0.05124,-0.06832,0.05124,0.00976,0.03904,0.488,0.53192,0.01952,0.0244
0.01952,-0.00488,-0.00976,-0.01952,-0.02928,0.0244,0.01464,0.0488,0.52704,0.57096,0.03904,0.03904
-0.00976,-0.01464,0.03904,0.04392,0.0488,-0.02928,0,0.0488,0.67344,0.72712,0.15128,0.0976
-0.0488,-0.04148,0.13176,0.15616,0.18056,-0.11468,-0.01952,0.0488,0.88816,0.97112,0.32208,0.19032
-0.11712,-0.05612,0.22936,0.28792,0.34648,-0.2318,-0.06344,0.0488,1.1712,1.31272,0.54168,0.33184
-0.20496,-0.0854,0.37576,0.47824,0.58072,-0.39284,-0.122,0.0488,1.52744,1.75192,0.82472,0.52216
-0.25376,-0.04392,0.3416,0.46848,0.59536,-0.42456,-0.16104,0.05856,1.58112,1.79584,0.8784,0.56608
-0.30256,-0.0122,0.32696,0.47824,0.62952,-0.46604,-0.18544,0.03904,1.59576,1.83488,0.92232,0.61
-0.28304,-0.01952,0.32208,0.4636,0.60512,-0.44408,-0.18544,0,1.2932,1.62504,0.81008,0.5856
-0.23912,0.10004,0.03904,0.1586,0.27816,-0.25864,-0.15128,-0.02928,0.70272,0.92232,0.42456,0.40016
-0.122,0.09516,-0.06832,-0.00732,0.05368,-0.08784,-0.16592,-0.122,0.40016,0.57096,0.23424,0.31232
0.122,-0.03904,-0.04392,-0.10492,-0.16592,0.14396,-0.11712,-0.244,-0.11712,0.14152,0.03416,0.1952
0.26352,-0.122,-0.01952,-0.15128,-0.28304,0.27328,-0.10736,-0.32208,-0.5124,-0.19032,-0.1464,0.122
0.23424,-0.09516,-0.04392,-0.16104,-0.27816,0.2562,-0.13176,-0.30256,-0.3416,-0.07808,-0.15616,0.08784
0.20496,-0.06588,-0.0732,-0.17568,-0.27816,0.24156,-0.10736,-0.2196,-0.22448,0.00488,-0.16592,0.0488
0.15616,-0.02928,-0.0976,-0.17568,-0.25376,0.20496,-0.07808,-0.08296,-0.03416,0.11712,-0.1464,0.01952
0.10736,0,-0.10736,-0.16104,-0.21472,0.16104,-0.01952,0.00976,0.08296,0.18056,-0.1464,0
0.06344,0.01464,-0.09272,-0.12444,-0.15616,0.1098,0.04392,0.06832,0.1952,0.2928,-0.09272,0.00488
0.03904,0.02196,-0.08296,-0.10248,-0.122,0.08052,0.06832,0.10248,0.31232,0.37088,-0.06344,0.00488
0.03416,0.0244,-0.08296,-0.10004,-0.11712,0.07564,0.06832,0.1464,0.366,0.3904,-0.0488,0.00488
0.01464,0.03416,-0.08296,-0.09028,-0.0976,0.05612,0.06832,0.16104,0.39528,0.41968,-0.03904,0.00488
0.01464,0.03172,-0.07808,-0.0854,-0.09272,0.05368,0.06344,0.11712,0.42456,0.45872,-0.01464,0.00976
0.00976,0.02684,-0.06344,-0.06832,-0.0732,0.04148,0.05856,0.10736,0.43432,0.47824,-0.00976,0.00488
0.00976,0.01952,-0.0488,-0.05368,-0.05856,0.03416,0.04392,0.0976,0.44408,0.49288,0,0.00976
0.00976,0.01464,-0.03904,-0.04392,-0.0488,0.02928,0.02928,0.08784,0.4636,0.50752,0.00488,0.01952
0.00976,0.00976,-0.02928,-0.03416,-0.03904,0.0244,0.02928,0.06832,0.47824,0.5124,0.01952,0.0244
0.00976,0.00732,-0.0244,-0.02928,-0.03416,0.02196,0.02928,0.06344,0.47824,0.52216,0.01952,0.02928
0.00976,0.00732,-0.0244,-0.02928,-0.03416,0.02196,0.03416,0.06832,0.488,0.52216,0.01952,0.03416
0.00976,0.00732,-0.0244,-0.02928,-0.03416,0.02196,0.02928,0.0732,0.488,0.52704,0.0244,0.04392
0.00488,0.00976,-0.0244,-0.02684,-0.02928,0.01708,0.0244,0.0732,0.49288,0.52704,0.02928,0.0488
0.00488,0.00976,-0.0244,-0.02684,-0.02928,0.01708,0.0244,0.0732,0.49776,0.5368,0.02928,0.0488
0.00488,0.00732,-0.01952,-0.02196,-0.0244,0.01464,0.0244,0.0732,0.50264,0.54168,0.02928,0.05368
-0.00488,0.0122,-0.01952,-0.01708,-0.01464,0.00488,0.0244,0.0732,0.50752,0.55144,0.03416,0.0488
-0.00488,0.0122,-0.01952,-0.01708,-0.01464,0.00488,0.01952,0.0732,0.5124,0.5612,0.04392,0.05368
-0.00488,0.0122,-0.01952,-0.01708,-0.01464,0.00488,0.01952,0.07808,0.5124,0.5612,0.04392,0.05368
-0.00488,0.00976,-0.01464,-0.0122,-0.00976,0.00244,0.00976,0.07808,0.51728,0.56608,0.0488,0.05368
-0.00976,0.0122,-0.01464,-0.00976,-0.00488,-0.00244,0.00976,0.0732,0.52216,0.57096,0.05856,0.06344
-0.00976,0.0122,-0.01464,-0.00976,-0.00488,-0.00244,0.00976,0.0732,0.52704,0.57584,0.06344,0.06344
-0.01464,0.0122,-0.00976,-0.00244,0.00488,-0.00976,0.00488,0.0732,0.5368,0.58072,0.06832,0.06832
-0.01952,0.01464,-0.00976,0,0.00976,-0.01464,0,0.0732,0.55144,0.59048,0.0732,0.0732
-0.01952,0.0122,-0.00488,0.00488,0.01464,-0.01708,0,0.0732,0.55632,0.59536,0.07808,0.07808
-0.02928,0.01464,0,0.01464,0.02928,-0.02928,0,0.06832,0.5612,0.61,0.08296,0.08296
-0.03416,0.01464,0.00488,0.02196,0.03904,-0.0366,0,0.0732,0.57584,0.62464,0.09272,0.08784
-0.04392,0.01708,0.00976,0.03172,0.05368,-0.0488,-0.00976,0.07808,0.5856,0.63928,0.10248,0.09272
-0.05368,0.01952,0.01464,0.04148,0.06832,-0.061,-0.00976,0.0732,0.59536,0.65392,0.11224,0.10248
-0.06344,0.02196,0.01952,0.05124,0.08296,-0.0732,-0.01464,0.0732,0.60512,0.67832,0.122,0.11224
-0.06832,0.02196,0.0244,0.05856,0.09272,-0.08052,-0.01952,0.0732,0.61976,0.68808,0.13664,0.12688
-0.07808,0.0244,0.02928,0.06832,0.10736,-0.09272,-0.01952,0.0732,0.64416,0.71248,0.16104,0.14152
-0.08784,0.02684,0.03416,0.07808,0.122,-0.10492,-0.02928,0.0732,0.6588,0.73688,0.18056,0.16104
-0.0976,0.0244,0.0488,0.0976,0.1464,-0.122,-0.03416,0.06832,0.67832,0.76128,0.20008,0.17568
-0.10736,0.0244,0.05856,0.11224,0.16592,-0.13664,-0.03416,0.06832,0.69784,0.79544,0.22448,0.19032
-0.11712,0.0244,0.06832,0.12688,0.18544,-0.15128,-0.04392,0.06832,0.71248,0.83448,0.24888,0.21472
-0.12688,0.0244,0.07808,0.14152,0.20496,-0.16592,-0.05368,0.06344,0.732,0.84424,0.27328,0.22448
-0.13664,0.0244,0.08784,0.15616,0.22448,-0.18056,-0.06344,0.06344,0.74176,0.854,0.28792,0.244
-0.1464,0.01952,0.10736,0.18056,0.25376,-0.20008,-0.0732,0.06344,0.7564,0.88328,0.30744,0.25864
-0.1464,0.01464,0.11712,0.19032,0.26352,-0.20496,-0.08296,0.06344,0.76616,0.89792,0.31232,0.27328
-0.15128,0.0122,0.12688,0.20252,0.27816,-0.21472,-0.08784,0.06344,0.77592,0.90768,0.32696,0.27816
-0.15128,0.00976,0.13176,0.2074,0.28304,-0.21716,-0.09272,0.05856,0.7808,0.91256,0.33184,0.28304
-0.1464,0.00732,0.13176,0.20496,0.27816,-0.21228,-0.09272,0.05368,0.7808,0.90768,0.33672,0.28304
-0.14152,0.00244,0.13664,0.2074,0.27816,-0.20984,-0.09272,0.05368,0.77592,0.90768,0.33672,0.28304
-0.14152,0,0.14152,0.21228,0.28304,-0.21228,-0.0976,0.05368,0.77104,0.90768,0.33184,0.27816
-0.13664,-0.00244,0.14152,0.20984,0.27816,-0.2074,-0.0976,0.0488,0.76128,0.89792,0.3172,0.27328
-0.12688,-0.00488,0.13664,0.20008,0.26352,-0.1952,-0.09272,0.0488,0.7564,0.88328,0.30744,0.26352
-0.10736,-0.00976,0.12688,0.18056,0.23424,-0.1708,-0.08784,0.0488,0.74176,0.854,0.28792,0.24888
-0.0976,-0.00976,0.11712,0.16592,0.21472,-0.15616,-0.0732,0.0488,0.71736,0.8296,0.25864,0.22936
-0.08784,-0.00732,0.10248,0.1464,0.19032,-0.13908,-0.06344,0.04392,0.69296,0.8052,0.22936,0.20496
-0.0732,-0.00732,0.08784,0.12444,0.16104,-0.11712,-0.0488,0.0488,0.67344,0.7808,0.20984,0.19032
-0.05856,-0.00732,0.0732,0.10248,0.13176,-0.09516,-0.03904,0.0488,0.65392,0.74664,0.18544,0.16592
-0.04392,-0.00732,0.05856,0.08052,0.10248,-0.0732,-0.02928,0.0488,0.62952,0.71736,0.15616,0.15128
-0.03904,-0.00488,0.0488,0.06832,0.08784,-0.06344,-0.01464,0.05368,0.61,0.69784,0.13176,0.13664
-0.0244,-0.00488,0.03416,0.04636,0.05856,-0.04148,0.00488,0.05368,0.5856,0.67344,0.10736,0.11712
-0.00976,-0.00732,0.0244,0.02928,0.03416,-0.02196,0.00976,0.0488,0.57096,0.64904,0.09272,0.10736
0,-0.00732,0.01464,0.01464,0.01464,-0.00732,0.01464,0.0488,0.55632,0.62952,0.07808,0.08784
0.00976,-0.00732,0.00488,0,-0.00488,0.00732,0.01952,0.0488,0.54168,0.61488,0.06344,0.0732
0.00976,-0.00488,0,-0.00488,-0.00976,0.00976,0.02928,0.0488,0.52704,0.60512,0.05368,0.06832
0.01464,0,-0.01464,-0.02196,-0.02928,0.02196,0.03904,0.0488,0.52216,0.59048,0.04392,0.05368
0.01952,0,-0.01952,-0.02928,-0.03904,0.02928,0.03904,0.0488,0.5124,0.58072,0.03416,0.05368
0.0244,0,-0.0244,-0.0366,-0.0488,0.0366,0.04392,0.0488,0.50264,0.57584,0.0244,0.0488
0.02928,0,-0.02928,-0.04392,-0.05856,0.04392,0.0488,0.0488,0.49776,0.56608,0.01464,0.0488
0.02928,0.00244,-0.03416,-0.0488,-0.06344,0.04636,0.05368,0.0488,0.49288,0.5612,0.01464,0.04392
0.02928,0.00488,-0.03904,-0.05368,-0.06832,0.0488,0.05856,0.0488,0.488,0.55632,0.00976,0.03416
0.02928,0.00488,-0.03904,-0.05368,-0.06832,0.0488,0.05856,0.0488,0.48312,0.55144,0.00488,0.02928
0.02928,0.00488,-0.03904,-0.05368,-0.06832,0.0488,0.05856,0.0488,0.47824,0.54656,0,0.0244
0.02928,0.00488,-0.03904,-0.05368,-0.06832,0.0488,0.05856,0.0488,0.47336,0.54168,-0.00488,0.01464
0.02928,0.00732,-0.04392,-0.05856,-0.0732,0.05124,0.06344,0.0488,0.47336,0.54168,-0.00488,0.01464
0.02928,0.00732,-0.04392,-0.05856,-0.0732,0.05124,0.06344,0.0488,0.47336,0.54656,0,0.01464
0.02928,0.00976,-0.0488,-0.06344,-0.07808,0.05368,0.06344,0.05368,0.47336,0.54656,0,0.01464
0.0244,0.01708,-0.05856,-0.07076,-0.08296,0.05368,0.06832,0.05368,0.47336,0.54168,0,0.01464
0.0244,0.01708,-0.05856,-0.07076,-0.08296,0.05368,0.06832,0.05368,0.47824,0.54168,-0.00488,0.01464
0.0244,0.01708,-0.05856,-0.07076,-0.08296,0.05368,0.06832,0.05856,0.48312,0.54168,-0.00488,0.01464
0.02928,0.01464,-0.05856,-0.0732,-0.08784,0.05856,0.06832,0.06344,0.48312,0.54656,0,0.01464
0.03416,0.0122,-0.05856,-0.07564,-0.09272,0.06344,0.06832,0.06832,0.48312,0.55144,0,0.01464
0.03416,0.0122,-0.05856,-0.07564,-0.09272,0.06344,0.06832,0.06344,0.47824,0.55632,0.00488,0.01952
0.02928,0.01464,-0.05856,-0.0732,-0.08784,0.05856,0.06832,0.05856,0.47824,0.55632,0.00488,0.0244
0.02928,0.01464,-0.05856,-0.0732,-0.08784,0.05856,0.06832,0.06344,0.47824,0.55632,0.00488,0.0244
0.02928,0.01464,-0.05856,-0.0732,-0.08784,0.05856,0.06832,0.06344,0.47824,0.55632,0.00976,0.0244
0.02928,0.0122,-0.05368,-0.06832,-0.08296,0.05612,0.06832,0.05856,0.48312,0.55632,0.00976,0.0244
0.02928,0.0122,-0.05368,-0.06832,-0.08296,0.05612,0.06832,0.05368,0.48312,0.5612,0.00976,0.0244
0.02928,0.0122,-0.05368,-0.06832,-0.08296,0.05612,0.06832,0.0488,0.48312,0.5612,0.00976,0.01952
0.02928,0.01464,-0.05856,-0.0732,-0.08784,0.05856,0.06832,0.0488,0.488,0.56608,0.00976,0.01952
0.02928,0.01464,-0.05856,-0.0732,-0.08784,0.05856,0.06344,0.04392,0.48312,0.5612,0.00976,0.01952
0.02928,0.01464,-0.05856,-0.0732,-0.08784,0.05856,0.05856,0.03904,0.47824,0.55632,0.00976,0.01952
0.0244,0.01708,-0.05856,-0.07076,-0.08296,0.05368,0.05856,0.03416,0.47824,0.55632,0.00976,0.01464
0.01952,0.01952,-0.05856,-0.06832,-0.07808,0.0488,0.05368,0.02928,0.47336,0.55632,0.00976,0.00976
0.01952,0.01952,-0.05856,-0.06832,-0.07808,0.0488,0.05368,0.0244,0.47336,0.55632,0.00976,0.00976
0.01952,0.01952,-0.05856,-0.06832,-0.07808,0.0488,0.05368,0.01952,0.47824,0.5612,0.00976,0.00488
0.0244,0.01708,-0.05856,-0.07076,-0.08296,0.05368,0.0488,0.01464,0.47336,0.5612,0.00976,0
0.0244,0.01464,-0.05368,-0.06588,-0.07808,0.05124,0.0488,0.00976,0.46848,0.55632,0.00976,-0.00488
0.0244,0.01464,-0.05368,-0.06588,-0.07808,0.05124,0.0488,0,0.46848,0.55632,0.00976,-0.00488
0.0244,0.01464,-0.05368,-0.06588,-0.07808,0.05124,0.0488,0,0.47336,0.55632,0.00976,-0.00488
0.01952,0.01708,-0.05368,-0.06344,-0.0732,0.04636,0.0488,0,0.46848,0.55632,0.00976,0
0.01952,0.01708,-0.05368,-0.06344,-0.0732,0.04636,0.0488,0,0.4636,0.5612,0.00976,0.00488
0.01952,0.01708,-0.05368,-0.06344,-0.0732,0.04636,0.0488,0,0.4636,0.5612,0.00976,0.00488
0.01464,0.01708,-0.0488,-0.05612,-0.06344,0.03904,0.05368,0,0.4636,0.5612,0.00976,0.00488
0.00976,0.01952,-0.0488,-0.05368,-0.05856,0.03416,0.05368,0.00976,0.46848,0.5612,0.00976,0.00976
0.00488,0.02196,-0.0488,-0.05124,-0.05368,0.02928,0.05368,0.00976,0.47336,0.5612,0.01464,0.01464
0,0.0244,-0.0488,-0.0488,-0.0488,0.0244,0.05368,0.00976,0.47336,0.57096,0.01464,0.01464
-0.00488,0.02928,-0.05368,-0.05124,-0.0488,0.02196,0.05368,0.00976,0.48312,0.57584,0.0244,0.0244
-0.00976,0.02928,-0.0488,-0.04392,-0.03904,0.01464,0.05368,0.01464,0.488,0.58072,0.02928,0.0244
-0.01952,0.0366,-0.05368,-0.04392,-0.03416,0.00732,0.05856,0.01464,0.49288,0.58072,0.02928,0.0244
-0.02928,0.04392,-0.05856,-0.04392,-0.02928,0,0.05368,0.0244,0.488,0.58072,0.02928,0.0244
-0.03416,0.04636,-0.05856,-0.04148,-0.0244,-0.00488,0.0488,0.0244,0.48312,0.58072,0.02928,0.0244
-0.03904,0.0488,-0.05856,-0.03904,-0.01952,-0.00976,0.03416,0.01952,0.48312,0.58072,0.02928,0.02928
-0.03904,0.05368,-0.06832,-0.0488,-0.02928,-0.00488,0.0244,0.01464,0.47336,0.57584,0.02928,0.02928
-0.03416,0.05856,-0.08296,-0.06588,-0.0488,0.00732,0.01952,0.00488,0.4636,0.56608,0.01952,0.0244
-0.02928,0.06832,-0.10736,-0.09272,-0.07808,0.0244,0.01952,0.00488,0.44896,0.55632,0.00976,0.01464
-0.0244,0.06588,-0.10736,-0.09516,-0.08296,0.02928,0.01952,0.00976,0.4392,0.55144,0.00488,0.00976
-0.01464,0.061,-0.10736,-0.10004,-0.09272,0.03904,0.01952,0.00976,0.43432,0.54656,0,0.00488
-0.01464,0.05368,-0.09272,-0.0854,-0.07808,0.03172,0.01952,0.00488,0.42456,0.5368,0,0.00976
0,0.04148,-0.08296,-0.08296,-0.08296,0.04148,0.01952,0,0.41968,0.53192,0,0.00976
0.01464,0.02684,-0.06832,-0.07564,-0.08296,0.0488,0.0244,-0.00488,0.41968,0.53192,-0.00488,0.00488
0.02928,0.00976,-0.0488,-0.06344,-0.07808,0.05368,0.03416,-0.00976,0.41968,0.52704,-0.00488,0.00488
0.03904,-0.00244,-0.03416,-0.05368,-0.0732,0.05612,0.03416,-0.01464,0.41968,0.52704,-0.00976,0
0.0488,-0.0122,-0.0244,-0.0488,-0.0732,0.061,0.02928,-0.0244,0.41968,0.53192,-0.01464,-0.00488
0.0488,-0.0122,-0.0244,-0.0488,-0.0732,0.061,0.02928,-0.0244,0.41968,0.53192,-0.01464,-0.00488
0.0488,-0.0122,-0.0244,-0.0488,-0.0732,0.061,0.02928,-0.0244,0.4148,0.52704,-0.00976,-0.00488
0.0488,-0.00976,-0.02928,-0.05368,-0.07808,0.06344,0.02928,-0.0244,0.4148,0.52704,-0.00976,-0.00488
0.05368,-0.0122,-0.02928,-0.05612,-0.08296,0.06832,0.02928,-0.01952,0.4148,0.52704,-0.00976,0
0.05368,-0.0122,-0.02928,-0.05612,-0.08296,0.06832,0.02928,-0.01952,0.4148,0.53192,-0.00488,0.00488
0.05368,-0.0122,-0.02928,-0.05612,-0.08296,0.06832,0.02928,-0.01952,0.4148,0.53192,0,0.00976
0.05368,-0.0122,-0.02928,-0.05612,-0.08296,0.06832,0.02928,-0.01952,0.40504,0.53192,-0.00488,0.00976
0.05368,-0.0122,-0.02928,-0.05612,-0.08296,0.06832,0.02928,-0.01952,0.40016,0.53192,-0.00488,0.00976
0.05368,-0.01464,-0.0244,-0.05124,-0.07808,0.06588,0.0244,-0.0244,0.39528,0.52704,-0.00488,0.00976
0.05368,-0.01464,-0.0244,-0.05124,-0.07808,0.06588,0.01952,-0.0244,0.39528,0.52704,-0.00488,0.00976
0.05368,-0.01464,-0.0244,-0.05124,-0.07808,0.06588,0.01952,-0.0244,0.39528,0.52704,-0.00488,0.00976
0.05368,-0.01464,-0.0244,-0.05124,-0.07808,0.06588,0.01952,-0.0244,0.39528,0.52216,-0.00488,0.00976
0.0488,-0.0122,-0.0244,-0.0488,-0.0732,0.061,0.01952,-0.0244,0.39528,0.52216,0,0.00976
0.04392,-0.00976,-0.0244,-0.04636,-0.06832,0.05612,0.01952,-0.0244,0.39528,0.52216,0,0.00976
0.03904,-0.00976,-0.01952,-0.03904,-0.05856,0.0488,0.01952,-0.01464,0.41968,0.54168,0.00976,0.01952
0.02928,-0.00976,-0.00976,-0.0244,-0.03904,0.03416,0.0244,0,0.44896,0.5612,0.01952,0.02928
0.00976,-0.0244,0.03904,0.03416,0.02928,-0.00976,0.01464,0.00488,0.57584,0.71248,0.11712,0.08784
-0.01952,-0.05612,0.13176,0.14152,0.15128,-0.0854,0,0.00976,0.77104,0.9516,0.27328,0.18056
-0.08784,-0.07076,0.22936,0.27328,0.3172,-0.20252,-0.03904,0.01464,1.05896,1.2932,0.50752,0.3172
-0.17568,-0.10004,0.37576,0.4636,0.55144,-0.36356,-0.09272,0.01952,1.42008,1.7324,0.8052,0.50264
-0.2196,-0.08784,0.39528,0.50508,0.61488,-0.41724,-0.12688,0.03904,1.54208,1.84952,0.89792,0.5856
-0.26352,-0.0854,0.43432,0.56608,0.69784,-0.48068,-0.1464,0.02928,1.62504,1.96176,0.98088,0.66856
-0.22448,-0.12932,0.48312,0.59536,0.7076,-0.46604,-0.1464,-0.0244,1.342,1.76168,0.89304,0.65392
-0.16104,-0.04636,0.25376,0.33428,0.4148,-0.28792,-0.11224,-0.06832,0.77104,1.06872,0.53192,0.47824
-0.06832,-0.02196,0.11224,0.1464,0.18056,-0.12444,-0.13176,-0.1464,0.42456,0.66368,0.28792,0.36112
0.15128,-0.12688,0.10248,0.02684,-0.0488,0.10004,-0.08784,-0.25376,-0.13664,0.18056,0.03416,0.21472
0.28792,-0.18788,0.08784,-0.05612,-0.20008,0.244,-0.06344,-0.30744,-0.53192,-0.15616,-0.14152,0.122
0.25376,-0.13908,0.0244,-0.10248,-0.22936,0.24156,-0.0732,-0.26352,-0.36112,-0.0488,-0.1464,0.06832
0.22448,-0.09272,-0.03904,-0.15128,-0.26352,0.244,-0.05856,-0.20496,-0.28304,0.01464,-0.1708,0.0244
0.17568,-0.03904,-0.0976,-0.18544,-0.27328,0.22448,-0.03904,-0.09272,-0.13176,0.10736,-0.16592,-0.00976
0.12688,-0.00976,-0.10736,-0.1708,-0.23424,0.18056,0,0,0.00488,0.18544,-0.16592,-0.01952
0.08296,0.00488,-0.09272,-0.1342,-0.17568,0.12932,0.04392,0.05856,0.13664,0.31232,-0.11224,-0.00488
0.05368,0.01464,-0.08296,-0.1098,-0.13664,0.09516,0.0732,0.08296,0.24888,0.3904,-0.08296,-0.00488
0.04392,0.01952,-0.08296,-0.10492,-0.12688,0.0854,0.07808,0.11712,0.29768,0.40992,-0.06832,-0.00488
0.0244,0.02684,-0.07808,-0.09028,-0.10248,0.06344,0.08296,0.15616,0.33672,0.44896,-0.05856,-0.00488
0.0244,0.02196,-0.06832,-0.08052,-0.09272,0.05856,0.08296,0.13664,0.37576,0.49776,-0.03416,0
0.01952,0.01708,-0.05368,-0.06344,-0.0732,0.04636,0.0732,0.11224,0.38552,0.50264,-0.0244,0
0.01952,0.00976,-0.03904,-0.0488,-0.05856,0.03904,0.05368,0.08784,0.39528,0.50264,-0.00976,0.00976
0.01952,0.00244,-0.0244,-0.03416,-0.04392,0.03172,0.03416,0.07808,0.40992,0.52704,-0.00488,0.01952
0.01952,-0.00488,-0.00976,-0.01952,-0.02928,0.0244,0.02928,0.05856,0.41968,0.54168,0.00976,0.0244
0.01952,-0.00732,-0.00488,-0.01464,-0.0244,0.02196,0.01952,0.0488,0.41968,0.55144,0.01464,0.02928
0.01952,-0.00732,-0.00488,-0.01464,-0.0244,0.02196,0.01464,0.0488,0.42944,0.55144,0.01952,0.03416
0.01952,-0.00976,0,-0.00976,-0.01952,0.01952,0.00976,0.0488,0.42944,0.55632,0.0244,0.03904
0.01464,-0.00976,0.00488,-0.00244,-0.00976,0.0122,0.00488,0.04392,0.43432,0.55632,0.02928,0.03904
0.01464,-0.00976,0.00488,-0.00244,-0.00976,0.0122,0,0.04392,0.4392,0.56608,0.02928,0.04392
0.01464,-0.0122,0.00976,0.00244,-0.00488,0.00976,-0.00488,0.04392,0.44408,0.57096,0.02928,0.05368
0.00488,-0.00732,0.00976,0.00732,0.00488,0,-0.00488,0.04392,0.44896,0.57584,0.02928,0.05368
0.00488,-0.00732,0.00976,0.00732,0.00488,0,-0.00976,0.04392,0.45384,0.58072,0.03416,0.06344
0,-0.00488,0.00976,0.00976,0.00976,-0.00488,-0.00488,0.0488,0.45872,0.5856,0.03416,0.05856
-0.00488,-0.00488,0.01464,0.01708,0.01952,-0.0122,-0.00976,0.0488,0.46848,0.59536,0.03904,0.05368
-0.00976,0,0.00976,0.01464,0.01952,-0.01464,-0.00976,0.04392,0.47336,0.60024,0.04392,0.06344
-0.00976,0.00244,0.00488,0.00976,0.01464,-0.0122,-0.00976,0.04392,0.47824,0.60512,0.04392,0.06344
-0.01464,0.00244,0.00976,0.01708,0.0244,-0.01952,-0.01464,0.03904,0.48312,0.61,0.05368,0.0732
-0.01952,0.00488,0.00976,0.01952,0.02928,-0.0244,-0.01952,0.03416,0.49288,0.61976,0.06344,0.08296
-0.01952,0.00244,0.01464,0.0244,0.03416,-0.02684,-0.01952,0.03416,0.49776,0.62464,0.06832,0.08784
-0.02928,0.00488,0.01952,0.03416,0.0488,-0.03904,-0.01952,0.02928,0.50264,0.63928,0.0732,0.09272
-0.02928,0.00244,0.0244,0.03904,0.05368,-0.04148,-0.01952,0.02928,0.51728,0.64904,0.08296,0.0976
-0.03416,0.00244,0.02928,0.04636,0.06344,-0.0488,-0.02928,0.02928,0.52704,0.6588,0.09272,0.10248
-0.04392,0.00488,0.03416,0.05612,0.07808,-0.061,-0.02928,0.01952,0.5368,0.67344,0.10248,0.11224
-0.05368,0.00732,0.03904,0.06588,0.09272,-0.0732,-0.03416,0.01464,0.54656,0.69784,0.11224,0.122
-0.05856,0.00732,0.04392,0.0732,0.10248,-0.08052,-0.04392,0.01464,0.55632,0.7076,0.122,0.13176
-0.06832,0.00976,0.0488,0.08296,0.11712,-0.09272,-0.0488,0.01464,0.57584,0.732,0.14152,0.14152
-0.07808,0.01464,0.0488,0.08784,0.12688,-0.10248,-0.05856,0.01464,0.5856,0.7564,0.16104,0.16592
-0.08784,0.01464,0.05856,0.10248,0.1464,-0.11712,-0.06344,0.00976,0.60024,0.7808,0.18056,0.18544
-0.0976,0.01464,0.06832,0.11712,0.16592,-0.13176,-0.06832,0.00976,0.61488,0.80032,0.20496,0.20008
-0.10736,0.01464,0.07808,0.13176,0.18544,-0.1464,-0.08296,0.00976,0.62464,0.82472,0.22936,0.22448
-0.11224,0.0122,0.08784,0.14396,0.20008,-0.15616,-0.09272,0.00488,0.64416,0.84424,0.25376,0.23424
-0.11712,0.00976,0.0976,0.15616,0.21472,-0.16592,-0.10248,0.00488,0.65392,0.86376,0.2684,0.25376
-0.12688,0.00488,0.11712,0.18056,0.244,-0.18544,-0.11224,0.00488,0.66368,0.88816,0.28792,0.26352
-0.12688,0,0.12688,0.19032,0.25376,-0.19032,-0.122,0.00488,0.66856,0.89792,0.2928,0.27328
-0.13176,0,0.13176,0.19764,0.26352,-0.19764,-0.122,0.01464,0.67832,0.90768,0.30744,0.27816
-0.13176,0,0.13176,0.19764,0.26352,-0.19764,-0.122,0.01952,0.6832,0.91256,0.31232,0.28304
-0.13176,0,0.13176,0.19764,0.26352,-0.19764,-0.122,0.01464,0.67832,0.90768,0.31232,0.28792
-0.13176,-0.00244,0.13664,0.20252,0.2684,-0.20008,-0.122,0.01464,0.66856,0.90768,0.30744,0.2928
-0.12688,-0.00732,0.14152,0.20496,0.2684,-0.19764,-0.12688,0.01464,0.66368,0.89792,0.29768,0.2928
-0.11712,-0.0122,0.14152,0.20008,0.25864,-0.18788,-0.12688,0.00976,0.65392,0.8784,0.27816,0.2928
-0.10736,-0.01708,0.14152,0.1952,0.24888,-0.17812,-0.122,0.00976,0.64904,0.86864,0.27328,0.28304
-0.08784,-0.0244,0.13664,0.18056,0.22448,-0.15616,-0.11712,0.00976,0.6344,0.84424,0.25864,0.2684
-0.07808,-0.02684,0.13176,0.1708,0.20984,-0.14396,-0.10248,0.00976,0.61488,0.81984,0.22936,0.24888
-0.06832,-0.02684,0.122,0.15616,0.19032,-0.12932,-0.09272,0.00488,0.59536,0.79544,0.20008,0.22448
-0.05368,-0.0244,0.10248,0.12932,0.15616,-0.10492,-0.07808,0.00976,0.57584,0.77592,0.18056,0.20984
-0.03904,-0.02196,0.08296,0.10248,0.122,-0.08052,-0.06832,0.00976,0.55632,0.74664,0.15616,0.18544
-0.0244,-0.02196,0.06832,0.08052,0.09272,-0.05856,-0.05856,0.00976,0.54168,0.71736,0.12688,0.16592
-0.01952,-0.01952,0.05856,0.06832,0.07808,-0.0488,-0.04392,0.01464,0.53192,0.69784,0.10248,0.1464
-0.00976,-0.01708,0.04392,0.0488,0.05368,-0.03172,-0.0244,0.01464,0.50752,0.67344,0.08296,0.13176
0,-0.01708,0.03416,0.03416,0.03416,-0.01708,-0.01952,0.00976,0.49288,0.64904,0.0732,0.12688
0.00976,-0.01952,0.02928,0.0244,0.01952,-0.00488,-0.00976,0.00976,0.47824,0.62952,0.05856,0.11224
0.01952,-0.02196,0.0244,0.01464,0.00488,0.00732,0,0.00976,0.4636,0.61488,0.04392,0.10248
0.01952,-0.02196,0.0244,0.01464,0.00488,0.00732,0.00976,0.00976,0.44896,0.60512,0.03416,0.0976
0.0244,-0.01952,0.01464,0.00244,-0.00976,0.01708,0.01952,0.00976,0.44408,0.59048,0.0244,0.08296
0.02928,-0.01952,0.00976,-0.00488,-0.01952,0.0244,0.01952,0.00488,0.4392,0.5856,0.01464,0.07808
0.03416,-0.01952,0.00488,-0.0122,-0.02928,0.03172,0.0244,0,0.43432,0.5856,0.00488,0.06832
0.03904,-0.01708,-0.00488,-0.0244,-0.04392,0.04148,0.02928,0,0.42944,0.58072,0,0.0732
0.03904,-0.0122,-0.01464,-0.03416,-0.05368,0.04636,0.03416,0,0.42456,0.58072,0.00488,0.0732
0.03904,-0.00976,-0.01952,-0.03904,-0.05856,0.0488,0.03904,0,0.41968,0.57584,0,0.06344
0.03904,-0.00976,-0.01952,-0.03904,-0.05856,0.0488,0.03904,0,0.4148,0.57096,-0.00488,0.05856
0.03904,-0.00976,-0.01952,-0.03904,-0.05856,0.0488,0.04392,0,0.40992,0.56608,-0.00976,0.05856
0.03904,-0.00976,-0.01952,-0.03904,-0.05856,0.0488,0.0488,0,0.40504,0.5612,-0.01464,0.05368
0.03904,-0.00976,-0.01952,-0.03904,-0.05856,0.0488,0.05368,0,0.40504,0.5612,-0.01464,0.05368
0.03904,-0.0122,-0.01464,-0.03416,-0.05368,0.04636,0.05368,0,0.40504,0.56608,-0.00976,0.05368
0.03904,-0.0122,-0.01464,-0.03416,-0.05368,0.04636,0.04392,0.00976,0.40504,0.56608,-0.00976,0.05368
0.03416,-0.00732,-0.01952,-0.0366,-0.05368,0.04392,0.03904,0.01464,0.40504,0.5612,-0.00976,0.05368
0.03416,-0.00732,-0.01952,-0.0366,-0.05368,0.04392,0.03904,0.01952,0.40992,0.5612,-0.00976,0.05368
0.03416,-0.00732,-0.01952,-0.0366,-0.05368,0.04392,0.03904,0.02928,0.4148,0.5612,-0.00488,0.05368
0.03416,-0.00488,-0.0244,-0.04148,-0.05856,0.04636,0.03904,0.03416,0.4148,0.56608,0,0.05368
0.03416,-0.00244,-0.02928,-0.04636,-0.06344,0.0488,0.03904,0.03904,0.4148,0.57096,0,0.05368
0.03416,-0.00244,-0.02928,-0.04636,-0.06344,0.0488,0.03904,0.03904,0.4148,0.58072,0.00488,0.05856
0.02928,0,-0.02928,-0.04392,-0.05856,0.04392,0.03904,0.03904,0.41968,0.5856,0.00488,0.06344
0.02928,0,-0.02928,-0.04392,-0.05856,0.04392,0.03904,0.04392,0.4148,0.5856,0.00488,0.06344
0.02928,0,-0.02928,-0.04392,-0.05856,0.04392,0.03904,0.04392,0.4148,0.5856,0.00976,0.06344
0.0244,-0.00244,-0.01952,-0.03172,-0.04392,0.03416,0.03416,0.03904,0.4148,0.5856,0.00976,0.05856
0.01952,-0.00244,-0.01464,-0.0244,-0.03416,0.02684,0.02928,0.03904,0.4148,0.5856,0.00976,0.05856
0.01952,-0.00244,-0.01464,-0.0244,-0.03416,0.02684,0.02928,0.03416,0.40992,0.58072,0.00488,0.05368
0.01952,0,-0.01952,-0.02928,-0.03904,0.02928,0.02928,0.02928,0.40992,0.57584,0,0.0488
0.01952,0,-0.01952,-0.02928,-0.03904,0.02928,0.02928,0.0244,0.40992,0.57584,0,0.0488
0.01952,0,-0.01952,-0.02928,-0.03904,0.02928,0.02928,0.01952,0.40992,0.57584,0,0.0488
0.01952,0,-0.01952,-0.02928,-0.03904,0.02928,0.02928,0.01952,0.40504,0.58072,0,0.0488
0.01952,0,-0.01952,-0.02928,-0.03904,0.02928,0.0244,0.01464,0.40016,0.58072,0,0.0488
0.01952,0,-0.01952,-0.02928,-0.03904,0.02928,0.0244,0.00976,0.40016,0.58072,0.00488,0.0488
0.0244,-0.00244,-0.01952,-0.03172,-0.04392,0.03416,0.01952,0.00488,0.39528,0.58072,0.00976,0.05368
0.0244,-0.00488,-0.01464,-0.02684,-0.03904,0.03172,0.01952,0,0.3904,0.57584,0.00976,0.05368
0.0244,-0.00488,-0.01464,-0.02684,-0.03904,0.03172,0.01952,-0.00976,0.3904,0.57584,0.00976,0.05368
0.02928,-0.00976,-0.00976,-0.0244,-0.03904,0.03416,0.01952,-0.00976,0.3904,0.57584,0.00976,0.0488
0.02928,-0.0122,-0.00488,-0.01952,-0.03416,0.03172,0.01952,-0.00976,0.38552,0.57584,0.00976,0.04392
0.02928,-0.0122,-0.00488,-0.01952,-0.03416,0.03172,0.01952,-0.00976,0.38552,0.57584,0.00488,0.03904
0.02928,-0.0122,-0.00488,-0.01952,-0.03416,0.03172,0.01952,-0.00976,0.38552,0.57096,0,0.03416
0.0244,-0.0122,0,-0.0122,-0.0244,0.0244,0.0244,-0.00976,0.38552,0.56608,0,0.03416
0.01952,-0.00976,0,-0.00976,-0.01952,0.01952,0.0244,0,0.38552,0.5612,0,0.03416
0.01464,-0.00976,0.00488,-0.00244,-0.00976,0.0122,0.0244,0.00488,0.38552,0.5612,0.00488,0.03416
0.00976,-0.00976,0.00976,0.00488,0,0.00488,0.0244,0.01464,0.38552,0.57096,0.00488,0.03416
0.00488,-0.00488,0.00488,0.00244,0,0.00244,0.0244,0.01952,0.39528,0.57584,0.01464,0.04392
0,-0.00244,0.00488,0.00488,0.00488,-0.00244,0.0244,0.02928,0.40016,0.58072,0.01952,0.04392
-0.00976,0.00976,-0.00976,-0.00488,0,-0.00488,0.02928,0.03416,0.40504,0.5856,0.01952,0.04392
-0.01952,0.01952,-0.01952,-0.00976,0,-0.00976,0.02928,0.04392,0.40504,0.59048,0.01952,0.04392
-0.0244,0.02196,-0.01952,-0.00732,0.00488,-0.01464,0.02928,0.0488,0.40504,0.59536,0.01952,0.04392
-0.02928,0.0244,-0.01952,-0.00488,0.00976,-0.01952,0.01464,0.0488,0.40504,0.60024,0.01952,0.0488
-0.02928,0.02684,-0.0244,-0.00976,0.00488,-0.01708,0.00488,0.04392,0.40016,0.59536,0.01952,0.0488
-0.02928,0.02928,-0.02928,-0.01464,0,-0.01464,0,0.03416,0.39528,0.59048,0.01464,0.04392
-0.02928,0.03904,-0.0488,-0.03416,-0.01952,-0.00488,0,0.03416,0.38064,0.58072,0.00976,0.02928
-0.02928,0.03904,-0.0488,-0.03416,-0.01952,-0.00488,0,0.03904,0.37088,0.57096,0.00488,0.01952
-0.0244,0.04148,-0.05856,-0.04636,-0.03416,0.00488,0,0.03904,0.36112,0.56608,0,0.00976
-0.0244,0.04392,-0.06344,-0.05124,-0.03904,0.00732,0,0.03416,0.34648,0.55144,-0.00488,0.00488
-0.00976,0.03904,-0.06832,-0.06344,-0.05856,0.0244,0,0.02928,0.3416,0.54168,-0.00976,0
0.00488,0.02928,-0.06344,-0.06588,-0.06832,0.0366,0.00488,0.0244,0.3416,0.54168,-0.01464,-0.00488
0.01952,0.01464,-0.0488,-0.05856,-0.06832,0.04392,0.01464,0.01952,0.33672,0.5368,-0.01464,-0.00488
0.02928,0.00244,-0.03416,-0.0488,-0.06344,0.04636,0.01952,0.01952,0.33184,0.5368,-0.01464,-0.00488
0.03904,-0.00976,-0.01952,-0.03904,-0.05856,0.0488,0.01952,0.01464,0.33184,0.54168,-0.01464,-0.00488
0.03904,-0.0122,-0.01464,-0.03416,-0.05368,0.04636,0.01952,0.01464,0.33184,0.54168,-0.01464,-0.00488
0.03904,-0.0122,-0.01464,-0.03416,-0.05368,0.04636,0.01464,0.01464,0.32696,0.5368,-0.00976,0
0.03904,-0.0122,-0.01464,-0.03416,-0.05368,0.04636,0.00976,0.00976,0.32696,0.5368,-0.00976,0.00488
0.04392,-0.01708,-0.00976,-0.03172,-0.05368,0.0488,0.00976,0.00976,0.32696,0.5368,-0.00976,0.00976
0.04392,-0.01708,-0.00976,-0.03172,-0.05368,0.0488,0.00976,0.00976,0.32696,0.5368,-0.00976,0.00976
0.04392,-0.01708,-0.00976,-0.03172,-0.05368,0.0488,0.00976,0.00976,0.32696,0.53192,-0.00976,0.00488
0.04392,-0.01708,-0.00976,-0.03172,-0.05368,0.0488,0.00976,0.00976,0.32208,0.53192,-0.01464,0
0.04392,-0.01464,-0.01464,-0.0366,-0.05856,0.05124,0.00976,0.01952,0.32208,0.53192,-0.01464,0
0.04392,-0.01464,-0.01464,-0.0366,-0.05856,0.05124,0.00976,0.0244,0.3172,0.52704,-0.01464,0
0.04392,-0.01464,-0.01464,-0.0366,-0.05856,0.05124,0.00976,0.0244,0.3172,0.52704,-0.01464,0
0.04392,-0.01464,-0.01464,-0.0366,-0.05856,0.05124,0.00976,0.0244,0.3172,0.52704,-0.01464,0
0.04392,-0.01708,-0.00976,-0.03172,-0.05368,0.0488,0.00488,0.0244,0.3172,0.51728,-0.01952,0
0.04392,-0.01952,-0.00488,-0.02684,-0.0488,0.04636,0,0.0244,0.3172,0.5124,-0.01952,0
0.04392,-0.01952,-0.00488,-0.02684,-0.0488,0.04636,0,0.01952,0.31232,0.50752,-0.01952,-0.00488
0.04392,-0.01952,-0.00488,-0.02684,-0.0488,0.04636,0,0.01952,0.30744,0.50264,-0.01952,-0.00976
0.04392,-0.01708,-0.00976,-0.03172,-0.05368,0.0488,0.01464,0.02928,0.28792,0.48312,-0.03416,-0.00976
0.04392,-0.01708,-0.00976,-0.03172,-0.05368,0.0488,0.0244,0.03416,0.30744,0.488,-0.03904,-0.00976
0.03416,-0.02684,0.01952,0.00244,-0.01464,0.0244,0.01952,0.04392,0.37576,0.54656,-0.00488,-0.00488
-0.00976,-0.04148,0.09272,0.0976,0.10248,-0.05612,-0.00976,0.0488,0.57584,0.7808,0.16104,0.08784
-0.07808,-0.08784,0.25376,0.2928,0.33184,-0.20496,-0.05368,0.0488,0.89304,1.16632,0.42456,0.25864
-0.1464,-0.122,0.3904,0.4636,0.5368,-0.3416,-0.122,0.0488,1.2444,1.59576,0.71248,0.4392
-0.21472,-0.19764,0.61,0.71736,0.82472,-0.51972,-0.18544,0.01952,1.69824,2.21552,1.10776,0.6832
-0.24888,-0.244,0.73688,0.86132,0.98576,-0.61732,-0.21472,0.00976,1.82512,2.43512,1.25416,0.79544
-0.2928,-0.11224,0.51728,0.66368,0.81008,-0.55144,-0.20008,0.01952,1.59576,2.03496,1.03944,0.7076
-0.2928,0.0122,0.2684,0.4148,0.5612,-0.427,-0.20008,0,1.14192,1.50304,0.73688,0.5856
-0.122,0.00976,0.10248,0.16348,0.22448,-0.17324,-0.12688,-0.05856,0.27816,0.67344,0.32696,0.38064
0.1464,-0.12444,0.10248,0.02928,-0.04392,0.09516,-0.08296,-0.20984,-0.44408,0.03416,0.00976,0.23912
0.25864,-0.16836,0.07808,-0.05124,-0.18056,0.2196,-0.08296,-0.28304,-0.52216,-0.05368,-0.08784,0.15128
0.25864,-0.13176,0.00488,-0.12444,-0.25376,0.2562,-0.07808,-0.25376,-0.51728,-0.08296,-0.15616,0.07808
0.21472,-0.06344,-0.08784,-0.1952,-0.30256,0.25864,-0.0732,-0.15128,-0.41968,-0.06832,-0.20496,0
0.16592,-0.01464,-0.13664,-0.2196,-0.30256,0.23424,-0.03904,-0.0488,-0.27328,0.01464,-0.23424,-0.05368
0.11712,-0.00488,-0.10736,-0.16592,-0.22448,0.1708,0.00488,0.01952,-0.08784,0.20008,-0.16592,-0.03904
0.07808,0.00244,-0.08296,-0.122,-0.16104,0.11956,0.04392,0.05856,0.0488,0.30256,-0.122,-0.0244
0.06344,0.00732,-0.07808,-0.1098,-0.14152,0.10248,0.05856,0.11224,0.11224,0.32208,-0.10736,-0.0244
0.03904,0.01708,-0.0732,-0.09272,-0.11224,0.07564,0.06344,0.16104,0.18544,0.38064,-0.09272,-0.0244
0.02928,0.01708,-0.06344,-0.07808,-0.09272,0.061,0.06344,0.15616,0.25864,0.45872,-0.05856,-0.01464
0.01952,0.0122,-0.04392,-0.05368,-0.06344,0.04148,0.05856,0.14152,0.27816,0.47336,-0.04392,-0.00976
0.01952,0.00488,-0.02928,-0.03904,-0.0488,0.03416,0.04392,0.11712,0.28792,0.47336,-0.02928,0
0.01952,-0.00244,-0.01464,-0.0244,-0.03416,0.02684,0.0244,0.10736,0.30744,0.49776,-0.0244,0.00976
0.01952,-0.00976,0,-0.00976,-0.01952,0.01952,0.01464,0.08296,0.33184,0.53192,-0.00976,0.01464
0.01952,-0.0122,0.00488,-0.00488,-0.01464,0.01708,0.00488,0.06832,0.3416,0.5612,-0.00488,0.01952
0.01952,-0.0122,0.00488,-0.00488,-0.01464,0.01708,0.00488,0.06832,0.35136,0.55144,0,0.0244
0.01952,-0.0122,0.00488,-0.00488,-0.01464,0.01708,0,0.06832,0.35136,0.55144,0.00488,0.02928
0.01464,-0.00976,0.00488,-0.00244,-0.00976,0.0122,-0.00488,0.06344,0.35624,0.55632,0.01464,0.03416
0.01464,-0.00976,0.00488,-0.00244,-0.00976,0.0122,-0.00488,0.06344,0.36112,0.56608,0.01952,0.03904
0.01464,-0.0122,0.00976,0.00244,-0.00488,0.00976,-0.00488,0.06344,0.36112,0.57096,0.01952,0.04392
0.00488,-0.00732,0.00976,0.00732,0.00488,0,-0.00488,0.06344,0.36112,0.57584,0.0244,0.04392
0.00488,-0.00732,0.00976,0.00732,0.00488,0,-0.00488,0.06344,0.366,0.58072,0.03416,0.05368
0.00488,-0.00732,0.00976,0.00732,0.00488,0,0,0.06832,0.366,0.58072,0.03416,0.05368
0.00488,-0.0122,0.01952,0.01708,0.01464,-0.00488,-0.00976,0.06832,0.37576,0.5856,0.03904,0.0488
0,-0.0122,0.0244,0.0244,0.0244,-0.0122,-0.00976,0.06344,0.38552,0.59048,0.04392,0.05368
0,-0.0122,0.0244,0.0244,0.0244,-0.0122,-0.00976,0.06344,0.3904,0.59536,0.04392,0.05368
-0.00488,-0.0122,0.02928,0.03172,0.03416,-0.01952,-0.01464,0.06344,0.39528,0.60024,0.0488,0.05856
-0.00976,-0.00976,0.02928,0.03416,0.03904,-0.0244,-0.01952,0.05856,0.40504,0.61,0.05368,0.06344
-0.00976,-0.0122,0.03416,0.03904,0.04392,-0.02684,-0.01952,0.05368,0.40992,0.61488,0.05856,0.06832
-0.01952,-0.00976,0.03904,0.0488,0.05856,-0.03904,-0.01952,0.0488,0.40992,0.62952,0.05856,0.0732
-0.01952,-0.0122,0.04392,0.05368,0.06344,-0.04148,-0.01952,0.0488,0.41968,0.63928,0.06344,0.07808
-0.0244,-0.00976,0.04392,0.05612,0.06832,-0.04636,-0.0244,0.0488,0.42944,0.64904,0.0732,0.08296
-0.02928,-0.00732,0.04392,0.05856,0.0732,-0.05124,-0.01952,0.04392,0.4392,0.6588,0.08296,0.09272
-0.03416,-0.00732,0.0488,0.06588,0.08296,-0.05856,-0.0244,0.04392,0.44896,0.67832,0.09272,0.10248
-0.03904,-0.00732,0.05368,0.0732,0.09272,-0.06588,-0.02928,0.04392,0.45872,0.68808,0.10248,0.11224
-0.0488,-0.00732,0.06344,0.08784,0.11224,-0.08052,-0.03416,0.04392,0.47824,0.71248,0.122,0.11712
-0.05856,-0.00732,0.0732,0.10248,0.13176,-0.09516,-0.0488,0.04392,0.49288,0.73688,0.14152,0.13176
-0.06832,-0.00976,0.08784,0.122,0.15616,-0.11224,-0.05368,0.03904,0.5124,0.76128,0.16104,0.1464
-0.07808,-0.00976,0.0976,0.13664,0.17568,-0.12688,-0.05856,0.03904,0.5368,0.78568,0.18544,0.16104
-0.08784,-0.00976,0.10736,0.15128,0.1952,-0.14152,-0.0732,0.04392,0.55632,0.81008,0.20984,0.19032
-0.0976,-0.00976,0.11712,0.16592,0.21472,-0.15616,-0.08296,0.04392,0.57584,0.8296,0.23424,0.20496
-0.10736,-0.00732,0.122,0.17568,0.22936,-0.16836,-0.09272,0.04392,0.59048,0.854,0.24888,0.22448
-0.11712,-0.00976,0.13664,0.1952,0.25376,-0.18544,-0.10248,0.04392,0.60512,0.88328,0.27328,0.23912
-0.11712,-0.01464,0.1464,0.20496,0.26352,-0.19032,-0.11712,0.04392,0.61,0.89792,0.28792,0.25376
-0.122,-0.01708,0.15616,0.21716,0.27816,-0.20008,-0.12688,0.04392,0.61976,0.90768,0.30744,0.26352
-0.122,-0.01952,0.16104,0.22204,0.28304,-0.20252,-0.13664,0.03904,0.61976,0.91744,0.31232,0.27328
-0.122,-0.01952,0.16104,0.22204,0.28304,-0.20252,-0.1464,0.03416,0.61976,0.92232,0.3172,0.27816
-0.122,-0.02196,0.16592,0.22692,0.28792,-0.20496,-0.15128,0.03416,0.61976,0.9272,0.3172,0.28304
-0.122,-0.0244,0.1708,0.2318,0.2928,-0.2074,-0.15616,0.03416,0.61976,0.9272,0.3172,0.28304
-0.11712,-0.02684,0.1708,0.22936,0.28792,-0.20252,-0.15616,0.0244,0.61488,0.91744,0.30744,0.28304
-0.11224,-0.02684,0.16592,0.22204,0.27816,-0.1952,-0.15616,0.01952,0.61,0.90768,0.30256,0.27328
-0.0976,-0.03172,0.16104,0.20984,0.25864,-0.17812,-0.15616,0.01952,0.59536,0.88328,0.28792,0.26352
-0.08784,-0.0366,0.16104,0.20496,0.24888,-0.16836,-0.1464,0.0244,0.57096,0.85888,0.25864,0.25376
-0.08296,-0.0366,0.15616,0.19764,0.23912,-0.16104,-0.14152,0.01952,0.54656,0.83448,0.22936,0.23424
-0.0732,-0.0366,0.1464,0.183,0.2196,-0.1464,-0.12688,0.01952,0.52704,0.81008,0.20984,0.2196
-0.05856,-0.0366,0.13176,0.16104,0.19032,-0.12444,-0.11712,0.01952,0.50752,0.77592,0.18056,0.19032
-0.04392,-0.0366,0.11712,0.13908,0.16104,-0.10248,-0.10736,0.01464,0.48312,0.74176,0.1464,0.16592
-0.03904,-0.03172,0.10248,0.122,0.14152,-0.09028,-0.09272,0.01464,0.4636,0.71736,0.122,0.1464
-0.0244,-0.02928,0.08296,0.09516,0.10736,-0.06588,-0.0732,0.01464,0.4392,0.69296,0.0976,0.12688
-0.00976,-0.03172,0.0732,0.07808,0.08296,-0.04636,-0.06832,0.00976,0.42456,0.66856,0.08296,0.11712
0,-0.03172,0.06344,0.06344,0.06344,-0.03172,-0.05856,0.00976,0.40992,0.64904,0.06344,0.0976
0.00976,-0.02928,0.0488,0.04392,0.03904,-0.01464,-0.0488,0.00976,0.39528,0.6344,0.0488,0.08296
0.00976,-0.0244,0.03904,0.03416,0.02928,-0.00976,-0.03904,0.00976,0.37576,0.62464,0.04392,0.07808
0.01464,-0.01952,0.0244,0.01708,0.00976,0.00244,-0.02928,0.00976,0.36112,0.61,0.03416,0.06344
0.01952,-0.01952,0.01952,0.00976,0,0.00976,-0.02928,0.00976,0.34648,0.60024,0.0244,0.05856
0.0244,-0.01952,0.01464,0.00244,-0.00976,0.01708,-0.0244,0.00976,0.33672,0.59048,0.01464,0.0488
0.02928,-0.01952,0.00976,-0.00488,-0.01952,0.0244,-0.01952,0.00976,0.33184,0.57584,0.00488,0.0488
0.03416,-0.01952,0.00488,-0.0122,-0.02928,0.03172,-0.01464,0.00488,0.32696,0.57096,0,0.04392
0.03904,-0.01952,0,-0.01952,-0.03904,0.03904,-0.00976,0,0.32208,0.5612,-0.00976,0.03416
0.03904,-0.01708,-0.00488,-0.0244,-0.04392,0.04148,-0.00976,0,0.3172,0.55144,-0.01464,0.02928
0.03904,-0.01464,-0.00976,-0.02928,-0.0488,0.04392,-0.00976,0,0.31232,0.54656,-0.01952,0.02928
0.03416,-0.0122,-0.00976,-0.02684,-0.04392,0.03904,-0.00976,0,0.30744,0.54168,-0.0244,0.0244
0.02928,-0.00732,-0.01464,-0.02928,-0.04392,0.0366,-0.00488,0,0.30744,0.54168,-0.0244,0.0244
0.02928,-0.00732,-0.01464,-0.02928,-0.04392,0.0366,-0.00488,0,0.30744,0.54656,-0.01952,0.0244
0.02928,-0.00732,-0.01464,-0.02928,-0.04392,0.0366,-0.00488,0.00976,0.30744,0.54656,-0.01952,0.0244
0.0244,-0.00244,-0.01952,-0.03172,-0.04392,0.03416,0,0.01464,0.30744,0.54168,-0.01952,0.02928
0.0244,-0.00244,-0.01952,-0.03172,-0.04392,0.03416,0,0.01464,0.30744,0.54168,-0.0244,0.03416
0.0244,-0.00488,-0.01464,-0.02684,-0.03904,0.03172,0,0.01952,0.30744,0.54168,-0.0244,0.03416
0.0244,-0.00732,-0.00976,-0.02196,-0.03416,0.02928,0,0.0244,0.30744,0.54656,-0.01952,0.03416
0.0244,-0.00732,-0.00976,-0.02196,-0.03416,0.02928,-0.00488,0.03416,0.30744,0.55144,-0.01952,0.02928
0.0244,-0.00732,-0.00976,-0.02196,-0.03416,0.02928,-0.00976,0.03904,0.30744,0.55632,-0.01464,0.0244
0.01952,-0.00488,-0.00976,-0.01952,-0.02928,0.0244,-0.00976,0.03904,0.31232,0.55632,-0.01464,0.0244
0.01952,-0.00488,-0.00976,-0.01952,-0.02928,0.0244,-0.00976,0.04392,0.31232,0.55632,-0.01464,0.0244
0.01952,-0.00488,-0.00976,-0.01952,-0.02928,0.0244,-0.00976,0.04392,0.31232,0.55632,-0.00976,0.0244
0.01952,-0.00732,-0.00488,-0.01464,-0.0244,0.02196,-0.00976,0.04392,0.3172,0.55632,-0.00976,0.0244
0.01952,-0.00732,-0.00488,-0.01464,-0.0244,0.02196,-0.01464,0.04392,0.3172,0.5612,-0.00976,0.0244
0.01952,-0.00732,-0.00488,-0.01464,-0.0244,0.02196,-0.01952,0.04392,0.3172,0.5612,-0.00976,0.01952
0.01952,-0.00488,-0.00976,-0.01952,-0.02928,0.0244,-0.01952,0.03904,0.31232,0.5612,-0.00488,0.01952
0.01952,0,-0.01952,-0.02928,-0.03904,0.02928,-0.01952,0.03904,0.31232,0.56608,0,0.01952
0.01952,0,-0.01952,-0.02928,-0.03904,0.02928,-0.0244,0.03904,0.31232,0.56608,0,0.0244
0.01952,0,-0.01952,-0.02928,-0.03904,0.02928,-0.02928,0.03904,0.31232,0.56608,0,0.02928
0.01952,0,-0.01952,-0.02928,-0.03904,0.02928,-0.02928,0.03416,0.3172,0.56608,0,0.02928
0.01952,0,-0.01952,-0.02928,-0.03904,0.02928,-0.02928,0.02928,0.31232,0.5612,0,0.0244
0.01952,0,-0.01952,-0.02928,-0.03904,0.02928,-0.02928,0.0244,0.31232,0.5612,-0.00488,0.0244
0.01952,0,-0.01952,-0.02928,-0.03904,0.02928,-0.0244,0.01952,0.31232,0.5612,-0.00976,0.01464
0.0244,-0.00488,-0.01464,-0.02684,-0.03904,0.03172,-0.02928,0.01464,0.30256,0.5612,-0.00976,0.01464
0.0244,-0.00976,-0.00488,-0.01708,-0.02928,0.02684,-0.02928,0.00976,0.2928,0.55632,-0.00976,0.01464
0.0244,-0.0122,0,-0.0122,-0.0244,0.0244,-0.03416,-0.00488,0.28792,0.55632,-0.00976,0.01464
0.0244,-0.01464,0.00488,-0.00732,-0.01952,0.02196,-0.03904,-0.00976,0.28792,0.55632,-0.00976,0.01464
0.01952,-0.0122,0.00488,-0.00488,-0.01464,0.01708,-0.03904,-0.00976,0.28792,0.55632,-0.00488,0.01464
0.01952,-0.0122,0.00488,-0.00488,-0.01464,0.01708,-0.03904,-0.00976,0.28792,0.5612,0,0.01464
0.01952,-0.0122,0.00488,-0.00488,-0.01464,0.01708,-0.03904,-0.00976,0.28792,0.5612,0,0.00976
0.01464,-0.0122,0.00976,0.00244,-0.00488,0.00976,-0.03416,-0.00976,0.28792,0.5612,0,0.00488
0.00976,-0.00976,0.00976,0.00488,0,0.00488,-0.02928,0,0.28792,0.55632,-0.00488,0.00488
0.00488,-0.00732,0.00976,0.00732,0.00488,0,-0.0244,0,0.28792,0.55144,-0.00488,0.00488
0,-0.00488,0.00976,0.00976,0.00976,-0.00488,-0.0244,0.00488,0.28304,0.5612,-0.00488,0.00488
-0.00488,0,0.00488,0.00732,0.00976,-0.00732,-0.0244,0.00976,0.28792,0.56608,0.00488,0.01464
-0.00976,0.00244,0.00488,0.00976,0.01464,-0.0122,-0.0244,0.01952,0.2928,0.57096,0.00976,0.01464
-0.01952,0.0122,-0.00488,0.00488,0.01464,-0.01708,-0.01952,0.0244,0.29768,0.57096,0.00976,0.01464
-0.02928,0.01952,-0.00976,0.00488,0.01952,-0.0244,-0.01952,0.03416,0.30256,0.57584,0.00976,0.01464
-0.03416,0.02196,-0.00976,0.00732,0.0244,-0.02928,-0.01952,0.03416,0.30744,0.58072,0.00976,0.01464
-0.03904,0.02684,-0.01464,0.00488,0.0244,-0.03172,-0.03416,0.03416,0.30744,0.58072,0.01464,0.01952
-0.03904,0.03416,-0.02928,-0.00976,0.00976,-0.0244,-0.04392,0.03416,0.29768,0.57584,0.01952,0.01952
-0.03904,0.03904,-0.03904,-0.01952,0,-0.01952,-0.0488,0.0244,0.2928,0.57096,0.01464,0.01464
-0.03904,0.0488,-0.05856,-0.03904,-0.01952,-0.00976,-0.0488,0.0244,0.28304,0.56608,0.00976,0.00488
-0.03904,0.0488,-0.05856,-0.03904,-0.01952,-0.00976,-0.04392,0.02928,0.27328,0.55632,0.00488,0
-0.03416,0.04636,-0.05856,-0.04148,-0.0244,-0.00488,-0.03904,0.02928,0.2684,0.54656,0,-0.00488
-0.03416,0.04392,-0.05368,-0.0366,-0.01952,-0.00732,-0.03904,0.0244,0.25376,0.53192,-0.00976,-0.00976
-0.01952,0.0366,-0.05368,-0.04392,-0.03416,0.00732,-0.03904,0.01952,0.244,0.52216,-0.01952,-0.01952
-0.00488,0.0244,-0.04392,-0.04148,-0.03904,0.01708,-0.03416,0.01464,0.244,0.52216,-0.0244,-0.0244
0.00976,0.00976,-0.02928,-0.03416,-0.03904,0.0244,-0.0244,0.00976,0.244,0.51728,-0.0244,-0.0244
0.01952,-0.00244,-0.01464,-0.0244,-0.03416,0.02684,-0.01952,0.00976,0.244,0.51728,-0.0244,-0.01952
0.02928,-0.0122,-0.00488,-0.01952,-0.03416,0.03172,-0.01952,0.00488,0.244,0.52216,-0.0244,-0.01464
0.02928,-0.0122,-0.00488,-0.01952,-0.03416,0.03172,-0.01464,0.00488,0.244,0.52216,-0.0244,-0.01464
0.02928,-0.0122,-0.00488,-0.01952,-0.03416,0.03172,-0.00976,0.00488,0.23912,0.51728,-0.01952,-0.01464
0.02928,-0.00976,-0.00976,-0.0244,-0.03904,0.03416,-0.00976,0,0.23912,0.51728,-0.01952,-0.01464
0.03416,-0.0122,-0.00976,-0.02684,-0.04392,0.03904,-0.00976,0,0.23912,0.51728,-0.01952,-0.00976
0.03416,-0.0122,-0.00976,-0.02684,-0.04392,0.03904,-0.00976,0,0.23912,0.51728,-0.01464,-0.00488
0.03416,-0.0122,-0.00976,-0.02684,-0.04392,0.03904,-0.00976,0,0.23912,0.5124,-0.00976,0
0.03416,-0.0122,-0.00976,-0.02684,-0.04392,0.03904,-0.00976,0.00488,0.23424,0.5124,-0.01464,0
0.03416,-0.0122,-0.00976,-0.02684,-0.04392,0.03904,-0.00976,0.00976,0.23424,0.5124,-0.01464,0
0.03416,-0.01464,-0.00488,-0.02196,-0.03904,0.0366,-0.00976,0.00488,0.22448,0.50752,-0.01464,-0.00488
0.03416,-0.01464,-0.00488,-0.02196,-0.03904,0.0366,-0.00976,0.00488,0.2196,0.50752,-0.01464,-0.00976
0.03416,-0.01464,-0.00488,-0.02196,-0.03904,0.0366,-0.00976,0.00488,0.2196,0.50752,-0.01464,-0.00976
0.03416,-0.01464,-0.00488,-0.02196,-0.03904,0.0366,-0.00976,0.00488,0.2196,0.50264,-0.01464,-0.00976
0.03416,-0.01464,-0.00488,-0.02196,-0.03904,0.0366,-0.00976,0.00488,0.2196,0.50264,-0.01464,-0.00976
0.03416,-0.01464,-0.00488,-0.02196,-0.03904,0.0366,-0.00976,0.00488,0.2196,0.50264,-0.01952,-0.00976
0.03416,-0.01464,-0.00488,-0.02196,-0.03904,0.0366,-0.00976,0.00976,0.21472,0.50264,-0.01952,-0.00976
0.02928,-0.01464,0,-0.01464,-0.02928,0.02928,-0.00488,0.01952,0.21472,0.50264,-0.01952,-0.00976
0.0244,-0.01708,0.00976,-0.00244,-0.01464,0.01952,-0.00488,0.0244,0.25864,0.52704,-0.00976,-0.00976
0.00976,-0.0366,0.06344,0.05856,0.05368,-0.02196,-0.00976,0.02928,0.37088,0.63928,0.05856,0.0244
-0.03904,-0.061,0.16104,0.18056,0.20008,-0.11956,-0.03904,0.0244,0.61488,0.9272,0.26352,0.1464
-0.10736,-0.10004,0.30744,0.36112,0.4148,-0.26108,-0.08296,0.01952,0.93208,1.31272,0.53192,0.3172
-0.17568,-0.13908,0.45384,0.54168,0.62952,-0.4026,-0.15616,0.01952,1.30296,1.77144,0.84912,0.5124
-0.244,-0.18788,0.61976,0.74176,0.86376,-0.55388,-0.21472,-0.00976,1.6348,2.22528,1.15656,0.7076
-0.28304,-0.19276,0.66856,0.81008,0.9516,-0.61732,-0.23424,-0.01952,1.63968,2.31312,1.20536,0.77592
-0.29768,-0.07076,0.4392,0.58804,0.73688,-0.51728,-0.2196,-0.01952,1.35664,1.90808,0.98088,0.6832
-0.26352,0.0488,0.16592,0.29768,0.42944,-0.34648,-0.20984,-0.03904,0.79544,1.24928,0.61976,0.51728
-0.10248,0.03904,0.0244,0.07564,0.12688,-0.11468,-0.13664,-0.08784,0.01952,0.5124,0.24888,0.32208
0.15616,-0.10248,0.0488,-0.02928,-0.10736,0.13176,-0.0976,-0.23912,-0.58072,-0.00488,-0.01464,0.20496
0.244,-0.1342,0.0244,-0.0976,-0.2196,0.2318,-0.09272,-0.2928,-0.61488,-0.07808,-0.10736,0.12688
0.2196,-0.09272,-0.03416,-0.14396,-0.25376,0.23668,-0.08784,-0.244,-0.57584,-0.06832,-0.16104,0.05856
0.17568,-0.04392,-0.08784,-0.17568,-0.26352,0.2196,-0.07808,-0.14152,-0.4636,-0.02928,-0.18544,0
0.12688,-0.01952,-0.08784,-0.15128,-0.21472,0.1708,-0.04392,-0.05368,-0.2928,0.08296,-0.18544,-0.0244
0.08296,-0.00976,-0.06344,-0.10492,-0.1464,0.11468,-0.00488,0,-0.12688,0.244,-0.13176,-0.0244
0.05368,0,-0.05368,-0.08052,-0.10736,0.08052,0.03416,0.03904,-0.00488,0.32208,-0.10248,-0.0244
0.04392,0.00488,-0.05368,-0.07564,-0.0976,0.07076,0.0488,0.08784,0.05368,0.3416,-0.08784,-0.0244
0.01952,0.01708,-0.05368,-0.06344,-0.0732,0.04636,0.05368,0.13176,0.11712,0.40504,-0.0732,-0.0244
0.01464,0.01708,-0.0488,-0.05612,-0.06344,0.03904,0.05368,0.11712,0.18056,0.47824,-0.04392,-0.01952
0.00976,0.0122,-0.03416,-0.03904,-0.04392,0.02684,0.0488,0.09272,0.19032,0.48312,-0.03416,-0.01952
0.00976,0.00488,-0.01952,-0.0244,-0.02928,0.01952,0.03416,0.06832,0.20008,0.48312,-0.01952,-0.00976
0.00976,-0.00244,-0.00488,-0.00976,-0.01464,0.0122,0.00976,0.05856,0.22448,0.50752,-0.00976,0.00488
0.00976,-0.00976,0.00976,0.00488,0,0.00488,0,0.03904,0.244,0.52216,0.00976,0.01464
0.00976,-0.0122,0.01464,0.00976,0.00488,0.00244,-0.00488,0.02928,0.244,0.53192,0.01464,0.01952
0.00976,-0.0122,0.01464,0.00976,0.00488,0.00244,-0.00488,0.02928,0.25376,0.53192,0.01952,0.0244
0.00976,-0.00976,0.00976,0.00488,0,0.00488,-0.00976,0.03416,0.25376,0.54168,0.0244,0.03416
0.00488,-0.00488,0.00488,0.00244,0,0.00244,-0.01464,0.03416,0.25864,0.54656,0.02928,0.03904
0.00488,-0.00488,0.00488,0.00244,0,0.00244,-0.01464,0.03416,0.26352,0.55632,0.02928,0.03904
0.00488,-0.00732,0.00976,0.00732,0.00488,0,-0.01464,0.03416,0.2684,0.5612,0.02928,0.04392
-0.00488,-0.00488,0.01464,0.01708,0.01952,-0.0122,-0.01464,0.03416,0.27328,0.56608,0.02928,0.03904
-0.00488,-0.00732,0.01952,0.02196,0.0244,-0.01464,-0.01952,0.03416,0.27816,0.57096,0.03416,0.04392
-0.00488,-0.00732,0.01952,0.02196,0.0244,-0.01464,-0.01464,0.03904,0.27816,0.57584,0.03416,0.03904
-0.00488,-0.00976,0.0244,0.02684,0.02928,-0.01708,-0.01952,0.03904,0.28304,0.5856,0.03904,0.03416
-0.00976,-0.00732,0.0244,0.02928,0.03416,-0.02196,-0.01952,0.03416,0.28792,0.59048,0.04392,0.04392
-0.00976,-0.00732,0.0244,0.02928,0.03416,-0.02196,-0.01952,0.03416,0.2928,0.59536,0.04392,0.04392
-0.01464,-0.00732,0.02928,0.0366,0.04392,-0.02928,-0.0244,0.02928,0.29768,0.60024,0.0488,0.0488
-0.01952,-0.00488,0.02928,0.03904,0.0488,-0.03416,-0.02928,0.0244,0.30744,0.61,0.05368,0.05368
-0.01952,-0.00488,0.02928,0.03904,0.0488,-0.03416,-0.0244,0.0244,0.31232,0.61,0.05856,0.06344
-0.02928,0,0.02928,0.04392,0.05856,-0.04392,-0.01952,0.01952,0.3172,0.61976,0.06344,0.0732
-0.02928,-0.00244,0.03416,0.0488,0.06344,-0.04636,-0.01952,0.01952,0.33184,0.62952,0.0732,0.07808
-0.03416,-0.00244,0.03904,0.05612,0.0732,-0.05368,-0.02928,0.01952,0.3416,0.63928,0.08296,0.08296
-0.03904,-0.00488,0.0488,0.06832,0.08784,-0.06344,-0.02928,0.01464,0.35136,0.64904,0.09272,0.08784
-0.04392,-0.00732,0.05856,0.08052,0.10248,-0.0732,-0.03416,0.01464,0.36112,0.66856,0.10248,0.09272
-0.0488,-0.00732,0.06344,0.08784,0.11224,-0.08052,-0.03904,0.01464,0.37088,0.6832,0.11224,0.10248
-0.05856,-0.00488,0.06832,0.0976,0.12688,-0.09272,-0.03904,0.01464,0.3904,0.71248,0.13176,0.11224
-0.06832,-0.00244,0.0732,0.10736,0.14152,-0.10492,-0.0488,0.00976,0.40504,0.73688,0.15616,0.13664
-0.07808,-0.00488,0.08784,0.12688,0.16592,-0.122,-0.05368,0,0.42456,0.76128,0.18056,0.15616
-0.08784,-0.00488,0.0976,0.14152,0.18544,-0.13664,-0.05856,0,0.44896,0.78568,0.20496,0.1708
-0.0976,-0.00488,0.10736,0.15616,0.20496,-0.15128,-0.0732,0,0.46848,0.81496,0.22936,0.1952
-0.10736,-0.00732,0.122,0.17568,0.22936,-0.16836,-0.08296,-0.00976,0.488,0.83936,0.25376,0.20496
-0.11712,-0.00976,0.13664,0.1952,0.25376,-0.18544,-0.09272,-0.01464,0.49776,0.86376,0.2684,0.22448
-0.12688,-0.01464,0.15616,0.2196,0.28304,-0.20496,-0.10248,-0.01464,0.50752,0.89304,0.2928,0.23912
-0.12688,-0.01952,0.16592,0.22936,0.2928,-0.20984,-0.11224,-0.01464,0.5124,0.90768,0.30256,0.25376
-0.13176,-0.02196,0.17568,0.24156,0.30744,-0.2196,-0.11712,-0.01464,0.52216,0.92232,0.3172,0.26352
-0.13176,-0.0244,0.18056,0.24644,0.31232,-0.22204,-0.122,-0.01952,0.52704,0.93208,0.32208,0.27328
-0.12688,-0.02928,0.18544,0.24888,0.31232,-0.2196,-0.12688,-0.01952,0.53192,0.93208,0.32696,0.27816
-0.122,-0.0366,0.1952,0.2562,0.3172,-0.2196,-0.13176,-0.01464,0.53192,0.93696,0.32696,0.28304
-0.122,-0.03904,0.20008,0.26108,0.32208,-0.22204,-0.13664,-0.01464,0.52704,0.93696,0.32696,0.28304
-0.11712,-0.04148,0.20008,0.25864,0.3172,-0.21716,-0.13664,-0.01952,0.51728,0.9272,0.3172,0.28304
-0.11224,-0.04148,0.1952,0.25132,0.30744,-0.20984,-0.13664,-0.01952,0.5124,0.91256,0.31232,0.27328
-0.0976,-0.04392,0.18544,0.23424,0.28304,-0.19032,-0.13664,-0.01952,0.49776,0.88328,0.29768,0.25864
-0.09272,-0.04392,0.18056,0.22692,0.27328,-0.183,-0.12688,-0.01464,0.47336,0.85888,0.2684,0.244
-0.08784,-0.04148,0.1708,0.21472,0.25864,-0.17324,-0.122,-0.01464,0.44896,0.83448,0.23912,0.22448
-0.0732,-0.04148,0.15616,0.19276,0.22936,-0.15128,-0.11224,-0.00976,0.42944,0.8052,0.2196,0.20984
-0.05856,-0.04148,0.14152,0.1708,0.20008,-0.12932,-0.10736,-0.00976,0.40992,0.76616,0.1952,0.18544
-0.04392,-0.04148,0.12688,0.14884,0.1708,-0.10736,-0.0976,-0.01464,0.38064,0.732,0.16104,0.16592
-0.03904,-0.03904,0.11712,0.13664,0.15616,-0.0976,-0.08296,-0.01464,0.35624,0.7076,0.13176,0.1464
-0.0244,-0.03416,0.09272,0.10492,0.11712,-0.07076,-0.05856,-0.00488,0.33184,0.6832,0.10736,0.12688
-0.00976,-0.03172,0.0732,0.07808,0.08296,-0.04636,-0.0488,0,0.3172,0.6588,0.09272,0.11712
0,-0.03172,0.06344,0.06344,0.06344,-0.03172,-0.03904,0,0.30256,0.63928,0.0732,0.0976
0.00976,-0.03172,0.05368,0.0488,0.04392,-0.01708,-0.02928,0,0.28792,0.62464,0.05368,0.08296
0.01464,-0.03172,0.0488,0.04148,0.03416,-0.00976,-0.01464,0,0.27328,0.61488,0.04392,0.07808
0.0244,-0.02928,0.03416,0.02196,0.00976,0.00732,0,0,0.2684,0.60024,0.03416,0.06344
0.02928,-0.02928,0.02928,0.01464,0,0.01464,0,0,0.25864,0.59048,0.0244,0.05856
0.03416,-0.02928,0.0244,0.00732,-0.00976,0.02196,0.00488,0,0.24888,0.5856,0.01464,0.0488
0.03904,-0.02928,0.01952,0,-0.01952,0.02928,0.00976,0,0.23912,0.57096,0.00488,0.04392
0.03904,-0.02684,0.01464,-0.00488,-0.0244,0.03172,0.01464,0,0.22936,0.5612,0.00488,0.03416
0.03904,-0.02196,0.00488,-0.01464,-0.03416,0.0366,0.01952,0,0.22448,0.55144,0,0.0244
0.03904,-0.01952,0,-0.01952,-0.03904,0.03904,0.01952,0,0.2196,0.54168,-0.00488,0.01952
0.03904,-0.01952,0,-0.01952,-0.03904,0.03904,0.01952,0,0.21472,0.5368,-0.00976,0.01952
0.03904,-0.01952,0,-0.01952,-0.03904,0.03904,0.01952,0,0.20984,0.53192,-0.01464,0.01464
0.03904,-0.01708,-0.00488,-0.0244,-0.04392,0.04148,0.0244,0,0.20984,0.53192,-0.01952,0.01464
0.03904,-0.01708,-0.00488,-0.0244,-0.04392,0.04148,0.0244,0,0.20984,0.5368,-0.01952,0.01464
0.03904,-0.01708,-0.00488,-0.0244,-0.04392,0.04148,0.0244,0.00976,0.20984,0.5368,-0.01952,0.01464
0.03416,-0.0122,-0.00976,-0.02684,-0.04392,0.03904,0.02928,0.01464,0.20984,0.53192,-0.01952,0.01464
0.02928,-0.00732,-0.01464,-0.02928,-0.04392,0.0366,0.03416,0.01464,0.21472,0.5368,-0.01952,0.01464
0.0244,-0.00244,-0.01952,-0.03172,-0.04392,0.03416,0.03904,0.01952,0.2196,0.54168,-0.01464,0.01464
0.0244,-0.00244,-0.01952,-0.03172,-0.04392,0.03416,0.03904,0.01952,0.2196,0.54656,-0.00976,0.01464
0.0244,-0.00244,-0.01952,-0.03172,-0.04392,0.03416,0.03904,0.01952,0.2196,0.55144,-0.00976,0.01464
0.0244,0,-0.0244,-0.0366,-0.0488,0.0366,0.03416,0.01952,0.2196,0.55632,-0.00488,0.01464
0.01952,0.00488,-0.02928,-0.03904,-0.0488,0.03416,0.02928,0.01952,0.22448,0.55632,-0.00488,0.01464
0.01952,0.00488,-0.02928,-0.03904,-0.0488,0.03416,0.02928,0.0244,0.22448,0.55632,-0.00488,0.01464
0.01952,0.00488,-0.02928,-0.03904,-0.0488,0.03416,0.02928,0.0244,0.22448,0.55632,0,0.01464
0.01952,0.00244,-0.0244,-0.03416,-0.04392,0.03172,0.02928,0.0244,0.22936,0.55632,0,0.01464
0.01952,0.00244,-0.0244,-0.03416,-0.04392,0.03172,0.02928,0.0244,0.22936,0.5612,0,0.01464
0.01952,0,-0.01952,-0.02928,-0.03904,0.02928,0.0244,0.01952,0.22936,0.5612,0,0.00976
0.01952,0,-0.01952,-0.02928,-0.03904,0.02928,0.01952,0.01952,0.23424,0.56608,0,0.00976
0.01952,0,-0.01952,-0.02928,-0.03904,0.02928,0.01952,0.01952,0.23424,0.57096,0,0.00976
0.01952,0,-0.01952,-0.02928,-0.03904,0.02928,0.01952,0.01952,0.23424,0.57584,0,0.00976
0.01952,0.00244,-0.0244,-0.03416,-0.04392,0.03172,0.01952,0.01952,0.23424,0.57584,0.00488,0.00976
0.01952,0.00244,-0.0244,-0.03416,-0.04392,0.03172,0.01464,0.01464,0.22936,0.57096,0.00488,0.00976
