i,aVR,ii,aVF,iii,aVL,V1,V2,V3,V4,V5,V6
-0.01464,-0.01952,0.05368,0.061,0.06832,-0.04148,0.01464,0,0.03904,0.0244,0.00488,0.0732
-0.01464,-0.0122,0.03904,0.04636,0.05368,-0.03416,0.01464,-0.00488,0.0244,0.00488,-0.01464,0.05368
-0.0244,-0.00732,0.03904,0.05124,0.06344,-0.04392,0.01464,-0.01464,0.0244,-0.00976,-0.01464,0.0488
-0.03416,0.0122,0.00976,0.02684,0.04392,-0.03904,0.00488,-0.00488,0.01952,0,-0.01952,0.0488
-0.05368,0.03172,-0.00976,0.01708,0.04392,-0.0488,0.00488,-0.01952,0.00488,-0.01464,-0.02928,0.03904
-0.03416,0.01952,-0.00488,0.0122,0.02928,-0.03172,0.01952,-0.00488,0.01464,-0.00488,-0.02928,0.03904
-0.01464,0,0.01464,0.02196,0.02928,-0.02196,0.0244,-0.00488,0.00488,-0.01464,-0.02928,0.04392
-0.02928,0.01708,-0.00488,0.00976,0.0244,-0.02684,0.03416,-0.00976,0.00488,-0.00488,-0.0244,0.05368
-0.0488,0.03416,-0.01952,0.00488,0.02928,-0.03904,0.03416,-0.00976,0,-0.00976,-0.02928,0.05368
-0.05856,0.04392,-0.02928,0,0.02928,-0.04392,0.03416,-0.00488,0.00976,-0.01952,-0.02928,0.04392
-0.06832,0.04148,-0.01464,0.01952,0.05368,-0.061,0.01952,-0.0244,0,-0.03904,-0.03904,0.02928
-0.05368,0.03416,-0.01464,0.0122,0.03904,-0.04636,0.02928,-0.01464,0,-0.0244,-0.04392,0.03416
-0.04392,0.02928,-0.01464,0.00732,0.02928,-0.0366,0.02928,-0.01464,0,-0.0244,-0.03904,0.03416
-0.06344,0.03904,-0.01464,0.01708,0.0488,-0.05612,0.03416,0,0.00488,-0.02928,-0.03904,0.04392
-0.05856,0.03904,-0.01952,0.00976,0.03904,-0.0488,0.03416,0.00488,0.00976,-0.0244,-0.03904,0.03904
-0.06344,0.0488,-0.03416,-0.00244,0.02928,-0.04636,0.02928,-0.00488,0,-0.03416,-0.03904,0.03416
-0.0732,0.05612,-0.03904,-0.00244,0.03416,-0.05368,0.02928,-0.00976,0.00488,-0.02928,-0.03904,0.03416
-0.05368,0.03904,-0.0244,0.00244,0.02928,-0.04148,0.01952,-0.00488,0.00976,-0.03416,-0.04392,0.02928
-0.04392,0.04392,-0.04392,-0.02196,0,-0.02196,0.01952,0.00976,0.01464,-0.03416,-0.03904,0.03416
-0.04392,0.02928,-0.01464,0.00732,0.02928,-0.0366,0.03904,0.01952,0.02928,-0.01952,-0.03416,0.03904
-0.05856,0.0366,-0.01464,0.01464,0.04392,-0.05124,0.0488,0.02928,0.03904,-0.00976,-0.0244,0.04392
-0.0488,0.03172,-0.01464,0.00976,0.03416,-0.04148,0.03416,0.0244,0.03416,-0.00976,-0.01952,0.0488
-0.03904,0.01952,0,0.01952,0.03904,-0.03904,0.0244,0.0244,0.02928,-0.00976,-0.0244,0.03904
-0.03416,0.01464,0.00488,0.02196,0.03904,-0.0366,0.0244,0.01464,0.0244,-0.00488,-0.0244,0.03416
-0.03416,0.0122,0.00976,0.02684,0.04392,-0.03904,0.02928,0.01464,0.0244,-0.00976,-0.0244,0.03416
-0.02928,0.01708,-0.00488,0.00976,0.0244,-0.02684,0.03904,0.01952,0.01952,-0.01464,-0.02928,0.02928
-0.02928,0.02928,-0.02928,-0.01464,0,-0.01464,0.03416,0.01952,0.01952,-0.01464,-0.02928,0.0244
-0.03416,0.02684,-0.01952,-0.00244,0.01464,-0.0244,0.02928,0.02928,0.03416,0,-0.01952,0.03416
-0.03904,0.03172,-0.0244,-0.00488,0.01464,-0.02684,0.02928,0.02928,0.04392,0,-0.01952,0.0488
-0.01952,0.0244,-0.02928,-0.01952,-0.00976,-0.00488,0.02928,0.03904,0.05368,0.00976,-0.01464,0.05856
-0.00976,0.01464,-0.01952,-0.01464,-0.00976,0,0.02928,0.04392,0.05368,0.00976,-0.00976,0.0488
-0.01952,0.02684,-0.03416,-0.0244,-0.01464,-0.00244,0.01952,0.03416,0.05368,0.00488,-0.00976,0.04392
-0.00488,0.01464,-0.0244,-0.02196,-0.01952,0.00732,0.01464,0.0244,0.04392,0,-0.00976,0.05368
-0.01464,0.00976,-0.00488,0.00244,0.00976,-0.0122,0.01464,0.02928,0.0488,0,-0.00976,0.0488
-0.01952,0.01464,-0.00976,0,0.00976,-0.01464,0.01464,0.03416,0.0488,0,-0.00488,0.0488
-0.00488,0.0122,-0.01952,-0.01708,-0.01464,0.00488,0.0244,0.03416,0.05368,0.00976,-0.00976,0.05856
-0.00488,0.0122,-0.01952,-0.01708,-0.01464,0.00488,0.00976,0.03416,0.05368,0.00488,-0.00976,0.0488
-0.00488,0.00732,-0.00976,-0.00732,-0.00488,0,0.01464,0.01952,0.03904,-0.00488,-0.01464,0.0488
-0.00488,0.00488,-0.00488,-0.00244,0,-0.00244,0.01464,0.01952,0.01952,-0.00976,-0.00976,0.0488
-0.01464,0.01464,-0.01464,-0.00732,0,-0.00732,0.01464,0.01952,0.01952,0,-0.01952,0.04392
-0.0244,0.02196,-0.01952,-0.00732,0.00488,-0.01464,0.00976,0.01952,0.02928,-0.00488,-0.01464,0.04392
-0.00976,0.01952,-0.02928,-0.0244,-0.01952,0.00488,0.0244,0.01952,0.03416,0,-0.00976,0.0488
-0.00976,0.01708,-0.0244,-0.01952,-0.01464,0.00244,0.0244,0.0244,0.03904,0.00488,-0.00976,0.05368
0.00488,0.00488,-0.01464,-0.01708,-0.01952,0.0122,0.02928,0.0244,0.02928,-0.00976,-0.00976,0.05368
-0.00488,0.0122,-0.01952,-0.01708,-0.01464,0.00488,0.0244,0.01952,0.02928,-0.00976,-0.01952,0.0488
-0.00976,0.01952,-0.02928,-0.0244,-0.01952,0.00488,0.03416,0.01464,0.01464,-0.01952,-0.0244,0.04392
-0.00488,0.01464,-0.0244,-0.02196,-0.01952,0.00732,0.03904,0.01464,0.01464,-0.01952,-0.0244,0.04392
-0.0244,0.02196,-0.01952,-0.00732,0.00488,-0.01464,0.03904,0,0.01464,-0.02928,-0.03416,0.03904
-0.04392,0.03904,-0.03416,-0.0122,0.00976,-0.02684,0.03904,0,0.01464,-0.02928,-0.03416,0.03904
-0.03904,0.0244,-0.00976,0.00976,0.02928,-0.03416,0.02928,0.00488,0.00976,-0.01952,-0.02928,0.03416
-0.0244,0.00976,0.00488,0.01708,0.02928,-0.02684,0.01464,0,0.01464,-0.01952,-0.02928,0.03416
-0.03416,0.03172,-0.02928,-0.0122,0.00488,-0.01952,0.01952,0.00976,0.01952,-0.01464,-0.0244,0.04392
-0.02928,0.0244,-0.01952,-0.00488,0.00976,-0.01952,0.02928,0.00976,0.0244,-0.01464,-0.0244,0.04392
-0.02928,0.0244,-0.01952,-0.00488,0.00976,-0.01952,0.03416,0.01464,0.0244,-0.01464,-0.01952,0.04392
-0.0244,0.0244,-0.0244,-0.0122,0,-0.0122,0.03416,0.00976,0.0244,-0.01464,-0.01952,0.0488
-0.03416,0.03416,-0.03416,-0.01708,0,-0.01708,0.02928,0.00488,0.01464,-0.01464,-0.0244,0.02928
-0.03416,0.0366,-0.03904,-0.02196,-0.00488,-0.01464,0.02928,0,0.00976,-0.01952,-0.02928,0.02928
-0.03416,0.03904,-0.04392,-0.02684,-0.00976,-0.0122,0.03416,0.00488,0.00488,-0.01952,-0.0244,0.02928
-0.02928,0.0244,-0.01952,-0.00488,0.00976,-0.01952,0.02928,-0.00488,-0.00488,-0.02928,-0.02928,0.02928
-0.02928,0.01952,-0.00976,0.00488,0.01952,-0.0244,0.02928,0,0.00488,-0.02928,-0.0244,0.03416
-0.02928,0.01952,-0.00976,0.00488,0.01952,-0.0244,0.02928,0,0.00488,-0.0244,-0.0244,0.03416
-0.0488,0.03904,-0.02928,-0.00488,0.01952,-0.03416,0.03416,0.00976,0,-0.0244,-0.03416,0.03416
-0.03904,0.04148,-0.04392,-0.0244,-0.00488,-0.01708,0.03416,0,0,-0.02928,-0.03904,0.02928
-0.0488,0.0488,-0.0488,-0.0244,0,-0.0244,0.03904,0.01952,0.01952,-0.01952,-0.01952,0.0488
-0.03904,0.03416,-0.02928,-0.00976,0.00976,-0.0244,0.03904,0.00976,0.00976,-0.00976,-0.02928,0.0488
-0.02928,0.0244,-0.01952,-0.00488,0.00976,-0.01952,0.03904,0.00976,0.00976,-0.00976,-0.02928,0.0488
-0.01464,0.00488,0.00488,0.0122,0.01952,-0.01708,0.0488,0.01464,0.01464,-0.00488,-0.01464,0.05368
-0.01464,0,0.01464,0.02196,0.02928,-0.02196,0.05856,0.02928,0.0244,0,-0.00976,0.05856
0.00488,-0.01464,0.0244,0.02196,0.01952,-0.00732,0.0732,0.04392,0.03904,0.00976,-0.00976,0.06832
0.0244,-0.03416,0.04392,0.03172,0.01952,0.00244,0.0732,0.05856,0.05368,0.0244,0.00488,0.0732
0.02928,-0.03904,0.0488,0.03416,0.01952,0.00488,0.0732,0.08296,0.06832,0.03904,0.01952,0.0732
0.01952,-0.03416,0.0488,0.03904,0.02928,-0.00488,0.07808,0.0732,0.06832,0.03904,0.0244,0.07808
0.01952,-0.03172,0.04392,0.03416,0.0244,-0.00244,0.06344,0.08296,0.06344,0.02928,0.01464,0.0732
0.03904,-0.04148,0.04392,0.0244,0.00488,0.01708,0.05368,0.0732,0.0732,0.02928,0.01464,0.08296
0.05368,-0.05368,0.05368,0.02684,0,0.02684,0.0244,0.05856,0.06832,0.04392,0.0244,0.07808
0.07808,-0.06832,0.05856,0.01952,-0.01952,0.0488,0.00488,0.05856,0.0732,0.04392,0.03904,0.08784
0.08784,-0.07808,0.06832,0.0244,-0.01952,0.05368,-0.00976,0.03904,0.07808,0.0488,0.02928,0.0976
0.0976,-0.08052,0.06344,0.01464,-0.03416,0.06588,-0.00488,0.03904,0.06832,0.04392,0.02928,0.09272
0.0976,-0.07564,0.05368,0.00488,-0.04392,0.07076,-0.0244,0.0244,0.05856,0.03416,0.02928,0.08296
0.0976,-0.06344,0.02928,-0.01952,-0.06832,0.08296,-0.02928,0.01952,0.03904,0.01464,0.01464,0.07808
0.07808,-0.0488,0.01952,-0.01952,-0.05856,0.06832,-0.01464,0.01952,0.03904,0.01464,0.0244,0.07808
0.0732,-0.04392,0.01464,-0.02196,-0.05856,0.06588,-0.00976,0.01464,0.03416,0.00976,0.0244,0.08296
0.06344,-0.04392,0.0244,-0.00732,-0.03904,0.05124,-0.0244,0,0.01464,0,0,0.05856
0.04392,-0.02196,0,-0.02196,-0.04392,0.04392,-0.01464,-0.00488,0.00976,-0.00488,-0.00488,0.05856
0.05368,-0.01952,-0.01464,-0.04148,-0.06832,0.061,-0.01464,-0.00976,0,-0.0244,0,0.05856
0.0488,-0.00488,-0.03904,-0.06344,-0.08784,0.06832,-0.01464,-0.00976,0,-0.02928,-0.00976,0.05368
0.02928,0.00976,-0.0488,-0.06344,-0.07808,0.05368,-0.01952,-0.0244,-0.01952,-0.04392,-0.0244,0.03416
0,0.02684,-0.05368,-0.05368,-0.05368,0.02684,-0.0244,-0.0244,-0.0244,-0.0488,-0.03416,0.01952
-0.00488,0.03172,-0.05856,-0.05612,-0.05368,0.0244,-0.02928,-0.03416,-0.03904,-0.05368,-0.03904,0.01952
0,0.03172,-0.06344,-0.06344,-0.06344,0.03172,-0.01952,-0.02928,-0.03416,-0.05368,-0.04392,0.01952
-0.01952,0.0366,-0.05368,-0.04392,-0.03416,0.00732,-0.00976,-0.0244,-0.02928,-0.0488,-0.03904,0.0244
-0.02928,0.0366,-0.04392,-0.02928,-0.01464,-0.00732,0,-0.01952,-0.02928,-0.0488,-0.03904,0.01952
-0.0488,0.05124,-0.05368,-0.02928,-0.00488,-0.02196,0.0244,-0.01464,-0.02928,-0.0488,-0.0488,0.01464
-0.05368,0.05368,-0.05368,-0.02684,0,-0.02684,0.0244,-0.01952,-0.03416,-0.0488,-0.0488,0.01464
-0.05368,0.05612,-0.05856,-0.03172,-0.00488,-0.0244,0.01464,-0.01952,-0.03416,-0.06344,-0.05368,0
-0.04392,0.04636,-0.0488,-0.02684,-0.00488,-0.01952,0.01464,-0.01952,-0.03416,-0.06344,-0.05368,-0.00488
-0.02928,0.04392,-0.05856,-0.04392,-0.02928,0,0.0244,-0.00976,-0.0244,-0.0488,-0.04392,0.00976
-0.03904,0.05368,-0.06832,-0.0488,-0.02928,-0.00488,0.04392,0.00488,-0.00976,-0.03416,-0.03416,0.0244
-0.0488,0.05368,-0.05856,-0.03416,-0.00976,-0.01952,0.0244,-0.01464,-0.01952,-0.0488,-0.03904,0.00976
-0.0488,0.05124,-0.05368,-0.02928,-0.00488,-0.02196,0.01464,-0.0244,-0.02928,-0.05856,-0.0488,0.00976
-0.05856,0.0488,-0.03904,-0.00976,0.01952,-0.03904,0.0244,-0.01952,-0.02928,-0.05368,-0.05368,0
-0.05856,0.05124,-0.04392,-0.01464,0.01464,-0.0366,0.0244,-0.02928,-0.03416,-0.05368,-0.05368,0
-0.06832,0.061,-0.05368,-0.01952,0.01464,-0.04148,0.02928,-0.02928,-0.02928,-0.0488,-0.04392,0
-0.05856,0.05124,-0.04392,-0.01464,0.01464,-0.0366,0.0244,-0.01952,-0.0244,-0.05856,-0.05368,-0.00976
-0.05368,0.04392,-0.03416,-0.00732,0.01952,-0.0366,0.05856,0.00976,0,-0.03904,-0.04392,0
-0.08784,0.061,-0.03416,0.00976,0.05368,-0.07076,0.09272,0.04392,0.03416,0,-0.03416,0.00976
-0.0732,0.03416,0.00488,0.04148,0.07808,-0.07564,0.08784,0.05856,0.06344,0.03904,0.00488,0.02928
0.03904,-0.01952,0,-0.01952,-0.03904,0.03904,0.10736,0.20496,0.22448,0.16592,0.10736,0.09272
0.18056,-0.12688,0.0732,-0.01708,-0.10736,0.14396,0.16592,0.40992,0.45872,0.32696,0.21472,0.18544
0.4392,-0.26108,0.08296,-0.13664,-0.35624,0.39772,0.16592,0.52216,0.63928,0.48312,0.39528,0.31232
0.70272,-0.39772,0.09272,-0.25864,-0.61,0.65636,0.17568,0.5856,0.74176,0.58072,0.52216,0.4148
0.9028,-0.50996,0.11712,-0.33428,-0.78568,0.84424,0.0732,0.40504,0.66368,0.58072,0.58072,0.488
0.96136,-0.53436,0.10736,-0.37332,-0.854,0.90768,-0.11712,0.02928,0.42456,0.47824,0.56608,0.52216
0.75152,-0.44408,0.13664,-0.23912,-0.61488,0.6832,-0.30256,-0.50752,-0.17568,0.00976,0.20984,0.32208
0.1952,-0.1464,0.0976,0,-0.0976,0.1464,-0.35136,-0.96624,-0.81496,-0.49776,-0.20008,0.0488
-0.13664,0.07564,-0.01464,0.05368,0.122,-0.12932,-0.56608,-1.33712,-1.22,-0.80032,-0.4392,-0.09272
-0.20008,0.12688,-0.05368,0.04636,0.1464,-0.17324,-0.84424,-1.5372,-1.33712,-0.86376,-0.48312,-0.11224
-0.08784,0,0.08784,0.13176,0.17568,-0.13176,-0.84912,-1.39568,-1.12728,-0.67344,-0.3172,0.00976
0.00488,-0.09272,0.18056,0.17812,0.17568,-0.0854,-0.7808,-1.18096,-0.91256,-0.53192,-0.20008,0.09272
0.08296,-0.10492,0.12688,0.0854,0.04392,0.01952,-0.63928,-0.89792,-0.68808,-0.41968,-0.1464,0.11712
0.0732,-0.05612,0.03904,0.00244,-0.03416,0.05368,-0.488,-0.6832,-0.54168,-0.37088,-0.1464,0.0732
0.04392,0,-0.04392,-0.06588,-0.08784,0.06588,-0.3172,-0.48312,-0.40992,-0.33672,-0.1464,0.03416
0.0244,0.0366,-0.0976,-0.1098,-0.122,0.0732,-0.23912,-0.38064,-0.35136,-0.30744,-0.1464,0.00976
0,0.0244,-0.0488,-0.0488,-0.0488,0.0244,-0.18056,-0.27816,-0.25864,-0.23424,-0.13176,0
-0.00488,0.02684,-0.0488,-0.04636,-0.04392,0.01952,-0.08784,-0.17568,-0.16592,-0.16592,-0.0976,0.01952
-0.03416,0.02928,-0.0244,-0.00732,0.00976,-0.02196,-0.06344,-0.13664,-0.12688,-0.122,-0.07808,0.00976
-0.03904,0.04392,-0.0488,-0.02928,-0.00976,-0.01464,-0.03416,-0.0976,-0.10736,-0.10248,-0.06344,0.00976
-0.07808,0.0732,-0.06832,-0.02928,0.00976,-0.04392,-0.00976,-0.08296,-0.07808,-0.10736,-0.06832,-0.00488
-0.0732,0.05124,-0.02928,0.00732,0.04392,-0.05856,0.01464,-0.03416,-0.03416,-0.08296,-0.05368,-0.00976
-0.06344,0.05124,-0.03904,-0.00732,0.0244,-0.04392,0.0244,-0.01464,-0.01952,-0.06344,-0.05368,-0.01464
-0.0488,0.04392,-0.03904,-0.01464,0.00976,-0.02928,0.03416,0.00488,-0.00976,-0.05368,-0.04392,0
-0.0488,0.03904,-0.02928,-0.00488,0.01952,-0.03416,0.04392,0.02928,0.01464,-0.04392,-0.03904,0
-0.05856,0.05124,-0.04392,-0.01464,0.01464,-0.0366,0.05368,0.04392,0.01464,-0.02928,-0.03416,-0.01464
-0.05368,0.05856,-0.06344,-0.0366,-0.00976,-0.02196,0.07808,0.0488,0.02928,-0.01952,-0.0244,-0.00976
-0.04392,0.0488,-0.05368,-0.03172,-0.00976,-0.01708,0.0732,0.04392,0.0244,-0.01952,-0.0244,0
-0.05368,0.04148,-0.02928,-0.00244,0.0244,-0.03904,0.06344,0.04392,0.01952,-0.0244,-0.02928,-0.00488
-0.06344,0.04392,-0.0244,0.00732,0.03904,-0.05124,0.07808,0.06832,0.04392,-0.00976,-0.01464,0.01464
-0.05368,0.04148,-0.02928,-0.00244,0.0244,-0.03904,0.08296,0.07808,0.05368,0,-0.01464,0.00976
-0.0488,0.04392,-0.03904,-0.01464,0.00976,-0.02928,0.08296,0.0732,0.0488,0.00488,-0.01952,0.00976
-0.0488,0.05124,-0.05368,-0.02928,-0.00488,-0.02196,0.07808,0.07808,0.0488,-0.00488,-0.01952,0
-0.05368,0.05124,-0.0488,-0.02196,0.00488,-0.02928,0.07808,0.07808,0.05368,0.00488,-0.01952,0.00488
-0.03904,0.03904,-0.03904,-0.01952,0,-0.01952,0.08296,0.08296,0.05856,0.00488,-0.01464,0.00488
-0.02928,0.02684,-0.0244,-0.00976,0.00488,-0.01708,0.09272,0.08296,0.0488,0.00976,-0.01464,-0.00976
-0.02928,0.02684,-0.0244,-0.00976,0.00488,-0.01708,0.09272,0.08296,0.05368,0.00976,-0.01464,-0.00488
-0.03904,0.03172,-0.0244,-0.00488,0.01464,-0.02684,0.08296,0.09272,0.06832,0.01464,-0.01464,-0.00976
-0.04392,0.03416,-0.0244,-0.00244,0.01952,-0.03172,0.08296,0.09272,0.07808,0.0244,-0.00488,-0.00488
-0.02928,0.02928,-0.02928,-0.01464,0,-0.01464,0.08296,0.09272,0.0732,0.0244,-0.00488,0.00488
-0.0244,0.03172,-0.03904,-0.02684,-0.01464,-0.00488,0.08296,0.09272,0.0732,0.0244,-0.00488,0
-0.03416,0.03172,-0.02928,-0.0122,0.00488,-0.01952,0.0732,0.09272,0.07808,0.0244,0,-0.00488
-0.03416,0.02684,-0.01952,-0.00244,0.01464,-0.0244,0.06832,0.0976,0.08296,0.0244,0,0
-0.00976,0.00488,0,0.00488,0.00976,-0.00976,0.06832,0.10248,0.09272,0.03416,0,0.00976
-0.01464,0.0122,-0.00976,-0.00244,0.00488,-0.00976,0.08296,0.12688,0.10248,0.03416,0.00488,0.00976
-0.01952,0.0122,-0.00488,0.00488,0.01464,-0.01708,0.09272,0.12688,0.10736,0.04392,0.0244,0.02928
-0.01952,0.0122,-0.00488,0.00488,0.01464,-0.01708,0.09272,0.13176,0.11224,0.05368,0.01952,0.02928
-0.01952,0.00976,0,0.00976,0.01952,-0.01952,0.09272,0.12688,0.13176,0.06832,0.0244,0.03416
-0.00976,0,0.00976,0.01464,0.01952,-0.01464,0.08296,0.13176,0.13664,0.05856,0.01952,0.01952
0.00488,-0.01708,0.02928,0.02684,0.0244,-0.00976,0.09272,0.1464,0.1464,0.0732,0.0244,0.02928
0.00488,-0.01708,0.02928,0.02684,0.0244,-0.00976,0.09272,0.16592,0.15616,0.08296,0.03416,0.03416
0.01464,-0.02196,0.02928,0.02196,0.01464,0,0.09272,0.16592,0.15616,0.08296,0.03904,0.03416
0.00488,-0.01708,0.02928,0.02684,0.0244,-0.00976,0.07808,0.16592,0.16104,0.08784,0.04392,0.03416
0.01464,-0.0244,0.03416,0.02684,0.01952,-0.00244,0.08296,0.18056,0.1708,0.10248,0.06344,0.03904
0.02928,-0.03904,0.0488,0.03416,0.01952,0.00488,0.08296,0.18544,0.18056,0.122,0.06832,0.06344
0.03416,-0.05124,0.06832,0.05124,0.03416,0,0.08296,0.19032,0.1952,0.12688,0.0732,0.06832
0.03416,-0.061,0.08784,0.07076,0.05368,-0.00976,0.08296,0.20984,0.21472,0.14152,0.08784,0.08296
0.03904,-0.06344,0.08784,0.06832,0.0488,-0.00488,0.08296,0.20984,0.22448,0.15616,0.09272,0.0732
0.03904,-0.06588,0.09272,0.0732,0.05368,-0.00732,0.08296,0.20984,0.22448,0.16104,0.0976,0.08296
0.0488,-0.07808,0.10736,0.08296,0.05856,-0.00488,0.07808,0.21472,0.22448,0.16104,0.10248,0.08784
0.04392,-0.08052,0.11712,0.09516,0.0732,-0.01464,0.08296,0.20984,0.22936,0.16592,0.11224,0.0976
0.03904,-0.08296,0.12688,0.10736,0.08784,-0.0244,0.09272,0.2196,0.23912,0.19032,0.12688,0.10736
0.02928,-0.07808,0.12688,0.11224,0.0976,-0.03416,0.08784,0.22448,0.23912,0.19032,0.12688,0.10248
0.04392,-0.08784,0.13176,0.1098,0.08784,-0.02196,0.0732,0.20984,0.23912,0.18544,0.11712,0.0976
0.05368,-0.10492,0.15616,0.12932,0.10248,-0.0244,0.06832,0.20008,0.23424,0.19032,0.11712,0.0976
0.03416,-0.09272,0.15128,0.1342,0.11712,-0.04148,0.06832,0.20496,0.22936,0.18544,0.122,0.10248
0.02928,-0.09272,0.15616,0.14152,0.12688,-0.0488,0.06344,0.1952,0.21472,0.18056,0.12688,0.10248
0.02928,-0.08784,0.1464,0.13176,0.11712,-0.04392,0.0732,0.18056,0.2196,0.18056,0.13176,0.11712
0.01952,-0.07808,0.13664,0.12688,0.11712,-0.0488,0.0732,0.17568,0.20984,0.18056,0.12688,0.11224
0.0244,-0.08784,0.15128,0.13908,0.12688,-0.05124,0.0488,0.1464,0.17568,0.1708,0.11712,0.09272
0.0244,-0.10004,0.17568,0.16348,0.15128,-0.06344,0.05368,0.14152,0.17568,0.15616,0.11224,0.09272
0.01464,-0.0976,0.18056,0.17324,0.16592,-0.07564,0.05368,0.122,0.1708,0.15128,0.11224,0.09272
0.02928,-0.09028,0.15128,0.13664,0.122,-0.04636,0.05368,0.13176,0.16104,0.1464,0.10736,0.09272
0.01464,-0.08296,0.15128,0.14396,0.13664,-0.061,0.04392,0.122,0.1464,0.13664,0.10736,0.0976
0.00488,-0.0732,0.14152,0.13908,0.13664,-0.06588,0.03904,0.0976,0.12688,0.11712,0.09272,0.08784
0.00488,-0.0732,0.14152,0.13908,0.13664,-0.06588,0.01464,0.07808,0.10736,0.10736,0.07808,0.07808
0.00488,-0.06344,0.122,0.11956,0.11712,-0.05612,0,0.05368,0.09272,0.08296,0.06344,0.06344
0,-0.05368,0.10736,0.10736,0.10736,-0.05368,0.00488,0.06832,0.09272,0.08296,0.06832,0.06832
0.00488,-0.05368,0.10248,0.10004,0.0976,-0.04636,0.01464,0.05368,0.08784,0.07808,0.05856,0.05856
0.00976,-0.04636,0.08296,0.07808,0.0732,-0.03172,0.00976,0.0488,0.08296,0.05856,0.05368,0.0488
0.00488,-0.0366,0.06832,0.06588,0.06344,-0.02928,0.00976,0.03904,0.06344,0.0488,0.0488,0.04392
0.01464,-0.03904,0.06344,0.05612,0.0488,-0.01708,0.00976,0.03416,0.06832,0.0488,0.0488,0.0488
0.01464,-0.0366,0.05856,0.05124,0.04392,-0.01464,0.00976,0.03416,0.05856,0.03904,0.03904,0.03904
0,-0.01708,0.03416,0.03416,0.03416,-0.01708,0.00488,0.0244,0.05368,0.01952,0.0244,0.03416
-0.00976,-0.00244,0.01464,0.01952,0.0244,-0.01708,0.00488,0.0244,0.04392,0.00976,0.0244,0.0244
-0.0244,0.00732,0.00976,0.02196,0.03416,-0.02928,-0.00488,0.00488,0.03416,0,0.00488,0.00976
-0.01464,0.00244,0.00976,0.01708,0.0244,-0.01952,-0.00488,0,0.01464,-0.00488,-0.00488,0.00488
-0.03416,0.01464,0.00488,0.02196,0.03904,-0.0366,0,0,0.00488,-0.01464,-0.00976,0
-0.03416,0.00976,0.01464,0.03172,0.0488,-0.04148,0,0.00488,0.00488,-0.0244,-0.00976,0
-0.03904,0.01708,0.00488,0.0244,0.04392,-0.04148,0.00488,-0.00488,-0.01464,-0.03416,-0.01952,0
-0.04392,0.02928,-0.01464,0.00732,0.02928,-0.0366,0.00488,-0.00976,-0.01952,-0.03904,-0.02928,-0.00976
-0.0488,0.04636,-0.04392,-0.01952,0.00488,-0.02684,0.00488,0,-0.01464,-0.02928,-0.01952,-0.00976
-0.0488,0.0488,-0.0488,-0.0244,0,-0.0244,0,0,-0.01464,-0.03416,-0.02928,-0.00976
-0.05856,0.04636,-0.03416,-0.00488,0.0244,-0.04148,0.00976,0,-0.01952,-0.04392,-0.03904,-0.01952
-0.06344,0.0488,-0.03416,-0.00244,0.02928,-0.04636,0.00976,-0.00976,-0.01952,-0.0488,-0.04392,-0.02928
-0.0488,0.03416,-0.01952,0.00488,0.02928,-0.03904,0.00488,-0.00976,-0.0244,-0.0488,-0.02928,-0.01464
-0.0488,0.02928,-0.00976,0.01464,0.03904,-0.04392,0.00488,-0.00976,-0.0244,-0.04392,-0.03904,-0.02928
-0.03904,0.02684,-0.01464,0.00488,0.0244,-0.03172,0.00976,0,-0.01464,-0.03416,-0.03416,-0.01952
-0.05856,0.04636,-0.03416,-0.00488,0.0244,-0.04148,0.00976,0.01464,0,-0.02928,-0.0244,-0.00976
-0.05368,0.03904,-0.0244,0.00244,0.02928,-0.04148,0.00976,0.00488,-0.00976,-0.0244,-0.0244,-0.01952
-0.05368,0.03904,-0.0244,0.00244,0.02928,-0.04148,0.00976,0.00976,-0.00976,-0.0244,-0.0244,-0.01464
-0.03416,0.0244,-0.01464,0.00244,0.01952,-0.02684,0.00976,0.00976,0.00976,-0.03416,-0.01952,-0.0244
-0.03416,0.01952,-0.00488,0.0122,0.02928,-0.03172,0.00976,0.00976,0.00976,-0.02928,-0.0244,-0.02928
-0.04392,0.03416,-0.0244,-0.00244,0.01952,-0.03172,0.01464,0.03416,0.01952,-0.01464,-0.01952,-0.02928
-0.04392,0.03172,-0.01952,0.00244,0.0244,-0.03416,0.01464,0.03416,0.02928,-0.00976,-0.0244,-0.02928
-0.0488,0.04148,-0.03416,-0.00976,0.01464,-0.03172,0.01464,0.0244,0.01464,-0.01464,-0.01464,-0.02928
-0.05368,0.04148,-0.02928,-0.00244,0.0244,-0.03904,0.01952,0.0244,0.01464,-0.01464,-0.01464,-0.0244
-0.0488,0.03416,-0.01952,0.00488,0.02928,-0.03904,0.01464,0.01952,0.0244,-0.00976,-0.00488,-0.01464
-0.03416,0.0244,-0.01464,0.00244,0.01952,-0.02684,0.00488,0.01952,0.02928,-0.00488,-0.00976,-0.0244
-0.03416,0.02684,-0.01952,-0.00244,0.01464,-0.0244,0.00488,0.02928,0.01952,-0.00488,-0.01952,-0.03416
-0.02928,0.03416,-0.03904,-0.0244,-0.00976,-0.00976,0,0.02928,0.0244,-0.01464,-0.01952,-0.02928
-0.03904,0.04392,-0.0488,-0.02928,-0.00976,-0.01464,0.00488,0.01952,0.0244,-0.00976,-0.01464,-0.01952
-0.03904,0.02928,-0.01952,0,0.01952,-0.02928,0.01464,0.0244,0.0244,-0.00976,0,-0.02928
-0.02928,0.02196,-0.01464,0,0.01464,-0.02196,0.01952,0.03416,0.02928,-0.00488,-0.00976,-0.0244
-0.0244,0.01708,-0.00976,0.00244,0.01464,-0.01952,0.01952,0.03416,0.03416,-0.00488,-0.00976,-0.01952
-0.00976,0.00488,0,0.00488,0.00976,-0.00976,0.00976,0.03416,0.03416,0,-0.00976,-0.0244
0,0.00732,-0.01464,-0.01464,-0.01464,0.00732,0,0.02928,0.03904,0,-0.00976,-0.01952
-0.01464,0.0122,-0.00976,-0.00244,0.00488,-0.00976,-0.00488,0.03416,0.02928,0.00488,-0.00488,-0.00976
-0.01952,0.0122,-0.00488,0.00488,0.01464,-0.01708,0.00488,0.03416,0.03416,0.00976,-0.00976,-0.01464
-0.01952,0.01464,-0.00976,0,0.00976,-0.01464,-0.00976,0.03904,0.02928,0,-0.00976,-0.00976
-0.00976,0.00976,-0.00976,-0.00488,0,-0.00488,-0.00488,0.02928,0.02928,-0.00488,0,-0.00976
-0.00488,0.00732,-0.00976,-0.00732,-0.00488,0,0.00488,0.02928,0.01952,0,0,-0.01464
-0.00488,0.0122,-0.01952,-0.01708,-0.01464,0.00488,0,0.02928,0.01952,-0.00488,0,-0.01464
-0.01464,0.02684,-0.03904,-0.03172,-0.0244,0.00488,0.00488,0.01952,0.01464,0,0.00488,-0.01464
-0.0244,0.03904,-0.05368,-0.04148,-0.02928,0.00244,0.00488,0.01952,0.01952,0,-0.00488,-0.00976
-0.0244,0.03416,-0.04392,-0.03172,-0.01952,-0.00244,-0.00488,0.01952,0.00976,-0.00976,-0.01952,-0.00976
-0.0244,0.01708,-0.00976,0.00244,0.01464,-0.01952,-0.01952,0.00488,0.00976,-0.0244,-0.02928,-0.01952
-0.0244,0.01952,-0.01464,-0.00244,0.00976,-0.01708,-0.01952,0,0.01464,-0.0244,-0.01464,-0.02928
-0.01464,0.01952,-0.0244,-0.01708,-0.00976,-0.00244,-0.00488,0.00976,0.01464,-0.01464,-0.01464,-0.0244
-0.0244,0.0244,-0.0244,-0.0122,0,-0.0122,0,0.00976,0.00488,-0.00976,-0.01464,-0.01952
-0.0244,0.03416,-0.04392,-0.03172,-0.01952,-0.00244,0,0.00976,0.00488,-0.00976,-0.01464,-0.01952
-0.02928,0.02928,-0.02928,-0.01464,0,-0.01464,0,0,-0.00976,-0.01952,-0.01952,-0.01952
-0.0244,0.02684,-0.02928,-0.01708,-0.00488,-0.00976,0,0.00488,-0.00488,-0.01952,-0.01952,-0.02928
-0.03904,0.03416,-0.02928,-0.00976,0.00976,-0.0244,0,0,-0.00488,-0.02928,-0.03416,-0.03416
-0.05368,0.05368,-0.05368,-0.02684,0,-0.02684,0,0,-0.00976,-0.03904,-0.03416,-0.03416
-0.04392,0.03904,-0.03416,-0.0122,0.00976,-0.02684,0.00488,0.01464,0.00488,-0.03416,-0.0244,-0.0244
-0.02928,0.02928,-0.02928,-0.01464,0,-0.01464,0.00488,0.01464,0.00488,-0.01464,-0.01464,-0.01952
-0.0244,0.01952,-0.01464,-0.00244,0.00976,-0.01708,-0.00976,0.00976,0.00976,-0.01464,-0.00976,-0.00976
-0.03416,0.0244,-0.01464,0.00244,0.01952,-0.02684,-0.00976,0,0,-0.01952,-0.01464,-0.01952
-0.03416,0.0366,-0.03904,-0.02196,-0.00488,-0.01464,0.00488,0.00488,0.00488,-0.01952,-0.01952,-0.02928
-0.03416,0.0366,-0.03904,-0.02196,-0.00488,-0.01464,0,0,-0.00488,-0.0244,-0.0244,-0.02928
-0.03904,0.04392,-0.0488,-0.02928,-0.00976,-0.01464,0,-0.01464,-0.01464,-0.02928,-0.02928,-0.03416
-0.03904,0.04392,-0.0488,-0.02928,-0.00976,-0.01464,0,-0.00976,-0.01464,-0.02928,-0.0244,-0.03416
-0.04392,0.04636,-0.0488,-0.02684,-0.00488,-0.01952,0,0,-0.00488,-0.01464,-0.01464,-0.0244
-0.0244,0.02684,-0.02928,-0.01708,-0.00488,-0.00976,0.00488,-0.00488,-0.00976,-0.01952,-0.01952,-0.02928
-0.0244,0.0244,-0.0244,-0.0122,0,-0.0122,0.00488,-0.00976,-0.00976,-0.02928,-0.02928,-0.02928
-0.02928,0.02684,-0.0244,-0.00976,0.00488,-0.01708,0.00976,0,-0.00976,-0.02928,-0.02928,-0.02928
-0.03416,0.03416,-0.03416,-0.01708,0,-0.01708,0.01952,0,0,-0.01464,-0.01952,-0.0244
-0.01952,0.02684,-0.03416,-0.0244,-0.01464,-0.00244,0.00976,0.00976,0.00976,-0.00488,-0.01464,-0.01464
-0.01952,0.02196,-0.0244,-0.01464,-0.00488,-0.00732,0.00976,0.00976,0.00976,0.00488,-0.00488,-0.00488
-0.00488,0,0.00488,0.00732,0.00976,-0.00732,0.00976,0.01464,0.00976,0.00488,-0.00976,-0.00488
-0.00488,0,0.00488,0.00732,0.00976,-0.00732,0.01952,0.01952,0.0244,0.00976,0,-0.00488
0.00976,-0.01952,0.02928,0.0244,0.01952,-0.00488,0.02928,0.03904,0.03416,0.0244,0.00488,-0.00488
0.02928,-0.03416,0.03904,0.0244,0.00976,0.00976,0.03416,0.05368,0.04392,0.03416,0.0244,0.00976
0.03904,-0.04636,0.05368,0.03416,0.01464,0.0122,0.03416,0.05856,0.05368,0.03904,0.03416,0.01464
0.03416,-0.0366,0.03904,0.02196,0.00488,0.01464,0.03904,0.06344,0.05856,0.03904,0.02928,0.01952
0.02928,-0.03416,0.03904,0.0244,0.00976,0.00976,0.02928,0.06344,0.05368,0.03904,0.01464,0.01464
0.04392,-0.0366,0.02928,0.00732,-0.01464,0.02928,0.0244,0.06344,0.05368,0.03904,0.0244,0.00976
0.05368,-0.04392,0.03416,0.00732,-0.01952,0.0366,-0.00976,0.03904,0.06344,0.03904,0.03416,0.01464
0.08296,-0.06832,0.05368,0.0122,-0.02928,0.05612,-0.03416,0.03904,0.05856,0.04392,0.0488,0.02928
0.08784,-0.07808,0.06832,0.0244,-0.01952,0.05368,-0.05368,0.02928,0.05856,0.03904,0.03904,0.02928
0.0976,-0.08052,0.06344,0.01464,-0.03416,0.06588,-0.05856,0.01952,0.0488,0.03416,0.03904,0.0244
0.10736,-0.07564,0.04392,-0.00976,-0.06344,0.0854,-0.0488,0.01952,0.05368,0.03904,0.04392,0.02928
0.10736,-0.061,0.01464,-0.03904,-0.09272,0.10004,-0.05368,0.0244,0.05856,0.0488,0.04392,0.03416
0.09272,-0.0488,0.00488,-0.04148,-0.08784,0.09028,-0.05368,0.0244,0.03904,0.03416,0.02928,0.0244
0.07808,-0.04636,0.01464,-0.0244,-0.06344,0.07076,-0.0488,0.00488,0.01952,0.01952,0.01952,0.01952
0.05368,-0.03416,0.01464,-0.0122,-0.03904,0.04636,-0.04392,-0.00976,0.00488,0.00488,0.01464,0
0.0488,-0.01708,-0.01464,-0.03904,-0.06344,0.05612,-0.04392,-0.01952,-0.00488,-0.00976,0,-0.00976
0.04392,0.00488,-0.05368,-0.07564,-0.0976,0.07076,-0.05368,-0.02928,-0.01464,-0.00976,-0.00976,-0.00488
0.04392,0.00732,-0.05856,-0.08052,-0.10248,0.0732,-0.05368,-0.02928,-0.01952,-0.01464,-0.01464,-0.01464
0.01952,0.02684,-0.0732,-0.08296,-0.09272,0.05612,-0.05368,-0.0244,-0.02928,-0.02928,-0.0244,-0.01952
-0.0244,0.05368,-0.08296,-0.07076,-0.05856,0.01708,-0.06832,-0.03416,-0.03904,-0.04392,-0.03904,-0.04392
-0.0244,0.0488,-0.0732,-0.061,-0.0488,0.0122,-0.05368,-0.0244,-0.03904,-0.04392,-0.04392,-0.0488
-0.00976,0.0366,-0.06344,-0.05856,-0.05368,0.02196,-0.03416,-0.01952,-0.03416,-0.03904,-0.03416,-0.04392
-0.0244,0.04392,-0.06344,-0.05124,-0.03904,0.00732,-0.02928,-0.03416,-0.02928,-0.03904,-0.04392,-0.05368
-0.03416,0.04392,-0.05368,-0.0366,-0.01952,-0.00732,-0.02928,-0.03416,-0.04392,-0.03904,-0.0488,-0.05856
-0.03416,0.05124,-0.06832,-0.05124,-0.03416,0,-0.0244,-0.03416,-0.03904,-0.03904,-0.0488,-0.05368
-0.04392,0.061,-0.07808,-0.05612,-0.03416,-0.00488,-0.02928,-0.03904,-0.03904,-0.03904,-0.0488,-0.05368
-0.0488,0.061,-0.0732,-0.0488,-0.0244,-0.0122,-0.02928,-0.03416,-0.03416,-0.03904,-0.04392,-0.04392
-0.05368,0.05612,-0.05856,-0.03172,-0.00488,-0.0244,-0.01952,-0.0244,-0.03416,-0.04392,-0.04392,-0.0488
-0.03904,0.0488,-0.05856,-0.03904,-0.01952,-0.00976,-0.0244,-0.02928,-0.04392,-0.04392,-0.03416,-0.05368
-0.04392,0.05124,-0.05856,-0.0366,-0.01464,-0.01464,-0.01952,-0.0244,-0.04392,-0.03416,-0.03416,-0.04392
-0.0488,0.05368,-0.05856,-0.03416,-0.00976,-0.01952,-0.0244,-0.03416,-0.03904,-0.04392,-0.03904,-0.05368
-0.0488,0.05612,-0.06344,-0.03904,-0.01464,-0.01708,-0.0244,-0.03416,-0.03904,-0.0488,-0.04392,-0.05856
-0.05856,0.06344,-0.06832,-0.03904,-0.00976,-0.0244,-0.01464,-0.0244,-0.03904,-0.03904,-0.04392,-0.05856
-0.05856,0.06588,-0.0732,-0.04392,-0.01464,-0.02196,-0.01464,-0.02928,-0.04392,-0.04392,-0.04392,-0.06832
-0.05856,0.04636,-0.03416,-0.00488,0.0244,-0.04148,-0.00488,-0.03904,-0.0488,-0.03904,-0.04392,-0.05856
-0.06832,0.07564,-0.08296,-0.0488,-0.01464,-0.02684,0.00976,-0.01464,-0.02928,-0.01952,-0.0244,-0.0488
-0.0732,0.0488,-0.0244,0.0122,0.0488,-0.061,0.00976,-0.00488,-0.0244,-0.0244,-0.04392,-0.06832
-0.09272,0.06832,-0.04392,0.00244,0.0488,-0.07076,0.03416,0.0244,0.01464,0.00488,-0.02928,-0.05368
-0.0488,0.05368,-0.05856,-0.03416,-0.00976,-0.01952,0.04392,0.06832,0.0732,0.06344,0.02928,-0.00976
0.06832,-0.04148,0.01464,-0.01952,-0.05368,0.061,0.07808,0.23912,0.244,0.18544,0.13176,0.0488
0.28792,-0.1708,0.05368,-0.09028,-0.23424,0.26108,0.11712,0.40504,0.45384,0.37088,0.28304,0.16592
0.54168,-0.32208,0.10248,-0.16836,-0.4392,0.49044,0.06832,0.42944,0.55632,0.44408,0.3904,0.25864
0.76616,-0.41236,0.05856,-0.32452,-0.7076,0.73688,0.05856,0.46848,0.61,0.49288,0.4636,0.33184
0.93696,-0.49044,0.04392,-0.42456,-0.89304,0.915,-0.03904,0.26352,0.50752,0.46848,0.52216,0.40992
0.96136,-0.5246,0.08784,-0.39284,-0.87352,0.91744,-0.18056,-0.0732,0.26352,0.35136,0.46848,0.41968
0.59048,-0.33916,0.08784,-0.2074,-0.50264,0.54656,-0.28792,-0.57584,-0.32696,-0.11224,0.08784,0.18544
0.03904,-0.1098,0.18056,0.16104,0.14152,-0.05124,-0.33184,-0.99552,-0.86376,-0.47824,-0.23424,-0.01952
-0.2928,0.10492,0.08296,0.22936,0.37576,-0.33428,-0.54168,-1.33712,-1.19072,-0.6832,-0.38552,-0.122
-0.28792,0.06344,0.16104,0.305,0.44896,-0.36844,-0.81008,-1.50792,-1.22488,-0.64904,-0.33184,-0.08296
-0.13176,-0.07564,0.28304,0.34892,0.4148,-0.27328,-0.88328,-1.38592,-1.03944,-0.49288,-0.18056,0.05368
-0.01464,-0.14884,0.31232,0.31964,0.32696,-0.1708,-0.81496,-1.15168,-0.83448,-0.39528,-0.09272,0.11224
0.06344,-0.1586,0.25376,0.22204,0.19032,-0.06344,-0.6832,-0.89304,-0.64904,-0.33184,-0.07808,0.10248
0.0488,-0.09028,0.13176,0.10736,0.08296,-0.01708,-0.49288,-0.65392,-0.50264,-0.28304,-0.0732,0.06344
0.00976,0.00488,-0.01952,-0.0244,-0.02928,0.01952,-0.33184,-0.47824,-0.42456,-0.29768,-0.13664,-0.01952
0.00488,0.02684,-0.05856,-0.061,-0.06344,0.03416,-0.25376,-0.366,-0.33672,-0.24888,-0.12688,-0.03416
-0.0488,0.0366,-0.0244,0,0.0244,-0.0366,-0.18056,-0.26352,-0.22936,-0.20008,-0.09272,-0.03904
-0.0244,0.00244,0.01952,0.03172,0.04392,-0.03416,-0.13176,-0.17568,-0.16104,-0.13664,-0.07808,-0.0488
-0.04392,0.0366,-0.02928,-0.00732,0.01464,-0.02928,-0.08296,-0.10248,-0.10736,-0.06344,-0.02928,-0.03904
-0.03416,0.0366,-0.03904,-0.02196,-0.00488,-0.01464,-0.08296,-0.09272,-0.09272,-0.06344,-0.03904,-0.0488
-0.04392,0.061,-0.07808,-0.05612,-0.03416,-0.00488,-0.04392,-0.04392,-0.06344,-0.05856,-0.04392,-0.04392
-0.05856,0.03904,-0.01952,0.00976,0.03904,-0.0488,-0.01952,-0.02928,-0.05368,-0.0732,-0.0488,-0.07808
-0.0488,0.04148,-0.03416,-0.00976,0.01464,-0.03172,0.00488,-0.00488,-0.0244,-0.0488,-0.03416,-0.0732
-0.0488,0.0488,-0.0488,-0.0244,0,-0.0244,0.00488,-0.00488,-0.0244,-0.02928,-0.02928,-0.06832
-0.05856,0.061,-0.06344,-0.03416,-0.00488,-0.02684,0.00976,0.01464,-0.0244,-0.02928,-0.03416,-0.07808
-0.05856,0.06832,-0.07808,-0.0488,-0.01952,-0.01952,0.01952,0.03416,-0.01952,-0.0244,-0.03416,-0.07808
-0.06832,0.07076,-0.0732,-0.03904,-0.00488,-0.03172,0.02928,0.03904,-0.00976,-0.01464,-0.03416,-0.08296
-0.05368,0.06344,-0.0732,-0.04636,-0.01952,-0.01708,0.04392,0.03904,0,-0.00976,-0.0244,-0.07808
-0.05368,0.05612,-0.05856,-0.03172,-0.00488,-0.0244,0.02928,0.04392,0,-0.01464,-0.02928,-0.0732
-0.05368,0.05124,-0.0488,-0.02196,0.00488,-0.02928,0.02928,0.05368,0.00976,-0.01464,-0.02928,-0.0732
-0.04392,0.05124,-0.05856,-0.0366,-0.01464,-0.01464,0.04392,0.06344,0.00976,-0.00488,-0.0244,-0.0732
-0.04392,0.0488,-0.05368,-0.03172,-0.00976,-0.01708,0.03904,0.06344,0.00976,0,-0.01952,-0.07808
-0.03904,0.04392,-0.0488,-0.02928,-0.00976,-0.01464,0.04392,0.05856,0.00976,0,-0.01952,-0.0732
-0.03904,0.04392,-0.0488,-0.02928,-0.00976,-0.01464,0.03904,0.05856,0.00976,0.00488,-0.01952,-0.0732
-0.0488,0.04636,-0.04392,-0.01952,0.00488,-0.02684,0.02928,0.0488,0.00976,0.00488,-0.01952,-0.0732
-0.03904,0.04148,-0.04392,-0.0244,-0.00488,-0.01708,0.03416,0.05368,0.00976,0.00976,-0.01464,-0.0732
-0.03416,0.03904,-0.04392,-0.02684,-0.00976,-0.0122,0.04392,0.06344,0.01952,0,-0.01464,-0.07808
-0.0244,0.03904,-0.05368,-0.04148,-0.02928,0.00244,0.05368,0.08296,0.02928,0.00488,-0.01464,-0.0732
-0.04392,0.05368,-0.06344,-0.04148,-0.01952,-0.0122,0.04392,0.09272,0.03904,0.0244,-0.00488,-0.06832
-0.03904,0.05124,-0.06344,-0.04392,-0.0244,-0.00732,0.04392,0.10736,0.0488,0.04392,0.00488,-0.04392
-0.0244,0.03904,-0.05368,-0.04148,-0.02928,0.00244,0.03416,0.10248,0.04392,0.03416,0.00488,-0.05856
-0.01464,0.02684,-0.03904,-0.03172,-0.0244,0.00488,0.03416,0.09272,0.04392,0.02928,0.00488,-0.05368
-0.0244,0.03416,-0.04392,-0.03172,-0.01952,-0.00244,0.04392,0.0976,0.05368,0.0488,0.00976,-0.04392
-0.00976,0.02196,-0.03416,-0.02928,-0.0244,0.00732,0.03416,0.0976,0.05368,0.05368,0.00976,-0.03904
-0.00976,0.01952,-0.02928,-0.0244,-0.01952,0.00488,0.02928,0.08784,0.05856,0.04392,0.00488,-0.0488
-0.01464,0.0244,-0.03416,-0.02684,-0.01952,0.00244,0.03416,0.10736,0.06832,0.04392,0.01464,-0.0488
-0.01952,0.01952,-0.01952,-0.00976,0,-0.00976,0.03416,0.10736,0.05856,0.03904,0.00976,-0.0488
-0.01952,0.0244,-0.02928,-0.01952,-0.00976,-0.00488,0.04392,0.11712,0.0732,0.0488,0.01952,-0.03904
-0.00976,0.00976,-0.00976,-0.00488,0,-0.00488,0.0244,0.11712,0.0732,0.05368,0.01952,-0.0488
0.00488,-0.00488,0.00488,0.00244,0,0.00244,0.0244,0.12688,0.07808,0.05368,0.0244,-0.05368
-0.01464,0.0122,-0.00976,-0.00244,0.00488,-0.00976,0.03416,0.13664,0.10248,0.06832,0.01952,-0.03416
-0.0244,0.0244,-0.0244,-0.0122,0,-0.0122,0.03416,0.1464,0.11224,0.07808,0.0244,-0.03416
0.00976,-0.00732,0.00488,0,-0.00488,0.00732,0.0488,0.1464,0.122,0.0976,0.04392,-0.0244
0.03904,-0.03172,0.0244,0.00488,-0.01464,0.02684,0.05368,0.15128,0.122,0.0976,0.05368,-0.0244
0.02928,-0.02196,0.01464,0,-0.01464,0.02196,0.04392,0.16592,0.1464,0.122,0.07808,-0.00488
0.03904,-0.0366,0.03416,0.01464,-0.00488,0.02196,0.04392,0.16592,0.15616,0.13176,0.07808,0.00976
0.02928,-0.04148,0.05368,0.03904,0.0244,0.00244,0.03416,0.18544,0.1708,0.13176,0.07808,0.00488
0.02928,-0.0488,0.06832,0.05368,0.03904,-0.00488,0.0244,0.20008,0.18056,0.15616,0.09272,0.00488
0.0488,-0.07564,0.10248,0.07808,0.05368,-0.00244,0.0244,0.19032,0.17568,0.15128,0.0976,0.01464
0.0488,-0.08784,0.12688,0.10248,0.07808,-0.01464,0.01952,0.18544,0.16592,0.15128,0.09272,0.01464
0.02928,-0.06344,0.0976,0.08296,0.06832,-0.01952,0.0244,0.18056,0.18056,0.16592,0.10248,0.01464
0.01464,-0.05124,0.08784,0.08052,0.0732,-0.02928,0.0244,0.18056,0.19032,0.17568,0.11224,0.01952
0.04392,-0.09028,0.13664,0.11468,0.09272,-0.0244,0.0244,0.18544,0.20008,0.19032,0.12688,0.03416
0.0732,-0.12932,0.18544,0.14884,0.11224,-0.01952,0.01952,0.17568,0.20008,0.20496,0.12688,0.0488
0.06832,-0.11956,0.1708,0.13664,0.10248,-0.01708,0.0244,0.17568,0.18544,0.1952,0.13664,0.0488
0.06344,-0.10248,0.14152,0.1098,0.07808,-0.00732,0.01952,0.18056,0.18544,0.20008,0.14152,0.05368
0.03904,-0.0976,0.15616,0.13664,0.11712,-0.03904,0.00976,0.16104,0.16104,0.18056,0.13664,0.04392
0.02928,-0.0976,0.16592,0.15128,0.13664,-0.05368,0.00488,0.13664,0.14152,0.16592,0.122,0.0488
0.03416,-0.10004,0.16592,0.14884,0.13176,-0.0488,0.01464,0.13664,0.15128,0.1708,0.11712,0.0488
0.03904,-0.10248,0.16592,0.1464,0.12688,-0.04392,0,0.13176,0.12688,0.16104,0.11224,0.04392
0.0244,-0.08784,0.15128,0.13908,0.12688,-0.05124,0.00488,0.10248,0.11712,0.1464,0.09272,0.0244
0.0244,-0.09516,0.16592,0.15372,0.14152,-0.05856,0,0.08784,0.10736,0.13176,0.09272,0.0244
0.0244,-0.09272,0.16104,0.14884,0.13664,-0.05612,-0.00488,0.06832,0.08784,0.12688,0.10248,0.0244
0.02928,-0.08784,0.1464,0.13176,0.11712,-0.04392,-0.00488,0.05856,0.08296,0.122,0.0976,0.0244
0.0244,-0.09272,0.16104,0.14884,0.13664,-0.05612,-0.01464,0.05368,0.0732,0.11712,0.08784,0.01952
0.03416,-0.09272,0.15128,0.1342,0.11712,-0.04148,-0.03416,0.06344,0.06832,0.10736,0.07808,0.01952
0.0244,-0.08296,0.14152,0.12932,0.11712,-0.04636,-0.04392,0.03416,0.06344,0.09272,0.07808,0.01952
0.0244,-0.05856,0.09272,0.08052,0.06832,-0.02196,-0.02928,0.03904,0.0488,0.08784,0.07808,0.01464
0.01952,-0.06344,0.10736,0.0976,0.08784,-0.03416,-0.03904,0.01952,0.03416,0.07808,0.06344,0.00976
0.0244,-0.0732,0.122,0.1098,0.0976,-0.0366,-0.03904,0.01464,0.02928,0.0732,0.05368,-0.00976
0.00488,-0.04392,0.08296,0.08052,0.07808,-0.0366,-0.02928,0.01464,0.0244,0.06344,0.03904,-0.01464
0.00488,-0.02196,0.03904,0.0366,0.03416,-0.01464,-0.01952,0.00976,0.01952,0.05368,0.03904,-0.01464
-0.00488,-0.00732,0.01952,0.02196,0.0244,-0.01464,-0.02928,0.01464,0.00976,0.03416,0.0244,-0.0244
-0.0244,0.00976,0.00488,0.01708,0.02928,-0.02684,-0.0244,0.00976,-0.00976,0.0244,0.01464,-0.03416
-0.01464,0.00732,0,0.00732,0.01464,-0.01464,-0.0244,0.00488,-0.01464,0.0244,0.01464,-0.03416
-0.01464,0.00244,0.00976,0.01708,0.0244,-0.01952,-0.0244,-0.00488,-0.00488,0.01952,0.01464,-0.03904
-0.01464,0.0122,-0.00976,-0.00244,0.00488,-0.00976,-0.03416,-0.01464,-0.02928,0.00976,-0.00976,-0.05856
-0.0244,0.01708,-0.00976,0.00244,0.01464,-0.01952,-0.04392,-0.02928,-0.05368,-0.01464,-0.01952,-0.07808
-0.03416,0.02928,-0.0244,-0.00732,0.00976,-0.02196,-0.01952,-0.01464,-0.05368,-0.0244,-0.02928,-0.07808
-0.04392,0.02928,-0.01464,0.00732,0.02928,-0.0366,-0.01464,-0.01464,-0.06344,-0.03416,-0.02928,-0.0732
-0.03904,0.02684,-0.01464,0.00488,0.0244,-0.03172,-0.0244,-0.02928,-0.05368,-0.0244,-0.03416,-0.08296
-0.0488,0.02928,-0.00976,0.01464,0.03904,-0.04392,-0.03416,-0.02928,-0.05856,-0.02928,-0.03904,-0.08296
-0.03904,0.02928,-0.01952,0,0.01952,-0.02928,-0.0244,-0.01464,-0.0488,-0.01952,-0.02928,-0.0732
-0.03904,0.02196,-0.00488,0.01464,0.03416,-0.0366,-0.02928,-0.03416,-0.05856,-0.02928,-0.03904,-0.08784
-0.05368,0.03416,-0.01464,0.0122,0.03904,-0.04636,-0.01952,-0.0244,-0.05856,-0.0244,-0.04392,-0.09272
-0.05368,0.03416,-0.01464,0.0122,0.03904,-0.04636,-0.01952,-0.0244,-0.05856,-0.0244,-0.03904,-0.09272
-0.06344,0.04392,-0.0244,0.00732,0.03904,-0.05124,-0.01464,-0.01952,-0.06344,-0.03904,-0.0488,-0.10248
-0.05856,0.04392,-0.02928,0,0.02928,-0.04392,-0.01464,-0.01464,-0.06832,-0.03416,-0.0488,-0.10736
-0.06344,0.04392,-0.0244,0.00732,0.03904,-0.05124,-0.01952,-0.0244,-0.06832,-0.04392,-0.0488,-0.11224
-0.0732,0.04636,-0.01952,0.01708,0.05368,-0.06344,-0.01952,-0.01952,-0.06344,-0.03904,-0.0488,-0.11224
-0.06344,0.03416,-0.00488,0.02684,0.05856,-0.061,-0.01952,-0.01464,-0.05856,-0.03416,-0.04392,-0.10736
-0.05368,0.03904,-0.0244,0.00244,0.02928,-0.04148,-0.01952,-0.00976,-0.05368,-0.03416,-0.03904,-0.10248
-0.05368,0.03416,-0.01464,0.0122,0.03904,-0.04636,-0.00976,-0.00976,-0.0488,-0.01952,-0.04392,-0.0976
-0.05856,0.0366,-0.01464,0.01464,0.04392,-0.05124,-0.00976,0,-0.03904,-0.01952,-0.03416,-0.09272
-0.06832,0.05124,-0.03416,0,0.03416,-0.05124,-0.01464,0.00488,-0.04392,-0.01952,-0.02928,-0.08784
-0.05856,0.04392,-0.02928,0,0.02928,-0.04392,-0.01464,0.00488,-0.03904,-0.01952,-0.03416,-0.10736
-0.06344,0.0488,-0.03416,-0.00244,0.02928,-0.04636,-0.00488,0.01464,-0.03416,-0.01464,-0.03416,-0.09272
-0.06344,0.04636,-0.02928,0.00244,0.03416,-0.0488,0,0.01464,-0.03416,-0.01952,-0.03416,-0.09272
-0.0488,0.03172,-0.01464,0.00976,0.03416,-0.04148,-0.00976,0.00976,-0.02928,-0.00488,-0.02928,-0.0976
-0.03904,0.02928,-0.01952,0,0.01952,-0.02928,-0.01464,0.00976,-0.02928,-0.00488,-0.02928,-0.10248
-0.04392,0.02684,-0.00976,0.0122,0.03416,-0.03904,-0.01952,0.01952,-0.01464,0,-0.01952,-0.09272
-0.03904,0.02684,-0.01464,0.00488,0.0244,-0.03172,-0.01952,0.01952,-0.00488,0,-0.01952,-0.08784
-0.02928,0.02928,-0.02928,-0.01464,0,-0.01464,-0.02928,0.00976,-0.01464,0.00976,-0.0244,-0.07808
-0.01952,0.0244,-0.02928,-0.01952,-0.00976,-0.00488,-0.02928,0.01464,-0.01464,0.00976,-0.01952,-0.08784
-0.02928,0.02196,-0.01464,0,0.01464,-0.02196,-0.02928,0.01464,-0.01464,0.00488,-0.02928,-0.08296
-0.0244,0.00976,0.00488,0.01708,0.02928,-0.02684,-0.03416,0.01464,-0.03416,-0.00976,-0.02928,-0.0732
-0.01464,0.00488,0.00488,0.0122,0.01952,-0.01708,-0.0244,0.00976,-0.01952,-0.00976,-0.02928,-0.07808
-0.01952,0.01464,-0.00976,0,0.00976,-0.01464,-0.0244,0.01464,-0.01952,-0.00976,-0.0244,-0.07808
-0.01464,0.01708,-0.01952,-0.0122,-0.00488,-0.00488,-0.00488,0.0244,-0.00488,0.00976,-0.01952,-0.07808
-0.01464,0.01708,-0.01952,-0.0122,-0.00488,-0.00488,-0.01952,0.0244,-0.00488,0.01464,-0.01952,-0.08784
-0.0244,0.03172,-0.03904,-0.02684,-0.01464,-0.00488,-0.01464,0.00976,-0.01952,-0.00488,-0.0244,-0.08784
-0.03416,0.03904,-0.04392,-0.02684,-0.00976,-0.0122,-0.01464,0.00976,-0.02928,-0.00976,-0.01952,-0.08784
-0.0244,0.02928,-0.03416,-0.02196,-0.00976,-0.00732,-0.01464,0.00976,-0.02928,-0.00976,-0.02928,-0.09272
-0.0244,0.02196,-0.01952,-0.00732,0.00488,-0.01464,-0.01952,0.00976,-0.02928,-0.01464,-0.0244,-0.09272
-0.01952,0.01464,-0.00976,0,0.00976,-0.01464,-0.01464,0,-0.03416,-0.00976,-0.02928,-0.07808
-0.01952,0.00732,0.00488,0.01464,0.0244,-0.02196,-0.01464,0.00488,-0.02928,-0.00488,-0.02928,-0.0732
-0.0244,0.01952,-0.01464,-0.00244,0.00976,-0.01708,-0.00976,0.01464,-0.02928,-0.00976,-0.01952,-0.0732
-0.03416,0.0366,-0.03904,-0.02196,-0.00488,-0.01464,-0.01464,0.00976,-0.02928,-0.00976,-0.01952,-0.07808
-0.02928,0.02928,-0.02928,-0.01464,0,-0.01464,-0.0244,0.00488,-0.04392,-0.01952,-0.0244,-0.08296
-0.0244,0.0244,-0.0244,-0.0122,0,-0.0122,-0.01952,0.00488,-0.05368,-0.01952,-0.03416,-0.09272
-0.03416,0.03172,-0.02928,-0.0122,0.00488,-0.01952,-0.01952,-0.00976,-0.05368,-0.01952,-0.03416,-0.0976
-0.04392,0.0488,-0.05368,-0.03172,-0.00976,-0.01708,-0.01952,-0.00976,-0.05368,-0.01952,-0.03416,-0.0976
-0.02928,0.02928,-0.02928,-0.01464,0,-0.01464,-0.00976,0.00488,-0.0488,-0.00976,-0.02928,-0.08296
-0.00488,0.00976,-0.01464,-0.0122,-0.00976,0.00244,-0.01464,0,-0.03416,-0.00976,-0.02928,-0.08296
-0.03416,0.04636,-0.05856,-0.04148,-0.0244,-0.00488,-0.00976,0.00976,-0.0488,-0.0244,-0.03416,-0.09272
-0.03904,0.04392,-0.0488,-0.02928,-0.00976,-0.01464,-0.00976,0.00976,-0.04392,-0.0244,-0.03416,-0.09272
-0.02928,0.02928,-0.02928,-0.01464,0,-0.01464,-0.01464,0.00488,-0.04392,-0.0244,-0.03904,-0.09272
-0.0244,0.0244,-0.0244,-0.0122,0,-0.0122,-0.01464,-0.00976,-0.04392,-0.0244,-0.03904,-0.08784
-0.03416,0.02928,-0.0244,-0.00732,0.00976,-0.02196,-0.00976,-0.01464,-0.05368,-0.0244,-0.03416,-0.0976
-0.03416,0.03172,-0.02928,-0.0122,0.00488,-0.01952,-0.00976,-0.01952,-0.05856,-0.02928,-0.03904,-0.0976
-0.04392,0.0488,-0.05368,-0.03172,-0.00976,-0.01708,-0.00488,-0.00488,-0.04392,-0.02928,-0.04392,-0.0976
-0.03904,0.03904,-0.03904,-0.01952,0,-0.01952,-0.00976,-0.01464,-0.05368,-0.03904,-0.0488,-0.0976
-0.03904,0.03416,-0.02928,-0.00976,0.00976,-0.0244,-0.00976,0,-0.05368,-0.02928,-0.04392,-0.10248
-0.0488,0.03904,-0.02928,-0.00488,0.01952,-0.03416,0,0,-0.04392,-0.01464,-0.03416,-0.09272
-0.02928,0.02684,-0.0244,-0.00976,0.00488,-0.01708,0,0,-0.04392,-0.00976,-0.01952,-0.08296
-0.02928,0.02196,-0.01464,0,0.01464,-0.02196,0,0,-0.03416,-0.00976,-0.01952,-0.0732
-0.00976,-0.00244,0.01464,0.01952,0.0244,-0.01708,0.00976,0.00976,-0.01952,0.00488,-0.00976,-0.06832
0,-0.00732,0.01464,0.01464,0.01464,-0.00732,0.01952,0.0244,-0.00488,0.00976,0,-0.05856
0.00488,-0.0244,0.04392,0.04148,0.03904,-0.01708,0.01952,0.03416,-0.00976,0.00488,-0.00488,-0.06832
0.01464,-0.02928,0.04392,0.0366,0.02928,-0.00732,0.0244,0.03904,-0.00976,0.01464,-0.00488,-0.06344
0.01464,-0.0366,0.05856,0.05124,0.04392,-0.01464,0.03416,0.0488,0,0.01952,0,-0.05368
0.01952,-0.02684,0.03416,0.0244,0.01464,0.00244,0.03904,0.05368,0.01464,0.01952,0.00488,-0.0488
0.01952,-0.02196,0.0244,0.01464,0.00488,0.00732,0.02928,0.04392,0.0244,0.02928,0.00488,-0.0488
0.03416,-0.02928,0.0244,0.00732,-0.00976,0.02196,0.0244,0.04392,0.0244,0.02928,0.01464,-0.04392
0.05368,-0.04392,0.03416,0.00732,-0.01952,0.0366,-0.00976,0.02928,0.03416,0.03904,0.01464,-0.03416
0.08296,-0.06832,0.05368,0.0122,-0.02928,0.05612,-0.03416,0.02928,0.02928,0.04392,0.02928,-0.01952
0.08296,-0.06344,0.04392,0.00244,-0.03904,0.061,-0.05368,0.0244,0.03416,0.04392,0.01952,-0.01952
0.08296,-0.05612,0.02928,-0.0122,-0.05368,0.06832,-0.05856,0.00488,0.01464,0.02928,0.01952,-0.0244
0.08784,-0.05612,0.0244,-0.01952,-0.06344,0.07564,-0.05368,0,0.01952,0.0244,0.01952,-0.0244
0.08784,-0.05124,0.01464,-0.02928,-0.0732,0.08052,-0.06832,0.00488,0.01464,0.0244,0.00976,-0.02928
0.0732,-0.03416,-0.00488,-0.04148,-0.07808,0.07564,-0.05856,0.01952,0.01464,0.01952,0.00488,-0.02928
0.05856,-0.02196,-0.01464,-0.04392,-0.0732,0.06588,-0.04392,0.00976,0.00488,0.01464,0.00488,-0.0244
0.04392,-0.01708,-0.00976,-0.03172,-0.05368,0.0488,-0.0488,-0.00976,-0.00976,0,-0.00976,-0.0488
0.03904,-0.01464,-0.00976,-0.02928,-0.0488,0.04392,-0.05856,-0.01952,-0.02928,-0.0244,-0.03416,-0.05856
0.01464,0.00976,-0.03416,-0.04148,-0.0488,0.03172,-0.05856,-0.02928,-0.0488,-0.03416,-0.04392,-0.06344
0.01464,0.0122,-0.03904,-0.04636,-0.05368,0.03416,-0.0488,-0.02928,-0.04392,-0.02928,-0.03904,-0.0732
0.00976,0.02684,-0.06344,-0.06832,-0.0732,0.04148,-0.03904,-0.04392,-0.0488,-0.04392,-0.03904,-0.06344
-0.01464,0.04392,-0.0732,-0.06588,-0.05856,0.02196,-0.04392,-0.05368,-0.05856,-0.0488,-0.04392,-0.07808
-0.00976,0.03416,-0.05856,-0.05368,-0.0488,0.01952,-0.04392,-0.04392,-0.05856,-0.03904,-0.0488,-0.0732
-0.0244,0.04148,-0.05856,-0.04636,-0.03416,0.00488,-0.04392,-0.03904,-0.05368,-0.04392,-0.0488,-0.07808
-0.03904,0.04636,-0.05368,-0.03416,-0.01464,-0.0122,-0.03904,-0.04392,-0.0488,-0.05856,-0.06344,-0.09272
-0.03904,0.04148,-0.04392,-0.0244,-0.00488,-0.01708,-0.03904,-0.04392,-0.06344,-0.05856,-0.06832,-0.0976
-0.05368,0.05856,-0.06344,-0.0366,-0.00976,-0.02196,-0.01952,-0.04392,-0.05856,-0.05856,-0.06832,-0.10248
-0.06344,0.06344,-0.06344,-0.03172,0,-0.03172,-0.01464,-0.0488,-0.05856,-0.05856,-0.06832,-0.10248
-0.05856,0.06832,-0.07808,-0.0488,-0.01952,-0.01952,-0.01464,-0.0488,-0.06344,-0.05856,-0.06344,-0.09272
-0.06344,0.06832,-0.0732,-0.04148,-0.00976,-0.02684,-0.01464,-0.0488,-0.06344,-0.06344,-0.06344,-0.0976
-0.05856,0.06344,-0.06832,-0.03904,-0.00976,-0.0244,-0.00488,-0.04392,-0.05368,-0.05368,-0.05368,-0.09272
-0.06344,0.06588,-0.06832,-0.0366,-0.00488,-0.02928,0,-0.02928,-0.05368,-0.04392,-0.05368,-0.08296
-0.05856,0.05612,-0.05368,-0.0244,0.00488,-0.03172,-0.00488,-0.0244,-0.0488,-0.04392,-0.06344,-0.08296
-0.05856,0.05368,-0.0488,-0.01952,0.00976,-0.03416,-0.00488,-0.0244,-0.0488,-0.0488,-0.05856,-0.08784
-0.06344,0.05856,-0.05368,-0.02196,0.00976,-0.0366,0.00488,-0.0244,-0.0488,-0.05856,-0.06344,-0.08784
-0.0732,0.07076,-0.06832,-0.03172,0.00488,-0.03904,0.00488,-0.02928,-0.05368,-0.06344,-0.06344,-0.0976
-0.07808,0.061,-0.04392,-0.00488,0.03416,-0.05612,-0.00488,-0.03904,-0.05856,-0.05856,-0.08296,-0.0976
-0.05856,0.06588,-0.0732,-0.04392,-0.01464,-0.02196,0.01952,-0.01464,-0.03904,-0.0488,-0.06344,-0.0976
-0.09272,0.05368,-0.01464,0.03172,0.07808,-0.0854,0.03904,-0.00488,-0.05368,-0.05368,-0.08296,-0.10736
-0.14152,0.08784,-0.03416,0.0366,0.10736,-0.12444,0.0732,0.03416,0.01464,0.00488,-0.02928,-0.0732
-0.0488,0.01952,0.00976,0.03416,0.05856,-0.05368,0.04392,0.0488,0.06344,0.06344,0.00976,-0.03904
0.08784,-0.04636,0.00488,-0.03904,-0.08296,0.0854,0.08784,0.25864,0.28304,0.21472,0.13176,0.03904
0.30744,-0.18544,0.06344,-0.09028,-0.244,0.27572,0.11712,0.4148,0.49288,0.37088,0.2928,0.15616
0.57096,-0.3172,0.06344,-0.22204,-0.50752,0.53924,0.11712,0.50752,0.64416,0.50264,0.42944,0.27816
0.78568,-0.41236,0.03904,-0.3538,-0.74664,0.76616,0.10736,0.51728,0.69784,0.5612,0.52216,0.37088
0.94672,-0.54412,0.14152,-0.33184,-0.8052,0.87596,-0.06832,0.22448,0.52704,0.50752,0.5612,0.40992
0.88328,-0.48068,0.07808,-0.36356,-0.8052,0.84424,-0.1708,-0.13176,0.21472,0.31232,0.45872,0.40016
0.4636,-0.31476,0.16592,-0.06588,-0.29768,0.38064,-0.23912,-0.64416,-0.43432,-0.18056,0.03904,0.15616
-0.06832,-0.05124,0.1708,0.20496,0.23912,-0.15372,-0.30256,-1.03456,-0.93208,-0.54656,-0.28304,-0.0488
-0.30256,0.12932,0.04392,0.1952,0.34648,-0.32452,-0.55144,-1.33712,-1.19072,-0.71248,-0.39528,-0.13176
-0.24888,0.0488,0.15128,0.27572,0.40016,-0.32452,-0.81984,-1.45912,-1.18584,-0.66856,-0.32208,-0.06344
-0.11224,-0.05612,0.22448,0.2806,0.33672,-0.22448,-0.84424,-1.30784,-0.96136,-0.47336,-0.1708,0.06344
-0.00488,-0.13908,0.28304,0.28548,0.28792,-0.1464,-0.79544,-1.10288,-0.79544,-0.39528,-0.122,0.08296
0.03416,-0.09516,0.15616,0.13908,0.122,-0.04392,-0.65392,-0.83448,-0.59048,-0.31232,-0.08784,0.0732
0.05856,-0.07564,0.09272,0.06344,0.03416,0.0122,-0.43432,-0.59536,-0.44408,-0.28304,-0.08296,0.05368
0.01952,-0.00488,-0.00976,-0.01952,-0.02928,0.0244,-0.30256,-0.44896,-0.366,-0.27816,-0.11712,-0.01952
0.03416,0.00244,-0.03904,-0.05612,-0.0732,0.05368,-0.244,-0.35624,-0.30744,-0.24888,-0.12688,-0.05368
-0.03904,0.02196,-0.00488,0.01464,0.03416,-0.0366,-0.16104,-0.23424,-0.2196,-0.19032,-0.10248,-0.0488
-0.04392,0.0122,0.01952,0.04148,0.06344,-0.05368,-0.08296,-0.1464,-0.14152,-0.1464,-0.07808,-0.0488
-0.0732,0.061,-0.0488,-0.0122,0.0244,-0.0488,-0.05368,-0.122,-0.0976,-0.11224,-0.05856,-0.03904
-0.04392,0.04636,-0.0488,-0.02684,-0.00488,-0.01952,-0.05368,-0.09272,-0.08296,-0.08296,-0.06832,-0.05856
-0.04392,0.04636,-0.0488,-0.02684,-0.00488,-0.01952,-0.03416,-0.04392,-0.06344,-0.07808,-0.08296,-0.0732
-0.05856,0.06344,-0.06832,-0.03904,-0.00976,-0.0244,0.00976,-0.00976,-0.0244,-0.06344,-0.05856,-0.0488
-0.06832,0.06588,-0.06344,-0.02928,0.00488,-0.0366,0.0244,-0.00488,-0.01464,-0.05856,-0.05368,-0.06344
-0.06832,0.06832,-0.06832,-0.03416,0,-0.03416,0.0244,-0.00488,-0.01464,-0.0488,-0.05856,-0.05856
-0.07808,0.07564,-0.0732,-0.03416,0.00488,-0.04148,0.02928,0.01464,0.00488,-0.03904,-0.05368,-0.05856
-0.07808,0.0732,-0.06832,-0.02928,0.00976,-0.04392,0.03904,0.04392,0.00976,-0.03416,-0.05368,-0.05856
-0.08784,0.08052,-0.0732,-0.02928,0.01464,-0.05124,0.02928,0.03904,0.00976,-0.03416,-0.05368,-0.05368
-0.0732,0.07808,-0.08296,-0.04636,-0.00976,-0.03172,0.04392,0.03904,0.01952,-0.03904,-0.04392,-0.0488
-0.0732,0.07076,-0.06832,-0.03172,0.00488,-0.03904,0.03904,0.04392,0.00976,-0.03416,-0.0488,-0.06344
-0.06344,0.06588,-0.06832,-0.0366,-0.00488,-0.02928,0.03904,0.05368,0.01952,-0.03416,-0.0488,-0.06344
-0.04392,0.05124,-0.05856,-0.0366,-0.01464,-0.01464,0.06344,0.0732,0.03904,-0.0244,-0.03416,-0.05368
-0.03416,0.03904,-0.04392,-0.02684,-0.00976,-0.0122,0.05856,0.0732,0.03904,-0.01952,-0.02928,-0.05856
-0.0488,0.05368,-0.05856,-0.03416,-0.00976,-0.01952,0.06344,0.06832,0.0488,-0.00976,-0.02928,-0.04392
-0.06832,0.06832,-0.06832,-0.03416,0,-0.03416,0.05856,0.06832,0.0488,-0.00488,-0.02928,-0.04392
-0.06832,0.07076,-0.0732,-0.03904,-0.00488,-0.03172,0.06832,0.07808,0.06832,-0.00488,-0.01952,-0.04392
-0.05856,0.06588,-0.0732,-0.04392,-0.01464,-0.02196,0.0732,0.08296,0.06832,0,-0.01464,-0.04392
-0.05368,0.05368,-0.05368,-0.02684,0,-0.02684,0.06344,0.0732,0.05856,0,-0.0244,-0.0488
-0.04392,0.04392,-0.04392,-0.02196,0,-0.02196,0.06344,0.08296,0.05856,0.00488,-0.03416,-0.04392
-0.05368,0.05368,-0.05368,-0.02684,0,-0.02684,0.06344,0.08296,0.05856,0.00488,-0.0244,-0.0488
-0.0488,0.05124,-0.05368,-0.02928,-0.00488,-0.02196,0.06344,0.08784,0.06832,0.01464,-0.01464,-0.03416
-0.04392,0.05368,-0.06344,-0.04148,-0.01952,-0.0122,0.06344,0.08296,0.06344,0.00488,-0.0244,-0.03904
-0.04392,0.05612,-0.06832,-0.04636,-0.0244,-0.00976,0.06344,0.08296,0.06344,0.00976,-0.0244,-0.03416
-0.04392,0.0488,-0.05368,-0.03172,-0.00976,-0.01708,0.0732,0.0976,0.08296,0.02928,-0.01952,-0.03416
-0.02928,0.03172,-0.03416,-0.01952,-0.00488,-0.0122,0.06344,0.10736,0.09272,0.03416,-0.01952,-0.02928
-0.02928,0.02928,-0.02928,-0.01464,0,-0.01464,0.05856,0.0976,0.08784,0.0244,-0.01464,-0.02928
-0.03416,0.02928,-0.0244,-0.00732,0.00976,-0.02196,0.06344,0.11712,0.0976,0.01464,-0.00488,-0.01952
-0.01952,0.0244,-0.02928,-0.01952,-0.00976,-0.00488,0.06344,0.11712,0.10736,0.02928,0,-0.01952
-0.01952,0.03416,-0.0488,-0.03904,-0.02928,0.00488,0.0732,0.12688,0.122,0.0488,0.00976,-0.00976
-0.02928,0.03416,-0.03904,-0.0244,-0.00976,-0.00976,0.06344,0.12688,0.122,0.05368,0.00976,0
-0.01464,0.01952,-0.0244,-0.01708,-0.00976,-0.00244,0.06344,0.13664,0.12688,0.05368,0.01464,-0.00488
-0.00488,0.00732,-0.00976,-0.00732,-0.00488,0,0.0732,0.1464,0.13176,0.06832,0.01952,0.00488
0.01464,-0.00488,-0.00488,-0.0122,-0.01952,0.01708,0.0732,0.15616,0.14152,0.07808,0.0244,0.00488
0.00976,-0.00244,-0.00488,-0.00976,-0.01464,0.0122,0.06832,0.16592,0.16104,0.08784,0.03416,0.0244
0,0.00244,-0.00488,-0.00488,-0.00488,0.00244,0.06344,0.1708,0.1708,0.08784,0.03416,0.0244
0,-0.00732,0.01464,0.01464,0.01464,-0.00732,0.05368,0.17568,0.18544,0.10248,0.03904,0.03416
0.00976,-0.03172,0.05368,0.0488,0.04392,-0.01708,0.05368,0.17568,0.1952,0.11224,0.03904,0.03904
0.01952,-0.0366,0.05368,0.04392,0.03416,-0.00732,0.06344,0.18544,0.20008,0.122,0.05856,0.05368
0.02928,-0.04392,0.05856,0.04392,0.02928,0,0.0732,0.19032,0.20984,0.1464,0.0732,0.06344
0.02928,-0.05612,0.08296,0.06832,0.05368,-0.0122,0.0732,0.19032,0.21472,0.14152,0.07808,0.06344
0.01952,-0.05856,0.0976,0.08784,0.07808,-0.02928,0.06832,0.1952,0.21472,0.14152,0.0732,0.06344
0.02928,-0.06344,0.0976,0.08296,0.06832,-0.01952,0.0732,0.18056,0.20984,0.15616,0.08296,0.06344
0.0244,-0.07076,0.11712,0.10492,0.09272,-0.03416,0.0732,0.18056,0.2196,0.16592,0.09272,0.07808
0.03416,-0.07564,0.11712,0.10004,0.08296,-0.0244,0.0732,0.1952,0.22936,0.18056,0.10736,0.08296
0.03416,-0.08052,0.12688,0.1098,0.09272,-0.02928,0.06832,0.18544,0.22936,0.18544,0.10736,0.0976
0.03904,-0.09516,0.15128,0.13176,0.11224,-0.0366,0.05368,0.17568,0.23424,0.17568,0.11712,0.10736
0.04392,-0.0976,0.15128,0.12932,0.10736,-0.03172,0.03904,0.1708,0.23424,0.18056,0.122,0.11224
0.02928,-0.09272,0.15616,0.14152,0.12688,-0.0488,0.03904,0.16104,0.20984,0.16104,0.11712,0.10248
0.01952,-0.08784,0.15616,0.1464,0.13664,-0.05856,0.03416,0.1464,0.20008,0.15616,0.10248,0.0976
0.01464,-0.07564,0.13664,0.12932,0.122,-0.05368,0.04392,0.12688,0.19032,0.14152,0.08784,0.0976
0.00976,-0.0732,0.13664,0.13176,0.12688,-0.05856,0.02928,0.122,0.15616,0.13176,0.08296,0.09272
-0.01464,-0.0488,0.11224,0.11956,0.12688,-0.07076,0.0244,0.09272,0.13664,0.11712,0.0732,0.0732
-0.03416,-0.04148,0.11712,0.1342,0.15128,-0.09272,0.01952,0.06832,0.12688,0.10248,0.0732,0.0732
-0.00488,-0.06344,0.13176,0.1342,0.13664,-0.07076,0.0244,0.07808,0.13664,0.11712,0.08296,0.09272
0.01952,-0.07808,0.13664,0.12688,0.11712,-0.0488,0.03416,0.08784,0.14152,0.122,0.08784,0.10248
0.01464,-0.0732,0.13176,0.12444,0.11712,-0.05124,0.0244,0.06344,0.122,0.10736,0.07808,0.08784
0.01464,-0.06832,0.122,0.11468,0.10736,-0.04636,0.00488,0.06344,0.11712,0.0976,0.06832,0.08784
-0.00488,-0.05368,0.11224,0.11468,0.11712,-0.061,-0.00488,0.03416,0.10248,0.0732,0.05856,0.07808
-0.0244,-0.0244,0.0732,0.0854,0.0976,-0.061,0.00976,0.03904,0.08784,0.06832,0.05856,0.0732
-0.01952,-0.01952,0.05856,0.06832,0.07808,-0.0488,0.00976,0.01952,0.08296,0.05856,0.04392,0.06832
-0.01464,-0.01952,0.05368,0.061,0.06832,-0.04148,0.00976,0.01464,0.07808,0.05368,0.03416,0.0488
-0.01464,-0.01952,0.05368,0.061,0.06832,-0.04148,0.00976,0.01464,0.0732,0.04392,0.02928,0.05368
-0.01464,-0.0122,0.03904,0.04636,0.05368,-0.03416,0.00976,0.00976,0.06832,0.03416,0.02928,0.05368
-0.0244,-0.00732,0.03904,0.05124,0.06344,-0.04392,0,0.01464,0.06832,0.03416,0.01464,0.04392
-0.03416,0,0.03416,0.05124,0.06832,-0.05124,0.00488,0.00976,0.0488,0.0244,0.00488,0.03416
-0.04392,0.02684,-0.00976,0.0122,0.03416,-0.03904,0.01464,0.00488,0.03416,0.00488,0.00488,0.0244
-0.05368,0.04148,-0.02928,-0.00244,0.0244,-0.03904,0.01464,-0.00488,0.03416,-0.00976,0.00488,0.01952
-0.04392,0.0366,-0.02928,-0.00732,0.01464,-0.02928,0.01464,0.00488,0.02928,-0.00976,-0.00976,0.01952
-0.05368,0.0366,-0.01952,0.00732,0.03416,-0.04392,0.01464,-0.00976,0.01464,-0.0244,-0.01952,0.00976
-0.06344,0.04392,-0.0244,0.00732,0.03904,-0.05124,0.00976,-0.00488,0.00488,-0.0244,-0.02928,0
-0.06344,0.03904,-0.01464,0.01708,0.0488,-0.05612,0.00488,-0.01464,-0.00488,-0.03416,-0.02928,0.00488
-0.07808,0.05612,-0.03416,0.00488,0.04392,-0.061,0.00488,-0.01952,-0.00488,-0.03416,-0.03416,-0.00488
-0.08784,0.06832,-0.0488,-0.00488,0.03904,-0.06344,0.00488,-0.01952,-0.00976,-0.03904,-0.03904,-0.00488
-0.07808,0.06832,-0.05856,-0.01952,0.01952,-0.0488,0.0244,-0.00488,0,-0.02928,-0.02928,0.00488
-0.06832,0.05124,-0.03416,0,0.03416,-0.05124,0.01952,-0.0244,0,-0.03904,-0.03904,-0.00976
-0.0732,0.0488,-0.0244,0.0122,0.0488,-0.061,0.00976,-0.0244,-0.00976,-0.04392,-0.05368,-0.01464
-0.0732,0.04392,-0.01464,0.02196,0.05856,-0.06588,0.00976,-0.0244,-0.01952,-0.05368,-0.0488,-0.01464
-0.09272,0.06344,-0.03416,0.0122,0.05856,-0.07564,0.0244,-0.00976,-0.00488,-0.0488,-0.0488,-0.00488
-0.08784,0.06832,-0.0488,-0.00488,0.03904,-0.06344,0.0244,-0.00488,0,-0.03416,-0.0488,-0.00976
-0.0732,0.06344,-0.05368,-0.01708,0.01952,-0.04636,0.02928,0.00488,0.00976,-0.0244,-0.03904,0.00488
-0.08296,0.07076,-0.05856,-0.01708,0.0244,-0.05368,0.02928,0.00976,0.0244,-0.01952,-0.03904,0.00488
-0.08296,0.06344,-0.04392,-0.00244,0.03904,-0.061,0.01952,-0.00488,0.01952,-0.03416,-0.04392,-0.00976
-0.08296,0.0732,-0.06344,-0.02196,0.01952,-0.05124,0.00976,0,0.0244,-0.03416,-0.03904,-0.00488
-0.0732,0.05368,-0.03416,0.00244,0.03904,-0.05612,0.01952,0.00976,0.01952,-0.01952,-0.03416,0
-0.07808,0.05612,-0.03416,0.00488,0.04392,-0.061,0.02928,0.02928,0.02928,-0.01952,-0.0244,0.00488
-0.06832,0.05612,-0.04392,-0.00976,0.0244,-0.04636,0.03416,0.03416,0.03416,-0.00976,-0.01952,0.01952
-0.0488,0.04392,-0.03904,-0.01464,0.00976,-0.02928,0.03416,0.03416,0.03904,-0.00976,-0.0244,0.00976
-0.06344,0.05856,-0.05368,-0.02196,0.00976,-0.0366,0.0244,0.03416,0.04392,-0.00488,-0.0244,0.00488
-0.06344,0.05612,-0.0488,-0.01708,0.01464,-0.03904,0.02928,0.03416,0.04392,-0.00976,-0.0244,0.00488
-0.05856,0.05612,-0.05368,-0.0244,0.00488,-0.03172,0.02928,0.03904,0.05856,0.00488,-0.01952,0.00976
-0.05856,0.05856,-0.05856,-0.02928,0,-0.02928,0.0244,0.03904,0.05856,0.00488,-0.01952,0.01464
-0.04392,0.04148,-0.03904,-0.01708,0.00488,-0.0244,0.01952,0.02928,0.05368,0,-0.02928,0.01464
-0.02928,0.03172,-0.03416,-0.01952,-0.00488,-0.0122,0.01952,0.02928,0.05368,-0.00976,-0.02928,0.01952
-0.03904,0.03904,-0.03904,-0.01952,0,-0.01952,0.01952,0.02928,0.04392,-0.00976,-0.0244,0.01952
-0.03904,0.03416,-0.02928,-0.00976,0.00976,-0.0244,0.01952,0.03416,0.04392,-0.00976,-0.01952,0.00976
-0.0488,0.05124,-0.05368,-0.02928,-0.00488,-0.02196,0.01952,0.0244,0.04392,-0.01464,-0.02928,0.00488
-0.03416,0.04392,-0.05368,-0.0366,-0.01952,-0.00732,0.01464,0.01464,0.0244,-0.02928,-0.03904,0.00488
-0.0244,0.02928,-0.03416,-0.02196,-0.00976,-0.00732,0.0244,0.01952,0.03904,-0.00976,-0.02928,0.01952
-0.02928,0.03416,-0.03904,-0.0244,-0.00976,-0.00976,0.0244,0.03416,0.0488,0,-0.01464,0.01952
-0.0244,0.03172,-0.03904,-0.02684,-0.01464,-0.00488,0.03416,0.0244,0.04392,0,-0.01952,0.01952
-0.0244,0.03172,-0.03904,-0.02684,-0.01464,-0.00488,0.01952,0.0244,0.04392,-0.01464,-0.01952,0.00976
-0.03416,0.04148,-0.0488,-0.03172,-0.01464,-0.00976,0.01464,0.01952,0.0488,-0.01464,-0.0244,0.01952
-0.03416,0.03904,-0.04392,-0.02684,-0.00976,-0.0122,0.01464,0.01952,0.03904,-0.01952,-0.01952,0.01952
-0.0244,0.03416,-0.04392,-0.03172,-0.01952,-0.00244,0.0244,0.01952,0.03904,-0.00976,-0.02928,0.01464
-0.01464,0.02684,-0.03904,-0.03172,-0.0244,0.00488,0.01952,0.01952,0.03904,-0.01464,-0.0244,0.01464
-0.02928,0.03904,-0.0488,-0.03416,-0.01952,-0.00488,0.0244,0.00976,0.03416,-0.01952,-0.02928,0.01952
-0.0488,0.05124,-0.05368,-0.02928,-0.00488,-0.02196,0.0244,0.01464,0.03904,-0.01464,-0.02928,0.0244
-0.03416,0.03904,-0.04392,-0.02684,-0.00976,-0.0122,0.01952,0.0244,0.03904,-0.00976,-0.01952,0.01464
-0.04392,0.04636,-0.0488,-0.02684,-0.00488,-0.01952,0.01464,0.01952,0.03904,-0.00976,-0.01952,0.00976
-0.02928,0.03904,-0.0488,-0.03416,-0.01952,-0.00488,0.0244,0.01464,0.03416,-0.00976,-0.0244,0.0244
-0.0244,0.03416,-0.04392,-0.03172,-0.01952,-0.00244,0.02928,0.01464,0.03416,-0.00976,-0.0244,0.0244
-0.03416,0.0366,-0.03904,-0.02196,-0.00488,-0.01464,0.01952,0.00976,0.0244,-0.01952,-0.03416,0.00976
-0.04392,0.0488,-0.05368,-0.03172,-0.00976,-0.01708,0.01952,0.00976,0.0244,-0.01952,-0.03416,0
-0.05856,0.05856,-0.05856,-0.02928,0,-0.02928,0.02928,0.0244,0.02928,-0.01952,-0.02928,0.01464
-0.06344,0.06344,-0.06344,-0.03172,0,-0.03172,0.0244,0.01952,0.03416,-0.01952,-0.02928,0.01464
-0.06344,0.06588,-0.06832,-0.0366,-0.00488,-0.02928,0.01952,0.00976,0.01952,-0.03416,-0.03416,0.00488
-0.0488,0.03904,-0.02928,-0.00488,0.01952,-0.03416,0.01952,0,0.01464,-0.03416,-0.03416,0.00488
-0.0488,0.04392,-0.03904,-0.01464,0.00976,-0.02928,0.0244,0.00488,0.01464,-0.03416,-0.02928,0.00488
-0.04392,0.04392,-0.04392,-0.02196,0,-0.02196,0.0244,0,0.01464,-0.03416,-0.02928,0.00976
-0.06344,0.05856,-0.05368,-0.02196,0.00976,-0.0366,0.02928,0.00488,0.01464,-0.03416,-0.03416,0
-0.06344,0.06588,-0.06832,-0.0366,-0.00488,-0.02928,0.02928,0,0.00976,-0.03904,-0.03904,0
-0.05368,0.06344,-0.0732,-0.04636,-0.01952,-0.01708,0.0244,-0.00488,0.00488,-0.03904,-0.04392,0
-0.0488,0.0488,-0.0488,-0.0244,0,-0.0244,0.01952,-0.01464,-0.00488,-0.0488,-0.0488,0
-0.03904,0.0488,-0.05856,-0.03904,-0.01952,-0.00976,0.02928,0,0.00488,-0.03904,-0.03416,0.00488
-0.03904,0.05368,-0.06832,-0.0488,-0.02928,-0.00488,0.02928,0,0.00488,-0.03416,-0.03416,0.00488
-0.05856,0.05368,-0.0488,-0.01952,0.00976,-0.03416,0.0244,0.00976,0.00976,-0.03416,-0.03416,0.00488
-0.0488,0.04148,-0.03416,-0.00976,0.01464,-0.03172,0.01464,0,0.00976,-0.03904,-0.03904,0
-0.05368,0.05368,-0.05368,-0.02684,0,-0.02684,0.01952,0,0.00976,-0.02928,-0.03904,0.00976
-0.06344,0.06832,-0.0732,-0.04148,-0.00976,-0.02684,0.01952,0,0.00976,-0.0244,-0.03904,0.01464
-0.06344,0.06832,-0.0732,-0.04148,-0.00976,-0.02684,0.01464,-0.00488,0.00488,-0.04392,-0.05856,-0.00488
-0.06344,0.06588,-0.06832,-0.0366,-0.00488,-0.02928,0.01952,0,0.00488,-0.04392,-0.05368,0
-0.05368,0.05124,-0.0488,-0.02196,0.00488,-0.02928,0.03416,0,0.01464,-0.02928,-0.03904,0.01464
-0.06832,0.05612,-0.04392,-0.00976,0.0244,-0.04636,0.02928,0,0.01952,-0.02928,-0.03416,0.01952
-0.05856,0.05612,-0.05368,-0.0244,0.00488,-0.03172,0.03904,0,0.01464,-0.02928,-0.02928,0.01464
-0.04392,0.05124,-0.05856,-0.0366,-0.01464,-0.01464,0.04392,0,0.01952,-0.02928,-0.02928,0.01464
-0.07808,0.08296,-0.08784,-0.0488,-0.00976,-0.03416,0.0244,-0.00976,0,-0.04392,-0.04392,0.00488
-0.10736,0.0976,-0.08784,-0.03416,0.01952,-0.06344,0.01464,-0.01952,-0.00488,-0.05368,-0.04392,-0.00488
-0.06344,0.06832,-0.0732,-0.04148,-0.00976,-0.02684,0.01952,-0.00488,0,-0.04392,-0.03416,0.00488
-0.03904,0.03416,-0.02928,-0.00976,0.00976,-0.0244,0.02928,-0.00976,0,-0.03416,-0.03416,0.00976
-0.04392,0.04148,-0.03904,-0.01708,0.00488,-0.0244,0.01952,-0.00976,0.00976,-0.03416,-0.04392,0.00488
-0.03416,0.0366,-0.03904,-0.02196,-0.00488,-0.01464,0.0244,-0.00976,0.00488,-0.03416,-0.04392,0.00976
-0.0488,0.05368,-0.05856,-0.03416,-0.00976,-0.01952,0.03416,0,0.00488,-0.03416,-0.03416,0.01464
-0.05856,0.06588,-0.0732,-0.04392,-0.01464,-0.02196,0.02928,0,0.00976,-0.03416,-0.03416,0.00488
-0.0488,0.05612,-0.06344,-0.03904,-0.01464,-0.01708,0.0244,-0.01464,0,-0.04392,-0.0488,0
-0.05368,0.05856,-0.06344,-0.0366,-0.00976,-0.02196,0.0244,-0.01464,0,-0.03904,-0.0488,0.00976
-0.06344,0.06344,-0.06344,-0.03172,0,-0.03172,0.03416,-0.00976,0.00488,-0.02928,-0.03904,0.00976
-0.0732,0.06832,-0.06344,-0.02684,0.00976,-0.04148,0.03416,-0.00976,-0.00488,-0.0488,-0.04392,-0.00488
-0.05368,0.05368,-0.05368,-0.02684,0,-0.02684,0.0244,0,0,-0.04392,-0.03416,0
-0.06344,0.06344,-0.06344,-0.03172,0,-0.03172,0.0244,0,0,-0.02928,-0.03904,0.00976
-0.05368,0.05856,-0.06344,-0.0366,-0.00976,-0.02196,0.0244,0,0.00488,-0.03904,-0.04392,0
-0.06344,0.061,-0.05856,-0.02684,0.00488,-0.03416,0.02928,0,0.00488,-0.03904,-0.03904,0
-0.0732,0.061,-0.0488,-0.0122,0.0244,-0.0488,0.03416,-0.01464,0,-0.03904,-0.04392,0.00976
-0.06832,0.04392,-0.01952,0.01464,0.0488,-0.05856,0.0244,-0.01952,0,-0.03904,-0.04392,0
-0.05856,0.061,-0.06344,-0.03416,-0.00488,-0.02684,0.0244,-0.00976,0,-0.04392,-0.03904,0.01464
-0.03904,0.03904,-0.03904,-0.01952,0,-0.01952,0.02928,-0.00976,0,-0.03904,-0.04392,0.00976
-0.03416,0.0488,-0.06344,-0.04636,-0.02928,-0.00244,0.02928,0,0.01464,-0.03416,-0.02928,0.01464
-0.0488,0.05612,-0.06344,-0.03904,-0.01464,-0.01708,0.02928,-0.00488,0.01464,-0.03904,-0.03904,0.00976
-0.0488,0.05124,-0.05368,-0.02928,-0.00488,-0.02196,0.02928,-0.01464,0.00488,-0.03904,-0.03904,0.00976
-0.05368,0.05368,-0.05368,-0.02684,0,-0.02684,0.03904,-0.00976,0,-0.0488,-0.03904,0.00976
-0.06344,0.06344,-0.06344,-0.03172,0,-0.03172,0.03904,-0.00976,0,-0.0488,-0.03904,0.00976
-0.0732,0.07564,-0.07808,-0.04148,-0.00488,-0.03416,0.03416,-0.00976,-0.00976,-0.0488,-0.0488,0
-0.08296,0.08052,-0.07808,-0.0366,0.00488,-0.04392,0.0244,-0.00976,-0.00976,-0.0488,-0.0488,0
-0.0732,0.08052,-0.08784,-0.05124,-0.01464,-0.02928,0.02928,-0.00976,0,-0.03904,-0.03904,0.00976
-0.06344,0.07564,-0.08784,-0.05612,-0.0244,-0.01952,0.02928,-0.00976,0,-0.03904,-0.03904,0.00976
-0.06832,0.0732,-0.07808,-0.04392,-0.00976,-0.02928,0.02928,-0.00488,0.00976,-0.03904,-0.03904,0.00976
-0.06832,0.06344,-0.05856,-0.0244,0.00976,-0.03904,0.02928,0.00488,0.00976,-0.03904,-0.03904,0.00976
-0.05856,0.05368,-0.0488,-0.01952,0.00976,-0.03416,0.02928,0,0.00976,-0.02928,-0.02928,0.01952
-0.05856,0.05368,-0.0488,-0.01952,0.00976,-0.03416,0.02928,0,0.00976,-0.02928,-0.02928,0.01952
-0.05856,0.05856,-0.05856,-0.02928,0,-0.02928,0.03904,0,0.00976,-0.02928,-0.02928,0.00976
-0.05856,0.05856,-0.05856,-0.02928,0,-0.02928,0.03904,0,0.00976,-0.02928,-0.02928,0.00976
-0.0488,0.05124,-0.05368,-0.02928,-0.00488,-0.02196,0.02928,-0.00976,0,-0.03904,-0.03904,0
-0.0488,0.04636,-0.04392,-0.01952,0.00488,-0.02684,0.02928,-0.00976,0,-0.03904,-0.03904,0
-0.0488,0.0488,-0.0488,-0.0244,0,-0.0244,0.03904,0,0,-0.03904,-0.03904,0.00976
-0.0488,0.0488,-0.0488,-0.0244,0,-0.0244,0.03904,0,0,-0.03904,-0.03904,0.00976
-0.0488,0.05124,-0.05368,-0.02928,-0.00488,-0.02196,0.02928,-0.00976,0,-0.03904,-0.03904,0.00976
-0.0488,0.05612,-0.06344,-0.03904,-0.01464,-0.01708,0.02928,-0.00976,0,-0.03904,-0.03904,0.00976
-0.05368,0.05368,-0.05368,-0.02684,0,-0.02684,0.03904,-0.00976,-0.00976,-0.0488,-0.03904,0
-0.06344,0.05368,-0.04392,-0.0122,0.01952,-0.04148,0.03904,-0.00976,-0.00976,-0.0488,-0.03904,0
-0.05856,0.05124,-0.04392,-0.01464,0.01464,-0.0366,0.03904,0,-0.00488,-0.04392,-0.02928,0.00488
-0.05856,0.05612,-0.05368,-0.0244,0.00488,-0.03172,0.03904,0,0.00488,-0.03416,-0.02928,0.01464
-0.06832,0.06588,-0.06344,-0.02928,0.00488,-0.0366,0.02928,-0.00976,0.00488,-0.03416,-0.03904,0.01464
-0.06832,0.07076,-0.0732,-0.03904,-0.00488,-0.03172,0.02928,-0.00976,-0.00488,-0.04392,-0.03904,0.00488
-0.07808,0.07808,-0.07808,-0.03904,0,-0.03904,0.02928,-0.00976,0,-0.03904,-0.03904,0
-0.07808,0.07808,-0.07808,-0.03904,0,-0.03904,0.02928,-0.00976,0,-0.03904,-0.03904,0
-0.05856,0.06588,-0.0732,-0.04392,-0.01464,-0.02196,0.02928,-0.00976,0,-0.03904,-0.02928,0
-0.03416,0.04148,-0.0488,-0.03172,-0.01464,-0.00976,0.02928,-0.00488,0.00488,-0.03416,-0.0244,0.00488
-0.02928,0.04148,-0.05368,-0.03904,-0.0244,-0.00244,0.02928,0,0.00488,-0.02928,-0.02928,0.01952
-0.02928,0.03172,-0.03416,-0.01952,-0.00488,-0.0122,0.03416,0.00488,0.00976,-0.01952,-0.02928,0.01952
-0.0244,0.0244,-0.0244,-0.0122,0,-0.0122,0.04392,0.01952,0.03416,-0.00488,-0.00488,0.0244
-0.01952,0.0244,-0.02928,-0.01952,-0.00976,-0.00488,0.04392,0.03416,0.03904,0,0,0.0244
-0.01464,0.01952,-0.0244,-0.01708,-0.00976,-0.00244,0.05368,0.02928,0.03904,0,0.00488,0.02928
-0.00488,0.00732,-0.00976,-0.00732,-0.00488,0,0.05856,0.03904,0.04392,0,0.00488,0.03416
0.00976,0.00244,-0.01464,-0.01952,-0.0244,0.01708,0.06832,0.03904,0.05368,0,0,0.03904
0.00488,0,-0.00488,-0.00732,-0.00976,0.00732,0.0488,0.04392,0.0488,0.00488,-0.00976,0.03416
0.0244,-0.00732,-0.00976,-0.02196,-0.03416,0.02928,0.03904,0.05368,0.06832,0.00976,0.01464,0.0488
0.03416,-0.00732,-0.01952,-0.0366,-0.05368,0.04392,0.04392,0.05368,0.08296,0.0244,0.0244,0.0488
0.05368,-0.01464,-0.0244,-0.05124,-0.07808,0.06588,0.05368,0.0732,0.08296,0.02928,0.03904,0.0488
0.06344,-0.01952,-0.0244,-0.05612,-0.08784,0.07564,0.04392,0.07808,0.09272,0.03904,0.03904,0.05856
0.07808,-0.0244,-0.02928,-0.06832,-0.10736,0.09272,0.02928,0.07808,0.0976,0.04392,0.03416,0.05856
0.05856,-0.00976,-0.03904,-0.06832,-0.0976,0.07808,0.03416,0.06832,0.08784,0.03416,0.03416,0.0488
0.06344,-0.00976,-0.04392,-0.07564,-0.10736,0.0854,0.0244,0.04392,0.0732,0.0244,0.03416,0.06344
0.05368,-0.00488,-0.04392,-0.07076,-0.0976,0.07564,0,0.00976,0.03416,-0.00488,0.00976,0.03904
0.03416,0.0122,-0.05856,-0.07564,-0.09272,0.06344,0,0.00488,0.02928,-0.01464,0.00488,0.03904
0.03416,0.00488,-0.04392,-0.061,-0.07808,0.05612,-0.00976,0,0.00976,-0.0244,0,0.02928
0.04392,0,-0.04392,-0.06588,-0.08784,0.06588,-0.00488,0.00976,0.01952,-0.01952,-0.00976,0.0244
0.04392,0,-0.04392,-0.06588,-0.08784,0.06588,0,-0.00488,0.00976,-0.0244,-0.01464,0.0244
0.02928,0.01464,-0.05856,-0.0732,-0.08784,0.05856,0,-0.00488,0,-0.03904,-0.0244,0.01952
0.01464,0.03416,-0.08296,-0.09028,-0.0976,0.05612,0.01464,-0.00488,-0.01464,-0.04392,-0.02928,0.00976
-0.00488,0.0488,-0.09272,-0.09028,-0.08784,0.04148,0.0244,-0.00488,-0.00488,-0.04392,-0.03416,0.00976
-0.0244,0.05856,-0.09272,-0.08052,-0.06832,0.02196,0.01464,-0.01952,-0.00976,-0.0488,-0.03904,0.00488
-0.01464,0.03904,-0.06344,-0.05612,-0.0488,0.01708,0.00488,-0.02928,-0.00976,-0.0488,-0.03904,-0.00976
-0.01464,0.03416,-0.05368,-0.04636,-0.03904,0.0122,0.00976,-0.0244,-0.00976,-0.0488,-0.03904,-0.00488
-0.02928,0.04392,-0.05856,-0.04392,-0.02928,0,0.00976,-0.0244,-0.01464,-0.0488,-0.02928,0.00488
-0.0488,0.061,-0.0732,-0.0488,-0.0244,-0.0122,0.01952,-0.01464,-0.01464,-0.05368,-0.03416,0
-0.05368,0.06588,-0.07808,-0.05124,-0.0244,-0.01464,0.01464,-0.01952,-0.0244,-0.06344,-0.04392,-0.01464
-0.0488,0.06344,-0.07808,-0.05368,-0.02928,-0.00976,0.01464,-0.01952,-0.0244,-0.05856,-0.04392,-0.00976
-0.05856,0.0732,-0.08784,-0.05856,-0.02928,-0.01464,0.0244,-0.01464,-0.01952,-0.04392,-0.03416,-0.00488
-0.05856,0.0732,-0.08784,-0.05856,-0.02928,-0.01464,0.0244,-0.01464,-0.01952,-0.0488,-0.02928,-0.00976
-0.05856,0.0732,-0.08784,-0.05856,-0.02928,-0.01464,0.0244,-0.01464,-0.01952,-0.05856,-0.03904,-0.00976
-0.05856,0.06588,-0.0732,-0.04392,-0.01464,-0.02196,0.0244,-0.01952,-0.01952,-0.06344,-0.04392,-0.00976
-0.06832,0.07564,-0.08296,-0.0488,-0.01464,-0.02684,0.03904,-0.0244,-0.01464,-0.05856,-0.03416,0
-0.07808,0.09028,-0.10248,-0.06344,-0.0244,-0.02684,0.05368,0.00488,-0.00976,-0.04392,-0.0244,0
-0.10736,0.09516,-0.08296,-0.02928,0.0244,-0.06588,0.03416,0,-0.01464,-0.05856,-0.04392,-0.00976
-0.11224,0.08784,-0.06344,-0.00732,0.0488,-0.08052,0.05856,0.00976,0,-0.0488,-0.04392,-0.01952
-0.12688,0.09516,-0.06344,0,0.06344,-0.09516,0.0732,0.03416,0.00488,-0.02928,-0.04392,-0.02928
-0.05368,0.03416,-0.01464,0.0122,0.03904,-0.04636,0.10736,0.0976,0.11224,0.07808,0.04392,0.0488
0.0488,-0.0244,0,-0.0244,-0.0488,0.0488,0.1464,0.27328,0.31232,0.20496,0.15616,0.11224
0.29768,-0.17568,0.05368,-0.09516,-0.244,0.27084,0.22448,0.49776,0.57584,0.42456,0.3416,0.244
0.54656,-0.305,0.06344,-0.20984,-0.48312,0.51484,0.1952,0.5612,0.68808,0.52216,0.45384,0.35136
0.7808,-0.4514,0.122,-0.2684,-0.6588,0.7198,0.15616,0.56608,0.75152,0.58072,0.54168,0.42456
0.93208,-0.5002,0.06832,-0.39772,-0.86376,0.89792,0.0244,0.29768,0.60512,0.57096,0.60024,0.50752
0.98088,-0.55388,0.12688,-0.36356,-0.854,0.91744,-0.18544,-0.13664,0.3172,0.40992,0.54656,0.49288
0.6344,-0.36112,0.08784,-0.22936,-0.54656,0.59048,-0.36112,-0.6832,-0.35136,-0.12688,0.11224,0.23424
0.1464,-0.0976,0.0488,-0.0244,-0.0976,0.122,-0.42944,-1.06384,-0.9028,-0.56608,-0.25864,0.00976
-0.12688,0.08052,-0.03416,0.02928,0.09272,-0.1098,-0.69296,-1.40544,-1.22976,-0.81008,-0.4392,-0.11224
-0.16104,0.11224,-0.06344,0.01708,0.0976,-0.12932,-0.854,-1.49816,-1.25904,-0.79544,-0.4148,-0.09272
-0.0488,-0.0244,0.0976,0.122,0.1464,-0.0976,-0.83936,-1.29808,-1.02968,-0.62464,-0.2684,0.01952
0.01464,-0.06832,0.122,0.11468,0.10736,-0.04636,-0.74176,-1.06384,-0.83448,-0.49288,-0.18056,0.09272
0.0732,-0.07076,0.06832,0.03172,-0.00488,0.03904,-0.60024,-0.83936,-0.62952,-0.40016,-0.13664,0.08784
0.05368,-0.02684,0,-0.02684,-0.05368,0.05368,-0.42944,-0.62464,-0.49288,-0.36112,-0.1464,0.04392
0.01464,0.03904,-0.09272,-0.10004,-0.10736,0.061,-0.30744,-0.47336,-0.40992,-0.34648,-0.16592,-0.00488
0.00488,0.061,-0.12688,-0.12932,-0.13176,0.06832,-0.2196,-0.35136,-0.30256,-0.2684,-0.12688,0.00976
-0.01952,0.03416,-0.0488,-0.03904,-0.02928,0.00488,-0.16104,-0.23912,-0.20984,-0.21472,-0.10248,0.00976
-0.04392,0.05124,-0.05856,-0.0366,-0.01464,-0.01464,-0.08784,-0.16592,-0.1464,-0.15616,-0.08784,0
-0.03416,0.04392,-0.05368,-0.0366,-0.01952,-0.00732,-0.03416,-0.0976,-0.0976,-0.09272,-0.02928,0.02928
-0.03904,0.05856,-0.07808,-0.05856,-0.03904,0,-0.0244,-0.0976,-0.0976,-0.10248,-0.04392,0
-0.06832,0.06344,-0.05856,-0.0244,0.00976,-0.03904,-0.00976,-0.04392,-0.05856,-0.0976,-0.05856,-0.01464
-0.05856,0.05612,-0.05368,-0.0244,0.00488,-0.03172,0.01952,-0.00976,-0.01952,-0.06344,-0.04392,-0.01464
-0.05856,0.06588,-0.0732,-0.04392,-0.01464,-0.02196,0.03904,0,-0.01464,-0.04392,-0.04392,-0.00976
-0.0488,0.05856,-0.06832,-0.04392,-0.01952,-0.01464,0.03416,0.00488,-0.01464,-0.03904,-0.02928,0
-0.0488,0.04392,-0.03904,-0.01464,0.00976,-0.02928,0.04392,0.02928,0,-0.03904,-0.03416,0
-0.05368,0.04636,-0.03904,-0.0122,0.01464,-0.03416,0.05856,0.04392,0.01464,-0.02928,-0.0244,-0.00488
-0.05856,0.05368,-0.0488,-0.01952,0.00976,-0.03416,0.0732,0.0488,0.02928,-0.01952,-0.01464,0
-0.05368,0.05856,-0.06344,-0.0366,-0.00976,-0.02196,0.06832,0.05368,0.0244,-0.00976,-0.01464,0.00976
-0.06344,0.061,-0.05856,-0.02684,0.00488,-0.03416,0.06832,0.05368,0.01952,-0.01464,-0.01952,0.00488
-0.0732,0.05856,-0.04392,-0.00732,0.02928,-0.05124,0.0732,0.06344,0.02928,-0.00976,-0.01952,0.00976
-0.06344,0.04636,-0.02928,0.00244,0.03416,-0.0488,0.06832,0.06344,0.02928,-0.01952,-0.02928,-0.00488
-0.06832,0.05124,-0.03416,0,0.03416,-0.05124,0.07808,0.06832,0.04392,-0.00976,-0.01952,-0.00488
-0.06832,0.05368,-0.03904,-0.00488,0.02928,-0.0488,0.08296,0.08296,0.05368,-0.00976,-0.01952,-0.00488
-0.0732,0.05856,-0.04392,-0.00732,0.02928,-0.05124,0.0976,0.08784,0.05368,0.00488,-0.00976,0.00488
-0.05856,0.061,-0.06344,-0.03416,-0.00488,-0.02684,0.10248,0.09272,0.05856,0.00488,-0.00488,0.00488
-0.05368,0.05124,-0.0488,-0.02196,0.00488,-0.02928,0.09272,0.09272,0.06832,0.00976,-0.00488,0
-0.04392,0.04148,-0.03904,-0.01708,0.00488,-0.0244,0.09272,0.09272,0.0732,0.00976,-0.00488,0.00488
-0.0488,0.04392,-0.03904,-0.01464,0.00976,-0.02928,0.09272,0.09272,0.0732,0.00976,-0.00976,-0.00976
-0.05368,0.05124,-0.0488,-0.02196,0.00488,-0.02928,0.09272,0.09272,0.0732,0.00976,-0.00976,-0.00488
-0.05856,0.05612,-0.05368,-0.0244,0.00488,-0.03172,0.09272,0.10248,0.08296,0.01464,-0.00488,0.00488
-0.05368,0.05368,-0.05368,-0.02684,0,-0.02684,0.09272,0.10248,0.08296,0.01464,-0.00488,0
-0.04392,0.04636,-0.0488,-0.02684,-0.00488,-0.01952,0.10248,0.10736,0.0976,0.02928,0.00488,0.00976
-0.04392,0.04148,-0.03904,-0.01708,0.00488,-0.0244,0.0976,0.122,0.10248,0.03904,0.01464,0.0244
-0.02928,0.02196,-0.01464,0,0.01464,-0.02196,0.08296,0.11224,0.0976,0.03416,0.00488,0.01464
-0.03416,0.03416,-0.03416,-0.01708,0,-0.01708,0.08784,0.11712,0.0976,0.03416,0,0.00488
-0.02928,0.02928,-0.02928,-0.01464,0,-0.01464,0.09272,0.12688,0.0976,0.02928,0.00488,0.00976
-0.02928,0.0244,-0.01952,-0.00488,0.00976,-0.01952,0.09272,0.13176,0.10248,0.02928,0,0.00976
-0.03904,0.0366,-0.03416,-0.01464,0.00488,-0.02196,0.11224,0.13664,0.11224,0.05368,0.00976,0.02928
-0.02928,0.03172,-0.03416,-0.01952,-0.00488,-0.0122,0.10248,0.14152,0.11712,0.05368,0.01464,0.0244
-0.01464,0.01952,-0.0244,-0.01708,-0.00976,-0.00244,0.09272,0.15128,0.12688,0.06344,0.01952,0.02928
-0.01464,0.01464,-0.01464,-0.00732,0,-0.00732,0.09272,0.16104,0.13664,0.0732,0.01952,0.03416
0,0.00244,-0.00488,-0.00488,-0.00488,0.00244,0.0976,0.16592,0.1464,0.07808,0.02928,0.04392
0,-0.00244,0.00488,0.00488,0.00488,-0.00244,0.09272,0.16592,0.15128,0.0732,0.03416,0.04392
-0.00488,-0.00244,0.00976,0.0122,0.01464,-0.00976,0.0976,0.18056,0.16104,0.08784,0.04392,0.04392
-0.00976,-0.00244,0.01464,0.01952,0.0244,-0.01708,0.10736,0.18544,0.1708,0.0976,0.0488,0.05856
-0.00976,-0.0122,0.03416,0.03904,0.04392,-0.02684,0.10736,0.18544,0.16592,0.0976,0.04392,0.0488
0,-0.02196,0.04392,0.04392,0.04392,-0.02196,0.0976,0.1952,0.18544,0.11224,0.05856,0.06344
0.00976,-0.02928,0.0488,0.04392,0.03904,-0.01464,0.10248,0.20984,0.20496,0.12688,0.0732,0.05368
0.00976,-0.03172,0.05368,0.0488,0.04392,-0.01708,0.10248,0.20984,0.20496,0.13176,0.07808,0.06344
0.01952,-0.04636,0.0732,0.06344,0.05368,-0.01708,0.10736,0.21472,0.20496,0.14152,0.0732,0.06832
0.01464,-0.05368,0.09272,0.0854,0.07808,-0.03172,0.11224,0.20984,0.20984,0.1464,0.08296,0.07808
0.01464,-0.06588,0.11712,0.1098,0.10248,-0.04392,0.10248,0.2196,0.2196,0.16104,0.0976,0.0976
0.01464,-0.07564,0.13664,0.12932,0.122,-0.05368,0.0976,0.22448,0.2196,0.16104,0.0976,0.09272
0.0244,-0.08052,0.13664,0.12444,0.11224,-0.04392,0.10248,0.22448,0.22448,0.1708,0.10736,0.10736
0.03416,-0.08296,0.13176,0.11468,0.0976,-0.03172,0.0976,0.22448,0.22936,0.18544,0.10736,0.10736
0.0244,-0.06832,0.11224,0.10004,0.08784,-0.03172,0.10736,0.22448,0.23912,0.17568,0.11224,0.11224
0.01952,-0.06832,0.11712,0.10736,0.0976,-0.03904,0.10248,0.21472,0.22448,0.1708,0.11712,0.11224
0,-0.06344,0.12688,0.12688,0.12688,-0.06344,0.10248,0.20008,0.20984,0.17568,0.122,0.10736
-0.00976,-0.05368,0.11712,0.122,0.12688,-0.06832,0.10248,0.1952,0.20008,0.16592,0.11712,0.10248
-0.00488,-0.05612,0.11712,0.11956,0.122,-0.06344,0.08784,0.18544,0.18544,0.1464,0.0976,0.09272
-0.00488,-0.06344,0.13176,0.1342,0.13664,-0.07076,0.09272,0.18056,0.18544,0.14152,0.09272,0.09272
-0.00488,-0.07564,0.15616,0.1586,0.16104,-0.08296,0.0732,0.15128,0.16592,0.13176,0.09272,0.09272
0.00976,-0.0732,0.13664,0.13176,0.12688,-0.05856,0.0732,0.14152,0.1464,0.12688,0.08784,0.09272
0.00488,-0.06832,0.13176,0.12932,0.12688,-0.061,0.06344,0.12688,0.13664,0.12688,0.08784,0.0976
-0.00488,-0.05856,0.122,0.12444,0.12688,-0.06588,0.05856,0.11224,0.11712,0.10736,0.0732,0.08784
-0.00488,-0.06344,0.13176,0.1342,0.13664,-0.07076,0.04392,0.10736,0.11712,0.11224,0.0732,0.0976
-0.00488,-0.05368,0.11224,0.11468,0.11712,-0.061,0.0488,0.08296,0.10248,0.0976,0.06832,0.08296
-0.01952,-0.02928,0.07808,0.08784,0.0976,-0.05856,0.0488,0.0976,0.09272,0.08296,0.06832,0.08784
-0.01464,-0.02928,0.0732,0.08052,0.08784,-0.05124,0.0488,0.08296,0.08784,0.07808,0.05856,0.07808
-0.01464,-0.0244,0.06344,0.07076,0.07808,-0.04636,0.0488,0.0732,0.0976,0.07808,0.06344,0.0732
-0.00976,-0.01952,0.0488,0.05368,0.05856,-0.03416,0.0488,0.0732,0.08784,0.06832,0.05856,0.07808
0.00488,-0.02684,0.0488,0.04636,0.04392,-0.01952,0.03416,0.05368,0.08296,0.0488,0.0488,0.06832
0.00488,-0.02928,0.05368,0.05124,0.0488,-0.02196,0.0244,0.05368,0.06344,0.03904,0.03904,0.05856
-0.01952,-0.00732,0.03416,0.04392,0.05368,-0.0366,0.01464,0.03416,0.04392,0.02928,0.0244,0.04392
-0.02928,0.00732,0.01464,0.02928,0.04392,-0.0366,0.01464,0.03416,0.03416,0.01952,0.0244,0.03416
-0.02928,0.0122,0.00488,0.01952,0.03416,-0.03172,0.0244,0.0244,0.01952,0.00976,0.00488,0.02928
-0.00976,-0.00244,0.01464,0.01952,0.0244,-0.01708,0.0244,0.01952,0.00976,0.00488,-0.00488,0.0244
-0.0244,0.0122,0,0.0122,0.0244,-0.0244,0.01952,0.00976,0.01464,0.00488,0,0.01952
-0.0244,0.0122,0,0.0122,0.0244,-0.0244,0.01952,0.01464,0.01464,-0.00488,0,0.01952
-0.01952,0.01708,-0.01464,-0.00488,0.00488,-0.0122,0.01464,0.00488,-0.00488,-0.01464,0,0.01464
-0.0244,0.02928,-0.03416,-0.02196,-0.00976,-0.00732,0.01464,0,-0.00976,-0.01952,-0.00976,0.01464
-0.03416,0.05124,-0.06832,-0.05124,-0.03416,0,0.0244,0.00488,-0.00976,-0.01952,-0.01952,0.01464
-0.04392,0.05368,-0.06344,-0.04148,-0.01952,-0.0122,0.01952,-0.00488,-0.01952,-0.0244,-0.02928,0.00488
-0.04392,0.04636,-0.0488,-0.02684,-0.00488,-0.01952,0.01952,-0.01464,-0.02928,-0.03904,-0.02928,-0.00488
-0.03904,0.03904,-0.03904,-0.01952,0,-0.01952,0.01952,-0.01464,-0.02928,-0.03416,-0.03416,-0.00488
-0.04392,0.04148,-0.03904,-0.01708,0.00488,-0.0244,0.0244,0,-0.0244,-0.03416,-0.02928,0.00488
-0.05368,0.05124,-0.0488,-0.02196,0.00488,-0.02928,0.0244,0,-0.0244,-0.03904,-0.03904,-0.00976
-0.04392,0.05124,-0.05856,-0.0366,-0.01464,-0.01464,0.02928,0.01464,-0.01952,-0.03416,-0.02928,-0.00488
-0.05368,0.061,-0.06832,-0.04148,-0.01464,-0.01952,0.02928,0.01952,-0.01464,-0.02928,-0.02928,-0.00488
-0.05368,0.05612,-0.05856,-0.03172,-0.00488,-0.0244,0.02928,0.00488,-0.01952,-0.0244,-0.03416,-0.00976
-0.05368,0.05124,-0.0488,-0.02196,0.00488,-0.02928,0.02928,0.00976,-0.01952,-0.0244,-0.03416,-0.00488
-0.05368,0.05124,-0.0488,-0.02196,0.00488,-0.02928,0.01952,0,-0.01464,-0.02928,-0.02928,-0.01464
-0.05368,0.05124,-0.0488,-0.02196,0.00488,-0.02928,0.01952,0,-0.0244,-0.03416,-0.03416,-0.01952
-0.05856,0.05612,-0.05368,-0.0244,0.00488,-0.03172,0.03416,0.01464,-0.00976,-0.0244,-0.01952,0
-0.0488,0.0488,-0.0488,-0.0244,0,-0.0244,0.03416,0.01464,0,-0.01952,-0.0244,0
-0.0488,0.05856,-0.06832,-0.04392,-0.01952,-0.01464,0.04392,0.02928,0,-0.00488,-0.00488,0
-0.05368,0.06344,-0.0732,-0.04636,-0.01952,-0.01708,0.0488,0.03904,0.00976,-0.00488,-0.00488,0.00488
-0.05368,0.061,-0.06832,-0.04148,-0.01464,-0.01952,0.03416,0.03416,0,-0.01464,-0.00976,-0.00488
-0.0488,0.05612,-0.06344,-0.03904,-0.01464,-0.01708,0.0244,0.0244,-0.00488,-0.01952,-0.0244,-0.01464
-0.05368,0.05368,-0.05368,-0.02684,0,-0.02684,0.01952,0.00976,-0.00976,-0.01952,-0.02928,-0.00488
-0.0488,0.04636,-0.04392,-0.01952,0.00488,-0.02684,0.0244,0.00976,-0.00488,-0.01952,-0.02928,0
-0.0488,0.0488,-0.0488,-0.0244,0,-0.0244,0.01952,0.01952,-0.00488,-0.00976,-0.0244,-0.00976
-0.0488,0.04392,-0.03904,-0.01464,0.00976,-0.02928,0.01952,0.0244,-0.00488,-0.00976,-0.00976,-0.01952
-0.04392,0.04392,-0.04392,-0.02196,0,-0.02196,0.02928,0.03416,0.00488,-0.00488,-0.00976,-0.00488
-0.02928,0.03416,-0.03904,-0.0244,-0.00976,-0.00976,0.02928,0.03416,0.01952,-0.00488,-0.00976,0
-0.01952,0.02928,-0.03904,-0.02928,-0.01952,0,0.01464,0.03416,0.0244,-0.00488,-0.00976,0.00488
-0.02928,0.04148,-0.05368,-0.03904,-0.0244,-0.00244,0.01464,0.02928,0.02928,0.00488,-0.00976,0.00976
-0.03904,0.05124,-0.06344,-0.04392,-0.0244,-0.00732,0.01464,0.03416,0.0244,0.00976,-0.01464,0.00976
-0.03416,0.05124,-0.06832,-0.05124,-0.03416,0,0.0244,0.03416,0.01952,0.00488,-0.01952,0.00488
-0.01952,0.0366,-0.05368,-0.04392,-0.03416,0.00732,0.01952,0.02928,0.00976,0,-0.02928,0.00976
-0.00976,0.02684,-0.04392,-0.03904,-0.03416,0.0122,0.0244,0.01952,0.00976,-0.00488,-0.01952,0.00976
-0.00976,0.02684,-0.04392,-0.03904,-0.03416,0.0122,0.0244,0.02928,0.00488,0,-0.00976,0.00976
-0.01952,0.03172,-0.04392,-0.03416,-0.0244,0.00244,0.01952,0.02928,0.01464,-0.00488,-0.00976,0.01952
0,0,0,0,0,0,0.0244,0.03904,0.0244,0.00976,0.01952,0.03416
0.01464,-0.0122,0.00976,0.00244,-0.00488,0.00976,0.0244,0.06832,0.0488,0.03904,0.02928,0.0488
0.0244,-0.01708,0.00976,-0.00244,-0.01464,0.01952,0.03416,0.06832,0.0488,0.03904,0.02928,0.0488
0.04392,-0.03904,0.03416,0.0122,-0.00976,0.02684,0.03904,0.0732,0.0488,0.03904,0.01952,0.03904
0.04392,-0.03904,0.03416,0.0122,-0.00976,0.02684,0.0488,0.07808,0.06344,0.03416,0.02928,0.0488
0.04392,-0.04392,0.04392,0.02196,0,0.02196,0.03904,0.08296,0.05368,0.0244,0.01952,0.03904
0.05368,-0.03904,0.0244,-0.00244,-0.02928,0.04148,0.04392,0.08784,0.06344,0.03416,0.02928,0.04392
0.06344,-0.05368,0.04392,0.0122,-0.01952,0.04148,0.03416,0.08784,0.06344,0.0488,0.03904,0.05368
0.06832,-0.0488,0.02928,-0.00488,-0.03904,0.05368,0.03904,0.09272,0.06832,0.0488,0.04392,0.05856
0.06832,-0.05612,0.04392,0.00976,-0.0244,0.04636,0.0244,0.0732,0.06344,0.05856,0.03416,0.05856
0.08296,-0.06344,0.04392,0.00244,-0.03904,0.061,0.00976,0.0732,0.06344,0.05856,0.04392,0.06344
0.08784,-0.06344,0.03904,-0.00488,-0.0488,0.06832,-0.02928,0.04392,0.06832,0.05368,0.03416,0.06832
0.10736,-0.06832,0.02928,-0.0244,-0.07808,0.09272,-0.05368,0.03416,0.05368,0.0488,0.0488,0.0732
0.11712,-0.07076,0.0244,-0.03416,-0.09272,0.10492,-0.05368,0.02928,0.0488,0.0488,0.0488,0.06832
0.12688,-0.06832,0.00976,-0.05368,-0.11712,0.122,-0.05856,0.01952,0.03904,0.04392,0.0488,0.06344
0.122,-0.06344,0.00488,-0.05612,-0.11712,0.11956,-0.0488,0.0244,0.02928,0.03904,0.04392,0.05856
0.11224,-0.05368,-0.00488,-0.061,-0.11712,0.11468,-0.05368,0.01952,0.0244,0.02928,0.0244,0.04392
0.08784,-0.02928,-0.02928,-0.0732,-0.11712,0.10248,-0.03904,0.01952,0.01464,0.00976,0.00488,0.03904
0.06344,-0.00732,-0.0488,-0.08052,-0.11224,0.08784,-0.0244,0.00976,0.00488,0.00488,0.00488,0.04392
0.05368,0,-0.05368,-0.08052,-0.10736,0.08052,-0.03416,0,-0.00488,0.00488,0,0.02928
0.0488,0.00732,-0.06344,-0.08784,-0.11224,0.08052,-0.03416,-0.00976,-0.01464,-0.00976,-0.00488,0.01952
0.0244,0.0244,-0.0732,-0.0854,-0.0976,0.061,-0.03904,-0.02928,-0.04392,-0.0244,-0.01464,0.00488
0.0244,0.02684,-0.07808,-0.09028,-0.10248,0.06344,-0.0488,-0.02928,-0.0488,-0.03904,-0.02928,-0.00488
0.01952,0.03172,-0.08296,-0.09272,-0.10248,0.061,-0.04392,-0.0244,-0.03904,-0.04392,-0.02928,0.00488
-0.00488,0.0488,-0.09272,-0.09028,-0.08784,0.04148,-0.03904,-0.03416,-0.0488,-0.0488,-0.03416,-0.00976
-0.00976,0.0488,-0.08784,-0.08296,-0.07808,0.03416,-0.02928,-0.03416,-0.05368,-0.0488,-0.0488,-0.01464
-0.0244,0.05612,-0.08784,-0.07564,-0.06344,0.01952,-0.01952,-0.02928,-0.05856,-0.05368,-0.0488,-0.01952
-0.0488,0.06588,-0.08296,-0.05856,-0.03416,-0.00732,-0.00976,-0.03416,-0.04392,-0.0488,-0.04392,-0.01464
-0.0488,0.061,-0.0732,-0.0488,-0.0244,-0.0122,-0.00976,-0.03416,-0.0488,-0.0488,-0.0488,-0.01952
-0.0488,0.06832,-0.08784,-0.06344,-0.03904,-0.00488,-0.00976,-0.01464,-0.0488,-0.05856,-0.0488,-0.01464
-0.0488,0.0732,-0.0976,-0.0732,-0.0488,0,-0.00488,-0.01952,-0.0488,-0.05856,-0.0488,-0.01464
-0.04392,0.0732,-0.10248,-0.08052,-0.05856,0.00732,-0.01464,-0.02928,-0.06344,-0.06832,-0.05368,-0.0244
-0.03904,0.06344,-0.08784,-0.06832,-0.0488,0.00488,-0.01464,-0.02928,-0.06344,-0.0732,-0.05368,-0.02928
-0.04392,0.061,-0.07808,-0.05612,-0.03416,-0.00488,-0.00488,-0.01952,-0.05368,-0.06832,-0.04392,-0.0244
-0.05856,0.06832,-0.07808,-0.0488,-0.01952,-0.01952,0,-0.01464,-0.05368,-0.0488,-0.04392,-0.01464
-0.05856,0.0732,-0.08784,-0.05856,-0.02928,-0.01464,0.00488,-0.0244,-0.05856,-0.05368,-0.0488,-0.0244
-0.05856,0.07564,-0.09272,-0.06344,-0.03416,-0.0122,0.00488,-0.0244,-0.05856,-0.05856,-0.05368,-0.02928
-0.05856,0.06832,-0.07808,-0.0488,-0.01952,-0.01952,0.00488,-0.0244,-0.06832,-0.06832,-0.06344,-0.01952
-0.05856,0.07076,-0.08296,-0.05368,-0.0244,-0.01708,0.00488,-0.02928,-0.0732,-0.0732,-0.06344,-0.02928
-0.05856,0.07564,-0.09272,-0.06344,-0.03416,-0.0122,0.00488,-0.02928,-0.05856,-0.05856,-0.05368,-0.02928
-0.06832,0.10004,-0.13176,-0.0976,-0.06344,-0.00244,0.01952,-0.01464,-0.06832,-0.05856,-0.06344,-0.0488
-0.15128,0.13176,-0.11224,-0.0366,0.03904,-0.09516,0.05856,0.01464,-0.04392,-0.04392,-0.06344,-0.0488
-0.122,0.07808,-0.03416,0.02684,0.08784,-0.10492,0.05368,0.0244,-0.03416,-0.0244,-0.03904,-0.0244
-0.03904,0.0244,-0.00976,0.00976,0.02928,-0.03416,0.06344,0.08784,0.06344,0.05368,0.00976,0.00976
0.11712,-0.061,0.00488,-0.05368,-0.11224,0.11468,0.12688,0.30744,0.2928,0.21472,0.14152,0.0976
0.32696,-0.16104,-0.00488,-0.16836,-0.33184,0.3294,0.13664,0.43432,0.4636,0.35136,0.28304,0.20496
0.60024,-0.30744,0.01464,-0.28548,-0.5856,0.59292,0.11712,0.50752,0.57584,0.43432,0.40016,0.29768
0.83448,-0.427,0.01952,-0.39772,-0.81496,0.82472,0.07808,0.41968,0.54168,0.44408,0.4636,0.37088
0.91744,-0.5002,0.08296,-0.37576,-0.83448,0.87596,-0.08784,0.0976,0.37088,0.40016,0.48312,0.4392
0.83448,-0.45628,0.07808,-0.33916,-0.7564,0.79544,-0.22936,-0.3172,-0.01952,0.13664,0.32208,0.35136
0.27816,-0.22204,0.16592,0.02684,-0.11224,0.1952,-0.30744,-0.83936,-0.67832,-0.34648,-0.0976,0.10736
-0.18544,0.0366,0.11224,0.20496,0.29768,-0.24156,-0.41968,-1.20048,-1.098,-0.6344,-0.33184,-0.03904
-0.31232,0.10492,0.10248,0.25864,0.4148,-0.36356,-0.73688,-1.50304,-1.30784,-0.75152,-0.40504,-0.08296
-0.19032,-0.00976,0.20984,0.305,0.40016,-0.29524,-0.8784,-1.45912,-1.1468,-0.58072,-0.244,0.05368
-0.06344,-0.12444,0.31232,0.34404,0.37576,-0.2196,-0.82472,-1.22976,-0.91256,-0.40504,-0.10248,0.1708
0.03416,-0.17324,0.31232,0.29524,0.27816,-0.122,-0.73688,-0.99552,-0.74664,-0.33672,-0.0732,0.1708
0.06344,-0.11956,0.17568,0.14396,0.11224,-0.0244,-0.55632,-0.73688,-0.57096,-0.2928,-0.06832,0.122
0.00976,-0.00244,-0.00488,-0.00976,-0.01464,0.0122,-0.38552,-0.5368,-0.45384,-0.27328,-0.09272,0.05368
0.03904,0.00488,-0.0488,-0.06832,-0.08784,0.06344,-0.2928,-0.41968,-0.40504,-0.27816,-0.12688,0
0.01464,0.0122,-0.03904,-0.04636,-0.05368,0.03416,-0.20496,-0.28792,-0.28792,-0.2196,-0.10736,0.00488
-0.02928,0.0366,-0.04392,-0.02928,-0.01464,-0.00732,-0.122,-0.17568,-0.20008,-0.1708,-0.08296,0.00976
-0.0244,0.02196,-0.01952,-0.00732,0.00488,-0.01464,-0.08296,-0.13664,-0.16104,-0.12688,-0.06832,0
-0.03416,0.05612,-0.07808,-0.061,-0.04392,0.00488,-0.05368,-0.10248,-0.11712,-0.08296,-0.0488,0
-0.06344,0.07564,-0.08784,-0.05612,-0.0244,-0.01952,-0.04392,-0.05368,-0.10248,-0.08296,-0.06832,-0.01952
-0.08296,0.09028,-0.0976,-0.05612,-0.01464,-0.03416,-0.01464,-0.0244,-0.08296,-0.07808,-0.06344,-0.01464
-0.0488,0.0488,-0.0488,-0.0244,0,-0.0244,0,0,-0.05368,-0.05368,-0.0488,-0.01952
-0.05856,0.07076,-0.08296,-0.05368,-0.0244,-0.01708,0.0244,0.01464,-0.04392,-0.0488,-0.04392,-0.03416
-0.05856,0.08296,-0.10736,-0.07808,-0.0488,-0.00488,0.0244,0.01464,-0.04392,-0.03904,-0.0488,-0.02928
-0.0488,0.07076,-0.09272,-0.06832,-0.04392,-0.00244,0.02928,0.0244,-0.03416,-0.0488,-0.05368,-0.02928
-0.0488,0.06344,-0.07808,-0.05368,-0.02928,-0.00976,0.03904,0.04392,-0.02928,-0.04392,-0.05368,-0.02928
-0.06832,0.08052,-0.09272,-0.05856,-0.0244,-0.02196,0.02928,0.03904,-0.02928,-0.03416,-0.05368,-0.04392
-0.06344,0.08296,-0.10248,-0.07076,-0.03904,-0.0122,0.04392,0.03904,-0.01952,-0.02928,-0.04392,-0.03904
-0.05368,0.07076,-0.08784,-0.061,-0.03416,-0.00976,0.03904,0.03416,-0.02928,-0.03416,-0.0488,-0.03416
-0.04392,0.061,-0.07808,-0.05612,-0.03416,-0.00488,0.03904,0.04392,-0.01952,-0.03416,-0.0488,-0.03416
-0.04392,0.06588,-0.08784,-0.06588,-0.04392,0,0.05368,0.0732,0,-0.01464,-0.03416,-0.01464
-0.04392,0.06832,-0.09272,-0.07076,-0.0488,0.00244,0.0488,0.08296,0.00976,0,-0.01952,-0.00976
-0.03904,0.0732,-0.10736,-0.08784,-0.06832,0.01464,0.05368,0.07808,0,-0.00976,-0.02928,-0.01464
-0.03904,0.0732,-0.10736,-0.08784,-0.06832,0.01464,0.0488,0.06832,0,-0.00488,-0.02928,-0.01464
-0.02928,0.05124,-0.0732,-0.05856,-0.04392,0.00732,0.03904,0.06832,0,-0.01464,-0.03904,-0.0244
-0.00976,0.03172,-0.05368,-0.0488,-0.04392,0.01708,0.04392,0.0732,-0.00976,-0.01952,-0.03416,-0.0244
-0.0244,0.0488,-0.0732,-0.061,-0.0488,0.0122,0.04392,0.06344,0,-0.00976,-0.0244,-0.01952
-0.03416,0.06344,-0.09272,-0.07564,-0.05856,0.0122,0.04392,0.0732,0.00976,0.00488,-0.0244,-0.01464
-0.03416,0.06344,-0.09272,-0.07564,-0.05856,0.0122,0.04392,0.08296,0,-0.00488,-0.03416,-0.02928
-0.01952,0.05612,-0.09272,-0.08296,-0.0732,0.02684,0.04392,0.08784,0.00976,0.00488,-0.0244,-0.01464
-0.0244,0.05368,-0.08296,-0.07076,-0.05856,0.01708,0.05368,0.10248,0.0244,0.01464,-0.01464,-0.01952
-0.03416,0.05612,-0.07808,-0.061,-0.04392,0.00488,0.05368,0.10248,0.03416,0.01952,-0.01464,-0.01464
-0.0244,0.04392,-0.06344,-0.05124,-0.03904,0.00732,0.04392,0.10736,0.03416,0.02928,-0.01952,-0.01464
0,0.02684,-0.05368,-0.05368,-0.05368,0.02684,0.03416,0.10736,0.03416,0.03416,-0.01952,-0.00976
-0.00976,0.03904,-0.06832,-0.06344,-0.05856,0.0244,0.0488,0.0976,0.02928,0.0244,-0.00488,0
-0.0244,0.05368,-0.08296,-0.07076,-0.05856,0.01708,0.05368,0.10736,0.03904,0.0244,0.00488,0.00976
-0.00976,0.02928,-0.0488,-0.04392,-0.03904,0.01464,0.04392,0.11712,0.05856,0.03904,0,0
0,0.01952,-0.03904,-0.03904,-0.03904,0.01952,0.05368,0.12688,0.08296,0.05856,0.00976,0.00976
0.00976,0.01952,-0.0488,-0.05368,-0.05856,0.03416,0.04392,0.13664,0.08296,0.0732,0.01952,0.01952
0.0244,0.00976,-0.04392,-0.05612,-0.06832,0.04636,0.04392,0.1464,0.08784,0.0732,0.0244,0.0244
0.01464,0.00732,-0.02928,-0.0366,-0.04392,0.02928,0.04392,0.1464,0.09272,0.07808,0.02928,0.0244
0.0244,0,-0.0244,-0.0366,-0.0488,0.0366,0.04392,0.15616,0.10248,0.08784,0.03416,0.0244
0.02928,-0.0122,-0.00488,-0.01952,-0.03416,0.03172,0.0488,0.15616,0.10248,0.08784,0.03416,0.0244
0.02928,-0.01708,0.00488,-0.00976,-0.0244,0.02684,0.04392,0.16104,0.10248,0.08784,0.0244,0.0244
0.03904,-0.01708,-0.00488,-0.0244,-0.04392,0.04148,0.04392,0.16592,0.11712,0.10248,0.0488,0.04392
0.0488,-0.02684,0.00488,-0.01952,-0.04392,0.04636,0.04392,0.16592,0.12688,0.11224,0.0488,0.0488
0.05856,-0.04148,0.0244,-0.00488,-0.03416,0.04636,0.03416,0.18544,0.15128,0.13176,0.06832,0.06344
0.06832,-0.05856,0.0488,0.01464,-0.01952,0.04392,0.03416,0.19032,0.1708,0.15616,0.09272,0.0732
0.07808,-0.07564,0.0732,0.03416,-0.00488,0.04148,0.0244,0.18056,0.16592,0.16104,0.0976,0.0732
0.07808,-0.08296,0.08784,0.0488,0.00976,0.03416,0.01952,0.18544,0.16592,0.16104,0.08296,0.0732
0.06832,-0.06832,0.06832,0.03416,0,0.03416,0.03416,0.19032,0.18056,0.17568,0.10248,0.09272
0.06344,-0.07076,0.07808,0.04636,0.01464,0.0244,0.04392,0.19032,0.20008,0.1952,0.122,0.10736
0.06344,-0.08052,0.0976,0.06588,0.03416,0.01464,0.03416,0.18544,0.18056,0.18056,0.10736,0.09272
0.06344,-0.0854,0.10736,0.07564,0.04392,0.00976,0.01952,0.16592,0.16104,0.17568,0.0976,0.08784
0.06832,-0.10004,0.13176,0.0976,0.06344,0.00244,0.00488,0.1464,0.15616,0.17568,0.10736,0.0976
0.06344,-0.10248,0.14152,0.1098,0.07808,-0.00732,0,0.14152,0.15616,0.18056,0.122,0.10248
0.05856,-0.0976,0.13664,0.10736,0.07808,-0.00976,0.00976,0.14152,0.15128,0.18056,0.11712,0.10248
0.0488,-0.08784,0.12688,0.10248,0.07808,-0.01464,0.00488,0.12688,0.15128,0.17568,0.11224,0.10736
0.05368,-0.0854,0.11712,0.09028,0.06344,-0.00488,-0.00488,0.10736,0.14152,0.16104,0.10736,0.0976
0.0488,-0.08296,0.11712,0.09272,0.06832,-0.00976,-0.01952,0.10248,0.10736,0.15128,0.10248,0.09272
0.05368,-0.07808,0.10248,0.07564,0.0488,0.00244,-0.00488,0.08296,0.0976,0.15616,0.10248,0.09272
0.05368,-0.0854,0.11712,0.09028,0.06344,-0.00488,-0.00976,0.06832,0.08784,0.14152,0.10248,0.10248
0.04392,-0.08296,0.122,0.10004,0.07808,-0.01708,-0.0244,0.0488,0.06832,0.12688,0.09272,0.09272
0.0488,-0.07808,0.10736,0.08296,0.05856,-0.00488,-0.0244,0.0488,0.06344,0.11224,0.07808,0.08296
0.0244,-0.06344,0.10248,0.09028,0.07808,-0.02684,-0.03416,0.0244,0.04392,0.0976,0.06832,0.06832
0.0244,-0.05856,0.09272,0.08052,0.06832,-0.02196,-0.04392,0.0244,0.03904,0.08784,0.05856,0.06832
0.01464,-0.05856,0.10248,0.09516,0.08784,-0.0366,-0.05368,0.00488,0.0244,0.0732,0.0488,0.05856
0.01464,-0.03904,0.06344,0.05612,0.0488,-0.01708,-0.0488,0.00976,0.00976,0.06832,0.0488,0.05368
0,-0.01952,0.03904,0.03904,0.03904,-0.01952,-0.02928,0.00976,0.01464,0.05856,0.03416,0.0488
0.00488,-0.01464,0.0244,0.02196,0.01952,-0.00732,-0.01952,0.00488,0.00976,0.05368,0.0244,0.02928
0.00488,-0.01464,0.0244,0.02196,0.01952,-0.00732,-0.02928,-0.00488,-0.00488,0.03416,0.00976,0.01464
0.00488,-0.00244,0,-0.00244,-0.00488,0.00488,-0.02928,-0.00976,-0.01952,0.0244,0.00976,0.01464
-0.00488,0.00244,0,0.00244,0.00488,-0.00488,-0.02928,-0.00488,-0.01952,0.01464,0.00488,0.01464
-0.0244,0.01464,-0.00488,0.00732,0.01952,-0.02196,-0.0244,-0.00976,-0.03904,0.00488,-0.00488,0.00488
-0.0244,0.03172,-0.03904,-0.02684,-0.01464,-0.00488,-0.01464,-0.00488,-0.04392,0.00488,-0.01464,-0.00488
-0.03416,0.04148,-0.0488,-0.03172,-0.01464,-0.00976,-0.00488,-0.01464,-0.04392,-0.00976,-0.01464,-0.00976
-0.0244,0.0366,-0.0488,-0.0366,-0.0244,0,-0.01464,-0.01464,-0.0488,0,-0.01952,-0.00976
-0.03416,0.0366,-0.03904,-0.02196,-0.00488,-0.01464,-0.0244,-0.02928,-0.06344,-0.01464,-0.02928,-0.01952
-0.03416,0.04392,-0.05368,-0.0366,-0.01952,-0.00732,-0.00976,-0.01464,-0.05368,-0.01464,-0.01952,-0.00976
-0.03416,0.03904,-0.04392,-0.02684,-0.00976,-0.0122,-0.01464,-0.01464,-0.06344,-0.0244,-0.01952,-0.00488
-0.03904,0.04148,-0.04392,-0.0244,-0.00488,-0.01708,-0.00488,-0.00976,-0.06344,-0.0244,-0.03416,-0.01464
-0.0488,0.0488,-0.0488,-0.0244,0,-0.0244,-0.00488,-0.00976,-0.06832,-0.02928,-0.03904,-0.0244
-0.0488,0.05368,-0.05856,-0.03416,-0.00976,-0.01952,-0.00488,-0.01464,-0.06832,-0.02928,-0.03904,-0.0244
-0.0488,0.04636,-0.04392,-0.01952,0.00488,-0.02684,-0.00976,-0.03416,-0.07808,-0.03904,-0.0488,-0.03904
-0.05368,0.05368,-0.05368,-0.02684,0,-0.02684,0,-0.01464,-0.06832,-0.0244,-0.04392,-0.03416
-0.05368,0.05856,-0.06344,-0.0366,-0.00976,-0.02196,0,-0.00488,-0.06832,-0.0244,-0.03904,-0.03416
-0.06344,0.05856,-0.05368,-0.02196,0.00976,-0.0366,-0.00488,0,-0.05368,-0.02928,-0.03904,-0.03416
-0.05856,0.05856,-0.05856,-0.02928,0,-0.02928,-0.00488,0.00488,-0.0488,-0.0244,-0.03904,-0.03904
-0.04392,0.0488,-0.05368,-0.03172,-0.00976,-0.01708,0,0.00488,-0.0488,-0.0244,-0.03904,-0.04392
-0.05368,0.05612,-0.05856,-0.03172,-0.00488,-0.0244,0,0.00976,-0.04392,-0.01952,-0.03904,-0.04392
-0.06344,0.06344,-0.06344,-0.03172,0,-0.03172,0.00976,0.00488,-0.0488,-0.0244,-0.05368,-0.0488
-0.06344,0.07808,-0.09272,-0.061,-0.02928,-0.01708,0.00976,0.00976,-0.04392,-0.0244,-0.0488,-0.04392
-0.05368,0.05368,-0.05368,-0.02684,0,-0.02684,0,0,-0.05856,-0.02928,-0.06344,-0.05856
-0.05856,0.04636,-0.03416,-0.00488,0.0244,-0.04148,0,0,-0.06832,-0.03904,-0.06344,-0.06344
-0.05856,0.05612,-0.05368,-0.0244,0.00488,-0.03172,0.00488,0.00488,-0.05368,-0.02928,-0.0488,-0.0488
-0.0488,0.05368,-0.05856,-0.03416,-0.00976,-0.01952,0.00488,0.00488,-0.0488,-0.02928,-0.05368,-0.05856
-0.04392,0.05368,-0.06344,-0.04148,-0.01952,-0.0122,0.01464,0.01464,-0.03416,-0.01464,-0.03416,-0.04392
-0.04392,0.05124,-0.05856,-0.0366,-0.01464,-0.01464,0.01952,0.0244,-0.0244,-0.00976,-0.03416,-0.03416
-0.02928,0.0366,-0.04392,-0.02928,-0.01464,-0.00732,0.01952,0.01952,-0.02928,-0.01464,-0.0488,-0.0488
-0.02928,0.03904,-0.0488,-0.03416,-0.01952,-0.00488,0.01464,0.01952,-0.03904,-0.01464,-0.0488,-0.05368
-0.03416,0.04636,-0.05856,-0.04148,-0.0244,-0.00488,0,0.00976,-0.03416,-0.00976,-0.03904,-0.05368
-0.03904,0.05124,-0.06344,-0.04392,-0.0244,-0.00732,0,0.00976,-0.03416,-0.00976,-0.03904,-0.0488
-0.03904,0.0488,-0.05856,-0.03904,-0.01952,-0.00976,0.00976,0.02928,-0.03416,-0.01952,-0.04392,-0.0488
-0.03904,0.04392,-0.0488,-0.02928,-0.00976,-0.01464,0.00976,0.04392,-0.03416,-0.01952,-0.03904,-0.05856
-0.0488,0.05124,-0.05368,-0.02928,-0.00488,-0.02196,0.00976,0.03416,-0.03416,-0.00488,-0.03904,-0.04392
-0.03416,0.03904,-0.04392,-0.02684,-0.00976,-0.0122,0.00488,0.0244,-0.04392,-0.00976,-0.03904,-0.03416
-0.0244,0.03416,-0.04392,-0.03172,-0.01952,-0.00244,0.00488,0.01952,-0.02928,-0.00976,-0.03904,-0.03904
-0.02928,0.03904,-0.0488,-0.03416,-0.01952,-0.00488,0.00488,0.0244,-0.02928,-0.00976,-0.03416,-0.0488
-0.0244,0.04148,-0.05856,-0.04636,-0.03416,0.00488,0.00488,0.01464,-0.03416,-0.00976,-0.03904,-0.03904
-0.0244,0.04148,-0.05856,-0.04636,-0.03416,0.00488,-0.00976,0.01464,-0.03416,-0.01464,-0.03904,-0.0488
-0.03416,0.04636,-0.05856,-0.04148,-0.0244,-0.00488,0.00488,0,-0.0488,-0.03416,-0.04392,-0.05856
-0.03416,0.04392,-0.05368,-0.0366,-0.01952,-0.00732,0.00488,0,-0.06832,-0.03904,-0.0488,-0.05856
-0.0244,0.03904,-0.05368,-0.04148,-0.02928,0.00244,0.00488,0.00976,-0.05856,-0.02928,-0.0488,-0.05368
-0.0244,0.0366,-0.0488,-0.0366,-0.0244,0,0,0.00976,-0.0488,-0.0244,-0.04392,-0.05368
-0.02928,0.04392,-0.05856,-0.04392,-0.02928,0,-0.00488,0.00976,-0.04392,-0.01952,-0.0488,-0.05856
-0.02928,0.04148,-0.05368,-0.03904,-0.0244,-0.00244,-0.00488,0.01464,-0.03904,-0.01464,-0.0488,-0.05368
-0.0244,0.03416,-0.04392,-0.03172,-0.01952,-0.00244,0,0.00488,-0.0488,-0.02928,-0.03904,-0.05368
-0.03416,0.04148,-0.0488,-0.03172,-0.01464,-0.00976,-0.00488,-0.00976,-0.05856,-0.02928,-0.0488,-0.05856
-0.02928,0.03416,-0.03904,-0.0244,-0.00976,-0.00976,-0.01464,-0.01464,-0.06344,-0.03904,-0.05368,-0.06344
-0.0244,0.02928,-0.03416,-0.02196,-0.00976,-0.00732,-0.00976,-0.01464,-0.06344,-0.03904,-0.06344,-0.06344
-0.03416,0.04148,-0.0488,-0.03172,-0.01464,-0.00976,0,0,-0.05368,-0.02928,-0.05368,-0.05856
-0.03416,0.05856,-0.08296,-0.06588,-0.0488,0.00732,0,0.00976,-0.04392,-0.01952,-0.04392,-0.05856
-0.03904,0.05856,-0.07808,-0.05856,-0.03904,0,0,0.00488,-0.03904,-0.01952,-0.0488,-0.04392
-0.03416,0.0488,-0.06344,-0.04636,-0.02928,-0.00244,-0.00488,0,-0.03416,-0.01952,-0.0488,-0.04392
-0.06344,0.07076,-0.07808,-0.04636,-0.01464,-0.0244,-0.01952,-0.00976,-0.05856,-0.03416,-0.06344,-0.06344
-0.05856,0.05856,-0.05856,-0.02928,0,-0.02928,-0.01952,-0.00976,-0.06344,-0.04392,-0.0732,-0.0732
-0.0488,0.0488,-0.0488,-0.0244,0,-0.0244,-0.01464,-0.00488,-0.05368,-0.03416,-0.05856,-0.06344
-0.03416,0.04392,-0.05368,-0.0366,-0.01952,-0.00732,-0.00488,-0.00976,-0.04392,-0.03416,-0.05856,-0.0488
-0.04392,0.05856,-0.0732,-0.05124,-0.02928,-0.00732,0,-0.00488,-0.05368,-0.03416,-0.05368,-0.05856
-0.04392,0.06588,-0.08784,-0.06588,-0.04392,0,0,-0.00976,-0.05856,-0.03904,-0.05856,-0.05856
-0.04392,0.06344,-0.08296,-0.061,-0.03904,-0.00244,-0.00488,-0.01464,-0.05368,-0.03904,-0.05368,-0.05856
-0.03904,0.04392,-0.0488,-0.02928,-0.00976,-0.01464,-0.00976,-0.0244,-0.06344,-0.0488,-0.05856,-0.05856
-0.03904,0.04392,-0.0488,-0.02928,-0.00976,-0.01464,-0.00976,-0.00976,-0.0732,-0.03904,-0.06344,-0.06344
-0.03904,0.04392,-0.0488,-0.02928,-0.00976,-0.01464,-0.00976,-0.00976,-0.0732,-0.03416,-0.06344,-0.06344
-0.0488,0.0488,-0.0488,-0.0244,0,-0.0244,-0.00488,-0.00976,-0.06832,-0.04392,-0.06344,-0.06344
-0.03904,0.04636,-0.05368,-0.03416,-0.01464,-0.0122,-0.00488,-0.01952,-0.06832,-0.0488,-0.06832,-0.06832
-0.03416,0.0488,-0.06344,-0.04636,-0.02928,-0.00244,0.00976,0,-0.05856,-0.03904,-0.05856,-0.05856
-0.03416,0.0488,-0.06344,-0.04636,-0.02928,-0.00244,0.00976,0,-0.05856,-0.0244,-0.0488,-0.05368
-0.04392,0.04392,-0.04392,-0.02196,0,-0.02196,-0.00488,-0.01464,-0.0732,-0.04392,-0.05856,-0.06344
-0.04392,0.0366,-0.02928,-0.00732,0.01464,-0.02928,-0.00976,-0.00976,-0.0732,-0.04392,-0.05368,-0.05856
-0.03416,0.03172,-0.02928,-0.0122,0.00488,-0.01952,-0.01464,-0.01952,-0.06344,-0.03904,-0.05856,-0.06344
-0.03904,0.0366,-0.03416,-0.01464,0.00488,-0.02196,-0.01952,-0.01952,-0.05856,-0.03904,-0.06344,-0.06832
-0.03904,0.05124,-0.06344,-0.04392,-0.0244,-0.00732,-0.00976,0,-0.05368,-0.01952,-0.0488,-0.05368
-0.03416,0.05612,-0.07808,-0.061,-0.04392,0.00488,0.00488,0,-0.03904,-0.01952,-0.0488,-0.04392
-0.03904,0.05856,-0.07808,-0.05856,-0.03904,0,-0.01464,-0.00976,-0.0488,-0.03416,-0.05368,-0.05368
-0.0488,0.05368,-0.05856,-0.03416,-0.00976,-0.01952,-0.01464,-0.00976,-0.05368,-0.04392,-0.05368,-0.05368
-0.04392,0.05856,-0.0732,-0.05124,-0.02928,-0.00732,-0.00976,-0.01464,-0.05856,-0.04392,-0.06344,-0.05368
-0.03904,0.0488,-0.05856,-0.03904,-0.01952,-0.00976,-0.00976,-0.01952,-0.05856,-0.04392,-0.06344,-0.05856
-0.04392,0.05612,-0.06832,-0.04636,-0.0244,-0.00976,-0.00976,-0.01952,-0.05856,-0.04392,-0.06344,-0.06344
-0.04392,0.05612,-0.06832,-0.04636,-0.0244,-0.00976,-0.00488,-0.01952,-0.06344,-0.04392,-0.06344,-0.05856
-0.05856,0.06344,-0.06832,-0.03904,-0.00976,-0.0244,-0.00488,-0.01952,-0.06344,-0.04392,-0.0732,-0.05368
-0.05856,0.061,-0.06344,-0.03416,-0.00488,-0.02684,-0.00976,-0.01952,-0.05856,-0.04392,-0.0732,-0.06344
-0.0488,0.061,-0.0732,-0.0488,-0.0244,-0.0122,-0.00488,-0.01464,-0.05856,-0.04392,-0.06832,-0.05856
-0.04392,0.06344,-0.08296,-0.061,-0.03904,-0.00244,-0.00488,-0.00488,-0.0488,-0.02928,-0.05856,-0.0488
-0.03416,0.05368,-0.0732,-0.05612,-0.03904,0.00244,-0.00488,-0.01952,-0.05368,-0.02928,-0.05856,-0.0488
-0.04392,0.05368,-0.06344,-0.04148,-0.01952,-0.0122,-0.00488,-0.02928,-0.06344,-0.0488,-0.0732,-0.06344
-0.0244,0.03904,-0.05368,-0.04148,-0.02928,0.00244,-0.01464,-0.01952,-0.05856,-0.05368,-0.06344,-0.06832
-0.04392,0.05856,-0.0732,-0.05124,-0.02928,-0.00732,-0.01464,-0.00976,-0.05856,-0.0488,-0.05856,-0.06832
-0.05368,0.05856,-0.06344,-0.0366,-0.00976,-0.02196,-0.00488,-0.00976,-0.05368,-0.03904,-0.06344,-0.05856
-0.0732,0.061,-0.0488,-0.0122,0.0244,-0.0488,0,-0.00976,-0.04392,-0.03904,-0.05856,-0.05856
-0.06344,0.061,-0.05856,-0.02684,0.00488,-0.03416,0.01464,-0.00488,-0.03904,-0.03904,-0.05368,-0.0488
-0.0488,0.0488,-0.0488,-0.0244,0,-0.0244,0.00488,0,-0.03904,-0.02928,-0.04392,-0.0488
-0.0488,0.06588,-0.08296,-0.05856,-0.03416,-0.00732,-0.00488,-0.00976,-0.03904,-0.04392,-0.0488,-0.05368
-0.03904,0.0488,-0.05856,-0.03904,-0.01952,-0.00976,-0.00976,-0.00976,-0.03904,-0.03904,-0.05368,-0.05856
-0.04392,0.04392,-0.04392,-0.02196,0,-0.02196,-0.00976,-0.01952,-0.05368,-0.03416,-0.05856,-0.06344
-0.0488,0.04392,-0.03904,-0.01464,0.00976,-0.02928,-0.00976,-0.01952,-0.0488,-0.0488,-0.06832,-0.06832
-0.0488,0.04392,-0.03904,-0.01464,0.00976,-0.02928,-0.00976,-0.01952,-0.0488,-0.0488,-0.06832,-0.06832
-0.0488,0.0488,-0.0488,-0.0244,0,-0.0244,0,-0.00976,-0.03904,-0.03904,-0.05856,-0.06344
-0.0488,0.05856,-0.06832,-0.04392,-0.01952,-0.01464,0,-0.00976,-0.03904,-0.03904,-0.05856,-0.05368
-0.05856,0.06344,-0.06832,-0.03904,-0.00976,-0.0244,-0.00976,-0.01952,-0.0488,-0.0488,-0.06832,-0.05856
-0.05856,0.06344,-0.06832,-0.03904,-0.00976,-0.0244,-0.00976,-0.01952,-0.0488,-0.0488,-0.06832,-0.05856
-0.0488,0.05856,-0.06832,-0.04392,-0.01952,-0.01464,-0.00976,-0.00976,-0.03904,-0.03904,-0.05856,-0.05368
-0.0488,0.05856,-0.06832,-0.04392,-0.01952,-0.01464,-0.00976,-0.00976,-0.03904,-0.03904,-0.05856,-0.04392
-0.03904,0.05368,-0.06832,-0.0488,-0.02928,-0.00488,0,-0.00976,-0.03904,-0.02928,-0.0488,-0.02928
-0.03904,0.05368,-0.06832,-0.0488,-0.02928,-0.00488,0,-0.00976,-0.03904,-0.02928,-0.0488,-0.02928
-0.03904,0.0488,-0.05856,-0.03904,-0.01952,-0.00976,-0.00976,-0.01464,-0.0488,-0.04392,-0.05368,-0.03416
-0.03904,0.0488,-0.05856,-0.03904,-0.01952,-0.00976,-0.00976,-0.0244,-0.0488,-0.05368,-0.06344,-0.04392
-0.05368,0.05856,-0.06344,-0.0366,-0.00976,-0.02196,0,-0.0244,-0.03904,-0.05368,-0.05856,-0.0488
-0.08296,0.07808,-0.0732,-0.03172,0.00976,-0.04636,0,-0.01464,-0.03904,-0.04392,-0.05856,-0.0488
-0.0732,0.06832,-0.06344,-0.02684,0.00976,-0.04148,0,-0.00976,-0.02928,-0.03904,-0.0488,-0.03904
-0.04392,0.0488,-0.05368,-0.03172,-0.00976,-0.01708,0,-0.00976,-0.02928,-0.03904,-0.0488,-0.03904
-0.03904,0.04392,-0.0488,-0.02928,-0.00976,-0.01464,0,-0.00976,-0.02928,-0.03904,-0.0488,-0.02928
-0.03904,0.04392,-0.0488,-0.02928,-0.00976,-0.01464,0,-0.00976,-0.02928,-0.03904,-0.0488,-0.02928
-0.05368,0.05856,-0.06344,-0.0366,-0.00976,-0.02196,0.00976,-0.01952,-0.03904,-0.0488,-0.05856,-0.02928
-0.06344,0.06832,-0.0732,-0.04148,-0.00976,-0.02684,0.00976,-0.01952,-0.03904,-0.0488,-0.05856,-0.02928
-0.05368,0.06344,-0.0732,-0.04636,-0.01952,-0.01708,0.00488,-0.01952,-0.03904,-0.03904,-0.0488,-0.03904
-0.04392,0.05368,-0.06344,-0.04148,-0.01952,-0.0122,-0.00488,-0.01952,-0.03904,-0.03904,-0.0488,-0.03904
-0.03904,0.0488,-0.05856,-0.03904,-0.01952,-0.00976,-0.00976,-0.01952,-0.02928,-0.0488,-0.0488,-0.02928
-0.03904,0.0488,-0.05856,-0.03904,-0.01952,-0.00976,-0.00976,-0.01952,-0.02928,-0.0488,-0.0488,-0.02928
-0.04392,0.0488,-0.05368,-0.03172,-0.00976,-0.01708,-0.01952,-0.0244,-0.03416,-0.04392,-0.05368,-0.03416
-0.04392,0.0488,-0.05368,-0.03172,-0.00976,-0.01708,-0.00976,-0.00976,-0.0244,-0.03904,-0.0488,-0.02928
-0.0244,0.03416,-0.04392,-0.03172,-0.01952,-0.00244,0.00488,0.00488,-0.01464,-0.02928,-0.03904,-0.01952
-0.00488,0.01464,-0.0244,-0.02196,-0.01952,0.00732,0.00488,0.01952,0.00976,-0.01464,-0.0244,-0.01464
0.00976,0.00244,-0.01464,-0.01952,-0.0244,0.01708,0.01464,0.03416,0.00976,-0.00976,-0.02928,-0.01464
0,0.00732,-0.01464,-0.01464,-0.01464,0.00732,0.01952,0.0244,0.00976,-0.00976,-0.0244,-0.00976
0,0.00732,-0.01464,-0.01464,-0.01464,0.00732,0.01952,0.02928,0.01464,-0.00976,-0.01464,-0.01464
0.01952,-0.00244,-0.01464,-0.0244,-0.03416,0.02684,0.01952,0.02928,0.0244,-0.00976,-0.01464,-0.00488
0.03416,-0.0122,-0.00976,-0.02684,-0.04392,0.03904,0.00976,0.03416,0.0244,0.00488,-0.0244,0
0.05856,-0.02196,-0.01464,-0.04392,-0.0732,0.06588,0,0.04392,0.03904,0.00488,-0.00976,0.00976
0.06832,-0.01952,-0.02928,-0.06344,-0.0976,0.08296,0.00488,0.05368,0.05856,0.01464,-0.00488,0.01952
0.07808,-0.01708,-0.04392,-0.08296,-0.122,0.10004,0.01952,0.06344,0.0488,0.01952,0.00488,0.01464
0.06832,-0.01464,-0.03904,-0.0732,-0.10736,0.08784,0.00488,0.05368,0.05368,0.02928,0.01952,0.01952
0.06832,-0.0122,-0.04392,-0.07808,-0.11224,0.09028,0,0.0488,0.05368,0.02928,0.00488,0.0244
0.06344,-0.01464,-0.03416,-0.06588,-0.0976,0.08052,-0.00488,0.02928,0.03904,0.01464,0.01464,0.01952
0.06832,-0.02928,-0.00976,-0.04392,-0.07808,0.0732,-0.01952,0.0244,0.03416,0.00976,0.01464,0.0244
0.0732,-0.0366,0,-0.0366,-0.0732,0.0732,-0.0488,0.00976,0.0244,0,-0.00976,0.00488
0.05368,-0.00976,-0.03416,-0.061,-0.08784,0.07076,-0.0488,0.00488,0.01952,-0.00488,-0.01464,0.01464
0.0488,0.00244,-0.05368,-0.07808,-0.10248,0.07564,-0.05368,-0.00488,-0.00976,-0.01464,-0.01952,0.00976
0.03416,0.01708,-0.06832,-0.0854,-0.10248,0.06832,-0.05368,-0.01464,-0.00976,-0.01952,-0.02928,0.00488
0.01952,0.02928,-0.07808,-0.08784,-0.0976,0.05856,-0.04392,-0.02928,-0.00976,-0.0244,-0.03416,0.01464
0,0.04148,-0.08296,-0.08296,-0.08296,0.04148,-0.03904,-0.01952,-0.01464,-0.02928,-0.03416,0.00976
-0.00976,0.03904,-0.06832,-0.06344,-0.05856,0.0244,-0.03416,-0.01952,-0.0244,-0.03904,-0.0488,-0.00488
-0.00488,0.03904,-0.0732,-0.07076,-0.06832,0.03172,-0.03416,-0.0244,-0.02928,-0.0488,-0.05368,-0.01464
-0.01464,0.0488,-0.08296,-0.07564,-0.06832,0.02684,-0.02928,-0.03416,-0.03416,-0.05368,-0.0488,-0.00976
-0.0244,0.0488,-0.0732,-0.061,-0.0488,0.0122,-0.02928,-0.02928,-0.0244,-0.04392,-0.0488,-0.00488
-0.02928,0.05368,-0.07808,-0.06344,-0.0488,0.00976,-0.0244,-0.0244,-0.02928,-0.04392,-0.05856,0
-0.03416,0.05124,-0.06832,-0.05124,-0.03416,0,-0.0244,-0.02928,-0.03416,-0.05368,-0.05856,-0.00976
-0.05368,0.06344,-0.0732,-0.04636,-0.01952,-0.01708,-0.01464,-0.03904,-0.04392,-0.06344,-0.06344,-0.01952
-0.05368,0.06344,-0.0732,-0.04636,-0.01952,-0.01708,-0.01464,-0.03904,-0.04392,-0.06344,-0.06344,-0.0244
-0.03904,0.05368,-0.06832,-0.0488,-0.02928,-0.00488,-0.01464,-0.03904,-0.03416,-0.05856,-0.06344,-0.01952
-0.0488,0.05856,-0.06832,-0.04392,-0.01952,-0.01464,-0.00488,-0.03416,-0.02928,-0.05368,-0.06344,-0.01464
-0.05856,0.06344,-0.06832,-0.03904,-0.00976,-0.0244,-0.00976,-0.0244,-0.02928,-0.05856,-0.0488,-0.01952
-0.05856,0.06588,-0.0732,-0.04392,-0.01464,-0.02196,-0.01952,-0.0244,-0.02928,-0.05856,-0.0488,-0.01952
-0.06832,0.06344,-0.05856,-0.0244,0.00976,-0.03904,-0.01464,-0.02928,-0.02928,-0.05368,-0.05368,-0.00976
-0.06832,0.06588,-0.06344,-0.02928,0.00488,-0.0366,-0.01464,-0.03904,-0.03416,-0.05368,-0.05368,-0.00976
-0.05856,0.05612,-0.05368,-0.0244,0.00488,-0.03172,-0.00976,-0.01952,-0.00976,-0.0488,-0.04392,-0.00976
-0.07808,0.06588,-0.05368,-0.01464,0.0244,-0.05124,0.00488,0.00976,0.00488,-0.02928,-0.04392,-0.01952
-0.10248,0.07808,-0.05368,-0.00244,0.0488,-0.07564,0.02928,0.03904,0.02928,-0.00976,-0.03416,-0.01952
-0.0976,0.08052,-0.06344,-0.01464,0.03416,-0.06588,0.05368,0.04392,0.05368,0.02928,0.00488,0.00976
0.03416,-0.0244,0.01464,-0.00244,-0.01952,0.02684,0.05856,0.17568,0.20984,0.13664,0.08296,0.06832
0.22448,-0.13664,0.0488,-0.06344,-0.17568,0.20008,0.11712,0.40016,0.46848,0.32208,0.244,0.18056
0.49288,-0.27816,0.06344,-0.183,-0.42944,0.46116,0.08784,0.47824,0.59536,0.44408,0.38064,0.2928
0.72224,-0.38308,0.04392,-0.3172,-0.67832,0.70028,0.10736,0.54168,0.68808,0.52216,0.48312,0.40016
0.89792,-0.4514,0.00488,-0.44408,-0.89304,0.89548,0.01952,0.40992,0.64416,0.53192,0.55144,0.47336
0.9516,-0.50508,0.05856,-0.41724,-0.89304,0.92232,-0.14152,0.03416,0.40992,0.44408,0.54168,0.51728
0.7564,-0.43676,0.11712,-0.26108,-0.63928,0.69784,-0.23424,-0.42944,-0.11224,0.0488,0.244,0.34648
0.16592,-0.13176,0.0976,0.01464,-0.06832,0.11712,-0.244,-0.85888,-0.70272,-0.38064,-0.15128,0.0976
-0.17568,0.0488,0.07808,0.16592,0.25376,-0.21472,-0.40992,-1.18096,-1.03944,-0.64416,-0.35624,-0.0488
-0.26352,0.10492,0.05368,0.18544,0.3172,-0.29036,-0.72224,-1.39568,-1.14192,-0.69296,-0.37088,-0.04392
-0.1708,0.02928,0.11224,0.19764,0.28304,-0.22692,-0.86376,-1.36152,-1.03456,-0.57096,-0.24888,0.05368
-0.03904,-0.09272,0.22448,0.244,0.26352,-0.15128,-0.8296,-1.19072,-0.854,-0.4392,-0.15128,0.12688
0.05368,-0.12688,0.20008,0.17324,0.1464,-0.04636,-0.70272,-0.93696,-0.6588,-0.34648,-0.09272,0.15128
0.05368,-0.0854,0.11712,0.09028,0.06344,-0.00488,-0.53192,-0.70272,-0.49288,-0.30256,-0.0976,0.0976
0.0244,-0.01708,0.00976,-0.00244,-0.01464,0.01952,-0.37088,-0.51728,-0.38552,-0.28304,-0.10736,0.06344
0.01464,0.03416,-0.08296,-0.09028,-0.0976,0.05612,-0.27816,-0.37576,-0.31232,-0.24888,-0.10736,0.04392
-0.01464,0.0366,-0.05856,-0.05124,-0.04392,0.01464,-0.22936,-0.2928,-0.25376,-0.2196,-0.11712,0.00976
-0.01952,0.0244,-0.02928,-0.01952,-0.00976,-0.00488,-0.122,-0.16104,-0.14152,-0.16592,-0.08296,0.01952
-0.06344,0.04636,-0.02928,0.00244,0.03416,-0.0488,-0.07808,-0.12688,-0.0976,-0.11712,-0.06832,0.02928
-0.06344,0.05368,-0.04392,-0.0122,0.01952,-0.04148,-0.06344,-0.12688,-0.0976,-0.11224,-0.05856,0.02928
-0.03904,0.03904,-0.03904,-0.01952,0,-0.01952,-0.05368,-0.07808,-0.06832,-0.09272,-0.05368,0.00976
-0.03904,0.04392,-0.0488,-0.02928,-0.00976,-0.01464,-0.00976,-0.01464,-0.01952,-0.07808,-0.05856,0.01464
-0.04392,0.0488,-0.05368,-0.03172,-0.00976,-0.01708,0.00488,0.00976,0.00488,-0.05368,-0.0488,0.00488
-0.05368,0.06344,-0.0732,-0.04636,-0.01952,-0.01708,0.01464,0.01952,0.01952,-0.03416,-0.03904,0.00976
-0.06344,0.06832,-0.0732,-0.04148,-0.00976,-0.02684,0.01464,0.01464,0.01464,-0.03904,-0.03904,0.01464
-0.0732,0.06344,-0.05368,-0.01708,0.01952,-0.04636,0.0244,0.03904,0.02928,-0.03904,-0.04392,0.00488
-0.0732,0.06344,-0.05368,-0.01708,0.01952,-0.04636,0.02928,0.05368,0.0244,-0.02928,-0.03416,-0.00488
-0.05856,0.06588,-0.0732,-0.04392,-0.01464,-0.02196,0.04392,0.05856,0.03904,-0.01952,-0.0244,0
-0.06832,0.07564,-0.08296,-0.0488,-0.01464,-0.02684,0.02928,0.0488,0.0244,-0.0244,-0.02928,0
-0.08784,0.08296,-0.07808,-0.03416,0.00976,-0.0488,0.02928,0.03904,0.01952,-0.03904,-0.04392,-0.00488
-0.07808,0.0732,-0.06832,-0.02928,0.00976,-0.04392,0.05368,0.06832,0.04392,-0.02928,-0.03904,0.01464
-0.05856,0.061,-0.06344,-0.03416,-0.00488,-0.02684,0.0488,0.07808,0.05368,-0.01952,-0.02928,0.00976
-0.05368,0.06588,-0.07808,-0.05124,-0.0244,-0.01464,0.06344,0.0732,0.0488,-0.00976,-0.02928,0.01464
-0.06344,0.07808,-0.09272,-0.061,-0.02928,-0.01708,0.05856,0.07808,0.0488,-0.00976,-0.02928,0.01464
-0.06832,0.07076,-0.0732,-0.03904,-0.00488,-0.03172,0.05368,0.0732,0.0488,-0.00976,-0.03416,0.00976
-0.06344,0.05856,-0.05368,-0.02196,0.00976,-0.0366,0.0488,0.06832,0.04392,-0.01952,-0.03904,0
-0.06344,0.05124,-0.03904,-0.00732,0.0244,-0.04392,0.0488,0.0732,0.04392,-0.00976,-0.03904,0
-0.05368,0.05124,-0.0488,-0.02196,0.00488,-0.02928,0.05856,0.0732,0.05856,-0.00976,-0.02928,0.00488
-0.05856,0.05856,-0.05856,-0.02928,0,-0.02928,0.06344,0.09272,0.07808,-0.00488,-0.01464,0.00488
-0.06344,0.06588,-0.06832,-0.0366,-0.00488,-0.02928,0.06344,0.09272,0.08784,0.00488,-0.00488,0.01952
-0.0488,0.05856,-0.06832,-0.04392,-0.01952,-0.01464,0.05368,0.0976,0.08784,-0.00488,-0.01464,0.02928
-0.04392,0.05124,-0.05856,-0.0366,-0.01464,-0.01464,0.05368,0.08784,0.07808,-0.00488,-0.01464,0.01464
-0.0488,0.05368,-0.05856,-0.03416,-0.00976,-0.01952,0.06344,0.08296,0.07808,0,-0.00976,0.01464
-0.05856,0.05368,-0.0488,-0.01952,0.00976,-0.03416,0.05856,0.08784,0.08296,0.00976,-0.00976,0.01952
-0.03904,0.03904,-0.03904,-0.01952,0,-0.01952,0.06344,0.08784,0.09272,0.01464,-0.00976,0.02928
-0.04392,0.05612,-0.06832,-0.04636,-0.0244,-0.00976,0.06832,0.10248,0.10248,0.01464,-0.00488,0.02928
-0.0488,0.05124,-0.05368,-0.02928,-0.00488,-0.02196,0.06832,0.11712,0.10736,0.01952,-0.00488,0.03904
-0.0488,0.04148,-0.03416,-0.00976,0.01464,-0.03172,0.05856,0.122,0.11224,0.01952,-0.00976,0.03904
-0.04392,0.04148,-0.03904,-0.01708,0.00488,-0.0244,0.0732,0.12688,0.122,0.04392,0.00976,0.05856
-0.0244,0.02684,-0.02928,-0.01708,-0.00488,-0.00976,0.06344,0.13176,0.12688,0.04392,0.01464,0.05368
-0.02928,0.0244,-0.01952,-0.00488,0.00976,-0.01952,0.05368,0.13664,0.12688,0.0488,0.00976,0.0488
-0.03904,0.02928,-0.01952,0,0.01952,-0.02928,0.05368,0.13664,0.13664,0.0488,0.00976,0.05368
-0.02928,0.02196,-0.01464,0,0.01464,-0.02196,0.06832,0.1464,0.1464,0.06344,0.02928,0.06344
-0.02928,0.01708,-0.00488,0.00976,0.0244,-0.02684,0.06344,0.1464,0.15128,0.06832,0.03416,0.06344
-0.01464,0.00488,0.00488,0.0122,0.01952,-0.01708,0.06344,0.16104,0.16104,0.07808,0.03416,0.06344
0,-0.00976,0.01952,0.01952,0.01952,-0.00976,0.06344,0.16592,0.1708,0.08784,0.03904,0.07808
-0.00488,-0.0122,0.02928,0.03172,0.03416,-0.01952,0.0732,0.16592,0.16592,0.08784,0.04392,0.07808
-0.00488,-0.0122,0.02928,0.03172,0.03416,-0.01952,0.0732,0.17568,0.18544,0.10248,0.05856,0.09272
0.00976,-0.02928,0.0488,0.04392,0.03904,-0.01464,0.06344,0.1708,0.20496,0.12688,0.0732,0.09272
0.00976,-0.04148,0.0732,0.06832,0.06344,-0.02684,0.06344,0.1708,0.20496,0.13176,0.07808,0.10248
0.00976,-0.04392,0.07808,0.0732,0.06832,-0.02928,0.05856,0.18544,0.1952,0.13176,0.06344,0.0976
0.00488,-0.04636,0.08784,0.0854,0.08296,-0.03904,0.06344,0.18056,0.20008,0.13664,0.0732,0.10736
0.00488,-0.05124,0.0976,0.09516,0.09272,-0.04392,0.0732,0.1952,0.2196,0.15128,0.0976,0.11712
0.00488,-0.05124,0.0976,0.09516,0.09272,-0.04392,0.06832,0.19032,0.2196,0.15128,0.0976,0.11224
0.00488,-0.05612,0.10736,0.10492,0.10248,-0.0488,0.06344,0.18056,0.20984,0.1464,0.0976,0.11712
0.01464,-0.06832,0.122,0.11468,0.10736,-0.04636,0.05856,0.1708,0.20496,0.15128,0.0976,0.11712
0,-0.05612,0.11224,0.11224,0.11224,-0.05612,0.05368,0.16104,0.19032,0.13664,0.09272,0.122
-0.01464,-0.05124,0.11712,0.12444,0.13176,-0.0732,0.03904,0.14152,0.17568,0.13176,0.0976,0.122
-0.01464,-0.05612,0.12688,0.1342,0.14152,-0.07808,0.0488,0.12688,0.18056,0.13176,0.09272,0.12688
-0.01464,-0.05124,0.11712,0.12444,0.13176,-0.0732,0.05856,0.13176,0.1708,0.13176,0.08784,0.122
0,-0.061,0.122,0.122,0.122,-0.061,0.0488,0.12688,0.15616,0.12688,0.08296,0.122
0.00976,-0.06832,0.12688,0.122,0.11712,-0.05368,0.05368,0.122,0.15616,0.122,0.08784,0.122
-0.00488,-0.06588,0.13664,0.13908,0.14152,-0.0732,0.03416,0.08784,0.14152,0.11224,0.08296,0.122
-0.00976,-0.05368,0.11712,0.122,0.12688,-0.06832,0.03416,0.08784,0.13176,0.10736,0.07808,0.122
-0.01464,-0.05368,0.122,0.12932,0.13664,-0.07564,0.02928,0.06832,0.11712,0.0976,0.07808,0.12688
-0.0244,-0.04392,0.11224,0.12444,0.13664,-0.08052,0.01464,0.05368,0.0976,0.07808,0.06344,0.11712
-0.00976,-0.05124,0.11224,0.11712,0.122,-0.06588,0.00488,0.05856,0.09272,0.08296,0.06344,0.12688
0,-0.04636,0.09272,0.09272,0.09272,-0.04636,0.00976,0.03416,0.08784,0.06832,0.05856,0.11224
-0.00976,-0.03416,0.07808,0.08296,0.08784,-0.0488,0.00976,0.03904,0.08296,0.06344,0.05856,0.11712
-0.00488,-0.03416,0.0732,0.07564,0.07808,-0.04148,0.00976,0.0244,0.07808,0.05856,0.0488,0.10736
0,-0.0366,0.0732,0.0732,0.0732,-0.0366,0,0.0244,0.07808,0.0488,0.04392,0.0976
-0.00488,-0.02684,0.05856,0.061,0.06344,-0.03416,0,0.0244,0.06832,0.03904,0.03904,0.09272
-0.00976,-0.01464,0.03904,0.04392,0.0488,-0.02928,0,0.0244,0.06832,0.02928,0.03904,0.0976
-0.01952,-0.00244,0.0244,0.03416,0.04392,-0.03172,0,0.0244,0.05856,0.01952,0.02928,0.08784
-0.0244,0.00976,0.00488,0.01708,0.02928,-0.02684,-0.00488,0.01464,0.04392,0.01952,0.01464,0.0732
-0.0244,0.00976,0.00488,0.01708,0.02928,-0.02684,-0.00488,0.01464,0.03416,0.00976,0.01464,0.06344
-0.02928,0.01952,-0.00976,0.00488,0.01952,-0.0244,0,0.01464,0.03416,0.00976,0.01464,0.05368
-0.02928,0.02928,-0.02928,-0.01464,0,-0.01464,0.00976,0.00976,0.03416,0.00488,0.00488,0.05856
-0.03416,0.04148,-0.0488,-0.03172,-0.01464,-0.00976,0.01464,0.00488,0.02928,-0.00976,-0.00488,0.05368
-0.03416,0.03172,-0.02928,-0.0122,0.00488,-0.01952,0.00488,0,0.01952,-0.02928,-0.01464,0.04392
-0.0488,0.04148,-0.03416,-0.00976,0.01464,-0.03172,0.00488,0,0.01464,-0.0244,-0.01952,0.04392
-0.05368,0.05368,-0.05368,-0.02684,0,-0.02684,0.00488,0.00488,0.00976,-0.02928,-0.02928,0.04392
