i,aVR,ii,aVF,iii,aVL,V1,V2,V3,V4,V5,V6
-0.03416,0.03904,-0.04392,-0.02684,-0.00976,-0.0122,-0.0244,-0.03416,-0.03416,-0.01952,-0.00488,-0.0244
-0.0244,0.03416,-0.04392,-0.03172,-0.01952,-0.00244,-0.0244,-0.02928,-0.03904,-0.01952,-0.00976,-0.01464
-0.0244,0.03172,-0.03904,-0.02684,-0.01464,-0.00488,-0.0244,-0.02928,-0.03904,-0.01952,-0.00976,-0.01464
-0.0244,0.02684,-0.02928,-0.01708,-0.00488,-0.00976,-0.0244,-0.0244,-0.02928,-0.01952,-0.00976,-0.01952
-0.0244,0.03172,-0.03904,-0.02684,-0.01464,-0.00488,0.00488,0.00488,-0.01952,-0.00976,-0.01464,-0.0244
-0.03904,0.04636,-0.05368,-0.03416,-0.01464,-0.0122,0.04392,0.05856,0.00488,-0.0244,-0.0488,-0.05856
-0.05368,0.06344,-0.0732,-0.04636,-0.01952,-0.01708,0.11224,0.1464,0.03904,-0.0488,-0.08296,-0.09272
-0.06344,0.07808,-0.09272,-0.061,-0.02928,-0.01708,0.18056,0.244,0.06832,-0.06344,-0.122,-0.13176
-0.05368,0.06588,-0.07808,-0.05124,-0.0244,-0.01464,0.21472,0.31232,0.122,-0.03416,-0.10248,-0.11712
-0.00976,0.00732,-0.00488,0,0.00488,-0.00732,0.19032,0.3416,0.1952,0.0732,-0.01952,-0.05368
0.07808,-0.11468,0.15128,0.11224,0.0732,0.00244,0.10736,0.33672,0.31232,0.2928,0.16592,0.09272
0.18544,-0.27084,0.35624,0.26352,0.1708,0.00732,-0.03904,0.22448,0.43432,0.56608,0.4392,0.3172
0.29768,-0.4392,0.58072,0.43188,0.28304,0.00732,-0.244,-0.04392,0.488,0.86864,0.72712,0.56608
0.37088,-0.58072,0.79056,0.60512,0.41968,-0.0244,-0.47336,-0.40992,0.4636,1.12728,0.99552,0.79544
0.38552,-0.67588,0.96624,0.77348,0.58072,-0.0976,-0.67832,-0.77592,0.3904,1.3176,1.1956,0.976
0.33672,-0.671,1.00528,0.83692,0.66856,-0.16592,-0.79544,-1.0004,0.28792,1.30784,1.22976,1.0248
0.24888,-0.55388,0.85888,0.73444,0.61,-0.18056,-0.78568,-1.05408,0.11224,1.04432,1.05408,0.90768
0.14152,-0.35868,0.57584,0.50508,0.43432,-0.1464,-0.71736,-0.98576,-0.11712,0.62464,0.72224,0.67344
0.0732,-0.16592,0.25864,0.22204,0.18544,-0.05612,-0.60512,-0.84912,-0.31232,0.17568,0.35136,0.38064
0.01464,-0.00976,0.00488,-0.00244,-0.00976,0.0122,-0.49288,-0.67832,-0.42944,-0.11224,0.06832,0.14152
-0.00976,0.06344,-0.11712,-0.11224,-0.10736,0.0488,-0.37088,-0.47336,-0.3904,-0.19032,-0.05856,0.00488
-0.0244,0.0854,-0.1464,-0.1342,-0.122,0.0488,-0.23912,-0.27816,-0.27328,-0.1708,-0.08784,-0.05368
-0.0244,0.07564,-0.12688,-0.11468,-0.10248,0.03904,-0.13176,-0.13176,-0.15616,-0.122,-0.07808,-0.06344
-0.0244,0.06588,-0.10736,-0.09516,-0.08296,0.02928,-0.06344,-0.04392,-0.08784,-0.07808,-0.05856,-0.05856
-0.0244,0.05612,-0.08784,-0.07564,-0.06344,0.01952,-0.0244,0,-0.0488,-0.0488,-0.05368,-0.05368
-0.03416,0.05612,-0.07808,-0.061,-0.04392,0.00488,0.00488,0.01464,-0.02928,-0.04392,-0.04392,-0.0488
-0.03416,0.05612,-0.07808,-0.061,-0.04392,0.00488,0.00488,0.0244,-0.0244,-0.04392,-0.04392,-0.04392
-0.02928,0.0488,-0.06832,-0.05368,-0.03904,0.00488,0.00976,0.03416,-0.00976,-0.04392,-0.05368,-0.04392
-0.02928,0.0488,-0.06832,-0.05368,-0.03904,0.00488,0.01464,0.03416,-0.00976,-0.04392,-0.05368,-0.0488
-0.02928,0.04636,-0.06344,-0.0488,-0.03416,0.00244,0.01952,0.03904,-0.00488,-0.04392,-0.05368,-0.0488
-0.02928,0.04636,-0.06344,-0.0488,-0.03416,0.00244,0.01952,0.03904,-0.00488,-0.03904,-0.05368,-0.0488
-0.03416,0.05368,-0.0732,-0.05612,-0.03904,0.00244,0.02928,0.04392,0,-0.03904,-0.05856,-0.05856
-0.03416,0.05124,-0.06832,-0.05124,-0.03416,0,0.02928,0.0488,0.00488,-0.03904,-0.05368,-0.05856
-0.03904,0.05368,-0.06832,-0.0488,-0.02928,-0.00488,0.03904,0.05368,0.00976,-0.03904,-0.0488,-0.0488
-0.03416,0.05124,-0.06832,-0.05124,-0.03416,0,0.04392,0.05856,0.00976,-0.03904,-0.0488,-0.0488
-0.02928,0.04392,-0.05856,-0.04392,-0.02928,0,0.04392,0.06344,0.00976,-0.03416,-0.0488,-0.0488
-0.02928,0.04392,-0.05856,-0.04392,-0.02928,0,0.0488,0.06832,0.01464,-0.03416,-0.04392,-0.0488
-0.02928,0.04392,-0.05856,-0.04392,-0.02928,0,0.0488,0.06832,0.00488,-0.03416,-0.05368,-0.0488
-0.02928,0.04392,-0.05856,-0.04392,-0.02928,0,0.0488,0.06832,0.00976,-0.03416,-0.05368,-0.0488
-0.02928,0.04392,-0.05856,-0.04392,-0.02928,0,0.0488,0.06832,0.00976,-0.04392,-0.05856,-0.05856
-0.0244,0.04148,-0.05856,-0.04636,-0.03416,0.00488,0.0488,0.06832,0.00976,-0.03904,-0.05856,-0.05856
-0.0244,0.04148,-0.05856,-0.04636,-0.03416,0.00488,0.0488,0.06832,0.01952,-0.03904,-0.05856,-0.05856
-0.0244,0.04148,-0.05856,-0.04636,-0.03416,0.00488,0.0488,0.06832,0.01952,-0.04392,-0.05856,-0.06344
-0.01952,0.03904,-0.05856,-0.0488,-0.03904,0.00976,0.03904,0.06832,0.00976,-0.04392,-0.05856,-0.06344
-0.01952,0.03904,-0.05856,-0.0488,-0.03904,0.00976,0.03904,0.0732,0.01464,-0.04392,-0.05856,-0.06344
-0.01952,0.03904,-0.05856,-0.0488,-0.03904,0.00976,0.04392,0.0732,0.01464,-0.04392,-0.05856,-0.06344
-0.01952,0.03904,-0.05856,-0.0488,-0.03904,0.00976,0.04392,0.07808,0.01464,-0.04392,-0.05856,-0.06344
-0.02928,0.04636,-0.06344,-0.0488,-0.03416,0.00244,0.04392,0.06832,0.0244,-0.04392,-0.05856,-0.05368
-0.02928,0.04636,-0.06344,-0.0488,-0.03416,0.00244,0.04392,0.0732,0.02928,-0.03904,-0.05856,-0.05368
-0.02928,0.04636,-0.06344,-0.0488,-0.03416,0.00244,0.04392,0.07808,0.02928,-0.03904,-0.05856,-0.06344
-0.02928,0.0488,-0.06832,-0.05368,-0.03904,0.00488,0.04392,0.07808,0.02928,-0.03904,-0.06344,-0.06344
-0.01952,0.04392,-0.06832,-0.05856,-0.0488,0.01464,0.03904,0.07808,0.02928,-0.03904,-0.06344,-0.06344
-0.01952,0.04392,-0.06832,-0.05856,-0.0488,0.01464,0.03904,0.08296,0.03416,-0.04392,-0.06344,-0.06832
-0.01464,0.0366,-0.05856,-0.05124,-0.04392,0.01464,0.03904,0.09272,0.04392,-0.03416,-0.06344,-0.06832
-0.01464,0.0366,-0.05856,-0.05124,-0.04392,0.01464,0.03904,0.09272,0.04392,-0.03416,-0.06832,-0.06832
-0.01464,0.04148,-0.06832,-0.061,-0.05368,0.01952,0.03416,0.09272,0.0488,-0.02928,-0.06832,-0.06832
-0.01464,0.03904,-0.06344,-0.05612,-0.0488,0.01708,0.03416,0.09272,0.0488,-0.02928,-0.06832,-0.06832
0.00488,0.02928,-0.06344,-0.06588,-0.06832,0.0366,0.02928,0.0976,0.05368,-0.0244,-0.05368,-0.05856
0.00488,0.02928,-0.06344,-0.06588,-0.06832,0.0366,0.0244,0.10248,0.05856,-0.0244,-0.05368,-0.05368
0,0.03172,-0.06344,-0.06344,-0.06344,0.03172,0.03416,0.10736,0.05856,-0.0244,-0.05856,-0.05368
0,0.02928,-0.05856,-0.05856,-0.05856,0.02928,0.01952,0.10736,0.06344,-0.01952,-0.05368,-0.0488
0.00488,0.02684,-0.05856,-0.061,-0.06344,0.03416,0.00488,0.10736,0.0732,-0.00976,-0.0488,-0.05856
0.01464,0.01952,-0.05368,-0.061,-0.06832,0.04148,0,0.11224,0.08296,0,-0.03904,-0.0488
0.01464,0.01952,-0.05368,-0.061,-0.06832,0.04148,-0.00976,0.11712,0.08784,0.00976,-0.03904,-0.04392
0.02928,0.00732,-0.04392,-0.05856,-0.0732,0.05124,-0.01952,0.11712,0.0976,0.01952,-0.03416,-0.04392
0.03904,-0.00244,-0.03416,-0.05368,-0.0732,0.05612,-0.02928,0.122,0.10736,0.01952,-0.01464,-0.02928
0.0488,-0.0122,-0.0244,-0.0488,-0.0732,0.061,-0.04392,0.122,0.11224,0.03416,0,-0.01952
0.05856,-0.02196,-0.01464,-0.04392,-0.0732,0.06588,-0.05368,0.122,0.122,0.0488,0.01464,0
0.06832,-0.03904,0.00976,-0.0244,-0.05856,0.06344,-0.07808,0.122,0.13176,0.06344,0.03416,0.00976
0.08784,-0.05856,0.02928,-0.01464,-0.05856,0.0732,-0.08296,0.122,0.14152,0.07808,0.05368,0.0244
0.0976,-0.0732,0.0488,0,-0.0488,0.0732,-0.0976,0.122,0.15128,0.10248,0.0732,0.0488
0.10736,-0.08784,0.06832,0.01464,-0.03904,0.0732,-0.10736,0.11224,0.15616,0.11712,0.08784,0.06344
0.11712,-0.10004,0.08296,0.0244,-0.03416,0.07564,-0.11712,0.11224,0.1708,0.13664,0.11224,0.07808
0.11712,-0.10492,0.09272,0.03416,-0.0244,0.07076,-0.122,0.11224,0.17568,0.15616,0.12688,0.0976
0.12688,-0.11468,0.10248,0.03904,-0.0244,0.07564,-0.13176,0.11224,0.18544,0.1708,0.1464,0.11224
0.12688,-0.122,0.11712,0.05368,-0.00976,0.06832,-0.14152,0.11224,0.19032,0.18056,0.16592,0.122
0.13664,-0.1342,0.13176,0.06344,-0.00488,0.07076,-0.1464,0.10736,0.19032,0.1952,0.1708,0.13176
0.13664,-0.1342,0.13176,0.06344,-0.00488,0.07076,-0.15616,0.11224,0.18056,0.20008,0.18544,0.13664
0.13664,-0.13908,0.14152,0.0732,0.00488,0.06588,-0.15128,0.11224,0.18056,0.20008,0.18544,0.14152
0.13176,-0.13664,0.14152,0.07564,0.00976,0.061,-0.14152,0.11224,0.18544,0.20008,0.17568,0.14152
0.122,-0.13176,0.14152,0.08052,0.01952,0.05124,-0.13176,0.11712,0.18544,0.19032,0.16592,0.13664
0.11224,-0.12688,0.14152,0.0854,0.02928,0.04148,-0.10736,0.10736,0.1708,0.19032,0.16592,0.122
0.10248,-0.11712,0.13176,0.08052,0.02928,0.0366,-0.08784,0.11224,0.16592,0.17568,0.15616,0.11224
0.08296,-0.10248,0.122,0.08052,0.03904,0.02196,-0.07808,0.11224,0.15616,0.15616,0.13176,0.10248
0.06832,-0.09028,0.11224,0.07808,0.04392,0.0122,-0.05856,0.11224,0.1464,0.13664,0.11712,0.08296
0.05856,-0.07564,0.09272,0.06344,0.03416,0.0122,-0.03416,0.10736,0.13176,0.13176,0.0976,0.07808
0.0488,-0.06588,0.08296,0.05856,0.03416,0.00732,-0.0244,0.0976,0.122,0.11712,0.08296,0.06832
0.03904,-0.05368,0.06832,0.0488,0.02928,0.00488,-0.01464,0.09272,0.10248,0.0976,0.06832,0.05856
0.02928,-0.04392,0.05856,0.04392,0.02928,0,0,0.08296,0.09272,0.08296,0.05856,0.04392
0.0244,-0.0366,0.0488,0.0366,0.0244,0,0.00488,0.07808,0.08296,0.06344,0.03416,0.0244
0.01952,-0.02928,0.03904,0.02928,0.01952,0,0.00976,0.06832,0.06344,0.04392,0.0244,0.01464
0.01952,-0.0244,0.02928,0.01952,0.00976,0.00488,0.01464,0.05856,0.05856,0.03904,0.0244,0.00488
0.01464,-0.01708,0.01952,0.0122,0.00488,0.00488,0.01464,0.0488,0.0488,0.0244,0.01464,0
0.00488,-0.00976,0.01464,0.0122,0.00976,-0.00244,0.01464,0.04392,0.03904,0.02928,0.00976,-0.00488
0.00488,-0.00732,0.00976,0.00732,0.00488,0,0.01464,0.04392,0.03904,0.0244,0,-0.00488
0,-0.00244,0.00488,0.00488,0.00488,-0.00244,0.00976,0.02928,0.03416,0.01464,-0.00976,-0.00488
0,-0.00244,0.00488,0.00488,0.00488,-0.00244,0.00976,0.02928,0.0244,0.00488,-0.00976,-0.00976
0.00488,-0.00244,0,-0.00244,-0.00488,0.00488,0.01952,0.03416,0.0244,0.00488,0,-0.00976
0.00488,-0.00244,0,-0.00244,-0.00488,0.00488,0.01952,0.03416,0.0244,0.00488,-0.00488,-0.01464
0,0,0,0,0,0,0.00976,0.0244,0.01464,-0.00488,-0.01464,-0.01464
0,0.00244,-0.00488,-0.00488,-0.00488,0.00244,0.00976,0.0244,0.01464,-0.00488,-0.01464,-0.01464
0,0.00976,-0.01952,-0.01952,-0.01952,0.00976,0.00976,0.02928,0.0244,0,-0.01952,-0.01464
0,0.00976,-0.01952,-0.01952,-0.01952,0.00976,0.00976,0.02928,0.01952,0,-0.01952,-0.01952
0.00488,0.00244,-0.00976,-0.0122,-0.01464,0.00976,0.00976,0.02928,0.01952,-0.00976,-0.01952,-0.02928
0.00488,0.00488,-0.01464,-0.01708,-0.01952,0.0122,0.00976,0.0244,0.01952,-0.01464,-0.01952,-0.02928
0,0,0,0,0,0,0.00976,0.0244,0.01464,-0.01464,-0.0244,-0.02928
0,0,0,0,0,0,0.00976,0.0244,0.01464,-0.01464,-0.0244,-0.02928
0,0,0,0,0,0,0.00976,0.0244,0.01464,-0.01464,-0.0244,-0.02928
0,0,0,0,0,0,0.00976,0.0244,0.01464,-0.01464,-0.01952,-0.02928
0,0,0,0,0,0,0.00976,0.0244,0.01464,-0.00488,-0.01952,-0.02928
0,0,0,0,0,0,0.00976,0.0244,0.01464,0,-0.01952,-0.02928
0,0.00488,-0.00976,-0.00976,-0.00976,0.00488,0.00488,0.0244,0.01464,0,-0.01952,-0.0244
-0.00488,0.00732,-0.00976,-0.00732,-0.00488,0,0.00488,0.0244,0.01952,0,-0.01952,-0.0244
0.00488,0.00732,-0.01952,-0.02196,-0.0244,0.01464,0.00488,0.0244,0.01952,0,-0.01952,-0.01464
0.00488,0.00976,-0.0244,-0.02684,-0.02928,0.01708,0.00488,0.02928,0.01952,0,-0.01952,-0.01464
0.00488,0.00488,-0.01464,-0.01708,-0.01952,0.0122,0.01464,0.03416,0.01952,0,-0.01952,-0.01464
0.00488,0.00732,-0.01952,-0.02196,-0.0244,0.01464,0.01464,0.03416,0.01952,0,-0.01952,-0.01464
-0.00488,0.0122,-0.01952,-0.01708,-0.01464,0.00488,0.00488,0.0244,0.01952,0,-0.01952,-0.0244
0,0.00976,-0.01952,-0.01952,-0.01952,0.00976,0.00488,0.02928,0.01952,0,-0.01952,-0.0244
0,0.00976,-0.01952,-0.01952,-0.01952,0.00976,0.00488,0.02928,0.0244,0.00488,-0.01952,-0.0244
-0.00488,0.0122,-0.01952,-0.01708,-0.01464,0.00488,0.00976,0.03416,0.0244,0.00488,-0.01952,-0.0244
-0.00488,0.0122,-0.01952,-0.01708,-0.01464,0.00488,0.00976,0.03416,0.0244,0.00488,-0.01952,-0.01464
-0.00488,0.00976,-0.01464,-0.0122,-0.00976,0.00244,0.00976,0.03904,0.0244,0.00488,-0.01952,-0.01952
-0.00488,0.00976,-0.01464,-0.0122,-0.00976,0.00244,0.01464,0.03904,0.02928,-0.00488,-0.01952,-0.01952
-0.00488,0.00976,-0.01464,-0.0122,-0.00976,0.00244,0.01464,0.04392,0.02928,-0.00488,-0.01952,-0.01952
-0.00976,0.0122,-0.01464,-0.00976,-0.00488,-0.00244,0.01464,0.04392,0.02928,-0.00488,-0.01952,-0.01952
-0.00976,0.0122,-0.01464,-0.00976,-0.00488,-0.00244,0.01464,0.04392,0.02928,-0.00488,-0.01952,-0.01952
0,0.00732,-0.01464,-0.01464,-0.01464,0.00732,0.01464,0.0488,0.02928,-0.01464,-0.02928,-0.02928
0,0.00732,-0.01464,-0.01464,-0.01464,0.00732,0.01952,0.0488,0.02928,-0.01464,-0.02928,-0.02928
0,0.00732,-0.01464,-0.01464,-0.01464,0.00732,0.01952,0.0488,0.02928,-0.01952,-0.02928,-0.02928
0,0.00732,-0.01464,-0.01464,-0.01464,0.00732,0.01952,0.0488,0.02928,-0.01952,-0.02928,-0.02928
-0.00976,0.0122,-0.01464,-0.00976,-0.00488,-0.00244,0.0244,0.05368,0.03416,-0.00488,-0.0244,-0.02928
-0.00976,0.0122,-0.01464,-0.00976,-0.00488,-0.00244,0.0244,0.05368,0.03416,-0.00488,-0.0244,-0.02928
-0.01464,0.01464,-0.01464,-0.00732,0,-0.00732,0.0244,0.05368,0.03416,-0.00488,-0.0244,-0.02928
-0.01952,0.01708,-0.01464,-0.00488,0.00488,-0.0122,0.0244,0.05856,0.03416,-0.00488,-0.01952,-0.02928
-0.01952,0.02196,-0.0244,-0.01464,-0.00488,-0.00732,0.0244,0.0488,0.0244,-0.00976,-0.02928,-0.02928
-0.01952,0.02196,-0.0244,-0.01464,-0.00488,-0.00732,0.01952,0.0488,0.0244,-0.00976,-0.02928,-0.02928
-0.01464,0.01952,-0.0244,-0.01708,-0.00976,-0.00244,0.02928,0.0488,0.03416,-0.01952,-0.02928,-0.01952
-0.01464,0.01952,-0.0244,-0.01708,-0.00976,-0.00244,0.02928,0.0488,0.03416,-0.01952,-0.02928,-0.01952
-0.01464,0.01952,-0.0244,-0.01708,-0.00976,-0.00244,0.03416,0.05856,0.03416,-0.00488,-0.02928,-0.01952
-0.01464,0.01952,-0.0244,-0.01708,-0.00976,-0.00244,0.03416,0.05856,0.03416,-0.00488,-0.02928,-0.01952
-0.00976,0.0122,-0.01464,-0.00976,-0.00488,-0.00244,0.0244,0.05368,0.04392,0.00488,-0.01952,-0.01952
-0.00976,0.0122,-0.01464,-0.00976,-0.00488,-0.00244,0.02928,0.0488,0.03904,0,-0.01952,-0.01952
-0.00976,0.0122,-0.01464,-0.00976,-0.00488,-0.00244,0.02928,0.0488,0.03416,0,-0.01952,-0.01952
-0.00488,0.00976,-0.01464,-0.0122,-0.00976,0.00244,0.0244,0.0488,0.03416,0,-0.01952,-0.01952
-0.00488,0.0122,-0.01952,-0.01708,-0.01464,0.00488,0.01952,0.04392,0.0244,-0.00976,-0.02928,-0.01952
-0.00488,0.0122,-0.01952,-0.01708,-0.01464,0.00488,0.01952,0.04392,0.0244,-0.00976,-0.0244,-0.01464
-0.01464,0.01708,-0.01952,-0.0122,-0.00488,-0.00488,0.01952,0.03416,0.0244,-0.00976,-0.0244,-0.01464
-0.01464,0.01708,-0.01952,-0.0122,-0.00488,-0.00488,0.01952,0.02928,0.0244,-0.00976,-0.0244,-0.01464
-0.01464,0.01708,-0.01952,-0.0122,-0.00488,-0.00488,0.01952,0.02928,0.0244,-0.01952,-0.03416,-0.0244
-0.01464,0.01708,-0.01952,-0.0122,-0.00488,-0.00488,0.01464,0.02928,0.0244,-0.01952,-0.02928,-0.01952
-0.00488,0.01708,-0.02928,-0.02684,-0.0244,0.00976,0.01464,0.0244,0.0244,-0.01952,-0.02928,-0.01952
-0.00488,0.01464,-0.0244,-0.02196,-0.01952,0.00732,0.01464,0.0244,0.01952,-0.01952,-0.02928,-0.01952
-0.00488,0.0122,-0.01952,-0.01708,-0.01464,0.00488,0.01464,0.02928,0.0244,-0.01952,-0.02928,-0.01952
-0.00488,0.0122,-0.01952,-0.01708,-0.01464,0.00488,0.01464,0.0244,0.01952,-0.01952,-0.02928,-0.01952
-0.00488,0.0122,-0.01952,-0.01708,-0.01464,0.00488,0.01464,0.0244,0.01952,-0.01952,-0.02928,-0.01952
-0.00488,0.0122,-0.01952,-0.01708,-0.01464,0.00488,0.01464,0.01952,0.01464,-0.01952,-0.02928,-0.01952
0,0.00732,-0.01464,-0.01464,-0.01464,0.00732,0.01464,0.01952,0.00488,-0.01952,-0.02928,-0.01952
0,0.00732,-0.01464,-0.01464,-0.01464,0.00732,0.00976,0.01464,0.00488,-0.01952,-0.02928,-0.01952
0,0.00732,-0.01464,-0.01464,-0.01464,0.00732,0.01952,0.01464,0.00488,-0.01952,-0.01952,-0.01952
-0.00488,0.0122,-0.01952,-0.01708,-0.01464,0.00488,0.01464,0.01464,0.00488,-0.01952,-0.01952,-0.01952
-0.00488,0.0122,-0.01952,-0.01708,-0.01464,0.00488,0.01952,0.01464,0.00488,-0.01952,-0.01952,-0.01952
-0.00488,0.0122,-0.01952,-0.01708,-0.01464,0.00488,0.0244,0.01464,0.00488,-0.01952,-0.01464,-0.01952
-0.00488,0.0122,-0.01952,-0.01708,-0.01464,0.00488,0.01464,0.01464,0.00488,-0.01952,-0.0244,-0.01952
-0.00488,0.0122,-0.01952,-0.01708,-0.01464,0.00488,0.01464,0.01464,0.00488,-0.01952,-0.0244,-0.01952
-0.00488,0.0122,-0.01952,-0.01708,-0.01464,0.00488,0.00976,0.00976,0.00976,-0.01952,-0.0244,-0.02928
-0.00976,0.01708,-0.0244,-0.01952,-0.01464,0.00244,0.00488,0.00976,0.00488,-0.01952,-0.02928,-0.02928
-0.00488,0.01464,-0.0244,-0.02196,-0.01952,0.00732,0.01464,0.00488,0.00488,-0.01952,-0.01952,-0.01952
-0.00488,0.01464,-0.0244,-0.02196,-0.01952,0.00732,0.00976,0.00488,0.00488,-0.01952,-0.01952,-0.01952
-0.00976,0.01708,-0.0244,-0.01952,-0.01464,0.00244,0.00976,0.00488,-0.00488,-0.0244,-0.01952,-0.01952
-0.00976,0.01708,-0.0244,-0.01952,-0.01464,0.00244,0.00976,0,0,-0.01464,-0.01952,-0.01952
-0.00976,0.01708,-0.0244,-0.01952,-0.01464,0.00244,0.00976,0,0,-0.0244,-0.01952,-0.01952
-0.00976,0.01708,-0.0244,-0.01952,-0.01464,0.00244,0.00976,0,0,-0.0244,-0.01952,-0.01952
-0.00488,0.01464,-0.0244,-0.02196,-0.01952,0.00732,0.00976,0,0,-0.01464,-0.01952,-0.01464
-0.00488,0.01464,-0.0244,-0.02196,-0.01952,0.00732,0.00976,0.00488,0,-0.01464,-0.01952,-0.01464
-0.00488,0.01464,-0.0244,-0.02196,-0.01952,0.00732,0.00976,0.00488,0,-0.01464,-0.01952,-0.01464
-0.00488,0.01464,-0.0244,-0.02196,-0.01952,0.00732,0.00976,0,0,-0.01464,-0.01952,-0.01464
-0.00488,0.01464,-0.0244,-0.02196,-0.01952,0.00732,0.00976,0.00976,0,-0.01952,-0.01952,-0.01464
-0.00488,0.01464,-0.0244,-0.02196,-0.01952,0.00732,0.00976,0.00976,0,-0.01952,-0.01952,-0.01464
-0.00488,0.00976,-0.01464,-0.0122,-0.00976,0.00244,0.00488,0,0,-0.02928,-0.02928,-0.01464
0,0.00732,-0.01464,-0.01464,-0.01464,0.00732,0,-0.00488,-0.00488,-0.02928,-0.02928,-0.01952
0,0.00732,-0.01464,-0.01464,-0.01464,0.00732,0,-0.00488,-0.00488,-0.02928,-0.02928,-0.01952
0,0.00976,-0.01952,-0.01952,-0.01952,0.00976,0,-0.00488,-0.00488,-0.02928,-0.02928,-0.01952
0,0.00976,-0.01952,-0.01952,-0.01952,0.00976,0,0,0.00488,-0.0244,-0.01952,-0.01952
-0.00976,0.01952,-0.02928,-0.0244,-0.01952,0.00488,0,0,0,-0.01952,-0.01952,-0.00976
-0.00976,0.01952,-0.02928,-0.0244,-0.01952,0.00488,0,0,0,-0.01952,-0.01952,-0.00976
-0.00976,0.01952,-0.02928,-0.0244,-0.01952,0.00488,0,0,0,-0.01952,-0.01952,-0.00976
-0.00976,0.01952,-0.02928,-0.0244,-0.01952,0.00488,0.00976,0,0,-0.01952,-0.01952,0
-0.00976,0.01952,-0.02928,-0.0244,-0.01952,0.00488,0.00976,0,0,-0.01952,-0.01952,0
-0.00488,0.01708,-0.02928,-0.02684,-0.0244,0.00976,0.00488,0,0,-0.01952,-0.01952,-0.00976
-0.00488,0.01708,-0.02928,-0.02684,-0.0244,0.00976,0.00488,0,0,-0.01952,-0.01952,-0.00976
-0.00488,0.01708,-0.02928,-0.02684,-0.0244,0.00976,0.00488,0,0,-0.01952,-0.01952,-0.00976
-0.00488,0.01464,-0.0244,-0.02196,-0.01952,0.00732,0.00976,0,0,-0.01952,-0.01952,-0.00976
0.00488,0.00488,-0.01464,-0.01708,-0.01952,0.0122,0,-0.00488,-0.00488,-0.01464,-0.01952,-0.00976
0.00976,-0.00244,-0.00488,-0.00976,-0.01464,0.0122,0.01464,0.00976,0.00976,-0.00976,-0.01464,-0.00488
0.00976,-0.01464,0.01952,0.01464,0.00976,0,0.0244,0.01952,0.01952,0.00488,-0.00488,0.00488
0.01464,-0.02684,0.03904,0.03172,0.0244,-0.00488,0.03904,0.02928,0.02928,0.01464,0.00488,0.00976
0.01952,-0.03904,0.05856,0.0488,0.03904,-0.00976,0.05856,0.04392,0.0488,0.0244,0.01952,0.00976
0.01952,-0.04636,0.0732,0.06344,0.05368,-0.01708,0.0732,0.05856,0.05856,0.03416,0.02928,0.01952
0.0244,-0.05124,0.07808,0.06588,0.05368,-0.01464,0.09272,0.07808,0.06832,0.04392,0.03416,0.0244
0.02928,-0.05856,0.08784,0.0732,0.05856,-0.01464,0.10248,0.08296,0.07808,0.0488,0.03904,0.0244
0.01952,-0.05612,0.09272,0.08296,0.0732,-0.02684,0.10736,0.07808,0.0732,0.0488,0.02928,0.02928
0.01952,-0.05612,0.09272,0.08296,0.0732,-0.02684,0.08784,0.06344,0.06344,0.0488,0.02928,0.02928
0.01952,-0.0488,0.07808,0.06832,0.05856,-0.01952,0.05368,0.02928,0.04392,0.03416,0.01952,0.01464
0.01464,-0.04148,0.06832,0.061,0.05368,-0.01952,0.00976,0,0.0244,0.0244,0.01464,0.01464
0.01464,-0.0366,0.05856,0.05124,0.04392,-0.01464,-0.0488,-0.02928,0.00488,0.00488,0.01464,0.01464
0.01464,-0.03416,0.05368,0.04636,0.03904,-0.0122,-0.07808,-0.04392,0,0,0.01464,0.01464
0.02928,-0.03904,0.0488,0.03416,0.01952,0.00488,-0.09272,-0.0488,-0.00976,0,0.01464,0.01464
0.03416,-0.03904,0.04392,0.02684,0.00976,0.0122,-0.0976,-0.05368,-0.01464,-0.00976,0.01464,0.01464
0.03904,-0.0366,0.03416,0.01464,-0.00488,0.02196,-0.08784,-0.05368,-0.01464,0,0.01952,0.0244
0.0488,-0.03416,0.01952,-0.00488,-0.02928,0.03904,-0.08296,-0.05368,-0.01952,0,0.01952,0.0244
0.05856,-0.03416,0.00976,-0.01952,-0.0488,0.05368,-0.0732,-0.03904,-0.00976,-0.00488,0.01952,0.0244
0.06832,-0.04148,0.01464,-0.01952,-0.05368,0.061,-0.06344,-0.03904,-0.00976,-0.00488,0.01464,0.0244
0.05368,-0.03416,0.01464,-0.0122,-0.03904,0.04636,-0.05856,-0.03416,-0.00488,-0.00488,0.01952,0.01464
0.04392,-0.02928,0.01464,-0.00732,-0.02928,0.0366,-0.0488,-0.02928,-0.00488,-0.00488,0.01952,0.00976
0.0244,-0.0122,0,-0.0122,-0.0244,0.0244,-0.03904,-0.02928,-0.01464,-0.00488,0.00976,0
0.00488,0.00488,-0.01464,-0.01708,-0.01952,0.0122,-0.02928,-0.02928,-0.0244,-0.01952,0,-0.00976
-0.00976,0.01952,-0.02928,-0.0244,-0.01952,0.00488,-0.0244,-0.02928,-0.0244,-0.0244,-0.01952,-0.00976
-0.01952,0.02928,-0.03904,-0.02928,-0.01952,0,-0.0244,-0.03416,-0.0244,-0.03416,-0.02928,-0.01952
-0.01464,0.03172,-0.0488,-0.04148,-0.03416,0.00976,-0.01952,-0.04392,-0.03416,-0.04392,-0.03416,-0.0244
-0.01464,0.03416,-0.05368,-0.04636,-0.03904,0.0122,-0.0244,-0.04392,-0.03416,-0.0488,-0.03416,-0.0244
-0.0244,0.03904,-0.05368,-0.04148,-0.02928,0.00244,-0.0244,-0.04392,-0.03416,-0.03904,-0.0244,-0.0244
-0.0244,0.03904,-0.05368,-0.04148,-0.02928,0.00244,-0.0244,-0.04392,-0.03904,-0.03904,-0.02928,-0.0244
-0.0244,0.03904,-0.05368,-0.04148,-0.02928,0.00244,-0.0244,-0.03904,-0.02928,-0.03904,-0.01952,-0.0244
-0.0244,0.0366,-0.0488,-0.0366,-0.0244,0,-0.0244,-0.03904,-0.02928,-0.03904,-0.01952,-0.02928
-0.0244,0.0366,-0.0488,-0.0366,-0.0244,0,-0.01464,-0.02928,-0.0244,-0.02928,-0.01952,-0.02928
-0.03416,0.05124,-0.06832,-0.05124,-0.03416,0,0.0244,0.01464,0,-0.03904,-0.03904,-0.0488
-0.05368,0.07564,-0.0976,-0.07076,-0.04392,-0.00488,0.08296,0.0976,0.0244,-0.06832,-0.07808,-0.07808
-0.05856,0.0854,-0.11224,-0.08296,-0.05368,-0.00244,0.1464,0.17568,0.05368,-0.08296,-0.11712,-0.11712
-0.06344,0.09272,-0.122,-0.09028,-0.05856,-0.00244,0.20984,0.2684,0.10248,-0.08296,-0.13176,-0.13664
-0.02928,0.04392,-0.05856,-0.04392,-0.02928,0,0.21472,0.3172,0.15616,-0.01464,-0.08784,-0.11224
0.04392,-0.05612,0.06832,0.04636,0.0244,0.00976,0.15616,0.3416,0.26352,0.1464,0.06832,0.00976
0.1464,-0.20008,0.25376,0.18056,0.10736,0.01952,0.03904,0.2928,0.38552,0.40992,0.29768,0.20496
0.25864,-0.366,0.47336,0.34404,0.21472,0.02196,-0.13176,0.10736,0.48312,0.69296,0.57584,0.4392
0.35136,-0.52216,0.69296,0.51728,0.3416,0.00488,-0.34648,-0.21472,0.50752,0.97112,0.85888,0.67832
0.39528,-0.6466,0.89792,0.70028,0.50264,-0.05368,-0.57584,-0.59536,0.45872,1.21512,1.10288,0.9028
0.38552,-0.69052,0.99552,0.80276,0.61,-0.11224,-0.73688,-0.9028,0.36112,1.3176,1.21024,1.00528
0.30744,-0.62952,0.9516,0.79788,0.64416,-0.16836,-0.79544,-1.04432,0.22448,1.1712,1.15168,0.98088
0.19032,-0.46116,0.732,0.63684,0.54168,-0.17568,-0.74664,-1.03944,0.01952,0.81984,0.88328,0.79056
0.0976,-0.2562,0.4148,0.366,0.3172,-0.1098,-0.64904,-0.93696,-0.20984,0.36112,0.51728,0.5124
0.03416,-0.06832,0.10248,0.0854,0.06832,-0.01708,-0.5368,-0.77104,-0.38064,-0.01464,0.1708,0.23424
0.00488,0.03416,-0.0732,-0.07564,-0.07808,0.04148,-0.42944,-0.58072,-0.40992,-0.19032,-0.01464,0.06344
-0.00976,0.07564,-0.14152,-0.13664,-0.13176,0.061,-0.2928,-0.37576,-0.33184,-0.2196,-0.0976,-0.0488
-0.01464,0.08052,-0.1464,-0.13908,-0.13176,0.05856,-0.18056,-0.20984,-0.21472,-0.1708,-0.10736,-0.06344
-0.01464,0.06832,-0.122,-0.11468,-0.10736,0.04636,-0.08784,-0.0976,-0.11712,-0.12688,-0.08784,-0.06832
-0.01464,0.05124,-0.08784,-0.08052,-0.0732,0.02928,-0.03416,-0.03904,-0.05856,-0.08784,-0.06832,-0.06344
-0.01464,0.04148,-0.06832,-0.061,-0.05368,0.01952,-0.00976,-0.01464,-0.03416,-0.0732,-0.05856,-0.05856
-0.0244,0.04148,-0.05856,-0.04636,-0.03416,0.00488,0.00976,0.00976,-0.01464,-0.06344,-0.05368,-0.05856
-0.02928,0.04392,-0.05856,-0.04392,-0.02928,0,0.01464,0.01952,-0.00976,-0.06344,-0.05368,-0.05368
-0.02928,0.04392,-0.05856,-0.04392,-0.02928,0,0.0244,0.0244,-0.00976,-0.06344,-0.06344,-0.05368
-0.02928,0.04148,-0.05368,-0.03904,-0.0244,-0.00244,0.0244,0.0244,-0.00488,-0.06344,-0.06344,-0.05856
-0.02928,0.04636,-0.06344,-0.0488,-0.03416,0.00244,0.02928,0.02928,-0.00488,-0.06832,-0.06344,-0.05856
-0.02928,0.04636,-0.06344,-0.0488,-0.03416,0.00244,0.03416,0.03416,-0.00488,-0.06832,-0.06344,-0.05856
-0.0244,0.04392,-0.06344,-0.05124,-0.03904,0.00732,0.02928,0.03904,0,-0.06832,-0.06832,-0.05856
-0.02928,0.04392,-0.05856,-0.04392,-0.02928,0,0.02928,0.04392,0.00488,-0.06832,-0.06344,-0.05856
-0.0244,0.04148,-0.05856,-0.04636,-0.03416,0.00488,0.03416,0.03416,0,-0.06832,-0.06832,-0.06832
-0.0244,0.04148,-0.05856,-0.04636,-0.03416,0.00488,0.03416,0.03904,0,-0.06832,-0.06832,-0.06832
-0.02928,0.03904,-0.0488,-0.03416,-0.01952,-0.00488,0.02928,0.03416,0.00488,-0.06344,-0.06344,-0.06832
-0.02928,0.03904,-0.0488,-0.03416,-0.01952,-0.00488,0.02928,0.03904,0.00488,-0.06344,-0.06344,-0.06832
-0.01952,0.02928,-0.03904,-0.02928,-0.01952,0,0.03904,0.0488,0.00976,-0.05368,-0.06344,-0.05856
-0.01952,0.02928,-0.03904,-0.02928,-0.01952,0,0.03904,0.0488,0.00976,-0.05368,-0.06344,-0.05856
-0.0244,0.03172,-0.03904,-0.02684,-0.01464,-0.00488,0.0488,0.0488,0.01952,-0.05368,-0.05856,-0.05856
-0.0244,0.03172,-0.03904,-0.02684,-0.01464,-0.00488,0.0488,0.0488,0.01952,-0.0488,-0.05856,-0.05856
-0.0244,0.03172,-0.03904,-0.02684,-0.01464,-0.00488,0.0488,0.05856,0.01952,-0.05856,-0.05856,-0.06344
-0.01952,0.02928,-0.03904,-0.02928,-0.01952,0,0.0488,0.05856,0.01952,-0.06344,-0.05856,-0.06344
-0.01952,0.02928,-0.03904,-0.02928,-0.01952,0,0.03904,0.05856,0.0244,-0.06344,-0.06832,-0.06344
-0.01952,0.02928,-0.03904,-0.02928,-0.01952,0,0.04392,0.06344,0.0244,-0.06344,-0.06832,-0.06344
-0.01952,0.02928,-0.03904,-0.02928,-0.01952,0,0.04392,0.06832,0.03416,-0.05368,-0.06832,-0.06344
-0.01952,0.02928,-0.03904,-0.02928,-0.01952,0,0.04392,0.06832,0.03904,-0.05368,-0.06832,-0.06344
-0.01952,0.03172,-0.04392,-0.03416,-0.0244,0.00244,0.04392,0.05856,0.03416,-0.05368,-0.06832,-0.06344
-0.01952,0.03172,-0.04392,-0.03416,-0.0244,0.00244,0.04392,0.06832,0.03904,-0.0488,-0.06832,-0.06344
-0.01952,0.03416,-0.0488,-0.03904,-0.02928,0.00488,0.04392,0.06832,0.02928,-0.0488,-0.06832,-0.06344
-0.01952,0.03416,-0.0488,-0.03904,-0.02928,0.00488,0.04392,0.06832,0.02928,-0.0488,-0.0732,-0.06344
-0.01952,0.03416,-0.0488,-0.03904,-0.02928,0.00488,0.03904,0.0732,0.03416,-0.0488,-0.0732,-0.06344
-0.01952,0.03416,-0.0488,-0.03904,-0.02928,0.00488,0.03904,0.0732,0.03416,-0.05368,-0.0732,-0.06832
-0.01464,0.02684,-0.03904,-0.03172,-0.0244,0.00488,0.03904,0.0732,0.04392,-0.05368,-0.07808,-0.06832
-0.00976,0.0244,-0.03904,-0.03416,-0.02928,0.00976,0.03416,0.0732,0.04392,-0.0488,-0.07808,-0.06832
-0.00488,0.02196,-0.03904,-0.0366,-0.03416,0.01464,0.03416,0.0732,0.0488,-0.0488,-0.06832,-0.05856
0,0.01708,-0.03416,-0.03416,-0.03416,0.01708,0.02928,0.07808,0.0488,-0.0488,-0.06832,-0.05856
0.00488,0.01952,-0.04392,-0.04636,-0.0488,0.02684,0.0244,0.08296,0.05856,-0.04392,-0.06344,-0.05856
0.00488,0.01952,-0.04392,-0.04636,-0.0488,0.02684,0.0244,0.08784,0.06344,-0.03904,-0.05856,-0.05368
0.00976,0.01708,-0.04392,-0.0488,-0.05368,0.03172,0.01464,0.08784,0.06344,-0.03904,-0.05368,-0.0488
0.01464,0.0122,-0.03904,-0.04636,-0.05368,0.03416,0.00976,0.08784,0.06832,-0.03416,-0.0488,-0.0488
0.01952,0.00488,-0.02928,-0.03904,-0.0488,0.03416,0.00488,0.09272,0.06832,-0.0244,-0.05856,-0.04392
0.0244,0,-0.0244,-0.0366,-0.0488,0.0366,-0.00488,0.09272,0.0732,-0.01464,-0.04392,-0.03904
0.03416,-0.00488,-0.0244,-0.04148,-0.05856,0.04636,-0.01464,0.0976,0.08296,-0.00488,-0.03904,-0.04392
0.04392,-0.01708,-0.00976,-0.03172,-0.05368,0.0488,-0.0244,0.10248,0.09272,0.00488,-0.02928,-0.03416
0.05368,-0.02684,0,-0.02684,-0.05368,0.05368,-0.03416,0.10248,0.10248,0.01952,-0.01464,-0.0244
0.06344,-0.0366,0.00976,-0.02196,-0.05368,0.05856,-0.0488,0.10248,0.10736,0.02928,-0.00488,-0.00976
0.0732,-0.0488,0.0244,-0.0122,-0.0488,0.061,-0.06832,0.10248,0.11712,0.05368,0.01464,0.00488
0.08296,-0.06344,0.04392,0.00244,-0.03904,0.061,-0.07808,0.10248,0.12688,0.06832,0.03416,0.01952
0.09272,-0.0732,0.05368,0.00732,-0.03904,0.06588,-0.08784,0.10248,0.1464,0.08296,0.05368,0.03904
0.10248,-0.0854,0.06832,0.01708,-0.03416,0.06832,-0.10248,0.10248,0.15128,0.10248,0.06832,0.05856
0.11224,-0.09516,0.07808,0.02196,-0.03416,0.0732,-0.11224,0.10248,0.16104,0.10736,0.08784,0.06344
0.11712,-0.10736,0.0976,0.03904,-0.01952,0.06832,-0.12688,0.10248,0.17568,0.12688,0.11224,0.08784
0.13176,-0.12444,0.11712,0.05124,-0.01464,0.0732,-0.13664,0.09272,0.1708,0.15128,0.13664,0.0976
0.13664,-0.1342,0.13176,0.06344,-0.00488,0.07076,-0.1464,0.09272,0.18056,0.1708,0.15616,0.122
0.1464,-0.1464,0.1464,0.0732,0,0.0732,-0.1464,0.08784,0.19032,0.18056,0.16592,0.13664
0.1464,-0.15128,0.15616,0.08296,0.00976,0.06832,-0.1464,0.08784,0.19032,0.19032,0.17568,0.1464
0.1464,-0.15616,0.16592,0.09272,0.01952,0.06344,-0.15128,0.09272,0.18056,0.20008,0.18544,0.1464
0.1464,-0.1586,0.1708,0.0976,0.0244,0.061,-0.15128,0.09272,0.18056,0.20008,0.18544,0.15128
0.12688,-0.14884,0.1708,0.10736,0.04392,0.04148,-0.13664,0.10248,0.18544,0.1952,0.18544,0.1464
0.11712,-0.14396,0.1708,0.11224,0.05368,0.03172,-0.12688,0.10736,0.17568,0.18544,0.1708,0.13664
0.10736,-0.1342,0.16104,0.10736,0.05368,0.02684,-0.10736,0.11224,0.18056,0.1708,0.16104,0.12688
0.0976,-0.12688,0.15616,0.10736,0.05856,0.01952,-0.08784,0.11224,0.1708,0.15616,0.14152,0.11712
0.08296,-0.1098,0.13664,0.09516,0.05368,0.01464,-0.06832,0.11224,0.16104,0.13664,0.13664,0.10736
0.06832,-0.09516,0.122,0.08784,0.05368,0.00732,-0.05368,0.10736,0.15128,0.122,0.11712,0.09272
0.05368,-0.08052,0.10736,0.08052,0.05368,0,-0.04392,0.09272,0.122,0.10248,0.09272,0.0732
0.04392,-0.07076,0.0976,0.07564,0.05368,-0.00488,-0.02928,0.08296,0.11224,0.08784,0.0732,0.06344
0.03416,-0.05612,0.07808,0.061,0.04392,-0.00488,-0.01464,0.08784,0.09272,0.06832,0.05856,0.05368
0.0244,-0.0488,0.0732,0.061,0.0488,-0.0122,-0.00488,0.07808,0.08784,0.05856,0.0488,0.03904
0.01952,-0.0366,0.05368,0.04392,0.03416,-0.00732,0,0.0732,0.0732,0.04392,0.03904,0.02928
0.01952,-0.03172,0.04392,0.03416,0.0244,-0.00244,0.00488,0.06344,0.06344,0.03416,0.02928,0.01952
0.01464,-0.02928,0.04392,0.0366,0.02928,-0.00732,0.01464,0.05368,0.06344,0.0244,0.02928,0.01464
0.01464,-0.0244,0.03416,0.02684,0.01952,-0.00244,0.01464,0.04392,0.05368,0.01464,0.01952,0.00976
0.00488,-0.0122,0.01952,0.01708,0.01464,-0.00488,0.01464,0.04392,0.05856,0.01464,0.0244,0.00488
0,-0.00976,0.01952,0.01952,0.01952,-0.00976,0.01464,0.03904,0.05368,0.00976,0.01952,0.00488
0,-0.00732,0.01464,0.01464,0.01464,-0.00732,0.00976,0.03904,0.03904,0,0.00976,0
0,-0.00732,0.01464,0.01464,0.01464,-0.00732,0.00976,0.03904,0.03416,0,0.00976,0
-0.00488,0.00244,0,0.00244,0.00488,-0.00488,0.00976,0.0244,0.03416,0.00488,0,-0.00488
-0.00488,0.00244,0,0.00244,0.00488,-0.00488,0.00976,0.0244,0.03416,0.00488,-0.00488,-0.00488
0,0,0,0,0,0,0.00976,0.0244,0.03416,0.00488,-0.00488,-0.00488
0,0.00244,-0.00488,-0.00488,-0.00488,0.00244,0.00976,0.0244,0.03416,0.00488,-0.00488,-0.00488
-0.00976,0.00488,0,0.00488,0.00976,-0.00976,0.01952,0.02928,0.02928,0,-0.00976,-0.00488
-0.01464,0.00732,0,0.00732,0.01464,-0.01464,0.01952,0.02928,0.02928,0,-0.00976,-0.00976
-0.01464,0.01464,-0.01464,-0.00732,0,-0.00732,0.00976,0.02928,0.02928,-0.00488,0,-0.00976
-0.01464,0.01464,-0.01464,-0.00732,0,-0.00732,0.00976,0.0244,0.0244,-0.00488,-0.00488,-0.00976
-0.00976,0.00488,0,0.00488,0.00976,-0.00976,0.00976,0.0244,0.0244,-0.00488,-0.01464,-0.00976
-0.00976,0.00488,0,0.00488,0.00976,-0.00976,0.00976,0.0244,0.0244,-0.00488,-0.01464,-0.00976
0,0,0,0,0,0,0.00976,0.0244,0.0244,-0.00488,-0.01464,0
0,0,0,0,0,0,0.00976,0.0244,0.0244,-0.00488,-0.00976,0
0,0,0,0,0,0,0.00976,0.0244,0.0244,0,-0.00976,0
0,0,0,0,0,0,0.00488,0.0244,0.0244,0,-0.00976,0.00488
-0.00488,0.00244,0,0.00244,0.00488,-0.00488,0.00488,0.0244,0.02928,0,0,0.00488
-0.00488,0.00244,0,0.00244,0.00488,-0.00488,0.00488,0.0244,0.02928,0,0,0.00488
-0.00488,0.00488,-0.00488,-0.00244,0,-0.00244,0.00488,0.02928,0.02928,0,0,-0.00488
-0.00488,0.00488,-0.00488,-0.00244,0,-0.00244,0.00488,0.02928,0.02928,0,0,-0.00488
-0.00488,0.00488,-0.00488,-0.00244,0,-0.00244,0.00488,0.0244,0.02928,0,0,-0.01464
-0.00488,0.00732,-0.00976,-0.00732,-0.00488,0,0.00488,0.0244,0.02928,0,0,-0.01464
0,0,0,0,0,0,0.00488,0.02928,0.03904,0,0,-0.01464
0,0,0,0,0,0,0.00488,0.02928,0.04392,0.00488,0,-0.01464
-0.01464,0.0122,-0.00976,-0.00244,0.00488,-0.00976,0.01464,0.03904,0.04392,0.01464,0,-0.00488
-0.01464,0.0122,-0.00976,-0.00244,0.00488,-0.00976,0.01952,0.04392,0.04392,0.01464,0,-0.00488
-0.01464,0.01708,-0.01952,-0.0122,-0.00488,-0.00488,0.01952,0.03416,0.04392,0.01464,0,0.00488
-0.01464,0.01464,-0.01464,-0.00732,0,-0.00732,0.01952,0.03904,0.04392,0.01464,0,0
-0.00488,0.00976,-0.01464,-0.0122,-0.00976,0.00244,0.01464,0.04392,0.03904,0.01464,0.00976,0
-0.00976,0.0122,-0.01464,-0.00976,-0.00488,-0.00244,0.01464,0.04392,0.03904,0.01464,0.00976,0
-0.00976,0.0122,-0.01464,-0.00976,-0.00488,-0.00244,0.01464,0.04392,0.03904,0.01464,0,0
-0.00976,0.0122,-0.01464,-0.00976,-0.00488,-0.00244,0.01464,0.0488,0.03904,0.01464,0,0
-0.00976,0.0122,-0.01464,-0.00976,-0.00488,-0.00244,0.0244,0.0488,0.0488,0.01464,0,0
-0.00976,0.0122,-0.01464,-0.00976,-0.00488,-0.00244,0.02928,0.0488,0.0488,0.00976,0,0
0,0.00732,-0.01464,-0.01464,-0.01464,0.00732,0.02928,0.05856,0.0488,0.01952,0,0.00976
0,0.00732,-0.01464,-0.01464,-0.01464,0.00732,0.03416,0.06344,0.0488,0.01952,-0.00488,0.00976
-0.00976,0.0122,-0.01464,-0.00976,-0.00488,-0.00244,0.0244,0.06344,0.05368,0.01464,0.00488,0
-0.00488,0.00976,-0.01464,-0.0122,-0.00976,0.00244,0.0244,0.06344,0.05368,0.01464,0.00488,0
-0.00976,0.0122,-0.01464,-0.00976,-0.00488,-0.00244,0.0244,0.05856,0.05368,0.01464,0.00976,0
-0.00976,0.0122,-0.01464,-0.00976,-0.00488,-0.00244,0.0244,0.05856,0.05368,0.01464,0.00976,0
0,0.00244,-0.00488,-0.00488,-0.00488,0.00244,0.01952,0.05856,0.05368,0.00976,0,0
0,0.00244,-0.00488,-0.00488,-0.00488,0.00244,0.01952,0.05856,0.05368,0.00976,0,0
-0.00488,0.00976,-0.01464,-0.0122,-0.00976,0.00244,0.02928,0.05856,0.05368,0.00976,0,0
-0.00488,0.00976,-0.01464,-0.0122,-0.00976,0.00244,0.02928,0.05856,0.05368,0.01464,0,0
-0.01464,0.01464,-0.01464,-0.00732,0,-0.00732,0.03416,0.05856,0.05368,0.0244,0,0
-0.00976,0.0122,-0.01464,-0.00976,-0.00488,-0.00244,0.03416,0.05856,0.05368,0.0244,0,0
0,0.00732,-0.01464,-0.01464,-0.01464,0.00732,0.02928,0.05856,0.0488,0.0244,0.00976,0.00976
0,0.00732,-0.01464,-0.01464,-0.01464,0.00732,0.02928,0.05856,0.0488,0.01952,0.00976,0.00976
-0.00488,0.00976,-0.01464,-0.0122,-0.00976,0.00244,0.02928,0.06832,0.05368,0.02928,0.01952,0.00976
-0.00488,0.00732,-0.00976,-0.00732,-0.00488,0,0.0244,0.06344,0.05368,0.02928,0.01952,0.00976
0.00488,0.00732,-0.01952,-0.02196,-0.0244,0.01464,0.02928,0.05368,0.04392,0.01952,0.00976,0.01464
0.00488,0.00732,-0.01952,-0.02196,-0.0244,0.01464,0.02928,0.05368,0.04392,0.01952,0.01464,0.01464
0.00488,0.00244,-0.00976,-0.0122,-0.01464,0.00976,0.01952,0.0488,0.04392,0.02928,0.01464,0.01464
0.00488,-0.00244,0,-0.00244,-0.00488,0.00488,0.01952,0.0488,0.04392,0.02928,0.01464,0.01464
0.00488,0.00244,-0.00976,-0.0122,-0.01464,0.00976,0.01464,0.03904,0.04392,0.02928,0.01464,0.01952
0.00488,0.00244,-0.00976,-0.0122,-0.01464,0.00976,0.01464,0.03416,0.04392,0.02928,0.01952,0.01952
0.00488,0.00732,-0.01952,-0.02196,-0.0244,0.01464,0.01464,0.03416,0.03904,0.02928,0.01952,0.01952
0.00488,0.00488,-0.01464,-0.01708,-0.01952,0.0122,0.01464,0.02928,0.03416,0.02928,0.01952,0.01952
-0.00488,0.0122,-0.01952,-0.01708,-0.01464,0.00488,0.0244,0.03416,0.04392,0.02928,0.01952,0.01952
-0.00488,0.0122,-0.01952,-0.01708,-0.01464,0.00488,0.0244,0.03416,0.03904,0.02928,0.01952,0.01952
-0.00488,0.00732,-0.00976,-0.00732,-0.00488,0,0.01464,0.03416,0.03904,0.01952,0.01952,0.01952
-0.00488,0.00732,-0.00976,-0.00732,-0.00488,0,0.01464,0.02928,0.03416,0.01952,0.01952,0.01952
0.00976,0.00244,-0.01464,-0.01952,-0.0244,0.01708,0.0244,0.02928,0.03416,0.02928,0.01952,0.01952
0.00976,0.00244,-0.01464,-0.01952,-0.0244,0.01708,0.01952,0.0244,0.03416,0.02928,0.01952,0.01952
0.00488,0.00488,-0.01464,-0.01708,-0.01952,0.0122,0.01952,0.0244,0.03416,0.02928,0.01952,0.01952
0.00488,0.00732,-0.01952,-0.02196,-0.0244,0.01464,0.01464,0.0244,0.03416,0.02928,0.01952,0.01952
0.00488,0.00732,-0.01952,-0.02196,-0.0244,0.01464,0.01952,0.0244,0.03416,0.02928,0.0244,0.01952
0.00488,0.00732,-0.01952,-0.02196,-0.0244,0.01464,0.0244,0.0244,0.03416,0.02928,0.0244,0.01952
0.00488,0.00732,-0.01952,-0.02196,-0.0244,0.01464,0.0244,0.0244,0.03416,0.02928,0.0244,0.01952
0.00488,0.00732,-0.01952,-0.02196,-0.0244,0.01464,0.0244,0.0244,0.02928,0.02928,0.0244,0.01952
-0.00488,0.0122,-0.01952,-0.01708,-0.01464,0.00488,0.0244,0.01952,0.02928,0.02928,0.01952,0.01952
-0.00976,0.01708,-0.0244,-0.01952,-0.01464,0.00244,0.0244,0.01464,0.0244,0.02928,0.01952,0.01952
-0.00488,0.01464,-0.0244,-0.02196,-0.01952,0.00732,0.01952,0.0244,0.03416,0.03904,0.01952,0.01952
-0.00488,0.01464,-0.0244,-0.02196,-0.01952,0.00732,0.01952,0.0244,0.03416,0.04392,0.01952,0.01952
0,0.0122,-0.0244,-0.0244,-0.0244,0.0122,0.01952,0.01952,0.0244,0.03904,0.01952,0.01952
0,0.0122,-0.0244,-0.0244,-0.0244,0.0122,0.01952,0.01952,0.02928,0.03416,0.01952,0.01952
0,0.0122,-0.0244,-0.0244,-0.0244,0.0122,0.01952,0.01952,0.02928,0.03416,0.01952,0.01952
0,0.0122,-0.0244,-0.0244,-0.0244,0.0122,0.01952,0.01952,0.02928,0.03416,0.01952,0.01952
-0.00488,0.01464,-0.0244,-0.02196,-0.01952,0.00732,0.01952,0.00976,0.02928,0.03416,0.02928,0.01464
-0.00488,0.01464,-0.0244,-0.02196,-0.01952,0.00732,0.01952,0.01464,0.02928,0.03416,0.02928,0.01464
-0.00488,0.00976,-0.01464,-0.0122,-0.00976,0.00244,0.01952,0.01464,0.02928,0.04392,0.01952,0.0244
-0.00488,0.00976,-0.01464,-0.0122,-0.00976,0.00244,0.01952,0.00976,0.02928,0.03904,0.01952,0.0244
-0.00488,0.01464,-0.0244,-0.02196,-0.01952,0.00732,0.01952,0.01952,0.02928,0.0488,0.01952,0.0244
-0.00488,0.01464,-0.0244,-0.02196,-0.01952,0.00732,0.01952,0.01952,0.02928,0.0488,0.01952,0.0244
-0.00488,0.01464,-0.0244,-0.02196,-0.01952,0.00732,0.0244,0.01952,0.03416,0.03904,0.02928,0.01952
0,0.00976,-0.01952,-0.01952,-0.01952,0.00976,0.01952,0.01952,0.02928,0.03904,0.01952,0.01952
0,0.00976,-0.01952,-0.01952,-0.01952,0.00976,0.01952,0.01952,0.02928,0.03904,0.01952,0.01952
0,0.00976,-0.01952,-0.01952,-0.01952,0.00976,0.00976,0.00976,0.01952,0.03904,0.01952,0.00976
0,0.00976,-0.01952,-0.01952,-0.01952,0.00976,0.00976,0.00976,0.01952,0.03904,0.01952,0.00976
0.00488,0.00732,-0.01952,-0.02196,-0.0244,0.01464,0.00488,0.00976,0.02928,0.03904,0.01952,0.00976
0.00488,0.00732,-0.01952,-0.02196,-0.0244,0.01464,0.00488,0.00976,0.02928,0.03904,0.01952,0.00976
-0.00488,0.00732,-0.00976,-0.00732,-0.00488,0,0.00488,0.00976,0.01952,0.03904,0.01952,0.01952
-0.00488,0.00488,-0.00488,-0.00244,0,-0.00244,0.00976,0.00976,0.01952,0.03904,0.01952,0.01952
-0.00488,0.00732,-0.00976,-0.00732,-0.00488,0,0.00976,0.00976,0.0244,0.03904,0.01952,0.01952
-0.00488,0.00244,0,0.00244,0.00488,-0.00488,0.01952,0.0244,0.03416,0.0488,0.01952,0.01952
0,-0.00488,0.00976,0.00976,0.00976,-0.00488,0.02928,0.0244,0.03416,0.05856,0.0244,0.01952
0.00488,-0.01708,0.02928,0.02684,0.0244,-0.00976,0.04392,0.03416,0.04392,0.06832,0.03416,0.02928
0.01464,-0.02928,0.04392,0.0366,0.02928,-0.00732,0.05368,0.0488,0.05368,0.07808,0.03416,0.02928
0.01952,-0.03904,0.05856,0.0488,0.03904,-0.00976,0.06832,0.06344,0.06344,0.08784,0.04392,0.03904
0.0244,-0.0488,0.0732,0.061,0.0488,-0.0122,0.09272,0.0732,0.08296,0.08784,0.05368,0.03904
0.02928,-0.05612,0.08296,0.06832,0.05368,-0.0122,0.10736,0.08784,0.09272,0.0976,0.05368,0.04392
0.02928,-0.06588,0.10248,0.08784,0.0732,-0.02196,0.11712,0.0976,0.10248,0.0976,0.0488,0.0488
0.02928,-0.06588,0.10248,0.08784,0.0732,-0.02196,0.11224,0.09272,0.10248,0.0976,0.0488,0.0488
0.01952,-0.05612,0.09272,0.08296,0.0732,-0.02684,0.08784,0.07808,0.08784,0.0976,0.05856,0.0488
0.01464,-0.0488,0.08296,0.07564,0.06832,-0.02684,0.0488,0.04392,0.06344,0.08784,0.04392,0.04392
0.01464,-0.04392,0.0732,0.06588,0.05856,-0.02196,0,0.00488,0.04392,0.07808,0.04392,0.04392
0.01464,-0.03904,0.06344,0.05612,0.0488,-0.01708,-0.03416,-0.01464,0.02928,0.06832,0.04392,0.04392
0.01952,-0.04148,0.06344,0.05368,0.04392,-0.0122,-0.06832,-0.03416,0.0244,0.06832,0.04392,0.05368
0.01952,-0.0366,0.05368,0.04392,0.03416,-0.00732,-0.07808,-0.04392,0.01464,0.06832,0.04392,0.05368
0.0244,-0.02928,0.03416,0.02196,0.00976,0.00732,-0.07808,-0.03416,0.00488,0.0488,0.03904,0.04392
0.03904,-0.03172,0.0244,0.00488,-0.01464,0.02684,-0.07808,-0.03416,0,0.0488,0.03904,0.04392
0.04392,-0.02928,0.01464,-0.00732,-0.02928,0.0366,-0.07808,-0.03416,0,0.04392,0.02928,0.03416
0.05368,-0.03172,0.00976,-0.01708,-0.04392,0.0488,-0.06832,-0.02928,0,0.04392,0.0244,0.03416
0.05856,-0.0366,0.01464,-0.01464,-0.04392,0.05124,-0.05856,-0.03416,0.00488,0.04392,0.02928,0.04392
0.05368,-0.03416,0.01464,-0.0122,-0.03904,0.04636,-0.05368,-0.02928,0.00488,0.04392,0.02928,0.04392
0.03416,-0.0244,0.01464,-0.00244,-0.01952,0.02684,-0.04392,-0.01952,0.01464,0.04392,0.0244,0.03904
0.01464,-0.00976,0.00488,-0.00244,-0.00976,0.0122,-0.03416,-0.01952,0.01464,0.03416,0.01464,0.0244
-0.00488,0.01464,-0.0244,-0.02196,-0.01952,0.00732,-0.01952,-0.02928,0.00488,0.0244,0.01464,0.01952
-0.01952,0.02684,-0.03416,-0.0244,-0.01464,-0.00244,-0.01464,-0.02928,0.00488,0.01952,0.00488,0.00488
-0.01464,0.02684,-0.03904,-0.03172,-0.0244,0.00488,-0.00488,-0.03416,-0.00488,0.0244,0.00488,0.00488
-0.01464,0.0244,-0.03416,-0.02684,-0.01952,0.00244,0,-0.03416,-0.00488,0.0244,0.00488,0.00488
-0.01464,0.0244,-0.03416,-0.02684,-0.01952,0.00244,-0.01464,-0.03416,-0.00488,0.00976,-0.00488,-0.00488
-0.01464,0.0244,-0.03416,-0.02684,-0.01952,0.00244,-0.01464,-0.03416,-0.00488,0.00976,-0.00488,-0.00488
-0.01464,0.02928,-0.04392,-0.0366,-0.02928,0.00732,-0.0244,-0.02928,-0.01952,0.00976,-0.01952,-0.01464
-0.01464,0.02684,-0.03904,-0.03172,-0.0244,0.00488,-0.0244,-0.02928,-0.01952,0.00976,-0.01952,-0.01464
-0.01464,0.02684,-0.03904,-0.03172,-0.0244,0.00488,-0.01464,-0.0244,-0.00976,0.00976,-0.01952,-0.00976
-0.01464,0.02684,-0.03904,-0.03172,-0.0244,0.00488,0.00488,0.00488,0.00976,0.00976,-0.0244,-0.0244
-0.02928,0.04148,-0.05368,-0.03904,-0.0244,-0.00244,0.04392,0.06832,0.03416,0.00488,-0.0488,-0.0488
-0.04392,0.05856,-0.0732,-0.05124,-0.02928,-0.00732,0.11224,0.16592,0.07808,-0.01952,-0.08296,-0.08296
-0.05368,0.0732,-0.09272,-0.06588,-0.03904,-0.00732,0.19032,0.28304,0.13664,-0.0244,-0.10248,-0.11224
-0.04392,0.05124,-0.05856,-0.0366,-0.01464,-0.01464,0.23424,0.37088,0.20984,0.03416,-0.09272,-0.11712
0,-0.01708,0.03416,0.03416,0.03416,-0.01708,0.2196,0.41968,0.31232,0.16104,0.00976,-0.03416
0.06832,-0.12932,0.19032,0.15616,0.122,-0.02684,0.13664,0.4148,0.4392,0.3904,0.20496,0.122
0.17568,-0.28548,0.39528,0.30744,0.2196,-0.02196,-0.01952,0.31232,0.55144,0.6832,0.488,0.34648
0.27816,-0.44896,0.61976,0.48068,0.3416,-0.03172,-0.22448,0.05368,0.59536,0.976,0.76616,0.5856
0.35136,-0.59048,0.8296,0.65392,0.47824,-0.06344,-0.44408,-0.32208,0.5612,1.25416,1.03456,0.82472
0.366,-0.67588,0.98576,0.80276,0.61976,-0.12688,-0.62952,-0.68808,0.47824,1.43472,1.20536,0.976
0.30744,-0.67588,1.04432,0.8906,0.73688,-0.21472,-0.71736,-0.93208,0.34648,1.4152,1.23952,1.03456
0.2196,-0.56852,0.91744,0.80764,0.69784,-0.23912,-0.69784,-1.00528,0.14152,1.14192,1.05408,0.90768
0.11224,-0.37332,0.6344,0.57828,0.52216,-0.20496,-0.61,-0.94672,-0.08784,0.69296,0.71248,0.66368
0.03416,-0.16592,0.29768,0.2806,0.26352,-0.11468,-0.50752,-0.8296,-0.30256,0.22448,0.32208,0.36112
-0.00488,-0.0244,0.05368,0.05612,0.05856,-0.03172,-0.42456,-0.66856,-0.40016,-0.06344,0.05856,0.13176
-0.02928,0.05856,-0.08784,-0.0732,-0.05856,0.01464,-0.33184,-0.48312,-0.3904,-0.1708,-0.07808,-0.00488
-0.03416,0.0854,-0.13664,-0.11956,-0.10248,0.03416,-0.22936,-0.29768,-0.27328,-0.1708,-0.11712,-0.06344
-0.0244,0.08052,-0.13664,-0.12444,-0.11224,0.04392,-0.122,-0.15128,-0.17568,-0.122,-0.10736,-0.0732
-0.0244,0.06588,-0.10736,-0.09516,-0.08296,0.02928,-0.05368,-0.06344,-0.0976,-0.08784,-0.08784,-0.06832
-0.0244,0.05612,-0.08784,-0.07564,-0.06344,0.01952,-0.0244,-0.02928,-0.05856,-0.05856,-0.0732,-0.05368
-0.0244,0.04148,-0.05856,-0.04636,-0.03416,0.00488,-0.00976,0.00488,-0.01952,-0.04392,-0.06344,-0.05856
-0.0244,0.04148,-0.05856,-0.04636,-0.03416,0.00488,0,0.01464,-0.01464,-0.04392,-0.06344,-0.05368
-0.01952,0.03416,-0.0488,-0.03904,-0.02928,0.00488,0.00976,0.0244,0,-0.03416,-0.05368,-0.05368
-0.01952,0.03416,-0.0488,-0.03904,-0.02928,0.00488,0.01464,0.0244,0,-0.03416,-0.05368,-0.05856
-0.01952,0.03172,-0.04392,-0.03416,-0.0244,0.00244,0.01952,0.02928,0.00488,-0.04392,-0.06344,-0.05856
-0.01952,0.03172,-0.04392,-0.03416,-0.0244,0.00244,0.01952,0.02928,0.00488,-0.03904,-0.06344,-0.05856
-0.01464,0.02928,-0.04392,-0.0366,-0.02928,0.00732,0.02928,0.03416,0.00976,-0.03904,-0.06832,-0.05856
-0.01464,0.02684,-0.03904,-0.03172,-0.0244,0.00488,0.02928,0.03904,0.01464,-0.03904,-0.06344,-0.05856
-0.02928,0.03904,-0.0488,-0.03416,-0.01952,-0.00488,0.02928,0.03416,0.00976,-0.03904,-0.06832,-0.05856
-0.0244,0.0366,-0.0488,-0.0366,-0.0244,0,0.03416,0.03904,0.00976,-0.03904,-0.06832,-0.05856
-0.02928,0.03904,-0.0488,-0.03416,-0.01952,-0.00488,0.03416,0.04392,0.00976,-0.03416,-0.06832,-0.05856
-0.02928,0.03904,-0.0488,-0.03416,-0.01952,-0.00488,0.03904,0.0488,0.01464,-0.03416,-0.06344,-0.05856
-0.01952,0.03416,-0.0488,-0.03904,-0.02928,0.00488,0.03904,0.0488,0.01464,-0.03416,-0.06344,-0.06832
-0.01952,0.03416,-0.0488,-0.03904,-0.02928,0.00488,0.03904,0.0488,0.01952,-0.03416,-0.06344,-0.06832
-0.02928,0.03904,-0.0488,-0.03416,-0.01952,-0.00488,0.03904,0.0488,0.01952,-0.04392,-0.06832,-0.06832
-0.0244,0.0366,-0.0488,-0.0366,-0.0244,0,0.03904,0.0488,0.01952,-0.03904,-0.06832,-0.06832
-0.0244,0.0366,-0.0488,-0.0366,-0.0244,0,0.03904,0.0488,0.01952,-0.03904,-0.07808,-0.06832
-0.0244,0.0366,-0.0488,-0.0366,-0.0244,0,0.03904,0.0488,0.01952,-0.04392,-0.07808,-0.0732
-0.00976,0.0244,-0.03904,-0.03416,-0.02928,0.00976,0.03904,0.0488,0.01952,-0.04392,-0.07808,-0.0732
-0.00976,0.0244,-0.03904,-0.03416,-0.02928,0.00976,0.03904,0.05368,0.0244,-0.04392,-0.07808,-0.0732
-0.00976,0.0244,-0.03904,-0.03416,-0.02928,0.00976,0.04392,0.04392,0.0244,-0.03416,-0.06832,-0.06344
-0.00976,0.0244,-0.03904,-0.03416,-0.02928,0.00976,0.04392,0.0488,0.0244,-0.03416,-0.06832,-0.06344
-0.00976,0.02684,-0.04392,-0.03904,-0.03416,0.0122,0.03416,0.0488,0.02928,-0.03904,-0.07808,-0.0732
-0.00976,0.02684,-0.04392,-0.03904,-0.03416,0.0122,0.03416,0.05368,0.0244,-0.04392,-0.07808,-0.0732
-0.00976,0.02196,-0.03416,-0.02928,-0.0244,0.00732,0.03416,0.05856,0.02928,-0.03904,-0.07808,-0.0732
-0.00976,0.0244,-0.03904,-0.03416,-0.02928,0.00976,0.03416,0.05856,0.02928,-0.03904,-0.08296,-0.0732
-0.00976,0.0244,-0.03904,-0.03416,-0.02928,0.00976,0.02928,0.05856,0.02928,-0.03904,-0.08296,-0.08296
-0.00976,0.0244,-0.03904,-0.03416,-0.02928,0.00976,0.02928,0.06344,0.03416,-0.04392,-0.08296,-0.08784
-0.01464,0.03172,-0.0488,-0.04148,-0.03416,0.00976,0.02928,0.06344,0.04392,-0.04392,-0.0732,-0.07808
-0.01464,0.03172,-0.0488,-0.04148,-0.03416,0.00976,0.02928,0.06344,0.04392,-0.04392,-0.07808,-0.07808
0.00488,0.02684,-0.05856,-0.061,-0.06344,0.03416,0.0244,0.05368,0.03904,-0.03904,-0.07808,-0.07808
0.00488,0.0244,-0.05368,-0.05612,-0.05856,0.03172,0.0244,0.05368,0.03904,-0.03904,-0.07808,-0.07808
0.00488,0.0244,-0.05368,-0.05612,-0.05856,0.03172,0.00976,0.05856,0.04392,-0.03416,-0.0732,-0.07808
0.00488,0.0244,-0.05368,-0.05612,-0.05856,0.03172,0.00488,0.06344,0.0488,-0.03416,-0.0732,-0.0732
0.00976,0.02196,-0.05368,-0.05856,-0.06344,0.0366,0.00488,0.06832,0.05856,-0.0244,-0.05856,-0.06344
0.00976,0.01952,-0.0488,-0.05368,-0.05856,0.03416,-0.00976,0.06832,0.06344,-0.01952,-0.05368,-0.05856
0.01464,0.01708,-0.0488,-0.05612,-0.06344,0.03904,-0.0244,0.05856,0.06344,-0.00976,-0.05856,-0.05856
0.0244,0.00976,-0.04392,-0.05612,-0.06832,0.04636,-0.02928,0.06344,0.0732,0,-0.0488,-0.0488
0.0244,0.00488,-0.03416,-0.04636,-0.05856,0.04148,-0.02928,0.06832,0.07808,0,-0.03904,-0.05368
0.03904,-0.00732,-0.0244,-0.04392,-0.06344,0.05124,-0.03904,0.06832,0.08784,0.00976,-0.03416,-0.05368
0.0488,-0.01708,-0.01464,-0.03904,-0.06344,0.05612,-0.0488,0.06344,0.10736,0.02928,-0.03416,-0.03904
0.05856,-0.02684,-0.00488,-0.03416,-0.06344,0.061,-0.06344,0.06344,0.11224,0.04392,-0.01952,-0.02928
0.06832,-0.0366,0.00488,-0.02928,-0.06344,0.06588,-0.0732,0.06344,0.122,0.05856,-0.00488,-0.00976
0.07808,-0.05368,0.02928,-0.00976,-0.0488,0.06344,-0.0976,0.06344,0.13176,0.0732,0.01464,0
0.08784,-0.061,0.03416,-0.00976,-0.05368,0.07076,-0.11224,0.06344,0.13176,0.08784,0.03416,0.01464
0.0976,-0.07076,0.04392,-0.00488,-0.05368,0.07564,-0.12688,0.06344,0.14152,0.11224,0.05368,0.03904
0.10736,-0.08296,0.05856,0.00488,-0.0488,0.07808,-0.13664,0.06344,0.1464,0.12688,0.07808,0.06344
0.11712,-0.09516,0.0732,0.01464,-0.04392,0.08052,-0.1464,0.06344,0.16104,0.1464,0.10248,0.07808
0.11712,-0.10004,0.08296,0.0244,-0.03416,0.07564,-0.16104,0.05368,0.16592,0.16592,0.11712,0.08784
0.12688,-0.1098,0.09272,0.02928,-0.03416,0.08052,-0.1708,0.05368,0.17568,0.18056,0.13664,0.10248
0.11712,-0.10736,0.0976,0.03904,-0.01952,0.06832,-0.1708,0.05368,0.19032,0.19032,0.1464,0.11224
0.12688,-0.11956,0.11224,0.0488,-0.01464,0.07076,-0.17568,0.0488,0.19032,0.20496,0.15128,0.122
0.12688,-0.12932,0.13176,0.06832,0.00488,0.061,-0.17568,0.05368,0.19032,0.20984,0.17568,0.12688
0.12688,-0.1342,0.14152,0.07808,0.01464,0.05612,-0.1708,0.05368,0.19032,0.20984,0.17568,0.13176
0.13176,-0.13664,0.14152,0.07564,0.00976,0.061,-0.16104,0.06344,0.17568,0.20984,0.17568,0.13176
0.122,-0.13176,0.14152,0.08052,0.01952,0.05124,-0.15128,0.06832,0.17568,0.20008,0.16592,0.12688
0.11224,-0.13176,0.15128,0.09516,0.03904,0.0366,-0.13664,0.06832,0.16104,0.19032,0.15616,0.11224
0.10248,-0.122,0.14152,0.09028,0.03904,0.03172,-0.11712,0.0732,0.15616,0.17568,0.1464,0.10248
0.08296,-0.10736,0.13176,0.09028,0.0488,0.01708,-0.0976,0.08296,0.1464,0.15616,0.122,0.09272
0.06832,-0.09516,0.122,0.08784,0.05368,0.00732,-0.07808,0.08296,0.13664,0.13664,0.10736,0.0732
0.05856,-0.0854,0.11224,0.08296,0.05368,0.00244,-0.06344,0.08784,0.122,0.122,0.08784,0.06832
0.0488,-0.07564,0.10248,0.07808,0.05368,-0.00244,-0.05368,0.07808,0.11224,0.10736,0.0732,0.05856
0.02928,-0.05856,0.08784,0.0732,0.05856,-0.01464,-0.04392,0.0732,0.10248,0.07808,0.0488,0.03904
0.01952,-0.0488,0.07808,0.06832,0.05856,-0.01952,-0.02928,0.06344,0.09272,0.06344,0.03904,0.0244
0.01464,-0.0366,0.05856,0.05124,0.04392,-0.01464,-0.0244,0.05856,0.08296,0.04392,0.0244,0.01464
0.00976,-0.02928,0.0488,0.04392,0.03904,-0.01464,-0.01952,0.0488,0.06344,0.0244,0.01464,0.00488
0.00976,-0.02928,0.0488,0.04392,0.03904,-0.01464,-0.00488,0.0488,0.0488,0.02928,0.00488,-0.00488
0.00488,-0.02196,0.03904,0.0366,0.03416,-0.01464,-0.00488,0.03904,0.03904,0.01464,-0.00488,-0.00976
0.00488,-0.01952,0.03416,0.03172,0.02928,-0.0122,-0.00488,0.0244,0.02928,0.00976,-0.01952,-0.0244
0.00488,-0.01708,0.02928,0.02684,0.0244,-0.00976,-0.00488,0.0244,0.02928,0.00488,-0.02928,-0.0244
0,-0.0122,0.0244,0.0244,0.0244,-0.0122,-0.00976,0.00976,0.0244,-0.00976,-0.01952,-0.0244
0,-0.0122,0.0244,0.0244,0.0244,-0.0122,-0.00976,0.00976,0.01464,-0.00976,-0.01952,-0.02928
-0.00488,-0.00732,0.01952,0.02196,0.0244,-0.01464,0,0.01464,0.01464,-0.01464,-0.00976,-0.01952
-0.00488,-0.00732,0.01952,0.02196,0.0244,-0.01464,0,0.01464,0.01464,-0.01464,-0.01464,-0.0244
0,-0.00976,0.01952,0.01952,0.01952,-0.00976,0,0.01464,0.01464,-0.01464,-0.0244,-0.03416
0,-0.00732,0.01464,0.01464,0.01464,-0.00732,0,0.01464,0.01464,-0.01464,-0.0244,-0.03416
0,-0.00976,0.01952,0.01952,0.01952,-0.00976,-0.00976,0.00976,0.01464,-0.01952,-0.02928,-0.03416
0,-0.00976,0.01952,0.01952,0.01952,-0.00976,-0.00976,0.00976,0.00976,-0.01952,-0.02928,-0.03904
-0.00488,-0.00732,0.01952,0.02196,0.0244,-0.01464,-0.00976,0.00976,0.00976,-0.01952,-0.02928,-0.02928
-0.00488,-0.00488,0.01464,0.01708,0.01952,-0.0122,-0.00976,0.00488,0.00976,-0.0244,-0.02928,-0.02928
0,-0.00488,0.00976,0.00976,0.00976,-0.00488,-0.00976,0.00488,0.00488,-0.0244,-0.0244,-0.02928
0,-0.00488,0.00976,0.00976,0.00976,-0.00488,-0.00976,0.00488,0.00488,-0.0244,-0.0244,-0.02928
0,-0.00488,0.00976,0.00976,0.00976,-0.00488,-0.00976,0.00488,0.00488,-0.0244,-0.0244,-0.02928
0,-0.00488,0.00976,0.00976,0.00976,-0.00488,-0.00976,0.00488,0.00488,-0.0244,-0.01952,-0.02928
-0.00976,0,0.00976,0.01464,0.01952,-0.01464,-0.00976,0.00488,0.00488,-0.0244,-0.02928,-0.02928
-0.00976,0,0.00976,0.01464,0.01952,-0.01464,-0.00976,0.00488,0.00488,-0.01952,-0.02928,-0.02928
-0.00976,0,0.00976,0.01464,0.01952,-0.01464,-0.01464,0.00488,0.00488,-0.01952,-0.02928,-0.0244
-0.01464,0.00244,0.00976,0.01708,0.0244,-0.01952,-0.01464,0.00488,0.00976,-0.01952,-0.02928,-0.0244
-0.01464,0.00244,0.00976,0.01708,0.0244,-0.01952,-0.00488,0.00488,0.00976,-0.01952,-0.02928,-0.0244
-0.01464,0.00488,0.00488,0.0122,0.01952,-0.01708,-0.00488,0.00976,0.00976,-0.01952,-0.02928,-0.0244
-0.01464,0.00488,0.00488,0.0122,0.01952,-0.01708,-0.00488,0.01464,0.00976,-0.02928,-0.02928,-0.03416
-0.01464,0.00732,0,0.00732,0.01464,-0.01464,-0.00488,0.01464,0.00976,-0.02928,-0.02928,-0.03416
-0.00488,-0.00244,0.00976,0.0122,0.01464,-0.00976,-0.00488,0.00488,0.00976,-0.02928,-0.02928,-0.03416
0,-0.00488,0.00976,0.00976,0.00976,-0.00488,-0.00488,0.00976,0.00976,-0.02928,-0.02928,-0.03416
-0.00976,0,0.00976,0.01464,0.01952,-0.01464,-0.00488,0.00976,0.01464,-0.0244,-0.02928,-0.03416
-0.01464,0.00244,0.00976,0.01708,0.0244,-0.01952,0,0.01464,0.01464,-0.0244,-0.02928,-0.03416
-0.01464,0.00244,0.00976,0.01708,0.0244,-0.01952,-0.00976,0.01464,0.01464,-0.0244,-0.02928,-0.0244
-0.01464,0,0.01464,0.02196,0.02928,-0.02196,-0.00976,0.01952,0.01464,-0.0244,-0.02928,-0.02928
-0.01464,0.00488,0.00488,0.0122,0.01952,-0.01708,-0.00488,0.01952,0.01952,-0.0244,-0.02928,-0.02928
-0.01464,0.00488,0.00488,0.0122,0.01952,-0.01708,-0.00488,0.0244,0.01952,-0.0244,-0.02928,-0.02928
-0.01952,0.00732,0.00488,0.01464,0.0244,-0.02196,0.00488,0.0244,0.01952,-0.0244,-0.02928,-0.02928
-0.01952,0.00732,0.00488,0.01464,0.0244,-0.02196,0.00488,0.0244,0.01952,-0.0244,-0.02928,-0.02928
-0.01952,0.00732,0.00488,0.01464,0.0244,-0.02196,-0.00488,0.02928,0.01952,-0.0244,-0.02928,-0.02928
-0.01952,0.00732,0.00488,0.01464,0.0244,-0.02196,0,0.02928,0.01952,-0.0244,-0.02928,-0.02928
-0.01952,0.00732,0.00488,0.01464,0.0244,-0.02196,0,0.03904,0.02928,-0.01952,-0.02928,-0.02928
-0.01952,0.00732,0.00488,0.01464,0.0244,-0.02196,0,0.03904,0.02928,-0.01952,-0.02928,-0.02928
-0.01952,0.00732,0.00488,0.01464,0.0244,-0.02196,0.00488,0.03416,0.03416,-0.01464,-0.0244,-0.02928
-0.01952,0.00732,0.00488,0.01464,0.0244,-0.02196,0.00488,0.03416,0.03416,-0.01464,-0.0244,-0.02928
-0.01464,0.00488,0.00488,0.0122,0.01952,-0.01708,0.00488,0.03416,0.03416,-0.0244,-0.0244,-0.02928
-0.01952,0.00732,0.00488,0.01464,0.0244,-0.02196,0.00488,0.03904,0.03416,-0.0244,-0.01952,-0.02928
-0.01952,0.00732,0.00488,0.01464,0.0244,-0.02196,0.00488,0.03904,0.0244,-0.01952,-0.01952,-0.02928
-0.01952,0.00732,0.00488,0.01464,0.0244,-0.02196,0,0.03904,0.0244,-0.01952,-0.01952,-0.02928
-0.01464,0.00488,0.00488,0.0122,0.01952,-0.01708,0,0.02928,0.0244,-0.02928,-0.01952,-0.02928
-0.01464,0.00488,0.00488,0.0122,0.01952,-0.01708,0,0.02928,0.0244,-0.02928,-0.01952,-0.02928
-0.0244,0.00976,0.00488,0.01708,0.02928,-0.02684,-0.00488,0.02928,0.01464,-0.0244,-0.01952,-0.01952
-0.0244,0.00976,0.00488,0.01708,0.02928,-0.02684,-0.00488,0.02928,0.01464,-0.0244,-0.01952,-0.01952
-0.01952,0.0122,-0.00488,0.00488,0.01464,-0.01708,-0.01464,0.0244,0.01464,-0.0244,-0.01952,-0.02928
-0.01952,0.0122,-0.00488,0.00488,0.01464,-0.01708,-0.00976,0.01952,0.00976,-0.02928,-0.01952,-0.02928
-0.01952,0.00732,0.00488,0.01464,0.0244,-0.02196,-0.00976,0.01952,0.01464,-0.02928,-0.01952,-0.01952
-0.01464,0.00488,0.00488,0.0122,0.01952,-0.01708,-0.01464,0.01952,0.01464,-0.02928,-0.01952,-0.01952
-0.01464,0.00244,0.00976,0.01708,0.0244,-0.01952,-0.01952,0.00488,0.01464,-0.02928,-0.01952,-0.01952
-0.01464,0.00244,0.00976,0.01708,0.0244,-0.01952,-0.01952,0.00488,0.01464,-0.02928,-0.01464,-0.01464
-0.01464,0.00244,0.00976,0.01708,0.0244,-0.01952,-0.01952,0.00488,0.00488,-0.02928,-0.00488,-0.01464
-0.01464,0.00244,0.00976,0.01708,0.0244,-0.01952,-0.01952,0,0.00488,-0.02928,-0.00488,-0.01464
-0.01464,0.00244,0.00976,0.01708,0.0244,-0.01952,-0.00976,0.00976,0.00488,-0.02928,-0.00488,-0.0244
-0.01464,0.00244,0.00976,0.01708,0.0244,-0.01952,-0.01464,0.00976,0.00488,-0.02928,0,-0.01952
-0.01464,0.00732,0,0.00732,0.01464,-0.01464,-0.01464,0.00488,0.00488,-0.02928,0,-0.01952
-0.01464,0.00488,0.00488,0.0122,0.01952,-0.01708,-0.01464,0.00488,0,-0.02928,0,-0.01952
-0.00488,0,0.00488,0.00732,0.00976,-0.00732,-0.0244,0,-0.00488,-0.02928,-0.00976,-0.02928
-0.00488,-0.00488,0.01464,0.01708,0.01952,-0.0122,-0.0244,-0.00488,-0.00976,-0.02928,-0.00976,-0.02928
-0.00488,-0.00244,0.00976,0.0122,0.01464,-0.00976,-0.0244,-0.01464,-0.00976,-0.03904,-0.00976,-0.02928
-0.00488,-0.00244,0.00976,0.0122,0.01464,-0.00976,-0.0244,-0.01952,-0.01464,-0.03904,-0.00976,-0.02928
-0.00976,0.00244,0.00488,0.00976,0.01464,-0.0122,-0.0244,-0.01952,-0.01464,-0.03904,-0.00976,-0.02928
-0.00976,0.00244,0.00488,0.00976,0.01464,-0.0122,-0.02928,-0.0244,-0.01464,-0.03904,-0.00976,-0.02928
-0.01952,0.00732,0.00488,0.01464,0.0244,-0.02196,-0.01952,-0.0244,-0.0244,-0.03904,-0.00976,-0.02928
-0.0244,0.0122,0,0.0122,0.0244,-0.0244,-0.0244,-0.0244,-0.0244,-0.03904,-0.00976,-0.02928
-0.01464,0.00732,0,0.00732,0.01464,-0.01464,-0.02928,-0.0244,-0.0244,-0.03904,-0.00976,-0.02928
-0.01464,0.00732,0,0.00732,0.01464,-0.01464,-0.0244,-0.0244,-0.0244,-0.03904,-0.00488,-0.02928
-0.01464,0.00732,0,0.00732,0.01464,-0.01464,-0.0244,-0.0244,-0.0244,-0.03904,-0.00488,-0.01952
-0.01464,0.00732,0,0.00732,0.01464,-0.01464,-0.0244,-0.0244,-0.0244,-0.03904,-0.00488,-0.01952
-0.01464,0.00732,0,0.00732,0.01464,-0.01464,-0.02928,-0.02928,-0.01952,-0.0488,-0.00488,-0.01952
-0.01952,0.0122,-0.00488,0.00488,0.01464,-0.01708,-0.03416,-0.02928,-0.0244,-0.0488,-0.00976,-0.01952
-0.01464,0.00976,-0.00488,0.00244,0.00976,-0.0122,-0.03416,-0.03416,-0.03416,-0.0488,-0.00976,-0.01952
-0.01464,0.00976,-0.00488,0.00244,0.00976,-0.0122,-0.03904,-0.03416,-0.03416,-0.0488,-0.00976,-0.01952
-0.00976,0.00244,0.00488,0.00976,0.01464,-0.0122,-0.03904,-0.03416,-0.03416,-0.05368,0,-0.02928
-0.00976,0.00244,0.00488,0.00976,0.01464,-0.0122,-0.03904,-0.03904,-0.02928,-0.04392,0,-0.02928
-0.00976,0.00244,0.00488,0.00976,0.01464,-0.0122,-0.02928,-0.03904,-0.02928,-0.05368,0,-0.02928
-0.00976,0.00244,0.00488,0.00976,0.01464,-0.0122,-0.02928,-0.03904,-0.02928,-0.05368,0,-0.02928
-0.01464,0.00976,-0.00488,0.00244,0.00976,-0.0122,-0.03904,-0.03904,-0.02928,-0.05368,0,-0.0244
-0.01464,0.00976,-0.00488,0.00244,0.00976,-0.0122,-0.03904,-0.03416,-0.02928,-0.05368,0,-0.0244
-0.01464,0.00976,-0.00488,0.00244,0.00976,-0.0122,-0.03904,-0.03416,-0.02928,-0.04392,0,-0.0244
-0.01464,0.00976,-0.00488,0.00244,0.00976,-0.0122,-0.03904,-0.03904,-0.02928,-0.04392,0,-0.0244
-0.01952,0.01464,-0.00976,0,0.00976,-0.01464,-0.02928,-0.02928,-0.02928,-0.03904,0.00976,-0.01952
-0.01952,0.01952,-0.01952,-0.00976,0,-0.00976,-0.03904,-0.03904,-0.02928,-0.0488,0,-0.02928
-0.01952,0.01952,-0.01952,-0.00976,0,-0.00976,-0.03904,-0.03904,-0.02928,-0.0488,0,-0.02928
-0.01952,0.01952,-0.01952,-0.00976,0,-0.00976,-0.03904,-0.03904,-0.02928,-0.05856,0,-0.02928
-0.01952,0.01952,-0.01952,-0.00976,0,-0.00976,-0.03904,-0.03904,-0.02928,-0.05856,0,-0.02928
-0.01464,0.01708,-0.01952,-0.0122,-0.00488,-0.00488,-0.04392,-0.03904,-0.03904,-0.05856,0,-0.01952
-0.01464,0.01708,-0.01952,-0.0122,-0.00488,-0.00488,-0.04392,-0.03904,-0.03904,-0.05856,0,-0.01952
-0.00488,0.0122,-0.01952,-0.01708,-0.01464,0.00488,-0.04392,-0.03904,-0.02928,-0.05856,0.00976,-0.01952
-0.00488,0.00976,-0.01464,-0.0122,-0.00976,0.00244,-0.03904,-0.03904,-0.02928,-0.05856,0.00976,-0.01952
-0.01464,0.00488,0.00488,0.0122,0.01952,-0.01708,-0.03904,-0.04392,-0.03416,-0.05368,0,-0.01952
-0.00976,-0.00244,0.01464,0.01952,0.0244,-0.01708,-0.0244,-0.02928,-0.01952,-0.0488,0.00488,-0.01464
-0.00976,-0.00976,0.02928,0.03416,0.03904,-0.0244,-0.00488,-0.00976,0,-0.03416,0.0244,-0.00488
-0.00488,-0.02196,0.0488,0.05124,0.05368,-0.02928,0.00976,0,0.00976,-0.0244,0.03416,0
0.00976,-0.03416,0.05856,0.05368,0.0488,-0.01952,0.02928,0.01464,0.01952,-0.01464,0.02928,0
0.00976,-0.04148,0.0732,0.06832,0.06344,-0.02684,0.04392,0.02928,0.02928,-0.00488,0.03904,0.00976
0.00488,-0.04148,0.07808,0.07564,0.0732,-0.03416,0.06344,0.0488,0.0488,0.01464,0.04392,0.0244
0.00976,-0.0488,0.08784,0.08296,0.07808,-0.03416,0.0732,0.05368,0.05856,0.01952,0.0488,0.0244
0.00976,-0.05124,0.09272,0.08784,0.08296,-0.0366,0.06832,0.0488,0.05368,0.01952,0.0488,0.01952
0.00976,-0.05124,0.09272,0.08784,0.08296,-0.0366,0.0488,0.03416,0.04392,0.01952,0.0488,0.01952
0.00976,-0.04392,0.07808,0.0732,0.06832,-0.02928,0.01464,0,0.0244,0.00488,0.03904,0.01464
0.00488,-0.0366,0.06832,0.06588,0.06344,-0.02928,-0.02928,-0.02928,0.00488,-0.00488,0.03416,0.01464
0.00488,-0.03172,0.05856,0.05612,0.05368,-0.0244,-0.07808,-0.05856,-0.01464,-0.01464,0.04392,0.01464
0.00488,-0.02928,0.05368,0.05124,0.0488,-0.02196,-0.10736,-0.0732,-0.01952,-0.01952,0.04392,0.01464
0.00976,-0.03416,0.05856,0.05368,0.0488,-0.01952,-0.122,-0.07808,-0.02928,-0.01952,0.04392,0.0244
0.01464,-0.03416,0.05368,0.04636,0.03904,-0.0122,-0.12688,-0.08296,-0.03416,-0.02928,0.04392,0.0244
0.01952,-0.02684,0.03416,0.0244,0.01464,0.00244,-0.11712,-0.0732,-0.03416,-0.03904,0.03904,0.0244
0.02928,-0.0244,0.01952,0.00488,-0.00976,0.01952,-0.11224,-0.0732,-0.03904,-0.03904,0.03904,0.0244
0.03904,-0.0244,0.00976,-0.00976,-0.02928,0.03416,-0.11224,-0.06832,-0.02928,-0.03416,0.03904,0.0244
0.0488,-0.03172,0.01464,-0.00976,-0.03416,0.04148,-0.10248,-0.06832,-0.02928,-0.03416,0.03416,0.0244
0.04392,-0.02928,0.01464,-0.00732,-0.02928,0.0366,-0.08784,-0.06344,-0.03416,-0.03416,0.03904,0.01464
0.03416,-0.0244,0.01464,-0.00244,-0.01952,0.02684,-0.07808,-0.05856,-0.03416,-0.03416,0.03904,0.00976
0.00488,-0.00244,0,-0.00244,-0.00488,0.00488,-0.06832,-0.05856,-0.03416,-0.03416,0.01952,0
-0.01464,0.01464,-0.01464,-0.00732,0,-0.00732,-0.05856,-0.05856,-0.04392,-0.0488,0.00976,-0.00976
-0.02928,0.02928,-0.02928,-0.01464,0,-0.01464,-0.05368,-0.06832,-0.04392,-0.05368,0,-0.01952
-0.03904,0.03904,-0.03904,-0.01952,0,-0.01952,-0.05368,-0.0732,-0.04392,-0.06344,-0.00976,-0.02928
-0.03416,0.04148,-0.0488,-0.03172,-0.01464,-0.00976,-0.0488,-0.06344,-0.05368,-0.06344,-0.01464,-0.0244
-0.03416,0.04392,-0.05368,-0.0366,-0.01952,-0.00732,-0.05368,-0.06344,-0.05368,-0.06832,-0.01464,-0.0244
-0.03416,0.04392,-0.05368,-0.0366,-0.01952,-0.00732,-0.05368,-0.06344,-0.05368,-0.06832,-0.01464,-0.03416
-0.03416,0.04392,-0.05368,-0.0366,-0.01952,-0.00732,-0.05368,-0.06344,-0.05856,-0.06832,-0.01952,-0.03416
-0.03416,0.04392,-0.05368,-0.0366,-0.01952,-0.00732,-0.06344,-0.06832,-0.0488,-0.06832,-0.01952,-0.03416
-0.03416,0.04148,-0.0488,-0.03172,-0.01464,-0.00976,-0.06344,-0.06832,-0.0488,-0.06832,-0.01952,-0.03904
-0.0244,0.0366,-0.0488,-0.0366,-0.0244,0,-0.04392,-0.0488,-0.04392,-0.06832,-0.00976,-0.03904
-0.03416,0.04636,-0.05856,-0.04148,-0.0244,-0.00488,-0.00488,0.00488,-0.02928,-0.07808,-0.02928,-0.05856
-0.04392,0.06588,-0.08784,-0.06588,-0.04392,0,0.05368,0.08784,0.01464,-0.08784,-0.06832,-0.08784
-0.05856,0.08052,-0.10248,-0.0732,-0.04392,-0.00732,0.13664,0.20496,0.06344,-0.10248,-0.10736,-0.13664
-0.06344,0.08296,-0.10248,-0.07076,-0.03904,-0.0122,0.18056,0.30744,0.13176,-0.08296,-0.11224,-0.1464
-0.02928,0.02928,-0.02928,-0.01464,0,-0.01464,0.1952,0.37576,0.23424,0.0244,-0.03904,-0.09272
0.04392,-0.07564,0.10736,0.0854,0.06344,-0.00976,0.13664,0.3904,0.3416,0.22448,0.12688,0.03904
0.12688,-0.21472,0.30256,0.23912,0.17568,-0.0244,0.00976,0.32208,0.48312,0.51728,0.37576,0.23424
0.22936,-0.37576,0.52216,0.40748,0.2928,-0.03172,-0.18056,0.11712,0.5612,0.83936,0.66368,0.47824
0.30256,-0.52216,0.74176,0.59048,0.4392,-0.06832,-0.39528,-0.244,0.55632,1.1468,0.95648,0.71736
0.32696,-0.63684,0.94672,0.78324,0.61976,-0.1464,-0.62464,-0.64416,0.47824,1.38104,1.1712,0.92232
0.29768,-0.66124,1.0248,0.87596,0.72712,-0.21472,-0.74664,-0.93208,0.3416,1.43472,1.25904,0.99552
0.2196,-0.59048,0.96136,0.85156,0.74176,-0.26108,-0.78568,-1.0736,0.15616,1.22,1.13216,0.94184
0.122,-0.42212,0.72224,0.66124,0.60024,-0.23912,-0.7076,-1.03944,-0.07808,0.79056,0.83448,0.732
0.0488,-0.21716,0.38552,0.36112,0.33672,-0.14396,-0.60024,-0.91744,-0.30744,0.2928,0.44896,0.44408
-0.01464,-0.03904,0.09272,0.10004,0.10736,-0.061,-0.47824,-0.75152,-0.44896,-0.08296,0.13176,0.18544
-0.03416,0.05856,-0.08296,-0.06588,-0.0488,0.00732,-0.38064,-0.55144,-0.44896,-0.22936,-0.03416,0.0244
-0.03904,0.09516,-0.15128,-0.13176,-0.11224,0.0366,-0.28304,-0.35624,-0.3416,-0.23912,-0.0976,-0.05856
-0.04392,0.10004,-0.15616,-0.1342,-0.11224,0.03416,-0.18056,-0.20008,-0.23424,-0.20008,-0.0976,-0.0732
-0.03416,0.08296,-0.13176,-0.11468,-0.0976,0.03172,-0.10736,-0.0976,-0.1464,-0.1464,-0.07808,-0.07808
-0.03416,0.07076,-0.10736,-0.09028,-0.0732,0.01952,-0.05368,-0.03904,-0.07808,-0.11712,-0.05856,-0.06344
-0.0244,0.05612,-0.08784,-0.07564,-0.06344,0.01952,-0.02928,-0.01464,-0.05368,-0.10248,-0.0488,-0.05856
-0.03416,0.05612,-0.07808,-0.061,-0.04392,0.00488,-0.01952,-0.00976,-0.03416,-0.09272,-0.04392,-0.05856
-0.03904,0.05856,-0.07808,-0.05856,-0.03904,0,-0.01464,0,-0.02928,-0.09272,-0.04392,-0.05368
-0.02928,0.05368,-0.07808,-0.06344,-0.0488,0.00976,-0.00488,0.00488,-0.02928,-0.09272,-0.04392,-0.06344
-0.02928,0.05124,-0.0732,-0.05856,-0.04392,0.00732,-0.00488,0.00488,-0.0244,-0.09272,-0.04392,-0.06832
-0.02928,0.05124,-0.0732,-0.05856,-0.04392,0.00732,0,0.00976,-0.01464,-0.08784,-0.04392,-0.05856
-0.02928,0.05124,-0.0732,-0.05856,-0.04392,0.00732,0.00488,0.01464,-0.01464,-0.08784,-0.04392,-0.05856
-0.0244,0.05368,-0.08296,-0.07076,-0.05856,0.01708,0.00976,0.01952,-0.00976,-0.07808,-0.0488,-0.05856
-0.02928,0.05368,-0.07808,-0.06344,-0.0488,0.00976,0.00976,0.0244,-0.00488,-0.07808,-0.04392,-0.05856
-0.03416,0.05612,-0.07808,-0.061,-0.04392,0.00488,0.01464,0.0244,-0.00976,-0.07808,-0.0488,-0.05856
-0.03416,0.05612,-0.07808,-0.061,-0.04392,0.00488,0.01464,0.02928,-0.00976,-0.07808,-0.0488,-0.05856
-0.03904,0.05856,-0.07808,-0.05856,-0.03904,0,0.01952,0.03416,0.00488,-0.0732,-0.05368,-0.05856
-0.03904,0.05856,-0.07808,-0.05856,-0.03904,0,0.01952,0.03904,0.00488,-0.0732,-0.05368,-0.05856
-0.02928,0.0488,-0.06832,-0.05368,-0.03904,0.00488,0.01952,0.03904,0.00976,-0.0732,-0.05368,-0.05856
-0.02928,0.0488,-0.06832,-0.05368,-0.03904,0.00488,0.01952,0.03904,0.00976,-0.0732,-0.05368,-0.05856
-0.0244,0.04636,-0.06832,-0.05612,-0.04392,0.00976,0.01952,0.03904,0.00976,-0.0732,-0.0488,-0.05856
-0.0244,0.04636,-0.06832,-0.05612,-0.04392,0.00976,0.01952,0.03904,0.00976,-0.06832,-0.0488,-0.05856
-0.0244,0.04636,-0.06832,-0.05612,-0.04392,0.00976,0.01952,0.0488,0.00976,-0.05856,-0.03904,-0.06344
-0.01952,0.04392,-0.06832,-0.05856,-0.0488,0.01464,0.01952,0.0488,0.00976,-0.06344,-0.03904,-0.06344
-0.01952,0.04392,-0.06832,-0.05856,-0.0488,0.01464,0.01952,0.03904,0.01464,-0.06344,-0.0488,-0.06344
-0.01952,0.04392,-0.06832,-0.05856,-0.0488,0.01464,0.0244,0.04392,0.01464,-0.06344,-0.0488,-0.06344
-0.01952,0.04392,-0.06832,-0.05856,-0.0488,0.01464,0.0244,0.0488,0.01464,-0.06344,-0.0488,-0.06344
-0.01952,0.04392,-0.06832,-0.05856,-0.0488,0.01464,0.0244,0.0488,0.01952,-0.06344,-0.0488,-0.06344
-0.01952,0.04636,-0.0732,-0.06344,-0.05368,0.01708,0.0244,0.0488,0.01464,-0.06344,-0.0488,-0.06344
-0.01952,0.04636,-0.0732,-0.06344,-0.05368,0.01708,0.0244,0.05856,0.01952,-0.05856,-0.0488,-0.06344
-0.01952,0.0488,-0.07808,-0.06832,-0.05856,0.01952,0.01464,0.05856,0.02928,-0.06832,-0.05856,-0.06344
-0.01952,0.0488,-0.07808,-0.06832,-0.05856,0.01952,0.01464,0.05856,0.02928,-0.06832,-0.06344,-0.06344
-0.02928,0.05368,-0.07808,-0.06344,-0.0488,0.00976,0.00976,0.05368,0.0244,-0.06832,-0.06344,-0.06344
-0.02928,0.05368,-0.07808,-0.06344,-0.0488,0.00976,0.00976,0.05368,0.0244,-0.0732,-0.06344,-0.06832
-0.0244,0.04636,-0.06832,-0.05612,-0.04392,0.00976,0.00976,0.05368,0.03416,-0.06344,-0.05856,-0.06832
-0.01952,0.04392,-0.06832,-0.05856,-0.0488,0.01464,0.00488,0.05368,0.03416,-0.05856,-0.05856,-0.06832
-0.00488,0.04148,-0.07808,-0.07564,-0.0732,0.03416,0.01464,0.06344,0.03904,-0.05856,-0.05856,-0.06832
0,0.0366,-0.0732,-0.0732,-0.0732,0.0366,0.00976,0.06832,0.03904,-0.05856,-0.05856,-0.06832
0.00488,0.03416,-0.0732,-0.07564,-0.07808,0.04148,0.00488,0.0732,0.0488,-0.04392,-0.05368,-0.06832
0.00488,0.03416,-0.0732,-0.07564,-0.07808,0.04148,0.00488,0.07808,0.05368,-0.03904,-0.0488,-0.06344
0.00976,0.02684,-0.06344,-0.06832,-0.0732,0.04148,-0.00488,0.07808,0.06344,-0.03904,-0.04392,-0.05856
0.01464,0.02196,-0.05856,-0.06588,-0.0732,0.04392,-0.00976,0.07808,0.06832,-0.03416,-0.03904,-0.05856
0.01952,0.0244,-0.06832,-0.07808,-0.08784,0.05368,-0.0244,0.09272,0.07808,-0.0244,-0.03904,-0.04392
0.0244,0.01952,-0.06344,-0.07564,-0.08784,0.05612,-0.03416,0.09272,0.08296,-0.01464,-0.0244,-0.03904
0.0244,0.01952,-0.06344,-0.07564,-0.08784,0.05612,-0.04392,0.08784,0.10248,-0.00488,-0.00976,-0.03416
0.03416,0.00732,-0.0488,-0.06588,-0.08296,0.05856,-0.05368,0.09272,0.11224,0.00488,0,-0.0244
0.04392,-0.00244,-0.03904,-0.061,-0.08296,0.06344,-0.06344,0.09272,0.122,0.02928,0.01464,-0.01464
0.05368,-0.0122,-0.02928,-0.05612,-0.08296,0.06832,-0.07808,0.09272,0.12688,0.0488,0.0244,0
0.0732,-0.02928,-0.01464,-0.05124,-0.08784,0.08052,-0.0976,0.09272,0.13664,0.0732,0.03416,0.01464
0.08296,-0.04392,0.00488,-0.0366,-0.07808,0.08052,-0.10736,0.09272,0.1464,0.08784,0.05368,0.02928
0.09272,-0.05856,0.0244,-0.02196,-0.06832,0.08052,-0.11712,0.09272,0.15616,0.10248,0.0732,0.03904
0.10248,-0.07076,0.03904,-0.0122,-0.06344,0.08296,-0.13176,0.09272,0.16104,0.122,0.08784,0.05856
0.11224,-0.08052,0.0488,-0.00732,-0.06344,0.08784,-0.14152,0.09272,0.18056,0.13664,0.10736,0.06344
0.11712,-0.09272,0.06832,0.00976,-0.0488,0.08296,-0.15616,0.09272,0.1952,0.15616,0.13176,0.08784
0.11224,-0.09516,0.07808,0.02196,-0.03416,0.0732,-0.15616,0.09272,0.20008,0.1708,0.1464,0.0976
0.11712,-0.10492,0.09272,0.03416,-0.0244,0.07076,-0.16592,0.09272,0.20984,0.19032,0.16592,0.122
0.12688,-0.11712,0.10736,0.04392,-0.01952,0.0732,-0.17568,0.08784,0.20984,0.20008,0.17568,0.12688
0.12688,-0.122,0.11712,0.05368,-0.00976,0.06832,-0.17568,0.08784,0.20984,0.20984,0.18544,0.13664
0.12688,-0.12688,0.12688,0.06344,0,0.06344,-0.1708,0.09272,0.20984,0.20984,0.18544,0.13664
0.12688,-0.12932,0.13176,0.06832,0.00488,0.061,-0.1708,0.09272,0.20984,0.20984,0.18544,0.14152
0.11712,-0.12444,0.13176,0.0732,0.01464,0.05124,-0.15616,0.09272,0.1952,0.1952,0.18544,0.13664
0.10736,-0.11956,0.13176,0.07808,0.0244,0.04148,-0.1464,0.0976,0.18544,0.18544,0.1708,0.12688
0.0976,-0.1098,0.122,0.0732,0.0244,0.0366,-0.11712,0.09272,0.1708,0.16104,0.16104,0.11712
0.08784,-0.10248,0.11712,0.0732,0.02928,0.02928,-0.0976,0.09272,0.16104,0.1464,0.14152,0.10736
0.0732,-0.09028,0.10736,0.07076,0.03416,0.01952,-0.07808,0.09272,0.14152,0.13664,0.11712,0.0976
0.05856,-0.07564,0.09272,0.06344,0.03416,0.0122,-0.06344,0.08784,0.13176,0.122,0.0976,0.08296
0.04392,-0.061,0.07808,0.05612,0.03416,0.00488,-0.05368,0.09272,0.11224,0.09272,0.08296,0.06344
0.03416,-0.05124,0.06832,0.05124,0.03416,0,-0.03904,0.08296,0.10248,0.07808,0.06344,0.05368
0.0244,-0.0366,0.0488,0.0366,0.0244,0,-0.0244,0.07808,0.08296,0.05856,0.0488,0.04392
0.01464,-0.02928,0.04392,0.0366,0.02928,-0.00732,-0.01464,0.06832,0.07808,0.0488,0.03904,0.02928
0.00976,-0.02196,0.03416,0.02928,0.0244,-0.00732,-0.01952,0.05368,0.06344,0.03416,0.02928,0.01952
0.00976,-0.01708,0.0244,0.01952,0.01464,-0.00244,-0.01464,0.04392,0.05368,0.0244,0.01952,0.00976
0.00488,-0.00976,0.01464,0.0122,0.00976,-0.00244,-0.00488,0.04392,0.04392,0.0244,0.01952,0.01464
0.00488,-0.00488,0.00488,0.00244,0,0.00244,-0.00488,0.03416,0.03416,0.01464,0.00976,0.00976
0.00488,-0.00244,0,-0.00244,-0.00488,0.00488,0.00488,0.0244,0.02928,0.00488,0.00488,0.00488
0,0,0,0,0,0,0.00488,0.01952,0.0244,0,0,0.00488
0,0.00244,-0.00488,-0.00488,-0.00488,0.00244,0,0.01952,0.01952,0,0,0
0,0.00244,-0.00488,-0.00488,-0.00488,0.00244,0,0.01952,0.01464,0,0,0
-0.00488,0.00732,-0.00976,-0.00732,-0.00488,0,0,0.0244,0.01464,-0.00488,-0.00976,-0.00488
-0.00488,0.00732,-0.00976,-0.00732,-0.00488,0,0,0.0244,0.01464,-0.00488,-0.01464,-0.00488
-0.00976,0.00976,-0.00976,-0.00488,0,-0.00488,0.00976,0.0244,0.01464,-0.00488,-0.01464,-0.00488
-0.00976,0.0122,-0.01464,-0.00976,-0.00488,-0.00244,0.00976,0.0244,0.01464,-0.00488,-0.01464,-0.00488
-0.00976,0.01464,-0.01952,-0.01464,-0.00976,0,0,0.01952,0.00976,-0.00976,-0.01952,-0.01464
-0.01464,0.01708,-0.01952,-0.0122,-0.00488,-0.00488,0,0.01952,0.00976,-0.00976,-0.01952,-0.01952
-0.00488,0.01464,-0.0244,-0.02196,-0.01952,0.00732,0,0.01952,0.00976,-0.01464,-0.01952,-0.01952
-0.00488,0.01464,-0.0244,-0.02196,-0.01952,0.00732,0,0.01464,0.00488,-0.01464,-0.0244,-0.01952
0,0.00976,-0.01952,-0.01952,-0.01952,0.00976,0,0.01464,0.01464,-0.00488,-0.01464,-0.00976
0,0.00976,-0.01952,-0.01952,-0.01952,0.00976,0,0.01464,0.01464,-0.00488,-0.01464,-0.00976
0,0.00976,-0.01952,-0.01952,-0.01952,0.00976,0.00976,0.01464,0.01464,-0.00488,-0.01464,0
0,0.00976,-0.01952,-0.01952,-0.01952,0.00976,0.00976,0.01464,0.01464,-0.00488,-0.00976,0
0,0.00976,-0.01952,-0.01952,-0.01952,0.00976,0.00976,0.01464,0.01464,0,-0.00976,0
0,0.00976,-0.01952,-0.01952,-0.01952,0.00976,0.00488,0.01464,0.01464,0,-0.00976,0.00488
-0.00488,0.00732,-0.00976,-0.00732,-0.00488,0,0.00488,0.0244,0.00976,0,-0.00976,-0.00488
-0.00488,0.00732,-0.00976,-0.00732,-0.00488,0,0.00488,0.0244,0.00976,0,-0.00976,-0.00488
-0.00488,0.01464,-0.0244,-0.02196,-0.01952,0.00732,0.00488,0.01952,0.00976,0,-0.01952,-0.01464
-0.00488,0.01464,-0.0244,-0.02196,-0.01952,0.00732,0.00488,0.01952,0.00976,0,-0.01952,-0.01464
-0.01464,0.01952,-0.0244,-0.01708,-0.00976,-0.00244,0.00488,0.01464,0.01952,0,-0.01952,-0.01464
-0.01464,0.02196,-0.02928,-0.02196,-0.01464,0,0.00488,0.01464,0.01952,0,-0.01952,-0.01464
-0.00976,0.01464,-0.01952,-0.01464,-0.00976,0,0.00488,0.02928,0.01952,0,-0.01952,-0.00488
-0.00976,0.01464,-0.01952,-0.01464,-0.00976,0,0.00488,0.02928,0.0244,0.00488,-0.01952,-0.00488
-0.01464,0.01708,-0.01952,-0.0122,-0.00488,-0.00488,0.00488,0.01952,0.0244,0.00488,-0.01952,-0.01464
-0.01464,0.01708,-0.01952,-0.0122,-0.00488,-0.00488,0.00976,0.0244,0.0244,0.00488,-0.01952,-0.01464
-0.01464,0.02196,-0.02928,-0.02196,-0.01464,0,0,0.0244,0.0244,0.00488,-0.01952,-0.01464
-0.01464,0.01952,-0.0244,-0.01708,-0.00976,-0.00244,0,0.02928,0.0244,0.00488,-0.01952,-0.01952
-0.01464,0.01464,-0.01464,-0.00732,0,-0.00732,0.00488,0.03416,0.02928,0.00488,-0.01952,-0.01952
-0.01952,0.01708,-0.01464,-0.00488,0.00488,-0.0122,0.00488,0.03416,0.02928,0.00488,-0.01952,-0.01952
-0.00976,0.0122,-0.01464,-0.00976,-0.00488,-0.00244,0.00488,0.03416,0.02928,0.00488,-0.02928,-0.01952
-0.00976,0.0122,-0.01464,-0.00976,-0.00488,-0.00244,0.00488,0.03904,0.02928,0.00488,-0.02928,-0.01952
-0.00976,0.0122,-0.01464,-0.00976,-0.00488,-0.00244,0.00488,0.03904,0.02928,0.00488,-0.02928,-0.01952
-0.00976,0.0122,-0.01464,-0.00976,-0.00488,-0.00244,0.00976,0.03904,0.02928,0,-0.02928,-0.01952
-0.00976,0.00732,-0.00488,0,0.00488,-0.00732,0,0.0488,0.03904,0,-0.02928,-0.01952
-0.00976,0.00732,-0.00488,0,0.00488,-0.00732,0.00488,0.05368,0.03904,0,-0.03416,-0.01952
-0.01952,0.01708,-0.01464,-0.00488,0.00488,-0.0122,0.00488,0.04392,0.04392,0.00488,-0.0244,-0.01952
-0.01464,0.01464,-0.01464,-0.00732,0,-0.00732,0.00488,0.04392,0.04392,0.00488,-0.0244,-0.01952
-0.01952,0.01708,-0.01464,-0.00488,0.00488,-0.0122,0.00488,0.0488,0.04392,0.00488,-0.02928,-0.00976
-0.01952,0.01708,-0.01464,-0.00488,0.00488,-0.0122,0.00488,0.0488,0.04392,0.00488,-0.02928,-0.00976
-0.01952,0.01708,-0.01464,-0.00488,0.00488,-0.0122,0,0.0488,0.03416,0,-0.02928,-0.00976
-0.01952,0.01708,-0.01464,-0.00488,0.00488,-0.0122,0,0.0488,0.03416,0,-0.02928,-0.00976
-0.0244,0.01952,-0.01464,-0.00244,0.00976,-0.01708,0,0.0488,0.03416,0,-0.02928,-0.00976
-0.0244,0.01952,-0.01464,-0.00244,0.00976,-0.01708,0,0.0488,0.03416,0.00488,-0.02928,-0.00976
-0.01464,0.00976,-0.00488,0.00244,0.00976,-0.0122,0.00488,0.0488,0.03416,0.00488,-0.02928,-0.00976
-0.00976,0.00732,-0.00488,0,0.00488,-0.00732,0.00488,0.0488,0.03416,0.00488,-0.02928,-0.00976
-0.00976,0.00244,0.00488,0.00976,0.01464,-0.0122,0,0.03904,0.02928,0.00488,-0.02928,-0.00976
-0.00976,0.00244,0.00488,0.00976,0.01464,-0.0122,0,0.03904,0.02928,0,-0.02928,-0.00976
-0.01464,0.00488,0.00488,0.0122,0.01952,-0.01708,0,0.03904,0.0244,0,-0.02928,-0.01952
-0.01464,0.00244,0.00976,0.01708,0.0244,-0.01952,-0.00488,0.03416,0.0244,0,-0.02928,-0.01952
-0.00488,-0.00244,0.00976,0.0122,0.01464,-0.00976,0,0.03416,0.0244,-0.00976,-0.02928,-0.01464
-0.00488,-0.00244,0.00976,0.0122,0.01464,-0.00976,0,0.03416,0.0244,-0.00976,-0.0244,-0.01464
-0.01464,0.00244,0.00976,0.01708,0.0244,-0.01952,0,0.02928,0.0244,0,-0.0244,-0.00488
-0.01464,0.00244,0.00976,0.01708,0.0244,-0.01952,0,0.02928,0.0244,0,-0.0244,-0.00488
-0.01464,0.00244,0.00976,0.01708,0.0244,-0.01952,0.00488,0.02928,0.0244,0,-0.0244,0
-0.01464,0.00244,0.00976,0.01708,0.0244,-0.01952,0.00488,0.0244,0.0244,0,-0.01952,0
-0.01464,0.00244,0.00976,0.01708,0.0244,-0.01952,-0.00488,0.0244,0.01952,0,-0.02928,-0.00976
-0.01464,0,0.01464,0.02196,0.02928,-0.02196,-0.00488,0.01952,0.01464,0,-0.02928,-0.00976
-0.01464,0.00244,0.00976,0.01708,0.0244,-0.01952,-0.00488,0.01464,0.01464,0,-0.03904,-0.01952
-0.01464,0.00244,0.00976,0.01708,0.0244,-0.01952,-0.00488,0.01464,0.00976,0,-0.03904,-0.01952
-0.01464,0.00244,0.00976,0.01708,0.0244,-0.01952,-0.00488,0.01464,0.00976,0,-0.02928,-0.00976
-0.01464,0.00244,0.00976,0.01708,0.0244,-0.01952,-0.00488,0.00976,0.00488,0,-0.02928,-0.00976
-0.00976,-0.00244,0.01464,0.01952,0.0244,-0.01708,-0.00488,0.00976,0.00488,0,-0.02928,-0.00976
-0.00976,-0.00244,0.01464,0.01952,0.0244,-0.01708,-0.00976,0.00488,0.00488,0,-0.02928,-0.00976
-0.01464,0,0.01464,0.02196,0.02928,-0.02196,0,0.01464,0.00488,0,-0.02928,-0.00976
-0.01464,0.00244,0.00976,0.01708,0.0244,-0.01952,-0.00488,0.01464,0.00488,0,-0.02928,-0.00976
-0.0244,0.00244,0.01952,0.03172,0.04392,-0.03416,-0.00976,0.00488,0.00488,0,-0.03416,0
-0.0244,0.00244,0.01952,0.03172,0.04392,-0.03416,-0.00488,0.00488,0.00488,0,-0.03416,0
-0.01464,-0.00244,0.01952,0.02684,0.03416,-0.0244,-0.00488,0.00488,0.00488,0.00976,-0.03416,0
-0.01464,-0.00244,0.01952,0.02684,0.03416,-0.0244,-0.00488,0.00488,0,0.00976,-0.03416,0
-0.01464,-0.00244,0.01952,0.02684,0.03416,-0.0244,-0.01464,0,0,0,-0.03904,-0.00976
-0.01952,0.00244,0.01464,0.0244,0.03416,-0.02684,-0.01464,-0.00488,-0.00488,0,-0.03904,-0.00976
-0.0244,0.00488,0.01464,0.02684,0.03904,-0.03172,-0.01952,-0.00488,-0.00488,0,-0.03904,-0.01952
-0.0244,0.00488,0.01464,0.02684,0.03904,-0.03172,-0.01952,-0.00488,-0.00488,0.00488,-0.03904,-0.01952
-0.01952,0.00244,0.01464,0.0244,0.03416,-0.02684,-0.01952,-0.00976,-0.00488,0,-0.03904,-0.01952
-0.01952,0.00244,0.01464,0.0244,0.03416,-0.02684,-0.01952,-0.00976,0,0.00488,-0.03904,-0.01952
-0.01952,0.00244,0.01464,0.0244,0.03416,-0.02684,-0.00976,0,0,0.00488,-0.03904,-0.00976
-0.01952,0.00244,0.01464,0.0244,0.03416,-0.02684,-0.00976,0,0,0.00488,-0.03904,-0.00976
-0.01464,0,0.01464,0.02196,0.02928,-0.02196,-0.01952,0,0,0.00488,-0.03904,-0.00488
-0.01464,0,0.01464,0.02196,0.02928,-0.02196,-0.01952,0.00488,0,0.00488,-0.03904,-0.00488
-0.01952,0,0.01952,0.02928,0.03904,-0.02928,-0.01952,0,0,0,-0.03904,-0.01952
-0.01952,0,0.01952,0.02928,0.03904,-0.02928,-0.01952,-0.00976,-0.00976,0,-0.03904,-0.01952
-0.01952,0,0.01952,0.02928,0.03904,-0.02928,-0.01952,-0.00976,-0.00976,0,-0.03904,-0.01952
-0.01952,0,0.01952,0.02928,0.03904,-0.02928,-0.01952,-0.01952,-0.00976,0,-0.0488,-0.01952
-0.01952,0,0.01952,0.02928,0.03904,-0.02928,-0.01952,-0.01952,-0.00976,0,-0.0488,-0.01952
-0.01464,-0.00732,0.02928,0.0366,0.04392,-0.02928,-0.0244,-0.01952,-0.01952,0,-0.0488,-0.01952
-0.01464,-0.00732,0.02928,0.0366,0.04392,-0.02928,-0.0244,-0.01952,-0.01952,0,-0.0488,-0.01952
-0.01464,-0.00244,0.01952,0.02684,0.03416,-0.0244,-0.01464,-0.00976,-0.00976,0,-0.03904,-0.00976
-0.01464,-0.00488,0.0244,0.03172,0.03904,-0.02684,-0.00976,-0.00976,-0.00976,0,-0.03904,-0.00976
-0.01464,-0.00488,0.0244,0.03172,0.03904,-0.02684,-0.01952,-0.00488,-0.01464,0.00488,-0.02928,-0.01952
-0.00976,-0.0122,0.03416,0.03904,0.04392,-0.02684,-0.00488,0.00976,0,0.00976,-0.0244,-0.01464
-0.00976,-0.01952,0.0488,0.05368,0.05856,-0.03416,0.00488,0.00976,0.00976,0.0244,-0.0244,-0.00488
-0.00488,-0.03172,0.06832,0.07076,0.0732,-0.03904,0.01952,0.01952,0.01952,0.03416,-0.01464,0
0,-0.04392,0.08784,0.08784,0.08784,-0.04392,0.03904,0.03416,0.03904,0.04392,-0.00976,0.00976
0,-0.05124,0.10248,0.10248,0.10248,-0.05124,0.05368,0.0488,0.0488,0.05368,0,0.01952
0.00488,-0.061,0.11712,0.11468,0.11224,-0.05368,0.0732,0.06832,0.05856,0.06344,0.00488,0.0244
0.00976,-0.06832,0.12688,0.122,0.11712,-0.05368,0.08296,0.0732,0.06832,0.06832,0.00976,0.0244
0.00976,-0.07076,0.13176,0.12688,0.122,-0.05612,0.08784,0.07808,0.0732,0.06832,0.00976,0.01952
0.00976,-0.07076,0.13176,0.12688,0.122,-0.05612,0.06832,0.06344,0.06344,0.06832,0.00976,0.01952
0.00976,-0.06344,0.11712,0.11224,0.10736,-0.0488,0.03416,0.02928,0.04392,0.05368,0.00976,0.01464
0.00488,-0.05612,0.10736,0.10492,0.10248,-0.0488,-0.00976,0,0.0244,0.04392,0.00488,0.01464
0.00488,-0.05124,0.0976,0.09516,0.09272,-0.04392,-0.0488,-0.02928,0.00488,0.03416,-0.00488,0.01464
0.00488,-0.0488,0.09272,0.09028,0.08784,-0.04148,-0.07808,-0.04392,0,0.02928,-0.00488,0.01464
0.00976,-0.0488,0.08784,0.08296,0.07808,-0.03416,-0.09272,-0.0488,-0.01952,0.02928,-0.00488,0.0244
0.01464,-0.0488,0.08296,0.07564,0.06832,-0.02684,-0.0976,-0.05368,-0.0244,0.01952,-0.00488,0.0244
0.00976,-0.0366,0.06344,0.05856,0.05368,-0.02196,-0.10736,-0.05368,-0.0244,0.01952,-0.00976,0.0244
0.01952,-0.03416,0.0488,0.03904,0.02928,-0.00488,-0.10248,-0.05368,-0.02928,0.01952,-0.00976,0.0244
0.02928,-0.03904,0.0488,0.03416,0.01952,0.00488,-0.09272,-0.0488,-0.01952,0.01464,-0.00976,0.01464
0.03904,-0.04636,0.05368,0.03416,0.01464,0.0122,-0.08296,-0.0488,-0.01952,0.01464,-0.01464,0.01464
0.04392,-0.0488,0.05368,0.03172,0.00976,0.01708,-0.07808,-0.04392,-0.01464,0.01464,-0.00976,0.01464
0.03416,-0.04392,0.05368,0.0366,0.01952,0.00732,-0.06832,-0.03904,-0.01464,0.01464,-0.00976,0.00976
0.01464,-0.02684,0.03904,0.03172,0.0244,-0.00488,-0.05856,-0.03904,-0.0244,0.01464,-0.01952,0.00976
-0.00488,-0.00976,0.0244,0.02684,0.02928,-0.01708,-0.0488,-0.03904,-0.03416,0,-0.02928,0
-0.01952,0.00488,0.00976,0.01952,0.02928,-0.0244,-0.03416,-0.03904,-0.03416,-0.00488,-0.03904,-0.01952
-0.02928,0.01464,0,0.01464,0.02928,-0.02928,-0.03416,-0.04392,-0.03416,-0.01464,-0.0488,-0.02928
-0.03416,0.01708,0,0.01708,0.03416,-0.03416,-0.03904,-0.04392,-0.04392,-0.0244,-0.05368,-0.03416
-0.03416,0.01952,-0.00488,0.0122,0.02928,-0.03172,-0.04392,-0.04392,-0.04392,-0.02928,-0.05368,-0.03416
-0.03416,0.01952,-0.00488,0.0122,0.02928,-0.03172,-0.04392,-0.05368,-0.04392,-0.02928,-0.05368,-0.03416
-0.03416,0.01952,-0.00488,0.0122,0.02928,-0.03172,-0.04392,-0.05368,-0.0488,-0.02928,-0.05856,-0.03416
-0.03416,0.01952,-0.00488,0.0122,0.02928,-0.03172,-0.04392,-0.0488,-0.0488,-0.02928,-0.05856,-0.03416
-0.03416,0.01708,0,0.01708,0.03416,-0.03416,-0.04392,-0.0488,-0.0488,-0.02928,-0.05856,-0.03904
-0.03416,0.01708,0,0.01708,0.03416,-0.03416,-0.03416,-0.03904,-0.03416,-0.01952,-0.05856,-0.03904
-0.04392,0.0366,-0.02928,-0.00732,0.01464,-0.02928,0.00488,0.00488,-0.01952,-0.02928,-0.07808,-0.0488
-0.05368,0.05124,-0.0488,-0.02196,0.00488,-0.02928,0.06344,0.07808,0.00488,-0.05856,-0.11712,-0.08784
-0.06832,0.07076,-0.0732,-0.03904,-0.00488,-0.03172,0.13664,0.17568,0.03416,-0.08296,-0.15616,-0.12688
-0.0732,0.07808,-0.08296,-0.04636,-0.00976,-0.03172,0.20008,0.2684,0.08296,-0.08296,-0.1708,-0.1464
-0.03904,0.03416,-0.02928,-0.00976,0.00976,-0.0244,0.21472,0.32696,0.1464,-0.01464,-0.11712,-0.11224
0.0244,-0.05612,0.08784,0.07564,0.06344,-0.01952,0.1464,0.3416,0.25376,0.15616,0.02928,0
0.11712,-0.1952,0.27328,0.21472,0.15616,-0.01952,0.03904,0.2928,0.38552,0.41968,0.25864,0.18544
0.22936,-0.36112,0.49288,0.3782,0.26352,-0.01708,-0.14152,0.0976,0.47336,0.732,0.54656,0.42944
0.31232,-0.51728,0.72224,0.56608,0.40992,-0.0488,-0.366,-0.244,0.488,1.02968,0.8296,0.66856
0.366,-0.6466,0.9272,0.7442,0.5612,-0.0976,-0.59536,-0.65392,0.4392,1.28344,1.08336,0.88328
0.34648,-0.70028,1.05408,0.88084,0.7076,-0.18056,-0.76616,-0.96136,0.33184,1.39568,1.21024,1.00528
0.28792,-0.64416,1.0004,0.85644,0.71248,-0.21228,-0.84424,-1.11264,0.16592,1.24928,1.14192,0.98088
0.18056,-0.48068,0.7808,0.69052,0.60024,-0.20984,-0.78568,-1.08824,-0.02928,0.8784,0.88328,0.80032
0.0976,-0.27572,0.45384,0.40504,0.35624,-0.12932,-0.68808,-0.95648,-0.24888,0.40992,0.51728,0.53192
0.03416,-0.08784,0.14152,0.12444,0.10736,-0.0366,-0.55632,-0.79056,-0.41968,-0.01464,0.16104,0.244
0.00488,0.01952,-0.04392,-0.04636,-0.0488,0.02684,-0.4392,-0.58072,-0.4392,-0.18056,-0.03416,0.06344
-0.01952,0.06588,-0.11224,-0.10248,-0.09272,0.0366,-0.30256,-0.366,-0.35136,-0.2196,-0.11712,-0.0488
-0.0244,0.06588,-0.10736,-0.09516,-0.08296,0.02928,-0.1708,-0.19032,-0.22448,-0.1708,-0.12688,-0.0732
-0.0244,0.05856,-0.09272,-0.08052,-0.06832,0.02196,-0.08784,-0.07808,-0.12688,-0.11712,-0.0976,-0.06832
-0.0244,0.04148,-0.05856,-0.04636,-0.03416,0.00488,-0.04392,-0.02928,-0.06832,-0.07808,-0.08784,-0.06344
-0.03416,0.04148,-0.0488,-0.03172,-0.01464,-0.00976,-0.01952,0.00488,-0.03416,-0.06344,-0.07808,-0.05856
-0.03416,0.0366,-0.03904,-0.02196,-0.00488,-0.01464,-0.00976,0.00976,-0.0244,-0.06344,-0.0732,-0.06832
-0.03904,0.03904,-0.03904,-0.01952,0,-0.01952,-0.00488,0.01952,-0.01952,-0.06344,-0.0732,-0.06344
-0.03904,0.03904,-0.03904,-0.01952,0,-0.01952,0.00488,0.01464,-0.01952,-0.06344,-0.08296,-0.06344
-0.03904,0.0366,-0.03416,-0.01464,0.00488,-0.02196,0.00488,0.01464,-0.01464,-0.06344,-0.08296,-0.06832
-0.03904,0.04148,-0.04392,-0.0244,-0.00488,-0.01708,0.00976,0.01952,-0.01464,-0.05856,-0.08296,-0.06832
-0.03904,0.04148,-0.04392,-0.0244,-0.00488,-0.01708,0.01464,0.0244,-0.01464,-0.05856,-0.08296,-0.06832
-0.03416,0.03904,-0.04392,-0.02684,-0.00976,-0.0122,0.01952,0.02928,-0.00976,-0.05856,-0.08784,-0.06832
-0.03904,0.03904,-0.03904,-0.01952,0,-0.01952,0.01952,0.03416,-0.00488,-0.05856,-0.08296,-0.06832
-0.0244,0.03172,-0.03904,-0.02684,-0.01464,-0.00488,0.03416,0.03416,0,-0.05856,-0.07808,-0.06832
-0.0244,0.03172,-0.03904,-0.02684,-0.01464,-0.00488,0.03416,0.03904,0,-0.05856,-0.07808,-0.06832
-0.02928,0.02928,-0.02928,-0.01464,0,-0.01464,0.03904,0.05368,0.01464,-0.05368,-0.0732,-0.06832
-0.02928,0.02928,-0.02928,-0.01464,0,-0.01464,0.03904,0.05856,0.01464,-0.05368,-0.0732,-0.06832
-0.03904,0.03416,-0.02928,-0.00976,0.00976,-0.0244,0.03904,0.05856,0.01952,-0.05368,-0.08296,-0.06832
-0.03904,0.03416,-0.02928,-0.00976,0.00976,-0.0244,0.03904,0.05856,0.01952,-0.05368,-0.08296,-0.06832
-0.03416,0.03172,-0.02928,-0.0122,0.00488,-0.01952,0.03904,0.0488,0.00976,-0.05368,-0.08784,-0.06832
-0.03416,0.03172,-0.02928,-0.0122,0.00488,-0.01952,0.03904,0.0488,0.00976,-0.0488,-0.08784,-0.06832
-0.03416,0.03172,-0.02928,-0.0122,0.00488,-0.01952,0.03904,0.0488,0.00976,-0.0488,-0.08784,-0.0732
-0.02928,0.02928,-0.02928,-0.01464,0,-0.01464,0.03904,0.0488,0.00976,-0.05368,-0.08784,-0.0732
-0.02928,0.03416,-0.03904,-0.0244,-0.00976,-0.00976,0.03904,0.05856,0.01464,-0.05368,-0.08784,-0.0732
-0.02928,0.03416,-0.03904,-0.0244,-0.00976,-0.00976,0.04392,0.06344,0.01464,-0.05368,-0.08784,-0.0732
-0.02928,0.03416,-0.03904,-0.0244,-0.00976,-0.00976,0.04392,0.06832,0.0244,-0.04392,-0.07808,-0.06344
-0.02928,0.03416,-0.03904,-0.0244,-0.00976,-0.00976,0.04392,0.06832,0.02928,-0.04392,-0.07808,-0.06344
-0.02928,0.03172,-0.03416,-0.01952,-0.00488,-0.0122,0.04392,0.06832,0.0244,-0.05368,-0.07808,-0.06344
-0.02928,0.03172,-0.03416,-0.01952,-0.00488,-0.0122,0.04392,0.07808,0.02928,-0.0488,-0.07808,-0.06344
-0.02928,0.02928,-0.02928,-0.01464,0,-0.01464,0.04392,0.07808,0.02928,-0.0488,-0.07808,-0.06344
-0.02928,0.02928,-0.02928,-0.01464,0,-0.01464,0.04392,0.07808,0.02928,-0.0488,-0.08296,-0.06344
-0.02928,0.02928,-0.02928,-0.01464,0,-0.01464,0.03904,0.08296,0.03416,-0.0488,-0.09272,-0.0732
-0.02928,0.02928,-0.02928,-0.01464,0,-0.01464,0.03904,0.08296,0.03416,-0.05368,-0.09272,-0.07808
-0.01464,0.02196,-0.02928,-0.02196,-0.01464,0,0.03904,0.08296,0.04392,-0.05368,-0.08784,-0.07808
-0.00976,0.01952,-0.02928,-0.0244,-0.01952,0.00488,0.03416,0.08296,0.04392,-0.0488,-0.08784,-0.07808
-0.00488,0.02196,-0.03904,-0.0366,-0.03416,0.01464,0.03416,0.08296,0.03904,-0.0488,-0.08784,-0.07808
0,0.01708,-0.03416,-0.03416,-0.03416,0.01708,0.02928,0.08784,0.03904,-0.0488,-0.08784,-0.07808
-0.00488,0.01952,-0.03416,-0.03172,-0.02928,0.0122,0.0244,0.09272,0.05856,-0.04392,-0.08296,-0.06832
-0.00488,0.01952,-0.03416,-0.03172,-0.02928,0.0122,0.0244,0.0976,0.06344,-0.03904,-0.07808,-0.06344
0.00976,0.00732,-0.0244,-0.02928,-0.03416,0.02196,0.01464,0.10736,0.0732,-0.02928,-0.0732,-0.05856
0.01464,0.00244,-0.01952,-0.02684,-0.03416,0.0244,0.00976,0.10736,0.07808,-0.0244,-0.06832,-0.05856
0.00976,0.00488,-0.01952,-0.0244,-0.02928,0.01952,0.01464,0.11224,0.08784,-0.01464,-0.06832,-0.06344
0.01464,0,-0.01464,-0.02196,-0.02928,0.02196,0.00488,0.11224,0.09272,-0.00488,-0.05368,-0.05856
0.0244,-0.00488,-0.01464,-0.02684,-0.03904,0.03172,-0.01464,0.11712,0.10248,0.00488,-0.0488,-0.05368
0.03416,-0.01708,0,-0.01708,-0.03416,0.03416,-0.0244,0.122,0.11224,0.01464,-0.03904,-0.04392
0.05368,-0.0366,0.01952,-0.00732,-0.03416,0.04392,-0.03416,0.122,0.122,0.03904,-0.0244,-0.0244
0.06344,-0.04636,0.02928,-0.00244,-0.03416,0.0488,-0.0488,0.122,0.12688,0.0488,-0.01464,-0.00976
0.0732,-0.05856,0.04392,0.00732,-0.02928,0.05124,-0.05856,0.122,0.13664,0.0732,0.00488,0.00488
0.08296,-0.0732,0.06344,0.02196,-0.01952,0.05124,-0.06832,0.122,0.1464,0.08784,0.0244,0.01952
0.09272,-0.08296,0.0732,0.02684,-0.01952,0.05612,-0.07808,0.13176,0.16592,0.10248,0.04392,0.03904
0.10248,-0.09516,0.08784,0.0366,-0.01464,0.05856,-0.09272,0.13176,0.1708,0.122,0.05856,0.05856
0.10248,-0.10004,0.0976,0.04636,-0.00488,0.05368,-0.10248,0.13176,0.18056,0.13664,0.08784,0.06344
0.10736,-0.11224,0.11712,0.06344,0.00976,0.0488,-0.11712,0.13176,0.1952,0.15616,0.11224,0.08784
0.11224,-0.11956,0.12688,0.07076,0.01464,0.0488,-0.12688,0.13176,0.20008,0.16104,0.11712,0.08784
0.11712,-0.12932,0.14152,0.08296,0.0244,0.04636,-0.13664,0.13176,0.20984,0.18056,0.13664,0.11224
0.12688,-0.14152,0.15616,0.09272,0.02928,0.0488,-0.1464,0.12688,0.20984,0.20008,0.1464,0.11712
0.12688,-0.1464,0.16592,0.10248,0.03904,0.04392,-0.1464,0.12688,0.20984,0.20984,0.15616,0.12688
0.13664,-0.15616,0.17568,0.10736,0.03904,0.0488,-0.14152,0.122,0.20984,0.20984,0.16592,0.12688
0.13664,-0.1586,0.18056,0.11224,0.04392,0.04636,-0.14152,0.122,0.20984,0.20984,0.16592,0.13176
0.12688,-0.15372,0.18056,0.11712,0.05368,0.0366,-0.12688,0.122,0.1952,0.20496,0.16592,0.13664
0.11712,-0.14884,0.18056,0.122,0.06344,0.02684,-0.11712,0.12688,0.18544,0.1952,0.15128,0.12688
0.0976,-0.12932,0.16104,0.11224,0.06344,0.01708,-0.0976,0.122,0.18056,0.1708,0.14152,0.12688
0.08784,-0.122,0.15616,0.11224,0.06832,0.00976,-0.07808,0.122,0.1708,0.15616,0.122,0.11712
0.0732,-0.1098,0.1464,0.1098,0.0732,0,-0.05856,0.122,0.15128,0.1464,0.11712,0.0976
0.05856,-0.09516,0.13176,0.10248,0.0732,-0.00732,-0.04392,0.11712,0.14152,0.13176,0.0976,0.08296
0.05368,-0.09028,0.12688,0.10004,0.0732,-0.00976,-0.03416,0.11224,0.11224,0.10248,0.0732,0.06344
0.04392,-0.08052,0.11712,0.09516,0.0732,-0.01464,-0.01952,0.10248,0.10248,0.08784,0.05368,0.05368
0.03416,-0.06588,0.0976,0.08052,0.06344,-0.01464,-0.01464,0.08784,0.08296,0.06832,0.03904,0.04392
0.0244,-0.05856,0.09272,0.08052,0.06832,-0.02196,-0.00488,0.07808,0.07808,0.05856,0.02928,0.02928
0.01952,-0.04636,0.0732,0.06344,0.05368,-0.01708,0,0.0732,0.06344,0.04392,0.01952,0.01952
0.01952,-0.04148,0.06344,0.05368,0.04392,-0.0122,0.00488,0.06344,0.05368,0.03416,0.00976,0.00976
0.01464,-0.03416,0.05368,0.04636,0.03904,-0.0122,0.00488,0.05368,0.04392,0.0244,0,0.00488
0.01464,-0.02928,0.04392,0.0366,0.02928,-0.00732,0.00488,0.04392,0.03416,0.01464,-0.00976,0
0.01464,-0.02684,0.03904,0.03172,0.0244,-0.00488,0.00488,0.03416,0.02928,0.00488,-0.01464,-0.00488
0.00976,-0.0244,0.03904,0.03416,0.02928,-0.00976,0.00488,0.02928,0.0244,0,-0.01952,-0.00488
0.00976,-0.01708,0.0244,0.01952,0.01464,-0.00244,0.00976,0.02928,0.01952,0,-0.01952,-0.00976
0.00976,-0.01708,0.0244,0.01952,0.01464,-0.00244,0.00976,0.02928,0.01464,0,-0.01952,-0.00976
0.00488,-0.0122,0.01952,0.01708,0.01464,-0.00488,0.00976,0.0244,0.01464,-0.00488,-0.01952,-0.01464
0.00488,-0.0122,0.01952,0.01708,0.01464,-0.00488,0.00976,0.0244,0.01464,-0.00488,-0.0244,-0.01464
0,-0.00976,0.01952,0.01952,0.01952,-0.00976,0.00976,0.03416,0.01464,-0.00488,-0.0244,-0.0244
0,-0.00732,0.01464,0.01464,0.01464,-0.00732,0.00976,0.03416,0.01464,-0.00488,-0.0244,-0.0244
0,-0.00976,0.01952,0.01952,0.01952,-0.00976,0.00976,0.02928,0.00976,-0.01952,-0.01952,-0.0244
-0.00488,-0.00732,0.01952,0.02196,0.0244,-0.01464,0.00976,0.02928,0.00976,-0.01952,-0.01952,-0.02928
0.00488,-0.00976,0.01464,0.0122,0.00976,-0.00244,0.00976,0.02928,0.00976,-0.01464,-0.01952,-0.01952
0.00488,-0.00976,0.01464,0.0122,0.00976,-0.00244,0.00976,0.0244,0.00488,-0.01464,-0.0244,-0.01952
0.00976,-0.01464,0.01952,0.01464,0.00976,0,0.00976,0.0244,0.00488,-0.01464,-0.01464,-0.01952
0.00976,-0.01464,0.01952,0.01464,0.00976,0,0.00976,0.0244,0.00488,-0.01464,-0.01464,-0.01952
0.00976,-0.00976,0.00976,0.00488,0,0.00488,0.00976,0.0244,0.00488,-0.01464,-0.01464,-0.01952
0.00976,-0.00976,0.00976,0.00488,0,0.00488,0.00976,0.0244,0.00488,-0.01464,-0.00976,-0.01952
0,-0.00488,0.00976,0.00976,0.00976,-0.00488,0.00976,0.0244,0.01464,-0.00976,-0.00976,-0.01952
0,-0.00488,0.00976,0.00976,0.00976,-0.00488,0.00488,0.0244,0.01464,-0.00976,-0.00976,-0.01464
-0.00488,-0.00244,0.00976,0.0122,0.01464,-0.00976,0.00488,0.0244,0.01952,-0.00976,-0.01952,-0.01464
-0.00488,-0.00244,0.00976,0.0122,0.01464,-0.00976,0.00488,0.0244,0.01952,-0.00976,-0.01952,-0.01464
0.00488,-0.00488,0.00488,0.00244,0,0.00244,0.00488,0.02928,0.00976,-0.00976,-0.01952,-0.0244
0.00488,-0.00488,0.00488,0.00244,0,0.00244,0.00488,0.02928,0.00976,-0.00976,-0.01952,-0.0244
0.00488,-0.00488,0.00488,0.00244,0,0.00244,0.00488,0.0244,0.00976,-0.00976,-0.01952,-0.01464
0.00488,-0.00244,0,-0.00244,-0.00488,0.00488,0.00488,0.0244,0.00976,-0.00976,-0.01952,-0.01464
0.00976,-0.00976,0.00976,0.00488,0,0.00488,0.00488,0.02928,0.00976,-0.00976,-0.01952,-0.01464
0.00976,-0.00976,0.00976,0.00488,0,0.00488,0.00488,0.02928,0.01464,-0.00488,-0.01952,-0.01464
0.00488,-0.00732,0.00976,0.00732,0.00488,0,-0.00488,0.02928,0.01464,-0.00488,-0.01952,-0.01464
0.00488,-0.00732,0.00976,0.00732,0.00488,0,0,0.03416,0.01464,-0.00488,-0.01952,-0.01464
0.00488,-0.00732,0.00976,0.00732,0.00488,0,0,0.03416,0.01464,-0.00488,-0.01952,-0.00488
0.00488,-0.00976,0.01464,0.0122,0.00976,-0.00244,0,0.03904,0.01464,-0.00488,-0.01952,-0.00976
0.00488,-0.00976,0.01464,0.0122,0.00976,-0.00244,0.01464,0.04392,0.02928,0.00488,-0.00976,0
0,-0.00732,0.01464,0.01464,0.01464,-0.00732,0.01464,0.04392,0.02928,0.00488,-0.00976,0
-0.00976,0.00244,0.00488,0.00976,0.01464,-0.0122,0.01464,0.05368,0.02928,0.00488,-0.00976,-0.00976
-0.00976,0.00244,0.00488,0.00976,0.01464,-0.0122,0.01464,0.05856,0.02928,0.00488,-0.00976,-0.00976
0,0.00244,-0.00488,-0.00488,-0.00488,0.00244,0.00488,0.0488,0.02928,-0.00488,-0.00976,-0.01952
0,0.00244,-0.00488,-0.00488,-0.00488,0.00244,0.00976,0.0488,0.02928,-0.00976,-0.00976,-0.01952
0,0.00244,-0.00488,-0.00488,-0.00488,0.00244,0.00976,0.0488,0.02928,0,-0.00976,-0.01952
0,0.00244,-0.00488,-0.00488,-0.00488,0.00244,0.01464,0.05368,0.02928,0,-0.01464,-0.01952
0,0.00244,-0.00488,-0.00488,-0.00488,0.00244,0.01464,0.05368,0.0244,-0.00488,-0.01464,-0.00976
0.00488,0,-0.00488,-0.00732,-0.00976,0.00732,0.01464,0.05368,0.0244,-0.00488,-0.01464,-0.00976
0,0.00244,-0.00488,-0.00488,-0.00488,0.00244,0.0244,0.06832,0.03416,0.00488,-0.00976,0
0,0.00244,-0.00488,-0.00488,-0.00488,0.00244,0.0244,0.06832,0.03416,0.00488,-0.00976,0
0,-0.00244,0.00488,0.00488,0.00488,-0.00244,0.01952,0.06832,0.03416,0,-0.00976,0
0,-0.00244,0.00488,0.00488,0.00488,-0.00244,0.01952,0.06832,0.03416,0,-0.00976,0
0.00488,-0.00488,0.00488,0.00244,0,0.00244,0.01952,0.06832,0.03416,0,-0.00976,-0.00976
0.00488,-0.00488,0.00488,0.00244,0,0.00244,0.01952,0.06832,0.03416,0.00488,-0.00976,-0.00976
0.00488,-0.00488,0.00488,0.00244,0,0.00244,0.01464,0.05856,0.0244,-0.00488,-0.01952,-0.00976
0.00976,-0.00732,0.00488,0,-0.00488,0.00732,0.01464,0.05856,0.0244,-0.00488,-0.01952,-0.00976
0,-0.00244,0.00488,0.00488,0.00488,-0.00244,0.01952,0.0488,0.01952,-0.01464,-0.01952,-0.01952
0,-0.00244,0.00488,0.00488,0.00488,-0.00244,0.01952,0.0488,0.01952,-0.01952,-0.01952,-0.01952
0.00488,0,-0.00488,-0.00732,-0.00976,0.00732,0.01952,0.0488,0.0244,-0.01952,-0.00976,-0.00976
0.00488,-0.00244,0,-0.00244,-0.00488,0.00488,0.01464,0.04392,0.0244,-0.01952,-0.00976,-0.00976
0.00488,-0.00244,0,-0.00244,-0.00488,0.00488,0.01952,0.04392,0.01464,-0.00976,0,0.00488
0.00488,-0.00244,0,-0.00244,-0.00488,0.00488,0.01952,0.04392,0.01464,-0.00976,0.00488,0.00488
-0.00488,0.00244,0,0.00244,0.00488,-0.00488,0.01952,0.03904,0.01464,-0.00976,0.00488,0.00488
-0.00488,0.00244,0,0.00244,0.00488,-0.00488,0.01952,0.03904,0.01464,-0.00976,0.00488,0.00488
-0.00488,0.00244,0,0.00244,0.00488,-0.00488,0.01464,0.03904,0.01464,0,0.00488,0.00976
-0.00488,0.00244,0,0.00244,0.00488,-0.00488,0.01464,0.03416,0.01464,0,0.00976,0.00976
0.00488,-0.00244,0,-0.00244,-0.00488,0.00488,0.01464,0.04392,0.01952,0,0.00976,0.00976
0.00488,-0.00488,0.00488,0.00244,0,0.00244,0.01464,0.03904,0.01464,0,0.00976,0.00976
0.01464,-0.00732,0,-0.00732,-0.01464,0.01464,0.01464,0.03416,0.01464,0,0.00976,0.00976
0.01464,-0.00732,0,-0.00732,-0.01464,0.01464,0.01464,0.03416,0.00976,0,0.00976,0.00976
0.01464,-0.00732,0,-0.00732,-0.01464,0.01464,0.00488,0.0244,0.00976,0,0.00976,0.00976
0.01464,-0.00732,0,-0.00732,-0.01464,0.01464,0.00488,0.01952,0.00488,0,0.00976,0.00976
0.00976,-0.00732,0.00488,0,-0.00488,0.00732,0.01464,0.01952,0.00488,0,0.00976,0.00976
0.00976,-0.00732,0.00488,0,-0.00488,0.00732,0.00976,0.01464,0.00488,0,0.00976,0.00976
0.00488,0,-0.00488,-0.00732,-0.00976,0.00732,0.00976,0.0244,0.00488,0,0.00976,0.00976
0.00488,0.00244,-0.00976,-0.0122,-0.01464,0.00976,0.00488,0.0244,0.00488,0,0.00976,0.00976
0.01464,-0.00244,-0.00976,-0.01708,-0.0244,0.01952,0,0.01464,0.00488,0,0.01464,0.00976
0.01464,-0.00244,-0.00976,-0.01708,-0.0244,0.01952,0.00488,0.01464,0.00488,0,0.01464,0.00976
0.01464,-0.00244,-0.00976,-0.01708,-0.0244,0.01952,0.00488,0.01464,0.00488,0,0.01464,0.00976
0.01464,-0.00244,-0.00976,-0.01708,-0.0244,0.01952,0.00488,0.01464,0,0,0.01464,0.00976
0.00488,0.00244,-0.00976,-0.0122,-0.01464,0.00976,0.00488,0.00976,-0.00976,0,0.00976,0.00976
0,0.00732,-0.01464,-0.01464,-0.01464,0.00732,0.00488,0.00488,-0.01464,0,0.00976,0.00976
0.00488,0.00488,-0.01464,-0.01708,-0.01952,0.0122,0,0.00488,-0.00488,0,0.01952,0.00976
0.00488,0.00488,-0.01464,-0.01708,-0.01952,0.0122,0,0.00488,-0.00488,0.00488,0.01952,0.00976
0.00976,0.00732,-0.0244,-0.02928,-0.03416,0.02196,0,0.00976,-0.00488,0,0.01952,0.00976
0.00976,0.00732,-0.0244,-0.02928,-0.03416,0.02196,0,0.00976,0,0.00488,0.01952,0.00976
0.00976,0.00732,-0.0244,-0.02928,-0.03416,0.02196,0,0.01952,0,0.00488,0.01952,0.01952
0.00976,0.00732,-0.0244,-0.02928,-0.03416,0.02196,0,0.01952,0,0.00488,0.01952,0.01952
0.00488,0.00976,-0.0244,-0.02684,-0.02928,0.01708,0.00976,0.01952,0,0.00488,0.01952,0.0244
0.00488,0.00976,-0.0244,-0.02684,-0.02928,0.01708,0.00976,0.0244,0,0.00488,0.01952,0.0244
0.00976,0.00488,-0.01952,-0.0244,-0.02928,0.01952,0.00976,0.01952,0,0.00976,0.02928,0.01952
0.00976,0.00976,-0.02928,-0.03416,-0.03904,0.0244,0,0.01952,0,0,0.01952,0.01952
0.00976,0.00976,-0.02928,-0.03416,-0.03904,0.0244,0,0.01952,0,0,0.01952,0.01952
0.00976,0.01464,-0.03904,-0.04392,-0.0488,0.02928,0,0.01952,0,0,0.01952,0.01952
0.00976,0.01464,-0.03904,-0.04392,-0.0488,0.02928,0,0.01952,0,0,0.01952,0.01952
0.01464,0.0122,-0.03904,-0.04636,-0.05368,0.03416,0.00488,0.01952,0,0.00976,0.01952,0.01952
0.01464,0.0122,-0.03904,-0.04636,-0.05368,0.03416,0.00488,0.01952,0,0.00976,0.01952,0.01952
0.01464,0.0122,-0.03904,-0.04636,-0.05368,0.03416,0.00488,0.01952,0,0.00976,0.01952,0.01952
0.01464,0.00976,-0.03416,-0.04148,-0.0488,0.03172,0.00976,0.01952,0,0.00976,0.01952,0.01952
0.00488,0.01464,-0.03416,-0.0366,-0.03904,0.02196,0.00976,0.01464,0.00488,0.01464,0.02928,0.01952
0.00976,0.00732,-0.0244,-0.02928,-0.03416,0.02196,0.0244,0.02928,0.01952,0.01952,0.03416,0.0244
0.00976,0,-0.00976,-0.01464,-0.01952,0.01464,0.0244,0.03904,0.01952,0.0244,0.03416,0.0244
0.01464,-0.0122,0.00976,0.00244,-0.00488,0.00976,0.03904,0.0488,0.02928,0.03416,0.04392,0.02928
0.01952,-0.01952,0.01952,0.00976,0,0.00976,0.0488,0.05368,0.03904,0.03416,0.03904,0.02928
0.01952,-0.02684,0.03416,0.0244,0.01464,0.00244,0.06344,0.06832,0.0488,0.04392,0.0488,0.03904
0.0244,-0.04148,0.05856,0.04636,0.03416,-0.00488,0.08296,0.08784,0.06832,0.06344,0.06344,0.05368
0.02928,-0.0488,0.06832,0.05368,0.03904,-0.00488,0.09272,0.09272,0.07808,0.06832,0.06832,0.05368
0.03904,-0.05612,0.0732,0.05368,0.03416,0.00244,0.10736,0.10736,0.08296,0.07808,0.06832,0.05856
0.03904,-0.05612,0.0732,0.05368,0.03416,0.00244,0.0976,0.09272,0.0732,0.07808,0.06832,0.05856
0.03904,-0.05368,0.06832,0.0488,0.02928,0.00488,0.0732,0.06832,0.06344,0.06344,0.05856,0.05368
0.03416,-0.04636,0.05856,0.04148,0.0244,0.00488,0.03904,0.0488,0.05368,0.05368,0.05368,0.05368
0.03416,-0.0366,0.03904,0.02196,0.00488,0.01464,-0.00976,0.00976,0.03416,0.04392,0.05368,0.05368
0.03416,-0.03416,0.03416,0.01708,0,0.01708,-0.03904,-0.00488,0.02928,0.03904,0.05368,0.05368
0.02928,-0.0244,0.01952,0.00488,-0.00976,0.01952,-0.06344,-0.01952,0.00976,0.02928,0.05368,0.05368
0.03416,-0.0244,0.01464,-0.00244,-0.01952,0.02684,-0.07808,-0.0244,0.00488,0.01952,0.05368,0.05368
0.03904,-0.02196,0.00488,-0.01464,-0.03416,0.0366,-0.08784,-0.03416,-0.00488,0.01952,0.0488,0.05368
0.0488,-0.01952,-0.00976,-0.03416,-0.05856,0.05368,-0.08296,-0.03416,-0.01952,0.01952,0.0488,0.05368
0.05856,-0.01952,-0.01952,-0.0488,-0.07808,0.06832,-0.08296,-0.02928,-0.00976,0.01464,0.0488,0.05368
0.06832,-0.02684,-0.01464,-0.0488,-0.08296,0.07564,-0.0732,-0.02928,-0.00976,0.01464,0.04392,0.05368
0.0732,-0.03416,-0.00488,-0.04148,-0.07808,0.07564,-0.06832,-0.0244,-0.00488,0.01464,0.0488,0.04392
0.06344,-0.02928,-0.00488,-0.0366,-0.06832,0.06588,-0.05856,-0.01952,-0.00488,0.01464,0.0488,0.03904
0.05368,-0.02196,-0.00976,-0.0366,-0.06344,0.05856,-0.0488,-0.01952,0.00488,0.0244,0.0488,0.03904
0.04392,-0.00976,-0.0244,-0.04636,-0.06832,0.05612,-0.03904,-0.01952,-0.00488,0.00976,0.03904,0.02928
0.01952,0.00488,-0.02928,-0.03904,-0.0488,0.03416,-0.03416,-0.01952,-0.01464,0.00488,0.02928,0.02928
0.00976,0.01464,-0.03904,-0.04392,-0.0488,0.02928,-0.03416,-0.0244,-0.01464,-0.00488,0.01952,0.01952
0.00488,0.02196,-0.0488,-0.05124,-0.05368,0.02928,-0.01952,-0.0244,-0.0244,-0.01464,0.00488,0.00488
0.00488,0.0244,-0.05368,-0.05612,-0.05856,0.03172,-0.0244,-0.0244,-0.0244,-0.01952,0.00488,0.00488
-0.00488,0.02928,-0.05368,-0.05124,-0.0488,0.02196,-0.0244,-0.0244,-0.0244,-0.01952,-0.00488,-0.00488
-0.00488,0.02928,-0.05368,-0.05124,-0.0488,0.02196,-0.0244,-0.0244,-0.02928,-0.01952,-0.00976,-0.00488
-0.01464,0.03904,-0.06344,-0.05612,-0.0488,0.01708,-0.03416,-0.02928,-0.02928,-0.01952,0,-0.00488
-0.01464,0.0366,-0.05856,-0.05124,-0.04392,0.01464,-0.03416,-0.02928,-0.02928,-0.01952,0,-0.00976
-0.00488,0.03172,-0.05856,-0.05612,-0.05368,0.0244,-0.03416,-0.01952,-0.0244,-0.01952,0,0
-0.01464,0.04148,-0.06832,-0.061,-0.05368,0.01952,-0.01464,0.00488,-0.01952,-0.01952,-0.00976,-0.00976
-0.0244,0.05612,-0.08784,-0.07564,-0.06344,0.01952,0.04392,0.06832,0.00488,-0.03904,-0.03904,-0.03904
-0.03904,0.07564,-0.11224,-0.09272,-0.0732,0.01708,0.11712,0.15616,0.04392,-0.06344,-0.07808,-0.07808
-0.05368,0.08784,-0.122,-0.09516,-0.06832,0.00732,0.19032,0.25864,0.08296,-0.0732,-0.11224,-0.10736
-0.03904,0.06832,-0.0976,-0.07808,-0.05856,0.00976,0.22448,0.32696,0.13664,-0.03416,-0.08784,-0.10248
0.0244,-0.00732,-0.00976,-0.02196,-0.03416,0.02928,0.1952,0.36112,0.22448,0.08784,0.01952,-0.01952
0.10736,-0.12688,0.1464,0.09272,0.03904,0.03416,0.10736,0.35136,0.33672,0.31232,0.2196,0.13664
0.2196,-0.2928,0.366,0.2562,0.1464,0.0366,-0.04392,0.21472,0.45384,0.59536,0.488,0.36112
0.32208,-0.45384,0.5856,0.42456,0.26352,0.02928,-0.24888,-0.06832,0.50752,0.89304,0.76128,0.60024
0.39528,-0.5978,0.80032,0.60268,0.40504,-0.00488,-0.488,-0.44896,0.47824,1.1468,1.03456,0.83448
0.39528,-0.67588,0.95648,0.75884,0.5612,-0.08296,-0.68808,-0.8052,0.40016,1.32736,1.21024,0.99552
0.34648,-0.6588,0.97112,0.79788,0.62464,-0.13908,-0.79544,-1.01504,0.27328,1.27856,1.22976,1.03944
0.24888,-0.53436,0.81984,0.6954,0.57096,-0.16104,-0.78568,-1.05896,0.08784,0.99552,1.01992,0.89792
0.1464,-0.33428,0.52216,0.44896,0.37576,-0.11468,-0.7076,-0.976,-0.13176,0.55632,0.6832,0.64904
0.0732,-0.13176,0.19032,0.15372,0.11712,-0.02196,-0.5856,-0.83936,-0.33184,0.122,0.3172,0.36112
0.0244,0.00976,-0.04392,-0.05612,-0.06832,0.04636,-0.46848,-0.64904,-0.42944,-0.13176,0.05368,0.13176
0.00976,0.07076,-0.15128,-0.15616,-0.16104,0.0854,-0.35136,-0.44408,-0.37088,-0.20984,-0.05856,0.00976
-0.00488,0.09028,-0.17568,-0.17324,-0.1708,0.08296,-0.2196,-0.24888,-0.25376,-0.18056,-0.08784,-0.03416
-0.01464,0.08296,-0.15128,-0.14396,-0.13664,0.061,-0.10736,-0.10736,-0.13664,-0.11712,-0.06832,-0.03904
-0.00488,0.06588,-0.12688,-0.12444,-0.122,0.05856,-0.05368,-0.02928,-0.06832,-0.08784,-0.0488,-0.04392
-0.00488,0.05124,-0.0976,-0.09516,-0.09272,0.04392,-0.01952,0.00488,-0.03416,-0.06344,-0.03904,-0.02928
-0.01464,0.05124,-0.08784,-0.08052,-0.0732,0.02928,0,0.01952,-0.01464,-0.05368,-0.03416,-0.02928
-0.01952,0.05368,-0.08784,-0.07808,-0.06832,0.0244,0.00488,0.02928,-0.00976,-0.05368,-0.03416,-0.0244
-0.01952,0.05368,-0.08784,-0.07808,-0.06832,0.0244,0.00488,0.03416,0,-0.04392,-0.04392,-0.03416
-0.01952,0.05124,-0.08296,-0.0732,-0.06344,0.02196,0.00488,0.03416,0.00488,-0.04392,-0.04392,-0.03904
-0.00976,0.04636,-0.08296,-0.07808,-0.0732,0.03172,0.01952,0.03904,-0.00488,-0.0488,-0.04392,-0.03904
-0.00976,0.04636,-0.08296,-0.07808,-0.0732,0.03172,0.0244,0.04392,-0.00488,-0.0488,-0.04392,-0.03904
-0.00488,0.04392,-0.08296,-0.08052,-0.07808,0.0366,0.02928,0.0488,0.00976,-0.0488,-0.0488,-0.03904
-0.00976,0.04392,-0.07808,-0.0732,-0.06832,0.02928,0.02928,0.05368,0.01464,-0.0488,-0.04392,-0.03904
-0.01464,0.04636,-0.07808,-0.07076,-0.06344,0.0244,0.03416,0.05368,0.01952,-0.03904,-0.03904,-0.03904
-0.01464,0.04636,-0.07808,-0.07076,-0.06344,0.0244,0.03416,0.05856,0.01952,-0.03904,-0.03904,-0.03904
-0.00976,0.04392,-0.07808,-0.0732,-0.06832,0.02928,0.03904,0.06344,0.0244,-0.04392,-0.04392,-0.03904
-0.00976,0.04392,-0.07808,-0.0732,-0.06832,0.02928,0.03904,0.06832,0.0244,-0.04392,-0.04392,-0.03904
-0.01952,0.0488,-0.07808,-0.06832,-0.05856,0.01952,0.03904,0.06832,0.02928,-0.04392,-0.04392,-0.0488
-0.01952,0.0488,-0.07808,-0.06832,-0.05856,0.01952,0.03904,0.06832,0.02928,-0.04392,-0.04392,-0.0488
-0.01464,0.05124,-0.08784,-0.08052,-0.0732,0.02928,0.03904,0.06832,0.02928,-0.04392,-0.0488,-0.0488
-0.01464,0.05124,-0.08784,-0.08052,-0.0732,0.02928,0.03904,0.06832,0.02928,-0.03904,-0.0488,-0.0488
-0.01464,0.04636,-0.07808,-0.07076,-0.06344,0.0244,0.03904,0.06832,0.02928,-0.03904,-0.03904,-0.04392
-0.00976,0.04392,-0.07808,-0.0732,-0.06832,0.02928,0.03904,0.06832,0.02928,-0.04392,-0.03904,-0.04392
-0.00976,0.04392,-0.07808,-0.0732,-0.06832,0.02928,0.0488,0.06832,0.03416,-0.03416,-0.03904,-0.04392
-0.00976,0.04392,-0.07808,-0.0732,-0.06832,0.02928,0.05368,0.0732,0.03416,-0.03416,-0.03904,-0.04392
-0.00976,0.04392,-0.07808,-0.0732,-0.06832,0.02928,0.05368,0.07808,0.03416,-0.03416,-0.03904,-0.03416
-0.00976,0.04392,-0.07808,-0.0732,-0.06832,0.02928,0.05368,0.07808,0.03904,-0.03416,-0.03904,-0.03416
-0.00976,0.04148,-0.0732,-0.06832,-0.06344,0.02684,0.05368,0.08784,0.04392,-0.03416,-0.03904,-0.03416
-0.00976,0.04148,-0.0732,-0.06832,-0.06344,0.02684,0.05368,0.0976,0.0488,-0.02928,-0.03904,-0.03416
0,0.03904,-0.07808,-0.07808,-0.07808,0.03904,0.05368,0.08784,0.0488,-0.02928,-0.03904,-0.04392
0,0.03904,-0.07808,-0.07808,-0.07808,0.03904,0.05368,0.08784,0.0488,-0.02928,-0.04392,-0.04392
-0.00976,0.04392,-0.07808,-0.0732,-0.06832,0.02928,0.0488,0.09272,0.05368,-0.02928,-0.05368,-0.04392
-0.00976,0.04392,-0.07808,-0.0732,-0.06832,0.02928,0.0488,0.09272,0.05368,-0.03416,-0.05368,-0.0488
-0.00488,0.04148,-0.07808,-0.07564,-0.0732,0.03416,0.03904,0.09272,0.05368,-0.03416,-0.05856,-0.0488
0,0.03904,-0.07808,-0.07808,-0.07808,0.03904,0.03416,0.09272,0.05368,-0.02928,-0.05856,-0.0488
0.00488,0.0366,-0.07808,-0.08052,-0.08296,0.04392,0.04392,0.09272,0.05856,-0.02928,-0.0488,-0.0488
0.00976,0.03172,-0.0732,-0.07808,-0.08296,0.04636,0.03904,0.0976,0.05856,-0.02928,-0.0488,-0.0488
0.01464,0.02928,-0.0732,-0.08052,-0.08784,0.05124,0.03416,0.10248,0.06832,-0.0244,-0.04392,-0.0488
0.01464,0.02928,-0.0732,-0.08052,-0.08784,0.05124,0.03416,0.10736,0.0732,-0.01952,-0.03904,-0.04392
0.01952,0.02196,-0.06344,-0.0732,-0.08296,0.05124,0.0244,0.11712,0.08296,-0.00976,-0.03416,-0.02928
0.0244,0.01708,-0.05856,-0.07076,-0.08296,0.05368,0.01952,0.11712,0.08784,-0.00488,-0.02928,-0.02928
0.02928,0.01464,-0.05856,-0.0732,-0.08784,0.05856,0.0244,0.122,0.0976,0.00488,-0.03904,-0.03416
0.03416,0.00976,-0.05368,-0.07076,-0.08784,0.061,0.01464,0.122,0.10248,0.01464,-0.0244,-0.02928
0.04392,0.00488,-0.05368,-0.07564,-0.0976,0.07076,0.00488,0.12688,0.11224,0.0244,-0.01952,-0.0244
0.05368,-0.00732,-0.03904,-0.06588,-0.09272,0.0732,-0.00488,0.13176,0.122,0.03416,-0.00976,-0.01464
0.06344,-0.0122,-0.03904,-0.07076,-0.10248,0.08296,-0.0244,0.122,0.122,0.0488,0.01464,-0.00488
0.0732,-0.02196,-0.02928,-0.06588,-0.10248,0.08784,-0.03904,0.122,0.12688,0.05856,0.0244,0.00976
0.08296,-0.03416,-0.01464,-0.05612,-0.0976,0.09028,-0.05856,0.122,0.13664,0.0732,0.03416,0.01464
0.09272,-0.0488,0.00488,-0.04148,-0.08784,0.09028,-0.06832,0.122,0.1464,0.08784,0.05368,0.02928
0.10248,-0.06344,0.0244,-0.02684,-0.07808,0.09028,-0.07808,0.122,0.15616,0.10248,0.06344,0.0488
0.11224,-0.07564,0.03904,-0.01708,-0.0732,0.09272,-0.09272,0.122,0.16104,0.122,0.07808,0.06832
0.122,-0.09028,0.05856,-0.00244,-0.06344,0.09272,-0.10248,0.122,0.1708,0.13664,0.0976,0.0732
0.12688,-0.10248,0.07808,0.01464,-0.0488,0.08784,-0.11712,0.122,0.18544,0.15616,0.122,0.0976
0.122,-0.10492,0.08784,0.02684,-0.03416,0.07808,-0.11712,0.122,0.19032,0.1708,0.13664,0.10736
0.12688,-0.11468,0.10248,0.03904,-0.0244,0.07564,-0.12688,0.122,0.20008,0.19032,0.15616,0.13176
0.1464,-0.13176,0.11712,0.04392,-0.02928,0.08784,-0.13664,0.11712,0.20984,0.20984,0.16592,0.13664
0.1464,-0.13664,0.12688,0.05368,-0.01952,0.08296,-0.13664,0.11712,0.20984,0.2196,0.17568,0.1464
0.1464,-0.1464,0.1464,0.0732,0,0.0732,-0.14152,0.11224,0.20984,0.2196,0.18544,0.15616
0.1464,-0.14884,0.15128,0.07808,0.00488,0.07076,-0.14152,0.11224,0.20984,0.2196,0.18544,0.16104
0.13664,-0.14396,0.15128,0.08296,0.01464,0.061,-0.12688,0.11224,0.20496,0.21472,0.1952,0.15616
0.12688,-0.13908,0.15128,0.08784,0.0244,0.05124,-0.11712,0.11712,0.1952,0.20496,0.18056,0.1464
0.11712,-0.12932,0.14152,0.08296,0.0244,0.04636,-0.10736,0.122,0.18056,0.19032,0.1708,0.13664
0.10736,-0.122,0.13664,0.08296,0.02928,0.03904,-0.08784,0.122,0.1708,0.17568,0.15128,0.12688
0.09272,-0.1098,0.12688,0.08052,0.03416,0.02928,-0.06832,0.122,0.16104,0.15616,0.13664,0.11712
0.07808,-0.09516,0.11224,0.0732,0.03416,0.02196,-0.05368,0.11712,0.15128,0.14152,0.11712,0.10248
0.06344,-0.08052,0.0976,0.06588,0.03416,0.01464,-0.03416,0.11224,0.13176,0.122,0.10248,0.08296
0.05368,-0.07076,0.08784,0.061,0.03416,0.00976,-0.01952,0.10248,0.122,0.10736,0.08296,0.0732
0.04392,-0.05612,0.06832,0.04636,0.0244,0.00976,-0.00488,0.0976,0.10248,0.08784,0.05856,0.05368
0.03416,-0.0488,0.06344,0.04636,0.02928,0.00244,0.00488,0.08784,0.0976,0.07808,0.0488,0.03904
0.02928,-0.04148,0.05368,0.03904,0.0244,0.00244,0.00976,0.08296,0.08296,0.06344,0.03904,0.02928
0.02928,-0.0366,0.04392,0.02928,0.01464,0.00732,0.01464,0.0732,0.0732,0.05368,0.02928,0.01952
0.01464,-0.0244,0.03416,0.02684,0.01952,-0.00244,0.01464,0.06344,0.06344,0.04392,0.01952,0.01464
0.01464,-0.01952,0.0244,0.01708,0.00976,0.00244,0.01464,0.05368,0.05368,0.03416,0.00976,0.00976
0.0244,-0.02196,0.01952,0.00732,-0.00488,0.01464,0.01464,0.05368,0.03904,0.0244,0.00488,0.00488
0.01952,-0.01952,0.01952,0.00976,0,0.00976,0.01464,0.0488,0.03416,0.01952,0,0.00488
0.01952,-0.01708,0.01464,0.00488,-0.00488,0.0122,0.01952,0.0488,0.03904,0.00976,0,0
0.01952,-0.01708,0.01464,0.00488,-0.00488,0.0122,0.01952,0.0488,0.03416,0.00976,0,0
0.01464,-0.0122,0.00976,0.00244,-0.00488,0.00976,0.01952,0.04392,0.03416,0.01464,0,-0.01464
0.01464,-0.0122,0.00976,0.00244,-0.00488,0.00976,0.01952,0.04392,0.03416,0.01464,-0.00488,-0.01464
0.00976,-0.00976,0.00976,0.00488,0,0.00488,0.01952,0.04392,0.03416,0.01464,-0.00488,-0.00488
0.00976,-0.00732,0.00488,0,-0.00488,0.00732,0.01952,0.04392,0.03416,0.01464,-0.00488,-0.00488
0,0,0,0,0,0,0.01952,0.03904,0.02928,0.00976,-0.01952,-0.00488
-0.00488,0.00244,0,0.00244,0.00488,-0.00488,0.01952,0.03904,0.02928,0.00976,-0.01952,-0.00976
0.00488,0,-0.00488,-0.00732,-0.00976,0.00732,0.01952,0.03904,0.02928,0.00488,-0.01952,-0.01952
0.00488,0,-0.00488,-0.00732,-0.00976,0.00732,0.01952,0.03416,0.0244,0.00488,-0.0244,-0.01952
0.00976,-0.00488,0,-0.00488,-0.00976,0.00976,0.01952,0.03416,0.0244,0.00488,-0.01464,-0.00976
0.00976,-0.00488,0,-0.00488,-0.00976,0.00976,0.01952,0.03416,0.0244,0.00488,-0.01464,-0.00976
0,0,0,0,0,0,0.01952,0.03416,0.0244,0.01464,-0.0244,0
0,0,0,0,0,0,0.01952,0.03416,0.0244,0.01464,-0.01952,0
0,-0.00488,0.00976,0.00976,0.00976,-0.00488,0.01952,0.03416,0.0244,0.00976,-0.01952,-0.00976
0,-0.00488,0.00976,0.00976,0.00976,-0.00488,0.01464,0.03416,0.0244,0.00976,-0.01952,-0.01464
-0.00488,-0.00244,0.00976,0.0122,0.01464,-0.00976,0.0244,0.03416,0.02928,0.00976,-0.01952,-0.01464
-0.00488,-0.00244,0.00976,0.0122,0.01464,-0.00976,0.0244,0.03416,0.02928,0.00976,-0.01952,-0.01464
-0.00488,0,0.00488,0.00732,0.00976,-0.00732,0.0244,0.02928,0.02928,0.00976,-0.01952,-0.01464
-0.00488,0,0.00488,0.00732,0.00976,-0.00732,0.0244,0.02928,0.02928,0.00976,-0.01952,-0.01464
-0.00488,-0.00488,0.01464,0.01708,0.01952,-0.0122,0.01464,0.03416,0.02928,0.00976,-0.01952,-0.01464
-0.00488,-0.00244,0.00976,0.0122,0.01464,-0.00976,0.01464,0.03416,0.02928,0.00976,-0.01952,-0.01464
0.00976,-0.00976,0.00976,0.00488,0,0.00488,0.01464,0.02928,0.02928,0,-0.02928,-0.0244
0.00976,-0.00976,0.00976,0.00488,0,0.00488,0.01464,0.02928,0.03416,0.00488,-0.02928,-0.0244
0.00488,-0.00244,0,-0.00244,-0.00488,0.00488,0.01464,0.03904,0.03416,0.00488,-0.01952,-0.01464
0.00488,-0.00244,0,-0.00244,-0.00488,0.00488,0.01952,0.04392,0.03416,0.00488,-0.01952,-0.01464
-0.00488,0.00244,0,0.00244,0.00488,-0.00488,0.01952,0.04392,0.03416,0.01464,-0.01952,-0.01464
-0.00488,0,0.00488,0.00732,0.00976,-0.00732,0.01952,0.0488,0.03416,0.01464,-0.01952,-0.01952
-0.00488,0,0.00488,0.00732,0.00976,-0.00732,0.0244,0.05368,0.03904,0.00488,-0.01952,-0.01952
-0.00976,0.00244,0.00488,0.00976,0.01464,-0.0122,0.0244,0.05368,0.03904,0.00488,-0.01952,-0.01952
-0.01952,0.00732,0.00488,0.01464,0.0244,-0.02196,0.0244,0.04392,0.03904,0.00488,-0.01952,-0.02928
-0.01952,0.00732,0.00488,0.01464,0.0244,-0.02196,0.0244,0.0488,0.03904,0.00488,-0.01952,-0.02928
-0.01952,0.00732,0.00488,0.01464,0.0244,-0.02196,0.0244,0.0488,0.03904,0.00488,-0.02928,-0.02928
-0.01952,0.00732,0.00488,0.01464,0.0244,-0.02196,0.02928,0.0488,0.03904,0,-0.02928,-0.02928
-0.00976,0.00244,0.00488,0.00976,0.01464,-0.0122,0.02928,0.0488,0.03904,0.00976,-0.02928,-0.02928
-0.00976,0.00244,0.00488,0.00976,0.01464,-0.0122,0.03416,0.05368,0.03904,0.00976,-0.03416,-0.02928
-0.00976,0.00244,0.00488,0.00976,0.01464,-0.0122,0.03416,0.05368,0.04392,0.01464,-0.03416,-0.02928
-0.00488,0,0.00488,0.00732,0.00976,-0.00732,0.03416,0.05368,0.04392,0.01464,-0.03416,-0.02928
0,-0.00244,0.00488,0.00488,0.00488,-0.00244,0.03416,0.06832,0.04392,0.01464,-0.02928,-0.01952
0,-0.00244,0.00488,0.00488,0.00488,-0.00244,0.03416,0.06832,0.04392,0.01464,-0.02928,-0.01952
-0.00976,0.00244,0.00488,0.00976,0.01464,-0.0122,0.03904,0.06832,0.04392,0.00976,-0.02928,-0.01952
-0.00976,0.00244,0.00488,0.00976,0.01464,-0.0122,0.03904,0.06832,0.04392,0.00976,-0.02928,-0.01952
-0.01464,0.00488,0.00488,0.0122,0.01952,-0.01708,0.03904,0.06832,0.04392,0.00976,-0.02928,-0.01952
-0.01464,0.00488,0.00488,0.0122,0.01952,-0.01708,0.03904,0.06832,0.04392,0.01464,-0.02928,-0.01952
-0.01464,0.00488,0.00488,0.0122,0.01952,-0.01708,0.03416,0.05856,0.04392,0.01464,-0.02928,-0.02928
-0.00976,0.00244,0.00488,0.00976,0.01464,-0.0122,0.03416,0.05856,0.04392,0.01464,-0.02928,-0.02928
-0.00976,0.00244,0.00488,0.00976,0.01464,-0.0122,0.02928,0.0488,0.02928,0.01464,-0.02928,-0.02928
-0.00976,0.00244,0.00488,0.00976,0.01464,-0.0122,0.02928,0.0488,0.02928,0.00976,-0.02928,-0.02928
-0.01464,0.00488,0.00488,0.0122,0.01952,-0.01708,0.02928,0.0488,0.0244,0.00976,-0.03904,-0.02928
-0.01464,0.00244,0.00976,0.01708,0.0244,-0.01952,0.0244,0.04392,0.0244,0.00976,-0.03904,-0.02928
-0.00488,-0.00244,0.00976,0.0122,0.01464,-0.00976,0.02928,0.05368,0.03416,0.00976,-0.02928,-0.0244
-0.00488,-0.00244,0.00976,0.0122,0.01464,-0.00976,0.02928,0.05368,0.03416,0.00976,-0.0244,-0.0244
-0.00488,-0.00244,0.00976,0.0122,0.01464,-0.00976,0.02928,0.03904,0.03416,0.00976,-0.0244,-0.0244
-0.00488,-0.00244,0.00976,0.0122,0.01464,-0.00976,0.02928,0.03904,0.03416,0.00976,-0.0244,-0.0244
-0.00488,-0.00244,0.00976,0.0122,0.01464,-0.00976,0.03416,0.03904,0.03416,0.00976,-0.0244,-0.01952
-0.00488,-0.00244,0.00976,0.0122,0.01464,-0.00976,0.03416,0.03416,0.03416,0.00976,-0.01952,-0.01952
-0.00488,-0.00244,0.00976,0.0122,0.01464,-0.00976,0.0244,0.03416,0.02928,0.01952,-0.01952,-0.01952
-0.00488,-0.00488,0.01464,0.01708,0.01952,-0.0122,0.0244,0.02928,0.0244,0.01952,-0.01952,-0.01952
-0.00488,-0.00244,0.00976,0.0122,0.01464,-0.00976,0.0244,0.0244,0.0244,0.01952,-0.02928,-0.01952
-0.00488,-0.00244,0.00976,0.0122,0.01464,-0.00976,0.0244,0.0244,0.01952,0.01952,-0.02928,-0.01952
-0.00488,-0.00244,0.00976,0.0122,0.01464,-0.00976,0.0244,0.0244,0.01952,0.01952,-0.02928,-0.01952
-0.00488,-0.00244,0.00976,0.0122,0.01464,-0.00976,0.0244,0.01952,0.01464,0.01952,-0.02928,-0.01952
0,-0.00732,0.01464,0.01464,0.01464,-0.00732,0.0244,0.02928,0.01464,0.01952,-0.01952,-0.01952
0,-0.00732,0.01464,0.01464,0.01464,-0.00732,0.01952,0.0244,0.01464,0.01952,-0.01952,-0.01952
-0.01464,0.00488,0.00488,0.0122,0.01952,-0.01708,0.02928,0.0244,0.01464,0.01952,-0.01952,-0.01952
-0.01464,0.00732,0,0.00732,0.01464,-0.01464,0.0244,0.0244,0.01464,0.01952,-0.01952,-0.01952
-0.0244,0.00732,0.00976,0.02196,0.03416,-0.02928,0.01952,0.0244,0.01464,0.01952,-0.0244,-0.01952
-0.0244,0.00732,0.00976,0.02196,0.03416,-0.02928,0.0244,0.0244,0.01464,0.01952,-0.0244,-0.01952
-0.0244,0.00732,0.00976,0.02196,0.03416,-0.02928,0.0244,0.01464,0.01464,0.00976,-0.0244,-0.02928
-0.0244,0.00732,0.00976,0.02196,0.03416,-0.02928,0.0244,0.01464,0.00976,0.00976,-0.0244,-0.02928
-0.01464,0.00244,0.00976,0.01708,0.0244,-0.01952,0.0244,0.00976,0.00976,0.00976,-0.02928,-0.02928
-0.01952,0.00732,0.00488,0.01464,0.0244,-0.02196,0.0244,0.00488,0.00488,0.00976,-0.02928,-0.02928
-0.01464,0.00488,0.00488,0.0122,0.01952,-0.01708,0.01952,0.00488,0.00488,0.00976,-0.02928,-0.02928
-0.01464,0.00488,0.00488,0.0122,0.01952,-0.01708,0.01952,0.00488,0.00488,0.01464,-0.02928,-0.02928
-0.00976,-0.00244,0.01464,0.01952,0.0244,-0.01708,0.01952,0,-0.00488,0.00976,-0.02928,-0.02928
-0.00976,-0.00244,0.01464,0.01952,0.0244,-0.01708,0.01952,0,0,0.01464,-0.02928,-0.02928
-0.01952,0.00732,0.00488,0.01464,0.0244,-0.02196,0.01952,0.00976,0,0.01464,-0.02928,-0.02928
-0.01952,0.00732,0.00488,0.01464,0.0244,-0.02196,0.01952,0.00976,0,0.01464,-0.02928,-0.02928
-0.0244,0.00976,0.00488,0.01708,0.02928,-0.02684,0.01952,0.00976,0,0.01464,-0.02928,-0.03416
