i,aVR,ii,aVF,iii,aVL,V1,V2,V3,V4,V5,V6
-0.0488,0.07808,-0.10736,-0.08296,-0.05856,0.00488,-0.04392,-0.10248,-0.1708,-0.15616,-0.11712,-0.06344
-0.03416,0.06832,-0.10248,-0.0854,-0.06832,0.01708,-0.03904,-0.10248,-0.16104,-0.16104,-0.11712,-0.06344
-0.03904,0.06344,-0.08784,-0.06832,-0.0488,0.00488,-0.0488,-0.08784,-0.16592,-0.1464,-0.11712,-0.0488
-0.02928,0.05368,-0.07808,-0.06344,-0.0488,0.00976,-0.03904,-0.08784,-0.16592,-0.15616,-0.11712,-0.05856
-0.02928,0.05368,-0.07808,-0.06344,-0.0488,0.00976,-0.03904,-0.08784,-0.16592,-0.15616,-0.11712,-0.05856
-0.04392,0.06832,-0.09272,-0.07076,-0.0488,0.00244,-0.0488,-0.08784,-0.16592,-0.1464,-0.11224,-0.05856
-0.03416,0.06588,-0.0976,-0.08052,-0.06344,0.01464,-0.0488,-0.08784,-0.1708,-0.1464,-0.11224,-0.06344
-0.03904,0.06832,-0.0976,-0.07808,-0.05856,0.00976,-0.0488,-0.0976,-0.1708,-0.15616,-0.122,-0.0732
-0.0488,0.08052,-0.11224,-0.08784,-0.06344,0.00732,-0.05368,-0.0976,-0.17568,-0.17568,-0.122,-0.07808
-0.03416,0.06344,-0.09272,-0.07564,-0.05856,0.0122,-0.03904,-0.08784,-0.16104,-0.16104,-0.11712,-0.06832
-0.0244,0.0488,-0.0732,-0.061,-0.0488,0.0122,-0.03416,-0.08296,-0.15616,-0.15128,-0.10248,-0.06832
-0.0244,0.04148,-0.05856,-0.04636,-0.03416,0.00488,-0.03904,-0.07808,-0.16104,-0.15128,-0.0976,-0.06344
-0.0244,0.03904,-0.05368,-0.04148,-0.02928,0.00244,-0.03416,-0.07808,-0.15616,-0.1464,-0.09272,-0.05856
-0.0488,0.061,-0.0732,-0.0488,-0.0244,-0.0122,-0.02928,-0.0732,-0.14152,-0.1464,-0.10248,-0.06832
-0.05368,0.05612,-0.05856,-0.03172,-0.00488,-0.0244,-0.01464,-0.06832,-0.13176,-0.13176,-0.0976,-0.05856
-0.00976,0.01708,-0.0244,-0.01952,-0.01464,0.00244,-0.01464,-0.06832,-0.12688,-0.11712,-0.08296,-0.04392
0.01464,-0.00244,-0.00976,-0.01708,-0.0244,0.01952,-0.01464,-0.06832,-0.12688,-0.11712,-0.0732,-0.03904
-0.00976,0.01952,-0.02928,-0.0244,-0.01952,0.00488,-0.0244,-0.0732,-0.13664,-0.12688,-0.08296,-0.0488
-0.01464,0.02684,-0.03904,-0.03172,-0.0244,0.00488,-0.04392,-0.07808,-0.12688,-0.13176,-0.08784,-0.0488
0,0,0,0,0,0,-0.05368,-0.0732,-0.11712,-0.11224,-0.0732,-0.03416
0.00976,-0.02928,0.0488,0.04392,0.03904,-0.01464,-0.05856,-0.0732,-0.10248,-0.09272,-0.0488,-0.00976
0.03416,-0.05124,0.06832,0.05124,0.03416,0,-0.06832,-0.08296,-0.10248,-0.08784,-0.0488,0.00488
0.03416,-0.05124,0.06832,0.05124,0.03416,0,-0.08296,-0.08784,-0.11224,-0.08784,-0.0488,0
0.0244,-0.04148,0.05856,0.04636,0.03416,-0.00488,-0.10248,-0.0976,-0.122,-0.08784,-0.0488,0
0.01464,-0.03172,0.0488,0.04148,0.03416,-0.00976,-0.12688,-0.10736,-0.13176,-0.09272,-0.0488,0
0.03904,-0.05124,0.06344,0.04392,0.0244,0.00732,-0.11712,-0.08784,-0.10736,-0.0732,-0.0244,0.0244
0.0488,-0.06344,0.07808,0.05368,0.02928,0.00976,-0.12688,-0.08784,-0.10248,-0.06344,-0.00976,0.02928
0.05856,-0.06588,0.0732,0.04392,0.01464,0.02196,-0.122,-0.08784,-0.10248,-0.05856,-0.00976,0.03416
0.0488,-0.05856,0.06832,0.04392,0.01952,0.01464,-0.10736,-0.07808,-0.10248,-0.05368,-0.00976,0.03904
0.05368,-0.05856,0.06344,0.0366,0.00976,0.02196,-0.0976,-0.06832,-0.10248,-0.06344,-0.00976,0.02928
0.0488,-0.05856,0.06832,0.04392,0.01952,0.01464,-0.08296,-0.06832,-0.10248,-0.06344,-0.00976,0.02928
0.00488,-0.01708,0.02928,0.02684,0.0244,-0.00976,-0.07808,-0.08296,-0.12688,-0.08784,-0.03904,-0.00488
-0.01952,0.02196,-0.0244,-0.01464,-0.00488,-0.00732,-0.09272,-0.10248,-0.15128,-0.12688,-0.06344,-0.01464
-0.04392,0.04148,-0.03904,-0.01708,0.00488,-0.0244,-0.08296,-0.10736,-0.15616,-0.1464,-0.08784,-0.03416
-0.04392,0.05368,-0.06344,-0.04148,-0.01952,-0.0122,-0.06832,-0.10248,-0.15616,-0.15128,-0.0976,-0.05856
-0.02928,0.04636,-0.06344,-0.0488,-0.03416,0.00244,-0.0488,-0.08296,-0.15616,-0.15128,-0.10248,-0.0488
-0.01952,0.04148,-0.06344,-0.05368,-0.04392,0.0122,-0.0488,-0.06832,-0.16592,-0.15616,-0.10248,-0.03904
-0.03416,0.06588,-0.0976,-0.08052,-0.06344,0.01464,-0.05856,-0.08784,-0.18056,-0.16592,-0.122,-0.05368
-0.04392,0.08296,-0.122,-0.10004,-0.07808,0.01708,-0.06344,-0.09272,-0.19032,-0.1708,-0.122,-0.0732
-0.03416,0.0732,-0.11224,-0.09516,-0.07808,0.02196,-0.05856,-0.08784,-0.18056,-0.16104,-0.10736,-0.06344
-0.03416,0.07076,-0.10736,-0.09028,-0.0732,0.01952,-0.05856,-0.08784,-0.18056,-0.16592,-0.11712,-0.06832
-0.05368,0.09272,-0.13176,-0.10492,-0.07808,0.0122,-0.05856,-0.09272,-0.18056,-0.1708,-0.11224,-0.07808
-0.06832,0.1098,-0.15128,-0.11712,-0.08296,0.00732,-0.05856,-0.09272,-0.18056,-0.1708,-0.11712,-0.08296
-0.0732,0.11956,-0.16592,-0.12932,-0.09272,0.00976,-0.03416,-0.06344,-0.17568,-0.18056,-0.12688,-0.08296
-0.06344,0.12444,-0.18544,-0.15372,-0.122,0.02928,0.0244,0.00488,-0.13176,-0.1708,-0.12688,-0.09272
-0.0976,0.19276,-0.28792,-0.23912,-0.19032,0.04636,0.08784,0.07808,-0.10248,-0.20496,-0.18544,-0.15128
-0.04392,0.1586,-0.27328,-0.25132,-0.22936,0.09272,0.20984,0.1708,-0.02928,-0.20008,-0.20008,-0.16104
-0.06344,0.16348,-0.26352,-0.2318,-0.20008,0.06832,0.28304,0.25376,0.08296,-0.11712,-0.13664,-0.11712
-0.05856,0.0976,-0.13664,-0.10736,-0.07808,0.00976,0.33672,0.32696,0.25864,0.05368,0,-0.00976
0.08296,-0.11712,0.15128,0.1098,0.06832,0.00732,0.3172,0.42456,0.54656,0.37576,0.27816,0.19032
0.18056,-0.3172,0.45384,0.36356,0.27328,-0.04636,0.15128,0.50264,0.96624,0.81984,0.65392,0.4636
0.28792,-0.5612,0.83448,0.69052,0.54656,-0.12932,-0.1708,0.44408,1.37128,1.3176,1.05408,0.7808
0.3172,-0.78568,1.25416,1.09556,0.93696,-0.30988,-0.59048,0.08784,1.5616,1.67872,1.38104,1.0248
0.33184,-0.98576,1.63968,1.47376,1.30784,-0.488,-1.06384,-0.5612,1.3664,1.77632,1.54208,1.17608
0.32696,-1.05164,1.77632,1.61284,1.44936,-0.5612,-1.342,-0.99064,1.08824,1.67384,1.50304,1.18584
0.28304,-0.915,1.54696,1.40544,1.26392,-0.49044,-1.37616,-1.06872,0.73688,1.28832,1.20536,0.99064
0.22936,-0.74664,1.26392,1.14924,1.03456,-0.4026,-1.32248,-1.06872,0.20496,0.74176,0.79056,0.73688
0.13664,-0.55876,0.98088,0.91256,0.84424,-0.3538,-1.12728,-0.99064,-0.34648,0.20496,0.4148,0.46848
0.11712,-0.44652,0.77592,0.71736,0.6588,-0.27084,-0.84424,-0.7808,-0.32696,0.08784,0.28304,0.35136
0.07808,-0.30988,0.54168,0.50264,0.4636,-0.19276,-0.59048,-0.57584,-0.30744,0.00488,0.1708,0.23912
0.03416,-0.16348,0.2928,0.27572,0.25864,-0.11224,-0.36112,-0.30744,-0.1708,0.0244,0.12688,0.18056
-0.00976,-0.05856,0.12688,0.13176,0.13664,-0.0732,-0.2196,-0.13176,-0.0732,0,0.06344,0.10736
0.01464,-0.0366,0.05856,0.05124,0.04392,-0.01464,-0.10248,-0.03416,0,0.00488,0.03904,0.05368
-0.03416,0.00488,0.0244,0.04148,0.05856,-0.04636,-0.05368,-0.04392,-0.0244,-0.04392,-0.00488,0.03416
-0.03904,0.0244,-0.00976,0.00976,0.02928,-0.03416,-0.02928,-0.01464,-0.0732,-0.0732,-0.0488,0.00488
-0.02928,0.04148,-0.05368,-0.03904,-0.0244,-0.00244,-0.00976,0.00488,-0.0976,-0.10248,-0.07808,-0.0244
-0.03416,0.05612,-0.07808,-0.061,-0.04392,0.00488,0.00976,0.03416,-0.09272,-0.10736,-0.08784,-0.02928
-0.03904,0.061,-0.08296,-0.06344,-0.04392,0.00244,0.04392,0.03904,-0.0732,-0.10736,-0.08784,-0.03904
-0.03416,0.06588,-0.0976,-0.08052,-0.06344,0.01464,0.0732,0.04392,-0.06832,-0.11712,-0.0976,-0.05368
-0.04392,0.08052,-0.11712,-0.09516,-0.0732,0.01464,0.0732,0.04392,-0.07808,-0.11224,-0.09272,-0.06344
-0.03416,0.08296,-0.13176,-0.11468,-0.0976,0.03172,0.05856,0.03416,-0.08296,-0.11224,-0.09272,-0.06344
-0.04392,0.08784,-0.13176,-0.1098,-0.08784,0.02196,0.05856,0.01464,-0.08296,-0.10736,-0.09272,-0.05368
-0.04392,0.09028,-0.13664,-0.11468,-0.09272,0.0244,0.05856,0.01952,-0.0732,-0.10248,-0.08296,-0.05368
-0.06344,0.1098,-0.15616,-0.12444,-0.09272,0.01464,0.06344,0.03416,-0.06832,-0.10736,-0.08296,-0.06344
-0.05856,0.10492,-0.15128,-0.122,-0.09272,0.01708,0.05368,0.04392,-0.06344,-0.10736,-0.08784,-0.06832
-0.05368,0.1098,-0.16592,-0.13908,-0.11224,0.02928,0.04392,0.03904,-0.06832,-0.11712,-0.07808,-0.0732
-0.05856,0.11712,-0.17568,-0.1464,-0.11712,0.02928,0.0488,0.03904,-0.05368,-0.13664,-0.0732,-0.08296
-0.04392,0.10492,-0.16592,-0.14396,-0.122,0.03904,0.05856,0.05856,-0.04392,-0.13176,-0.0732,-0.07808
-0.02928,0.0854,-0.14152,-0.12688,-0.11224,0.04148,0.05856,0.05856,-0.03416,-0.122,-0.08296,-0.06344
-0.00976,0.06344,-0.11712,-0.11224,-0.10736,0.0488,0.06832,0.0732,-0.01464,-0.10736,-0.07808,-0.0488
-0.00976,0.06344,-0.11712,-0.11224,-0.10736,0.0488,0.0732,0.0732,-0.00488,-0.09272,-0.08296,-0.04392
-0.0244,0.08052,-0.13664,-0.12444,-0.11224,0.04392,0.06832,0.06832,-0.01464,-0.09272,-0.11224,-0.05368
-0.02928,0.09272,-0.15616,-0.14152,-0.12688,0.0488,0.07808,0.07808,-0.00976,-0.09272,-0.11712,-0.06344
-0.0488,0.10492,-0.16104,-0.13664,-0.11224,0.03172,0.07808,0.08784,0,-0.08296,-0.10736,-0.05368
-0.05856,0.1098,-0.16104,-0.13176,-0.10248,0.02196,0.08296,0.08784,0.00976,-0.08296,-0.09272,-0.05856
-0.04392,0.09516,-0.1464,-0.12444,-0.10248,0.02928,0.0976,0.09272,0.00976,-0.06344,-0.08296,-0.0488
-0.02928,0.08296,-0.13664,-0.122,-0.10736,0.03904,0.0976,0.10736,0.01952,-0.05856,-0.07808,-0.04392
-0.04392,0.09516,-0.1464,-0.12444,-0.10248,0.02928,0.0976,0.11712,0.0244,-0.05368,-0.06344,-0.03904
-0.04392,0.09516,-0.1464,-0.12444,-0.10248,0.02928,0.0976,0.13176,0.04392,-0.04392,-0.05856,-0.03416
-0.02928,0.08052,-0.13176,-0.11712,-0.10248,0.0366,0.0976,0.14152,0.0488,-0.04392,-0.05368,-0.02928
-0.0244,0.07808,-0.13176,-0.11956,-0.10736,0.04148,0.10248,0.1464,0.0488,-0.04392,-0.04392,-0.02928
-0.02928,0.08052,-0.13176,-0.11712,-0.10248,0.0366,0.11224,0.16104,0.0732,-0.02928,-0.04392,-0.0244
-0.01464,0.06588,-0.11712,-0.1098,-0.10248,0.04392,0.11224,0.16592,0.09272,-0.01952,-0.03416,-0.01952
-0.01464,0.07076,-0.12688,-0.11956,-0.11224,0.0488,0.11224,0.1708,0.0976,-0.0244,-0.02928,-0.01464
-0.0244,0.08052,-0.13664,-0.12444,-0.11224,0.04392,0.11712,0.1708,0.09272,-0.01952,-0.02928,-0.01464
-0.02928,0.07808,-0.12688,-0.11224,-0.0976,0.03416,0.11712,0.18056,0.11712,-0.02928,-0.03416,-0.0244
-0.0244,0.07564,-0.12688,-0.11468,-0.10248,0.03904,0.122,0.19032,0.12688,-0.0244,-0.03416,-0.01952
-0.01952,0.07564,-0.13176,-0.122,-0.11224,0.04636,0.12688,0.20008,0.1464,-0.00976,-0.03904,-0.00976
-0.02928,0.08296,-0.13664,-0.122,-0.10736,0.03904,0.13664,0.20496,0.15616,0,-0.03416,-0.00976
-0.00488,0.06344,-0.122,-0.11956,-0.11712,0.05612,0.13664,0.2196,0.16104,0.00488,-0.03416,-0.00976
0,0.061,-0.122,-0.122,-0.122,0.061,0.14152,0.23424,0.17568,0.01952,-0.02928,-0.00976
0.00488,0.04636,-0.0976,-0.10004,-0.10248,0.05368,0.16104,0.26352,0.2196,0.0488,-0.00976,0.00488
0.01464,0.0366,-0.08784,-0.09516,-0.10248,0.05856,0.17568,0.28304,0.23912,0.06344,-0.00488,0.00976
0.00976,0.04392,-0.0976,-0.10248,-0.10736,0.05856,0.1708,0.28304,0.244,0.06832,-0.00488,0.00976
0.0244,0.0366,-0.0976,-0.1098,-0.122,0.0732,0.16592,0.28792,0.25376,0.08296,-0.00488,0.00976
0.01464,0.04148,-0.0976,-0.10492,-0.11224,0.06344,0.15616,0.30256,0.2684,0.08784,0.00976,0.00976
0.01464,0.04392,-0.10248,-0.1098,-0.11712,0.06588,0.15616,0.30744,0.27816,0.0976,0.01952,0.00976
0.01952,0.03904,-0.0976,-0.10736,-0.11712,0.06832,0.16592,0.31232,0.28792,0.08784,0.02928,0.01952
0.02928,0.03172,-0.09272,-0.10736,-0.122,0.07564,0.16592,0.3172,0.29768,0.10248,0.03416,0.01952
0.0244,0.03172,-0.08784,-0.10004,-0.11224,0.06832,0.17568,0.32208,0.3172,0.11224,0.05856,0.0244
0.0244,0.03416,-0.09272,-0.10492,-0.11712,0.07076,0.1708,0.32208,0.3172,0.11224,0.05856,0.0244
0.01952,0.0366,-0.09272,-0.10248,-0.11224,0.06588,0.1708,0.32208,0.30256,0.11224,0.05856,0.01952
0.01952,0.03416,-0.08784,-0.0976,-0.10736,0.06344,0.16104,0.3172,0.30256,0.11224,0.06344,0.01464
0.01952,0.03416,-0.08784,-0.0976,-0.10736,0.06344,0.13664,0.2928,0.30256,0.10248,0.05368,0.01464
0.01952,0.03172,-0.08296,-0.09272,-0.10248,0.061,0.13664,0.2928,0.29768,0.10248,0.05368,0.01952
0.00976,0.02684,-0.06344,-0.06832,-0.0732,0.04148,0.13664,0.28792,0.28304,0.11224,0.06344,0.02928
0.01464,0.01952,-0.05368,-0.061,-0.06832,0.04148,0.122,0.26352,0.27816,0.10736,0.06344,0.03904
0.03416,-0.00244,-0.02928,-0.04636,-0.06344,0.0488,0.11224,0.244,0.25864,0.0976,0.06344,0.03416
0.05368,-0.02928,0.00488,-0.02196,-0.0488,0.05124,0.10248,0.22936,0.23912,0.10248,0.06344,0.04392
0.03904,-0.01708,-0.00488,-0.0244,-0.04392,0.04148,0.08296,0.20496,0.22448,0.0976,0.06344,0.03904
0.03416,-0.01464,-0.00488,-0.02196,-0.03904,0.0366,0.0732,0.18056,0.20496,0.09272,0.06344,0.04392
0.01952,-0.00488,-0.00976,-0.01952,-0.02928,0.0244,0.0488,0.1464,0.17568,0.0732,0.0488,0.04392
0,0.0122,-0.0244,-0.0244,-0.0244,0.0122,0.03904,0.11712,0.14152,0.05368,0.04392,0.04392
0,0.00732,-0.01464,-0.01464,-0.01464,0.00732,0.03904,0.10736,0.122,0.0488,0.04392,0.03416
-0.00488,0.01464,-0.0244,-0.02196,-0.01952,0.00732,0.02928,0.09272,0.10248,0.03416,0.03416,0.0244
-0.00976,0.02196,-0.03416,-0.02928,-0.0244,0.00732,0.01952,0.06832,0.06832,0.01952,0.01464,0.01464
-0.00976,0.02684,-0.04392,-0.03904,-0.03416,0.0122,0.00976,0.04392,0.03904,0,-0.00488,0.00976
-0.02928,0.04148,-0.05368,-0.03904,-0.0244,-0.00244,0.00976,0.01952,0.0244,-0.01952,-0.00976,0
-0.03416,0.04148,-0.0488,-0.03172,-0.01464,-0.00976,0,-0.00488,0,-0.03904,-0.01952,-0.00488
-0.03416,0.04392,-0.05368,-0.0366,-0.01952,-0.00732,0,-0.00976,-0.01464,-0.0488,-0.0244,-0.00976
-0.01464,0.0366,-0.05856,-0.05124,-0.04392,0.01464,-0.00976,-0.00976,-0.03416,-0.05856,-0.03416,-0.00976
-0.02928,0.04636,-0.06344,-0.0488,-0.03416,0.00244,-0.01464,-0.01464,-0.05856,-0.06832,-0.03904,-0.01464
-0.03416,0.05368,-0.0732,-0.05612,-0.03904,0.00244,-0.01464,-0.0244,-0.06832,-0.0732,-0.04392,-0.01952
-0.03416,0.05612,-0.07808,-0.061,-0.04392,0.00488,-0.01952,-0.03416,-0.07808,-0.08784,-0.05856,-0.01952
-0.03904,0.06588,-0.09272,-0.0732,-0.05368,0.00732,-0.01952,-0.02928,-0.08296,-0.0976,-0.05856,-0.01952
-0.0488,0.06344,-0.07808,-0.05368,-0.02928,-0.00976,-0.01464,-0.04392,-0.09272,-0.10248,-0.06832,-0.03416
-0.03416,0.05124,-0.06832,-0.05124,-0.03416,0,-0.00976,-0.0488,-0.10736,-0.10248,-0.06344,-0.0244
-0.05368,0.0732,-0.09272,-0.06588,-0.03904,-0.00732,-0.02928,-0.04392,-0.10736,-0.11224,-0.07808,-0.03904
-0.06832,0.09028,-0.11224,-0.07808,-0.04392,-0.0122,-0.0244,-0.04392,-0.10736,-0.11224,-0.09272,-0.03904
-0.05368,0.07076,-0.08784,-0.061,-0.03416,-0.00976,-0.00976,-0.0488,-0.10736,-0.11224,-0.07808,-0.0244
-0.04392,0.05856,-0.0732,-0.05124,-0.02928,-0.00732,-0.00976,-0.0488,-0.11712,-0.11224,-0.08296,-0.0244
-0.02928,0.04636,-0.06344,-0.0488,-0.03416,0.00244,-0.01952,-0.05368,-0.10736,-0.11712,-0.07808,-0.01952
-0.01464,0.03416,-0.05368,-0.04636,-0.03904,0.0122,-0.01464,-0.05368,-0.10248,-0.11712,-0.07808,-0.0244
-0.02928,0.04392,-0.05856,-0.04392,-0.02928,0,-0.01464,-0.05368,-0.10736,-0.11224,-0.06832,-0.03416
-0.03416,0.05368,-0.0732,-0.05612,-0.03904,0.00244,-0.01464,-0.05368,-0.11224,-0.11712,-0.0732,-0.04392
-0.06344,0.07808,-0.09272,-0.061,-0.02928,-0.01708,-0.01464,-0.06344,-0.122,-0.122,-0.08784,-0.05368
-0.05368,0.06832,-0.08296,-0.05612,-0.02928,-0.0122,-0.00976,-0.05856,-0.11224,-0.11224,-0.09272,-0.05368
-0.0488,0.06344,-0.07808,-0.05368,-0.02928,-0.00976,-0.01952,-0.06344,-0.11224,-0.122,-0.07808,-0.03904
-0.04392,0.061,-0.07808,-0.05612,-0.03416,-0.00488,-0.01464,-0.06344,-0.10736,-0.11712,-0.06832,-0.03904
-0.05368,0.06832,-0.08296,-0.05612,-0.02928,-0.0122,-0.01952,-0.05368,-0.10736,-0.10736,-0.06832,-0.03416
-0.03904,0.05368,-0.06832,-0.0488,-0.02928,-0.00488,-0.01952,-0.05368,-0.10248,-0.10736,-0.0732,-0.03904
-0.02928,0.04636,-0.06344,-0.0488,-0.03416,0.00244,-0.00488,-0.0488,-0.0976,-0.10736,-0.05368,-0.04392
-0.02928,0.04392,-0.05856,-0.04392,-0.02928,0,0.00488,-0.0488,-0.09272,-0.0976,-0.05368,-0.03904
-0.0488,0.06344,-0.07808,-0.05368,-0.02928,-0.00976,-0.00488,-0.05368,-0.10248,-0.10736,-0.06344,-0.05856
-0.05368,0.06832,-0.08296,-0.05612,-0.02928,-0.0122,-0.01464,-0.0488,-0.0976,-0.0976,-0.05856,-0.06832
-0.04392,0.05856,-0.0732,-0.05124,-0.02928,-0.00732,0.00488,-0.03904,-0.09272,-0.0976,-0.0488,-0.05856
-0.0244,0.0366,-0.0488,-0.0366,-0.0244,0,0.00488,-0.0244,-0.07808,-0.0976,-0.0488,-0.03904
-0.03904,0.04392,-0.0488,-0.02928,-0.00976,-0.01464,0.00488,-0.02928,-0.08296,-0.08296,-0.0488,-0.04392
-0.05856,0.07076,-0.08296,-0.05368,-0.0244,-0.01708,0,-0.02928,-0.08784,-0.08296,-0.05368,-0.04392
-0.06344,0.07076,-0.07808,-0.04636,-0.01464,-0.0244,-0.00488,-0.02928,-0.09272,-0.08296,-0.05368,-0.03904
-0.05856,0.06344,-0.06832,-0.03904,-0.00976,-0.0244,-0.00488,-0.0244,-0.09272,-0.08296,-0.05856,-0.03904
-0.0488,0.05368,-0.05856,-0.03416,-0.00976,-0.01952,-0.00488,-0.0244,-0.09272,-0.09272,-0.05856,-0.0488
-0.03904,0.05612,-0.0732,-0.05368,-0.03416,-0.00244,-0.00976,-0.01952,-0.08784,-0.08784,-0.05856,-0.04392
-0.03416,0.05124,-0.06832,-0.05124,-0.03416,0,-0.00976,-0.0244,-0.07808,-0.07808,-0.05856,-0.04392
-0.03416,0.04636,-0.05856,-0.04148,-0.0244,-0.00488,-0.00976,-0.0244,-0.07808,-0.07808,-0.06344,-0.04392
-0.04392,0.05612,-0.06832,-0.04636,-0.0244,-0.00976,-0.01952,-0.03416,-0.08296,-0.0732,-0.0488,-0.03904
-0.0488,0.061,-0.0732,-0.0488,-0.0244,-0.0122,-0.01464,-0.03416,-0.08296,-0.0732,-0.0488,-0.03904
-0.0488,0.061,-0.0732,-0.0488,-0.0244,-0.0122,-0.01464,-0.03416,-0.07808,-0.08296,-0.05856,-0.03904
-0.05368,0.06832,-0.08296,-0.05612,-0.02928,-0.0122,-0.01952,-0.03416,-0.07808,-0.08296,-0.05856,-0.03904
-0.02928,0.0488,-0.06832,-0.05368,-0.03904,0.00488,-0.00976,-0.03416,-0.07808,-0.07808,-0.06344,-0.03904
-0.01464,0.02928,-0.04392,-0.0366,-0.02928,0.00732,-0.00976,-0.0244,-0.0732,-0.0732,-0.05856,-0.03904
-0.01464,0.03416,-0.05368,-0.04636,-0.03904,0.0122,-0.00976,-0.03416,-0.0732,-0.08296,-0.05856,-0.03904
-0.03416,0.05124,-0.06832,-0.05124,-0.03416,0,-0.00976,-0.03416,-0.0732,-0.08296,-0.05856,-0.03904
-0.02928,0.0488,-0.06832,-0.05368,-0.03904,0.00488,-0.01464,-0.02928,-0.08784,-0.07808,-0.0488,-0.02928
-0.03416,0.05124,-0.06832,-0.05124,-0.03416,0,-0.00976,-0.02928,-0.09272,-0.07808,-0.0488,-0.03904
-0.03416,0.05612,-0.07808,-0.061,-0.04392,0.00488,-0.01952,-0.01952,-0.08784,-0.08296,-0.05368,-0.0488
-0.02928,0.05368,-0.07808,-0.06344,-0.0488,0.00976,-0.01464,-0.0244,-0.08784,-0.08784,-0.05368,-0.04392
-0.0488,0.07076,-0.09272,-0.06832,-0.04392,-0.00244,-0.0244,-0.03416,-0.10248,-0.09272,-0.06832,-0.05856
-0.05368,0.07564,-0.0976,-0.07076,-0.04392,-0.00488,-0.0244,-0.03904,-0.11224,-0.0976,-0.06832,-0.05856
-0.0488,0.0732,-0.0976,-0.0732,-0.0488,0,-0.01952,-0.03904,-0.10736,-0.10736,-0.06832,-0.05368
-0.0488,0.07808,-0.10736,-0.08296,-0.05856,0.00488,-0.0244,-0.04392,-0.10736,-0.10736,-0.07808,-0.05368
-0.03416,0.061,-0.08784,-0.07076,-0.05368,0.00976,-0.01464,-0.03416,-0.10248,-0.0976,-0.06832,-0.03904
-0.03904,0.06832,-0.0976,-0.07808,-0.05856,0.00976,-0.01464,-0.03904,-0.11224,-0.10736,-0.0732,-0.04392
-0.05368,0.07808,-0.10248,-0.07564,-0.0488,-0.00244,-0.0244,-0.0488,-0.122,-0.11712,-0.0732,-0.05368
-0.04392,0.07076,-0.0976,-0.07564,-0.05368,0.00488,-0.01464,-0.0488,-0.122,-0.11224,-0.06832,-0.05368
-0.03416,0.06344,-0.09272,-0.07564,-0.05856,0.0122,-0.01464,-0.03904,-0.11224,-0.10248,-0.0732,-0.06344
-0.02928,0.061,-0.09272,-0.07808,-0.06344,0.01708,-0.01464,-0.04392,-0.11224,-0.11224,-0.0732,-0.06344
-0.04392,0.06588,-0.08784,-0.06588,-0.04392,0,-0.0244,-0.05368,-0.13176,-0.11224,-0.06832,-0.05368
-0.05368,0.08296,-0.11224,-0.0854,-0.05856,0.00244,-0.0244,-0.05856,-0.13176,-0.122,-0.08296,-0.05368
-0.05368,0.0854,-0.11712,-0.09028,-0.06344,0.00488,-0.03416,-0.06344,-0.13176,-0.122,-0.08296,-0.06832
-0.05368,0.07808,-0.10248,-0.07564,-0.0488,-0.00244,-0.0244,-0.06344,-0.13176,-0.11224,-0.07808,-0.06832
-0.03904,0.05856,-0.07808,-0.05856,-0.03904,0,-0.01952,-0.0488,-0.13176,-0.11224,-0.06832,-0.05856
-0.0244,0.05124,-0.07808,-0.06588,-0.05368,0.01464,-0.01952,-0.0488,-0.13664,-0.11712,-0.06832,-0.05368
-0.03416,0.06588,-0.0976,-0.08052,-0.06344,0.01464,-0.02928,-0.06344,-0.13664,-0.13176,-0.08784,-0.06344
-0.0488,0.07564,-0.10248,-0.07808,-0.05368,0.00244,-0.0244,-0.06832,-0.13664,-0.12688,-0.07808,-0.06344
-0.0488,0.07564,-0.10248,-0.07808,-0.05368,0.00244,-0.0244,-0.05856,-0.13664,-0.12688,-0.06832,-0.05856
-0.04392,0.07564,-0.10736,-0.0854,-0.06344,0.00976,-0.0244,-0.05856,-0.13664,-0.13664,-0.0732,-0.06344
-0.05368,0.08296,-0.11224,-0.0854,-0.05856,0.00244,-0.02928,-0.05856,-0.13664,-0.12688,-0.0732,-0.06344
-0.05368,0.08296,-0.11224,-0.0854,-0.05856,0.00244,-0.03416,-0.06344,-0.14152,-0.13176,-0.07808,-0.06832
-0.05368,0.0854,-0.11712,-0.09028,-0.06344,0.00488,-0.03416,-0.06344,-0.15128,-0.12688,-0.08296,-0.06344
-0.0488,0.08052,-0.11224,-0.08784,-0.06344,0.00732,-0.03904,-0.06832,-0.15616,-0.14152,-0.08784,-0.05856
-0.05856,0.0854,-0.11224,-0.08296,-0.05368,-0.00244,-0.03904,-0.06344,-0.1464,-0.13176,-0.08784,-0.06832
-0.0488,0.08052,-0.11224,-0.08784,-0.06344,0.00732,-0.02928,-0.05856,-0.1464,-0.122,-0.08296,-0.0732
-0.06344,0.09516,-0.12688,-0.09516,-0.06344,0,-0.04392,-0.06832,-0.15616,-0.14152,-0.09272,-0.0732
-0.07808,0.10736,-0.13664,-0.0976,-0.05856,-0.00976,-0.05368,-0.0732,-0.16592,-0.14152,-0.10248,-0.0732
-0.0488,0.07564,-0.10248,-0.07808,-0.05368,0.00244,-0.03904,-0.05856,-0.15128,-0.13176,-0.08296,-0.05368
-0.02928,0.05612,-0.08296,-0.06832,-0.05368,0.0122,-0.01952,-0.05856,-0.15128,-0.13176,-0.08296,-0.05856
-0.01952,0.04636,-0.0732,-0.06344,-0.05368,0.01708,-0.00976,-0.05368,-0.1464,-0.122,-0.0732,-0.05856
-0.00976,0.04636,-0.08296,-0.07808,-0.0732,0.03172,-0.01952,-0.05368,-0.1464,-0.12688,-0.07808,-0.05856
-0.03904,0.06832,-0.0976,-0.07808,-0.05856,0.00976,-0.02928,-0.05856,-0.15616,-0.13664,-0.08784,-0.0732
-0.0488,0.07808,-0.10736,-0.08296,-0.05856,0.00488,-0.02928,-0.05856,-0.16104,-0.13664,-0.10248,-0.0732
-0.05856,0.09028,-0.122,-0.09272,-0.06344,0.00244,-0.03416,-0.06832,-0.16104,-0.13664,-0.0976,-0.07808
-0.06344,0.09516,-0.12688,-0.09516,-0.06344,0,-0.03416,-0.0732,-0.16104,-0.14152,-0.0976,-0.07808
-0.05368,0.08296,-0.11224,-0.0854,-0.05856,0.00244,-0.02928,-0.06344,-0.16104,-0.15128,-0.08784,-0.06832
-0.02928,0.05856,-0.08784,-0.0732,-0.05856,0.01464,-0.02928,-0.06344,-0.16104,-0.1464,-0.08296,-0.06832
-0.01952,0.04636,-0.0732,-0.06344,-0.05368,0.01708,-0.01952,-0.0488,-0.15128,-0.13176,-0.0732,-0.06344
0,0.02684,-0.05368,-0.05368,-0.05368,0.02684,-0.01464,-0.04392,-0.15128,-0.122,-0.06832,-0.05368
-0.03416,0.05856,-0.08296,-0.06588,-0.0488,0.00732,-0.01952,-0.05368,-0.16104,-0.14152,-0.08296,-0.05368
-0.0488,0.08296,-0.11712,-0.09272,-0.06832,0.00976,-0.03904,-0.0732,-0.16592,-0.1464,-0.08784,-0.06344
-0.03904,0.06344,-0.08784,-0.06832,-0.0488,0.00488,-0.02928,-0.06344,-0.16104,-0.13176,-0.07808,-0.05856
-0.03416,0.05612,-0.07808,-0.061,-0.04392,0.00488,-0.0244,-0.06344,-0.16104,-0.12688,-0.07808,-0.06344
-0.03416,0.05612,-0.07808,-0.061,-0.04392,0.00488,-0.0244,-0.05368,-0.16104,-0.12688,-0.0732,-0.05368
-0.0244,0.05124,-0.07808,-0.06588,-0.05368,0.01464,-0.0244,-0.05368,-0.15616,-0.12688,-0.0732,-0.05368
-0.03904,0.06832,-0.0976,-0.07808,-0.05856,0.00976,-0.0244,-0.06344,-0.1708,-0.13664,-0.07808,-0.06344
-0.0244,0.06344,-0.10248,-0.09028,-0.07808,0.02684,-0.01952,-0.06344,-0.1708,-0.14152,-0.08784,-0.06344
-0.02928,0.061,-0.09272,-0.07808,-0.06344,0.01708,-0.02928,-0.05856,-0.16592,-0.13664,-0.07808,-0.06344
0,0.03904,-0.07808,-0.07808,-0.07808,0.03904,-0.02928,-0.05856,-0.16592,-0.1464,-0.08296,-0.06832
-0.01952,0.05612,-0.09272,-0.08296,-0.0732,0.02684,-0.03416,-0.06832,-0.16592,-0.12688,-0.07808,-0.06344
-0.03416,0.0732,-0.11224,-0.09516,-0.07808,0.02196,-0.03416,-0.06832,-0.16592,-0.12688,-0.07808,-0.06344
-0.00976,0.03904,-0.06832,-0.06344,-0.05856,0.0244,-0.01952,-0.05856,-0.16592,-0.13664,-0.0732,-0.05856
0.00976,0.01464,-0.03904,-0.04392,-0.0488,0.02928,-0.01952,-0.05856,-0.15616,-0.11712,-0.06832,-0.0488
0.01952,0.01464,-0.0488,-0.05856,-0.06832,0.04392,-0.00976,-0.0488,-0.15616,-0.11712,-0.07808,-0.0488
0.01952,0.01464,-0.0488,-0.05856,-0.06832,0.04392,-0.00976,-0.0488,-0.15616,-0.11712,-0.07808,-0.0488
-0.00488,0.03416,-0.06344,-0.061,-0.05856,0.02684,-0.01952,-0.05856,-0.15616,-0.12688,-0.08296,-0.05856
0.00488,0.03172,-0.06832,-0.07076,-0.0732,0.03904,-0.01952,-0.05856,-0.16104,-0.13664,-0.08296,-0.06344
-0.00976,0.0488,-0.08784,-0.08296,-0.07808,0.03416,-0.02928,-0.06832,-0.1708,-0.13664,-0.09272,-0.0732
-0.03904,0.07564,-0.11224,-0.09272,-0.0732,0.01708,-0.03416,-0.06832,-0.17568,-0.1464,-0.10248,-0.08784
-0.01464,0.0488,-0.08296,-0.07564,-0.06832,0.02684,-0.01952,-0.05856,-0.16104,-0.13176,-0.08784,-0.07808
0.00488,0.0244,-0.05368,-0.05612,-0.05856,0.03172,-0.00488,-0.05368,-0.15616,-0.122,-0.0732,-0.06832
0.01464,0.01708,-0.0488,-0.05612,-0.06344,0.03904,0,-0.03904,-0.15128,-0.11224,-0.06832,-0.05368
0.01464,0.01464,-0.04392,-0.05124,-0.05856,0.0366,0.00488,-0.03904,-0.1464,-0.10736,-0.06344,-0.0488
-0.00976,0.03172,-0.05368,-0.0488,-0.04392,0.01708,0.00976,-0.04392,-0.14152,-0.11712,-0.0732,-0.0488
-0.01464,0.02684,-0.03904,-0.03172,-0.0244,0.00488,0.0244,-0.03904,-0.13176,-0.10248,-0.05856,-0.03904
-0.00976,0.02196,-0.03416,-0.02928,-0.0244,0.00732,0.0244,-0.03904,-0.12688,-0.0976,-0.05368,-0.04392
-0.00488,0.01708,-0.02928,-0.02684,-0.0244,0.00976,0.0244,-0.03904,-0.12688,-0.0976,-0.05368,-0.03904
0.00976,0.00488,-0.01952,-0.0244,-0.02928,0.01952,0.0244,-0.0244,-0.11712,-0.08784,-0.04392,-0.02928
0.0244,-0.0122,0,-0.0122,-0.0244,0.0244,0.00488,-0.02928,-0.10736,-0.08296,-0.03904,-0.02928
0.05856,-0.0488,0.03904,0.00976,-0.01952,0.03904,-0.00488,-0.03416,-0.08784,-0.06344,-0.01464,-0.00488
0.06832,-0.0732,0.07808,0.04392,0.00976,0.02928,-0.00976,-0.03416,-0.0732,-0.04392,0.00976,0.01952
0.0732,-0.0854,0.0976,0.061,0.0244,0.0244,-0.02928,-0.04392,-0.08296,-0.0488,0.00976,0.01464
0.0732,-0.0854,0.0976,0.061,0.0244,0.0244,-0.04392,-0.0488,-0.09272,-0.0488,0.00976,0.00976
0.08296,-0.09516,0.10736,0.06588,0.0244,0.02928,-0.05368,-0.05856,-0.09272,-0.0488,0.01952,0.01952
0.08296,-0.09516,0.10736,0.06588,0.0244,0.02928,-0.06832,-0.06832,-0.10248,-0.05368,0.01952,0.01952
0.0976,-0.1098,0.122,0.0732,0.0244,0.0366,-0.07808,-0.05856,-0.08784,-0.04392,0.0244,0.03416
0.10736,-0.11712,0.12688,0.0732,0.01952,0.04392,-0.0976,-0.05856,-0.08296,-0.03416,0.03904,0.03904
0.12688,-0.12444,0.122,0.05856,-0.00488,0.06588,-0.09272,-0.05856,-0.08296,-0.03904,0.02928,0.03416
0.12688,-0.11712,0.10736,0.04392,-0.01952,0.0732,-0.07808,-0.0488,-0.08296,-0.03416,0.02928,0.03904
0.09272,-0.08784,0.08296,0.0366,-0.00976,0.05124,-0.07808,-0.0488,-0.09272,-0.04392,0.02928,0.03904
0.06832,-0.0732,0.07808,0.04392,0.00976,0.02928,-0.06344,-0.0488,-0.09272,-0.04392,0.02928,0.03904
0.06344,-0.07076,0.07808,0.04636,0.01464,0.0244,-0.0488,-0.05368,-0.10736,-0.0488,0.00976,0.0244
0.06832,-0.061,0.05368,0.01952,-0.01464,0.04148,-0.05368,-0.0732,-0.13176,-0.07808,-0.00488,0.01464
0.06344,-0.05124,0.03904,0.00732,-0.0244,0.04392,-0.05368,-0.05856,-0.12688,-0.07808,-0.01952,0.00488
0.06344,-0.03904,0.01464,-0.01708,-0.0488,0.05612,-0.03904,-0.05368,-0.12688,-0.08296,-0.02928,-0.00976
0.0488,-0.01708,-0.01464,-0.03904,-0.06344,0.05612,-0.03904,-0.06344,-0.13664,-0.10248,-0.04392,-0.02928
0.0488,-0.0122,-0.0244,-0.0488,-0.0732,0.061,-0.03904,-0.05856,-0.1464,-0.11712,-0.05368,-0.03904
0.0244,0.02196,-0.06832,-0.08052,-0.09272,0.05856,-0.03904,-0.06832,-0.1708,-0.13664,-0.08296,-0.05368
0.00488,0.04392,-0.09272,-0.09516,-0.0976,0.05124,-0.04392,-0.0732,-0.18056,-0.15128,-0.08296,-0.06344
0.00488,0.03904,-0.08296,-0.0854,-0.08784,0.04636,-0.02928,-0.06832,-0.1708,-0.14152,-0.06832,-0.05368
-0.00488,0.04148,-0.07808,-0.07564,-0.0732,0.03416,-0.01952,-0.06832,-0.1708,-0.13664,-0.07808,-0.05856
0.03416,0.00976,-0.05368,-0.07076,-0.08784,0.061,0,-0.05368,-0.15128,-0.122,-0.06344,-0.0488
0.05856,-0.0122,-0.03416,-0.06344,-0.09272,0.07564,0,-0.04392,-0.15128,-0.11224,-0.06832,-0.05368
0.0244,0.02196,-0.06832,-0.08052,-0.09272,0.05856,0.01464,-0.03416,-0.15616,-0.13176,-0.06832,-0.06344
0.01464,0.07076,-0.15616,-0.16348,-0.1708,0.09272,0.03416,0.00488,-0.16104,-0.1708,-0.10736,-0.11224
0,0.10004,-0.20008,-0.20008,-0.20008,0.10004,0.11712,0.0976,-0.10248,-0.17568,-0.13664,-0.13176
-0.00488,0.10492,-0.20496,-0.20252,-0.20008,0.0976,0.22936,0.19032,-0.05856,-0.1708,-0.15128,-0.15128
-0.03416,0.11956,-0.20496,-0.18788,-0.1708,0.06832,0.33184,0.27328,0.06344,-0.10736,-0.0976,-0.13664
0.05856,-0.00488,-0.0488,-0.07808,-0.10736,0.08296,0.40504,0.38552,0.28792,0.08296,0.0488,-0.01952
0.11224,-0.122,0.13176,0.07564,0.01952,0.04636,0.366,0.47336,0.52704,0.35624,0.25864,0.15128
0.2196,-0.3172,0.4148,0.305,0.1952,0.0122,0.19032,0.5612,0.90768,0.76128,0.59536,0.40504
0.40504,-0.6344,0.86376,0.66124,0.45872,-0.02684,-0.11224,0.61976,1.42984,1.32736,1.05408,0.732
0.4636,-0.9028,1.342,1.1102,0.8784,-0.2074,-0.55144,0.26352,1.71776,1.73728,1.4396,1.04432
0.4392,-1.06384,1.68848,1.46888,1.24928,-0.40504,-1.0736,-0.47336,1.60064,1.88368,1.62016,1.21512
0.39528,-1.11996,1.84464,1.647,1.44936,-0.52704,-1.42008,-1.05896,1.26392,1.81048,1.6104,1.2444
0.33184,-0.9882,1.64456,1.47864,1.31272,-0.49044,-1.47376,-1.13704,0.96136,1.47376,1.35176,1.07848
0.34648,-0.86864,1.3908,1.21756,1.04432,-0.34892,-1.38104,-1.10776,0.47824,0.95648,0.98576,0.83448
0.23424,-0.65636,1.07848,0.96136,0.84424,-0.305,-1.1956,-1.07848,-0.1708,0.3904,0.58072,0.57584
0.244,-0.56852,0.89304,0.77104,0.64904,-0.20252,-0.86376,-0.81008,-0.24888,0.21472,0.40992,0.42944
0.1952,-0.44164,0.68808,0.59048,0.49288,-0.14884,-0.5612,-0.55632,-0.20984,0.15128,0.32696,0.33672
0.14152,-0.27572,0.40992,0.33916,0.2684,-0.06344,-0.33184,-0.3172,-0.122,0.10248,0.22448,0.2196
0.08784,-0.15128,0.21472,0.1708,0.12688,-0.01952,-0.20008,-0.122,-0.03416,0.08784,0.15128,0.13664
0.10248,-0.11956,0.13664,0.0854,0.03416,0.03416,-0.0732,-0.01464,0.01952,0.06344,0.10736,0.09272
0.06344,-0.08784,0.11224,0.08052,0.0488,0.00732,0.00488,0.00488,-0.00488,0.0244,0.0732,0.06344
0.0488,-0.06344,0.07808,0.05368,0.02928,0.00976,0.03904,0.0244,-0.0244,-0.00488,0.0488,0.03416
0.03904,-0.02684,0.01464,-0.00488,-0.0244,0.03172,0.03904,0.04392,-0.06832,-0.04392,-0.00976,-0.01464
0.03416,-0.0122,-0.00976,-0.02684,-0.04392,0.03904,0.05856,0.06344,-0.08296,-0.05856,-0.01952,-0.01952
0.02928,-0.00732,-0.01464,-0.02928,-0.04392,0.0366,0.09272,0.06832,-0.0732,-0.06832,-0.01952,-0.01952
0.03416,-0.00244,-0.02928,-0.04636,-0.06344,0.0488,0.122,0.0732,-0.06832,-0.07808,-0.02928,-0.03416
0.0244,0.0122,-0.0488,-0.061,-0.0732,0.0488,0.122,0.0732,-0.06832,-0.08296,-0.04392,-0.04392
0.03416,0.01464,-0.06344,-0.08052,-0.0976,0.06588,0.10736,0.06344,-0.0732,-0.08296,-0.05368,-0.04392
0.03416,0.01464,-0.06344,-0.08052,-0.0976,0.06588,0.11712,0.05368,-0.0732,-0.06832,-0.04392,-0.04392
0.03416,0.01708,-0.06832,-0.0854,-0.10248,0.06832,0.11712,0.05856,-0.06344,-0.06344,-0.03416,-0.04392
0.01464,0.03172,-0.07808,-0.0854,-0.09272,0.05368,0.11224,0.06344,-0.05856,-0.06832,-0.03416,-0.05368
0.02928,0.02196,-0.0732,-0.08784,-0.10248,0.06588,0.10248,0.0732,-0.05368,-0.06832,-0.02928,-0.05856
0.04392,0.0122,-0.06832,-0.09028,-0.11224,0.07808,0.11224,0.07808,-0.03904,-0.05856,-0.01952,-0.04392
0.03904,0.01464,-0.06832,-0.08784,-0.10736,0.0732,0.11712,0.07808,-0.0244,-0.06832,-0.00488,-0.03416
0.04392,0.0122,-0.06832,-0.09028,-0.11224,0.07808,0.10736,0.08784,-0.03416,-0.0732,-0.01464,-0.0488
0.05856,-0.00244,-0.05368,-0.08296,-0.11224,0.0854,0.10736,0.08784,-0.0244,-0.0732,-0.0244,-0.04392
0.05856,-0.00488,-0.0488,-0.07808,-0.10736,0.08296,0.11712,0.10248,-0.01464,-0.06832,-0.02928,-0.02928
0.0488,0.00488,-0.05856,-0.08296,-0.10736,0.07808,0.122,0.10248,-0.00488,-0.06344,-0.03416,-0.01464
0.04392,0.00732,-0.05856,-0.08052,-0.10248,0.0732,0.12688,0.11712,-0.00488,-0.06344,-0.04392,-0.0244
0.03904,0.01464,-0.06832,-0.08784,-0.10736,0.0732,0.13664,0.12688,0,-0.06344,-0.03904,-0.03416
0.02928,0.02196,-0.0732,-0.08784,-0.10248,0.06588,0.13664,0.13664,0.00976,-0.04392,-0.03904,-0.0244
0.02928,0.02196,-0.0732,-0.08784,-0.10248,0.06588,0.14152,0.13664,0.01952,-0.04392,-0.03416,-0.02928
0.04392,0.00732,-0.05856,-0.08052,-0.10248,0.0732,0.15616,0.14152,0.01952,-0.03416,-0.0244,-0.01952
0.0488,-0.00488,-0.03904,-0.06344,-0.08784,0.06832,0.15616,0.15616,0.02928,-0.02928,-0.01952,-0.01464
0.04392,0.00732,-0.05856,-0.08052,-0.10248,0.0732,0.1464,0.15616,0.03416,-0.0244,-0.01464,-0.01952
0.04392,0.0122,-0.06832,-0.09028,-0.11224,0.07808,0.13664,0.1708,0.04392,-0.01464,-0.00976,-0.01464
0.05856,-0.0122,-0.03416,-0.06344,-0.09272,0.07564,0.1464,0.18056,0.0488,-0.01464,0.00488,-0.00976
0.06344,-0.0244,-0.01464,-0.04636,-0.07808,0.07076,0.16104,0.18544,0.05856,-0.01464,0.01464,-0.00976
0.0488,-0.00732,-0.03416,-0.05856,-0.08296,0.06588,0.16104,0.18056,0.06344,-0.00976,0.00488,-0.00488
0.05368,-0.00732,-0.03904,-0.06588,-0.09272,0.0732,0.16104,0.18544,0.0732,-0.00976,0.01464,0
0.06344,-0.02196,-0.01952,-0.05124,-0.08296,0.0732,0.16104,0.20984,0.0976,0.00488,0.02928,0.00488
0.06344,-0.02196,-0.01952,-0.05124,-0.08296,0.0732,0.16592,0.2196,0.10248,0.00976,0.02928,0.00488
0.0488,-0.00976,-0.02928,-0.05368,-0.07808,0.06344,0.15616,0.2196,0.10736,0,0.01464,0.00488
0.04392,-0.00244,-0.03904,-0.061,-0.08296,0.06344,0.16104,0.2196,0.11712,0.00488,0.01464,0.00976
0.07808,-0.02684,-0.0244,-0.06344,-0.10248,0.09028,0.17568,0.23912,0.1464,0.01952,0.01952,0.01952
0.0976,-0.04392,-0.00976,-0.05856,-0.10736,0.10248,0.1952,0.25376,0.16592,0.03904,0.03416,0.01952
0.10248,-0.05368,0.00488,-0.04636,-0.0976,0.10004,0.18544,0.25864,0.1708,0.04392,0.03416,0.01952
0.08784,-0.04148,-0.00488,-0.0488,-0.09272,0.09028,0.19032,0.27328,0.17568,0.0488,0.03904,0.01952
0.10248,-0.05612,0.00976,-0.04148,-0.09272,0.0976,0.19032,0.2928,0.20008,0.06832,0.03904,0.01464
0.11224,-0.061,0.00976,-0.04636,-0.10248,0.10736,0.1952,0.30256,0.20984,0.0732,0.04392,0.01952
0.0976,-0.05368,0.00976,-0.03904,-0.08784,0.09272,0.20984,0.32208,0.23424,0.08784,0.06344,0.02928
0.09272,-0.05124,0.00976,-0.0366,-0.08296,0.08784,0.21472,0.33672,0.244,0.11224,0.06344,0.02928
0.0732,-0.02684,-0.01952,-0.05612,-0.09272,0.08296,0.20496,0.3416,0.24888,0.0976,0.06832,0.01952
0.06344,-0.01464,-0.03416,-0.06588,-0.0976,0.08052,0.20496,0.33672,0.25864,0.0976,0.07808,0.01952
0.08784,-0.04392,0,-0.04392,-0.08784,0.08784,0.21472,0.36112,0.27816,0.11712,0.0976,0.03904
0.11712,-0.07076,0.0244,-0.03416,-0.09272,0.10492,0.22448,0.38552,0.29768,0.14152,0.10248,0.0488
0.11224,-0.06588,0.01952,-0.0366,-0.09272,0.10248,0.22448,0.38064,0.30744,0.13176,0.10736,0.04392
0.10248,-0.05368,0.00488,-0.04636,-0.0976,0.10004,0.2196,0.38064,0.30744,0.13176,0.10736,0.04392
0.10736,-0.061,0.01464,-0.03904,-0.09272,0.10004,0.22936,0.38064,0.30256,0.14152,0.11712,0.05856
0.10736,-0.06832,0.02928,-0.0244,-0.07808,0.09272,0.2196,0.37576,0.30256,0.14152,0.122,0.06344
0.08784,-0.05368,0.01952,-0.0244,-0.06832,0.07808,0.1952,0.35136,0.30256,0.14152,0.11224,0.05368
0.08784,-0.05612,0.0244,-0.01952,-0.06344,0.07564,0.20496,0.35136,0.29768,0.14152,0.11224,0.05856
0.0976,-0.06588,0.03416,-0.01464,-0.06344,0.08052,0.18544,0.33672,0.27328,0.13176,0.11224,0.05856
0.11224,-0.07808,0.04392,-0.0122,-0.06832,0.09028,0.1708,0.31232,0.2684,0.12688,0.11224,0.05856
0.13176,-0.10004,0.06832,0.00244,-0.06344,0.0976,0.1708,0.30256,0.2684,0.13664,0.122,0.0732
0.14152,-0.12688,0.11224,0.04148,-0.02928,0.0854,0.16104,0.28792,0.25864,0.15128,0.13176,0.08296
0.11712,-0.10492,0.09272,0.03416,-0.0244,0.07076,0.14152,0.25376,0.22448,0.12688,0.11224,0.06832
0.10248,-0.09272,0.08296,0.03172,-0.01952,0.061,0.13176,0.22936,0.20496,0.11224,0.10248,0.06344
0.08784,-0.0732,0.05856,0.01464,-0.02928,0.05856,0.0976,0.1952,0.18544,0.11224,0.0976,0.05368
0.05856,-0.04636,0.03416,0.00488,-0.0244,0.04148,0.08784,0.16592,0.15128,0.10248,0.09272,0.05368
0.07808,-0.07076,0.06344,0.0244,-0.01464,0.04636,0.07808,0.1464,0.13176,0.0976,0.10248,0.06344
0.08296,-0.0732,0.06344,0.02196,-0.01952,0.05124,0.06832,0.13176,0.11224,0.08296,0.09272,0.05368
0.0976,-0.09028,0.08296,0.03416,-0.01464,0.05612,0.06832,0.10736,0.0976,0.07808,0.09272,0.05368
0.11712,-0.10492,0.09272,0.03416,-0.0244,0.07076,0.05856,0.08296,0.06832,0.05856,0.08296,0.0488
0.10736,-0.09028,0.0732,0.01952,-0.03416,0.07076,0.05856,0.07808,0.04392,0.03904,0.06832,0.03904
0.10248,-0.0854,0.06832,0.01708,-0.03416,0.06832,0.0488,0.06344,0.01952,0.02928,0.05856,0.03416
0.0732,-0.05856,0.04392,0.00732,-0.02928,0.05124,0.03904,0.03904,-0.00488,0,0.04392,0.00976
0.06344,-0.04636,0.02928,-0.00244,-0.03416,0.0488,0.02928,0.01952,-0.0244,-0.01952,0.03416,0.00976
0.03904,-0.02196,0.00488,-0.01464,-0.03416,0.0366,0.03416,-0.00488,-0.0488,-0.02928,0.02928,0.00488
0.0244,-0.00976,-0.00488,-0.01708,-0.02928,0.02684,0.03416,-0.01464,-0.05856,-0.03416,0.0244,0.00976
0.03416,-0.02196,0.00976,-0.00732,-0.0244,0.02928,0.02928,-0.01464,-0.07808,-0.03904,0.01952,0.00976
0.0488,-0.03172,0.01464,-0.00976,-0.03416,0.04148,0.02928,0,-0.08296,-0.0488,0.01952,0.00976
0.0488,-0.03416,0.01952,-0.00488,-0.02928,0.03904,0.03416,-0.00488,-0.08296,-0.04392,0.00976,0.00488
0.06344,-0.04636,0.02928,-0.00244,-0.03416,0.0488,0.03904,-0.00976,-0.08784,-0.04392,0.01464,0.01464
0.05368,-0.03416,0.01464,-0.0122,-0.03904,0.04636,0.01952,-0.01464,-0.0976,-0.05368,0.00976,-0.00976
0.0488,-0.03172,0.01464,-0.00976,-0.03416,0.04148,0.0244,-0.01464,-0.0976,-0.05368,-0.00488,-0.00976
0.03416,-0.02196,0.00976,-0.00732,-0.0244,0.02928,0.02928,-0.01952,-0.10736,-0.06344,-0.00976,-0.01464
0.0244,-0.00976,-0.00488,-0.01708,-0.02928,0.02684,0.02928,-0.02928,-0.11712,-0.06344,-0.0244,-0.01464
0.01952,-0.00732,-0.00488,-0.01464,-0.0244,0.02196,0.01952,-0.03416,-0.10736,-0.06832,-0.01952,-0.01952
0.0244,-0.01464,0.00488,-0.00732,-0.01952,0.02196,0.0244,-0.03416,-0.10248,-0.06832,-0.01952,-0.0244
0.02928,-0.01952,0.00976,-0.00488,-0.01952,0.0244,0.03416,-0.03416,-0.0976,-0.0732,-0.00976,-0.0244
0.03416,-0.01464,-0.00488,-0.02196,-0.03904,0.0366,0.03416,-0.03416,-0.10248,-0.07808,-0.0244,-0.0244
0.01464,-0.00488,-0.00488,-0.0122,-0.01952,0.01708,0.03416,-0.03416,-0.11224,-0.0732,-0.00976,-0.01464
0.03416,-0.0244,0.01464,-0.00244,-0.01952,0.02684,0.03904,-0.02928,-0.10248,-0.06344,-0.00488,-0.01464
0.05856,-0.0488,0.03904,0.00976,-0.01952,0.03904,0.03904,-0.01464,-0.09272,-0.05368,0,-0.00976
0.06344,-0.05124,0.03904,0.00732,-0.0244,0.04392,0.04392,-0.01464,-0.07808,-0.0488,0.00976,-0.00976
0.05368,-0.03904,0.0244,-0.00244,-0.02928,0.04148,0.02928,-0.01464,-0.08784,-0.05856,0,-0.0244
0.06832,-0.0488,0.02928,-0.00488,-0.03904,0.05368,0.02928,-0.01464,-0.08296,-0.06832,-0.00488,-0.02928
0.05856,-0.04148,0.0244,-0.00488,-0.03416,0.04636,0.04392,-0.00976,-0.08784,-0.05856,-0.00488,-0.0244
0.0488,-0.03416,0.01952,-0.00488,-0.02928,0.03904,0.05368,-0.00976,-0.08296,-0.0488,-0.00488,-0.01952
0.02928,-0.01464,0,-0.01464,-0.02928,0.02928,0.04392,-0.01464,-0.08296,-0.05856,-0.00488,-0.02928
0.0244,-0.00976,-0.00488,-0.01708,-0.02928,0.02684,0.04392,-0.00976,-0.07808,-0.0488,0,-0.03904
0.00488,0.00976,-0.0244,-0.02684,-0.02928,0.01708,0.04392,-0.01952,-0.09272,-0.05856,0,-0.0488
-0.00488,0.0122,-0.01952,-0.01708,-0.01464,0.00488,0.03416,-0.01464,-0.0976,-0.05856,0,-0.03904
0.0488,-0.04392,0.03904,0.01464,-0.00976,0.02928,0.05368,0,-0.08296,-0.04392,0.00976,-0.01464
0.08784,-0.07076,0.05368,0.00976,-0.03416,0.061,0.05856,0.00976,-0.06832,-0.03416,0.01464,-0.00488
0.06344,-0.05124,0.03904,0.00732,-0.0244,0.04392,0.04392,0.00976,-0.0732,-0.04392,0.01464,-0.01952
0.0488,-0.04392,0.03904,0.01464,-0.00976,0.02928,0.04392,0.01464,-0.0732,-0.04392,0.00976,-0.01952
0.0488,-0.04392,0.03904,0.01464,-0.00976,0.02928,0.04392,0.00488,-0.08296,-0.05368,0.00976,-0.02928
0.0488,-0.03172,0.01464,-0.00976,-0.03416,0.04148,0.03904,0,-0.07808,-0.0488,0,-0.0244
0.0244,-0.00732,-0.00976,-0.02196,-0.03416,0.02928,0.02928,-0.00488,-0.07808,-0.05856,-0.00976,-0.03416
0.00488,0.0122,-0.02928,-0.03172,-0.03416,0.01952,0.02928,-0.00488,-0.08784,-0.05856,-0.0244,-0.04392
0.01464,0.00244,-0.01952,-0.02684,-0.03416,0.0244,0.02928,-0.00488,-0.08296,-0.05368,-0.00976,-0.02928
0.01952,-0.00732,-0.00488,-0.01464,-0.0244,0.02196,0.03416,0.00488,-0.0732,-0.04392,0,-0.02928
0.03904,-0.03172,0.0244,0.00488,-0.01464,0.02684,0.04392,0.00488,-0.06832,-0.03416,0.00976,-0.01952
0.05368,-0.03904,0.0244,-0.00244,-0.02928,0.04148,0.0488,0.00488,-0.06832,-0.03416,0.01952,-0.01952
0.0488,-0.03416,0.01952,-0.00488,-0.02928,0.03904,0.03904,-0.00488,-0.07808,-0.03904,0.00488,-0.02928
0.04392,-0.03416,0.0244,0.00244,-0.01952,0.03172,0.03904,0.00488,-0.0732,-0.03416,0.00976,-0.02928
0.06344,-0.0488,0.03416,0.00244,-0.02928,0.04636,0.03904,0.00488,-0.0732,-0.04392,0.01952,-0.01952
0.05368,-0.0366,0.01952,-0.00732,-0.03416,0.04392,0.03904,0.00488,-0.0732,-0.04392,0.01952,-0.01952
0.0488,-0.02928,0.00976,-0.01464,-0.03904,0.04392,0.0244,-0.00976,-0.08784,-0.05856,0.00976,-0.02928
0.04392,-0.02684,0.00976,-0.0122,-0.03416,0.03904,0.02928,-0.01952,-0.10248,-0.05856,0,-0.03904
0.03416,-0.01708,0,-0.01708,-0.03416,0.03416,0.01952,-0.01952,-0.10736,-0.06344,-0.01464,-0.03904
0.03904,-0.01464,-0.00976,-0.02928,-0.0488,0.04392,0.0244,-0.0244,-0.10736,-0.06832,-0.01464,-0.03416
0.02928,-0.0122,-0.00488,-0.01952,-0.03416,0.03172,0.01464,-0.03416,-0.11224,-0.08296,-0.02928,-0.0488
0.0244,-0.00732,-0.00976,-0.02196,-0.03416,0.02928,0.01464,-0.03904,-0.11224,-0.08784,-0.03904,-0.05856
0.02928,-0.01464,0,-0.01464,-0.02928,0.02928,0.01952,-0.02928,-0.10736,-0.07808,-0.02928,-0.05368
0.02928,-0.00976,-0.00976,-0.0244,-0.03904,0.03416,0.0244,-0.0244,-0.0976,-0.07808,-0.02928,-0.05368
0.0244,-0.00244,-0.01952,-0.03172,-0.04392,0.03416,0.01464,-0.03416,-0.11224,-0.07808,-0.01952,-0.0488
0.00976,0.01464,-0.03904,-0.04392,-0.0488,0.02928,0.01464,-0.03904,-0.122,-0.08784,-0.0244,-0.05368
0.01464,0.00488,-0.0244,-0.03172,-0.03904,0.02684,0.00488,-0.03904,-0.122,-0.08784,-0.0244,-0.05368
0.03416,-0.0122,-0.00976,-0.02684,-0.04392,0.03904,0.01464,-0.03904,-0.122,-0.08296,-0.01952,-0.05368
0.04392,-0.00976,-0.0244,-0.04636,-0.06832,0.05612,0.0244,-0.02928,-0.122,-0.08296,-0.0244,-0.05368
0.03904,-0.00732,-0.0244,-0.04392,-0.06344,0.05124,0.0244,-0.03416,-0.122,-0.09272,-0.0244,-0.05368
0.01464,0.01708,-0.0488,-0.05612,-0.06344,0.03904,0.01464,-0.03416,-0.14152,-0.10248,-0.02928,-0.06344
-0.01464,0.0488,-0.08296,-0.07564,-0.06832,0.02684,0.01464,-0.03904,-0.14152,-0.11224,-0.05368,-0.06344
0.04392,-0.00244,-0.03904,-0.061,-0.08296,0.06344,0.00488,-0.05368,-0.14152,-0.10248,-0.04392,-0.06832
0.08296,-0.04392,0.00488,-0.0366,-0.07808,0.08052,0.01464,-0.05368,-0.14152,-0.09272,-0.02928,-0.06832
0.05856,-0.02928,0,-0.02928,-0.05856,0.05856,0.01952,-0.03904,-0.13176,-0.08296,-0.01952,-0.05856
0.04392,-0.0122,-0.01952,-0.04148,-0.06344,0.05368,0.02928,-0.03904,-0.13664,-0.08784,-0.01952,-0.05368
0.06344,-0.01708,-0.02928,-0.061,-0.09272,0.07808,0.00976,-0.05368,-0.1464,-0.11224,-0.0488,-0.0732
0.05856,-0.01708,-0.0244,-0.05368,-0.08296,0.07076,0.01464,-0.05856,-0.15616,-0.11712,-0.0488,-0.08296
0.01952,0.00732,-0.03416,-0.04392,-0.05368,0.0366,0.03416,-0.03904,-0.1464,-0.0976,-0.03904,-0.07808
-0.01464,0.02684,-0.03904,-0.03172,-0.0244,0.00488,0.04392,-0.02928,-0.13664,-0.0976,-0.03416,-0.0732
0.01464,0.01952,-0.05368,-0.061,-0.06832,0.04148,0.02928,-0.03904,-0.1464,-0.10736,-0.04392,-0.0732
0.03416,0.00976,-0.05368,-0.07076,-0.08784,0.061,0.01464,-0.05368,-0.16104,-0.11224,-0.0488,-0.07808
0.05368,-0.00244,-0.0488,-0.07564,-0.10248,0.07808,0.01464,-0.06344,-0.16104,-0.10736,-0.04392,-0.08296
0.07808,-0.02196,-0.03416,-0.0732,-0.11224,0.09516,0.00976,-0.06832,-0.16592,-0.122,-0.0488,-0.07808
0.02928,0.01708,-0.06344,-0.07808,-0.09272,0.061,0.01952,-0.05368,-0.15616,-0.11224,-0.05856,-0.07808
0,0.0366,-0.0732,-0.0732,-0.0732,0.0366,0.02928,-0.03904,-0.1464,-0.10248,-0.05368,-0.08296
0.01464,0.03172,-0.07808,-0.0854,-0.09272,0.05368,0.01464,-0.05856,-0.15616,-0.122,-0.05368,-0.09272
0.01952,0.02928,-0.07808,-0.08784,-0.0976,0.05856,0.00488,-0.06344,-0.16592,-0.122,-0.05368,-0.09272
-0.02928,0.0366,-0.04392,-0.02928,-0.01464,-0.00732,0.03904,-0.02928,-0.13176,-0.09272,-0.0244,-0.05368
-0.07808,0.05124,-0.0244,0.01464,0.05368,-0.06588,0.07808,-0.00976,-0.11224,-0.06344,-0.00488,-0.02928
-0.0488,0.04636,-0.04392,-0.01952,0.00488,-0.02684,0.05856,-0.03416,-0.13664,-0.08296,-0.0244,-0.0488
-0.01952,0.04148,-0.06344,-0.05368,-0.04392,0.0122,0.01952,-0.04392,-0.1464,-0.0976,-0.03904,-0.05856
0,0.02928,-0.05856,-0.05856,-0.05856,0.02928,0.00976,-0.05856,-0.15616,-0.10736,-0.0488,-0.0732
0.02928,0.00976,-0.0488,-0.06344,-0.07808,0.05368,0.00976,-0.05856,-0.16104,-0.11712,-0.05368,-0.08296
0.03904,0.00244,-0.04392,-0.06344,-0.08296,0.061,0.01464,-0.05856,-0.1708,-0.11712,-0.0488,-0.07808
0.04392,-0.00244,-0.03904,-0.061,-0.08296,0.06344,0.01464,-0.06344,-0.1708,-0.122,-0.0488,-0.07808
-0.00488,0.02928,-0.05368,-0.05124,-0.0488,0.02196,0.02928,-0.04392,-0.16104,-0.11224,-0.03904,-0.06832
-0.02928,0.03904,-0.0488,-0.03416,-0.01952,-0.00488,0.03904,-0.03416,-0.15128,-0.10736,-0.03416,-0.05856
-0.0488,0.05612,-0.06344,-0.03904,-0.01464,-0.01708,0.02928,-0.03904,-0.15128,-0.11224,-0.04392,-0.0732
-0.0488,0.05612,-0.06344,-0.03904,-0.01464,-0.01708,0.03416,-0.04392,-0.15128,-0.122,-0.0488,-0.08296
-0.04392,0.0488,-0.05368,-0.03172,-0.00976,-0.01708,0.02928,-0.03416,-0.14152,-0.11224,-0.04392,-0.06344
-0.03904,0.04392,-0.0488,-0.02928,-0.00976,-0.01464,0.01952,-0.04392,-0.13664,-0.0976,-0.03904,-0.06344
-0.00976,0.0244,-0.03904,-0.03416,-0.02928,0.00976,0.01952,-0.05368,-0.15128,-0.11224,-0.0488,-0.06832
0.01464,0.0122,-0.03904,-0.04636,-0.05368,0.03416,0.01464,-0.05368,-0.16104,-0.11712,-0.0488,-0.0732
-0.00488,0.02684,-0.0488,-0.04636,-0.04392,0.01952,0.0244,-0.05368,-0.16104,-0.10736,-0.04392,-0.06344
-0.01464,0.0366,-0.05856,-0.05124,-0.04392,0.01464,0.0244,-0.05368,-0.15616,-0.10736,-0.04392,-0.06344
0,0.03416,-0.06832,-0.06832,-0.06832,0.03416,0.00488,-0.06344,-0.1708,-0.12688,-0.0488,-0.08296
0.0244,0.01952,-0.06344,-0.07564,-0.08784,0.05612,0,-0.0732,-0.18056,-0.14152,-0.05856,-0.09272
-0.01952,0.0366,-0.05368,-0.04392,-0.03416,0.00732,0.01952,-0.05856,-0.15616,-0.11712,-0.03904,-0.08296
-0.02928,0.03416,-0.03904,-0.0244,-0.00976,-0.00976,0.02928,-0.0488,-0.1464,-0.11712,-0.04392,-0.07808
-0.03904,0.04636,-0.05368,-0.03416,-0.01464,-0.0122,0.01464,-0.05856,-0.15616,-0.11712,-0.03904,-0.0732
-0.04392,0.05856,-0.0732,-0.05124,-0.02928,-0.00732,0.01464,-0.06832,-0.16592,-0.11712,-0.03904,-0.0732
-0.02928,0.04392,-0.05856,-0.04392,-0.02928,0,0.02928,-0.05856,-0.15616,-0.10736,-0.04392,-0.06832
-0.01464,0.02928,-0.04392,-0.0366,-0.02928,0.00732,0.03416,-0.05368,-0.15616,-0.10248,-0.03416,-0.05368
0,0.02684,-0.05368,-0.05368,-0.05368,0.02684,0.0244,-0.05856,-0.16104,-0.10736,-0.04392,-0.06344
0.01952,0.01708,-0.05368,-0.06344,-0.0732,0.04636,0.01952,-0.06344,-0.16592,-0.11712,-0.05368,-0.06344
-0.00488,0.01708,-0.02928,-0.02684,-0.0244,0.00976,0.02928,-0.0488,-0.14152,-0.0976,-0.04392,-0.05368
0.03416,0.00244,-0.03904,-0.05612,-0.0732,0.05368,0.00976,-0.06344,-0.16104,-0.11712,-0.0732,-0.08296
-0.01464,0.03416,-0.05368,-0.04636,-0.03904,0.0122,0.02928,-0.05856,-0.15616,-0.11712,-0.06832,-0.08784
-0.0244,0.04392,-0.06344,-0.05124,-0.03904,0.00732,0.02928,-0.05856,-0.15616,-0.11712,-0.06832,-0.08784
-0.0488,0.061,-0.0732,-0.0488,-0.0244,-0.0122,0.01952,-0.06832,-0.16592,-0.12688,-0.05856,-0.07808
-0.05368,0.0732,-0.09272,-0.06588,-0.03904,-0.00732,0.01952,-0.06832,-0.16592,-0.12688,-0.06344,-0.08296
-0.03416,0.05612,-0.07808,-0.061,-0.04392,0.00488,0.0244,-0.06344,-0.16592,-0.122,-0.05856,-0.07808
-0.03416,0.0488,-0.06344,-0.04636,-0.02928,-0.00244,0.03416,-0.05368,-0.15616,-0.11224,-0.0488,-0.06832
-0.01464,0.03416,-0.05368,-0.04636,-0.03904,0.0122,0.0244,-0.05856,-0.16104,-0.12688,-0.05368,-0.0732
0.00976,0.01464,-0.03904,-0.04392,-0.0488,0.02928,0.02928,-0.05368,-0.16104,-0.11224,-0.05856,-0.08296
0,0.02196,-0.04392,-0.04392,-0.04392,0.02196,0.03416,-0.05368,-0.16592,-0.11224,-0.05368,-0.08296
-0.02928,0.04392,-0.05856,-0.04392,-0.02928,0,0.04392,-0.0488,-0.15616,-0.11224,-0.0488,-0.07808
-0.0488,0.05368,-0.05856,-0.03416,-0.00976,-0.01952,0.03904,-0.05368,-0.15616,-0.10736,-0.04392,-0.06832
-0.04392,0.04392,-0.04392,-0.02196,0,-0.02196,0.0488,-0.05368,-0.15128,-0.10248,-0.03904,-0.06832
-0.00976,0.00488,0,0.00488,0.00976,-0.00976,0.05368,-0.0488,-0.12688,-0.07808,-0.0244,-0.05368
-0.00488,-0.00488,0.01464,0.01708,0.01952,-0.0122,0.05368,-0.0488,-0.12688,-0.07808,-0.0244,-0.05368
-0.00488,-0.00244,0.00976,0.0122,0.01464,-0.00976,0.06344,-0.04392,-0.13664,-0.08784,-0.03416,-0.05856
0.00976,-0.00976,0.00976,0.00488,0,0.00488,0.0488,-0.0488,-0.13176,-0.08784,-0.03416,-0.05856
0.01952,-0.0244,0.02928,0.01952,0.00976,0.00488,0.0244,-0.05368,-0.11224,-0.0732,-0.01952,-0.0488
0.04392,-0.06588,0.08784,0.06588,0.04392,0,0.01952,-0.05368,-0.0976,-0.05368,0,-0.02928
0.0488,-0.08052,0.11224,0.08784,0.06344,-0.00732,0.00488,-0.05856,-0.10248,-0.03416,0.01952,-0.00488
0.05368,-0.0854,0.11712,0.09028,0.06344,-0.00488,-0.01952,-0.06832,-0.11224,-0.03904,0.01952,-0.00488
0.06344,-0.09516,0.12688,0.09516,0.06344,0,-0.01952,-0.06832,-0.10248,-0.03904,0.01952,-0.01952
0.06344,-0.09516,0.12688,0.09516,0.06344,0,-0.03904,-0.07808,-0.11224,-0.04392,0.01952,-0.01952
0.06832,-0.09516,0.122,0.08784,0.05368,0.00732,-0.0488,-0.0732,-0.11224,-0.03904,0.02928,-0.00976
0.08296,-0.11956,0.15616,0.11468,0.0732,0.00488,-0.05368,-0.06832,-0.10248,-0.0244,0.04392,0.00976
0.0976,-0.12932,0.16104,0.11224,0.06344,0.01708,-0.05856,-0.06344,-0.0976,-0.0244,0.05856,0.01464
0.09272,-0.122,0.15128,0.10492,0.05856,0.01708,-0.04392,-0.04392,-0.08784,-0.00976,0.05856,0.01952
0.0732,-0.0976,0.122,0.0854,0.0488,0.0122,-0.03904,-0.0488,-0.08784,-0.01464,0.05856,0.01464
0.05856,-0.07564,0.09272,0.06344,0.03416,0.0122,-0.02928,-0.0488,-0.09272,-0.0244,0.0488,0.00976
0.03416,-0.05612,0.07808,0.061,0.04392,-0.00488,-0.01464,-0.05368,-0.10248,-0.04392,0.0244,-0.00976
0.01952,-0.02684,0.03416,0.0244,0.01464,0.00244,-0.02928,-0.0732,-0.13176,-0.06344,-0.00488,-0.03416
0,-0.00732,0.01464,0.01464,0.01464,-0.00732,-0.0244,-0.08296,-0.16592,-0.09272,-0.0244,-0.03904
-0.01952,0.0122,-0.00488,0.00488,0.01464,-0.01708,-0.01464,-0.07808,-0.16592,-0.0976,-0.03904,-0.05368
-0.0244,0.01708,-0.00976,0.00244,0.01464,-0.01952,-0.00488,-0.0732,-0.15616,-0.0976,-0.03416,-0.05368
-0.01464,0.0244,-0.03416,-0.02684,-0.01952,0.00244,0,-0.06832,-0.16104,-0.10248,-0.0488,-0.06344
-0.00488,0.0244,-0.04392,-0.04148,-0.03904,0.01708,0,-0.06344,-0.16592,-0.11224,-0.05368,-0.06344
0,0.0244,-0.0488,-0.0488,-0.0488,0.0244,-0.00488,-0.0732,-0.17568,-0.11712,-0.06344,-0.06832
-0.01464,0.04148,-0.06832,-0.061,-0.05368,0.01952,-0.00488,-0.08296,-0.18056,-0.13176,-0.06344,-0.07808
-0.0244,0.05368,-0.08296,-0.07076,-0.05856,0.01708,0,-0.07808,-0.18056,-0.13664,-0.08296,-0.09272
-0.0244,0.06344,-0.10248,-0.09028,-0.07808,0.02684,0.00488,-0.08784,-0.17568,-0.14152,-0.09272,-0.10736
-0.05856,0.09028,-0.122,-0.09272,-0.06344,0.00244,0.00976,-0.08296,-0.18544,-0.14152,-0.09272,-0.11224
-0.03416,0.0732,-0.11224,-0.09516,-0.07808,0.02196,0.01464,-0.0732,-0.18544,-0.1464,-0.08784,-0.10248
-0.00488,0.04392,-0.08296,-0.08052,-0.07808,0.0366,0.05856,-0.0244,-0.16104,-0.13664,-0.08784,-0.10736
-0.00976,0.07564,-0.14152,-0.13664,-0.13176,0.061,0.10736,0.0488,-0.12688,-0.14152,-0.10248,-0.122
-0.00976,0.09516,-0.18056,-0.17568,-0.1708,0.08052,0.20496,0.1464,-0.08784,-0.15128,-0.13664,-0.1464
-0.05368,0.12932,-0.20496,-0.17812,-0.15128,0.0488,0.30256,0.21472,-0.02928,-0.16592,-0.16104,-0.19032
-0.03904,0.08296,-0.12688,-0.10736,-0.08784,0.0244,0.40016,0.32696,0.1708,-0.01464,-0.0488,-0.122
-0.01464,0.00244,0.00976,0.01708,0.0244,-0.01952,0.42944,0.40992,0.38552,0.20984,0.14152,0
0.12688,-0.21472,0.30256,0.23912,0.17568,-0.0244,0.37088,0.49776,0.7076,0.56608,0.44896,0.244
0.25864,-0.45384,0.64904,0.51972,0.3904,-0.06588,0.11224,0.57096,1.16632,1.08824,0.86376,0.56608
0.28304,-0.63196,0.98088,0.83936,0.69784,-0.2074,-0.244,0.38064,1.5128,1.52256,1.22976,0.8296
0.32208,-0.88084,1.4396,1.27856,1.11752,-0.39772,-0.69784,-0.05856,1.67872,1.82024,1.51768,1.07848
0.33672,-1.06384,1.79096,1.6226,1.45424,-0.55876,-1.14192,-0.77592,1.38104,1.84464,1.62504,1.1956
0.28304,-0.99308,1.70312,1.5616,1.42008,-0.56852,-1.35664,-1.07848,1.06872,1.6104,1.43472,1.08336
0.20496,-0.79544,1.38592,1.28344,1.18096,-0.488,-1.34688,-1.10776,0.61,1.10776,1.05408,0.8296
0.22448,-0.72468,1.22488,1.11264,1.0004,-0.38796,-1.20536,-1.08824,0.0244,0.57096,0.68808,0.60024
0.1708,-0.58072,0.99064,0.90524,0.81984,-0.32452,-0.95648,-0.94672,-0.33672,0.1952,0.42456,0.40992
0.15128,-0.46116,0.77104,0.6954,0.61976,-0.23424,-0.69784,-0.71248,-0.2928,0.13664,0.31232,0.30744
0.11224,-0.305,0.49776,0.44164,0.38552,-0.13664,-0.41968,-0.45872,-0.27328,0.04392,0.19032,0.20496
0.02928,-0.1342,0.23912,0.22448,0.20984,-0.09028,-0.22936,-0.20496,-0.10248,0.06344,0.14152,0.11224
-0.00976,-0.0488,0.10736,0.11224,0.11712,-0.06344,-0.11712,-0.0732,-0.03416,0.05856,0.0976,0.05856
0.01464,-0.05124,0.08784,0.08052,0.0732,-0.02928,-0.0244,-0.01952,-0.01952,0.03416,0.05856,0.01952
0,-0.01952,0.03904,0.03904,0.03904,-0.01952,0.0244,-0.00488,-0.05368,0,0.01464,0
-0.01952,0.01708,-0.01464,-0.00488,0.00488,-0.0122,0.05368,0.03416,-0.0732,-0.05368,-0.01952,-0.0488
-0.06832,0.0732,-0.07808,-0.04392,-0.00976,-0.02928,0.05856,0.0488,-0.08784,-0.06832,-0.03904,-0.05856
-0.06344,0.07076,-0.07808,-0.04636,-0.01464,-0.0244,0.09272,0.0488,-0.09272,-0.06832,-0.0488,-0.05856
-0.03416,0.0488,-0.06344,-0.04636,-0.02928,-0.00244,0.13176,0.06832,-0.07808,-0.06832,-0.0488,-0.06344
-0.03416,0.05856,-0.08296,-0.06588,-0.0488,0.00732,0.14152,0.06344,-0.08784,-0.09272,-0.06832,-0.08784
-0.02928,0.061,-0.09272,-0.07808,-0.06344,0.01708,0.12688,0.06344,-0.09272,-0.09272,-0.0732,-0.09272
-0.02928,0.06588,-0.10248,-0.08784,-0.0732,0.02196,0.11712,0.0488,-0.10248,-0.07808,-0.0732,-0.09272
-0.03904,0.07076,-0.10248,-0.08296,-0.06344,0.0122,0.11712,0.02928,-0.09272,-0.0732,-0.06832,-0.09272
-0.05368,0.08296,-0.11224,-0.0854,-0.05856,0.00244,0.122,0.04392,-0.08296,-0.06832,-0.0488,-0.08296
-0.0488,0.08296,-0.11712,-0.09272,-0.06832,0.00976,0.11712,0.06344,-0.06832,-0.06832,-0.03904,-0.08784
-0.03416,0.0732,-0.11224,-0.09516,-0.07808,0.02196,0.122,0.0732,-0.0732,-0.06832,-0.02928,-0.08296
-0.03416,0.07808,-0.122,-0.10492,-0.08784,0.02684,0.122,0.06832,-0.05856,-0.06832,-0.0244,-0.08296
-0.0488,0.0976,-0.1464,-0.122,-0.0976,0.0244,0.12688,0.08296,-0.04392,-0.08784,-0.03416,-0.09272
-0.05368,0.10004,-0.1464,-0.11956,-0.09272,0.01952,0.12688,0.08784,-0.04392,-0.09272,-0.05368,-0.0976
-0.0488,0.08296,-0.11712,-0.09272,-0.06832,0.00976,0.12688,0.08296,-0.03416,-0.07808,-0.05856,-0.08784
-0.01952,0.061,-0.10248,-0.09272,-0.08296,0.03172,0.13176,0.08296,-0.0244,-0.0732,-0.05856,-0.0732
-0.01464,0.061,-0.10736,-0.10004,-0.09272,0.03904,0.12688,0.0732,-0.0244,-0.0732,-0.05368,-0.06344
-0.03416,0.08052,-0.12688,-0.1098,-0.09272,0.02928,0.13664,0.07808,-0.0244,-0.0732,-0.06344,-0.06344
-0.02928,0.07076,-0.11224,-0.0976,-0.08296,0.02684,0.1464,0.10248,-0.01464,-0.05856,-0.05368,-0.05368
-0.00976,0.05368,-0.0976,-0.09272,-0.08784,0.03904,0.15128,0.10736,0.00488,-0.03904,-0.03904,-0.05856
-0.00488,0.05368,-0.10248,-0.10004,-0.0976,0.04636,0.15128,0.10736,0.01464,-0.03416,-0.02928,-0.05856
-0.01952,0.06344,-0.10736,-0.0976,-0.08784,0.03416,0.15616,0.12688,0.01464,-0.03416,-0.02928,-0.05856
-0.04392,0.07808,-0.11224,-0.09028,-0.06832,0.0122,0.1464,0.11712,0.00488,-0.05368,-0.03416,-0.06344
-0.04392,0.09272,-0.14152,-0.11956,-0.0976,0.02684,0.1464,0.122,0.00488,-0.04392,-0.03904,-0.06832
-0.03416,0.08052,-0.12688,-0.1098,-0.09272,0.02928,0.15128,0.14152,0.02928,-0.02928,-0.03416,-0.0732
-0.00976,0.05856,-0.10736,-0.10248,-0.0976,0.04392,0.16104,0.15616,0.04392,-0.01952,-0.03416,-0.06832
-0.01952,0.06832,-0.11712,-0.10736,-0.0976,0.03904,0.1708,0.16104,0.03904,-0.00976,-0.01464,-0.06344
-0.03416,0.07808,-0.122,-0.10492,-0.08784,0.02684,0.1708,0.16104,0.0488,-0.00976,-0.00976,-0.06344
-0.01464,0.05856,-0.10248,-0.09516,-0.08784,0.0366,0.19032,0.18544,0.06832,0.00488,0,-0.05368
0.00488,0.04392,-0.09272,-0.09516,-0.0976,0.05124,0.19032,0.19032,0.08296,0.00488,0,-0.05368
0.00976,0.03904,-0.08784,-0.09272,-0.0976,0.05368,0.18544,0.20496,0.0976,0,-0.00488,-0.05368
0.01464,0.0366,-0.08784,-0.09516,-0.10248,0.05856,0.19032,0.21472,0.0976,0,-0.00488,-0.0488
0.00976,0.04148,-0.09272,-0.0976,-0.10248,0.05612,0.1952,0.20984,0.11712,0.00488,-0.01464,-0.0488
-0.01952,0.06588,-0.11224,-0.10248,-0.09272,0.0366,0.20008,0.22448,0.13176,0.01464,-0.01952,-0.0488
-0.01464,0.05856,-0.10248,-0.09516,-0.08784,0.0366,0.1952,0.23424,0.13664,0.02928,-0.00488,-0.04392
0.00976,0.04148,-0.09272,-0.0976,-0.10248,0.05612,0.20008,0.244,0.15128,0.04392,0,-0.03904
0.01464,0.03904,-0.09272,-0.10004,-0.10736,0.061,0.20984,0.24888,0.16592,0.05368,0.00488,-0.03416
0.01464,0.04392,-0.10248,-0.1098,-0.11712,0.06588,0.21472,0.2684,0.18544,0.06832,0.01464,-0.02928
0.00488,0.05612,-0.11712,-0.11956,-0.122,0.06344,0.20496,0.28792,0.1952,0.06832,0.00976,-0.03904
0.01464,0.04636,-0.10736,-0.11468,-0.122,0.06832,0.20984,0.30256,0.20984,0.0732,0,-0.03904
0.02928,0.02684,-0.08296,-0.0976,-0.11224,0.07076,0.21472,0.30744,0.22448,0.08784,0.01464,-0.03904
0.02928,0.02928,-0.08784,-0.10248,-0.11712,0.0732,0.21472,0.3172,0.23424,0.08784,0.0244,-0.03904
0.0244,0.02196,-0.06832,-0.08052,-0.09272,0.05856,0.22448,0.33184,0.25376,0.10736,0.0488,-0.0244
0.02928,0.01952,-0.06832,-0.08296,-0.0976,0.06344,0.22448,0.33672,0.26352,0.11224,0.06344,-0.01464
0.05368,0.00488,-0.06344,-0.09028,-0.11712,0.0854,0.21472,0.3416,0.27328,0.11224,0.06832,-0.01952
0.05368,0.00244,-0.05856,-0.0854,-0.11224,0.08296,0.20984,0.3416,0.27816,0.11224,0.06344,-0.01464
0.05368,0,-0.05368,-0.08052,-0.10736,0.08052,0.2196,0.3416,0.28792,0.11712,0.06344,-0.00976
0.0488,0,-0.0488,-0.0732,-0.0976,0.0732,0.21472,0.33184,0.28304,0.12688,0.07808,-0.01464
0.03416,0.01464,-0.06344,-0.08052,-0.0976,0.06588,0.20008,0.32208,0.27816,0.12688,0.08296,-0.00976
0.01464,0.02684,-0.06832,-0.07564,-0.08296,0.0488,0.19032,0.31232,0.26352,0.11712,0.08296,0.00488
0.01952,0.01952,-0.05856,-0.06832,-0.07808,0.0488,0.18056,0.29768,0.24888,0.11224,0.08296,0
0.01952,0.01464,-0.0488,-0.05856,-0.06832,0.04392,0.1708,0.27328,0.244,0.10736,0.08296,0
0.03904,-0.00488,-0.02928,-0.0488,-0.06832,0.05368,0.16104,0.2684,0.23424,0.10736,0.0732,0
0.05856,-0.03172,0.00488,-0.0244,-0.05368,0.05612,0.16104,0.25864,0.22936,0.11224,0.0732,0.01464
0.05368,-0.03172,0.00976,-0.01708,-0.04392,0.0488,0.1464,0.22936,0.20496,0.09272,0.05368,0
0.0488,-0.0244,0,-0.0244,-0.0488,0.0488,0.14152,0.20984,0.18544,0.08784,0.05368,0
0.04392,-0.02928,0.01464,-0.00732,-0.02928,0.0366,0.10736,0.17568,0.15616,0.07808,0.05368,0.00488
0.02928,-0.01464,0,-0.01464,-0.02928,0.02928,0.0976,0.15616,0.13176,0.06832,0.04392,0.00488
0.01952,-0.00732,-0.00488,-0.01464,-0.0244,0.02196,0.08784,0.13176,0.11224,0.06832,0.05368,0.01464
0.02928,-0.01708,0.00488,-0.00976,-0.0244,0.02684,0.07808,0.11224,0.09272,0.06344,0.0488,0.01464
0.00976,0.00244,-0.01464,-0.01952,-0.0244,0.01708,0.0732,0.09272,0.06344,0.03904,0.02928,0
0.00976,0.00244,-0.01464,-0.01952,-0.0244,0.01708,0.06344,0.0732,0.04392,0.0244,0.0244,-0.00976
0.00488,0.00244,-0.00976,-0.0122,-0.01464,0.00976,0.05856,0.0488,0.01952,0.01952,0.00976,-0.01952
0.02928,-0.01708,0.00488,-0.00976,-0.0244,0.02684,0.0488,0.03904,0,0.00488,0.00976,-0.01952
0.00488,-0.00488,0.00488,0.00244,0,0.00244,0.03904,0.01952,-0.01952,-0.01464,-0.00488,-0.0244
0.00488,0,-0.00488,-0.00732,-0.00976,0.00732,0.03416,0.00976,-0.03416,-0.0244,-0.00976,-0.02928
-0.00488,0.01464,-0.0244,-0.02196,-0.01952,0.00732,0.02928,-0.01464,-0.06344,-0.0488,-0.0244,-0.04392
-0.01464,0.02684,-0.03904,-0.03172,-0.0244,0.00488,0.0244,-0.01952,-0.08296,-0.06344,-0.04392,-0.05856
-0.03416,0.04392,-0.05368,-0.0366,-0.01952,-0.00732,0.03416,-0.02928,-0.08296,-0.0732,-0.04392,-0.07808
-0.0488,0.05856,-0.06832,-0.04392,-0.01952,-0.01464,0.02928,-0.03416,-0.0976,-0.08784,-0.0488,-0.07808
-0.03904,0.05124,-0.06344,-0.04392,-0.0244,-0.00732,0.0244,-0.01952,-0.10248,-0.08784,-0.0488,-0.06832
-0.01464,0.0244,-0.03416,-0.02684,-0.01952,0.00244,0.02928,-0.0244,-0.10248,-0.07808,-0.04392,-0.05368
0.01464,0.00244,-0.01952,-0.02684,-0.03416,0.0244,0.03904,-0.03416,-0.10248,-0.07808,-0.04392,-0.05368
0,0.0122,-0.0244,-0.0244,-0.0244,0.0122,0.02928,-0.03416,-0.10736,-0.08296,-0.05856,-0.06832
0,0.01464,-0.02928,-0.02928,-0.02928,0.01464,0.0244,-0.02928,-0.10736,-0.08296,-0.06344,-0.05856
0,0.01708,-0.03416,-0.03416,-0.03416,0.01708,0.02928,-0.02928,-0.10736,-0.08296,-0.05856,-0.05368
-0.0244,0.0366,-0.0488,-0.0366,-0.0244,0,0.01952,-0.0488,-0.12688,-0.0976,-0.06344,-0.06344
-0.03416,0.04148,-0.0488,-0.03172,-0.01464,-0.00976,0.0244,-0.05368,-0.122,-0.0976,-0.06832,-0.06832
-0.03416,0.0488,-0.06344,-0.04636,-0.02928,-0.00244,0.0244,-0.05368,-0.12688,-0.10736,-0.06344,-0.0732
-0.03904,0.05612,-0.0732,-0.05368,-0.03416,-0.00244,0.0244,-0.05368,-0.13176,-0.10248,-0.06344,-0.0732
-0.0244,0.04148,-0.05856,-0.04636,-0.03416,0.00488,0.01952,-0.05368,-0.12688,-0.10736,-0.06832,-0.06344
-0.00488,0.01464,-0.0244,-0.02196,-0.01952,0.00732,0.01464,-0.05368,-0.11712,-0.0976,-0.06832,-0.06344
0.00976,-0.00976,0.00976,0.00488,0,0.00488,0.02928,-0.04392,-0.11224,-0.08784,-0.06344,-0.06832
0.00976,0,-0.00976,-0.01464,-0.01952,0.01464,0.02928,-0.04392,-0.10736,-0.0976,-0.06832,-0.0732
-0.00976,0.0244,-0.03904,-0.03416,-0.02928,0.00976,0.02928,-0.05368,-0.11712,-0.0976,-0.07808,-0.08784
-0.02928,0.04148,-0.05368,-0.03904,-0.0244,-0.00244,0.01464,-0.05368,-0.11224,-0.0976,-0.08296,-0.0976
-0.02928,0.03172,-0.03416,-0.01952,-0.00488,-0.0122,0.0244,-0.03904,-0.10736,-0.0976,-0.06344,-0.0976
-0.02928,0.03172,-0.03416,-0.01952,-0.00488,-0.0122,0.0244,-0.03904,-0.10248,-0.09272,-0.0488,-0.08296
-0.03904,0.03904,-0.03904,-0.01952,0,-0.01952,0.03416,-0.03904,-0.10248,-0.08784,-0.0488,-0.07808
-0.03416,0.03416,-0.03416,-0.01708,0,-0.01708,0.03416,-0.03416,-0.0976,-0.08784,-0.05856,-0.07808
-0.02928,0.03416,-0.03904,-0.0244,-0.00976,-0.00976,0.03904,-0.01952,-0.08784,-0.07808,-0.05368,-0.06832
-0.01952,0.02196,-0.0244,-0.01464,-0.00488,-0.00732,0.04392,-0.01952,-0.09272,-0.07808,-0.04392,-0.06344
-0.00488,0.00732,-0.00976,-0.00732,-0.00488,0,0.03416,-0.01464,-0.0976,-0.06344,-0.03904,-0.0488
0.00976,-0.00488,0,-0.00488,-0.00976,0.00976,0.02928,-0.01952,-0.08784,-0.06344,-0.04392,-0.04392
-0.00488,0.0122,-0.01952,-0.01708,-0.01464,0.00488,0.01464,-0.0244,-0.09272,-0.0732,-0.05368,-0.05368
-0.03416,0.03416,-0.03416,-0.01708,0,-0.01708,0.01464,-0.03416,-0.09272,-0.0732,-0.05856,-0.06344
-0.02928,0.02928,-0.02928,-0.01464,0,-0.01464,0.01952,-0.02928,-0.08296,-0.06344,-0.05368,-0.05856
-0.00488,0.0122,-0.01952,-0.01708,-0.01464,0.00488,0.0244,-0.01952,-0.07808,-0.05856,-0.0488,-0.05856
0.00488,0.00976,-0.0244,-0.02684,-0.02928,0.01708,0.02928,-0.01952,-0.0732,-0.05856,-0.03904,-0.04392
0.00488,0.00488,-0.01464,-0.01708,-0.01952,0.0122,0.02928,-0.01464,-0.06832,-0.05856,-0.04392,-0.04392
-0.00488,0.00732,-0.00976,-0.00732,-0.00488,0,0.02928,-0.01952,-0.0732,-0.06344,-0.04392,-0.04392
-0.00976,0.0122,-0.01464,-0.00976,-0.00488,-0.00244,0.02928,-0.00976,-0.0732,-0.06344,-0.03904,-0.03904
-0.01952,0.01708,-0.01464,-0.00488,0.00488,-0.0122,0.02928,-0.00976,-0.08296,-0.0732,-0.0488,-0.0488
-0.0244,0.03416,-0.04392,-0.03172,-0.01952,-0.00244,0.01952,-0.01952,-0.08784,-0.0732,-0.0488,-0.0488
-0.02928,0.04636,-0.06344,-0.0488,-0.03416,0.00244,0.00976,-0.03416,-0.09272,-0.08296,-0.05368,-0.05856
-0.02928,0.04392,-0.05856,-0.04392,-0.02928,0,0.00976,-0.03416,-0.0976,-0.08784,-0.06344,-0.0732
-0.00976,0.01952,-0.02928,-0.0244,-0.01952,0.00488,0.00976,-0.0244,-0.09272,-0.08296,-0.05856,-0.06832
-0.00976,0.02196,-0.03416,-0.02928,-0.0244,0.00732,0.00976,-0.0244,-0.09272,-0.08296,-0.05856,-0.06832
-0.00488,0.0244,-0.04392,-0.04148,-0.03904,0.01708,0.00488,-0.0244,-0.10736,-0.08296,-0.05856,-0.06832
-0.01952,0.0366,-0.05368,-0.04392,-0.03416,0.00732,0.00976,-0.02928,-0.10736,-0.08784,-0.05856,-0.0732
-0.01464,0.03172,-0.0488,-0.04148,-0.03416,0.00976,0,-0.02928,-0.10736,-0.09272,-0.06832,-0.07808
-0.01464,0.03172,-0.0488,-0.04148,-0.03416,0.00976,0.00488,-0.02928,-0.10248,-0.09272,-0.0732,-0.07808
-0.00976,0.0244,-0.03904,-0.03416,-0.02928,0.00976,0.00488,-0.0244,-0.0976,-0.09272,-0.05856,-0.06832
-0.0244,0.02928,-0.03416,-0.02196,-0.00976,-0.00732,0.00976,-0.0244,-0.10248,-0.09272,-0.05368,-0.06344
-0.01464,0.01708,-0.01952,-0.0122,-0.00488,-0.00488,0.01952,-0.02928,-0.10248,-0.08784,-0.0488,-0.05368
-0.00488,0.01464,-0.0244,-0.02196,-0.01952,0.00732,0.01952,-0.02928,-0.10736,-0.08784,-0.05856,-0.05368
-0.00488,0.01952,-0.03416,-0.03172,-0.02928,0.0122,0.00488,-0.03416,-0.122,-0.08784,-0.06832,-0.05368
-0.03416,0.04392,-0.05368,-0.0366,-0.01952,-0.00732,0.00488,-0.03904,-0.122,-0.0976,-0.06832,-0.06832
-0.03904,0.05612,-0.0732,-0.05368,-0.03416,-0.00244,0.00488,-0.0488,-0.122,-0.10248,-0.08296,-0.0732
-0.01464,0.03904,-0.06344,-0.05612,-0.0488,0.01708,0.01464,-0.0488,-0.122,-0.11224,-0.08296,-0.0732
-0.00488,0.03172,-0.05856,-0.05612,-0.05368,0.0244,0.00488,-0.0488,-0.122,-0.10248,-0.06832,-0.06344
-0.00488,0.0244,-0.04392,-0.04148,-0.03904,0.01708,0.00488,-0.05368,-0.122,-0.10736,-0.0732,-0.06344
-0.01952,0.03172,-0.04392,-0.03416,-0.0244,0.00244,0,-0.05368,-0.14152,-0.122,-0.07808,-0.06344
-0.03904,0.05612,-0.0732,-0.05368,-0.03416,-0.00244,-0.00488,-0.05856,-0.14152,-0.13176,-0.08784,-0.06344
-0.03416,0.05124,-0.06832,-0.05124,-0.03416,0,-0.00488,-0.05856,-0.13176,-0.122,-0.08296,-0.05856
-0.00488,0.0244,-0.04392,-0.04148,-0.03904,0.01708,-0.00488,-0.06344,-0.13176,-0.122,-0.07808,-0.05856
0,0.01952,-0.03904,-0.03904,-0.03904,0.01952,0.00488,-0.05856,-0.13176,-0.11224,-0.07808,-0.06832
-0.01952,0.03904,-0.05856,-0.0488,-0.03904,0.00976,0,-0.05856,-0.13176,-0.11712,-0.07808,-0.06344
-0.03416,0.05612,-0.07808,-0.061,-0.04392,0.00488,-0.00976,-0.06832,-0.1464,-0.13176,-0.0976,-0.0732
-0.03416,0.05368,-0.0732,-0.05612,-0.03904,0.00244,-0.00488,-0.0732,-0.1464,-0.13176,-0.09272,-0.0732
-0.03904,0.05856,-0.07808,-0.05856,-0.03904,0,-0.00488,-0.06832,-0.13664,-0.12688,-0.0976,-0.06832
-0.03416,0.05124,-0.06832,-0.05124,-0.03416,0,-0.00488,-0.06832,-0.13664,-0.12688,-0.10248,-0.0732
-0.02928,0.04636,-0.06344,-0.0488,-0.03416,0.00244,-0.00976,-0.06832,-0.13664,-0.12688,-0.10248,-0.08296
-0.01952,0.04148,-0.06344,-0.05368,-0.04392,0.0122,-0.01464,-0.0732,-0.14152,-0.13176,-0.10736,-0.08784
-0.01952,0.04636,-0.0732,-0.06344,-0.05368,0.01708,-0.00488,-0.06344,-0.14152,-0.12688,-0.10248,-0.07808
-0.02928,0.05368,-0.07808,-0.06344,-0.0488,0.00976,-0.00488,-0.06344,-0.1464,-0.13176,-0.10736,-0.06832
-0.0244,0.04148,-0.05856,-0.04636,-0.03416,0.00488,-0.01952,-0.06344,-0.1464,-0.13176,-0.11224,-0.06832
-0.0488,0.05368,-0.05856,-0.03416,-0.00976,-0.01952,-0.00488,-0.05856,-0.1464,-0.12688,-0.0976,-0.06832
-0.01464,0.03172,-0.0488,-0.04148,-0.03416,0.00976,0,-0.06832,-0.1464,-0.122,-0.10248,-0.06344
-0.01464,0.03172,-0.0488,-0.04148,-0.03416,0.00976,-0.01464,-0.06832,-0.1464,-0.13176,-0.10248,-0.06344
-0.02928,0.04392,-0.05856,-0.04392,-0.02928,0,-0.01952,-0.05856,-0.15616,-0.12688,-0.11224,-0.0732
-0.02928,0.04636,-0.06344,-0.0488,-0.03416,0.00244,-0.01464,-0.05856,-0.15128,-0.13664,-0.09272,-0.06344
-0.02928,0.05124,-0.0732,-0.05856,-0.04392,0.00732,-0.01464,-0.06832,-0.15128,-0.14152,-0.11224,-0.0732
-0.02928,0.04636,-0.06344,-0.0488,-0.03416,0.00244,-0.00976,-0.07808,-0.15616,-0.1464,-0.11224,-0.08296
-0.0244,0.05124,-0.07808,-0.06588,-0.05368,0.01464,-0.01952,-0.07808,-0.1464,-0.1464,-0.10736,-0.07808
-0.00488,0.03172,-0.05856,-0.05612,-0.05368,0.0244,-0.01952,-0.07808,-0.15128,-0.1464,-0.11224,-0.06832
0,0.01952,-0.03904,-0.03904,-0.03904,0.01952,-0.01464,-0.07808,-0.15128,-0.13176,-0.10736,-0.06344
0,0.0244,-0.0488,-0.0488,-0.0488,0.0244,-0.01464,-0.07808,-0.15128,-0.12688,-0.10736,-0.05856
-0.02928,0.05124,-0.0732,-0.05856,-0.04392,0.00732,-0.0244,-0.09272,-0.16104,-0.13664,-0.11224,-0.06344
-0.03416,0.06344,-0.09272,-0.07564,-0.05856,0.0122,-0.02928,-0.09272,-0.16104,-0.14152,-0.122,-0.0732
-0.05368,0.07808,-0.10248,-0.07564,-0.0488,-0.00244,-0.03904,-0.10248,-0.1708,-0.15128,-0.122,-0.07808
-0.05368,0.07808,-0.10248,-0.07564,-0.0488,-0.00244,-0.03416,-0.0976,-0.1708,-0.15128,-0.11712,-0.08296
-0.03416,0.05856,-0.08296,-0.06588,-0.0488,0.00732,-0.02928,-0.08296,-0.16104,-0.14152,-0.10736,-0.06832
-0.02928,0.0488,-0.06832,-0.05368,-0.03904,0.00488,-0.03416,-0.08784,-0.16104,-0.14152,-0.11224,-0.06344
-0.01464,0.03416,-0.05368,-0.04636,-0.03904,0.0122,-0.03416,-0.08784,-0.1464,-0.12688,-0.10736,-0.06344
-0.00488,0.02928,-0.05368,-0.05124,-0.0488,0.02196,-0.0244,-0.07808,-0.15128,-0.13176,-0.10736,-0.0732
-0.0244,0.04392,-0.06344,-0.05124,-0.03904,0.00732,-0.0244,-0.0732,-0.16104,-0.1464,-0.11712,-0.0732
-0.0244,0.0488,-0.0732,-0.061,-0.0488,0.0122,-0.0244,-0.0732,-0.16104,-0.1464,-0.122,-0.0732
-0.01952,0.04392,-0.06832,-0.05856,-0.0488,0.01464,-0.0244,-0.08296,-0.1464,-0.13664,-0.122,-0.0732
-0.00976,0.0366,-0.06344,-0.05856,-0.05368,0.02196,-0.0244,-0.08296,-0.15128,-0.14152,-0.11712,-0.0732
-0.03904,0.06588,-0.09272,-0.0732,-0.05368,0.00732,-0.02928,-0.08296,-0.15128,-0.14152,-0.11712,-0.08296
-0.02928,0.05124,-0.0732,-0.05856,-0.04392,0.00732,-0.02928,-0.08784,-0.15616,-0.1464,-0.11712,-0.08784
-0.01952,0.04392,-0.06832,-0.05856,-0.0488,0.01464,-0.02928,-0.07808,-0.15616,-0.1464,-0.11712,-0.07808
-0.01952,0.04392,-0.06832,-0.05856,-0.0488,0.01464,-0.02928,-0.07808,-0.15616,-0.1464,-0.11712,-0.07808
-0.01952,0.03904,-0.05856,-0.0488,-0.03904,0.00976,-0.02928,-0.07808,-0.15616,-0.13664,-0.11712,-0.08784
-0.0244,0.04636,-0.06832,-0.05612,-0.04392,0.00976,-0.02928,-0.07808,-0.15616,-0.13664,-0.122,-0.09272
-0.01464,0.04392,-0.0732,-0.06588,-0.05856,0.02196,-0.02928,-0.08784,-0.15128,-0.13664,-0.122,-0.08296
-0.03416,0.061,-0.08784,-0.07076,-0.05368,0.00976,-0.02928,-0.08784,-0.15128,-0.13664,-0.122,-0.08296
-0.03416,0.06344,-0.09272,-0.07564,-0.05856,0.0122,-0.03416,-0.08784,-0.16592,-0.15616,-0.13664,-0.0976
-0.02928,0.05368,-0.07808,-0.06344,-0.0488,0.00976,-0.02928,-0.08296,-0.15616,-0.14152,-0.13176,-0.0976
-0.0244,0.0488,-0.0732,-0.061,-0.0488,0.0122,-0.0244,-0.0732,-0.1464,-0.14152,-0.122,-0.08296
-0.0244,0.04636,-0.06832,-0.05612,-0.04392,0.00976,-0.01464,-0.06832,-0.13664,-0.14152,-0.11712,-0.07808
-0.02928,0.04392,-0.05856,-0.04392,-0.02928,0,-0.00976,-0.06344,-0.12688,-0.12688,-0.10248,-0.06832
-0.0244,0.03416,-0.04392,-0.03172,-0.01952,-0.00244,0,-0.06344,-0.122,-0.122,-0.0976,-0.06832
-0.00976,0.0122,-0.01464,-0.00976,-0.00488,-0.00244,-0.00488,-0.05856,-0.11712,-0.11712,-0.09272,-0.06344
-0.00488,0.00732,-0.00976,-0.00732,-0.00488,0,-0.00488,-0.05856,-0.11712,-0.11712,-0.09272,-0.06344
-0.01464,0.01708,-0.01952,-0.0122,-0.00488,-0.00488,0.00488,-0.06344,-0.11712,-0.10736,-0.09272,-0.06832
-0.01952,0.01952,-0.01952,-0.00976,0,-0.00976,-0.00976,-0.06832,-0.11224,-0.10736,-0.09272,-0.06832
-0.00976,0.00244,0.00488,0.00976,0.01464,-0.0122,-0.03416,-0.0732,-0.11224,-0.09272,-0.06832,-0.05856
0.01464,-0.03416,0.05368,0.04636,0.03904,-0.0122,-0.03904,-0.0732,-0.0976,-0.0732,-0.0488,-0.03904
0.03904,-0.05612,0.0732,0.05368,0.03416,0.00244,-0.04392,-0.07808,-0.08296,-0.06344,-0.03904,-0.01464
0.04392,-0.061,0.07808,0.05612,0.03416,0.00488,-0.06832,-0.08784,-0.09272,-0.06832,-0.03904,-0.01464
0.03416,-0.05124,0.06832,0.05124,0.03416,0,-0.08784,-0.0976,-0.09272,-0.07808,-0.0488,-0.02928
0.03416,-0.05124,0.06832,0.05124,0.03416,0,-0.10736,-0.10736,-0.10248,-0.08296,-0.0488,-0.02928
0.05368,-0.06832,0.08296,0.05612,0.02928,0.0122,-0.10248,-0.08784,-0.08296,-0.06344,-0.03416,-0.01464
0.07808,-0.10736,0.13664,0.0976,0.05856,0.00976,-0.0976,-0.0732,-0.0732,-0.03904,-0.00976,0.01464
0.08784,-0.10736,0.12688,0.08296,0.03904,0.0244,-0.11224,-0.0732,-0.08784,-0.05368,-0.01464,0
0.08296,-0.09516,0.10736,0.06588,0.0244,0.02928,-0.10736,-0.0732,-0.0976,-0.05856,-0.0244,-0.00488
0.0732,-0.07564,0.07808,0.04148,0.00488,0.03416,-0.0976,-0.06832,-0.0976,-0.06344,-0.02928,-0.00488
0.05856,-0.05856,0.05856,0.02928,0,0.02928,-0.08784,-0.06832,-0.10248,-0.0732,-0.03904,-0.00976
0.03904,-0.0488,0.05856,0.03904,0.01952,0.00976,-0.05856,-0.05856,-0.0976,-0.07808,-0.04392,-0.01464
0.03416,-0.03416,0.03416,0.01708,0,0.01708,-0.06344,-0.06832,-0.11712,-0.08784,-0.05368,-0.02928
0.01464,-0.00976,0.00488,-0.00244,-0.00976,0.0122,-0.0732,-0.09272,-0.1464,-0.11224,-0.06832,-0.03416
-0.01464,0.0244,-0.03416,-0.02684,-0.01952,0.00244,-0.06344,-0.08784,-0.1464,-0.11712,-0.09272,-0.05856
-0.03416,0.05124,-0.06832,-0.05124,-0.03416,0,-0.05368,-0.08296,-0.1464,-0.13664,-0.09272,-0.0732
-0.04392,0.06832,-0.09272,-0.07076,-0.0488,0.00244,-0.0488,-0.07808,-0.15128,-0.14152,-0.10736,-0.08296
-0.03904,0.07076,-0.10248,-0.08296,-0.06344,0.0122,-0.0488,-0.09272,-0.16592,-0.16104,-0.122,-0.08296
-0.0244,0.06588,-0.10736,-0.09516,-0.08296,0.02928,-0.05368,-0.10248,-0.17568,-0.16592,-0.13176,-0.08784
-0.03416,0.07808,-0.122,-0.10492,-0.08784,0.02684,-0.05368,-0.10248,-0.18056,-0.16104,-0.12688,-0.09272
-0.04392,0.0854,-0.12688,-0.10492,-0.08296,0.01952,-0.0488,-0.0976,-0.18056,-0.16592,-0.13664,-0.0976
-0.02928,0.0732,-0.11712,-0.10248,-0.08784,0.02928,-0.04392,-0.08784,-0.16104,-0.15128,-0.122,-0.08784
-0.03416,0.07076,-0.10736,-0.09028,-0.0732,0.01952,-0.03904,-0.08296,-0.16104,-0.15128,-0.122,-0.09272
-0.06344,0.10248,-0.14152,-0.1098,-0.07808,0.00732,-0.04392,-0.08296,-0.16592,-0.15616,-0.13664,-0.09272
-0.03416,0.08784,-0.14152,-0.12444,-0.10736,0.0366,0,-0.03416,-0.15128,-0.15616,-0.12688,-0.08784
-0.0488,0.12444,-0.20008,-0.17568,-0.15128,0.05124,0.0488,0.02928,-0.11712,-0.19032,-0.1708,-0.13176
-0.00976,0.1098,-0.20984,-0.20496,-0.20008,0.09516,0.1464,0.11712,-0.05856,-0.19032,-0.1952,-0.16592
-0.05368,0.14396,-0.23424,-0.2074,-0.18056,0.06344,0.26352,0.21472,0.01952,-0.16592,-0.19032,-0.15128
-0.03904,0.11224,-0.18544,-0.16592,-0.1464,0.05368,0.33184,0.28792,0.16104,-0.03416,-0.10736,-0.11224
0.05368,-0.04636,0.03904,0.0122,-0.01464,0.03416,0.38064,0.38064,0.40504,0.20008,0.11224,0.05856
0.0976,-0.16592,0.23424,0.18544,0.13664,-0.01952,0.28304,0.4392,0.68808,0.50752,0.36112,0.244
0.23912,-0.41968,0.60024,0.48068,0.36112,-0.061,0.04392,0.52216,1.16632,1.0492,0.8052,0.57584
0.3416,-0.69052,1.03944,0.86864,0.69784,-0.17812,-0.30256,0.35136,1.48352,1.50304,1.20048,0.86864
0.38064,-0.9394,1.49816,1.30784,1.11752,-0.36844,-0.76616,-0.10736,1.60064,1.80072,1.4884,1.10776
0.32696,-1.02968,1.7324,1.56892,1.40544,-0.53924,-1.20048,-0.83448,1.25416,1.7568,1.52744,1.17608
0.2928,-0.99796,1.70312,1.55672,1.41032,-0.55876,-1.38592,-1.07848,0.97112,1.55184,1.37616,1.09312
0.23424,-0.83448,1.43472,1.3176,1.20048,-0.48312,-1.37616,-1.06872,0.57096,1.098,1.0248,0.86864
0.17568,-0.67588,1.17608,1.08824,1.0004,-0.41236,-1.26392,-1.05896,-0.00488,0.53192,0.62952,0.61
0.14152,-0.5368,0.93208,0.86132,0.79056,-0.32452,-1.03456,-0.95648,-0.37576,0.13664,0.32696,0.3904
0.13176,-0.42212,0.71248,0.6466,0.58072,-0.22448,-0.7564,-0.72224,-0.30256,0.08784,0.244,0.29768
0.09272,-0.28548,0.47824,0.43188,0.38552,-0.1464,-0.46848,-0.47824,-0.25376,0.03416,0.15128,0.20496
0.0488,-0.15372,0.25864,0.23424,0.20984,-0.08052,-0.27816,-0.21472,-0.09272,0.03416,0.10248,0.13176
0.01952,-0.0732,0.12688,0.11712,0.10736,-0.04392,-0.16592,-0.09272,-0.0244,0.01952,0.0488,0.06832
-0.0244,-0.00732,0.03904,0.05124,0.06344,-0.04392,-0.08296,-0.0488,0,0.00488,0.00976,0.02928
-0.00976,-0.01464,0.03904,0.04392,0.0488,-0.02928,-0.0244,-0.03416,-0.03416,-0.02928,-0.0244,0.00976
0.00976,-0.02196,0.03416,0.02928,0.0244,-0.00732,0.00488,0.00488,-0.05368,-0.05368,-0.0488,-0.00976
-0.00976,0.01952,-0.02928,-0.0244,-0.01952,0.00488,0.00976,0.03904,-0.07808,-0.08784,-0.08784,-0.03904
-0.0244,0.05368,-0.08296,-0.07076,-0.05856,0.01708,0.03416,0.04392,-0.08296,-0.10248,-0.0976,-0.05856
-0.03416,0.06588,-0.0976,-0.08052,-0.06344,0.01464,0.0732,0.05368,-0.06832,-0.09272,-0.0976,-0.06344
-0.04392,0.07808,-0.11224,-0.09028,-0.06832,0.0122,0.08296,0.04392,-0.06832,-0.09272,-0.0976,-0.06832
-0.03904,0.07076,-0.10248,-0.08296,-0.06344,0.0122,0.06832,0.04392,-0.0732,-0.09272,-0.10248,-0.0732
-0.03416,0.06832,-0.10248,-0.0854,-0.06832,0.01708,0.07808,0.03416,-0.06344,-0.08784,-0.10248,-0.0732
-0.03416,0.06832,-0.10248,-0.0854,-0.06832,0.01708,0.07808,0.0244,-0.05368,-0.08296,-0.0976,-0.0732
-0.02928,0.06344,-0.0976,-0.08296,-0.06832,0.01952,0.08784,0.0488,-0.03904,-0.07808,-0.07808,-0.0732
-0.01464,0.05368,-0.09272,-0.0854,-0.07808,0.03172,0.09272,0.05856,-0.03416,-0.07808,-0.06832,-0.07808
-0.00488,0.04636,-0.08784,-0.0854,-0.08296,0.03904,0.08296,0.05368,-0.03904,-0.08784,-0.07808,-0.0732
-0.0244,0.06588,-0.10736,-0.09516,-0.08296,0.02928,0.08296,0.0488,-0.03416,-0.08784,-0.0732,-0.0732
-0.05368,0.0976,-0.14152,-0.11468,-0.08784,0.01708,0.07808,0.05368,-0.04392,-0.10736,-0.08784,-0.08784
-0.0488,0.10004,-0.15128,-0.12688,-0.10248,0.02684,0.07808,0.05856,-0.04392,-0.11224,-0.0976,-0.08296
-0.04392,0.0854,-0.12688,-0.10492,-0.08296,0.01952,0.07808,0.06344,-0.0244,-0.0976,-0.09272,-0.07808
-0.0244,0.06832,-0.11224,-0.10004,-0.08784,0.03172,0.08296,0.06344,-0.01464,-0.09272,-0.10248,-0.06344
-0.02928,0.07076,-0.11224,-0.0976,-0.08296,0.02684,0.08784,0.06344,-0.00488,-0.08296,-0.11224,-0.05856
-0.05856,0.10004,-0.14152,-0.11224,-0.08296,0.0122,0.0976,0.06832,-0.00488,-0.08296,-0.122,-0.06832
-0.05368,0.0976,-0.14152,-0.11468,-0.08784,0.01708,0.0976,0.0732,0,-0.0732,-0.11712,-0.0732
-0.04392,0.0854,-0.12688,-0.10492,-0.08296,0.01952,0.10248,0.07808,0.00976,-0.06344,-0.11224,-0.07808
-0.01952,0.06588,-0.11224,-0.10248,-0.09272,0.0366,0.122,0.10248,0.02928,-0.0488,-0.09272,-0.06344
-0.00488,0.05124,-0.0976,-0.09516,-0.09272,0.04392,0.12688,0.13176,0.03904,-0.03904,-0.08296,-0.05368
-0.00976,0.05124,-0.09272,-0.08784,-0.08296,0.0366,0.11712,0.13176,0.0244,-0.05368,-0.08784,-0.05368
-0.01952,0.07076,-0.122,-0.11224,-0.10248,0.04148,0.11712,0.12688,0.0244,-0.04392,-0.08296,-0.05856
-0.0244,0.0732,-0.122,-0.1098,-0.0976,0.0366,0.11712,0.12688,0.02928,-0.04392,-0.0732,-0.06344
-0.01952,0.06588,-0.11224,-0.10248,-0.09272,0.0366,0.11712,0.13176,0.04392,-0.04392,-0.0732,-0.05856
-0.0244,0.06588,-0.10736,-0.09516,-0.08296,0.02928,0.122,0.15128,0.05856,-0.03416,-0.05368,-0.04392
-0.02928,0.07076,-0.11224,-0.0976,-0.08296,0.02684,0.122,0.15128,0.06832,-0.0244,-0.0488,-0.04392
-0.01464,0.05124,-0.08784,-0.08052,-0.0732,0.02928,0.13176,0.16592,0.08784,-0.01464,-0.02928,-0.03416
-0.01464,0.05124,-0.08784,-0.08052,-0.0732,0.02928,0.13176,0.1708,0.10248,-0.01464,-0.02928,-0.03416
-0.01952,0.05856,-0.0976,-0.08784,-0.07808,0.02928,0.1464,0.17568,0.11224,-0.01952,-0.04392,-0.04392
-0.01464,0.05612,-0.0976,-0.09028,-0.08296,0.03416,0.15128,0.18544,0.122,-0.01952,-0.04392,-0.03904
-0.0244,0.06832,-0.11224,-0.10004,-0.08784,0.03172,0.1464,0.19032,0.12688,-0.0244,-0.05368,-0.0488
-0.04392,0.08784,-0.13176,-0.1098,-0.08784,0.02196,0.15128,0.20496,0.14152,-0.01464,-0.05856,-0.0488
-0.03904,0.07564,-0.11224,-0.09272,-0.0732,0.01708,0.15616,0.21472,0.15616,0,-0.05368,-0.04392
-0.00488,0.05368,-0.10248,-0.10004,-0.0976,0.04636,0.16104,0.22448,0.1708,0.01464,-0.0488,-0.03904
0,0.04392,-0.08784,-0.08784,-0.08784,0.04392,0.18056,0.24888,0.1952,0.02928,-0.03416,-0.02928
0.00976,0.02928,-0.06832,-0.0732,-0.07808,0.04392,0.18544,0.2684,0.21472,0.05368,-0.0244,-0.01464
0.0244,0.02196,-0.06832,-0.08052,-0.09272,0.05856,0.18544,0.27816,0.22448,0.06344,-0.01464,-0.00976
0.03416,0.0122,-0.05856,-0.07564,-0.09272,0.06344,0.19032,0.2928,0.23912,0.07808,-0.01464,-0.00976
0.03416,0.00732,-0.0488,-0.06588,-0.08296,0.05856,0.18544,0.30744,0.25376,0.0976,0.00488,0
0.0244,0.01952,-0.06344,-0.07564,-0.08784,0.05612,0.18544,0.3172,0.26352,0.0976,0.01464,0
0.01952,0.02196,-0.06344,-0.0732,-0.08296,0.05124,0.17568,0.31232,0.26352,0.0976,0.01464,0.00488
0.01464,0.02928,-0.0732,-0.08052,-0.08784,0.05124,0.17568,0.3172,0.27328,0.10248,0.01952,-0.00488
0.0244,0.0244,-0.0732,-0.0854,-0.0976,0.061,0.18544,0.33184,0.28304,0.11224,0.04392,-0.00976
0.0244,0.02196,-0.06832,-0.08052,-0.09272,0.05856,0.18056,0.33184,0.28792,0.11224,0.0488,-0.00488
0.01952,0.02684,-0.0732,-0.08296,-0.09272,0.05612,0.18056,0.32208,0.27816,0.10248,0.04392,0
0.00488,0.03172,-0.06832,-0.07076,-0.0732,0.03904,0.17568,0.31232,0.27328,0.10248,0.03904,-0.00488
0.00976,0.02196,-0.05368,-0.05856,-0.06344,0.0366,0.17568,0.31232,0.28304,0.11224,0.04392,0.00488
0.01952,0.00976,-0.03904,-0.0488,-0.05856,0.03904,0.17568,0.30256,0.27816,0.11224,0.04392,0.00976
0.03416,-0.00732,-0.01952,-0.0366,-0.05368,0.04392,0.16104,0.29768,0.2684,0.11224,0.04392,0.00976
0.04392,-0.01708,-0.00976,-0.03172,-0.05368,0.0488,0.15128,0.27328,0.26352,0.10736,0.04392,0.00976
0.05856,-0.02684,-0.00488,-0.03416,-0.06344,0.061,0.13664,0.24888,0.25376,0.10736,0.04392,0.01952
0.05856,-0.03904,0.01952,-0.00976,-0.03904,0.0488,0.12688,0.23912,0.24888,0.11224,0.04392,0.03416
0.0488,-0.0366,0.0244,0,-0.0244,0.0366,0.0976,0.20984,0.22448,0.10248,0.04392,0.01952
0.03416,-0.02928,0.0244,0.00732,-0.00976,0.02196,0.09272,0.19032,0.20496,0.0976,0.04392,0.01952
0.0244,-0.0244,0.0244,0.0122,0,0.0122,0.06832,0.1464,0.17568,0.07808,0.03416,0.01464
0.00976,-0.00976,0.00976,0.00488,0,0.00488,0.05856,0.12688,0.15128,0.06832,0.0244,0.01464
0,-0.00488,0.00976,0.00976,0.00976,-0.00488,0.05856,0.11224,0.13176,0.05856,0.0244,0.01464
0.02928,-0.02928,0.02928,0.01464,0,0.01464,0.0488,0.09272,0.11224,0.05368,0.01952,0.01464
0.01952,-0.01464,0.00976,0,-0.00976,0.01464,0.0244,0.06344,0.0732,0.02928,0,0
0,0,0,0,0,0,0.01464,0.04392,0.05368,0.01464,-0.00488,-0.00976
-0.01464,0.00244,0.00976,0.01708,0.0244,-0.01952,0.01464,0.03904,0.03904,0.00976,-0.00976,0
0.00976,-0.01708,0.0244,0.01952,0.01464,-0.00244,0.01464,0.02928,0.01952,-0.00488,-0.00976,0
-0.00488,-0.00488,0.01464,0.01708,0.01952,-0.0122,0.01464,0,-0.00488,-0.0244,-0.0244,-0.01464
-0.00488,0,0.00488,0.00732,0.00976,-0.00732,0,-0.00976,-0.02928,-0.03416,-0.02928,-0.01952
-0.0244,0.01952,-0.01464,-0.00244,0.00976,-0.01708,-0.00976,-0.0244,-0.04392,-0.05856,-0.0488,-0.03904
-0.03416,0.03172,-0.02928,-0.0122,0.00488,-0.01952,-0.01464,-0.02928,-0.06344,-0.0732,-0.05856,-0.04392
-0.03416,0.03172,-0.02928,-0.0122,0.00488,-0.01952,-0.01464,-0.03904,-0.08296,-0.0732,-0.0732,-0.0488
-0.02928,0.03172,-0.03416,-0.01952,-0.00488,-0.0122,-0.01952,-0.04392,-0.0976,-0.08784,-0.07808,-0.0488
-0.01952,0.02684,-0.03416,-0.0244,-0.01464,-0.00244,-0.01952,-0.02928,-0.08784,-0.08296,-0.08296,-0.04392
-0.01464,0.01952,-0.0244,-0.01708,-0.00976,-0.00244,-0.00488,-0.03416,-0.07808,-0.08296,-0.06832,-0.03904
-0.01464,0.01708,-0.01952,-0.0122,-0.00488,-0.00488,-0.00976,-0.05368,-0.08784,-0.08784,-0.0732,-0.04392
-0.02928,0.02684,-0.0244,-0.00976,0.00488,-0.01708,-0.01952,-0.05368,-0.10248,-0.09272,-0.08784,-0.05856
-0.03416,0.02928,-0.0244,-0.00732,0.00976,-0.02196,-0.01464,-0.0488,-0.0976,-0.09272,-0.08296,-0.05856
-0.0244,0.03172,-0.03904,-0.02684,-0.01464,-0.00488,-0.00976,-0.0488,-0.0976,-0.09272,-0.07808,-0.05368
-0.02928,0.03416,-0.03904,-0.0244,-0.00976,-0.00976,-0.00976,-0.05856,-0.11712,-0.0976,-0.08296,-0.05368
-0.02928,0.0244,-0.01952,-0.00488,0.00976,-0.01952,-0.00488,-0.06344,-0.11224,-0.0976,-0.08784,-0.05856
-0.03416,0.02928,-0.0244,-0.00732,0.00976,-0.02196,-0.00488,-0.06344,-0.0976,-0.0976,-0.07808,-0.06344
-0.03904,0.0366,-0.03416,-0.01464,0.00488,-0.02196,-0.00488,-0.06344,-0.10248,-0.09272,-0.06832,-0.06344
-0.03416,0.04392,-0.05368,-0.0366,-0.01952,-0.00732,-0.00976,-0.06832,-0.10736,-0.10736,-0.07808,-0.0732
-0.03416,0.04148,-0.0488,-0.03172,-0.01464,-0.00976,-0.01464,-0.07808,-0.11712,-0.11712,-0.0976,-0.0732
-0.0244,0.02196,-0.01952,-0.00732,0.00488,-0.01464,-0.00976,-0.06832,-0.10248,-0.10736,-0.09272,-0.06344
-0.01464,0.01708,-0.01952,-0.0122,-0.00488,-0.00488,-0.00976,-0.05856,-0.0976,-0.0976,-0.07808,-0.05856
-0.03416,0.0366,-0.03904,-0.02196,-0.00488,-0.01464,-0.00488,-0.05368,-0.0976,-0.0976,-0.0732,-0.05856
-0.04392,0.0488,-0.05368,-0.03172,-0.00976,-0.01708,-0.00976,-0.05368,-0.09272,-0.0976,-0.08784,-0.06832
-0.03904,0.04148,-0.04392,-0.0244,-0.00488,-0.01708,-0.01464,-0.0488,-0.0976,-0.08784,-0.07808,-0.0732
-0.03904,0.04148,-0.04392,-0.0244,-0.00488,-0.01708,-0.01464,-0.0488,-0.09272,-0.08296,-0.0732,-0.06832
-0.02928,0.0244,-0.01952,-0.00488,0.00976,-0.01952,0,-0.04392,-0.07808,-0.0732,-0.05856,-0.05856
-0.00488,0,0.00488,0.00732,0.00976,-0.00732,0.00976,-0.02928,-0.06344,-0.06344,-0.0488,-0.05856
-0.01952,0.01708,-0.01464,-0.00488,0.00488,-0.0122,0.00976,-0.0244,-0.06344,-0.06344,-0.05368,-0.06832
-0.02928,0.02928,-0.02928,-0.01464,0,-0.01464,0.01464,-0.03416,-0.07808,-0.0732,-0.06344,-0.06344
-0.0244,0.01708,-0.00976,0.00244,0.01464,-0.01952,0.01464,-0.0244,-0.07808,-0.06344,-0.06344,-0.0488
-0.00976,0.00488,0,0.00488,0.00976,-0.00976,0.00976,-0.02928,-0.06832,-0.06344,-0.05856,-0.04392
-0.00976,0.01464,-0.01952,-0.01464,-0.00976,0,0.00488,-0.02928,-0.0732,-0.06344,-0.05368,-0.0488
-0.02928,0.03172,-0.03416,-0.01952,-0.00488,-0.0122,0.00488,-0.02928,-0.0732,-0.06344,-0.05856,-0.0488
-0.03416,0.03172,-0.02928,-0.0122,0.00488,-0.01952,0.00488,-0.0244,-0.0732,-0.0732,-0.05368,-0.0488
-0.01952,0.01952,-0.01952,-0.00976,0,-0.00976,0,-0.0244,-0.06832,-0.06832,-0.0488,-0.0488
-0.03416,0.02684,-0.01952,-0.00244,0.01464,-0.0244,0.00976,-0.01952,-0.06344,-0.05856,-0.0488,-0.04392
-0.03416,0.02684,-0.01952,-0.00244,0.01464,-0.0244,0.00976,-0.01464,-0.05856,-0.05856,-0.05368,-0.04392
-0.0244,0.02684,-0.02928,-0.01708,-0.00488,-0.00976,0,-0.0244,-0.06344,-0.06344,-0.06344,-0.05368
-0.02928,0.03172,-0.03416,-0.01952,-0.00488,-0.0122,0,-0.0244,-0.06344,-0.06344,-0.05856,-0.0488
-0.02928,0.02928,-0.02928,-0.01464,0,-0.01464,-0.00488,-0.03416,-0.0732,-0.0732,-0.06832,-0.05856
-0.03416,0.04148,-0.0488,-0.03172,-0.01464,-0.00976,-0.00488,-0.03416,-0.07808,-0.0732,-0.06832,-0.05856
-0.03416,0.03904,-0.04392,-0.02684,-0.00976,-0.0122,-0.00976,-0.03416,-0.07808,-0.06344,-0.05856,-0.05856
-0.0244,0.03172,-0.03904,-0.02684,-0.01464,-0.00488,-0.00976,-0.03416,-0.0732,-0.06832,-0.05856,-0.05368
-0.00488,0.00976,-0.01464,-0.0122,-0.00976,0.00244,-0.00488,-0.0244,-0.05368,-0.05368,-0.05856,-0.04392
0.00488,0.00244,-0.00976,-0.0122,-0.01464,0.00976,0.00488,-0.0244,-0.05368,-0.05368,-0.05856,-0.03416
0.00488,0.00732,-0.01952,-0.02196,-0.0244,0.01464,0,-0.03416,-0.0732,-0.05856,-0.06832,-0.03904
-0.00976,0.0244,-0.03904,-0.03416,-0.02928,0.00976,-0.00488,-0.03904,-0.08296,-0.0732,-0.06832,-0.04392
-0.0244,0.03172,-0.03904,-0.02684,-0.01464,-0.00488,-0.00976,-0.03904,-0.08296,-0.0732,-0.06832,-0.0488
-0.0244,0.03172,-0.03904,-0.02684,-0.01464,-0.00488,-0.00488,-0.03904,-0.08784,-0.0732,-0.0732,-0.0488
-0.00488,0.02196,-0.03904,-0.0366,-0.03416,0.01464,-0.00976,-0.04392,-0.07808,-0.06832,-0.06344,-0.04392
-0.00976,0.02196,-0.03416,-0.02928,-0.0244,0.00732,-0.01464,-0.04392,-0.08296,-0.07808,-0.06832,-0.0488
-0.01464,0.0244,-0.03416,-0.02684,-0.01952,0.00244,-0.00976,-0.03904,-0.09272,-0.07808,-0.06832,-0.05368
-0.0244,0.0366,-0.0488,-0.0366,-0.0244,0,-0.00976,-0.03904,-0.0976,-0.07808,-0.07808,-0.05368
-0.02928,0.04392,-0.05856,-0.04392,-0.02928,0,-0.0244,-0.05368,-0.10248,-0.08296,-0.07808,-0.05856
-0.0488,0.05856,-0.06832,-0.04392,-0.01952,-0.01464,-0.0244,-0.05856,-0.10248,-0.10248,-0.07808,-0.06344
-0.03904,0.05124,-0.06344,-0.04392,-0.0244,-0.00732,-0.0244,-0.0488,-0.10248,-0.0976,-0.08296,-0.06344
-0.01464,0.0244,-0.03416,-0.02684,-0.01952,0.00244,-0.01464,-0.0488,-0.10248,-0.0976,-0.08296,-0.06344
-0.01464,0.0244,-0.03416,-0.02684,-0.01952,0.00244,-0.01464,-0.0488,-0.11224,-0.10248,-0.07808,-0.0732
-0.01464,0.03172,-0.0488,-0.04148,-0.03416,0.00976,-0.01464,-0.05368,-0.11224,-0.10736,-0.08296,-0.0732
-0.03416,0.04636,-0.05856,-0.04148,-0.0244,-0.00488,-0.01952,-0.05368,-0.122,-0.10248,-0.07808,-0.06344
-0.04392,0.061,-0.07808,-0.05612,-0.03416,-0.00488,-0.0244,-0.05856,-0.122,-0.11224,-0.08784,-0.06344
-0.05368,0.06832,-0.08296,-0.05612,-0.02928,-0.0122,-0.0244,-0.05856,-0.122,-0.11224,-0.09272,-0.06832
-0.04392,0.05612,-0.06832,-0.04636,-0.0244,-0.00976,-0.0244,-0.06344,-0.122,-0.11224,-0.08784,-0.06832
-0.03416,0.04148,-0.0488,-0.03172,-0.01464,-0.00976,-0.00488,-0.05856,-0.122,-0.10248,-0.08784,-0.06832
-0.0244,0.0366,-0.0488,-0.0366,-0.0244,0,-0.00976,-0.05856,-0.122,-0.10736,-0.08784,-0.06344
-0.0244,0.0366,-0.0488,-0.0366,-0.0244,0,-0.01952,-0.05856,-0.12688,-0.11224,-0.08784,-0.0732
-0.0244,0.03416,-0.04392,-0.03172,-0.01952,-0.00244,-0.01464,-0.06344,-0.12688,-0.11224,-0.08296,-0.0732
-0.02928,0.04636,-0.06344,-0.0488,-0.03416,0.00244,-0.01464,-0.06832,-0.12688,-0.0976,-0.08784,-0.0732
-0.0244,0.04392,-0.06344,-0.05124,-0.03904,0.00732,-0.01464,-0.06832,-0.12688,-0.0976,-0.09272,-0.06832
-0.01464,0.04148,-0.06832,-0.061,-0.05368,0.01952,-0.00976,-0.05856,-0.11712,-0.0976,-0.08296,-0.0732
-0.01464,0.0366,-0.05856,-0.05124,-0.04392,0.01464,-0.01464,-0.06344,-0.122,-0.10248,-0.08784,-0.07808
-0.01952,0.03904,-0.05856,-0.0488,-0.03904,0.00976,-0.01464,-0.06344,-0.122,-0.0976,-0.08296,-0.06832
-0.02928,0.05124,-0.0732,-0.05856,-0.04392,0.00732,-0.01464,-0.06344,-0.12688,-0.10248,-0.08784,-0.05856
-0.0244,0.04636,-0.06832,-0.05612,-0.04392,0.00976,-0.02928,-0.0732,-0.13664,-0.11224,-0.08784,-0.06832
-0.0488,0.05856,-0.06832,-0.04392,-0.01952,-0.01464,-0.01464,-0.06832,-0.13664,-0.10736,-0.08296,-0.06832
-0.02928,0.05124,-0.0732,-0.05856,-0.04392,0.00732,-0.00976,-0.06832,-0.13664,-0.11224,-0.08784,-0.0732
-0.03904,0.061,-0.08296,-0.06344,-0.04392,0.00244,-0.0244,-0.06832,-0.13664,-0.122,-0.0976,-0.0732
-0.05368,0.0732,-0.09272,-0.06588,-0.03904,-0.00732,-0.02928,-0.06832,-0.1464,-0.122,-0.11224,-0.07808
-0.04392,0.06588,-0.08784,-0.06588,-0.04392,0,-0.0244,-0.06832,-0.14152,-0.122,-0.09272,-0.07808
-0.03416,0.05612,-0.07808,-0.061,-0.04392,0.00488,-0.01464,-0.06344,-0.13176,-0.11224,-0.09272,-0.08296
-0.0244,0.04148,-0.05856,-0.04636,-0.03416,0.00488,-0.00976,-0.06344,-0.13664,-0.11712,-0.09272,-0.0732
-0.0244,0.04636,-0.06832,-0.05612,-0.04392,0.00976,-0.00976,-0.05856,-0.12688,-0.10736,-0.08784,-0.06344
-0.00488,0.0366,-0.06832,-0.06588,-0.06344,0.02928,-0.00976,-0.05856,-0.13176,-0.10736,-0.09272,-0.06344
-0.01952,0.0488,-0.07808,-0.06832,-0.05856,0.01952,-0.01464,-0.06832,-0.14152,-0.11712,-0.0976,-0.0732
-0.01952,0.05368,-0.08784,-0.07808,-0.06832,0.0244,-0.01464,-0.06832,-0.14152,-0.122,-0.0976,-0.06832
-0.03904,0.07076,-0.10248,-0.08296,-0.06344,0.0122,-0.01464,-0.06344,-0.14152,-0.122,-0.0976,-0.07808
-0.04392,0.0732,-0.10248,-0.08052,-0.05856,0.00732,-0.01952,-0.06344,-0.14152,-0.11712,-0.0976,-0.07808
-0.04392,0.06832,-0.09272,-0.07076,-0.0488,0.00244,-0.01952,-0.06344,-0.14152,-0.122,-0.09272,-0.06832
-0.0244,0.0488,-0.0732,-0.061,-0.0488,0.0122,-0.01464,-0.05856,-0.14152,-0.122,-0.08784,-0.0732
-0.01952,0.04148,-0.06344,-0.05368,-0.04392,0.0122,-0.00976,-0.06344,-0.14152,-0.122,-0.0976,-0.07808
-0.04392,0.06588,-0.08784,-0.06588,-0.04392,0,-0.01464,-0.06832,-0.14152,-0.122,-0.10248,-0.0732
-0.03416,0.061,-0.08784,-0.07076,-0.05368,0.00976,-0.00976,-0.0732,-0.13664,-0.11712,-0.0976,-0.0732
-0.0244,0.05124,-0.07808,-0.06588,-0.05368,0.01464,-0.00976,-0.0732,-0.14152,-0.122,-0.0976,-0.08296
-0.0244,0.05124,-0.07808,-0.06588,-0.05368,0.01464,-0.0244,-0.0732,-0.14152,-0.12688,-0.0976,-0.08296
-0.0244,0.05124,-0.07808,-0.06588,-0.05368,0.01464,-0.0244,-0.0732,-0.14152,-0.12688,-0.10248,-0.08296
-0.02928,0.05368,-0.07808,-0.06344,-0.0488,0.00976,-0.01464,-0.0732,-0.1464,-0.11712,-0.10248,-0.08296
-0.02928,0.05124,-0.0732,-0.05856,-0.04392,0.00732,-0.01464,-0.06344,-0.15128,-0.11224,-0.0976,-0.0732
-0.0488,0.06344,-0.07808,-0.05368,-0.02928,-0.00976,-0.00976,-0.05856,-0.13664,-0.11712,-0.0976,-0.06832
-0.0488,0.06344,-0.07808,-0.05368,-0.02928,-0.00976,-0.00976,-0.05856,-0.13664,-0.11712,-0.0976,-0.06832
-0.05856,0.07564,-0.09272,-0.06344,-0.03416,-0.0122,-0.01464,-0.06344,-0.14152,-0.12688,-0.10736,-0.0732
-0.06344,0.08784,-0.11224,-0.08052,-0.0488,-0.00732,-0.0244,-0.0732,-0.15128,-0.12688,-0.11224,-0.08784
-0.03904,0.06344,-0.08784,-0.06832,-0.0488,0.00488,-0.01952,-0.06832,-0.15616,-0.12688,-0.11224,-0.08784
-0.02928,0.05124,-0.0732,-0.05856,-0.04392,0.00732,-0.01952,-0.06832,-0.1464,-0.12688,-0.11224,-0.07808
-0.01464,0.03904,-0.06344,-0.05612,-0.0488,0.01708,-0.01464,-0.06832,-0.1464,-0.13176,-0.10736,-0.07808
-0.00976,0.02928,-0.0488,-0.04392,-0.03904,0.01464,-0.00976,-0.06344,-0.13664,-0.10736,-0.10248,-0.07808
-0.00976,0.02928,-0.0488,-0.04392,-0.03904,0.01464,-0.01464,-0.06344,-0.13664,-0.11224,-0.10248,-0.0732
-0.01952,0.0366,-0.05368,-0.04392,-0.03416,0.00732,-0.00488,-0.05856,-0.12688,-0.11224,-0.0976,-0.06832
-0.03416,0.0488,-0.06344,-0.04636,-0.02928,-0.00244,0,-0.05368,-0.13664,-0.0976,-0.08296,-0.06832
-0.03904,0.0488,-0.05856,-0.03904,-0.01952,-0.00976,0.00976,-0.05368,-0.13176,-0.09272,-0.07808,-0.06832
-0.0244,0.02684,-0.02928,-0.01708,-0.00488,-0.00976,0.00488,-0.05368,-0.11712,-0.08784,-0.06344,-0.05368
-0.02928,0.03172,-0.03416,-0.01952,-0.00488,-0.0122,0.00488,-0.06344,-0.11712,-0.08784,-0.06344,-0.05368
-0.02928,0.0244,-0.01952,-0.00488,0.00976,-0.01952,0.00976,-0.05856,-0.11224,-0.08296,-0.05856,-0.03904
-0.00488,0.00244,0,0.00244,0.00488,-0.00488,0.00488,-0.05368,-0.0976,-0.0732,-0.0488,-0.03904
0,-0.00976,0.01952,0.01952,0.01952,-0.00976,-0.01464,-0.06344,-0.08784,-0.05856,-0.04392,-0.03904
0.0244,-0.04148,0.05856,0.04636,0.03416,-0.00488,-0.01952,-0.06344,-0.08296,-0.0488,-0.03416,-0.01952
0.0244,-0.04392,0.06344,0.05124,0.03904,-0.00732,-0.03416,-0.05856,-0.08296,-0.04392,-0.02928,-0.01464
0.01952,-0.04392,0.06832,0.05856,0.0488,-0.01464,-0.05856,-0.06832,-0.09272,-0.0488,-0.02928,-0.01464
0.01952,-0.0488,0.07808,0.06832,0.05856,-0.01952,-0.06832,-0.06832,-0.09272,-0.0488,-0.02928,-0.00976
0.02928,-0.05368,0.07808,0.06344,0.0488,-0.00976,-0.08784,-0.07808,-0.10248,-0.05368,-0.02928,-0.00976
0.0488,-0.07076,0.09272,0.06832,0.04392,0.00244,-0.07808,-0.0732,-0.09272,-0.03904,-0.00976,0
0.08296,-0.10492,0.12688,0.0854,0.04392,0.01952,-0.08296,-0.06832,-0.08296,-0.0244,0.00488,0.01952
0.09272,-0.10248,0.11224,0.06588,0.01952,0.0366,-0.10248,-0.07808,-0.08296,-0.02928,0.00976,0.01464
0.07808,-0.09028,0.10248,0.06344,0.0244,0.02684,-0.0976,-0.06832,-0.08296,-0.0244,0.00976,0.01952
0.06832,-0.07808,0.08784,0.05368,0.01952,0.0244,-0.0976,-0.05856,-0.08784,-0.0244,0,0.01464
0.06344,-0.06588,0.06832,0.0366,0.00488,0.02928,-0.08784,-0.05856,-0.09272,-0.03416,-0.00976,0.00976
0.03904,-0.05124,0.06344,0.04392,0.0244,0.00732,-0.05856,-0.0488,-0.09272,-0.03416,-0.00976,0
0.01464,-0.02196,0.02928,0.02196,0.01464,0,-0.06344,-0.05856,-0.10248,-0.05368,-0.02928,-0.0244
-0.00488,0.00488,-0.00488,-0.00244,0,-0.00244,-0.06344,-0.08296,-0.12688,-0.0732,-0.04392,-0.02928
-0.01464,0.01952,-0.0244,-0.01708,-0.00976,-0.00244,-0.05368,-0.07808,-0.12688,-0.07808,-0.05856,-0.04392
-0.00976,0.01952,-0.02928,-0.0244,-0.01952,0.00488,-0.03416,-0.06344,-0.11712,-0.07808,-0.05368,-0.05368
-0.00976,0.03172,-0.05368,-0.0488,-0.04392,0.01708,-0.02928,-0.05856,-0.122,-0.08296,-0.06832,-0.06344
-0.00976,0.03904,-0.06832,-0.06344,-0.05856,0.0244,-0.02928,-0.0732,-0.1464,-0.10248,-0.08296,-0.06344
-0.01464,0.0488,-0.08296,-0.07564,-0.06832,0.02684,-0.03416,-0.08296,-0.15616,-0.10736,-0.09272,-0.06832
-0.02928,0.06832,-0.10736,-0.09272,-0.07808,0.0244,-0.03904,-0.08784,-0.16592,-0.12688,-0.09272,-0.07808
-0.0488,0.0854,-0.122,-0.0976,-0.0732,0.0122,-0.04392,-0.09272,-0.17568,-0.14152,-0.11224,-0.09272
-0.04392,0.0854,-0.12688,-0.10492,-0.08296,0.01952,-0.04392,-0.0976,-0.16104,-0.13176,-0.10248,-0.08784
-0.05856,0.0976,-0.13664,-0.10736,-0.07808,0.00976,-0.03904,-0.09272,-0.16104,-0.13176,-0.10248,-0.09272
-0.04392,0.08296,-0.122,-0.10004,-0.07808,0.01708,-0.03416,-0.09272,-0.16592,-0.13664,-0.10736,-0.09272
-0.03416,0.07808,-0.122,-0.10492,-0.08784,0.02684,-0.00976,-0.0732,-0.1708,-0.13664,-0.11712,-0.0976
-0.05856,0.1098,-0.16104,-0.13176,-0.10248,0.02196,0.03904,0,-0.13664,-0.14152,-0.122,-0.11224
-0.03904,0.11956,-0.20008,-0.18056,-0.16104,0.061,0.11712,0.10736,-0.07808,-0.15128,-0.1464,-0.13664
-0.09272,0.183,-0.27328,-0.22692,-0.18056,0.04392,0.21472,0.17568,-0.0488,-0.17568,-0.19032,-0.1708
-0.05856,0.1464,-0.23424,-0.20496,-0.17568,0.05856,0.33184,0.27816,0.08296,-0.08296,-0.12688,-0.14152
-0.0244,0.05612,-0.08784,-0.07564,-0.06344,0.01952,0.40016,0.3904,0.30744,0.122,0.04392,-0.01952
0.06832,-0.0976,0.12688,0.09272,0.05856,0.00488,0.36112,0.45872,0.5612,0.38064,0.26352,0.1464
0.18056,-0.30744,0.43432,0.34404,0.25376,-0.0366,0.16104,0.54168,0.96136,0.81496,0.61,0.40992
0.32208,-0.57828,0.83448,0.67344,0.5124,-0.09516,-0.1464,0.55632,1.44448,1.3664,1.05408,0.75152
0.37088,-0.83204,1.2932,1.10776,0.92232,-0.27572,-0.59048,0.18544,1.708,1.76168,1.41032,1.02968
0.34648,-1.01504,1.6836,1.51036,1.33712,-0.49532,-1.09312,-0.55144,1.55672,1.89344,1.586,1.20536
0.36112,-1.1102,1.85928,1.67872,1.49816,-0.56852,-1.42496,-1.11752,1.2444,1.8056,1.57136,1.21024
0.2928,-0.95648,1.62016,1.47376,1.32736,-0.51728,-1.48352,-1.17608,0.91256,1.4396,1.27856,1.0248
0.244,-0.77836,1.31272,1.19072,1.06872,-0.41236,-1.38104,-1.1468,0.4148,0.92232,0.91256,0.78568
0.20008,-0.6344,1.06872,0.96868,0.86864,-0.33428,-1.19072,-1.08336,-0.19032,0.36112,0.54168,0.52704
0.16104,-0.5002,0.83936,0.75884,0.67832,-0.25864,-0.89304,-0.84912,-0.26352,0.1952,0.35136,0.38552
0.08296,-0.33428,0.5856,0.54412,0.50264,-0.20984,-0.56608,-0.57584,-0.23424,0.13176,0.24888,0.28304
0.02928,-0.16836,0.30744,0.2928,0.27816,-0.12444,-0.34648,-0.33184,-0.14152,0.09272,0.16104,0.16104
0.05856,-0.122,0.18544,0.15616,0.12688,-0.03416,-0.1952,-0.122,-0.03416,0.07808,0.12688,0.11712
0.00488,-0.04636,0.08784,0.0854,0.08296,-0.03904,-0.10248,-0.03904,0.00976,0.06344,0.05856,0.0488
-0.02928,0.00488,0.01952,0.03416,0.0488,-0.03904,-0.04392,-0.05368,-0.0244,0.00976,-0.00488,0.00976
-0.0488,0.0366,-0.0244,0,0.0244,-0.0366,0.00488,-0.0244,-0.06344,-0.03416,-0.02928,-0.01952
-0.01952,0.01464,-0.00976,0,0.00976,-0.01464,0.03904,0.01952,-0.06832,-0.0488,-0.03904,-0.02928
-0.04392,0.04636,-0.0488,-0.02684,-0.00488,-0.01952,0.04392,0.03416,-0.08296,-0.05856,-0.05856,-0.03904
-0.05368,0.06344,-0.0732,-0.04636,-0.01952,-0.01708,0.08296,0.04392,-0.06832,-0.05856,-0.05856,-0.04392
-0.05856,0.0732,-0.08784,-0.05856,-0.02928,-0.01464,0.10736,0.04392,-0.06832,-0.08296,-0.07808,-0.05856
-0.04392,0.06588,-0.08784,-0.06588,-0.04392,0,0.10248,0.04392,-0.0732,-0.08296,-0.08296,-0.06344
-0.03416,0.06344,-0.09272,-0.07564,-0.05856,0.0122,0.10736,0.03904,-0.0732,-0.07808,-0.08296,-0.0732
-0.03416,0.06344,-0.09272,-0.07564,-0.05856,0.0122,0.10736,0.03904,-0.06344,-0.0732,-0.07808,-0.0732
-0.06344,0.09028,-0.11712,-0.0854,-0.05368,-0.00488,0.10248,0.05368,-0.06832,-0.07808,-0.0732,-0.08296
-0.07808,0.11468,-0.15128,-0.11224,-0.0732,-0.00244,0.0976,0.05368,-0.06344,-0.07808,-0.0732,-0.08784
-0.05368,0.0976,-0.14152,-0.11468,-0.08784,0.01708,0.10248,0.05368,-0.05368,-0.06832,-0.06832,-0.0732
-0.03416,0.0732,-0.11224,-0.09516,-0.07808,0.02196,0.10248,0.0488,-0.03904,-0.06832,-0.06344,-0.0732
-0.04392,0.08052,-0.11712,-0.09516,-0.0732,0.01464,0.10736,0.05368,-0.03416,-0.06832,-0.06344,-0.06832
-0.03904,0.07808,-0.11712,-0.0976,-0.07808,0.01952,0.10736,0.05856,-0.03416,-0.0732,-0.06344,-0.06344
-0.03904,0.07564,-0.11224,-0.09272,-0.0732,0.01708,0.0976,0.06344,-0.03416,-0.07808,-0.0732,-0.0732
-0.02928,0.06832,-0.10736,-0.09272,-0.07808,0.0244,0.10248,0.06344,-0.0244,-0.0732,-0.08296,-0.06832
-0.02928,0.06832,-0.10736,-0.09272,-0.07808,0.0244,0.11712,0.06344,-0.01464,-0.06344,-0.08296,-0.06344
-0.03904,0.08296,-0.12688,-0.10736,-0.08784,0.0244,0.12688,0.06832,-0.01464,-0.06344,-0.09272,-0.06344
-0.0488,0.09272,-0.13664,-0.11224,-0.08784,0.01952,0.11712,0.08296,-0.01952,-0.06344,-0.08784,-0.06344
-0.0488,0.09028,-0.13176,-0.10736,-0.08296,0.01708,0.122,0.08784,-0.00976,-0.05368,-0.08296,-0.06832
-0.03416,0.07564,-0.11712,-0.10004,-0.08296,0.0244,0.13176,0.10736,0.00488,-0.03904,-0.0732,-0.05368
-0.02928,0.07076,-0.11224,-0.0976,-0.08296,0.02684,0.13664,0.12688,0.0244,-0.02928,-0.06344,-0.04392
-0.0244,0.061,-0.0976,-0.0854,-0.0732,0.0244,0.1464,0.13664,0.0244,-0.0244,-0.0488,-0.04392
-0.0244,0.07076,-0.11712,-0.10492,-0.09272,0.03416,0.1464,0.14152,0.0244,-0.01464,-0.04392,-0.0488
-0.03416,0.07564,-0.11712,-0.10004,-0.08296,0.0244,0.14152,0.15128,0.02928,-0.00976,-0.04392,-0.04392
-0.02928,0.0732,-0.11712,-0.10248,-0.08784,0.02928,0.13176,0.1464,0.04392,-0.01952,-0.04392,-0.03904
-0.04392,0.0854,-0.12688,-0.10492,-0.08296,0.01952,0.13176,0.15128,0.0488,-0.00976,-0.03416,-0.04392
-0.0488,0.09028,-0.13176,-0.10736,-0.08296,0.01708,0.13176,0.15128,0.05856,-0.00976,-0.02928,-0.04392
-0.02928,0.06832,-0.10736,-0.09272,-0.07808,0.0244,0.15128,0.17568,0.08296,0.00488,-0.00976,-0.01952
-0.01952,0.05368,-0.08784,-0.07808,-0.06832,0.0244,0.15128,0.18056,0.08784,0.00488,-0.00976,-0.00976
-0.01952,0.05124,-0.08296,-0.0732,-0.06344,0.02196,0.16592,0.1952,0.10248,0,-0.01464,-0.00976
-0.01464,0.05368,-0.09272,-0.0854,-0.07808,0.03172,0.1708,0.20496,0.11224,0,-0.01464,-0.01464
-0.01464,0.05856,-0.10248,-0.09516,-0.08784,0.0366,0.16592,0.20984,0.11712,-0.00488,-0.01952,-0.01952
-0.03416,0.07808,-0.122,-0.10492,-0.08784,0.02684,0.1708,0.22448,0.13176,0.00488,-0.03416,-0.01952
-0.0244,0.061,-0.0976,-0.0854,-0.0732,0.0244,0.18544,0.244,0.15616,0.02928,-0.02928,-0.01464
0.01952,0.02928,-0.07808,-0.08784,-0.0976,0.05856,0.19032,0.25376,0.1708,0.04392,-0.01464,-0.00976
0.00976,0.03172,-0.0732,-0.07808,-0.08296,0.04636,0.19032,0.25864,0.18056,0.04392,-0.01464,-0.01464
0,0.04148,-0.08296,-0.08296,-0.08296,0.04148,0.1952,0.27816,0.19032,0.05856,-0.00488,-0.00976
0.00488,0.0366,-0.07808,-0.08052,-0.08296,0.04392,0.20496,0.28792,0.20008,0.0732,0.00488,0
0.01464,0.02684,-0.06832,-0.07564,-0.08296,0.0488,0.20984,0.30256,0.22448,0.08784,0.00488,0
0.03416,0.00976,-0.05368,-0.07076,-0.08784,0.061,0.22448,0.32696,0.23424,0.0976,0.0244,0.00488
0.0244,0.01708,-0.05856,-0.07076,-0.08296,0.05368,0.22448,0.33672,0.244,0.0976,0.03416,0.01464
0.00976,0.02928,-0.06832,-0.0732,-0.07808,0.04392,0.2196,0.33184,0.244,0.0976,0.03904,0.01464
0.00488,0.04148,-0.08784,-0.09028,-0.09272,0.0488,0.20984,0.33672,0.25376,0.10248,0.03416,0.00488
0.01952,0.02684,-0.0732,-0.08296,-0.09272,0.05612,0.21472,0.35136,0.27328,0.11224,0.05368,0.00976
0.02928,0.00976,-0.0488,-0.06344,-0.07808,0.05368,0.20984,0.35136,0.27816,0.11224,0.05856,0.01464
0.04392,0,-0.04392,-0.06588,-0.08784,0.06588,0.2196,0.36112,0.28792,0.122,0.05856,0.01952
0.03904,0,-0.03904,-0.05856,-0.07808,0.05856,0.21472,0.35136,0.28304,0.122,0.06344,0.01464
0.02928,0.0122,-0.05368,-0.06832,-0.08296,0.05612,0.1952,0.33184,0.27816,0.11224,0.05368,0.00488
0.01952,0.01952,-0.05856,-0.06832,-0.07808,0.0488,0.1952,0.32208,0.26352,0.11224,0.05368,0.00976
0.01952,0.01708,-0.05368,-0.06344,-0.0732,0.04636,0.18056,0.32696,0.25864,0.11224,0.06344,0.00976
0.01952,0.00732,-0.03416,-0.04392,-0.05368,0.0366,0.1708,0.30256,0.25376,0.10736,0.06344,0.00976
0.03416,-0.01464,-0.00488,-0.02196,-0.03904,0.0366,0.16104,0.28792,0.25376,0.11224,0.0732,0.01464
0.04392,-0.03172,0.01952,-0.00244,-0.0244,0.03416,0.16104,0.27816,0.24888,0.12688,0.0732,0.03904
0.05856,-0.05124,0.04392,0.01464,-0.01464,0.0366,0.1464,0.24888,0.23424,0.122,0.0732,0.03904
0.06344,-0.05368,0.04392,0.0122,-0.01952,0.04148,0.14152,0.22936,0.21472,0.11712,0.0732,0.03904
0.05368,-0.0488,0.04392,0.01708,-0.00976,0.03172,0.10736,0.1952,0.18544,0.10736,0.06344,0.03416
0.01952,-0.01464,0.00976,0,-0.00976,0.01464,0.0976,0.17568,0.16104,0.0976,0.05368,0.03416
-0.00976,0.00732,-0.00488,0,0.00488,-0.00732,0.07808,0.1464,0.13176,0.07808,0.04392,0.02928
0,-0.00244,0.00488,0.00488,0.00488,-0.00244,0.06832,0.11712,0.11224,0.0732,0.03904,0.01952
-0.00488,-0.00244,0.00976,0.0122,0.01464,-0.00976,0.05368,0.09272,0.09272,0.05368,0.03904,0.01464
0.00488,-0.0122,0.01952,0.01708,0.01464,-0.00488,0.04392,0.0732,0.0732,0.0488,0.03416,0.01464
-0.00976,-0.00244,0.01464,0.01952,0.0244,-0.01708,0.03904,0.0488,0.0488,0.03904,0.01952,0.00976
0.00488,-0.0122,0.01952,0.01708,0.01464,-0.00488,0.02928,0.03904,0.02928,0.0244,0.01952,0.00976
-0.00976,-0.00244,0.01464,0.01952,0.0244,-0.01708,0.02928,0.01952,0,0.00488,0.00488,0.00488
0,-0.00244,0.00488,0.00488,0.00488,-0.00244,0.0244,0.00976,-0.01464,-0.00488,0,0
0,0.00244,-0.00488,-0.00488,-0.00488,0.00244,0.02928,-0.01464,-0.0244,-0.01464,0,0
0,0,0,0,0,0,0.0244,-0.01952,-0.04392,-0.01952,-0.00976,-0.00488
-0.01464,0.01952,-0.0244,-0.01708,-0.00976,-0.00244,0.01952,-0.03904,-0.06344,-0.02928,-0.01952,-0.01952
-0.0488,0.05368,-0.05856,-0.03416,-0.00976,-0.01952,0.00488,-0.04392,-0.07808,-0.05368,-0.03416,-0.01952
-0.05368,0.05612,-0.05856,-0.03172,-0.00488,-0.0244,0,-0.03904,-0.08296,-0.05856,-0.03904,-0.0244
-0.03904,0.03904,-0.03904,-0.01952,0,-0.01952,0.01464,-0.04392,-0.08296,-0.0488,-0.03416,-0.01952
-0.01952,0.0244,-0.02928,-0.01952,-0.00976,-0.00488,0.00976,-0.05368,-0.09272,-0.05856,-0.04392,-0.00488
-0.0244,0.02928,-0.03416,-0.02196,-0.00976,-0.00732,0,-0.05368,-0.0976,-0.06344,-0.05856,-0.01952
-0.01464,0.02196,-0.02928,-0.02196,-0.01464,0,0.00488,-0.05856,-0.0976,-0.06344,-0.06344,-0.02928
-0.00488,0.01952,-0.03416,-0.03172,-0.02928,0.0122,0.00976,-0.05856,-0.0976,-0.06344,-0.05856,-0.0244
-0.0244,0.02928,-0.03416,-0.02196,-0.00976,-0.00732,0,-0.05856,-0.10736,-0.06832,-0.05368,-0.01464
-0.03416,0.02928,-0.0244,-0.00732,0.00976,-0.02196,0.00488,-0.06344,-0.10248,-0.06832,-0.05856,-0.01952
-0.03416,0.02928,-0.0244,-0.00732,0.00976,-0.02196,0.01464,-0.06344,-0.0976,-0.06832,-0.0488,-0.01464
-0.03904,0.0366,-0.03416,-0.01464,0.00488,-0.02196,0.01464,-0.06344,-0.10248,-0.06344,-0.03904,-0.01464
-0.03904,0.04148,-0.04392,-0.0244,-0.00488,-0.01708,0.00976,-0.06344,-0.10248,-0.0732,-0.04392,-0.0244
-0.02928,0.03416,-0.03904,-0.0244,-0.00976,-0.00976,0.00488,-0.06344,-0.10248,-0.0732,-0.05368,-0.0244
-0.01952,0.01708,-0.01464,-0.00488,0.00488,-0.0122,0.00976,-0.05368,-0.09272,-0.0732,-0.0488,-0.0244
-0.01952,0.02196,-0.0244,-0.01464,-0.00488,-0.00732,0.00976,-0.05368,-0.08784,-0.0732,-0.04392,-0.01952
-0.0244,0.02684,-0.02928,-0.01708,-0.00488,-0.00976,0.01464,-0.05368,-0.08784,-0.06832,-0.0488,-0.02928
-0.03416,0.03904,-0.04392,-0.02684,-0.00976,-0.0122,0.00976,-0.05368,-0.08296,-0.06832,-0.05368,-0.03904
-0.02928,0.03172,-0.03416,-0.01952,-0.00488,-0.0122,0.01464,-0.0488,-0.0976,-0.06832,-0.0488,-0.04392
-0.02928,0.03172,-0.03416,-0.01952,-0.00488,-0.0122,0.01464,-0.0488,-0.09272,-0.06344,-0.04392,-0.03904
-0.02928,0.02928,-0.02928,-0.01464,0,-0.01464,0.0244,-0.03904,-0.08296,-0.05368,-0.03904,-0.03416
-0.0244,0.0244,-0.0244,-0.0122,0,-0.0122,0.0244,-0.03416,-0.07808,-0.04392,-0.02928,-0.0244
-0.0244,0.02684,-0.02928,-0.01708,-0.00488,-0.00976,0.01952,-0.02928,-0.07808,-0.0488,-0.02928,-0.02928
-0.0244,0.02928,-0.03416,-0.02196,-0.00976,-0.00732,0.0244,-0.02928,-0.08296,-0.0488,-0.02928,-0.0244
-0.0244,0.02684,-0.02928,-0.01708,-0.00488,-0.00976,0.0244,-0.03416,-0.08784,-0.05368,-0.02928,-0.01952
-0.00976,0.01464,-0.01952,-0.01464,-0.00976,0,0.01952,-0.03904,-0.07808,-0.05368,-0.03416,-0.01464
-0.01952,0.02196,-0.0244,-0.01464,-0.00488,-0.00732,0.0244,-0.02928,-0.08296,-0.04392,-0.03416,-0.01952
-0.03904,0.03416,-0.02928,-0.00976,0.00976,-0.0244,0.0244,-0.02928,-0.08296,-0.04392,-0.03904,-0.01952
-0.02928,0.0244,-0.01952,-0.00488,0.00976,-0.01952,0.03416,-0.0244,-0.0732,-0.04392,-0.03416,-0.01952
-0.00488,0.00732,-0.00976,-0.00732,-0.00488,0,0.02928,-0.0244,-0.06832,-0.03904,-0.02928,-0.01952
-0.00976,0.01952,-0.02928,-0.0244,-0.01952,0.00488,0.01952,-0.02928,-0.0732,-0.0488,-0.03904,-0.01464
-0.01952,0.0244,-0.02928,-0.01952,-0.00976,-0.00488,0.01952,-0.0244,-0.06832,-0.0488,-0.04392,-0.01464
-0.0244,0.03172,-0.03904,-0.02684,-0.01464,-0.00488,0.00976,-0.03416,-0.08296,-0.05368,-0.04392,-0.01464
-0.02928,0.0366,-0.04392,-0.02928,-0.01464,-0.00732,0.00976,-0.03416,-0.08296,-0.05368,-0.03904,-0.00976
-0.02928,0.03172,-0.03416,-0.01952,-0.00488,-0.0122,0.0244,-0.0244,-0.0732,-0.06344,-0.03904,-0.01952
-0.03416,0.03904,-0.04392,-0.02684,-0.00976,-0.0122,0.0244,-0.0244,-0.07808,-0.06344,-0.03904,-0.01952
-0.0244,0.03416,-0.04392,-0.03172,-0.01952,-0.00244,0.01952,-0.03416,-0.08296,-0.05368,-0.04392,-0.01952
-0.01464,0.02684,-0.03904,-0.03172,-0.0244,0.00488,0.01952,-0.03416,-0.08784,-0.05856,-0.05368,-0.01464
0.00976,0.00488,-0.01952,-0.0244,-0.02928,0.01952,0.02928,-0.0244,-0.0732,-0.04392,-0.03904,0
0.00976,0.00732,-0.0244,-0.02928,-0.03416,0.02196,0.02928,-0.0244,-0.0732,-0.04392,-0.03904,0
0.00976,0.00976,-0.02928,-0.03416,-0.03904,0.0244,0.01464,-0.03416,-0.08784,-0.04392,-0.03904,-0.00976
-0.01464,0.02196,-0.02928,-0.02196,-0.01464,0,0.01952,-0.03904,-0.08784,-0.0488,-0.03904,-0.01464
-0.01464,0.02196,-0.02928,-0.02196,-0.01464,0,0.00976,-0.03904,-0.09272,-0.06344,-0.0488,-0.01952
-0.01464,0.02196,-0.02928,-0.02196,-0.01464,0,0.01464,-0.03904,-0.0976,-0.06344,-0.05368,-0.01952
-0.01464,0.03172,-0.0488,-0.04148,-0.03416,0.00976,0.01952,-0.04392,-0.10736,-0.06832,-0.05856,-0.0244
-0.03904,0.05124,-0.06344,-0.04392,-0.0244,-0.00732,0.01464,-0.04392,-0.11224,-0.07808,-0.0732,-0.02928
-0.03904,0.05368,-0.06832,-0.0488,-0.02928,-0.00488,0,-0.0488,-0.11224,-0.08296,-0.08784,-0.03904
-0.03904,0.05612,-0.0732,-0.05368,-0.03416,-0.00244,0,-0.0488,-0.11712,-0.09272,-0.0976,-0.0488
-0.0244,0.04636,-0.06832,-0.05612,-0.04392,0.00976,0,-0.04392,-0.11712,-0.09272,-0.08296,-0.04392
-0.03416,0.04636,-0.05856,-0.04148,-0.0244,-0.00488,0.00976,-0.0488,-0.10736,-0.09272,-0.0732,-0.03904
-0.0244,0.04148,-0.05856,-0.04636,-0.03416,0.00488,0.00976,-0.0488,-0.122,-0.08784,-0.0732,-0.03416
0.00976,0.01464,-0.03904,-0.04392,-0.0488,0.02928,0.00976,-0.0488,-0.122,-0.08784,-0.0732,-0.03416
0.00976,0.01952,-0.0488,-0.05368,-0.05856,0.03416,0.01464,-0.0488,-0.122,-0.08296,-0.05856,-0.03416
0,0.02684,-0.05368,-0.05368,-0.05368,0.02684,0.01464,-0.05368,-0.122,-0.08784,-0.06344,-0.03416
-0.02928,0.0488,-0.06832,-0.05368,-0.03904,0.00488,0.00488,-0.05856,-0.14152,-0.09272,-0.06344,-0.0488
-0.0488,0.07808,-0.10736,-0.08296,-0.05856,0.00488,-0.00976,-0.0732,-0.14152,-0.10248,-0.08296,-0.05856
-0.05368,0.0854,-0.11712,-0.09028,-0.06344,0.00488,-0.00488,-0.06832,-0.14152,-0.10248,-0.08296,-0.05856
-0.04392,0.06832,-0.09272,-0.07076,-0.0488,0.00244,-0.00488,-0.0732,-0.14152,-0.10248,-0.07808,-0.05856
-0.02928,0.04636,-0.06344,-0.0488,-0.03416,0.00244,0.01464,-0.05856,-0.13176,-0.09272,-0.07808,-0.05856
-0.02928,0.04148,-0.05368,-0.03904,-0.0244,-0.00244,0.00976,-0.05856,-0.13176,-0.0976,-0.07808,-0.05368
-0.01952,0.03416,-0.0488,-0.03904,-0.02928,0.00488,0.00488,-0.0488,-0.13664,-0.09272,-0.07808,-0.05368
-0.00976,0.02684,-0.04392,-0.03904,-0.03416,0.0122,0.01952,-0.05368,-0.13664,-0.09272,-0.0732,-0.05368
-0.01464,0.03172,-0.0488,-0.04148,-0.03416,0.00976,0.01464,-0.0488,-0.13664,-0.08784,-0.06832,-0.0488
0,0.01952,-0.03904,-0.03904,-0.03904,0.01952,0.01464,-0.0488,-0.13664,-0.08784,-0.0732,-0.05368
-0.00488,0.03172,-0.05856,-0.05612,-0.05368,0.0244,0.01952,-0.03904,-0.13664,-0.0976,-0.0732,-0.05368
-0.0244,0.04636,-0.06832,-0.05612,-0.04392,0.00976,0.01464,-0.04392,-0.14152,-0.10248,-0.07808,-0.05856
-0.04392,0.061,-0.07808,-0.05612,-0.03416,-0.00488,0.01464,-0.05856,-0.15128,-0.10736,-0.08296,-0.06832
-0.04392,0.06832,-0.09272,-0.07076,-0.0488,0.00244,0.01464,-0.06832,-0.15616,-0.11224,-0.08784,-0.05856
-0.02928,0.05612,-0.08296,-0.06832,-0.05368,0.0122,0,-0.0732,-0.15616,-0.122,-0.08784,-0.05856
-0.06344,0.07808,-0.09272,-0.061,-0.02928,-0.01708,0.01464,-0.06832,-0.15616,-0.11712,-0.08296,-0.05856
-0.04392,0.06832,-0.09272,-0.07076,-0.0488,0.00244,0.02928,-0.05856,-0.15616,-0.10248,-0.08296,-0.06344
-0.04392,0.06344,-0.08296,-0.061,-0.03904,-0.00244,0.01464,-0.05856,-0.15616,-0.11224,-0.08296,-0.06344
-0.03904,0.05612,-0.0732,-0.05368,-0.03416,-0.00244,0.01464,-0.05368,-0.16592,-0.11224,-0.09272,-0.06344
-0.01952,0.04392,-0.06832,-0.05856,-0.0488,0.01464,0.00976,-0.06344,-0.16104,-0.11224,-0.0732,-0.05368
-0.02928,0.05124,-0.0732,-0.05856,-0.04392,0.00732,0.01464,-0.06344,-0.15128,-0.11224,-0.09272,-0.05856
-0.02928,0.04636,-0.06344,-0.0488,-0.03416,0.00244,0.01952,-0.06344,-0.15616,-0.11712,-0.09272,-0.05856
-0.03904,0.05856,-0.07808,-0.05856,-0.03904,0,0.00976,-0.05856,-0.15616,-0.11712,-0.08784,-0.05368
-0.02928,0.05368,-0.07808,-0.06344,-0.0488,0.00976,0.00976,-0.05856,-0.16104,-0.11712,-0.09272,-0.05368
-0.0488,0.07076,-0.09272,-0.06832,-0.04392,-0.00244,0.00488,-0.06832,-0.1708,-0.10736,-0.0976,-0.06344
-0.0488,0.08052,-0.11224,-0.08784,-0.06344,0.00732,0.00488,-0.06832,-0.1708,-0.11224,-0.0976,-0.05856
-0.05368,0.08052,-0.10736,-0.08052,-0.05368,0,0.01464,-0.06344,-0.16592,-0.11224,-0.09272,-0.0488
-0.0488,0.0732,-0.0976,-0.0732,-0.0488,0,0.00976,-0.06344,-0.15616,-0.10736,-0.08296,-0.0488
-0.03904,0.06832,-0.0976,-0.07808,-0.05856,0.00976,0.00976,-0.0732,-0.16104,-0.10736,-0.07808,-0.05856
-0.02928,0.05856,-0.08784,-0.0732,-0.05856,0.01464,0.01464,-0.06832,-0.16104,-0.11712,-0.08296,-0.06344
-0.01464,0.04148,-0.06832,-0.061,-0.05368,0.01952,0.01952,-0.05368,-0.16104,-0.11224,-0.07808,-0.06832
-0.00976,0.0366,-0.06344,-0.05856,-0.05368,0.02196,0.01464,-0.05856,-0.16104,-0.11224,-0.08296,-0.06344
-0.00976,0.0366,-0.06344,-0.05856,-0.05368,0.02196,0.01952,-0.06344,-0.15616,-0.10736,-0.08784,-0.05368
-0.02928,0.05612,-0.08296,-0.06832,-0.05368,0.0122,0.01952,-0.06344,-0.16104,-0.11224,-0.08784,-0.06344
-0.06344,0.08296,-0.10248,-0.07076,-0.03904,-0.0122,0.00488,-0.0732,-0.16592,-0.122,-0.0976,-0.06832
-0.06344,0.08784,-0.11224,-0.08052,-0.0488,-0.00732,0.00488,-0.0732,-0.17568,-0.13176,-0.10248,-0.07808
-0.04392,0.07808,-0.11224,-0.09028,-0.06832,0.0122,0.01464,-0.06344,-0.1708,-0.12688,-0.09272,-0.0732
-0.0244,0.061,-0.0976,-0.0854,-0.0732,0.0244,0.01464,-0.06344,-0.16592,-0.13176,-0.08784,-0.0732
-0.01952,0.0488,-0.07808,-0.06832,-0.05856,0.01952,0.01952,-0.06344,-0.16104,-0.11224,-0.08784,-0.06344
-0.01952,0.04392,-0.06832,-0.05856,-0.0488,0.01464,0.01952,-0.05856,-0.15616,-0.10736,-0.07808,-0.06832
-0.00976,0.0366,-0.06344,-0.05856,-0.05368,0.02196,0.01464,-0.0488,-0.15616,-0.0976,-0.0732,-0.06344
-0.02928,0.061,-0.09272,-0.07808,-0.06344,0.01708,-0.00488,-0.06832,-0.16592,-0.11712,-0.07808,-0.0732
-0.03904,0.07564,-0.11224,-0.09272,-0.0732,0.01708,0.00976,-0.05856,-0.16592,-0.11712,-0.08784,-0.06832
-0.03904,0.07076,-0.10248,-0.08296,-0.06344,0.0122,0.00976,-0.05856,-0.16592,-0.11712,-0.08784,-0.06832
-0.03904,0.06344,-0.08784,-0.06832,-0.0488,0.00488,0.00976,-0.05856,-0.15616,-0.11712,-0.07808,-0.05856
-0.04392,0.07076,-0.0976,-0.07564,-0.05368,0.00488,0.00976,-0.05856,-0.15616,-0.11712,-0.08296,-0.06344
-0.02928,0.06344,-0.0976,-0.08296,-0.06832,0.01952,0.01952,-0.05856,-0.16104,-0.11712,-0.09272,-0.06832
-0.03904,0.07076,-0.10248,-0.08296,-0.06344,0.0122,0.01952,-0.05856,-0.16104,-0.11712,-0.09272,-0.07808
-0.03416,0.06344,-0.09272,-0.07564,-0.05856,0.0122,0.01464,-0.05856,-0.15616,-0.11712,-0.08784,-0.07808
-0.02928,0.05368,-0.07808,-0.06344,-0.0488,0.00976,0.01952,-0.05368,-0.1464,-0.10248,-0.08296,-0.07808
-0.03416,0.05612,-0.07808,-0.061,-0.04392,0.00488,0.01952,-0.06344,-0.15616,-0.11224,-0.08296,-0.06344
-0.03416,0.05856,-0.08296,-0.06588,-0.0488,0.00732,0.01952,-0.05856,-0.1464,-0.11224,-0.07808,-0.05856
-0.02928,0.0488,-0.06832,-0.05368,-0.03904,0.00488,0.02928,-0.05368,-0.1464,-0.0976,-0.06344,-0.05856
-0.0244,0.03904,-0.05368,-0.04148,-0.02928,0.00244,0.03904,-0.05368,-0.14152,-0.09272,-0.05856,-0.05856
-0.00976,0.0122,-0.01464,-0.00976,-0.00488,-0.00244,0.05368,-0.03904,-0.12688,-0.07808,-0.05368,-0.04392
-0.00488,0.00732,-0.00976,-0.00732,-0.00488,0,0.05368,-0.03904,-0.12688,-0.07808,-0.05368,-0.04392
-0.01952,0.01708,-0.01464,-0.00488,0.00488,-0.0122,0.04392,-0.04392,-0.12688,-0.08784,-0.05368,-0.0488
-0.01464,0.01952,-0.0244,-0.01708,-0.00976,-0.00244,0.02928,-0.0488,-0.122,-0.08784,-0.05368,-0.0488
0,0.00244,-0.00488,-0.00488,-0.00488,0.00244,0.01464,-0.04392,-0.11224,-0.06344,-0.02928,-0.03416
0.0244,-0.03416,0.04392,0.03172,0.01952,0.00244,0.00976,-0.04392,-0.0976,-0.04392,-0.00976,-0.00488
0.02928,-0.04148,0.05368,0.03904,0.0244,0.00244,-0.00488,-0.05856,-0.09272,-0.03904,-0.00488,0.00976
0.03416,-0.04636,0.05856,0.04148,0.0244,0.00488,-0.02928,-0.06832,-0.10248,-0.05368,-0.01464,0
0.0244,-0.04148,0.05856,0.04636,0.03416,-0.00488,-0.02928,-0.05856,-0.10248,-0.0488,-0.01952,-0.00976
0.0244,-0.04148,0.05856,0.04636,0.03416,-0.00488,-0.0488,-0.06832,-0.11224,-0.05368,-0.01952,-0.00976
0.03416,-0.04636,0.05856,0.04148,0.0244,0.00488,-0.0488,-0.0732,-0.10248,-0.03904,0,0.00976
0.05856,-0.07076,0.08296,0.05368,0.0244,0.01708,-0.05368,-0.06832,-0.09272,-0.0244,0.01464,0.02928
0.08296,-0.0854,0.08784,0.04636,0.00488,0.03904,-0.0732,-0.07808,-0.10248,-0.02928,0.01952,0.0244
0.08784,-0.08784,0.08784,0.04392,0,0.04392,-0.06832,-0.06832,-0.10248,-0.0244,0.01952,0.02928
0.07808,-0.06832,0.05856,0.01952,-0.01952,0.0488,-0.05856,-0.06344,-0.0976,-0.0244,0.01952,0.0244
0.05368,-0.04636,0.03904,0.0122,-0.01464,0.03416,-0.0488,-0.05368,-0.10248,-0.03416,0.00976,0.01952
0.01464,-0.01952,0.0244,0.01708,0.00976,0.00244,-0.02928,-0.05856,-0.10736,-0.05368,-0.01464,0.00488
0,0.00488,-0.00976,-0.00976,-0.00976,0.00488,-0.03416,-0.06832,-0.12688,-0.0732,-0.04392,-0.02928
0,0.00976,-0.01952,-0.01952,-0.01952,0.00976,-0.03416,-0.08296,-0.13664,-0.07808,-0.05368,-0.0244
0,0.01464,-0.02928,-0.02928,-0.02928,0.01464,-0.0244,-0.07808,-0.13664,-0.0732,-0.0488,-0.02928
-0.00488,0.02928,-0.05368,-0.05124,-0.0488,0.02196,-0.00488,-0.0732,-0.1464,-0.08296,-0.05368,-0.03904
-0.01464,0.05124,-0.08784,-0.08052,-0.0732,0.02928,0,-0.06832,-0.15128,-0.0976,-0.06832,-0.05856
-0.01952,0.05856,-0.0976,-0.08784,-0.07808,0.02928,-0.00976,-0.0732,-0.16592,-0.11224,-0.0732,-0.06344
-0.0244,0.06832,-0.11224,-0.10004,-0.08784,0.03172,-0.01464,-0.08296,-0.17568,-0.11712,-0.08296,-0.06832
-0.03416,0.07808,-0.122,-0.10492,-0.08784,0.02684,-0.00488,-0.08296,-0.18056,-0.13176,-0.08784,-0.08296
-0.04392,0.0854,-0.12688,-0.10492,-0.08296,0.01952,0,-0.07808,-0.18056,-0.13664,-0.0976,-0.08784
-0.0488,0.09028,-0.13176,-0.10736,-0.08296,0.01708,-0.00488,-0.07808,-0.1708,-0.14152,-0.10248,-0.0976
-0.0732,0.11224,-0.15128,-0.11468,-0.07808,0.00244,0,-0.0732,-0.1708,-0.14152,-0.10248,-0.10248
-0.06344,0.0976,-0.13176,-0.10004,-0.06832,0.00244,0.00488,-0.06344,-0.16592,-0.12688,-0.0976,-0.08296
-0.04392,0.10248,-0.16104,-0.13908,-0.11712,0.0366,0.01952,-0.05368,-0.16104,-0.13664,-0.10736,-0.10736
-0.06832,0.14396,-0.2196,-0.18544,-0.15128,0.04148,0.07808,0.00976,-0.13664,-0.15128,-0.13176,-0.13176
-0.0488,0.14884,-0.24888,-0.22448,-0.20008,0.07564,0.15616,0.11712,-0.10736,-0.1708,-0.16592,-0.15616
-0.06344,0.1586,-0.25376,-0.22204,-0.19032,0.06344,0.2928,0.21472,-0.02928,-0.16592,-0.1708,-0.1708
-0.05856,0.14152,-0.22448,-0.1952,-0.16592,0.05368,0.37088,0.30744,0.11224,-0.0732,-0.10736,-0.13176
-0.03416,0.05124,-0.06832,-0.05124,-0.03416,0,0.4392,0.40016,0.33672,0.15128,0.0732,-0.00976
0.05856,-0.11712,0.17568,0.1464,0.11712,-0.02928,0.37088,0.47824,0.61,0.44896,0.32208,0.18544
0.18056,-0.33184,0.48312,0.39284,0.30256,-0.061,0.13176,0.57096,1.05896,0.93208,0.7076,0.47824
0.35136,-0.65636,0.96136,0.78568,0.61,-0.12932,-0.15616,0.50752,1.5128,1.464,1.1712,0.8296
0.40992,-0.915,1.42008,1.21512,1.01016,-0.30012,-0.61,0.0976,1.74704,1.82024,1.47864,1.06872
0.35624,-1.03944,1.72264,1.54452,1.3664,-0.50508,-1.10288,-0.66856,1.49816,1.87392,1.586,1.18584
0.33184,-1.04676,1.76168,1.59576,1.42984,-0.549,-1.37616,-1.06872,1.1956,1.72752,1.49328,1.15168
0.23424,-0.854,1.47376,1.35664,1.23952,-0.50264,-1.38592,-1.12728,0.77592,1.27368,1.15168,0.9272
0.18544,-0.70516,1.22488,1.13216,1.03944,-0.427,-1.2932,-1.1468,0.19032,0.7076,0.7564,0.67832
0.15128,-0.57096,0.99064,0.915,0.83936,-0.34404,-1.06384,-1.03456,-0.3172,0.244,0.42456,0.42944
0.122,-0.427,0.732,0.671,0.61,-0.244,-0.79544,-0.79056,-0.30256,0.1464,0.28304,0.30744
0.10248,-0.31476,0.52704,0.4758,0.42456,-0.16104,-0.488,-0.52704,-0.27328,0.06344,0.19032,0.21472
0.01952,-0.14396,0.2684,0.25864,0.24888,-0.11468,-0.25864,-0.244,-0.10248,0.08296,0.14152,0.14152
0.00976,-0.06832,0.12688,0.122,0.11712,-0.05368,-0.13664,-0.09272,-0.03416,0.0488,0.07808,0.06832
-0.00488,-0.01708,0.03904,0.04148,0.04392,-0.0244,-0.06344,-0.03904,-0.01952,0.0244,0.02928,0.01952
-0.01952,-0.00488,0.02928,0.03904,0.0488,-0.03416,0.00488,-0.0244,-0.04392,0,0.01464,0.00976
-0.02928,0.02196,-0.01464,0,0.01464,-0.02196,0.04392,0.01464,-0.05368,-0.04392,-0.02928,-0.01952
-0.05856,0.06344,-0.06832,-0.03904,-0.00976,-0.0244,0.0488,0.03904,-0.07808,-0.05856,-0.0488,-0.03904
-0.0488,0.06588,-0.08296,-0.05856,-0.03416,-0.00732,0.06344,0.04392,-0.10248,-0.07808,-0.06832,-0.05856
