i,aVR,ii,aVF,iii,aVL,V1,V2,V3,V4,V5,V6
0.0488,-0.02684,0.00488,-0.01952,-0.04392,0.04636,-0.05856,-0.03904,-0.13664,-0.07808,-0.0732,0.01464
0.03904,-0.01708,-0.00488,-0.0244,-0.04392,0.04148,-0.05368,-0.0488,-0.14152,-0.08784,-0.07808,0.01464
0.03416,-0.00976,-0.01464,-0.03172,-0.0488,0.04148,-0.05368,-0.05856,-0.1464,-0.08784,-0.08296,0.00976
0.0244,-0.00244,-0.01952,-0.03172,-0.04392,0.03416,-0.05368,-0.06344,-0.1464,-0.09272,-0.09272,0.00488
0.01464,0.00732,-0.02928,-0.0366,-0.04392,0.02928,-0.05368,-0.06832,-0.15128,-0.0976,-0.0976,0
0,0.01464,-0.02928,-0.02928,-0.02928,0.01464,-0.05368,-0.06832,-0.15128,-0.10736,-0.10248,0
-0.00488,0.01952,-0.03416,-0.03172,-0.02928,0.0122,-0.05368,-0.0732,-0.15616,-0.11224,-0.10248,0
-0.00976,0.0244,-0.03904,-0.03416,-0.02928,0.00976,-0.05368,-0.07808,-0.16592,-0.11712,-0.10736,-0.00488
-0.00976,0.02684,-0.04392,-0.03904,-0.03416,0.0122,-0.05368,-0.08296,-0.1708,-0.11712,-0.11224,0
-0.01464,0.02928,-0.04392,-0.0366,-0.02928,0.00732,-0.05368,-0.09272,-0.17568,-0.11712,-0.11224,0
-0.01952,0.03172,-0.04392,-0.03416,-0.0244,0.00244,-0.05368,-0.0976,-0.18056,-0.11712,-0.11224,0
-0.01952,0.03416,-0.0488,-0.03904,-0.02928,0.00488,-0.05368,-0.0976,-0.18056,-0.12688,-0.11224,0
-0.01952,0.0366,-0.05368,-0.04392,-0.03416,0.00732,-0.05368,-0.0976,-0.18056,-0.12688,-0.11712,0
-0.01952,0.0366,-0.05368,-0.04392,-0.03416,0.00732,-0.05368,-0.0976,-0.18544,-0.12688,-0.11712,0
-0.01952,0.0366,-0.05368,-0.04392,-0.03416,0.00732,-0.0488,-0.10248,-0.18544,-0.13176,-0.122,-0.00488
-0.01952,0.03904,-0.05856,-0.0488,-0.03904,0.00976,-0.0488,-0.10736,-0.18544,-0.13176,-0.122,-0.00488
-0.0244,0.04392,-0.06344,-0.05124,-0.03904,0.00732,-0.0488,-0.11224,-0.18544,-0.13176,-0.122,-0.00488
-0.02928,0.04636,-0.06344,-0.0488,-0.03416,0.00244,-0.05368,-0.11224,-0.18544,-0.13664,-0.122,-0.00488
-0.03416,0.0488,-0.06344,-0.04636,-0.02928,-0.00244,-0.05368,-0.11224,-0.18544,-0.13664,-0.122,-0.00488
-0.03904,0.05368,-0.06832,-0.0488,-0.02928,-0.00488,-0.05368,-0.11712,-0.19032,-0.13664,-0.12688,-0.00976
-0.03904,0.05612,-0.0732,-0.05368,-0.03416,-0.00244,-0.05368,-0.11712,-0.1952,-0.13664,-0.13176,-0.00976
-0.03416,0.05368,-0.0732,-0.05612,-0.03904,0.00244,-0.05368,-0.11712,-0.1952,-0.13664,-0.13176,-0.00976
-0.03416,0.05368,-0.0732,-0.05612,-0.03904,0.00244,-0.0488,-0.11712,-0.1952,-0.14152,-0.13176,-0.00976
-0.02928,0.05124,-0.0732,-0.05856,-0.04392,0.00732,-0.0488,-0.11712,-0.1952,-0.14152,-0.13176,-0.00976
-0.0244,0.0488,-0.0732,-0.061,-0.0488,0.0122,-0.0488,-0.11712,-0.19032,-0.14152,-0.13664,-0.00976
-0.0244,0.0488,-0.0732,-0.061,-0.0488,0.0122,-0.05368,-0.11712,-0.19032,-0.14152,-0.13664,-0.00976
-0.0244,0.0488,-0.0732,-0.061,-0.0488,0.0122,-0.05368,-0.11712,-0.19032,-0.14152,-0.13176,-0.00976
-0.0244,0.0488,-0.0732,-0.061,-0.0488,0.0122,-0.05368,-0.11712,-0.19032,-0.13664,-0.13176,-0.00976
-0.0244,0.0488,-0.0732,-0.061,-0.0488,0.0122,-0.05368,-0.11712,-0.19032,-0.13664,-0.13176,-0.00976
-0.0244,0.0488,-0.0732,-0.061,-0.0488,0.0122,-0.05368,-0.11712,-0.19032,-0.13664,-0.13176,-0.01464
-0.01952,0.04636,-0.0732,-0.06344,-0.05368,0.01708,-0.05368,-0.11712,-0.1952,-0.14152,-0.13176,-0.01464
-0.01952,0.0488,-0.07808,-0.06832,-0.05856,0.01952,-0.0488,-0.11712,-0.19032,-0.13664,-0.13176,-0.01464
-0.01952,0.0488,-0.07808,-0.06832,-0.05856,0.01952,-0.04392,-0.11224,-0.18544,-0.13176,-0.13176,-0.01464
-0.01952,0.04636,-0.0732,-0.06344,-0.05368,0.01708,-0.04392,-0.11224,-0.18544,-0.13176,-0.13176,-0.01464
-0.01952,0.04392,-0.06832,-0.05856,-0.0488,0.01464,-0.04392,-0.11224,-0.18544,-0.13176,-0.13176,-0.01464
-0.0244,0.0488,-0.0732,-0.061,-0.0488,0.0122,-0.04392,-0.11712,-0.18544,-0.12688,-0.13176,-0.01464
-0.0244,0.0488,-0.0732,-0.061,-0.0488,0.0122,-0.04392,-0.122,-0.18544,-0.12688,-0.13664,-0.01464
-0.0244,0.04636,-0.06832,-0.05612,-0.04392,0.00976,-0.04392,-0.122,-0.18544,-0.12688,-0.13664,-0.01952
-0.0244,0.04636,-0.06832,-0.05612,-0.04392,0.00976,-0.04392,-0.122,-0.19032,-0.12688,-0.13664,-0.01952
-0.0244,0.0488,-0.0732,-0.061,-0.0488,0.0122,-0.04392,-0.11712,-0.18544,-0.13176,-0.13664,-0.0244
-0.0244,0.0488,-0.0732,-0.061,-0.0488,0.0122,-0.0488,-0.11712,-0.18056,-0.13176,-0.13664,-0.0244
-0.0244,0.05124,-0.07808,-0.06588,-0.05368,0.01464,-0.04392,-0.11712,-0.17568,-0.12688,-0.13176,-0.0244
-0.02928,0.05612,-0.08296,-0.06832,-0.05368,0.0122,-0.03904,-0.11712,-0.1708,-0.122,-0.12688,-0.0244
-0.0244,0.05368,-0.08296,-0.07076,-0.05856,0.01708,-0.03904,-0.11712,-0.1708,-0.122,-0.12688,-0.0244
-0.01952,0.05124,-0.08296,-0.0732,-0.06344,0.02196,-0.04392,-0.11712,-0.17568,-0.122,-0.12688,-0.0244
-0.0244,0.05368,-0.08296,-0.07076,-0.05856,0.01708,-0.04392,-0.122,-0.17568,-0.122,-0.13176,-0.02928
-0.0244,0.05368,-0.08296,-0.07076,-0.05856,0.01708,-0.04392,-0.13176,-0.17568,-0.122,-0.13664,-0.03416
-0.03416,0.05856,-0.08296,-0.06588,-0.0488,0.00732,-0.04392,-0.13176,-0.17568,-0.11712,-0.13664,-0.04392
-0.03904,0.061,-0.08296,-0.06344,-0.04392,0.00244,-0.04392,-0.13176,-0.18056,-0.11224,-0.13664,-0.0488
-0.03904,0.06344,-0.08784,-0.06832,-0.0488,0.00488,-0.04392,-0.12688,-0.17568,-0.11224,-0.13664,-0.0488
-0.03904,0.06588,-0.09272,-0.0732,-0.05368,0.00732,-0.04392,-0.122,-0.1708,-0.11224,-0.13664,-0.0488
-0.03904,0.06832,-0.0976,-0.07808,-0.05856,0.00976,-0.03904,-0.122,-0.16592,-0.10736,-0.13176,-0.0488
-0.04392,0.07076,-0.0976,-0.07564,-0.05368,0.00488,-0.03904,-0.122,-0.16592,-0.10248,-0.12688,-0.04392
-0.04392,0.07076,-0.0976,-0.07564,-0.05368,0.00488,-0.03416,-0.122,-0.16104,-0.0976,-0.12688,-0.04392
-0.04392,0.07076,-0.0976,-0.07564,-0.05368,0.00488,-0.02928,-0.122,-0.15616,-0.09272,-0.12688,-0.04392
-0.03904,0.07076,-0.10248,-0.08296,-0.06344,0.0122,-0.02928,-0.11712,-0.15616,-0.08784,-0.122,-0.04392
-0.03416,0.06832,-0.10248,-0.0854,-0.06832,0.01708,-0.02928,-0.11712,-0.15616,-0.08784,-0.11712,-0.04392
-0.03416,0.06832,-0.10248,-0.0854,-0.06832,0.01708,-0.0244,-0.11712,-0.15128,-0.08784,-0.11712,-0.05368
-0.03416,0.06832,-0.10248,-0.0854,-0.06832,0.01708,-0.01952,-0.11712,-0.1464,-0.08296,-0.11712,-0.05856
-0.03416,0.06832,-0.10248,-0.0854,-0.06832,0.01708,-0.01952,-0.11712,-0.1464,-0.08296,-0.122,-0.05856
-0.03416,0.06832,-0.10248,-0.0854,-0.06832,0.01708,-0.01952,-0.11712,-0.1464,-0.08296,-0.12688,-0.06832
-0.03416,0.06588,-0.0976,-0.08052,-0.06344,0.01464,-0.01952,-0.11712,-0.1464,-0.08296,-0.12688,-0.06344
-0.03416,0.06344,-0.09272,-0.07564,-0.05856,0.0122,-0.01952,-0.11712,-0.1464,-0.08296,-0.12688,-0.06832
-0.03416,0.06344,-0.09272,-0.07564,-0.05856,0.0122,-0.01952,-0.11712,-0.14152,-0.07808,-0.122,-0.06832
-0.03416,0.06344,-0.09272,-0.07564,-0.05856,0.0122,-0.01952,-0.11712,-0.13664,-0.0732,-0.11712,-0.06832
-0.03416,0.06588,-0.0976,-0.08052,-0.06344,0.01464,-0.01952,-0.11712,-0.13176,-0.0732,-0.11712,-0.06832
-0.03416,0.06588,-0.0976,-0.08052,-0.06344,0.01464,-0.01952,-0.11712,-0.12688,-0.0732,-0.11712,-0.06832
-0.03416,0.06588,-0.0976,-0.08052,-0.06344,0.01464,-0.01952,-0.11712,-0.12688,-0.06832,-0.11712,-0.06344
-0.03416,0.06588,-0.0976,-0.08052,-0.06344,0.01464,-0.01952,-0.11712,-0.12688,-0.06344,-0.11712,-0.06344
-0.03416,0.06344,-0.09272,-0.07564,-0.05856,0.0122,-0.01952,-0.11712,-0.122,-0.05856,-0.11224,-0.06344
-0.03416,0.06344,-0.09272,-0.07564,-0.05856,0.0122,-0.01952,-0.11224,-0.11712,-0.05368,-0.10736,-0.06344
-0.02928,0.061,-0.09272,-0.07808,-0.06344,0.01708,-0.01464,-0.11224,-0.11224,-0.05368,-0.10736,-0.06344
-0.0244,0.05856,-0.09272,-0.08052,-0.06832,0.02196,-0.00976,-0.11224,-0.11224,-0.05368,-0.10736,-0.06344
-0.0244,0.05856,-0.09272,-0.08052,-0.06832,0.02196,-0.00976,-0.11224,-0.11224,-0.0488,-0.10736,-0.06344
-0.0244,0.05612,-0.08784,-0.07564,-0.06344,0.01952,-0.00976,-0.11224,-0.11224,-0.04392,-0.10736,-0.06344
-0.0244,0.05612,-0.08784,-0.07564,-0.06344,0.01952,-0.00976,-0.10736,-0.10736,-0.03904,-0.10736,-0.06344
-0.0244,0.05856,-0.09272,-0.08052,-0.06832,0.02196,-0.00976,-0.10248,-0.10736,-0.03904,-0.10736,-0.06832
-0.01952,0.05368,-0.08784,-0.07808,-0.06832,0.0244,-0.00976,-0.0976,-0.10248,-0.03904,-0.10248,-0.06832
-0.01952,0.05368,-0.08784,-0.07808,-0.06832,0.0244,-0.00976,-0.0976,-0.0976,-0.03904,-0.0976,-0.06832
-0.01464,0.05124,-0.08784,-0.08052,-0.0732,0.02928,-0.00976,-0.0976,-0.0976,-0.03416,-0.0976,-0.06832
-0.00976,0.0488,-0.08784,-0.08296,-0.07808,0.03416,-0.00976,-0.0976,-0.0976,-0.02928,-0.0976,-0.06832
-0.00976,0.04636,-0.08296,-0.07808,-0.0732,0.03172,-0.00976,-0.0976,-0.09272,-0.02928,-0.09272,-0.0732
-0.00488,0.04148,-0.07808,-0.07564,-0.0732,0.03416,-0.00976,-0.09272,-0.08296,-0.0244,-0.08784,-0.0732
-0.00488,0.03904,-0.0732,-0.07076,-0.06832,0.03172,-0.00976,-0.09272,-0.07808,-0.01952,-0.08784,-0.07808
-0.00488,0.0366,-0.06832,-0.06588,-0.06344,0.02928,-0.00488,-0.08784,-0.06832,-0.01464,-0.08784,-0.07808
-0.00488,0.0366,-0.06832,-0.06588,-0.06344,0.02928,-0.00488,-0.08296,-0.06344,-0.01464,-0.08296,-0.07808
0,0.03416,-0.06832,-0.06832,-0.06832,0.03416,-0.00488,-0.07808,-0.05856,-0.01464,-0.07808,-0.07808
0,0.03416,-0.06832,-0.06832,-0.06832,0.03416,-0.00488,-0.07808,-0.05856,-0.00488,-0.07808,-0.07808
0,0.03416,-0.06832,-0.06832,-0.06832,0.03416,-0.00488,-0.07808,-0.05368,0.00488,-0.07808,-0.07808
0,0.03172,-0.06344,-0.06344,-0.06344,0.03172,-0.00488,-0.0732,-0.05368,0.00488,-0.06832,-0.0732
0,0.02684,-0.05368,-0.05368,-0.05368,0.02684,0.00488,-0.06344,-0.04392,0.01464,-0.05856,-0.06832
0.00976,0.00976,-0.02928,-0.03416,-0.03904,0.0244,0.00976,-0.05856,-0.02928,0.01952,-0.0488,-0.05368
0.01464,-0.00244,-0.00976,-0.01708,-0.0244,0.01952,0.0244,-0.05368,-0.01464,0.02928,-0.03904,-0.04392
0.0244,-0.0122,0,-0.0122,-0.0244,0.0244,0.0244,-0.0488,0,0.03416,-0.03416,-0.03904
0.02928,-0.01952,0.00976,-0.00488,-0.01952,0.0244,0.02928,-0.03904,0.00488,0.04392,-0.02928,-0.03904
0.0488,-0.04148,0.03416,0.00976,-0.01464,0.03172,0.02928,-0.03416,0.00976,0.0488,-0.01952,-0.03416
0.05368,-0.05368,0.05368,0.02684,0,0.02684,0.02928,-0.02928,0.01952,0.05856,-0.01464,-0.03416
0.06344,-0.06588,0.06832,0.0366,0.00488,0.02928,0.03904,-0.01464,0.0244,0.06344,0,-0.01464
0.08296,-0.08052,0.07808,0.0366,-0.00488,0.04392,0.03904,-0.00488,0.02928,0.06832,0.00976,0
0.08296,-0.08296,0.08296,0.04148,0,0.04148,0.02928,-0.00488,0.03416,0.0732,0.01464,0.00488
0.09272,-0.09516,0.0976,0.05124,0.00488,0.04392,0.01952,-0.00488,0.03416,0.0732,0.01464,0.01464
0.11224,-0.1098,0.10736,0.05124,-0.00488,0.05856,0.00488,-0.00488,0.01952,0.0732,0.01464,0.01952
0.11712,-0.1098,0.10248,0.04392,-0.01464,0.06588,-0.01952,-0.00488,0.00488,0.06344,0.01464,0.0244
0.11712,-0.10736,0.0976,0.03904,-0.01952,0.06832,-0.0244,-0.01952,-0.01952,0.04392,0.00488,0.02928
0.11224,-0.08784,0.06344,0.00732,-0.0488,0.08052,-0.03416,-0.02928,-0.03904,0.02928,-0.00976,0.01952
0.11712,-0.0854,0.05368,-0.00488,-0.06344,0.09028,-0.03416,-0.03904,-0.0488,0.01952,-0.01952,0.01952
0.11224,-0.08052,0.0488,-0.00732,-0.06344,0.08784,-0.03416,-0.03904,-0.0488,0.01464,-0.01952,0.00976
0.122,-0.0854,0.0488,-0.0122,-0.0732,0.0976,-0.02928,-0.04392,-0.0488,0.01464,-0.01464,0.00976
0.12688,-0.09028,0.05368,-0.00976,-0.0732,0.10004,-0.0244,-0.04392,-0.05368,0.01464,-0.00976,0.00976
0.13176,-0.0976,0.06344,-0.00244,-0.06832,0.10004,-0.0244,-0.03904,-0.04392,0.01952,-0.00488,0.00976
0.13176,-0.0976,0.06344,-0.00244,-0.06832,0.10004,-0.01464,-0.03904,-0.03416,0.01464,-0.00976,-0.00976
0.11712,-0.08784,0.05856,0,-0.05856,0.08784,-0.00488,-0.03416,-0.03416,0.01464,-0.01952,-0.01952
0.11712,-0.08784,0.05856,0,-0.05856,0.08784,0.00488,-0.03904,-0.03904,0.00976,-0.02928,-0.02928
0.12688,-0.10248,0.07808,0.01464,-0.0488,0.08784,0.01464,-0.03904,-0.03416,0.00976,-0.0244,-0.0244
0.13176,-0.11224,0.09272,0.02684,-0.03904,0.0854,0.01952,-0.03904,-0.02928,0.01464,-0.01464,-0.0244
0.1464,-0.12688,0.10736,0.03416,-0.03904,0.09272,0.0244,-0.03416,-0.0244,0.0244,-0.00976,-0.02928
0.15616,-0.13664,0.11712,0.03904,-0.03904,0.0976,0.02928,-0.02928,-0.01464,0.02928,0,-0.02928
0.16592,-0.1464,0.12688,0.04392,-0.03904,0.10248,0.02928,-0.0244,-0.00488,0.03416,0,-0.03416
0.1708,-0.15372,0.13664,0.05124,-0.03416,0.10248,0.02928,-0.01952,0.00488,0.03904,0,-0.03904
0.17568,-0.1586,0.14152,0.05368,-0.03416,0.10492,0.03416,-0.01464,0.00976,0.04392,0.00488,-0.03904
0.18056,-0.16348,0.1464,0.05612,-0.03416,0.10736,0.03904,-0.00976,0.01464,0.0488,0.00976,-0.03904
0.18056,-0.16348,0.1464,0.05612,-0.03416,0.10736,0.03904,-0.00976,0.01464,0.0488,0.00976,-0.03904
0.18056,-0.16348,0.1464,0.05612,-0.03416,0.10736,0.04392,-0.00488,0.01464,0.0488,0.00976,-0.04392
0.18544,-0.16592,0.1464,0.05368,-0.03904,0.11224,0.04392,-0.00488,0.01952,0.05368,0.00976,-0.04392
0.18544,-0.16592,0.1464,0.05368,-0.03904,0.11224,0.04392,-0.00488,0.01952,0.05368,0.00976,-0.04392
0.17568,-0.1586,0.14152,0.05368,-0.03416,0.10492,0.0488,0,0.01464,0.0488,0.00976,-0.0488
0.15616,-0.14152,0.12688,0.0488,-0.02928,0.09272,0.06832,-0.00488,0.0244,0.04392,0,-0.06832
0.16592,-0.14884,0.13176,0.0488,-0.03416,0.10004,0.08784,0.0488,0.05856,0.06832,0.00488,-0.07808
0.23424,-0.20252,0.1708,0.05368,-0.06344,0.14884,0.0732,0.13664,0.09272,0.11712,0.02928,-0.0732
0.42456,-0.34648,0.2684,0.05612,-0.15616,0.29036,-0.03904,0.22448,0.13664,0.16592,0.09272,-0.00488
0.7564,-0.6222,0.488,0.1098,-0.2684,0.5124,-0.31232,0.35624,0.1708,0.25864,0.20008,0.12688
1.26392,-1.03212,0.80032,0.16836,-0.4636,0.86376,-0.67832,0.55632,0.23424,0.3904,0.35136,0.28792
1.61528,-1.33468,1.05408,0.24644,-0.5612,1.08824,-0.95648,0.65392,0.27328,0.47336,0.45872,0.40504
1.76656,-1.47376,1.18096,0.29768,-0.5856,1.17608,-1.13704,0.5856,0.24888,0.5368,0.51728,0.488
1.70312,-1.45668,1.21024,0.35868,-0.49288,1.098,-1.21512,0.3904,0.15128,0.46848,0.50752,0.50752
1.3176,-1.16632,1.01504,0.35624,-0.30256,0.81008,-1.15168,0.05368,-0.02928,0.3172,0.47336,0.49776
0.69784,-0.71736,0.73688,0.38796,0.03904,0.3294,-0.98088,-0.35624,-0.20496,0.16104,0.37576,0.47336
0.2196,-0.40992,0.60024,0.49044,0.38064,-0.08052,-0.75152,-0.58072,-0.18544,0.122,0.33672,0.41968
0.0976,-0.31232,0.52704,0.47824,0.42944,-0.16592,-0.5612,-0.49776,-0.16104,0.10736,0.29768,0.33184
0.10248,-0.25132,0.40016,0.34892,0.29768,-0.0976,-0.40016,-0.37576,-0.13664,0.09272,0.22936,0.22936
0.06832,-0.1586,0.24888,0.21472,0.18056,-0.05612,-0.26352,-0.2928,-0.122,0.05368,0.13176,0.12688
0.0732,-0.1342,0.1952,0.1586,0.122,-0.0244,-0.12688,-0.18056,-0.06832,0.03416,0.06832,0.04392
0.10248,-0.14152,0.18056,0.12932,0.07808,0.0122,-0.05856,-0.11224,-0.04392,0.0244,0.05856,0
0.0976,-0.11956,0.14152,0.09272,0.04392,0.02684,-0.03904,-0.0976,-0.03416,0.0244,0.03904,-0.00488
0.0976,-0.08784,0.07808,0.02928,-0.01952,0.05856,-0.00976,-0.07808,-0.01952,0.0244,-0.00488,-0.05368
0.09272,-0.06588,0.03904,-0.00732,-0.05368,0.0732,0.03904,-0.05368,-0.01952,0.00976,-0.02928,-0.08784
0.08784,-0.05856,0.02928,-0.01464,-0.05856,0.0732,0.03904,-0.0488,-0.01952,0,-0.02928,-0.0976
0.07808,-0.05124,0.0244,-0.01464,-0.05368,0.06588,0.03904,-0.0488,-0.0244,-0.00488,-0.03416,-0.0976
0.06832,-0.03904,0.00976,-0.0244,-0.05856,0.06344,0.03904,-0.04392,-0.0244,-0.00976,-0.03904,-0.0976
0.05856,-0.02684,-0.00488,-0.03416,-0.06344,0.061,0.0488,-0.04392,-0.0244,-0.00976,-0.04392,-0.10248
0.05368,-0.02196,-0.00976,-0.0366,-0.06344,0.05856,0.04392,-0.04392,-0.0244,-0.00976,-0.04392,-0.10736
0.0488,-0.01952,-0.00976,-0.03416,-0.05856,0.05368,0.0488,-0.0488,-0.0244,-0.00976,-0.0488,-0.10736
0.04392,-0.01464,-0.01464,-0.0366,-0.05856,0.05124,0.0488,-0.04392,-0.0244,-0.00976,-0.0488,-0.10736
0.03904,-0.00976,-0.01952,-0.03904,-0.05856,0.0488,0.05368,-0.04392,-0.0244,-0.00976,-0.04392,-0.10736
0.03416,-0.00488,-0.0244,-0.04148,-0.05856,0.04636,0.05856,-0.04392,-0.01952,-0.00976,-0.04392,-0.11224
0.03416,-0.00244,-0.02928,-0.04636,-0.06344,0.0488,0.05856,-0.04392,-0.02928,-0.01464,-0.0488,-0.11224
0.02928,0,-0.02928,-0.04392,-0.05856,0.04392,0.05856,-0.0488,-0.03416,-0.01464,-0.05368,-0.11224
0.0244,0,-0.0244,-0.0366,-0.0488,0.0366,0.05368,-0.04392,-0.03416,-0.01464,-0.05368,-0.11712
0.0244,0,-0.0244,-0.0366,-0.0488,0.0366,0.05368,-0.04392,-0.03416,-0.01464,-0.05368,-0.11712
0.0244,0.00244,-0.02928,-0.04148,-0.05368,0.03904,0.05368,-0.04392,-0.02928,-0.01464,-0.05368,-0.122
0.0244,0.00244,-0.02928,-0.04148,-0.05368,0.03904,0.05368,-0.03904,-0.0244,-0.01464,-0.05368,-0.122
0.0244,0.00488,-0.03416,-0.04636,-0.05856,0.04148,0.05368,-0.03904,-0.0244,-0.01464,-0.05368,-0.122
0.0244,0.00732,-0.03904,-0.05124,-0.06344,0.04392,0.05368,-0.03904,-0.0244,-0.01464,-0.05368,-0.122
0.01952,0.0122,-0.04392,-0.05368,-0.06344,0.04148,0.05368,-0.03904,-0.0244,-0.00976,-0.05368,-0.122
0.01464,0.0122,-0.03904,-0.04636,-0.05368,0.03416,0.05368,-0.03416,-0.0244,-0.00488,-0.0488,-0.122
0.01464,0.0122,-0.03904,-0.04636,-0.05368,0.03416,0.05368,-0.02928,-0.01464,-0.00488,-0.0488,-0.12688
0.00976,0.01708,-0.04392,-0.0488,-0.05368,0.03172,0.05368,-0.02928,-0.00976,-0.00488,-0.0488,-0.13176
0.01464,0.0122,-0.03904,-0.04636,-0.05368,0.03416,0.05368,-0.02928,-0.00976,0,-0.04392,-0.13664
0.00976,0.01464,-0.03904,-0.04392,-0.0488,0.02928,0.05368,-0.01952,-0.00488,0,-0.03416,-0.14152
0.01952,0.00488,-0.02928,-0.03904,-0.0488,0.03416,0.05368,-0.00976,0,0.00976,-0.03416,-0.14152
0.01952,0.00244,-0.0244,-0.03416,-0.04392,0.03172,0.05368,-0.00488,0,0.01952,-0.02928,-0.14152
0.01464,0.00244,-0.01952,-0.02684,-0.03416,0.0244,0.0488,0,0.00976,0.0244,-0.0244,-0.1464
0.01952,0,-0.01952,-0.02928,-0.03904,0.02928,0.04392,0.00488,0.01464,0.0244,-0.01952,-0.15128
0.0244,-0.00244,-0.01952,-0.03172,-0.04392,0.03416,0.04392,0.00976,0.02928,0.02928,-0.00976,-0.15616
0.02928,-0.00976,-0.00976,-0.0244,-0.03904,0.03416,0.04392,0.01464,0.03904,0.02928,-0.00976,-0.16104
0.03416,-0.01464,-0.00488,-0.02196,-0.03904,0.0366,0.0488,0.0244,0.04392,0.03904,0,-0.15616
0.03904,-0.01952,0,-0.01952,-0.03904,0.03904,0.05368,0.03416,0.04392,0.0488,0.00488,-0.15616
0.03904,-0.02196,0.00488,-0.01464,-0.03416,0.0366,0.05368,0.03904,0.05368,0.0488,0.00488,-0.1464
0.03904,-0.0244,0.00976,-0.00976,-0.02928,0.03416,0.05368,0.04392,0.05368,0.05368,0.00976,-0.14152
0.05368,-0.03416,0.01464,-0.0122,-0.03904,0.04636,0.05368,0.05368,0.05856,0.05856,0.01464,-0.12688
0.05368,-0.0366,0.01952,-0.00732,-0.03416,0.04392,0.0488,0.05856,0.05856,0.06344,0.01464,-0.122
0.06832,-0.05368,0.03904,0.00488,-0.02928,0.0488,0.0488,0.05856,0.06344,0.06832,0.01952,-0.11224
0.0732,-0.061,0.0488,0.0122,-0.0244,0.0488,0.0488,0.05856,0.06344,0.0732,0.01952,-0.11224
0.08784,-0.07564,0.06344,0.01952,-0.0244,0.05612,0.0488,0.06832,0.0732,0.07808,0.02928,-0.11224
0.0976,-0.08784,0.07808,0.02928,-0.01952,0.05856,0.0488,0.0732,0.0732,0.08296,0.02928,-0.11712
0.10248,-0.0976,0.09272,0.04148,-0.00976,0.05612,0.04392,0.08296,0.08784,0.08784,0.03904,-0.11712
0.10736,-0.10492,0.10248,0.0488,-0.00488,0.05612,0.03904,0.09272,0.09272,0.09272,0.03904,-0.11224
0.11712,-0.11712,0.11712,0.05856,0,0.05856,0.03904,0.0976,0.09272,0.10248,0.0488,-0.0976
0.122,-0.12444,0.12688,0.06588,0.00488,0.05856,0.03416,0.10736,0.10248,0.11224,0.05368,-0.09272
0.13664,-0.1342,0.13176,0.06344,-0.00488,0.07076,0.02928,0.11224,0.10248,0.11712,0.06344,-0.08296
0.14152,-0.13908,0.13664,0.06588,-0.00488,0.0732,0.0244,0.11712,0.10248,0.122,0.0732,-0.07808
0.15128,-0.1464,0.14152,0.06588,-0.00976,0.08052,0.01952,0.122,0.10736,0.12688,0.0732,-0.05856
0.15616,-0.15128,0.1464,0.06832,-0.00976,0.08296,0.01464,0.122,0.11224,0.12688,0.0732,-0.05368
0.16104,-0.15616,0.15128,0.07076,-0.00976,0.0854,0.01464,0.12688,0.11224,0.12688,0.07808,-0.0488
0.16592,-0.1586,0.15128,0.06832,-0.01464,0.09028,0.01464,0.12688,0.11224,0.12688,0.07808,-0.0488
0.16592,-0.1586,0.15128,0.06832,-0.01464,0.09028,0.01464,0.12688,0.11712,0.13176,0.08296,-0.03904
0.16592,-0.1586,0.15128,0.06832,-0.01464,0.09028,0.00976,0.12688,0.11712,0.13176,0.08296,-0.03416
0.1708,-0.16592,0.16104,0.07564,-0.00976,0.09028,0.00976,0.13176,0.11712,0.13664,0.08784,-0.01952
0.1708,-0.16592,0.16104,0.07564,-0.00976,0.09028,0,0.13176,0.11712,0.13664,0.08784,-0.01464
0.16592,-0.16592,0.16592,0.08296,0,0.08296,-0.00488,0.13664,0.11224,0.13664,0.09272,-0.01464
0.16104,-0.16104,0.16104,0.08052,0,0.08052,-0.00488,0.13664,0.10736,0.13176,0.09272,-0.00976
0.15128,-0.15372,0.15616,0.08052,0.00488,0.0732,-0.00976,0.13176,0.10248,0.12688,0.08296,-0.01464
0.1464,-0.15128,0.15616,0.08296,0.00976,0.06832,-0.01464,0.122,0.0976,0.122,0.0732,-0.01952
0.1464,-0.15128,0.15616,0.08296,0.00976,0.06832,-0.01952,0.11712,0.09272,0.11712,0.06832,-0.01952
0.14152,-0.14884,0.15616,0.0854,0.01464,0.06344,-0.0244,0.10248,0.08296,0.11224,0.06344,-0.01952
0.13176,-0.13664,0.14152,0.07564,0.00976,0.061,-0.0244,0.0976,0.08296,0.10736,0.05856,-0.01464
0.122,-0.12932,0.13664,0.07564,0.01464,0.05368,-0.0244,0.09272,0.07808,0.09272,0.05368,-0.01464
0.11224,-0.11712,0.122,0.06588,0.00976,0.05124,-0.01952,0.08784,0.0732,0.08784,0.04392,-0.00488
0.0976,-0.10248,0.10736,0.05856,0.00976,0.04392,-0.01952,0.08296,0.06344,0.07808,0.03904,0
0.08296,-0.09028,0.0976,0.05612,0.01464,0.03416,-0.01952,0.06832,0.04392,0.06344,0.02928,-0.00488
0.06832,-0.0732,0.07808,0.04392,0.00976,0.02928,-0.01952,0.0488,0.0244,0.0488,0.0244,-0.00488
0.05368,-0.061,0.06832,0.04148,0.01464,0.01952,-0.0244,0.03416,0.01464,0.03416,0.00488,-0.00976
0.04392,-0.05124,0.05856,0.0366,0.01464,0.01464,-0.02928,0.01952,0,0.01952,0,-0.01952
0.0244,-0.03416,0.04392,0.03172,0.01952,0.00244,-0.03416,0.00976,-0.00976,0.00976,-0.00976,-0.0244
0.00976,-0.02196,0.03416,0.02928,0.0244,-0.00732,-0.03416,0,-0.01464,-0.00976,-0.01952,-0.0244
0.00488,-0.01464,0.0244,0.02196,0.01952,-0.00732,-0.03416,-0.01952,-0.03416,-0.01464,-0.02928,-0.0244
-0.00488,-0.00732,0.01952,0.02196,0.0244,-0.01464,-0.03416,-0.03904,-0.0488,-0.0244,-0.03904,-0.0244
-0.00976,0,0.00976,0.01464,0.01952,-0.01464,-0.03904,-0.0488,-0.06344,-0.03416,-0.04392,-0.02928
-0.01464,0.00244,0.00976,0.01708,0.0244,-0.01952,-0.04392,-0.0488,-0.0732,-0.04392,-0.05368,-0.02928
-0.01464,0.00488,0.00488,0.0122,0.01952,-0.01708,-0.0488,-0.05368,-0.08296,-0.0488,-0.06344,-0.02928
-0.01952,0.00976,0,0.00976,0.01952,-0.01952,-0.05368,-0.05856,-0.09272,-0.05856,-0.0732,-0.03904
-0.01952,0.0122,-0.00488,0.00488,0.01464,-0.01708,-0.05368,-0.06832,-0.0976,-0.06832,-0.07808,-0.03904
-0.0244,0.01464,-0.00488,0.00732,0.01952,-0.02196,-0.05368,-0.07808,-0.10248,-0.07808,-0.08296,-0.03904
-0.02928,0.01708,-0.00488,0.00976,0.0244,-0.02684,-0.05368,-0.07808,-0.11224,-0.08296,-0.08296,-0.02928
-0.02928,0.01708,-0.00488,0.00976,0.0244,-0.02684,-0.05368,-0.07808,-0.122,-0.0976,-0.08296,-0.01952
-0.02928,0.02196,-0.01464,0,0.01464,-0.02196,-0.05368,-0.07808,-0.122,-0.10248,-0.08784,-0.00976
-0.02928,0.02684,-0.0244,-0.00976,0.00488,-0.01708,-0.05368,-0.07808,-0.12688,-0.10248,-0.08784,0
-0.0244,0.0244,-0.0244,-0.0122,0,-0.0122,-0.05368,-0.08784,-0.13664,-0.11224,-0.09272,-0.00488
-0.01952,0.02196,-0.0244,-0.01464,-0.00488,-0.00732,-0.05856,-0.09272,-0.1464,-0.122,-0.09272,-0.00488
-0.01464,0.01708,-0.01952,-0.0122,-0.00488,-0.00488,-0.06344,-0.0976,-0.15616,-0.12688,-0.0976,-0.00488
-0.00976,0.0122,-0.01464,-0.00976,-0.00488,-0.00244,-0.06832,-0.10248,-0.16592,-0.13664,-0.10248,-0.00488
-0.00976,0.0122,-0.01464,-0.00976,-0.00488,-0.00244,-0.06832,-0.10248,-0.17568,-0.1464,-0.11224,-0.00488
-0.00976,0.0122,-0.01464,-0.00976,-0.00488,-0.00244,-0.0732,-0.10736,-0.18544,-0.15616,-0.122,-0.00976
-0.00976,0.0122,-0.01464,-0.00976,-0.00488,-0.00244,-0.0732,-0.11224,-0.19032,-0.16104,-0.12688,-0.00976
-0.00976,0.0122,-0.01464,-0.00976,-0.00488,-0.00244,-0.0732,-0.11712,-0.1952,-0.16592,-0.13176,-0.00976
-0.01464,0.01708,-0.01952,-0.0122,-0.00488,-0.00488,-0.06832,-0.11712,-0.20496,-0.17568,-0.13176,-0.00976
-0.01464,0.01952,-0.0244,-0.01708,-0.00976,-0.00244,-0.06832,-0.11712,-0.2196,-0.18056,-0.13176,-0.00976
-0.01464,0.01952,-0.0244,-0.01708,-0.00976,-0.00244,-0.0732,-0.12688,-0.22936,-0.19032,-0.1464,-0.00976
-0.01464,0.01952,-0.0244,-0.01708,-0.00976,-0.00244,-0.07808,-0.13664,-0.23912,-0.20008,-0.15616,-0.00976
-0.01464,0.01952,-0.0244,-0.01708,-0.00976,-0.00244,-0.07808,-0.14152,-0.244,-0.20984,-0.15616,-0.00976
-0.01464,0.01952,-0.0244,-0.01708,-0.00976,-0.00244,-0.08296,-0.1464,-0.24888,-0.21472,-0.16104,-0.00976
-0.00976,0.01708,-0.0244,-0.01952,-0.01464,0.00244,-0.08296,-0.1464,-0.25376,-0.2196,-0.16104,0
-0.00976,0.01708,-0.0244,-0.01952,-0.01464,0.00244,-0.08296,-0.1464,-0.25864,-0.22448,-0.16104,0.00976
-0.00976,0.01952,-0.02928,-0.0244,-0.01952,0.00488,-0.08296,-0.1464,-0.2684,-0.22936,-0.16104,0.01464
-0.00976,0.0244,-0.03904,-0.03416,-0.02928,0.00976,-0.08296,-0.15128,-0.27328,-0.22936,-0.16104,0.01464
-0.00488,0.02196,-0.03904,-0.0366,-0.03416,0.01464,-0.08296,-0.15616,-0.28304,-0.23912,-0.1708,0.01464
0,0.01952,-0.03904,-0.03904,-0.03904,0.01952,-0.08296,-0.16104,-0.2928,-0.24888,-0.18056,0.01464
0,0.01952,-0.03904,-0.03904,-0.03904,0.01952,-0.08296,-0.16592,-0.29768,-0.25376,-0.18544,0.00976
-0.00488,0.0244,-0.04392,-0.04148,-0.03904,0.01708,-0.08296,-0.1708,-0.30256,-0.25864,-0.19032,0.00488
-0.00488,0.02196,-0.03904,-0.0366,-0.03416,0.01464,-0.08296,-0.1708,-0.30256,-0.26352,-0.1952,0.00488
-0.00488,0.01952,-0.03416,-0.03172,-0.02928,0.0122,-0.08296,-0.1708,-0.30256,-0.26352,-0.1952,0
-0.00488,0.02196,-0.03904,-0.0366,-0.03416,0.01464,-0.08296,-0.1708,-0.31232,-0.2684,-0.1952,0.00488
-0.00488,0.0244,-0.04392,-0.04148,-0.03904,0.01708,-0.08296,-0.1708,-0.3172,-0.27816,-0.1952,0.00488
-0.00488,0.02928,-0.05368,-0.05124,-0.0488,0.02196,-0.08784,-0.17568,-0.32208,-0.27816,-0.1952,0.00488
-0.00488,0.03416,-0.06344,-0.061,-0.05856,0.02684,-0.08784,-0.17568,-0.32696,-0.27816,-0.1952,0.00488
-0.01464,0.03904,-0.06344,-0.05612,-0.0488,0.01708,-0.08784,-0.18056,-0.32696,-0.27816,-0.1952,0.00488
-0.01952,0.04148,-0.06344,-0.05368,-0.04392,0.0122,-0.08784,-0.18544,-0.32696,-0.27816,-0.1952,0.00488
-0.01952,0.04392,-0.06832,-0.05856,-0.0488,0.01464,-0.09272,-0.18544,-0.33184,-0.28304,-0.1952,-0.00488
-0.0244,0.0488,-0.0732,-0.061,-0.0488,0.0122,-0.09272,-0.18544,-0.33184,-0.28792,-0.1952,-0.01464
-0.0244,0.0488,-0.0732,-0.061,-0.0488,0.0122,-0.09272,-0.19032,-0.33184,-0.28792,-0.1952,-0.01464
-0.02928,0.05124,-0.0732,-0.05856,-0.04392,0.00732,-0.09272,-0.19032,-0.33184,-0.28792,-0.1952,-0.01952
-0.02928,0.05368,-0.07808,-0.06344,-0.0488,0.00976,-0.09272,-0.18544,-0.33184,-0.28304,-0.1952,-0.01464
-0.02928,0.05612,-0.08296,-0.06832,-0.05368,0.0122,-0.09272,-0.18056,-0.32696,-0.27816,-0.1952,-0.00976
-0.03416,0.05856,-0.08296,-0.06588,-0.0488,0.00732,-0.0976,-0.18056,-0.32696,-0.27816,-0.1952,-0.00976
-0.03904,0.06344,-0.08784,-0.06832,-0.0488,0.00488,-0.0976,-0.18056,-0.32208,-0.27816,-0.1952,-0.00976
-0.04392,0.06832,-0.09272,-0.07076,-0.0488,0.00244,-0.0976,-0.18056,-0.32208,-0.27328,-0.19032,-0.01464
-0.04392,0.07076,-0.0976,-0.07564,-0.05368,0.00488,-0.0976,-0.18056,-0.32208,-0.2684,-0.18544,-0.0244
-0.04392,0.07076,-0.0976,-0.07564,-0.05368,0.00488,-0.09272,-0.18056,-0.3172,-0.2684,-0.18544,-0.02928
-0.04392,0.07076,-0.0976,-0.07564,-0.05368,0.00488,-0.08784,-0.18056,-0.31232,-0.2684,-0.18544,-0.03416
-0.0488,0.0732,-0.0976,-0.0732,-0.0488,0,-0.08784,-0.18544,-0.31232,-0.2684,-0.18544,-0.03416
-0.05368,0.07808,-0.10248,-0.07564,-0.0488,-0.00244,-0.08784,-0.18544,-0.31232,-0.26352,-0.18544,-0.03904
-0.05368,0.07808,-0.10248,-0.07564,-0.0488,-0.00244,-0.08784,-0.18056,-0.30744,-0.25864,-0.18544,-0.04392
-0.05368,0.07808,-0.10248,-0.07564,-0.0488,-0.00244,-0.08784,-0.17568,-0.30256,-0.25864,-0.18544,-0.0488
-0.05856,0.08052,-0.10248,-0.0732,-0.04392,-0.00732,-0.08784,-0.17568,-0.30256,-0.25376,-0.18544,-0.06832
-0.06344,0.08296,-0.10248,-0.07076,-0.03904,-0.0122,-0.08784,-0.17568,-0.30256,-0.24888,-0.18544,-0.06832
-0.06344,0.08296,-0.10248,-0.07076,-0.03904,-0.0122,-0.08784,-0.1708,-0.2928,-0.244,-0.18056,-0.06832
-0.06344,0.08296,-0.10248,-0.07076,-0.03904,-0.0122,-0.08784,-0.16592,-0.28304,-0.23912,-0.17568,-0.06832
-0.06344,0.0854,-0.10736,-0.07564,-0.04392,-0.00976,-0.08296,-0.16592,-0.27816,-0.23424,-0.1708,-0.06832
-0.06344,0.08784,-0.11224,-0.08052,-0.0488,-0.00732,-0.07808,-0.16592,-0.27328,-0.22936,-0.16592,-0.06832
-0.06344,0.0854,-0.10736,-0.07564,-0.04392,-0.00976,-0.07808,-0.16104,-0.2684,-0.2196,-0.16104,-0.0732
-0.06344,0.0854,-0.10736,-0.07564,-0.04392,-0.00976,-0.07808,-0.15616,-0.26352,-0.20984,-0.15616,-0.0732
-0.06832,0.0854,-0.10248,-0.06832,-0.03416,-0.01708,-0.0732,-0.15616,-0.25864,-0.20984,-0.15616,-0.07808
-0.0732,0.08784,-0.10248,-0.06588,-0.02928,-0.02196,-0.06832,-0.15128,-0.25376,-0.20984,-0.15616,-0.08296
-0.0732,0.08784,-0.10248,-0.06588,-0.02928,-0.02196,-0.06832,-0.1464,-0.24888,-0.20496,-0.15128,-0.08296
-0.0732,0.09028,-0.10736,-0.07076,-0.03416,-0.01952,-0.06832,-0.14152,-0.244,-0.20496,-0.1464,-0.08784
-0.0732,0.09028,-0.10736,-0.07076,-0.03416,-0.01952,-0.06344,-0.13664,-0.244,-0.1952,-0.14152,-0.08784
-0.07808,0.09272,-0.10736,-0.06832,-0.02928,-0.0244,-0.05856,-0.13664,-0.244,-0.18544,-0.13664,-0.08784
-0.07808,0.09272,-0.10736,-0.06832,-0.02928,-0.0244,-0.05856,-0.13664,-0.23424,-0.18056,-0.13176,-0.09272
-0.07808,0.09272,-0.10736,-0.06832,-0.02928,-0.0244,-0.05856,-0.13664,-0.22448,-0.17568,-0.12688,-0.0976
-0.07808,0.09272,-0.10736,-0.06832,-0.02928,-0.0244,-0.05368,-0.13176,-0.21472,-0.1708,-0.122,-0.0976
-0.07808,0.09272,-0.10736,-0.06832,-0.02928,-0.0244,-0.0488,-0.12688,-0.20984,-0.16104,-0.11712,-0.0976
-0.07808,0.09272,-0.10736,-0.06832,-0.02928,-0.0244,-0.0488,-0.122,-0.20496,-0.15616,-0.11712,-0.0976
-0.08296,0.09516,-0.10736,-0.06588,-0.0244,-0.02928,-0.04392,-0.11712,-0.20496,-0.15128,-0.11712,-0.0976
-0.08296,0.09516,-0.10736,-0.06588,-0.0244,-0.02928,-0.04392,-0.11712,-0.1952,-0.1464,-0.11224,-0.10736
-0.07808,0.09272,-0.10736,-0.06832,-0.02928,-0.0244,-0.04392,-0.11712,-0.18544,-0.14152,-0.10736,-0.11712
-0.07808,0.09272,-0.10736,-0.06832,-0.02928,-0.0244,-0.04392,-0.11224,-0.18544,-0.13664,-0.10736,-0.122
-0.07808,0.09272,-0.10736,-0.06832,-0.02928,-0.0244,-0.04392,-0.10736,-0.18056,-0.13176,-0.10736,-0.12688
-0.07808,0.09272,-0.10736,-0.06832,-0.02928,-0.0244,-0.04392,-0.10736,-0.18056,-0.13176,-0.10248,-0.13176
-0.07808,0.09028,-0.10248,-0.06344,-0.0244,-0.02684,-0.03416,-0.10248,-0.1708,-0.122,-0.0976,-0.13664
-0.06832,0.0732,-0.07808,-0.04392,-0.00976,-0.02928,-0.0244,-0.09272,-0.15128,-0.10736,-0.08784,-0.12688
-0.06344,0.061,-0.05856,-0.02684,0.00488,-0.03416,-0.00488,-0.08296,-0.13176,-0.08784,-0.07808,-0.122
-0.05856,0.05368,-0.0488,-0.01952,0.00976,-0.03416,0,-0.07808,-0.11712,-0.08296,-0.0732,-0.11712
-0.05856,0.0488,-0.03904,-0.00976,0.01952,-0.03904,0.00976,-0.06832,-0.11224,-0.0732,-0.06832,-0.11712
-0.04392,0.03172,-0.01952,0.00244,0.0244,-0.03416,0.00976,-0.06344,-0.10736,-0.06832,-0.05856,-0.11224
-0.04392,0.0244,-0.00488,0.01708,0.03904,-0.04148,0.00976,-0.05856,-0.0976,-0.05856,-0.05368,-0.11224
-0.03904,0.0122,0.01464,0.03416,0.05368,-0.04636,0.00976,-0.0488,-0.09272,-0.05368,-0.03904,-0.10248
-0.0244,-0.00244,0.02928,0.04148,0.05368,-0.03904,0,-0.04392,-0.08784,-0.0488,-0.02928,-0.0976
-0.0244,-0.00488,0.03416,0.04636,0.05856,-0.04148,-0.00488,-0.03904,-0.0732,-0.03416,-0.01952,-0.08296
-0.01464,-0.01708,0.0488,0.05612,0.06344,-0.03904,-0.00976,-0.03416,-0.06344,-0.0244,-0.01464,-0.06344
0.00488,-0.02928,0.05368,0.05124,0.0488,-0.02196,-0.01952,-0.03416,-0.0732,-0.0244,-0.00976,-0.06344
0.00976,-0.02684,0.04392,0.03904,0.03416,-0.0122,-0.03904,-0.03416,-0.08296,-0.03416,-0.00488,-0.06344
0.00976,-0.02196,0.03416,0.02928,0.0244,-0.00732,-0.05368,-0.0488,-0.10248,-0.0488,-0.01464,-0.05856
0.00488,0,-0.00488,-0.00732,-0.00976,0.00732,-0.0732,-0.05856,-0.11712,-0.05856,-0.02928,-0.06832
0,0.0122,-0.0244,-0.0244,-0.0244,0.0122,-0.07808,-0.0732,-0.13664,-0.0732,-0.04392,-0.06832
-0.01464,0.02684,-0.03904,-0.03172,-0.0244,0.00488,-0.08296,-0.07808,-0.1464,-0.08296,-0.0488,-0.07808
-0.01464,0.02928,-0.04392,-0.0366,-0.02928,0.00732,-0.08296,-0.08296,-0.1464,-0.08296,-0.0488,-0.07808
-0.01952,0.03172,-0.04392,-0.03416,-0.0244,0.00244,-0.08296,-0.08296,-0.15128,-0.08296,-0.0488,-0.07808
-0.0244,0.0366,-0.0488,-0.0366,-0.0244,0,-0.08296,-0.07808,-0.15128,-0.08296,-0.0488,-0.07808
-0.03416,0.0488,-0.06344,-0.04636,-0.02928,-0.00244,-0.0732,-0.07808,-0.15128,-0.09272,-0.05856,-0.0976
-0.05856,0.0732,-0.08784,-0.05856,-0.02928,-0.01464,-0.06832,-0.0732,-0.15128,-0.09272,-0.06344,-0.10248
-0.06832,0.08784,-0.10736,-0.0732,-0.03904,-0.01464,-0.06344,-0.07808,-0.15616,-0.0976,-0.06832,-0.10736
-0.07808,0.09516,-0.11224,-0.0732,-0.03416,-0.02196,-0.05856,-0.08296,-0.15616,-0.10736,-0.0732,-0.10736
-0.09272,0.10736,-0.122,-0.07564,-0.02928,-0.03172,-0.05856,-0.08784,-0.15616,-0.11224,-0.0732,-0.11224
-0.09272,0.10736,-0.122,-0.07564,-0.02928,-0.03172,-0.05856,-0.08784,-0.16104,-0.11224,-0.07808,-0.11712
-0.0976,0.11224,-0.12688,-0.07808,-0.02928,-0.03416,-0.05856,-0.08784,-0.16104,-0.11712,-0.07808,-0.11712
-0.0976,0.11224,-0.12688,-0.07808,-0.02928,-0.03416,-0.05856,-0.08784,-0.16104,-0.11712,-0.07808,-0.11712
-0.10248,0.11468,-0.12688,-0.07564,-0.0244,-0.03904,-0.05856,-0.08784,-0.16104,-0.11712,-0.07808,-0.11712
-0.10248,0.11712,-0.13176,-0.08052,-0.02928,-0.0366,-0.05856,-0.08784,-0.16104,-0.11224,-0.07808,-0.11712
-0.10248,0.11956,-0.13664,-0.0854,-0.03416,-0.03416,-0.05856,-0.08784,-0.16104,-0.10736,-0.07808,-0.11712
-0.10248,0.11956,-0.13664,-0.0854,-0.03416,-0.03416,-0.05856,-0.08784,-0.15616,-0.10736,-0.07808,-0.11712
-0.10248,0.11956,-0.13664,-0.0854,-0.03416,-0.03416,-0.05368,-0.08296,-0.15128,-0.10736,-0.07808,-0.122
-0.0976,0.11712,-0.13664,-0.08784,-0.03904,-0.02928,-0.05368,-0.08296,-0.1464,-0.10736,-0.07808,-0.122
-0.0976,0.11712,-0.13664,-0.08784,-0.03904,-0.02928,-0.05368,-0.08296,-0.1464,-0.11224,-0.07808,-0.122
-0.10736,0.122,-0.13664,-0.08296,-0.02928,-0.03904,-0.0488,-0.08296,-0.15128,-0.11224,-0.07808,-0.122
-0.12688,0.13664,-0.1464,-0.08296,-0.01952,-0.05368,-0.02928,-0.09272,-0.14152,-0.11224,-0.08784,-0.13664
-0.15128,0.15616,-0.16104,-0.0854,-0.00976,-0.07076,0,-0.05856,-0.10736,-0.08784,-0.08296,-0.14152
-0.11712,0.12932,-0.14152,-0.08296,-0.0244,-0.04636,-0.00488,0.00976,-0.0732,-0.03904,-0.05856,-0.13176
-0.01464,0.04392,-0.0732,-0.06588,-0.05856,0.02196,-0.06832,0.08784,-0.00976,0.01464,0.00488,-0.08296
0.22936,-0.17324,0.11712,0.00244,-0.11224,0.1708,-0.2928,0.20984,0.04392,0.11224,0.11224,0.02928
0.76128,-0.61732,0.47336,0.09272,-0.28792,0.5246,-0.67832,0.4636,0.15616,0.30256,0.30744,0.22448
1.13704,-0.95404,0.77104,0.20252,-0.366,0.75152,-0.976,0.61488,0.244,0.44408,0.45872,0.37576
1.41032,-1.18584,0.96136,0.2562,-0.44896,0.92964,-1.21512,0.62464,0.23912,0.54168,0.54168,0.47336
1.46888,-1.26148,1.05408,0.31964,-0.4148,0.94184,-1.35176,0.50752,0.16104,0.50752,0.55632,0.50752
1.20536,-1.04188,0.8784,0.27572,-0.32696,0.76616,-1.33712,0.18544,-0.06344,0.31232,0.5124,0.49776
0.7076,-0.66368,0.61976,0.26596,-0.08784,0.39772,-1.21512,-0.20984,-0.28304,0.11224,0.40504,0.47336
0.12688,-0.28304,0.4392,0.37576,0.31232,-0.09272,-0.96136,-0.54168,-0.31232,0.03904,0.3416,0.41968
-0.0976,-0.11224,0.32208,0.37088,0.41968,-0.25864,-0.74664,-0.56608,-0.33672,-0.00976,0.27816,0.33184
-0.0976,-0.06344,0.22448,0.27328,0.32208,-0.20984,-0.57096,-0.44408,-0.29768,-0.01952,0.2196,0.22448
-0.13664,0.01708,0.10248,0.1708,0.23912,-0.18788,-0.41968,-0.36112,-0.2684,-0.05368,0.13176,0.11712
-0.1464,0.05612,0.03416,0.10736,0.18056,-0.16348,-0.25376,-0.23424,-0.20008,-0.06344,0.0488,0.0244
-0.13176,0.06344,0.00488,0.07076,0.13664,-0.1342,-0.15616,-0.15128,-0.16104,-0.06344,0.01952,-0.02928
-0.122,0.07564,-0.02928,0.03172,0.09272,-0.10736,-0.12688,-0.13664,-0.14152,-0.06344,0.01952,-0.03416
-0.10736,0.0976,-0.08784,-0.03416,0.01952,-0.06344,-0.08784,-0.11712,-0.11712,-0.06344,-0.00488,-0.08296
-0.10736,0.11224,-0.11712,-0.06344,-0.00976,-0.0488,-0.02928,-0.07808,-0.11712,-0.06832,-0.03904,-0.122
-0.10736,0.11224,-0.11712,-0.06344,-0.00976,-0.0488,-0.01952,-0.05856,-0.11712,-0.06832,-0.0488,-0.13664
-0.10736,0.11224,-0.11712,-0.06344,-0.00976,-0.0488,-0.01952,-0.05856,-0.11712,-0.0732,-0.0488,-0.14152
-0.10736,0.11712,-0.12688,-0.0732,-0.01952,-0.04392,-0.01952,-0.05368,-0.11224,-0.07808,-0.0488,-0.1464
-0.11224,0.12688,-0.14152,-0.0854,-0.02928,-0.04148,-0.00488,-0.05368,-0.10736,-0.0732,-0.0488,-0.15128
-0.11224,0.12932,-0.1464,-0.09028,-0.03416,-0.03904,-0.00488,-0.05368,-0.10248,-0.06832,-0.04392,-0.15616
-0.11224,0.12688,-0.14152,-0.0854,-0.02928,-0.04148,0,-0.05368,-0.10248,-0.06832,-0.0488,-0.15616
-0.11224,0.12688,-0.14152,-0.0854,-0.02928,-0.04148,0,-0.04392,-0.10248,-0.06832,-0.0488,-0.15616
-0.10736,0.12444,-0.14152,-0.08784,-0.03416,-0.0366,0,-0.04392,-0.10248,-0.06344,-0.04392,-0.15128
-0.10248,0.122,-0.14152,-0.09028,-0.03904,-0.03172,0,-0.04392,-0.0976,-0.05856,-0.04392,-0.15128
-0.0976,0.11956,-0.14152,-0.09272,-0.04392,-0.02684,0,-0.03904,-0.0976,-0.05856,-0.04392,-0.15128
-0.0976,0.11712,-0.13664,-0.08784,-0.03904,-0.02928,0,-0.03904,-0.09272,-0.05368,-0.04392,-0.15128
-0.0976,0.11468,-0.13176,-0.08296,-0.03416,-0.03172,0,-0.03416,-0.08784,-0.05368,-0.03904,-0.15128
-0.09272,0.11224,-0.13176,-0.0854,-0.03904,-0.02684,0.00488,-0.03416,-0.08296,-0.05368,-0.03416,-0.1464
-0.09272,0.11224,-0.13176,-0.0854,-0.03904,-0.02684,0.00488,-0.03416,-0.08296,-0.05368,-0.03416,-0.1464
-0.09272,0.1098,-0.12688,-0.08052,-0.03416,-0.02928,0.00488,-0.02928,-0.08296,-0.05368,-0.03416,-0.14152
-0.09272,0.1098,-0.12688,-0.08052,-0.03416,-0.02928,0.00488,-0.02928,-0.08296,-0.05368,-0.03416,-0.14152
-0.09272,0.1098,-0.12688,-0.08052,-0.03416,-0.02928,0.00488,-0.02928,-0.08296,-0.05368,-0.03416,-0.14152
-0.08784,0.10736,-0.12688,-0.08296,-0.03904,-0.0244,0.00488,-0.03416,-0.08296,-0.05368,-0.03416,-0.14152
-0.08296,0.10004,-0.11712,-0.07564,-0.03416,-0.0244,0.00488,-0.03416,-0.08296,-0.05368,-0.02928,-0.14152
-0.07808,0.09516,-0.11224,-0.0732,-0.03416,-0.02196,0.00488,-0.02928,-0.07808,-0.05368,-0.02928,-0.14152
-0.07808,0.09516,-0.11224,-0.0732,-0.03416,-0.02196,0.00488,-0.02928,-0.07808,-0.05368,-0.02928,-0.14152
-0.0732,0.09028,-0.10736,-0.07076,-0.03416,-0.01952,0.00488,-0.02928,-0.07808,-0.0488,-0.02928,-0.14152
-0.07808,0.09272,-0.10736,-0.06832,-0.02928,-0.0244,0.00488,-0.01952,-0.0732,-0.0488,-0.0244,-0.14152
-0.06832,0.08296,-0.0976,-0.06344,-0.02928,-0.01952,0.00488,-0.01464,-0.06832,-0.04392,-0.0244,-0.14152
-0.06832,0.08052,-0.09272,-0.05856,-0.0244,-0.02196,0.00488,-0.01464,-0.06832,-0.03904,-0.01952,-0.14152
-0.06832,0.07808,-0.08784,-0.05368,-0.01952,-0.0244,0.00488,-0.00976,-0.06344,-0.03416,-0.01952,-0.14152
-0.05856,0.0732,-0.08784,-0.05856,-0.02928,-0.01464,0.00488,-0.00488,-0.06344,-0.03416,-0.01952,-0.14152
-0.05368,0.07076,-0.08784,-0.061,-0.03416,-0.00976,0.00488,0,-0.05368,-0.02928,-0.00976,-0.14152
-0.0488,0.06344,-0.07808,-0.05368,-0.02928,-0.00976,0.00488,0.00488,-0.0488,-0.02928,-0.00976,-0.14152
-0.04392,0.05856,-0.0732,-0.05124,-0.02928,-0.00732,0.00488,0.00976,-0.04392,-0.0244,-0.00488,-0.13664
-0.03904,0.05368,-0.06832,-0.0488,-0.02928,-0.00488,0.00488,0.01464,-0.04392,-0.01952,-0.00488,-0.13664
-0.02928,0.04636,-0.06344,-0.0488,-0.03416,0.00244,0.00976,0.0244,-0.02928,-0.01464,-0.00488,-0.12688
-0.01952,0.03904,-0.05856,-0.0488,-0.03904,0.00976,0.01464,0.03416,-0.0244,-0.00488,0,-0.122
-0.00488,0.02928,-0.05368,-0.05124,-0.0488,0.02196,0.01464,0.04392,-0.01464,0,0.00488,-0.11224
-0.00488,0.02684,-0.0488,-0.04636,-0.04392,0.01952,0.00976,0.0488,-0.00976,0.00488,0.00488,-0.11224
0.00976,0.0122,-0.03416,-0.03904,-0.04392,0.02684,0.00976,0.05368,-0.00488,0.00488,0.00976,-0.10248
0.01464,0.00732,-0.02928,-0.0366,-0.04392,0.02928,0.00976,0.05856,-0.00488,0.00488,0.00976,-0.10248
0.02928,-0.00488,-0.01952,-0.03416,-0.0488,0.03904,0.00976,0.06832,0.00488,0.00976,0.01952,-0.0976
0.03904,-0.01464,-0.00976,-0.02928,-0.0488,0.04392,0.00976,0.0732,0.00488,0.01464,0.01952,-0.0976
0.0488,-0.0244,0,-0.0244,-0.0488,0.0488,0.00488,0.07808,0.01952,0.0244,0.02928,-0.09272
0.05856,-0.03172,0.00488,-0.0244,-0.05368,0.05612,0,0.08296,0.0244,0.03416,0.02928,-0.08296
0.06832,-0.04392,0.01952,-0.01464,-0.0488,0.05856,0,0.08784,0.0244,0.03904,0.03904,-0.0732
0.0732,-0.05124,0.02928,-0.00732,-0.04392,0.05856,-0.00488,0.0976,0.03416,0.04392,0.04392,-0.0732
0.08296,-0.061,0.03904,-0.00244,-0.04392,0.06344,-0.00976,0.10248,0.03416,0.05368,0.0488,-0.06832
0.08296,-0.06588,0.0488,0.00732,-0.03416,0.05856,-0.01464,0.10736,0.03416,0.06344,0.05368,-0.06832
0.0976,-0.07808,0.05856,0.00976,-0.03904,0.06832,-0.01952,0.11224,0.03904,0.0732,0.05856,-0.05368
0.10736,-0.08784,0.06832,0.01464,-0.03904,0.0732,-0.0244,0.11224,0.04392,0.07808,0.06344,-0.05368
0.11224,-0.09272,0.0732,0.01708,-0.03904,0.07564,-0.0244,0.122,0.0488,0.07808,0.0732,-0.04392
0.11712,-0.09516,0.0732,0.01464,-0.04392,0.08052,-0.0244,0.12688,0.05368,0.07808,0.07808,-0.03904
0.122,-0.0976,0.0732,0.0122,-0.0488,0.0854,-0.0244,0.12688,0.05856,0.08296,0.08296,-0.03416
0.12688,-0.10004,0.0732,0.00976,-0.05368,0.09028,-0.02928,0.12688,0.05856,0.08296,0.08296,-0.03416
0.13664,-0.1098,0.08296,0.01464,-0.05368,0.09516,-0.0244,0.13176,0.06344,0.09272,0.08784,-0.01952
0.14152,-0.11224,0.08296,0.0122,-0.05856,0.10004,-0.02928,0.13176,0.06832,0.0976,0.08784,-0.01464
0.14152,-0.11712,0.09272,0.02196,-0.0488,0.09516,-0.03416,0.13664,0.06832,0.10248,0.09272,-0.01464
0.14152,-0.11712,0.09272,0.02196,-0.0488,0.09516,-0.03416,0.13664,0.06832,0.10248,0.09272,-0.00976
0.13664,-0.11468,0.09272,0.0244,-0.04392,0.09028,-0.03904,0.13664,0.06832,0.0976,0.09272,-0.00488
0.13664,-0.11712,0.0976,0.02928,-0.03904,0.08784,-0.04392,0.13176,0.06832,0.09272,0.09272,0
0.14152,-0.11956,0.0976,0.02684,-0.04392,0.09272,-0.04392,0.13176,0.06832,0.09272,0.0976,0
0.14152,-0.11956,0.0976,0.02684,-0.04392,0.09272,-0.04392,0.122,0.06344,0.09272,0.10248,0
0.13664,-0.11224,0.08784,0.01952,-0.0488,0.09272,-0.04392,0.11712,0.05856,0.09272,0.0976,0
0.13176,-0.1098,0.08784,0.02196,-0.04392,0.08784,-0.04392,0.11224,0.0488,0.08296,0.09272,-0.00488
0.122,-0.10248,0.08296,0.02196,-0.03904,0.08052,-0.03904,0.10736,0.0488,0.08296,0.08296,-0.00488
0.10736,-0.09272,0.07808,0.0244,-0.02928,0.06832,-0.03904,0.10248,0.04392,0.07808,0.07808,-0.00976
0.0976,-0.0854,0.0732,0.0244,-0.0244,0.061,-0.03904,0.09272,0.03904,0.0732,0.0732,-0.01464
0.08784,-0.0732,0.05856,0.01464,-0.02928,0.05856,-0.03904,0.07808,0.03416,0.06832,0.0732,-0.01464
0.0732,-0.061,0.0488,0.0122,-0.0244,0.0488,-0.03904,0.06832,0.03416,0.05856,0.05856,-0.01952
0.06344,-0.05124,0.03904,0.00732,-0.0244,0.04392,-0.03904,0.05856,0.02928,0.0488,0.05856,-0.02928
0.0488,-0.0366,0.0244,0,-0.0244,0.0366,-0.03904,0.0488,0.01952,0.0488,0.05368,-0.02928
0.03904,-0.02684,0.01464,-0.00488,-0.0244,0.03172,-0.03416,0.03904,0.01464,0.03904,0.0488,-0.0244
0.03416,-0.01952,0.00488,-0.0122,-0.02928,0.03172,-0.03416,0.03416,0.00976,0.03904,0.04392,-0.02928
0.0244,-0.0122,0,-0.0122,-0.0244,0.0244,-0.03416,0.02928,0.00976,0.03416,0.03904,-0.03416
0.01464,-0.00244,-0.00976,-0.01708,-0.0244,0.01952,-0.03416,0.01952,0,0.02928,0.03904,-0.03904
0.00488,0.00244,-0.00976,-0.0122,-0.01464,0.00976,-0.03416,0.01952,-0.00488,0.0244,0.03416,-0.03904
0.00488,0.00244,-0.00976,-0.0122,-0.01464,0.00976,-0.03416,0.01464,-0.00976,0.0244,0.03416,-0.03904
0,0.00488,-0.00976,-0.00976,-0.00976,0.00488,-0.03416,0.00976,-0.01464,0.01952,0.03416,-0.0488
0,0.00732,-0.01464,-0.01464,-0.01464,0.00732,-0.03416,0.00488,-0.01464,0.01952,0.03416,-0.0488
-0.00488,0.00976,-0.01464,-0.0122,-0.00976,0.00244,-0.03416,0,-0.01464,0.01952,0.03416,-0.0488
-0.00976,0.0122,-0.01464,-0.00976,-0.00488,-0.00244,-0.03416,0,-0.01464,0.01952,0.03416,-0.0488
-0.00976,0.0122,-0.01464,-0.00976,-0.00488,-0.00244,-0.03416,0,-0.01464,0.00976,0.03416,-0.0488
-0.00488,0.00976,-0.01464,-0.0122,-0.00976,0.00244,-0.03904,0,-0.01464,0.00976,0.03416,-0.0488
0,0.00732,-0.01464,-0.01464,-0.01464,0.00732,-0.04392,0,-0.01952,0.01464,0.03904,-0.0488
0,0.00488,-0.00976,-0.00976,-0.00976,0.00488,-0.03904,-0.00488,-0.01464,0.01464,0.03416,-0.05368
0,0.00244,-0.00488,-0.00488,-0.00488,0.00244,-0.03904,-0.00488,-0.00976,0.01464,0.03416,-0.05368
0,0.00244,-0.00488,-0.00488,-0.00488,0.00244,-0.03904,-0.00488,-0.00976,0.01464,0.03416,-0.0488
0,0.00244,-0.00488,-0.00488,-0.00488,0.00244,-0.03904,-0.00488,-0.00976,0.00976,0.03416,-0.04392
0,0.00244,-0.00488,-0.00488,-0.00488,0.00244,-0.03416,0,-0.00976,0.00976,0.02928,-0.04392
0,0.00244,-0.00488,-0.00488,-0.00488,0.00244,-0.03416,0,-0.00976,0.00976,0.0244,-0.0488
0,0.00244,-0.00488,-0.00488,-0.00488,0.00244,-0.03416,0,-0.00976,0.00976,0.0244,-0.0488
0,0.00244,-0.00488,-0.00488,-0.00488,0.00244,-0.03416,0,-0.00976,0.00976,0.0244,-0.0488
-0.00488,0.00488,-0.00488,-0.00244,0,-0.00244,-0.02928,-0.00488,-0.00976,0.00488,0.0244,-0.0488
-0.00488,0.00488,-0.00488,-0.00244,0,-0.00244,-0.02928,-0.00976,-0.01464,0.00488,0.0244,-0.0488
-0.00488,0.00732,-0.00976,-0.00732,-0.00488,0,-0.02928,-0.00976,-0.00976,0.00488,0.01464,-0.0488
-0.00488,0.00976,-0.01464,-0.0122,-0.00976,0.00244,-0.02928,-0.00976,-0.00488,0.00488,0.00976,-0.0488
-0.00488,0.00976,-0.01464,-0.0122,-0.00976,0.00244,-0.01952,-0.00976,-0.00488,0.00488,0.01464,-0.0488
-0.00488,0.00976,-0.01464,-0.0122,-0.00976,0.00244,-0.01464,-0.00976,-0.00488,0.00976,0.01464,-0.0488
-0.00488,0.0122,-0.01952,-0.01708,-0.01464,0.00488,-0.01464,-0.00976,-0.00488,0.00976,0.01464,-0.0488
-0.00976,0.01708,-0.0244,-0.01952,-0.01464,0.00244,-0.01464,-0.00976,-0.00488,0.00976,0.01464,-0.0488
-0.01464,0.01952,-0.0244,-0.01708,-0.00976,-0.00244,-0.01464,-0.00488,-0.00488,0,0.00976,-0.04392
-0.01952,0.0244,-0.02928,-0.01952,-0.00976,-0.00488,-0.01464,-0.00488,0,-0.00488,0.00488,-0.04392
-0.01952,0.0244,-0.02928,-0.01952,-0.00976,-0.00488,-0.00976,-0.00488,0,-0.00488,0.00488,-0.03904
-0.01952,0.0244,-0.02928,-0.01952,-0.00976,-0.00488,-0.00488,-0.00488,0,-0.00488,0.00488,-0.03416
-0.01952,0.0244,-0.02928,-0.01952,-0.00976,-0.00488,-0.00488,-0.00976,0,0,0.00488,-0.03416
-0.0244,0.02928,-0.03416,-0.02196,-0.00976,-0.00732,-0.00488,-0.01464,0,0.00488,0.00488,-0.03416
-0.0244,0.02928,-0.03416,-0.02196,-0.00976,-0.00732,-0.00488,-0.01464,0,0,0,-0.02928
-0.0244,0.02928,-0.03416,-0.02196,-0.00976,-0.00732,-0.00488,-0.01464,0,0,0,-0.02928
-0.0244,0.03172,-0.03904,-0.02684,-0.01464,-0.00488,-0.00488,-0.01464,-0.00976,0,0,-0.0244
-0.0244,0.03416,-0.04392,-0.03172,-0.01952,-0.00244,-0.00488,-0.01464,-0.01464,-0.00488,0,-0.0244
-0.0244,0.03416,-0.04392,-0.03172,-0.01952,-0.00244,-0.00976,-0.01952,-0.01464,-0.00488,0,-0.0244
-0.0244,0.03416,-0.04392,-0.03172,-0.01952,-0.00244,-0.00976,-0.01952,-0.01464,-0.00488,0,-0.0244
-0.02928,0.0366,-0.04392,-0.02928,-0.01464,-0.00732,-0.00976,-0.01952,-0.01464,-0.00488,-0.00488,-0.0244
-0.02928,0.0366,-0.04392,-0.02928,-0.01464,-0.00732,-0.00976,-0.01952,-0.01464,-0.00488,-0.00976,-0.0244
-0.0244,0.03416,-0.04392,-0.03172,-0.01952,-0.00244,-0.01464,-0.01952,-0.01952,-0.00488,-0.00976,-0.0244
-0.0244,0.03416,-0.04392,-0.03172,-0.01952,-0.00244,-0.01464,-0.01952,-0.01952,-0.00488,-0.00976,-0.0244
-0.0244,0.03416,-0.04392,-0.03172,-0.01952,-0.00244,-0.01464,-0.0244,-0.01952,-0.00976,-0.00976,-0.01952
-0.02928,0.0366,-0.04392,-0.02928,-0.01464,-0.00732,-0.01464,-0.0244,-0.01952,-0.01464,-0.00976,-0.01952
-0.02928,0.0366,-0.04392,-0.02928,-0.01464,-0.00732,-0.01952,-0.0244,-0.0244,-0.01464,-0.00976,-0.01952
-0.02928,0.0366,-0.04392,-0.02928,-0.01464,-0.00732,-0.0244,-0.0244,-0.0244,-0.01464,-0.00976,-0.01952
-0.02928,0.0366,-0.04392,-0.02928,-0.01464,-0.00732,-0.0244,-0.0244,-0.02928,-0.01464,-0.00976,-0.01952
-0.02928,0.03904,-0.0488,-0.03416,-0.01952,-0.00488,-0.01952,-0.0244,-0.02928,-0.01464,-0.00976,-0.01952
-0.02928,0.03904,-0.0488,-0.03416,-0.01952,-0.00488,-0.01952,-0.0244,-0.02928,-0.01464,-0.00976,-0.00976
-0.0244,0.0366,-0.0488,-0.0366,-0.0244,0,-0.01952,-0.0244,-0.02928,-0.01464,-0.00976,-0.00488
-0.0244,0.0366,-0.0488,-0.0366,-0.0244,0,-0.01952,-0.0244,-0.02928,-0.01464,-0.00976,-0.00488
-0.0244,0.0366,-0.0488,-0.0366,-0.0244,0,-0.01952,-0.0244,-0.02928,-0.01464,-0.00976,-0.00488
-0.0244,0.03416,-0.04392,-0.03172,-0.01952,-0.00244,-0.01952,-0.02928,-0.02928,-0.01952,-0.00976,0
-0.0244,0.03416,-0.04392,-0.03172,-0.01952,-0.00244,-0.01952,-0.02928,-0.02928,-0.01952,-0.00976,0
-0.0244,0.03416,-0.04392,-0.03172,-0.01952,-0.00244,-0.01952,-0.02928,-0.02928,-0.01464,-0.00976,0
-0.0244,0.03416,-0.04392,-0.03172,-0.01952,-0.00244,-0.01952,-0.02928,-0.02928,-0.01464,-0.00976,0
-0.0244,0.03416,-0.04392,-0.03172,-0.01952,-0.00244,-0.01952,-0.02928,-0.02928,-0.01464,-0.00976,-0.00976
-0.0244,0.03416,-0.04392,-0.03172,-0.01952,-0.00244,-0.01952,-0.02928,-0.02928,-0.01464,-0.00976,0
-0.0244,0.03416,-0.04392,-0.03172,-0.01952,-0.00244,-0.01952,-0.02928,-0.02928,-0.01464,-0.00976,0
-0.0244,0.03416,-0.04392,-0.03172,-0.01952,-0.00244,-0.01952,-0.02928,-0.02928,-0.01464,-0.00976,0
-0.0244,0.03416,-0.04392,-0.03172,-0.01952,-0.00244,-0.01952,-0.02928,-0.02928,-0.01464,-0.00976,0
-0.0244,0.03416,-0.04392,-0.03172,-0.01952,-0.00244,-0.01952,-0.02928,-0.02928,-0.01464,-0.00976,0
-0.0244,0.03172,-0.03904,-0.02684,-0.01464,-0.00488,-0.01952,-0.02928,-0.02928,-0.01464,-0.00976,0
-0.0244,0.03172,-0.03904,-0.02684,-0.01464,-0.00488,-0.01952,-0.02928,-0.02928,-0.01464,-0.00976,0.00488
-0.0244,0.03172,-0.03904,-0.02684,-0.01464,-0.00488,-0.01952,-0.02928,-0.02928,-0.01464,-0.00976,0.00488
-0.0244,0.03172,-0.03904,-0.02684,-0.01464,-0.00488,-0.01952,-0.02928,-0.02928,-0.01464,-0.00976,0.00488
-0.0244,0.03416,-0.04392,-0.03172,-0.01952,-0.00244,-0.01952,-0.0244,-0.02928,-0.01464,-0.00976,0.00976
-0.0244,0.03416,-0.04392,-0.03172,-0.01952,-0.00244,-0.01952,-0.0244,-0.0244,-0.01464,-0.00976,0.01464
-0.0244,0.03416,-0.04392,-0.03172,-0.01952,-0.00244,-0.01952,-0.0244,-0.0244,-0.01464,-0.00976,0.01464
-0.0244,0.03416,-0.04392,-0.03172,-0.01952,-0.00244,-0.01952,-0.0244,-0.0244,-0.01464,-0.00976,0.01464
-0.01952,0.02928,-0.03904,-0.02928,-0.01952,0,-0.01952,-0.01952,-0.0244,-0.01464,-0.00976,0.00976
-0.01464,0.0244,-0.03416,-0.02684,-0.01952,0.00244,-0.01952,-0.01464,-0.02928,-0.01952,-0.00976,0.00976
-0.00976,0.02196,-0.03416,-0.02928,-0.0244,0.00732,-0.01952,-0.01464,-0.02928,-0.01464,-0.00976,0.00976
-0.00976,0.0244,-0.03904,-0.03416,-0.02928,0.00976,-0.01952,-0.01952,-0.02928,-0.00976,-0.00976,0.00976
-0.00976,0.02196,-0.03416,-0.02928,-0.0244,0.00732,-0.01952,-0.01952,-0.02928,-0.00976,-0.00976,0.00976
-0.00976,0.01952,-0.02928,-0.0244,-0.01952,0.00488,-0.01952,-0.01952,-0.02928,-0.00976,-0.00976,0.00976
-0.00976,0.01952,-0.02928,-0.0244,-0.01952,0.00488,-0.01952,-0.01952,-0.02928,-0.01464,-0.00976,0.00976
-0.00976,0.01952,-0.02928,-0.0244,-0.01952,0.00488,-0.01952,-0.01952,-0.02928,-0.01464,-0.00976,0.00976
-0.00976,0.01952,-0.02928,-0.0244,-0.01952,0.00488,-0.01952,-0.01952,-0.02928,-0.01464,-0.00976,0.00976
-0.01464,0.02196,-0.02928,-0.02196,-0.01464,0,-0.01464,-0.01952,-0.02928,-0.01464,-0.00976,0.00976
-0.01952,0.02684,-0.03416,-0.0244,-0.01464,-0.00244,-0.01464,-0.01952,-0.02928,-0.01464,-0.00976,0.00976
-0.01952,0.02928,-0.03904,-0.02928,-0.01952,0,-0.01464,-0.01952,-0.02928,-0.01464,-0.00976,0.00976
-0.01952,0.02928,-0.03904,-0.02928,-0.01952,0,-0.01464,-0.01464,-0.02928,-0.01464,-0.00976,0.00976
-0.01952,0.02928,-0.03904,-0.02928,-0.01952,0,-0.01464,-0.00976,-0.0244,-0.01464,-0.00976,0.00976
-0.01464,0.0244,-0.03416,-0.02684,-0.01952,0.00244,-0.01464,-0.00976,-0.0244,-0.01464,-0.00976,0.00976
-0.00976,0.01708,-0.0244,-0.01952,-0.01464,0.00244,-0.00488,-0.00488,-0.01464,-0.00488,-0.00976,0.00976
0,0,0,0,0,0,0,0,-0.00488,0,0,0.01952
0.00488,-0.0122,0.01952,0.01708,0.01464,-0.00488,0.01464,0.00488,0.00488,0.00976,0.00976,0.0244
0.01464,-0.02196,0.02928,0.02196,0.01464,0,0.01952,0.00976,0.01464,0.01464,0.01464,0.03416
0.01952,-0.02928,0.03904,0.02928,0.01952,0,0.02928,0.01952,0.01464,0.0244,0.01952,0.03904
0.03416,-0.04148,0.0488,0.03172,0.01464,0.00976,0.02928,0.0244,0.01952,0.0244,0.0244,0.04392
0.03416,-0.04392,0.05368,0.0366,0.01952,0.00732,0.02928,0.02928,0.02928,0.02928,0.0244,0.04392
0.03904,-0.05124,0.06344,0.04392,0.0244,0.00732,0.02928,0.03416,0.03416,0.03416,0.03416,0.05368
0.05368,-0.061,0.06832,0.04148,0.01464,0.01952,0.01952,0.03416,0.03904,0.03904,0.03904,0.05856
0.05368,-0.06588,0.07808,0.05124,0.0244,0.01464,0.01464,0.03416,0.04392,0.0488,0.04392,0.06344
0.06344,-0.08052,0.0976,0.06588,0.03416,0.01464,0.00976,0.03416,0.04392,0.05368,0.04392,0.0732
0.08296,-0.09272,0.10248,0.061,0.01952,0.03172,0,0.03904,0.03904,0.05368,0.0488,0.0732
0.08784,-0.09028,0.09272,0.0488,0.00488,0.04148,-0.01952,0.04392,0.03416,0.04392,0.05368,0.0732
0.08296,-0.08296,0.08296,0.04148,0,0.04148,-0.02928,0.02928,0.01464,0.02928,0.04392,0.0732
0.0732,-0.05856,0.04392,0.00732,-0.02928,0.05124,-0.04392,0.01952,0,0.01952,0.02928,0.05856
0.06832,-0.0488,0.02928,-0.00488,-0.03904,0.05368,-0.0488,0.00488,-0.01952,0.00488,0.01464,0.05856
0.05368,-0.0366,0.01952,-0.00732,-0.03416,0.04392,-0.05368,0,-0.02928,-0.00488,0.00976,0.0488
0.05856,-0.0366,0.01464,-0.01464,-0.04392,0.05124,-0.05368,-0.00488,-0.02928,-0.00488,0.00976,0.0488
0.05856,-0.0366,0.01464,-0.01464,-0.04392,0.05124,-0.05368,-0.00488,-0.03416,-0.00488,0.00976,0.0488
0.05368,-0.03172,0.00976,-0.01708,-0.04392,0.0488,-0.05368,0,-0.02928,0,0.01464,0.05368
0.04392,-0.01952,-0.00488,-0.02684,-0.0488,0.04636,-0.04392,0,-0.0244,-0.00488,0.00976,0.03904
0.00976,0.00732,-0.0244,-0.02928,-0.03416,0.02196,-0.03416,0,-0.0244,-0.00488,0,0.02928
-0.00976,0.0244,-0.03904,-0.03416,-0.02928,0.00976,-0.0244,-0.00976,-0.02928,-0.00976,-0.00976,0.01952
-0.01464,0.02928,-0.04392,-0.0366,-0.02928,0.00732,-0.01952,-0.01464,-0.03416,-0.01952,-0.01952,0.01464
-0.0244,0.03904,-0.05368,-0.04148,-0.02928,0.00244,-0.01952,-0.01952,-0.03904,-0.0244,-0.0244,0.00488
-0.0244,0.03904,-0.05368,-0.04148,-0.02928,0.00244,-0.01952,-0.0244,-0.04392,-0.0244,-0.02928,0
-0.02928,0.04392,-0.05856,-0.04392,-0.02928,0,-0.01952,-0.02928,-0.04392,-0.02928,-0.02928,0
-0.02928,0.04636,-0.06344,-0.0488,-0.03416,0.00244,-0.01952,-0.02928,-0.04392,-0.02928,-0.02928,0
-0.03416,0.05124,-0.06832,-0.05124,-0.03416,0,-0.01952,-0.02928,-0.04392,-0.02928,-0.02928,0
-0.03416,0.05124,-0.06832,-0.05124,-0.03416,0,-0.01952,-0.02928,-0.04392,-0.02928,-0.02928,0
-0.03416,0.05124,-0.06832,-0.05124,-0.03416,0,-0.01952,-0.02928,-0.04392,-0.02928,-0.02928,0
-0.03416,0.05124,-0.06832,-0.05124,-0.03416,0,-0.0244,-0.02928,-0.0488,-0.03416,-0.02928,0
-0.03416,0.05124,-0.06832,-0.05124,-0.03416,0,-0.0244,-0.0244,-0.05368,-0.03904,-0.02928,-0.00488
-0.02928,0.0488,-0.06832,-0.05368,-0.03904,0.00488,-0.0244,-0.0244,-0.0488,-0.03416,-0.02928,-0.00488
-0.02928,0.0488,-0.06832,-0.05368,-0.03904,0.00488,-0.0244,-0.0244,-0.0488,-0.03416,-0.02928,-0.00488
-0.03904,0.05612,-0.0732,-0.05368,-0.03416,-0.00244,-0.01952,-0.02928,-0.05856,-0.03904,-0.03416,-0.00488
-0.05856,0.0732,-0.08784,-0.05856,-0.02928,-0.01464,0,-0.04392,-0.05368,-0.04392,-0.0488,-0.01952
-0.08296,0.09028,-0.0976,-0.05612,-0.01464,-0.03416,0.03416,-0.01464,-0.01952,-0.02928,-0.05856,-0.03904
-0.0488,0.061,-0.0732,-0.0488,-0.0244,-0.0122,0.03416,0.0488,0.01464,0.00976,-0.0488,-0.04392
0.05368,-0.02196,-0.00976,-0.0366,-0.06344,0.05856,-0.01952,0.12688,0.06832,0.05856,0.01464,0.00488
0.29768,-0.23668,0.17568,0.02684,-0.122,0.20984,-0.23424,0.24888,0.11224,0.15128,0.122,0.11712
0.8296,-0.66124,0.49288,0.07808,-0.33672,0.58316,-0.62464,0.488,0.20496,0.31232,0.28792,0.30256
1.20536,-0.97844,0.75152,0.14884,-0.45384,0.8296,-0.9272,0.62464,0.27328,0.42456,0.40992,0.44408
1.50304,-1.22732,0.9516,0.20008,-0.55144,1.02724,-1.1956,0.63928,0.26352,0.52216,0.50264,0.55632
1.586,-1.32004,1.05408,0.26108,-0.53192,1.05896,-1.36152,0.52704,0.18056,0.488,0.52704,0.60512
1.31272,-1.09556,0.8784,0.22204,-0.43432,0.87352,-1.342,0.1952,-0.0488,0.28792,0.48312,0.59536
0.8052,-0.71248,0.61976,0.21716,-0.18544,0.49532,-1.21512,-0.20984,-0.27328,0.08296,0.37576,0.57096
0.20008,-0.32452,0.44896,0.34892,0.24888,-0.0244,-0.95648,-0.54656,-0.29768,0.01952,0.32696,0.53192
-0.0488,-0.1464,0.3416,0.366,0.3904,-0.2196,-0.73688,-0.57584,-0.3172,-0.01952,0.27816,0.45872
-0.04392,-0.10492,0.25376,0.27572,0.29768,-0.1708,-0.55144,-0.45384,-0.26352,-0.01464,0.2196,0.35136
-0.07808,-0.03172,0.14152,0.18056,0.2196,-0.14884,-0.3904,-0.37088,-0.2196,-0.03416,0.13176,0.244
-0.08296,0,0.08296,0.12444,0.16592,-0.12444,-0.22936,-0.22936,-0.1464,-0.03904,0.05368,0.15128
-0.06344,0,0.06344,0.09516,0.12688,-0.09516,-0.13664,-0.13176,-0.10248,-0.03416,0.02928,0.0976
-0.06344,0.01708,0.02928,0.061,0.09272,-0.07808,-0.10736,-0.11712,-0.08784,-0.03416,0.02928,0.09272
-0.05856,0.04392,-0.02928,0,0.02928,-0.04392,-0.06832,-0.0976,-0.06832,-0.03416,0.00488,0.04392
-0.05856,0.061,-0.06344,-0.03416,-0.00488,-0.02684,-0.00976,-0.05856,-0.06344,-0.03904,-0.02928,0.00976
-0.05856,0.06344,-0.06832,-0.03904,-0.00976,-0.0244,0,-0.03904,-0.05856,-0.03904,-0.03904,0
-0.05368,0.061,-0.06832,-0.04148,-0.01464,-0.01952,0,-0.03904,-0.05856,-0.04392,-0.03904,-0.00488
-0.0488,0.06344,-0.07808,-0.05368,-0.02928,-0.00976,0,-0.03416,-0.05368,-0.0488,-0.03904,-0.00976
-0.05368,0.0732,-0.09272,-0.06588,-0.03904,-0.00732,0.01464,-0.03416,-0.05368,-0.0488,-0.0488,-0.01464
-0.05368,0.07564,-0.0976,-0.07076,-0.04392,-0.00488,0.01464,-0.03416,-0.05368,-0.0488,-0.05368,-0.01952
-0.05368,0.0732,-0.09272,-0.06588,-0.03904,-0.00732,0.01952,-0.03416,-0.05368,-0.0488,-0.05856,-0.01952
-0.05368,0.0732,-0.09272,-0.06588,-0.03904,-0.00732,0.01952,-0.0244,-0.05368,-0.0488,-0.05856,-0.01952
-0.0488,0.07076,-0.09272,-0.06832,-0.04392,-0.00244,0.01952,-0.0244,-0.05368,-0.0488,-0.05368,-0.01464
-0.04392,0.06832,-0.09272,-0.07076,-0.0488,0.00244,0.01952,-0.0244,-0.0488,-0.0488,-0.05368,-0.01464
-0.03904,0.06832,-0.0976,-0.07808,-0.05856,0.00976,0.01952,-0.01952,-0.0488,-0.0488,-0.05368,-0.00976
-0.03904,0.06832,-0.0976,-0.07808,-0.05856,0.00976,0.01952,-0.01952,-0.04392,-0.04392,-0.05368,-0.00488
-0.03904,0.06588,-0.09272,-0.0732,-0.05368,0.00732,0.01952,-0.01464,-0.04392,-0.04392,-0.05368,-0.00488
-0.03416,0.06344,-0.09272,-0.07564,-0.05856,0.0122,0.0244,-0.01464,-0.04392,-0.04392,-0.05368,0
-0.03416,0.06344,-0.09272,-0.07564,-0.05856,0.0122,0.0244,-0.01464,-0.04392,-0.04392,-0.05368,0
-0.03416,0.061,-0.08784,-0.07076,-0.05368,0.00976,0.0244,-0.00976,-0.04392,-0.04392,-0.05368,0.00488
-0.03416,0.061,-0.08784,-0.07076,-0.05368,0.00976,0.0244,-0.00976,-0.04392,-0.04392,-0.05368,0.00488
-0.03416,0.061,-0.08784,-0.07076,-0.05368,0.00976,0.0244,-0.00976,-0.04392,-0.04392,-0.05368,0.00488
-0.02928,0.061,-0.09272,-0.07808,-0.06344,0.01708,0.0244,-0.00976,-0.04392,-0.04392,-0.05368,0.00488
-0.0244,0.05612,-0.08784,-0.07564,-0.06344,0.01952,0.0244,-0.00488,-0.04392,-0.04392,-0.0488,0.00488
-0.01952,0.05124,-0.08296,-0.0732,-0.06344,0.02196,0.0244,0,-0.03904,-0.04392,-0.0488,0
-0.01952,0.05124,-0.08296,-0.0732,-0.06344,0.02196,0.0244,0,-0.03904,-0.04392,-0.0488,-0.00488
-0.01464,0.04636,-0.07808,-0.07076,-0.06344,0.0244,0.0244,0,-0.03904,-0.03904,-0.0488,-0.00488
-0.01952,0.0488,-0.07808,-0.06832,-0.05856,0.01952,0.0244,0.00976,-0.03416,-0.03904,-0.04392,-0.00488
-0.00976,0.03904,-0.06832,-0.06344,-0.05856,0.0244,0.0244,0.01464,-0.02928,-0.03416,-0.04392,-0.00488
-0.00976,0.0366,-0.06344,-0.05856,-0.05368,0.02196,0.0244,0.01464,-0.02928,-0.02928,-0.03904,-0.00488
-0.00976,0.03416,-0.05856,-0.05368,-0.0488,0.01952,0.0244,0.01952,-0.0244,-0.0244,-0.03904,-0.00488
0,0.02928,-0.05856,-0.05856,-0.05856,0.02928,0.0244,0.0244,-0.0244,-0.0244,-0.03904,-0.00488
0.00488,0.02928,-0.06344,-0.06588,-0.06832,0.0366,0.0244,0.02928,-0.01464,-0.01952,-0.02928,-0.00488
0.00976,0.0244,-0.05856,-0.06344,-0.06832,0.03904,0.0244,0.03416,-0.00976,-0.01952,-0.02928,-0.00488
0.01464,0.01952,-0.05368,-0.061,-0.06832,0.04148,0.0244,0.03904,-0.00488,-0.01464,-0.0244,0
0.01952,0.01464,-0.0488,-0.05856,-0.06832,0.04392,0.0244,0.04392,-0.00488,-0.00976,-0.0244,0
0.0244,0.00976,-0.04392,-0.05612,-0.06832,0.04636,0.0244,0.0488,0.00488,-0.00976,-0.0244,0.00488
0.02928,0.00488,-0.03904,-0.05368,-0.06832,0.0488,0.0244,0.05368,0.00488,-0.00488,-0.01952,0.00488
0.04392,-0.00488,-0.03416,-0.05612,-0.07808,0.061,0.02928,0.06344,0.01464,0,-0.01464,0.00976
0.04392,-0.00732,-0.02928,-0.05124,-0.0732,0.05856,0.02928,0.06832,0.01952,0.00488,-0.01464,0.00488
0.05856,-0.0244,-0.00976,-0.03904,-0.06832,0.06344,0.02928,0.0732,0.0244,0.00976,-0.00488,0.01464
0.06344,-0.03172,0,-0.03172,-0.06344,0.06344,0.02928,0.07808,0.0244,0.01464,0,0.01464
0.07808,-0.04392,0.00976,-0.02928,-0.06832,0.0732,0.02928,0.08784,0.03416,0.01952,0.00976,0.01952
0.08784,-0.05368,0.01952,-0.0244,-0.06832,0.07808,0.02928,0.09272,0.03416,0.0244,0.00976,0.01952
0.0976,-0.06344,0.02928,-0.01952,-0.06832,0.08296,0.0244,0.0976,0.0488,0.02928,0.01464,0.01952
0.10736,-0.07076,0.03416,-0.01952,-0.0732,0.09028,0.01952,0.10248,0.05368,0.03416,0.00976,0.0244
0.122,-0.0854,0.0488,-0.0122,-0.0732,0.0976,0.01952,0.10736,0.05856,0.04392,0.01952,0.03904
0.13176,-0.09516,0.05856,-0.00732,-0.0732,0.10248,0.01464,0.11712,0.0732,0.05368,0.0244,0.04392
0.14152,-0.10492,0.06832,-0.00244,-0.0732,0.10736,0.00976,0.122,0.0732,0.05856,0.03416,0.0488
0.14152,-0.1098,0.07808,0.00732,-0.06344,0.10248,0.00488,0.12688,0.0732,0.06344,0.04392,0.0488
0.15128,-0.11956,0.08784,0.0122,-0.06344,0.10736,0,0.13664,0.0732,0.06832,0.04392,0.06344
0.15616,-0.12688,0.0976,0.01952,-0.05856,0.10736,-0.00488,0.14152,0.0732,0.06832,0.04392,0.06344
0.16592,-0.1342,0.10248,0.01952,-0.06344,0.11468,-0.00976,0.1464,0.0732,0.06832,0.0488,0.06832
0.17568,-0.13908,0.10248,0.01464,-0.0732,0.12444,-0.01464,0.1464,0.0732,0.06832,0.0488,0.06832
0.18056,-0.14152,0.10248,0.0122,-0.07808,0.12932,-0.01464,0.1464,0.07808,0.0732,0.05368,0.07808
0.18544,-0.14396,0.10248,0.00976,-0.08296,0.1342,-0.01952,0.1464,0.07808,0.0732,0.05368,0.08296
0.1952,-0.15616,0.11712,0.01952,-0.07808,0.13664,-0.01952,0.15128,0.07808,0.07808,0.05856,0.09272
0.20008,-0.16104,0.122,0.02196,-0.07808,0.13908,-0.02928,0.15128,0.07808,0.07808,0.05856,0.09272
0.20008,-0.16592,0.13176,0.03172,-0.06832,0.1342,-0.03416,0.15128,0.07808,0.08296,0.06344,0.09272
0.20008,-0.16592,0.13176,0.03172,-0.06832,0.1342,-0.03416,0.1464,0.07808,0.08296,0.06344,0.0976
0.20008,-0.16348,0.12688,0.02684,-0.0732,0.13664,-0.03416,0.1464,0.07808,0.08296,0.06344,0.0976
0.20496,-0.16592,0.12688,0.0244,-0.07808,0.14152,-0.03416,0.14152,0.07808,0.08296,0.06344,0.0976
0.20496,-0.16592,0.12688,0.0244,-0.07808,0.14152,-0.03416,0.1464,0.07808,0.08296,0.06344,0.0976
0.20008,-0.16348,0.12688,0.02684,-0.0732,0.13664,-0.03416,0.14152,0.0732,0.08296,0.06344,0.0976
0.1952,-0.15616,0.11712,0.01952,-0.07808,0.13664,-0.03904,0.13664,0.06832,0.08296,0.06344,0.0976
0.19032,-0.15372,0.11712,0.02196,-0.0732,0.13176,-0.04392,0.13176,0.05856,0.0732,0.06344,0.09272
0.18544,-0.14884,0.11224,0.01952,-0.0732,0.12932,-0.03904,0.12688,0.05856,0.0732,0.05856,0.09272
0.17568,-0.14152,0.10736,0.01952,-0.06832,0.122,-0.03904,0.122,0.05368,0.06832,0.05856,0.08784
0.16592,-0.1342,0.10248,0.01952,-0.06344,0.11468,-0.03904,0.11224,0.0488,0.06344,0.05368,0.08296
0.15616,-0.122,0.08784,0.00976,-0.06832,0.11224,-0.03904,0.0976,0.04392,0.05856,0.05368,0.08296
0.14152,-0.1098,0.07808,0.00732,-0.06344,0.10248,-0.03904,0.08784,0.03904,0.0488,0.03416,0.08296
0.13176,-0.10004,0.06832,0.00244,-0.06344,0.0976,-0.03904,0.07808,0.02928,0.03904,0.02928,0.07808
0.11712,-0.0854,0.05368,-0.00488,-0.06344,0.09028,-0.03904,0.06832,0.01952,0.03904,0.0244,0.0732
0.10736,-0.07564,0.04392,-0.00976,-0.06344,0.0854,-0.03416,0.05856,0.01464,0.02928,0.01952,0.0732
0.10248,-0.06832,0.03416,-0.01708,-0.06832,0.0854,-0.03416,0.0488,0.00488,0.0244,0.01464,0.06832
0.09272,-0.061,0.02928,-0.01708,-0.06344,0.07808,-0.03416,0.03904,0,0.01464,0.00976,0.06344
0.08296,-0.05124,0.01952,-0.02196,-0.06344,0.0732,-0.03416,0.0244,-0.00488,0.00976,0.00976,0.05856
0.0732,-0.04636,0.01952,-0.01708,-0.05368,0.06344,-0.03416,0.01952,-0.00488,0.00488,0.00488,0.05856
0.0732,-0.04392,0.01464,-0.02196,-0.05856,0.06588,-0.03416,0.01464,-0.00976,0.00488,0.00488,0.05856
0.06832,-0.03904,0.00976,-0.0244,-0.05856,0.06344,-0.03416,0.00976,-0.01464,0,0.00488,0.0488
0.06832,-0.03416,0,-0.03416,-0.06832,0.06832,-0.03416,0.00488,-0.01464,0,0.00488,0.0488
0.06344,-0.02928,-0.00488,-0.0366,-0.06832,0.06588,-0.03416,0,-0.01464,0,0.00488,0.0488
0.05368,-0.0244,-0.00488,-0.03172,-0.05856,0.05612,-0.03416,0,-0.01952,0,0.00488,0.0488
0.0488,-0.02196,-0.00488,-0.02928,-0.05368,0.05124,-0.03416,0,-0.0244,-0.00976,0.00488,0.0488
0.0488,-0.02196,-0.00488,-0.02928,-0.05368,0.05124,-0.03904,0,-0.0244,-0.00976,0,0.0488
0.0488,-0.02196,-0.00488,-0.02928,-0.05368,0.05124,-0.04392,0,-0.02928,-0.00488,0,0.0488
0.0488,-0.02196,-0.00488,-0.02928,-0.05368,0.05124,-0.03904,-0.00488,-0.0244,-0.00488,-0.00488,0.04392
0.0488,-0.02196,-0.00488,-0.02928,-0.05368,0.05124,-0.03904,-0.00488,-0.01952,-0.00488,-0.00488,0.04392
0.0488,-0.02196,-0.00488,-0.02928,-0.05368,0.05124,-0.03904,-0.00488,-0.01952,-0.00488,-0.00488,0.04392
0.0488,-0.02196,-0.00488,-0.02928,-0.05368,0.05124,-0.03904,-0.00488,-0.01952,-0.00976,-0.00488,0.04392
0.04392,-0.01952,-0.00488,-0.02684,-0.0488,0.04636,-0.03416,-0.00488,-0.01952,-0.00976,-0.00488,0.04392
0.03904,-0.01708,-0.00488,-0.0244,-0.04392,0.04148,-0.03416,-0.00976,-0.01952,-0.00976,-0.00488,0.03904
0.04392,-0.01952,-0.00488,-0.02684,-0.0488,0.04636,-0.03416,-0.00976,-0.01952,-0.00976,-0.00488,0.03904
0.0488,-0.02196,-0.00488,-0.02928,-0.05368,0.05124,-0.03416,-0.00976,-0.01952,-0.00976,-0.00488,0.03904
0.04392,-0.01952,-0.00488,-0.02684,-0.0488,0.04636,-0.02928,-0.00976,-0.01952,-0.00976,-0.00488,0.03904
0.04392,-0.01952,-0.00488,-0.02684,-0.0488,0.04636,-0.02928,-0.00976,-0.0244,-0.00488,-0.00488,0.03904
0.03904,-0.01464,-0.00976,-0.02928,-0.0488,0.04392,-0.02928,-0.00976,-0.0244,-0.00488,-0.00976,0.03904
0.03416,-0.00976,-0.01464,-0.03172,-0.0488,0.04148,-0.02928,-0.00976,-0.0244,-0.00488,-0.00976,0.03904
0.03416,-0.00976,-0.01464,-0.03172,-0.0488,0.04148,-0.0244,-0.00976,-0.0244,-0.00976,-0.00488,0.03904
0.03416,-0.00976,-0.01464,-0.03172,-0.0488,0.04148,-0.0244,-0.00976,-0.0244,-0.00976,-0.00488,0.03904
0.03416,-0.00976,-0.01464,-0.03172,-0.0488,0.04148,-0.01952,-0.00976,-0.01952,-0.00976,-0.00488,0.03416
0.02928,-0.00732,-0.01464,-0.02928,-0.04392,0.0366,-0.01464,-0.00976,-0.01464,-0.00976,-0.00488,0.02928
0.0244,-0.00488,-0.01464,-0.02684,-0.03904,0.03172,-0.01464,-0.00976,-0.01952,-0.00976,-0.00488,0.03416
0.01952,0,-0.01952,-0.02928,-0.03904,0.02928,-0.01464,-0.01464,-0.01952,-0.00488,-0.00488,0.03416
0.01952,-0.00244,-0.01464,-0.0244,-0.03416,0.02684,-0.01464,-0.01464,-0.01952,-0.00488,-0.00488,0.03416
0.01952,-0.00488,-0.00976,-0.01952,-0.02928,0.0244,-0.01464,-0.01464,-0.01952,-0.00488,-0.00488,0.03416
0.01952,-0.00488,-0.00976,-0.01952,-0.02928,0.0244,-0.00976,-0.01464,-0.01952,-0.00488,-0.00488,0.02928
0.01464,0,-0.01464,-0.02196,-0.02928,0.02196,-0.00488,-0.01464,-0.01952,-0.00488,-0.00488,0.0244
0.00976,0.00244,-0.01464,-0.01952,-0.0244,0.01708,-0.00488,-0.01464,-0.01952,-0.00976,-0.00976,0.0244
0.00488,0.00488,-0.01464,-0.01708,-0.01952,0.0122,-0.00488,-0.01464,-0.01952,-0.00976,-0.00976,0.01952
0.00488,0.00488,-0.01464,-0.01708,-0.01952,0.0122,-0.00488,-0.01464,-0.0244,-0.00976,-0.00976,0.01952
0.00488,0.00488,-0.01464,-0.01708,-0.01952,0.0122,-0.00488,-0.01464,-0.0244,-0.01464,-0.00976,0.01464
0.00488,0.00488,-0.01464,-0.01708,-0.01952,0.0122,-0.00976,-0.01952,-0.0244,-0.01464,-0.00976,0.01464
0.00488,0.00488,-0.01464,-0.01708,-0.01952,0.0122,-0.00976,-0.01952,-0.0244,-0.01464,-0.00976,0.01464
0,0.00732,-0.01464,-0.01464,-0.01464,0.00732,-0.00976,-0.01952,-0.0244,-0.01464,-0.00976,0.01464
0,0.00732,-0.01464,-0.01464,-0.01464,0.00732,-0.00976,-0.01952,-0.0244,-0.01464,-0.00976,0.01464
0,0.00732,-0.01464,-0.01464,-0.01464,0.00732,-0.01464,-0.01464,-0.02928,-0.01464,-0.00976,0.01464
-0.00488,0.00976,-0.01464,-0.0122,-0.00976,0.00244,-0.01464,-0.00976,-0.02928,-0.01464,-0.00976,0.01464
-0.00488,0.00976,-0.01464,-0.0122,-0.00976,0.00244,-0.01464,-0.01464,-0.02928,-0.01464,-0.00976,0.01464
-0.00976,0.0122,-0.01464,-0.00976,-0.00488,-0.00244,-0.01464,-0.01464,-0.02928,-0.01464,-0.00976,0.00976
-0.00976,0.0122,-0.01464,-0.00976,-0.00488,-0.00244,-0.01464,-0.01952,-0.03416,-0.01464,-0.00976,0.00976
-0.00976,0.0122,-0.01464,-0.00976,-0.00488,-0.00244,-0.01464,-0.0244,-0.03416,-0.01464,-0.00976,0.00976
-0.00976,0.0122,-0.01464,-0.00976,-0.00488,-0.00244,-0.01952,-0.0244,-0.03416,-0.01464,-0.00976,0.00488
-0.00976,0.01464,-0.01952,-0.01464,-0.00976,0,-0.01952,-0.0244,-0.02928,-0.01464,-0.00976,0
-0.01464,0.01708,-0.01952,-0.0122,-0.00488,-0.00488,-0.01952,-0.0244,-0.02928,-0.01464,-0.00976,0.00488
-0.01464,0.01708,-0.01952,-0.0122,-0.00488,-0.00488,-0.01952,-0.0244,-0.02928,-0.01464,-0.00976,0.00488
-0.01464,0.01708,-0.01952,-0.0122,-0.00488,-0.00488,-0.01952,-0.01952,-0.02928,-0.01464,-0.00976,0.00488
-0.01464,0.01708,-0.01952,-0.0122,-0.00488,-0.00488,-0.01952,-0.01464,-0.02928,-0.01464,-0.00976,0.00488
-0.01464,0.01464,-0.01464,-0.00732,0,-0.00732,-0.01952,-0.01952,-0.02928,-0.01952,-0.00976,0.00488
-0.01464,0.01464,-0.01464,-0.00732,0,-0.00732,-0.01952,-0.01952,-0.02928,-0.01952,-0.00976,0
-0.00976,0.0122,-0.01464,-0.00976,-0.00488,-0.00244,-0.01952,-0.01952,-0.0244,-0.01464,-0.00976,0
-0.00488,0.00976,-0.01464,-0.0122,-0.00976,0.00244,-0.01952,-0.01952,-0.01952,-0.01464,-0.00976,0
-0.00488,0.00976,-0.01464,-0.0122,-0.00976,0.00244,-0.01952,-0.01952,-0.01952,-0.01464,-0.00976,-0.00976
-0.00488,0.00976,-0.01464,-0.0122,-0.00976,0.00244,-0.01952,-0.01952,-0.01952,-0.01464,-0.00976,0
-0.00488,0.00976,-0.01464,-0.0122,-0.00976,0.00244,-0.01952,-0.01952,-0.01952,-0.01464,-0.00976,0
-0.00488,0.00976,-0.01464,-0.0122,-0.00976,0.00244,-0.01952,-0.01952,-0.01952,-0.01464,-0.00976,0
-0.00488,0.00976,-0.01464,-0.0122,-0.00976,0.00244,-0.01952,-0.01952,-0.01952,-0.01464,-0.00976,0
-0.00488,0.00976,-0.01464,-0.0122,-0.00976,0.00244,-0.01952,-0.01952,-0.01952,-0.01464,-0.00976,0
-0.00488,0.00732,-0.00976,-0.00732,-0.00488,0,-0.01464,-0.01464,-0.01952,-0.01464,-0.00976,0
-0.00488,0.00732,-0.00976,-0.00732,-0.00488,0,-0.00976,-0.00976,-0.01952,-0.01464,-0.00976,0.00488
-0.00976,0.00976,-0.00976,-0.00488,0,-0.00488,-0.00976,-0.00976,-0.01952,-0.01464,-0.00976,0.00488
-0.01464,0.0122,-0.00976,-0.00244,0.00488,-0.00976,-0.00976,-0.00976,-0.01952,-0.01464,-0.00976,0.00488
-0.01464,0.01464,-0.01464,-0.00732,0,-0.00732,-0.00976,-0.00488,-0.01952,-0.01464,-0.00976,0.00488
-0.01464,0.01464,-0.01464,-0.00732,0,-0.00732,-0.00976,-0.00488,-0.01464,-0.01464,-0.00976,0.00488
-0.01464,0.01464,-0.01464,-0.00732,0,-0.00732,-0.00976,-0.00488,-0.01464,-0.01464,-0.00976,0.00488
-0.01464,0.01464,-0.01464,-0.00732,0,-0.00732,-0.00976,-0.00488,-0.01464,-0.01464,-0.00976,0.00488
-0.01464,0.0122,-0.00976,-0.00244,0.00488,-0.00976,-0.00976,-0.00488,-0.01464,-0.01464,-0.00976,0.00488
-0.01464,0.0122,-0.00976,-0.00244,0.00488,-0.00976,-0.00976,-0.00488,-0.01464,-0.01464,-0.00976,0.00488
-0.00976,0.00732,-0.00488,0,0.00488,-0.00732,-0.00976,-0.00488,-0.01464,-0.01464,-0.00976,0.00488
-0.00976,0.00976,-0.00976,-0.00488,0,-0.00488,-0.00976,-0.00976,-0.00976,-0.01464,-0.00976,0.00488
-0.00976,0.0122,-0.01464,-0.00976,-0.00488,-0.00244,-0.00976,-0.00976,-0.00976,-0.00976,-0.00976,0.00488
-0.00976,0.01464,-0.01952,-0.01464,-0.00976,0,-0.00976,-0.00976,-0.00976,-0.00976,-0.00976,0.00976
-0.00976,0.01464,-0.01952,-0.01464,-0.00976,0,-0.00976,-0.00976,-0.00976,-0.00976,-0.00976,0.00976
-0.00976,0.01464,-0.01952,-0.01464,-0.00976,0,-0.00976,-0.00976,-0.00976,-0.00976,-0.00976,0.00976
-0.00976,0.0122,-0.01464,-0.00976,-0.00488,-0.00244,-0.00976,-0.00976,-0.00976,-0.00976,-0.00976,0.00488
-0.00976,0.00976,-0.00976,-0.00488,0,-0.00488,-0.00976,-0.00976,-0.00976,-0.00488,-0.00976,0
-0.00976,0.00976,-0.00976,-0.00488,0,-0.00488,-0.00976,-0.00976,-0.00976,-0.00488,-0.00976,0
-0.00976,0.00976,-0.00976,-0.00488,0,-0.00488,-0.00976,-0.00976,-0.00976,-0.00488,-0.00976,0
-0.01464,0.0122,-0.00976,-0.00244,0.00488,-0.00976,-0.00488,-0.00976,-0.00976,-0.00488,-0.00976,0
-0.01464,0.0122,-0.00976,-0.00244,0.00488,-0.00976,-0.00488,-0.00976,-0.00976,-0.00488,-0.00976,0
-0.00976,0.00976,-0.00976,-0.00488,0,-0.00488,-0.00488,-0.00976,-0.00976,-0.00488,-0.00976,0.00488
-0.00976,0.00976,-0.00976,-0.00488,0,-0.00488,-0.00488,-0.00976,-0.00976,-0.00488,-0.00976,0.00976
-0.00976,0.00976,-0.00976,-0.00488,0,-0.00488,-0.00488,-0.00488,-0.00488,-0.00488,-0.00488,0.00976
-0.00488,0.00488,-0.00488,-0.00244,0,-0.00244,-0.00488,0,-0.00488,-0.00488,0,0.00976
0,-0.00244,0.00488,0.00488,0.00488,-0.00244,0.00488,0.00488,0.00488,0.00488,0,0.00976
0.00976,-0.01952,0.02928,0.0244,0.01952,-0.00488,0.00976,0.00976,0.01464,0.00976,0.00976,0.01952
0.01464,-0.03172,0.0488,0.04148,0.03416,-0.00976,0.0244,0.01464,0.0244,0.01952,0.01952,0.0244
0.0244,-0.04148,0.05856,0.04636,0.03416,-0.00488,0.0244,0.01952,0.03416,0.0244,0.0244,0.02928
0.02928,-0.0488,0.06832,0.05368,0.03904,-0.00488,0.02928,0.02928,0.03416,0.03416,0.0244,0.02928
0.04392,-0.061,0.07808,0.05612,0.03416,0.00488,0.02928,0.03416,0.03904,0.03416,0.0244,0.03416
0.03904,-0.05856,0.07808,0.05856,0.03904,0,0.02928,0.03904,0.0488,0.03904,0.0244,0.02928
0.03904,-0.061,0.08296,0.06344,0.04392,-0.00244,0.02928,0.04392,0.0488,0.04392,0.03416,0.03416
0.05368,-0.07076,0.08784,0.061,0.03416,0.00976,0.01952,0.04392,0.0488,0.0488,0.03904,0.03904
0.05368,-0.0732,0.09272,0.06588,0.03904,0.00732,0.00976,0.04392,0.05368,0.05368,0.04392,0.04392
0.06344,-0.0854,0.10736,0.07564,0.04392,0.00976,0,0.03904,0.05368,0.05368,0.04392,0.05368
0.07808,-0.09272,0.10736,0.06832,0.02928,0.0244,-0.00976,0.03416,0.04392,0.05368,0.04392,0.05368
0.07808,-0.0854,0.09272,0.05368,0.01464,0.03172,-0.02928,0.03416,0.03416,0.04392,0.04392,0.05368
0.0732,-0.07808,0.08296,0.04636,0.00976,0.03172,-0.03416,0.01952,0.01464,0.02928,0.03416,0.05368
0.06344,-0.05368,0.04392,0.0122,-0.01952,0.04148,-0.04392,0.00976,0,0.01952,0.01952,0.03904
0.05856,-0.04392,0.02928,0,-0.02928,0.04392,-0.04392,0,-0.00976,0.00976,0.00976,0.03904
0.04392,-0.03172,0.01952,-0.00244,-0.0244,0.03416,-0.04392,0.00488,-0.00976,0.00488,0.00976,0.02928
0.04392,-0.02928,0.01464,-0.00732,-0.02928,0.0366,-0.04392,0.00488,-0.00976,0.00488,0.00976,0.02928
0.03904,-0.02684,0.01464,-0.00488,-0.0244,0.03172,-0.04392,0.00488,-0.01464,0,0.00488,0.0244
0.0244,-0.01708,0.00976,-0.00244,-0.01464,0.01952,-0.04392,0.00488,-0.01464,-0.00488,0,0.01952
0.00488,0,-0.00488,-0.00732,-0.00976,0.00732,-0.03416,0,-0.01952,-0.01464,-0.00976,0
-0.01952,0.02196,-0.0244,-0.01464,-0.00488,-0.00732,-0.02928,0,-0.0244,-0.01464,-0.01952,-0.00976
-0.02928,0.03416,-0.03904,-0.0244,-0.00976,-0.00976,-0.0244,-0.00976,-0.02928,-0.01952,-0.0244,-0.01952
-0.03416,0.03904,-0.04392,-0.02684,-0.00976,-0.0122,-0.01952,-0.01464,-0.02928,-0.0244,-0.0244,-0.01952
-0.04392,0.05124,-0.05856,-0.0366,-0.01464,-0.01464,-0.01952,-0.0244,-0.02928,-0.0244,-0.0244,-0.0244
-0.04392,0.05368,-0.06344,-0.04148,-0.01952,-0.0122,-0.01952,-0.02928,-0.03416,-0.0244,-0.02928,-0.02928
-0.0488,0.05856,-0.06832,-0.04392,-0.01952,-0.01464,-0.01952,-0.02928,-0.03416,-0.02928,-0.03416,-0.02928
-0.0488,0.05856,-0.06832,-0.04392,-0.01952,-0.01464,-0.01952,-0.02928,-0.03416,-0.02928,-0.03904,-0.02928
-0.05368,0.061,-0.06832,-0.04148,-0.01464,-0.01952,-0.01952,-0.02928,-0.03416,-0.02928,-0.03904,-0.02928
-0.05368,0.061,-0.06832,-0.04148,-0.01464,-0.01952,-0.01952,-0.02928,-0.03416,-0.02928,-0.03904,-0.02928
-0.05368,0.061,-0.06832,-0.04148,-0.01464,-0.01952,-0.01952,-0.02928,-0.03416,-0.02928,-0.03904,-0.02928
-0.05368,0.061,-0.06832,-0.04148,-0.01464,-0.01952,-0.01952,-0.02928,-0.03416,-0.02928,-0.03904,-0.02928
-0.05368,0.061,-0.06832,-0.04148,-0.01464,-0.01952,-0.01464,-0.0244,-0.03416,-0.02928,-0.03904,-0.02928
-0.0488,0.05856,-0.06832,-0.04392,-0.01952,-0.01464,-0.01464,-0.0244,-0.02928,-0.0244,-0.03904,-0.0244
-0.0488,0.05856,-0.06832,-0.04392,-0.01952,-0.01464,-0.01464,-0.0244,-0.02928,-0.0244,-0.03904,-0.0244
-0.0488,0.05856,-0.06832,-0.04392,-0.01952,-0.01464,-0.00976,-0.01464,-0.02928,-0.0244,-0.03904,-0.0244
-0.04392,0.05368,-0.06344,-0.04148,-0.01952,-0.0122,0,-0.00976,-0.01464,-0.01952,-0.03904,-0.02928
0.00488,0.01464,-0.03416,-0.0366,-0.03904,0.02196,0,0.0488,0.01952,0.00976,-0.01952,-0.01952
0.0976,-0.06344,0.02928,-0.01952,-0.06832,0.08296,-0.05856,0.13664,0.05368,0.06832,0.0244,0.01952
0.29768,-0.2196,0.14152,-0.00732,-0.15616,0.22692,-0.20496,0.21472,0.08784,0.12688,0.10248,0.10248
0.61976,-0.49044,0.36112,0.05124,-0.25864,0.4392,-0.47824,0.33672,0.11224,0.22936,0.20984,0.22448
1.03944,-0.83204,0.62464,0.10492,-0.4148,0.72712,-0.81984,0.47824,0.15616,0.35136,0.34648,0.38552
1.31272,-1.0614,0.81008,0.15372,-0.50264,0.90768,-1.0736,0.5124,0.1464,0.38552,0.42944,0.49776
1.40056,-1.14436,0.88816,0.18788,-0.5124,0.95648,-1.2444,0.40504,0.0732,0.39528,0.47336,0.57096
1.24928,-1.05164,0.854,0.22936,-0.39528,0.82228,-1.27856,0.15616,-0.0732,0.2684,0.43432,0.5612
0.85888,-0.75152,0.64416,0.21472,-0.21472,0.5368,-1.18096,-0.15616,-0.24888,0.10248,0.37576,0.52704
0.3172,-0.35136,0.38552,0.22692,0.06832,0.12444,-0.99064,-0.488,-0.37576,-0.03416,0.27816,0.49288
-0.0488,-0.11956,0.28792,0.31232,0.33672,-0.19276,-0.74176,-0.61,-0.33184,-0.05856,0.244,0.42944
-0.10736,-0.0732,0.25376,0.30744,0.36112,-0.23424,-0.55144,-0.46848,-0.2684,-0.04392,0.20984,0.3416
-0.09272,-0.0366,0.16592,0.21228,0.25864,-0.17568,-0.39528,-0.35624,-0.20008,-0.03416,0.15128,0.244
-0.122,0.02928,0.06344,0.12444,0.18544,-0.15372,-0.2684,-0.27328,-0.16104,-0.04392,0.06832,0.15128
-0.11712,0.04636,0.0244,0.08296,0.14152,-0.12932,-0.14152,-0.16104,-0.0976,-0.03416,0.01952,0.08296
-0.08296,0.03416,0.01464,0.05612,0.0976,-0.09028,-0.07808,-0.09272,-0.0732,-0.03416,0.01952,0.0488
-0.08296,0.05124,-0.01952,0.02196,0.06344,-0.0732,-0.05856,-0.07808,-0.06344,-0.03416,0.00488,0.04392
-0.07808,0.07564,-0.0732,-0.03416,0.00488,-0.04148,-0.02928,-0.05856,-0.0488,-0.03416,-0.02928,-0.00488
-0.07808,0.08784,-0.0976,-0.05856,-0.01952,-0.02928,0.01952,-0.03416,-0.0488,-0.03904,-0.0488,-0.02928
-0.07808,0.0854,-0.09272,-0.05368,-0.01464,-0.03172,0.01952,-0.02928,-0.04392,-0.03904,-0.0488,-0.02928
-0.07808,0.08296,-0.08784,-0.0488,-0.00976,-0.03416,0.01952,-0.02928,-0.03904,-0.04392,-0.0488,-0.02928
-0.0732,0.08296,-0.09272,-0.05612,-0.01952,-0.02684,0.01952,-0.0244,-0.03416,-0.04392,-0.0488,-0.02928
-0.0732,0.0854,-0.0976,-0.061,-0.0244,-0.0244,0.03416,-0.0244,-0.03416,-0.03904,-0.05368,-0.03416
-0.0732,0.0854,-0.0976,-0.061,-0.0244,-0.0244,0.03416,-0.01952,-0.03416,-0.03904,-0.0488,-0.03416
-0.0732,0.08296,-0.09272,-0.05612,-0.01952,-0.02684,0.03904,-0.01464,-0.03416,-0.03904,-0.0488,-0.02928
-0.0732,0.08296,-0.09272,-0.05612,-0.01952,-0.02684,0.03904,-0.00488,-0.03416,-0.03904,-0.0488,-0.02928
-0.06832,0.08052,-0.09272,-0.05856,-0.0244,-0.02196,0.03904,-0.00488,-0.03416,-0.03904,-0.04392,-0.0244
-0.06344,0.07808,-0.09272,-0.061,-0.02928,-0.01708,0.03904,-0.00488,-0.02928,-0.03904,-0.04392,-0.0244
-0.05856,0.07564,-0.09272,-0.06344,-0.03416,-0.0122,0.03904,0,-0.02928,-0.03904,-0.04392,-0.0244
-0.05856,0.0732,-0.08784,-0.05856,-0.02928,-0.01464,0.03904,-0.00488,-0.0244,-0.03416,-0.04392,-0.0244
-0.05856,0.07076,-0.08296,-0.05368,-0.0244,-0.01708,0.03904,-0.00488,-0.0244,-0.03416,-0.04392,-0.0244
-0.05368,0.07076,-0.08784,-0.061,-0.03416,-0.00976,0.03904,-0.00488,-0.0244,-0.03416,-0.04392,-0.01952
-0.05368,0.0732,-0.09272,-0.06588,-0.03904,-0.00732,0.03416,-0.00488,-0.0244,-0.03416,-0.04392,-0.01952
-0.05856,0.07564,-0.09272,-0.06344,-0.03416,-0.0122,0.03416,0,-0.0244,-0.03416,-0.04392,-0.01464
-0.06344,0.08052,-0.0976,-0.06588,-0.03416,-0.01464,0.03416,0,-0.0244,-0.03416,-0.04392,-0.01464
-0.06344,0.08052,-0.0976,-0.06588,-0.03416,-0.01464,0.03416,0,-0.01952,-0.02928,-0.04392,-0.01464
-0.05856,0.07808,-0.0976,-0.06832,-0.03904,-0.00976,0.03416,0,-0.01464,-0.0244,-0.04392,-0.01464
-0.0488,0.06588,-0.08296,-0.05856,-0.03416,-0.00732,0.03904,0.00488,-0.01464,-0.0244,-0.03904,-0.01464
-0.03904,0.05612,-0.0732,-0.05368,-0.03416,-0.00244,0.04392,0.00976,-0.00976,-0.0244,-0.03904,-0.01464
-0.03904,0.05612,-0.0732,-0.05368,-0.03416,-0.00244,0.04392,0.00976,-0.00976,-0.0244,-0.03904,-0.01464
-0.02928,0.0488,-0.06832,-0.05368,-0.03904,0.00488,0.04392,0.00976,-0.00976,-0.01952,-0.03904,-0.01464
-0.02928,0.0488,-0.06832,-0.05368,-0.03904,0.00488,0.04392,0.01952,-0.00488,-0.01952,-0.03416,-0.01464
-0.01952,0.03904,-0.05856,-0.0488,-0.03904,0.00976,0.04392,0.0244,0,-0.01464,-0.03416,-0.01464
-0.01952,0.0366,-0.05368,-0.04392,-0.03416,0.00732,0.04392,0.0244,0,-0.00976,-0.02928,-0.01464
-0.01952,0.03416,-0.0488,-0.03904,-0.02928,0.00488,0.04392,0.02928,0.00488,-0.00488,-0.02928,-0.01464
-0.01464,0.03172,-0.0488,-0.04148,-0.03416,0.00976,0.04392,0.03416,0.00488,-0.00488,-0.03416,-0.01464
-0.01464,0.03172,-0.0488,-0.04148,-0.03416,0.00976,0.04392,0.03904,0.00976,0,-0.02928,-0.01464
-0.00976,0.02684,-0.04392,-0.03904,-0.03416,0.0122,0.04392,0.04392,0.00976,0,-0.02928,-0.01464
-0.00488,0.0244,-0.04392,-0.04148,-0.03904,0.01708,0.04392,0.0488,0.01464,0.00488,-0.0244,-0.00976
0,0.01952,-0.03904,-0.03904,-0.03904,0.01952,0.04392,0.05368,0.01464,0.00976,-0.01952,-0.00976
0.00488,0.01464,-0.03416,-0.0366,-0.03904,0.02196,0.04392,0.05856,0.0244,0.00976,-0.01464,-0.00488
0.00488,0.0122,-0.02928,-0.03172,-0.03416,0.01952,0.04392,0.06344,0.0244,0.00976,-0.00976,-0.00976
0.01464,0.00488,-0.0244,-0.03172,-0.03904,0.02684,0.04392,0.0732,0.03416,0.00976,-0.00488,-0.00488
0.01464,0.00244,-0.01952,-0.02684,-0.03416,0.0244,0.03904,0.07808,0.03904,0.01464,-0.00488,-0.00488
0.02928,-0.0122,-0.00488,-0.01952,-0.03416,0.03172,0.03904,0.08296,0.04392,0.01952,0,0.00488
0.03416,-0.01708,0,-0.01708,-0.03416,0.03416,0.04392,0.08784,0.04392,0.0244,0,0.00488
0.0488,-0.02928,0.00976,-0.01464,-0.03904,0.04392,0.04392,0.0976,0.05368,0.02928,0.00976,0.00976
0.05856,-0.03904,0.01952,-0.00976,-0.03904,0.0488,0.03904,0.10248,0.0488,0.03416,0.00488,0.00976
0.06832,-0.0488,0.02928,-0.00488,-0.03904,0.05368,0.03416,0.10736,0.05368,0.03904,0.00976,0.00976
0.07808,-0.05612,0.03416,-0.00488,-0.04392,0.061,0.02928,0.11224,0.05368,0.04392,0.00976,0.01464
0.08784,-0.06588,0.04392,0,-0.04392,0.06588,0.02928,0.11712,0.05368,0.0488,0.01952,0.0244
0.0976,-0.07564,0.05368,0.00488,-0.04392,0.07076,0.0244,0.12688,0.06832,0.05368,0.0244,0.0244
0.11224,-0.08784,0.06344,0.00732,-0.0488,0.08052,0.01952,0.13176,0.0732,0.05856,0.02928,0.02928
0.11224,-0.09028,0.06832,0.0122,-0.04392,0.07808,0.01464,0.13664,0.0732,0.06344,0.03904,0.02928
0.122,-0.0976,0.0732,0.0122,-0.0488,0.0854,0.00976,0.14152,0.07808,0.06832,0.04392,0.04392
0.13176,-0.10736,0.08296,0.01708,-0.0488,0.09028,0,0.14152,0.08296,0.0732,0.04392,0.0488
0.14152,-0.11712,0.09272,0.02196,-0.0488,0.09516,-0.00488,0.1464,0.08296,0.07808,0.0488,0.05856
0.1464,-0.122,0.0976,0.0244,-0.0488,0.0976,-0.00488,0.1464,0.08296,0.07808,0.0488,0.05856
0.15128,-0.12688,0.10248,0.02684,-0.0488,0.10004,-0.00488,0.1464,0.08784,0.08296,0.05368,0.06344
0.15616,-0.12932,0.10248,0.0244,-0.05368,0.10492,-0.00976,0.1464,0.08784,0.08296,0.05368,0.06344
0.16592,-0.13908,0.11224,0.02928,-0.05368,0.1098,-0.00976,0.15128,0.08784,0.08784,0.05856,0.0732
0.1708,-0.13908,0.10736,0.02196,-0.06344,0.11712,-0.01464,0.1464,0.08784,0.08784,0.05856,0.0732
0.1708,-0.14152,0.11224,0.02684,-0.05856,0.11468,-0.01464,0.1464,0.08784,0.09272,0.06344,0.0732
0.1708,-0.14152,0.11224,0.02684,-0.05856,0.11468,-0.01464,0.1464,0.08784,0.09272,0.06344,0.07808
0.16592,-0.13908,0.11224,0.02928,-0.05368,0.1098,-0.01464,0.1464,0.08784,0.09272,0.06344,0.07808
0.16592,-0.14152,0.11712,0.03416,-0.0488,0.10736,-0.01464,0.1464,0.08784,0.09272,0.06344,0.07808
0.16592,-0.14152,0.11712,0.03416,-0.0488,0.10736,-0.01464,0.15128,0.08784,0.09272,0.06344,0.07808
0.16592,-0.14396,0.122,0.03904,-0.04392,0.10492,-0.01464,0.14152,0.08296,0.09272,0.06832,0.08296
0.16592,-0.14152,0.11712,0.03416,-0.0488,0.10736,-0.01464,0.13664,0.08296,0.09272,0.06832,0.08784
0.16104,-0.13908,0.11712,0.0366,-0.04392,0.10248,-0.01464,0.13176,0.07808,0.08296,0.06344,0.08296
0.15616,-0.1342,0.11224,0.03416,-0.04392,0.10004,-0.00976,0.12688,0.07808,0.08296,0.05856,0.08296
0.1464,-0.12688,0.10736,0.03416,-0.03904,0.09272,-0.00976,0.122,0.06832,0.07808,0.05856,0.07808
0.13664,-0.11956,0.10248,0.03416,-0.03416,0.0854,-0.00976,0.11224,0.05856,0.0732,0.05368,0.0732
0.12688,-0.10736,0.08784,0.0244,-0.03904,0.08296,-0.00976,0.0976,0.05368,0.06832,0.05368,0.0732
0.11224,-0.09516,0.07808,0.02196,-0.03416,0.0732,-0.00976,0.08784,0.0488,0.05856,0.03904,0.06832
0.10248,-0.0854,0.06832,0.01708,-0.03416,0.06832,-0.00976,0.07808,0.03904,0.0488,0.03904,0.05856
0.08784,-0.07076,0.05368,0.00976,-0.03416,0.061,-0.00976,0.06832,0.02928,0.0488,0.03416,0.05368
0.0732,-0.05856,0.04392,0.00732,-0.02928,0.05124,-0.00976,0.05856,0.0244,0.03416,0.02928,0.05368
0.06344,-0.0488,0.03416,0.00244,-0.02928,0.04636,-0.01464,0.0488,0.01952,0.02928,0.0244,0.0488
0.05368,-0.04148,0.02928,0.00244,-0.0244,0.03904,-0.01464,0.03416,0.01464,0.0244,0.01952,0.04392
0.04392,-0.03172,0.01952,-0.00244,-0.0244,0.03416,-0.01464,0.01952,0.00488,0.01952,0.01952,0.03904
0.03416,-0.0244,0.01464,-0.00244,-0.01952,0.02684,-0.01464,0.01952,0.00488,0.01464,0.00976,0.03904
0.03416,-0.01952,0.00488,-0.0122,-0.02928,0.03172,-0.01464,0.01464,0,0.01464,0.00488,0.03904
0.02928,-0.01464,0,-0.01464,-0.02928,0.02928,-0.01464,0.00976,-0.00488,0.00976,0.00488,0.02928
0.02928,-0.0122,-0.00488,-0.01952,-0.03416,0.03172,-0.01464,0.00488,-0.00488,0.00976,0.00488,0.02928
0.0244,-0.00976,-0.00488,-0.01708,-0.02928,0.02684,-0.01464,0,-0.00488,0.00976,0.00488,0.02928
0.01952,-0.00732,-0.00488,-0.01464,-0.0244,0.02196,-0.01464,0,-0.00488,0.00976,0.00488,0.02928
0.01952,-0.00732,-0.00488,-0.01464,-0.0244,0.02196,-0.01464,0,-0.00488,0,0.00488,0.02928
0.01952,-0.00732,-0.00488,-0.01464,-0.0244,0.02196,-0.01464,0,-0.00488,0,0,0.02928
0.01952,-0.00732,-0.00488,-0.01464,-0.0244,0.02196,-0.01952,0,-0.00976,0.00488,0,0.02928
0.01952,-0.00732,-0.00488,-0.01464,-0.0244,0.02196,-0.01952,-0.00488,-0.00976,0.00488,-0.00488,0.0244
0.01952,-0.00732,-0.00488,-0.01464,-0.0244,0.02196,-0.01952,-0.00488,-0.00976,0.00488,-0.00488,0.0244
0.01464,-0.00488,-0.00488,-0.0122,-0.01952,0.01708,-0.01952,-0.00488,-0.00976,0.00488,-0.00488,0.0244
0.01464,-0.00488,-0.00488,-0.0122,-0.01952,0.01708,-0.01952,-0.00488,-0.00976,0,-0.00488,0.0244
0.01464,-0.00488,-0.00488,-0.0122,-0.01952,0.01708,-0.01464,-0.00488,-0.00976,0,-0.00488,0.0244
0.00976,-0.00244,-0.00488,-0.00976,-0.01464,0.0122,-0.00976,-0.00976,-0.00976,0,-0.00488,0.01952
0.00976,-0.00244,-0.00488,-0.00976,-0.01464,0.0122,-0.00488,-0.00976,-0.00976,0,-0.00488,0.01952
0.00976,-0.00244,-0.00488,-0.00976,-0.01464,0.0122,-0.00488,-0.00976,-0.00976,0.00488,-0.00488,0.0244
0.00488,0,-0.00488,-0.00732,-0.00976,0.00732,0,-0.00976,-0.00976,0.00488,-0.00488,0.02928
0.00488,0,-0.00488,-0.00732,-0.00976,0.00732,0,-0.00976,-0.00976,0.00488,-0.00488,0.02928
0.00488,0,-0.00488,-0.00732,-0.00976,0.00732,0,-0.00976,-0.00488,0.00488,-0.00976,0.02928
0.00488,0,-0.00488,-0.00732,-0.00976,0.00732,0,-0.00976,-0.00488,0.00488,-0.00976,0.02928
0.00488,0,-0.00488,-0.00732,-0.00976,0.00732,0.00488,-0.00976,-0.00488,0.00488,-0.00488,0.02928
0,0.00244,-0.00488,-0.00488,-0.00488,0.00244,0.00488,-0.00976,-0.00488,0.00976,-0.00488,0.02928
-0.00488,0.00488,-0.00488,-0.00244,0,-0.00244,0.00488,-0.00976,-0.00488,0.00976,-0.00488,0.02928
-0.00976,0.00732,-0.00488,0,0.00488,-0.00732,0.00488,-0.00976,-0.00488,0.00976,-0.00488,0.0244
-0.00976,0.00732,-0.00488,0,0.00488,-0.00732,0.00488,-0.00976,-0.00976,0.00488,-0.00488,0.0244
-0.00976,0.00732,-0.00488,0,0.00488,-0.00732,0.00488,-0.01464,-0.00976,0,-0.00488,0.0244
-0.00976,0.00488,0,0.00488,0.00976,-0.00976,0.00488,-0.01464,-0.00976,-0.00488,-0.00488,0.0244
-0.00976,0.00488,0,0.00488,0.00976,-0.00976,0.00488,-0.01464,-0.00976,-0.00488,-0.00488,0.0244
-0.00976,0.00488,0,0.00488,0.00976,-0.00976,0.00488,-0.01464,-0.00976,-0.00488,-0.00488,0.0244
-0.00976,0.00732,-0.00488,0,0.00488,-0.00732,0,-0.01464,-0.00976,0,0,0.0244
-0.00488,0.00488,-0.00488,-0.00244,0,-0.00244,-0.00488,-0.01464,-0.00976,0,0,0.0244
-0.00488,0.00244,0,0.00244,0.00488,-0.00488,-0.00488,-0.01464,-0.00976,0,0,0.01952
-0.00488,0.00244,0,0.00244,0.00488,-0.00488,-0.00488,-0.01464,-0.01464,0,0,0.01952
-0.00488,0.00488,-0.00488,-0.00244,0,-0.00244,-0.00488,-0.01464,-0.01464,-0.00488,0,0.01464
-0.00488,0.00488,-0.00488,-0.00244,0,-0.00244,-0.00976,-0.01952,-0.01464,-0.00488,0,0.01464
-0.00488,0.00488,-0.00488,-0.00244,0,-0.00244,-0.00976,-0.01952,-0.01464,-0.00488,0,0.00976
-0.00976,0.00732,-0.00488,0,0.00488,-0.00732,-0.00976,-0.01952,-0.01464,-0.00488,0,0.00488
-0.00488,0.00488,-0.00488,-0.00244,0,-0.00244,-0.00976,-0.01952,-0.01464,-0.00488,0,0.00488
0,0.00244,-0.00488,-0.00488,-0.00488,0.00244,-0.01464,-0.01952,-0.01952,-0.00488,0,0.00488
-0.00488,0.00488,-0.00488,-0.00244,0,-0.00244,-0.01464,-0.01952,-0.01952,-0.00488,-0.00488,0.00488
-0.00488,0.00488,-0.00488,-0.00244,0,-0.00244,-0.01464,-0.0244,-0.01952,-0.00488,-0.00976,0.00488
-0.00976,0.00732,-0.00488,0,0.00488,-0.00732,-0.01464,-0.0244,-0.01952,-0.00488,-0.00976,0
-0.00976,0.00732,-0.00488,0,0.00488,-0.00732,-0.01464,-0.0244,-0.0244,-0.00488,-0.00976,0
-0.00976,0.00732,-0.00488,0,0.00488,-0.00732,-0.01464,-0.0244,-0.0244,-0.00976,-0.00976,0
-0.00976,0.00732,-0.00488,0,0.00488,-0.00732,-0.01464,-0.0244,-0.0244,-0.01464,-0.00976,0
-0.00976,0.00976,-0.00976,-0.00488,0,-0.00488,-0.00976,-0.0244,-0.0244,-0.01464,-0.00976,0
-0.01464,0.0122,-0.00976,-0.00244,0.00488,-0.00976,-0.00976,-0.0244,-0.02928,-0.01464,-0.00976,0.00488
-0.01464,0.0122,-0.00976,-0.00244,0.00488,-0.00976,-0.00976,-0.0244,-0.02928,-0.01464,-0.00976,0.00488
-0.01464,0.0122,-0.00976,-0.00244,0.00488,-0.00976,-0.00976,-0.0244,-0.02928,-0.01464,-0.00976,0.00488
-0.01464,0.01464,-0.01464,-0.00732,0,-0.00732,-0.00976,-0.0244,-0.02928,-0.01464,-0.00976,0.00488
-0.01464,0.01464,-0.01464,-0.00732,0,-0.00732,-0.00976,-0.02928,-0.02928,-0.01952,-0.00976,0.00488
-0.01464,0.01464,-0.01464,-0.00732,0,-0.00732,-0.00976,-0.02928,-0.0244,-0.01952,-0.00976,0
-0.01464,0.01464,-0.01464,-0.00732,0,-0.00732,-0.00976,-0.02928,-0.01952,-0.01464,-0.00976,0
-0.01464,0.01464,-0.01464,-0.00732,0,-0.00732,-0.00976,-0.02928,-0.01952,-0.01464,-0.00976,0
-0.01464,0.01464,-0.01464,-0.00732,0,-0.00732,-0.00976,-0.02928,-0.01952,-0.01464,-0.00976,-0.00976
-0.01464,0.01464,-0.01464,-0.00732,0,-0.00732,-0.00976,-0.02928,-0.01952,-0.01464,-0.00976,0
-0.01464,0.01464,-0.01464,-0.00732,0,-0.00732,-0.00976,-0.02928,-0.01952,-0.01464,-0.00976,0
-0.01464,0.01464,-0.01464,-0.00732,0,-0.00732,-0.00976,-0.02928,-0.01952,-0.01464,-0.00976,0
-0.01464,0.01464,-0.01464,-0.00732,0,-0.00732,-0.00976,-0.02928,-0.01952,-0.01464,-0.00976,0
-0.01464,0.01464,-0.01464,-0.00732,0,-0.00732,-0.00976,-0.02928,-0.01952,-0.01464,-0.00976,-0.00488
-0.01464,0.0122,-0.00976,-0.00244,0.00488,-0.00976,-0.00976,-0.02928,-0.01952,-0.01464,-0.00976,-0.00976
-0.01464,0.0122,-0.00976,-0.00244,0.00488,-0.00976,-0.00976,-0.02928,-0.01952,-0.01464,-0.00976,-0.00488
-0.01464,0.0122,-0.00976,-0.00244,0.00488,-0.00976,-0.00976,-0.02928,-0.01952,-0.01464,-0.00976,-0.00488
-0.01464,0.0122,-0.00976,-0.00244,0.00488,-0.00976,-0.00976,-0.02928,-0.0244,-0.01464,-0.00976,-0.00488
-0.01464,0.01464,-0.01464,-0.00732,0,-0.00732,-0.00976,-0.0244,-0.02928,-0.01464,-0.00976,-0.00488
-0.01464,0.01464,-0.01464,-0.00732,0,-0.00732,-0.00976,-0.0244,-0.0244,-0.01464,-0.00976,-0.00488
-0.01464,0.01464,-0.01464,-0.00732,0,-0.00732,-0.00976,-0.0244,-0.0244,-0.01464,-0.00976,-0.00488
-0.01464,0.01464,-0.01464,-0.00732,0,-0.00732,-0.00976,-0.0244,-0.01952,-0.00976,-0.00976,0
-0.01464,0.0122,-0.00976,-0.00244,0.00488,-0.00976,-0.00976,-0.0244,-0.01464,-0.00488,-0.00976,0.00488
-0.01464,0.0122,-0.00976,-0.00244,0.00488,-0.00976,-0.00976,-0.0244,-0.01464,-0.00488,-0.00976,0.00488
-0.00976,0.00732,-0.00488,0,0.00488,-0.00732,-0.00976,-0.01952,-0.01464,-0.00488,-0.00976,0.00488
-0.00976,0.00732,-0.00488,0,0.00488,-0.00732,-0.00976,-0.01952,-0.01464,-0.00976,-0.00976,0.00488
-0.00976,0.00976,-0.00976,-0.00488,0,-0.00488,-0.00976,-0.01952,-0.01952,-0.00976,-0.00976,0
-0.00976,0.00976,-0.00976,-0.00488,0,-0.00488,-0.00976,-0.01952,-0.01952,-0.00976,-0.00976,0
-0.00976,0.00976,-0.00976,-0.00488,0,-0.00488,-0.00976,-0.01952,-0.01952,-0.00976,-0.00976,0
-0.00976,0.00976,-0.00976,-0.00488,0,-0.00488,-0.00976,-0.01952,-0.01464,-0.00976,-0.00976,0
-0.00976,0.00976,-0.00976,-0.00488,0,-0.00488,-0.00976,-0.01464,-0.00976,-0.00976,-0.00976,0
-0.00976,0.00732,-0.00488,0,0.00488,-0.00732,-0.00976,-0.01464,-0.00976,-0.00976,-0.00976,0
-0.00976,0.00732,-0.00488,0,0.00488,-0.00732,-0.00976,-0.01464,-0.00976,-0.00976,-0.00976,-0.00488
-0.00488,0.00244,0,0.00244,0.00488,-0.00488,-0.00976,-0.00976,-0.00488,-0.00976,-0.00976,0
0,0,0,0,0,0,-0.00976,-0.00976,0,-0.00976,-0.00976,0
0,0,0,0,0,0,-0.00976,-0.00976,0,-0.00976,-0.00976,0
0,0,0,0,0,0,-0.00976,-0.00976,0,-0.00976,-0.00976,0
0,0,0,0,0,0,-0.00976,-0.00976,0,-0.00976,-0.00488,0
0,0,0,0,0,0,-0.00976,-0.00976,0,-0.00488,0,0
0,0,0,0,0,0,-0.00976,-0.00976,0,-0.00488,0,0
0,0,0,0,0,0,-0.00976,-0.00976,0,-0.00488,0,0
-0.00488,0.00244,0,0.00244,0.00488,-0.00488,-0.00488,-0.00976,0,-0.00488,0,0
-0.00488,0.00244,0,0.00244,0.00488,-0.00488,-0.00488,-0.00976,0,-0.00488,0,0
-0.00488,0.00244,0,0.00244,0.00488,-0.00488,-0.00488,-0.00976,-0.00488,-0.00488,0,0
-0.00976,0.00488,0,0.00488,0.00976,-0.00976,-0.00488,-0.00976,-0.00976,-0.00488,0,0
-0.00976,0.00488,0,0.00488,0.00976,-0.00976,-0.00488,-0.00488,-0.00488,-0.00488,0,0.00488
-0.00488,0,0.00488,0.00732,0.00976,-0.00732,-0.00488,0,-0.00488,-0.00488,0,0.00976
0,-0.00488,0.00976,0.00976,0.00976,-0.00488,0.00488,0.00488,0.00488,0.00488,0,0.00976
0.00976,-0.01952,0.02928,0.0244,0.01952,-0.00488,0.00976,0.00976,0.01464,0.00976,0.00976,0.01952
0.01464,-0.03172,0.0488,0.04148,0.03416,-0.00976,0.0244,0.01464,0.0244,0.01952,0.01952,0.0244
0.0244,-0.04148,0.05856,0.04636,0.03416,-0.00488,0.0244,0.01952,0.03416,0.0244,0.0244,0.02928
0.02928,-0.0488,0.06832,0.05368,0.03904,-0.00488,0.02928,0.02928,0.03416,0.03416,0.02928,0.02928
0.04392,-0.061,0.07808,0.05612,0.03416,0.00488,0.02928,0.03416,0.03904,0.03416,0.03416,0.03416
0.04392,-0.061,0.07808,0.05612,0.03416,0.00488,0.02928,0.03904,0.0488,0.03904,0.02928,0.03416
0.0488,-0.06588,0.08296,0.05856,0.03416,0.00732,0.02928,0.04392,0.0488,0.04392,0.03416,0.04392
0.06344,-0.07564,0.08784,0.05612,0.0244,0.01952,0.01952,0.04392,0.0488,0.0488,0.03904,0.0488
0.06344,-0.07808,0.09272,0.061,0.02928,0.01708,0.00976,0.04392,0.05368,0.05368,0.04392,0.05368
0.0732,-0.09272,0.11224,0.07564,0.03904,0.01708,0,0.04392,0.05368,0.05368,0.0488,0.06344
0.08784,-0.10248,0.11712,0.0732,0.02928,0.02928,-0.00976,0.04392,0.04392,0.05368,0.05368,0.06344
0.09272,-0.0976,0.10248,0.05612,0.00976,0.04148,-0.02928,0.0488,0.03904,0.04392,0.05368,0.05856
0.09272,-0.09272,0.09272,0.04636,0,0.04636,-0.03416,0.03904,0.0244,0.02928,0.04392,0.05368
0.08296,-0.06832,0.05368,0.0122,-0.02928,0.05612,-0.04392,0.02928,0.00976,0.01952,0.02928,0.03904
0.07808,-0.05856,0.03904,0,-0.03904,0.05856,-0.04392,0.01952,0,0.00976,0.01952,0.03904
0.06344,-0.04636,0.02928,-0.00244,-0.03416,0.0488,-0.04392,0.01464,-0.00488,0.00488,0.01952,0.02928
0.06344,-0.04392,0.0244,-0.00732,-0.03904,0.05124,-0.04392,0.00488,-0.00976,0.00488,0.01952,0.02928
0.05856,-0.04148,0.0244,-0.00488,-0.03416,0.04636,-0.04392,0.00488,-0.01464,0.00488,0.01952,0.02928
0.04392,-0.03172,0.01952,-0.00244,-0.0244,0.03416,-0.04392,0.00488,-0.01464,0.00488,0.01952,0.02928
0.0244,-0.01464,0.00488,-0.00732,-0.01952,0.02196,-0.02928,0,-0.01464,-0.00488,0.00976,0.00976
0,0.00732,-0.01464,-0.01464,-0.01464,0.00732,-0.01952,0,-0.01464,-0.00488,0,0
-0.00976,0.01952,-0.02928,-0.0244,-0.01952,0.00488,-0.01464,-0.00976,-0.01952,-0.00976,-0.00976,-0.00976
-0.01464,0.0244,-0.03416,-0.02684,-0.01952,0.00244,-0.00976,-0.01464,-0.01952,-0.01464,-0.01464,-0.00976
-0.0244,0.03416,-0.04392,-0.03172,-0.01952,-0.00244,-0.00976,-0.01952,-0.01952,-0.01464,-0.01464,-0.01464
-0.0244,0.03416,-0.04392,-0.03172,-0.01952,-0.00244,-0.00976,-0.01952,-0.0244,-0.01464,-0.01952,-0.01952
-0.02928,0.03904,-0.0488,-0.03416,-0.01952,-0.00488,-0.00976,-0.01952,-0.0244,-0.01952,-0.01952,-0.01952
-0.02928,0.03904,-0.0488,-0.03416,-0.01952,-0.00488,-0.00976,-0.01952,-0.0244,-0.01952,-0.01952,-0.01952
-0.03416,0.04148,-0.0488,-0.03172,-0.01464,-0.00976,-0.00976,-0.01952,-0.0244,-0.01952,-0.01952,-0.01952
-0.03416,0.04148,-0.0488,-0.03172,-0.01464,-0.00976,-0.00976,-0.01952,-0.0244,-0.01952,-0.01952,-0.01952
-0.03416,0.04148,-0.0488,-0.03172,-0.01464,-0.00976,-0.00976,-0.01952,-0.0244,-0.01952,-0.01952,-0.01952
-0.03416,0.04148,-0.0488,-0.03172,-0.01464,-0.00976,-0.00976,-0.01952,-0.0244,-0.01952,-0.01952,-0.01952
-0.03416,0.04148,-0.0488,-0.03172,-0.01464,-0.00976,-0.00488,-0.01464,-0.0244,-0.01952,-0.01952,-0.01952
-0.02928,0.03904,-0.0488,-0.03416,-0.01952,-0.00488,-0.00488,-0.01464,-0.01952,-0.01464,-0.01952,-0.01464
-0.02928,0.03904,-0.0488,-0.03416,-0.01952,-0.00488,-0.00488,-0.01464,-0.01952,-0.01464,-0.01952,-0.01464
-0.02928,0.03904,-0.0488,-0.03416,-0.01952,-0.00488,0,-0.00488,-0.01952,-0.01464,-0.01952,-0.01464
-0.0488,0.05368,-0.05856,-0.03416,-0.00976,-0.01952,0.0244,-0.01464,-0.00976,-0.01952,-0.03416,-0.03416
-0.0244,0.03416,-0.04392,-0.03172,-0.01952,-0.00244,0.03904,0.02928,0.01952,0,-0.02928,-0.03904
0.01464,0.00244,-0.01952,-0.02684,-0.03416,0.0244,0.03904,0.10248,0.05368,0.0488,-0.00488,-0.0244
0.16104,-0.10736,0.05368,-0.02684,-0.10736,0.1342,-0.0488,0.16592,0.08784,0.0976,0.05368,0.03416
0.48312,-0.37088,0.25864,0.01708,-0.22448,0.3538,-0.32208,0.28792,0.10248,0.18056,0.16104,0.15616
0.9028,-0.70516,0.50752,0.05612,-0.39528,0.64904,-0.66368,0.42944,0.13664,0.28304,0.29768,0.3172
1.23952,-0.98576,0.732,0.11224,-0.50752,0.87352,-0.93208,0.49288,0.15616,0.34648,0.3904,0.4392
1.3908,-1.11996,0.84912,0.15372,-0.54168,0.96624,-1.11752,0.4148,0.11224,0.38552,0.44408,0.52216
1.3176,-1.09312,0.86864,0.20984,-0.44896,0.88328,-1.21512,0.18544,-0.0244,0.28792,0.42944,0.5368
1.00528,-0.85888,0.71248,0.20984,-0.2928,0.64904,-1.18096,-0.10736,-0.19032,0.15128,0.39528,0.52704
0.3904,-0.40992,0.42944,0.23424,0.03904,0.17568,-1.01016,-0.49776,-0.34648,0,0.30256,0.50264
-0.0488,-0.12932,0.30744,0.33184,0.35624,-0.20252,-0.7808,-0.67832,-0.33184,-0.03904,0.27328,0.44896
-0.10736,-0.09516,0.29768,0.35136,0.40504,-0.2562,-0.59048,-0.52704,-0.2684,-0.0244,0.244,0.366
-0.09272,-0.07076,0.23424,0.2806,0.32696,-0.20984,-0.43432,-0.40504,-0.20008,-0.01464,0.19032,0.27328
-0.11712,-0.00244,0.122,0.18056,0.23912,-0.17812,-0.2928,-0.30744,-0.15128,-0.0244,0.10736,0.17568
-0.10736,0.01708,0.0732,0.12688,0.18056,-0.14396,-0.15128,-0.18056,-0.07808,-0.01464,0.05856,0.10248
-0.06832,0,0.06832,0.10248,0.13664,-0.10248,-0.08784,-0.11224,-0.05368,-0.00976,0.05856,0.06344
-0.06344,0.0122,0.03904,0.07076,0.10248,-0.08296,-0.06832,-0.0976,-0.04392,-0.00488,0.04392,0.05368
-0.05856,0.03904,-0.01952,0.00976,0.03904,-0.0488,-0.03904,-0.06832,-0.0244,-0.00488,0.00488,0.00488
-0.05856,0.05368,-0.0488,-0.01952,0.00976,-0.03416,0.00976,-0.03416,-0.01952,-0.00976,-0.01952,-0.01952
-0.05856,0.05368,-0.0488,-0.01952,0.00976,-0.03416,0.00976,-0.02928,-0.01952,-0.00976,-0.0244,-0.01952
-0.05856,0.05368,-0.0488,-0.01952,0.00976,-0.03416,0.00976,-0.02928,-0.01952,-0.01464,-0.02928,-0.01952
-0.05368,0.05612,-0.05856,-0.03172,-0.00488,-0.0244,0.00976,-0.0244,-0.01464,-0.01952,-0.02928,-0.0244
-0.05368,0.061,-0.06832,-0.04148,-0.01464,-0.01952,0.0244,-0.0244,-0.01464,-0.01952,-0.03416,-0.03416
-0.05368,0.061,-0.06832,-0.04148,-0.01464,-0.01952,0.0244,-0.01952,-0.01464,-0.01952,-0.03416,-0.03904
-0.05368,0.05856,-0.06344,-0.0366,-0.00976,-0.02196,0.02928,-0.01464,-0.01464,-0.01952,-0.03904,-0.03904
-0.05856,0.061,-0.06344,-0.03416,-0.00488,-0.02684,0.03416,-0.00488,-0.01464,-0.01952,-0.03904,-0.03904
-0.05856,0.061,-0.06344,-0.03416,-0.00488,-0.02684,0.03904,-0.00488,-0.01464,-0.01952,-0.03416,-0.03416
-0.05368,0.05856,-0.06344,-0.0366,-0.00976,-0.02196,0.03904,-0.00488,-0.00976,-0.01952,-0.03416,-0.02928
-0.0488,0.05612,-0.06344,-0.03904,-0.01464,-0.01708,0.03904,0,-0.00976,-0.01952,-0.03416,-0.0244
-0.04392,0.05124,-0.05856,-0.0366,-0.01464,-0.01464,0.03904,0,-0.00488,-0.01464,-0.02928,-0.0244
-0.03904,0.04636,-0.05368,-0.03416,-0.01464,-0.0122,0.03904,0.00488,-0.00488,-0.01464,-0.0244,-0.0244
-0.03416,0.04392,-0.05368,-0.0366,-0.01952,-0.00732,0.03904,0.00488,-0.00488,-0.01464,-0.0244,-0.01952
-0.03416,0.04392,-0.05368,-0.0366,-0.01952,-0.00732,0.03416,0.00488,-0.00488,-0.01464,-0.0244,-0.01952
-0.03416,0.04148,-0.0488,-0.03172,-0.01464,-0.00976,0.03416,0.00488,-0.00488,-0.00976,-0.0244,-0.01464
-0.03416,0.04148,-0.0488,-0.03172,-0.01464,-0.00976,0.03416,0,-0.00488,-0.00488,-0.0244,-0.01464
-0.03416,0.04148,-0.0488,-0.03172,-0.01464,-0.00976,0.03416,0,-0.00488,-0.00488,-0.0244,-0.01952
-0.02928,0.03904,-0.0488,-0.03416,-0.01952,-0.00488,0.03416,0,-0.00488,-0.00488,-0.0244,-0.0244
-0.0244,0.03416,-0.04392,-0.03172,-0.01952,-0.00244,0.03416,0.00488,-0.00488,-0.00488,-0.01952,-0.0244
-0.01952,0.03172,-0.04392,-0.03416,-0.0244,0.00244,0.03416,0.00976,0,-0.00488,-0.01952,-0.0244
-0.0244,0.03416,-0.04392,-0.03172,-0.01952,-0.00244,0.03416,0.00976,0,-0.00488,-0.01952,-0.0244
-0.01952,0.02928,-0.03904,-0.02928,-0.01952,0,0.03416,0.00976,0,0,-0.01952,-0.0244
-0.01952,0.02928,-0.03904,-0.02928,-0.01952,0,0.03416,0.01952,0.00488,-0.00488,-0.01464,-0.0244
-0.00976,0.01952,-0.02928,-0.0244,-0.01952,0.00488,0.03416,0.0244,0.00976,-0.00488,-0.01464,-0.0244
-0.00976,0.01708,-0.0244,-0.01952,-0.01464,0.00244,0.03416,0.01952,0.00488,0,-0.01464,-0.01952
-0.00976,0.01464,-0.01952,-0.01464,-0.00976,0,0.03416,0.01952,0.00488,0.00488,-0.01952,-0.01464
0,0.00976,-0.01952,-0.01952,-0.01952,0.00976,0.03416,0.0244,0.00488,0.00488,-0.01952,-0.01464
0.00488,0.00732,-0.01952,-0.02196,-0.0244,0.01464,0.03416,0.02928,0.00976,0.00976,-0.00976,-0.01464
0.00976,0,-0.00976,-0.01464,-0.01952,0.01464,0.03416,0.03416,0.00976,0.00976,-0.00976,-0.01464
0.01464,-0.00488,-0.00488,-0.0122,-0.01952,0.01708,0.03416,0.03904,0.01464,0.01464,-0.00488,-0.00976
0.01952,-0.00976,0,-0.00976,-0.01952,0.01952,0.03416,0.04392,0.01464,0.01464,-0.00488,-0.01464
0.0244,-0.01464,0.00488,-0.00732,-0.01952,0.02196,0.03416,0.0488,0.0244,0.00976,-0.00488,-0.01464
0.02928,-0.01952,0.00976,-0.00488,-0.01952,0.0244,0.03416,0.05368,0.0244,0.01464,0,-0.01464
0.04392,-0.02928,0.01464,-0.00732,-0.02928,0.0366,0.03416,0.06344,0.03416,0.01952,0.00488,-0.00488
0.04392,-0.03172,0.01952,-0.00244,-0.0244,0.03416,0.02928,0.06832,0.03904,0.0244,0.00488,-0.00488
0.05856,-0.04636,0.03416,0.00488,-0.0244,0.04148,0.02928,0.0732,0.04392,0.02928,0.00976,0.00488
0.06344,-0.05368,0.04392,0.0122,-0.01952,0.04148,0.03416,0.07808,0.04392,0.03416,0.00976,0.00976
0.07808,-0.06832,0.05856,0.01952,-0.01952,0.0488,0.03416,0.08784,0.05368,0.03904,0.01952,0.01952
0.08784,-0.07808,0.06832,0.0244,-0.01952,0.05368,0.02928,0.09272,0.05368,0.04392,0.01952,0.01952
0.0976,-0.08784,0.07808,0.02928,-0.01952,0.05856,0.0244,0.0976,0.06344,0.0488,0.02928,0.01952
0.10736,-0.09516,0.08296,0.02928,-0.0244,0.06588,0.01952,0.10248,0.06832,0.05368,0.02928,0.0244
0.11712,-0.10492,0.09272,0.03416,-0.0244,0.07076,0.01952,0.10736,0.0732,0.05856,0.03904,0.03416
0.12688,-0.11468,0.10248,0.03904,-0.0244,0.07564,0.01464,0.11712,0.08296,0.06344,0.04392,0.03416
0.14152,-0.12688,0.11224,0.04148,-0.02928,0.0854,0.00976,0.122,0.08296,0.06832,0.0488,0.03904
0.14152,-0.12932,0.11712,0.04636,-0.0244,0.08296,0.00488,0.12688,0.08296,0.0732,0.05368,0.03904
0.15128,-0.13664,0.122,0.04636,-0.02928,0.09028,0,0.13176,0.08784,0.07808,0.05368,0.05368
0.15616,-0.14152,0.12688,0.0488,-0.02928,0.09272,-0.00488,0.13176,0.08784,0.08296,0.05368,0.05368
0.16104,-0.1464,0.13176,0.05124,-0.02928,0.09516,-0.00488,0.13664,0.08296,0.08784,0.05856,0.05856
0.16592,-0.14884,0.13176,0.0488,-0.03416,0.10004,-0.00488,0.13664,0.08296,0.08784,0.05856,0.05856
0.1708,-0.15128,0.13176,0.04636,-0.03904,0.10492,-0.00488,0.13664,0.08784,0.09272,0.06344,0.06344
0.17568,-0.15372,0.13176,0.04392,-0.04392,0.1098,-0.00976,0.13664,0.08784,0.08784,0.06344,0.06344
0.18544,-0.16348,0.14152,0.0488,-0.04392,0.11468,-0.00976,0.14152,0.08784,0.08784,0.06832,0.0732
0.19032,-0.16592,0.14152,0.04636,-0.0488,0.11956,-0.01952,0.13664,0.08784,0.08784,0.06832,0.0732
0.19032,-0.1708,0.15128,0.05612,-0.03904,0.11468,-0.0244,0.13664,0.08784,0.09272,0.0732,0.0732
0.1952,-0.17324,0.15128,0.05368,-0.04392,0.11956,-0.0244,0.13664,0.08784,0.09272,0.0732,0.07808
0.1952,-0.17324,0.15128,0.05368,-0.04392,0.11956,-0.0244,0.13664,0.08784,0.09272,0.0732,0.07808
0.1952,-0.17568,0.15616,0.05856,-0.03904,0.11712,-0.0244,0.13664,0.08784,0.09272,0.0732,0.07808
0.1952,-0.17568,0.15616,0.05856,-0.03904,0.11712,-0.0244,0.14152,0.08784,0.09272,0.0732,0.07808
0.19032,-0.17324,0.15616,0.061,-0.03416,0.11224,-0.0244,0.13176,0.08296,0.09272,0.0732,0.07808
0.18544,-0.16592,0.1464,0.05368,-0.03904,0.11224,-0.0244,0.12688,0.08296,0.09272,0.06832,0.07808
0.18056,-0.16104,0.14152,0.05124,-0.03904,0.1098,-0.0244,0.122,0.0732,0.08296,0.06344,0.0732
0.17568,-0.15372,0.13176,0.04392,-0.04392,0.1098,-0.01952,0.11712,0.06832,0.08296,0.05856,0.0732
0.16592,-0.1464,0.12688,0.04392,-0.03904,0.10248,-0.01952,0.11224,0.06344,0.07808,0.05856,0.06832
0.15616,-0.13908,0.122,0.04392,-0.03416,0.09516,-0.01952,0.10248,0.05856,0.0732,0.05368,0.06344
0.1464,-0.12688,0.10736,0.03416,-0.03904,0.09272,-0.01952,0.08784,0.05368,0.06832,0.05368,0.06344
0.13176,-0.11468,0.0976,0.03172,-0.03416,0.08296,-0.01952,0.07808,0.0488,0.05856,0.03904,0.05856
0.122,-0.10736,0.09272,0.03172,-0.02928,0.07564,-0.01952,0.06832,0.03904,0.0488,0.03904,0.0488
0.10736,-0.09516,0.08296,0.02928,-0.0244,0.06588,-0.01952,0.05856,0.02928,0.0488,0.03416,0.04392
0.0976,-0.0854,0.0732,0.0244,-0.0244,0.061,-0.01464,0.0488,0.0244,0.03904,0.02928,0.04392
0.09272,-0.07808,0.06344,0.01708,-0.02928,0.061,-0.01464,0.03904,0.01952,0.03904,0.0244,0.03904
0.08296,-0.07076,0.05856,0.01708,-0.0244,0.05368,-0.01464,0.03416,0.01952,0.03416,0.01952,0.03416
0.0732,-0.061,0.0488,0.0122,-0.0244,0.0488,-0.01464,0.02928,0.01464,0.02928,0.01952,0.02928
0.06344,-0.05612,0.0488,0.01708,-0.01464,0.03904,-0.01464,0.02928,0.01464,0.0244,0.01464,0.02928
0.06344,-0.05368,0.04392,0.0122,-0.01952,0.04148,-0.01464,0.0244,0.00976,0.0244,0.01464,0.02928
0.05856,-0.0488,0.03904,0.00976,-0.01952,0.03904,-0.01464,0.01952,0.00488,0.01952,0.00976,0.01952
0.05856,-0.04636,0.03416,0.00488,-0.0244,0.04148,-0.01464,0.01464,0.00488,0.01952,0.00488,0.01952
0.05368,-0.04392,0.03416,0.00732,-0.01952,0.0366,-0.01464,0.00976,0,0.01952,0.00488,0.01952
0.0488,-0.04148,0.03416,0.00976,-0.01464,0.03172,-0.01464,0.00976,-0.00488,0.01952,0.00488,0.01952
0.04392,-0.0366,0.02928,0.00732,-0.01464,0.02928,-0.01464,0.00488,-0.00488,0.00976,0.00976,0.01952
0.03904,-0.03172,0.0244,0.00488,-0.01464,0.02684,-0.01464,0,-0.00488,0.00976,0.00976,0.01952
0.03904,-0.03172,0.0244,0.00488,-0.01464,0.02684,-0.01952,0,-0.00976,0.00976,0.00976,0.0244
0.03904,-0.03172,0.0244,0.00488,-0.01464,0.02684,-0.01952,-0.00488,-0.00976,0.00488,0.00488,0.0244
0.04392,-0.03416,0.0244,0.00244,-0.01952,0.03172,-0.01952,-0.00488,-0.00976,0.00488,0.00488,0.0244
0.04392,-0.03416,0.0244,0.00244,-0.01952,0.03172,-0.01952,-0.00488,-0.00976,0.00488,0.00488,0.0244
0.03904,-0.03172,0.0244,0.00488,-0.01464,0.02684,-0.01952,-0.00488,-0.00976,0,0,0.0244
0.03416,-0.02928,0.0244,0.00732,-0.00976,0.02196,-0.01464,-0.00488,-0.00976,0,-0.00488,0.0244
0.02928,-0.02684,0.0244,0.00976,-0.00488,0.01708,-0.01464,-0.00976,-0.00976,0,-0.00488,0.01952
0.02928,-0.02684,0.0244,0.00976,-0.00488,0.01708,-0.01464,-0.00976,-0.00976,0,-0.00488,0.01952
0.02928,-0.0244,0.01952,0.00488,-0.00976,0.01952,-0.01464,-0.00976,-0.00488,0,-0.00488,0.01952
0.0244,-0.01952,0.01464,0.00244,-0.00976,0.01708,-0.00976,-0.00976,0,-0.00488,-0.00488,0.01952
0.0244,-0.01952,0.01464,0.00244,-0.00976,0.01708,-0.00976,-0.00976,-0.00488,-0.00488,-0.00488,0.01464
0.0244,-0.01952,0.01464,0.00244,-0.00976,0.01708,-0.00976,-0.00976,-0.00488,-0.00488,-0.00976,0.00976
0.0244,-0.01952,0.01464,0.00244,-0.00976,0.01708,-0.00976,-0.00976,-0.00488,-0.00488,-0.00976,0.00976
0.0244,-0.01952,0.01464,0.00244,-0.00976,0.01708,-0.00488,-0.00976,-0.00488,-0.00488,-0.00488,0.00976
0.0244,-0.01952,0.01464,0.00244,-0.00976,0.01708,-0.00488,-0.00976,-0.00488,0,-0.00488,0.00976
0.0244,-0.01952,0.01464,0.00244,-0.00976,0.01708,-0.00488,-0.00976,-0.00488,0,-0.00488,0.00976
0.01952,-0.01708,0.01464,0.00488,-0.00488,0.0122,-0.00488,-0.00976,-0.00488,0,-0.00488,0.00976
0.01952,-0.01708,0.01464,0.00488,-0.00488,0.0122,-0.00488,-0.00976,-0.00976,-0.00488,-0.00488,0.01464
0.01952,-0.01464,0.00976,0,-0.00976,0.01464,-0.00488,-0.01464,-0.00976,-0.00488,-0.00488,0.00976
0.01952,-0.01464,0.00976,0,-0.00976,0.01464,-0.00488,-0.01464,-0.00976,-0.00488,-0.00488,0.00488
0.01952,-0.01464,0.00976,0,-0.00976,0.01464,-0.00976,-0.01464,-0.01464,-0.00488,-0.00488,0.00488
0.01952,-0.01464,0.00976,0,-0.00976,0.01464,-0.01464,-0.01464,-0.01952,-0.00488,-0.00488,0.00488
0.00976,-0.00732,0.00488,0,-0.00488,0.00732,-0.01464,-0.01464,-0.01952,-0.00488,-0.00488,0.00488
0.00488,-0.00488,0.00488,0.00244,0,0.00244,-0.01464,-0.01464,-0.01952,-0.00976,-0.00976,0.00488
0.00488,-0.00488,0.00488,0.00244,0,0.00244,-0.01464,-0.01464,-0.01952,-0.00976,-0.00976,0
0.00488,-0.00244,0,-0.00244,-0.00488,0.00488,-0.01464,-0.01464,-0.0244,-0.00976,-0.00976,0
0.00488,0,-0.00488,-0.00732,-0.00976,0.00732,-0.01464,-0.01464,-0.0244,-0.01464,-0.00976,-0.00488
0.00488,0,-0.00488,-0.00732,-0.00976,0.00732,-0.01952,-0.01952,-0.0244,-0.01464,-0.00976,-0.00488
0.00488,0.00244,-0.00976,-0.0122,-0.01464,0.00976,-0.01952,-0.01952,-0.0244,-0.01464,-0.01464,-0.00488
0,0.00732,-0.01464,-0.01464,-0.01464,0.00732,-0.01952,-0.01952,-0.0244,-0.01464,-0.01952,-0.00488
0,0.00732,-0.01464,-0.01464,-0.01464,0.00732,-0.01464,-0.01952,-0.0244,-0.01464,-0.01952,-0.00488
0,0.00732,-0.01464,-0.01464,-0.01464,0.00732,-0.01464,-0.01952,-0.02928,-0.01464,-0.01952,-0.00488
-0.00488,0.0122,-0.01952,-0.01708,-0.01464,0.00488,-0.01464,-0.01952,-0.02928,-0.01464,-0.01952,-0.00488
-0.00488,0.01464,-0.0244,-0.02196,-0.01952,0.00732,-0.01464,-0.0244,-0.02928,-0.01464,-0.01952,-0.00488
-0.00976,0.01708,-0.0244,-0.01952,-0.01464,0.00244,-0.01464,-0.02928,-0.02928,-0.01464,-0.01952,-0.00976
-0.00976,0.01708,-0.0244,-0.01952,-0.01464,0.00244,-0.01464,-0.03416,-0.03416,-0.01464,-0.01952,-0.00976
-0.00976,0.01464,-0.01952,-0.01464,-0.00976,0,-0.01952,-0.03416,-0.03416,-0.01952,-0.01952,-0.00976
-0.00976,0.0122,-0.01464,-0.00976,-0.00488,-0.00244,-0.0244,-0.03416,-0.03416,-0.0244,-0.01952,-0.00976
-0.00976,0.01464,-0.01952,-0.01464,-0.00976,0,-0.01952,-0.03416,-0.02928,-0.0244,-0.01464,-0.00976
-0.01464,0.01708,-0.01952,-0.0122,-0.00488,-0.00488,-0.01952,-0.03416,-0.02928,-0.0244,-0.00976,-0.00488
-0.01464,0.01708,-0.01952,-0.0122,-0.00488,-0.00488,-0.01952,-0.03416,-0.03416,-0.0244,-0.00976,-0.00488
-0.01464,0.01708,-0.01952,-0.0122,-0.00488,-0.00488,-0.01952,-0.03416,-0.03904,-0.0244,-0.00976,-0.00488
-0.01464,0.01708,-0.01952,-0.0122,-0.00488,-0.00488,-0.01952,-0.03416,-0.03904,-0.01952,-0.00976,-0.00488
-0.01464,0.01464,-0.01464,-0.00732,0,-0.00732,-0.01952,-0.03904,-0.03904,-0.01952,-0.00976,-0.00488
-0.01464,0.01464,-0.01464,-0.00732,0,-0.00732,-0.01952,-0.03904,-0.03904,-0.01952,-0.00976,-0.00976
-0.01464,0.01464,-0.01464,-0.00732,0,-0.00732,-0.01952,-0.03904,-0.03904,-0.01464,-0.00976,-0.00976
-0.01464,0.01464,-0.01464,-0.00732,0,-0.00732,-0.01952,-0.03904,-0.03904,-0.01952,-0.00976,-0.00976
-0.01464,0.01464,-0.01464,-0.00732,0,-0.00732,-0.01952,-0.03904,-0.03904,-0.0244,-0.00976,-0.01952
-0.01464,0.01464,-0.01464,-0.00732,0,-0.00732,-0.01952,-0.03904,-0.03904,-0.0244,-0.01464,-0.00976
-0.01464,0.01464,-0.01464,-0.00732,0,-0.00732,-0.01952,-0.03904,-0.03904,-0.0244,-0.01952,-0.00976
-0.01464,0.01464,-0.01464,-0.00732,0,-0.00732,-0.01952,-0.03904,-0.03904,-0.0244,-0.01952,-0.00976
-0.01464,0.01464,-0.01464,-0.00732,0,-0.00732,-0.01952,-0.03904,-0.03904,-0.0244,-0.01952,-0.00976
-0.01464,0.01464,-0.01464,-0.00732,0,-0.00732,-0.01952,-0.03904,-0.03904,-0.0244,-0.01952,-0.00976
-0.01464,0.0122,-0.00976,-0.00244,0.00488,-0.00976,-0.01952,-0.03904,-0.03904,-0.0244,-0.01952,-0.00976
-0.01464,0.0122,-0.00976,-0.00244,0.00488,-0.00976,-0.01952,-0.03904,-0.03904,-0.01952,-0.01952,-0.00488
-0.01464,0.0122,-0.00976,-0.00244,0.00488,-0.00976,-0.01952,-0.03904,-0.03904,-0.01464,-0.01952,-0.00488
-0.01464,0.0122,-0.00976,-0.00244,0.00488,-0.00976,-0.01952,-0.03904,-0.03904,-0.01464,-0.01952,-0.00488
-0.01464,0.01464,-0.01464,-0.00732,0,-0.00732,-0.01952,-0.03416,-0.03904,-0.01464,-0.01952,-0.00488
-0.00976,0.0122,-0.01464,-0.00976,-0.00488,-0.00244,-0.01952,-0.03416,-0.03416,-0.01464,-0.01952,-0.00488
-0.00488,0.00976,-0.01464,-0.0122,-0.00976,0.00244,-0.01952,-0.03416,-0.03416,-0.01464,-0.01952,-0.00488
-0.00488,0.00976,-0.01464,-0.0122,-0.00976,0.00244,-0.01952,-0.03416,-0.03904,-0.01464,-0.01952,-0.00488
-0.00488,0.00732,-0.00976,-0.00732,-0.00488,0,-0.01952,-0.03416,-0.04392,-0.01464,-0.01952,-0.00488
-0.00976,0.00976,-0.00976,-0.00488,0,-0.00488,-0.01952,-0.03416,-0.04392,-0.01464,-0.01952,-0.00488
-0.00976,0.00732,-0.00488,0,0.00488,-0.00732,-0.01952,-0.02928,-0.04392,-0.01464,-0.01952,-0.00488
-0.00976,0.00732,-0.00488,0,0.00488,-0.00732,-0.01952,-0.02928,-0.03904,-0.01952,-0.01952,0
-0.00976,0.00976,-0.00976,-0.00488,0,-0.00488,-0.01952,-0.02928,-0.03904,-0.01952,-0.01952,0
-0.00976,0.00976,-0.00976,-0.00488,0,-0.00488,-0.01952,-0.02928,-0.03904,-0.01952,-0.01952,0
-0.00976,0.00976,-0.00976,-0.00488,0,-0.00488,-0.01952,-0.02928,-0.03904,-0.01952,-0.01952,0
-0.00976,0.00976,-0.00976,-0.00488,0,-0.00488,-0.01952,-0.02928,-0.03904,-0.01952,-0.01952,0
-0.00976,0.00976,-0.00976,-0.00488,0,-0.00488,-0.01952,-0.0244,-0.03904,-0.01952,-0.01952,0
-0.00976,0.00976,-0.00976,-0.00488,0,-0.00488,-0.01464,-0.0244,-0.03904,-0.01952,-0.01952,0
-0.00976,0.0122,-0.01464,-0.00976,-0.00488,-0.00244,-0.00976,-0.0244,-0.03904,-0.01952,-0.01952,-0.00488
-0.00976,0.00976,-0.00976,-0.00488,0,-0.00488,-0.00976,-0.01952,-0.03416,-0.01464,-0.01952,-0.00488
-0.01464,0.0122,-0.00976,-0.00244,0.00488,-0.00976,-0.00976,-0.01952,-0.03416,-0.01464,-0.01952,-0.00488
-0.00976,0.00976,-0.00976,-0.00488,0,-0.00488,-0.00976,-0.01952,-0.02928,-0.00976,-0.01952,-0.00488
-0.00976,0.00976,-0.00976,-0.00488,0,-0.00488,-0.00976,-0.01952,-0.02928,-0.00976,-0.01952,-0.00976
-0.00488,0.00732,-0.00976,-0.00732,-0.00488,0,-0.00976,-0.01952,-0.02928,-0.00976,-0.01952,-0.00976
0,0.00488,-0.00976,-0.00976,-0.00976,0.00488,-0.00976,-0.01952,-0.02928,-0.00976,-0.01952,-0.00976
0,0.00488,-0.00976,-0.00976,-0.00976,0.00488,-0.00976,-0.01952,-0.02928,-0.00976,-0.01952,-0.00976
0,0.00488,-0.00976,-0.00976,-0.00976,0.00488,-0.00976,-0.01952,-0.02928,-0.00488,-0.01952,-0.00976
0,0.00488,-0.00976,-0.00976,-0.00976,0.00488,-0.00976,-0.01952,-0.02928,-0.00488,-0.01952,-0.00976
-0.00488,0.00732,-0.00976,-0.00732,-0.00488,0,-0.00488,-0.01952,-0.02928,-0.00488,-0.01952,-0.00976
-0.00976,0.00976,-0.00976,-0.00488,0,-0.00488,-0.00488,-0.01464,-0.02928,-0.00488,-0.01952,-0.00976
-0.00976,0.00976,-0.00976,-0.00488,0,-0.00488,-0.00488,-0.00976,-0.02928,-0.00488,-0.01952,-0.00976
-0.00976,0.00976,-0.00976,-0.00488,0,-0.00488,-0.00976,-0.00976,-0.02928,-0.00488,-0.01952,-0.00976
-0.00976,0.00976,-0.00976,-0.00488,0,-0.00488,-0.01464,-0.00976,-0.0244,-0.00488,-0.01952,-0.00976
-0.00488,0.00732,-0.00976,-0.00732,-0.00488,0,-0.01464,-0.00976,-0.0244,-0.00488,-0.01464,-0.00488
0,0.00244,-0.00488,-0.00488,-0.00488,0.00244,-0.00488,-0.00488,-0.01464,0.00488,-0.00976,0
0.00976,-0.01464,0.01952,0.01464,0.00976,0,0,0.00488,0,0.00976,0,0.00976
0.01464,-0.02684,0.03904,0.03172,0.0244,-0.00488,0.01464,0.01464,0.01464,0.01952,0.00976,0.01464
0.0244,-0.0366,0.0488,0.0366,0.0244,0,0.01464,0.01952,0.0244,0.0244,0.01464,0.01952
0.02928,-0.04392,0.05856,0.04392,0.02928,0,0.01952,0.02928,0.0244,0.03416,0.01952,0.01952
0.04392,-0.05612,0.06832,0.04636,0.0244,0.00976,0.0244,0.03416,0.02928,0.02928,0.0244,0.0244
0.04392,-0.05856,0.0732,0.05124,0.02928,0.00732,0.02928,0.03904,0.03904,0.02928,0.0244,0.0244
0.0488,-0.06588,0.08296,0.05856,0.03416,0.00732,0.02928,0.04392,0.03904,0.03416,0.03416,0.03416
0.06344,-0.07564,0.08784,0.05612,0.0244,0.01952,0.01952,0.04392,0.03904,0.03904,0.03904,0.03904
0.06344,-0.07808,0.09272,0.061,0.02928,0.01708,0.00488,0.04392,0.04392,0.04392,0.04392,0.04392
0.0732,-0.09028,0.10736,0.07076,0.03416,0.01952,-0.00976,0.04392,0.04392,0.04392,0.04392,0.05368
0.08784,-0.0976,0.10736,0.06344,0.01952,0.03416,-0.01952,0.03904,0.03416,0.0488,0.04392,0.05368
0.08784,-0.09028,0.09272,0.0488,0.00488,0.04148,-0.03904,0.03416,0.0244,0.04392,0.04392,0.05368
0.08296,-0.08296,0.08296,0.04148,0,0.04148,-0.03904,0.01952,0.00488,0.02928,0.03416,0.05368
0.0732,-0.05856,0.04392,0.00732,-0.02928,0.05124,-0.04392,0.00976,-0.00976,0.01952,0.01952,0.03904
0.06832,-0.05124,0.03416,0,-0.03416,0.05124,-0.04392,0,-0.01952,0.00488,0.00976,0.03904
0.05368,-0.04148,0.02928,0.00244,-0.0244,0.03904,-0.04392,0,-0.01952,-0.00488,0.00976,0.02928
0.05368,-0.03904,0.0244,-0.00244,-0.02928,0.04148,-0.04392,-0.00488,-0.01952,-0.00488,0.00976,0.02928
0.0488,-0.0366,0.0244,0,-0.0244,0.0366,-0.04392,-0.00488,-0.0244,-0.00488,0.00976,0.02928
0.03416,-0.02684,0.01952,0.00244,-0.01464,0.0244,-0.04392,-0.00488,-0.0244,-0.00488,0.00976,0.03416
0.01464,-0.00976,0.00488,-0.00244,-0.00976,0.0122,-0.03416,-0.00976,-0.0244,-0.01464,0,0.01952
-0.00976,0.0122,-0.01464,-0.00976,-0.00488,-0.00244,-0.02928,-0.00488,-0.02928,-0.01464,-0.00976,0.00976
-0.01952,0.0244,-0.02928,-0.01952,-0.00976,-0.00488,-0.0244,-0.00976,-0.03904,-0.01952,-0.01952,0
-0.0244,0.02928,-0.03416,-0.02196,-0.00976,-0.00732,-0.01952,-0.01464,-0.03904,-0.0244,-0.0244,0
-0.03416,0.03904,-0.04392,-0.02684,-0.00976,-0.0122,-0.01952,-0.01952,-0.03904,-0.0244,-0.0244,-0.00488
-0.03416,0.03904,-0.04392,-0.02684,-0.00976,-0.0122,-0.01952,-0.0244,-0.04392,-0.0244,-0.02928,-0.00976
-0.03904,0.04392,-0.0488,-0.02928,-0.00976,-0.01464,-0.01952,-0.02928,-0.04392,-0.02928,-0.02928,-0.00976
-0.03904,0.04392,-0.0488,-0.02928,-0.00976,-0.01464,-0.01952,-0.02928,-0.04392,-0.02928,-0.02928,-0.01464
-0.04392,0.04636,-0.0488,-0.02684,-0.00488,-0.01952,-0.01952,-0.02928,-0.04392,-0.02928,-0.02928,-0.01952
-0.04392,0.04636,-0.0488,-0.02684,-0.00488,-0.01952,-0.01952,-0.0244,-0.04392,-0.02928,-0.02928,-0.01952
-0.04392,0.04636,-0.0488,-0.02684,-0.00488,-0.01952,-0.01952,-0.01952,-0.04392,-0.02928,-0.02928,-0.01952
-0.04392,0.04636,-0.0488,-0.02684,-0.00488,-0.01952,-0.01952,-0.01952,-0.03904,-0.02928,-0.02928,-0.01464
-0.04392,0.04636,-0.0488,-0.02684,-0.00488,-0.01952,-0.01464,-0.01464,-0.03416,-0.02928,-0.02928,-0.01464
-0.03904,0.04392,-0.0488,-0.02928,-0.00976,-0.01464,-0.01464,-0.01952,-0.02928,-0.0244,-0.02928,-0.01464
-0.03904,0.04392,-0.0488,-0.02928,-0.00976,-0.01464,-0.01464,-0.0244,-0.02928,-0.0244,-0.02928,-0.01464
-0.04392,0.04636,-0.0488,-0.02684,-0.00488,-0.01952,-0.00976,-0.01464,-0.03416,-0.0244,-0.02928,-0.01464
-0.05856,0.05856,-0.05856,-0.02928,0,-0.02928,0.00976,-0.01464,-0.0244,-0.0244,-0.03904,-0.02928
-0.04392,0.0488,-0.05368,-0.03172,-0.00976,-0.01708,0.03416,0.03904,0.00976,-0.00488,-0.03904,-0.02928
0.02928,-0.00732,-0.01464,-0.02928,-0.04392,0.0366,0.0244,0.12688,0.04392,0.03904,-0.01952,-0.01464
0.19032,-0.12688,0.06344,-0.03172,-0.12688,0.1586,-0.06832,0.17568,0.06344,0.0732,0.03904,0.04392
0.49288,-0.3782,0.26352,0.01708,-0.22936,0.36112,-0.32208,0.2684,0.0732,0.15128,0.14152,0.16592
0.94672,-0.73688,0.52704,0.05368,-0.41968,0.6832,-0.66368,0.41968,0.10736,0.25864,0.27816,0.32208
1.2444,-0.9882,0.732,0.1098,-0.5124,0.8784,-0.91744,0.46848,0.11712,0.3172,0.37088,0.43432
1.35664,-1.09312,0.8296,0.15128,-0.52704,0.94184,-1.10776,0.366,0.06344,0.35136,0.4148,0.5124
1.25416,-1.04188,0.8296,0.20252,-0.42456,0.83936,-1.1956,0.13664,-0.06344,0.25376,0.3904,0.52704
0.89792,-0.77592,0.65392,0.20496,-0.244,0.57096,-1.14192,-0.15616,-0.2196,0.122,0.366,0.52216
0.30744,-0.35136,0.39528,0.24156,0.08784,0.1098,-0.98088,-0.52216,-0.37088,-0.01464,0.27816,0.50264
-0.0976,-0.10736,0.31232,0.36112,0.40992,-0.25376,-0.7564,-0.67832,-0.3172,-0.02928,0.25376,0.44896
-0.1464,-0.0732,0.2928,0.366,0.4392,-0.2928,-0.57096,-0.52704,-0.25864,-0.01952,0.22936,0.36112
-0.12688,-0.04148,0.20984,0.27328,0.33672,-0.2318,-0.4148,-0.3904,-0.20496,-0.00488,0.17568,0.26352
