i,aVR,ii,aVF,iii,aVL,V1,V2,V3,V4,V5,V6
-0.05368,0.061,-0.06832,-0.04148,-0.01464,-0.01952,-0.03416,-0.08296,-0.0732,-0.0732,-0.06344,-0.05368
-0.0488,0.05368,-0.05856,-0.03416,-0.00976,-0.01952,-0.03416,-0.08296,-0.0732,-0.0732,-0.06344,-0.05368
-0.0488,0.05124,-0.05368,-0.02928,-0.00488,-0.02196,-0.04392,-0.08296,-0.06832,-0.06344,-0.06344,-0.05368
-0.04392,0.05124,-0.05856,-0.0366,-0.01464,-0.01464,-0.04392,-0.08296,-0.06832,-0.06344,-0.05856,-0.05368
-0.0488,0.05368,-0.05856,-0.03416,-0.00976,-0.01952,-0.03904,-0.08296,-0.0732,-0.0732,-0.05856,-0.05368
-0.0488,0.05612,-0.06344,-0.03904,-0.01464,-0.01708,-0.04392,-0.08784,-0.0732,-0.0732,-0.05368,-0.05368
-0.0488,0.0488,-0.0488,-0.0244,0,-0.0244,-0.03416,-0.08784,-0.0732,-0.06344,-0.05368,-0.05368
-0.03904,0.04392,-0.0488,-0.02928,-0.00976,-0.01464,-0.03904,-0.08784,-0.07808,-0.06344,-0.0488,-0.05368
-0.04392,0.05124,-0.05856,-0.0366,-0.01464,-0.01464,-0.0488,-0.08784,-0.0732,-0.06832,-0.0488,-0.05368
-0.05368,0.061,-0.06832,-0.04148,-0.01464,-0.01952,-0.04392,-0.08784,-0.0732,-0.06344,-0.04392,-0.05368
-0.05368,0.05856,-0.06344,-0.0366,-0.00976,-0.02196,-0.02928,-0.08784,-0.0732,-0.0732,-0.04392,-0.03904
-0.05368,0.05856,-0.06344,-0.0366,-0.00976,-0.02196,-0.03416,-0.08296,-0.0732,-0.0732,-0.03904,-0.03904
-0.06344,0.06344,-0.06344,-0.03172,0,-0.03172,-0.03416,-0.09272,-0.0732,-0.0732,-0.02928,-0.03904
-0.05856,0.061,-0.06344,-0.03416,-0.00488,-0.02684,-0.03416,-0.09272,-0.0732,-0.0732,-0.02928,-0.03904
-0.05856,0.06588,-0.0732,-0.04392,-0.01464,-0.02196,-0.03904,-0.0976,-0.0732,-0.0732,-0.03416,-0.0488
-0.05856,0.06344,-0.06832,-0.03904,-0.00976,-0.0244,-0.03904,-0.09272,-0.06832,-0.06832,-0.03416,-0.0488
-0.0488,0.05368,-0.05856,-0.03416,-0.00976,-0.01952,-0.03904,-0.09272,-0.07808,-0.06832,-0.03416,-0.0488
-0.0488,0.05612,-0.06344,-0.03904,-0.01464,-0.01708,-0.03904,-0.09272,-0.08296,-0.0732,-0.03416,-0.0488
-0.0488,0.05368,-0.05856,-0.03416,-0.00976,-0.01952,-0.02928,-0.08296,-0.07808,-0.0732,-0.03416,-0.0488
-0.04392,0.05124,-0.05856,-0.0366,-0.01464,-0.01464,-0.03416,-0.08296,-0.07808,-0.0732,-0.03904,-0.0488
-0.0488,0.05856,-0.06832,-0.04392,-0.01952,-0.01464,-0.03416,-0.08784,-0.0732,-0.0732,-0.05368,-0.0488
-0.05368,0.05856,-0.06344,-0.0366,-0.00976,-0.02196,-0.02928,-0.08296,-0.0732,-0.0732,-0.0488,-0.0488
-0.05368,0.05612,-0.05856,-0.03172,-0.00488,-0.0244,-0.03904,-0.09272,-0.08296,-0.08296,-0.04392,-0.04392
-0.04392,0.05124,-0.05856,-0.0366,-0.01464,-0.01464,-0.03904,-0.08784,-0.07808,-0.07808,-0.04392,-0.04392
-0.0488,0.04636,-0.04392,-0.01952,0.00488,-0.02684,-0.03416,-0.0976,-0.08784,-0.07808,-0.03416,-0.04392
-0.04392,0.04636,-0.0488,-0.02684,-0.00488,-0.01952,-0.03904,-0.10736,-0.08784,-0.07808,-0.03904,-0.04392
-0.04392,0.04636,-0.0488,-0.02684,-0.00488,-0.01952,-0.03416,-0.09272,-0.08296,-0.07808,-0.03904,-0.0488
-0.05368,0.05856,-0.06344,-0.0366,-0.00976,-0.02196,-0.03904,-0.10248,-0.08296,-0.07808,-0.0488,-0.05368
-0.0488,0.05124,-0.05368,-0.02928,-0.00488,-0.02196,-0.03416,-0.0976,-0.08784,-0.07808,-0.0488,-0.0488
-0.0488,0.05368,-0.05856,-0.03416,-0.00976,-0.01952,-0.03904,-0.0976,-0.08784,-0.07808,-0.05856,-0.05856
-0.0488,0.05368,-0.05856,-0.03416,-0.00976,-0.01952,-0.03904,-0.0976,-0.08784,-0.07808,-0.05856,-0.05856
-0.05368,0.061,-0.06832,-0.04148,-0.01464,-0.01952,-0.02928,-0.0976,-0.08784,-0.06832,-0.05856,-0.05856
-0.06344,0.06588,-0.06832,-0.0366,-0.00488,-0.02928,-0.02928,-0.0976,-0.08784,-0.06832,-0.05856,-0.05856
-0.05856,0.06344,-0.06832,-0.03904,-0.00976,-0.0244,-0.03904,-0.0976,-0.07808,-0.06832,-0.05856,-0.0488
-0.05856,0.06344,-0.06832,-0.03904,-0.00976,-0.0244,-0.03904,-0.0976,-0.07808,-0.06832,-0.05856,-0.0488
-0.0488,0.05612,-0.06344,-0.03904,-0.01464,-0.01708,-0.02928,-0.08784,-0.08784,-0.07808,-0.05856,-0.0488
-0.0488,0.05124,-0.05368,-0.02928,-0.00488,-0.02196,-0.02928,-0.08784,-0.08784,-0.07808,-0.05856,-0.0488
-0.05856,0.05612,-0.05368,-0.0244,0.00488,-0.03172,-0.03904,-0.08784,-0.07808,-0.06832,-0.05856,-0.0488
-0.05856,0.061,-0.06344,-0.03416,-0.00488,-0.02684,-0.03904,-0.08784,-0.07808,-0.06832,-0.05856,-0.0488
-0.05368,0.05612,-0.05856,-0.03172,-0.00488,-0.0244,-0.02928,-0.08784,-0.07808,-0.06832,-0.0488,-0.0488
-0.04392,0.04148,-0.03904,-0.01708,0.00488,-0.0244,-0.02928,-0.08784,-0.07808,-0.06832,-0.0488,-0.0488
-0.0488,0.04392,-0.03904,-0.01464,0.00976,-0.02928,-0.03904,-0.08784,-0.07808,-0.07808,-0.0488,-0.0488
-0.0488,0.04392,-0.03904,-0.01464,0.00976,-0.02928,-0.03904,-0.08784,-0.07808,-0.07808,-0.0488,-0.0488
-0.05368,0.0488,-0.04392,-0.01708,0.00976,-0.03172,-0.02928,-0.08784,-0.07808,-0.06832,-0.0488,-0.0488
-0.06344,0.05856,-0.05368,-0.02196,0.00976,-0.0366,-0.02928,-0.08784,-0.07808,-0.06832,-0.0488,-0.0488
-0.06344,0.05612,-0.0488,-0.01708,0.01464,-0.03904,-0.03904,-0.0976,-0.07808,-0.07808,-0.0488,-0.0488
-0.05368,0.05124,-0.0488,-0.02196,0.00488,-0.02928,-0.03904,-0.0976,-0.07808,-0.07808,-0.0488,-0.0488
-0.05368,0.05612,-0.05856,-0.03172,-0.00488,-0.0244,-0.03904,-0.0976,-0.07808,-0.07808,-0.03904,-0.0488
-0.06344,0.061,-0.05856,-0.02684,0.00488,-0.03416,-0.03904,-0.0976,-0.07808,-0.07808,-0.03904,-0.0488
-0.06832,0.06344,-0.05856,-0.0244,0.00976,-0.03904,-0.02928,-0.08784,-0.07808,-0.06832,-0.0488,-0.05856
-0.06832,0.06344,-0.05856,-0.0244,0.00976,-0.03904,-0.02928,-0.08784,-0.07808,-0.06832,-0.0488,-0.05856
-0.05368,0.05368,-0.05368,-0.02684,0,-0.02684,-0.02928,-0.08784,-0.07808,-0.06832,-0.03904,-0.0488
-0.04392,0.04392,-0.04392,-0.02196,0,-0.02196,-0.02928,-0.08784,-0.07808,-0.06832,-0.03904,-0.0488
-0.03904,0.04392,-0.0488,-0.02928,-0.00976,-0.01464,-0.03904,-0.0976,-0.07808,-0.06832,-0.03904,-0.0488
-0.03904,0.04392,-0.0488,-0.02928,-0.00976,-0.01464,-0.03904,-0.0976,-0.07808,-0.06832,-0.03904,-0.0488
-0.0488,0.04392,-0.03904,-0.01464,0.00976,-0.02928,-0.02928,-0.08784,-0.07808,-0.06832,-0.03904,-0.0488
-0.0488,0.04392,-0.03904,-0.01464,0.00976,-0.02928,-0.02928,-0.08784,-0.07808,-0.06832,-0.03904,-0.0488
-0.03904,0.0366,-0.03416,-0.01464,0.00488,-0.02196,-0.03904,-0.08784,-0.07808,-0.07808,-0.03904,-0.0488
-0.03904,0.03172,-0.0244,-0.00488,0.01464,-0.02684,-0.03904,-0.08784,-0.07808,-0.07808,-0.03904,-0.0488
-0.0488,0.04148,-0.03416,-0.00976,0.01464,-0.03172,-0.03904,-0.08784,-0.07808,-0.06832,-0.03904,-0.0488
-0.0488,0.04636,-0.04392,-0.01952,0.00488,-0.02684,-0.03904,-0.08784,-0.07808,-0.06832,-0.03904,-0.0488
-0.0488,0.0488,-0.0488,-0.0244,0,-0.0244,-0.02928,-0.08784,-0.07808,-0.06832,-0.0488,-0.05856
-0.0488,0.0488,-0.0488,-0.0244,0,-0.0244,-0.02928,-0.08784,-0.07808,-0.06832,-0.0488,-0.05856
-0.0488,0.04392,-0.03904,-0.01464,0.00976,-0.02928,-0.03904,-0.08784,-0.08784,-0.07808,-0.05856,-0.0488
-0.0488,0.04392,-0.03904,-0.01464,0.00976,-0.02928,-0.03904,-0.08784,-0.08784,-0.07808,-0.05856,-0.0488
-0.05368,0.05124,-0.0488,-0.02196,0.00488,-0.02928,-0.03904,-0.08784,-0.07808,-0.07808,-0.05856,-0.05856
-0.06344,0.05612,-0.0488,-0.01708,0.01464,-0.03904,-0.03904,-0.08784,-0.07808,-0.07808,-0.05856,-0.05856
-0.06832,0.05856,-0.0488,-0.01464,0.01952,-0.04392,-0.03904,-0.0976,-0.07808,-0.06832,-0.05856,-0.05856
-0.06832,0.05856,-0.0488,-0.01464,0.01952,-0.04392,-0.03904,-0.0976,-0.07808,-0.06832,-0.05856,-0.05856
-0.06344,0.05368,-0.04392,-0.0122,0.01952,-0.04148,-0.02928,-0.08784,-0.07808,-0.07808,-0.0488,-0.0488
-0.05368,0.04392,-0.03416,-0.00732,0.01952,-0.0366,-0.02928,-0.08784,-0.07808,-0.07808,-0.0488,-0.0488
-0.05856,0.04636,-0.03416,-0.00488,0.0244,-0.04148,-0.03904,-0.08784,-0.07808,-0.07808,-0.0488,-0.0488
-0.05856,0.05124,-0.04392,-0.01464,0.01464,-0.0366,-0.03904,-0.08784,-0.07808,-0.07808,-0.0488,-0.0488
-0.05856,0.0488,-0.03904,-0.00976,0.01952,-0.03904,-0.03904,-0.08784,-0.07808,-0.06832,-0.03904,-0.0488
-0.05856,0.0488,-0.03904,-0.00976,0.01952,-0.03904,-0.03904,-0.08784,-0.07808,-0.06832,-0.03904,-0.0488
-0.05368,0.04392,-0.03416,-0.00732,0.01952,-0.0366,-0.03904,-0.08784,-0.07808,-0.06832,-0.0488,-0.0488
-0.04392,0.03416,-0.0244,-0.00244,0.01952,-0.03172,-0.03904,-0.08784,-0.07808,-0.06832,-0.0488,-0.0488
-0.04392,0.03416,-0.0244,-0.00244,0.01952,-0.03172,-0.03904,-0.08784,-0.07808,-0.06832,-0.0488,-0.05856
-0.05368,0.04392,-0.03416,-0.00732,0.01952,-0.0366,-0.03904,-0.08784,-0.07808,-0.06832,-0.0488,-0.05856
-0.0488,0.04392,-0.03904,-0.01464,0.00976,-0.02928,-0.03904,-0.07808,-0.06832,-0.06832,-0.0488,-0.05856
-0.0488,0.04392,-0.03904,-0.01464,0.00976,-0.02928,-0.03904,-0.07808,-0.06832,-0.06832,-0.0488,-0.05856
-0.05856,0.04392,-0.02928,0,0.02928,-0.04392,-0.02928,-0.08784,-0.07808,-0.06832,-0.03904,-0.0488
-0.05856,0.04392,-0.02928,0,0.02928,-0.04392,-0.02928,-0.08784,-0.07808,-0.06832,-0.03904,-0.0488
-0.06832,0.05368,-0.03904,-0.00488,0.02928,-0.0488,-0.03904,-0.08784,-0.07808,-0.06832,-0.0488,-0.05856
-0.06832,0.05368,-0.03904,-0.00488,0.02928,-0.0488,-0.03904,-0.08784,-0.07808,-0.06832,-0.0488,-0.05856
-0.06344,0.0488,-0.03416,-0.00244,0.02928,-0.04636,-0.03904,-0.08784,-0.07808,-0.07808,-0.0488,-0.05856
-0.05368,0.03904,-0.0244,0.00244,0.02928,-0.04148,-0.03904,-0.08784,-0.07808,-0.07808,-0.0488,-0.05856
-0.0488,0.02928,-0.00976,0.01464,0.03904,-0.04392,-0.03904,-0.07808,-0.06832,-0.0732,-0.03904,-0.0488
-0.0488,0.02928,-0.00976,0.01464,0.03904,-0.04392,-0.03904,-0.07808,-0.06832,-0.06344,-0.03904,-0.0488
-0.0488,0.03416,-0.01952,0.00488,0.02928,-0.03904,-0.03904,-0.07808,-0.06832,-0.06832,-0.0488,-0.05856
-0.0488,0.03416,-0.01952,0.00488,0.02928,-0.03904,-0.03904,-0.07808,-0.06832,-0.06832,-0.0488,-0.05856
-0.03904,0.02684,-0.01464,0.00488,0.0244,-0.03172,-0.02928,-0.06832,-0.06832,-0.05856,-0.03904,-0.0488
-0.03904,0.02196,-0.00488,0.01464,0.03416,-0.0366,-0.02928,-0.06832,-0.06832,-0.05856,-0.03904,-0.0488
-0.02928,0.01708,-0.00488,0.00976,0.0244,-0.02684,-0.01952,-0.05368,-0.05856,-0.0488,-0.02928,-0.03904
-0.02928,0.01708,-0.00488,0.00976,0.0244,-0.02684,-0.00976,-0.03904,-0.0488,-0.03416,-0.0244,-0.03416
-0.02928,0.0122,0.00488,0.01952,0.03416,-0.03172,0,-0.03416,-0.02928,-0.0244,-0.01464,-0.0244
-0.01952,0.00244,0.01464,0.0244,0.03416,-0.02684,0.01464,-0.01952,-0.01952,-0.00976,-0.00488,-0.01952
-0.01952,0.00488,0.00976,0.01952,0.02928,-0.0244,0.01952,-0.01464,-0.00488,0,0.00488,-0.01464
-0.01952,0.00488,0.00976,0.01952,0.02928,-0.0244,0.01952,-0.01464,-0.00488,-0.00488,0.00976,-0.01464
-0.01464,0.00488,0.00488,0.0122,0.01952,-0.01708,0.01464,-0.00488,-0.00488,-0.00488,0.00976,-0.01952
-0.0244,0.02196,-0.01952,-0.00732,0.00488,-0.01464,0,-0.01464,-0.01464,-0.00488,0.00976,-0.01952
-0.02928,0.02928,-0.02928,-0.01464,0,-0.01464,-0.03904,-0.03904,-0.03416,-0.01952,0,-0.02928
-0.01952,0.01952,-0.01952,-0.00976,0,-0.00976,-0.06344,-0.05368,-0.04392,-0.02928,-0.00976,-0.02928
-0.01464,0.0244,-0.03416,-0.02684,-0.01952,0.00244,-0.08784,-0.06832,-0.06832,-0.0488,-0.01464,-0.03416
-0.00488,0.0244,-0.04392,-0.04148,-0.03904,0.01708,-0.0976,-0.07808,-0.0732,-0.05368,-0.00976,-0.03416
0.00488,0.01708,-0.03904,-0.04148,-0.04392,0.0244,-0.0976,-0.08784,-0.0732,-0.05368,-0.01952,-0.03416
0.00976,0.01708,-0.04392,-0.0488,-0.05368,0.03172,-0.0976,-0.07808,-0.0732,-0.0488,-0.01952,-0.03416
0.01464,0.00732,-0.02928,-0.0366,-0.04392,0.02928,-0.0976,-0.07808,-0.06832,-0.0488,-0.00976,-0.01952
0.01464,0.00488,-0.0244,-0.03172,-0.03904,0.02684,-0.0976,-0.0732,-0.06344,-0.04392,-0.00488,-0.01952
0.00976,0,-0.00976,-0.01464,-0.01952,0.01464,-0.10248,-0.07808,-0.06832,-0.05368,0.00976,-0.00488
0.0244,-0.00976,-0.00488,-0.01708,-0.02928,0.02684,-0.09272,-0.08296,-0.06832,-0.05368,0,-0.01464
0.00488,0.00732,-0.01952,-0.02196,-0.0244,0.01464,-0.09272,-0.09272,-0.0732,-0.05368,-0.00488,-0.0244
-0.00976,0.01708,-0.0244,-0.01952,-0.01464,0.00244,-0.09272,-0.09272,-0.08296,-0.06344,-0.01464,-0.02928
-0.03416,0.02928,-0.0244,-0.00732,0.00976,-0.02196,-0.07808,-0.08296,-0.0732,-0.06832,-0.0244,-0.0488
-0.0488,0.04148,-0.03416,-0.00976,0.01464,-0.03172,-0.0732,-0.08784,-0.07808,-0.0732,-0.04392,-0.05856
-0.06344,0.05368,-0.04392,-0.0122,0.01952,-0.04148,-0.07808,-0.08784,-0.08784,-0.0732,-0.05368,-0.05856
-0.05856,0.0488,-0.03904,-0.00976,0.01952,-0.03904,-0.07808,-0.08784,-0.08784,-0.0732,-0.05856,-0.06832
-0.06832,0.05612,-0.04392,-0.00976,0.0244,-0.04636,-0.07808,-0.09272,-0.0976,-0.08296,-0.06344,-0.0732
-0.06832,0.05612,-0.04392,-0.00976,0.0244,-0.04636,-0.07808,-0.10248,-0.09272,-0.07808,-0.06344,-0.0732
-0.05368,0.04392,-0.03416,-0.00732,0.01952,-0.0366,-0.08296,-0.10248,-0.0976,-0.07808,-0.05856,-0.06832
-0.05368,0.04148,-0.02928,-0.00244,0.0244,-0.03904,-0.08784,-0.10248,-0.10248,-0.08784,-0.05856,-0.06832
-0.05368,0.04148,-0.02928,-0.00244,0.0244,-0.03904,-0.08296,-0.09272,-0.08784,-0.06832,-0.05856,-0.06344
-0.05368,0.03904,-0.0244,0.00244,0.02928,-0.04148,-0.07808,-0.09272,-0.08784,-0.06832,-0.04392,-0.05368
-0.06832,0.0488,-0.02928,0.00488,0.03904,-0.05368,-0.07808,-0.09272,-0.08784,-0.07808,-0.0488,-0.05856
-0.0732,0.05124,-0.02928,0.00732,0.04392,-0.05856,-0.07808,-0.08784,-0.08784,-0.07808,-0.0488,-0.06344
-0.05368,0.03904,-0.0244,0.00244,0.02928,-0.04148,-0.07808,-0.08784,-0.07808,-0.0732,-0.03904,-0.06344
-0.04392,0.02684,-0.00976,0.0122,0.03416,-0.03904,-0.07808,-0.08296,-0.07808,-0.0732,-0.03904,-0.05856
-0.0488,0.02684,-0.00488,0.01952,0.04392,-0.04636,-0.0732,-0.08296,-0.08296,-0.06344,-0.04392,-0.05856
-0.0488,0.03172,-0.01464,0.00976,0.03416,-0.04148,-0.0732,-0.07808,-0.07808,-0.05856,-0.04392,-0.05856
-0.05368,0.0366,-0.01952,0.00732,0.03416,-0.04392,-0.0732,-0.07808,-0.06832,-0.05856,-0.04392,-0.05856
-0.06344,0.04148,-0.01952,0.0122,0.04392,-0.05368,-0.0732,-0.07808,-0.06832,-0.05856,-0.04392,-0.05856
-0.05368,0.04392,-0.03416,-0.00732,0.01952,-0.0366,-0.0732,-0.06344,-0.05856,-0.03904,-0.03416,-0.0488
-0.0488,0.03172,-0.01464,0.00976,0.03416,-0.04148,-0.0732,-0.0732,-0.07808,-0.06832,-0.04392,-0.05856
-0.0732,0.07076,-0.06832,-0.03172,0.00488,-0.03904,0,0,-0.02928,-0.05856,-0.07808,-0.0976
-0.11712,0.11224,-0.10736,-0.0488,0.00976,-0.06344,0.06832,0.0976,0.04392,-0.01952,-0.11224,-0.122
-0.12688,0.10736,-0.08784,-0.0244,0.03904,-0.08296,0.15128,0.2196,0.15128,0.0732,-0.10248,-0.13176
-0.07808,0.01464,0.0488,0.08784,0.12688,-0.10248,0.17568,0.35136,0.2928,0.21472,-0.0244,-0.06344
0.04392,-0.11468,0.18544,0.16348,0.14152,-0.0488,0.13176,0.44408,0.42456,0.37088,0.14152,0.0732
0.19032,-0.25864,0.32696,0.2318,0.13664,0.02684,0.10736,0.65392,0.64904,0.61976,0.366,0.27328
0.40016,-0.47336,0.54656,0.34648,0.1464,0.12688,0.02928,0.77104,0.86864,0.90768,0.69296,0.5612
0.6344,-0.69784,0.76128,0.44408,0.12688,0.25376,-0.13664,0.67832,0.9272,1.12728,1.08336,0.89304
0.87352,-0.93208,0.99064,0.55388,0.11712,0.3782,-0.49288,0.22936,0.7076,1.18096,1.47376,1.26392
0.94184,-1.09556,1.24928,0.77836,0.30744,0.3172,-0.78568,-0.16592,0.53192,1.2444,1.81048,1.5616
0.9272,-1.02236,1.11752,0.65392,0.19032,0.36844,-0.93208,-0.3904,0.36112,1.1712,1.8788,1.62016
0.7564,-0.9028,1.0492,0.671,0.2928,0.2318,-0.86376,-0.52216,0.18056,0.93696,1.65432,1.44448
0.47824,-0.63196,0.78568,0.54656,0.30744,0.0854,-0.68808,-0.6832,-0.1708,0.40016,1.05896,0.96624
0.16104,-0.305,0.44896,0.36844,0.28792,-0.06344,-0.59536,-0.84912,-0.56608,-0.22936,0.35136,0.40992
-0.02928,-0.07808,0.18544,0.20008,0.21472,-0.122,-0.50264,-0.73688,-0.60512,-0.41968,0,0.06832
-0.03904,-0.03904,0.11712,0.13664,0.15616,-0.0976,-0.42944,-0.45384,-0.38064,-0.27328,-0.03904,0
-0.00488,-0.0488,0.10248,0.10492,0.10736,-0.05612,-0.3172,-0.1952,-0.14152,-0.07808,0.02928,0.00976
0.01952,-0.05368,0.08784,0.07808,0.06832,-0.0244,-0.20496,-0.0488,-0.01464,0.02928,0.0732,0.04392
0,-0.0366,0.0732,0.0732,0.0732,-0.0366,-0.15616,0.00488,0.0244,0.05368,0.06344,0.02928
-0.00488,-0.03904,0.08296,0.0854,0.08784,-0.04636,-0.11712,0.0244,0.04392,0.05856,0.05368,0.01952
-0.0244,-0.0244,0.0732,0.0854,0.0976,-0.061,-0.10736,0.03904,0.05368,0.06832,0.0488,0.00488
-0.03416,-0.01464,0.06344,0.08052,0.0976,-0.06588,-0.0976,0.05856,0.05368,0.06344,0.03416,-0.01464
-0.01952,-0.01708,0.05368,0.06344,0.0732,-0.04636,-0.08784,0.06344,0.05368,0.0488,0.00976,-0.02928
-0.0244,-0.0122,0.0488,0.061,0.0732,-0.0488,-0.08296,0.06344,0.05368,0.0488,0.00488,-0.03904
-0.03416,0,0.03416,0.05124,0.06832,-0.05124,-0.08784,0.06832,0.05368,0.04392,-0.01464,-0.03416
-0.03904,0.00488,0.02928,0.0488,0.06832,-0.05368,-0.08784,0.0732,0.05856,0.0488,-0.0244,-0.03904
-0.03904,0.00244,0.03416,0.05368,0.0732,-0.05612,-0.09272,0.07808,0.06344,0.0488,-0.0244,-0.03904
-0.02928,-0.00244,0.03416,0.0488,0.06344,-0.04636,-0.08784,0.08296,0.06344,0.0488,-0.03416,-0.0488
-0.00976,-0.0122,0.03416,0.03904,0.04392,-0.02684,-0.08784,0.07808,0.05856,0.03904,-0.04392,-0.04392
-0.00976,-0.01464,0.03904,0.04392,0.0488,-0.02928,-0.08296,0.08296,0.06344,0.0488,-0.03904,-0.04392
-0.00976,-0.00732,0.0244,0.02928,0.03416,-0.02196,-0.08296,0.09272,0.06832,0.0488,-0.05368,-0.05368
-0.0244,0.00244,0.01952,0.03172,0.04392,-0.03416,-0.08296,0.0976,0.0732,0.05368,-0.05368,-0.05368
-0.04392,0.00732,0.02928,0.05124,0.0732,-0.05856,-0.08296,0.10736,0.08296,0.06344,-0.05368,-0.05368
-0.03904,0.00488,0.02928,0.0488,0.06832,-0.05368,-0.0732,0.122,0.10248,0.06832,-0.04392,-0.0488
-0.03904,0.00732,0.0244,0.04392,0.06344,-0.05124,-0.0732,0.11712,0.09272,0.0732,-0.05368,-0.0488
-0.03904,0.00732,0.0244,0.04392,0.06344,-0.05124,-0.06832,0.11712,0.09272,0.07808,-0.05368,-0.04392
-0.04392,0.00976,0.0244,0.04636,0.06832,-0.05612,-0.07808,0.13176,0.11224,0.08296,-0.03904,-0.03416
-0.04392,0.01464,0.01464,0.0366,0.05856,-0.05124,-0.07808,0.13176,0.11712,0.08784,-0.03904,-0.03416
-0.02928,0.00976,0.00976,0.0244,0.03904,-0.03416,-0.07808,0.13176,0.11224,0.08296,-0.03416,-0.03416
-0.03416,0.00976,0.01464,0.03172,0.0488,-0.04148,-0.07808,0.14152,0.122,0.09272,-0.01952,-0.0244
-0.00976,-0.00976,0.02928,0.03416,0.03904,-0.0244,-0.07808,0.15128,0.13176,0.10248,-0.00976,-0.0244
-0.01952,-0.00976,0.03904,0.0488,0.05856,-0.03904,-0.0732,0.16592,0.14152,0.11224,0,-0.01952
-0.02928,-0.00488,0.03904,0.05368,0.06832,-0.0488,-0.0732,0.17568,0.14152,0.11224,0.00488,-0.02928
-0.0244,-0.00488,0.03416,0.04636,0.05856,-0.04148,-0.06832,0.18544,0.15616,0.12688,0.00976,-0.0244
-0.00976,-0.01464,0.03904,0.04392,0.0488,-0.02928,-0.07808,0.20008,0.1708,0.13664,0.01464,-0.0244
-0.00976,-0.02196,0.05368,0.05856,0.06344,-0.0366,-0.07808,0.20984,0.18056,0.15128,0.0244,-0.01952
-0.01952,-0.01464,0.0488,0.05856,0.06832,-0.04392,-0.0732,0.22448,0.1952,0.16104,0.03904,-0.00488
-0.00976,-0.0244,0.05856,0.06344,0.06832,-0.03904,-0.0732,0.23424,0.20496,0.1708,0.04392,-0.00488
-0.00976,-0.02684,0.06344,0.06832,0.0732,-0.04148,-0.06832,0.244,0.21472,0.1708,0.0488,0
-0.01464,-0.01708,0.0488,0.05612,0.06344,-0.03904,-0.06832,0.25376,0.23424,0.18544,0.05368,0.00488
0.00488,-0.02928,0.05368,0.05124,0.0488,-0.02196,-0.07808,0.2684,0.244,0.20008,0.05856,0.00488
0.01464,-0.04148,0.06832,0.061,0.05368,-0.01952,-0.0732,0.28304,0.25376,0.20008,0.05856,0.00488
0.00976,-0.0366,0.06344,0.05856,0.05368,-0.02196,-0.0732,0.29768,0.25864,0.20984,0.06344,0.00976
0.00976,-0.03416,0.05856,0.05368,0.0488,-0.01952,-0.06832,0.3172,0.27328,0.22448,0.06832,0.00976
0.00976,-0.03172,0.05368,0.0488,0.04392,-0.01708,-0.06832,0.32208,0.28792,0.24888,0.0732,0.00488
0.01464,-0.0366,0.05856,0.05124,0.04392,-0.01464,-0.05856,0.35136,0.31232,0.2684,0.0732,0.00976
0.01464,-0.04392,0.0732,0.06588,0.05856,-0.02196,-0.0488,0.38064,0.3416,0.28792,0.08784,0.0244
0.0244,-0.05124,0.07808,0.06588,0.05368,-0.01464,-0.04392,0.40504,0.366,0.30744,0.08784,0.03416
0.02928,-0.05612,0.08296,0.06832,0.05368,-0.0122,-0.0488,0.42456,0.38064,0.32696,0.10736,0.03904
0.02928,-0.05612,0.08296,0.06832,0.05368,-0.0122,-0.03904,0.44896,0.40504,0.35136,0.11712,0.04392
0.03904,-0.06832,0.0976,0.07808,0.05856,-0.00976,-0.03904,0.48312,0.4392,0.37576,0.13176,0.0488
0.03904,-0.07076,0.10248,0.08296,0.06344,-0.0122,-0.03416,0.50752,0.4636,0.40504,0.13664,0.06344
0.05856,-0.09028,0.122,0.09272,0.06344,-0.00244,-0.0244,0.54656,0.49776,0.42456,0.15128,0.0732
0.06344,-0.0976,0.13176,0.10004,0.06832,-0.00244,-0.01952,0.58072,0.53192,0.44896,0.1708,0.08296
0.06344,-0.10004,0.13664,0.10492,0.0732,-0.00488,-0.00976,0.61,0.55632,0.46848,0.18056,0.07808
0.0732,-0.10492,0.13664,0.10004,0.06344,0.00488,0,0.63928,0.58072,0.50264,0.1952,0.08784
0.0732,-0.10736,0.14152,0.10492,0.06832,0.00244,0.01952,0.67832,0.62952,0.53192,0.20496,0.10248
0.08784,-0.12932,0.1708,0.12688,0.08296,0.00244,0.02928,0.71248,0.6588,0.56608,0.2196,0.11224
0.0976,-0.13664,0.17568,0.12688,0.07808,0.00976,0.03904,0.7564,0.69784,0.60512,0.23912,0.12688
0.11224,-0.15616,0.20008,0.14396,0.08784,0.0122,0.0488,0.79544,0.73688,0.63928,0.24888,0.13664
0.10736,-0.1586,0.20984,0.15616,0.10248,0.00244,0.06832,0.81984,0.76128,0.67832,0.24888,0.14152
0.11224,-0.16836,0.22448,0.16836,0.11224,0,0.0732,0.854,0.79544,0.7076,0.26352,0.15616
0.122,-0.17568,0.22936,0.16836,0.10736,0.00732,0.08296,0.88328,0.8296,0.732,0.28792,0.17568
0.12688,-0.18788,0.24888,0.18544,0.122,0.00244,0.09272,0.9028,0.85888,0.76128,0.29768,0.1952
0.1464,-0.2074,0.2684,0.1952,0.122,0.0122,0.10248,0.94184,0.89304,0.79544,0.31232,0.20496
0.16104,-0.22204,0.28304,0.20252,0.122,0.01952,0.10736,0.96136,0.91256,0.81008,0.32696,0.22936
0.16104,-0.22448,0.28792,0.2074,0.12688,0.01708,0.11712,0.96624,0.92232,0.81984,0.33672,0.22448
0.1708,-0.22936,0.28792,0.20252,0.11712,0.02684,0.10736,0.96624,0.93208,0.8296,0.3416,0.23912
0.18056,-0.24156,0.30256,0.21228,0.122,0.02928,0.11224,0.976,0.93208,0.84912,0.36112,0.25864
0.20008,-0.26352,0.32696,0.22692,0.12688,0.0366,0.10736,0.9516,0.9272,0.84912,0.37576,0.27328
0.20984,-0.27328,0.33672,0.2318,0.12688,0.04148,0.10248,0.93208,0.91256,0.84912,0.38552,0.28304
0.20984,-0.27572,0.3416,0.23668,0.13176,0.03904,0.10248,0.90768,0.9028,0.83936,0.39528,0.29768
0.20984,-0.27816,0.34648,0.24156,0.13664,0.0366,0.09272,0.86376,0.8784,0.82472,0.40016,0.31232
0.20984,-0.27572,0.3416,0.23668,0.13176,0.03904,0.0732,0.81984,0.82472,0.78568,0.40504,0.3172
0.21472,-0.27572,0.33672,0.22936,0.122,0.04636,0.05856,0.75152,0.7808,0.75152,0.40504,0.3172
0.20984,-0.27084,0.33184,0.22692,0.122,0.04392,0.03904,0.68808,0.72712,0.71736,0.4148,0.3172
0.21472,-0.2684,0.32208,0.21472,0.10736,0.05368,0.01952,0.6344,0.67832,0.67832,0.42456,0.31232
0.20984,-0.25864,0.30744,0.20252,0.0976,0.05612,0.00976,0.56608,0.61,0.62952,0.40992,0.30744
0.18544,-0.23668,0.28792,0.1952,0.10248,0.04148,0.00488,0.49776,0.54168,0.57096,0.38552,0.2928
0.16104,-0.2074,0.25376,0.17324,0.09272,0.03416,-0.00976,0.43432,0.47824,0.5124,0.35136,0.26352
0.1464,-0.19032,0.23424,0.16104,0.08784,0.02928,-0.01464,0.37576,0.42456,0.45384,0.33672,0.24888
0.13664,-0.183,0.22936,0.16104,0.09272,0.02196,-0.01952,0.32208,0.37088,0.39528,0.30256,0.22448
0.13176,-0.1708,0.20984,0.14396,0.07808,0.02684,-0.02928,0.26352,0.30256,0.33672,0.2684,0.18544
0.11224,-0.14396,0.17568,0.11956,0.06344,0.0244,-0.02928,0.21472,0.25864,0.2928,0.23912,0.15616
0.08296,-0.11224,0.14152,0.10004,0.05856,0.0122,-0.02928,0.17568,0.2196,0.24888,0.2196,0.13664
0.06344,-0.10004,0.13664,0.10492,0.0732,-0.00488,-0.02928,0.1464,0.18056,0.20496,0.19032,0.122
0.05856,-0.08784,0.11712,0.08784,0.05856,0,-0.01952,0.12688,0.13664,0.16592,0.16104,0.0976
0.0488,-0.0732,0.0976,0.0732,0.0488,0,-0.01952,0.08784,0.11224,0.14152,0.14152,0.0732
0.01952,-0.04148,0.06344,0.05368,0.04392,-0.0122,-0.00488,0.0732,0.0976,0.122,0.11224,0.05856
0.00976,-0.03416,0.05856,0.05368,0.0488,-0.01952,0,0.05368,0.08296,0.10248,0.0976,0.0488
0.00488,-0.02196,0.03904,0.0366,0.03416,-0.01464,0,0.03904,0.05856,0.07808,0.07808,0.02928
-0.01952,-0.00488,0.02928,0.03904,0.0488,-0.03416,0.00488,0.02928,0.04392,0.06344,0.0488,0.01464
-0.01464,-0.00488,0.0244,0.03172,0.03904,-0.02684,-0.00488,0.00976,0.02928,0.04392,0.02928,-0.00488
-0.01464,0.00244,0.00976,0.01708,0.0244,-0.01952,-0.00488,0,0.01952,0.03416,0.01464,-0.01464
-0.03416,0.01952,-0.00488,0.0122,0.02928,-0.03172,0,0.00488,0.01464,0.04392,0,-0.01464
-0.04392,0.02684,-0.00976,0.0122,0.03416,-0.03904,0.01464,0.00488,0.00976,0.03416,-0.00976,-0.0244
-0.03416,0.01952,-0.00488,0.0122,0.02928,-0.03172,0.01952,0,0.00976,0.03416,-0.01952,-0.02928
-0.03416,0.01952,-0.00488,0.0122,0.02928,-0.03172,0.01952,0,0.00976,0.02928,-0.0244,-0.02928
-0.03416,0.02196,-0.00976,0.00732,0.0244,-0.02928,0.01952,-0.00488,0,0.02928,-0.0244,-0.02928
-0.03416,0.01464,0.00488,0.02196,0.03904,-0.0366,0.01952,-0.00488,0.00488,0.02928,-0.03416,-0.02928
-0.04392,0.02684,-0.00976,0.0122,0.03416,-0.03904,0.02928,0,0.00976,0.02928,-0.03416,-0.02928
-0.0488,0.03172,-0.01464,0.00976,0.03416,-0.04148,0.02928,0,0.00976,0.02928,-0.03416,-0.02928
-0.03416,0.01708,0,0.01708,0.03416,-0.03416,0.01952,-0.00488,0.00488,0.0244,-0.04392,-0.03416
-0.03416,0.01708,0,0.01708,0.03416,-0.03416,0.01952,-0.00488,0.00488,0.0244,-0.04392,-0.03416
-0.03416,0.01708,0,0.01708,0.03416,-0.03416,0.00976,-0.01464,-0.00488,0.01464,-0.04392,-0.03416
-0.03416,0.00976,0.01464,0.03172,0.0488,-0.04148,0.00976,-0.01464,-0.00488,0.01464,-0.04392,-0.03416
-0.02928,0.00976,0.00976,0.0244,0.03904,-0.03416,0.01952,-0.01464,0.00488,0.01464,-0.03904,-0.03416
-0.03416,0.01708,0,0.01708,0.03416,-0.03416,0.01464,-0.00976,0.00488,0.01464,-0.03904,-0.03904
-0.04392,0.02928,-0.01464,0.00732,0.02928,-0.0366,0.00488,-0.01464,0,0.01464,-0.0488,-0.04392
-0.03904,0.02684,-0.01464,0.00488,0.0244,-0.03172,0.00488,-0.01464,0.00488,0.01464,-0.0488,-0.03904
-0.04392,0.02196,0,0.02196,0.04392,-0.04392,0.01464,-0.00976,0.00488,0.01952,-0.03416,-0.03904
-0.0488,0.02684,-0.00488,0.01952,0.04392,-0.04636,0.01952,-0.00976,0.00488,0.01952,-0.02928,-0.03416
-0.05856,0.0366,-0.01464,0.01464,0.04392,-0.05124,0.01952,-0.00976,0.00488,0.01952,-0.03904,-0.03416
-0.06344,0.03904,-0.01464,0.01708,0.0488,-0.05612,0.01464,-0.00976,0.00488,0.01464,-0.03904,-0.03416
-0.05856,0.04148,-0.0244,0.00488,0.03416,-0.04636,0.00488,-0.01952,-0.00488,0.00976,-0.02928,-0.03416
-0.05856,0.0366,-0.01464,0.01464,0.04392,-0.05124,0.00488,-0.01952,-0.00488,0.00976,-0.02928,-0.03416
-0.05368,0.03416,-0.01464,0.0122,0.03904,-0.04636,0.01464,-0.01952,-0.00488,0.00488,-0.02928,-0.03416
-0.03904,0.0244,-0.00976,0.00976,0.02928,-0.03416,0.00976,-0.0244,-0.00488,0.00488,-0.02928,-0.03416
-0.03416,0.02196,-0.00976,0.00732,0.0244,-0.02928,0.00488,-0.0244,-0.00488,0.00488,-0.02928,-0.03416
-0.03416,0.01952,-0.00488,0.0122,0.02928,-0.03172,-0.00488,-0.0244,-0.00976,0.00488,-0.03416,-0.03904
-0.02928,0.0122,0.00488,0.01952,0.03416,-0.03172,0,-0.01464,-0.00976,0,-0.03416,-0.03904
-0.0244,0.00976,0.00488,0.01708,0.02928,-0.02684,0,-0.01952,-0.01464,0.00488,-0.03416,-0.03416
-0.03416,0.0122,0.00976,0.02684,0.04392,-0.03904,0,-0.02928,-0.01952,-0.00488,-0.04392,-0.04392
-0.03416,0.0122,0.00976,0.02684,0.04392,-0.03904,0,-0.03904,-0.01952,-0.00488,-0.04392,-0.04392
-0.04392,0.02196,0,0.02196,0.04392,-0.04392,-0.00488,-0.03416,-0.01952,0.00488,-0.03416,-0.04392
-0.04392,0.0244,-0.00488,0.01708,0.03904,-0.04148,-0.00488,-0.03416,-0.01952,0,-0.03416,-0.03904
-0.03416,0.01708,0,0.01708,0.03416,-0.03416,-0.00488,-0.03416,-0.03416,-0.00976,-0.03416,-0.03904
-0.0244,0.01464,-0.00488,0.00732,0.01952,-0.02196,-0.00976,-0.03904,-0.03416,-0.00976,-0.03416,-0.03904
-0.0488,0.02928,-0.00976,0.01464,0.03904,-0.04392,-0.01952,-0.03416,-0.03904,-0.01952,-0.02928,-0.03904
-0.0488,0.02928,-0.00976,0.01464,0.03904,-0.04392,-0.01952,-0.03904,-0.03904,-0.0244,-0.02928,-0.03904
-0.05368,0.04636,-0.03904,-0.0122,0.01464,-0.03416,-0.01464,-0.04392,-0.04392,-0.02928,-0.03904,-0.04392
-0.05368,0.05124,-0.0488,-0.02196,0.00488,-0.02928,-0.01464,-0.05856,-0.04392,-0.03416,-0.03904,-0.04392
-0.03904,0.04148,-0.04392,-0.0244,-0.00488,-0.01708,-0.01952,-0.05368,-0.03904,-0.03416,-0.03904,-0.04392
-0.03904,0.03416,-0.02928,-0.00976,0.00976,-0.0244,-0.01952,-0.05368,-0.04392,-0.03904,-0.03904,-0.04392
-0.0488,0.04148,-0.03416,-0.00976,0.01464,-0.03172,-0.0244,-0.05856,-0.05368,-0.03904,-0.03904,-0.0488
-0.05368,0.04392,-0.03416,-0.00732,0.01952,-0.0366,-0.0244,-0.05856,-0.0488,-0.03904,-0.0488,-0.05368
-0.05856,0.04636,-0.03416,-0.00488,0.0244,-0.04148,-0.01464,-0.05368,-0.0488,-0.02928,-0.03904,-0.05368
-0.05368,0.04636,-0.03904,-0.0122,0.01464,-0.03416,-0.01464,-0.05368,-0.0488,-0.02928,-0.03904,-0.05368
-0.05368,0.04392,-0.03416,-0.00732,0.01952,-0.0366,-0.0244,-0.06344,-0.05368,-0.04392,-0.04392,-0.05368
-0.05368,0.03904,-0.0244,0.00244,0.02928,-0.04148,-0.0244,-0.0732,-0.05856,-0.04392,-0.04392,-0.05368
-0.0488,0.04636,-0.04392,-0.01952,0.00488,-0.02684,-0.0244,-0.06832,-0.05856,-0.04392,-0.05368,-0.05368
-0.0488,0.04392,-0.03904,-0.01464,0.00976,-0.02928,-0.0244,-0.06832,-0.05368,-0.04392,-0.05368,-0.05368
-0.0488,0.04392,-0.03904,-0.01464,0.00976,-0.02928,-0.01952,-0.06832,-0.06832,-0.05856,-0.05856,-0.06344
-0.05856,0.05124,-0.04392,-0.01464,0.01464,-0.0366,-0.01952,-0.0732,-0.06832,-0.05856,-0.06832,-0.06344
-0.05368,0.04392,-0.03416,-0.00732,0.01952,-0.0366,-0.01464,-0.0732,-0.06832,-0.05368,-0.05856,-0.05856
-0.05368,0.04636,-0.03904,-0.0122,0.01464,-0.03416,-0.01464,-0.0732,-0.0732,-0.05368,-0.05856,-0.0488
-0.05856,0.05124,-0.04392,-0.01464,0.01464,-0.0366,-0.01952,-0.08784,-0.08296,-0.06344,-0.06344,-0.0488
-0.06832,0.061,-0.05368,-0.01952,0.01464,-0.04148,-0.0244,-0.08784,-0.08296,-0.06344,-0.07808,-0.05856
-0.0732,0.05368,-0.03416,0.00244,0.03904,-0.05612,-0.01464,-0.08296,-0.0732,-0.05368,-0.08784,-0.06344
-0.0732,0.061,-0.0488,-0.0122,0.0244,-0.0488,-0.01952,-0.08296,-0.0732,-0.05368,-0.09272,-0.0732
-0.0732,0.05856,-0.04392,-0.00732,0.02928,-0.05124,-0.0244,-0.08296,-0.0732,-0.05368,-0.08784,-0.05856
-0.05856,0.04636,-0.03416,-0.00488,0.0244,-0.04148,-0.0244,-0.08296,-0.0732,-0.0488,-0.07808,-0.05368
-0.06832,0.061,-0.05368,-0.01952,0.01464,-0.04148,-0.0244,-0.09272,-0.08296,-0.06344,-0.0732,-0.06344
-0.0732,0.06344,-0.05368,-0.01708,0.01952,-0.04636,-0.0244,-0.09272,-0.08296,-0.06344,-0.0732,-0.06344
-0.06832,0.05856,-0.0488,-0.01464,0.01952,-0.04392,-0.0244,-0.08784,-0.06832,-0.05368,-0.0732,-0.06344
-0.06344,0.05368,-0.04392,-0.0122,0.01952,-0.04148,-0.0244,-0.07808,-0.06832,-0.05368,-0.06832,-0.06344
-0.0488,0.03904,-0.02928,-0.00488,0.01952,-0.03416,-0.02928,-0.08296,-0.08296,-0.05856,-0.06832,-0.06344
-0.0488,0.04148,-0.03416,-0.00976,0.01464,-0.03172,-0.03416,-0.08784,-0.08296,-0.06832,-0.06344,-0.06344
-0.06344,0.0488,-0.03416,-0.00244,0.02928,-0.04636,-0.03416,-0.08784,-0.08296,-0.0732,-0.0732,-0.06344
-0.06344,0.05368,-0.04392,-0.0122,0.01952,-0.04148,-0.03904,-0.08784,-0.08784,-0.0732,-0.06832,-0.06344
-0.06832,0.05612,-0.04392,-0.00976,0.0244,-0.04636,-0.03904,-0.08784,-0.0732,-0.06832,-0.06832,-0.06344
-0.06832,0.05612,-0.04392,-0.00976,0.0244,-0.04636,-0.03416,-0.08784,-0.0732,-0.06344,-0.06344,-0.06344
-0.06344,0.05368,-0.04392,-0.0122,0.01952,-0.04148,-0.03904,-0.0976,-0.08296,-0.06344,-0.06344,-0.05856
-0.06344,0.05368,-0.04392,-0.0122,0.01952,-0.04148,-0.04392,-0.09272,-0.08296,-0.06344,-0.05856,-0.05856
-0.0732,0.05856,-0.04392,-0.00732,0.02928,-0.05124,-0.04392,-0.09272,-0.0732,-0.06344,-0.05856,-0.05856
-0.06832,0.05612,-0.04392,-0.00976,0.0244,-0.04636,-0.04392,-0.09272,-0.0732,-0.06344,-0.05856,-0.05856
-0.06832,0.05612,-0.04392,-0.00976,0.0244,-0.04636,-0.0488,-0.0976,-0.07808,-0.0732,-0.06344,-0.05856
-0.06832,0.05368,-0.03904,-0.00488,0.02928,-0.0488,-0.0488,-0.09272,-0.08296,-0.06832,-0.06344,-0.05856
-0.05856,0.0488,-0.03904,-0.00976,0.01952,-0.03904,-0.0488,-0.08296,-0.07808,-0.06832,-0.06344,-0.05856
-0.05856,0.05124,-0.04392,-0.01464,0.01464,-0.0366,-0.0488,-0.08296,-0.08296,-0.0732,-0.06344,-0.05856
-0.06832,0.05856,-0.0488,-0.01464,0.01952,-0.04392,-0.03904,-0.08296,-0.07808,-0.06344,-0.06344,-0.05856
-0.06344,0.05612,-0.0488,-0.01708,0.01464,-0.03904,-0.04392,-0.08296,-0.07808,-0.06344,-0.06832,-0.05856
-0.06344,0.05124,-0.03904,-0.00732,0.0244,-0.04392,-0.04392,-0.08784,-0.08296,-0.0732,-0.06344,-0.05856
-0.05856,0.04636,-0.03416,-0.00488,0.0244,-0.04148,-0.03904,-0.08296,-0.08296,-0.0732,-0.05856,-0.05856
-0.05856,0.0488,-0.03904,-0.00976,0.01952,-0.03904,-0.03904,-0.08296,-0.08296,-0.0732,-0.06344,-0.05368
-0.05856,0.0488,-0.03904,-0.00976,0.01952,-0.03904,-0.03904,-0.07808,-0.07808,-0.06832,-0.06344,-0.05368
-0.06344,0.05368,-0.04392,-0.0122,0.01952,-0.04148,-0.05368,-0.08784,-0.08784,-0.06832,-0.06344,-0.06344
-0.06832,0.05856,-0.0488,-0.01464,0.01952,-0.04392,-0.05856,-0.0976,-0.08784,-0.06832,-0.06832,-0.06344
-0.06832,0.05124,-0.03416,0,0.03416,-0.05124,-0.05856,-0.08296,-0.09272,-0.07808,-0.06832,-0.05856
-0.06832,0.05368,-0.03904,-0.00488,0.02928,-0.0488,-0.05368,-0.09272,-0.09272,-0.07808,-0.07808,-0.06344
-0.06832,0.05612,-0.04392,-0.00976,0.0244,-0.04636,-0.05368,-0.08784,-0.08784,-0.07808,-0.06832,-0.05856
-0.08784,0.06832,-0.0488,-0.00488,0.03904,-0.06344,-0.0488,-0.08784,-0.08784,-0.07808,-0.07808,-0.05856
-0.08784,0.06832,-0.0488,-0.00488,0.03904,-0.06344,-0.0488,-0.08784,-0.08784,-0.07808,-0.07808,-0.05856
-0.08296,0.06588,-0.0488,-0.00732,0.03416,-0.05856,-0.0488,-0.08784,-0.07808,-0.06832,-0.07808,-0.05856
-0.0732,0.061,-0.0488,-0.0122,0.0244,-0.0488,-0.0488,-0.08784,-0.07808,-0.06832,-0.07808,-0.05856
-0.06832,0.05612,-0.04392,-0.00976,0.0244,-0.04636,-0.0488,-0.08784,-0.08784,-0.06832,-0.06832,-0.05856
-0.06832,0.05124,-0.03416,0,0.03416,-0.05124,-0.0488,-0.08784,-0.08784,-0.06832,-0.06832,-0.05856
-0.06832,0.05124,-0.03416,0,0.03416,-0.05124,-0.05856,-0.0976,-0.08784,-0.06832,-0.06832,-0.05856
-0.06832,0.05612,-0.04392,-0.00976,0.0244,-0.04636,-0.05856,-0.0976,-0.08784,-0.06832,-0.06832,-0.05856
-0.06832,0.05368,-0.03904,-0.00488,0.02928,-0.0488,-0.05856,-0.09272,-0.08296,-0.05856,-0.06344,-0.05368
-0.06832,0.05368,-0.03904,-0.00488,0.02928,-0.0488,-0.05856,-0.08296,-0.0732,-0.05856,-0.05368,-0.04392
-0.06344,0.04636,-0.02928,0.00244,0.03416,-0.0488,-0.05856,-0.08784,-0.0732,-0.06832,-0.0488,-0.0488
-0.05368,0.04148,-0.02928,-0.00244,0.0244,-0.03904,-0.05856,-0.08784,-0.08296,-0.06832,-0.0488,-0.0488
-0.05368,0.04392,-0.03416,-0.00732,0.01952,-0.0366,-0.06832,-0.08784,-0.07808,-0.06832,-0.05368,-0.0488
-0.06344,0.05368,-0.04392,-0.0122,0.01952,-0.04148,-0.06832,-0.08784,-0.07808,-0.06832,-0.06344,-0.0488
-0.06832,0.05612,-0.04392,-0.00976,0.0244,-0.04636,-0.05856,-0.08784,-0.08784,-0.06832,-0.05856,-0.0488
-0.06832,0.05124,-0.03416,0,0.03416,-0.05124,-0.05856,-0.08784,-0.08784,-0.06832,-0.05856,-0.0488
-0.07808,0.05856,-0.03904,0,0.03904,-0.05856,-0.06832,-0.08784,-0.08784,-0.06832,-0.05856,-0.0488
-0.07808,0.05856,-0.03904,0,0.03904,-0.05856,-0.06832,-0.08784,-0.08784,-0.06832,-0.05856,-0.0488
-0.07808,0.05856,-0.03904,0,0.03904,-0.05856,-0.06344,-0.07808,-0.08296,-0.05856,-0.06832,-0.05856
-0.07808,0.05856,-0.03904,0,0.03904,-0.05856,-0.05368,-0.07808,-0.0732,-0.05856,-0.06832,-0.05856
-0.06832,0.0488,-0.02928,0.00488,0.03904,-0.05368,-0.05856,-0.07808,-0.07808,-0.05856,-0.05856,-0.0488
-0.06832,0.0488,-0.02928,0.00488,0.03904,-0.05368,-0.05856,-0.07808,-0.07808,-0.05856,-0.05856,-0.0488
-0.06344,0.05124,-0.03904,-0.00732,0.0244,-0.04392,-0.05368,-0.0732,-0.06832,-0.05856,-0.0488,-0.03904
-0.05368,0.04636,-0.03904,-0.0122,0.01464,-0.03416,-0.04392,-0.06344,-0.06832,-0.05856,-0.0488,-0.03904
-0.04392,0.03416,-0.0244,-0.00244,0.01952,-0.03172,-0.0244,-0.03904,-0.04392,-0.04392,-0.04392,-0.03416
-0.03416,0.01952,-0.00488,0.0122,0.02928,-0.03172,-0.00488,-0.01464,-0.0244,-0.01952,-0.02928,-0.01952
-0.02928,0.00732,0.01464,0.02928,0.04392,-0.0366,0.00976,0,-0.01464,-0.00976,-0.01464,-0.01464
-0.01952,-0.00244,0.0244,0.03416,0.04392,-0.03172,0.00488,0.00488,-0.01464,-0.00488,-0.00488,-0.00976
-0.00976,0,0.00976,0.01464,0.01952,-0.01464,0.00488,0,-0.00976,0,0,0
-0.00976,0.00976,-0.00976,-0.00488,0,-0.00488,-0.00488,-0.00976,-0.01952,-0.00488,0.01464,0.00976
-0.00976,0.01952,-0.02928,-0.0244,-0.01952,0.00488,-0.03416,-0.01952,-0.03416,-0.0244,0.01464,0.01464
-0.02928,0.0366,-0.04392,-0.02928,-0.01464,-0.00732,-0.06832,-0.03904,-0.04392,-0.0244,0.00488,0.00488
-0.03416,0.04636,-0.05856,-0.04148,-0.0244,-0.00488,-0.11712,-0.05856,-0.06344,-0.03904,-0.00488,0
-0.01464,0.03172,-0.0488,-0.04148,-0.03416,0.00976,-0.122,-0.0732,-0.0732,-0.0488,-0.00488,0
-0.01952,0.04636,-0.0732,-0.06344,-0.05368,0.01708,-0.12688,-0.07808,-0.08784,-0.06832,-0.00976,0
-0.01952,0.05124,-0.08296,-0.0732,-0.06344,0.02196,-0.11712,-0.08784,-0.09272,-0.0732,-0.01464,-0.00976
-0.01952,0.04148,-0.06344,-0.05368,-0.04392,0.0122,-0.10736,-0.07808,-0.08784,-0.06344,-0.00976,-0.00488
-0.00488,0.03172,-0.05856,-0.05612,-0.05368,0.0244,-0.10736,-0.06832,-0.07808,-0.05856,-0.00976,-0.00488
0.00488,0.01708,-0.03904,-0.04148,-0.04392,0.0244,-0.10736,-0.08296,-0.08296,-0.06344,-0.01464,-0.00488
0.00488,0.01464,-0.03416,-0.0366,-0.03904,0.02196,-0.10736,-0.08784,-0.08784,-0.06832,-0.01952,-0.01464
-0.01464,0.02196,-0.02928,-0.02196,-0.01464,0,-0.10248,-0.08784,-0.08784,-0.0732,-0.01952,-0.00488
-0.02928,0.0366,-0.04392,-0.02928,-0.01464,-0.00732,-0.09272,-0.09272,-0.08784,-0.0732,-0.02928,-0.01464
-0.05368,0.05368,-0.05368,-0.02684,0,-0.02684,-0.0732,-0.0976,-0.0976,-0.07808,-0.04392,-0.0244
-0.06832,0.05856,-0.0488,-0.01464,0.01952,-0.04392,-0.0732,-0.08784,-0.0976,-0.07808,-0.05368,-0.02928
-0.06832,0.05612,-0.04392,-0.00976,0.0244,-0.04636,-0.06832,-0.09272,-0.09272,-0.07808,-0.0488,-0.02928
-0.0732,0.06344,-0.05368,-0.01708,0.01952,-0.04636,-0.06344,-0.0976,-0.0976,-0.08296,-0.05856,-0.03904
-0.07808,0.0732,-0.06832,-0.02928,0.00976,-0.04392,-0.06832,-0.0976,-0.0976,-0.08296,-0.06832,-0.03416
-0.08296,0.07808,-0.0732,-0.03172,0.00976,-0.04636,-0.06832,-0.0976,-0.0976,-0.08296,-0.06344,-0.03416
-0.08296,0.07808,-0.0732,-0.03172,0.00976,-0.04636,-0.06832,-0.0976,-0.10736,-0.09272,-0.06344,-0.04392
-0.0732,0.0732,-0.0732,-0.0366,0,-0.0366,-0.06832,-0.0976,-0.10248,-0.08784,-0.06344,-0.04392
-0.0732,0.0732,-0.0732,-0.0366,0,-0.0366,-0.06344,-0.08296,-0.08784,-0.07808,-0.06832,-0.03904
-0.0732,0.07076,-0.06832,-0.03172,0.00488,-0.03904,-0.06832,-0.08296,-0.09272,-0.08784,-0.06832,-0.03904
-0.08296,0.08052,-0.07808,-0.0366,0.00488,-0.04392,-0.05368,-0.08296,-0.08784,-0.07808,-0.06344,-0.03904
-0.08296,0.07808,-0.0732,-0.03172,0.00976,-0.04636,-0.0488,-0.08296,-0.08784,-0.07808,-0.05856,-0.03904
-0.08296,0.07808,-0.0732,-0.03172,0.00976,-0.04636,-0.05856,-0.08296,-0.08784,-0.07808,-0.05856,-0.03904
-0.07808,0.07076,-0.06344,-0.0244,0.01464,-0.04636,-0.05856,-0.07808,-0.08784,-0.07808,-0.05856,-0.04392
-0.06832,0.06344,-0.05856,-0.0244,0.00976,-0.03904,-0.0488,-0.07808,-0.08784,-0.08296,-0.05856,-0.04392
-0.06832,0.061,-0.05368,-0.01952,0.01464,-0.04148,-0.0488,-0.0732,-0.08784,-0.08296,-0.05856,-0.03904
-0.07808,0.06588,-0.05368,-0.01464,0.0244,-0.05124,-0.05368,-0.0732,-0.08296,-0.0732,-0.05368,-0.03904
-0.07808,0.07076,-0.06344,-0.0244,0.01464,-0.04636,-0.05368,-0.06832,-0.07808,-0.06832,-0.05368,-0.03904
-0.06832,0.06588,-0.06344,-0.02928,0.00488,-0.0366,-0.04392,-0.06832,-0.07808,-0.07808,-0.04392,-0.02928
-0.06832,0.061,-0.05368,-0.01952,0.01464,-0.04148,-0.04392,-0.06832,-0.07808,-0.07808,-0.04392,-0.02928
-0.06344,0.0488,-0.03416,-0.00244,0.02928,-0.04636,-0.04392,-0.06344,-0.07808,-0.06832,-0.0244,-0.01952
-0.07808,0.07564,-0.0732,-0.03416,0.00488,-0.04148,-0.03416,-0.05368,-0.06832,-0.06832,-0.04392,-0.0488
-0.10248,0.11468,-0.12688,-0.07564,-0.0244,-0.03904,0.03904,0.02928,-0.01952,-0.0488,-0.07808,-0.08784
-0.12688,0.12688,-0.12688,-0.06344,0,-0.06344,0.12688,0.12688,0.06344,-0.00976,-0.11224,-0.11224
-0.11712,0.08784,-0.05856,0,0.05856,-0.08784,0.19032,0.25864,0.18056,0.09272,-0.09272,-0.11224
-0.06832,0.00488,0.05856,0.09272,0.12688,-0.0976,0.20496,0.38064,0.33184,0.25376,0.0244,-0.0244
0.04392,-0.10492,0.16592,0.14396,0.122,-0.03904,0.15128,0.48312,0.45384,0.40992,0.19032,0.122
0.20984,-0.27328,0.33672,0.2318,0.12688,0.04148,0.12688,0.69296,0.7076,0.68808,0.45384,0.3416
0.40992,-0.47336,0.5368,0.33184,0.12688,0.14152,0.0488,0.79056,0.90768,0.976,0.80032,0.64904
0.65392,-0.7076,0.76128,0.43432,0.10736,0.27328,-0.1464,0.64904,0.91744,1.16632,1.19072,1.0004
0.88328,-0.93696,0.99064,0.549,0.10736,0.38796,-0.50264,0.1708,0.66856,1.18096,1.57136,1.35176
0.9516,-1.05652,1.16144,0.68564,0.20984,0.37088,-0.76616,-0.21472,0.48312,1.23464,1.88856,1.63968
0.89792,-0.97356,1.0492,0.60024,0.15128,0.37332,-0.86376,-0.4392,0.30256,1.10288,1.89832,1.64944
0.66856,-0.81008,0.9516,0.61732,0.28304,0.19276,-0.77592,-0.58072,0.0732,0.80032,1.55672,1.37616
0.38064,-0.5246,0.66856,0.47824,0.28792,0.04636,-0.61,-0.75152,-0.29768,0.23424,0.91256,0.8784
0.10248,-0.23668,0.37088,0.31964,0.2684,-0.08296,-0.51728,-0.85888,-0.62464,-0.32696,0.244,0.33184
-0.02928,-0.06832,0.16592,0.18056,0.1952,-0.11224,-0.4148,-0.69784,-0.59536,-0.4392,-0.03904,0.05856
-0.02928,-0.03416,0.0976,0.11224,0.12688,-0.07808,-0.35136,-0.42456,-0.36112,-0.26352,-0.03904,0.00976
-0.01464,-0.0244,0.06344,0.07076,0.07808,-0.04636,-0.23912,-0.16592,-0.122,-0.05856,0.03904,0.03904
0.01952,-0.03904,0.05856,0.0488,0.03904,-0.00976,-0.13664,-0.00976,0.01464,0.0488,0.0732,0.05368
-0.01952,-0.00732,0.03416,0.04392,0.05368,-0.0366,-0.07808,0.04392,0.05368,0.0732,0.0732,0.06832
-0.0244,-0.00488,0.03416,0.04636,0.05856,-0.04148,-0.05856,0.05368,0.04392,0.0488,0.04392,0.03904
-0.01464,-0.00976,0.03416,0.04148,0.0488,-0.03172,-0.0488,0.06832,0.05368,0.05856,0.03904,0.0244
-0.0244,0.00488,0.01464,0.02684,0.03904,-0.03172,-0.02928,0.07808,0.06344,0.05368,0.0244,0.0244
-0.0488,0.03172,-0.01464,0.00976,0.03416,-0.04148,-0.02928,0.08296,0.06344,0.03904,-0.00976,0.00488
-0.05368,0.0366,-0.01952,0.00732,0.03416,-0.04392,-0.0244,0.08296,0.06344,0.03904,-0.01464,-0.01464
-0.04392,0.03172,-0.01952,0.00244,0.0244,-0.03416,-0.01952,0.07808,0.05368,0.03416,-0.0244,-0.0244
-0.0488,0.03172,-0.01464,0.00976,0.03416,-0.04148,-0.01952,0.08296,0.05856,0.03904,-0.03416,-0.02928
-0.04392,0.02928,-0.01464,0.00732,0.02928,-0.0366,-0.01464,0.0976,0.06344,0.03904,-0.03904,-0.0244
-0.04392,0.02928,-0.01464,0.00732,0.02928,-0.0366,-0.00976,0.10248,0.06344,0.03904,-0.03904,-0.0244
-0.0488,0.03904,-0.02928,-0.00488,0.01952,-0.03416,0,0.10736,0.07808,0.0488,-0.03416,-0.0244
-0.0488,0.04148,-0.03416,-0.00976,0.01464,-0.03172,0.00488,0.11224,0.08296,0.05856,-0.02928,-0.0244
-0.04392,0.0366,-0.02928,-0.00732,0.01464,-0.02928,0.00488,0.13176,0.0976,0.05856,-0.0244,-0.01464
-0.0488,0.0366,-0.0244,0,0.0244,-0.0366,0.00488,0.13664,0.10248,0.06344,-0.0244,-0.01464
-0.0488,0.03904,-0.02928,-0.00488,0.01952,-0.03416,0.00488,0.12688,0.09272,0.05368,-0.01464,-0.00488
-0.03416,0.03172,-0.02928,-0.0122,0.00488,-0.01952,0.01464,0.14152,0.11224,0.05856,-0.00488,0
-0.0244,0.02928,-0.03416,-0.02196,-0.00976,-0.00732,0.00488,0.1464,0.11224,0.06344,-0.01464,-0.00488
-0.03416,0.03416,-0.03416,-0.01708,0,-0.01708,0.00976,0.1464,0.11224,0.06832,-0.01464,-0.00976
-0.03416,0.02684,-0.01952,-0.00244,0.01464,-0.0244,0.00976,0.16104,0.122,0.06344,-0.00976,-0.01464
-0.03416,0.02684,-0.01952,-0.00244,0.01464,-0.0244,0.00976,0.16104,0.12688,0.06832,-0.00976,-0.01464
-0.03416,0.03172,-0.02928,-0.0122,0.00488,-0.01952,0.00976,0.1708,0.14152,0.07808,0.00488,-0.00976
-0.0488,0.0366,-0.0244,0,0.0244,-0.0366,0.00976,0.18056,0.15128,0.0976,0.01952,0.00976
-0.03904,0.02928,-0.01952,0,0.01952,-0.02928,0.01952,0.19032,0.15128,0.10248,0.01952,0.00488
-0.0488,0.03904,-0.02928,-0.00488,0.01952,-0.03416,0.0244,0.20496,0.16104,0.11224,0.02928,0.00976
-0.04392,0.0366,-0.02928,-0.00732,0.01464,-0.02928,0.01464,0.22448,0.1708,0.122,0.03416,0.00976
-0.02928,0.02196,-0.01464,0,0.01464,-0.02196,0.01952,0.23424,0.18544,0.13664,0.03904,0.01464
-0.01952,0.01708,-0.01464,-0.00488,0.00488,-0.0122,0.01952,0.23912,0.19032,0.1464,0.04392,0.0244
-0.01952,0.01464,-0.00976,0,0.00976,-0.01464,0.01952,0.24888,0.20008,0.16104,0.05368,0.02928
-0.02928,0.0244,-0.01952,-0.00488,0.00976,-0.01952,0.03416,0.25376,0.21472,0.16104,0.05856,0.03416
-0.01952,0.01464,-0.00976,0,0.00976,-0.01464,0.03416,0.26352,0.22448,0.1708,0.06344,0.03416
-0.01464,0.00244,0.00976,0.01708,0.0244,-0.01952,0.02928,0.28304,0.23424,0.1708,0.06832,0.03904
-0.00976,0.00244,0.00488,0.00976,0.01464,-0.0122,0.02928,0.2928,0.25376,0.18544,0.0732,0.04392
-0.00488,0.00488,-0.00488,-0.00244,0,-0.00244,0.01952,0.29768,0.26352,0.20984,0.07808,0.04392
0.00488,-0.00732,0.00976,0.00732,0.00488,0,0.0244,0.31232,0.27328,0.20984,0.07808,0.04392
0,-0.00488,0.00976,0.00976,0.00976,-0.00488,0.0244,0.32696,0.28792,0.22936,0.0732,0.04392
0,-0.00732,0.01464,0.01464,0.01464,-0.00732,0.02928,0.34648,0.30256,0.244,0.07808,0.03416
0.00976,-0.0122,0.01464,0.00976,0.00488,0.00244,0.03904,0.36112,0.3172,0.25864,0.07808,0.04392
0.01464,-0.01708,0.01952,0.0122,0.00488,0.00488,0.0488,0.3904,0.3416,0.27816,0.08784,0.0488
0.00488,-0.0122,0.01952,0.01708,0.01464,-0.00488,0.0488,0.40992,0.36112,0.29768,0.0976,0.05368
0.01464,-0.01464,0.01464,0.00732,0,0.00732,0.05368,0.43432,0.38552,0.3172,0.0976,0.06344
0.01952,-0.01708,0.01464,0.00488,-0.00488,0.0122,0.05856,0.4636,0.40992,0.33672,0.11712,0.05856
0.01952,-0.01708,0.01464,0.00488,-0.00488,0.0122,0.06832,0.488,0.43432,0.36112,0.12688,0.06344
0.03416,-0.03416,0.03416,0.01708,0,0.01708,0.06832,0.52216,0.46848,0.38552,0.14152,0.07808
0.04392,-0.04636,0.0488,0.02684,0.00488,0.01952,0.0732,0.54656,0.49288,0.4148,0.1464,0.09272
0.0488,-0.05856,0.06832,0.04392,0.01952,0.01464,0.08296,0.5856,0.51728,0.43432,0.15128,0.09272
0.05368,-0.061,0.06832,0.04148,0.01464,0.01952,0.08784,0.61976,0.55144,0.45872,0.1708,0.10248
0.06344,-0.07076,0.07808,0.04636,0.01464,0.0244,0.0976,0.66368,0.5856,0.49776,0.20008,0.11712
0.0732,-0.0854,0.0976,0.061,0.0244,0.0244,0.10736,0.70272,0.62952,0.53192,0.21472,0.12688
0.08296,-0.09516,0.10736,0.06588,0.0244,0.02928,0.11712,0.72712,0.66856,0.5612,0.23424,0.15128
0.0976,-0.11224,0.12688,0.07808,0.02928,0.03416,0.12688,0.76128,0.69784,0.59536,0.24888,0.16104
0.0976,-0.11468,0.13176,0.08296,0.03416,0.03172,0.12688,0.79544,0.73688,0.6344,0.25864,0.16592
0.11224,-0.12932,0.1464,0.09028,0.03416,0.03904,0.13664,0.83448,0.77592,0.66856,0.2684,0.17568
0.12688,-0.13908,0.15128,0.08784,0.0244,0.05124,0.1464,0.86864,0.81008,0.69784,0.28792,0.19032
0.13176,-0.14884,0.16592,0.10004,0.03416,0.0488,0.15128,0.9028,0.84424,0.72712,0.30256,0.20496
0.14152,-0.16592,0.19032,0.11956,0.0488,0.04636,0.15128,0.92232,0.86864,0.76128,0.32696,0.22448
0.1464,-0.17812,0.20984,0.13664,0.06344,0.04148,0.16104,0.94184,0.89792,0.79056,0.33672,0.244
0.16104,-0.19276,0.22448,0.14396,0.06344,0.0488,0.1708,0.97112,0.92232,0.82472,0.36112,0.26352
0.16592,-0.19764,0.22936,0.1464,0.06344,0.05124,0.17568,0.99064,0.94184,0.83936,0.37576,0.28792
0.18056,-0.21228,0.244,0.15372,0.06344,0.05856,0.17568,0.99552,0.9516,0.85888,0.3904,0.28304
0.19032,-0.22204,0.25376,0.1586,0.06344,0.06344,0.16592,0.99552,0.96136,0.86864,0.40504,0.29768
0.20496,-0.23668,0.2684,0.16592,0.06344,0.07076,0.16104,1.00528,0.97112,0.88816,0.42944,0.30744
0.21472,-0.24888,0.28304,0.17568,0.06832,0.0732,0.15616,0.98088,0.96624,0.88816,0.44408,0.32208
0.20984,-0.244,0.27816,0.17324,0.06832,0.07076,0.15616,0.95648,0.93696,0.86864,0.44408,0.32208
0.20984,-0.24644,0.28304,0.17812,0.0732,0.06832,0.1464,0.92232,0.91744,0.85888,0.45384,0.33672
0.22936,-0.26108,0.2928,0.17812,0.06344,0.08296,0.122,0.88328,0.88328,0.84424,0.46848,0.35136
0.22936,-0.26352,0.29768,0.183,0.06832,0.08052,0.10248,0.83936,0.83936,0.8052,0.47336,0.35624
0.22448,-0.2562,0.28792,0.17568,0.06344,0.08052,0.07808,0.77592,0.7808,0.7564,0.47824,0.366
0.2196,-0.25132,0.28304,0.17324,0.06344,0.07808,0.05856,0.70272,0.72712,0.71248,0.47824,0.366
0.20496,-0.2318,0.25864,0.15616,0.05368,0.07564,0.03904,0.64416,0.67832,0.67344,0.46848,0.34648
0.20008,-0.21716,0.23424,0.1342,0.03416,0.08296,0.02928,0.57584,0.61,0.61488,0.44408,0.33184
0.18544,-0.20252,0.2196,0.12688,0.03416,0.07564,0.01464,0.50752,0.54168,0.55144,0.40504,0.31232
0.16104,-0.17324,0.18544,0.10492,0.0244,0.06832,0,0.44408,0.47824,0.49288,0.37088,0.28304
0.14152,-0.14884,0.15616,0.0854,0.01464,0.06344,-0.01464,0.37576,0.40504,0.42456,0.33184,0.25376
0.122,-0.12688,0.13176,0.07076,0.00976,0.05612,-0.01952,0.32208,0.35136,0.366,0.28792,0.2196
0.09272,-0.09272,0.09272,0.04636,0,0.04636,-0.01952,0.27328,0.2928,0.3172,0.25376,0.18544
0.0732,-0.06588,0.05856,0.02196,-0.01464,0.04392,-0.01952,0.22448,0.24888,0.27328,0.21472,0.15616
0.05856,-0.0488,0.03904,0.00976,-0.01952,0.03904,-0.02928,0.18544,0.20008,0.23424,0.19032,0.12688
0.0488,-0.04636,0.04392,0.01952,-0.00488,0.02684,-0.02928,0.15616,0.16104,0.18056,0.16104,0.11224
0.03904,-0.02684,0.01464,-0.00488,-0.0244,0.03172,-0.02928,0.13176,0.13664,0.13664,0.13176,0.0976
0.02928,-0.00732,-0.01464,-0.02928,-0.04392,0.0366,-0.02928,0.10248,0.11224,0.11224,0.11224,0.0732
0.00976,0.01708,-0.04392,-0.0488,-0.05368,0.03172,-0.0244,0.08784,0.10736,0.10248,0.08296,0.05856
0,0.0244,-0.0488,-0.0488,-0.0488,0.0244,-0.01952,0.07808,0.09272,0.08296,0.06832,0.0488
0,0.02684,-0.05368,-0.05368,-0.05368,0.02684,-0.01952,0.06832,0.06344,0.06832,0.05368,0.03904
-0.01464,0.03416,-0.05368,-0.04636,-0.03904,0.0122,-0.01464,0.05856,0.05856,0.05368,0.03416,0.0244
-0.0244,0.04148,-0.05856,-0.04636,-0.03416,0.00488,-0.01464,0.0488,0.0488,0.04392,0.01952,0.01464
-0.0244,0.05368,-0.08296,-0.07076,-0.05856,0.01708,-0.01464,0.03904,0.03904,0.03416,0.00488,0.00488
-0.04392,0.06832,-0.09272,-0.07076,-0.0488,0.00244,-0.00488,0.03416,0.0244,0.0244,-0.00976,0
-0.05368,0.07564,-0.0976,-0.07076,-0.04392,-0.00488,0,0.03416,0.01952,0.01464,-0.01952,-0.01952
-0.04392,0.06832,-0.09272,-0.07076,-0.0488,0.00244,-0.00976,0.02928,0.02928,0.0244,-0.02928,-0.02928
-0.04392,0.06832,-0.09272,-0.07076,-0.0488,0.00244,-0.00976,0.02928,0.02928,0.01952,-0.03416,-0.02928
-0.05368,0.08784,-0.122,-0.09516,-0.06832,0.00732,-0.00976,0.0244,0.00976,0.00976,-0.03416,-0.02928
-0.05368,0.0854,-0.11712,-0.09028,-0.06344,0.00488,-0.00976,0.0244,0.01464,0.00976,-0.04392,-0.02928
-0.04392,0.08296,-0.122,-0.10004,-0.07808,0.01708,-0.00976,0.02928,0.02928,0.01952,-0.03416,-0.02928
-0.0488,0.08296,-0.11712,-0.09272,-0.06832,0.00976,-0.00976,0.02928,0.02928,0.01952,-0.03416,-0.02928
-0.03416,0.06588,-0.0976,-0.08052,-0.06344,0.01464,0,0.03416,0.0244,0.01464,-0.03416,-0.03416
-0.03416,0.06588,-0.0976,-0.08052,-0.06344,0.01464,0,0.03416,0.0244,0.01464,-0.03416,-0.03416
-0.04392,0.0732,-0.10248,-0.08052,-0.05856,0.00732,0,0.03416,0.0244,0.01464,-0.03416,-0.03416
-0.04392,0.07076,-0.0976,-0.07564,-0.05368,0.00488,0,0.03416,0.0244,0.01464,-0.03416,-0.03416
-0.03416,0.06832,-0.10248,-0.0854,-0.06832,0.01708,-0.00976,0.03416,0.03416,0.0244,-0.02928,-0.0244
-0.02928,0.06588,-0.10248,-0.08784,-0.0732,0.02196,-0.01464,0.03904,0.03416,0.0244,-0.02928,-0.02928
-0.03416,0.07564,-0.11712,-0.10004,-0.08296,0.0244,-0.01464,0.04392,0.02928,0.0244,-0.02928,-0.03416
-0.02928,0.06832,-0.10736,-0.09272,-0.07808,0.0244,-0.01464,0.04392,0.03416,0.0244,-0.02928,-0.02928
-0.02928,0.07076,-0.11224,-0.0976,-0.08296,0.02684,-0.00488,0.0488,0.03416,0.02928,-0.03416,-0.02928
-0.04392,0.0854,-0.12688,-0.10492,-0.08296,0.01952,0,0.0488,0.03416,0.02928,-0.02928,-0.0244
-0.03904,0.0854,-0.13176,-0.11224,-0.09272,0.02684,-0.00976,0.03904,0.03416,0.02928,-0.02928,-0.01464
-0.04392,0.08784,-0.13176,-0.1098,-0.08784,0.02196,-0.01464,0.03904,0.03416,0.0244,-0.02928,-0.01464
-0.0488,0.09516,-0.14152,-0.11712,-0.09272,0.02196,-0.01464,0.03904,0.03416,0.01952,-0.02928,-0.0244
-0.0488,0.09028,-0.13176,-0.10736,-0.08296,0.01708,-0.01464,0.03904,0.03416,0.01952,-0.02928,-0.0244
-0.0488,0.09272,-0.13664,-0.11224,-0.08784,0.01952,-0.01464,0.03904,0.04392,0.0244,-0.03904,-0.03416
-0.04392,0.09272,-0.14152,-0.11956,-0.0976,0.02684,-0.01952,0.03416,0.04392,0.0244,-0.03904,-0.03416
-0.04392,0.0854,-0.12688,-0.10492,-0.08296,0.01952,-0.01952,0.03416,0.03416,0.01464,-0.03904,-0.03416
-0.04392,0.08296,-0.122,-0.10004,-0.07808,0.01708,-0.01952,0.03416,0.02928,0.01464,-0.04392,-0.03904
-0.04392,0.08296,-0.122,-0.10004,-0.07808,0.01708,-0.01952,0.03416,0.02928,0.00976,-0.04392,-0.02928
-0.02928,0.07564,-0.122,-0.10736,-0.09272,0.03172,-0.01952,0.02928,0.0244,0.01464,-0.04392,-0.0244
-0.02928,0.07808,-0.12688,-0.11224,-0.0976,0.03416,-0.01952,0.03904,0.02928,0.01464,-0.04392,-0.0244
-0.03904,0.08296,-0.12688,-0.10736,-0.08784,0.0244,-0.01952,0.02928,0.02928,0.01464,-0.04392,-0.0244
-0.02928,0.07564,-0.122,-0.10736,-0.09272,0.03172,-0.01464,0.03416,0.02928,0.01464,-0.04392,-0.03416
-0.01952,0.06832,-0.11712,-0.10736,-0.0976,0.03904,-0.01464,0.03416,0.02928,0.00976,-0.04392,-0.02928
-0.01464,0.07076,-0.12688,-0.11956,-0.11224,0.0488,-0.0244,0.03416,0.0244,0.00976,-0.03416,-0.02928
-0.00488,0.06832,-0.13176,-0.12932,-0.12688,0.061,-0.02928,0.02928,0.0244,0.00976,-0.03416,-0.02928
-0.03416,0.08052,-0.12688,-0.1098,-0.09272,0.02928,-0.01952,0.0244,0.01952,0.00976,-0.02928,-0.02928
-0.04392,0.0854,-0.12688,-0.10492,-0.08296,0.01952,-0.01952,0.01952,0.01952,0.00488,-0.02928,-0.02928
-0.04392,0.09028,-0.13664,-0.11468,-0.09272,0.0244,-0.01464,0.02928,0.01464,0,-0.02928,-0.03416
-0.04392,0.09516,-0.1464,-0.12444,-0.10248,0.02928,-0.01464,0.0244,0.01464,-0.00488,-0.02928,-0.03416
-0.03904,0.0976,-0.15616,-0.13664,-0.11712,0.03904,-0.02928,0.01952,0,-0.01464,-0.02928,-0.03416
-0.03904,0.09516,-0.15128,-0.13176,-0.11224,0.0366,-0.02928,0.00976,-0.00488,-0.01952,-0.02928,-0.03416
-0.0488,0.10492,-0.16104,-0.13664,-0.11224,0.03172,-0.0244,0.00976,-0.00488,-0.01952,-0.02928,-0.0488
-0.05368,0.10736,-0.16104,-0.1342,-0.10736,0.02684,-0.0244,0.00976,0,-0.01952,-0.03904,-0.05368
-0.04392,0.10248,-0.16104,-0.13908,-0.11712,0.0366,-0.0244,0.01464,0,-0.01952,-0.03904,-0.05368
-0.02928,0.0976,-0.16592,-0.15128,-0.13664,0.05368,-0.0244,0.01464,0,-0.01952,-0.03904,-0.05368
-0.03416,0.10248,-0.1708,-0.15372,-0.13664,0.05124,-0.0244,0.01464,-0.00488,-0.03416,-0.04392,-0.05368
-0.03416,0.0976,-0.16104,-0.14396,-0.12688,0.04636,-0.0244,0.00488,-0.00976,-0.03416,-0.04392,-0.05368
-0.03904,0.10492,-0.1708,-0.15128,-0.13176,0.04636,-0.0244,0.00976,0,-0.0244,-0.03416,-0.04392
-0.03904,0.10248,-0.16592,-0.1464,-0.12688,0.04392,-0.0244,0.00976,0.00488,-0.0244,-0.03416,-0.04392
-0.0244,0.09028,-0.15616,-0.14396,-0.13176,0.05368,-0.01952,0.00976,0,-0.02928,-0.02928,-0.03416
-0.0244,0.09272,-0.16104,-0.14884,-0.13664,0.05612,-0.01952,0.00488,0,-0.02928,-0.03904,-0.03416
-0.02928,0.0976,-0.16592,-0.15128,-0.13664,0.05368,-0.0244,0.00488,0,-0.03416,-0.0488,-0.03416
-0.03904,0.1098,-0.18056,-0.16104,-0.14152,0.05124,-0.0244,0.00488,-0.00488,-0.03416,-0.0488,-0.03416
-0.05368,0.122,-0.19032,-0.16348,-0.13664,0.04148,-0.0244,0.00976,-0.00488,-0.03416,-0.0488,-0.03416
-0.05368,0.12688,-0.20008,-0.17324,-0.1464,0.04636,-0.01952,0.00976,-0.00488,-0.03416,-0.05368,-0.03416
-0.03904,0.11224,-0.18544,-0.16592,-0.1464,0.05368,-0.01464,0.00488,-0.00488,-0.03416,-0.03904,-0.03416
-0.02928,0.1098,-0.19032,-0.17568,-0.16104,0.06588,-0.01952,0.00488,-0.00488,-0.03416,-0.04392,-0.04392
-0.03416,0.1098,-0.18544,-0.16836,-0.15128,0.05856,-0.01464,0.00488,-0.00488,-0.03416,-0.05368,-0.03904
-0.03904,0.11224,-0.18544,-0.16592,-0.1464,0.05368,-0.01464,0.00488,-0.00488,-0.02928,-0.05368,-0.03416
-0.03904,0.11468,-0.19032,-0.1708,-0.15128,0.05612,-0.01952,0.00488,-0.01464,-0.04392,-0.06344,-0.04392
-0.04392,0.11712,-0.19032,-0.16836,-0.1464,0.05124,-0.02928,0.00488,-0.01464,-0.04392,-0.06344,-0.04392
-0.02928,0.10736,-0.18544,-0.1708,-0.15616,0.06344,-0.0244,-0.00488,-0.01952,-0.05368,-0.06344,-0.04392
-0.0244,0.10248,-0.18056,-0.16836,-0.15616,0.06588,-0.0244,-0.00488,-0.01952,-0.05368,-0.05856,-0.04392
-0.02928,0.10736,-0.18544,-0.1708,-0.15616,0.06344,-0.01952,0.00488,-0.01952,-0.0488,-0.05856,-0.04392
-0.02928,0.1098,-0.19032,-0.17568,-0.16104,0.06588,-0.0244,0,-0.00976,-0.03904,-0.05368,-0.04392
-0.03416,0.1098,-0.18544,-0.16836,-0.15128,0.05856,-0.0244,0.00976,0.00488,-0.0244,-0.04392,-0.04392
-0.03416,0.1098,-0.18544,-0.16836,-0.15128,0.05856,-0.02928,0.00976,0,-0.0244,-0.03904,-0.04392
-0.01952,0.10004,-0.18056,-0.1708,-0.16104,0.07076,-0.02928,0.01952,0.00488,-0.02928,-0.02928,-0.03416
-0.01952,0.10004,-0.18056,-0.1708,-0.16104,0.07076,-0.0244,0.01952,0.00488,-0.0244,-0.0244,-0.03416
-0.0244,0.10736,-0.19032,-0.17812,-0.16592,0.07076,0.00976,0.02928,0.01464,-0.0244,-0.03416,-0.02928
-0.03416,0.10248,-0.1708,-0.15372,-0.13664,0.05124,0.01464,0.04392,0.03416,0.00488,-0.01952,-0.02928
-0.02928,0.09028,-0.15128,-0.13664,-0.122,0.04636,0.0244,0.0488,0.03904,0,-0.01952,-0.02928
-0.02928,0.0854,-0.14152,-0.12688,-0.11224,0.04148,0.03416,0.0488,0.03904,0,-0.01952,-0.02928
-0.02928,0.0732,-0.11712,-0.10248,-0.08784,0.02928,0.0488,0.05368,0.0488,0.00976,-0.00976,-0.02928
-0.02928,0.06832,-0.10736,-0.09272,-0.07808,0.0244,0.05856,0.06832,0.05856,0.0244,-0.00488,-0.0244
-0.02928,0.061,-0.09272,-0.07808,-0.06344,0.01708,0.05368,0.05856,0.05368,0.01952,0.00488,-0.01464
-0.01952,0.05124,-0.08296,-0.0732,-0.06344,0.02196,0.03904,0.06344,0.05368,0.0244,0.01464,-0.00976
-0.00488,0.0366,-0.06832,-0.06588,-0.06344,0.02928,0.00976,0.05368,0.0488,0.0244,0.0244,0.00488
0.00488,0.03172,-0.06832,-0.07076,-0.0732,0.03904,-0.00976,0.03416,0.03904,0.00976,0.02928,0.00488
0.02928,0.01464,-0.05856,-0.0732,-0.08784,0.05856,-0.03416,0.0244,0.03416,-0.00488,0.02928,0.01952
0.02928,0.02196,-0.0732,-0.08784,-0.10248,0.06588,-0.0488,0.01464,0.0244,-0.00488,0.02928,0.01952
0.01952,0.03416,-0.08784,-0.0976,-0.10736,0.06344,-0.0732,0.00976,0.02928,-0.00488,0.0244,0.00976
0.02928,0.03416,-0.0976,-0.11224,-0.12688,0.07808,-0.06832,0.01464,0.02928,-0.00488,0.0244,0.00976
0.0488,0.03416,-0.11712,-0.14152,-0.16592,0.10736,-0.0732,0.03416,0.03416,0.00488,0.0244,0.0244
0.06832,0.0244,-0.11712,-0.15128,-0.18544,0.12688,-0.0732,0.03416,0.03904,0.00976,0.02928,0.0244
0.05856,0.02928,-0.11712,-0.1464,-0.17568,0.11712,-0.06832,0.03416,0.03416,0.00976,0.0244,0.01464
0.05368,0.04392,-0.14152,-0.16836,-0.1952,0.12444,-0.06832,0.03416,0.03416,0.00488,0.01464,0.01464
0.03416,0.06344,-0.16104,-0.17812,-0.1952,0.11468,-0.06832,0.01464,0.02928,-0.01464,-0.00488,0.00488
0.01464,0.0854,-0.18544,-0.19276,-0.20008,0.10736,-0.06832,0.00976,0.01464,-0.01952,-0.00976,-0.00488
-0.01952,0.1098,-0.20008,-0.19032,-0.18056,0.08052,-0.05368,0.00976,0,-0.02928,-0.01464,-0.00976
-0.0244,0.11468,-0.20496,-0.19276,-0.18056,0.07808,-0.04392,0.00488,0,-0.03904,-0.03416,-0.02928
-0.03416,0.12932,-0.22448,-0.2074,-0.19032,0.07808,-0.04392,-0.00976,-0.0244,-0.05368,-0.05368,-0.04392
-0.0488,0.13908,-0.22936,-0.20496,-0.18056,0.06588,-0.04392,-0.01952,-0.03416,-0.06344,-0.06344,-0.0488
-0.05368,0.1464,-0.23912,-0.21228,-0.18544,0.06588,-0.03904,-0.0244,-0.0244,-0.05856,-0.05856,-0.0488
-0.0488,0.14884,-0.24888,-0.22448,-0.20008,0.07564,-0.03416,-0.02928,-0.02928,-0.06344,-0.06832,-0.05856
-0.03416,0.13908,-0.244,-0.22692,-0.20984,0.08784,-0.03904,-0.01952,-0.02928,-0.06344,-0.05856,-0.04392
-0.02928,0.12932,-0.22936,-0.21472,-0.20008,0.0854,-0.03904,-0.01952,-0.02928,-0.06344,-0.05368,-0.04392
-0.02928,0.1342,-0.23912,-0.22448,-0.20984,0.09028,-0.0488,-0.01952,-0.02928,-0.06344,-0.05368,-0.04392
-0.02928,0.1342,-0.23912,-0.22448,-0.20984,0.09028,-0.0488,-0.01952,-0.0244,-0.05856,-0.05368,-0.04392
-0.0244,0.12932,-0.23424,-0.22204,-0.20984,0.09272,-0.03416,-0.01464,-0.02928,-0.05856,-0.0488,-0.03904
-0.0244,0.122,-0.2196,-0.2074,-0.1952,0.0854,-0.03904,-0.01464,-0.03416,-0.06832,-0.0488,-0.03904
-0.0244,0.12444,-0.22448,-0.21228,-0.20008,0.08784,-0.0244,-0.01464,-0.03904,-0.06832,-0.05368,-0.03904
-0.0244,0.122,-0.2196,-0.2074,-0.1952,0.0854,-0.01952,-0.01464,-0.03904,-0.06832,-0.0488,-0.03904
-0.03904,0.13176,-0.22448,-0.20496,-0.18544,0.0732,-0.01952,-0.01464,-0.02928,-0.05856,-0.03904,-0.03904
-0.04392,0.1342,-0.22448,-0.20252,-0.18056,0.06832,-0.01952,-0.00976,-0.02928,-0.05856,-0.03904,-0.04392
-0.03904,0.13664,-0.23424,-0.21472,-0.1952,0.07808,-0.01952,-0.00976,-0.01952,-0.05368,-0.02928,-0.04392
-0.03904,0.1342,-0.22936,-0.20984,-0.19032,0.07564,-0.01952,-0.00488,-0.01952,-0.05368,-0.02928,-0.03904
-0.03904,0.12688,-0.21472,-0.1952,-0.17568,0.06832,-0.0244,-0.00488,-0.01464,-0.05368,-0.03416,-0.03904
-0.03904,0.12688,-0.21472,-0.1952,-0.17568,0.06832,-0.0244,0,-0.00976,-0.0488,-0.03416,-0.03904
-0.03904,0.13176,-0.22448,-0.20496,-0.18544,0.0732,-0.01464,-0.00976,-0.01952,-0.0488,-0.04392,-0.0488
-0.03904,0.13176,-0.22448,-0.20496,-0.18544,0.0732,-0.01464,-0.00976,-0.01952,-0.0488,-0.04392,-0.0488
-0.0244,0.122,-0.2196,-0.2074,-0.1952,0.0854,-0.0244,-0.00488,-0.00976,-0.05856,-0.04392,-0.0488
-0.02928,0.12444,-0.2196,-0.20496,-0.19032,0.08052,-0.00488,0.01464,0,-0.0488,-0.04392,-0.0488
-0.04392,0.15372,-0.26352,-0.24156,-0.2196,0.08784,0.06832,0.07808,0.02928,-0.0488,-0.07808,-0.07808
-0.06832,0.17568,-0.28304,-0.24888,-0.21472,0.0732,0.13664,0.1464,0.0732,-0.01952,-0.13176,-0.13176
-0.0976,0.17568,-0.25376,-0.20496,-0.15616,0.02928,0.2196,0.28792,0.20984,0.08296,-0.11224,-0.13176
-0.0488,0.08784,-0.12688,-0.10248,-0.07808,0.01464,0.26352,0.45872,0.38064,0.244,-0.01464,-0.05368
0.0732,-0.03172,-0.00976,-0.04636,-0.08296,0.07808,0.2196,0.53192,0.48312,0.3904,0.13176,0.0732
0.2196,-0.17568,0.13176,0.02196,-0.08784,0.15372,0.18544,0.71248,0.69784,0.62952,0.35624,0.27328
0.42944,-0.39528,0.36112,0.1464,-0.06832,0.24888,0.10736,0.86864,0.94672,0.96624,0.732,0.59048
0.67344,-0.62464,0.57584,0.23912,-0.0976,0.38552,-0.07808,0.7564,1.00528,1.20536,1.16144,0.97112
0.92232,-0.8784,0.83448,0.37332,-0.08784,0.50508,-0.4636,0.27816,0.77592,1.27856,1.60064,1.37128
0.97112,-0.98332,0.99552,0.50996,0.0244,0.47336,-0.7076,-0.07808,0.61976,1.32248,1.89832,1.62016
0.95648,-0.94428,0.93208,0.45384,-0.0244,0.49044,-0.854,-0.33184,0.4392,1.2688,2.01544,1.73728
0.78568,-0.8296,0.87352,0.48068,0.08784,0.34892,-0.79544,-0.5124,0.19032,0.976,1.76168,1.54208
0.47824,-0.52948,0.58072,0.3416,0.10248,0.18788,-0.62952,-0.69296,-0.20008,0.36112,1.098,1.0248
0.1708,-0.19764,0.22448,0.13908,0.05368,0.05856,-0.5368,-0.84912,-0.59536,-0.30744,0.33184,0.41968
0.03904,-0.03904,0.03904,0.01952,0,0.01952,-0.44408,-0.7076,-0.5856,-0.42944,0.02928,0.11712
-0.00976,0.03416,-0.05856,-0.05368,-0.0488,0.01952,-0.35136,-0.42456,-0.37088,-0.2928,-0.03904,0.01952
0.0244,0.01952,-0.06344,-0.07564,-0.08784,0.05612,-0.20984,-0.11712,-0.08296,-0.05856,0.02928,0.02928
0.0488,0.01952,-0.08784,-0.11224,-0.13664,0.09272,-0.0976,0.03904,0.05368,0.06832,0.09272,0.06344
0.0488,0.01708,-0.08296,-0.10736,-0.13176,0.09028,-0.0488,0.08296,0.08296,0.0732,0.08296,0.05856
0.04392,0.0244,-0.09272,-0.11468,-0.13664,0.09028,-0.02928,0.10248,0.10248,0.07808,0.0732,0.0488
0.03416,0.0244,-0.08296,-0.10004,-0.11712,0.07564,0,0.10736,0.10248,0.07808,0.0488,0.0244
0.03416,0.04392,-0.122,-0.13908,-0.15616,0.09516,0.00976,0.12688,0.10248,0.06344,0.0244,0.00488
0.02928,0.04636,-0.122,-0.13664,-0.15128,0.09028,0.01952,0.13176,0.11224,0.06832,0.01952,0
0.0244,0.05124,-0.12688,-0.13908,-0.15128,0.08784,0.0244,0.13176,0.11224,0.06832,0.01464,-0.00976
0.01952,0.061,-0.14152,-0.15128,-0.16104,0.09028,0.03904,0.13664,0.10248,0.05368,-0.00488,-0.01464
0.00488,0.07076,-0.1464,-0.14884,-0.15128,0.07808,0.03904,0.14152,0.10736,0.05856,-0.01464,-0.01952
-0.00488,0.08296,-0.16104,-0.1586,-0.15616,0.07564,0.04392,0.15616,0.122,0.06832,-0.01464,-0.01952
-0.00488,0.08296,-0.16104,-0.1586,-0.15616,0.07564,0.0488,0.16104,0.122,0.06832,-0.0244,-0.02928
-0.00976,0.08296,-0.15616,-0.15128,-0.1464,0.06832,0.03904,0.15616,0.12688,0.06832,-0.0244,-0.0244
-0.00976,0.07564,-0.14152,-0.13664,-0.13176,0.061,0.04392,0.16104,0.13176,0.07808,-0.01952,-0.0244
-0.00488,0.07564,-0.1464,-0.14396,-0.14152,0.06832,0.04392,0.16104,0.12688,0.06832,-0.0244,-0.0244
-0.00976,0.0854,-0.16104,-0.15616,-0.15128,0.07076,0.04392,0.16592,0.13176,0.0732,-0.0244,-0.0244
-0.01464,0.08784,-0.16104,-0.15372,-0.1464,0.06588,0.04392,0.15616,0.122,0.0732,-0.03416,-0.03416
-0.00976,0.08052,-0.15128,-0.1464,-0.14152,0.06588,0.05368,0.1708,0.14152,0.07808,-0.0244,-0.02928
0.00488,0.06832,-0.14152,-0.14396,-0.1464,0.07564,0.06344,0.18544,0.15128,0.09272,-0.01952,-0.01952
0.01464,0.06344,-0.14152,-0.14884,-0.15616,0.0854,0.06832,0.18544,0.15128,0.0976,-0.00976,-0.01464
0.00488,0.06588,-0.13664,-0.13908,-0.14152,0.0732,0.06832,0.20008,0.16104,0.10248,-0.00976,-0.01464
0.00488,0.06588,-0.13664,-0.13908,-0.14152,0.0732,0.06832,0.20008,0.16592,0.10736,-0.00976,-0.01464
0.00976,0.05856,-0.12688,-0.13176,-0.13664,0.0732,0.07808,0.2196,0.1708,0.122,-0.00488,-0.01464
0.00488,0.05856,-0.122,-0.12444,-0.12688,0.06588,0.07808,0.22936,0.18056,0.13176,0.00976,-0.00488
0.02928,0.04148,-0.11224,-0.12688,-0.14152,0.0854,0.06832,0.23912,0.19032,0.13664,0.00976,-0.00488
0.01952,0.04636,-0.11224,-0.122,-0.13176,0.07564,0.0732,0.25376,0.20008,0.13664,0.01952,0
0.00976,0.05368,-0.11712,-0.122,-0.12688,0.06832,0.0732,0.25376,0.20984,0.13176,0.01464,0
0.01464,0.05368,-0.122,-0.12932,-0.13664,0.07564,0.07808,0.26352,0.22448,0.1464,0.01952,0.00488
0.01952,0.05124,-0.122,-0.13176,-0.14152,0.08052,0.08784,0.2684,0.22936,0.1464,0.0244,0.00488
0.01952,0.0488,-0.11712,-0.12688,-0.13664,0.07808,0.08784,0.27816,0.23912,0.16104,0.03416,0.00976
0.01952,0.05368,-0.12688,-0.13664,-0.1464,0.08296,0.09272,0.28304,0.244,0.16104,0.03904,0.01464
0.02928,0.04392,-0.11712,-0.13176,-0.1464,0.08784,0.09272,0.2928,0.25376,0.1708,0.04392,0.01464
0.01952,0.04392,-0.10736,-0.11712,-0.12688,0.0732,0.0976,0.31232,0.26352,0.18544,0.0488,0.01952
0.01464,0.0488,-0.11224,-0.11956,-0.12688,0.07076,0.0976,0.32208,0.28304,0.20984,0.05368,0.0244
0.03416,0.03416,-0.10248,-0.11956,-0.13664,0.0854,0.0976,0.34648,0.29768,0.23912,0.06832,0.02928
0.04392,0.02196,-0.08784,-0.1098,-0.13176,0.08784,0.10248,0.36112,0.3172,0.23912,0.06832,0.03904
0.0488,0.01708,-0.08296,-0.10736,-0.13176,0.09028,0.10248,0.366,0.33184,0.24888,0.06344,0.04392
0.0488,0.00976,-0.06832,-0.09272,-0.11712,0.08296,0.10736,0.38552,0.33672,0.26352,0.06832,0.03416
0.03904,0.01708,-0.0732,-0.09272,-0.11224,0.07564,0.10736,0.40992,0.35136,0.27816,0.06832,0.03416
0.04392,0.0122,-0.06832,-0.09028,-0.11224,0.07808,0.11712,0.4392,0.38552,0.29768,0.07808,0.03904
0.0488,0.00244,-0.05368,-0.07808,-0.10248,0.07564,0.11712,0.44896,0.40016,0.30744,0.0976,0.04392
0.06832,-0.00976,-0.0488,-0.08296,-0.11712,0.09272,0.122,0.47336,0.42456,0.32696,0.0976,0.05368
0.07808,-0.02196,-0.03416,-0.0732,-0.11224,0.09516,0.13664,0.49288,0.4392,0.34648,0.12688,0.05856
0.07808,-0.02196,-0.03416,-0.0732,-0.11224,0.09516,0.1464,0.51728,0.4636,0.37088,0.13664,0.06344
0.07808,-0.01952,-0.03904,-0.07808,-0.11712,0.0976,0.1464,0.55144,0.488,0.39528,0.15128,0.07808
0.07808,-0.02196,-0.03416,-0.0732,-0.11224,0.09516,0.15128,0.57584,0.5124,0.42456,0.15616,0.09272
0.08784,-0.0366,-0.01464,-0.05856,-0.10248,0.09516,0.1708,0.62464,0.55144,0.4636,0.18056,0.10248
0.09272,-0.04392,-0.00488,-0.05124,-0.0976,0.09516,0.17568,0.6588,0.59536,0.488,0.20008,0.11224
0.09272,-0.05368,0.01464,-0.03172,-0.07808,0.0854,0.18544,0.69296,0.62952,0.51728,0.20984,0.10736
0.10248,-0.06344,0.0244,-0.02684,-0.07808,0.09028,0.1952,0.732,0.66368,0.55144,0.22448,0.11712
0.09272,-0.05612,0.01952,-0.02684,-0.0732,0.08296,0.21472,0.76616,0.7076,0.58072,0.23424,0.122
0.10736,-0.0732,0.03904,-0.01464,-0.06832,0.08784,0.22448,0.80032,0.73688,0.61488,0.24888,0.13176
0.122,-0.09272,0.06344,0.00244,-0.05856,0.09028,0.22448,0.83448,0.76616,0.64416,0.27816,0.15128
0.1464,-0.122,0.0976,0.0244,-0.0488,0.0976,0.23424,0.87352,0.8052,0.67832,0.28792,0.1708
0.15616,-0.12932,0.10248,0.0244,-0.05368,0.10492,0.244,0.89792,0.8296,0.7076,0.29768,0.19032
0.16104,-0.13908,0.11712,0.0366,-0.04392,0.10248,0.24888,0.93208,0.86376,0.73688,0.31232,0.20496
0.1708,-0.1464,0.122,0.0366,-0.0488,0.1098,0.2684,0.96136,0.89792,0.7808,0.33672,0.22448
0.17568,-0.1586,0.14152,0.05368,-0.03416,0.10492,0.27816,0.98088,0.9272,0.81008,0.34648,0.244
0.20008,-0.183,0.16592,0.06588,-0.03416,0.11712,0.2684,1.01016,0.9516,0.83448,0.37088,0.25376
0.22448,-0.2074,0.19032,0.07808,-0.03416,0.12932,0.27328,1.02968,0.97112,0.84912,0.38552,0.27816
0.23424,-0.21472,0.1952,0.07808,-0.03904,0.13664,0.28304,1.03456,0.98088,0.8784,0.3904,0.28304
0.23424,-0.2196,0.20496,0.08784,-0.02928,0.13176,0.27328,1.03456,0.99064,0.88816,0.40504,0.29768
0.22448,-0.21716,0.20984,0.0976,-0.01464,0.11956,0.2684,1.02968,0.98088,0.88816,0.40992,0.29768
0.23424,-0.22936,0.22448,0.10736,-0.00976,0.122,0.26352,0.99552,0.976,0.88816,0.42456,0.31232
0.24888,-0.244,0.23912,0.11468,-0.00976,0.12932,0.25376,0.96624,0.9516,0.8784,0.43432,0.33184
0.24888,-0.24644,0.244,0.11956,-0.00488,0.12688,0.244,0.93208,0.92232,0.86864,0.44408,0.34648
0.24888,-0.244,0.23912,0.11468,-0.00976,0.12932,0.2196,0.87352,0.86864,0.83936,0.4392,0.3416
0.24888,-0.24156,0.23424,0.1098,-0.01464,0.13176,0.20008,0.81008,0.81496,0.79056,0.44408,0.34648
0.23424,-0.2318,0.22936,0.11224,-0.00488,0.11956,0.16592,0.74176,0.76128,0.74664,0.4392,0.33672
0.22936,-0.22692,0.22448,0.1098,-0.00488,0.11712,0.1464,0.67832,0.7076,0.70272,0.4392,0.33672
0.23424,-0.2196,0.20496,0.08784,-0.02928,0.13176,0.13664,0.61488,0.64904,0.64904,0.42456,0.32696
0.22936,-0.20984,0.19032,0.07564,-0.03904,0.1342,0.12688,0.54656,0.58072,0.58072,0.40992,0.31232
0.20984,-0.18544,0.16104,0.05612,-0.0488,0.12932,0.11224,0.46848,0.50264,0.5124,0.37576,0.2928
0.17568,-0.15128,0.12688,0.03904,-0.0488,0.11224,0.0976,0.40504,0.4392,0.45384,0.3416,0.26352
0.15616,-0.12932,0.10248,0.0244,-0.05368,0.10492,0.09272,0.34648,0.366,0.39528,0.3172,0.22936
0.1464,-0.11712,0.08784,0.01464,-0.05856,0.10248,0.08784,0.2928,0.31232,0.33672,0.28304,0.20496
0.122,-0.08784,0.05368,-0.00732,-0.06832,0.09516,0.08784,0.244,0.26352,0.27816,0.25376,0.17568
0.10248,-0.061,0.01952,-0.03172,-0.08296,0.09272,0.08784,0.1952,0.2196,0.23424,0.21472,0.1464
0.0732,-0.02928,-0.01464,-0.05124,-0.08784,0.08052,0.0976,0.16592,0.18056,0.20008,0.19032,0.11712
0.05368,-0.01708,-0.01952,-0.04636,-0.0732,0.06344,0.0976,0.13664,0.14152,0.15616,0.16104,0.10248
0.0488,-0.00488,-0.03904,-0.06344,-0.08784,0.06832,0.08784,0.122,0.11712,0.12688,0.13176,0.07808
0.03904,0.00976,-0.05856,-0.07808,-0.0976,0.06832,0.08784,0.09272,0.09272,0.10248,0.11224,0.05368
0.01952,0.03172,-0.08296,-0.09272,-0.10248,0.061,0.10248,0.08296,0.06832,0.08296,0.08784,0.0488
0.00976,0.03904,-0.08784,-0.09272,-0.0976,0.05368,0.10736,0.06344,0.05368,0.06344,0.08296,0.03904
0.00488,0.0488,-0.10248,-0.10492,-0.10736,0.05612,0.10736,0.0488,0.03416,0.0488,0.0732,0.02928
-0.01952,0.061,-0.10248,-0.09272,-0.08296,0.03172,0.11224,0.03904,0.02928,0.03416,0.05368,0.01464
-0.01952,0.05612,-0.09272,-0.08296,-0.0732,0.02684,0.11224,0.03904,0.0244,0.03416,0.0488,0.01464
-0.00976,0.05856,-0.10736,-0.10248,-0.0976,0.04392,0.11224,0.02928,0.0244,0.0244,0.03416,0.00488
-0.00488,0.05856,-0.11224,-0.1098,-0.10736,0.05124,0.10248,0.0244,0.01464,0.01464,0.01952,0.00488
-0.01464,0.06588,-0.11712,-0.1098,-0.10248,0.04392,0.10736,0.0244,0.00976,0.00488,0.00976,-0.00488
-0.01952,0.07076,-0.122,-0.11224,-0.10248,0.04148,0.11712,0.01952,0.00976,0.00488,0,-0.01952
-0.02928,0.07564,-0.122,-0.10736,-0.09272,0.03172,0.11712,0.01952,0.00976,0,-0.00488,-0.01952
-0.02928,0.07808,-0.12688,-0.11224,-0.0976,0.03416,0.11712,0.01464,-0.00976,0,0.00488,-0.00976
-0.01952,0.06588,-0.11224,-0.10248,-0.09272,0.0366,0.11712,0.01464,-0.00488,0,-0.00488,-0.00976
-0.0244,0.07076,-0.11712,-0.10492,-0.09272,0.03416,0.10736,0.00976,0,0,-0.01464,-0.01952
-0.02928,0.07564,-0.122,-0.10736,-0.09272,0.03172,0.10736,0.00976,0,0,-0.01464,-0.01952
-0.03416,0.0732,-0.11224,-0.09516,-0.07808,0.02196,0.11712,0.01464,0.00488,0.00488,-0.03416,-0.0244
-0.03416,0.07808,-0.122,-0.10492,-0.08784,0.02684,0.11712,0.01464,0.00488,0.00488,-0.03416,-0.0244
-0.03416,0.07564,-0.11712,-0.10004,-0.08296,0.0244,0.12688,0.01464,0.00488,0.00488,-0.03416,-0.01464
-0.03416,0.06832,-0.10248,-0.0854,-0.06832,0.01708,0.12688,0.01464,0.00488,0.00488,-0.03416,-0.01464
-0.03904,0.0732,-0.10736,-0.08784,-0.06832,0.01464,0.11712,0.00488,-0.00488,-0.00488,-0.02928,-0.01464
-0.04392,0.08052,-0.11712,-0.09516,-0.0732,0.01464,0.11224,0.00976,-0.00488,-0.00488,-0.02928,-0.01952
-0.04392,0.08784,-0.13176,-0.1098,-0.08784,0.02196,0.10248,-0.00488,-0.01952,-0.00488,-0.03904,-0.0244
-0.03904,0.0854,-0.13176,-0.11224,-0.09272,0.02684,0.10248,-0.00488,-0.01464,-0.00488,-0.03904,-0.01952
-0.02928,0.07076,-0.11224,-0.0976,-0.08296,0.02684,0.11224,0.00976,-0.01464,0,-0.03416,-0.01952
-0.0244,0.06588,-0.10736,-0.09516,-0.08296,0.02928,0.11712,0.00976,-0.01464,0,-0.02928,-0.01464
-0.02928,0.07076,-0.11224,-0.0976,-0.08296,0.02684,0.11712,0.00976,-0.00488,-0.00976,-0.02928,-0.0244
-0.03416,0.0732,-0.11224,-0.09516,-0.07808,0.02196,0.11224,0.00976,-0.00488,-0.01464,-0.02928,-0.0244
-0.02928,0.07076,-0.11224,-0.0976,-0.08296,0.02684,0.10248,0,-0.01464,0,-0.01952,-0.0244
-0.02928,0.06588,-0.10248,-0.08784,-0.0732,0.02196,0.10248,0,-0.01464,0,-0.01952,-0.0244
-0.02928,0.06344,-0.0976,-0.08296,-0.06832,0.01952,0.10248,0.00976,-0.01464,-0.00488,-0.01952,-0.0244
-0.0244,0.06344,-0.10248,-0.09028,-0.07808,0.02684,0.0976,0.00488,-0.01464,-0.00488,-0.01952,-0.0244
-0.0244,0.06588,-0.10736,-0.09516,-0.08296,0.02928,0.0976,0.01464,-0.00488,0.00488,-0.01952,-0.0244
-0.0244,0.06344,-0.10248,-0.09028,-0.07808,0.02684,0.0976,0.01464,-0.00976,0.00488,-0.0244,-0.02928
-0.03904,0.0732,-0.10736,-0.08784,-0.06832,0.01464,0.08784,0.00976,-0.01952,-0.00976,-0.0244,-0.02928
-0.03416,0.07564,-0.11712,-0.10004,-0.08296,0.0244,0.08784,-0.00488,-0.0244,-0.00488,-0.0244,-0.0244
-0.03416,0.07564,-0.11712,-0.10004,-0.08296,0.0244,0.07808,0,-0.02928,-0.01464,-0.01464,-0.01464
-0.03416,0.07564,-0.11712,-0.10004,-0.08296,0.0244,0.07808,-0.00976,-0.02928,-0.01464,-0.01464,-0.01464
-0.04392,0.08052,-0.11712,-0.09516,-0.0732,0.01464,0.0732,-0.00976,-0.02928,-0.0244,-0.0244,-0.03416
-0.04392,0.08296,-0.122,-0.10004,-0.07808,0.01708,0.0732,-0.01952,-0.02928,-0.02928,-0.0244,-0.02928
-0.03416,0.0732,-0.11224,-0.09516,-0.07808,0.02196,0.06344,-0.01464,-0.03416,-0.02928,-0.0244,-0.02928
-0.0244,0.06588,-0.10736,-0.09516,-0.08296,0.02928,0.05856,-0.01952,-0.03416,-0.02928,-0.0244,-0.02928
-0.02928,0.06344,-0.0976,-0.08296,-0.06832,0.01952,0.05856,-0.03416,-0.0488,-0.03904,-0.00976,-0.02928
-0.02928,0.06344,-0.0976,-0.08296,-0.06832,0.01952,0.05856,-0.03904,-0.0488,-0.04392,-0.00976,-0.02928
-0.03416,0.07076,-0.10736,-0.09028,-0.0732,0.01952,0.05368,-0.03904,-0.05368,-0.03904,-0.01952,-0.03416
-0.03416,0.07564,-0.11712,-0.10004,-0.08296,0.0244,0.05368,-0.04392,-0.05368,-0.04392,-0.01952,-0.03416
-0.01952,0.06344,-0.10736,-0.0976,-0.08784,0.03416,0.0488,-0.03416,-0.0488,-0.03416,-0.01464,-0.0244
-0.01952,0.061,-0.10248,-0.09272,-0.08296,0.03172,0.0488,-0.03416,-0.05368,-0.03904,-0.00488,-0.0244
-0.02928,0.07076,-0.11224,-0.0976,-0.08296,0.02684,0.04392,-0.0488,-0.0732,-0.05856,0,-0.02928
-0.03416,0.0732,-0.11224,-0.09516,-0.07808,0.02196,0.04392,-0.0488,-0.06832,-0.05856,-0.00976,-0.03416
-0.03904,0.08052,-0.122,-0.10248,-0.08296,0.02196,0.04392,-0.06344,-0.06832,-0.06832,-0.01952,-0.03416
-0.03416,0.08052,-0.12688,-0.1098,-0.09272,0.02928,0.04392,-0.06344,-0.06832,-0.06832,-0.01952,-0.03416
-0.04392,0.08296,-0.122,-0.10004,-0.07808,0.01708,0.05368,-0.05368,-0.06344,-0.06344,-0.0244,-0.03416
-0.04392,0.07808,-0.11224,-0.09028,-0.06832,0.0122,0.05368,-0.06344,-0.06832,-0.06344,-0.0244,-0.03416
-0.05856,0.09516,-0.13176,-0.10248,-0.0732,0.00732,0.04392,-0.05856,-0.07808,-0.06344,-0.0244,-0.03416
-0.05856,0.09272,-0.12688,-0.0976,-0.06832,0.00488,0.04392,-0.05856,-0.0732,-0.06344,-0.0244,-0.03416
-0.05368,0.09028,-0.12688,-0.10004,-0.0732,0.00976,0.0488,-0.05856,-0.07808,-0.05856,-0.02928,-0.04392
-0.05368,0.09272,-0.13176,-0.10492,-0.07808,0.0122,0.0488,-0.06344,-0.07808,-0.05856,-0.03904,-0.04392
-0.0488,0.08784,-0.12688,-0.10248,-0.07808,0.01464,0.03416,-0.06344,-0.07808,-0.0732,-0.03904,-0.03416
-0.03904,0.08052,-0.122,-0.10248,-0.08296,0.02196,0.03416,-0.06344,-0.08296,-0.0732,-0.03904,-0.03416
-0.04392,0.07808,-0.11224,-0.09028,-0.06832,0.0122,0.03416,-0.06832,-0.08296,-0.0732,-0.03904,-0.03416
-0.04392,0.08296,-0.122,-0.10004,-0.07808,0.01708,0.03904,-0.06832,-0.08296,-0.0732,-0.04392,-0.03416
-0.04392,0.08296,-0.122,-0.10004,-0.07808,0.01708,0.04392,-0.0732,-0.09272,-0.08296,-0.03904,-0.03416
-0.04392,0.09028,-0.13664,-0.11468,-0.09272,0.0244,0.03904,-0.0732,-0.09272,-0.08296,-0.04392,-0.04392
-0.04392,0.08296,-0.122,-0.10004,-0.07808,0.01708,0.04392,-0.0732,-0.08296,-0.08296,-0.04392,-0.03904
-0.02928,0.07076,-0.11224,-0.0976,-0.08296,0.02684,0.04392,-0.0732,-0.08296,-0.07808,-0.04392,-0.03416
-0.03416,0.08052,-0.12688,-0.1098,-0.09272,0.02928,0.04392,-0.0732,-0.09272,-0.0732,-0.04392,-0.03416
-0.0488,0.09272,-0.13664,-0.11224,-0.08784,0.01952,0.04392,-0.0732,-0.09272,-0.0732,-0.04392,-0.03416
-0.0488,0.09272,-0.13664,-0.11224,-0.08784,0.01952,0.04392,-0.0732,-0.08784,-0.0732,-0.04392,-0.03416
-0.04392,0.08784,-0.13176,-0.1098,-0.08784,0.02196,0.04392,-0.0732,-0.08784,-0.0732,-0.03904,-0.03416
-0.03904,0.08784,-0.13664,-0.11712,-0.0976,0.02928,0.03904,-0.0732,-0.09272,-0.0732,-0.03904,-0.03416
-0.03904,0.09028,-0.14152,-0.122,-0.10248,0.03172,0.03416,-0.07808,-0.09272,-0.0732,-0.03416,-0.03416
-0.05856,0.10248,-0.1464,-0.11712,-0.08784,0.01464,0.03904,-0.06832,-0.08296,-0.06344,-0.0244,-0.03416
-0.06832,0.10736,-0.1464,-0.11224,-0.07808,0.00488,0.04392,-0.06832,-0.08784,-0.06344,-0.01952,-0.03416
-0.05856,0.10248,-0.1464,-0.11712,-0.08784,0.01464,0.03904,-0.07808,-0.09272,-0.0732,-0.02928,-0.03416
-0.05856,0.0976,-0.13664,-0.10736,-0.07808,0.00976,0.04392,-0.07808,-0.09272,-0.07808,-0.0244,-0.03416
-0.04392,0.08784,-0.13176,-0.1098,-0.08784,0.02196,0.0488,-0.08784,-0.10248,-0.08296,-0.0244,-0.03904
-0.04392,0.08784,-0.13176,-0.1098,-0.08784,0.02196,0.04392,-0.08296,-0.10248,-0.08296,-0.01952,-0.03904
-0.06344,0.0976,-0.13176,-0.10004,-0.06832,0.00244,0.04392,-0.08296,-0.10248,-0.08296,-0.01952,-0.03904
-0.05856,0.09516,-0.13176,-0.10248,-0.0732,0.00732,0.04392,-0.08296,-0.10248,-0.08296,-0.01952,-0.03904
-0.05368,0.08784,-0.122,-0.09516,-0.06832,0.00732,0.0488,-0.07808,-0.09272,-0.08296,-0.00488,-0.03416
-0.04392,0.08052,-0.11712,-0.09516,-0.0732,0.01464,0.0488,-0.0732,-0.08784,-0.07808,-0.00488,-0.0244
-0.03904,0.07808,-0.11712,-0.0976,-0.07808,0.01952,0.0488,-0.08296,-0.0976,-0.07808,-0.00488,-0.02928
-0.03904,0.08052,-0.122,-0.10248,-0.08296,0.02196,0.0488,-0.08296,-0.10248,-0.08296,-0.00488,-0.02928
-0.05856,0.09272,-0.12688,-0.0976,-0.06832,0.00488,0.05368,-0.0732,-0.08784,-0.0732,-0.00488,-0.02928
-0.05368,0.09028,-0.12688,-0.10004,-0.0732,0.00976,0.05856,-0.0732,-0.08784,-0.0732,-0.00976,-0.02928
-0.05368,0.0854,-0.11712,-0.09028,-0.06344,0.00488,0.0732,-0.06832,-0.09272,-0.0732,-0.01464,-0.02928
-0.03904,0.06832,-0.0976,-0.07808,-0.05856,0.00976,0.08784,-0.05856,-0.08784,-0.06832,0,-0.01952
-0.02928,0.05856,-0.08784,-0.0732,-0.05856,0.01464,0.0976,-0.0488,-0.07808,-0.05856,0,-0.01952
-0.02928,0.05368,-0.07808,-0.06344,-0.0488,0.00976,0.0976,-0.0488,-0.07808,-0.05856,0,-0.01952
-0.03904,0.05124,-0.06344,-0.04392,-0.0244,-0.00732,0.11712,-0.04392,-0.06344,-0.04392,-0.00488,-0.0244
-0.0488,0.0488,-0.0488,-0.0244,0,-0.0244,0.11712,-0.0488,-0.05368,-0.03904,-0.00488,-0.01464
-0.03416,0.02928,-0.0244,-0.00732,0.00976,-0.02196,0.0976,-0.05856,-0.06344,-0.03416,-0.00488,-0.01464
-0.01952,0.00488,0.00976,0.01952,0.02928,-0.0244,0.07808,-0.05368,-0.05856,-0.02928,0.00488,-0.00976
-0.00976,0,0.00976,0.01464,0.01952,-0.01464,0.05368,-0.05368,-0.05856,-0.03416,0.00976,0.00488
-0.00488,-0.00244,0.00976,0.0122,0.01464,-0.00976,0.04392,-0.05856,-0.0732,-0.04392,0.00976,0.00488
-0.00976,0.01464,-0.01952,-0.01464,-0.00976,0,0.01464,-0.07808,-0.08784,-0.05368,0,0.00976
-0.01952,0.03416,-0.0488,-0.03904,-0.02928,0.00488,-0.00488,-0.0976,-0.0976,-0.06832,-0.00488,0.00976
0.00488,0.0122,-0.02928,-0.03172,-0.03416,0.01952,-0.0244,-0.10736,-0.10736,-0.0732,0.00488,0.01952
0.01952,0.00976,-0.03904,-0.0488,-0.05856,0.03904,-0.02928,-0.10736,-0.10736,-0.0732,0.00488,0.01952
0.01952,0.02684,-0.0732,-0.08296,-0.09272,0.05612,-0.0244,-0.10248,-0.11224,-0.0732,-0.00488,0.01464
0.0244,0.0244,-0.0732,-0.0854,-0.0976,0.061,-0.0244,-0.0976,-0.10248,-0.0732,0,0.01464
0.03416,0.0244,-0.08296,-0.10004,-0.11712,0.07564,-0.02928,-0.08784,-0.09272,-0.05856,0.00976,0.01464
0.03904,0.0244,-0.08784,-0.10736,-0.12688,0.08296,-0.02928,-0.08784,-0.09272,-0.06344,0,0.01464
0.02928,0.02684,-0.08296,-0.0976,-0.11224,0.07076,-0.01952,-0.0976,-0.10736,-0.06832,0,0.00976
0.00976,0.04148,-0.09272,-0.0976,-0.10248,0.05612,-0.00488,-0.0976,-0.10736,-0.0732,0,0.00488
-0.00976,0.05856,-0.10736,-0.10248,-0.0976,0.04392,0.00488,-0.0976,-0.0976,-0.0732,-0.00488,-0.00976
-0.02928,0.0732,-0.11712,-0.10248,-0.08784,0.02928,0.01464,-0.10248,-0.10736,-0.0732,-0.01464,-0.01952
-0.05856,0.10004,-0.14152,-0.11224,-0.08296,0.0122,0.0244,-0.10248,-0.10736,-0.08784,-0.03416,-0.0244
-0.0732,0.1098,-0.1464,-0.1098,-0.0732,0,0.03904,-0.10248,-0.11224,-0.09272,-0.04392,-0.03416
-0.05856,0.09516,-0.13176,-0.10248,-0.0732,0.00732,0.03416,-0.10248,-0.122,-0.10736,-0.04392,-0.03416
-0.05368,0.09272,-0.13176,-0.10492,-0.07808,0.0122,0.01952,-0.10736,-0.12688,-0.11224,-0.03904,-0.03904
-0.0488,0.09272,-0.13664,-0.11224,-0.08784,0.01952,0.00976,-0.11712,-0.12688,-0.11224,-0.03904,-0.03416
-0.0488,0.09516,-0.14152,-0.11712,-0.09272,0.02196,0.00976,-0.11712,-0.12688,-0.11224,-0.03416,-0.03416
-0.0488,0.09028,-0.13176,-0.10736,-0.08296,0.01708,0.01952,-0.10736,-0.12688,-0.0976,-0.0244,-0.03416
-0.0488,0.09028,-0.13176,-0.10736,-0.08296,0.01708,0.01952,-0.10248,-0.122,-0.0976,-0.01952,-0.02928
-0.03416,0.08296,-0.13176,-0.11468,-0.0976,0.03172,0.0244,-0.10248,-0.11712,-0.0976,-0.02928,-0.02928
-0.03416,0.08052,-0.12688,-0.1098,-0.09272,0.02928,0.01952,-0.10248,-0.122,-0.0976,-0.03416,-0.02928
-0.04392,0.09028,-0.13664,-0.11468,-0.09272,0.0244,0.0244,-0.10248,-0.11712,-0.0976,-0.01952,-0.02928
-0.05368,0.09272,-0.13176,-0.10492,-0.07808,0.0122,0.02928,-0.10248,-0.11712,-0.0976,-0.01952,-0.02928
-0.05368,0.09516,-0.13664,-0.1098,-0.08296,0.01464,0.02928,-0.0976,-0.10736,-0.0976,-0.02928,-0.03416
-0.05368,0.09516,-0.13664,-0.1098,-0.08296,0.01464,0.02928,-0.0976,-0.10736,-0.0976,-0.02928,-0.03416
-0.0488,0.09272,-0.13664,-0.11224,-0.08784,0.01952,0.02928,-0.09272,-0.11712,-0.10248,-0.01952,-0.03416
-0.0488,0.08784,-0.12688,-0.10248,-0.07808,0.01464,0.02928,-0.09272,-0.11224,-0.10248,-0.01952,-0.02928
-0.05856,0.0976,-0.13664,-0.10736,-0.07808,0.00976,0.0244,-0.08784,-0.10736,-0.08784,-0.0244,-0.02928
-0.05856,0.0976,-0.13664,-0.10736,-0.07808,0.00976,0.0244,-0.08784,-0.10736,-0.08784,-0.0244,-0.02928
-0.05856,0.09272,-0.12688,-0.0976,-0.06832,0.00488,0.0244,-0.08784,-0.0976,-0.08784,-0.03416,-0.03904
-0.05856,0.08784,-0.11712,-0.08784,-0.05856,0,0.0244,-0.08784,-0.0976,-0.08784,-0.03416,-0.03904
-0.0244,0.05856,-0.09272,-0.08052,-0.06832,0.02196,0.03416,-0.08296,-0.0976,-0.07808,-0.0244,-0.02928
-0.05368,0.09272,-0.13176,-0.10492,-0.07808,0.0122,0.06832,-0.04392,-0.0732,-0.0732,-0.0488,-0.05368
-0.08784,0.13664,-0.18544,-0.14152,-0.0976,0.00488,0.1464,0.03904,-0.0244,-0.06344,-0.10248,-0.0976
-0.10736,0.13664,-0.16592,-0.11224,-0.05856,-0.0244,0.22936,0.13664,0.06344,-0.01464,-0.11224,-0.11224
-0.08296,0.09272,-0.10248,-0.061,-0.01952,-0.03172,0.28304,0.27816,0.19032,0.09272,-0.0732,-0.09272
0.00976,-0.0244,0.03904,0.03416,0.02928,-0.00976,0.2684,0.366,0.3172,0.25864,0.06832,0.02928
0.12688,-0.1342,0.14152,0.07808,0.01464,0.05612,0.244,0.5368,0.50752,0.46848,0.25376,0.19032
0.3172,-0.33428,0.35136,0.19276,0.03416,0.14152,0.17568,0.73688,0.77104,0.7808,0.57584,0.47336
0.54168,-0.55876,0.57584,0.305,0.03416,0.25376,0.05368,0.72712,0.9028,1.0492,0.94672,0.78568
0.77592,-0.77592,0.77592,0.38796,0,0.38796,-0.2196,0.4392,0.81008,1.16632,1.33224,1.13704
0.98576,-1.0126,1.03944,0.54656,0.05368,0.46604,-0.57584,-0.02928,0.5856,1.23464,1.73728,1.49328
1.0004,-1.05652,1.11264,0.61244,0.11224,0.44408,-0.81496,-0.32696,0.44408,1.27368,1.9764,1.708
0.8784,-0.92476,0.97112,0.53192,0.09272,0.39284,-0.83936,-0.52216,0.22936,1.07848,1.8788,1.62992
0.61488,-0.7076,0.80032,0.49288,0.18544,0.21472,-0.69296,-0.66856,-0.06344,0.64904,1.41032,1.26392
0.3172,-0.38552,0.45384,0.29524,0.13664,0.09028,-0.5856,-0.854,-0.47336,0.01464,0.732,0.72712
0.08296,-0.1464,0.20984,0.16836,0.12688,-0.02196,-0.48312,-0.87352,-0.69784,-0.43432,0.1464,0.24888
0.01952,-0.04392,0.06832,0.05856,0.0488,-0.01464,-0.39528,-0.62952,-0.55632,-0.40992,-0.01952,0.04392
0.01464,-0.02684,0.03904,0.03172,0.0244,-0.00488,-0.25864,-0.28304,-0.244,-0.15616,0.0244,0.03904
0.03904,-0.03416,0.02928,0.00976,-0.00976,0.0244,-0.12688,-0.08784,-0.06344,0,0.07808,0.05368
0.01952,-0.00976,0,-0.00976,-0.01952,0.01952,-0.05856,0,0.00976,0.0488,0.10248,0.06344
0.01952,-0.01464,0.00976,0,-0.00976,0.01464,-0.01952,0.0244,0.0244,0.05368,0.09272,0.06344
0.0244,-0.02196,0.01952,0.00732,-0.00488,0.01464,0.00976,0.03904,0.03416,0.0488,0.0732,0.0488
0.0244,-0.01952,0.01464,0.00244,-0.00976,0.01708,0.01952,0.03904,0.03416,0.0488,0.06344,0.03416
0.02928,-0.00732,-0.01464,-0.02928,-0.04392,0.0366,0.01952,0.05368,0.03416,0.03904,0.05856,0.0244
0.01952,0.00488,-0.02928,-0.03904,-0.0488,0.03416,0.03416,0.06344,0.04392,0.03904,0.03416,0.01464
0.00488,0.0122,-0.02928,-0.03172,-0.03416,0.01952,0.03416,0.06832,0.04392,0.03904,0.02928,0.00976
-0.00976,0.02684,-0.04392,-0.03904,-0.03416,0.0122,0.03904,0.07808,0.05856,0.04392,0.01464,-0.00976
-0.01952,0.0366,-0.05368,-0.04392,-0.03416,0.00732,0.03904,0.08784,0.05856,0.0488,0.00976,-0.00976
-0.0244,0.03416,-0.04392,-0.03172,-0.01952,-0.00244,0.04392,0.08296,0.05368,0.03904,0.00976,0
-0.01952,0.03172,-0.04392,-0.03416,-0.0244,0.00244,0.0488,0.08784,0.05368,0.03904,0.00488,-0.00976
-0.01952,0.03904,-0.05856,-0.0488,-0.03904,0.00976,0.0488,0.0976,0.05856,0.04392,0,-0.01464
-0.01464,0.04392,-0.0732,-0.06588,-0.05856,0.02196,0.05368,0.10248,0.06344,0.0488,-0.00488,-0.01464
-0.01464,0.04148,-0.06832,-0.061,-0.05368,0.01952,0.05368,0.10736,0.06832,0.0488,-0.01464,-0.00488
-0.0244,0.04148,-0.05856,-0.04636,-0.03416,0.00488,0.05368,0.10736,0.0732,0.05368,-0.01464,-0.00488
-0.00976,0.02928,-0.0488,-0.04392,-0.03904,0.01464,0.0488,0.11224,0.09272,0.06344,-0.00488,-0.00488
-0.00488,0.0244,-0.04392,-0.04148,-0.03904,0.01708,0.05368,0.12688,0.10248,0.06832,0.00488,0
-0.00976,0.02684,-0.04392,-0.03904,-0.03416,0.0122,0.0488,0.12688,0.09272,0.0732,-0.00488,0
-0.01464,0.02684,-0.03904,-0.03172,-0.0244,0.00488,0.0488,0.13664,0.10248,0.07808,-0.00488,0.00488
-0.00488,0.02196,-0.03904,-0.0366,-0.03416,0.01464,0.05856,0.14152,0.11712,0.08784,0.00976,0.00488
0,0.01952,-0.03904,-0.03904,-0.03904,0.01952,0.06832,0.15128,0.11712,0.08784,0.01464,0.00488
0.00488,0.0122,-0.02928,-0.03172,-0.03416,0.01952,0.05856,0.16104,0.12688,0.09272,0.01464,0.00976
0.00976,0.00732,-0.0244,-0.02928,-0.03416,0.02196,0.05856,0.16104,0.13664,0.10736,0.01952,0.01464
0.00976,0.00732,-0.0244,-0.02928,-0.03416,0.02196,0.05856,0.18544,0.1464,0.10736,0.01952,0.00976
0,0.0122,-0.0244,-0.0244,-0.0244,0.0122,0.06344,0.20008,0.15616,0.11224,0.03416,0.00976
0.00488,0.0122,-0.02928,-0.03172,-0.03416,0.01952,0.05368,0.20984,0.16592,0.13176,0.02928,0.00976
0.00488,0.01464,-0.03416,-0.0366,-0.03904,0.02196,0.05856,0.21472,0.18056,0.13664,0.03416,0.01464
0.01952,0,-0.01952,-0.02928,-0.03904,0.02928,0.06832,0.20984,0.18056,0.14152,0.04392,0.0244
0.01952,0,-0.01952,-0.02928,-0.03904,0.02928,0.06832,0.23424,0.20008,0.15616,0.05856,0.02928
0.00488,0.00976,-0.0244,-0.02684,-0.02928,0.01708,0.0732,0.24888,0.2196,0.17568,0.05368,0.0244
0,0.0122,-0.0244,-0.0244,-0.0244,0.0122,0.07808,0.25864,0.22936,0.18544,0.05856,0.0244
0.00488,0.00244,-0.00976,-0.0122,-0.01464,0.00976,0.07808,0.27816,0.23912,0.1952,0.06832,0.03904
0.00976,0.00244,-0.01464,-0.01952,-0.0244,0.01708,0.07808,0.2928,0.25376,0.21472,0.0732,0.04392
0.0244,-0.01952,0.01464,0.00244,-0.00976,0.01708,0.08296,0.29768,0.25864,0.20984,0.06832,0.03416
0.03416,-0.03172,0.02928,0.0122,-0.00488,0.01952,0.08296,0.31232,0.2684,0.22448,0.06832,0.03416
0.02928,-0.02684,0.0244,0.00976,-0.00488,0.01708,0.08784,0.3416,0.30256,0.244,0.08296,0.0488
0.01952,-0.01708,0.01464,0.00488,-0.00488,0.0122,0.08784,0.36112,0.31232,0.25864,0.08784,0.05368
0.03904,-0.03172,0.0244,0.00488,-0.01464,0.02684,0.07808,0.37088,0.32696,0.27816,0.11224,0.06832
0.05368,-0.04148,0.02928,0.00244,-0.0244,0.03904,0.08784,0.39528,0.35136,0.29768,0.122,0.0732
0.05368,-0.04636,0.03904,0.0122,-0.01464,0.03416,0.0976,0.42944,0.37576,0.30744,0.12688,0.06832
0.06832,-0.05856,0.0488,0.01464,-0.01952,0.04392,0.10736,0.44896,0.39528,0.32696,0.14152,0.07808
0.05856,-0.05124,0.04392,0.01464,-0.01464,0.0366,0.10248,0.47824,0.42456,0.34648,0.14152,0.0732
0.05856,-0.05368,0.0488,0.01952,-0.00976,0.03416,0.10736,0.50752,0.45384,0.37088,0.15128,0.07808
0.06832,-0.06344,0.05856,0.0244,-0.00976,0.03904,0.13176,0.54656,0.488,0.40504,0.16592,0.09272
0.0732,-0.07808,0.08296,0.04636,0.00976,0.03172,0.13664,0.57584,0.52216,0.4392,0.17568,0.09272
0.07808,-0.08296,0.08784,0.0488,0.00976,0.03416,0.13664,0.61488,0.55144,0.46848,0.20496,0.10736
0.08296,-0.09028,0.0976,0.05612,0.01464,0.03416,0.14152,0.64416,0.5856,0.49288,0.21472,0.11224
0.08784,-0.0976,0.10736,0.06344,0.01952,0.03416,0.15128,0.67832,0.61976,0.52704,0.22936,0.122
0.09272,-0.10492,0.11712,0.07076,0.0244,0.03416,0.16104,0.72224,0.6588,0.55632,0.24888,0.13664
0.10736,-0.122,0.13664,0.08296,0.02928,0.03904,0.17568,0.76128,0.69296,0.60512,0.27328,0.15616
0.13176,-0.14152,0.15128,0.0854,0.01952,0.05612,0.18056,0.79056,0.72224,0.6344,0.28304,0.16592
0.13176,-0.14396,0.15616,0.09028,0.0244,0.05368,0.19032,0.8296,0.75152,0.66368,0.28792,0.1708
0.14152,-0.15616,0.1708,0.10004,0.02928,0.05612,0.20008,0.86376,0.78568,0.6832,0.30256,0.18544
0.15616,-0.17568,0.1952,0.11712,0.03904,0.05856,0.20984,0.89792,0.83448,0.71248,0.30744,0.20496
0.16104,-0.19032,0.2196,0.13908,0.05856,0.05124,0.2196,0.9272,0.86376,0.74664,0.32208,0.22448
0.18544,-0.21472,0.244,0.15128,0.05856,0.06344,0.22448,0.95648,0.89304,0.78568,0.33672,0.244
0.1952,-0.2318,0.2684,0.1708,0.0732,0.061,0.22936,0.98088,0.92232,0.81496,0.35136,0.25376
0.20008,-0.23668,0.27328,0.17324,0.0732,0.06344,0.23424,1.0004,0.94184,0.83936,0.36112,0.26352
0.21472,-0.25132,0.28792,0.18056,0.0732,0.07076,0.23424,1.01016,0.96136,0.85888,0.37576,0.27816
0.20984,-0.24888,0.28792,0.183,0.07808,0.06588,0.22936,1.0248,0.976,0.8784,0.38552,0.28792
0.2196,-0.25864,0.29768,0.18788,0.07808,0.07076,0.22448,1.0248,0.98088,0.88816,0.40992,0.30256
0.23912,-0.27572,0.31232,0.19276,0.0732,0.08296,0.2196,1.01504,0.98088,0.88816,0.42456,0.33184
0.244,-0.28548,0.32696,0.20496,0.08296,0.08052,0.20984,0.99064,0.96624,0.88328,0.42944,0.33672
0.23912,-0.27816,0.3172,0.19764,0.07808,0.08052,0.18544,0.93696,0.92232,0.86376,0.42944,0.3416
0.24888,-0.28792,0.32696,0.20252,0.07808,0.0854,0.1708,0.88816,0.88816,0.84424,0.4392,0.35136
0.25864,-0.29768,0.33672,0.2074,0.07808,0.09028,0.14152,0.82472,0.84912,0.81496,0.44896,0.36112
0.25376,-0.29524,0.33672,0.20984,0.08296,0.0854,0.11712,0.76616,0.79544,0.77592,0.45384,0.366
0.26352,-0.305,0.34648,0.21472,0.08296,0.09028,0.0976,0.71736,0.74176,0.72712,0.44896,0.35624
0.25864,-0.29768,0.33672,0.2074,0.07808,0.09028,0.07808,0.64416,0.67832,0.67832,0.44408,0.35136
0.244,-0.27328,0.30256,0.18056,0.05856,0.09272,0.06344,0.56608,0.60024,0.62464,0.42944,0.33184
0.21472,-0.24644,0.27816,0.1708,0.06344,0.07564,0.04392,0.50264,0.5368,0.5612,0.40504,0.31232
0.20984,-0.23912,0.2684,0.16348,0.05856,0.07564,0.04392,0.44408,0.488,0.50264,0.38064,0.29768
0.19032,-0.21228,0.23424,0.13908,0.04392,0.0732,0.02928,0.37576,0.41968,0.44408,0.34648,0.2684
0.1708,-0.18544,0.20008,0.11468,0.02928,0.07076,0.01952,0.32696,0.36112,0.38064,0.32208,0.24888
0.15128,-0.16348,0.17568,0.10004,0.0244,0.06344,0.01464,0.27328,0.29768,0.32696,0.28304,0.2196
0.12688,-0.12932,0.13176,0.06832,0.00488,0.061,0.00976,0.2196,0.24888,0.27328,0.24888,0.19032
0.08784,-0.0976,0.10736,0.06344,0.01952,0.03416,0.00976,0.18056,0.21472,0.23912,0.22936,0.16104
0.08296,-0.09272,0.10248,0.061,0.01952,0.03172,0.00976,0.15128,0.18544,0.1952,0.20496,0.13664
0.06344,-0.07076,0.07808,0.04636,0.01464,0.0244,0.00976,0.13664,0.1464,0.15616,0.17568,0.11224
0.0488,-0.05856,0.06832,0.04392,0.01952,0.01464,0.00976,0.11224,0.122,0.13176,0.13664,0.08784
0.03416,-0.03904,0.04392,0.02684,0.00976,0.0122,0.01464,0.09272,0.10736,0.11224,0.122,0.07808
0.00976,-0.01464,0.01952,0.01464,0.00976,0,0.00976,0.08296,0.08784,0.10248,0.0976,0.05856
0.00976,-0.01464,0.01952,0.01464,0.00976,0,0,0.0732,0.0732,0.08296,0.07808,0.03904
0.00976,-0.01708,0.0244,0.01952,0.01464,-0.00244,0.01464,0.05856,0.0732,0.08296,0.0732,0.03416
0.01464,-0.01952,0.0244,0.01708,0.00976,0.00244,0.01464,0.0488,0.06344,0.06344,0.05856,0.03904
0.0244,-0.0244,0.0244,0.0122,0,0.0122,0.00488,0.04392,0.0488,0.0488,0.03904,0.02928
0.0244,-0.01952,0.01464,0.00244,-0.00976,0.01708,0.00488,0.03416,0.0488,0.04392,0.03416,0.0244
0,0,0,0,0,0,0.01952,0.04392,0.05368,0.0488,0.03904,0.0244
-0.00488,0.00244,0,0.00244,0.00488,-0.00488,0.01952,0.04392,0.0488,0.05368,0.0244,0.01464
0.00488,-0.00488,0.00488,0.00244,0,0.00244,0.00976,0.02928,0.03904,0.03904,0.01464,0.00976
0.01464,-0.00732,0,-0.00732,-0.01464,0.01464,0.00976,0.0244,0.02928,0.02928,0.01464,0.00976
0.00488,-0.00244,0,-0.00244,-0.00488,0.00488,0.00976,0.0244,0.03416,0.02928,-0.00488,0
0.00488,-0.00488,0.00488,0.00244,0,0.00244,0.00976,0.02928,0.03416,0.02928,-0.00488,0.00976
-0.00976,0.00732,-0.00488,0,0.00488,-0.00732,0.00976,0.03904,0.03904,0.03904,-0.01464,0
-0.00488,0,0.00488,0.00732,0.00976,-0.00732,0.00976,0.03416,0.03416,0.03904,-0.0244,-0.00488
0.00488,-0.00732,0.00976,0.00732,0.00488,0,0.00976,0.0244,0.03416,0.03416,-0.01464,0.00488
0.00488,-0.00732,0.00976,0.00732,0.00488,0,0.00976,0.0244,0.03416,0.03416,-0.01464,0.00488
-0.00488,0,0.00488,0.00732,0.00976,-0.00732,0.00976,0.03416,0.03416,0.03416,-0.01464,0.01464
-0.00976,-0.00244,0.01464,0.01952,0.0244,-0.01708,0.00976,0.03416,0.03416,0.03416,-0.00976,0.01464
-0.00976,0.00244,0.00488,0.00976,0.01464,-0.0122,0.00976,0.02928,0.04392,0.03416,-0.00976,0
-0.0244,0.01464,-0.00488,0.00732,0.01952,-0.02196,0.00488,0.0244,0.03904,0.03416,-0.00976,0
0,-0.00244,0.00488,0.00488,0.00488,-0.00244,0.00488,0.03416,0.04392,0.03416,0,0.00488
0.01464,-0.01708,0.01952,0.0122,0.00488,0.00488,0.00488,0.03904,0.04392,0.03904,0.00488,0.00976
0,-0.00244,0.00488,0.00488,0.00488,-0.00244,0.00488,0.03904,0.04392,0.02928,0,0.01464
0,-0.00244,0.00488,0.00488,0.00488,-0.00244,0.00976,0.03904,0.04392,0.02928,0,0.01464
-0.00488,-0.00488,0.01464,0.01708,0.01952,-0.0122,0.00488,0.03904,0.04392,0.03416,0.00976,0.00488
0,-0.00732,0.01464,0.01464,0.01464,-0.00732,0.00488,0.03904,0.04392,0.03416,0.00976,0.00488
0.00976,-0.01708,0.0244,0.01952,0.01464,-0.00244,0.00488,0.0488,0.05368,0.0488,0.00976,0.01464
0.00976,-0.02196,0.03416,0.02928,0.0244,-0.00732,0.00488,0.0488,0.05368,0.04392,0.00976,0.01464
0,-0.00732,0.01464,0.01464,0.01464,-0.00732,0.01464,0.03904,0.04392,0.04392,0.00976,0.01464
-0.00488,-0.00732,0.01952,0.02196,0.0244,-0.01464,0.00976,0.03416,0.04392,0.04392,0.00976,0.01464
-0.00488,-0.00488,0.01464,0.01708,0.01952,-0.0122,0.00976,0.03416,0.04392,0.04392,0.00488,0.01464
-0.00976,-0.00732,0.0244,0.02928,0.03416,-0.02196,0.00976,0.03416,0.03904,0.03904,0.00488,0.00976
0.00488,-0.01464,0.0244,0.02196,0.01952,-0.00732,0.00976,0.04392,0.0488,0.03416,0.00488,0.00976
0.00488,-0.01464,0.0244,0.02196,0.01952,-0.00732,0.00976,0.03904,0.03904,0.0244,0.00488,0.01464
-0.00488,-0.00244,0.00976,0.0122,0.01464,-0.00976,0.00976,0.0244,0.02928,0.0244,0.00488,0.00488
-0.01464,0.00244,0.00976,0.01708,0.0244,-0.01952,0.00488,0.01952,0.02928,0.0244,0.00488,0.00488
-0.00488,-0.00732,0.01952,0.02196,0.0244,-0.01464,0.00488,0.03416,0.03904,0.03416,0.00488,0.00488
-0.00488,-0.00244,0.00976,0.0122,0.01464,-0.00976,0.00488,0.03416,0.03416,0.02928,0.00488,0.00976
0.00488,-0.00976,0.01464,0.0122,0.00976,-0.00244,0.00488,0.01952,0.03416,0.02928,0.00488,0
0,-0.01464,0.02928,0.02928,0.02928,-0.01464,0,0.01464,0.02928,0.01952,0.00488,0
-0.00976,-0.00244,0.01464,0.01952,0.0244,-0.01708,0,0.0244,0.02928,0.01464,0.01952,0.00976
-0.00976,0.00244,0.00488,0.00976,0.01464,-0.0122,0,0.01952,0.0244,0.01952,0.01952,0.00488
-0.01464,0.00244,0.00976,0.01708,0.0244,-0.01952,0.01464,0.01952,0.03416,0.02928,0.01952,0.00488
-0.00976,0,0.00976,0.01464,0.01952,-0.01464,0.01464,0.01464,0.02928,0.0244,0.01952,0.00488
0,-0.00976,0.01952,0.01952,0.01952,-0.00976,0.00976,0.01464,0.02928,0.01464,0.01952,0.00488
0.00976,-0.01708,0.0244,0.01952,0.01464,-0.00244,0.00976,0.00976,0.01952,0.00976,0.01952,0.00488
-0.00488,-0.00488,0.01464,0.01708,0.01952,-0.0122,0.00488,0.00976,0.01464,0.00976,0,0
-0.00488,0,0.00488,0.00732,0.00976,-0.00732,0.00488,0.00488,0.01952,0.00976,0,-0.00488
-0.00976,0,0.00976,0.01464,0.01952,-0.01464,-0.00488,0.00488,0.00976,0,0,-0.00488
-0.00488,0,0.00488,0.00732,0.00976,-0.00732,-0.00488,0.00488,0.00488,0,-0.00488,-0.00488
-0.01464,-0.00488,0.0244,0.03172,0.03904,-0.02684,-0.00488,0.01464,0.00976,-0.00488,-0.00488,-0.00488
-0.00488,-0.00488,0.01464,0.01708,0.01952,-0.0122,-0.00488,0.00488,0.00976,-0.00488,-0.00488,-0.00488
-0.02928,0.0122,0.00488,0.01952,0.03416,-0.03172,0.00488,0.00976,0.01464,0.00488,-0.01464,-0.01464
-0.02928,0.0122,0.00488,0.01952,0.03416,-0.03172,0.00976,0.00976,0.00976,0,-0.01952,-0.01464
-0.01464,-0.00244,0.01952,0.02684,0.03416,-0.0244,0,0.00488,0.00976,0.00976,-0.02928,-0.01464
-0.00488,-0.00976,0.0244,0.02684,0.02928,-0.01708,-0.00488,0.00488,0.00976,0.00976,-0.02928,-0.01464
0.00488,-0.01708,0.02928,0.02684,0.0244,-0.00976,0.00488,0.00488,0.00488,-0.00488,-0.02928,-0.00488
0.00488,-0.01464,0.0244,0.02196,0.01952,-0.00732,0.00488,0,0.00488,-0.00488,-0.02928,-0.00488
-0.00488,-0.00976,0.0244,0.02684,0.02928,-0.01708,0,0.00976,0.00488,-0.00488,-0.02928,-0.00488
-0.00488,-0.00976,0.0244,0.02684,0.02928,-0.01708,0,0.01464,0.00488,-0.00488,-0.03416,-0.00488
0.00488,-0.01708,0.02928,0.02684,0.0244,-0.00976,0.00488,0.00488,0.00488,-0.00488,-0.02928,0.00488
0,-0.00976,0.01952,0.01952,0.01952,-0.00976,0,0.00488,0.00488,-0.00488,-0.03416,-0.00488
-0.00488,-0.00488,0.01464,0.01708,0.01952,-0.0122,0.00488,0.00488,0.01464,0,-0.03416,-0.00976
-0.00976,-0.00244,0.01464,0.01952,0.0244,-0.01708,0.00488,0.00488,0.01464,-0.00488,-0.03416,-0.00488
-0.0244,0.00976,0.00488,0.01708,0.02928,-0.02684,0.00488,0.00488,0.00488,-0.00488,-0.0244,-0.01464
-0.01952,0.00488,0.00976,0.01952,0.02928,-0.0244,0.00488,0.00488,0.00488,-0.00488,-0.0244,-0.01464
-0.00976,-0.00732,0.0244,0.02928,0.03416,-0.02196,0.00488,0.01464,0.00976,-0.00488,-0.0244,-0.00488
-0.00488,-0.0122,0.02928,0.03172,0.03416,-0.01952,0,0.01464,0.00976,-0.00488,-0.01952,-0.00488
0,-0.00732,0.01464,0.01464,0.01464,-0.00732,0.00976,0.01952,0.01464,0.00488,-0.01464,-0.00488
0,-0.00732,0.01464,0.01464,0.01464,-0.00732,0.00488,0.01952,0.01464,0.00488,-0.01464,-0.00488
-0.00488,-0.0122,0.02928,0.03172,0.03416,-0.01952,0,0.00976,0.00976,0.00488,0,-0.01464
-0.00488,-0.00976,0.0244,0.02684,0.02928,-0.01708,0,0.00976,0.01464,0,0,-0.01464
0.00976,-0.02196,0.03416,0.02928,0.0244,-0.00732,-0.00976,0.00976,0.00488,-0.00976,0,-0.01464
0.00976,-0.02196,0.03416,0.02928,0.0244,-0.00732,0,0.00976,0.00488,-0.00488,0.00488,-0.00976
0.00488,-0.01952,0.03416,0.03172,0.02928,-0.0122,0,0.01464,0.00488,-0.00488,0.00976,-0.00976
0,-0.01708,0.03416,0.03416,0.03416,-0.01708,-0.00488,0.01464,0.00488,-0.00488,0.00976,-0.00976
0.00488,-0.01952,0.03416,0.03172,0.02928,-0.0122,-0.00488,0.01464,0.01464,0.00488,0.00976,0
0.00976,-0.02196,0.03416,0.02928,0.0244,-0.00732,0,0.00976,0.01464,0.00488,0.01464,0
0.01952,-0.03416,0.0488,0.03904,0.02928,-0.00488,0,0.01464,0.01464,0,0.01464,0
0.01952,-0.03416,0.0488,0.03904,0.02928,-0.00488,0,0.01464,0.01952,0,0.01464,0
0.00976,-0.01952,0.02928,0.0244,0.01952,-0.00488,0.00976,0.0244,0.01464,0.00976,0.00488,0
-0.00976,-0.00244,0.01464,0.01952,0.0244,-0.01708,0.00976,0.0244,0.01464,0.00488,0.00488,0
-0.00488,-0.0122,0.02928,0.03172,0.03416,-0.01952,0.00976,0.0244,0.01952,0.00488,0.00488,0
-0.00488,-0.0122,0.02928,0.03172,0.03416,-0.01952,0.00488,0.01952,0.01464,0.00488,-0.00488,0
0,-0.01464,0.02928,0.02928,0.02928,-0.01464,0.00488,0.01464,0.01464,0.00488,0.00976,0
0,-0.01952,0.03904,0.03904,0.03904,-0.01952,0.00976,0.01464,0.01464,0.00488,0.00976,0.00488
-0.00976,-0.01464,0.03904,0.04392,0.0488,-0.02928,0,0.01464,0.01952,0.00488,0.00488,-0.00488
-0.00976,-0.01464,0.03904,0.04392,0.0488,-0.02928,-0.00488,0.01952,0.01952,0.00976,0.00488,-0.00488
-0.00976,-0.01708,0.04392,0.0488,0.05368,-0.03172,0.00488,0.01952,0.01952,0.00976,0,0.00488
-0.00488,-0.01708,0.03904,0.04148,0.04392,-0.0244,0.00976,0.0244,0.01952,0.00976,0,0.00976
0.00976,-0.03172,0.05368,0.0488,0.04392,-0.01708,0,0.02928,0.0244,0.00976,-0.01952,-0.00488
0.01952,-0.03172,0.04392,0.03416,0.0244,-0.00244,0,0.02928,0.02928,0.01464,-0.01952,0
0,-0.0244,0.0488,0.0488,0.0488,-0.0244,0,0.02928,0.01952,0.00976,-0.00976,0.00976
0.00976,-0.02928,0.0488,0.04392,0.03904,-0.01464,0,0.01952,0.01952,0,-0.01952,0
0.00976,-0.02928,0.0488,0.04392,0.03904,-0.01464,0,0.01952,0.01952,0,-0.01952,0
0.01952,-0.03904,0.05856,0.0488,0.03904,-0.00976,0.00976,0.02928,0.02928,0.00976,-0.00976,0.00976
0.01952,-0.04392,0.06832,0.05856,0.0488,-0.01464,0.00976,0.03904,0.02928,0.00976,0,0.00976
0.00976,-0.03416,0.05856,0.05368,0.0488,-0.01952,0.00976,0.02928,0.02928,0.01952,-0.00976,0.00976
0.00976,-0.03416,0.05856,0.05368,0.0488,-0.01952,0.00976,0.02928,0.02928,0.01952,-0.00976,0.00976
0,-0.0244,0.0488,0.0488,0.0488,-0.0244,0,0.02928,0.02928,0.01952,-0.00976,0
0,-0.0244,0.0488,0.0488,0.0488,-0.0244,0,0.02928,0.02928,0.01952,-0.00976,0
0.00976,-0.03416,0.05856,0.05368,0.0488,-0.01952,0.00976,0.02928,0.02928,0.01952,-0.00976,0
0.00976,-0.03416,0.05856,0.05368,0.0488,-0.01952,0.00976,0.02928,0.02928,0.01952,-0.00976,0
0,-0.0244,0.0488,0.0488,0.0488,-0.0244,0.00976,0.03904,0.02928,0.01952,-0.01952,-0.00976
-0.00976,-0.01952,0.0488,0.05368,0.05856,-0.03416,0.00976,0.03904,0.02928,0.01952,-0.01952,-0.00976
0,-0.02928,0.05856,0.05856,0.05856,-0.02928,0.00976,0.03904,0.03904,0.01952,-0.00976,0
0,-0.02928,0.05856,0.05856,0.05856,-0.02928,0.00976,0.03904,0.03904,0.01952,0,0.00976
0.00976,-0.03904,0.06832,0.06344,0.05856,-0.0244,0.00976,0.02928,0.02928,0.00976,0.00976,0.00976
0.01952,-0.04392,0.06832,0.05856,0.0488,-0.01464,0.00976,0.02928,0.02928,0.00976,0.00976,0.00976
0.00976,-0.03904,0.06832,0.06344,0.05856,-0.0244,0.00976,0.03904,0.03904,0.01952,0,0.00976
0.00976,-0.03904,0.06832,0.06344,0.05856,-0.0244,0.00976,0.0488,0.03904,0.01952,0,0.00976
0.01952,-0.04392,0.06832,0.05856,0.0488,-0.01464,0.00976,0.0488,0.0488,0.01952,0.00976,0.01952
0.01952,-0.04392,0.06832,0.05856,0.0488,-0.01464,0.00976,0.0488,0.0488,0.01952,0.00976,0.01952
0.01952,-0.0488,0.07808,0.06832,0.05856,-0.01952,0.00976,0.0488,0.0488,0.02928,0.01952,0.01952
0.01952,-0.0488,0.07808,0.06832,0.05856,-0.01952,0.00976,0.0488,0.0488,0.02928,0.01952,0.01952
0.00976,-0.03904,0.06832,0.06344,0.05856,-0.0244,0.00976,0.0488,0.0488,0.02928,0.00976,0.00976
0.00976,-0.03904,0.06832,0.06344,0.05856,-0.0244,0.00976,0.0488,0.0488,0.02928,0.00976,0.00976
0.01952,-0.0488,0.07808,0.06832,0.05856,-0.01952,0.01952,0.05856,0.05856,0.03904,0.01952,0.01952
0.02928,-0.05368,0.07808,0.06344,0.0488,-0.00976,0.02928,0.05856,0.05856,0.03904,0.01952,0.01952
0.01952,-0.04392,0.06832,0.05856,0.0488,-0.01464,0.01952,0.0488,0.0488,0.02928,0.01952,0.01952
0.01952,-0.04392,0.06832,0.05856,0.0488,-0.01464,0.00976,0.0488,0.0488,0.02928,0.01952,0.01952
0.00976,-0.03416,0.05856,0.05368,0.0488,-0.01952,0.00976,0.0488,0.0488,0.02928,0.00976,0.00976
0.00976,-0.02928,0.0488,0.04392,0.03904,-0.01464,0.00976,0.0488,0.0488,0.02928,0.00976,0.00976
0.01952,-0.03904,0.05856,0.0488,0.03904,-0.00976,0.00976,0.0488,0.0488,0.02928,0.00976,0.00976
0.01952,-0.03904,0.05856,0.0488,0.03904,-0.00976,0.00976,0.0488,0.0488,0.02928,0.00976,0.00976
0.00976,-0.03416,0.05856,0.05368,0.0488,-0.01952,0,0.0488,0.03904,0.01952,0.00976,0.00976
0.00976,-0.03416,0.05856,0.05368,0.0488,-0.01952,0,0.0488,0.03904,0.01952,0.00976,0.00976
0.00976,-0.02928,0.0488,0.04392,0.03904,-0.01464,0,0.03904,0.03904,0.01952,0.00976,0.00976
0.00976,-0.02928,0.0488,0.04392,0.03904,-0.01464,0,0.02928,0.03904,0.01952,0.00976,0.00976
0.01952,-0.03904,0.05856,0.0488,0.03904,-0.00976,-0.00976,0.02928,0.03904,0.01952,0.00976,0.00976
0.02928,-0.04392,0.05856,0.04392,0.02928,0,-0.00976,0.02928,0.03904,0.01952,0.00976,0.00976
0.01952,-0.03416,0.0488,0.03904,0.02928,-0.00488,-0.01952,0.02928,0.02928,0.00976,0,0.00976
0.00976,-0.0244,0.03904,0.03416,0.02928,-0.00976,-0.01952,0.02928,0.02928,0.00976,0,0.00976
0,-0.01464,0.02928,0.02928,0.02928,-0.01464,-0.02928,0.01952,0.02928,0.00976,-0.00976,0
0,-0.01464,0.02928,0.02928,0.02928,-0.01464,-0.02928,0.01952,0.02928,0.00976,-0.01952,0
0.00976,-0.01952,0.02928,0.0244,0.01952,-0.00488,-0.01952,0.01952,0.01952,0.00976,-0.00976,0
0.00976,-0.01952,0.02928,0.0244,0.01952,-0.00488,-0.01952,0.01952,0.01952,0.00976,-0.00976,0
0,-0.00976,0.01952,0.01952,0.01952,-0.00976,-0.02928,0.01952,0.00976,0.00976,-0.01952,0
0,-0.00488,0.00976,0.00976,0.00976,-0.00488,-0.02928,0.01952,0.00976,0.00976,-0.01952,0
0,0,0,0,0,0,-0.02928,0.01952,0.01952,0.00976,-0.01952,-0.00976
0,0,0,0,0,0,-0.02928,0.01952,0.01952,0.00976,-0.01952,-0.00976
0.00976,-0.00976,0.00976,0.00488,0,0.00488,-0.02928,0.00976,0.00976,0,-0.01952,-0.00976
0.00976,-0.01464,0.01952,0.01464,0.00976,0,-0.02928,0.00976,0.00976,0,-0.01952,-0.00976
0,-0.00488,0.00976,0.00976,0.00976,-0.00488,-0.03904,0.00976,0.00976,-0.00976,-0.01952,-0.00976
0,0,0,0,0,0,-0.03904,0.00976,0.00976,-0.00976,-0.01952,-0.00976
0.00976,-0.00976,0.00976,0.00488,0,0.00488,-0.03904,0,0,-0.01952,-0.00976,-0.00976
0.00976,-0.00976,0.00976,0.00488,0,0.00488,-0.03904,0,0,-0.01952,-0.00976,-0.00976
0.01952,-0.01464,0.00976,0,-0.00976,0.01464,-0.03904,0,-0.00976,-0.01952,-0.01952,-0.01952
0.01952,-0.01464,0.00976,0,-0.00976,0.01464,-0.03904,0,-0.00976,-0.01952,-0.01952,-0.01952
0,0,0,0,0,0,-0.02928,0,0,-0.00976,-0.00976,-0.00976
-0.00976,0.00976,-0.00976,-0.00488,0,-0.00488,-0.02928,0,0,0,-0.00976,-0.00976
-0.00976,0.01464,-0.01952,-0.01464,-0.00976,0,-0.03904,0,0,-0.00976,-0.00976,-0.00976
-0.00976,0.01952,-0.02928,-0.0244,-0.01952,0.00488,-0.03904,0,0,-0.00976,-0.00976,-0.00976
0,0.00976,-0.01952,-0.01952,-0.01952,0.00976,-0.0488,-0.00976,-0.00976,-0.01952,-0.00976,-0.00976
0,0.00976,-0.01952,-0.01952,-0.01952,0.00976,-0.0488,-0.01952,-0.01952,-0.01952,-0.00976,-0.00976
-0.00976,0.01952,-0.02928,-0.0244,-0.01952,0.00488,-0.0488,-0.01952,-0.01952,-0.01952,-0.01952,-0.01952
-0.01952,0.02928,-0.03904,-0.02928,-0.01952,0,-0.0488,-0.01952,-0.01952,-0.01952,-0.01952,-0.01952
-0.00976,0.01952,-0.02928,-0.0244,-0.01952,0.00488,-0.05856,-0.01952,-0.01952,-0.02928,-0.01952,-0.01952
0,0.01464,-0.02928,-0.02928,-0.02928,0.01464,-0.05856,-0.01952,-0.01952,-0.02928,-0.01952,-0.01952
0,0.00976,-0.01952,-0.01952,-0.01952,0.00976,-0.05856,-0.01952,-0.01952,-0.02928,-0.01952,-0.00976
0,0.00976,-0.01952,-0.01952,-0.01952,0.00976,-0.05856,-0.01952,-0.01952,-0.02928,-0.01952,-0.00976
-0.00976,0.01952,-0.02928,-0.0244,-0.01952,0.00488,-0.06832,-0.02928,-0.02928,-0.02928,-0.02928,-0.01952
-0.00976,0.0244,-0.03904,-0.03416,-0.02928,0.00976,-0.06832,-0.02928,-0.02928,-0.02928,-0.02928,-0.02928
0,0.01464,-0.02928,-0.02928,-0.02928,0.01464,-0.05856,-0.02928,-0.02928,-0.02928,-0.03904,-0.02928
0.00976,0.00976,-0.02928,-0.03416,-0.03904,0.0244,-0.05856,-0.02928,-0.02928,-0.02928,-0.03904,-0.02928
0.00976,0.01464,-0.03904,-0.04392,-0.0488,0.02928,-0.05856,-0.01952,-0.02928,-0.03904,-0.02928,-0.01952
0.00976,0.01464,-0.03904,-0.04392,-0.0488,0.02928,-0.05856,-0.01952,-0.02928,-0.03904,-0.02928,-0.01952
-0.00976,0.02928,-0.0488,-0.04392,-0.03904,0.01464,-0.06832,-0.02928,-0.03904,-0.03904,-0.03904,-0.02928
-0.01952,0.03904,-0.05856,-0.0488,-0.03904,0.00976,-0.06832,-0.03904,-0.03904,-0.03904,-0.03904,-0.02928
-0.01952,0.03416,-0.0488,-0.03904,-0.02928,0.00488,-0.06832,-0.03904,-0.03904,-0.03904,-0.02928,-0.01952
-0.01952,0.03416,-0.0488,-0.03904,-0.02928,0.00488,-0.06832,-0.03904,-0.03904,-0.03904,-0.02928,-0.01952
-0.01952,0.03904,-0.05856,-0.0488,-0.03904,0.00976,-0.06832,-0.03904,-0.03904,-0.03904,-0.02928,-0.01952
-0.01952,0.03904,-0.05856,-0.0488,-0.03904,0.00976,-0.06832,-0.03904,-0.03904,-0.03904,-0.02928,-0.01952
-0.01952,0.03904,-0.05856,-0.0488,-0.03904,0.00976,-0.06832,-0.03904,-0.03904,-0.03904,-0.03904,-0.02928
-0.01952,0.03904,-0.05856,-0.0488,-0.03904,0.00976,-0.06832,-0.03904,-0.03904,-0.03904,-0.03904,-0.02928
-0.00976,0.03416,-0.05856,-0.05368,-0.0488,0.01952,-0.06832,-0.03904,-0.03904,-0.03904,-0.03904,-0.02928
-0.00976,0.03416,-0.05856,-0.05368,-0.0488,0.01952,-0.06832,-0.03904,-0.03904,-0.03904,-0.03904,-0.02928
-0.00976,0.03904,-0.06832,-0.06344,-0.05856,0.0244,-0.06832,-0.03904,-0.0488,-0.03904,-0.03904,-0.03904
-0.00976,0.03904,-0.06832,-0.06344,-0.05856,0.0244,-0.06832,-0.03904,-0.0488,-0.03904,-0.03904,-0.03904
-0.00976,0.03416,-0.05856,-0.05368,-0.0488,0.01952,-0.06832,-0.03904,-0.0488,-0.03904,-0.02928,-0.02928
-0.00976,0.03416,-0.05856,-0.05368,-0.0488,0.01952,-0.06832,-0.03904,-0.0488,-0.03904,-0.02928,-0.02928
0,0.0244,-0.0488,-0.0488,-0.0488,0.0244,-0.06832,-0.03416,-0.03904,-0.03904,-0.01952,-0.01952
0.00976,0.01464,-0.03904,-0.04392,-0.0488,0.02928,-0.05856,-0.01952,-0.02928,-0.0244,-0.01464,-0.01464
-0.00976,0.02196,-0.03416,-0.02928,-0.0244,0.00732,-0.0488,-0.02928,-0.0244,-0.02928,-0.01464,-0.01464
-0.00976,0.02196,-0.03416,-0.02928,-0.0244,0.00732,-0.05368,-0.0244,-0.0244,-0.0244,-0.00488,-0.00976
-0.00976,0.01464,-0.01952,-0.01464,-0.00976,0,-0.03416,-0.01952,-0.01952,-0.01952,-0.00488,-0.00488
-0.01952,0.01952,-0.01952,-0.00976,0,-0.00976,-0.0244,-0.01952,-0.02928,-0.0244,0,-0.00488
0,-0.00488,0.00976,0.00976,0.00976,-0.00488,-0.00488,-0.00488,-0.00488,-0.00488,0.00976,0.00976
0.00976,-0.01708,0.0244,0.01952,0.01464,-0.00244,0.00976,0.00488,0.00488,0.01464,0.01952,0.00976
0.00976,-0.01952,0.02928,0.0244,0.01952,-0.00488,-0.00976,0.01464,0.00976,0.01464,0.0244,0.01952
0.01952,-0.03416,0.0488,0.03904,0.02928,-0.00488,-0.00488,0.01952,0.01952,0.0244,0.0244,0.01952
0.03416,-0.04392,0.05368,0.0366,0.01952,0.00732,-0.0244,0.01952,0.01952,0.02928,0.03416,0.03416
0.04392,-0.05856,0.0732,0.05124,0.02928,0.00732,-0.03416,0.00976,0.0244,0.03416,0.03904,0.03416
0.06344,-0.0732,0.08296,0.05124,0.01952,0.02196,-0.0488,0,0.0244,0.03416,0.0488,0.04392
0.08784,-0.07808,0.06832,0.0244,-0.01952,0.05368,-0.06832,0.00976,0.0244,0.03904,0.0488,0.04392
0.07808,-0.06344,0.0488,0.00976,-0.02928,0.05368,-0.08784,-0.00488,0.01464,0.0244,0.05368,0.04392
0.05856,-0.0366,0.01464,-0.01464,-0.04392,0.05124,-0.0976,-0.00976,0.00976,0.01952,0.0488,0.03416
0.0488,-0.02684,0.00488,-0.01952,-0.04392,0.04636,-0.10248,-0.01952,-0.00976,0.00488,0.03904,0.03416
0.05368,-0.02684,0,-0.02684,-0.05368,0.05368,-0.09272,-0.0244,-0.01952,-0.00488,0.02928,0.0244
0.03416,-0.00732,-0.01952,-0.0366,-0.05368,0.04392,-0.08296,-0.04392,-0.03416,-0.0244,0.01464,0.01464
0.01952,0.00732,-0.03416,-0.04392,-0.05368,0.0366,-0.08296,-0.04392,-0.04392,-0.03416,0.00488,0.00976
-0.00976,0.0366,-0.06344,-0.05856,-0.05368,0.02196,-0.06832,-0.04392,-0.04392,-0.03904,-0.00976,-0.00976
-0.0244,0.05856,-0.09272,-0.08052,-0.06832,0.02196,-0.06344,-0.0488,-0.0488,-0.04392,-0.02928,-0.01952
-0.0244,0.05856,-0.09272,-0.08052,-0.06832,0.02196,-0.07808,-0.05856,-0.05856,-0.05368,-0.03904,-0.0244
-0.01952,0.05368,-0.08784,-0.07808,-0.06832,0.0244,-0.07808,-0.05856,-0.05856,-0.05368,-0.03416,-0.0244
-0.01952,0.05612,-0.09272,-0.08296,-0.0732,0.02684,-0.07808,-0.05856,-0.06832,-0.06344,-0.04392,-0.03416
-0.01952,0.05612,-0.09272,-0.08296,-0.0732,0.02684,-0.07808,-0.05856,-0.06344,-0.05856,-0.04392,-0.03416
-0.0244,0.06344,-0.10248,-0.09028,-0.07808,0.02684,-0.08296,-0.05368,-0.05856,-0.0488,-0.03904,-0.02928
-0.03416,0.06588,-0.0976,-0.08052,-0.06344,0.01464,-0.08784,-0.05368,-0.06344,-0.05856,-0.03904,-0.02928
-0.0244,0.05612,-0.08784,-0.07564,-0.06344,0.01952,-0.08296,-0.06344,-0.06832,-0.05856,-0.04392,-0.02928
-0.01464,0.0488,-0.08296,-0.07564,-0.06832,0.02684,-0.07808,-0.06344,-0.07808,-0.06832,-0.03904,-0.02928
-0.01952,0.05368,-0.08784,-0.07808,-0.06832,0.0244,-0.07808,-0.0732,-0.06832,-0.06832,-0.03904,-0.02928
-0.0244,0.05612,-0.08784,-0.07564,-0.06344,0.01952,-0.07808,-0.06832,-0.06832,-0.06832,-0.03904,-0.03416
-0.01952,0.05368,-0.08784,-0.07808,-0.06832,0.0244,-0.06832,-0.05856,-0.05856,-0.05368,-0.02928,-0.0244
-0.01952,0.05124,-0.08296,-0.0732,-0.06344,0.02196,-0.06832,-0.05368,-0.05856,-0.05368,-0.02928,-0.01952
-0.00976,0.03904,-0.06832,-0.06344,-0.05856,0.0244,-0.06344,-0.05368,-0.06344,-0.05368,-0.0244,-0.01952
-0.00976,0.03904,-0.06832,-0.06344,-0.05856,0.0244,-0.06344,-0.0488,-0.05856,-0.0488,-0.0244,-0.01952
-0.01952,0.0488,-0.07808,-0.06832,-0.05856,0.01952,-0.0732,-0.05856,-0.05856,-0.05856,-0.0244,-0.02928
-0.01952,0.0488,-0.07808,-0.06832,-0.05856,0.01952,-0.0732,-0.05856,-0.05856,-0.05856,-0.0244,-0.02928
-0.0244,0.06344,-0.10248,-0.09028,-0.07808,0.02684,-0.0732,-0.05368,-0.05856,-0.0488,-0.0244,-0.02928
-0.02928,0.06588,-0.10248,-0.08784,-0.0732,0.02196,-0.04392,-0.0244,-0.03904,-0.03904,-0.03416,-0.03904
-0.04392,0.0854,-0.12688,-0.10492,-0.08296,0.01952,0.0488,0.05856,0.00976,-0.02928,-0.06832,-0.07808
-0.06832,0.0976,-0.12688,-0.09272,-0.05856,-0.00488,0.12688,0.15616,0.08296,0.01952,-0.09272,-0.11224
-0.06832,0.07808,-0.08784,-0.05368,-0.01952,-0.0244,0.18056,0.27816,0.19032,0.11224,-0.0732,-0.10248
-0.01952,0,0.01952,0.02928,0.03904,-0.02928,0.1952,0.40016,0.33184,0.25376,0.0244,-0.0244
0.08296,-0.1098,0.13664,0.09516,0.05368,0.01464,0.15128,0.49288,0.4636,0.41968,0.18056,0.122
0.27816,-0.30744,0.33672,0.19764,0.05856,0.1098,0.11712,0.732,0.73688,0.71736,0.47336,0.36112
0.50752,-0.5368,0.56608,0.31232,0.05856,0.22448,0.01952,0.80032,0.9272,1.00528,0.84912,0.69784
0.74176,-0.7564,0.77104,0.40016,0.02928,0.35624,-0.1952,0.59048,0.88816,1.15656,1.21024,1.02968
0.9516,-0.96624,0.98088,0.50508,0.02928,0.46116,-0.53192,0.16104,0.67832,1.19072,1.5616,1.35176
0.99064,-1.07116,1.15168,0.65636,0.16104,0.4148,-0.78568,-0.1952,0.5124,1.2444,1.85928,1.6104
0.94672,-0.99308,1.03944,0.56608,0.09272,0.427,-0.92232,-0.42944,0.33184,1.15168,1.90808,1.6592
0.7076,-0.82472,0.94184,0.58804,0.23424,0.23668,-0.78568,-0.54168,0.11224,0.81984,1.52744,1.35664
0.44896,-0.549,0.64904,0.42456,0.20008,0.12444,-0.63928,-0.71248,-0.25864,0.25376,0.92232,0.8784
0.16104,-0.26108,0.36112,0.2806,0.20008,-0.01952,-0.55632,-0.81984,-0.57584,-0.27816,0.30256,0.38064
0.02928,-0.08784,0.1464,0.13176,0.11712,-0.04392,-0.45384,-0.67832,-0.55632,-0.3904,0.00976,0.0976
0,-0.02928,0.05856,0.05856,0.05856,-0.02928,-0.37088,-0.35624,-0.30256,-0.21472,-0.02928,0.00976
0.03416,-0.03904,0.04392,0.02684,0.00976,0.0122,-0.23912,-0.11712,-0.0732,-0.01952,0.0488,0.0488
0.0488,-0.0488,0.0488,0.0244,0,0.0244,-0.15616,0,0.01464,0.05856,0.08296,0.06344
0.03904,-0.04148,0.04392,0.0244,0.00488,0.01708,-0.10736,0.03416,0.05368,0.0732,0.08296,0.0488
0.01464,-0.01952,0.0244,0.01708,0.00976,0.00244,-0.06832,0.06344,0.0732,0.07808,0.0732,0.0488
0.01464,-0.01464,0.01464,0.00732,0,0.00732,-0.05856,0.05856,0.06344,0.06832,0.05856,0.0244
-0.00488,0.00976,-0.01464,-0.0122,-0.00976,0.00244,-0.02928,0.07808,0.0732,0.0732,0.04392,0.01464
0.00976,0.00244,-0.01464,-0.01952,-0.0244,0.01708,-0.03904,0.08296,0.0732,0.0732,0.02928,0.00976
0.00488,0.00732,-0.01952,-0.02196,-0.0244,0.01464,-0.03416,0.08296,0.0732,0.06344,0.0244,0
0.01464,0.00488,-0.0244,-0.03172,-0.03904,0.02684,-0.02928,0.08784,0.06344,0.04392,0.00488,-0.00488
0.00976,0.00976,-0.02928,-0.03416,-0.03904,0.0244,-0.02928,0.09272,0.06832,0.0488,-0.00488,-0.00976
-0.00488,0.01952,-0.03416,-0.03172,-0.02928,0.0122,-0.0244,0.0976,0.08296,0.05856,-0.01464,-0.01952
-0.00488,0.01952,-0.03416,-0.03172,-0.02928,0.0122,-0.01952,0.10248,0.08296,0.05856,-0.0244,-0.02928
0.00488,0.0122,-0.02928,-0.03172,-0.03416,0.01952,-0.00976,0.10736,0.08784,0.05856,-0.0244,-0.01464
0.01464,0,-0.01464,-0.02196,-0.02928,0.02196,-0.00488,0.11224,0.09272,0.06832,-0.01952,-0.01464
0.01464,0.00488,-0.0244,-0.03172,-0.03904,0.02684,-0.00488,0.11224,0.08784,0.05856,-0.0244,-0.01464
0.00976,0.00976,-0.02928,-0.03416,-0.03904,0.0244,-0.00488,0.11712,0.09272,0.06344,-0.0244,-0.01464
0,0.01708,-0.03416,-0.03416,-0.03416,0.01708,0.00488,0.11712,0.09272,0.0732,-0.03416,-0.0244
-0.00488,0.0244,-0.04392,-0.04148,-0.03904,0.01708,0.01464,0.13176,0.11224,0.07808,-0.0244,-0.01952
0,0.01952,-0.03904,-0.03904,-0.03904,0.01952,0.01464,0.1464,0.11224,0.08296,-0.0244,-0.00976
0,0.01464,-0.02928,-0.02928,-0.02928,0.01464,0.01952,0.1464,0.11224,0.08784,-0.0244,-0.00488
-0.01464,0.01952,-0.0244,-0.01708,-0.00976,-0.00244,0.01952,0.16104,0.13176,0.09272,-0.01952,-0.01464
-0.01464,0.0244,-0.03416,-0.02684,-0.01952,0.00244,0.01952,0.16104,0.13664,0.0976,-0.01952,-0.01464
0,0.01464,-0.02928,-0.02928,-0.02928,0.01464,0.01952,0.16104,0.13176,0.09272,-0.0244,-0.0244
-0.00488,0.01464,-0.0244,-0.02196,-0.01952,0.00732,0.01952,0.1708,0.14152,0.10248,-0.00976,-0.01464
0.01952,-0.00732,-0.00488,-0.01464,-0.0244,0.02196,0.02928,0.19032,0.15128,0.11224,0,-0.01464
0.00976,-0.00244,-0.00488,-0.00976,-0.01464,0.0122,0.03416,0.20496,0.16104,0.122,0.00976,-0.00976
0,0.00244,-0.00488,-0.00488,-0.00488,0.00244,0.04392,0.20496,0.1708,0.13176,0.0244,0
0.00488,-0.00244,0,-0.00244,-0.00488,0.00488,0.0488,0.21472,0.18544,0.1464,0.02928,0.00488
0.01952,-0.00244,-0.01464,-0.0244,-0.03416,0.02684,0.03904,0.2196,0.19032,0.1464,0.03416,0.00488
0.01952,-0.00488,-0.00976,-0.01952,-0.02928,0.0244,0.03904,0.22936,0.20008,0.16104,0.04392,0.00976
0.02928,-0.0122,-0.00488,-0.01952,-0.03416,0.03172,0.0488,0.244,0.20496,0.16104,0.0488,0.01464
0.03904,-0.02684,0.01464,-0.00488,-0.0244,0.03172,0.05856,0.25376,0.21472,0.1708,0.05368,0.01464
0.02928,-0.0244,0.01952,0.00488,-0.00976,0.01952,0.07808,0.25376,0.22448,0.18056,0.05856,0.01952
0.0244,-0.01952,0.01464,0.00244,-0.00976,0.01708,0.07808,0.26352,0.244,0.1952,0.06344,0.0244
0.0244,-0.01464,0.00488,-0.00732,-0.01952,0.02196,0.06832,0.28792,0.25376,0.20984,0.05856,0.01464
0.03416,-0.02684,0.01952,0.00244,-0.01464,0.0244,0.0732,0.30256,0.26352,0.20984,0.05856,0.01464
0.03904,-0.02928,0.01952,0,-0.01952,0.02928,0.08296,0.30744,0.27816,0.22936,0.0732,0.01952
0.03904,-0.03172,0.0244,0.00488,-0.01464,0.02684,0.08784,0.32696,0.2928,0.244,0.07808,0.01952
0.03416,-0.0244,0.01464,-0.00244,-0.01952,0.02684,0.08784,0.3416,0.30744,0.24888,0.08784,0.0244
0.02928,-0.0244,0.01952,0.00488,-0.00976,0.01952,0.0976,0.37088,0.33184,0.2684,0.0976,0.02928
0.03416,-0.03416,0.03416,0.01708,0,0.01708,0.10736,0.40016,0.35136,0.28792,0.10736,0.03416
0.04392,-0.04148,0.03904,0.01708,-0.00488,0.0244,0.11224,0.42456,0.37576,0.30744,0.10736,0.04392
0.05368,-0.05856,0.06344,0.0366,0.00976,0.02196,0.11712,0.45384,0.40016,0.32696,0.13664,0.05856
0.06344,-0.06344,0.06344,0.03172,0,0.03172,0.12688,0.47824,0.42456,0.35136,0.1464,0.06344
0.06344,-0.061,0.05856,0.02684,-0.00488,0.03416,0.13664,0.50264,0.44896,0.37576,0.15128,0.06832
0.05368,-0.05856,0.06344,0.0366,0.00976,0.02196,0.14152,0.52704,0.47336,0.40504,0.15616,0.08296
0.06344,-0.07808,0.09272,0.061,0.02928,0.01708,0.15128,0.56608,0.49776,0.42456,0.1708,0.08296
0.07808,-0.09028,0.10248,0.06344,0.0244,0.02684,0.15616,0.60024,0.53192,0.44896,0.19032,0.09272
0.09272,-0.10248,0.11224,0.06588,0.01952,0.0366,0.16592,0.6344,0.5612,0.47824,0.20008,0.0976
0.10248,-0.11224,0.122,0.07076,0.01952,0.04148,0.17568,0.67344,0.59536,0.5124,0.21472,0.10736
0.09272,-0.10736,0.122,0.07564,0.02928,0.03172,0.18544,0.7076,0.63928,0.53192,0.21472,0.11224
0.10736,-0.11956,0.13176,0.07808,0.0244,0.04148,0.1952,0.74176,0.66856,0.56608,0.22936,0.122
0.11712,-0.13176,0.1464,0.08784,0.02928,0.04392,0.21472,0.78568,0.71736,0.61488,0.244,0.13664
0.13176,-0.15128,0.1708,0.10492,0.03904,0.04636,0.22448,0.82472,0.7564,0.64904,0.244,0.1464
0.13664,-0.15372,0.1708,0.10248,0.03416,0.05124,0.23424,0.84912,0.7808,0.66856,0.25864,0.16104
0.14152,-0.16348,0.18544,0.11468,0.04392,0.0488,0.23912,0.88328,0.81496,0.69784,0.27328,0.17568
0.1464,-0.16836,0.19032,0.11712,0.04392,0.05124,0.23912,0.9028,0.83936,0.732,0.2928,0.18544
0.14152,-0.17568,0.20984,0.13908,0.06832,0.0366,0.24888,0.92232,0.86864,0.76128,0.2928,0.20496
0.15616,-0.19764,0.23912,0.16104,0.08296,0.0366,0.25864,0.96136,0.89304,0.79544,0.30256,0.20496
0.1708,-0.21228,0.25376,0.16836,0.08296,0.04392,0.26352,0.98088,0.91256,0.81008,0.3172,0.22936
0.19032,-0.2318,0.27328,0.17812,0.08296,0.05368,0.26352,0.98576,0.92232,0.8296,0.33184,0.244
