i,aVR,ii,aVF,iii,aVL,V1,V2,V3,V4,V5,V6
0.67832,-0.45384,0.22936,-0.1098,-0.44896,0.56364,-0.27816,0.08784,0.33184,0.43432,0.37088,0.28304
0.8052,-0.54168,0.27816,-0.12444,-0.52704,0.66612,-0.40992,-0.06832,0.28304,0.43432,0.4148,0.33184
0.72712,-0.47824,0.22936,-0.1342,-0.49776,0.61244,-0.4392,-0.31232,0.10248,0.27816,0.29768,0.244
0.5124,-0.2806,0.0488,-0.2074,-0.4636,0.488,-0.39528,-0.60024,-0.22448,-0.09272,-0.03904,-0.03904
0.23912,-0.13664,0.03416,-0.0854,-0.20496,0.22204,-0.33672,-0.74664,-0.33672,-0.22448,-0.12688,-0.09272
0.0732,-0.06588,0.05856,0.02196,-0.01464,0.04392,-0.27328,-0.6832,-0.30256,-0.20984,-0.10736,-0.0732
-0.0244,-0.02684,0.07808,0.09028,0.10248,-0.06344,-0.20496,-0.55144,-0.20984,-0.15128,-0.05856,-0.02928
-0.05856,-0.01952,0.0976,0.12688,0.15616,-0.10736,-0.12688,-0.3904,-0.11224,-0.08784,-0.00976,-0.00488
-0.0488,-0.03172,0.11224,0.13664,0.16104,-0.10492,-0.06344,-0.25376,-0.0488,-0.04392,0.00976,0
-0.02928,-0.03416,0.0976,0.11224,0.12688,-0.07808,-0.01464,-0.16104,-0.01952,-0.03904,0.00976,0
-0.00488,-0.03416,0.0732,0.07564,0.07808,-0.04148,0.01952,-0.0976,-0.00488,-0.02928,0.00976,-0.00488
0.00488,-0.03416,0.06344,0.061,0.05856,-0.02684,0.03416,-0.06344,0,-0.0244,0.00488,-0.00976
0.00488,-0.02684,0.0488,0.04636,0.04392,-0.01952,0.05368,-0.03904,0,-0.0244,-0.00488,-0.01952
0.00488,-0.01708,0.02928,0.02684,0.0244,-0.00976,0.0732,-0.01464,0.00488,-0.0244,-0.00976,-0.01952
0.00488,-0.01464,0.0244,0.02196,0.01952,-0.00732,0.09272,-0.00488,0.00976,-0.0244,-0.00976,-0.0244
0.00488,-0.01464,0.0244,0.02196,0.01952,-0.00732,0.09272,0,0.01464,-0.02928,-0.00976,-0.0244
0.00976,-0.01708,0.0244,0.01952,0.01464,-0.00244,0.0976,0.00488,0.01464,-0.02928,-0.00976,-0.03416
0.00488,-0.01464,0.0244,0.02196,0.01952,-0.00732,0.09272,0.01464,0.01464,-0.0244,-0.00976,-0.03904
0,-0.0122,0.0244,0.0244,0.0244,-0.0122,0.09272,0.01464,0.01464,-0.0244,-0.01464,-0.03904
0,-0.01464,0.02928,0.02928,0.02928,-0.01464,0.09272,0.01952,0.01464,-0.0244,-0.01464,-0.03904
0,-0.01464,0.02928,0.02928,0.02928,-0.01464,0.09272,0.01952,0.01464,-0.01952,-0.01464,-0.03904
0,-0.01464,0.02928,0.02928,0.02928,-0.01464,0.08784,0.0244,0.01464,-0.0244,-0.01464,-0.03904
0,-0.01708,0.03416,0.03416,0.03416,-0.01708,0.08784,0.02928,0.01952,-0.02928,-0.01464,-0.03904
0,-0.01464,0.02928,0.02928,0.02928,-0.01464,0.08784,0.02928,0.01464,-0.02928,-0.00976,-0.03904
0,-0.0122,0.0244,0.0244,0.0244,-0.0122,0.08784,0.02928,0.00976,-0.02928,-0.00976,-0.03904
0,-0.01464,0.02928,0.02928,0.02928,-0.01464,0.08784,0.03416,0.00976,-0.02928,-0.00976,-0.03904
0.00488,-0.01952,0.03416,0.03172,0.02928,-0.0122,0.08784,0.03904,0.01464,-0.0244,-0.00488,-0.03904
0.00488,-0.01952,0.03416,0.03172,0.02928,-0.0122,0.08784,0.04392,0.01952,-0.01952,-0.00488,-0.03904
0.00488,-0.01952,0.03416,0.03172,0.02928,-0.0122,0.08784,0.04392,0.01952,-0.01952,-0.00488,-0.03904
0.00976,-0.01952,0.02928,0.0244,0.01952,-0.00488,0.08784,0.04392,0.01952,-0.01952,-0.00488,-0.03416
0.01952,-0.0244,0.02928,0.01952,0.00976,0.00488,0.08784,0.0488,0.01952,-0.01952,0,-0.02928
0.01952,-0.02684,0.03416,0.0244,0.01464,0.00244,0.08784,0.05368,0.01952,-0.01952,0,-0.0244
0.01952,-0.02684,0.03416,0.0244,0.01464,0.00244,0.09272,0.05856,0.0244,-0.01464,0,-0.0244
0.0244,-0.03416,0.04392,0.03172,0.01952,0.00244,0.09272,0.05856,0.0244,-0.01464,0,-0.02928
0.01952,-0.03172,0.04392,0.03416,0.0244,-0.00244,0.09272,0.06344,0.02928,-0.01464,0.00488,-0.03416
0.01952,-0.02928,0.03904,0.02928,0.01952,0,0.0976,0.07808,0.03416,-0.00488,0.00488,-0.0244
0.01952,-0.02928,0.03904,0.02928,0.01952,0,0.10248,0.08296,0.03416,0.00488,0.00976,-0.0244
0.0244,-0.0366,0.0488,0.0366,0.0244,0,0.10736,0.08296,0.03416,0.00976,0.00976,-0.0244
0.0244,-0.0366,0.0488,0.0366,0.0244,0,0.11224,0.09272,0.03904,0.01464,0.01464,-0.0244
0.0244,-0.03172,0.03904,0.02684,0.01464,0.00488,0.11712,0.09272,0.0488,0.01464,0.01952,-0.01464
0.03416,-0.0366,0.03904,0.02196,0.00488,0.01464,0.11712,0.0976,0.0488,0.01952,0.01952,-0.00488
0.04392,-0.0488,0.05368,0.03172,0.00976,0.01708,0.11224,0.10248,0.0488,0.01952,0.02928,0
0.0488,-0.05612,0.06344,0.03904,0.01464,0.01708,0.11224,0.10736,0.05368,0.03416,0.03416,0
0.0488,-0.05612,0.06344,0.03904,0.01464,0.01708,0.11224,0.11224,0.05856,0.03416,0.03904,-0.00488
0.0488,-0.05612,0.06344,0.03904,0.01464,0.01708,0.11224,0.122,0.06344,0.03416,0.03904,-0.00488
0.05856,-0.06344,0.06832,0.03904,0.00976,0.0244,0.11224,0.13176,0.06832,0.03904,0.03904,-0.00488
0.06344,-0.06832,0.0732,0.04148,0.00976,0.02684,0.11712,0.13664,0.06832,0.04392,0.03904,0
0.06344,-0.07076,0.07808,0.04636,0.01464,0.0244,0.11712,0.1464,0.08296,0.0488,0.04392,0.00488
0.06344,-0.07076,0.07808,0.04636,0.01464,0.0244,0.11712,0.15616,0.08784,0.05368,0.0488,0.00488
0.06344,-0.07076,0.07808,0.04636,0.01464,0.0244,0.11712,0.16104,0.08784,0.05368,0.05368,0.00488
0.06344,-0.0732,0.08296,0.05124,0.01952,0.02196,0.11712,0.16592,0.08784,0.06344,0.05856,0.00488
0.06832,-0.07564,0.08296,0.0488,0.01464,0.02684,0.11712,0.18056,0.0976,0.06832,0.06344,0.00976
0.07808,-0.08296,0.08784,0.0488,0.00976,0.03416,0.11712,0.1952,0.10736,0.06832,0.06344,0.01464
0.07808,-0.0854,0.09272,0.05368,0.01464,0.03172,0.11224,0.20008,0.10736,0.06832,0.06832,0.01464
0.08296,-0.09028,0.0976,0.05612,0.01464,0.03416,0.11224,0.20008,0.11224,0.07808,0.0732,0.01952
0.09272,-0.0976,0.10248,0.05612,0.00976,0.04148,0.11712,0.21472,0.11712,0.08784,0.0732,0.0244
0.0976,-0.10004,0.10248,0.05368,0.00488,0.04636,0.11712,0.22448,0.122,0.08784,0.07808,0.0244
0.10736,-0.10736,0.10736,0.05368,0,0.05368,0.11712,0.23424,0.13664,0.0976,0.07808,0.02928
0.11224,-0.11224,0.11224,0.05612,0,0.05612,0.11224,0.23424,0.14152,0.0976,0.07808,0.02928
0.11712,-0.11468,0.11224,0.05368,-0.00488,0.061,0.11224,0.244,0.1464,0.10248,0.07808,0.02928
0.122,-0.11712,0.11224,0.05124,-0.00976,0.06588,0.11224,0.244,0.15128,0.10736,0.08296,0.03416
0.13664,-0.12444,0.11224,0.04392,-0.0244,0.08052,0.11224,0.244,0.16104,0.10736,0.09272,0.03904
0.14152,-0.12932,0.11712,0.04636,-0.0244,0.08296,0.11224,0.244,0.16592,0.10736,0.0976,0.03904
0.1464,-0.1342,0.122,0.0488,-0.0244,0.0854,0.11224,0.24888,0.16592,0.11712,0.0976,0.03904
0.15128,-0.13664,0.122,0.04636,-0.02928,0.09028,0.10736,0.24888,0.1708,0.12688,0.10248,0.04392
0.15128,-0.13664,0.122,0.04636,-0.02928,0.09028,0.10736,0.244,0.1708,0.12688,0.10248,0.05368
0.15128,-0.13908,0.12688,0.05124,-0.0244,0.08784,0.0976,0.23912,0.1708,0.13176,0.10736,0.05856
0.16104,-0.14396,0.12688,0.04636,-0.03416,0.0976,0.09272,0.23424,0.16592,0.13176,0.10736,0.05856
0.16104,-0.14396,0.12688,0.04636,-0.03416,0.0976,0.08784,0.22936,0.16592,0.12688,0.11224,0.06344
0.15616,-0.14152,0.12688,0.0488,-0.02928,0.09272,0.07808,0.20984,0.16104,0.122,0.11224,0.06344
0.15128,-0.14396,0.13664,0.061,-0.01464,0.08296,0.0732,0.1952,0.15128,0.11712,0.10736,0.06344
0.13664,-0.13176,0.12688,0.05856,-0.00976,0.0732,0.06344,0.1708,0.14152,0.11224,0.0976,0.06344
0.12688,-0.12444,0.122,0.05856,-0.00488,0.06588,0.05856,0.15128,0.13664,0.10248,0.0976,0.05368
0.11712,-0.11468,0.11224,0.05368,-0.00488,0.061,0.05856,0.13664,0.13176,0.09272,0.08784,0.0488
0.10248,-0.10248,0.10248,0.05124,0,0.05124,0.05856,0.11712,0.11224,0.08296,0.07808,0.03904
0.09272,-0.09272,0.09272,0.04636,0,0.04636,0.05368,0.10248,0.09272,0.06832,0.06832,0.02928
0.07808,-0.08052,0.08296,0.04392,0.00488,0.0366,0.05368,0.08784,0.07808,0.05856,0.05856,0.01952
0.06832,-0.06588,0.06344,0.02928,-0.00488,0.0366,0.05856,0.07808,0.06832,0.03904,0.0488,0.00488
0.05856,-0.05856,0.05856,0.02928,0,0.02928,0.06344,0.06344,0.05856,0.0244,0.03904,-0.00488
0.05856,-0.05856,0.05856,0.02928,0,0.02928,0.06344,0.05368,0.05368,0.01952,0.03416,-0.00976
0.0488,-0.05124,0.05368,0.02928,0.00488,0.02196,0.06344,0.05368,0.0488,0.01952,0.02928,-0.01464
0.04392,-0.0488,0.05368,0.03172,0.00976,0.01708,0.06344,0.04392,0.03416,0.00488,0.0244,-0.01952
0.03904,-0.04392,0.0488,0.02928,0.00976,0.01464,0.05856,0.03904,0.02928,0,0.01952,-0.01952
0.03904,-0.04148,0.04392,0.0244,0.00488,0.01708,0.06344,0.0244,0.0244,-0.00488,0.01464,-0.0244
0.0244,-0.03172,0.03904,0.02684,0.01464,0.00488,0.06344,0.01952,0.0244,-0.00488,0.01464,-0.0244
0.0244,-0.03172,0.03904,0.02684,0.01464,0.00488,0.06344,0.0244,0.01952,-0.00488,0.00976,-0.0244
0.0244,-0.03172,0.03904,0.02684,0.01464,0.00488,0.05856,0.0244,0.01464,-0.00976,0.00976,-0.02928
0.03416,-0.04148,0.0488,0.03172,0.01464,0.00976,0.05856,0.01952,0.00976,-0.01464,0.00976,-0.03416
0.03416,-0.04148,0.0488,0.03172,0.01464,0.00976,0.05856,0.01952,0.00976,-0.01464,0,-0.03416
0.03416,-0.04148,0.0488,0.03172,0.01464,0.00976,0.05856,0.01952,0.00976,-0.01952,0,-0.03416
0.03416,-0.04148,0.0488,0.03172,0.01464,0.00976,0.06344,0.01952,0.00976,-0.01952,0,-0.02928
0.0244,-0.02928,0.03416,0.02196,0.00976,0.00732,0.06344,0.01952,0.00488,-0.01952,0,-0.03416
0.01952,-0.02196,0.0244,0.01464,0.00488,0.00732,0.06344,0.01952,0,-0.01952,0,-0.03904
0.00976,-0.01708,0.0244,0.01952,0.01464,-0.00244,0.06832,0.01952,0,-0.01952,0,-0.03904
0,-0.0122,0.0244,0.0244,0.0244,-0.0122,0.0732,0.01952,0,-0.01952,0,-0.03904
0.00488,-0.01952,0.03416,0.03172,0.02928,-0.0122,0.0732,0.01952,0,-0.01952,0,-0.03904
0.01464,-0.02684,0.03904,0.03172,0.0244,-0.00488,0.0732,0.01952,0,-0.0244,0,-0.03904
0.01952,-0.02684,0.03416,0.0244,0.01464,0.00244,0.0732,0.01952,-0.00488,-0.0244,0,-0.04392
0.0244,-0.02928,0.03416,0.02196,0.00976,0.00732,0.07808,0.01952,-0.00488,-0.0244,0,-0.04392
0.01952,-0.02928,0.03904,0.02928,0.01952,0,0.07808,0.01952,-0.00488,-0.0244,-0.00488,-0.04392
0.01464,-0.0244,0.03416,0.02684,0.01952,-0.00244,0.07808,0.01952,-0.00488,-0.0244,-0.00976,-0.04392
0.01464,-0.02196,0.02928,0.02196,0.01464,0,0.0732,0.01952,-0.00488,-0.0244,-0.00976,-0.04392
0.01464,-0.01952,0.0244,0.01708,0.00976,0.00244,0.0732,0.01464,-0.00488,-0.0244,-0.01464,-0.0488
0.00976,-0.01708,0.0244,0.01952,0.01464,-0.00244,0.0732,0.01464,-0.00488,-0.0244,-0.01464,-0.0488
0.00976,-0.01952,0.02928,0.0244,0.01952,-0.00488,0.0732,0.01464,-0.00488,-0.0244,-0.01464,-0.0488
0.01952,-0.0244,0.02928,0.01952,0.00976,0.00488,0.0732,0.00976,-0.00488,-0.0244,-0.01464,-0.04392
0.00976,-0.02196,0.03416,0.02928,0.0244,-0.00732,0.0732,0.00488,-0.00488,-0.0244,-0.01464,-0.03904
0.00976,-0.02196,0.03416,0.02928,0.0244,-0.00732,0.07808,0.00488,-0.00488,-0.02928,-0.01464,-0.03904
0.00976,-0.01952,0.02928,0.0244,0.01952,-0.00488,0.07808,0.00488,-0.00488,-0.03904,-0.01464,-0.04392
0.01464,-0.0244,0.03416,0.02684,0.01952,-0.00244,0.07808,0.00488,0,-0.03904,-0.01464,-0.04392
0.01952,-0.03172,0.04392,0.03416,0.0244,-0.00244,0.06832,0.00976,0,-0.03904,-0.00976,-0.04392
0.01952,-0.02928,0.03904,0.02928,0.01952,0,0.06832,0.00976,0,-0.03904,-0.00976,-0.0488
0.01464,-0.02684,0.03904,0.03172,0.0244,-0.00488,0.06832,0.00488,-0.00488,-0.03904,-0.00976,-0.0488
0.01464,-0.02684,0.03904,0.03172,0.0244,-0.00488,0.06344,0,-0.00488,-0.03904,-0.01464,-0.0488
0.01464,-0.02684,0.03904,0.03172,0.0244,-0.00488,0.05856,-0.00488,-0.00488,-0.03904,-0.01464,-0.04392
0.01952,-0.03172,0.04392,0.03416,0.0244,-0.00244,0.06344,-0.00488,-0.00488,-0.03904,-0.00976,-0.04392
0.0244,-0.03416,0.04392,0.03172,0.01952,0.00244,0.06344,-0.00488,-0.00976,-0.03904,-0.00976,-0.0488
0.0244,-0.03416,0.04392,0.03172,0.01952,0.00244,0.06344,-0.00488,-0.01464,-0.03904,-0.01952,-0.0488
0.0244,-0.03172,0.03904,0.02684,0.01464,0.00488,0.05856,-0.01464,-0.01952,-0.03904,-0.0244,-0.04392
0.01464,-0.02684,0.03904,0.03172,0.0244,-0.00488,0.05368,-0.01464,-0.0244,-0.03904,-0.02928,-0.04392
0.00488,-0.0244,0.04392,0.04148,0.03904,-0.01708,0.05368,-0.01464,-0.0244,-0.03904,-0.02928,-0.05368
0.00488,-0.0244,0.04392,0.04148,0.03904,-0.01708,0.05368,-0.01464,-0.0244,-0.03904,-0.02928,-0.05368
0.00488,-0.02196,0.03904,0.0366,0.03416,-0.01464,0.05368,-0.01464,-0.0244,-0.03904,-0.02928,-0.05368
0.0244,-0.03416,0.04392,0.03172,0.01952,0.00244,0.05368,-0.01464,-0.01952,-0.03904,-0.02928,-0.05368
0.03904,-0.04392,0.0488,0.02928,0.00976,0.01464,0.05368,-0.01464,-0.01464,-0.04392,-0.02928,-0.05368
0.0244,-0.0366,0.0488,0.0366,0.0244,0,0.05368,-0.01464,-0.01952,-0.04392,-0.02928,-0.05368
0.01464,-0.02928,0.04392,0.0366,0.02928,-0.00732,0.05368,-0.01464,-0.01952,-0.04392,-0.02928,-0.05368
0.01464,-0.0244,0.03416,0.02684,0.01952,-0.00244,0.05368,-0.01952,-0.01952,-0.0488,-0.02928,-0.05368
0.01464,-0.02196,0.02928,0.02196,0.01464,0,0.0488,-0.01952,-0.01952,-0.0488,-0.02928,-0.05368
0.03416,-0.04148,0.0488,0.03172,0.01464,0.00976,0.04392,-0.01952,-0.01952,-0.04392,-0.02928,-0.05368
0.0488,-0.05856,0.06832,0.04392,0.01952,0.01464,0.0488,-0.01464,-0.01464,-0.03904,-0.02928,-0.05368
0.02928,-0.04636,0.06344,0.0488,0.03416,-0.00244,0.05368,-0.00976,-0.00976,-0.03416,-0.01952,-0.0488
0.00976,-0.03416,0.05856,0.05368,0.0488,-0.01952,0.05856,-0.00976,-0.00488,-0.03416,-0.01464,-0.04392
0.01464,-0.04392,0.0732,0.06588,0.05856,-0.02196,0.06344,0,0.00488,-0.01952,0,-0.02928
0.01952,-0.05368,0.08784,0.07808,0.06832,-0.0244,0.06832,0.00976,0.01952,-0.00976,0.00976,-0.01952
0.0244,-0.061,0.0976,0.0854,0.0732,-0.0244,0.06832,0.01952,0.0244,0,0.01464,-0.01464
0.02928,-0.06832,0.10736,0.09272,0.07808,-0.0244,0.06832,0.02928,0.02928,0.00976,0.01952,-0.00976
0.03904,-0.0732,0.10736,0.08784,0.06832,-0.01464,0.06832,0.02928,0.02928,0.01464,0.0244,-0.00488
0.04392,-0.07564,0.10736,0.0854,0.06344,-0.00976,0.05856,0.0244,0.03416,0.01464,0.0244,0
0.0488,-0.07808,0.10736,0.08296,0.05856,-0.00488,0.05368,0.0244,0.03904,0.01464,0.02928,0
0.04392,-0.0732,0.10248,0.08052,0.05856,-0.00732,0.05368,0.02928,0.04392,0.01464,0.02928,0
0.04392,-0.07564,0.10736,0.0854,0.06344,-0.00976,0.0488,0.01952,0.03904,0.01464,0.03416,0
0.0488,-0.08052,0.11224,0.08784,0.06344,-0.00732,0.03904,0.00976,0.02928,0.00976,0.03416,0
0.06832,-0.08296,0.0976,0.06344,0.02928,0.01952,0.03416,0.00488,0.0244,0,0.0244,-0.00976
0.08784,-0.09028,0.09272,0.0488,0.00488,0.04148,0.02928,0,0.01952,0,0.0244,-0.01464
0.09272,-0.08784,0.08296,0.0366,-0.00976,0.05124,0.0244,-0.00976,0,-0.01464,0.01464,-0.0244
0.09272,-0.0854,0.07808,0.03172,-0.01464,0.05368,0.0244,-0.0244,-0.00976,-0.0244,0.00976,-0.0244
0.07808,-0.07076,0.06344,0.0244,-0.01464,0.04636,0.0244,-0.03416,-0.01952,-0.03416,0,-0.02928
0.06344,-0.05124,0.03904,0.00732,-0.0244,0.04392,0.02928,-0.03904,-0.01952,-0.03416,-0.00488,-0.03904
0.05368,-0.0488,0.04392,0.01708,-0.00976,0.03172,0.03904,-0.02928,0,-0.0244,-0.00488,-0.03416
0.0488,-0.05124,0.05368,0.02928,0.00488,0.02196,0.04392,-0.0244,0.00488,-0.01952,-0.00488,-0.02928
0.02928,-0.0366,0.04392,0.02928,0.01464,0.00732,0.04392,-0.0244,-0.00976,-0.0244,-0.00976,-0.03904
0.01952,-0.02684,0.03416,0.0244,0.01464,0.00244,0.04392,-0.02928,-0.00976,-0.03416,-0.01952,-0.04392
0.00488,-0.0122,0.01952,0.01708,0.01464,-0.00488,0.0488,-0.03416,-0.01952,-0.04392,-0.0244,-0.05368
-0.01464,0.00488,0.00488,0.0122,0.01952,-0.01708,0.0488,-0.04392,-0.03416,-0.05856,-0.02928,-0.06344
-0.01464,0.0122,-0.00976,-0.00244,0.00488,-0.00976,0.05368,-0.04392,-0.03904,-0.06832,-0.04392,-0.07808
-0.01464,0.0122,-0.00976,-0.00244,0.00488,-0.00976,0.05856,-0.04392,-0.03904,-0.0732,-0.0488,-0.08296
-0.01464,0.0122,-0.00976,-0.00244,0.00488,-0.00976,0.05856,-0.04392,-0.03904,-0.0732,-0.05368,-0.08296
-0.00976,0.00732,-0.00488,0,0.00488,-0.00732,0.05856,-0.04392,-0.03904,-0.0732,-0.05368,-0.08296
-0.00976,0.00732,-0.00488,0,0.00488,-0.00732,0.05856,-0.04392,-0.03904,-0.06832,-0.05368,-0.07808
-0.00976,0.00732,-0.00488,0,0.00488,-0.00732,0.05856,-0.04392,-0.03904,-0.06832,-0.0488,-0.0732
-0.00976,0.00488,0,0.00488,0.00976,-0.00976,0.05368,-0.04392,-0.03904,-0.06832,-0.0488,-0.0732
-0.01464,0.00488,0.00488,0.0122,0.01952,-0.01708,0.05368,-0.03904,-0.03904,-0.06832,-0.0488,-0.0732
-0.01464,0.00488,0.00488,0.0122,0.01952,-0.01708,0.05856,-0.03904,-0.04392,-0.06832,-0.05368,-0.07808
-0.00976,0.00244,0.00488,0.00976,0.01464,-0.0122,0.05856,-0.03904,-0.04392,-0.06832,-0.05368,-0.07808
-0.00976,0.00488,0,0.00488,0.00976,-0.00976,0.05856,-0.03904,-0.03904,-0.06344,-0.05368,-0.07808
-0.00976,0.00488,0,0.00488,0.00976,-0.00976,0.05856,-0.03904,-0.03416,-0.06344,-0.0488,-0.08296
-0.00976,0,0.00976,0.01464,0.01952,-0.01464,0.06344,-0.03416,-0.03416,-0.05856,-0.0488,-0.07808
-0.00976,0,0.00976,0.01464,0.01952,-0.01464,0.06344,-0.03416,-0.03416,-0.05856,-0.04392,-0.07808
-0.00976,0,0.00976,0.01464,0.01952,-0.01464,0.06344,-0.03416,-0.03416,-0.05856,-0.04392,-0.07808
-0.00976,0,0.00976,0.01464,0.01952,-0.01464,0.06344,-0.03416,-0.03416,-0.05856,-0.04392,-0.07808
-0.00976,0.00244,0.00488,0.00976,0.01464,-0.0122,0.06832,-0.03416,-0.03416,-0.05856,-0.04392,-0.0732
-0.00488,0.00244,0,0.00244,0.00488,-0.00488,0.0732,-0.02928,-0.03416,-0.05856,-0.04392,-0.06832
-0.00488,0.00244,0,0.00244,0.00488,-0.00488,0.0732,-0.02928,-0.02928,-0.05856,-0.03904,-0.06832
-0.00488,0.00244,0,0.00244,0.00488,-0.00488,0.0732,-0.0244,-0.02928,-0.05368,-0.03904,-0.06344
0,-0.00244,0.00488,0.00488,0.00488,-0.00244,0.0732,-0.0244,-0.02928,-0.0488,-0.03416,-0.05856
0,-0.00244,0.00488,0.00488,0.00488,-0.00244,0.07808,-0.01952,-0.0244,-0.0488,-0.02928,-0.05368
-0.00488,0,0.00488,0.00732,0.00976,-0.00732,0.08296,-0.01464,-0.0244,-0.0488,-0.02928,-0.05368
-0.01464,0.00976,-0.00488,0.00244,0.00976,-0.0122,0.0976,0,-0.01952,-0.05368,-0.03416,-0.05856
-0.01952,0.0122,-0.00488,0.00488,0.01464,-0.01708,0.11712,0.03904,-0.01952,-0.06832,-0.04392,-0.06344
-0.0244,0.01464,-0.00488,0.00732,0.01952,-0.02196,0.16104,0.11224,0.01464,-0.0488,-0.02928,-0.06832
-0.02928,0.00976,0.00976,0.0244,0.03904,-0.03416,0.20008,0.20496,0.06832,0,-0.00976,-0.04392
0.04392,-0.03172,0.01952,-0.00244,-0.0244,0.03416,0.1952,0.22448,0.09272,0.03416,0.00488,-0.02928
0.2196,-0.12932,0.03904,-0.07076,-0.18056,0.20008,0.08296,0.17568,0.10736,0.0732,0.0488,-0.00976
0.44408,-0.27084,0.0976,-0.12444,-0.34648,0.39528,-0.10736,0.08784,0.14152,0.1708,0.1464,0.06832
0.732,-0.4636,0.1952,-0.1708,-0.5368,0.6344,-0.30256,0,0.22448,0.33672,0.29768,0.20984
0.84912,-0.549,0.24888,-0.17568,-0.60024,0.72468,-0.41968,-0.13664,0.20496,0.366,0.34648,0.2684
0.73688,-0.45872,0.18056,-0.18788,-0.55632,0.6466,-0.42944,-0.39528,0.00976,0.17568,0.19032,0.1464
0.5368,-0.2806,0.0244,-0.244,-0.5124,0.5246,-0.38552,-0.62952,-0.2684,-0.14152,-0.08784,-0.09272
0.2196,-0.12688,0.03416,-0.07564,-0.18544,0.20252,-0.3172,-0.74176,-0.32696,-0.22936,-0.122,-0.0976
0.0488,-0.05368,0.05856,0.03416,0.00976,0.01952,-0.25376,-0.70272,-0.30256,-0.23912,-0.11712,-0.08296
-0.02928,-0.02684,0.08296,0.0976,0.11224,-0.07076,-0.18056,-0.54656,-0.20984,-0.1708,-0.05856,-0.03904
-0.05856,-0.0244,0.10736,0.13664,0.16592,-0.11224,-0.10736,-0.38064,-0.122,-0.10248,-0.00976,-0.01464
-0.03904,-0.04392,0.12688,0.1464,0.16592,-0.10248,-0.0488,-0.23912,-0.05856,-0.05368,0,-0.00488
-0.01952,-0.0488,0.11712,0.12688,0.13664,-0.07808,0,-0.1464,-0.0244,-0.03904,0,0
0.00488,-0.0488,0.09272,0.09028,0.08784,-0.04148,0.02928,-0.0976,-0.01464,-0.02928,0,-0.00488
0.01464,-0.0488,0.08296,0.07564,0.06832,-0.02684,0.04392,-0.06344,-0.00976,-0.0244,0,-0.00976
0.00976,-0.0366,0.06344,0.05856,0.05368,-0.02196,0.06344,-0.03904,-0.00976,-0.0244,-0.00488,-0.01952
0.00488,-0.02196,0.03904,0.0366,0.03416,-0.01464,0.0732,-0.01464,-0.00488,-0.0244,-0.00976,-0.01952
0.00488,-0.01952,0.03416,0.03172,0.02928,-0.0122,0.08296,-0.00488,0,-0.0244,-0.00976,-0.0244
0.00488,-0.01952,0.03416,0.03172,0.02928,-0.0122,0.08296,0,0.00488,-0.02928,-0.00976,-0.0244
0.00488,-0.01708,0.02928,0.02684,0.0244,-0.00976,0.08784,0.00488,0.00488,-0.02928,-0.00488,-0.03416
0,-0.0122,0.0244,0.0244,0.0244,-0.0122,0.08784,0.01464,0.00488,-0.0244,0,-0.03416
0,-0.0122,0.0244,0.0244,0.0244,-0.0122,0.09272,0.01464,0.00488,-0.0244,-0.00488,-0.02928
0,-0.0122,0.0244,0.0244,0.0244,-0.0122,0.09272,0.01952,0.00488,-0.0244,-0.00488,-0.02928
0,-0.00976,0.01952,0.01952,0.01952,-0.00976,0.09272,0.01952,0.00488,-0.01952,-0.00488,-0.02928
0,-0.00976,0.01952,0.01952,0.01952,-0.00976,0.08784,0.0244,0.00488,-0.01952,-0.00488,-0.02928
0,-0.01464,0.02928,0.02928,0.02928,-0.01464,0.08784,0.02928,0.00976,-0.01952,-0.00488,-0.0244
0,-0.01708,0.03416,0.03416,0.03416,-0.01708,0.08784,0.02928,0.00976,-0.01952,0,-0.01952
0,-0.01708,0.03416,0.03416,0.03416,-0.01708,0.08784,0.02928,0.01464,-0.01952,0,-0.01952
0,-0.01952,0.03904,0.03904,0.03904,-0.01952,0.08784,0.03416,0.01952,-0.01952,0,-0.01952
0.00488,-0.02684,0.0488,0.04636,0.04392,-0.01952,0.08784,0.04392,0.0244,-0.01464,0.00488,-0.01952
0.00488,-0.02928,0.05368,0.05124,0.0488,-0.02196,0.08784,0.05368,0.02928,-0.00976,0.00488,-0.01952
0.01464,-0.0366,0.05856,0.05124,0.04392,-0.01464,0.09272,0.05368,0.02928,-0.00976,0.00488,-0.01952
0.0244,-0.04148,0.05856,0.04636,0.03416,-0.00488,0.0976,0.05368,0.02928,-0.00976,0.00488,-0.01952
0.02928,-0.04392,0.05856,0.04392,0.02928,0,0.0976,0.05368,0.02928,-0.00976,0.00976,-0.01952
0.02928,-0.04636,0.06344,0.0488,0.03416,-0.00244,0.0976,0.05368,0.02928,-0.00976,0.00976,-0.01464
0.0244,-0.03904,0.05368,0.04148,0.02928,-0.00244,0.09272,0.05368,0.02928,-0.00488,0.00976,-0.01464
0.02928,-0.04148,0.05368,0.03904,0.0244,0.00244,0.08296,0.0488,0.0244,-0.00488,0.00976,-0.01464
0.0244,-0.03904,0.05368,0.04148,0.02928,-0.00244,0.08296,0.05368,0.02928,-0.00488,0.01464,-0.01952
0.01952,-0.03416,0.0488,0.03904,0.02928,-0.00488,0.08296,0.06344,0.03416,0,0.01464,-0.01464
0.01952,-0.03416,0.0488,0.03904,0.02928,-0.00488,0.08296,0.06344,0.03416,0.00488,0.01952,-0.01464
0.0244,-0.04148,0.05856,0.04636,0.03416,-0.00488,0.08296,0.06344,0.03416,0.00976,0.01952,-0.01464
0.0244,-0.04148,0.05856,0.04636,0.03416,-0.00488,0.08296,0.0732,0.03904,0.01464,0.0244,-0.01464
0.0244,-0.04148,0.05856,0.04636,0.03416,-0.00488,0.08784,0.0732,0.0488,0.01464,0.02928,-0.00976
0.03416,-0.05368,0.0732,0.05612,0.03904,-0.00244,0.08784,0.07808,0.0488,0.01952,0.02928,-0.00488
0.03904,-0.061,0.08296,0.06344,0.04392,-0.00244,0.08296,0.08296,0.0488,0.01952,0.03416,0
0.03904,-0.061,0.08296,0.06344,0.04392,-0.00244,0.08296,0.08784,0.05368,0.03416,0.03416,0
0.03904,-0.061,0.08296,0.06344,0.04392,-0.00244,0.08296,0.09272,0.05856,0.03416,0.03904,0
0.04392,-0.06832,0.09272,0.07076,0.0488,-0.00244,0.08784,0.10248,0.06832,0.03904,0.03904,0.00976
0.05856,-0.08296,0.10736,0.07808,0.0488,0.00488,0.09272,0.11224,0.07808,0.0488,0.04392,0.01464
0.06344,-0.08784,0.11224,0.08052,0.0488,0.00732,0.0976,0.11712,0.07808,0.05368,0.04392,0.01952
0.06832,-0.09272,0.11712,0.08296,0.0488,0.00976,0.0976,0.12688,0.09272,0.05856,0.04392,0.0244
0.06832,-0.09028,0.11224,0.07808,0.04392,0.0122,0.0976,0.13664,0.0976,0.05856,0.0488,0.0244
0.06344,-0.0854,0.10736,0.07564,0.04392,0.00976,0.0976,0.14152,0.0976,0.05368,0.0488,0.0244
0.06344,-0.0854,0.10736,0.07564,0.04392,0.00976,0.0976,0.1464,0.0976,0.06344,0.0488,0.0244
0.06832,-0.0854,0.10248,0.06832,0.03416,0.01708,0.0976,0.15616,0.10736,0.06832,0.05368,0.02928
0.07808,-0.09272,0.10736,0.06832,0.02928,0.0244,0.0976,0.16592,0.11712,0.06832,0.05368,0.03416
0.07808,-0.09516,0.11224,0.0732,0.03416,0.02196,0.09272,0.1708,0.11712,0.06832,0.05856,0.03416
0.08296,-0.10004,0.11712,0.07564,0.03416,0.0244,0.09272,0.1708,0.122,0.07808,0.06832,0.03904
0.09272,-0.10736,0.122,0.07564,0.02928,0.03172,0.0976,0.18544,0.12688,0.08784,0.0732,0.04392
0.0976,-0.1098,0.122,0.0732,0.0244,0.0366,0.0976,0.1952,0.12688,0.08784,0.07808,0.04392
0.10736,-0.11712,0.12688,0.0732,0.01952,0.04392,0.0976,0.20496,0.13176,0.0976,0.08296,0.0488
0.11224,-0.122,0.13176,0.07564,0.01952,0.04636,0.09272,0.20496,0.13176,0.0976,0.08784,0.0488
0.11712,-0.12444,0.13176,0.0732,0.01464,0.05124,0.09272,0.21472,0.13664,0.10248,0.08784,0.0488
0.122,-0.12444,0.12688,0.06588,0.00488,0.05856,0.09272,0.21472,0.14152,0.11224,0.09272,0.05368
0.13176,-0.12688,0.122,0.05612,-0.00976,0.07076,0.08784,0.21472,0.1464,0.11712,0.0976,0.05856
0.14152,-0.1342,0.12688,0.05612,-0.01464,0.07808,0.08296,0.2196,0.1464,0.11712,0.0976,0.05856
0.15616,-0.14396,0.13176,0.05368,-0.0244,0.09028,0.08296,0.22936,0.1464,0.122,0.0976,0.05856
0.16104,-0.1464,0.13176,0.05124,-0.02928,0.09516,0.07808,0.22936,0.15128,0.12688,0.10248,0.06344
0.16592,-0.14884,0.13176,0.0488,-0.03416,0.10004,0.07808,0.22448,0.15128,0.12688,0.10248,0.06832
0.16104,-0.14884,0.13664,0.05612,-0.0244,0.09272,0.06832,0.2196,0.15616,0.13176,0.10736,0.06832
0.16104,-0.14884,0.13664,0.05612,-0.0244,0.09272,0.06344,0.20984,0.15616,0.13176,0.10736,0.06832
0.1708,-0.15372,0.13664,0.05124,-0.03416,0.10248,0.05856,0.20496,0.15616,0.13176,0.11224,0.0732
0.17568,-0.15616,0.13664,0.0488,-0.03904,0.10736,0.05368,0.19032,0.15128,0.13176,0.11224,0.0732
0.1708,-0.1586,0.1464,0.061,-0.0244,0.0976,0.05368,0.17568,0.14152,0.12688,0.10736,0.0732
0.15616,-0.1464,0.13664,0.05856,-0.01952,0.08784,0.0488,0.15616,0.13176,0.122,0.0976,0.0732
0.1464,-0.13908,0.13176,0.05856,-0.01464,0.08052,0.04392,0.14152,0.12688,0.11224,0.0976,0.06344
0.13664,-0.12932,0.122,0.05368,-0.01464,0.07564,0.03904,0.12688,0.122,0.10248,0.08784,0.05856
0.122,-0.11956,0.11712,0.05612,-0.00488,0.06344,0.03904,0.10736,0.10248,0.09272,0.07808,0.05368
0.11224,-0.11468,0.11712,0.061,0.00488,0.05368,0.03416,0.09272,0.08784,0.07808,0.06832,0.0488
0.09272,-0.10248,0.11224,0.06588,0.01952,0.0366,0.03416,0.07808,0.07808,0.06832,0.05856,0.03904
0.07808,-0.0854,0.09272,0.05368,0.01464,0.03172,0.03416,0.06832,0.06832,0.05368,0.0488,0.02928
0.06832,-0.07808,0.08784,0.05368,0.01952,0.0244,0.03416,0.05368,0.05856,0.04392,0.03904,0.0244
0.06832,-0.07808,0.08784,0.05368,0.01952,0.0244,0.03416,0.04392,0.05368,0.03904,0.03416,0.01952
0.06344,-0.0732,0.08296,0.05124,0.01952,0.02196,0.03416,0.04392,0.0488,0.03904,0.02928,0.01464
0.06344,-0.0732,0.08296,0.05124,0.01952,0.02196,0.03904,0.03416,0.03904,0.0244,0.0244,0.00976
0.05856,-0.06832,0.07808,0.0488,0.01952,0.01952,0.03416,0.02928,0.03904,0.01952,0.01952,0.00488
0.05856,-0.06588,0.0732,0.04392,0.01464,0.02196,0.03416,0.01952,0.03416,0.01464,0.01464,-0.00488
0.03416,-0.05124,0.06832,0.05124,0.03416,0,0.03416,0.01952,0.03416,0.01464,0.01464,-0.00488
0.0244,-0.04636,0.06832,0.05612,0.04392,-0.00976,0.03416,0.0244,0.02928,0.01464,0.00976,-0.00488
0.03416,-0.05368,0.0732,0.05612,0.03904,-0.00244,0.03416,0.0244,0.0244,0.00976,0.01464,-0.00976
0.04392,-0.061,0.07808,0.05612,0.03416,0.00488,0.03904,0.01952,0.01952,0.00488,0.01952,-0.01464
0.03416,-0.05124,0.06832,0.05124,0.03416,0,0.03904,0.01952,0.01952,0.00488,0.00976,-0.01464
0.03416,-0.05124,0.06832,0.05124,0.03416,0,0.03904,0.01952,0.01952,0,0.00976,-0.01464
0.02928,-0.04392,0.05856,0.04392,0.02928,0,0.03904,0.01952,0.01952,-0.00488,0.00488,-0.00976
0.0244,-0.0366,0.0488,0.0366,0.0244,0,0.03416,0.01952,0.01952,-0.00976,0,-0.00976
0.02928,-0.04148,0.05368,0.03904,0.0244,0.00244,0.03416,0.01952,0.01952,-0.00976,0,-0.00976
0.02928,-0.04148,0.05368,0.03904,0.0244,0.00244,0.03904,0.01952,0.01952,-0.00976,0,-0.00976
0.0244,-0.03904,0.05368,0.04148,0.02928,-0.00244,0.04392,0.01952,0.01952,-0.00488,0,-0.00976
0.01464,-0.03416,0.05368,0.04636,0.03904,-0.0122,0.04392,0.01952,0.01952,0,0,-0.00976
0.01464,-0.03416,0.05368,0.04636,0.03904,-0.0122,0.04392,0.01952,0.01952,-0.00488,0,-0.00976
0.01464,-0.03416,0.05368,0.04636,0.03904,-0.0122,0.04392,0.01952,0.01464,-0.00488,0,-0.01464
0.0244,-0.03904,0.05368,0.04148,0.02928,-0.00244,0.0488,0.01952,0.00976,-0.00976,0,-0.01464
0.02928,-0.04636,0.06344,0.0488,0.03416,-0.00244,0.0488,0.01952,0.00488,-0.01464,0,-0.01464
0.0244,-0.04392,0.06344,0.05124,0.03904,-0.00732,0.05368,0.01952,0.00488,-0.01464,0,-0.01464
0.0244,-0.04148,0.05856,0.04636,0.03416,-0.00488,0.05368,0.01952,0.00488,-0.01464,0,-0.01464
0.01464,-0.03172,0.0488,0.04148,0.03416,-0.00976,0.05368,0.01464,0.00488,-0.01464,-0.00488,-0.01464
0.00488,-0.0244,0.04392,0.04148,0.03904,-0.01708,0.05368,0.01464,0.00488,-0.01464,-0.00488,-0.00976
0.00976,-0.02928,0.0488,0.04392,0.03904,-0.01464,0.05368,0.01464,0.00488,-0.00976,0,-0.00976
0.01952,-0.03416,0.0488,0.03904,0.02928,-0.00488,0.05368,0.01464,0.00488,-0.00488,0.00488,-0.00976
0.0244,-0.04148,0.05856,0.04636,0.03416,-0.00488,0.05368,0.01464,0.00488,-0.00488,0.00488,-0.00976
0.03904,-0.05124,0.06344,0.04392,0.0244,0.00732,0.05856,0.01464,0.00488,-0.00488,0.00488,-0.00976
0.0244,-0.04148,0.05856,0.04636,0.03416,-0.00488,0.05368,0.01464,0.00488,-0.00976,0.00488,-0.01464
0.00976,-0.03172,0.05368,0.0488,0.04392,-0.01708,0.0488,0.00976,0.00488,-0.00976,0,-0.01464
0.00976,-0.03172,0.05368,0.0488,0.04392,-0.01708,0.03904,0.00976,0,-0.00976,0,-0.01464
0.00976,-0.02928,0.0488,0.04392,0.03904,-0.01464,0.03904,0.00976,0,-0.01464,0,-0.01952
0.00488,-0.02684,0.0488,0.04636,0.04392,-0.01952,0.03904,0.00488,-0.00488,-0.01952,0,-0.01952
0.00488,-0.02684,0.0488,0.04636,0.04392,-0.01952,0.03904,0.00488,-0.00488,-0.01952,-0.00488,-0.01952
0.00488,-0.02684,0.0488,0.04636,0.04392,-0.01952,0.03416,0,-0.00488,-0.01952,-0.00488,-0.01464
0.00488,-0.02928,0.05368,0.05124,0.0488,-0.02196,0.03416,-0.00488,-0.00488,-0.01952,0,-0.01464
0.00976,-0.03172,0.05368,0.0488,0.04392,-0.01708,0.03416,-0.00488,-0.00976,-0.01952,0,-0.01952
0.01464,-0.03416,0.05368,0.04636,0.03904,-0.0122,0.03416,-0.00488,-0.00976,-0.01952,-0.00488,-0.01952
0.01464,-0.03172,0.0488,0.04148,0.03416,-0.00976,0.03416,-0.01464,-0.00488,-0.01952,-0.00488,-0.00976
0.01464,-0.03172,0.0488,0.04148,0.03416,-0.00976,0.03416,-0.01464,-0.00488,-0.01952,-0.00976,-0.00488
0.01464,-0.03416,0.05368,0.04636,0.03904,-0.0122,0.03416,-0.01464,-0.00488,-0.01952,-0.00976,-0.01464
0.01464,-0.03416,0.05368,0.04636,0.03904,-0.0122,0.03416,-0.01464,-0.00488,-0.01952,-0.00976,-0.01464
0.01464,-0.03172,0.0488,0.04148,0.03416,-0.00976,0.03904,-0.00976,-0.00488,-0.01952,-0.00488,-0.01464
0.01464,-0.03172,0.0488,0.04148,0.03416,-0.00976,0.04392,-0.00488,-0.00488,-0.01952,0,-0.01464
0.00976,-0.02928,0.0488,0.04392,0.03904,-0.01464,0.04392,-0.00488,-0.00488,-0.0244,0,-0.01464
0.00976,-0.02928,0.0488,0.04392,0.03904,-0.01464,0.04392,-0.00488,-0.00976,-0.0244,0,-0.01464
0.00976,-0.02684,0.04392,0.03904,0.03416,-0.0122,0.03904,-0.00488,-0.01464,-0.0244,-0.00488,-0.01464
0.00488,-0.0244,0.04392,0.04148,0.03904,-0.01708,0.03416,-0.00976,-0.01952,-0.02928,-0.00976,-0.01464
0.00488,-0.02684,0.0488,0.04636,0.04392,-0.01952,0.02928,-0.00976,-0.01952,-0.02928,-0.00976,-0.01464
0.00976,-0.02928,0.0488,0.04392,0.03904,-0.01464,0.0244,-0.00976,-0.01952,-0.0244,-0.00976,-0.01464
0.01952,-0.04148,0.06344,0.05368,0.04392,-0.0122,0.03416,0,-0.00488,-0.00488,0.00976,0
0.02928,-0.05368,0.07808,0.06344,0.0488,-0.00976,0.0488,0.00976,0.00976,0.00976,0.02928,0.00976
0.03416,-0.06588,0.0976,0.08052,0.06344,-0.01464,0.0488,0.01952,0.01952,0.01952,0.02928,0.01952
0.03904,-0.07808,0.11712,0.0976,0.07808,-0.01952,0.0488,0.02928,0.02928,0.02928,0.02928,0.02928
0.04392,-0.08296,0.122,0.10004,0.07808,-0.01708,0.0488,0.03416,0.03416,0.02928,0.03416,0.02928
0.0488,-0.0854,0.122,0.0976,0.0732,-0.0122,0.04392,0.03416,0.03904,0.02928,0.03416,0.02928
0.05856,-0.09272,0.12688,0.0976,0.06832,-0.00488,0.04392,0.03904,0.04392,0.02928,0.03904,0.02928
0.05856,-0.09272,0.12688,0.0976,0.06832,-0.00488,0.03416,0.02928,0.04392,0.0244,0.03904,0.02928
0.04392,-0.08296,0.122,0.10004,0.07808,-0.01708,0.03416,0.03416,0.04392,0.02928,0.03904,0.02928
0.03416,-0.07808,0.122,0.10492,0.08784,-0.02684,0.02928,0.02928,0.03904,0.03416,0.03904,0.02928
0.03904,-0.08296,0.12688,0.10736,0.08784,-0.0244,0.01952,0.01952,0.03416,0.03416,0.04392,0.03416
0.05856,-0.08784,0.11712,0.08784,0.05856,0,0.01464,0.01464,0.03416,0.02928,0.04392,0.02928
0.08784,-0.10004,0.11224,0.06832,0.0244,0.03172,0.00488,0.00976,0.02928,0.02928,0.04392,0.0244
0.0976,-0.10004,0.10248,0.05368,0.00488,0.04636,-0.00488,0,0.00976,0.01464,0.03416,0.01464
0.09272,-0.09516,0.0976,0.05124,0.00488,0.04392,-0.00488,-0.01952,0,0.00488,0.02928,0.01464
0.07808,-0.0854,0.09272,0.05368,0.01464,0.03172,-0.00488,-0.02928,-0.00976,-0.00488,0.01952,0.00976
0.06344,-0.06832,0.0732,0.04148,0.00976,0.02684,0,-0.03904,-0.0244,-0.00488,0.00976,0
0.05368,-0.05856,0.06344,0.0366,0.00976,0.02196,0.00976,-0.03904,-0.0244,0,0.00488,0
0.0488,-0.05612,0.06344,0.03904,0.01464,0.01708,0.01464,-0.0244,-0.01464,0,0.00488,0
0.02928,-0.04148,0.05368,0.03904,0.0244,0.00244,0.01952,-0.01464,-0.01952,-0.00488,0,-0.00976
0.01464,-0.02928,0.04392,0.0366,0.02928,-0.00732,0.0244,-0.01464,-0.01952,-0.01464,-0.00976,-0.01464
0.00488,-0.02196,0.03904,0.0366,0.03416,-0.01464,0.02928,-0.01464,-0.0244,-0.01952,-0.01464,-0.01952
-0.00488,-0.01464,0.03416,0.0366,0.03904,-0.02196,0.02928,-0.0244,-0.03416,-0.02928,-0.01952,-0.0244
-0.00488,-0.00732,0.01952,0.02196,0.0244,-0.01464,0.02928,-0.0244,-0.03904,-0.03416,-0.02928,-0.03416
-0.00488,-0.00732,0.01952,0.02196,0.0244,-0.01464,0.02928,-0.02928,-0.03904,-0.03904,-0.02928,-0.03904
-0.00976,-0.00488,0.01952,0.0244,0.02928,-0.01952,0.02928,-0.03416,-0.03904,-0.04392,-0.03416,-0.04392
-0.00976,-0.00488,0.01952,0.0244,0.02928,-0.01952,0.02928,-0.03416,-0.03904,-0.04392,-0.03416,-0.04392
-0.00976,-0.00244,0.01464,0.01952,0.0244,-0.01708,0.02928,-0.03416,-0.03904,-0.04392,-0.03416,-0.04392
-0.00976,-0.00244,0.01464,0.01952,0.0244,-0.01708,0.02928,-0.03416,-0.03904,-0.0488,-0.02928,-0.03904
-0.00976,-0.00244,0.01464,0.01952,0.0244,-0.01708,0.02928,-0.03416,-0.03904,-0.0488,-0.02928,-0.03416
-0.01464,0,0.01464,0.02196,0.02928,-0.02196,0.03416,-0.02928,-0.03904,-0.04392,-0.02928,-0.03416
-0.01464,0,0.01464,0.02196,0.02928,-0.02196,0.03904,-0.02928,-0.04392,-0.03904,-0.03416,-0.03904
-0.01952,0.00244,0.01464,0.0244,0.03416,-0.02684,0.03904,-0.02928,-0.04392,-0.03904,-0.03416,-0.03904
-0.02928,0.00976,0.00976,0.0244,0.03904,-0.03416,0.03904,-0.02928,-0.03904,-0.03416,-0.03416,-0.03416
-0.02928,0.00976,0.00976,0.0244,0.03904,-0.03416,0.03904,-0.02928,-0.03416,-0.03416,-0.02928,-0.03416
-0.02928,0.00488,0.01952,0.03416,0.0488,-0.03904,0.04392,-0.0244,-0.03416,-0.02928,-0.02928,-0.02928
-0.01464,-0.00244,0.01952,0.02684,0.03416,-0.0244,0.04392,-0.0244,-0.03416,-0.02928,-0.0244,-0.02928
0,-0.00976,0.01952,0.01952,0.01952,-0.00976,0.04392,-0.0244,-0.03416,-0.02928,-0.0244,-0.02928
-0.00976,-0.00488,0.01952,0.0244,0.02928,-0.01952,0.04392,-0.02928,-0.03416,-0.02928,-0.0244,-0.02928
-0.01952,0,0.01952,0.02928,0.03904,-0.02928,0.04392,-0.03416,-0.03416,-0.02928,-0.0244,-0.02928
-0.01464,-0.00244,0.01952,0.02684,0.03416,-0.0244,0.04392,-0.02928,-0.03416,-0.02928,-0.02928,-0.02928
-0.01464,-0.00244,0.01952,0.02684,0.03416,-0.0244,0.04392,-0.02928,-0.02928,-0.02928,-0.02928,-0.02928
-0.01464,-0.00244,0.01952,0.02684,0.03416,-0.0244,0.04392,-0.01952,-0.02928,-0.0244,-0.02928,-0.0244
-0.01464,-0.00488,0.0244,0.03172,0.03904,-0.02684,0.04392,-0.01464,-0.02928,-0.01952,-0.02928,-0.0244
-0.01464,-0.00488,0.0244,0.03172,0.03904,-0.02684,0.0488,-0.00976,-0.0244,-0.01952,-0.02928,-0.0244
-0.01464,-0.00488,0.0244,0.03172,0.03904,-0.02684,0.05368,-0.00488,-0.0244,-0.01952,-0.02928,-0.0244
-0.0244,0.00488,0.01464,0.02684,0.03904,-0.03172,0.06832,-0.00488,-0.02928,-0.0244,-0.03416,-0.03416
-0.0244,0.00488,0.01464,0.02684,0.03904,-0.03172,0.08784,0.01952,-0.03904,-0.03416,-0.04392,-0.03904
-0.05368,0.0244,0.00488,0.03172,0.05856,-0.05612,0.13664,0.09272,-0.00976,-0.0244,-0.03416,-0.03904
-0.05368,0.01708,0.01952,0.04636,0.0732,-0.06344,0.16592,0.18544,0.04392,0.01464,-0.00976,-0.01464
0.00488,-0.01464,0.0244,0.02196,0.01952,-0.00732,0.20496,0.23424,0.06344,0.0244,-0.01952,-0.03416
0.14152,-0.09272,0.04392,-0.02684,-0.0976,0.11956,0.15128,0.21472,0.07808,0.05368,0.00488,-0.02928
0.41968,-0.26352,0.10736,-0.10248,-0.31232,0.366,-0.06344,0.12688,0.122,0.1708,0.11712,0.05856
0.69784,-0.43432,0.1708,-0.17812,-0.52704,0.61244,-0.2684,0.01952,0.17568,0.28792,0.23424,0.15616
0.87352,-0.57096,0.2684,-0.16836,-0.60512,0.73932,-0.42456,-0.0976,0.20984,0.38552,0.35136,0.27816
0.84424,-0.55632,0.2684,-0.15372,-0.57584,0.71004,-0.47824,-0.30256,0.11224,0.32696,0.30744,0.26352
0.61488,-0.3416,0.06832,-0.23912,-0.54656,0.58072,-0.42456,-0.59048,-0.2196,-0.05856,-0.03904,-0.02928
0.32696,-0.18056,0.03416,-0.12932,-0.2928,0.30988,-0.35624,-0.73688,-0.33672,-0.20496,-0.13664,-0.09272
0.10736,-0.08296,0.05856,0.00488,-0.0488,0.07808,-0.2928,-0.71248,-0.33184,-0.20984,-0.12688,-0.0732
-0.04392,-0.01708,0.07808,0.10004,0.122,-0.08296,-0.22448,-0.61976,-0.2684,-0.1708,-0.08784,-0.02928
-0.07808,-0.01464,0.10736,0.1464,0.18544,-0.13176,-0.1464,-0.44896,-0.15616,-0.09272,-0.02928,0.00488
-0.06832,-0.03172,0.13176,0.16592,0.20008,-0.1342,-0.08296,-0.30256,-0.07808,-0.03416,0,0.01952
-0.0488,-0.03416,0.11712,0.14152,0.16592,-0.10736,-0.03904,-0.20008,-0.04392,-0.01952,0.00976,0.0244
-0.0244,-0.03416,0.09272,0.10492,0.11712,-0.07076,-0.00976,-0.12688,-0.0244,0,0.01952,0.0244
-0.00976,-0.0366,0.08296,0.08784,0.09272,-0.05124,0.00488,-0.08296,-0.01952,0.00488,0.01952,0.01952
-0.00488,-0.03172,0.06832,0.07076,0.0732,-0.03904,0.0244,-0.0488,-0.01952,0.00488,0.01464,0.00976
-0.00488,-0.0244,0.05368,0.05612,0.05856,-0.03172,0.04392,-0.01464,-0.00976,0.00488,0.00976,0.00976
-0.00488,-0.0244,0.05368,0.05612,0.05856,-0.03172,0.06344,0.00488,0,0.00488,0.00976,0.00488
-0.00488,-0.0244,0.05368,0.05612,0.05856,-0.03172,0.06344,0.00976,0.00488,0.00488,0.00976,0.00488
0,-0.02684,0.05368,0.05368,0.05368,-0.02684,0.06832,0.01464,0.00488,0.00976,0.00976,-0.00488
0,-0.02684,0.05368,0.05368,0.05368,-0.02684,0.06344,0.0244,0.00488,0.01464,0.00976,-0.00488
0,-0.02684,0.05368,0.05368,0.05368,-0.02684,0.06344,0.0244,0.00488,0.01464,0.00488,0
0,-0.02684,0.05368,0.05368,0.05368,-0.02684,0.06344,0.02928,0.00488,0.00976,0.00488,0
0,-0.0244,0.0488,0.0488,0.0488,-0.0244,0.06344,0.02928,0.00488,0.00976,0.00488,0
0,-0.02196,0.04392,0.04392,0.04392,-0.02196,0.05856,0.02928,0.00488,0.00976,0.00488,0
0,-0.02196,0.04392,0.04392,0.04392,-0.02196,0.05856,0.02928,0.00976,0.00976,0.00488,0
0,-0.02196,0.04392,0.04392,0.04392,-0.02196,0.05856,0.02928,0.00976,0.01464,0.00976,0.00488
0,-0.02196,0.04392,0.04392,0.04392,-0.02196,0.05856,0.02928,0.00976,0.01952,0.00976,0.00976
0,-0.0244,0.0488,0.0488,0.0488,-0.0244,0.06344,0.03416,0.00488,0.01952,0.00488,0.00976
0.00488,-0.02928,0.05368,0.05124,0.0488,-0.02196,0.06832,0.03904,0.00488,0.0244,0.00488,0.00976
0.00488,-0.02928,0.05368,0.05124,0.0488,-0.02196,0.06832,0.04392,0.00976,0.02928,0.00488,0.00976
0.00488,-0.02928,0.05368,0.05124,0.0488,-0.02196,0.06832,0.04392,0.00976,0.02928,0.00488,0.00976
0,-0.0244,0.0488,0.0488,0.0488,-0.0244,0.06344,0.04392,0.00976,0.02928,0.00488,0.00976
0,-0.0244,0.0488,0.0488,0.0488,-0.0244,0.05856,0.0488,0.00976,0.02928,0.00976,0.00976
0,-0.02684,0.05368,0.05368,0.05368,-0.02684,0.05856,0.05368,0.01464,0.02928,0.00976,0.01464
0,-0.02684,0.05368,0.05368,0.05368,-0.02684,0.06344,0.05856,0.0244,0.03416,0.00976,0.01464
0.01464,-0.03904,0.06344,0.05612,0.0488,-0.01708,0.06344,0.05856,0.0244,0.03416,0.00976,0.01464
0.01952,-0.04148,0.06344,0.05368,0.04392,-0.0122,0.06344,0.06344,0.02928,0.03416,0.01464,0.01464
0.01952,-0.03904,0.05856,0.0488,0.03904,-0.00976,0.06344,0.0732,0.03416,0.03904,0.01464,0.0244
0.01952,-0.03904,0.05856,0.0488,0.03904,-0.00976,0.06344,0.0732,0.03416,0.04392,0.01952,0.0244
0.0244,-0.04636,0.06832,0.05612,0.04392,-0.00976,0.06344,0.0732,0.03416,0.0488,0.01952,0.0244
0.0244,-0.04636,0.06832,0.05612,0.04392,-0.00976,0.06344,0.08296,0.03904,0.05368,0.0244,0.0244
0.0244,-0.04636,0.06832,0.05612,0.04392,-0.00976,0.06344,0.08296,0.0488,0.05368,0.02928,0.02928
0.03416,-0.05612,0.07808,0.061,0.04392,-0.00488,0.05856,0.08784,0.0488,0.05856,0.02928,0.03416
0.03904,-0.061,0.08296,0.06344,0.04392,-0.00244,0.05368,0.09272,0.0488,0.05856,0.03416,0.03904
0.03904,-0.061,0.08296,0.06344,0.04392,-0.00244,0.05368,0.0976,0.05368,0.0732,0.03416,0.03904
0.03904,-0.061,0.08296,0.06344,0.04392,-0.00244,0.05368,0.10248,0.05856,0.0732,0.03904,0.03904
0.03904,-0.061,0.08296,0.06344,0.04392,-0.00244,0.05368,0.11224,0.06344,0.0732,0.03904,0.04392
0.0488,-0.06832,0.08784,0.06344,0.03904,0.00488,0.05368,0.122,0.06832,0.07808,0.04392,0.04392
0.05368,-0.0732,0.09272,0.06588,0.03904,0.00732,0.05856,0.12688,0.06832,0.08296,0.0488,0.0488
0.05856,-0.07808,0.0976,0.06832,0.03904,0.00976,0.05856,0.13176,0.07808,0.08784,0.05368,0.05856
0.06344,-0.08052,0.0976,0.06588,0.03416,0.01464,0.05856,0.13664,0.07808,0.09272,0.05856,0.06344
0.06344,-0.08052,0.0976,0.06588,0.03416,0.01464,0.05856,0.14152,0.07808,0.09272,0.06344,0.06344
0.06344,-0.08296,0.10248,0.07076,0.03904,0.0122,0.05856,0.1464,0.07808,0.10248,0.06832,0.06344
0.0732,-0.08784,0.10248,0.06588,0.02928,0.02196,0.05856,0.15616,0.08784,0.10736,0.0732,0.06832
0.08784,-0.0976,0.10736,0.06344,0.01952,0.03416,0.05856,0.16592,0.0976,0.10736,0.0732,0.0732
0.08784,-0.10004,0.11224,0.06832,0.0244,0.03172,0.05368,0.1708,0.0976,0.10248,0.07808,0.0732
0.09272,-0.10492,0.11712,0.07076,0.0244,0.03416,0.05368,0.1708,0.10248,0.10736,0.08296,0.07808
0.10248,-0.1098,0.11712,0.06588,0.01464,0.04392,0.05856,0.18544,0.10736,0.11712,0.07808,0.07808
0.10736,-0.1098,0.11224,0.05856,0.00488,0.05124,0.05856,0.1952,0.11224,0.11712,0.07808,0.0732
0.11712,-0.11712,0.11712,0.05856,0,0.05856,0.05856,0.20496,0.122,0.12688,0.08296,0.07808
0.122,-0.122,0.122,0.061,0,0.061,0.05368,0.20496,0.122,0.12688,0.08784,0.07808
0.13176,-0.13176,0.13176,0.06588,0,0.06588,0.05368,0.21472,0.12688,0.13664,0.08784,0.08296
0.14152,-0.14152,0.14152,0.07076,0,0.07076,0.05368,0.21472,0.13176,0.1464,0.09272,0.09272
0.15128,-0.1464,0.14152,0.06588,-0.00976,0.08052,0.0488,0.21472,0.13664,0.1464,0.0976,0.0976
0.15128,-0.14884,0.1464,0.07076,-0.00488,0.07808,0.04392,0.21472,0.13664,0.1464,0.0976,0.0976
0.15128,-0.14884,0.1464,0.07076,-0.00488,0.07808,0.04392,0.2196,0.13664,0.15128,0.0976,0.0976
0.15128,-0.1464,0.14152,0.06588,-0.00976,0.08052,0.03904,0.2196,0.14152,0.15616,0.10248,0.10248
0.15616,-0.14396,0.13176,0.05368,-0.0244,0.09028,0.04392,0.21472,0.14152,0.15616,0.10248,0.10736
0.16104,-0.14396,0.12688,0.04636,-0.03416,0.0976,0.03904,0.20984,0.14152,0.16104,0.10736,0.10736
0.1708,-0.15372,0.13664,0.05124,-0.03416,0.10248,0.03416,0.20496,0.13664,0.16104,0.10736,0.10736
0.1708,-0.1586,0.1464,0.061,-0.0244,0.0976,0.02928,0.20008,0.13664,0.15616,0.11224,0.11224
0.1708,-0.1586,0.1464,0.061,-0.0244,0.0976,0.0244,0.18056,0.13664,0.15616,0.11224,0.11224
0.1708,-0.16348,0.15616,0.07076,-0.01464,0.09272,0.0244,0.16592,0.13176,0.15616,0.10736,0.11224
0.15616,-0.15128,0.1464,0.06832,-0.00976,0.08296,0.01464,0.1464,0.122,0.15128,0.0976,0.11224
0.1464,-0.14396,0.14152,0.06832,-0.00488,0.07564,0.00976,0.13176,0.11712,0.14152,0.0976,0.10248
0.13664,-0.1342,0.13176,0.06344,-0.00488,0.07076,0.00976,0.122,0.11224,0.13176,0.09272,0.10248
0.122,-0.122,0.122,0.061,0,0.061,0.00976,0.10736,0.09272,0.122,0.08784,0.0976
0.10736,-0.11224,0.11712,0.06344,0.00976,0.0488,0.00488,0.09272,0.07808,0.10736,0.07808,0.08784
0.08784,-0.10004,0.11224,0.06832,0.0244,0.03172,0.00488,0.07808,0.06832,0.0976,0.06832,0.07808
0.07808,-0.0854,0.09272,0.05368,0.01464,0.03172,0.00976,0.06832,0.06344,0.08784,0.05856,0.06832
0.06832,-0.07808,0.08784,0.05368,0.01952,0.0244,0.01464,0.05368,0.05856,0.08296,0.0488,0.06344
0.06832,-0.07808,0.08784,0.05368,0.01952,0.0244,0.01464,0.0488,0.05368,0.07808,0.0488,0.05856
0.05856,-0.07076,0.08296,0.05368,0.0244,0.01708,0.01464,0.05368,0.0488,0.07808,0.0488,0.05368
0.05368,-0.06832,0.08296,0.05612,0.02928,0.0122,0.01952,0.04392,0.03904,0.06344,0.04392,0.0488
0.0488,-0.06344,0.07808,0.05368,0.02928,0.00976,0.01952,0.03904,0.03904,0.05856,0.03904,0.0488
0.0488,-0.061,0.0732,0.0488,0.0244,0.0122,0.0244,0.0244,0.02928,0.05368,0.02928,0.04392
0.03416,-0.05124,0.06832,0.05124,0.03416,0,0.0244,0.01952,0.0244,0.05368,0.0244,0.04392
0.0244,-0.04392,0.06344,0.05124,0.03904,-0.00732,0.01952,0.0244,0.01952,0.0488,0.01952,0.04392
0.01464,-0.0366,0.05856,0.05124,0.04392,-0.01464,0.00976,0.0244,0.01464,0.03904,0.01952,0.03904
0.01464,-0.0366,0.05856,0.05124,0.04392,-0.01464,0.00976,0.01952,0.00976,0.03416,0.01952,0.03416
0.00488,-0.02684,0.0488,0.04636,0.04392,-0.01952,0.00976,0.01952,0.00976,0.03416,0.00976,0.03416
0.00976,-0.03172,0.05368,0.0488,0.04392,-0.01708,0.00976,0.01952,0.00976,0.03416,0.00976,0.03416
0.01464,-0.0366,0.05856,0.05124,0.04392,-0.01464,0.01464,0.01952,0.00976,0.03904,0.00976,0.03904
0.01464,-0.0366,0.05856,0.05124,0.04392,-0.01464,0.01464,0.01952,0.00976,0.03904,0.00976,0.03416
0.01952,-0.04148,0.06344,0.05368,0.04392,-0.0122,0.01464,0.01952,0.00976,0.03904,0.00976,0.02928
0.01952,-0.04148,0.06344,0.05368,0.04392,-0.0122,0.01952,0.01952,0.00976,0.03904,0.00976,0.02928
0.01952,-0.04148,0.06344,0.05368,0.04392,-0.0122,0.0244,0.01952,0.00976,0.03904,0.00976,0.02928
0.01464,-0.03904,0.06344,0.05612,0.0488,-0.01708,0.02928,0.01952,0.00976,0.03904,0.00976,0.03416
0.01464,-0.0366,0.05856,0.05124,0.04392,-0.01464,0.03416,0.01952,0.00976,0.03416,0.00976,0.03904
0.01464,-0.03416,0.05368,0.04636,0.03904,-0.0122,0.03416,0.01952,0.00488,0.03416,0.00976,0.03416
0.01464,-0.03416,0.05368,0.04636,0.03904,-0.0122,0.03904,0.01952,0.00488,0.03416,0.00976,0.03416
0.00976,-0.0366,0.06344,0.05856,0.05368,-0.02196,0.03904,0.01952,0.00488,0.03416,0.00976,0.03416
0.00488,-0.03416,0.06344,0.061,0.05856,-0.02684,0.03904,0.01952,0.00488,0.03416,0.00976,0.03416
0.00488,-0.03172,0.05856,0.05612,0.05368,-0.0244,0.03416,0.01952,0.00488,0.03416,0.00976,0.03416
0.00488,-0.02928,0.05368,0.05124,0.0488,-0.02196,0.03416,0.01464,0.00488,0.03416,0.00488,0.02928
0.00488,-0.03416,0.06344,0.061,0.05856,-0.02684,0.03416,0.01464,0.00488,0.03416,0.00488,0.02928
0.00976,-0.04392,0.07808,0.0732,0.06832,-0.02928,0.03416,0.01464,0.00488,0.03416,0.00488,0.02928
0.01952,-0.04392,0.06832,0.05856,0.0488,-0.01464,0.03416,0.01464,0.00488,0.03416,0.00488,0.02928
0.00976,-0.0366,0.06344,0.05856,0.05368,-0.02196,0.03416,0.01464,0.00488,0.03416,0.00488,0.02928
0.01464,-0.03904,0.06344,0.05612,0.0488,-0.01708,0.03904,0.01952,0.00488,0.03416,0.00488,0.03416
0.01952,-0.03904,0.05856,0.0488,0.03904,-0.00976,0.03904,0.0244,0.00488,0.02928,0.00488,0.03416
0.01952,-0.0366,0.05368,0.04392,0.03416,-0.00732,0.03904,0.01952,0.00488,0.02928,0,0.03416
0.01952,-0.0366,0.05368,0.04392,0.03416,-0.00732,0.02928,0.01952,0,0.02928,0,0.03416
0.00976,-0.02684,0.04392,0.03904,0.03416,-0.0122,0.02928,0.01464,0,0.0244,0,0.02928
-0.00488,-0.01708,0.03904,0.04148,0.04392,-0.0244,0.02928,0.00488,-0.00488,0.01952,0,0.02928
-0.00488,-0.01708,0.03904,0.04148,0.04392,-0.0244,0.02928,0.00488,-0.00488,0.01952,-0.00488,0.02928
-0.00488,-0.01708,0.03904,0.04148,0.04392,-0.0244,0.02928,0.00488,-0.00488,0.01952,-0.00488,0.03416
0,-0.0244,0.0488,0.0488,0.0488,-0.0244,0.03416,0.00976,-0.00488,0.0244,0,0.03416
0.00488,-0.02928,0.05368,0.05124,0.0488,-0.02196,0.03416,0.01464,-0.00976,0.02928,0,0.02928
0.00488,-0.02928,0.05368,0.05124,0.0488,-0.02196,0.03416,0.01464,-0.00976,0.02928,-0.00488,0.02928
0.00488,-0.02684,0.0488,0.04636,0.04392,-0.01952,0.02928,0.00488,-0.00976,0.02928,-0.00488,0.03416
0.00488,-0.02928,0.05368,0.05124,0.0488,-0.02196,0.0244,0.00488,-0.01464,0.02928,-0.00976,0.03416
0.00488,-0.03416,0.06344,0.061,0.05856,-0.02684,0.0244,0.00488,-0.01464,0.02928,-0.00976,0.0244
0.00488,-0.03416,0.06344,0.061,0.05856,-0.02684,0.0244,0.00488,-0.01464,0.02928,-0.00488,0.0244
0.00488,-0.03172,0.05856,0.05612,0.05368,-0.0244,0.0244,0.00488,-0.01464,0.02928,0,0.0244
0.00488,-0.03172,0.05856,0.05612,0.05368,-0.0244,0.0244,0.00488,-0.01464,0.02928,0,0.0244
0,-0.02928,0.05856,0.05856,0.05856,-0.02928,0.0244,0.00488,-0.01464,0.0244,0,0.0244
0.00488,-0.03172,0.05856,0.05612,0.05368,-0.0244,0.0244,0.00488,-0.01952,0.0244,-0.00488,0.01952
0.01464,-0.03416,0.05368,0.04636,0.03904,-0.0122,0.0244,0.00488,-0.01952,0.0244,-0.00976,0.01464
0.01464,-0.03416,0.05368,0.04636,0.03904,-0.0122,0.0244,0,-0.01952,0.01952,-0.00976,0.01464
0.01464,-0.0366,0.05856,0.05124,0.04392,-0.01464,0.01952,0,-0.01952,0.01952,-0.00976,0.01464
0.01464,-0.03172,0.0488,0.04148,0.03416,-0.00976,0.01464,0,-0.01952,0.0244,-0.00976,0.01464
0.00976,-0.0244,0.03904,0.03416,0.02928,-0.00976,0.01952,0.00488,-0.01464,0.02928,-0.00976,0.01464
0.00976,-0.03172,0.05368,0.0488,0.04392,-0.01708,0.0244,0.00488,-0.00976,0.02928,0,0.0244
0.00976,-0.03904,0.06832,0.06344,0.05856,-0.0244,0.02928,0.00976,-0.00488,0.03416,0.00488,0.03416
0.01464,-0.0488,0.08296,0.07564,0.06832,-0.02684,0.03416,0.01952,0.00488,0.04392,0.01464,0.04392
0.01952,-0.05856,0.0976,0.08784,0.07808,-0.02928,0.03904,0.02928,0.01952,0.05856,0.02928,0.05856
0.01952,-0.061,0.10248,0.09272,0.08296,-0.03172,0.03904,0.02928,0.01952,0.06344,0.02928,0.05856
0.01952,-0.06344,0.10736,0.0976,0.08784,-0.03416,0.03904,0.02928,0.01952,0.06832,0.02928,0.05856
0.02928,-0.07076,0.11224,0.0976,0.08296,-0.02684,0.03904,0.03416,0.01952,0.06832,0.03416,0.06344
0.03416,-0.0732,0.11224,0.09516,0.07808,-0.02196,0.02928,0.02928,0.01952,0.06344,0.03416,0.06344
0.03904,-0.07808,0.11712,0.0976,0.07808,-0.01952,0.0244,0.02928,0.0244,0.06344,0.03904,0.06832
0.03416,-0.0732,0.11224,0.09516,0.07808,-0.02196,0.0244,0.02928,0.0244,0.06344,0.03904,0.06832
0.03416,-0.07808,0.122,0.10492,0.08784,-0.02684,0.01952,0.0244,0.02928,0.0732,0.0488,0.0732
0.03904,-0.0854,0.13176,0.11224,0.09272,-0.02684,0.00976,0.01952,0.02928,0.07808,0.05368,0.07808
0.05856,-0.08784,0.11712,0.08784,0.05856,0,0.00488,0.01464,0.02928,0.06832,0.04392,0.06832
0.07808,-0.09516,0.11224,0.0732,0.03416,0.02196,0,0.00976,0.02928,0.06832,0.04392,0.06344
0.08296,-0.09272,0.10248,0.061,0.01952,0.03172,-0.00976,0,0.00976,0.05368,0.03416,0.05368
0.08296,-0.09028,0.0976,0.05612,0.01464,0.03416,-0.01464,-0.01464,0,0.04392,0.02928,0.05368
0.06832,-0.08052,0.09272,0.05856,0.0244,0.02196,-0.01952,-0.02928,-0.01952,0.03416,0.01464,0.0488
0.05368,-0.06588,0.07808,0.05124,0.0244,0.01464,-0.01952,-0.03904,-0.02928,0.03416,0.00488,0.03904
0.04392,-0.05856,0.0732,0.05124,0.02928,0.00732,-0.00976,-0.02928,-0.01464,0.03904,0.00488,0.03904
0.03904,-0.05612,0.0732,0.05368,0.03416,0.00244,-0.00488,-0.0244,-0.01464,0.03904,0.00488,0.03904
0.01464,-0.03904,0.06344,0.05612,0.0488,-0.01708,0.00488,-0.01952,-0.0244,0.03416,0.00488,0.02928
0,-0.02684,0.05368,0.05368,0.05368,-0.02684,0.01464,-0.01952,-0.01952,0.0244,0,0.0244
-0.00488,-0.02196,0.0488,0.05124,0.05368,-0.02928,0.01952,-0.0244,-0.0244,0.01952,-0.00488,0.01952
-0.01464,-0.01464,0.04392,0.05124,0.05856,-0.0366,0.01952,-0.03416,-0.03416,0.00976,-0.00976,0.01464
-0.01952,-0.00244,0.0244,0.03416,0.04392,-0.03172,0.01952,-0.03416,-0.04392,0,-0.01952,0.00488
-0.0244,0.00244,0.01952,0.03172,0.04392,-0.03416,0.01952,-0.03416,-0.0488,-0.00488,-0.01952,0.00488
-0.02928,0.00488,0.01952,0.03416,0.0488,-0.03904,0.01952,-0.03416,-0.0488,-0.00488,-0.02928,0.00488
-0.02928,0.00244,0.0244,0.03904,0.05368,-0.04148,0.01952,-0.03416,-0.0488,-0.00488,-0.03416,0.00488
-0.02928,0.00244,0.0244,0.03904,0.05368,-0.04148,0.0244,-0.03416,-0.0488,-0.00488,-0.03416,0.00488
-0.02928,0.00244,0.0244,0.03904,0.05368,-0.04148,0.02928,-0.03416,-0.0488,-0.00976,-0.02928,0.00488
-0.0244,0,0.0244,0.0366,0.0488,-0.0366,0.02928,-0.03416,-0.0488,-0.00976,-0.02928,0.00488
-0.0244,0,0.0244,0.0366,0.0488,-0.0366,0.03416,-0.02928,-0.0488,-0.00976,-0.02928,0.00488
-0.0244,0,0.0244,0.0366,0.0488,-0.0366,0.03416,-0.02928,-0.05368,-0.00976,-0.03416,0
-0.01952,-0.00244,0.0244,0.03416,0.04392,-0.03172,0.02928,-0.02928,-0.05368,-0.00976,-0.03416,0
-0.01952,-0.00244,0.0244,0.03416,0.04392,-0.03172,0.02928,-0.02928,-0.0488,-0.00488,-0.03416,0.00488
-0.01952,-0.00488,0.02928,0.03904,0.0488,-0.03416,0.02928,-0.02928,-0.04392,-0.00488,-0.02928,0.00488
-0.01952,-0.00976,0.03904,0.0488,0.05856,-0.03904,0.03904,-0.0244,-0.04392,0,-0.02928,0.00976
-0.01952,-0.00976,0.03904,0.0488,0.05856,-0.03904,0.04392,-0.0244,-0.04392,0,-0.0244,0.00976
-0.01952,-0.00732,0.03416,0.04392,0.05368,-0.0366,0.04392,-0.0244,-0.04392,0,-0.02928,0.00976
-0.01952,-0.00488,0.02928,0.03904,0.0488,-0.03416,0.04392,-0.0244,-0.04392,0,-0.03416,0.00976
-0.0244,-0.00244,0.02928,0.04148,0.05368,-0.03904,0.04392,-0.0244,-0.04392,0.00488,-0.03416,0.00976
-0.0244,-0.00244,0.02928,0.04148,0.05368,-0.03904,0.04392,-0.01952,-0.04392,0.00976,-0.03416,0.00976
-0.0244,-0.00488,0.03416,0.04636,0.05856,-0.04148,0.04392,-0.01952,-0.03904,0.00976,-0.0244,0.01464
-0.0244,-0.00732,0.03904,0.05124,0.06344,-0.04392,0.04392,-0.01464,-0.03904,0.01464,-0.01952,0.0244
-0.01464,-0.01464,0.04392,0.05124,0.05856,-0.0366,0.04392,-0.01464,-0.03904,0.01952,-0.01952,0.0244
-0.00976,-0.01708,0.04392,0.0488,0.05368,-0.03172,0.0488,-0.00976,-0.03416,0.01952,-0.01952,0.0244
-0.01464,-0.01464,0.04392,0.05124,0.05856,-0.0366,0.04392,-0.00976,-0.03416,0.01952,-0.01952,0.0244
-0.0244,-0.00488,0.03416,0.04636,0.05856,-0.04148,0.0488,0,-0.02928,0.01464,-0.0244,0.01952
-0.03904,0.00488,0.02928,0.0488,0.06832,-0.05368,0.05856,0,-0.05368,-0.01464,-0.04392,0.00976
-0.05368,0.01464,0.0244,0.05124,0.07808,-0.06588,0.09272,0.03416,-0.04392,-0.00976,-0.03904,0
-0.0976,0.03172,0.03416,0.08296,0.13176,-0.11468,0.16592,0.17568,0.01464,0.02928,-0.02928,0.00976
-0.06344,0.0122,0.03904,0.07076,0.10248,-0.08296,0.1952,0.244,0.04392,0.05368,-0.0244,0.00976
0.07808,-0.05856,0.03904,0,-0.03904,0.05856,0.15128,0.22448,0.04392,0.05856,-0.01952,-0.00488
0.2684,-0.17324,0.07808,-0.05612,-0.19032,0.22936,0.02928,0.16592,0.06344,0.122,0.03904,0.03904
0.67344,-0.43676,0.20008,-0.13664,-0.47336,0.5734,-0.22936,0.0976,0.19032,0.3416,0.244,0.20984
0.90768,-0.59292,0.27816,-0.17568,-0.62952,0.7686,-0.40992,-0.01952,0.21472,0.42456,0.34648,0.29768
0.87352,-0.55876,0.244,-0.19276,-0.62952,0.75152,-0.47336,-0.27328,0.08296,0.3172,0.25864,0.244
0.75152,-0.43676,0.122,-0.25376,-0.62952,0.69052,-0.48312,-0.50264,-0.13176,0.08296,0.0488,0.0732
0.37088,-0.2318,0.09272,-0.09272,-0.27816,0.32452,-0.39528,-0.7076,-0.28792,-0.0976,-0.06344,0.00488
0.13664,-0.10736,0.07808,0.00976,-0.05856,0.0976,-0.31232,-0.76128,-0.36112,-0.20008,-0.13664,-0.04392
0,-0.0488,0.0976,0.0976,0.0976,-0.0488,-0.244,-0.64416,-0.28304,-0.14152,-0.08784,0
-0.08784,-0.01464,0.11712,0.16104,0.20496,-0.1464,-0.17568,-0.51728,-0.20984,-0.08296,-0.0488,0.0244
-0.0732,-0.04148,0.15616,0.19276,0.22936,-0.15128,-0.10736,-0.33672,-0.11712,-0.01464,-0.00488,0.05368
-0.05856,-0.05368,0.16592,0.1952,0.22448,-0.14152,-0.0488,-0.20496,-0.05368,0.01952,0.02928,0.07808
-0.03416,-0.0488,0.13176,0.14884,0.16592,-0.10004,-0.01952,-0.13664,-0.03904,0.02928,0.02928,0.0732
-0.0244,-0.04392,0.11224,0.12444,0.13664,-0.08052,-0.00488,-0.08296,-0.02928,0.03416,0.02928,0.06832
-0.01952,-0.0366,0.09272,0.10248,0.11224,-0.06588,0.01952,-0.0488,-0.02928,0.03904,0.01952,0.05856
-0.01464,-0.02684,0.06832,0.07564,0.08296,-0.0488,0.03416,-0.01464,-0.0244,0.04392,0.00976,0.05856
-0.01464,-0.0244,0.06344,0.07076,0.07808,-0.04636,0.0488,0,-0.01952,0.04392,0.00976,0.05368
-0.01464,-0.0244,0.06344,0.07076,0.07808,-0.04636,0.05368,0.00976,-0.01464,0.03904,0.00976,0.05368
-0.00976,-0.02684,0.06344,0.06832,0.0732,-0.04148,0.05856,0.01464,-0.00976,0.03904,0.00976,0.04392
-0.00976,-0.02684,0.06344,0.06832,0.0732,-0.04148,0.05856,0.0244,-0.00488,0.04392,0.00976,0.04392
-0.00976,-0.02684,0.06344,0.06832,0.0732,-0.04148,0.06344,0.02928,-0.00488,0.04392,0.00488,0.0488
-0.00976,-0.02684,0.06344,0.06832,0.0732,-0.04148,0.06344,0.03904,-0.00488,0.04392,0.00488,0.0488
-0.00976,-0.0244,0.05856,0.06344,0.06832,-0.03904,0.06344,0.03904,-0.00488,0.0488,0.00488,0.0488
-0.00976,-0.0244,0.05856,0.06344,0.06832,-0.03904,0.05856,0.04392,-0.00488,0.0488,0.00488,0.0488
-0.00976,-0.02684,0.06344,0.06832,0.0732,-0.04148,0.05856,0.0488,0,0.0488,0,0.0488
-0.00976,-0.02684,0.06344,0.06832,0.0732,-0.04148,0.05856,0.0488,0,0.0488,0,0.0488
-0.00488,-0.02928,0.06344,0.06588,0.06832,-0.0366,0.05856,0.0488,0,0.0488,0,0.0488
0,-0.03416,0.06832,0.06832,0.06832,-0.03416,0.05856,0.05368,0,0.0488,0,0.0488
0.00488,-0.03904,0.0732,0.07076,0.06832,-0.03172,0.05368,0.05856,0.00488,0.05368,0.00488,0.04392
0.00488,-0.03904,0.0732,0.07076,0.06832,-0.03172,0.0488,0.06344,0.00976,0.05856,0.00488,0.03904
0,-0.03416,0.06832,0.06832,0.06832,-0.03416,0.0488,0.05856,0.00976,0.05856,0.00488,0.03904
-0.00488,-0.02684,0.05856,0.061,0.06344,-0.03416,0.0488,0.05368,0.00976,0.05856,0.00488,0.03904
0,-0.02928,0.05856,0.05856,0.05856,-0.02928,0.0488,0.05856,0.00976,0.05856,0.01464,0.03904
0,-0.03172,0.06344,0.06344,0.06344,-0.03172,0.0488,0.06344,0.00976,0.05856,0.01952,0.04392
0,-0.03416,0.06832,0.06832,0.06832,-0.03416,0.05368,0.0732,0.01464,0.06344,0.01952,0.04392
0.00976,-0.04636,0.08296,0.07808,0.0732,-0.03172,0.05368,0.07808,0.01464,0.06344,0.01952,0.04392
0.00976,-0.04636,0.08296,0.07808,0.0732,-0.03172,0.05368,0.08296,0.01952,0.06344,0.0244,0.0488
0.00976,-0.04392,0.07808,0.0732,0.06832,-0.02928,0.05368,0.09272,0.0244,0.06832,0.0244,0.06344
0.00976,-0.04148,0.0732,0.06832,0.06344,-0.02684,0.05368,0.08784,0.0244,0.06832,0.0244,0.06344
0.01464,-0.04636,0.07808,0.07076,0.06344,-0.0244,0.05368,0.08296,0.0244,0.06832,0.01952,0.06344
0.01464,-0.04636,0.07808,0.07076,0.06344,-0.0244,0.05368,0.09272,0.02928,0.0732,0.0244,0.05856
0.01464,-0.04636,0.07808,0.07076,0.06344,-0.0244,0.05856,0.09272,0.03904,0.0732,0.02928,0.05856
0.0244,-0.05612,0.08784,0.07564,0.06344,-0.01952,0.05856,0.0976,0.03904,0.08296,0.03416,0.06344
0.02928,-0.061,0.09272,0.07808,0.06344,-0.01708,0.05368,0.10248,0.03904,0.08784,0.04392,0.06832
0.02928,-0.061,0.09272,0.07808,0.06344,-0.01708,0.05368,0.10736,0.03904,0.10248,0.04392,0.06832
0.02928,-0.061,0.09272,0.07808,0.06344,-0.01708,0.05368,0.11224,0.03904,0.10248,0.0488,0.06832
0.02928,-0.05612,0.08296,0.06832,0.05368,-0.0122,0.05368,0.122,0.04392,0.10248,0.0488,0.0732
0.03904,-0.05856,0.07808,0.05856,0.03904,0,0.05368,0.13176,0.0488,0.10736,0.05368,0.0732
0.04392,-0.06832,0.09272,0.07076,0.0488,-0.00244,0.05856,0.13664,0.0488,0.11224,0.05856,0.08296
0.0488,-0.07808,0.10736,0.08296,0.05856,-0.00488,0.05856,0.1464,0.06344,0.11712,0.06344,0.09272
0.05368,-0.08052,0.10736,0.08052,0.05368,0,0.05368,0.15128,0.06832,0.122,0.06832,0.09272
0.05368,-0.08052,0.10736,0.08052,0.05368,0,0.0488,0.15128,0.06832,0.122,0.06832,0.09272
0.05368,-0.08296,0.11224,0.0854,0.05856,-0.00244,0.0488,0.15616,0.0732,0.13176,0.06832,0.09272
0.05856,-0.0854,0.11224,0.08296,0.05368,0.00244,0.0488,0.16592,0.08784,0.13664,0.0732,0.0976
0.07808,-0.10248,0.12688,0.08784,0.0488,0.01464,0.05368,0.17568,0.0976,0.13664,0.07808,0.10248
0.08784,-0.11468,0.14152,0.0976,0.05368,0.01708,0.05368,0.18056,0.0976,0.13664,0.08784,0.10248
0.09272,-0.11956,0.1464,0.10004,0.05368,0.01952,0.05368,0.18056,0.10248,0.1464,0.09272,0.10736
0.10248,-0.12688,0.15128,0.10004,0.0488,0.02684,0.05856,0.1952,0.10736,0.15616,0.09272,0.11224
0.0976,-0.11956,0.14152,0.09272,0.04392,0.02684,0.05856,0.20008,0.10736,0.15128,0.08784,0.10736
0.0976,-0.11712,0.13664,0.08784,0.03904,0.02928,0.05856,0.20496,0.11224,0.15616,0.08296,0.10736
0.10248,-0.122,0.14152,0.09028,0.03904,0.03172,0.05368,0.20496,0.11224,0.15616,0.08784,0.10736
0.10736,-0.12444,0.14152,0.08784,0.03416,0.0366,0.05368,0.21472,0.11712,0.16104,0.08784,0.10736
0.11224,-0.12688,0.14152,0.0854,0.02928,0.04148,0.05368,0.2196,0.122,0.1708,0.09272,0.11224
0.122,-0.13176,0.14152,0.08052,0.01952,0.05124,0.0488,0.22448,0.12688,0.17568,0.0976,0.11712
0.12688,-0.13664,0.1464,0.08296,0.01952,0.05368,0.0488,0.22448,0.12688,0.17568,0.0976,0.11712
0.13664,-0.14396,0.15128,0.08296,0.01464,0.061,0.05368,0.22936,0.12688,0.18056,0.0976,0.11712
0.14152,-0.1464,0.15128,0.08052,0.00976,0.06588,0.0488,0.22936,0.13176,0.18544,0.10248,0.122
0.1464,-0.14884,0.15128,0.07808,0.00488,0.07076,0.0488,0.22448,0.13176,0.18544,0.10248,0.12688
0.15128,-0.15616,0.16104,0.0854,0.00976,0.07076,0.03904,0.2196,0.13664,0.19032,0.10736,0.12688
0.16104,-0.16348,0.16592,0.0854,0.00488,0.07808,0.03416,0.20984,0.13664,0.19032,0.10736,0.12688
0.16592,-0.16592,0.16592,0.08296,0,0.08296,0.02928,0.20496,0.13664,0.18544,0.11224,0.13176
0.16592,-0.16592,0.16592,0.08296,0,0.08296,0.0244,0.19032,0.13176,0.18056,0.11224,0.13176
0.16592,-0.17324,0.18056,0.0976,0.01464,0.07564,0.0244,0.18056,0.12688,0.17568,0.10736,0.13176
0.15616,-0.16592,0.17568,0.0976,0.01952,0.06832,0.01952,0.16592,0.122,0.1708,0.0976,0.13176
0.1464,-0.16104,0.17568,0.10248,0.02928,0.05856,0.01952,0.15128,0.11712,0.1708,0.10248,0.12688
0.13664,-0.15372,0.1708,0.10248,0.03416,0.05124,0.01952,0.13664,0.11224,0.1708,0.0976,0.12688
0.11712,-0.13908,0.16104,0.10248,0.04392,0.0366,0.01952,0.11712,0.09272,0.16104,0.08784,0.11712
0.10248,-0.12932,0.15616,0.10492,0.05368,0.0244,0.01464,0.10248,0.07808,0.1464,0.07808,0.10736
0.08784,-0.11712,0.1464,0.10248,0.05856,0.01464,0.01952,0.08784,0.06832,0.13176,0.06832,0.0976
0.07808,-0.10004,0.122,0.08296,0.04392,0.01708,0.0244,0.07808,0.05856,0.11224,0.05856,0.08784
0.06832,-0.09272,0.11712,0.08296,0.0488,0.00976,0.0244,0.06344,0.0488,0.10248,0.04392,0.08296
0.06832,-0.09272,0.11712,0.08296,0.0488,0.00976,0.0244,0.05368,0.04392,0.0976,0.03416,0.07808
0.0488,-0.08052,0.11224,0.08784,0.06344,-0.00732,0.0244,0.05368,0.03904,0.0976,0.02928,0.0732
0.03416,-0.0732,0.11224,0.09516,0.07808,-0.02196,0.02928,0.04392,0.02928,0.08296,0.0244,0.06832
0.02928,-0.06588,0.10248,0.08784,0.0732,-0.02196,0.02928,0.03904,0.02928,0.07808,0.01464,0.06344
0.02928,-0.061,0.09272,0.07808,0.06344,-0.01708,0.03416,0.02928,0.0244,0.0732,0.00488,0.05368
0.01464,-0.05124,0.08784,0.08052,0.0732,-0.02928,0.03904,0.0244,0.0244,0.0732,0.00488,0.05368
0.01464,-0.05124,0.08784,0.08052,0.0732,-0.02928,0.04392,0.0244,0.01952,0.0732,0,0.05368
0.01464,-0.05124,0.08784,0.08052,0.0732,-0.02928,0.04392,0.0244,0.01952,0.06832,0.00488,0.0488
0.01464,-0.05124,0.08784,0.08052,0.0732,-0.02928,0.0488,0.01952,0.01952,0.06344,0.00976,0.04392
0.00488,-0.0488,0.09272,0.09028,0.08784,-0.04148,0.0488,0.01952,0.01952,0.06344,0,0.04392
0.00488,-0.05612,0.10736,0.10492,0.10248,-0.0488,0.0488,0.01952,0.01952,0.05856,0,0.04392
-0.00488,-0.04392,0.09272,0.09516,0.0976,-0.05124,0.05368,0.01952,0.01952,0.05368,-0.00488,0.0488
-0.01464,-0.03172,0.07808,0.0854,0.09272,-0.05368,0.05368,0.01952,0.01952,0.0488,-0.00976,0.0488
0,-0.04148,0.08296,0.08296,0.08296,-0.04148,0.05368,0.01952,0.01952,0.0488,-0.00976,0.0488
0.00976,-0.04636,0.08296,0.07808,0.0732,-0.03172,0.05856,0.01952,0.01952,0.0488,-0.00976,0.0488
0.00976,-0.05124,0.09272,0.08784,0.08296,-0.0366,0.06344,0.01952,0.01952,0.0488,-0.00976,0.0488
0.00488,-0.05368,0.10248,0.10004,0.0976,-0.04636,0.06344,0.01952,0.01952,0.0488,-0.00976,0.0488
0.00488,-0.05124,0.0976,0.09516,0.09272,-0.04392,0.05856,0.01952,0.01952,0.0488,-0.00976,0.0488
0.00488,-0.0488,0.09272,0.09028,0.08784,-0.04148,0.05368,0.01952,0.01464,0.05368,-0.00976,0.04392
0.00488,-0.04636,0.08784,0.0854,0.08296,-0.03904,0.05856,0.01952,0.01464,0.05368,-0.00976,0.04392
0,-0.04636,0.09272,0.09272,0.09272,-0.04636,0.05856,0.01952,0.01464,0.05368,-0.00976,0.04392
-0.00488,-0.04392,0.09272,0.09516,0.0976,-0.05124,0.05856,0.01952,0.01464,0.05368,-0.00976,0.04392
-0.00488,-0.04148,0.08784,0.09028,0.09272,-0.0488,0.05368,0.01952,0.01464,0.05368,-0.00976,0.04392
-0.00488,-0.03904,0.08296,0.0854,0.08784,-0.04636,0.05368,0.01464,0.00976,0.05368,-0.01464,0.03904
-0.00488,-0.03904,0.08296,0.0854,0.08784,-0.04636,0.05368,0.01464,0.00488,0.05368,-0.01464,0.03904
0,-0.04148,0.08296,0.08296,0.08296,-0.04148,0.05368,0.01464,0.00488,0.05368,-0.01464,0.03904
0.00976,-0.04392,0.07808,0.0732,0.06832,-0.02928,0.05368,0.01464,0.00488,0.05368,-0.01464,0.03904
-0.00488,-0.0366,0.07808,0.08052,0.08296,-0.04392,0.05368,0.01464,0.00488,0.0488,-0.01464,0.03904
-0.00976,-0.03172,0.0732,0.07808,0.08296,-0.04636,0.05856,0.01464,0.00488,0.04392,-0.01464,0.03904
-0.01464,-0.02684,0.06832,0.07564,0.08296,-0.0488,0.06344,0.01464,0.00488,0.03904,-0.01464,0.03416
-0.01952,-0.02196,0.06344,0.0732,0.08296,-0.05124,0.06832,0.00976,0.00488,0.03904,-0.01952,0.03416
-0.01952,-0.02196,0.06344,0.0732,0.08296,-0.05124,0.05856,0.00976,0,0.03904,-0.01952,0.03416
-0.01952,-0.01952,0.05856,0.06832,0.07808,-0.0488,0.05856,0.00976,0,0.03416,-0.01952,0.02928
-0.01952,-0.0244,0.06832,0.07808,0.08784,-0.05368,0.05368,0,-0.00488,0.03416,-0.01952,0.02928
-0.01464,-0.03172,0.07808,0.0854,0.09272,-0.05368,0.0488,-0.00488,-0.00488,0.03904,-0.0244,0.02928
-0.01464,-0.03172,0.07808,0.0854,0.09272,-0.05368,0.0488,-0.00488,-0.00488,0.03904,-0.0244,0.03416
-0.01464,-0.03416,0.08296,0.09028,0.0976,-0.05612,0.05368,-0.00488,-0.00488,0.03904,-0.01952,0.03416
-0.01464,-0.03172,0.07808,0.0854,0.09272,-0.05368,0.05856,-0.00488,-0.00976,0.03416,-0.01952,0.02928
-0.01464,-0.02928,0.0732,0.08052,0.08784,-0.05124,0.06344,-0.00488,-0.00976,0.02928,-0.0244,0.02928
-0.01464,-0.02684,0.06832,0.07564,0.08296,-0.0488,0.05856,-0.01464,-0.00976,0.02928,-0.0244,0.03416
-0.01464,-0.02684,0.06832,0.07564,0.08296,-0.0488,0.05368,-0.01464,-0.01464,0.02928,-0.02928,0.03416
-0.01464,-0.03172,0.07808,0.0854,0.09272,-0.05368,0.05368,-0.01464,-0.01464,0.03416,-0.02928,0.0244
-0.01464,-0.03416,0.08296,0.09028,0.0976,-0.05612,0.05368,-0.01464,-0.01464,0.03904,-0.02928,0.0244
-0.01464,-0.03172,0.07808,0.0854,0.09272,-0.05368,0.05368,-0.01464,-0.01464,0.03904,-0.02928,0.0244
-0.01464,-0.03172,0.07808,0.0854,0.09272,-0.05368,0.05368,-0.01464,-0.01464,0.03904,-0.02928,0.0244
-0.01952,-0.02684,0.0732,0.08296,0.09272,-0.05612,0.05368,-0.01464,-0.01464,0.02928,-0.02928,0.0244
-0.01952,-0.0244,0.06832,0.07808,0.08784,-0.05368,0.05368,-0.01464,-0.01952,0.0244,-0.02928,0.0244
-0.01464,-0.0244,0.06344,0.07076,0.07808,-0.04636,0.05856,-0.01464,-0.01952,0.0244,-0.02928,0.0244
-0.01464,-0.0244,0.06344,0.07076,0.07808,-0.04636,0.06344,-0.01952,-0.01952,0.01952,-0.02928,0.0244
-0.01464,-0.0244,0.06344,0.07076,0.07808,-0.04636,0.05856,-0.01952,-0.01952,0.01952,-0.02928,0.01952
-0.00976,-0.0244,0.05856,0.06344,0.06832,-0.03904,0.05368,-0.01952,-0.01952,0.0244,-0.02928,0.01464
-0.00976,-0.0244,0.05856,0.06344,0.06832,-0.03904,0.05368,-0.01952,-0.01952,0.0244,-0.02928,0.01464
-0.00976,-0.0244,0.05856,0.06344,0.06832,-0.03904,0.05856,-0.01464,-0.01464,0.02928,-0.02928,0.01464
-0.00976,-0.02928,0.06832,0.0732,0.07808,-0.04392,0.05856,-0.01464,-0.01464,0.03416,-0.02928,0.01464
-0.00488,-0.03904,0.08296,0.0854,0.08784,-0.04636,0.06832,0,0,0.04392,-0.01952,0.02928
-0.00488,-0.03904,0.08296,0.0854,0.08784,-0.04636,0.0732,0,0.00976,0.04392,-0.01952,0.03416
-0.00976,-0.03904,0.08784,0.09272,0.0976,-0.05368,0.07808,0,0.01952,0.0488,-0.01952,0.03904
-0.00976,-0.04636,0.10248,0.10736,0.11224,-0.061,0.07808,0.00976,0.01952,0.05856,-0.00976,0.0488
-0.00976,-0.05368,0.11712,0.122,0.12688,-0.06832,0.07808,0.01952,0.01952,0.06832,0,0.05856
0,-0.06344,0.12688,0.12688,0.12688,-0.06344,0.07808,0.01952,0.01952,0.0732,0.00488,0.06344
0.00976,-0.07076,0.13176,0.12688,0.122,-0.05612,0.0732,0.01952,0.0244,0.0732,0.00976,0.06344
0.01952,-0.07808,0.13664,0.12688,0.11712,-0.0488,0.0732,0.0244,0.02928,0.07808,0.01464,0.06832
0.01952,-0.07808,0.13664,0.12688,0.11712,-0.0488,0.06344,0.01952,0.03416,0.0732,0.01952,0.06832
0.01952,-0.07808,0.13664,0.12688,0.11712,-0.0488,0.06344,0.01952,0.03416,0.0732,0.0244,0.0732
0.0244,-0.08296,0.14152,0.12932,0.11712,-0.04636,0.05856,0.00976,0.02928,0.0732,0.02928,0.07808
0.02928,-0.0854,0.14152,0.12688,0.11224,-0.04148,0.0488,0,0.01952,0.06832,0.0244,0.07808
0.0488,-0.08784,0.12688,0.10248,0.07808,-0.01464,0.04392,-0.00488,0.01464,0.05856,0.01464,0.06832
0.05856,-0.0854,0.11224,0.08296,0.05368,0.00244,0.03904,-0.01464,0.00976,0.05856,0.00976,0.05856
0.0488,-0.07076,0.09272,0.06832,0.04392,0.00244,0.03416,-0.02928,-0.00976,0.04392,-0.00488,0.04392
0.04392,-0.06588,0.08784,0.06588,0.04392,0,0.03416,-0.04392,-0.01952,0.03416,-0.00976,0.04392
0.02928,-0.05612,0.08296,0.06832,0.05368,-0.0122,0.03416,-0.0488,-0.02928,0.0244,-0.01952,0.03904
0.01952,-0.04392,0.06832,0.05856,0.0488,-0.01464,0.04392,-0.0488,-0.02928,0.0244,-0.0244,0.02928
0.01464,-0.03904,0.06344,0.05612,0.0488,-0.01708,0.05856,-0.03904,-0.01464,0.02928,-0.0244,0.02928
0.00976,-0.0366,0.06344,0.05856,0.05368,-0.02196,0.06344,-0.03416,-0.01464,0.02928,-0.0244,0.02928
-0.00976,-0.02196,0.05368,0.05856,0.06344,-0.0366,0.06832,-0.03416,-0.02928,0.0244,-0.02928,0.01952
-0.01952,-0.0122,0.04392,0.05368,0.06344,-0.04148,0.0732,-0.03904,-0.02928,0.01464,-0.03904,0.01464
-0.0244,-0.00732,0.03904,0.05124,0.06344,-0.04392,0.07808,-0.04392,-0.03416,0.00976,-0.04392,0.00976
-0.03416,-0.00488,0.04392,0.061,0.07808,-0.05612,0.07808,-0.05368,-0.04392,0,-0.0488,0.00488
-0.03416,-0.00244,0.03904,0.05612,0.0732,-0.05368,0.07808,-0.05368,-0.0488,-0.00488,-0.05856,-0.00488
-0.03416,0.00244,0.02928,0.04636,0.06344,-0.0488,0.0732,-0.05368,-0.0488,-0.00488,-0.05856,-0.00488
-0.03904,0.00976,0.01952,0.03904,0.05856,-0.0488,0.06832,-0.05368,-0.0488,-0.00488,-0.06344,-0.00488
-0.03904,0.00732,0.0244,0.04392,0.06344,-0.05124,0.06832,-0.05368,-0.0488,-0.00488,-0.06344,-0.00488
-0.03904,0.00732,0.0244,0.04392,0.06344,-0.05124,0.06832,-0.05368,-0.0488,-0.00488,-0.06344,-0.00488
-0.03904,0.00976,0.01952,0.03904,0.05856,-0.0488,0.06832,-0.05368,-0.0488,-0.00976,-0.06344,-0.00976
-0.03904,0.0122,0.01464,0.03416,0.05368,-0.04636,0.06832,-0.05368,-0.0488,-0.00976,-0.06832,-0.01464
-0.05368,0.01952,0.01464,0.04148,0.06832,-0.061,0.0732,-0.0488,-0.0488,-0.00976,-0.06832,-0.01464
-0.06344,0.0244,0.01464,0.04636,0.07808,-0.07076,0.07808,-0.0488,-0.05368,-0.00976,-0.0732,-0.01952
-0.04392,0.00732,0.02928,0.05124,0.0732,-0.05856,0.08296,-0.0488,-0.05368,-0.00976,-0.06832,-0.01464
-0.02928,-0.00488,0.03904,0.05368,0.06832,-0.0488,0.08784,-0.0488,-0.0488,-0.00488,-0.06344,-0.00488
-0.03904,0.00732,0.0244,0.04392,0.06344,-0.05124,0.08784,-0.05368,-0.04392,-0.00488,-0.05856,-0.00488
-0.0488,0.01464,0.01952,0.04392,0.06832,-0.05856,0.09272,-0.05368,-0.04392,0,-0.05856,0
-0.0488,0.01464,0.01952,0.04392,0.06832,-0.05856,0.08784,-0.05368,-0.04392,0,-0.05368,0
-0.0488,0.01464,0.01952,0.04392,0.06832,-0.05856,0.08296,-0.05368,-0.04392,0,-0.05368,0
-0.04392,0.00732,0.02928,0.05124,0.0732,-0.05856,0.08296,-0.05368,-0.04392,0,-0.05368,0
-0.03904,0,0.03904,0.05856,0.07808,-0.05856,0.08296,-0.05368,-0.04392,0,-0.05368,0
-0.03416,-0.00244,0.03904,0.05612,0.0732,-0.05368,0.08296,-0.04392,-0.04392,0,-0.05368,0.00488
-0.03416,-0.00244,0.03904,0.05612,0.0732,-0.05368,0.08296,-0.03904,-0.03904,0,-0.0488,0.00976
-0.0244,-0.00488,0.03416,0.04636,0.05856,-0.04148,0.08784,-0.03416,-0.03904,0.00488,-0.0488,0.01464
-0.01464,-0.00976,0.03416,0.04148,0.0488,-0.03172,0.09272,-0.03416,-0.03904,0.00976,-0.0488,0.01464
-0.02928,0.00732,0.01464,0.02928,0.04392,-0.0366,0.0976,-0.02928,-0.03416,0,-0.05856,0.00976
-0.04392,0.0244,-0.00488,0.01708,0.03904,-0.04148,0.10248,-0.0244,-0.03416,-0.00976,-0.06832,0.00488
-0.05368,0.0244,0.00488,0.03172,0.05856,-0.05612,0.11712,0,-0.0244,0,-0.06344,0
-0.05368,0.01464,0.0244,0.05124,0.07808,-0.06588,0.13664,0.0488,-0.01952,0.00488,-0.06344,0
-0.03904,0.00732,0.0244,0.04392,0.06344,-0.05124,0.18056,0.122,0.01464,0.02928,-0.0488,0
0.00488,-0.02684,0.0488,0.04636,0.04392,-0.01952,0.20496,0.21472,0.0732,0.08296,-0.01952,0.0244
0.13176,-0.10004,0.06832,0.00244,-0.06344,0.0976,0.16592,0.21472,0.10248,0.122,0.00488,0.03904
0.33672,-0.2196,0.10248,-0.06588,-0.23424,0.28548,0.03416,0.1464,0.12688,0.18056,0.06344,0.07808
0.5612,-0.366,0.1708,-0.1098,-0.3904,0.4758,-0.1464,0.0488,0.16592,0.28792,0.17568,0.17568
0.78568,-0.5124,0.23912,-0.15372,-0.54656,0.66612,-0.3172,-0.06832,0.21472,0.39528,0.2928,0.28304
0.79544,-0.53192,0.2684,-0.12932,-0.52704,0.66124,-0.40016,-0.22448,0.15128,0.35624,0.28792,0.29768
0.60024,-0.40016,0.20008,-0.10004,-0.40016,0.5002,-0.38064,-0.46848,-0.04392,0.16104,0.122,0.17568
0.37088,-0.21228,0.05368,-0.13176,-0.3172,0.34404,-0.31232,-0.6588,-0.2684,-0.10736,-0.11712,-0.0244
0.08296,-0.07808,0.0732,0.03172,-0.00976,0.04636,-0.22936,-0.7076,-0.27816,-0.13664,-0.10736,0.00488
-0.03416,-0.03172,0.0976,0.11468,0.13176,-0.08296,-0.16592,-0.6344,-0.25864,-0.122,-0.08784,0.01464
-0.08296,-0.01708,0.11712,0.1586,0.20008,-0.14152,-0.0976,-0.49288,-0.18056,-0.06344,-0.03904,0.0488
-0.10248,-0.0122,0.12688,0.17812,0.22936,-0.16592,-0.04392,-0.34648,-0.10248,-0.01464,-0.00976,0.06344
-0.07808,-0.02684,0.13176,0.1708,0.20984,-0.14396,-0.00488,-0.22448,-0.05856,0.01464,-0.00976,0.05856
-0.05856,-0.02928,0.11712,0.1464,0.17568,-0.11712,0.03904,-0.15128,-0.03416,0.01952,-0.00976,0.05856
-0.03416,-0.02928,0.09272,0.1098,0.12688,-0.08052,0.06832,-0.10736,-0.0244,0.02928,-0.00976,0.05368
-0.0244,-0.02928,0.08296,0.09516,0.10736,-0.06588,0.08296,-0.0732,-0.01952,0.03416,-0.00976,0.0488
-0.0244,-0.02196,0.06832,0.08052,0.09272,-0.05856,0.10248,-0.0488,-0.01952,0.03416,-0.01464,0.03904
-0.02928,-0.00976,0.0488,0.06344,0.07808,-0.05368,0.10736,-0.02928,-0.01464,0.02928,-0.01952,0.03904
-0.03416,-0.00488,0.04392,0.061,0.07808,-0.05612,0.11224,-0.0244,-0.00976,0.0244,-0.01952,0.03416
-0.03416,-0.00488,0.04392,0.061,0.07808,-0.05612,0.10736,-0.01952,-0.00488,0.01952,-0.01952,0.03416
-0.02928,-0.00732,0.04392,0.05856,0.0732,-0.05124,0.10736,-0.01464,-0.00488,0.01952,-0.01952,0.0244
-0.0244,-0.00976,0.04392,0.05612,0.06832,-0.04636,0.10736,-0.00488,-0.00488,0.0244,-0.01952,0.0244
-0.01952,-0.0122,0.04392,0.05368,0.06344,-0.04148,0.11224,-0.00488,-0.00488,0.0244,-0.0244,0.02928
-0.01952,-0.00976,0.03904,0.0488,0.05856,-0.03904,0.11224,0,-0.00488,0.0244,-0.0244,0.02928
-0.01952,-0.00488,0.02928,0.03904,0.0488,-0.03416,0.11224,0,-0.00488,0.02928,-0.0244,0.02928
-0.0244,-0.00244,0.02928,0.04148,0.05368,-0.03904,0.10736,0,-0.00488,0.02928,-0.0244,0.02928
-0.02928,-0.00244,0.03416,0.0488,0.06344,-0.04636,0.10736,0,0,0.02928,-0.0244,0.02928
-0.03416,0,0.03416,0.05124,0.06832,-0.05124,0.10736,0,0,0.02928,-0.01952,0.02928
-0.03904,0.00244,0.03416,0.05368,0.0732,-0.05612,0.10736,0,0,0.02928,-0.01952,0.02928
-0.03904,0.00488,0.02928,0.0488,0.06832,-0.05368,0.10736,0.00976,-0.00976,0.0244,-0.0244,0.02928
-0.03416,0.00488,0.0244,0.04148,0.05856,-0.04636,0.10736,0.01952,-0.01464,0.0244,-0.0244,0.02928
-0.0244,-0.00488,0.03416,0.04636,0.05856,-0.04148,0.10736,0.0244,-0.00976,0.02928,-0.0244,0.02928
-0.01464,-0.01464,0.04392,0.05124,0.05856,-0.0366,0.10736,0.0244,-0.00976,0.02928,-0.0244,0.02928
-0.01464,-0.0122,0.03904,0.04636,0.05368,-0.03416,0.11224,0.0244,-0.00976,0.02928,-0.0244,0.02928
-0.00976,-0.01464,0.03904,0.04392,0.0488,-0.02928,0.11712,0.02928,-0.00976,0.02928,-0.01952,0.02928
-0.00976,-0.01708,0.04392,0.0488,0.05368,-0.03172,0.11712,0.03416,-0.00976,0.02928,-0.01952,0.03416
-0.00976,-0.01708,0.04392,0.0488,0.05368,-0.03172,0.122,0.03904,-0.00488,0.03416,-0.01952,0.03416
0,-0.02928,0.05856,0.05856,0.05856,-0.02928,0.122,0.03904,0,0.03904,-0.01464,0.03416
0,-0.03172,0.06344,0.06344,0.06344,-0.03172,0.122,0.04392,0.00976,0.04392,-0.00488,0.03416
0,-0.02928,0.05856,0.05856,0.05856,-0.02928,0.122,0.05368,0.01464,0.0488,-0.00488,0.04392
0,-0.02928,0.05856,0.05856,0.05856,-0.02928,0.122,0.05368,0.01464,0.05368,0,0.04392
0.00488,-0.02928,0.05368,0.05124,0.0488,-0.02196,0.122,0.05368,0.01464,0.0488,0,0.04392
0.00488,-0.02196,0.03904,0.0366,0.03416,-0.01464,0.122,0.06344,0.01952,0.04392,0.00488,0.04392
0.00488,-0.02928,0.05368,0.05124,0.0488,-0.02196,0.12688,0.06344,0.02928,0.05368,0.00976,0.0488
0.01464,-0.04636,0.07808,0.07076,0.06344,-0.0244,0.12688,0.06832,0.02928,0.06832,0.00976,0.05368
0.01952,-0.05124,0.08296,0.0732,0.06344,-0.02196,0.12688,0.0732,0.02928,0.06832,0.01464,0.05856
0.01952,-0.05124,0.08296,0.0732,0.06344,-0.02196,0.13176,0.07808,0.03416,0.08296,0.01464,0.05856
0.01952,-0.05124,0.08296,0.0732,0.06344,-0.02196,0.13176,0.08296,0.03904,0.08296,0.01952,0.05856
0.01952,-0.05124,0.08296,0.0732,0.06344,-0.02196,0.13176,0.09272,0.04392,0.08296,0.01952,0.06344
0.02928,-0.05856,0.08784,0.0732,0.05856,-0.01464,0.13176,0.10248,0.0488,0.08296,0.0244,0.06344
0.03416,-0.06344,0.09272,0.07564,0.05856,-0.0122,0.13664,0.10736,0.0488,0.08296,0.02928,0.06832
0.03904,-0.06588,0.09272,0.0732,0.05368,-0.00732,0.13664,0.11712,0.06344,0.08784,0.03416,0.07808
0.04392,-0.06588,0.08784,0.06588,0.04392,0,0.13664,0.12688,0.06832,0.09272,0.03904,0.08296
0.04392,-0.06588,0.08784,0.06588,0.04392,0,0.13664,0.13176,0.0732,0.09272,0.03904,0.08296
0.04392,-0.06832,0.09272,0.07076,0.0488,-0.00244,0.13664,0.13664,0.07808,0.10248,0.03904,0.08296
0.0488,-0.07076,0.09272,0.06832,0.04392,0.00244,0.13664,0.15128,0.08784,0.10736,0.04392,0.08784
0.05856,-0.07808,0.0976,0.06832,0.03904,0.00976,0.13664,0.16592,0.0976,0.10736,0.04392,0.09272
0.05856,-0.07808,0.0976,0.06832,0.03904,0.00976,0.13176,0.1708,0.0976,0.10736,0.0488,0.09272
0.06344,-0.08052,0.0976,0.06588,0.03416,0.01464,0.13176,0.1708,0.10248,0.11712,0.05368,0.0976
0.0732,-0.08784,0.10248,0.06588,0.02928,0.02196,0.13664,0.18544,0.10736,0.12688,0.05856,0.10248
0.07808,-0.09028,0.10248,0.06344,0.0244,0.02684,0.13664,0.1952,0.11224,0.12688,0.06832,0.10248
0.08296,-0.09516,0.10736,0.06588,0.0244,0.02928,0.13664,0.20008,0.122,0.13664,0.0732,0.10736
0.08296,-0.0976,0.11224,0.07076,0.02928,0.02684,0.13176,0.1952,0.122,0.13664,0.07808,0.10736
0.08784,-0.10248,0.11712,0.0732,0.02928,0.02928,0.13176,0.20496,0.12688,0.14152,0.07808,0.10736
0.09272,-0.10736,0.122,0.07564,0.02928,0.03172,0.13176,0.20496,0.13176,0.1464,0.08296,0.11224
0.10248,-0.11224,0.122,0.07076,0.01952,0.04148,0.12688,0.20984,0.13664,0.1464,0.08784,0.11712
0.10248,-0.11468,0.12688,0.07564,0.0244,0.03904,0.122,0.21472,0.13664,0.1464,0.08784,0.11712
0.11224,-0.122,0.13176,0.07564,0.01952,0.04636,0.122,0.2196,0.13176,0.15128,0.08784,0.11712
0.122,-0.12688,0.13176,0.07076,0.00976,0.05612,0.11712,0.2196,0.13176,0.15616,0.09272,0.122
0.12688,-0.12932,0.13176,0.06832,0.00488,0.061,0.11712,0.20984,0.13176,0.15616,0.09272,0.12688
0.13176,-0.1342,0.13664,0.07076,0.00488,0.06344,0.10736,0.20008,0.13176,0.16104,0.0976,0.12688
0.14152,-0.13908,0.13664,0.06588,-0.00488,0.0732,0.10248,0.19032,0.12688,0.16104,0.0976,0.12688
0.14152,-0.13908,0.13664,0.06588,-0.00488,0.0732,0.0976,0.18056,0.12688,0.15616,0.10248,0.13176
0.13176,-0.13176,0.13176,0.06588,0,0.06588,0.09272,0.16104,0.122,0.15128,0.10248,0.13176
0.122,-0.12932,0.13664,0.07564,0.01464,0.05368,0.09272,0.1464,0.11224,0.1464,0.0976,0.13176
0.10736,-0.11468,0.122,0.06832,0.01464,0.04636,0.08784,0.12688,0.10248,0.14152,0.08784,0.13176
0.0976,-0.10492,0.11224,0.06344,0.01464,0.04148,0.08784,0.11224,0.0976,0.13176,0.08784,0.122
0.08296,-0.09272,0.10248,0.061,0.01952,0.03172,0.08784,0.09272,0.09272,0.11712,0.0732,0.11712
0.06344,-0.07808,0.09272,0.061,0.02928,0.01708,0.08784,0.06832,0.0732,0.10248,0.05856,0.10736
0.05368,-0.0732,0.09272,0.06588,0.03904,0.00732,0.08296,0.05368,0.05856,0.08784,0.0488,0.0976
0.03904,-0.06588,0.09272,0.0732,0.05368,-0.00732,0.08296,0.03904,0.0488,0.07808,0.03904,0.08784
0.02928,-0.05124,0.0732,0.05856,0.04392,-0.00732,0.08296,0.02928,0.03904,0.06344,0.02928,0.0732
0.01952,-0.04392,0.06832,0.05856,0.0488,-0.01464,0.08296,0.01464,0.02928,0.05368,0.01952,0.06344
0.01952,-0.04392,0.06832,0.05856,0.0488,-0.01464,0.08296,0.00976,0.01952,0.0488,0.01464,0.05856
0.00976,-0.0366,0.06344,0.05856,0.05368,-0.02196,0.08296,0.01464,0.00976,0.0488,0.00976,0.05368
0.01464,-0.04392,0.0732,0.06588,0.05856,-0.02196,0.08784,0.00488,0,0.03416,0.00976,0.05368
0.01952,-0.0488,0.07808,0.06832,0.05856,-0.01952,0.08784,0,0,0.02928,0.00976,0.05856
0.01952,-0.04636,0.0732,0.06344,0.05368,-0.01708,0.09272,-0.00976,-0.00488,0.0244,0.00488,0.05368
0.00488,-0.0366,0.06832,0.06588,0.06344,-0.02928,0.09272,-0.00976,-0.00488,0.0244,0.00488,0.05368
-0.00976,-0.0244,0.05856,0.06344,0.06832,-0.03904,0.08784,-0.00976,-0.00976,0.0244,0,0.05368
-0.0244,-0.0122,0.0488,0.061,0.0732,-0.0488,0.07808,-0.01464,-0.01464,0.01952,0,0.0488
-0.01464,-0.01708,0.0488,0.05612,0.06344,-0.03904,0.07808,-0.01952,-0.01952,0.01464,0,0.04392
-0.01464,-0.0122,0.03904,0.04636,0.05368,-0.03416,0.07808,-0.01952,-0.01952,0.01464,-0.00976,0.04392
-0.01464,-0.00976,0.03416,0.04148,0.0488,-0.03172,0.07808,-0.01952,-0.01952,0.00976,-0.00976,0.03904
-0.01464,-0.00732,0.02928,0.0366,0.04392,-0.02928,0.08296,-0.01952,-0.01952,0.00976,-0.00976,0.03904
-0.01952,-0.00244,0.0244,0.03416,0.04392,-0.03172,0.08296,-0.01952,-0.02928,0.00488,-0.00976,0.03904
-0.01952,-0.00244,0.0244,0.03416,0.04392,-0.03172,0.08296,-0.01952,-0.03904,0,-0.00976,0.03904
-0.01952,-0.00244,0.0244,0.03416,0.04392,-0.03172,0.08784,-0.01952,-0.02928,0,-0.00976,0.03904
-0.01952,-0.00244,0.0244,0.03416,0.04392,-0.03172,0.09272,-0.01952,-0.01952,0,-0.00976,0.03904
-0.01464,-0.00976,0.03416,0.04148,0.0488,-0.03172,0.09272,-0.01952,-0.01952,0.00976,-0.00976,0.03904
-0.00488,-0.01708,0.03904,0.04148,0.04392,-0.0244,0.09272,-0.01952,-0.01952,0.01464,-0.00976,0.03904
-0.01952,0,0.01952,0.02928,0.03904,-0.02928,0.08784,-0.0244,-0.0244,0,-0.01464,0.03416
-0.03416,0.01464,0.00488,0.02196,0.03904,-0.0366,0.08784,-0.02928,-0.0244,-0.01464,-0.01952,0.03416
-0.02928,0.00244,0.0244,0.03904,0.05368,-0.04148,0.08784,-0.02928,-0.01952,-0.00488,-0.01952,0.03904
-0.0244,-0.00488,0.03416,0.04636,0.05856,-0.04148,0.08784,-0.02928,-0.01464,0.00488,-0.01952,0.04392
-0.01464,-0.0122,0.03904,0.04636,0.05368,-0.03416,0.08784,-0.0244,-0.01464,0.00488,-0.00976,0.04392
-0.00488,-0.01952,0.04392,0.04636,0.0488,-0.02684,0.09272,-0.0244,-0.01464,0.00488,-0.00488,0.03904
-0.01464,-0.00732,0.02928,0.0366,0.04392,-0.02928,0.09272,-0.0244,-0.01952,0.00488,-0.01464,0.03904
-0.01952,0,0.01952,0.02928,0.03904,-0.02928,0.09272,-0.0244,-0.0244,0.00488,-0.0244,0.03904
-0.00976,-0.00488,0.01952,0.0244,0.02928,-0.01952,0.09272,-0.0244,-0.0244,0.00488,-0.0244,0.03904
-0.01952,-0.00244,0.0244,0.03416,0.04392,-0.03172,0.09272,-0.0244,-0.0244,0.00488,-0.0244,0.03904
-0.00488,-0.01952,0.04392,0.04636,0.0488,-0.02684,0.0976,-0.0244,-0.0244,0.00488,-0.01952,0.03904
0.00976,-0.03416,0.05856,0.05368,0.0488,-0.01952,0.0976,-0.0244,-0.0244,0,-0.01464,0.03416
0,-0.02196,0.04392,0.04392,0.04392,-0.02196,0.0976,-0.02928,-0.0244,0,-0.01952,0.03904
-0.00976,-0.0122,0.03416,0.03904,0.04392,-0.02684,0.08784,-0.02928,-0.02928,0,-0.01952,0.04392
-0.01464,-0.00488,0.0244,0.03172,0.03904,-0.02684,0.08784,-0.02928,-0.02928,-0.00488,-0.01952,0.03904
-0.0244,0.00244,0.01952,0.03172,0.04392,-0.03416,0.08784,-0.03416,-0.03416,-0.00976,-0.01952,0.03904
-0.0244,0.00244,0.01952,0.03172,0.04392,-0.03416,0.08784,-0.03416,-0.03416,-0.00976,-0.0244,0.03416
-0.0244,0.00244,0.01952,0.03172,0.04392,-0.03416,0.08784,-0.03416,-0.03416,-0.00976,-0.0244,0.03416
-0.02928,0.00732,0.01464,0.02928,0.04392,-0.0366,0.09272,-0.03416,-0.03416,-0.01464,-0.01952,0.03416
-0.03416,0.01464,0.00488,0.02196,0.03904,-0.0366,0.09272,-0.03416,-0.03904,-0.01952,-0.01952,0.02928
-0.03416,0.01464,0.00488,0.02196,0.03904,-0.0366,0.08784,-0.03416,-0.03904,-0.01952,-0.0244,0.02928
-0.03416,0.01708,0,0.01708,0.03416,-0.03416,0.07808,-0.04392,-0.03904,-0.01952,-0.0244,0.03416
-0.0244,0.00732,0.00976,0.02196,0.03416,-0.02928,0.0732,-0.04392,-0.03904,-0.01464,-0.0244,0.03904
-0.01464,-0.00488,0.0244,0.03172,0.03904,-0.02684,0.0732,-0.04392,-0.03416,-0.00976,-0.01952,0.03416
-0.01464,-0.00488,0.0244,0.03172,0.03904,-0.02684,0.0732,-0.04392,-0.03416,-0.00976,-0.01952,0.03416
-0.01464,-0.00244,0.01952,0.02684,0.03416,-0.0244,0.0732,-0.04392,-0.03416,-0.00976,-0.01952,0.03416
-0.01464,-0.00244,0.01952,0.02684,0.03416,-0.0244,0.0732,-0.04392,-0.03416,-0.01952,-0.0244,0.03416
-0.01952,0,0.01952,0.02928,0.03904,-0.02928,0.0732,-0.04392,-0.03416,-0.03416,-0.02928,0.03416
-0.01952,0,0.01952,0.02928,0.03904,-0.02928,0.0732,-0.04392,-0.03904,-0.0244,-0.02928,0.03416
-0.01464,0,0.01464,0.02196,0.02928,-0.02196,0.0732,-0.04392,-0.03904,-0.01464,-0.02928,0.03416
-0.01952,0.00732,0.00488,0.01464,0.0244,-0.02196,0.0732,-0.0488,-0.03904,-0.01952,-0.02928,0.02928
-0.0244,0.0122,0,0.0122,0.0244,-0.0244,0.06832,-0.0488,-0.03904,-0.01952,-0.02928,0.0244
-0.01952,0.00976,0,0.00976,0.01952,-0.01952,0.06344,-0.0488,-0.04392,-0.0244,-0.02928,0.0244
-0.01952,0.00976,0,0.00976,0.01952,-0.01952,0.06344,-0.0488,-0.0488,-0.03416,-0.02928,0.0244
-0.0244,0.0122,0,0.0122,0.0244,-0.0244,0.06832,-0.04392,-0.04392,-0.02928,-0.02928,0.0244
-0.02928,0.00732,0.01464,0.02928,0.04392,-0.0366,0.0732,-0.03904,-0.03904,-0.0244,-0.01952,0.02928
-0.02928,0.00244,0.0244,0.03904,0.05368,-0.04148,0.0732,-0.03416,-0.0244,-0.00976,-0.00488,0.03904
-0.02928,-0.00488,0.03904,0.05368,0.06832,-0.0488,0.07808,-0.02928,-0.00976,0,0.00976,0.0488
-0.01464,-0.02196,0.05856,0.06588,0.0732,-0.04392,0.07808,-0.01464,0,0.00976,0.01952,0.05856
0,-0.03904,0.07808,0.07808,0.07808,-0.03904,0.07808,0,0.00976,0.01952,0.02928,0.06832
0,-0.04392,0.08784,0.08784,0.08784,-0.04392,0.07808,0.00488,0.00976,0.02928,0.03416,0.07808
0.00488,-0.0488,0.09272,0.09028,0.08784,-0.04148,0.0732,0.00488,0.00976,0.03416,0.03416,0.08296
0.00976,-0.05368,0.0976,0.09272,0.08784,-0.03904,0.0732,0.00976,0.01464,0.03904,0.03904,0.08784
0.00976,-0.05368,0.0976,0.09272,0.08784,-0.03904,0.06344,0,0.01464,0.03416,0.03904,0.08784
0.00488,-0.0488,0.09272,0.09028,0.08784,-0.04148,0.05856,0,0.01464,0.02928,0.03904,0.08784
0.00488,-0.0488,0.09272,0.09028,0.08784,-0.04148,0.0488,-0.00976,0.00976,0.0244,0.03904,0.08784
-0.00488,-0.04148,0.08784,0.09028,0.09272,-0.0488,0.03904,-0.0244,0,0.01952,0.03416,0.08784
0,-0.03416,0.06832,0.06832,0.06832,-0.03416,0.03416,-0.03416,-0.00488,0.00976,0.0244,0.07808
0.03904,-0.05124,0.06344,0.04392,0.0244,0.00732,0.03416,-0.03904,-0.00488,0.01464,0.0244,0.0732
0.05856,-0.05612,0.05368,0.0244,-0.00488,0.03172,0.03416,-0.0488,-0.01952,0.00488,0.01464,0.06344
0.05368,-0.05124,0.0488,0.02196,-0.00488,0.02928,0.03416,-0.06344,-0.02928,-0.00488,0.00976,0.06344
0.03904,-0.04148,0.04392,0.0244,0.00488,0.01708,0.03416,-0.06832,-0.03904,-0.01464,0,0.05856
0.00488,-0.00732,0.00976,0.00732,0.00488,0,0.03416,-0.06832,-0.04392,-0.01952,-0.00976,0.04392
-0.0244,0.01952,-0.01464,-0.00244,0.00976,-0.01708,0.03904,-0.05856,-0.03416,-0.01952,-0.01464,0.03904
-0.01464,0.00976,-0.00488,0.00244,0.00976,-0.0122,0.04392,-0.05368,-0.03416,-0.01952,-0.01464,0.03904
-0.01952,0.0122,-0.00488,0.00488,0.01464,-0.01708,0.0488,-0.05368,-0.0488,-0.0244,-0.01952,0.02928
-0.0244,0.01464,-0.00488,0.00732,0.01952,-0.02196,0.05368,-0.05856,-0.0488,-0.03416,-0.02928,0.0244
-0.0244,0.0122,0,0.0122,0.0244,-0.0244,0.05856,-0.06344,-0.05368,-0.03904,-0.03416,0.01952
-0.03416,0.01952,-0.00488,0.0122,0.02928,-0.03172,0.05368,-0.07808,-0.06344,-0.0488,-0.03904,0.00976
-0.03416,0.02684,-0.01952,-0.00244,0.01464,-0.0244,0.0488,-0.08296,-0.06832,-0.05368,-0.0488,-0.00488
-0.0488,0.04148,-0.03416,-0.00976,0.01464,-0.03172,0.0488,-0.08296,-0.07808,-0.06344,-0.0488,-0.00488
-0.06832,0.05856,-0.0488,-0.01464,0.01952,-0.04392,0.0488,-0.08296,-0.08784,-0.0732,-0.05368,-0.00488
-0.05368,0.04392,-0.03416,-0.00732,0.01952,-0.0366,0.0488,-0.08296,-0.08784,-0.0732,-0.05368,-0.00488
-0.03904,0.03172,-0.0244,-0.00488,0.01464,-0.02684,0.0488,-0.08296,-0.08784,-0.0732,-0.05368,-0.00488
-0.03904,0.03172,-0.0244,-0.00488,0.01464,-0.02684,0.0488,-0.08296,-0.08784,-0.07808,-0.0488,-0.00488
-0.03904,0.03172,-0.0244,-0.00488,0.01464,-0.02684,0.0488,-0.08296,-0.08784,-0.07808,-0.0488,-0.00488
-0.05368,0.04392,-0.03416,-0.00732,0.01952,-0.0366,0.05368,-0.07808,-0.08784,-0.07808,-0.0488,-0.00488
-0.06344,0.05368,-0.04392,-0.0122,0.01952,-0.04148,0.05856,-0.07808,-0.09272,-0.07808,-0.05368,-0.00976
-0.0488,0.04148,-0.03416,-0.00976,0.01464,-0.03172,0.05856,-0.07808,-0.09272,-0.07808,-0.05368,-0.00976
-0.03904,0.03416,-0.02928,-0.00976,0.00976,-0.0244,0.05856,-0.07808,-0.08784,-0.0732,-0.05368,-0.00488
-0.03904,0.03416,-0.02928,-0.00976,0.00976,-0.0244,0.05856,-0.07808,-0.07808,-0.0732,-0.0488,-0.00488
-0.03904,0.02928,-0.01952,0,0.01952,-0.02928,0.06344,-0.0732,-0.0732,-0.06832,-0.0488,0
-0.03904,0.02928,-0.01952,0,0.01952,-0.02928,0.05856,-0.0732,-0.0732,-0.06832,-0.04392,0
-0.03904,0.02928,-0.01952,0,0.01952,-0.02928,0.05368,-0.0732,-0.0732,-0.06832,-0.04392,0
-0.0488,0.03416,-0.01952,0.00488,0.02928,-0.03904,0.05368,-0.0732,-0.0732,-0.06832,-0.04392,0
-0.05856,0.03904,-0.01952,0.00976,0.03904,-0.0488,0.05368,-0.0732,-0.0732,-0.06832,-0.04392,0
-0.03904,0.02928,-0.01952,0,0.01952,-0.02928,0.05368,-0.06832,-0.0732,-0.06832,-0.04392,0
-0.0244,0.02196,-0.01952,-0.00732,0.00488,-0.01464,0.05368,-0.06832,-0.06832,-0.06832,-0.03904,0
-0.03904,0.03416,-0.02928,-0.00976,0.00976,-0.0244,0.0488,-0.06832,-0.06832,-0.06344,-0.03904,0.00488
-0.05368,0.04392,-0.03416,-0.00732,0.01952,-0.0366,0.04392,-0.0732,-0.06832,-0.05856,-0.03904,0.00488
-0.05856,0.04636,-0.03416,-0.00488,0.0244,-0.04148,0.0488,-0.06832,-0.06832,-0.05856,-0.03904,0.00488
-0.06344,0.0488,-0.03416,-0.00244,0.02928,-0.04636,0.05368,-0.06344,-0.0732,-0.05856,-0.03904,0.00488
-0.0732,0.05856,-0.04392,-0.00732,0.02928,-0.05124,0.06832,-0.0488,-0.06832,-0.06344,-0.04392,0
-0.0732,0.05856,-0.04392,-0.00732,0.02928,-0.05124,0.08784,-0.00976,-0.06832,-0.0732,-0.05368,0
-0.08296,0.05856,-0.03416,0.00732,0.0488,-0.06588,0.14152,0.06832,-0.0244,-0.04392,-0.02928,0.00488
-0.06344,0.03172,0,0.03172,0.06344,-0.06344,0.17568,0.16592,0.04392,0.01464,0.00976,0.03416
0.01464,-0.01708,0.01952,0.0122,0.00488,0.00488,0.18056,0.21472,0.0976,0.06832,0.03904,0.05368
0.1708,-0.11224,0.05368,-0.03172,-0.11712,0.14396,0.09272,0.1952,0.1464,0.14152,0.10248,0.0976
0.42456,-0.2806,0.13664,-0.07564,-0.28792,0.35624,-0.10736,0.15128,0.22936,0.30256,0.24888,0.22448
0.67832,-0.44896,0.2196,-0.11956,-0.45872,0.56852,-0.29768,0.08784,0.32208,0.4636,0.40016,0.36112
0.79056,-0.5246,0.25864,-0.13664,-0.53192,0.66124,-0.42944,-0.06832,0.27328,0.45872,0.43432,0.40016
0.69784,-0.44896,0.20008,-0.14884,-0.49776,0.5978,-0.45872,-0.31232,0.09272,0.29768,0.30744,0.30256
0.47824,-0.244,0.00976,-0.22936,-0.46848,0.47336,-0.40992,-0.60512,-0.244,-0.08296,-0.02928,0.01952
0.20008,-0.09272,-0.01464,-0.11468,-0.21472,0.2074,-0.34648,-0.7564,-0.366,-0.22448,-0.11712,-0.03416
0.02928,-0.01952,0.00976,-0.00488,-0.01952,0.0244,-0.28304,-0.70272,-0.3416,-0.20984,-0.0976,-0.01464
-0.0732,0.02196,0.02928,0.06588,0.10248,-0.08784,-0.21472,-0.58072,-0.25864,-0.15128,-0.0488,0.02928
-0.10248,0.02196,0.05856,0.1098,0.16104,-0.13176,-0.1464,-0.41968,-0.15616,-0.08784,0,0.05368
-0.08784,0.00244,0.08296,0.12688,0.1708,-0.12932,-0.09272,-0.28304,-0.08784,-0.04392,0.01952,0.05856
-0.06832,-0.00244,0.0732,0.10736,0.14152,-0.10492,-0.0488,-0.1952,-0.06344,-0.03904,0.01952,0.05856
-0.04392,-0.00488,0.05368,0.07564,0.0976,-0.07076,-0.01952,-0.13664,-0.05368,-0.02928,0.01952,0.05368
-0.03416,-0.00488,0.04392,0.061,0.07808,-0.05612,0,-0.0976,-0.04392,-0.0244,0.01952,0.0488
-0.03416,0.00244,0.02928,0.04636,0.06344,-0.0488,0.0244,-0.06832,-0.03904,-0.0244,0.01464,0.03904
-0.03904,0.01952,0,0.01952,0.03904,-0.03904,0.03416,-0.04392,-0.03416,-0.02928,0.00488,0.03904
-0.04392,0.02928,-0.01464,0.00732,0.02928,-0.0366,0.04392,-0.03416,-0.02928,-0.03416,0,0.03416
-0.04392,0.02928,-0.01464,0.00732,0.02928,-0.0366,0.03904,-0.02928,-0.0244,-0.03904,0,0.03416
-0.03904,0.02684,-0.01464,0.00488,0.0244,-0.03172,0.03904,-0.0244,-0.0244,-0.03904,0,0.0244
-0.03904,0.02684,-0.01464,0.00488,0.0244,-0.03172,0.03904,-0.01464,-0.0244,-0.03416,0,0.0244
-0.03904,0.02684,-0.01464,0.00488,0.0244,-0.03172,0.04392,-0.01464,-0.0244,-0.03416,-0.00488,0.02928
-0.02928,0.01708,-0.00488,0.00976,0.0244,-0.02684,0.04392,-0.00976,-0.02928,-0.03416,-0.00488,0.0244
-0.01952,0.00976,0,0.00976,0.01952,-0.01952,0.04392,-0.00976,-0.03416,-0.02928,-0.00488,0.01952
-0.02928,0.01952,-0.00976,0.00488,0.01952,-0.0244,0.04392,-0.00488,-0.03416,-0.02928,-0.00488,0.01952
-0.03904,0.02684,-0.01464,0.00488,0.0244,-0.03172,0.0488,0,-0.02928,-0.02928,-0.00488,0.01952
-0.03904,0.02684,-0.01464,0.00488,0.0244,-0.03172,0.0488,0,-0.02928,-0.02928,0,0.01952
-0.03904,0.02684,-0.01464,0.00488,0.0244,-0.03172,0.0488,0,-0.02928,-0.02928,0,0.01952
-0.03904,0.02684,-0.01464,0.00488,0.0244,-0.03172,0.04392,0,-0.02928,-0.02928,0,0.01952
-0.03416,0.0244,-0.01464,0.00244,0.01952,-0.02684,0.03904,0,-0.0244,-0.0244,0.00488,0.01952
-0.03904,0.02684,-0.01464,0.00488,0.0244,-0.03172,0.03904,0.00488,-0.01952,-0.01952,0.00488,0.01952
-0.04392,0.02928,-0.01464,0.00732,0.02928,-0.0366,0.03904,0.00488,-0.01952,-0.01952,0.00488,0.01952
-0.04392,0.02928,-0.01464,0.00732,0.02928,-0.0366,0.03904,0.00488,-0.01952,-0.01952,0.00488,0.01952
-0.03904,0.0244,-0.00976,0.00976,0.02928,-0.03416,0.03904,0.00976,-0.01952,-0.01952,0.00976,0.01952
-0.03416,0.01952,-0.00488,0.0122,0.02928,-0.03172,0.04392,0.01952,-0.01952,-0.01952,0.00976,0.0244
-0.02928,0.01708,-0.00488,0.00976,0.0244,-0.02684,0.05368,0.02928,-0.01464,-0.01464,0.00976,0.0244
-0.01952,0.00488,0.00976,0.01952,0.02928,-0.0244,0.05368,0.02928,-0.01464,-0.01464,0.00976,0.0244
-0.01952,0.00244,0.01464,0.0244,0.03416,-0.02684,0.05368,0.03416,-0.00976,-0.01464,0.01464,0.0244
-0.01952,0.00488,0.00976,0.01952,0.02928,-0.0244,0.05368,0.04392,0,-0.00976,0.01464,0.03416
-0.01952,0.00488,0.00976,0.01952,0.02928,-0.0244,0.05368,0.04392,0.00488,-0.00488,0.01952,0.03416
-0.01464,-0.00244,0.01952,0.02684,0.03416,-0.0244,0.05368,0.04392,0.00488,0,0.01952,0.02928
-0.01464,-0.00244,0.01952,0.02684,0.03416,-0.0244,0.05368,0.05368,0.00976,0.00488,0.0244,0.0244
-0.01464,0.00488,0.00488,0.0122,0.01952,-0.01708,0.05856,0.05368,0.01952,0.00488,0.02928,0.02928
-0.00488,0.00244,0,0.00244,0.00488,-0.00488,0.05856,0.05856,0.01952,0.00976,0.02928,0.03416
0,-0.00976,0.01952,0.01952,0.01952,-0.00976,0.05368,0.06832,0.0244,0.00976,0.03416,0.03904
0,-0.01708,0.03416,0.03416,0.03416,-0.01708,0.05368,0.07808,0.03416,0.0244,0.03416,0.03904
0,-0.01708,0.03416,0.03416,0.03416,-0.01708,0.05368,0.08296,0.03904,0.0244,0.03904,0.03904
0,-0.01708,0.03416,0.03416,0.03416,-0.01708,0.05368,0.09272,0.04392,0.0244,0.03904,0.04392
0.00488,-0.01952,0.03416,0.03172,0.02928,-0.0122,0.05368,0.10248,0.0488,0.02928,0.04392,0.04392
0.00488,-0.01952,0.03416,0.03172,0.02928,-0.0122,0.05856,0.10736,0.0488,0.03416,0.0488,0.0488
0.00976,-0.0244,0.03904,0.03416,0.02928,-0.00976,0.05856,0.11712,0.06344,0.03904,0.05368,0.05368
0.01464,-0.02684,0.03904,0.03172,0.0244,-0.00488,0.05856,0.12688,0.06832,0.04392,0.05856,0.05368
0.01464,-0.02684,0.03904,0.03172,0.0244,-0.00488,0.05856,0.13176,0.06832,0.04392,0.05856,0.05368
0.01464,-0.02928,0.04392,0.0366,0.02928,-0.00732,0.05856,0.13664,0.06832,0.05368,0.05856,0.05368
0.01952,-0.03172,0.04392,0.03416,0.0244,-0.00244,0.05856,0.15128,0.07808,0.05856,0.06832,0.05856
0.02928,-0.03904,0.0488,0.03416,0.01952,0.00488,0.05856,0.16592,0.08784,0.05856,0.0732,0.06344
0.02928,-0.04148,0.05368,0.03904,0.0244,0.00244,0.05368,0.1708,0.09272,0.05856,0.07808,0.06344
0.03416,-0.04636,0.05856,0.04148,0.0244,0.00488,0.05368,0.1708,0.10248,0.06832,0.08296,0.06832
0.04392,-0.05368,0.06344,0.04148,0.01952,0.0122,0.05856,0.18544,0.10736,0.07808,0.08296,0.0732
0.0488,-0.05612,0.06344,0.03904,0.01464,0.01708,0.05856,0.1952,0.11224,0.07808,0.08784,0.0732
0.06832,-0.0732,0.07808,0.04392,0.00976,0.02928,0.05856,0.20984,0.122,0.09272,0.09272,0.07808
0.08296,-0.08784,0.09272,0.05124,0.00976,0.0366,0.05368,0.21472,0.122,0.0976,0.0976,0.07808
0.07808,-0.0854,0.09272,0.05368,0.01464,0.03172,0.05368,0.22448,0.12688,0.10248,0.0976,0.07808
0.0732,-0.08296,0.09272,0.05612,0.01952,0.02684,0.05368,0.22448,0.13176,0.10736,0.10248,0.08296
0.07808,-0.08052,0.08296,0.04392,0.00488,0.0366,0.04392,0.22448,0.13664,0.10248,0.10736,0.08296
0.0732,-0.07564,0.07808,0.04148,0.00488,0.03416,0.03416,0.22448,0.13664,0.0976,0.10736,0.07808
0.07808,-0.08052,0.08296,0.04392,0.00488,0.0366,0.03416,0.22936,0.13664,0.10248,0.10736,0.07808
0.08296,-0.08296,0.08296,0.04148,0,0.04148,0.02928,0.22936,0.14152,0.10736,0.11224,0.08296
0.10248,-0.09516,0.08784,0.0366,-0.01464,0.05856,0.03416,0.22448,0.14152,0.10736,0.11224,0.08784
0.122,-0.1098,0.0976,0.0366,-0.0244,0.0732,0.02928,0.2196,0.14152,0.11224,0.11712,0.08784
0.13176,-0.11468,0.0976,0.03172,-0.03416,0.08296,0.0244,0.20984,0.13664,0.11224,0.11712,0.08784
0.13176,-0.11468,0.0976,0.03172,-0.03416,0.08296,0.01952,0.20008,0.13664,0.10736,0.122,0.09272
0.11712,-0.10248,0.08784,0.02928,-0.02928,0.0732,0.00976,0.18056,0.13176,0.10248,0.122,0.09272
0.10248,-0.09516,0.08784,0.0366,-0.01464,0.05856,0.00488,0.16592,0.122,0.0976,0.11712,0.09272
0.08784,-0.08296,0.07808,0.03416,-0.00976,0.0488,-0.00488,0.14152,0.10736,0.09272,0.10736,0.09272
0.07808,-0.07564,0.0732,0.03416,-0.00488,0.04148,-0.00976,0.122,0.0976,0.08296,0.10736,0.08296
0.06832,-0.06588,0.06344,0.02928,-0.00488,0.0366,-0.00976,0.10736,0.09272,0.0732,0.09272,0.07808
0.05368,-0.05368,0.05368,0.02684,0,0.02684,-0.00976,0.08784,0.0732,0.06344,0.07808,0.06832
0.0488,-0.05124,0.05368,0.02928,0.00488,0.02196,-0.00976,0.06832,0.05856,0.0488,0.06832,0.05368
0.03904,-0.04636,0.05368,0.03416,0.01464,0.0122,-0.00488,0.0488,0.0488,0.03904,0.05856,0.03904
0.02928,-0.03172,0.03416,0.01952,0.00488,0.0122,-0.00488,0.03904,0.03904,0.0244,0.0488,0.02928
0.01952,-0.0244,0.02928,0.01952,0.00976,0.00488,-0.00488,0.0244,0.02928,0.01464,0.03904,0.0244
0.01952,-0.0244,0.02928,0.01952,0.00976,0.00488,-0.00976,0.00976,0.01952,0,0.02928,0.01464
0.00976,-0.01708,0.0244,0.01952,0.01464,-0.00244,-0.01464,0.00488,0.00976,-0.00976,0.01952,0.00488
0,-0.00976,0.01952,0.01952,0.01952,-0.00976,-0.01464,-0.00488,-0.00488,-0.0244,0.01464,-0.00488
-0.00976,0,0.00976,0.01464,0.01952,-0.01464,-0.01952,-0.00976,-0.00976,-0.02928,0.00976,-0.00976
-0.00976,0.00244,0.00488,0.00976,0.01464,-0.0122,-0.01464,-0.01952,-0.01464,-0.03416,0.00488,-0.01464
-0.0244,0.0122,0,0.0122,0.0244,-0.0244,-0.01464,-0.01952,-0.01464,-0.03416,0.00488,-0.01464
-0.01952,0.00976,0,0.00976,0.01952,-0.01952,-0.00976,-0.01464,-0.01464,-0.03416,0,-0.01464
-0.01464,0.00732,0,0.00732,0.01464,-0.01464,-0.00976,-0.01464,-0.01464,-0.03904,0,-0.01952
-0.01464,0.00732,0,0.00732,0.01464,-0.01464,-0.00976,-0.01952,-0.01952,-0.04392,0,-0.0244
-0.0244,0.01708,-0.00976,0.00244,0.01464,-0.01952,-0.00976,-0.01952,-0.01952,-0.04392,-0.00976,-0.0244
-0.0244,0.01708,-0.00976,0.00244,0.01464,-0.01952,-0.00976,-0.01952,-0.0244,-0.0488,-0.00976,-0.0244
-0.0244,0.01708,-0.00976,0.00244,0.01464,-0.01952,-0.00488,-0.01952,-0.02928,-0.0488,-0.00976,-0.01952
-0.01952,0.0122,-0.00488,0.00488,0.01464,-0.01708,-0.00488,-0.01952,-0.02928,-0.0488,-0.00976,-0.01952
-0.00976,0.00244,0.00488,0.00976,0.01464,-0.0122,-0.00488,-0.01952,-0.02928,-0.0488,-0.00976,-0.01952
-0.00976,0.00244,0.00488,0.00976,0.01464,-0.0122,-0.00488,-0.01952,-0.0244,-0.0488,-0.00976,-0.01952
-0.00976,0.00244,0.00488,0.00976,0.01464,-0.0122,-0.00488,-0.01952,-0.01952,-0.0488,-0.00976,-0.01952
-0.0244,0.00976,0.00488,0.01708,0.02928,-0.02684,-0.00488,-0.01952,-0.01952,-0.0488,-0.00976,-0.01952
-0.03416,0.01708,0,0.01708,0.03416,-0.03416,-0.00488,-0.01952,-0.01952,-0.05368,-0.00976,-0.01952
-0.0244,0.01464,-0.00488,0.00732,0.01952,-0.02196,-0.00488,-0.01952,-0.0244,-0.05368,-0.00976,-0.0244
-0.01464,0.00976,-0.00488,0.00244,0.00976,-0.0122,0,-0.01952,-0.0244,-0.05368,-0.00976,-0.0244
-0.01952,0.00976,0,0.00976,0.01952,-0.01952,0,-0.01952,-0.02928,-0.05368,-0.00976,-0.0244
-0.0244,0.01464,-0.00488,0.00732,0.01952,-0.02196,0,-0.01952,-0.03416,-0.05368,-0.00976,-0.0244
-0.0244,0.01708,-0.00976,0.00244,0.01464,-0.01952,-0.00488,-0.01464,-0.03416,-0.05856,-0.00976,-0.0244
-0.0244,0.01952,-0.01464,-0.00244,0.00976,-0.01708,-0.00488,-0.01464,-0.03416,-0.06344,-0.01464,-0.02928
-0.0244,0.01952,-0.01464,-0.00244,0.00976,-0.01708,-0.00488,-0.01464,-0.03416,-0.06344,-0.01464,-0.02928
-0.01952,0.01464,-0.00976,0,0.00976,-0.01464,-0.00488,-0.01464,-0.03416,-0.06344,-0.01464,-0.02928
-0.00976,0.00976,-0.00976,-0.00488,0,-0.00488,-0.00488,-0.01464,-0.02928,-0.05856,-0.01464,-0.02928
-0.01952,0.0122,-0.00488,0.00488,0.01464,-0.01708,-0.00488,-0.01464,-0.0244,-0.05368,-0.01464,-0.02928
-0.01952,0.0122,-0.00488,0.00488,0.01464,-0.01708,0,-0.01464,-0.0244,-0.05368,-0.01464,-0.02928
-0.01952,0.01464,-0.00976,0,0.00976,-0.01464,0,-0.01464,-0.0244,-0.05856,-0.01464,-0.03416
-0.0244,0.01952,-0.01464,-0.00244,0.00976,-0.01708,0,-0.01952,-0.0244,-0.05856,-0.0244,-0.03416
-0.02928,0.02196,-0.01464,0,0.01464,-0.02196,-0.00976,-0.01952,-0.02928,-0.05856,-0.02928,-0.03416
-0.02928,0.02684,-0.0244,-0.00976,0.00488,-0.01708,-0.01464,-0.0244,-0.02928,-0.06344,-0.02928,-0.04392
-0.03416,0.03172,-0.02928,-0.0122,0.00488,-0.01952,-0.01952,-0.03416,-0.03416,-0.06832,-0.02928,-0.0488
-0.03416,0.03172,-0.02928,-0.0122,0.00488,-0.01952,-0.0244,-0.03416,-0.03416,-0.06832,-0.03416,-0.0488
-0.03416,0.03172,-0.02928,-0.0122,0.00488,-0.01952,-0.02928,-0.03416,-0.03416,-0.06832,-0.03416,-0.04392
-0.02928,0.0244,-0.01952,-0.00488,0.00976,-0.01952,-0.0244,-0.02928,-0.03416,-0.06832,-0.02928,-0.04392
-0.0244,0.01952,-0.01464,-0.00244,0.00976,-0.01708,-0.0244,-0.0244,-0.03904,-0.06832,-0.02928,-0.0488
-0.0244,0.01952,-0.01464,-0.00244,0.00976,-0.01708,-0.01952,-0.0244,-0.03904,-0.06832,-0.03416,-0.0488
-0.0244,0.02196,-0.01952,-0.00732,0.00488,-0.01464,-0.01952,-0.03416,-0.03904,-0.06832,-0.03416,-0.04392
-0.03904,0.03416,-0.02928,-0.00976,0.00976,-0.0244,-0.0244,-0.03904,-0.04392,-0.06832,-0.03904,-0.04392
-0.05368,0.04392,-0.03416,-0.00732,0.01952,-0.0366,-0.0244,-0.04392,-0.04392,-0.06832,-0.03904,-0.05368
-0.03904,0.03172,-0.0244,-0.00488,0.01464,-0.02684,-0.0244,-0.04392,-0.04392,-0.06832,-0.03904,-0.05368
-0.0244,0.02196,-0.01952,-0.00732,0.00488,-0.01464,-0.0244,-0.04392,-0.04392,-0.06832,-0.03904,-0.05368
-0.0244,0.02196,-0.01952,-0.00732,0.00488,-0.01464,-0.0244,-0.04392,-0.04392,-0.06832,-0.03904,-0.05368
-0.02928,0.0244,-0.01952,-0.00488,0.00976,-0.01952,-0.0244,-0.04392,-0.04392,-0.0732,-0.03904,-0.05368
-0.0488,0.03904,-0.02928,-0.00488,0.01952,-0.03416,-0.03416,-0.04392,-0.0488,-0.0732,-0.03904,-0.05856
-0.06344,0.05368,-0.04392,-0.0122,0.01952,-0.04148,-0.04392,-0.04392,-0.0488,-0.0732,-0.03904,-0.06344
-0.0488,0.04636,-0.04392,-0.01952,0.00488,-0.02684,-0.03416,-0.0488,-0.0488,-0.07808,-0.03904,-0.06344
-0.03416,0.0366,-0.03904,-0.02196,-0.00488,-0.01464,-0.02928,-0.0488,-0.0488,-0.07808,-0.03904,-0.06344
-0.02928,0.02928,-0.02928,-0.01464,0,-0.01464,-0.03416,-0.0488,-0.0488,-0.0732,-0.03904,-0.06344
-0.02928,0.0244,-0.01952,-0.00488,0.00976,-0.01952,-0.03416,-0.0488,-0.0488,-0.0732,-0.03904,-0.06344
-0.02928,0.0244,-0.01952,-0.00488,0.00976,-0.01952,-0.02928,-0.04392,-0.03416,-0.06832,-0.03904,-0.06344
-0.02928,0.01708,-0.00488,0.00976,0.0244,-0.02684,-0.0244,-0.03904,-0.01952,-0.06344,-0.02928,-0.05856
-0.02928,0.00976,0.00976,0.0244,0.03904,-0.03416,-0.01464,-0.01952,-0.00488,-0.05368,-0.00976,-0.03904
-0.02928,0,0.02928,0.04392,0.05856,-0.04392,-0.00976,0,0.00976,-0.0488,0.00976,-0.01952
-0.02928,0,0.02928,0.04392,0.05856,-0.04392,-0.00976,0,0.00976,-0.03904,0.00976,-0.01952
-0.02928,0,0.02928,0.04392,0.05856,-0.04392,-0.00976,0,0.00976,-0.02928,0.00976,-0.01952
-0.01464,-0.01464,0.04392,0.05124,0.05856,-0.0366,-0.01464,0,0.00976,-0.0244,0.00976,-0.01464
0,-0.02684,0.05368,0.05368,0.05368,-0.02684,-0.01952,0,0.01464,-0.01952,0.00976,-0.00976
0.01952,-0.04392,0.06832,0.05856,0.0488,-0.01464,-0.0244,0.00488,0.0244,-0.01952,0.00976,-0.00976
0.02928,-0.05368,0.07808,0.06344,0.0488,-0.00976,-0.03416,0,0.03416,-0.0244,0.00976,-0.00976
0.00976,-0.03416,0.05856,0.05368,0.0488,-0.01952,-0.03416,0,0.0244,-0.0244,0.00976,-0.01464
-0.00488,-0.01952,0.04392,0.04636,0.0488,-0.02684,-0.03904,-0.00976,0.00976,-0.0244,0.00976,-0.01952
0,-0.01952,0.03904,0.03904,0.03904,-0.01952,-0.0488,-0.01952,0,-0.02928,0.00488,-0.01952
0.01952,-0.01952,0.01952,0.00976,0,0.00976,-0.05368,-0.0244,-0.00488,-0.03904,-0.00488,-0.02928
0.02928,-0.01952,0.00976,-0.00488,-0.01952,0.0244,-0.05856,-0.02928,-0.00976,-0.03904,-0.00488,-0.02928
0.01952,-0.00732,-0.00488,-0.01464,-0.0244,0.02196,-0.06344,-0.03904,-0.02928,-0.05368,-0.01464,-0.03416
0.0244,-0.00732,-0.00976,-0.02196,-0.03416,0.02928,-0.06344,-0.05368,-0.03904,-0.06344,-0.01464,-0.03416
0.01952,-0.00244,-0.01464,-0.0244,-0.03416,0.02684,-0.06344,-0.05856,-0.0488,-0.0732,-0.01952,-0.03904
0.00488,0.00976,-0.0244,-0.02684,-0.02928,0.01708,-0.05856,-0.05856,-0.0488,-0.06832,-0.0244,-0.0488
-0.00488,0.01464,-0.0244,-0.02196,-0.01952,0.00732,-0.0488,-0.0488,-0.03416,-0.05856,-0.0244,-0.0488
-0.00488,0.0122,-0.01952,-0.01708,-0.01464,0.00488,-0.04392,-0.04392,-0.03416,-0.05856,-0.0244,-0.0488
-0.01952,0.02196,-0.0244,-0.01464,-0.00488,-0.00732,-0.03904,-0.04392,-0.0488,-0.06344,-0.02928,-0.05856
-0.02928,0.03172,-0.03416,-0.01952,-0.00488,-0.0122,-0.03416,-0.0488,-0.0488,-0.0732,-0.04392,-0.06344
-0.03416,0.0366,-0.03904,-0.02196,-0.00488,-0.01464,-0.02928,-0.05368,-0.05368,-0.07808,-0.05368,-0.06832
-0.04392,0.04148,-0.03904,-0.01708,0.00488,-0.0244,-0.0244,-0.05856,-0.06344,-0.08784,-0.05856,-0.0732
-0.04392,0.04636,-0.0488,-0.02684,-0.00488,-0.01952,-0.01952,-0.05368,-0.06832,-0.09272,-0.06832,-0.08296
-0.04392,0.04636,-0.0488,-0.02684,-0.00488,-0.01952,-0.01952,-0.05368,-0.06832,-0.09272,-0.06832,-0.08296
-0.0488,0.0488,-0.0488,-0.0244,0,-0.0244,-0.01952,-0.05368,-0.06832,-0.09272,-0.0732,-0.08296
-0.06344,0.06344,-0.06344,-0.03172,0,-0.03172,-0.0244,-0.05856,-0.0732,-0.0976,-0.0732,-0.08784
-0.07808,0.08052,-0.08296,-0.04392,-0.00488,-0.0366,-0.02928,-0.06344,-0.07808,-0.10248,-0.0732,-0.09272
-0.06832,0.07076,-0.0732,-0.03904,-0.00488,-0.03172,-0.02928,-0.06344,-0.07808,-0.10736,-0.06832,-0.09272
-0.05856,0.061,-0.06344,-0.03416,-0.00488,-0.02684,-0.02928,-0.06344,-0.07808,-0.10736,-0.06832,-0.09272
-0.05856,0.05856,-0.05856,-0.02928,0,-0.02928,-0.01952,-0.05856,-0.07808,-0.10248,-0.06832,-0.09272
-0.05368,0.05368,-0.05368,-0.02684,0,-0.02684,-0.00976,-0.05856,-0.08296,-0.0976,-0.0732,-0.0976
-0.0488,0.05124,-0.05368,-0.02928,-0.00488,-0.02196,-0.00976,-0.05856,-0.08296,-0.0976,-0.0732,-0.0976
-0.0488,0.05368,-0.05856,-0.03416,-0.00976,-0.01952,-0.00976,-0.05856,-0.07808,-0.09272,-0.0732,-0.09272
-0.0488,0.05612,-0.06344,-0.03904,-0.01464,-0.01708,-0.01464,-0.05856,-0.0732,-0.0976,-0.06832,-0.09272
-0.0488,0.05368,-0.05856,-0.03416,-0.00976,-0.01952,-0.01464,-0.05368,-0.0732,-0.0976,-0.06832,-0.08784
-0.0488,0.05368,-0.05856,-0.03416,-0.00976,-0.01952,-0.01464,-0.05368,-0.0732,-0.0976,-0.06344,-0.08296
-0.0488,0.05368,-0.05856,-0.03416,-0.00976,-0.01952,-0.01464,-0.05368,-0.0732,-0.0976,-0.06344,-0.07808
-0.0488,0.0488,-0.0488,-0.0244,0,-0.0244,-0.01464,-0.05368,-0.0732,-0.0976,-0.06344,-0.07808
-0.0488,0.04392,-0.03904,-0.01464,0.00976,-0.02928,-0.01464,-0.05368,-0.0732,-0.0976,-0.06344,-0.07808
-0.04392,0.04636,-0.0488,-0.02684,-0.00488,-0.01952,-0.01464,-0.0488,-0.0732,-0.0976,-0.06344,-0.08296
-0.04392,0.05124,-0.05856,-0.0366,-0.01464,-0.01464,-0.01464,-0.0488,-0.06832,-0.0976,-0.05856,-0.08784
-0.04392,0.05124,-0.05856,-0.0366,-0.01464,-0.01464,-0.01464,-0.04392,-0.06832,-0.09272,-0.05856,-0.08296
-0.04392,0.0488,-0.05368,-0.03172,-0.00976,-0.01708,-0.01464,-0.04392,-0.06832,-0.08784,-0.05856,-0.08296
-0.0488,0.0488,-0.0488,-0.0244,0,-0.0244,-0.00488,-0.02928,-0.06344,-0.08296,-0.05856,-0.08296
-0.05368,0.0488,-0.04392,-0.01708,0.00976,-0.03172,0.00488,-0.01464,-0.06344,-0.07808,-0.05856,-0.08296
-0.06344,0.05856,-0.05368,-0.02196,0.00976,-0.0366,0.01952,0,-0.05368,-0.08296,-0.05856,-0.08784
-0.06344,0.05856,-0.05368,-0.02196,0.00976,-0.0366,0.03904,0.03904,-0.0488,-0.09272,-0.06344,-0.08784
-0.06344,0.05856,-0.05368,-0.02196,0.00976,-0.0366,0.07808,0.10248,-0.01464,-0.06344,-0.04392,-0.08296
-0.03416,0.03172,-0.02928,-0.0122,0.00488,-0.01952,0.0976,0.18544,0.04392,-0.00488,-0.00976,-0.05368
0.08296,-0.04148,0,-0.04148,-0.08296,0.08296,0.06344,0.20496,0.0976,0.05368,0.02928,-0.02928
0.27816,-0.16104,0.04392,-0.09516,-0.23424,0.2562,-0.06344,0.15616,0.1464,0.13176,0.10248,0.01952
0.49288,-0.305,0.11712,-0.12932,-0.37576,0.43432,-0.244,0.06832,0.19032,0.24888,0.21472,0.11712
0.7076,-0.44896,0.19032,-0.16348,-0.51728,0.61244,-0.4148,-0.03904,0.244,0.366,0.33184,0.22448
0.76128,-0.47824,0.1952,-0.18544,-0.56608,0.66368,-0.5124,-0.20984,0.1464,0.30256,0.30744,0.2196
0.61,-0.35624,0.10248,-0.20252,-0.50752,0.55876,-0.50752,-0.46848,-0.08296,0.08296,0.122,0.07808
0.39528,-0.17568,-0.04392,-0.24156,-0.4392,0.41724,-0.45384,-0.67832,-0.33184,-0.20984,-0.13176,-0.13664
0.122,-0.0488,-0.0244,-0.0854,-0.1464,0.1342,-0.38552,-0.74664,-0.366,-0.26352,-0.13664,-0.122
-0.01464,0,0.01464,0.02196,0.02928,-0.02196,-0.3172,-0.65392,-0.32208,-0.244,-0.11712,-0.10248
-0.08296,0.01708,0.0488,0.09028,0.13176,-0.10736,-0.244,-0.49288,-0.2196,-0.18056,-0.06832,-0.05856
-0.10736,0.02684,0.05368,0.10736,0.16104,-0.1342,-0.17568,-0.3416,-0.13176,-0.122,-0.02928,-0.03416
-0.08784,0.01708,0.05368,0.0976,0.14152,-0.11468,-0.122,-0.21472,-0.07808,-0.08296,-0.01952,-0.02928
-0.06832,0.01464,0.03904,0.0732,0.10736,-0.08784,-0.07808,-0.13664,-0.05368,-0.07808,-0.01952,-0.02928
-0.04392,0.01464,0.01464,0.0366,0.05856,-0.05124,-0.0488,-0.08784,-0.04392,-0.06832,-0.01952,-0.03416
-0.0244,0.00488,0.01464,0.02684,0.03904,-0.03172,-0.03416,-0.05368,-0.02928,-0.06344,-0.01952,-0.03904
-0.01464,0.00244,0.00976,0.01708,0.0244,-0.01952,-0.01464,-0.02928,-0.01952,-0.06344,-0.0244,-0.0488
-0.02928,0.0244,-0.01952,-0.00488,0.00976,-0.01952,-0.00488,-0.01464,-0.0244,-0.06344,-0.02928,-0.05368
-0.04392,0.03904,-0.03416,-0.0122,0.00976,-0.02684,0.00488,-0.01464,-0.02928,-0.06344,-0.02928,-0.06344
-0.04392,0.03904,-0.03416,-0.0122,0.00976,-0.02684,0.00488,-0.00976,-0.0244,-0.06832,-0.03904,-0.06344
-0.03904,0.0366,-0.03416,-0.01464,0.00488,-0.02196,0.00976,-0.00488,-0.0244,-0.06832,-0.0488,-0.0732
-0.03416,0.02928,-0.0244,-0.00732,0.00976,-0.02196,0.00976,0.00488,-0.01952,-0.06344,-0.03904,-0.06832
-0.02928,0.02196,-0.01464,0,0.01464,-0.02196,0.01464,0.00488,-0.01464,-0.06344,-0.03416,-0.05856
-0.02928,0.02196,-0.01464,0,0.01464,-0.02196,0.01464,0.00976,-0.01464,-0.06344,-0.03416,-0.05856
-0.02928,0.0244,-0.01952,-0.00488,0.00976,-0.01952,0.01464,0.00976,-0.01464,-0.05856,-0.03416,-0.05856
-0.02928,0.0244,-0.01952,-0.00488,0.00976,-0.01952,0.01464,0.01464,-0.01464,-0.05856,-0.03416,-0.05856
-0.02928,0.02196,-0.01464,0,0.01464,-0.02196,0.01952,0.01952,-0.00976,-0.05856,-0.03416,-0.05856
-0.02928,0.02196,-0.01464,0,0.01464,-0.02196,0.01952,0.0244,-0.00976,-0.05856,-0.02928,-0.05856
-0.02928,0.02196,-0.01464,0,0.01464,-0.02196,0.01952,0.02928,-0.00976,-0.05856,-0.02928,-0.05856
-0.02928,0.01952,-0.00976,0.00488,0.01952,-0.0244,0.01952,0.03416,-0.00976,-0.05368,-0.02928,-0.05856
-0.0244,0.01464,-0.00488,0.00732,0.01952,-0.02196,0.01952,0.03904,-0.00488,-0.04392,-0.0244,-0.05856
-0.0244,0.01464,-0.00488,0.00732,0.01952,-0.02196,0.01952,0.04392,0,-0.03904,-0.0244,-0.05856
-0.0244,0.01464,-0.00488,0.00732,0.01952,-0.02196,0.01952,0.04392,0,-0.03904,-0.0244,-0.05856
-0.0244,0.01952,-0.01464,-0.00244,0.00976,-0.01708,0.01952,0.04392,0,-0.03904,-0.0244,-0.05856
-0.01952,0.01952,-0.01952,-0.00976,0,-0.00976,0.01952,0.0488,0,-0.03904,-0.01952,-0.05856
-0.0244,0.02196,-0.01952,-0.00732,0.00488,-0.01464,0.01952,0.05368,0,-0.03904,-0.0244,-0.05856
-0.02928,0.02684,-0.0244,-0.00976,0.00488,-0.01708,0.0244,0.05856,0.00488,-0.03416,-0.02928,-0.06344
-0.01952,0.01708,-0.01464,-0.00488,0.00488,-0.0122,0.0244,0.05856,0.00488,-0.03416,-0.02928,-0.06344
-0.01952,0.01708,-0.01464,-0.00488,0.00488,-0.0122,0.0244,0.06344,0.00976,-0.03416,-0.0244,-0.06344
-0.01952,0.01708,-0.01464,-0.00488,0.00488,-0.0122,0.02928,0.0732,0.01464,-0.02928,-0.01952,-0.0488
-0.01952,0.01464,-0.00976,0,0.00976,-0.01464,0.03416,0.0732,0.01464,-0.0244,-0.00976,-0.04392
-0.01464,0.00732,0,0.00732,0.01464,-0.01464,0.03416,0.0732,0.01464,-0.01952,-0.00976,-0.04392
-0.01464,0.00732,0,0.00732,0.01464,-0.01464,0.03416,0.08296,0.01952,-0.01464,-0.00488,-0.04392
-0.01464,0.00732,0,0.00732,0.01464,-0.01464,0.03904,0.08296,0.02928,-0.01464,0,-0.03904
-0.00488,-0.00244,0.00976,0.0122,0.01464,-0.00976,0.03904,0.08784,0.02928,-0.00976,0,-0.03416
0,-0.00976,0.01952,0.01952,0.01952,-0.00976,0.03904,0.0976,0.03416,-0.00976,0.00976,-0.02928
0,-0.0122,0.0244,0.0244,0.0244,-0.0122,0.04392,0.10736,0.04392,0.00488,0.01464,-0.02928
0.00488,-0.01952,0.03416,0.03172,0.02928,-0.0122,0.04392,0.11224,0.0488,0.00488,0.01952,-0.02928
0.00976,-0.02684,0.04392,0.03904,0.03416,-0.0122,0.04392,0.122,0.05368,0.00488,0.01952,-0.0244
0.01952,-0.03416,0.0488,0.03904,0.02928,-0.00488,0.04392,0.13176,0.05856,0.00976,0.0244,-0.0244
0.0244,-0.03904,0.05368,0.04148,0.02928,-0.00244,0.0488,0.13664,0.05856,0.01464,0.02928,-0.01952
0.00976,-0.0244,0.03904,0.03416,0.02928,-0.00976,0.04392,0.14152,0.0732,0.01464,0.0244,-0.01464
-0.00488,-0.00732,0.01952,0.02196,0.0244,-0.01464,0.03904,0.1464,0.07808,0.01464,0.01952,-0.01464
0.00488,-0.0122,0.01952,0.01708,0.01464,-0.00488,0.03904,0.15128,0.07808,0.01464,0.02928,-0.01464
0.01464,-0.01952,0.0244,0.01708,0.00976,0.00244,0.03904,0.15616,0.07808,0.0244,0.03904,-0.01464
0.0244,-0.02684,0.02928,0.01708,0.00488,0.00976,0.03904,0.17568,0.08784,0.03416,0.04392,-0.00976
0.03904,-0.03904,0.03904,0.01952,0,0.01952,0.03904,0.1952,0.0976,0.03904,0.04392,-0.00488
0.03904,-0.04148,0.04392,0.0244,0.00488,0.01708,0.03416,0.20008,0.10248,0.03904,0.0488,-0.00488
0.04392,-0.04636,0.0488,0.02684,0.00488,0.01952,0.03416,0.20008,0.11224,0.0488,0.05368,0
0.05856,-0.06344,0.06832,0.03904,0.00976,0.0244,0.03904,0.21472,0.11712,0.06344,0.05368,0.00976
0.06832,-0.07564,0.08296,0.0488,0.01464,0.02684,0.03904,0.22448,0.122,0.06832,0.05856,0.01464
0.07808,-0.07808,0.07808,0.03904,0,0.03904,0.04392,0.23424,0.13176,0.07808,0.06344,0.01952
0.08296,-0.07808,0.0732,0.03172,-0.00976,0.04636,0.04392,0.23424,0.13176,0.07808,0.06832,0.01952
0.08784,-0.08052,0.0732,0.02928,-0.01464,0.05124,0.04392,0.244,0.13664,0.08296,0.06344,0.01952
0.09272,-0.08296,0.0732,0.02684,-0.01952,0.05612,0.04392,0.244,0.14152,0.08784,0.06344,0.0244
0.10248,-0.08784,0.0732,0.02196,-0.02928,0.06588,0.03904,0.244,0.1464,0.08784,0.06832,0.02928
0.10248,-0.09028,0.07808,0.02684,-0.0244,0.06344,0.03416,0.244,0.1464,0.08784,0.06832,0.02928
0.10736,-0.09516,0.08296,0.02928,-0.0244,0.06588,0.03416,0.24888,0.1464,0.09272,0.0732,0.0244
0.11224,-0.0976,0.08296,0.02684,-0.02928,0.07076,0.02928,0.24888,0.15128,0.0976,0.08296,0.0244
0.11712,-0.10004,0.08296,0.0244,-0.03416,0.07564,0.02928,0.244,0.15128,0.0976,0.08296,0.02928
0.122,-0.10492,0.08784,0.02684,-0.03416,0.07808,0.01952,0.23912,0.15128,0.10248,0.08784,0.02928
0.13176,-0.1098,0.08784,0.02196,-0.04392,0.08784,0.01464,0.22936,0.1464,0.10248,0.08784,0.03416
0.13176,-0.1098,0.08784,0.02196,-0.04392,0.08784,0.00976,0.2196,0.1464,0.0976,0.09272,0.04392
0.122,-0.10248,0.08296,0.02196,-0.03904,0.08052,0.00488,0.20008,0.14152,0.09272,0.09272,0.04392
0.11224,-0.10004,0.08784,0.03172,-0.0244,0.06832,0.00488,0.18544,0.13176,0.08784,0.08784,0.04392
0.0976,-0.0854,0.0732,0.0244,-0.0244,0.061,-0.00488,0.16104,0.122,0.07808,0.0732,0.03904
0.08784,-0.07564,0.06344,0.01952,-0.0244,0.05612,-0.00976,0.14152,0.11712,0.06344,0.06832,0.0244
0.07808,-0.06588,0.05368,0.01464,-0.0244,0.05124,-0.00976,0.12688,0.11224,0.05368,0.05856,0.01952
0.06344,-0.05368,0.04392,0.0122,-0.01952,0.04148,-0.00976,0.10736,0.09272,0.04392,0.0488,0.00976
0.05856,-0.05124,0.04392,0.01464,-0.01464,0.0366,-0.01464,0.0976,0.07808,0.03416,0.03904,0
0.0488,-0.04636,0.04392,0.01952,-0.00488,0.02684,-0.01464,0.08784,0.06832,0.02928,0.02928,-0.00976
0.03904,-0.03172,0.0244,0.00488,-0.01464,0.02684,-0.01464,0.07808,0.05368,0.01464,0.01952,-0.01952
0.02928,-0.0244,0.01952,0.00488,-0.00976,0.01952,-0.01464,0.06344,0.03904,0.00488,0.00976,-0.0244
0.02928,-0.0244,0.01952,0.00488,-0.00976,0.01952,-0.01464,0.0488,0.03416,-0.00488,0.00488,-0.02928
0.01952,-0.01708,0.01464,0.00488,-0.00488,0.0122,-0.01464,0.04392,0.02928,-0.00976,0,-0.03416
-0.00488,0,0.00488,0.00732,0.00976,-0.00732,-0.00976,0.03416,0.01952,-0.0244,-0.00488,-0.03904
-0.02928,0.01952,-0.00976,0.00488,0.01952,-0.0244,-0.00976,0.02928,0.01952,-0.02928,-0.00976,-0.03904
-0.00976,0.00732,-0.00488,0,0.00488,-0.00732,-0.00488,0.0244,0.01464,-0.03416,-0.01464,-0.04392
-0.00488,0.00244,0,0.00244,0.00488,-0.00488,-0.00488,0.02928,0.01464,-0.03416,-0.01464,-0.04392
-0.00488,0.00244,0,0.00244,0.00488,-0.00488,-0.00488,0.03416,0.00976,-0.03416,-0.01952,-0.04392
-0.00488,0.00244,0,0.00244,0.00488,-0.00488,-0.00976,0.03416,0.00488,-0.03904,-0.01952,-0.0488
-0.00488,0.00244,0,0.00244,0.00488,-0.00488,-0.01464,0.0244,0,-0.04392,-0.01952,-0.05368
-0.01464,0.0122,-0.00976,-0.00244,0.00488,-0.00976,-0.01952,0.01952,0,-0.04392,-0.02928,-0.05368
-0.01464,0.0122,-0.00976,-0.00244,0.00488,-0.00976,-0.01952,0.00976,0,-0.0488,-0.02928,-0.05368
-0.01464,0.0122,-0.00976,-0.00244,0.00488,-0.00976,-0.01464,0,0,-0.0488,-0.02928,-0.0488
-0.01952,0.01464,-0.00976,0,0.00976,-0.01464,-0.00976,0.00976,0,-0.0488,-0.0244,-0.0488
-0.01952,0.0122,-0.00488,0.00488,0.01464,-0.01708,-0.00488,0.01952,0,-0.0488,-0.01952,-0.0488
-0.01952,0.00976,0,0.00976,0.01952,-0.01952,0,0.01952,0,-0.0488,-0.01952,-0.0488
-0.01952,0.00732,0.00488,0.01464,0.0244,-0.02196,0.00488,0.01952,0,-0.0488,-0.01952,-0.0488
-0.0244,0.00976,0.00488,0.01708,0.02928,-0.02684,0.00488,0.01952,0,-0.0488,-0.0244,-0.0488
-0.0244,0.0122,0,0.0122,0.0244,-0.0244,0.00488,0.01952,0,-0.05368,-0.02928,-0.0488
-0.0244,0.01952,-0.01464,-0.00244,0.00976,-0.01708,0.00488,0.01952,-0.00488,-0.05368,-0.02928,-0.05368
-0.0244,0.0244,-0.0244,-0.0122,0,-0.0122,0.00976,0.01952,-0.00488,-0.05368,-0.02928,-0.05368
-0.02928,0.02196,-0.01464,0,0.01464,-0.02196,0.00976,0.01952,-0.00488,-0.05368,-0.02928,-0.05368
-0.03416,0.0244,-0.01464,0.00244,0.01952,-0.02684,0.00976,0.01952,-0.00488,-0.05368,-0.02928,-0.05368
-0.03416,0.02684,-0.01952,-0.00244,0.01464,-0.0244,0.00488,0.01952,-0.00488,-0.05368,-0.02928,-0.05368
-0.03416,0.02928,-0.0244,-0.00732,0.00976,-0.02196,0.00488,0.01464,-0.00488,-0.05368,-0.03416,-0.05856
-0.02928,0.02684,-0.0244,-0.00976,0.00488,-0.01708,0.00488,0.01464,-0.00488,-0.05368,-0.03416,-0.05856
-0.01952,0.01952,-0.01952,-0.00976,0,-0.00976,0.00488,0.01464,-0.00488,-0.05368,-0.03416,-0.05856
-0.00976,0.01464,-0.01952,-0.01464,-0.00976,0,0.00488,0.01464,-0.00488,-0.05368,-0.03416,-0.05856
-0.01952,0.01708,-0.01464,-0.00488,0.00488,-0.0122,0.00488,0.01464,-0.00488,-0.05368,-0.03416,-0.05856
-0.02928,0.02196,-0.01464,0,0.01464,-0.02196,0.00976,0.01464,-0.00488,-0.05368,-0.03416,-0.05856
-0.03904,0.02928,-0.01952,0,0.01952,-0.02928,0.00976,0.01464,-0.00488,-0.05856,-0.03416,-0.06344
-0.02928,0.02196,-0.01464,0,0.01464,-0.02196,0.00976,0.00976,-0.00488,-0.05856,-0.03904,-0.06344
-0.01952,0.0122,-0.00488,0.00488,0.01464,-0.01708,0,0.00976,-0.00976,-0.05856,-0.03904,-0.06344
-0.01952,0.01464,-0.00976,0,0.00976,-0.01464,0,0.00976,-0.00976,-0.06344,-0.03904,-0.06832
-0.0244,0.01708,-0.00976,0.00244,0.01464,-0.01952,0,0.00488,-0.01464,-0.06832,-0.03904,-0.06832
-0.0244,0.01952,-0.01464,-0.00244,0.00976,-0.01708,0,0,-0.01464,-0.06832,-0.04392,-0.06832
-0.0244,0.02196,-0.01952,-0.00732,0.00488,-0.01464,0,-0.00488,-0.01464,-0.06832,-0.04392,-0.06344
-0.0244,0.01952,-0.01464,-0.00244,0.00976,-0.01708,0.00488,-0.00488,-0.01464,-0.06832,-0.03904,-0.06344
-0.0244,0.01952,-0.01464,-0.00244,0.00976,-0.01708,0.00488,-0.00488,-0.01952,-0.06832,-0.03904,-0.06832
-0.0244,0.01952,-0.01464,-0.00244,0.00976,-0.01708,0.00488,0,-0.01952,-0.06832,-0.04392,-0.06832
-0.0244,0.02196,-0.01952,-0.00732,0.00488,-0.01464,0,-0.00488,-0.01952,-0.06832,-0.04392,-0.06344
-0.0244,0.0244,-0.0244,-0.0122,0,-0.0122,-0.00488,-0.00488,-0.0244,-0.06832,-0.0488,-0.06344
-0.0244,0.0244,-0.0244,-0.0122,0,-0.0122,-0.00488,-0.00488,-0.0244,-0.06832,-0.0488,-0.0732
-0.0244,0.0244,-0.0244,-0.0122,0,-0.0122,-0.00488,-0.00488,-0.0244,-0.06832,-0.0488,-0.0732
-0.0244,0.02684,-0.02928,-0.01708,-0.00488,-0.00976,-0.00488,-0.00488,-0.0244,-0.06832,-0.0488,-0.0732
-0.02928,0.02928,-0.02928,-0.01464,0,-0.01464,-0.00976,-0.00976,-0.0244,-0.06344,-0.0488,-0.0732
-0.03904,0.03416,-0.02928,-0.00976,0.00976,-0.0244,-0.01464,-0.01464,-0.0244,-0.06344,-0.0488,-0.0732
-0.03904,0.03416,-0.02928,-0.00976,0.00976,-0.0244,-0.01464,-0.01464,-0.02928,-0.06344,-0.0488,-0.0732
-0.03416,0.03416,-0.03416,-0.01708,0,-0.01708,-0.01464,-0.01464,-0.02928,-0.06344,-0.0488,-0.0732
-0.03416,0.03416,-0.03416,-0.01708,0,-0.01708,-0.00976,-0.01464,-0.02928,-0.06832,-0.0488,-0.06832
-0.03416,0.03172,-0.02928,-0.0122,0.00488,-0.01952,-0.00976,-0.00976,-0.02928,-0.06832,-0.0488,-0.06344
-0.0244,0.02684,-0.02928,-0.01708,-0.00488,-0.00976,-0.01464,-0.00976,-0.02928,-0.06344,-0.0488,-0.06344
-0.01952,0.0244,-0.02928,-0.01952,-0.00976,-0.00488,-0.01464,-0.00976,-0.02928,-0.06344,-0.0488,-0.06344
-0.01952,0.0244,-0.02928,-0.01952,-0.00976,-0.00488,-0.00976,-0.00976,-0.0244,-0.06344,-0.05368,-0.06832
-0.01952,0.01708,-0.01464,-0.00488,0.00488,-0.0122,-0.00488,-0.00976,-0.01952,-0.06344,-0.0488,-0.06832
-0.01464,0.00732,0,0.00732,0.01464,-0.01464,0,0.00488,-0.00976,-0.0488,-0.02928,-0.0488
-0.00976,0,0.00976,0.01464,0.01952,-0.01464,0.00976,0.01952,0,-0.03904,-0.00976,-0.02928
