i,aVR,ii,aVF,iii,aVL,V1,V2,V3,V4,V5,V6
-0.01464,0.00732,0,0.00732,0.01464,-0.01464,-0.00488,-0.01952,0.00488,0,0.01952,-0.00976
0,0.00244,-0.00488,-0.00488,-0.00488,0.00244,-0.00488,-0.01464,0,0.00976,0.03416,0.00488
-0.00976,0.00732,-0.00488,0,0.00488,-0.00732,-0.00488,-0.01952,0,0.00488,0.03416,0.00488
0.00488,-0.00488,0.00488,0.00244,0,0.00244,-0.01464,-0.01952,-0.00976,0,0.0244,-0.00488
0.00488,-0.00488,0.00488,0.00244,0,0.00244,-0.01464,-0.01464,-0.00488,-0.00488,0.01952,-0.00488
0.00488,0,-0.00488,-0.00732,-0.00976,0.00732,-0.00488,0,0,-0.00488,0.01464,-0.00976
0.00976,-0.00244,-0.00488,-0.00976,-0.01464,0.0122,-0.00488,-0.00488,0,-0.00976,0.00976,-0.00976
0.00488,-0.00488,0.00488,0.00244,0,0.00244,-0.00976,-0.00488,-0.00488,-0.01464,0.00976,-0.01464
0.00976,-0.00244,-0.00488,-0.00976,-0.01464,0.0122,-0.01464,0,0,-0.00976,0.00976,-0.01952
0,0.00732,-0.01464,-0.01464,-0.01464,0.00732,-0.00488,0.00976,0,0,0.01952,-0.00488
0.00488,0.00244,-0.00976,-0.0122,-0.01464,0.00976,0,0.00976,0.00488,0.00488,0.01952,-0.00488
-0.00488,0.00244,0,0.00244,0.00488,-0.00488,-0.01464,-0.00488,0,-0.00488,0.01952,-0.00976
-0.00488,-0.00488,0.01464,0.01708,0.01952,-0.0122,-0.01464,-0.00976,0,0,0.00976,-0.01952
0.00488,-0.0122,0.01952,0.01708,0.01464,-0.00488,-0.00976,-0.00976,0.00976,0.00976,0.00976,-0.01952
0.00976,-0.00976,0.00976,0.00488,0,0.00488,-0.00976,0,0.01952,0.01464,0.0244,-0.00488
0.00976,-0.00732,0.00488,0,-0.00488,0.00732,-0.00976,0.00488,0.01464,0.00976,0.03904,0.00488
0.00976,-0.00244,-0.00488,-0.00976,-0.01464,0.0122,-0.00488,0.00488,0.01464,0.00976,0.03416,0.00488
0.00976,0.00244,-0.01464,-0.01952,-0.0244,0.01708,0,0.01464,0.00976,0,0.03416,0.00488
0.00976,0.00732,-0.0244,-0.02928,-0.03416,0.02196,0,0.01952,0.01952,0.00488,0.03904,0.00976
0.00976,0.00488,-0.01952,-0.0244,-0.02928,0.01952,-0.00976,0.0244,0.01464,0.00488,0.02928,0
0.00976,0.00488,-0.01952,-0.0244,-0.02928,0.01952,-0.00976,0.0244,0.01464,0.00488,0.02928,0
0.01464,-0.00244,-0.00976,-0.01708,-0.0244,0.01952,-0.00976,0.01464,0.01952,0.00976,0.03904,0
0.01464,-0.00488,-0.00488,-0.0122,-0.01952,0.01708,-0.00976,0.01464,0.01952,0.01952,0.03904,0
0.01952,-0.00732,-0.00488,-0.01464,-0.0244,0.02196,-0.01952,0,0.01464,0.01464,0.0244,-0.00488
0.01464,-0.00488,-0.00488,-0.0122,-0.01952,0.01708,-0.0244,0.00488,0.01464,0.01464,0.02928,-0.00488
0.01464,-0.00976,0.00488,-0.00244,-0.00976,0.0122,-0.0244,0.00976,0.01464,0.00976,0.01952,-0.01464
0.01464,-0.00488,-0.00488,-0.0122,-0.01952,0.01708,-0.0244,0.00976,0.01464,0.01464,0.0244,-0.00488
0.0244,-0.00732,-0.00976,-0.02196,-0.03416,0.02928,-0.0244,0.00488,0.00488,0.01464,0.01464,0
0.02928,-0.00976,-0.00976,-0.0244,-0.03904,0.03416,-0.0244,0.00488,0.00976,0,0.00976,0
0.01464,-0.00488,-0.00488,-0.0122,-0.01952,0.01708,-0.01952,0.00488,0.00488,0,0.01464,-0.01952
0.00976,-0.00244,-0.00488,-0.00976,-0.01464,0.0122,-0.01952,0.00488,0.00488,0,0.01464,-0.01464
0.0244,-0.0122,0,-0.0122,-0.0244,0.0244,-0.01952,-0.00488,0,0,0.0244,-0.01464
0.02928,-0.0122,-0.00488,-0.01952,-0.03416,0.03172,-0.01952,-0.01464,0,0,0.0244,-0.00976
0.0244,-0.00488,-0.01464,-0.02684,-0.03904,0.03172,-0.0244,-0.00488,0.00976,0.01464,0.02928,0
0.01464,0.00244,-0.01952,-0.02684,-0.03416,0.0244,-0.01952,-0.00488,0.00976,0.01464,0.02928,0
0.01952,-0.00244,-0.01464,-0.0244,-0.03416,0.02684,-0.01952,-0.00976,0.00488,0.00488,0.02928,0
0.01952,-0.00244,-0.01464,-0.0244,-0.03416,0.02684,-0.02928,-0.01464,0,0.00488,0.0244,0
0.0244,-0.00488,-0.01464,-0.02684,-0.03904,0.03172,-0.02928,-0.00976,0.00488,0.00488,0.0244,0
0.01952,-0.00244,-0.01464,-0.0244,-0.03416,0.02684,-0.02928,-0.00976,0.00488,0.00488,0.01952,0
0.02928,-0.00732,-0.01464,-0.02928,-0.04392,0.0366,-0.03904,-0.00976,-0.00488,0.00488,0.01952,-0.00488
0.02928,-0.0122,-0.00488,-0.01952,-0.03416,0.03172,-0.03416,-0.01464,-0.00976,0.00488,0.01952,-0.00488
0.0244,-0.00732,-0.00976,-0.02196,-0.03416,0.02928,-0.03416,-0.01464,-0.00488,-0.00488,0.01952,-0.00488
0.01952,-0.00488,-0.00976,-0.01952,-0.02928,0.0244,-0.03416,-0.01464,-0.00976,-0.00976,0.01952,-0.00488
0.0244,-0.01464,0.00488,-0.00732,-0.01952,0.02196,-0.02928,-0.0244,0,0.00488,0.01952,-0.00488
0.01952,-0.0122,0.00488,-0.00488,-0.01464,0.01708,-0.02928,-0.02928,0,0.00488,0.01952,-0.00488
0.01464,-0.00488,-0.00488,-0.0122,-0.01952,0.01708,-0.03416,-0.0244,-0.00488,-0.00488,0.00976,-0.01952
0.00976,-0.00244,-0.00488,-0.00976,-0.01464,0.0122,-0.03416,-0.01952,-0.00488,-0.01464,0.00488,-0.01952
0.00976,-0.00244,-0.00488,-0.00976,-0.01464,0.0122,-0.03416,-0.0244,-0.01464,-0.00488,0.00976,-0.00976
0.00976,-0.00244,-0.00488,-0.00976,-0.01464,0.0122,-0.03904,-0.0244,-0.01952,-0.00488,0.00976,-0.00976
0.00976,0.00732,-0.0244,-0.02928,-0.03416,0.02196,-0.03904,-0.0244,-0.00976,-0.00488,0.0244,0.00976
0.00976,-0.00488,0,-0.00488,-0.00976,0.00976,-0.03904,-0.02928,-0.00976,0,0.02928,0
0.00976,-0.00488,0,-0.00488,-0.00976,0.00976,-0.03904,-0.02928,-0.00976,0,0.02928,0
0.00976,-0.00488,0,-0.00488,-0.00976,0.00976,-0.03904,-0.01952,-0.00976,0,0.02928,0
0.00976,-0.00488,0,-0.00488,-0.00976,0.00976,-0.03904,-0.01952,-0.00976,0,0.02928,0
0.00976,0,-0.00976,-0.01464,-0.01952,0.01464,-0.03904,-0.01952,0,0.00976,0.02928,0
0.00976,0,-0.00976,-0.01464,-0.01952,0.01464,-0.03904,-0.01952,0,0.00976,0.02928,0
0.00976,0.00488,-0.01952,-0.0244,-0.02928,0.01952,-0.02928,-0.01952,-0.00976,0,0.01952,0
0.00976,0.00488,-0.01952,-0.0244,-0.02928,0.01952,-0.02928,-0.01952,-0.00976,0,0.01952,0
0.00976,0,-0.00976,-0.01464,-0.01952,0.01464,-0.02928,-0.01952,-0.00976,-0.00976,0.01952,-0.00976
0.00976,0,-0.00976,-0.01464,-0.01952,0.01464,-0.02928,-0.01952,-0.00976,-0.00976,0.01952,-0.00976
0.01952,-0.00976,0,-0.00976,-0.01952,0.01952,-0.03904,-0.02928,-0.0244,-0.01464,0.01464,-0.01464
0.01952,-0.00976,0,-0.00976,-0.01952,0.01952,-0.03904,-0.02928,-0.03416,-0.0244,0.00488,-0.0244
0.01952,-0.00976,0,-0.00976,-0.01952,0.01952,-0.03904,-0.02928,-0.03416,-0.0244,0.00488,-0.01952
0.01952,-0.00976,0,-0.00976,-0.01952,0.01952,-0.03904,-0.02928,-0.0244,-0.01464,0.01464,0
0.01952,-0.01464,0.00976,0,-0.00976,0.01464,-0.03904,-0.02928,-0.01952,-0.00976,0.00976,0
0.01952,-0.01464,0.00976,0,-0.00976,0.01464,-0.03904,-0.02928,-0.01952,-0.00976,0.00976,0
0.00976,-0.00488,0,-0.00488,-0.00976,0.00976,-0.03904,-0.02928,-0.00976,0,0.01952,0
0.00976,-0.00488,0,-0.00488,-0.00976,0.00976,-0.03904,-0.02928,-0.00976,0,0.01952,0
0.00976,0,-0.00976,-0.01464,-0.01952,0.01464,-0.03904,-0.02928,-0.01952,-0.00976,0.01952,-0.00976
0.00976,0,-0.00976,-0.01464,-0.01952,0.01464,-0.03904,-0.02928,-0.01952,-0.00976,0.01952,-0.00976
0.00976,0.00488,-0.01952,-0.0244,-0.02928,0.01952,-0.0488,-0.02928,-0.01952,0,0.01952,0
0.00976,0.00488,-0.01952,-0.0244,-0.02928,0.01952,-0.0488,-0.02928,-0.01952,0,0.01952,0
0.00976,0.00488,-0.01952,-0.0244,-0.02928,0.01952,-0.03904,-0.02928,-0.02928,-0.00488,0.00976,-0.00976
0.00976,0.00488,-0.01952,-0.0244,-0.02928,0.01952,-0.03904,-0.02928,-0.02928,-0.01464,0.00976,-0.00976
0.00976,0.00244,-0.01464,-0.01952,-0.0244,0.01708,-0.0488,-0.02928,-0.02928,-0.01952,0,-0.01952
0.00976,-0.00244,-0.00488,-0.00976,-0.01464,0.0122,-0.0488,-0.02928,-0.02928,-0.01952,0,-0.01952
0.00976,-0.00244,-0.00488,-0.00976,-0.01464,0.0122,-0.03904,-0.02928,-0.0244,-0.01464,0.00488,-0.01464
0.00976,0.00244,-0.01464,-0.01952,-0.0244,0.01708,-0.03904,-0.02928,-0.01464,-0.00488,0.01464,-0.00488
0.00976,0,-0.00976,-0.01464,-0.01952,0.01464,-0.03904,-0.02928,-0.01952,-0.00976,0.01952,0.00976
0.00976,0,-0.00976,-0.01464,-0.01952,0.01464,-0.03904,-0.02928,-0.01952,-0.00976,0.01952,0.00976
0.01952,-0.00976,0,-0.00976,-0.01952,0.01952,-0.0488,-0.02928,-0.01952,-0.00976,0.00976,0
0.01952,-0.00976,0,-0.00976,-0.01952,0.01952,-0.0488,-0.02928,-0.01952,-0.00976,0.00976,0
0.01464,-0.00244,-0.00976,-0.01708,-0.0244,0.01952,-0.0488,-0.02928,-0.01952,-0.00976,0.00976,0
0.00488,0.00244,-0.00976,-0.0122,-0.01464,0.00976,-0.0488,-0.02928,-0.01952,-0.00976,0.00976,0
0.00488,0.00244,-0.00976,-0.0122,-0.01464,0.00976,-0.03904,-0.02928,-0.02928,-0.00976,0.00976,-0.00976
0.01464,-0.00244,-0.00976,-0.01708,-0.0244,0.01952,-0.03904,-0.02928,-0.02928,-0.00976,0.00976,-0.00976
0.00976,0.00488,-0.01952,-0.0244,-0.02928,0.01952,-0.03904,-0.02928,-0.01952,-0.00976,0.00976,0
0.00976,0.00488,-0.01952,-0.0244,-0.02928,0.01952,-0.03904,-0.02928,-0.01952,-0.00976,0.00976,0
0.01952,-0.00488,-0.00976,-0.01952,-0.02928,0.0244,-0.03904,-0.02928,-0.01952,0,0.00976,0
0.01952,-0.00488,-0.00976,-0.01952,-0.02928,0.0244,-0.03904,-0.02928,-0.01952,0,0.00976,0
0.01952,-0.00488,-0.00976,-0.01952,-0.02928,0.0244,-0.02928,-0.0244,-0.01952,-0.00976,0.00976,0
0.01952,-0.00488,-0.00976,-0.01952,-0.02928,0.0244,-0.02928,-0.01464,-0.01952,-0.00976,0.00976,0
0.01952,0,-0.01952,-0.02928,-0.03904,0.02928,-0.01952,-0.00976,-0.01952,-0.00976,0.01952,0.00976
0.01952,0,-0.01952,-0.02928,-0.03904,0.02928,-0.01952,-0.00976,-0.01952,-0.00976,0.01952,0.00976
0.01952,-0.00732,-0.00488,-0.01464,-0.0244,0.02196,-0.02928,-0.00976,-0.00976,0,0.01952,0
0.01952,-0.0122,0.00488,-0.00488,-0.01464,0.01708,-0.02928,-0.00976,-0.00976,0,0.01952,0
0.01952,-0.01708,0.01464,0.00488,-0.00488,0.0122,-0.02928,-0.00976,-0.00488,0.00488,0.02928,0.00976
0.01952,-0.02196,0.0244,0.01464,0.00488,0.00732,-0.02928,-0.00976,0.00488,0.01464,0.02928,0.00976
0.01952,-0.01708,0.01464,0.00488,-0.00488,0.0122,-0.0244,-0.00488,0.01952,0.02928,0.03904,0.01952
0.01952,-0.0122,0.00488,-0.00488,-0.01464,0.01708,-0.01464,0.00488,0.01952,0.02928,0.03904,0.01952
0.00976,-0.00976,0.00976,0.00488,0,0.00488,-0.00976,0.00976,0.00488,0.0244,0.03416,0.00976
0.00976,-0.00488,0,-0.00488,-0.00976,0.00976,-0.00976,0.00976,-0.00488,0.01464,0.0244,0.00976
0.01464,-0.00732,0,-0.00732,-0.01464,0.01464,-0.01464,-0.00976,0,0.01952,0.01952,0.01952
0.01952,-0.01952,0.01952,0.00976,0,0.00976,-0.0244,-0.00976,-0.00488,0.01464,0.01952,0.01464
0.03416,-0.01708,0,-0.01708,-0.03416,0.03416,-0.03416,0,-0.00488,0,0.02928,0.02928
0.03416,-0.02196,0.00976,-0.00732,-0.0244,0.02928,-0.03904,-0.01464,-0.01464,0,0.01952,0.02928
0.02928,-0.00976,-0.00976,-0.0244,-0.03904,0.03416,-0.0488,-0.0244,-0.01464,-0.00488,0.00976,0.01952
0.01464,-0.00244,-0.00976,-0.01708,-0.0244,0.01952,-0.05856,-0.03416,-0.01952,-0.01464,0.00488,0.00488
0.01952,-0.00976,0,-0.00976,-0.01952,0.01952,-0.05856,-0.03904,-0.0244,-0.00488,0.00976,0.00976
0.01952,-0.01464,0.00976,0,-0.00976,0.01464,-0.06832,-0.04392,-0.03416,-0.00976,0.00976,0.00976
0.01464,-0.00976,0.00488,-0.00244,-0.00976,0.0122,-0.05856,-0.03904,-0.02928,-0.00488,0.00976,0.00976
0.01464,-0.00976,0.00488,-0.00244,-0.00976,0.0122,-0.05856,-0.03904,-0.03416,-0.01464,0.00976,0.00976
0.01464,-0.01464,0.01464,0.00732,0,0.00732,-0.05856,-0.0488,-0.04392,-0.00976,0.00976,-0.00488
0.01464,-0.00976,0.00488,-0.00244,-0.00976,0.0122,-0.06344,-0.05368,-0.04392,-0.0244,0,-0.00488
0.00976,-0.00732,0.00488,0,-0.00488,0.00732,-0.0732,-0.05368,-0.03416,-0.0244,0.00488,-0.00488
0.01464,-0.01952,0.0244,0.01708,0.00976,0.00244,-0.0732,-0.05368,-0.03904,-0.01952,0,-0.00488
0.01464,-0.01952,0.0244,0.01708,0.00976,0.00244,-0.0732,-0.05368,-0.03904,-0.01464,0.00488,0.00488
0.01464,-0.0122,0.00976,0.00244,-0.00488,0.00976,-0.0732,-0.05368,-0.03416,-0.00976,0.00976,0.00488
0.01952,-0.0122,0.00488,-0.00488,-0.01464,0.01708,-0.0732,-0.06344,-0.03904,-0.01952,0.00976,0.00976
0.0244,-0.0122,0,-0.0122,-0.0244,0.0244,-0.0732,-0.05856,-0.04392,-0.01952,0.00976,0.00976
0.03416,-0.01952,0.00488,-0.0122,-0.02928,0.03172,-0.07808,-0.06344,-0.06344,-0.03904,0.00488,0.00976
0.03416,-0.01952,0.00488,-0.0122,-0.02928,0.03172,-0.07808,-0.06344,-0.05856,-0.02928,0.00488,0.00976
0.0244,-0.00976,-0.00488,-0.01708,-0.02928,0.02684,-0.07808,-0.06344,-0.0488,-0.0244,0.00976,0.00976
0.02928,-0.00732,-0.01464,-0.02928,-0.04392,0.0366,-0.07808,-0.06344,-0.04392,-0.01952,0.01464,0.01464
0.0244,-0.00244,-0.01952,-0.03172,-0.04392,0.03416,-0.07808,-0.06344,-0.03904,-0.00976,0.0244,0.0244
0.0244,-0.00488,-0.01464,-0.02684,-0.03904,0.03172,-0.0732,-0.05856,-0.0244,0,0.02928,0.02928
0.03416,-0.01708,0,-0.01708,-0.03416,0.03416,-0.08784,-0.06832,-0.02928,0,0.0244,0.01464
0.03416,-0.01952,0.00488,-0.0122,-0.02928,0.03172,-0.08784,-0.06832,-0.02928,-0.00976,0.00976,0.01464
0.02928,-0.00976,-0.00976,-0.0244,-0.03904,0.03416,-0.08296,-0.05856,-0.02928,-0.01464,0.00488,0.00488
0.0244,-0.00976,-0.00488,-0.01708,-0.02928,0.02684,-0.08296,-0.05856,-0.02928,-0.01464,0.00488,0
0.01464,0.00244,-0.01952,-0.02684,-0.03416,0.0244,-0.0732,-0.0488,-0.03904,-0.0244,0.01464,0.00976
0.00976,0.00488,-0.01952,-0.0244,-0.02928,0.01952,-0.06832,-0.0488,-0.04392,-0.0244,0.00976,0.00976
0.01952,0.00244,-0.0244,-0.03416,-0.04392,0.03172,-0.0732,-0.03904,-0.03416,-0.0244,0.01952,0.01952
0.01952,-0.00244,-0.01464,-0.0244,-0.03416,0.02684,-0.06832,-0.03904,-0.02928,-0.01464,0.01952,0.01952
0.00976,-0.00244,-0.00488,-0.00976,-0.01464,0.0122,-0.06344,-0.04392,-0.02928,-0.01952,0.01464,0.00488
0.00976,-0.00732,0.00488,0,-0.00488,0.00732,-0.06344,-0.05368,-0.02928,-0.01952,0.00976,0.00488
0.00488,0,-0.00488,-0.00732,-0.00976,0.00732,-0.06344,-0.05368,-0.03416,-0.0244,-0.00488,0
0.00488,0,-0.00488,-0.00732,-0.00976,0.00732,-0.06344,-0.05368,-0.03416,-0.0244,-0.00976,0
0.00488,0,-0.00488,-0.00732,-0.00976,0.00732,-0.06344,-0.06344,-0.0488,-0.02928,-0.00976,0
0,0.00244,-0.00488,-0.00488,-0.00488,0.00244,-0.06344,-0.06344,-0.04392,-0.02928,-0.00976,0
0.01464,0,-0.01464,-0.02196,-0.02928,0.02196,-0.06344,-0.05856,-0.0488,-0.0244,-0.01464,0.00488
0.01464,0.00244,-0.01952,-0.02684,-0.03416,0.0244,-0.06344,-0.05856,-0.0488,-0.03416,-0.01464,0
0.00488,0,-0.00488,-0.00732,-0.00976,0.00732,-0.05368,-0.05856,-0.06344,-0.06832,-0.03416,-0.01952
0.01464,0.0122,-0.03904,-0.04636,-0.05368,0.03416,-0.04392,-0.03904,-0.03416,-0.03416,-0.00488,-0.00488
0.00488,0.01464,-0.03416,-0.0366,-0.03904,0.02196,-0.03904,-0.02928,-0.03904,-0.03416,-0.00976,-0.01464
0,0.04392,-0.08784,-0.08784,-0.08784,0.04392,-0.00488,0.0244,-0.0244,-0.01464,-0.00488,0
-0.00976,0.0488,-0.08784,-0.08296,-0.07808,0.03416,0.03904,0.07808,0.0488,0.02928,0.01952,0.00488
-0.01464,0.05612,-0.0976,-0.09028,-0.08296,0.03416,0.05856,0.1464,0.122,0.06832,0.03904,0.00976
0,0.02684,-0.05368,-0.05368,-0.05368,0.02684,0.0488,0.1708,0.17568,0.10736,0.05856,0.01952
0.00488,0.00488,-0.01464,-0.01708,-0.01952,0.0122,0.06344,0.23912,0.27328,0.19032,0.11224,0.05856
0.03416,-0.05124,0.06832,0.05124,0.03416,0,0.0732,0.3172,0.38552,0.27328,0.18056,0.11712
0.06344,-0.08296,0.10248,0.07076,0.03904,0.0122,0.14152,0.43432,0.5368,0.4148,0.28304,0.1952
0.08784,-0.10004,0.11224,0.06832,0.0244,0.03172,0.22936,0.59048,0.7076,0.55144,0.3904,0.28304
0.03904,-0.09028,0.14152,0.122,0.10248,-0.03172,0.30744,0.67344,0.77592,0.60512,0.41968,0.29768
-0.04392,-0.06832,0.18056,0.20252,0.22448,-0.1342,0.35136,0.60024,0.63928,0.488,0.33184,0.25864
-0.22936,-0.00244,0.23424,0.34892,0.4636,-0.34648,0.30256,0.24888,0.15616,0.0976,0.07808,0.09272
-0.40504,0.09516,0.21472,0.41724,0.61976,-0.5124,0.23424,-0.19032,-0.47336,-0.40504,-0.2684,-0.12688
-0.53192,0.16836,0.1952,0.46116,0.72712,-0.62952,0.2196,-0.3904,-0.72712,-0.62464,-0.45384,-0.2684
-0.6588,0.26108,0.13664,0.46604,0.79544,-0.72712,0.33672,-0.30256,-0.7076,-0.67344,-0.55632,-0.38552
-0.67344,0.27328,0.12688,0.4636,0.80032,-0.73688,0.3904,-0.22936,-0.63928,-0.64416,-0.55144,-0.40992
-0.60024,0.25376,0.09272,0.39284,0.69296,-0.6466,0.40016,-0.15616,-0.55144,-0.57096,-0.49288,-0.366
-0.54168,0.24156,0.05856,0.3294,0.60024,-0.57096,0.42944,-0.07808,-0.488,-0.51728,-0.45384,-0.34648
-0.50752,0.26108,-0.01464,0.23912,0.49288,-0.5002,0.45384,-0.0976,-0.5124,-0.5368,-0.4636,-0.36112
-0.49288,0.28304,-0.0732,0.17324,0.41968,-0.45628,0.50264,-0.06344,-0.49776,-0.52704,-0.46848,-0.37576
-0.4636,0.29768,-0.13176,0.10004,0.33184,-0.39772,0.49288,-0.07808,-0.49288,-0.51728,-0.45384,-0.35624
-0.40992,0.2806,-0.15128,0.05368,0.25864,-0.33428,0.48312,-0.09272,-0.45872,-0.47336,-0.40504,-0.33184
-0.40504,0.2928,-0.18056,0.02196,0.22448,-0.31476,0.49776,-0.13176,-0.45872,-0.44896,-0.37576,-0.2928
-0.38064,0.28304,-0.18544,0.00488,0.1952,-0.28792,0.52216,-0.17568,-0.43432,-0.41968,-0.35136,-0.2684
-0.3904,0.30012,-0.20984,-0.01464,0.18056,-0.28548,0.57584,-0.16592,-0.38552,-0.37088,-0.3172,-0.25376
-0.366,0.2806,-0.1952,-0.0122,0.1708,-0.2684,0.59536,-0.13176,-0.33672,-0.33672,-0.2928,-0.244
-0.35136,0.26108,-0.1708,0.00488,0.18056,-0.26596,0.5124,-0.17568,-0.32208,-0.32696,-0.27328,-0.22448
-0.33184,0.2562,-0.18056,-0.01464,0.15128,-0.24156,0.40016,-0.21472,-0.3172,-0.31232,-0.26352,-0.21472
-0.30744,0.25864,-0.20984,-0.05612,0.0976,-0.20252,0.35136,-0.20008,-0.28792,-0.27816,-0.22448,-0.17568
-0.27328,0.23912,-0.20496,-0.06832,0.06832,-0.1708,0.30256,-0.18544,-0.23912,-0.22448,-0.18544,-0.14152
-0.25864,0.21716,-0.17568,-0.04636,0.08296,-0.1708,0.20984,-0.20496,-0.21472,-0.20496,-0.1708,-0.13664
-0.22936,0.1952,-0.16104,-0.04636,0.06832,-0.14884,0.18544,-0.1708,-0.1952,-0.18056,-0.15616,-0.13664
-0.19032,0.16104,-0.13176,-0.0366,0.05856,-0.12444,0.1464,-0.1464,-0.17568,-0.16592,-0.13664,-0.10736
-0.15128,0.13664,-0.122,-0.04636,0.02928,-0.09028,0.0976,-0.11224,-0.13176,-0.122,-0.10736,-0.07808
-0.11224,0.09028,-0.06832,-0.0122,0.04392,-0.07808,0.0488,-0.0976,-0.0976,-0.0976,-0.06832,-0.05368
-0.06832,0.07076,-0.0732,-0.03904,-0.00488,-0.03172,0.01952,-0.07808,-0.0732,-0.06344,-0.05368,-0.02928
-0.06832,0.06344,-0.05856,-0.0244,0.00976,-0.03904,0,-0.06344,-0.05368,-0.0488,-0.03416,-0.0244
-0.04392,0.0488,-0.05368,-0.03172,-0.00976,-0.01708,-0.01464,-0.04392,-0.03416,-0.03416,-0.01464,-0.01464
-0.0244,0.03904,-0.05368,-0.04148,-0.02928,0.00244,-0.00488,-0.01952,-0.0244,-0.0244,0,-0.00488
-0.01464,0.02928,-0.04392,-0.0366,-0.02928,0.00732,-0.00488,-0.01464,-0.01952,-0.0244,0,-0.00488
-0.00488,0.01708,-0.02928,-0.02684,-0.0244,0.00976,-0.00488,-0.00488,-0.00976,-0.00976,0,0.00488
-0.01464,0.0244,-0.03416,-0.02684,-0.01952,0.00244,-0.00976,0,-0.01952,-0.01952,-0.00488,0
-0.00488,0.0244,-0.04392,-0.04148,-0.03904,0.01708,-0.01464,0.00976,-0.00976,-0.01464,0,0
0.00488,0.01708,-0.03904,-0.04148,-0.04392,0.0244,-0.00488,0.00976,-0.00488,-0.00488,0,0
0.00488,0.01708,-0.03904,-0.04148,-0.04392,0.0244,-0.00976,0.00976,-0.00488,0,0,0.00488
0.00976,0.00732,-0.0244,-0.02928,-0.03416,0.02196,-0.01952,0.00976,0,0.00488,0.00976,0.00976
0.00976,0.00732,-0.0244,-0.02928,-0.03416,0.02196,-0.01464,0.01952,0.00488,0.00488,0.01464,0.01464
0.00976,0.01708,-0.04392,-0.0488,-0.05368,0.03172,-0.0244,0.01952,0.01952,0.00976,0.01952,0.02928
0.00976,0.01952,-0.0488,-0.05368,-0.05856,0.03416,-0.0244,0.01952,0.01952,0.01464,0.0244,0.02928
0.01464,0.01464,-0.04392,-0.05124,-0.05856,0.0366,-0.02928,0.01952,0.03416,0.0244,0.03416,0.02928
0.01464,0.0122,-0.03904,-0.04636,-0.05368,0.03416,-0.02928,0.01952,0.03416,0.0244,0.03416,0.02928
0.01464,0.00488,-0.0244,-0.03172,-0.03904,0.02684,-0.01952,0.01952,0.0244,0.01464,0.0244,0.01952
0.01464,0.00488,-0.0244,-0.03172,-0.03904,0.02684,-0.01952,0.01952,0.0244,0.01464,0.0244,0.01464
0.01464,0,-0.01464,-0.02196,-0.02928,0.02196,-0.0244,0.01952,0.0244,0.0244,0.01952,0.01952
0.01952,-0.00488,-0.00976,-0.01952,-0.02928,0.0244,-0.0244,0.01952,0.0244,0.0244,0.01952,0.0244
0.01952,-0.00244,-0.01464,-0.0244,-0.03416,0.02684,-0.0244,0.02928,0.01952,0.01952,0.00976,0.0244
0.01952,0.00488,-0.02928,-0.03904,-0.0488,0.03416,-0.01952,0.03416,0.01464,0.00976,0.01464,0.0244
0.0244,0.00732,-0.03904,-0.05124,-0.06344,0.04392,-0.01952,0.03416,0.00488,0.00488,0.01464,0.01464
0.0244,0.00732,-0.03904,-0.05124,-0.06344,0.04392,-0.01952,0.0244,0.00488,0.00488,0.01464,0.01952
0.01952,0.0122,-0.04392,-0.05368,-0.06344,0.04148,-0.02928,0.01952,0.01464,0.01464,0.0244,0.02928
0.00976,0.01464,-0.03904,-0.04392,-0.0488,0.02928,-0.02928,0.0244,0.0244,0.0244,0.02928,0.02928
0.01952,0.00488,-0.02928,-0.03904,-0.0488,0.03416,-0.03416,0.02928,0.03416,0.03416,0.03904,0.0244
0.01952,0.00244,-0.0244,-0.03416,-0.04392,0.03172,-0.03416,0.03416,0.04392,0.03904,0.03904,0.02928
0.0244,0,-0.0244,-0.0366,-0.0488,0.0366,-0.03416,0.03416,0.0488,0.02928,0.02928,0.02928
0.0244,0.00488,-0.03416,-0.04636,-0.05856,0.04148,-0.02928,0.03416,0.04392,0.03904,0.03416,0.03416
0.0244,0.00732,-0.03904,-0.05124,-0.06344,0.04392,-0.01952,0.03904,0.03416,0.02928,0.03416,0.0244
0.02928,0.00244,-0.03416,-0.0488,-0.06344,0.04636,-0.01952,0.04392,0.03416,0.03416,0.03904,0.0244
0.03904,-0.00732,-0.0244,-0.04392,-0.06344,0.05124,-0.02928,0.0488,0.03416,0.0488,0.03904,0.03416
0.03904,-0.0122,-0.01464,-0.03416,-0.05368,0.04636,-0.02928,0.04392,0.03416,0.0488,0.04392,0.04392
0.03904,-0.00976,-0.01952,-0.03904,-0.05856,0.0488,-0.0244,0.03904,0.04392,0.03904,0.04392,0.03904
0.03904,-0.00732,-0.0244,-0.04392,-0.06344,0.05124,-0.0244,0.03904,0.04392,0.03904,0.04392,0.03904
0.03904,-0.00488,-0.02928,-0.0488,-0.06832,0.05368,-0.02928,0.0488,0.0488,0.03416,0.03904,0.02928
0.03904,0,-0.03904,-0.05856,-0.07808,0.05856,-0.0244,0.06344,0.05368,0.04392,0.04392,0.03416
0.03416,-0.00244,-0.02928,-0.04636,-0.06344,0.0488,-0.03416,0.05368,0.05368,0.05368,0.05368,0.03416
0.03416,-0.00976,-0.01464,-0.03172,-0.0488,0.04148,-0.03416,0.05368,0.06344,0.06344,0.05856,0.03416
0.0488,-0.0122,-0.0244,-0.0488,-0.0732,0.061,-0.03416,0.06344,0.0732,0.0732,0.05856,0.0488
0.0488,-0.0122,-0.0244,-0.0488,-0.0732,0.061,-0.03416,0.0732,0.07808,0.07808,0.06832,0.0488
0.05368,-0.01708,-0.01952,-0.04636,-0.0732,0.06344,-0.0244,0.06832,0.07808,0.07808,0.06344,0.0488
0.05368,-0.01708,-0.01952,-0.04636,-0.0732,0.06344,-0.0244,0.07808,0.07808,0.07808,0.06344,0.0488
0.0488,-0.00976,-0.02928,-0.05368,-0.07808,0.06344,-0.02928,0.06832,0.0732,0.06832,0.06344,0.0488
0.0488,-0.00976,-0.02928,-0.05368,-0.07808,0.06344,-0.0244,0.0732,0.07808,0.06832,0.06832,0.0488
0.06344,-0.01708,-0.02928,-0.061,-0.09272,0.07808,-0.0244,0.08296,0.08784,0.07808,0.07808,0.05856
0.06344,-0.0122,-0.03904,-0.07076,-0.10248,0.08296,-0.01952,0.08296,0.0976,0.08296,0.08784,0.0732
0.05856,-0.00976,-0.03904,-0.06832,-0.0976,0.07808,-0.01464,0.09272,0.10736,0.09272,0.10248,0.07808
0.06344,-0.0122,-0.03904,-0.07076,-0.10248,0.08296,-0.00976,0.0976,0.11224,0.10248,0.10248,0.07808
0.06344,-0.01464,-0.03416,-0.06588,-0.0976,0.08052,-0.01952,0.11224,0.11224,0.11712,0.10736,0.0732
0.06832,-0.01708,-0.03416,-0.06832,-0.10248,0.0854,-0.01952,0.10736,0.11712,0.122,0.10736,0.0732
0.0732,-0.02928,-0.01464,-0.05124,-0.08784,0.08052,-0.01952,0.10248,0.11224,0.11224,0.11224,0.08296
0.0732,-0.02684,-0.01952,-0.05612,-0.09272,0.08296,-0.01464,0.0976,0.10736,0.122,0.11224,0.08784
0.0732,-0.0244,-0.0244,-0.061,-0.0976,0.0854,-0.01952,0.10248,0.10736,0.11224,0.10736,0.08296
0.07808,-0.0244,-0.02928,-0.06832,-0.10736,0.09272,-0.01464,0.11224,0.11712,0.122,0.11224,0.08784
0.08784,-0.03172,-0.0244,-0.06832,-0.11224,0.10004,-0.0244,0.11224,0.11224,0.11712,0.11712,0.0976
0.0976,-0.03904,-0.01952,-0.06832,-0.11712,0.10736,-0.0244,0.10248,0.10248,0.11712,0.11712,0.0976
0.0976,-0.04392,-0.00976,-0.05856,-0.10736,0.10248,-0.02928,0.09272,0.10248,0.13176,0.13664,0.10736
0.0976,-0.0366,-0.0244,-0.0732,-0.122,0.1098,-0.0244,0.0976,0.122,0.1464,0.15128,0.122
0.0976,-0.03904,-0.01952,-0.06832,-0.11712,0.10736,-0.0244,0.11224,0.14152,0.16592,0.16104,0.12688
0.0976,-0.04148,-0.01464,-0.06344,-0.11224,0.10492,-0.02928,0.10736,0.1464,0.16592,0.16104,0.12688
0.10248,-0.03904,-0.0244,-0.07564,-0.12688,0.11468,-0.02928,0.10248,0.13664,0.15616,0.15616,0.122
0.10248,-0.04148,-0.01952,-0.07076,-0.122,0.11224,-0.02928,0.10248,0.13664,0.16104,0.16104,0.122
0.10736,-0.04392,-0.01952,-0.0732,-0.12688,0.11712,-0.02928,0.10736,0.15128,0.1708,0.16104,0.13664
0.10736,-0.04636,-0.01464,-0.06832,-0.122,0.11468,-0.02928,0.0976,0.1464,0.1708,0.16592,0.13664
0.10736,-0.05612,0.00488,-0.0488,-0.10248,0.10492,-0.03416,0.0976,0.14152,0.1708,0.15616,0.13176
0.11224,-0.05856,0.00488,-0.05124,-0.10736,0.1098,-0.03416,0.0976,0.13664,0.1708,0.16104,0.13664
0.11712,-0.06588,0.01464,-0.04392,-0.10248,0.1098,-0.03416,0.09272,0.1464,0.1708,0.15616,0.13664
0.11712,-0.06588,0.01464,-0.04392,-0.10248,0.1098,-0.03416,0.09272,0.15128,0.18056,0.16104,0.14152
0.122,-0.07808,0.03416,-0.02684,-0.08784,0.10492,-0.03904,0.09272,0.1464,0.1708,0.1708,0.15128
0.11224,-0.0732,0.03416,-0.02196,-0.07808,0.09516,-0.03416,0.0976,0.15128,0.1708,0.1708,0.15128
0.11712,-0.07564,0.03416,-0.0244,-0.08296,0.10004,-0.01464,0.122,0.16104,0.18056,0.1708,0.16104
0.13176,-0.07564,0.01952,-0.04636,-0.11224,0.122,-0.00488,0.11712,0.16104,0.18056,0.16592,0.16104
0.122,-0.06344,0.00488,-0.05612,-0.11712,0.11956,-0.00488,0.12688,0.16104,0.16592,0.15616,0.14152
0.11224,-0.05856,0.00488,-0.05124,-0.10736,0.1098,0,0.13664,0.15128,0.16104,0.15128,0.12688
0.10736,-0.061,0.01464,-0.03904,-0.09272,0.10004,-0.00976,0.13176,0.1464,0.15128,0.14152,0.12688
0.10248,-0.061,0.01952,-0.03172,-0.08296,0.09272,0.00488,0.13176,0.14152,0.14152,0.13664,0.12688
0.0976,-0.05612,0.01464,-0.03416,-0.08296,0.09028,0.01464,0.13664,0.14152,0.1464,0.13664,0.122
0.09272,-0.061,0.02928,-0.01708,-0.06344,0.07808,0.01952,0.13664,0.13664,0.13664,0.13176,0.11712
0.08784,-0.05612,0.0244,-0.01952,-0.06344,0.07564,0.02928,0.13664,0.12688,0.12688,0.11712,0.10736
0.07808,-0.04392,0.00976,-0.02928,-0.06832,0.0732,0.02928,0.13176,0.122,0.122,0.10248,0.10248
0.05856,-0.02928,0,-0.02928,-0.05856,0.05856,0.02928,0.12688,0.12688,0.11224,0.10248,0.08784
0.05856,-0.02928,0,-0.02928,-0.05856,0.05856,0.03416,0.122,0.11224,0.10248,0.09272,0.08296
0.0488,-0.02196,-0.00488,-0.02928,-0.05368,0.05124,0.03904,0.122,0.10736,0.10248,0.09272,0.07808
0.03904,-0.01952,0,-0.01952,-0.03904,0.03904,0.03904,0.11224,0.10248,0.0976,0.09272,0.08296
0.0488,-0.02196,-0.00488,-0.02928,-0.05368,0.05124,0.03416,0.10248,0.08296,0.07808,0.07808,0.07808
0.03904,-0.02684,0.01464,-0.00488,-0.0244,0.03172,0.03416,0.0976,0.05368,0.05856,0.05856,0.06344
0.0244,-0.0122,0,-0.0122,-0.0244,0.0244,0.03416,0.0976,0.04392,0.04392,0.0488,0.05368
0.0244,-0.01464,0.00488,-0.00732,-0.01952,0.02196,0.03416,0.08784,0.03904,0.03416,0.04392,0.0488
0.01464,-0.00732,0,-0.00732,-0.01464,0.01464,0.03904,0.07808,0.02928,0.02928,0.0488,0.0488
0.01464,-0.00732,0,-0.00732,-0.01464,0.01464,0.03416,0.06832,0.01464,0.01952,0.03416,0.03904
0.00488,0,-0.00488,-0.00732,-0.00976,0.00732,0.02928,0.06344,0,0.01464,0.02928,0.02928
0,0.00732,-0.01464,-0.01464,-0.01464,0.00732,0.02928,0.05856,0,-0.00488,0.00976,0.0244
0,0.00244,-0.00488,-0.00488,-0.00488,0.00244,0.0244,0.0488,-0.00976,-0.00976,0,0.0244
0.00488,-0.00244,0,-0.00244,-0.00488,0.00488,0.01464,0.03416,-0.01464,-0.00976,0,0.0244
0.00976,-0.00976,0.00976,0.00488,0,0.00488,0.00976,0.04392,-0.01464,-0.00976,0.01952,0.02928
0.00488,-0.00732,0.00976,0.00732,0.00488,0,0.01464,0.04392,-0.00488,0,0.0244,0.03416
-0.00488,0.00732,-0.00976,-0.00732,-0.00488,0,0.00976,0.03416,-0.01464,-0.00488,0.0244,0.03904
0,0.00976,-0.01952,-0.01952,-0.01952,0.00976,0.00488,0.0244,-0.01464,-0.00488,0.01464,0.03904
0,0.00732,-0.01464,-0.01464,-0.01464,0.00732,0.00976,0.01952,-0.01464,-0.01952,-0.00488,0.02928
0,0.00732,-0.01464,-0.01464,-0.01464,0.00732,0,0.01952,-0.01464,-0.01952,-0.00488,0.01464
-0.00488,0.00732,-0.00976,-0.00732,-0.00488,0,0.00488,0.02928,-0.01464,-0.00976,0.00976,0.01464
-0.00488,0,0.00488,0.00732,0.00976,-0.00732,-0.00488,0.01952,-0.01464,-0.00976,0.00976,0.0244
0.00976,-0.00488,0,-0.00488,-0.00976,0.00976,-0.00488,0.01464,-0.00976,-0.00976,0.00488,0.03416
0,0.00488,-0.00976,-0.00976,-0.00976,0.00488,-0.00488,0.00976,-0.00976,-0.01464,0.00488,0.03416
-0.00488,0.00732,-0.00976,-0.00732,-0.00488,0,-0.00488,0.01952,-0.01464,-0.01952,-0.00976,0.01952
-0.00488,0.00244,0,0.00244,0.00488,-0.00488,-0.00488,0.0244,-0.01952,-0.0244,-0.00488,0.00976
-0.00488,-0.00244,0.00976,0.0122,0.01464,-0.00976,-0.00488,0.01952,-0.01952,-0.01464,0.00488,0.00976
0,-0.00976,0.01952,0.01952,0.01952,-0.00976,-0.00488,0.01464,-0.01952,-0.01952,0,0.00976
-0.00488,-0.00244,0.00976,0.0122,0.01464,-0.00976,0.00976,0.0244,-0.03416,-0.0244,-0.00976,0.01464
0,0.00488,-0.00976,-0.00976,-0.00976,0.00488,0.00488,0.02928,-0.02928,-0.01952,-0.00976,0.00976
0,0.0122,-0.0244,-0.0244,-0.0244,0.0122,-0.00488,0.02928,-0.02928,-0.01952,0,0.0244
0.00488,0.00732,-0.01952,-0.02196,-0.0244,0.01464,0,0.02928,-0.0244,-0.01464,0,0.0244
0.00488,0.00488,-0.01464,-0.01708,-0.01952,0.0122,-0.00488,0.02928,-0.00976,-0.00488,0.00488,0.03416
0.00488,0.00244,-0.00976,-0.0122,-0.01464,0.00976,-0.00488,0.03416,-0.00976,0,0.00488,0.03416
0.01464,-0.00732,0,-0.00732,-0.01464,0.01464,-0.01952,0.0244,-0.00488,0.00976,0.01464,0.03416
0.01952,-0.00488,-0.00976,-0.01952,-0.02928,0.0244,-0.01952,0.0244,-0.00488,0.01464,0.01952,0.03904
0.00976,-0.00488,0,-0.00488,-0.00976,0.00976,-0.00976,0.03416,-0.01464,0.00488,0.00976,0.0244
0.00976,-0.00488,0,-0.00488,-0.00976,0.00976,-0.00488,0.03416,-0.01464,-0.00488,0.00488,0.0244
0.00976,-0.00488,0,-0.00488,-0.00976,0.00976,-0.01952,0.0244,-0.01952,-0.01952,-0.00488,0.01464
0.00976,-0.00488,0,-0.00488,-0.00976,0.00976,-0.01952,0.02928,-0.00976,-0.01464,0,0.01952
0.00976,-0.00976,0.00976,0.00488,0,0.00488,-0.01952,0.03416,-0.01464,-0.00488,0,0.00976
0.00976,-0.00976,0.00976,0.00488,0,0.00488,-0.01952,0.03416,-0.01464,-0.00488,0,0.00976
0.01464,-0.00976,0.00488,-0.00244,-0.00976,0.0122,-0.01952,0.0244,-0.00976,-0.01464,-0.00976,0.01952
0.01464,-0.00732,0,-0.00732,-0.01464,0.01464,-0.01952,0.0244,-0.00976,-0.01464,-0.00976,0.01952
0.01952,-0.01708,0.01464,0.00488,-0.00488,0.0122,-0.01952,0.01952,-0.01464,-0.00488,-0.00488,0.0244
0.01464,-0.01464,0.01464,0.00732,0,0.00732,-0.0244,0.0244,-0.01464,-0.00488,0,0.0244
0.0244,-0.01952,0.01464,0.00244,-0.00976,0.01708,-0.0244,0.01952,-0.00976,-0.00976,0,0.01464
0.0244,-0.01464,0.00488,-0.00732,-0.01952,0.02196,-0.0244,0.01952,0,-0.00488,0.00488,0.0244
0.01464,-0.0122,0.00976,0.00244,-0.00488,0.00976,-0.0244,0.0244,-0.00488,0,0.00488,0.02928
0.01952,-0.01464,0.00976,0,-0.00976,0.01464,-0.0244,0.0244,0,-0.00488,0,0.02928
0.0244,-0.01952,0.01464,0.00244,-0.00976,0.01708,-0.02928,0.01464,-0.00488,-0.00976,-0.00488,0.01952
0.01952,-0.01708,0.01464,0.00488,-0.00488,0.0122,-0.02928,0.01464,-0.00488,-0.00976,-0.00488,0.0244
0.0244,-0.02196,0.01952,0.00732,-0.00488,0.01464,-0.02928,0.01464,-0.00976,-0.00976,-0.00488,0.01464
0.02928,-0.02196,0.01464,0,-0.01464,0.02196,-0.02928,0.00488,-0.00976,-0.00976,-0.00488,0.01952
0.01952,-0.01952,0.01952,0.00976,0,0.00976,-0.0244,0.01464,-0.00976,-0.00488,0,0.02928
0.01952,-0.02196,0.0244,0.01464,0.00488,0.00732,-0.01952,0.01464,-0.00976,-0.00488,0,0.02928
0.02928,-0.02196,0.01464,0,-0.01464,0.02196,-0.02928,0,-0.0244,-0.0244,0,0.02928
0.02928,-0.02196,0.01464,0,-0.01464,0.02196,-0.03904,-0.00488,-0.02928,-0.0244,-0.00488,0.02928
0.01464,-0.01464,0.01464,0.00732,0,0.00732,-0.03904,0,-0.01464,-0.01464,-0.01464,0.01952
0.00976,-0.0122,0.01464,0.00976,0.00488,0.00244,-0.03904,0,-0.01464,-0.01464,-0.01952,0.01952
0.01952,-0.01952,0.01952,0.00976,0,0.00976,-0.03904,0.00976,-0.0244,-0.0244,-0.01952,0.01464
0.01952,-0.01952,0.01952,0.00976,0,0.00976,-0.03416,0.00488,-0.02928,-0.0244,-0.01952,0.01464
0.00976,-0.0122,0.01464,0.00976,0.00488,0.00244,-0.03416,0.00488,-0.01464,-0.0244,-0.01952,0.0244
0.01464,-0.00976,0.00488,-0.00244,-0.00976,0.0122,-0.03416,0.00488,-0.01952,-0.02928,-0.01952,0.0244
0.01464,-0.00976,0.00488,-0.00244,-0.00976,0.0122,-0.02928,0.00488,-0.0244,-0.02928,-0.02928,0.01464
0.00976,-0.00732,0.00488,0,-0.00488,0.00732,-0.02928,0,-0.03416,-0.03904,-0.02928,0.01464
0.00976,-0.00732,0.00488,0,-0.00488,0.00732,-0.03416,0,-0.03904,-0.02928,-0.01952,0.01952
0.01464,-0.00976,0.00488,-0.00244,-0.00976,0.0122,-0.03416,-0.00488,-0.02928,-0.02928,-0.0244,0.01952
0.01952,-0.01464,0.00976,0,-0.00976,0.01464,-0.04392,-0.01464,-0.0244,-0.01464,-0.01952,0.01952
0.01952,-0.01952,0.01952,0.00976,0,0.00976,-0.0488,-0.01464,-0.02928,-0.01464,-0.01952,0.01952
0.01952,-0.02196,0.0244,0.01464,0.00488,0.00732,-0.0488,-0.0244,-0.03904,-0.03416,-0.03416,0.00976
0.00976,-0.00976,0.00976,0.00488,0,0.00488,-0.03904,-0.00976,-0.02928,-0.01952,-0.01952,0.00976
0.00976,-0.00976,0.00976,0.00488,0,0.00488,-0.03904,-0.00976,-0.02928,-0.01952,-0.01952,0.00976
0.01952,-0.01952,0.01952,0.00976,0,0.00976,-0.0488,-0.01952,-0.03904,-0.02928,-0.01952,0.01464
0.01952,-0.01952,0.01952,0.00976,0,0.00976,-0.0488,-0.01952,-0.03904,-0.02928,-0.01952,0.0244
0.01952,-0.01464,0.00976,0,-0.00976,0.01464,-0.0488,-0.01952,-0.03904,-0.02928,-0.01952,0.01952
0.01952,-0.01464,0.00976,0,-0.00976,0.01464,-0.0488,-0.01952,-0.03904,-0.02928,-0.01952,0.01952
0.00976,-0.00976,0.00976,0.00488,0,0.00488,-0.05856,-0.01952,-0.02928,-0.01952,-0.00976,0.02928
0.00976,-0.00976,0.00976,0.00488,0,0.00488,-0.05856,-0.01952,-0.02928,-0.01952,-0.00976,0.02928
0.01952,-0.01464,0.00976,0,-0.00976,0.01464,-0.05856,-0.01952,-0.02928,-0.00976,-0.01952,0.01952
0.01952,-0.01464,0.00976,0,-0.00976,0.01464,-0.05856,-0.01952,-0.02928,-0.00976,-0.01952,0.01952
0.01952,-0.00976,0,-0.00976,-0.01952,0.01952,-0.0488,-0.01952,-0.03904,-0.01464,-0.02928,0.00976
0.01952,-0.00976,0,-0.00976,-0.01952,0.01952,-0.0488,-0.01952,-0.03904,-0.0244,-0.02928,0.00976
0.00976,-0.00976,0.00976,0.00488,0,0.00488,-0.05856,-0.02928,-0.03904,-0.02928,-0.02928,0.00976
0.00976,-0.00976,0.00976,0.00488,0,0.00488,-0.05856,-0.02928,-0.03904,-0.02928,-0.02928,0.00976
0.01952,-0.01464,0.00976,0,-0.00976,0.01464,-0.05856,-0.02928,-0.0488,-0.03904,-0.02928,0.01952
0.01952,-0.01464,0.00976,0,-0.00976,0.01464,-0.05856,-0.02928,-0.0488,-0.03904,-0.02928,0.01952
0.00976,-0.00488,0,-0.00488,-0.00976,0.00976,-0.0488,-0.02928,-0.0488,-0.03904,-0.02928,0.00976
0.00976,-0.00488,0,-0.00488,-0.00976,0.00976,-0.0488,-0.02928,-0.0488,-0.03904,-0.02928,0.00976
0.01952,-0.0122,0.00488,-0.00488,-0.01464,0.01708,-0.05856,-0.02928,-0.0488,-0.03904,-0.03904,0.00976
0.01952,-0.01708,0.01464,0.00488,-0.00488,0.0122,-0.05856,-0.02928,-0.0488,-0.03904,-0.03904,0.00976
0.00976,-0.01464,0.01952,0.01464,0.00976,0,-0.05856,-0.02928,-0.0488,-0.0488,-0.03904,0
0.00976,-0.01464,0.01952,0.01464,0.00976,0,-0.05856,-0.02928,-0.0488,-0.0488,-0.03904,0
0.01952,-0.01952,0.01952,0.00976,0,0.00976,-0.06832,-0.03904,-0.03904,-0.04392,-0.03416,0.00488
0.01952,-0.01952,0.01952,0.00976,0,0.00976,-0.06832,-0.03904,-0.03904,-0.03416,-0.0244,0.01464
0.01952,-0.01708,0.01464,0.00488,-0.00488,0.0122,-0.06832,-0.02928,-0.02928,-0.0244,-0.00976,0.02928
0.01952,-0.0122,0.00488,-0.00488,-0.01464,0.01708,-0.06832,-0.02928,-0.02928,-0.01464,-0.00976,0.02928
0.01952,-0.01464,0.00976,0,-0.00976,0.01464,-0.06832,-0.02928,-0.03904,-0.01464,-0.01464,0.0244
0.01952,-0.01464,0.00976,0,-0.00976,0.01464,-0.06832,-0.02928,-0.03904,-0.0244,-0.0244,0.01464
0.00976,-0.01464,0.01952,0.01464,0.00976,0,-0.06832,-0.02928,-0.03904,-0.03904,-0.03904,0.00976
0.00976,-0.01464,0.01952,0.01464,0.00976,0,-0.06832,-0.02928,-0.03904,-0.03904,-0.03904,0.00976
0.01952,-0.01952,0.01952,0.00976,0,0.00976,-0.06832,-0.02928,-0.04392,-0.0488,-0.03904,0.00976
0.01952,-0.01952,0.01952,0.00976,0,0.00976,-0.06832,-0.02928,-0.05368,-0.0488,-0.03904,0.00976
0.02928,-0.0244,0.01952,0.00488,-0.00976,0.01952,-0.05856,-0.02928,-0.05368,-0.04392,-0.02928,0.01952
0.02928,-0.0244,0.01952,0.00488,-0.00976,0.01952,-0.05856,-0.02928,-0.04392,-0.03416,-0.02928,0.01952
0.01952,-0.0244,0.02928,0.01952,0.00976,0.00488,-0.05856,-0.03904,-0.0488,-0.02928,-0.03904,0.00976
0.01952,-0.0244,0.02928,0.01952,0.00976,0.00488,-0.05856,-0.03904,-0.0488,-0.02928,-0.03904,0.00976
0.02928,-0.0244,0.01952,0.00488,-0.00976,0.01952,-0.05856,-0.02928,-0.04392,-0.02928,-0.02928,0.01952
0.02928,-0.0244,0.01952,0.00488,-0.00976,0.01952,-0.05856,-0.02928,-0.03416,-0.02928,-0.02928,0.01952
0.01952,-0.01464,0.00976,0,-0.00976,0.01464,-0.0488,-0.0244,-0.03904,-0.03904,-0.03416,0.01464
0.01952,-0.01464,0.00976,0,-0.00976,0.01464,-0.0488,-0.01464,-0.03904,-0.03904,-0.04392,0.00488
0.02928,-0.0244,0.01952,0.00488,-0.00976,0.01952,-0.0488,-0.01952,-0.02928,-0.02928,-0.04392,0.00488
0.02928,-0.0244,0.01952,0.00488,-0.00976,0.01952,-0.0488,-0.01952,-0.02928,-0.02928,-0.03416,0.01464
0.03904,-0.03172,0.0244,0.00488,-0.01464,0.02684,-0.0488,-0.01952,-0.01952,-0.01952,-0.02928,0.01952
0.03904,-0.0366,0.03416,0.01464,-0.00488,0.02196,-0.0488,-0.01952,-0.01952,-0.01952,-0.02928,0.01952
0.02928,-0.03416,0.03904,0.0244,0.00976,0.00976,-0.03904,-0.00976,-0.00976,-0.01464,-0.01952,0.02928
0.02928,-0.03416,0.03904,0.0244,0.00976,0.00976,-0.03904,-0.00976,-0.00976,-0.00488,-0.01952,0.02928
0.02928,-0.03416,0.03904,0.0244,0.00976,0.00976,-0.02928,-0.00976,-0.01952,-0.00976,-0.01952,0.02928
0.0244,-0.02684,0.02928,0.01708,0.00488,0.00976,-0.02928,-0.00976,-0.01952,-0.00976,-0.01952,0.02928
0.02928,-0.03416,0.03904,0.0244,0.00976,0.00976,-0.0488,-0.01952,-0.0244,-0.01464,-0.02928,0.02928
0.02928,-0.03416,0.03904,0.0244,0.00976,0.00976,-0.05856,-0.01952,-0.0244,-0.01464,-0.02928,0.0244
0.03416,-0.04148,0.0488,0.03172,0.01464,0.00976,-0.06344,-0.01952,-0.03416,-0.01952,-0.02928,0.02928
0.03416,-0.03904,0.04392,0.02684,0.00976,0.0122,-0.06832,-0.0244,-0.03416,-0.0244,-0.02928,0.0244
0.03904,-0.03416,0.02928,0.00976,-0.00976,0.0244,-0.08784,-0.03904,-0.03416,-0.02928,-0.03416,0.02928
0.03904,-0.0366,0.03416,0.01464,-0.00488,0.02196,-0.08784,-0.04392,-0.03904,-0.03416,-0.03416,0.02928
0.02928,-0.02684,0.0244,0.00976,-0.00488,0.01708,-0.08784,-0.0488,-0.05368,-0.03904,-0.03904,0.01952
0.0244,-0.0244,0.0244,0.0122,0,0.0122,-0.08784,-0.04392,-0.0488,-0.03416,-0.03904,0.01952
0.0244,-0.02928,0.03416,0.02196,0.00976,0.00732,-0.08784,-0.05368,-0.0488,-0.03416,-0.0488,0.00976
0.0244,-0.03416,0.04392,0.03172,0.01952,0.00244,-0.08784,-0.06344,-0.05368,-0.03416,-0.0488,0.00488
0.0244,-0.0244,0.0244,0.0122,0,0.0122,-0.10248,-0.05856,-0.04392,-0.03904,-0.04392,0.01464
0.0244,-0.02196,0.01952,0.00732,-0.00488,0.01464,-0.10248,-0.06344,-0.04392,-0.03904,-0.04392,0.01464
0.01952,-0.02684,0.03416,0.0244,0.01464,0.00244,-0.10248,-0.0732,-0.0488,-0.05368,-0.05856,0.00488
0.0244,-0.03172,0.03904,0.02684,0.01464,0.00488,-0.10248,-0.0732,-0.06344,-0.05368,-0.06344,0.00488
0.0244,-0.0244,0.0244,0.0122,0,0.0122,-0.10248,-0.06344,-0.05368,-0.05368,-0.0488,0.01464
0.02928,-0.02684,0.0244,0.00976,-0.00488,0.01708,-0.10248,-0.06344,-0.0488,-0.0488,-0.0488,0.01952
0.03904,-0.03416,0.02928,0.00976,-0.00976,0.0244,-0.10248,-0.06344,-0.05368,-0.0488,-0.03904,0.01952
0.04392,-0.03904,0.03416,0.0122,-0.00976,0.02684,-0.10248,-0.05856,-0.05368,-0.05368,-0.03904,0.01952
0.03904,-0.03172,0.0244,0.00488,-0.01464,0.02684,-0.0976,-0.06344,-0.05368,-0.0488,-0.04392,0.01952
0.02928,-0.0244,0.01952,0.00488,-0.00976,0.01952,-0.0976,-0.06344,-0.0488,-0.03904,-0.03904,0.01952
0.03416,-0.02196,0.00976,-0.00732,-0.0244,0.02928,-0.10736,-0.06344,-0.04392,-0.04392,-0.03904,0.01952
0.04392,-0.02684,0.00976,-0.0122,-0.03416,0.03904,-0.10736,-0.06344,-0.04392,-0.03416,-0.03416,0.0244
0.04392,-0.02196,0,-0.02196,-0.04392,0.04392,-0.10248,-0.06344,-0.03904,-0.03416,-0.03904,0.01952
0.04392,-0.02928,0.01464,-0.00732,-0.02928,0.0366,-0.10736,-0.05856,-0.03904,-0.03416,-0.03904,0.01952
0.04392,-0.03172,0.01952,-0.00244,-0.0244,0.03416,-0.10736,-0.05856,-0.04392,-0.04392,-0.0488,0.01464
0.03904,-0.02684,0.01464,-0.00488,-0.0244,0.03172,-0.10248,-0.05856,-0.05368,-0.04392,-0.05368,0.01464
0.03416,-0.02196,0.00976,-0.00732,-0.0244,0.02928,-0.10248,-0.05856,-0.0488,-0.04392,-0.05368,0.01464
0.03416,-0.0244,0.01464,-0.00244,-0.01952,0.02684,-0.10248,-0.05856,-0.0488,-0.04392,-0.05368,0.00976
0.03904,-0.01952,0,-0.01952,-0.03904,0.03904,-0.0976,-0.0488,-0.0488,-0.04392,-0.0488,0.01464
0.04392,-0.02196,0,-0.02196,-0.04392,0.04392,-0.10248,-0.0488,-0.05368,-0.0488,-0.04392,0.0244
0.03904,-0.02196,0.00488,-0.01464,-0.03416,0.0366,-0.0976,-0.0488,-0.05856,-0.0488,-0.0488,0.0244
0.03416,-0.0244,0.01464,-0.00244,-0.01952,0.02684,-0.09272,-0.0488,-0.05856,-0.0488,-0.04392,0.01464
0.02928,-0.0244,0.01952,0.00488,-0.00976,0.01952,-0.09272,-0.05368,-0.05856,-0.0488,-0.0488,0.00488
0.0244,-0.01952,0.01464,0.00244,-0.00976,0.01708,-0.09272,-0.05856,-0.06344,-0.05368,-0.0488,0.00488
0.01464,-0.01952,0.0244,0.01708,0.00976,0.00244,-0.10248,-0.06344,-0.05368,-0.04392,-0.04392,0
0.01464,-0.01952,0.0244,0.01708,0.00976,0.00244,-0.10248,-0.06344,-0.05368,-0.04392,-0.0488,0
0.00976,-0.0122,0.01464,0.00976,0.00488,0.00244,-0.09272,-0.05368,-0.05856,-0.0488,-0.05856,0.00976
0.01464,-0.01464,0.01464,0.00732,0,0.00732,-0.09272,-0.05368,-0.05368,-0.04392,-0.05368,0.00976
0.01464,-0.00976,0.00488,-0.00244,-0.00976,0.0122,-0.08296,-0.05856,-0.0488,-0.0488,-0.05368,0.00488
0.01464,-0.00488,-0.00488,-0.0122,-0.01952,0.01708,-0.08296,-0.05856,-0.05368,-0.0488,-0.05368,0
0.01464,-0.00976,0.00488,-0.00244,-0.00976,0.0122,-0.08296,-0.0488,-0.04392,-0.0488,-0.05368,0
0.0244,-0.00732,-0.00976,-0.02196,-0.03416,0.02928,-0.07808,-0.04392,-0.04392,-0.04392,-0.0488,0
0.01952,0.00488,-0.02928,-0.03904,-0.0488,0.03416,-0.05368,-0.00976,-0.02928,-0.04392,-0.05856,-0.00488
0.00976,0.02928,-0.06832,-0.0732,-0.07808,0.04392,-0.01952,0.03904,-0.01952,-0.03904,-0.06344,-0.01464
0,0.03172,-0.06344,-0.06344,-0.06344,0.03172,0.01952,0.10248,0.03904,0,-0.03904,-0.00976
0.01952,0.0122,-0.04392,-0.05368,-0.06344,0.04148,0.00976,0.13176,0.08784,0.02928,-0.02928,0.00488
0.01952,-0.01952,0.01952,0.00976,0,0.00976,0.00976,0.16592,0.18056,0.11224,0.02928,0.03416
0.04392,-0.03172,0.01952,-0.00244,-0.0244,0.03416,0.02928,0.24888,0.28792,0.20496,0.09272,0.10248
0.05856,-0.06588,0.0732,0.04392,0.01464,0.02196,0.06344,0.3416,0.4148,0.30744,0.16104,0.14152
0.06832,-0.08296,0.0976,0.06344,0.02928,0.01952,0.14152,0.47336,0.57584,0.42944,0.25864,0.2196
0.07808,-0.12688,0.17568,0.13664,0.0976,-0.00976,0.20496,0.60512,0.7076,0.5368,0.32208,0.25864
0.03904,-0.12444,0.20984,0.19032,0.1708,-0.06588,0.2928,0.67344,0.73688,0.54656,0.33672,0.2684
-0.07808,-0.08052,0.23912,0.27816,0.3172,-0.19764,0.30744,0.52216,0.51728,0.36112,0.20496,0.19032
-0.28304,0.01952,0.244,0.38552,0.52704,-0.40504,0.25864,0.11224,-0.09272,-0.122,-0.11712,0.00488
-0.42456,0.10004,0.22448,0.43676,0.64904,-0.5368,0.20008,-0.28792,-0.63928,-0.54656,-0.40992,-0.18544
-0.55144,0.17324,0.20496,0.48068,0.7564,-0.65392,0.22936,-0.40992,-0.8052,-0.72224,-0.55632,-0.3172
-0.65392,0.244,0.16592,0.49288,0.81984,-0.73688,0.32696,-0.3172,-0.73688,-0.71248,-0.61976,-0.3904
-0.64416,0.26108,0.122,0.44408,0.76616,-0.70516,0.36112,-0.22936,-0.6588,-0.66368,-0.59536,-0.40016
-0.56608,0.22448,0.11712,0.40016,0.6832,-0.62464,0.38552,-0.15616,-0.57096,-0.59048,-0.5368,-0.366
-0.5124,0.21716,0.07808,0.33428,0.59048,-0.55144,0.39528,-0.12688,-0.54656,-0.56608,-0.52216,-0.37088
-0.49288,0.25132,-0.00976,0.23668,0.48312,-0.488,0.43432,-0.10736,-0.55144,-0.57096,-0.52216,-0.37576
-0.45872,0.2562,-0.05368,0.17568,0.40504,-0.43188,0.4636,-0.11224,-0.55632,-0.57096,-0.5368,-0.38064
-0.42456,0.2684,-0.11224,0.10004,0.31232,-0.36844,0.4636,-0.10736,-0.5124,-0.53192,-0.488,-0.36112
-0.3904,0.26596,-0.14152,0.05368,0.24888,-0.31964,0.42456,-0.1708,-0.50264,-0.50264,-0.45872,-0.33672
-0.36112,0.24644,-0.13176,0.0488,0.22936,-0.29524,0.44408,-0.1708,-0.47336,-0.47336,-0.4392,-0.3172
-0.37088,0.2684,-0.16592,0.01952,0.20496,-0.28792,0.48312,-0.18544,-0.44408,-0.44896,-0.4148,-0.30256
-0.37088,0.27328,-0.17568,0.00976,0.1952,-0.28304,0.55632,-0.16104,-0.40016,-0.40504,-0.3904,-0.27328
-0.34648,0.2562,-0.16592,0.00732,0.18056,-0.26352,0.54656,-0.16104,-0.37088,-0.37088,-0.34648,-0.244
-0.31232,0.22204,-0.13176,0.0244,0.18056,-0.24644,0.42944,-0.21472,-0.33184,-0.33184,-0.30744,-0.21472
-0.2928,0.21228,-0.13176,0.01464,0.16104,-0.22692,0.33184,-0.244,-0.30256,-0.29768,-0.27816,-0.1952
-0.2684,0.21228,-0.15616,-0.02196,0.11224,-0.19032,0.30256,-0.1952,-0.27328,-0.2684,-0.25864,-0.1708
-0.244,0.19032,-0.13664,-0.01464,0.10736,-0.17568,0.20984,-0.20496,-0.26352,-0.25376,-0.244,-0.16104
-0.2196,0.17812,-0.13664,-0.02684,0.08296,-0.15128,0.1708,-0.19032,-0.23912,-0.22448,-0.23424,-0.1464
-0.18544,0.15616,-0.12688,-0.03416,0.05856,-0.122,0.13664,-0.17568,-0.2196,-0.21472,-0.20496,-0.13664
-0.16592,0.13664,-0.10736,-0.0244,0.05856,-0.11224,0.08784,-0.15128,-0.18056,-0.1708,-0.18056,-0.10736
-0.11224,0.09516,-0.07808,-0.02196,0.03416,-0.0732,0.03904,-0.11712,-0.122,-0.122,-0.13176,-0.06832
-0.08296,0.06832,-0.05368,-0.0122,0.02928,-0.05612,0,-0.10248,-0.10736,-0.10736,-0.10248,-0.04392
-0.05368,0.03904,-0.0244,0.00244,0.02928,-0.04148,-0.03416,-0.08784,-0.0976,-0.08784,-0.10248,-0.04392
-0.0244,0.01952,-0.01464,-0.00244,0.00976,-0.01708,-0.04392,-0.0732,-0.0732,-0.08296,-0.08784,-0.02928
-0.01952,0.01708,-0.01464,-0.00488,0.00488,-0.0122,-0.03416,-0.05368,-0.0488,-0.06832,-0.08296,-0.01952
0,0.0122,-0.0244,-0.0244,-0.0244,0.0122,-0.03416,-0.03416,-0.03416,-0.04392,-0.06344,-0.01464
0,0.00244,-0.00488,-0.00488,-0.00488,0.00244,-0.04392,-0.01952,-0.0244,-0.02928,-0.05856,-0.00976
0.00488,-0.00244,0,-0.00244,-0.00488,0.00488,-0.0488,-0.01464,-0.01952,-0.02928,-0.05368,-0.00488
0.00976,-0.00488,0,-0.00488,-0.00976,0.00976,-0.0488,-0.01464,-0.01952,-0.0244,-0.05368,-0.00976
0.01464,-0.00732,0,-0.00732,-0.01464,0.01464,-0.05368,-0.01464,-0.00976,-0.01952,-0.0488,-0.00976
0.01464,-0.00732,0,-0.00732,-0.01464,0.01464,-0.05368,0,-0.01464,-0.01952,-0.05856,-0.00488
0.01952,-0.00976,0,-0.00976,-0.01952,0.01952,-0.05856,0,-0.01952,-0.0244,-0.05856,-0.00976
0.01952,-0.0122,0.00488,-0.00488,-0.01464,0.01708,-0.06832,-0.00488,-0.01464,-0.0244,-0.0488,-0.00976
0.01952,-0.00976,0,-0.00976,-0.01952,0.01952,-0.06344,0,-0.00976,-0.0244,-0.04392,0
0.02928,-0.01464,0,-0.01464,-0.02928,0.02928,-0.06344,0,-0.00976,-0.0244,-0.04392,-0.00976
0.02928,-0.01952,0.00976,-0.00488,-0.01952,0.0244,-0.06832,0,-0.00488,-0.0244,-0.04392,-0.00976
0.03416,-0.0244,0.01464,-0.00244,-0.01952,0.02684,-0.05856,0,-0.00488,-0.01464,-0.04392,0
0.03416,-0.0244,0.01464,-0.00244,-0.01952,0.02684,-0.05856,0,-0.00488,-0.01464,-0.04392,0
0.03416,-0.0244,0.01464,-0.00244,-0.01952,0.02684,-0.06832,-0.00976,-0.00488,-0.01464,-0.04392,-0.00488
0.03416,-0.0244,0.01464,-0.00244,-0.01952,0.02684,-0.0732,-0.00976,-0.00488,-0.01464,-0.0488,-0.00488
0.03904,-0.02196,0.00488,-0.01464,-0.03416,0.0366,-0.0732,-0.00976,-0.00488,-0.01464,-0.03904,-0.00976
0.03904,-0.0244,0.00976,-0.00976,-0.02928,0.03416,-0.0732,-0.00976,-0.00488,-0.01464,-0.03904,-0.00488
0.03904,-0.02196,0.00488,-0.01464,-0.03416,0.0366,-0.06344,0.00488,0.00976,-0.00488,-0.03416,0.00488
0.03904,-0.0244,0.00976,-0.00976,-0.02928,0.03416,-0.05856,0.00488,0.00488,-0.00488,-0.03416,0.00488
0.0244,-0.01708,0.00976,-0.00244,-0.01464,0.01952,-0.05856,0.00976,0.00488,-0.01464,-0.03416,0
0.0244,-0.01708,0.00976,-0.00244,-0.01464,0.01952,-0.06832,0.00976,0.00488,-0.00976,-0.03416,0
0.03416,-0.01952,0.00488,-0.0122,-0.02928,0.03172,-0.06832,0,0.00976,-0.00976,-0.03904,0
0.03904,-0.0244,0.00976,-0.00976,-0.02928,0.03416,-0.0732,0.00488,0.00976,-0.00976,-0.03904,0
0.03904,-0.02684,0.01464,-0.00488,-0.0244,0.03172,-0.0732,0.00976,0.00976,-0.00488,-0.02928,-0.00488
0.03904,-0.0244,0.00976,-0.00976,-0.02928,0.03416,-0.0732,0.01464,0.00976,0,-0.02928,0
0.03416,-0.0244,0.01464,-0.00244,-0.01952,0.02684,-0.0732,0.01464,0.01464,-0.00976,-0.02928,0
0.03416,-0.01952,0.00488,-0.0122,-0.02928,0.03172,-0.06832,0.01464,0.01952,0,-0.0244,0.00488
0.03416,-0.01952,0.00488,-0.0122,-0.02928,0.03172,-0.06832,0.0244,0.0244,0.00488,-0.01952,0.00488
0.03904,-0.01952,0,-0.01952,-0.03904,0.03904,-0.06832,0.02928,0.03416,0.00976,-0.01952,0.00488
0.03904,-0.01952,0,-0.01952,-0.03904,0.03904,-0.06832,0.0244,0.03416,0,-0.0244,0.01464
0.03904,-0.01952,0,-0.01952,-0.03904,0.03904,-0.06832,0.02928,0.03416,0,-0.0244,0.01464
0.0488,-0.02928,0.00976,-0.01464,-0.03904,0.04392,-0.06344,0.02928,0.0244,0.00976,-0.01464,0.00976
0.0488,-0.02684,0.00488,-0.01952,-0.04392,0.04636,-0.06832,0.02928,0.0244,0.00976,-0.01464,0.00976
0.0488,-0.02684,0.00488,-0.01952,-0.04392,0.04636,-0.06344,0.02928,0.0488,0.03416,0,0.0244
0.0488,-0.03172,0.01464,-0.00976,-0.03416,0.04148,-0.06344,0.03416,0.06344,0.04392,0.00488,0.0244
0.04392,-0.03172,0.01952,-0.00244,-0.0244,0.03416,-0.06344,0.03416,0.05856,0.03416,-0.00488,0.01464
0.0488,-0.03172,0.01464,-0.00976,-0.03416,0.04148,-0.06344,0.03416,0.06344,0.04392,0,0.01952
0.0488,-0.02684,0.00488,-0.01952,-0.04392,0.04636,-0.06344,0.04392,0.05368,0.03416,0,0.01952
0.0488,-0.01952,-0.00976,-0.03416,-0.05856,0.05368,-0.06344,0.04392,0.05856,0.0488,0.01464,0.02928
0.05368,-0.02684,0,-0.02684,-0.05368,0.05368,-0.06344,0.05856,0.07808,0.05856,0.01464,0.02928
0.05856,-0.03416,0.00976,-0.01952,-0.0488,0.05368,-0.05856,0.05856,0.07808,0.05856,0.01464,0.02928
0.05856,-0.03416,0.00976,-0.01952,-0.0488,0.05368,-0.05368,0.06344,0.07808,0.06832,0.01952,0.03904
0.06344,-0.0366,0.00976,-0.02196,-0.05368,0.05856,-0.05368,0.06344,0.07808,0.07808,0.01952,0.04392
0.06344,-0.03416,0.00488,-0.02684,-0.05856,0.061,-0.06344,0.06344,0.07808,0.07808,0.0244,0.04392
0.06832,-0.03416,0,-0.03416,-0.06832,0.06832,-0.05856,0.06832,0.08784,0.08784,0.03416,0.0488
0.07808,-0.04392,0.00976,-0.02928,-0.06832,0.0732,-0.06344,0.07808,0.08784,0.07808,0.03416,0.03904
0.08296,-0.04636,0.00976,-0.03172,-0.0732,0.07808,-0.05856,0.08296,0.09272,0.08296,0.03416,0.03904
0.07808,-0.03904,0,-0.03904,-0.07808,0.07808,-0.05856,0.06832,0.09272,0.08784,0.03904,0.05368
0.07808,-0.04148,0.00488,-0.03416,-0.0732,0.07564,-0.05856,0.06832,0.0976,0.09272,0.03904,0.05368
0.08296,-0.04636,0.00976,-0.03172,-0.0732,0.07808,-0.05368,0.08296,0.10736,0.0976,0.05368,0.05856
0.08296,-0.04636,0.00976,-0.03172,-0.0732,0.07808,-0.05856,0.07808,0.11224,0.10248,0.05856,0.06344
0.08296,-0.04636,0.00976,-0.03172,-0.0732,0.07808,-0.05856,0.06832,0.10736,0.11224,0.05856,0.05856
0.08784,-0.0488,0.00976,-0.03416,-0.07808,0.08296,-0.05368,0.06832,0.10736,0.11224,0.06832,0.05856
0.0976,-0.05124,0.00488,-0.04392,-0.09272,0.09516,-0.04392,0.07808,0.11712,0.11712,0.06832,0.06832
0.0976,-0.05124,0.00488,-0.04392,-0.09272,0.09516,-0.04392,0.07808,0.11712,0.11712,0.06832,0.07808
0.0976,-0.061,0.0244,-0.0244,-0.0732,0.0854,-0.05856,0.0732,0.11224,0.11712,0.0732,0.0732
0.10248,-0.061,0.01952,-0.03172,-0.08296,0.09272,-0.05368,0.08296,0.11224,0.12688,0.08296,0.08296
0.10736,-0.06832,0.02928,-0.0244,-0.07808,0.09272,-0.05368,0.06832,0.10248,0.12688,0.08296,0.07808
0.10736,-0.07076,0.03416,-0.01952,-0.0732,0.09028,-0.05856,0.06832,0.10736,0.12688,0.08296,0.08296
0.11224,-0.06832,0.0244,-0.03172,-0.08784,0.10004,-0.05856,0.06344,0.11712,0.12688,0.08784,0.09272
0.11224,-0.07076,0.02928,-0.02684,-0.08296,0.0976,-0.05856,0.06832,0.122,0.13176,0.09272,0.0976
0.11712,-0.07564,0.03416,-0.0244,-0.08296,0.10004,-0.05856,0.06832,0.11712,0.13176,0.10248,0.0976
0.11712,-0.0732,0.02928,-0.02928,-0.08784,0.10248,-0.05856,0.06832,0.122,0.13664,0.10736,0.0976
0.122,-0.07808,0.03416,-0.02684,-0.08784,0.10492,-0.06344,0.05856,0.10736,0.13176,0.0976,0.0976
0.122,-0.07808,0.03416,-0.02684,-0.08784,0.10492,-0.06344,0.05856,0.10736,0.13176,0.10736,0.0976
0.12688,-0.0854,0.04392,-0.01952,-0.08296,0.10492,-0.0732,0.05368,0.11712,0.15128,0.11224,0.11224
0.13176,-0.09272,0.05368,-0.0122,-0.07808,0.10492,-0.0732,0.05368,0.122,0.15128,0.11224,0.11224
0.13176,-0.09272,0.05368,-0.0122,-0.07808,0.10492,-0.06832,0.06344,0.13664,0.15128,0.11224,0.11224
0.122,-0.09028,0.05856,-0.00244,-0.06344,0.09272,-0.05368,0.06832,0.14152,0.15128,0.11224,0.11224
0.13664,-0.09516,0.05368,-0.01464,-0.08296,0.1098,-0.06344,0.0732,0.13176,0.15128,0.11224,0.10248
0.12688,-0.09028,0.05368,-0.00976,-0.0732,0.10004,-0.05368,0.06832,0.13176,0.1464,0.10736,0.10248
0.12688,-0.09028,0.05368,-0.00976,-0.0732,0.10004,-0.05368,0.05856,0.13176,0.15128,0.11224,0.10248
0.122,-0.08784,0.05368,-0.00732,-0.06832,0.09516,-0.0488,0.06832,0.13664,0.1464,0.11224,0.10248
0.10248,-0.08052,0.05856,0.00732,-0.04392,0.0732,-0.02928,0.08296,0.13176,0.13664,0.0976,0.0976
0.0976,-0.07564,0.05368,0.00488,-0.04392,0.07076,-0.0244,0.08296,0.12688,0.13176,0.0976,0.0976
0.10248,-0.07808,0.05368,0.00244,-0.0488,0.07564,-0.0244,0.07808,0.12688,0.13176,0.09272,0.08784
0.0976,-0.07808,0.05856,0.00976,-0.03904,0.06832,-0.01464,0.07808,0.122,0.122,0.09272,0.07808
0.08784,-0.07076,0.05368,0.00976,-0.03416,0.061,-0.01952,0.07808,0.10248,0.10248,0.06832,0.06344
0.0732,-0.06344,0.05368,0.01708,-0.01952,0.04636,-0.01952,0.0732,0.10248,0.0976,0.06344,0.06344
0.07808,-0.06832,0.05856,0.01952,-0.01952,0.0488,-0.00976,0.06832,0.0976,0.07808,0.05368,0.05368
0.0732,-0.06344,0.05368,0.01708,-0.01952,0.04636,0,0.06344,0.08784,0.06832,0.0488,0.0488
0.06344,-0.061,0.05856,0.02684,-0.00488,0.03416,-0.00976,0.05368,0.06832,0.05856,0.03416,0.03904
0.05856,-0.05856,0.05856,0.02928,0,0.02928,-0.00976,0.0488,0.05856,0.05368,0.02928,0.03416
0.05856,-0.05368,0.0488,0.01952,-0.00976,0.03416,-0.01464,0.03416,0.0488,0.05368,0.02928,0.02928
0.04392,-0.04148,0.03904,0.01708,-0.00488,0.0244,-0.01464,0.02928,0.03904,0.03904,0.01952,0.0244
0.04392,-0.04392,0.04392,0.02196,0,0.02196,-0.01464,0.0244,0.03904,0.02928,0.00488,0.02928
0.03416,-0.0366,0.03904,0.02196,0.00488,0.01464,-0.01464,0.01952,0.03416,0.0244,0.00488,0.02928
0.0244,-0.02684,0.02928,0.01708,0.00488,0.00976,-0.00976,0.01464,0.01952,0.0244,0,0.01952
0.0244,-0.02684,0.02928,0.01708,0.00488,0.00976,-0.01464,0.00488,0.01464,0.01952,-0.00488,0.01952
0.02928,-0.03416,0.03904,0.0244,0.00976,0.00976,-0.01952,-0.00976,0,0,-0.01464,0.01464
0.02928,-0.03416,0.03904,0.0244,0.00976,0.00976,-0.01952,-0.00976,0,0,-0.01464,0.01464
0.01952,-0.0244,0.02928,0.01952,0.00976,0.00488,-0.01952,-0.01952,-0.01464,0,-0.01952,0.00488
0.0244,-0.0244,0.0244,0.0122,0,0.0122,-0.0244,-0.0244,-0.01952,0,-0.01464,0.00488
0.02928,-0.02928,0.02928,0.01464,0,0.01464,-0.02928,-0.03416,-0.01952,-0.01464,-0.01952,0.00488
0.01464,-0.01952,0.0244,0.01708,0.00976,0.00244,-0.02928,-0.03416,-0.02928,-0.01464,-0.01952,0
0.01952,-0.02684,0.03416,0.0244,0.01464,0.00244,-0.03416,-0.02928,-0.0244,-0.01464,-0.02928,0
0.01952,-0.03172,0.04392,0.03416,0.0244,-0.00244,-0.02928,-0.02928,-0.0244,-0.01952,-0.03416,0
0.00976,-0.02196,0.03416,0.02928,0.0244,-0.00732,-0.02928,-0.03904,-0.0244,-0.00976,-0.03416,-0.00976
0.00488,-0.01464,0.0244,0.02196,0.01952,-0.00732,-0.02928,-0.03904,-0.0244,-0.00976,-0.0244,-0.00976
0.00488,-0.0122,0.01952,0.01708,0.01464,-0.00488,-0.03416,-0.0488,-0.0244,-0.01952,-0.02928,-0.00976
0.00488,-0.0122,0.01952,0.01708,0.01464,-0.00488,-0.04392,-0.0488,-0.0244,-0.01952,-0.0244,-0.00488
0.01952,-0.02196,0.0244,0.01464,0.00488,0.00732,-0.04392,-0.03416,-0.02928,-0.00976,-0.0244,-0.00488
0.00976,-0.01708,0.0244,0.01952,0.01464,-0.00244,-0.04392,-0.03904,-0.02928,-0.01464,-0.02928,-0.00976
0.01464,-0.01464,0.01464,0.00732,0,0.00732,-0.03416,-0.03904,-0.01952,-0.01464,-0.02928,-0.00488
0.01464,-0.01464,0.01464,0.00732,0,0.00732,-0.03416,-0.02928,-0.01464,-0.00488,-0.0244,0
0.01952,-0.02196,0.0244,0.01464,0.00488,0.00732,-0.03416,-0.03416,-0.02928,-0.01952,-0.02928,-0.00976
0.01464,-0.0244,0.03416,0.02684,0.01952,-0.00244,-0.03416,-0.03416,-0.03416,-0.0244,-0.02928,-0.00488
0.01952,-0.02684,0.03416,0.0244,0.01464,0.00244,-0.02928,-0.01952,-0.02928,-0.0244,-0.02928,-0.01464
0.01952,-0.02196,0.0244,0.01464,0.00488,0.00732,-0.03416,-0.01952,-0.02928,-0.01952,-0.02928,-0.01952
0.01464,-0.01708,0.01952,0.0122,0.00488,0.00488,-0.03904,-0.02928,-0.02928,-0.00488,-0.01952,-0.00488
0.01464,-0.01708,0.01952,0.0122,0.00488,0.00488,-0.04392,-0.02928,-0.0244,-0.00488,-0.01952,-0.00488
0.0244,-0.02928,0.03416,0.02196,0.00976,0.00732,-0.04392,-0.02928,-0.00976,0.00976,-0.00488,-0.00488
0.0244,-0.03172,0.03904,0.02684,0.01464,0.00488,-0.04392,-0.0244,-0.00976,0.00976,-0.00488,-0.00488
0.02928,-0.02928,0.02928,0.01464,0,0.01464,-0.03904,-0.0244,-0.00488,0.01464,-0.00488,-0.00488
0.02928,-0.0244,0.01952,0.00488,-0.00976,0.01952,-0.03904,-0.0244,-0.00488,0.00976,0,0
0.02928,-0.0244,0.01952,0.00488,-0.00976,0.01952,-0.04392,-0.01464,-0.00488,0.00976,-0.00488,0.00488
0.02928,-0.0244,0.01952,0.00488,-0.00976,0.01952,-0.0488,-0.01464,-0.00976,0.00976,-0.00488,0.00488
0.02928,-0.02928,0.02928,0.01464,0,0.01464,-0.0488,-0.01952,-0.01464,0,-0.00976,0
0.02928,-0.02928,0.02928,0.01464,0,0.01464,-0.0488,-0.0244,-0.00976,0.00488,-0.00976,0
0.02928,-0.0244,0.01952,0.00488,-0.00976,0.01952,-0.0488,-0.01464,-0.00488,0.01464,-0.00976,0
0.03416,-0.02928,0.0244,0.00732,-0.00976,0.02196,-0.0488,-0.00488,0,0.01464,-0.00976,0
0.03416,-0.03172,0.02928,0.0122,-0.00488,0.01952,-0.05856,-0.01464,0,0.01464,0,0
0.03416,-0.03172,0.02928,0.0122,-0.00488,0.01952,-0.0488,-0.01952,-0.00488,0.01464,-0.00488,0
0.02928,-0.02684,0.0244,0.00976,-0.00488,0.01708,-0.04392,-0.00488,0.00488,0.01464,0.00488,0.00488
0.0244,-0.01952,0.01464,0.00244,-0.00976,0.01708,-0.04392,-0.00488,0.00488,0.00976,0.00976,0.00488
0.0244,-0.01952,0.01464,0.00244,-0.00976,0.01708,-0.04392,-0.00976,0.00488,0.01464,0,0
0.0244,-0.02196,0.01952,0.00732,-0.00488,0.01464,-0.04392,-0.01464,0.00488,0.01952,0.00488,0.00488
0.03416,-0.02684,0.01952,0.00244,-0.01464,0.0244,-0.05368,-0.0244,0,0.00976,-0.00976,0.00976
0.03904,-0.02928,0.01952,0,-0.01952,0.02928,-0.05856,-0.0244,-0.00488,0,-0.00976,0
0.02928,-0.02684,0.0244,0.00976,-0.00488,0.01708,-0.0488,-0.0244,-0.00488,0.00976,-0.00488,0
0.03416,-0.03172,0.02928,0.0122,-0.00488,0.01952,-0.0488,-0.0244,-0.00976,0.00976,-0.00488,0.00488
0.02928,-0.02196,0.01464,0,-0.01464,0.02196,-0.0488,-0.01952,0,0.00976,0.00488,0
0.02928,-0.01952,0.00976,-0.00488,-0.01952,0.0244,-0.05368,-0.0244,0,0.00976,0.00976,0
0.02928,-0.0244,0.01952,0.00488,-0.00976,0.01952,-0.05368,-0.0244,0,0.00488,0,0
0.02928,-0.02684,0.0244,0.00976,-0.00488,0.01708,-0.0488,-0.0244,0,0.00488,0,0
0.02928,-0.02684,0.0244,0.00976,-0.00488,0.01708,-0.05856,-0.0244,-0.00976,0.00488,-0.00488,-0.00976
0.02928,-0.02196,0.01464,0,-0.01464,0.02196,-0.05856,-0.0244,-0.00488,0.00488,-0.00488,-0.00976
0.02928,-0.02684,0.0244,0.00976,-0.00488,0.01708,-0.05856,-0.02928,-0.01464,-0.00488,-0.00488,0
0.02928,-0.0244,0.01952,0.00488,-0.00976,0.01952,-0.05856,-0.03904,-0.01464,-0.00488,-0.00976,-0.00488
0.02928,-0.01952,0.00976,-0.00488,-0.01952,0.0244,-0.05368,-0.03416,-0.00976,0.00488,0,0.00488
0.02928,-0.01952,0.00976,-0.00488,-0.01952,0.0244,-0.05368,-0.03416,-0.00488,0.01464,0,0.00488
0.01952,-0.01952,0.01952,0.00976,0,0.00976,-0.06344,-0.03416,-0.01952,0,0,-0.00488
0.0244,-0.02196,0.01952,0.00732,-0.00488,0.01464,-0.06832,-0.03416,-0.01952,0.00488,0,-0.00488
0.02928,-0.02684,0.0244,0.00976,-0.00488,0.01708,-0.06832,-0.04392,-0.01952,-0.00488,-0.00976,-0.00488
0.02928,-0.02684,0.0244,0.00976,-0.00488,0.01708,-0.0732,-0.0488,-0.01952,-0.00488,-0.00976,-0.00976
0.03416,-0.0244,0.01464,-0.00244,-0.01952,0.02684,-0.0732,-0.03904,-0.0244,-0.00488,-0.01464,0
0.02928,-0.02196,0.01464,0,-0.01464,0.02196,-0.0732,-0.04392,-0.0244,-0.00488,-0.01464,0
0.01952,-0.01708,0.01464,0.00488,-0.00488,0.0122,-0.06832,-0.04392,-0.03416,-0.01464,-0.01952,-0.00976
0.01952,-0.01464,0.00976,0,-0.00976,0.01464,-0.06832,-0.04392,-0.03904,-0.01464,-0.01464,-0.00976
0.02928,-0.02928,0.02928,0.01464,0,0.01464,-0.07808,-0.05856,-0.03904,-0.00976,-0.00976,-0.00976
0.02928,-0.0244,0.01952,0.00488,-0.00976,0.01952,-0.06832,-0.0488,-0.02928,0,-0.00976,0
0.02928,-0.0244,0.01952,0.00488,-0.00976,0.01952,-0.06832,-0.03904,-0.01952,0,-0.00976,0
0.01952,-0.01464,0.00976,0,-0.00976,0.01464,-0.06832,-0.03904,-0.02928,-0.00976,-0.00976,-0.00976
0.01952,-0.01464,0.00976,0,-0.00976,0.01464,-0.06832,-0.03904,-0.02928,-0.00976,-0.00976,-0.00976
0.02928,-0.0244,0.01952,0.00488,-0.00976,0.01952,-0.06832,-0.0488,-0.03904,-0.00976,-0.01952,-0.00976
0.02928,-0.0244,0.01952,0.00488,-0.00976,0.01952,-0.06832,-0.0488,-0.03904,-0.00976,-0.01952,-0.00976
0.02928,-0.01952,0.00976,-0.00488,-0.01952,0.0244,-0.07808,-0.0488,-0.02928,0,-0.00976,-0.00976
0.02928,-0.01952,0.00976,-0.00488,-0.01952,0.0244,-0.07808,-0.0488,-0.01952,0,-0.00976,-0.00976
0.01952,-0.01952,0.01952,0.00976,0,0.00976,-0.06832,-0.0488,-0.01952,0,0,-0.00976
0.01952,-0.01952,0.01952,0.00976,0,0.00976,-0.06832,-0.0488,-0.01952,0,0,-0.00976
0.02928,-0.01952,0.00976,-0.00488,-0.01952,0.0244,-0.06832,-0.0488,-0.01952,0.00976,0,0
0.02928,-0.01952,0.00976,-0.00488,-0.01952,0.0244,-0.06832,-0.0488,-0.01952,0.00976,0,0.00976
0.02928,-0.0244,0.01952,0.00488,-0.00976,0.01952,-0.05856,-0.03904,-0.01952,0.00976,0,0
0.02928,-0.02928,0.02928,0.01464,0,0.01464,-0.05856,-0.03904,-0.01952,0.00976,0,0
0.02928,-0.02928,0.02928,0.01464,0,0.01464,-0.05856,-0.02928,-0.01952,0.00976,0,0
0.02928,-0.02928,0.02928,0.01464,0,0.01464,-0.05856,-0.02928,-0.01952,0.00976,0,0
0.02928,-0.0244,0.01952,0.00488,-0.00976,0.01952,-0.0488,-0.02928,-0.01952,0,0,0.00976
0.02928,-0.0244,0.01952,0.00488,-0.00976,0.01952,-0.0488,-0.02928,-0.01952,0,0,0.00976
0.02928,-0.02928,0.02928,0.01464,0,0.01464,-0.0488,-0.01952,-0.00976,0.00976,0,0
0.02928,-0.02928,0.02928,0.01464,0,0.01464,-0.0488,-0.01952,-0.00976,0.00976,0,0
0.02928,-0.0244,0.01952,0.00488,-0.00976,0.01952,-0.0488,-0.01952,-0.00976,0.00976,0.00976,0.00976
0.02928,-0.0244,0.01952,0.00488,-0.00976,0.01952,-0.0488,-0.01952,-0.00976,0.00976,0.00976,0.00976
0.02928,-0.0244,0.01952,0.00488,-0.00976,0.01952,-0.05856,-0.02928,-0.00976,0.00976,0.00976,0.00976
0.0244,-0.02196,0.01952,0.00732,-0.00488,0.01464,-0.06344,-0.03904,-0.00976,0.00976,0.00976,0.00976
0.03904,-0.03904,0.03904,0.01952,0,0.01952,-0.0732,-0.0488,-0.0244,-0.00488,0,-0.00488
0.04392,-0.03172,0.01952,-0.00244,-0.0244,0.03416,-0.08296,-0.0488,-0.0244,-0.00976,0,0
0.03416,-0.02684,0.01952,0.00244,-0.01464,0.0244,-0.08784,-0.05368,-0.03416,-0.00976,0,0
0.0244,-0.01708,0.00976,-0.00244,-0.01464,0.01952,-0.08784,-0.05368,-0.03416,-0.01464,0,-0.00488
0.01952,-0.01464,0.00976,0,-0.00976,0.01464,-0.08784,-0.0732,-0.03904,-0.01464,-0.00488,0
0.01952,-0.01708,0.01464,0.00488,-0.00488,0.0122,-0.08784,-0.07808,-0.04392,-0.01464,-0.00976,0
0.02928,-0.02684,0.0244,0.00976,-0.00488,0.01708,-0.10736,-0.0732,-0.05368,-0.01952,-0.00976,0
0.0244,-0.0244,0.0244,0.0122,0,0.0122,-0.10736,-0.07808,-0.0488,-0.01464,-0.00976,0
0.0244,-0.01952,0.01464,0.00244,-0.00976,0.01708,-0.0976,-0.08784,-0.06344,-0.03416,-0.01952,-0.00976
0.0244,-0.01952,0.01464,0.00244,-0.00976,0.01708,-0.0976,-0.08784,-0.06344,-0.0244,-0.01464,-0.01464
0.0244,-0.01464,0.00488,-0.00732,-0.01952,0.02196,-0.10248,-0.08296,-0.04392,-0.01952,-0.00488,-0.00488
0.01952,-0.00976,0,-0.00976,-0.01952,0.01952,-0.10248,-0.0732,-0.03416,-0.00976,-0.00488,-0.00488
0.03416,-0.02196,0.00976,-0.00732,-0.0244,0.02928,-0.10248,-0.0732,-0.03904,-0.01464,0,0.00488
0.03416,-0.02196,0.00976,-0.00732,-0.0244,0.02928,-0.10248,-0.0732,-0.03904,-0.01464,-0.00488,0.00488
0.03416,-0.0244,0.01464,-0.00244,-0.01952,0.02684,-0.10248,-0.0732,-0.04392,-0.01952,-0.00976,-0.00488
0.03904,-0.02684,0.01464,-0.00488,-0.0244,0.03172,-0.10248,-0.0732,-0.03904,-0.01952,-0.00976,0
0.03416,-0.01708,0,-0.01708,-0.03416,0.03416,-0.09272,-0.06832,-0.04392,-0.01952,0,0
0.03416,-0.01952,0.00488,-0.0122,-0.02928,0.03172,-0.0976,-0.0732,-0.05368,-0.02928,-0.00488,0
0.04392,-0.0244,0.00488,-0.01708,-0.03904,0.04148,-0.0976,-0.08296,-0.0488,-0.01952,-0.01464,0
0.04392,-0.02196,0,-0.02196,-0.04392,0.04392,-0.0976,-0.08296,-0.0488,-0.0244,-0.00976,0
0.0488,-0.02928,0.00976,-0.01464,-0.03904,0.04392,-0.10736,-0.08296,-0.04392,-0.02928,-0.00488,0.00488
0.05368,-0.03172,0.00976,-0.01708,-0.04392,0.0488,-0.11712,-0.08296,-0.04392,-0.0244,-0.00488,0.00488
0.04392,-0.0244,0.00488,-0.01708,-0.03904,0.04148,-0.10248,-0.07808,-0.03904,-0.01464,0,0
0.04392,-0.02928,0.01464,-0.00732,-0.02928,0.0366,-0.10736,-0.07808,-0.03904,-0.01464,0,-0.00488
0.04392,-0.02196,0,-0.02196,-0.04392,0.04392,-0.0976,-0.07808,-0.03904,-0.01464,-0.00488,0.00488
0.03904,-0.00976,-0.01952,-0.03904,-0.05856,0.0488,-0.09272,-0.07808,-0.03904,-0.01464,-0.00488,0.00488
0.03416,-0.01464,-0.00488,-0.02196,-0.03904,0.0366,-0.09272,-0.07808,-0.02928,-0.01464,-0.00488,0
0.03416,-0.0122,-0.00976,-0.02684,-0.04392,0.03904,-0.09272,-0.07808,-0.02928,-0.01464,-0.00488,0
0.02928,-0.00976,-0.00976,-0.0244,-0.03904,0.03416,-0.08784,-0.07808,-0.03416,-0.01464,-0.00976,0
0.02928,-0.0122,-0.00488,-0.01952,-0.03416,0.03172,-0.09272,-0.07808,-0.03416,-0.01952,-0.00976,0
0.02928,-0.01708,0.00488,-0.00976,-0.0244,0.02684,-0.08784,-0.07808,-0.03904,-0.01952,-0.00976,-0.00976
0.01952,-0.00976,0,-0.00976,-0.01952,0.01952,-0.08296,-0.07808,-0.03904,-0.01952,-0.00488,-0.01464
0.01952,-0.00976,0,-0.00976,-0.01952,0.01952,-0.08296,-0.06832,-0.02928,-0.01952,-0.00976,-0.00488
0.01464,-0.00488,-0.00488,-0.0122,-0.01952,0.01708,-0.08296,-0.06344,-0.03416,-0.0244,-0.01464,-0.00976
0.01464,-0.00488,-0.00488,-0.0122,-0.01952,0.01708,-0.08296,-0.0732,-0.03416,-0.01464,-0.00976,-0.00976
0.01464,-0.00488,-0.00488,-0.0122,-0.01952,0.01708,-0.08296,-0.0732,-0.03904,-0.01952,-0.00976,-0.00976
0.00976,-0.00244,-0.00488,-0.00976,-0.01464,0.0122,-0.09272,-0.0732,-0.03416,-0.02928,-0.01952,-0.01952
0.01464,-0.00488,-0.00488,-0.0122,-0.01952,0.01708,-0.09272,-0.07808,-0.02928,-0.01952,-0.01464,-0.01464
0.01464,-0.00732,0,-0.00732,-0.01464,0.01464,-0.09272,-0.07808,-0.03904,-0.01952,-0.00488,-0.00976
0.01464,-0.00488,-0.00488,-0.0122,-0.01952,0.01708,-0.09272,-0.07808,-0.04392,-0.01952,-0.00488,-0.00976
0.01464,-0.00244,-0.00976,-0.01708,-0.0244,0.01952,-0.08296,-0.06832,-0.04392,-0.03416,-0.00488,-0.01464
0.01464,0.00488,-0.0244,-0.03172,-0.03904,0.02684,-0.06832,-0.05856,-0.03904,-0.03416,-0.01952,-0.0244
0.00976,0.02928,-0.06832,-0.0732,-0.07808,0.04392,-0.0244,-0.01464,-0.0244,-0.0244,-0.01464,-0.03904
-0.00976,0.04392,-0.07808,-0.0732,-0.06832,0.02928,0.01952,0.05856,0.01952,0,-0.01952,-0.03416
-0.00488,0.0366,-0.06832,-0.06588,-0.06344,0.02928,0.03904,0.12688,0.08296,0.03904,0.00976,-0.02928
0,0.0122,-0.0244,-0.0244,-0.0244,0.0122,0.01952,0.15128,0.16592,0.0976,0.0488,0.00976
0.0244,-0.01464,0.00488,-0.00732,-0.01952,0.02196,0.03416,0.2196,0.2928,0.20984,0.122,0.05856
0.03416,-0.03172,0.02928,0.0122,-0.00488,0.01952,0.06344,0.30744,0.39528,0.28304,0.19032,0.11712
0.06344,-0.07808,0.09272,0.061,0.02928,0.01708,0.11224,0.42456,0.54656,0.4148,0.27328,0.16592
0.08784,-0.11468,0.14152,0.0976,0.05368,0.01708,0.20008,0.58072,0.69784,0.53192,0.36112,0.23424
0.06832,-0.12444,0.18056,0.1464,0.11224,-0.02196,0.27816,0.67344,0.76616,0.57584,0.3904,0.25864
-0.0244,-0.10248,0.22936,0.24156,0.25376,-0.13908,0.35136,0.62952,0.6588,0.47824,0.32208,0.2196
-0.20984,-0.02196,0.25376,0.35868,0.4636,-0.33672,0.32208,0.27816,0.1952,0.10736,0.06832,0.0732
-0.39528,0.08052,0.23424,0.43188,0.62952,-0.5124,0.244,-0.20008,-0.50264,-0.43432,-0.28792,-0.1464
-0.54168,0.16836,0.20496,0.4758,0.74664,-0.64416,0.23912,-0.47824,-0.84424,-0.72224,-0.52216,-0.3172
-0.66856,0.26108,0.1464,0.48068,0.81496,-0.74176,0.34648,-0.40992,-0.81496,-0.76128,-0.59536,-0.40504
-0.69296,0.2928,0.10736,0.45384,0.80032,-0.74664,0.3904,-0.33672,-0.73688,-0.72224,-0.61,-0.44896
-0.6588,0.28792,0.08296,0.41236,0.74176,-0.70028,0.41968,-0.25376,-0.63928,-0.64904,-0.5612,-0.42456
-0.57096,0.27084,0.02928,0.31476,0.60024,-0.5856,0.44896,-0.16592,-0.54656,-0.55632,-0.48312,-0.38552
-0.55632,0.29036,-0.0244,0.25376,0.53192,-0.54412,0.47336,-0.17568,-0.55144,-0.56608,-0.50264,-0.40016
-0.52216,0.30256,-0.08296,0.17812,0.4392,-0.48068,0.5124,-0.13176,-0.52704,-0.5368,-0.47824,-0.40504
-0.47336,0.29768,-0.122,0.11468,0.35136,-0.41236,0.48312,-0.15616,-0.5124,-0.5368,-0.4636,-0.39528
-0.42944,0.29524,-0.16104,0.05368,0.2684,-0.34892,0.4636,-0.18056,-0.488,-0.49288,-0.42456,-0.36112
-0.40504,0.28304,-0.16104,0.04148,0.244,-0.32452,0.488,-0.2196,-0.488,-0.47824,-0.40504,-0.3416
-0.40016,0.28304,-0.16592,0.03416,0.23424,-0.3172,0.5124,-0.244,-0.45384,-0.44896,-0.38064,-0.3172
-0.3904,0.29036,-0.19032,0.00488,0.20008,-0.29524,0.59536,-0.18544,-0.39528,-0.3904,-0.33672,-0.28304
-0.366,0.27572,-0.18544,-0.00244,0.18056,-0.27328,0.57584,-0.19032,-0.34648,-0.34648,-0.30256,-0.26352
-0.3416,0.2562,-0.1708,0,0.1708,-0.2562,0.45384,-0.23424,-0.32208,-0.3172,-0.27328,-0.23424
-0.31232,0.2318,-0.15128,0.00488,0.16104,-0.23668,0.37088,-0.244,-0.28792,-0.2928,-0.25376,-0.22448
-0.29768,0.23912,-0.18056,-0.03172,0.11712,-0.2074,0.3416,-0.2196,-0.25864,-0.25864,-0.21472,-0.20496
-0.25376,0.21472,-0.17568,-0.0488,0.07808,-0.16592,0.244,-0.244,-0.24888,-0.244,-0.21472,-0.18056
-0.22936,0.19276,-0.15616,-0.04148,0.0732,-0.15128,0.20008,-0.21472,-0.20496,-0.1952,-0.16104,-0.15616
-0.19032,0.16104,-0.13176,-0.0366,0.05856,-0.12444,0.1464,-0.20008,-0.18544,-0.1708,-0.1464,-0.13664
-0.15128,0.13176,-0.11224,-0.0366,0.03904,-0.09516,0.08784,-0.16592,-0.13664,-0.12688,-0.10736,-0.10736
-0.11224,0.09272,-0.0732,-0.01708,0.03904,-0.07564,0.01952,-0.14152,-0.10248,-0.10248,-0.07808,-0.07808
-0.08296,0.07076,-0.05856,-0.01708,0.0244,-0.05368,0,-0.11712,-0.06832,-0.07808,-0.05856,-0.05368
-0.05856,0.04636,-0.03416,-0.00488,0.0244,-0.04148,-0.02928,-0.0976,-0.05368,-0.06344,-0.04392,-0.0488
-0.02928,0.02928,-0.02928,-0.01464,0,-0.01464,-0.03904,-0.08296,-0.0244,-0.03904,-0.0244,-0.03416
-0.0244,0.02928,-0.03416,-0.02196,-0.00976,-0.00732,-0.03416,-0.04392,-0.00488,-0.0244,-0.00488,-0.0244
-0.00488,0.00976,-0.01464,-0.0122,-0.00976,0.00244,-0.03416,-0.02928,0.00488,-0.01464,0,-0.0244
-0.00488,0.0122,-0.01952,-0.01708,-0.01464,0.00488,-0.03416,-0.0244,0.00976,-0.01464,0.00976,-0.01464
0.00488,0.00488,-0.01464,-0.01708,-0.01952,0.0122,-0.03416,-0.01464,0.01952,0,0.00976,-0.00488
0.01464,0.00244,-0.01952,-0.02684,-0.03416,0.0244,-0.0488,-0.00488,0.01952,0,0.00488,-0.00976
0.0244,-0.00244,-0.01952,-0.03172,-0.04392,0.03416,-0.05368,-0.00488,0.02928,0.00488,0.00976,-0.00976
0.01464,0.00244,-0.01952,-0.02684,-0.03416,0.0244,-0.05368,-0.00976,0.03416,0.01464,0.01952,0
0.01464,0.00244,-0.01952,-0.02684,-0.03416,0.0244,-0.05856,-0.00976,0.03416,0.01952,0.01952,0.00488
0.01952,-0.00732,-0.00488,-0.01464,-0.0244,0.02196,-0.05856,-0.00976,0.03904,0.01464,0.01952,-0.00976
0.01952,-0.00732,-0.00488,-0.01464,-0.0244,0.02196,-0.05368,0,0.04392,0.01464,0.0244,-0.00488
0.01952,0,-0.01952,-0.02928,-0.03904,0.02928,-0.05368,0.00976,0.03904,0.00976,0.0244,0
0.01952,-0.00244,-0.01464,-0.0244,-0.03416,0.02684,-0.05368,0.00976,0.03904,0.01464,0.01952,0
0.0244,-0.00732,-0.00976,-0.02196,-0.03416,0.02928,-0.0488,0.00976,0.04392,0.01464,0.0244,-0.00976
0.0244,-0.00488,-0.01464,-0.02684,-0.03904,0.03172,-0.0488,0.00976,0.04392,0.01464,0.0244,-0.00976
0.0244,-0.00488,-0.01464,-0.02684,-0.03904,0.03172,-0.05856,0,0.04392,0.0244,0.0244,0
0.0244,-0.00488,-0.01464,-0.02684,-0.03904,0.03172,-0.05856,0,0.04392,0.0244,0.0244,-0.00488
0.0244,-0.00488,-0.01464,-0.02684,-0.03904,0.03172,-0.06344,0.00976,0.05368,0.0244,0.01952,-0.00976
0.02928,-0.00976,-0.00976,-0.0244,-0.03904,0.03416,-0.06344,0.00976,0.05368,0.0244,0.01952,-0.00488
0.02928,-0.00976,-0.00976,-0.0244,-0.03904,0.03416,-0.05368,0.00976,0.04392,0.0244,0.01952,-0.00488
0.02928,-0.00732,-0.01464,-0.02928,-0.04392,0.0366,-0.0488,0.01464,0.0488,0.0244,0.0244,-0.00488
0.03416,-0.01708,0,-0.01708,-0.03416,0.03416,-0.0488,0.00976,0.04392,0.0244,0.0244,-0.01464
0.03416,-0.01708,0,-0.01708,-0.03416,0.03416,-0.0488,0.00976,0.04392,0.0244,0.0244,-0.00976
0.03416,-0.01464,-0.00488,-0.02196,-0.03904,0.0366,-0.0488,0.01952,0.0488,0.01952,0.0244,-0.00976
0.03416,-0.01708,0,-0.01708,-0.03416,0.03416,-0.0488,0.0244,0.0488,0.01952,0.02928,-0.00976
0.03904,-0.0122,-0.01464,-0.03416,-0.05368,0.04636,-0.05368,0.01952,0.03904,0.01464,0.02928,-0.00488
0.03904,-0.00976,-0.01952,-0.03904,-0.05856,0.0488,-0.05368,0.0244,0.03904,0.01952,0.02928,0
0.04392,-0.01952,-0.00488,-0.02684,-0.0488,0.04636,-0.05368,0.01464,0.04392,0.01952,0.02928,-0.00976
0.04392,-0.01464,-0.01464,-0.0366,-0.05856,0.05124,-0.0488,0.01464,0.0488,0.02928,0.03416,-0.00488
0.03416,-0.0122,-0.00976,-0.02684,-0.04392,0.03904,-0.05856,0.01952,0.06344,0.03904,0.03416,-0.00488
0.03904,-0.01708,-0.00488,-0.0244,-0.04392,0.04148,-0.05856,0.0244,0.06344,0.04392,0.03904,-0.00488
0.03904,-0.01464,-0.00976,-0.02928,-0.0488,0.04392,-0.0488,0.03904,0.0732,0.05856,0.0488,0.00488
0.03904,-0.01464,-0.00976,-0.02928,-0.0488,0.04392,-0.0488,0.03416,0.0732,0.05856,0.05368,0.01464
0.0488,-0.0244,0,-0.0244,-0.0488,0.0488,-0.05368,0.03904,0.0732,0.0488,0.04392,0.00976
0.0488,-0.02196,-0.00488,-0.02928,-0.05368,0.05124,-0.05368,0.03904,0.0732,0.0488,0.04392,0.00976
0.0488,-0.01708,-0.01464,-0.03904,-0.06344,0.05612,-0.0488,0.02928,0.07808,0.05368,0.0488,0.01952
0.0488,-0.01708,-0.01464,-0.03904,-0.06344,0.05612,-0.04392,0.04392,0.08296,0.06344,0.05368,0.0244
0.05368,-0.0244,-0.00488,-0.03172,-0.05856,0.05612,-0.04392,0.04392,0.08296,0.06344,0.05368,0.01464
0.05368,-0.02684,0,-0.02684,-0.05368,0.05368,-0.04392,0.04392,0.09272,0.0732,0.05856,0.01464
0.05856,-0.02196,-0.01464,-0.04392,-0.0732,0.06588,-0.04392,0.05368,0.09272,0.0732,0.05856,0.01952
0.05856,-0.02196,-0.01464,-0.04392,-0.0732,0.06588,-0.04392,0.06344,0.0976,0.07808,0.06832,0.01952
0.06344,-0.02196,-0.01952,-0.05124,-0.08296,0.0732,-0.03416,0.06832,0.0976,0.07808,0.0732,0.02928
0.06344,-0.02196,-0.01952,-0.05124,-0.08296,0.0732,-0.03416,0.07808,0.0976,0.07808,0.0732,0.02928
0.05856,-0.01952,-0.01952,-0.0488,-0.07808,0.06832,-0.01952,0.07808,0.11224,0.08784,0.0732,0.02928
0.05856,-0.01952,-0.01952,-0.0488,-0.07808,0.06832,-0.01464,0.08296,0.11712,0.08784,0.07808,0.02928
0.0732,-0.02684,-0.01952,-0.05612,-0.09272,0.08296,-0.0244,0.08296,0.12688,0.10736,0.08784,0.03416
0.0732,-0.02196,-0.02928,-0.06588,-0.10248,0.08784,-0.01952,0.08296,0.13664,0.11224,0.0976,0.03904
0.07808,-0.02928,-0.01952,-0.05856,-0.0976,0.08784,-0.0244,0.09272,0.13664,0.11712,0.10248,0.03904
0.08296,-0.03172,-0.01952,-0.061,-0.10248,0.09272,-0.01952,0.0976,0.14152,0.11712,0.10248,0.03904
0.08296,-0.03172,-0.01952,-0.061,-0.10248,0.09272,-0.01952,0.11224,0.14152,0.12688,0.10736,0.05368
0.08784,-0.02928,-0.02928,-0.0732,-0.11712,0.10248,-0.01952,0.10736,0.1464,0.13176,0.10736,0.05368
0.09272,-0.03904,-0.01464,-0.061,-0.10736,0.10004,-0.01952,0.11224,0.13664,0.122,0.10736,0.05368
0.09272,-0.0366,-0.01952,-0.06588,-0.11224,0.10248,-0.01464,0.10736,0.14152,0.13176,0.11712,0.05856
0.09272,-0.0366,-0.01952,-0.06588,-0.11224,0.10248,-0.01952,0.10736,0.1464,0.122,0.11712,0.05368
0.0976,-0.04148,-0.01464,-0.06344,-0.11224,0.10492,-0.01464,0.10736,0.15616,0.13176,0.122,0.05856
0.0976,-0.04392,-0.00976,-0.05856,-0.10736,0.10248,-0.0244,0.10736,0.15616,0.1464,0.12688,0.05856
0.10736,-0.04636,-0.01464,-0.06832,-0.122,0.11468,-0.0244,0.10736,0.15616,0.1464,0.12688,0.05856
0.0976,-0.04148,-0.01464,-0.06344,-0.11224,0.10492,-0.02928,0.10248,0.16104,0.15616,0.14152,0.0732
0.0976,-0.03904,-0.01952,-0.06832,-0.11712,0.10736,-0.0244,0.10736,0.16104,0.16104,0.1464,0.07808
0.11712,-0.05368,-0.00976,-0.06832,-0.12688,0.122,-0.0244,0.10248,0.15128,0.15616,0.14152,0.07808
0.11712,-0.05612,-0.00488,-0.06344,-0.122,0.11956,-0.02928,0.0976,0.15616,0.15616,0.14152,0.07808
0.122,-0.05856,-0.00488,-0.06588,-0.12688,0.12444,-0.01952,0.0976,0.15616,0.15128,0.13664,0.08296
0.122,-0.061,0,-0.061,-0.122,0.122,-0.01952,0.10736,0.15616,0.1464,0.14152,0.08296
0.12688,-0.06344,0,-0.06344,-0.12688,0.12688,-0.02928,0.11224,0.15128,0.1464,0.15128,0.0976
0.12688,-0.06588,0.00488,-0.05856,-0.122,0.12444,-0.02928,0.09272,0.1464,0.15616,0.15616,0.0976
0.12688,-0.07564,0.0244,-0.03904,-0.10248,0.11468,-0.03416,0.07808,0.15616,0.18056,0.16592,0.10248
0.13176,-0.07808,0.0244,-0.04148,-0.10736,0.11956,-0.03416,0.07808,0.16104,0.18056,0.1708,0.10736
0.12688,-0.07564,0.0244,-0.03904,-0.10248,0.11468,-0.03416,0.09272,0.17568,0.1708,0.16592,0.10736
0.12688,-0.07564,0.0244,-0.03904,-0.10248,0.11468,-0.03416,0.09272,0.18056,0.18056,0.1708,0.11224
0.14152,-0.08784,0.03416,-0.0366,-0.10736,0.12444,-0.03904,0.10248,0.18056,0.1708,0.16104,0.10248
0.13176,-0.08296,0.03416,-0.03172,-0.0976,0.11468,-0.03416,0.10736,0.17568,0.1708,0.16104,0.10248
0.122,-0.07564,0.02928,-0.03172,-0.09272,0.10736,-0.03416,0.11224,0.1708,0.1708,0.16104,0.10248
0.12688,-0.07564,0.0244,-0.03904,-0.10248,0.11468,-0.0244,0.10736,0.1708,0.1708,0.15616,0.10248
0.11712,-0.07564,0.03416,-0.0244,-0.08296,0.10004,-0.0244,0.10736,0.1708,0.16592,0.15616,0.0976
0.11712,-0.07564,0.03416,-0.0244,-0.08296,0.10004,-0.01952,0.11712,0.16104,0.16104,0.15128,0.09272
0.10736,-0.06832,0.02928,-0.0244,-0.07808,0.09272,-0.01952,0.11224,0.16592,0.15128,0.14152,0.08784
0.10248,-0.06344,0.0244,-0.02684,-0.07808,0.09028,-0.00488,0.11224,0.16104,0.14152,0.13664,0.08784
0.0976,-0.05612,0.01464,-0.03416,-0.08296,0.09028,-0.00488,0.10736,0.15128,0.13664,0.12688,0.08296
0.09272,-0.061,0.02928,-0.01708,-0.06344,0.07808,0,0.10736,0.1464,0.12688,0.122,0.07808
0.08784,-0.05856,0.02928,-0.01464,-0.05856,0.0732,0.00976,0.10736,0.12688,0.11712,0.11712,0.06832
0.07808,-0.05124,0.0244,-0.01464,-0.05368,0.06588,0.00976,0.10248,0.122,0.11224,0.10248,0.06344
0.07808,-0.0488,0.01952,-0.01952,-0.05856,0.06832,0.01952,0.0976,0.10736,0.09272,0.09272,0.0488
0.07808,-0.0488,0.01952,-0.01952,-0.05856,0.06832,0.0244,0.09272,0.09272,0.08296,0.08296,0.04392
0.05856,-0.03172,0.00488,-0.0244,-0.05368,0.05612,0.0244,0.07808,0.07808,0.0732,0.08296,0.04392
0.0488,-0.02928,0.00976,-0.01464,-0.03904,0.04392,0.01464,0.05856,0.0732,0.06832,0.08296,0.03904
0.0488,-0.02684,0.00488,-0.01952,-0.04392,0.04636,0.01464,0.05368,0.0732,0.06344,0.07808,0.03416
0.03904,-0.03172,0.0244,0.00488,-0.01464,0.02684,0.01464,0.0488,0.06344,0.05368,0.05856,0.02928
0.04392,-0.02684,0.00976,-0.0122,-0.03416,0.03904,0.00488,0.0488,0.06344,0.04392,0.05856,0.0244
0.04392,-0.02928,0.01464,-0.00732,-0.02928,0.0366,0.00488,0.03904,0.05856,0.03416,0.05368,0.01952
0.0244,-0.02196,0.01952,0.00732,-0.00488,0.01464,0,0.02928,0.05856,0.03904,0.05856,0.01952
0.0244,-0.02196,0.01952,0.00732,-0.00488,0.01464,-0.00488,0.01952,0.04392,0.02928,0.04392,0.00976
0.0244,-0.01708,0.00976,-0.00244,-0.01464,0.01952,-0.00976,0.01464,0.03904,0.02928,0.05368,0.00976
0.01952,-0.01464,0.00976,0,-0.00976,0.01464,-0.00976,0.00976,0.03904,0.01952,0.04392,0.00488
0.01952,-0.01952,0.01952,0.00976,0,0.00976,-0.00976,0.00976,0.02928,0.00976,0.04392,-0.00488
0.0244,-0.01952,0.01464,0.00244,-0.00976,0.01708,-0.00976,-0.00488,0.0244,0.00976,0.03416,-0.00488
0.01952,-0.01464,0.00976,0,-0.00976,0.01464,-0.00488,0.00488,0.01952,0.01464,0.03416,-0.00488
0.01464,-0.0122,0.00976,0.00244,-0.00488,0.00976,-0.00976,0.00488,0.01952,0.01464,0.02928,-0.00976
0.01464,-0.00976,0.00488,-0.00244,-0.00976,0.0122,-0.00976,-0.00976,0.01464,0.00488,0.0244,0
0.01952,-0.0122,0.00488,-0.00488,-0.01464,0.01708,-0.01464,-0.00976,0.01464,0.00488,0.01464,0
0.01952,-0.0122,0.00488,-0.00488,-0.01464,0.01708,0,-0.00976,0.00488,0,0.01464,-0.00488
0.01952,-0.0122,0.00488,-0.00488,-0.01464,0.01708,-0.00976,-0.00976,0.00488,0,0.01464,-0.00976
0.01464,-0.01464,0.01464,0.00732,0,0.00732,-0.01464,-0.00976,0.00488,-0.00976,0.00976,-0.00976
0.01464,-0.01708,0.01952,0.0122,0.00488,0.00488,-0.0244,-0.01952,0.00488,-0.00976,0.00976,-0.00976
0.01952,-0.01708,0.01464,0.00488,-0.00488,0.0122,-0.0244,-0.00488,0,0,0.01464,-0.00488
0.00976,-0.0122,0.01464,0.00976,0.00488,0.00244,-0.0244,-0.00976,0,-0.00488,0.01464,-0.00488
0.01464,-0.00976,0.00488,-0.00244,-0.00976,0.0122,-0.0244,-0.00976,0,-0.00488,0.00976,-0.00488
0.01464,-0.00976,0.00488,-0.00244,-0.00976,0.0122,-0.0244,-0.00488,0.00488,0,0.01464,-0.00488
0.01464,-0.00976,0.00488,-0.00244,-0.00976,0.0122,-0.0244,0,0,-0.00488,0.00488,-0.00976
0.01952,-0.0122,0.00488,-0.00488,-0.01464,0.01708,-0.0244,-0.00488,0,-0.00976,0,-0.00976
0.00488,-0.00488,0.00488,0.00244,0,0.00244,-0.01952,-0.00488,-0.00488,-0.00488,0,-0.00488
0.00976,-0.00244,-0.00488,-0.00976,-0.01464,0.0122,-0.0244,0,0,0,0,-0.00976
0.00976,-0.00732,0.00488,0,-0.00488,0.00732,-0.0244,-0.00976,0,-0.00976,0,-0.00488
0.01464,-0.0122,0.00976,0.00244,-0.00488,0.00976,-0.01952,-0.00976,0.00488,-0.00488,0,-0.00488
0.0244,-0.01464,0.00488,-0.00732,-0.01952,0.02196,-0.03416,0,0.00976,-0.00488,0.01464,-0.00488
0.0244,-0.01708,0.00976,-0.00244,-0.01464,0.01952,-0.03416,0.00488,0.00976,0,0.01464,-0.00488
0.0244,-0.01708,0.00976,-0.00244,-0.01464,0.01952,-0.02928,0.01464,0.01464,0,0.01464,-0.00488
0.02928,-0.01464,0,-0.01464,-0.02928,0.02928,-0.02928,0.01464,0.01464,0.00488,0.01952,0
0.01952,-0.00976,0,-0.00976,-0.01952,0.01952,-0.03904,0.00488,0.00488,0,0.00976,-0.01464
0.01952,-0.00976,0,-0.00976,-0.01952,0.01952,-0.03416,0.00488,0.00488,0,0.00488,-0.01464
0.02928,-0.01464,0,-0.01464,-0.02928,0.02928,-0.02928,0.00488,0.00976,0.00976,0.01464,-0.00488
0.02928,-0.01464,0,-0.01464,-0.02928,0.02928,-0.02928,0.00976,0.01952,0.01464,0.01952,0
0.02928,-0.01464,0,-0.01464,-0.02928,0.02928,-0.03904,0.00488,0.00488,0.00488,0.00976,-0.00976
0.02928,-0.01464,0,-0.01464,-0.02928,0.02928,-0.03904,0.00488,0.00488,0.00488,0.00976,-0.00976
0.03416,-0.01952,0.00488,-0.0122,-0.02928,0.03172,-0.02928,0.01464,0.00976,0.00488,0.00976,-0.00976
0.03416,-0.01708,0,-0.01708,-0.03416,0.03416,-0.02928,0.01464,0.00976,0.00488,0.00976,-0.00976
0.02928,-0.01708,0.00488,-0.00976,-0.0244,0.02684,-0.02928,0,0.00488,0.00488,-0.00488,-0.00488
0.0244,-0.01464,0.00488,-0.00732,-0.01952,0.02196,-0.03416,0.00488,0.00488,0.00488,0,-0.00488
0.03416,-0.01464,-0.00488,-0.02196,-0.03904,0.0366,-0.04392,0,0.00488,0.00976,0.00976,-0.00488
0.03416,-0.00976,-0.01464,-0.03172,-0.0488,0.04148,-0.04392,0,0.00488,0.01464,0.01464,0.00488
0.03416,-0.01708,0,-0.01708,-0.03416,0.03416,-0.04392,-0.00488,0.00488,0.00976,0.01464,0
0.03904,-0.01952,0,-0.01952,-0.03904,0.03904,-0.04392,-0.00488,0.00976,0.00488,0.00976,0
0.03416,-0.01952,0.00488,-0.0122,-0.02928,0.03172,-0.04392,-0.00488,0.01464,0,0.01464,-0.00976
0.02928,-0.01708,0.00488,-0.00976,-0.0244,0.02684,-0.03416,-0.00488,0.01464,0,0.01464,-0.00488
0.0244,-0.01708,0.00976,-0.00244,-0.01464,0.01952,-0.03904,-0.00488,0,-0.00976,0.00976,-0.01464
0.02928,-0.01708,0.00488,-0.00976,-0.0244,0.02684,-0.03904,-0.01464,0,-0.00976,0,-0.00976
0.02928,-0.01464,0,-0.01464,-0.02928,0.02928,-0.04392,-0.00488,-0.00488,-0.00976,-0.00976,-0.01952
0.02928,-0.01708,0.00488,-0.00976,-0.0244,0.02684,-0.03904,-0.00488,-0.01464,-0.01952,-0.00976,-0.01952
0.02928,-0.01708,0.00488,-0.00976,-0.0244,0.02684,-0.0488,-0.01464,-0.01952,-0.01952,-0.00488,-0.01464
0.02928,-0.01708,0.00488,-0.00976,-0.0244,0.02684,-0.05856,-0.02928,-0.01464,-0.00976,0,-0.00488
0.03416,-0.0244,0.01464,-0.00244,-0.01952,0.02684,-0.0488,-0.01952,0.00488,-0.00488,0.00488,-0.00976
0.02928,-0.02196,0.01464,0,-0.01464,0.02196,-0.0488,-0.01952,0.00488,-0.00488,0,-0.00976
0.01952,-0.0122,0.00488,-0.00488,-0.01464,0.01708,-0.0488,-0.00976,-0.00488,-0.00488,0,-0.00488
0.01952,-0.00732,-0.00488,-0.01464,-0.0244,0.02196,-0.04392,-0.01464,-0.00976,-0.00488,0,-0.00488
0.01952,-0.00976,0,-0.00976,-0.01952,0.01952,-0.05368,-0.0244,-0.00488,0.00488,0.00976,-0.00488
0.0244,-0.0122,0,-0.0122,-0.0244,0.0244,-0.05368,-0.0244,-0.00976,0,0.00976,-0.00488
0.0244,-0.01464,0.00488,-0.00732,-0.01952,0.02196,-0.05856,-0.01464,0,0.00488,0,-0.00488
0.01952,-0.0122,0.00488,-0.00488,-0.01464,0.01708,-0.05856,-0.01952,0,0.00488,0,-0.00488
0.01952,-0.00732,-0.00488,-0.01464,-0.0244,0.02196,-0.06344,-0.02928,-0.01464,-0.00488,0,-0.01952
0.0244,-0.00976,-0.00488,-0.01708,-0.02928,0.02684,-0.06344,-0.03416,-0.01464,-0.01464,-0.00488,-0.01952
0.02928,-0.01464,0,-0.01464,-0.02928,0.02928,-0.06344,-0.0244,-0.0244,-0.01464,-0.00976,-0.00976
0.02928,-0.01952,0.00976,-0.00488,-0.01952,0.0244,-0.06832,-0.0244,-0.02928,-0.01464,-0.00976,-0.00976
0.02928,-0.01708,0.00488,-0.00976,-0.0244,0.02684,-0.05856,-0.03416,-0.02928,-0.01464,-0.01464,-0.01952
0.01952,-0.01952,0.01952,0.00976,0,0.00976,-0.05856,-0.02928,-0.01952,-0.00976,-0.00976,-0.01952
0.01952,-0.01952,0.01952,0.00976,0,0.00976,-0.05856,-0.02928,-0.01952,-0.00976,-0.00976,-0.01952
0.01952,-0.01464,0.00976,0,-0.00976,0.01464,-0.06832,-0.02928,-0.00976,0,0,-0.00976
0.01952,-0.01464,0.00976,0,-0.00976,0.01464,-0.06832,-0.02928,-0.00976,0,0,-0.00976
0.01952,-0.01464,0.00976,0,-0.00976,0.01464,-0.06832,-0.03904,-0.01952,-0.00488,-0.00976,-0.01952
0.01952,-0.01464,0.00976,0,-0.00976,0.01464,-0.06832,-0.03904,-0.01952,-0.01464,-0.00976,-0.01952
0.02928,-0.01464,0,-0.01464,-0.02928,0.02928,-0.06832,-0.03904,-0.02928,-0.01952,-0.00976,-0.01952
0.02928,-0.01464,0,-0.01464,-0.02928,0.02928,-0.06832,-0.03904,-0.02928,-0.01952,-0.00976,-0.01952
0.02928,-0.01708,0.00488,-0.00976,-0.0244,0.02684,-0.05856,-0.02928,-0.02928,-0.02928,-0.01464,-0.01952
0.02928,-0.02196,0.01464,0,-0.01464,0.02196,-0.05856,-0.02928,-0.02928,-0.02928,-0.0244,-0.01952
0.01952,-0.01464,0.00976,0,-0.00976,0.01464,-0.05856,-0.03904,-0.03904,-0.02928,-0.01952,-0.01952
0.01952,-0.01464,0.00976,0,-0.00976,0.01464,-0.05856,-0.03904,-0.03904,-0.02928,-0.01952,-0.01952
0.02928,-0.0244,0.01952,0.00488,-0.00976,0.01952,-0.06832,-0.03904,-0.02928,-0.01952,-0.00976,-0.00976
0.02928,-0.0244,0.01952,0.00488,-0.00976,0.01952,-0.06832,-0.03904,-0.02928,-0.01952,-0.00976,-0.00976
0.02928,-0.0244,0.01952,0.00488,-0.00976,0.01952,-0.06832,-0.02928,-0.01952,-0.00976,0,-0.00976
0.02928,-0.0244,0.01952,0.00488,-0.00976,0.01952,-0.06832,-0.02928,-0.01952,-0.00976,0,-0.00976
0.02928,-0.01952,0.00976,-0.00488,-0.01952,0.0244,-0.06832,-0.03904,-0.00976,0,-0.00976,0
0.02928,-0.01952,0.00976,-0.00488,-0.01952,0.0244,-0.06832,-0.03904,-0.00976,0,-0.00976,0
0.02928,-0.01464,0,-0.01464,-0.02928,0.02928,-0.06832,-0.03904,-0.01952,-0.00976,-0.00976,-0.00976
0.02928,-0.01464,0,-0.01464,-0.02928,0.02928,-0.06832,-0.03904,-0.01952,-0.00976,-0.00976,-0.00976
0.02928,-0.01952,0.00976,-0.00488,-0.01952,0.0244,-0.05856,-0.02928,-0.00976,0,0,0
0.02928,-0.01952,0.00976,-0.00488,-0.01952,0.0244,-0.05856,-0.02928,-0.00976,0,0,0
0.03904,-0.02928,0.01952,0,-0.01952,0.02928,-0.0488,-0.01952,-0.00976,-0.00976,-0.00976,-0.00976
0.03904,-0.02928,0.01952,0,-0.01952,0.02928,-0.0488,-0.01952,-0.00976,-0.00976,-0.00976,-0.00976
0.03904,-0.03416,0.02928,0.00976,-0.00976,0.0244,-0.0488,-0.01952,-0.00976,0,0,0
0.03904,-0.03416,0.02928,0.00976,-0.00976,0.0244,-0.0488,-0.01952,-0.00976,0,0,0
0.03904,-0.02928,0.01952,0,-0.01952,0.02928,-0.03904,-0.01952,0,0,0,-0.00976
0.03904,-0.02928,0.01952,0,-0.01952,0.02928,-0.03904,-0.01952,0,0,0,-0.00976
0.02928,-0.02928,0.02928,0.01464,0,0.01464,-0.03904,-0.00976,0,0,0,-0.00976
0.02928,-0.02928,0.02928,0.01464,0,0.01464,-0.03904,-0.00976,0,0,0,-0.00976
0.02928,-0.02928,0.02928,0.01464,0,0.01464,-0.03904,-0.00976,0,0,-0.00976,-0.00976
0.02928,-0.02928,0.02928,0.01464,0,0.01464,-0.03904,-0.00976,0,0,-0.00976,-0.00976
0.03904,-0.03416,0.02928,0.00976,-0.00976,0.0244,-0.0488,-0.00976,-0.00976,0,0,0
0.03904,-0.03416,0.02928,0.00976,-0.00976,0.0244,-0.0488,-0.00976,-0.00976,0,0,0
0.03416,-0.01952,0.00488,-0.0122,-0.02928,0.03172,-0.0488,-0.00976,0,0.00976,0,0
0.03904,-0.02196,0.00488,-0.01464,-0.03416,0.0366,-0.05856,-0.01952,-0.00488,0.00488,0,0
0.03904,-0.02684,0.01464,-0.00488,-0.0244,0.03172,-0.06832,-0.02928,-0.01464,-0.00488,0,-0.00488
0.04392,-0.03416,0.0244,0.00244,-0.01952,0.03172,-0.0732,-0.03904,-0.0244,-0.00976,-0.00976,0
0.03416,-0.02928,0.0244,0.00732,-0.00976,0.02196,-0.07808,-0.04392,-0.0244,-0.01464,-0.00976,-0.00488
0.02928,-0.0244,0.01952,0.00488,-0.00976,0.01952,-0.08784,-0.0488,-0.0244,-0.01952,-0.01464,-0.00976
0.02928,-0.02196,0.01464,0,-0.01464,0.02196,-0.07808,-0.04392,-0.01952,-0.01464,-0.01464,-0.00976
0.02928,-0.02196,0.01464,0,-0.01464,0.02196,-0.08784,-0.05368,-0.03416,-0.01952,-0.01952,-0.00976
0.0244,-0.01952,0.01464,0.00244,-0.00976,0.01708,-0.08784,-0.05856,-0.02928,-0.00488,-0.00976,-0.00976
0.0244,-0.01952,0.01464,0.00244,-0.00976,0.01708,-0.08784,-0.05856,-0.02928,-0.00488,-0.00976,-0.00976
0.03416,-0.03416,0.03416,0.01708,0,0.01708,-0.08784,-0.0488,-0.03416,-0.00976,-0.01464,-0.0244
0.03416,-0.0244,0.01464,-0.00244,-0.01952,0.02684,-0.09272,-0.0488,-0.03416,-0.0244,-0.01952,-0.0244
0.03416,-0.02196,0.00976,-0.00732,-0.0244,0.02928,-0.08296,-0.06344,-0.03416,-0.01952,-0.0244,-0.0244
0.02928,-0.02196,0.01464,0,-0.01464,0.02196,-0.08296,-0.06344,-0.03416,-0.0244,-0.02928,-0.0244
0.03416,-0.0244,0.01464,-0.00244,-0.01952,0.02684,-0.08296,-0.06344,-0.02928,-0.01464,-0.02928,-0.01464
0.03416,-0.01708,0,-0.01708,-0.03416,0.03416,-0.08296,-0.06344,-0.0244,-0.01464,-0.01464,-0.01464
0.03904,-0.01952,0,-0.01952,-0.03904,0.03904,-0.08296,-0.05368,-0.01952,-0.01952,-0.01952,-0.00976
0.03904,-0.02196,0.00488,-0.01464,-0.03416,0.0366,-0.08296,-0.05368,-0.0244,-0.01952,-0.01952,-0.00976
0.03416,-0.02928,0.0244,0.00732,-0.00976,0.02196,-0.09272,-0.05856,-0.03416,-0.0244,-0.00976,-0.01952
0.03416,-0.02928,0.0244,0.00732,-0.00976,0.02196,-0.0976,-0.06344,-0.04392,-0.02928,-0.01464,-0.01952
0.04392,-0.03172,0.01952,-0.00244,-0.0244,0.03416,-0.0976,-0.05368,-0.03904,-0.00976,-0.00976,-0.01464
0.0488,-0.03416,0.01952,-0.00488,-0.02928,0.03904,-0.0976,-0.05368,-0.03416,-0.01464,-0.00976,-0.00488
0.03904,-0.02684,0.01464,-0.00488,-0.0244,0.03172,-0.08784,-0.04392,-0.0244,-0.00488,-0.00488,0.00488
0.04392,-0.01952,-0.00488,-0.02684,-0.0488,0.04636,-0.08296,-0.04392,-0.01952,-0.00488,0,0.00976
0.04392,-0.0244,0.00488,-0.01708,-0.03904,0.04148,-0.07808,-0.03904,-0.02928,-0.00488,0,0
0.04392,-0.02196,0,-0.02196,-0.04392,0.04392,-0.07808,-0.03904,-0.02928,-0.00488,0,-0.00488
0.02928,-0.00732,-0.01464,-0.02928,-0.04392,0.0366,-0.0732,-0.0488,-0.02928,-0.00488,-0.00488,-0.00488
0.0244,-0.00244,-0.01952,-0.03172,-0.04392,0.03416,-0.0732,-0.0488,-0.02928,-0.00488,-0.00488,-0.00488
0.03416,-0.0122,-0.00976,-0.02684,-0.04392,0.03904,-0.08296,-0.05856,-0.02928,-0.00488,-0.00488,-0.00976
0.03416,-0.01464,-0.00488,-0.02196,-0.03904,0.0366,-0.07808,-0.05856,-0.02928,-0.00488,-0.00488,-0.00976
0.02928,-0.00976,-0.00976,-0.0244,-0.03904,0.03416,-0.08296,-0.05368,-0.03416,-0.01952,-0.01952,-0.01952
0.02928,-0.0122,-0.00488,-0.01952,-0.03416,0.03172,-0.07808,-0.04392,-0.02928,-0.01952,-0.01952,-0.01952
0.01464,-0.00488,-0.00488,-0.0122,-0.01952,0.01708,-0.0732,-0.03904,-0.02928,-0.00976,-0.01464,-0.00976
0.00976,0,-0.00976,-0.01464,-0.01952,0.01464,-0.0732,-0.03904,-0.02928,-0.00976,-0.01952,-0.01464
0.01464,-0.00488,-0.00488,-0.0122,-0.01952,0.01708,-0.0732,-0.03904,-0.04392,-0.0244,-0.01952,-0.0244
0.01464,-0.00488,-0.00488,-0.0122,-0.01952,0.01708,-0.0732,-0.0488,-0.04392,-0.0244,-0.0244,-0.02928
0.01464,0,-0.01464,-0.02196,-0.02928,0.02196,-0.0732,-0.04392,-0.03904,-0.01952,-0.0244,-0.0244
0.00976,0.00244,-0.01464,-0.01952,-0.0244,0.01708,-0.0732,-0.04392,-0.03416,-0.01464,-0.01464,-0.01464
0.01464,-0.00488,-0.00488,-0.0122,-0.01952,0.01708,-0.06344,-0.03416,-0.0244,-0.01464,-0.01464,-0.01952
0.01464,-0.00244,-0.00976,-0.01708,-0.0244,0.01952,-0.06344,-0.03904,-0.01952,-0.00976,-0.01464,-0.01464
0.00488,0.00244,-0.00976,-0.0122,-0.01464,0.00976,-0.08296,-0.03904,-0.03416,-0.00976,-0.01464,-0.00976
0.01464,0.00976,-0.03416,-0.04148,-0.0488,0.03172,-0.06344,-0.03904,-0.0244,-0.00976,-0.01464,-0.01952
0.00488,0.02684,-0.05856,-0.061,-0.06344,0.03416,-0.0488,-0.0244,-0.03416,-0.01464,-0.01952,-0.02928
0,0.03904,-0.07808,-0.07808,-0.07808,0.03904,-0.01464,0.01952,-0.00976,-0.00488,-0.01952,-0.03416
-0.00976,0.0488,-0.08784,-0.08296,-0.07808,0.03416,0.01952,0.08784,0.01952,0.00976,-0.0244,-0.03416
0,0.04148,-0.08296,-0.08296,-0.08296,0.04148,0.05856,0.16104,0.07808,0.03904,0,-0.02928
-0.00976,0.03172,-0.05368,-0.0488,-0.04392,0.01708,0.03904,0.1708,0.13664,0.08784,0.02928,-0.00488
0.02928,-0.00488,-0.01952,-0.03416,-0.0488,0.03904,0.0488,0.23424,0.24888,0.19032,0.0976,0.04392
0.04392,-0.03172,0.01952,-0.00244,-0.0244,0.03416,0.06832,0.30744,0.35624,0.26352,0.15128,0.08296
0.07808,-0.08052,0.08296,0.04392,0.00488,0.0366,0.11224,0.42944,0.50264,0.38552,0.23912,0.15128
0.0976,-0.10248,0.10736,0.05856,0.00976,0.04392,0.20008,0.58072,0.66368,0.51728,0.33672,0.2196
0.08784,-0.122,0.15616,0.11224,0.06832,0.00976,0.28304,0.71248,0.78568,0.61488,0.40992,0.2684
0.02928,-0.10492,0.18056,0.16592,0.15128,-0.061,0.35136,0.72224,0.7564,0.5856,0.38552,0.25864
-0.1464,-0.0366,0.2196,0.2928,0.366,-0.2562,0.34648,0.45384,0.4392,0.33184,0.21472,0.1708
-0.37088,0.0732,0.22448,0.40992,0.59536,-0.48312,0.28792,-0.01464,-0.23912,-0.20008,-0.13664,-0.05368
-0.5124,0.16348,0.18544,0.44164,0.69784,-0.60512,0.24888,-0.34648,-0.67832,-0.56608,-0.40016,-0.23424
-0.64904,0.24644,0.15616,0.48068,0.8052,-0.72712,0.33672,-0.33184,-0.72712,-0.67344,-0.5368,-0.366
-0.72224,0.31232,0.0976,0.45872,0.81984,-0.77104,0.43432,-0.23912,-0.64904,-0.65392,-0.5612,-0.40992
-0.67344,0.29524,0.08296,0.41968,0.7564,-0.71492,0.44896,-0.1708,-0.58072,-0.59536,-0.5368,-0.40992
-0.5856,0.27328,0.03904,0.33184,0.62464,-0.60512,0.47336,-0.08784,-0.48312,-0.50264,-0.44896,-0.366
-0.5612,0.28548,-0.00976,0.27084,0.55144,-0.55632,0.47336,-0.10736,-0.49776,-0.51728,-0.47336,-0.38064
-0.52216,0.29524,-0.06832,0.19276,0.45384,-0.488,0.52216,-0.06832,-0.49288,-0.5124,-0.47336,-0.39528
-0.49776,0.31964,-0.14152,0.10736,0.35624,-0.427,0.5124,-0.09272,-0.488,-0.50264,-0.45872,-0.3904
-0.43432,0.28792,-0.14152,0.07564,0.2928,-0.36356,0.49288,-0.0976,-0.45384,-0.47336,-0.4392,-0.37088
-0.40992,0.29524,-0.18056,0.0244,0.22936,-0.31964,0.5124,-0.13176,-0.44408,-0.44408,-0.40016,-0.34648
-0.40016,0.29036,-0.18056,0.01952,0.2196,-0.30988,0.54168,-0.1708,-0.44408,-0.43432,-0.3904,-0.32696
-0.40992,0.2928,-0.17568,0.02928,0.23424,-0.32208,0.58072,-0.16592,-0.40504,-0.40992,-0.366,-0.31232
-0.3904,0.29768,-0.20496,-0.00976,0.18544,-0.28792,0.61488,-0.15128,-0.36112,-0.35624,-0.32208,-0.2928
-0.366,0.27084,-0.17568,0.00732,0.19032,-0.27816,0.51728,-0.19032,-0.32208,-0.31232,-0.28792,-0.25376
-0.3416,0.26108,-0.18056,-0.00976,0.16104,-0.25132,0.40992,-0.22448,-0.28304,-0.26352,-0.24888,-0.21472
-0.30256,0.24156,-0.18056,-0.02928,0.122,-0.21228,0.37088,-0.1952,-0.25376,-0.24888,-0.22936,-0.20496
-0.28792,0.24156,-0.1952,-0.05124,0.09272,-0.19032,0.32208,-0.17568,-0.22448,-0.20984,-0.20008,-0.1708
-0.244,0.20984,-0.17568,-0.05368,0.06832,-0.15616,0.2196,-0.18544,-0.20496,-0.18544,-0.17568,-0.16104
-0.2196,0.19276,-0.16592,-0.05612,0.05368,-0.13664,0.19032,-0.16104,-0.20008,-0.18544,-0.16592,-0.15616
-0.1952,0.17568,-0.15616,-0.05856,0.03904,-0.11712,0.1464,-0.12688,-0.1708,-0.1464,-0.13664,-0.12688
-0.1464,0.13664,-0.12688,-0.05368,0.01952,-0.08296,0.08784,-0.10248,-0.13176,-0.11224,-0.11224,-0.0976
-0.10248,0.09516,-0.08784,-0.0366,0.01464,-0.05856,0.03904,-0.08784,-0.10248,-0.09272,-0.09272,-0.08784
-0.08296,0.0732,-0.06344,-0.02196,0.01952,-0.05124,0.00976,-0.0732,-0.06832,-0.05856,-0.0732,-0.0732
-0.04392,0.04392,-0.04392,-0.02196,0,-0.02196,-0.01464,-0.05856,-0.0488,-0.03904,-0.05368,-0.05368
-0.03416,0.03416,-0.03416,-0.01708,0,-0.01708,-0.0244,-0.03416,-0.04392,-0.03416,-0.03904,-0.0488
-0.00976,0.02684,-0.04392,-0.03904,-0.03416,0.0122,-0.0244,-0.01464,-0.01952,-0.00976,-0.0244,-0.02928
-0.00976,0.01708,-0.0244,-0.01952,-0.01464,0.00244,-0.01464,-0.00488,-0.00488,-0.00488,-0.01464,-0.0244
0.00976,0.00732,-0.0244,-0.02928,-0.03416,0.02196,-0.0244,0.00976,0.00488,0.00976,-0.00976,-0.01952
0.01464,0.00244,-0.01952,-0.02684,-0.03416,0.0244,-0.02928,0.01464,0.00976,0.00976,-0.00488,-0.01464
0.01952,0,-0.01952,-0.02928,-0.03904,0.02928,-0.02928,0.01464,0.00976,0.01464,-0.00488,-0.01952
0.0244,-0.00244,-0.01952,-0.03172,-0.04392,0.03416,-0.03416,0.01464,0.01952,0.01952,0,-0.01952
0.01464,0.00244,-0.01952,-0.02684,-0.03416,0.0244,-0.03416,0.02928,0.0244,0.02928,0,-0.01464
0.01952,0,-0.01952,-0.02928,-0.03904,0.02928,-0.03904,0.02928,0.01952,0.0244,0,-0.01952
0.01952,-0.00732,-0.00488,-0.01464,-0.0244,0.02196,-0.03904,0.0244,0.0244,0.0244,-0.00976,-0.01952
0.01952,-0.00488,-0.00976,-0.01952,-0.02928,0.0244,-0.03416,0.02928,0.02928,0.0244,-0.00488,-0.00976
0.01952,0,-0.01952,-0.02928,-0.03904,0.02928,-0.04392,0.01952,0.01952,0.0244,0.00488,-0.00976
0.01952,-0.00488,-0.00976,-0.01952,-0.02928,0.0244,-0.0488,0.00976,0.0244,0.0244,0.00488,-0.00976
0.03416,-0.00976,-0.01464,-0.03172,-0.0488,0.04148,-0.0488,0.01952,0.0244,0.0244,0.00488,-0.00976
0.03416,-0.00976,-0.01464,-0.03172,-0.0488,0.04148,-0.0488,0.01952,0.0244,0.0244,0.00488,-0.00976
0.0244,-0.00488,-0.01464,-0.02684,-0.03904,0.03172,-0.03904,0.02928,0.0244,0.03416,0.01464,-0.00488
0.0244,-0.00488,-0.01464,-0.02684,-0.03904,0.03172,-0.04392,0.02928,0.0244,0.03416,0.01952,0.00488
0.02928,-0.0122,-0.00488,-0.01952,-0.03416,0.03172,-0.04392,0.02928,0.0244,0.0244,0.01952,-0.00976
0.02928,-0.01464,0,-0.01464,-0.02928,0.02928,-0.04392,0.02928,0.0244,0.0244,0.01952,-0.00488
0.01952,-0.00244,-0.01464,-0.0244,-0.03416,0.02684,-0.04392,0.03416,0.02928,0.0244,0.01464,-0.00488
0.01952,0,-0.01952,-0.02928,-0.03904,0.02928,-0.03904,0.03416,0.0244,0.0244,0.01464,-0.00488
0.0244,0.00244,-0.02928,-0.04148,-0.05368,0.03904,-0.03904,0.03904,0.0244,0.0244,0.0244,0
0.0244,0.00244,-0.02928,-0.04148,-0.05368,0.03904,-0.0488,0.03904,0.0244,0.02928,0.0244,0
0.03416,-0.00488,-0.0244,-0.04148,-0.05856,0.04636,-0.03904,0.03904,0.01952,0.01952,0.01952,-0.00976
0.03904,-0.01464,-0.00976,-0.02928,-0.0488,0.04392,-0.04392,0.04392,0.01952,0.01952,0.01952,-0.00976
0.02928,-0.00244,-0.0244,-0.03904,-0.05368,0.04148,-0.04392,0.03904,0.01952,0.01464,0.00976,-0.01464
0.02928,0,-0.02928,-0.04392,-0.05856,0.04392,-0.04392,0.04392,0.01952,0.01952,0.00976,-0.00976
0.03416,0,-0.03416,-0.05124,-0.06832,0.05124,-0.04392,0.04392,0.04392,0.02928,0.02928,0
0.03416,0.00488,-0.04392,-0.061,-0.07808,0.05612,-0.03904,0.04392,0.05856,0.0488,0.04392,0.00488
0.03416,-0.00488,-0.0244,-0.04148,-0.05856,0.04636,-0.03904,0.05368,0.06344,0.06344,0.0488,0.00488
0.03904,-0.00488,-0.02928,-0.0488,-0.06832,0.05368,-0.03904,0.05856,0.0732,0.06832,0.0488,0.00488
0.03904,-0.00488,-0.02928,-0.0488,-0.06832,0.05368,-0.03904,0.05368,0.06344,0.05856,0.04392,0.01464
0.03904,-0.00488,-0.02928,-0.0488,-0.06832,0.05368,-0.03904,0.05856,0.06344,0.0488,0.04392,0.01464
0.03904,-0.00488,-0.02928,-0.0488,-0.06832,0.05368,-0.03416,0.05856,0.05368,0.0488,0.03416,0
0.03904,-0.00244,-0.03416,-0.05368,-0.0732,0.05612,-0.03904,0.05856,0.05368,0.0488,0.03416,0
0.03904,0.00244,-0.04392,-0.06344,-0.08296,0.061,-0.03416,0.06832,0.05856,0.06344,0.0488,0.01464
0.03904,-0.00244,-0.03416,-0.05368,-0.0732,0.05612,-0.03416,0.0732,0.06344,0.06344,0.05368,0.01464
0.04392,-0.00732,-0.02928,-0.05124,-0.0732,0.05856,-0.0244,0.0732,0.06832,0.05368,0.04392,0.00488
0.0488,-0.00732,-0.03416,-0.05856,-0.08296,0.06588,-0.0244,0.0732,0.0732,0.06344,0.0488,0.00976
0.05856,-0.02196,-0.01464,-0.04392,-0.0732,0.06588,-0.03416,0.08296,0.0732,0.06344,0.0488,0.00976
0.05856,-0.0244,-0.00976,-0.03904,-0.06832,0.06344,-0.03416,0.08296,0.07808,0.07808,0.06344,0.01952
0.05368,-0.01708,-0.01952,-0.04636,-0.0732,0.06344,-0.03416,0.0976,0.08784,0.08784,0.0732,0.02928
0.05856,-0.01464,-0.02928,-0.05856,-0.08784,0.0732,-0.02928,0.0976,0.08784,0.08784,0.0732,0.02928
0.05856,-0.00976,-0.03904,-0.06832,-0.0976,0.07808,-0.0244,0.10248,0.0976,0.0976,0.07808,0.02928
0.06344,-0.0122,-0.03904,-0.07076,-0.10248,0.08296,-0.0244,0.10248,0.0976,0.0976,0.07808,0.03416
0.06344,-0.00976,-0.04392,-0.07564,-0.10736,0.0854,-0.01464,0.11224,0.10736,0.10736,0.09272,0.04392
0.06832,-0.00976,-0.0488,-0.08296,-0.11712,0.09272,-0.00976,0.11712,0.11712,0.11712,0.10248,0.0488
0.06832,-0.01464,-0.03904,-0.0732,-0.10736,0.08784,-0.0244,0.11712,0.10736,0.10736,0.09272,0.0488
0.0732,-0.01708,-0.03904,-0.07564,-0.11224,0.09272,-0.01952,0.11224,0.11224,0.11224,0.09272,0.0488
0.08784,-0.01952,-0.0488,-0.09272,-0.13664,0.11224,-0.01952,0.11712,0.10248,0.0976,0.08784,0.04392
0.08784,-0.02196,-0.04392,-0.08784,-0.13176,0.1098,-0.01952,0.12688,0.0976,0.09272,0.07808,0.03416
0.08296,-0.02196,-0.03904,-0.08052,-0.122,0.10248,-0.01464,0.122,0.10736,0.10736,0.10248,0.0488
0.08296,-0.02196,-0.03904,-0.08052,-0.122,0.10248,-0.01952,0.11712,0.11224,0.11224,0.10736,0.05368
0.08296,-0.03172,-0.01952,-0.061,-0.10248,0.09272,-0.03904,0.11712,0.12688,0.14152,0.11712,0.06832
0.08784,-0.03904,-0.00976,-0.05368,-0.0976,0.09272,-0.03416,0.11712,0.1464,0.15128,0.12688,0.06832
0.0976,-0.04148,-0.01464,-0.06344,-0.11224,0.10492,-0.03416,0.11712,0.13664,0.1464,0.12688,0.06832
0.0976,-0.04148,-0.01464,-0.06344,-0.11224,0.10492,-0.03416,0.11712,0.13664,0.1464,0.12688,0.06832
0.0976,-0.04148,-0.01464,-0.06344,-0.11224,0.10492,-0.03904,0.11224,0.13176,0.1464,0.13176,0.0732
0.10248,-0.0366,-0.02928,-0.08052,-0.13176,0.11712,-0.03416,0.122,0.13176,0.15616,0.14152,0.08296
0.11712,-0.0488,-0.01952,-0.07808,-0.13664,0.12688,-0.03416,0.10736,0.13176,0.1464,0.15128,0.08784
0.11712,-0.05124,-0.01464,-0.0732,-0.13176,0.12444,-0.03904,0.10736,0.13664,0.1464,0.15128,0.09272
0.122,-0.05368,-0.01464,-0.07564,-0.13664,0.12932,-0.03904,0.10248,0.12688,0.1464,0.1464,0.09272
0.122,-0.05612,-0.00976,-0.07076,-0.13176,0.12688,-0.03904,0.10736,0.13176,0.15128,0.15128,0.0976
0.11712,-0.05612,-0.00488,-0.06344,-0.122,0.11956,-0.03904,0.10736,0.12688,0.15128,0.14152,0.0976
0.11712,-0.05368,-0.00976,-0.06832,-0.12688,0.122,-0.03904,0.10736,0.13176,0.15616,0.1464,0.0976
0.122,-0.05856,-0.00488,-0.06588,-0.12688,0.12444,-0.04392,0.10736,0.13664,0.16104,0.15616,0.0976
0.122,-0.05856,-0.00488,-0.06588,-0.12688,0.12444,-0.04392,0.10736,0.13664,0.16104,0.16592,0.0976
0.12688,-0.06588,0.00488,-0.05856,-0.122,0.12444,-0.05368,0.10248,0.15616,0.18056,0.18056,0.11224
0.13176,-0.07808,0.0244,-0.04148,-0.10736,0.11956,-0.05368,0.10248,0.16104,0.19032,0.18056,0.11224
0.13176,-0.0732,0.01464,-0.05124,-0.11712,0.12444,-0.0488,0.11224,0.15616,0.18056,0.18056,0.11224
0.122,-0.07076,0.01952,-0.04148,-0.10248,0.11224,-0.03416,0.11712,0.16104,0.18056,0.18056,0.11224
0.12688,-0.07076,0.01464,-0.0488,-0.11224,0.11956,-0.03416,0.122,0.1708,0.1708,0.18056,0.11224
0.11712,-0.06588,0.01464,-0.04392,-0.10248,0.1098,-0.0244,0.11712,0.1708,0.16592,0.17568,0.11224
0.11712,-0.07076,0.0244,-0.03416,-0.09272,0.10492,-0.03416,0.11712,0.16104,0.16104,0.16104,0.10248
0.11224,-0.06832,0.0244,-0.03172,-0.08784,0.10004,-0.02928,0.12688,0.16592,0.15616,0.16104,0.10248
0.11224,-0.07076,0.02928,-0.02684,-0.08296,0.0976,-0.00976,0.13176,0.15128,0.1464,0.1464,0.08784
0.10736,-0.06588,0.0244,-0.02928,-0.08296,0.09516,-0.00488,0.13176,0.13664,0.14152,0.1464,0.08784
0.09272,-0.05368,0.01464,-0.03172,-0.07808,0.0854,-0.00488,0.12688,0.12688,0.13176,0.122,0.07808
0.07808,-0.0488,0.01952,-0.01952,-0.05856,0.06832,0.00488,0.12688,0.122,0.122,0.122,0.06832
0.07808,-0.04636,0.01464,-0.0244,-0.06344,0.07076,0.01952,0.12688,0.122,0.11224,0.11712,0.06344
0.06344,-0.03904,0.01464,-0.01708,-0.0488,0.05612,0.01952,0.122,0.122,0.10736,0.11224,0.06344
0.06832,-0.04392,0.01952,-0.01464,-0.0488,0.05856,0.01952,0.11712,0.10736,0.0976,0.10248,0.05368
0.06344,-0.03904,0.01464,-0.01708,-0.0488,0.05612,0.02928,0.11224,0.0976,0.08784,0.0976,0.0488
0.04392,-0.02684,0.00976,-0.0122,-0.03416,0.03904,0.01952,0.09272,0.07808,0.06832,0.08296,0.02928
0.03904,-0.0244,0.00976,-0.00976,-0.02928,0.03416,0.01952,0.08784,0.06832,0.05368,0.06832,0.0244
0.0488,-0.02928,0.00976,-0.01464,-0.03904,0.04392,0.0244,0.09272,0.0488,0.03416,0.05856,0.01952
0.03416,-0.01708,0,-0.01708,-0.03416,0.03416,0.0244,0.08784,0.03904,0.01952,0.0488,0.01464
0.03416,-0.01464,-0.00488,-0.02196,-0.03904,0.0366,0.0244,0.0732,0.03904,0.02928,0.05368,0.00976
0.0244,-0.00732,-0.00976,-0.02196,-0.03416,0.02928,0.0244,0.06832,0.04392,0.03416,0.05368,0.00976
0.0244,-0.0122,0,-0.0122,-0.0244,0.0244,0.00976,0.05368,0.02928,0.0244,0.0488,0
0.0244,-0.0122,0,-0.0122,-0.0244,0.0244,0.00488,0.04392,0.0244,0.01952,0.04392,0
0.01952,-0.00976,0,-0.00976,-0.01952,0.01952,0.00976,0.03904,0.01952,0.01952,0.03416,-0.00488
0.01952,-0.00976,0,-0.00976,-0.01952,0.01952,0.00976,0.03904,0.01952,0.01952,0.03416,-0.00488
0,0,0,0,0,0,0.00976,0.02928,0.01464,0.01952,0.03904,0.00488
0.00488,0,-0.00488,-0.00732,-0.00976,0.00732,0.00488,0.0244,0.00976,0.01952,0.04392,0.00488
0,0.00488,-0.00976,-0.00976,-0.00976,0.00488,0,0.01464,0.00976,0.00488,0.02928,0.00488
-0.01464,0.01464,-0.01464,-0.00732,0,-0.00732,0,0.01464,0,0.00488,0.02928,0
0,0.00244,-0.00488,-0.00488,-0.00488,0.00244,-0.00488,0.01952,-0.00488,0.00488,0.02928,0
0.00976,-0.00732,0.00488,0,-0.00488,0.00732,0,0.01952,-0.00488,0,0.0244,0
0.00976,-0.00732,0.00488,0,-0.00488,0.00732,0,0.00976,0.00488,0.00976,0.0244,0
0.00488,-0.00488,0.00488,0.00244,0,0.00244,0,0.00976,0.00488,0.00976,0.03416,0
0.01464,-0.00732,0,-0.00732,-0.01464,0.01464,-0.00488,0,0.00488,0.00976,0.02928,0.00976
0.01464,-0.00732,0,-0.00732,-0.01464,0.01464,-0.01464,0,0.00488,0.00976,0.03416,0.01464
0.00976,-0.00732,0.00488,0,-0.00488,0.00732,-0.01464,0.00488,-0.00976,0,0.0244,0.00488
0,-0.00732,0.01464,0.01464,0.01464,-0.00732,-0.01464,0,-0.00976,-0.01464,0.00976,-0.00976
0.00488,-0.00488,0.00488,0.00244,0,0.00244,-0.00488,0.00976,-0.01952,-0.0244,0,-0.0244
0.00488,0,-0.00488,-0.00732,-0.00976,0.00732,-0.00488,0.01952,-0.01464,-0.01464,0.00488,-0.01952
0,0.00244,-0.00488,-0.00488,-0.00488,0.00244,-0.00488,0.00488,-0.00976,-0.00976,0.00976,-0.01952
-0.00488,0.00488,-0.00488,-0.00244,0,-0.00244,-0.00488,0.00488,-0.01464,-0.00488,0.01952,-0.01464
0,-0.00244,0.00488,0.00488,0.00488,-0.00244,-0.00976,0.00976,0,-0.00488,0.02928,-0.00488
0,0.00244,-0.00488,-0.00488,-0.00488,0.00244,-0.01464,0.00976,0,0,0.02928,-0.00976
0.01464,-0.00244,-0.00976,-0.01708,-0.0244,0.01952,-0.00976,0.01952,0.00976,0.01464,0.03904,0.00488
0.01464,-0.00244,-0.00976,-0.01708,-0.0244,0.01952,-0.01464,0.01952,0.0244,0.0244,0.0488,0.00488
0.01464,-0.00976,0.00488,-0.00244,-0.00976,0.0122,-0.00488,0.00976,0.01952,0.01952,0.04392,0.00488
0.01464,-0.0122,0.00976,0.00244,-0.00488,0.00976,-0.00488,0.01464,0.01952,0.00976,0.04392,0.00488
0.00976,-0.00488,0,-0.00488,-0.00976,0.00976,-0.00976,0.0244,0.01464,0.01464,0.03416,0.00488
0.00976,0.00488,-0.01952,-0.0244,-0.02928,0.01952,-0.00976,0.0244,0.01464,0.00976,0.03904,0.00976
0,0.00488,-0.00976,-0.00976,-0.00976,0.00488,-0.00488,0.01464,0.00488,0,0.0244,-0.00488
0,0,0,0,0,0,-0.00976,0.01464,0,0,0.0244,-0.01464
0.00976,0,-0.00976,-0.01464,-0.01952,0.01464,-0.00976,0.01952,0.01464,0.00976,0.03904,0
0.00976,0,-0.00976,-0.01464,-0.01952,0.01464,-0.00976,0.01464,0.01952,0.01464,0.03904,0
0.00976,0,-0.00976,-0.01464,-0.01952,0.01464,-0.00976,0.01464,0.00488,0.00488,0.03904,-0.00976
0.01464,-0.00488,-0.00488,-0.0122,-0.01952,0.01708,-0.00976,0.01464,0.00976,0.00488,0.03904,-0.00976
0.01464,-0.00244,-0.00976,-0.01708,-0.0244,0.01952,-0.01952,0.0244,0.00976,0.01464,0.03904,0
0.01464,-0.00244,-0.00976,-0.01708,-0.0244,0.01952,-0.00976,0.01952,0.00488,0.01464,0.03416,0
0.00976,-0.00244,-0.00488,-0.00976,-0.01464,0.0122,-0.0244,0.01464,0.00488,0.01464,0.04392,0.00488
0.00488,0,-0.00488,-0.00732,-0.00976,0.00732,-0.0244,0.01464,0.00488,0.00976,0.0488,0.00488
0.01464,0,-0.01464,-0.02196,-0.02928,0.02196,-0.01464,0.00976,0.00488,0.00488,0.03904,0
0.01464,-0.00244,-0.00976,-0.01708,-0.0244,0.01952,-0.01464,0.00488,0.00488,0.00976,0.04392,0.00488
0.00488,0.00244,-0.00976,-0.0122,-0.01464,0.00976,-0.0244,0.00488,0,0,0.02928,-0.00976
0,0.00488,-0.00976,-0.00976,-0.00976,0.00488,-0.02928,0.00488,-0.00488,-0.00976,0.01952,-0.01952
0,-0.00244,0.00488,0.00488,0.00488,-0.00244,-0.01952,0.00488,-0.00488,0,0.0244,-0.01952
0.00488,-0.0122,0.01952,0.01708,0.01464,-0.00488,-0.01952,0.00488,-0.00976,0,0.03416,-0.01464
0.01952,-0.0122,0.00488,-0.00488,-0.01464,0.01708,-0.02928,0,0,0.00976,0.04392,0
0.01952,-0.00976,0,-0.00976,-0.01952,0.01952,-0.03416,-0.00488,0.00976,0.01952,0.0488,0
0.00976,0,-0.00976,-0.01464,-0.01952,0.01464,-0.0244,0.00488,0.00976,0.01464,0.0488,0.00976
0.00976,0.00244,-0.01464,-0.01952,-0.0244,0.01708,-0.01952,0.00488,0.00976,0.01464,0.0488,0.00976
0.00976,-0.00244,-0.00488,-0.00976,-0.01464,0.0122,-0.03904,-0.01464,-0.00976,-0.00488,0.03416,0
0.00976,0.00244,-0.01464,-0.01952,-0.0244,0.01708,-0.03904,-0.01464,-0.00488,-0.00488,0.03416,0
0.00976,-0.00244,-0.00488,-0.00976,-0.01464,0.0122,-0.02928,-0.00976,-0.00488,-0.00488,0.03416,0
0.00976,-0.00488,0,-0.00488,-0.00976,0.00976,-0.02928,-0.00976,-0.00488,-0.00488,0.02928,-0.00488
0,0.00488,-0.00976,-0.00976,-0.00976,0.00488,-0.03416,-0.01464,-0.01952,-0.01464,0.02928,-0.00488
0,0.00488,-0.00976,-0.00976,-0.00976,0.00488,-0.03416,-0.01464,-0.0244,-0.01464,0.02928,-0.00488
0.00976,0,-0.00976,-0.01464,-0.01952,0.01464,-0.03416,-0.01464,-0.01952,-0.00976,0.03904,-0.00488
0.01464,-0.00244,-0.00976,-0.01708,-0.0244,0.01952,-0.03904,-0.01464,-0.00976,0.00488,0.03904,-0.00488
0.00976,-0.00732,0.00488,0,-0.00488,0.00732,-0.03904,-0.00488,-0.00976,-0.00488,0.02928,-0.01464
0.00976,-0.0122,0.01464,0.00976,0.00488,0.00244,-0.04392,-0.00976,-0.00976,-0.00488,0.01952,-0.01952
0.01464,-0.00976,0.00488,-0.00244,-0.00976,0.0122,-0.04392,-0.01952,-0.0244,-0.0244,0.0244,-0.00976
0.00976,-0.00244,-0.00488,-0.00976,-0.01464,0.0122,-0.04392,-0.0244,-0.0244,-0.0244,0.0244,-0.00976
0,0.00732,-0.01464,-0.01464,-0.01464,0.00732,-0.03904,-0.01464,-0.01464,-0.00488,0.02928,0
0,0.01464,-0.02928,-0.02928,-0.02928,0.01464,-0.03904,-0.01464,-0.01952,0.00488,0.04392,0
0.01952,-0.01952,0.01952,0.00976,0,0.00976,-0.0488,-0.03904,-0.01952,0.00976,0.03904,0
0.00976,-0.00488,0,-0.00488,-0.00976,0.00976,-0.0488,-0.02928,-0.00976,0,0.03904,0
0.00976,0,-0.00976,-0.01464,-0.01952,0.01464,-0.0488,-0.02928,-0.00976,0,0.03904,0
0.01952,-0.00488,-0.00976,-0.01952,-0.02928,0.0244,-0.03904,-0.02928,-0.01952,0,0.03904,0
0.01952,-0.00488,-0.00976,-0.01952,-0.02928,0.0244,-0.03904,-0.02928,-0.01952,0,0.03904,0
0.00976,0,-0.00976,-0.01464,-0.01952,0.01464,-0.03904,-0.02928,-0.01952,0,0.03904,-0.00976
0.00976,0,-0.00976,-0.01464,-0.01952,0.01464,-0.03904,-0.02928,-0.01952,0,0.03904,-0.00976
0.00976,-0.00488,0,-0.00488,-0.00976,0.00976,-0.0488,-0.02928,-0.01952,0,0.03904,-0.00976
0.00976,-0.00976,0.00976,0.00488,0,0.00488,-0.0488,-0.02928,-0.01952,0,0.03904,-0.00976
0,0,0,0,0,0,-0.0488,-0.02928,-0.02928,-0.00976,0.02928,-0.01952
0,0,0,0,0,0,-0.0488,-0.02928,-0.02928,-0.01952,0.01952,-0.01952
0.00976,0,-0.00976,-0.01464,-0.01952,0.01464,-0.0488,-0.02928,-0.02928,-0.00976,0.02928,-0.00976
0.00976,0,-0.00976,-0.01464,-0.01952,0.01464,-0.0488,-0.02928,-0.02928,-0.00976,0.02928,-0.00976
0.00976,0.00488,-0.01952,-0.0244,-0.02928,0.01952,-0.0488,-0.02928,-0.02928,-0.00976,0.03904,0
0.00976,0.00488,-0.01952,-0.0244,-0.02928,0.01952,-0.0488,-0.02928,-0.02928,-0.00976,0.03904,0
0.00976,0,-0.00976,-0.01464,-0.01952,0.01464,-0.0488,-0.02928,-0.01952,-0.00976,0.03904,0
0.00976,-0.00488,0,-0.00488,-0.00976,0.00976,-0.0488,-0.02928,-0.01952,-0.00976,0.03904,0
0.00976,-0.00976,0.00976,0.00488,0,0.00488,-0.05856,-0.03904,-0.01952,-0.00976,0.02928,-0.00976
0.00976,-0.00976,0.00976,0.00488,0,0.00488,-0.05856,-0.03904,-0.01952,-0.00976,0.02928,-0.00976
0.01952,-0.01952,0.01952,0.00976,0,0.00976,-0.05856,-0.03904,-0.02928,-0.00976,0.02928,-0.00976
0.01952,-0.01952,0.01952,0.00976,0,0.00976,-0.05856,-0.03904,-0.02928,-0.00976,0.02928,-0.00976
0.00976,-0.00976,0.00976,0.00488,0,0.00488,-0.0488,-0.02928,-0.03904,-0.01952,0.01952,-0.01952
0.00976,-0.00976,0.00976,0.00488,0,0.00488,-0.0488,-0.02928,-0.03904,-0.01952,0.01952,-0.01952
0.00976,-0.00488,0,-0.00488,-0.00976,0.00976,-0.0488,-0.03904,-0.02928,-0.01952,0.02928,-0.00976
0.00976,-0.00488,0,-0.00488,-0.00976,0.00976,-0.0488,-0.03904,-0.02928,-0.01952,0.02928,-0.00976
0.00976,0,-0.00976,-0.01464,-0.01952,0.01464,-0.05856,-0.0488,-0.01952,-0.00976,0.02928,-0.00976
0.00976,0,-0.00976,-0.01464,-0.01952,0.01464,-0.05856,-0.0488,-0.01952,0,0.02928,-0.00976
0.00976,-0.00488,0,-0.00488,-0.00976,0.00976,-0.05856,-0.0488,-0.02928,-0.00976,0.02928,0
0.00976,-0.00976,0.00976,0.00488,0,0.00488,-0.05856,-0.0488,-0.02928,-0.00976,0.02928,0
0.01952,-0.00976,0,-0.00976,-0.01952,0.01952,-0.05856,-0.03904,-0.01952,0,0.03904,0.00976
0.01952,-0.00488,-0.00976,-0.01952,-0.02928,0.0244,-0.05856,-0.02928,-0.01952,0,0.03904,0.00976
0.01952,-0.00488,-0.00976,-0.01952,-0.02928,0.0244,-0.0488,-0.02928,-0.02928,0,0.02928,0
0.01952,-0.00488,-0.00976,-0.01952,-0.02928,0.0244,-0.0488,-0.02928,-0.02928,0,0.02928,0
0.00976,-0.00488,0,-0.00488,-0.00976,0.00976,-0.0488,-0.03904,-0.02928,-0.00976,0.01952,-0.00976
0.00976,-0.00976,0.00976,0.00488,0,0.00488,-0.0488,-0.03904,-0.02928,-0.01952,0.01952,-0.01952
0.01952,-0.01952,0.01952,0.00976,0,0.00976,-0.05856,-0.02928,-0.03904,-0.02928,0.00976,-0.02928
0.01952,-0.01952,0.01952,0.00976,0,0.00976,-0.05856,-0.02928,-0.03904,-0.02928,0,-0.02928
0.00976,-0.00488,0,-0.00488,-0.00976,0.00976,-0.0488,-0.02928,-0.02928,-0.01952,0.00976,-0.00976
0.00976,0,-0.00976,-0.01464,-0.01952,0.01464,-0.0488,-0.02928,-0.02928,-0.00976,0.01952,0
0.01952,-0.00488,-0.00976,-0.01952,-0.02928,0.0244,-0.05856,-0.03904,-0.01952,0,0.02928,0.00976
0.01952,-0.00488,-0.00976,-0.01952,-0.02928,0.0244,-0.05856,-0.03904,-0.01952,0.00976,0.03904,0.00976
0.01952,-0.00976,0,-0.00976,-0.01952,0.01952,-0.0488,-0.03904,-0.02928,0,0.02928,0
0.01952,-0.00976,0,-0.00976,-0.01952,0.01952,-0.0488,-0.03904,-0.02928,-0.00976,0.02928,0
0.01952,-0.00488,-0.00976,-0.01952,-0.02928,0.0244,-0.05856,-0.03904,-0.02928,-0.00976,0.01952,0
0.01952,-0.00488,-0.00976,-0.01952,-0.02928,0.0244,-0.05856,-0.03904,-0.02928,-0.00976,0.01952,0
0.00976,-0.00488,0,-0.00488,-0.00976,0.00976,-0.0488,-0.03904,-0.02928,-0.00976,0.00976,-0.00976
0,0,0,0,0,0,-0.0488,-0.03904,-0.02928,-0.00976,0.00976,-0.01952
0.00976,-0.00976,0.00976,0.00488,0,0.00488,-0.0488,-0.03904,-0.02928,-0.01952,0.00976,-0.01952
0.00976,-0.01464,0.01952,0.01464,0.00976,0,-0.0488,-0.03904,-0.02928,-0.01952,0.00976,-0.01952
0.01952,-0.01464,0.00976,0,-0.00976,0.01464,-0.0488,-0.02928,-0.01952,-0.00976,0.02928,0
0.01952,-0.00976,0,-0.00976,-0.01952,0.01952,-0.0488,-0.02928,-0.01952,0,0.03904,0.00976
0.01952,-0.00488,-0.00976,-0.01952,-0.02928,0.0244,-0.0488,-0.03904,-0.01952,0,0.03904,0.00976
0.01952,0,-0.01952,-0.02928,-0.03904,0.02928,-0.0488,-0.03904,-0.01952,0,0.03904,0.00976
0.01952,-0.00976,0,-0.00976,-0.01952,0.01952,-0.0488,-0.03904,-0.01952,0,0.02928,0
0.01952,-0.01464,0.00976,0,-0.00976,0.01464,-0.0488,-0.03904,-0.01952,0,0.01952,0
0.01952,-0.01952,0.01952,0.00976,0,0.00976,-0.0488,-0.03904,-0.01952,0,0.01952,-0.00976
0.01952,-0.01952,0.01952,0.00976,0,0.00976,-0.0488,-0.03904,-0.01952,0,0.01952,-0.00976
0.02928,-0.01952,0.00976,-0.00488,-0.01952,0.0244,-0.03904,-0.02928,-0.02928,0,0.01952,-0.00976
0.02928,-0.01464,0,-0.01464,-0.02928,0.02928,-0.03904,-0.02928,-0.02928,0,0.01952,-0.00976
0.01952,-0.00976,0,-0.00976,-0.01952,0.01952,-0.02928,-0.01952,-0.02928,-0.00976,0.01952,0
0.01952,-0.00976,0,-0.00976,-0.01952,0.01952,-0.02928,-0.01952,-0.02928,-0.00976,0.01952,0
0.02928,-0.01952,0.00976,-0.00488,-0.01952,0.0244,-0.02928,-0.00976,-0.01952,0,0.02928,0
0.02928,-0.01952,0.00976,-0.00488,-0.01952,0.0244,-0.02928,-0.00976,-0.00976,0.00976,0.02928,0
0.02928,-0.01952,0.00976,-0.00488,-0.01952,0.0244,-0.02928,-0.00976,0,0.01952,0.03904,0.00976
0.0244,-0.0122,0,-0.0122,-0.0244,0.0244,-0.02928,-0.00976,0,0.01952,0.0488,0.00976
0.01952,-0.01952,0.01952,0.00976,0,0.00976,-0.02928,-0.01952,-0.01464,0.00488,0.03904,0.00976
0.01952,-0.01952,0.01952,0.00976,0,0.00976,-0.03904,-0.01952,-0.01464,0.00488,0.03904,0.00488
0.03416,-0.02684,0.01952,0.00244,-0.01464,0.0244,-0.04392,-0.01952,-0.01464,0.00976,0.02928,0
0.03416,-0.0244,0.01464,-0.00244,-0.01952,0.02684,-0.0488,-0.0244,-0.01464,0.00488,0.02928,-0.00488
0.01952,-0.01952,0.01952,0.00976,0,0.00976,-0.05856,-0.03904,-0.00488,0.00976,0.03416,0
0.01952,-0.02196,0.0244,0.01464,0.00488,0.00732,-0.05856,-0.04392,-0.00976,0.00488,0.03416,0
0.02928,-0.02196,0.01464,0,-0.01464,0.02196,-0.05856,-0.04392,-0.0244,-0.00976,0.01952,0
0.0244,-0.01464,0.00488,-0.00732,-0.01952,0.02196,-0.05856,-0.03904,-0.01952,-0.00488,0.01952,0
0.0244,-0.01952,0.01464,0.00244,-0.00976,0.01708,-0.06832,-0.0488,-0.02928,-0.01464,0.00976,0
0.0244,-0.0244,0.0244,0.0122,0,0.0122,-0.06832,-0.0488,-0.03416,-0.01464,0.00976,-0.00488
0.0244,-0.01952,0.01464,0.00244,-0.00976,0.01708,-0.0732,-0.05856,-0.03416,-0.00976,0.0244,0.00488
0.0244,-0.01708,0.00976,-0.00244,-0.01464,0.01952,-0.0732,-0.0732,-0.03416,-0.00976,0.0244,0.00488
0.01952,-0.0122,0.00488,-0.00488,-0.01464,0.01708,-0.0732,-0.06344,-0.03416,-0.0244,0.01952,-0.00488
0.0244,-0.01708,0.00976,-0.00244,-0.01464,0.01952,-0.0732,-0.05368,-0.03904,-0.0244,0.01464,-0.00488
0.0244,-0.00976,-0.00488,-0.01708,-0.02928,0.02684,-0.0732,-0.05368,-0.04392,-0.0244,0.01952,-0.00488
0.02928,-0.0122,-0.00488,-0.01952,-0.03416,0.03172,-0.0732,-0.05368,-0.03904,-0.01952,0.01952,0
0.02928,-0.00976,-0.00976,-0.0244,-0.03904,0.03416,-0.0732,-0.06344,-0.04392,-0.00976,0.01952,-0.00976
0.03416,-0.01464,-0.00488,-0.02196,-0.03904,0.0366,-0.0732,-0.05856,-0.04392,-0.01464,0.01952,-0.00976
0.03416,-0.0244,0.01464,-0.00244,-0.01952,0.02684,-0.07808,-0.06344,-0.04392,-0.02928,0.00488,-0.01952
0.03416,-0.02684,0.01952,0.00244,-0.01464,0.0244,-0.07808,-0.06344,-0.03904,-0.01952,0.00976,-0.02928
0.03904,-0.0244,0.00976,-0.00976,-0.02928,0.03416,-0.07808,-0.06344,-0.0244,-0.01464,0.01952,-0.00976
0.03904,-0.01952,0,-0.01952,-0.03904,0.03904,-0.07808,-0.06344,-0.0244,-0.00488,0.0244,0.00488
0.04392,-0.01708,-0.00976,-0.03172,-0.05368,0.0488,-0.06344,-0.06344,-0.02928,-0.01464,0.01952,0.00976
0.04392,-0.0244,0.00488,-0.01708,-0.03904,0.04148,-0.06832,-0.05856,-0.03904,-0.01464,0.01952,0.00976
0.04392,-0.02196,0,-0.02196,-0.04392,0.04392,-0.07808,-0.05856,-0.03904,-0.01464,0.01952,0.01464
0.03904,-0.01708,-0.00488,-0.0244,-0.04392,0.04148,-0.0732,-0.05856,-0.03904,-0.01464,0.01464,0.01464
0.03416,-0.00732,-0.01952,-0.0366,-0.05368,0.04392,-0.0732,-0.05856,-0.02928,-0.01464,0.01464,0.00488
0.03416,-0.00976,-0.01464,-0.03172,-0.0488,0.04148,-0.0732,-0.05856,-0.02928,-0.01464,0.01464,0
0.03416,-0.0122,-0.00976,-0.02684,-0.04392,0.03904,-0.06832,-0.05856,-0.02928,-0.01464,0.01464,0
0.02928,-0.00976,-0.00976,-0.0244,-0.03904,0.03416,-0.0732,-0.05856,-0.03416,-0.01952,0.00976,0
0.02928,-0.01708,0.00488,-0.00976,-0.0244,0.02684,-0.07808,-0.05856,-0.02928,-0.00976,0.00976,-0.00976
0.0244,-0.01952,0.01464,0.00244,-0.00976,0.01708,-0.0732,-0.05856,-0.02928,-0.00976,0.01464,-0.00976
0.01952,-0.00976,0,-0.00976,-0.01952,0.01952,-0.06344,-0.0488,-0.02928,-0.00976,0.00976,-0.00488
0.01464,0,-0.01464,-0.02196,-0.02928,0.02196,-0.06344,-0.04392,-0.03416,-0.01464,0.00976,0.00488
0.01464,0.00488,-0.0244,-0.03172,-0.03904,0.02684,-0.06344,-0.04392,-0.03416,-0.01464,0.01464,0
0.01464,0.00488,-0.0244,-0.03172,-0.03904,0.02684,-0.06344,-0.04392,-0.03416,-0.01464,0.00976,0
0,0.00732,-0.01464,-0.01464,-0.01464,0.00732,-0.06344,-0.05368,-0.0488,-0.02928,0,-0.00976
0.00488,0.00488,-0.01464,-0.01708,-0.01952,0.0122,-0.06344,-0.05368,-0.04392,-0.0244,-0.00488,-0.00976
0.00488,0.00244,-0.00976,-0.0122,-0.01464,0.00976,-0.0732,-0.0488,-0.02928,-0.00976,0.00488,-0.00488
0.00488,0.00244,-0.00976,-0.0122,-0.01464,0.00976,-0.0732,-0.0488,-0.0244,0,0.01464,-0.00976
0.01464,0,-0.01464,-0.02196,-0.02928,0.02196,-0.06344,-0.05856,-0.05368,-0.01952,0.00488,-0.00976
0.01464,0.01708,-0.0488,-0.05612,-0.06344,0.03904,-0.0488,-0.04392,-0.03416,-0.01464,0.00976,-0.01952
0.01952,0.01464,-0.0488,-0.05856,-0.06832,0.04392,-0.03416,-0.00976,-0.01952,-0.00488,0,-0.0244
0,0.05368,-0.10736,-0.10736,-0.10736,0.05368,0.02928,0.05856,0.00976,0,-0.00488,-0.0244
-0.01952,0.05612,-0.09272,-0.08296,-0.0732,0.02684,0.05856,0.13176,0.06832,0.02928,0.00976,-0.02928
0,0.02196,-0.04392,-0.04392,-0.04392,0.02196,0.0488,0.15128,0.11712,0.05856,0.01952,-0.01464
0,0.00976,-0.01952,-0.01952,-0.01952,0.00976,0.0488,0.20496,0.20984,0.14152,0.07808,0.01464
0.03416,-0.02684,0.01952,0.00244,-0.01464,0.0244,0.06832,0.25864,0.33672,0.244,0.16104,0.08296
0.0488,-0.04148,0.03416,0.00976,-0.01464,0.03172,0.11224,0.36112,0.4636,0.35624,0.24888,0.16104
0.07808,-0.07808,0.07808,0.03904,0,0.03904,0.1708,0.49288,0.61488,0.488,0.34648,0.22936
0.08784,-0.12688,0.16592,0.122,0.07808,0.00488,0.244,0.62464,0.73688,0.5856,0.40992,0.2684
0.00976,-0.1098,0.20984,0.20496,0.20008,-0.09516,0.32208,0.64416,0.72712,0.56608,0.38552,0.24888
-0.11712,-0.061,0.23912,0.29768,0.35624,-0.23668,0.32696,0.43432,0.44896,0.3416,0.23424,0.1708
-0.32208,0.0488,0.22448,0.38552,0.54656,-0.43432,0.25864,0.00488,-0.19032,-0.1708,-0.10736,-0.03416
-0.44408,0.12444,0.1952,0.41724,0.63928,-0.54168,0.20984,-0.32696,-0.63928,-0.5368,-0.37088,-0.21472
-0.58072,0.20252,0.17568,0.46604,0.7564,-0.66856,0.27816,-0.35136,-0.72712,-0.66368,-0.49776,-0.33672
-0.65392,0.24888,0.15616,0.48312,0.81008,-0.732,0.35624,-0.2684,-0.66856,-0.65392,-0.54168,-0.40016
-0.62464,0.26596,0.09272,0.40504,0.71736,-0.671,0.3904,-0.19032,-0.58072,-0.60512,-0.52704,-0.40992
-0.5368,0.22936,0.07808,0.34648,0.61488,-0.57584,0.40504,-0.11712,-0.50264,-0.53192,-0.45872,-0.366
