i,aVR,ii,aVF,iii,aVL,V1,V2,V3,V4,V5,V6
-0.04392,0.06588,-0.08784,-0.06588,-0.04392,0,0.0732,0.06344,-0.00488,-0.03904,-0.00488,-0.00976
-0.03904,0.0488,-0.05856,-0.03904,-0.01952,-0.00976,0.08296,0.08784,0.00488,-0.03416,-0.00488,-0.00976
-0.02928,0.03416,-0.03904,-0.0244,-0.00976,-0.00976,0.09272,0.10736,0.01464,-0.03416,-0.00488,-0.01952
-0.0244,0.03172,-0.03904,-0.02684,-0.01464,-0.00488,0.09272,0.09272,0.00488,-0.05368,-0.01464,-0.03416
-0.03416,0.05368,-0.0732,-0.05612,-0.03904,0.00244,0.08784,0.07808,0.00976,-0.03416,-0.01952,-0.0244
-0.0244,0.04148,-0.05856,-0.04636,-0.03416,0.00488,0.06832,0.05856,-0.00488,-0.04392,-0.03416,-0.02928
-0.01464,0.03172,-0.0488,-0.04148,-0.03416,0.00976,0.03416,0.05368,-0.00488,-0.05856,-0.03904,-0.03416
-0.02928,0.0488,-0.06832,-0.05368,-0.03904,0.00488,0.01952,0.05368,-0.01952,-0.05368,-0.0244,-0.01952
-0.0244,0.03416,-0.04392,-0.03172,-0.01952,-0.00244,0.00488,0.03904,-0.0244,-0.05856,-0.01952,-0.0244
-0.03904,0.0366,-0.03416,-0.01464,0.00488,-0.02196,0.00488,0.03904,-0.0244,-0.03904,-0.0244,-0.02928
-0.0488,0.061,-0.0732,-0.0488,-0.0244,-0.0122,0.0244,0.03416,-0.01952,-0.03416,-0.01952,-0.0244
-0.0488,0.061,-0.0732,-0.0488,-0.0244,-0.0122,0.04392,0.03904,-0.0244,-0.04392,-0.02928,-0.03416
-0.0488,0.061,-0.0732,-0.0488,-0.0244,-0.0122,0.05368,0.0244,-0.0244,-0.05368,-0.02928,-0.04392
-0.03904,0.05368,-0.06832,-0.0488,-0.02928,-0.00488,0.04392,0.04392,-0.01952,-0.0488,-0.02928,-0.03416
-0.0244,0.04392,-0.06344,-0.05124,-0.03904,0.00732,0.05856,0.05368,-0.01952,-0.04392,-0.01464,-0.0244
-0.01464,0.03172,-0.0488,-0.04148,-0.03416,0.00976,0.0732,0.0488,-0.01464,-0.0488,-0.01464,-0.02928
-0.01464,0.02928,-0.04392,-0.0366,-0.02928,0.00732,0.0732,0.03904,-0.01952,-0.05368,-0.03416,-0.03416
-0.02928,0.04392,-0.05856,-0.04392,-0.02928,0,0.06344,0.0488,-0.01464,-0.05856,-0.04392,-0.03904
-0.0488,0.06588,-0.08296,-0.05856,-0.03416,-0.00732,0.0488,0.05368,-0.01464,-0.05856,-0.03904,-0.03416
-0.05368,0.061,-0.06832,-0.04148,-0.01464,-0.01952,0.02928,0.06832,-0.00976,-0.04392,-0.0244,-0.03416
-0.06344,0.06588,-0.06832,-0.0366,-0.00488,-0.02928,0.0244,0.06832,-0.01952,-0.0488,-0.0244,-0.04392
-0.05856,0.06588,-0.0732,-0.04392,-0.01464,-0.02196,0.01952,0.05856,-0.01952,-0.05368,-0.03904,-0.03904
-0.05856,0.05856,-0.05856,-0.02928,0,-0.02928,0.00976,0.04392,-0.0244,-0.05856,-0.0488,-0.0488
-0.0488,0.05612,-0.06344,-0.03904,-0.01464,-0.01708,0.03416,0.05368,-0.02928,-0.0732,-0.05368,-0.06344
-0.04392,0.05612,-0.06832,-0.04636,-0.0244,-0.00976,0.05856,0.07808,-0.01952,-0.08296,-0.05856,-0.0732
-0.05856,0.06588,-0.0732,-0.04392,-0.01464,-0.02196,0.06832,0.08296,-0.00976,-0.08296,-0.0488,-0.05368
-0.05856,0.07076,-0.08296,-0.05368,-0.0244,-0.01708,0.08784,0.0732,-0.01464,-0.06832,-0.04392,-0.03904
-0.03904,0.05368,-0.06832,-0.0488,-0.02928,-0.00488,0.0488,0.0488,-0.02928,-0.06344,-0.04392,-0.03416
-0.03904,0.05124,-0.06344,-0.04392,-0.0244,-0.00732,0.01464,0.04392,-0.02928,-0.05856,-0.03904,-0.03416
-0.0244,0.0488,-0.0732,-0.061,-0.0488,0.0122,0.01464,0.0488,-0.03416,-0.06344,-0.0244,-0.02928
0,0.01708,-0.03416,-0.03416,-0.03416,0.01708,0.04392,0.04392,-0.04392,-0.0732,-0.02928,-0.0244
0.00488,0.00488,-0.01464,-0.01708,-0.01952,0.0122,0.06344,0.02928,-0.05368,-0.07808,-0.03416,-0.03416
0.00488,0.00244,-0.00976,-0.0122,-0.01464,0.00976,0.05368,0.01464,-0.05856,-0.0976,-0.05856,-0.06344
-0.01464,0.02684,-0.03904,-0.03172,-0.0244,0.00488,0.06344,0.00976,-0.0488,-0.09272,-0.06344,-0.07808
-0.01952,0.03172,-0.04392,-0.03416,-0.0244,0.00244,0.01952,0.02928,-0.05368,-0.08784,-0.05368,-0.0732
-0.0244,0.03416,-0.04392,-0.03172,-0.01952,-0.00244,-0.00976,0.0488,-0.05856,-0.08296,-0.05368,-0.06344
-0.03904,0.03904,-0.03904,-0.01952,0,-0.01952,0.00488,0.06832,-0.0488,-0.07808,-0.0488,-0.05368
-0.02928,0.04148,-0.05368,-0.03904,-0.0244,-0.00244,0.00488,0.0732,-0.03416,-0.0732,-0.03416,-0.0488
-0.02928,0.05612,-0.08296,-0.06832,-0.05368,0.0122,-0.00488,0.0732,-0.02928,-0.0732,-0.02928,-0.04392
-0.02928,0.05368,-0.07808,-0.06344,-0.0488,0.00976,0.00488,0.09272,-0.02928,-0.06344,-0.03904,-0.05368
-0.0244,0.03416,-0.04392,-0.03172,-0.01952,-0.00244,0.00976,0.11224,-0.02928,-0.05368,-0.0244,-0.0488
-0.00488,0.00732,-0.00976,-0.00732,-0.00488,0,0.01464,0.11712,-0.01464,-0.05368,-0.02928,-0.0488
-0.00976,0.0122,-0.01464,-0.00976,-0.00488,-0.00244,0.01952,0.13176,-0.00976,-0.05368,-0.02928,-0.0488
-0.01464,0.01708,-0.01952,-0.0122,-0.00488,-0.00488,-0.00488,0.13664,-0.00976,-0.05856,-0.0244,-0.0488
-0.01952,0.0244,-0.02928,-0.01952,-0.00976,-0.00488,-0.02928,0.12688,0,-0.06344,-0.01464,-0.03904
-0.00488,0.01464,-0.0244,-0.02196,-0.01952,0.00732,-0.01952,0.11224,-0.00488,-0.06832,-0.0244,-0.02928
-0.00488,0.01464,-0.0244,-0.02196,-0.01952,0.00732,-0.01952,0.10248,-0.01464,-0.06832,-0.03416,-0.02928
0,0.00488,-0.00976,-0.00976,-0.00976,0.00488,-0.01952,0.0976,-0.0244,-0.0732,-0.03904,-0.01464
0,0.00244,-0.00488,-0.00488,-0.00488,0.00244,-0.0244,0.08784,-0.0244,-0.06344,-0.0244,-0.0244
0.02928,-0.0244,0.01952,0.00488,-0.00976,0.01952,-0.03416,0.0976,-0.00976,-0.06832,-0.01952,-0.00976
0.03904,-0.01952,0,-0.01952,-0.03904,0.03904,-0.02928,0.12688,0.00488,-0.06832,-0.01464,-0.00976
0.0488,-0.03172,0.01464,-0.00976,-0.03416,0.04148,-0.0244,0.1464,0.01952,-0.0488,-0.00976,0
0.0488,-0.02928,0.00976,-0.01464,-0.03904,0.04392,-0.01464,0.15128,0.0488,-0.0244,0.00976,0.01464
0.03904,-0.02684,0.01464,-0.00488,-0.0244,0.03172,-0.02928,0.14152,0.05368,-0.00488,0.02928,0.0488
0.02928,-0.02928,0.02928,0.01464,0,0.01464,-0.03416,0.11712,0.05368,-0.00488,0.03904,0.06832
0.03904,-0.03904,0.03904,0.01952,0,0.01952,-0.03416,0.09272,0.04392,0.00976,0.05856,0.06344
0.04392,-0.04392,0.04392,0.02196,0,0.02196,-0.01464,0.08784,0.03904,0.00976,0.0488,0.05368
0.01952,-0.03172,0.04392,0.03416,0.0244,-0.00244,0.00976,0.06832,0.03904,0.01464,0.04392,0.0488
0.01952,-0.02684,0.03416,0.0244,0.01464,0.00244,0.02928,0.07808,0.0488,0.01952,0.05856,0.06344
0.02928,-0.03172,0.03416,0.01952,0.00488,0.0122,0.01464,0.05368,0.05368,0.0244,0.06344,0.0488
0.02928,-0.03416,0.03904,0.0244,0.00976,0.00976,0.01464,0.05368,0.05368,0.01952,0.06832,0.03904
0.02928,-0.03172,0.03416,0.01952,0.00488,0.0122,-0.00488,0.05368,0.04392,0,0.04392,0.02928
0.0244,-0.02684,0.02928,0.01708,0.00488,0.00976,0,0.06344,0.0488,0,0.0244,0.01952
0.00976,-0.00732,0.00488,0,-0.00488,0.00732,-0.00976,0.05856,0.04392,-0.00488,0.0244,0.01464
0.00976,0.00488,-0.01952,-0.0244,-0.02928,0.01952,-0.00976,0.07808,0.05368,0.00488,0.04392,0.03904
0.01464,0.00488,-0.0244,-0.03172,-0.03904,0.02684,-0.00488,0.08296,0.0488,0.00976,0.04392,0.0488
0.01464,-0.01464,0.01464,0.00732,0,0.00732,-0.0244,0.05856,0.03904,0,0.0244,0.02928
0,-0.00976,0.01952,0.01952,0.01952,-0.00976,-0.01464,0.0732,0.05368,0.00488,0.00976,0.0244
-0.01464,0.01464,-0.01464,-0.00732,0,-0.00732,0.00976,0.0976,0.0488,-0.00488,0.00976,0.00976
-0.01464,0.01952,-0.0244,-0.01708,-0.00976,-0.00244,0.01464,0.0976,0.0488,0.00488,0.01464,0.01952
-0.00976,0,0.00976,0.01464,0.01952,-0.01464,0.00488,0.05368,0.03904,0.00488,0.0244,0.02928
0.00976,-0.01464,0.01952,0.01464,0.00976,0,0.01464,0.03904,0.02928,-0.01464,0.0244,0.02928
0.01952,-0.00732,-0.00488,-0.01464,-0.0244,0.02196,0.01952,0.03904,0.02928,-0.00976,0.0244,0.04392
0.01464,0.00488,-0.0244,-0.03172,-0.03904,0.02684,0.04392,0.05856,0.03416,0,0.03904,0.0488
-0.01464,0.0244,-0.03416,-0.02684,-0.01952,0.00244,0.07808,0.07808,0.03416,0,0.03416,0.04392
-0.00976,0.02196,-0.03416,-0.02928,-0.0244,0.00732,0.08784,0.0732,0.0244,-0.0244,0.0244,0.03416
-0.00976,0.01952,-0.02928,-0.0244,-0.01952,0.00488,0.08296,0.0488,0.0244,-0.0244,0.01464,0.0244
-0.00976,0.01952,-0.02928,-0.0244,-0.01952,0.00488,0.06344,0.03904,0.02928,-0.02928,0,0.01464
0,-0.00244,0.00488,0.00488,0.00488,-0.00244,0.01952,0.0244,0.00976,-0.03416,-0.00488,0.00488
-0.00976,0.00976,-0.00976,-0.00488,0,-0.00488,-0.00488,0.03904,0.0244,-0.0244,0.00976,0.00976
-0.00976,0.00244,0.00488,0.00976,0.01464,-0.0122,-0.0244,0.04392,0.0244,-0.03416,0.00976,0.00976
-0.00976,0.00732,-0.00488,0,0.00488,-0.00732,-0.01952,0.0488,0.01464,-0.01952,0.01464,0.01464
-0.01952,0.01708,-0.01464,-0.00488,0.00488,-0.0122,0,0.05856,0.0244,-0.00976,0.02928,0.01952
-0.0244,0.02684,-0.02928,-0.01708,-0.00488,-0.00976,0.00976,0.0488,0.0244,-0.00976,0.02928,0.00488
-0.02928,0.02684,-0.0244,-0.00976,0.00488,-0.01708,0.00488,0.03904,0.01952,-0.01952,0.01464,0.00976
-0.01464,0.02196,-0.02928,-0.02196,-0.01464,0,0.01952,0.03904,0.03416,-0.00488,0.02928,0.01952
-0.01464,0.0244,-0.03416,-0.02684,-0.01952,0.00244,0.03904,0.04392,0.03416,0.01464,0.0488,0.03416
-0.00488,0.01464,-0.0244,-0.02196,-0.01952,0.00732,0.05856,0.06832,0.03416,0.01952,0.04392,0.0244
0.00976,-0.00488,0,-0.00488,-0.00976,0.00976,0.06344,0.05368,0.02928,0.01464,0.03416,0.0244
0.00488,-0.00976,0.01464,0.0122,0.00976,-0.00244,0.0488,0.05368,0.01464,-0.00488,0.0244,0.01952
0.01464,-0.00976,0.00488,-0.00244,-0.00976,0.0122,0.03416,0.0488,0.00488,-0.01952,0.01952,0.00976
-0.00976,0,0.00976,0.01464,0.01952,-0.01464,0.0244,0.04392,0.01464,-0.01952,0.01952,0.00488
-0.0244,0.00732,0.00976,0.02196,0.03416,-0.02928,0.04392,0.03416,0.01464,-0.01464,0.01952,0.01464
-0.01464,0,0.01464,0.02196,0.02928,-0.02196,0.01952,0.01952,0.01952,-0.00976,0.02928,0.01952
0,-0.00732,0.01464,0.01464,0.01464,-0.00732,0,0.0244,0.0244,0.00488,0.03416,0.0244
0.00488,0,-0.00488,-0.00732,-0.00976,0.00732,0.00976,0.04392,0.03904,0.00488,0.04392,0.02928
-0.00488,0.00976,-0.01464,-0.0122,-0.00976,0.00244,0.00976,0.04392,0.03904,-0.00488,0.04392,0.03416
-0.00976,0.0244,-0.03904,-0.03416,-0.02928,0.00976,0.0244,0.05368,0.03904,0,0.05856,0.03416
-0.00976,0.02196,-0.03416,-0.02928,-0.0244,0.00732,0.03416,0.05856,0.04392,0.00976,0.05856,0.03416
0,0.00488,-0.00976,-0.00976,-0.00976,0.00488,0.0244,0.0488,0.03416,0.00976,0.05368,0.05368
0.01464,-0.00488,-0.00488,-0.0122,-0.01952,0.01708,-0.01464,0.0488,0.03904,0.00976,0.05856,0.04392
0.00976,-0.00244,-0.00488,-0.00976,-0.01464,0.0122,-0.03416,0.03416,0.01464,0.00488,0.03416,0.02928
0,-0.00244,0.00488,0.00488,0.00488,-0.00244,-0.04392,0.03416,0.01952,0,0.02928,0.02928
-0.00488,0,0.00488,0.00732,0.00976,-0.00732,-0.0244,0.0244,0.00488,-0.00976,0.01952,0.01464
0.00488,-0.01464,0.0244,0.02196,0.01952,-0.00732,-0.00488,0,0,-0.02928,0.01464,0.00488
0.0244,-0.0244,0.0244,0.0122,0,0.0122,0.03416,0.01952,0.01464,-0.02928,0,0.00976
0.0244,-0.01464,0.00488,-0.00732,-0.01952,0.02196,0.05856,0.00976,0.03904,-0.01952,0.00976,0.02928
0.01464,-0.01464,0.01464,0.00732,0,0.00732,0.07808,0.01464,0.06344,-0.00976,0.0244,0.05368
0.01464,-0.0122,0.00976,0.00244,-0.00488,0.00976,0.07808,0.04392,0.05856,0.00976,0.04392,0.05368
0.01952,-0.0244,0.02928,0.01952,0.00976,0.00488,0.05856,0.05368,0.02928,0.00488,0.03904,0.0244
0.02928,-0.02928,0.02928,0.01464,0,0.01464,0.0488,0.05368,0.03416,-0.00488,0.04392,0.03416
0.01952,-0.0122,0.00488,-0.00488,-0.01464,0.01708,0.02928,0.08296,0.0488,0,0.03416,0.03904
0.00488,0.00244,-0.00976,-0.0122,-0.01464,0.00976,0.01464,0.08296,0.05368,-0.00488,0.02928,0.03904
0.00488,0.00732,-0.01952,-0.02196,-0.0244,0.01464,0.01464,0.07808,0.04392,0,0.02928,0.02928
-0.00488,0.0122,-0.01952,-0.01708,-0.01464,0.00488,0.01952,0.06344,0.03904,0.00976,0.02928,0.02928
0.00488,0.00488,-0.01464,-0.01708,-0.01952,0.0122,0.03904,0.0488,0.0244,0.00976,0.03416,0.02928
0.01464,-0.01952,0.0244,0.01708,0.00976,0.00244,0.03416,0.02928,0.0244,0.00488,0.0244,0.00488
0.00976,-0.00976,0.00976,0.00488,0,0.00488,0.01464,0.03904,0.03416,0,0.04392,0.01952
0,0,0,0,0,0,0.01464,0.04392,0.03904,0,0.04392,0.02928
0,0.01708,-0.03416,-0.03416,-0.03416,0.01708,0.00976,0.04392,0.03904,0,0.01952,0.0244
-0.0244,0.04148,-0.05856,-0.04636,-0.03416,0.00488,0.01464,0.05856,0.0488,0,0.0244,0.02928
0,0,0,0,0,0,0.03904,0.07808,0.07808,0.00976,0.06832,0.02928
-0.00976,0.00488,0,0.00488,0.00976,-0.00976,0.02928,0.05856,0.05856,0,0.05856,0.01952
-0.00976,0.00488,0,0.00488,0.00976,-0.00976,0.02928,0.0488,0.03904,-0.00976,0.0488,0.00976
-0.0244,0.02684,-0.02928,-0.01708,-0.00488,-0.00976,0.01952,0.0488,0.04392,0,0.03416,0.02928
-0.01464,0.02684,-0.03904,-0.03172,-0.0244,0.00488,0.01952,0.0488,0.04392,0,0.01464,0.01464
-0.01464,0.02684,-0.03904,-0.03172,-0.0244,0.00488,0.01952,0.05368,0.03416,-0.00976,0.00488,0.00488
0,0.0122,-0.0244,-0.0244,-0.0244,0.0122,0.01464,0.05368,0.0244,-0.02928,-0.01464,0
0.00488,0.00732,-0.01952,-0.02196,-0.0244,0.01464,0.02928,0.0732,0.04392,-0.00976,0.00976,0.01952
0.00976,0.01464,-0.03904,-0.04392,-0.0488,0.02928,0.04392,0.08296,0.06344,0,0.03416,0.04392
0.00488,-0.00488,0.00488,0.00244,0,0.00244,0.06344,0.06344,0.05368,0,0.04392,0.03904
0,-0.0122,0.0244,0.0244,0.0244,-0.0122,0.09272,0.0488,0.05856,0,0.04392,0.03904
0.00488,-0.01464,0.0244,0.02196,0.01952,-0.00732,0.08296,0.03416,0.03904,-0.00488,0.03904,0.02928
0.01464,-0.00976,0.00488,-0.00244,-0.00976,0.0122,0.10248,0.02928,0.03904,-0.00488,0.03416,0.0244
0,-0.0122,0.0244,0.0244,0.0244,-0.0122,0.05368,0.0488,0.03904,0,0.03416,0.01952
-0.00976,-0.00976,0.02928,0.03416,0.03904,-0.0244,0.03904,0.06832,0.0488,0.00976,0.04392,0.01952
-0.01464,-0.00976,0.03416,0.04148,0.0488,-0.03172,0.0488,0.08784,0.05368,0.01952,0.04392,0.02928
-0.01464,-0.00488,0.0244,0.03172,0.03904,-0.02684,0.06344,0.10736,0.06832,0.0244,0.05368,0.03904
0.00976,-0.02928,0.0488,0.04392,0.03904,-0.01464,0.04392,0.08296,0.08296,0.0244,0.05368,0.0488
0.02928,-0.04636,0.06344,0.0488,0.03416,-0.00244,0.01464,0.06344,0.08296,0.02928,0.05368,0.05856
0.02928,-0.06588,0.10248,0.08784,0.0732,-0.02196,0,0.03416,0.0732,0.03416,0.04392,0.04392
0.03416,-0.08052,0.12688,0.1098,0.09272,-0.02928,-0.00488,0.01464,0.06344,0.02928,0.04392,0.03904
0.01952,-0.05612,0.09272,0.08296,0.0732,-0.02684,-0.00488,0.00976,0.06344,0.0244,0.05368,0.05368
0.03416,-0.05856,0.08296,0.06588,0.0488,-0.00732,0,0.00488,0.0732,0.03416,0.05856,0.06832
0.03416,-0.07076,0.10736,0.09028,0.0732,-0.01952,-0.01952,0.00976,0.06832,0.04392,0.06344,0.05856
0.04392,-0.08052,0.11712,0.09516,0.0732,-0.01464,-0.02928,0.01464,0.06832,0.04392,0.06344,0.05368
0.04392,-0.09028,0.13664,0.11468,0.09272,-0.0244,-0.01952,0.00488,0.05856,0.03904,0.07808,0.06344
0.03416,-0.08052,0.12688,0.1098,0.09272,-0.02928,0.00488,0.01952,0.05856,0.03904,0.08784,0.06832
0.0488,-0.08296,0.11712,0.09272,0.06832,-0.00976,-0.00488,0.00488,0.04392,0.03416,0.08784,0.06832
0.04392,-0.06588,0.08784,0.06588,0.04392,0,-0.01464,0.0244,0.05856,0.03904,0.09272,0.08784
0.03904,-0.05368,0.06832,0.0488,0.02928,0.00488,0,0.0244,0.05368,0.02928,0.07808,0.06832
0.03904,-0.04392,0.0488,0.02928,0.00976,0.01464,0.00976,0.01464,0.05368,0.0244,0.05368,0.04392
0.03904,-0.02928,0.01952,0,-0.01952,0.02928,0.01952,0.00488,0.0488,0.01464,0.05368,0.03416
0.0244,-0.00244,-0.01952,-0.03172,-0.04392,0.03416,0.0244,0,0.03416,-0.00488,0.03416,0.02928
0,0.00488,-0.00976,-0.00976,-0.00976,0.00488,-0.00488,0.03416,0.03416,-0.01464,0.02928,0.01464
-0.01952,0.01708,-0.01464,-0.00488,0.00488,-0.0122,-0.03416,0.0488,0.03416,-0.01952,0.01464,0
-0.03416,0.03172,-0.02928,-0.0122,0.00488,-0.01952,-0.0244,0.0244,0.01952,-0.03416,0.00976,0
-0.03416,0.03904,-0.04392,-0.02684,-0.00976,-0.0122,-0.01952,0.00976,0.01464,-0.03904,0.01464,0
-0.01952,0.02684,-0.03416,-0.0244,-0.01464,-0.00244,0.00488,0.0244,0.0244,-0.01952,0.0244,0.01464
-0.01952,0.03416,-0.0488,-0.03904,-0.02928,0.00488,0.01464,0.05856,0.03416,-0.00488,0.01464,0.01952
-0.00976,0.02928,-0.0488,-0.04392,-0.03904,0.01464,0.0244,0.05368,0.03416,-0.01464,0.00488,0.00488
-0.00976,0.02196,-0.03416,-0.02928,-0.0244,0.00732,0.03904,0.03416,0.02928,-0.02928,0.00976,-0.00488
0.00488,0.00732,-0.01952,-0.02196,-0.0244,0.01464,0.02928,0.0244,0.01464,-0.03416,0,-0.00976
0.00976,0.00244,-0.01464,-0.01952,-0.0244,0.01708,0.02928,0.00976,0.00488,-0.02928,-0.00488,-0.00488
0,0.00976,-0.01952,-0.01952,-0.01952,0.00976,0.01952,0.00488,0.01952,-0.00976,0.01952,0.00488
-0.01952,0.01952,-0.01952,-0.00976,0,-0.00976,0.0244,0.00976,0.03416,0.00488,0.02928,0.01464
-0.0244,0.0244,-0.0244,-0.0122,0,-0.0122,0.01464,0,0.03904,-0.00488,0.0244,0.01464
0.02928,-0.03172,0.03416,0.01952,0.00488,0.0122,0.01464,0.06832,0.0732,0.02928,0.04392,0.01464
0.05368,-0.05612,0.05856,0.03172,0.00488,0.0244,0.0244,0.26352,0.19032,0.06832,0.0732,0.03904
0.08784,-0.06344,0.03904,-0.00488,-0.0488,0.06832,0.0244,0.20496,0.24888,0.11712,0.11712,0.08784
0.07808,-0.10492,0.13176,0.09272,0.05368,0.0122,-0.03416,-0.07808,0.2196,0.22936,0.2684,0.244
0.13176,-0.14884,0.16592,0.10004,0.03416,0.0488,-0.12688,-0.44896,0.0976,0.35136,0.4148,0.40504
0.1464,-0.18544,0.22448,0.15128,0.07808,0.03416,-0.21472,-0.91744,-0.2196,0.42456,0.53192,0.55632
0.21472,-0.26596,0.3172,0.20984,0.10248,0.05612,-0.33184,-1.28344,-0.55144,0.39528,0.5612,0.61976
0.22936,-0.1708,0.11224,-0.00244,-0.11712,0.17324,-0.31232,-1.21512,-0.6588,0.25864,0.44408,0.5856
0.28792,-0.12932,-0.02928,-0.17324,-0.3172,0.30256,-0.2684,-1.04432,-0.63928,0.08296,0.2684,0.4392
0.2196,-0.03172,-0.15616,-0.26596,-0.37576,0.29768,-0.23912,-0.87352,-0.5856,0.01464,0.18056,0.3172
0.07808,0.04636,-0.1708,-0.20984,-0.24888,0.16348,-0.11712,-0.6832,-0.49288,-0.0488,0.08296,0.18544
-0.00488,0.0854,-0.16592,-0.16348,-0.16104,0.07808,-0.02928,-0.57584,-0.46848,-0.15616,-0.06832,-0.00976
-0.03904,0.11712,-0.1952,-0.17568,-0.15616,0.05856,0.00488,-0.49776,-0.42456,-0.20496,-0.13176,-0.08296
-0.06344,0.11956,-0.17568,-0.14396,-0.11224,0.0244,0.07808,-0.366,-0.32696,-0.1708,-0.09272,-0.07808
-0.0488,0.10492,-0.16104,-0.13664,-0.11224,0.03172,0.12688,-0.24888,-0.20984,-0.13664,-0.0732,-0.06832
-0.04392,0.08052,-0.11712,-0.09516,-0.0732,0.01464,0.10736,-0.15128,-0.122,-0.07808,-0.0244,-0.0244
-0.04392,0.06344,-0.08296,-0.061,-0.03904,-0.00244,0.07808,-0.06344,-0.0732,-0.06344,-0.01952,-0.00976
-0.0488,0.08052,-0.11224,-0.08784,-0.06344,0.00732,0.06344,-0.0244,-0.03904,-0.03416,-0.00976,-0.01952
-0.02928,0.05124,-0.0732,-0.05856,-0.04392,0.00732,0.03416,0.01464,-0.03416,-0.05368,-0.03416,-0.03904
-0.01464,0.03172,-0.0488,-0.04148,-0.03416,0.00976,0.02928,0.01464,-0.0244,-0.0732,-0.05856,-0.06832
-0.01464,0.02684,-0.03904,-0.03172,-0.0244,0.00488,0.00976,0.01952,-0.00976,-0.05856,-0.03416,-0.0488
-0.01952,0.02684,-0.03416,-0.0244,-0.01464,-0.00244,0,0,-0.00488,-0.0488,-0.01952,-0.02928
-0.02928,0.04392,-0.05856,-0.04392,-0.02928,0,0.01464,0.01952,-0.01464,-0.0488,-0.01464,-0.03416
-0.02928,0.05124,-0.0732,-0.05856,-0.04392,0.00732,0.00488,0.04392,-0.00976,-0.0488,-0.01464,-0.03416
-0.01952,0.05124,-0.08296,-0.0732,-0.06344,0.02196,0.0244,0.03904,0.00488,-0.03904,-0.00488,-0.01952
-0.01952,0.05124,-0.08296,-0.0732,-0.06344,0.02196,0.03416,0.03904,0.00976,-0.03416,0,-0.01952
-0.00976,0.04148,-0.0732,-0.06832,-0.06344,0.02684,0.00488,0.01952,-0.00976,-0.02928,-0.00976,-0.03904
0,0.03904,-0.07808,-0.07808,-0.07808,0.03904,-0.00488,0.01952,-0.00976,-0.01952,-0.01464,-0.03904
0.00488,0.02928,-0.06344,-0.06588,-0.06832,0.0366,-0.01952,0.01464,-0.01464,-0.02928,-0.00976,-0.0488
0,0.03904,-0.07808,-0.07808,-0.07808,0.03904,-0.00488,-0.00976,-0.01464,-0.03416,-0.00488,-0.03904
-0.01952,0.02928,-0.03904,-0.02928,-0.01952,0,0.01952,0,-0.01464,-0.03416,-0.01464,-0.04392
-0.02928,0.02684,-0.0244,-0.00976,0.00488,-0.01708,0.04392,0.01464,-0.01464,-0.03416,-0.01952,-0.04392
-0.0244,0.0366,-0.0488,-0.0366,-0.0244,0,0.0488,0.0244,0.00488,-0.03416,-0.00976,-0.03904
-0.01952,0.03904,-0.05856,-0.0488,-0.03904,0.00976,0.0488,0.03904,0.01464,-0.03416,0,-0.0244
-0.03416,0.05368,-0.0732,-0.05612,-0.03904,0.00244,0.03416,0.03416,0.00488,-0.0244,-0.00488,-0.03416
-0.04392,0.05368,-0.06344,-0.04148,-0.01952,-0.0122,0.02928,0.03904,-0.00488,-0.0244,-0.01464,-0.03416
-0.03416,0.0488,-0.06344,-0.04636,-0.02928,-0.00244,0.02928,0.04392,0,-0.03416,-0.01464,-0.04392
-0.03416,0.04392,-0.05368,-0.0366,-0.01952,-0.00732,0.02928,0.03416,-0.00488,-0.04392,-0.01952,-0.0488
-0.02928,0.03416,-0.03904,-0.0244,-0.00976,-0.00976,0.02928,0.0244,-0.00976,-0.05368,-0.02928,-0.06344
-0.02928,0.03416,-0.03904,-0.0244,-0.00976,-0.00976,0.03416,0.0244,-0.00976,-0.03416,-0.0244,-0.0488
-0.02928,0.03904,-0.0488,-0.03416,-0.01952,-0.00488,0.02928,0.04392,0.00488,-0.03416,-0.00976,-0.03416
-0.02928,0.05856,-0.08784,-0.0732,-0.05856,0.01464,0.03416,0.0732,0.01464,-0.01952,0.00976,-0.01952
-0.02928,0.06588,-0.10248,-0.08784,-0.0732,0.02196,0,0.0488,0,-0.02928,0,-0.0244
-0.0244,0.05124,-0.07808,-0.06588,-0.05368,0.01464,-0.01952,0.0244,-0.00488,-0.03416,-0.00976,-0.0244
-0.03416,0.04392,-0.05368,-0.0366,-0.01952,-0.00732,-0.01952,0.0244,-0.01464,-0.03904,-0.0244,-0.03904
-0.02928,0.04636,-0.06344,-0.0488,-0.03416,0.00244,0,0.03904,-0.01952,-0.03416,-0.01952,-0.04392
-0.02928,0.04148,-0.05368,-0.03904,-0.0244,-0.00244,0.02928,0.00488,-0.03416,-0.0488,-0.01952,-0.0488
-0.03416,0.0488,-0.06344,-0.04636,-0.02928,-0.00244,0.03904,-0.03416,-0.03904,-0.0488,-0.0244,-0.0488
-0.01464,0.03172,-0.0488,-0.04148,-0.03416,0.00976,0.04392,-0.01952,-0.0488,-0.06344,-0.03904,-0.05856
0,0.01952,-0.03904,-0.03904,-0.03904,0.01952,0.05856,-0.00976,-0.05368,-0.08784,-0.0488,-0.05856
-0.0244,0.0366,-0.0488,-0.0366,-0.0244,0,0.03416,-0.00488,-0.04392,-0.06832,-0.0488,-0.0488
-0.03416,0.04392,-0.05368,-0.0366,-0.01952,-0.00732,0.01952,0,-0.03904,-0.06344,-0.05856,-0.0488
-0.04392,0.05612,-0.06832,-0.04636,-0.0244,-0.00976,0.00976,-0.00488,-0.0244,-0.03904,-0.0244,-0.03416
-0.03904,0.04392,-0.0488,-0.02928,-0.00976,-0.01464,-0.00976,-0.00488,-0.01952,-0.02928,0,-0.0244
-0.02928,0.03416,-0.03904,-0.0244,-0.00976,-0.00976,0.00976,0.0244,-0.01952,-0.0244,0.00488,-0.01952
-0.02928,0.03416,-0.03904,-0.0244,-0.00976,-0.00976,0.01464,0.0244,-0.02928,-0.03416,0,-0.01952
-0.03904,0.04636,-0.05368,-0.03416,-0.01464,-0.0122,0.01952,0.01952,-0.02928,-0.04392,-0.01952,-0.03904
-0.0488,0.04636,-0.04392,-0.01952,0.00488,-0.02684,0.00976,0.0244,-0.03416,-0.05856,-0.01952,-0.06832
-0.03416,0.04148,-0.0488,-0.03172,-0.01464,-0.00976,0.01952,0.01464,-0.03904,-0.0488,-0.02928,-0.06832
-0.0244,0.0366,-0.0488,-0.0366,-0.0244,0,0.01464,0.0244,-0.03904,-0.03904,-0.03416,-0.06344
-0.02928,0.03904,-0.0488,-0.03416,-0.01952,-0.00488,0.00488,0.01952,-0.02928,-0.04392,-0.0244,-0.05368
-0.0244,0.02928,-0.03416,-0.02196,-0.00976,-0.00732,-0.00976,0.00488,-0.03904,-0.06344,-0.03416,-0.06344
-0.00976,0.0244,-0.03904,-0.03416,-0.02928,0.00976,0.00488,0.01464,-0.03904,-0.0488,-0.01952,-0.05368
-0.00976,0.02684,-0.04392,-0.03904,-0.03416,0.0122,0.00488,0.0244,-0.03904,-0.05368,-0.01952,-0.04392
-0.01464,0.02684,-0.03904,-0.03172,-0.0244,0.00488,-0.00976,0.03904,-0.03416,-0.05368,-0.0244,-0.05368
-0.00976,0.00732,-0.00488,0,0.00488,-0.00732,-0.0244,0.02928,-0.04392,-0.06344,-0.02928,-0.06344
-0.01464,0.0122,-0.00976,-0.00244,0.00488,-0.00976,-0.01464,0.00488,-0.05368,-0.05368,-0.0488,-0.06344
-0.01464,0.02196,-0.02928,-0.02196,-0.01464,0,0,-0.0244,-0.05856,-0.06344,-0.05368,-0.06344
-0.02928,0.04636,-0.06344,-0.0488,-0.03416,0.00244,0.03416,0.00488,-0.03904,-0.03904,-0.0244,-0.04392
-0.02928,0.03416,-0.03904,-0.0244,-0.00976,-0.00976,0.03416,0.01464,-0.04392,-0.0488,-0.01464,-0.03416
-0.04392,0.04636,-0.0488,-0.02684,-0.00488,-0.01952,0.00976,0.02928,-0.04392,-0.0488,-0.02928,-0.0488
-0.03416,0.03904,-0.04392,-0.02684,-0.00976,-0.0122,-0.01952,0.02928,-0.04392,-0.06344,-0.04392,-0.05856
-0.00976,0.02196,-0.03416,-0.02928,-0.0244,0.00732,-0.03904,0.05368,-0.03904,-0.06344,-0.03904,-0.06832
0,0.00732,-0.01464,-0.01464,-0.01464,0.00732,-0.04392,0.06832,-0.03904,-0.06344,-0.03904,-0.06344
0.00976,0.00244,-0.01464,-0.01952,-0.0244,0.01708,-0.0488,0.06344,-0.02928,-0.05368,-0.0244,-0.06344
0.0244,-0.00244,-0.01952,-0.03172,-0.04392,0.03416,-0.06344,0.05856,-0.02928,-0.03416,-0.02928,-0.0488
0.00488,0.00244,-0.00976,-0.0122,-0.01464,0.00976,-0.08296,0.05368,-0.03416,-0.04392,-0.02928,-0.0488
-0.01952,0.01708,-0.01464,-0.00488,0.00488,-0.0122,-0.08296,0.06344,-0.03904,-0.05368,-0.03416,-0.04392
-0.0244,0.01952,-0.01464,-0.00244,0.00976,-0.01708,-0.07808,0.0732,-0.02928,-0.04392,-0.0244,-0.04392
-0.02928,0.02196,-0.01464,0,0.01464,-0.02196,-0.06344,0.07808,-0.01952,-0.03904,-0.01464,-0.03904
-0.01464,0.01464,-0.01464,-0.00732,0,-0.00732,-0.0488,0.0976,-0.00976,-0.02928,-0.00488,-0.02928
0,0.0122,-0.0244,-0.0244,-0.0244,0.0122,-0.04392,0.122,0.00488,-0.01952,0.00976,-0.01464
0.00976,-0.0122,0.01464,0.00976,0.00488,0.00244,-0.05856,0.1464,0.00488,-0.00488,0.02928,0
0.02928,-0.03904,0.0488,0.03416,0.01952,0.00488,-0.0732,0.15128,0.00976,0,0.03416,0
0.03416,-0.04392,0.05368,0.0366,0.01952,0.00732,-0.0488,0.12688,0.00976,-0.01952,0.01464,0
0.02928,-0.04636,0.06344,0.0488,0.03416,-0.00244,-0.03904,0.12688,0.01464,-0.02928,-0.00488,-0.00976
0.03904,-0.04636,0.05368,0.03416,0.01464,0.0122,-0.0732,0.10736,0.0244,-0.01464,0.00488,-0.00976
0.04392,-0.04148,0.03904,0.01708,-0.00488,0.0244,-0.08296,0.10248,0.05368,0.00488,0.0244,0.01464
0.05368,-0.05368,0.05368,0.02684,0,0.02684,-0.08296,0.09272,0.03416,0.01464,0.03416,0.01952
0.06344,-0.061,0.05856,0.02684,-0.00488,0.03416,-0.08784,0.05856,0.03416,0.01464,0.04392,0.0244
0.06344,-0.05856,0.05368,0.02196,-0.00976,0.0366,-0.0488,0.0732,0.04392,0.03904,0.06344,0.05368
0.04392,-0.04392,0.04392,0.02196,0,0.02196,-0.00488,0.06832,0.05368,0.04392,0.06344,0.06344
0.01952,-0.02928,0.03904,0.02928,0.01952,0,-0.00488,0.06344,0.06344,0.05368,0.07808,0.09272
0.00976,-0.0244,0.03904,0.03416,0.02928,-0.00976,0.00488,0.05856,0.0732,0.06344,0.0976,0.08784
0.01952,-0.02196,0.0244,0.01464,0.00488,0.00732,-0.0244,0.03904,0.05368,0.03904,0.0732,0.06344
0.02928,-0.02196,0.01464,0,-0.01464,0.02196,-0.04392,0.02928,0.04392,0.02928,0.05856,0.04392
0.02928,-0.03416,0.03904,0.0244,0.00976,0.00976,-0.07808,0,0.0244,0.00488,0.03416,0.0244
0.01952,-0.04636,0.0732,0.06344,0.05368,-0.01708,-0.08296,-0.00976,0.00976,0.00488,0.0244,0.01464
0.00976,-0.01952,0.02928,0.0244,0.01952,-0.00488,-0.05856,-0.00488,0.01952,0.00976,0.0244,0.01464
0.00976,0.00732,-0.0244,-0.02928,-0.03416,0.02196,-0.01464,0.01952,0.02928,0.01952,0.03416,0.02928
0.01464,-0.00244,-0.00976,-0.01708,-0.0244,0.01952,-0.00488,-0.00976,0.0244,0.0244,0.03416,0.0244
0.01464,-0.01708,0.01952,0.0122,0.00488,0.00488,0.00488,-0.0244,0.01952,0.01464,0.01952,0.00976
0.01952,-0.02684,0.03416,0.0244,0.01464,0.00244,-0.00488,0.0244,0.03416,0.01464,0.00976,0.01464
0.01952,-0.03416,0.0488,0.03904,0.02928,-0.00488,0.00488,0.0732,0.03904,0.00488,0.00976,0
0.00488,-0.00976,0.01464,0.0122,0.00976,-0.00244,-0.00488,0.06832,0.03416,0.00488,0.01952,0.00488
0.00488,-0.0122,0.01952,0.01708,0.01464,-0.00488,-0.00488,0.05856,0.02928,0,0.01464,0
0.00488,-0.01952,0.03416,0.03172,0.02928,-0.0122,-0.00976,0.03904,0.01952,0.00488,0.0244,0.00488
0.00488,-0.00732,0.00976,0.00732,0.00488,0,-0.01464,0.02928,0.01952,0.00976,0.02928,0.00976
-0.01464,0.00244,0.00976,0.01708,0.0244,-0.01952,-0.04392,0.00976,0.00488,0,0.00976,0
-0.01464,0.00244,0.00976,0.01708,0.0244,-0.01952,-0.06832,-0.00976,-0.01464,-0.00976,-0.01464,-0.01952
-0.00976,0.0122,-0.01464,-0.00976,-0.00488,-0.00244,-0.05368,0,-0.00488,-0.00488,-0.00976,-0.00976
-0.00976,0.01952,-0.02928,-0.0244,-0.01952,0.00488,-0.03416,0.00488,0,0,0,-0.00976
0.00488,0,-0.00488,-0.00732,-0.00976,0.00732,-0.03416,0,-0.00488,-0.00488,0.00488,-0.01952
0.00976,-0.00732,0.00488,0,-0.00488,0.00732,-0.0488,-0.01464,-0.00976,-0.00488,0.01952,-0.00976
-0.00976,0.00244,0.00488,0.00976,0.01464,-0.0122,-0.03416,-0.01952,-0.00488,-0.00488,0.01952,0
-0.00976,-0.00244,0.01464,0.01952,0.0244,-0.01708,-0.02928,-0.01464,-0.00488,0.00488,0.01952,0.00488
-0.00976,0.00732,-0.00488,0,0.00488,-0.00732,0.00488,0,0,0.00976,0.01952,0.01952
-0.00976,0.00732,-0.00488,0,0.00488,-0.00732,0.04392,0.0244,0.00488,0.01952,0.0244,0.01464
0.00488,-0.00244,0,-0.00244,-0.00488,0.00488,0.0488,0.03416,0.01464,0.0244,0.0244,0.01952
0.00976,-0.00732,0.00488,0,-0.00488,0.00732,0.05368,0.03904,0.00976,0.01952,0.01952,0.0244
0.01464,-0.01708,0.01952,0.0122,0.00488,0.00488,0.02928,0.00976,0.01464,0.01952,0.01464,0.00976
0.01464,-0.01952,0.0244,0.01708,0.00976,0.00244,0,0.01952,0.0244,0.02928,0.0244,-0.00976
0,0,0,0,0,0,-0.01952,0.00488,0.00976,0.00488,0.00488,-0.0244
0.00488,0.00732,-0.01952,-0.02196,-0.0244,0.01464,-0.02928,-0.01464,0,-0.00488,0,-0.03416
-0.01464,0.01464,-0.01464,-0.00732,0,-0.00732,-0.0488,0,0,0.00488,0.01464,-0.0244
-0.0244,0.0244,-0.0244,-0.0122,0,-0.0122,-0.05368,0.00488,0.00488,0.01952,0.01952,-0.01464
-0.0244,0.00976,0.00488,0.01708,0.02928,-0.02684,-0.0488,0,0.00488,0.0244,0.02928,0
-0.01952,0.00244,0.01464,0.0244,0.03416,-0.02684,-0.04392,-0.01464,0.00488,0.0244,0.0244,0.01464
0.00488,-0.00488,0.00488,0.00244,0,0.00244,-0.02928,-0.02928,0,0.0244,0.02928,0.01952
0.01464,-0.00488,-0.00488,-0.0122,-0.01952,0.01708,-0.0244,-0.0244,0.00488,0.02928,0.03416,0.01952
0.00976,-0.00732,0.00488,0,-0.00488,0.00732,0.00976,-0.01464,0.00976,0.01952,0.03416,0.0244
0,-0.0122,0.0244,0.0244,0.0244,-0.0122,0.02928,-0.01464,0.00976,0.0244,0.03904,0.0244
0.00976,-0.01952,0.02928,0.0244,0.01952,-0.00488,0.02928,0,0.0244,0.0244,0.02928,0.01464
0.01952,-0.03172,0.04392,0.03416,0.0244,-0.00244,0.02928,0.00976,0.0244,0.0244,0.02928,0.01952
0.01464,-0.02196,0.02928,0.02196,0.01464,0,0.0244,-0.00976,0.03904,0.03904,0.0488,0.03416
0.0244,-0.02196,0.01952,0.00732,-0.00488,0.01464,0.01952,-0.02928,0.03416,0.03416,0.0488,0.0244
0.01464,-0.0244,0.03416,0.02684,0.01952,-0.00244,0,-0.01464,0.01464,0.02928,0.02928,0.01952
0.00488,-0.02928,0.05368,0.05124,0.0488,-0.02196,-0.00976,0,0.01952,0.02928,0.02928,0.01464
-0.01952,0.00732,0.00488,0.01464,0.0244,-0.02196,-0.0244,0.03416,0.03416,0.02928,0.0244,0.01464
-0.00488,0.00488,-0.00488,-0.00244,0,-0.00244,-0.03416,0.0488,0.03416,0.02928,0.0244,0
-0.01464,0.0122,-0.00976,-0.00244,0.00488,-0.00976,-0.03904,0.03904,0.02928,0.01464,0.00488,-0.00976
-0.0244,0.01708,-0.00976,0.00244,0.01464,-0.01952,-0.03904,0.02928,0.0244,0.00488,-0.00488,-0.00488
-0.00488,-0.00488,0.01464,0.01708,0.01952,-0.0122,-0.03904,0.00976,0.00976,-0.00976,-0.00488,-0.0244
0.00488,-0.00732,0.00976,0.00732,0.00488,0,-0.03904,0,0,-0.00976,-0.00488,-0.04392
0.01464,-0.01464,0.01464,0.00732,0,0.00732,-0.04392,-0.01464,0.00976,0.00976,0.00976,-0.0244
0.01464,0.00488,-0.0244,-0.03172,-0.03904,0.02684,-0.04392,0.00488,0.02928,0.01952,0.0244,0.01464
0.00976,0.00976,-0.02928,-0.03416,-0.03904,0.0244,-0.05856,0.00488,0.0244,0.01952,0.00976,0
0.00976,0.01464,-0.03904,-0.04392,-0.0488,0.02928,-0.06832,0.00488,0.0244,0.01464,0,-0.00976
0.01464,-0.00732,0,-0.00732,-0.01464,0.01464,-0.05368,0.01464,0.00976,0.00488,0,-0.00976
0.00488,-0.00976,0.01464,0.0122,0.00976,-0.00244,-0.02928,0.00976,0,0.00976,0.00488,-0.00488
-0.00976,-0.00732,0.0244,0.02928,0.03416,-0.02196,-0.00976,0.02928,0.00488,0.00488,0.01464,0.00488
-0.00488,-0.00488,0.01464,0.01708,0.01952,-0.0122,-0.00976,0.03904,0.01464,0.00488,0.01464,0.00976
-0.0244,0.01464,-0.00488,0.00732,0.01952,-0.02196,0.00488,0.06344,0.0244,0.01952,0.03416,0.00488
-0.03416,0.01464,0.00488,0.02196,0.03904,-0.0366,0.01952,0.06344,0.02928,0.01952,0.02928,0.00488
-0.00976,-0.00732,0.0244,0.02928,0.03416,-0.02196,0.01464,0.0488,0.03904,0.0244,0.0244,0
0.00488,-0.02684,0.0488,0.04636,0.04392,-0.01952,0.01952,0.05368,0.03904,0.02928,0.02928,0.00488
0.00976,-0.01708,0.0244,0.01952,0.01464,-0.00244,0,0.03904,0.02928,0.02928,0.01952,0.00488
0,-0.00732,0.01464,0.01464,0.01464,-0.00732,0.00488,0.04392,0.03416,0.02928,0.01952,0.00488
-0.00488,0.00244,0,0.00244,0.00488,-0.00488,-0.0244,0.0244,0.01952,0.0244,0.00488,-0.01464
-0.00488,0.00244,0,0.00244,0.00488,-0.00488,-0.05368,0.01464,0.01464,0.01464,0.00488,-0.00976
-0.02928,0.0244,-0.01952,-0.00488,0.00976,-0.01952,-0.05368,0,0.0244,0.00488,0.01464,-0.00488
-0.0244,0.02684,-0.02928,-0.01708,-0.00488,-0.00976,-0.04392,0.00488,0.01952,0.00488,0.00976,0.00488
-0.01464,0.01464,-0.01464,-0.00732,0,-0.00732,-0.01464,0.00488,0.01464,0.00976,0,-0.00488
-0.00488,0.00488,-0.00488,-0.00244,0,-0.00244,0.01952,-0.00976,0.00488,0.00976,0,-0.00976
-0.00976,-0.00488,0.01952,0.0244,0.02928,-0.01952,0.00976,0,-0.00488,0.00488,0,-0.00488
-0.01464,0.00244,0.00976,0.01708,0.0244,-0.01952,0.01952,0.00976,0,0,0.00488,-0.00488
0,-0.00244,0.00488,0.00488,0.00488,-0.00244,0.00976,-0.0244,-0.00976,-0.00488,-0.01952,-0.01464
0.00976,0.00732,-0.0244,-0.02928,-0.03416,0.02196,0.00488,-0.04392,-0.00488,-0.00976,-0.0244,-0.00976
0,0.00488,-0.00976,-0.00976,-0.00976,0.00488,-0.00488,-0.0244,-0.01464,-0.01952,-0.01952,-0.02928
-0.00976,0.00976,-0.00976,-0.00488,0,-0.00488,-0.01464,-0.00488,-0.00976,-0.01464,-0.01952,-0.0244
0,-0.00732,0.01464,0.01464,0.01464,-0.00732,-0.00488,0.03904,0.00976,0.01464,0.00488,-0.03416
-0.01952,0.00732,0.00488,0.01464,0.0244,-0.02196,-0.00488,0.0976,0.0244,0.00976,0.0244,0.00488
-0.0244,0.01952,-0.01464,-0.00244,0.00976,-0.01708,-0.01952,0.06832,0.02928,0,0.00488,-0.01952
-0.01464,0.01952,-0.0244,-0.01708,-0.00976,-0.00244,-0.01952,0.0488,0.02928,0,-0.00488,-0.01952
-0.01952,0.01708,-0.01464,-0.00488,0.00488,-0.0122,-0.00976,0.02928,0.0244,0.00976,-0.00976,-0.01464
-0.0244,0.00976,0.00488,0.01708,0.02928,-0.02684,-0.00976,0.02928,0.0244,0.00976,-0.00488,-0.00976
-0.01952,0.00488,0.00976,0.01952,0.02928,-0.0244,0,0.01952,0.01464,0.01952,0.00488,-0.01464
-0.00976,-0.0122,0.03416,0.03904,0.04392,-0.02684,0,0.01464,0.01464,0.01464,0,-0.01952
0.00976,-0.01952,0.02928,0.0244,0.01952,-0.00488,-0.00488,0.01952,0.00976,0.00976,-0.00976,-0.01952
0.00488,-0.0122,0.01952,0.01708,0.01464,-0.00488,0.00488,0.02928,0.01952,0.00976,-0.00488,-0.01952
0,0.00244,-0.00488,-0.00488,-0.00488,0.00244,-0.00488,0.03416,0.0244,0.00488,0.00488,-0.01952
-0.00976,0.0122,-0.01464,-0.00976,-0.00488,-0.00244,-0.0244,0.03416,0.0244,0.00976,0.00488,-0.01952
-0.02928,0.02928,-0.02928,-0.01464,0,-0.01464,-0.03904,0.02928,0.01464,0.01464,-0.00488,0
-0.03416,0.03172,-0.02928,-0.0122,0.00488,-0.01952,-0.02928,0.01952,0.01464,0.01464,0.00488,0
-0.01952,0.01708,-0.01464,-0.00488,0.00488,-0.0122,-0.0244,0.03416,0.01952,0.01952,0.00488,0
0,-0.00976,0.01952,0.01952,0.01952,-0.00976,0.00488,0.04392,0.03416,0.0244,0.00976,-0.00488
0.00488,-0.01952,0.03416,0.03172,0.02928,-0.0122,0.01952,0.05368,0.0488,0.03904,0.0244,0.00488
0.00488,-0.03416,0.06344,0.061,0.05856,-0.02684,0.01952,0.06344,0.04392,0.04392,0.02928,0.01464
0.00488,-0.03172,0.05856,0.05612,0.05368,-0.0244,0.03904,0.05856,0.04392,0.04392,0.0244,0.00976
0.00976,-0.0366,0.06344,0.05856,0.05368,-0.02196,0.0488,0.06344,0.04392,0.0488,0.0244,0.01952
0.01464,-0.0488,0.08296,0.07564,0.06832,-0.02684,0.02928,0.06344,0.0488,0.06344,0.03416,0.01464
0.02928,-0.05368,0.07808,0.06344,0.0488,-0.00976,0.01952,0.0488,0.05856,0.05856,0.03416,0.01952
0.0244,-0.05856,0.09272,0.08052,0.06832,-0.02196,-0.00488,0.03416,0.05368,0.04392,0.0244,0.01952
0.0244,-0.05856,0.09272,0.08052,0.06832,-0.02196,-0.03416,0.0244,0.05368,0.0488,0.02928,0.0244
0.0244,-0.06832,0.11224,0.10004,0.08784,-0.03172,-0.04392,0.01952,0.0488,0.06344,0.04392,0.03904
0.0244,-0.06344,0.10248,0.09028,0.07808,-0.02684,-0.03416,0.0244,0.0488,0.06344,0.04392,0.03904
0.03904,-0.0732,0.10736,0.08784,0.06832,-0.01464,-0.04392,-0.00976,0.03904,0.05856,0.03904,0.02928
0.03416,-0.06344,0.09272,0.07564,0.05856,-0.0122,-0.05368,-0.03904,0.03904,0.05368,0.03416,0.01952
0.03416,-0.061,0.08784,0.07076,0.05368,-0.00976,-0.05368,-0.05368,0.03416,0.0488,0.03904,0.01952
0.03904,-0.06832,0.0976,0.07808,0.05856,-0.00976,-0.05368,-0.00488,0.03904,0.04392,0.03904,0.0244
0.0244,-0.05124,0.07808,0.06588,0.05368,-0.01464,-0.05368,0.0488,0.05368,0.05856,0.0488,0.03904
0.02928,-0.05368,0.07808,0.06344,0.0488,-0.00976,-0.0488,0.05368,0.05368,0.05368,0.04392,0.03904
0.01464,-0.03416,0.05368,0.04636,0.03904,-0.0122,-0.03904,0.03904,0.05856,0.05856,0.03904,0.03904
0.00488,-0.0122,0.01952,0.01708,0.01464,-0.00488,-0.03904,0.01464,0.04392,0.03904,0.02928,0.01952
-0.00488,0,0.00488,0.00732,0.00976,-0.00732,-0.0244,-0.00488,0.0244,0.04392,0.0244,0.01464
0.01464,-0.00976,0.00488,-0.00244,-0.00976,0.0122,-0.00488,-0.00976,0.00976,0.03416,0.01952,0
0.00976,-0.0122,0.01464,0.00976,0.00488,0.00244,0.00488,0,0.00976,0.0244,0,-0.02928
0.00488,-0.01464,0.0244,0.02196,0.01952,-0.00732,0.00488,0.02928,0.01464,0.0244,0.00488,-0.01952
0,-0.00976,0.01952,0.01952,0.01952,-0.00976,0,0.03416,0.01464,0.00976,-0.00488,-0.02928
-0.0244,0.00976,0.00488,0.01708,0.02928,-0.02684,-0.01464,0.03904,0.01464,0.00976,-0.00488,-0.03904
-0.01952,0.01708,-0.01464,-0.00488,0.00488,-0.0122,-0.0244,0.03904,0.00488,-0.00488,-0.0244,-0.03904
-0.01952,0.01952,-0.01952,-0.00976,0,-0.00976,-0.01952,0.01952,0.00488,-0.00488,-0.0244,-0.03416
-0.01464,0.00244,0.00976,0.01708,0.0244,-0.01952,-0.01952,0.00488,0.00488,-0.00976,-0.01952,-0.03904
-0.00976,0.00732,-0.00488,0,0.00488,-0.00732,-0.01952,0.00488,0.00488,0,-0.01952,-0.03416
-0.00488,0.00976,-0.01464,-0.0122,-0.00976,0.00244,-0.01952,0,0.00976,0,-0.01464,-0.0244
0,0.0122,-0.0244,-0.0244,-0.0244,0.0122,-0.01952,0.00976,0.01464,0,-0.00976,-0.0244
-0.04392,0.04636,-0.0488,-0.02684,-0.00488,-0.01952,0.0244,0.0488,0.04392,0.04392,0.02928,-0.01464
-0.02928,0.00732,0.01464,0.02928,0.04392,-0.0366,0.00488,0.04392,0.01952,0.04392,0.01952,-0.00976
-0.00488,-0.02928,0.06344,0.06588,0.06832,-0.0366,-0.00976,0.09272,0.0488,0.06344,0.0488,0.00976
0.01952,-0.03416,0.0488,0.03904,0.02928,-0.00488,0.00488,0.26352,0.15616,0.09272,0.07808,0.05368
0.05368,-0.04148,0.02928,0.00244,-0.0244,0.03904,-0.01464,0.22936,0.22448,0.14152,0.10736,0.07808
0.09272,-0.11468,0.13664,0.09028,0.04392,0.0244,-0.05368,-0.13664,0.19032,0.23424,0.20984,0.17568
0.12688,-0.16836,0.20984,0.1464,0.08296,0.02196,-0.13664,-0.5124,0.0976,0.32696,0.3172,0.30744
0.18056,-0.22936,0.27816,0.18788,0.0976,0.04148,-0.25864,-1.0004,-0.17568,0.366,0.4148,0.45872
0.22936,-0.2684,0.30744,0.19276,0.07808,0.07564,-0.38552,-1.34688,-0.46848,0.39528,0.49776,0.55632
0.28792,-0.27572,0.26352,0.11956,-0.0244,0.15616,-0.41968,-1.37616,-0.61,0.28792,0.41968,0.53192
0.27816,-0.15372,0.02928,-0.1098,-0.24888,0.26352,-0.366,-1.21512,-0.62464,0.09272,0.244,0.40992
0.25376,-0.07076,-0.11224,-0.23912,-0.366,0.30988,-0.2928,-1.04432,-0.56608,0,0.11712,0.27328
0.17568,-0.0122,-0.15128,-0.23912,-0.32696,0.25132,-0.20984,-0.88816,-0.54656,-0.07808,0.00488,0.13664
0.04392,0.061,-0.16592,-0.18788,-0.20984,0.12688,-0.04392,-0.69296,-0.45872,-0.10736,-0.0732,0.00976
-0.01952,0.14152,-0.26352,-0.25376,-0.244,0.11224,-0.00488,-0.58072,-0.39528,-0.13176,-0.10736,-0.03416
-0.0244,0.08784,-0.15128,-0.13908,-0.12688,0.05124,-0.01464,-0.488,-0.35136,-0.16104,-0.13176,-0.08784
-0.03904,0.10004,-0.16104,-0.14152,-0.122,0.04148,0.01952,-0.37088,-0.2684,-0.122,-0.10736,-0.0976
-0.03416,0.05856,-0.08296,-0.06588,-0.0488,0.00732,0.0244,-0.244,-0.18056,-0.0488,-0.06344,-0.0732
-0.01952,0.01708,-0.01464,-0.00488,0.00488,-0.0122,0.04392,-0.1464,-0.11712,-0.01952,-0.04392,-0.0732
-0.0244,0.03172,-0.03904,-0.02684,-0.01464,-0.00488,0.05856,-0.06832,-0.06832,-0.01464,-0.0244,-0.03904
-0.03416,0.0366,-0.03904,-0.02196,-0.00488,-0.01464,0.05368,-0.0244,-0.04392,-0.01464,-0.02928,-0.03904
-0.03904,0.04392,-0.0488,-0.02928,-0.00976,-0.01464,0.03416,0.02928,-0.0244,-0.01464,-0.03416,-0.04392
-0.03416,0.04148,-0.0488,-0.03172,-0.01464,-0.00976,0.00488,0.02928,-0.01464,-0.01464,-0.02928,-0.05368
-0.03904,0.05612,-0.0732,-0.05368,-0.03416,-0.00244,-0.01464,0.0488,-0.00976,-0.01952,-0.03416,-0.05368
-0.03904,0.05856,-0.07808,-0.05856,-0.03904,0,-0.03904,0.05368,0.00488,-0.01952,-0.04392,-0.05368
-0.0488,0.061,-0.0732,-0.0488,-0.0244,-0.0122,-0.03904,0.05856,0.00976,-0.01952,-0.03416,-0.0488
-0.05856,0.05612,-0.05368,-0.0244,0.00488,-0.03172,-0.02928,0.05856,0,-0.01952,-0.03416,-0.0488
-0.05856,0.05124,-0.04392,-0.01464,0.01464,-0.0366,-0.0244,0.04392,-0.00976,-0.01464,-0.02928,-0.03904
-0.0488,0.0488,-0.0488,-0.0244,0,-0.0244,-0.03416,0.03904,-0.01952,-0.01952,-0.04392,-0.0488
-0.03904,0.03904,-0.03904,-0.01952,0,-0.01952,-0.0488,0.0488,-0.00976,-0.01952,-0.04392,-0.06832
-0.02928,0.03172,-0.03416,-0.01952,-0.00488,-0.0122,-0.03416,0.05368,-0.00488,-0.01464,-0.03416,-0.0488
-0.0244,0.02684,-0.02928,-0.01708,-0.00488,-0.00976,-0.01952,0.03416,-0.00488,-0.00488,-0.0244,-0.03904
-0.01464,0.0244,-0.03416,-0.02684,-0.01952,0.00244,0,0.03416,-0.01464,-0.00488,-0.02928,-0.04392
-0.02928,0.03172,-0.03416,-0.01952,-0.00488,-0.0122,0,0.02928,-0.0244,-0.0244,-0.03904,-0.06832
-0.03416,0.0366,-0.03904,-0.02196,-0.00488,-0.01464,0,0.0244,-0.0244,-0.0244,-0.03904,-0.06832
-0.04392,0.0366,-0.02928,-0.00732,0.01464,-0.02928,-0.01464,0.00976,-0.0244,-0.0244,-0.03904,-0.06344
-0.04392,0.03904,-0.03416,-0.0122,0.00976,-0.02684,-0.01464,0.00488,-0.0244,-0.0244,-0.03416,-0.06344
-0.05368,0.04636,-0.03904,-0.0122,0.01464,-0.03416,-0.01952,0.00488,-0.02928,-0.03416,-0.04392,-0.06344
-0.05368,0.04636,-0.03904,-0.0122,0.01464,-0.03416,-0.01952,0.01464,-0.02928,-0.03416,-0.04392,-0.06344
-0.05856,0.05124,-0.04392,-0.01464,0.01464,-0.0366,-0.00976,0.01952,-0.03416,-0.04392,-0.0488,-0.08296
-0.05856,0.0732,-0.08784,-0.05856,-0.02928,-0.01464,-0.00488,0.01464,-0.02928,-0.0244,-0.04392,-0.0732
-0.05368,0.06344,-0.0732,-0.04636,-0.01952,-0.01708,-0.00488,0.01464,-0.02928,-0.0244,-0.03904,-0.05856
-0.04392,0.0488,-0.05368,-0.03172,-0.00976,-0.01708,-0.00976,0.01952,-0.01952,-0.01952,-0.03416,-0.06344
-0.03904,0.05124,-0.06344,-0.04392,-0.0244,-0.00732,0.00488,0.02928,-0.02928,-0.00976,-0.03904,-0.0488
-0.01464,0.02196,-0.02928,-0.02196,-0.01464,0,0.01952,0.00488,-0.03416,-0.0244,-0.04392,-0.05368
-0.00488,0,0.00488,0.00732,0.00976,-0.00732,0.02928,0,-0.03416,-0.01952,-0.0488,-0.05368
-0.00488,0,0.00488,0.00732,0.00976,-0.00732,0.03904,-0.00488,-0.02928,-0.01464,-0.03416,-0.03904
-0.00976,0.00244,0.00488,0.00976,0.01464,-0.0122,0.03416,0.00488,-0.03416,-0.01952,-0.03904,-0.0488
-0.02928,0.02196,-0.01464,0,0.01464,-0.02196,0.00488,0,-0.03416,-0.01952,-0.03904,-0.0488
-0.03416,0.03904,-0.04392,-0.02684,-0.00976,-0.0122,-0.04392,0.01464,-0.03416,-0.01952,-0.04392,-0.0488
-0.02928,0.03904,-0.0488,-0.03416,-0.01952,-0.00488,-0.02928,0.0244,-0.0244,-0.01464,-0.03904,-0.0488
-0.03904,0.03416,-0.02928,-0.00976,0.00976,-0.0244,-0.01464,0.01952,-0.02928,-0.0244,-0.04392,-0.05368
-0.0488,0.0366,-0.0244,0,0.0244,-0.0366,-0.01464,0.00976,-0.04392,-0.03904,-0.06344,-0.06832
-0.04392,0.04392,-0.04392,-0.02196,0,-0.02196,-0.00976,0,-0.04392,-0.02928,-0.06344,-0.07808
-0.05368,0.05612,-0.05856,-0.03172,-0.00488,-0.0244,-0.01464,-0.01464,-0.04392,-0.02928,-0.05856,-0.0732
-0.0488,0.05368,-0.05856,-0.03416,-0.00976,-0.01952,-0.02928,0,-0.03904,-0.03416,-0.05368,-0.05856
-0.0488,0.06344,-0.07808,-0.05368,-0.02928,-0.00976,-0.05368,0,-0.0488,-0.03904,-0.05368,-0.05856
-0.05856,0.06344,-0.06832,-0.03904,-0.00976,-0.0244,-0.0488,-0.01952,-0.0488,-0.03904,-0.05368,-0.06832
-0.05856,0.04148,-0.0244,0.00488,0.03416,-0.04636,-0.03904,-0.03416,-0.05368,-0.03416,-0.05368,-0.07808
-0.05368,0.03904,-0.0244,0.00244,0.02928,-0.04148,-0.01464,-0.03416,-0.0488,-0.02928,-0.0488,-0.06832
-0.03904,0.03416,-0.02928,-0.00976,0.00976,-0.0244,0.00976,-0.00976,-0.03904,-0.02928,-0.04392,-0.06832
-0.03416,0.02684,-0.01952,-0.00244,0.01464,-0.0244,0.00976,-0.00488,-0.0488,-0.03904,-0.05368,-0.06832
-0.0244,0.02196,-0.01952,-0.00732,0.00488,-0.01464,0.00976,-0.01464,-0.05368,-0.03416,-0.05856,-0.08296
-0.0244,0.02684,-0.02928,-0.01708,-0.00488,-0.00976,-0.01952,-0.01464,-0.05856,-0.04392,-0.06344,-0.08296
-0.03416,0.03904,-0.04392,-0.02684,-0.00976,-0.0122,-0.03416,-0.00976,-0.05856,-0.03904,-0.05856,-0.08296
-0.05856,0.05856,-0.05856,-0.02928,0,-0.02928,-0.04392,0.00488,-0.04392,-0.03904,-0.05368,-0.07808
-0.06344,0.04636,-0.02928,0.00244,0.03416,-0.0488,-0.05368,0.00976,-0.05368,-0.03904,-0.05856,-0.0732
-0.05856,0.04148,-0.0244,0.00488,0.03416,-0.04636,-0.0488,0.00976,-0.04392,-0.0244,-0.05368,-0.06344
-0.0488,0.03416,-0.01952,0.00488,0.02928,-0.03904,-0.0488,0.01464,-0.0488,-0.03416,-0.05856,-0.0732
-0.03904,0.0366,-0.03416,-0.01464,0.00488,-0.02196,-0.00488,0.0244,-0.03416,-0.0244,-0.03416,-0.06344
-0.03416,0.03172,-0.02928,-0.0122,0.00488,-0.01952,0.00976,0.03416,-0.02928,-0.01952,-0.0244,-0.0488
-0.01952,0.01464,-0.00976,0,0.00976,-0.01464,-0.00976,0.0244,-0.0488,-0.02928,-0.03416,-0.05368
-0.0244,0.00976,0.00488,0.01708,0.02928,-0.02684,-0.01464,0.01464,-0.05856,-0.03416,-0.0488,-0.06344
-0.00976,0.00732,-0.00488,0,0.00488,-0.00732,-0.02928,0,-0.05368,-0.04392,-0.05856,-0.0732
-0.00976,0.0122,-0.01464,-0.00976,-0.00488,-0.00244,-0.02928,-0.00976,-0.0488,-0.04392,-0.06344,-0.07808
-0.01464,0.00976,-0.00488,0.00244,0.00976,-0.0122,-0.01952,0.01464,-0.04392,-0.03416,-0.06344,-0.07808
-0.01952,0,0.01952,0.02928,0.03904,-0.02928,-0.00488,0.05368,-0.03416,-0.0244,-0.03904,-0.06344
-0.01952,-0.00488,0.02928,0.03904,0.0488,-0.03416,-0.01464,0.0732,-0.0244,-0.01464,-0.02928,-0.05368
-0.03416,0.01464,0.00488,0.02196,0.03904,-0.0366,-0.02928,0.0976,-0.01952,-0.01464,-0.02928,-0.04392
-0.01952,0.0122,-0.00488,0.00488,0.01464,-0.01708,-0.0488,0.10248,-0.00976,-0.00976,-0.03416,-0.03416
-0.01464,0.00976,-0.00488,0.00244,0.00976,-0.0122,-0.06344,0.10248,0,0.00488,-0.0244,-0.03416
-0.00976,0.00488,0,0.00488,0.00976,-0.00976,-0.07808,0.0976,-0.01464,-0.00488,-0.02928,-0.03904
-0.01952,0.00488,0.00976,0.01952,0.02928,-0.0244,-0.11712,0.0976,-0.0244,-0.01464,-0.0488,-0.05856
-0.01952,0,0.01952,0.02928,0.03904,-0.02928,-0.122,0.11712,-0.01952,-0.01464,-0.03904,-0.04392
-0.01952,-0.00244,0.0244,0.03416,0.04392,-0.03172,-0.11712,0.10736,-0.00976,-0.00488,-0.0244,-0.03416
0,-0.02196,0.04392,0.04392,0.04392,-0.02196,-0.10248,0.10248,0.00976,0.00488,-0.01464,-0.01952
0.00976,-0.02196,0.03416,0.02928,0.0244,-0.00732,-0.07808,0.122,0.0244,0.01464,0,-0.01952
0.00976,-0.03904,0.06832,0.06344,0.05856,-0.0244,-0.06832,0.11224,0.00976,0.01952,0,-0.02928
0.00976,-0.04148,0.0732,0.06832,0.06344,-0.02684,-0.0488,0.10736,0.01952,0.0244,0,-0.01464
0.0244,-0.04636,0.06832,0.05612,0.04392,-0.00976,-0.0488,0.10736,0.01952,0.0244,0.01464,0
0.0244,-0.0488,0.0732,0.061,0.0488,-0.0122,-0.05368,0.11224,0.02928,0.0244,0.01464,0
0.02928,-0.05124,0.0732,0.05856,0.04392,-0.00732,-0.06832,0.0976,0.03416,0.03904,0.0244,0.00488
0.03416,-0.061,0.08784,0.07076,0.05368,-0.00976,-0.07808,0.08296,0.0488,0.03904,0.0244,0.01464
0.00976,-0.04636,0.08296,0.07808,0.0732,-0.03172,-0.0732,0.05856,0.04392,0.04392,0.01464,0.01952
0.00976,-0.03172,0.05368,0.0488,0.04392,-0.01708,-0.06344,0.06832,0.04392,0.0488,0.02928,0.03416
0.01952,-0.0366,0.05368,0.04392,0.03416,-0.00732,-0.05856,0.04392,0.03416,0.04392,0.0244,0.0244
0.01952,-0.03904,0.05856,0.0488,0.03904,-0.00976,-0.0488,0.04392,0.03416,0.03904,0.02928,0.0244
0.01952,-0.03416,0.0488,0.03904,0.02928,-0.00488,-0.04392,0.01952,0.04392,0.03904,0.02928,0.02928
0.01464,-0.03416,0.05368,0.04636,0.03904,-0.0122,-0.01952,0.01952,0.0488,0.05856,0.03904,0.03904
0.0244,-0.04392,0.06344,0.05124,0.03904,-0.00732,-0.03904,0.00488,0.03416,0.04392,0.01952,0.0244
0.03416,-0.04636,0.05856,0.04148,0.0244,0.00488,-0.05856,0.01464,0.0244,0.03416,0.00976,0.02928
0.03904,-0.05124,0.06344,0.04392,0.0244,0.00732,-0.04392,0.01952,0.0244,0.03416,0.00976,0.01952
0.0488,-0.07564,0.10248,0.07808,0.05368,-0.00244,-0.04392,0.00488,0.0244,0.03416,0,0
0.04392,-0.07564,0.10736,0.0854,0.06344,-0.00976,-0.03904,0.00488,0.0244,0.03416,0.00976,0.00488
0.03904,-0.05612,0.0732,0.05368,0.03416,0.00244,-0.0244,0.00976,0.01952,0.0244,0.00976,-0.00976
0.02928,-0.03172,0.03416,0.01952,0.00488,0.0122,-0.01464,0.01952,0.02928,0.03416,0.00976,-0.00488
0.00488,-0.02684,0.0488,0.04636,0.04392,-0.01952,-0.0244,0.01464,0.01952,0.03416,0.00976,-0.00488
0.00488,-0.0244,0.04392,0.04148,0.03904,-0.01708,-0.0244,0.00488,0.00976,0.01464,0.00488,-0.01464
0.00488,-0.01708,0.02928,0.02684,0.0244,-0.00976,-0.01952,-0.00488,0.00976,0.01952,0.00488,-0.00976
-0.00488,-0.00732,0.01952,0.02196,0.0244,-0.01464,-0.01464,0,0.00976,0.00976,0,-0.01952
-0.01464,-0.00244,0.01952,0.02684,0.03416,-0.0244,0,0,0,0.00976,-0.00488,-0.0244
-0.01464,0.00244,0.00976,0.01708,0.0244,-0.01952,-0.01952,-0.00488,-0.01464,0,-0.00976,-0.01952
-0.0244,0.00976,0.00488,0.01708,0.02928,-0.02684,-0.04392,-0.02928,-0.01464,0.00976,-0.00976,-0.01952
-0.02928,0.0244,-0.01952,-0.00488,0.00976,-0.01952,-0.0488,-0.0244,0,0,-0.01952,-0.01952
-0.01952,0.02196,-0.0244,-0.01464,-0.00488,-0.00732,-0.06344,-0.02928,-0.01952,-0.00488,-0.0244,-0.01952
-0.01952,0.0244,-0.02928,-0.01952,-0.00976,-0.00488,-0.0488,-0.0244,-0.01464,0.00488,-0.01952,-0.01952
0,-0.0122,0.0244,0.0244,0.0244,-0.0122,-0.03904,-0.02928,-0.01464,-0.00488,-0.01952,-0.01952
0,-0.0122,0.0244,0.0244,0.0244,-0.0122,-0.03904,-0.01952,-0.00488,0.00976,-0.00976,-0.0244
-0.00976,-0.00244,0.01464,0.01952,0.0244,-0.01708,-0.01952,0.00976,0.00488,0.01952,-0.00488,-0.01952
-0.01464,-0.00244,0.01952,0.02684,0.03416,-0.0244,-0.00488,0.04392,0.00976,0.02928,0.00488,-0.01464
-0.01952,-0.00244,0.0244,0.03416,0.04392,-0.03172,0,0.06344,0.01464,0.01952,0,-0.00976
-0.01464,-0.00732,0.02928,0.0366,0.04392,-0.02928,0,0.03904,0.01952,0.01464,0,-0.01952
-0.01464,-0.00488,0.0244,0.03172,0.03904,-0.02684,0,0.00488,0.00976,0.01464,0,-0.0244
-0.01952,0.00244,0.01464,0.0244,0.03416,-0.02684,0.00976,0.01464,0.01952,0.01464,-0.00488,-0.01952
-0.01464,-0.00244,0.01952,0.02684,0.03416,-0.0244,-0.00488,0.00976,0.0244,0.01952,-0.01464,-0.00976
-0.0244,-0.00488,0.03416,0.04636,0.05856,-0.04148,-0.02928,0.02928,0.01952,0.0244,-0.00976,-0.00488
-0.01464,-0.01464,0.04392,0.05124,0.05856,-0.0366,-0.04392,0.03416,0.01952,0.02928,-0.00488,-0.00488
-0.01464,-0.01464,0.04392,0.05124,0.05856,-0.0366,-0.05856,0.02928,0.03416,0.02928,0,-0.00976
-0.01952,0.00244,0.01464,0.0244,0.03416,-0.02684,-0.0488,0.02928,0.03416,0.03416,0,-0.00976
-0.02928,0.0122,0.00488,0.01952,0.03416,-0.03172,-0.05368,0.00976,0.03904,0.03416,0.00976,-0.00976
-0.0244,0.00976,0.00488,0.01708,0.02928,-0.02684,-0.04392,0.01464,0.04392,0.03904,0.01464,-0.00488
-0.02928,0.00732,0.01464,0.02928,0.04392,-0.0366,-0.0244,0.01464,0.04392,0.02928,0.01952,-0.00488
-0.02928,-0.00732,0.04392,0.05856,0.0732,-0.05124,-0.01464,-0.00488,0.03416,0.02928,0.00976,-0.00976
-0.01464,-0.0122,0.03904,0.04636,0.05368,-0.03416,-0.0244,-0.01464,0.02928,0.0244,0.00488,-0.01952
-0.00488,-0.00976,0.0244,0.02684,0.02928,-0.01708,-0.03416,-0.00976,0.03416,0.0244,-0.00488,-0.02928
0.00976,-0.02928,0.0488,0.04392,0.03904,-0.01464,-0.0488,0,0.0244,0.01952,-0.00976,-0.0244
0.0244,-0.0488,0.0732,0.061,0.0488,-0.0122,-0.05856,0,0.02928,0.01952,-0.01464,-0.03416
0.01464,-0.04148,0.06832,0.061,0.05368,-0.01952,-0.04392,0,0.02928,0.01952,-0.0244,-0.02928
0.01464,-0.03172,0.0488,0.04148,0.03416,-0.00976,-0.03416,0.00976,0.04392,0.0244,-0.00976,-0.00976
-0.00488,-0.00488,0.01464,0.01708,0.01952,-0.0122,-0.01952,0.0244,0.03904,0.02928,0.00976,0.00488
-0.01464,0,0.01464,0.02196,0.02928,-0.02196,-0.00976,0.03904,0.04392,0.02928,0.0244,0.01464
-0.00976,-0.00976,0.02928,0.03416,0.03904,-0.0244,0.01464,0.05856,0.03416,0.04392,0.01464,0
0,-0.01952,0.03904,0.03904,0.03904,-0.01952,0.01952,0.02928,0.03904,0.04392,0.01464,0
0.01464,-0.02928,0.04392,0.0366,0.02928,-0.00732,0.02928,0.0244,0.04392,0.03904,0.00488,-0.00488
0.03416,-0.0366,0.03904,0.02196,0.00488,0.01464,0.02928,0.03416,0.03904,0.03904,0.00488,-0.00488
0.03416,-0.03904,0.04392,0.02684,0.00976,0.0122,0,0.01952,0.01952,0.03416,-0.00976,-0.0244
0.01464,-0.0244,0.03416,0.02684,0.01952,-0.00244,-0.02928,0.00976,0.0244,0.0244,-0.00488,-0.01464
-0.00488,-0.0122,0.02928,0.03172,0.03416,-0.01952,-0.05856,0.01464,0.01952,0.01952,-0.01464,-0.01952
-0.02928,-0.00732,0.04392,0.05856,0.0732,-0.05124,-0.0732,0.01464,0.0244,0.01464,-0.01952,-0.01952
-0.02928,-0.00244,0.03416,0.0488,0.06344,-0.04636,-0.05368,0.00976,0.01464,0.0244,-0.01464,-0.01952
-0.02928,0.0122,0.00488,0.01952,0.03416,-0.03172,-0.02928,-0.00488,0.00976,0.0244,-0.00488,-0.01952
-0.02928,0.01952,-0.00976,0.00488,0.01952,-0.0244,-0.0244,0.00488,0.01464,0.01952,-0.00488,-0.00488
-0.02928,0.00488,0.01952,0.03416,0.0488,-0.03904,-0.03904,0.01464,0.01464,0.01464,-0.01464,-0.01952
-0.01464,-0.00488,0.0244,0.03172,0.03904,-0.02684,-0.05368,0.03416,0.01464,0.00976,-0.00488,-0.01464
-0.01464,-0.01464,0.04392,0.05124,0.05856,-0.0366,-0.05368,0.02928,0.01952,0.00976,-0.00488,-0.01464
-0.00488,-0.01708,0.03904,0.04148,0.04392,-0.0244,-0.02928,0.00976,0.02928,0.01464,-0.00488,-0.01464
0,-0.01708,0.03416,0.03416,0.03416,-0.01708,0.01464,-0.00488,0.02928,0.01464,0,-0.01952
0,-0.0244,0.0488,0.0488,0.0488,-0.0244,0.03904,0.01464,0.02928,0.01952,0,-0.00488
-0.00976,-0.0122,0.03416,0.03904,0.04392,-0.02684,0.04392,0.02928,0.01952,0.01952,0,-0.00488
-0.00488,-0.01708,0.03904,0.04148,0.04392,-0.0244,0.03904,0.04392,0.0244,0.01952,0,-0.01464
-0.00488,-0.02684,0.05856,0.061,0.06344,-0.03416,0.00976,0.04392,0.01952,0.00976,-0.00488,-0.00976
-0.00976,-0.01464,0.03904,0.04392,0.0488,-0.02928,-0.01464,0.02928,0.03416,0.00976,-0.00488,-0.01464
-0.00488,-0.01952,0.04392,0.04636,0.0488,-0.02684,-0.02928,0.01464,0.03416,0.00488,-0.00976,-0.00976
-0.01464,-0.00244,0.01952,0.02684,0.03416,-0.0244,-0.03904,0.0244,0.01952,0.01952,-0.00976,-0.00976
-0.03416,0.02196,-0.00976,0.00732,0.0244,-0.02928,-0.0488,0.0244,0.0244,0.01952,-0.00976,-0.01464
-0.02928,0.01952,-0.00976,0.00488,0.01952,-0.0244,-0.03904,0.00976,0.01464,0.01464,-0.01952,-0.0244
-0.01464,0.00488,0.00488,0.0122,0.01952,-0.01708,-0.02928,0.00976,0.01952,0,-0.01464,-0.0244
-0.00976,-0.00244,0.01464,0.01952,0.0244,-0.01708,-0.01464,0.00488,0,-0.00488,-0.01952,-0.04392
-0.01464,0.00976,-0.00488,0.00244,0.00976,-0.0122,0,-0.00488,0.00488,0.01464,-0.01464,-0.02928
-0.01952,0.01464,-0.00976,0,0.00976,-0.01464,-0.00976,0.00488,0.00488,0.00488,-0.01464,-0.0244
-0.01952,0.01464,-0.00976,0,0.00976,-0.01464,-0.0244,0.02928,0.00976,-0.00488,-0.00976,-0.02928
-0.01464,0.00732,0,0.00732,0.01464,-0.01464,-0.03416,0.01952,0.00976,0.00488,-0.01464,-0.0244
-0.01952,0.00244,0.01464,0.0244,0.03416,-0.02684,-0.03416,0.01464,0.01464,0.00488,-0.01464,-0.0244
-0.0244,0.00732,0.00976,0.02196,0.03416,-0.02928,-0.02928,0.00488,0.01464,0.00976,-0.01464,-0.0244
-0.01464,0.00976,-0.00488,0.00244,0.00976,-0.0122,-0.01464,-0.00976,0.01464,0.00976,-0.01952,-0.01952
0,-0.0122,0.0244,0.0244,0.0244,-0.0122,0.00976,-0.01952,0.00976,0.01952,-0.01952,-0.0244
-0.00488,-0.00488,0.01464,0.01708,0.01952,-0.0122,0.00976,-0.01952,0.00976,0.01464,-0.01952,-0.01952
0.0244,-0.0244,0.0244,0.0122,0,0.0122,0.01464,-0.05368,0.00488,0.02928,-0.01464,-0.02928
0,-0.00976,0.01952,0.01952,0.01952,-0.00976,0.00976,-0.03416,-0.01952,0.00488,-0.01952,-0.04392
-0.01464,-0.00488,0.0244,0.03172,0.03904,-0.02684,-0.00488,0.03416,-0.00488,0,-0.01952,-0.04392
-0.0244,-0.00488,0.03416,0.04636,0.05856,-0.04148,-0.01464,0.04392,0.00488,0,-0.01952,-0.03416
-0.01464,-0.00976,0.03416,0.04148,0.0488,-0.03172,-0.0244,0.03416,0.0244,0.00976,-0.01952,-0.0244
-0.00976,-0.0122,0.03416,0.03904,0.04392,-0.02684,-0.03416,0.0244,0.0244,0.00976,-0.01464,-0.01952
-0.00488,-0.00732,0.01952,0.02196,0.0244,-0.01464,-0.02928,0.00488,0.01952,0.00976,-0.01464,-0.03416
-0.00488,-0.00976,0.0244,0.02684,0.02928,-0.01708,-0.00976,-0.00976,0.00976,0.00488,-0.01952,-0.03904
0,-0.01708,0.03416,0.03416,0.03416,-0.01708,-0.0244,0.00488,-0.00488,-0.00976,-0.03904,-0.0488
-0.00488,-0.0244,0.05368,0.05612,0.05856,-0.03172,-0.03416,0.0244,-0.00488,-0.00976,-0.03416,-0.0488
-0.00976,-0.01464,0.03904,0.04392,0.0488,-0.02928,-0.0244,0.00976,0.01464,-0.00488,-0.0244,-0.02928
-0.01952,0,0.01952,0.02928,0.03904,-0.02928,-0.0244,-0.01952,0.01464,0,-0.0244,-0.02928
-0.0244,0.00244,0.01952,0.03172,0.04392,-0.03416,0,-0.00488,0.01952,0.00488,-0.01464,-0.00976
-0.01952,-0.00976,0.03904,0.0488,0.05856,-0.03904,0.02928,0.03416,0.02928,0.00488,-0.00488,-0.00976
-0.01952,-0.00488,0.02928,0.03904,0.0488,-0.03416,0.0244,0.07808,0.03416,0.0244,0.00488,0.00976
-0.01952,0.00244,0.01464,0.0244,0.03416,-0.02684,0.03416,0.0976,0.05856,0.03904,0.00976,0.0244
-0.02928,0.00244,0.0244,0.03904,0.05368,-0.04148,0.0488,0.0976,0.05856,0.03904,0.01464,0.01952
-0.01952,-0.02684,0.0732,0.08296,0.09272,-0.05612,0.0488,0.07808,0.05368,0.04392,0.01952,0.01952
-0.01464,-0.02928,0.0732,0.08052,0.08784,-0.05124,0.04392,0.06832,0.06344,0.04392,0.01464,0.00488
-0.00976,-0.02928,0.06832,0.0732,0.07808,-0.04392,0.04392,0.0732,0.06344,0.0488,0.01464,0.00488
0,-0.04148,0.08296,0.08296,0.08296,-0.04148,0,0.05368,0.05368,0.04392,0.01464,-0.00488
0.00488,-0.05124,0.0976,0.09516,0.09272,-0.04392,-0.02928,0.03904,0.05368,0.03904,0.01464,0
0.01464,-0.06832,0.122,0.11468,0.10736,-0.04636,-0.0488,0.00976,0.03416,0.03416,0.00488,-0.00488
0.03416,-0.07808,0.122,0.10492,0.08784,-0.02684,-0.0488,-0.00976,0.03416,0.03904,0.00976,-0.00976
0.04392,-0.09516,0.1464,0.12444,0.10248,-0.02928,-0.03904,-0.03416,0.01952,0.03416,0.00488,-0.00488
0.04392,-0.09516,0.1464,0.12444,0.10248,-0.02928,-0.01952,-0.03904,0.01952,0.03416,0.00488,0.00488
0.05368,-0.10004,0.1464,0.11956,0.09272,-0.01952,-0.0244,-0.03416,0.03416,0.03904,0.00976,0.00976
0.03904,-0.07564,0.11224,0.09272,0.0732,-0.01708,-0.03416,-0.01464,0.04392,0.05368,0.0244,0.01952
0.0244,-0.06832,0.11224,0.10004,0.08784,-0.03172,-0.05368,-0.01952,0.04392,0.0488,0.03904,0.01952
0.02928,-0.08052,0.13176,0.11712,0.10248,-0.0366,-0.0732,0,0.0488,0.04392,0.03904,0.0244
0.00976,-0.05856,0.10736,0.10248,0.0976,-0.04392,-0.08296,0.04392,0.06344,0.05856,0.0488,0.0488
0.00488,-0.05612,0.10736,0.10492,0.10248,-0.0488,-0.07808,0.05856,0.06344,0.05368,0.04392,0.0488
0,-0.0366,0.0732,0.0732,0.0732,-0.0366,-0.06832,0.0488,0.06832,0.05856,0.03904,0.03904
0,-0.01952,0.03904,0.03904,0.03904,-0.01952,-0.06832,0.0244,0.05368,0.03904,0.02928,0.01952
-0.00976,-0.01464,0.03904,0.04392,0.0488,-0.02928,-0.0488,-0.00488,0.02928,0.01464,-0.00488,-0.00488
-0.01952,-0.01464,0.0488,0.05856,0.06832,-0.04392,-0.03904,-0.00976,0.00488,-0.01464,-0.02928,-0.01952
-0.01464,-0.01464,0.04392,0.05124,0.05856,-0.0366,-0.0244,-0.00976,0,-0.01464,-0.03904,-0.03416
-0.00976,-0.00244,0.01464,0.01952,0.0244,-0.01708,-0.00488,0.01952,0.0244,0.00488,-0.01464,-0.01464
0.00488,-0.0122,0.01952,0.01708,0.01464,-0.00488,-0.00488,0.0244,0.0244,0,-0.01464,-0.0244
-0.00976,-0.00732,0.0244,0.02928,0.03416,-0.02196,-0.00976,0.02928,0.0244,0,-0.01464,-0.0244
0,-0.00976,0.01952,0.01952,0.01952,-0.00976,-0.01952,0.02928,0.01464,-0.01464,-0.01464,-0.03904
0,-0.0122,0.0244,0.0244,0.0244,-0.0122,-0.0244,0.00976,0.01464,-0.01464,-0.01464,-0.03416
0,-0.01952,0.03904,0.03904,0.03904,-0.01952,-0.00976,0,0.01464,-0.01464,-0.00976,-0.03416
-0.00488,0,0.00488,0.00732,0.00976,-0.00732,0.00976,-0.00976,0.01464,0.00488,-0.00976,-0.01952
-0.00488,-0.00488,0.01464,0.01708,0.01952,-0.0122,0.01464,-0.0244,0.01464,0.00488,-0.01952,-0.02928
0,-0.0122,0.0244,0.0244,0.0244,-0.0122,0.00488,-0.0244,0.00976,-0.00488,-0.0244,-0.03904
-0.01464,0.00732,0,0.00732,0.01464,-0.01464,0.01464,0.02928,0.01464,-0.00488,-0.01952,-0.03416
-0.06832,0.01708,0.03416,0.06832,0.10248,-0.0854,-0.00488,0.0244,0.01952,0.00488,-0.01952,-0.0488
-0.03416,0.01952,-0.00488,0.0122,0.02928,-0.03172,-0.01952,0.05368,0.05856,0.04392,0.02928,0.00976
-0.02928,-0.00976,0.0488,0.06344,0.07808,-0.05368,-0.05368,0.20496,0.11712,0.05368,0.02928,0.0244
0.00488,-0.04148,0.07808,0.07564,0.0732,-0.03416,-0.06344,0.2684,0.18544,0.08296,0.0488,0.02928
0.05368,-0.09028,0.12688,0.10004,0.0732,-0.00976,-0.06344,0.01952,0.20008,0.16592,0.15128,0.1464
0.11712,-0.13908,0.16104,0.10248,0.04392,0.0366,-0.06832,-0.366,0.12688,0.24888,0.24888,0.25864
0.16104,-0.20984,0.25864,0.17812,0.0976,0.03172,-0.13176,-0.83448,-0.03904,0.35624,0.39528,0.44896
0.23912,-0.27328,0.30744,0.18788,0.06832,0.0854,-0.25864,-1.33712,-0.3416,0.39528,0.488,0.56608
0.29768,-0.3294,0.36112,0.21228,0.06344,0.11712,-0.42944,-1.54208,-0.57096,0.30744,0.4392,0.58072
0.3172,-0.19764,0.07808,-0.08052,-0.23912,0.27816,-0.45384,-1.38104,-0.66368,0.10248,0.25376,0.41968
0.28304,-0.0854,-0.11224,-0.25376,-0.39528,0.33916,-0.3904,-1.1712,-0.62464,-0.03904,0.08784,0.26352
0.22448,-0.04636,-0.13176,-0.244,-0.35624,0.29036,-0.27816,-0.95648,-0.5368,-0.07808,0.0244,0.1952
0.09272,0.01708,-0.12688,-0.17324,-0.2196,0.15616,-0.122,-0.7808,-0.46848,-0.0976,-0.05368,0.0488
-0.00976,0.07808,-0.1464,-0.14152,-0.13664,0.06344,-0.05368,-0.61,-0.4148,-0.14152,-0.11712,-0.05368
-0.00488,0.06344,-0.122,-0.11956,-0.11712,0.05612,-0.01464,-0.52704,-0.33184,-0.15128,-0.13176,-0.08784
-0.0488,0.05612,-0.06344,-0.03904,-0.01464,-0.01708,0.01952,-0.40992,-0.27816,-0.16104,-0.15616,-0.10736
-0.05368,0.0976,-0.14152,-0.11468,-0.08784,0.01708,0.0244,-0.244,-0.19032,-0.07808,-0.08296,-0.06344
-0.05856,0.05124,-0.04392,-0.01464,0.01464,-0.0366,-0.03416,-0.16592,-0.12688,-0.06832,-0.08296,-0.08296
-0.02928,0.03172,-0.03416,-0.01952,-0.00488,-0.0122,-0.02928,-0.07808,-0.0732,-0.05856,-0.07808,-0.06344
-0.02928,0.0366,-0.04392,-0.02928,-0.01464,-0.00732,-0.03416,-0.01464,-0.03904,-0.0488,-0.0732,-0.05368
-0.02928,0.02928,-0.02928,-0.01464,0,-0.01464,-0.02928,0.0244,-0.02928,-0.03904,-0.05368,-0.05856
-0.0244,0.01708,-0.00976,0.00244,0.01464,-0.01952,-0.02928,0.01464,-0.02928,-0.02928,-0.0488,-0.05856
-0.01952,0.01464,-0.00976,0,0.00976,-0.01464,-0.01952,0.01464,-0.0244,-0.03416,-0.04392,-0.05368
-0.01952,0.0122,-0.00488,0.00488,0.01464,-0.01708,-0.01464,0.00976,-0.01952,-0.04392,-0.05368,-0.05368
-0.02928,0.0122,0.00488,0.01952,0.03416,-0.03172,-0.00488,0.00976,-0.0244,-0.03904,-0.05368,-0.05368
-0.03904,0.01708,0.00488,0.0244,0.04392,-0.04148,-0.00488,0.00976,-0.0244,-0.03904,-0.05368,-0.06344
-0.04392,0.02196,0,0.02196,0.04392,-0.04392,-0.00488,0.01952,-0.00488,-0.0244,-0.03904,-0.06344
-0.04392,0.02928,-0.01464,0.00732,0.02928,-0.0366,0.00488,0.0244,-0.00488,-0.02928,-0.05368,-0.06344
-0.0488,0.03172,-0.01464,0.00976,0.03416,-0.04148,-0.00488,0.0488,0,-0.02928,-0.05368,-0.05856
-0.03904,0.02928,-0.01952,0,0.01952,-0.02928,0,0.0732,0.00488,-0.0244,-0.04392,-0.03904
-0.0488,0.03904,-0.02928,-0.00488,0.01952,-0.03416,0.00488,0.0488,0.01464,-0.01464,-0.03416,-0.0488
-0.0488,0.04148,-0.03416,-0.00976,0.01464,-0.03172,0.01464,0.03904,0.00488,-0.01464,-0.03904,-0.05368
-0.0488,0.0366,-0.0244,0,0.0244,-0.0366,0.01464,0.0244,0,-0.02928,-0.05856,-0.06832
-0.03416,0.03172,-0.02928,-0.0122,0.00488,-0.01952,0.00488,0.00976,-0.00976,-0.03904,-0.05856,-0.06832
-0.03416,0.0366,-0.03904,-0.02196,-0.00488,-0.01464,0.00488,-0.00488,-0.01464,-0.03416,-0.05856,-0.06344
-0.03416,0.03904,-0.04392,-0.02684,-0.00976,-0.0122,0.00488,0,-0.01464,-0.03416,-0.05368,-0.06344
-0.05368,0.05368,-0.05368,-0.02684,0,-0.02684,-0.00488,0.01952,0,-0.03416,-0.05368,-0.05368
-0.0732,0.06832,-0.06344,-0.02684,0.00976,-0.04148,-0.01464,0.03904,0,-0.03416,-0.05368,-0.05368
-0.0732,0.06588,-0.05856,-0.02196,0.01464,-0.04392,-0.03416,0.0244,-0.00976,-0.0488,-0.06344,-0.06832
-0.06344,0.06832,-0.0732,-0.04148,-0.00976,-0.02684,-0.05856,0.00976,-0.01464,-0.03904,-0.06832,-0.06832
-0.0488,0.04392,-0.03904,-0.01464,0.00976,-0.02928,-0.06344,0,-0.0244,-0.04392,-0.06832,-0.07808
-0.0488,0.02928,-0.00976,0.01464,0.03904,-0.04392,-0.0488,-0.00488,-0.0244,-0.03904,-0.06344,-0.08296
-0.04392,0.03416,-0.0244,-0.00244,0.01952,-0.03172,-0.01464,0.00976,-0.02928,-0.03904,-0.05856,-0.07808
-0.02928,0.01952,-0.00976,0.00488,0.01952,-0.0244,0.01952,0.00488,-0.03416,-0.05368,-0.06344,-0.08296
-0.03416,0.01708,0,0.01708,0.03416,-0.03416,0.03904,-0.00488,-0.03416,-0.0488,-0.06344,-0.08296
-0.03416,0.03172,-0.02928,-0.0122,0.00488,-0.01952,0.0488,-0.01952,-0.02928,-0.04392,-0.05856,-0.06832
-0.01952,0.01708,-0.01464,-0.00488,0.00488,-0.0122,0.0488,0,-0.02928,-0.0488,-0.05856,-0.06832
-0.01952,0.00732,0.00488,0.01464,0.0244,-0.02196,0.0488,0.00488,-0.01952,-0.0488,-0.05856,-0.06832
-0.03904,0.02196,-0.00488,0.01464,0.03416,-0.0366,0.01464,0.00976,-0.01952,-0.03904,-0.06344,-0.07808
-0.04392,0.0366,-0.02928,-0.00732,0.01464,-0.02928,0.02928,-0.00976,-0.01952,-0.03416,-0.05856,-0.07808
-0.06344,0.05124,-0.03904,-0.00732,0.0244,-0.04392,0.00488,-0.00976,-0.0244,-0.03904,-0.05856,-0.07808
-0.06344,0.0488,-0.03416,-0.00244,0.02928,-0.04636,-0.03416,-0.01952,-0.02928,-0.04392,-0.06832,-0.08296
-0.06344,0.05612,-0.0488,-0.01708,0.01464,-0.03904,-0.04392,-0.00976,-0.01952,-0.03416,-0.05368,-0.07808
-0.0732,0.0732,-0.0732,-0.0366,0,-0.0366,-0.03904,0.01464,-0.00976,-0.0244,-0.0488,-0.05368
-0.06344,0.05612,-0.0488,-0.01708,0.01464,-0.03904,-0.03416,0.01952,-0.00488,-0.02928,-0.05368,-0.04392
-0.05368,0.04148,-0.02928,-0.00244,0.0244,-0.03904,-0.02928,0,-0.0244,-0.04392,-0.05368,-0.05368
-0.04392,0.03904,-0.03416,-0.0122,0.00976,-0.02684,-0.00488,-0.01464,-0.03904,-0.05368,-0.06832,-0.06832
-0.03416,0.02684,-0.01952,-0.00244,0.01464,-0.0244,-0.00488,-0.01952,-0.04392,-0.05856,-0.07808,-0.07808
-0.03904,0.03172,-0.0244,-0.00488,0.01464,-0.02684,0.00488,-0.01464,-0.02928,-0.0488,-0.06832,-0.08784
-0.03416,0.03172,-0.02928,-0.0122,0.00488,-0.01952,0.00976,0.00976,-0.01952,-0.0488,-0.06344,-0.08784
-0.03904,0.03172,-0.0244,-0.00488,0.01464,-0.02684,0.01464,0.01464,-0.00976,-0.03904,-0.05368,-0.06832
-0.03904,0.02684,-0.01464,0.00488,0.0244,-0.03172,0.0244,0.00488,-0.01464,-0.03416,-0.05856,-0.06344
-0.03416,0.02196,-0.00976,0.00732,0.0244,-0.02928,0.00976,0,-0.03416,-0.05368,-0.0732,-0.0732
-0.04392,0.03416,-0.0244,-0.00244,0.01952,-0.03172,0.01464,-0.00488,-0.04392,-0.0488,-0.06832,-0.0732
-0.06344,0.05612,-0.0488,-0.01708,0.01464,-0.03904,0.00488,0,-0.04392,-0.05368,-0.06832,-0.0732
-0.05856,0.03904,-0.01952,0.00976,0.03904,-0.0488,-0.0244,-0.00488,-0.05368,-0.06344,-0.08296,-0.07808
-0.0732,0.03904,-0.00488,0.03172,0.06832,-0.07076,-0.05856,-0.0244,-0.04392,-0.06344,-0.08784,-0.09272
-0.0732,0.0366,0,0.0366,0.0732,-0.0732,-0.07808,-0.02928,-0.0488,-0.0732,-0.10248,-0.10248
-0.07808,0.061,-0.04392,-0.00488,0.03416,-0.05612,-0.04392,-0.0244,-0.04392,-0.05368,-0.09272,-0.0976
-0.0732,0.06588,-0.05856,-0.02196,0.01464,-0.04392,-0.02928,-0.01464,-0.03904,-0.0488,-0.08296,-0.09272
-0.0488,0.04148,-0.03416,-0.00976,0.01464,-0.03172,-0.0488,0,-0.05368,-0.05856,-0.08784,-0.08784
-0.03416,0.02196,-0.00976,0.00732,0.0244,-0.02928,-0.05368,0,-0.05368,-0.06344,-0.09272,-0.08784
-0.0244,0.00732,0.00976,0.02196,0.03416,-0.02928,-0.05856,0.01952,-0.05368,-0.0732,-0.09272,-0.08784
-0.03416,0.0122,0.00976,0.02684,0.04392,-0.03904,-0.05856,0.02928,-0.0488,-0.0732,-0.08784,-0.08296
-0.03904,0.0122,0.01464,0.03416,0.05368,-0.04636,-0.04392,0.0244,-0.0488,-0.06344,-0.08784,-0.08296
-0.03416,0.00732,0.01952,0.0366,0.05368,-0.04392,-0.03904,0.0244,-0.0488,-0.05368,-0.0732,-0.07808
-0.0244,0.00244,0.01952,0.03172,0.04392,-0.03416,-0.03416,0.03416,-0.03904,-0.04392,-0.0732,-0.06832
-0.02928,0.01708,-0.00488,0.00976,0.0244,-0.02684,-0.00976,0.05856,-0.0244,-0.04392,-0.06344,-0.0488
-0.01464,0.00976,-0.00488,0.00244,0.00976,-0.0122,0,0.08784,-0.00976,-0.03904,-0.04392,-0.05368
-0.01952,0.0122,-0.00488,0.00488,0.01464,-0.01708,-0.01464,0.0976,0,-0.0244,-0.03416,-0.05368
-0.00976,0,0.00976,0.01464,0.01952,-0.01464,-0.02928,0.0976,-0.00976,-0.0244,-0.04392,-0.05856
0,-0.01952,0.03904,0.03904,0.03904,-0.01952,-0.06832,0.07808,-0.00976,-0.03416,-0.05368,-0.05856
-0.00488,-0.02684,0.05856,0.061,0.06344,-0.03416,-0.09272,0.08296,-0.01464,-0.03416,-0.0488,-0.03904
-0.01464,-0.0244,0.06344,0.07076,0.07808,-0.04636,-0.08784,0.08296,-0.01464,-0.0244,-0.03416,-0.03904
-0.00488,-0.04148,0.08784,0.09028,0.09272,-0.0488,-0.07808,0.07808,-0.00976,-0.01952,-0.03904,-0.03904
-0.00488,-0.03172,0.06832,0.07076,0.0732,-0.03904,-0.06344,0.08784,0.00488,-0.01952,-0.03416,-0.03904
0.00976,-0.04392,0.07808,0.0732,0.06832,-0.02928,-0.05368,0.08784,0.00488,-0.01464,-0.03416,-0.03904
0.02928,-0.04636,0.06344,0.0488,0.03416,-0.00244,-0.0244,0.09272,0.0244,0,-0.0244,-0.0244
0.03416,-0.05124,0.06832,0.05124,0.03416,0,-0.02928,0.0976,0.02928,0.00488,-0.00488,-0.00976
0.03416,-0.05368,0.0732,0.05612,0.03904,-0.00244,-0.03416,0.10248,0.03904,0.00488,-0.00488,-0.00976
0.0244,-0.0488,0.0732,0.061,0.0488,-0.0122,-0.0488,0.08784,0.03416,0.01464,0.00976,-0.01464
0.01952,-0.05368,0.08784,0.07808,0.06832,-0.0244,-0.05856,0.0732,0.0488,0.00488,0,-0.00488
0.00976,-0.0488,0.08784,0.08296,0.07808,-0.03416,-0.0732,0.0488,0.05368,0.01464,0,0.00488
0.00976,-0.03904,0.06832,0.06344,0.05856,-0.0244,-0.06344,0.05856,0.05368,0.01952,0.0244,0.02928
0,-0.02928,0.05856,0.05856,0.05856,-0.02928,-0.05856,0.0488,0.05368,0.02928,0.03416,0.03904
0,-0.02684,0.05368,0.05368,0.05368,-0.02684,-0.0488,0.05856,0.05368,0.03416,0.03904,0.0488
0.00976,-0.03172,0.05368,0.0488,0.04392,-0.01708,-0.05368,0.03416,0.0488,0.02928,0.01952,0.03416
0.00488,-0.0366,0.06832,0.06588,0.06344,-0.02928,-0.0488,0.0244,0.04392,0.02928,0.00976,0.01464
0.00488,-0.03172,0.05856,0.05612,0.05368,-0.0244,-0.06832,0.00488,0.03904,0.02928,0.00488,0.00976
0.01464,-0.01952,0.0244,0.01708,0.00976,0.00244,-0.06832,0.01464,0.03904,0.02928,0.00488,0.0244
0.01464,-0.01708,0.01952,0.0122,0.00488,0.00488,-0.05368,0.01952,0.03904,0.01952,0.00488,0.0244
0.01464,-0.03172,0.0488,0.04148,0.03416,-0.00976,-0.05368,0.00488,0.02928,0.00976,-0.01464,-0.00488
0.00976,-0.03416,0.05856,0.05368,0.0488,-0.01952,-0.04392,0,0.0244,-0.00488,-0.01952,0
-0.00488,-0.01952,0.04392,0.04636,0.0488,-0.02684,-0.01952,-0.00488,0.01952,-0.01464,-0.01952,-0.00488
0.00488,-0.01708,0.02928,0.02684,0.0244,-0.00976,0.00488,0,0.01952,-0.00488,-0.02928,-0.00488
0.00976,-0.03172,0.05368,0.0488,0.04392,-0.01708,-0.00488,-0.00488,0.00976,-0.00488,-0.02928,-0.00488
0.01464,-0.03904,0.06344,0.05612,0.0488,-0.01708,0,0.00488,0.01952,-0.01464,-0.0244,-0.01464
0.01464,-0.03172,0.0488,0.04148,0.03416,-0.00976,-0.00488,0.01464,0.01952,-0.00976,-0.0244,-0.00976
0.00976,-0.0244,0.03904,0.03416,0.02928,-0.00976,-0.01464,0.00976,0.01952,0,-0.01464,-0.00488
-0.00976,-0.01464,0.03904,0.04392,0.0488,-0.02928,0,-0.00976,0.00976,0,-0.00976,0
-0.00488,-0.00976,0.0244,0.02684,0.02928,-0.01708,-0.00976,-0.00488,0.00976,0,-0.01952,0
-0.01464,0.00244,0.00976,0.01708,0.0244,-0.01952,-0.01464,0.00976,0.01952,0.00976,-0.01952,0
-0.03416,0.01464,0.00488,0.02196,0.03904,-0.0366,-0.02928,0.01464,0.0244,-0.00488,-0.0244,-0.01464
-0.03416,0.00244,0.02928,0.04636,0.06344,-0.0488,-0.06344,-0.00976,-0.00488,-0.01952,-0.03904,-0.0244
-0.04392,0.02196,0,0.02196,0.04392,-0.04392,-0.05856,0,0.00488,-0.01952,-0.02928,-0.0244
-0.03416,0.00976,0.01464,0.03172,0.0488,-0.04148,-0.06832,0.0244,0.00488,-0.01952,-0.02928,-0.01464
-0.01952,0.00976,0,0.00976,0.01952,-0.01952,-0.05368,0.02928,0.00488,-0.01952,-0.02928,-0.01952
-0.02928,0.01464,0,0.01464,0.02928,-0.02928,-0.0244,0.01952,0.01464,-0.00976,-0.0244,-0.0244
-0.01952,0.00976,0,0.00976,0.01952,-0.01952,0.00976,0.00488,0.00488,-0.00976,-0.02928,-0.04392
-0.01464,0.00488,0.00488,0.0122,0.01952,-0.01708,0.0244,0.00488,0,-0.01952,-0.04392,-0.03904
-0.00976,-0.00732,0.0244,0.02928,0.03416,-0.02196,0.03904,-0.00488,0.01464,-0.00976,-0.02928,-0.0244
-0.01952,-0.00488,0.02928,0.03904,0.0488,-0.03416,0.03904,-0.00976,0.01464,0,-0.00976,0
-0.01464,-0.00488,0.0244,0.03172,0.03904,-0.02684,0.03416,0.00976,0.03416,0.00488,-0.00488,0.01464
0,-0.01464,0.02928,0.02928,0.02928,-0.01464,0.00976,-0.00488,0.02928,0.00976,-0.01464,0.01464
0,-0.0122,0.0244,0.0244,0.0244,-0.0122,-0.01952,0.00488,0.03904,0,-0.01464,0.00488
0,-0.00732,0.01464,0.01464,0.01464,-0.00732,-0.03416,0.01952,0.03904,-0.00488,-0.01952,-0.01464
-0.01952,0.00244,0.01464,0.0244,0.03416,-0.02684,-0.02928,0.03416,0.04392,-0.00976,-0.01952,-0.0244
-0.03416,0.01464,0.00488,0.02196,0.03904,-0.0366,0,0.04392,0.04392,-0.00488,-0.01952,-0.01464
-0.03904,0.0122,0.01464,0.03416,0.05368,-0.04636,0.00488,0.03904,0.05368,0,-0.01952,-0.00488
-0.03416,0.00976,0.01464,0.03172,0.0488,-0.04148,0.01464,0.06344,0.06832,0.01464,-0.01464,-0.00976
-0.0244,0.00488,0.01464,0.02684,0.03904,-0.03172,0.01952,0.06832,0.0732,0.00976,-0.00976,-0.00976
-0.01464,-0.00488,0.0244,0.03172,0.03904,-0.02684,0.01952,0.05856,0.06344,0.00976,-0.01952,-0.00488
0,-0.01708,0.03416,0.03416,0.03416,-0.01708,0.01464,0.05368,0.05368,0.00488,-0.02928,-0.01464
0,-0.0244,0.0488,0.0488,0.0488,-0.0244,0.00488,0.05856,0.0488,0.00488,-0.02928,-0.01464
-0.01464,-0.01952,0.05368,0.061,0.06832,-0.04148,-0.00976,0.05368,0.05368,0.01464,-0.01952,-0.00488
-0.00976,-0.00976,0.02928,0.03416,0.03904,-0.0244,-0.01952,0.04392,0.05856,0.0244,-0.00488,-0.01464
-0.00976,-0.00976,0.02928,0.03416,0.03904,-0.0244,-0.02928,0.01952,0.03904,0.00976,-0.0244,-0.02928
0,-0.0244,0.0488,0.0488,0.0488,-0.0244,-0.02928,0.00976,0.03416,-0.00488,-0.02928,-0.02928
-0.00488,-0.01952,0.04392,0.04636,0.0488,-0.02684,-0.01952,0.01464,0.04392,-0.00488,-0.01952,-0.02928
0.00488,-0.0244,0.04392,0.04148,0.03904,-0.01708,-0.00976,0.02928,0.05856,0.00488,-0.00488,-0.00976
0.00976,-0.02928,0.0488,0.04392,0.03904,-0.01464,-0.00976,0.05368,0.0488,0.00976,-0.0244,-0.01952
0,-0.01952,0.03904,0.03904,0.03904,-0.01952,-0.01464,0.03416,0.04392,0,-0.0244,-0.01952
-0.01464,-0.0122,0.03904,0.04636,0.05368,-0.03416,-0.01464,0.01952,0.04392,0,-0.01464,-0.01464
-0.01464,-0.00488,0.0244,0.03172,0.03904,-0.02684,-0.00488,0.01952,0.03904,0,-0.01464,-0.01464
-0.01952,0,0.01952,0.02928,0.03904,-0.02928,0,0.0244,0.02928,0.00976,-0.00976,-0.01952
-0.02928,0.01464,0,0.01464,0.02928,-0.02928,0.00976,0.04392,0.05368,0.00976,-0.00488,0
-0.04392,0.02684,-0.00976,0.0122,0.03416,-0.03904,0.01464,0.06344,0.06344,0.00976,-0.00488,0
-0.0488,0.02196,0.00488,0.02928,0.05368,-0.05124,0.00976,0.06344,0.05856,0.00488,-0.00976,0
-0.03904,0.00732,0.0244,0.04392,0.06344,-0.05124,0,0.0488,0.0488,0,-0.01464,-0.01464
-0.03904,0.00244,0.03416,0.05368,0.0732,-0.05612,-0.00488,0.03416,0.03416,-0.00976,-0.0244,-0.0244
-0.02928,0.00732,0.01464,0.02928,0.04392,-0.0366,0.00488,0.01952,0.03416,0,-0.01464,-0.01952
-0.00976,-0.00244,0.01464,0.01952,0.0244,-0.01708,0.00976,0.01952,0.03416,-0.00488,-0.0244,-0.0244
0.01464,-0.00976,0.00488,-0.00244,-0.00976,0.0122,0.00976,0.02928,0.04392,0,-0.01464,-0.00488
0.01464,-0.01952,0.0244,0.01708,0.00976,0.00244,0.01952,0.03416,0.0488,0,-0.01464,-0.00488
0.01464,-0.02196,0.02928,0.02196,0.01464,0,0.01952,0.03904,0.0488,-0.00976,-0.02928,-0.00976
0,-0.0122,0.0244,0.0244,0.0244,-0.0122,0.0244,0.04392,0.0488,-0.01952,-0.03416,-0.0244
-0.00488,-0.0122,0.02928,0.03172,0.03416,-0.01952,0.01464,0.05368,0.03904,-0.00976,-0.02928,-0.0244
-0.0244,0.00488,0.01464,0.02684,0.03904,-0.03172,0.00976,0.0488,0.02928,-0.00976,-0.02928,-0.0244
-0.03416,0.01708,0,0.01708,0.03416,-0.03416,0,0.04392,0.03416,-0.01464,-0.03904,-0.0244
-0.03416,0.01708,0,0.01708,0.03416,-0.03416,-0.00976,0.04392,0.02928,-0.01464,-0.04392,-0.01952
-0.02928,0.03172,-0.03416,-0.01952,-0.00488,-0.0122,-0.00976,0.03416,0.03416,-0.00976,-0.04392,-0.03904
-0.0244,0.02196,-0.01952,-0.00732,0.00488,-0.01464,-0.01464,0.02928,0.03416,-0.01464,-0.0488,-0.04392
-0.0244,0.01952,-0.01464,-0.00244,0.00976,-0.01708,-0.00976,0.02928,0.01952,-0.00976,-0.03416,-0.03904
-0.0244,0.01952,-0.01464,-0.00244,0.00976,-0.01708,0,0.01952,0.0244,-0.00976,-0.0244,-0.0244
-0.00976,0.00488,0,0.00488,0.00976,-0.00976,0.01952,0,0.0244,-0.01952,-0.0244,-0.0244
-0.01464,0,0.01464,0.02196,0.02928,-0.02196,0.02928,-0.01952,0.02928,-0.0244,-0.02928,-0.0244
-0.01464,-0.00488,0.0244,0.03172,0.03904,-0.02684,0.03904,-0.00976,0.02928,-0.02928,-0.03904,-0.02928
-0.00976,0.00244,0.00488,0.00976,0.01464,-0.0122,0.04392,0.00976,0.03416,-0.01952,-0.03416,-0.00488
-0.00488,-0.00488,0.01464,0.01708,0.01952,-0.0122,0.04392,0.04392,0.03416,-0.01952,-0.03416,-0.01464
0.00488,-0.01464,0.0244,0.02196,0.01952,-0.00732,0.03904,0.06832,0.03904,-0.01952,-0.02928,-0.01952
0,-0.00732,0.01464,0.01464,0.01464,-0.00732,0.02928,0.05856,0.03416,-0.01464,-0.03416,-0.01952
-0.01464,-0.00244,0.01952,0.02684,0.03416,-0.0244,0.01952,0.03416,0.02928,-0.01464,-0.03416,-0.02928
-0.01952,-0.00244,0.0244,0.03416,0.04392,-0.03172,0.01952,0.00488,0.0244,-0.00976,-0.0244,-0.03416
-0.01952,0,0.01952,0.02928,0.03904,-0.02928,0.01464,-0.00976,0.0244,-0.00976,-0.02928,-0.02928
-0.00976,-0.00732,0.0244,0.02928,0.03416,-0.02196,0.02928,0.00976,0.01952,-0.00976,-0.02928,-0.0244
-0.01464,0.00976,-0.00488,0.00244,0.00976,-0.0122,0.02928,0.02928,0.01952,-0.01464,-0.02928,-0.01952
-0.0244,0.01952,-0.01464,-0.00244,0.00976,-0.01708,0.02928,0.03416,0.0244,-0.01952,-0.03416,-0.02928
-0.02928,0.01464,0,0.01464,0.02928,-0.02928,0.0244,0.03416,0.02928,-0.01464,-0.02928,-0.0244
-0.02928,0.01952,-0.00976,0.00488,0.01952,-0.0244,0.00488,0.02928,0.02928,-0.0244,-0.03416,-0.0244
-0.01464,0.00244,0.00976,0.01708,0.0244,-0.01952,-0.00976,0.03904,0.02928,-0.01464,-0.03904,-0.02928
-0.03904,0.01464,0.00976,0.02928,0.0488,-0.04392,-0.01464,0.06344,0.0488,-0.01464,-0.04392,-0.01464
-0.0488,0.02928,-0.00976,0.01464,0.03904,-0.04392,0.01952,0.07808,0.05856,0,-0.03904,-0.00976
-0.03904,0.01952,0,0.01952,0.03904,-0.03904,0.01952,0.06832,0.0488,-0.00976,-0.03904,-0.01952
-0.03904,0.01464,0.00976,0.02928,0.0488,-0.04392,0.01952,0.06832,0.0488,-0.01952,-0.03904,-0.02928
-0.04392,0.02196,0,0.02196,0.04392,-0.04392,0.00976,0.05856,0.04392,-0.00976,-0.03416,-0.01952
-0.0244,0.0122,0,0.0122,0.0244,-0.0244,0.00976,0.0488,0.04392,-0.00976,-0.04392,-0.04392
-0.0244,0.02196,-0.01952,-0.00732,0.00488,-0.01464,0,0.0244,0.03416,-0.01952,-0.04392,-0.05368
-0.01952,0.01708,-0.01464,-0.00488,0.00488,-0.0122,-0.00488,0.01464,0.0244,-0.02928,-0.05368,-0.05856
-0.01464,0.0122,-0.00976,-0.00244,0.00488,-0.00976,0.00976,0.0244,0.01464,-0.01952,-0.0488,-0.0488
-0.00976,0.01952,-0.02928,-0.0244,-0.01952,0.00488,0.0244,0.0244,0.0244,-0.00976,-0.04392,-0.04392
0.01464,-0.01464,0.01464,0.00732,0,0.00732,0.03416,0.04392,0.03416,0,-0.04392,-0.02928
0.01952,-0.02196,0.0244,0.01464,0.00488,0.00732,0.04392,0.05856,0.0488,0,-0.04392,-0.01952
0.00488,-0.02928,0.05368,0.05124,0.0488,-0.02196,0.05368,0.05368,0.03904,0.00488,-0.02928,-0.00976
-0.00488,-0.01952,0.04392,0.04636,0.0488,-0.02684,0.08296,0.05856,0.0488,0.01464,-0.0244,-0.00488
-0.02928,0.00244,0.0244,0.03904,0.05368,-0.04148,0.08296,0.07808,0.06832,0.00976,-0.01464,0.00976
-0.03904,0.01464,0.00976,0.02928,0.0488,-0.04392,0.10736,0.0976,0.07808,0.01952,-0.00488,0.01952
-0.0244,-0.00488,0.03416,0.04636,0.05856,-0.04148,0.0976,0.08784,0.05368,0.01952,-0.01464,0.00976
-0.01464,-0.01464,0.04392,0.05124,0.05856,-0.0366,0.10248,0.07808,0.0488,0.0244,-0.00488,0
-0.00976,-0.0244,0.05856,0.06344,0.06832,-0.03904,0.08296,0.0732,0.06344,0.01464,-0.01464,0
0,-0.0366,0.0732,0.0732,0.0732,-0.0366,0.04392,0.06344,0.06344,0.01952,-0.01464,0.00976
-0.01952,-0.0366,0.09272,0.10248,0.11224,-0.06588,0.01952,0.06344,0.06344,0.0244,-0.00488,0.01464
-0.0244,-0.0366,0.0976,0.1098,0.122,-0.0732,0.01464,0.0732,0.06344,0.01952,-0.00488,0.01952
-0.03904,-0.02196,0.08296,0.10248,0.122,-0.08052,0.01464,0.06832,0.0732,0.0244,0.01464,0.0244
-0.01464,-0.03416,0.08296,0.09028,0.0976,-0.05612,0.01952,0.06344,0.08296,0.03416,0.02928,0.02928
-0.00488,-0.04148,0.08784,0.09028,0.09272,-0.0488,0.00976,0.02928,0.06832,0.0244,0.0244,0.01952
0.01464,-0.05612,0.0976,0.09028,0.08296,-0.03416,0,0.00488,0.06832,0.0244,0.01464,0.00488
0.0244,-0.07076,0.11712,0.10492,0.09272,-0.03416,-0.01952,-0.00488,0.05856,0.02928,0.00976,-0.00488
0.0244,-0.06588,0.10736,0.09516,0.08296,-0.02928,-0.0244,0.00976,0.0488,0.02928,0,-0.00976
0.01952,-0.05856,0.0976,0.08784,0.07808,-0.02928,-0.03416,-0.00488,0.04392,0.0244,0,0
0.00488,-0.0366,0.06832,0.06588,0.06344,-0.02928,-0.03416,0.0244,0.05856,0.02928,0.00488,0.02928
0.01952,-0.0488,0.07808,0.06832,0.05856,-0.01952,-0.01952,0.03416,0.06344,0.03904,0.00976,0.01952
0.01952,-0.0488,0.07808,0.06832,0.05856,-0.01952,0,0.03416,0.06344,0.03416,0.00488,0.01464
0.01952,-0.04392,0.06832,0.05856,0.0488,-0.01464,-0.00976,0.01464,0.0488,0.01464,-0.01464,0.00488
0.00488,-0.02196,0.03904,0.0366,0.03416,-0.01464,-0.01464,0,0.03416,-0.00488,-0.03416,-0.00976
0,-0.00976,0.01952,0.01952,0.01952,-0.00976,-0.0244,-0.01464,0.01464,-0.01464,-0.0488,-0.03416
-0.00976,0.00732,-0.00488,0,0.00488,-0.00732,-0.0244,-0.03904,0.00488,-0.01952,-0.06344,-0.05856
-0.00488,-0.0122,0.02928,0.03172,0.03416,-0.01952,0.00488,0.00488,0.00976,-0.0244,-0.05856,-0.03904
0.01464,-0.03416,0.05368,0.04636,0.03904,-0.0122,0.02928,0.03904,0.01464,-0.02928,-0.04392,-0.02928
-0.00976,-0.0122,0.03416,0.03904,0.04392,-0.02684,0.04392,0.08296,0.03416,-0.00976,-0.03416,-0.01464
-0.02928,0.01464,0,0.01464,0.02928,-0.02928,0.05368,0.13664,0.05368,-0.00488,-0.03416,-0.00976
-0.01952,0.01464,-0.00976,0,0.00976,-0.01464,0.05368,0.122,0.05368,-0.00488,-0.03416,-0.01464
-0.01952,0.00732,0.00488,0.01464,0.0244,-0.02196,0.06832,0.10248,0.0488,-0.00976,-0.02928,-0.0244
-0.03416,0.01708,0,0.01708,0.03416,-0.03416,0.03904,0.08296,0.03416,-0.01464,-0.03904,-0.03904
-0.03904,0.02684,-0.01464,0.00488,0.0244,-0.03172,0.01952,0.05856,0.0244,-0.00976,-0.05368,-0.03416
-0.02928,0.01464,0,0.01464,0.02928,-0.02928,0.00976,0.03416,0.01952,-0.01952,-0.0488,-0.04392
-0.03904,0.01952,0,0.01952,0.03904,-0.03904,0.01464,0.02928,0.0244,-0.01464,-0.0488,-0.04392
-0.0244,0.00488,0.01464,0.02684,0.03904,-0.03172,0.08296,0,0.02928,0.00488,-0.04392,-0.0244
-0.00976,-0.01708,0.04392,0.0488,0.05368,-0.03172,0.05368,0.01952,0.04392,0.02928,-0.00488,-0.00488
-0.00488,-0.02196,0.0488,0.05124,0.05368,-0.02928,0.0244,0.22448,0.122,0.05856,0.0244,0.02928
0.02928,-0.0244,0.01952,0.00488,-0.00976,0.01952,0.00488,0.36112,0.24888,0.0976,0.07808,0.08784
0.06832,-0.07564,0.08296,0.0488,0.01464,0.02684,-0.03416,0.11712,0.2684,0.18056,0.18056,0.1952
0.10248,-0.12444,0.1464,0.09516,0.04392,0.02928,-0.0976,-0.2928,0.21472,0.2928,0.29768,0.3172
0.15616,-0.21472,0.27328,0.1952,0.11712,0.01952,-0.16592,-0.75152,0.00488,0.366,0.40504,0.4392
0.18544,-0.25132,0.3172,0.22448,0.13176,0.02684,-0.28304,-1.18584,-0.32696,0.39528,0.47336,0.5612
0.28792,-0.2928,0.29768,0.15372,0.00976,0.13908,-0.38064,-1.33224,-0.5612,0.29768,0.4148,0.57584
0.29768,-0.19276,0.08784,-0.061,-0.20984,0.25376,-0.3172,-1.21024,-0.61,0.13176,0.25864,0.45872
0.25864,-0.10004,-0.05856,-0.18788,-0.3172,0.28792,-0.24888,-1.02968,-0.5856,-0.00488,0.122,0.30744
0.16592,-0.0366,-0.09272,-0.17568,-0.25864,0.21228,-0.1464,-0.85888,-0.52216,-0.03904,0.04392,0.1952
-0.00488,0.0854,-0.16592,-0.16348,-0.16104,0.07808,0,-0.67344,-0.45872,-0.10736,-0.05856,0.05856
-0.03904,0.11224,-0.18544,-0.16592,-0.1464,0.05368,0.04392,-0.50752,-0.39528,-0.17568,-0.15128,-0.0732
-0.08296,0.14884,-0.21472,-0.17324,-0.13176,0.0244,0.07808,-0.39528,-0.29768,-0.16104,-0.13176,-0.07808
-0.07808,0.10004,-0.122,-0.08296,-0.04392,-0.01708,0.11712,-0.30744,-0.25864,-0.16592,-0.1708,-0.11712
-0.06344,0.0854,-0.10736,-0.07564,-0.04392,-0.00976,0.11712,-0.1708,-0.19032,-0.13664,-0.16104,-0.11224
-0.06344,0.08784,-0.11224,-0.08052,-0.0488,-0.00732,0.06832,-0.09272,-0.09272,-0.0732,-0.10736,-0.0976
-0.0488,0.061,-0.0732,-0.0488,-0.0244,-0.0122,0.0244,-0.08296,-0.06832,-0.0732,-0.0976,-0.08784
-0.06832,0.06588,-0.06344,-0.02928,0.00488,-0.0366,0.01464,-0.0244,-0.06344,-0.06344,-0.08296,-0.06832
-0.0732,0.07076,-0.06832,-0.03172,0.00488,-0.03904,0.01952,-0.00488,-0.05368,-0.06344,-0.08784,-0.06832
-0.04392,0.04148,-0.03904,-0.01708,0.00488,-0.0244,0.02928,0,-0.03904,-0.05856,-0.0732,-0.07808
-0.02928,0.02684,-0.0244,-0.00976,0.00488,-0.01708,0.02928,-0.00976,-0.03416,-0.0488,-0.06832,-0.07808
-0.01952,0.01952,-0.01952,-0.00976,0,-0.00976,0.06344,0.01952,-0.01464,-0.0488,-0.06344,-0.06344
-0.01952,0.01708,-0.01464,-0.00488,0.00488,-0.0122,0.0732,0.05368,0,-0.0488,-0.06344,-0.06344
-0.01952,0.02684,-0.03416,-0.0244,-0.01464,-0.00244,0.08296,0.07808,0.01464,-0.05856,-0.0732,-0.06832
-0.02928,0.03172,-0.03416,-0.01952,-0.00488,-0.0122,0.08296,0.0976,0.01952,-0.05368,-0.06832,-0.06832
-0.03904,0.05124,-0.06344,-0.04392,-0.0244,-0.00732,0.05368,0.08784,0.01952,-0.0488,-0.06832,-0.06832
-0.03904,0.06344,-0.08784,-0.06832,-0.0488,0.00488,0.05368,0.08784,0.01952,-0.0488,-0.0732,-0.05856
-0.06344,0.06832,-0.0732,-0.04148,-0.00976,-0.02684,0.02928,0.0732,0.01464,-0.03904,-0.06832,-0.0488
-0.08784,0.08296,-0.07808,-0.03416,0.00976,-0.0488,0.0244,0.0488,0.00488,-0.03416,-0.06344,-0.03904
-0.06832,0.06344,-0.05856,-0.0244,0.00976,-0.03904,0.01952,0.02928,-0.01464,-0.03416,-0.06344,-0.05368
-0.05856,0.05612,-0.05368,-0.0244,0.00488,-0.03172,0.0244,0.0244,-0.01464,-0.03416,-0.06832,-0.05368
-0.04392,0.04636,-0.0488,-0.02684,-0.00488,-0.01952,0.0488,0.03416,-0.00488,-0.03416,-0.06832,-0.06832
-0.02928,0.03416,-0.03904,-0.0244,-0.00976,-0.00976,0.05856,0.03904,-0.00488,-0.03416,-0.05856,-0.06344
-0.03416,0.04392,-0.05368,-0.0366,-0.01952,-0.00732,0.03416,0.0244,-0.00488,-0.05368,-0.0732,-0.0732
-0.03416,0.03904,-0.04392,-0.02684,-0.00976,-0.0122,0.01952,0.01952,-0.00488,-0.06344,-0.08296,-0.08296
-0.04392,0.04392,-0.04392,-0.02196,0,-0.02196,0.00976,0.01464,-0.00976,-0.05368,-0.0732,-0.0732
-0.04392,0.03904,-0.03416,-0.0122,0.00976,-0.02684,0,0.00488,-0.0244,-0.05368,-0.07808,-0.07808
-0.0488,0.04392,-0.03904,-0.01464,0.00976,-0.02928,0.03904,0.0244,-0.00976,-0.05368,-0.08784,-0.0732
-0.0488,0.0488,-0.0488,-0.0244,0,-0.0244,0.0732,0.05368,0,-0.03416,-0.08296,-0.05856
-0.03904,0.02928,-0.01952,0,0.01952,-0.02928,0.05856,0.04392,-0.00488,-0.05368,-0.07808,-0.06344
-0.03904,0.03416,-0.02928,-0.00976,0.00976,-0.0244,0.05368,0.05368,-0.00488,-0.0488,-0.05856,-0.05856
-0.05856,0.05612,-0.05368,-0.0244,0.00488,-0.03172,0.03904,0.05856,-0.00976,-0.0488,-0.06832,-0.05368
-0.05368,0.04636,-0.03904,-0.0122,0.01464,-0.03416,0.02928,0.05368,-0.01464,-0.05368,-0.07808,-0.05368
-0.04392,0.03416,-0.0244,-0.00244,0.01952,-0.03172,0.0488,0.03416,-0.00488,-0.0488,-0.0732,-0.06832
-0.02928,0.0366,-0.04392,-0.02928,-0.01464,-0.00732,0.08784,0.03904,0,-0.04392,-0.06832,-0.06344
-0.03904,0.0366,-0.03416,-0.01464,0.00488,-0.02196,0.06832,0.04392,0.00488,-0.03904,-0.06832,-0.06832
-0.05368,0.0488,-0.04392,-0.01708,0.00976,-0.03172,0.0488,0.04392,0,-0.03904,-0.0732,-0.06832
-0.06344,0.061,-0.05856,-0.02684,0.00488,-0.03416,0.0244,0.05856,-0.00976,-0.05368,-0.07808,-0.07808
-0.06832,0.06344,-0.05856,-0.0244,0.00976,-0.03904,0.00976,0.05856,-0.0244,-0.06832,-0.07808,-0.08784
-0.06344,0.07076,-0.07808,-0.04636,-0.01464,-0.0244,-0.00488,0.0244,-0.0244,-0.06832,-0.07808,-0.07808
-0.06344,0.07808,-0.09272,-0.061,-0.02928,-0.01708,-0.00976,0,-0.02928,-0.0732,-0.08784,-0.08784
-0.09272,0.10004,-0.10736,-0.061,-0.01464,-0.03904,-0.00976,0.0244,-0.0244,-0.05856,-0.0732,-0.0732
-0.0976,0.0976,-0.0976,-0.0488,0,-0.0488,-0.01952,0.03416,-0.01952,-0.05856,-0.06832,-0.0732
-0.06832,0.06832,-0.06832,-0.03416,0,-0.03416,0.00976,0.05368,-0.00976,-0.04392,-0.0732,-0.06832
-0.0488,0.0488,-0.0488,-0.0244,0,-0.0244,0.03416,0.03416,-0.01952,-0.04392,-0.07808,-0.06832
-0.02928,0.02684,-0.0244,-0.00976,0.00488,-0.01708,0.06832,0.00976,-0.02928,-0.05368,-0.08784,-0.06832
-0.01952,0.00244,0.01464,0.0244,0.03416,-0.02684,0.08784,-0.00488,-0.03416,-0.05856,-0.08784,-0.07808
-0.0244,0.02196,-0.01952,-0.00732,0.00488,-0.01464,0.11712,0.01464,-0.02928,-0.05856,-0.07808,-0.07808
-0.0244,0.03172,-0.03904,-0.02684,-0.01464,-0.00488,0.122,0.04392,-0.01952,-0.05856,-0.0732,-0.0732
-0.03904,0.03904,-0.03904,-0.01952,0,-0.01952,0.10248,0.03904,-0.01952,-0.06344,-0.08296,-0.0732
-0.04392,0.02928,-0.01464,0.00732,0.02928,-0.0366,0.08784,0.0244,-0.03904,-0.0732,-0.09272,-0.08296
-0.0488,0.0488,-0.0488,-0.0244,0,-0.0244,0.05368,0.0244,-0.02928,-0.05856,-0.07808,-0.0732
-0.05856,0.07076,-0.08296,-0.05368,-0.0244,-0.01708,0.01464,0.0244,-0.02928,-0.05368,-0.06832,-0.0732
-0.0732,0.09028,-0.10736,-0.07076,-0.03416,-0.01952,-0.00976,0.02928,-0.03416,-0.06344,-0.08296,-0.0732
-0.06832,0.07564,-0.08296,-0.0488,-0.01464,-0.02684,-0.03416,0.01952,-0.04392,-0.0732,-0.0976,-0.08296
-0.08296,0.07564,-0.06832,-0.02684,0.01464,-0.0488,-0.0244,0.01464,-0.03416,-0.06344,-0.10736,-0.09272
-0.08296,0.07564,-0.06832,-0.02684,0.01464,-0.0488,-0.00976,0.01464,-0.03904,-0.0732,-0.11224,-0.09272
-0.0976,0.09516,-0.09272,-0.04392,0.00488,-0.05124,0.01464,0.06344,-0.01952,-0.05856,-0.09272,-0.09272
-0.08784,0.0732,-0.05856,-0.01464,0.02928,-0.05856,0.00488,0.08296,-0.0244,-0.06832,-0.09272,-0.09272
-0.0732,0.05612,-0.03904,-0.00244,0.03416,-0.05368,0.02928,0.06832,-0.04392,-0.06832,-0.10736,-0.10736
-0.05368,0.02928,-0.00488,0.02196,0.0488,-0.05124,0.0488,0.0488,-0.05368,-0.08296,-0.11224,-0.10736
-0.02928,0.02196,-0.01464,0,0.01464,-0.02196,0.05856,0.06344,-0.02928,-0.0732,-0.08784,-0.08784
-0.00976,0.0122,-0.01464,-0.00976,-0.00488,-0.00244,0.06344,0.06832,-0.01952,-0.06344,-0.06832,-0.06344
0,0.00244,-0.00488,-0.00488,-0.00488,0.00244,0.02928,0.04392,-0.03904,-0.0732,-0.0732,-0.08296
0.01464,-0.00732,0,-0.00732,-0.01464,0.01464,-0.00488,0.01952,-0.05856,-0.0732,-0.08784,-0.07808
-0.00488,0.00244,0,0.00244,0.00488,-0.00488,-0.01464,0.0244,-0.06344,-0.06344,-0.07808,-0.07808
-0.01952,0.0122,-0.00488,0.00488,0.01464,-0.01708,-0.01464,0.03416,-0.05856,-0.06344,-0.0732,-0.0732
-0.00488,0.00488,-0.00488,-0.00244,0,-0.00244,-0.01952,0.0732,-0.03904,-0.06344,-0.08296,-0.08296
-0.00976,0.00732,-0.00488,0,0.00488,-0.00732,-0.01464,0.0976,-0.01952,-0.05856,-0.0732,-0.07808
-0.01464,0.00976,-0.00488,0.00244,0.00976,-0.0122,-0.00976,0.10736,-0.00976,-0.05856,-0.0732,-0.06832
-0.00976,0.01708,-0.0244,-0.01952,-0.01464,0.00244,-0.00488,0.122,0.00488,-0.05856,-0.06832,-0.05368
-0.01952,0.0122,-0.00488,0.00488,0.01464,-0.01708,-0.00976,0.1464,0.01464,-0.03416,-0.05856,-0.03904
-0.01952,0.00488,0.00976,0.01952,0.02928,-0.0244,-0.01464,0.14152,0.02928,-0.02928,-0.05368,-0.03904
-0.01464,0.00976,-0.00488,0.00244,0.00976,-0.0122,-0.03904,0.13664,0.01952,-0.03904,-0.05368,-0.03904
-0.00976,0.00732,-0.00488,0,0.00488,-0.00732,-0.05856,0.16592,0.01464,-0.0488,-0.06344,-0.03904
0,-0.0122,0.0244,0.0244,0.0244,-0.0122,-0.03416,0.11712,0.00488,-0.03416,-0.05368,-0.02928
0.00488,-0.01708,0.02928,0.02684,0.0244,-0.00976,0.00488,0.09272,0.0244,-0.01464,-0.0244,-0.00488
-0.00488,-0.00976,0.0244,0.02684,0.02928,-0.01708,0.00488,0.11224,0.0244,-0.01464,-0.0244,-0.00976
-0.00488,-0.00244,0.00976,0.0122,0.01464,-0.00976,0.00976,0.0976,0.0244,-0.01464,-0.01464,-0.00488
0.03416,-0.03416,0.03416,0.01708,0,0.01708,-0.01952,0.122,0.04392,0,-0.00488,0.00488
0.04392,-0.0488,0.05368,0.03172,0.00976,0.01708,-0.0244,0.12688,0.06344,0.00488,-0.00488,0.00488
0.02928,-0.03904,0.0488,0.03416,0.01952,0.00488,-0.01464,0.10248,0.06344,0.01464,0.00976,0.03416
0.02928,-0.03416,0.03904,0.0244,0.00976,0.00976,-0.00488,0.08784,0.06344,0.03416,0.01952,0.02928
0.01952,-0.03172,0.04392,0.03416,0.0244,-0.00244,-0.00488,0.08784,0.05368,0.01952,0.00488,0.0244
0.01952,-0.03172,0.04392,0.03416,0.0244,-0.00244,0.00488,0.08784,0.05368,0.01952,0.00976,0.0244
0.02928,-0.02928,0.02928,0.01464,0,0.01464,-0.00976,0.07808,0.05368,0.01464,0.01464,0.0244
0.01952,-0.02196,0.0244,0.01464,0.00488,0.00732,-0.00488,0.07808,0.05856,0.0244,0.01464,0.0244
0.00976,-0.0244,0.03904,0.03416,0.02928,-0.00976,-0.01952,0.05368,0.03904,0.00976,-0.00488,0.01464
0,-0.0122,0.0244,0.0244,0.0244,-0.0122,-0.00488,0.05856,0.03904,0,-0.01464,0.01952
-0.01464,-0.00244,0.01952,0.02684,0.03416,-0.0244,0.01464,0.0488,0.04392,0.01464,-0.01464,0.00488
-0.0244,-0.00732,0.03904,0.05124,0.06344,-0.04392,0.03416,0.04392,0.03904,0.01464,-0.01952,-0.00976
-0.01952,-0.00244,0.0244,0.03416,0.04392,-0.03172,0.0244,0.05368,0.05368,0.0244,-0.00976,0.00488
-0.01952,0,0.01952,0.02928,0.03904,-0.02928,0.0244,0.0732,0.0488,0.0244,0,0
-0.01464,0.01464,-0.01464,-0.00732,0,-0.00732,0.00488,0.08784,0.06344,0.0244,0.01952,0.0244
-0.00488,0.00732,-0.00976,-0.00732,-0.00488,0,-0.01464,0.0976,0.06832,0.01952,0.0244,0.02928
-0.00488,0,0.00488,0.00732,0.00976,-0.00732,0.01952,0.08784,0.05856,0.01464,0.00488,0.01464
-0.00488,0.0122,-0.01952,-0.01708,-0.01464,0.00488,0.04392,0.07808,0.05856,0.01952,0,0.01952
-0.00488,0.0122,-0.01952,-0.01708,-0.01464,0.00488,0.06344,0.06832,0.05368,0.01952,0,0.00976
0.01464,0.00244,-0.01952,-0.02684,-0.03416,0.0244,0.07808,0.06832,0.04392,0.00976,-0.00488,-0.00976
0,0.00732,-0.01464,-0.01464,-0.01464,0.00732,0.0732,0.03904,0.03416,-0.00488,-0.02928,-0.01952
-0.01952,0.01952,-0.01952,-0.00976,0,-0.00976,0.0732,0.01464,0.02928,-0.00976,-0.03904,-0.02928
-0.01464,0.01464,-0.01464,-0.00732,0,-0.00732,0.0732,0.02928,0.0244,-0.01464,-0.03416,-0.02928
-0.00976,0.0122,-0.01464,-0.00976,-0.00488,-0.00244,0.06832,0.01464,0.01952,-0.01464,-0.02928,-0.00976
-0.02928,0.02196,-0.01464,0,0.01464,-0.02196,0.04392,0.03904,0.0244,-0.01464,-0.02928,0
-0.02928,0.02196,-0.01464,0,0.01464,-0.02196,0.02928,0.05368,0.0244,-0.01464,-0.02928,-0.00488
-0.02928,0.02684,-0.0244,-0.00976,0.00488,-0.01708,0.01464,0.06832,0.03904,-0.01952,-0.01952,-0.00976
-0.02928,0.02196,-0.01464,0,0.01464,-0.02196,0.01464,0.09272,0.04392,-0.00976,-0.01464,-0.01464
-0.03416,0.02196,-0.00976,0.00732,0.0244,-0.02928,0.00976,0.08296,0.04392,-0.00488,-0.00488,-0.00976
-0.02928,0.01708,-0.00488,0.00976,0.0244,-0.02684,-0.00488,0.06832,0.03904,-0.00976,-0.00976,-0.00488
-0.03416,0.02196,-0.00976,0.00732,0.0244,-0.02928,0.02928,0.02928,0.03416,0,-0.01464,-0.00976
-0.04392,0.03416,-0.0244,-0.00244,0.01952,-0.03172,0.0488,0.03904,0.04392,0.00976,-0.01464,-0.00976
-0.02928,0.00976,0.00976,0.0244,0.03904,-0.03416,0.06832,0.05368,0.02928,-0.00488,-0.01464,-0.00488
-0.00488,-0.01708,0.03904,0.04148,0.04392,-0.0244,0.08784,0.05368,0.02928,-0.00488,-0.00976,-0.00488
-0.01464,-0.00488,0.0244,0.03172,0.03904,-0.02684,0.08784,0.06832,0.03904,0.00488,0.00488,-0.00488
-0.00488,0,0.00488,0.00732,0.00976,-0.00732,0.08296,0.0732,0.05368,0.01952,0.01952,-0.00488
-0.00488,0,0.00488,0.00732,0.00976,-0.00732,0.07808,0.07808,0.05368,0.03416,0.01952,0.00976
-0.00976,0.00732,-0.00488,0,0.00488,-0.00732,0.0732,0.0732,0.05368,0.03416,0.01464,0.0244
0.00488,-0.01464,0.0244,0.02196,0.01952,-0.00732,0.03904,0.03904,0.03904,0.01464,0,0.00976
0.00488,-0.0244,0.04392,0.04148,0.03904,-0.01708,0.00488,0.0244,0.04392,0.00976,-0.00488,0
-0.00976,-0.00244,0.01464,0.01952,0.0244,-0.01708,-0.00976,0.05368,0.05856,0.00976,-0.00488,-0.00488
-0.01952,0.00732,0.00488,0.01464,0.0244,-0.02196,-0.02928,0.0732,0.05856,0.01464,0,-0.00488
-0.02928,0.0244,-0.01952,-0.00488,0.00976,-0.01952,-0.02928,0.07808,0.0732,0.01464,0,0.00488
-0.02928,0.02684,-0.0244,-0.00976,0.00488,-0.01708,-0.02928,0.07808,0.0732,0.01464,0,0.00976
-0.0244,0.01708,-0.00976,0.00244,0.01464,-0.01952,-0.00488,0.07808,0.06832,0.00976,0,0.01464
-0.01464,0.00732,0,0.00732,0.01464,-0.01464,0.00976,0.06832,0.05368,-0.00488,-0.00976,0.00488
-0.01464,0.00976,-0.00488,0.00244,0.00976,-0.0122,0.05856,0.10248,0.06344,0.00976,0,0.00976
-0.01464,0.00976,-0.00488,0.00244,0.00976,-0.0122,0.0976,0.12688,0.07808,0.01952,0.00976,0.01464
-0.00976,0.0122,-0.01464,-0.00976,-0.00488,-0.00244,0.11224,0.10248,0.06344,0.00976,0.00488,0.0244
0.03416,-0.0244,0.01464,-0.00244,-0.01952,0.02684,0.122,0.07808,0.05368,0.00976,-0.00488,0.01952
0.01464,-0.0122,0.00976,0.00244,-0.00488,0.00976,0.07808,0.06832,0.0488,0.01464,-0.00488,0.00976
0.00488,-0.0122,0.01952,0.01708,0.01464,-0.00488,0.03904,0.05856,0.04392,0.01464,-0.00488,0.00488
-0.00488,-0.00488,0.01464,0.01708,0.01952,-0.0122,0.02928,0.02928,0.03904,0.01952,0.00488,0.01464
-0.00488,0.00244,0,0.00244,0.00488,-0.00488,0.01952,0.00976,0.02928,0.01952,0.01464,0.00488
0.00488,-0.00976,0.01464,0.0122,0.00976,-0.00244,0.05368,0.03416,0.03904,0.00976,-0.00976,-0.00488
0.01464,0.00488,-0.0244,-0.03172,-0.03904,0.02684,0.08296,0.0732,0.05856,0,-0.01464,0.00488
0,0.00488,-0.00976,-0.00976,-0.00976,0.00488,0.05856,0.08296,0.06344,0.00976,0,0
0,0,0,0,0,0,0.0488,0.08296,0.06344,0.00488,0,0
-0.00488,0.00732,-0.00976,-0.00732,-0.00488,0,0.03416,0.10248,0.06832,0.00488,0,0.01952
-0.0244,0.0244,-0.0244,-0.0122,0,-0.0122,0.02928,0.10736,0.07808,0.00976,0.00488,0.03416
-0.01952,0.01708,-0.01464,-0.00488,0.00488,-0.0122,0.03904,0.11712,0.0732,0.00488,0.01464,0.0244
-0.01464,0.01464,-0.01464,-0.00732,0,-0.00732,0.03904,0.11712,0.0732,0.00488,0.00488,0.01952
-0.01464,0.0244,-0.03416,-0.02684,-0.01952,0.00244,0.06344,0.11224,0.06344,0.01952,0.00488,0.00488
-0.01464,0.01952,-0.0244,-0.01708,-0.00976,-0.00244,0.08784,0.10248,0.06832,0.01952,0,-0.01464
-0.01952,0.02196,-0.0244,-0.01464,-0.00488,-0.00732,0.0732,0.07808,0.05856,0.00488,-0.01464,-0.01952
-0.03416,0.02196,-0.00976,0.00732,0.0244,-0.02928,0.05856,0.0732,0.0488,0,-0.00976,-0.01464
-0.01952,0.02196,-0.0244,-0.01464,-0.00488,-0.00732,0.06832,0.05856,0.03904,-0.00976,-0.00976,-0.01464
-0.02928,0.02684,-0.0244,-0.00976,0.00488,-0.01708,0.08296,0.05368,0.04392,-0.01952,-0.00976,-0.01464
-0.01464,0.02684,-0.03904,-0.03172,-0.0244,0.00488,0.0732,0.05368,0.03904,-0.01464,-0.0244,-0.01464
0.00488,0.01708,-0.03904,-0.04148,-0.04392,0.0244,0.0732,0.05368,0.04392,-0.01464,-0.0244,-0.00976
-0.00976,0.01464,-0.01952,-0.01464,-0.00976,0,0.04392,0.02928,0.03416,-0.0244,-0.0244,-0.0244
-0.00488,0.00244,0,0.00244,0.00488,-0.00488,0.03416,0.0244,0.01952,-0.0244,-0.02928,-0.01464
-0.00488,-0.00488,0.01464,0.01708,0.01952,-0.0122,0.04392,0.06344,0.04392,-0.01952,-0.02928,-0.01464
-0.00488,-0.00976,0.0244,0.02684,0.02928,-0.01708,0.05856,0.08784,0.05368,-0.01952,-0.02928,-0.00976
-0.01952,0.00488,0.00976,0.01952,0.02928,-0.0244,0.03904,0.08784,0.06344,-0.01464,-0.01952,-0.00488
-0.03416,0.02684,-0.01952,-0.00244,0.01464,-0.0244,0.03904,0.08784,0.06832,-0.00976,-0.00488,-0.00488
0.01952,0.01708,-0.05368,-0.06344,-0.0732,0.04636,0.03904,0.09272,0.06832,0.0244,0.03904,0.0244
-0.00976,0.01952,-0.02928,-0.0244,-0.01952,0.00488,0.03904,0.0976,0.0488,0,0,0.03904
-0.01952,0.02928,-0.03904,-0.02928,-0.01952,0,0.05856,0.08784,0.0488,0.00976,0.01952,0.02928
-0.01952,0.02928,-0.03904,-0.02928,-0.01952,0,0.07808,0.08784,0.0488,0.00976,0.02928,0.01952
-0.0244,0.03172,-0.03904,-0.02684,-0.01464,-0.00488,0.05856,0.07808,0.05368,0,0.01464,0.01952
-0.00488,0.01708,-0.02928,-0.02684,-0.0244,0.00976,0.0488,0.07808,0.05368,0,-0.00488,-0.00488
-0.00488,0.02684,-0.0488,-0.04636,-0.04392,0.01952,0.05856,0.09272,0.06344,0.00976,0.00488,-0.00488
0,0.02684,-0.05368,-0.05368,-0.05368,0.02684,0.06344,0.11224,0.06344,0,-0.00488,-0.00976
-0.01464,0.00732,0,0.00732,0.01464,-0.01464,0.06832,0.09272,0.05368,-0.00976,-0.01952,-0.00976
-0.01952,0.00488,0.00976,0.01952,0.02928,-0.0244,0.08296,0.0732,0.05368,-0.01952,-0.0244,-0.00488
-0.01464,-0.00976,0.03416,0.04148,0.0488,-0.03172,0.0732,0.06344,0.04392,-0.01952,-0.0244,-0.01952
-0.01952,-0.00732,0.03416,0.04392,0.05368,-0.0366,0.0732,0.06832,0.03904,-0.02928,-0.03416,-0.01952
-0.01464,0,0.01464,0.02196,0.02928,-0.02196,0.08296,0.05368,0.0488,-0.00488,-0.00976,0
-0.01464,0.0244,-0.03416,-0.02684,-0.01952,0.00244,0.122,0.0488,0.06832,0.0244,0.01464,0.01464
-0.00976,0.0122,-0.01464,-0.00976,-0.00488,-0.00244,0.09272,0.06832,0.06832,0.00976,0.00488,0.02928
0,0.00488,-0.00976,-0.00976,-0.00976,0.00488,0.08784,0.07808,0.06832,0.00976,0.01464,0.02928
-0.00488,-0.01952,0.04392,0.04636,0.0488,-0.02684,0.05856,0.0976,0.0732,0,0.00488,0.01952
0.00488,-0.03904,0.0732,0.07076,0.06832,-0.03172,0.03416,0.10736,0.07808,0.00488,0.00488,0.00976
0,-0.0244,0.0488,0.0488,0.0488,-0.0244,0.05368,0.14152,0.09272,0.0244,0.01464,0.02928
0,-0.01708,0.03416,0.03416,0.03416,-0.01708,0.04392,0.1708,0.10248,0.03904,0.0244,0.0488
0.00976,-0.03172,0.05368,0.0488,0.04392,-0.01708,0.0488,0.13176,0.11224,0.04392,0.03416,0.04392
0.0244,-0.0366,0.0488,0.0366,0.0244,0,0.06344,0.11224,0.11224,0.03904,0.04392,0.0488
0.01952,-0.0366,0.05368,0.04392,0.03416,-0.00732,0.06344,0.06832,0.09272,0.03416,0.04392,0.04392
0.04392,-0.05856,0.0732,0.05124,0.02928,0.00732,0.06832,0.03416,0.08296,0.04392,0.0488,0.03904
0.04392,-0.07076,0.0976,0.07564,0.05368,-0.00488,0.0488,0.02928,0.07808,0.03416,0.04392,0.0488
0.05368,-0.0854,0.11712,0.09028,0.06344,-0.00488,0.02928,0.0244,0.07808,0.03416,0.03416,0.04392
0.0244,-0.06588,0.10736,0.09516,0.08296,-0.02928,0,0.0244,0.06832,0.02928,0.02928,0.0244
-0.00488,-0.0366,0.07808,0.08052,0.08296,-0.04392,-0.00488,0.03904,0.05856,0.02928,0.01952,0.01952
0,-0.04392,0.08784,0.08784,0.08784,-0.04392,0.00488,0.05368,0.06344,0.03416,0.02928,0.02928
-0.00488,-0.03172,0.06832,0.07076,0.0732,-0.03904,0.00488,0.10248,0.07808,0.0488,0.04392,0.05856
0,-0.03416,0.06832,0.06832,0.06832,-0.03416,0,0.122,0.09272,0.05856,0.05856,0.05856
0,-0.02928,0.05856,0.05856,0.05856,-0.02928,0,0.122,0.09272,0.05368,0.05368,0.05368
0.00976,-0.01952,0.02928,0.0244,0.01952,-0.00488,0.00976,0.09272,0.07808,0.03416,0.04392,0.03416
-0.00488,0.00732,-0.00976,-0.00732,-0.00488,0,0.0244,0.06832,0.06344,0.01464,0.0244,0.01952
0,0,0,0,0,0,0.0244,0.05368,0.03416,-0.01464,0,0.00488
0,0.00244,-0.00488,-0.00488,-0.00488,0.00244,0.0244,0.03904,0.01464,-0.02928,-0.0244,-0.00976
0.00488,0.00732,-0.01952,-0.02196,-0.0244,0.01464,0.03416,0.05368,0.02928,-0.0244,-0.01952,-0.01952
0.01464,0.00488,-0.0244,-0.03172,-0.03904,0.02684,0.0488,0.05856,0.04392,-0.01952,-0.01464,-0.01952
0,0.0122,-0.0244,-0.0244,-0.0244,0.0122,0.0732,0.03416,0.04392,-0.00976,0.00488,-0.00488
-0.01952,0.02928,-0.03904,-0.02928,-0.01952,0,0.09272,0.03904,0.04392,-0.00488,0.01464,0.00976
0,0.01952,-0.03904,-0.03904,-0.03904,0.01952,0.10248,0.04392,0.03416,0.00488,0.00488,0.00488
0.00976,0.00732,-0.0244,-0.02928,-0.03416,0.02196,0.12688,0.03416,0.01952,0,0,-0.00488
0.01464,-0.00732,0,-0.00732,-0.01464,0.01464,0.0976,0.04392,0.0244,-0.01464,-0.01952,-0.03904
0.01952,-0.0122,0.00488,-0.00488,-0.01464,0.01708,0.06832,0.0488,0.0244,-0.02928,-0.04392,-0.06344
0.00976,0,-0.00976,-0.01464,-0.01952,0.01464,0.0488,0.05368,0.03904,-0.01952,-0.01952,-0.03416
-0.00976,0.01464,-0.01952,-0.01464,-0.00976,0,0.03416,0.05856,0.04392,-0.00488,0,-0.00488
-0.04392,0.01952,0.00488,0.02684,0.0488,-0.04636,-0.0244,0.10736,0.06832,0.0244,0.01464,0.0244
-0.01952,0.02684,-0.03416,-0.0244,-0.01464,-0.00244,-0.05368,0.17568,0.11224,0.03904,0.04392,0.06344
-0.0244,0.0366,-0.0488,-0.0366,-0.0244,0,-0.04392,0.3416,0.22936,0.08784,0.09272,0.07808
-0.00976,0.00976,-0.00976,-0.00488,0,-0.00488,-0.0244,0.2928,0.27816,0.12688,0.13664,0.12688
0.0488,-0.08052,0.11224,0.08784,0.06344,-0.00732,-0.04392,-0.00976,0.2196,0.23912,0.22936,0.21472
0.15128,-0.183,0.21472,0.13908,0.06344,0.04392,-0.02928,-0.35136,0.12688,0.35136,0.37576,0.39528
0.18544,-0.2196,0.25376,0.16104,0.06832,0.05856,-0.08784,-0.76128,-0.15128,0.44408,0.50264,0.55632
0.244,-0.2806,0.3172,0.1952,0.0732,0.0854,-0.22448,-1.12728,-0.4636,0.44408,0.55144,0.66856
0.23912,-0.21472,0.19032,0.07076,-0.0488,0.14396,-0.244,-1.12728,-0.64904,0.25864,0.44408,0.61488
0.2196,-0.08052,-0.05856,-0.16836,-0.27816,0.24888,-0.1708,-0.91744,-0.61,0.13176,0.32696,0.52704
0.20008,-0.04148,-0.11712,-0.21716,-0.3172,0.25864,-0.16104,-0.83448,-0.56608,0.03416,0.20008,0.38552
0.07808,0.05124,-0.18056,-0.2196,-0.25864,0.16836,-0.07808,-0.69296,-0.52216,-0.0488,0.08296,0.17568
-0.04392,0.11956,-0.1952,-0.17324,-0.15128,0.05368,0.0488,-0.52704,-0.46848,-0.13664,-0.0488,0.03904
-0.03904,0.11712,-0.1952,-0.17568,-0.15616,0.05856,0.0732,-0.38064,-0.38552,-0.17568,-0.11224,-0.06344
-0.05368,0.13908,-0.22448,-0.19764,-0.1708,0.05856,0.08784,-0.3172,-0.29768,-0.16104,-0.11224,-0.07808
-0.07808,0.09516,-0.11224,-0.0732,-0.03416,-0.02196,0.12688,-0.22936,-0.23912,-0.13664,-0.09272,-0.07808
-0.06344,0.09516,-0.12688,-0.09516,-0.06344,0,0.11712,-0.13176,-0.16104,-0.0976,-0.0732,-0.05368
-0.05368,0.08296,-0.11224,-0.0854,-0.05856,0.00244,0.11712,-0.00488,-0.05368,-0.05368,-0.01952,-0.01952
0,0.03172,-0.06344,-0.06344,-0.06344,0.03172,0.13176,0.05368,0.00976,-0.01464,0,-0.01952
-0.00976,0.03172,-0.05368,-0.0488,-0.04392,0.01708,0.10248,0.09272,0.00488,-0.03416,-0.00488,-0.01952
-0.01464,0.0366,-0.05856,-0.05124,-0.04392,0.01464,0.0976,0.09272,0.00488,-0.04392,-0.00976,-0.01952
-0.01464,0.04148,-0.06832,-0.061,-0.05368,0.01952,0.08784,0.07808,0.00976,-0.02928,0.00488,-0.00976
-0.01952,0.04636,-0.0732,-0.06344,-0.05368,0.01708,0.08784,0.0488,0.01464,-0.00976,0.00976,-0.00976
-0.02928,0.05368,-0.07808,-0.06344,-0.0488,0.00976,0.0732,0.07808,0.00488,-0.01952,-0.00488,-0.01464
-0.02928,0.05124,-0.0732,-0.05856,-0.04392,0.00732,0.04392,0.10248,0.00976,-0.02928,-0.0244,-0.01464
-0.0488,0.07564,-0.10248,-0.07808,-0.05368,0.00244,0.03416,0.0976,0.01464,-0.03904,-0.03416,-0.01952
-0.07808,0.10004,-0.122,-0.08296,-0.04392,-0.01708,0.03416,0.08784,0.01952,-0.04392,-0.02928,-0.01952
-0.06832,0.09028,-0.11224,-0.07808,-0.04392,-0.0122,0.0244,0.08784,0,-0.0488,-0.02928,-0.02928
-0.0488,0.07808,-0.10736,-0.08296,-0.05856,0.00488,0.03416,0.08784,0,-0.0488,-0.03416,-0.02928
-0.05368,0.06344,-0.0732,-0.04636,-0.01952,-0.01708,0.03904,0.08296,0.00488,-0.03904,-0.01952,-0.02928
-0.05856,0.06344,-0.06832,-0.03904,-0.00976,-0.0244,0.06344,0.05856,0.00488,-0.03416,-0.01464,-0.01952
-0.03904,0.04392,-0.0488,-0.02928,-0.00976,-0.01464,0.0488,0.01952,-0.00488,-0.03416,-0.01464,-0.03416
-0.02928,0.04148,-0.05368,-0.03904,-0.0244,-0.00244,0.04392,0.00488,-0.00488,-0.03416,-0.01952,-0.03416
-0.03416,0.0366,-0.03904,-0.02196,-0.00488,-0.01464,0.02928,0.0244,-0.01464,-0.05368,-0.03904,-0.06832
-0.02928,0.02928,-0.02928,-0.01464,0,-0.01464,0.01952,0.03904,-0.01464,-0.05368,-0.0488,-0.0732
-0.04392,0.05856,-0.0732,-0.05124,-0.02928,-0.00732,0.04392,0.06344,0.00488,-0.04392,-0.03416,-0.04392
-0.04392,0.0732,-0.10248,-0.08052,-0.05856,0.00732,0.06832,0.08784,0.0244,-0.03416,-0.0244,-0.01464
-0.0244,0.0488,-0.0732,-0.061,-0.0488,0.0122,0.07808,0.09272,0.01952,-0.04392,-0.01464,-0.01464
-0.01464,0.0244,-0.03416,-0.02684,-0.01952,0.00244,0.07808,0.09272,0.01464,-0.05368,-0.01952,-0.01952
-0.00976,0.01952,-0.02928,-0.0244,-0.01952,0.00488,0.05856,0.0732,0.00976,-0.05368,-0.01952,-0.03416
-0.00976,0.0244,-0.03904,-0.03416,-0.02928,0.00976,0.05368,0.0732,0.00976,-0.03416,-0.01464,-0.01952
-0.01952,0.02928,-0.03904,-0.02928,-0.01952,0,0.05856,0.05368,0.01464,-0.03416,-0.02928,-0.03416
-0.01952,0.03904,-0.05856,-0.0488,-0.03904,0.00976,0.06344,0.05368,0.01464,-0.02928,-0.01952,-0.02928
-0.0488,0.07564,-0.10248,-0.07808,-0.05368,0.00244,0.0488,0.07808,0.00976,-0.0488,-0.02928,-0.04392
-0.06344,0.08052,-0.0976,-0.06588,-0.03416,-0.01464,0.03904,0.08296,0.00488,-0.06344,-0.0488,-0.04392
-0.04392,0.05368,-0.06344,-0.04148,-0.01952,-0.0122,0.0488,0.08296,-0.01464,-0.06832,-0.06344,-0.05856
-0.02928,0.04636,-0.06344,-0.0488,-0.03416,0.00244,0.07808,0.08784,-0.01952,-0.0732,-0.06832,-0.06344
-0.03904,0.05124,-0.06344,-0.04392,-0.0244,-0.00732,0.08784,0.08296,-0.00488,-0.0488,-0.0488,-0.05856
-0.04392,0.05856,-0.0732,-0.05124,-0.02928,-0.00732,0.07808,0.0732,0,-0.02928,-0.04392,-0.0488
-0.05368,0.07076,-0.08784,-0.061,-0.03416,-0.00976,0.0732,0.06832,0.00976,-0.0244,-0.00976,-0.02928
-0.05856,0.0732,-0.08784,-0.05856,-0.02928,-0.01464,0.07808,0.06832,0.01464,-0.02928,0.00976,-0.01952
-0.05368,0.06588,-0.07808,-0.05124,-0.0244,-0.01464,0.08296,0.06344,0.00488,-0.03904,-0.00976,-0.02928
-0.04392,0.05856,-0.0732,-0.05124,-0.02928,-0.00732,0.08784,0.05856,-0.00976,-0.04392,-0.02928,-0.0488
-0.04392,0.07564,-0.10736,-0.0854,-0.06344,0.00976,0.07808,0.05368,-0.0244,-0.0488,-0.04392,-0.05368
-0.03904,0.0732,-0.10736,-0.08784,-0.06832,0.01464,0.05856,0.04392,-0.02928,-0.05856,-0.05856,-0.06344
-0.02928,0.05856,-0.08784,-0.0732,-0.05856,0.01464,0.03904,0.03416,-0.01952,-0.04392,-0.04392,-0.0488
-0.02928,0.0488,-0.06832,-0.05368,-0.03904,0.00488,0.0244,0.00488,-0.02928,-0.04392,-0.03904,-0.0488
-0.0488,0.06588,-0.08296,-0.05856,-0.03416,-0.00732,0.01952,-0.00976,-0.03904,-0.05368,-0.05856,-0.05856
-0.05856,0.06588,-0.0732,-0.04392,-0.01464,-0.02196,0,-0.01464,-0.05368,-0.05856,-0.05856,-0.06832
-0.03416,0.05124,-0.06832,-0.05124,-0.03416,0,0.01952,0.03416,-0.02928,-0.06832,-0.03904,-0.0488
-0.0244,0.0366,-0.0488,-0.0366,-0.0244,0,0.01464,0.08296,-0.00976,-0.07808,-0.0244,-0.03416
-0.03904,0.05856,-0.07808,-0.05856,-0.03904,0,0.0244,0.08784,0,-0.06344,-0.01464,-0.03416
-0.04392,0.06344,-0.08296,-0.061,-0.03904,-0.00244,0.01952,0.0732,-0.01952,-0.06344,-0.0244,-0.04392
-0.0488,0.06344,-0.07808,-0.05368,-0.02928,-0.00976,0.05368,0.0732,-0.00976,-0.06832,-0.03904,-0.04392
-0.05856,0.07076,-0.08296,-0.05368,-0.0244,-0.01708,0.0732,0.08296,-0.00976,-0.0732,-0.0488,-0.04392
-0.05368,0.07076,-0.08784,-0.061,-0.03416,-0.00976,0.03904,0.06832,-0.01464,-0.0732,-0.05368,-0.04392
-0.0488,0.05124,-0.05368,-0.02928,-0.00488,-0.02196,0.01464,0.03904,-0.03416,-0.08296,-0.05856,-0.04392
-0.04392,0.04636,-0.0488,-0.02684,-0.00488,-0.01952,-0.01464,0.01464,-0.04392,-0.08296,-0.07808,-0.0732
-0.04392,0.05124,-0.05856,-0.0366,-0.01464,-0.01464,-0.01952,-0.00488,-0.0488,-0.09272,-0.08296,-0.09272
-0.03904,0.061,-0.08296,-0.06344,-0.04392,0.00244,0.01464,0.06344,-0.01952,-0.07808,-0.0732,-0.0732
-0.01952,0.03904,-0.05856,-0.0488,-0.03904,0.00976,0.00488,0.11224,-0.0244,-0.08784,-0.0732,-0.0732
-0.04392,0.05612,-0.06832,-0.04636,-0.0244,-0.00976,0.03904,0.10736,-0.01464,-0.05856,-0.0488,-0.06832
-0.04392,0.05368,-0.06344,-0.04148,-0.01952,-0.0122,0.06832,0.0976,-0.01464,-0.05368,-0.03416,-0.05856
-0.0488,0.061,-0.0732,-0.0488,-0.0244,-0.0122,0.0488,0.0732,-0.01952,-0.0732,-0.03904,-0.05856
-0.0488,0.061,-0.0732,-0.0488,-0.0244,-0.0122,0.03416,0.05856,-0.02928,-0.08296,-0.0488,-0.05368
-0.03904,0.04148,-0.04392,-0.0244,-0.00488,-0.01708,0.0488,0.05368,-0.03904,-0.08296,-0.05368,-0.06344
-0.0244,0.02684,-0.02928,-0.01708,-0.00488,-0.00976,0.04392,0.05856,-0.03904,-0.0732,-0.05856,-0.05856
0.00488,0.00244,-0.00976,-0.0122,-0.01464,0.00976,0.04392,0.05368,-0.0244,-0.06344,-0.03904,-0.03904
0.01952,-0.00732,-0.00488,-0.01464,-0.0244,0.02196,0.05368,0.06344,-0.01952,-0.06344,-0.03416,-0.03416
0.01464,0.00488,-0.0244,-0.03172,-0.03904,0.02684,0.00976,0.08296,-0.00976,-0.06344,-0.0244,-0.03416
0,0.01708,-0.03416,-0.03416,-0.03416,0.01708,-0.01464,0.0976,0,-0.05856,-0.01464,-0.02928
-0.01464,0.01952,-0.0244,-0.01708,-0.00976,-0.00244,-0.0488,0.11712,-0.00976,-0.07808,-0.04392,-0.0488
-0.02928,0.03172,-0.03416,-0.01952,-0.00488,-0.0122,-0.08296,0.14152,-0.01464,-0.08784,-0.05856,-0.05368
-0.00976,0.02196,-0.03416,-0.02928,-0.0244,0.00732,-0.05856,0.15616,-0.00488,-0.0732,-0.02928,-0.03904
0.00976,0.00976,-0.02928,-0.03416,-0.03904,0.0244,-0.03416,0.14152,0.00976,-0.06832,-0.01464,-0.03904
0.01464,0.00976,-0.03416,-0.04148,-0.0488,0.03172,-0.01952,0.1464,0.02928,-0.0488,0.00488,-0.00976
0.00976,0.00732,-0.0244,-0.02928,-0.03416,0.02196,-0.01952,0.17568,0.04392,-0.02928,0.01464,0
0.00976,-0.0122,0.01464,0.00976,0.00488,0.00244,-0.0244,0.13664,0.0244,-0.03416,-0.00488,-0.00976
0.01464,-0.02684,0.03904,0.03172,0.0244,-0.00488,-0.01464,0.11224,0.04392,-0.0244,0.00488,0.01464
0.0244,-0.0244,0.0244,0.0122,0,0.0122,0.00488,0.11224,0.0244,-0.0244,-0.00488,0.01952
0.0244,-0.01708,0.00976,-0.00244,-0.01464,0.01952,0.01952,0.0976,0.0244,-0.0244,0.00488,0.0244
0.03416,-0.01464,-0.00488,-0.02196,-0.03904,0.0366,0.00976,0.10248,0.04392,0,0.0244,0.03416
0.0244,-0.00488,-0.01464,-0.02684,-0.03904,0.03172,0.0244,0.08784,0.05368,0.01464,0.03416,0.03416
0.02928,-0.0244,0.01952,0.00488,-0.00976,0.01952,0.00488,0.06344,0.05368,0.01464,0.0488,0.04392
0.02928,-0.03904,0.0488,0.03416,0.01952,0.00488,0.00488,0.0488,0.05368,0.0244,0.06832,0.03904
0.02928,-0.02684,0.0244,0.00976,-0.00488,0.01708,-0.01464,0.06832,0.06344,0.01952,0.0732,0.04392
0.02928,-0.02196,0.01464,0,-0.01464,0.02196,-0.01464,0.08784,0.06344,0.01952,0.07808,0.05368
0.02928,-0.0244,0.01952,0.00488,-0.00976,0.01952,-0.00976,0.0976,0.06344,0.00488,0.06344,0.05368
0.01952,-0.02684,0.03416,0.0244,0.01464,0.00244,0.01464,0.10736,0.06832,0.01464,0.06344,0.05368
0.00976,-0.0244,0.03904,0.03416,0.02928,-0.00976,0.00976,0.08296,0.05856,0.01952,0.06344,0.05368
0.00976,-0.01708,0.0244,0.01952,0.01464,-0.00244,0.0244,0.0976,0.05856,0.01952,0.06344,0.05856
-0.01464,0.00732,0,0.00732,0.01464,-0.01464,0.00488,0.07808,0.06344,0.0244,0.05368,0.06344
-0.0244,0.01708,-0.00976,0.00244,0.01464,-0.01952,-0.00488,0.06344,0.05856,0.01464,0.03904,0.0488
-0.01952,0.02684,-0.03416,-0.0244,-0.01464,-0.00244,-0.01464,0.06344,0.05368,-0.00488,0.01952,0.03416
-0.00976,0.02928,-0.0488,-0.04392,-0.03904,0.01464,-0.01464,0.0732,0.03904,-0.0244,0,0
-0.0244,0.02928,-0.03416,-0.02196,-0.00976,-0.00732,-0.00488,0.07808,0.04392,-0.01464,0.00976,0.01464
-0.03416,0.01708,0,0.01708,0.03416,-0.03416,-0.00488,0.07808,0.0488,-0.01952,0.01464,0.00976
-0.01464,0.00976,-0.00488,0.00244,0.00976,-0.0122,-0.00976,0.06832,0.03904,-0.0244,0.00488,-0.00488
-0.00488,0.01708,-0.02928,-0.02684,-0.0244,0.00976,-0.00488,0.05856,0.03904,-0.01952,0,-0.00976
-0.01464,0.0122,-0.00976,-0.00244,0.00488,-0.00976,0.0244,0.06832,0.03416,-0.01952,0.00976,0
-0.00488,-0.00244,0.00976,0.0122,0.01464,-0.00976,0.03904,0.07808,0.0244,-0.02928,0.00488,0
0,-0.00244,0.00488,0.00488,0.00488,-0.00244,0.06344,0.05856,0.03416,-0.01464,0.01952,0.01952
0,0,0,0,0,0,0.08296,0.04392,0.03904,0,0.03904,0.02928
0.00488,0.00488,-0.01464,-0.01708,-0.01952,0.0122,0.0732,0.02928,0.01464,-0.01464,0.01464,0.00976
0.00976,0.0122,-0.03416,-0.03904,-0.04392,0.02684,0.05856,0.00488,0,-0.0244,0.00976,0.00976
-0.00976,0.0122,-0.01464,-0.00976,-0.00488,-0.00244,0.03416,-0.02928,-0.00488,-0.03416,0,0
-0.01952,0.00732,0.00488,0.01464,0.0244,-0.02196,0.00976,-0.05368,-0.00488,-0.03416,0,-0.01464
-0.03904,0.02684,-0.01464,0.00488,0.0244,-0.03172,0.01464,0.02928,0.02928,-0.01952,0.00976,0
-0.0488,0.03172,-0.01464,0.00976,0.03416,-0.04148,0.03416,0.11224,0.05368,0,0.01464,0.00488
-0.03416,0.02196,-0.00976,0.00732,0.0244,-0.02928,0.05856,0.10248,0.05368,-0.01464,0.01464,0.01952
-0.01952,0.0122,-0.00488,0.00488,0.01464,-0.01708,0.06344,0.0976,0.0488,-0.02928,0.00976,0.0244
-0.01464,0.0122,-0.00976,-0.00244,0.00488,-0.00976,0.03904,0.05856,0.04392,-0.02928,0.0244,0.01952
-0.01464,0.01464,-0.01464,-0.00732,0,-0.00732,0.01952,0.05856,0.04392,-0.01952,0.03416,0.01952
-0.02928,0.01952,-0.00976,0.00488,0.01952,-0.0244,0,0.0732,0.03904,-0.00488,0.03416,0.0244
-0.03416,0.01708,0,0.01708,0.03416,-0.03416,-0.01952,0.0732,0.03904,0.00488,0.03904,0.0244
-0.01464,0,0.01464,0.02196,0.02928,-0.02196,0,0.05856,0.02928,-0.00488,0.03416,0.03416
0.00488,-0.00976,0.01464,0.0122,0.00976,-0.00244,0.01464,0.05368,0.03416,0,0.02928,0.03416
-0.01464,0.00976,-0.00488,0.00244,0.00976,-0.0122,0.02928,0.02928,0.03416,-0.00488,0.03904,0.03904
-0.01952,0.02196,-0.0244,-0.01464,-0.00488,-0.00732,0.04392,0.00488,0.03416,-0.00488,0.03416,0.04392
-0.00488,0.00976,-0.01464,-0.0122,-0.00976,0.00244,0.02928,-0.02928,0.00976,-0.0244,0.01952,0.01952
-0.00488,0.00976,-0.01464,-0.0122,-0.00976,0.00244,0.0244,-0.03416,-0.00488,-0.01952,0.0244,0
0,-0.00244,0.00488,0.00488,0.00488,-0.00244,0.02928,0.00488,0.00976,-0.02928,0.01464,0.01464
0,-0.01708,0.03416,0.03416,0.03416,-0.01708,0.02928,0.03416,0.01952,-0.0244,0.00976,0.01464
0,-0.00976,0.01952,0.01952,0.01952,-0.00976,0.02928,0.03904,0.03416,-0.00488,0.02928,0.0244
0,-0.0122,0.0244,0.0244,0.0244,-0.0122,0.02928,0.03904,0.04392,0.00488,0.03904,0.03904
-0.00488,-0.00244,0.00976,0.0122,0.01464,-0.00976,0.01464,0.06832,0.05856,0.01952,0.05856,0.05368
-0.00488,-0.00244,0.00976,0.0122,0.01464,-0.00976,0.00976,0.07808,0.06344,0.01464,0.0488,0.05368
0.00488,0,-0.00488,-0.00732,-0.00976,0.00732,0,0.08296,0.05368,0,0.02928,0.0488
0.00488,0.00488,-0.01464,-0.01708,-0.01952,0.0122,-0.00976,0.08784,0.05856,0,0.02928,0.04392
-0.02928,0.04148,-0.05368,-0.03904,-0.0244,-0.00244,-0.00488,0.08296,0.05368,0,0.04392,0.04392
-0.01464,0.02928,-0.04392,-0.0366,-0.02928,0.00732,0.00488,0.06832,0.05368,0,0.04392,0.03904
-0.01464,0.01708,-0.01952,-0.0122,-0.00488,-0.00488,0,0.0488,0.03904,0.00488,0.03416,0.00976
-0.01464,0.00244,0.00976,0.01708,0.0244,-0.01952,-0.00976,0.02928,0.03416,0.00488,0.03416,-0.00488
-0.00488,0,0.00488,0.00732,0.00976,-0.00732,0,0.03904,0.03904,0,0.0244,0.01464
-0.00488,0.0122,-0.01952,-0.01708,-0.01464,0.00488,0.00976,0.0488,0.03904,0,0.0244,0.01464
-0.00488,-0.00976,0.0244,0.02684,0.02928,-0.01708,0.01464,0.03416,0.03904,-0.00976,0.01952,-0.00488
-0.00488,0,0.00488,0.00732,0.00976,-0.00732,0.01464,0.04392,0.05856,-0.00976,0.0244,0.00488
-0.00976,0.00488,0,0.00488,0.00976,-0.00976,0.01952,0.03416,0.03416,-0.01952,0.00976,0
-0.00976,0.00488,0,0.00488,0.00976,-0.00976,0.01952,0.0244,0.01464,-0.0244,0,0
-0.00488,0.0122,-0.01952,-0.01708,-0.01464,0.00488,0.00488,0.03416,0.01952,-0.01464,0.02928,0.01952
-0.01464,0.02928,-0.04392,-0.0366,-0.02928,0.00732,0.00976,0.03904,0.02928,-0.00976,0.04392,0.03416
0,-0.00488,0.00976,0.00976,0.00976,-0.00488,0.01952,0.01952,0.01952,0,0.01952,-0.02928
-0.00976,0,0.00976,0.01464,0.01952,-0.01464,0.01952,0.03904,0.02928,-0.00976,0.00976,-0.01952
-0.00976,0,0.00976,0.01464,0.01952,-0.01464,0.01952,0.0488,0.02928,-0.00976,0.00976,-0.01952
-0.01464,0.01708,-0.01952,-0.0122,-0.00488,-0.00488,0.00976,0.0488,0.04392,-0.00976,0.0244,0.01952
0.00488,0.0122,-0.02928,-0.03172,-0.03416,0.01952,0.00976,0.0488,0.05368,-0.00976,0.01464,0.0244
0.00488,0.00732,-0.01952,-0.02196,-0.0244,0.01464,-0.00976,0.05368,0.04392,-0.00976,0.03416,0.03416
0.00976,-0.00732,0.00488,0,-0.00488,0.00732,-0.03416,0.05368,0.03416,-0.01952,0.0244,0.02928
-0.00488,-0.01708,0.03904,0.04148,0.04392,-0.0244,-0.02928,0.03416,0.0244,-0.02928,0.00976,0
0,-0.01464,0.02928,0.02928,0.02928,-0.01464,-0.01464,0.01464,0.0244,-0.02928,0.01464,-0.01464
-0.00488,-0.00488,0.01464,0.01708,0.01952,-0.0122,0.0244,0.04392,0.04392,0,0.03416,0.01952
-0.00976,0.01708,-0.0244,-0.01952,-0.01464,0.00244,0.06344,0.07808,0.05856,0.01952,0.04392,0.0488
-0.00488,-0.00488,0.01464,0.01708,0.01952,-0.0122,0.0732,0.09272,0.06832,0.01464,0.05856,0.03904
-0.00488,-0.00976,0.0244,0.02684,0.02928,-0.01708,0.10248,0.11712,0.07808,0.0244,0.06344,0.03416
0,-0.00732,0.01464,0.01464,0.01464,-0.00732,0.08296,0.10736,0.07808,0.00976,0.05368,0.0488
0,-0.00488,0.00976,0.00976,0.00976,-0.00488,0.08784,0.0976,0.08784,0.00976,0.05368,0.0488
0.00488,-0.01464,0.0244,0.02196,0.01952,-0.00732,0.10736,0.10736,0.08296,0.00976,0.04392,0.03904
0.01464,-0.0244,0.03416,0.02684,0.01952,-0.00244,0.122,0.10736,0.08784,0.01464,0.05368,0.03904
0.00976,-0.02928,0.0488,0.04392,0.03904,-0.01464,0.11224,0.0732,0.0732,0.01464,0.05368,0.03904
0.01952,-0.04148,0.06344,0.05368,0.04392,-0.0122,0.08296,0.04392,0.06344,0.01952,0.05368,0.0488
0,-0.03172,0.06344,0.06344,0.06344,-0.03172,0.05856,0.06344,0.0732,0.03416,0.06344,0.04392
0.00488,-0.02684,0.0488,0.04636,0.04392,-0.01952,0.05368,0.08296,0.08296,0.02928,0.06344,0.0488
0.00976,-0.0366,0.06344,0.05856,0.05368,-0.02196,0.00488,0.02928,0.06344,0.0244,0.06344,0.04392
0.04392,-0.06832,0.09272,0.07076,0.0488,-0.00244,-0.01952,-0.00488,0.06344,0.03416,0.06832,0.0488
0.0244,-0.061,0.0976,0.0854,0.0732,-0.0244,-0.05856,-0.00976,0.05856,0.03416,0.06344,0.0488
0.0244,-0.061,0.0976,0.0854,0.0732,-0.0244,-0.08784,-0.00488,0.05856,0.03416,0.06344,0.04392
0.01464,-0.06588,0.11712,0.1098,0.10248,-0.04392,-0.07808,0.0244,0.05856,0.0488,0.06832,0.04392
0.00488,-0.05612,0.10736,0.10492,0.10248,-0.0488,-0.06344,0.06832,0.05856,0.0488,0.06832,0.0488
0.00976,-0.05856,0.10736,0.10248,0.0976,-0.04392,-0.0244,0.05368,0.06344,0.04392,0.07808,0.05856
0.00488,-0.04636,0.08784,0.0854,0.08296,-0.03904,0.00488,0.08296,0.07808,0.0488,0.08296,0.07808
0.01952,-0.03904,0.05856,0.0488,0.03904,-0.00976,0,0.0732,0.08296,0.03904,0.07808,0.06832
0.01952,-0.02928,0.03904,0.02928,0.01952,0,0,0.06344,0.08296,0.03416,0.0732,0.05368
0.02928,-0.03416,0.03904,0.0244,0.00976,0.00976,-0.00976,0.05368,0.05856,0.0244,0.05368,0.0244
0.01464,-0.02196,0.02928,0.02196,0.01464,0,-0.00488,0.03904,0.03416,0.00488,0.03416,0.00976
0,-0.00976,0.01952,0.01952,0.01952,-0.00976,0.00488,0.05368,0.03416,-0.00488,0.03904,0.01464
-0.01952,0.0122,-0.00488,0.00488,0.01464,-0.01708,0.01464,0.0488,0.03416,-0.00976,0.03416,0.01952
-0.0244,0.02196,-0.01952,-0.00732,0.00488,-0.01464,-0.00488,0.03416,0.01952,-0.00488,0.01952,0.00976
-0.01464,0.01952,-0.0244,-0.01708,-0.00976,-0.00244,-0.01952,0.02928,0.0244,-0.00976,0.0244,0
-0.01952,0.02684,-0.03416,-0.0244,-0.01464,-0.00244,-0.0244,0.00488,0.01464,-0.01952,0.00488,-0.01464
-0.02928,0.03904,-0.0488,-0.03416,-0.01952,-0.00488,-0.03416,0.00976,0.00488,-0.03416,-0.01464,-0.01952
-0.02928,0.0488,-0.06832,-0.05368,-0.03904,0.00488,-0.01464,0.0244,0.01464,-0.0244,0.00488,-0.00488
-0.02928,0.04636,-0.06344,-0.0488,-0.03416,0.00244,0.01952,0.01464,0.01952,-0.02928,0.01952,-0.00488
-0.01464,0.03172,-0.0488,-0.04148,-0.03416,0.00976,0.03904,0.00488,0.00488,-0.03416,0.00976,0
-0.00976,0.02684,-0.04392,-0.03904,-0.03416,0.0122,0.05856,-0.00976,-0.00488,-0.02928,0.00488,0.00488
0,0.00976,-0.01952,-0.01952,-0.01952,0.00976,0.0488,-0.00488,-0.00976,-0.02928,0,-0.00488
-0.00976,0.00976,-0.00976,-0.00488,0,-0.00488,0.05368,0.00976,-0.00488,-0.0244,0,-0.01464
-0.01464,0.00488,0.00488,0.0122,0.01952,-0.01708,-0.01464,0.0488,0.0488,0.00488,0.03416,0.00488
