i,aVR,ii,aVF,iii,aVL,V1,V2,V3,V4,V5,V6
-0.01464,0.02196,-0.02928,-0.02196,-0.01464,0,0.05368,-0.04392,-0.02928,-0.05368,-0.05368,-0.06344
-0.0244,0.0244,-0.0244,-0.0122,0,-0.0122,0.05368,-0.03416,-0.0244,-0.0488,-0.0488,-0.06344
-0.03416,0.02928,-0.0244,-0.00732,0.00976,-0.02196,0.05368,-0.03904,-0.03416,-0.05856,-0.05856,-0.06832
-0.04392,0.03172,-0.01952,0.00244,0.0244,-0.03416,0.06344,-0.03416,-0.01952,-0.0488,-0.0488,-0.05856
-0.05368,0.04148,-0.02928,-0.00244,0.0244,-0.03904,0.06344,-0.02928,-0.01952,-0.04392,-0.04392,-0.05856
-0.0488,0.04636,-0.04392,-0.01952,0.00488,-0.02684,0.06832,-0.02928,-0.01952,-0.04392,-0.04392,-0.06344
-0.02928,0.0366,-0.04392,-0.02928,-0.01464,-0.00732,0.06832,-0.02928,-0.01952,-0.0488,-0.04392,-0.06832
-0.04392,0.03904,-0.03416,-0.0122,0.00976,-0.02684,0.06344,-0.03904,-0.02928,-0.0488,-0.0488,-0.06832
-0.0488,0.04392,-0.03904,-0.01464,0.00976,-0.02928,0.06344,-0.03416,-0.0244,-0.04392,-0.04392,-0.06832
-0.05368,0.04636,-0.03904,-0.0122,0.01464,-0.03416,0.06344,-0.02928,-0.01952,-0.0488,-0.0488,-0.06832
-0.0488,0.03172,-0.01464,0.00976,0.03416,-0.04148,0.05368,-0.03416,-0.0244,-0.05368,-0.05368,-0.0732
-0.04392,0.0488,-0.05368,-0.03172,-0.00976,-0.01708,0.05856,-0.04392,-0.02928,-0.0488,-0.05856,-0.06832
-0.04392,0.05368,-0.06344,-0.04148,-0.01952,-0.0122,0.05856,-0.04392,-0.02928,-0.05368,-0.05856,-0.06832
-0.03904,0.03416,-0.02928,-0.00976,0.00976,-0.0244,0.06832,-0.04392,-0.03416,-0.05856,-0.05856,-0.06832
-0.03904,0.0366,-0.03416,-0.01464,0.00488,-0.02196,0.06832,-0.04392,-0.02928,-0.05856,-0.05856,-0.06832
-0.03416,0.03416,-0.03416,-0.01708,0,-0.01708,0.05856,-0.05368,-0.04392,-0.06344,-0.05856,-0.05856
-0.03416,0.03904,-0.04392,-0.02684,-0.00976,-0.0122,0.05368,-0.05368,-0.0488,-0.06344,-0.06344,-0.05856
-0.04392,0.03904,-0.03416,-0.0122,0.00976,-0.02684,0.05856,-0.05368,-0.04392,-0.06344,-0.06344,-0.06344
-0.03904,0.04148,-0.04392,-0.0244,-0.00488,-0.01708,0.05856,-0.05368,-0.03904,-0.06344,-0.05856,-0.06344
-0.0488,0.04148,-0.03416,-0.00976,0.01464,-0.03172,0.0488,-0.0488,-0.03904,-0.06832,-0.06344,-0.06344
-0.05368,0.03416,-0.01464,0.0122,0.03904,-0.04636,0.05368,-0.0488,-0.03416,-0.06832,-0.06832,-0.06344
-0.0488,0.0488,-0.0488,-0.0244,0,-0.0244,0.06832,-0.03416,-0.0244,-0.05368,-0.05368,-0.05856
-0.0488,0.06344,-0.07808,-0.05368,-0.02928,-0.00976,0.06832,-0.03416,-0.0244,-0.05368,-0.05368,-0.04392
-0.04392,0.04636,-0.0488,-0.02684,-0.00488,-0.01952,0.05856,-0.03904,-0.02928,-0.05856,-0.05856,-0.05368
-0.04392,0.03172,-0.01952,0.00244,0.0244,-0.03416,0.05368,-0.0488,-0.03904,-0.05856,-0.05856,-0.05368
-0.0488,0.0244,0,0.0244,0.0488,-0.0488,0.05368,-0.04392,-0.03416,-0.05856,-0.06344,-0.06344
-0.0488,0.03172,-0.01464,0.00976,0.03416,-0.04148,0.05368,-0.04392,-0.03416,-0.05368,-0.06344,-0.05856
-0.05368,0.04148,-0.02928,-0.00244,0.0244,-0.03904,0.06832,-0.02928,-0.01952,-0.04392,-0.0488,-0.0488
-0.05368,0.04392,-0.03416,-0.00732,0.01952,-0.0366,0.06344,-0.01464,-0.00488,-0.03904,-0.03904,-0.03904
-0.04392,0.03416,-0.0244,-0.00244,0.01952,-0.03172,0.06344,-0.0244,-0.00488,-0.04392,-0.04392,-0.04392
-0.03904,0.02684,-0.01464,0.00488,0.0244,-0.03172,0.05368,-0.0244,-0.00976,-0.04392,-0.04392,-0.05368
-0.01952,0.01952,-0.01952,-0.00976,0,-0.00976,0.0488,-0.01952,-0.00488,-0.04392,-0.04392,-0.04392
-0.00976,0.0122,-0.01464,-0.00976,-0.00488,-0.00244,0.05368,-0.00976,-0.00488,-0.03416,-0.03904,-0.03904
-0.00488,0.00488,-0.00488,-0.00244,0,-0.00244,0.04392,-0.00976,0,-0.0244,-0.03416,-0.03904
0,0.00244,-0.00488,-0.00488,-0.00488,0.00244,0.03904,-0.00488,0,-0.01952,-0.0244,-0.03904
0.01464,0,-0.01464,-0.02196,-0.02928,0.02196,0.04392,0.01464,0.01952,0,-0.00488,-0.02928
0.01952,-0.01708,0.01464,0.00488,-0.00488,0.0122,0.03904,0.01464,0.01952,0,0,-0.0244
0.01952,-0.02196,0.0244,0.01464,0.00488,0.00732,0.02928,0.00976,0.01464,0,0,-0.0244
0.01464,-0.0244,0.03416,0.02684,0.01952,-0.00244,0.01464,0.01952,0.01464,-0.00488,-0.00976,-0.0244
0.03904,-0.05124,0.06344,0.04392,0.0244,0.00732,0.01464,0.01952,0.01464,0.00976,0,-0.01952
0.05856,-0.05856,0.05856,0.02928,0,0.02928,0.01464,0.0244,0.01952,0.01464,0.01464,-0.00976
0.05368,-0.0488,0.04392,0.01708,-0.00976,0.03172,0.00488,0.03904,0.03416,0.03416,0.0244,0.00488
0.05856,-0.05612,0.05368,0.0244,-0.00488,0.03172,0.00488,0.0488,0.03416,0.03416,0.02928,0.00976
0.06832,-0.06588,0.06344,0.02928,-0.00488,0.0366,0.00488,0.04392,0.03904,0.03416,0.02928,0.01464
0.06832,-0.07564,0.08296,0.0488,0.01464,0.02684,-0.00488,0.04392,0.04392,0.03904,0.03416,0.01464
0.06832,-0.07564,0.08296,0.0488,0.01464,0.02684,-0.00488,0.05368,0.03904,0.0488,0.04392,0.01952
0.05856,-0.061,0.06344,0.03416,0.00488,0.02684,0,0.05856,0.03904,0.0488,0.0488,0.01952
0.0732,-0.06832,0.06344,0.02684,-0.00976,0.04148,-0.01464,0.05368,0.04392,0.04392,0.05368,0.02928
0.07808,-0.0732,0.06832,0.02928,-0.00976,0.04392,-0.01464,0.06344,0.0488,0.05856,0.05856,0.02928
0.08784,-0.08296,0.07808,0.03416,-0.00976,0.0488,-0.01464,0.0732,0.05856,0.06344,0.06344,0.03904
0.0976,-0.09272,0.08784,0.03904,-0.00976,0.05368,-0.01464,0.07808,0.06344,0.06344,0.06832,0.04392
0.11224,-0.10248,0.09272,0.0366,-0.01952,0.06588,-0.01464,0.0732,0.05368,0.07808,0.06832,0.0488
0.122,-0.11468,0.10736,0.04636,-0.01464,0.06832,-0.01952,0.0732,0.05368,0.07808,0.0732,0.0488
0.11224,-0.11224,0.11224,0.05612,0,0.05612,-0.00976,0.08296,0.06344,0.07808,0.08296,0.05368
0.0976,-0.10248,0.10736,0.05856,0.00976,0.04392,-0.01464,0.0732,0.06344,0.0732,0.07808,0.05368
0.09272,-0.10736,0.122,0.07564,0.02928,0.03172,-0.01952,0.0732,0.05368,0.08296,0.0732,0.0488
0.0976,-0.11224,0.12688,0.07808,0.02928,0.03416,-0.01464,0.08296,0.06344,0.08296,0.0732,0.0488
0.0976,-0.11468,0.13176,0.08296,0.03416,0.03172,-0.01464,0.06832,0.06344,0.0732,0.06344,0.02928
0.0976,-0.11468,0.13176,0.08296,0.03416,0.03172,-0.01464,0.06832,0.05856,0.06832,0.05856,0.01952
0.0976,-0.09516,0.09272,0.04392,-0.00488,0.05124,-0.00488,0.07808,0.06344,0.07808,0.06832,0.00976
0.08784,-0.08296,0.07808,0.03416,-0.00976,0.0488,-0.00488,0.07808,0.06344,0.07808,0.06344,0.00488
0.08784,-0.0854,0.08296,0.03904,-0.00488,0.04636,0.00976,0.07808,0.06832,0.07808,0.06344,0.00976
0.0732,-0.0732,0.0732,0.0366,0,0.0366,0.01464,0.06832,0.06344,0.07808,0.06344,0.00488
0.09272,-0.07808,0.06344,0.01708,-0.02928,0.061,0.00976,0.06344,0.05368,0.05856,0.05856,0.01464
0.08784,-0.07076,0.05368,0.00976,-0.03416,0.061,0.01464,0.06344,0.05368,0.05856,0.05856,0.00976
0.0732,-0.05856,0.04392,0.00732,-0.02928,0.05124,0.0244,0.06344,0.05856,0.06832,0.0488,0.01464
0.06344,-0.04392,0.0244,-0.00732,-0.03904,0.05124,0.02928,0.05856,0.05368,0.05368,0.04392,0.01952
0.05368,-0.05124,0.0488,0.02196,-0.00488,0.02928,0.01464,0.05368,0.0488,0.0488,0.02928,0.01464
0.03904,-0.04636,0.05368,0.03416,0.01464,0.0122,0.01952,0.0488,0.04392,0.03904,0.0244,0.00976
0.03904,-0.03172,0.0244,0.00488,-0.01464,0.02684,0.01952,0.04392,0.04392,0.02928,0.01952,0
0.04392,-0.02684,0.00976,-0.0122,-0.03416,0.03904,0.01952,0.04392,0.04392,0.0244,0.01952,0
0.06344,-0.03416,0.00488,-0.02684,-0.05856,0.061,0.01952,0.0244,0.03904,0.01952,0.00976,-0.00976
0.05368,-0.02928,0.00488,-0.02196,-0.0488,0.05124,0.01952,0.01952,0.03416,0.01952,0.00976,-0.00488
0.05368,-0.03904,0.0244,-0.00244,-0.02928,0.04148,0.0244,0.0244,0.03416,0.00976,0.01464,0.00488
0.05368,-0.03904,0.0244,-0.00244,-0.02928,0.04148,0.0244,0.0244,0.02928,0.00976,0.01464,0.00488
0.04392,-0.03416,0.0244,0.00244,-0.01952,0.03172,0.02928,0.01464,0.01952,0.00976,0.00976,-0.00488
0.02928,-0.03172,0.03416,0.01952,0.00488,0.0122,0.0244,0.00976,0.01464,-0.00488,0.00488,-0.01464
0.02928,-0.02684,0.0244,0.00976,-0.00488,0.01708,0.03416,0.00976,0.0244,0.00488,0.00488,0
0.01952,-0.0122,0.00488,-0.00488,-0.01464,0.01708,0.03416,0.00976,0.0244,0.00976,0.00488,-0.00488
0.01952,-0.00732,-0.00488,-0.01464,-0.0244,0.02196,0.03416,0,0.01464,0.00976,0.00488,0
0.01464,-0.00488,-0.00488,-0.0122,-0.01952,0.01708,0.03416,0.00488,0.00976,0,-0.00488,-0.00488
0.00488,-0.0244,0.04392,0.04148,0.03904,-0.01708,0.0244,-0.00488,0.00488,-0.00488,-0.00976,-0.00488
0.01464,-0.02684,0.03904,0.03172,0.0244,-0.00488,0.01952,-0.00488,0.00488,-0.00488,-0.00976,-0.01952
0.03416,-0.03172,0.02928,0.0122,-0.00488,0.01952,0.02928,0.00488,0.01464,0.00488,0.00488,-0.00488
0.0488,-0.04148,0.03416,0.00976,-0.01464,0.03172,0.03416,0.01464,0.0244,0.01464,0.00976,0
0.0488,-0.04392,0.03904,0.01464,-0.00976,0.02928,0.02928,0.01464,0.01952,0.00488,0,0
0.0488,-0.03416,0.01952,-0.00488,-0.02928,0.03904,0.02928,0.01464,0.01952,0.00488,0,0
0.03904,-0.02928,0.01952,0,-0.01952,0.02928,0.0244,0.00488,0.0244,0.00976,0.00488,-0.00488
0.04392,-0.04636,0.0488,0.02684,0.00488,0.01952,0.0244,0.01464,0.02928,0.01464,0.00488,-0.00976
0.02928,-0.03172,0.03416,0.01952,0.00488,0.0122,0.03416,0.01952,0.03904,0.01952,0.00488,-0.01464
0.0244,-0.03904,0.05368,0.04148,0.02928,-0.00244,0.03416,0.0244,0.03904,0.01952,0.00488,-0.01464
0.03416,-0.0366,0.03904,0.02196,0.00488,0.01464,0.03416,0.01464,0.03416,0.0244,0.00976,-0.00488
0.04392,-0.03904,0.03416,0.0122,-0.00976,0.02684,0.03416,0.01464,0.02928,0.0244,0.00488,-0.00488
0.0488,-0.04392,0.03904,0.01464,-0.00976,0.02928,0.03416,0.00488,0.01952,0.01464,0,-0.00976
0.05368,-0.04392,0.03416,0.00732,-0.01952,0.0366,0.03416,0,0.01952,0.01464,0.00488,-0.00976
0.0488,-0.04636,0.04392,0.01952,-0.00488,0.02684,0.0244,0.01464,0.02928,0.00488,0.00488,0.00488
0.04392,-0.04636,0.0488,0.02684,0.00488,0.01952,0.0244,0.01952,0.03904,0.00976,0.00976,0.00976
0.03904,-0.05368,0.06832,0.0488,0.02928,0.00488,0.01464,0.00976,0.02928,0,0,0
0.03416,-0.05368,0.0732,0.05612,0.03904,-0.00244,0.01464,0.01464,0.01952,0.00488,0.00488,-0.00976
0.04392,-0.04392,0.04392,0.02196,0,0.02196,0.01464,0.01464,0.01952,0.01464,0.01464,0
0.0488,-0.04636,0.04392,0.01952,-0.00488,0.02684,0.00976,0.01464,0.01464,0.01464,0.00976,-0.00488
0.05368,-0.05856,0.06344,0.0366,0.00976,0.02196,0.01464,0.01952,0.01464,0,0,-0.01464
0.05856,-0.061,0.06344,0.03416,0.00488,0.02684,0.01952,0.01952,0.01952,0.00488,0.00488,-0.00976
0.05856,-0.05368,0.0488,0.01952,-0.00976,0.03416,0.02928,0.02928,0.02928,0.01464,0.01464,-0.00488
0.06344,-0.05124,0.03904,0.00732,-0.0244,0.04392,0.03904,0.03416,0.0244,0.01464,0.0244,-0.00488
0.04392,-0.05124,0.05856,0.0366,0.01464,0.01464,0.03416,0.01952,0.01464,0.00976,0.00488,-0.01464
0.0488,-0.04392,0.03904,0.01464,-0.00976,0.02928,0.03904,0.0244,0.0244,0.01464,0.00976,-0.00976
0.05368,-0.07076,0.08784,0.061,0.03416,0.00976,0.02928,0.00976,0.00488,0.00976,0,-0.0244
0.05368,-0.06588,0.07808,0.05124,0.0244,0.01464,0.0244,0.01464,0.00976,0.00976,0,-0.0244
0.0488,-0.05368,0.05856,0.03416,0.00976,0.01952,0.03416,0.0244,0.01952,0.0244,0.00976,-0.01464
0.04392,-0.03904,0.03416,0.0122,-0.00976,0.02684,0.04392,0.0244,0.02928,0.0244,0.01952,0
0.03416,-0.04148,0.0488,0.03172,0.01464,0.00976,0.04392,0.0244,0.02928,0.01952,0.01952,-0.00976
0.0244,-0.03172,0.03904,0.02684,0.01464,0.00488,0.03904,0.01952,0.02928,0.01464,0.01464,-0.01464
0.02928,-0.02928,0.02928,0.01464,0,0.01464,0.02928,0.01952,0.02928,0.01464,0.01464,-0.01464
0.01952,-0.03172,0.04392,0.03416,0.0244,-0.00244,0.02928,0.01952,0.02928,0.01464,0.01464,-0.01464
0.03416,-0.03416,0.03416,0.01708,0,0.01708,0.01952,0.00976,0.01952,0.00976,0.00488,-0.0244
0.04392,-0.03904,0.03416,0.0122,-0.00976,0.02684,0.01464,0.00976,0.00976,0,0.00488,-0.03416
0.0488,-0.0366,0.0244,0,-0.0244,0.0366,0.0244,0.00976,0.00976,0.00976,0.00488,-0.02928
0.0488,-0.03904,0.02928,0.00488,-0.01952,0.03416,0.0244,0.00976,0.00976,0.00976,0.00488,-0.0244
0.03904,-0.02684,0.01464,-0.00488,-0.0244,0.03172,0.0244,0.01952,0.01952,0.01464,0.00488,-0.0244
0.02928,-0.01952,0.00976,-0.00488,-0.01952,0.0244,0.0244,0.00976,0.01464,0.00976,0,-0.0244
0.03904,-0.03904,0.03904,0.01952,0,0.01952,0.0244,0.00488,0.00488,0,-0.00488,-0.02928
0.04392,-0.0488,0.05368,0.03172,0.00976,0.01708,0.0244,0.00488,0.00488,-0.00976,0,-0.02928
0.03416,-0.04392,0.05368,0.0366,0.01952,0.00732,0.01952,0.00976,0.00488,-0.00976,-0.01464,-0.03416
0.0244,-0.03172,0.03904,0.02684,0.01464,0.00488,0.02928,0.01464,0.01464,-0.00488,0,-0.02928
0.0244,-0.02928,0.03416,0.02196,0.00976,0.00732,0.02928,0.01464,0.0244,0,-0.00976,-0.03904
0.02928,-0.03172,0.03416,0.01952,0.00488,0.0122,0.02928,0.00488,0.01952,-0.00976,-0.00976,-0.04392
0.04392,-0.04148,0.03904,0.01708,-0.00488,0.0244,0.0244,0.00488,0.01464,-0.00976,-0.00976,-0.03904
0.04392,-0.03416,0.0244,0.00244,-0.01952,0.03172,0.02928,0.00488,0.01952,-0.00976,-0.00488,-0.03416
0.03416,-0.02928,0.0244,0.00732,-0.00976,0.02196,0.02928,0.00976,0.00976,-0.00976,-0.00488,-0.03416
0.02928,-0.03416,0.03904,0.0244,0.00976,0.00976,0.03416,0.00976,0.01464,-0.00488,-0.00488,-0.03416
0.02928,-0.04148,0.05368,0.03904,0.0244,0.00244,0.03416,-0.00488,0.00488,-0.01464,-0.01464,-0.04392
0.02928,-0.0488,0.06832,0.05368,0.03904,-0.00488,0.0244,-0.00488,0,-0.01952,-0.01952,-0.04392
0.02928,-0.0366,0.04392,0.02928,0.01464,0.00732,0.0488,0.01464,0.01952,0,0.00488,-0.03416
0.00976,0.00976,-0.02928,-0.03416,-0.03904,0.0244,0.06344,0.02928,0.04392,0.02928,0.02928,-0.0244
0.00488,-0.00488,0.00488,0.00244,0,0.00244,0.0488,0.01952,0.03904,0.00976,0.00976,-0.02928
0.01464,-0.01464,0.01464,0.00732,0,0.00732,0.0488,0.01952,0.03904,0.00976,0.00976,-0.02928
0.03416,-0.04148,0.0488,0.03172,0.01464,0.00976,0.03904,0.01952,0.03904,0.00976,0.00976,-0.01464
0.05368,-0.06832,0.08296,0.05612,0.02928,0.0122,0.03904,0.0244,0.03904,0.01952,0.01952,-0.00488
0.05368,-0.06832,0.08296,0.05612,0.02928,0.0122,0.03904,0.02928,0.05368,0.02928,0.02928,0.00488
0.05368,-0.06344,0.0732,0.04636,0.01952,0.01708,0.02928,0.02928,0.0488,0.02928,0.02928,0.00488
0.07808,-0.08052,0.08296,0.04392,0.00488,0.0366,0.01952,0.0244,0.03904,0.0244,0.01952,-0.00488
0.08784,-0.09028,0.09272,0.0488,0.00488,0.04148,0.0244,0.02928,0.04392,0.01952,0.00976,0
0.08784,-0.0976,0.10736,0.06344,0.01952,0.03416,0.0244,0.02928,0.05368,0.02928,0.01952,0.00488
0.09272,-0.09028,0.08784,0.04148,-0.00488,0.0488,0.00976,0.0244,0.05368,0.02928,0.03416,0.00976
0.08784,-0.0854,0.08296,0.03904,-0.00488,0.04636,0.00488,0.01464,0.04392,0.01952,0.02928,-0.00488
0.07808,-0.08784,0.0976,0.05856,0.01952,0.02928,-0.01464,0.00488,0.03416,0.01464,0.01952,-0.00976
0.08296,-0.08296,0.08296,0.04148,0,0.04148,-0.02928,0.00976,0.02928,0.02928,0.03416,0.00488
0.08296,-0.07808,0.0732,0.03172,-0.00976,0.04636,-0.03416,0.0244,0.0244,0.02928,0.03416,0.00976
0.09272,-0.07808,0.06344,0.01708,-0.02928,0.061,-0.03904,0.01952,0.0244,0.01952,0.03904,0.01464
0.10736,-0.0976,0.08784,0.03416,-0.01952,0.06344,-0.04392,0.01952,0.0244,0.0244,0.03904,0.01464
0.10736,-0.11712,0.12688,0.0732,0.01952,0.04392,-0.03904,0,0.02928,0.02928,0.03416,0.02928
0.11224,-0.10492,0.0976,0.04148,-0.01464,0.06344,-0.03904,0,0.0244,0.0244,0.03416,0.02928
0.0976,-0.0854,0.0732,0.0244,-0.0244,0.061,-0.0244,0.00488,0.00976,0.00976,0.00976,0.00488
0.07808,-0.061,0.04392,0.00488,-0.03416,0.05612,-0.00976,0.00488,0.01464,0.00976,0.01464,0
0.0732,-0.0488,0.0244,-0.0122,-0.0488,0.061,0.00488,0.0244,0.03416,0.01464,0.0244,0.01464
0.08296,-0.05612,0.02928,-0.0122,-0.05368,0.06832,0.00488,0.01952,0.0244,0.00976,0.01952,0.00488
0.0732,-0.04636,0.01952,-0.01708,-0.05368,0.06344,0,0.01952,0.00976,0.00488,0.00976,-0.00488
0.06832,-0.04148,0.01464,-0.01952,-0.05368,0.061,0,0.00976,0.00976,0,0.00976,-0.00976
0.06344,-0.03904,0.01464,-0.01708,-0.0488,0.05612,0.00488,0.01464,0.00976,-0.00488,0,-0.01952
0.0488,-0.03904,0.02928,0.00488,-0.01952,0.03416,0.00976,0.00488,0.01464,0,0,-0.01952
0.02928,-0.0244,0.01952,0.00488,-0.00976,0.01952,0.00976,-0.01464,0.00488,-0.01952,-0.01952,-0.03904
0.02928,-0.00488,-0.01952,-0.03416,-0.0488,0.03904,0.01464,-0.0244,-0.00488,-0.0244,-0.0244,-0.04392
0.02928,-0.00732,-0.01464,-0.02928,-0.04392,0.0366,0.01464,-0.01952,-0.00976,-0.03416,-0.01464,-0.04392
0.01952,-0.0122,0.00488,-0.00488,-0.01464,0.01708,0.02928,-0.01464,-0.00976,-0.03416,-0.01464,-0.03904
0.01952,-0.01952,0.01952,0.00976,0,0.00976,0.04392,-0.01464,-0.00488,-0.01952,-0.01464,-0.04392
0.01464,-0.0122,0.00976,0.00244,-0.00488,0.00976,0.04392,-0.01464,-0.00488,-0.02928,-0.01952,-0.04392
-0.00976,0.00244,0.00488,0.00976,0.01464,-0.0122,0.03904,-0.02928,-0.00976,-0.0244,-0.01952,-0.03904
-0.01464,0.00488,0.00488,0.0122,0.01952,-0.01708,0.03904,-0.02928,-0.01464,-0.02928,-0.02928,-0.04392
-0.01464,0.00488,0.00488,0.0122,0.01952,-0.01708,0.03904,-0.03416,-0.01464,-0.02928,-0.02928,-0.05368
-0.00976,0.00976,-0.00976,-0.00488,0,-0.00488,0.04392,-0.0244,-0.00976,-0.02928,-0.02928,-0.0488
-0.01464,0.00976,-0.00488,0.00244,0.00976,-0.0122,0.03904,-0.0244,-0.01952,-0.03416,-0.03416,-0.05856
-0.01464,0.00488,0.00488,0.0122,0.01952,-0.01708,0.02928,-0.0244,-0.01952,-0.03416,-0.03904,-0.05856
-0.00976,0.00244,0.00488,0.00976,0.01464,-0.0122,0.03416,-0.0244,-0.01952,-0.02928,-0.03904,-0.05856
-0.00976,0.01708,-0.0244,-0.01952,-0.01464,0.00244,0.03416,-0.01464,-0.01464,-0.0244,-0.03416,-0.05368
-0.01464,0.0244,-0.03416,-0.02684,-0.01952,0.00244,0.03416,-0.01464,-0.01464,-0.02928,-0.03416,-0.05368
-0.01464,0.01708,-0.01952,-0.0122,-0.00488,-0.00488,0.03416,-0.01464,-0.01464,-0.02928,-0.03416,-0.05856
-0.0244,0.00976,0.00488,0.01708,0.02928,-0.02684,0.03904,-0.01952,-0.01464,-0.02928,-0.02928,-0.05856
-0.02928,0.00976,0.00976,0.0244,0.03904,-0.03416,0.03904,-0.01464,-0.01464,-0.03416,-0.0244,-0.05856
-0.01952,0.00976,0,0.00976,0.01952,-0.01952,0.04392,-0.00976,-0.00488,-0.02928,-0.01952,-0.0488
-0.03904,0.01464,0.00976,0.02928,0.0488,-0.04392,0.06344,-0.01464,0.00488,-0.03416,-0.03904,-0.07808
-0.09272,0.061,-0.02928,0.01708,0.06344,-0.07808,0.122,0.01952,0.06344,-0.0244,-0.03416,-0.08296
-0.0976,0.07808,-0.05856,-0.00976,0.03904,-0.06832,0.15128,0.0488,0.0976,0.01952,-0.01952,-0.08296
-0.07808,0.02928,0.01952,0.05856,0.0976,-0.08784,0.1464,0.10248,0.16104,0.0732,0.00488,-0.06832
-0.0244,-0.04636,0.11712,0.12932,0.14152,-0.08296,0.14152,0.20008,0.25376,0.18544,0.10248,0.00976
0.12688,-0.17812,0.22936,0.16592,0.10248,0.0122,0.05856,0.30256,0.30744,0.3172,0.2196,0.10736
0.35136,-0.3294,0.30744,0.13176,-0.04392,0.19764,-0.06344,0.41968,0.32208,0.4636,0.37576,0.244
0.60512,-0.52216,0.4392,0.13664,-0.16592,0.38552,-0.24888,0.55632,0.33184,0.62952,0.55632,0.40016
0.79056,-0.66124,0.53192,0.13664,-0.25864,0.5246,-0.46848,0.5612,0.22936,0.69784,0.64904,0.50264
0.9516,-0.7808,0.61,0.1342,-0.3416,0.6466,-0.61976,0.57096,0.11712,0.71248,0.72224,0.57096
0.94672,-0.68808,0.42944,-0.04392,-0.51728,0.732,-0.65392,0.4392,-0.09272,0.49288,0.5612,0.46848
0.79056,-0.427,0.06344,-0.33184,-0.72712,0.75884,-0.5612,0.18056,-0.36112,0.0976,0.26352,0.25864
0.54168,-0.24156,-0.05856,-0.3294,-0.60024,0.57096,-0.52216,-0.32208,-0.64416,-0.25376,0.00976,0.08784
0.30256,-0.06832,-0.16592,-0.3172,-0.46848,0.38552,-0.40992,-0.6344,-0.76616,-0.4636,-0.1464,-0.03904
0.24888,-0.04148,-0.16592,-0.29036,-0.4148,0.33184,-0.32208,-0.52704,-0.66856,-0.42944,-0.15616,-0.05856
0.1952,-0.04148,-0.11224,-0.20984,-0.30744,0.25132,-0.2196,-0.39528,-0.51728,-0.33672,-0.122,-0.05368
0.1464,-0.01952,-0.10736,-0.18056,-0.25376,0.20008,-0.13176,-0.25864,-0.366,-0.23912,-0.09272,-0.03416
0.11712,-0.02196,-0.0732,-0.13176,-0.19032,0.15372,-0.08296,-0.16104,-0.22936,-0.15616,-0.05856,-0.03904
0.08296,-0.00976,-0.06344,-0.10492,-0.1464,0.11468,-0.03416,-0.0976,-0.1464,-0.10248,-0.03416,-0.03416
0.04392,-0.00976,-0.0244,-0.04636,-0.06832,0.05612,-0.0244,-0.07808,-0.08784,-0.08784,-0.03416,-0.0488
0.00488,0.00488,-0.01464,-0.01708,-0.01952,0.0122,0.01952,-0.05368,-0.04392,-0.05856,-0.02928,-0.05368
-0.01952,0.02196,-0.0244,-0.01464,-0.00488,-0.00732,0.02928,-0.0488,-0.0244,-0.05368,-0.03416,-0.04392
-0.01952,0.02196,-0.0244,-0.01464,-0.00488,-0.00732,0.03416,-0.0488,-0.01952,-0.0488,-0.03416,-0.05368
-0.00976,0.02196,-0.03416,-0.02928,-0.0244,0.00732,0.03904,-0.03904,-0.00976,-0.04392,-0.02928,-0.04392
-0.01464,0.0244,-0.03416,-0.02684,-0.01952,0.00244,0.03904,-0.03904,-0.00488,-0.04392,-0.02928,-0.05368
-0.02928,0.03172,-0.03416,-0.01952,-0.00488,-0.0122,0.03416,-0.04392,-0.00488,-0.05368,-0.03904,-0.05368
-0.04392,0.0366,-0.02928,-0.00732,0.01464,-0.02928,0.03416,-0.04392,-0.01464,-0.06344,-0.0488,-0.05856
-0.0488,0.03904,-0.02928,-0.00488,0.01952,-0.03416,0.04392,-0.03904,-0.00976,-0.05368,-0.03904,-0.05368
-0.05368,0.04148,-0.02928,-0.00244,0.0244,-0.03904,0.04392,-0.03904,-0.00488,-0.0488,-0.03904,-0.0488
-0.03904,0.02928,-0.01952,0,0.01952,-0.02928,0.03904,-0.0488,-0.01464,-0.05856,-0.04392,-0.06832
-0.03904,0.03172,-0.0244,-0.00488,0.01464,-0.02684,0.04392,-0.0488,-0.01464,-0.0488,-0.03904,-0.06344
-0.03904,0.0244,-0.00976,0.00976,0.02928,-0.03416,0.0488,-0.05856,-0.01464,-0.05368,-0.0488,-0.06832
-0.02928,0.01952,-0.00976,0.00488,0.01952,-0.0244,0.0488,-0.05856,-0.00976,-0.05368,-0.04392,-0.06832
-0.05368,0.03416,-0.01464,0.0122,0.03904,-0.04636,0.05856,-0.0488,0,-0.04392,-0.03416,-0.05856
-0.06344,0.03416,-0.00488,0.02684,0.05856,-0.061,0.06344,-0.03904,0,-0.04392,-0.03416,-0.05368
-0.05856,0.02684,0.00488,0.03416,0.06344,-0.061,0.06344,-0.03904,0,-0.04392,-0.03416,-0.05368
-0.06344,0.0366,-0.00976,0.02196,0.05368,-0.05856,0.06344,-0.03416,0,-0.04392,-0.03416,-0.05368
-0.05368,0.03416,-0.01464,0.0122,0.03904,-0.04636,0.05368,-0.04392,-0.00488,-0.03904,-0.02928,-0.05368
-0.04392,0.03416,-0.0244,-0.00244,0.01952,-0.03172,0.05368,-0.0488,-0.01464,-0.0488,-0.03904,-0.05856
-0.03416,0.03172,-0.02928,-0.0122,0.00488,-0.01952,0.04392,-0.05368,-0.01952,-0.05856,-0.0488,-0.05856
-0.04392,0.04148,-0.03904,-0.01708,0.00488,-0.0244,0.04392,-0.0488,-0.01952,-0.05368,-0.04392,-0.05856
-0.05856,0.05612,-0.05368,-0.0244,0.00488,-0.03172,0.05856,-0.0488,-0.00976,-0.05368,-0.04392,-0.06344
-0.05856,0.05612,-0.05368,-0.0244,0.00488,-0.03172,0.05856,-0.0488,-0.00976,-0.05856,-0.04392,-0.06832
-0.06344,0.05368,-0.04392,-0.0122,0.01952,-0.04148,0.05368,-0.0488,-0.01952,-0.05856,-0.05856,-0.06832
-0.06832,0.05368,-0.03904,-0.00488,0.02928,-0.0488,0.05368,-0.04392,-0.01464,-0.05368,-0.05368,-0.06832
-0.06344,0.0366,-0.00976,0.02196,0.05368,-0.05856,0.04392,-0.05856,-0.02928,-0.06832,-0.06832,-0.07808
-0.05856,0.01708,0.0244,0.05368,0.08296,-0.07076,0.03416,-0.06344,-0.04392,-0.08296,-0.0732,-0.09272
-0.06344,0.0488,-0.03416,-0.00244,0.02928,-0.04636,0.05856,-0.04392,-0.01952,-0.05856,-0.0488,-0.06832
-0.06344,0.06832,-0.0732,-0.04148,-0.00976,-0.02684,0.06832,-0.03416,0,-0.04392,-0.03904,-0.05856
-0.05856,0.0488,-0.03904,-0.00976,0.01952,-0.03904,0.05856,-0.04392,-0.00488,-0.03904,-0.03904,-0.05856
-0.05856,0.04636,-0.03416,-0.00488,0.0244,-0.04148,0.05856,-0.04392,0,-0.03904,-0.03904,-0.05856
-0.06344,0.0488,-0.03416,-0.00244,0.02928,-0.04636,0.06832,-0.04392,-0.01464,-0.05368,-0.0488,-0.0488
-0.06344,0.0488,-0.03416,-0.00244,0.02928,-0.04636,0.06344,-0.04392,-0.01952,-0.05368,-0.05368,-0.0488
-0.06344,0.03904,-0.01464,0.01708,0.0488,-0.05612,0.0488,-0.05368,-0.03416,-0.0732,-0.06344,-0.04392
-0.05856,0.04148,-0.0244,0.00488,0.03416,-0.04636,0.0488,-0.05368,-0.02928,-0.08296,-0.05856,-0.04392
-0.06832,0.05124,-0.03416,0,0.03416,-0.05124,0.0488,-0.05856,-0.02928,-0.07808,-0.05368,-0.04392
-0.0732,0.0488,-0.0244,0.0122,0.0488,-0.061,0.05368,-0.05856,-0.0244,-0.07808,-0.05856,-0.05368
-0.06832,0.0488,-0.02928,0.00488,0.03904,-0.05368,0.0488,-0.05368,-0.01464,-0.06344,-0.05368,-0.05856
-0.05856,0.0488,-0.03904,-0.00976,0.01952,-0.03904,0.0488,-0.05368,-0.01464,-0.06344,-0.05368,-0.05368
-0.06344,0.05612,-0.0488,-0.01708,0.01464,-0.03904,0.0488,-0.0488,-0.01952,-0.05856,-0.0488,-0.05368
-0.06344,0.05612,-0.0488,-0.01708,0.01464,-0.03904,0.04392,-0.0488,-0.01952,-0.05856,-0.0488,-0.05368
-0.06832,0.0488,-0.02928,0.00488,0.03904,-0.05368,0.05368,-0.03416,-0.01464,-0.05856,-0.04392,-0.05368
-0.06832,0.05124,-0.03416,0,0.03416,-0.05124,0.05368,-0.03416,-0.01464,-0.05368,-0.04392,-0.0488
-0.05368,0.0366,-0.01952,0.00732,0.03416,-0.04392,0.0488,-0.02928,-0.00976,-0.05368,-0.03904,-0.0488
-0.04392,0.0244,-0.00488,0.01708,0.03904,-0.04148,0.04392,-0.0244,-0.00488,-0.0488,-0.03904,-0.0488
-0.03416,0.0244,-0.01464,0.00244,0.01952,-0.02684,0.05368,-0.0244,0.00488,-0.04392,-0.03416,-0.03416
-0.02928,0.02196,-0.01464,0,0.01464,-0.02196,0.04392,-0.0244,0,-0.04392,-0.03416,-0.03416
-0.01952,0.01464,-0.00976,0,0.00976,-0.01464,0.03904,-0.02928,0.00488,-0.04392,-0.03416,-0.04392
-0.01952,0.0122,-0.00488,0.00488,0.01464,-0.01708,0.04392,-0.01952,0.00488,-0.03416,-0.02928,-0.03904
-0.0244,0.00488,0.01464,0.02684,0.03904,-0.03172,0.04392,-0.01952,0.00976,-0.03416,-0.0244,-0.02928
-0.01952,0.00244,0.01464,0.0244,0.03416,-0.02684,0.03904,-0.01464,0.00976,-0.02928,-0.01464,-0.02928
-0.00488,0.00488,-0.00488,-0.00244,0,-0.00244,0.04392,0.00488,0.02928,-0.00976,-0.00488,-0.01952
0,-0.0122,0.0244,0.0244,0.0244,-0.0122,0.03904,0.00488,0.02928,-0.00976,0,-0.01464
0.00976,-0.0122,0.01464,0.00976,0.00488,0.00244,0.02928,0.01952,0.03416,0,0.01952,0.00488
0.00488,-0.00976,0.01464,0.0122,0.00976,-0.00244,0.0244,0.02928,0.03416,0.00488,0.01952,0.00488
0,-0.0366,0.0732,0.0732,0.0732,-0.0366,0.00488,0.01952,0.0244,0,0.00976,0
0.00976,-0.0488,0.08784,0.08296,0.07808,-0.03416,0.00488,0.01464,0.02928,0.00488,0.01464,0.00976
0.00488,-0.02928,0.05368,0.05124,0.0488,-0.02196,0.00488,0.02928,0.04392,0.0244,0.03416,0.0244
0.00976,-0.02196,0.03416,0.02928,0.0244,-0.00732,0.01464,0.0488,0.05368,0.03416,0.0488,0.03904
0.00976,-0.02684,0.04392,0.03904,0.03416,-0.0122,0.01464,0.06344,0.06832,0.04392,0.05856,0.05368
0,-0.03172,0.06344,0.06344,0.06344,-0.03172,0.00488,0.06344,0.0732,0.0488,0.06344,0.05368
0.0488,-0.06588,0.08296,0.05856,0.03416,0.00732,-0.01464,0.04392,0.0488,0.03904,0.04392,0.03904
0.07808,-0.07564,0.0732,0.03416,-0.00488,0.04148,-0.00976,0.03904,0.03904,0.02928,0.03904,0.02928
0.09272,-0.08296,0.0732,0.02684,-0.01952,0.05612,-0.01464,0.05368,0.05368,0.04392,0.04392,0.0488
0.0976,-0.08784,0.07808,0.02928,-0.01952,0.05856,-0.01464,0.06344,0.05856,0.05856,0.0488,0.0488
0.08784,-0.08784,0.08784,0.04392,0,0.04392,-0.0244,0.05368,0.0488,0.06344,0.06344,0.05856
0.08784,-0.09272,0.0976,0.05368,0.00976,0.03904,-0.0244,0.05856,0.05368,0.06344,0.06832,0.06344
0.10248,-0.08784,0.0732,0.02196,-0.02928,0.06588,-0.01464,0.0732,0.06344,0.06832,0.06832,0.07808
0.10248,-0.0854,0.06832,0.01708,-0.03416,0.06832,-0.01952,0.0732,0.06344,0.06832,0.0732,0.07808
0.09272,-0.09272,0.09272,0.04636,0,0.04636,-0.02928,0.0732,0.05368,0.06832,0.0732,0.0732
0.08784,-0.0976,0.10736,0.06344,0.01952,0.03416,-0.03416,0.06344,0.05368,0.06344,0.06832,0.0732
0.08296,-0.08784,0.09272,0.05124,0.00976,0.0366,-0.01952,0.0732,0.06344,0.08296,0.0732,0.07808
0.08784,-0.08296,0.07808,0.03416,-0.00976,0.0488,-0.01464,0.08296,0.0732,0.08296,0.0732,0.07808
0.0976,-0.09028,0.08296,0.03416,-0.01464,0.05612,-0.01464,0.07808,0.0732,0.0732,0.0732,0.06832
0.0976,-0.09028,0.08296,0.03416,-0.01464,0.05612,-0.01464,0.07808,0.06832,0.06832,0.06832,0.06832
0.10736,-0.10004,0.09272,0.03904,-0.01464,0.061,-0.00488,0.06832,0.0732,0.06832,0.06832,0.05856
0.10736,-0.11224,0.11712,0.06344,0.00976,0.0488,-0.00488,0.05856,0.0732,0.06832,0.06344,0.05368
0.08784,-0.10004,0.11224,0.06832,0.0244,0.03172,-0.00976,0.0488,0.05856,0.0488,0.05368,0.05856
0.0732,-0.08784,0.10248,0.06588,0.02928,0.02196,-0.00488,0.03904,0.05368,0.0488,0.05368,0.05368
0.0732,-0.08784,0.10248,0.06588,0.02928,0.02196,0.00976,0.04392,0.05368,0.0488,0.05856,0.06344
0.05856,-0.08052,0.10248,0.0732,0.04392,0.00732,0.01464,0.05368,0.05368,0.0488,0.05856,0.05856
0.05368,-0.06832,0.08296,0.05612,0.02928,0.0122,0.00488,0.03416,0.0488,0.0488,0.03904,0.04392
0.04392,-0.05368,0.06344,0.04148,0.01952,0.0122,0.00976,0.02928,0.04392,0.03416,0.03416,0.02928
0.05368,-0.05612,0.05856,0.03172,0.00488,0.0244,0.01464,0.03416,0.0488,0.03904,0.03904,0.03416
0.05856,-0.05124,0.04392,0.01464,-0.01464,0.0366,0.01952,0.02928,0.04392,0.03904,0.03416,0.02928
0.0488,-0.05124,0.05368,0.02928,0.00488,0.02196,0.00976,0.01464,0.03416,0.01952,0.01952,0.01952
0.04392,-0.05124,0.05856,0.0366,0.01464,0.01464,0,0.01464,0.0244,0.00488,0.00976,0.01952
0.05368,-0.05856,0.06344,0.0366,0.00976,0.02196,0,0.00488,0.01952,0,0.00976,0.01952
0.04392,-0.05368,0.06344,0.04148,0.01952,0.0122,0,0,0.01464,0,0.00976,0.0244
0.03416,-0.04392,0.05368,0.0366,0.01952,0.00732,0.00488,0.00488,0.01464,0,0.00488,0.0244
0.03416,-0.03904,0.04392,0.02684,0.00976,0.0122,0.00488,0.00488,0.00976,0,0.00488,0.0244
0.03416,-0.03904,0.04392,0.02684,0.00976,0.0122,0.01952,0.00488,0.00976,0.00976,0.00976,0.0244
0.02928,-0.04148,0.05368,0.03904,0.0244,0.00244,0.01464,0.00976,0.00488,-0.00488,0.00488,0.01464
0.02928,-0.0366,0.04392,0.02928,0.01464,0.00732,0.01464,0,0.00488,-0.01464,0.00488,0.00976
0.01952,-0.02196,0.0244,0.01464,0.00488,0.00732,0.01464,0,0.00488,-0.00976,0.00488,0.00488
0.01952,-0.02196,0.0244,0.01464,0.00488,0.00732,0.01464,-0.00976,0.00488,-0.00976,0.00488,0
0.01464,-0.01952,0.0244,0.01708,0.00976,0.00244,0.01464,-0.00488,0,-0.01952,-0.00488,-0.00488
0.01464,-0.03904,0.06344,0.05612,0.0488,-0.01708,0.00488,-0.01464,0.00488,-0.01464,-0.00976,-0.00488
0.0244,-0.0366,0.0488,0.0366,0.0244,0,0.00976,-0.01464,0.00488,-0.01464,-0.00976,-0.00976
0.01464,-0.02196,0.02928,0.02196,0.01464,0,0.01952,-0.00488,0.01464,-0.00488,0.00488,0.00488
0.00976,-0.01708,0.0244,0.01952,0.01464,-0.00244,0.01464,0.00488,0.01464,-0.00488,0,0
0,-0.01952,0.03904,0.03904,0.03904,-0.01952,0.00976,-0.00488,0,-0.01464,-0.00976,-0.00976
-0.00976,-0.00488,0.01952,0.0244,0.02928,-0.01952,0.00976,-0.01464,0,-0.01464,-0.00976,-0.00976
0.00976,-0.00488,0,-0.00488,-0.00976,0.00976,0.0244,-0.00488,0.01464,0,0.00488,0.00488
0.03416,-0.02684,0.01952,0.00244,-0.01464,0.0244,0.0244,0.00488,0.02928,0.00488,0.01464,0.00976
0.01952,-0.02684,0.03416,0.0244,0.01464,0.00244,0.01464,-0.00976,0.01952,-0.00976,0.00488,-0.00488
0.0244,-0.0488,0.0732,0.061,0.0488,-0.0122,0.01464,-0.00488,0.01952,-0.00976,0.00488,-0.00488
0.01464,-0.03172,0.0488,0.04148,0.03416,-0.00976,0.0244,0.00488,0.03416,0.00488,0.01952,-0.00488
0.01464,-0.0244,0.03416,0.02684,0.01952,-0.00244,0.0244,0.01464,0.03904,0.01464,0.01464,-0.00488
0.01952,-0.04392,0.06832,0.05856,0.0488,-0.01464,0.01464,-0.00488,0.02928,0.00488,0,-0.01952
0.01464,-0.0488,0.08296,0.07564,0.06832,-0.02684,0.00488,-0.01952,0.01952,-0.00488,-0.00488,-0.01952
0.01952,-0.04148,0.06344,0.05368,0.04392,-0.0122,0.01464,-0.00488,0.02928,0.00488,0.00488,-0.01464
0.0244,-0.04148,0.05856,0.04636,0.03416,-0.00488,0.01464,0.00976,0.03904,0.00976,0.00976,-0.00976
0.00976,-0.03904,0.06832,0.06344,0.05856,-0.0244,0.01464,0.00976,0.03904,0.00976,0.00976,-0.01952
-0.00488,-0.02928,0.06344,0.06588,0.06832,-0.0366,0.01464,0.01464,0.03904,0.01464,0.01464,-0.01952
-0.00488,-0.01464,0.03416,0.0366,0.03904,-0.02196,0.01464,0.00488,0.03904,0.01464,0.00488,-0.02928
0,-0.0122,0.0244,0.0244,0.0244,-0.0122,0.00976,0.00488,0.03416,0.01464,0,-0.03416
0.01464,-0.02928,0.04392,0.0366,0.02928,-0.00732,0.00488,0.00976,0.03416,0.00976,0,-0.03416
0.02928,-0.0366,0.04392,0.02928,0.01464,0.00732,0.00976,0.00976,0.03904,0.01464,0.00488,-0.02928
0.03904,-0.0488,0.05856,0.03904,0.01952,0.00976,0.00976,0.00976,0.02928,0.00488,0.00488,-0.0244
0.05368,-0.061,0.06832,0.04148,0.01464,0.01952,0.00976,0.00488,0.0244,0.00488,0.00488,-0.01464
0.0244,-0.05612,0.08784,0.07564,0.06344,-0.01952,0.00488,0,0.01464,-0.00976,-0.00488,-0.0244
0.01952,-0.03904,0.05856,0.0488,0.03904,-0.00976,0.00976,0.00488,0.0244,-0.00488,0,-0.02928
0.0244,-0.04148,0.05856,0.04636,0.03416,-0.00488,0.01952,0.00976,0.0244,0,0.00976,-0.0244
0.0244,-0.02196,0.01952,0.00732,-0.00488,0.01464,0.0244,0.01464,0.03904,0,0.00976,-0.01464
0.00976,-0.00488,0,-0.00488,-0.00976,0.00976,0.03416,0.0244,0.0488,0.01464,0.01952,-0.01464
0.00488,0.00488,-0.01464,-0.01708,-0.01952,0.0122,0.03416,0.0244,0.0488,0.01464,0.01952,-0.00976
0.00488,-0.00732,0.00976,0.00732,0.00488,0,0.0244,0.01464,0.03904,0.00976,0.00976,-0.01952
-0.00488,-0.00244,0.00976,0.0122,0.01464,-0.00976,0.01952,0.00976,0.03904,0.00488,0.00488,-0.0244
0,0,0,0,0,0,0.00976,0.00976,0.03904,0.01464,0.01464,-0.0244
-0.00976,-0.00244,0.01464,0.01952,0.0244,-0.01708,0.00976,0.00976,0.03904,0.01464,0.01464,-0.0244
-0.00488,-0.00488,0.01464,0.01708,0.01952,-0.0122,0.00976,0.01952,0.03904,0.01952,0.01464,-0.03416
0.00488,-0.00976,0.01464,0.0122,0.00976,-0.00244,0.01464,0.01952,0.03904,0.01952,0.01464,-0.03416
0,-0.0122,0.0244,0.0244,0.0244,-0.0122,0.0244,0.01952,0.0488,0.01952,0.01464,-0.03904
-0.00976,-0.01464,0.03904,0.04392,0.0488,-0.02928,0.0244,0.01952,0.0488,0.01952,0.01464,-0.03416
0,-0.02196,0.04392,0.04392,0.04392,-0.02196,0.01464,0.00976,0.03904,0.00488,0.00488,-0.03416
0,-0.01952,0.03904,0.03904,0.03904,-0.01952,0.01464,0,0.0244,0,-0.00976,-0.03416
0.00976,-0.01464,0.01952,0.01464,0.00976,0,0.01464,0.00488,0.0244,0,-0.00488,-0.03904
0.01464,-0.00976,0.00488,-0.00244,-0.00976,0.0122,0.01464,0.00488,0.0244,0,0,-0.03904
0.00488,-0.00488,0.00488,0.00244,0,0.00244,0.00976,0,0.0244,-0.00976,-0.01464,-0.04392
-0.00488,0.00732,-0.00976,-0.00732,-0.00488,0,0.01952,0.00488,0.03416,-0.00488,0,-0.03904
-0.00488,0,0.00488,0.00732,0.00976,-0.00732,0.02928,0.00488,0.03416,0,-0.00976,-0.03904
0,-0.00732,0.01464,0.01464,0.01464,-0.00732,0.02928,-0.00488,0.02928,-0.00976,-0.00976,-0.04392
-0.01464,-0.00732,0.02928,0.0366,0.04392,-0.02928,0.03416,0.00488,0.0244,0,-0.00976,-0.0488
-0.03416,0.00488,0.0244,0.04148,0.05856,-0.04636,0.03904,0.00488,0.02928,0,-0.00488,-0.04392
-0.01464,-0.00488,0.0244,0.03172,0.03904,-0.02684,0.02928,0,0.01952,-0.00976,-0.01464,-0.05368
-0.00976,-0.01464,0.03904,0.04392,0.0488,-0.02928,0.03416,-0.00976,0.01464,-0.00488,-0.01464,-0.05368
0,-0.00732,0.01464,0.01464,0.01464,-0.00732,0.04392,-0.00488,0.0244,0.00488,-0.00488,-0.04392
0,-0.00488,0.00976,0.00976,0.00976,-0.00488,0.03416,-0.00488,0.01952,0,-0.00976,-0.04392
0.00976,-0.00244,-0.00488,-0.00976,-0.01464,0.0122,0.03904,-0.00488,0.02928,0,-0.00488,-0.03416
0.01952,-0.0244,0.02928,0.01952,0.00976,0.00488,0.01952,-0.00976,0.01952,0,0,-0.03904
0.01952,-0.02928,0.03904,0.02928,0.01952,0,0.01952,-0.00976,0.01952,-0.00976,-0.00976,-0.03904
0.01952,-0.02928,0.03904,0.02928,0.01952,0,0.01952,-0.00976,0.01952,-0.00976,-0.00976,-0.03904
0.00976,-0.0366,0.06344,0.05856,0.05368,-0.02196,0.02928,0,0.03904,0.00976,0.00488,-0.0244
0.01952,-0.03416,0.0488,0.03904,0.02928,-0.00488,0.02928,0.01464,0.0488,0.01952,0.00976,-0.01464
0.01464,-0.04148,0.06832,0.061,0.05368,-0.01952,0.01464,0.00976,0.05368,0.01952,0.00976,-0.01464
0.0244,-0.05612,0.08784,0.07564,0.06344,-0.01952,0.00976,0.00976,0.0488,0.01952,0.00976,-0.01464
0.03416,-0.04636,0.05856,0.04148,0.0244,0.00488,0.01952,0.03416,0.06344,0.02928,0.03416,0.00488
0.0488,-0.05368,0.05856,0.03416,0.00976,0.01952,0.03416,0.0488,0.08296,0.05368,0.05368,0.0244
0.01952,-0.05368,0.08784,0.07808,0.06832,-0.0244,0.03416,0.03416,0.0732,0.0488,0.04392,0.01464
0.0244,-0.05612,0.08784,0.07564,0.06344,-0.01952,0.0244,0.03416,0.06832,0.04392,0.0488,0.01952
0.0244,-0.05124,0.07808,0.06588,0.05368,-0.01464,0.00976,0.03416,0.06344,0.0488,0.0488,0.0244
0.02928,-0.0488,0.06832,0.05368,0.03904,-0.00488,0,0.03416,0.05856,0.04392,0.0488,0.01952
0.05368,-0.06588,0.07808,0.05124,0.0244,0.01464,-0.01464,0.02928,0.0488,0.03904,0.04392,0.01952
0.06832,-0.0732,0.07808,0.04392,0.00976,0.02928,-0.0244,0.01464,0.03904,0.02928,0.02928,0.01952
0.07808,-0.061,0.04392,0.00488,-0.03416,0.05612,-0.04392,0.00976,0.0244,0.00976,0.01952,0.01464
0.08296,-0.0732,0.06344,0.02196,-0.01952,0.05124,-0.03904,0.00488,0.0244,0.01464,0.0244,0.01952
0.08296,-0.08296,0.08296,0.04148,0,0.04148,-0.0488,0,0.02928,0.00976,0.0244,0.00976
0.0732,-0.06344,0.05368,0.01708,-0.01952,0.04636,-0.04392,-0.00488,0.00488,-0.00488,0.01464,0.00488
0.05856,-0.0488,0.03904,0.00976,-0.01952,0.03904,-0.02928,-0.01464,0,-0.00976,0,-0.00976
0.04392,-0.03416,0.0244,0.00244,-0.01952,0.03172,-0.00488,-0.00488,0.00976,-0.00976,0.00488,-0.00488
0.02928,-0.03416,0.03904,0.0244,0.00976,0.00976,0.00488,0.00488,0.0244,0.00488,0.00488,0
0.0244,-0.02684,0.02928,0.01708,0.00488,0.00976,0.00488,0,0.01464,-0.00976,0,-0.00488
0.0244,-0.02196,0.01952,0.00732,-0.00488,0.01464,-0.00976,0,0,-0.01952,0,-0.01952
0.01952,-0.01464,0.00976,0,-0.00976,0.01464,-0.00488,0.00488,0,-0.01464,0,-0.01952
0.01464,-0.01952,0.0244,0.01708,0.00976,0.00244,-0.01464,-0.01464,-0.00976,-0.0244,-0.00976,-0.02928
0.00976,-0.01952,0.02928,0.0244,0.01952,-0.00488,0,-0.0244,-0.00488,-0.01952,-0.01952,-0.04392
-0.00976,-0.01708,0.04392,0.0488,0.05368,-0.03172,0,-0.03904,-0.01952,-0.03416,-0.03904,-0.0488
-0.00976,-0.01464,0.03904,0.04392,0.0488,-0.02928,0.00488,-0.03904,-0.01952,-0.03416,-0.04392,-0.05856
-0.00976,0.01464,-0.01952,-0.01464,-0.00976,0,0.02928,-0.01952,0,-0.0244,-0.0244,-0.03416
-0.0244,0.05612,-0.08784,-0.07564,-0.06344,0.01952,0.06344,-0.00488,0.01464,-0.00976,-0.01464,-0.00976
-0.00976,0.03172,-0.05368,-0.0488,-0.04392,0.01708,0.05368,-0.01464,0.00488,-0.02928,-0.0244,-0.0244
-0.01464,0.0244,-0.03416,-0.02684,-0.01952,0.00244,0.04392,-0.01464,-0.00976,-0.03416,-0.02928,-0.01952
-0.02928,0.02196,-0.01464,0,0.01464,-0.02196,0.03904,-0.01952,-0.00488,-0.03904,-0.03904,-0.03416
-0.03416,0.02928,-0.0244,-0.00732,0.00976,-0.02196,0.03904,-0.01952,-0.00488,-0.04392,-0.03904,-0.03416
-0.03904,0.01708,0.00488,0.0244,0.04392,-0.04148,0.02928,-0.03904,-0.0244,-0.0488,-0.0488,-0.04392
-0.05368,0.03904,-0.0244,0.00244,0.02928,-0.04148,0.03416,-0.03416,-0.01952,-0.04392,-0.04392,-0.03904
-0.05368,0.03904,-0.0244,0.00244,0.02928,-0.04148,0.04392,-0.03416,-0.00976,-0.04392,-0.03904,-0.03904
-0.0488,0.0366,-0.0244,0,0.0244,-0.0366,0.04392,-0.04392,-0.00976,-0.0488,-0.03904,-0.0488
-0.05856,0.04148,-0.0244,0.00488,0.03416,-0.04636,0.04392,-0.0244,-0.00976,-0.03416,-0.03904,-0.04392
-0.05856,0.04392,-0.02928,0,0.02928,-0.04392,0.04392,-0.0244,-0.00488,-0.03416,-0.03416,-0.04392
-0.05368,0.04148,-0.02928,-0.00244,0.0244,-0.03904,0.04392,-0.0244,-0.00488,-0.02928,-0.03416,-0.03416
-0.04392,0.03416,-0.0244,-0.00244,0.01952,-0.03172,0.04392,-0.0244,-0.00488,-0.02928,-0.03416,-0.03904
-0.04392,0.03172,-0.01952,0.00244,0.0244,-0.03416,0.0488,-0.01952,0.00488,-0.0244,-0.02928,-0.02928
-0.0488,0.04392,-0.03904,-0.01464,0.00976,-0.02928,0.05368,-0.00976,0.00976,-0.01952,-0.02928,-0.02928
-0.0244,0.01708,-0.00976,0.00244,0.01464,-0.01952,0.03904,-0.02928,0,-0.03904,-0.04392,-0.0488
-0.05368,0.0122,0.02928,0.05612,0.08296,-0.06832,0.06344,-0.04392,0.00488,-0.06344,-0.0732,-0.0732
-0.0976,0.0732,-0.0488,0,0.0488,-0.0732,0.13176,0.00488,0.0732,-0.01952,-0.05368,-0.06344
-0.0976,0.05612,-0.01464,0.03416,0.08296,-0.09028,0.1464,0.03904,0.11712,0.00976,-0.04392,-0.05368
-0.08784,0.04148,0.00488,0.0488,0.09272,-0.09028,0.15616,0.12688,0.20008,0.10248,0.0244,-0.00976
-0.00976,-0.04148,0.09272,0.0976,0.10248,-0.05612,0.13664,0.23424,0.28792,0.22448,0.12688,0.0732
0.16104,-0.17812,0.1952,0.11468,0.03416,0.06344,0.03416,0.34648,0.33184,0.35136,0.25376,0.16592
0.42944,-0.37576,0.32208,0.10736,-0.10736,0.2684,-0.11224,0.488,0.3416,0.5124,0.4148,0.3172
0.71736,-0.58316,0.44896,0.09028,-0.2684,0.49288,-0.2928,0.60024,0.32696,0.64904,0.56608,0.44896
0.9028,-0.71248,0.52216,0.07076,-0.38064,0.64172,-0.49288,0.61,0.23424,0.72224,0.67832,0.5612
0.98088,-0.73688,0.49288,0.00244,-0.488,0.73444,-0.60512,0.55632,0.08784,0.63928,0.65392,0.57096
0.89792,-0.5734,0.24888,-0.20008,-0.64904,0.77348,-0.58072,0.35624,-0.19032,0.28304,0.38064,0.37088
0.66368,-0.34648,0.02928,-0.30256,-0.6344,0.64904,-0.5124,-0.01952,-0.45384,-0.0732,0.12688,0.19032
0.40016,-0.13664,-0.12688,-0.32696,-0.52704,0.4636,-0.44408,-0.488,-0.66368,-0.33184,-0.05368,0.06832
0.24888,-0.0366,-0.17568,-0.30012,-0.42456,0.33672,-0.366,-0.61976,-0.72224,-0.44408,-0.1464,-0.00488
0.20008,-0.01464,-0.1708,-0.27084,-0.37088,0.28548,-0.2684,-0.488,-0.59536,-0.38064,-0.1464,-0.01952
0.14152,0.00732,-0.15616,-0.22692,-0.29768,0.2196,-0.16104,-0.33184,-0.42944,-0.2928,-0.10736,-0.00488
0.0976,-0.00488,-0.08784,-0.13664,-0.18544,0.14152,-0.0976,-0.23912,-0.3172,-0.22448,-0.09272,-0.01464
0.06344,0,-0.06344,-0.09516,-0.12688,0.09516,-0.06832,-0.15616,-0.21472,-0.16592,-0.06832,-0.00976
0.03416,0.00976,-0.05368,-0.07076,-0.08784,0.061,-0.02928,-0.11224,-0.16104,-0.13664,-0.07808,-0.0244
0.01464,0.02196,-0.05856,-0.06588,-0.0732,0.04392,0.00488,-0.0732,-0.08296,-0.0732,-0.04392,-0.01464
-0.01952,0.02928,-0.03904,-0.02928,-0.01952,0,0.01464,-0.06832,-0.06832,-0.0732,-0.03904,-0.01952
-0.02928,0.02928,-0.02928,-0.01464,0,-0.01464,0.01952,-0.06832,-0.0488,-0.06832,-0.0488,-0.01952
-0.03904,0.03172,-0.0244,-0.00488,0.01464,-0.02684,0.0244,-0.06832,-0.03904,-0.05368,-0.0488,-0.0244
-0.03904,0.03172,-0.0244,-0.00488,0.01464,-0.02684,0.03416,-0.06832,-0.03416,-0.05368,-0.0488,-0.0244
-0.05856,0.04636,-0.03416,-0.00488,0.0244,-0.04148,0.05368,-0.05368,-0.01952,-0.04392,-0.03904,-0.0244
-0.0732,0.06832,-0.06344,-0.02684,0.00976,-0.04148,0.05368,-0.05368,-0.01464,-0.04392,-0.03904,-0.02928
-0.0732,0.06588,-0.05856,-0.02196,0.01464,-0.04392,0.05368,-0.05368,-0.01464,-0.04392,-0.03904,-0.0244
-0.08784,0.0732,-0.05856,-0.01464,0.02928,-0.05856,0.0488,-0.0488,-0.00976,-0.03904,-0.03904,-0.0244
-0.07808,0.06832,-0.05856,-0.01952,0.01952,-0.0488,0.0488,-0.03904,-0.00488,-0.03904,-0.02928,-0.01952
-0.05856,0.05368,-0.0488,-0.01952,0.00976,-0.03416,0.05368,-0.03904,-0.00488,-0.0488,-0.03416,-0.02928
-0.05856,0.05612,-0.05368,-0.0244,0.00488,-0.03172,0.05856,-0.04392,-0.00488,-0.03904,-0.03904,-0.02928
-0.05856,0.05368,-0.0488,-0.01952,0.00976,-0.03416,0.05856,-0.05368,-0.01464,-0.04392,-0.0488,-0.04392
-0.06832,0.06344,-0.05856,-0.0244,0.00976,-0.03904,0.06832,-0.05856,-0.00976,-0.04392,-0.04392,-0.03904
-0.0732,0.061,-0.0488,-0.0122,0.0244,-0.0488,0.06832,-0.05856,-0.00976,-0.04392,-0.04392,-0.03416
-0.07808,0.05368,-0.02928,0.00976,0.0488,-0.06344,0.06832,-0.06344,-0.0244,-0.05856,-0.0488,-0.04392
-0.08296,0.05612,-0.02928,0.0122,0.05368,-0.06832,0.05856,-0.0732,-0.03416,-0.06832,-0.05856,-0.04392
-0.0732,0.04636,-0.01952,0.01708,0.05368,-0.06344,0.05856,-0.06832,-0.0244,-0.05856,-0.05368,-0.03904
-0.05368,0.03416,-0.01464,0.0122,0.03904,-0.04636,0.06832,-0.05856,-0.03416,-0.06344,-0.05368,-0.03416
-0.05368,0.02928,-0.00488,0.02196,0.0488,-0.05124,0.06344,-0.05856,-0.01952,-0.05856,-0.0488,-0.03904
-0.05856,0.02928,0,0.02928,0.05856,-0.05856,0.06344,-0.06344,-0.01952,-0.05368,-0.0488,-0.03904
-0.0732,0.03904,-0.00488,0.03172,0.06832,-0.07076,0.06832,-0.0488,-0.00976,-0.04392,-0.04392,-0.0244
-0.07808,0.0488,-0.01952,0.01952,0.05856,-0.06832,0.08296,-0.0488,-0.00976,-0.0488,-0.04392,-0.02928
-0.05856,0.0488,-0.03904,-0.00976,0.01952,-0.03904,0.0976,-0.04392,0,-0.0488,-0.04392,-0.01464
-0.06832,0.07076,-0.0732,-0.03904,-0.00488,-0.03172,0.10248,-0.03416,0.00488,-0.04392,-0.02928,-0.00488
-0.05368,0.061,-0.06832,-0.04148,-0.01464,-0.01952,0.08784,-0.03904,0,-0.0488,-0.03904,-0.01464
-0.0488,0.03904,-0.02928,-0.00488,0.01952,-0.03416,0.07808,-0.05368,-0.01464,-0.06344,-0.05368,-0.02928
-0.05368,0.03172,-0.00976,0.01708,0.04392,-0.0488,0.05368,-0.06344,-0.0244,-0.06344,-0.05368,-0.04392
-0.05368,0.04392,-0.03416,-0.00732,0.01952,-0.0366,0.05856,-0.06344,-0.01952,-0.05856,-0.0488,-0.03904
-0.06344,0.04636,-0.02928,0.00244,0.03416,-0.0488,0.05856,-0.06344,-0.01464,-0.06344,-0.05856,-0.03904
-0.05856,0.04636,-0.03416,-0.00488,0.0244,-0.04148,0.05856,-0.06344,-0.00976,-0.05856,-0.05856,-0.03904
-0.06832,0.05612,-0.04392,-0.00976,0.0244,-0.04636,0.06832,-0.06344,-0.00976,-0.06344,-0.05856,-0.03904
-0.0732,0.05368,-0.03416,0.00244,0.03904,-0.05612,0.06832,-0.06344,-0.01464,-0.06344,-0.05856,-0.03904
-0.0732,0.04392,-0.01464,0.02196,0.05856,-0.06588,0.06832,-0.06344,-0.0244,-0.0732,-0.06344,-0.04392
-0.0732,0.0488,-0.0244,0.0122,0.0488,-0.061,0.06832,-0.06344,-0.01952,-0.0732,-0.05856,-0.04392
-0.06832,0.04636,-0.0244,0.00976,0.04392,-0.05612,0.05856,-0.06344,-0.01952,-0.0732,-0.05856,-0.0488
-0.06832,0.05612,-0.04392,-0.00976,0.0244,-0.04636,0.06344,-0.05856,-0.01464,-0.06832,-0.05368,-0.04392
-0.07808,0.05124,-0.0244,0.01464,0.05368,-0.06588,0.05368,-0.05856,-0.01464,-0.06832,-0.0488,-0.03904
-0.09272,0.07076,-0.0488,-0.00244,0.04392,-0.06832,0.06832,-0.05368,-0.00488,-0.05368,-0.04392,-0.03416
-0.11224,0.0854,-0.05856,-0.00244,0.05368,-0.08296,0.07808,-0.04392,0,-0.0488,-0.03904,-0.0244
-0.11712,0.07808,-0.03904,0.01952,0.07808,-0.0976,0.0732,-0.03904,0,-0.0488,-0.03904,-0.0244
-0.11224,0.0732,-0.03416,0.02196,0.07808,-0.09516,0.06344,-0.0488,-0.00488,-0.05856,-0.0488,-0.02928
-0.08784,0.05856,-0.02928,0.01464,0.05856,-0.0732,0.06344,-0.04392,-0.00488,-0.05368,-0.04392,-0.03904
-0.06832,0.05612,-0.04392,-0.00976,0.0244,-0.04636,0.05856,-0.05368,-0.00976,-0.05368,-0.05368,-0.03904
-0.05856,0.0488,-0.03904,-0.00976,0.01952,-0.03904,0.05856,-0.0488,-0.00976,-0.0488,-0.0488,-0.03904
-0.05368,0.0488,-0.04392,-0.01708,0.00976,-0.03172,0.06344,-0.03904,0,-0.04392,-0.03904,-0.0244
-0.0488,0.04636,-0.04392,-0.01952,0.00488,-0.02684,0.05856,-0.02928,0.00976,-0.04392,-0.02928,-0.0244
-0.03416,0.02928,-0.0244,-0.00732,0.00976,-0.02196,0.03904,-0.03416,0,-0.04392,-0.03416,-0.03416
-0.02928,0.01952,-0.00976,0.00488,0.01952,-0.0244,0.04392,-0.02928,0.00488,-0.03416,-0.02928,-0.02928
-0.03904,0.02684,-0.01464,0.00488,0.0244,-0.03172,0.04392,-0.01952,0.00976,-0.03416,-0.03416,-0.02928
-0.05368,0.02928,-0.00488,0.02196,0.0488,-0.05124,0.02928,-0.01464,0.00976,-0.02928,-0.02928,-0.02928
-0.06832,0.04392,-0.01952,0.01464,0.0488,-0.05856,0.03904,0.00488,0.01952,-0.00976,-0.01952,-0.02928
-0.05856,0.04148,-0.0244,0.00488,0.03416,-0.04636,0.04392,0.01464,0.02928,0.01464,0.00488,-0.01464
-0.02928,0.0122,0.00488,0.01952,0.03416,-0.03172,0.03904,0.01464,0.03904,0.0244,0.00976,-0.01952
0,-0.0122,0.0244,0.0244,0.0244,-0.0122,0.03904,0.0244,0.04392,0.03416,0.01952,-0.01464
0.0244,-0.0366,0.0488,0.0366,0.0244,0,0.02928,0.02928,0.04392,0.02928,0.01952,0
0.02928,-0.04636,0.06344,0.0488,0.03416,-0.00244,0.0244,0.02928,0.04392,0.02928,0.0244,0
0.02928,-0.04636,0.06344,0.0488,0.03416,-0.00244,0.0244,0.02928,0.0488,0.03904,0.02928,0.00976
0.03904,-0.05612,0.0732,0.05368,0.03416,0.00244,0.01464,0.03416,0.03904,0.02928,0.0244,0.01464
0.0488,-0.06344,0.07808,0.05368,0.02928,0.00976,0.00976,0.03416,0.03416,0.01952,0.0244,0.01952
0.05856,-0.07808,0.0976,0.06832,0.03904,0.00976,0,0.03416,0.0244,0.00976,0.01952,0.00976
0.06344,-0.08784,0.11224,0.08052,0.0488,0.00732,-0.01464,0.03416,0.0244,0.01952,0.0244,0.01952
0.0732,-0.09028,0.10736,0.07076,0.03416,0.01952,-0.0244,0.03416,0.01952,0.01952,0.0244,0.01952
0.05856,-0.07076,0.08296,0.05368,0.0244,0.01708,-0.00976,0.05368,0.02928,0.03904,0.03904,0.02928
0.06344,-0.06588,0.06832,0.0366,0.00488,0.02928,0.00488,0.06832,0.05368,0.05856,0.06344,0.04392
0.06832,-0.05856,0.0488,0.01464,-0.01952,0.04392,0.00488,0.0732,0.05856,0.05856,0.0732,0.03904
0.06832,-0.06344,0.05856,0.0244,-0.00976,0.03904,0.00488,0.07808,0.05856,0.06344,0.06832,0.04392
0.06832,-0.05612,0.04392,0.00976,-0.0244,0.04636,0.01464,0.08784,0.0732,0.0732,0.06832,0.05368
0.0732,-0.05124,0.02928,-0.00732,-0.04392,0.05856,0.01464,0.09272,0.0732,0.07808,0.0732,0.05856
0.0732,-0.06344,0.05368,0.01708,-0.01952,0.04636,0.00488,0.09272,0.0732,0.08784,0.0732,0.04392
0.0732,-0.0732,0.0732,0.0366,0,0.0366,-0.00976,0.09272,0.0732,0.08296,0.06832,0.04392
0.06832,-0.0732,0.07808,0.04392,0.00976,0.02928,-0.0244,0.08784,0.06344,0.0732,0.06832,0.03416
0.06344,-0.06832,0.0732,0.04148,0.00976,0.02684,-0.01464,0.08784,0.0732,0.08296,0.0732,0.03904
0.06832,-0.0732,0.07808,0.04392,0.00976,0.02928,-0.00488,0.08296,0.06344,0.0732,0.0732,0.04392
0.05856,-0.06344,0.06832,0.03904,0.00976,0.0244,-0.00488,0.07808,0.06344,0.0732,0.0732,0.03904
0.06344,-0.05612,0.0488,0.01708,-0.01464,0.03904,0,0.07808,0.05856,0.06832,0.06832,0.02928
0.05368,-0.04148,0.02928,0.00244,-0.0244,0.03904,0.00488,0.06832,0.06344,0.06832,0.06832,0.02928
0.05856,-0.05124,0.04392,0.01464,-0.01464,0.0366,-0.00488,0.06832,0.05856,0.06344,0.05856,0.0244
0.05368,-0.05856,0.06344,0.0366,0.00976,0.02196,0,0.06344,0.05368,0.05856,0.05368,0.01952
0.05368,-0.05368,0.05368,0.02684,0,0.02684,0.01464,0.05368,0.05368,0.0488,0.03904,0.00488
0.06344,-0.05124,0.03904,0.00732,-0.0244,0.04392,0.01952,0.05368,0.05368,0.03904,0.03904,0
0.03904,-0.0366,0.03416,0.01464,-0.00488,0.02196,0.01464,0.04392,0.05368,0.03904,0.02928,0
0.02928,-0.03172,0.03416,0.01952,0.00488,0.0122,0.01464,0.03416,0.04392,0.02928,0.01464,-0.00976
0.0244,-0.02684,0.02928,0.01708,0.00488,0.00976,0.02928,0.02928,0.04392,0.03904,0.02928,0
0.01952,-0.03172,0.04392,0.03416,0.0244,-0.00244,0.0244,0.03416,0.05368,0.03904,0.02928,0.00488
0.00976,-0.03172,0.05368,0.0488,0.04392,-0.01708,0.01952,0.0244,0.0488,0.03416,0.0244,0
-0.00488,-0.01952,0.04392,0.04636,0.0488,-0.02684,0.02928,0.0244,0.03904,0.0244,0.01464,0
0,-0.02196,0.04392,0.04392,0.04392,-0.02196,0.02928,0.01952,0.03904,0.0244,0.01952,0
0.01952,-0.02196,0.0244,0.01464,0.00488,0.00732,0.02928,0.01464,0.03416,0.01952,0.00976,-0.00976
0.00976,-0.01708,0.0244,0.01952,0.01464,-0.00244,0.03416,0.00976,0.03416,0.01952,0,-0.00488
0.00488,-0.01464,0.0244,0.02196,0.01952,-0.00732,0.03416,0.01464,0.03416,0.01952,0.00488,-0.00488
0,-0.00244,0.00488,0.00488,0.00488,-0.00244,0.0488,0.01952,0.03904,0.01952,0.00488,0.00488
-0.01464,0.0122,-0.00976,-0.00244,0.00488,-0.00976,0.04392,0.00976,0.03416,0.00976,0.00976,0
-0.01952,0.00976,0,0.00976,0.01952,-0.01952,0.03416,0.00488,0.0244,0.00488,0.00976,-0.01464
-0.01952,0.00976,0,0.00976,0.01952,-0.01952,0.03416,-0.00488,0.0244,0.00976,0,-0.00976
-0.02928,0.01464,0,0.01464,0.02928,-0.02928,0.03416,0,0.0244,0,-0.00488,-0.00976
-0.02928,0.00488,0.01952,0.03416,0.0488,-0.03904,0.03416,-0.00976,0.01952,-0.00976,-0.01464,-0.00976
-0.03416,0.00976,0.01464,0.03172,0.0488,-0.04148,0.03416,-0.00488,0.0244,-0.00488,0,0.00488
-0.0244,0.00976,0.00488,0.01708,0.02928,-0.02684,0.03416,-0.01464,0.0244,-0.00488,0,0
-0.01464,0.01708,-0.01952,-0.0122,-0.00488,-0.00488,0.02928,-0.01464,0.0244,-0.00488,-0.00488,-0.00488
-0.01464,0.00976,-0.00488,0.00244,0.00976,-0.0122,0.0244,-0.01464,0.0244,-0.00488,-0.00488,-0.00488
-0.00976,0.00488,0,0.00488,0.00976,-0.00976,0.01952,-0.01464,0.0244,-0.00488,-0.00976,-0.00976
-0.00976,0.00976,-0.00976,-0.00488,0,-0.00488,0.01952,-0.01464,0.01952,-0.00488,-0.00976,-0.00976
-0.01464,0.02196,-0.02928,-0.02196,-0.01464,0,0.01952,-0.01464,0.00976,-0.01464,-0.01952,-0.00976
-0.01952,0.01952,-0.01952,-0.00976,0,-0.00976,0.0244,-0.00976,0.01952,-0.00976,-0.01464,0
-0.02928,0.01708,-0.00488,0.00976,0.0244,-0.02684,0.0244,-0.00488,0.02928,0.00488,-0.00488,0
-0.0244,0.00976,0.00488,0.01708,0.02928,-0.02684,0.0244,-0.00976,0.02928,0,-0.00488,-0.00488
-0.0244,0.00244,0.01952,0.03172,0.04392,-0.03416,0.01464,-0.00488,0.0244,-0.00976,-0.00976,-0.00488
-0.0244,0,0.0244,0.0366,0.0488,-0.0366,0.01464,-0.00488,0.0244,-0.00488,-0.00976,-0.00488
-0.0244,-0.00244,0.02928,0.04148,0.05368,-0.03904,0.0244,0.00488,0.02928,-0.00976,-0.01464,0
-0.03416,0.01952,-0.00488,0.0122,0.02928,-0.03172,0.0244,0.00488,0.02928,0.00976,0,0
-0.0244,0.0122,0,0.0122,0.0244,-0.0244,0.03416,0,0.02928,0.01464,0.00488,0
-0.01952,0.00488,0.00976,0.01952,0.02928,-0.0244,0.03416,0.00976,0.03416,0.01952,0.00976,0.00488
-0.0244,0.00488,0.01464,0.02684,0.03904,-0.03172,0.03416,0.00976,0.02928,0.01952,0,0
-0.03416,0.01464,0.00488,0.02196,0.03904,-0.0366,0.03416,0.00976,0.02928,0.01952,0.00488,0
-0.04392,0.0244,-0.00488,0.01708,0.03904,-0.04148,0.03416,0.01464,0.03904,0.0244,0.01464,0.00488
-0.02928,0.02196,-0.01464,0,0.01464,-0.02196,0.02928,0.01464,0.03904,0.0244,0.01464,0.00976
-0.0244,0.01952,-0.01464,-0.00244,0.00976,-0.01708,0.03416,0.01464,0.03416,0.02928,0.00976,0.00488
-0.01952,0.02196,-0.0244,-0.01464,-0.00488,-0.00732,0.03904,0.01952,0.03904,0.03416,0.01464,0.00488
-0.03904,0.0244,-0.00976,0.00976,0.02928,-0.03416,0.03416,0.01952,0.03904,0.0244,0.00488,0.00976
-0.05368,0.03172,-0.00976,0.01708,0.04392,-0.0488,0.0244,0.01952,0.03416,0.0244,0.00488,0.00488
-0.03904,0.0122,0.01464,0.03416,0.05368,-0.04636,0.01464,0.01952,0.03416,0.01952,0.00488,0.00976
-0.03904,0.01952,0,0.01952,0.03904,-0.03904,0.01464,0.0244,0.03416,0.01952,0.00488,0.01952
-0.00488,-0.00244,0.00976,0.0122,0.01464,-0.00976,0.00976,0.00976,0.0244,0.01952,0.00488,0.0244
0.01464,-0.01708,0.01952,0.0122,0.00488,0.00488,0.00976,-0.00488,0.01464,0.00488,-0.00488,0.00976
0.01464,-0.0122,0.00976,0.00244,-0.00488,0.00976,0.0244,0.00488,0.01952,0.00488,-0.00976,0.00488
0,-0.00244,0.00488,0.00488,0.00488,-0.00244,0.0244,0.00488,0.01952,0.00488,-0.00976,0.00976
-0.00976,0,0.00976,0.01464,0.01952,-0.01464,0.01464,0.00488,0.01952,0,0,0.00976
-0.0244,0.0122,0,0.0122,0.0244,-0.0244,0.00976,0.00488,0.01952,0,0,0.00488
-0.03416,0.01708,0,0.01708,0.03416,-0.03416,0.00976,0,0.01952,-0.00488,-0.00488,0.00488
-0.02928,0.00732,0.01464,0.02928,0.04392,-0.0366,0.00976,0,0.01952,-0.00488,-0.00488,0.00488
-0.03904,0.02196,-0.00488,0.01464,0.03416,-0.0366,0.00976,0,0.01952,-0.00488,-0.01464,-0.00488
-0.0244,0.01464,-0.00488,0.00732,0.01952,-0.02196,0.01464,0,0.01952,0,-0.01464,-0.00488
-0.03416,0.02928,-0.0244,-0.00732,0.00976,-0.02196,0.0244,0,0.02928,0.00976,-0.01464,-0.00488
-0.02928,0.03416,-0.03904,-0.0244,-0.00976,-0.00976,0.0244,0,0.02928,0.00976,-0.01464,-0.00976
-0.02928,0.0366,-0.04392,-0.02928,-0.01464,-0.00732,0.03416,0.00976,0.02928,0.01464,-0.00488,0.00488
-0.03416,0.03904,-0.04392,-0.02684,-0.00976,-0.0122,0.03416,0.00976,0.02928,0.01464,-0.00488,0.00488
-0.0488,0.04392,-0.03904,-0.01464,0.00976,-0.02928,0.04392,0.00976,0.03416,0.00976,-0.01464,0
-0.04392,0.04392,-0.04392,-0.02196,0,-0.02196,0.04392,0.01464,0.03416,0.00976,-0.00976,0
-0.02928,0.02928,-0.02928,-0.01464,0,-0.01464,0.03416,0.00488,0.01952,-0.00976,-0.0244,-0.01464
-0.03416,0.03172,-0.02928,-0.0122,0.00488,-0.01952,0.02928,-0.00488,0.01464,-0.00488,-0.0244,-0.01464
-0.04392,0.04392,-0.04392,-0.02196,0,-0.02196,0.03904,0,0.0244,0.00488,-0.00976,0
-0.04392,0.05612,-0.06832,-0.04636,-0.0244,-0.00976,0.03904,0.00976,0.0244,0.01464,-0.00976,0
-0.03904,0.0366,-0.03416,-0.01464,0.00488,-0.02196,0.0244,-0.00488,0.01464,0,-0.01952,-0.01952
-0.0488,0.0366,-0.0244,0,0.0244,-0.0366,0.02928,-0.00488,0.01952,0,-0.01464,-0.01952
-0.0488,0.04392,-0.03904,-0.01464,0.00976,-0.02928,0.02928,-0.00488,0.00976,-0.00976,-0.01464,-0.01464
-0.04392,0.04392,-0.04392,-0.02196,0,-0.02196,0.03416,0,0.01464,-0.00488,-0.01464,-0.01464
-0.0488,0.03416,-0.01952,0.00488,0.02928,-0.03904,0.0244,-0.01464,0.01464,-0.01464,-0.0244,-0.01464
-0.05856,0.04636,-0.03416,-0.00488,0.0244,-0.04148,0.0244,-0.00488,0.01952,-0.00976,-0.01464,-0.00488
-0.03904,0.04392,-0.0488,-0.02928,-0.00976,-0.01464,0.02928,0,0.01952,-0.00976,-0.00976,0
-0.0488,0.04392,-0.03904,-0.01464,0.00976,-0.02928,0.01952,0,0.01952,0,-0.01952,-0.00976
-0.0488,0.03904,-0.02928,-0.00488,0.01952,-0.03416,0.01952,0,0.01952,0,-0.01952,-0.00976
-0.05856,0.03172,-0.00488,0.0244,0.05368,-0.05612,0.01952,0.00976,0.02928,0.00976,-0.01464,-0.00488
-0.05856,0.03416,-0.00976,0.01952,0.0488,-0.05368,0.01952,0.01464,0.02928,0.00976,-0.00976,0.00488
-0.03416,0.01708,0,0.01708,0.03416,-0.03416,0.0244,0.00976,0.03416,0,-0.00976,-0.00488
-0.01464,0.00732,0,0.00732,0.01464,-0.01464,0.01952,0.00976,0.02928,0,-0.00976,-0.00488
-0.00488,0.00244,0,0.00244,0.00488,-0.00488,0.02928,0.0244,0.04392,0.00976,0.00488,0.00488
0.00976,-0.01464,0.01952,0.01464,0.00976,0,0.04392,0.02928,0.05368,0.03416,0.01464,0.0244
-0.00976,-0.00976,0.02928,0.03416,0.03904,-0.0244,0.0244,0.0244,0.05368,0.02928,0.01464,0.0244
-0.00488,-0.00732,0.01952,0.02196,0.0244,-0.01464,0.01464,0.0244,0.0488,0.0244,0.01952,0.02928
0.00488,-0.02196,0.03904,0.0366,0.03416,-0.01464,-0.00976,0.00488,0.0244,0.01952,0.00976,0.01464
0.00976,-0.02928,0.0488,0.04392,0.03904,-0.01464,-0.01952,0.00488,0.01952,0.01464,0.00976,0.00976
0.0244,-0.0366,0.0488,0.0366,0.0244,0,-0.03416,0.00976,0.02928,0.02928,0.01464,0.01952
0.03904,-0.03904,0.03904,0.01952,0,0.01952,-0.04392,0.00488,0.01952,0.02928,0.00976,0.01952
0.02928,-0.02684,0.0244,0.00976,-0.00488,0.01708,-0.05368,0.00976,0.01464,0.01952,0.00976,0.00488
0.03416,-0.04392,0.05368,0.0366,0.01952,0.00732,-0.0488,0.00488,0.01464,0.0244,0.01464,0.00976
0.0244,-0.0488,0.0732,0.061,0.0488,-0.0122,-0.05856,-0.00976,0.01952,0.02928,0.0244,0.01952
0.00488,-0.0244,0.04392,0.04148,0.03904,-0.01708,-0.05368,-0.01464,-0.00488,0.01464,0.01464,0.01464
-0.01952,0.00488,0.00976,0.01952,0.02928,-0.0244,-0.03904,-0.00488,0,0.01952,0.00976,0.00976
-0.03416,0.02928,-0.0244,-0.00732,0.00976,-0.02196,-0.00488,0.00488,0.01952,0.01952,0.01464,0.0244
-0.01952,0.01464,-0.00976,0,0.00976,-0.01464,-0.01464,-0.00488,0.01464,0.00488,0.00488,0.00976
-0.01464,0.0122,-0.00976,-0.00244,0.00488,-0.00976,-0.0244,-0.00976,-0.00488,-0.01952,-0.00976,-0.00488
-0.00488,0.01708,-0.02928,-0.02684,-0.0244,0.00976,-0.02928,-0.02928,-0.01952,-0.02928,-0.01952,-0.00976
-0.00976,0.0244,-0.03904,-0.03416,-0.02928,0.00976,-0.0244,-0.0244,-0.01952,-0.0244,-0.01952,-0.00976
-0.04392,0.04392,-0.04392,-0.02196,0,-0.02196,-0.0244,-0.0244,-0.00976,-0.0244,-0.00976,-0.00976
-0.05856,0.05856,-0.05856,-0.02928,0,-0.02928,-0.00976,-0.0244,0.00488,-0.01952,-0.00976,-0.01464
-0.06832,0.06588,-0.06344,-0.02928,0.00488,-0.0366,0,-0.01952,0,-0.0244,-0.01952,-0.00976
-0.06832,0.0732,-0.07808,-0.04392,-0.00976,-0.02928,0.01464,-0.01952,0,-0.0244,-0.0244,-0.01952
-0.06832,0.06832,-0.06832,-0.03416,0,-0.03416,0.00976,-0.02928,-0.00976,-0.03416,-0.03416,-0.0244
-0.08296,0.07564,-0.06832,-0.02684,0.01464,-0.0488,0.0244,-0.0244,-0.00488,-0.02928,-0.03416,-0.01952
-0.08784,0.07564,-0.06344,-0.01952,0.0244,-0.05612,0.0244,-0.03416,-0.01464,-0.0488,-0.04392,-0.03416
-0.09272,0.08296,-0.0732,-0.02684,0.01952,-0.05612,0.0244,-0.03416,-0.02928,-0.04392,-0.0488,-0.03904
-0.08784,0.07564,-0.06344,-0.01952,0.0244,-0.05612,0.02928,-0.03904,-0.0244,-0.03904,-0.05856,-0.03416
-0.09272,0.08784,-0.08296,-0.0366,0.00976,-0.05124,0.02928,-0.03904,-0.0244,-0.04392,-0.05856,-0.03416
-0.08784,0.07564,-0.06344,-0.01952,0.0244,-0.05612,0.02928,-0.03904,-0.03416,-0.03904,-0.0488,-0.04392
-0.09272,0.09272,-0.09272,-0.04636,0,-0.04636,0.03416,-0.03416,-0.02928,-0.03416,-0.04392,-0.03904
-0.11224,0.09272,-0.0732,-0.01708,0.03904,-0.07564,0.03416,-0.03416,-0.01952,-0.03416,-0.0488,-0.03904
-0.11712,0.09028,-0.06344,-0.00488,0.05368,-0.0854,0.03416,-0.04392,-0.01952,-0.03904,-0.0488,-0.0488
-0.0976,0.09028,-0.08296,-0.03416,0.01464,-0.05612,0.03416,-0.0244,-0.00976,-0.0244,-0.03904,-0.03416
-0.07808,0.08296,-0.08784,-0.0488,-0.00976,-0.03416,0.03416,-0.01464,-0.00488,-0.01464,-0.0244,-0.03416
-0.09272,0.0854,-0.07808,-0.03172,0.01464,-0.05368,0.0244,-0.0244,-0.01464,-0.02928,-0.04392,-0.04392
-0.09272,0.08296,-0.0732,-0.02684,0.01952,-0.05612,0.01464,-0.03416,-0.0244,-0.03904,-0.05368,-0.05856
-0.08296,0.07564,-0.06832,-0.02684,0.01464,-0.0488,0.01952,-0.02928,-0.01464,-0.03416,-0.0488,-0.05856
-0.08784,0.09272,-0.0976,-0.05368,-0.00976,-0.03904,0.0244,-0.01952,-0.00976,-0.02928,-0.03904,-0.05856
-0.122,0.11956,-0.11712,-0.05612,0.00488,-0.06344,0.02928,-0.01952,0,-0.02928,-0.04392,-0.05856
-0.1708,0.14396,-0.11712,-0.03172,0.05368,-0.11224,0.0732,-0.01464,0.01464,-0.04392,-0.06344,-0.08296
-0.16592,0.13176,-0.0976,-0.01464,0.06832,-0.11712,0.122,0.00488,0.05368,-0.02928,-0.08296,-0.09272
-0.16592,0.10004,-0.03416,0.0488,0.13176,-0.14884,0.13664,0.0488,0.10736,0.00976,-0.05368,-0.0732
-0.12688,0.09516,-0.06344,0,0.06344,-0.09516,0.15616,0.1464,0.20984,0.11224,0.03416,0
-0.02928,-0.02684,0.08296,0.0976,0.11224,-0.07076,0.10736,0.23424,0.2684,0.21472,0.10736,0.04392
0.13176,-0.14396,0.15616,0.09028,0.0244,0.05368,0.0244,0.366,0.33184,0.37088,0.25376,0.16592
0.3904,-0.33184,0.27328,0.07808,-0.11712,0.25376,-0.122,0.49776,0.3416,0.52216,0.4148,0.29768
0.63928,-0.53436,0.42944,0.1098,-0.20984,0.42456,-0.31232,0.61,0.3172,0.66856,0.57584,0.4392
0.81496,-0.65392,0.49288,0.0854,-0.32208,0.56852,-0.50264,0.61,0.244,0.74176,0.68808,0.5612
0.86376,-0.65392,0.44408,0.0122,-0.41968,0.64172,-0.59536,0.5368,0.0976,0.64904,0.65392,0.5612
0.79056,-0.52948,0.2684,-0.12688,-0.52216,0.65636,-0.59048,0.33672,-0.1708,0.30256,0.3904,0.38064
0.54656,-0.29768,0.0488,-0.22448,-0.49776,0.52216,-0.5124,-0.0488,-0.42456,-0.03416,0.16592,0.2196
0.27328,-0.10736,-0.05856,-0.1952,-0.33184,0.30256,-0.45384,-0.52704,-0.66368,-0.33184,-0.05368,0.07808
0.122,0.00732,-0.13664,-0.19764,-0.25864,0.19032,-0.366,-0.63928,-0.71248,-0.44408,-0.15616,-0.01464
0.05368,0.06344,-0.18056,-0.2074,-0.23424,0.14396,-0.2684,-0.50752,-0.60512,-0.40016,-0.16592,-0.03904
0.00488,0.10004,-0.20496,-0.2074,-0.20984,0.10736,-0.16104,-0.3416,-0.42944,-0.28304,-0.0976,0.00488
-0.02928,0.0976,-0.16592,-0.15128,-0.13664,0.05368,-0.08784,-0.24888,-0.32696,-0.22448,-0.09272,-0.03416
-0.04392,0.06832,-0.09272,-0.07076,-0.0488,0.00244,-0.06832,-0.18544,-0.23424,-0.18544,-0.10736,-0.05856
-0.05368,0.09272,-0.13176,-0.10492,-0.07808,0.0122,-0.01952,-0.11224,-0.14152,-0.11712,-0.07808,-0.04392
-0.09272,0.10004,-0.10736,-0.061,-0.01464,-0.03904,0.00488,-0.0732,-0.08296,-0.08296,-0.06344,-0.05368
-0.10248,0.08784,-0.0732,-0.02196,0.02928,-0.06588,0.00976,-0.06832,-0.06832,-0.07808,-0.06344,-0.06344
-0.10248,0.08784,-0.0732,-0.02196,0.02928,-0.06588,0.0244,-0.06832,-0.0488,-0.06344,-0.06344,-0.05368
-0.0976,0.08052,-0.06344,-0.01464,0.03416,-0.06588,0.01952,-0.06832,-0.0488,-0.06344,-0.06832,-0.05368
-0.0976,0.08052,-0.06344,-0.01464,0.03416,-0.06588,0.01952,-0.06832,-0.04392,-0.06344,-0.06832,-0.05368
-0.11712,0.10004,-0.08296,-0.0244,0.03416,-0.07564,0.03416,-0.05368,-0.02928,-0.05856,-0.06344,-0.05368
-0.13176,0.122,-0.11224,-0.04636,0.01952,-0.07564,0.03416,-0.05368,-0.0244,-0.0488,-0.05368,-0.05856
-0.12688,0.11956,-0.11224,-0.0488,0.01464,-0.07076,0.02928,-0.05368,-0.0244,-0.0488,-0.05856,-0.06344
-0.13176,0.11712,-0.10248,-0.0366,0.02928,-0.08052,0.03416,-0.0488,-0.01952,-0.05368,-0.05856,-0.06344
-0.11712,0.10248,-0.08784,-0.02928,0.02928,-0.0732,0.03416,-0.05856,-0.01464,-0.05856,-0.06832,-0.05856
-0.11712,0.0976,-0.07808,-0.01952,0.03904,-0.07808,0.02928,-0.05856,-0.01464,-0.06832,-0.0732,-0.06832
-0.13664,0.10492,-0.0732,-0.00488,0.06344,-0.10004,0.02928,-0.05856,-0.01464,-0.05856,-0.05856,-0.06344
-0.13664,0.10248,-0.06832,0,0.06832,-0.10248,0.02928,-0.05856,-0.0244,-0.06344,-0.06832,-0.06832
-0.13176,0.1098,-0.08784,-0.02196,0.04392,-0.08784,0.03904,-0.06832,-0.0244,-0.0732,-0.0732,-0.07808
-0.12688,0.10248,-0.07808,-0.01464,0.0488,-0.08784,0.03904,-0.06832,-0.03416,-0.0732,-0.0732,-0.0732
-0.12688,0.10248,-0.07808,-0.01464,0.0488,-0.08784,0.04392,-0.06832,-0.02928,-0.06344,-0.06344,-0.06344
-0.13176,0.11468,-0.0976,-0.03172,0.03416,-0.08296,0.04392,-0.06832,-0.02928,-0.06344,-0.06344,-0.06344
-0.13664,0.11712,-0.0976,-0.02928,0.03904,-0.08784,0.05368,-0.05368,-0.0244,-0.0488,-0.05856,-0.06344
-0.1464,0.11956,-0.09272,-0.01952,0.05368,-0.10004,0.05368,-0.05368,-0.03416,-0.05368,-0.06832,-0.06832
-0.15128,0.122,-0.09272,-0.01708,0.05856,-0.10492,0.06344,-0.0488,-0.01952,-0.05856,-0.06832,-0.05856
-0.15616,0.13176,-0.10736,-0.02928,0.0488,-0.10248,0.06344,-0.05368,-0.01952,-0.05368,-0.06832,-0.05856
-0.15616,0.1342,-0.11224,-0.03416,0.04392,-0.10004,0.05368,-0.0488,-0.02928,-0.05368,-0.06344,-0.05368
-0.15128,0.12932,-0.10736,-0.03172,0.04392,-0.0976,0.05856,-0.0488,-0.02928,-0.05856,-0.06344,-0.05856
-0.12688,0.11468,-0.10248,-0.03904,0.0244,-0.07564,0.0488,-0.05856,-0.03904,-0.05856,-0.07808,-0.05856
-0.13664,0.122,-0.10736,-0.03904,0.02928,-0.08296,0.05368,-0.05856,-0.03416,-0.05368,-0.0732,-0.05856
-0.14152,0.12444,-0.10736,-0.0366,0.03416,-0.08784,0.05368,-0.05368,-0.03416,-0.06344,-0.0732,-0.05856
-0.13664,0.11224,-0.08784,-0.01952,0.0488,-0.09272,0.05368,-0.05856,-0.03904,-0.06832,-0.07808,-0.06344
-0.14152,0.11468,-0.08784,-0.01708,0.05368,-0.0976,0.05368,-0.05368,-0.03904,-0.06344,-0.0732,-0.06344
-0.14152,0.12688,-0.11224,-0.04148,0.02928,-0.0854,0.05856,-0.05368,-0.0244,-0.05856,-0.06832,-0.05856
-0.15128,0.12932,-0.10736,-0.03172,0.04392,-0.0976,0.05856,-0.05368,-0.0244,-0.06344,-0.06832,-0.05856
-0.1464,0.12932,-0.11224,-0.03904,0.03416,-0.09028,0.05856,-0.05368,-0.01952,-0.05856,-0.06832,-0.05856
-0.15616,0.1464,-0.13664,-0.05856,0.01952,-0.08784,0.05856,-0.05368,-0.02928,-0.06344,-0.06832,-0.05856
-0.16104,0.14884,-0.13664,-0.05612,0.0244,-0.09272,0.05856,-0.05368,-0.03416,-0.06344,-0.06832,-0.05856
-0.15616,0.13176,-0.10736,-0.02928,0.0488,-0.10248,0.03904,-0.0732,-0.04392,-0.0732,-0.09272,-0.06832
-0.1464,0.11712,-0.08784,-0.01464,0.05856,-0.10248,0.03904,-0.0732,-0.03904,-0.0732,-0.08784,-0.07808
-0.13664,0.10492,-0.0732,-0.00488,0.06344,-0.10004,0.02928,-0.07808,-0.04392,-0.07808,-0.0976,-0.08784
-0.13664,0.11468,-0.09272,-0.0244,0.04392,-0.09028,0.03416,-0.08296,-0.0488,-0.08296,-0.09272,-0.08296
-0.14152,0.10492,-0.06832,0.00244,0.0732,-0.10736,0.0244,-0.07808,-0.05368,-0.08784,-0.08784,-0.08296
-0.1464,0.11468,-0.08296,-0.00976,0.06344,-0.10492,0.03904,-0.0732,-0.04392,-0.0732,-0.08296,-0.06832
-0.13664,0.11468,-0.09272,-0.0244,0.04392,-0.09028,0.0488,-0.06344,-0.03904,-0.06832,-0.06832,-0.05856
-0.13176,0.11712,-0.10248,-0.0366,0.02928,-0.08052,0.04392,-0.05856,-0.03904,-0.06832,-0.06832,-0.0488
-0.14152,0.122,-0.10248,-0.03172,0.03904,-0.09028,0.03416,-0.06832,-0.04392,-0.07808,-0.07808,-0.05368
-0.13664,0.11712,-0.0976,-0.02928,0.03904,-0.08784,0.03416,-0.06344,-0.04392,-0.0732,-0.0732,-0.05368
-0.1464,0.12932,-0.11224,-0.03904,0.03416,-0.09028,0.02928,-0.06344,-0.03904,-0.0732,-0.0732,-0.0488
-0.13664,0.122,-0.10736,-0.03904,0.02928,-0.08296,0.02928,-0.05856,-0.03904,-0.06832,-0.06832,-0.0488
-0.122,0.11224,-0.10248,-0.04148,0.01952,-0.07076,0.03416,-0.04392,-0.0244,-0.05368,-0.06344,-0.04392
-0.11712,0.1098,-0.10248,-0.04392,0.01464,-0.06588,0.02928,-0.04392,-0.0244,-0.05368,-0.06344,-0.04392
-0.11224,0.0976,-0.08296,-0.02684,0.02928,-0.07076,0.02928,-0.04392,-0.01952,-0.05368,-0.05368,-0.04392
-0.10736,0.08784,-0.06832,-0.01464,0.03904,-0.0732,0.03416,-0.03904,-0.01464,-0.04392,-0.0488,-0.03904
-0.10736,0.08296,-0.05856,-0.00488,0.0488,-0.07808,0.03416,-0.03904,-0.00976,-0.04392,-0.04392,-0.02928
-0.10248,0.07076,-0.03904,0.0122,0.06344,-0.08296,0.01952,-0.03416,-0.00976,-0.03904,-0.03904,-0.02928
-0.08784,0.06832,-0.0488,-0.00488,0.03904,-0.06344,0.01952,-0.01464,0,-0.03416,-0.03416,-0.02928
-0.07808,0.06588,-0.05368,-0.01464,0.0244,-0.05124,0.0244,-0.00488,0.00976,-0.01952,-0.01952,-0.01464
-0.07808,0.05856,-0.03904,0,0.03904,-0.05856,0.02928,-0.00488,0.01952,-0.00488,-0.00976,-0.00976
-0.08784,0.06832,-0.0488,-0.00488,0.03904,-0.06344,0.02928,0.00488,0.0244,0.00488,0,-0.00488
-0.09272,0.06832,-0.04392,0.00244,0.0488,-0.07076,0.00976,0.00976,0.01464,0.00976,-0.00976,-0.00976
-0.08784,0.06344,-0.03904,0.00488,0.0488,-0.06832,0.00488,0.00976,0.01464,0.00976,-0.00488,-0.00976
-0.0732,0.05856,-0.04392,-0.00732,0.02928,-0.05124,-0.00488,0.00976,0.01464,0.01464,-0.00488,0
-0.05368,0.03416,-0.01464,0.0122,0.03904,-0.04636,-0.01464,0.01464,0.01464,0.01464,0,0.00488
-0.03904,0.01952,0,0.01952,0.03904,-0.03904,-0.01464,0.0244,0.01952,0.0244,0.00976,0.0244
-0.02928,0.00488,0.01952,0.03416,0.0488,-0.03904,-0.01464,0.0244,0.01952,0.0244,0.01464,0.0244
-0.0244,-0.00244,0.02928,0.04148,0.05368,-0.03904,-0.01464,0.03416,0.03416,0.03904,0.0244,0.02928
-0.01464,0,0.01464,0.02196,0.02928,-0.02196,-0.0244,0.03416,0.02928,0.03904,0.0244,0.02928
-0.01952,0.00976,0,0.00976,0.01952,-0.01952,-0.01952,0.02928,0.01952,0.03416,0.01952,0.0244
-0.01464,0,0.01464,0.02196,0.02928,-0.02196,-0.0244,0.03416,0.0244,0.04392,0.0244,0.02928
-0.00976,-0.00244,0.01464,0.01952,0.0244,-0.01708,-0.01464,0.05368,0.03904,0.05856,0.03904,0.03416
-0.00976,-0.00244,0.01464,0.01952,0.0244,-0.01708,-0.01464,0.05856,0.03904,0.06344,0.04392,0.0488
-0.00976,-0.00488,0.01952,0.0244,0.02928,-0.01952,-0.02928,0.05368,0.03904,0.0488,0.04392,0.0488
-0.00488,-0.00488,0.01464,0.01708,0.01952,-0.0122,-0.03904,0.0488,0.02928,0.04392,0.03904,0.04392
0,-0.01952,0.03904,0.03904,0.03904,-0.01952,-0.0488,0.03416,0.0244,0.03904,0.03416,0.0244
0.00976,-0.02928,0.0488,0.04392,0.03904,-0.01464,-0.05368,0.03416,0.0244,0.03416,0.02928,0.0244
0.00976,-0.02196,0.03416,0.02928,0.0244,-0.00732,-0.05368,0.04392,0.03416,0.03904,0.03904,0.0244
0.00488,-0.0122,0.01952,0.01708,0.01464,-0.00488,-0.04392,0.05368,0.04392,0.05856,0.04392,0.02928
0.00488,-0.0122,0.01952,0.01708,0.01464,-0.00488,-0.02928,0.06344,0.05368,0.0732,0.05368,0.03416
-0.01464,0.00244,0.00976,0.01708,0.0244,-0.01952,-0.01952,0.05856,0.05368,0.0732,0.05368,0.02928
-0.00976,-0.00488,0.01952,0.0244,0.02928,-0.01952,-0.00976,0.06832,0.05856,0.06832,0.0488,0.03904
-0.00976,-0.00488,0.01952,0.0244,0.02928,-0.01952,-0.00488,0.05856,0.06344,0.06832,0.0488,0.03904
-0.01952,0.00244,0.01464,0.0244,0.03416,-0.02684,-0.01464,0.05856,0.0488,0.05856,0.02928,0.04392
-0.04392,0.0244,-0.00488,0.01708,0.03904,-0.04148,-0.00976,0.05368,0.04392,0.04392,0.0244,0.03904
-0.04392,0.02684,-0.00976,0.0122,0.03416,-0.03904,-0.01464,0.03416,0.03416,0.02928,0.00976,0.0244
-0.03416,0.0244,-0.01464,0.00244,0.01952,-0.02684,-0.00976,0.03416,0.03416,0.01952,0.00976,0.01952
-0.04392,0.03416,-0.0244,-0.00244,0.01952,-0.03172,0.00488,0.03416,0.04392,0.02928,0.01952,0.00976
-0.04392,0.03416,-0.0244,-0.00244,0.01952,-0.03172,0.00488,0.0244,0.03416,0.01952,0.00488,0
-0.05368,0.04392,-0.03416,-0.00732,0.01952,-0.0366,0.00976,0.01464,0.03904,0.0244,0.00488,-0.00488
-0.05856,0.04392,-0.02928,0,0.02928,-0.04392,0.00488,0.00976,0.03904,0.01464,-0.00488,-0.00976
-0.06344,0.04636,-0.02928,0.00244,0.03416,-0.0488,0.00976,0.00488,0.0244,0.00976,-0.00976,-0.00976
-0.06832,0.05856,-0.0488,-0.01464,0.01952,-0.04392,0.01952,0.00488,0.0244,0.00976,-0.00976,-0.00976
-0.07808,0.05856,-0.03904,0,0.03904,-0.05856,0.01952,0,0.02928,0.01464,0,-0.00976
-0.07808,0.06344,-0.0488,-0.00976,0.02928,-0.05368,0.01952,-0.00488,0.0244,0.00976,-0.00976,-0.01952
-0.09272,0.06832,-0.04392,0.00244,0.0488,-0.07076,0.01464,-0.01952,0.01464,0.00488,-0.01464,-0.0244
-0.08784,0.06588,-0.04392,0,0.04392,-0.06588,0.01464,-0.01464,0.01464,-0.00488,-0.01952,-0.0244
-0.09272,0.07076,-0.0488,-0.00244,0.04392,-0.06832,0.01952,-0.01952,0.00976,-0.00976,-0.02928,-0.03416
-0.0976,0.06588,-0.03416,0.01464,0.06344,-0.08052,0.01464,-0.02928,0.00488,-0.01952,-0.03416,-0.03904
-0.08784,0.05856,-0.02928,0.01464,0.05856,-0.0732,0.01464,-0.02928,0.00488,-0.01464,-0.0244,-0.04392
-0.08784,0.06832,-0.0488,-0.00488,0.03904,-0.06344,0.01464,-0.02928,0.00488,-0.00976,-0.0244,-0.03904
-0.08784,0.08052,-0.0732,-0.02928,0.01464,-0.05124,0.01952,-0.0244,0.01464,-0.00976,-0.01464,-0.03904
-0.08784,0.07564,-0.06344,-0.01952,0.0244,-0.05612,0.02928,-0.0244,0.00976,-0.01952,-0.0244,-0.03904
-0.10248,0.0732,-0.04392,0.00732,0.05856,-0.08052,0.0244,-0.01952,0.00488,-0.01952,-0.0244,-0.02928
-0.09272,0.06344,-0.03416,0.0122,0.05856,-0.07564,0.0244,-0.03904,0.00488,-0.02928,-0.03416,-0.04392
-0.10248,0.07076,-0.03904,0.0122,0.06344,-0.08296,0.0244,-0.04392,0,-0.03416,-0.04392,-0.04392
-0.10248,0.06344,-0.0244,0.02684,0.07808,-0.09028,0.00976,-0.04392,-0.00976,-0.03416,-0.04392,-0.04392
-0.08784,0.05612,-0.0244,0.01952,0.06344,-0.07564,0.00976,-0.03904,-0.00976,-0.02928,-0.04392,-0.03904
-0.08784,0.06588,-0.04392,0,0.04392,-0.06588,0.00976,-0.02928,-0.00488,-0.01952,-0.03416,-0.03904
-0.0976,0.08784,-0.07808,-0.02928,0.01952,-0.05856,0.00976,-0.0244,0,-0.01464,-0.01952,-0.03904
-0.09272,0.08052,-0.06832,-0.02196,0.0244,-0.05856,0.01464,-0.01952,0.00976,-0.00976,-0.01464,-0.02928
-0.08784,0.06832,-0.0488,-0.00488,0.03904,-0.06344,0.01464,-0.01464,0.00976,-0.01464,-0.0244,-0.02928
-0.08296,0.05612,-0.02928,0.0122,0.05368,-0.06832,0.01464,-0.01952,0.00976,-0.01952,-0.0244,-0.03416
-0.08784,0.05368,-0.01952,0.0244,0.06832,-0.07808,0.01464,-0.01464,0.01464,-0.00976,-0.00976,-0.0244
-0.0976,0.06588,-0.03416,0.01464,0.06344,-0.08052,0.01464,-0.01464,0.01464,-0.00488,-0.00976,-0.0244
-0.09272,0.05124,-0.00976,0.0366,0.08296,-0.08784,0.01464,-0.00976,0.01952,-0.00488,-0.00976,-0.02928
-0.08296,0.05368,-0.0244,0.01708,0.05856,-0.07076,0.01464,0,0.01952,0.00488,-0.00488,-0.02928
-0.07808,0.05856,-0.03904,0,0.03904,-0.05856,0.0244,0.00976,0.02928,0.01464,-0.00488,-0.01952
-0.08296,0.06588,-0.0488,-0.00732,0.03416,-0.05856,0.0244,0.01952,0.03416,0.01952,0,-0.01464
-0.08296,0.05612,-0.02928,0.0122,0.05368,-0.06832,0.01464,0.00976,0.02928,0.00976,0,-0.00976
-0.09272,0.061,-0.02928,0.01708,0.06344,-0.07808,0.01464,0.00976,0.02928,0.00976,0.00488,-0.00976
-0.09272,0.06344,-0.03416,0.0122,0.05856,-0.07564,0.01464,0.01464,0.01952,0.01464,-0.00488,-0.01952
-0.07808,0.061,-0.04392,-0.00488,0.03416,-0.05612,0.00976,0.01464,0.01952,0.01464,-0.00488,-0.0244
-0.0732,0.05124,-0.02928,0.00732,0.04392,-0.05856,-0.00488,0.00488,0.01464,0.00976,0,-0.0244
-0.06832,0.0488,-0.02928,0.00488,0.03904,-0.05368,0,0.00976,0.01952,0.01464,0.00488,-0.0244
-0.06832,0.0488,-0.02928,0.00488,0.03904,-0.05368,0,0.00976,0.02928,0.01464,-0.00488,-0.02928
-0.06344,0.04636,-0.02928,0.00244,0.03416,-0.0488,0,0.00976,0.0244,0.01464,-0.00488,-0.03416
-0.0488,0.02684,-0.00488,0.01952,0.04392,-0.04636,-0.00488,-0.00976,0.0244,0.00976,-0.01464,-0.03416
-0.0488,0.03416,-0.01952,0.00488,0.02928,-0.03904,-0.00488,-0.00488,0.0244,0.00976,-0.01464,-0.03416
-0.0488,0.03904,-0.02928,-0.00488,0.01952,-0.03416,0.00976,0.00488,0.0244,0.01464,-0.00976,-0.01952
-0.05856,0.0488,-0.03904,-0.00976,0.01952,-0.03904,0.00976,0,0.01464,0.00976,-0.00976,-0.0244
-0.07808,0.061,-0.04392,-0.00488,0.03416,-0.05612,0.00488,0.00488,0.00976,0.00488,-0.00976,-0.03416
-0.08296,0.061,-0.03904,0.00244,0.04392,-0.06344,0.00488,0.00488,0.00976,0.00488,-0.00976,-0.02928
-0.09272,0.06832,-0.04392,0.00244,0.0488,-0.07076,0.00488,0.00488,0.00976,-0.00976,-0.01952,-0.02928
-0.0976,0.08052,-0.06344,-0.01464,0.03416,-0.06588,0,0.00488,0.00976,-0.00976,-0.01952,-0.03416
-0.09272,0.07564,-0.05856,-0.0122,0.03416,-0.06344,0,-0.00976,0,-0.01464,-0.0244,-0.03416
-0.08784,0.06588,-0.04392,0,0.04392,-0.06588,0,-0.00976,0,-0.01464,-0.0244,-0.03416
-0.08784,0.06832,-0.0488,-0.00488,0.03904,-0.06344,0.00976,0,0.00488,-0.00488,-0.01464,-0.0244
-0.0732,0.05612,-0.03904,-0.00244,0.03416,-0.05368,0.01464,0,0.01464,0,-0.01464,-0.0244
-0.0732,0.05856,-0.04392,-0.00732,0.02928,-0.05124,0.00488,-0.00976,0.00976,0,-0.0244,-0.03416
-0.06832,0.05368,-0.03904,-0.00488,0.02928,-0.0488,0.00488,-0.00976,0.00976,0,-0.0244,-0.03904
-0.05856,0.04636,-0.03416,-0.00488,0.0244,-0.04148,0.00488,-0.00976,0.00976,-0.00488,-0.01464,-0.03416
-0.06344,0.0488,-0.03416,-0.00244,0.02928,-0.04636,0.00488,-0.00976,0.00976,-0.00488,-0.01464,-0.03416
-0.07808,0.061,-0.04392,-0.00488,0.03416,-0.05612,0.01464,-0.01952,0.00488,-0.00976,-0.0244,-0.03904
-0.0732,0.06588,-0.05856,-0.02196,0.01464,-0.04392,0.01464,-0.01464,0.00488,-0.00976,-0.01952,-0.03904
-0.0732,0.05856,-0.04392,-0.00732,0.02928,-0.05124,0,-0.01952,-0.00488,-0.02928,-0.03416,-0.05368
-0.08784,0.07076,-0.05368,-0.00976,0.03416,-0.061,0.00488,-0.01952,0,-0.0244,-0.03416,-0.05368
-0.09272,0.07076,-0.0488,-0.00244,0.04392,-0.06832,0,-0.0244,-0.00488,-0.01952,-0.02928,-0.0488
-0.09272,0.07808,-0.06344,-0.01708,0.02928,-0.061,0,-0.0244,-0.00488,-0.01952,-0.02928,-0.0488
-0.09272,0.0732,-0.05368,-0.00732,0.03904,-0.06588,0,-0.02928,-0.00976,-0.01952,-0.02928,-0.05368
-0.09272,0.07808,-0.06344,-0.01708,0.02928,-0.061,0.01464,-0.01952,0.00488,-0.01952,-0.0244,-0.04392
-0.0976,0.0854,-0.0732,-0.0244,0.0244,-0.061,0.02928,-0.01464,0.00976,-0.00976,-0.01464,-0.03416
-0.11224,0.09028,-0.06832,-0.0122,0.04392,-0.07808,0.03416,-0.00976,0.01464,-0.00488,-0.01464,-0.03416
-0.11224,0.0732,-0.03416,0.02196,0.07808,-0.09516,0.0244,-0.0244,0.00488,-0.01464,-0.01952,-0.03904
-0.10248,0.07076,-0.03904,0.0122,0.06344,-0.08296,0.01464,-0.0244,0,-0.01952,-0.02928,-0.0488
-0.08784,0.06344,-0.03904,0.00488,0.0488,-0.06832,0.02928,-0.01464,0.00976,-0.01952,-0.02928,-0.04392
-0.08784,0.06344,-0.03904,0.00488,0.0488,-0.06832,0.03904,-0.00976,0.01952,0,-0.01952,-0.02928
-0.0976,0.0732,-0.0488,0,0.0488,-0.0732,0.02928,-0.01952,0.00976,-0.00976,-0.01952,-0.02928
-0.0976,0.07808,-0.05856,-0.00976,0.03904,-0.06832,0.02928,-0.01952,0.00976,-0.01952,-0.01952,-0.02928
-0.06832,0.02684,0.01464,0.0488,0.08296,-0.07564,0.01952,-0.01952,0.01952,-0.00976,-0.01464,-0.03416
-0.03904,0,0.03904,0.05856,0.07808,-0.05856,0.01952,-0.01464,0.01952,-0.00976,-0.00976,-0.0244
-0.04392,0.0122,0.01952,0.04148,0.06344,-0.05368,0.01464,-0.00976,0.03416,0,-0.00976,-0.0244
-0.04392,0.02196,0,0.02196,0.04392,-0.04392,0.00976,-0.00976,0.02928,0,-0.00976,-0.0244
-0.06344,0.0366,-0.00976,0.02196,0.05368,-0.05856,0.01952,0.00488,0.03416,0.00976,0.00488,-0.01464
-0.06832,0.03416,0,0.03416,0.06832,-0.06832,0.0244,0.01952,0.04392,0.0244,0.01464,-0.00488
-0.06832,0.0244,0.01952,0.05368,0.08784,-0.07808,0.01464,0.00488,0.05368,0.02928,0.00488,-0.01464
-0.04392,0.01708,0.00976,0.03172,0.05368,-0.0488,0.00488,0.00488,0.0488,0.0244,0.00976,-0.00976
-0.04392,0.01708,0.00976,0.03172,0.05368,-0.0488,-0.01952,-0.00488,0.0244,0.00976,0,-0.00488
-0.03904,0.00976,0.01952,0.03904,0.05856,-0.0488,-0.02928,-0.00488,0.01952,0.00488,0,-0.00976
-0.01464,0.00244,0.00976,0.01708,0.0244,-0.01952,-0.04392,0,0.01952,0.00976,0.00488,-0.00976
0,0,0,0,0,0,-0.04392,-0.00488,0.00976,0.00976,0,-0.00976
-0.00976,0.01708,-0.0244,-0.01952,-0.01464,0.00244,-0.05368,-0.00976,-0.00488,-0.00976,-0.00976,-0.0244
-0.00488,0.00488,-0.00488,-0.00244,0,-0.00244,-0.0488,-0.01464,-0.00488,-0.00488,-0.00488,-0.01952
-0.00488,-0.00488,0.01464,0.01708,0.01952,-0.0122,-0.0488,-0.00976,0.00976,0.00976,0.00488,-0.00976
-0.01464,0.00976,-0.00488,0.00244,0.00976,-0.0122,-0.04392,-0.01464,-0.00488,0.00488,-0.00488,-0.01464
-0.03904,0.03416,-0.02928,-0.00976,0.00976,-0.0244,-0.03904,-0.01464,-0.00976,0,-0.00976,-0.02928
-0.06344,0.05368,-0.04392,-0.0122,0.01952,-0.04148,-0.01464,-0.00488,0,0,-0.00488,-0.0244
-0.0488,0.03904,-0.02928,-0.00488,0.01952,-0.03416,-0.01464,-0.01464,0.00488,0.00488,-0.00488,-0.02928
-0.04392,0.04148,-0.03904,-0.01708,0.00488,-0.0244,-0.01464,-0.01952,-0.00488,-0.00976,-0.00976,-0.03416
-0.03416,0.04636,-0.05856,-0.04148,-0.0244,-0.00488,-0.01952,-0.02928,-0.01952,-0.02928,-0.02928,-0.03904
-0.03904,0.05368,-0.06832,-0.0488,-0.02928,-0.00488,-0.01464,-0.0244,-0.01952,-0.0244,-0.02928,-0.03904
-0.06344,0.05856,-0.05368,-0.02196,0.00976,-0.0366,-0.01464,-0.04392,-0.01952,-0.03416,-0.03904,-0.03904
-0.07808,0.06832,-0.05856,-0.01952,0.01952,-0.0488,0,-0.04392,-0.01464,-0.02928,-0.03904,-0.04392
-0.0976,0.09028,-0.08296,-0.03416,0.01464,-0.05612,0.00976,-0.03904,-0.00976,-0.03416,-0.02928,-0.03904
-0.0976,0.10248,-0.10736,-0.05856,-0.00976,-0.04392,0.01464,-0.03904,0,-0.0244,-0.0244,-0.0488
-0.08784,0.08296,-0.07808,-0.03416,0.00976,-0.0488,0.00976,-0.03904,-0.00976,-0.0244,-0.03416,-0.05368
-0.09272,0.08052,-0.06832,-0.02196,0.0244,-0.05856,0.0244,-0.03416,-0.00488,-0.01952,-0.03416,-0.0488
-0.0976,0.09028,-0.08296,-0.03416,0.01464,-0.05612,0.03416,-0.03416,-0.01464,-0.02928,-0.03416,-0.05368
-0.11224,0.10736,-0.10248,-0.04636,0.00976,-0.061,0.03416,-0.03416,-0.01952,-0.0244,-0.03904,-0.0488
-0.12688,0.11468,-0.10248,-0.03904,0.0244,-0.07564,0.02928,-0.03904,-0.01464,-0.03904,-0.05856,-0.05368
-0.14152,0.13176,-0.122,-0.05124,0.01952,-0.08052,0.02928,-0.03904,-0.01464,-0.05368,-0.05856,-0.05368
-0.13664,0.11468,-0.09272,-0.0244,0.04392,-0.09028,0.01952,-0.05856,-0.03416,-0.06832,-0.06832,-0.06344
-0.14152,0.13176,-0.122,-0.05124,0.01952,-0.08052,0.0244,-0.05368,-0.02928,-0.06344,-0.06344,-0.05856
-0.13176,0.122,-0.11224,-0.04636,0.01952,-0.07564,0.0244,-0.04392,-0.02928,-0.05368,-0.05856,-0.05856
-0.12688,0.11468,-0.10248,-0.03904,0.0244,-0.07564,0.0244,-0.05368,-0.02928,-0.05856,-0.05856,-0.06832
-0.12688,0.11956,-0.11224,-0.0488,0.01464,-0.07076,0.0244,-0.05368,-0.02928,-0.05368,-0.06832,-0.06344
-0.12688,0.122,-0.11712,-0.05368,0.00976,-0.06832,0.0244,-0.05368,-0.0244,-0.05368,-0.06344,-0.06344
-0.13176,0.1342,-0.13664,-0.07076,-0.00488,-0.06344,0.0244,-0.04392,-0.0244,-0.0488,-0.05368,-0.06344
-0.13176,0.13664,-0.14152,-0.07564,-0.00976,-0.061,0.0244,-0.04392,-0.0244,-0.0488,-0.05368,-0.06832
-0.122,0.11468,-0.10736,-0.04636,0.01464,-0.06832,0.01952,-0.0488,-0.0244,-0.05368,-0.05856,-0.06832
-0.11712,0.11224,-0.10736,-0.0488,0.00976,-0.06344,0.0244,-0.03904,-0.01952,-0.0488,-0.05856,-0.06832
-0.13176,0.12932,-0.12688,-0.061,0.00488,-0.06832,0.05856,-0.01952,0.00976,-0.02928,-0.04392,-0.0488
-0.1708,0.14884,-0.12688,-0.04148,0.04392,-0.10736,0.08296,-0.0244,0.0244,-0.04392,-0.05368,-0.0732
-0.1952,0.13664,-0.07808,0.01952,0.11712,-0.15616,0.10248,-0.01464,0.04392,-0.03904,-0.08296,-0.10248
-0.1952,0.11956,-0.04392,0.05368,0.15128,-0.17324,0.11712,0,0.07808,-0.01952,-0.08296,-0.11224
-0.1952,0.10004,-0.00488,0.09272,0.19032,-0.19276,0.11712,0.08784,0.1708,0.08296,-0.01464,-0.05856
-0.0976,0.00732,0.08296,0.13176,0.18056,-0.13908,0.0976,0.1952,0.25864,0.1952,0.08784,0.01464
0.08296,-0.1098,0.13664,0.09516,0.05368,0.01464,0.0244,0.32696,0.33184,0.36112,0.244,0.15616
0.32208,-0.2928,0.26352,0.10248,-0.05856,0.19032,-0.14152,0.44896,0.33184,0.5124,0.39528,0.27816
0.58072,-0.49044,0.40016,0.1098,-0.18056,0.38064,-0.32208,0.57096,0.32696,0.6588,0.56608,0.4392
0.77592,-0.62464,0.47336,0.0854,-0.30256,0.53924,-0.52216,0.5612,0.22448,0.72224,0.66856,0.53192
0.87352,-0.67832,0.48312,0.04636,-0.3904,0.63196,-0.65392,0.55632,0.0976,0.67832,0.67344,0.57096
0.81008,-0.53924,0.2684,-0.13664,-0.54168,0.67588,-0.63928,0.366,-0.16104,0.36112,0.41968,0.38064
0.60512,-0.30744,0.00976,-0.2928,-0.59536,0.60024,-0.57096,0,-0.43432,-0.0244,0.1464,0.19032
0.32208,-0.08784,-0.1464,-0.30744,-0.46848,0.39528,-0.48312,-0.47824,-0.6832,-0.33184,-0.06344,0.03904
0.15128,0.04148,-0.23424,-0.30988,-0.38552,0.2684,-0.39528,-0.66856,-0.74176,-0.47336,-0.18544,-0.04392
0.09272,0.06344,-0.2196,-0.26596,-0.31232,0.20252,-0.29768,-0.5368,-0.62464,-0.40992,-0.17568,-0.05856
0.05368,0.0854,-0.22448,-0.25132,-0.27816,0.16592,-0.18056,-0.36112,-0.4392,-0.28304,-0.11712,-0.01464
0.00976,0.0976,-0.20496,-0.20984,-0.21472,0.11224,-0.0976,-0.25864,-0.32696,-0.22448,-0.08296,-0.0244
-0.04392,0.09272,-0.14152,-0.11956,-0.0976,0.02684,-0.07808,-0.18544,-0.22448,-0.16592,-0.07808,-0.03904
-0.08296,0.0976,-0.11224,-0.07076,-0.02928,-0.02684,-0.03904,-0.13176,-0.15128,-0.12688,-0.07808,-0.05368
-0.08296,0.07564,-0.06832,-0.02684,0.01464,-0.0488,-0.01464,-0.10248,-0.10248,-0.10248,-0.06344,-0.05368
-0.10248,0.09028,-0.07808,-0.02684,0.0244,-0.06344,-0.00488,-0.09272,-0.0732,-0.07808,-0.06832,-0.06344
-0.122,0.11468,-0.10736,-0.04636,0.01464,-0.06832,0.01952,-0.08296,-0.04392,-0.06344,-0.05856,-0.05368
-0.13664,0.1342,-0.13176,-0.06344,0.00488,-0.07076,0.0244,-0.07808,-0.03904,-0.06344,-0.06832,-0.0732
-0.13664,0.1342,-0.13176,-0.06344,0.00488,-0.07076,0.01464,-0.07808,-0.03416,-0.06344,-0.06832,-0.0732
-0.13664,0.12932,-0.122,-0.05368,0.01464,-0.07564,0.0244,-0.0732,-0.03904,-0.06344,-0.06832,-0.0732
-0.15128,0.14152,-0.13176,-0.05612,0.01952,-0.0854,0.0244,-0.0732,-0.03416,-0.06344,-0.06832,-0.07808
-0.13664,0.12688,-0.11712,-0.0488,0.01952,-0.07808,0.02928,-0.0732,-0.0244,-0.06344,-0.06832,-0.06344
-0.14152,0.11956,-0.0976,-0.02684,0.04392,-0.09272,0.03416,-0.06832,-0.01952,-0.05856,-0.06832,-0.06344
-0.14152,0.122,-0.10248,-0.03172,0.03904,-0.09028,0.04392,-0.06832,-0.0244,-0.05856,-0.06832,-0.06832
-0.15128,0.12688,-0.10248,-0.02684,0.0488,-0.10004,0.03904,-0.06832,-0.0244,-0.06832,-0.0732,-0.07808
-0.16104,0.12932,-0.0976,-0.01708,0.06344,-0.11224,0.04392,-0.07808,-0.0244,-0.06832,-0.06832,-0.08296
-0.15128,0.11712,-0.08296,-0.00732,0.06832,-0.1098,0.03416,-0.07808,-0.03416,-0.0732,-0.07808,-0.08784
-0.1464,0.11956,-0.09272,-0.01952,0.05368,-0.10004,0.02928,-0.07808,-0.02928,-0.0732,-0.0732,-0.07808
-0.15128,0.122,-0.09272,-0.01708,0.05856,-0.10492,0.02928,-0.07808,-0.02928,-0.0732,-0.0732,-0.0732
-0.15616,0.12688,-0.0976,-0.01952,0.05856,-0.10736,0.04392,-0.06832,-0.01952,-0.06344,-0.0732,-0.0732
-0.18056,0.14884,-0.11712,-0.02684,0.06344,-0.122,0.04392,-0.06832,-0.01952,-0.06344,-0.0732,-0.0732
-0.18544,0.15616,-0.12688,-0.03416,0.05856,-0.122,0.03416,-0.0732,-0.0244,-0.06832,-0.06832,-0.08296
-0.17568,0.14884,-0.122,-0.03416,0.05368,-0.11468,0.03416,-0.0732,-0.03416,-0.0732,-0.07808,-0.08784
-0.15616,0.13664,-0.11712,-0.03904,0.03904,-0.0976,0.0244,-0.06832,-0.02928,-0.06832,-0.07808,-0.08784
-0.15128,0.13664,-0.122,-0.04636,0.02928,-0.09028,0.0244,-0.0732,-0.02928,-0.06344,-0.07808,-0.08784
-0.1464,0.13176,-0.11712,-0.04392,0.02928,-0.08784,0.0244,-0.07808,-0.02928,-0.0732,-0.08296,-0.08296
-0.14152,0.13176,-0.122,-0.05124,0.01952,-0.08052,0.02928,-0.07808,-0.02928,-0.07808,-0.08296,-0.08784
-0.14152,0.12688,-0.11224,-0.04148,0.02928,-0.0854,0.02928,-0.07808,-0.03904,-0.07808,-0.08784,-0.08784
-0.16104,0.13908,-0.11712,-0.0366,0.04392,-0.10248,0.03416,-0.07808,-0.03416,-0.0732,-0.08296,-0.08784
-0.16104,0.14152,-0.122,-0.04148,0.03904,-0.10004,0.03416,-0.0732,-0.03416,-0.0732,-0.08296,-0.08784
-0.15616,0.1342,-0.11224,-0.03416,0.04392,-0.10004,0.03416,-0.07808,-0.03904,-0.07808,-0.08784,-0.09272
-0.15616,0.14152,-0.12688,-0.0488,0.02928,-0.09272,0.0244,-0.09272,-0.05368,-0.08296,-0.09272,-0.10248
-0.16592,0.1586,-0.15128,-0.06832,0.01464,-0.09028,0.02928,-0.09272,-0.0488,-0.07808,-0.08784,-0.0976
-0.16104,0.14152,-0.122,-0.04148,0.03904,-0.10004,0.02928,-0.08296,-0.04392,-0.08296,-0.08784,-0.0976
-0.15616,0.13664,-0.11712,-0.03904,0.03904,-0.0976,0.02928,-0.08296,-0.03904,-0.07808,-0.08784,-0.0976
-0.16592,0.14152,-0.11712,-0.03416,0.0488,-0.10736,0.03904,-0.08296,-0.02928,-0.0732,-0.07808,-0.08784
-0.1708,0.1342,-0.0976,-0.0122,0.0732,-0.122,0.03904,-0.08296,-0.03416,-0.0732,-0.07808,-0.08784
-0.18056,0.12932,-0.07808,0.0122,0.10248,-0.14152,0.01952,-0.09272,-0.05368,-0.08296,-0.09272,-0.09272
-0.18056,0.13908,-0.0976,-0.00732,0.08296,-0.13176,0.01952,-0.09272,-0.0488,-0.08296,-0.08784,-0.09272
-0.16592,0.12932,-0.09272,-0.00976,0.0732,-0.11956,0.02928,-0.09272,-0.0488,-0.09272,-0.08784,-0.08784
-0.16592,0.13908,-0.11224,-0.02928,0.05368,-0.1098,0.03416,-0.08784,-0.04392,-0.08784,-0.08296,-0.08296
-0.16104,0.13176,-0.10248,-0.02196,0.05856,-0.1098,0.0244,-0.07808,-0.04392,-0.08784,-0.08784,-0.07808
-0.16592,0.1464,-0.12688,-0.04392,0.03904,-0.10248,0.03904,-0.0732,-0.03416,-0.0732,-0.08296,-0.0732
-0.16592,0.13908,-0.11224,-0.02928,0.05368,-0.1098,0.02928,-0.07808,-0.03904,-0.0732,-0.08784,-0.08296
-0.16104,0.122,-0.08296,-0.00244,0.07808,-0.11956,0.0244,-0.08296,-0.03904,-0.08296,-0.08784,-0.08296
-0.16104,0.122,-0.08296,-0.00244,0.07808,-0.11956,0.01464,-0.07808,-0.03416,-0.07808,-0.08784,-0.08296
-0.15616,0.11712,-0.07808,0,0.07808,-0.11712,0.01464,-0.0732,-0.03416,-0.0732,-0.08296,-0.08296
-0.16104,0.12688,-0.09272,-0.0122,0.06832,-0.11468,0.02928,-0.0732,-0.01952,-0.06344,-0.07808,-0.06832
-0.16104,0.12444,-0.08784,-0.00732,0.0732,-0.11712,0.02928,-0.06832,-0.01952,-0.05856,-0.06344,-0.06832
-0.1708,0.12688,-0.08296,0.00244,0.08784,-0.12932,0.0244,-0.06344,-0.01464,-0.05368,-0.06344,-0.06344
-0.16592,0.12444,-0.08296,0,0.08296,-0.12444,0.01952,-0.06344,-0.01464,-0.05368,-0.06344,-0.06344
-0.15128,0.11224,-0.0732,0.00244,0.07808,-0.11468,0.00976,-0.06344,-0.01952,-0.06344,-0.06344,-0.06344
-0.1464,0.11224,-0.07808,-0.00488,0.06832,-0.10736,0.01464,-0.05856,-0.01464,-0.05368,-0.05856,-0.05856
-0.14152,0.10736,-0.0732,-0.00244,0.06832,-0.10492,0.00488,-0.05368,-0.01952,-0.05368,-0.06344,-0.05368
-0.12688,0.09516,-0.06344,0,0.06344,-0.09516,-0.00976,-0.05856,-0.01952,-0.0488,-0.05856,-0.06344
-0.10736,0.08052,-0.05368,0,0.05368,-0.08052,-0.01952,-0.06344,-0.01952,-0.0488,-0.06344,-0.06832
-0.0976,0.06344,-0.02928,0.01952,0.06832,-0.08296,-0.01464,-0.05368,-0.00976,-0.04392,-0.0488,-0.05368
-0.0976,0.0488,0,0.0488,0.0976,-0.0976,-0.01952,-0.04392,0,-0.03416,-0.03904,-0.0488
-0.08784,0.0488,-0.00976,0.03416,0.07808,-0.08296,-0.01952,-0.03416,0.00488,-0.0244,-0.02928,-0.04392
-0.0976,0.05856,-0.01952,0.02928,0.07808,-0.08784,-0.0244,-0.0244,0.01952,-0.01464,-0.0244,-0.03416
-0.10248,0.06344,-0.0244,0.02684,0.07808,-0.09028,-0.01952,-0.01464,0.02928,-0.00488,-0.00976,-0.0244
-0.09272,0.06832,-0.04392,0.00244,0.0488,-0.07076,-0.01464,0,0.03904,0.00488,-0.00488,-0.01952
-0.0732,0.05368,-0.03416,0.00244,0.03904,-0.05612,-0.0244,0.00488,0.02928,0.00488,0,-0.01464
-0.06344,0.05368,-0.04392,-0.0122,0.01952,-0.04148,-0.03416,0.00488,0.01952,0.01464,0,-0.00488
-0.04392,0.03904,-0.03416,-0.0122,0.00976,-0.02684,-0.03416,0.00488,0.01952,0.01464,0.00488,-0.00488
-0.04392,0.02684,-0.00976,0.0122,0.03416,-0.03904,-0.04392,0.00488,0.0244,0.00976,0.00488,0
-0.03416,0.01952,-0.00488,0.0122,0.02928,-0.03172,-0.05368,0.00488,0.01952,0.00976,0.00488,0
-0.02928,0.02196,-0.01464,0,0.01464,-0.02196,-0.0488,0.00976,0.01952,0.01464,0.00976,-0.00488
-0.0244,0.01708,-0.00976,0.00244,0.01464,-0.01952,-0.05368,0.01464,0.0244,0.0244,0.01464,0
-0.01952,0.0122,-0.00488,0.00488,0.01464,-0.01708,-0.05368,0.0244,0.02928,0.02928,0.01952,0.00976
-0.01952,0.00244,0.01464,0.0244,0.03416,-0.02684,-0.05368,0.02928,0.02928,0.03416,0.0244,0.01464
-0.01952,0.00488,0.00976,0.01952,0.02928,-0.0244,-0.05368,0.02928,0.03416,0.03416,0.02928,0.01464
-0.01464,0.00488,0.00488,0.0122,0.01952,-0.01708,-0.05368,0.03416,0.03416,0.03904,0.03416,0.01952
-0.01952,0.00488,0.00976,0.01952,0.02928,-0.0244,-0.05856,0.03416,0.03416,0.03904,0.03416,0.01464
-0.02928,0.00488,0.01952,0.03416,0.0488,-0.03904,-0.06344,0.03416,0.03416,0.03416,0.02928,0.01464
-0.03904,0.0122,0.01464,0.03416,0.05368,-0.04636,-0.05368,0.04392,0.04392,0.03904,0.03904,0.0244
-0.04392,0.02196,0,0.02196,0.04392,-0.04392,-0.04392,0.05368,0.05368,0.05856,0.04392,0.02928
-0.0244,0.00488,0.01464,0.02684,0.03904,-0.03172,-0.0488,0.0488,0.0488,0.05856,0.03904,0.01952
-0.0244,0.00488,0.01464,0.02684,0.03904,-0.03172,-0.05856,0.03416,0.03904,0.0488,0.02928,0.00488
-0.01952,0.00732,0.00488,0.01464,0.0244,-0.02196,-0.05856,0.02928,0.02928,0.03904,0.01952,-0.00976
-0.01952,0.0122,-0.00488,0.00488,0.01464,-0.01708,-0.05368,0.01952,0.03416,0.03904,0.01952,-0.00976
-0.02928,0.01952,-0.00976,0.00488,0.01952,-0.0244,-0.04392,0.02928,0.03904,0.04392,0.01952,-0.00488
-0.05368,0.0366,-0.01952,0.00732,0.03416,-0.04392,-0.03904,0.0244,0.03416,0.03904,0.01464,-0.00976
-0.0488,0.0366,-0.0244,0,0.0244,-0.0366,-0.0244,0.0244,0.04392,0.03904,0.00976,-0.00488
-0.02928,0.0244,-0.01952,-0.00488,0.00976,-0.01952,-0.01952,0.0244,0.04392,0.02928,0.00976,-0.00976
-0.03904,0.02684,-0.01464,0.00488,0.0244,-0.03172,-0.0244,0.01464,0.03416,0.02928,0.00976,-0.00976
-0.0488,0.03172,-0.01464,0.00976,0.03416,-0.04148,-0.0244,0.00488,0.0244,0.01952,-0.00488,-0.01952
-0.06344,0.0488,-0.03416,-0.00244,0.02928,-0.04636,-0.00976,0.00488,0.02928,0.01464,0.00488,-0.0244
-0.06832,0.0488,-0.02928,0.00488,0.03904,-0.05368,-0.01464,0,0.02928,0.00488,-0.00488,-0.02928
-0.06344,0.04392,-0.0244,0.00732,0.03904,-0.05124,-0.01952,-0.00488,0.0244,0.00976,-0.00976,-0.01952
-0.06832,0.05124,-0.03416,0,0.03416,-0.05124,-0.00976,-0.00488,0.0244,0.00976,-0.00976,-0.01952
-0.08296,0.0488,-0.01464,0.02684,0.06832,-0.07564,-0.00976,-0.00976,0.00976,0,-0.01952,-0.01952
-0.0732,0.04392,-0.01464,0.02196,0.05856,-0.06588,-0.00976,-0.01464,0.00488,-0.01464,-0.02928,-0.02928
-0.10248,0.06832,-0.03416,0.01708,0.06832,-0.0854,0.00488,-0.01464,0.01952,-0.01464,-0.0244,-0.01464
-0.11712,0.0854,-0.05368,0.00488,0.06344,-0.09028,0.00488,0,0.02928,-0.00488,-0.00976,-0.01464
-0.11224,0.0976,-0.08296,-0.02684,0.02928,-0.07076,0.00488,-0.00488,0.01464,-0.00976,-0.01464,-0.0244
-0.0976,0.08784,-0.07808,-0.02928,0.01952,-0.05856,-0.00976,-0.0244,0,-0.01952,-0.02928,-0.02928
-0.08296,0.07076,-0.05856,-0.01708,0.0244,-0.05368,-0.01464,-0.02928,0.00488,-0.0244,-0.0244,-0.03416
-0.0732,0.06588,-0.05856,-0.02196,0.01464,-0.04392,-0.01464,-0.02928,0.00488,-0.01952,-0.0244,-0.02928
-0.06832,0.06344,-0.05856,-0.0244,0.00976,-0.03904,-0.0244,-0.03416,-0.00488,-0.02928,-0.03416,-0.03416
-0.06832,0.05368,-0.03904,-0.00488,0.02928,-0.0488,-0.0244,-0.05368,-0.00976,-0.03904,-0.04392,-0.04392
-0.08296,0.06344,-0.04392,-0.00244,0.03904,-0.061,-0.0244,-0.05368,-0.01464,-0.03416,-0.0488,-0.04392
-0.0732,0.06344,-0.05368,-0.01708,0.01952,-0.04636,-0.0244,-0.06344,-0.01464,-0.03416,-0.0488,-0.0488
-0.07808,0.0732,-0.06832,-0.02928,0.00976,-0.04392,-0.00976,-0.04392,-0.00488,-0.0244,-0.03416,-0.03416
-0.08784,0.07076,-0.05368,-0.00976,0.03416,-0.061,-0.01464,-0.04392,-0.00488,-0.0244,-0.03416,-0.03416
-0.0976,0.06832,-0.03904,0.00976,0.05856,-0.07808,-0.01952,-0.04392,-0.01464,-0.03416,-0.03904,-0.03904
-0.0976,0.0732,-0.0488,0,0.0488,-0.0732,-0.01952,-0.04392,-0.01952,-0.03416,-0.03904,-0.03904
-0.09272,0.08052,-0.06832,-0.02196,0.0244,-0.05856,-0.01952,-0.04392,-0.01952,-0.04392,-0.03904,-0.0488
-0.07808,0.06832,-0.05856,-0.01952,0.01952,-0.0488,-0.01464,-0.03904,-0.00976,-0.03904,-0.03416,-0.03904
-0.0732,0.06832,-0.06344,-0.02684,0.00976,-0.04148,-0.00488,-0.03416,0,-0.0244,-0.0244,-0.02928
-0.05856,0.06588,-0.0732,-0.04392,-0.01464,-0.02196,-0.00488,-0.03904,0,-0.02928,-0.0244,-0.03416
-0.05856,0.06588,-0.0732,-0.04392,-0.01464,-0.02196,-0.00488,-0.0244,0.01464,-0.01952,-0.01952,-0.0244
-0.06832,0.0732,-0.07808,-0.04392,-0.00976,-0.02928,-0.00488,-0.0244,0.01464,-0.01464,-0.01952,-0.0244
-0.0732,0.06344,-0.05368,-0.01708,0.01952,-0.04636,-0.01464,-0.03416,0.00976,-0.0244,-0.02928,-0.03416
-0.08296,0.07076,-0.05856,-0.01708,0.0244,-0.05368,-0.01464,-0.03416,0.00976,-0.01464,-0.0244,-0.04392
-0.08784,0.07076,-0.05368,-0.00976,0.03416,-0.061,-0.01464,-0.03904,0.00976,-0.01464,-0.03416,-0.0488
-0.09272,0.0732,-0.05368,-0.00732,0.03904,-0.06588,-0.01464,-0.02928,0.01464,-0.00976,-0.02928,-0.04392
-0.09272,0.061,-0.02928,0.01708,0.06344,-0.07808,-0.01464,-0.02928,0.01952,-0.00976,-0.02928,-0.03904
-0.10248,0.06588,-0.02928,0.02196,0.0732,-0.08784,-0.01464,-0.02928,0.01952,-0.00976,-0.0244,-0.03904
-0.09272,0.05612,-0.01952,0.02684,0.0732,-0.08296,-0.0244,-0.03416,0.01464,-0.00976,-0.0244,-0.03904
-0.07808,0.0488,-0.01952,0.01952,0.05856,-0.06832,-0.02928,-0.03416,0.00488,-0.01952,-0.0244,-0.04392
-0.0732,0.04636,-0.01952,0.01708,0.05368,-0.06344,-0.0244,-0.03416,-0.00488,-0.03904,-0.03904,-0.03904
-0.06832,0.05368,-0.03904,-0.00488,0.02928,-0.0488,-0.01952,-0.02928,0,-0.03416,-0.03416,-0.02928
-0.0732,0.061,-0.0488,-0.0122,0.0244,-0.0488,-0.01952,-0.01952,0.00976,-0.0244,-0.03416,-0.01952
-0.07808,0.06344,-0.0488,-0.00976,0.02928,-0.05368,-0.01952,-0.01952,0.00488,-0.0244,-0.03416,-0.0244
-0.0732,0.05856,-0.04392,-0.00732,0.02928,-0.05124,-0.01464,-0.01952,0.00488,-0.01952,-0.03416,-0.03416
-0.08296,0.08052,-0.07808,-0.0366,0.00488,-0.04392,-0.01464,-0.01464,0.00488,-0.01952,-0.03416,-0.03416
-0.07808,0.0732,-0.06832,-0.02928,0.00976,-0.04392,-0.00976,-0.0244,0.00488,-0.0244,-0.03904,-0.03904
-0.08784,0.0732,-0.05856,-0.01464,0.02928,-0.05856,-0.00976,-0.02928,-0.00488,-0.02928,-0.03904,-0.04392
-0.0976,0.08052,-0.06344,-0.01464,0.03416,-0.06588,-0.01464,-0.0244,0,-0.03416,-0.02928,-0.03416
-0.10248,0.09028,-0.07808,-0.02684,0.0244,-0.06344,-0.01464,-0.0244,0,-0.03416,-0.02928,-0.02928
-0.08784,0.07564,-0.06344,-0.01952,0.0244,-0.05612,-0.01464,-0.0244,0,-0.02928,-0.02928,-0.02928
-0.08296,0.06344,-0.04392,-0.00244,0.03904,-0.061,-0.01952,-0.0244,0,-0.02928,-0.02928,-0.03416
-0.09272,0.06832,-0.04392,0.00244,0.0488,-0.07076,-0.01952,-0.02928,0,-0.03416,-0.04392,-0.03416
-0.08784,0.0732,-0.05856,-0.01464,0.02928,-0.05856,-0.01952,-0.02928,0,-0.03416,-0.04392,-0.03416
-0.0976,0.0854,-0.0732,-0.0244,0.0244,-0.061,-0.01952,-0.02928,0,-0.04392,-0.04392,-0.04392
-0.08296,0.06832,-0.05368,-0.0122,0.02928,-0.05612,-0.01464,-0.02928,0,-0.03904,-0.04392,-0.04392
-0.07808,0.06588,-0.05368,-0.01464,0.0244,-0.05124,-0.01464,-0.02928,0,-0.02928,-0.03416,-0.03416
-0.06344,0.05612,-0.0488,-0.01708,0.01464,-0.03904,-0.01464,-0.02928,0,-0.02928,-0.03416,-0.03904
-0.06832,0.06588,-0.06344,-0.02928,0.00488,-0.0366,-0.01464,-0.02928,0,-0.03416,-0.04392,-0.03416
-0.0732,0.06832,-0.06344,-0.02684,0.00976,-0.04148,-0.01464,-0.02928,0,-0.03416,-0.04392,-0.03416
-0.06832,0.06588,-0.06344,-0.02928,0.00488,-0.0366,-0.0244,-0.0488,-0.01464,-0.0488,-0.05368,-0.03904
-0.06344,0.061,-0.05856,-0.02684,0.00488,-0.03416,-0.0244,-0.04392,-0.01464,-0.0488,-0.0488,-0.03904
-0.0732,0.06832,-0.06344,-0.02684,0.00976,-0.04148,-0.01952,-0.04392,-0.01952,-0.04392,-0.04392,-0.03416
-0.08784,0.09028,-0.09272,-0.0488,-0.00488,-0.04148,0.00488,-0.03416,-0.00488,-0.02928,-0.04392,-0.03416
-0.10248,0.10248,-0.10248,-0.05124,0,-0.05124,0.00976,-0.03416,-0.00488,-0.0244,-0.0488,-0.03904
-0.10248,0.10492,-0.10736,-0.05612,-0.00488,-0.0488,0.00976,-0.03416,-0.00488,-0.03416,-0.0488,-0.03904
-0.0976,0.09028,-0.08296,-0.03416,0.01464,-0.05612,0.01464,-0.03416,-0.01464,-0.03904,-0.0488,-0.0488
-0.10736,0.10004,-0.09272,-0.03904,0.01464,-0.061,0.01952,-0.03416,-0.00976,-0.03904,-0.04392,-0.0488
-0.122,0.11468,-0.10736,-0.04636,0.01464,-0.06832,0.02928,-0.0244,-0.00488,-0.02928,-0.03416,-0.03416
-0.12688,0.11956,-0.11224,-0.0488,0.01464,-0.07076,0.03416,-0.01952,0.00976,-0.0244,-0.03416,-0.03416
-0.122,0.10492,-0.08784,-0.02684,0.03416,-0.07808,0.0244,-0.0244,0.00488,-0.03416,-0.04392,-0.04392
-0.11224,0.10736,-0.10248,-0.04636,0.00976,-0.061,0.01464,-0.0244,0,-0.03904,-0.04392,-0.04392
-0.08784,0.07808,-0.06832,-0.0244,0.01952,-0.05368,0,-0.04392,-0.00976,-0.0488,-0.0488,-0.03416
-0.0976,0.09028,-0.08296,-0.03416,0.01464,-0.05612,0.00976,-0.03416,0,-0.04392,-0.04392,-0.04392
-0.06832,0.06344,-0.05856,-0.0244,0.00976,-0.03904,-0.01952,-0.03904,-0.01952,-0.0488,-0.05856,-0.0488
-0.07808,0.07808,-0.07808,-0.03904,0,-0.03904,0,-0.01952,0,-0.02928,-0.03904,-0.03904
-0.07808,0.08296,-0.08784,-0.0488,-0.00976,-0.03416,0.00976,-0.00976,0.01952,-0.00976,-0.02928,-0.02928
-0.08784,0.04636,-0.00488,0.03904,0.08296,-0.0854,-0.00976,-0.01952,0.00976,-0.00976,-0.03416,-0.03416
-0.07808,0.01952,0.03904,0.07808,0.11712,-0.0976,-0.01952,-0.0244,0.00976,-0.01952,-0.03904,-0.03416
-0.0732,0.03172,0.00976,0.04636,0.08296,-0.07808,-0.01464,-0.00976,0.0244,-0.00976,-0.02928,-0.0244
-0.06344,0.0366,-0.00976,0.02196,0.05368,-0.05856,-0.00976,-0.00976,0.01952,-0.00976,-0.02928,-0.0244
-0.05368,0.0366,-0.01952,0.00732,0.03416,-0.04392,-0.00976,-0.00488,0.03416,0,-0.0244,-0.01464
-0.03904,0.0244,-0.00976,0.00976,0.02928,-0.03416,-0.00488,0,0.04392,0.01464,-0.01464,-0.00488
-0.06832,0.04392,-0.01952,0.01464,0.0488,-0.05856,-0.00488,0.00488,0.05368,0.00976,-0.01464,0.00488
-0.06344,0.05612,-0.0488,-0.01708,0.01464,-0.03904,-0.01464,0.00488,0.0488,0.00488,-0.00976,0.00976
-0.05368,0.05124,-0.0488,-0.02196,0.00488,-0.02928,-0.0488,-0.01464,0.0244,0,-0.01952,-0.00488
-0.03904,0.03904,-0.03904,-0.01952,0,-0.01952,-0.05856,-0.01464,0.00976,-0.00488,-0.01952,-0.01952
-0.01464,0.02196,-0.02928,-0.02196,-0.01464,0,-0.05368,0,0.01952,0.00976,-0.00488,0
0,0.01464,-0.02928,-0.02928,-0.02928,0.01464,-0.05368,-0.00488,0.00976,0.00976,-0.00976,0
-0.01952,0.0366,-0.05368,-0.04392,-0.03416,0.00732,-0.06344,-0.01952,0.01464,0,-0.00976,0.00488
-0.0244,0.0244,-0.0244,-0.0122,0,-0.0122,-0.05856,-0.0244,0.01464,0.00488,-0.00488,0.00976
-0.0244,0.0244,-0.0244,-0.0122,0,-0.0122,-0.0488,-0.01952,0.00976,0,-0.00488,0.01952
-0.04392,0.0488,-0.05368,-0.03172,-0.00976,-0.01708,-0.04392,-0.01464,-0.01464,-0.01464,-0.01464,0.01464
-0.07808,0.06832,-0.05856,-0.01952,0.01952,-0.0488,-0.03904,-0.0244,-0.01952,-0.02928,-0.02928,0
-0.10248,0.08784,-0.0732,-0.02196,0.02928,-0.06588,-0.01464,-0.01464,-0.00976,-0.02928,-0.0244,0.00488
-0.07808,0.0732,-0.06832,-0.02928,0.00976,-0.04392,-0.0244,-0.0244,-0.01464,-0.03416,-0.03416,-0.00976
-0.05368,0.06588,-0.07808,-0.05124,-0.0244,-0.01464,-0.0244,-0.02928,-0.0244,-0.0488,-0.0488,-0.01464
-0.04392,0.061,-0.07808,-0.05612,-0.03416,-0.00488,-0.03904,-0.0488,-0.03904,-0.05856,-0.05856,-0.03904
-0.03904,0.05856,-0.07808,-0.05856,-0.03904,0,-0.04392,-0.04392,-0.03904,-0.05368,-0.05856,-0.0488
-0.08296,0.08784,-0.09272,-0.05124,-0.00976,-0.0366,-0.0244,-0.04392,-0.02928,-0.04392,-0.0488,-0.02928
-0.10736,0.10736,-0.10736,-0.05368,0,-0.05368,0,-0.03416,-0.01464,-0.02928,-0.0488,-0.0244
-0.11712,0.1098,-0.10248,-0.04392,0.01464,-0.06588,-0.00976,-0.03904,-0.02928,-0.05368,-0.05856,-0.02928
-0.11712,0.11712,-0.11712,-0.05856,0,-0.05856,-0.00488,-0.03904,-0.02928,-0.05368,-0.06344,-0.03904
-0.13664,0.13664,-0.13664,-0.06832,0,-0.06832,-0.00976,-0.0488,-0.03904,-0.06344,-0.0732,-0.05368
-0.16104,0.1586,-0.15616,-0.07564,0.00488,-0.08296,0.00488,-0.04392,-0.03416,-0.05856,-0.0732,-0.05856
-0.1464,0.14396,-0.14152,-0.06832,0.00488,-0.07564,0.00488,-0.04392,-0.0244,-0.05856,-0.06344,-0.05368
-0.15128,0.1464,-0.14152,-0.06588,0.00976,-0.08052,0.00488,-0.04392,-0.02928,-0.05368,-0.05856,-0.03904
-0.13664,0.12932,-0.122,-0.05368,0.01464,-0.07564,0.00976,-0.03904,-0.0244,-0.05856,-0.06832,-0.04392
-0.122,0.13176,-0.14152,-0.08052,-0.01952,-0.05124,0.00976,-0.03904,-0.0244,-0.06344,-0.06832,-0.04392
-0.10736,0.1098,-0.11224,-0.05856,-0.00488,-0.05124,0,-0.05856,-0.04392,-0.05856,-0.06832,-0.05368
-0.11224,0.12688,-0.14152,-0.0854,-0.02928,-0.04148,0.00488,-0.05368,-0.03904,-0.05368,-0.06344,-0.0488
-0.122,0.122,-0.122,-0.061,0,-0.061,-0.00488,-0.05368,-0.0488,-0.06344,-0.07808,-0.0488
-0.12688,0.11956,-0.11224,-0.0488,0.01464,-0.07076,-0.00488,-0.06344,-0.0488,-0.06832,-0.07808,-0.05856
-0.13664,0.12932,-0.122,-0.05368,0.01464,-0.07564,-0.00488,-0.04392,-0.03904,-0.06344,-0.07808,-0.05368
-0.13664,0.13176,-0.12688,-0.05856,0.00976,-0.0732,-0.00488,-0.04392,-0.03416,-0.06344,-0.0732,-0.05368
-0.14152,0.13908,-0.13664,-0.06588,0.00488,-0.0732,0.00488,-0.05368,-0.03416,-0.05856,-0.08296,-0.06344
-0.14152,0.13664,-0.13176,-0.061,0.00976,-0.07564,0.01464,-0.05368,-0.03416,-0.05856,-0.08296,-0.06832
-0.16104,0.14396,-0.12688,-0.04636,0.03416,-0.0976,0,-0.0488,-0.03416,-0.06344,-0.08784,-0.06832
-0.17568,0.16104,-0.1464,-0.05856,0.02928,-0.10248,0.00488,-0.03904,-0.02928,-0.05856,-0.08784,-0.06832
-0.15128,0.12932,-0.10736,-0.03172,0.04392,-0.0976,0.03904,-0.02928,-0.00976,-0.0488,-0.08296,-0.05856
-0.19032,0.17324,-0.15616,-0.061,0.03416,-0.11224,0.09272,-0.0244,0.03416,-0.05368,-0.08296,-0.0732
-0.1952,0.15616,-0.11712,-0.01952,0.07808,-0.13664,0.10248,-0.00488,0.06344,-0.02928,-0.0732,-0.08296
-0.20496,0.14396,-0.08296,0.01952,0.122,-0.16348,0.11712,0.0488,0.12688,0.01952,-0.05368,-0.0732
-0.1464,0.07564,-0.00488,0.06832,0.14152,-0.14396,0.10736,0.1464,0.20984,0.14152,0.04392,0
-0.00976,-0.00732,0.0244,0.02928,0.03416,-0.02196,0.07808,0.2928,0.30744,0.28304,0.17568,0.10248
0.20008,-0.17812,0.15616,0.05612,-0.04392,0.122,-0.06344,0.40504,0.31232,0.40016,0.2928,0.21472
0.45872,-0.37088,0.28304,0.05368,-0.17568,0.3172,-0.20984,0.5856,0.35136,0.59048,0.47336,0.366
0.69784,-0.549,0.40016,0.05124,-0.29768,0.49776,-0.41968,0.6588,0.28792,0.69784,0.60512,0.49776
0.83448,-0.64904,0.4636,0.04636,-0.37088,0.60268,-0.59048,0.66856,0.1952,0.732,0.67832,0.57096
0.83448,-0.57096,0.30744,-0.1098,-0.52704,0.68076,-0.6344,0.56608,-0.00976,0.52216,0.5368,0.49288
0.72224,-0.40748,0.09272,-0.2684,-0.62952,0.67588,-0.59048,0.29768,-0.28792,0.13664,0.25376,0.28304
0.47824,-0.20496,-0.06832,-0.30744,-0.54656,0.5124,-0.54168,-0.18544,-0.55144,-0.1708,0.0488,0.14152
0.22448,0,-0.22448,-0.33672,-0.44896,0.33672,-0.44408,-0.60512,-0.74176,-0.41968,-0.14152,0.00976
0.13176,0.06588,-0.26352,-0.3294,-0.39528,0.26352,-0.34648,-0.5612,-0.70272,-0.43432,-0.17568,-0.0244
0.05368,0.0976,-0.24888,-0.27572,-0.30256,0.17812,-0.24888,-0.4392,-0.56608,-0.37088,-0.16592,-0.02928
0.0244,0.08052,-0.18544,-0.19764,-0.20984,0.11712,-0.16104,-0.31232,-0.42944,-0.28304,-0.13664,-0.0244
-0.03904,0.11224,-0.18544,-0.16592,-0.1464,0.05368,-0.0976,-0.20984,-0.28792,-0.20496,-0.10248,-0.0244
-0.05368,0.0976,-0.14152,-0.11468,-0.08784,0.01708,-0.06832,-0.15616,-0.21472,-0.16592,-0.0976,-0.03904
-0.08296,0.11712,-0.15128,-0.1098,-0.06832,-0.00732,-0.03904,-0.11224,-0.14152,-0.13664,-0.08784,-0.04392
-0.10248,0.12444,-0.1464,-0.09516,-0.04392,-0.02928,-0.01464,-0.08296,-0.09272,-0.10248,-0.08296,-0.05368
-0.11712,0.11224,-0.10736,-0.0488,0.00976,-0.06344,-0.01952,-0.07808,-0.08784,-0.09272,-0.08296,-0.06344
-0.12688,0.122,-0.11712,-0.05368,0.00976,-0.06832,-0.00488,-0.07808,-0.06832,-0.08784,-0.08296,-0.05368
-0.13176,0.13176,-0.13176,-0.06588,0,-0.06588,0,-0.07808,-0.05856,-0.08296,-0.08784,-0.0732
-0.14152,0.13664,-0.13176,-0.061,0.00976,-0.07564,0,-0.07808,-0.05368,-0.08296,-0.08784,-0.0732
-0.15616,0.14396,-0.13176,-0.05368,0.0244,-0.09028,0.01464,-0.06344,-0.0488,-0.0732,-0.07808,-0.07808
-0.1708,0.15616,-0.14152,-0.05612,0.02928,-0.10004,0.01464,-0.06344,-0.04392,-0.0732,-0.07808,-0.0732
-0.15616,0.14396,-0.13176,-0.05368,0.0244,-0.09028,0.01952,-0.06344,-0.03416,-0.06344,-0.07808,-0.0732
-0.16104,0.14152,-0.122,-0.04148,0.03904,-0.10004,0.0244,-0.05856,-0.02928,-0.05856,-0.07808,-0.0732
-0.15128,0.13908,-0.12688,-0.05124,0.0244,-0.08784,0.03416,-0.05856,-0.03416,-0.06832,-0.08784,-0.05856
-0.14152,0.12932,-0.11712,-0.04636,0.0244,-0.08296,0.02928,-0.05856,-0.03416,-0.07808,-0.09272,-0.06832
-0.15128,0.13176,-0.11224,-0.0366,0.03904,-0.09516,0.03904,-0.05856,-0.0244,-0.06832,-0.07808,-0.06344
-0.16104,0.1342,-0.10736,-0.02684,0.05368,-0.10736,0.03904,-0.05856,-0.03416,-0.0732,-0.08784,-0.06832
-0.17568,0.15616,-0.13664,-0.0488,0.03904,-0.10736,0.0488,-0.05856,-0.02928,-0.06344,-0.08296,-0.06832
-0.20008,0.17324,-0.1464,-0.04636,0.05368,-0.12688,0.0488,-0.05856,-0.02928,-0.06344,-0.08296,-0.06344
-0.18544,0.16104,-0.13664,-0.04392,0.0488,-0.11712,0.0488,-0.05856,-0.02928,-0.0732,-0.08296,-0.0732
-0.1708,0.14396,-0.11712,-0.03172,0.05368,-0.11224,0.03904,-0.05856,-0.02928,-0.0732,-0.08296,-0.0732
-0.1464,0.12688,-0.10736,-0.03416,0.03904,-0.09272,0.03416,-0.05856,-0.02928,-0.07808,-0.08784,-0.0732
-0.13664,0.11956,-0.10248,-0.03416,0.03416,-0.0854,0.03416,-0.06832,-0.0488,-0.08296,-0.0976,-0.07808
-0.122,0.10736,-0.09272,-0.03172,0.02928,-0.07564,0.0244,-0.07808,-0.0488,-0.08784,-0.10736,-0.08784
-0.12688,0.10736,-0.08784,-0.0244,0.03904,-0.08296,0.0244,-0.08296,-0.0488,-0.08296,-0.10736,-0.08784
-0.13664,0.11712,-0.0976,-0.02928,0.03904,-0.08784,0.02928,-0.0732,-0.04392,-0.07808,-0.0976,-0.07808
-0.15128,0.13664,-0.122,-0.04636,0.02928,-0.09028,0.04392,-0.06344,-0.03416,-0.0732,-0.08784,-0.0732
-0.15616,0.13908,-0.122,-0.04392,0.03416,-0.09516,0.03904,-0.05856,-0.03904,-0.07808,-0.08784,-0.06832
-0.16592,0.1464,-0.12688,-0.04392,0.03904,-0.10248,0.04392,-0.05856,-0.03416,-0.0732,-0.08296,-0.06832
-0.16104,0.14396,-0.12688,-0.04636,0.03416,-0.0976,0.0488,-0.0488,-0.01952,-0.06832,-0.07808,-0.06344
-0.15616,0.13176,-0.10736,-0.02928,0.0488,-0.10248,0.05856,-0.04392,-0.01464,-0.06344,-0.0732,-0.05856
-0.1464,0.12444,-0.10248,-0.02928,0.04392,-0.09516,0.0488,-0.05856,-0.0244,-0.06832,-0.07808,-0.05856
-0.13664,0.12688,-0.11712,-0.0488,0.01952,-0.07808,0.04392,-0.06832,-0.03904,-0.0732,-0.08296,-0.06344
-0.12688,0.1098,-0.09272,-0.02928,0.03416,-0.08052,0.03904,-0.0732,-0.04392,-0.08296,-0.08784,-0.05856
-0.11224,0.10004,-0.08784,-0.03172,0.0244,-0.06832,0.03904,-0.0732,-0.03904,-0.07808,-0.08784,-0.05856
-0.10736,0.10492,-0.10248,-0.0488,0.00488,-0.05612,0.0488,-0.06832,-0.02928,-0.0732,-0.07808,-0.0488
-0.11224,0.10248,-0.09272,-0.0366,0.01952,-0.06588,0.0488,-0.05856,-0.03416,-0.0732,-0.07808,-0.0488
-0.13176,0.10736,-0.08296,-0.01708,0.0488,-0.09028,0.02928,-0.06344,-0.04392,-0.0732,-0.09272,-0.06344
-0.13176,0.11224,-0.09272,-0.02684,0.03904,-0.0854,0.02928,-0.06344,-0.03904,-0.0732,-0.08784,-0.06344
-0.13664,0.10736,-0.07808,-0.00976,0.05856,-0.0976,0.02928,-0.06344,-0.03904,-0.0732,-0.08784,-0.05856
-0.13664,0.11224,-0.08784,-0.01952,0.0488,-0.09272,0.03416,-0.05856,-0.03416,-0.06832,-0.08296,-0.05368
-0.12688,0.09272,-0.05856,0.00488,0.06832,-0.0976,0.03416,-0.06832,-0.03416,-0.07808,-0.08784,-0.05856
-0.122,0.0976,-0.0732,-0.0122,0.0488,-0.0854,0.0488,-0.06344,-0.0244,-0.06344,-0.08296,-0.05368
-0.12688,0.0976,-0.06832,-0.00488,0.05856,-0.09272,0.0488,-0.06344,-0.0244,-0.06832,-0.07808,-0.05368
-0.122,0.0854,-0.0488,0.0122,0.0732,-0.0976,0.04392,-0.05856,-0.03416,-0.06832,-0.07808,-0.05368
-0.11712,0.08296,-0.0488,0.00976,0.06832,-0.09272,0.04392,-0.05856,-0.0244,-0.06832,-0.07808,-0.04392
-0.10248,0.07808,-0.05368,-0.00244,0.0488,-0.07564,0.04392,-0.05368,-0.0244,-0.06344,-0.0732,-0.04392
-0.0976,0.08052,-0.06344,-0.01464,0.03416,-0.06588,0.05856,-0.04392,-0.01952,-0.05368,-0.06344,-0.03904
-0.08784,0.0732,-0.05856,-0.01464,0.02928,-0.05856,0.05856,-0.03904,-0.01952,-0.0488,-0.05856,-0.03904
-0.0732,0.05612,-0.03904,-0.00244,0.03416,-0.05368,0.04392,-0.04392,-0.01464,-0.05368,-0.06344,-0.04392
-0.06832,0.0488,-0.02928,0.00488,0.03904,-0.05368,0.03904,-0.04392,-0.01464,-0.05368,-0.06344,-0.04392
-0.06832,0.04636,-0.0244,0.00976,0.04392,-0.05612,0.03904,-0.03904,-0.00976,-0.04392,-0.05368,-0.03904
-0.0732,0.05124,-0.02928,0.00732,0.04392,-0.05856,0.04392,-0.0244,-0.00488,-0.03416,-0.0488,-0.0244
-0.0732,0.0488,-0.0244,0.0122,0.0488,-0.061,0.04392,0,0,-0.0244,-0.04392,-0.00976
-0.05856,0.0366,-0.01464,0.01464,0.04392,-0.05124,0.02928,0.00488,0,-0.01952,-0.03904,-0.00976
-0.06344,0.0488,-0.03416,-0.00244,0.02928,-0.04636,0.02928,0.00488,0.00976,-0.01464,-0.0244,-0.00976
-0.06344,0.04636,-0.02928,0.00244,0.03416,-0.0488,0.03416,0.01464,0.01952,0,-0.00976,0.00488
-0.06344,0.03904,-0.01464,0.01708,0.0488,-0.05612,0.01952,0.00488,0.00976,-0.00488,-0.01464,0
-0.06344,0.03904,-0.01464,0.01708,0.0488,-0.05612,0.01952,0.01464,0.01464,0.00488,-0.01464,0.00488
-0.05856,0.03172,-0.00488,0.0244,0.05368,-0.05612,0.01952,0.01952,0.01464,0.00976,-0.00976,0.00976
-0.04392,0.02196,0,0.02196,0.04392,-0.04392,0.01464,0.01952,0.01464,0.00976,-0.00488,0.00976
-0.00976,0.00488,0,0.00488,0.00976,-0.00976,0.01464,0.02928,0.03416,0.03416,0.01464,0.00976
0.01952,-0.02928,0.03904,0.02928,0.01952,0,0.00488,0.03416,0.03416,0.03416,0.01952,0.01464
0.02928,-0.0366,0.04392,0.02928,0.01464,0.00732,0.00488,0.05368,0.02928,0.03416,0.01952,0.0244
0.03904,-0.04636,0.05368,0.03416,0.01464,0.0122,0.00488,0.05368,0.02928,0.03416,0.0244,0.0244
0.03904,-0.06344,0.08784,0.06832,0.0488,-0.00488,-0.01464,0.05368,0.03416,0.03904,0.0244,0.02928
0.05856,-0.07564,0.09272,0.06344,0.03416,0.0122,-0.0244,0.05368,0.02928,0.03904,0.0244,0.02928
0.05856,-0.07076,0.08296,0.05368,0.0244,0.01708,-0.01952,0.05856,0.02928,0.04392,0.02928,0.03416
0.06344,-0.07564,0.08784,0.05612,0.0244,0.01952,-0.0244,0.06344,0.03416,0.05368,0.03416,0.03904
0.05856,-0.07076,0.08296,0.05368,0.0244,0.01708,-0.01464,0.0732,0.0488,0.06832,0.0488,0.0488
0.05856,-0.07076,0.08296,0.05368,0.0244,0.01708,-0.01464,0.07808,0.0488,0.0732,0.05368,0.05368
0.05856,-0.061,0.06344,0.03416,0.00488,0.02684,-0.00488,0.08784,0.05368,0.08296,0.05856,0.05368
0.06344,-0.05612,0.0488,0.01708,-0.01464,0.03904,-0.00488,0.09272,0.05368,0.08784,0.06344,0.05856
0.06344,-0.06588,0.06832,0.0366,0.00488,0.02928,-0.00976,0.08296,0.04392,0.07808,0.06344,0.05368
0.06344,-0.07076,0.07808,0.04636,0.01464,0.0244,-0.01464,0.08296,0.04392,0.0732,0.05856,0.05368
0.0488,-0.05856,0.06832,0.04392,0.01952,0.01464,-0.01464,0.08296,0.05368,0.0732,0.05856,0.05368
0.04392,-0.04392,0.04392,0.02196,0,0.02196,-0.00488,0.09272,0.06344,0.08296,0.06344,0.05856
0.03904,-0.0366,0.03416,0.01464,-0.00488,0.02196,-0.01464,0.09272,0.06344,0.08296,0.06344,0.05368
0.02928,-0.03172,0.03416,0.01952,0.00488,0.0122,-0.01464,0.08784,0.06344,0.08296,0.06344,0.0488
0.02928,-0.04148,0.05368,0.03904,0.0244,0.00244,-0.01952,0.08784,0.0488,0.06832,0.0488,0.0488
0.02928,-0.04636,0.06344,0.0488,0.03416,-0.00244,-0.01464,0.07808,0.05368,0.06832,0.0488,0.0488
0.02928,-0.061,0.09272,0.07808,0.06344,-0.01708,0,0.07808,0.05368,0.06832,0.0488,0.05368
0.00488,-0.0488,0.09272,0.09028,0.08784,-0.04148,0.01464,0.0732,0.05856,0.0732,0.04392,0.0488
0.01464,-0.04148,0.06832,0.061,0.05368,-0.01952,0.0244,0.0732,0.05368,0.06832,0.03904,0.04392
0.0244,-0.03416,0.04392,0.03172,0.01952,0.00244,0.02928,0.0732,0.05368,0.05856,0.03904,0.03904
0.0244,-0.02196,0.01952,0.00732,-0.00488,0.01464,0.0244,0.0732,0.05368,0.0488,0.02928,0.03904
0.04392,-0.02684,0.00976,-0.0122,-0.03416,0.03904,0.0244,0.06344,0.04392,0.03904,0.01464,0.02928
0.03416,-0.01708,0,-0.01708,-0.03416,0.03416,0.02928,0.04392,0.03904,0.04392,0.01464,0.0244
0.02928,-0.02196,0.01464,0,-0.01464,0.02196,0.0244,0.03904,0.03904,0.03416,0.00488,0.01952
0.01464,-0.01464,0.01464,0.00732,0,0.00732,0.0244,0.03416,0.0244,0.01952,-0.00976,0.01464
0.00976,-0.00732,0.00488,0,-0.00488,0.00732,0.0244,0.03416,0.0244,0.01952,-0.00976,0.00488
-0.00488,-0.00488,0.01464,0.01708,0.01952,-0.0122,0.0244,0.03904,0.0244,0.01952,-0.00488,0.00976
0.00488,-0.00976,0.01464,0.0122,0.00976,-0.00244,0.03416,0.03416,0.02928,0.0244,-0.00488,0
-0.00976,-0.00732,0.0244,0.02928,0.03416,-0.02196,0.03416,0.02928,0.03416,0.02928,0.00976,0.01464
-0.01464,-0.00488,0.0244,0.03172,0.03904,-0.02684,0.03416,0.03416,0.03416,0.02928,0.01464,0.01464
-0.01464,-0.00488,0.0244,0.03172,0.03904,-0.02684,0.02928,0.01952,0.01952,0.01952,0.00488,0.00488
-0.01952,-0.00488,0.02928,0.03904,0.0488,-0.03416,0.0244,0.00976,0.01464,0.00976,-0.00976,0
-0.00488,-0.0122,0.02928,0.03172,0.03416,-0.01952,0.0244,0,0.01464,-0.00488,-0.01464,0.00488
0.00488,-0.00732,0.00976,0.00732,0.00488,0,0.0244,0,0.01464,0,-0.01464,0.00976
-0.00976,0.00976,-0.00976,-0.00488,0,-0.00488,0.0244,0.00976,0.00488,0,-0.00488,0.01464
-0.00976,0,0.00976,0.01464,0.01952,-0.01464,0.0244,0,0,-0.00976,-0.01464,0.00488
-0.00488,-0.00732,0.01952,0.02196,0.0244,-0.01464,0.0244,-0.00488,0.00488,-0.00488,-0.01952,0.00976
0.00488,-0.0122,0.01952,0.01708,0.01464,-0.00488,0.0244,-0.01464,0.00488,-0.00488,-0.01952,-0.00488
0,0.00488,-0.00976,-0.00976,-0.00976,0.00488,0.02928,0.00488,0.01464,-0.00488,-0.01464,0.00488
-0.00976,0.00244,0.00488,0.00976,0.01464,-0.0122,0.0244,0.00488,0.01464,-0.00488,-0.01464,0.00488
-0.01464,0.00244,0.00976,0.01708,0.0244,-0.01952,0.0244,0.00488,0.0244,0,-0.00976,0.00976
-0.0244,0.0122,0,0.0122,0.0244,-0.0244,0.03416,0.00488,0.01952,0.00976,-0.00976,0.00976
-0.02928,0.02196,-0.01464,0,0.01464,-0.02196,0.03904,0.00488,0.01952,0.01464,-0.00976,0
-0.0244,0.00976,0.00488,0.01708,0.02928,-0.02684,0.04392,0.00976,0.02928,0.01952,-0.00488,0.00976
-0.01464,0,0.01464,0.02196,0.02928,-0.02196,0.03416,0.00488,0.0244,0.01952,-0.01464,0.00976
0,-0.0122,0.0244,0.0244,0.0244,-0.0122,0.03416,0,0.01464,0.00488,-0.01464,0.00488
-0.00976,-0.00732,0.0244,0.02928,0.03416,-0.02196,0.04392,0.01464,0.01952,0.00488,0,0.00976
-0.01952,0.00976,0,0.00976,0.01952,-0.01952,0.04392,0.01464,0.02928,0.01952,0,0.01952
-0.01464,0,0.01464,0.02196,0.02928,-0.02196,0.03904,0.00488,0.01952,0.00488,-0.00976,0.00976
-0.00488,-0.00244,0.00976,0.0122,0.01464,-0.00976,0.02928,0.00488,0.01952,0.01464,-0.00488,0.00976
0.00488,-0.0122,0.01952,0.01708,0.01464,-0.00488,0.01464,0,0.00976,0.00488,-0.01464,0
0.00976,-0.01952,0.02928,0.0244,0.01952,-0.00488,0.01464,0.00976,0.01464,0.00976,-0.00976,0.00488
0.01464,-0.02684,0.03904,0.03172,0.0244,-0.00488,0.0244,0.01952,0.02928,0.01952,0,0.00976
0.00488,-0.0122,0.01952,0.01708,0.01464,-0.00488,0.0244,0.01952,0.02928,0.01952,0.00488,0.00976
0.00488,-0.00732,0.00976,0.00732,0.00488,0,0.03416,0.0244,0.03904,0.0244,0.00488,0.01952
0.01952,-0.01464,0.00976,0,-0.00976,0.01464,0.02928,0.0244,0.03904,0.0244,0.00488,0.01464
0.00976,-0.01708,0.0244,0.01952,0.01464,-0.00244,0.01464,0.01464,0.0244,0.01952,0,0.00488
0.00488,-0.00976,0.01464,0.0122,0.00976,-0.00244,0.01952,0.01952,0.02928,0.0244,0.00488,0.00488
-0.01464,0.00244,0.00976,0.01708,0.0244,-0.01952,0.01952,0.02928,0.02928,0.01464,-0.00488,0.00976
-0.01952,0.00488,0.00976,0.01952,0.02928,-0.0244,0.01952,0.02928,0.0244,0.01464,-0.00488,0.00488
-0.00488,-0.0122,0.02928,0.03172,0.03416,-0.01952,0.0244,0.01952,0.03416,0.01952,-0.00488,0.00488
-0.01464,0.00488,0.00488,0.0122,0.01952,-0.01708,0.0244,0.0244,0.03416,0.01952,-0.00488,0.00488
0.00488,-0.0122,0.01952,0.01708,0.01464,-0.00488,0.01952,0.0244,0.0244,0.01464,-0.00976,0
0.00488,-0.01708,0.02928,0.02684,0.0244,-0.00976,0.01952,0.01952,0.01464,0.00976,-0.00976,-0.00488
0.01464,-0.02196,0.02928,0.02196,0.01464,0,0.03416,0.03416,0.0244,0.01952,-0.00488,0
0.01952,-0.02196,0.0244,0.01464,0.00488,0.00732,0.03416,0.03416,0.03416,0.02928,0.00488,0.01464
0.01952,-0.0244,0.02928,0.01952,0.00976,0.00488,0.0244,0.02928,0.02928,0.02928,0,0.01464
0.00488,-0.0122,0.01952,0.01708,0.01464,-0.00488,0.01952,0.01952,0.02928,0.02928,0,0
0.00488,-0.00488,0.00488,0.00244,0,0.00244,0.02928,0.01952,0.02928,0.0244,0.00488,0.00488
0.00976,-0.00976,0.00976,0.00488,0,0.00488,0.02928,0.01952,0.02928,0.0244,0.00488,0.00488
0,0,0,0,0,0,0.02928,0.01952,0.02928,0.01464,-0.00488,0.00488
0.01464,-0.0122,0.00976,0.00244,-0.00488,0.00976,0.03416,0.01952,0.02928,0.01952,-0.00488,0.00488
0.00488,-0.00976,0.01464,0.0122,0.00976,-0.00244,0.0244,0.01952,0.02928,0.00976,-0.00488,-0.00488
0.00976,-0.01464,0.01952,0.01464,0.00976,0,0.0244,0.01952,0.02928,0.00976,-0.00488,-0.00976
0.00976,-0.01708,0.0244,0.01952,0.01464,-0.00244,0.03416,0.02928,0.02928,0.00976,0.00488,-0.00488
0.00488,-0.01464,0.0244,0.02196,0.01952,-0.00732,0.03416,0.02928,0.02928,0.01952,0.00488,-0.00488
-0.00976,0,0.00976,0.01464,0.01952,-0.01464,0.03416,0.00976,0.0244,0.01952,-0.00488,-0.00976
-0.00488,0,0.00488,0.00732,0.00976,-0.00732,0.03416,0.01464,0.0244,0.01952,0,-0.00976
0,-0.0122,0.0244,0.0244,0.0244,-0.0122,0.02928,0.01952,0.0244,0.00976,-0.00488,-0.00488
-0.00488,-0.00488,0.01464,0.01708,0.01952,-0.0122,0.03416,0.01952,0.02928,0.01464,-0.00488,-0.00488
-0.01464,0.00244,0.00976,0.01708,0.0244,-0.01952,0.03904,0.0244,0.03416,0.01952,0,0
-0.01464,0.00976,-0.00488,0.00244,0.00976,-0.0122,0.03904,0.0244,0.03416,0.01952,0,0
-0.01952,0.00244,0.01464,0.0244,0.03416,-0.02684,0.04392,0.0244,0.03416,0.01952,0,0
-0.02928,0.0122,0.00488,0.01952,0.03416,-0.03172,0.0488,0.0244,0.03904,0.01952,0.00488,0
-0.0244,0.0122,0,0.0122,0.0244,-0.0244,0.03904,0.01464,0.03416,0.00976,-0.00488,-0.00488
-0.02928,0.01708,-0.00488,0.00976,0.0244,-0.02684,0.04392,0.01952,0.02928,0.01464,-0.00488,-0.00488
-0.02928,0,0.02928,0.04392,0.05856,-0.04392,0.03904,0.00488,0.01464,0.00488,-0.01464,-0.00976
-0.02928,-0.00244,0.03416,0.0488,0.06344,-0.04636,0.01952,0.00488,0.00976,0,-0.01464,-0.01952
-0.00976,-0.00976,0.02928,0.03416,0.03904,-0.0244,0.01952,0.00488,0.00976,0,-0.01952,-0.01464
0.03904,-0.07076,0.10248,0.08296,0.06344,-0.0122,-0.00976,-0.03416,-0.00976,-0.0244,-0.05368,-0.04392
0.04392,-0.06832,0.09272,0.07076,0.0488,-0.00244,-0.00488,-0.0244,0.00976,-0.01464,-0.04392,-0.02928
0.03416,-0.02928,0.0244,0.00732,-0.00976,0.02196,0.0244,0.00488,0.02928,0.01464,-0.01464,-0.00976
0.02928,-0.02928,0.02928,0.01464,0,0.01464,0.02928,0.01952,0.0488,0.02928,-0.00976,-0.00488
0.03904,-0.05124,0.06344,0.04392,0.0244,0.00732,0.02928,0.0244,0.0488,0.03904,0,0.00488
0.03416,-0.04392,0.05368,0.0366,0.01952,0.00732,0.03904,0.03904,0.05368,0.03904,0.00976,0.00488
0.03416,-0.03904,0.04392,0.02684,0.00976,0.0122,0.02928,0.03904,0.0488,0.03904,0.00976,0.00488
0.03904,-0.03416,0.02928,0.00976,-0.00976,0.0244,0.01952,0.03416,0.0488,0.02928,0.00488,-0.00488
0.02928,-0.02928,0.02928,0.01464,0,0.01464,0.0244,0.03904,0.05368,0.03416,0.00488,0
0.03904,-0.04392,0.0488,0.02928,0.00976,0.01464,0.02928,0.0488,0.0732,0.05368,0.01952,0.00976
0.04392,-0.0366,0.02928,0.00732,-0.01464,0.02928,0.0244,0.04392,0.0732,0.06344,0.03416,0.0244
0.04392,-0.05124,0.05856,0.0366,0.01464,0.01464,0.00976,0.03416,0.05856,0.05368,0.02928,0.01464
0.04392,-0.0732,0.10248,0.08052,0.05856,-0.00732,-0.01952,0.0244,0.03904,0.03904,0.01952,0.00976
0.05856,-0.08052,0.10248,0.0732,0.04392,0.00732,-0.01952,0.0244,0.03904,0.02928,0.0244,0.01464
0.06832,-0.07076,0.0732,0.03904,0.00488,0.03172,-0.0244,0.02928,0.03416,0.02928,0.0244,0.01952
0.07808,-0.06588,0.05368,0.01464,-0.0244,0.05124,-0.03904,0.01952,0.01464,0.01952,0.01952,0.01464
0.08296,-0.07076,0.05856,0.01708,-0.0244,0.05368,-0.04392,0.01952,0.01464,0.0244,0.01952,0.01464
0.08296,-0.08296,0.08296,0.04148,0,0.04148,-0.02928,0.00976,0.02928,0.02928,0.0244,0.02928
0.07808,-0.07076,0.06344,0.0244,-0.01464,0.04636,-0.02928,0.00976,0.0244,0.0244,0.0244,0.02928
0.06832,-0.05856,0.0488,0.01464,-0.01952,0.04392,-0.0244,0.00488,0,0.00976,0.00976,0.00488
0.0488,-0.03904,0.02928,0.00488,-0.01952,0.03416,-0.00976,0.00488,0.00488,0.00976,0.01464,0
0.03416,-0.02928,0.0244,0.00732,-0.00976,0.02196,0.00488,0.01464,0.01464,0.0244,0.01464,0.01464
