i,aVR,ii,aVF,iii,aVL,V1,V2,V3,V4,V5,V6
0,-0.15372,0.30744,0.30744,0.30744,-0.15372,-0.20496,-0.11712,0.54656,0.122,0.28304,0.14152
-0.01464,-0.12444,0.26352,0.27084,0.27816,-0.1464,-0.20496,-0.12688,0.51728,0.05856,0.25864,0.11712
-0.03416,-0.07076,0.17568,0.19276,0.20984,-0.122,-0.20496,-0.12688,0.49776,-0.00488,0.21472,0.0732
-0.02928,-0.04636,0.122,0.13664,0.15128,-0.09028,-0.20984,-0.13176,0.49288,-0.01464,0.18056,0.04392
-0.02928,-0.01952,0.06832,0.08296,0.0976,-0.06344,-0.20496,-0.122,0.48312,-0.0488,0.14152,0
-0.0244,0.00488,0.01464,0.02684,0.03904,-0.03172,-0.20008,-0.122,0.42456,-0.08296,0.122,-0.0244
-0.01952,0.01952,-0.01952,-0.00976,0,-0.00976,-0.20984,-0.11712,0.38064,-0.0976,0.10248,-0.03416
-0.0244,0.0366,-0.0488,-0.0366,-0.0244,0,-0.21472,-0.11712,0.38064,-0.09272,0.09272,-0.0488
-0.02928,0.04636,-0.06344,-0.0488,-0.03416,0.00244,-0.20984,-0.122,0.38552,-0.07808,0.09272,-0.05368
-0.03904,0.05368,-0.06832,-0.0488,-0.02928,-0.00488,-0.20984,-0.11712,0.38552,-0.07808,0.09272,-0.0488
-0.0488,0.06588,-0.08296,-0.05856,-0.03416,-0.00732,-0.21472,-0.11712,0.38064,-0.08296,0.08296,-0.0488
-0.0488,0.05856,-0.06832,-0.04392,-0.01952,-0.01464,-0.21472,-0.122,0.37088,-0.0732,0.08784,-0.05368
-0.0488,0.05124,-0.05368,-0.02928,-0.00488,-0.02196,-0.21472,-0.12688,0.366,-0.06832,0.0976,-0.05856
-0.03416,0.0488,-0.06344,-0.04636,-0.02928,-0.00244,-0.2196,-0.12688,0.36112,-0.0976,0.07808,-0.06832
-0.01952,0.0488,-0.07808,-0.06832,-0.05856,0.01952,-0.22448,-0.12688,0.36112,-0.11712,0.07808,-0.0732
-0.02928,0.061,-0.09272,-0.07808,-0.06344,0.01708,-0.22448,-0.12688,0.36112,-0.10736,0.07808,-0.07808
-0.03904,0.07076,-0.10248,-0.08296,-0.06344,0.0122,-0.2196,-0.12688,0.36112,-0.09272,0.0732,-0.07808
-0.0488,0.06832,-0.08784,-0.06344,-0.03904,-0.00488,-0.2196,-0.12688,0.36112,-0.05856,0.08296,-0.0732
-0.06344,0.07076,-0.07808,-0.04636,-0.01464,-0.0244,-0.2196,-0.12688,0.35624,-0.02928,0.09272,-0.0732
-0.0488,0.06344,-0.07808,-0.05368,-0.02928,-0.00976,-0.22936,-0.12688,0.35624,-0.0244,0.09272,-0.0732
-0.02928,0.06588,-0.10248,-0.08784,-0.0732,0.02196,-0.2196,-0.0976,0.37088,-0.02928,0.09272,-0.07808
-0.01464,0.08052,-0.1464,-0.13908,-0.13176,0.05856,-0.18544,-0.0244,0.44896,-0.02928,0.07808,-0.08296
0.01464,0.02196,-0.05856,-0.06588,-0.0732,0.04392,-0.18544,0.00488,0.52704,0.0976,0.15128,-0.03904
0.00976,-0.04392,0.07808,0.0732,0.06832,-0.02928,-0.13664,0.05856,0.81984,0.35136,0.25864,0.01952
0.00976,-0.23912,0.46848,0.4636,0.45872,-0.22448,-0.18056,0.0488,0.93208,0.86864,0.52704,0.18056
0.10248,-0.6466,1.19072,1.13948,1.08824,-0.49288,-0.35136,-0.24888,0.68808,1.54208,1.0004,0.52704
0.18056,-1.0492,1.91784,1.82756,1.73728,-0.77836,-0.70272,-0.74176,0.01464,2.12768,1.39568,0.83936
0.13664,-1.28344,2.43024,2.36192,2.2936,-1.07848,-1.14192,-1.342,-1.00528,2.32288,1.4884,1.01504
0.00488,-1.17608,2.34728,2.34484,2.3424,-1.16876,-1.49328,-1.83976,-1.9276,1.464,1.14192,0.96624
-0.1464,-0.6344,1.4152,1.4884,1.5616,-0.854,-1.76168,-1.99592,-2.46928,0.20496,0.5856,0.6832
-0.25376,-0.1342,0.52216,0.64904,0.77592,-0.51484,-1.67872,-1.79584,-2.33264,-0.78568,0.01952,0.32208
-0.2196,0.1342,-0.0488,0.061,0.1708,-0.1952,-1.44448,-1.41032,-1.91784,-1.1468,-0.21472,0.10736
-0.15616,0.21228,-0.2684,-0.19032,-0.11224,-0.02196,-1.19072,-1.05408,-1.33224,-1.0248,-0.244,0.00976
-0.11224,0.1342,-0.15616,-0.10004,-0.04392,-0.03416,-0.88816,-0.71248,-0.72712,-0.59536,-0.1708,-0.00488
-0.08296,0.122,-0.16104,-0.11956,-0.07808,-0.00244,-0.66368,-0.45872,-0.27816,-0.2928,-0.11712,-0.05368
-0.05856,0.10492,-0.15128,-0.122,-0.09272,0.01708,-0.44408,-0.2928,0.01464,-0.20008,-0.07808,-0.11712
-0.03416,0.061,-0.08784,-0.07076,-0.05368,0.00976,-0.30744,-0.16592,0.23424,-0.122,-0.00488,-0.10248
-0.0244,0.05368,-0.08296,-0.07076,-0.05856,0.01708,-0.25864,-0.12688,0.37088,-0.0244,0.03416,-0.08784
-0.01952,0.05368,-0.08784,-0.07808,-0.06832,0.0244,-0.244,-0.11712,0.4148,0.03416,0.03416,-0.08296
-0.04392,0.06344,-0.08296,-0.061,-0.03904,-0.00244,-0.18544,-0.08296,0.42456,0.0488,0.03416,-0.09272
-0.06344,0.07076,-0.07808,-0.04636,-0.01464,-0.0244,-0.15128,-0.05856,0.44408,0.0488,0.04392,-0.09272
-0.0488,0.06344,-0.07808,-0.05368,-0.02928,-0.00976,-0.15128,-0.06344,0.44896,0.02928,0.04392,-0.09272
-0.03416,0.05612,-0.07808,-0.061,-0.04392,0.00488,-0.15616,-0.0732,0.45872,0.00976,0.05368,-0.09272
-0.03416,0.05368,-0.0732,-0.05612,-0.03904,0.00244,-0.1708,-0.06344,0.4636,0.0488,0.06344,-0.08784
-0.03416,0.0488,-0.06344,-0.04636,-0.02928,-0.00244,-0.18056,-0.05368,0.488,0.0732,0.06344,-0.08296
-0.03416,0.0488,-0.06344,-0.04636,-0.02928,-0.00244,-0.18544,-0.04392,0.50752,0.08784,0.06832,-0.08296
-0.01464,0.0366,-0.05856,-0.05124,-0.04392,0.01464,-0.18544,-0.03904,0.51728,0.11712,0.0732,-0.08296
-0.00488,0.03416,-0.06344,-0.061,-0.05856,0.02684,-0.19032,-0.03904,0.53192,0.13176,0.09272,-0.07808
-0.00488,0.03904,-0.0732,-0.07076,-0.06832,0.03172,-0.1952,-0.03416,0.54656,0.14152,0.10248,-0.07808
0,0.01708,-0.03416,-0.03416,-0.03416,0.01708,-0.20496,-0.0244,0.55632,0.13176,0.12688,-0.06832
0.00488,0.00244,-0.00976,-0.0122,-0.01464,0.00976,-0.20496,-0.0244,0.58072,0.12688,0.1464,-0.06832
0.00488,0.00244,-0.00976,-0.0122,-0.01464,0.00976,-0.2196,-0.0244,0.59048,0.1464,0.15128,-0.06344
0.01952,-0.00488,-0.00976,-0.01952,-0.02928,0.0244,-0.2196,-0.02928,0.60512,0.16104,0.14152,-0.06344
0.01952,-0.0244,0.02928,0.01952,0.00976,0.00488,-0.2196,-0.01952,0.61976,0.1952,0.16104,-0.05368
0.01952,-0.04636,0.0732,0.06344,0.05368,-0.01708,-0.2196,-0.01464,0.64416,0.22448,0.1708,-0.0488
0.02928,-0.04636,0.06344,0.0488,0.03416,-0.00244,-0.24888,-0.00488,0.66856,0.22448,0.18544,-0.04392
0.04392,-0.05368,0.06344,0.04148,0.01952,0.0122,-0.26352,0.01464,0.70272,0.2196,0.20496,-0.03904
0.03416,-0.0488,0.06344,0.04636,0.02928,0.00244,-0.25864,0.02928,0.72224,0.28792,0.22936,-0.02928
0.03416,-0.05124,0.06832,0.05124,0.03416,0,-0.25864,0.0488,0.7564,0.34648,0.24888,-0.01464
0.0244,-0.05368,0.08296,0.07076,0.05856,-0.01708,-0.23912,0.06344,0.79056,0.34648,0.25864,-0.01464
0.01464,-0.05612,0.0976,0.09028,0.08296,-0.03416,-0.22448,0.09272,0.83448,0.34648,0.27328,-0.00488
0.04392,-0.07808,0.11224,0.09028,0.06832,-0.0122,-0.2196,0.11224,0.86864,0.38064,0.28792,0
0.06344,-0.0976,0.13176,0.10004,0.06832,-0.00244,-0.20984,0.12688,0.90768,0.4392,0.30256,0.00488
0.06832,-0.11468,0.16104,0.12688,0.09272,-0.0122,-0.21472,0.14152,0.94184,0.47824,0.32208,0.01464
0.05368,-0.11956,0.18544,0.1586,0.13176,-0.03904,-0.2196,0.16592,0.97112,0.52704,0.3416,0.0244
0.06832,-0.13908,0.20984,0.17568,0.14152,-0.0366,-0.22448,0.1952,0.99552,0.57584,0.36112,0.03904
0.0732,-0.15128,0.22936,0.19276,0.15616,-0.04148,-0.22448,0.1952,1.01016,0.61,0.37576,0.05856
0.08296,-0.1708,0.25864,0.21716,0.17568,-0.04636,-0.22936,0.20496,1.0248,0.61488,0.38064,0.05368
0.0976,-0.19276,0.28792,0.23912,0.19032,-0.04636,-0.23912,0.20496,1.0248,0.61,0.37088,0.05368
0.0976,-0.18544,0.27328,0.22448,0.17568,-0.03904,-0.23912,0.20496,1.03456,0.5856,0.37576,0.0488
0.0976,-0.17812,0.25864,0.20984,0.16104,-0.03172,-0.24888,0.20008,1.04432,0.5612,0.37576,0.0488
0.09272,-0.17324,0.25376,0.2074,0.16104,-0.03416,-0.23424,0.20984,1.03456,0.59048,0.38064,0.05856
0.08296,-0.1708,0.25864,0.21716,0.17568,-0.04636,-0.22448,0.20496,1.01992,0.61976,0.38064,0.05856
0.07808,-0.18056,0.28304,0.244,0.20496,-0.06344,-0.24888,0.18544,1.0004,0.5856,0.37576,0.05856
0.06832,-0.183,0.29768,0.26352,0.22936,-0.08052,-0.2684,0.16592,0.976,0.54168,0.37088,0.05856
0.07808,-0.18788,0.29768,0.25864,0.2196,-0.07076,-0.28792,0.14152,0.93208,0.50752,0.35136,0.05368
0.09272,-0.1952,0.29768,0.25132,0.20496,-0.05612,-0.29768,0.12688,0.90768,0.50264,0.35136,0.05368
0.08784,-0.20008,0.31232,0.2684,0.22448,-0.06832,-0.3172,0.09272,0.86864,0.48312,0.32696,0.04392
0.07808,-0.19764,0.3172,0.27816,0.23912,-0.08052,-0.32696,0.06832,0.81984,0.45872,0.3172,0.03416
0.05368,-0.17324,0.2928,0.26596,0.23912,-0.09272,-0.32696,0.05368,0.80032,0.40016,0.29768,0.02928
0.04392,-0.1586,0.27328,0.25132,0.22936,-0.09272,-0.32696,0.02928,0.77592,0.35136,0.28304,0.01952
0.04392,-0.13176,0.2196,0.19764,0.17568,-0.06588,-0.32696,0.00488,0.72712,0.30256,0.23912,0.00488
0.04392,-0.10736,0.1708,0.14884,0.12688,-0.04148,-0.32208,-0.00976,0.69296,0.24888,0.2196,-0.00488
0.01952,-0.10248,0.18544,0.17568,0.16592,-0.0732,-0.34648,-0.04392,0.64416,0.22448,0.1952,-0.01464
-0.00976,-0.0854,0.18056,0.18544,0.19032,-0.10004,-0.3416,-0.07808,0.59536,0.20496,0.16592,-0.01952
-0.00976,-0.06832,0.1464,0.15128,0.15616,-0.08296,-0.34648,-0.0976,0.55632,0.16104,0.14152,-0.05368
-0.00976,-0.05368,0.11712,0.122,0.12688,-0.06832,-0.34648,-0.11712,0.52216,0.13664,0.11712,-0.08296
-0.00976,-0.03904,0.08784,0.09272,0.0976,-0.05368,-0.35624,-0.13176,0.488,0.05368,0.08784,-0.09272
-0.00976,-0.02684,0.06344,0.06832,0.0732,-0.04148,-0.36112,-0.14152,0.46848,-0.00976,0.05856,-0.11224
-0.01952,-0.00732,0.03416,0.04392,0.05368,-0.0366,-0.366,-0.15128,0.45384,-0.02928,0.0488,-0.122
-0.03416,0.01464,0.00488,0.02196,0.03904,-0.0366,-0.36112,-0.15616,0.44408,-0.02928,0.03416,-0.12688
-0.03904,0.0244,-0.00976,0.00976,0.02928,-0.03416,-0.36112,-0.16104,0.43432,-0.03416,0.0244,-0.13664
-0.03904,0.03416,-0.02928,-0.00976,0.00976,-0.0244,-0.36112,-0.16592,0.41968,-0.06344,0.00976,-0.1464
-0.04392,0.02684,-0.00976,0.0122,0.03416,-0.03904,-0.36112,-0.1708,0.40016,-0.0244,0,-0.16104
-0.0488,0.01952,0.00976,0.03416,0.05856,-0.05368,-0.36112,-0.18056,0.38552,0,0,-0.17568
-0.05368,0.03172,-0.00976,0.01708,0.04392,-0.0488,-0.366,-0.18544,0.38552,-0.03416,-0.00488,-0.1708
-0.05368,0.04392,-0.03416,-0.00732,0.01952,-0.0366,-0.36112,-0.18544,0.39528,-0.10248,-0.00488,-0.1708
-0.0488,0.04148,-0.03416,-0.00976,0.01464,-0.03172,-0.36112,-0.18544,0.3904,-0.08784,-0.00976,-0.17568
-0.04392,0.0488,-0.05368,-0.03172,-0.00976,-0.01708,-0.35624,-0.18544,0.39528,-0.0976,-0.01464,-0.18056
-0.03904,0.04636,-0.05368,-0.03416,-0.01464,-0.0122,-0.34648,-0.18056,0.39528,-0.10736,-0.00976,-0.18056
-0.03904,0.04148,-0.04392,-0.0244,-0.00488,-0.01708,-0.33184,-0.17568,0.40016,-0.10736,-0.00488,-0.18056
-0.01952,0.01464,-0.00976,0,0.00976,-0.01464,-0.32208,-0.1708,0.40504,-0.08296,0.00488,-0.18056
0.00488,-0.01464,0.0244,0.02196,0.01952,-0.00732,-0.3172,-0.16592,0.40504,-0.05856,0.01464,-0.18056
-0.00976,0.00244,0.00488,0.00976,0.01464,-0.0122,-0.30256,-0.15616,0.4148,-0.08296,0.01952,-0.17568
-0.0244,0.02196,-0.01952,-0.00732,0.00488,-0.01464,-0.27816,-0.15128,0.42944,-0.10736,0.0244,-0.1708
-0.02928,0.02928,-0.02928,-0.01464,0,-0.01464,-0.27328,-0.15128,0.43432,-0.0976,0.0244,-0.1708
-0.03416,0.03416,-0.03416,-0.01708,0,-0.01708,-0.25864,-0.1464,0.44408,-0.06344,0.0244,-0.16592
-0.04392,0.03904,-0.03416,-0.0122,0.00976,-0.02684,-0.25376,-0.13664,0.44408,-0.05856,0.0244,-0.16592
-0.05368,0.04636,-0.03904,-0.0122,0.01464,-0.03416,-0.24888,-0.12688,0.44896,-0.04392,0.02928,-0.1708
-0.06832,0.05612,-0.04392,-0.00976,0.0244,-0.04636,-0.22448,-0.12688,0.45384,-0.0488,0.02928,-0.1708
-0.08784,0.06344,-0.03904,0.00488,0.0488,-0.06832,-0.20496,-0.11712,0.46848,-0.03416,0.03416,-0.1708
-0.05856,0.0366,-0.01464,0.01464,0.04392,-0.05124,-0.20984,-0.122,0.4636,-0.01464,0.02928,-0.16104
-0.02928,0.00976,0.00976,0.0244,0.03904,-0.03416,-0.21472,-0.12688,0.45872,0,0.02928,-0.15616
-0.01952,0.00976,0,0.00976,0.01952,-0.01952,-0.21472,-0.12688,0.45872,-0.03904,0.01464,-0.15616
-0.00976,0.00976,-0.00976,-0.00488,0,-0.00488,-0.21472,-0.12688,0.45872,-0.07808,0,-0.15616
-0.01952,0.02196,-0.0244,-0.01464,-0.00488,-0.00732,-0.20008,-0.122,0.45872,-0.06344,0.00976,-0.15616
-0.0244,0.02684,-0.02928,-0.01708,-0.00488,-0.00976,-0.19032,-0.11712,0.45384,-0.0488,0.01464,-0.15128
-0.02928,0.03416,-0.03904,-0.0244,-0.00976,-0.00976,-0.18056,-0.11224,0.45384,-0.03904,0.01952,-0.15128
-0.02928,0.03172,-0.03416,-0.01952,-0.00488,-0.0122,-0.1708,-0.11224,0.44408,-0.03904,0.0244,-0.1464
-0.03416,0.03416,-0.03416,-0.01708,0,-0.01708,-0.1708,-0.11224,0.44408,-0.04392,0.0244,-0.1464
-0.03416,0.0366,-0.03904,-0.02196,-0.00488,-0.01464,-0.1708,-0.11224,0.44408,-0.05368,0.01952,-0.1464
-0.03416,0.0366,-0.03904,-0.02196,-0.00488,-0.01464,-0.16592,-0.11224,0.4392,-0.05368,0.01464,-0.1464
-0.03416,0.0366,-0.03904,-0.02196,-0.00488,-0.01464,-0.16104,-0.11224,0.42944,-0.05368,0.00976,-0.15128
-0.03416,0.03904,-0.04392,-0.02684,-0.00976,-0.0122,-0.16104,-0.11712,0.42456,-0.06344,0.00488,-0.15616
-0.02928,0.0366,-0.04392,-0.02928,-0.01464,-0.00732,-0.16592,-0.11712,0.42456,-0.08296,0.00488,-0.15616
-0.03904,0.04636,-0.05368,-0.03416,-0.01464,-0.0122,-0.15616,-0.11224,0.42456,-0.09272,0.00488,-0.1464
-0.0488,0.04148,-0.03416,-0.00976,0.01464,-0.03172,-0.13664,-0.0976,0.4392,-0.07808,0.00976,-0.14152
-0.05856,0.0244,0.00976,0.03904,0.06832,-0.06344,-0.10736,-0.07808,0.47336,-0.06344,0.01952,-0.11712
-0.06832,0.02196,0.0244,0.05856,0.09272,-0.08052,-0.07808,-0.05856,0.50752,-0.0244,0.04392,-0.0976
-0.02928,-0.00732,0.04392,0.05856,0.0732,-0.05124,-0.06344,-0.05368,0.49288,-0.0244,0.0244,-0.10736
0.00488,-0.0244,0.04392,0.04148,0.03904,-0.01708,-0.06344,-0.06344,0.47824,-0.03904,0.00488,-0.122
0.00976,-0.03172,0.05368,0.0488,0.04392,-0.01708,-0.06344,-0.06344,0.48312,-0.04392,0.00488,-0.12688
0.00976,-0.04636,0.08296,0.07808,0.0732,-0.03172,-0.06344,-0.06344,0.48312,-0.04392,0.00976,-0.12688
0.01464,-0.04148,0.06832,0.061,0.05368,-0.01952,-0.0976,-0.09272,0.48312,-0.0488,0.02928,-0.08296
0.01464,-0.04392,0.0732,0.06588,0.05856,-0.02196,-0.10736,-0.08784,0.49776,-0.03904,0.05856,-0.02928
0.0244,-0.07564,0.12688,0.11468,0.10248,-0.03904,-0.13664,-0.11224,0.47824,-0.0244,0.07808,0.00976
0.02928,-0.10004,0.1708,0.15616,0.14152,-0.05612,-0.15128,-0.12688,0.46848,-0.01952,0.0976,0.0244
0.03416,-0.11224,0.19032,0.17324,0.15616,-0.061,-0.16592,-0.13176,0.45384,-0.0488,0.08784,0.01464
0.02928,-0.11712,0.20496,0.19032,0.17568,-0.0732,-0.18544,-0.14152,0.42456,-0.08296,0.06832,0.00488
0.02928,-0.11468,0.20008,0.18544,0.1708,-0.07076,-0.21472,-0.15616,0.38064,-0.122,0.0488,-0.0244
0.01464,-0.09516,0.17568,0.16836,0.16104,-0.0732,-0.21472,-0.16592,0.35136,-0.16592,0.01464,-0.07808
0,-0.04392,0.08784,0.08784,0.08784,-0.04392,-0.20984,-0.16104,0.3416,-0.2196,-0.03904,-0.13176
-0.00488,-0.01708,0.03904,0.04148,0.04392,-0.0244,-0.20008,-0.15616,0.33672,-0.24888,-0.06832,-0.16104
-0.01952,0.01464,-0.00976,0,0.00976,-0.01464,-0.18544,-0.12688,0.3172,-0.28792,-0.09272,-0.1952
-0.01952,0.04148,-0.06344,-0.05368,-0.04392,0.0122,-0.1708,-0.11224,0.29768,-0.32696,-0.11224,-0.21472
-0.01952,0.05368,-0.08784,-0.07808,-0.06832,0.0244,-0.16592,-0.10736,0.2928,-0.366,-0.13176,-0.2196
-0.0244,0.06344,-0.10248,-0.09028,-0.07808,0.02684,-0.16104,-0.10248,0.28304,-0.40016,-0.14152,-0.23424
-0.02928,0.07808,-0.12688,-0.11224,-0.0976,0.03416,-0.1464,-0.09272,0.27816,-0.40992,-0.14152,-0.244
-0.02928,0.08784,-0.1464,-0.13176,-0.11712,0.04392,-0.14152,-0.07808,0.27816,-0.42456,-0.14152,-0.24888
-0.02928,0.09516,-0.16104,-0.1464,-0.13176,0.05124,-0.1464,-0.0732,0.27328,-0.44896,-0.15616,-0.25864
-0.02928,0.09516,-0.16104,-0.1464,-0.13176,0.05124,-0.1464,-0.06832,0.26352,-0.4636,-0.16592,-0.2684
-0.02928,0.09516,-0.16104,-0.1464,-0.13176,0.05124,-0.1464,-0.06344,0.25864,-0.47336,-0.1708,-0.28304
-0.02928,0.09516,-0.16104,-0.1464,-0.13176,0.05124,-0.1464,-0.05856,0.25376,-0.488,-0.18544,-0.29768
-0.02928,0.0976,-0.16592,-0.15128,-0.13664,0.05368,-0.15128,-0.05368,0.25376,-0.488,-0.17568,-0.30256
-0.02928,0.10004,-0.1708,-0.15616,-0.14152,0.05612,-0.15616,-0.0488,0.25376,-0.488,-0.17568,-0.31232
-0.02928,0.10004,-0.1708,-0.15616,-0.14152,0.05612,-0.15128,-0.04392,0.25376,-0.45872,-0.17568,-0.3172
-0.0244,0.0976,-0.1708,-0.1586,-0.1464,0.061,-0.15128,-0.03904,0.25376,-0.43432,-0.1708,-0.32208
-0.0244,0.0976,-0.1708,-0.1586,-0.1464,0.061,-0.15128,-0.03416,0.25864,-0.41968,-0.1708,-0.32696
-0.0244,0.10492,-0.18544,-0.17324,-0.16104,0.06832,-0.15128,-0.01952,0.2684,-0.40504,-0.1708,-0.32696
-0.01952,0.11956,-0.2196,-0.20984,-0.20008,0.09028,-0.13176,0.01952,0.2928,-0.38552,-0.16592,-0.32696
-0.01464,0.14396,-0.27328,-0.26596,-0.25864,0.122,-0.0976,0.09272,0.37576,-0.35136,-0.17568,-0.33672
-0.00976,0.10736,-0.20496,-0.20008,-0.1952,0.09272,-0.05368,0.1464,0.48312,-0.25376,-0.10248,-0.30256
0.01464,-0.01952,0.0244,0.01708,0.00976,0.00244,-0.05368,0.14152,0.62952,0.06344,0.0488,-0.21472
0.0488,-0.25376,0.45872,0.43432,0.40992,-0.18056,-0.06832,0.13176,0.74664,0.57096,0.3416,-0.0244
0.0976,-0.62464,1.15168,1.10288,1.05408,-0.47824,-0.27816,-0.1464,0.47824,1.23464,0.79544,0.32208
0.14152,-0.9638,1.78608,1.71532,1.64456,-0.75152,-0.59048,-0.64904,-0.31232,1.83976,1.15168,0.60512
0.122,-1.16876,2.21552,2.15452,2.09352,-0.98576,-0.97112,-1.22976,-1.24928,1.8788,1.21512,0.75152
0.01464,-1.10288,2.19112,2.1838,2.17648,-1.08092,-1.464,-1.74216,-2.20088,1.10776,0.88816,0.70272
-0.12688,-0.5246,1.17608,1.23952,1.30296,-0.71492,-1.49328,-1.70312,-2.4644,-0.08296,0.3416,0.41968
-0.22448,0.00488,0.21472,0.32696,0.4392,-0.33184,-1.41032,-1.48352,-2.318,-1.16144,-0.20984,0.05856
-0.20496,0.20496,-0.20496,-0.10248,0,-0.10248,-1.25904,-1.20536,-2.01056,-1.40056,-0.40016,-0.13176
-0.15616,0.23424,-0.31232,-0.23424,-0.15616,0,-0.9272,-0.81984,-1.27856,-1.18584,-0.38552,-0.1952
-0.11224,0.183,-0.25376,-0.19764,-0.14152,0.01464,-0.65392,-0.51728,-0.72224,-0.854,-0.33672,-0.23424
-0.05856,0.16592,-0.27328,-0.244,-0.21472,0.07808,-0.39528,-0.28304,-0.29768,-0.61,-0.30256,-0.29768
-0.02928,0.14152,-0.25376,-0.23912,-0.22448,0.0976,-0.20984,-0.122,-0.03416,-0.4636,-0.244,-0.3416
-0.0244,0.11468,-0.20496,-0.19276,-0.18056,0.07808,-0.06344,0,0.1952,-0.35136,-0.1708,-0.31232
-0.01464,0.10004,-0.18544,-0.17812,-0.1708,0.07808,0.01464,0.03416,0.34648,-0.30256,-0.14152,-0.28792
-0.01464,0.11468,-0.21472,-0.2074,-0.20008,0.09272,0.03416,0.03904,0.37576,-0.28792,-0.15128,-0.28792
-0.01952,0.12688,-0.23424,-0.22448,-0.21472,0.0976,0.08296,0.0732,0.39528,-0.25376,-0.15128,-0.29768
-0.01464,0.11712,-0.2196,-0.21228,-0.20496,0.09516,0.11712,0.0976,0.41968,-0.244,-0.12688,-0.2928
-0.01464,0.1098,-0.20496,-0.19764,-0.19032,0.08784,0.13176,0.10248,0.4392,-0.23424,-0.11224,-0.28792
-0.00976,0.10736,-0.20496,-0.20008,-0.1952,0.09272,0.13664,0.0976,0.46848,-0.21472,-0.10248,-0.28792
-0.00488,0.10248,-0.20008,-0.19764,-0.1952,0.09516,0.14152,0.10248,0.47336,-0.18544,-0.08784,-0.27816
-0.00488,0.09516,-0.18544,-0.183,-0.18056,0.08784,0.15128,0.10736,0.49776,-0.17568,-0.08296,-0.2684
-0.01464,0.0976,-0.18056,-0.17324,-0.16592,0.07564,0.16104,0.11224,0.51728,-0.16592,-0.07808,-0.26352
-0.00976,0.09272,-0.17568,-0.1708,-0.16592,0.07808,0.1708,0.11712,0.52216,-0.13664,-0.06832,-0.25864
-0.00488,0.0854,-0.16592,-0.16348,-0.16104,0.07808,0.17568,0.122,0.53192,-0.11224,-0.05368,-0.25376
-0.01464,0.08784,-0.16104,-0.15372,-0.1464,0.06588,0.17568,0.13176,0.54656,-0.08784,-0.04392,-0.24888
-0.01952,0.08296,-0.1464,-0.13664,-0.12688,0.05368,0.17568,0.14152,0.55632,-0.06832,-0.0244,-0.23424
-0.01464,0.08296,-0.15128,-0.14396,-0.13664,0.061,0.18544,0.14152,0.58072,-0.03904,-0.01952,-0.22936
-0.01464,0.07808,-0.14152,-0.1342,-0.12688,0.05612,0.18544,0.15128,0.60024,-0.00976,-0.00488,-0.2196
0.00976,0.05856,-0.12688,-0.13176,-0.13664,0.0732,0.19032,0.1464,0.61488,0,-0.00976,-0.2196
0.01952,0.05124,-0.122,-0.13176,-0.14152,0.08052,0.18544,0.15616,0.62952,0.0244,0.00488,-0.20984
0.01952,0.03904,-0.0976,-0.10736,-0.11712,0.06832,0.19032,0.16104,0.6588,0.03904,0.00976,-0.20496
0.01952,0.02684,-0.0732,-0.08296,-0.09272,0.05612,0.19032,0.16592,0.67832,0.07808,0.0244,-0.20008
0.0244,0.01952,-0.06344,-0.07564,-0.08784,0.05612,0.20496,0.18544,0.71248,0.11224,0.0488,-0.1952
0.0244,0.01952,-0.06344,-0.07564,-0.08784,0.05612,0.21472,0.20008,0.74664,0.1464,0.0732,-0.18544
0.03416,0.00732,-0.0488,-0.06588,-0.08296,0.05856,0.2196,0.22448,0.79056,0.1708,0.09272,-0.1708
0.03416,0,-0.03416,-0.05124,-0.06832,0.05124,0.23912,0.244,0.82472,0.2196,0.10736,-0.16592
0.03416,-0.0122,-0.00976,-0.02684,-0.04392,0.03904,0.2684,0.27816,0.87352,0.2684,0.12688,-0.14152
0.0488,-0.03416,0.01952,-0.00488,-0.02928,0.03904,0.28792,0.30744,0.92232,0.30256,0.14152,-0.122
0.05368,-0.04148,0.02928,0.00244,-0.0244,0.03904,0.29768,0.32208,0.96136,0.36112,0.15128,-0.11224
0.0732,-0.05856,0.04392,0.00732,-0.02928,0.05124,0.30744,0.33672,0.99064,0.39528,0.1708,-0.0976
0.0732,-0.07808,0.08296,0.04636,0.00976,0.03172,0.3172,0.36112,1.02968,0.4392,0.1952,-0.08296
0.08784,-0.10492,0.122,0.07808,0.03416,0.02684,0.3172,0.38552,1.0736,0.488,0.21472,-0.06832
0.08784,-0.11468,0.14152,0.0976,0.05368,0.01708,0.32208,0.40016,1.10288,0.52216,0.22936,-0.04392
0.08784,-0.12444,0.16104,0.11712,0.0732,0.00732,0.32696,0.42456,1.1224,0.54656,0.244,-0.03416
0.0976,-0.13664,0.17568,0.12688,0.07808,0.00976,0.33184,0.42944,1.13216,0.57096,0.244,-0.0244
0.0976,-0.14152,0.18544,0.13664,0.08784,0.00488,0.33672,0.42944,1.13216,0.58072,0.25376,-0.01952
0.0976,-0.14884,0.20008,0.15128,0.10248,-0.00244,0.33184,0.42944,1.13704,0.58072,0.25864,-0.00976
0.0976,-0.15128,0.20496,0.15616,0.10736,-0.00488,0.33184,0.42944,1.12728,0.58072,0.26352,0
0.09272,-0.15616,0.2196,0.17324,0.12688,-0.01708,0.32208,0.40992,1.10776,0.57584,0.26352,0.00488
0.08784,-0.1586,0.22936,0.18544,0.14152,-0.02684,0.30744,0.3904,1.08824,0.55144,0.26352,0.00976
0.07808,-0.15128,0.22448,0.18544,0.1464,-0.03416,0.30744,0.38064,1.0736,0.52216,0.26352,0.01464
0.0732,-0.1464,0.2196,0.183,0.1464,-0.0366,0.29768,0.35624,1.02968,0.47336,0.244,0.01464
0.0732,-0.14396,0.21472,0.17812,0.14152,-0.03416,0.2928,0.33184,0.99552,0.45384,0.244,0.0244
0.06832,-0.13908,0.20984,0.17568,0.14152,-0.0366,0.27328,0.2928,0.94672,0.41968,0.2196,0.0244
0.06832,-0.1342,0.20008,0.16592,0.13176,-0.03172,0.25864,0.27328,0.89792,0.3904,0.20008,0.01464
0.06344,-0.12444,0.18544,0.15372,0.122,-0.02928,0.244,0.244,0.84912,0.3416,0.1708,0.00976
0.06344,-0.122,0.18056,0.14884,0.11712,-0.02684,0.22936,0.20008,0.79544,0.29768,0.15616,0.00976
0.0488,-0.0976,0.1464,0.122,0.0976,-0.0244,0.2196,0.17568,0.74664,0.25376,0.11712,0.00488
0.0244,-0.06832,0.11224,0.10004,0.08784,-0.03172,0.2196,0.16592,0.71736,0.20496,0.10248,-0.00488
0.00488,-0.05368,0.10248,0.10004,0.0976,-0.04636,0.1952,0.14152,0.67344,0.16104,0.07808,-0.01464
-0.00976,-0.03172,0.0732,0.07808,0.08296,-0.04636,0.20008,0.11224,0.62952,0.13664,0.0488,-0.00976
-0.00976,-0.01952,0.0488,0.05368,0.05856,-0.03416,0.19032,0.09272,0.60024,0.11224,0.0244,-0.0244
0.00488,-0.01708,0.02928,0.02684,0.0244,-0.00976,0.18544,0.06832,0.5612,0.08784,-0.00976,-0.04392
0.00976,-0.00488,0,-0.00488,-0.00976,0.00976,0.17568,0.0488,0.52216,0.04392,-0.03904,-0.0488
0.00976,0.00488,-0.01952,-0.0244,-0.02928,0.01952,0.16592,0.03416,0.50264,0.0244,-0.05856,-0.05856
0.01952,0.00488,-0.02928,-0.03904,-0.0488,0.03416,0.15616,0.01952,0.48312,0,-0.06832,-0.06344
0.00488,0.01952,-0.04392,-0.04636,-0.0488,0.02684,0.15128,0.00976,0.4636,-0.00976,-0.08296,-0.06832
-0.00976,0.03416,-0.05856,-0.05368,-0.0488,0.01952,0.14152,0.00488,0.45384,-0.01464,-0.08784,-0.07808
-0.00976,0.04636,-0.08296,-0.07808,-0.0732,0.03172,0.13176,-0.00488,0.4392,-0.04392,-0.0976,-0.09272
-0.01464,0.05124,-0.08784,-0.08052,-0.0732,0.02928,0.12688,-0.00976,0.42944,-0.0488,-0.10736,-0.0976
-0.01952,0.05368,-0.08784,-0.07808,-0.06832,0.0244,0.12688,-0.01464,0.42944,-0.06832,-0.10736,-0.0976
-0.0244,0.05612,-0.08784,-0.07564,-0.06344,0.01952,0.12688,-0.01952,0.42456,-0.0488,-0.11224,-0.09272
-0.0244,0.05368,-0.08296,-0.07076,-0.05856,0.01708,0.13176,-0.01464,0.42944,-0.06344,-0.11224,-0.09272
-0.01952,0.04636,-0.0732,-0.06344,-0.05368,0.01708,0.12688,-0.00976,0.42456,-0.0488,-0.11712,-0.09272
-0.01464,0.05368,-0.09272,-0.0854,-0.07808,0.03172,0.13176,-0.00976,0.42456,-0.0488,-0.12688,-0.09272
-0.01464,0.05368,-0.09272,-0.0854,-0.07808,0.03172,0.13176,-0.00976,0.42456,-0.0488,-0.13176,-0.09272
-0.0244,0.05368,-0.08296,-0.07076,-0.05856,0.01708,0.13664,-0.01464,0.42944,-0.0488,-0.13664,-0.09272
-0.02928,0.05612,-0.08296,-0.06832,-0.05368,0.0122,0.14152,-0.01464,0.43432,-0.0488,-0.14152,-0.09272
-0.0244,0.05368,-0.08296,-0.07076,-0.05856,0.01708,0.13664,-0.00976,0.43432,-0.0488,-0.14152,-0.08784
-0.0244,0.05368,-0.08296,-0.07076,-0.05856,0.01708,0.13176,-0.00488,0.4392,-0.0488,-0.14152,-0.08296
-0.01952,0.05368,-0.08784,-0.07808,-0.06832,0.0244,0.14152,-0.00488,0.44896,-0.04392,-0.1464,-0.08296
-0.01464,0.05368,-0.09272,-0.0854,-0.07808,0.03172,0.14152,-0.00488,0.44896,-0.0488,-0.15128,-0.08784
-0.01464,0.05368,-0.09272,-0.0854,-0.07808,0.03172,0.15128,0,0.4636,-0.03416,-0.15128,-0.08296
-0.01464,0.05124,-0.08784,-0.08052,-0.0732,0.02928,0.15128,0.00976,0.47824,-0.01952,-0.1464,-0.08296
-0.01464,0.05124,-0.08784,-0.08052,-0.0732,0.02928,0.15616,0.00976,0.48312,-0.01464,-0.14152,-0.07808
-0.01952,0.05612,-0.09272,-0.08296,-0.0732,0.02684,0.16592,0.01464,0.488,-0.00976,-0.14152,-0.07808
-0.01952,0.05368,-0.08784,-0.07808,-0.06832,0.0244,0.16592,0.01464,0.49776,-0.00488,-0.14152,-0.0732
-0.01952,0.05368,-0.08784,-0.07808,-0.06832,0.0244,0.16592,0.01952,0.50752,0,-0.1464,-0.06832
-0.01464,0.0488,-0.08296,-0.07564,-0.06832,0.02684,0.16592,0.01952,0.50752,0.00488,-0.15128,-0.06832
-0.00976,0.04392,-0.07808,-0.0732,-0.06832,0.02928,0.16592,0.01952,0.50752,0.00976,-0.15616,-0.06832
-0.00976,0.04392,-0.07808,-0.0732,-0.06832,0.02928,0.16592,0.01952,0.5124,0.01952,-0.15616,-0.0732
-0.03416,0.05368,-0.0732,-0.05612,-0.03904,0.00244,0.1708,0.0244,0.51728,0.0244,-0.15616,-0.0732
-0.05856,0.06588,-0.0732,-0.04392,-0.01464,-0.02196,0.17568,0.03416,0.52704,0.02928,-0.16104,-0.07808
-0.10736,0.09028,-0.0732,-0.01952,0.03416,-0.07076,0.18056,0.04392,0.54168,0.03416,-0.16104,-0.07808
-0.05856,0.06832,-0.07808,-0.0488,-0.01952,-0.01952,0.18056,0.04392,0.54168,0.03416,-0.16592,-0.07808
-0.01464,0.04636,-0.07808,-0.07076,-0.06344,0.0244,0.17568,0.04392,0.54168,0.03416,-0.16592,-0.07808
-0.00488,0.04148,-0.07808,-0.07564,-0.0732,0.03416,0.1464,0.02928,0.51728,0.00488,-0.18056,-0.08296
0.00488,0.0366,-0.07808,-0.08052,-0.08296,0.04392,0.122,0.00976,0.49288,-0.01464,-0.20008,-0.08296
0.00976,0.0244,-0.05856,-0.06344,-0.06832,0.03904,0.12688,0.00976,0.5124,0,-0.19032,-0.0732
0.00976,0.0122,-0.03416,-0.03904,-0.04392,0.02684,0.13664,0.00976,0.5368,0.0244,-0.1708,-0.05856
0.00488,-0.00488,0.00488,0.00244,0,0.00244,0.1464,0.02928,0.55632,0.05856,-0.15128,-0.05368
0.00488,-0.03172,0.05856,0.05612,0.05368,-0.0244,0.16592,0.04392,0.59536,0.0732,-0.13176,-0.02928
0,-0.0366,0.0732,0.0732,0.0732,-0.0366,0.18544,0.0488,0.6344,0.10736,-0.10248,-0.00976
-0.00488,-0.03904,0.08296,0.0854,0.08784,-0.04636,0.20984,0.06832,0.63928,0.11712,-0.10248,-0.00488
-0.00488,-0.03904,0.08296,0.0854,0.08784,-0.04636,0.21472,0.06832,0.63928,0.11712,-0.10736,-0.00488
0,-0.04148,0.08296,0.08296,0.08296,-0.04148,0.20984,0.06344,0.63928,0.11224,-0.11224,-0.00976
0.01464,-0.05856,0.10248,0.09516,0.08784,-0.0366,0.20496,0.06344,0.63928,0.11224,-0.10736,-0.00976
0.03416,-0.07808,0.122,0.10492,0.08784,-0.02684,0.1464,0.01952,0.61976,0.11224,-0.10248,0.00488
0.03416,-0.0976,0.16104,0.14396,0.12688,-0.04636,0.11712,0.00976,0.61,0.12688,-0.08784,0.03416
0.04392,-0.12932,0.21472,0.19276,0.1708,-0.06344,0.08784,-0.01464,0.5856,0.14152,-0.06832,0.06832
0.03904,-0.14396,0.24888,0.22936,0.20984,-0.0854,0.0732,-0.02928,0.57096,0.1464,-0.05368,0.0732
0.03904,-0.13908,0.23912,0.2196,0.20008,-0.08052,0.06344,-0.02928,0.55632,0.1464,-0.0488,0.08296
0.03416,-0.12932,0.22448,0.2074,0.19032,-0.07808,0.05368,-0.03416,0.53192,0.13664,-0.0488,0.08784
0.02928,-0.1098,0.19032,0.17568,0.16104,-0.06588,0.02928,-0.0488,0.488,0.10248,-0.05856,0.08296
0.01464,-0.08052,0.1464,0.13908,0.13176,-0.05856,0.03416,-0.05368,0.46848,0.06344,-0.07808,0.05856
-0.00488,-0.02684,0.05856,0.061,0.06344,-0.03416,0.03904,-0.0488,0.45872,0.0244,-0.11712,0.01464
-0.01464,0.00244,0.00976,0.01708,0.0244,-0.01952,0.04392,-0.0488,0.44408,0.01464,-0.13176,0
-0.02928,0.03416,-0.03904,-0.0244,-0.00976,-0.00976,0.05856,-0.03416,0.42456,-0.01952,-0.15128,-0.02928
-0.02928,0.05612,-0.08296,-0.06832,-0.05368,0.0122,0.0732,-0.03416,0.40504,-0.0488,-0.16592,-0.04392
-0.02928,0.06832,-0.10736,-0.09272,-0.07808,0.0244,0.0732,-0.02928,0.40016,-0.05856,-0.18056,-0.04392
-0.02928,0.08052,-0.13176,-0.11712,-0.10248,0.0366,0.0732,-0.0244,0.3904,-0.06344,-0.19032,-0.05856
-0.02928,0.0854,-0.14152,-0.12688,-0.11224,0.04148,0.08296,-0.0244,0.38552,-0.05856,-0.19032,-0.06344
-0.02928,0.08784,-0.1464,-0.13176,-0.11712,0.04392,0.08296,-0.01952,0.3904,-0.06344,-0.18544,-0.06344
-0.02928,0.09516,-0.16104,-0.1464,-0.13176,0.05124,0.07808,-0.01952,0.3904,-0.0732,-0.19032,-0.06832
-0.0488,0.10492,-0.16104,-0.13664,-0.11224,0.03172,0.07808,-0.01952,0.38064,-0.08296,-0.1952,-0.0732
-0.06832,0.11468,-0.16104,-0.12688,-0.09272,0.0122,0.07808,-0.01952,0.37576,-0.0976,-0.1952,-0.07808
-0.05856,0.1098,-0.16104,-0.13176,-0.10248,0.02196,0.0732,-0.01952,0.37088,-0.11712,-0.21472,-0.08296
-0.0488,0.10736,-0.16592,-0.14152,-0.11712,0.03416,0.06832,-0.01952,0.37088,-0.12688,-0.21472,-0.08296
-0.02928,0.10004,-0.1708,-0.15616,-0.14152,0.05612,0.06344,-0.01952,0.366,-0.12688,-0.21472,-0.08784
-0.00976,0.09028,-0.1708,-0.16592,-0.16104,0.07564,0.06344,-0.01952,0.36112,-0.122,-0.2196,-0.08784
-0.01464,0.10004,-0.18544,-0.17812,-0.1708,0.07808,0.06344,-0.01952,0.36112,-0.13176,-0.22448,-0.08784
-0.0244,0.11468,-0.20496,-0.19276,-0.18056,0.07808,0.06344,-0.01952,0.35624,-0.1464,-0.22936,-0.09272
-0.0244,0.12444,-0.22448,-0.21228,-0.20008,0.08784,0.06344,0.00976,0.37088,-0.15128,-0.22936,-0.08784
-0.01952,0.14396,-0.2684,-0.25864,-0.24888,0.11468,0.08296,0.06832,0.40016,-0.16592,-0.22936,-0.08784
-0.01464,0.14396,-0.27328,-0.26596,-0.25864,0.122,0.10736,0.11224,0.4636,-0.07808,-0.20008,-0.06344
0.00488,0.07076,-0.1464,-0.14884,-0.15128,0.07808,0.0976,0.11224,0.52704,0.13664,-0.08296,0.00976
0.03904,-0.12932,0.2196,0.20008,0.18056,-0.07076,-0.0488,-0.02928,0.40992,0.59048,0.12688,0.13664
0.07808,-0.45872,0.83936,0.80032,0.76128,-0.3416,-0.28792,-0.23424,0.11224,1.30784,0.49776,0.366
0.13664,-0.83692,1.5372,1.46888,1.40056,-0.63196,-0.65392,-0.64416,-0.43432,1.91784,0.88328,0.67344
0.18056,-1.21024,2.23992,2.14964,2.05936,-0.9394,-1.20048,-1.24928,-1.41032,2.44,1.19072,0.94672
0.1464,-1.31028,2.47416,2.40096,2.32776,-1.09068,-1.62992,-1.68848,-2.13744,2.26432,1.16632,1.03456
0.0244,-1.06872,2.11304,2.10084,2.08864,-1.03212,-1.97152,-2.0252,-2.76696,1.03456,0.70272,0.89792
-0.08784,-0.54412,1.17608,1.22,1.26392,-0.67588,-1.93736,-1.95688,-2.88408,-0.08784,0.23912,0.6588
-0.15616,-0.061,0.27816,0.35624,0.43432,-0.29524,-1.55184,-1.53232,-2.32288,-0.94184,-0.23424,0.3416
-0.13664,0.11712,-0.0976,-0.02928,0.03904,-0.08784,-1.18584,-1.098,-1.71776,-1.11752,-0.40504,0.15128
-0.08784,0.10492,-0.122,-0.07808,-0.03416,-0.02684,-0.80032,-0.69296,-0.94184,-0.81008,-0.37088,0.07808
-0.05368,0.0732,-0.09272,-0.06588,-0.03904,-0.00732,-0.4636,-0.40504,-0.39528,-0.488,-0.33672,0.03416
-0.03416,0.10736,-0.18056,-0.16348,-0.1464,0.05612,-0.20496,-0.20496,-0.00488,-0.2928,-0.32208,-0.04392
-0.02928,0.11712,-0.20496,-0.19032,-0.17568,0.0732,-0.03416,-0.0732,0.21472,-0.20008,-0.2928,-0.0976
-0.0244,0.10004,-0.17568,-0.16348,-0.15128,0.06344,0.05368,0.01952,0.36112,-0.122,-0.22936,-0.0732
-0.01952,0.0976,-0.17568,-0.16592,-0.15616,0.06832,0.10248,0.04392,0.46848,-0.07808,-0.20496,-0.06344
-0.01952,0.10248,-0.18544,-0.17568,-0.16592,0.0732,0.11712,0.03904,0.48312,-0.0732,-0.2196,-0.06344
-0.0244,0.10736,-0.19032,-0.17812,-0.16592,0.07076,0.1464,0.0732,0.50264,-0.05856,-0.2196,-0.0732
-0.0244,0.1098,-0.1952,-0.183,-0.1708,0.0732,0.15128,0.0976,0.53192,-0.05856,-0.20984,-0.0732
-0.02928,0.11224,-0.1952,-0.18056,-0.16592,0.06832,0.15128,0.10248,0.55632,-0.03416,-0.20984,-0.0732
-0.03416,0.11468,-0.1952,-0.17812,-0.16104,0.06344,0.1464,0.10248,0.5856,-0.00976,-0.20008,-0.0732
-0.03416,0.11224,-0.19032,-0.17324,-0.15616,0.061,0.1464,0.122,0.60024,0.00976,-0.18544,-0.06344
-0.03416,0.10736,-0.18056,-0.16348,-0.1464,0.05612,0.15128,0.14152,0.6344,0.01464,-0.18056,-0.05368
-0.01952,0.0976,-0.17568,-0.16592,-0.15616,0.06832,0.15128,0.13664,0.63928,0.00976,-0.18056,-0.05856
0.01464,0.07564,-0.16592,-0.17324,-0.18056,0.0976,0.15616,0.12688,0.6344,0.01952,-0.18056,-0.06344
0.0244,0.06588,-0.15616,-0.16836,-0.18056,0.10248,0.15616,0.12688,0.64904,0.02928,-0.1708,-0.05856
0.0244,0.06344,-0.15128,-0.16348,-0.17568,0.10004,0.15616,0.13176,0.66368,0.03416,-0.1708,-0.05856
0.01952,0.05856,-0.13664,-0.1464,-0.15616,0.08784,0.15128,0.14152,0.67344,0.03904,-0.15616,-0.0488
0.01464,0.061,-0.13664,-0.14396,-0.15128,0.08296,0.15616,0.14152,0.69784,0.0488,-0.1464,-0.0488
0.01464,0.05368,-0.122,-0.12932,-0.13664,0.07564,0.15616,0.15616,0.72712,0.05856,-0.13176,-0.04392
0.02928,0.03904,-0.10736,-0.122,-0.13664,0.08296,0.1708,0.16592,0.76128,0.06344,-0.13176,-0.04392
0.02928,0.0366,-0.10248,-0.11712,-0.13176,0.08052,0.18056,0.18544,0.78568,0.08296,-0.10736,-0.03416
0.02928,0.03172,-0.09272,-0.10736,-0.122,0.07564,0.19032,0.20008,0.81984,0.0976,-0.09272,-0.02928
0.02928,0.02684,-0.08296,-0.0976,-0.11224,0.07076,0.1952,0.21472,0.85888,0.14152,-0.0732,-0.0244
0.03416,0.01464,-0.06344,-0.08052,-0.0976,0.06588,0.21472,0.23912,0.90768,0.18056,-0.0488,-0.01952
0.03416,0.00976,-0.05368,-0.07076,-0.08784,0.061,0.22448,0.26352,0.94184,0.21472,-0.02928,-0.00976
0.04392,-0.00244,-0.03904,-0.061,-0.08296,0.06344,0.22936,0.2928,0.99064,0.23912,-0.01464,0.00488
0.04392,-0.00976,-0.0244,-0.04636,-0.06832,0.05612,0.24888,0.3172,1.03456,0.28792,0,0.00976
0.04392,-0.01708,-0.00976,-0.03172,-0.05368,0.0488,0.26352,0.35624,1.08824,0.33672,0.01952,0.0244
0.05856,-0.03416,0.00976,-0.01952,-0.0488,0.05368,0.27328,0.38552,1.13704,0.37088,0.03416,0.03416
0.06344,-0.0488,0.03416,0.00244,-0.02928,0.04636,0.28792,0.40992,1.19072,0.42944,0.0488,0.04392
0.08296,-0.07076,0.05856,0.01708,-0.0244,0.05368,0.29768,0.43432,1.23464,0.47336,0.07808,0.05856
0.08296,-0.08052,0.07808,0.0366,-0.00488,0.04392,0.30744,0.46848,1.27368,0.52704,0.10736,0.0732
0.09272,-0.0976,0.10248,0.05612,0.00976,0.04148,0.30744,0.49776,1.31272,0.57584,0.12688,0.08784
0.09272,-0.10736,0.122,0.07564,0.02928,0.03172,0.31232,0.49776,1.342,0.61,0.14152,0.10736
0.0976,-0.11956,0.14152,0.09272,0.04392,0.02684,0.31232,0.5124,1.3664,0.6344,0.15616,0.11224
0.10736,-0.1342,0.16104,0.10736,0.05368,0.02684,0.30744,0.51728,1.37616,0.64904,0.15616,0.122
0.10736,-0.14152,0.17568,0.122,0.06832,0.01952,0.30256,0.5124,1.3664,0.64904,0.16104,0.12688
0.10736,-0.14884,0.19032,0.13664,0.08296,0.0122,0.28792,0.50264,1.35664,0.64904,0.16104,0.13664
0.11224,-0.16104,0.20984,0.15372,0.0976,0.00732,0.27328,0.488,1.33224,0.63928,0.15616,0.14152
0.11224,-0.17568,0.23912,0.183,0.12688,-0.00732,0.25376,0.45872,1.30296,0.62952,0.1464,0.13664
0.11224,-0.18056,0.24888,0.19276,0.13664,-0.0122,0.23912,0.4392,1.27856,0.61,0.14152,0.13176
0.10736,-0.17812,0.24888,0.1952,0.14152,-0.01708,0.22936,0.41968,1.24928,0.58072,0.13664,0.12688
0.10248,-0.1708,0.23912,0.18788,0.13664,-0.01708,0.21472,0.38552,1.18584,0.53192,0.11712,0.122
0.10248,-0.16592,0.22936,0.17812,0.12688,-0.0122,0.20984,0.36112,1.14192,0.5124,0.11712,0.122
0.0976,-0.16104,0.22448,0.17568,0.12688,-0.01464,0.18544,0.31232,1.09312,0.45872,0.07808,0.11224
0.08784,-0.14884,0.20984,0.16592,0.122,-0.01708,0.1708,0.27328,1.03456,0.40016,0.05368,0.10248
0.06832,-0.13176,0.1952,0.16104,0.12688,-0.02928,0.15616,0.24888,0.976,0.3416,0.02928,0.0976
0.06344,-0.12444,0.18544,0.15372,0.122,-0.02928,0.14152,0.21472,0.91256,0.2928,0.00976,0.08784
0.01952,-0.08296,0.1464,0.13664,0.12688,-0.05368,0.13664,0.18544,0.854,0.24888,-0.02928,0.0732
-0.0244,-0.04392,0.11224,0.12444,0.13664,-0.08052,0.13664,0.16592,0.81008,0.20008,-0.04392,0.06344
-0.03416,-0.03172,0.0976,0.11468,0.13176,-0.08296,0.10736,0.13176,0.74176,0.15128,-0.06832,0.05368
-0.0488,-0.00732,0.06344,0.08784,0.11224,-0.08052,0.10736,0.0976,0.67344,0.10736,-0.0976,0.0488
-0.00488,-0.00732,0.01952,0.02196,0.0244,-0.01464,0.09272,0.06832,0.62464,0.06344,-0.13664,0.00488
0.03904,-0.00976,-0.01952,-0.03904,-0.05856,0.0488,0.08296,0.03904,0.58072,0.03904,-0.17568,-0.03416
0.01952,0.00732,-0.03416,-0.04392,-0.05368,0.0366,0.06832,0.01952,0.54168,0.00488,-0.18056,-0.02928
0,0.02196,-0.04392,-0.04392,-0.04392,0.02196,0.05856,0.00488,0.51728,-0.00976,-0.18544,-0.03416
0,0.0244,-0.0488,-0.0488,-0.0488,0.0244,0.04392,-0.00976,0.49288,-0.05368,-0.19032,-0.03416
-0.00488,0.02928,-0.05368,-0.05124,-0.0488,0.02196,0.03904,-0.01952,0.47336,-0.07808,-0.20008,-0.02928
-0.01464,0.04148,-0.06832,-0.061,-0.05368,0.01952,0.03416,-0.0244,0.4636,-0.06344,-0.20008,-0.03904
-0.01952,0.05368,-0.08784,-0.07808,-0.06832,0.0244,0.02928,-0.02928,0.44896,-0.0732,-0.20496,-0.0488
-0.0244,0.05612,-0.08784,-0.07564,-0.06344,0.01952,0.02928,-0.02928,0.4392,-0.07808,-0.20984,-0.0488
-0.02928,0.05856,-0.08784,-0.0732,-0.05856,0.01464,0.02928,-0.03416,0.43432,-0.0976,-0.20496,-0.0488
-0.03416,0.061,-0.08784,-0.07076,-0.05368,0.00976,0.02928,-0.03416,0.42456,-0.08784,-0.20984,-0.04392
-0.03416,0.06344,-0.09272,-0.07564,-0.05856,0.0122,0.03904,-0.02928,0.42456,-0.11224,-0.20984,-0.04392
-0.03904,0.06588,-0.09272,-0.0732,-0.05368,0.00732,0.03904,-0.0244,0.42944,-0.08784,-0.21472,-0.03904
-0.04392,0.07808,-0.11224,-0.09028,-0.06832,0.0122,0.04392,-0.01952,0.44408,-0.08784,-0.2196,-0.03416
-0.06344,0.08296,-0.10248,-0.07076,-0.03904,-0.0122,0.0488,-0.01952,0.44408,-0.0976,-0.2196,-0.02928
-0.08784,0.0854,-0.08296,-0.03904,0.00488,-0.04636,0.05856,-0.01952,0.44896,-0.0976,-0.2196,-0.0244
-0.06344,0.08052,-0.0976,-0.06588,-0.03416,-0.01464,0.06344,-0.01464,0.45384,-0.0976,-0.22936,-0.0244
-0.03416,0.0732,-0.11224,-0.09516,-0.07808,0.02196,0.06344,-0.00976,0.45384,-0.0976,-0.23912,-0.0244
-0.02928,0.07076,-0.11224,-0.0976,-0.08296,0.02684,0.05856,-0.00976,0.45384,-0.0976,-0.24888,-0.02928
-0.0244,0.07076,-0.11712,-0.10492,-0.09272,0.03416,0.06344,-0.01464,0.45872,-0.0976,-0.25864,-0.03416
-0.0244,0.07076,-0.11712,-0.10492,-0.09272,0.03416,0.05856,-0.01464,0.45872,-0.10736,-0.25864,-0.03904
-0.0244,0.06588,-0.10736,-0.09516,-0.08296,0.02928,0.06344,-0.00488,0.4636,-0.08784,-0.25864,-0.03904
-0.01952,0.061,-0.10248,-0.09272,-0.08296,0.03172,0.06344,-0.00488,0.4636,-0.08784,-0.26352,-0.04392
-0.01952,0.061,-0.10248,-0.09272,-0.08296,0.03172,0.06832,-0.00488,0.4636,-0.09272,-0.2684,-0.0488
-0.0244,0.061,-0.0976,-0.0854,-0.0732,0.0244,0.06832,0,0.46848,-0.08784,-0.26352,-0.0488
-0.02928,0.06344,-0.0976,-0.08296,-0.06832,0.01952,0.06832,0,0.47824,-0.08784,-0.26352,-0.0488
-0.02928,0.06344,-0.0976,-0.08296,-0.06832,0.01952,0.06832,0.00488,0.47824,-0.08296,-0.25864,-0.04392
-0.02928,0.06344,-0.0976,-0.08296,-0.06832,0.01952,0.06832,0.00976,0.47824,-0.07808,-0.25376,-0.03904
-0.0244,0.061,-0.0976,-0.0854,-0.0732,0.0244,0.06832,0.00976,0.48312,-0.0732,-0.25376,-0.03904
-0.01952,0.05856,-0.0976,-0.08784,-0.07808,0.02928,0.06832,0.00976,0.48312,-0.06832,-0.25376,-0.03904
-0.01952,0.05856,-0.0976,-0.08784,-0.07808,0.02928,0.0732,0.01464,0.488,-0.06344,-0.25864,-0.03904
-0.01952,0.061,-0.10248,-0.09272,-0.08296,0.03172,0.0732,0.01464,0.49288,-0.05368,-0.25864,-0.03904
-0.01464,0.061,-0.10736,-0.10004,-0.09272,0.03904,0.0732,0.01464,0.49288,-0.0488,-0.26352,-0.03416
-0.01464,0.061,-0.10736,-0.10004,-0.09272,0.03904,0.06832,0.01464,0.49288,-0.04392,-0.26352,-0.02928
-0.01464,0.05856,-0.10248,-0.09516,-0.08784,0.0366,0.06344,0.01464,0.49288,-0.04392,-0.26352,-0.03416
-0.01464,0.05612,-0.0976,-0.09028,-0.08296,0.03416,0.06344,0.00976,0.49288,-0.03416,-0.2684,-0.03416
-0.00976,0.0488,-0.08784,-0.08296,-0.07808,0.03416,0.05856,0.00976,0.50264,-0.03416,-0.2684,-0.02928
-0.00976,0.04148,-0.0732,-0.06832,-0.06344,0.02684,0.05856,0.00976,0.51728,-0.0244,-0.25864,-0.01952
-0.00976,0.01708,-0.0244,-0.01952,-0.01464,0.00244,0.06344,0.01952,0.5368,0.00976,-0.23912,-0.01952
-0.00488,-0.01708,0.03904,0.04148,0.04392,-0.0244,0.07808,0.0244,0.57584,0.0244,-0.2196,0
0,-0.03172,0.06344,0.06344,0.06344,-0.03172,0.0976,0.02928,0.61,0.06344,-0.18544,0.01952
0.00488,-0.04392,0.08296,0.08052,0.07808,-0.0366,0.122,0.0488,0.61,0.07808,-0.18056,0.0244
0.00488,-0.04392,0.08296,0.08052,0.07808,-0.0366,0.13176,0.05368,0.61488,0.07808,-0.17568,0.02928
0.00976,-0.04636,0.08296,0.07808,0.0732,-0.03172,0.13176,0.05368,0.61976,0.0732,-0.1708,0.02928
0.00488,-0.05368,0.10248,0.10004,0.0976,-0.04636,0.12688,0.05368,0.61976,0.0732,-0.16104,0.02928
0.00488,-0.06344,0.122,0.11956,0.11712,-0.05612,0.06832,0.00976,0.60024,0.0732,-0.15128,0.04392
0.00488,-0.08296,0.16104,0.1586,0.15616,-0.07564,0.03904,0,0.59536,0.08296,-0.13664,0.06832
0.01464,-0.11468,0.21472,0.2074,0.20008,-0.09272,0.00976,-0.0244,0.57584,0.09272,-0.11712,0.0976
0.03904,-0.13908,0.23912,0.2196,0.20008,-0.08052,-0.00488,-0.03904,0.5612,0.08784,-0.10248,0.09272
0.06832,-0.14396,0.2196,0.18544,0.15128,-0.04148,-0.01464,-0.03904,0.54656,0.07808,-0.0976,0.09272
0.05368,-0.1342,0.21472,0.18788,0.16104,-0.05368,-0.02928,-0.04392,0.52216,0.06832,-0.0976,0.10248
0.03904,-0.11468,0.19032,0.1708,0.15128,-0.05612,-0.05856,-0.05856,0.47824,0.03416,-0.10736,0.10248
0.0244,-0.0854,0.1464,0.1342,0.122,-0.0488,-0.05368,-0.06832,0.44896,0,-0.13176,0.07808
0.00488,-0.03172,0.05856,0.05612,0.05368,-0.0244,-0.0488,-0.06832,0.42944,-0.03416,-0.17568,0.03416
-0.00488,-0.00244,0.00976,0.0122,0.01464,-0.00976,-0.04392,-0.06832,0.4148,-0.04392,-0.1952,0.00488
-0.01952,0.02928,-0.03904,-0.02928,-0.01952,0,-0.02928,-0.05368,0.39528,-0.07808,-0.2196,-0.03904
-0.01952,0.05612,-0.09272,-0.08296,-0.0732,0.02684,-0.01464,-0.05368,0.37576,-0.10736,-0.22936,-0.05856
-0.01952,0.0732,-0.12688,-0.11712,-0.10736,0.04392,-0.01464,-0.0488,0.37088,-0.11712,-0.23912,-0.06344
-0.02928,0.09028,-0.15128,-0.13664,-0.122,0.04636,-0.00488,-0.03416,0.37088,-0.122,-0.24888,-0.0732
-0.03904,0.10004,-0.16104,-0.14152,-0.122,0.04148,0.01464,-0.0244,0.37576,-0.11712,-0.24888,-0.0732
-0.03904,0.09516,-0.15128,-0.13176,-0.11224,0.0366,0.01464,-0.01952,0.366,-0.11712,-0.23912,-0.0732
-0.03904,0.09516,-0.15128,-0.13176,-0.11224,0.0366,0.00976,-0.01952,0.35136,-0.122,-0.23912,-0.07808
-0.02928,0.09028,-0.15128,-0.13664,-0.122,0.04636,0,-0.02928,0.33672,-0.122,-0.244,-0.08296
-0.01952,0.0854,-0.15128,-0.14152,-0.13176,0.05612,-0.00976,-0.03904,0.32696,-0.12688,-0.244,-0.08784
-0.01952,0.09516,-0.1708,-0.16104,-0.15128,0.06588,-0.01464,-0.03904,0.32208,-0.14152,-0.26352,-0.09272
-0.01952,0.10736,-0.1952,-0.18544,-0.17568,0.07808,-0.01952,-0.03904,0.32208,-0.1464,-0.26352,-0.09272
-0.0244,0.11224,-0.20008,-0.18788,-0.17568,0.07564,-0.01952,-0.03904,0.32208,-0.1464,-0.26352,-0.0976
-0.02928,0.11468,-0.20008,-0.18544,-0.1708,0.07076,-0.01464,-0.03904,0.32208,-0.14152,-0.2684,-0.0976
-0.0244,0.11224,-0.20008,-0.18788,-0.17568,0.07564,-0.00976,-0.03416,0.32208,-0.14152,-0.2684,-0.09272
-0.0244,0.11468,-0.20496,-0.19276,-0.18056,0.07808,-0.00488,-0.02928,0.3172,-0.1464,-0.2684,-0.09272
-0.01952,0.12932,-0.23912,-0.22936,-0.2196,0.10004,-0.00488,-0.00976,0.31232,-0.16104,-0.2684,-0.08784
-0.00976,0.15372,-0.29768,-0.2928,-0.28792,0.13908,0.01464,0.03904,0.32208,-0.18544,-0.2684,-0.08784
0.00488,0.14884,-0.30256,-0.305,-0.30744,0.15616,0.03416,0.09272,0.39528,-0.12688,-0.25376,-0.07808
0.03416,0.07076,-0.17568,-0.19276,-0.20984,0.122,0.01952,0.10248,0.46848,0.05856,-0.15128,-0.01952
0.0732,-0.11712,0.16104,0.12444,0.08784,-0.00732,-0.12688,-0.03416,0.36112,0.52704,0.05856,0.11224
0.11712,-0.43432,0.75152,0.69296,0.6344,-0.25864,-0.366,-0.23424,0.0732,1.25904,0.42944,0.34648
0.16104,-0.83204,1.50304,1.42252,1.342,-0.59048,-0.7564,-0.64416,-0.48312,1.91784,0.83448,0.65392
0.19032,-1.22488,2.25944,2.16428,2.06912,-0.9394,-1.32736,-1.24928,-1.46888,2.4888,1.16144,0.9272
0.1708,-1.37616,2.58152,2.49612,2.41072,-1.11996,-1.81536,-1.77144,-2.28872,2.38144,1.16144,1.03944
0.06344,-1.18584,2.30824,2.27652,2.2448,-1.09068,-2.21552,-2.19112,-3.01096,1.22,0.72224,0.9272
-0.06344,-0.61976,1.30296,1.33468,1.3664,-0.71492,-2.14232,-2.0984,-3.11832,-0.0244,0.22936,0.67344
-0.1464,-0.09516,0.33672,0.40992,0.48312,-0.31476,-1.71776,-1.64944,-2.54736,-1.0004,-0.27328,0.3416
-0.12688,0.09516,-0.06344,0,0.06344,-0.09516,-1.32736,-1.18584,-1.88856,-1.14192,-0.4392,0.16104
-0.07808,0.09516,-0.11224,-0.0732,-0.03416,-0.02196,-0.91744,-0.75152,-1.05896,-0.80032,-0.40016,0.0976
-0.0488,0.07076,-0.09272,-0.06832,-0.04392,-0.00244,-0.56608,-0.44896,-0.50264,-0.5124,-0.37576,0.0488
-0.03416,0.11224,-0.19032,-0.17324,-0.15616,0.061,-0.2928,-0.23424,-0.10248,-0.35136,-0.37088,-0.03416
-0.02928,0.122,-0.21472,-0.20008,-0.18544,0.07808,-0.11712,-0.0976,0.13176,-0.24888,-0.34648,-0.0976
-0.0244,0.10492,-0.18544,-0.17324,-0.16104,0.06832,-0.0244,0,0.2928,-0.16104,-0.28792,-0.08296
-0.01464,0.10004,-0.18544,-0.17812,-0.1708,0.07808,0.0244,0.02928,0.39528,-0.12688,-0.25864,-0.0732
-0.00976,0.10248,-0.1952,-0.19032,-0.18544,0.08784,0.03904,0.02928,0.40504,-0.13176,-0.2684,-0.0732
-0.01464,0.10004,-0.18544,-0.17812,-0.1708,0.07808,0.06344,0.05368,0.42456,-0.10736,-0.25864,-0.08296
-0.01464,0.09516,-0.17568,-0.16836,-0.16104,0.0732,0.06344,0.06832,0.45384,-0.0976,-0.23912,-0.08296
-0.01464,0.10004,-0.18544,-0.17812,-0.1708,0.07808,0.0732,0.08296,0.47824,-0.08784,-0.23912,-0.08296
-0.01464,0.10492,-0.1952,-0.18788,-0.18056,0.08296,0.07808,0.09272,0.50752,-0.07808,-0.22936,-0.08296
-0.01464,0.10736,-0.20008,-0.19276,-0.18544,0.0854,0.07808,0.10248,0.5124,-0.05856,-0.2196,-0.07808
-0.01464,0.10736,-0.20008,-0.19276,-0.18544,0.0854,0.08296,0.11224,0.5368,-0.05368,-0.2196,-0.0732
-0.0244,0.11224,-0.20008,-0.18788,-0.17568,0.07564,0.08296,0.122,0.55632,-0.04392,-0.21472,-0.0732
-0.01464,0.10492,-0.1952,-0.18788,-0.18056,0.08296,0.08784,0.12688,0.56608,-0.01952,-0.20984,-0.0732
-0.00488,0.09272,-0.18056,-0.17812,-0.17568,0.0854,0.08784,0.13176,0.58072,0,-0.20008,-0.06832
-0.00488,0.08784,-0.1708,-0.16836,-0.16592,0.08052,0.08784,0.14152,0.59536,0.01464,-0.20008,-0.06832
0.00488,0.07564,-0.15616,-0.1586,-0.16104,0.08296,0.08296,0.15128,0.60024,0.01952,-0.18544,-0.05856
0.01464,0.07076,-0.15616,-0.16348,-0.1708,0.09272,0.08784,0.15128,0.61976,0.02928,-0.17568,-0.05856
0.01952,0.061,-0.14152,-0.15128,-0.16104,0.09028,0.08784,0.16104,0.63928,0.03904,-0.16104,-0.05368
0.03904,0.04392,-0.12688,-0.1464,-0.16592,0.10248,0.10248,0.16592,0.66368,0.04392,-0.16104,-0.05368
0.03904,0.04148,-0.122,-0.14152,-0.16104,0.10004,0.10736,0.19032,0.70272,0.06344,-0.14152,-0.04392
0.03904,0.0366,-0.11224,-0.13176,-0.15128,0.09516,0.11224,0.20984,0.75152,0.07808,-0.13176,-0.03904
0.03904,0.02928,-0.0976,-0.11712,-0.13664,0.08784,0.11224,0.22448,0.77592,0.11712,-0.11224,-0.02928
0.04392,0.01464,-0.0732,-0.09516,-0.11712,0.08052,0.12688,0.24888,0.81008,0.15128,-0.08784,-0.01952
0.03416,0.01464,-0.06344,-0.08052,-0.0976,0.06588,0.14152,0.27328,0.854,0.19032,-0.06344,-0.00976
0.03416,0.00732,-0.0488,-0.06588,-0.08296,0.05856,0.15128,0.30256,0.91256,0.2196,-0.04392,0.00488
0.04392,-0.00488,-0.03416,-0.05612,-0.07808,0.061,0.17568,0.32696,0.9516,0.27816,-0.02928,0.01464
0.05368,-0.01708,-0.01952,-0.04636,-0.0732,0.06344,0.1952,0.366,1.0004,0.33672,-0.00976,0.03416
0.0732,-0.03904,0.00488,-0.03172,-0.06832,0.07076,0.20008,0.39528,1.0492,0.37576,0.00488,0.04392
0.08296,-0.05856,0.03416,-0.00732,-0.0488,0.06588,0.20984,0.41968,1.10288,0.4392,0.01952,0.05368
0.10248,-0.08296,0.06344,0.0122,-0.03904,0.07076,0.2196,0.4392,1.1468,0.47336,0.04392,0.06344
0.10248,-0.09516,0.08784,0.0366,-0.01464,0.05856,0.22936,0.46848,1.18584,0.51728,0.06832,0.0732
0.11712,-0.11468,0.11224,0.05368,-0.00488,0.061,0.22936,0.50264,1.22976,0.57096,0.09272,0.08784
0.122,-0.12688,0.13176,0.07076,0.00976,0.05612,0.23424,0.50752,1.26392,0.61,0.11224,0.10736
0.122,-0.14152,0.16104,0.10004,0.03904,0.04148,0.23912,0.51728,1.28832,0.6344,0.13176,0.11712
0.12688,-0.1586,0.19032,0.12688,0.06344,0.03172,0.23912,0.51728,1.29808,0.64904,0.13664,0.13176
0.12688,-0.16592,0.20496,0.14152,0.07808,0.0244,0.23912,0.51728,1.30296,0.64904,0.1464,0.13664
0.12688,-0.17324,0.2196,0.15616,0.09272,0.01708,0.22936,0.5124,1.30784,0.64904,0.15128,0.1464
0.12688,-0.17568,0.22448,0.16104,0.0976,0.01464,0.2196,0.50264,1.2932,0.64416,0.15616,0.15616
0.122,-0.18056,0.23912,0.17812,0.11712,0.00244,0.20496,0.47824,1.27368,0.63928,0.15616,0.15616
0.12688,-0.18788,0.24888,0.18544,0.122,0.00244,0.18544,0.45384,1.2444,0.61976,0.15128,0.15616
0.12688,-0.18788,0.24888,0.18544,0.122,0.00244,0.1708,0.42944,1.21024,0.59048,0.1464,0.15616
0.122,-0.183,0.244,0.183,0.122,0,0.15128,0.39528,1.15656,0.54168,0.12688,0.15128
0.122,-0.18056,0.23912,0.17812,0.11712,0.00244,0.14152,0.37088,1.1224,0.52216,0.12688,0.15128
0.11224,-0.1708,0.22936,0.17324,0.11712,-0.00244,0.122,0.33184,1.0736,0.47824,0.0976,0.1464
0.0976,-0.15372,0.20984,0.16104,0.11224,-0.00732,0.11224,0.30256,1.01504,0.42944,0.08296,0.14152
0.08296,-0.13908,0.1952,0.15372,0.11224,-0.01464,0.0976,0.26352,0.95648,0.366,0.05856,0.13664
0.08296,-0.1342,0.18544,0.14396,0.10248,-0.00976,0.08296,0.21472,0.89304,0.31232,0.03904,0.12688
0.05368,-0.10004,0.1464,0.11956,0.09272,-0.01952,0.06832,0.1708,0.81496,0.25864,0,0.11224
0.0244,-0.06832,0.11224,0.10004,0.08784,-0.03172,0.05856,0.13664,0.75152,0.20008,-0.01464,0.10248
0.02928,-0.06588,0.10248,0.08784,0.0732,-0.02196,0.02928,0.11224,0.69296,0.1464,-0.03904,0.08296
0.02928,-0.05124,0.0732,0.05856,0.04392,-0.00732,0.02928,0.08784,0.6344,0.0976,-0.06832,0.06832
0.02928,-0.04148,0.05368,0.03904,0.0244,0.00244,0.0244,0.06832,0.59048,0.0488,-0.09272,0.05368
0.02928,-0.03416,0.03904,0.0244,0.00976,0.00976,0.0244,0.0488,0.55144,0.01952,-0.11712,0.04392
-0.00488,-0.00244,0.00976,0.0122,0.01464,-0.00976,0.00976,0.02928,0.5124,-0.0244,-0.13664,0.03904
-0.03904,0.02684,-0.01464,0.00488,0.0244,-0.03172,0,0.01464,0.488,-0.0488,-0.15616,0.0244
-0.01952,0.02928,-0.03904,-0.02928,-0.01952,0,-0.00976,0,0.4636,-0.0732,-0.16592,0.00976
-0.00488,0.03416,-0.06344,-0.061,-0.05856,0.02684,-0.00976,-0.00976,0.44408,-0.07808,-0.18056,0
-0.00488,0.04148,-0.07808,-0.07564,-0.0732,0.03416,-0.00976,-0.01464,0.4392,-0.06832,-0.18544,-0.00976
0,0.0488,-0.0976,-0.0976,-0.0976,0.0488,-0.00976,-0.01952,0.42944,-0.08296,-0.1952,-0.01952
-0.00488,0.0488,-0.09272,-0.09028,-0.08784,0.04148,-0.00976,-0.01952,0.41968,-0.08784,-0.20008,-0.01952
-0.00976,0.0488,-0.08784,-0.08296,-0.07808,0.03416,-0.00976,-0.0244,0.4148,-0.10736,-0.1952,-0.01952
-0.01464,0.05124,-0.08784,-0.08052,-0.0732,0.02928,-0.00976,-0.02928,0.40504,-0.08784,-0.20008,-0.01464
-0.01464,0.05368,-0.09272,-0.0854,-0.07808,0.03172,0,-0.02928,0.40504,-0.10248,-0.20008,-0.01464
-0.00976,0.0488,-0.08784,-0.08296,-0.07808,0.03416,0,-0.02928,0.39528,-0.08784,-0.20496,-0.01952
-0.00488,0.05368,-0.10248,-0.10004,-0.0976,0.04636,0.00488,-0.02928,0.39528,-0.0976,-0.20984,-0.0244
-0.00488,0.05368,-0.10248,-0.10004,-0.0976,0.04636,0,-0.02928,0.3904,-0.11224,-0.20984,-0.03416
-0.00976,0.05124,-0.09272,-0.08784,-0.08296,0.0366,0,-0.02928,0.3904,-0.11712,-0.20984,-0.04392
-0.00976,0.05124,-0.09272,-0.08784,-0.08296,0.0366,0.00488,-0.0244,0.39528,-0.11712,-0.20984,-0.04392
-0.00488,0.0488,-0.09272,-0.09028,-0.08784,0.04148,0.00488,-0.01952,0.39528,-0.11712,-0.20984,-0.04392
-0.01464,0.05368,-0.09272,-0.0854,-0.07808,0.03172,0.00976,-0.01464,0.40504,-0.10736,-0.20496,-0.03416
-0.0244,0.061,-0.0976,-0.0854,-0.0732,0.0244,0.0244,-0.01464,0.41968,-0.0976,-0.20008,-0.0244
-0.0244,0.06344,-0.10248,-0.09028,-0.07808,0.02684,0.0244,-0.00488,0.41968,-0.10736,-0.20008,-0.02928
-0.0244,0.061,-0.0976,-0.0854,-0.0732,0.0244,0.03416,0.01464,0.42456,-0.08784,-0.20008,-0.02928
-0.01952,0.061,-0.10248,-0.09272,-0.08296,0.03172,0.03416,0.00976,0.42944,-0.08296,-0.20008,-0.03416
-0.01952,0.06588,-0.11224,-0.10248,-0.09272,0.0366,0.03904,0.00488,0.43432,-0.08296,-0.20008,-0.03904
-0.01464,0.05612,-0.0976,-0.09028,-0.08296,0.03416,0.02928,0,0.42456,-0.07808,-0.1952,-0.03904
-0.00976,0.0488,-0.08784,-0.08296,-0.07808,0.03416,0.01952,-0.00976,0.41968,-0.07808,-0.1952,-0.03904
-0.00976,0.0488,-0.08784,-0.08296,-0.07808,0.03416,0.01952,-0.00976,0.41968,-0.07808,-0.18544,-0.03904
-0.00976,0.0488,-0.08784,-0.08296,-0.07808,0.03416,0.01952,-0.00976,0.41968,-0.07808,-0.17568,-0.03904
-0.00976,0.05124,-0.09272,-0.08784,-0.08296,0.0366,0.0244,-0.00488,0.42944,-0.0732,-0.1708,-0.03416
-0.00976,0.05124,-0.09272,-0.08784,-0.08296,0.0366,0.02928,0,0.42944,-0.06832,-0.1708,-0.02928
-0.01464,0.05612,-0.0976,-0.09028,-0.08296,0.03416,0.03416,0.00488,0.43432,-0.06832,-0.1708,-0.02928
-0.01952,0.061,-0.10248,-0.09272,-0.08296,0.03172,0.03416,0.00488,0.43432,-0.06344,-0.1708,-0.02928
-0.01464,0.061,-0.10736,-0.10004,-0.09272,0.03904,0.03416,0.00488,0.42944,-0.06344,-0.18056,-0.03416
-0.01464,0.061,-0.10736,-0.10004,-0.09272,0.03904,0.02928,0.00488,0.42456,-0.06344,-0.18544,-0.03904
-0.01464,0.05856,-0.10248,-0.09516,-0.08784,0.0366,0.0244,0.00488,0.41968,-0.06832,-0.18544,-0.04392
-0.01464,0.05612,-0.0976,-0.09028,-0.08296,0.03416,0.0244,0,0.4148,-0.06344,-0.19032,-0.04392
-0.00976,0.0488,-0.08784,-0.08296,-0.07808,0.03416,0.0244,0,0.41968,-0.06344,-0.19032,-0.03904
-0.00976,0.04148,-0.0732,-0.06832,-0.06344,0.02684,0.02928,0,0.42944,-0.05368,-0.18056,-0.02928
-0.00488,0.01708,-0.02928,-0.02684,-0.0244,0.00976,0.03904,0.00976,0.44896,-0.01952,-0.16104,-0.0244
0.00488,-0.01708,0.02928,0.02684,0.0244,-0.00976,0.05856,0.01464,0.488,-0.00488,-0.14152,0
0.00976,-0.03416,0.05856,0.05368,0.0488,-0.01952,0.07808,0.01952,0.53192,0.03416,-0.11224,0.01952
0.01464,-0.0488,0.08296,0.07564,0.06832,-0.02684,0.10248,0.03904,0.54168,0.0488,-0.11224,0.0244
0.00976,-0.04636,0.08296,0.07808,0.0732,-0.03172,0.11224,0.04392,0.54656,0.05368,-0.11224,0.02928
0.00976,-0.04636,0.08296,0.07808,0.0732,-0.03172,0.11224,0.04392,0.55144,0.05368,-0.11224,0.02928
0.00976,-0.05612,0.10248,0.0976,0.09272,-0.04148,0.10736,0.04392,0.54656,0.05368,-0.10736,0.02928
0.01464,-0.06832,0.122,0.11468,0.10736,-0.04636,0.0488,0,0.52216,0.05368,-0.10248,0.04392
0.01464,-0.0854,0.15616,0.14884,0.14152,-0.06344,0.01952,-0.00976,0.51728,0.06344,-0.08784,0.06832
0.0244,-0.11468,0.20496,0.19276,0.18056,-0.07808,-0.00976,-0.03416,0.49776,0.0732,-0.06832,0.0976
0.02928,-0.13908,0.24888,0.23424,0.2196,-0.09516,-0.0244,-0.0488,0.488,0.07808,-0.0488,0.10248
0.03904,-0.14396,0.24888,0.22936,0.20984,-0.0854,-0.03416,-0.0488,0.47824,0.07808,-0.03904,0.11224
0.03416,-0.13908,0.244,0.22692,0.20984,-0.08784,-0.04392,-0.0488,0.45872,0.0732,-0.03904,0.122
0.02928,-0.12444,0.2196,0.20496,0.19032,-0.08052,-0.06832,-0.05856,0.41968,0.04392,-0.0488,0.122
0,-0.0854,0.1708,0.1708,0.1708,-0.0854,-0.06832,-0.06344,0.3904,0.01464,-0.07808,0.0976
-0.03416,-0.02196,0.07808,0.09516,0.11224,-0.0732,-0.06832,-0.05856,0.37088,-0.01464,-0.12688,0.05368
-0.04392,0.00732,0.02928,0.05124,0.0732,-0.05856,-0.06344,-0.05856,0.35136,-0.01952,-0.1464,0.02928
-0.05856,0.03904,-0.01952,0.00976,0.03904,-0.0488,-0.0488,-0.04392,0.32696,-0.0488,-0.1708,-0.00976
-0.03904,0.05612,-0.0732,-0.05368,-0.03416,-0.00244,-0.03904,-0.0488,0.30744,-0.08296,-0.19032,-0.02928
-0.01952,0.06344,-0.10736,-0.0976,-0.08784,0.03416,-0.04392,-0.0488,0.30256,-0.0976,-0.20984,-0.03416
-0.01952,0.07564,-0.13176,-0.122,-0.11224,0.04636,-0.04392,-0.04392,0.2928,-0.11224,-0.2196,-0.04392
-0.01952,0.08052,-0.14152,-0.13176,-0.122,0.05124,-0.03416,-0.04392,0.28792,-0.11712,-0.2196,-0.04392
-0.01952,0.08296,-0.1464,-0.13664,-0.12688,0.05368,-0.03416,-0.04392,0.28792,-0.122,-0.21472,-0.04392
-0.01952,0.09028,-0.16104,-0.15128,-0.14152,0.061,-0.03904,-0.0488,0.28304,-0.13176,-0.2196,-0.0488
-0.01952,0.08784,-0.15616,-0.1464,-0.13664,0.05856,-0.03904,-0.0488,0.27328,-0.13176,-0.2196,-0.05368
-0.01952,0.0854,-0.15128,-0.14152,-0.13176,0.05612,-0.03904,-0.0488,0.2684,-0.13664,-0.21472,-0.05856
-0.04392,0.0976,-0.15128,-0.12932,-0.10736,0.03172,-0.03904,-0.04392,0.26352,-0.1464,-0.22448,-0.06344
-0.06832,0.11224,-0.15616,-0.122,-0.08784,0.00976,-0.03904,-0.03904,0.26352,-0.1464,-0.21472,-0.06344
-0.05368,0.11224,-0.1708,-0.14396,-0.11712,0.03172,-0.03904,-0.03904,0.26352,-0.1464,-0.21472,-0.06832
-0.03904,0.1098,-0.18056,-0.16104,-0.14152,0.05124,-0.03416,-0.03904,0.26352,-0.14152,-0.2196,-0.06832
-0.03416,0.1098,-0.18544,-0.16836,-0.15128,0.05856,-0.03416,-0.03904,0.25864,-0.14152,-0.2196,-0.0732
-0.03416,0.11468,-0.1952,-0.17812,-0.16104,0.06344,-0.03416,-0.03904,0.24888,-0.1464,-0.2196,-0.08296
-0.03416,0.12444,-0.21472,-0.19764,-0.18056,0.0732,-0.0244,-0.02928,0.244,-0.16104,-0.2196,-0.08296
-0.02928,0.14396,-0.25864,-0.244,-0.22936,0.10004,0.00488,0.00976,0.25376,-0.18544,-0.2196,-0.08784
-0.01952,0.16592,-0.31232,-0.30256,-0.2928,0.13664,0.02928,0.07808,0.32696,-0.18544,-0.22448,-0.0976
0.00488,0.11468,-0.23424,-0.23668,-0.23912,0.122,0.01952,0.10248,0.40016,-0.05856,-0.14152,-0.05856
0.05368,-0.04148,0.02928,0.00244,-0.0244,0.03904,-0.0732,0.02928,0.41968,0.32208,0.01952,0.04392
0.10736,-0.32696,0.54656,0.49288,0.4392,-0.16592,-0.25864,-0.10736,0.25864,0.96624,0.3416,0.24888
0.15616,-0.74176,1.32736,1.24928,1.1712,-0.50752,-0.61976,-0.50752,-0.23912,1.7568,0.81496,0.59536
0.19032,-1.15168,2.11304,2.01788,1.92272,-0.8662,-1.16144,-1.10288,-1.16632,2.45952,1.21024,0.90768
0.1708,-1.39568,2.62056,2.53516,2.44976,-1.13948,-1.74216,-1.71776,-2.14232,2.50344,1.2932,1.06872
0.06344,-1.29808,2.53272,2.501,2.46928,-1.20292,-2.23504,-2.23016,-3.02072,1.49328,0.93696,1.00528
-0.07808,-0.68564,1.44936,1.4884,1.52744,-0.80276,-2.20576,-2.18624,-3.21592,0.10736,0.38064,0.732
-0.17568,-0.11468,0.40504,0.49288,0.58072,-0.3782,-1.82512,-1.78608,-2.7328,-1.01016,-0.18544,0.38064
-0.15616,0.09516,-0.03416,0.04392,0.122,-0.13908,-1.42008,-1.30296,-2.08864,-1.20536,-0.37088,0.19032
-0.10736,0.11468,-0.122,-0.06832,-0.01464,-0.04636,-0.99552,-0.84912,-1.27368,-0.91744,-0.35136,0.11712
-0.06832,0.0854,-0.10248,-0.06832,-0.03416,-0.01708,-0.62464,-0.52704,-0.64904,-0.5856,-0.3172,0.05856
-0.04392,0.122,-0.20008,-0.17812,-0.15616,0.05612,-0.33184,-0.2928,-0.18056,-0.38064,-0.30256,-0.03416
-0.03904,0.13176,-0.22448,-0.20496,-0.18544,0.0732,-0.14152,-0.13664,0.05856,-0.27328,-0.27816,-0.0976
-0.03416,0.11468,-0.1952,-0.17812,-0.16104,0.06344,-0.03416,-0.01952,0.22448,-0.18056,-0.2196,-0.08296
-0.0244,0.1098,-0.1952,-0.183,-0.1708,0.0732,0.01464,0.01464,0.34648,-0.14152,-0.19032,-0.0732
-0.01952,0.11224,-0.20496,-0.1952,-0.18544,0.08296,0.02928,0.01952,0.37576,-0.14152,-0.20008,-0.0732
-0.01464,0.10736,-0.20008,-0.19276,-0.18544,0.0854,0.06832,0.05368,0.3904,-0.11712,-0.20008,-0.08784
-0.00488,0.10004,-0.1952,-0.19276,-0.19032,0.09272,0.08296,0.07808,0.4148,-0.10736,-0.19032,-0.09272
0,0.09516,-0.19032,-0.19032,-0.19032,0.09516,0.08296,0.08296,0.43432,-0.0976,-0.19032,-0.09272
0.00488,0.09028,-0.18544,-0.18788,-0.19032,0.0976,0.07808,0.08296,0.45872,-0.08784,-0.18056,-0.09272
0.01464,0.08296,-0.18056,-0.18788,-0.1952,0.10492,0.0732,0.09272,0.4636,-0.06344,-0.16592,-0.08296
0.0244,0.0732,-0.1708,-0.183,-0.1952,0.1098,0.0732,0.10248,0.488,-0.05368,-0.16104,-0.0732
-0.00488,0.09028,-0.17568,-0.17324,-0.1708,0.08296,0.0732,0.11224,0.50752,-0.04392,-0.15128,-0.06832
-0.01464,0.09516,-0.17568,-0.16836,-0.16104,0.0732,0.07808,0.11712,0.51728,-0.01952,-0.14152,-0.06344
-0.01464,0.09272,-0.1708,-0.16348,-0.15616,0.07076,0.07808,0.122,0.53192,-0.00488,-0.13176,-0.05856
-0.0244,0.0976,-0.1708,-0.1586,-0.1464,0.061,0.07808,0.13176,0.54656,0.00488,-0.13176,-0.05856
-0.00976,0.08296,-0.15616,-0.15128,-0.1464,0.06832,0.07808,0.14152,0.55144,0.01464,-0.122,-0.05368
0.00488,0.07564,-0.15616,-0.1586,-0.16104,0.08296,0.08784,0.14152,0.57096,0.02928,-0.11712,-0.05856
0.00488,0.061,-0.12688,-0.12932,-0.13176,0.06832,0.08784,0.15128,0.59048,0.03904,-0.10248,-0.05368
0.01952,0.03904,-0.0976,-0.10736,-0.11712,0.06832,0.10248,0.15616,0.61488,0.04392,-0.10248,-0.05368
0.0244,0.03904,-0.10248,-0.11468,-0.12688,0.07564,0.10736,0.17568,0.64904,0.05856,-0.08296,-0.03904
0.02928,0.0366,-0.10248,-0.11712,-0.13176,0.08052,0.11224,0.19032,0.69296,0.06832,-0.0732,-0.02928
0.02928,0.03172,-0.09272,-0.10736,-0.122,0.07564,0.11224,0.20496,0.71736,0.10736,-0.05368,-0.0244
0.03416,0.01952,-0.0732,-0.09028,-0.10736,0.07076,0.12688,0.22936,0.75152,0.14152,-0.02928,-0.01952
0.03416,0.0122,-0.05856,-0.07564,-0.09272,0.06344,0.13664,0.24888,0.78568,0.16104,-0.00488,-0.00976
0.04392,-0.00244,-0.03904,-0.061,-0.08296,0.06344,0.14152,0.27328,0.83448,0.1708,0.01464,0.00488
0.04392,-0.00976,-0.0244,-0.04636,-0.06832,0.05612,0.16104,0.30256,0.88328,0.23912,0.0244,0.00488
0.04392,-0.01708,-0.00976,-0.03172,-0.05368,0.0488,0.17568,0.34648,0.94184,0.30744,0.03904,0.01464
0.05856,-0.02684,-0.00488,-0.03416,-0.06344,0.061,0.18056,0.37576,0.98088,0.32696,0.0488,0.01952
0.06344,-0.03416,0.00488,-0.02684,-0.05856,0.061,0.19032,0.40016,1.0248,0.37088,0.05856,0.0244
0.08784,-0.061,0.03416,-0.00976,-0.05368,0.07076,0.20008,0.4148,1.06872,0.4148,0.08296,0.03904
0.09272,-0.07564,0.05856,0.0122,-0.03416,0.06344,0.20984,0.4392,1.10776,0.46848,0.10736,0.05368
0.10736,-0.09516,0.08296,0.02928,-0.0244,0.06588,0.20984,0.48312,1.15656,0.51728,0.12688,0.06832
0.11224,-0.10736,0.10248,0.04636,-0.00976,0.061,0.21472,0.49776,1.1956,0.55144,0.14152,0.08784
0.11712,-0.12932,0.14152,0.08296,0.0244,0.04636,0.2196,0.5124,1.22,0.58072,0.1708,0.10248
0.12688,-0.15372,0.18056,0.11712,0.05368,0.0366,0.2196,0.51728,1.22976,0.60024,0.18544,0.122
0.12688,-0.16104,0.1952,0.13176,0.06832,0.02928,0.2196,0.5124,1.22976,0.60024,0.1952,0.11712
0.12688,-0.16836,0.20984,0.1464,0.08296,0.02196,0.20984,0.50264,1.22976,0.60024,0.20008,0.11712
0.12688,-0.1708,0.21472,0.15128,0.08784,0.01952,0.20496,0.49776,1.22,0.60512,0.20496,0.12688
0.122,-0.17568,0.22936,0.16836,0.10736,0.00732,0.1952,0.47824,1.20536,0.61,0.20496,0.12688
0.11712,-0.17812,0.23912,0.18056,0.122,-0.00244,0.17568,0.45872,1.18584,0.59048,0.20496,0.12688
0.10736,-0.17324,0.23912,0.18544,0.13176,-0.0122,0.16104,0.4392,1.16144,0.5612,0.20496,0.12688
0.10248,-0.1708,0.23912,0.18788,0.13664,-0.01708,0.14152,0.40504,1.10776,0.5124,0.18544,0.122
0.10248,-0.1708,0.23912,0.18788,0.13664,-0.01708,0.13176,0.38064,1.0736,0.49288,0.18544,0.122
0.09272,-0.16592,0.23912,0.19276,0.1464,-0.02684,0.11224,0.3416,1.0248,0.45384,0.16104,0.122
0.07808,-0.15372,0.22936,0.19032,0.15128,-0.0366,0.10248,0.31232,0.96624,0.40992,0.15128,0.122
0.06344,-0.13908,0.21472,0.183,0.15128,-0.04392,0.08784,0.27328,0.90768,0.3416,0.12688,0.122
0.06344,-0.1342,0.20496,0.17324,0.14152,-0.03904,0.0732,0.22448,0.84424,0.28304,0.10736,0.11712
0.05368,-0.11224,0.1708,0.14396,0.11712,-0.03172,0.06344,0.19032,0.78568,0.244,0.06832,0.10248
0.04392,-0.09272,0.14152,0.11956,0.0976,-0.02684,0.05856,0.16592,0.74176,0.20008,0.05368,0.09272
0.03416,-0.08296,0.13176,0.11468,0.0976,-0.03172,0.0244,0.13176,0.67344,0.15128,0.02928,0.07808
0.01952,-0.061,0.10248,0.09272,0.08296,-0.03172,0.01952,0.0976,0.60512,0.10736,0,0.06832
0.00976,-0.04392,0.07808,0.0732,0.06832,-0.02928,0.00488,0.07808,0.5612,0.06832,-0.01952,0.04392
0,-0.02928,0.05856,0.05856,0.05856,-0.02928,-0.00488,0.05856,0.52216,0.0488,-0.03904,0.0244
-0.00976,-0.00732,0.0244,0.02928,0.03416,-0.02196,-0.01464,0.03904,0.48312,0.00488,-0.05856,0.01952
-0.01952,0.0122,-0.00488,0.00488,0.01464,-0.01708,-0.01952,0.0244,0.45872,-0.01952,-0.07808,0.00488
-0.00488,0.0122,-0.01952,-0.01708,-0.01464,0.00488,-0.02928,0.00488,0.42944,-0.04392,-0.08784,-0.00488
0.00488,0.01464,-0.03416,-0.0366,-0.03904,0.02196,-0.02928,-0.00976,0.40504,-0.0488,-0.10248,-0.00976
0,0.02196,-0.04392,-0.04392,-0.04392,0.02196,-0.03416,-0.01464,0.39528,-0.0488,-0.10736,-0.01464
0,0.02928,-0.05856,-0.05856,-0.05856,0.02928,-0.03904,-0.01952,0.38064,-0.0732,-0.11712,-0.01952
-0.01464,0.0366,-0.05856,-0.05124,-0.04392,0.01464,-0.03416,-0.01952,0.37576,-0.07808,-0.122,-0.01952
-0.02928,0.04392,-0.05856,-0.04392,-0.02928,0,-0.02928,-0.0244,0.37576,-0.0976,-0.11712,-0.01952
-0.03416,0.04636,-0.05856,-0.04148,-0.0244,-0.00488,-0.02928,-0.02928,0.366,-0.08296,-0.122,-0.01464
-0.03416,0.0488,-0.06344,-0.04636,-0.02928,-0.00244,-0.01952,-0.02928,0.366,-0.10248,-0.122,-0.01464
-0.02928,0.04636,-0.06344,-0.0488,-0.03416,0.00244,-0.0244,-0.02928,0.35136,-0.08784,-0.122,-0.01952
-0.0244,0.05368,-0.08296,-0.07076,-0.05856,0.01708,-0.0244,-0.02928,0.34648,-0.0976,-0.122,-0.0244
-0.0244,0.05612,-0.08784,-0.07564,-0.06344,0.01952,-0.0244,-0.03416,0.3416,-0.10736,-0.122,-0.0244
-0.02928,0.05612,-0.08296,-0.06832,-0.05368,0.0122,-0.01952,-0.03904,0.3416,-0.10736,-0.122,-0.0244
-0.02928,0.05612,-0.08296,-0.06832,-0.05368,0.0122,-0.00976,-0.03416,0.34648,-0.10736,-0.122,-0.0244
-0.0244,0.05368,-0.08296,-0.07076,-0.05856,0.01708,-0.00488,-0.02928,0.34648,-0.10736,-0.122,-0.0244
-0.0244,0.05368,-0.08296,-0.07076,-0.05856,0.01708,-0.00488,-0.01952,0.35624,-0.10736,-0.122,-0.0244
-0.0244,0.05612,-0.08784,-0.07564,-0.06344,0.01952,0.00488,-0.01464,0.37088,-0.10736,-0.122,-0.0244
-0.02928,0.06344,-0.0976,-0.08296,-0.06832,0.01952,0.00488,-0.01464,0.37088,-0.122,-0.122,-0.02928
-0.03416,0.06588,-0.0976,-0.08052,-0.06344,0.01464,0.01464,-0.00488,0.37576,-0.10736,-0.122,-0.02928
-0.02928,0.061,-0.09272,-0.07808,-0.06344,0.01708,0.01464,-0.00488,0.38064,-0.0976,-0.11712,-0.03416
-0.02928,0.061,-0.09272,-0.07808,-0.06344,0.01708,0.01952,-0.00488,0.38552,-0.09272,-0.11224,-0.03904
-0.0244,0.05124,-0.07808,-0.06588,-0.05368,0.01464,0.01952,0,0.38552,-0.0976,-0.10736,-0.03904
-0.01952,0.04392,-0.06832,-0.05856,-0.0488,0.01464,0.01952,0,0.3904,-0.10736,-0.10736,-0.03904
-0.01952,0.04392,-0.06832,-0.05856,-0.0488,0.01464,0.01952,0,0.3904,-0.0976,-0.10736,-0.03904
-0.01952,0.04392,-0.06832,-0.05856,-0.0488,0.01464,0.01952,0,0.3904,-0.08784,-0.10736,-0.03904
-0.0244,0.0488,-0.0732,-0.061,-0.0488,0.0122,0.01952,0,0.39528,-0.08296,-0.10248,-0.03904
-0.0244,0.0488,-0.0732,-0.061,-0.0488,0.0122,0.01952,0,0.39528,-0.07808,-0.10248,-0.03904
-0.02928,0.05124,-0.0732,-0.05856,-0.04392,0.00732,0.0244,0,0.39528,-0.07808,-0.10248,-0.03904
-0.02928,0.05124,-0.0732,-0.05856,-0.04392,0.00732,0.0244,-0.00488,0.39528,-0.0732,-0.10248,-0.03904
-0.02928,0.05368,-0.07808,-0.06344,-0.0488,0.00976,0.0244,-0.00488,0.38064,-0.0732,-0.11224,-0.03416
-0.03416,0.05612,-0.07808,-0.061,-0.04392,0.00488,0.01952,-0.00488,0.366,-0.0732,-0.11712,-0.02928
-0.03416,0.05612,-0.07808,-0.061,-0.04392,0.00488,0.01464,0,0.37088,-0.0732,-0.11712,-0.03416
-0.03416,0.05612,-0.07808,-0.061,-0.04392,0.00488,0.01464,0,0.37576,-0.06344,-0.122,-0.03416
-0.0244,0.04636,-0.06832,-0.05612,-0.04392,0.00976,0.00976,0,0.37576,-0.06344,-0.122,-0.02928
-0.01952,0.0366,-0.05368,-0.04392,-0.03416,0.00732,0.00976,0,0.38064,-0.05368,-0.11224,-0.01952
-0.01464,0.01464,-0.01464,-0.00732,0,-0.00732,0.01464,0.00488,0.40016,-0.01952,-0.0976,-0.01464
-0.00488,-0.01708,0.03904,0.04148,0.04392,-0.0244,0.02928,0.00488,0.4392,-0.00488,-0.08296,0.00976
0,-0.0366,0.0732,0.0732,0.0732,-0.0366,0.0488,0.00976,0.47824,0.03904,-0.05368,0.02928
0.00488,-0.05368,0.10248,0.10004,0.0976,-0.04636,0.0732,0.02928,0.48312,0.05856,-0.05368,0.03416
0,-0.05124,0.10248,0.10248,0.10248,-0.05124,0.08296,0.03416,0.488,0.05856,-0.05368,0.03416
0,-0.05124,0.10248,0.10248,0.10248,-0.05124,0.08296,0.03416,0.49288,0.05368,-0.05368,0.02928
0,-0.061,0.122,0.122,0.122,-0.061,0.08784,0.03904,0.49288,0.05368,-0.0488,0.02928
0.00488,-0.0732,0.14152,0.13908,0.13664,-0.06588,0.03904,0,0.47336,0.05368,-0.04392,0.04392
0.00488,-0.09516,0.18544,0.183,0.18056,-0.08784,0.00976,-0.00976,0.47336,0.0732,-0.00976,0.0732
0.01464,-0.12932,0.244,0.23668,0.22936,-0.10736,-0.01952,-0.03416,0.45872,0.09272,0.02928,0.10736
0.01952,-0.15372,0.28792,0.27816,0.2684,-0.12444,-0.02928,-0.0488,0.44896,0.0976,0.03904,0.11224
0.02928,-0.1586,0.28792,0.27328,0.25864,-0.11468,-0.03416,-0.0488,0.4392,0.0976,0.03904,0.122
0.02928,-0.15616,0.28304,0.2684,0.25376,-0.11224,-0.04392,-0.05368,0.4148,0.08784,0.03904,0.122
0.02928,-0.14396,0.25864,0.244,0.22936,-0.10004,-0.06832,-0.06832,0.37088,0.05368,0.02928,0.11224
0.00976,-0.11224,0.21472,0.20984,0.20496,-0.0976,-0.06832,-0.07808,0.3416,0.01952,0.00488,0.0976
-0.01464,-0.05612,0.12688,0.1342,0.14152,-0.07808,-0.06832,-0.07808,0.32208,-0.01464,-0.03904,0.06344
-0.0244,-0.03172,0.08784,0.10004,0.11224,-0.06832,-0.0732,-0.08296,0.30256,-0.03416,-0.06832,0.04392
-0.03904,-0.00488,0.0488,0.06832,0.08784,-0.06344,-0.06832,-0.0732,0.27816,-0.07808,-0.10248,0.00976
-0.02928,0.02684,-0.0244,-0.00976,0.00488,-0.01708,-0.05368,-0.0732,0.25864,-0.09272,-0.11224,-0.01464
-0.01952,0.0488,-0.07808,-0.06832,-0.05856,0.01952,-0.05368,-0.06832,0.25376,-0.08784,-0.122,-0.0244
-0.0244,0.06344,-0.10248,-0.09028,-0.07808,0.02684,-0.05368,-0.06344,0.23912,-0.10736,-0.13176,-0.03904
-0.02928,0.07076,-0.11224,-0.0976,-0.08296,0.02684,-0.04392,-0.06344,0.22936,-0.11712,-0.13176,-0.04392
-0.03416,0.07564,-0.11712,-0.10004,-0.08296,0.0244,-0.04392,-0.05856,0.22936,-0.122,-0.12688,-0.04392
-0.03904,0.0854,-0.13176,-0.11224,-0.09272,0.02684,-0.0488,-0.05856,0.22448,-0.13176,-0.13176,-0.0488
-0.03904,0.0854,-0.13176,-0.11224,-0.09272,0.02684,-0.04392,-0.05856,0.21472,-0.12688,-0.13664,-0.0488
-0.03904,0.0854,-0.13176,-0.11224,-0.09272,0.02684,-0.03904,-0.05856,0.20984,-0.12688,-0.13664,-0.0488
-0.03904,0.0854,-0.13176,-0.11224,-0.09272,0.02684,-0.03904,-0.05856,0.20496,-0.13664,-0.1464,-0.05368
-0.03904,0.08784,-0.13664,-0.11712,-0.0976,0.02928,-0.03904,-0.05856,0.20496,-0.13664,-0.13664,-0.05368
-0.03904,0.08784,-0.13664,-0.11712,-0.0976,0.02928,-0.03904,-0.05856,0.20496,-0.13664,-0.13176,-0.05856
-0.03904,0.0854,-0.13176,-0.11224,-0.09272,0.02684,-0.03416,-0.05856,0.20496,-0.13176,-0.13176,-0.05856
-0.03416,0.07808,-0.122,-0.10492,-0.08784,0.02684,-0.03416,-0.05856,0.20008,-0.11224,-0.12688,-0.05856
-0.03416,0.07564,-0.11712,-0.10004,-0.08296,0.0244,-0.03416,-0.05856,0.19032,-0.0976,-0.122,-0.06344
-0.03416,0.09028,-0.1464,-0.12932,-0.11224,0.03904,-0.03416,-0.0488,0.18544,-0.10248,-0.122,-0.06344
-0.02928,0.11468,-0.20008,-0.18544,-0.1708,0.07076,-0.01464,-0.00976,0.1952,-0.11712,-0.122,-0.06832
-0.0244,0.14884,-0.27328,-0.26108,-0.24888,0.11224,0.01952,0.06344,0.2684,-0.15128,-0.15128,-0.08296
-0.00488,0.1098,-0.21472,-0.21228,-0.20984,0.10248,0.01952,0.09272,0.3416,-0.05856,-0.09272,-0.0488
0.03416,-0.03416,0.03416,0.01708,0,0.01708,-0.0244,0.06344,0.46848,0.3416,0.08296,0.0488
0.07808,-0.30744,0.5368,0.49776,0.45872,-0.19032,-0.16104,-0.02928,0.4148,1.00528,0.41968,0.24888
0.13664,-0.72224,1.30784,1.23952,1.1712,-0.51728,-0.50752,-0.41968,-0.05368,1.7812,0.9028,0.59536
0.18056,-1.13216,2.08376,1.99348,1.9032,-0.86132,-1.03456,-1.00528,-0.9516,2.46928,1.30784,0.90768
0.16104,-1.40056,2.64008,2.55956,2.47904,-1.159,-1.61528,-1.6592,-1.99592,2.58152,1.41032,1.08824
0.05368,-1.32736,2.60104,2.5742,2.54736,-1.24684,-2.10816,-2.21064,-2.94264,1.63968,1.0736,1.04432
-0.08784,-0.71492,1.51768,1.5616,1.60552,-0.84668,-2.13744,-2.20088,-3.21104,0.18056,0.48312,0.76128
-0.18544,-0.14396,0.47336,0.56608,0.6588,-0.42212,-1.81536,-1.83488,-2.80112,-1.01016,-0.11712,0.40016
-0.18056,0.0854,0.00976,0.10004,0.19032,-0.18544,-1.42496,-1.35664,-2.18624,-1.18584,-0.29768,0.20984
-0.1464,0.12444,-0.10248,-0.02928,0.04392,-0.09516,-1.01504,-0.90768,-1.40056,-0.8784,-0.27328,0.13664
-0.08296,0.06588,-0.0488,-0.00732,0.03416,-0.05856,-0.62952,-0.57584,-0.77104,-0.57584,-0.24888,0.0732
-0.03416,0.0732,-0.11224,-0.09516,-0.07808,0.02196,-0.32208,-0.33184,-0.29768,-0.40016,-0.244,-0.0244
-0.02928,0.08296,-0.13664,-0.122,-0.10736,0.03904,-0.11224,-0.16592,-0.0244,-0.244,-0.21472,-0.0732
-0.0244,0.06588,-0.10736,-0.09516,-0.08296,0.02928,0.01464,-0.03904,0.17568,-0.10248,-0.15128,-0.04392
-0.01952,0.06832,-0.11712,-0.10736,-0.0976,0.03904,0.08784,0,0.30744,-0.08296,-0.12688,-0.03416
-0.01952,0.07808,-0.13664,-0.12688,-0.11712,0.0488,0.12688,0.00976,0.34648,-0.10248,-0.14152,-0.03416
-0.01952,0.07808,-0.13664,-0.12688,-0.11712,0.0488,0.19032,0.0488,0.37576,-0.07808,-0.15128,-0.04392
-0.01464,0.07564,-0.13664,-0.12932,-0.122,0.05368,0.22936,0.07808,0.4148,-0.06832,-0.15128,-0.04392
-0.01464,0.07564,-0.13664,-0.12932,-0.122,0.05368,0.23424,0.08296,0.4392,-0.06832,-0.15616,-0.03904
-0.01464,0.07564,-0.13664,-0.12932,-0.122,0.05368,0.23424,0.08296,0.46848,-0.06832,-0.15128,-0.03416
-0.00976,0.07076,-0.13176,-0.12688,-0.122,0.05612,0.22936,0.09272,0.47336,-0.0488,-0.13664,-0.0244
-0.00488,0.06344,-0.122,-0.11956,-0.11712,0.05612,0.22936,0.10248,0.49776,-0.04392,-0.13176,-0.01464
-0.01464,0.06344,-0.11224,-0.10492,-0.0976,0.04148,0.22936,0.11224,0.51728,-0.00976,-0.122,-0.00488
-0.00488,0.05124,-0.0976,-0.09516,-0.09272,0.04392,0.23424,0.11712,0.52704,0.03904,-0.11224,0.00488
0,0.04392,-0.08784,-0.08784,-0.08784,0.04392,0.23424,0.12688,0.55144,-0.00976,-0.10248,0.00976
-0.00488,0.04392,-0.08296,-0.08052,-0.07808,0.0366,0.23424,0.14152,0.57584,-0.06344,-0.10248,0.00976
-0.00976,0.0488,-0.08784,-0.08296,-0.07808,0.03416,0.22936,0.15616,0.5856,-0.0488,-0.09272,0.01952
-0.01464,0.061,-0.10736,-0.10004,-0.09272,0.03904,0.23424,0.16104,0.61,-0.02928,-0.08784,0.01952
-0.01464,0.03416,-0.05368,-0.04636,-0.03904,0.0122,0.20984,0.1708,0.61976,-0.01952,-0.06344,0.03416
0,0,0,0,0,0,0.20008,0.17568,0.6344,-0.01464,-0.05368,0.04392
0.00488,0.00732,-0.01952,-0.02196,-0.0244,0.01464,0.20496,0.20496,0.6832,-0.03416,-0.03416,0.05856
0.00976,0.0122,-0.03416,-0.03904,-0.04392,0.02684,0.20984,0.22936,0.74176,-0.05856,-0.0244,0.06832
0.01464,0.01464,-0.04392,-0.05124,-0.05856,0.0366,0.20984,0.244,0.76616,-0.0244,-0.00488,0.0732
0.0244,0.00976,-0.04392,-0.05612,-0.06832,0.04636,0.22448,0.2684,0.80032,0.00488,0.01952,0.07808
0.02928,0.00244,-0.03416,-0.0488,-0.06344,0.04636,0.23424,0.28304,0.81984,0.03904,0.05368,0.08296
0.04392,-0.0122,-0.01952,-0.04148,-0.06344,0.05368,0.23912,0.30256,0.854,0.06344,0.08296,0.09272
0.04392,-0.0244,0.00488,-0.01708,-0.03904,0.04148,0.25864,0.32208,0.88816,0.10736,0.11712,0.0976
0.04392,-0.0366,0.02928,0.00732,-0.01464,0.02928,0.27328,0.35624,0.93208,0.15128,0.15616,0.11224
0.03904,-0.04392,0.0488,0.02928,0.00976,0.01464,0.2928,0.38552,0.98088,0.18544,0.17568,0.13176
0.0244,-0.0488,0.0732,0.061,0.0488,-0.0122,0.3172,0.40992,1.03456,0.244,0.1952,0.15128
0.04392,-0.0854,0.12688,0.10492,0.08296,-0.01952,0.32696,0.42456,1.06384,0.30744,0.22936,0.16592
0.04392,-0.1098,0.17568,0.15372,0.13176,-0.04392,0.33672,0.44896,1.08824,0.38064,0.26352,0.18056
0.0732,-0.13664,0.20008,0.16348,0.12688,-0.02684,0.33672,0.48312,1.11752,0.40504,0.28304,0.20008
0.09272,-0.15616,0.2196,0.17324,0.12688,-0.01708,0.3416,0.488,1.13704,0.4148,0.29768,0.22448
0.10248,-0.16836,0.23424,0.183,0.13176,-0.01464,0.34648,0.50264,1.16144,0.4392,0.3172,0.22936
0.11712,-0.183,0.24888,0.19032,0.13176,-0.00732,0.34648,0.50752,1.1712,0.45384,0.32208,0.23912
0.11712,-0.18544,0.25376,0.1952,0.13664,-0.00976,0.34648,0.50752,1.16632,0.45384,0.3416,0.244
0.11712,-0.18788,0.25864,0.20008,0.14152,-0.0122,0.33672,0.50264,1.16144,0.45384,0.35624,0.25376
0.11224,-0.18788,0.26352,0.2074,0.15128,-0.01952,0.3172,0.49776,1.1468,0.45384,0.366,0.26352
0.10248,-0.19032,0.27816,0.22692,0.17568,-0.0366,0.2928,0.47824,1.12728,0.45384,0.37088,0.26352
0.0976,-0.19032,0.28304,0.23424,0.18544,-0.04392,0.27816,0.45872,1.10776,0.44408,0.37576,0.26352
0.08784,-0.183,0.27816,0.23424,0.19032,-0.05124,0.2684,0.4392,1.08336,0.42456,0.38064,0.26352
0.08296,-0.17568,0.2684,0.22692,0.18544,-0.05124,0.244,0.40504,1.02968,0.37576,0.366,0.26352
0.08296,-0.1708,0.25864,0.21716,0.17568,-0.04636,0.22936,0.38064,0.99552,0.35624,0.37088,0.2684
0.07808,-0.17568,0.27328,0.23424,0.1952,-0.05856,0.1952,0.3416,0.94672,0.3416,0.34648,0.25864
0.06832,-0.17324,0.27816,0.244,0.20984,-0.07076,0.1708,0.31232,0.88816,0.32208,0.33672,0.24888
0.05368,-0.16836,0.28304,0.2562,0.22936,-0.08784,0.14152,0.27328,0.8296,0.27328,0.3172,0.23912
0.05368,-0.17324,0.2928,0.26596,0.23912,-0.09272,0.11224,0.22448,0.76616,0.23424,0.30256,0.22448
0.03416,-0.13908,0.244,0.22692,0.20984,-0.08784,0.11224,0.20008,0.7076,0.18544,0.2684,0.20984
0.01464,-0.10736,0.20008,0.19276,0.18544,-0.0854,0.11712,0.18544,0.66368,0.13176,0.25864,0.20008
0.00488,-0.0976,0.19032,0.18788,0.18544,-0.09028,0.08784,0.15128,0.59536,0.08296,0.244,0.19032
-0.00976,-0.07564,0.16104,0.16592,0.1708,-0.09028,0.08784,0.11712,0.52704,0.03904,0.22448,0.18544
-0.00976,-0.06344,0.13664,0.14152,0.1464,-0.07808,0.0732,0.09272,0.48312,0.01464,0.20008,0.16104
-0.00976,-0.05368,0.11712,0.122,0.12688,-0.06832,0.06344,0.06832,0.44408,0.00976,0.17568,0.14152
-0.01952,-0.02196,0.06344,0.0732,0.08296,-0.05124,0.0488,0.0488,0.40504,-0.06832,0.15616,0.13664
-0.02928,0.00732,0.01464,0.02928,0.04392,-0.0366,0.03904,0.03416,0.38064,-0.12688,0.13664,0.122
-0.02928,-0.00244,0.03416,0.0488,0.06344,-0.04636,0.0244,0.01464,0.33672,-0.10736,0.13176,0.10736
-0.03416,-0.00976,0.05368,0.07076,0.08784,-0.061,0.01952,0,0.29768,-0.06832,0.122,0.0976
-0.03904,0.00488,0.02928,0.0488,0.06832,-0.05368,0.00976,-0.00976,0.28792,-0.10248,0.11712,0.08296
-0.03904,0.01952,0,0.01952,0.03904,-0.03904,0,-0.01952,0.27328,-0.16104,0.10736,0.06832
-0.05368,0.03904,-0.0244,0.00244,0.02928,-0.04148,0,-0.01952,0.26352,-0.18056,0.08784,0.06832
-0.06832,0.05856,-0.0488,-0.01464,0.01952,-0.04392,0,-0.0244,0.25864,-0.21472,0.07808,0.06832
-0.0732,0.05612,-0.03904,-0.00244,0.03416,-0.05368,0,-0.0244,0.24888,-0.16104,0.08784,0.0732
-0.0732,0.05368,-0.03416,0.00244,0.03904,-0.05612,0.00976,-0.01952,0.24888,-0.14152,0.10248,0.0732
-0.06344,0.04392,-0.0244,0.00732,0.03904,-0.05124,0.00488,-0.01952,0.23424,-0.14152,0.08784,0.05856
-0.05368,0.04392,-0.03416,-0.00732,0.01952,-0.0366,0.00488,-0.01952,0.22936,-0.16592,0.0732,0.04392
-0.05368,0.05124,-0.0488,-0.02196,0.00488,-0.02928,0,-0.01952,0.22936,-0.16592,0.0732,0.03904
-0.05856,0.05612,-0.05368,-0.0244,0.00488,-0.03172,0,-0.01952,0.23424,-0.15616,0.0732,0.03416
-0.06344,0.05856,-0.05368,-0.02196,0.00976,-0.0366,0.00488,-0.01464,0.23912,-0.1464,0.07808,0.03416
-0.06344,0.05856,-0.05368,-0.02196,0.00976,-0.0366,0.00488,-0.00976,0.23912,-0.13664,0.08296,0.03416
-0.06344,0.04636,-0.02928,0.00244,0.03416,-0.0488,-0.00976,-0.00488,0.23424,-0.122,0.08296,0.03416
-0.06344,0.0366,-0.00976,0.02196,0.05368,-0.05856,-0.01464,-0.00488,0.23424,-0.10736,0.08296,0.03416
-0.05368,0.03416,-0.01464,0.0122,0.03904,-0.04636,-0.01952,-0.01464,0.22448,-0.13176,0.08296,0.02928
-0.04392,0.02928,-0.01464,0.00732,0.02928,-0.0366,-0.01464,-0.01952,0.2196,-0.13176,0.08296,0.02928
-0.04392,0.02196,0,0.02196,0.04392,-0.04392,-0.01464,-0.01464,0.2196,-0.11224,0.08296,0.02928
-0.03904,0.01464,0.00976,0.02928,0.0488,-0.04392,-0.00976,-0.00976,0.22936,-0.08784,0.08784,0.0244
-0.05368,0.03172,-0.00976,0.01708,0.04392,-0.0488,-0.00976,-0.00488,0.23424,-0.06832,0.09272,0.01952
-0.06832,0.0488,-0.02928,0.00488,0.03904,-0.05368,-0.00976,0,0.244,-0.0488,0.0976,0.01952
-0.05856,0.04636,-0.03416,-0.00488,0.0244,-0.04148,-0.00976,0,0.23912,-0.06344,0.0976,0.01952
-0.0488,0.04392,-0.03904,-0.01464,0.00976,-0.02928,-0.00976,0,0.23424,-0.07808,0.0976,0.01952
-0.0488,0.04636,-0.04392,-0.01952,0.00488,-0.02684,-0.00976,-0.00488,0.22936,-0.07808,0.09272,0.01464
-0.0488,0.04636,-0.04392,-0.01952,0.00488,-0.02684,-0.00976,-0.00488,0.2196,-0.0732,0.08784,0.00976
-0.0488,0.0488,-0.0488,-0.0244,0,-0.0244,-0.00976,-0.00976,0.21472,-0.06832,0.08296,0.00488
-0.0488,0.04636,-0.04392,-0.01952,0.00488,-0.02684,-0.00488,-0.01464,0.20008,-0.06832,0.08296,0
-0.0488,0.04392,-0.03904,-0.01464,0.00976,-0.02928,-0.00488,-0.01464,0.1952,-0.06344,0.08296,0
-0.04392,0.04148,-0.03904,-0.01708,0.00488,-0.0244,-0.00488,-0.01464,0.19032,-0.06344,0.07808,0
-0.04392,0.04148,-0.03904,-0.01708,0.00488,-0.0244,-0.00976,-0.01464,0.19032,-0.04392,0.08296,0.00488
-0.04392,0.04148,-0.03904,-0.01708,0.00488,-0.0244,-0.01464,-0.01464,0.18544,-0.0244,0.08784,0.00488
-0.04392,0.0366,-0.02928,-0.00732,0.01464,-0.02928,-0.01464,-0.0244,0.1708,-0.01464,0.08296,0.00488
-0.03904,0.02684,-0.01464,0.00488,0.0244,-0.03172,-0.01952,-0.02928,0.16104,-0.01464,0.08296,0.00976
-0.03904,0.0122,0.01464,0.03416,0.05368,-0.04636,-0.01952,-0.03904,0.16592,-0.01952,0.09272,0.01464
-0.03904,-0.01708,0.0732,0.09272,0.11224,-0.07564,-0.00976,-0.03904,0.18544,0,0.10736,0.01464
-0.04392,-0.02684,0.0976,0.11956,0.14152,-0.09272,0.00976,-0.01952,0.20008,0.00488,0.122,0.03904
-0.0488,-0.02196,0.09272,0.11712,0.14152,-0.09516,0.02928,0,0.21472,0.03416,0.15128,0.05856
-0.02928,-0.03904,0.10736,0.122,0.13664,-0.08296,0.04392,0.00976,0.20984,0.0488,0.15128,0.05368
-0.01464,-0.04392,0.10248,0.1098,0.11712,-0.06588,0.04392,0.00488,0.20496,0.0488,0.15128,0.04392
-0.00976,-0.04636,0.10248,0.10736,0.11224,-0.061,0.04392,0,0.20984,0.06832,0.15128,0.03904
-0.00976,-0.05612,0.122,0.12688,0.13176,-0.07076,0.04392,-0.00488,0.20984,0.09272,0.15616,0.03904
-0.00488,-0.07076,0.1464,0.14884,0.15128,-0.07808,-0.00976,-0.0488,0.20008,0.09272,0.16104,0.05368
-0.00488,-0.09272,0.19032,0.19276,0.1952,-0.10004,-0.03904,-0.05856,0.20496,0.10736,0.17568,0.07808
0,-0.13176,0.26352,0.26352,0.26352,-0.13176,-0.0732,-0.08296,0.19032,0.0976,0.19032,0.10736
0,-0.16348,0.32696,0.32696,0.32696,-0.16348,-0.09272,-0.0976,0.18544,0.07808,0.20496,0.11224
0.00976,-0.15616,0.30256,0.29768,0.2928,-0.14152,-0.10736,-0.0976,0.18544,0.09272,0.21472,0.122
0.00976,-0.14152,0.27328,0.2684,0.26352,-0.12688,-0.12688,-0.10248,0.1708,0.10248,0.21472,0.13176
0.00976,-0.12932,0.24888,0.244,0.23912,-0.11468,-0.15616,-0.11712,0.12688,0.0732,0.20496,0.12688
-0.00488,-0.10004,0.20496,0.2074,0.20984,-0.10736,-0.15616,-0.12688,0.0976,0.03904,0.18056,0.0976
-0.01952,-0.06588,0.15128,0.16104,0.1708,-0.09516,-0.1708,-0.13664,0.05856,0.07808,0.1464,0.0488
-0.0244,-0.05612,0.13664,0.14884,0.16104,-0.09272,-0.18056,-0.1464,0.0244,0.14152,0.13664,0.0244
-0.03904,-0.01464,0.06832,0.08784,0.10736,-0.0732,-0.17568,-0.13176,0.0244,0.03904,0.0976,-0.00976
-0.03904,0.02196,-0.00488,0.01464,0.03416,-0.0366,-0.1708,-0.13176,0.0244,-0.06344,0.06344,-0.02928
-0.05856,0.05368,-0.0488,-0.01952,0.00976,-0.03416,-0.1708,-0.122,0.01952,-0.06832,0.04392,-0.02928
-0.08296,0.08296,-0.08296,-0.04148,0,-0.04148,-0.1708,-0.11224,0.00976,-0.06832,0.03416,-0.03904
-0.08784,0.07564,-0.06344,-0.01952,0.0244,-0.05612,-0.16104,-0.11224,0.00488,-0.01952,0.0488,-0.04392
-0.08784,0.06344,-0.03904,0.00488,0.0488,-0.06832,-0.16104,-0.10736,0.00488,0.0244,0.06344,-0.04392
-0.06344,0.05856,-0.05368,-0.02196,0.00976,-0.0366,-0.18056,-0.11712,-0.00488,-0.00976,0.04392,-0.05368
-0.03904,0.04636,-0.05368,-0.03416,-0.01464,-0.0122,-0.1952,-0.12688,-0.01952,-0.03416,0.02928,-0.06344
-0.03904,0.05124,-0.06344,-0.04392,-0.0244,-0.00732,-0.1952,-0.13176,-0.03416,-0.02928,0.02928,-0.07808
-0.03904,0.05612,-0.0732,-0.05368,-0.03416,-0.00244,-0.1952,-0.13664,-0.0488,-0.02928,0.01952,-0.09272
-0.05368,0.06832,-0.08296,-0.05612,-0.02928,-0.0122,-0.1952,-0.13664,-0.03904,-0.0244,0.02928,-0.08296
-0.06832,0.08052,-0.09272,-0.05856,-0.0244,-0.02196,-0.1952,-0.13664,-0.02928,-0.01952,0.02928,-0.07808
-0.06832,0.08052,-0.09272,-0.05856,-0.0244,-0.02196,-0.20008,-0.13664,-0.02928,-0.01464,0.0244,-0.07808
-0.06344,0.07808,-0.09272,-0.061,-0.02928,-0.01708,-0.20984,-0.13664,-0.02928,-0.01464,0.0244,-0.07808
-0.06344,0.07564,-0.08784,-0.05612,-0.0244,-0.01952,-0.20984,-0.13664,-0.0244,0.00976,0.02928,-0.08296
-0.06344,0.08052,-0.0976,-0.06588,-0.03416,-0.01464,-0.20984,-0.12688,-0.01464,0.03416,0.03416,-0.08296
-0.04392,0.07564,-0.10736,-0.0854,-0.06344,0.00976,-0.19032,-0.10248,0,0.05856,0.03416,-0.08784
-0.0244,0.08052,-0.13664,-0.12444,-0.11224,0.04392,-0.15616,-0.04392,0.0732,0.0976,0.01952,-0.10248
-0.00488,0.01952,-0.03416,-0.03172,-0.02928,0.0122,-0.15128,0,0.20008,0.18544,0.09272,-0.06832
0.03416,-0.13176,0.22936,0.21228,0.1952,-0.08052,-0.19032,-0.01464,0.366,0.49288,0.244,0.01952
0.0732,-0.35136,0.62952,0.59292,0.55632,-0.24156,-0.1952,-0.01464,0.51728,1.0248,0.55632,0.22448
0.12688,-0.7076,1.28832,1.22488,1.16144,-0.51728,-0.39528,-0.28304,0.28304,1.71288,1.02968,0.5856
0.11712,-1.01992,1.92272,1.86416,1.8056,-0.84424,-0.70272,-0.77104,-0.46848,2.26432,1.38592,0.86864
0.04392,-1.19804,2.35216,2.3302,2.30824,-1.13216,-1.07848,-1.33712,-1.3664,2.24968,1.44936,1.01504
-0.0488,-1.12484,2.29848,2.32288,2.34728,-1.19804,-1.61528,-1.90808,-2.39608,1.44936,1.07848,0.93696
-0.17568,-0.53924,1.25416,1.342,1.42984,-0.80276,-1.68848,-1.9276,-2.73768,0.22936,0.488,0.62464
-0.244,-0.02928,0.30256,0.42456,0.54656,-0.39528,-1.60064,-1.68848,-2.58152,-0.85888,-0.07808,0.25376
-0.1952,0.15128,-0.10736,-0.00976,0.08784,-0.14152,-1.44448,-1.3908,-2.26432,-1.10776,-0.28304,0.05368
-0.1464,0.17812,-0.20984,-0.13664,-0.06344,-0.04148,-1.1468,-1.0004,-1.54696,-0.86376,-0.24888,-0.01952
-0.10248,0.12444,-0.1464,-0.09516,-0.04392,-0.02928,-0.90768,-0.69296,-1.00528,-0.50264,-0.18056,-0.06832
-0.06344,0.1098,-0.15616,-0.12444,-0.09272,0.01464,-0.66368,-0.44896,-0.5856,-0.28304,-0.15128,-0.12688
-0.0488,0.08784,-0.12688,-0.10248,-0.07808,0.01464,-0.49288,-0.27816,-0.32696,-0.16104,-0.0976,-0.16592
-0.03904,0.05368,-0.06832,-0.0488,-0.02928,-0.00488,-0.366,-0.15616,-0.10736,-0.00488,0,-0.14152
-0.0244,0.03172,-0.03904,-0.02684,-0.01464,-0.00488,-0.30744,-0.122,0.03416,0.08784,0.05368,-0.122
-0.01952,0.02684,-0.03416,-0.0244,-0.01464,-0.00244,-0.28792,-0.11712,0.0488,0.06344,0.04392,-0.122
-0.01952,0.01952,-0.01952,-0.00976,0,-0.00976,-0.23912,-0.08296,0.05368,0.05856,0.04392,-0.13176
-0.02928,0.04636,-0.06344,-0.0488,-0.03416,0.00244,-0.20496,-0.05856,0.07808,0.06832,0.05368,-0.122
-0.04392,0.07564,-0.10736,-0.0854,-0.06344,0.00976,-0.19032,-0.05368,0.0976,0.07808,0.05368,-0.11224
-0.02928,0.05612,-0.08296,-0.06832,-0.05368,0.0122,-0.21472,-0.06344,0.11712,0.07808,0.05856,-0.12688
-0.01464,0.03416,-0.05368,-0.04636,-0.03904,0.0122,-0.23912,-0.06344,0.11224,0.08784,0.06832,-0.13176
-0.03416,0.03904,-0.04392,-0.02684,-0.00976,-0.0122,-0.23912,-0.05368,0.13176,0.11224,0.0732,-0.122
-0.06344,0.05368,-0.04392,-0.0122,0.01952,-0.04148,-0.23912,-0.04392,0.1464,0.13664,0.07808,-0.11712
-0.05368,0.04636,-0.03904,-0.0122,0.01464,-0.03416,-0.23424,-0.03904,0.15616,0.15616,0.10248,-0.11224
-0.04392,0.0366,-0.02928,-0.00732,0.01464,-0.02928,-0.23424,-0.03416,0.1708,0.1708,0.13176,-0.10736
-0.02928,0.02684,-0.0244,-0.00976,0.00488,-0.01708,-0.23912,-0.0244,0.1952,0.18056,0.13176,-0.10736
-0.00976,0.00976,-0.00976,-0.00488,0,-0.00488,-0.244,-0.01464,0.21472,0.18544,0.14152,-0.0976
0,0.00488,-0.00976,-0.00976,-0.00976,0.00488,-0.244,-0.0244,0.20984,0.20984,0.1464,-0.10736
0.00488,-0.00488,0.00488,0.00244,0,0.00244,-0.25376,-0.0244,0.20008,0.23424,0.16104,-0.11224
0.0244,-0.03172,0.03904,0.02684,0.01464,0.00488,-0.24888,-0.02928,0.2196,0.25376,0.15128,-0.11224
0.02928,-0.04636,0.06344,0.0488,0.03416,-0.00244,-0.25376,-0.01952,0.23912,0.28792,0.16104,-0.10248
0.02928,-0.05612,0.08296,0.06832,0.05368,-0.0122,-0.25376,-0.00488,0.27328,0.2928,0.1708,-0.0976
0.02928,-0.06588,0.10248,0.08784,0.0732,-0.02196,-0.25864,0.00976,0.29768,0.32208,0.19032,-0.09272
0.02928,-0.05856,0.08784,0.0732,0.05856,-0.01464,-0.244,0.0244,0.3172,0.3172,0.20008,-0.08784
0.0244,-0.04392,0.06344,0.05124,0.03904,-0.00732,-0.23424,0.03416,0.33672,0.31232,0.20984,-0.07808
0.02928,-0.05856,0.08784,0.0732,0.05856,-0.01464,-0.22936,0.05368,0.38064,0.40992,0.25864,-0.06344
0.0244,-0.06832,0.11224,0.10004,0.08784,-0.03172,-0.20984,0.06832,0.4148,0.53192,0.30256,-0.05856
0.0244,-0.07808,0.13176,0.11956,0.10736,-0.04148,-0.1952,0.09272,0.44408,0.50752,0.30256,-0.04392
0.03904,-0.0976,0.15616,0.13664,0.11712,-0.03904,-0.19032,0.11224,0.47336,0.46848,0.29768,-0.03416
0.04392,-0.11224,0.18056,0.1586,0.13664,-0.04636,-0.19032,0.13176,0.51728,0.55632,0.31232,-0.0244
0.06344,-0.13664,0.20984,0.17812,0.1464,-0.04148,-0.19032,0.15128,0.55144,0.61976,0.33672,-0.00976
0.06344,-0.14884,0.23424,0.20252,0.1708,-0.05368,-0.18544,0.18544,0.5856,0.63928,0.33672,0.00488
0.07808,-0.16836,0.25864,0.2196,0.18056,-0.05124,-0.19032,0.2196,0.62464,0.66368,0.33184,0.01952
0.08296,-0.17568,0.2684,0.22692,0.18544,-0.05124,-0.1952,0.21472,0.64904,0.68808,0.32696,0.03416
0.08784,-0.183,0.27816,0.23424,0.19032,-0.05124,-0.20008,0.2196,0.66368,0.70272,0.32208,0.03416
0.0976,-0.19032,0.28304,0.23424,0.18544,-0.04392,-0.20008,0.22448,0.67344,0.71736,0.33184,0.04392
0.0976,-0.19032,0.28304,0.23424,0.18544,-0.04392,-0.20008,0.22448,0.67344,0.71736,0.35136,0.0488
0.06832,-0.183,0.29768,0.26352,0.22936,-0.08052,-0.1952,0.22448,0.6832,0.72224,0.366,0.05856
0.03904,-0.1708,0.30256,0.28304,0.26352,-0.11224,-0.18544,0.22448,0.67832,0.72712,0.38064,0.06832
0.05368,-0.19764,0.3416,0.31476,0.28792,-0.11712,-0.1952,0.20496,0.63928,0.72712,0.37088,0.06344
0.06832,-0.22204,0.37576,0.3416,0.30744,-0.11956,-0.20984,0.18544,0.60024,0.7076,0.36112,0.05856
0.0732,-0.21472,0.35624,0.31964,0.28304,-0.10492,-0.22936,0.16592,0.60024,0.6588,0.35136,0.04392
0.08296,-0.20984,0.33672,0.29524,0.25376,-0.0854,-0.25864,0.13176,0.57096,0.59048,0.32208,0.0244
0.06832,-0.20252,0.33672,0.30256,0.2684,-0.10004,-0.244,0.12688,0.54656,0.59536,0.33672,0.04392
0.0488,-0.19276,0.33672,0.31232,0.28792,-0.11956,-0.244,0.10736,0.50752,0.5856,0.32696,0.05368
0.03904,-0.183,0.32696,0.30744,0.28792,-0.12444,-0.24888,0.07808,0.46848,0.54656,0.3172,0.04392
0.0244,-0.16836,0.31232,0.30012,0.28792,-0.13176,-0.25376,0.03904,0.42944,0.488,0.29768,0.03904
0.03904,-0.1708,0.30256,0.28304,0.26352,-0.11224,-0.26352,0.00488,0.38552,0.42456,0.27816,0.0244
0.03904,-0.15128,0.26352,0.244,0.22448,-0.09272,-0.2684,-0.00976,0.34648,0.36112,0.23424,0.00488
0.0244,-0.12688,0.22936,0.21716,0.20496,-0.09028,-0.25864,-0.01952,0.32208,0.30744,0.2196,-0.00976
0.01464,-0.11712,0.2196,0.21228,0.20496,-0.09516,-0.27328,-0.04392,0.28304,0.25864,0.1952,-0.0244
0,-0.09516,0.19032,0.19032,0.19032,-0.09516,-0.2684,-0.07808,0.22448,0.22448,0.16592,-0.02928
0,-0.08296,0.16592,0.16592,0.16592,-0.08296,-0.27816,-0.10248,0.18056,0.19032,0.14152,-0.05368
-0.00488,-0.06832,0.14152,0.14396,0.1464,-0.07564,-0.27816,-0.11224,0.16104,0.15616,0.11712,-0.07808
-0.01952,-0.04392,0.10736,0.11712,0.12688,-0.0732,-0.28304,-0.11712,0.14152,0.10248,0.0976,-0.08784
-0.02928,-0.02684,0.08296,0.0976,0.11224,-0.07076,-0.28304,-0.13176,0.11712,0.06832,0.07808,-0.10248
-0.02928,-0.01952,0.06832,0.08296,0.0976,-0.06344,-0.28304,-0.1464,0.09272,0.02928,0.06832,-0.11224
-0.03416,-0.01464,0.06344,0.08052,0.0976,-0.06588,-0.28304,-0.15616,0.06344,0.06344,0.05368,-0.11712
-0.03904,-0.00976,0.05856,0.07808,0.0976,-0.06832,-0.28792,-0.16104,0.04392,0.10248,0.0488,-0.12688
-0.03904,0.00732,0.0244,0.04392,0.06344,-0.05124,-0.2928,-0.16592,0.03904,-0.00488,0.02928,-0.1464
-0.04392,0.01708,0.00976,0.03172,0.05368,-0.0488,-0.2928,-0.16592,0.03904,-0.08784,0.00976,-0.15616
-0.04392,0.01708,0.00976,0.03172,0.05368,-0.0488,-0.29768,-0.16592,0.03904,-0.08784,0,-0.16104
-0.04392,0.01708,0.00976,0.03172,0.05368,-0.0488,-0.30256,-0.16592,0.03416,-0.0488,-0.01464,-0.16104
-0.04392,0.01464,0.01464,0.0366,0.05856,-0.05124,-0.2928,-0.16592,0.03416,-0.06344,-0.01464,-0.16104
-0.03904,0.00732,0.0244,0.04392,0.06344,-0.05124,-0.2928,-0.16592,0.0244,-0.0488,-0.01952,-0.16104
-0.03416,0.01464,0.00488,0.02196,0.03904,-0.0366,-0.2928,-0.16592,0.0244,-0.05856,-0.0244,-0.16104
-0.03416,0.01464,0.00488,0.02196,0.03904,-0.0366,-0.29768,-0.16592,0.0244,-0.06832,-0.0244,-0.16104
-0.03904,0.0122,0.01464,0.03416,0.05368,-0.04636,-0.2928,-0.16592,0.02928,-0.06832,-0.0244,-0.16592
-0.03904,0.0122,0.01464,0.03416,0.05368,-0.04636,-0.28792,-0.16104,0.03416,-0.06832,-0.0244,-0.1708
-0.02928,0.01708,-0.00488,0.00976,0.0244,-0.02684,-0.28304,-0.15128,0.03416,-0.07808,-0.02928,-0.1708
-0.0244,0.0244,-0.0244,-0.0122,0,-0.0122,-0.27816,-0.14152,0.03904,-0.08784,-0.03416,-0.1708
-0.0244,0.02196,-0.01952,-0.00732,0.00488,-0.01464,-0.2684,-0.14152,0.0488,-0.08784,-0.03416,-0.1708
-0.0244,0.01952,-0.01464,-0.00244,0.00976,-0.01708,-0.2684,-0.14152,0.0488,-0.0976,-0.03416,-0.17568
-0.0244,0.01708,-0.00976,0.00244,0.01464,-0.01952,-0.25864,-0.13664,0.05368,-0.08296,-0.03416,-0.1708
-0.0244,0.0122,0,0.0122,0.0244,-0.0244,-0.25864,-0.12688,0.05856,-0.06832,-0.02928,-0.1708
-0.01952,0.00732,0.00488,0.01464,0.0244,-0.02196,-0.24888,-0.122,0.06832,-0.07808,-0.0244,-0.16592
-0.01952,0.00488,0.00976,0.01952,0.02928,-0.0244,-0.244,-0.11712,0.07808,-0.08784,-0.01952,-0.16592
-0.01952,0.00488,0.00976,0.01952,0.02928,-0.0244,-0.244,-0.11224,0.07808,-0.10248,-0.01952,-0.16592
-0.01952,0.00488,0.00976,0.01952,0.02928,-0.0244,-0.244,-0.10736,0.07808,-0.11712,-0.01952,-0.16592
-0.01952,0.00732,0.00488,0.01464,0.0244,-0.02196,-0.23912,-0.10736,0.07808,-0.12688,-0.01952,-0.16592
-0.01952,0.00976,0,0.00976,0.01952,-0.01952,-0.23424,-0.10248,0.07808,-0.12688,-0.01952,-0.16592
-0.01952,0.00976,0,0.00976,0.01952,-0.01952,-0.22936,-0.10248,0.07808,-0.12688,-0.0244,-0.16592
-0.01952,0.00732,0.00488,0.01464,0.0244,-0.02196,-0.2196,-0.10248,0.0732,-0.12688,-0.0244,-0.16592
-0.01952,0.00732,0.00488,0.01464,0.0244,-0.02196,-0.21472,-0.10248,0.06832,-0.122,-0.0244,-0.16592
-0.01464,0.00732,0,0.00732,0.01464,-0.01464,-0.20984,-0.10248,0.06344,-0.122,-0.02928,-0.16592
-0.01464,0.00976,-0.00488,0.00244,0.00976,-0.0122,-0.20496,-0.0976,0.06344,-0.14152,-0.02928,-0.16592
-0.01464,0.0122,-0.00976,-0.00244,0.00488,-0.00976,-0.20008,-0.09272,0.05856,-0.16104,-0.02928,-0.1708
-0.01464,0.01464,-0.01464,-0.00732,0,-0.00732,-0.19032,-0.09272,0.05368,-0.16104,-0.03416,-0.1708
-0.00976,0.0122,-0.01464,-0.00976,-0.00488,-0.00244,-0.18544,-0.08784,0.05368,-0.1708,-0.03416,-0.16592
-0.00976,0.0122,-0.01464,-0.00976,-0.00488,-0.00244,-0.18056,-0.08784,0.0488,-0.19032,-0.03416,-0.16592
-0.00976,-0.00244,0.01464,0.01952,0.0244,-0.01708,-0.16592,-0.07808,0.05856,-0.18544,-0.02928,-0.1708
-0.00976,-0.01952,0.0488,0.05368,0.05856,-0.03416,-0.1464,-0.0732,0.08296,-0.18056,-0.01952,-0.15128
-0.00976,-0.02196,0.05368,0.05856,0.06344,-0.0366,-0.12688,-0.06832,0.10736,-0.15128,0.00488,-0.13664
-0.00488,-0.03416,0.0732,0.07564,0.07808,-0.04148,-0.08784,-0.04392,0.11224,-0.1464,0.00488,-0.13176
-0.00488,-0.03416,0.0732,0.07564,0.07808,-0.04148,-0.06344,-0.03416,0.11712,-0.15616,0.00488,-0.13176
0,-0.0366,0.0732,0.0732,0.0732,-0.0366,-0.0488,-0.01952,0.13176,-0.16104,0.00488,-0.13176
0,-0.04636,0.09272,0.09272,0.09272,-0.04636,-0.03416,-0.00488,0.14152,-0.16104,0.00976,-0.12688
0,-0.05612,0.11224,0.11224,0.11224,-0.05612,-0.07808,-0.03904,0.13176,-0.15128,0.01464,-0.11224
-0.00488,-0.0732,0.15128,0.15372,0.15616,-0.08052,-0.0976,-0.03904,0.13664,-0.12688,0.02928,-0.08784
-0.00976,-0.10004,0.20984,0.21472,0.2196,-0.11468,-0.11712,-0.06344,0.122,-0.10248,0.05856,-0.04392
-0.01952,-0.11956,0.25864,0.2684,0.27816,-0.14884,-0.122,-0.07808,0.11712,-0.08784,0.08784,-0.0244
0.00488,-0.1342,0.26352,0.26108,0.25864,-0.12688,-0.12688,-0.07808,0.10736,-0.10248,0.08784,-0.0244
0.01952,-0.14152,0.26352,0.25376,0.244,-0.11224,-0.13664,-0.08296,0.08296,-0.122,0.07808,-0.0244
0.03416,-0.13908,0.244,0.22692,0.20984,-0.08784,-0.16592,-0.10248,0.03904,-0.15128,0.06832,-0.0244
0.03416,-0.11956,0.20496,0.18788,0.1708,-0.06832,-0.16592,-0.11712,0.00976,-0.18544,0.04392,-0.0488
0.00488,-0.06344,0.122,0.11956,0.11712,-0.05612,-0.16104,-0.11712,0,-0.21472,0,-0.08784
-0.01464,-0.03172,0.07808,0.0854,0.09272,-0.05368,-0.15128,-0.11712,-0.00488,-0.2196,-0.01952,-0.10248
-0.02928,0,0.02928,0.04392,0.05856,-0.04392,-0.13176,-0.09272,-0.01952,-0.25376,-0.0488,-0.13664
-0.02928,0.02684,-0.0244,-0.00976,0.00488,-0.01708,-0.11224,-0.08296,-0.03416,-0.28792,-0.0732,-0.15616
-0.02928,0.04392,-0.05856,-0.04392,-0.02928,0,-0.10736,-0.07808,-0.03904,-0.31232,-0.09272,-0.16104
-0.03416,0.05856,-0.08296,-0.06588,-0.0488,0.00732,-0.10248,-0.0732,-0.0488,-0.33184,-0.10248,-0.17568
-0.03904,0.07076,-0.10248,-0.08296,-0.06344,0.0122,-0.08784,-0.06832,-0.05368,-0.33672,-0.10248,-0.18056
-0.03904,0.07808,-0.11712,-0.0976,-0.07808,0.01952,-0.08296,-0.05856,-0.05368,-0.34648,-0.10248,-0.18056
-0.03904,0.0854,-0.13176,-0.11224,-0.09272,0.02684,-0.08296,-0.05368,-0.0488,-0.36112,-0.10736,-0.1708
-0.03904,0.0854,-0.13176,-0.11224,-0.09272,0.02684,-0.07808,-0.0488,-0.0488,-0.366,-0.10736,-0.16104
-0.03904,0.0854,-0.13176,-0.11224,-0.09272,0.02684,-0.0732,-0.04392,-0.05368,-0.38064,-0.10248,-0.18056
-0.03904,0.0854,-0.13176,-0.11224,-0.09272,0.02684,-0.06832,-0.03904,-0.05856,-0.40016,-0.10736,-0.20008
-0.03904,0.08784,-0.13664,-0.11712,-0.0976,0.02928,-0.06832,-0.03416,-0.05856,-0.40016,-0.0976,-0.2196
-0.03904,0.09028,-0.14152,-0.122,-0.10248,0.03172,-0.06832,-0.02928,-0.05856,-0.40016,-0.0976,-0.244
-0.04392,0.0976,-0.15128,-0.12932,-0.10736,0.03172,-0.06344,-0.0244,-0.0488,-0.3904,-0.0976,-0.244
-0.04392,0.10248,-0.16104,-0.13908,-0.11712,0.0366,-0.06344,-0.01952,-0.03904,-0.38552,-0.09272,-0.244
-0.04392,0.0976,-0.15128,-0.12932,-0.10736,0.03172,-0.06344,-0.01952,-0.04392,-0.38064,-0.09272,-0.24888
-0.04392,0.10004,-0.15616,-0.1342,-0.11224,0.03416,-0.06344,-0.00976,-0.04392,-0.37576,-0.09272,-0.24888
-0.03904,0.11956,-0.20008,-0.18056,-0.16104,0.061,-0.04392,0.02928,-0.02928,-0.37576,-0.0976,-0.25376
-0.03416,0.14884,-0.26352,-0.24644,-0.22936,0.0976,-0.00976,0.10248,0.04392,-0.36112,-0.11712,-0.2684
-0.02928,0.14152,-0.25376,-0.23912,-0.22448,0.0976,0.0244,0.16104,0.15128,-0.32208,-0.08296,-0.27328
-0.00488,0.04392,-0.08296,-0.08052,-0.07808,0.0366,0.01464,0.16104,0.29768,-0.06344,0.02928,-0.22448
0.05368,-0.17568,0.29768,0.27084,0.244,-0.09516,0.02928,0.20496,0.50752,0.42944,0.2928,-0.06832
0.12688,-0.53192,0.93696,0.87352,0.81008,-0.3416,-0.15128,-0.01952,0.33184,1.07848,0.71736,0.244
0.1708,-0.94672,1.72264,1.63724,1.55184,-0.69052,-0.47824,-0.52704,-0.44408,1.89344,1.20048,0.59536
0.15128,-1.22732,2.30336,2.22772,2.15208,-1.0004,-0.87352,-1.11264,-1.3664,2.14232,1.3908,0.81008
0.03416,-1.22244,2.41072,2.39364,2.37656,-1.1712,-1.44448,-1.72264,-2.45464,1.40056,1.098,0.81008
-0.11712,-0.70516,1.52744,1.586,1.64456,-0.88084,-1.55184,-1.7812,-2.8548,0.23912,0.5856,0.57584
-0.22448,-0.11224,0.44896,0.5612,0.67344,-0.44896,-1.47376,-1.58112,-2.74744,-0.99064,-0.03416,0.19032
-0.21472,0.15128,-0.08784,0.01952,0.12688,-0.1708,-1.32736,-1.32248,-2.47904,-1.38104,-0.2928,-0.0244
-0.18544,0.21716,-0.24888,-0.15616,-0.06344,-0.061,-0.98576,-0.89304,-1.72752,-1.18096,-0.2928,-0.10248
-0.16104,0.20252,-0.244,-0.16348,-0.08296,-0.03904,-0.70272,-0.54656,-1.15168,-0.86376,-0.25864,-0.15616
-0.10248,0.183,-0.26352,-0.21228,-0.16104,0.02928,-0.41968,-0.31232,-0.68808,-0.60512,-0.23912,-0.23912
-0.06832,0.15616,-0.244,-0.20984,-0.17568,0.05368,-0.20984,-0.15128,-0.38552,-0.44408,-0.1952,-0.30256
-0.04392,0.11468,-0.18544,-0.16348,-0.14152,0.0488,-0.05368,-0.01464,-0.15128,-0.31232,-0.122,-0.27328
-0.01464,0.0854,-0.15616,-0.14884,-0.14152,0.06344,0.03416,0.03416,0.00488,-0.244,-0.09272,-0.24888
-0.01952,0.0976,-0.17568,-0.16592,-0.15616,0.06832,0.05856,0.03904,0.03904,-0.23424,-0.10248,-0.24888
-0.02928,0.10736,-0.18544,-0.1708,-0.15616,0.06344,0.11224,0.0732,0.06344,-0.20496,-0.10248,-0.25864
-0.0244,0.10492,-0.18544,-0.17324,-0.16104,0.06832,0.1464,0.10248,0.10248,-0.19032,-0.08784,-0.25376
-0.0244,0.10492,-0.18544,-0.17324,-0.16104,0.06832,0.16104,0.11224,0.13664,-0.17568,-0.08296,-0.24888
-0.0244,0.10492,-0.18544,-0.17324,-0.16104,0.06832,0.16592,0.11224,0.16592,-0.16104,-0.0732,-0.24888
-0.0244,0.10248,-0.18056,-0.16836,-0.15616,0.06588,0.1708,0.122,0.1708,-0.13664,-0.05856,-0.23912
-0.0244,0.0976,-0.1708,-0.1586,-0.1464,0.061,0.17568,0.12688,0.1952,-0.122,-0.0488,-0.2196
-0.03416,0.10248,-0.1708,-0.15372,-0.13664,0.05124,0.18056,0.13176,0.21472,-0.10736,-0.03904,-0.20496
-0.0244,0.09516,-0.16592,-0.15372,-0.14152,0.05856,0.1952,0.13664,0.22448,-0.08784,-0.02928,-0.1952
-0.01464,0.0854,-0.15616,-0.14884,-0.14152,0.06344,0.20496,0.14152,0.23912,-0.0732,-0.01464,-0.18544
-0.01952,0.0854,-0.15128,-0.14152,-0.13176,0.05612,0.20496,0.1464,0.25376,-0.04392,-0.00488,-0.18056
-0.01952,0.07808,-0.13664,-0.12688,-0.11712,0.0488,0.20496,0.15128,0.26352,-0.01952,0.01464,-0.16592
-0.01464,0.0732,-0.13176,-0.12444,-0.11712,0.05124,0.20984,0.15128,0.28304,-0.00976,0.01952,-0.16104
-0.01464,0.06344,-0.11224,-0.10492,-0.0976,0.04148,0.20496,0.16104,0.29768,0,0.03416,-0.15128
0,0.0488,-0.0976,-0.0976,-0.0976,0.0488,0.2196,0.16592,0.32208,0.00976,0.0244,-0.1464
0,0.04636,-0.09272,-0.09272,-0.09272,0.04636,0.22448,0.18544,0.34648,0.03416,0.03416,-0.13176
0,0.04148,-0.08296,-0.08296,-0.08296,0.04148,0.22936,0.19032,0.37576,0.05856,0.03904,-0.12688
0,0.0366,-0.0732,-0.0732,-0.0732,0.0366,0.22936,0.1952,0.39528,0.10736,0.05368,-0.122
0.00976,0.02196,-0.05368,-0.05856,-0.06344,0.0366,0.244,0.20984,0.42456,0.12688,0.0732,-0.11712
0.01464,0.01464,-0.04392,-0.05124,-0.05856,0.0366,0.25376,0.2196,0.45384,0.1464,0.09272,-0.10736
0.0244,0,-0.0244,-0.0366,-0.0488,0.0366,0.25864,0.23912,0.49288,0.1708,0.10736,-0.09272
0.0244,-0.00976,-0.00488,-0.01708,-0.02928,0.02684,0.27816,0.25376,0.52216,0.2196,0.11712,-0.08784
0.0244,-0.01708,0.00976,-0.00244,-0.01464,0.01952,0.2928,0.28792,0.5612,0.2684,0.13664,-0.0732
0.03904,-0.03416,0.02928,0.00976,-0.00976,0.0244,0.29768,0.3172,0.60024,0.30256,0.15128,-0.06344
0.04392,-0.0488,0.05368,0.03172,0.00976,0.01708,0.31232,0.3416,0.65392,0.37576,0.16592,-0.04392
0.06344,-0.0732,0.08296,0.05124,0.01952,0.02196,0.32696,0.366,0.69784,0.42456,0.19032,-0.01952
0.06344,-0.08296,0.10248,0.07076,0.03904,0.0122,0.3416,0.39528,0.73688,0.45384,0.20984,-0.00488
0.07808,-0.10004,0.122,0.08296,0.04392,0.01708,0.34648,0.42456,0.7808,0.488,0.22448,0.00976
0.08296,-0.11224,0.14152,0.10004,0.05856,0.0122,0.35136,0.42944,0.8052,0.5368,0.23912,0.0244
0.08784,-0.12444,0.16104,0.11712,0.0732,0.00732,0.35624,0.44408,0.81984,0.57584,0.25376,0.0244
0.0976,-0.13908,0.18056,0.13176,0.08296,0.00732,0.35624,0.45384,0.83936,0.59048,0.25376,0.03416
0.0976,-0.1464,0.1952,0.1464,0.0976,0,0.35624,0.45872,0.84912,0.59048,0.26352,0.03904
0.08784,-0.14884,0.20984,0.16592,0.122,-0.01708,0.34648,0.45872,0.854,0.61,0.27328,0.05856
0.07808,-0.1464,0.21472,0.17568,0.13664,-0.02928,0.3416,0.45872,0.84424,0.62952,0.28304,0.07808
0.08296,-0.15372,0.22448,0.183,0.14152,-0.02928,0.33672,0.4392,0.82472,0.61976,0.28304,0.08296
0.08784,-0.1586,0.22936,0.18544,0.14152,-0.02684,0.32696,0.41968,0.8052,0.59048,0.28304,0.08784
0.07808,-0.15372,0.22936,0.19032,0.15128,-0.0366,0.3172,0.40016,0.7808,0.5612,0.27816,0.08784
0.0732,-0.15128,0.22936,0.19276,0.15616,-0.04148,0.29768,0.366,0.72712,0.5124,0.25376,0.08296
0.0732,-0.14884,0.22448,0.18788,0.15128,-0.03904,0.30256,0.36112,0.71736,0.49288,0.25376,0.08296
0.06832,-0.14396,0.2196,0.18544,0.15128,-0.04148,0.2928,0.3416,0.69296,0.45872,0.22936,0.0732
0.05856,-0.12932,0.20008,0.1708,0.14152,-0.04148,0.27816,0.32208,0.6344,0.42456,0.22936,0.06832
0.04392,-0.1098,0.17568,0.15372,0.13176,-0.04392,0.26352,0.2928,0.57584,0.37088,0.2196,0.06832
0.04392,-0.1098,0.17568,0.15372,0.13176,-0.04392,0.24888,0.244,0.52216,0.32208,0.20496,0.06832
0.02928,-0.08784,0.1464,0.13176,0.11712,-0.04392,0.23912,0.21472,0.47336,0.27328,0.16592,0.06344
0.01464,-0.06344,0.11224,0.10492,0.0976,-0.04148,0.244,0.20008,0.43432,0.22936,0.15128,0.05368
0.00488,-0.05368,0.10248,0.10004,0.0976,-0.04636,0.22448,0.1708,0.38064,0.19032,0.12688,0.04392
0,-0.03904,0.07808,0.07808,0.07808,-0.03904,0.22448,0.13664,0.32696,0.1464,0.0976,0.03904
0.00976,-0.03416,0.05856,0.05368,0.0488,-0.01952,0.20984,0.11224,0.28792,0.10248,0.0732,0.01464
0.00976,-0.0244,0.03904,0.03416,0.02928,-0.00976,0.20496,0.08784,0.24888,0.08784,0.0488,0
0,-0.00488,0.00976,0.00976,0.00976,-0.00488,0.1952,0.06832,0.20984,0.05368,0.02928,0
-0.01952,0.01708,-0.01464,-0.00488,0.00488,-0.0122,0.19032,0.05368,0.1952,0.03416,0.00976,-0.01464
-0.02928,0.02928,-0.02928,-0.01464,0,-0.01464,0.18544,0.03904,0.18056,0.00976,0,-0.0244
-0.0244,0.03416,-0.04392,-0.03172,-0.01952,-0.00244,0.18544,0.02928,0.16104,0,-0.01952,-0.0244
-0.01952,0.03904,-0.05856,-0.0488,-0.03904,0.00976,0.18056,0.0244,0.15128,-0.00488,-0.02928,-0.02928
-0.01952,0.0488,-0.07808,-0.06832,-0.05856,0.01952,0.17568,0.01952,0.13664,-0.0244,-0.03904,-0.03904
-0.0244,0.05124,-0.07808,-0.06588,-0.05368,0.01464,0.17568,0.01952,0.12688,-0.01952,-0.0488,-0.03904
-0.02928,0.05368,-0.07808,-0.06344,-0.0488,0.00976,0.17568,0.00976,0.11712,-0.0488,-0.05368,-0.04392
-0.03416,0.05612,-0.07808,-0.061,-0.04392,0.00488,0.17568,0,0.10248,-0.03904,-0.06344,-0.04392
-0.03416,0.05856,-0.08296,-0.06588,-0.0488,0.00732,0.17568,0,0.10248,-0.05368,-0.06832,-0.04392
-0.02928,0.05612,-0.08296,-0.06832,-0.05368,0.0122,0.16592,0,0.09272,-0.03904,-0.07808,-0.04392
-0.02928,0.06832,-0.10736,-0.09272,-0.07808,0.0244,0.16592,0,0.09272,-0.04392,-0.08784,-0.04392
-0.03416,0.0732,-0.11224,-0.09516,-0.07808,0.02196,0.16104,0,0.09272,-0.0488,-0.09272,-0.04392
-0.03904,0.07076,-0.10248,-0.08296,-0.06344,0.0122,0.16104,-0.00488,0.0976,-0.0488,-0.0976,-0.04392
-0.03904,0.07076,-0.10248,-0.08296,-0.06344,0.0122,0.16104,-0.00488,0.10248,-0.0488,-0.10248,-0.04392
-0.03416,0.06832,-0.10248,-0.0854,-0.06832,0.01708,0.16104,0,0.10736,-0.0488,-0.10248,-0.04392
-0.03416,0.06832,-0.10248,-0.0854,-0.06832,0.01708,0.16104,0.00488,0.11712,-0.0488,-0.10248,-0.04392
-0.03904,0.06832,-0.0976,-0.07808,-0.05856,0.00976,0.1708,0.00488,0.13176,-0.04392,-0.10248,-0.04392
-0.04392,0.06832,-0.09272,-0.07076,-0.0488,0.00244,0.1708,0.00488,0.13664,-0.0488,-0.10248,-0.0488
-0.04392,0.06832,-0.09272,-0.07076,-0.0488,0.00244,0.18056,0.00976,0.14152,-0.03416,-0.10248,-0.04392
-0.04392,0.06588,-0.08784,-0.06588,-0.04392,0,0.18056,0.01952,0.1464,-0.01952,-0.0976,-0.04392
-0.03904,0.06344,-0.08784,-0.06832,-0.0488,0.00488,0.17568,0.0244,0.15616,-0.01952,-0.09272,-0.03904
-0.03904,0.06344,-0.08784,-0.06832,-0.0488,0.00488,0.17568,0.02928,0.16592,-0.01952,-0.08784,-0.03904
-0.0488,0.06832,-0.08784,-0.06344,-0.03904,-0.00488,0.19032,0.03904,0.18544,-0.00976,-0.08784,-0.03416
-0.05856,0.0732,-0.08784,-0.05856,-0.02928,-0.01464,0.20496,0.0488,0.20496,0,-0.08784,-0.02928
-0.0488,0.06832,-0.08784,-0.06344,-0.03904,-0.00488,0.20496,0.0488,0.20496,0,-0.08784,-0.02928
-0.02928,0.05856,-0.08784,-0.0732,-0.05856,0.01464,0.1952,0.04392,0.20008,0,-0.09272,-0.02928
-0.00976,0.0488,-0.08784,-0.08296,-0.07808,0.03416,0.19032,0.04392,0.20008,0,-0.10248,-0.03416
0.01952,0.03172,-0.08296,-0.09272,-0.10248,0.061,0.18056,0.03416,0.19032,-0.00976,-0.11224,-0.03904
0.00976,0.0366,-0.08296,-0.08784,-0.09272,0.05124,0.18056,0.03416,0.19032,-0.00488,-0.11712,-0.03904
0.00488,0.04148,-0.08784,-0.09028,-0.09272,0.0488,0.18056,0.03416,0.19032,-0.00488,-0.12688,-0.03904
0.00488,0.04148,-0.08784,-0.09028,-0.09272,0.0488,0.17568,0.03416,0.1952,-0.00488,-0.12688,-0.02928
0.00488,0.04148,-0.08784,-0.09028,-0.09272,0.0488,0.1708,0.03416,0.1952,-0.00488,-0.12688,-0.0244
-0.00488,0.04392,-0.08296,-0.08052,-0.07808,0.0366,0.18056,0.03416,0.20008,0.01464,-0.12688,-0.0244
-0.00976,0.04148,-0.0732,-0.06832,-0.06344,0.02684,0.18544,0.03904,0.20984,0.0244,-0.122,-0.01952
-0.00976,0.03172,-0.05368,-0.0488,-0.04392,0.01708,0.18544,0.03904,0.2196,0.01952,-0.11224,-0.00976
-0.00976,0.00732,-0.00488,0,0.00488,-0.00732,0.1952,0.0488,0.244,0.03904,-0.0976,-0.00488
-0.00488,-0.01464,0.03416,0.0366,0.03904,-0.02196,0.21472,0.05368,0.28304,0.04392,-0.08784,0.01464
0,-0.02196,0.04392,0.04392,0.04392,-0.02196,0.23424,0.05856,0.32208,0.0732,-0.06344,0.02928
0.00488,-0.03416,0.06344,0.061,0.05856,-0.02684,0.25376,0.07808,0.32208,0.08784,-0.06344,0.03416
0.00488,-0.03416,0.06344,0.061,0.05856,-0.02684,0.25864,0.08296,0.32208,0.08784,-0.06344,0.03416
0.00976,-0.03904,0.06832,0.06344,0.05856,-0.0244,0.25376,0.0732,0.32208,0.08296,-0.06832,0.02928
0.00976,-0.05124,0.09272,0.08784,0.08296,-0.0366,0.24888,0.06344,0.3172,0.08296,-0.06832,0.02928
0.01952,-0.06588,0.11224,0.10248,0.09272,-0.0366,0.1952,0.01952,0.29768,0.08296,-0.06344,0.04392
0.0244,-0.08784,0.15128,0.13908,0.12688,-0.05124,0.16592,0.00976,0.2928,0.0976,-0.0488,0.06832
0.03416,-0.11468,0.1952,0.17812,0.16104,-0.06344,0.13664,-0.00976,0.2684,0.11224,-0.02928,0.10736
0.03904,-0.1342,0.22936,0.20984,0.19032,-0.07564,0.122,-0.01952,0.25376,0.11712,-0.00976,0.122
0.04392,-0.13664,0.22936,0.2074,0.18544,-0.07076,0.11224,-0.01952,0.244,0.11224,-0.00488,0.122
0.03904,-0.13176,0.22448,0.20496,0.18544,-0.0732,0.0976,-0.0244,0.2196,0.10248,-0.00976,0.122
0.03904,-0.11712,0.1952,0.17568,0.15616,-0.05856,0.06832,-0.03416,0.17568,0.06832,-0.02928,0.11712
0.0244,-0.0854,0.1464,0.1342,0.122,-0.0488,0.06832,-0.03904,0.1464,0.02928,-0.06344,0.08784
0,-0.02928,0.05856,0.05856,0.05856,-0.02928,0.06832,-0.03904,0.13176,-0.00488,-0.10736,0.04392
-0.01464,0.00244,0.00976,0.01708,0.0244,-0.01952,0.0732,-0.03904,0.122,-0.01464,-0.12688,0.0244
-0.02928,0.03416,-0.03904,-0.0244,-0.00976,-0.00976,0.08296,-0.0244,0.10248,-0.03416,-0.15128,0
-0.02928,0.061,-0.09272,-0.07808,-0.06344,0.01708,0.09272,-0.0244,0.08296,-0.05368,-0.1708,-0.00976
-0.0244,0.07076,-0.11712,-0.10492,-0.09272,0.03416,0.09272,-0.0244,0.06832,-0.06832,-0.19032,-0.01464
-0.0244,0.07808,-0.13176,-0.11956,-0.10736,0.04148,0.09272,-0.0244,0.0488,-0.07808,-0.20008,-0.02928
-0.02928,0.0854,-0.14152,-0.12688,-0.11224,0.04148,0.0976,-0.0244,0.04392,-0.07808,-0.20984,-0.03904
-0.02928,0.08784,-0.1464,-0.13176,-0.11712,0.04392,0.09272,-0.01952,0.04392,-0.08296,-0.2196,-0.04392
-0.03416,0.10248,-0.1708,-0.15372,-0.13664,0.05124,0.08784,-0.01952,0.03904,-0.08784,-0.22936,-0.0488
-0.03904,0.1098,-0.18056,-0.16104,-0.14152,0.05124,0.08784,-0.01952,0.02928,-0.08296,-0.23424,-0.05368
-0.04392,0.11224,-0.18056,-0.1586,-0.13664,0.04636,0.08784,-0.01464,0.02928,-0.07808,-0.23912,-0.0488
-0.0488,0.11468,-0.18056,-0.15616,-0.13176,0.04148,0.08784,-0.00976,0.02928,-0.07808,-0.25376,-0.04392
-0.0488,0.11468,-0.18056,-0.15616,-0.13176,0.04148,0.08296,-0.00976,0.02928,-0.07808,-0.24888,-0.04392
-0.0488,0.11468,-0.18056,-0.15616,-0.13176,0.04148,0.07808,-0.00976,0.02928,-0.07808,-0.25376,-0.0488
-0.03904,0.1098,-0.18056,-0.16104,-0.14152,0.05124,0.07808,-0.00976,0.02928,-0.07808,-0.2684,-0.0488
-0.0244,0.10248,-0.18056,-0.16836,-0.15616,0.06588,0.0732,-0.00976,0.02928,-0.08296,-0.27816,-0.0488
-0.01952,0.10736,-0.1952,-0.18544,-0.17568,0.07808,0.0732,-0.00976,0.02928,-0.10248,-0.28792,-0.05368
-0.01464,0.11956,-0.22448,-0.21716,-0.20984,0.0976,0.0732,0,0.03416,-0.122,-0.29768,-0.05368
-0.00976,0.12688,-0.244,-0.23912,-0.23424,0.11224,0.08296,0.03416,0.0488,-0.122,-0.28792,-0.04392
-0.00488,0.14396,-0.28304,-0.2806,-0.27816,0.13664,0.10736,0.10248,0.122,-0.10736,-0.2928,-0.04392
0.01952,0.06832,-0.15616,-0.16592,-0.17568,0.0976,0.06832,0.08784,0.11224,0.11712,-0.16592,0.02928
0.06344,-0.0976,0.13176,0.10004,0.06832,-0.00244,-0.01464,0.01464,0.14152,0.5612,0.03904,0.15616
0.10736,-0.4148,0.72224,0.66856,0.61488,-0.25376,-0.23912,-0.17568,-0.122,1.2444,0.366,0.36112
0.16592,-0.86864,1.57136,1.4884,1.40544,-0.61976,-0.6588,-0.6344,-0.77104,2.08376,0.854,0.72224
0.18544,-1.15412,2.1228,2.03008,1.93736,-0.87596,-1.13216,-1.13704,-1.586,2.48392,1.14192,0.95648
0.14152,-1.3054,2.46928,2.39852,2.32776,-1.09312,-1.67384,-1.71776,-2.54736,2.318,1.13704,1.05408
0.0488,-1.17608,2.30336,2.27896,2.25456,-1.10288,-2.0252,-2.0984,-3.19152,1.32248,0.7564,0.99064
-0.07808,-0.53436,1.1468,1.18584,1.22488,-0.65148,-1.91296,-1.9276,-3.1476,-0.09272,0.15616,0.69296
-0.15616,-0.0488,0.25376,0.33184,0.40992,-0.28304,-1.59088,-1.55184,-2.70352,-0.96136,-0.31232,0.35136
-0.11712,0.10736,-0.0976,-0.03904,0.01952,-0.06832,-1.20048,-1.11752,-2.0984,-0.99064,-0.41968,0.18056
-0.08784,0.1464,-0.20496,-0.16104,-0.11712,0.01464,-0.8052,-0.732,-1.33224,-0.8052,-0.42944,0.10736
-0.06344,0.10492,-0.1464,-0.11468,-0.08296,0.00976,-0.46848,-0.42944,-0.74176,-0.50264,-0.40504,0.05856
-0.03416,0.122,-0.20984,-0.19276,-0.17568,0.07076,-0.21472,-0.2196,-0.35624,-0.28792,-0.3904,-0.0244
-0.02928,0.13176,-0.23424,-0.2196,-0.20496,0.08784,-0.03416,-0.08296,-0.13176,-0.1708,-0.35136,-0.08784
-0.02928,0.11468,-0.20008,-0.18544,-0.1708,0.07076,0.06832,0.01952,0.03416,-0.08784,-0.30256,-0.06832
-0.0244,0.1098,-0.1952,-0.183,-0.1708,0.0732,0.10248,0.03416,0.122,-0.06832,-0.29768,-0.05368
-0.01952,0.1098,-0.20008,-0.19032,-0.18056,0.08052,0.11712,0.03904,0.15128,-0.06344,-0.2928,-0.05368
-0.01952,0.10736,-0.1952,-0.18544,-0.17568,0.07808,0.16104,0.0732,0.1708,-0.03904,-0.27816,-0.06344
-0.01464,0.10492,-0.1952,-0.18788,-0.18056,0.08296,0.18056,0.09272,0.20008,-0.02928,-0.2684,-0.05856
-0.01464,0.10492,-0.1952,-0.18788,-0.18056,0.08296,0.18056,0.09272,0.22448,-0.01952,-0.2684,-0.05368
-0.01464,0.10736,-0.20008,-0.19276,-0.18544,0.0854,0.17568,0.09272,0.25376,-0.00976,-0.25864,-0.05368
-0.01464,0.10736,-0.20008,-0.19276,-0.18544,0.0854,0.1708,0.10248,0.25864,0.00976,-0.244,-0.04392
-0.05856,0.12444,-0.19032,-0.16104,-0.13176,0.0366,0.18056,0.13176,0.2928,0.01952,-0.22936,-0.03416
-0.11224,0.15128,-0.19032,-0.1342,-0.07808,-0.01708,0.19032,0.16104,0.32208,0.02928,-0.21472,-0.02928
-0.06344,0.12444,-0.18544,-0.15372,-0.122,0.02928,0.1952,0.15616,0.32208,0.0488,-0.2196,-0.0244
-0.01464,0.09516,-0.17568,-0.16836,-0.16104,0.0732,0.1952,0.15128,0.32696,0.06344,-0.2196,-0.01952
-0.00488,0.09028,-0.17568,-0.17324,-0.1708,0.08296,0.18544,0.15616,0.33672,0.05856,-0.22936,-0.02928
0.00976,0.07808,-0.16592,-0.1708,-0.17568,0.09272,0.17568,0.16104,0.3416,0.0488,-0.22936,-0.02928
0.01464,0.07564,-0.16592,-0.17324,-0.18056,0.0976,0.17568,0.16104,0.366,0.06832,-0.22448,-0.02928
0.01464,0.06832,-0.15128,-0.1586,-0.16592,0.09028,0.16592,0.1708,0.38552,0.08784,-0.20984,-0.0244
0.03416,0.05124,-0.13664,-0.15372,-0.1708,0.10248,0.18056,0.1708,0.40992,0.09272,-0.20496,-0.0244
0.03904,0.04636,-0.13176,-0.15128,-0.1708,0.10492,0.18544,0.18544,0.43432,0.11224,-0.18056,-0.01464
0.03904,0.04148,-0.122,-0.14152,-0.16104,0.10004,0.19032,0.20008,0.47824,0.13664,-0.1708,-0.00976
0.03904,0.0366,-0.11224,-0.13176,-0.15128,0.09516,0.19032,0.21472,0.5124,0.18544,-0.15128,-0.00488
0.04392,0.0244,-0.09272,-0.11468,-0.13664,0.09028,0.20496,0.23912,0.54656,0.20496,-0.13176,0
0.04392,0.01952,-0.08296,-0.10492,-0.12688,0.0854,0.21472,0.25864,0.58072,0.22448,-0.11224,0.00976
0.05368,0.00732,-0.06832,-0.09516,-0.122,0.08784,0.2196,0.28792,0.63928,0.24888,-0.0976,0.0244
0.05368,0,-0.05368,-0.08052,-0.10736,0.08052,0.23912,0.31232,0.68808,0.29768,-0.08784,0.02928
0.05368,-0.00976,-0.03416,-0.061,-0.08784,0.07076,0.25864,0.34648,0.73688,0.36112,-0.06832,0.04392
0.06832,-0.02928,-0.00976,-0.04392,-0.07808,0.0732,0.2684,0.37576,0.78568,0.40992,-0.05368,0.05368
0.07808,-0.04636,0.01464,-0.0244,-0.06344,0.07076,0.27816,0.40992,0.83936,0.46848,-0.03416,0.06344
0.10248,-0.0732,0.04392,-0.00732,-0.05856,0.08052,0.28792,0.44408,0.88328,0.50264,-0.00488,0.07808
0.10248,-0.08784,0.0732,0.02196,-0.02928,0.06588,0.30256,0.46848,0.92232,0.53192,0.01952,0.09272
0.11712,-0.1098,0.10248,0.04392,-0.01464,0.06588,0.30744,0.49288,0.96624,0.56608,0.03904,0.10736
0.122,-0.122,0.122,0.061,0,0.061,0.31232,0.49776,0.99552,0.61,0.05368,0.12688
0.12688,-0.1342,0.14152,0.07808,0.01464,0.05612,0.3172,0.5124,1.01504,0.64416,0.06832,0.13176
0.13664,-0.14884,0.16104,0.09272,0.0244,0.05612,0.3172,0.51728,1.01992,0.66368,0.06832,0.13664
0.13664,-0.15616,0.17568,0.10736,0.03904,0.0488,0.3172,0.51728,1.01504,0.66856,0.07808,0.13664
0.13664,-0.16348,0.19032,0.122,0.05368,0.04148,0.30256,0.5124,1.01504,0.66856,0.07808,0.14152
0.13664,-0.16592,0.1952,0.12688,0.05856,0.03904,0.2928,0.50752,1.0004,0.66856,0.07808,0.1464
0.13176,-0.1708,0.20984,0.14396,0.07808,0.02684,0.28304,0.47824,0.96624,0.65392,0.07808,0.1464
0.12688,-0.17324,0.2196,0.15616,0.09272,0.01708,0.2684,0.44896,0.93208,0.61976,0.07808,0.1464
0.11712,-0.16836,0.2196,0.16104,0.10248,0.00732,0.25864,0.42944,0.90768,0.59048,0.07808,0.1464
0.11224,-0.16592,0.2196,0.16348,0.10736,0.00244,0.23912,0.39528,0.854,0.54168,0.05856,0.14152
0.11224,-0.16592,0.2196,0.16348,0.10736,0.00244,0.22936,0.366,0.8052,0.50264,0.0488,0.14152
0.10736,-0.16348,0.2196,0.16592,0.11224,-0.00244,0.20496,0.32208,0.74176,0.44896,0.01464,0.13176
0.0976,-0.1464,0.1952,0.1464,0.0976,0,0.19032,0.2928,0.6832,0.40992,-0.00488,0.122
0.08296,-0.12444,0.16592,0.12444,0.08296,0,0.17568,0.25376,0.62464,0.35136,-0.03416,0.11712
0.0732,-0.11468,0.15616,0.11956,0.08296,-0.00488,0.16104,0.20984,0.56608,0.30744,-0.03904,0.11224
0.0488,-0.08296,0.11712,0.09272,0.06832,-0.00976,0.15128,0.18544,0.5124,0.26352,-0.06832,0.10248
0.02928,-0.05612,0.08296,0.06832,0.05368,-0.0122,0.1464,0.16592,0.46848,0.20984,-0.07808,0.09272
0.01464,-0.04392,0.0732,0.06588,0.05856,-0.02196,0.11712,0.13176,0.40992,0.16104,-0.0976,0.08296
-0.00488,-0.01952,0.04392,0.04636,0.0488,-0.02684,0.11712,0.0976,0.35136,0.11712,-0.122,0.07808
-0.00976,-0.00488,0.01952,0.0244,0.02928,-0.01952,0.10248,0.0732,0.30744,0.0732,-0.14152,0.05368
-0.00976,0.00488,0,0.00488,0.00976,-0.00976,0.09272,0.0488,0.2684,0.0488,-0.16592,0.02928
-0.01952,0.0244,-0.02928,-0.01952,-0.00976,-0.00488,0.07808,0.02928,0.22936,0.00488,-0.18544,0.01952
-0.0244,0.03904,-0.05368,-0.04148,-0.02928,0.00244,0.06832,0.01464,0.20496,-0.00976,-0.20496,0.00488
-0.01952,0.04392,-0.06832,-0.05856,-0.0488,0.01464,0.05856,0,0.18056,-0.02928,-0.21472,-0.00488
-0.0244,0.05124,-0.07808,-0.06588,-0.05368,0.01464,0.05368,-0.00976,0.16104,-0.0488,-0.2196,-0.00488
-0.02928,0.05856,-0.08784,-0.0732,-0.05856,0.01464,0.04392,-0.01464,0.15128,-0.06344,-0.21472,-0.00976
-0.01952,0.06344,-0.10736,-0.0976,-0.08784,0.03416,0.02928,-0.01952,0.13176,-0.09272,-0.22448,-0.01464
-0.01464,0.061,-0.10736,-0.10004,-0.09272,0.03904,0.01952,-0.01952,0.11712,-0.0976,-0.23424,-0.00976
-0.01952,0.06344,-0.10736,-0.0976,-0.08784,0.03416,0.01952,-0.0244,0.11224,-0.10736,-0.23424,-0.00976
-0.0244,0.06588,-0.10736,-0.09516,-0.08296,0.02928,0.01952,-0.02928,0.10248,-0.07808,-0.23912,-0.00488
-0.0244,0.06832,-0.11224,-0.10004,-0.08784,0.03172,0.02928,-0.0244,0.11224,-0.09272,-0.23912,-0.00488
-0.01952,0.06588,-0.11224,-0.10248,-0.09272,0.0366,0.02928,-0.01952,0.11224,-0.07808,-0.244,-0.00488
-0.00976,0.07076,-0.13176,-0.12688,-0.122,0.05612,0.03416,-0.01952,0.11224,-0.08784,-0.24888,-0.00488
-0.00488,0.06832,-0.13176,-0.12932,-0.12688,0.061,0.03416,-0.01952,0.11224,-0.0976,-0.24888,-0.00488
-0.00976,0.06588,-0.122,-0.11712,-0.11224,0.05124,0.03416,-0.01952,0.11712,-0.0976,-0.24888,-0.00488
-0.00976,0.06588,-0.122,-0.11712,-0.11224,0.05124,0.03416,-0.01464,0.122,-0.0976,-0.24888,-0.00488
-0.00488,0.06344,-0.122,-0.11956,-0.11712,0.05612,0.03416,-0.00976,0.11712,-0.09272,-0.24888,-0.00488
-0.00488,0.06344,-0.122,-0.11956,-0.11712,0.05612,0.03416,-0.00488,0.11712,-0.08784,-0.24888,-0.00488
-0.00488,0.061,-0.11712,-0.11468,-0.11224,0.05368,0.03904,-0.00488,0.122,-0.08784,-0.24888,0
-0.00488,0.05856,-0.11224,-0.1098,-0.10736,0.05124,0.03904,0,0.122,-0.08784,-0.24888,0
-0.00976,0.05856,-0.10736,-0.10248,-0.0976,0.04392,0.04392,0,0.12688,-0.08296,-0.24888,0
-0.01952,0.061,-0.10248,-0.09272,-0.08296,0.03172,0.0488,0.00488,0.13176,-0.08296,-0.24888,-0.00488
-0.01952,0.06588,-0.11224,-0.10248,-0.09272,0.0366,0.0488,0.00488,0.14152,-0.0732,-0.244,-0.00488
-0.01952,0.0732,-0.12688,-0.11712,-0.10736,0.04392,0.0488,0.00976,0.15616,-0.06832,-0.244,-0.00976
-0.01464,0.07076,-0.12688,-0.11956,-0.11224,0.0488,0.0488,0.01464,0.15616,-0.06344,-0.244,-0.00976
-0.00976,0.06832,-0.12688,-0.122,-0.11712,0.05368,0.0488,0.01952,0.15616,-0.05856,-0.244,-0.00976
-0.00488,0.061,-0.11712,-0.11468,-0.11224,0.05368,0.0488,0.01952,0.16104,-0.05368,-0.244,-0.00488
0,0.05368,-0.10736,-0.10736,-0.10736,0.05368,0.0488,0.01952,0.16104,-0.0488,-0.24888,0
0,0.0488,-0.0976,-0.0976,-0.0976,0.0488,0.05368,0.0244,0.16104,-0.0488,-0.25376,0
0,0.04636,-0.09272,-0.09272,-0.09272,0.04636,0.05368,0.0244,0.16104,-0.04392,-0.25864,0
-0.00488,0.05124,-0.0976,-0.09516,-0.09272,0.04392,0.05368,0.0244,0.16104,-0.03904,-0.2684,0.00488
-0.01464,0.05612,-0.0976,-0.09028,-0.08296,0.03416,0.0488,0.0244,0.16104,-0.03416,-0.27328,0.00976
-0.01464,0.05856,-0.10248,-0.09516,-0.08784,0.0366,0.04392,0.0244,0.15616,-0.02928,-0.27328,0.00488
-0.01464,0.061,-0.10736,-0.10004,-0.09272,0.03904,0.04392,0.01952,0.15128,-0.01464,-0.27816,0.00488
-0.00976,0.05612,-0.10248,-0.0976,-0.09272,0.04148,0.03904,0.01952,0.15128,-0.01464,-0.28304,0
-0.00976,0.05124,-0.09272,-0.08784,-0.08296,0.0366,0.03904,0.01952,0.15616,-0.00488,-0.27816,0
-0.00976,0.03172,-0.05368,-0.0488,-0.04392,0.01708,0.0488,0.0244,0.17568,0.0244,-0.26352,0
-0.00488,0.00244,0,0.00244,0.00488,-0.00488,0.06832,0.0244,0.21472,0.03416,-0.24888,0.01952
0,-0.0122,0.0244,0.0244,0.0244,-0.0122,0.08784,0.02928,0.25864,0.0732,-0.20984,0.03904
0.00488,-0.0244,0.04392,0.04148,0.03904,-0.01708,0.11224,0.0488,0.2684,0.08784,-0.20008,0.04392
0.00488,-0.0244,0.04392,0.04148,0.03904,-0.01708,0.122,0.05856,0.27328,0.08784,-0.20008,0.0488
