i,aVR,ii,aVF,iii,aVL,V1,V2,V3,V4,V5,V6
-0.05856,0.0732,-0.08784,-0.05856,-0.02928,-0.01464,-0.00488,-0.03416,-0.07808,-0.10736,-0.11224,-0.07808
-0.01952,0.0488,-0.07808,-0.06832,-0.05856,0.01952,-0.0244,-0.05368,-0.05856,-0.11712,-0.11712,-0.09272
-0.03416,0.05612,-0.07808,-0.061,-0.04392,0.00488,-0.0244,-0.0488,-0.06832,-0.13664,-0.13664,-0.10736
-0.03904,0.05612,-0.0732,-0.05368,-0.03416,-0.00244,-0.01952,-0.03416,-0.07808,-0.1708,-0.1464,-0.122
-0.05368,0.061,-0.06832,-0.04148,-0.01464,-0.01952,0,-0.01464,-0.06344,-0.19032,-0.1464,-0.13664
-0.04392,0.06344,-0.08296,-0.061,-0.03904,-0.00244,0.00976,-0.00976,-0.05368,-0.20008,-0.15616,-0.13664
-0.03904,0.06344,-0.08784,-0.06832,-0.0488,0.00488,0,-0.0244,-0.06344,-0.20008,-0.16592,-0.1464
-0.03416,0.06344,-0.09272,-0.07564,-0.05856,0.0122,0,-0.0244,-0.05856,-0.20496,-0.16592,-0.15128
-0.0488,0.07808,-0.10736,-0.08296,-0.05856,0.00488,0.00488,-0.00976,-0.04392,-0.19032,-0.15128,-0.14152
-0.06344,0.0854,-0.10736,-0.07564,-0.04392,-0.00976,0.00976,-0.00976,-0.03904,-0.16592,-0.1464,-0.12688
-0.0488,0.07564,-0.10248,-0.07808,-0.05368,0.00244,0.01464,-0.00976,-0.0488,-0.1708,-0.13664,-0.11224
-0.03416,0.06344,-0.09272,-0.07564,-0.05856,0.0122,0.01952,-0.00976,-0.0488,-0.15616,-0.13176,-0.0976
-0.02928,0.07076,-0.11224,-0.0976,-0.08296,0.02684,0.0244,-0.00976,-0.05368,-0.1464,-0.14152,-0.12688
-0.03904,0.07808,-0.11712,-0.0976,-0.07808,0.01952,0.03416,-0.00976,-0.0488,-0.13176,-0.15128,-0.13176
-0.03904,0.08296,-0.12688,-0.10736,-0.08784,0.0244,0.03416,-0.01464,-0.0488,-0.11712,-0.1464,-0.11712
-0.03904,0.08052,-0.122,-0.10248,-0.08296,0.02196,0.03416,-0.01952,-0.0488,-0.11224,-0.1464,-0.11224
-0.0488,0.08052,-0.11224,-0.08784,-0.06344,0.00732,0.04392,-0.01464,-0.03904,-0.10736,-0.13664,-0.11712
-0.04392,0.07564,-0.10736,-0.0854,-0.06344,0.00976,0.04392,-0.01464,-0.01952,-0.09272,-0.13176,-0.11712
-0.03416,0.07564,-0.11712,-0.10004,-0.08296,0.0244,0.03904,-0.01464,-0.03416,-0.10248,-0.13664,-0.12688
-0.03416,0.0732,-0.11224,-0.09516,-0.07808,0.02196,0.02928,-0.01464,-0.03416,-0.11224,-0.14152,-0.122
-0.03904,0.06832,-0.0976,-0.07808,-0.05856,0.00976,0.03416,-0.00488,-0.03416,-0.11712,-0.15128,-0.13176
-0.0488,0.06832,-0.08784,-0.06344,-0.03904,-0.00488,0.03904,-0.00488,-0.03416,-0.11712,-0.15128,-0.12688
-0.04392,0.06832,-0.09272,-0.07076,-0.0488,0.00244,0.02928,-0.00976,-0.0244,-0.10736,-0.13664,-0.10736
-0.03904,0.061,-0.08296,-0.06344,-0.04392,0.00244,0.00976,-0.01952,-0.0244,-0.11712,-0.13176,-0.10736
-0.0244,0.05368,-0.08296,-0.07076,-0.05856,0.01708,0.01464,-0.01952,-0.0244,-0.12688,-0.14152,-0.122
-0.03416,0.05612,-0.07808,-0.061,-0.04392,0.00488,0.00976,-0.01952,-0.01952,-0.13664,-0.14152,-0.11712
-0.04392,0.06588,-0.08784,-0.06588,-0.04392,0,0.0244,-0.00976,-0.00976,-0.13176,-0.13176,-0.11224
-0.04392,0.061,-0.07808,-0.05612,-0.03416,-0.00488,0.03416,-0.00976,-0.00488,-0.14152,-0.13176,-0.11712
-0.01464,0.03904,-0.06344,-0.05612,-0.0488,0.01708,0.0244,-0.00488,-0.00488,-0.13664,-0.12688,-0.122
-0.03416,0.04636,-0.05856,-0.04148,-0.0244,-0.00488,0.0244,0,0,-0.122,-0.122,-0.11712
-0.03416,0.04636,-0.05856,-0.04148,-0.0244,-0.00488,0.0244,0,0.00976,-0.11224,-0.11224,-0.10736
-0.04392,0.05124,-0.05856,-0.0366,-0.01464,-0.01464,0.0244,0,0.00976,-0.0976,-0.10248,-0.08784
-0.0244,0.0244,-0.0244,-0.0122,0,-0.0122,0.01952,-0.00488,0.02928,-0.08296,-0.09272,-0.07808
-0.01952,0.02928,-0.03904,-0.02928,-0.01952,0,0.00976,-0.00488,0.02928,-0.06832,-0.09272,-0.07808
-0.02928,0.02928,-0.02928,-0.01464,0,-0.01464,0.01464,-0.00976,0.02928,-0.05856,-0.09272,-0.08296
-0.0244,0.02684,-0.02928,-0.01708,-0.00488,-0.00976,0.00488,-0.01464,0.02928,-0.05368,-0.09272,-0.10248
-0.01464,0.01464,-0.01464,-0.00732,0,-0.00732,0.00976,0,0.04392,-0.02928,-0.08784,-0.08784
-0.00488,0.00488,-0.00488,-0.00244,0,-0.00244,0.00488,0.00976,0.0488,-0.00976,-0.08296,-0.08296
-0.02928,0.01708,-0.00488,0.00976,0.0244,-0.02684,-0.00488,0.00488,0.0488,0.00488,-0.06832,-0.0732
-0.03416,0.02196,-0.00976,0.00732,0.0244,-0.02928,-0.01464,-0.01464,0.0488,0.01952,-0.06344,-0.0732
-0.00488,-0.00732,0.01952,0.02196,0.0244,-0.01464,-0.01464,-0.01952,0.06344,0.0244,-0.05856,-0.06832
0.01464,-0.0244,0.03416,0.02684,0.01952,-0.00244,-0.0244,-0.01952,0.06344,0.04392,-0.05368,-0.06344
0.00488,-0.02684,0.0488,0.04636,0.04392,-0.01952,-0.0244,-0.00976,0.08784,0.0732,-0.0488,-0.06344
0.00488,-0.02684,0.0488,0.04636,0.04392,-0.01952,-0.03416,-0.00488,0.09272,0.09272,-0.04392,-0.05856
0.00488,-0.02928,0.05368,0.05124,0.0488,-0.02196,-0.04392,-0.01952,0.08784,0.08784,-0.04392,-0.0488
0.01952,-0.04148,0.06344,0.05368,0.04392,-0.0122,-0.05368,-0.01952,0.10248,0.08784,-0.02928,-0.0488
0.01952,-0.05124,0.08296,0.0732,0.06344,-0.02196,-0.05368,-0.00976,0.122,0.11224,-0.00976,-0.0244
0.01464,-0.05612,0.0976,0.09028,0.08296,-0.03416,-0.06344,-0.00976,0.13176,0.13664,0.01464,0
0.02928,-0.0732,0.11712,0.10248,0.08784,-0.02928,-0.06344,-0.01464,0.14152,0.15128,0.03416,0.00976
0.02928,-0.07808,0.12688,0.11224,0.0976,-0.03416,-0.06832,-0.00976,0.16104,0.17568,0.05368,0.0244
0.04392,-0.09516,0.1464,0.12444,0.10248,-0.02928,-0.08296,-0.00976,0.16104,0.17568,0.04392,0.01464
0.04392,-0.10248,0.16104,0.13908,0.11712,-0.0366,-0.09272,-0.00976,0.1708,0.1952,0.05368,0.01952
0.0488,-0.10736,0.16592,0.14152,0.11712,-0.03416,-0.09272,-0.01952,0.1952,0.21472,0.08296,0.05368
0.05368,-0.11224,0.1708,0.14396,0.11712,-0.03172,-0.10248,-0.01464,0.2196,0.25376,0.11224,0.0732
0.05856,-0.13176,0.20496,0.17568,0.1464,-0.04392,-0.11224,-0.01464,0.24888,0.2928,0.16104,0.11224
0.06832,-0.1586,0.24888,0.21472,0.18056,-0.05612,-0.122,-0.01464,0.25864,0.32208,0.19032,0.14152
0.07808,-0.16592,0.25376,0.21472,0.17568,-0.0488,-0.122,-0.01464,0.2684,0.34648,0.20496,0.15128
0.09272,-0.18788,0.28304,0.23668,0.19032,-0.0488,-0.13664,-0.01952,0.2928,0.3904,0.23912,0.18544
0.0976,-0.20008,0.30256,0.25376,0.20496,-0.05368,-0.16592,-0.03904,0.28792,0.40992,0.25376,0.18056
0.10248,-0.21472,0.32696,0.27572,0.22448,-0.061,-0.1708,-0.03904,0.30744,0.44408,0.27328,0.20008
0.11712,-0.22448,0.33184,0.27328,0.21472,-0.0488,-0.18056,-0.03904,0.31232,0.46848,0.29768,0.21472
0.13664,-0.24644,0.35624,0.28792,0.2196,-0.04148,-0.19032,-0.0488,0.32208,0.50264,0.32208,0.244
0.11224,-0.22936,0.34648,0.29036,0.23424,-0.061,-0.20008,-0.04392,0.32696,0.52704,0.35624,0.27328
0.11712,-0.244,0.37088,0.31232,0.25376,-0.06832,-0.20496,-0.04392,0.33184,0.55144,0.37088,0.28304
0.14152,-0.26596,0.3904,0.31964,0.24888,-0.05368,-0.21472,-0.06344,0.3416,0.5612,0.3904,0.2928
0.15616,-0.27328,0.3904,0.31232,0.23424,-0.03904,-0.2196,-0.0732,0.33184,0.58072,0.40504,0.3172
0.1464,-0.26596,0.38552,0.31232,0.23912,-0.04636,-0.22936,-0.07808,0.33184,0.60512,0.42456,0.34648
0.13664,-0.2562,0.37576,0.30744,0.23912,-0.05124,-0.23424,-0.07808,0.33184,0.61,0.44408,0.37088
0.13176,-0.2562,0.38064,0.31476,0.24888,-0.05856,-0.23424,-0.07808,0.31232,0.60024,0.43432,0.35624
0.13176,-0.25864,0.38552,0.31964,0.25376,-0.061,-0.23424,-0.07808,0.30256,0.59536,0.43432,0.34648
0.14152,-0.2562,0.37088,0.30012,0.22936,-0.04392,-0.23912,-0.10248,0.29768,0.57096,0.41968,0.34648
0.13664,-0.24644,0.35624,0.28792,0.2196,-0.04148,-0.22448,-0.10248,0.27328,0.55632,0.4148,0.3416
0.11712,-0.21472,0.31232,0.25376,0.1952,-0.03904,-0.2196,-0.10248,0.244,0.5124,0.40016,0.3172
0.10736,-0.19764,0.28792,0.23424,0.18056,-0.0366,-0.20984,-0.10248,0.21472,0.47336,0.37088,0.30256
0.11224,-0.1952,0.27816,0.22204,0.16592,-0.02684,-0.19032,-0.0976,0.1952,0.43432,0.3416,0.28792
0.07808,-0.15372,0.22936,0.19032,0.15128,-0.0366,-0.17568,-0.10248,0.16592,0.38552,0.30256,0.25864
0.07808,-0.13908,0.20008,0.16104,0.122,-0.02196,-0.16592,-0.10248,0.13176,0.33672,0.244,0.2196
0.05856,-0.10248,0.1464,0.11712,0.08784,-0.01464,-0.1464,-0.08784,0.10248,0.28792,0.20008,0.17568
0.05856,-0.08784,0.11712,0.08784,0.05856,0,-0.11712,-0.08296,0.0732,0.22936,0.16104,0.13664
0.0488,-0.07564,0.10248,0.07808,0.05368,-0.00244,-0.10736,-0.07808,0.04392,0.1952,0.12688,0.10248
0.03904,-0.05124,0.06344,0.04392,0.0244,0.00732,-0.09272,-0.07808,0.0244,0.15128,0.08296,0.07808
0.03904,-0.03904,0.03904,0.01952,0,0.01952,-0.08296,-0.06832,0,0.10736,0.03904,0.03904
0.03416,-0.02684,0.01952,0.00244,-0.01464,0.0244,-0.0732,-0.06832,-0.0244,0.08296,0.0244,0.01952
0.01952,-0.00244,-0.01464,-0.0244,-0.03416,0.02684,-0.06344,-0.0732,-0.03904,0.05368,-0.00976,-0.00976
0.00488,0.00488,-0.01464,-0.01708,-0.01952,0.0122,-0.05368,-0.06344,-0.03904,0.03904,-0.01464,-0.00976
-0.00976,0.0244,-0.03904,-0.03416,-0.02928,0.00976,-0.03904,-0.06344,-0.05856,0.00976,-0.04392,-0.01952
0,0.02196,-0.04392,-0.04392,-0.04392,0.02196,-0.03904,-0.05368,-0.06832,-0.00976,-0.06344,-0.03416
-0.01952,0.05612,-0.09272,-0.08296,-0.0732,0.02684,-0.02928,-0.05856,-0.08784,-0.02928,-0.07808,-0.06832
-0.00488,0.03904,-0.0732,-0.07076,-0.06832,0.03172,-0.02928,-0.05368,-0.08784,-0.03904,-0.0976,-0.08296
-0.01464,0.05368,-0.09272,-0.0854,-0.07808,0.03172,-0.02928,-0.05368,-0.09272,-0.05368,-0.10736,-0.08784
-0.03416,0.06588,-0.0976,-0.08052,-0.06344,0.01464,-0.01464,-0.0488,-0.10736,-0.05856,-0.10736,-0.08296
-0.03416,0.07564,-0.11712,-0.10004,-0.08296,0.0244,-0.01464,-0.05368,-0.10736,-0.05856,-0.0976,-0.0732
-0.02928,0.06832,-0.10736,-0.09272,-0.07808,0.0244,-0.00976,-0.05368,-0.10248,-0.05856,-0.0976,-0.08296
-0.03416,0.08052,-0.12688,-0.1098,-0.09272,0.02928,-0.00976,-0.06344,-0.10736,-0.06832,-0.10248,-0.08784
-0.04392,0.08296,-0.122,-0.10004,-0.07808,0.01708,-0.00488,-0.06832,-0.11224,-0.07808,-0.11712,-0.10248
-0.0488,0.09516,-0.14152,-0.11712,-0.09272,0.02196,-0.00976,-0.0732,-0.11224,-0.0732,-0.12688,-0.10736
-0.04392,0.08296,-0.122,-0.10004,-0.07808,0.01708,-0.00488,-0.06832,-0.11712,-0.05368,-0.122,-0.11712
-0.03904,0.08296,-0.12688,-0.10736,-0.08784,0.0244,-0.00488,-0.06344,-0.11224,-0.06344,-0.11712,-0.122
-0.0488,0.08052,-0.11224,-0.08784,-0.06344,0.00732,-0.00488,-0.06344,-0.10248,-0.05856,-0.11712,-0.0976
-0.0488,0.0854,-0.122,-0.0976,-0.0732,0.0122,-0.00488,-0.06344,-0.09272,-0.05368,-0.11712,-0.0976
-0.05856,0.09272,-0.12688,-0.0976,-0.06832,0.00488,-0.01952,-0.05368,-0.0976,-0.06344,-0.122,-0.09272
-0.05856,0.09516,-0.13176,-0.10248,-0.0732,0.00732,-0.01464,-0.05368,-0.0976,-0.07808,-0.122,-0.09272
-0.0488,0.07564,-0.10248,-0.07808,-0.05368,0.00244,-0.01464,-0.06832,-0.08784,-0.0732,-0.11224,-0.09272
-0.03904,0.07076,-0.10248,-0.08296,-0.06344,0.0122,-0.00488,-0.0732,-0.07808,-0.0732,-0.11712,-0.09272
-0.0488,0.08052,-0.11224,-0.08784,-0.06344,0.00732,-0.00976,-0.0732,-0.08296,-0.06832,-0.10736,-0.08784
-0.06344,0.0854,-0.10736,-0.07564,-0.04392,-0.00976,-0.00976,-0.06832,-0.07808,-0.06832,-0.09272,-0.0732
-0.03416,0.06588,-0.0976,-0.08052,-0.06344,0.01464,-0.01952,-0.05856,-0.06832,-0.05368,-0.10248,-0.08296
-0.00488,0.04636,-0.08784,-0.0854,-0.08296,0.03904,-0.01464,-0.05368,-0.06832,-0.05856,-0.10248,-0.08296
-0.04392,0.07564,-0.10736,-0.0854,-0.06344,0.00976,-0.01952,-0.06832,-0.0732,-0.05368,-0.09272,-0.08296
-0.03904,0.0732,-0.10736,-0.08784,-0.06832,0.01464,-0.01464,-0.05856,-0.05856,-0.0488,-0.09272,-0.07808
-0.03904,0.06832,-0.0976,-0.07808,-0.05856,0.00976,-0.01464,-0.06832,-0.05368,-0.03904,-0.08296,-0.0732
-0.02928,0.0488,-0.06832,-0.05368,-0.03904,0.00488,-0.01464,-0.06832,-0.05368,-0.0244,-0.07808,-0.05856
-0.0244,0.06344,-0.10248,-0.09028,-0.07808,0.02684,-0.01464,-0.05856,-0.06344,-0.03416,-0.09272,-0.0732
-0.02928,0.06588,-0.10248,-0.08784,-0.0732,0.02196,-0.01464,-0.05856,-0.06832,-0.03904,-0.0976,-0.08296
-0.04392,0.07564,-0.10736,-0.0854,-0.06344,0.00976,-0.0244,-0.06344,-0.0732,-0.03416,-0.0976,-0.07808
-0.03904,0.07076,-0.10248,-0.08296,-0.06344,0.0122,-0.02928,-0.06344,-0.06832,-0.03416,-0.10248,-0.0732
-0.0244,0.06832,-0.11224,-0.10004,-0.08784,0.03172,-0.01952,-0.0732,-0.0732,-0.03416,-0.09272,-0.0732
-0.03416,0.0732,-0.11224,-0.09516,-0.07808,0.02196,-0.01464,-0.07808,-0.06344,-0.03416,-0.08784,-0.06832
-0.04392,0.08296,-0.122,-0.10004,-0.07808,0.01708,-0.01464,-0.06832,-0.06832,-0.02928,-0.08296,-0.0732
-0.04392,0.07564,-0.10736,-0.0854,-0.06344,0.00976,-0.01464,-0.05368,-0.06832,-0.03416,-0.08784,-0.07808
-0.03904,0.07076,-0.10248,-0.08296,-0.06344,0.0122,-0.0244,-0.06344,-0.05368,-0.03416,-0.07808,-0.08296
-0.03904,0.07564,-0.11224,-0.09272,-0.0732,0.01708,-0.0244,-0.0732,-0.05856,-0.04392,-0.08296,-0.08296
-0.03904,0.07564,-0.11224,-0.09272,-0.0732,0.01708,-0.0244,-0.07808,-0.06832,-0.04392,-0.09272,-0.08296
-0.05368,0.08784,-0.122,-0.09516,-0.06832,0.00732,-0.0244,-0.07808,-0.0732,-0.0488,-0.0976,-0.07808
-0.03904,0.0854,-0.13176,-0.11224,-0.09272,0.02684,-0.01952,-0.06344,-0.0732,-0.05856,-0.0976,-0.08296
-0.0488,0.0976,-0.1464,-0.122,-0.0976,0.0244,-0.0244,-0.06344,-0.08296,-0.06832,-0.10248,-0.08296
-0.06344,0.10736,-0.15128,-0.11956,-0.08784,0.0122,-0.01952,-0.06344,-0.08296,-0.06344,-0.10736,-0.08296
-0.0732,0.11468,-0.15616,-0.11956,-0.08296,0.00488,-0.01464,-0.05856,-0.09272,-0.06832,-0.10736,-0.08296
-0.04392,0.0976,-0.15128,-0.12932,-0.10736,0.03172,-0.01464,-0.06344,-0.09272,-0.06832,-0.09272,-0.07808
-0.06344,0.11224,-0.16104,-0.12932,-0.0976,0.01708,-0.01464,-0.0732,-0.10248,-0.07808,-0.10248,-0.08296
-0.05368,0.10248,-0.15128,-0.12444,-0.0976,0.02196,-0.01952,-0.06344,-0.09272,-0.06832,-0.09272,-0.06344
-0.06344,0.11224,-0.16104,-0.12932,-0.0976,0.01708,-0.01464,-0.06344,-0.08784,-0.06832,-0.09272,-0.05368
-0.0488,0.0976,-0.1464,-0.122,-0.0976,0.0244,-0.00488,-0.04392,-0.0976,-0.06832,-0.10248,-0.07808
-0.06344,0.11224,-0.16104,-0.12932,-0.0976,0.01708,0,-0.03904,-0.10248,-0.06832,-0.10736,-0.0976
-0.03904,0.10492,-0.1708,-0.15128,-0.13176,0.04636,0,-0.05368,-0.10248,-0.0732,-0.11712,-0.10248
-0.04392,0.1098,-0.17568,-0.15372,-0.13176,0.04392,-0.00488,-0.05368,-0.10736,-0.06832,-0.11712,-0.10248
-0.02928,0.09272,-0.15616,-0.14152,-0.12688,0.0488,0.00488,-0.03904,-0.0976,-0.05856,-0.10736,-0.09272
-0.05368,0.1098,-0.16592,-0.13908,-0.11224,0.02928,0,-0.0488,-0.10736,-0.05856,-0.11712,-0.08784
-0.0488,0.11468,-0.18056,-0.15616,-0.13176,0.04148,0.00488,-0.05856,-0.11712,-0.05856,-0.12688,-0.10248
-0.0488,0.11712,-0.18544,-0.16104,-0.13664,0.04392,0.00488,-0.05856,-0.11712,-0.05856,-0.13176,-0.10736
-0.05368,0.11712,-0.18056,-0.15372,-0.12688,0.0366,0,-0.05856,-0.11712,-0.05368,-0.122,-0.10736
-0.06832,0.12444,-0.18056,-0.1464,-0.11224,0.02196,0,-0.05856,-0.122,-0.05368,-0.122,-0.10736
-0.06832,0.13176,-0.1952,-0.16104,-0.12688,0.02928,0,-0.06344,-0.122,-0.04392,-0.11224,-0.08784
-0.06344,0.13176,-0.20008,-0.16836,-0.13664,0.0366,-0.00488,-0.05856,-0.122,-0.0488,-0.11224,-0.07808
-0.05856,0.12932,-0.20008,-0.1708,-0.14152,0.04148,-0.00488,-0.05856,-0.13176,-0.05856,-0.122,-0.0976
-0.06344,0.13664,-0.20984,-0.17812,-0.1464,0.04148,-0.00488,-0.05856,-0.12688,-0.05856,-0.12688,-0.11224
-0.06832,0.14152,-0.21472,-0.18056,-0.1464,0.03904,-0.00976,-0.05856,-0.12688,-0.06344,-0.14152,-0.13176
-0.0732,0.13908,-0.20496,-0.16836,-0.13176,0.02928,-0.00976,-0.06344,-0.12688,-0.06832,-0.15128,-0.13664
-0.06832,0.14396,-0.2196,-0.18544,-0.15128,0.04148,-0.00488,-0.06832,-0.12688,-0.06832,-0.13664,-0.12688
-0.06344,0.13908,-0.21472,-0.183,-0.15128,0.04392,0,-0.05368,-0.12688,-0.06832,-0.13664,-0.12688
-0.06832,0.14396,-0.2196,-0.18544,-0.15128,0.04148,0,-0.05856,-0.12688,-0.07808,-0.14152,-0.11224
-0.06832,0.14396,-0.2196,-0.18544,-0.15128,0.04148,0,-0.06344,-0.12688,-0.07808,-0.1464,-0.10248
-0.06832,0.13908,-0.20984,-0.17568,-0.14152,0.0366,0.00976,-0.05368,-0.11712,-0.08784,-0.13664,-0.10248
-0.06344,0.13176,-0.20008,-0.16836,-0.13664,0.0366,0.00976,-0.04392,-0.11712,-0.0732,-0.13176,-0.0976
-0.08296,0.15128,-0.2196,-0.17812,-0.13664,0.02684,-0.00488,-0.05368,-0.11712,-0.07808,-0.13664,-0.11712
-0.07808,0.14396,-0.20984,-0.1708,-0.13176,0.02684,-0.01464,-0.06344,-0.122,-0.09272,-0.13664,-0.13176
-0.09272,0.16104,-0.22936,-0.183,-0.13664,0.02196,-0.00488,-0.05368,-0.12688,-0.09272,-0.15128,-0.12688
-0.08296,0.14884,-0.21472,-0.17324,-0.13176,0.0244,0,-0.04392,-0.13176,-0.09272,-0.15128,-0.12688
-0.0976,0.1586,-0.2196,-0.1708,-0.122,0.0122,-0.00488,-0.05856,-0.13176,-0.0976,-0.1464,-0.12688
-0.0732,0.14396,-0.21472,-0.17812,-0.14152,0.03416,-0.00488,-0.06344,-0.12688,-0.11224,-0.1464,-0.13176
-0.08784,0.16104,-0.23424,-0.19032,-0.1464,0.02928,0,-0.05856,-0.12688,-0.10736,-0.15128,-0.122
-0.09272,0.16104,-0.22936,-0.183,-0.13664,0.02196,0,-0.05856,-0.122,-0.10248,-0.1464,-0.12688
-0.0732,0.15372,-0.23424,-0.19764,-0.16104,0.04392,-0.01464,-0.06832,-0.13664,-0.11224,-0.15616,-0.12688
-0.05856,0.1342,-0.20984,-0.18056,-0.15128,0.04636,-0.00976,-0.05856,-0.13176,-0.11224,-0.14152,-0.122
-0.08296,0.15128,-0.2196,-0.17812,-0.13664,0.02684,0,-0.05856,-0.13176,-0.10248,-0.1464,-0.122
-0.10736,0.1708,-0.23424,-0.18056,-0.12688,0.00976,0,-0.06344,-0.13176,-0.10248,-0.15616,-0.12688
-0.11224,0.18056,-0.24888,-0.19276,-0.13664,0.0122,-0.00976,-0.0732,-0.14152,-0.11224,-0.16104,-0.13664
-0.09272,0.16592,-0.23912,-0.19276,-0.1464,0.02684,-0.00976,-0.0732,-0.14152,-0.10736,-0.15616,-0.13664
-0.13176,0.19764,-0.26352,-0.19764,-0.13176,0,-0.01464,-0.0732,-0.15128,-0.10736,-0.16104,-0.12688
-0.11712,0.18544,-0.25376,-0.1952,-0.13664,0.00976,-0.01952,-0.07808,-0.1464,-0.10736,-0.15616,-0.13664
-0.11712,0.18544,-0.25376,-0.1952,-0.13664,0.00976,-0.01952,-0.07808,-0.1464,-0.10736,-0.15616,-0.13664
-0.11224,0.18056,-0.24888,-0.19276,-0.13664,0.0122,-0.01952,-0.06832,-0.1464,-0.10736,-0.15616,-0.1464
-0.10248,0.1708,-0.23912,-0.18788,-0.13664,0.01708,-0.01952,-0.06832,-0.1464,-0.10736,-0.15616,-0.1464
-0.10736,0.1708,-0.23424,-0.18056,-0.12688,0.00976,-0.01952,-0.06832,-0.1464,-0.11712,-0.16592,-0.13664
-0.10736,0.1708,-0.23424,-0.18056,-0.12688,0.00976,-0.01952,-0.06832,-0.1464,-0.11712,-0.16592,-0.13664
-0.11712,0.18056,-0.244,-0.18544,-0.12688,0.00488,-0.00976,-0.06832,-0.1464,-0.10736,-0.16592,-0.13664
-0.11712,0.18056,-0.244,-0.18544,-0.12688,0.00488,-0.00976,-0.06832,-0.1464,-0.10736,-0.16592,-0.13664
-0.11224,0.17324,-0.23424,-0.17812,-0.122,0.00488,-0.01952,-0.06832,-0.13664,-0.10736,-0.15616,-0.12688
-0.10248,0.16836,-0.23424,-0.183,-0.13176,0.01464,-0.01952,-0.06832,-0.13664,-0.10736,-0.15616,-0.12688
-0.0976,0.16104,-0.22448,-0.17568,-0.12688,0.01464,-0.02928,-0.06832,-0.13664,-0.11712,-0.15616,-0.13176
-0.0976,0.16104,-0.22448,-0.17568,-0.12688,0.01464,-0.02928,-0.06832,-0.13664,-0.11712,-0.15616,-0.14152
-0.10736,0.16836,-0.22936,-0.17568,-0.122,0.00732,-0.01952,-0.05856,-0.13664,-0.12688,-0.16592,-0.13664
-0.10736,0.17324,-0.23912,-0.18544,-0.13176,0.0122,-0.01952,-0.05856,-0.13664,-0.12688,-0.16592,-0.13664
-0.10736,0.1708,-0.23424,-0.18056,-0.12688,0.00976,-0.01952,-0.06344,-0.1464,-0.12688,-0.15616,-0.13664
-0.10736,0.1708,-0.23424,-0.18056,-0.12688,0.00976,-0.01952,-0.0732,-0.1464,-0.12688,-0.15616,-0.13664
-0.10736,0.16592,-0.22448,-0.1708,-0.11712,0.00488,-0.01952,-0.07808,-0.1464,-0.13664,-0.16104,-0.13664
-0.10736,0.16592,-0.22448,-0.1708,-0.11712,0.00488,-0.01952,-0.07808,-0.1464,-0.13664,-0.1708,-0.13664
-0.10736,0.16836,-0.22936,-0.17568,-0.122,0.00732,-0.01952,-0.07808,-0.15616,-0.13664,-0.16592,-0.14152
-0.10736,0.17324,-0.23912,-0.18544,-0.13176,0.0122,-0.01952,-0.07808,-0.15616,-0.13664,-0.16592,-0.15128
-0.11712,0.18056,-0.244,-0.18544,-0.12688,0.00488,-0.01952,-0.06832,-0.15616,-0.13664,-0.17568,-0.1464
-0.11712,0.18056,-0.244,-0.18544,-0.12688,0.00488,-0.01952,-0.06832,-0.15616,-0.13664,-0.17568,-0.1464
-0.10736,0.17568,-0.244,-0.19032,-0.13664,0.01464,-0.01952,-0.06832,-0.15616,-0.1464,-0.17568,-0.15616
-0.10736,0.17568,-0.244,-0.19032,-0.13664,0.01464,-0.01952,-0.06832,-0.15616,-0.1464,-0.17568,-0.15616
-0.11712,0.18056,-0.244,-0.18544,-0.12688,0.00488,-0.02928,-0.07808,-0.15616,-0.1464,-0.17568,-0.1464
-0.11712,0.18056,-0.244,-0.18544,-0.12688,0.00488,-0.02928,-0.07808,-0.15616,-0.1464,-0.17568,-0.1464
-0.11712,0.18056,-0.244,-0.18544,-0.12688,0.00488,-0.01952,-0.06832,-0.1464,-0.1464,-0.1708,-0.1464
-0.11712,0.18056,-0.244,-0.18544,-0.12688,0.00488,-0.01952,-0.06832,-0.1464,-0.1464,-0.16104,-0.1464
-0.11712,0.17568,-0.23424,-0.17568,-0.11712,0,-0.00976,-0.06832,-0.1464,-0.13664,-0.16592,-0.13664
-0.11712,0.17568,-0.23424,-0.17568,-0.11712,0,-0.00976,-0.06832,-0.1464,-0.13664,-0.16592,-0.13664
-0.11712,0.18056,-0.244,-0.18544,-0.12688,0.00488,-0.01952,-0.07808,-0.15616,-0.1464,-0.16592,-0.13664
-0.11712,0.18056,-0.244,-0.18544,-0.12688,0.00488,-0.01952,-0.07808,-0.15616,-0.1464,-0.16592,-0.13664
-0.12688,0.18056,-0.23424,-0.1708,-0.10736,-0.00976,-0.01952,-0.06832,-0.15128,-0.13664,-0.16592,-0.13664
-0.12688,0.18056,-0.23424,-0.1708,-0.10736,-0.00976,-0.01952,-0.06832,-0.14152,-0.13664,-0.16592,-0.13664
-0.12688,0.18544,-0.244,-0.18056,-0.11712,-0.00488,-0.01952,-0.07808,-0.1464,-0.1464,-0.17568,-0.1464
-0.12688,0.18544,-0.244,-0.18056,-0.11712,-0.00488,-0.01952,-0.07808,-0.1464,-0.1464,-0.17568,-0.1464
-0.12688,0.19032,-0.25376,-0.19032,-0.12688,0,-0.01952,-0.07808,-0.15616,-0.15616,-0.18544,-0.1464
-0.12688,0.19032,-0.25376,-0.19032,-0.12688,0,-0.01952,-0.07808,-0.15616,-0.15616,-0.18544,-0.1464
-0.122,0.183,-0.244,-0.183,-0.122,0,-0.00976,-0.0732,-0.1464,-0.1464,-0.17568,-0.1464
-0.11224,0.17812,-0.244,-0.18788,-0.13176,0.00976,-0.00976,-0.06344,-0.1464,-0.1464,-0.17568,-0.1464
-0.11224,0.183,-0.25376,-0.19764,-0.14152,0.01464,-0.00976,-0.05856,-0.15616,-0.1464,-0.16592,-0.1464
-0.122,0.18788,-0.25376,-0.19276,-0.13176,0.00488,-0.00976,-0.05856,-0.15616,-0.1464,-0.16592,-0.1464
-0.12688,0.18544,-0.244,-0.18056,-0.11712,-0.00488,-0.00976,-0.05856,-0.1464,-0.1464,-0.16592,-0.13664
-0.12688,0.18544,-0.244,-0.18056,-0.11712,-0.00488,-0.00976,-0.05856,-0.1464,-0.1464,-0.16592,-0.13664
-0.12688,0.19032,-0.25376,-0.19032,-0.12688,0,-0.01952,-0.06832,-0.15616,-0.15616,-0.16592,-0.14152
-0.12688,0.19032,-0.25376,-0.19032,-0.12688,0,-0.01952,-0.06832,-0.15616,-0.15616,-0.16592,-0.15128
-0.13664,0.1952,-0.25376,-0.18544,-0.11712,-0.00976,-0.01952,-0.06832,-0.15616,-0.1464,-0.17568,-0.1464
-0.13664,0.1952,-0.25376,-0.18544,-0.11712,-0.00976,-0.01952,-0.06832,-0.15616,-0.1464,-0.17568,-0.1464
-0.13664,0.20008,-0.26352,-0.1952,-0.12688,-0.00488,-0.01952,-0.06832,-0.15616,-0.1464,-0.17568,-0.15128
-0.13664,0.20008,-0.26352,-0.1952,-0.12688,-0.00488,-0.01952,-0.06832,-0.15616,-0.1464,-0.17568,-0.16104
-0.13176,0.19276,-0.25376,-0.18788,-0.122,-0.00488,-0.01952,-0.06832,-0.1464,-0.15616,-0.17568,-0.16104
-0.122,0.18788,-0.25376,-0.19276,-0.13176,0.00488,-0.01952,-0.06832,-0.1464,-0.15616,-0.17568,-0.15128
-0.122,0.18788,-0.25376,-0.19276,-0.13176,0.00488,-0.00976,-0.05856,-0.1464,-0.15616,-0.16592,-0.15616
-0.13176,0.19276,-0.25376,-0.18788,-0.122,-0.00488,-0.00976,-0.05856,-0.1464,-0.15616,-0.16592,-0.15616
-0.12688,0.1952,-0.26352,-0.20008,-0.13664,0.00488,-0.01952,-0.05856,-0.15616,-0.15616,-0.17568,-0.1464
-0.12688,0.1952,-0.26352,-0.20008,-0.13664,0.00488,-0.01952,-0.05856,-0.15616,-0.15616,-0.17568,-0.1464
-0.12688,0.19276,-0.25864,-0.1952,-0.13176,0.00244,-0.00976,-0.0488,-0.1464,-0.15616,-0.17568,-0.1464
-0.12688,0.18788,-0.24888,-0.18544,-0.122,-0.00244,-0.00976,-0.0488,-0.1464,-0.15616,-0.17568,-0.1464
-0.12688,0.18544,-0.244,-0.18056,-0.11712,-0.00488,-0.00976,-0.0488,-0.1464,-0.16592,-0.18544,-0.1464
-0.12688,0.18544,-0.244,-0.18056,-0.11712,-0.00488,-0.00976,-0.0488,-0.1464,-0.16592,-0.18544,-0.1464
-0.12688,0.18544,-0.244,-0.18056,-0.11712,-0.00488,-0.00976,-0.0488,-0.13664,-0.15616,-0.1708,-0.1464
-0.12688,0.18544,-0.244,-0.18056,-0.11712,-0.00488,-0.00976,-0.0488,-0.13664,-0.15616,-0.16104,-0.1464
-0.13176,0.19276,-0.25376,-0.18788,-0.122,-0.00488,0,-0.05856,-0.1464,-0.16104,-0.16592,-0.1464
-0.14152,0.19276,-0.244,-0.17324,-0.10248,-0.01952,0,-0.05856,-0.1464,-0.1708,-0.16592,-0.14152
-0.13664,0.19764,-0.25864,-0.19032,-0.122,-0.00732,-0.00488,-0.06344,-0.13664,-0.17568,-0.1708,-0.14152
-0.13176,0.19276,-0.25376,-0.18788,-0.122,-0.00488,-0.00488,-0.0488,-0.14152,-0.1708,-0.16592,-0.14152
-0.12688,0.18788,-0.24888,-0.18544,-0.122,-0.00244,0,-0.04392,-0.15128,-0.18544,-0.1708,-0.14152
-0.13176,0.18544,-0.23912,-0.17324,-0.10736,-0.0122,0,-0.03904,-0.15128,-0.18544,-0.1708,-0.14152
-0.11712,0.17812,-0.23912,-0.18056,-0.122,0.00244,0,-0.04392,-0.14152,-0.18544,-0.18056,-0.15128
-0.11224,0.1708,-0.22936,-0.17324,-0.11712,0.00244,0,-0.05368,-0.13176,-0.18056,-0.17568,-0.15128
-0.122,0.17324,-0.22448,-0.16348,-0.10248,-0.00976,-0.00976,-0.05368,-0.14152,-0.19032,-0.15616,-0.15128
-0.10736,0.1586,-0.20984,-0.15616,-0.10248,-0.00244,-0.00976,-0.05368,-0.13176,-0.18056,-0.15128,-0.1464
-0.11224,0.15128,-0.19032,-0.1342,-0.07808,-0.01708,0.01464,-0.04392,-0.12688,-0.16104,-0.15128,-0.14152
-0.122,0.15616,-0.19032,-0.12932,-0.06832,-0.02684,0.01464,-0.04392,-0.11712,-0.16104,-0.15128,-0.15128
-0.11712,0.14396,-0.1708,-0.11224,-0.05368,-0.03172,0.01464,-0.03416,-0.10736,-0.16104,-0.13664,-0.13176
-0.10736,0.13176,-0.15616,-0.10248,-0.0488,-0.02928,-0.00488,-0.04392,-0.0976,-0.15128,-0.12688,-0.122
-0.10736,0.122,-0.13664,-0.08296,-0.02928,-0.03904,-0.01952,-0.06344,-0.0976,-0.14152,-0.13176,-0.11224
-0.10736,0.13176,-0.15616,-0.10248,-0.0488,-0.02928,-0.03904,-0.06832,-0.10248,-0.1464,-0.13176,-0.11224
-0.10248,0.12688,-0.15128,-0.10004,-0.0488,-0.02684,-0.03904,-0.07808,-0.0976,-0.1464,-0.11712,-0.09272
-0.0976,0.12688,-0.15616,-0.10736,-0.05856,-0.01952,-0.04392,-0.08296,-0.10736,-0.1464,-0.122,-0.0976
-0.09272,0.12932,-0.16592,-0.11956,-0.0732,-0.00976,-0.06344,-0.07808,-0.11712,-0.1464,-0.13176,-0.10736
-0.07808,0.11956,-0.16104,-0.122,-0.08296,0.00244,-0.06344,-0.0732,-0.122,-0.15616,-0.14152,-0.11224
-0.06832,0.11712,-0.16592,-0.13176,-0.0976,0.01464,-0.03904,-0.06344,-0.13176,-0.1708,-0.13176,-0.11712
-0.07808,0.12444,-0.1708,-0.13176,-0.09272,0.00732,-0.0244,-0.06344,-0.12688,-0.16592,-0.13176,-0.122
-0.08296,0.12688,-0.1708,-0.12932,-0.08784,0.00244,-0.02928,-0.05368,-0.12688,-0.15616,-0.13664,-0.10736
-0.07808,0.12444,-0.1708,-0.13176,-0.09272,0.00732,-0.02928,-0.0488,-0.12688,-0.15128,-0.13176,-0.10248
-0.09272,0.1342,-0.17568,-0.12932,-0.08296,-0.00488,-0.02928,-0.0488,-0.14152,-0.15128,-0.14152,-0.11224
-0.08296,0.13908,-0.1952,-0.15372,-0.11224,0.01464,-0.0244,-0.0488,-0.15128,-0.16104,-0.14152,-0.11224
-0.08296,0.14152,-0.20008,-0.1586,-0.11712,0.01708,-0.01952,-0.04392,-0.1464,-0.15616,-0.1464,-0.11712
-0.10248,0.16104,-0.2196,-0.16836,-0.11712,0.00732,-0.00976,-0.04392,-0.1464,-0.15616,-0.1464,-0.12688
-0.11712,0.17324,-0.22936,-0.1708,-0.11224,-0.00244,0,-0.03904,-0.15616,-0.1708,-0.16592,-0.12688
-0.10736,0.17324,-0.23912,-0.18544,-0.13176,0.0122,0.00488,-0.03416,-0.16592,-0.19032,-0.17568,-0.14152
-0.11712,0.17568,-0.23424,-0.17568,-0.11712,0,0.00976,-0.03416,-0.15616,-0.18056,-0.17568,-0.14152
-0.11224,0.17812,-0.244,-0.18788,-0.13176,0.00976,0.00976,-0.03416,-0.16592,-0.19032,-0.18544,-0.1464
-0.11224,0.18056,-0.24888,-0.19276,-0.13664,0.0122,0.01464,-0.03416,-0.16592,-0.19032,-0.17568,-0.1464
-0.10736,0.17568,-0.244,-0.19032,-0.13664,0.01464,0.0244,-0.02928,-0.16104,-0.18544,-0.1708,-0.1464
-0.09272,0.16592,-0.23912,-0.19276,-0.1464,0.02684,0.01952,-0.01952,-0.15616,-0.17568,-0.16104,-0.14152
-0.09272,0.16836,-0.244,-0.19764,-0.15128,0.02928,0.01952,-0.01464,-0.16104,-0.17568,-0.16104,-0.14152
-0.09272,0.1708,-0.24888,-0.20252,-0.15616,0.03172,0.02928,-0.0244,-0.16104,-0.18056,-0.16592,-0.14152
-0.09272,0.16592,-0.23912,-0.19276,-0.1464,0.02684,0.02928,-0.02928,-0.15128,-0.18056,-0.1708,-0.14152
-0.10248,0.16592,-0.22936,-0.17812,-0.12688,0.0122,0.03904,-0.00976,-0.1464,-0.1708,-0.1708,-0.1464
-0.10248,0.16348,-0.22448,-0.17324,-0.122,0.00976,0.03416,-0.01464,-0.1464,-0.16592,-0.16104,-0.1464
-0.10736,0.16348,-0.2196,-0.16592,-0.11224,0.00244,0.03416,-0.01464,-0.14152,-0.16104,-0.15616,-0.13664
-0.07808,0.14152,-0.20496,-0.16592,-0.12688,0.0244,0.03416,-0.00488,-0.11224,-0.15128,-0.15128,-0.14152
-0.122,0.1586,-0.1952,-0.1342,-0.0732,-0.0244,0.05368,0.03416,-0.0732,-0.15616,-0.1708,-0.17568
-0.1464,0.16104,-0.17568,-0.10248,-0.02928,-0.05856,0.10736,0.09272,0.02928,-0.15616,-0.25864,-0.28792
-0.23912,0.2196,-0.20008,-0.08052,0.03904,-0.13908,0.19032,0.19032,0.11224,-0.23424,-0.3904,-0.4636
-0.20496,0.18056,-0.15616,-0.05368,0.0488,-0.12688,0.2196,0.2928,0.2196,-0.22936,-0.44408,-0.52216
-0.14152,0.07564,-0.00976,0.061,0.13176,-0.13664,0.14152,0.28792,0.34648,-0.0732,-0.27328,-0.34648
0.02928,-0.14396,0.25864,0.244,0.22936,-0.10004,0.00488,0.20984,0.52216,0.24888,0.06832,0
0.19032,-0.35624,0.52216,0.427,0.33184,-0.07076,-0.1952,0.02928,0.5368,0.59536,0.55632,0.53192
0.3904,-0.60512,0.81984,0.62464,0.42944,-0.01952,-0.4148,-0.1708,0.4392,0.96136,1.14192,1.18584
0.49288,-0.85156,1.21024,0.9638,0.71736,-0.11224,-0.68808,-0.44896,0.42944,1.40544,1.81536,1.91296
0.59536,-1.01992,1.44448,1.1468,0.84912,-0.12688,-0.85888,-0.61976,0.40016,1.86904,2.43024,2.49856
0.5368,-0.98088,1.42496,1.15656,0.88816,-0.17568,-0.85888,-0.6832,0.26352,1.94712,2.48392,2.53272
0.40016,-0.74176,1.08336,0.88328,0.6832,-0.14152,-0.72712,-0.59048,0.00976,1.464,1.84464,1.9276
0.20008,-0.38552,0.57096,0.47092,0.37088,-0.0854,-0.49288,-0.39528,-0.20984,0.7564,0.9272,1.0004
0.01464,-0.0854,0.15616,0.14884,0.14152,-0.06344,-0.23912,-0.21472,-0.43432,-0.08784,0.10736,0.22448
-0.0244,0,0.0244,0.0366,0.0488,-0.0366,-0.18544,-0.17568,-0.39528,-0.18056,-0.02928,0.03904
0.00488,-0.00244,0,-0.00244,-0.00488,0.00488,-0.16104,-0.16104,-0.29768,-0.10736,0.01952,0.07808
-0.0244,0.00732,0.00976,0.02196,0.03416,-0.02928,-0.10248,-0.11224,-0.17568,-0.0488,0.03416,0.05368
-0.0244,0.0122,0,0.0122,0.0244,-0.0244,-0.0732,-0.06832,-0.10736,-0.04392,0.00488,0.03416
-0.05368,0.0488,-0.04392,-0.01708,0.00976,-0.03172,-0.05856,-0.06344,-0.11224,-0.07808,-0.03416,-0.00976
-0.03904,0.03904,-0.03904,-0.01952,0,-0.01952,-0.03416,-0.04392,-0.10248,-0.11224,-0.06344,-0.05368
-0.04392,0.05368,-0.06344,-0.04148,-0.01952,-0.0122,-0.01464,-0.00488,-0.0732,-0.122,-0.07808,-0.06832
-0.05856,0.06832,-0.07808,-0.0488,-0.01952,-0.01952,0.00488,-0.01464,-0.06832,-0.12688,-0.08296,-0.07808
-0.05856,0.0732,-0.08784,-0.05856,-0.02928,-0.01464,0.00488,-0.0244,-0.06832,-0.1464,-0.11712,-0.10248
-0.0732,0.08052,-0.08784,-0.05124,-0.01464,-0.02928,0.00488,-0.01952,-0.07808,-0.17568,-0.13664,-0.12688
-0.06832,0.07564,-0.08296,-0.0488,-0.01464,-0.02684,0.00976,-0.01464,-0.07808,-0.2196,-0.1464,-0.14152
-0.0732,0.07564,-0.07808,-0.04148,-0.00488,-0.03416,0.01952,0.00488,-0.06344,-0.23912,-0.12688,-0.12688
-0.06344,0.0732,-0.08296,-0.05124,-0.01952,-0.02196,0.02928,0.00976,-0.05368,-0.25864,-0.12688,-0.10736
-0.05856,0.06832,-0.07808,-0.0488,-0.01952,-0.01952,0.02928,-0.00488,-0.06344,-0.25864,-0.13664,-0.10736
-0.05368,0.06344,-0.0732,-0.04636,-0.01952,-0.01708,0.02928,-0.00488,-0.05856,-0.26352,-0.13664,-0.11224
-0.03904,0.05856,-0.07808,-0.05856,-0.03904,0,0.04392,0.01952,-0.04392,-0.2684,-0.122,-0.10248
-0.03416,0.05124,-0.06832,-0.05124,-0.03416,0,0.0488,0.02928,-0.03904,-0.25376,-0.11712,-0.0976
-0.02928,0.05124,-0.0732,-0.05856,-0.04392,0.00732,0.05368,0.02928,-0.03904,-0.24888,-0.12688,-0.11224
-0.01464,0.03904,-0.06344,-0.05612,-0.0488,0.01708,0.05856,0.02928,-0.03904,-0.23424,-0.122,-0.11712
-0.01952,0.04148,-0.06344,-0.05368,-0.04392,0.0122,0.06344,0.02928,-0.0244,-0.20496,-0.11224,-0.10736
-0.02928,0.0488,-0.06832,-0.05368,-0.03904,0.00488,0.0732,0.02928,-0.00976,-0.18056,-0.11224,-0.09272
-0.00976,0.03904,-0.06832,-0.06344,-0.05856,0.0244,0.0732,0.0244,-0.00976,-0.16592,-0.11712,-0.0976
-0.00976,0.0366,-0.06344,-0.05856,-0.05368,0.02196,0.0732,0.01952,-0.00976,-0.15128,-0.11712,-0.09272
-0.01952,0.04148,-0.06344,-0.05368,-0.04392,0.0122,0.08296,0.03416,0,-0.13664,-0.10736,-0.07808
-0.01464,0.0366,-0.05856,-0.05124,-0.04392,0.01464,0.08296,0.04392,0.00976,-0.122,-0.10248,-0.07808
-0.00488,0.02684,-0.0488,-0.04636,-0.04392,0.01952,0.07808,0.04392,0.00488,-0.11224,-0.0976,-0.08784
-0.00488,0.01952,-0.03416,-0.03172,-0.02928,0.0122,0.07808,0.04392,0.00488,-0.11224,-0.09272,-0.08296
0,0.01952,-0.03904,-0.03904,-0.03904,0.01952,0.0732,0.04392,0.00488,-0.12688,-0.09272,-0.08296
0,0.01464,-0.02928,-0.02928,-0.02928,0.01464,0.06832,0.04392,0.00488,-0.12688,-0.09272,-0.06832
0.00488,0.00976,-0.0244,-0.02684,-0.02928,0.01708,0.06832,0.03904,0.01464,-0.11712,-0.08784,-0.06832
0.00976,0.00244,-0.01464,-0.01952,-0.0244,0.01708,0.05856,0.02928,0.01464,-0.12688,-0.08296,-0.06832
0.0244,-0.00976,-0.00488,-0.01708,-0.02928,0.02684,0.06344,0.03904,0.01464,-0.1464,-0.09272,-0.08296
0.0244,-0.0122,0,-0.0122,-0.0244,0.0244,0.05856,0.03904,0.01952,-0.16592,-0.09272,-0.08784
0.03416,-0.02196,0.00976,-0.00732,-0.0244,0.02928,0.06344,0.0488,0.02928,-0.1708,-0.0732,-0.0732
0.03416,-0.02684,0.01952,0.00244,-0.01464,0.0244,0.06344,0.0488,0.03416,-0.18056,-0.0732,-0.07808
0.04392,-0.02928,0.01464,-0.00732,-0.02928,0.0366,0.06344,0.04392,0.0244,-0.18544,-0.08784,-0.08296
0.01464,-0.0122,0.00976,0.00244,-0.00488,0.00976,0.06344,0.0488,0.02928,-0.18056,-0.09272,-0.07808
0.0244,-0.01708,0.00976,-0.00244,-0.01464,0.01952,0.06344,0.03904,0.0488,-0.19032,-0.09272,-0.08784
0.0244,-0.01708,0.00976,-0.00244,-0.01464,0.01952,0.06344,0.03904,0.0488,-0.18544,-0.08296,-0.07808
0.03416,-0.03904,0.04392,0.02684,0.00976,0.0122,0.05856,0.04392,0.05856,-0.1708,-0.06344,-0.05856
0.02928,-0.0244,0.01952,0.00488,-0.00976,0.01952,0.0488,0.04392,0.05856,-0.15616,-0.06344,-0.05856
0.02928,-0.03416,0.03904,0.0244,0.00976,0.00976,0.04392,0.0488,0.06832,-0.1464,-0.04392,-0.05368
0.03416,-0.04148,0.0488,0.03172,0.01464,0.00976,0.03416,0.04392,0.06832,-0.13176,-0.04392,-0.06344
0.04392,-0.05368,0.06344,0.04148,0.01952,0.0122,0.03904,0.0488,0.08296,-0.11712,-0.03904,-0.0488
0.05368,-0.06344,0.0732,0.04636,0.01952,0.01708,0.03416,0.0488,0.08784,-0.0976,-0.03416,-0.04392
0.03904,-0.05612,0.0732,0.05368,0.03416,0.00244,0.03416,0.06344,0.10736,-0.09272,-0.02928,-0.04392
0.04392,-0.061,0.07808,0.05612,0.03416,0.00488,0.0244,0.05368,0.10736,-0.07808,-0.0244,-0.04392
0.06344,-0.07564,0.08784,0.05612,0.0244,0.01952,0.03416,0.0488,0.11224,-0.06344,-0.02928,-0.03904
0.06344,-0.07808,0.09272,0.061,0.02928,0.01708,0.0244,0.0488,0.11224,-0.04392,-0.0244,-0.03416
0.05368,-0.0854,0.11712,0.09028,0.06344,-0.00488,0.03416,0.0488,0.13664,-0.0244,0,-0.01464
0.05368,-0.09028,0.12688,0.10004,0.0732,-0.00976,0.0244,0.05368,0.14152,-0.00488,0.01464,-0.00976
0.05368,-0.09272,0.13176,0.10492,0.07808,-0.0122,0.01464,0.03904,0.13664,0,0.01464,-0.00976
0.06832,-0.10004,0.13176,0.0976,0.06344,0.00244,0.00488,0.03904,0.15128,0.00976,0.01952,-0.00976
0.06832,-0.1098,0.15128,0.11712,0.08296,-0.00732,0.01464,0.0488,0.1708,0.0244,0.03904,0.01464
0.06344,-0.11468,0.16592,0.1342,0.10248,-0.01952,0.00488,0.0488,0.18056,0.03904,0.05368,0.02928
0.07808,-0.13176,0.18544,0.1464,0.10736,-0.01464,-0.00488,0.04392,0.19032,0.05368,0.06344,0.03904
0.07808,-0.13664,0.1952,0.15616,0.11712,-0.01952,-0.00976,0.0488,0.20984,0.07808,0.08296,0.05368
0.09272,-0.15372,0.21472,0.16836,0.122,-0.01464,-0.0244,0.0488,0.22936,0.0976,0.09272,0.06344
0.09272,-0.16104,0.22936,0.183,0.13664,-0.02196,-0.03416,0.0488,0.23912,0.12688,0.11224,0.08784
0.0976,-0.1708,0.244,0.1952,0.1464,-0.0244,-0.03416,0.0488,0.244,0.1464,0.14152,0.10248
0.10248,-0.18056,0.25864,0.2074,0.15616,-0.02684,-0.04392,0.05368,0.2684,0.18544,0.1708,0.122
0.11712,-0.20496,0.2928,0.23424,0.17568,-0.02928,-0.06344,0.04392,0.29768,0.21472,0.19032,0.13176
0.12688,-0.2318,0.33672,0.27328,0.20984,-0.04148,-0.0732,0.04392,0.30744,0.23424,0.20984,0.14152
0.13664,-0.24888,0.36112,0.2928,0.22448,-0.04392,-0.0732,0.05368,0.32696,0.2684,0.244,0.1708
0.16104,-0.27572,0.3904,0.30988,0.22936,-0.03416,-0.08784,0.0488,0.35136,0.31232,0.27816,0.20496
0.16592,-0.28792,0.40992,0.32696,0.244,-0.03904,-0.10736,0.03904,0.35624,0.33184,0.2928,0.2196
0.1708,-0.30744,0.44408,0.35868,0.27328,-0.05124,-0.11224,0.03904,0.37576,0.366,0.31232,0.24888
0.1952,-0.32208,0.44896,0.35136,0.25376,-0.02928,-0.11224,0.03904,0.37088,0.38064,0.34648,0.26352
0.21472,-0.34404,0.47336,0.366,0.25864,-0.02196,-0.122,0.02928,0.38064,0.4148,0.37088,0.2928
0.19032,-0.33184,0.47336,0.3782,0.28304,-0.04636,-0.13176,0.03416,0.39528,0.42944,0.40504,0.32208
0.1952,-0.35136,0.50752,0.40992,0.31232,-0.05856,-0.13664,0.03416,0.40016,0.44408,0.41968,0.33184
0.2196,-0.37332,0.52704,0.41724,0.30744,-0.04392,-0.1464,0.0244,0.40992,0.44408,0.4392,0.3416
0.23424,-0.38552,0.5368,0.41968,0.30256,-0.03416,-0.15128,0.01464,0.40992,0.45384,0.4636,0.366
0.23424,-0.38308,0.53192,0.4148,0.29768,-0.03172,-0.16104,0.00976,0.40992,0.46848,0.47336,0.37576
0.23424,-0.3782,0.52216,0.40504,0.28792,-0.02684,-0.16592,0.00976,0.40992,0.47336,0.48312,0.3904
0.22936,-0.37332,0.51728,0.4026,0.28792,-0.02928,-0.15616,0.00976,0.3904,0.47336,0.48312,0.39528
0.22936,-0.37576,0.52216,0.40748,0.2928,-0.03172,-0.15616,0.00976,0.38064,0.46848,0.49288,0.40504
0.23912,-0.37332,0.50752,0.38796,0.2684,-0.01464,-0.1708,-0.01464,0.366,0.43432,0.46848,0.39528
0.23424,-0.36356,0.49288,0.37576,0.25864,-0.0122,-0.15616,-0.01464,0.3416,0.41968,0.45384,0.38064
0.21472,-0.33184,0.44896,0.3416,0.23424,-0.00976,-0.14152,-0.00488,0.31232,0.38552,0.4392,0.366
0.20496,-0.31476,0.42456,0.32208,0.2196,-0.00732,-0.13176,-0.00488,0.28304,0.34648,0.40992,0.36112
0.20984,-0.31232,0.4148,0.30988,0.20496,0.00244,-0.122,-0.00976,0.26352,0.29768,0.36112,0.3172
0.17568,-0.27084,0.366,0.27816,0.19032,-0.00732,-0.10736,-0.01464,0.23424,0.23912,0.32208,0.2684
0.18544,-0.26596,0.34648,0.25376,0.16104,0.0122,-0.08784,-0.00488,0.20008,0.19032,0.27328,0.24888
0.16592,-0.22936,0.2928,0.20984,0.12688,0.01952,-0.06832,0.00976,0.1708,0.14152,0.22936,0.21472
0.15616,-0.20008,0.244,0.16592,0.08784,0.03416,-0.03904,0.00488,0.14152,0.08296,0.19032,0.17568
0.13664,-0.17812,0.2196,0.15128,0.08296,0.02684,-0.02928,0.00976,0.11224,0.0488,0.15616,0.14152
0.12688,-0.15372,0.18056,0.11712,0.05368,0.0366,-0.01464,0,0.08296,0.01464,0.122,0.11712
0.12688,-0.1464,0.16592,0.10248,0.03904,0.04392,-0.00488,0.00976,0.05856,-0.02928,0.07808,0.07808
0.122,-0.13908,0.15616,0.09516,0.03416,0.04392,0.01464,0.01952,0.05368,-0.04392,0.0732,0.06832
0.10736,-0.11468,0.122,0.06832,0.01464,0.04636,0.0244,0.01464,0.0488,-0.0732,0.0488,0.0488
0.11224,-0.11712,0.122,0.06588,0.00976,0.05124,0.03416,0.0244,0.02928,-0.08784,0.0244,0.02928
0.0976,-0.0976,0.0976,0.0488,0,0.0488,0.0488,0.0244,0.00976,-0.11712,-0.00488,0.00976
0.11712,-0.09516,0.0732,0.01464,-0.04392,0.08052,0.03904,0.03416,0,-0.13664,-0.01464,-0.00488
0.0976,-0.061,0.0244,-0.0244,-0.0732,0.0854,0.0488,0.02928,-0.01952,-0.15616,-0.02928,-0.02928
0.09272,-0.06832,0.04392,-0.00244,-0.0488,0.07076,0.05856,0.0244,-0.01952,-0.15616,-0.03904,-0.0244
0.08296,-0.05856,0.03416,-0.00732,-0.0488,0.06588,0.05856,0.0244,-0.0244,-0.1708,-0.0488,-0.02928
0.08296,-0.06588,0.0488,0.00732,-0.03416,0.05856,0.06344,0.02928,-0.02928,-0.18544,-0.0488,-0.0244
0.08296,-0.061,0.03904,-0.00244,-0.04392,0.06344,0.06344,0.0244,-0.02928,-0.1952,-0.0488,-0.0244
0.08784,-0.06832,0.0488,0.00488,-0.03904,0.06344,0.05856,0.0244,-0.03416,-0.18544,-0.05856,-0.04392
0.08296,-0.05612,0.02928,-0.0122,-0.05368,0.06832,0.05856,0.01464,-0.03904,-0.1952,-0.06344,-0.05856
0.0732,-0.05856,0.04392,0.00732,-0.02928,0.05124,0.0732,0.02928,-0.0244,-0.20496,-0.05856,-0.05368
0.06832,-0.04636,0.0244,-0.00976,-0.04392,0.05612,0.06832,0.0244,-0.0244,-0.20008,-0.05856,-0.05856
0.08296,-0.06344,0.04392,0.00244,-0.03904,0.061,0.06344,0.02928,-0.02928,-0.18056,-0.0732,-0.05856
0.08784,-0.06344,0.03904,-0.00488,-0.0488,0.06832,0.06344,0.03416,-0.0244,-0.18056,-0.06832,-0.05368
0.06832,-0.05612,0.04392,0.00976,-0.0244,0.04636,0.0732,0.03416,-0.0244,-0.18544,-0.05856,-0.03904
0.06832,-0.05124,0.03416,0,-0.03416,0.05124,0.0732,0.03416,-0.0244,-0.19032,-0.05856,-0.03904
0.06832,-0.05368,0.03904,0.00488,-0.02928,0.0488,0.05856,0.0244,-0.01952,-0.18056,-0.05368,-0.03416
0.06832,-0.05124,0.03416,0,-0.03416,0.05124,0.06344,0.0244,-0.01952,-0.1952,-0.05368,-0.03416
0.05856,-0.04636,0.03416,0.00488,-0.0244,0.04148,0.06344,0.02928,-0.00976,-0.19032,-0.04392,-0.03416
0.05856,-0.04148,0.0244,-0.00488,-0.03416,0.04636,0.0732,0.0244,-0.00976,-0.20008,-0.05856,-0.03416
0.06832,-0.05124,0.03416,0,-0.03416,0.05124,0.05856,0.0244,-0.01464,-0.1952,-0.0488,-0.03904
0.0732,-0.061,0.0488,0.0122,-0.0244,0.0488,0.05856,0.02928,-0.00976,-0.1952,-0.03416,-0.0244
0.08296,-0.07076,0.05856,0.01708,-0.0244,0.05368,0.05856,0.03904,0,-0.18056,-0.04392,-0.03416
0.09272,-0.08052,0.06832,0.02196,-0.0244,0.05856,0.06344,0.04392,0,-0.18544,-0.05368,-0.04392
0.06344,-0.05612,0.0488,0.01708,-0.01464,0.03904,0.06832,0.02928,0.00488,-0.18056,-0.04392,-0.03416
0.06832,-0.05856,0.0488,0.01464,-0.01952,0.04392,0.0732,0.03904,0.01952,-0.17568,-0.04392,-0.01952
0.05856,-0.0488,0.03904,0.00976,-0.01952,0.03904,0.06344,0.02928,0.00488,-0.18544,-0.05368,-0.03416
0.06832,-0.06344,0.05856,0.0244,-0.00976,0.03904,0.05368,0.02928,-0.00488,-0.18056,-0.0488,-0.03904
0.0732,-0.05856,0.04392,0.00732,-0.02928,0.05124,0.05368,0.02928,0.00488,-0.18056,-0.04392,-0.03416
0.06832,-0.061,0.05368,0.01952,-0.01464,0.04148,0.05368,0.02928,0.01952,-0.17568,-0.03904,-0.03416
0.06344,-0.05124,0.03904,0.00732,-0.0244,0.04392,0.05368,0.0244,0.00488,-0.18056,-0.0488,-0.0488
0.07808,-0.061,0.04392,0.00488,-0.03416,0.05612,0.0488,0.0244,0,-0.18056,-0.06344,-0.04392
0.08296,-0.06344,0.04392,0.00244,-0.03904,0.061,0.0488,0.0244,0.00488,-0.1708,-0.05368,-0.03416
0.06344,-0.05368,0.04392,0.0122,-0.01952,0.04148,0.05368,0.01952,0.01464,-0.1708,-0.0488,-0.02928
0.05368,-0.04392,0.03416,0.00732,-0.01952,0.0366,0.06344,0.02928,0,-0.18544,-0.04392,-0.0244
0.06344,-0.05612,0.0488,0.01708,-0.01464,0.03904,0.06344,0.03416,0,-0.19032,-0.0488,-0.02928
0.06832,-0.05612,0.04392,0.00976,-0.0244,0.04636,0.05368,0.0244,-0.00488,-0.20008,-0.0488,-0.03416
0.06832,-0.05124,0.03416,0,-0.03416,0.05124,0.05368,0.01464,-0.00976,-0.2196,-0.05368,-0.03416
0.07808,-0.061,0.04392,0.00488,-0.03416,0.05612,0.05368,0.02928,0,-0.2196,-0.05368,-0.03416
0.06344,-0.0488,0.03416,0.00244,-0.02928,0.04636,0.05368,0.03904,-0.00488,-0.22448,-0.0488,-0.02928
0.07808,-0.05124,0.0244,-0.01464,-0.05368,0.06588,0.06832,0.03416,0.00488,-0.244,-0.0488,-0.03416
0.05856,-0.03416,0.00976,-0.01952,-0.0488,0.05368,0.06344,0.03416,-0.00488,-0.26352,-0.05368,-0.03416
0.06344,-0.03904,0.01464,-0.01708,-0.0488,0.05612,0.06832,0.0244,-0.00488,-0.25864,-0.0488,-0.03416
0.06344,-0.04148,0.01952,-0.0122,-0.04392,0.05368,0.0732,0.02928,-0.01464,-0.26352,-0.03904,-0.03416
0.08296,-0.05368,0.0244,-0.01708,-0.05856,0.07076,0.08296,0.04392,-0.00488,-0.27328,-0.04392,-0.02928
0.06344,-0.03904,0.01464,-0.01708,-0.0488,0.05612,0.08296,0.03416,-0.01464,-0.28304,-0.05368,-0.0244
0.06344,-0.03904,0.01464,-0.01708,-0.0488,0.05612,0.07808,0.03416,-0.0244,-0.2928,-0.06344,-0.04392
0.04392,-0.0244,0.00488,-0.01708,-0.03904,0.04148,0.0732,0.03416,-0.01952,-0.2928,-0.06344,-0.05368
0.07808,-0.04392,0.00976,-0.02928,-0.06832,0.0732,0.08296,0.05368,-0.00976,-0.28304,-0.06344,-0.03904
0.06344,-0.02928,-0.00488,-0.0366,-0.06832,0.06588,0.07808,0.05856,-0.01464,-0.27328,-0.06832,-0.03904
0.07808,-0.0366,-0.00488,-0.04392,-0.08296,0.08052,0.07808,0.04392,-0.0244,-0.27816,-0.06832,-0.04392
0.0732,-0.03172,-0.00976,-0.04636,-0.08296,0.07808,0.0732,0.03416,-0.03904,-0.28304,-0.06832,-0.04392
0.07808,-0.03904,0,-0.03904,-0.07808,0.07808,0.09272,0.0488,-0.02928,-0.27328,-0.06832,-0.04392
0.05368,-0.01708,-0.01952,-0.04636,-0.0732,0.06344,0.08784,0.03904,-0.03904,-0.27328,-0.07808,-0.0488
0.06832,-0.03172,-0.00488,-0.03904,-0.0732,0.07076,0.09272,0.03904,-0.02928,-0.26352,-0.05856,-0.04392
0.07808,-0.03904,0,-0.03904,-0.07808,0.07808,0.09272,0.03904,-0.02928,-0.25376,-0.05368,-0.0488
0.0732,-0.02928,-0.01464,-0.05124,-0.08784,0.08052,0.0976,0.0488,-0.03904,-0.24888,-0.06344,-0.05856
0.0488,-0.0122,-0.0244,-0.0488,-0.0732,0.061,0.0976,0.0488,-0.04392,-0.24888,-0.0732,-0.05856
0.05856,-0.01952,-0.01952,-0.0488,-0.07808,0.06832,0.08784,0.04392,-0.04392,-0.24888,-0.0732,-0.05856
0.0732,-0.02928,-0.01464,-0.05124,-0.08784,0.08052,0.08296,0.0488,-0.04392,-0.25376,-0.0732,-0.05856
0.07808,-0.03172,-0.01464,-0.05368,-0.09272,0.0854,0.08296,0.0488,-0.05368,-0.244,-0.0732,-0.05856
0.0732,-0.01952,-0.03416,-0.07076,-0.10736,0.09028,0.08296,0.0488,-0.0488,-0.244,-0.07808,-0.06344
0.06832,-0.01464,-0.03904,-0.0732,-0.10736,0.08784,0.08784,0.0488,-0.05856,-0.24888,-0.08296,-0.06344
0.05368,-0.0122,-0.02928,-0.05612,-0.08296,0.06832,0.08784,0.04392,-0.05856,-0.25376,-0.08296,-0.05856
0.06832,-0.02196,-0.0244,-0.05856,-0.09272,0.08052,0.09272,0.0488,-0.0488,-0.25376,-0.07808,-0.0488
0.0732,-0.02684,-0.01952,-0.05612,-0.09272,0.08296,0.0976,0.06344,-0.0488,-0.25376,-0.07808,-0.0488
0.05856,-0.00732,-0.04392,-0.0732,-0.10248,0.08052,0.08784,0.0488,-0.0488,-0.27328,-0.08296,-0.06344
0.05856,-0.00732,-0.04392,-0.0732,-0.10248,0.08052,0.08784,0.04392,-0.0488,-0.28304,-0.08784,-0.0732
0.06832,-0.01708,-0.03416,-0.06832,-0.10248,0.0854,0.07808,0.05368,-0.0488,-0.30256,-0.0976,-0.0732
0.0732,-0.0244,-0.0244,-0.061,-0.0976,0.0854,0.07808,0.05368,-0.0488,-0.29768,-0.09272,-0.06832
0.05368,-0.00488,-0.04392,-0.07076,-0.0976,0.07564,0.08296,0.05368,-0.0488,-0.31232,-0.08784,-0.05856
0.0488,-0.00244,-0.04392,-0.06832,-0.09272,0.07076,0.09272,0.05368,-0.05368,-0.32696,-0.08784,-0.06344
0.05368,-0.00976,-0.03416,-0.061,-0.08784,0.07076,0.08296,0.04392,-0.0488,-0.33672,-0.09272,-0.05856
0.06344,-0.02684,-0.00976,-0.04148,-0.0732,0.06832,0.08784,0.04392,-0.05368,-0.34648,-0.09272,-0.05856
0.0488,-0.0122,-0.0244,-0.0488,-0.0732,0.061,0.08296,0.0488,-0.05368,-0.35136,-0.07808,-0.06832
0.0732,-0.02684,-0.01952,-0.05612,-0.09272,0.08296,0.08296,0.05368,-0.0488,-0.35624,-0.07808,-0.0732
0.07808,-0.02928,-0.01952,-0.05856,-0.0976,0.08784,0.08784,0.0488,-0.03904,-0.37088,-0.08296,-0.06344
0.08296,-0.03416,-0.01464,-0.05612,-0.0976,0.09028,0.08784,0.0488,-0.03416,-0.37576,-0.07808,-0.06832
0.06344,-0.0122,-0.03904,-0.07076,-0.10248,0.08296,0.09272,0.03904,-0.0488,-0.38552,-0.0976,-0.07808
0.05856,-0.01708,-0.0244,-0.05368,-0.08296,0.07076,0.0976,0.0488,-0.05368,-0.38552,-0.09272,-0.0732
0.0732,-0.0244,-0.0244,-0.061,-0.0976,0.0854,0.0976,0.05856,-0.05368,-0.38552,-0.08784,-0.0732
0.07808,-0.01952,-0.03904,-0.07808,-0.11712,0.0976,0.0976,0.05368,-0.05368,-0.38552,-0.0976,-0.07808
0.06344,-0.01464,-0.03416,-0.06588,-0.0976,0.08052,0.0976,0.05368,-0.06344,-0.38552,-0.09272,-0.06832
0.08296,-0.02928,-0.0244,-0.06588,-0.10736,0.09516,0.0976,0.05368,-0.05368,-0.37088,-0.08784,-0.06832
0.06344,-0.01708,-0.02928,-0.061,-0.09272,0.07808,0.09272,0.03416,-0.06344,-0.37088,-0.10248,-0.08784
0.06832,-0.01952,-0.02928,-0.06344,-0.0976,0.08296,0.0976,0.04392,-0.05856,-0.35136,-0.10248,-0.06832
0.06832,-0.01952,-0.02928,-0.06344,-0.0976,0.08296,0.0976,0.05368,-0.05856,-0.35136,-0.09272,-0.06832
0.06832,-0.01952,-0.02928,-0.06344,-0.0976,0.08296,0.10736,0.05856,-0.06832,-0.3416,-0.08784,-0.05856
0.06832,-0.01952,-0.02928,-0.06344,-0.0976,0.08296,0.10736,0.05856,-0.06832,-0.3416,-0.08784,-0.05856
0.07808,-0.0244,-0.02928,-0.06832,-0.10736,0.09272,0.10736,0.0488,-0.05856,-0.33184,-0.07808,-0.0488
0.07808,-0.0244,-0.02928,-0.06832,-0.10736,0.09272,0.10736,0.0488,-0.05856,-0.33184,-0.07808,-0.0488
0.06832,-0.02196,-0.0244,-0.05856,-0.09272,0.08052,0.0976,0.0488,-0.0488,-0.32208,-0.06832,-0.0488
0.06832,-0.02684,-0.01464,-0.0488,-0.08296,0.07564,0.0976,0.0488,-0.0488,-0.32208,-0.06832,-0.0488
0.07808,-0.03416,-0.00976,-0.0488,-0.08784,0.08296,0.10736,0.0488,-0.0488,-0.33184,-0.07808,-0.05368
0.07808,-0.03416,-0.00976,-0.0488,-0.08784,0.08296,0.10736,0.0488,-0.0488,-0.33184,-0.07808,-0.06344
0.07808,-0.03416,-0.00976,-0.0488,-0.08784,0.08296,0.10736,0.05856,-0.05856,-0.3416,-0.08296,-0.0732
0.07808,-0.03416,-0.00976,-0.0488,-0.08784,0.08296,0.10736,0.05856,-0.05856,-0.3416,-0.09272,-0.08296
0.08784,-0.04392,0,-0.04392,-0.08784,0.08784,0.0976,0.05856,-0.05856,-0.3416,-0.0976,-0.08296
0.08784,-0.04392,0,-0.04392,-0.08784,0.08784,0.0976,0.05856,-0.05856,-0.3416,-0.0976,-0.0732
0.08784,-0.04392,0,-0.04392,-0.08784,0.08784,0.0976,0.05856,-0.05856,-0.33184,-0.09272,-0.05856
0.08784,-0.04392,0,-0.04392,-0.08784,0.08784,0.0976,0.05856,-0.05856,-0.33184,-0.08296,-0.05856
0.07808,-0.0366,-0.00488,-0.04392,-0.08296,0.08052,0.0976,0.05856,-0.05856,-0.3416,-0.08784,-0.06832
0.07808,-0.03172,-0.01464,-0.05368,-0.09272,0.0854,0.0976,0.05856,-0.05856,-0.3416,-0.08784,-0.06832
0.08296,-0.03416,-0.01464,-0.05612,-0.0976,0.09028,0.08784,0.05368,-0.06832,-0.33672,-0.07808,-0.06344
0.09272,-0.04392,-0.00488,-0.05124,-0.0976,0.09516,0.08784,0.04392,-0.06832,-0.32696,-0.07808,-0.05368
0.08784,-0.03904,-0.00976,-0.05368,-0.0976,0.09272,0.0976,0.04392,-0.05856,-0.32208,-0.07808,-0.0488
0.08784,-0.03904,-0.00976,-0.05368,-0.0976,0.09272,0.0976,0.05368,-0.05856,-0.32208,-0.07808,-0.0488
0.0976,-0.0488,0,-0.0488,-0.0976,0.0976,0.0976,0.0488,-0.06832,-0.32208,-0.07808,-0.05856
0.0976,-0.0488,0,-0.0488,-0.0976,0.0976,0.0976,0.0488,-0.06832,-0.32208,-0.07808,-0.05856
0.09272,-0.04148,-0.00976,-0.05612,-0.10248,0.0976,0.08784,0.0488,-0.05856,-0.32208,-0.08784,-0.05856
0.08296,-0.0366,-0.00976,-0.05124,-0.09272,0.08784,0.08784,0.0488,-0.05856,-0.32208,-0.08784,-0.05856
0.08784,-0.03904,-0.00976,-0.05368,-0.0976,0.09272,0.08784,0.0488,-0.06832,-0.32696,-0.0976,-0.06344
0.08784,-0.03904,-0.00976,-0.05368,-0.0976,0.09272,0.08784,0.0488,-0.06832,-0.33672,-0.0976,-0.0732
0.08784,-0.03904,-0.00976,-0.05368,-0.0976,0.09272,0.0976,0.0488,-0.05856,-0.32696,-0.08784,-0.0732
0.08784,-0.03904,-0.00976,-0.05368,-0.0976,0.09272,0.0976,0.0488,-0.05856,-0.3172,-0.08784,-0.06344
0.07808,-0.03416,-0.00976,-0.0488,-0.08784,0.08296,0.0976,0.0488,-0.05856,-0.30256,-0.07808,-0.05856
0.07808,-0.03416,-0.00976,-0.0488,-0.08784,0.08296,0.0976,0.0488,-0.05856,-0.30256,-0.07808,-0.05856
0.07808,-0.02928,-0.01952,-0.05856,-0.0976,0.08784,0.0976,0.03904,-0.05856,-0.2928,-0.08784,-0.05856
0.07808,-0.02928,-0.01952,-0.05856,-0.0976,0.08784,0.0976,0.03904,-0.05856,-0.2928,-0.08784,-0.05856
0.07808,-0.03172,-0.01464,-0.05368,-0.09272,0.0854,0.0976,0.04392,-0.0488,-0.28304,-0.08784,-0.06832
0.07808,-0.0366,-0.00488,-0.04392,-0.08296,0.08052,0.0976,0.05368,-0.0488,-0.28304,-0.08784,-0.06832
0.06832,-0.02928,-0.00976,-0.04392,-0.07808,0.0732,0.0976,0.0488,-0.0488,-0.27328,-0.0976,-0.07808
0.06832,-0.02928,-0.00976,-0.04392,-0.07808,0.0732,0.0976,0.0488,-0.0488,-0.27328,-0.0976,-0.07808
0.07808,-0.03416,-0.00976,-0.0488,-0.08784,0.08296,0.08784,0.0488,-0.05856,-0.26352,-0.0976,-0.06832
0.07808,-0.03416,-0.00976,-0.0488,-0.08784,0.08296,0.08784,0.0488,-0.05856,-0.26352,-0.0976,-0.06832
0.07808,-0.03904,0,-0.03904,-0.07808,0.07808,0.08784,0.04392,-0.05856,-0.25376,-0.08784,-0.05856
0.07808,-0.03904,0,-0.03904,-0.07808,0.07808,0.08784,0.03416,-0.05856,-0.25376,-0.08784,-0.05856
0.07808,-0.03416,-0.00976,-0.0488,-0.08784,0.08296,0.08784,0.03416,-0.05856,-0.244,-0.07808,-0.05856
0.07808,-0.03416,-0.00976,-0.0488,-0.08784,0.08296,0.08784,0.04392,-0.05856,-0.244,-0.07808,-0.05856
0.06832,-0.0244,-0.01952,-0.05368,-0.08784,0.07808,0.07808,0.0488,-0.05856,-0.244,-0.08296,-0.06344
0.06832,-0.0244,-0.01952,-0.05368,-0.08784,0.07808,0.07808,0.0488,-0.05856,-0.244,-0.09272,-0.0732
0.05856,-0.0244,-0.00976,-0.03904,-0.06832,0.06344,0.07808,0.0488,-0.05856,-0.244,-0.08784,-0.06832
0.05856,-0.0244,-0.00976,-0.03904,-0.06832,0.06344,0.07808,0.0488,-0.05856,-0.244,-0.08784,-0.06832
0.06832,-0.02928,-0.00976,-0.04392,-0.07808,0.0732,0.07808,0.03904,-0.05856,-0.23424,-0.07808,-0.06832
0.06832,-0.02928,-0.00976,-0.04392,-0.07808,0.0732,0.07808,0.03904,-0.05856,-0.23424,-0.07808,-0.06832
0.05856,-0.02196,-0.01464,-0.04392,-0.0732,0.06588,0.08784,0.0488,-0.05856,-0.23424,-0.08784,-0.06832
0.05856,-0.01708,-0.0244,-0.05368,-0.08296,0.07076,0.08784,0.0488,-0.05856,-0.23424,-0.08784,-0.06832
0.05856,-0.01952,-0.01952,-0.0488,-0.07808,0.06832,0.08784,0.03904,-0.06832,-0.23424,-0.07808,-0.06832
0.05856,-0.01952,-0.01952,-0.0488,-0.07808,0.06832,0.08784,0.03904,-0.06832,-0.23424,-0.07808,-0.06832
0.06344,-0.02684,-0.00976,-0.04148,-0.0732,0.06832,0.08784,0.0488,-0.05856,-0.22448,-0.08784,-0.05856
0.0732,-0.03172,-0.00976,-0.04636,-0.08296,0.07808,0.08784,0.0488,-0.05856,-0.22448,-0.08784,-0.05856
0.06344,-0.0244,-0.01464,-0.04636,-0.07808,0.07076,0.08784,0.0488,-0.05856,-0.22448,-0.08784,-0.06344
0.05368,-0.01464,-0.0244,-0.05124,-0.07808,0.06588,0.08784,0.0488,-0.05856,-0.22448,-0.08784,-0.0732
0.05856,-0.00976,-0.03904,-0.06832,-0.0976,0.07808,0.08784,0.0488,-0.05856,-0.22448,-0.08784,-0.06832
0.05856,-0.00976,-0.03904,-0.06832,-0.0976,0.07808,0.08784,0.0488,-0.05856,-0.22448,-0.08784,-0.06832
0.06832,-0.01708,-0.03416,-0.06832,-0.10248,0.0854,0.08784,0.0488,-0.05856,-0.2196,-0.08784,-0.05856
0.06832,-0.02196,-0.0244,-0.05856,-0.09272,0.08052,0.08784,0.0488,-0.05856,-0.20984,-0.08784,-0.05856
0.05856,-0.01952,-0.01952,-0.0488,-0.07808,0.06832,0.0976,0.0488,-0.0488,-0.21472,-0.08784,-0.06344
0.05856,-0.01952,-0.01952,-0.0488,-0.07808,0.06832,0.0976,0.0488,-0.0488,-0.21472,-0.08784,-0.0732
0.05368,-0.0244,-0.00488,-0.03172,-0.05856,0.05612,0.0976,0.05368,-0.05856,-0.20496,-0.08784,-0.06832
0.0488,-0.00976,-0.02928,-0.05368,-0.07808,0.06344,0.09272,0.0488,-0.06344,-0.20008,-0.09272,-0.05856
0.05368,-0.01708,-0.01952,-0.04636,-0.0732,0.06344,0.0976,0.04392,-0.05368,-0.1952,-0.0732,-0.06344
0.05856,-0.01952,-0.01952,-0.0488,-0.07808,0.06832,0.0976,0.04392,-0.05368,-0.1952,-0.0732,-0.06344
0.06344,-0.02196,-0.01952,-0.05124,-0.08296,0.0732,0.10248,0.05856,-0.05368,-0.1952,-0.07808,-0.0732
0.0732,-0.03416,-0.00488,-0.04148,-0.07808,0.07564,0.11224,0.05856,-0.05368,-0.1952,-0.08296,-0.0732
0.05368,-0.01952,-0.01464,-0.04148,-0.06832,0.061,0.10736,0.05856,-0.05368,-0.18056,-0.08296,-0.0732
0.06832,-0.03416,0,-0.03416,-0.06832,0.06832,0.10736,0.06344,-0.04392,-0.1708,-0.07808,-0.0732
0.0732,-0.03904,0.00488,-0.03172,-0.06832,0.07076,0.11224,0.06344,-0.05368,-0.18056,-0.0732,-0.06344
0.0732,-0.04392,0.01464,-0.02196,-0.05856,0.06588,0.122,0.06344,-0.03904,-0.1708,-0.0732,-0.0488
0.06344,-0.04392,0.0244,-0.00732,-0.03904,0.05124,0.122,0.05368,-0.03904,-0.16592,-0.0732,-0.05368
0.07808,-0.061,0.04392,0.00488,-0.03416,0.05612,0.11712,0.05368,-0.0244,-0.1464,-0.06832,-0.0488
0.08296,-0.07808,0.0732,0.03172,-0.00976,0.04636,0.09272,0.04392,-0.00976,-0.122,-0.04392,-0.03904
0.08784,-0.0854,0.08296,0.03904,-0.00488,0.04636,0.07808,0.0488,-0.00976,-0.122,-0.04392,-0.03416
0.07808,-0.07076,0.06344,0.0244,-0.01464,0.04636,0.0732,0.04392,-0.01464,-0.11712,-0.02928,-0.02928
0.10736,-0.09516,0.08296,0.02928,-0.0244,0.06588,0.06832,0.03904,-0.01952,-0.11712,-0.02928,-0.0244
0.08296,-0.06588,0.0488,0.00732,-0.03416,0.05856,0.0488,0.01952,-0.02928,-0.11712,-0.04392,-0.01952
0.11712,-0.09028,0.06344,0.00488,-0.05368,0.0854,0.04392,0.0244,-0.03416,-0.122,-0.0488,-0.01952
0.10248,-0.07076,0.03904,-0.0122,-0.06344,0.08296,0.05368,0.0244,-0.05368,-0.122,-0.06344,-0.03904
0.10248,-0.07076,0.03904,-0.0122,-0.06344,0.08296,0.06832,0.03416,-0.0488,-0.11712,-0.06344,-0.03904
0.07808,-0.061,0.04392,0.00488,-0.03416,0.05612,0.07808,0.0244,-0.03904,-0.10736,-0.06344,-0.03416
0.0976,-0.07076,0.04392,-0.00488,-0.05368,0.07564,0.07808,0.02928,-0.03904,-0.10248,-0.0488,-0.0244
0.09272,-0.06344,0.03416,-0.0122,-0.05856,0.07564,0.06832,0.03904,-0.04392,-0.09272,-0.04392,-0.0244
0.10248,-0.06588,0.02928,-0.02196,-0.0732,0.08784,0.06832,0.03904,-0.05368,-0.10248,-0.04392,-0.0244
0.10248,-0.05368,0.00488,-0.04636,-0.0976,0.10004,0.06832,0.04392,-0.05856,-0.10248,-0.05856,-0.02928
0.0976,-0.04636,-0.00488,-0.05368,-0.10248,0.10004,0.06832,0.04392,-0.05856,-0.10736,-0.05856,-0.03416
0.05856,-0.01952,-0.01952,-0.0488,-0.07808,0.06832,0.08784,0.0488,-0.0488,-0.10736,-0.05368,-0.02928
0.05368,-0.00976,-0.03416,-0.061,-0.08784,0.07076,0.10736,0.05368,-0.06344,-0.12688,-0.07808,-0.0488
0.0488,-0.00488,-0.03904,-0.06344,-0.08784,0.06832,0.10736,0.05368,-0.06832,-0.13176,-0.07808,-0.06344
0.05368,-0.00488,-0.04392,-0.07076,-0.0976,0.07564,0.10736,0.05368,-0.0732,-0.13664,-0.08296,-0.06832
0.06344,-0.00244,-0.05856,-0.09028,-0.122,0.09272,0.11224,0.05368,-0.08296,-0.15128,-0.0976,-0.06832
0.05368,0.00732,-0.06832,-0.09516,-0.122,0.08784,0.11224,0.05368,-0.09272,-0.1464,-0.0976,-0.06832
0.05368,0.00488,-0.06344,-0.09028,-0.11712,0.0854,0.122,0.05856,-0.08784,-0.13664,-0.08296,-0.06832
0.05368,0.00732,-0.06832,-0.09516,-0.122,0.08784,0.11712,0.06344,-0.09272,-0.13664,-0.08296,-0.0732
0.05368,0.00732,-0.06832,-0.09516,-0.122,0.08784,0.12688,0.06344,-0.08296,-0.13664,-0.09272,-0.0732
0.05368,0.00976,-0.0732,-0.10004,-0.12688,0.09028,0.12688,0.05856,-0.07808,-0.13176,-0.09272,-0.06832
0.04392,0.01464,-0.0732,-0.09516,-0.11712,0.08052,0.122,0.05856,-0.07808,-0.13664,-0.08296,-0.06832
0.04392,0.01464,-0.0732,-0.09516,-0.11712,0.08052,0.10736,0.05368,-0.07808,-0.13176,-0.08296,-0.06832
0.05368,0.00244,-0.05856,-0.0854,-0.11224,0.08296,0.09272,0.06344,-0.06344,-0.11712,-0.06832,-0.0488
0.0488,0,-0.0488,-0.0732,-0.0976,0.0732,0.09272,0.05368,-0.06344,-0.11224,-0.06832,-0.05368
0.0488,0.00488,-0.05856,-0.08296,-0.10736,0.07808,0.08784,0.0732,-0.05368,-0.122,-0.08296,-0.08296
0.0244,0.00732,-0.03904,-0.05124,-0.06344,0.04392,0.11712,0.10248,0.00488,-0.10736,-0.11224,-0.13176
-0.03416,0.04148,-0.0488,-0.03172,-0.01464,-0.00976,0.17568,0.17568,0.0976,-0.12688,-0.1952,-0.24888
-0.09272,0.05856,-0.0244,0.02196,0.06832,-0.08052,0.28304,0.28792,0.20496,-0.16104,-0.32696,-0.40016
-0.10736,0.07076,-0.03416,0.01952,0.0732,-0.09028,0.30744,0.38552,0.28792,-0.16104,-0.33672,-0.42456
0.0732,-0.13176,0.19032,0.15372,0.11712,-0.02196,0.20008,0.35624,0.42944,0.02928,-0.13664,-0.22448
0.1952,-0.31476,0.43432,0.33672,0.23912,-0.02196,0.0488,0.26352,0.59048,0.3416,0.20984,0.13664
0.36112,-0.5734,0.78568,0.60512,0.42456,-0.03172,-0.14152,0.11712,0.64904,0.72224,0.72224,0.69296
0.50752,-0.7686,1.02968,0.77592,0.52216,-0.00732,-0.36112,-0.11712,0.55144,1.09312,1.28832,1.32736
0.69296,-1.0736,1.45424,1.10776,0.76128,-0.03416,-0.64904,-0.40016,0.54656,1.54208,1.96664,2.0252
0.73688,-1.18828,1.63968,1.27124,0.9028,-0.08296,-0.79056,-0.52704,0.52216,2.0008,2.50832,2.54248
0.67344,-1.14436,1.61528,1.27856,0.94184,-0.1342,-0.75152,-0.57096,0.40016,2.03008,2.48392,2.49368
0.50264,-0.83204,1.16144,0.91012,0.6588,-0.07808,-0.62952,-0.49776,0.122,1.4884,1.77144,1.82512
0.3172,-0.50508,0.69296,0.53436,0.37576,-0.02928,-0.38552,-0.31232,-0.10736,0.75152,0.84912,0.88816
0.16592,-0.23912,0.31232,0.22936,0.1464,0.00976,-0.18544,-0.16592,-0.35624,-0.06832,0.11224,0.1952
0.18056,-0.20984,0.23912,0.14884,0.05856,0.061,-0.11224,-0.08296,-0.26352,-0.0488,0.0732,0.11712
0.122,-0.1342,0.1464,0.0854,0.0244,0.0488,-0.06832,-0.08784,-0.17568,0.02928,0.10736,0.16104
0.122,-0.13664,0.15128,0.09028,0.02928,0.04636,-0.03416,-0.03416,-0.11224,0.05856,0.11224,0.14152
0.09272,-0.11956,0.1464,0.10004,0.05368,0.01952,-0.00976,-0.00976,-0.05856,0.04392,0.08784,0.08296
0.10736,-0.11224,0.11712,0.06344,0.00976,0.0488,0.01464,0.01464,-0.04392,0.01464,0.03416,0.01952
0.04392,-0.04636,0.0488,0.02684,0.00488,0.01952,0.05368,0.0244,-0.01952,0.00488,0.00488,0
0.09272,-0.08296,0.0732,0.02684,-0.01952,0.05612,0.05856,0.05368,0,0.00488,0.00488,0
0.06832,-0.05856,0.0488,0.01464,-0.01952,0.04392,0.05368,0.05368,-0.01952,-0.03416,-0.02928,-0.00976
0.07808,-0.06832,0.05856,0.01952,-0.01952,0.0488,0.05368,0.05368,-0.01952,-0.0488,-0.03416,-0.03904
0.0732,-0.061,0.0488,0.0122,-0.0244,0.0488,0.05368,0.0488,-0.01952,-0.08296,-0.05856,-0.04392
0.07808,-0.06344,0.0488,0.00976,-0.02928,0.05368,0.06832,0.05368,-0.0244,-0.11224,-0.05856,-0.0488
0.05368,-0.03172,0.00976,-0.01708,-0.04392,0.0488,0.06832,0.05368,-0.0244,-0.16592,-0.06832,-0.06344
0.06344,-0.04636,0.02928,-0.00244,-0.03416,0.0488,0.07808,0.05856,-0.01464,-0.19032,-0.06832,-0.06832
0.05856,-0.04392,0.02928,0,-0.02928,0.04392,0.07808,0.05368,-0.01464,-0.20496,-0.06832,-0.06832
0.05368,-0.04392,0.03416,0.00732,-0.01952,0.0366,0.08296,0.06832,0.00488,-0.20008,-0.05856,-0.06832
0.04392,-0.03172,0.01952,-0.00244,-0.0244,0.03416,0.08296,0.08296,0.00488,-0.1952,-0.05368,-0.05856
0.05856,-0.04392,0.02928,0,-0.02928,0.04392,0.08784,0.07808,0.00976,-0.18056,-0.03904,-0.04392
0.06344,-0.04392,0.0244,-0.00732,-0.03904,0.05124,0.09272,0.07808,0.00976,-0.1708,-0.03416,-0.03904
0.08296,-0.05368,0.0244,-0.01708,-0.05856,0.07076,0.0976,0.07808,0.01464,-0.15128,-0.03904,-0.0488
0.06832,-0.03904,0.00976,-0.0244,-0.05856,0.06344,0.10248,0.07808,0.01952,-0.13664,-0.0488,-0.05856
0.07808,-0.0488,0.01952,-0.01952,-0.05856,0.06832,0.11224,0.08296,0.02928,-0.0976,-0.0488,-0.0488
0.07808,-0.04392,0.00976,-0.02928,-0.06832,0.0732,0.11224,0.07808,0.02928,-0.07808,-0.05856,-0.0488
0.07808,-0.04148,0.00488,-0.03416,-0.0732,0.07564,0.11224,0.08296,0.02928,-0.0488,-0.0488,-0.04392
0.07808,-0.04148,0.00488,-0.03416,-0.0732,0.07564,0.11224,0.08296,0.02928,-0.04392,-0.04392,-0.03904
0.10248,-0.05856,0.01464,-0.0366,-0.08784,0.09516,0.10248,0.0732,0.03904,-0.0244,-0.04392,-0.03904
0.09272,-0.05856,0.0244,-0.02196,-0.06832,0.08052,0.10736,0.0732,0.03416,-0.0244,-0.05368,-0.0488
0.08296,-0.05612,0.02928,-0.0122,-0.05368,0.06832,0.11712,0.08296,0.03416,-0.02928,-0.04392,-0.04392
0.08784,-0.05856,0.02928,-0.01464,-0.05856,0.0732,0.10736,0.08296,0.03416,-0.03904,-0.04392,-0.05368
0.09272,-0.06344,0.03416,-0.0122,-0.05856,0.07564,0.10736,0.08784,0.04392,-0.0488,-0.0488,-0.0488
0.09272,-0.07564,0.05856,0.0122,-0.03416,0.06344,0.10736,0.08784,0.04392,-0.05368,-0.04392,-0.0488
0.10248,-0.07808,0.05368,0.00244,-0.0488,0.07564,0.0976,0.06832,0.03416,-0.0732,-0.04392,-0.0488
0.10248,-0.08052,0.05856,0.00732,-0.04392,0.0732,0.10248,0.06832,0.03416,-0.08784,-0.04392,-0.05368
0.08296,-0.07564,0.06832,0.02684,-0.01464,0.0488,0.0976,0.07808,0.05368,-0.0732,-0.02928,-0.03904
0.09272,-0.0854,0.07808,0.03172,-0.01464,0.05368,0.10248,0.09272,0.05856,-0.0732,-0.0244,-0.03416
0.08296,-0.07564,0.06832,0.02684,-0.01464,0.0488,0.10248,0.08784,0.05368,-0.0976,-0.03416,-0.05368
0.09272,-0.08296,0.0732,0.02684,-0.01952,0.05612,0.10248,0.08296,0.05368,-0.09272,-0.03904,-0.0488
0.09272,-0.0854,0.07808,0.03172,-0.01464,0.05368,0.09272,0.08784,0.05856,-0.08296,-0.03416,-0.03904
0.11224,-0.10492,0.0976,0.04148,-0.01464,0.06344,0.09272,0.08784,0.06832,-0.07808,-0.02928,-0.03416
0.11224,-0.10004,0.08784,0.03172,-0.0244,0.06832,0.10248,0.08296,0.06832,-0.05856,-0.03416,-0.03904
0.13176,-0.122,0.11224,0.04636,-0.01952,0.07564,0.09272,0.08296,0.07808,-0.03904,-0.0244,-0.02928
0.0976,-0.09272,0.08784,0.03904,-0.00976,0.05368,0.08784,0.08784,0.08296,-0.01952,-0.01952,-0.02928
0.10736,-0.11712,0.12688,0.0732,0.01952,0.04392,0.09272,0.08784,0.10248,0,-0.01464,-0.0244
0.10248,-0.1098,0.11712,0.06588,0.01464,0.04392,0.09272,0.08296,0.11224,0,-0.01952,-0.0244
0.11224,-0.122,0.13176,0.07564,0.01952,0.04636,0.0976,0.08784,0.12688,0.02928,0.00488,-0.01464
0.10736,-0.11956,0.13176,0.07808,0.0244,0.04148,0.08296,0.0976,0.12688,0.0488,0.02928,-0.00488
0.11224,-0.12932,0.1464,0.09028,0.03416,0.03904,0.08296,0.10248,0.13664,0.0732,0.03416,0.00976
0.11224,-0.12932,0.1464,0.09028,0.03416,0.03904,0.08296,0.08296,0.13176,0.0732,0.0244,0.00976
0.122,-0.14396,0.16592,0.10492,0.04392,0.03904,0.07808,0.08784,0.14152,0.0976,0.03416,0.00976
0.13176,-0.14884,0.16592,0.10004,0.03416,0.0488,0.08296,0.08784,0.16104,0.10736,0.02928,0.00488
0.13176,-0.15372,0.17568,0.1098,0.04392,0.04392,0.0732,0.09272,0.1708,0.11712,0.04392,0.01952
0.14152,-0.16348,0.18544,0.11468,0.04392,0.0488,0.0732,0.08296,0.18056,0.122,0.0488,0.02928
0.15616,-0.183,0.20984,0.13176,0.05368,0.05124,0.06832,0.07808,0.1952,0.13664,0.06344,0.02928
0.16104,-0.18788,0.21472,0.1342,0.05368,0.05368,0.0732,0.08296,0.20496,0.15616,0.08296,0.05368
0.15128,-0.19032,0.22936,0.15372,0.07808,0.0366,0.06832,0.08784,0.21472,0.1708,0.09272,0.0732
0.14152,-0.19764,0.25376,0.183,0.11224,0.01464,0.05368,0.08784,0.2196,0.17568,0.10736,0.07808
0.1464,-0.2074,0.2684,0.1952,0.122,0.0122,0.03904,0.08296,0.23912,0.18544,0.122,0.08296
0.1464,-0.21228,0.27816,0.20496,0.13176,0.00732,0.0488,0.0976,0.26352,0.2196,0.13664,0.08296
0.15128,-0.21716,0.28304,0.2074,0.13176,0.00976,0.03904,0.0976,0.27328,0.23424,0.1464,0.08296
0.16592,-0.24156,0.3172,0.23424,0.15128,0.00732,0.01952,0.09272,0.29768,0.25376,0.1708,0.11712
0.19032,-0.26108,0.33184,0.23668,0.14152,0.0244,0.00976,0.10736,0.3172,0.28304,0.1952,0.13664
0.19032,-0.2684,0.34648,0.25132,0.15616,0.01708,0,0.10736,0.32696,0.3172,0.22936,0.1708
0.18056,-0.27084,0.36112,0.27084,0.18056,0,-0.00976,0.0976,0.33672,0.34648,0.24888,0.19032
0.20008,-0.29524,0.3904,0.29036,0.19032,0.00488,-0.01952,0.09272,0.36112,0.36112,0.27328,0.20496
0.20984,-0.31232,0.4148,0.30988,0.20496,0.00244,-0.02928,0.09272,0.37576,0.40504,0.30256,0.22448
0.23424,-0.3416,0.44896,0.33184,0.21472,0.00976,-0.0488,0.07808,0.3904,0.4392,0.32696,0.22936
0.20984,-0.3294,0.44896,0.34404,0.23912,-0.01464,-0.05856,0.06832,0.40016,0.46848,0.33672,0.244
0.22448,-0.35624,0.488,0.37576,0.26352,-0.01952,-0.0732,0.06832,0.40504,0.49776,0.366,0.27328
0.22448,-0.35868,0.49288,0.38064,0.2684,-0.02196,-0.09272,0.05856,0.40992,0.52216,0.39528,0.30256
0.244,-0.3782,0.5124,0.3904,0.2684,-0.0122,-0.10248,0.05368,0.42456,0.57096,0.43432,0.3416
0.22936,-0.37088,0.5124,0.39772,0.28304,-0.02684,-0.122,0.05368,0.42456,0.5856,0.45384,0.36112
0.23424,-0.38552,0.5368,0.41968,0.30256,-0.03416,-0.13176,0.0488,0.43432,0.61,0.4636,0.366
0.23424,-0.38552,0.5368,0.41968,0.30256,-0.03416,-0.14152,0.04392,0.43432,0.62952,0.488,0.38552
0.244,-0.39528,0.54656,0.42456,0.30256,-0.02928,-0.13664,0.04392,0.42944,0.6588,0.49776,0.3904
0.244,-0.3904,0.5368,0.4148,0.2928,-0.0244,-0.14152,0.03904,0.42944,0.66856,0.50264,0.40016
0.23424,-0.38308,0.53192,0.4148,0.29768,-0.03172,-0.15616,0.01952,0.40992,0.66856,0.5124,0.40504
0.22936,-0.38552,0.54168,0.427,0.31232,-0.04148,-0.15616,0.01952,0.40504,0.66368,0.51728,0.40504
0.22448,-0.38064,0.5368,0.42456,0.31232,-0.04392,-0.15616,0.01464,0.38552,0.66368,0.53192,0.41968
0.21472,-0.35868,0.50264,0.39528,0.28792,-0.0366,-0.1464,0.00488,0.366,0.64416,0.51728,0.42456
0.20008,-0.3416,0.48312,0.38308,0.28304,-0.04148,-0.14152,0.00488,0.35136,0.60024,0.49776,0.40992
0.20984,-0.34648,0.48312,0.3782,0.27328,-0.03172,-0.14152,0.00488,0.32208,0.5612,0.46848,0.39528
0.20008,-0.32208,0.44408,0.34404,0.244,-0.02196,-0.13664,0.00488,0.29768,0.5124,0.42944,0.35136
0.19032,-0.305,0.41968,0.32452,0.22936,-0.01952,-0.12688,0,0.2684,0.45872,0.3904,0.31232
0.15128,-0.25864,0.366,0.29036,0.21472,-0.03172,-0.10736,-0.01464,0.22936,0.38552,0.33672,0.27328
0.15128,-0.23912,0.32696,0.25132,0.17568,-0.0122,-0.10248,0,0.20496,0.3416,0.28792,0.22936
0.13664,-0.2074,0.27816,0.20984,0.14152,-0.00244,-0.08784,0.01952,0.1708,0.29768,0.23424,0.1952
0.13664,-0.19764,0.25864,0.19032,0.122,0.00732,-0.06832,0.01464,0.1464,0.24888,0.20008,0.1708
0.10248,-0.14884,0.1952,0.14396,0.09272,0.00488,-0.06344,0.01952,0.10736,0.19032,0.17568,0.13664
0.09272,-0.13176,0.1708,0.12444,0.07808,0.00732,-0.0488,0.0244,0.08296,0.1464,0.14152,0.10248
0.08296,-0.10736,0.13176,0.09028,0.0488,0.01708,-0.03416,0.03904,0.05368,0.11224,0.11224,0.07808
0.05856,-0.09272,0.12688,0.0976,0.06832,-0.00488,-0.00488,0.03904,0.05368,0.08784,0.08784,0.06344
0.05856,-0.07564,0.09272,0.06344,0.03416,0.0122,0.00976,0.0244,0.03904,0.05856,0.05368,0.0244
0.0488,-0.06588,0.08296,0.05856,0.03416,0.00732,0.01952,0.0244,0.01952,0.0244,0.02928,-0.00488
0.0244,-0.03172,0.03904,0.02684,0.01464,0.00488,0.03904,0.0244,-0.00488,-0.01464,0,-0.01464
0.0244,-0.01708,0.00976,-0.00244,-0.01464,0.01952,0.03904,0.01952,-0.0244,-0.02928,-0.01464,-0.02928
0.01464,-0.00732,0,-0.00732,-0.01464,0.01464,0.03904,0.03416,-0.02928,-0.04392,-0.0244,-0.05368
0.02928,-0.0244,0.01952,0.00488,-0.00976,0.01952,0.03904,0.03416,-0.03416,-0.03904,-0.03416,-0.05856
0.01464,-0.00976,0.00488,-0.00244,-0.00976,0.0122,0.0488,0.03904,-0.04392,-0.05368,-0.05368,-0.0732
0,0.00488,-0.00976,-0.00976,-0.00976,0.00488,0.05368,0.03904,-0.0488,-0.06344,-0.05856,-0.0732
0.00976,0.00244,-0.01464,-0.01952,-0.0244,0.01708,0.04392,0.03416,-0.03904,-0.05368,-0.0488,-0.06344
0.0244,-0.01464,0.00488,-0.00732,-0.01952,0.02196,0.0488,0.0244,-0.03416,-0.0488,-0.05368,-0.06344
0.01952,-0.01952,0.01952,0.00976,0,0.00976,0.0488,0.02928,-0.03904,-0.05856,-0.06832,-0.06344
0.00488,-0.00488,0.00488,0.00244,0,0.00244,0.05368,0.0244,-0.0488,-0.05856,-0.06832,-0.06832
0.01464,-0.00976,0.00488,-0.00244,-0.00976,0.0122,0.0488,0.02928,-0.04392,-0.02928,-0.06344,-0.06832
0.01464,-0.00732,0,-0.00732,-0.01464,0.01464,0.05368,0.02928,-0.03416,-0.01464,-0.06344,-0.0732
0.01952,-0.01464,0.00976,0,-0.00976,0.01464,0.05368,0.0244,-0.03416,-0.01952,-0.06832,-0.0732
0,0.00488,-0.00976,-0.00976,-0.00976,0.00488,0.05368,0.0244,-0.03416,-0.01952,-0.06832,-0.06832
0.0244,-0.00976,-0.00488,-0.01708,-0.02928,0.02684,0.03904,0.0244,-0.02928,-0.03416,-0.0732,-0.06832
0,0,0,0,0,0,0.03904,0.0244,-0.02928,-0.03904,-0.0732,-0.08784
0.01952,-0.00976,0,-0.00976,-0.01952,0.01952,0.04392,0.0244,-0.04392,-0.06344,-0.07808,-0.08784
-0.00976,0.01952,-0.02928,-0.0244,-0.01952,0.00488,0.0488,0.01952,-0.06344,-0.08784,-0.10248,-0.0976
0.01952,-0.00488,-0.00976,-0.01952,-0.02928,0.0244,0.05368,0.01952,-0.0488,-0.08784,-0.07808,-0.08784
0.00488,0.00244,-0.00976,-0.0122,-0.01464,0.00976,0.0488,0.02928,-0.03904,-0.08784,-0.05856,-0.06344
-0.00488,0,0.00488,0.00732,0.00976,-0.00732,0.05368,0.02928,-0.02928,-0.0976,-0.03904,-0.05856
-0.00488,0.01464,-0.0244,-0.02196,-0.01952,0.00732,0.0488,0.02928,-0.02928,-0.11224,-0.0488,-0.06832
0.01464,-0.00244,-0.00976,-0.01708,-0.0244,0.01952,0.04392,0.04392,-0.02928,-0.12688,-0.06344,-0.08296
-0.00488,0.00732,-0.00976,-0.00732,-0.00488,0,0.03904,0.02928,-0.03416,-0.13176,-0.06344,-0.08296
0.00976,0,-0.00976,-0.01464,-0.01952,0.01464,0.04392,0.02928,-0.02928,-0.12688,-0.05368,-0.0732
0.01464,0.00244,-0.01952,-0.02684,-0.03416,0.0244,0.04392,0.02928,-0.03416,-0.13664,-0.05368,-0.06832
0.02928,-0.00244,-0.0244,-0.03904,-0.05368,0.04148,0.04392,0.02928,-0.03416,-0.12688,-0.03904,-0.0488
0.01952,0.00732,-0.03416,-0.04392,-0.05368,0.0366,0.04392,0.02928,-0.03416,-0.11712,-0.04392,-0.05368
0.00976,0.00244,-0.01464,-0.01952,-0.0244,0.01708,0.05368,0.03904,-0.01952,-0.10736,-0.03904,-0.06344
0.00488,0.00732,-0.01952,-0.02196,-0.0244,0.01464,0.0488,0.04392,-0.0244,-0.11224,-0.04392,-0.06832
0.00976,-0.00244,-0.00488,-0.00976,-0.01464,0.0122,0.0488,0.04392,-0.0244,-0.10248,-0.05368,-0.0732
0.00976,0.00244,-0.01464,-0.01952,-0.0244,0.01708,0.05368,0.04392,-0.03904,-0.10248,-0.05368,-0.0732
0.00488,0.00976,-0.0244,-0.02684,-0.02928,0.01708,0.06344,0.03904,-0.0244,-0.0976,-0.0488,-0.0732
0.01464,0,-0.01464,-0.02196,-0.02928,0.02196,0.05368,0.03904,-0.02928,-0.0976,-0.05856,-0.0732
0.01952,0,-0.01952,-0.02928,-0.03904,0.02928,0.05856,0.03416,-0.02928,-0.08296,-0.05856,-0.06832
0.01464,0.00976,-0.03416,-0.04148,-0.0488,0.03172,0.0488,0.03416,-0.03904,-0.09272,-0.05856,-0.0732
0.01952,0.00488,-0.02928,-0.03904,-0.0488,0.03416,0.0488,0.03416,-0.04392,-0.07808,-0.05856,-0.06344
0.01952,0.00244,-0.0244,-0.03416,-0.04392,0.03172,0.05856,0.03904,-0.03416,-0.06832,-0.0488,-0.05856
0.00488,0.00976,-0.0244,-0.02684,-0.02928,0.01708,0.05856,0.03416,-0.03416,-0.06832,-0.0488,-0.06344
0.02928,0,-0.02928,-0.04392,-0.05856,0.04392,0.05368,0.03416,-0.03904,-0.06832,-0.0488,-0.06344
0.01464,0.01464,-0.04392,-0.05124,-0.05856,0.0366,0.06832,0.03416,-0.03416,-0.07808,-0.0488,-0.05368
0.01464,0.01708,-0.0488,-0.05612,-0.06344,0.03904,0.0732,0.03904,-0.03904,-0.0732,-0.0488,-0.05368
0.01464,0.01708,-0.0488,-0.05612,-0.06344,0.03904,0.0732,0.02928,-0.05368,-0.07808,-0.05368,-0.05856
0.00976,0.0244,-0.05856,-0.06344,-0.06832,0.03904,0.0732,0.03416,-0.05856,-0.08296,-0.05368,-0.05856
-0.00488,0.04392,-0.08296,-0.08052,-0.07808,0.0366,0.0732,0.02928,-0.06344,-0.07808,-0.06344,-0.07808
-0.00488,0.03904,-0.0732,-0.07076,-0.06832,0.03172,0.08296,0.03904,-0.05856,-0.07808,-0.06344,-0.08784
-0.00976,0.04636,-0.08296,-0.07808,-0.0732,0.03172,0.08296,0.03416,-0.05856,-0.08784,-0.06344,-0.08296
0.01464,0.03172,-0.07808,-0.0854,-0.09272,0.05368,0.08296,0.0488,-0.05856,-0.08784,-0.06344,-0.07808
-0.00976,0.05368,-0.0976,-0.09272,-0.08784,0.03904,0.07808,0.03904,-0.0732,-0.08296,-0.06832,-0.07808
-0.00488,0.05124,-0.0976,-0.09516,-0.09272,0.04392,0.0732,0.03416,-0.07808,-0.07808,-0.06832,-0.08296
-0.00488,0.05612,-0.10736,-0.10492,-0.10248,0.0488,0.07808,0.04392,-0.06832,-0.06832,-0.06832,-0.0732
0.02928,0.02928,-0.08784,-0.10248,-0.11712,0.0732,0.08296,0.0488,-0.06832,-0.06832,-0.06832,-0.0732
-0.01464,0.06344,-0.11224,-0.10492,-0.0976,0.04148,0.07808,0.0488,-0.09272,-0.08296,-0.09272,-0.09272
-0.0488,0.1098,-0.1708,-0.1464,-0.122,0.0366,0.08296,0.0488,-0.10248,-0.09272,-0.10248,-0.11224
-0.03416,0.10248,-0.1708,-0.15372,-0.13664,0.05124,0.09272,0.05856,-0.09272,-0.08296,-0.10248,-0.10736
0.01464,0.05856,-0.13176,-0.13908,-0.1464,0.08052,0.0976,0.06832,-0.08296,-0.06832,-0.08296,-0.08784
-0.01464,0.07564,-0.13664,-0.12932,-0.122,0.05368,0.08296,0.05368,-0.09272,-0.0732,-0.08784,-0.09272
-0.04392,0.11224,-0.18056,-0.1586,-0.13664,0.04636,0.06832,0.03416,-0.11224,-0.09272,-0.0976,-0.11224
-0.01952,0.09516,-0.1708,-0.16104,-0.15128,0.06588,0.06832,0.03416,-0.11712,-0.0976,-0.0976,-0.12688
0.01464,0.05368,-0.122,-0.12932,-0.13664,0.07564,0.07808,0.04392,-0.10736,-0.0976,-0.08784,-0.10736
0.00976,0.06344,-0.13664,-0.14152,-0.1464,0.07808,0.07808,0.03904,-0.11224,-0.122,-0.10248,-0.12688
-0.03416,0.11224,-0.19032,-0.17324,-0.15616,0.061,0.0732,0.0244,-0.14152,-0.13664,-0.10248,-0.13664
-0.01952,0.10492,-0.19032,-0.18056,-0.1708,0.07564,0.0732,0.02928,-0.13664,-0.13664,-0.09272,-0.122
0.00488,0.08052,-0.16592,-0.16836,-0.1708,0.08784,0.07808,0.03904,-0.1464,-0.13664,-0.08784,-0.11224
0.01952,0.0732,-0.16592,-0.17568,-0.18544,0.10248,0.06832,0.03904,-0.16592,-0.15616,-0.09272,-0.122
-0.01464,0.11712,-0.2196,-0.21228,-0.20496,0.09516,0.06832,0.0244,-0.18056,-0.15616,-0.11224,-0.14152
-0.01464,0.1098,-0.20496,-0.19764,-0.19032,0.08784,0.07808,0.02928,-0.1708,-0.1464,-0.10736,-0.14152
0.00488,0.07564,-0.15616,-0.1586,-0.16104,0.08296,0.07808,0.03904,-0.14152,-0.11224,-0.10736,-0.13176
0.0244,0.05368,-0.13176,-0.14396,-0.15616,0.09028,0.08296,0.04392,-0.12688,-0.09272,-0.09272,-0.11712
-0.00488,0.08296,-0.16104,-0.1586,-0.15616,0.07564,0.08784,0.04392,-0.12688,-0.08784,-0.0976,-0.122
-0.00976,0.07808,-0.1464,-0.14152,-0.13664,0.06344,0.09272,0.0488,-0.11224,-0.07808,-0.0976,-0.10736
-0.03416,0.09028,-0.1464,-0.12932,-0.11224,0.03904,0.0976,0.05856,-0.08784,-0.06832,-0.10248,-0.09272
-0.00488,0.061,-0.11712,-0.11468,-0.11224,0.05368,0.10248,0.07808,-0.06832,-0.0488,-0.09272,-0.08296
0,0.05124,-0.10248,-0.10248,-0.10248,0.05124,0.10248,0.08296,-0.05368,-0.02928,-0.08296,-0.0732
0.00976,0.04392,-0.0976,-0.10248,-0.10736,0.05856,0.0976,0.0732,-0.05856,-0.0244,-0.08784,-0.08296
-0.01464,0.061,-0.10736,-0.10004,-0.09272,0.03904,0.0976,0.06832,-0.05856,-0.04392,-0.09272,-0.08784
0.00488,0.04392,-0.09272,-0.09516,-0.0976,0.05124,0.10736,0.07808,-0.03904,-0.03904,-0.07808,-0.08784
0.01464,0.03172,-0.07808,-0.0854,-0.09272,0.05368,0.10248,0.08296,-0.03416,-0.0244,-0.07808,-0.08296
0.03416,0.00488,-0.04392,-0.061,-0.07808,0.05612,0.10736,0.07808,-0.02928,-0.0244,-0.08296,-0.08784
0.01952,0.0244,-0.06832,-0.07808,-0.08784,0.05368,0.10736,0.0732,-0.0488,-0.0244,-0.08784,-0.10248
0.00488,0.0366,-0.07808,-0.08052,-0.08296,0.04392,0.10248,0.08296,-0.0488,-0.03416,-0.0976,-0.09272
0.01464,0.03172,-0.07808,-0.0854,-0.09272,0.05368,0.09272,0.08296,-0.03416,-0.0244,-0.08784,-0.08296
0.08296,-0.0366,-0.00976,-0.05124,-0.09272,0.08784,0.10248,0.10736,-0.0244,-0.00976,-0.06344,-0.0488
0,0.03904,-0.07808,-0.07808,-0.07808,0.03904,0.10736,0.08784,-0.03904,-0.02928,-0.08784,-0.07808
-0.01952,0.05856,-0.0976,-0.08784,-0.07808,0.02928,0.0976,0.06832,-0.03904,-0.03904,-0.0976,-0.08784
-0.02928,0.06832,-0.10736,-0.09272,-0.07808,0.0244,0.0976,0.05856,-0.03904,-0.0488,-0.10736,-0.08784
0.00976,0.03416,-0.07808,-0.08296,-0.08784,0.0488,0.10736,0.07808,-0.02928,-0.0488,-0.0976,-0.0976
0.03904,0.00488,-0.0488,-0.06832,-0.08784,0.06344,0.10736,0.08784,-0.02928,-0.0488,-0.08784,-0.0976
0.00976,0.03416,-0.07808,-0.08296,-0.08784,0.0488,0.0976,0.07808,-0.03904,-0.05856,-0.0976,-0.0976
-0.00976,0.05368,-0.0976,-0.09272,-0.08784,0.03904,0.08784,0.06832,-0.03904,-0.06832,-0.10736,-0.0976
0.00976,0.02928,-0.06832,-0.0732,-0.07808,0.04392,0.0976,0.07808,-0.02928,-0.05856,-0.08784,-0.08784
0.01952,0.01464,-0.0488,-0.05856,-0.06832,0.04392,0.0976,0.07808,-0.01952,-0.0488,-0.07808,-0.07808
0,0.03416,-0.06832,-0.06832,-0.06832,0.03416,0.08784,0.06832,-0.02928,-0.06832,-0.0976,-0.08784
-0.01952,0.05368,-0.08784,-0.07808,-0.06832,0.0244,0.08784,0.06832,-0.03904,-0.07808,-0.10736,-0.0976
0,0.03416,-0.06832,-0.06832,-0.06832,0.03416,0.08784,0.07808,-0.02928,-0.06832,-0.0976,-0.0976
0.00976,0.0244,-0.05856,-0.06344,-0.06832,0.03904,0.08784,0.07808,-0.02928,-0.05856,-0.0976,-0.0976
0,0.03416,-0.06832,-0.06832,-0.06832,0.03416,0.0976,0.06832,-0.01952,-0.05856,-0.10736,-0.0976
-0.00976,0.03904,-0.06832,-0.06344,-0.05856,0.0244,0.0976,0.05856,-0.01952,-0.05856,-0.10736,-0.0976
-0.01952,0.0488,-0.07808,-0.06832,-0.05856,0.01952,0.08784,0.05856,-0.03904,-0.05856,-0.10736,-0.10736
-0.02928,0.05856,-0.08784,-0.0732,-0.05856,0.01464,0.08784,0.05856,-0.0488,-0.05856,-0.10736,-0.10736
-0.02928,0.05856,-0.08784,-0.0732,-0.05856,0.01464,0.0976,0.06832,-0.03904,-0.0488,-0.0976,-0.0976
-0.02928,0.05856,-0.08784,-0.0732,-0.05856,0.01464,0.0976,0.06832,-0.03904,-0.0488,-0.0976,-0.0976
-0.03904,0.0732,-0.10736,-0.08784,-0.06832,0.01464,0.08784,0.05856,-0.0488,-0.0488,-0.10736,-0.10736
-0.03904,0.08296,-0.12688,-0.10736,-0.08784,0.0244,0.08784,0.0488,-0.05856,-0.0488,-0.11712,-0.10736
-0.01952,0.05856,-0.0976,-0.08784,-0.07808,0.02928,0.08784,0.05856,-0.0488,-0.02928,-0.10736,-0.0976
-0.00976,0.04392,-0.07808,-0.0732,-0.06832,0.02928,0.08784,0.05856,-0.03904,-0.01952,-0.10736,-0.0976
-0.01952,0.05856,-0.0976,-0.08784,-0.07808,0.02928,0.07808,0.0488,-0.0488,-0.01952,-0.10736,-0.0976
-0.02928,0.0732,-0.11712,-0.10248,-0.08784,0.02928,0.07808,0.0488,-0.05856,-0.01952,-0.10736,-0.0976
-0.02928,0.06832,-0.10736,-0.09272,-0.07808,0.0244,0.08784,0.06832,-0.0488,-0.01952,-0.11712,-0.10736
-0.02928,0.06832,-0.10736,-0.09272,-0.07808,0.0244,0.08784,0.07808,-0.03904,-0.01952,-0.11712,-0.10736
-0.02928,0.06832,-0.10736,-0.09272,-0.07808,0.0244,0.07808,0.06832,-0.0488,-0.01952,-0.12688,-0.11712
-0.02928,0.06832,-0.10736,-0.09272,-0.07808,0.0244,0.07808,0.05856,-0.0488,-0.01952,-0.12688,-0.12688
-0.03904,0.07808,-0.11712,-0.0976,-0.07808,0.01952,0.08784,0.05856,-0.0488,-0.00976,-0.11712,-0.11712
-0.03904,0.07808,-0.11712,-0.0976,-0.07808,0.01952,0.08784,0.05856,-0.0488,-0.00976,-0.10736,-0.10736
-0.02928,0.06832,-0.10736,-0.09272,-0.07808,0.0244,0.07808,0.05856,-0.0488,-0.01952,-0.11712,-0.10736
-0.01952,0.06344,-0.10736,-0.0976,-0.08784,0.03416,0.06832,0.05856,-0.0488,-0.02928,-0.11712,-0.10736
-0.02928,0.0732,-0.11712,-0.10248,-0.08784,0.02928,0.07808,0.06832,-0.05856,-0.02928,-0.11712,-0.11712
-0.03904,0.08296,-0.12688,-0.10736,-0.08784,0.0244,0.08784,0.06832,-0.05856,-0.02928,-0.11712,-0.11712
-0.02928,0.0732,-0.11712,-0.10248,-0.08784,0.02928,0.07808,0.05856,-0.06832,-0.03904,-0.12688,-0.12688
-0.01952,0.06344,-0.10736,-0.0976,-0.08784,0.03416,0.06832,0.05856,-0.06832,-0.03904,-0.13664,-0.13664
-0.02928,0.06344,-0.0976,-0.08296,-0.06832,0.01952,0.07808,0.0488,-0.05856,-0.02928,-0.12688,-0.12688
-0.03904,0.06832,-0.0976,-0.07808,-0.05856,0.00976,0.07808,0.0488,-0.05856,-0.01952,-0.11712,-0.12688
-0.02928,0.06344,-0.0976,-0.08296,-0.06832,0.01952,0.06832,0.0488,-0.0488,-0.01952,-0.11712,-0.11712
-0.01952,0.05856,-0.0976,-0.08784,-0.07808,0.02928,0.06832,0.0488,-0.0488,-0.01952,-0.11712,-0.11712
-0.02928,0.0732,-0.11712,-0.10248,-0.08784,0.02928,0.07808,0.05856,-0.05856,-0.01952,-0.10736,-0.10736
-0.03904,0.08296,-0.12688,-0.10736,-0.08784,0.0244,0.07808,0.05856,-0.05856,-0.01952,-0.10736,-0.10736
-0.0488,0.08784,-0.12688,-0.10248,-0.07808,0.01464,0.08784,0.06832,-0.05856,-0.00976,-0.10736,-0.0976
-0.05856,0.09272,-0.12688,-0.0976,-0.06832,0.00488,0.08784,0.06832,-0.05856,-0.00976,-0.10736,-0.0976
-0.0488,0.09272,-0.13664,-0.11224,-0.08784,0.01952,0.07808,0.05856,-0.06832,-0.01952,-0.11712,-0.10736
-0.0488,0.0976,-0.1464,-0.122,-0.0976,0.0244,0.07808,0.0488,-0.06832,-0.01952,-0.11712,-0.11712
-0.0488,0.0976,-0.1464,-0.122,-0.0976,0.0244,0.07808,0.05856,-0.05856,-0.01952,-0.12688,-0.12688
-0.0488,0.0976,-0.1464,-0.122,-0.0976,0.0244,0.07808,0.05856,-0.05856,-0.01952,-0.13664,-0.12688
-0.0488,0.0976,-0.1464,-0.122,-0.0976,0.0244,0.07808,0.0488,-0.06832,-0.02928,-0.12688,-0.11712
-0.0488,0.0976,-0.1464,-0.122,-0.0976,0.0244,0.07808,0.0488,-0.06832,-0.02928,-0.11712,-0.11712
-0.05856,0.10248,-0.1464,-0.11712,-0.08784,0.01464,0.07808,0.0488,-0.06832,-0.03904,-0.12688,-0.12688
-0.05856,0.10248,-0.1464,-0.11712,-0.08784,0.01464,0.07808,0.0488,-0.06832,-0.0488,-0.13664,-0.13664
-0.0488,0.0976,-0.1464,-0.122,-0.0976,0.0244,0.07808,0.0488,-0.05856,-0.03904,-0.13664,-0.12688
-0.0488,0.0976,-0.1464,-0.122,-0.0976,0.0244,0.07808,0.0488,-0.05856,-0.03904,-0.13664,-0.12688
-0.05856,0.0976,-0.13664,-0.10736,-0.07808,0.00976,0.06832,0.05856,-0.05856,-0.02928,-0.13664,-0.12688
-0.05856,0.0976,-0.13664,-0.10736,-0.07808,0.00976,0.05856,0.05856,-0.05856,-0.02928,-0.13664,-0.12688
-0.06832,0.11224,-0.15616,-0.122,-0.08784,0.00976,0.06832,0.06832,-0.05856,-0.00976,-0.12688,-0.12688
-0.06344,0.10492,-0.1464,-0.11468,-0.08296,0.00976,0.07808,0.06344,-0.05856,0.00976,-0.12688,-0.122
-0.05856,0.1098,-0.16104,-0.13176,-0.10248,0.02196,0.06344,0.05856,-0.06344,0.00488,-0.14152,-0.13176
-0.05856,0.10736,-0.15616,-0.12688,-0.0976,0.01952,0.06832,0.06344,-0.06344,0,-0.13176,-0.13176
-0.05368,0.10004,-0.1464,-0.11956,-0.09272,0.01952,0.06832,0.05368,-0.0732,0.00976,-0.13176,-0.122
-0.04392,0.09516,-0.1464,-0.12444,-0.10248,0.02928,0.06832,0.05856,-0.0732,0.00976,-0.13664,-0.122
-0.05368,0.0976,-0.14152,-0.11468,-0.08784,0.01708,0.07808,0.06832,-0.06344,0.00976,-0.13176,-0.122
-0.0732,0.11224,-0.15128,-0.11468,-0.07808,0.00244,0.07808,0.06832,-0.05368,0.01464,-0.11224,-0.122
-0.0488,0.08784,-0.12688,-0.10248,-0.07808,0.01464,0.08784,0.0732,-0.03416,0.0244,-0.11712,-0.122
-0.05368,0.08296,-0.11224,-0.0854,-0.05856,0.00244,0.09272,0.0732,-0.03416,0.0244,-0.122,-0.11712
-0.04392,0.07808,-0.11224,-0.09028,-0.06832,0.0122,0.10248,0.0732,-0.02928,0.0244,-0.11224,-0.11224
-0.05856,0.09028,-0.122,-0.09272,-0.06344,0.00244,0.10248,0.0732,-0.02928,0.01464,-0.11224,-0.11224
-0.06344,0.08296,-0.10248,-0.07076,-0.03904,-0.0122,0.0976,0.08296,-0.01464,0.0244,-0.11712,-0.11712
-0.06344,0.0732,-0.08296,-0.05124,-0.01952,-0.02196,0.0732,0.06832,-0.00976,0.03416,-0.10248,-0.10736
-0.0488,0.061,-0.0732,-0.0488,-0.0244,-0.0122,0.06832,0.05368,-0.01952,0.0244,-0.10248,-0.11224
-0.0488,0.06588,-0.08296,-0.05856,-0.03416,-0.00732,0.05368,0.04392,-0.0244,0.00976,-0.0976,-0.10736
-0.02928,0.04148,-0.05368,-0.03904,-0.0244,-0.00244,0.03904,0.0488,-0.01952,0.01952,-0.0976,-0.09272
-0.05368,0.07076,-0.08784,-0.061,-0.03416,-0.00976,0.02928,0.03904,-0.03904,0.01952,-0.10248,-0.08784
-0.00976,0.0366,-0.06344,-0.05856,-0.05368,0.02196,0.01464,0.03416,-0.04392,0.0244,-0.08784,-0.07808
-0.0244,0.05612,-0.08784,-0.07564,-0.06344,0.01952,0.0244,0.03416,-0.05368,0.01464,-0.08296,-0.07808
-0.03416,0.06588,-0.0976,-0.08052,-0.06344,0.01464,0.0488,0.04392,-0.0488,0.00976,-0.10248,-0.08784
-0.06832,0.09028,-0.11224,-0.07808,-0.04392,-0.0122,0.05856,0.04392,-0.0488,0.00976,-0.11712,-0.10248
-0.0488,0.07564,-0.10248,-0.07808,-0.05368,0.00244,0.05856,0.0488,-0.05856,0.00488,-0.11224,-0.10248
-0.04392,0.0732,-0.10248,-0.08052,-0.05856,0.00732,0.0488,0.0488,-0.06344,0.00488,-0.11224,-0.11224
-0.0244,0.05612,-0.08784,-0.07564,-0.06344,0.01952,0.03904,0.0488,-0.06344,-0.00488,-0.10248,-0.09272
-0.01464,0.05368,-0.09272,-0.0854,-0.07808,0.03172,0.0488,0.05368,-0.06832,-0.00488,-0.10736,-0.08784
-0.02928,0.07076,-0.11224,-0.0976,-0.08296,0.02684,0.0488,0.04392,-0.07808,-0.01952,-0.11712,-0.10248
-0.05856,0.0976,-0.13664,-0.10736,-0.07808,0.00976,0.06344,0.0488,-0.08784,-0.02928,-0.122,-0.11712
-0.06344,0.11224,-0.16104,-0.12932,-0.0976,0.01708,0.0732,0.06344,-0.09272,-0.0488,-0.13664,-0.11712
-0.06832,0.122,-0.17568,-0.14152,-0.10736,0.01952,0.07808,0.06344,-0.0976,-0.05368,-0.12688,-0.11224
-0.05368,0.11224,-0.1708,-0.14396,-0.11712,0.03172,0.07808,0.06344,-0.10248,-0.05856,-0.13176,-0.11712
-0.05368,0.11712,-0.18056,-0.15372,-0.12688,0.0366,0.08296,0.06344,-0.10736,-0.06344,-0.13664,-0.11712
-0.06344,0.122,-0.18056,-0.14884,-0.11712,0.02684,0.0732,0.0732,-0.0976,-0.05856,-0.1464,-0.12688
-0.05368,0.11224,-0.1708,-0.14396,-0.11712,0.03172,0.08296,0.07808,-0.08784,-0.05856,-0.14152,-0.12688
-0.05368,0.11468,-0.17568,-0.14884,-0.122,0.03416,0.08784,0.0732,-0.10248,-0.06832,-0.14152,-0.14152
-0.05368,0.11468,-0.17568,-0.14884,-0.122,0.03416,0.08784,0.0732,-0.10248,-0.06832,-0.14152,-0.14152
-0.05368,0.11224,-0.1708,-0.14396,-0.11712,0.03172,0.07808,0.07808,-0.08784,-0.05368,-0.13176,-0.12688
-0.05368,0.10248,-0.15128,-0.12444,-0.0976,0.02196,0.07808,0.08784,-0.07808,-0.0488,-0.11224,-0.10736
-0.04392,0.0976,-0.15128,-0.12932,-0.10736,0.03172,0.08296,0.0732,-0.08784,-0.05368,-0.122,-0.11712
-0.04392,0.09272,-0.14152,-0.11956,-0.0976,0.02684,0.08296,0.06344,-0.08296,-0.0488,-0.10736,-0.11712
-0.0976,0.13908,-0.18056,-0.13176,-0.08296,-0.00732,0.08296,0.0732,-0.09272,-0.05368,-0.11712,-0.122
-0.03904,0.09272,-0.1464,-0.12688,-0.10736,0.03416,0.06832,0.08296,-0.06344,-0.04392,-0.122,-0.10248
-0.0732,0.1098,-0.1464,-0.1098,-0.0732,0,0.0976,0.11224,-0.03416,-0.03904,-0.13176,-0.14152
-0.0732,0.09516,-0.11712,-0.08052,-0.04392,-0.01464,0.1464,0.16592,0.05856,-0.0488,-0.1952,-0.22936
-0.1708,0.16104,-0.15128,-0.06588,0.01952,-0.09516,0.23424,0.2684,0.15616,-0.11224,-0.33672,-0.40992
-0.13664,0.11956,-0.10248,-0.03416,0.03416,-0.0854,0.25864,0.35624,0.28792,-0.11224,-0.37576,-0.45384
-0.0732,0.03416,0.00488,0.04148,0.07808,-0.07564,0.19032,0.34648,0.38064,0.02928,-0.22448,-0.30256
0.02928,-0.15372,0.27816,0.26352,0.24888,-0.1098,0.05856,0.26352,0.5612,0.32208,0.10248,0.00976
0.15616,-0.37332,0.59048,0.5124,0.43432,-0.13908,-0.13176,0.08784,0.58072,0.61488,0.54656,0.488
0.30256,-0.61732,0.93208,0.7808,0.62952,-0.16348,-0.33184,-0.10736,0.52216,0.95648,1.09312,1.08336
0.41968,-0.85888,1.29808,1.08824,0.8784,-0.22936,-0.60024,-0.40016,0.47824,1.34688,1.71288,1.72264
0.52216,-1.0614,1.60064,1.33956,1.07848,-0.27816,-0.7808,-0.55632,0.47336,1.81536,2.3424,2.32776
0.42944,-1.00284,1.57624,1.36152,1.1468,-0.35868,-0.77104,-0.60024,0.35136,1.96176,2.5132,2.42536
0.3172,-0.78812,1.25904,1.10044,0.94184,-0.31232,-0.66856,-0.52704,0.11224,1.54696,1.93736,1.88368
0.18056,-0.46604,0.75152,0.66124,0.57096,-0.1952,-0.4636,-0.35136,-0.12688,0.88816,1.0248,0.99552
0.02928,-0.1464,0.26352,0.24888,0.23424,-0.10248,-0.23424,-0.1952,-0.38552,0.03904,0.14152,0.1952
-0.00488,-0.04392,0.09272,0.09516,0.0976,-0.05124,-0.14152,-0.09272,-0.3904,-0.1464,-0.04392,0.00976
0.01464,-0.04636,0.07808,0.07076,0.06344,-0.0244,-0.11712,-0.07808,-0.26352,-0.01952,0.03904,0.09272
-0.01464,-0.03416,0.08296,0.09028,0.0976,-0.05612,-0.08296,-0.04392,-0.16104,0.06832,0.0732,0.10248
-0.0244,-0.00732,0.03904,0.05124,0.06344,-0.04392,-0.05856,-0.02928,-0.10736,0.10248,0.05856,0.0732
-0.00976,-0.00976,0.02928,0.03416,0.03904,-0.0244,-0.01464,0.0244,-0.06344,0.09272,0.03416,0.03904
-0.03416,0.02196,-0.00976,0.00732,0.0244,-0.02928,-0.00488,0.03416,-0.0488,0.06344,-0.0244,-0.02928
-0.01464,0.01464,-0.01464,-0.00732,0,-0.00732,-0.00976,0.04392,-0.03904,0.06344,-0.05368,-0.0488
-0.03904,0.03416,-0.02928,-0.00976,0.00976,-0.0244,0.00488,0.04392,-0.03904,0.05368,-0.02928,-0.03904
-0.03904,0.03416,-0.02928,-0.00976,0.00976,-0.0244,0.0244,0.05368,-0.01952,0.03416,-0.04392,-0.05368
-0.04392,0.04148,-0.03904,-0.01708,0.00488,-0.0244,0.0244,0.0488,-0.01952,-0.00976,-0.06832,-0.06832
-0.02928,0.02684,-0.0244,-0.00976,0.00488,-0.01708,0.0244,0.05368,-0.0244,-0.05368,-0.06832,-0.0732
-0.05368,0.05368,-0.05368,-0.02684,0,-0.02684,0.01464,0.05368,-0.0244,-0.10736,-0.07808,-0.07808
-0.03416,0.04148,-0.0488,-0.03172,-0.01464,-0.00976,0.02928,0.06344,-0.01464,-0.12688,-0.07808,-0.07808
-0.03904,0.04392,-0.0488,-0.02928,-0.00976,-0.01464,0.02928,0.06832,-0.01464,-0.15128,-0.07808,-0.07808
-0.04392,0.04392,-0.04392,-0.02196,0,-0.02196,0.02928,0.07808,-0.01464,-0.1708,-0.08784,-0.08296
-0.05368,0.05612,-0.05856,-0.03172,-0.00488,-0.0244,0.01952,0.0732,-0.01464,-0.16592,-0.08296,-0.08296
-0.0488,0.05856,-0.06832,-0.04392,-0.01952,-0.01464,0.02928,0.06832,-0.00976,-0.16104,-0.07808,-0.08296
-0.04392,0.05856,-0.0732,-0.05124,-0.02928,-0.00732,0.03416,0.06832,-0.00976,-0.15128,-0.0732,-0.07808
-0.03416,0.04148,-0.0488,-0.03172,-0.01464,-0.00976,0.03904,0.07808,0.00488,-0.12688,-0.06344,-0.06832
-0.0488,0.05124,-0.05368,-0.02928,-0.00488,-0.02196,0.04392,0.07808,0.00976,-0.10248,-0.06344,-0.07808
-0.03904,0.04392,-0.0488,-0.02928,-0.00976,-0.01464,0.06344,0.09272,0.01952,-0.05368,-0.0488,-0.05856
-0.03904,0.0488,-0.05856,-0.03904,-0.01952,-0.00976,0.06344,0.08784,0.01952,-0.0244,-0.05856,-0.05856
-0.03904,0.04636,-0.05368,-0.03416,-0.01464,-0.0122,0.06344,0.08784,0.01952,0.00976,-0.05368,-0.06344
-0.03904,0.04636,-0.05368,-0.03416,-0.01464,-0.0122,0.06344,0.07808,0.01952,0.01464,-0.05856,-0.05856
-0.03904,0.04636,-0.05368,-0.03416,-0.01464,-0.0122,0.05368,0.08296,0.03904,0.03416,-0.05856,-0.0488
-0.05856,0.061,-0.06344,-0.03416,-0.00488,-0.02684,0.05856,0.08296,0.03416,0.03416,-0.05856,-0.05856
-0.05856,0.05856,-0.05856,-0.02928,0,-0.02928,0.05856,0.09272,0.04392,0.02928,-0.05368,-0.04392
-0.04392,0.04148,-0.03904,-0.01708,0.00488,-0.0244,0.0488,0.09272,0.04392,0.01952,-0.05368,-0.05368
-0.01952,0.0244,-0.02928,-0.01952,-0.00976,-0.00488,0.03904,0.0976,0.04392,0.01464,-0.05856,-0.05368
-0.00976,0.0122,-0.01464,-0.00976,-0.00488,-0.00244,0.03904,0.0976,0.04392,0,-0.05368,-0.06344
-0.00976,0.01464,-0.01952,-0.01464,-0.00976,0,0.03904,0.07808,0.04392,-0.0244,-0.05368,-0.05856
-0.01952,0.02196,-0.0244,-0.01464,-0.00488,-0.00732,0.04392,0.07808,0.04392,-0.03904,-0.05368,-0.06344
-0.02928,0.0244,-0.01952,-0.00488,0.00976,-0.01952,0.03904,0.09272,0.06344,-0.04392,-0.03904,-0.06832
-0.00976,0.00976,-0.00976,-0.00488,0,-0.00488,0.04392,0.0976,0.06832,-0.04392,-0.03416,-0.06344
-0.01952,0.01464,-0.00976,0,0.00976,-0.01464,0.04392,0.08296,0.0732,-0.05368,-0.03904,-0.06832
-0.01952,0.0122,-0.00488,0.00488,0.01464,-0.01708,0.04392,0.08784,0.0732,-0.03904,-0.03416,-0.05368
-0.0244,0.01708,-0.00976,0.00244,0.01464,-0.01952,0.04392,0.08784,0.06832,-0.0244,-0.0244,-0.05856
-0.00488,-0.00244,0.00976,0.0122,0.01464,-0.00976,0.04392,0.08784,0.07808,-0.01952,-0.01952,-0.05368
-0.01952,0.0122,-0.00488,0.00488,0.01464,-0.01708,0.04392,0.08296,0.06832,0,-0.01952,-0.05856
-0.00976,0,0.00976,0.01464,0.01952,-0.01464,0.03416,0.08296,0.07808,0.01952,-0.01952,-0.0488
-0.03904,0.0244,-0.00976,0.00976,0.02928,-0.03416,0.01952,0.08784,0.08296,0.03416,-0.02928,-0.05856
-0.00976,-0.00976,0.02928,0.03416,0.03904,-0.0244,0.0244,0.08784,0.10248,0.06344,-0.0244,-0.05368
-0.01464,0.00244,0.00976,0.01708,0.0244,-0.01952,0.00488,0.08296,0.10248,0.08784,-0.0244,-0.05856
-0.00488,-0.00976,0.0244,0.02684,0.02928,-0.01708,0.00976,0.08784,0.11712,0.13664,-0.00976,-0.03904
-0.00976,-0.00976,0.02928,0.03416,0.03904,-0.0244,0.00976,0.08784,0.12688,0.15616,0,-0.02928
-0.00488,-0.0244,0.05368,0.05612,0.05856,-0.03172,0.01952,0.09272,0.13664,0.18056,0.00488,-0.0244
-0.01464,-0.01952,0.05368,0.061,0.06832,-0.04148,0.01464,0.0732,0.14152,0.18056,0.00488,-0.02928
-0.00488,-0.02928,0.06344,0.06588,0.06832,-0.0366,0.00976,0.07808,0.15128,0.20496,0.01464,-0.02928
-0.00488,-0.0366,0.07808,0.08052,0.08296,-0.04392,0.00488,0.06832,0.15128,0.21472,0.01952,-0.03416
-0.00488,-0.04148,0.08784,0.09028,0.09272,-0.0488,-0.00488,0.0732,0.16104,0.22448,0.03416,-0.01952
-0.00488,-0.03904,0.08296,0.0854,0.08784,-0.04636,-0.00488,0.0732,0.1708,0.2196,0.03904,-0.00976
0.00976,-0.05368,0.0976,0.09272,0.08784,-0.03904,-0.00976,0.06832,0.18544,0.23424,0.05368,-0.00976
0.00976,-0.061,0.11224,0.10736,0.10248,-0.04636,-0.01464,0.0732,0.1952,0.25376,0.06344,0.00976
0.00976,-0.0732,0.13664,0.13176,0.12688,-0.05856,-0.01952,0.07808,0.20496,0.2684,0.0732,0.01952
0.01464,-0.0854,0.15616,0.14884,0.14152,-0.06344,-0.03416,0.06832,0.20984,0.27328,0.07808,0.0244
0.01952,-0.09516,0.1708,0.16104,0.15128,-0.06588,-0.0488,0.06344,0.22936,0.28304,0.09272,0.03904
0.01952,-0.10004,0.18056,0.1708,0.16104,-0.07076,-0.05856,0.06832,0.23424,0.30744,0.11712,0.05368
0.0244,-0.10492,0.18544,0.17324,0.16104,-0.06832,-0.06832,0.06832,0.244,0.32208,0.12688,0.05368
0.03416,-0.13176,0.22936,0.21228,0.1952,-0.08052,-0.06832,0.06832,0.26352,0.35136,0.15128,0.08784
0.0488,-0.1464,0.244,0.2196,0.1952,-0.0732,-0.07808,0.0732,0.2928,0.38064,0.17568,0.10736
0.04392,-0.15128,0.25864,0.23668,0.21472,-0.0854,-0.08784,0.06344,0.30744,0.40504,0.20008,0.122
0.03416,-0.15372,0.27328,0.2562,0.23912,-0.10248,-0.0976,0.06344,0.3172,0.43432,0.2196,0.14152
0.04392,-0.17568,0.30744,0.28548,0.26352,-0.1098,-0.10736,0.05368,0.3416,0.45872,0.25376,0.15128
0.05368,-0.18788,0.32208,0.29524,0.2684,-0.10736,-0.11712,0.05368,0.35624,0.50264,0.28304,0.18056
0.09272,-0.22692,0.36112,0.31476,0.2684,-0.08784,-0.13664,0.05856,0.36112,0.52704,0.31232,0.20008
0.07808,-0.2196,0.36112,0.32208,0.28304,-0.10248,-0.1464,0.0488,0.37088,0.55632,0.33184,0.21472
0.08784,-0.24156,0.39528,0.35136,0.30744,-0.1098,-0.15128,0.03904,0.39528,0.5856,0.35136,0.23912
0.06832,-0.22936,0.3904,0.35624,0.32208,-0.12688,-0.1708,0.02928,0.40016,0.61,0.37088,0.25864
0.08784,-0.24888,0.40992,0.366,0.32208,-0.11712,-0.17568,0.0244,0.42456,0.64904,0.4148,0.2928
0.0732,-0.24644,0.41968,0.38308,0.34648,-0.13664,-0.18544,0.0244,0.42456,0.66368,0.43432,0.31232
0.08296,-0.26352,0.44408,0.4026,0.36112,-0.13908,-0.19032,0.0244,0.43432,0.68808,0.45384,0.32696
0.09272,-0.27328,0.45384,0.40748,0.36112,-0.1342,-0.20008,0.00976,0.43432,0.7076,0.47824,0.34648
0.0976,-0.29036,0.48312,0.43432,0.38552,-0.14396,-0.20496,0.00488,0.42944,0.71736,0.488,0.36112
0.0976,-0.29036,0.48312,0.43432,0.38552,-0.14396,-0.20984,0,0.42944,0.72712,0.49288,0.37088
0.10736,-0.29768,0.488,0.43432,0.38064,-0.13664,-0.21472,-0.01952,0.41968,0.73688,0.50264,0.38552
0.10248,-0.29524,0.488,0.43676,0.38552,-0.14152,-0.21472,-0.01952,0.4148,0.732,0.50752,0.38552
0.10248,-0.29768,0.49288,0.44164,0.3904,-0.14396,-0.2196,-0.01952,0.40504,0.72224,0.52216,0.39528
0.10248,-0.28548,0.46848,0.41724,0.366,-0.13176,-0.2196,-0.01952,0.38552,0.70272,0.50752,0.3904
0.08784,-0.26352,0.4392,0.39528,0.35136,-0.13176,-0.20496,-0.0244,0.36112,0.66856,0.49776,0.38064
0.08784,-0.25864,0.42944,0.38552,0.3416,-0.12688,-0.1952,-0.0244,0.33184,0.62952,0.46848,0.366
0.0732,-0.22936,0.38552,0.34892,0.31232,-0.11956,-0.18544,-0.01464,0.30744,0.58072,0.42944,0.33184
0.06344,-0.21228,0.36112,0.3294,0.29768,-0.11712,-0.17568,-0.01952,0.27816,0.52704,0.3904,0.2928
0.03416,-0.17812,0.32208,0.305,0.28792,-0.12688,-0.16104,-0.0244,0.22936,0.45384,0.3416,0.2684
0.05368,-0.17324,0.2928,0.26596,0.23912,-0.09272,-0.1464,-0.00976,0.20496,0.40992,0.30256,0.23424
0.03416,-0.13176,0.22936,0.21228,0.1952,-0.08052,-0.11712,-0.00976,0.1708,0.37576,0.25376,0.18544
0.0244,-0.11712,0.20984,0.19764,0.18544,-0.08052,-0.0976,-0.01464,0.1464,0.32696,0.2196,0.16104
-0.00976,-0.07076,0.15128,0.15616,0.16104,-0.0854,-0.08296,0,0.11712,0.27816,0.17568,0.12688
-0.00976,-0.06344,0.13664,0.14152,0.1464,-0.07808,-0.06832,0.00488,0.09272,0.23424,0.14152,0.09272
0,-0.04392,0.08784,0.08784,0.08784,-0.04392,-0.05856,0.00976,0.06832,0.20984,0.11224,0.06344
-0.01464,-0.02928,0.0732,0.08052,0.08784,-0.05124,-0.03904,0.00976,0.05856,0.18544,0.08784,0.05856
-0.01464,-0.01952,0.05368,0.061,0.06832,-0.04148,-0.03904,0.01464,0.03416,0.16104,0.0488,0.03904
-0.01464,-0.0244,0.06344,0.07076,0.07808,-0.04636,-0.02928,0.01464,0.0244,0.13664,0.03416,0.01952
-0.03416,0.00732,0.01952,0.0366,0.05368,-0.04392,-0.01464,0.0244,0.00976,0.11224,0.00976,0
-0.03416,0.02196,-0.00976,0.00732,0.0244,-0.02928,-0.00488,0.01952,0,0.0976,-0.00488,-0.0244
-0.05856,0.04148,-0.0244,0.00488,0.03416,-0.04636,0,0.0244,-0.00976,0.07808,-0.01464,-0.03416
-0.05368,0.03416,-0.01464,0.0122,0.03904,-0.04636,0,0.0244,-0.01464,0.0732,-0.0244,-0.03904
-0.06832,0.0488,-0.02928,0.00488,0.03904,-0.05368,0.00976,0.01952,-0.0244,0.06344,-0.03416,-0.05368
-0.0732,0.05368,-0.03416,0.00244,0.03904,-0.05612,0.01464,0.01952,-0.02928,0.05368,-0.03904,-0.05368
-0.0732,0.06588,-0.05856,-0.02196,0.01464,-0.04392,0.01464,0.01952,-0.03416,0.0488,-0.0488,-0.05368
-0.08784,0.07808,-0.06832,-0.0244,0.01952,-0.05368,0.01952,0.01952,-0.03904,0.04392,-0.05368,-0.05368
-0.07808,0.06344,-0.0488,-0.00976,0.02928,-0.05368,0.01952,0.02928,-0.0244,0.02928,-0.0488,-0.05368
-0.0732,0.05856,-0.04392,-0.00732,0.02928,-0.05124,0.0244,0.0244,-0.0244,0.02928,-0.0488,-0.05856
-0.0732,0.05856,-0.04392,-0.00732,0.02928,-0.05124,0.01952,0.03904,-0.01952,0.03904,-0.0488,-0.05368
-0.0732,0.061,-0.0488,-0.0122,0.0244,-0.0488,0.0244,0.03904,-0.01952,0.05368,-0.03904,-0.0488
-0.06344,0.0488,-0.03416,-0.00244,0.02928,-0.04636,0.0244,0.03904,-0.01464,0.0488,-0.03904,-0.03904
-0.0732,0.05856,-0.04392,-0.00732,0.02928,-0.05124,0.0244,0.02928,-0.01464,0.0488,-0.03904,-0.04392
-0.04392,0.04148,-0.03904,-0.01708,0.00488,-0.0244,0.01952,0.03416,-0.00976,0.03416,-0.04392,-0.0488
-0.06832,0.05612,-0.04392,-0.00976,0.0244,-0.04636,0.01952,0.03416,-0.00976,0.02928,-0.04392,-0.06832
-0.0488,0.04636,-0.04392,-0.01952,0.00488,-0.02684,0.01464,0.03416,0,0.02928,-0.04392,-0.05368
-0.07808,0.07076,-0.06344,-0.0244,0.01464,-0.04636,0.01952,0.02928,-0.00976,0.01464,-0.05856,-0.05368
-0.05368,0.0488,-0.04392,-0.01708,0.00976,-0.03172,0.03416,0.03416,0.00488,0.01952,-0.03904,-0.05856
-0.07808,0.06588,-0.05368,-0.01464,0.0244,-0.05124,0.02928,0.03416,0.00488,0.01952,-0.03904,-0.05368
-0.06832,0.0488,-0.02928,0.00488,0.03904,-0.05368,0.0244,0.02928,0,0.01952,-0.03416,-0.05368
-0.05856,0.05368,-0.0488,-0.01952,0.00976,-0.03416,0.01952,0.02928,0,0.00488,-0.03416,-0.05368
-0.0488,0.0488,-0.0488,-0.0244,0,-0.0244,0.0244,0.03416,0,0,-0.04392,-0.05368
-0.07808,0.06344,-0.0488,-0.00976,0.02928,-0.05368,0.01952,0.01952,-0.00488,-0.00488,-0.04392,-0.05368
-0.06832,0.0488,-0.02928,0.00488,0.03904,-0.05368,0.01464,0.02928,0.00976,0,-0.04392,-0.0488
-0.06344,0.05124,-0.03904,-0.00732,0.0244,-0.04392,0.01464,0.02928,0.00488,-0.00976,-0.04392,-0.05368
-0.05856,0.04636,-0.03416,-0.00488,0.0244,-0.04148,0.01464,0.02928,0.00488,-0.01464,-0.03904,-0.0488
-0.06832,0.05612,-0.04392,-0.00976,0.0244,-0.04636,0.01464,0.02928,0.00488,-0.01464,-0.04392,-0.05368
-0.0732,0.05368,-0.03416,0.00244,0.03904,-0.05612,0.01952,0.01952,0.00976,-0.00976,-0.02928,-0.03904
-0.06832,0.05368,-0.03904,-0.00488,0.02928,-0.0488,0.0244,0.0244,0.00488,-0.01464,-0.03416,-0.03416
-0.06344,0.0488,-0.03416,-0.00244,0.02928,-0.04636,0.0244,0.0244,0,-0.0244,-0.04392,-0.03416
-0.05368,0.0488,-0.04392,-0.01708,0.00976,-0.03172,0.01952,0.0244,-0.00488,-0.0244,-0.04392,-0.05368
-0.05368,0.04392,-0.03416,-0.00732,0.01952,-0.0366,0.01952,0.02928,0.00976,-0.0244,-0.0244,-0.04392
-0.04392,0.03416,-0.0244,-0.00244,0.01952,-0.03172,0.01952,0.02928,0.01464,-0.03416,-0.0244,-0.04392
-0.04392,0.03172,-0.01952,0.00244,0.0244,-0.03416,0.0244,0.03416,0.01464,-0.03416,-0.02928,-0.03904
-0.05856,0.04636,-0.03416,-0.00488,0.0244,-0.04148,0.0244,0.03416,0.01464,-0.04392,-0.02928,-0.04392
-0.0488,0.03904,-0.02928,-0.00488,0.01952,-0.03416,0.03416,0.03416,0.01464,-0.05368,-0.0244,-0.03416
-0.0488,0.0366,-0.0244,0,0.0244,-0.0366,0.03416,0.03904,0.0244,-0.05368,-0.0244,-0.02928
-0.0732,0.05368,-0.03416,0.00244,0.03904,-0.05612,0.03904,0.04392,0.0244,-0.06344,-0.02928,-0.04392
-0.0488,0.04392,-0.03904,-0.01464,0.00976,-0.02928,0.03416,0.04392,0.01952,-0.0732,-0.02928,-0.04392
-0.06344,0.05856,-0.05368,-0.02196,0.00976,-0.0366,0.0488,0.04392,0.01464,-0.0976,-0.03904,-0.04392
-0.06344,0.061,-0.05856,-0.02684,0.00488,-0.03416,0.05368,0.0488,0.00976,-0.09272,-0.03904,-0.04392
-0.0488,0.05612,-0.06344,-0.03904,-0.01464,-0.01708,0.04392,0.04392,-0.00488,-0.10736,-0.04392,-0.05856
-0.04392,0.05368,-0.06344,-0.04148,-0.01952,-0.0122,0.04392,0.03904,-0.00976,-0.11224,-0.04392,-0.05856
-0.05368,0.06344,-0.0732,-0.04636,-0.01952,-0.01708,0.03416,0.03416,-0.01464,-0.10736,-0.04392,-0.05368
-0.05368,0.05856,-0.06344,-0.0366,-0.00976,-0.02196,0.04392,0.03416,-0.00976,-0.10736,-0.04392,-0.05368
-0.0732,0.0732,-0.0732,-0.0366,0,-0.0366,0.05368,0.03416,-0.00976,-0.0976,-0.03416,-0.05368
-0.05856,0.06344,-0.06832,-0.03904,-0.00976,-0.0244,0.05368,0.0488,-0.00976,-0.0976,-0.03416,-0.0488
-0.06832,0.07076,-0.0732,-0.03904,-0.00488,-0.03172,0.0488,0.03904,-0.01464,-0.10248,-0.0488,-0.05856
-0.04392,0.05368,-0.06344,-0.04148,-0.01952,-0.0122,0.04392,0.03416,-0.01952,-0.0976,-0.0488,-0.06344
-0.05368,0.061,-0.06832,-0.04148,-0.01464,-0.01952,0.0488,0.04392,-0.01952,-0.09272,-0.03904,-0.05856
-0.03904,0.05368,-0.06832,-0.0488,-0.02928,-0.00488,0.05368,0.0488,-0.01952,-0.08296,-0.03904,-0.0488
-0.0732,0.08052,-0.08784,-0.05124,-0.01464,-0.02928,0.05856,0.0488,-0.02928,-0.08784,-0.05856,-0.05856
-0.06832,0.08296,-0.0976,-0.06344,-0.02928,-0.01952,0.06344,0.0488,-0.02928,-0.08784,-0.05856,-0.06832
-0.05368,0.07808,-0.10248,-0.07564,-0.0488,-0.00244,0.05856,0.03904,-0.03416,-0.09272,-0.0732,-0.07808
-0.04392,0.0732,-0.10248,-0.08052,-0.05856,0.00732,0.05368,0.0488,-0.04392,-0.0976,-0.0732,-0.07808
-0.06832,0.08296,-0.0976,-0.06344,-0.02928,-0.01952,0.0488,0.05368,-0.0488,-0.10248,-0.06344,-0.06832
-0.06832,0.0854,-0.10248,-0.06832,-0.03416,-0.01708,0.04392,0.05368,-0.03904,-0.10248,-0.06344,-0.05856
-0.0488,0.08052,-0.11224,-0.08784,-0.06344,0.00732,0.04392,0.0488,-0.04392,-0.11712,-0.06344,-0.06832
-0.05368,0.07808,-0.10248,-0.07564,-0.0488,-0.00244,0.04392,0.0488,-0.04392,-0.11712,-0.06344,-0.06832
-0.05856,0.0854,-0.11224,-0.08296,-0.05368,-0.00244,0.05368,0.05856,-0.03904,-0.13664,-0.0732,-0.0732
-0.06344,0.09028,-0.11712,-0.0854,-0.05368,-0.00488,0.05856,0.04392,-0.03904,-0.14152,-0.0732,-0.0732
-0.05856,0.08296,-0.10736,-0.07808,-0.0488,-0.00488,0.05368,0.03904,-0.01952,-0.1464,-0.06344,-0.06832
-0.0732,0.09272,-0.11224,-0.07564,-0.03904,-0.01708,0.05856,0.0488,-0.02928,-0.1464,-0.05856,-0.06832
-0.04392,0.0732,-0.10248,-0.08052,-0.05856,0.00732,0.05856,0.05368,-0.03416,-0.16592,-0.05856,-0.06344
-0.0488,0.07808,-0.10736,-0.08296,-0.05856,0.00488,0.05856,0.0488,-0.03904,-0.16592,-0.06832,-0.06344
-0.0488,0.08052,-0.11224,-0.08784,-0.06344,0.00732,0.06832,0.05368,-0.03904,-0.18544,-0.07808,-0.06832
-0.05856,0.0854,-0.11224,-0.08296,-0.05368,-0.00244,0.06832,0.05368,-0.03904,-0.1708,-0.07808,-0.08784
-0.0488,0.07564,-0.10248,-0.07808,-0.05368,0.00244,0.05856,0.05368,-0.03904,-0.18056,-0.0732,-0.07808
-0.06832,0.09028,-0.11224,-0.07808,-0.04392,-0.0122,0.05368,0.05368,-0.03904,-0.17568,-0.07808,-0.08296
-0.05368,0.07808,-0.10248,-0.07564,-0.0488,-0.00244,0.04392,0.05368,-0.04392,-0.19032,-0.07808,-0.09272
-0.06832,0.09028,-0.11224,-0.07808,-0.04392,-0.0122,0.0488,0.05368,-0.03904,-0.19032,-0.08296,-0.08784
-0.04392,0.0732,-0.10248,-0.08052,-0.05856,0.00732,0.04392,0.0488,-0.05368,-0.19032,-0.08784,-0.08784
-0.05856,0.08784,-0.11712,-0.08784,-0.05856,0,0.04392,0.05368,-0.0488,-0.20008,-0.08784,-0.08784
-0.05368,0.08296,-0.11224,-0.0854,-0.05856,0.00244,0.05856,0.06344,-0.0488,-0.20496,-0.08296,-0.08296
-0.06832,0.09028,-0.11224,-0.07808,-0.04392,-0.0122,0.05856,0.05856,-0.0488,-0.21472,-0.07808,-0.08784
-0.06344,0.0854,-0.10736,-0.07564,-0.04392,-0.00976,0.0488,0.05368,-0.05368,-0.21472,-0.0732,-0.0976
-0.0732,0.0976,-0.122,-0.0854,-0.0488,-0.0122,0.04392,0.0488,-0.05856,-0.2196,-0.08296,-0.09272
-0.0488,0.07076,-0.09272,-0.06832,-0.04392,-0.00244,0.05856,0.0488,-0.04392,-0.22936,-0.0732,-0.08296
-0.05368,0.0854,-0.11712,-0.09028,-0.06344,0.00488,0.05856,0.04392,-0.05368,-0.22936,-0.07808,-0.08784
-0.0732,0.0976,-0.122,-0.0854,-0.0488,-0.0122,0.05856,0.04392,-0.04392,-0.22936,-0.08784,-0.08784
-0.06344,0.08784,-0.11224,-0.08052,-0.0488,-0.00732,0.05856,0.04392,-0.03904,-0.2196,-0.07808,-0.08784
-0.03416,0.061,-0.08784,-0.07076,-0.05368,0.00976,0.05368,0.0488,-0.03416,-0.21472,-0.08296,-0.07808
-0.05856,0.0732,-0.08784,-0.05856,-0.02928,-0.01464,0.05856,0.0488,-0.02928,-0.21472,-0.06832,-0.07808
-0.0488,0.0732,-0.0976,-0.0732,-0.0488,0,0.0488,0.0488,-0.03904,-0.21472,-0.06832,-0.06832
-0.0488,0.0732,-0.0976,-0.0732,-0.0488,0,0.0488,0.0488,-0.0488,-0.21472,-0.06832,-0.06832
-0.05856,0.07808,-0.0976,-0.06832,-0.03904,-0.00976,0.0488,0.03904,-0.0488,-0.21472,-0.07808,-0.07808
-0.05856,0.07808,-0.0976,-0.06832,-0.03904,-0.00976,0.0488,0.03904,-0.0488,-0.21472,-0.07808,-0.08784
-0.0488,0.0732,-0.0976,-0.0732,-0.0488,0,0.05856,0.0488,-0.03904,-0.21472,-0.08784,-0.0976
-0.0488,0.0732,-0.0976,-0.0732,-0.0488,0,0.05856,0.0488,-0.03904,-0.21472,-0.08784,-0.0976
-0.0488,0.0732,-0.0976,-0.0732,-0.0488,0,0.05856,0.0488,-0.0488,-0.22448,-0.08784,-0.08784
-0.0488,0.0732,-0.0976,-0.0732,-0.0488,0,0.05856,0.0488,-0.0488,-0.22448,-0.08784,-0.08784
-0.05856,0.07808,-0.0976,-0.06832,-0.03904,-0.00976,0.06832,0.0488,-0.03904,-0.21472,-0.07808,-0.07808
-0.05856,0.07808,-0.0976,-0.06832,-0.03904,-0.00976,0.06832,0.0488,-0.03904,-0.21472,-0.07808,-0.06832
-0.0488,0.0732,-0.0976,-0.0732,-0.0488,0,0.05856,0.0488,-0.0488,-0.22448,-0.08784,-0.07808
-0.0488,0.0732,-0.0976,-0.0732,-0.0488,0,0.0488,0.0488,-0.0488,-0.22448,-0.08784,-0.08784
-0.0488,0.06832,-0.08784,-0.06344,-0.03904,-0.00488,0.0488,0.0488,-0.0488,-0.23424,-0.08784,-0.07808
-0.0488,0.06832,-0.08784,-0.06344,-0.03904,-0.00488,0.0488,0.0488,-0.0488,-0.23424,-0.08784,-0.06832
-0.0488,0.0732,-0.0976,-0.0732,-0.0488,0,0.0488,0.03904,-0.05856,-0.23424,-0.07808,-0.08784
-0.0488,0.07808,-0.10736,-0.08296,-0.05856,0.00488,0.0488,0.03904,-0.05856,-0.23424,-0.07808,-0.0976
-0.05856,0.07808,-0.0976,-0.06832,-0.03904,-0.00976,0.05856,0.03904,-0.05856,-0.244,-0.07808,-0.0976
-0.06832,0.08296,-0.0976,-0.06344,-0.02928,-0.01952,0.05856,0.03904,-0.05856,-0.244,-0.07808,-0.0976
-0.06832,0.08784,-0.10736,-0.0732,-0.03904,-0.01464,0.0488,0.03904,-0.06832,-0.25376,-0.08784,-0.08784
-0.06832,0.08784,-0.10736,-0.0732,-0.03904,-0.01464,0.0488,0.03904,-0.06832,-0.25376,-0.08784,-0.08784
-0.05856,0.08296,-0.10736,-0.07808,-0.0488,-0.00488,0.0488,0.0488,-0.05856,-0.25376,-0.07808,-0.08784
-0.05856,0.08296,-0.10736,-0.07808,-0.0488,-0.00488,0.0488,0.0488,-0.05856,-0.25376,-0.07808,-0.08784
-0.05856,0.08296,-0.10736,-0.07808,-0.0488,-0.00488,0.0488,0.03904,-0.05856,-0.244,-0.08784,-0.0976
-0.05856,0.08296,-0.10736,-0.07808,-0.0488,-0.00488,0.0488,0.03904,-0.05856,-0.244,-0.08784,-0.0976
-0.05856,0.08296,-0.10736,-0.07808,-0.0488,-0.00488,0.0488,0.03904,-0.0488,-0.23424,-0.07808,-0.08784
-0.05856,0.08296,-0.10736,-0.07808,-0.0488,-0.00488,0.0488,0.03904,-0.03904,-0.23424,-0.07808,-0.07808
-0.0488,0.07808,-0.10736,-0.08296,-0.05856,0.00488,0.0488,0.03904,-0.0488,-0.22448,-0.08784,-0.08784
-0.0488,0.07808,-0.10736,-0.08296,-0.05856,0.00488,0.0488,0.03904,-0.0488,-0.22448,-0.08784,-0.0976
-0.03904,0.06344,-0.08784,-0.06832,-0.0488,0.00488,0.0488,0.03904,-0.03904,-0.22448,-0.07808,-0.08784
-0.03904,0.05856,-0.07808,-0.05856,-0.03904,0,0.0488,0.03904,-0.03904,-0.22448,-0.07808,-0.07808
-0.03904,0.06344,-0.08784,-0.06832,-0.0488,0.00488,0.0488,0.02928,-0.0488,-0.22448,-0.08784,-0.08784
-0.03904,0.06832,-0.0976,-0.07808,-0.05856,0.00976,0.0488,0.02928,-0.05856,-0.22448,-0.08784,-0.08784
-0.0488,0.0732,-0.0976,-0.0732,-0.0488,0,0.0488,0.03904,-0.0488,-0.22448,-0.08784,-0.07808
-0.05856,0.07808,-0.0976,-0.06832,-0.03904,-0.00976,0.0488,0.03904,-0.0488,-0.22448,-0.08784,-0.07808
-0.0488,0.0732,-0.0976,-0.0732,-0.0488,0,0.0488,0.03904,-0.05856,-0.22448,-0.08784,-0.08784
-0.0488,0.0732,-0.0976,-0.0732,-0.0488,0,0.0488,0.03904,-0.05856,-0.22448,-0.08784,-0.0976
-0.0488,0.0732,-0.0976,-0.0732,-0.0488,0,0.0488,0.02928,-0.06832,-0.23424,-0.0976,-0.0976
-0.0488,0.0732,-0.0976,-0.0732,-0.0488,0,0.0488,0.02928,-0.06832,-0.244,-0.0976,-0.0976
-0.0488,0.0732,-0.0976,-0.0732,-0.0488,0,0.03904,0.02928,-0.05856,-0.244,-0.0976,-0.0976
-0.0488,0.0732,-0.0976,-0.0732,-0.0488,0,0.03904,0.02928,-0.05856,-0.244,-0.0976,-0.0976
-0.05856,0.08296,-0.10736,-0.07808,-0.0488,-0.00488,0.0488,0.02928,-0.0488,-0.23424,-0.08784,-0.08784
-0.06832,0.08784,-0.10736,-0.0732,-0.03904,-0.01464,0.0488,0.02928,-0.0488,-0.23424,-0.08784,-0.08784
-0.05856,0.07808,-0.0976,-0.06832,-0.03904,-0.00976,0.03904,0.02928,-0.05856,-0.244,-0.08784,-0.08784
-0.0488,0.0732,-0.0976,-0.0732,-0.0488,0,0.02928,0.02928,-0.05856,-0.244,-0.08784,-0.08784
-0.05856,0.0732,-0.08784,-0.05856,-0.02928,-0.01464,0.03904,0.03904,-0.05856,-0.23424,-0.07808,-0.07808
-0.05856,0.0732,-0.08784,-0.05856,-0.02928,-0.01464,0.03904,0.03904,-0.05856,-0.23424,-0.07808,-0.07808
-0.06832,0.08296,-0.0976,-0.06344,-0.02928,-0.01952,0.02928,0.02928,-0.06832,-0.23424,-0.08784,-0.08784
-0.06832,0.08784,-0.10736,-0.0732,-0.03904,-0.01464,0.02928,0.01952,-0.06832,-0.23424,-0.0976,-0.0976
-0.05856,0.07808,-0.0976,-0.06832,-0.03904,-0.00976,0.03904,0.02928,-0.06832,-0.22448,-0.0976,-0.10736
-0.05856,0.07808,-0.0976,-0.06832,-0.03904,-0.00976,0.03904,0.03904,-0.06832,-0.22448,-0.0976,-0.10736
-0.0488,0.07808,-0.10736,-0.08296,-0.05856,0.00488,0.03904,0.02928,-0.06832,-0.23424,-0.10736,-0.10736
-0.0488,0.07808,-0.10736,-0.08296,-0.05856,0.00488,0.03904,0.02928,-0.06832,-0.23424,-0.10736,-0.10736
-0.05856,0.07808,-0.0976,-0.06832,-0.03904,-0.00976,0.0488,0.03904,-0.05856,-0.22448,-0.0976,-0.0976
-0.05856,0.07808,-0.0976,-0.06832,-0.03904,-0.00976,0.0488,0.03904,-0.05856,-0.21472,-0.08784,-0.08784
-0.0488,0.06832,-0.08784,-0.06344,-0.03904,-0.00488,0.03904,0.03904,-0.05856,-0.21472,-0.08784,-0.0976
-0.03904,0.06344,-0.08784,-0.06832,-0.0488,0.00488,0.03904,0.03904,-0.05856,-0.21472,-0.08784,-0.0976
-0.03904,0.06344,-0.08784,-0.06832,-0.0488,0.00488,0.0488,0.02928,-0.05856,-0.21472,-0.07808,-0.08784
-0.03904,0.06344,-0.08784,-0.06832,-0.0488,0.00488,0.0488,0.02928,-0.05856,-0.21472,-0.07808,-0.08784
-0.03904,0.06344,-0.08784,-0.06832,-0.0488,0.00488,0.03904,0.02928,-0.05856,-0.22448,-0.08784,-0.07808
-0.03904,0.06344,-0.08784,-0.06832,-0.0488,0.00488,0.03904,0.02928,-0.05856,-0.22448,-0.08784,-0.07808
-0.0488,0.0732,-0.0976,-0.0732,-0.0488,0,0.0488,0.01952,-0.06832,-0.23424,-0.0976,-0.08784
-0.05368,0.06588,-0.07808,-0.05124,-0.0244,-0.01464,0.0488,0.01464,-0.06832,-0.23424,-0.0976,-0.09272
-0.06832,0.0854,-0.10248,-0.06832,-0.03416,-0.01708,0.04392,0.01952,-0.0732,-0.23912,-0.11224,-0.09272
-0.06832,0.08784,-0.10736,-0.0732,-0.03904,-0.01464,0.0488,0.0244,-0.0732,-0.25376,-0.10248,-0.09272
-0.0732,0.0854,-0.0976,-0.061,-0.0244,-0.0244,0.0488,0.0244,-0.0732,-0.244,-0.09272,-0.09272
-0.06344,0.08052,-0.0976,-0.06588,-0.03416,-0.01464,0.0488,0.02928,-0.0732,-0.23424,-0.08784,-0.09272
-0.04392,0.06344,-0.08296,-0.061,-0.03904,-0.00244,0.0488,0.02928,-0.0732,-0.244,-0.10248,-0.09272
-0.05368,0.06832,-0.08296,-0.05612,-0.02928,-0.0122,0.0488,0.02928,-0.06344,-0.23912,-0.09272,-0.09272
-0.0488,0.05856,-0.06832,-0.04392,-0.01952,-0.01464,0.03904,0.03416,-0.05368,-0.2196,-0.07808,-0.09272
-0.05368,0.05856,-0.06344,-0.0366,-0.00976,-0.02196,0.04392,0.03416,-0.05368,-0.2196,-0.0732,-0.08784
-0.04392,0.0488,-0.05368,-0.03172,-0.00976,-0.01708,0.05368,0.0244,-0.02928,-0.20984,-0.0732,-0.0732
-0.05856,0.05612,-0.05368,-0.0244,0.00488,-0.03172,0.05368,0.0244,-0.02928,-0.20984,-0.0732,-0.0732
-0.06344,0.0488,-0.03416,-0.00244,0.02928,-0.04636,0.0488,0.0244,-0.00488,-0.20008,-0.06832,-0.07808
-0.05368,0.03416,-0.01464,0.0122,0.03904,-0.04636,0.0244,0.00976,0,-0.19032,-0.05368,-0.06832
-0.0488,0.02684,-0.00488,0.01952,0.04392,-0.04636,0.01952,0.00488,0,-0.18056,-0.05368,-0.05368
-0.0488,0.03172,-0.01464,0.00976,0.03416,-0.04148,0.00488,-0.00488,-0.00488,-0.17568,-0.0488,-0.0488
-0.01952,0.0122,-0.00488,0.00488,0.01464,-0.01708,0,-0.00976,-0.01952,-0.18544,-0.0488,-0.05368
-0.04392,0.04636,-0.0488,-0.02684,-0.00488,-0.01952,-0.00976,-0.01952,-0.03904,-0.18544,-0.05368,-0.05856
0,0.0122,-0.0244,-0.0244,-0.0244,0.0122,-0.00488,-0.00488,-0.05368,-0.18056,-0.06832,-0.05856
-0.00488,0.02196,-0.03904,-0.0366,-0.03416,0.01464,0.00488,-0.00488,-0.06344,-0.18056,-0.0732,-0.06832
-0.01464,0.03172,-0.0488,-0.04148,-0.03416,0.00976,0.01952,0.00488,-0.0488,-0.18544,-0.06344,-0.06832
-0.0488,0.05124,-0.05368,-0.02928,-0.00488,-0.02196,0.02928,0.00488,-0.0488,-0.18544,-0.06832,-0.0732
-0.02928,0.04148,-0.05368,-0.03904,-0.0244,-0.00244,0.01952,0,-0.0488,-0.18056,-0.06344,-0.05368
-0.0244,0.03904,-0.05368,-0.04148,-0.02928,0.00244,0.00976,0,-0.05368,-0.18056,-0.06344,-0.05368
-0.0244,0.04636,-0.06832,-0.05612,-0.04392,0.00976,0.00976,0.00976,-0.06344,-0.20008,-0.06344,-0.05368
-0.0244,0.05368,-0.08296,-0.07076,-0.05856,0.01708,0.01952,0.01464,-0.06832,-0.20008,-0.06832,-0.05856
-0.01952,0.05124,-0.08296,-0.0732,-0.06344,0.02196,0.01952,0.01464,-0.06832,-0.1952,-0.06832,-0.05368
-0.0488,0.0732,-0.0976,-0.0732,-0.0488,0,0.03416,0.01952,-0.06832,-0.1952,-0.0732,-0.05856
-0.06344,0.09272,-0.122,-0.09028,-0.05856,-0.00244,0.04392,0.01464,-0.09272,-0.22448,-0.10736,-0.0976
-0.06832,0.10248,-0.13664,-0.10248,-0.06832,0,0.0488,0.01464,-0.0976,-0.23912,-0.10736,-0.11224
-0.06344,0.10248,-0.14152,-0.1098,-0.07808,0.00732,0.0488,0.01464,-0.09272,-0.23424,-0.11224,-0.10736
-0.06344,0.10736,-0.15128,-0.11956,-0.08784,0.0122,0.05368,0.01464,-0.0976,-0.23912,-0.11712,-0.10736
-0.0732,0.11224,-0.15128,-0.11468,-0.07808,0.00244,0.05368,0.0244,-0.0976,-0.23424,-0.10736,-0.0976
-0.06344,0.10248,-0.14152,-0.1098,-0.07808,0.00732,0.06344,0.02928,-0.08784,-0.23424,-0.10248,-0.0976
-0.06344,0.10004,-0.13664,-0.10492,-0.0732,0.00488,0.0488,0.03416,-0.08296,-0.22448,-0.09272,-0.09272
-0.06344,0.10004,-0.13664,-0.10492,-0.0732,0.00488,0.0488,0.03416,-0.08296,-0.22448,-0.09272,-0.09272
-0.05368,0.0976,-0.14152,-0.11468,-0.08784,0.01708,0.05856,0.02928,-0.07808,-0.22936,-0.10248,-0.08784
-0.05368,0.09272,-0.13176,-0.10492,-0.07808,0.0122,0.05856,0.03904,-0.06832,-0.22448,-0.09272,-0.07808
-0.06344,0.10248,-0.14152,-0.1098,-0.07808,0.00732,0.05368,0.03416,-0.07808,-0.2196,-0.10248,-0.08784
-0.06344,0.0976,-0.13176,-0.10004,-0.06832,0.00244,0.05368,0.03416,-0.0732,-0.21472,-0.08784,-0.08784
-0.06832,0.09516,-0.122,-0.08784,-0.05368,-0.00732,0.05368,0.0244,-0.06344,-0.20008,-0.07808,-0.09272
-0.06832,0.0976,-0.12688,-0.09272,-0.05856,-0.00488,0.06832,0.04392,-0.04392,-0.19032,-0.09272,-0.09272
-0.09272,0.1098,-0.12688,-0.08052,-0.03416,-0.02928,0.0976,0.09272,0.00488,-0.20496,-0.13176,-0.14152
-0.122,0.10004,-0.07808,-0.01708,0.04392,-0.08296,0.16592,0.16592,0.11712,-0.21472,-0.20496,-0.24888
-0.20008,0.16104,-0.122,-0.02196,0.07808,-0.13908,0.244,0.23912,0.18544,-0.30744,-0.35624,-0.42944
-0.15616,0.1098,-0.06344,0.01464,0.09272,-0.12444,0.2684,0.34648,0.3172,-0.27816,-0.35624,-0.44408
-0.11224,0.01952,0.0732,0.12932,0.18544,-0.14884,0.1708,0.3172,0.4392,-0.08784,-0.17568,-0.244
0.0976,-0.2562,0.4148,0.366,0.3172,-0.1098,0.01952,0.244,0.61,0.26352,0.20984,0.13664
0.22448,-0.44652,0.66856,0.55632,0.44408,-0.1098,-0.20008,0.0488,0.60024,0.60512,0.69296,0.62464
0.38064,-0.68076,0.98088,0.79056,0.60024,-0.1098,-0.42944,-0.15616,0.53192,1.0248,1.28832,1.2688
0.50752,-0.95648,1.40544,1.15168,0.89792,-0.1952,-0.71736,-0.45872,0.52704,1.48352,1.94712,1.95688
0.59048,-1.11508,1.63968,1.34444,1.0492,-0.22936,-0.84912,-0.59536,0.5124,1.952,2.50832,2.48392
0.49776,-1.04676,1.59576,1.34688,1.098,-0.30012,-0.85888,-0.67832,0.3416,1.952,2.49368,2.4156
0.39528,-0.7686,1.14192,0.94428,0.74664,-0.17568,-0.7076,-0.54656,0.08296,1.41032,1.79096,1.77632
0.19032,-0.4026,0.61488,0.51972,0.42456,-0.11712,-0.42456,-0.3416,-0.13664,0.67344,0.85888,0.86864
0.03904,-0.11224,0.18544,0.16592,0.1464,-0.05368,-0.20496,-0.16592,-0.38552,-0.1464,0.08296,0.17568
0.01464,-0.06344,0.11224,0.10492,0.0976,-0.04148,-0.14152,-0.122,-0.30256,-0.11712,0.03416,0.07808
0.01464,-0.04636,0.07808,0.07076,0.06344,-0.0244,-0.12688,-0.10736,-0.20496,-0.0488,0.07808,0.122
-0.00488,-0.03904,0.08296,0.0854,0.08784,-0.04636,-0.06344,-0.06344,-0.10248,0.01952,0.09272,0.11224
-0.04392,-0.00244,0.0488,0.07076,0.09272,-0.06832,-0.03904,-0.03904,-0.03904,0.04392,0.06832,0.08296
-0.01952,-0.00976,0.03904,0.0488,0.05856,-0.03904,-0.03416,-0.03416,-0.04392,0.00488,0.0244,0.00976
-0.04392,0.0122,0.01952,0.04148,0.06344,-0.05368,-0.01464,-0.00488,-0.02928,-0.01464,-0.00488,-0.00976
-0.0244,0.00488,0.01464,0.02684,0.03904,-0.03172,0.00976,0.01464,0,-0.04392,-0.03416,-0.02928
-0.05856,0.05368,-0.0488,-0.01952,0.00976,-0.03416,0.01464,0.00488,-0.00976,-0.0732,-0.05856,-0.03904
-0.0488,0.03416,-0.01952,0.00488,0.02928,-0.03904,0.00488,0.00488,-0.00976,-0.06832,-0.05368,-0.05368
-0.05368,0.04148,-0.02928,-0.00244,0.0244,-0.03904,0.00488,0,-0.00976,-0.10248,-0.07808,-0.06832
-0.0488,0.0366,-0.0244,0,0.0244,-0.0366,0.01952,0.01464,0.00488,-0.13176,-0.07808,-0.0732
-0.0732,0.06344,-0.05368,-0.01708,0.01952,-0.04636,0.01952,0.01464,0.00488,-0.18544,-0.08784,-0.07808
-0.05856,0.0488,-0.03904,-0.00976,0.01952,-0.03904,0.01952,0.01952,-0.00488,-0.21472,-0.08784,-0.08784
-0.05368,0.04636,-0.03904,-0.0122,0.01464,-0.03416,0.01952,0.01464,-0.00488,-0.23912,-0.08784,-0.08784
-0.0488,0.0366,-0.0244,0,0.0244,-0.0366,0.03416,0.0244,0.01464,-0.24888,-0.08784,-0.08296
-0.06832,0.05368,-0.03904,-0.00488,0.02928,-0.0488,0.03416,0.02928,0.01464,-0.244,-0.08296,-0.08296
-0.06344,0.05124,-0.03904,-0.00732,0.0244,-0.04392,0.02928,0.02928,0.00976,-0.22936,-0.07808,-0.08296
-0.0488,0.04636,-0.04392,-0.01952,0.00488,-0.02684,0.03416,0.02928,0.00976,-0.2196,-0.0732,-0.07808
-0.03904,0.04148,-0.04392,-0.0244,-0.00488,-0.01708,0.0488,0.02928,0.00488,-0.20008,-0.08296,-0.06832
-0.06344,0.061,-0.05856,-0.02684,0.00488,-0.03416,0.05368,0.02928,0.00976,-0.18544,-0.08296,-0.07808
-0.05856,0.05612,-0.05368,-0.0244,0.00488,-0.03172,0.06344,0.03416,0.01952,-0.15616,-0.07808,-0.07808
-0.05856,0.06588,-0.0732,-0.04392,-0.01464,-0.02196,0.06344,0.02928,0.01952,-0.13664,-0.08784,-0.07808
-0.05856,0.06588,-0.0732,-0.04392,-0.01464,-0.02196,0.05368,0.0244,0.00976,-0.10736,-0.07808,-0.08296
-0.05856,0.06588,-0.0732,-0.04392,-0.01464,-0.02196,0.05368,0.0244,0.00976,-0.10248,-0.0732,-0.07808
-0.04392,0.05124,-0.05856,-0.0366,-0.01464,-0.01464,0.05368,0.03416,0.0244,-0.09272,-0.06344,-0.06832
-0.05368,0.05612,-0.05856,-0.03172,-0.00488,-0.0244,0.05856,0.03416,0.02928,-0.09272,-0.0732,-0.07808
-0.05368,0.05368,-0.05368,-0.02684,0,-0.02684,0.05856,0.03416,0.0244,-0.08784,-0.0732,-0.0732
-0.0488,0.04636,-0.04392,-0.01952,0.00488,-0.02684,0.0488,0.03416,0.0244,-0.0976,-0.0732,-0.08296
-0.04392,0.04636,-0.0488,-0.02684,-0.00488,-0.01952,0.0488,0.03904,0.04392,-0.08784,-0.05856,-0.06344
-0.04392,0.03904,-0.03416,-0.0122,0.00976,-0.02684,0.0488,0.03904,0.04392,-0.09272,-0.05368,-0.05368
-0.03416,0.02928,-0.0244,-0.00732,0.00976,-0.02196,0.03904,0.02928,0.04392,-0.10248,-0.05368,-0.05368
-0.03416,0.02684,-0.01952,-0.00244,0.01464,-0.0244,0.04392,0.02928,0.04392,-0.11712,-0.05368,-0.06832
-0.04392,0.03172,-0.01952,0.00244,0.0244,-0.03416,0.03904,0.0244,0.05368,-0.10248,-0.05856,-0.05856
-0.03416,0.02196,-0.00976,0.00732,0.0244,-0.02928,0.04392,0.02928,0.05856,-0.10248,-0.05368,-0.05368
-0.03416,0.02196,-0.00976,0.00732,0.0244,-0.02928,0.03416,0.0244,0.06344,-0.122,-0.05856,-0.06344
-0.0244,0.01464,-0.00488,0.00732,0.01952,-0.02196,0.03416,0.02928,0.06344,-0.12688,-0.05368,-0.05856
-0.04392,0.03172,-0.01952,0.00244,0.0244,-0.03416,0.03416,0.03904,0.06832,-0.14152,-0.05856,-0.06832
-0.0244,0.0122,0,0.0122,0.0244,-0.0244,0.03416,0.03904,0.07808,-0.13664,-0.06344,-0.06344
-0.03416,0.01708,0,0.01708,0.03416,-0.03416,0.03416,0.0244,0.07808,-0.13664,-0.05856,-0.05856
-0.01464,-0.00488,0.0244,0.03172,0.03904,-0.02684,0.0244,0.0244,0.08784,-0.11712,-0.03904,-0.0488
-0.03904,0.01464,0.00976,0.02928,0.0488,-0.04392,0.01952,0.03904,0.07808,-0.10736,-0.02928,-0.03904
-0.00976,-0.01952,0.0488,0.05368,0.05856,-0.03416,0.0244,0.03904,0.08784,-0.08784,-0.0244,-0.03416
-0.03416,0.00976,0.01464,0.03172,0.0488,-0.04148,0.01464,0.0244,0.09272,-0.08784,-0.04392,-0.05368
-0.04392,0.0122,0.01952,0.04148,0.06344,-0.05368,0.01952,0.02928,0.10736,-0.05856,-0.02928,-0.04392
