i,aVR,ii,aVF,iii,aVL,V1,V2,V3,V4,V5,V6
0.1952,-0.17324,0.15128,0.05368,-0.04392,0.11956,-0.03416,-0.26352,-0.122,0.0976,0.28304,0.3904
0.2684,-0.26352,0.25864,0.12444,-0.00976,0.13908,-0.16592,-0.36112,-0.08296,0.23424,0.47336,0.62952
0.3904,-0.40748,0.42456,0.22936,0.03416,0.17812,-0.27328,-0.4392,0.00488,0.37576,0.64904,0.83936
0.45384,-0.47092,0.488,0.26108,0.03416,0.20984,-0.32208,-0.46848,0.05368,0.4636,0.7808,0.99064
0.488,-0.52216,0.55632,0.31232,0.06832,0.20984,-0.36112,-0.49776,0.06344,0.50264,0.84424,1.03456
0.488,-0.47336,0.45872,0.21472,-0.02928,0.25864,-0.31232,-0.45872,-0.08296,0.3172,0.59048,0.77104
0.35136,-0.34404,0.33672,0.16104,-0.01464,0.183,-0.21472,-0.41968,-0.25864,0.04392,0.23912,0.38552
0.20008,-0.20984,0.2196,0.11956,0.01952,0.09028,-0.0976,-0.35136,-0.40992,-0.25864,-0.14152,-0.02928
0.0488,-0.09028,0.13176,0.10736,0.08296,-0.01708,0.03416,-0.27328,-0.4636,-0.42456,-0.31232,-0.25864
-0.0488,-0.03416,0.11712,0.14152,0.16592,-0.10736,0.10248,-0.23424,-0.47336,-0.43432,-0.35136,-0.29768
-0.04392,-0.0366,0.11712,0.13908,0.16104,-0.10248,0.12688,-0.18056,-0.35136,-0.32696,-0.27816,-0.22448
-0.01464,-0.05856,0.13176,0.13908,0.1464,-0.08052,0.15128,-0.122,-0.244,-0.23912,-0.20984,-0.17568
-0.00976,-0.05368,0.11712,0.122,0.12688,-0.06832,0.16104,-0.07808,-0.15128,-0.18056,-0.15128,-0.14152
-0.02928,-0.03416,0.0976,0.11224,0.12688,-0.07808,0.1952,-0.02928,-0.122,-0.12688,-0.11712,-0.11224
-0.03416,-0.01952,0.0732,0.09028,0.10736,-0.07076,0.2196,-0.00976,-0.08784,-0.10248,-0.10248,-0.09272
-0.00976,-0.0244,0.05856,0.06344,0.06832,-0.03904,0.23424,0.03416,-0.05368,-0.10248,-0.0976,-0.0976
-0.01952,0.0122,-0.00488,0.00488,0.01464,-0.01708,0.25376,0.05856,-0.03416,-0.07808,-0.07808,-0.09272
-0.01464,0.00732,0,0.00732,0.01464,-0.01464,0.26352,0.08296,-0.0244,-0.06344,-0.08296,-0.08784
-0.01464,0.00488,0.00488,0.0122,0.01952,-0.01708,0.2684,0.08784,-0.01464,-0.05856,-0.07808,-0.08296
-0.01464,0.0122,-0.00976,-0.00244,0.00488,-0.00976,0.27816,0.10248,-0.01952,-0.06832,-0.07808,-0.09272
-0.00976,0.01464,-0.01952,-0.01464,-0.00976,0,0.27816,0.11224,-0.01464,-0.05368,-0.0732,-0.08784
-0.01952,0.0244,-0.02928,-0.01952,-0.00976,-0.00488,0.2928,0.0976,-0.01464,-0.0488,-0.07808,-0.08784
-0.0244,0.02684,-0.02928,-0.01708,-0.00488,-0.00976,0.30256,0.09272,-0.00488,-0.0488,-0.0732,-0.08296
-0.0244,0.01708,-0.00976,0.00244,0.01464,-0.01952,0.28792,0.0976,0.00488,-0.05368,-0.0732,-0.08296
-0.0244,0.0122,0,0.0122,0.0244,-0.0244,0.28792,0.10736,0.00976,-0.04392,-0.06832,-0.07808
-0.0244,0.01708,-0.00976,0.00244,0.01464,-0.01952,0.28792,0.10736,0.0244,-0.03904,-0.06344,-0.06832
-0.01952,0.01952,-0.01952,-0.00976,0,-0.00976,0.28792,0.10736,0.0244,-0.0244,-0.05856,-0.06344
-0.00976,0.0244,-0.03904,-0.03416,-0.02928,0.00976,0.2928,0.11712,0.03416,-0.01464,-0.04392,-0.05856
-0.00976,0.02196,-0.03416,-0.02928,-0.0244,0.00732,0.31232,0.11712,0.03904,0,-0.03904,-0.05368
-0.00976,0.01464,-0.01952,-0.01464,-0.00976,0,0.32208,0.11224,0.03904,0,-0.03416,-0.0488
-0.00488,0.00488,-0.00488,-0.00244,0,-0.00244,0.30744,0.11712,0.05368,0.00976,-0.02928,-0.04392
0.00488,-0.00732,0.00976,0.00732,0.00488,0,0.30256,0.11712,0.0488,0.00488,-0.0244,-0.05368
0.01464,-0.01464,0.01464,0.00732,0,0.00732,0.2928,0.11712,0.05856,0.01464,-0.01952,-0.04392
0.00976,-0.00488,0,-0.00488,-0.00976,0.00976,0.28792,0.12688,0.07808,0.0244,-0.00976,-0.03904
0.00976,-0.00732,0.00488,0,-0.00488,0.00732,0.29768,0.13176,0.08296,0.03904,0,-0.02928
0.00488,-0.00976,0.01464,0.0122,0.00976,-0.00244,0.28792,0.122,0.0976,0.05856,0,-0.01952
0.00976,-0.01708,0.0244,0.01952,0.01464,-0.00244,0.29768,0.12688,0.10736,0.06344,0.00976,-0.00976
0.01952,-0.01952,0.01952,0.00976,0,0.00976,0.30256,0.13664,0.11712,0.0732,0.01952,-0.00488
0.0244,-0.01952,0.01464,0.00244,-0.00976,0.01708,0.30256,0.1464,0.13176,0.08784,0.04392,0.00488
0.01952,-0.02196,0.0244,0.01464,0.00488,0.00732,0.28792,0.15128,0.15128,0.11224,0.06832,0.01952
0.0244,-0.0244,0.0244,0.0122,0,0.0122,0.29768,0.16104,0.16592,0.122,0.07808,0.03904
0.02928,-0.03172,0.03416,0.01952,0.00488,0.0122,0.2928,0.1708,0.17568,0.13176,0.09272,0.0488
0.04392,-0.04148,0.03904,0.01708,-0.00488,0.0244,0.29768,0.18056,0.20008,0.14152,0.0976,0.05856
0.0488,-0.04148,0.03416,0.00976,-0.01464,0.03172,0.28792,0.1708,0.20984,0.15616,0.10248,0.06832
0.06344,-0.05856,0.05368,0.02196,-0.00976,0.0366,0.27816,0.18544,0.23424,0.18544,0.122,0.09272
0.05368,-0.061,0.06832,0.04148,0.01464,0.01952,0.27816,0.20008,0.26352,0.20496,0.15616,0.10736
0.06344,-0.07076,0.07808,0.04636,0.01464,0.0244,0.27816,0.20496,0.28792,0.22448,0.1708,0.11712
0.0732,-0.07564,0.07808,0.04148,0.00488,0.03416,0.27816,0.20496,0.28792,0.23424,0.18056,0.13664
0.07808,-0.08296,0.08784,0.0488,0.00976,0.03416,0.28792,0.20496,0.30744,0.25376,0.18544,0.1464
0.08784,-0.09028,0.09272,0.0488,0.00488,0.04148,0.29768,0.21472,0.33672,0.28792,0.20984,0.16592
0.08296,-0.0976,0.11224,0.07076,0.02928,0.02684,0.29768,0.2196,0.36112,0.30744,0.23424,0.19032
0.07808,-0.10492,0.13176,0.09272,0.05368,0.0122,0.2928,0.20984,0.37088,0.32696,0.244,0.19032
0.08784,-0.11468,0.14152,0.0976,0.05368,0.01708,0.28304,0.21472,0.37576,0.33672,0.24888,0.20496
0.0976,-0.12688,0.15616,0.10736,0.05856,0.01952,0.27816,0.2196,0.40016,0.36112,0.2684,0.22448
0.11224,-0.13908,0.16592,0.1098,0.05368,0.02928,0.28304,0.21472,0.43432,0.37576,0.2928,0.244
0.122,-0.14884,0.17568,0.11468,0.05368,0.03416,0.27328,0.21472,0.43432,0.38064,0.30744,0.25376
0.13664,-0.16104,0.18544,0.11712,0.0488,0.04392,0.25376,0.20984,0.42456,0.38064,0.30744,0.25864
0.14152,-0.1708,0.20008,0.12932,0.05856,0.04148,0.25376,0.20984,0.42456,0.38064,0.29768,0.25376
0.14152,-0.17324,0.20496,0.1342,0.06344,0.03904,0.24888,0.20984,0.42456,0.37576,0.29768,0.24888
0.1464,-0.183,0.2196,0.1464,0.0732,0.0366,0.26352,0.1952,0.40992,0.35624,0.28792,0.23912
0.12688,-0.17324,0.2196,0.15616,0.09272,0.01708,0.28304,0.17568,0.3904,0.35136,0.27816,0.23424
0.11712,-0.16592,0.21472,0.15616,0.0976,0.00976,0.2928,0.1464,0.37088,0.33184,0.26352,0.22936
0.11224,-0.16592,0.2196,0.16348,0.10736,0.00244,0.27816,0.13176,0.34648,0.31232,0.24888,0.2196
0.10736,-0.15372,0.20008,0.1464,0.09272,0.00732,0.2684,0.122,0.32208,0.30256,0.23424,0.20496
0.10736,-0.15128,0.1952,0.14152,0.08784,0.00976,0.244,0.11224,0.2928,0.2684,0.22448,0.20008
0.08784,-0.13908,0.19032,0.1464,0.10248,-0.00732,0.23912,0.10248,0.25376,0.23912,0.19032,0.18544
0.08296,-0.13176,0.18056,0.13908,0.0976,-0.00732,0.22448,0.0976,0.22448,0.20008,0.16104,0.16104
0.08296,-0.122,0.16104,0.11956,0.07808,0.00244,0.22448,0.08784,0.17568,0.16592,0.122,0.122
0.0732,-0.10004,0.12688,0.09028,0.05368,0.00976,0.23424,0.07808,0.14152,0.12688,0.08784,0.0976
0.0732,-0.08784,0.10248,0.06588,0.02928,0.02196,0.23424,0.0732,0.10736,0.0976,0.05856,0.05856
0.06344,-0.07564,0.08784,0.05612,0.0244,0.01952,0.22936,0.06832,0.07808,0.06832,0.03416,0.03416
0.05368,-0.06344,0.0732,0.04636,0.01952,0.01708,0.22936,0.06344,0.06344,0.05368,0.00976,0.01464
0.0488,-0.05856,0.06832,0.04392,0.01952,0.01464,0.22936,0.06344,0.04392,0.02928,-0.00976,-0.01464
0.03904,-0.04636,0.05368,0.03416,0.01464,0.0122,0.23424,0.06344,0.03904,0.01952,-0.01952,-0.01464
0.03416,-0.04148,0.0488,0.03172,0.01464,0.00976,0.23424,0.06344,0.01952,0,-0.03416,-0.03416
0.03904,-0.04148,0.04392,0.0244,0.00488,0.01708,0.22448,0.06344,0.00488,-0.01952,-0.05368,-0.05368
0.03904,-0.0366,0.03416,0.01464,-0.00488,0.02196,0.21472,0.0488,-0.01464,-0.02928,-0.06832,-0.05856
0.0244,-0.02684,0.02928,0.01708,0.00488,0.00976,0.22448,0.05856,-0.01952,-0.01952,-0.06832,-0.05856
0.0244,-0.02684,0.02928,0.01708,0.00488,0.00976,0.22936,0.05856,-0.02928,-0.03416,-0.0732,-0.0732
0.0244,-0.02196,0.01952,0.00732,-0.00488,0.01464,0.244,0.04392,-0.03416,-0.04392,-0.07808,-0.08296
0.0244,-0.01952,0.01464,0.00244,-0.00976,0.01708,0.25376,0.0488,-0.03416,-0.04392,-0.07808,-0.08784
0.02928,-0.01952,0.00976,-0.00488,-0.01952,0.0244,0.244,0.05368,-0.0244,-0.03416,-0.07808,-0.08296
0.02928,-0.01952,0.00976,-0.00488,-0.01952,0.0244,0.244,0.06344,-0.0244,-0.03904,-0.06832,-0.0732
0.03904,-0.0244,0.00976,-0.00976,-0.02928,0.03416,0.22448,0.06832,-0.03904,-0.03904,-0.06832,-0.08784
0.03904,-0.0244,0.00976,-0.00976,-0.02928,0.03416,0.2196,0.06832,-0.03904,-0.03904,-0.07808,-0.08296
0.02928,-0.01952,0.00976,-0.00488,-0.01952,0.0244,0.22936,0.05856,-0.03904,-0.04392,-0.0976,-0.08784
0.01464,-0.01464,0.01464,0.00732,0,0.00732,0.24888,0.0488,-0.04392,-0.05856,-0.0976,-0.10248
0.00488,-0.00244,0,-0.00244,-0.00488,0.00488,0.25864,0.0488,-0.04392,-0.06344,-0.08784,-0.0976
0.00488,-0.00244,0,-0.00244,-0.00488,0.00488,0.27328,0.0488,-0.03904,-0.05368,-0.08784,-0.09272
0.00976,-0.00488,0,-0.00488,-0.00976,0.00976,0.27328,0.04392,-0.03904,-0.04392,-0.0732,-0.08784
0.00488,0,-0.00488,-0.00732,-0.00976,0.00732,0.27816,0.04392,-0.02928,-0.03416,-0.06344,-0.07808
0.00488,-0.00732,0.00976,0.00732,0.00488,0,0.2684,0.03416,-0.02928,-0.03416,-0.0732,-0.07808
0.00976,-0.00976,0.00976,0.00488,0,0.00488,0.25864,0.03416,-0.04392,-0.03904,-0.08296,-0.08784
0.00488,-0.00488,0.00488,0.00244,0,0.00244,0.24888,0.04392,-0.0488,-0.0488,-0.08784,-0.09272
0.00488,-0.00244,0,-0.00244,-0.00488,0.00488,0.24888,0.04392,-0.0488,-0.05368,-0.08784,-0.09272
0,0.00732,-0.01464,-0.01464,-0.01464,0.00732,0.25864,0.04392,-0.0488,-0.04392,-0.08784,-0.08296
-0.00976,0.00976,-0.00976,-0.00488,0,-0.00488,0.25864,0.04392,-0.0488,-0.04392,-0.08784,-0.08296
-0.00488,0.00488,-0.00488,-0.00244,0,-0.00244,0.24888,0.05368,-0.0488,-0.05368,-0.08784,-0.08296
0.01464,-0.00976,0.00488,-0.00244,-0.00976,0.0122,0.24888,0.05856,-0.0488,-0.05368,-0.08784,-0.08296
0.01464,-0.01464,0.01464,0.00732,0,0.00732,0.25864,0.04392,-0.0488,-0.04392,-0.08296,-0.08784
0.01464,-0.0122,0.00976,0.00244,-0.00488,0.00976,0.26352,0.04392,-0.05368,-0.0488,-0.07808,-0.08784
0.00488,-0.00244,0,-0.00244,-0.00488,0.00488,0.24888,0.04392,-0.06344,-0.06344,-0.09272,-0.0976
0.00488,-0.00244,0,-0.00244,-0.00488,0.00488,0.24888,0.04392,-0.05856,-0.05856,-0.09272,-0.0976
0.00488,-0.00976,0.01464,0.0122,0.00976,-0.00244,0.24888,0.04392,-0.06344,-0.0488,-0.08296,-0.09272
0.01952,-0.01952,0.01952,0.00976,0,0.00976,0.24888,0.04392,-0.06344,-0.04392,-0.08296,-0.09272
0.0244,-0.02196,0.01952,0.00732,-0.00488,0.01464,0.2196,0.04392,-0.05368,-0.0488,-0.08296,-0.09272
0.0244,-0.02684,0.02928,0.01708,0.00488,0.00976,0.2196,0.04392,-0.03416,-0.03904,-0.08296,-0.08296
0.00976,-0.01952,0.02928,0.0244,0.01952,-0.00488,0.2196,0.0488,-0.0244,-0.03416,-0.0732,-0.07808
0.00976,-0.01952,0.02928,0.0244,0.01952,-0.00488,0.23912,0.05368,-0.02928,-0.03904,-0.06832,-0.07808
0.00976,-0.01952,0.02928,0.0244,0.01952,-0.00488,0.24888,0.04392,-0.02928,-0.03904,-0.06832,-0.07808
0.0244,-0.02684,0.02928,0.01708,0.00488,0.00976,0.26352,0.03904,-0.02928,-0.03904,-0.06832,-0.06832
0.0244,-0.02684,0.02928,0.01708,0.00488,0.00976,0.2684,0.03904,-0.0244,-0.03904,-0.06832,-0.06832
0.0244,-0.02684,0.02928,0.01708,0.00488,0.00976,0.25376,0.05368,-0.03416,-0.03416,-0.06832,-0.06832
0.02928,-0.0244,0.01952,0.00488,-0.00976,0.01952,0.24888,0.05368,-0.03416,-0.03416,-0.06832,-0.06344
0.02928,-0.01952,0.00976,-0.00488,-0.01952,0.0244,0.23424,0.05856,-0.0244,-0.03904,-0.05856,-0.06344
0.02928,-0.0122,-0.00488,-0.01952,-0.03416,0.03172,0.23424,0.05856,-0.03904,-0.0488,-0.06832,-0.0732
0.0244,-0.0122,0,-0.0122,-0.0244,0.0244,0.23912,0.0488,-0.02928,-0.03416,-0.06344,-0.07808
0.01952,-0.01708,0.01464,0.00488,-0.00488,0.0122,0.22936,0.03416,-0.02928,-0.03416,-0.05856,-0.0732
0.0244,-0.0244,0.0244,0.0122,0,0.0122,0.20496,0.01952,-0.0488,-0.0488,-0.06832,-0.0732
0.0244,-0.0244,0.0244,0.0122,0,0.0122,0.20008,0.00976,-0.05856,-0.05856,-0.08296,-0.08296
0.01952,-0.01952,0.01952,0.00976,0,0.00976,0.20984,0,-0.05856,-0.05856,-0.0976,-0.08784
0.01464,-0.00976,0.00488,-0.00244,-0.00976,0.0122,0.2196,0,-0.0732,-0.0732,-0.0976,-0.09272
0.0244,-0.00976,-0.00488,-0.01708,-0.02928,0.02684,0.22448,0.01464,-0.07808,-0.07808,-0.09272,-0.08784
0.01952,-0.00244,-0.01464,-0.0244,-0.03416,0.02684,0.2196,0.01464,-0.08296,-0.07808,-0.08784,-0.09272
0.03904,-0.0122,-0.01464,-0.03416,-0.05368,0.04636,0.20496,0.0244,-0.08296,-0.08296,-0.0976,-0.0976
0.03416,-0.00244,-0.02928,-0.04636,-0.06344,0.0488,0.20984,0.01952,-0.08784,-0.07808,-0.0976,-0.08784
0.02928,-0.00244,-0.0244,-0.03904,-0.05368,0.04148,0.21472,0.01464,-0.08784,-0.0732,-0.0976,-0.09272
0.02928,0,-0.02928,-0.04392,-0.05856,0.04392,0.21472,0.01952,-0.0732,-0.0732,-0.09272,-0.09272
0.03904,-0.00488,-0.02928,-0.0488,-0.06832,0.05368,0.22448,0.01952,-0.07808,-0.0732,-0.0976,-0.09272
0.03904,-0.00976,-0.01952,-0.03904,-0.05856,0.0488,0.22448,0.0244,-0.09272,-0.08296,-0.10736,-0.10736
0.0244,0,-0.0244,-0.0366,-0.0488,0.0366,0.244,0.0244,-0.0976,-0.09272,-0.11224,-0.11712
0.01952,0.00732,-0.03416,-0.04392,-0.05368,0.0366,0.26352,0.02928,-0.09272,-0.08784,-0.11224,-0.10736
0.01464,0.00976,-0.03416,-0.04148,-0.0488,0.03172,0.26352,0.01952,-0.08296,-0.09272,-0.10736,-0.11224
0.00488,0.01952,-0.04392,-0.04636,-0.0488,0.02684,0.27328,0.01952,-0.08784,-0.10248,-0.11712,-0.11712
-0.00976,0.02928,-0.0488,-0.04392,-0.03904,0.01464,0.2684,0.03416,-0.09272,-0.0976,-0.13176,-0.122
-0.01464,0.03172,-0.0488,-0.04148,-0.03416,0.00976,0.25864,0.02928,-0.10248,-0.10736,-0.14152,-0.13664
-0.00976,0.03416,-0.05856,-0.05368,-0.0488,0.01952,0.24888,0.03416,-0.10248,-0.0976,-0.13664,-0.12688
-0.00976,0.03904,-0.06832,-0.06344,-0.05856,0.0244,0.24888,0.03416,-0.10248,-0.0976,-0.12688,-0.13176
-0.0244,0.04636,-0.06832,-0.05612,-0.04392,0.00976,0.25376,0.0244,-0.11224,-0.10736,-0.12688,-0.12688
-0.0244,0.04148,-0.05856,-0.04636,-0.03416,0.00488,0.26352,0.0244,-0.11224,-0.10248,-0.13664,-0.12688
-0.0244,0.04392,-0.06344,-0.05124,-0.03904,0.00732,0.28304,0.01464,-0.11712,-0.10248,-0.13664,-0.13176
-0.0244,0.04392,-0.06344,-0.05124,-0.03904,0.00732,0.29768,0.01464,-0.11712,-0.10248,-0.14152,-0.13176
-0.01464,0.04392,-0.0732,-0.06588,-0.05856,0.02196,0.29768,0.00976,-0.11224,-0.10736,-0.13664,-0.14152
-0.00976,0.03416,-0.05856,-0.05368,-0.0488,0.01952,0.28792,0.00976,-0.11224,-0.10736,-0.13664,-0.13664
-0.01952,0.0366,-0.05368,-0.04392,-0.03416,0.00732,0.27328,0.00488,-0.10736,-0.0976,-0.13176,-0.12688
-0.01952,0.03172,-0.04392,-0.03416,-0.0244,0.00244,0.27328,0.00976,-0.11224,-0.0976,-0.13176,-0.122
-0.00976,0.02196,-0.03416,-0.02928,-0.0244,0.00732,0.26352,0.00976,-0.10248,-0.10248,-0.13176,-0.12688
-0.01464,0.02684,-0.03904,-0.03172,-0.0244,0.00488,0.25864,0.00976,-0.0976,-0.10248,-0.13176,-0.12688
-0.00976,0.02928,-0.0488,-0.04392,-0.03904,0.01464,0.25376,0.01952,-0.10736,-0.10248,-0.14152,-0.13664
-0.00976,0.02928,-0.0488,-0.04392,-0.03904,0.01464,0.24888,0.01952,-0.10736,-0.10248,-0.14152,-0.13664
-0.00976,0.0366,-0.06344,-0.05856,-0.05368,0.02196,0.25376,0.02928,-0.0976,-0.09272,-0.13176,-0.12688
-0.0244,0.04636,-0.06832,-0.05612,-0.04392,0.00976,0.25864,0.03416,-0.09272,-0.09272,-0.12688,-0.13176
-0.0488,0.04636,-0.04392,-0.01952,0.00488,-0.02684,0.28304,0.00976,-0.08784,-0.09272,-0.13176,-0.12688
-0.05856,0.04636,-0.03416,-0.00488,0.0244,-0.04148,0.30744,0,-0.07808,-0.06832,-0.11224,-0.11224
-0.01952,0.02684,-0.03416,-0.0244,-0.01464,-0.00244,0.29768,-0.00488,-0.06344,-0.04392,-0.06344,-0.07808
0.00976,0.00488,-0.01952,-0.0244,-0.02928,0.01952,0.23912,-0.03416,-0.0732,-0.01952,-0.0244,0
0.06832,-0.03904,0.00976,-0.0244,-0.05856,0.06344,0.16104,-0.08784,-0.08784,0.00488,0.03416,0.08784
0.13664,-0.0976,0.05856,-0.00976,-0.07808,0.10736,0.06832,-0.1952,-0.10736,0.03904,0.11712,0.1952
0.22448,-0.19764,0.1708,0.05856,-0.05368,0.13908,-0.05368,-0.32208,-0.11224,0.11712,0.26352,0.36112
0.28792,-0.28304,0.27816,0.1342,-0.00976,0.14884,-0.15616,-0.40992,-0.04392,0.25376,0.45384,0.59048
0.38064,-0.41236,0.44408,0.25376,0.06344,0.1586,-0.25376,-0.49776,0.04392,0.39528,0.64904,0.81984
0.42456,-0.47092,0.51728,0.305,0.09272,0.16592,-0.2928,-0.52704,0.08296,0.47336,0.732,0.93208
0.46848,-0.51728,0.56608,0.33184,0.0976,0.18544,-0.31232,-0.55632,0.0732,0.48312,0.76616,0.976
0.42944,-0.4636,0.49776,0.28304,0.06832,0.18056,-0.28304,-0.55632,-0.05368,0.32696,0.59048,0.76128
0.31232,-0.34892,0.38552,0.22936,0.0732,0.11956,-0.1952,-0.50752,-0.2196,0.06344,0.24888,0.38552
0.13176,-0.20008,0.2684,0.20252,0.13664,-0.00244,-0.08784,-0.42944,-0.38064,-0.23912,-0.14152,-0.03904
0.01952,-0.09028,0.16104,0.15128,0.14152,-0.061,0.0244,-0.35136,-0.4636,-0.39528,-0.3416,-0.28792
-0.06832,-0.03416,0.13664,0.1708,0.20496,-0.13664,0.13176,-0.2928,-0.44408,-0.38552,-0.3416,-0.30744
-0.08296,-0.02196,0.12688,0.16836,0.20984,-0.1464,0.16592,-0.22936,-0.35136,-0.29768,-0.2684,-0.244
-0.06344,-0.0244,0.11224,0.14396,0.17568,-0.11956,0.18056,-0.1708,-0.27328,-0.25864,-0.24888,-0.21472
-0.0488,-0.02928,0.10736,0.13176,0.15616,-0.10248,0.20984,-0.13664,-0.20984,-0.19032,-0.19032,-0.18056
-0.02928,-0.02928,0.08784,0.10248,0.11712,-0.0732,0.21472,-0.0976,-0.15128,-0.13664,-0.1464,-0.14152
-0.01464,-0.03416,0.08296,0.09028,0.0976,-0.05612,0.22936,-0.0488,-0.0976,-0.08296,-0.10248,-0.10248
-0.01952,-0.01464,0.0488,0.05856,0.06832,-0.04392,0.25376,-0.0244,-0.08296,-0.09272,-0.11712,-0.10736
0,-0.00732,0.01464,0.01464,0.01464,-0.00732,0.27328,-0.00976,-0.06344,-0.05856,-0.08784,-0.09272
-0.01464,0.01464,-0.01464,-0.00732,0,-0.00732,0.30256,0.0244,-0.04392,-0.05368,-0.08296,-0.08784
-0.01464,0.01708,-0.01952,-0.0122,-0.00488,-0.00488,0.30744,0.02928,-0.03416,-0.0488,-0.07808,-0.08296
-0.0244,0.0244,-0.0244,-0.0122,0,-0.0122,0.31232,0.03416,-0.03904,-0.0488,-0.07808,-0.08296
-0.01952,0.02196,-0.0244,-0.01464,-0.00488,-0.00732,0.32208,0.04392,-0.03416,-0.03416,-0.0732,-0.07808
-0.01952,0.02684,-0.03416,-0.0244,-0.01464,-0.00244,0.3416,0.03416,-0.03416,-0.02928,-0.07808,-0.07808
-0.0244,0.0244,-0.0244,-0.0122,0,-0.0122,0.35136,0.03904,-0.0244,-0.02928,-0.0732,-0.0732
-0.01952,0.01708,-0.01464,-0.00488,0.00488,-0.0122,0.33672,0.0488,-0.01464,-0.01464,-0.06344,-0.06344
-0.00976,0.0122,-0.01464,-0.00976,-0.00488,-0.00244,0.33672,0.05856,-0.00976,-0.00488,-0.05856,-0.05856
0.00488,0,-0.00488,-0.00732,-0.00976,0.00732,0.32696,0.06832,-0.00488,-0.01464,-0.06344,-0.06344
0.00976,-0.00244,-0.00488,-0.00976,-0.01464,0.0122,0.30744,0.06832,-0.00488,-0.00976,-0.05856,-0.06832
0,0.00976,-0.01952,-0.01952,-0.01952,0.00976,0.30256,0.05856,0.00488,-0.01464,-0.05368,-0.06832
0,0.00732,-0.01464,-0.01464,-0.01464,0.00732,0.32208,0.05856,0.00976,0,-0.0488,-0.06344
-0.00976,0.01708,-0.0244,-0.01952,-0.01464,0.00244,0.33672,0.05368,0.00976,0,-0.05368,-0.05856
-0.00488,0.0122,-0.01952,-0.01708,-0.01464,0.00488,0.33184,0.05856,0.0244,0.00976,-0.0488,-0.05368
-0.00976,0.01952,-0.02928,-0.0244,-0.01952,0.00488,0.34648,0.05856,0.02928,0.01464,-0.03416,-0.04392
-0.00976,0.01708,-0.0244,-0.01952,-0.01464,0.00244,0.34648,0.05856,0.03904,0.0244,-0.02928,-0.03416
0,0.00976,-0.01952,-0.01952,-0.01952,0.00976,0.33184,0.05856,0.0488,0.03416,-0.01952,-0.03904
0,0.00732,-0.01464,-0.01464,-0.01464,0.00732,0.33184,0.06344,0.05368,0.0488,-0.00976,-0.02928
0.00976,0.00244,-0.01464,-0.01952,-0.0244,0.01708,0.31232,0.06344,0.05856,0.0488,0,-0.00976
0.0244,-0.00976,-0.00488,-0.01708,-0.02928,0.02684,0.31232,0.06832,0.06832,0.05368,0.00976,0
0.03904,-0.02196,0.00488,-0.01464,-0.03416,0.0366,0.2928,0.0732,0.06832,0.05368,0.00488,0
0.04392,-0.02684,0.00976,-0.0122,-0.03416,0.03904,0.2928,0.0732,0.08296,0.06832,0.01952,0
0.04392,-0.02928,0.01464,-0.00732,-0.02928,0.0366,0.29768,0.08296,0.11224,0.09272,0.03416,0.00976
0.03904,-0.02684,0.01464,-0.00488,-0.0244,0.03172,0.30744,0.09272,0.12688,0.10248,0.05368,0.02928
0.04392,-0.03904,0.03416,0.0122,-0.00976,0.02684,0.31232,0.10248,0.12688,0.122,0.0732,0.03904
0.0488,-0.04392,0.03904,0.01464,-0.00976,0.02928,0.3172,0.11224,0.15128,0.13176,0.07808,0.0488
0.05856,-0.04148,0.0244,-0.00488,-0.03416,0.04636,0.30744,0.11224,0.16104,0.13664,0.08296,0.05856
0.0732,-0.05856,0.04392,0.00732,-0.02928,0.05124,0.29768,0.12688,0.18544,0.16592,0.10248,0.08296
0.06344,-0.05368,0.04392,0.0122,-0.01952,0.04148,0.29768,0.12688,0.20008,0.17568,0.11712,0.08784
0.0732,-0.05856,0.04392,0.00732,-0.02928,0.05124,0.29768,0.122,0.21472,0.1952,0.13176,0.0976
0.08296,-0.06588,0.0488,0.00732,-0.03416,0.05856,0.2928,0.11712,0.2196,0.21472,0.15128,0.12688
0.08784,-0.0732,0.05856,0.01464,-0.02928,0.05856,0.2928,0.11712,0.23912,0.23424,0.17568,0.13664
0.09272,-0.07808,0.06344,0.01708,-0.02928,0.061,0.30744,0.12688,0.25864,0.24888,0.1952,0.1464
0.0976,-0.09028,0.08296,0.03416,-0.01464,0.05612,0.30744,0.13176,0.28304,0.2684,0.20984,0.1708
0.0976,-0.10004,0.10248,0.05368,0.00488,0.04636,0.2928,0.13176,0.30256,0.28792,0.22448,0.18056
0.10736,-0.1098,0.11224,0.05856,0.00488,0.05124,0.28304,0.13664,0.30744,0.29768,0.22936,0.1952
0.122,-0.12688,0.13176,0.07076,0.00976,0.05612,0.2684,0.15128,0.3172,0.31232,0.25376,0.2196
0.12688,-0.13908,0.15128,0.08784,0.0244,0.05124,0.27328,0.1464,0.3416,0.32696,0.2684,0.22936
0.13664,-0.15128,0.16592,0.0976,0.02928,0.05368,0.27816,0.13664,0.35624,0.3416,0.28792,0.244
0.14152,-0.1586,0.17568,0.10492,0.03416,0.05368,0.2684,0.13176,0.34648,0.3416,0.28792,0.24888
0.14152,-0.16104,0.18056,0.1098,0.03904,0.05124,0.27328,0.12688,0.33672,0.33184,0.28304,0.244
0.14152,-0.16348,0.18544,0.11468,0.04392,0.0488,0.2684,0.11712,0.33672,0.32696,0.27328,0.23912
0.1464,-0.16836,0.19032,0.11712,0.04392,0.05124,0.26352,0.11224,0.32696,0.32696,0.27328,0.244
0.12688,-0.1586,0.19032,0.12688,0.06344,0.03172,0.26352,0.10248,0.3172,0.32208,0.27328,0.24888
0.122,-0.16348,0.20496,0.14396,0.08296,0.01952,0.26352,0.07808,0.31232,0.31232,0.27328,0.23912
0.12688,-0.16836,0.20984,0.1464,0.08296,0.02196,0.24888,0.06344,0.28792,0.2928,0.25864,0.22936
0.13664,-0.16592,0.1952,0.12688,0.05856,0.03904,0.244,0.05856,0.26352,0.27328,0.22936,0.2196
0.13664,-0.1586,0.18056,0.11224,0.04392,0.04636,0.22936,0.03904,0.23424,0.23912,0.20984,0.20496
0.11712,-0.14396,0.1708,0.11224,0.05368,0.03172,0.20984,0.03416,0.21472,0.22448,0.19032,0.19032
0.11224,-0.13664,0.16104,0.10492,0.0488,0.03172,0.1952,0.02928,0.18544,0.1952,0.18056,0.17568
0.10248,-0.12932,0.15616,0.10492,0.05368,0.0244,0.1952,0.01952,0.13664,0.1708,0.1464,0.1464
0.09272,-0.11224,0.13176,0.0854,0.03904,0.02684,0.20496,0.00976,0.10248,0.122,0.10248,0.11224
0.06832,-0.08052,0.09272,0.05856,0.0244,0.02196,0.2196,-0.00488,0.07808,0.0976,0.0732,0.08784
0.0488,-0.06344,0.07808,0.05368,0.02928,0.00976,0.22448,-0.00976,0.0488,0.06832,0.05856,0.06344
0.0244,-0.04392,0.06344,0.05124,0.03904,-0.00732,0.23424,-0.0244,0.03416,0.03904,0.03416,0.03904
0.01952,-0.03904,0.05856,0.0488,0.03904,-0.00976,0.244,-0.0244,0.01464,0.00488,0.00488,0
0.0244,-0.0366,0.0488,0.0366,0.0244,0,0.24888,-0.01464,0,-0.00488,-0.01464,-0.00976
0.02928,-0.03172,0.03416,0.01952,0.00488,0.0122,0.23912,-0.01464,-0.01952,-0.01464,-0.01952,-0.01952
0.02928,-0.02196,0.01464,0,-0.01464,0.02196,0.23424,0,-0.02928,-0.02928,-0.03416,-0.03416
0.02928,-0.01708,0.00488,-0.00976,-0.0244,0.02684,0.22448,-0.00488,-0.03904,-0.03904,-0.0488,-0.03904
0.01464,-0.00244,-0.00976,-0.01708,-0.0244,0.01952,0.23424,0,-0.0488,-0.0488,-0.0488,-0.03904
0.01464,-0.00244,-0.00976,-0.01708,-0.0244,0.01952,0.23912,0,-0.05856,-0.06344,-0.05368,-0.05368
0,0,0,0,0,0,0.24888,-0.01464,-0.05368,-0.05368,-0.0488,-0.06344
-0.00976,0.00732,-0.00488,0,0.00488,-0.00732,0.24888,-0.00976,-0.05368,-0.05368,-0.0488,-0.06832
-0.00976,0.00976,-0.00976,-0.00488,0,-0.00488,0.25376,-0.01952,-0.06344,-0.06344,-0.06344,-0.05856
-0.00976,0.00976,-0.00976,-0.00488,0,-0.00488,0.27328,-0.01952,-0.06344,-0.06832,-0.06344,-0.05856
0,0.00976,-0.01952,-0.01952,-0.01952,0.00976,0.2684,-0.01952,-0.06832,-0.05856,-0.06344,-0.06832
0,0.00976,-0.01952,-0.01952,-0.01952,0.00976,0.27328,-0.01952,-0.06832,-0.05856,-0.06344,-0.06344
0,0.00244,-0.00488,-0.00488,-0.00488,0.00244,0.26352,-0.03416,-0.05856,-0.05856,-0.05856,-0.05368
0.00488,-0.00732,0.00976,0.00732,0.00488,0,0.27328,-0.03416,-0.06344,-0.06344,-0.05856,-0.05856
0.00488,0,-0.00488,-0.00732,-0.00976,0.00732,0.27328,-0.0244,-0.05368,-0.05368,-0.0488,-0.0488
0.00488,0.00488,-0.01464,-0.01708,-0.01952,0.0122,0.27816,-0.01464,-0.0488,-0.04392,-0.0488,-0.04392
0.01952,-0.00244,-0.01464,-0.0244,-0.03416,0.02684,0.27816,-0.01464,-0.05856,-0.05856,-0.05856,-0.05368
0.01464,-0.00244,-0.00976,-0.01708,-0.0244,0.01952,0.27328,-0.01464,-0.06832,-0.05856,-0.05856,-0.05368
0.01464,-0.00244,-0.00976,-0.01708,-0.0244,0.01952,0.27328,-0.0244,-0.0732,-0.06832,-0.05856,-0.05368
0.01952,-0.00488,-0.00976,-0.01952,-0.02928,0.0244,0.27328,-0.0244,-0.07808,-0.06344,-0.05856,-0.05368
0.00488,0.00244,-0.00976,-0.0122,-0.01464,0.00976,0.2684,-0.03416,-0.06832,-0.05856,-0.05856,-0.05368
0.00488,0,-0.00488,-0.00732,-0.00976,0.00732,0.2684,-0.03416,-0.06832,-0.06344,-0.05856,-0.05368
0.00488,0.00488,-0.01464,-0.01708,-0.01952,0.0122,0.27816,-0.03416,-0.07808,-0.06344,-0.05856,-0.06344
0.00488,0.00244,-0.00976,-0.0122,-0.01464,0.00976,0.27816,-0.03416,-0.07808,-0.06344,-0.05856,-0.06344
0.00488,0.00244,-0.00976,-0.0122,-0.01464,0.00976,0.27816,-0.03416,-0.07808,-0.06344,-0.05856,-0.06344
0.00488,0.00244,-0.00976,-0.0122,-0.01464,0.00976,0.27816,-0.02928,-0.07808,-0.06344,-0.05856,-0.06344
0.00488,0.00488,-0.01464,-0.01708,-0.01952,0.0122,0.28792,-0.03416,-0.06832,-0.06344,-0.06344,-0.06832
0.00488,0.00732,-0.01952,-0.02196,-0.0244,0.01464,0.2928,-0.03416,-0.0732,-0.06832,-0.05856,-0.06832
-0.00488,0.0122,-0.01952,-0.01708,-0.01464,0.00488,0.28792,-0.03416,-0.08296,-0.08296,-0.0732,-0.07808
-0.00488,0.0122,-0.01952,-0.01708,-0.01464,0.00488,0.28792,-0.03416,-0.07808,-0.07808,-0.0732,-0.07808
-0.00976,0.0122,-0.01464,-0.00976,-0.00488,-0.00244,0.28792,-0.04392,-0.08296,-0.06832,-0.0732,-0.08296
-0.00488,0.00732,-0.00976,-0.00732,-0.00488,0,0.28792,-0.04392,-0.08296,-0.06344,-0.0732,-0.08296
-0.01464,0.0122,-0.00976,-0.00244,0.00488,-0.00976,0.27816,-0.04392,-0.08784,-0.06832,-0.06344,-0.0732
0.01464,-0.01708,0.01952,0.0122,0.00488,0.00488,0.28792,-0.04392,-0.05856,-0.05856,-0.06344,-0.06344
0,-0.0122,0.0244,0.0244,0.0244,-0.0122,0.27328,-0.03904,-0.06832,-0.05856,-0.05856,-0.05856
0,-0.01708,0.03416,0.03416,0.03416,-0.01708,0.27328,-0.03904,-0.06832,-0.05856,-0.05856,-0.05856
0.01464,-0.0244,0.03416,0.02684,0.01952,-0.00244,0.26352,-0.03904,-0.06832,-0.05856,-0.05856,-0.06832
0.01464,-0.01952,0.0244,0.01708,0.00976,0.00244,0.2684,-0.03904,-0.06344,-0.05856,-0.05856,-0.06832
0.01464,-0.01708,0.01952,0.0122,0.00488,0.00488,0.26352,-0.04392,-0.05368,-0.04392,-0.05856,-0.06832
0.01952,-0.01464,0.00976,0,-0.00976,0.01464,0.25864,-0.04392,-0.05368,-0.04392,-0.05856,-0.06344
0.00976,-0.00976,0.00976,0.00488,0,0.00488,0.244,-0.02928,-0.04392,-0.03904,-0.05368,-0.05368
0.00976,-0.00244,-0.00488,-0.00976,-0.01464,0.0122,0.244,-0.02928,-0.05856,-0.0488,-0.05368,-0.06344
0,0.00488,-0.00976,-0.00976,-0.00976,0.00488,0.22936,-0.02928,-0.05856,-0.05368,-0.05368,-0.05856
0.00488,-0.00488,0.00488,0.00244,0,0.00244,0.2196,-0.04392,-0.05856,-0.05368,-0.0488,-0.05368
0.01952,-0.01708,0.01464,0.00488,-0.00488,0.0122,0.1952,-0.05856,-0.06832,-0.05856,-0.06344,-0.06344
0.02928,-0.02196,0.01464,0,-0.01464,0.02196,0.19032,-0.06832,-0.07808,-0.06832,-0.06832,-0.0732
0.02928,-0.01464,0,-0.01464,-0.02928,0.02928,0.19032,-0.05856,-0.08784,-0.07808,-0.0732,-0.0732
0.0244,-0.00488,-0.01464,-0.02684,-0.03904,0.03172,0.20008,-0.05856,-0.10248,-0.09272,-0.08296,-0.08784
0.0244,-0.00976,-0.00488,-0.01708,-0.02928,0.02684,0.20008,-0.05368,-0.08784,-0.07808,-0.0732,-0.0732
0.01952,-0.00244,-0.01464,-0.0244,-0.03416,0.02684,0.18544,-0.05368,-0.09272,-0.07808,-0.06832,-0.06832
0.02928,-0.0122,-0.00488,-0.01952,-0.03416,0.03172,0.16104,-0.04392,-0.10248,-0.10248,-0.08784,-0.08296
0.0244,-0.00244,-0.01952,-0.03172,-0.04392,0.03416,0.15616,-0.0488,-0.10736,-0.0976,-0.08784,-0.08296
0.0244,0,-0.0244,-0.0366,-0.0488,0.0366,0.1464,-0.05368,-0.11712,-0.10248,-0.08784,-0.08296
0.01464,0.00732,-0.02928,-0.0366,-0.04392,0.02928,0.1464,-0.0488,-0.10248,-0.10248,-0.08296,-0.08296
0.00976,0.00732,-0.0244,-0.02928,-0.03416,0.02196,0.15616,-0.05856,-0.09272,-0.0976,-0.08296,-0.07808
0.00976,0.00732,-0.0244,-0.02928,-0.03416,0.02196,0.15616,-0.05368,-0.0976,-0.0976,-0.08296,-0.08296
0,0.01952,-0.03904,-0.03904,-0.03904,0.01952,0.18056,-0.05368,-0.11712,-0.11224,-0.09272,-0.10248
0.00488,0.02684,-0.05856,-0.061,-0.06344,0.03416,0.19032,-0.0488,-0.11224,-0.10736,-0.09272,-0.10248
-0.00488,0.02684,-0.0488,-0.04636,-0.04392,0.01952,0.18056,-0.0488,-0.11224,-0.11224,-0.10736,-0.11224
-0.01464,0.03172,-0.0488,-0.04148,-0.03416,0.00976,0.18056,-0.0488,-0.11712,-0.122,-0.11712,-0.11712
-0.01464,0.03904,-0.06344,-0.05612,-0.0488,0.01708,0.16592,-0.04392,-0.122,-0.12688,-0.122,-0.122
-0.00976,0.04148,-0.0732,-0.06832,-0.06344,0.02684,0.16592,-0.0488,-0.13176,-0.13664,-0.13176,-0.13664
-0.01952,0.05124,-0.08296,-0.0732,-0.06344,0.02196,0.16592,-0.03416,-0.13176,-0.12688,-0.13176,-0.12688
-0.01952,0.05124,-0.08296,-0.0732,-0.06344,0.02196,0.15616,-0.03416,-0.13176,-0.12688,-0.13176,-0.13176
-0.02928,0.05124,-0.0732,-0.05856,-0.04392,0.00732,0.15128,-0.03904,-0.13176,-0.13664,-0.13176,-0.13664
-0.03904,0.05612,-0.0732,-0.05368,-0.03416,-0.00244,0.15128,-0.0488,-0.13176,-0.13176,-0.13176,-0.13664
-0.05368,0.06588,-0.07808,-0.05124,-0.0244,-0.01464,0.16104,-0.05368,-0.13664,-0.13176,-0.13664,-0.13176
-0.05368,0.07076,-0.08784,-0.061,-0.03416,-0.00976,0.16592,-0.05368,-0.13664,-0.13176,-0.14152,-0.13176
-0.03904,0.061,-0.08296,-0.06344,-0.04392,0.00244,0.16592,-0.04392,-0.12688,-0.12688,-0.122,-0.122
-0.0244,0.04636,-0.06832,-0.05612,-0.04392,0.00976,0.16592,-0.03416,-0.11712,-0.12688,-0.11224,-0.11712
-0.01952,0.0488,-0.07808,-0.06832,-0.05856,0.01952,0.15616,-0.04392,-0.10736,-0.11712,-0.10736,-0.11712
-0.01952,0.0488,-0.07808,-0.06832,-0.05856,0.01952,0.15616,-0.03904,-0.11224,-0.11712,-0.11712,-0.11224
-0.0244,0.04392,-0.06344,-0.05124,-0.03904,0.00732,0.1464,-0.03904,-0.122,-0.11224,-0.122,-0.11712
-0.03904,0.05368,-0.06832,-0.0488,-0.02928,-0.00488,0.14152,-0.03904,-0.11712,-0.11224,-0.122,-0.11712
-0.04392,0.05124,-0.05856,-0.0366,-0.01464,-0.01464,0.13664,-0.0488,-0.11712,-0.122,-0.122,-0.11712
-0.03416,0.04636,-0.05856,-0.04148,-0.0244,-0.00488,0.13176,-0.0488,-0.11712,-0.122,-0.122,-0.11712
-0.01464,0.03904,-0.06344,-0.05612,-0.0488,0.01708,0.12688,-0.03904,-0.10736,-0.11224,-0.11712,-0.11712
-0.01952,0.04392,-0.06832,-0.05856,-0.0488,0.01464,0.13176,-0.03416,-0.10248,-0.11224,-0.122,-0.122
0.00976,0.00732,-0.0244,-0.02928,-0.03416,0.02196,0.11712,-0.0488,-0.10736,-0.10248,-0.11224,-0.11712
-0.02928,0.04148,-0.05368,-0.03904,-0.0244,-0.00244,0.10248,-0.03904,-0.0976,-0.11712,-0.122,-0.13176
-0.0488,0.05612,-0.06344,-0.03904,-0.01464,-0.01708,0.10248,-0.05368,-0.10248,-0.11224,-0.11224,-0.10736
-0.02928,0.03904,-0.0488,-0.03416,-0.01952,-0.00488,0.10248,-0.09272,-0.11224,-0.07808,-0.04392,-0.01952
0.03904,-0.00976,-0.01952,-0.03904,-0.05856,0.0488,0.06344,-0.16592,-0.1464,-0.05368,0.03416,0.08784
0.11712,-0.08296,0.0488,-0.00976,-0.06832,0.09272,-0.02928,-0.244,-0.12688,0.02928,0.1464,0.244
0.20496,-0.17812,0.15128,0.0488,-0.05368,0.12932,-0.14152,-0.37088,-0.14152,0.0976,0.27328,0.40016
0.2684,-0.27816,0.28792,0.15372,0.01952,0.12444,-0.27328,-0.46848,-0.10248,0.21472,0.45384,0.61
0.3416,-0.38796,0.43432,0.26352,0.09272,0.12444,-0.37088,-0.54656,-0.00488,0.35624,0.6588,0.83936
0.40504,-0.4514,0.49776,0.29524,0.09272,0.15616,-0.40992,-0.56608,0.05368,0.45384,0.77104,0.97112
0.42944,-0.47336,0.51728,0.30256,0.08784,0.1708,-0.44896,-0.5856,0.03416,0.4636,0.78568,0.976
0.38064,-0.40992,0.4392,0.24888,0.05856,0.16104,-0.41968,-0.56608,-0.10248,0.25864,0.53192,0.69296
0.22448,-0.27084,0.3172,0.20496,0.09272,0.06588,-0.32208,-0.5368,-0.2684,-0.00488,0.20008,0.32696
0.08296,-0.1464,0.20984,0.16836,0.12688,-0.02196,-0.1952,-0.46848,-0.41968,-0.28792,-0.16104,-0.07808
0,-0.07076,0.14152,0.14152,0.14152,-0.07076,-0.08296,-0.38064,-0.47336,-0.4148,-0.33184,-0.27816
-0.07808,-0.0244,0.12688,0.16592,0.20496,-0.14152,-0.0244,-0.32208,-0.4636,-0.4148,-0.35136,-0.30744
-0.09272,-0.00732,0.10736,0.15372,0.20008,-0.1464,0.00976,-0.25864,-0.37088,-0.34648,-0.28792,-0.25376
-0.09272,-0.00488,0.10248,0.14884,0.1952,-0.14396,0.01464,-0.2196,-0.28304,-0.2684,-0.23912,-0.21472
-0.05856,-0.0244,0.10736,0.13664,0.16592,-0.11224,0.03416,-0.1952,-0.20984,-0.19032,-0.18056,-0.15128
-0.03904,-0.01464,0.06832,0.08784,0.10736,-0.0732,0.05856,-0.15616,-0.15128,-0.13664,-0.13664,-0.122
-0.0244,-0.00976,0.04392,0.05612,0.06832,-0.04636,0.08296,-0.11712,-0.12688,-0.11224,-0.122,-0.122
-0.01952,-0.00488,0.02928,0.03904,0.0488,-0.03416,0.10736,-0.08296,-0.09272,-0.10248,-0.11712,-0.10736
0,0.00732,-0.01464,-0.01464,-0.01464,0.00732,0.13664,-0.03904,-0.0732,-0.07808,-0.10736,-0.10248
-0.01952,0.01708,-0.01464,-0.00488,0.00488,-0.0122,0.13664,-0.03416,-0.05368,-0.06344,-0.09272,-0.0976
-0.02928,0.0244,-0.01952,-0.00488,0.00976,-0.01952,0.14152,-0.02928,-0.04392,-0.05856,-0.08784,-0.09272
-0.04392,0.02928,-0.01464,0.00732,0.02928,-0.0366,0.13176,-0.0244,-0.0488,-0.05856,-0.08784,-0.09272
-0.03904,0.02684,-0.01464,0.00488,0.0244,-0.03172,0.13176,-0.01464,-0.04392,-0.04392,-0.08296,-0.08784
-0.03416,0.0366,-0.03904,-0.02196,-0.00488,-0.01464,0.1464,-0.00488,-0.03416,-0.03904,-0.06832,-0.07808
-0.02928,0.03416,-0.03904,-0.0244,-0.00976,-0.00976,0.15616,0,-0.0244,-0.03904,-0.06344,-0.0732
-0.02928,0.03416,-0.03904,-0.0244,-0.00976,-0.00976,0.15616,-0.00488,-0.01464,-0.04392,-0.0732,-0.0732
-0.03904,0.04392,-0.0488,-0.02928,-0.00976,-0.01464,0.16592,-0.00488,-0.00976,-0.03416,-0.06832,-0.06832
-0.03904,0.0488,-0.05856,-0.03904,-0.01952,-0.00976,0.1708,-0.00976,0.00488,-0.02928,-0.05368,-0.05856
-0.0244,0.04636,-0.06832,-0.05612,-0.04392,0.00976,0.1708,-0.00976,0.00488,-0.01464,-0.0488,-0.05368
-0.00976,0.03416,-0.05856,-0.05368,-0.0488,0.01952,0.16104,-0.00976,0.00488,-0.00976,-0.05368,-0.05368
-0.00976,0.02196,-0.03416,-0.02928,-0.0244,0.00732,0.1708,-0.00976,0.00976,-0.00488,-0.0488,-0.05856
-0.01952,0.02684,-0.03416,-0.0244,-0.01464,-0.00244,0.17568,-0.01464,0,-0.00976,-0.05368,-0.05856
-0.01464,0.02196,-0.02928,-0.02196,-0.01464,0,0.16104,-0.00976,0.01464,0,-0.0488,-0.05368
-0.01952,0.02928,-0.03904,-0.02928,-0.01952,0,0.1708,-0.00976,0.02928,0.01464,-0.03904,-0.05368
-0.01952,0.02684,-0.03416,-0.0244,-0.01464,-0.00244,0.1708,-0.00976,0.03904,0.0244,-0.0244,-0.04392
-0.00976,0.01952,-0.02928,-0.0244,-0.01952,0.00488,0.16104,0,0.0488,0.0244,-0.01952,-0.03904
-0.00976,0.01708,-0.0244,-0.01952,-0.01464,0.00244,0.1708,0.00488,0.05368,0.03904,-0.00976,-0.02928
-0.00488,0.01708,-0.02928,-0.02684,-0.0244,0.00976,0.16104,0.01464,0.05856,0.0488,0,-0.01952
0,0.01464,-0.02928,-0.02928,-0.02928,0.01464,0.15128,0.01952,0.06832,0.05368,0.00976,-0.00976
-0.00488,0.01952,-0.03416,-0.03172,-0.02928,0.0122,0.1464,0.0244,0.08784,0.0732,0.0244,0.00488
-0.00976,0.01952,-0.02928,-0.0244,-0.01952,0.00488,0.1464,0.0244,0.10248,0.08784,0.03904,0.01464
-0.00976,0.00732,-0.00488,0,0.00488,-0.00732,0.15128,0.0244,0.11712,0.10248,0.03904,0.01464
-0.00488,0.00488,-0.00488,-0.00244,0,-0.00244,0.16104,0.03416,0.122,0.11224,0.0488,0.0244
-0.00488,0.00488,-0.00488,-0.00244,0,-0.00244,0.16104,0.03416,0.12688,0.122,0.05856,0.03904
0,0,0,0,0,0,0.15616,0.04392,0.15128,0.13176,0.0732,0.0488
0,0.00244,-0.00488,-0.00488,-0.00488,0.00244,0.16104,0.03416,0.16104,0.1464,0.09272,0.05856
0.01464,-0.01464,0.01464,0.00732,0,0.00732,0.15128,0.0488,0.18544,0.17568,0.11224,0.08296
0.01952,-0.0244,0.02928,0.01952,0.00976,0.00488,0.1464,0.05368,0.20496,0.20496,0.13664,0.0976
0.03904,-0.03904,0.03904,0.01952,0,0.01952,0.13664,0.05856,0.22936,0.22448,0.15128,0.10736
0.04392,-0.04636,0.0488,0.02684,0.00488,0.01952,0.13176,0.06832,0.244,0.244,0.17568,0.13664
0.0488,-0.05368,0.05856,0.03416,0.00976,0.01952,0.14152,0.06832,0.27328,0.26352,0.19032,0.1464
0.06344,-0.06344,0.06344,0.03172,0,0.03172,0.14152,0.07808,0.28792,0.28792,0.20008,0.15616
0.06832,-0.07564,0.08296,0.0488,0.01464,0.02684,0.14152,0.08296,0.31232,0.30744,0.22448,0.18056
0.06832,-0.08052,0.09272,0.05856,0.0244,0.02196,0.14152,0.0732,0.3416,0.32696,0.25376,0.19032
0.07808,-0.09028,0.10248,0.06344,0.0244,0.02684,0.14152,0.07808,0.34648,0.33672,0.25864,0.20496
0.07808,-0.09272,0.10736,0.06832,0.02928,0.0244,0.14152,0.08296,0.36112,0.3416,0.26352,0.22936
0.0732,-0.09516,0.11712,0.08052,0.04392,0.01464,0.1464,0.07808,0.37576,0.35624,0.27816,0.23912
0.07808,-0.10248,0.12688,0.08784,0.0488,0.01464,0.1464,0.08784,0.38552,0.36112,0.28792,0.23424
0.08296,-0.1098,0.13664,0.09516,0.05368,0.01464,0.12688,0.08296,0.37576,0.36112,0.28792,0.23912
0.09272,-0.122,0.15128,0.10492,0.05856,0.01708,0.12688,0.0732,0.366,0.36112,0.28792,0.244
0.09272,-0.12444,0.15616,0.1098,0.06344,0.01464,0.122,0.0732,0.366,0.35624,0.28792,0.23912
0.09272,-0.12932,0.16592,0.11956,0.0732,0.00976,0.122,0.05368,0.35136,0.33672,0.27816,0.23912
0.08296,-0.12932,0.17568,0.1342,0.09272,-0.00488,0.13176,0.04392,0.33184,0.33184,0.2684,0.23424
0.08784,-0.12932,0.1708,0.12688,0.08296,0.00244,0.1464,0.0244,0.3172,0.32208,0.27328,0.23912
0.08296,-0.12444,0.16592,0.12444,0.08296,0,0.13176,0.01952,0.30256,0.30256,0.25864,0.22936
0.08784,-0.122,0.15616,0.11224,0.06832,0.00976,0.122,0.01952,0.27816,0.2928,0.22936,0.20984
0.08784,-0.12444,0.16104,0.11712,0.0732,0.00732,0.0976,0,0.23912,0.25864,0.20984,0.1952
0.08784,-0.11956,0.15128,0.10736,0.06344,0.0122,0.08784,-0.00488,0.20496,0.22936,0.19032,0.17568
0.08296,-0.11224,0.14152,0.10004,0.05856,0.0122,0.08296,-0.00976,0.17568,0.19032,0.16104,0.15128
0.06832,-0.09272,0.11712,0.08296,0.0488,0.00976,0.10736,-0.02928,0.13664,0.16592,0.122,0.122
0.0488,-0.07076,0.09272,0.06832,0.04392,0.00244,0.13664,-0.03904,0.10248,0.12688,0.08784,0.0976
0.03416,-0.05368,0.0732,0.05612,0.03904,-0.00244,0.1464,-0.03904,0.0732,0.0976,0.06344,0.07808
0.0244,-0.04148,0.05856,0.04636,0.03416,-0.00488,0.14152,-0.03416,0.05368,0.06832,0.0488,0.05368
0.01952,-0.03172,0.04392,0.03416,0.0244,-0.00244,0.14152,-0.03416,0.0244,0.04392,0.01952,0.0244
0.0244,-0.03172,0.03904,0.02684,0.01464,0.00488,0.14152,-0.03416,0.00488,0.01952,0,-0.00488
0.00488,-0.00732,0.00976,0.00732,0.00488,0,0.16104,-0.0244,0,0.00976,-0.00976,-0.00488
-0.00976,0.00732,-0.00488,0,0.00488,-0.00732,0.1708,-0.0244,-0.01952,-0.00976,-0.0244,-0.0244
-0.01952,0.0122,-0.00488,0.00488,0.01464,-0.01708,0.17568,-0.01952,-0.03904,-0.02928,-0.04392,-0.04392
-0.01952,0.01708,-0.01464,-0.00488,0.00488,-0.0122,0.16592,-0.0244,-0.0488,-0.03904,-0.05856,-0.0488
-0.03416,0.03172,-0.02928,-0.0122,0.00488,-0.01952,0.17568,-0.00976,-0.03904,-0.02928,-0.05856,-0.03904
-0.03416,0.03172,-0.02928,-0.0122,0.00488,-0.01952,0.18056,-0.00976,-0.0488,-0.04392,-0.06344,-0.05368
-0.02928,0.0244,-0.01952,-0.00488,0.00976,-0.01952,0.18056,-0.0244,-0.06344,-0.05368,-0.06832,-0.06344
-0.01952,0.02196,-0.0244,-0.01464,-0.00488,-0.00732,0.18056,-0.01952,-0.06344,-0.05368,-0.06832,-0.06832
-0.00976,0.01708,-0.0244,-0.01952,-0.01464,0.00244,0.1708,-0.01464,-0.05368,-0.04392,-0.06344,-0.05856
-0.00976,0.0122,-0.01464,-0.00976,-0.00488,-0.00244,0.16104,-0.00488,-0.05368,-0.0488,-0.06344,-0.05856
-0.00976,0.01464,-0.01952,-0.01464,-0.00976,0,0.12688,0.00976,-0.06832,-0.05856,-0.0732,-0.06832
-0.00976,0.01464,-0.01952,-0.01464,-0.00976,0,0.122,0.00976,-0.06832,-0.05856,-0.0732,-0.06344
-0.01952,0.0244,-0.02928,-0.01952,-0.00976,-0.00488,0.13664,0,-0.07808,-0.06832,-0.07808,-0.0732
-0.01464,0.01952,-0.0244,-0.01708,-0.00976,-0.00244,0.16592,-0.00976,-0.08296,-0.0732,-0.07808,-0.07808
-0.0244,0.02684,-0.02928,-0.01708,-0.00488,-0.00976,0.18544,-0.00976,-0.07808,-0.0732,-0.07808,-0.07808
-0.0244,0.02684,-0.02928,-0.01708,-0.00488,-0.00976,0.20984,-0.00976,-0.06344,-0.06344,-0.07808,-0.0732
-0.02928,0.02928,-0.02928,-0.01464,0,-0.01464,0.2196,-0.01464,-0.0732,-0.06832,-0.08784,-0.0732
-0.03416,0.03416,-0.03416,-0.01708,0,-0.01708,0.21472,-0.01464,-0.0732,-0.06832,-0.08784,-0.0732
-0.04392,0.03904,-0.03416,-0.0122,0.00976,-0.02684,0.20496,-0.01464,-0.0732,-0.06832,-0.07808,-0.08296
-0.03904,0.04148,-0.04392,-0.0244,-0.00488,-0.01708,0.20496,-0.01464,-0.07808,-0.06344,-0.07808,-0.08296
-0.03904,0.04148,-0.04392,-0.0244,-0.00488,-0.01708,0.19032,-0.00488,-0.06832,-0.05856,-0.07808,-0.08296
-0.02928,0.02928,-0.02928,-0.01464,0,-0.01464,0.19032,-0.00488,-0.06832,-0.06344,-0.07808,-0.08296
-0.03416,0.0366,-0.03904,-0.02196,-0.00488,-0.01464,0.19032,-0.01464,-0.06832,-0.06344,-0.07808,-0.08296
-0.03416,0.03904,-0.04392,-0.02684,-0.00976,-0.0122,0.19032,-0.01464,-0.06832,-0.06344,-0.07808,-0.08296
-0.03904,0.04636,-0.05368,-0.03416,-0.01464,-0.0122,0.19032,-0.00488,-0.06832,-0.06344,-0.06832,-0.08296
-0.0488,0.04636,-0.04392,-0.01952,0.00488,-0.02684,0.19032,0,-0.06832,-0.06344,-0.06832,-0.08296
-0.03904,0.0366,-0.03416,-0.01464,0.00488,-0.02196,0.19032,-0.00488,-0.07808,-0.06344,-0.08296,-0.08784
-0.02928,0.03416,-0.03904,-0.0244,-0.00976,-0.00976,0.1952,-0.00488,-0.08296,-0.06832,-0.07808,-0.08784
-0.0244,0.0366,-0.0488,-0.0366,-0.0244,0,0.20008,0.00488,-0.0732,-0.06344,-0.0732,-0.07808
-0.0244,0.0366,-0.0488,-0.0366,-0.0244,0,0.20008,0.00488,-0.06832,-0.05856,-0.0732,-0.07808
-0.03416,0.03904,-0.04392,-0.02684,-0.00976,-0.0122,0.21472,0,-0.08296,-0.06832,-0.07808,-0.08296
-0.03904,0.03904,-0.03904,-0.01952,0,-0.01952,0.22448,-0.00976,-0.08296,-0.06344,-0.08784,-0.08296
-0.02928,0.03416,-0.03904,-0.0244,-0.00976,-0.00976,0.2196,-0.01464,-0.07808,-0.06832,-0.09272,-0.09272
-0.01952,0.0244,-0.02928,-0.01952,-0.00976,-0.00488,0.23912,-0.01464,-0.06832,-0.05856,-0.09272,-0.08296
-0.01952,0.0244,-0.02928,-0.01952,-0.00976,-0.00488,0.25864,-0.00976,-0.06344,-0.05368,-0.0732,-0.07808
-0.01952,0.01952,-0.01952,-0.00976,0,-0.00976,0.244,-0.00976,-0.0488,-0.0488,-0.06832,-0.06832
-0.02928,0.01952,-0.00976,0.00488,0.01952,-0.0244,0.25376,0,-0.03904,-0.0488,-0.06832,-0.06832
-0.03904,0.0244,-0.00976,0.00976,0.02928,-0.03416,0.25376,0,-0.03904,-0.0488,-0.06832,-0.06832
-0.0244,0.0122,0,0.0122,0.0244,-0.0244,0.24888,0,-0.04392,-0.0488,-0.06832,-0.07808
-0.0244,0.0122,0,0.0122,0.0244,-0.0244,0.244,0.00488,-0.04392,-0.0488,-0.06832,-0.07808
-0.01464,0.00732,0,0.00732,0.01464,-0.01464,0.22936,0.01464,-0.04392,-0.04392,-0.05856,-0.06344
0,0.00732,-0.01464,-0.01464,-0.01464,0.00732,0.22936,0.01464,-0.04392,-0.0488,-0.05856,-0.06344
-0.00976,0.02684,-0.04392,-0.03904,-0.03416,0.0122,0.22448,0.02928,-0.04392,-0.04392,-0.06832,-0.05856
-0.01952,0.04148,-0.06344,-0.05368,-0.04392,0.0122,0.22448,0.03904,-0.0488,-0.03904,-0.06832,-0.06344
-0.0244,0.04148,-0.05856,-0.04636,-0.03416,0.00488,0.22936,0.00976,-0.0488,-0.04392,-0.0732,-0.06344
-0.0244,0.03904,-0.05368,-0.04148,-0.02928,0.00244,0.20984,-0.00488,-0.05856,-0.05368,-0.06832,-0.0732
-0.0244,0.03416,-0.04392,-0.03172,-0.01952,-0.00244,0.2196,-0.0244,-0.06344,-0.0732,-0.07808,-0.08296
-0.02928,0.0366,-0.04392,-0.02928,-0.01464,-0.00732,0.244,-0.02928,-0.0732,-0.08296,-0.08784,-0.08784
-0.01952,0.03172,-0.04392,-0.03416,-0.0244,0.00244,0.24888,-0.01952,-0.08784,-0.0976,-0.11224,-0.0976
-0.0244,0.03416,-0.04392,-0.03172,-0.01952,-0.00244,0.25376,-0.00488,-0.09272,-0.10248,-0.11224,-0.0976
-0.00488,0.02928,-0.05368,-0.05124,-0.0488,0.02196,0.24888,-0.00488,-0.08784,-0.08784,-0.0976,-0.08784
-0.00976,0.0366,-0.06344,-0.05856,-0.05368,0.02196,0.244,-0.00488,-0.0976,-0.0976,-0.10736,-0.09272
-0.00976,0.04636,-0.08296,-0.07808,-0.0732,0.03172,0.25864,0.00488,-0.0976,-0.09272,-0.0976,-0.09272
-0.0244,0.05612,-0.08784,-0.07564,-0.06344,0.01952,0.25864,0,-0.0976,-0.08784,-0.0976,-0.09272
-0.02928,0.04636,-0.06344,-0.0488,-0.03416,0.00244,0.244,-0.00488,-0.0976,-0.09272,-0.10248,-0.09272
-0.02928,0.04148,-0.05368,-0.03904,-0.0244,-0.00244,0.23424,0,-0.09272,-0.09272,-0.10248,-0.09272
-0.00976,0.0366,-0.06344,-0.05856,-0.05368,0.02196,0.21472,-0.00976,-0.09272,-0.0976,-0.10248,-0.08784
-0.00976,0.03904,-0.06832,-0.06344,-0.05856,0.0244,0.21472,-0.00488,-0.0976,-0.10736,-0.10248,-0.0976
-0.0244,0.05612,-0.08784,-0.07564,-0.06344,0.01952,0.23424,0.00976,-0.10736,-0.11224,-0.11224,-0.11224
-0.04392,0.06832,-0.09272,-0.07076,-0.0488,0.00244,0.24888,0.00976,-0.10248,-0.10736,-0.11712,-0.11224
-0.06832,0.09028,-0.11224,-0.07808,-0.04392,-0.0122,0.27328,0.00976,-0.11712,-0.13176,-0.13176,-0.12688
-0.09272,0.10492,-0.11712,-0.07076,-0.0244,-0.03416,0.30256,0.01464,-0.11712,-0.13664,-0.1464,-0.12688
-0.06832,0.09272,-0.11712,-0.08296,-0.0488,-0.00976,0.31232,0.0244,-0.11712,-0.13176,-0.1464,-0.12688
-0.05856,0.08296,-0.10736,-0.07808,-0.0488,-0.00488,0.31232,0.01952,-0.122,-0.12688,-0.14152,-0.13664
-0.05856,0.08052,-0.10248,-0.0732,-0.04392,-0.00732,0.29768,0.01464,-0.122,-0.13664,-0.15128,-0.15128
-0.05856,0.07564,-0.09272,-0.06344,-0.03416,-0.0122,0.28792,0.00488,-0.122,-0.13664,-0.15128,-0.1464
-0.0732,0.09272,-0.11224,-0.07564,-0.03904,-0.01708,0.28792,0.00488,-0.122,-0.122,-0.14152,-0.13664
-0.0732,0.0976,-0.122,-0.0854,-0.0488,-0.0122,0.28792,0.00488,-0.122,-0.122,-0.13664,-0.13664
-0.06344,0.08784,-0.11224,-0.08052,-0.0488,-0.00732,0.27816,0.00488,-0.11712,-0.13176,-0.14152,-0.13176
-0.05368,0.07808,-0.10248,-0.07564,-0.0488,-0.00244,0.28304,0.00488,-0.11224,-0.13176,-0.13664,-0.13176
-0.05856,0.07808,-0.0976,-0.06832,-0.03904,-0.00976,0.27328,0.01952,-0.11224,-0.11712,-0.13664,-0.12688
-0.05856,0.0732,-0.08784,-0.05856,-0.02928,-0.01464,0.27328,0.01464,-0.11224,-0.11712,-0.13664,-0.12688
-0.06832,0.08296,-0.0976,-0.06344,-0.02928,-0.01952,0.28304,0.01952,-0.0976,-0.11712,-0.13176,-0.122
-0.06832,0.0854,-0.10248,-0.06832,-0.03416,-0.01708,0.2928,0.01952,-0.10248,-0.11712,-0.13176,-0.122
-0.06832,0.0854,-0.10248,-0.06832,-0.03416,-0.01708,0.30744,0.01952,-0.11224,-0.11224,-0.13176,-0.12688
-0.07808,0.09272,-0.10736,-0.06832,-0.02928,-0.0244,0.31232,0.01952,-0.10736,-0.11224,-0.13176,-0.12688
-0.08784,0.09272,-0.0976,-0.05368,-0.00976,-0.03904,0.3172,0.01952,-0.10736,-0.11224,-0.13176,-0.12688
-0.08296,0.09028,-0.0976,-0.05612,-0.01464,-0.03416,0.32696,0.01952,-0.10736,-0.11224,-0.12688,-0.12688
-0.0732,0.09028,-0.10736,-0.07076,-0.03416,-0.01952,0.32696,0.0244,-0.10736,-0.122,-0.13176,-0.13176
-0.08296,0.09272,-0.10248,-0.061,-0.01952,-0.03172,0.33184,0.01464,-0.10248,-0.122,-0.13176,-0.12688
-0.08784,0.08784,-0.08784,-0.04392,0,-0.04392,0.32696,0.00488,-0.08784,-0.10248,-0.13176,-0.11712
-0.07808,0.08052,-0.08296,-0.04392,-0.00488,-0.0366,0.30744,-0.00488,-0.08296,-0.06832,-0.07808,-0.07808
-0.02928,0.05856,-0.08784,-0.0732,-0.05856,0.01464,0.27328,-0.02928,-0.06832,-0.01464,-0.00976,0.02928
0.0244,-0.00976,-0.00488,-0.01708,-0.02928,0.02684,0.18544,-0.0976,-0.10248,0.00488,0.0732,0.13176
0.0976,-0.06832,0.03904,-0.00976,-0.05856,0.07808,0.06832,-0.18544,-0.12688,0.05856,0.1708,0.2684
0.16592,-0.15128,0.13664,0.05368,-0.02928,0.0976,-0.02928,-0.28792,-0.11712,0.15128,0.32696,0.4392
0.24888,-0.25376,0.25864,0.1342,0.00976,0.11956,-0.10736,-0.38552,-0.06344,0.28304,0.52216,0.67832
0.33672,-0.37332,0.40992,0.24156,0.0732,0.13176,-0.18056,-0.45872,0.02928,0.4392,0.74176,0.93696
0.39528,-0.427,0.45872,0.26108,0.06344,0.16592,-0.22448,-0.49288,0.05856,0.5368,0.85888,1.07848
0.44408,-0.48068,0.51728,0.29524,0.0732,0.18544,-0.26352,-0.51728,0.0732,0.59536,0.9272,1.15168
0.41968,-0.43676,0.45384,0.244,0.03416,0.19276,-0.22448,-0.48312,-0.03416,0.42944,0.72224,0.91256
0.33184,-0.33672,0.3416,0.17568,0.00976,0.16104,-0.1708,-0.45384,-0.20496,0.14152,0.34648,0.51728
0.16592,-0.18544,0.20496,0.122,0.03904,0.06344,-0.04392,-0.36112,-0.39528,-0.19032,-0.06832,0.06832
0.0488,-0.09272,0.13664,0.11224,0.08784,-0.01952,0.06832,-0.29768,-0.49776,-0.38064,-0.30744,-0.2196
-0.02928,-0.02684,0.08296,0.0976,0.11224,-0.07076,0.13176,-0.25864,-0.5124,-0.44896,-0.39528,-0.3172
-0.05368,-0.01708,0.08784,0.11468,0.14152,-0.0976,0.13664,-0.2196,-0.39528,-0.3416,-0.30256,-0.23912
-0.08296,0.00732,0.06832,0.1098,0.15128,-0.11712,0.18544,-0.18544,-0.28304,-0.26352,-0.23912,-0.1952
-0.07808,0.0122,0.05368,0.09272,0.13176,-0.10492,0.23424,-0.14152,-0.20984,-0.17568,-0.17568,-0.15616
-0.07808,0.0366,0.00488,0.04392,0.08296,-0.08052,0.30256,-0.07808,-0.122,-0.10736,-0.122,-0.11224
-0.08296,0.02196,0.03904,0.08052,0.122,-0.10248,0.35136,-0.01464,-0.0732,-0.06832,-0.08784,-0.08296
-0.08784,0.05612,-0.0244,0.01952,0.06344,-0.07564,0.36112,0.00976,-0.05368,-0.07808,-0.10248,-0.0976
-0.0488,0.0366,-0.0244,0,0.0244,-0.0366,0.38064,0.03416,-0.06832,-0.0488,-0.09272,-0.0976
-0.06344,0.04148,-0.01952,0.0122,0.04392,-0.05368,0.37576,0.03416,-0.0488,-0.0488,-0.10248,-0.09272
-0.05368,0.04636,-0.03904,-0.0122,0.01464,-0.03416,0.37576,0.04392,-0.03904,-0.03416,-0.08784,-0.08784
-0.05368,0.0488,-0.04392,-0.01708,0.00976,-0.03172,0.37576,0.05368,-0.03416,-0.02928,-0.08784,-0.08296
-0.05368,0.05368,-0.05368,-0.02684,0,-0.02684,0.37576,0.06344,-0.0244,-0.03904,-0.08784,-0.09272
-0.0488,0.061,-0.0732,-0.0488,-0.0244,-0.0122,0.37576,0.0732,-0.0244,-0.0244,-0.08296,-0.08784
-0.06344,0.06588,-0.06832,-0.0366,-0.00488,-0.02928,0.40016,0.06344,-0.02928,-0.02928,-0.08296,-0.0976
-0.0732,0.06832,-0.06344,-0.02684,0.00976,-0.04148,0.40016,0.05856,-0.0244,-0.0244,-0.08296,-0.09272
-0.0732,0.0732,-0.0732,-0.0366,0,-0.0366,0.4148,0.06832,-0.01464,-0.0244,-0.07808,-0.08784
-0.0732,0.0732,-0.0732,-0.0366,0,-0.0366,0.43432,0.07808,0,-0.01464,-0.0732,-0.08784
-0.06344,0.06832,-0.0732,-0.04148,-0.00976,-0.02684,0.44408,0.07808,0.00488,-0.00488,-0.06344,-0.07808
-0.0488,0.06344,-0.07808,-0.05368,-0.02928,-0.00976,0.44408,0.07808,0.00488,0.00488,-0.05856,-0.0732
-0.05856,0.06832,-0.07808,-0.0488,-0.01952,-0.01952,0.4392,0.07808,0.02928,0.00976,-0.05368,-0.06344
-0.0488,0.061,-0.0732,-0.0488,-0.0244,-0.0122,0.44896,0.07808,0.02928,0.01952,-0.0488,-0.06344
-0.03416,0.05368,-0.0732,-0.05612,-0.03904,0.00244,0.42456,0.0976,0.04392,0.02928,-0.03416,-0.0488
-0.0244,0.04636,-0.06832,-0.05612,-0.04392,0.00976,0.40504,0.0976,0.05368,0.0488,-0.02928,-0.04392
-0.02928,0.03904,-0.0488,-0.03416,-0.01952,-0.00488,0.39528,0.08784,0.05368,0.04392,-0.03416,-0.0488
-0.03904,0.0366,-0.03416,-0.01464,0.00488,-0.02196,0.38552,0.08784,0.06344,0.05856,-0.0244,-0.04392
-0.05856,0.05368,-0.0488,-0.01952,0.00976,-0.03416,0.41968,0.07808,0.06344,0.06344,-0.0244,-0.04392
-0.06832,0.061,-0.05368,-0.01952,0.01464,-0.04148,0.44408,0.0732,0.0732,0.06344,-0.01464,-0.04392
-0.0488,0.05124,-0.05368,-0.02928,-0.00488,-0.02196,0.4636,0.0976,0.09272,0.08784,0.00488,-0.01464
-0.0488,0.05124,-0.05368,-0.02928,-0.00488,-0.02196,0.48312,0.10736,0.11224,0.10736,0.0244,0
-0.03904,0.03904,-0.03904,-0.01952,0,-0.01952,0.46848,0.11224,0.12688,0.11224,0.03416,0
-0.03416,0.03172,-0.02928,-0.0122,0.00488,-0.01952,0.45384,0.11224,0.13664,0.122,0.04392,0.01464
-0.01464,0.01952,-0.0244,-0.01708,-0.00976,-0.00244,0.44408,0.11712,0.1464,0.13664,0.05368,0.0244
-0.01464,0.01708,-0.01952,-0.0122,-0.00488,-0.00488,0.45384,0.122,0.16104,0.15616,0.06832,0.03416
-0.0244,0.02196,-0.01952,-0.00732,0.00488,-0.01464,0.44408,0.122,0.18544,0.16592,0.07808,0.04392
-0.01952,0.02196,-0.0244,-0.01464,-0.00488,-0.00732,0.42456,0.13176,0.20496,0.18544,0.08784,0.05368
-0.01952,0.01464,-0.00976,0,0.00976,-0.01464,0.4148,0.13176,0.2196,0.20984,0.11224,0.0732
-0.00488,0.00488,-0.00488,-0.00244,0,-0.00244,0.4148,0.14152,0.24888,0.23424,0.13664,0.0976
0,-0.00244,0.00488,0.00488,0.00488,-0.00244,0.43432,0.1464,0.2684,0.25376,0.1464,0.10736
0.00488,-0.00976,0.01464,0.0122,0.00976,-0.00244,0.44408,0.1464,0.28304,0.2684,0.15616,0.11712
0.01952,-0.02196,0.0244,0.01464,0.00488,0.00732,0.44896,0.15616,0.30744,0.2928,0.18056,0.14152
0.01952,-0.03172,0.04392,0.03416,0.0244,-0.00244,0.45384,0.16104,0.33184,0.3172,0.20008,0.15128
0.02928,-0.04636,0.06344,0.0488,0.03416,-0.00244,0.45384,0.18056,0.37088,0.34648,0.23912,0.18056
0.01952,-0.05368,0.08784,0.07808,0.06832,-0.0244,0.45384,0.18056,0.3904,0.366,0.25864,0.1952
0.0244,-0.05612,0.08784,0.07564,0.06344,-0.01952,0.44408,0.18056,0.40504,0.37088,0.26352,0.21472
0.03416,-0.06588,0.0976,0.08052,0.06344,-0.01464,0.4392,0.19032,0.4148,0.38064,0.28304,0.22448
0.04392,-0.08052,0.11712,0.09516,0.0732,-0.01464,0.4148,0.17568,0.42944,0.40016,0.28304,0.22448
0.05856,-0.09272,0.12688,0.0976,0.06832,-0.00488,0.4148,0.17568,0.43432,0.40992,0.2928,0.23424
0.05368,-0.0854,0.11712,0.09028,0.06344,-0.00488,0.43432,0.18056,0.42456,0.40992,0.29768,0.23424
0.04392,-0.08052,0.11712,0.09516,0.0732,-0.01464,0.42944,0.18056,0.4148,0.40992,0.29768,0.244
0.05368,-0.10004,0.1464,0.11956,0.09272,-0.01952,0.4392,0.1708,0.4148,0.40992,0.29768,0.25376
0.05368,-0.10736,0.16104,0.1342,0.10736,-0.02684,0.4392,0.15616,0.40992,0.40016,0.2928,0.24888
0.0732,-0.11224,0.15128,0.11468,0.07808,-0.00244,0.42944,0.1464,0.40504,0.40504,0.29768,0.244
0.06344,-0.10492,0.1464,0.11468,0.08296,-0.00976,0.42944,0.13176,0.38552,0.39528,0.28792,0.23912
0.05368,-0.10248,0.15128,0.12444,0.0976,-0.02196,0.4148,0.12688,0.35136,0.36112,0.26352,0.22448
0.0488,-0.0976,0.1464,0.122,0.0976,-0.0244,0.3904,0.10248,0.31232,0.33672,0.23912,0.21472
0.0488,-0.0976,0.1464,0.122,0.0976,-0.0244,0.38552,0.08784,0.28304,0.2928,0.2196,0.20008
0.03904,-0.09028,0.14152,0.122,0.10248,-0.03172,0.37576,0.0732,0.23912,0.26352,0.19032,0.17568
0.03416,-0.07076,0.10736,0.09028,0.0732,-0.01952,0.37576,0.06832,0.20008,0.22936,0.15616,0.1464
0.03416,-0.061,0.08784,0.07076,0.05368,-0.00976,0.38064,0.06344,0.1708,0.1952,0.12688,0.11712
0.0244,-0.04636,0.06832,0.05612,0.04392,-0.00976,0.39528,0.05368,0.13176,0.16592,0.10736,0.10248
0.00488,-0.02196,0.03904,0.0366,0.03416,-0.01464,0.40016,0.0488,0.10248,0.12688,0.0732,0.0732
0,-0.01464,0.02928,0.02928,0.02928,-0.01464,0.40016,0.03904,0.05368,0.09272,0.03416,0.03416
-0.00976,0,0.00976,0.01464,0.01952,-0.01464,0.39528,0.03904,0.02928,0.05368,0.00976,0.00976
-0.00976,0.00976,-0.00976,-0.00488,0,-0.00488,0.40504,0.0244,-0.00488,0.03416,-0.01464,-0.00976
-0.01464,0.01952,-0.0244,-0.01708,-0.00976,-0.00244,0.40992,0.0244,-0.0244,0.00976,-0.02928,-0.02928
-0.02928,0.03416,-0.03904,-0.0244,-0.00976,-0.00976,0.41968,0.03416,-0.02928,0,-0.03416,-0.03416
-0.03416,0.03904,-0.04392,-0.02684,-0.00976,-0.0122,0.41968,0.03904,-0.0488,-0.01464,-0.0488,-0.05368
-0.03904,0.0488,-0.05856,-0.03904,-0.01952,-0.00976,0.42456,0.04392,-0.04392,-0.0244,-0.05368,-0.05368
-0.03904,0.05124,-0.06344,-0.04392,-0.0244,-0.00732,0.42944,0.04392,-0.0488,-0.02928,-0.05856,-0.05856
-0.03416,0.04148,-0.0488,-0.03172,-0.01464,-0.00976,0.42456,0.0488,-0.05856,-0.03416,-0.0732,-0.06832
-0.03416,0.0366,-0.03904,-0.02196,-0.00488,-0.01464,0.42944,0.04392,-0.06344,-0.04392,-0.07808,-0.0732
-0.04392,0.04636,-0.0488,-0.02684,-0.00488,-0.01952,0.41968,0.03904,-0.06344,-0.04392,-0.07808,-0.0732
-0.0488,0.05856,-0.06832,-0.04392,-0.01952,-0.01464,0.41968,0.03904,-0.06344,-0.04392,-0.08296,-0.07808
-0.0488,0.06344,-0.07808,-0.05368,-0.02928,-0.00976,0.42944,0.03904,-0.05368,-0.03904,-0.0732,-0.06832
-0.0488,0.06344,-0.07808,-0.05368,-0.02928,-0.00976,0.42944,0.03904,-0.05368,-0.03904,-0.0732,-0.0732
-0.03904,0.05368,-0.06832,-0.0488,-0.02928,-0.00488,0.42456,0.03904,-0.06832,-0.0488,-0.08296,-0.07808
-0.02928,0.04392,-0.05856,-0.04392,-0.02928,0,0.42456,0.03904,-0.06832,-0.0488,-0.08296,-0.0732
-0.03416,0.04392,-0.05368,-0.0366,-0.01952,-0.00732,0.42456,0.03416,-0.0732,-0.06344,-0.08784,-0.08296
-0.05368,0.05368,-0.05368,-0.02684,0,-0.02684,0.42944,0.03904,-0.0732,-0.06344,-0.08784,-0.08784
-0.05368,0.05612,-0.05856,-0.03172,-0.00488,-0.0244,0.43432,0.02928,-0.06832,-0.05856,-0.08784,-0.08784
-0.0488,0.05368,-0.05856,-0.03416,-0.00976,-0.01952,0.43432,0.0244,-0.0732,-0.05368,-0.08784,-0.08296
-0.04392,0.04636,-0.0488,-0.02684,-0.00488,-0.01952,0.43432,0.03416,-0.06344,-0.0488,-0.08784,-0.0732
-0.03416,0.03904,-0.04392,-0.02684,-0.00976,-0.0122,0.42944,0.03416,-0.06344,-0.0488,-0.08784,-0.0732
-0.04392,0.04636,-0.0488,-0.02684,-0.00488,-0.01952,0.41968,0.03416,-0.07808,-0.05368,-0.07808,-0.08296
-0.03904,0.04392,-0.0488,-0.02928,-0.00976,-0.01464,0.4148,0.03416,-0.07808,-0.05856,-0.07808,-0.08296
-0.05368,0.05368,-0.05368,-0.02684,0,-0.02684,0.42456,0.04392,-0.06832,-0.05368,-0.07808,-0.08296
-0.06344,0.06832,-0.0732,-0.04148,-0.00976,-0.02684,0.43432,0.04392,-0.06832,-0.05368,-0.07808,-0.08296
-0.05368,0.05612,-0.05856,-0.03172,-0.00488,-0.0244,0.44408,0.03416,-0.07808,-0.06344,-0.07808,-0.08296
-0.04392,0.05124,-0.05856,-0.0366,-0.01464,-0.01464,0.44408,0.03416,-0.07808,-0.06344,-0.07808,-0.08296
-0.04392,0.05612,-0.06832,-0.04636,-0.0244,-0.00976,0.45384,0.03416,-0.06832,-0.05368,-0.07808,-0.08296
-0.04392,0.05856,-0.0732,-0.05124,-0.02928,-0.00732,0.47336,0.03904,-0.06832,-0.05368,-0.08296,-0.08784
-0.05368,0.061,-0.06832,-0.04148,-0.01464,-0.01952,0.4636,0.03416,-0.08296,-0.06344,-0.08784,-0.08784
-0.05368,0.061,-0.06832,-0.04148,-0.01464,-0.01952,0.46848,0.03416,-0.08296,-0.0732,-0.09272,-0.08784
-0.04392,0.05612,-0.06832,-0.04636,-0.0244,-0.00976,0.47336,0.04392,-0.06832,-0.05856,-0.08296,-0.07808
-0.03416,0.0488,-0.06344,-0.04636,-0.02928,-0.00244,0.47336,0.04392,-0.06832,-0.05856,-0.0732,-0.07808
-0.0488,0.061,-0.0732,-0.0488,-0.0244,-0.0122,0.47336,0.04392,-0.06344,-0.05368,-0.06344,-0.0732
-0.04392,0.05612,-0.06832,-0.04636,-0.0244,-0.00976,0.45872,0.04392,-0.06344,-0.05856,-0.06344,-0.0732
-0.04392,0.03904,-0.03416,-0.0122,0.00976,-0.02684,0.4636,0.05368,-0.05856,-0.04392,-0.06344,-0.0732
-0.03416,0.03904,-0.04392,-0.02684,-0.00976,-0.0122,0.4636,0.04392,-0.05856,-0.0488,-0.05856,-0.06832
-0.02928,0.02928,-0.02928,-0.01464,0,-0.01464,0.45872,0.0488,-0.03904,-0.03904,-0.06832,-0.06832
-0.02928,0.02928,-0.02928,-0.01464,0,-0.01464,0.45872,0.0488,-0.03904,-0.03904,-0.06832,-0.06832
-0.01464,0.01464,-0.01464,-0.00732,0,-0.00732,0.45872,0.03904,-0.0488,-0.03904,-0.05856,-0.06832
-0.01464,0.00976,-0.00488,0.00244,0.00976,-0.0122,0.4636,0.03904,-0.04392,-0.03904,-0.05856,-0.06832
-0.01464,0.01464,-0.01464,-0.00732,0,-0.00732,0.45872,0.04392,-0.03416,-0.0244,-0.05856,-0.07808
-0.00976,0.02196,-0.03416,-0.02928,-0.0244,0.00732,0.45384,0.04392,-0.03416,-0.0244,-0.05856,-0.0732
-0.00976,0.02928,-0.0488,-0.04392,-0.03904,0.01464,0.44896,0.0488,-0.04392,-0.03904,-0.05856,-0.0732
-0.00976,0.0366,-0.06344,-0.05856,-0.05368,0.02196,0.44896,0.0488,-0.05856,-0.0488,-0.06832,-0.08296
-0.01464,0.0366,-0.05856,-0.05124,-0.04392,0.01464,0.45384,0.05856,-0.05856,-0.03416,-0.06344,-0.06832
-0.01952,0.03172,-0.04392,-0.03416,-0.0244,0.00244,0.44408,0.04392,-0.05856,-0.03416,-0.05856,-0.06344
-0.01464,0.03172,-0.0488,-0.04148,-0.03416,0.00976,0.43432,0.02928,-0.06832,-0.04392,-0.0732,-0.0732
-0.01464,0.0366,-0.05856,-0.05124,-0.04392,0.01464,0.4392,0.01952,-0.07808,-0.06344,-0.07808,-0.08296
-0.01952,0.03904,-0.05856,-0.0488,-0.03904,0.00976,0.45384,0.0244,-0.07808,-0.06832,-0.08296,-0.08296
-0.0244,0.0488,-0.0732,-0.061,-0.0488,0.0122,0.4636,0.03416,-0.09272,-0.08296,-0.09272,-0.0976
-0.00488,0.03904,-0.0732,-0.07076,-0.06832,0.03172,0.45872,0.04392,-0.08784,-0.07808,-0.09272,-0.10248
-0.00976,0.04636,-0.08296,-0.07808,-0.0732,0.03172,0.45384,0.04392,-0.09272,-0.07808,-0.08784,-0.0976
0,0.0366,-0.0732,-0.0732,-0.0732,0.0366,0.45872,0.03416,-0.11224,-0.09272,-0.0976,-0.10248
-0.00488,0.04636,-0.08784,-0.0854,-0.08296,0.03904,0.4636,0.02928,-0.11712,-0.08784,-0.0976,-0.10248
-0.00976,0.03904,-0.06832,-0.06344,-0.05856,0.0244,0.46848,0.03416,-0.10736,-0.08296,-0.0976,-0.10248
-0.00976,0.0366,-0.06344,-0.05856,-0.05368,0.02196,0.46848,0.03904,-0.09272,-0.08296,-0.09272,-0.10248
0,0.0366,-0.0732,-0.0732,-0.0732,0.0366,0.46848,0.02928,-0.09272,-0.08784,-0.09272,-0.0976
0,0.0366,-0.0732,-0.0732,-0.0732,0.0366,0.46848,0.03416,-0.0976,-0.08784,-0.09272,-0.10248
-0.01952,0.05124,-0.08296,-0.0732,-0.06344,0.02196,0.48312,0.04392,-0.10736,-0.10248,-0.10248,-0.11224
-0.03416,0.06344,-0.09272,-0.07564,-0.05856,0.0122,0.49288,0.0488,-0.10248,-0.0976,-0.10248,-0.11224
-0.04392,0.06832,-0.09272,-0.07076,-0.0488,0.00244,0.49776,0.03904,-0.10248,-0.09272,-0.10736,-0.122
-0.05368,0.07808,-0.10248,-0.07564,-0.0488,-0.00244,0.50752,0.03904,-0.10736,-0.10248,-0.11712,-0.12688
-0.05368,0.0854,-0.11712,-0.09028,-0.06344,0.00488,0.50752,0.04392,-0.122,-0.11712,-0.122,-0.13176
-0.0488,0.08296,-0.11712,-0.09272,-0.06832,0.00976,0.50752,0.03904,-0.13176,-0.12688,-0.13176,-0.1464
-0.05856,0.09028,-0.122,-0.09272,-0.06344,0.00244,0.5124,0.04392,-0.13176,-0.12688,-0.13176,-0.1464
-0.05856,0.09028,-0.122,-0.09272,-0.06344,0.00244,0.5124,0.04392,-0.13176,-0.12688,-0.13176,-0.15128
-0.06344,0.09272,-0.122,-0.09028,-0.05856,-0.00244,0.51728,0.04392,-0.122,-0.13664,-0.14152,-0.1464
-0.06344,0.09272,-0.122,-0.09028,-0.05856,-0.00244,0.52704,0.04392,-0.122,-0.13176,-0.14152,-0.1464
-0.06832,0.10004,-0.13176,-0.0976,-0.06344,-0.00244,0.52704,0.04392,-0.12688,-0.13176,-0.13664,-0.15128
-0.07808,0.10492,-0.13176,-0.09272,-0.05368,-0.0122,0.52216,0.04392,-0.12688,-0.13176,-0.14152,-0.15128
-0.0732,0.09516,-0.11712,-0.08052,-0.04392,-0.01464,0.52704,0.0488,-0.11224,-0.11712,-0.12688,-0.1464
-0.06832,0.08052,-0.09272,-0.05856,-0.0244,-0.02196,0.52704,0.0488,-0.11224,-0.11712,-0.12688,-0.13176
-0.06344,0.07564,-0.08784,-0.05612,-0.0244,-0.01952,0.51728,0.05368,-0.11712,-0.11712,-0.13176,-0.12688
-0.05368,0.07076,-0.08784,-0.061,-0.03416,-0.00976,0.51728,0.05856,-0.122,-0.11712,-0.13176,-0.122
-0.0488,0.07076,-0.09272,-0.06832,-0.04392,-0.00244,0.52216,0.0488,-0.122,-0.122,-0.13176,-0.13664
-0.05368,0.07564,-0.0976,-0.07076,-0.04392,-0.00488,0.52704,0.0488,-0.11712,-0.122,-0.13176,-0.13664
-0.05856,0.08296,-0.10736,-0.07808,-0.0488,-0.00488,0.54168,0.05856,-0.10736,-0.11224,-0.122,-0.12688
-0.05856,0.08296,-0.10736,-0.07808,-0.0488,-0.00488,0.54656,0.05856,-0.10736,-0.11224,-0.122,-0.12688
-0.06344,0.0854,-0.10736,-0.07564,-0.04392,-0.00976,0.54168,0.05856,-0.10736,-0.122,-0.122,-0.13664
-0.06832,0.0854,-0.10248,-0.06832,-0.03416,-0.01708,0.5368,0.06344,-0.10248,-0.122,-0.13664,-0.14152
-0.08784,0.09516,-0.10248,-0.05856,-0.01464,-0.0366,0.51728,0.0488,-0.08784,-0.11224,-0.13176,-0.12688
-0.07808,0.08052,-0.08296,-0.04392,-0.00488,-0.0366,0.50264,0.03904,-0.08784,-0.08784,-0.10248,-0.10248
-0.02928,0.05124,-0.0732,-0.05856,-0.04392,0.00732,0.4636,0.01464,-0.10248,-0.06344,-0.06344,-0.05856
-0.01952,0.03904,-0.05856,-0.0488,-0.03904,0.00976,0.45384,-0.04392,-0.11224,-0.03904,0.00488,0.03904
0.02928,0.00488,-0.03904,-0.05368,-0.06832,0.0488,0.40504,-0.10736,-0.1464,-0.01464,0.0732,0.13664
0.11712,-0.08784,0.05856,0,-0.05856,0.08784,0.30256,-0.20496,-0.1464,0.06832,0.20496,0.2928
0.18544,-0.1586,0.13176,0.03904,-0.05368,0.11956,0.20008,-0.32208,-0.14152,0.16592,0.38064,0.488
0.2684,-0.27328,0.27816,0.14396,0.00976,0.12932,0.07808,-0.3904,-0.05368,0.32208,0.59048,0.73688
0.3904,-0.4026,0.4148,0.2196,0.0244,0.183,-0.01952,-0.44896,0.0244,0.44408,0.7564,0.93696
0.44408,-0.46604,0.488,0.26596,0.04392,0.20008,-0.07808,-0.488,0.03416,0.52216,0.86864,1.07848
0.44896,-0.46848,0.488,0.26352,0.03904,0.20496,-0.08784,-0.488,0.01464,0.50264,0.854,1.04432
0.40016,-0.38064,0.36112,0.16104,-0.03904,0.2196,-0.03904,-0.4392,-0.15128,0.25864,0.53192,0.6832
0.2928,-0.28548,0.27816,0.13176,-0.01464,0.15372,0.02928,-0.3904,-0.30744,-0.03416,0.15128,0.2684
0.11224,-0.13176,0.15128,0.09516,0.03904,0.0366,0.1464,-0.31232,-0.47824,-0.32696,-0.2196,-0.12688
-0.01952,-0.02684,0.0732,0.08296,0.09272,-0.05612,0.2684,-0.25376,-0.54168,-0.45384,-0.37088,-0.30744
-0.05856,0,0.05856,0.08784,0.11712,-0.08784,0.30744,-0.21472,-0.49288,-0.45384,-0.36112,-0.3172
-0.06344,-0.0122,0.08784,0.11956,0.15128,-0.10736,0.35136,-0.16104,-0.33184,-0.30744,-0.2684,-0.22448
-0.0732,0,0.0732,0.1098,0.1464,-0.1098,0.366,-0.14152,-0.23424,-0.22936,-0.20984,-0.17568
-0.0488,-0.00488,0.05856,0.08296,0.10736,-0.07808,0.38552,-0.07808,-0.1708,-0.15128,-0.14152,-0.122
-0.05856,0.01464,0.02928,0.05856,0.08784,-0.0732,0.41968,-0.02928,-0.122,-0.11712,-0.10736,-0.10248
-0.04392,0.01464,0.01464,0.0366,0.05856,-0.05124,0.43432,0,-0.07808,-0.09272,-0.09272,-0.10248
-0.05856,0.03416,-0.00976,0.01952,0.0488,-0.05368,0.44896,0.03416,-0.06344,-0.08296,-0.10736,-0.0976
-0.05856,0.05124,-0.04392,-0.01464,0.01464,-0.0366,0.45872,0.05856,-0.05368,-0.06832,-0.07808,-0.09272
-0.06344,0.05856,-0.05368,-0.02196,0.00976,-0.0366,0.45384,0.06344,-0.05368,-0.06344,-0.08296,-0.08784
-0.06344,0.061,-0.05856,-0.02684,0.00488,-0.03416,0.44896,0.06832,-0.04392,-0.05856,-0.07808,-0.08296
-0.06344,0.05856,-0.05368,-0.02196,0.00976,-0.0366,0.44408,0.0732,-0.02928,-0.05856,-0.08784,-0.09272
-0.05856,0.05612,-0.05368,-0.0244,0.00488,-0.03172,0.44408,0.08296,-0.0244,-0.04392,-0.08296,-0.08784
-0.05856,0.06344,-0.06832,-0.03904,-0.00976,-0.0244,0.4392,0.08296,-0.0244,-0.03904,-0.06832,-0.08784
-0.06344,0.06588,-0.06832,-0.0366,-0.00488,-0.02928,0.44896,0.08784,-0.01464,-0.03904,-0.06344,-0.08296
-0.05856,0.061,-0.06344,-0.03416,-0.00488,-0.02684,0.42944,0.0976,-0.00488,-0.03416,-0.06344,-0.08296
-0.0488,0.05612,-0.06344,-0.03904,-0.01464,-0.01708,0.41968,0.10736,0,-0.0244,-0.05856,-0.07808
-0.05368,0.05856,-0.06344,-0.0366,-0.00976,-0.02196,0.39528,0.0976,0.00976,-0.0244,-0.05368,-0.07808
-0.0488,0.05612,-0.06344,-0.03904,-0.01464,-0.01708,0.37576,0.0976,0,-0.01952,-0.0488,-0.0732
-0.05856,0.05856,-0.05856,-0.02928,0,-0.02928,0.35624,0.10736,0.00976,-0.00488,-0.03416,-0.05856
-0.05856,0.05612,-0.05368,-0.0244,0.00488,-0.03172,0.34648,0.10736,0.0244,0.00976,-0.02928,-0.05368
-0.05368,0.05856,-0.06344,-0.0366,-0.00976,-0.02196,0.33672,0.11224,0.02928,0.00976,-0.03416,-0.0488
-0.03904,0.0488,-0.05856,-0.03904,-0.01952,-0.00976,0.31232,0.11712,0.04392,0.01952,-0.02928,-0.04392
-0.02928,0.0488,-0.06832,-0.05368,-0.03904,0.00488,0.30744,0.10736,0.0488,0.0244,-0.0244,-0.05368
-0.02928,0.04636,-0.06344,-0.0488,-0.03416,0.00244,0.28792,0.10736,0.05856,0.03416,-0.01952,-0.04392
-0.03416,0.04636,-0.05856,-0.04148,-0.0244,-0.00488,0.2684,0.11712,0.07808,0.04392,0,-0.02928
-0.04392,0.0488,-0.05368,-0.03172,-0.00976,-0.01708,0.27816,0.122,0.08296,0.05856,0.00976,-0.01952
-0.02928,0.0366,-0.04392,-0.02928,-0.01464,-0.00732,0.2684,0.11224,0.08784,0.07808,0.01952,-0.00976
-0.01464,0.0244,-0.03416,-0.02684,-0.01952,0.00244,0.25864,0.11712,0.0976,0.08296,0.02928,0
-0.01952,0.03172,-0.04392,-0.03416,-0.0244,0.00244,0.23424,0.122,0.11712,0.09272,0.04392,0.00488
-0.01464,0.02684,-0.03904,-0.03172,-0.0244,0.00488,0.23424,0.122,0.13176,0.10736,0.05856,0.01464
-0.01952,0.01708,-0.01464,-0.00488,0.00488,-0.0122,0.2196,0.11224,0.14152,0.11224,0.05856,0.01464
-0.01464,0.01464,-0.01464,-0.00732,0,-0.00732,0.22936,0.122,0.15616,0.122,0.06832,0.0244
-0.0244,0.01464,-0.00488,0.00732,0.01952,-0.02196,0.22936,0.12688,0.17568,0.15128,0.08784,0.0488
-0.01952,0.00976,0,0.00976,0.01952,-0.01952,0.22448,0.1464,0.20008,0.16104,0.10248,0.05856
-0.01952,0.0122,-0.00488,0.00488,0.01464,-0.01708,0.2196,0.1464,0.20984,0.16592,0.11224,0.05856
-0.00488,-0.00488,0.01464,0.01708,0.01952,-0.0122,0.20984,0.15128,0.23424,0.1952,0.13176,0.08296
-0.00488,-0.00732,0.01952,0.02196,0.0244,-0.01464,0.20008,0.15128,0.26352,0.22448,0.16592,0.0976
0.00488,-0.01708,0.02928,0.02684,0.0244,-0.00976,0.20008,0.15616,0.28792,0.244,0.18056,0.10736
0.00488,-0.02196,0.03904,0.0366,0.03416,-0.01464,0.1952,0.16592,0.29768,0.25376,0.18544,0.13664
0.00976,-0.02928,0.0488,0.04392,0.03904,-0.01464,0.1952,0.16592,0.3172,0.27328,0.20008,0.1464
0.02928,-0.04636,0.06344,0.0488,0.03416,-0.00244,0.19032,0.17568,0.34648,0.30744,0.2196,0.16592
0.04392,-0.06344,0.08296,0.061,0.03904,0.00244,0.19032,0.18056,0.37088,0.32696,0.244,0.19032
0.0488,-0.0732,0.0976,0.0732,0.0488,0,0.18544,0.19032,0.3904,0.34648,0.26352,0.20008
0.05856,-0.08784,0.11712,0.08784,0.05856,0,0.17568,0.1952,0.39528,0.35624,0.2684,0.21472
0.06344,-0.09516,0.12688,0.09516,0.06344,0,0.16104,0.20008,0.40504,0.37088,0.28304,0.22936
0.06832,-0.10248,0.13664,0.10248,0.06832,0,0.16592,0.1952,0.42944,0.38552,0.29768,0.23912
0.06832,-0.10248,0.13664,0.10248,0.06832,0,0.16104,0.1952,0.43432,0.3904,0.30744,0.25376
0.0732,-0.1098,0.1464,0.1098,0.0732,0,0.15128,0.19032,0.42456,0.3904,0.30744,0.25864
0.07808,-0.11468,0.15128,0.11224,0.0732,0.00244,0.1464,0.19032,0.42456,0.3904,0.3172,0.26352
0.08784,-0.122,0.15616,0.11224,0.06832,0.00976,0.14152,0.19032,0.42456,0.38552,0.3172,0.25864
0.0976,-0.12932,0.16104,0.11224,0.06344,0.01708,0.12688,0.1708,0.40992,0.37088,0.30256,0.24888
0.07808,-0.11956,0.16104,0.122,0.08296,-0.00244,0.12688,0.16104,0.3904,0.35624,0.28304,0.244
0.06832,-0.11468,0.16104,0.12688,0.09272,-0.0122,0.14152,0.13664,0.36112,0.33184,0.27328,0.22936
0.06344,-0.1098,0.15616,0.12444,0.09272,-0.01464,0.13664,0.122,0.33672,0.31232,0.25864,0.2196
0.0488,-0.09272,0.13664,0.11224,0.08784,-0.01952,0.1464,0.10736,0.29768,0.28792,0.22936,0.19032
0.0488,-0.0854,0.122,0.0976,0.0732,-0.0122,0.15128,0.08784,0.25864,0.244,0.20984,0.17568
0.03904,-0.07564,0.11224,0.09272,0.0732,-0.01708,0.16592,0.08296,0.21472,0.20008,0.1708,0.1464
0.03416,-0.06832,0.10248,0.0854,0.06832,-0.01708,0.16104,0.07808,0.18544,0.16104,0.14152,0.122
0.02928,-0.05856,0.08784,0.0732,0.05856,-0.01464,0.1708,0.06832,0.15616,0.1464,0.122,0.10248
0.02928,-0.04636,0.06344,0.0488,0.03416,-0.00244,0.1708,0.05856,0.122,0.10736,0.08784,0.07808
0.01952,-0.02196,0.0244,0.01464,0.00488,0.00732,0.1708,0.05368,0.07808,0.06832,0.05856,0.0488
0,-0.00488,0.00976,0.00976,0.00976,-0.00488,0.15616,0.0488,0.0488,0.03904,0.03416,0.0244
-0.00488,0.00488,-0.00488,-0.00244,0,-0.00244,0.16104,0.04392,0.03416,0.01464,0.00976,0.00488
-0.00976,0.00976,-0.00976,-0.00488,0,-0.00488,0.16104,0.04392,0.01464,-0.00976,-0.00976,-0.0244
-0.01464,0.01708,-0.01952,-0.0122,-0.00488,-0.00488,0.15616,0.05368,0,-0.02928,-0.01952,-0.0244
-0.00976,0.02196,-0.03416,-0.02928,-0.0244,0.00732,0.15616,0.05368,-0.01952,-0.0488,-0.03416,-0.04392
-0.0244,0.03904,-0.05368,-0.04148,-0.02928,0.00244,0.16104,0.05856,-0.01952,-0.05368,-0.04392,-0.05368
-0.03416,0.0488,-0.06344,-0.04636,-0.02928,-0.00244,0.16104,0.05368,-0.02928,-0.05368,-0.05856,-0.05856
-0.03416,0.05124,-0.06832,-0.05124,-0.03416,0,0.15616,0.0488,-0.03904,-0.05368,-0.05856,-0.05856
-0.03416,0.05124,-0.06832,-0.05124,-0.03416,0,0.16104,0.0488,-0.0488,-0.07808,-0.06344,-0.0732
-0.0244,0.04636,-0.06832,-0.05612,-0.04392,0.00976,0.17568,0.05368,-0.05368,-0.0732,-0.0732,-0.08296
-0.0244,0.0488,-0.0732,-0.061,-0.0488,0.0122,0.18544,0.05856,-0.05368,-0.0732,-0.08296,-0.08784
-0.02928,0.05368,-0.07808,-0.06344,-0.0488,0.00976,0.18544,0.0488,-0.06344,-0.08296,-0.08296,-0.08784
-0.02928,0.05368,-0.07808,-0.06344,-0.0488,0.00976,0.18544,0.0488,-0.06344,-0.08784,-0.08296,-0.08784
-0.02928,0.05124,-0.0732,-0.05856,-0.04392,0.00732,0.18056,0.0488,-0.07808,-0.0976,-0.08784,-0.0976
-0.02928,0.04636,-0.06344,-0.0488,-0.03416,0.00244,0.18544,0.0488,-0.07808,-0.0976,-0.0976,-0.09272
-0.01952,0.03416,-0.0488,-0.03904,-0.02928,0.00488,0.19032,0.05368,-0.06832,-0.08784,-0.0976,-0.09272
-0.01464,0.02928,-0.04392,-0.0366,-0.02928,0.00732,0.20984,0.05368,-0.0732,-0.09272,-0.0976,-0.0976
-0.01464,0.03172,-0.0488,-0.04148,-0.03416,0.00976,0.1952,0.0488,-0.0732,-0.09272,-0.09272,-0.08784
-0.01464,0.03172,-0.0488,-0.04148,-0.03416,0.00976,0.18056,0.0488,-0.06832,-0.08296,-0.08296,-0.08296
-0.0244,0.04148,-0.05856,-0.04636,-0.03416,0.00488,0.18544,0.05368,-0.0732,-0.08784,-0.08784,-0.08296
-0.03904,0.061,-0.08296,-0.06344,-0.04392,0.00244,0.20984,0.05368,-0.0732,-0.08784,-0.08784,-0.08296
-0.04392,0.06588,-0.08784,-0.06588,-0.04392,0,0.23424,0.04392,-0.0732,-0.0976,-0.07808,-0.08296
-0.03904,0.06344,-0.08784,-0.06832,-0.0488,0.00488,0.27328,0.04392,-0.07808,-0.09272,-0.07808,-0.08296
-0.03416,0.05368,-0.0732,-0.05612,-0.03904,0.00244,0.28304,0.04392,-0.06832,-0.08784,-0.08784,-0.08296
-0.03416,0.04636,-0.05856,-0.04148,-0.0244,-0.00488,0.27328,0.04392,-0.06832,-0.09272,-0.08784,-0.08296
-0.03416,0.0488,-0.06344,-0.04636,-0.02928,-0.00244,0.2684,0.03416,-0.0732,-0.0976,-0.09272,-0.09272
-0.03416,0.04636,-0.05856,-0.04148,-0.0244,-0.00488,0.2684,0.03416,-0.08296,-0.10736,-0.10248,-0.09272
-0.0244,0.0488,-0.0732,-0.061,-0.0488,0.0122,0.27816,0.04392,-0.08784,-0.11224,-0.0976,-0.09272
-0.0244,0.05368,-0.08296,-0.07076,-0.05856,0.01708,0.27816,0.0488,-0.08784,-0.11224,-0.0976,-0.09272
-0.03904,0.061,-0.08296,-0.06344,-0.04392,0.00244,0.28304,0.03416,-0.07808,-0.10248,-0.10248,-0.0976
-0.0488,0.06832,-0.08784,-0.06344,-0.03904,-0.00488,0.27816,0.03416,-0.08296,-0.10736,-0.0976,-0.0976
-0.04392,0.061,-0.07808,-0.05612,-0.03416,-0.00488,0.2684,0.0244,-0.09272,-0.11224,-0.09272,-0.10736
-0.04392,0.061,-0.07808,-0.05612,-0.03416,-0.00488,0.2684,0.0244,-0.08784,-0.10736,-0.09272,-0.10736
-0.03904,0.05124,-0.06344,-0.04392,-0.0244,-0.00732,0.27816,0.03416,-0.08296,-0.10736,-0.10248,-0.10736
-0.03416,0.04636,-0.05856,-0.04148,-0.0244,-0.00488,0.27816,0.03416,-0.08296,-0.10248,-0.10248,-0.0976
-0.04392,0.04148,-0.03904,-0.01708,0.00488,-0.0244,0.2684,0.04392,-0.07808,-0.11712,-0.10248,-0.09272
-0.0244,0.01708,-0.00976,0.00244,0.01464,-0.01952,0.2684,0.03416,-0.07808,-0.10736,-0.09272,-0.09272
-0.01952,0.01952,-0.01952,-0.00976,0,-0.00976,0.2684,0.03904,-0.06832,-0.10736,-0.08784,-0.07808
-0.01952,0.01952,-0.01952,-0.00976,0,-0.00976,0.25864,0.03904,-0.06832,-0.10736,-0.08784,-0.07808
-0.0244,0.02684,-0.02928,-0.01708,-0.00488,-0.00976,0.26352,0.0488,-0.05856,-0.10248,-0.08296,-0.06832
-0.0244,0.02684,-0.02928,-0.01708,-0.00488,-0.00976,0.2684,0.0488,-0.05368,-0.09272,-0.0732,-0.06832
-0.03416,0.03416,-0.03416,-0.01708,0,-0.01708,0.27328,0.05368,-0.06344,-0.08296,-0.06832,-0.07808
-0.02928,0.04148,-0.05368,-0.03904,-0.0244,-0.00244,0.2684,0.05368,-0.06344,-0.08296,-0.06832,-0.0732
-0.01952,0.0366,-0.05368,-0.04392,-0.03416,0.00732,0.2684,0.0488,-0.06344,-0.09272,-0.0732,-0.07808
-0.01952,0.03904,-0.05856,-0.0488,-0.03904,0.00976,0.27816,0.0488,-0.07808,-0.11224,-0.09272,-0.0976
-0.01952,0.03416,-0.0488,-0.03904,-0.02928,0.00488,0.28792,0.05856,-0.06832,-0.10248,-0.08296,-0.08784
-0.01464,0.0244,-0.03416,-0.02684,-0.01952,0.00244,0.27816,0.04392,-0.06832,-0.10248,-0.07808,-0.08296
-0.00976,0.01708,-0.0244,-0.01952,-0.01464,0.00244,0.25376,0.03904,-0.07808,-0.10736,-0.07808,-0.07808
0,0.0122,-0.0244,-0.0244,-0.0244,0.0122,0.24888,0.02928,-0.08784,-0.11712,-0.0732,-0.07808
-0.00488,0.0244,-0.04392,-0.04148,-0.03904,0.01708,0.2684,0.0244,-0.0976,-0.12688,-0.08784,-0.08784
-0.01952,0.04392,-0.06832,-0.05856,-0.0488,0.01464,0.27816,0.01464,-0.11224,-0.14152,-0.10736,-0.11224
-0.01952,0.04636,-0.0732,-0.06344,-0.05368,0.01708,0.2928,0.0244,-0.0976,-0.13664,-0.11224,-0.11224
-0.03416,0.05856,-0.08296,-0.06588,-0.0488,0.00732,0.28792,0.0244,-0.10248,-0.13664,-0.10736,-0.10736
-0.0244,0.05368,-0.08296,-0.07076,-0.05856,0.01708,0.28304,0.03416,-0.11224,-0.15128,-0.12688,-0.11224
-0.01952,0.05856,-0.0976,-0.08784,-0.07808,0.02928,0.28792,0.02928,-0.11712,-0.1464,-0.12688,-0.11224
0,0.0488,-0.0976,-0.0976,-0.0976,0.0488,0.28304,0.01464,-0.122,-0.15128,-0.12688,-0.11224
0,0.04636,-0.09272,-0.09272,-0.09272,0.04636,0.28304,0.01952,-0.11712,-0.15128,-0.122,-0.11224
-0.00976,0.0488,-0.08784,-0.08296,-0.07808,0.03416,0.28304,0.01952,-0.11224,-0.1464,-0.11224,-0.10736
-0.00976,0.04392,-0.07808,-0.0732,-0.06832,0.02928,0.28304,0.0244,-0.11712,-0.1464,-0.11224,-0.11224
-0.02928,0.05856,-0.08784,-0.0732,-0.05856,0.01464,0.28792,0.03416,-0.11712,-0.15128,-0.11224,-0.11224
-0.04392,0.07564,-0.10736,-0.0854,-0.06344,0.00976,0.29768,0.03904,-0.11224,-0.1464,-0.11224,-0.11224
-0.0488,0.07564,-0.10248,-0.07808,-0.05368,0.00244,0.2928,0.03904,-0.11224,-0.14152,-0.10736,-0.122
-0.0488,0.08052,-0.11224,-0.08784,-0.06344,0.00732,0.30256,0.03904,-0.11712,-0.15128,-0.11712,-0.12688
-0.05368,0.0854,-0.11712,-0.09028,-0.06344,0.00488,0.29768,0.04392,-0.11224,-0.15616,-0.13176,-0.14152
-0.0488,0.08296,-0.11712,-0.09272,-0.06832,0.00976,0.28792,0.03904,-0.122,-0.16592,-0.14152,-0.15616
-0.0488,0.09028,-0.13176,-0.10736,-0.08296,0.01708,0.28792,0.05368,-0.13176,-0.16592,-0.14152,-0.1464
-0.0488,0.09028,-0.13176,-0.10736,-0.08296,0.01708,0.28792,0.05368,-0.13176,-0.16592,-0.14152,-0.15128
-0.06344,0.09272,-0.122,-0.09028,-0.05856,-0.00244,0.28792,0.04392,-0.13176,-0.17568,-0.15128,-0.15616
-0.06344,0.09272,-0.122,-0.09028,-0.05856,-0.00244,0.28792,0.04392,-0.13176,-0.1708,-0.15128,-0.15616
-0.05368,0.08296,-0.11224,-0.0854,-0.05856,0.00244,0.28792,0.04392,-0.13176,-0.1708,-0.1464,-0.15128
-0.05368,0.08296,-0.11224,-0.0854,-0.05856,0.00244,0.2928,0.04392,-0.14152,-0.1708,-0.15128,-0.15128
-0.06344,0.09272,-0.122,-0.09028,-0.05856,-0.00244,0.30256,0.0488,-0.13176,-0.16104,-0.14152,-0.14152
-0.05856,0.08296,-0.10736,-0.07808,-0.0488,-0.00488,0.30256,0.0488,-0.13176,-0.15128,-0.13176,-0.13664
-0.0488,0.08052,-0.11224,-0.08784,-0.06344,0.00732,0.30256,0.04392,-0.11712,-0.15616,-0.13176,-0.1464
-0.0488,0.0854,-0.122,-0.0976,-0.0732,0.0122,0.30256,0.0488,-0.122,-0.15616,-0.13176,-0.14152
-0.03904,0.07808,-0.11712,-0.0976,-0.07808,0.01952,0.2928,0.04392,-0.13176,-0.16104,-0.14152,-0.15616
-0.04392,0.07808,-0.11224,-0.09028,-0.06832,0.0122,0.28792,0.03416,-0.12688,-0.16104,-0.14152,-0.15616
-0.05368,0.07564,-0.0976,-0.07076,-0.04392,-0.00488,0.27328,0.03904,-0.12688,-0.15128,-0.13176,-0.1464
-0.06344,0.08052,-0.0976,-0.06588,-0.03416,-0.01464,0.2684,0.03904,-0.12688,-0.15128,-0.13176,-0.1464
-0.05368,0.08052,-0.10736,-0.08052,-0.05368,0,0.27328,0.03904,-0.12688,-0.14152,-0.12688,-0.1464
-0.05856,0.09028,-0.122,-0.09272,-0.06344,0.00244,0.27816,0.04392,-0.122,-0.14152,-0.13176,-0.15128
-0.06832,0.09028,-0.11224,-0.07808,-0.04392,-0.0122,0.2928,0.02928,-0.10736,-0.122,-0.11224,-0.12688
-0.06832,0.08052,-0.09272,-0.05856,-0.0244,-0.02196,0.28792,0.02928,-0.10736,-0.13664,-0.122,-0.13176
-0.06832,0.07076,-0.0732,-0.03904,-0.00488,-0.03172,0.25864,-0.00488,-0.08296,-0.09272,-0.08296,-0.07808
-0.00976,0.02928,-0.0488,-0.04392,-0.03904,0.01464,0.20008,-0.04392,-0.09272,-0.05856,0.00488,0.01952
0.05856,-0.02928,0,-0.02928,-0.05856,0.05856,0.13176,-0.0976,-0.11712,-0.03416,0.06344,0.10736
0.12688,-0.07808,0.02928,-0.03416,-0.0976,0.11224,0.01952,-0.20496,-0.12688,0.01952,0.1464,0.22448
0.18544,-0.14884,0.11224,0.01952,-0.0732,0.12932,-0.08296,-0.31232,-0.11224,0.10736,0.2928,0.40016
0.25864,-0.26352,0.2684,0.13908,0.00976,0.12444,-0.20496,-0.4392,-0.06344,0.21472,0.4636,0.61
0.3416,-0.38308,0.42456,0.25376,0.08296,0.12932,-0.28304,-0.488,0.0244,0.366,0.66856,0.8296
0.4148,-0.4514,0.488,0.2806,0.0732,0.1708,-0.35136,-0.51728,0.08296,0.4636,0.7808,0.96136
0.44896,-0.48312,0.51728,0.2928,0.06832,0.19032,-0.40016,-0.54656,0.0732,0.47336,0.81496,1.00528
0.42944,-0.4392,0.44896,0.23424,0.01952,0.20496,-0.36112,-0.49776,-0.05368,0.29768,0.60024,0.77104
0.32208,-0.32452,0.32696,0.16592,0.00488,0.1586,-0.30256,-0.47824,-0.24888,0.01464,0.24888,0.38552
0.14152,-0.16592,0.19032,0.11956,0.0488,0.04636,-0.18544,-0.3904,-0.42944,-0.28792,-0.14152,-0.05856
0,-0.05124,0.10248,0.10248,0.10248,-0.05124,-0.0732,-0.32208,-0.49288,-0.45384,-0.3416,-0.28792
-0.0976,0.01952,0.05856,0.10736,0.15616,-0.12688,0.01464,-0.27328,-0.48312,-0.4636,-0.36112,-0.32696
-0.09272,-0.00732,0.10736,0.15372,0.20008,-0.1464,0.01952,-0.22936,-0.3904,-0.37576,-0.28792,-0.26352
-0.0732,-0.00976,0.09272,0.12932,0.16592,-0.11956,0.0244,-0.1708,-0.30256,-0.29768,-0.23912,-0.22448
-0.06832,-0.00488,0.07808,0.11224,0.1464,-0.10736,0.05368,-0.10736,-0.20008,-0.22936,-0.19032,-0.1708
-0.0488,0.00488,0.03904,0.06344,0.08784,-0.06832,0.05856,-0.06832,-0.14152,-0.16592,-0.13664,-0.13176
-0.03416,0.00976,0.01464,0.03172,0.0488,-0.04148,0.0732,-0.02928,-0.11712,-0.14152,-0.122,-0.122
-0.03904,0.0244,-0.00976,0.00976,0.02928,-0.03416,0.06832,-0.00488,-0.10248,-0.13176,-0.12688,-0.12688
-0.03904,0.0366,-0.03416,-0.01464,0.00488,-0.02196,0.07808,0.03904,-0.0732,-0.11712,-0.10736,-0.122
-0.04392,0.03904,-0.03416,-0.0122,0.00976,-0.02684,0.0732,0.04392,-0.06344,-0.10248,-0.10736,-0.10736
-0.04392,0.04148,-0.03904,-0.01708,0.00488,-0.0244,0.06832,0.0488,-0.05368,-0.0976,-0.09272,-0.10248
-0.03416,0.03904,-0.04392,-0.02684,-0.00976,-0.0122,0.0488,0.06344,-0.0488,-0.0976,-0.08784,-0.10248
-0.02928,0.0366,-0.04392,-0.02928,-0.01464,-0.00732,0.01952,0.0732,-0.04392,-0.08296,-0.08296,-0.0976
-0.03904,0.05124,-0.06344,-0.04392,-0.0244,-0.00732,0,0.0732,-0.04392,-0.08784,-0.08784,-0.0976
-0.04392,0.05856,-0.0732,-0.05124,-0.02928,-0.00732,0.00976,0.07808,-0.03416,-0.08784,-0.08296,-0.09272
-0.03416,0.05368,-0.0732,-0.05612,-0.03904,0.00244,0.01464,0.0732,-0.04392,-0.09272,-0.09272,-0.0976
-0.03416,0.05368,-0.0732,-0.05612,-0.03904,0.00244,0.03416,0.0732,-0.03904,-0.08296,-0.08784,-0.10248
-0.03416,0.0488,-0.06344,-0.04636,-0.02928,-0.00244,0.03904,0.06832,-0.01464,-0.0732,-0.0732,-0.0976
-0.02928,0.04636,-0.06344,-0.0488,-0.03416,0.00244,0.02928,0.06832,-0.01464,-0.06832,-0.06832,-0.09272
-0.03904,0.0488,-0.05856,-0.03904,-0.01952,-0.00976,0.01952,0.06832,-0.01464,-0.0732,-0.0732,-0.08784
-0.03904,0.04636,-0.05368,-0.03416,-0.01464,-0.0122,0.01952,0.06832,-0.00976,-0.05856,-0.06832,-0.08296
-0.03416,0.04392,-0.05368,-0.0366,-0.01952,-0.00732,0.00976,0.0732,-0.00488,-0.0488,-0.05368,-0.07808
-0.01952,0.03416,-0.0488,-0.03904,-0.02928,0.00488,-0.0244,0.07808,0.01952,-0.03904,-0.0488,-0.0732
-0.00976,0.03416,-0.05856,-0.05368,-0.0488,0.01952,-0.03416,0.07808,0.0244,-0.04392,-0.05368,-0.0732
-0.00976,0.03172,-0.05368,-0.0488,-0.04392,0.01708,-0.05368,0.07808,0.0244,-0.03416,-0.0488,-0.06344
0,0.02928,-0.05856,-0.05856,-0.05856,0.02928,-0.06832,0.07808,0.02928,-0.03416,-0.03904,-0.05856
0,0.02684,-0.05368,-0.05368,-0.05368,0.02684,-0.06832,0.08296,0.03416,-0.01952,-0.02928,-0.0488
0.00488,0.0244,-0.05368,-0.05612,-0.05856,0.03172,-0.07808,0.09272,0.05856,-0.00488,-0.01952,-0.03904
0.00976,0.01708,-0.04392,-0.0488,-0.05368,0.03172,-0.07808,0.0976,0.06832,0.00976,-0.00976,-0.02928
0.01952,0.00976,-0.03904,-0.0488,-0.05856,0.03904,-0.0976,0.10248,0.06832,0.01464,-0.00488,-0.0244
0.0244,0,-0.0244,-0.0366,-0.0488,0.0366,-0.0976,0.10248,0.08296,0.02928,0.00976,-0.01464
0.0244,-0.00976,-0.00488,-0.01708,-0.02928,0.02684,-0.09272,0.09272,0.10248,0.04392,0.01952,-0.00488
0.01952,-0.00732,-0.00488,-0.01464,-0.0244,0.02196,-0.08296,0.10248,0.11712,0.05368,0.02928,0.00488
0.01464,-0.00244,-0.00976,-0.01708,-0.0244,0.01952,-0.08784,0.11224,0.11712,0.06344,0.04392,0.00976
0.01952,-0.00244,-0.01464,-0.0244,-0.03416,0.02684,-0.08296,0.122,0.14152,0.0732,0.0488,0.01952
0.02928,-0.00732,-0.01464,-0.02928,-0.04392,0.0366,-0.09272,0.11224,0.15128,0.0976,0.05856,0.03904
0.04392,-0.0244,0.00488,-0.01708,-0.03904,0.04148,-0.10248,0.12688,0.17568,0.12688,0.08784,0.06344
0.05368,-0.0366,0.01952,-0.00732,-0.03416,0.04392,-0.09272,0.13176,0.19032,0.1464,0.11712,0.06832
0.06344,-0.04636,0.02928,-0.00244,-0.03416,0.0488,-0.09272,0.13664,0.20496,0.16592,0.13176,0.07808
0.0732,-0.05124,0.02928,-0.00732,-0.04392,0.05856,-0.08784,0.1464,0.21472,0.17568,0.14152,0.0976
0.07808,-0.05856,0.03904,0,-0.03904,0.05856,-0.08784,0.1464,0.244,0.1952,0.1464,0.10736
0.08784,-0.07076,0.05368,0.00976,-0.03416,0.061,-0.0732,0.1464,0.25864,0.20984,0.16104,0.13664
0.08296,-0.07808,0.0732,0.03172,-0.00976,0.04636,-0.0732,0.15128,0.28304,0.22936,0.18544,0.16104
0.08784,-0.0854,0.08296,0.03904,-0.00488,0.04636,-0.08784,0.14152,0.30256,0.25864,0.20496,0.16104
0.0976,-0.09516,0.09272,0.04392,-0.00488,0.05124,-0.0976,0.1464,0.30744,0.2684,0.20984,0.17568
0.11224,-0.10736,0.10248,0.04636,-0.00976,0.061,-0.11224,0.15616,0.3172,0.2928,0.23424,0.20008
0.11712,-0.1098,0.10248,0.04392,-0.01464,0.06588,-0.10736,0.16104,0.3416,0.30744,0.24888,0.20984
0.11712,-0.11712,0.11712,0.05856,0,0.05856,-0.09272,0.16592,0.35624,0.31232,0.25864,0.21472
0.122,-0.12444,0.12688,0.06588,0.00488,0.05856,-0.10248,0.16104,0.34648,0.31232,0.25864,0.2196
0.13176,-0.13664,0.14152,0.07564,0.00976,0.061,-0.0976,0.15616,0.34648,0.31232,0.2684,0.22448
0.13176,-0.13908,0.1464,0.08052,0.01464,0.05856,-0.10248,0.1464,0.34648,0.30744,0.2684,0.2196
0.13664,-0.14396,0.15128,0.08296,0.01464,0.061,-0.11224,0.13176,0.33672,0.28792,0.25864,0.22936
0.11712,-0.1342,0.15128,0.09272,0.03416,0.04148,-0.122,0.122,0.32696,0.28304,0.24888,0.22448
0.11712,-0.14152,0.16592,0.10736,0.0488,0.03416,-0.13176,0.0976,0.31232,0.27328,0.25376,0.2196
0.11224,-0.14152,0.1708,0.11468,0.05856,0.02684,-0.15616,0.08296,0.28792,0.25376,0.23912,0.20984
0.11712,-0.1342,0.15128,0.09272,0.03416,0.04148,-0.17568,0.0732,0.26352,0.244,0.22936,0.19032
0.11712,-0.13176,0.1464,0.08784,0.02928,0.04392,-0.19032,0.06344,0.23424,0.20984,0.20984,0.17568
0.0976,-0.11956,0.14152,0.09272,0.04392,0.02684,-0.19032,0.05856,0.1952,0.1708,0.1708,0.15616
0.09272,-0.11224,0.13176,0.0854,0.03904,0.02684,-0.20496,0.04392,0.16592,0.13176,0.14152,0.13176
0.0732,-0.10004,0.12688,0.09028,0.05368,0.00976,-0.1952,0.02928,0.13664,0.11712,0.122,0.11224
0.06344,-0.08296,0.10248,0.07076,0.03904,0.0122,-0.18544,0.01952,0.10248,0.07808,0.08784,0.08784
0.05368,-0.06344,0.0732,0.04636,0.01952,0.01708,-0.16592,0.0244,0.06832,0.0488,0.05856,0.05856
0.04392,-0.05124,0.05856,0.0366,0.01464,0.01464,-0.1708,0.01952,0.03904,0.01952,0.03416,0.03416
0.04392,-0.0488,0.05368,0.03172,0.00976,0.01708,-0.17568,0.01464,0.00488,-0.00488,0.00488,0.01464
0.03904,-0.04392,0.0488,0.02928,0.00976,0.01464,-0.18544,0.01464,-0.01464,-0.02928,-0.0244,-0.01464
0.03904,-0.02928,0.01952,0,-0.01952,0.02928,-0.19032,0.01464,-0.02928,-0.0488,-0.03904,-0.0244
0.03416,-0.01952,0.00488,-0.0122,-0.02928,0.03172,-0.20008,0.01464,-0.0488,-0.06832,-0.05368,-0.04392
0.01464,0,-0.01464,-0.02196,-0.02928,0.02196,-0.19032,0.02928,-0.05368,-0.06832,-0.05368,-0.06344
0.00488,0.00976,-0.0244,-0.02684,-0.02928,0.01708,-0.19032,0.0244,-0.05368,-0.07808,-0.06832,-0.06832
-0.00488,0.01708,-0.02928,-0.02684,-0.0244,0.00976,-0.17568,0.0244,-0.05368,-0.08784,-0.0732,-0.06832
-0.00488,0.01708,-0.02928,-0.02684,-0.0244,0.00976,-0.1708,0.01464,-0.0732,-0.10248,-0.08784,-0.08296
0.00488,0.0122,-0.02928,-0.03172,-0.03416,0.01952,-0.1708,-0.00488,-0.08296,-0.10248,-0.08784,-0.0732
0.00488,0.01464,-0.03416,-0.0366,-0.03904,0.02196,-0.1708,0,-0.08296,-0.10248,-0.08784,-0.07808
0.00976,0.00976,-0.02928,-0.03416,-0.03904,0.0244,-0.18544,0.00976,-0.08296,-0.10248,-0.09272,-0.07808
0.00976,0.00976,-0.02928,-0.03416,-0.03904,0.0244,-0.18544,0.00976,-0.08296,-0.10736,-0.09272,-0.07808
0.00976,0.0122,-0.03416,-0.03904,-0.04392,0.02684,-0.1952,0.01952,-0.08784,-0.10736,-0.09272,-0.08784
0.00976,0.01708,-0.04392,-0.0488,-0.05368,0.03172,-0.20008,0.01952,-0.08784,-0.10736,-0.09272,-0.08296
0,0.0244,-0.0488,-0.0488,-0.0488,0.0244,-0.1952,0.00488,-0.08784,-0.10736,-0.08784,-0.0732
0.00488,0.01952,-0.04392,-0.04636,-0.0488,0.02684,-0.16592,0.00488,-0.09272,-0.11224,-0.08784,-0.07808
-0.00488,0.02196,-0.03904,-0.0366,-0.03416,0.01464,-0.1464,0.00976,-0.08296,-0.11224,-0.0976,-0.08296
-0.00488,0.02196,-0.03904,-0.0366,-0.03416,0.01464,-0.14152,0.00976,-0.07808,-0.10248,-0.0976,-0.08784
0,0.01952,-0.03904,-0.03904,-0.03904,0.01952,-0.1464,0.01464,-0.08296,-0.10736,-0.10736,-0.08296
-0.00488,0.0244,-0.04392,-0.04148,-0.03904,0.01708,-0.14152,0.01464,-0.08296,-0.10736,-0.10736,-0.08296
-0.00488,0.02684,-0.0488,-0.04636,-0.04392,0.01952,-0.13664,0.0244,-0.08296,-0.10736,-0.0976,-0.08296
0,0.0244,-0.0488,-0.0488,-0.0488,0.0244,-0.13664,0.0244,-0.08784,-0.10248,-0.0976,-0.08296
0.00488,0.01708,-0.03904,-0.04148,-0.04392,0.0244,-0.14152,0.01952,-0.0976,-0.11712,-0.10736,-0.09272
0.00488,0.00488,-0.01464,-0.01708,-0.01952,0.0122,-0.14152,0.00976,-0.0976,-0.122,-0.10736,-0.09272
0.01464,0,-0.01464,-0.02196,-0.02928,0.02196,-0.14152,-0.00488,-0.0976,-0.122,-0.10736,-0.09272
0.01464,-0.00244,-0.00976,-0.01708,-0.0244,0.01952,-0.14152,-0.00488,-0.0976,-0.122,-0.10736,-0.09272
0.0244,-0.00244,-0.01952,-0.03172,-0.04392,0.03416,-0.15128,-0.00488,-0.0976,-0.122,-0.10736,-0.09272
0.0244,-0.00244,-0.01952,-0.03172,-0.04392,0.03416,-0.15128,0,-0.0976,-0.122,-0.10736,-0.09272
0.01464,0.00732,-0.02928,-0.0366,-0.04392,0.02928,-0.1464,0.00488,-0.0976,-0.11224,-0.11224,-0.08784
0.01464,0.01464,-0.04392,-0.05124,-0.05856,0.0366,-0.15128,0.00488,-0.10248,-0.11712,-0.10736,-0.08784
0,0.02928,-0.05856,-0.05856,-0.05856,0.02928,-0.14152,-0.00488,-0.09272,-0.11224,-0.11224,-0.0976
-0.02928,0.04392,-0.05856,-0.04392,-0.02928,0,-0.122,-0.00488,-0.08784,-0.10736,-0.11224,-0.0976
-0.03904,0.04392,-0.0488,-0.02928,-0.00976,-0.01464,-0.10248,-0.00488,-0.10248,-0.11224,-0.122,-0.10248
-0.03416,0.03416,-0.03416,-0.01708,0,-0.01708,-0.10248,-0.00488,-0.10248,-0.11712,-0.122,-0.10248
-0.01464,0.02196,-0.02928,-0.02196,-0.01464,0,-0.10248,-0.01464,-0.0976,-0.11712,-0.11224,-0.10248
0,0,0,0,0,0,-0.11224,-0.00976,-0.07808,-0.122,-0.0976,-0.09272
0,0,0,0,0,0,-0.122,-0.00976,-0.07808,-0.11224,-0.0976,-0.08296
0.00488,0.00488,-0.01464,-0.01708,-0.01952,0.0122,-0.13664,0,-0.06832,-0.0976,-0.09272,-0.06832
0.00488,0.00976,-0.0244,-0.02684,-0.02928,0.01708,-0.13176,0,-0.06344,-0.0976,-0.08296,-0.06832
0.01464,0.00488,-0.0244,-0.03172,-0.03904,0.02684,-0.13664,0.00488,-0.0732,-0.10248,-0.08784,-0.0732
0.01952,0.00244,-0.0244,-0.03416,-0.04392,0.03172,-0.14152,0.00488,-0.0732,-0.10248,-0.08784,-0.07808
0.01464,0.00244,-0.01952,-0.02684,-0.03416,0.0244,-0.1464,0,-0.0732,-0.0976,-0.07808,-0.08296
0.00488,0.01464,-0.03416,-0.0366,-0.03904,0.02196,-0.1464,0,-0.08784,-0.10736,-0.08784,-0.09272
0.00976,0.00488,-0.01952,-0.0244,-0.02928,0.01952,-0.14152,-0.00976,-0.07808,-0.11224,-0.08784,-0.0976
0.01464,-0.00488,-0.00488,-0.0122,-0.01952,0.01708,-0.15128,-0.0244,-0.07808,-0.11224,-0.09272,-0.09272
0.01464,-0.00976,0.00488,-0.00244,-0.00976,0.0122,-0.17568,-0.01952,-0.08296,-0.11224,-0.09272,-0.07808
0.01464,-0.00976,0.00488,-0.00244,-0.00976,0.0122,-0.18056,-0.02928,-0.08296,-0.11224,-0.0976,-0.07808
0.01464,-0.0122,0.00976,0.00244,-0.00488,0.00976,-0.18544,-0.02928,-0.08784,-0.11712,-0.10248,-0.08296
0.01952,-0.00732,-0.00488,-0.01464,-0.0244,0.02196,-0.18544,-0.02928,-0.10248,-0.13176,-0.11224,-0.0976
0.01952,0,-0.01952,-0.02928,-0.03904,0.02928,-0.18544,-0.01464,-0.0976,-0.11712,-0.11224,-0.09272
0.00488,0.01708,-0.03904,-0.04148,-0.04392,0.0244,-0.19032,-0.01464,-0.10248,-0.11712,-0.10736,-0.08784
0.01952,0.01708,-0.05368,-0.06344,-0.0732,0.04636,-0.18056,-0.01464,-0.11224,-0.13176,-0.11712,-0.10248
0.01464,0.02684,-0.06832,-0.07564,-0.08296,0.0488,-0.16592,-0.01952,-0.11712,-0.12688,-0.11712,-0.10248
0.01952,0.01952,-0.05856,-0.06832,-0.07808,0.0488,-0.15128,-0.0244,-0.12688,-0.13176,-0.11712,-0.10248
0.01952,0.01708,-0.05368,-0.06344,-0.0732,0.04636,-0.14152,-0.01952,-0.11224,-0.13176,-0.11224,-0.10248
0.01952,0.0122,-0.04392,-0.05368,-0.06344,0.04148,-0.1464,-0.02928,-0.11224,-0.12688,-0.11224,-0.08784
0.01952,0.0122,-0.04392,-0.05368,-0.06344,0.04148,-0.1464,-0.0244,-0.11712,-0.12688,-0.11224,-0.09272
0.00488,0.02928,-0.06344,-0.06588,-0.06832,0.0366,-0.14152,-0.0244,-0.12688,-0.15128,-0.13176,-0.11224
0,0.0366,-0.0732,-0.0732,-0.0732,0.0366,-0.13176,-0.01952,-0.122,-0.1464,-0.13176,-0.11224
-0.0244,0.0488,-0.0732,-0.061,-0.0488,0.0122,-0.11712,-0.00976,-0.11224,-0.13664,-0.13176,-0.11224
-0.03416,0.05856,-0.08296,-0.06588,-0.0488,0.00732,-0.10736,-0.00976,-0.11712,-0.13664,-0.13176,-0.11712
-0.03904,0.06832,-0.0976,-0.07808,-0.05856,0.00976,-0.122,-0.00488,-0.122,-0.1464,-0.14152,-0.13176
-0.0244,0.061,-0.0976,-0.0854,-0.0732,0.0244,-0.13176,-0.00976,-0.13176,-0.15616,-0.15128,-0.1464
-0.01952,0.05612,-0.09272,-0.08296,-0.0732,0.02684,-0.13664,-0.00488,-0.13176,-0.15616,-0.14152,-0.13664
-0.01952,0.05612,-0.09272,-0.08296,-0.0732,0.02684,-0.1464,-0.00488,-0.13176,-0.15616,-0.14152,-0.14152
-0.03416,0.06832,-0.10248,-0.0854,-0.06832,0.01708,-0.13664,-0.00488,-0.122,-0.15616,-0.14152,-0.13664
-0.03416,0.06832,-0.10248,-0.0854,-0.06832,0.01708,-0.10736,-0.00488,-0.122,-0.15128,-0.14152,-0.13664
-0.03416,0.0732,-0.11224,-0.09516,-0.07808,0.02196,-0.10248,-0.01464,-0.12688,-0.15128,-0.1464,-0.13176
-0.03416,0.0732,-0.11224,-0.09516,-0.07808,0.02196,-0.0976,-0.01464,-0.12688,-0.15128,-0.15128,-0.13176
-0.03904,0.07564,-0.11224,-0.09272,-0.0732,0.01708,-0.10736,-0.00976,-0.11224,-0.1464,-0.1464,-0.13176
-0.04392,0.07076,-0.0976,-0.07564,-0.05368,0.00488,-0.10736,-0.00976,-0.11224,-0.1464,-0.1464,-0.12688
-0.04392,0.06588,-0.08784,-0.06588,-0.04392,0,-0.11224,-0.01464,-0.11712,-0.13664,-0.13176,-0.11712
-0.03416,0.061,-0.08784,-0.07076,-0.05368,0.00976,-0.122,-0.00976,-0.122,-0.13664,-0.13176,-0.11224
-0.01952,0.04636,-0.0732,-0.06344,-0.05368,0.01708,-0.13176,-0.01952,-0.11224,-0.14152,-0.13176,-0.11712
-0.0244,0.05124,-0.07808,-0.06588,-0.05368,0.01464,-0.1464,-0.01952,-0.10736,-0.14152,-0.13176,-0.11712
-0.02928,0.05612,-0.08296,-0.06832,-0.05368,0.0122,-0.1464,-0.00976,-0.10736,-0.13176,-0.14152,-0.12688
-0.02928,0.061,-0.09272,-0.07808,-0.06344,0.01708,-0.15128,-0.00976,-0.10736,-0.13176,-0.14152,-0.12688
-0.0244,0.05856,-0.09272,-0.08052,-0.06832,0.02196,-0.16104,-0.01464,-0.11224,-0.13664,-0.1464,-0.13664
-0.02928,0.05368,-0.07808,-0.06344,-0.0488,0.00976,-0.16592,-0.01952,-0.11712,-0.1464,-0.15128,-0.14152
-0.02928,0.04636,-0.06344,-0.0488,-0.03416,0.00244,-0.15616,-0.02928,-0.10736,-0.14152,-0.14152,-0.13664
-0.06832,0.08052,-0.09272,-0.05856,-0.0244,-0.02196,-0.16104,-0.02928,-0.0976,-0.12688,-0.122,-0.11224
-0.06832,0.0854,-0.10248,-0.06832,-0.03416,-0.01708,-0.16104,-0.0244,-0.0732,-0.09272,-0.09272,-0.0976
-0.00976,0.0488,-0.08784,-0.08296,-0.07808,0.03416,-0.20008,-0.04392,-0.06344,-0.0488,-0.03416,-0.01952
0.0488,-0.00976,-0.02928,-0.05368,-0.07808,0.06344,-0.27816,-0.0976,-0.0976,-0.04392,0.0244,0.06832
0.08784,-0.05368,0.01952,-0.0244,-0.06832,0.07808,-0.37088,-0.15616,-0.10736,0.00976,0.10736,0.18544
0.16592,-0.14396,0.122,0.03904,-0.04392,0.10492,-0.49288,-0.27328,-0.08296,0.07808,0.23424,0.3416
0.25864,-0.24888,0.23912,0.1098,-0.01952,0.13908,-0.61488,-0.40016,-0.06344,0.17568,0.38552,0.52216
0.35136,-0.3782,0.40504,0.22936,0.05368,0.14884,-0.732,-0.50752,0.00488,0.3172,0.57096,0.75152
0.4148,-0.45628,0.49776,0.29036,0.08296,0.16592,-0.80032,-0.55632,0.09272,0.44408,0.74176,0.94184
0.44896,-0.50752,0.56608,0.3416,0.11712,0.16592,-0.85888,-0.57584,0.13176,0.52216,0.854,1.05408
0.4392,-0.49288,0.54656,0.32696,0.10736,0.16592,-0.85888,-0.57584,0.06344,0.43432,0.7564,0.94672
0.3416,-0.3782,0.4148,0.244,0.0732,0.1342,-0.7808,-0.54656,-0.14152,0.16104,0.4148,0.57096
0.1708,-0.244,0.3172,0.2318,0.1464,0.0122,-0.67344,-0.51728,-0.2928,-0.11224,0.06344,0.16592
0.01952,-0.09028,0.16104,0.15128,0.14152,-0.061,-0.52216,-0.41968,-0.4148,-0.35624,-0.244,-0.18056
-0.08784,-0.01464,0.11712,0.16104,0.20496,-0.1464,-0.4148,-0.35136,-0.42456,-0.40504,-0.32208,-0.27816
-0.10248,-0.0122,0.12688,0.17812,0.22936,-0.16592,-0.37088,-0.27816,-0.37088,-0.366,-0.28792,-0.26352
-0.08296,0,0.08296,0.12444,0.16592,-0.12444,-0.35624,-0.20984,-0.31232,-0.3172,-0.2684,-0.244
-0.0976,0.00976,0.07808,0.12688,0.17568,-0.13664,-0.33672,-0.1952,-0.22936,-0.25864,-0.20984,-0.20008
-0.07808,0.0244,0.02928,0.06832,0.10736,-0.09272,-0.31232,-0.1464,-0.16104,-0.17568,-0.1464,-0.13176
-0.05368,0.01952,0.01464,0.04148,0.06832,-0.061,-0.28792,-0.11712,-0.10736,-0.13176,-0.11224,-0.10248
-0.03904,0.01464,0.00976,0.02928,0.0488,-0.04392,-0.27328,-0.08296,-0.09272,-0.122,-0.10736,-0.10736
-0.02928,0.00732,0.01464,0.02928,0.04392,-0.0366,-0.27328,-0.0488,-0.08296,-0.11712,-0.11712,-0.11224
-0.0244,0.0244,-0.0244,-0.0122,0,-0.0122,-0.244,-0.0244,-0.05368,-0.09272,-0.10248,-0.0976
-0.0244,0.02684,-0.02928,-0.01708,-0.00488,-0.00976,-0.23912,-0.01952,-0.04392,-0.08784,-0.0976,-0.09272
-0.0244,0.0244,-0.0244,-0.0122,0,-0.0122,-0.24888,-0.00488,-0.02928,-0.08784,-0.08784,-0.09272
-0.01952,0.02196,-0.0244,-0.01464,-0.00488,-0.00732,-0.24888,0.00488,-0.0244,-0.0732,-0.08296,-0.08784
-0.00976,0.0244,-0.03904,-0.03416,-0.02928,0.00976,-0.26352,-0.00488,-0.03416,-0.07808,-0.08784,-0.08784
-0.01464,0.02684,-0.03904,-0.03172,-0.0244,0.00488,-0.27328,0,-0.0244,-0.07808,-0.08296,-0.08296
-0.02928,0.0366,-0.04392,-0.02928,-0.01464,-0.00732,-0.28304,0,-0.0244,-0.06344,-0.08296,-0.08296
-0.03904,0.05124,-0.06344,-0.04392,-0.0244,-0.00732,-0.27328,0.00976,-0.01952,-0.05368,-0.07808,-0.07808
-0.04392,0.05368,-0.06344,-0.04148,-0.01952,-0.0122,-0.25864,0.00976,0.00488,-0.04392,-0.06344,-0.07808
-0.03904,0.05124,-0.06344,-0.04392,-0.0244,-0.00732,-0.25864,0.00976,0.00488,-0.03904,-0.05856,-0.0732
-0.03416,0.04636,-0.05856,-0.04148,-0.0244,-0.00488,-0.26352,0.01952,0.00488,-0.04392,-0.05368,-0.06832
-0.0244,0.03904,-0.05368,-0.04148,-0.02928,0.00244,-0.26352,0.01952,0.00976,-0.02928,-0.0488,-0.06344
-0.02928,0.04148,-0.05368,-0.03904,-0.0244,-0.00244,-0.27328,0.01464,0.00976,-0.01952,-0.05368,-0.0488
-0.0244,0.0366,-0.0488,-0.0366,-0.0244,0,-0.28792,0.01952,0.0244,-0.00976,-0.0488,-0.04392
-0.01952,0.03416,-0.0488,-0.03904,-0.02928,0.00488,-0.28792,0.01952,0.02928,-0.00488,-0.04392,-0.04392
-0.01952,0.03172,-0.04392,-0.03416,-0.0244,0.00244,-0.28792,0.01952,0.03904,0.00488,-0.03904,-0.03416
-0.00976,0.03416,-0.05856,-0.05368,-0.0488,0.01952,-0.2928,0.02928,0.0488,0.00488,-0.01952,-0.02928
-0.00976,0.03172,-0.05368,-0.0488,-0.04392,0.01708,-0.2928,0.03416,0.05368,0.01952,-0.00976,-0.01952
0.00488,0.0244,-0.05368,-0.05612,-0.05856,0.03172,-0.30744,0.03416,0.06832,0.02928,-0.00488,-0.01952
0.00976,0.01708,-0.04392,-0.0488,-0.05368,0.03172,-0.3172,0.03904,0.07808,0.03416,-0.00488,-0.00976
0.00488,0.0244,-0.05368,-0.05612,-0.05856,0.03172,-0.32208,0.03416,0.07808,0.03416,-0.00488,-0.01464
0,0.0244,-0.0488,-0.0488,-0.0488,0.0244,-0.32208,0.03416,0.09272,0.0488,0.00976,-0.00488
0.00488,0.01464,-0.03416,-0.0366,-0.03904,0.02196,-0.30744,0.02928,0.0976,0.05368,0.00976,-0.00488
0.01952,0.00732,-0.03416,-0.04392,-0.05368,0.0366,-0.27816,0.02928,0.10248,0.06344,0.01952,0.00488
0.0244,-0.00732,-0.00976,-0.02196,-0.03416,0.02928,-0.2684,0.03416,0.11224,0.09272,0.0488,0.02928
0.02928,-0.01708,0.00488,-0.00976,-0.0244,0.02684,-0.27328,0.04392,0.1464,0.10248,0.06344,0.03904
0.0244,-0.00976,-0.00488,-0.01708,-0.02928,0.02684,-0.27816,0.04392,0.16104,0.12688,0.0732,0.05856
0.02928,-0.0122,-0.00488,-0.01952,-0.03416,0.03172,-0.28792,0.05856,0.18544,0.15616,0.09272,0.08296
0.0244,-0.0122,0,-0.0122,-0.0244,0.0244,-0.2928,0.06832,0.20008,0.1708,0.11224,0.08296
0.03416,-0.02196,0.00976,-0.00732,-0.0244,0.02928,-0.30256,0.06344,0.21472,0.18056,0.11712,0.08296
0.03904,-0.02928,0.01952,0,-0.01952,0.02928,-0.32208,0.06832,0.2196,0.18544,0.12688,0.10736
0.05368,-0.04148,0.02928,0.00244,-0.0244,0.03904,-0.32208,0.06832,0.23912,0.20496,0.14152,0.11712
0.07808,-0.06344,0.0488,0.00976,-0.02928,0.05368,-0.33184,0.07808,0.25864,0.22936,0.16104,0.13664
0.09272,-0.0854,0.07808,0.03172,-0.01464,0.05368,-0.3416,0.08296,0.28304,0.24888,0.18544,0.16104
0.09272,-0.09272,0.09272,0.04636,0,0.04636,-0.3416,0.08296,0.30256,0.27816,0.21472,0.1708
0.09272,-0.0976,0.10248,0.05612,0.00976,0.04148,-0.35136,0.08784,0.30744,0.28792,0.2196,0.18544
0.07808,-0.09028,0.10248,0.06344,0.0244,0.02684,-0.3416,0.10248,0.3172,0.2928,0.22448,0.20008
0.0732,-0.08784,0.10248,0.06588,0.02928,0.02196,-0.30744,0.0976,0.3416,0.30744,0.23912,0.20984
0.0732,-0.09272,0.11224,0.07564,0.03904,0.01708,-0.27816,0.0976,0.35624,0.31232,0.25864,0.21472
0.08784,-0.1098,0.13176,0.08784,0.04392,0.02196,-0.28792,0.09272,0.34648,0.31232,0.25864,0.2196
0.0976,-0.11956,0.14152,0.09272,0.04392,0.02684,-0.2928,0.07808,0.35624,0.32208,0.2684,0.23424
0.10736,-0.12688,0.1464,0.09272,0.03904,0.03416,-0.29768,0.06832,0.35624,0.3172,0.2684,0.22936
0.13176,-0.1464,0.16104,0.09516,0.02928,0.05124,-0.30744,0.06344,0.35136,0.30744,0.25864,0.22936
0.122,-0.14152,0.16104,0.10004,0.03904,0.04148,-0.3172,0.05368,0.33184,0.30256,0.24888,0.22448
0.10736,-0.13664,0.16592,0.11224,0.05856,0.0244,-0.32696,0.03416,0.32696,0.28792,0.25864,0.22448
0.10248,-0.13664,0.1708,0.11956,0.06832,0.01708,-0.35136,0.02928,0.31232,0.27816,0.25376,0.22448
0.10736,-0.13908,0.1708,0.11712,0.06344,0.02196,-0.37088,0.02928,0.2928,0.2684,0.244,0.2196
0.10736,-0.13664,0.16592,0.11224,0.05856,0.0244,-0.38552,0.00976,0.26352,0.244,0.23424,0.20496
0.09272,-0.122,0.15128,0.10492,0.05856,0.01708,-0.38552,0,0.22448,0.20984,0.20496,0.17568
0.07808,-0.1098,0.14152,0.10248,0.06344,0.00732,-0.38064,-0.01464,0.1952,0.1708,0.16592,0.15128
0.06344,-0.10004,0.13664,0.10492,0.0732,-0.00488,-0.37088,-0.02928,0.16592,0.15128,0.14152,0.13176
0.05368,-0.08296,0.11224,0.0854,0.05856,-0.00244,-0.36112,-0.03904,0.13176,0.122,0.10736,0.10736
0.05368,-0.06832,0.08296,0.05612,0.02928,0.0122,-0.366,-0.04392,0.0976,0.08784,0.07808,0.07808
0.04392,-0.05612,0.06832,0.04636,0.0244,0.00976,-0.38064,-0.0488,0.06832,0.05856,0.05368,0.05368
0.0244,-0.03416,0.04392,0.03172,0.01952,0.00244,-0.37576,-0.04392,0.0488,0.03904,0.03904,0.03416
0.01952,-0.02928,0.03904,0.02928,0.01952,0,-0.37576,-0.04392,0.03904,0.0244,0.01952,0.00488
0.01952,-0.01952,0.01952,0.00976,0,0.00976,-0.37576,-0.03416,0.01952,0,0,0.00488
0.01464,-0.00976,0.00488,-0.00244,-0.00976,0.0122,-0.38552,-0.03416,0,-0.01952,-0.01464,-0.01464
0.00976,-0.00732,0.00488,0,-0.00488,0.00732,-0.40504,-0.03904,-0.00976,-0.02928,-0.03416,-0.02928
0.00976,-0.00244,-0.00488,-0.00976,-0.01464,0.0122,-0.42456,-0.04392,-0.01952,-0.03904,-0.0488,-0.04392
-0.00488,0.00976,-0.01464,-0.0122,-0.00976,0.00244,-0.44408,-0.03904,-0.01952,-0.03904,-0.0488,-0.03904
-0.00488,0.01464,-0.0244,-0.02196,-0.01952,0.00732,-0.44896,-0.03904,-0.02928,-0.05368,-0.05368,-0.05368
-0.00488,0.0122,-0.01952,-0.01708,-0.01464,0.00488,-0.4392,-0.05368,-0.04392,-0.05368,-0.05856,-0.06344
-0.00488,0.01464,-0.0244,-0.02196,-0.01952,0.00732,-0.42944,-0.0488,-0.04392,-0.05368,-0.05856,-0.06832
-0.01952,0.0244,-0.02928,-0.01952,-0.00976,-0.00488,-0.4392,-0.04392,-0.03416,-0.05368,-0.06344,-0.06832
-0.01952,0.0244,-0.02928,-0.01952,-0.00976,-0.00488,-0.4392,-0.03416,-0.03416,-0.05856,-0.06344,-0.06832
-0.01952,0.02684,-0.03416,-0.0244,-0.01464,-0.00244,-0.44896,-0.02928,-0.03904,-0.0488,-0.05368,-0.06832
-0.01952,0.03172,-0.04392,-0.03416,-0.0244,0.00244,-0.45384,-0.02928,-0.03904,-0.0488,-0.05368,-0.06344
-0.00976,0.02684,-0.04392,-0.03904,-0.03416,0.0122,-0.45872,-0.03416,-0.02928,-0.05856,-0.05856,-0.0732
-0.00488,0.01708,-0.02928,-0.02684,-0.0244,0.00976,-0.44896,-0.03416,-0.03416,-0.06344,-0.05856,-0.07808
-0.01464,0.0244,-0.03416,-0.02684,-0.01952,0.00244,-0.4636,-0.02928,-0.04392,-0.06344,-0.05856,-0.07808
-0.01464,0.02928,-0.04392,-0.0366,-0.02928,0.00732,-0.46848,-0.02928,-0.03904,-0.05368,-0.05856,-0.0732
-0.01952,0.02928,-0.03904,-0.02928,-0.01952,0,-0.47824,-0.03416,-0.05368,-0.05856,-0.06344,-0.08296
-0.0244,0.03416,-0.04392,-0.03172,-0.01952,-0.00244,-0.47336,-0.03416,-0.05368,-0.05856,-0.0732,-0.08296
-0.01952,0.0244,-0.02928,-0.01952,-0.00976,-0.00488,-0.46848,-0.03416,-0.05368,-0.06832,-0.06832,-0.08296
-0.00488,0.01708,-0.02928,-0.02684,-0.0244,0.00976,-0.46848,-0.03416,-0.05856,-0.06344,-0.06832,-0.08296
-0.01464,0.02684,-0.03904,-0.03172,-0.0244,0.00488,-0.46848,-0.0244,-0.0488,-0.05856,-0.05856,-0.07808
-0.01464,0.0244,-0.03416,-0.02684,-0.01952,0.00244,-0.45872,-0.0244,-0.0488,-0.06344,-0.05856,-0.06832
-0.0244,0.03904,-0.05368,-0.04148,-0.02928,0.00244,-0.44408,-0.0244,-0.05856,-0.06344,-0.06832,-0.0732
-0.0244,0.0366,-0.0488,-0.0366,-0.0244,0,-0.44408,-0.0244,-0.05856,-0.06344,-0.06832,-0.0732
-0.03416,0.04148,-0.0488,-0.03172,-0.01464,-0.00976,-0.45384,-0.01464,-0.06832,-0.0732,-0.06832,-0.0732
-0.03416,0.04148,-0.0488,-0.03172,-0.01464,-0.00976,-0.45384,-0.00976,-0.06832,-0.0732,-0.06832,-0.0732
-0.0244,0.03904,-0.05368,-0.04148,-0.02928,0.00244,-0.45384,-0.01464,-0.06832,-0.08296,-0.08296,-0.08784
-0.0244,0.04148,-0.05856,-0.04636,-0.03416,0.00488,-0.44896,-0.01464,-0.0732,-0.08784,-0.07808,-0.08784
-0.01464,0.0366,-0.05856,-0.05124,-0.04392,0.01464,-0.44408,-0.0244,-0.08296,-0.09272,-0.08296,-0.08784
-0.01464,0.0366,-0.05856,-0.05124,-0.04392,0.01464,-0.44408,-0.0244,-0.07808,-0.08784,-0.08296,-0.08784
-0.01952,0.03172,-0.04392,-0.03416,-0.0244,0.00244,-0.43432,-0.01464,-0.0732,-0.08784,-0.08296,-0.09272
-0.01464,0.02684,-0.03904,-0.03172,-0.0244,0.00488,-0.43432,-0.01464,-0.0732,-0.08296,-0.08296,-0.09272
-0.00488,0.00732,-0.00976,-0.00732,-0.00488,0,-0.42456,-0.01464,-0.06832,-0.08784,-0.08296,-0.08296
-0.00488,0.01708,-0.02928,-0.02684,-0.0244,0.00976,-0.42456,-0.00488,-0.0488,-0.05856,-0.06344,-0.0732
-0.00976,0.00488,0,0.00488,0.00976,-0.00976,-0.41968,0.00976,-0.0488,-0.06832,-0.05856,-0.06832
-0.01952,0.01952,-0.01952,-0.00976,0,-0.00976,-0.42944,0,-0.05856,-0.06832,-0.06832,-0.06832
-0.01952,0.0244,-0.02928,-0.01952,-0.00976,-0.00488,-0.42944,0,-0.05856,-0.06832,-0.06832,-0.06832
-0.0244,0.02196,-0.01952,-0.00732,0.00488,-0.01464,-0.40504,0,-0.04392,-0.05856,-0.06832,-0.06832
-0.0244,0.02196,-0.01952,-0.00732,0.00488,-0.01464,-0.40016,0.00488,-0.04392,-0.05856,-0.06832,-0.06832
-0.0244,0.01708,-0.00976,0.00244,0.01464,-0.01952,-0.40504,-0.00488,-0.04392,-0.06344,-0.06832,-0.0732
-0.01952,0.02196,-0.0244,-0.01464,-0.00488,-0.00732,-0.40504,-0.00488,-0.04392,-0.06832,-0.06832,-0.0732
-0.00976,0.02684,-0.04392,-0.03904,-0.03416,0.0122,-0.40016,0,-0.05368,-0.0732,-0.07808,-0.07808
-0.00976,0.03172,-0.05368,-0.0488,-0.04392,0.01708,-0.3904,0,-0.05856,-0.07808,-0.07808,-0.08296
0.00488,0.00732,-0.01952,-0.02196,-0.0244,0.01464,-0.39528,0,-0.0488,-0.06344,-0.06344,-0.0732
0.00488,0,-0.00488,-0.00732,-0.00976,0.00732,-0.4148,-0.00488,-0.0488,-0.06344,-0.05856,-0.0732
0.00488,0.00488,-0.01464,-0.01708,-0.01952,0.0122,-0.42456,-0.00488,-0.0732,-0.08296,-0.07808,-0.09272
0,0.0122,-0.0244,-0.0244,-0.0244,0.0122,-0.41968,-0.00976,-0.08296,-0.10248,-0.08784,-0.0976
-0.00976,0.02684,-0.04392,-0.03904,-0.03416,0.0122,-0.39528,0,-0.08784,-0.10736,-0.09272,-0.10736
-0.01464,0.03416,-0.05368,-0.04636,-0.03904,0.0122,-0.3904,0.00488,-0.09272,-0.10248,-0.09272,-0.10736
-0.01464,0.03904,-0.06344,-0.05612,-0.0488,0.01708,-0.38552,0.00488,-0.08784,-0.08784,-0.08784,-0.08784
-0.01952,0.04636,-0.0732,-0.06344,-0.05368,0.01708,-0.3904,0.00488,-0.0976,-0.0976,-0.0976,-0.09272
-0.00976,0.04148,-0.0732,-0.06832,-0.06344,0.02684,-0.37576,-0.00488,-0.10736,-0.11224,-0.10736,-0.10248
-0.01464,0.04148,-0.06832,-0.061,-0.05368,0.01952,-0.37576,-0.00976,-0.10736,-0.10736,-0.10736,-0.10248
-0.00976,0.02684,-0.04392,-0.03904,-0.03416,0.0122,-0.38064,-0.01464,-0.0976,-0.10248,-0.09272,-0.09272
-0.00976,0.02196,-0.03416,-0.02928,-0.0244,0.00732,-0.38064,-0.00976,-0.09272,-0.10248,-0.09272,-0.09272
0,0.02196,-0.04392,-0.04392,-0.04392,0.02196,-0.3904,-0.00976,-0.10248,-0.0976,-0.10248,-0.08784
-0.00976,0.02928,-0.0488,-0.04392,-0.03904,0.01464,-0.38064,-0.00488,-0.10736,-0.10736,-0.10248,-0.0976
-0.0244,0.04636,-0.06832,-0.05612,-0.04392,0.00976,-0.36112,0,-0.10736,-0.122,-0.11224,-0.11224
-0.03416,0.05368,-0.0732,-0.05612,-0.03904,0.00244,-0.35624,0,-0.10248,-0.11712,-0.11712,-0.11224
-0.03904,0.06588,-0.09272,-0.0732,-0.05368,0.00732,-0.35136,0.00976,-0.11712,-0.122,-0.122,-0.12688
-0.05368,0.07564,-0.0976,-0.07076,-0.04392,-0.00488,-0.3416,0.01464,-0.11712,-0.12688,-0.12688,-0.12688
-0.0488,0.07808,-0.10736,-0.08296,-0.05856,0.00488,-0.32208,0.01464,-0.11712,-0.14152,-0.13664,-0.1464
-0.0488,0.07808,-0.10736,-0.08296,-0.05856,0.00488,-0.31232,0.00976,-0.122,-0.1464,-0.14152,-0.15616
-0.0488,0.07564,-0.10248,-0.07808,-0.05368,0.00244,-0.3172,0.01464,-0.122,-0.1464,-0.14152,-0.15128
-0.0488,0.07076,-0.09272,-0.06832,-0.04392,-0.00244,-0.3172,0.01464,-0.122,-0.1464,-0.14152,-0.13664
-0.05368,0.0732,-0.09272,-0.06588,-0.03904,-0.00732,-0.3172,0.01464,-0.11224,-0.13176,-0.13176,-0.13664
-0.05368,0.0732,-0.09272,-0.06588,-0.03904,-0.00732,-0.3172,0.01464,-0.11224,-0.13176,-0.12688,-0.13664
-0.04392,0.0732,-0.10248,-0.08052,-0.05856,0.00732,-0.32696,0.01464,-0.10736,-0.14152,-0.13176,-0.14152
-0.04392,0.0732,-0.10248,-0.08052,-0.05856,0.00732,-0.33184,0.01464,-0.10248,-0.14152,-0.12688,-0.14152
-0.0488,0.0732,-0.0976,-0.0732,-0.0488,0,-0.3416,0.00976,-0.11224,-0.13664,-0.12688,-0.13664
-0.0488,0.06832,-0.08784,-0.06344,-0.03904,-0.00488,-0.3416,-0.00488,-0.11224,-0.13664,-0.12688,-0.13664
-0.0488,0.06832,-0.08784,-0.06344,-0.03904,-0.00488,-0.33184,0.00976,-0.0976,-0.12688,-0.122,-0.13176
-0.0488,0.06588,-0.08296,-0.05856,-0.03416,-0.00732,-0.33184,0.00976,-0.10248,-0.12688,-0.122,-0.13176
-0.0488,0.061,-0.0732,-0.0488,-0.0244,-0.0122,-0.33672,0.01952,-0.10248,-0.122,-0.122,-0.12688
-0.05856,0.06832,-0.07808,-0.0488,-0.01952,-0.01952,-0.3416,0.01952,-0.0976,-0.122,-0.122,-0.12688
-0.0488,0.06832,-0.08784,-0.06344,-0.03904,-0.00488,-0.33672,0.01952,-0.0976,-0.122,-0.122,-0.12688
-0.04392,0.06588,-0.08784,-0.06588,-0.04392,0,-0.33672,0.01952,-0.0976,-0.122,-0.11712,-0.12688
-0.05368,0.07564,-0.0976,-0.07076,-0.04392,-0.00488,-0.3172,0.0244,-0.08784,-0.122,-0.122,-0.13176
-0.06344,0.07808,-0.09272,-0.061,-0.02928,-0.01708,-0.31232,0.01464,-0.08296,-0.122,-0.122,-0.12688
-0.07808,0.07808,-0.07808,-0.03904,0,-0.03904,-0.30744,0.01464,-0.06832,-0.10248,-0.11224,-0.12688
-0.06832,0.08052,-0.09272,-0.05856,-0.0244,-0.02196,-0.32696,0.01464,-0.06344,-0.07808,-0.07808,-0.08784
-0.01952,0.03904,-0.05856,-0.0488,-0.03904,0.00976,-0.38064,-0.02928,-0.06832,-0.05368,-0.01952,-0.01952
0.03416,-0.00488,-0.0244,-0.04148,-0.05856,0.04636,-0.42944,-0.07808,-0.09272,-0.00488,0.06344,0.10248
0.07808,-0.0488,0.01952,-0.01952,-0.05856,0.06832,-0.49776,-0.17568,-0.10736,0.03904,0.16104,0.2196
0.13664,-0.122,0.10736,0.03904,-0.02928,0.08296,-0.5856,-0.27816,-0.11712,0.10248,0.28792,0.3904
0.23912,-0.22936,0.2196,0.10004,-0.01952,0.12932,-0.6832,-0.37576,-0.09272,0.21472,0.4636,0.59048
0.34648,-0.35868,0.37088,0.19764,0.0244,0.16104,-0.79544,-0.44896,0,0.38064,0.69296,0.85888
0.37576,-0.427,0.47824,0.29036,0.10248,0.13664,-0.8296,-0.48312,0.06832,0.49776,0.85888,1.02968
0.48312,-0.51484,0.54656,0.305,0.06344,0.20984,-0.88816,-0.51728,0.08296,0.54656,0.9272,1.1224
0.4392,-0.47092,0.50264,0.28304,0.06344,0.18788,-0.84912,-0.50264,-0.00488,0.42944,0.77104,0.9516
0.33184,-0.3416,0.35136,0.18544,0.01952,0.15616,-0.7564,-0.43432,-0.16592,0.18056,0.42456,0.57584
0.17568,-0.20496,0.23424,0.1464,0.05856,0.05856,-0.61976,-0.37088,-0.35624,-0.14152,0.02928,0.11712
0.06832,-0.10736,0.1464,0.11224,0.07808,-0.00488,-0.488,-0.3172,-0.46848,-0.37088,-0.2684,-0.20008
-0.03904,-0.04636,0.13176,0.15128,0.1708,-0.10492,-0.38552,-0.28792,-0.50264,-0.46848,-0.37576,-0.33672
-0.05368,-0.03172,0.11712,0.14396,0.1708,-0.11224,-0.35136,-0.2196,-0.40504,-0.38064,-0.30256,-0.2684
-0.05368,-0.02196,0.0976,0.12444,0.15128,-0.10248,-0.32208,-0.17568,-0.28304,-0.27328,-0.2196,-0.21472
-0.0488,-0.00732,0.06344,0.08784,0.11224,-0.08052,-0.30256,-0.14152,-0.20008,-0.20496,-0.17568,-0.16592
-0.03904,-0.0122,0.06344,0.08296,0.10248,-0.07076,-0.244,-0.06832,-0.13176,-0.1464,-0.13176,-0.13176
-0.04392,0.00244,0.03904,0.061,0.08296,-0.06344,-0.22448,-0.0244,-0.08296,-0.0976,-0.0976,-0.11224
-0.03904,0.00732,0.0244,0.04392,0.06344,-0.05124,-0.20496,-0.01952,-0.08296,-0.10736,-0.11224,-0.11712
-0.03904,0.01708,0.00488,0.0244,0.04392,-0.04148,-0.17568,0.01464,-0.05856,-0.07808,-0.09272,-0.11712
-0.04392,0.03172,-0.01952,0.00244,0.0244,-0.03416,-0.16104,0.03416,-0.03904,-0.06832,-0.09272,-0.11224
-0.03416,0.03172,-0.02928,-0.0122,0.00488,-0.01952,-0.14152,0.04392,-0.02928,-0.06344,-0.07808,-0.10736
-0.03416,0.03416,-0.03416,-0.01708,0,-0.01708,-0.14152,0.05368,-0.0244,-0.05856,-0.07808,-0.10248
-0.04392,0.03904,-0.03416,-0.0122,0.00976,-0.02684,-0.13176,0.06344,-0.01464,-0.05856,-0.06832,-0.10248
-0.03904,0.04148,-0.04392,-0.0244,-0.00488,-0.01708,-0.13176,0.0732,-0.01464,-0.04392,-0.06344,-0.0976
-0.05368,0.061,-0.06832,-0.04148,-0.01464,-0.01952,-0.12688,0.06344,-0.00976,-0.0488,-0.06344,-0.0976
-0.05368,0.06344,-0.0732,-0.04636,-0.01952,-0.01708,-0.12688,0.06832,-0.00488,-0.04392,-0.0732,-0.09272
-0.05368,0.06344,-0.0732,-0.04636,-0.01952,-0.01708,-0.14152,0.06832,0.00488,-0.04392,-0.05856,-0.08784
-0.05368,0.06344,-0.0732,-0.04636,-0.01952,-0.01708,-0.15128,0.07808,0.01952,-0.03416,-0.05368,-0.08784
-0.04392,0.05368,-0.06344,-0.04148,-0.01952,-0.0122,-0.16104,0.07808,0.01464,-0.0244,-0.05368,-0.07808
-0.03904,0.0488,-0.05856,-0.03904,-0.01952,-0.00976,-0.1708,0.07808,0.01464,-0.01464,-0.0488,-0.0732
-0.0488,0.0488,-0.0488,-0.0244,0,-0.0244,-0.18544,0.07808,0.02928,-0.00976,-0.03416,-0.0732
-0.03904,0.04148,-0.04392,-0.0244,-0.00488,-0.01708,-0.18544,0.07808,0.02928,0,-0.02928,-0.0732
-0.04392,0.04392,-0.04392,-0.02196,0,-0.02196,-0.19032,0.08784,0.04392,0.00976,-0.03416,-0.05856
-0.04392,0.04148,-0.03904,-0.01708,0.00488,-0.0244,-0.20008,0.08784,0.05368,0.01952,-0.02928,-0.05368
-0.03904,0.04392,-0.0488,-0.02928,-0.00976,-0.01464,-0.20008,0.08784,0.05368,0.01464,-0.0244,-0.0488
-0.03904,0.04636,-0.05368,-0.03416,-0.01464,-0.0122,-0.20008,0.08784,0.06344,0.02928,-0.01464,-0.04392
-0.02928,0.03904,-0.0488,-0.03416,-0.01952,-0.00488,-0.20496,0.0976,0.0732,0.04392,-0.01464,-0.04392
-0.02928,0.03172,-0.03416,-0.01952,-0.00488,-0.0122,-0.20008,0.10248,0.08296,0.05368,-0.00488,-0.04392
-0.01952,0.02684,-0.03416,-0.0244,-0.01464,-0.00244,-0.2196,0.10736,0.10248,0.05856,0.01464,-0.0244
-0.01952,0.02684,-0.03416,-0.0244,-0.01464,-0.00244,-0.2196,0.10736,0.11224,0.06832,0.03416,-0.00976
-0.02928,0.02928,-0.02928,-0.01464,0,-0.01464,-0.22448,0.10248,0.12688,0.08296,0.04392,0
-0.03416,0.02684,-0.01952,-0.00244,0.01464,-0.0244,-0.22936,0.10248,0.13664,0.09272,0.05368,0.01464
-0.01464,0.00976,-0.00488,0.00244,0.00976,-0.0122,-0.23912,0.11712,0.1464,0.10736,0.05368,0.0244
-0.01464,0.00732,0,0.00732,0.01464,-0.01464,-0.23912,0.122,0.16104,0.12688,0.06832,0.03416
-0.0244,0.0122,0,0.0122,0.0244,-0.0244,-0.23912,0.122,0.18544,0.1464,0.08784,0.05368
-0.00976,0.00732,-0.00488,0,0.00488,-0.00732,-0.24888,0.13176,0.20496,0.16592,0.0976,0.06344
-0.00976,-0.00488,0.01952,0.0244,0.02928,-0.01952,-0.2684,0.14152,0.2196,0.18056,0.122,0.06344
0.00488,-0.01464,0.0244,0.02196,0.01952,-0.00732,-0.2684,0.15128,0.24888,0.20496,0.1464,0.08784
0.02928,-0.03172,0.03416,0.01952,0.00488,0.0122,-0.27816,0.15616,0.2684,0.21472,0.15616,0.10736
0.04392,-0.04392,0.04392,0.02196,0,0.02196,-0.27816,0.1464,0.28304,0.22936,0.16592,0.11712
0.03904,-0.04636,0.05368,0.03416,0.01464,0.0122,-0.28304,0.15616,0.30744,0.25376,0.18056,0.13176
0.03904,-0.05612,0.0732,0.05368,0.03416,0.00244,-0.27816,0.16104,0.32208,0.27816,0.20008,0.14152
0.0488,-0.06588,0.08296,0.05856,0.03416,0.00732,-0.27816,0.18056,0.35136,0.29768,0.22936,0.16104
0.0488,-0.0732,0.0976,0.0732,0.0488,0,-0.27816,0.18056,0.37088,0.3172,0.23912,0.17568
0.06344,-0.0854,0.10736,0.07564,0.04392,0.00976,-0.27816,0.18056,0.39528,0.33184,0.244,0.20496
0.0732,-0.09516,0.11712,0.08052,0.04392,0.01464,-0.28304,0.19032,0.40504,0.3416,0.26352,0.21472
0.06344,-0.10004,0.13664,0.10492,0.0732,-0.00488,-0.28792,0.18544,0.41968,0.35136,0.27328,0.22448
0.06832,-0.10736,0.1464,0.11224,0.07808,-0.00488,-0.27816,0.18544,0.42456,0.36112,0.28304,0.23424
0.0732,-0.10492,0.13664,0.10004,0.06344,0.00488,-0.2684,0.1708,0.42456,0.37088,0.28792,0.22448
0.0732,-0.1098,0.1464,0.1098,0.0732,0,-0.27328,0.1708,0.4148,0.37088,0.28792,0.23424
0.0732,-0.11468,0.15616,0.11956,0.08296,-0.00488,-0.26352,0.1708,0.4148,0.36112,0.28792,0.244
0.0732,-0.11712,0.16104,0.12444,0.08784,-0.00732,-0.27328,0.16592,0.40992,0.35136,0.28304,0.23912
0.09272,-0.13176,0.1708,0.12444,0.07808,0.00732,-0.28304,0.15616,0.40504,0.34648,0.28792,0.23424
0.08296,-0.12932,0.17568,0.1342,0.09272,-0.00488,-0.2928,0.14152,0.38552,0.33672,0.27816,0.22936
0.06344,-0.122,0.18056,0.14884,0.11712,-0.02684,-0.30744,0.12688,0.35136,0.31232,0.26352,0.23424
0.05856,-0.11712,0.17568,0.1464,0.11712,-0.02928,-0.32208,0.10248,0.32208,0.29768,0.24888,0.22448
0.0488,-0.0976,0.1464,0.122,0.0976,-0.0244,-0.29768,0.08784,0.28304,0.25376,0.2196,0.20008
0.02928,-0.08052,0.13176,0.11712,0.10248,-0.0366,-0.28792,0.0732,0.23912,0.21472,0.19032,0.16592
0.03416,-0.08052,0.12688,0.1098,0.09272,-0.02928,-0.29768,0.05856,0.20984,0.19032,0.16592,0.15616
0.04392,-0.08052,0.11712,0.09516,0.0732,-0.01464,-0.2928,0.05368,0.18056,0.16592,0.13664,0.12688
0.03416,-0.07076,0.10736,0.09028,0.0732,-0.01952,-0.28792,0.05368,0.14152,0.12688,0.10736,0.10248
0.01464,-0.04636,0.07808,0.07076,0.06344,-0.0244,-0.28304,0.0488,0.11224,0.08784,0.0732,0.0732
0.00976,-0.03416,0.05856,0.05368,0.0488,-0.01952,-0.28304,0.0488,0.08296,0.0732,0.05368,0.05368
0,-0.01952,0.03904,0.03904,0.03904,-0.01952,-0.29768,0.0488,0.05856,0.04392,0.02928,0.02928
-0.00976,-0.00976,0.02928,0.03416,0.03904,-0.0244,-0.29768,0.04392,0.0244,0.01464,-0.00488,0
-0.01464,0,0.01464,0.02196,0.02928,-0.02196,-0.2928,0.04392,0.00488,-0.00976,-0.01952,-0.01952
-0.00976,0.00976,-0.00976,-0.00488,0,-0.00488,-0.2928,0.04392,-0.01952,-0.02928,-0.04392,-0.04392
-0.01464,0.01464,-0.01464,-0.00732,0,-0.00732,-0.2928,0.0488,-0.03904,-0.04392,-0.05856,-0.06344
-0.00976,0.01952,-0.02928,-0.0244,-0.01952,0.00488,-0.29768,0.05368,-0.03416,-0.05368,-0.06344,-0.05368
-0.00976,0.02196,-0.03416,-0.02928,-0.0244,0.00732,-0.30256,0.05368,-0.03904,-0.05856,-0.06832,-0.05856
-0.0244,0.0366,-0.0488,-0.0366,-0.0244,0,-0.29768,0.05856,-0.0488,-0.05368,-0.0732,-0.06832
-0.03416,0.04148,-0.0488,-0.03172,-0.01464,-0.00976,-0.28304,0.05368,-0.05368,-0.06344,-0.07808,-0.0732
-0.03416,0.0366,-0.03904,-0.02196,-0.00488,-0.01464,-0.30256,0.0488,-0.05368,-0.0732,-0.08784,-0.08296
-0.03904,0.04392,-0.0488,-0.02928,-0.00976,-0.01464,-0.30256,0.0488,-0.05368,-0.0732,-0.09272,-0.08784
-0.02928,0.03904,-0.0488,-0.03416,-0.01952,-0.00488,-0.2928,0.0488,-0.05368,-0.07808,-0.09272,-0.07808
-0.02928,0.03904,-0.0488,-0.03416,-0.01952,-0.00488,-0.2928,0.0488,-0.05368,-0.07808,-0.09272,-0.08296
-0.03904,0.04392,-0.0488,-0.02928,-0.00976,-0.01464,-0.30744,0.03904,-0.06832,-0.08784,-0.10248,-0.0976
-0.03904,0.04392,-0.0488,-0.02928,-0.00976,-0.01464,-0.30744,0.03904,-0.06832,-0.08784,-0.10248,-0.09272
-0.0244,0.02928,-0.03416,-0.02196,-0.00976,-0.00732,-0.28792,0.03416,-0.0732,-0.08296,-0.0976,-0.09272
-0.0244,0.02928,-0.03416,-0.02196,-0.00976,-0.00732,-0.27328,0.03904,-0.0732,-0.08296,-0.0976,-0.0976
-0.04392,0.04636,-0.0488,-0.02684,-0.00488,-0.01952,-0.24888,0.0488,-0.05856,-0.06832,-0.08784,-0.08784
-0.0488,0.0488,-0.0488,-0.0244,0,-0.0244,-0.22936,0.04392,-0.06344,-0.06344,-0.08784,-0.08296
-0.04392,0.04148,-0.03904,-0.01708,0.00488,-0.0244,-0.22936,0.04392,-0.06344,-0.06832,-0.08784,-0.08296
-0.03416,0.03904,-0.04392,-0.02684,-0.00976,-0.0122,-0.23424,0.04392,-0.06344,-0.06832,-0.08784,-0.08296
-0.03416,0.0366,-0.03904,-0.02196,-0.00488,-0.01464,-0.244,0.04392,-0.06832,-0.06344,-0.08784,-0.08296
-0.02928,0.03416,-0.03904,-0.0244,-0.00976,-0.00976,-0.24888,0.04392,-0.06832,-0.06832,-0.08784,-0.08296
-0.03416,0.03416,-0.03416,-0.01708,0,-0.01708,-0.23912,0.04392,-0.05856,-0.0732,-0.08784,-0.08296
-0.03416,0.03904,-0.04392,-0.02684,-0.00976,-0.0122,-0.23912,0.04392,-0.05856,-0.0732,-0.08784,-0.08296
-0.04392,0.04148,-0.03904,-0.01708,0.00488,-0.0244,-0.22936,0.05368,-0.05856,-0.06344,-0.07808,-0.08296
-0.04392,0.04636,-0.0488,-0.02684,-0.00488,-0.01952,-0.22936,0.05368,-0.05856,-0.06344,-0.07808,-0.08296
-0.03416,0.04636,-0.05856,-0.04148,-0.0244,-0.00488,-0.22936,0.04392,-0.05856,-0.0732,-0.07808,-0.0732
-0.03416,0.04392,-0.05368,-0.0366,-0.01952,-0.00732,-0.2196,0.0488,-0.05856,-0.0732,-0.08296,-0.07808
-0.0244,0.03172,-0.03904,-0.02684,-0.01464,-0.00488,-0.22936,0.05368,-0.0732,-0.08296,-0.08784,-0.08784
-0.01464,0.02196,-0.02928,-0.02196,-0.01464,0,-0.22448,0.05368,-0.0732,-0.09272,-0.10248,-0.08784
-0.0244,0.02684,-0.02928,-0.01708,-0.00488,-0.00976,-0.23912,0.05368,-0.05856,-0.07808,-0.09272,-0.08784
-0.0244,0.0244,-0.0244,-0.0122,0,-0.0122,-0.23912,0.05368,-0.05856,-0.07808,-0.08296,-0.08784
-0.03904,0.04148,-0.04392,-0.0244,-0.00488,-0.01708,-0.22936,0.05368,-0.06344,-0.08296,-0.09272,-0.08296
-0.04392,0.05124,-0.05856,-0.0366,-0.01464,-0.01464,-0.23424,0.05368,-0.06344,-0.08784,-0.09272,-0.08296
-0.0244,0.01952,-0.01464,-0.00244,0.00976,-0.01708,-0.2196,0.03416,-0.06832,-0.08296,-0.09272,-0.09272
-0.03904,0.02928,-0.01952,0,0.01952,-0.02928,-0.1952,0.03904,-0.0488,-0.06832,-0.07808,-0.07808
-0.02928,0.0244,-0.01952,-0.00488,0.00976,-0.01952,-0.20496,0.0488,-0.0488,-0.05856,-0.06832,-0.06832
-0.02928,0.0244,-0.01952,-0.00488,0.00976,-0.01952,-0.20496,0.0488,-0.0488,-0.05856,-0.06832,-0.06832
-0.03416,0.02684,-0.01952,-0.00244,0.01464,-0.0244,-0.20984,0.05856,-0.03416,-0.05856,-0.06832,-0.06832
-0.03416,0.02684,-0.01952,-0.00244,0.01464,-0.0244,-0.22448,0.06344,-0.03416,-0.05856,-0.06832,-0.06832
-0.0244,0.01708,-0.00976,0.00244,0.01464,-0.01952,-0.24888,0.05368,-0.04392,-0.06344,-0.07808,-0.0732
-0.01952,0.01708,-0.01464,-0.00488,0.00488,-0.0122,-0.25864,0.04392,-0.04392,-0.06832,-0.07808,-0.0732
