i,aVR,ii,aVF,iii,aVL,V1,V2,V3,V4,V5,V6
-0.122,0.14884,-0.17568,-0.11468,-0.05368,-0.03416,0.07808,0.04392,0.00976,-0.11224,-0.16104,-0.08296
-0.11224,0.14884,-0.18544,-0.12932,-0.0732,-0.01952,0.08784,0.05856,0.01952,-0.10248,-0.15128,-0.08296
-0.11224,0.14396,-0.17568,-0.11956,-0.06344,-0.0244,0.08784,0.05856,0.0244,-0.10248,-0.15128,-0.08296
-0.0976,0.13176,-0.16592,-0.11712,-0.06832,-0.01464,0.08784,0.05856,0.01952,-0.08784,-0.16104,-0.08296
-0.09272,0.11712,-0.14152,-0.09516,-0.0488,-0.02196,0.08784,0.06344,0.01952,-0.08784,-0.15616,-0.08296
-0.09272,0.11712,-0.14152,-0.09516,-0.0488,-0.02196,0.08784,0.05368,0.02928,-0.09272,-0.1464,-0.07808
-0.08784,0.11712,-0.1464,-0.10248,-0.05856,-0.01464,0.08296,0.05856,0.03416,-0.09272,-0.1464,-0.07808
-0.0976,0.11712,-0.13664,-0.08784,-0.03904,-0.02928,0.09272,0.05368,0.03904,-0.08296,-0.1464,-0.06832
-0.10736,0.12444,-0.14152,-0.08784,-0.03416,-0.0366,0.09272,0.05856,0.03904,-0.07808,-0.14152,-0.06832
-0.0976,0.11956,-0.14152,-0.09272,-0.04392,-0.02684,0.07808,0.06344,0.02928,-0.07808,-0.1464,-0.07808
-0.0976,0.11712,-0.13664,-0.08784,-0.03904,-0.02928,0.0732,0.0732,0.03904,-0.07808,-0.14152,-0.07808
-0.09272,0.11468,-0.13664,-0.09028,-0.04392,-0.0244,0.0732,0.06344,0.03904,-0.08296,-0.15128,-0.07808
-0.08784,0.11224,-0.13664,-0.09272,-0.0488,-0.01952,0.0732,0.06832,0.05368,-0.08296,-0.14152,-0.0732
-0.0976,0.11712,-0.13664,-0.08784,-0.03904,-0.02928,0.08296,0.08296,0.05368,-0.06832,-0.13176,-0.0732
-0.0976,0.11468,-0.13176,-0.08296,-0.03416,-0.03172,0.08296,0.0976,0.06344,-0.05856,-0.13176,-0.0732
-0.08296,0.1098,-0.13664,-0.09516,-0.05368,-0.01464,0.08296,0.08784,0.07808,-0.05856,-0.11712,-0.05856
-0.08296,0.1098,-0.13664,-0.09516,-0.05368,-0.01464,0.08296,0.09272,0.07808,-0.05856,-0.11712,-0.05856
-0.08784,0.11468,-0.14152,-0.0976,-0.05368,-0.01708,0.07808,0.10248,0.09272,-0.0488,-0.10736,-0.05368
-0.08296,0.11224,-0.14152,-0.10004,-0.05856,-0.0122,0.07808,0.11224,0.0976,-0.0488,-0.10736,-0.05368
-0.09272,0.11712,-0.14152,-0.09516,-0.0488,-0.02196,0.07808,0.11712,0.0976,-0.04392,-0.10736,-0.04392
-0.08784,0.1098,-0.13176,-0.08784,-0.04392,-0.02196,0.07808,0.11712,0.10248,-0.03904,-0.10248,-0.04392
-0.0732,0.10248,-0.13176,-0.09516,-0.05856,-0.00732,0.06832,0.122,0.11224,-0.03416,-0.0976,-0.03904
-0.06832,0.10004,-0.13176,-0.0976,-0.06344,-0.00244,0.06832,0.13664,0.12688,-0.0244,-0.08784,-0.03904
-0.06344,0.0976,-0.13176,-0.10004,-0.06832,0.00244,0.06832,0.1464,0.1464,-0.00976,-0.06832,-0.03416
-0.05856,0.09516,-0.13176,-0.10248,-0.0732,0.00732,0.06832,0.15128,0.16104,0.00488,-0.06832,-0.02928
-0.05856,0.08052,-0.10248,-0.0732,-0.04392,-0.00732,0.06832,0.16104,0.16104,0,-0.0732,-0.0244
-0.05368,0.07808,-0.10248,-0.07564,-0.0488,-0.00244,0.06832,0.18056,0.18056,0.00976,-0.05856,-0.01464
-0.02928,0.05612,-0.08296,-0.06832,-0.05368,0.0122,0.06344,0.18056,0.20008,0.02928,-0.05368,-0.00976
-0.00976,0.04148,-0.0732,-0.06832,-0.06344,0.02684,0.06344,0.20008,0.22448,0.0488,-0.03904,0
0.00488,0.02684,-0.05856,-0.061,-0.06344,0.03416,0.05856,0.2196,0.25376,0.0732,-0.01952,0.01952
0.01464,0.01464,-0.04392,-0.05124,-0.05856,0.0366,0.0488,0.244,0.27816,0.09272,0,0.02928
0.02928,0,-0.02928,-0.04392,-0.05856,0.04392,0.04392,0.2684,0.29768,0.11224,0.01464,0.02928
0.04392,-0.01708,-0.00976,-0.03172,-0.05368,0.0488,0.03904,0.28792,0.3172,0.13664,0.03904,0.04392
0.06832,-0.03904,0.00976,-0.0244,-0.05856,0.06344,0.02928,0.2928,0.33672,0.16592,0.06344,0.06344
0.07808,-0.05612,0.03416,-0.00488,-0.04392,0.061,0.0244,0.29768,0.36112,0.19032,0.08784,0.08296
0.08296,-0.06588,0.0488,0.00732,-0.03416,0.05856,0.00976,0.3172,0.3904,0.22936,0.12688,0.10248
0.08784,-0.08052,0.0732,0.02928,-0.01464,0.05124,0,0.32208,0.40504,0.25864,0.15616,0.12688
0.122,-0.11712,0.11224,0.05124,-0.00976,0.06588,-0.00488,0.32696,0.42456,0.29768,0.19032,0.15616
0.14152,-0.13176,0.122,0.05124,-0.01952,0.08052,-0.01464,0.32696,0.4392,0.33184,0.22936,0.17568
0.1464,-0.13908,0.13176,0.05856,-0.01464,0.08052,-0.02928,0.33184,0.45872,0.35136,0.244,0.19032
0.15128,-0.14396,0.13664,0.061,-0.01464,0.08296,-0.03904,0.3416,0.4636,0.37576,0.2684,0.20984
0.16592,-0.16104,0.15616,0.0732,-0.00976,0.08784,-0.0488,0.34648,0.4636,0.3904,0.28792,0.2196
0.1708,-0.17568,0.18056,0.09516,0.00976,0.08052,-0.05856,0.33672,0.4636,0.40016,0.30256,0.22448
0.18544,-0.183,0.18056,0.08784,-0.00488,0.09516,-0.06344,0.33184,0.47336,0.41968,0.3172,0.23912
0.19032,-0.19032,0.19032,0.09516,0,0.09516,-0.06832,0.32208,0.46848,0.4392,0.32208,0.25376
0.18544,-0.183,0.18056,0.08784,-0.00488,0.09516,-0.06832,0.31232,0.46848,0.44408,0.33672,0.2684
0.18544,-0.18056,0.17568,0.08296,-0.00976,0.0976,-0.0732,0.28792,0.45384,0.4392,0.3416,0.2684
0.16592,-0.1708,0.17568,0.09272,0.00976,0.07808,-0.05856,0.26352,0.42944,0.4148,0.32696,0.25864
0.15616,-0.1586,0.16104,0.08296,0.00488,0.07564,-0.0488,0.244,0.40016,0.39528,0.30744,0.24888
0.13664,-0.14396,0.15128,0.08296,0.01464,0.061,-0.0488,0.22448,0.366,0.366,0.27328,0.21472
0.11224,-0.12444,0.13664,0.08052,0.0244,0.04392,-0.03904,0.19032,0.3172,0.32208,0.23912,0.18544
0.10248,-0.11224,0.122,0.07076,0.01952,0.04148,-0.03904,0.16104,0.27328,0.28792,0.21472,0.1708
0.0732,-0.0854,0.0976,0.061,0.0244,0.0244,-0.0244,0.1464,0.244,0.25376,0.17568,0.14152
0.05368,-0.05612,0.05856,0.03172,0.00488,0.0244,-0.01464,0.122,0.1952,0.20496,0.13664,0.11224
0.03416,-0.03416,0.03416,0.01708,0,0.01708,-0.00488,0.0976,0.1708,0.1708,0.10736,0.09272
0.01952,-0.01708,0.01464,0.00488,-0.00488,0.0122,0.00976,0.07808,0.1464,0.13664,0.08296,0.06344
0,0.00488,-0.00976,-0.00976,-0.00976,0.00488,0.01464,0.06344,0.11224,0.10736,0.05856,0.0488
-0.00976,0.0244,-0.03904,-0.03416,-0.02928,0.00976,0.0244,0.05856,0.08296,0.0732,0.0244,0.0244
-0.01464,0.04148,-0.06832,-0.061,-0.05368,0.01952,0.0244,0.04392,0.06832,0.05368,0,0.00488
-0.03904,0.05612,-0.0732,-0.05368,-0.03416,-0.00244,0.02928,0.02928,0.04392,0.03416,-0.00488,0
-0.05368,0.06344,-0.0732,-0.04636,-0.01952,-0.01708,0.03416,0.0244,0.0244,0.01464,-0.01952,-0.01464
-0.06832,0.07564,-0.08296,-0.0488,-0.01464,-0.02684,0.03904,0.00976,0.00976,-0.00976,-0.03904,-0.02928
-0.07808,0.08784,-0.0976,-0.05856,-0.01952,-0.02928,0.03904,0.00488,-0.00976,-0.01464,-0.05856,-0.03904
-0.09272,0.10492,-0.11712,-0.07076,-0.0244,-0.03416,0.04392,0.00976,-0.00976,-0.01464,-0.06344,-0.03416
-0.09272,0.1098,-0.12688,-0.08052,-0.03416,-0.02928,0.04392,0.00488,-0.01952,-0.0244,-0.06832,-0.03904
-0.10248,0.12444,-0.1464,-0.09516,-0.04392,-0.02928,0.04392,0.00488,-0.0244,-0.0244,-0.06344,-0.03904
-0.0976,0.122,-0.1464,-0.0976,-0.0488,-0.0244,0.04392,0.00488,-0.02928,-0.02928,-0.0732,-0.04392
-0.0976,0.122,-0.1464,-0.0976,-0.0488,-0.0244,0.0488,0,-0.02928,-0.03904,-0.06832,-0.03904
-0.0976,0.122,-0.1464,-0.0976,-0.0488,-0.0244,0.05368,0,-0.03416,-0.03904,-0.06344,-0.03904
-0.09272,0.12444,-0.15616,-0.1098,-0.06344,-0.01464,0.0488,0,-0.03416,-0.03416,-0.06344,-0.03904
-0.09272,0.12932,-0.16592,-0.11956,-0.0732,-0.00976,0.0488,-0.00488,-0.03416,-0.0244,-0.0732,-0.03904
-0.10248,0.12444,-0.1464,-0.09516,-0.04392,-0.02928,0.0488,-0.00488,-0.03904,-0.03416,-0.0732,-0.03904
-0.10248,0.12688,-0.15128,-0.10004,-0.0488,-0.02684,0.0488,-0.00488,-0.04392,-0.03416,-0.0732,-0.03904
-0.10248,0.12932,-0.15616,-0.10492,-0.05368,-0.0244,0.05856,-0.00488,-0.0488,-0.03904,-0.06344,-0.03416
-0.10248,0.12688,-0.15128,-0.10004,-0.0488,-0.02684,0.05856,-0.00488,-0.0488,-0.03904,-0.06344,-0.03416
-0.11224,0.1342,-0.15616,-0.10004,-0.04392,-0.03416,0.05856,-0.00488,-0.0488,-0.03904,-0.06832,-0.04392
-0.11224,0.12932,-0.1464,-0.09028,-0.03416,-0.03904,0.05856,-0.00488,-0.0488,-0.03904,-0.07808,-0.03904
-0.10248,0.11956,-0.13664,-0.0854,-0.03416,-0.03416,0.05856,-0.00488,-0.04392,-0.0488,-0.07808,-0.03904
-0.10248,0.12444,-0.1464,-0.09516,-0.04392,-0.02928,0.05856,-0.00488,-0.03904,-0.0488,-0.07808,-0.03904
-0.09272,0.11224,-0.13176,-0.0854,-0.03904,-0.02684,0.0488,-0.00488,-0.0488,-0.05368,-0.07808,-0.04392
-0.0976,0.11956,-0.14152,-0.09272,-0.04392,-0.02684,0.0488,-0.00488,-0.04392,-0.05368,-0.08296,-0.04392
-0.0976,0.122,-0.1464,-0.0976,-0.0488,-0.0244,0.06344,0,-0.03416,-0.04392,-0.07808,-0.04392
-0.0976,0.11956,-0.14152,-0.09272,-0.04392,-0.02684,0.06344,0.00976,-0.03416,-0.04392,-0.07808,-0.04392
-0.0976,0.11956,-0.14152,-0.09272,-0.04392,-0.02684,0.06344,0.00488,-0.02928,-0.03416,-0.07808,-0.0488
-0.0976,0.11956,-0.14152,-0.09272,-0.04392,-0.02684,0.06832,0.00488,-0.02928,-0.03416,-0.06832,-0.0488
-0.0976,0.11468,-0.13176,-0.08296,-0.03416,-0.03172,0.06832,0.00488,-0.0244,-0.04392,-0.08296,-0.04392
-0.0976,0.1098,-0.122,-0.0732,-0.0244,-0.0366,0.06832,0.00976,-0.01952,-0.0488,-0.07808,-0.04392
-0.08784,0.10736,-0.12688,-0.08296,-0.03904,-0.0244,0.06344,0.00976,-0.0244,-0.03904,-0.0732,-0.03416
-0.08784,0.10736,-0.12688,-0.08296,-0.03904,-0.0244,0.05856,0.01464,-0.0244,-0.03904,-0.0732,-0.03416
-0.09272,0.10736,-0.122,-0.07564,-0.02928,-0.03172,0.06832,0.01464,-0.01464,-0.03904,-0.06344,-0.03416
-0.10736,0.11468,-0.122,-0.06832,-0.01464,-0.04636,0.06344,0.01464,-0.01464,-0.03904,-0.06344,-0.03416
-0.10736,0.11712,-0.12688,-0.0732,-0.01952,-0.04392,0.06344,0.0244,-0.01464,-0.03416,-0.06832,-0.02928
-0.10736,0.11468,-0.122,-0.06832,-0.01464,-0.04636,0.06344,0.0244,-0.00976,-0.03416,-0.06344,-0.02928
-0.10736,0.11956,-0.13176,-0.07808,-0.0244,-0.04148,0.06344,0.01952,0,-0.01952,-0.05368,-0.02928
-0.10736,0.11956,-0.13176,-0.07808,-0.0244,-0.04148,0.06344,0.01952,0.00488,-0.01952,-0.05856,-0.02928
-0.10736,0.12444,-0.14152,-0.08784,-0.03416,-0.0366,0.06832,0.0244,0,-0.01952,-0.05368,-0.01464
-0.10248,0.11956,-0.13664,-0.0854,-0.03416,-0.03416,0.06344,0.01952,0,-0.01952,-0.03904,-0.01464
-0.0976,0.10736,-0.11712,-0.06832,-0.01952,-0.03904,0.05368,0.01952,-0.00976,-0.01952,-0.0488,-0.0244
-0.09272,0.0976,-0.10248,-0.05612,-0.00976,-0.04148,0.0488,0.01464,-0.00976,-0.01464,-0.04392,-0.01952
-0.08784,0.10004,-0.11224,-0.06832,-0.0244,-0.03172,0.05856,0.0244,-0.00488,-0.00976,-0.03416,-0.01952
-0.08784,0.0976,-0.10736,-0.06344,-0.01952,-0.03416,0.06344,0.0244,-0.00488,-0.00976,-0.03416,-0.01952
-0.08784,0.0976,-0.10736,-0.06344,-0.01952,-0.03416,0.05856,0.0244,-0.00488,-0.00976,-0.03416,-0.00976
-0.08784,0.0976,-0.10736,-0.06344,-0.01952,-0.03416,0.05856,0.0244,-0.00488,-0.00488,-0.02928,-0.00976
-0.08296,0.09516,-0.10736,-0.06588,-0.0244,-0.02928,0.05856,0.0244,-0.00488,0,-0.02928,-0.01464
-0.08296,0.09272,-0.10248,-0.061,-0.01952,-0.03172,0.05368,0.01952,-0.00976,0,-0.02928,-0.01464
-0.09272,0.09516,-0.0976,-0.05124,-0.00488,-0.04392,0.04392,0.01952,-0.01952,-0.00976,-0.02928,-0.01464
-0.09272,0.10492,-0.11712,-0.07076,-0.0244,-0.03416,0.04392,0.01464,-0.01952,-0.01464,-0.0244,-0.01464
-0.08784,0.10736,-0.12688,-0.08296,-0.03904,-0.0244,0.05368,0.01464,-0.01464,-0.00976,-0.02928,-0.01464
-0.08784,0.10736,-0.12688,-0.08296,-0.03904,-0.0244,0.05368,0.01464,-0.01464,-0.00976,-0.02928,-0.01464
-0.07808,0.0976,-0.11712,-0.07808,-0.03904,-0.01952,0.0488,0.00976,-0.0244,-0.00976,-0.01952,-0.01464
-0.08296,0.10004,-0.11712,-0.07564,-0.03416,-0.0244,0.0488,0.00976,-0.02928,-0.00976,-0.0244,-0.01952
-0.09272,0.10248,-0.11224,-0.06588,-0.01952,-0.0366,0.0488,0.00976,-0.02928,-0.00976,-0.02928,-0.01464
-0.10248,0.11224,-0.122,-0.07076,-0.01952,-0.04148,0.05368,0.00976,-0.03416,-0.00976,-0.0244,-0.01464
-0.09272,0.10004,-0.10736,-0.061,-0.01464,-0.03904,0.05368,0,-0.03416,-0.01464,-0.03416,-0.0244
-0.08296,0.09516,-0.10736,-0.06588,-0.0244,-0.02928,0.05368,0,-0.03416,-0.01464,-0.03416,-0.0244
-0.0976,0.10248,-0.10736,-0.05856,-0.00976,-0.04392,0.06344,0.00488,-0.02928,-0.01464,-0.03904,-0.01952
-0.0976,0.10004,-0.10248,-0.05368,-0.00488,-0.04636,0.06344,0.00488,-0.02928,-0.01952,-0.03904,-0.01952
-0.10248,0.10736,-0.11224,-0.061,-0.00976,-0.04636,0.05368,0.00488,-0.03904,-0.01952,-0.04392,-0.02928
-0.10248,0.10736,-0.11224,-0.061,-0.00976,-0.04636,0.05368,0.00488,-0.03904,-0.01952,-0.03416,-0.02928
-0.10248,0.10736,-0.11224,-0.061,-0.00976,-0.04636,0.0488,0,-0.0488,-0.01952,-0.04392,-0.03416
-0.10248,0.10736,-0.11224,-0.061,-0.00976,-0.04636,0.0488,-0.00488,-0.0488,-0.01952,-0.04392,-0.03416
-0.10248,0.10248,-0.10248,-0.05124,0,-0.05124,0.0488,0,-0.0488,-0.01952,-0.03416,-0.03416
-0.10248,0.10492,-0.10736,-0.05612,-0.00488,-0.0488,0.0488,0,-0.05368,-0.01952,-0.03416,-0.03416
-0.09272,0.10492,-0.11712,-0.07076,-0.0244,-0.03416,0.05856,0.00976,-0.04392,-0.00976,-0.03416,-0.02928
-0.09272,0.10248,-0.11224,-0.06588,-0.01952,-0.0366,0.05856,0.00488,-0.0488,-0.00976,-0.03416,-0.02928
-0.09272,0.10736,-0.122,-0.07564,-0.02928,-0.03172,0.06344,0.00488,-0.04392,-0.0244,-0.02928,-0.01952
-0.08784,0.10736,-0.12688,-0.08296,-0.03904,-0.0244,0.06832,0.00488,-0.03904,-0.01952,-0.02928,-0.0244
-0.0976,0.1098,-0.122,-0.0732,-0.0244,-0.0366,0.06344,0.00488,-0.05856,-0.01952,-0.04392,-0.0244
-0.0976,0.10492,-0.11224,-0.06344,-0.01464,-0.04148,0.05856,0,-0.05368,-0.01952,-0.03904,-0.0244
-0.0976,0.11468,-0.13176,-0.08296,-0.03416,-0.03172,0.05368,0,-0.05368,-0.01952,-0.03904,-0.0244
-0.0976,0.11712,-0.13664,-0.08784,-0.03904,-0.02928,0.05856,0,-0.05368,-0.01952,-0.03904,-0.0244
-0.0976,0.11956,-0.14152,-0.09272,-0.04392,-0.02684,0.05856,0.00976,-0.05856,-0.01464,-0.02928,-0.0244
-0.0976,0.11224,-0.12688,-0.07808,-0.02928,-0.03416,0.05368,0.00976,-0.05368,-0.01464,-0.02928,-0.01952
-0.09272,0.09028,-0.08784,-0.04148,0.00488,-0.0488,0.04392,0,-0.05368,-0.00976,-0.0244,-0.01952
-0.09272,0.06588,-0.03904,0.00732,0.05368,-0.0732,0.0488,-0.00976,-0.04392,-0.00976,-0.01952,-0.01952
-0.08784,0.07808,-0.06832,-0.0244,0.01952,-0.05368,0.06344,0.00976,-0.01464,0.00976,0,0.00488
-0.08296,0.0732,-0.06344,-0.02196,0.01952,-0.05124,0.07808,0.00976,-0.00488,0.0244,0.00976,0.00488
-0.07808,0.06344,-0.0488,-0.00976,0.02928,-0.05368,0.06832,0,-0.00976,0.01952,0.00976,-0.00976
-0.07808,0.06344,-0.0488,-0.00976,0.02928,-0.05368,0.06832,0,-0.00976,0.01952,0.00976,-0.00976
-0.08784,0.06832,-0.0488,-0.00488,0.03904,-0.06344,0.06344,-0.01464,-0.01952,0.00976,0.00976,-0.00976
-0.08784,0.06832,-0.0488,-0.00488,0.03904,-0.06344,0.0488,-0.0244,-0.01952,0.01464,0.00976,-0.00488
-0.07808,0.0488,-0.01952,0.01952,0.05856,-0.06832,0.0244,-0.03904,-0.01952,0.01952,0.01464,0
-0.06344,0.0366,-0.00976,0.02196,0.05368,-0.05856,-0.00488,-0.0488,-0.0244,0.02928,0.01952,0.00976
-0.06344,0.03416,-0.00488,0.02684,0.05856,-0.061,-0.0244,-0.0488,-0.03416,0.02928,0.00976,0.01952
-0.0488,0.0244,0,0.0244,0.0488,-0.0488,-0.03416,-0.05368,-0.03904,0.03416,0.01952,0.0244
-0.05856,0.03904,-0.01952,0.00976,0.03904,-0.0488,-0.0244,-0.03904,-0.02928,0.03416,0.02928,0.0244
-0.04392,0.02928,-0.01464,0.00732,0.02928,-0.0366,-0.00976,-0.01952,-0.01952,0.03416,0.03416,0.02928
-0.02928,0.02684,-0.0244,-0.00976,0.00488,-0.01708,-0.00488,-0.01952,-0.02928,0.03904,0.03904,0.0244
-0.02928,0.03172,-0.03416,-0.01952,-0.00488,-0.0122,-0.00488,-0.01952,-0.03416,0.03416,0.03904,0.01952
-0.03416,0.03904,-0.04392,-0.02684,-0.00976,-0.0122,-0.00488,-0.01952,-0.04392,0.02928,0.0244,0.00976
-0.03904,0.05856,-0.07808,-0.05856,-0.03904,0,0,-0.01952,-0.05368,0.00976,0.01464,0
-0.03904,0.061,-0.08296,-0.06344,-0.04392,0.00244,0.01464,-0.01952,-0.05368,-0.00488,0.00488,-0.00488
-0.03904,0.06588,-0.09272,-0.0732,-0.05368,0.00732,0.01464,-0.02928,-0.06344,-0.00976,0.00488,0.00488
-0.03904,0.06344,-0.08784,-0.06832,-0.0488,0.00488,0.01464,-0.01952,-0.0732,-0.00976,-0.00488,0
-0.0488,0.06588,-0.08296,-0.05856,-0.03416,-0.00732,0.0244,-0.01464,-0.07808,-0.01952,-0.00976,0
-0.06344,0.07564,-0.08784,-0.05612,-0.0244,-0.01952,0.02928,-0.01952,-0.0732,-0.01464,-0.00976,-0.00488
-0.08296,0.08784,-0.09272,-0.05124,-0.00976,-0.0366,0.03904,-0.01464,-0.05856,-0.00976,-0.00976,-0.01464
-0.0976,0.09516,-0.09272,-0.04392,0.00488,-0.05124,0.05368,-0.01464,-0.05856,-0.00488,-0.00976,-0.01952
-0.10736,0.11224,-0.11712,-0.06344,-0.00976,-0.0488,0.06344,-0.00976,-0.05856,-0.00976,-0.00976,-0.02928
-0.10736,0.122,-0.13664,-0.08296,-0.02928,-0.03904,0.06344,-0.00976,-0.07808,-0.02928,-0.0244,-0.03904
-0.10736,0.13176,-0.15616,-0.10248,-0.0488,-0.02928,0.06344,-0.00976,-0.08784,-0.03904,-0.03904,-0.0488
-0.10248,0.12932,-0.15616,-0.10492,-0.05368,-0.0244,0.06832,-0.00488,-0.09272,-0.0488,-0.04392,-0.05368
-0.10248,0.12932,-0.15616,-0.10492,-0.05368,-0.0244,0.06832,-0.00488,-0.10248,-0.06344,-0.05368,-0.05856
-0.11224,0.13664,-0.16104,-0.10492,-0.0488,-0.03172,0.0732,0,-0.09272,-0.06344,-0.04392,-0.05368
-0.11712,0.14396,-0.1708,-0.11224,-0.05368,-0.03172,0.0732,-0.00488,-0.10248,-0.05856,-0.0488,-0.05368
-0.12688,0.1586,-0.19032,-0.12688,-0.06344,-0.03172,0.0732,-0.01464,-0.0976,-0.05368,-0.0488,-0.06344
-0.12688,0.1586,-0.19032,-0.12688,-0.06344,-0.03172,0.0732,-0.00976,-0.0976,-0.05368,-0.0488,-0.06832
-0.11712,0.15372,-0.19032,-0.13176,-0.0732,-0.02196,0.0732,0,-0.0976,-0.05856,-0.05368,-0.05856
-0.11712,0.15128,-0.18544,-0.12688,-0.06832,-0.0244,0.0732,0,-0.0976,-0.05856,-0.05368,-0.05856
-0.11224,0.15372,-0.1952,-0.13908,-0.08296,-0.01464,0.07808,0,-0.09272,-0.0488,-0.04392,-0.05856
-0.11224,0.15128,-0.19032,-0.1342,-0.07808,-0.01708,0.07808,0,-0.09272,-0.05368,-0.0488,-0.05856
-0.11224,0.15372,-0.1952,-0.13908,-0.08296,-0.01464,0.07808,0.01464,-0.10248,-0.06344,-0.0488,-0.05856
-0.11224,0.15128,-0.19032,-0.1342,-0.07808,-0.01708,0.07808,0.01464,-0.10248,-0.06344,-0.0488,-0.05856
-0.122,0.15616,-0.19032,-0.12932,-0.06832,-0.02684,0.08296,0.00488,-0.10248,-0.05856,-0.0488,-0.05856
-0.122,0.15616,-0.19032,-0.12932,-0.06832,-0.02684,0.08296,0,-0.10248,-0.05856,-0.0488,-0.05856
-0.13176,0.1586,-0.18544,-0.11956,-0.05368,-0.03904,0.06832,0,-0.10248,-0.06344,-0.05856,-0.06832
-0.13176,0.15372,-0.17568,-0.1098,-0.04392,-0.04392,0.06832,0,-0.10248,-0.06344,-0.05368,-0.06832
-0.13176,0.15128,-0.1708,-0.10492,-0.03904,-0.04636,0.06832,-0.00488,-0.0976,-0.05368,-0.05368,-0.06344
-0.122,0.14396,-0.16592,-0.10492,-0.04392,-0.03904,0.08296,0.0244,-0.07808,-0.06344,-0.06832,-0.0732
-0.14152,0.17324,-0.20496,-0.1342,-0.06344,-0.03904,0.1464,0.08296,-0.00976,-0.06344,-0.08784,-0.09272
-0.18056,0.18544,-0.19032,-0.10004,-0.00976,-0.0854,0.23912,0.16104,0.13664,-0.02928,-0.10248,-0.11712
-0.1952,0.15616,-0.11712,-0.01952,0.07808,-0.13664,0.31232,0.24888,0.32208,0.04392,-0.07808,-0.122
-0.18056,0.11468,-0.0488,0.04148,0.13176,-0.15616,0.30256,0.32208,0.47336,0.12688,-0.01952,-0.08784
-0.12688,0.02928,0.06832,0.13176,0.1952,-0.16104,0.23424,0.30744,0.48312,0.22448,0.10248,0
0.03904,-0.13664,0.23424,0.21472,0.1952,-0.07808,0.07808,0.16592,0.42456,0.43432,0.35136,0.18056
0.24888,-0.30012,0.35136,0.22692,0.10248,0.0732,-0.15128,-0.04392,0.30256,0.67344,0.64904,0.39528
0.44408,-0.51728,0.59048,0.36844,0.1464,0.14884,-0.4148,-0.30256,0.08296,1.00528,1.05896,0.69784
0.69296,-0.8296,0.96624,0.61976,0.27328,0.20984,-0.77104,-0.5856,-0.18544,1.33712,1.464,1.0004
0.89304,-1.03456,1.17608,0.72956,0.28304,0.305,-1.0004,-0.76128,-0.55632,1.5372,1.7812,1.23952
1.03456,-1.07848,1.1224,0.60512,0.08784,0.47336,-1.01016,-0.69784,-0.67832,1.60064,1.87392,1.32248
1.03944,-0.85888,0.67832,0.1586,-0.36112,0.70028,-0.80032,-0.46848,-0.59048,1.38592,1.53232,1.07848
0.82472,-0.59292,0.36112,-0.05124,-0.4636,0.64416,-0.67832,-0.5368,-0.81496,0.86376,0.97112,0.7564
0.55144,-0.305,0.05856,-0.21716,-0.49288,0.52216,-0.488,-0.61976,-1.06872,0.244,0.44896,0.43432
0.18544,0.00488,-0.1952,-0.28792,-0.38064,0.28304,-0.3172,-0.77104,-1.44448,-0.59048,-0.10736,0.15616
0.01464,0.11956,-0.25376,-0.26108,-0.2684,0.14152,-0.1708,-0.50752,-0.99064,-0.46848,-0.17568,0.0244
-0.00488,0.0854,-0.16592,-0.16348,-0.16104,0.07808,-0.16592,-0.35624,-0.6588,-0.28304,-0.10736,0.01952
-0.02928,0.09028,-0.15128,-0.13664,-0.122,0.04636,-0.06344,-0.20496,-0.40504,-0.15128,-0.04392,0.00976
-0.03904,0.10492,-0.1708,-0.15128,-0.13176,0.04636,0.00488,-0.0976,-0.25376,-0.11712,-0.02928,-0.00976
-0.06344,0.12444,-0.18544,-0.15372,-0.122,0.02928,0.05368,-0.00488,-0.13664,-0.09272,-0.02928,-0.01952
-0.10248,0.13908,-0.17568,-0.12444,-0.0732,-0.01464,0.06344,0,-0.09272,-0.0732,-0.03904,-0.03904
-0.09272,0.13908,-0.18544,-0.13908,-0.09272,0,0.09272,0.02928,-0.0732,-0.06344,-0.04392,-0.04392
-0.0976,0.14152,-0.18544,-0.13664,-0.08784,-0.00488,0.0976,0.03416,-0.05368,-0.05856,-0.03904,-0.0488
-0.10736,0.14152,-0.17568,-0.122,-0.06832,-0.01952,0.10248,0.03416,-0.0488,-0.05856,-0.0488,-0.05856
-0.10736,0.13664,-0.16592,-0.11224,-0.05856,-0.0244,0.08784,0.02928,-0.04392,-0.05856,-0.05368,-0.06832
-0.10248,0.13908,-0.17568,-0.12444,-0.0732,-0.01464,0.11224,0.03904,-0.02928,-0.05856,-0.0488,-0.06832
-0.10248,0.14396,-0.18544,-0.1342,-0.08296,-0.00976,0.12688,0.06344,-0.01952,-0.05368,-0.0488,-0.0732
-0.0976,0.14152,-0.18544,-0.13664,-0.08784,-0.00488,0.122,0.05856,-0.01952,-0.05368,-0.0488,-0.06344
-0.0976,0.14152,-0.18544,-0.13664,-0.08784,-0.00488,0.11712,0.0488,-0.00976,-0.04392,-0.0488,-0.06344
-0.09272,0.13664,-0.18056,-0.1342,-0.08784,-0.00244,0.10736,0.05368,-0.00488,-0.05368,-0.04392,-0.06344
-0.09272,0.12932,-0.16592,-0.11956,-0.0732,-0.00976,0.10736,0.05368,0,-0.05368,-0.04392,-0.06344
-0.09272,0.1342,-0.17568,-0.12932,-0.08296,-0.00488,0.11712,0.06832,0,-0.04392,-0.03416,-0.06344
-0.09272,0.12932,-0.16592,-0.11956,-0.0732,-0.00976,0.11712,0.06832,0.00488,-0.04392,-0.03416,-0.06344
-0.08784,0.12688,-0.16592,-0.122,-0.07808,-0.00488,0.10736,0.05856,0,-0.03904,-0.04392,-0.0732
-0.08296,0.11224,-0.14152,-0.10004,-0.05856,-0.0122,0.10736,0.06344,0,-0.03904,-0.03904,-0.0732
-0.08296,0.11712,-0.15128,-0.1098,-0.06832,-0.00732,0.10736,0.0732,0.00976,-0.03416,-0.03904,-0.05856
-0.07808,0.122,-0.16592,-0.12688,-0.08784,0.00488,0.10248,0.07808,0.01464,-0.03416,-0.03904,-0.05856
-0.08784,0.12688,-0.16592,-0.122,-0.07808,-0.00488,0.11224,0.0732,0.02928,-0.0244,-0.03904,-0.05856
-0.08784,0.12932,-0.1708,-0.12688,-0.08296,-0.00244,0.11224,0.07808,0.02928,-0.01952,-0.03416,-0.05856
-0.07808,0.12932,-0.18056,-0.14152,-0.10248,0.0122,0.10736,0.0732,0.01952,-0.02928,-0.03904,-0.05856
-0.07808,0.12688,-0.17568,-0.13664,-0.0976,0.00976,0.10248,0.08296,0.02928,-0.02928,-0.03416,-0.05856
-0.08296,0.12444,-0.16592,-0.12444,-0.08296,0,0.10248,0.0732,0.02928,-0.0244,-0.03416,-0.05856
-0.07808,0.122,-0.16592,-0.12688,-0.08784,0.00488,0.10248,0.07808,0.04392,-0.0244,-0.0244,-0.05368
-0.07808,0.12688,-0.17568,-0.13664,-0.0976,0.00976,0.10248,0.08296,0.05368,-0.00976,-0.0244,-0.05368
-0.07808,0.12444,-0.1708,-0.13176,-0.09272,0.00732,0.10248,0.08784,0.06344,-0.00976,-0.0244,-0.05368
-0.0732,0.11956,-0.16592,-0.12932,-0.09272,0.00976,0.10248,0.0976,0.06832,-0.00976,-0.01952,-0.0488
-0.0732,0.11956,-0.16592,-0.12932,-0.09272,0.00976,0.10248,0.10248,0.06832,-0.00976,-0.01952,-0.0488
-0.07808,0.11468,-0.15128,-0.11224,-0.0732,-0.00244,0.0976,0.11224,0.08296,0.00976,-0.00976,-0.04392
-0.0732,0.11224,-0.15128,-0.11468,-0.07808,0.00244,0.0976,0.122,0.08784,0.00976,-0.00976,-0.04392
-0.06344,0.10248,-0.14152,-0.1098,-0.07808,0.00732,0.0976,0.12688,0.08784,0.00488,0,-0.03416
-0.05856,0.09516,-0.13176,-0.10248,-0.0732,0.00732,0.0976,0.12688,0.09272,0.00976,0.00488,-0.03416
-0.05368,0.0976,-0.14152,-0.11468,-0.08784,0.01708,0.0976,0.14152,0.11224,0.0244,0.00976,-0.02928
-0.0488,0.09516,-0.14152,-0.11712,-0.09272,0.02196,0.0976,0.15616,0.13664,0.03416,0.01952,-0.02928
-0.04392,0.08296,-0.122,-0.10004,-0.07808,0.01708,0.08784,0.15616,0.13664,0.02928,0.01952,-0.03416
-0.03904,0.07564,-0.11224,-0.09272,-0.0732,0.01708,0.08784,0.16104,0.15128,0.04392,0.01952,-0.02928
-0.02928,0.06588,-0.10248,-0.08784,-0.0732,0.02196,0.08784,0.18056,0.1708,0.05856,0.03416,-0.01464
-0.0244,0.06344,-0.10248,-0.09028,-0.07808,0.02684,0.08784,0.20008,0.20008,0.06832,0.0488,-0.00488
0,0.05124,-0.10248,-0.10248,-0.10248,0.05124,0.08296,0.20984,0.20984,0.07808,0.05368,0
0.00976,0.04148,-0.09272,-0.0976,-0.10248,0.05612,0.08296,0.22936,0.23424,0.0976,0.06832,0.00976
0.0244,0.02196,-0.06832,-0.08052,-0.09272,0.05856,0.07808,0.22936,0.25376,0.11224,0.08784,0.01952
0.03416,0.00488,-0.04392,-0.061,-0.07808,0.05612,0.06832,0.244,0.27816,0.13176,0.10736,0.02928
0.0488,-0.01464,-0.01952,-0.04392,-0.06832,0.05856,0.05368,0.25864,0.30744,0.16104,0.11224,0.02928
0.06344,-0.03172,0,-0.03172,-0.06344,0.06344,0.0488,0.27816,0.32696,0.18544,0.13664,0.04392
0.08784,-0.04392,0,-0.04392,-0.08784,0.08784,0.03904,0.2928,0.35624,0.22448,0.1708,0.08296
0.0976,-0.061,0.0244,-0.0244,-0.0732,0.0854,0.03416,0.30744,0.38064,0.24888,0.20496,0.10248
0.11224,-0.07564,0.03904,-0.01708,-0.0732,0.09272,0.01952,0.3172,0.3904,0.27816,0.22448,0.122
0.12688,-0.09516,0.06344,0,-0.06344,0.09516,0.00976,0.32208,0.40504,0.30744,0.25376,0.1464
0.15128,-0.13176,0.11224,0.0366,-0.03904,0.09516,-0.00488,0.32696,0.42456,0.34648,0.28792,0.16592
0.1708,-0.1464,0.122,0.0366,-0.0488,0.1098,-0.01464,0.32696,0.4392,0.37088,0.3172,0.18544
0.16592,-0.14884,0.13176,0.0488,-0.03416,0.10004,-0.02928,0.33184,0.44896,0.3904,0.3416,0.20008
0.1708,-0.15372,0.13664,0.05124,-0.03416,0.10248,-0.03904,0.3416,0.45384,0.4148,0.366,0.2196
0.17568,-0.16104,0.1464,0.05856,-0.02928,0.10248,-0.0488,0.32696,0.45384,0.42944,0.37576,0.22936
0.18056,-0.17568,0.1708,0.08052,-0.00976,0.09516,-0.05856,0.3172,0.45384,0.4392,0.3904,0.23424
0.17568,-0.17324,0.1708,0.08296,-0.00488,0.09028,-0.05368,0.31232,0.45384,0.44896,0.40504,0.24888
0.18056,-0.18056,0.18056,0.09028,0,0.09028,-0.05856,0.30256,0.44896,0.45872,0.40992,0.25376
0.20496,-0.20252,0.20008,0.0976,-0.00488,0.10492,-0.0488,0.2928,0.4392,0.4636,0.4148,0.24888
0.21472,-0.20984,0.20496,0.0976,-0.00976,0.11224,-0.05368,0.2684,0.42456,0.45872,0.41968,0.24888
0.1952,-0.1952,0.1952,0.0976,0,0.0976,-0.0488,0.244,0.3904,0.42456,0.39528,0.23912
0.18544,-0.183,0.18056,0.08784,-0.00488,0.09516,-0.03904,0.22448,0.35136,0.40504,0.37576,0.22936
0.15616,-0.15372,0.15128,0.0732,-0.00488,0.08052,-0.01952,0.20496,0.32696,0.37576,0.3416,0.20496
0.122,-0.11956,0.11712,0.05612,-0.00488,0.06344,-0.00976,0.1708,0.28792,0.32208,0.30744,0.17568
0.11224,-0.10248,0.09272,0.0366,-0.01952,0.06588,-0.00976,0.14152,0.244,0.27816,0.27328,0.15128
0.08296,-0.07564,0.06832,0.02684,-0.01464,0.0488,0.00488,0.12688,0.20496,0.244,0.23424,0.122
0.06344,-0.05124,0.03904,0.00732,-0.0244,0.04392,0.01464,0.11224,0.16592,0.1952,0.1952,0.10248
0.04392,-0.02928,0.01464,-0.00732,-0.02928,0.0366,0.0244,0.0976,0.14152,0.1708,0.16592,0.08296
0.01952,0.00244,-0.0244,-0.03416,-0.04392,0.03172,0.0488,0.07808,0.11712,0.1464,0.15128,0.06344
0,0.03416,-0.06832,-0.06832,-0.06832,0.03416,0.05368,0.06344,0.08296,0.11712,0.12688,0.0488
-0.00976,0.04392,-0.07808,-0.0732,-0.06832,0.02928,0.05368,0.05856,0.06344,0.08296,0.09272,0.0244
-0.01464,0.05124,-0.08784,-0.08052,-0.0732,0.02928,0.05368,0.04392,0.0488,0.06344,0.06832,0.00488
-0.01952,0.05612,-0.09272,-0.08296,-0.0732,0.02684,0.0488,0.01952,0.01464,0.03416,0.05368,-0.00976
-0.0244,0.05856,-0.09272,-0.08052,-0.06832,0.02196,0.05368,0.01464,-0.00488,0.01464,0.03904,-0.0244
-0.0488,0.0854,-0.122,-0.0976,-0.0732,0.0122,0.0488,0.01952,-0.00976,0.00976,0.02928,-0.02928
-0.05856,0.10248,-0.1464,-0.11712,-0.08784,0.01464,0.0488,0.01464,-0.01952,0.00488,0.01952,-0.03904
-0.0732,0.10492,-0.13664,-0.10004,-0.06344,-0.00488,0.04392,0,-0.02928,-0.01464,0.00488,-0.05368
-0.08296,0.1098,-0.13664,-0.09516,-0.05368,-0.01464,0.04392,-0.01464,-0.03904,-0.0244,0,-0.05856
-0.08296,0.11468,-0.1464,-0.10492,-0.06344,-0.00976,0.05368,-0.00488,-0.03416,-0.01464,0.00488,-0.0488
-0.06832,0.10736,-0.1464,-0.11224,-0.07808,0.00488,0.06344,0.00488,-0.03904,-0.01952,-0.00488,-0.04392
-0.05856,0.0976,-0.13664,-0.10736,-0.07808,0.00976,0.07808,0,-0.03904,-0.01952,0,-0.03904
-0.05856,0.09272,-0.12688,-0.0976,-0.06832,0.00488,0.08296,0,-0.04392,-0.01952,0.01464,-0.03904
-0.06344,0.09028,-0.11712,-0.0854,-0.05368,-0.00488,0.07808,0,-0.04392,-0.03416,0.00488,-0.0488
-0.06344,0.09516,-0.12688,-0.09516,-0.06344,0,0.07808,-0.00488,-0.04392,-0.03416,-0.01464,-0.0488
-0.06344,0.10004,-0.13664,-0.10492,-0.0732,0.00488,0.07808,-0.00488,-0.0488,-0.0244,-0.00488,-0.0488
-0.06344,0.10736,-0.15128,-0.11956,-0.08784,0.0122,0.07808,-0.00488,-0.05368,-0.0244,-0.00488,-0.0488
-0.06344,0.10004,-0.13664,-0.10492,-0.0732,0.00488,0.06832,-0.00488,-0.0488,-0.02928,-0.00488,-0.04392
-0.06344,0.09272,-0.122,-0.09028,-0.05856,-0.00244,0.06832,-0.00488,-0.0488,-0.02928,-0.00488,-0.04392
-0.0732,0.10492,-0.13664,-0.10004,-0.06344,-0.00488,0.07808,0.00488,-0.0488,-0.01952,0.00976,-0.05368
-0.0732,0.10492,-0.13664,-0.10004,-0.06344,-0.00488,0.07808,0.00488,-0.0488,-0.01952,0,-0.0488
-0.06344,0.10004,-0.13664,-0.10492,-0.0732,0.00488,0.06832,-0.00488,-0.04392,-0.01952,0,-0.0488
-0.06344,0.10492,-0.1464,-0.11468,-0.08296,0.00976,0.06832,-0.00488,-0.03904,-0.01952,0,-0.0488
-0.0732,0.10248,-0.13176,-0.09516,-0.05856,-0.00732,0.07808,-0.00488,-0.0488,-0.0244,-0.00976,-0.05368
-0.07808,0.1098,-0.14152,-0.10248,-0.06344,-0.00732,0.07808,-0.00488,-0.04392,-0.0244,-0.01464,-0.05368
-0.07808,0.10736,-0.13664,-0.0976,-0.05856,-0.00976,0.08296,0.00976,-0.03416,-0.0244,-0.00976,-0.05368
-0.07808,0.10492,-0.13176,-0.09272,-0.05368,-0.0122,0.08296,0.01952,-0.03416,-0.0244,0,-0.05368
-0.06832,0.10492,-0.14152,-0.10736,-0.0732,0.00244,0.0732,0.00488,-0.02928,-0.03416,-0.00976,-0.05856
-0.06832,0.10492,-0.14152,-0.10736,-0.0732,0.00244,0.07808,0.00488,-0.02928,-0.03416,0,-0.05856
-0.06832,0.1098,-0.15128,-0.11712,-0.08296,0.00732,0.07808,0.00488,-0.0244,-0.03416,-0.00488,-0.04392
-0.06832,0.1098,-0.15128,-0.11712,-0.08296,0.00732,0.07808,0.00976,-0.01952,-0.02928,0,-0.04392
-0.07808,0.11224,-0.1464,-0.10736,-0.06832,-0.00488,0.08296,0.00976,-0.0244,-0.02928,-0.01464,-0.05368
-0.07808,0.11224,-0.1464,-0.10736,-0.06832,-0.00488,0.07808,0.01464,-0.0244,-0.02928,-0.01464,-0.05368
-0.0732,0.10736,-0.14152,-0.10492,-0.06832,-0.00244,0.08784,0.01464,-0.01464,-0.02928,-0.00488,-0.04392
-0.07808,0.1098,-0.14152,-0.10248,-0.06344,-0.00732,0.08296,0.01464,-0.01464,-0.02928,0.00488,-0.04392
-0.06832,0.10248,-0.13664,-0.10248,-0.06832,0,0.08296,0.0244,-0.00488,-0.01464,0,-0.0488
-0.06832,0.10004,-0.13176,-0.0976,-0.06344,-0.00244,0.08296,0.0244,0,-0.01464,0.00488,-0.0488
-0.06832,0.10004,-0.13176,-0.0976,-0.06344,-0.00244,0.08296,0.01952,-0.00976,-0.01952,-0.00488,-0.0488
-0.06832,0.10004,-0.13176,-0.0976,-0.06344,-0.00244,0.08296,0.01952,-0.00488,-0.01952,-0.00976,-0.0488
-0.06832,0.10492,-0.14152,-0.10736,-0.0732,0.00244,0.07808,0.03416,0,-0.01952,-0.00488,-0.04392
-0.06344,0.10004,-0.13664,-0.10492,-0.0732,0.00488,0.0732,0.02928,0,-0.01952,0.00976,-0.04392
-0.05856,0.09272,-0.12688,-0.0976,-0.06832,0.00488,0.0732,0.01952,-0.00976,-0.01952,0.00976,-0.04392
-0.05368,0.08784,-0.122,-0.09516,-0.06832,0.00732,0.06832,0.01464,-0.00976,-0.01464,0.01464,-0.03904
-0.05856,0.09516,-0.13176,-0.10248,-0.0732,0.00732,0.06832,0.0244,-0.00488,0,0.01464,-0.02928
-0.05856,0.09272,-0.12688,-0.0976,-0.06832,0.00488,0.0732,0.0244,0.00488,0,0.01464,-0.02928
-0.06832,0.0976,-0.12688,-0.09272,-0.05856,-0.00488,0.07808,0.0244,-0.00488,-0.00976,0.01464,-0.03904
-0.06832,0.0976,-0.12688,-0.09272,-0.05856,-0.00488,0.07808,0.0244,-0.00488,-0.00488,0.01952,-0.03904
-0.06344,0.09028,-0.11712,-0.0854,-0.05368,-0.00488,0.06832,0.01464,-0.00488,-0.00976,0.00976,-0.03416
-0.06344,0.08784,-0.11224,-0.08052,-0.0488,-0.00732,0.06344,0.00976,-0.00976,-0.00976,0.00976,-0.03416
-0.05368,0.08052,-0.10736,-0.08052,-0.05368,0,0.06344,0,-0.00976,-0.00976,0.01952,-0.03416
-0.05368,0.0854,-0.11712,-0.09028,-0.06344,0.00488,0.06344,-0.00488,-0.00976,-0.00488,0.0244,-0.03416
-0.05856,0.08296,-0.10736,-0.07808,-0.0488,-0.00488,0.06344,-0.00488,-0.0244,-0.01952,0.00976,-0.03416
-0.05856,0.07808,-0.0976,-0.06832,-0.03904,-0.00976,0.06344,-0.00488,-0.0244,-0.01952,0.00976,-0.03416
-0.06832,0.08784,-0.10736,-0.0732,-0.03904,-0.01464,0.05856,-0.00976,-0.0244,-0.01952,0.00976,-0.04392
-0.0732,0.09028,-0.10736,-0.07076,-0.03416,-0.01952,0.05856,-0.00976,-0.02928,-0.01952,0.00488,-0.0488
-0.06344,0.08296,-0.10248,-0.07076,-0.03904,-0.0122,0.05856,0,-0.01952,-0.01952,0.00976,-0.03416
-0.06344,0.08784,-0.11224,-0.08052,-0.0488,-0.00732,0.06344,0,-0.0244,-0.01952,0.01464,-0.03416
-0.05368,0.07564,-0.0976,-0.07076,-0.04392,-0.00488,0.0732,-0.00976,-0.03416,-0.0244,0.01464,-0.03416
-0.05368,0.07076,-0.08784,-0.061,-0.03416,-0.00976,0.0732,-0.00976,-0.03416,-0.0244,0.01464,-0.03416
-0.05856,0.07808,-0.0976,-0.06832,-0.03904,-0.00976,0.0732,-0.01464,-0.03904,-0.0244,0.00976,-0.03904
-0.05856,0.07564,-0.09272,-0.06344,-0.03416,-0.0122,0.0732,-0.01464,-0.03904,-0.02928,0.00976,-0.03904
-0.06344,0.08784,-0.11224,-0.08052,-0.0488,-0.00732,0.0732,-0.00488,-0.02928,-0.01952,0.00488,-0.03904
-0.06344,0.09272,-0.122,-0.09028,-0.05856,-0.00244,0.0732,-0.00488,-0.02928,-0.01952,0.01464,-0.03904
-0.0732,0.0976,-0.122,-0.0854,-0.0488,-0.0122,0.06832,0,-0.02928,-0.01952,0.00488,-0.03416
-0.0732,0.0976,-0.122,-0.0854,-0.0488,-0.0122,0.06832,-0.00488,-0.02928,-0.01952,0.00488,-0.03416
-0.0732,0.10248,-0.13176,-0.09516,-0.05856,-0.00732,0.07808,0,-0.02928,-0.01952,0.01464,-0.03416
-0.0732,0.10492,-0.13664,-0.10004,-0.06344,-0.00488,0.07808,0,-0.03416,-0.01952,0.01464,-0.03416
-0.06344,0.10004,-0.13664,-0.10492,-0.0732,0.00488,0.07808,0,-0.03416,-0.02928,0.01464,-0.03904
-0.06344,0.0976,-0.13176,-0.10004,-0.06832,0.00244,0.07808,-0.00488,-0.03904,-0.02928,0.01464,-0.03904
-0.0732,0.0976,-0.122,-0.0854,-0.0488,-0.0122,0.0732,-0.00488,-0.03416,-0.03416,0.00976,-0.02928
-0.06832,0.0976,-0.12688,-0.09272,-0.05856,-0.00488,0.07808,-0.00488,-0.02928,-0.02928,0.00976,-0.03416
-0.07808,0.10492,-0.13176,-0.09272,-0.05368,-0.0122,0.0732,-0.01464,-0.0488,-0.02928,-0.00488,-0.04392
-0.07808,0.10004,-0.122,-0.08296,-0.04392,-0.01708,0.05856,-0.01952,-0.04392,-0.02928,0,-0.04392
-0.07808,0.10492,-0.13176,-0.09272,-0.05368,-0.0122,0.05368,-0.00976,-0.04392,-0.02928,0,-0.04392
-0.07808,0.10736,-0.13664,-0.0976,-0.05856,-0.00976,0.05856,-0.00976,-0.04392,-0.02928,0,-0.04392
-0.08784,0.11956,-0.15128,-0.10736,-0.06344,-0.0122,0.05856,0,-0.03904,-0.0244,0,-0.03416
-0.08784,0.11224,-0.13664,-0.09272,-0.0488,-0.01952,0.05368,0,-0.03416,-0.0244,0,-0.02928
-0.08296,0.09516,-0.10736,-0.06588,-0.0244,-0.02928,0.04392,-0.01952,-0.03416,-0.01952,0.00488,-0.02928
-0.08296,0.07564,-0.06832,-0.02684,0.01464,-0.0488,0.0488,-0.02928,-0.0244,-0.01952,0.00976,-0.03904
-0.05856,0.04392,-0.02928,0,0.02928,-0.04392,0.08296,-0.00976,0.00488,0.00976,0.03904,-0.01464
-0.0488,0.0488,-0.0488,-0.0244,0,-0.0244,0.0976,0.00976,0.01952,0.01952,0.0488,-0.00976
-0.0488,0.0488,-0.0488,-0.0244,0,-0.0244,0.0976,0.00976,0.01952,0.01952,0.0488,-0.00976
-0.0488,0.0488,-0.0488,-0.0244,0,-0.0244,0.09272,0,0.01952,0.01952,0.0488,0
-0.0488,0.0488,-0.0488,-0.0244,0,-0.0244,0.07808,0,0.01952,0.0244,0.0488,0.00488
-0.04392,0.03416,-0.0244,-0.00244,0.01952,-0.03172,0.05368,-0.03416,0.00976,0.0244,0.04392,-0.00488
-0.03904,0.02196,-0.00488,0.01464,0.03416,-0.0366,0.0244,-0.05368,0.00488,0.0244,0.0488,-0.00488
-0.04392,0.01952,0.00488,0.02684,0.0488,-0.04636,0.00488,-0.05856,-0.00488,0.02928,0.05368,0.00976
-0.02928,0.00976,0.00976,0.0244,0.03904,-0.03416,-0.00488,-0.06344,-0.00976,0.03416,0.0732,0.01464
-0.02928,0.00976,0.00976,0.0244,0.03904,-0.03416,-0.00976,-0.0488,-0.00976,0.04392,0.07808,0.0244
-0.01464,0,0.01464,0.02196,0.02928,-0.02196,-0.00488,-0.02928,0,0.04392,0.08296,0.02928
-0.01952,0.00244,0.01464,0.0244,0.03416,-0.02684,0.00488,-0.01952,0,0.0488,0.07808,0.0244
-0.01952,0.00732,0.00488,0.01464,0.0244,-0.02196,0.00488,-0.01952,-0.00488,0.04392,0.07808,0.01952
-0.01464,0.0122,-0.00976,-0.00244,0.00488,-0.00976,0.01464,-0.01952,-0.01464,0.03904,0.06344,0.01952
-0.01952,0.0366,-0.05368,-0.04392,-0.03416,0.00732,0.01952,-0.01952,-0.0244,0.01952,0.05368,0.00976
-0.02928,0.05124,-0.0732,-0.05856,-0.04392,0.00732,0.01464,-0.02928,-0.04392,0,0.03904,0
-0.02928,0.05612,-0.08296,-0.06832,-0.05368,0.0122,0.01464,-0.03904,-0.05368,-0.01464,0.02928,0
-0.02928,0.05856,-0.08784,-0.0732,-0.05856,0.01464,0.0244,-0.02928,-0.05368,-0.00976,0.03416,0
-0.03904,0.07076,-0.10248,-0.08296,-0.06344,0.0122,0.03416,-0.0244,-0.05856,-0.01952,0.02928,0
-0.05368,0.0854,-0.11712,-0.09028,-0.06344,0.00488,0.0488,-0.01952,-0.06344,-0.01464,0.02928,0
-0.0732,0.0976,-0.122,-0.0854,-0.0488,-0.0122,0.05856,-0.01464,-0.0488,-0.00976,0.02928,0
-0.07808,0.09516,-0.11224,-0.0732,-0.03416,-0.02196,0.06344,-0.0244,-0.0488,-0.00488,0.01952,-0.00976
-0.08784,0.10248,-0.11712,-0.0732,-0.02928,-0.02928,0.0732,-0.01952,-0.0488,-0.00976,0.01952,-0.01952
-0.08784,0.11712,-0.1464,-0.10248,-0.05856,-0.01464,0.0732,-0.00976,-0.05856,-0.03904,0.00488,-0.02928
-0.08784,0.12688,-0.16592,-0.122,-0.07808,-0.00488,0.0732,-0.00976,-0.06832,-0.0488,-0.00976,-0.03904
-0.09272,0.1342,-0.17568,-0.12932,-0.08296,-0.00488,0.07808,-0.01464,-0.0732,-0.0488,-0.01464,-0.04392
-0.09272,0.1342,-0.17568,-0.12932,-0.08296,-0.00488,0.07808,-0.01464,-0.08296,-0.06344,-0.0244,-0.0488
-0.10248,0.1342,-0.16592,-0.11468,-0.06344,-0.01952,0.0732,-0.00976,-0.0732,-0.06832,-0.03416,-0.06344
-0.10736,0.13664,-0.16592,-0.11224,-0.05856,-0.0244,0.0732,-0.01464,-0.08296,-0.0732,-0.03904,-0.06344
-0.0976,0.13664,-0.17568,-0.12688,-0.07808,-0.00976,0.0732,-0.01464,-0.08784,-0.06344,-0.02928,-0.06344
-0.0976,0.14152,-0.18544,-0.13664,-0.08784,-0.00488,0.0732,-0.00976,-0.08784,-0.06344,-0.02928,-0.06832
-0.0976,0.14884,-0.20008,-0.15128,-0.10248,0.00244,0.0732,-0.00976,-0.08784,-0.06832,-0.03416,-0.06832
-0.0976,0.1464,-0.1952,-0.1464,-0.0976,0,0.0732,-0.00976,-0.08784,-0.06832,-0.03416,-0.06832
-0.10248,0.14884,-0.1952,-0.14396,-0.09272,-0.00488,0.08784,-0.00976,-0.08296,-0.06832,-0.03416,-0.06832
-0.10248,0.1464,-0.19032,-0.13908,-0.08784,-0.00732,0.08784,-0.00976,-0.08296,-0.0732,-0.03904,-0.06832
-0.10248,0.15128,-0.20008,-0.14884,-0.0976,-0.00244,0.09272,0,-0.07808,-0.06832,-0.03416,-0.05856
-0.10248,0.15372,-0.20496,-0.15372,-0.10248,0,0.10248,0.00976,-0.06832,-0.05856,-0.0244,-0.05856
-0.09272,0.14396,-0.1952,-0.14884,-0.10248,0.00488,0.10248,0.00976,-0.06832,-0.05856,-0.02928,-0.05856
-0.09272,0.13908,-0.18544,-0.13908,-0.09272,0,0.10248,-0.00488,-0.07808,-0.05856,-0.02928,-0.05856
-0.10248,0.14152,-0.18056,-0.12932,-0.07808,-0.0122,0.08784,-0.00976,-0.08296,-0.06344,-0.03904,-0.05856
-0.10248,0.14152,-0.18056,-0.12932,-0.07808,-0.0122,0.08784,-0.00976,-0.08296,-0.06344,-0.03416,-0.05856
-0.10248,0.1464,-0.19032,-0.13908,-0.08784,-0.00732,0.07808,-0.00488,-0.07808,-0.06344,-0.03416,-0.06344
-0.10248,0.14884,-0.1952,-0.14396,-0.09272,-0.00488,0.09272,0.00488,-0.07808,-0.06344,-0.03904,-0.06344
-0.122,0.16836,-0.21472,-0.15372,-0.09272,-0.01464,0.1464,0.06344,-0.00976,-0.06344,-0.0488,-0.0732
-0.14152,0.1464,-0.15128,-0.08052,-0.00976,-0.06588,0.2196,0.15128,0.12688,-0.05856,-0.08296,-0.11712
-0.17568,0.15128,-0.12688,-0.03904,0.0488,-0.11224,0.30256,0.24888,0.30256,0.00488,-0.05856,-0.122
-0.18056,0.11468,-0.0488,0.04148,0.13176,-0.15616,0.30256,0.2928,0.45384,0.08784,-0.01952,-0.10736
-0.12688,0.04392,0.03904,0.10248,0.16592,-0.1464,0.27328,0.33672,0.49288,0.1952,0.09272,-0.02928
0.00976,-0.09272,0.17568,0.1708,0.16592,-0.07808,0.1464,0.23424,0.49288,0.37576,0.31232,0.14152
0.2196,-0.27572,0.33184,0.22204,0.11224,0.05368,-0.08296,0.03416,0.3904,0.5856,0.57096,0.34648
0.4636,-0.5124,0.5612,0.3294,0.0976,0.183,-0.366,-0.26352,0.16104,0.86864,0.92232,0.61
0.6832,-0.7808,0.8784,0.5368,0.1952,0.244,-0.71248,-0.55632,-0.0976,1.20048,1.33712,0.91256
0.88328,-1.01016,1.13704,0.6954,0.25376,0.31476,-0.97112,-0.75152,-0.4392,1.4396,1.67384,1.1712
1.05408,-1.10288,1.15168,0.62464,0.0976,0.47824,-1.03944,-0.74664,-0.61976,1.55184,1.83488,1.32248
1.098,-0.94184,0.78568,0.23668,-0.31232,0.70516,-0.86864,-0.5368,-0.57096,1.39568,1.59088,1.1468
0.9516,-0.67588,0.40016,-0.07564,-0.55144,0.75152,-0.74664,-0.54656,-0.73688,0.93208,1.07848,0.82472
0.64904,-0.38796,0.12688,-0.19764,-0.52216,0.5856,-0.56608,-0.61976,-0.94184,0.40016,0.5856,0.5124
0.28304,-0.05856,-0.16592,-0.30744,-0.44896,0.366,-0.37576,-0.79056,-1.37616,-0.45384,0.01952,0.21472
0.0732,0.08052,-0.23424,-0.27084,-0.30744,0.19032,-0.23912,-0.65392,-1.11752,-0.55632,-0.17568,0.05368
0.0244,0.08052,-0.18544,-0.19764,-0.20984,0.11712,-0.1952,-0.42456,-0.69784,-0.32208,-0.10736,0.02928
0,0.06588,-0.13176,-0.13176,-0.13176,0.06588,-0.122,-0.25376,-0.42456,-0.1708,-0.03416,0.01952
-0.03904,0.10004,-0.16104,-0.14152,-0.122,0.04148,-0.00488,-0.10736,-0.244,-0.12688,-0.01952,0
-0.04392,0.10004,-0.15616,-0.1342,-0.11224,0.03416,0.05368,-0.03416,-0.12688,-0.10248,-0.02928,-0.01952
-0.06344,0.12444,-0.18544,-0.15372,-0.122,0.02928,0.0732,-0.01952,-0.08296,-0.08296,-0.02928,-0.02928
-0.08296,0.1342,-0.18544,-0.14396,-0.10248,0.00976,0.10248,0.01952,-0.05368,-0.0732,-0.0244,-0.04392
-0.08784,0.13176,-0.17568,-0.13176,-0.08784,0,0.11712,0.04392,-0.0244,-0.06832,-0.02928,-0.0488
-0.0976,0.14152,-0.18544,-0.13664,-0.08784,-0.00488,0.11224,0.04392,-0.01952,-0.06832,-0.02928,-0.0488
-0.0976,0.14152,-0.18544,-0.13664,-0.08784,-0.00488,0.0976,0.03904,-0.01464,-0.06832,-0.03416,-0.05856
-0.10248,0.14884,-0.1952,-0.14396,-0.09272,-0.00488,0.10248,0.03904,-0.00976,-0.06832,-0.0488,-0.06832
-0.10248,0.14884,-0.1952,-0.14396,-0.09272,-0.00488,0.10736,0.05368,0,-0.06344,-0.0488,-0.0732
-0.0976,0.14152,-0.18544,-0.13664,-0.08784,-0.00488,0.10248,0.0488,-0.00976,-0.0732,-0.05856,-0.08296
-0.0976,0.13664,-0.17568,-0.12688,-0.07808,-0.00976,0.0976,0.03904,0,-0.06344,-0.05856,-0.08296
-0.10248,0.1464,-0.19032,-0.13908,-0.08784,-0.00732,0.10736,0.05368,0.01464,-0.06344,-0.04392,-0.0732
-0.10248,0.14884,-0.1952,-0.14396,-0.09272,-0.00488,0.10736,0.05368,0.01952,-0.06344,-0.04392,-0.0732
-0.09272,0.13908,-0.18544,-0.13908,-0.09272,0,0.11712,0.06832,0.01952,-0.05368,-0.03416,-0.06344
-0.09272,0.1342,-0.17568,-0.12932,-0.08296,-0.00488,0.11712,0.06832,0.0244,-0.05368,-0.03416,-0.06344
-0.07808,0.12688,-0.17568,-0.13664,-0.0976,0.00976,0.10736,0.05856,0.01952,-0.0488,-0.04392,-0.06344
-0.06344,0.10736,-0.15128,-0.11956,-0.08784,0.0122,0.10736,0.05368,0.01952,-0.0488,-0.03904,-0.06344
-0.0732,0.10736,-0.14152,-0.10492,-0.06832,-0.00244,0.10736,0.06344,0.01952,-0.05368,-0.03904,-0.06832
-0.06832,0.10736,-0.1464,-0.11224,-0.07808,0.00488,0.10248,0.06832,0.0244,-0.05368,-0.03904,-0.06832
-0.06832,0.10736,-0.1464,-0.11224,-0.07808,0.00488,0.10248,0.06344,0.03904,-0.04392,-0.03904,-0.06832
-0.06832,0.11468,-0.16104,-0.12688,-0.09272,0.0122,0.10248,0.06832,0.03904,-0.03904,-0.03416,-0.06832
-0.07808,0.11468,-0.15128,-0.11224,-0.0732,-0.00244,0.0976,0.0732,0.03904,-0.0488,-0.02928,-0.06832
-0.07808,0.11224,-0.1464,-0.10736,-0.06832,-0.00488,0.09272,0.08296,0.0488,-0.0488,-0.0244,-0.06832
-0.0732,0.1098,-0.1464,-0.1098,-0.0732,0,0.09272,0.0732,0.0488,-0.04392,-0.03416,-0.06832
-0.06832,0.10736,-0.1464,-0.11224,-0.07808,0.00488,0.09272,0.07808,0.06344,-0.04392,-0.0244,-0.06344
-0.05856,0.10248,-0.1464,-0.11712,-0.08784,0.01464,0.08296,0.09272,0.06344,-0.03904,-0.01464,-0.05368
-0.05856,0.10004,-0.14152,-0.11224,-0.08296,0.0122,0.08296,0.0976,0.0732,-0.03904,-0.01464,-0.05368
-0.06344,0.10492,-0.1464,-0.11468,-0.08296,0.00976,0.09272,0.0976,0.07808,-0.01952,-0.01952,-0.0488
-0.0732,0.1098,-0.1464,-0.1098,-0.0732,0,0.09272,0.10248,0.07808,-0.01952,-0.01952,-0.0488
-0.05856,0.10492,-0.15128,-0.122,-0.09272,0.01708,0.08784,0.10248,0.09272,-0.00976,-0.00976,-0.04392
-0.05368,0.10248,-0.15128,-0.12444,-0.0976,0.02196,0.08784,0.11224,0.0976,-0.00976,-0.00976,-0.04392
-0.05368,0.0976,-0.14152,-0.11468,-0.08784,0.01708,0.08784,0.12688,0.11712,-0.01464,-0.00976,-0.03416
-0.0488,0.09028,-0.13176,-0.10736,-0.08296,0.01708,0.08784,0.12688,0.122,-0.00976,-0.00488,-0.03416
-0.04392,0.08784,-0.13176,-0.1098,-0.08784,0.02196,0.07808,0.14152,0.13176,0.00488,0,-0.02928
-0.03904,0.0854,-0.13176,-0.11224,-0.09272,0.02684,0.07808,0.15616,0.1464,0.01464,0.00976,-0.02928
-0.03416,0.07808,-0.122,-0.10492,-0.08784,0.02684,0.07808,0.15616,0.1464,0.00976,0.01952,-0.0244
-0.02928,0.07564,-0.122,-0.10736,-0.09272,0.03172,0.07808,0.16104,0.16104,0.0244,0.01952,-0.01952
-0.01952,0.05612,-0.09272,-0.08296,-0.0732,0.02684,0.06832,0.1708,0.18056,0.02928,0.0244,-0.01464
-0.01464,0.05368,-0.09272,-0.0854,-0.07808,0.03172,0.06832,0.19032,0.20008,0.03904,0.03904,-0.00488
-0.00976,0.05612,-0.10248,-0.0976,-0.09272,0.04148,0.06344,0.20984,0.20984,0.05856,0.04392,0
0,0.05124,-0.10248,-0.10248,-0.10248,0.05124,0.06344,0.22936,0.23424,0.07808,0.05856,0.00976
0.0244,0.02684,-0.07808,-0.09028,-0.10248,0.06344,0.06832,0.23912,0.26352,0.08296,0.07808,0.01952
0.03416,0.00976,-0.05368,-0.07076,-0.08784,0.061,0.05856,0.26352,0.28792,0.10248,0.0976,0.02928
0.03904,-0.00976,-0.01952,-0.03904,-0.05856,0.0488,0.05368,0.27816,0.30744,0.13176,0.10248,0.0488
0.05368,-0.02684,0,-0.02684,-0.05368,0.05368,0.0488,0.29768,0.32696,0.15616,0.12688,0.06344
0.06832,-0.04392,0.01952,-0.01464,-0.0488,0.05856,0.0488,0.31232,0.35624,0.18544,0.16104,0.08296
0.07808,-0.061,0.04392,0.00488,-0.03416,0.05612,0.04392,0.32696,0.38064,0.20984,0.18544,0.10248
0.10248,-0.08052,0.05856,0.00732,-0.04392,0.0732,0.01952,0.34648,0.3904,0.23912,0.20496,0.122
0.11712,-0.10004,0.08296,0.0244,-0.03416,0.07564,0.00976,0.35136,0.40504,0.2684,0.23424,0.1464
0.14152,-0.13176,0.122,0.05124,-0.01952,0.08052,0.00488,0.35624,0.42456,0.30744,0.2684,0.16592
0.16104,-0.1464,0.13176,0.05124,-0.02928,0.09516,-0.00488,0.35624,0.4392,0.33184,0.29768,0.18544
0.17568,-0.1586,0.14152,0.05368,-0.03416,0.10492,-0.01952,0.37088,0.44896,0.35136,0.31232,0.20984
0.18056,-0.16348,0.1464,0.05612,-0.03416,0.10736,-0.02928,0.38064,0.45384,0.37576,0.33672,0.22936
0.18544,-0.17568,0.16592,0.0732,-0.01952,0.10248,-0.02928,0.366,0.4636,0.3904,0.35624,0.23912
0.19032,-0.19032,0.19032,0.09516,0,0.09516,-0.03904,0.34648,0.4636,0.40016,0.37088,0.244
0.20496,-0.20252,0.20008,0.0976,-0.00488,0.10492,-0.05368,0.3416,0.45384,0.40992,0.37576,0.24888
0.20984,-0.20984,0.20984,0.10492,0,0.10492,-0.05856,0.33184,0.44896,0.41968,0.38064,0.25376
0.20496,-0.20252,0.20008,0.0976,-0.00488,0.10492,-0.06832,0.31232,0.42944,0.42456,0.39528,0.25864
0.20496,-0.1952,0.18544,0.08296,-0.01952,0.11224,-0.0732,0.28792,0.4148,0.41968,0.40016,0.25864
0.18544,-0.17568,0.16592,0.0732,-0.01952,0.10248,-0.06832,0.26352,0.3904,0.38552,0.37576,0.23912
0.17568,-0.16348,0.15128,0.06344,-0.0244,0.10004,-0.05856,0.244,0.36112,0.366,0.35624,0.22936
0.15616,-0.14884,0.14152,0.06344,-0.01464,0.0854,-0.03904,0.21472,0.33672,0.33672,0.33184,0.21472
0.13176,-0.12444,0.11712,0.05124,-0.01464,0.0732,-0.02928,0.18056,0.29768,0.2928,0.29768,0.18544
0.11224,-0.0976,0.08296,0.02684,-0.02928,0.07076,-0.01952,0.16104,0.25376,0.25864,0.26352,0.16104
0.08296,-0.07076,0.05856,0.01708,-0.0244,0.05368,-0.00488,0.15616,0.22448,0.22448,0.22448,0.13176
0.06344,-0.04636,0.02928,-0.00244,-0.03416,0.0488,0.00488,0.122,0.18544,0.18544,0.1952,0.10248
0.04392,-0.0244,0.00488,-0.01708,-0.03904,0.04148,0.01464,0.0976,0.16104,0.16104,0.16592,0.08296
0.02928,-0.0122,-0.00488,-0.01952,-0.03416,0.03172,0.01952,0.08784,0.12688,0.11712,0.13176,0.05368
0.00976,0.00976,-0.02928,-0.03416,-0.03904,0.0244,0.0244,0.0732,0.09272,0.08784,0.10736,0.03904
-0.00976,0.02928,-0.0488,-0.04392,-0.03904,0.01464,0.03416,0.0488,0.08296,0.05368,0.0732,0.0244
-0.01464,0.04148,-0.06832,-0.061,-0.05368,0.01952,0.03416,0.03416,0.06832,0.03416,0.0488,0.00488
-0.03904,0.05612,-0.0732,-0.05368,-0.03416,-0.00244,0.03904,0.01952,0.03416,0.0244,0.04392,0
-0.04392,0.06344,-0.08296,-0.061,-0.03904,-0.00244,0.04392,0.01464,0.01464,0.00488,0.02928,-0.01464
-0.0488,0.08052,-0.11224,-0.08784,-0.06344,0.00732,0.05856,0.01952,0.01952,0,0.01952,-0.00976
-0.05856,0.0976,-0.13664,-0.10736,-0.07808,0.00976,0.05856,0.0244,0.01952,-0.00488,0.00976,-0.01952
-0.06344,0.10492,-0.1464,-0.11468,-0.08296,0.00976,0.06344,0.01952,0,-0.01464,0.00488,-0.0244
-0.06344,0.10492,-0.1464,-0.11468,-0.08296,0.00976,0.06344,0.01464,-0.00976,-0.0244,0,-0.02928
-0.0732,0.10492,-0.13664,-0.10004,-0.06344,-0.00488,0.05368,0.00488,-0.01464,-0.03416,-0.01464,-0.03904
-0.06832,0.09272,-0.11712,-0.08296,-0.0488,-0.00976,0.04392,0.00488,-0.01952,-0.03904,-0.0244,-0.04392
-0.06832,0.0976,-0.12688,-0.09272,-0.05856,-0.00488,0.05856,0,-0.01952,-0.02928,-0.01952,-0.03904
-0.06832,0.10248,-0.13664,-0.10248,-0.06832,0,0.06344,0,-0.0244,-0.02928,-0.01464,-0.03904
-0.06344,0.09516,-0.12688,-0.09516,-0.06344,0,0.0488,-0.00976,-0.03416,-0.04392,-0.0244,-0.0488
-0.06344,0.09516,-0.12688,-0.09516,-0.06344,0,0.0488,-0.01464,-0.03416,-0.04392,-0.03416,-0.0488
-0.0732,0.10004,-0.12688,-0.09028,-0.05368,-0.00976,0.0488,-0.01464,-0.02928,-0.04392,-0.0244,-0.0488
-0.0732,0.10736,-0.14152,-0.10492,-0.06832,-0.00244,0.0488,-0.01464,-0.03416,-0.04392,-0.0244,-0.0488
-0.0732,0.10004,-0.12688,-0.09028,-0.05368,-0.00976,0.0488,-0.01464,-0.03904,-0.05856,-0.03416,-0.06344
-0.0732,0.09272,-0.11224,-0.07564,-0.03904,-0.01708,0.0488,-0.01464,-0.03904,-0.05856,-0.03416,-0.06344
-0.0732,0.09516,-0.11712,-0.08052,-0.04392,-0.01464,0.0488,-0.01464,-0.03904,-0.05856,-0.02928,-0.05368
-0.0732,0.09516,-0.11712,-0.08052,-0.04392,-0.01464,0.0488,-0.01464,-0.03904,-0.05856,-0.03904,-0.0488
-0.0732,0.10004,-0.12688,-0.09028,-0.05368,-0.00976,0.05856,-0.00488,-0.03416,-0.05856,-0.02928,-0.03904
-0.0732,0.10492,-0.13664,-0.10004,-0.06344,-0.00488,0.05856,-0.00488,-0.02928,-0.05856,-0.02928,-0.03904
-0.06344,0.09272,-0.122,-0.09028,-0.05856,-0.00244,0.05856,-0.00488,-0.02928,-0.06344,-0.02928,-0.04392
-0.06832,0.10004,-0.13176,-0.0976,-0.06344,-0.00244,0.05856,-0.00488,-0.0244,-0.06344,-0.03416,-0.04392
-0.06832,0.10248,-0.13664,-0.10248,-0.06832,0,0.06344,0,-0.01464,-0.05368,-0.02928,-0.04392
-0.06832,0.10004,-0.13176,-0.0976,-0.06344,-0.00244,0.06344,0.00976,-0.01464,-0.05368,-0.02928,-0.04392
-0.06832,0.10492,-0.14152,-0.10736,-0.0732,0.00244,0.06344,0.00488,-0.00976,-0.05368,-0.03904,-0.03904
-0.06832,0.1098,-0.15128,-0.11712,-0.08296,0.00732,0.06832,0.00488,-0.00976,-0.05368,-0.02928,-0.03904
-0.07808,0.11956,-0.16104,-0.122,-0.08296,0.00244,0.07808,0.00488,-0.00488,-0.05368,-0.03416,-0.04392
-0.07808,0.11956,-0.16104,-0.122,-0.08296,0.00244,0.07808,0.00976,0,-0.0488,-0.02928,-0.04392
-0.06832,0.10736,-0.1464,-0.11224,-0.07808,0.00488,0.0732,0.00976,0.00488,-0.0488,-0.03416,-0.04392
-0.06832,0.10736,-0.1464,-0.11224,-0.07808,0.00488,0.06832,0.01464,0.00488,-0.0488,-0.03416,-0.04392
-0.06344,0.0976,-0.13176,-0.10004,-0.06832,0.00244,0.06832,0.01464,0.00488,-0.0488,-0.0244,-0.04392
-0.06832,0.10004,-0.13176,-0.0976,-0.06344,-0.00244,0.06344,0.01464,0.00488,-0.0488,-0.0244,-0.04392
-0.07808,0.10248,-0.12688,-0.08784,-0.0488,-0.01464,0.06344,0.01464,0.00488,-0.04392,-0.02928,-0.0488
-0.07808,0.10004,-0.122,-0.08296,-0.04392,-0.01708,0.06344,0.01464,0.00976,-0.04392,-0.0244,-0.0488
-0.08784,0.1098,-0.13176,-0.08784,-0.04392,-0.02196,0.06344,0.01952,0.00976,-0.03904,-0.0244,-0.03904
-0.08784,0.11468,-0.14152,-0.0976,-0.05368,-0.01708,0.06344,0.01952,0.01464,-0.03904,-0.02928,-0.03904
-0.07808,0.1098,-0.14152,-0.10248,-0.06344,-0.00732,0.05856,0.0244,0.00976,-0.03904,-0.0244,-0.03416
-0.0732,0.10004,-0.12688,-0.09028,-0.05368,-0.00976,0.05368,0.01952,0.00976,-0.03904,-0.00976,-0.03416
-0.07808,0.10736,-0.13664,-0.0976,-0.05856,-0.00976,0.06344,0.02928,0.01952,-0.02928,-0.01952,-0.03416
-0.0732,0.10736,-0.14152,-0.10492,-0.06832,-0.00244,0.05856,0.0244,0.01952,-0.0244,-0.01464,-0.02928
-0.07808,0.1098,-0.14152,-0.10248,-0.06344,-0.00732,0.0488,0.00488,0.00488,-0.02928,-0.01464,-0.03904
-0.08784,0.11224,-0.13664,-0.09272,-0.0488,-0.01952,0.05368,-0.00488,0.00488,-0.03904,-0.01464,-0.03904
-0.07808,0.0976,-0.11712,-0.07808,-0.03904,-0.01952,0.0488,0.00488,0.00488,-0.0488,-0.0244,-0.03904
-0.07808,0.08784,-0.0976,-0.05856,-0.01952,-0.02928,0.0488,0.00488,0.00488,-0.04392,-0.01952,-0.03904
-0.06344,0.08052,-0.0976,-0.06588,-0.03416,-0.01464,0.05856,0.00488,0.01464,-0.03904,-0.00976,-0.03416
-0.05368,0.0732,-0.09272,-0.06588,-0.03904,-0.00732,0.06344,0,0.00976,-0.03904,-0.00976,-0.03416
-0.05368,0.07076,-0.08784,-0.061,-0.03416,-0.00976,0.05368,0.00976,0.00976,-0.03904,-0.01952,-0.03416
-0.05368,0.07564,-0.0976,-0.07076,-0.04392,-0.00488,0.05368,0.00488,0.00976,-0.03416,-0.01464,-0.03416
-0.0488,0.0732,-0.0976,-0.0732,-0.0488,0,0.05368,0.00488,0.00488,-0.03904,-0.01952,-0.03416
-0.0488,0.0732,-0.0976,-0.0732,-0.0488,0,0.05368,0.00488,0.00488,-0.03904,-0.01952,-0.03416
-0.0488,0.07808,-0.10736,-0.08296,-0.05856,0.00488,0.0488,-0.00976,0.00488,-0.03904,-0.01952,-0.03416
-0.05368,0.08052,-0.10736,-0.08052,-0.05368,0,0.0488,-0.00976,0,-0.03904,-0.0244,-0.03904
-0.05368,0.07808,-0.10248,-0.07564,-0.0488,-0.00244,0.05856,0,0,-0.03904,-0.01952,-0.03416
-0.05368,0.08296,-0.11224,-0.0854,-0.05856,0.00244,0.06344,0,-0.00488,-0.03904,-0.01464,-0.03416
-0.06344,0.09028,-0.11712,-0.0854,-0.05368,-0.00488,0.06344,0.00976,0.00488,-0.03416,-0.01464,-0.03416
-0.06344,0.09028,-0.11712,-0.0854,-0.05368,-0.00488,0.06344,0.00976,0.00488,-0.03416,-0.01464,-0.03416
-0.06832,0.09272,-0.11712,-0.08296,-0.0488,-0.00976,0.05368,-0.00488,0,-0.04392,-0.01952,-0.03904
-0.06832,0.09028,-0.11224,-0.07808,-0.04392,-0.0122,0.05368,-0.00488,0,-0.0488,-0.01952,-0.03904
-0.0732,0.0976,-0.122,-0.0854,-0.0488,-0.0122,0.05368,-0.00488,-0.00976,-0.03904,-0.0244,-0.03904
-0.0732,0.0976,-0.122,-0.0854,-0.0488,-0.0122,0.05368,-0.00488,-0.00976,-0.03904,-0.01464,-0.03904
-0.0732,0.10248,-0.13176,-0.09516,-0.05856,-0.00732,0.0488,0,-0.00976,-0.0488,-0.0244,-0.03416
-0.0732,0.10248,-0.13176,-0.09516,-0.05856,-0.00732,0.0488,-0.00488,-0.00976,-0.0488,-0.0244,-0.03416
-0.0732,0.10248,-0.13176,-0.09516,-0.05856,-0.00732,0.05856,0,-0.00976,-0.0488,-0.0244,-0.03416
-0.0732,0.10492,-0.13664,-0.10004,-0.06344,-0.00488,0.05856,0,-0.01464,-0.0488,-0.0244,-0.03416
-0.0732,0.10004,-0.12688,-0.09028,-0.05368,-0.00976,0.0488,0,-0.0244,-0.05856,-0.0244,-0.0488
-0.0732,0.0976,-0.122,-0.0854,-0.0488,-0.0122,0.0488,-0.00488,-0.02928,-0.05856,-0.0244,-0.0488
-0.0732,0.09272,-0.11224,-0.07564,-0.03904,-0.01708,0.04392,-0.01464,-0.03416,-0.06344,-0.03904,-0.0488
-0.06832,0.09272,-0.11712,-0.08296,-0.0488,-0.00976,0.0488,-0.01464,-0.02928,-0.05856,-0.03904,-0.05368
-0.06832,0.10004,-0.13176,-0.0976,-0.06344,-0.00244,0.06344,-0.00488,-0.02928,-0.05856,-0.03416,-0.04392
-0.06832,0.10004,-0.13176,-0.0976,-0.06344,-0.00244,0.05856,-0.00976,-0.01464,-0.0488,-0.01952,-0.03416
-0.05856,0.09028,-0.122,-0.09272,-0.06344,0.00244,0.05368,-0.00976,-0.0244,-0.0488,-0.02928,-0.04392
-0.05856,0.08296,-0.10736,-0.07808,-0.0488,-0.00488,0.05856,-0.00976,-0.0244,-0.0488,-0.02928,-0.04392
-0.05856,0.08052,-0.10248,-0.0732,-0.04392,-0.00732,0.05856,-0.01952,-0.00976,-0.04392,-0.01952,-0.04392
-0.05856,0.06832,-0.07808,-0.0488,-0.01952,-0.01952,0.05368,-0.01952,-0.00488,-0.04392,-0.01952,-0.03904
-0.06344,0.07564,-0.08784,-0.05612,-0.0244,-0.01952,0.0732,0,0.01464,-0.01952,0.00488,-0.00976
-0.05368,0.06588,-0.07808,-0.05124,-0.0244,-0.01464,0.06832,0,0.01464,-0.01952,0,-0.00976
-0.05856,0.05368,-0.0488,-0.01952,0.00976,-0.03416,0.06832,-0.00976,0.01464,-0.00976,0,-0.01952
-0.05856,0.05368,-0.0488,-0.01952,0.00976,-0.03416,0.06832,-0.00976,0.0244,-0.00976,0,-0.01952
-0.0488,0.04392,-0.03904,-0.01464,0.00976,-0.02928,0.06832,-0.00976,0.02928,-0.01952,0,-0.01952
-0.0488,0.04392,-0.03904,-0.01464,0.00976,-0.02928,0.06344,-0.00976,0.02928,-0.01464,0,-0.01464
-0.04392,0.03172,-0.01952,0.00244,0.0244,-0.03416,0.03416,-0.03416,0.01952,-0.00488,0.00488,-0.01464
-0.03904,0.0244,-0.00976,0.00976,0.02928,-0.03416,0.00488,-0.05368,0.01464,-0.00488,0.00976,-0.01464
-0.03416,0.01952,-0.00488,0.0122,0.02928,-0.03172,-0.01464,-0.05856,0.01464,0,0.01952,0.00488
-0.01952,0.00976,0,0.00976,0.01952,-0.01952,-0.0244,-0.06344,0.00976,0.00488,0.02928,0.01952
-0.01952,0.00976,0,0.00976,0.01952,-0.01952,-0.01952,-0.0488,0,0.00488,0.01952,0.01952
-0.00488,0,0.00488,0.00732,0.00976,-0.00732,-0.01464,-0.02928,0.00976,0.00488,0.0244,0.01464
-0.00976,0.00732,-0.00488,0,0.00488,-0.00732,-0.00488,-0.02928,0.01952,0.00976,0.03904,0.0244
-0.00976,0.0122,-0.01464,-0.00976,-0.00488,-0.00244,-0.00488,-0.02928,0.01464,0.00488,0.03904,0.01952
0.00488,0.00488,-0.01464,-0.01708,-0.01952,0.0122,-0.00488,-0.02928,-0.00488,-0.00488,0.0244,0.00976
0,0.0244,-0.0488,-0.0488,-0.0488,0.0244,0,-0.02928,-0.01464,-0.01464,0.01464,0
-0.00976,0.04392,-0.07808,-0.0732,-0.06832,0.02928,-0.00488,-0.01952,-0.0244,-0.01952,0,0
-0.00976,0.05368,-0.0976,-0.09272,-0.08784,0.03904,-0.00488,-0.02928,-0.03416,-0.03416,-0.00976,0
-0.00976,0.061,-0.11224,-0.10736,-0.10248,0.04636,0.00488,-0.02928,-0.04392,-0.03904,-0.00488,-0.00976
-0.01952,0.06832,-0.11712,-0.10736,-0.0976,0.03904,0.01464,-0.0244,-0.0488,-0.0488,-0.00976,-0.00976
-0.03904,0.0732,-0.10736,-0.08784,-0.06832,0.01464,0.02928,-0.02928,-0.04392,-0.04392,-0.01952,-0.01952
-0.06832,0.09028,-0.11224,-0.07808,-0.04392,-0.0122,0.03904,-0.0244,-0.02928,-0.03904,-0.01952,-0.01952
-0.07808,0.08784,-0.0976,-0.05856,-0.01952,-0.02928,0.05368,-0.0244,-0.02928,-0.04392,-0.01952,-0.02928
-0.08784,0.10004,-0.11224,-0.06832,-0.0244,-0.03172,0.06344,-0.01952,-0.02928,-0.0488,-0.01952,-0.03904
-0.08784,0.11712,-0.1464,-0.10248,-0.05856,-0.01464,0.06344,-0.00976,-0.03904,-0.05856,-0.03416,-0.03904
-0.08784,0.12688,-0.16592,-0.122,-0.07808,-0.00488,0.06344,-0.00976,-0.0488,-0.06832,-0.0488,-0.0488
-0.09272,0.1342,-0.17568,-0.12932,-0.08296,-0.00488,0.06832,-0.00488,-0.05368,-0.06832,-0.04392,-0.05368
-0.09272,0.1342,-0.17568,-0.12932,-0.08296,-0.00488,0.06832,-0.00488,-0.06344,-0.08296,-0.05368,-0.05856
-0.09272,0.1342,-0.17568,-0.12932,-0.08296,-0.00488,0.06344,-0.00976,-0.05368,-0.08784,-0.06344,-0.0732
-0.0976,0.13664,-0.17568,-0.12688,-0.07808,-0.00976,0.06344,-0.01464,-0.06344,-0.09272,-0.06832,-0.0732
-0.10736,0.13908,-0.1708,-0.11712,-0.06344,-0.02196,0.06344,-0.0244,-0.06832,-0.09272,-0.06832,-0.06344
-0.10736,0.13908,-0.1708,-0.11712,-0.06344,-0.02196,0.06344,-0.01952,-0.06832,-0.09272,-0.06832,-0.06832
-0.10736,0.13908,-0.1708,-0.11712,-0.06344,-0.02196,0.06344,-0.01952,-0.07808,-0.09272,-0.0732,-0.07808
-0.10736,0.13664,-0.16592,-0.11224,-0.05856,-0.0244,0.06344,-0.01952,-0.07808,-0.10248,-0.0732,-0.07808
-0.10248,0.13908,-0.17568,-0.12444,-0.0732,-0.01464,0.06832,-0.01952,-0.08296,-0.0976,-0.08296,-0.07808
-0.10248,0.13664,-0.1708,-0.11956,-0.06832,-0.01708,0.06832,-0.01952,-0.08296,-0.10248,-0.08784,-0.07808
-0.11224,0.14884,-0.18544,-0.12932,-0.0732,-0.01952,0.06832,-0.01464,-0.08296,-0.11224,-0.07808,-0.07808
-0.11224,0.1464,-0.18056,-0.12444,-0.06832,-0.02196,0.06832,-0.01464,-0.08296,-0.11224,-0.07808,-0.07808
-0.11224,0.14152,-0.1708,-0.11468,-0.05856,-0.02684,0.06344,-0.0244,-0.09272,-0.12688,-0.08784,-0.08784
-0.11224,0.14152,-0.1708,-0.11468,-0.05856,-0.02684,0.06344,-0.02928,-0.09272,-0.12688,-0.08784,-0.08784
-0.11224,0.13908,-0.16592,-0.1098,-0.05368,-0.02928,0.06344,-0.02928,-0.08296,-0.11224,-0.0976,-0.08784
-0.11224,0.1342,-0.15616,-0.10004,-0.04392,-0.03416,0.0732,-0.02928,-0.08296,-0.11224,-0.09272,-0.08784
-0.09272,0.12688,-0.16104,-0.11468,-0.06832,-0.0122,0.0976,-0.00488,-0.06832,-0.10248,-0.0732,-0.08296
-0.09272,0.11956,-0.1464,-0.10004,-0.05368,-0.01952,0.09272,0.00488,-0.05856,-0.10248,-0.07808,-0.08296
-0.11224,0.12932,-0.1464,-0.09028,-0.03416,-0.03904,0.1464,0.03416,-0.00976,-0.10248,-0.0976,-0.09272
-0.13176,0.14152,-0.15128,-0.0854,-0.01952,-0.05612,0.20984,0.13176,0.10736,-0.08784,-0.122,-0.11712
-0.17568,0.15128,-0.12688,-0.03904,0.0488,-0.11224,0.27328,0.22936,0.26352,-0.04392,-0.11712,-0.13176
-0.1708,0.12932,-0.08784,-0.00244,0.08296,-0.12688,0.31232,0.32208,0.44408,0.0488,-0.05856,-0.11712
-0.13664,0.05856,0.01952,0.08784,0.15616,-0.1464,0.28304,0.35624,0.5124,0.13664,0.01464,-0.05856
-0.01952,-0.0732,0.16592,0.17568,0.18544,-0.10248,0.18544,0.27328,0.5124,0.29768,0.20496,0.08296
0.1708,-0.22204,0.27328,0.18788,0.10248,0.03416,-0.0244,0.10248,0.45872,0.49776,0.45384,0.28792
0.40504,-0.44896,0.49288,0.29036,0.08784,0.1586,-0.30744,-0.1952,0.24888,0.732,0.7564,0.50264
0.65392,-0.72712,0.80032,0.47336,0.1464,0.25376,-0.64416,-0.50752,0.00976,1.05408,1.16144,0.81496
0.88328,-0.99064,1.098,0.65636,0.21472,0.33428,-0.94184,-0.74176,-0.33184,1.31272,1.51768,1.10288
1.0736,-1.11752,1.16144,0.62464,0.08784,0.49288,-1.06872,-0.79544,-0.60024,1.43472,1.708,1.27368
1.15656,-1.01504,0.87352,0.29524,-0.28304,0.7198,-0.93696,-0.60512,-0.57096,1.33712,1.54208,1.15656
1.0492,-0.74908,0.44896,-0.07564,-0.60024,0.82472,-0.78568,-0.56608,-0.68808,0.9028,1.05896,0.854
0.74664,-0.46116,0.17568,-0.19764,-0.57096,0.6588,-0.59536,-0.63928,-0.88328,0.41968,0.59536,0.5612
0.40992,-0.1464,-0.11712,-0.32208,-0.52704,0.46848,-0.44408,-0.83936,-1.3176,-0.366,0.03904,0.244
0.11224,0.061,-0.23424,-0.29036,-0.34648,0.22936,-0.29768,-0.7808,-1.2444,-0.65392,-0.23424,0.05368
0.04392,0.08052,-0.20496,-0.22692,-0.24888,0.1464,-0.20496,-0.47336,-0.73688,-0.3904,-0.16592,0.00976
0.02928,0.04148,-0.11224,-0.12688,-0.14152,0.0854,-0.16104,-0.3416,-0.47336,-0.23912,-0.10248,0.00976
-0.00976,0.09028,-0.1708,-0.16592,-0.16104,0.07564,-0.03416,-0.16592,-0.27328,-0.18544,-0.0976,-0.01952
-0.03416,0.10492,-0.17568,-0.1586,-0.14152,0.05368,0.03416,-0.06344,-0.1464,-0.14152,-0.07808,-0.03904
-0.06344,0.11956,-0.17568,-0.14396,-0.11224,0.0244,0.05368,-0.02928,-0.08296,-0.13176,-0.08784,-0.0488
-0.08296,0.1342,-0.18544,-0.14396,-0.10248,0.00976,0.08296,-0.00976,-0.05368,-0.11224,-0.09272,-0.0732
-0.08784,0.13664,-0.18544,-0.14152,-0.0976,0.00488,0.11712,0.0244,-0.03416,-0.10736,-0.08784,-0.05856
-0.0976,0.1464,-0.1952,-0.1464,-0.0976,0,0.122,0.04392,-0.00976,-0.0976,-0.08784,-0.05856
-0.0976,0.1464,-0.1952,-0.1464,-0.0976,0,0.10736,0.03904,-0.00488,-0.0976,-0.09272,-0.06832
-0.10248,0.14396,-0.18544,-0.1342,-0.08296,-0.00976,0.10248,0.02928,-0.00976,-0.10736,-0.0976,-0.07808
-0.10248,0.13908,-0.17568,-0.12444,-0.0732,-0.01464,0.0976,0.04392,0,-0.10248,-0.0976,-0.08296
-0.0976,0.13664,-0.17568,-0.12688,-0.07808,-0.00976,0.11224,0.05856,0.00976,-0.09272,-0.08784,-0.0732
-0.0976,0.13664,-0.17568,-0.12688,-0.07808,-0.00976,0.10736,0.05856,0.02928,-0.08296,-0.08784,-0.0732
-0.09272,0.14152,-0.19032,-0.14396,-0.0976,0.00244,0.11712,0.06344,0.0244,-0.08296,-0.08296,-0.0732
-0.09272,0.13908,-0.18544,-0.13908,-0.09272,0,0.11712,0.06344,0.02928,-0.08296,-0.08296,-0.0732
-0.09272,0.14396,-0.1952,-0.14884,-0.10248,0.00488,0.11712,0.06832,0.02928,-0.0732,-0.08296,-0.0732
-0.09272,0.13908,-0.18544,-0.13908,-0.09272,0,0.11712,0.06832,0.03416,-0.0732,-0.08296,-0.0732
-0.08784,0.13664,-0.18544,-0.14152,-0.0976,0.00488,0.10736,0.06832,0.03904,-0.07808,-0.08296,-0.0732
-0.08296,0.12688,-0.1708,-0.12932,-0.08784,0.00244,0.10736,0.0732,0.03904,-0.07808,-0.07808,-0.0732
-0.08296,0.122,-0.16104,-0.11956,-0.07808,-0.00244,0.11712,0.06344,0.03904,-0.08296,-0.07808,-0.06832
-0.07808,0.122,-0.16592,-0.12688,-0.08784,0.00488,0.11224,0.06832,0.04392,-0.08296,-0.07808,-0.06832
-0.07808,0.11712,-0.15616,-0.11712,-0.07808,0,0.10248,0.06344,0.0488,-0.08296,-0.08784,-0.06832
-0.07808,0.11956,-0.16104,-0.122,-0.08296,0.00244,0.10248,0.06832,0.0488,-0.07808,-0.08296,-0.06832
-0.07808,0.11956,-0.16104,-0.122,-0.08296,0.00244,0.0976,0.0732,0.0488,-0.07808,-0.08784,-0.07808
-0.07808,0.11712,-0.15616,-0.11712,-0.07808,0,0.09272,0.08296,0.05856,-0.07808,-0.08296,-0.07808
-0.08296,0.12932,-0.17568,-0.1342,-0.09272,0.00488,0.10248,0.09272,0.06832,-0.06344,-0.0732,-0.06832
-0.07808,0.13176,-0.18544,-0.1464,-0.10736,0.01464,0.11224,0.0976,0.08296,-0.06344,-0.06344,-0.06344
-0.07808,0.122,-0.16592,-0.12688,-0.08784,0.00488,0.10248,0.10248,0.0732,-0.06832,-0.0732,-0.06344
-0.07808,0.11468,-0.15128,-0.11224,-0.0732,-0.00244,0.10248,0.10736,0.08296,-0.06832,-0.0732,-0.06344
-0.0732,0.1098,-0.1464,-0.1098,-0.0732,0,0.09272,0.0976,0.08784,-0.06832,-0.06832,-0.06832
-0.0732,0.1098,-0.1464,-0.1098,-0.0732,0,0.09272,0.10248,0.08784,-0.06832,-0.06832,-0.06832
-0.06832,0.10492,-0.14152,-0.10736,-0.0732,0.00244,0.0976,0.11224,0.10248,-0.0488,-0.05856,-0.05368
-0.06344,0.10248,-0.14152,-0.1098,-0.07808,0.00732,0.0976,0.122,0.10736,-0.0488,-0.05856,-0.05368
-0.0732,0.11224,-0.15128,-0.11468,-0.07808,0.00244,0.0976,0.12688,0.11712,-0.03416,-0.0488,-0.04392
-0.06832,0.10492,-0.14152,-0.10736,-0.0732,0.00244,0.0976,0.12688,0.122,-0.02928,-0.04392,-0.04392
-0.05368,0.09272,-0.13176,-0.10492,-0.07808,0.0122,0.08784,0.14152,0.122,-0.03416,-0.0488,-0.0488
-0.0488,0.09028,-0.13176,-0.10736,-0.08296,0.01708,0.08784,0.15616,0.13664,-0.0244,-0.0488,-0.0488
-0.03416,0.07808,-0.122,-0.10492,-0.08784,0.02684,0.08784,0.16592,0.15616,-0.01952,-0.02928,-0.03416
-0.02928,0.07564,-0.122,-0.10736,-0.09272,0.03172,0.08784,0.1708,0.1708,-0.00488,-0.02928,-0.02928
-0.01952,0.06588,-0.11224,-0.10248,-0.09272,0.0366,0.08784,0.19032,0.1708,0,-0.0244,-0.0244
-0.01464,0.06344,-0.11224,-0.10492,-0.0976,0.04148,0.08784,0.20984,0.19032,0.00976,-0.00976,-0.01464
0,0.04636,-0.09272,-0.09272,-0.09272,0.04636,0.08296,0.2196,0.20984,0.01952,-0.00488,-0.00976
0.00976,0.0366,-0.08296,-0.08784,-0.09272,0.05124,0.08296,0.23912,0.23424,0.03904,0.00976,0
0.0244,0.02684,-0.07808,-0.09028,-0.10248,0.06344,0.07808,0.25864,0.244,0.05368,0.01952,0.00976
0.03416,0.01952,-0.0732,-0.09028,-0.10736,0.07076,0.06832,0.28304,0.2684,0.0732,0.03904,0.01952
0.03904,0.00488,-0.0488,-0.06832,-0.08784,0.06344,0.05368,0.28792,0.28792,0.08296,0.04392,0.01952
0.04392,-0.00732,-0.02928,-0.05124,-0.0732,0.05856,0.0488,0.30744,0.30744,0.10736,0.06832,0.03416
0.06832,-0.01952,-0.02928,-0.06344,-0.0976,0.08296,0.03904,0.33184,0.33672,0.13664,0.10248,0.0732
0.07808,-0.0366,-0.00488,-0.04392,-0.08296,0.08052,0.03416,0.34648,0.36112,0.16104,0.12688,0.09272
0.10248,-0.05612,0.00976,-0.04148,-0.09272,0.0976,0.02928,0.366,0.38064,0.19032,0.15616,0.11224
0.11712,-0.07564,0.03416,-0.0244,-0.08296,0.10004,0.01952,0.37088,0.39528,0.2196,0.18544,0.13664
0.14152,-0.11224,0.08296,0.0122,-0.05856,0.10004,0.01464,0.37576,0.40504,0.25864,0.2196,0.15616
0.16104,-0.12688,0.09272,0.0122,-0.06832,0.11468,0.00488,0.37576,0.41968,0.28304,0.24888,0.17568
0.17568,-0.13908,0.10248,0.01464,-0.0732,0.12444,-0.00976,0.38064,0.42944,0.2928,0.26352,0.19032
0.18056,-0.14396,0.10736,0.01708,-0.0732,0.12688,-0.01952,0.3904,0.43432,0.3172,0.27816,0.20984
0.18544,-0.15616,0.12688,0.03416,-0.05856,0.122,-0.02928,0.38552,0.44408,0.3416,0.30744,0.23912
0.19032,-0.17568,0.16104,0.06588,-0.02928,0.1098,-0.03904,0.37576,0.44408,0.35136,0.32208,0.244
0.20496,-0.183,0.16104,0.05856,-0.04392,0.12444,-0.03416,0.38064,0.45384,0.36112,0.33672,0.23912
0.2196,-0.1952,0.1708,0.061,-0.0488,0.1342,-0.03904,0.37088,0.44896,0.37088,0.3416,0.244
0.21472,-0.19276,0.1708,0.06344,-0.04392,0.12932,-0.0488,0.3416,0.42944,0.37576,0.33672,0.25864
0.21472,-0.19032,0.16592,0.05856,-0.0488,0.13176,-0.05368,0.3172,0.4148,0.37088,0.3416,0.25864
0.18544,-0.1708,0.15616,0.06344,-0.02928,0.10736,-0.0488,0.2928,0.3904,0.34648,0.3172,0.23912
0.17568,-0.1586,0.14152,0.05368,-0.03416,0.10492,-0.03904,0.27328,0.36112,0.32696,0.29768,0.2196
0.16592,-0.14396,0.122,0.03904,-0.04392,0.10492,-0.02928,0.244,0.33672,0.29768,0.28304,0.20496
0.14152,-0.11956,0.0976,0.02684,-0.04392,0.09272,-0.01952,0.20984,0.29768,0.25376,0.24888,0.17568
0.122,-0.09272,0.06344,0.00244,-0.05856,0.09028,-0.00976,0.18056,0.26352,0.22936,0.21472,0.16104
0.09272,-0.061,0.02928,-0.01708,-0.06344,0.07808,0.00488,0.16592,0.23424,0.1952,0.17568,0.13176
0.0732,-0.0366,0,-0.0366,-0.0732,0.0732,0.01464,0.15128,0.20496,0.15616,0.1464,0.11224
0.05368,-0.01464,-0.0244,-0.05124,-0.07808,0.06588,0.0244,0.12688,0.18056,0.13176,0.12688,0.09272
0.01952,0.0122,-0.04392,-0.05368,-0.06344,0.04148,0.03904,0.0976,0.15616,0.0976,0.09272,0.05368
0,0.03416,-0.06832,-0.06832,-0.06832,0.03416,0.04392,0.08296,0.122,0.06832,0.05856,0.03904
-0.01952,0.0488,-0.07808,-0.06832,-0.05856,0.01952,0.04392,0.06832,0.10248,0.04392,0.04392,0.03416
-0.0244,0.061,-0.0976,-0.0854,-0.0732,0.0244,0.04392,0.05368,0.08784,0.0244,0.01952,0.01464
-0.03904,0.07564,-0.11224,-0.09272,-0.0732,0.01708,0.05856,0.03904,0.05368,0.00488,0.00488,0
-0.04392,0.08296,-0.122,-0.10004,-0.07808,0.01708,0.06344,0.03416,0.03416,-0.01464,-0.00976,-0.01464
-0.0488,0.0854,-0.122,-0.0976,-0.0732,0.0122,0.05856,0.02928,0.02928,-0.02928,-0.01952,-0.01952
-0.05856,0.0976,-0.13664,-0.10736,-0.07808,0.00976,0.05856,0.0244,0.01952,-0.03416,-0.02928,-0.02928
-0.0732,0.1098,-0.1464,-0.1098,-0.0732,0,0.0732,0.01952,0.00976,-0.03416,-0.04392,-0.03416
-0.08296,0.11956,-0.15616,-0.11468,-0.0732,-0.00488,0.0732,0.01464,0,-0.04392,-0.0488,-0.03904
-0.09272,0.1342,-0.17568,-0.12932,-0.08296,-0.00488,0.0732,0.01464,-0.00488,-0.05368,-0.05368,-0.03904
-0.08784,0.13176,-0.17568,-0.13176,-0.08784,0,0.0732,0.01464,-0.00976,-0.05856,-0.06344,-0.04392
-0.07808,0.11224,-0.1464,-0.10736,-0.06832,-0.00488,0.06832,0,-0.00976,-0.06832,-0.06832,-0.05856
-0.07808,0.10248,-0.12688,-0.08784,-0.0488,-0.01464,0.0732,0,-0.01464,-0.06832,-0.06344,-0.05856
-0.0732,0.10004,-0.12688,-0.09028,-0.05368,-0.00976,0.07808,0,-0.01464,-0.0732,-0.06344,-0.0488
-0.0732,0.10492,-0.13664,-0.10004,-0.06344,-0.00488,0.07808,-0.00488,-0.01464,-0.0732,-0.0732,-0.0488
-0.0732,0.10492,-0.13664,-0.10004,-0.06344,-0.00488,0.06832,0.00488,-0.00976,-0.06344,-0.06344,-0.0488
-0.0732,0.10736,-0.14152,-0.10492,-0.06832,-0.00244,0.06832,0.00488,-0.01464,-0.06344,-0.06344,-0.0488
-0.0732,0.1098,-0.1464,-0.1098,-0.0732,0,0.07808,0.00488,-0.01952,-0.05856,-0.06344,-0.05368
-0.0732,0.10736,-0.14152,-0.10492,-0.06832,-0.00244,0.07808,0.00488,-0.01952,-0.05856,-0.06344,-0.05368
-0.0732,0.1098,-0.1464,-0.1098,-0.0732,0,0.07808,-0.00488,-0.00976,-0.06832,-0.06832,-0.05368
-0.0732,0.1098,-0.1464,-0.1098,-0.0732,0,0.07808,-0.00488,-0.00976,-0.07808,-0.07808,-0.0488
-0.0732,0.11468,-0.15616,-0.11956,-0.08296,0.00488,0.07808,0.00488,-0.01464,-0.06832,-0.06832,-0.0488
-0.0732,0.11956,-0.16592,-0.12932,-0.09272,0.00976,0.07808,0.00488,-0.00976,-0.06832,-0.05856,-0.0488
-0.0732,0.11712,-0.16104,-0.12444,-0.08784,0.00732,0.07808,0.00488,-0.00976,-0.0732,-0.05856,-0.04392
-0.07808,0.12444,-0.1708,-0.13176,-0.09272,0.00732,0.07808,0.00488,-0.00488,-0.0732,-0.06344,-0.04392
-0.08784,0.12688,-0.16592,-0.122,-0.07808,-0.00488,0.08296,0,-0.00488,-0.08296,-0.07808,-0.05368
-0.08784,0.12444,-0.16104,-0.11712,-0.0732,-0.00732,0.08296,0.00976,-0.00488,-0.08296,-0.07808,-0.05368
-0.08784,0.12444,-0.16104,-0.11712,-0.0732,-0.00732,0.08296,0.00488,0,-0.08296,-0.08784,-0.06832
-0.08784,0.12444,-0.16104,-0.11712,-0.0732,-0.00732,0.08784,0.00488,0,-0.08296,-0.07808,-0.06832
-0.07808,0.12444,-0.1708,-0.13176,-0.09272,0.00732,0.08784,0.01464,0.00488,-0.0732,-0.0732,-0.05368
-0.07808,0.12932,-0.18056,-0.14152,-0.10248,0.0122,0.08784,0.01952,0.00976,-0.06832,-0.06832,-0.05368
-0.07808,0.12688,-0.17568,-0.13664,-0.0976,0.00976,0.09272,0.02928,0.01464,-0.06832,-0.0732,-0.05368
-0.07808,0.12688,-0.17568,-0.13664,-0.0976,0.00976,0.08784,0.03416,0.01464,-0.06832,-0.0732,-0.05368
-0.08296,0.122,-0.16104,-0.11956,-0.07808,-0.00244,0.08784,0.0244,0.01464,-0.07808,-0.0732,-0.05368
-0.08784,0.12444,-0.16104,-0.11712,-0.0732,-0.00732,0.08296,0.0244,0.01464,-0.07808,-0.0732,-0.05368
-0.07808,0.11712,-0.15616,-0.11712,-0.07808,0,0.08296,0.0244,0.01464,-0.06344,-0.07808,-0.0488
-0.07808,0.11468,-0.15128,-0.11224,-0.0732,-0.00244,0.08296,0.0244,0.01952,-0.06344,-0.0732,-0.0488
-0.07808,0.11468,-0.15128,-0.11224,-0.0732,-0.00244,0.08296,0.02928,0.00976,-0.06832,-0.06344,-0.0488
-0.07808,0.11468,-0.15128,-0.11224,-0.0732,-0.00244,0.08296,0.02928,0.01464,-0.06832,-0.06832,-0.0488
-0.07808,0.11468,-0.15128,-0.11224,-0.0732,-0.00244,0.07808,0.03416,0.01952,-0.06832,-0.0732,-0.05368
-0.0732,0.10492,-0.13664,-0.10004,-0.06344,-0.00488,0.0732,0.02928,0.01952,-0.06832,-0.05856,-0.05368
-0.08784,0.11224,-0.13664,-0.09272,-0.0488,-0.01952,0.08296,0.02928,0.01952,-0.06832,-0.06832,-0.05368
-0.08296,0.10736,-0.13176,-0.09028,-0.0488,-0.01708,0.07808,0.0244,0.01952,-0.06344,-0.06344,-0.0488
-0.08784,0.11468,-0.14152,-0.0976,-0.05368,-0.01708,0.07808,0.0244,0.01464,-0.05856,-0.06344,-0.0488
-0.08784,0.11224,-0.13664,-0.09272,-0.0488,-0.01952,0.08296,0.0244,0.01464,-0.05856,-0.06344,-0.0488
-0.08784,0.11224,-0.13664,-0.09272,-0.0488,-0.01952,0.07808,0.0244,0.0244,-0.05856,-0.05368,-0.03904
-0.08784,0.11224,-0.13664,-0.09272,-0.0488,-0.01952,0.07808,0.0244,0.0244,-0.05368,-0.0488,-0.03904
-0.0732,0.10492,-0.13664,-0.10004,-0.06344,-0.00488,0.07808,0.0244,0.0244,-0.0488,-0.0488,-0.03416
-0.0732,0.10248,-0.13176,-0.09516,-0.05856,-0.00732,0.0732,0.01952,0.01952,-0.0488,-0.0488,-0.03416
-0.0732,0.10004,-0.12688,-0.09028,-0.05368,-0.00976,0.08296,0.01952,0.01952,-0.0488,-0.0488,-0.0244
-0.0732,0.10492,-0.13664,-0.10004,-0.06344,-0.00488,0.08296,0.01464,0.01952,-0.04392,-0.04392,-0.0244
-0.06832,0.10248,-0.13664,-0.10248,-0.06832,0,0.0732,0.0244,0.01464,-0.0488,-0.0488,-0.0244
-0.06832,0.10248,-0.13664,-0.10248,-0.06832,0,0.0732,0.0244,0.01464,-0.0488,-0.0488,-0.0244
-0.06832,0.10736,-0.1464,-0.11224,-0.07808,0.00488,0.07808,0.01952,0.0244,-0.03904,-0.03904,-0.0244
-0.0732,0.1098,-0.1464,-0.1098,-0.0732,0,0.08784,0.01952,0.01952,-0.03904,-0.04392,-0.02928
-0.0732,0.10736,-0.14152,-0.10492,-0.06832,-0.00244,0.07808,0.01952,0.01952,-0.0488,-0.05856,-0.03416
-0.0732,0.11224,-0.15128,-0.11468,-0.07808,0.00244,0.08296,0.01952,0.01464,-0.0488,-0.05368,-0.03416
-0.0732,0.1098,-0.1464,-0.1098,-0.0732,0,0.08296,0.01952,0.01464,-0.05368,-0.05368,-0.03416
-0.0732,0.1098,-0.1464,-0.1098,-0.0732,0,0.08296,0.01952,0.01464,-0.05368,-0.05368,-0.03416
-0.07808,0.11712,-0.15616,-0.11712,-0.07808,0,0.08296,0.01464,0.00976,-0.05368,-0.0488,-0.02928
-0.07808,0.11468,-0.15128,-0.11224,-0.0732,-0.00244,0.08296,0.01464,0.00976,-0.05856,-0.0488,-0.02928
-0.0732,0.11224,-0.15128,-0.11468,-0.07808,0.00244,0.0732,0.01464,0.00976,-0.05856,-0.05368,-0.03904
-0.0732,0.11224,-0.15128,-0.11468,-0.07808,0.00244,0.0732,0.01464,0.00976,-0.05856,-0.04392,-0.03904
-0.08296,0.122,-0.16104,-0.11956,-0.07808,-0.00244,0.07808,0.00976,0.00976,-0.05856,-0.05368,-0.03416
-0.08296,0.122,-0.16104,-0.11956,-0.07808,-0.00244,0.07808,0.00488,0.00976,-0.05856,-0.05368,-0.03416
-0.08296,0.11712,-0.15128,-0.1098,-0.06832,-0.00732,0.06832,0,0,-0.05856,-0.06344,-0.04392
-0.08296,0.11468,-0.1464,-0.10492,-0.06344,-0.00976,0.06832,0,-0.00488,-0.05856,-0.06344,-0.04392
-0.08296,0.11956,-0.15616,-0.11468,-0.0732,-0.00488,0.06832,0.00976,-0.00488,-0.05856,-0.06344,-0.0488
-0.08296,0.11712,-0.15128,-0.1098,-0.06832,-0.00732,0.06832,0.00488,-0.00976,-0.05856,-0.06344,-0.0488
-0.08296,0.11712,-0.15128,-0.1098,-0.06832,-0.00732,0.0732,0.01464,-0.00488,-0.06344,-0.05856,-0.03904
-0.07808,0.11712,-0.15616,-0.11712,-0.07808,0,0.07808,0.01464,0,-0.05856,-0.05856,-0.04392
-0.07808,0.11468,-0.15128,-0.11224,-0.0732,-0.00244,0.0732,0.00488,-0.01952,-0.06832,-0.0732,-0.05368
-0.07808,0.1098,-0.14152,-0.10248,-0.06344,-0.00732,0.06832,-0.00976,-0.01464,-0.06832,-0.06832,-0.05368
-0.06832,0.1098,-0.15128,-0.11712,-0.08296,0.00732,0.0732,0,-0.01464,-0.06832,-0.06832,-0.04392
-0.06832,0.10736,-0.1464,-0.11224,-0.07808,0.00488,0.07808,0,-0.01464,-0.06832,-0.06832,-0.04392
-0.07808,0.11468,-0.15128,-0.11224,-0.0732,-0.00244,0.07808,0,-0.00976,-0.06344,-0.05856,-0.04392
-0.07808,0.10736,-0.13664,-0.0976,-0.05856,-0.00976,0.0732,0,-0.00488,-0.06344,-0.05856,-0.03904
-0.06344,0.09516,-0.12688,-0.09516,-0.06344,0,0.0732,0.00976,0.01464,-0.0488,-0.04392,-0.01952
-0.06344,0.0854,-0.10736,-0.07564,-0.04392,-0.00976,0.07808,0.00976,0.0244,-0.03904,-0.02928,-0.01952
-0.05856,0.06344,-0.06832,-0.03904,-0.00976,-0.0244,0.09272,0.00976,0.03416,-0.02928,-0.02928,-0.01464
-0.05856,0.0732,-0.08784,-0.05856,-0.02928,-0.01464,0.0976,0.00976,0.03904,-0.01952,-0.01952,-0.00976
-0.05856,0.0732,-0.08784,-0.05856,-0.02928,-0.01464,0.0976,0.00976,0.03904,-0.01952,-0.01952,-0.00976
-0.05856,0.06832,-0.07808,-0.0488,-0.01952,-0.01952,0.0976,0.00976,0.0488,-0.01952,-0.01952,-0.00976
-0.05856,0.06832,-0.07808,-0.0488,-0.01952,-0.01952,0.09272,0.00976,0.0488,-0.01464,-0.01952,-0.00488
-0.05368,0.05124,-0.0488,-0.02196,0.00488,-0.02928,0.06344,-0.00488,0.03904,-0.01464,-0.01464,-0.00488
-0.0488,0.04392,-0.03904,-0.01464,0.00976,-0.02928,0.03416,-0.0244,0.03416,-0.01464,-0.00976,-0.00488
-0.04392,0.03416,-0.0244,-0.00244,0.01952,-0.03172,-0.00488,-0.03904,0.0244,-0.00976,-0.00976,0.00976
-0.02928,0.0244,-0.01952,-0.00488,0.00976,-0.01952,-0.01464,-0.04392,0.01952,-0.00488,0,0.01464
-0.02928,0.02684,-0.0244,-0.00976,0.00488,-0.01708,-0.00976,-0.0488,0.00976,-0.00488,0,0.01464
-0.01464,0.0122,-0.00976,-0.00244,0.00488,-0.00976,-0.00488,-0.02928,0.01952,-0.00488,0.00488,0.01952
0,0.00732,-0.01464,-0.01464,-0.01464,0.00732,0.00976,-0.00976,0.01952,0,0.00976,0.0244
0,0.0122,-0.0244,-0.0244,-0.0244,0.0122,0.01952,-0.00976,0.01464,-0.00488,0.00976,0.01952
-0.00488,0.02196,-0.03904,-0.0366,-0.03416,0.01464,0.01464,-0.00976,0.00488,-0.00488,0.00488,0.01952
-0.00976,0.04636,-0.08296,-0.07808,-0.0732,0.03172,0.01952,-0.00976,-0.00488,-0.01464,-0.00488,0.00976
-0.01952,0.05856,-0.0976,-0.08784,-0.07808,0.02928,0.01464,-0.00976,-0.01464,-0.03904,-0.02928,0
-0.01952,0.06832,-0.11712,-0.10736,-0.0976,0.03904,0.01464,-0.01952,-0.0244,-0.05368,-0.03904,0
-0.01952,0.07564,-0.13176,-0.122,-0.11224,0.04636,0.0244,-0.01952,-0.0244,-0.05368,-0.03416,-0.00976
-0.02928,0.08296,-0.13664,-0.122,-0.10736,0.03904,0.03416,-0.01464,-0.02928,-0.05368,-0.03904,-0.00976
-0.04392,0.09028,-0.13664,-0.11468,-0.09272,0.0244,0.03904,-0.01952,-0.03416,-0.05368,-0.02928,-0.00976
-0.06344,0.10248,-0.14152,-0.1098,-0.07808,0.00732,0.0488,-0.01464,-0.01952,-0.0488,-0.02928,-0.00976
-0.07808,0.10736,-0.13664,-0.0976,-0.05856,-0.00976,0.06344,-0.01464,-0.01952,-0.04392,-0.03904,-0.02928
-0.08784,0.11956,-0.15128,-0.10736,-0.06344,-0.0122,0.0732,-0.00976,-0.01952,-0.0488,-0.03904,-0.03904
-0.0976,0.13664,-0.17568,-0.12688,-0.07808,-0.00976,0.08296,0,-0.01952,-0.06832,-0.05368,-0.0488
-0.0976,0.1464,-0.1952,-0.1464,-0.0976,0,0.08296,0,-0.02928,-0.07808,-0.06832,-0.05856
-0.10248,0.14884,-0.1952,-0.14396,-0.09272,-0.00488,0.07808,-0.00488,-0.03416,-0.07808,-0.0732,-0.06344
-0.10248,0.14884,-0.1952,-0.14396,-0.09272,-0.00488,0.07808,-0.00488,-0.04392,-0.09272,-0.08296,-0.06832
-0.10248,0.15128,-0.20008,-0.14884,-0.0976,-0.00244,0.09272,-0.00488,-0.04392,-0.08784,-0.08296,-0.06344
-0.10736,0.1586,-0.20984,-0.15616,-0.10248,-0.00244,0.09272,0,-0.05368,-0.09272,-0.08784,-0.06344
-0.11712,0.16836,-0.2196,-0.16104,-0.10248,-0.00732,0.09272,-0.00488,-0.0488,-0.10248,-0.08784,-0.0732
-0.11712,0.16836,-0.2196,-0.16104,-0.10248,-0.00732,0.09272,0,-0.0488,-0.10248,-0.08784,-0.07808
-0.10736,0.16592,-0.22448,-0.1708,-0.11712,0.00488,0.09272,-0.00976,-0.05856,-0.10736,-0.10248,-0.07808
-0.10736,0.1586,-0.20984,-0.15616,-0.10248,-0.00244,0.09272,-0.00976,-0.05856,-0.10736,-0.10248,-0.07808
-0.11224,0.16836,-0.22448,-0.16836,-0.11224,0,0.08784,0,-0.05368,-0.10736,-0.10248,-0.07808
-0.11224,0.16592,-0.2196,-0.16348,-0.10736,-0.00244,0.08784,0,-0.05368,-0.11224,-0.10736,-0.07808
-0.11224,0.16348,-0.21472,-0.1586,-0.10248,-0.00488,0.08784,-0.00488,-0.05368,-0.11224,-0.0976,-0.07808
-0.11224,0.16104,-0.20984,-0.15372,-0.0976,-0.00732,0.08784,-0.00488,-0.05368,-0.11224,-0.0976,-0.07808
-0.11224,0.16592,-0.2196,-0.16348,-0.10736,-0.00244,0.09272,0.00488,-0.05368,-0.10736,-0.0976,-0.06832
-0.11224,0.16592,-0.2196,-0.16348,-0.10736,-0.00244,0.09272,0,-0.05368,-0.10736,-0.0976,-0.06832
-0.11224,0.16592,-0.2196,-0.16348,-0.10736,-0.00244,0.0976,0,-0.05368,-0.10248,-0.0976,-0.06832
-0.11224,0.16592,-0.2196,-0.16348,-0.10736,-0.00244,0.0976,0,-0.05368,-0.10248,-0.09272,-0.06832
-0.10248,0.1708,-0.23912,-0.18788,-0.13664,0.01708,0.10736,0.01464,-0.03904,-0.08296,-0.0732,-0.06344
-0.09272,0.1586,-0.22448,-0.17812,-0.13176,0.01952,0.10248,0.01464,-0.03904,-0.09272,-0.08784,-0.06344
-0.10248,0.17324,-0.244,-0.19276,-0.14152,0.01952,0.15616,0.06344,0,-0.08296,-0.0976,-0.0732
-0.11224,0.1708,-0.22936,-0.17324,-0.11712,0.00244,0.2196,0.15128,0.10736,-0.08784,-0.122,-0.10736
-0.16592,0.18056,-0.1952,-0.11224,-0.02928,-0.06832,0.2928,0.23912,0.26352,-0.03416,-0.11712,-0.11224
-0.19032,0.16348,-0.13664,-0.04148,0.05368,-0.122,0.33184,0.3416,0.44408,0.0488,-0.08784,-0.10736
-0.15616,0.09272,-0.02928,0.0488,0.12688,-0.14152,0.32208,0.38552,0.5124,0.11712,-0.00488,-0.06832
-0.05856,-0.00488,0.06832,0.0976,0.12688,-0.09272,0.23424,0.35136,0.5612,0.29768,0.18544,0.08296
0.15128,-0.17324,0.1952,0.11956,0.04392,0.05368,0.03416,0.1708,0.50752,0.47824,0.4148,0.2684
0.39528,-0.3904,0.38552,0.18788,-0.00976,0.20252,-0.22936,-0.11712,0.32696,0.69296,0.68808,0.48312
0.62464,-0.6588,0.69296,0.38064,0.06832,0.27816,-0.55632,-0.4392,0.0976,0.98576,1.08336,0.79544
0.87352,-0.92232,0.97112,0.53436,0.0976,0.38796,-0.88328,-0.71248,-0.23424,1.2444,1.44936,1.0736
1.0736,-1.07848,1.08336,0.54656,0.00976,0.53192,-1.02968,-0.8052,-0.5612,1.35664,1.64944,1.25416
1.18584,-1.01992,0.854,0.26108,-0.33184,0.75884,-0.93696,-0.66368,-0.59048,1.2688,1.5128,1.16632
1.10776,-0.7686,0.42944,-0.12444,-0.67832,0.89304,-0.77592,-0.57584,-0.67832,0.84424,1.03944,0.87352
0.8052,-0.48556,0.16592,-0.23668,-0.63928,0.72224,-0.60512,-0.6588,-0.87352,0.40016,0.5856,0.57096
0.46848,-0.16104,-0.1464,-0.38064,-0.61488,0.54168,-0.42456,-0.81984,-1.23952,-0.28792,0.07808,0.27328
0.15128,0.04148,-0.23424,-0.30988,-0.38552,0.2684,-0.3172,-0.83936,-1.30296,-0.69296,-0.27328,0.03416
0.03416,0.09028,-0.21472,-0.2318,-0.24888,0.14152,-0.20496,-0.50264,-0.77592,-0.42944,-0.20496,0
0.01952,0.04636,-0.11224,-0.122,-0.13176,0.07564,-0.1708,-0.35136,-0.50264,-0.2684,-0.122,0.00976
-0.00976,0.09516,-0.18056,-0.17568,-0.1708,0.08052,-0.04392,-0.17568,-0.27328,-0.17568,-0.0976,-0.01952
-0.0244,0.10492,-0.18544,-0.17324,-0.16104,0.06832,0.0244,-0.06344,-0.1464,-0.15128,-0.0976,-0.02928
-0.04392,0.11956,-0.1952,-0.17324,-0.15128,0.05368,0.05368,-0.02928,-0.0732,-0.13176,-0.11712,-0.0488
-0.0732,0.1342,-0.1952,-0.1586,-0.122,0.0244,0.08296,0.00976,-0.04392,-0.11224,-0.11224,-0.06344
-0.07808,0.1464,-0.21472,-0.17568,-0.13664,0.02928,0.10736,0.03416,-0.0244,-0.10736,-0.10736,-0.06832
-0.0976,0.15616,-0.21472,-0.16592,-0.11712,0.00976,0.122,0.05368,0,-0.10736,-0.0976,-0.05856
-0.0976,0.15616,-0.21472,-0.16592,-0.11712,0.00976,0.10736,0.0488,0.00488,-0.10736,-0.10248,-0.06832
-0.10248,0.15372,-0.20496,-0.15372,-0.10248,0,0.11224,0.0488,0,-0.10736,-0.11712,-0.06832
-0.10248,0.15372,-0.20496,-0.15372,-0.10248,0,0.11712,0.06344,0.00976,-0.10248,-0.11712,-0.0732
-0.10736,0.16104,-0.21472,-0.16104,-0.10736,0,0.122,0.06832,0.01952,-0.09272,-0.10736,-0.0732
-0.10736,0.16104,-0.21472,-0.16104,-0.10736,0,0.11712,0.06832,0.02928,-0.08296,-0.10736,-0.0732
-0.09272,0.15616,-0.2196,-0.17324,-0.12688,0.01708,0.12688,0.0732,0.03416,-0.08296,-0.09272,-0.0732
-0.09272,0.15372,-0.21472,-0.16836,-0.122,0.01464,0.12688,0.0732,0.03904,-0.08296,-0.09272,-0.0732
-0.09272,0.14884,-0.20496,-0.1586,-0.11224,0.00976,0.11712,0.08784,0.03904,-0.09272,-0.09272,-0.0732
-0.09272,0.14396,-0.1952,-0.14884,-0.10248,0.00488,0.11712,0.08784,0.04392,-0.09272,-0.09272,-0.0732
-0.07808,0.13664,-0.1952,-0.15616,-0.11712,0.01952,0.11712,0.07808,0.0488,-0.08784,-0.10248,-0.0732
-0.0732,0.122,-0.1708,-0.1342,-0.0976,0.0122,0.11712,0.08296,0.0488,-0.08784,-0.0976,-0.0732
-0.08296,0.13176,-0.18056,-0.13908,-0.0976,0.00732,0.11712,0.08296,0.0488,-0.08296,-0.0976,-0.06832
-0.07808,0.13176,-0.18544,-0.1464,-0.10736,0.01464,0.11224,0.08784,0.05368,-0.08296,-0.0976,-0.06832
-0.07808,0.13176,-0.18544,-0.1464,-0.10736,0.01464,0.11224,0.08296,0.05856,-0.08296,-0.0976,-0.06832
-0.07808,0.1342,-0.19032,-0.15128,-0.11224,0.01708,0.11224,0.08784,0.05856,-0.07808,-0.09272,-0.06832
-0.06832,0.12444,-0.18056,-0.1464,-0.11224,0.02196,0.10736,0.08296,0.05856,-0.07808,-0.0976,-0.06832
-0.06832,0.122,-0.17568,-0.14152,-0.10736,0.01952,0.10248,0.09272,0.06832,-0.07808,-0.09272,-0.06832
-0.0732,0.12932,-0.18544,-0.14884,-0.11224,0.01952,0.11224,0.10248,0.07808,-0.06344,-0.08296,-0.05856
-0.06832,0.13176,-0.1952,-0.16104,-0.12688,0.02928,0.11224,0.10736,0.09272,-0.05368,-0.0732,-0.04392
-0.07808,0.13176,-0.18544,-0.1464,-0.10736,0.01464,0.10248,0.10248,0.08296,-0.05856,-0.08296,-0.05368
-0.07808,0.12444,-0.1708,-0.13176,-0.09272,0.00732,0.09272,0.10736,0.09272,-0.06832,-0.08296,-0.06344
-0.0732,0.12444,-0.17568,-0.13908,-0.10248,0.01464,0.10248,0.10736,0.0976,-0.05856,-0.07808,-0.05856
-0.0732,0.12444,-0.17568,-0.13908,-0.10248,0.01464,0.10248,0.11224,0.0976,-0.05856,-0.07808,-0.05856
-0.06832,0.11468,-0.16104,-0.12688,-0.09272,0.0122,0.0976,0.122,0.11224,-0.0488,-0.07808,-0.04392
-0.06344,0.11224,-0.16104,-0.12932,-0.0976,0.01708,0.0976,0.13176,0.11712,-0.0488,-0.07808,-0.04392
-0.05368,0.11224,-0.1708,-0.14396,-0.11712,0.03172,0.0976,0.1464,0.12688,-0.03416,-0.06832,-0.04392
-0.0488,0.1098,-0.1708,-0.1464,-0.122,0.0366,0.0976,0.1464,0.13176,-0.02928,-0.06344,-0.04392
-0.04392,0.10248,-0.16104,-0.13908,-0.11712,0.0366,0.08784,0.15128,0.13176,-0.03416,-0.06832,-0.0488
-0.03904,0.10004,-0.16104,-0.14152,-0.122,0.04148,0.08784,0.16592,0.1464,-0.0244,-0.05856,-0.0488
-0.03416,0.09272,-0.15128,-0.1342,-0.11712,0.04148,0.08784,0.18544,0.15616,-0.02928,-0.0488,-0.03416
-0.02928,0.09028,-0.15128,-0.13664,-0.122,0.04636,0.08784,0.19032,0.1708,-0.01464,-0.0488,-0.02928
-0.01952,0.08052,-0.14152,-0.13176,-0.122,0.05124,0.08784,0.20008,0.18056,0,-0.03416,-0.01464
-0.01464,0.08296,-0.15128,-0.14396,-0.13664,0.061,0.08784,0.2196,0.20008,0.00976,-0.01952,-0.00488
-0.00976,0.07564,-0.14152,-0.13664,-0.13176,0.061,0.0732,0.22936,0.20984,0.00976,-0.01464,-0.00976
0,0.06588,-0.13176,-0.13176,-0.13176,0.06588,0.0732,0.24888,0.23424,0.02928,0,0
0.0244,0.04636,-0.11712,-0.12932,-0.14152,0.08296,0.05856,0.25864,0.244,0.04392,0,0.00976
0.03416,0.03416,-0.10248,-0.11956,-0.13664,0.0854,0.0488,0.28304,0.2684,0.06344,0.01952,0.01952
0.05856,0.00976,-0.07808,-0.10736,-0.13664,0.0976,0.05368,0.29768,0.28792,0.08296,0.03416,0.03904
0.0732,-0.00732,-0.05856,-0.09516,-0.13176,0.10248,0.0488,0.3172,0.30744,0.10736,0.05856,0.05368
0.10736,-0.03416,-0.03904,-0.09272,-0.1464,0.12688,0.03904,0.3416,0.3172,0.12688,0.08296,0.08296
0.11712,-0.05124,-0.01464,-0.0732,-0.13176,0.12444,0.03416,0.35624,0.3416,0.15128,0.10736,0.10248
0.14152,-0.06588,-0.00976,-0.08052,-0.15128,0.1464,0.02928,0.38552,0.37088,0.18056,0.13664,0.122
0.15616,-0.0854,0.01464,-0.06344,-0.14152,0.14884,0.01952,0.3904,0.38552,0.20984,0.16592,0.1464
0.18056,-0.122,0.06344,-0.02684,-0.11712,0.14884,0.00488,0.40504,0.39528,0.23912,0.19032,0.16592
0.20008,-0.13664,0.0732,-0.02684,-0.12688,0.16348,-0.00488,0.40504,0.40992,0.26352,0.2196,0.18544
0.20496,-0.15372,0.10248,0,-0.10248,0.15372,-0.01952,0.40016,0.40992,0.27328,0.23424,0.19032
0.20984,-0.16348,0.11712,0.0122,-0.09272,0.15128,-0.02928,0.40016,0.40504,0.29768,0.25864,0.20984
0.22448,-0.1708,0.11712,0.00488,-0.10736,0.16592,-0.0488,0.39528,0.4148,0.32208,0.27816,0.22936
0.22936,-0.18056,0.13176,0.01708,-0.0976,0.16348,-0.05856,0.38552,0.4148,0.33184,0.2928,0.23424
0.244,-0.19764,0.15128,0.02928,-0.09272,0.16836,-0.06344,0.3904,0.4148,0.33184,0.29768,0.23912
0.24888,-0.20496,0.16104,0.0366,-0.08784,0.16836,-0.06832,0.38064,0.40992,0.3416,0.30256,0.244
0.244,-0.19764,0.15128,0.02928,-0.09272,0.16836,-0.06832,0.35136,0.40016,0.34648,0.30744,0.24888
0.23424,-0.19032,0.1464,0.02928,-0.08784,0.16104,-0.0732,0.32696,0.38552,0.3416,0.31232,0.24888
0.21472,-0.18056,0.1464,0.03904,-0.06832,0.14152,-0.07808,0.2928,0.37088,0.3172,0.29768,0.22936
0.20496,-0.17324,0.14152,0.03904,-0.06344,0.1342,-0.06832,0.27328,0.3416,0.29768,0.27816,0.2196
0.1952,-0.15372,0.11224,0.01464,-0.08296,0.13908,-0.05856,0.25376,0.3172,0.28792,0.26352,0.20496
0.1708,-0.12932,0.08784,0.00244,-0.08296,0.12688,-0.0488,0.2196,0.27816,0.244,0.22936,0.17568
0.15128,-0.10736,0.06344,-0.0122,-0.08784,0.11956,-0.03904,0.18056,0.25376,0.20984,0.1952,0.16104
0.122,-0.08052,0.03904,-0.02196,-0.08296,0.10248,-0.0244,0.16592,0.23424,0.17568,0.15616,0.13176
0.09272,-0.05124,0.00976,-0.0366,-0.08296,0.08784,-0.00488,0.15128,0.1952,0.1464,0.12688,0.11224
0.0732,-0.02928,-0.01464,-0.05124,-0.08784,0.08052,0.00488,0.12688,0.1708,0.13176,0.0976,0.09272
0.0488,-0.00244,-0.04392,-0.06832,-0.09272,0.07076,0.01952,0.0976,0.15616,0.08784,0.0732,0.06344
0.02928,0.01952,-0.06832,-0.08296,-0.0976,0.06344,0.0244,0.08296,0.122,0.05856,0.0488,0.0488
0,0.0488,-0.0976,-0.0976,-0.0976,0.0488,0.03416,0.07808,0.10248,0.04392,0.03416,0.03416
-0.00488,0.061,-0.11712,-0.11468,-0.11224,0.05368,0.03416,0.06344,0.08784,0.03416,0.00976,0.01464
-0.02928,0.08052,-0.13176,-0.11712,-0.10248,0.0366,0.02928,0.03904,0.06344,0.00488,-0.01464,0.00976
-0.03416,0.08784,-0.14152,-0.12444,-0.10736,0.0366,0.03416,0.0244,0.04392,-0.0244,-0.03904,-0.00488
-0.0488,0.09516,-0.14152,-0.11712,-0.09272,0.02196,0.0488,0.02928,0.03904,-0.02928,-0.03904,-0.01952
-0.05856,0.10248,-0.1464,-0.11712,-0.08784,0.01464,0.0488,0.0244,0.02928,-0.03416,-0.0488,-0.02928
-0.05368,0.09516,-0.13664,-0.1098,-0.08296,0.01464,0.05368,0.01952,0.01952,-0.04392,-0.05368,-0.0244
-0.04392,0.09028,-0.13664,-0.11468,-0.09272,0.0244,0.05368,0.01464,0.00976,-0.05368,-0.05856,-0.02928
-0.05368,0.10004,-0.1464,-0.11956,-0.09272,0.01952,0.05368,0.01464,0.01464,-0.05368,-0.06344,-0.03904
-0.0488,0.0976,-0.1464,-0.122,-0.0976,0.0244,0.05368,0.01464,0.00976,-0.05856,-0.0732,-0.04392
-0.05856,0.10736,-0.15616,-0.12688,-0.0976,0.01952,0.05856,0.00976,0,-0.05856,-0.06832,-0.03904
-0.05856,0.10736,-0.15616,-0.12688,-0.0976,0.01952,0.06344,0.00976,-0.00488,-0.05856,-0.06344,-0.03904
-0.0732,0.11468,-0.15616,-0.11956,-0.08296,0.00488,0.05856,0,0.00488,-0.06344,-0.06344,-0.03904
-0.08296,0.12444,-0.16592,-0.12444,-0.08296,0,0.05856,-0.00488,0.00488,-0.06344,-0.0732,-0.03904
-0.0732,0.11468,-0.15616,-0.11956,-0.08296,0.00488,0.05856,-0.00488,-0.00976,-0.06344,-0.08296,-0.0488
-0.06344,0.11224,-0.16104,-0.12932,-0.0976,0.01708,0.05856,-0.00488,-0.01464,-0.06344,-0.08296,-0.0488
-0.05368,0.10492,-0.15616,-0.12932,-0.10248,0.0244,0.06832,0.00488,0,-0.06832,-0.0732,-0.04392
-0.05368,0.10248,-0.15128,-0.12444,-0.0976,0.02196,0.06832,0.00488,0,-0.06832,-0.0732,-0.04392
-0.06344,0.11956,-0.17568,-0.14396,-0.11224,0.0244,0.05856,0.00488,0,-0.06832,-0.06832,-0.05368
-0.06344,0.11956,-0.17568,-0.14396,-0.11224,0.0244,0.05856,0.00488,0,-0.06832,-0.07808,-0.0488
-0.05368,0.11468,-0.17568,-0.14884,-0.122,0.03416,0.05856,0.00488,-0.00488,-0.06832,-0.07808,-0.0488
-0.05368,0.11956,-0.18544,-0.1586,-0.13176,0.03904,0.05856,0.00488,0,-0.06832,-0.07808,-0.0488
-0.05368,0.10736,-0.16104,-0.1342,-0.10736,0.02684,0.05856,-0.00488,-0.00976,-0.0732,-0.08784,-0.05368
-0.05856,0.11468,-0.1708,-0.14152,-0.11224,0.02684,0.05856,-0.00488,-0.00488,-0.0732,-0.09272,-0.05368
-0.06832,0.12688,-0.18544,-0.15128,-0.11712,0.0244,0.06344,0.00976,0.00488,-0.0732,-0.08784,-0.04392
-0.06832,0.12444,-0.18056,-0.1464,-0.11224,0.02196,0.06344,0.01952,0.00488,-0.0732,-0.08784,-0.04392
-0.06832,0.12444,-0.18056,-0.1464,-0.11224,0.02196,0.06344,0.01464,0.00976,-0.0732,-0.08784,-0.0488
-0.06832,0.12444,-0.18056,-0.1464,-0.11224,0.02196,0.06832,0.01464,0.00976,-0.0732,-0.07808,-0.0488
-0.06832,0.12444,-0.18056,-0.1464,-0.11224,0.02196,0.06832,0.01464,0.01464,-0.0732,-0.08296,-0.04392
-0.06832,0.12444,-0.18056,-0.1464,-0.11224,0.02196,0.06832,0.01952,0.01952,-0.06832,-0.07808,-0.04392
-0.06832,0.11712,-0.16592,-0.13176,-0.0976,0.01464,0.0732,0.00976,0.01464,-0.07808,-0.09272,-0.05368
-0.06832,0.11224,-0.15616,-0.122,-0.08784,0.00976,0.06832,0.01464,0.01464,-0.07808,-0.09272,-0.05368
-0.0732,0.11712,-0.16104,-0.12444,-0.08784,0.00732,0.05856,0.01464,0.01464,-0.07808,-0.08296,-0.05368
-0.07808,0.11956,-0.16104,-0.122,-0.08296,0.00244,0.05368,0.01464,0.01464,-0.07808,-0.08296,-0.05368
-0.06832,0.10736,-0.1464,-0.11224,-0.07808,0.00488,0.05368,0.01464,0.01464,-0.0732,-0.08784,-0.05856
-0.06832,0.10004,-0.13176,-0.0976,-0.06344,-0.00244,0.05368,0.01464,0.01952,-0.0732,-0.08296,-0.05856
-0.06832,0.1098,-0.15128,-0.11712,-0.08296,0.00732,0.06344,0.02928,0.01952,-0.05856,-0.08296,-0.0488
-0.06832,0.11468,-0.16104,-0.12688,-0.09272,0.0122,0.06344,0.02928,0.0244,-0.05856,-0.08784,-0.03904
-0.07808,0.11956,-0.16104,-0.122,-0.08296,0.00244,0.05856,0.01464,0.01952,-0.06832,-0.09272,-0.04392
-0.0732,0.11468,-0.15616,-0.11956,-0.08296,0.00488,0.04392,0,0.01952,-0.06832,-0.07808,-0.04392
-0.06832,0.10736,-0.1464,-0.11224,-0.07808,0.00488,0.05368,0.00976,0.02928,-0.05856,-0.07808,-0.04392
-0.06344,0.10248,-0.14152,-0.1098,-0.07808,0.00732,0.0488,0.01464,0.02928,-0.05368,-0.0732,-0.03904
-0.0488,0.09028,-0.13176,-0.10736,-0.08296,0.01708,0.05856,0.01464,0.03416,-0.0488,-0.0732,-0.02928
-0.03904,0.07808,-0.11712,-0.0976,-0.07808,0.01952,0.06344,0.01464,0.03416,-0.0488,-0.0732,-0.02928
-0.0488,0.08784,-0.12688,-0.10248,-0.07808,0.01464,0.05856,0.0244,0.0244,-0.0488,-0.06344,-0.02928
-0.0488,0.08784,-0.12688,-0.10248,-0.07808,0.01464,0.05856,0.0244,0.0244,-0.04392,-0.05856,-0.02928
-0.05368,0.09516,-0.13664,-0.1098,-0.08296,0.01464,0.05856,0.01464,0.03416,-0.0488,-0.05856,-0.03416
-0.05368,0.09272,-0.13176,-0.10492,-0.07808,0.0122,0.05368,0.00976,0.02928,-0.0488,-0.05856,-0.03416
-0.04392,0.07564,-0.10736,-0.0854,-0.06344,0.00976,0.04392,0.00976,0.01952,-0.05856,-0.06832,-0.03416
-0.04392,0.08052,-0.11712,-0.09516,-0.0732,0.01464,0.04392,0.00488,0.01952,-0.05368,-0.06344,-0.03416
-0.03904,0.08296,-0.12688,-0.10736,-0.08784,0.0244,0.05368,0.01464,0.0244,-0.0488,-0.05856,-0.04392
-0.03904,0.08296,-0.12688,-0.10736,-0.08784,0.0244,0.05368,0.01464,0.0244,-0.0488,-0.05856,-0.04392
-0.03904,0.08296,-0.12688,-0.10736,-0.08784,0.0244,0.0488,0,0.0244,-0.05856,-0.05856,-0.03416
-0.04392,0.0854,-0.12688,-0.10492,-0.08296,0.01952,0.0488,0,0.01952,-0.05856,-0.06344,-0.03904
-0.04392,0.09272,-0.14152,-0.11956,-0.0976,0.02684,0.0488,0,0.01952,-0.0488,-0.05856,-0.03416
-0.04392,0.0976,-0.15128,-0.12932,-0.10736,0.03172,0.05368,0,0.01464,-0.0488,-0.05368,-0.03416
-0.05368,0.09516,-0.13664,-0.1098,-0.08296,0.01464,0.05368,0,0.01464,-0.05368,-0.06344,-0.03416
-0.05368,0.09028,-0.12688,-0.10004,-0.0732,0.00976,0.05368,0,0.01464,-0.05368,-0.06344,-0.03416
-0.0488,0.08296,-0.11712,-0.09272,-0.06832,0.00976,0.04392,-0.01464,0,-0.06344,-0.07808,-0.0488
-0.0488,0.08052,-0.11224,-0.08784,-0.06344,0.00732,0.04392,-0.01464,0,-0.06832,-0.07808,-0.0488
-0.06344,0.09272,-0.122,-0.09028,-0.05856,-0.00244,0.04392,-0.01464,0,-0.06832,-0.08296,-0.0488
-0.06344,0.09272,-0.122,-0.09028,-0.05856,-0.00244,0.04392,-0.01464,0,-0.06832,-0.0732,-0.0488
-0.05368,0.0976,-0.14152,-0.11468,-0.08784,0.01708,0.0488,0,0,-0.05856,-0.0732,-0.04392
-0.05368,0.0976,-0.14152,-0.11468,-0.08784,0.01708,0.0488,-0.00488,0,-0.05856,-0.0732,-0.04392
-0.05368,0.0976,-0.14152,-0.11468,-0.08784,0.01708,0.0488,-0.00976,0,-0.06832,-0.0732,-0.04392
-0.05368,0.10004,-0.1464,-0.11956,-0.09272,0.01952,0.0488,-0.00976,-0.00488,-0.06832,-0.0732,-0.04392
-0.06344,0.10004,-0.13664,-0.10492,-0.0732,0.00488,0.03904,-0.00976,-0.00488,-0.06832,-0.08296,-0.0488
-0.06344,0.0976,-0.13176,-0.10004,-0.06832,0.00244,0.03904,-0.01464,-0.00976,-0.06832,-0.08296,-0.0488
-0.0732,0.11224,-0.15128,-0.11468,-0.07808,0.00244,0.03416,-0.00488,-0.00488,-0.0732,-0.07808,-0.03904
-0.07808,0.12688,-0.17568,-0.13664,-0.0976,0.00976,0.03904,-0.00488,0,-0.06832,-0.07808,-0.04392
-0.07808,0.11956,-0.16104,-0.122,-0.08296,0.00244,0.03416,-0.01464,-0.01952,-0.07808,-0.08296,-0.05368
-0.07808,0.1098,-0.14152,-0.10248,-0.06344,-0.00732,0.02928,-0.01952,-0.01464,-0.07808,-0.07808,-0.05368
-0.06832,0.10004,-0.13176,-0.0976,-0.06344,-0.00244,0.04392,-0.01952,-0.00488,-0.07808,-0.07808,-0.04392
-0.05856,0.08784,-0.11712,-0.08784,-0.05856,0,0.05856,-0.01952,-0.00488,-0.07808,-0.07808,-0.04392
-0.0488,0.09028,-0.13176,-0.10736,-0.08296,0.01708,0.05856,-0.00976,-0.00976,-0.06344,-0.07808,-0.04392
-0.0488,0.08784,-0.12688,-0.10248,-0.07808,0.01464,0.05368,-0.00976,-0.00488,-0.06344,-0.07808,-0.03904
-0.03416,0.07076,-0.10736,-0.09028,-0.0732,0.01952,0.05368,-0.00976,0.00488,-0.05856,-0.06344,-0.02928
-0.03416,0.05612,-0.07808,-0.061,-0.04392,0.00488,0.05856,-0.00976,0.01464,-0.0488,-0.05856,-0.02928
-0.02928,0.05856,-0.08784,-0.0732,-0.05856,0.01464,0.06344,0,0.03416,-0.02928,-0.03904,-0.01464
-0.02928,0.0488,-0.06832,-0.05368,-0.03904,0.00488,0.07808,0,0.03904,-0.01952,-0.03904,-0.00976
-0.03904,0.05856,-0.07808,-0.05856,-0.03904,0,0.07808,0,0.03904,-0.01952,-0.03904,0
-0.03904,0.05856,-0.07808,-0.05856,-0.03904,0,0.07808,0,0.03904,-0.01952,-0.03904,0
-0.03904,0.05368,-0.06832,-0.0488,-0.02928,-0.00488,0.08296,0.00976,0.0488,-0.01464,-0.02928,-0.00976
-0.03416,0.04392,-0.05368,-0.0366,-0.01952,-0.00732,0.06344,0,0.05856,-0.01464,-0.02928,-0.00488
-0.03904,0.03904,-0.03904,-0.01952,0,-0.01952,0.02928,-0.03416,0.0488,-0.01464,-0.02928,-0.00488
-0.03904,0.0366,-0.03416,-0.01464,0.00488,-0.02196,-0.00488,-0.0488,0.03904,-0.01464,-0.02928,0.00488
-0.0244,0.01708,-0.00976,0.00244,0.01464,-0.01952,-0.03416,-0.06344,0.0244,-0.00976,-0.01952,0.01464
-0.01952,0.01464,-0.00976,0,0.00976,-0.01464,-0.03416,-0.06344,0.01952,-0.00488,-0.01952,0.01464
0,0.01464,-0.02928,-0.02928,-0.02928,0.01464,-0.03416,-0.0488,0.03416,-0.00488,-0.01952,0.01464
0.00488,0.00976,-0.0244,-0.02684,-0.02928,0.01708,-0.02928,-0.03416,0.03904,0,-0.00976,0.0244
0,0.00976,-0.01952,-0.01952,-0.01952,0.00976,-0.0244,-0.02928,0.03904,0,-0.00976,0.0244
0.00488,0.00732,-0.01952,-0.02196,-0.0244,0.01464,-0.0244,-0.02928,0.02928,-0.00488,-0.01464,0.01952
0.00976,0.00976,-0.02928,-0.03416,-0.03904,0.0244,-0.0244,-0.02928,0.00976,-0.01952,-0.0244,0.00488
0.00976,0.02684,-0.06344,-0.06832,-0.0732,0.04148,-0.01952,-0.02928,0,-0.03904,-0.03416,-0.00976
0.00976,0.03904,-0.08784,-0.09272,-0.0976,0.05368,-0.01464,-0.03904,-0.01952,-0.0488,-0.04392,0
0.00976,0.0488,-0.10736,-0.11224,-0.11712,0.06344,-0.01464,-0.03904,-0.02928,-0.05368,-0.0488,-0.00976
-0.00488,0.07076,-0.13664,-0.1342,-0.13176,0.06344,-0.00976,-0.03416,-0.03904,-0.05368,-0.05368,-0.00976
-0.01952,0.0732,-0.12688,-0.11712,-0.10736,0.04392,0,-0.03416,-0.03904,-0.05856,-0.05856,-0.00976
-0.02928,0.08052,-0.13176,-0.11712,-0.10248,0.0366,0.00488,-0.0244,-0.01464,-0.06344,-0.05856,-0.01952
-0.05368,0.09028,-0.12688,-0.10004,-0.0732,0.00976,0.01952,-0.0244,-0.00976,-0.05368,-0.05856,-0.0244
-0.06832,0.10492,-0.14152,-0.10736,-0.0732,0.00244,0.03904,-0.0244,-0.00976,-0.05368,-0.05856,-0.0244
-0.06832,0.11468,-0.16104,-0.12688,-0.09272,0.0122,0.04392,-0.01952,-0.01464,-0.06832,-0.06832,-0.03416
-0.06832,0.11468,-0.16104,-0.12688,-0.09272,0.0122,0.05368,-0.02928,-0.02928,-0.07808,-0.07808,-0.04392
-0.0732,0.122,-0.1708,-0.1342,-0.0976,0.0122,0.05856,-0.0244,-0.03416,-0.07808,-0.08784,-0.0488
-0.0732,0.12932,-0.18544,-0.14884,-0.11224,0.01952,0.05856,-0.0244,-0.0244,-0.0976,-0.0976,-0.06344
-0.0732,0.12932,-0.18544,-0.14884,-0.11224,0.01952,0.05856,-0.0244,-0.03416,-0.10248,-0.10248,-0.06832
-0.08296,0.1342,-0.18544,-0.14396,-0.10248,0.00976,0.05368,-0.03416,-0.05368,-0.11224,-0.10248,-0.0732
-0.08784,0.13908,-0.19032,-0.1464,-0.10248,0.00732,0.05368,-0.03416,-0.06344,-0.11224,-0.10736,-0.0732
-0.0976,0.13908,-0.18056,-0.13176,-0.08296,-0.00732,0.06344,-0.02928,-0.0488,-0.11224,-0.11712,-0.07808
-0.0976,0.14152,-0.18544,-0.13664,-0.08784,-0.00488,0.06344,-0.02928,-0.0488,-0.11224,-0.122,-0.07808
-0.08784,0.14396,-0.20008,-0.15616,-0.11224,0.0122,0.06344,-0.02928,-0.0488,-0.10736,-0.11224,-0.07808
-0.08784,0.14152,-0.1952,-0.15128,-0.10736,0.00976,0.06832,-0.02928,-0.05368,-0.10736,-0.11224,-0.07808
-0.09272,0.14396,-0.1952,-0.14884,-0.10248,0.00488,0.05856,-0.02928,-0.05368,-0.10736,-0.122,-0.07808
-0.09272,0.14152,-0.19032,-0.14396,-0.0976,0.00244,0.05856,-0.02928,-0.05368,-0.11224,-0.12688,-0.07808
-0.09272,0.14884,-0.20496,-0.1586,-0.11224,0.00976,0.06832,-0.0244,-0.05368,-0.11224,-0.11712,-0.07808
-0.09272,0.15128,-0.20984,-0.16348,-0.11712,0.0122,0.0732,-0.0244,-0.06344,-0.11224,-0.11712,-0.07808
-0.09272,0.1464,-0.20008,-0.15372,-0.10736,0.00732,0.06344,-0.0244,-0.06344,-0.12688,-0.12688,-0.07808
-0.09272,0.1464,-0.20008,-0.15372,-0.10736,0.00732,0.06344,-0.02928,-0.06344,-0.12688,-0.12688,-0.07808
-0.09272,0.1464,-0.20008,-0.15372,-0.10736,0.00732,0.06832,-0.02928,-0.05368,-0.11224,-0.122,-0.07808
-0.09272,0.15128,-0.20984,-0.16348,-0.11712,0.0122,0.06832,-0.02928,-0.0488,-0.11224,-0.122,-0.07808
-0.08296,0.14152,-0.20008,-0.1586,-0.11712,0.01708,0.06832,-0.0244,-0.0488,-0.11224,-0.11712,-0.08296
-0.08296,0.14396,-0.20496,-0.16348,-0.122,0.01952,0.0732,-0.01464,-0.04392,-0.11224,-0.11712,-0.08296
-0.0976,0.15372,-0.20984,-0.16104,-0.11224,0.00732,0.10248,0.03904,0,-0.11224,-0.13176,-0.08784
-0.1464,0.18788,-0.22936,-0.15616,-0.08296,-0.03172,0.20008,0.16104,0.12688,-0.09272,-0.1464,-0.12688
-0.18056,0.18544,-0.19032,-0.10004,-0.00976,-0.0854,0.2684,0.23912,0.28304,-0.03904,-0.14152,-0.14152
-0.18544,0.14884,-0.11224,-0.01952,0.0732,-0.12932,0.30256,0.33184,0.45872,0.0488,-0.0976,-0.11712
-0.1464,0.08296,-0.01952,0.05368,0.12688,-0.13664,0.2684,0.366,0.52216,0.13176,-0.00488,-0.05856
-0.0244,-0.03904,0.10248,0.11468,0.12688,-0.07564,0.17568,0.31232,0.55144,0.28792,0.17568,0.08296
0.1952,-0.22448,0.25376,0.15616,0.05856,0.06832,-0.05368,0.0976,0.47824,0.4636,0.39528,0.25864
0.44408,-0.43676,0.42944,0.2074,-0.01464,0.22936,-0.32208,-0.20984,0.28304,0.71248,0.7076,0.50264
0.70272,-0.71492,0.72712,0.37576,0.0244,0.33916,-0.64416,-0.52704,0.07808,0.99552,1.09312,0.81496
0.93696,-0.97356,1.01016,0.54168,0.0732,0.43188,-0.94672,-0.78568,-0.2684,1.22,1.42496,1.08824
1.12728,-1.10776,1.08824,0.5246,-0.03904,0.58316,-1.05896,-0.854,-0.5856,1.30784,1.59088,1.23952
1.20536,-0.99308,0.7808,0.17812,-0.42456,0.81496,-0.92232,-0.67832,-0.59536,1.16632,1.41032,1.11752
1.08824,-0.73932,0.3904,-0.15372,-0.69784,0.89304,-0.78568,-0.67344,-0.732,0.7076,0.91256,0.8052
0.77592,-0.44896,0.122,-0.26596,-0.65392,0.71492,-0.61,-0.74176,-0.9272,0.25376,0.45872,0.5124
0.4148,-0.122,-0.1708,-0.3782,-0.5856,0.5002,-0.42456,-0.89792,-1.31272,-0.4392,-0.04392,0.21472
0.122,0.07808,-0.27816,-0.33916,-0.40016,0.26108,-0.28304,-0.81496,-1.21512,-0.65392,-0.27816,0.03904
0.06832,0.09272,-0.25376,-0.28792,-0.32208,0.1952,-0.1952,-0.51728,-0.7076,-0.40016,-0.20008,0.00976
0.03416,0.05856,-0.15128,-0.16836,-0.18544,0.1098,-0.17568,-0.35136,-0.45384,-0.26352,-0.13664,0.00976
0.00488,0.07808,-0.16104,-0.16348,-0.16592,0.0854,-0.04392,-0.18056,-0.26352,-0.20008,-0.12688,-0.03416
-0.00488,0.08052,-0.15616,-0.15372,-0.15128,0.0732,-0.00976,-0.07808,-0.14152,-0.1708,-0.13176,-0.0488
-0.03416,0.10248,-0.1708,-0.15372,-0.13664,0.05124,0.01952,-0.05368,-0.08296,-0.1464,-0.12688,-0.05856
-0.04392,0.1098,-0.17568,-0.15372,-0.13176,0.04392,0.06344,-0.01952,-0.04392,-0.13176,-0.13176,-0.06832
-0.06832,0.12688,-0.18544,-0.15128,-0.11712,0.0244,0.09272,0.0244,-0.02928,-0.11712,-0.12688,-0.07808
-0.08296,0.1342,-0.18544,-0.14396,-0.10248,0.00976,0.08784,0.0244,-0.01464,-0.11712,-0.12688,-0.08296
-0.08784,0.14396,-0.20008,-0.15616,-0.11224,0.0122,0.07808,0.02928,-0.00976,-0.11712,-0.13176,-0.07808
-0.09272,0.15128,-0.20984,-0.16348,-0.11712,0.0122,0.08784,0.03416,0.00976,-0.11224,-0.13664,-0.08296
-0.08784,0.15128,-0.21472,-0.1708,-0.12688,0.01952,0.10248,0.05368,0.01952,-0.11224,-0.12688,-0.08296
-0.08784,0.1464,-0.20496,-0.16104,-0.11712,0.01464,0.0976,0.05856,0.02928,-0.10736,-0.12688,-0.08296
-0.08784,0.14884,-0.20984,-0.16592,-0.122,0.01708,0.08784,0.05856,0.03416,-0.10248,-0.122,-0.08296
-0.08296,0.14396,-0.20496,-0.16348,-0.122,0.01952,0.08784,0.0488,0.03416,-0.10248,-0.122,-0.08296
-0.0732,0.1342,-0.1952,-0.1586,-0.122,0.0244,0.08784,0.03904,0.02928,-0.11224,-0.13176,-0.09272
-0.0732,0.12932,-0.18544,-0.14884,-0.11224,0.01952,0.08784,0.03904,0.03416,-0.11224,-0.13176,-0.09272
-0.0732,0.1342,-0.1952,-0.1586,-0.122,0.0244,0.0976,0.0488,0.0488,-0.10248,-0.122,-0.08296
-0.06832,0.13908,-0.20984,-0.17568,-0.14152,0.0366,0.0976,0.05368,0.0488,-0.0976,-0.11712,-0.08296
-0.0732,0.13176,-0.19032,-0.15372,-0.11712,0.02196,0.0976,0.05368,0.0488,-0.0976,-0.11712,-0.08296
-0.0732,0.1342,-0.1952,-0.1586,-0.122,0.0244,0.0976,0.05856,0.05368,-0.09272,-0.11712,-0.07808
-0.06832,0.12444,-0.18056,-0.1464,-0.11224,0.02196,0.08296,0.06344,0.04392,-0.09272,-0.11712,-0.07808
-0.06832,0.122,-0.17568,-0.14152,-0.10736,0.01952,0.08296,0.06832,0.0488,-0.09272,-0.11224,-0.07808
-0.05856,0.11468,-0.1708,-0.14152,-0.11224,0.02684,0.0732,0.06344,0.0488,-0.0976,-0.12688,-0.07808
-0.05856,0.11224,-0.16592,-0.13664,-0.10736,0.0244,0.06832,0.06832,0.05368,-0.0976,-0.122,-0.07808
-0.0732,0.11956,-0.16592,-0.12932,-0.09272,0.00976,0.06344,0.06344,0.05856,-0.0976,-0.122,-0.07808
-0.06832,0.11712,-0.16592,-0.13176,-0.0976,0.01464,0.06344,0.06832,0.06832,-0.09272,-0.11712,-0.07808
-0.06832,0.122,-0.17568,-0.14152,-0.10736,0.01952,0.06344,0.0732,0.0732,-0.08296,-0.11224,-0.0732
-0.06832,0.122,-0.17568,-0.14152,-0.10736,0.01952,0.06344,0.0732,0.0732,-0.07808,-0.11224,-0.0732
-0.06832,0.11468,-0.16104,-0.12688,-0.09272,0.0122,0.06344,0.07808,0.0732,-0.07808,-0.11224,-0.08296
-0.06344,0.10736,-0.15128,-0.11956,-0.08784,0.0122,0.06344,0.07808,0.07808,-0.08296,-0.10736,-0.07808
-0.05856,0.10736,-0.15616,-0.12688,-0.0976,0.01952,0.06832,0.09272,0.08784,-0.0732,-0.0976,-0.06832
-0.05856,0.10492,-0.15128,-0.122,-0.09272,0.01708,0.06832,0.09272,0.09272,-0.06832,-0.0976,-0.06344
-0.05368,0.10736,-0.16104,-0.1342,-0.10736,0.02684,0.06832,0.11224,0.10248,-0.06344,-0.0976,-0.05856
-0.05368,0.10492,-0.15616,-0.12932,-0.10248,0.0244,0.06832,0.11712,0.11224,-0.05856,-0.09272,-0.05368
-0.03904,0.09028,-0.14152,-0.122,-0.10248,0.03172,0.07808,0.12688,0.12688,-0.0488,-0.08296,-0.04392
-0.02928,0.0854,-0.14152,-0.12688,-0.11224,0.04148,0.07808,0.13664,0.14152,-0.04392,-0.06832,-0.03904
-0.03416,0.08784,-0.14152,-0.12444,-0.10736,0.0366,0.07808,0.16104,0.15128,-0.02928,-0.06832,-0.0488
-0.01952,0.08052,-0.14152,-0.13176,-0.122,0.05124,0.07808,0.1708,0.16592,-0.0244,-0.05856,-0.03904
-0.02928,0.07808,-0.12688,-0.11224,-0.0976,0.03416,0.05856,0.1708,0.16592,-0.0244,-0.05856,-0.03904
-0.01464,0.06832,-0.122,-0.11468,-0.10736,0.04636,0.05856,0.18544,0.18544,-0.01464,-0.04392,-0.02928
0.00488,0.05612,-0.11712,-0.11956,-0.122,0.06344,0.04392,0.1952,0.19032,-0.01464,-0.03904,-0.02928
0.01464,0.04392,-0.10248,-0.1098,-0.11712,0.06588,0.04392,0.20496,0.20008,-0.00488,-0.04392,-0.02928
0.0244,0.03904,-0.10248,-0.11468,-0.12688,0.07564,0.05368,0.23912,0.22448,0.01952,-0.0244,-0.00488
0.03904,0.01952,-0.07808,-0.0976,-0.11712,0.07808,0.0488,0.25376,0.24888,0.03416,-0.01464,0.00488
0.05856,0,-0.05856,-0.08784,-0.11712,0.08784,0.03904,0.25864,0.26352,0.04392,0,0.00976
0.07808,-0.02684,-0.0244,-0.06344,-0.10248,0.09028,0.02928,0.28304,0.26352,0.06344,0.01952,0.01952
0.0976,-0.04392,-0.00976,-0.05856,-0.10736,0.10248,0.0244,0.29768,0.28792,0.09272,0.03416,0.03904
0.10736,-0.05368,0,-0.05368,-0.10736,0.10736,0.01464,0.3172,0.31232,0.10736,0.05856,0.06344
0.12688,-0.07564,0.0244,-0.03904,-0.10248,0.11468,0.00488,0.33184,0.33184,0.12688,0.08296,0.08296
0.1464,-0.09516,0.04392,-0.02928,-0.10248,0.12444,-0.00488,0.34648,0.35136,0.15616,0.11224,0.10248
0.16104,-0.11712,0.0732,-0.00732,-0.08784,0.12444,-0.03416,0.35624,0.35136,0.17568,0.13176,0.11712
0.17568,-0.12932,0.08296,-0.00488,-0.09272,0.1342,-0.03904,0.37088,0.37088,0.20496,0.15128,0.13664
0.1952,-0.15128,0.10736,0.00976,-0.08784,0.14152,-0.05856,0.37088,0.38064,0.23424,0.18544,0.15128
0.21472,-0.16348,0.11224,0.00488,-0.10248,0.1586,-0.0732,0.37576,0.38552,0.244,0.20984,0.1708
0.22936,-0.1708,0.11224,-0.00244,-0.11712,0.17324,-0.0732,0.38064,0.38552,0.2684,0.2196,0.19032
0.23912,-0.183,0.12688,0.00732,-0.11224,0.17568,-0.08296,0.37088,0.38552,0.27816,0.23912,0.20008
0.22936,-0.19032,0.15128,0.0366,-0.07808,0.15372,-0.10248,0.36112,0.38552,0.28792,0.25376,0.2196
0.23424,-0.20008,0.16592,0.0488,-0.06832,0.15128,-0.10736,0.35624,0.38552,0.29768,0.26352,0.2196
0.23912,-0.20496,0.1708,0.05124,-0.06832,0.15372,-0.10736,0.33672,0.38064,0.30256,0.26352,0.22936
0.244,-0.2074,0.1708,0.0488,-0.0732,0.1586,-0.11224,0.32208,0.38064,0.2928,0.27328,0.22936
0.23424,-0.19032,0.1464,0.02928,-0.08784,0.16104,-0.0976,0.30744,0.37088,0.30256,0.2684,0.23424
0.2196,-0.183,0.1464,0.0366,-0.0732,0.1464,-0.0976,0.28304,0.34648,0.28792,0.26352,0.22448
0.2196,-0.17324,0.12688,0.01708,-0.09272,0.15616,-0.08296,0.25376,0.33184,0.27328,0.24888,0.20496
0.18544,-0.15128,0.11712,0.0244,-0.06832,0.12688,-0.0732,0.22936,0.30256,0.23912,0.21472,0.18544
0.1708,-0.13664,0.10248,0.01708,-0.06832,0.11956,-0.05368,0.1952,0.2684,0.20008,0.19032,0.15616
0.1464,-0.11224,0.07808,0.00488,-0.06832,0.10736,-0.03904,0.1708,0.244,0.18056,0.16592,0.13664
0.13176,-0.10004,0.06832,0.00244,-0.06344,0.0976,-0.03416,0.14152,0.21472,0.1464,0.122,0.11712
0.10736,-0.08052,0.05368,0,-0.05368,0.08052,-0.03416,0.11712,0.18544,0.11224,0.09272,0.08784
0.08296,-0.05856,0.03416,-0.00732,-0.0488,0.06588,-0.01464,0.09272,0.15616,0.0976,0.0732,0.06344
0.05856,-0.02684,-0.00488,-0.03416,-0.06344,0.061,-0.00976,0.0732,0.122,0.06344,0.0488,0.03904
0.03904,-0.00976,-0.01952,-0.03904,-0.05856,0.0488,-0.00488,0.05368,0.0976,0.02928,0.02928,0.0244
0.02928,0.00488,-0.03904,-0.05368,-0.06832,0.0488,-0.00488,0.02928,0.07808,0,0,0.00488
0.01464,0.01952,-0.05368,-0.061,-0.06832,0.04148,0.00976,0.01952,0.07808,-0.00488,-0.0244,-0.00976
0.00488,0.02928,-0.06344,-0.06588,-0.06832,0.0366,0.00976,0.00976,0.05368,-0.02928,-0.03904,-0.0244
-0.01464,0.0488,-0.08296,-0.07564,-0.06832,0.02684,0.0244,0,0.04392,-0.04392,-0.05368,-0.0244
-0.0244,0.061,-0.0976,-0.0854,-0.0732,0.0244,0.02928,0,0.03416,-0.0488,-0.06832,-0.03416
-0.01952,0.06344,-0.10736,-0.0976,-0.08784,0.03416,0.0244,-0.00488,0.0244,-0.05856,-0.08296,-0.0488
-0.0244,0.06588,-0.10736,-0.09516,-0.08296,0.02928,0.0244,-0.01464,0.00976,-0.06832,-0.08784,-0.05368
-0.03416,0.06832,-0.10248,-0.0854,-0.06832,0.01708,0.0244,-0.0244,0.00488,-0.06344,-0.07808,-0.05856
-0.04392,0.07564,-0.10736,-0.0854,-0.06344,0.00976,0.0244,-0.0244,0.00488,-0.06832,-0.08296,-0.06344
-0.0488,0.0854,-0.122,-0.0976,-0.0732,0.0122,0.02928,-0.01952,0,-0.07808,-0.0976,-0.05856
-0.0488,0.09028,-0.13176,-0.10736,-0.08296,0.01708,0.02928,-0.01952,0,-0.07808,-0.0976,-0.05856
-0.04392,0.08784,-0.13176,-0.1098,-0.08784,0.02196,0.03416,-0.02928,-0.00488,-0.08784,-0.10248,-0.06832
-0.04392,0.08784,-0.13176,-0.1098,-0.08784,0.02196,0.02928,-0.02928,-0.00488,-0.09272,-0.11224,-0.06832
-0.05368,0.08784,-0.122,-0.09516,-0.06832,0.00732,0.02928,-0.03416,-0.00976,-0.09272,-0.10248,-0.05856
-0.05368,0.0854,-0.11712,-0.09028,-0.06344,0.00488,0.02928,-0.03416,-0.01464,-0.09272,-0.10248,-0.05856
-0.04392,0.0854,-0.12688,-0.10492,-0.08296,0.01952,0.02928,-0.03416,-0.00976,-0.08296,-0.10248,-0.05856
-0.04392,0.0854,-0.12688,-0.10492,-0.08296,0.01952,0.02928,-0.03416,-0.00976,-0.08784,-0.10248,-0.06344
-0.05368,0.09028,-0.12688,-0.10004,-0.0732,0.00976,0.02928,-0.03416,-0.00976,-0.08784,-0.10736,-0.06344
-0.05368,0.09516,-0.13664,-0.1098,-0.08296,0.01464,0.02928,-0.03416,-0.00976,-0.08784,-0.11224,-0.05856
-0.05368,0.10004,-0.1464,-0.11956,-0.09272,0.01952,0.02928,-0.0244,-0.01464,-0.0976,-0.11712,-0.06832
-0.05368,0.10004,-0.1464,-0.11956,-0.09272,0.01952,0.02928,-0.0244,-0.01464,-0.0976,-0.11712,-0.06832
-0.06344,0.1098,-0.15616,-0.12444,-0.09272,0.01464,0.01952,-0.03416,-0.00976,-0.08784,-0.10736,-0.0732
-0.06344,0.10736,-0.15128,-0.11956,-0.08784,0.0122,0.01952,-0.03416,-0.00488,-0.09272,-0.10736,-0.0732
-0.05856,0.10736,-0.15616,-0.12688,-0.0976,0.01952,0.0244,-0.02928,-0.00488,-0.09272,-0.11712,-0.0732
-0.05856,0.10492,-0.15128,-0.122,-0.09272,0.01708,0.0244,-0.0244,-0.00488,-0.09272,-0.11712,-0.0732
-0.05856,0.10492,-0.15128,-0.122,-0.09272,0.01708,0.02928,-0.01952,0,-0.09272,-0.11712,-0.0732
-0.05856,0.10492,-0.15128,-0.122,-0.09272,0.01708,0.03904,-0.0244,0,-0.09272,-0.11224,-0.07808
-0.05368,0.0976,-0.14152,-0.11468,-0.08784,0.01708,0.0488,-0.01464,0.00976,-0.09272,-0.10736,-0.06832
-0.04392,0.09272,-0.14152,-0.11956,-0.0976,0.02684,0.0488,-0.00976,0.01464,-0.08784,-0.11224,-0.06344
-0.0488,0.08784,-0.12688,-0.10248,-0.07808,0.01464,0.03904,-0.01952,0.01464,-0.08784,-0.10736,-0.06344
-0.0488,0.08052,-0.11224,-0.08784,-0.06344,0.00732,0.04392,-0.01952,0.01464,-0.08784,-0.11224,-0.06344
-0.04392,0.08052,-0.11712,-0.09516,-0.0732,0.01464,0.0488,-0.00488,0.01464,-0.08784,-0.10248,-0.06344
-0.04392,0.0854,-0.12688,-0.10492,-0.08296,0.01952,0.0488,-0.00488,0.01464,-0.08784,-0.10248,-0.06344
-0.0488,0.09028,-0.13176,-0.10736,-0.08296,0.01708,0.04392,-0.01464,0.0244,-0.08784,-0.11224,-0.06344
-0.0488,0.08784,-0.12688,-0.10248,-0.07808,0.01464,0.04392,-0.01464,0.02928,-0.08296,-0.10248,-0.05856
-0.0488,0.08296,-0.11712,-0.09272,-0.06832,0.00976,0.04392,-0.00976,0.01952,-0.09272,-0.10248,-0.05856
-0.0488,0.07808,-0.10736,-0.08296,-0.05856,0.00488,0.04392,-0.00976,0.0244,-0.08784,-0.10248,-0.05856
-0.0488,0.07564,-0.10248,-0.07808,-0.05368,0.00244,0.03416,-0.01952,0.0244,-0.07808,-0.10736,-0.06832
-0.04392,0.07808,-0.11224,-0.09028,-0.06832,0.0122,0.03904,-0.01464,0.02928,-0.07808,-0.08784,-0.06344
-0.0488,0.08052,-0.11224,-0.08784,-0.06344,0.00732,0.03416,-0.01464,0.02928,-0.07808,-0.0976,-0.05368
-0.0488,0.07564,-0.10248,-0.07808,-0.05368,0.00244,0.02928,-0.00488,0.02928,-0.0732,-0.09272,-0.0488
-0.04392,0.0732,-0.10248,-0.08052,-0.05856,0.00732,0.02928,-0.01464,0.03904,-0.07808,-0.09272,-0.0488
-0.03904,0.07076,-0.10248,-0.08296,-0.06344,0.0122,0.03416,-0.01464,0.03416,-0.07808,-0.09272,-0.0488
-0.0488,0.07564,-0.10248,-0.07808,-0.05368,0.00244,0.03904,-0.01464,0.03416,-0.06832,-0.08296,-0.0488
-0.0488,0.08052,-0.11224,-0.08784,-0.06344,0.00732,0.03904,-0.01464,0.03416,-0.06832,-0.08296,-0.0488
-0.03904,0.07808,-0.11712,-0.0976,-0.07808,0.01952,0.03904,-0.01464,0.03416,-0.06344,-0.08784,-0.05856
-0.03416,0.07564,-0.11712,-0.10004,-0.08296,0.0244,0.03904,-0.01464,0.03416,-0.06832,-0.08784,-0.05368
-0.04392,0.06588,-0.08784,-0.06588,-0.04392,0,0.0244,-0.01952,0.02928,-0.06832,-0.08784,-0.05368
-0.04392,0.07076,-0.0976,-0.07564,-0.05368,0.00488,0.0244,-0.01952,0.02928,-0.06832,-0.08296,-0.05368
-0.03904,0.06832,-0.0976,-0.07808,-0.05856,0.00976,0.0244,-0.01464,0.0244,-0.06344,-0.07808,-0.04392
-0.03904,0.06832,-0.0976,-0.07808,-0.05856,0.00976,0.0244,-0.01464,0.0244,-0.06832,-0.07808,-0.04392
-0.03904,0.07076,-0.10248,-0.08296,-0.06344,0.0122,0.0244,-0.01464,0.0244,-0.05856,-0.07808,-0.03416
-0.03904,0.07564,-0.11224,-0.09272,-0.0732,0.01708,0.01952,-0.01952,0.0244,-0.05856,-0.07808,-0.03904
-0.04392,0.07808,-0.11224,-0.09028,-0.06832,0.0122,0.01952,-0.02928,0.01952,-0.06832,-0.08784,-0.0488
-0.04392,0.08052,-0.11712,-0.09516,-0.0732,0.01464,0.0244,-0.02928,0.01952,-0.06832,-0.08296,-0.04392
-0.04392,0.07808,-0.11224,-0.09028,-0.06832,0.0122,0.0244,-0.01952,0.01464,-0.0732,-0.08296,-0.04392
-0.04392,0.07564,-0.10736,-0.0854,-0.06344,0.00976,0.0244,-0.01952,0.01464,-0.0732,-0.08296,-0.04392
-0.04392,0.07564,-0.10736,-0.0854,-0.06344,0.00976,0.0244,-0.0244,0.00976,-0.0732,-0.08296,-0.04392
-0.0488,0.07564,-0.10248,-0.07808,-0.05368,0.00244,0.0244,-0.0244,0.00976,-0.0732,-0.08784,-0.0488
-0.05368,0.08296,-0.11224,-0.0854,-0.05856,0.00244,0.0244,-0.03416,0,-0.07808,-0.09272,-0.0488
-0.05368,0.08296,-0.11224,-0.0854,-0.05856,0.00244,0.0244,-0.03416,0,-0.07808,-0.08296,-0.0488
-0.06344,0.09028,-0.11712,-0.0854,-0.05368,-0.00488,0.0244,-0.02928,0.00976,-0.07808,-0.09272,-0.0488
-0.06344,0.0854,-0.10736,-0.07564,-0.04392,-0.00976,0.02928,-0.03416,0.00976,-0.07808,-0.09272,-0.04392
-0.05368,0.08296,-0.11224,-0.0854,-0.05856,0.00244,0.03904,-0.01952,0.00976,-0.07808,-0.08296,-0.04392
-0.05368,0.08296,-0.11224,-0.0854,-0.05856,0.00244,0.03904,-0.01952,0.00488,-0.07808,-0.08296,-0.04392
-0.06344,0.0976,-0.13176,-0.10004,-0.06832,0.00244,0.03904,-0.02928,0.01464,-0.06832,-0.08296,-0.03904
-0.06344,0.10004,-0.13664,-0.10492,-0.0732,0.00488,0.03904,-0.03416,0.00976,-0.06832,-0.08296,-0.03904
-0.05368,0.09516,-0.13664,-0.1098,-0.08296,0.01464,0.03416,-0.03416,0.00488,-0.0732,-0.08296,-0.03904
-0.05368,0.09272,-0.13176,-0.10492,-0.07808,0.0122,0.03904,-0.03416,0.00976,-0.06832,-0.08784,-0.04392
-0.0488,0.08296,-0.11712,-0.09272,-0.06832,0.00976,0.03416,-0.03416,-0.00976,-0.07808,-0.10248,-0.05368
-0.0488,0.07808,-0.10736,-0.08296,-0.05856,0.00488,0.02928,-0.03904,-0.00488,-0.07808,-0.0976,-0.05368
-0.0488,0.07564,-0.10248,-0.07808,-0.05368,0.00244,0.0244,-0.03904,-0.01464,-0.07808,-0.10736,-0.06344
-0.0488,0.0732,-0.0976,-0.0732,-0.0488,0,0.02928,-0.03904,-0.01464,-0.07808,-0.10736,-0.06344
-0.0488,0.07564,-0.10248,-0.07808,-0.05368,0.00244,0.03904,-0.02928,0,-0.07808,-0.10248,-0.05368
-0.0488,0.06832,-0.08784,-0.06344,-0.03904,-0.00488,0.03904,-0.02928,0.00488,-0.0732,-0.09272,-0.0488
-0.04392,0.06832,-0.09272,-0.07076,-0.0488,0.00244,0.03416,-0.02928,0.00488,-0.07808,-0.07808,-0.0488
-0.04392,0.06588,-0.08784,-0.06588,-0.04392,0,0.03904,-0.02928,0.01952,-0.06344,-0.06832,-0.03904
-0.03416,0.04636,-0.05856,-0.04148,-0.0244,-0.00488,0.0488,-0.02928,0.0244,-0.05368,-0.06832,-0.03416
-0.02928,0.03904,-0.0488,-0.03416,-0.01952,-0.00488,0.0488,-0.02928,0.03904,-0.03904,-0.06832,-0.02928
-0.03904,0.0488,-0.05856,-0.03904,-0.01952,-0.00976,0.0488,-0.01952,0.0488,-0.03904,-0.05856,-0.01952
-0.03904,0.0488,-0.05856,-0.03904,-0.01952,-0.00976,0.0488,-0.01952,0.0488,-0.03904,-0.05856,-0.01952
-0.03904,0.04392,-0.0488,-0.02928,-0.00976,-0.01464,0.05368,-0.01952,0.0488,-0.03416,-0.05856,-0.02928
-0.03416,0.03416,-0.03416,-0.01708,0,-0.01708,0.03416,-0.02928,0.0488,-0.03416,-0.05856,-0.0244
-0.01952,0.01464,-0.00976,0,0.00976,-0.01464,0,-0.06344,0.03904,-0.03416,-0.0488,-0.0244
-0.01952,0.0122,-0.00488,0.00488,0.01464,-0.01708,-0.03416,-0.07808,0.02928,-0.03416,-0.0488,-0.01464
-0.01464,0.00244,0.00976,0.01708,0.0244,-0.01952,-0.06344,-0.08296,0.0244,-0.02928,-0.03904,-0.00488
-0.00976,0,0.00976,0.01464,0.01952,-0.01464,-0.06344,-0.08296,0.01952,-0.0244,-0.03904,-0.00488
0.00976,-0.00976,0.00976,0.00488,0,0.00488,-0.04392,-0.06832,0.0244,-0.0244,-0.03904,-0.00488
0.01464,-0.01464,0.01464,0.00732,0,0.00732,-0.03904,-0.05368,0.02928,-0.01952,-0.02928,0.00488
0.02928,-0.01464,0,-0.01464,-0.02928,0.02928,-0.04392,-0.03904,0.03904,-0.01952,-0.01952,0.01464
0.03416,-0.00732,-0.01952,-0.0366,-0.05368,0.04392,-0.04392,-0.03904,0.02928,-0.0244,-0.0244,0.00976
0.01952,0.00976,-0.03904,-0.0488,-0.05856,0.03904,-0.04392,-0.0488,0.01952,-0.02928,-0.03416,-0.00488
0.00976,0.03172,-0.0732,-0.07808,-0.08296,0.04636,-0.03904,-0.05856,0.00976,-0.0488,-0.04392,-0.01952
0,0.04392,-0.08784,-0.08784,-0.08784,0.04392,-0.03416,-0.06832,-0.00976,-0.05856,-0.05368,-0.00976
0,0.0488,-0.0976,-0.0976,-0.0976,0.0488,-0.03416,-0.06832,-0.01952,-0.06344,-0.05856,-0.01952
-0.01464,0.07076,-0.12688,-0.11956,-0.11224,0.0488,-0.01952,-0.06344,-0.02928,-0.0732,-0.0732,-0.02928
-0.02928,0.0732,-0.11712,-0.10248,-0.08784,0.02928,-0.00976,-0.06344,-0.02928,-0.07808,-0.07808,-0.02928
-0.02928,0.06588,-0.10248,-0.08784,-0.0732,0.02196,0.00488,-0.05368,-0.00488,-0.0732,-0.07808,-0.02928
-0.04392,0.06588,-0.08784,-0.06588,-0.04392,0,0.01952,-0.05368,0,-0.06344,-0.07808,-0.03416
-0.05856,0.07076,-0.08296,-0.05368,-0.0244,-0.01708,0.02928,-0.04392,0,-0.06344,-0.07808,-0.04392
-0.05856,0.08052,-0.10248,-0.0732,-0.04392,-0.00732,0.03416,-0.03904,-0.00488,-0.07808,-0.08784,-0.05368
-0.05856,0.09516,-0.13176,-0.10248,-0.0732,0.00732,0.0244,-0.0488,-0.02928,-0.0976,-0.0976,-0.06344
-0.06344,0.11224,-0.16104,-0.12932,-0.0976,0.01708,0.02928,-0.04392,-0.03416,-0.0976,-0.10736,-0.06832
-0.0732,0.12444,-0.17568,-0.13908,-0.10248,0.01464,0.03904,-0.04392,-0.0244,-0.0976,-0.10736,-0.06344
-0.0732,0.12444,-0.17568,-0.13908,-0.10248,0.01464,0.03904,-0.04392,-0.03416,-0.10248,-0.11224,-0.06832
-0.0732,0.12444,-0.17568,-0.13908,-0.10248,0.01464,0.04392,-0.05368,-0.05368,-0.122,-0.122,-0.08296
-0.07808,0.12932,-0.18056,-0.14152,-0.10248,0.0122,0.04392,-0.05368,-0.05368,-0.122,-0.12688,-0.08296
-0.06832,0.11956,-0.1708,-0.13664,-0.10248,0.01708,0.04392,-0.0488,-0.0488,-0.122,-0.11712,-0.07808
-0.06832,0.122,-0.17568,-0.14152,-0.10736,0.01952,0.04392,-0.0488,-0.0488,-0.122,-0.122,-0.07808
-0.07808,0.12932,-0.18056,-0.14152,-0.10248,0.0122,0.03416,-0.0488,-0.0488,-0.12688,-0.13176,-0.07808
-0.07808,0.12688,-0.17568,-0.13664,-0.0976,0.00976,0.03904,-0.0488,-0.05368,-0.12688,-0.13176,-0.07808
-0.08296,0.1342,-0.18544,-0.14396,-0.10248,0.00976,0.0488,-0.0488,-0.05368,-0.11712,-0.13176,-0.07808
-0.08296,0.13176,-0.18056,-0.13908,-0.0976,0.00732,0.0488,-0.0488,-0.05368,-0.122,-0.13664,-0.07808
