i,aVR,ii,aVF,iii,aVL,V1,V2,V3,V4,V5,V6
-0.02928,0.00732,0.01464,0.02928,0.04392,-0.0366,0.00488,-0.01952,0,0,0.00488,0.00976
-0.01952,0.00488,0.00976,0.01952,0.02928,-0.0244,0.00488,-0.01952,-0.00976,0,-0.00488,0
-0.00488,-0.00244,0.00976,0.0122,0.01464,-0.00976,0,-0.01952,-0.00976,0,-0.00976,-0.00488
-0.00488,-0.00732,0.01952,0.02196,0.0244,-0.01464,0,-0.01952,-0.00976,0,-0.01464,-0.00488
-0.00488,-0.00244,0.00976,0.0122,0.01464,-0.00976,0.00488,-0.01952,-0.00976,0,-0.01464,-0.00488
-0.00488,0,0.00488,0.00732,0.00976,-0.00732,0.00976,-0.01952,0,0,0,-0.00488
-0.00488,-0.00244,0.00976,0.0122,0.01464,-0.00976,0.00488,-0.01952,-0.00488,0,0,-0.00488
-0.01464,0.00976,-0.00488,0.00244,0.00976,-0.0122,0,-0.01952,-0.01952,0,-0.01464,-0.00488
-0.01952,0.0122,-0.00488,0.00488,0.01464,-0.01708,0,-0.01952,-0.01952,-0.00488,-0.01464,-0.00488
-0.01952,0.00976,0,0.00976,0.01952,-0.01952,0,-0.01952,-0.01952,-0.00488,-0.01464,-0.00976
-0.01952,0.00976,0,0.00976,0.01952,-0.01952,-0.00488,-0.0244,-0.01952,-0.00488,-0.01464,-0.00976
-0.01952,0.0122,-0.00488,0.00488,0.01464,-0.01708,0.00488,-0.0244,-0.01464,-0.00488,-0.01464,-0.00976
-0.01952,0.0122,-0.00488,0.00488,0.01464,-0.01708,0.00976,-0.0244,-0.00976,-0.00488,-0.01952,-0.00976
-0.01952,0.01708,-0.01464,-0.00488,0.00488,-0.0122,0,-0.0244,-0.01952,-0.00488,-0.01952,-0.00976
-0.01952,0.01708,-0.01464,-0.00488,0.00488,-0.0122,0,-0.0244,-0.01952,-0.00976,-0.01952,-0.00976
-0.01952,0.02196,-0.0244,-0.01464,-0.00488,-0.00732,0.00976,-0.01952,-0.01464,0,-0.00488,0
-0.01952,0.02684,-0.03416,-0.0244,-0.01464,-0.00244,0.00488,-0.01952,-0.00488,0,-0.00488,0
-0.01952,0.0244,-0.02928,-0.01952,-0.00976,-0.00488,0.00488,-0.01952,-0.01464,0,-0.01464,0
-0.01952,0.01952,-0.01952,-0.00976,0,-0.00976,0.00488,-0.0244,-0.01464,0,-0.01464,0
-0.01952,0.01708,-0.01464,-0.00488,0.00488,-0.0122,0.00488,-0.0244,-0.00488,0,-0.01464,0
-0.01952,0.01464,-0.00976,0,0.00976,-0.01464,0.00488,-0.0244,-0.00488,0,-0.01464,0
-0.01952,0.00976,0,0.00976,0.01952,-0.01952,-0.00488,-0.02928,-0.01464,-0.00976,-0.0244,-0.00976
-0.0244,0.0122,0,0.0122,0.0244,-0.0244,0,-0.0244,-0.01464,-0.00976,-0.0244,-0.0244
-0.0244,0.01464,-0.00488,0.00732,0.01952,-0.02196,0,-0.0244,-0.0244,-0.01952,-0.0244,-0.0244
-0.0244,0.01464,-0.00488,0.00732,0.01952,-0.02196,0,-0.0244,-0.0244,-0.01952,-0.0244,-0.01952
-0.0244,0.01464,-0.00488,0.00732,0.01952,-0.02196,0,-0.0244,-0.0244,-0.01952,-0.0244,-0.01952
-0.0244,0.01464,-0.00488,0.00732,0.01952,-0.02196,0,-0.0244,-0.0244,-0.01952,-0.0244,-0.01952
-0.01464,0.00488,0.00488,0.0122,0.01952,-0.01708,0,-0.0244,-0.0244,-0.01952,-0.01952,-0.0244
-0.01464,0.00488,0.00488,0.0122,0.01952,-0.01708,0,-0.0244,-0.0244,-0.01952,-0.01952,-0.0244
-0.01464,0.00976,-0.00488,0.00244,0.00976,-0.0122,0,-0.0244,-0.01464,-0.00976,-0.01464,-0.0244
-0.01464,0.01464,-0.01464,-0.00732,0,-0.00732,-0.00488,-0.0244,-0.01952,-0.00976,-0.01464,-0.0244
-0.0244,0.0244,-0.0244,-0.0122,0,-0.0122,-0.00488,-0.02928,-0.01952,-0.00976,-0.00488,-0.01464
-0.01952,0.01952,-0.01952,-0.00976,0,-0.00976,-0.00488,-0.02928,-0.01952,-0.00976,-0.00488,-0.01464
-0.0244,0.02196,-0.01952,-0.00732,0.00488,-0.01464,0.00488,-0.02928,-0.01952,-0.00976,-0.00488,-0.01464
-0.01952,0.02196,-0.0244,-0.01464,-0.00488,-0.00732,0.00488,-0.0244,-0.01952,-0.00976,0,-0.01464
-0.01952,0.01708,-0.01464,-0.00488,0.00488,-0.0122,0.00488,-0.0244,-0.01464,-0.00976,-0.01464,-0.01464
-0.01952,0.00976,0,0.00976,0.01952,-0.01952,0.00976,-0.0244,-0.01464,-0.00976,-0.01464,-0.01464
-0.01952,0.00976,0,0.00976,0.01952,-0.01952,0,-0.02928,-0.01952,-0.01464,-0.01464,-0.01464
-0.01952,0.00976,0,0.00976,0.01952,-0.01952,0,-0.0244,-0.01952,-0.01464,-0.00976,-0.01464
-0.00976,0.00976,-0.00976,-0.00488,0,-0.00488,0.00976,-0.0244,-0.01464,-0.01464,-0.00976,-0.01464
-0.00976,0.00976,-0.00976,-0.00488,0,-0.00488,0.00976,-0.0244,-0.01464,-0.01464,-0.00976,-0.01464
0,0.00488,-0.00976,-0.00976,-0.00976,0.00488,0,-0.0244,-0.01464,-0.00976,-0.01464,-0.0244
0,0.00732,-0.01464,-0.01464,-0.01464,0.00732,-0.00488,-0.0244,-0.01464,-0.00976,-0.01464,-0.0244
-0.00976,0.00732,-0.00488,0,0.00488,-0.00732,-0.00488,-0.03416,-0.0244,-0.01952,-0.0244,-0.0244
-0.00976,0.00732,-0.00488,0,0.00488,-0.00732,-0.00488,-0.03416,-0.0244,-0.01952,-0.0244,-0.0244
-0.00976,0.00976,-0.00976,-0.00488,0,-0.00488,-0.00488,-0.03416,-0.0244,-0.01952,-0.0244,-0.0244
-0.00976,0.00976,-0.00976,-0.00488,0,-0.00488,-0.00488,-0.03416,-0.0244,-0.01952,-0.0244,-0.0244
-0.00976,0.01464,-0.01952,-0.01464,-0.00976,0,0,-0.02928,-0.01952,-0.01952,-0.01952,-0.01952
-0.01952,0.01952,-0.01952,-0.00976,0,-0.00976,0,-0.02928,-0.01952,-0.01952,-0.01952,-0.01952
-0.01952,0.01952,-0.01952,-0.00976,0,-0.00976,0,-0.02928,-0.01952,-0.01952,-0.01952,-0.01952
-0.02928,0.02684,-0.0244,-0.00976,0.00488,-0.01708,0.00976,-0.0244,-0.00976,-0.00976,-0.00976,-0.00976
-0.02928,0.02196,-0.01464,0,0.01464,-0.02196,0.00976,-0.0244,0.00488,0,0,-0.00976
-0.01464,0.01464,-0.01464,-0.00732,0,-0.00732,0.00976,-0.00976,0.00488,0,0,0
0.00488,0,-0.00488,-0.00732,-0.00976,0.00732,0.00976,-0.00976,0.00488,0,0,0
0.00488,-0.00488,0.00488,0.00244,0,0.00244,0,-0.01464,0,-0.00488,0,-0.00488
0.01464,-0.01708,0.01952,0.0122,0.00488,0.00488,0,-0.00976,0.00488,-0.00488,0,0
0.01952,-0.0244,0.02928,0.01952,0.00976,0.00488,0,-0.00976,0.00488,0.00976,0.00488,0
0.02928,-0.0366,0.04392,0.02928,0.01464,0.00732,0,-0.00488,0.01464,0.01952,0.01464,0.00488
0.03416,-0.04392,0.05368,0.0366,0.01952,0.00732,-0.00488,-0.00488,0.0244,0.01952,0.01952,0.00976
0.03416,-0.04392,0.05368,0.0366,0.01952,0.00732,-0.01952,-0.00488,0.02928,0.01952,0.01952,0.00976
0.03416,-0.03904,0.04392,0.02684,0.00976,0.0122,-0.0244,-0.01464,0.01952,0.0244,0.0244,0.00976
0.04392,-0.04636,0.0488,0.02684,0.00488,0.01952,-0.03416,-0.01464,0.01952,0.02928,0.0244,0.01464
0.05368,-0.05124,0.0488,0.02196,-0.00488,0.02928,-0.03904,-0.00976,0.01464,0.02928,0.02928,0.01952
0.05856,-0.05612,0.05368,0.0244,-0.00488,0.03172,-0.04392,-0.0244,0.00976,0.02928,0.02928,0.01952
0.05856,-0.05368,0.0488,0.01952,-0.00976,0.03416,-0.05368,-0.03416,0,0.00976,0.01952,0.01464
0.0488,-0.04392,0.03904,0.01464,-0.00976,0.02928,-0.05368,-0.03904,-0.01464,0,0.01464,0.00976
0.03904,-0.04392,0.0488,0.02928,0.00976,0.01464,-0.05368,-0.05368,-0.0244,-0.00976,0.00488,0
0.03904,-0.04392,0.0488,0.02928,0.00976,0.01464,-0.05368,-0.05368,-0.02928,-0.01464,0.00488,0.00488
0.03416,-0.03172,0.02928,0.0122,-0.00488,0.01952,-0.04392,-0.0488,-0.0244,-0.01464,0.00488,0.00488
0.04392,-0.03416,0.0244,0.00244,-0.01952,0.03172,-0.04392,-0.04392,-0.0244,-0.01464,0.00488,0.00488
0.04392,-0.02684,0.00976,-0.0122,-0.03416,0.03904,-0.04392,-0.02928,-0.01464,-0.00488,0.01464,0.00488
0.04392,-0.0244,0.00488,-0.01708,-0.03904,0.04148,-0.03904,-0.02928,-0.01952,-0.00488,0.00976,0.00488
0.03904,-0.02684,0.01464,-0.00488,-0.0244,0.03172,-0.03904,-0.03904,-0.02928,-0.01464,0.00488,0.00488
0.03904,-0.03172,0.0244,0.00488,-0.01464,0.02684,-0.0244,-0.03904,-0.0244,-0.01952,0,0
0.01464,-0.01708,0.01952,0.0122,0.00488,0.00488,-0.0244,-0.03416,-0.0244,-0.01952,-0.00488,-0.00976
0,-0.00488,0.00976,0.00976,0.00976,-0.00488,-0.01464,-0.03416,-0.01952,-0.01952,-0.00488,-0.01464
-0.01952,0.01464,-0.00976,0,0.00976,-0.01464,0.00488,-0.02928,-0.01952,-0.0244,-0.01464,-0.0244
-0.0244,0.01952,-0.01464,-0.00244,0.00976,-0.01708,0.00488,-0.0244,-0.0244,-0.0244,-0.01464,-0.0244
-0.0244,0.01952,-0.01464,-0.00244,0.00976,-0.01708,0.00488,-0.0244,-0.0244,-0.0244,-0.01952,-0.0244
-0.0244,0.01952,-0.01464,-0.00244,0.00976,-0.01708,0.00488,-0.02928,-0.01952,-0.0244,-0.01952,-0.02928
-0.0244,0.01952,-0.01464,-0.00244,0.00976,-0.01708,-0.00488,-0.02928,-0.02928,-0.03416,-0.02928,-0.03904
-0.0244,0.01952,-0.01464,-0.00244,0.00976,-0.01708,-0.00488,-0.0244,-0.02928,-0.03416,-0.02928,-0.03904
-0.03416,0.0244,-0.01464,0.00244,0.01952,-0.02684,0,-0.0244,-0.0244,-0.02928,-0.01952,-0.03416
-0.03904,0.02684,-0.01464,0.00488,0.0244,-0.03172,0,-0.02928,-0.0244,-0.02928,-0.01952,-0.03416
-0.02928,0.01464,0,0.01464,0.02928,-0.02928,0,-0.03904,-0.0244,-0.02928,-0.0244,-0.02928
-0.01952,0.00976,0,0.00976,0.01952,-0.01952,-0.00488,-0.03904,-0.0244,-0.02928,-0.0244,-0.02928
-0.01952,0.0122,-0.00488,0.00488,0.01464,-0.01708,0.00488,-0.03416,-0.0244,-0.02928,-0.02928,-0.03904
-0.01952,0.0122,-0.00488,0.00488,0.01464,-0.01708,0.00976,-0.03416,-0.01952,-0.02928,-0.02928,-0.03416
-0.0244,0.01952,-0.01464,-0.00244,0.00976,-0.01708,0.00976,-0.01464,0,-0.01464,-0.01464,-0.0244
-0.02928,0.03172,-0.03416,-0.01952,-0.00488,-0.0122,0.01952,-0.01464,-0.00976,-0.01952,-0.0244,-0.03416
-0.02928,0.04636,-0.06344,-0.0488,-0.03416,0.00244,0.03904,0.01952,-0.0244,-0.05368,-0.05856,-0.05856
-0.03416,0.0732,-0.11224,-0.09516,-0.07808,0.02196,0.0732,0.05856,-0.03904,-0.09272,-0.09272,-0.0976
-0.03416,0.0854,-0.13664,-0.11956,-0.10248,0.03416,0.10736,0.122,-0.03416,-0.13176,-0.14152,-0.13664
0.00976,0.05612,-0.122,-0.12688,-0.13176,0.07076,0.12688,0.18056,0.0244,-0.0976,-0.11712,-0.12688
0.08296,-0.02928,-0.0244,-0.06588,-0.10736,0.09516,0.09272,0.22448,0.15128,0.0244,0.00488,-0.0244
0.244,-0.22448,0.20496,0.08296,-0.03904,0.14152,-0.0244,0.20984,0.35136,0.30744,0.28304,0.2196
0.4636,-0.50264,0.54168,0.30988,0.07808,0.19276,-0.244,0.11712,0.59048,0.71248,0.69784,0.58072
0.70272,-0.8174,0.93208,0.58072,0.22936,0.23668,-0.51728,-0.05368,0.81008,1.1712,1.1712,1.01504
0.87352,-1.0858,1.29808,0.86132,0.42456,0.22448,-0.78568,-0.28304,0.976,1.60552,1.64456,1.4396
0.95648,-1.27612,1.59576,1.11752,0.63928,0.1586,-1.00528,-0.50752,1.10776,1.98128,2.03008,1.79584
0.93696,-1.3298,1.72264,1.25416,0.78568,0.07564,-1.12728,-0.67344,1.14192,2.1716,2.23016,1.97152
0.83936,-1.22,1.60064,1.18096,0.76128,0.03904,-1.09312,-0.72224,1.01992,2.04472,2.12768,1.89344
0.67344,-0.99308,1.31272,0.976,0.63928,0.01708,-0.94672,-0.69784,0.68808,1.586,1.708,1.57136
0.48312,-0.69784,0.91256,0.671,0.42944,0.02684,-0.74664,-0.62952,0.244,0.93696,1.11752,1.10288
0.29768,-0.41968,0.54168,0.39284,0.244,0.02684,-0.53192,-0.51728,-0.14152,0.34648,0.54656,0.63928
0.16104,-0.23912,0.3172,0.23668,0.15616,0.00244,-0.36112,-0.39528,-0.32208,0.00976,0.1952,0.3172
0.0732,-0.12688,0.18056,0.14396,0.10736,-0.01708,-0.23424,-0.27328,-0.30744,-0.10248,0.03904,0.14152
0.0244,-0.061,0.0976,0.0854,0.0732,-0.0244,-0.122,-0.15616,-0.22448,-0.11224,-0.0244,0.04392
0,-0.02684,0.05368,0.05368,0.05368,-0.02684,-0.0732,-0.10248,-0.16104,-0.10248,-0.0488,-0.01464
-0.02928,0.00732,0.01464,0.02928,0.04392,-0.0366,-0.02928,-0.05856,-0.11224,-0.08784,-0.0488,-0.02928
-0.03416,0.01708,0,0.01708,0.03416,-0.03416,0,-0.03416,-0.06832,-0.06344,-0.03904,-0.02928
-0.03416,0.02196,-0.00976,0.00732,0.0244,-0.02928,0.01464,-0.01464,-0.04392,-0.05368,-0.03904,-0.03904
-0.03904,0.02928,-0.01952,0,0.01952,-0.02928,0.0244,0.00488,-0.02928,-0.03904,-0.03904,-0.03904
-0.03904,0.03416,-0.02928,-0.00976,0.00976,-0.0244,0.03416,0.01464,-0.0244,-0.03904,-0.03416,-0.04392
-0.04392,0.0366,-0.02928,-0.00732,0.01464,-0.02928,0.02928,0.01952,-0.0244,-0.0488,-0.0488,-0.05856
-0.04392,0.0366,-0.02928,-0.00732,0.01464,-0.02928,0.02928,0.01952,-0.0244,-0.05856,-0.05856,-0.05856
-0.05368,0.04636,-0.03904,-0.0122,0.01464,-0.03416,0.03416,0.0244,-0.01464,-0.0488,-0.05856,-0.06832
-0.05368,0.0488,-0.04392,-0.01708,0.00976,-0.03172,0.03416,0.0244,-0.01464,-0.0488,-0.05856,-0.06832
-0.05368,0.04392,-0.03416,-0.00732,0.01952,-0.0366,0.03416,0.02928,-0.00976,-0.0488,-0.05856,-0.05856
-0.05368,0.04392,-0.03416,-0.00732,0.01952,-0.0366,0.03416,0.02928,-0.00488,-0.04392,-0.05856,-0.06344
-0.04392,0.03416,-0.0244,-0.00244,0.01952,-0.03172,0.04392,0.02928,0.00488,-0.04392,-0.0488,-0.05368
-0.03904,0.03172,-0.0244,-0.00488,0.01464,-0.02684,0.04392,0.03416,0.00976,-0.03904,-0.04392,-0.0488
-0.0488,0.04148,-0.03416,-0.00976,0.01464,-0.03172,0.0488,0.03416,0.00488,-0.03904,-0.03904,-0.0488
-0.0488,0.04636,-0.04392,-0.01952,0.00488,-0.02684,0.0488,0.03904,0.00488,-0.03904,-0.03904,-0.0488
-0.03904,0.0366,-0.03416,-0.01464,0.00488,-0.02196,0.0488,0.03904,0.00976,-0.04392,-0.0488,-0.0488
-0.03904,0.0366,-0.03416,-0.01464,0.00488,-0.02196,0.05368,0.04392,0.00976,-0.03904,-0.0488,-0.0488
-0.0244,0.02684,-0.02928,-0.01708,-0.00488,-0.00976,0.05368,0.04392,0.00976,-0.03416,-0.0488,-0.05856
-0.0244,0.0244,-0.0244,-0.0122,0,-0.0122,0.05368,0.04392,0.01464,-0.03416,-0.0488,-0.05368
-0.03416,0.03416,-0.03416,-0.01708,0,-0.01708,0.0488,0.04392,0.0244,-0.02928,-0.03904,-0.0488
-0.03416,0.03416,-0.03416,-0.01708,0,-0.01708,0.0488,0.05368,0.02928,-0.02928,-0.03416,-0.04392
-0.02928,0.03172,-0.03416,-0.01952,-0.00488,-0.0122,0.03904,0.05368,0.01952,-0.0244,-0.03416,-0.04392
-0.02928,0.03172,-0.03416,-0.01952,-0.00488,-0.0122,0.03904,0.05368,0.0244,-0.0244,-0.03416,-0.04392
-0.03904,0.03172,-0.0244,-0.00488,0.01464,-0.02684,0.03904,0.05856,0.01952,-0.03416,-0.03904,-0.05368
-0.03904,0.02684,-0.01464,0.00488,0.0244,-0.03172,0.03904,0.05856,0.0244,-0.02928,-0.03904,-0.0488
-0.04392,0.03416,-0.0244,-0.00244,0.01952,-0.03172,0.0488,0.06344,0.03416,-0.0244,-0.03416,-0.03904
-0.03904,0.03172,-0.0244,-0.00488,0.01464,-0.02684,0.05368,0.06832,0.03416,-0.01952,-0.02928,-0.03416
-0.03904,0.0366,-0.03416,-0.01464,0.00488,-0.02196,0.06344,0.08296,0.0488,-0.00488,-0.01952,-0.02928
-0.03416,0.03416,-0.03416,-0.01708,0,-0.01708,0.06832,0.08784,0.05368,0,-0.01464,-0.02928
-0.03416,0.0366,-0.03904,-0.02196,-0.00488,-0.01464,0.06832,0.0976,0.06344,0.00976,-0.00488,-0.0244
-0.02928,0.03416,-0.03904,-0.0244,-0.00976,-0.00976,0.0732,0.10736,0.0732,0.01464,0.00488,-0.01952
-0.02928,0.02684,-0.0244,-0.00976,0.00488,-0.01708,0.06832,0.10248,0.07808,0.00488,-0.00488,-0.01952
-0.01952,0.01952,-0.01952,-0.00976,0,-0.00976,0.06344,0.11224,0.08784,0.01952,0.00488,-0.01464
-0.01952,0.0122,-0.00488,0.00488,0.01464,-0.01708,0.05368,0.122,0.08784,0.0244,0.00976,-0.00976
-0.00976,0.00488,0,0.00488,0.00976,-0.00976,0.05368,0.13664,0.0976,0.03416,0.01952,-0.00488
0,-0.00732,0.01464,0.01464,0.01464,-0.00732,0.05368,0.13176,0.10736,0.03904,0.0244,0
0,-0.00976,0.01952,0.01952,0.01952,-0.00976,0.0488,0.13664,0.122,0.0488,0.03416,0.00488
0.00488,-0.01708,0.02928,0.02684,0.0244,-0.00976,0.0488,0.1464,0.12688,0.05368,0.03904,0.00488
0.00976,-0.0244,0.03904,0.03416,0.02928,-0.00976,0.0488,0.16104,0.1464,0.06832,0.0488,0.00488
0.00976,-0.02684,0.04392,0.03904,0.03416,-0.0122,0.06344,0.18544,0.16592,0.08784,0.06344,0.0244
0.01952,-0.03904,0.05856,0.0488,0.03904,-0.00976,0.06832,0.1952,0.18544,0.10248,0.08296,0.03904
0.0244,-0.04148,0.05856,0.04636,0.03416,-0.00488,0.07808,0.2196,0.2196,0.13176,0.10248,0.05856
0.03416,-0.0488,0.06344,0.04636,0.02928,0.00244,0.07808,0.23424,0.23912,0.15128,0.122,0.0732
0.05368,-0.061,0.06832,0.04148,0.01464,0.01952,0.06832,0.24888,0.2684,0.16104,0.14152,0.09272
0.06832,-0.07808,0.08784,0.05368,0.01952,0.0244,0.06344,0.25864,0.28792,0.1952,0.16592,0.11224
0.08784,-0.0976,0.10736,0.06344,0.01952,0.03416,0.05368,0.2684,0.30744,0.22448,0.1952,0.13176
0.0976,-0.11224,0.12688,0.07808,0.02928,0.03416,0.04392,0.27816,0.33184,0.25376,0.22448,0.15616
0.11224,-0.1342,0.15616,0.10004,0.04392,0.03416,0.03904,0.28792,0.34648,0.27328,0.244,0.17568
0.12688,-0.15128,0.17568,0.11224,0.0488,0.03904,0.02928,0.28792,0.38064,0.30256,0.2684,0.20008
0.13664,-0.16348,0.19032,0.122,0.05368,0.04148,0.01952,0.2928,0.40016,0.3172,0.29768,0.2196
0.15128,-0.18056,0.20984,0.1342,0.05856,0.04636,0.01952,0.2928,0.41968,0.3416,0.3172,0.244
0.16104,-0.19032,0.2196,0.13908,0.05856,0.05124,0.00976,0.30256,0.44896,0.36112,0.33184,0.26352
0.1708,-0.20252,0.23424,0.14884,0.06344,0.05368,0.00488,0.30256,0.45872,0.38552,0.35136,0.28304
0.1708,-0.21228,0.25376,0.16836,0.08296,0.04392,0.00488,0.29768,0.47336,0.40504,0.37088,0.2928
0.17568,-0.21716,0.25864,0.1708,0.08296,0.04636,-0.00488,0.2928,0.48312,0.4148,0.38064,0.30744
0.18544,-0.22692,0.2684,0.17568,0.08296,0.05124,-0.01464,0.2928,0.488,0.44408,0.40504,0.32208
0.19032,-0.23668,0.28304,0.18788,0.09272,0.0488,-0.01952,0.28304,0.488,0.44896,0.41968,0.33184
0.20008,-0.244,0.28792,0.18788,0.08784,0.05612,-0.03904,0.26352,0.48312,0.45384,0.43432,0.34648
0.20008,-0.24644,0.2928,0.19276,0.09272,0.05368,-0.0488,0.23912,0.46848,0.44896,0.42944,0.34648
0.19032,-0.24156,0.2928,0.19764,0.10248,0.04392,-0.06344,0.2196,0.44896,0.43432,0.41968,0.33672
0.18056,-0.2318,0.28304,0.19276,0.10248,0.03904,-0.06832,0.19032,0.41968,0.40992,0.39528,0.32208
0.16592,-0.22448,0.28304,0.20008,0.11712,0.0244,-0.06832,0.16592,0.3904,0.38552,0.37088,0.30256
0.1464,-0.20496,0.26352,0.19032,0.11712,0.01464,-0.06832,0.15128,0.35136,0.34648,0.3416,0.27328
0.13176,-0.1952,0.25864,0.19276,0.12688,0.00244,-0.06832,0.122,0.31232,0.32208,0.30256,0.244
0.11224,-0.17324,0.23424,0.17812,0.122,-0.00488,-0.06344,0.10248,0.27816,0.28792,0.27328,0.21472
0.0976,-0.15128,0.20496,0.15616,0.10736,-0.00488,-0.0488,0.08784,0.244,0.24888,0.23424,0.18544
0.07808,-0.13176,0.18544,0.1464,0.10736,-0.01464,-0.04392,0.0732,0.20984,0.20984,0.20008,0.15128
0.0732,-0.11956,0.16592,0.12932,0.09272,-0.00976,-0.03904,0.05368,0.18056,0.17568,0.1708,0.13176
0.06344,-0.10492,0.1464,0.11468,0.08296,-0.00976,-0.03416,0.04392,0.15128,0.1464,0.1464,0.10736
0.05368,-0.09028,0.12688,0.10004,0.0732,-0.00976,-0.0244,0.04392,0.122,0.13176,0.11224,0.07808
0.03416,-0.07076,0.10736,0.09028,0.0732,-0.01952,-0.0244,0.02928,0.10248,0.10248,0.08296,0.05856
0.01952,-0.05368,0.08784,0.07808,0.06832,-0.0244,-0.02928,0.01464,0.08296,0.08784,0.06832,0.04392
0.00976,-0.03904,0.06832,0.06344,0.05856,-0.0244,-0.0244,0.00976,0.06344,0.06832,0.0488,0.02928
0,-0.02196,0.04392,0.04392,0.04392,-0.02196,-0.01464,0.00488,0.05368,0.05856,0.04392,0.01952
-0.00976,-0.01464,0.03904,0.04392,0.0488,-0.02928,-0.00976,0,0.04392,0.04392,0.03416,0.00976
-0.01952,0,0.01952,0.02928,0.03904,-0.02928,0,0.00488,0.02928,0.03416,0.0244,0.00976
-0.0244,0.00244,0.01952,0.03172,0.04392,-0.03416,0.00488,0.00488,0.0244,0.0244,0.01464,0.00488
-0.02928,0.00488,0.01952,0.03416,0.0488,-0.03904,-0.00488,-0.00976,0.00488,0.00488,0.00488,-0.01464
-0.03416,0.00732,0.01952,0.0366,0.05368,-0.04392,-0.00488,-0.00976,0.00488,0,0,-0.01464
-0.03904,0.0122,0.01464,0.03416,0.05368,-0.04636,0.00488,-0.00976,0.00976,0.00976,-0.00488,-0.01952
-0.03416,0.00976,0.01464,0.03172,0.0488,-0.04148,0.00488,-0.00976,0.00488,0.00488,-0.00488,-0.01952
-0.03416,0.01464,0.00488,0.02196,0.03904,-0.0366,0.00488,-0.00976,0.00488,0.00488,-0.00488,-0.0244
-0.03904,0.02196,-0.00488,0.01464,0.03416,-0.0366,0.00976,-0.01464,0.00488,0.00488,-0.00976,-0.0244
-0.03904,0.0244,-0.00976,0.00976,0.02928,-0.03416,-0.00488,-0.01464,0,0.00488,-0.00976,-0.0244
-0.03904,0.0244,-0.00976,0.00976,0.02928,-0.03416,-0.00488,-0.01952,0,0,-0.00976,-0.0244
-0.03904,0.0244,-0.00976,0.00976,0.02928,-0.03416,-0.00488,-0.01952,-0.00488,-0.00488,-0.00976,-0.0244
-0.03904,0.02196,-0.00488,0.01464,0.03416,-0.0366,-0.00976,-0.01952,-0.00488,-0.00488,-0.00976,-0.02928
-0.03904,0.02196,-0.00488,0.01464,0.03416,-0.0366,-0.01464,-0.02928,-0.01464,-0.00488,-0.01952,-0.02928
-0.03904,0.02196,-0.00488,0.01464,0.03416,-0.0366,-0.01464,-0.02928,-0.00976,-0.00488,-0.01952,-0.02928
-0.05368,0.03172,-0.00976,0.01708,0.04392,-0.0488,-0.00488,-0.0244,-0.00976,-0.00488,-0.01952,-0.02928
-0.05368,0.02928,-0.00488,0.02196,0.0488,-0.05124,-0.00488,-0.01952,-0.01464,-0.00488,-0.01952,-0.02928
-0.05368,0.0244,0.00488,0.03172,0.05856,-0.05612,0.00488,-0.02928,-0.01464,-0.01952,-0.02928,-0.02928
-0.05856,0.02684,0.00488,0.03416,0.06344,-0.061,0.00976,-0.02928,-0.0244,-0.01952,-0.03416,-0.02928
-0.0488,0.01952,0.00976,0.03416,0.05856,-0.05368,0,-0.01952,-0.0244,-0.01464,-0.0244,-0.03416
-0.0488,0.0244,0,0.0244,0.0488,-0.0488,0,-0.01952,-0.0244,-0.01464,-0.0244,-0.03416
-0.0488,0.02928,-0.00976,0.01464,0.03904,-0.04392,0,-0.01952,-0.0244,-0.01464,-0.01952,-0.0244
-0.0488,0.02928,-0.00976,0.01464,0.03904,-0.04392,0,-0.01952,-0.0244,-0.01464,-0.01952,-0.0244
-0.03904,0.02684,-0.01464,0.00488,0.0244,-0.03172,-0.00976,-0.01952,-0.0244,-0.01464,-0.01952,-0.02928
-0.03904,0.02684,-0.01464,0.00488,0.0244,-0.03172,-0.00976,-0.01952,-0.0244,-0.01464,-0.01952,-0.02928
-0.0488,0.03172,-0.01464,0.00976,0.03416,-0.04148,-0.00488,-0.01952,-0.01464,-0.01464,-0.01952,-0.0244
-0.0488,0.03172,-0.01464,0.00976,0.03416,-0.04148,-0.00488,-0.01952,-0.01464,-0.01464,-0.01464,-0.02928
-0.0488,0.02684,-0.00488,0.01952,0.04392,-0.04636,-0.00488,-0.01952,-0.01464,-0.01464,-0.01952,-0.02928
-0.05368,0.0244,0.00488,0.03172,0.05856,-0.05612,0,-0.0244,-0.01464,-0.01464,-0.01952,-0.02928
-0.0488,0.02684,-0.00488,0.01952,0.04392,-0.04636,0.00976,-0.01464,-0.01464,-0.01952,-0.01952,-0.02928
-0.0488,0.02684,-0.00488,0.01952,0.04392,-0.04636,0.00976,-0.00976,-0.01464,-0.01952,-0.01952,-0.02928
-0.0488,0.0366,-0.0244,0,0.0244,-0.0366,0.00976,-0.00976,-0.00488,-0.01464,-0.01952,-0.0244
-0.0488,0.03904,-0.02928,-0.00488,0.01952,-0.03416,0.00976,-0.00976,-0.00488,-0.01464,-0.01952,-0.0244
-0.04392,0.03416,-0.0244,-0.00244,0.01952,-0.03172,0,-0.00976,-0.01464,-0.01464,-0.01952,-0.0244
-0.04392,0.03416,-0.0244,-0.00244,0.01952,-0.03172,0,-0.00976,-0.01464,-0.00976,-0.01952,-0.0244
-0.0488,0.03172,-0.01464,0.00976,0.03416,-0.04148,-0.00488,-0.00976,-0.01464,-0.00976,-0.0244,-0.0244
-0.05856,0.03416,-0.00976,0.01952,0.0488,-0.05368,-0.00976,-0.00976,-0.01464,-0.00976,-0.01464,-0.0244
-0.05856,0.03172,-0.00488,0.0244,0.05368,-0.05612,-0.00976,-0.01952,-0.01952,-0.00976,-0.01464,-0.01952
-0.05856,0.03172,-0.00488,0.0244,0.05368,-0.05612,-0.00976,-0.01952,-0.01952,-0.00976,-0.01464,-0.01952
-0.05856,0.0366,-0.01464,0.01464,0.04392,-0.05124,-0.00488,-0.00976,-0.00976,-0.00488,-0.01464,-0.01952
-0.05368,0.0366,-0.01952,0.00732,0.03416,-0.04392,-0.00488,-0.00976,-0.00976,-0.00488,-0.0244,-0.01952
-0.04392,0.0244,-0.00488,0.01708,0.03904,-0.04148,0.00488,-0.00976,-0.00976,-0.00488,-0.01464,-0.01952
-0.04392,0.0244,-0.00488,0.01708,0.03904,-0.04148,0.00488,-0.00976,-0.00976,-0.00976,-0.00976,-0.01952
-0.03904,0.01708,0.00488,0.0244,0.04392,-0.04148,0.00488,-0.00976,-0.01952,-0.00488,-0.01464,-0.01952
-0.03904,0.01708,0.00488,0.0244,0.04392,-0.04148,0.00488,-0.00976,-0.01952,-0.00976,-0.0244,-0.01952
-0.02928,0.01464,0,0.01464,0.02928,-0.02928,0.00488,0,-0.00976,0,-0.01464,-0.01952
-0.0244,0.0122,0,0.0122,0.0244,-0.0244,0,0,-0.00976,0,-0.01952,-0.0244
-0.03416,0.01708,0,0.01708,0.03416,-0.03416,0,0,0,0,-0.01464,-0.0244
-0.03416,0.02196,-0.00976,0.00732,0.0244,-0.02928,0.00488,0,0,0,-0.01464,-0.0244
-0.03416,0.02928,-0.0244,-0.00732,0.00976,-0.02196,-0.00976,-0.00976,-0.00976,-0.00976,-0.01952,-0.0244
-0.03416,0.02684,-0.01952,-0.00244,0.01464,-0.0244,-0.01464,-0.00976,-0.01464,-0.01952,-0.01952,-0.0244
-0.04392,0.02928,-0.01464,0.00732,0.02928,-0.0366,-0.00976,-0.01952,-0.01952,-0.01952,-0.0244,-0.0244
-0.0488,0.03172,-0.01464,0.00976,0.03416,-0.04148,-0.00976,-0.01952,-0.01952,-0.0244,-0.0244,-0.0244
-0.03904,0.02928,-0.01952,0,0.01952,-0.02928,0,-0.00976,-0.01952,-0.01464,-0.0244,-0.01952
-0.03904,0.02928,-0.01952,0,0.01952,-0.02928,-0.00488,-0.01464,-0.01952,-0.00488,-0.0244,-0.01952
-0.03904,0.02684,-0.01464,0.00488,0.0244,-0.03172,0.00488,-0.01464,-0.0244,-0.01464,-0.0244,-0.01952
-0.03904,0.02684,-0.01464,0.00488,0.0244,-0.03172,0.00976,-0.01464,-0.01952,-0.01464,-0.02928,-0.01952
-0.03904,0.03172,-0.0244,-0.00488,0.01464,-0.02684,0.00976,-0.00488,-0.00976,-0.00488,-0.01952,-0.01952
-0.03904,0.03172,-0.0244,-0.00488,0.01464,-0.02684,0.00976,-0.00488,-0.00976,-0.00976,-0.01952,-0.01952
-0.03904,0.0366,-0.03416,-0.01464,0.00488,-0.02196,0.00976,-0.00976,-0.01464,-0.00976,-0.0244,-0.01952
-0.03904,0.04148,-0.04392,-0.0244,-0.00488,-0.01708,0.00488,-0.00976,-0.01464,-0.00976,-0.0244,-0.01952
-0.03904,0.03416,-0.02928,-0.00976,0.00976,-0.0244,-0.00488,-0.00976,-0.0244,-0.01952,-0.03416,-0.02928
-0.03904,0.02928,-0.01952,0,0.01952,-0.02928,-0.00488,-0.01464,-0.0244,-0.01952,-0.03416,-0.03904
-0.03904,0.03172,-0.0244,-0.00488,0.01464,-0.02684,0.00488,-0.01464,-0.0244,-0.01952,-0.0244,-0.02928
-0.03904,0.02928,-0.01952,0,0.01952,-0.02928,0.00488,-0.01464,-0.0244,-0.01952,-0.0244,-0.02928
-0.03904,0.03416,-0.02928,-0.00976,0.00976,-0.0244,0.00488,-0.01952,-0.01464,-0.00976,-0.0244,-0.01952
-0.04392,0.04148,-0.03904,-0.01708,0.00488,-0.0244,0.00976,-0.01464,-0.01464,-0.00976,-0.0244,-0.0244
-0.04392,0.04392,-0.04392,-0.02196,0,-0.02196,0.00976,-0.00488,-0.0244,-0.01952,-0.0244,-0.0244
-0.04392,0.04392,-0.04392,-0.02196,0,-0.02196,0.00976,-0.00488,-0.0244,-0.01952,-0.0244,-0.01952
-0.04392,0.03904,-0.03416,-0.0122,0.00976,-0.02684,0.00976,-0.00488,-0.0244,-0.01952,-0.03416,-0.01952
-0.04392,0.03904,-0.03416,-0.0122,0.00976,-0.02684,0.00976,-0.00488,-0.0244,-0.01952,-0.03416,-0.01952
-0.04392,0.03904,-0.03416,-0.0122,0.00976,-0.02684,0,-0.00488,-0.0244,-0.01952,-0.03904,-0.03416
-0.04392,0.03904,-0.03416,-0.0122,0.00976,-0.02684,0,-0.00488,-0.0244,-0.01952,-0.03904,-0.03416
-0.05368,0.0488,-0.04392,-0.01708,0.00976,-0.03172,0,-0.01464,-0.0244,-0.01952,-0.03416,-0.0244
-0.05368,0.0488,-0.04392,-0.01708,0.00976,-0.03172,-0.00488,-0.01464,-0.02928,-0.01952,-0.03416,-0.0244
-0.05368,0.0488,-0.04392,-0.01708,0.00976,-0.03172,-0.00488,-0.01952,-0.02928,-0.01952,-0.03416,-0.0244
-0.0488,0.04392,-0.03904,-0.01464,0.00976,-0.02928,-0.00488,-0.01952,-0.02928,-0.01952,-0.03416,-0.0244
-0.06344,0.05124,-0.03904,-0.00732,0.0244,-0.04392,0.00488,-0.00976,-0.01952,-0.01952,-0.04392,-0.0244
-0.05856,0.05124,-0.04392,-0.01464,0.01464,-0.0366,0.00488,-0.00488,-0.01952,-0.01952,-0.03904,-0.0244
-0.05856,0.05124,-0.04392,-0.01464,0.01464,-0.0366,0.00488,-0.00488,-0.0244,-0.01952,-0.03416,-0.03416
-0.05856,0.0488,-0.03904,-0.00976,0.01952,-0.03904,0.00976,-0.00488,-0.0244,-0.01952,-0.03416,-0.03416
-0.0488,0.03904,-0.02928,-0.00488,0.01952,-0.03416,0,-0.01952,-0.02928,-0.0244,-0.04392,-0.04392
-0.0488,0.03416,-0.01952,0.00488,0.02928,-0.03904,0,-0.01464,-0.02928,-0.0244,-0.03904,-0.04392
-0.0488,0.03904,-0.02928,-0.00488,0.01952,-0.03416,0,-0.01464,-0.03416,-0.0244,-0.03904,-0.03416
-0.0488,0.03904,-0.02928,-0.00488,0.01952,-0.03416,0,-0.01464,-0.03416,-0.0244,-0.03904,-0.03416
-0.0488,0.04392,-0.03904,-0.01464,0.00976,-0.02928,0,-0.01464,-0.0244,-0.01952,-0.03416,-0.03416
-0.0488,0.04636,-0.04392,-0.01952,0.00488,-0.02684,-0.00488,-0.01464,-0.0244,-0.01952,-0.03416,-0.03416
-0.05856,0.05124,-0.04392,-0.01464,0.01464,-0.0366,-0.00488,-0.01464,-0.0244,-0.02928,-0.04392,-0.03416
-0.05856,0.05124,-0.04392,-0.01464,0.01464,-0.0366,-0.00488,-0.01464,-0.0244,-0.02928,-0.04392,-0.03416
-0.05856,0.05368,-0.0488,-0.01952,0.00976,-0.03416,0.00976,0,-0.01952,-0.01952,-0.03904,-0.02928
-0.05856,0.05368,-0.0488,-0.01952,0.00976,-0.03416,0.00976,0,-0.01952,-0.01952,-0.03904,-0.02928
-0.05856,0.05368,-0.0488,-0.01952,0.00976,-0.03416,0.00976,0,-0.01952,-0.01952,-0.03904,-0.02928
-0.0488,0.05124,-0.05368,-0.02928,-0.00488,-0.02196,0.00976,-0.00488,-0.01952,-0.01952,-0.03904,-0.02928
-0.0488,0.04636,-0.04392,-0.01952,0.00488,-0.02684,0.00976,-0.00488,-0.01464,-0.01952,-0.03904,-0.02928
-0.04392,0.03904,-0.03416,-0.0122,0.00976,-0.02684,0.00976,0,-0.01464,-0.01952,-0.03904,-0.01952
-0.03416,0.02928,-0.0244,-0.00732,0.00976,-0.02196,0.00976,0,-0.01464,-0.01952,-0.03904,-0.01952
-0.03416,0.02928,-0.0244,-0.00732,0.00976,-0.02196,0.00976,0.00488,0,-0.00488,-0.02928,-0.01464
-0.0244,0.02196,-0.01952,-0.00732,0.00488,-0.01464,0.00976,0.00976,0.00488,-0.00488,-0.02928,-0.00976
-0.01952,0.01952,-0.01952,-0.00976,0,-0.00976,0,0.00976,0.00488,0.00976,-0.01464,0
-0.00976,0.00732,-0.00488,0,0.00488,-0.00732,0,0.01464,0.01464,0.01952,-0.00488,0.00488
-0.00488,0,0.00488,0.00732,0.00976,-0.00732,0.00488,0.0244,0.0244,0.01952,0,0.01952
-0.00488,0,0.00488,0.00732,0.00976,-0.00732,-0.00976,0.0244,0.02928,0.01952,0,0.01952
0.00488,-0.00976,0.01464,0.0122,0.00976,-0.00244,-0.01464,0.0244,0.01952,0.0244,0.00488,0.01952
0.01464,-0.01708,0.01952,0.0122,0.00488,0.00488,-0.0244,0.0244,0.01952,0.02928,0.00488,0.0244
0.01464,-0.02196,0.02928,0.02196,0.01464,0,-0.02928,0.00976,0.01464,0.01952,0.00976,0.01952
0.01952,-0.02684,0.03416,0.0244,0.01464,0.00244,-0.03416,-0.00488,0.00976,0.01952,0.00976,0.01952
0.01952,-0.0244,0.02928,0.01952,0.00976,0.00488,-0.04392,-0.01464,0.00976,0.00976,-0.00976,0.01464
0.00976,-0.01464,0.01952,0.01464,0.00976,0,-0.04392,-0.01952,-0.00488,0,-0.01464,0.00976
0.00976,-0.01464,0.01952,0.01464,0.00976,0,-0.04392,-0.0244,-0.01464,0,-0.0244,0
0.00976,-0.01464,0.01952,0.01464,0.00976,0,-0.04392,-0.0244,-0.01952,-0.00488,-0.0244,0.00488
0.01464,-0.0122,0.00976,0.00244,-0.00488,0.00976,-0.04392,-0.02928,-0.0244,-0.01464,-0.0244,-0.00488
0.0244,-0.01464,0.00488,-0.00732,-0.01952,0.02196,-0.04392,-0.0244,-0.0244,-0.01464,-0.0244,-0.00488
0.0244,-0.00732,-0.00976,-0.02196,-0.03416,0.02928,-0.04392,-0.01952,-0.0244,-0.01464,-0.0244,-0.00488
0.0244,-0.00488,-0.01464,-0.02684,-0.03904,0.03172,-0.03904,-0.01952,-0.02928,-0.01464,-0.02928,-0.00488
0.01952,-0.00732,-0.00488,-0.01464,-0.0244,0.02196,-0.03904,-0.02928,-0.02928,-0.01464,-0.0244,-0.00488
0.00976,-0.00244,-0.00488,-0.00976,-0.01464,0.0122,-0.0244,-0.02928,-0.0244,-0.01952,-0.02928,-0.00976
-0.0244,0.02196,-0.01952,-0.00732,0.00488,-0.01464,-0.00488,-0.01464,-0.0244,-0.01952,-0.03416,-0.00976
-0.03904,0.03416,-0.02928,-0.00976,0.00976,-0.0244,0.00488,-0.01464,-0.01952,-0.01952,-0.03416,-0.00488
-0.05856,0.05368,-0.0488,-0.01952,0.00976,-0.03416,0.01464,-0.00976,-0.01952,-0.0244,-0.03416,-0.0244
-0.06344,0.05856,-0.05368,-0.02196,0.00976,-0.0366,0.01464,-0.00488,-0.0244,-0.0244,-0.03416,-0.0244
-0.06344,0.05856,-0.05368,-0.02196,0.00976,-0.0366,0.01464,-0.00488,-0.03416,-0.0244,-0.03904,-0.0244
-0.06344,0.05856,-0.05368,-0.02196,0.00976,-0.0366,0.01464,-0.00976,-0.02928,-0.0244,-0.03904,-0.02928
-0.05368,0.05368,-0.05368,-0.02684,0,-0.02684,0.00488,-0.00976,-0.02928,-0.0244,-0.03904,-0.02928
-0.05368,0.05368,-0.05368,-0.02684,0,-0.02684,0.00488,-0.00488,-0.02928,-0.0244,-0.03904,-0.02928
-0.06344,0.05856,-0.05368,-0.02196,0.00976,-0.0366,0.00976,-0.00488,-0.0244,-0.01952,-0.02928,-0.0244
-0.06832,0.061,-0.05368,-0.01952,0.01464,-0.04148,0.00976,-0.00976,-0.0244,-0.01952,-0.02928,-0.0244
-0.05856,0.0488,-0.03904,-0.00976,0.01952,-0.03904,0.00976,-0.00976,-0.0244,-0.02928,-0.03416,-0.02928
-0.05856,0.0488,-0.03904,-0.00976,0.01952,-0.03904,0.00488,-0.00976,-0.0244,-0.02928,-0.03416,-0.02928
-0.0488,0.04636,-0.04392,-0.01952,0.00488,-0.02684,0.01464,-0.00488,-0.0244,-0.01952,-0.02928,-0.02928
-0.0488,0.05124,-0.05368,-0.02928,-0.00488,-0.02196,0.01952,-0.00488,-0.01952,-0.01952,-0.02928,-0.0244
-0.05368,0.05368,-0.05368,-0.02684,0,-0.02684,0.02928,0.00488,-0.00976,-0.01464,-0.0244,-0.01464
-0.0488,0.05124,-0.05368,-0.02928,-0.00488,-0.02196,0.02928,0.01464,-0.01952,-0.02928,-0.03416,-0.03416
-0.03904,0.061,-0.08296,-0.06344,-0.04392,0.00244,0.0488,0.03904,-0.03416,-0.05368,-0.05856,-0.0488
-0.05368,0.08784,-0.122,-0.09516,-0.06832,0.00732,0.08296,0.07808,-0.03904,-0.09272,-0.11224,-0.0976
-0.06344,0.11468,-0.16592,-0.1342,-0.10248,0.01952,0.11712,0.14152,-0.03416,-0.122,-0.15128,-0.12688
-0.03904,0.09516,-0.15128,-0.13176,-0.11224,0.0366,0.13664,0.20984,0.0244,-0.0976,-0.12688,-0.11712
0.05368,0.00488,-0.06344,-0.09028,-0.11712,0.0854,0.11224,0.25376,0.13176,0.01464,-0.0244,-0.03416
0.21472,-0.18056,0.1464,0.03904,-0.06832,0.14152,0.00488,0.24888,0.31232,0.25864,0.22448,0.18056
0.44408,-0.45872,0.47336,0.25132,0.02928,0.2074,-0.21472,0.15616,0.55144,0.64416,0.61976,0.53192
0.6832,-0.7686,0.854,0.5124,0.1708,0.2562,-0.488,0.00488,0.76128,1.0736,1.0736,0.95648
0.88328,-1.04676,1.21024,0.7686,0.32696,0.27816,-0.76616,-0.23424,0.9272,1.4884,1.52744,1.37128
0.976,-1.25172,1.52744,1.03944,0.55144,0.21228,-1.00528,-0.47824,1.0492,1.82512,1.9032,1.72752
0.98576,-1.3298,1.67384,1.18096,0.68808,0.14884,-1.12728,-0.65392,1.0736,2.01544,2.10328,1.91296
0.8784,-1.22976,1.58112,1.14192,0.70272,0.08784,-1.11264,-0.72224,0.9516,1.89832,2.01056,1.84464
0.71248,-1.00772,1.30296,0.94672,0.59048,0.061,-0.976,-0.71736,0.63928,1.47864,1.62016,1.54208
0.50264,-0.70272,0.9028,0.65148,0.40016,0.05124,-0.77592,-0.64904,0.21472,0.88816,1.06872,1.09312
0.30744,-0.4148,0.52216,0.36844,0.21472,0.04636,-0.55144,-0.5368,-0.15128,0.32696,0.51728,0.63928
0.16104,-0.22448,0.28792,0.2074,0.12688,0.01708,-0.37088,-0.40504,-0.31232,0.01952,0.17568,0.32696
0.0732,-0.11224,0.15128,0.11468,0.07808,-0.00244,-0.23424,-0.27328,-0.29768,-0.09272,0.02928,0.14152
0.0244,-0.04636,0.06832,0.05612,0.04392,-0.00976,-0.13176,-0.1464,-0.22448,-0.10248,-0.03416,0.04392
-0.01952,-0.00244,0.0244,0.03416,0.04392,-0.03172,-0.0732,-0.09272,-0.16104,-0.09272,-0.05856,0.00488
-0.03904,0.01708,0.00488,0.0244,0.04392,-0.04148,-0.02928,-0.0488,-0.11224,-0.07808,-0.05856,-0.02928
-0.05368,0.0366,-0.01952,0.00732,0.03416,-0.04392,-0.00976,-0.0244,-0.07808,-0.0732,-0.05856,-0.02928
-0.06344,0.04636,-0.02928,0.00244,0.03416,-0.0488,0.01464,-0.00488,-0.04392,-0.05368,-0.0488,-0.02928
-0.06832,0.0488,-0.02928,0.00488,0.03904,-0.05368,0.0244,0.01464,-0.02928,-0.0488,-0.0488,-0.02928
-0.06832,0.05368,-0.03904,-0.00488,0.02928,-0.0488,0.03416,0.0244,-0.0244,-0.0488,-0.04392,-0.03416
-0.0732,0.061,-0.0488,-0.0122,0.0244,-0.0488,0.03904,0.03904,-0.0244,-0.0488,-0.05856,-0.03904
-0.0732,0.061,-0.0488,-0.0122,0.0244,-0.0488,0.03904,0.03904,-0.0244,-0.0488,-0.05856,-0.03904
-0.0732,0.06588,-0.05856,-0.02196,0.01464,-0.04392,0.04392,0.04392,-0.01464,-0.0488,-0.05856,-0.0488
-0.0732,0.06832,-0.06344,-0.02684,0.00976,-0.04148,0.04392,0.04392,-0.01464,-0.0488,-0.05856,-0.0488
-0.06344,0.06344,-0.06344,-0.03172,0,-0.03172,0.04392,0.0488,0,-0.03904,-0.0488,-0.03904
-0.06344,0.06344,-0.06344,-0.03172,0,-0.03172,0.04392,0.0488,0.00488,-0.03416,-0.0488,-0.04392
-0.0732,0.0732,-0.0732,-0.0366,0,-0.0366,0.04392,0.0488,-0.00488,-0.03416,-0.0488,-0.04392
-0.06832,0.07076,-0.0732,-0.03904,-0.00488,-0.03172,0.04392,0.05368,0,-0.02928,-0.04392,-0.03904
-0.06832,0.07076,-0.0732,-0.03904,-0.00488,-0.03172,0.05856,0.05368,0.00488,-0.02928,-0.03904,-0.03904
-0.06832,0.07076,-0.0732,-0.03904,-0.00488,-0.03172,0.05856,0.05856,0.00488,-0.02928,-0.03904,-0.03904
-0.06832,0.06588,-0.06344,-0.02928,0.00488,-0.0366,0.05856,0.05856,0.01952,-0.0244,-0.03904,-0.03904
-0.06832,0.06588,-0.06344,-0.02928,0.00488,-0.0366,0.06344,0.06344,0.01952,-0.01952,-0.03904,-0.03904
-0.06344,0.061,-0.05856,-0.02684,0.00488,-0.03416,0.05368,0.06344,0.00976,-0.03416,-0.0488,-0.0488
-0.06344,0.05856,-0.05368,-0.02196,0.00976,-0.0366,0.05368,0.06344,0.01464,-0.03416,-0.0488,-0.04392
-0.06344,0.05856,-0.05368,-0.02196,0.00976,-0.0366,0.0488,0.06344,0.01464,-0.02928,-0.0488,-0.03904
-0.06344,0.05856,-0.05368,-0.02196,0.00976,-0.0366,0.0488,0.0732,0.01952,-0.02928,-0.04392,-0.03416
-0.05856,0.05612,-0.05368,-0.0244,0.00488,-0.03172,0.0488,0.0732,0.02928,-0.0244,-0.03416,-0.03416
-0.05856,0.05612,-0.05368,-0.0244,0.00488,-0.03172,0.0488,0.0732,0.03416,-0.0244,-0.03416,-0.03416
-0.05856,0.05612,-0.05368,-0.0244,0.00488,-0.03172,0.0488,0.08784,0.02928,-0.0244,-0.02928,-0.03416
-0.05856,0.05612,-0.05368,-0.0244,0.00488,-0.03172,0.0488,0.08784,0.03416,-0.01952,-0.02928,-0.02928
-0.05368,0.05856,-0.06344,-0.0366,-0.00976,-0.02196,0.0488,0.09272,0.04392,-0.00488,-0.0244,-0.02928
-0.0488,0.05612,-0.06344,-0.03904,-0.01464,-0.01708,0.05368,0.0976,0.04392,0,-0.01952,-0.0244
-0.0488,0.05124,-0.05368,-0.02928,-0.00488,-0.02196,0.06344,0.10248,0.0488,-0.00488,-0.01952,-0.01952
-0.04392,0.0488,-0.05368,-0.03172,-0.00976,-0.01708,0.06832,0.10736,0.05368,0,-0.01464,-0.01952
-0.04392,0.04636,-0.0488,-0.02684,-0.00488,-0.01952,0.06832,0.10736,0.06344,0,-0.01464,-0.0244
-0.03904,0.04392,-0.0488,-0.02928,-0.00976,-0.01464,0.0732,0.11712,0.0732,0.00488,-0.00488,-0.01952
-0.03904,0.04636,-0.05368,-0.03416,-0.01464,-0.0122,0.07808,0.13176,0.07808,0.00488,-0.00488,-0.00976
-0.02928,0.03904,-0.0488,-0.03416,-0.01952,-0.00488,0.0732,0.14152,0.08784,0.01952,0.00488,-0.00488
-0.02928,0.03172,-0.03416,-0.01952,-0.00488,-0.0122,0.06344,0.14152,0.08784,0.0244,0.00976,0
-0.01952,0.01952,-0.01952,-0.00976,0,-0.00976,0.06344,0.15616,0.0976,0.03416,0.01952,0.00488
-0.01952,0.01708,-0.01464,-0.00488,0.00488,-0.0122,0.06344,0.16104,0.10736,0.03904,0.0244,0.00976
-0.02928,0.01952,-0.00976,0.00488,0.01952,-0.0244,0.05856,0.16592,0.122,0.0488,0.03416,0.01464
-0.01464,0.0122,-0.00976,-0.00244,0.00488,-0.00976,0.06832,0.18544,0.13664,0.06344,0.0488,0.03416
-0.00976,0.00488,0,0.00488,0.00976,-0.00976,0.06832,0.20008,0.15616,0.07808,0.05856,0.04392
0,-0.00244,0.00488,0.00488,0.00488,-0.00244,0.0732,0.21472,0.17568,0.0976,0.0732,0.05368
0.00976,-0.01464,0.01952,0.01464,0.00976,0,0.07808,0.22448,0.1952,0.11224,0.09272,0.06832
0.0244,-0.02684,0.02928,0.01708,0.00488,0.00976,0.06832,0.23912,0.20984,0.122,0.10248,0.07808
0.03416,-0.03904,0.04392,0.02684,0.00976,0.0122,0.06832,0.25376,0.22936,0.14152,0.122,0.09272
0.04392,-0.05612,0.06832,0.04636,0.0244,0.00976,0.06832,0.2684,0.25864,0.15128,0.14152,0.11224
0.05856,-0.0732,0.08784,0.05856,0.02928,0.01464,0.06344,0.27816,0.27816,0.18544,0.16592,0.13176
0.08784,-0.09272,0.0976,0.05368,0.00976,0.03904,0.06344,0.28792,0.29768,0.21472,0.18544,0.14152
0.0976,-0.10736,0.11712,0.06832,0.01952,0.03904,0.05368,0.29768,0.32208,0.244,0.21472,0.16592
0.11224,-0.12444,0.13664,0.08052,0.0244,0.04392,0.03904,0.30744,0.33672,0.26352,0.23424,0.18544
0.12688,-0.14152,0.15616,0.09272,0.02928,0.0488,0.02928,0.30744,0.37088,0.28304,0.25864,0.20984
0.13664,-0.15372,0.1708,0.10248,0.03416,0.05124,0.01952,0.32208,0.3904,0.29768,0.28792,0.22936
0.15128,-0.1708,0.19032,0.11468,0.03904,0.05612,0.01952,0.32208,0.40992,0.32208,0.30744,0.25376
0.16104,-0.18056,0.20008,0.11956,0.03904,0.061,0.00976,0.33184,0.42944,0.35136,0.33184,0.27328
0.1708,-0.19276,0.21472,0.12932,0.04392,0.06344,0.00488,0.33184,0.4392,0.37576,0.35136,0.2928
0.18056,-0.2074,0.23424,0.14396,0.05368,0.06344,0.00488,0.32696,0.45384,0.38552,0.37088,0.30256
0.18544,-0.21228,0.23912,0.1464,0.05368,0.06588,-0.00488,0.32208,0.4636,0.39528,0.38064,0.3172
0.20496,-0.2318,0.25864,0.15616,0.05368,0.07564,-0.0244,0.31232,0.46848,0.42456,0.39528,0.33184
0.20984,-0.24156,0.27328,0.16836,0.06344,0.0732,-0.02928,0.30256,0.46848,0.42944,0.40992,0.3416
0.20984,-0.244,0.27816,0.17324,0.06832,0.07076,-0.03904,0.28304,0.4636,0.42456,0.4148,0.34648
0.20984,-0.24644,0.28304,0.17812,0.0732,0.06832,-0.0488,0.25864,0.44896,0.41968,0.40992,0.34648
0.20008,-0.24156,0.28304,0.183,0.08296,0.05856,-0.05368,0.23912,0.4392,0.4148,0.40992,0.33672
0.19032,-0.2318,0.27328,0.17812,0.08296,0.05368,-0.05856,0.20984,0.40992,0.3904,0.38552,0.32208
0.17568,-0.22448,0.27328,0.18544,0.0976,0.03904,-0.06832,0.18544,0.38064,0.366,0.35136,0.31232
0.15616,-0.20496,0.25376,0.17568,0.0976,0.02928,-0.06832,0.1708,0.3416,0.32696,0.32208,0.28304
0.14152,-0.19032,0.23912,0.16836,0.0976,0.02196,-0.06832,0.14152,0.31232,0.30256,0.2928,0.26352
0.122,-0.16836,0.21472,0.15372,0.09272,0.01464,-0.06344,0.122,0.27816,0.27816,0.26352,0.23424
0.10736,-0.1464,0.18544,0.13176,0.07808,0.01464,-0.0488,0.10736,0.25376,0.24888,0.23424,0.20496
0.08784,-0.12688,0.16592,0.122,0.07808,0.00488,-0.04392,0.09272,0.2196,0.20984,0.20008,0.1708
0.0732,-0.10492,0.13664,0.10004,0.06344,0.00488,-0.02928,0.0732,0.19032,0.18544,0.1708,0.15128
0.06344,-0.09028,0.11712,0.0854,0.05368,0.00488,-0.0244,0.06344,0.16104,0.15616,0.1464,0.12688
0.04392,-0.07076,0.0976,0.07564,0.05368,-0.00488,-0.0244,0.05368,0.13176,0.13176,0.11224,0.0976
0.0244,-0.05124,0.07808,0.06588,0.05368,-0.01464,-0.0244,0.03904,0.11224,0.10248,0.08296,0.07808
0.01952,-0.03904,0.05856,0.0488,0.03904,-0.00976,-0.01952,0.0244,0.09272,0.07808,0.07808,0.06344
0.00976,-0.0244,0.03904,0.03416,0.02928,-0.00976,-0.01464,0.01952,0.0732,0.05856,0.05856,0.0488
0,-0.01708,0.03416,0.03416,0.03416,-0.01708,-0.0244,0.00488,0.05368,0.0488,0.04392,0.03904
-0.00976,-0.00976,0.02928,0.03416,0.03904,-0.0244,-0.01952,0,0.04392,0.03416,0.03416,0.02928
-0.01952,0.00488,0.00976,0.01952,0.02928,-0.0244,-0.01952,0.00488,0.02928,0.0244,0.0244,0.01952
-0.0244,0.00732,0.00976,0.02196,0.03416,-0.02928,-0.01464,0.00488,0.0244,0.01464,0.01464,0.01464
-0.02928,0.01952,-0.00976,0.00488,0.01952,-0.0244,-0.00488,0.00976,0.0244,0.01464,0.01464,0.01464
-0.03416,0.02196,-0.00976,0.00732,0.0244,-0.02928,-0.00488,0.00976,0.0244,0.00976,0.00976,0.01464
-0.02928,0.01708,-0.00488,0.00976,0.0244,-0.02684,-0.00488,0,0.01952,0.00976,0.00488,0
-0.0244,0.00976,0.00488,0.01708,0.02928,-0.02684,-0.00488,0,0.01464,0.00488,0.00488,0
-0.0244,0.01464,-0.00488,0.00732,0.01952,-0.02196,0.00488,0,0.01464,-0.00488,-0.00488,-0.00488
-0.02928,0.01708,-0.00488,0.00976,0.0244,-0.02684,0.00976,-0.00488,0.01464,-0.00488,-0.00976,-0.00488
-0.03904,0.01952,0,0.01952,0.03904,-0.03904,-0.00488,-0.00488,0,-0.00488,-0.00976,0.00488
-0.03904,0.01952,0,0.01952,0.03904,-0.03904,-0.00488,-0.00976,0,-0.00976,-0.00976,0.00488
-0.02928,0.01464,0,0.01464,0.02928,-0.02928,-0.01464,-0.01952,-0.00488,-0.01464,-0.01952,0.00488
-0.02928,0.0122,0.00488,0.01952,0.03416,-0.03172,-0.01952,-0.01952,-0.00488,-0.01464,-0.01952,0
-0.03904,0.02196,-0.00488,0.01464,0.03416,-0.0366,-0.01464,-0.01952,-0.00488,-0.00488,-0.00976,0
-0.03904,0.02196,-0.00488,0.01464,0.03416,-0.0366,-0.01464,-0.01952,0,-0.00488,-0.00976,0
-0.03416,0.02684,-0.01952,-0.00244,0.01464,-0.0244,-0.00488,-0.01464,-0.00976,-0.01464,-0.00976,0
-0.03416,0.0244,-0.01464,0.00244,0.01952,-0.02684,-0.00488,-0.00976,-0.01464,-0.01464,-0.00976,0
-0.03416,0.0244,-0.01464,0.00244,0.01952,-0.02684,0.00488,-0.00976,-0.01464,-0.01952,-0.00976,0
-0.03904,0.02684,-0.01464,0.00488,0.0244,-0.03172,0.00976,-0.00976,-0.0244,-0.01952,-0.01464,0
-0.0488,0.0244,0,0.0244,0.0488,-0.0488,0,-0.01952,-0.01464,-0.0244,-0.0244,-0.00488
-0.0488,0.02928,-0.00976,0.01464,0.03904,-0.04392,0,-0.01952,-0.01464,-0.0244,-0.0244,-0.00488
-0.03904,0.01952,0,0.01952,0.03904,-0.03904,0,-0.00976,-0.01464,-0.0244,-0.01952,-0.01464
-0.03904,0.01952,0,0.01952,0.03904,-0.03904,0,-0.00976,-0.01464,-0.0244,-0.01952,-0.01464
-0.02928,0.01708,-0.00488,0.00976,0.0244,-0.02684,-0.00976,-0.01952,-0.01464,-0.0244,-0.00976,0
-0.02928,0.01708,-0.00488,0.00976,0.0244,-0.02684,-0.00976,-0.01952,-0.01464,-0.0244,-0.00976,0
-0.02928,0.01708,-0.00488,0.00976,0.0244,-0.02684,-0.01464,-0.01952,-0.01464,-0.0244,-0.01952,0.00488
-0.02928,0.01708,-0.00488,0.00976,0.0244,-0.02684,-0.01464,-0.01952,-0.01464,-0.0244,-0.01464,0
-0.02928,0.01708,-0.00488,0.00976,0.0244,-0.02684,-0.01464,-0.01952,-0.01464,-0.01464,-0.01952,0.00976
-0.03416,0.01464,0.00488,0.02196,0.03904,-0.0366,-0.00976,-0.0244,-0.01464,-0.01464,-0.01952,0.00976
-0.02928,0.00732,0.01464,0.02928,0.04392,-0.0366,-0.01952,-0.0244,-0.0244,-0.02928,-0.02928,0
-0.02928,0.00732,0.01464,0.02928,0.04392,-0.0366,-0.01952,-0.01952,-0.0244,-0.02928,-0.02928,0
-0.02928,0.0122,0.00488,0.01952,0.03416,-0.03172,-0.00976,-0.00976,-0.01464,-0.0244,-0.01952,0.00488
-0.02928,0.00976,0.00976,0.0244,0.03904,-0.03416,0,-0.00976,-0.00488,-0.0244,-0.01952,0.00488
-0.03416,0.01464,0.00488,0.02196,0.03904,-0.0366,0,0,-0.00488,-0.01464,-0.00976,0.00488
-0.03416,0.01952,-0.00488,0.0122,0.02928,-0.03172,0,0,-0.00488,-0.00976,-0.00976,0.00488
-0.02928,0.01708,-0.00488,0.00976,0.0244,-0.02684,-0.00488,0,-0.00488,-0.01952,-0.00488,0.00488
-0.02928,0.01952,-0.00976,0.00488,0.01952,-0.0244,-0.00976,0,-0.00488,-0.01952,0.00488,0.00488
-0.02928,0.01708,-0.00488,0.00976,0.0244,-0.02684,-0.00976,0,0,-0.00976,-0.00488,0.00976
-0.02928,0.01708,-0.00488,0.00976,0.0244,-0.02684,-0.00976,0,0,-0.00976,-0.00488,0.00976
-0.02928,0.01708,-0.00488,0.00976,0.0244,-0.02684,-0.01464,-0.00976,0,-0.01464,0.00488,0.00976
-0.0244,0.0122,0,0.0122,0.0244,-0.0244,-0.01464,-0.00976,0,-0.01464,-0.00488,0.00976
-0.0244,0.01464,-0.00488,0.00732,0.01952,-0.02196,-0.00488,0,0,-0.00488,-0.00488,0.00976
-0.0244,0.01952,-0.01464,-0.00244,0.00976,-0.01708,0.00488,0,0,-0.00976,0,0.00976
-0.01952,0.0122,-0.00488,0.00488,0.01464,-0.01708,-0.00488,-0.00976,0,-0.01464,-0.00488,0.00976
-0.01952,0.0122,-0.00488,0.00488,0.01464,-0.01708,-0.00488,-0.00976,0,-0.01952,-0.00488,0.00976
-0.00976,0,0.00976,0.01464,0.01952,-0.01464,-0.01464,-0.01952,-0.00976,-0.01952,-0.00488,0
-0.00488,-0.00244,0.00976,0.0122,0.01464,-0.00976,-0.01952,-0.01952,-0.00976,-0.01952,-0.00976,-0.00488
-0.00488,0.00244,0,0.00244,0.00488,-0.00488,-0.01952,-0.01952,-0.00976,-0.01952,-0.00488,0.00488
-0.00488,0.00732,-0.00976,-0.00732,-0.00488,0,-0.01464,-0.01952,-0.00976,-0.01952,-0.00488,0.00488
-0.01464,0.01464,-0.01464,-0.00732,0,-0.00732,-0.01952,-0.01952,-0.00976,-0.01952,-0.00976,0.00488
-0.01464,0.0122,-0.00976,-0.00244,0.00488,-0.00976,-0.0244,-0.01952,-0.01464,-0.01952,-0.00976,0.00488
-0.01464,0.00976,-0.00488,0.00244,0.00976,-0.0122,-0.02928,-0.02928,-0.01952,-0.02928,-0.01464,-0.00488
-0.01952,0.0122,-0.00488,0.00488,0.01464,-0.01708,-0.02928,-0.02928,-0.01952,-0.03416,-0.01464,-0.00488
-0.01952,0.00488,0.00976,0.01952,0.02928,-0.0244,-0.01952,-0.02928,-0.02928,-0.03416,-0.01464,0
-0.01952,0.00488,0.00976,0.01952,0.02928,-0.0244,-0.0244,-0.03416,-0.02928,-0.03416,-0.01464,0
-0.01952,0.0122,-0.00488,0.00488,0.01464,-0.01708,-0.01464,-0.0244,-0.0244,-0.0244,-0.01464,0
-0.01952,0.0122,-0.00488,0.00488,0.01464,-0.01708,-0.00976,-0.0244,-0.01952,-0.0244,-0.01952,0
-0.01952,0.01708,-0.01464,-0.00488,0.00488,-0.0122,-0.00976,-0.01464,-0.01952,-0.0244,-0.00976,0
-0.01952,0.01708,-0.01464,-0.00488,0.00488,-0.0122,-0.00976,-0.01464,-0.01952,-0.02928,-0.00976,0
-0.01952,0.0122,-0.00488,0.00488,0.01464,-0.01708,-0.01952,-0.01952,-0.0244,-0.03904,-0.01464,0
-0.01952,0.0122,-0.00488,0.00488,0.01464,-0.01708,-0.0244,-0.01952,-0.0244,-0.03904,-0.0244,0
-0.00976,0.00488,0,0.00488,0.00976,-0.00976,-0.0244,-0.01952,-0.0244,-0.02928,-0.0244,0
-0.00976,0.00488,0,0.00488,0.00976,-0.00976,-0.0244,-0.0244,-0.0244,-0.02928,-0.0244,0
-0.01952,0.0122,-0.00488,0.00488,0.01464,-0.01708,-0.0244,-0.0244,-0.0244,-0.02928,-0.01464,0
-0.01952,0.01464,-0.00976,0,0.00976,-0.01464,-0.0244,-0.0244,-0.0244,-0.02928,-0.01464,0
-0.02928,0.0244,-0.01952,-0.00488,0.00976,-0.01952,-0.0244,-0.03904,-0.03416,-0.03904,-0.0244,-0.00976
-0.03416,0.02684,-0.01952,-0.00244,0.01464,-0.0244,-0.01952,-0.03416,-0.03416,-0.03904,-0.0244,-0.01464
-0.0244,0.01952,-0.01464,-0.00244,0.00976,-0.01708,-0.00976,-0.0244,-0.0244,-0.02928,-0.01464,-0.00488
-0.0244,0.01952,-0.01464,-0.00244,0.00976,-0.01708,-0.00976,-0.0244,-0.0244,-0.02928,-0.01464,0
-0.0244,0.0244,-0.0244,-0.0122,0,-0.0122,0,-0.01464,-0.01464,-0.02928,-0.01464,0
-0.0244,0.02928,-0.03416,-0.02196,-0.00976,-0.00732,0,-0.01464,-0.01464,-0.02928,-0.01464,0
-0.0244,0.02928,-0.03416,-0.02196,-0.00976,-0.00732,-0.00976,-0.0244,-0.0244,-0.02928,-0.01952,0.00488
-0.0244,0.02928,-0.03416,-0.02196,-0.00976,-0.00732,-0.00976,-0.0244,-0.0244,-0.02928,-0.01952,0.00488
-0.0244,0.0244,-0.0244,-0.0122,0,-0.0122,-0.01952,-0.0244,-0.0244,-0.03904,-0.01464,0.00488
-0.0244,0.01952,-0.01464,-0.00244,0.00976,-0.01708,-0.0244,-0.0244,-0.02928,-0.03904,-0.01464,0.00488
-0.0244,0.01464,-0.00488,0.00732,0.01952,-0.02196,-0.0244,-0.03904,-0.02928,-0.03904,-0.0244,-0.00488
-0.01952,0.00976,0,0.00976,0.01952,-0.01952,-0.0244,-0.03904,-0.02928,-0.03904,-0.0244,-0.00488
-0.0244,0.01708,-0.00976,0.00244,0.01464,-0.01952,-0.0244,-0.02928,-0.02928,-0.03904,-0.0244,-0.00488
-0.01952,0.01708,-0.01464,-0.00488,0.00488,-0.0122,-0.0244,-0.0244,-0.02928,-0.03904,-0.01952,-0.00488
-0.01952,0.02196,-0.0244,-0.01464,-0.00488,-0.00732,-0.01464,-0.0244,-0.0244,-0.02928,-0.01464,-0.00488
-0.01952,0.01952,-0.01952,-0.00976,0,-0.00976,-0.00976,-0.0244,-0.0244,-0.02928,-0.01464,-0.00488
-0.01952,0.01464,-0.00976,0,0.00976,-0.01464,-0.00976,-0.02928,-0.02928,-0.03416,-0.0244,0.00488
-0.01952,0.01464,-0.00976,0,0.00976,-0.01464,-0.00976,-0.0244,-0.02928,-0.03416,-0.01952,0.00488
-0.01952,0.01464,-0.00976,0,0.00976,-0.01464,-0.01952,-0.0244,-0.0244,-0.03416,-0.01952,-0.00488
-0.01952,0.01464,-0.00976,0,0.00976,-0.01464,-0.01952,-0.0244,-0.0244,-0.03416,-0.01952,-0.00488
-0.00976,0.00976,-0.00976,-0.00488,0,-0.00488,-0.01952,-0.03416,-0.0244,-0.03904,-0.01464,-0.00488
-0.00976,0.0122,-0.01464,-0.00976,-0.00488,-0.00244,-0.0244,-0.03416,-0.0244,-0.03904,-0.01464,-0.00488
0,0.00976,-0.01952,-0.01952,-0.01952,0.00976,-0.02928,-0.02928,-0.02928,-0.02928,-0.01952,0
-0.00976,0.01952,-0.02928,-0.0244,-0.01952,0.00488,-0.02928,-0.02928,-0.02928,-0.02928,-0.00976,0
-0.01952,0.0244,-0.02928,-0.01952,-0.00976,-0.00488,-0.02928,-0.02928,-0.02928,-0.02928,-0.00976,0
-0.01952,0.01708,-0.01464,-0.00488,0.00488,-0.0122,-0.01952,-0.0244,-0.01952,-0.02928,0,0.00976
-0.01952,0.0122,-0.00488,0.00488,0.01464,-0.01708,-0.01952,-0.0244,-0.01464,-0.02928,0,0.00976
-0.01464,0.00976,-0.00488,0.00244,0.00976,-0.0122,-0.01952,-0.01952,-0.0244,-0.02928,-0.00976,0
-0.00488,0,0.00488,0.00732,0.00976,-0.00732,-0.01952,-0.01952,-0.0244,-0.02928,-0.00976,0
0.00488,0,-0.00488,-0.00732,-0.00976,0.00732,-0.00976,-0.00488,-0.00976,-0.01464,0,0.01464
0.01464,-0.00732,0,-0.00732,-0.01464,0.01464,-0.00976,0,-0.00488,-0.01464,0,0.01952
0.01952,-0.01464,0.00976,0,-0.00976,0.01464,-0.00976,0,0.00488,0,0.01464,0.02928
0.02928,-0.02684,0.0244,0.00976,-0.00488,0.01708,-0.00976,0.00488,0.01464,0.00976,0.0244,0.03416
0.04392,-0.04392,0.04392,0.02196,0,0.02196,-0.0244,0.00488,0.01464,0.00976,0.02928,0.03904
0.04392,-0.04392,0.04392,0.02196,0,0.02196,-0.03904,0.00488,0.01952,0.00976,0.02928,0.03904
0.04392,-0.04392,0.04392,0.02196,0,0.02196,-0.04392,-0.00488,0.00976,0.00488,0.0244,0.03904
0.05368,-0.05124,0.0488,0.02196,-0.00488,0.02928,-0.05368,-0.00488,0.00976,0.00976,0.0244,0.04392
0.05368,-0.04636,0.03904,0.0122,-0.01464,0.03416,-0.05856,-0.00976,0.01464,0.01952,0.02928,0.0488
0.05856,-0.05124,0.04392,0.01464,-0.01464,0.0366,-0.06344,-0.0244,0.00976,0.01952,0.02928,0.0488
0.0488,-0.04392,0.03904,0.01464,-0.00976,0.02928,-0.05368,-0.03416,0,0.00976,0.01952,0.04392
0.03904,-0.03416,0.02928,0.00976,-0.00976,0.0244,-0.05368,-0.03904,-0.01464,0,0.01464,0.03904
0.03904,-0.03416,0.02928,0.00976,-0.00976,0.0244,-0.06344,-0.04392,-0.0244,-0.01952,0.00488,0.01952
0.03904,-0.03416,0.02928,0.00976,-0.00976,0.0244,-0.06344,-0.04392,-0.02928,-0.0244,0.00488,0.0244
0.04392,-0.0366,0.02928,0.00732,-0.01464,0.02928,-0.06344,-0.0488,-0.03416,-0.0244,0.00488,0.0244
0.05368,-0.03904,0.0244,-0.00244,-0.02928,0.04148,-0.06344,-0.04392,-0.03416,-0.0244,0.00488,0.0244
0.05368,-0.0366,0.01952,-0.00732,-0.03416,0.04392,-0.06344,-0.0488,-0.03416,-0.0244,0.00488,0.0244
0.05368,-0.03416,0.01464,-0.0122,-0.03904,0.04636,-0.05856,-0.0488,-0.03904,-0.0244,0,0.0244
0.0488,-0.02684,0.00488,-0.01952,-0.04392,0.04636,-0.05856,-0.03904,-0.02928,-0.0244,0.00488,0.0244
0.03904,-0.02196,0.00488,-0.01464,-0.03416,0.0366,-0.04392,-0.03904,-0.0244,-0.02928,0,0.01952
0.00488,0.00244,-0.00976,-0.0122,-0.01464,0.00976,-0.03416,-0.03416,-0.0244,-0.01952,0.00488,0.01952
-0.00976,0.01464,-0.01952,-0.01464,-0.00976,0,-0.0244,-0.03416,-0.01952,-0.01952,0.00488,0.01464
-0.02928,0.03416,-0.03904,-0.0244,-0.00976,-0.00976,-0.00488,-0.02928,-0.01952,-0.0244,-0.00488,0.00488
-0.03416,0.03904,-0.04392,-0.02684,-0.00976,-0.0122,-0.00488,-0.0244,-0.0244,-0.0244,-0.00488,0.00488
-0.0244,0.03416,-0.04392,-0.03172,-0.01952,-0.00244,-0.00488,-0.0244,-0.03416,-0.03416,-0.01952,0.00488
-0.0244,0.03416,-0.04392,-0.03172,-0.01952,-0.00244,-0.00488,-0.02928,-0.02928,-0.03416,-0.01952,0
-0.0244,0.0244,-0.0244,-0.0122,0,-0.0122,-0.00488,-0.02928,-0.03904,-0.03416,-0.01952,0
-0.0244,0.01952,-0.01464,-0.00244,0.00976,-0.01708,-0.00488,-0.0244,-0.03904,-0.03416,-0.01952,0
-0.0244,0.0244,-0.0244,-0.0122,0,-0.0122,-0.00976,-0.0244,-0.03416,-0.02928,-0.01952,0.00488
-0.02928,0.02684,-0.0244,-0.00976,0.00488,-0.01708,-0.00976,-0.02928,-0.03416,-0.02928,-0.01952,0.00488
-0.03904,0.03904,-0.03904,-0.01952,0,-0.01952,0,-0.01952,-0.0244,-0.01952,-0.00488,0.00976
-0.03904,0.04392,-0.0488,-0.02928,-0.00976,-0.01464,-0.00488,-0.01952,-0.01464,-0.01952,-0.00488,0.00976
-0.02928,0.0366,-0.04392,-0.02928,-0.01464,-0.00732,-0.01464,-0.0244,-0.01464,-0.01952,0,0.00976
-0.02928,0.0366,-0.04392,-0.02928,-0.01464,-0.00732,-0.00976,-0.0244,-0.00976,-0.01952,0,0.01464
-0.03416,0.03904,-0.04392,-0.02684,-0.00976,-0.0122,0,-0.01464,-0.00976,-0.01464,-0.00488,0.01464
-0.02928,0.04636,-0.06344,-0.0488,-0.03416,0.00244,0.00976,-0.00488,-0.01952,-0.02928,-0.01464,-0.00488
-0.02928,0.05124,-0.0732,-0.05856,-0.04392,0.00732,0.01952,0.01952,-0.03416,-0.06344,-0.05856,-0.03904
-0.03416,0.07808,-0.122,-0.10492,-0.08784,0.02684,0.06344,0.05856,-0.0488,-0.10248,-0.09272,-0.07808
-0.03416,0.09516,-0.15616,-0.13908,-0.122,0.04392,0.10736,0.122,-0.04392,-0.13176,-0.13176,-0.11712
0,0.07564,-0.15128,-0.15128,-0.15128,0.07564,0.12688,0.19032,0.0244,-0.10736,-0.11712,-0.10736
0.08296,-0.00976,-0.06344,-0.10492,-0.1464,0.11468,0.10248,0.25376,0.13176,0.0244,0.00488,-0.01464
0.25376,-0.20496,0.15616,0.02928,-0.0976,0.17568,-0.0244,0.23912,0.31232,0.2684,0.25376,0.2196
0.48312,-0.48312,0.48312,0.24156,0,0.24156,-0.244,0.15616,0.54168,0.6344,0.62952,0.5612
0.74176,-0.80276,0.86376,0.49288,0.122,0.30988,-0.51728,-0.01464,0.75152,1.05408,1.08336,0.976
0.94184,-1.09068,1.23952,0.7686,0.29768,0.32208,-0.8052,-0.244,0.91744,1.45912,1.52744,1.3908
1.05408,-1.30052,1.54696,1.01992,0.49288,0.2806,-1.04432,-0.49776,1.03944,1.79584,1.89344,1.73728
1.03456,-1.34932,1.66408,1.1468,0.62952,0.20252,-1.1468,-0.65392,1.0736,1.94712,2.074,1.9032
0.91744,-1.23952,1.5616,1.10288,0.64416,0.13664,-1.11264,-0.732,0.94184,1.83,1.98128,1.84464
0.72224,-0.99308,1.26392,0.9028,0.54168,0.09028,-0.976,-0.72712,0.60024,1.38104,1.57136,1.5128
0.5124,-0.68808,0.86376,0.60756,0.35136,0.08052,-0.76616,-0.66856,0.17568,0.79056,1.01016,1.06384
0.3172,-0.40504,0.49288,0.33428,0.17568,0.07076,-0.55144,-0.55632,-0.18056,0.2684,0.488,0.61976
0.16104,-0.2196,0.27816,0.19764,0.11712,0.02196,-0.37088,-0.43432,-0.32208,-0.00976,0.17568,0.32696
0.0732,-0.10736,0.14152,0.10492,0.06832,0.00244,-0.244,-0.28304,-0.29768,-0.10248,0.02928,0.15128
0.0244,-0.04148,0.05856,0.04636,0.03416,-0.00488,-0.13176,-0.16592,-0.21472,-0.10248,-0.0244,0.06344
0,-0.00732,0.01464,0.01464,0.01464,-0.00732,-0.0732,-0.10248,-0.15128,-0.09272,-0.03904,0.0244
-0.01952,0.01708,-0.01464,-0.00488,0.00488,-0.0122,-0.03904,-0.05856,-0.11224,-0.07808,-0.0488,0.00976
-0.03416,0.03172,-0.02928,-0.0122,0.00488,-0.01952,-0.01952,-0.03416,-0.06832,-0.05368,-0.02928,0.00976
-0.04392,0.04636,-0.0488,-0.02684,-0.00488,-0.01952,0.00488,-0.00488,-0.04392,-0.04392,-0.02928,0.00976
-0.0488,0.0488,-0.0488,-0.0244,0,-0.0244,0.01464,0.00488,-0.02928,-0.03904,-0.02928,0
-0.0488,0.05368,-0.05856,-0.03416,-0.00976,-0.01952,0.0244,0.01464,-0.0244,-0.03904,-0.0244,-0.00488
-0.06344,0.061,-0.05856,-0.02684,0.00488,-0.03416,0.03904,0.02928,-0.01464,-0.0488,-0.03904,-0.01952
-0.06344,0.061,-0.05856,-0.02684,0.00488,-0.03416,0.03904,0.02928,-0.01464,-0.0488,-0.03904,-0.01952
-0.06344,0.06588,-0.06832,-0.0366,-0.00488,-0.02928,0.04392,0.03416,-0.00488,-0.03904,-0.03904,-0.01952
-0.06344,0.06832,-0.0732,-0.04148,-0.00976,-0.02684,0.04392,0.03416,-0.00488,-0.03904,-0.03904,-0.01952
-0.05368,0.06344,-0.0732,-0.04636,-0.01952,-0.01708,0.04392,0.0488,0.00976,-0.02928,-0.02928,-0.01952
-0.05368,0.06344,-0.0732,-0.04636,-0.01952,-0.01708,0.04392,0.0488,0.01464,-0.0244,-0.02928,-0.0244
-0.05368,0.05856,-0.06344,-0.0366,-0.00976,-0.02196,0.04392,0.03904,0.00488,-0.03416,-0.02928,-0.0244
-0.0488,0.05124,-0.05368,-0.02928,-0.00488,-0.02196,0.04392,0.04392,0.00976,-0.02928,-0.0244,-0.01952
-0.05856,0.05612,-0.05368,-0.0244,0.00488,-0.03172,0.03904,0.04392,0.01464,-0.02928,-0.02928,-0.01952
-0.05856,0.05612,-0.05368,-0.0244,0.00488,-0.03172,0.03904,0.0488,0.01464,-0.02928,-0.02928,-0.01952
-0.0488,0.05612,-0.06344,-0.03904,-0.01464,-0.01708,0.03904,0.0488,0.00976,-0.03416,-0.02928,-0.01952
-0.0488,0.05612,-0.06344,-0.03904,-0.01464,-0.01708,0.04392,0.05368,0.00976,-0.02928,-0.02928,-0.01952
-0.04392,0.05612,-0.06832,-0.04636,-0.0244,-0.00976,0.05368,0.06344,0.01952,-0.03416,-0.02928,-0.01952
-0.04392,0.05368,-0.06344,-0.04148,-0.01952,-0.0122,0.05368,0.06344,0.0244,-0.03416,-0.02928,-0.01464
-0.04392,0.0488,-0.05368,-0.03172,-0.00976,-0.01708,0.0488,0.06344,0.01464,-0.02928,-0.02928,-0.01952
-0.04392,0.0488,-0.05368,-0.03172,-0.00976,-0.01708,0.0488,0.0732,0.01952,-0.02928,-0.0244,-0.01464
-0.03904,0.04148,-0.04392,-0.0244,-0.00488,-0.01708,0.0488,0.0732,0.01952,-0.0244,-0.0244,-0.01464
-0.03904,0.04148,-0.04392,-0.0244,-0.00488,-0.01708,0.0488,0.0732,0.0244,-0.0244,-0.0244,-0.01464
-0.03904,0.04636,-0.05368,-0.03416,-0.01464,-0.0122,0.0488,0.07808,0.02928,-0.01464,-0.01952,-0.01464
-0.03904,0.04636,-0.05368,-0.03416,-0.01464,-0.0122,0.0488,0.07808,0.03416,-0.00976,-0.01952,-0.00976
-0.04392,0.05368,-0.06344,-0.04148,-0.01952,-0.0122,0.0488,0.08296,0.05368,-0.00488,-0.01464,-0.00976
-0.03904,0.05124,-0.06344,-0.04392,-0.0244,-0.00732,0.05368,0.08784,0.05368,0,-0.00976,-0.00488
-0.03904,0.05124,-0.06344,-0.04392,-0.0244,-0.00732,0.05368,0.09272,0.0488,0.00488,0,0
-0.03416,0.0488,-0.06344,-0.04636,-0.02928,-0.00244,0.05856,0.0976,0.05368,0.00976,0.00488,0
-0.0244,0.0366,-0.0488,-0.0366,-0.0244,0,0.05856,0.10736,0.05368,0.00976,-0.00488,0.00488
-0.01952,0.03416,-0.0488,-0.03904,-0.02928,0.00488,0.06344,0.11712,0.06344,0.01464,0.00488,0.00976
-0.01952,0.02684,-0.03416,-0.0244,-0.01464,-0.00244,0.06832,0.122,0.06832,0.00488,0.00488,0.00976
-0.00976,0.01464,-0.01952,-0.01464,-0.00976,0,0.06344,0.13176,0.07808,0.01952,0.01464,0.01464
-0.00976,0.01708,-0.0244,-0.01952,-0.01464,0.00244,0.06344,0.14152,0.0976,0.03416,0.02928,0.01952
0,0.00976,-0.01952,-0.01952,-0.01952,0.00976,0.06344,0.15616,0.10736,0.04392,0.03904,0.0244
0.00976,0.00244,-0.01464,-0.01952,-0.0244,0.01708,0.0732,0.16104,0.11712,0.0488,0.04392,0.03904
0.00976,0,-0.00976,-0.01464,-0.01952,0.01464,0.06832,0.16592,0.13176,0.05856,0.05368,0.04392
0.01464,-0.00732,0,-0.00732,-0.01464,0.01464,0.05856,0.17568,0.13664,0.0732,0.05856,0.04392
0.01952,-0.01464,0.00976,0,-0.00976,0.01464,0.05856,0.19032,0.15616,0.08784,0.06832,0.05368
0.02928,-0.01708,0.00488,-0.00976,-0.0244,0.02684,0.06344,0.21472,0.17568,0.10736,0.09272,0.0732
0.03904,-0.02928,0.01952,0,-0.01952,0.02928,0.06832,0.22448,0.1952,0.122,0.11224,0.08784
0.04392,-0.0366,0.02928,0.00732,-0.01464,0.02928,0.06832,0.23912,0.2196,0.13176,0.122,0.10736
0.05368,-0.0488,0.04392,0.01708,-0.00976,0.03172,0.06832,0.25376,0.23912,0.15128,0.14152,0.122
0.0732,-0.06588,0.05856,0.02196,-0.01464,0.04392,0.06832,0.2684,0.25864,0.16104,0.15128,0.13176
0.08784,-0.08296,0.07808,0.03416,-0.00976,0.0488,0.06344,0.27816,0.27816,0.1952,0.17568,0.14152
0.10736,-0.10736,0.10736,0.05368,0,0.05368,0.05368,0.28792,0.29768,0.21472,0.1952,0.16104
0.11712,-0.122,0.12688,0.06832,0.00976,0.05368,0.04392,0.29768,0.32208,0.23424,0.22448,0.18544
0.13176,-0.13908,0.1464,0.08052,0.01464,0.05856,0.03904,0.3172,0.33672,0.26352,0.25376,0.20496
0.1464,-0.15616,0.16592,0.09272,0.01952,0.06344,0.02928,0.3172,0.37088,0.2928,0.27816,0.22936
0.15616,-0.16348,0.1708,0.09272,0.01464,0.07076,0.01952,0.3416,0.3904,0.3172,0.30744,0.25864
0.1708,-0.18056,0.19032,0.10492,0.01952,0.07564,0.01952,0.3416,0.40992,0.3416,0.32696,0.28304
0.18056,-0.19032,0.20008,0.1098,0.01952,0.08052,0.00976,0.3416,0.42944,0.36112,0.3416,0.2928
0.19032,-0.20252,0.21472,0.11956,0.0244,0.08296,0.00488,0.3416,0.4392,0.38552,0.36112,0.31232
0.20984,-0.22204,0.23424,0.12932,0.0244,0.09272,-0.00488,0.33672,0.44408,0.39528,0.38064,0.32208
0.21472,-0.22692,0.23912,0.13176,0.0244,0.09516,-0.01464,0.33184,0.45384,0.39528,0.3904,0.33672
0.22448,-0.23668,0.24888,0.13664,0.0244,0.10004,-0.0244,0.32208,0.45872,0.4148,0.39528,0.3416
0.22936,-0.24644,0.26352,0.14884,0.03416,0.0976,-0.02928,0.31232,0.45872,0.41968,0.40992,0.35136
0.22936,-0.24888,0.2684,0.15372,0.03904,0.09516,-0.02928,0.2928,0.4636,0.42456,0.4148,0.35624
0.22936,-0.25132,0.27328,0.1586,0.04392,0.09272,-0.03904,0.2684,0.44896,0.41968,0.40992,0.35624
0.20984,-0.24156,0.27328,0.16836,0.06344,0.0732,-0.05368,0.24888,0.42944,0.4148,0.40992,0.34648
0.20008,-0.23668,0.27328,0.17324,0.0732,0.06344,-0.05856,0.2196,0.40016,0.3904,0.38552,0.33184
0.1952,-0.22936,0.26352,0.16592,0.06832,0.06344,-0.05856,0.1952,0.37088,0.366,0.36112,0.32208
0.17568,-0.20984,0.244,0.15616,0.06832,0.05368,-0.05856,0.18056,0.3416,0.33672,0.3416,0.2928
0.16104,-0.19032,0.2196,0.13908,0.05856,0.05124,-0.0488,0.15128,0.31232,0.31232,0.31232,0.27328
0.14152,-0.16348,0.18544,0.11468,0.04392,0.0488,-0.04392,0.13176,0.28792,0.28792,0.28304,0.25376
0.11712,-0.13664,0.15616,0.0976,0.03904,0.03904,-0.03904,0.11712,0.25376,0.24888,0.25376,0.22448
0.0976,-0.11712,0.13664,0.08784,0.03904,0.02928,-0.03416,0.10248,0.2196,0.20984,0.2196,0.19032
0.08296,-0.10492,0.12688,0.0854,0.04392,0.01952,-0.02928,0.08296,0.18056,0.18544,0.1708,0.16104
0.0732,-0.09028,0.10736,0.07076,0.03416,0.01952,-0.0244,0.06344,0.15128,0.15616,0.1464,0.13664
0.06344,-0.07564,0.08784,0.05612,0.0244,0.01952,-0.00488,0.05368,0.13176,0.14152,0.13176,0.11712
0.04392,-0.05612,0.06832,0.04636,0.0244,0.00976,-0.00488,0.03904,0.11224,0.11224,0.10248,0.0976
0.02928,-0.03904,0.0488,0.03416,0.01952,0.00488,0,0.03416,0.09272,0.08784,0.08784,0.08296
0.01952,-0.0244,0.02928,0.01952,0.00976,0.00488,0.00488,0.02928,0.0732,0.06832,0.06832,0.06832
0.00976,-0.0122,0.01464,0.00976,0.00488,0.00244,0.00488,0.0244,0.06344,0.06832,0.06344,0.05856
0,-0.00488,0.00976,0.00976,0.00976,-0.00488,0.00976,0.01952,0.05368,0.05368,0.05368,0.0488
-0.00976,0.00488,0,0.00488,0.00976,-0.00976,0,0.00488,0.03904,0.04392,0.03416,0.03904
-0.0244,0.0122,0,0.0122,0.0244,-0.0244,0.00488,0.00488,0.03416,0.03416,0.0244,0.03416
-0.01952,0.01464,-0.00976,0,0.00976,-0.01464,-0.00488,0,0.0244,0.0244,0.0244,0.0244
-0.0244,0.01708,-0.00976,0.00244,0.01464,-0.01952,-0.00488,0,0.0244,0.01952,0.01952,0.0244
-0.02928,0.02196,-0.01464,0,0.01464,-0.02196,0.00488,0,0.01952,0.01952,0.01464,0.00976
-0.0244,0.01952,-0.01464,-0.00244,0.00976,-0.01708,0.00488,0,0.01464,0.01464,0.01464,0.00976
-0.0244,0.01952,-0.01464,-0.00244,0.00976,-0.01708,0.00488,0,0.01464,0.01464,0.01464,0.01464
-0.02928,0.02196,-0.01464,0,0.01464,-0.02196,0.00976,-0.00488,0.01464,0.01464,0.00976,0.01464
-0.01952,0.01952,-0.01952,-0.00976,0,-0.00976,0.00488,-0.00488,0.00976,0.00488,0.00976,0.01464
-0.01952,0.01952,-0.01952,-0.00976,0,-0.00976,0.00488,-0.00976,0.00976,0,0.00976,0.01464
-0.01952,0.01952,-0.01952,-0.00976,0,-0.00976,0.01464,-0.00976,0.00488,0.00488,0.00976,0.01464
-0.01952,0.02196,-0.0244,-0.01464,-0.00488,-0.00732,0.00976,-0.00976,0.00488,0.01464,0.00976,0.00976
-0.01952,0.02684,-0.03416,-0.0244,-0.01464,-0.00244,0.00488,-0.01952,0.00488,0.00488,0,0.00976
-0.01952,0.02684,-0.03416,-0.0244,-0.01464,-0.00244,0.00488,-0.01952,0.00976,0.00488,0,0.00976
-0.03416,0.04148,-0.0488,-0.03172,-0.01464,-0.00976,0.00488,-0.01464,0.00976,0.00488,0,0.00976
-0.03416,0.03904,-0.04392,-0.02684,-0.00976,-0.0122,0.00488,-0.00976,0.00488,0.00488,0,0.00976
-0.03416,0.04392,-0.05368,-0.0366,-0.01952,-0.00732,0.01464,-0.00976,0.00488,0,0.00976,0.00976
-0.03904,0.04636,-0.05368,-0.03416,-0.01464,-0.0122,0.01952,-0.00976,-0.00488,0,0.00488,0.00976
-0.03904,0.03904,-0.03904,-0.01952,0,-0.01952,0.00976,-0.01952,0.00488,0.00488,0.00488,0.00488
-0.03904,0.03904,-0.03904,-0.01952,0,-0.01952,0.00976,-0.01952,0.00488,0.00488,0.00488,0.00488
-0.03904,0.03416,-0.02928,-0.00976,0.00976,-0.0244,0.01952,-0.00976,0.00488,0.00488,0,0.00488
-0.03904,0.03416,-0.02928,-0.00976,0.00976,-0.0244,0.01952,-0.00976,0.00488,0.00488,0,0.00488
-0.03904,0.0366,-0.03416,-0.01464,0.00488,-0.02196,0.00976,-0.00976,0.00488,0.00488,0,0.00976
-0.03904,0.0366,-0.03416,-0.01464,0.00488,-0.02196,0.00976,-0.00976,0.00488,0.00488,0,0.00976
-0.03904,0.0366,-0.03416,-0.01464,0.00488,-0.02196,0.00488,-0.00976,0.00488,0.00488,-0.00976,0.00488
-0.03904,0.0366,-0.03416,-0.01464,0.00488,-0.02196,0.00488,-0.00976,0.00488,0.00488,-0.00488,0
-0.03904,0.04148,-0.04392,-0.0244,-0.00488,-0.01708,0.00488,-0.00976,-0.00488,0.00488,0,0.00976
-0.04392,0.03904,-0.03416,-0.0122,0.00976,-0.02684,0.00976,-0.01464,-0.00488,0.00488,0,0.00976
-0.02928,0.03172,-0.03416,-0.01952,-0.00488,-0.0122,0.00976,-0.01464,-0.00488,0.00976,0.00976,0.00976
-0.02928,0.03172,-0.03416,-0.01952,-0.00488,-0.0122,0.00976,-0.00976,-0.00488,0.00976,0.00976,0.00976
-0.03904,0.0366,-0.03416,-0.01464,0.00488,-0.02196,0.00976,-0.00976,0.00488,0.01464,0.00976,0.00488
-0.03904,0.03416,-0.02928,-0.00976,0.00976,-0.0244,0.00976,-0.00976,0.00488,0.01464,0.00976,0.00488
-0.04392,0.03904,-0.03416,-0.0122,0.00976,-0.02684,0.01952,0,0.00488,0.01464,0.00976,0.00488
-0.04392,0.04392,-0.04392,-0.02196,0,-0.02196,0.01952,0,0.00488,0.01952,0.00976,0.00488
-0.02928,0.03172,-0.03416,-0.01952,-0.00488,-0.0122,0.0244,0,0.00488,0.00976,0.00488,0.01464
-0.02928,0.03416,-0.03904,-0.0244,-0.00976,-0.00976,0.01952,0,0.00488,0.00976,0.01464,0.01464
-0.03904,0.04636,-0.05368,-0.03416,-0.01464,-0.0122,0.00976,0,0.00976,0.01952,0.00488,0.00976
-0.03904,0.04636,-0.05368,-0.03416,-0.01464,-0.0122,0.00976,0,0.00976,0.01952,0.00488,0.00976
-0.03904,0.04148,-0.04392,-0.0244,-0.00488,-0.01708,0.00488,0,0.00976,0.01464,0.01464,0.00976
-0.03416,0.0366,-0.03904,-0.02196,-0.00488,-0.01464,0.00488,0,0.00976,0.01464,0.00488,0.00976
-0.0244,0.03416,-0.04392,-0.03172,-0.01952,-0.00244,0.00488,0,0.00976,0.01464,0.00488,0.00976
-0.0244,0.03416,-0.04392,-0.03172,-0.01952,-0.00244,0.00488,0,0.00976,0.00976,0.00976,0.00976
-0.01952,0.0366,-0.05368,-0.04392,-0.03416,0.00732,0.01464,0,0.00976,0.01464,0.00488,0.00976
-0.01952,0.0366,-0.05368,-0.04392,-0.03416,0.00732,0.01464,0,0.00976,0.00976,0.00488,0.00976
-0.01952,0.02928,-0.03904,-0.02928,-0.01952,0,0.01464,0,0.00976,0.00976,0.01464,0.00976
-0.01464,0.02684,-0.03904,-0.03172,-0.0244,0.00488,0.00976,0,0.00976,0.00976,0.00976,0.00488
-0.01464,0.02684,-0.03904,-0.03172,-0.0244,0.00488,0.00976,0,0.00976,0.01952,0.00488,0.01464
-0.01464,0.03172,-0.0488,-0.04148,-0.03416,0.00976,0.01464,0,0.00976,0.01952,0.00488,0.01464
-0.0244,0.03416,-0.04392,-0.03172,-0.01952,-0.00244,0,-0.00976,0,0.00976,0,0.00488
-0.0244,0.02684,-0.02928,-0.01708,-0.00488,-0.00976,-0.00488,-0.00976,-0.00488,0.00976,0,0.00488
-0.0244,0.03416,-0.04392,-0.03172,-0.01952,-0.00244,0,-0.00976,0,0.00976,0.00488,0.00488
-0.02928,0.0366,-0.04392,-0.02928,-0.01464,-0.00732,0,-0.00976,0,0.00488,0.00488,0.00488
-0.01952,0.03904,-0.05856,-0.0488,-0.03904,0.00976,0.00976,0,0.00976,0.01464,0.00488,0.00976
-0.01952,0.04392,-0.06832,-0.05856,-0.0488,0.01464,0.00488,-0.00488,0.00976,0.01464,0.00488,0.00976
-0.02928,0.05124,-0.0732,-0.05856,-0.04392,0.00732,0.01464,0.00488,-0.00488,0.00488,0.00488,0
-0.02928,0.05124,-0.0732,-0.05856,-0.04392,0.00732,0.01952,0.00488,0,0.00488,0,0
-0.03904,0.05124,-0.06344,-0.04392,-0.0244,-0.00732,0.01952,-0.00488,0,0.00488,0,0
-0.03904,0.05124,-0.06344,-0.04392,-0.0244,-0.00732,0.01952,-0.00488,0,0,0,0
-0.02928,0.04148,-0.05368,-0.03904,-0.0244,-0.00244,0.01952,0,0.00488,0.00976,-0.00488,0
-0.02928,0.04148,-0.05368,-0.03904,-0.0244,-0.00244,0.01464,0,0.00488,0.00976,-0.00488,0
-0.01952,0.03904,-0.05856,-0.0488,-0.03904,0.00976,0.01464,0,-0.00488,0.00976,-0.00488,-0.00976
-0.01952,0.03904,-0.05856,-0.0488,-0.03904,0.00976,0.01464,-0.00488,-0.00488,0.00976,-0.00488,-0.00976
-0.02928,0.04636,-0.06344,-0.0488,-0.03416,0.00244,0.00488,-0.00488,-0.00488,0,-0.00488,-0.00976
-0.02928,0.04392,-0.05856,-0.04392,-0.02928,0,0.00488,-0.00488,-0.00488,0,-0.00488,-0.00976
-0.02928,0.04392,-0.05856,-0.04392,-0.02928,0,0.00488,-0.01952,-0.00488,0.00976,-0.01464,-0.00976
-0.03416,0.04636,-0.05856,-0.04148,-0.0244,-0.00488,0.00976,-0.01464,-0.00488,0.00976,-0.01464,-0.01464
-0.0244,0.0488,-0.0732,-0.061,-0.0488,0.0122,0.01952,-0.01464,-0.00488,0.00976,-0.01464,-0.01464
-0.0244,0.0488,-0.0732,-0.061,-0.0488,0.0122,0.01952,-0.01464,-0.00488,0.00976,-0.01464,-0.00976
-0.0244,0.05368,-0.08296,-0.07076,-0.05856,0.01708,0.02928,-0.00488,0.00488,0.01952,-0.00488,0
-0.0244,0.05856,-0.09272,-0.08052,-0.06832,0.02196,0.02928,0.00488,0.00488,0.01952,0.00488,0.00976
-0.03416,0.05856,-0.08296,-0.06588,-0.0488,0.00732,0.02928,0.00488,0.00488,0.00976,0,0.00488
-0.04392,0.06344,-0.08296,-0.061,-0.03904,-0.00244,0.02928,0.00488,0.00488,0.00976,0,0.00488
-0.03416,0.05368,-0.0732,-0.05612,-0.03904,0.00244,0.01952,-0.00488,-0.00488,0,-0.01464,-0.00488
-0.03416,0.05368,-0.0732,-0.05612,-0.03904,0.00244,0.00488,-0.01464,-0.00976,0,-0.01464,-0.01464
-0.03416,0.0488,-0.06344,-0.04636,-0.02928,-0.00244,0.00488,-0.01952,-0.00976,0,-0.0244,-0.01464
-0.02928,0.03904,-0.0488,-0.03416,-0.01952,-0.00488,0.00488,-0.01952,-0.00976,0,-0.0244,-0.01464
-0.0244,0.04148,-0.05856,-0.04636,-0.03416,0.00488,0.01464,-0.00976,-0.00976,0,-0.0244,-0.01464
-0.01952,0.04636,-0.0732,-0.06344,-0.05368,0.01708,0.01464,-0.00488,-0.00976,0,-0.01952,-0.01464
-0.02928,0.05612,-0.08296,-0.06832,-0.05368,0.0122,0.0244,-0.00488,-0.00488,0.00976,-0.01464,-0.00488
-0.02928,0.05856,-0.08784,-0.0732,-0.05856,0.01464,0.02928,-0.00488,-0.00488,0.00976,-0.01464,-0.00488
-0.02928,0.05856,-0.08784,-0.0732,-0.05856,0.01464,0.03904,0,0,0.00488,-0.01464,-0.00488
-0.02928,0.05856,-0.08784,-0.0732,-0.05856,0.01464,0.03904,0.00488,0,0.00488,-0.00976,-0.00488
-0.03904,0.05856,-0.07808,-0.05856,-0.03904,0,0.02928,0.00488,-0.00488,0.00488,-0.01952,-0.01464
-0.03904,0.05856,-0.07808,-0.05856,-0.03904,0,0.02928,0.00488,-0.00488,0.00488,-0.01952,-0.01464
-0.02928,0.05368,-0.07808,-0.06344,-0.0488,0.00976,0.01952,-0.00488,-0.00488,0.00976,-0.01464,-0.01464
-0.02928,0.05612,-0.08296,-0.06832,-0.05368,0.0122,0.01464,-0.00488,-0.00488,0.00976,-0.01464,-0.01464
-0.02928,0.05612,-0.08296,-0.06832,-0.05368,0.0122,0.01464,-0.00488,-0.00488,0.00976,-0.01464,-0.00488
-0.02928,0.05612,-0.08296,-0.06832,-0.05368,0.0122,0.01464,-0.00488,-0.00488,0.00976,-0.01464,-0.00488
-0.03904,0.06344,-0.08784,-0.06832,-0.0488,0.00488,0.01952,-0.00976,0,0.00976,-0.01952,0
-0.03904,0.06344,-0.08784,-0.06832,-0.0488,0.00488,0.01952,-0.00976,0,0.00976,-0.00976,0
-0.03904,0.06344,-0.08784,-0.06832,-0.0488,0.00488,0.01952,-0.00976,0,0.00976,-0.00976,0
-0.02928,0.05612,-0.08296,-0.06832,-0.05368,0.0122,0.02928,-0.00488,0.00976,0.01952,0,0
-0.02928,0.05124,-0.0732,-0.05856,-0.04392,0.00732,0.02928,0.00488,0.01464,0.01952,0,0
-0.01464,0.0488,-0.08296,-0.07564,-0.06832,0.02684,0.03904,0.01952,0.0244,0.02928,0.00976,0.00976
-0.00488,0.03904,-0.0732,-0.07076,-0.06832,0.03172,0.03904,0.01952,0.0244,0.02928,0.00976,0.00976
-0.00488,0.03416,-0.06344,-0.061,-0.05856,0.02684,0.03904,0.01464,0.01952,0.0244,0.01952,0.01464
0.00488,0.02196,-0.0488,-0.05124,-0.05368,0.02928,0.03904,0.01952,0.0244,0.0244,0.01952,0.01952
0.01952,0.00976,-0.03904,-0.0488,-0.05856,0.03904,0.02928,0.01952,0.03416,0.02928,0.0244,0.01952
0.02928,-0.00244,-0.0244,-0.03904,-0.05368,0.04148,0.02928,0.0244,0.04392,0.03904,0.03416,0.0244
0.03416,-0.00488,-0.0244,-0.04148,-0.05856,0.04636,0.0244,0.0244,0.04392,0.0488,0.03904,0.02928
0.03416,-0.00488,-0.0244,-0.04148,-0.05856,0.04636,0.00976,0.0244,0.0488,0.0488,0.03904,0.02928
0.03416,-0.00976,-0.01464,-0.03172,-0.0488,0.04148,0.00488,0.01464,0.03904,0.04392,0.04392,0.02928
0.04392,-0.01708,-0.00976,-0.03172,-0.05368,0.0488,-0.00488,0.01464,0.03904,0.0488,0.04392,0.03416
0.05368,-0.02684,0,-0.02684,-0.05368,0.05368,-0.01952,0.00976,0.03416,0.0488,0.03904,0.03904
0.05856,-0.03172,0.00488,-0.0244,-0.05368,0.05612,-0.0244,-0.00488,0.02928,0.0488,0.03904,0.03904
0.0488,-0.01952,-0.00976,-0.03416,-0.05856,0.05368,-0.0244,-0.0244,0.01952,0.03904,0.03904,0.03416
0.03904,-0.00488,-0.02928,-0.0488,-0.06832,0.05368,-0.0244,-0.02928,0.00488,0.02928,0.03416,0.02928
0.03904,-0.00488,-0.02928,-0.0488,-0.06832,0.05368,-0.01464,-0.0244,-0.00488,0.01952,0.01464,0.01952
0.03904,-0.00488,-0.02928,-0.0488,-0.06832,0.05368,-0.01464,-0.0244,-0.00976,0.01464,0.01464,0.0244
0.03416,0.00244,-0.03904,-0.05612,-0.0732,0.05368,-0.01464,-0.02928,-0.00488,0.01464,0.01464,0.01464
0.04392,0,-0.04392,-0.06588,-0.08784,0.06588,-0.01464,-0.0244,-0.00488,0.01464,0.01464,0.01464
0.05368,-0.00732,-0.03904,-0.06588,-0.09272,0.0732,-0.01464,-0.01952,-0.00488,0.00488,0.01464,0.01464
0.05368,-0.00488,-0.04392,-0.07076,-0.0976,0.07564,-0.00976,-0.01952,-0.00976,0.00488,0.00976,0.01464
0.02928,0.0122,-0.05368,-0.06832,-0.08296,0.05612,-0.00976,-0.01952,-0.00976,0.00488,0.01464,0.01464
0.01952,0.01708,-0.05368,-0.06344,-0.0732,0.04636,0.00488,-0.01952,-0.00488,0,0.00976,0.00976
-0.00488,0.0366,-0.06832,-0.06588,-0.06344,0.02928,0.01464,-0.01464,0.00488,0.00976,0.00488,0
-0.01952,0.0488,-0.07808,-0.06832,-0.05856,0.01952,0.0244,-0.01464,0.00976,0.00976,0.00488,-0.00488
-0.02928,0.05368,-0.07808,-0.06344,-0.0488,0.00976,0.03416,-0.00976,0,-0.00488,-0.01464,-0.01464
-0.03416,0.05856,-0.08296,-0.06588,-0.0488,0.00732,0.03416,-0.00488,-0.00488,-0.00488,-0.01464,-0.01464
-0.03416,0.05856,-0.08296,-0.06588,-0.0488,0.00732,0.03416,-0.00488,-0.01464,-0.01464,-0.01952,-0.01464
-0.03416,0.05856,-0.08296,-0.06588,-0.0488,0.00732,0.03416,-0.00976,-0.00976,-0.01464,-0.01952,-0.01952
-0.03416,0.05368,-0.0732,-0.05612,-0.03904,0.00244,0.03416,-0.00976,-0.00976,-0.01464,-0.01952,-0.01952
-0.03416,0.05368,-0.0732,-0.05612,-0.03904,0.00244,0.03416,-0.00488,-0.00976,-0.01464,-0.01952,-0.01952
-0.04392,0.06344,-0.08296,-0.061,-0.03904,-0.00244,0.02928,-0.00488,-0.00488,-0.00976,-0.01952,-0.0244
-0.0488,0.06588,-0.08296,-0.05856,-0.03416,-0.00732,0.02928,-0.00976,-0.00488,-0.00976,-0.01952,-0.0244
-0.0488,0.06344,-0.07808,-0.05368,-0.02928,-0.00976,0.02928,-0.00976,-0.00488,-0.00976,-0.01464,-0.01952
-0.0488,0.06344,-0.07808,-0.05368,-0.02928,-0.00976,0.0244,-0.00976,-0.00488,-0.00976,-0.01464,-0.01952
-0.03904,0.05612,-0.0732,-0.05368,-0.03416,-0.00244,0.0244,-0.00488,-0.00488,0,-0.00976,-0.01952
-0.03904,0.05612,-0.0732,-0.05368,-0.03416,-0.00244,0.02928,-0.00488,0,0,-0.00976,-0.01464
-0.03416,0.05368,-0.0732,-0.05612,-0.03904,0.00244,0.02928,-0.00488,-0.00976,-0.00488,-0.01464,-0.0244
-0.02928,0.061,-0.09272,-0.07808,-0.06344,0.01708,0.0488,0.0244,0,-0.01952,-0.0244,-0.0244
-0.02928,0.07564,-0.122,-0.10736,-0.09272,0.03172,0.06832,0.05856,-0.01464,-0.04392,-0.0488,-0.0488
-0.0244,0.0976,-0.1708,-0.1586,-0.1464,0.061,0.11224,0.10736,-0.01952,-0.08296,-0.09272,-0.08784
-0.0244,0.1098,-0.1952,-0.183,-0.1708,0.0732,0.1464,0.18056,0.00488,-0.10248,-0.122,-0.11712
0.01952,0.07564,-0.1708,-0.18056,-0.19032,0.10492,0.15616,0.23912,0.0732,-0.05856,-0.08784,-0.0976
0.11224,-0.03904,-0.03416,-0.09028,-0.1464,0.12932,0.10248,0.26352,0.20984,0.09272,0.05368,0.0244
0.2928,-0.25864,0.22448,0.07808,-0.06832,0.18056,-0.04392,0.2196,0.40992,0.38552,0.35136,0.28792
0.52216,-0.54168,0.5612,0.30012,0.03904,0.24156,-0.27328,0.10736,0.64904,0.80032,0.79544,0.67832
0.75152,-0.85644,0.96136,0.5856,0.20984,0.27084,-0.54656,-0.09272,0.85888,1.25904,1.27856,1.13216
0.89304,-1.1102,1.32736,0.88084,0.43432,0.22936,-0.8052,-0.3416,1.00528,1.6836,1.7324,1.54696
0.9272,-1.26148,1.59576,1.13216,0.66856,0.12932,-0.99552,-0.57584,1.11752,2.02032,2.0984,1.88368
0.86864,-1.27124,1.67384,1.23952,0.8052,0.03172,-1.06872,-0.72224,1.11264,2.1228,2.21064,1.98128
0.72224,-1.1224,1.52256,1.16144,0.80032,-0.03904,-1.00528,-0.77104,0.91256,1.89832,2.01056,1.82512
0.54656,-0.86132,1.17608,0.9028,0.62952,-0.04148,-0.86864,-0.74664,0.50264,1.342,1.50304,1.43472
0.35624,-0.5612,0.76616,0.58804,0.40992,-0.02684,-0.6588,-0.6588,0.05856,0.69296,0.88328,0.9272
0.19032,-0.2928,0.39528,0.30012,0.20496,-0.00732,-0.45384,-0.52704,-0.27816,0.15128,0.35136,0.48312
0.09272,-0.14152,0.19032,0.14396,0.0976,-0.00244,-0.2928,-0.38552,-0.37088,-0.08784,0.07808,0.2196
0.03416,-0.05368,0.0732,0.05612,0.03904,-0.00244,-0.17568,-0.244,-0.30744,-0.14152,-0.02928,0.0732
0.00488,-0.00732,0.00976,0.00732,0.00488,0,-0.09272,-0.13664,-0.22448,-0.13176,-0.06344,0.01464
-0.01952,0.02196,-0.0244,-0.01464,-0.00488,-0.00732,-0.04392,-0.0732,-0.16104,-0.11224,-0.06832,-0.0244
-0.03904,0.04148,-0.04392,-0.0244,-0.00488,-0.01708,0,-0.02928,-0.11224,-0.08784,-0.06832,-0.03904
-0.03416,0.04148,-0.0488,-0.03172,-0.01464,-0.00976,0.00976,-0.01464,-0.07808,-0.0732,-0.05856,-0.03904
-0.04392,0.04636,-0.0488,-0.02684,-0.00488,-0.01952,0.0244,0.00488,-0.05368,-0.06344,-0.0488,-0.03904
-0.03904,0.0488,-0.05856,-0.03904,-0.01952,-0.00976,0.03416,0.0244,-0.02928,-0.0488,-0.0488,-0.03904
-0.03904,0.05368,-0.06832,-0.0488,-0.02928,-0.00488,0.04392,0.03416,-0.0244,-0.0488,-0.04392,-0.04392
-0.05368,0.061,-0.06832,-0.04148,-0.01464,-0.01952,0.05856,0.03904,-0.01464,-0.03904,-0.0488,-0.03904
-0.05368,0.061,-0.06832,-0.04148,-0.01464,-0.01952,0.05856,0.03904,-0.01464,-0.03904,-0.0488,-0.03904
-0.05368,0.061,-0.06832,-0.04148,-0.01464,-0.01952,0.06344,0.04392,-0.00488,-0.03904,-0.0488,-0.03904
-0.05368,0.06344,-0.0732,-0.04636,-0.01952,-0.01708,0.06344,0.04392,-0.00488,-0.03904,-0.0488,-0.03904
-0.04392,0.05856,-0.0732,-0.05124,-0.02928,-0.00732,0.06344,0.0488,0,-0.02928,-0.03904,-0.03904
-0.04392,0.05856,-0.0732,-0.05124,-0.02928,-0.00732,0.06344,0.0488,0.00488,-0.0244,-0.03904,-0.04392
-0.04392,0.05856,-0.0732,-0.05124,-0.02928,-0.00732,0.05368,0.05856,0.00488,-0.0244,-0.03904,-0.04392
-0.03904,0.05612,-0.0732,-0.05368,-0.03416,-0.00244,0.05368,0.06344,0.00976,-0.01952,-0.03416,-0.03904
-0.0488,0.061,-0.0732,-0.0488,-0.0244,-0.0122,0.0488,0.05368,0.01464,-0.02928,-0.02928,-0.03904
-0.0488,0.061,-0.0732,-0.0488,-0.0244,-0.0122,0.0488,0.05856,0.01464,-0.02928,-0.02928,-0.03904
-0.03904,0.05612,-0.0732,-0.05368,-0.03416,-0.00244,0.05856,0.05856,0.01952,-0.03416,-0.02928,-0.03904
-0.03904,0.05612,-0.0732,-0.05368,-0.03416,-0.00244,0.06344,0.06344,0.01952,-0.02928,-0.02928,-0.03904
-0.03416,0.05612,-0.07808,-0.061,-0.04392,0.00488,0.06344,0.06344,0.01952,-0.0244,-0.02928,-0.03904
-0.03416,0.05368,-0.0732,-0.05612,-0.03904,0.00244,0.06344,0.06344,0.0244,-0.0244,-0.02928,-0.03416
-0.03416,0.0488,-0.06344,-0.04636,-0.02928,-0.00244,0.06832,0.06344,0.0244,-0.02928,-0.02928,-0.03904
-0.03416,0.0488,-0.06344,-0.04636,-0.02928,-0.00244,0.06832,0.0732,0.02928,-0.02928,-0.0244,-0.03416
-0.02928,0.04636,-0.06344,-0.0488,-0.03416,0.00244,0.05856,0.0732,0.02928,-0.0244,-0.0244,-0.03416
-0.02928,0.04636,-0.06344,-0.0488,-0.03416,0.00244,0.05856,0.0732,0.03416,-0.0244,-0.0244,-0.03416
-0.02928,0.04636,-0.06344,-0.0488,-0.03416,0.00244,0.0488,0.07808,0.02928,-0.01464,-0.02928,-0.04392
-0.02928,0.04636,-0.06344,-0.0488,-0.03416,0.00244,0.0488,0.07808,0.03416,-0.00976,-0.02928,-0.03904
-0.03416,0.04392,-0.05368,-0.0366,-0.01952,-0.00732,0.0488,0.08296,0.03416,-0.01464,-0.0244,-0.02928
-0.02928,0.04148,-0.05368,-0.03904,-0.0244,-0.00244,0.05368,0.08784,0.03416,-0.00976,-0.01952,-0.0244
-0.02928,0.04636,-0.06344,-0.0488,-0.03416,0.00244,0.06344,0.09272,0.0488,0.00488,0,-0.01952
-0.0244,0.04392,-0.06344,-0.05124,-0.03904,0.00732,0.06832,0.0976,0.05368,0.00976,0.00488,-0.01952
-0.0244,0.04148,-0.05856,-0.04636,-0.03416,0.00488,0.06832,0.11712,0.0732,0.01952,0.00488,-0.00488
-0.01952,0.03904,-0.05856,-0.0488,-0.03904,0.00976,0.0732,0.12688,0.08296,0.0244,0.01464,0
-0.01952,0.0366,-0.05368,-0.04392,-0.03416,0.00732,0.07808,0.13176,0.08784,0.0244,0.01464,0
-0.00976,0.02928,-0.0488,-0.04392,-0.03904,0.01464,0.0732,0.14152,0.0976,0.03904,0.0244,0.00488
0,0.02196,-0.04392,-0.04392,-0.04392,0.02196,0.0732,0.14152,0.10736,0.04392,0.01952,0
0.00976,0.01464,-0.03904,-0.04392,-0.0488,0.02928,0.0732,0.15616,0.11712,0.05368,0.02928,0.00488
0.00976,0.00732,-0.0244,-0.02928,-0.03416,0.02196,0.06344,0.15128,0.11712,0.0488,0.03416,0.00976
0.00976,0.00488,-0.01952,-0.0244,-0.02928,0.01952,0.0488,0.15616,0.13176,0.05856,0.04392,0.01464
0.01464,-0.00244,-0.00976,-0.01708,-0.0244,0.01952,0.0488,0.16592,0.1464,0.0732,0.05856,0.03416
0.01952,-0.00976,0,-0.00976,-0.01952,0.01952,0.0488,0.18056,0.16592,0.08784,0.06832,0.04392
0.02928,-0.02196,0.01464,0,-0.01464,0.02196,0.05368,0.1952,0.17568,0.10736,0.08296,0.05368
0.03904,-0.03416,0.02928,0.00976,-0.00976,0.0244,0.05856,0.20496,0.1952,0.122,0.10248,0.06832
0.04392,-0.0366,0.02928,0.00732,-0.01464,0.02928,0.05856,0.2196,0.2196,0.14152,0.122,0.08784
0.05368,-0.04392,0.03416,0.00732,-0.01952,0.0366,0.05856,0.23424,0.23912,0.16104,0.14152,0.10248
0.06344,-0.05124,0.03904,0.00732,-0.0244,0.04392,0.06832,0.25864,0.27816,0.19032,0.1708,0.13176
0.07808,-0.06832,0.05856,0.01952,-0.01952,0.0488,0.06344,0.2684,0.29768,0.22448,0.1952,0.15128
0.10736,-0.09272,0.07808,0.0244,-0.02928,0.06832,0.05368,0.27816,0.3172,0.244,0.22448,0.1708
0.11712,-0.10736,0.0976,0.03904,-0.01952,0.06832,0.04392,0.28792,0.3416,0.27328,0.25376,0.1952
0.13176,-0.12932,0.12688,0.061,-0.00488,0.06832,0.02928,0.28792,0.366,0.2928,0.27328,0.20496
0.1464,-0.15128,0.15616,0.08296,0.00976,0.06832,0.01952,0.28792,0.40016,0.32208,0.29768,0.22936
0.15616,-0.16348,0.1708,0.09272,0.01464,0.07076,0,0.30256,0.42944,0.34648,0.32696,0.25864
0.1708,-0.18056,0.19032,0.10492,0.01952,0.07564,0,0.30256,0.44896,0.37088,0.34648,0.28304
0.18056,-0.19032,0.20008,0.1098,0.01952,0.08052,-0.00976,0.30256,0.45872,0.3904,0.37088,0.2928
0.19032,-0.20252,0.21472,0.11956,0.0244,0.08296,-0.01464,0.30256,0.46848,0.4148,0.3904,0.31232
0.20008,-0.21716,0.23424,0.1342,0.03416,0.08296,-0.0244,0.28792,0.47336,0.43432,0.40992,0.32208
0.20496,-0.22204,0.23912,0.13664,0.03416,0.0854,-0.03416,0.28304,0.48312,0.44408,0.41968,0.33672
0.21472,-0.2318,0.24888,0.14152,0.03416,0.09028,-0.03416,0.28304,0.49776,0.4636,0.43432,0.35136
0.2196,-0.24156,0.26352,0.15372,0.04392,0.08784,-0.02928,0.27328,0.49776,0.46848,0.44896,0.36112
0.20984,-0.23424,0.25864,0.15372,0.0488,0.08052,-0.03904,0.26352,0.49288,0.47336,0.44408,0.366
0.20984,-0.23668,0.26352,0.1586,0.05368,0.07808,-0.0488,0.23912,0.47824,0.46848,0.4392,0.366
0.20008,-0.2318,0.26352,0.16348,0.06344,0.06832,-0.06344,0.2196,0.45872,0.45384,0.4392,0.35624
0.19032,-0.22692,0.26352,0.16836,0.0732,0.05856,-0.06832,0.19032,0.42944,0.42944,0.4148,0.3416
0.17568,-0.2196,0.26352,0.17568,0.08784,0.04392,-0.06832,0.15616,0.3904,0.39528,0.38064,0.32208
0.15616,-0.20008,0.244,0.16592,0.08784,0.03416,-0.06832,0.14152,0.35136,0.35624,0.35136,0.2928
0.14152,-0.18056,0.2196,0.14884,0.07808,0.03172,-0.06832,0.13176,0.32208,0.33184,0.31232,0.26352
0.122,-0.1586,0.1952,0.1342,0.0732,0.0244,-0.06344,0.11224,0.28792,0.29768,0.28304,0.23424
0.0976,-0.13176,0.16592,0.11712,0.06832,0.01464,-0.0488,0.0976,0.26352,0.25864,0.23424,0.1952
0.07808,-0.11224,0.1464,0.10736,0.06832,0.00488,-0.04392,0.08296,0.22936,0.2196,0.20008,0.16104
0.06344,-0.10004,0.13664,0.10492,0.0732,-0.00488,-0.02928,0.06344,0.18056,0.17568,0.16104,0.13176
0.05368,-0.0854,0.11712,0.09028,0.06344,-0.00488,-0.0244,0.05368,0.15128,0.1464,0.13664,0.10736
0.03416,-0.061,0.08784,0.07076,0.05368,-0.00976,-0.01464,0.04392,0.122,0.122,0.11224,0.08784
0.01464,-0.0366,0.05856,0.05124,0.04392,-0.01464,-0.01464,0.02928,0.10248,0.09272,0.08296,0.06832
0.00976,-0.0244,0.03904,0.03416,0.02928,-0.00976,-0.00976,0.03416,0.09272,0.08784,0.07808,0.06344
0,-0.00976,0.01952,0.01952,0.01952,-0.00976,-0.00488,0.02928,0.0732,0.06832,0.05856,0.0488
0,-0.0122,0.0244,0.0244,0.0244,-0.0122,-0.01464,0.01464,0.05368,0.0488,0.04392,0.02928
-0.00976,-0.00976,0.02928,0.03416,0.03904,-0.0244,-0.00976,0.00976,0.04392,0.03416,0.0244,0.01952
-0.01952,0,0.01952,0.02928,0.03904,-0.02928,-0.01952,-0.00488,0.02928,0.0244,0.01464,0
-0.0244,0.00244,0.01952,0.03172,0.04392,-0.03416,-0.01464,-0.00488,0.0244,0.01464,0.00488,-0.00488
-0.02928,0.01464,0,0.01464,0.02928,-0.02928,-0.00488,0,0.0244,0.01464,0.00488,-0.00488
-0.03416,0.02196,-0.00976,0.00732,0.0244,-0.02928,-0.00488,0,0.0244,0.01952,0.00976,0.00488
-0.02928,0.02196,-0.01464,0,0.01464,-0.02196,0.00488,0,0.01952,0.01952,0.00488,0.00976
-0.0244,0.01952,-0.01464,-0.00244,0.00976,-0.01708,0.00488,0,0.01464,0.01464,0.00488,0.00976
-0.0244,0.01464,-0.00488,0.00732,0.01952,-0.02196,0.00488,-0.00976,0.00488,0.00488,-0.00488,-0.00488
-0.02928,0.01708,-0.00488,0.00976,0.0244,-0.02684,0.00976,-0.01464,0.00488,0.00488,-0.01952,-0.00488
-0.03904,0.01952,0,0.01952,0.03904,-0.03904,-0.00488,-0.00488,0.00976,-0.00488,-0.02928,-0.01464
-0.03904,0.01952,0,0.01952,0.03904,-0.03904,-0.00488,-0.00976,0.00976,-0.00976,-0.02928,-0.01464
-0.03904,0.01952,0,0.01952,0.03904,-0.03904,0.00488,0,0.00488,-0.00488,-0.01952,-0.01464
-0.03904,0.02196,-0.00488,0.01464,0.03416,-0.0366,0,0,0.00488,-0.00488,-0.01952,-0.01952
-0.0488,0.02196,0.00488,0.02928,0.05368,-0.05124,-0.00488,-0.00976,-0.00488,-0.01464,-0.02928,-0.02928
-0.0488,0.02196,0.00488,0.02928,0.05368,-0.05124,-0.00488,-0.01952,0,-0.01464,-0.02928,-0.02928
-0.04392,0.02196,0,0.02196,0.04392,-0.04392,-0.00488,-0.0244,-0.00976,-0.0244,-0.03904,-0.02928
-0.04392,0.01952,0.00488,0.02684,0.0488,-0.04636,-0.00488,-0.01952,-0.0244,-0.0244,-0.03904,-0.02928
-0.03416,0.01464,0.00488,0.02196,0.03904,-0.0366,-0.00488,-0.01952,-0.01464,-0.01952,-0.03904,-0.02928
-0.03904,0.01708,0.00488,0.0244,0.04392,-0.04148,0,-0.01952,-0.0244,-0.01952,-0.04392,-0.02928
-0.03904,0.00976,0.01952,0.03904,0.05856,-0.0488,0,-0.01952,-0.0244,-0.0244,-0.04392,-0.04392
-0.03904,0.01464,0.00976,0.02928,0.0488,-0.04392,0,-0.01952,-0.0244,-0.0244,-0.04392,-0.04392
-0.03904,0.01464,0.00976,0.02928,0.0488,-0.04392,0,-0.01952,-0.01464,-0.0244,-0.03904,-0.03416
-0.03904,0.01464,0.00976,0.02928,0.0488,-0.04392,0,-0.01952,-0.01464,-0.0244,-0.03904,-0.03416
-0.03904,0.01708,0.00488,0.0244,0.04392,-0.04148,-0.00976,-0.00976,-0.00488,-0.01464,-0.02928,-0.01952
-0.03904,0.01708,0.00488,0.0244,0.04392,-0.04148,-0.00976,-0.00976,-0.00488,-0.00488,-0.02928,-0.01952
-0.03904,0.02196,-0.00488,0.01464,0.03416,-0.0366,-0.01464,-0.00976,0.00488,-0.00488,-0.02928,-0.00488
-0.03904,0.02196,-0.00488,0.01464,0.03416,-0.0366,-0.01464,-0.00976,0.00488,-0.00488,-0.0244,-0.00976
-0.02928,0.0122,0.00488,0.01952,0.03416,-0.03172,-0.01464,-0.01952,-0.00488,-0.01464,-0.02928,-0.00976
-0.03416,0.00976,0.01464,0.03172,0.0488,-0.04148,-0.00976,-0.0244,-0.00488,-0.01464,-0.02928,-0.00976
-0.03904,0.01708,0.00488,0.0244,0.04392,-0.04148,-0.00976,-0.01464,-0.00488,-0.00976,-0.02928,-0.00976
-0.03904,0.01708,0.00488,0.0244,0.04392,-0.04148,-0.00976,-0.00976,-0.00488,-0.00976,-0.02928,-0.00976
-0.0488,0.02684,-0.00488,0.01952,0.04392,-0.04636,0,0,0.00488,0.00488,-0.01952,0.00488
-0.0488,0.0244,0,0.0244,0.0488,-0.0488,0.00976,0,0.00488,0.00488,-0.00976,0.00488
-0.04392,0.01952,0.00488,0.02684,0.0488,-0.04636,0,0,0.00488,0.00488,-0.00976,0.00488
-0.04392,0.01952,0.00488,0.02684,0.0488,-0.04636,0,0,0.00488,0.00976,-0.00976,0.00488
-0.02928,0.00732,0.01464,0.02928,0.04392,-0.0366,-0.01464,-0.00976,-0.00488,0,-0.01464,0.00488
-0.02928,0.00976,0.00976,0.0244,0.03904,-0.03416,-0.02928,-0.00976,-0.00488,0,-0.01464,0.00488
-0.02928,0.00732,0.01464,0.02928,0.04392,-0.0366,-0.02928,-0.01952,0,0,-0.01464,0
-0.02928,0.00732,0.01464,0.02928,0.04392,-0.0366,-0.02928,-0.01952,0,0,-0.01464,-0.00976
-0.03904,0.01708,0.00488,0.0244,0.04392,-0.04148,-0.03416,-0.01952,-0.00976,-0.00488,-0.0244,-0.01952
-0.03416,0.0122,0.00976,0.02684,0.04392,-0.03904,-0.03416,-0.01952,-0.00976,-0.00488,-0.03416,-0.01952
-0.03416,0.00976,0.01464,0.03172,0.0488,-0.04148,-0.0244,-0.01952,-0.01952,-0.01464,-0.0244,-0.01952
-0.03416,0.00976,0.01464,0.03172,0.0488,-0.04148,-0.0244,-0.01952,-0.01952,-0.01952,-0.01952,-0.01952
-0.02928,0.0122,0.00488,0.01952,0.03416,-0.03172,-0.01464,-0.01952,-0.00976,-0.01464,-0.0244,-0.01952
-0.02928,0.0122,0.00488,0.01952,0.03416,-0.03172,-0.01464,-0.01952,-0.00976,-0.01952,-0.0244,-0.01952
-0.02928,0.00488,0.01952,0.03416,0.0488,-0.03904,-0.0244,-0.01952,-0.00976,-0.01952,-0.03416,-0.01952
-0.0244,0.00244,0.01952,0.03172,0.04392,-0.03416,-0.02928,-0.01952,-0.00976,-0.01952,-0.03904,-0.0244
-0.0244,0.00732,0.00976,0.02196,0.03416,-0.02928,-0.02928,-0.01952,-0.01952,-0.01952,-0.03416,-0.0244
-0.0244,0.0122,0,0.0122,0.0244,-0.0244,-0.0244,-0.01952,-0.01952,-0.01952,-0.03416,-0.0244
-0.03416,0.0244,-0.01464,0.00244,0.01952,-0.02684,-0.02928,-0.01952,-0.00976,-0.01952,-0.02928,-0.01464
-0.03416,0.02196,-0.00976,0.00732,0.0244,-0.02928,-0.03416,-0.01952,-0.01464,-0.01952,-0.02928,-0.01464
-0.03416,0.01952,-0.00488,0.0122,0.02928,-0.03172,-0.03904,-0.01952,-0.01952,-0.01952,-0.03416,-0.01464
-0.03904,0.01708,0.00488,0.0244,0.04392,-0.04148,-0.03904,-0.01952,-0.01952,-0.0244,-0.03416,-0.01464
-0.03904,0.01464,0.00976,0.02928,0.0488,-0.04392,-0.02928,-0.02928,-0.01952,-0.0244,-0.03416,-0.01952
-0.03904,0.01464,0.00976,0.02928,0.0488,-0.04392,-0.03416,-0.03416,-0.01952,-0.0244,-0.03416,-0.01952
-0.03904,0.01708,0.00488,0.0244,0.04392,-0.04148,-0.0244,-0.0244,-0.03416,-0.0244,-0.03416,-0.01952
-0.03904,0.01708,0.00488,0.0244,0.04392,-0.04148,-0.01952,-0.0244,-0.02928,-0.0244,-0.03904,-0.01952
-0.02928,0.00732,0.01464,0.02928,0.04392,-0.0366,-0.01952,-0.0244,-0.02928,-0.0244,-0.03904,-0.01952
-0.02928,0.00732,0.01464,0.02928,0.04392,-0.0366,-0.01952,-0.0244,-0.02928,-0.02928,-0.03904,-0.01952
-0.02928,0.00244,0.0244,0.03904,0.05368,-0.04148,-0.02928,-0.02928,-0.03416,-0.02928,-0.04392,-0.02928
-0.02928,0.00732,0.01464,0.02928,0.04392,-0.0366,-0.04392,-0.02928,-0.03416,-0.02928,-0.04392,-0.02928
-0.03904,0.01952,0,0.01952,0.03904,-0.03904,-0.03416,-0.01952,-0.0244,-0.02928,-0.04392,-0.02928
-0.03904,0.01952,0,0.01952,0.03904,-0.03904,-0.03416,-0.0244,-0.0244,-0.02928,-0.04392,-0.02928
-0.02928,0.01708,-0.00488,0.00976,0.0244,-0.02684,-0.0244,-0.0244,-0.0244,-0.02928,-0.04392,-0.02928
-0.02928,0.01464,0,0.01464,0.02928,-0.02928,-0.0244,-0.0244,-0.0244,-0.02928,-0.04392,-0.02928
-0.02928,0.01464,0,0.01464,0.02928,-0.02928,-0.03416,-0.02928,-0.03416,-0.03904,-0.04392,-0.02928
-0.03416,0.01708,0,0.01708,0.03416,-0.03416,-0.03904,-0.0244,-0.03416,-0.03904,-0.04392,-0.03416
-0.03416,0.01952,-0.00488,0.0122,0.02928,-0.03172,-0.02928,-0.0244,-0.0244,-0.02928,-0.04392,-0.03416
-0.03416,0.01952,-0.00488,0.0122,0.02928,-0.03172,-0.02928,-0.0244,-0.0244,-0.02928,-0.04392,-0.02928
-0.04392,0.0244,-0.00488,0.01708,0.03904,-0.04148,-0.02928,-0.0244,-0.03416,-0.03904,-0.04392,-0.02928
-0.04392,0.0244,-0.00488,0.01708,0.03904,-0.04148,-0.02928,-0.0244,-0.03416,-0.03904,-0.04392,-0.02928
-0.04392,0.01952,0.00488,0.02684,0.0488,-0.04636,-0.03904,-0.03416,-0.04392,-0.03904,-0.0488,-0.03416
-0.04392,0.01952,0.00488,0.02684,0.0488,-0.04636,-0.03904,-0.03416,-0.04392,-0.03904,-0.0488,-0.03416
-0.03416,0.01464,0.00488,0.02196,0.03904,-0.0366,-0.03904,-0.03416,-0.03416,-0.02928,-0.04392,-0.03416
-0.03416,0.01464,0.00488,0.02196,0.03904,-0.0366,-0.04392,-0.03416,-0.03904,-0.02928,-0.04392,-0.03416
-0.03416,0.01464,0.00488,0.02196,0.03904,-0.0366,-0.04392,-0.02928,-0.02928,-0.02928,-0.04392,-0.0244
-0.02928,0.00976,0.00976,0.0244,0.03904,-0.03416,-0.04392,-0.02928,-0.02928,-0.02928,-0.04392,-0.0244
-0.04392,0.01708,0.00976,0.03172,0.05368,-0.0488,-0.04392,-0.02928,-0.02928,-0.02928,-0.05368,-0.03416
-0.03904,0.01708,0.00488,0.0244,0.04392,-0.04148,-0.04392,-0.0244,-0.02928,-0.02928,-0.0488,-0.03416
-0.03904,0.01708,0.00488,0.0244,0.04392,-0.04148,-0.03416,-0.0244,-0.0244,-0.02928,-0.04392,-0.0244
-0.03904,0.01464,0.00976,0.02928,0.0488,-0.04392,-0.02928,-0.0244,-0.0244,-0.02928,-0.04392,-0.0244
-0.02928,0.00488,0.01952,0.03416,0.0488,-0.03904,-0.03904,-0.03904,-0.03904,-0.04392,-0.05368,-0.03416
-0.02928,0.00488,0.01952,0.03416,0.0488,-0.03904,-0.03904,-0.03416,-0.03904,-0.04392,-0.0488,-0.03416
-0.02928,0.00488,0.01952,0.03416,0.0488,-0.03904,-0.0488,-0.04392,-0.04392,-0.04392,-0.05856,-0.04392
-0.02928,0.00488,0.01952,0.03416,0.0488,-0.03904,-0.0488,-0.04392,-0.04392,-0.04392,-0.05856,-0.04392
-0.02928,0.00976,0.00976,0.0244,0.03904,-0.03416,-0.03904,-0.03416,-0.03416,-0.02928,-0.05368,-0.03416
-0.02928,0.0122,0.00488,0.01952,0.03416,-0.03172,-0.03416,-0.0244,-0.0244,-0.02928,-0.04392,-0.03416
-0.03904,0.01952,0,0.01952,0.03904,-0.03904,-0.03904,-0.02928,-0.02928,-0.03904,-0.05856,-0.03904
-0.03904,0.01952,0,0.01952,0.03904,-0.03904,-0.03904,-0.02928,-0.02928,-0.03904,-0.05856,-0.03904
-0.03904,0.01464,0.00976,0.02928,0.0488,-0.04392,-0.03904,-0.02928,-0.02928,-0.02928,-0.05856,-0.03904
-0.03904,0.00976,0.01952,0.03904,0.05856,-0.0488,-0.04392,-0.03416,-0.0244,-0.02928,-0.05856,-0.03904
-0.03416,0.00976,0.01464,0.03172,0.0488,-0.04148,-0.0488,-0.03416,-0.03416,-0.02928,-0.0488,-0.02928
-0.02928,0.00488,0.01952,0.03416,0.0488,-0.03904,-0.0488,-0.02928,-0.03416,-0.02928,-0.0488,-0.02928
-0.01464,-0.00488,0.0244,0.03172,0.03904,-0.02684,-0.03904,-0.0244,-0.01952,-0.01952,-0.03904,-0.0244
-0.00976,-0.00732,0.0244,0.02928,0.03416,-0.02196,-0.03904,-0.01952,-0.01464,-0.01464,-0.03904,-0.00976
0.00488,-0.01952,0.03416,0.03172,0.02928,-0.0122,-0.03904,-0.01952,-0.00976,-0.00488,-0.03416,-0.00976
0.01464,-0.02928,0.04392,0.0366,0.02928,-0.00732,-0.03904,-0.01464,0,0.00488,-0.01952,0.00488
0.01952,-0.03904,0.05856,0.0488,0.03904,-0.00976,-0.0488,-0.01464,0.00488,0.00976,-0.00976,0.00976
0.0244,-0.04392,0.06344,0.05124,0.03904,-0.00732,-0.06344,-0.01464,0.00976,0.00976,-0.00976,0.00976
0.01464,-0.04392,0.0732,0.06588,0.05856,-0.02196,-0.06832,-0.0244,0.00976,0.00488,-0.01952,0.00976
0.01464,-0.04392,0.0732,0.06588,0.05856,-0.02196,-0.07808,-0.0244,0.00976,0.00488,-0.01464,0.00976
0.0244,-0.04636,0.06832,0.05612,0.04392,-0.00976,-0.07808,-0.02928,0.00488,0.00976,-0.01952,0.00488
0.02928,-0.0488,0.06832,0.05368,0.03904,-0.00488,-0.08296,-0.03904,0.00488,0.00976,-0.01952,0.00976
0.02928,-0.04636,0.06344,0.0488,0.03416,-0.00244,-0.08296,-0.03904,-0.01464,0.00488,-0.00976,0.00976
0.0244,-0.03904,0.05368,0.04148,0.02928,-0.00244,-0.08296,-0.0488,-0.02928,-0.00488,-0.0244,0
0.01952,-0.03416,0.0488,0.03904,0.02928,-0.00488,-0.0732,-0.0488,-0.02928,-0.00488,-0.0244,0.00976
0.01952,-0.03416,0.0488,0.03904,0.02928,-0.00488,-0.0732,-0.05368,-0.03904,-0.01464,-0.03416,0
0.01952,-0.03416,0.0488,0.03904,0.02928,-0.00488,-0.0732,-0.0488,-0.03416,-0.01464,-0.03416,0.00488
0.03416,-0.0366,0.03904,0.02196,0.00488,0.01464,-0.0732,-0.04392,-0.03416,-0.01464,-0.03416,0.00488
0.03416,-0.03904,0.04392,0.02684,0.00976,0.0122,-0.0732,-0.0488,-0.03416,-0.0244,-0.03416,-0.00488
0.03416,-0.03416,0.03416,0.01708,0,0.01708,-0.0732,-0.0488,-0.03904,-0.0244,-0.03904,-0.00488
0.0244,-0.03416,0.04392,0.03172,0.01952,0.00244,-0.06832,-0.0488,-0.03904,-0.0244,-0.03904,-0.00488
0.01464,-0.02928,0.04392,0.0366,0.02928,-0.00732,-0.06344,-0.0488,-0.03904,-0.0244,-0.03416,-0.00488
-0.00488,-0.00976,0.0244,0.02684,0.02928,-0.01708,-0.0488,-0.03904,-0.03416,-0.01952,-0.02928,-0.01464
-0.01952,0.00244,0.01464,0.0244,0.03416,-0.02684,-0.03904,-0.03416,-0.02928,-0.01952,-0.03416,-0.01952
-0.0244,0.00976,0.00488,0.01708,0.02928,-0.02684,-0.03904,-0.03904,-0.02928,-0.01952,-0.03904,-0.01464
-0.03416,0.01952,-0.00488,0.0122,0.02928,-0.03172,-0.03416,-0.03416,-0.03416,-0.0244,-0.04392,-0.0244
-0.04392,0.0244,-0.00488,0.01708,0.03904,-0.04148,-0.0244,-0.03416,-0.04392,-0.03416,-0.0488,-0.03416
-0.04392,0.0244,-0.00488,0.01708,0.03904,-0.04148,-0.0244,-0.03904,-0.03904,-0.03416,-0.0488,-0.03904
-0.04392,0.0244,-0.00488,0.01708,0.03904,-0.04148,-0.0244,-0.03904,-0.03904,-0.03416,-0.0488,-0.03904
-0.04392,0.0244,-0.00488,0.01708,0.03904,-0.04148,-0.0244,-0.03904,-0.03904,-0.03416,-0.0488,-0.03904
-0.04392,0.0244,-0.00488,0.01708,0.03904,-0.04148,-0.0244,-0.03416,-0.03416,-0.02928,-0.0488,-0.03416
-0.04392,0.0244,-0.00488,0.01708,0.03904,-0.04148,-0.01952,-0.03416,-0.03416,-0.02928,-0.0488,-0.03416
-0.0488,0.02928,-0.00976,0.01464,0.03904,-0.04392,-0.02928,-0.02928,-0.03416,-0.02928,-0.04392,-0.02928
-0.0488,0.02928,-0.00976,0.01464,0.03904,-0.04392,-0.02928,-0.02928,-0.03416,-0.02928,-0.04392,-0.02928
-0.0488,0.02196,0.00488,0.02928,0.05368,-0.05124,-0.0244,-0.0244,-0.0244,-0.02928,-0.03904,-0.02928
-0.0488,0.02196,0.00488,0.02928,0.05368,-0.05124,-0.0244,-0.0244,-0.0244,-0.02928,-0.03904,-0.0244
-0.03416,0.00976,0.01464,0.03172,0.0488,-0.04148,-0.01952,-0.01952,-0.01952,-0.0244,-0.03416,-0.0244
-0.02928,0.01952,-0.00976,0.00488,0.01952,-0.0244,-0.00976,0,-0.01952,-0.03416,-0.0488,-0.0244
-0.02928,0.0366,-0.04392,-0.02928,-0.01464,-0.00732,0.00488,0.01952,-0.02928,-0.05368,-0.06832,-0.0488
-0.02928,0.05124,-0.0732,-0.05856,-0.04392,0.00732,0.03904,0.05368,-0.0488,-0.09272,-0.11224,-0.09272
-0.0244,0.06344,-0.10248,-0.09028,-0.07808,0.02684,0.07808,0.122,-0.03904,-0.12688,-0.15128,-0.12688
0,0.0488,-0.0976,-0.0976,-0.0976,0.0488,0.0976,0.1708,0.0244,-0.11224,-0.15128,-0.12688
0.0732,-0.02196,-0.02928,-0.06588,-0.10248,0.08784,0.07808,0.21472,0.13176,0,-0.04392,-0.0488
0.20984,-0.19764,0.18544,0.08052,-0.0244,0.11712,-0.02928,0.1952,0.32696,0.2684,0.2196,0.18056
0.40992,-0.46116,0.5124,0.30744,0.10248,0.15372,-0.23912,0.0976,0.57096,0.69296,0.64904,0.5612
0.6344,-0.77592,0.91744,0.60024,0.28304,0.17568,-0.49288,-0.06344,0.81496,1.18096,1.15656,1.00528
0.7808,-1.04676,1.31272,0.92232,0.53192,0.12444,-0.76616,-0.29768,1.00528,1.66408,1.66408,1.45912
0.854,-1.23952,1.62504,1.19804,0.77104,0.04148,-0.98088,-0.52216,1.1468,2.08864,2.09352,1.83976
0.83936,-1.31516,1.79096,1.37128,0.9516,-0.05612,-1.10288,-0.69296,1.21024,2.318,2.318,2.03008
0.72224,-1.2078,1.69336,1.33224,0.97112,-0.12444,-1.07848,-0.75152,1.08824,2.21064,2.23016,1.96176
0.56608,-0.98088,1.39568,1.11264,0.8296,-0.13176,-0.94672,-0.73688,0.732,1.74216,1.79584,1.62504
0.3904,-0.68808,0.98576,0.79056,0.59536,-0.10248,-0.7564,-0.66856,0.24888,1.03456,1.17608,1.14192
0.22936,-0.40504,0.58072,0.46604,0.35136,-0.061,-0.54656,-0.55144,-0.17568,0.35624,0.54656,0.64904
0.10248,-0.21716,0.33184,0.2806,0.22936,-0.06344,-0.37576,-0.44408,-0.39528,-0.04392,0.14152,0.2928
0.03904,-0.11224,0.18544,0.16592,0.1464,-0.05368,-0.24888,-0.29768,-0.366,-0.1464,-0.01464,0.11224
0,-0.04392,0.08784,0.08784,0.08784,-0.04392,-0.14152,-0.16592,-0.27328,-0.15128,-0.07808,0.01464
-0.02928,-0.00732,0.04392,0.05856,0.0732,-0.05124,-0.08296,-0.0976,-0.19032,-0.12688,-0.08296,-0.02928
-0.03416,0.00976,0.01464,0.03172,0.0488,-0.04148,-0.05368,-0.06344,-0.13664,-0.10248,-0.08784,-0.04392
-0.0488,0.01464,0.01952,0.04392,0.06832,-0.05856,-0.03416,-0.03416,-0.10248,-0.09272,-0.08296,-0.0488
-0.04392,0.0122,0.01952,0.04148,0.06344,-0.05368,-0.0244,-0.0244,-0.0732,-0.07808,-0.07808,-0.0488
-0.0488,0.02928,-0.00976,0.01464,0.03904,-0.04392,-0.00488,-0.00488,-0.0488,-0.05856,-0.07808,-0.0488
-0.0488,0.03172,-0.01464,0.00976,0.03416,-0.04148,0,0.00976,-0.03416,-0.05856,-0.0732,-0.0488
-0.05368,0.04392,-0.03416,-0.00732,0.01952,-0.0366,0.01464,0.01952,-0.0244,-0.05856,-0.06832,-0.05856
-0.05368,0.04636,-0.03904,-0.0122,0.01464,-0.03416,0.01952,0.01952,-0.0244,-0.05856,-0.06832,-0.05856
-0.05368,0.04148,-0.02928,-0.00244,0.0244,-0.03904,0.01952,0.02928,-0.01952,-0.05856,-0.05856,-0.0488
-0.05368,0.04148,-0.02928,-0.00244,0.0244,-0.03904,0.0244,0.03416,-0.01464,-0.05856,-0.05856,-0.0488
-0.05368,0.03904,-0.0244,0.00244,0.02928,-0.04148,0.01464,0.02928,-0.01464,-0.05856,-0.06832,-0.0488
-0.05368,0.03904,-0.0244,0.00244,0.02928,-0.04148,0.01464,0.02928,-0.00976,-0.05856,-0.06832,-0.05368
-0.05368,0.04392,-0.03416,-0.00732,0.01952,-0.0366,0.01464,0.03904,-0.00488,-0.05368,-0.06832,-0.05368
-0.05368,0.04392,-0.03416,-0.00732,0.01952,-0.0366,0.01464,0.03904,0,-0.05368,-0.06832,-0.05368
-0.03904,0.0366,-0.03416,-0.01464,0.00488,-0.02196,0.01464,0.03416,0,-0.0488,-0.06344,-0.0488
-0.03904,0.0366,-0.03416,-0.01464,0.00488,-0.02196,0.01952,0.03904,0.00488,-0.0488,-0.05856,-0.0488
-0.03904,0.03416,-0.02928,-0.00976,0.00976,-0.0244,0.01952,0.03904,0.00488,-0.04392,-0.0488,-0.03904
-0.03904,0.02928,-0.01952,0,0.01952,-0.02928,0.01952,0.04392,0.00976,-0.03904,-0.0488,-0.03904
-0.03904,0.0244,-0.00976,0.00976,0.02928,-0.03416,0.0244,0.04392,0,-0.02928,-0.0488,-0.03904
-0.03416,0.01952,-0.00488,0.0122,0.02928,-0.03172,0.0244,0.04392,0,-0.03416,-0.0488,-0.03416
-0.0244,0.01952,-0.01464,-0.00244,0.00976,-0.01708,0.02928,0.04392,0.01464,-0.04392,-0.05856,-0.04392
-0.0244,0.01952,-0.01464,-0.00244,0.00976,-0.01708,0.02928,0.0488,0.01952,-0.03904,-0.05856,-0.0488
-0.03416,0.0244,-0.01464,0.00244,0.01952,-0.02684,0.02928,0.05368,0.01952,-0.03904,-0.05368,-0.04392
-0.02928,0.02196,-0.01464,0,0.01464,-0.02196,0.02928,0.05368,0.0244,-0.03416,-0.05368,-0.04392
-0.03904,0.03172,-0.0244,-0.00488,0.01464,-0.02684,0.02928,0.06832,0.02928,-0.0244,-0.04392,-0.03416
-0.03904,0.03172,-0.0244,-0.00488,0.01464,-0.02684,0.02928,0.06832,0.03416,-0.01952,-0.03416,-0.02928
-0.02928,0.02684,-0.0244,-0.00976,0.00488,-0.01708,0.02928,0.06344,0.03416,-0.01952,-0.03416,-0.03904
-0.03416,0.02928,-0.0244,-0.00732,0.00976,-0.02196,0.03416,0.06344,0.04392,-0.01464,-0.03416,-0.03904
-0.01952,0.01708,-0.01464,-0.00488,0.00488,-0.0122,0.0244,0.06344,0.0488,-0.00976,-0.0244,-0.03416
-0.01952,0.01708,-0.01464,-0.00488,0.00488,-0.0122,0.0244,0.06344,0.05368,0,-0.01952,-0.02928
-0.01464,0.00732,0,0.00732,0.01464,-0.01464,0.02928,0.06832,0.05856,0,-0.00488,-0.0244
-0.01464,0.00732,0,0.00732,0.01464,-0.01464,0.02928,0.08296,0.06832,0.01464,-0.00488,-0.0244
-0.01952,0.00732,0.00488,0.01464,0.0244,-0.02196,0.03416,0.08784,0.0732,0.01464,-0.00488,-0.01952
-0.01952,0.00732,0.00488,0.01464,0.0244,-0.02196,0.03904,0.0976,0.08296,0.0244,0,-0.01952
0,-0.00244,0.00488,0.00488,0.00488,-0.00244,0.03416,0.10248,0.09272,0.02928,0.00976,-0.00976
0.00488,-0.00732,0.00976,0.00732,0.00488,0,0.03416,0.11224,0.10248,0.03416,0.01464,-0.00488
0.0244,-0.01708,0.00976,-0.00244,-0.01464,0.01952,0.04392,0.12688,0.11712,0.05368,0.02928,0.00488
0.02928,-0.02196,0.01464,0,-0.01464,0.02196,0.03904,0.13664,0.14152,0.06344,0.04392,0.0244
0.01952,-0.0244,0.02928,0.01952,0.00976,0.00488,0.03904,0.14152,0.1464,0.0732,0.05856,0.03904
0.0244,-0.03172,0.03904,0.02684,0.01464,0.00488,0.03904,0.15616,0.16104,0.08784,0.0732,0.0488
0.01952,-0.03172,0.04392,0.03416,0.0244,-0.00244,0.03904,0.16592,0.1952,0.10248,0.08296,0.05856
0.03416,-0.04148,0.0488,0.03172,0.01464,0.00976,0.0488,0.18056,0.21472,0.11712,0.0976,0.06832
0.0488,-0.05124,0.05368,0.02928,0.00488,0.02196,0.0488,0.1952,0.23912,0.15128,0.122,0.08296
0.05856,-0.061,0.06344,0.03416,0.00488,0.02684,0.0488,0.20984,0.25864,0.1708,0.14152,0.10736
0.05856,-0.06832,0.07808,0.0488,0.01952,0.01952,0.03904,0.2196,0.28304,0.19032,0.16104,0.122
0.06832,-0.08052,0.09272,0.05856,0.0244,0.02196,0.03416,0.23424,0.30744,0.2196,0.18544,0.14152
0.08296,-0.10492,0.12688,0.0854,0.04392,0.01952,0.03416,0.23424,0.33672,0.24888,0.2196,0.1708
0.10736,-0.12688,0.1464,0.09272,0.03904,0.03416,0.02928,0.24888,0.36112,0.27816,0.25376,0.19032
0.122,-0.14396,0.16592,0.10492,0.04392,0.03904,0.0244,0.25376,0.3904,0.3172,0.27816,0.21472
0.12688,-0.15616,0.18544,0.122,0.05856,0.03416,0.01464,0.25864,0.4148,0.34648,0.30744,0.23912
0.14152,-0.16348,0.18544,0.11468,0.04392,0.0488,0.00488,0.2684,0.44408,0.38064,0.33184,0.25864
0.15128,-0.17812,0.20496,0.12932,0.05368,0.0488,0,0.27328,0.46848,0.40016,0.35136,0.28304
0.17568,-0.2074,0.23912,0.15128,0.06344,0.05612,-0.00488,0.27328,0.47824,0.41968,0.3904,0.2928
0.18544,-0.2196,0.25376,0.16104,0.06832,0.05856,-0.0244,0.27328,0.488,0.45384,0.40992,0.31232
0.1952,-0.23912,0.28304,0.18544,0.08784,0.05368,-0.03904,0.2684,0.49776,0.4636,0.41968,0.33184
0.20496,-0.24888,0.2928,0.19032,0.08784,0.05856,-0.0488,0.2684,0.50752,0.47824,0.4392,0.3416
0.20496,-0.24888,0.2928,0.19032,0.08784,0.05856,-0.05856,0.24888,0.51728,0.488,0.45384,0.34648
0.2196,-0.26352,0.30744,0.19764,0.08784,0.06588,-0.06832,0.23912,0.51728,0.49288,0.4636,0.35624
0.20984,-0.2562,0.30256,0.19764,0.09272,0.05856,-0.06832,0.22936,0.52704,0.50264,0.4636,0.37576
0.20984,-0.25864,0.30744,0.20252,0.0976,0.05612,-0.06832,0.20984,0.5124,0.49776,0.4636,0.37576
0.20008,-0.25132,0.30256,0.20252,0.10248,0.0488,-0.06344,0.20008,0.50264,0.488,0.45384,0.366
0.18544,-0.23668,0.28792,0.1952,0.10248,0.04148,-0.06832,0.18056,0.46848,0.46848,0.43432,0.35136
0.18056,-0.22692,0.27328,0.183,0.09272,0.04392,-0.06832,0.15616,0.4392,0.42944,0.40504,0.33184
0.1708,-0.21228,0.25376,0.16836,0.08296,0.04392,-0.06832,0.1464,0.40016,0.39528,0.37576,0.30744
0.16104,-0.2074,0.25376,0.17324,0.09272,0.03416,-0.07808,0.122,0.35624,0.34648,0.33672,0.27328
0.14152,-0.19032,0.23912,0.16836,0.0976,0.02196,-0.0732,0.10248,0.31232,0.31232,0.2928,0.23424
0.11712,-0.16836,0.2196,0.16104,0.10248,0.00732,-0.06344,0.08296,0.2684,0.2684,0.244,0.20008
0.0976,-0.1464,0.1952,0.1464,0.0976,0,-0.05368,0.06832,0.23424,0.22936,0.20984,0.16592
0.06832,-0.11468,0.16104,0.12688,0.09272,-0.0122,-0.04392,0.05856,0.20008,0.20496,0.17568,0.1464
0.05368,-0.10004,0.1464,0.11956,0.09272,-0.01952,-0.03416,0.0488,0.16592,0.1708,0.15128,0.11712
0.0488,-0.08296,0.11712,0.09272,0.06832,-0.00976,-0.0244,0.0488,0.1464,0.13664,0.13176,0.09272
0.03416,-0.06588,0.0976,0.08052,0.06344,-0.01464,-0.01464,0.03904,0.122,0.11712,0.10736,0.07808
0.0244,-0.0488,0.0732,0.061,0.0488,-0.0122,-0.01464,0.02928,0.10248,0.0976,0.08784,0.06832
0.01464,-0.0366,0.05856,0.05124,0.04392,-0.01464,-0.00976,0.0244,0.08296,0.07808,0.06832,0.05368
0.01464,-0.02684,0.03904,0.03172,0.0244,-0.00488,-0.00488,0.01464,0.05856,0.05856,0.04392,0.03904
0.00488,-0.01952,0.03416,0.03172,0.02928,-0.0122,-0.00488,0.01464,0.0488,0.0488,0.03904,0.03416
0,-0.01464,0.02928,0.02928,0.02928,-0.01464,-0.00488,0.00488,0.03904,0.02928,0.02928,0.01464
0,-0.01708,0.03416,0.03416,0.03416,-0.01708,-0.00976,0.00488,0.0244,0.01952,0.01952,0.00488
-0.01464,-0.00976,0.03416,0.04148,0.0488,-0.03172,-0.0244,-0.00488,0.01952,0.00976,0.00976,-0.00976
-0.0244,-0.00244,0.02928,0.04148,0.05368,-0.03904,-0.0244,-0.00976,0.01464,0,0,-0.01464
-0.0244,0,0.0244,0.0366,0.0488,-0.0366,-0.01952,-0.01952,0.01464,0,0,-0.01464
-0.02928,0.00244,0.0244,0.03904,0.05368,-0.04148,-0.00976,-0.01952,0.00488,-0.00488,-0.00488,-0.01952
-0.01464,0,0.01464,0.02196,0.02928,-0.02196,0.00488,-0.00976,0.01464,-0.00488,0.00488,-0.00976
-0.01464,0,0.01464,0.02196,0.02928,-0.02196,0.00488,-0.00976,0.01464,-0.00488,0.00488,-0.01464
-0.02928,0.00488,0.01952,0.03416,0.0488,-0.03904,0.00976,-0.00488,0,-0.00488,-0.00976,-0.0244
-0.02928,0.00488,0.01952,0.03416,0.0488,-0.03904,0.00488,-0.00488,0,-0.00488,-0.00976,-0.0244
-0.01952,-0.00244,0.0244,0.03416,0.04392,-0.03172,0.00488,-0.00976,0,-0.01464,-0.00976,-0.0244
-0.01952,0,0.01952,0.02928,0.03904,-0.02928,0.00488,-0.00976,-0.00488,-0.01464,-0.00976,-0.02928
-0.01952,0.00244,0.01464,0.0244,0.03416,-0.02684,0,-0.00976,-0.00488,-0.01464,-0.00976,-0.01952
-0.01952,0.00244,0.01464,0.0244,0.03416,-0.02684,0.00488,-0.00976,-0.00488,-0.01464,-0.00976,-0.01952
-0.0244,0.0122,0,0.0122,0.0244,-0.0244,0.00488,-0.00488,0,-0.00488,-0.00976,-0.01952
-0.0244,0.00976,0.00488,0.01708,0.02928,-0.02684,0.00488,-0.00488,0,-0.00488,-0.00976,-0.01952
-0.03416,0.01464,0.00488,0.02196,0.03904,-0.0366,-0.00488,-0.00976,-0.00488,-0.01952,-0.01952,-0.02928
-0.03416,0.01464,0.00488,0.02196,0.03904,-0.0366,-0.00488,-0.00976,-0.00488,-0.01952,-0.0244,-0.02928
-0.02928,0.01464,0,0.01464,0.02928,-0.02928,0.00976,0,-0.00488,-0.01464,-0.0244,-0.02928
-0.02928,0.01708,-0.00488,0.00976,0.0244,-0.02684,0.00976,0,-0.00488,-0.01464,-0.0244,-0.03416
-0.03904,0.0244,-0.00976,0.00976,0.02928,-0.03416,0.00976,0,-0.00488,-0.01464,-0.01952,-0.0244
-0.03904,0.0244,-0.00976,0.00976,0.02928,-0.03416,0.00976,0,-0.00488,-0.01464,-0.01952,-0.0244
-0.03904,0.02196,-0.00488,0.01464,0.03416,-0.0366,0.00976,0,-0.00488,-0.01464,-0.00976,-0.01952
-0.03904,0.02196,-0.00488,0.01464,0.03416,-0.0366,0.00976,0,-0.00488,-0.01464,-0.00976,-0.01952
-0.03904,0.02196,-0.00488,0.01464,0.03416,-0.0366,0.00488,0,-0.00488,-0.01464,-0.00976,-0.01952
-0.03904,0.02196,-0.00488,0.01464,0.03416,-0.0366,0.00488,0,-0.00488,-0.01464,-0.00488,-0.01464
-0.02928,0.01708,-0.00488,0.00976,0.0244,-0.02684,-0.00488,-0.00976,-0.00488,-0.0244,-0.01952,-0.01952
-0.03416,0.01708,0,0.01708,0.03416,-0.03416,-0.00488,-0.01464,-0.00488,-0.0244,-0.01952,-0.01952
-0.03416,0.00976,0.01464,0.03172,0.0488,-0.04148,0,-0.01464,-0.01464,-0.01464,-0.00976,-0.01952
-0.02928,0.00732,0.01464,0.02928,0.04392,-0.0366,0,-0.01464,-0.01464,-0.01952,-0.00976,-0.01952
-0.01952,0.00244,0.01464,0.0244,0.03416,-0.02684,0.00976,0,-0.00488,-0.00488,0,-0.01464
-0.01952,0,0.01952,0.02928,0.03904,-0.02928,0.00976,0,-0.00488,-0.00488,0,0
-0.02928,0.00976,0.00976,0.0244,0.03904,-0.03416,0.00976,0,-0.00488,-0.01464,0,-0.00488
-0.03416,0.00976,0.01464,0.03172,0.0488,-0.04148,0.00976,0,-0.00488,-0.00976,0,-0.00488
-0.03416,0.00976,0.01464,0.03172,0.0488,-0.04148,0.00488,0,-0.00488,-0.00976,0,-0.00488
-0.02928,0.00732,0.01464,0.02928,0.04392,-0.0366,0,0,-0.00488,-0.00976,0.00976,-0.00488
-0.02928,0.00732,0.01464,0.02928,0.04392,-0.0366,0,-0.00976,0,0,0.00488,0
-0.02928,0.00732,0.01464,0.02928,0.04392,-0.0366,0,-0.00976,0,0,0.00488,0
-0.02928,0.0122,0.00488,0.01952,0.03416,-0.03172,-0.00976,-0.00976,0,-0.00488,0.00488,-0.00976
-0.0244,0.00976,0.00488,0.01708,0.02928,-0.02684,-0.00488,-0.00976,0,-0.00488,0,-0.00976
-0.0244,0.00732,0.00976,0.02196,0.03416,-0.02928,-0.00488,0,0,-0.00488,-0.00488,0
-0.0244,0.00488,0.01464,0.02684,0.03904,-0.03172,-0.00488,0,0,-0.00976,-0.00488,0
-0.02928,0.00732,0.01464,0.02928,0.04392,-0.0366,0.00488,0,0,0.00488,0.01464,0
-0.02928,0.00732,0.01464,0.02928,0.04392,-0.0366,0.00488,0,0,0.00488,0.01464,0
-0.01952,0.00732,0.00488,0.01464,0.0244,-0.02196,0.00488,0,0,0,0.01464,0
-0.01952,0.00488,0.00976,0.01952,0.02928,-0.0244,0.00488,0,0,0,0.01464,0
-0.01464,-0.00244,0.01952,0.02684,0.03416,-0.0244,0,0,-0.00976,-0.00976,0.00488,-0.01464
-0.01464,-0.00244,0.01952,0.02684,0.03416,-0.0244,0.00488,0,-0.00976,-0.00976,0.00488,-0.01464
-0.01464,0.00488,0.00488,0.0122,0.01952,-0.01708,0,-0.00976,-0.01952,-0.01952,0,-0.01464
-0.01464,0.00244,0.00976,0.01708,0.0244,-0.01952,0,-0.00976,-0.0244,-0.01952,0,-0.01464
-0.00488,-0.00244,0.00976,0.0122,0.01464,-0.00976,-0.01464,-0.00976,-0.0244,-0.00976,0,-0.01464
-0.00488,0,0.00488,0.00732,0.00976,-0.00732,-0.00976,-0.00976,-0.01464,-0.00976,-0.00488,-0.01464
-0.01952,0.00732,0.00488,0.01464,0.0244,-0.02196,-0.00976,-0.01952,-0.01952,-0.0244,-0.00488,-0.01952
-0.01952,0.00488,0.00976,0.01952,0.02928,-0.0244,-0.01464,-0.0244,-0.01952,-0.0244,-0.00488,-0.01952
-0.02928,0.0122,0.00488,0.01952,0.03416,-0.03172,-0.00488,-0.01464,-0.01952,-0.0244,-0.00488,-0.01952
-0.02928,0.0122,0.00488,0.01952,0.03416,-0.03172,-0.00488,-0.01464,-0.0244,-0.0244,-0.00976,-0.01952
-0.01952,0.0122,-0.00488,0.00488,0.01464,-0.01708,0.00976,-0.00488,-0.00976,-0.01464,0,-0.00976
-0.01952,0.0122,-0.00488,0.00488,0.01464,-0.01708,0.00976,-0.00488,-0.00976,-0.01464,0,-0.00976
-0.01952,0.00732,0.00488,0.01464,0.0244,-0.02196,0,-0.00488,-0.0244,-0.01952,-0.00488,-0.01952
-0.01952,0.00976,0,0.00976,0.01952,-0.01952,0,-0.01464,-0.0244,-0.01952,-0.00488,-0.01952
-0.01952,0.00976,0,0.00976,0.01952,-0.01952,0.00488,-0.00976,-0.01464,-0.01952,-0.00488,-0.01952
-0.01952,0.00976,0,0.00976,0.01952,-0.01952,0.00488,-0.01464,-0.01464,-0.01952,-0.00488,-0.01952
-0.01952,0.01464,-0.00976,0,0.00976,-0.01464,0.00488,-0.00488,-0.00488,-0.00976,0.00488,-0.01952
-0.01952,0.00976,0,0.00976,0.01952,-0.01952,0.00488,-0.00488,-0.00488,-0.00976,0.00488,-0.01952
-0.01952,0.00976,0,0.00976,0.01952,-0.01952,-0.00488,-0.01464,-0.01464,-0.00976,0.00976,-0.00976
-0.01952,0.00976,0,0.00976,0.01952,-0.01952,0,-0.01952,-0.01464,-0.00976,0.00488,-0.01464
-0.0244,0.0122,0,0.0122,0.0244,-0.0244,0,-0.01464,-0.0244,-0.01952,-0.00488,-0.01464
-0.0244,0.01464,-0.00488,0.00732,0.01952,-0.02196,0,-0.01464,-0.0244,-0.01952,-0.00488,-0.00976
-0.0244,0.01464,-0.00488,0.00732,0.01952,-0.02196,0,-0.01464,-0.0244,-0.01952,0.00488,-0.01952
-0.0244,0.01464,-0.00488,0.00732,0.01952,-0.02196,0,-0.01464,-0.0244,-0.01952,0.00488,-0.01952
-0.0244,0.01952,-0.01464,-0.00244,0.00976,-0.01708,0.00976,-0.01464,-0.0244,-0.01952,0,-0.01952
-0.0244,0.01952,-0.01464,-0.00244,0.00976,-0.01708,0.00976,-0.01464,-0.0244,-0.01952,0,-0.0244
-0.0244,0.0244,-0.0244,-0.0122,0,-0.0122,0.00976,-0.00488,-0.01464,-0.01952,0,-0.0244
-0.0244,0.0244,-0.0244,-0.0122,0,-0.0122,0.00976,-0.00488,-0.01464,-0.01952,-0.00488,-0.0244
-0.03416,0.0244,-0.01464,0.00244,0.01952,-0.02684,0.00488,-0.00488,-0.01952,-0.02928,-0.01464,-0.0244
-0.02928,0.01952,-0.00976,0.00488,0.01952,-0.0244,0.00488,-0.00976,-0.01952,-0.02928,-0.01464,-0.0244
-0.0244,0.0122,0,0.0122,0.0244,-0.0244,-0.00488,-0.00976,-0.00976,-0.01952,-0.00488,-0.0244
-0.0244,0.0122,0,0.0122,0.0244,-0.0244,-0.00488,-0.00976,-0.00976,-0.01952,0,-0.0244
-0.00976,0.00732,-0.00488,0,0.00488,-0.00732,-0.00488,-0.01464,-0.00976,-0.01952,0.00488,-0.01464
-0.00976,0.00732,-0.00488,0,0.00488,-0.00732,0,-0.01464,-0.01952,-0.01952,0.00488,-0.01464
-0.00976,0.00488,0,0.00488,0.00976,-0.00976,0,-0.02928,-0.02928,-0.01952,-0.00488,-0.01464
-0.00976,0.00488,0,0.00488,0.00976,-0.00976,0,-0.0244,-0.02928,-0.0244,-0.00488,-0.01464
-0.01952,0.00976,0,0.00976,0.01952,-0.01952,0.01952,-0.01464,-0.01952,-0.01464,0,-0.01464
-0.01952,0.00976,0,0.00976,0.01952,-0.01952,0.01952,-0.00976,-0.01952,-0.00976,0.00976,-0.01952
-0.02928,0.01952,-0.00976,0.00488,0.01952,-0.0244,0.00976,-0.00976,-0.01952,-0.00976,0,-0.01952
-0.02928,0.0244,-0.01952,-0.00488,0.00976,-0.01952,0.00976,-0.00976,-0.01952,-0.00976,0,-0.01952
-0.02928,0.02196,-0.01464,0,0.01464,-0.02196,0.00976,-0.00488,-0.01952,-0.00976,0.00976,-0.01952
-0.02928,0.01708,-0.00488,0.00976,0.0244,-0.02684,0.00976,-0.00488,-0.01464,-0.00976,0.00976,-0.01952
-0.0244,0.00976,0.00488,0.01708,0.02928,-0.02684,0,0,-0.01464,-0.00976,0.00976,-0.01952
-0.01464,0,0.01464,0.02196,0.02928,-0.02196,0,0,-0.01464,-0.00976,0.00976,-0.01952
-0.00488,0,0.00488,0.00732,0.00976,-0.00732,0,-0.00488,-0.01952,-0.01464,0.00976,-0.01464
0.00488,-0.00732,0.00976,0.00732,0.00488,0,0,0,-0.01464,-0.01464,0.00976,-0.00976
0.01952,-0.01464,0.00976,0,-0.00976,0.01464,0.00976,0,0.00488,0.00976,0.0244,0
0.02928,-0.02684,0.0244,0.00976,-0.00488,0.01708,0.00976,0.00488,0.01464,0.01952,0.03416,0.00488
0.0244,-0.03416,0.04392,0.03172,0.01952,0.00244,0.00488,0.00488,0.01464,0.02928,0.03904,0.00976
0.0244,-0.03416,0.04392,0.03172,0.01952,0.00244,-0.00976,0.00488,0.01952,0.02928,0.03904,0.00976
0.03416,-0.03904,0.04392,0.02684,0.00976,0.0122,-0.01464,0.00488,0.01952,0.0244,0.04392,0.00976
0.04392,-0.04636,0.0488,0.02684,0.00488,0.01952,-0.0244,0.00488,0.01952,0.02928,0.04392,0.01464
0.05368,-0.05612,0.05856,0.03172,0.00488,0.0244,-0.02928,0.00976,0.0244,0.02928,0.03904,0.02928
0.05856,-0.061,0.06344,0.03416,0.00488,0.02684,-0.03416,-0.00488,0.01952,0.02928,0.03904,0.02928
0.0488,-0.05368,0.05856,0.03416,0.00976,0.01952,-0.04392,-0.0244,0,0.01952,0.03904,0.0244
0.03904,-0.04392,0.0488,0.02928,0.00976,0.01464,-0.04392,-0.02928,-0.01464,0.00976,0.03416,0.01952
0.03904,-0.04392,0.0488,0.02928,0.00976,0.01464,-0.05368,-0.04392,-0.0244,0,0.0244,0.00976
0.03904,-0.04392,0.0488,0.02928,0.00976,0.01464,-0.05368,-0.04392,-0.02928,-0.00488,0.0244,0.01464
0.03416,-0.0366,0.03904,0.02196,0.00488,0.01464,-0.04392,-0.03904,-0.0244,-0.00488,0.01464,0.00488
0.04392,-0.03904,0.03416,0.0122,-0.00976,0.02684,-0.04392,-0.03416,-0.0244,-0.00488,0.01464,0.00488
0.03416,-0.02684,0.01952,0.00244,-0.01464,0.0244,-0.03416,-0.01952,-0.01464,0.00488,0.0244,0.01464
0.03416,-0.0244,0.01464,-0.00244,-0.01952,0.02684,-0.01952,-0.01952,-0.01952,0.00488,0.01952,0.01464
0.02928,-0.01708,0.00488,-0.00976,-0.0244,0.02684,-0.01952,-0.01952,-0.01952,0.00488,0.0244,0.01464
0.01952,-0.00732,-0.00488,-0.01464,-0.0244,0.02196,-0.00488,-0.01952,-0.01464,0,0.01952,0.00976
-0.00488,0.0122,-0.01952,-0.01708,-0.01464,0.00488,-0.00488,-0.01464,-0.0244,0,0.00488,0
-0.01952,0.0244,-0.02928,-0.01952,-0.00976,-0.00488,0.00488,-0.01464,-0.01952,0,0.00488,-0.00488
-0.01952,0.0244,-0.02928,-0.01952,-0.00976,-0.00488,0.00488,-0.01952,-0.01952,-0.01464,-0.00488,-0.0244
-0.0244,0.0244,-0.0244,-0.0122,0,-0.0122,0.00488,-0.01464,-0.0244,-0.01464,-0.00488,-0.0244
-0.0244,0.01952,-0.01464,-0.00244,0.00976,-0.01708,0.00488,-0.01464,-0.03416,-0.0244,-0.00976,-0.0244
-0.0244,0.01952,-0.01464,-0.00244,0.00976,-0.01708,0.00488,-0.01952,-0.02928,-0.0244,-0.00976,-0.02928
-0.0244,0.01464,-0.00488,0.00732,0.01952,-0.02196,0.00488,-0.01952,-0.02928,-0.01464,0,-0.02928
-0.0244,0.01464,-0.00488,0.00732,0.01952,-0.02196,0.00488,-0.01464,-0.02928,-0.01464,0,-0.02928
-0.0244,0.01952,-0.01464,-0.00244,0.00976,-0.01708,0.01952,-0.01464,-0.0244,-0.01952,0,-0.01464
-0.02928,0.02684,-0.0244,-0.00976,0.00488,-0.01708,0.01952,-0.01952,-0.0244,-0.01952,0,-0.01464
-0.02928,0.02928,-0.02928,-0.01464,0,-0.01464,0.01952,-0.00976,-0.0244,-0.01952,0.00488,-0.00976
-0.02928,0.02928,-0.02928,-0.01464,0,-0.01464,0.01464,0,-0.0244,-0.01952,0.00488,-0.00976
-0.01952,0.01708,-0.01464,-0.00488,0.00488,-0.0122,0.01464,-0.00488,-0.01464,-0.01952,0,-0.01952
-0.01952,0.01708,-0.01464,-0.00488,0.00488,-0.0122,0.01952,-0.00488,-0.00976,-0.01952,0,-0.01464
-0.0244,0.0244,-0.0244,-0.0122,0,-0.0122,0.00976,0.00488,-0.00976,-0.01464,-0.00488,-0.01464
-0.02928,0.0366,-0.04392,-0.02928,-0.01464,-0.00732,0.01952,0.01464,-0.01952,-0.01952,-0.01464,-0.0244
-0.01952,0.05124,-0.08296,-0.0732,-0.06344,0.02196,0.03904,0.03904,-0.0244,-0.05368,-0.0488,-0.0488
-0.0244,0.0732,-0.122,-0.1098,-0.0976,0.0366,0.08296,0.08784,-0.02928,-0.09272,-0.09272,-0.08784
-0.0244,0.08052,-0.13664,-0.12444,-0.11224,0.04392,0.11712,0.15128,-0.01464,-0.122,-0.122,-0.11712
0.01952,0.04636,-0.11224,-0.122,-0.13176,0.07564,0.12688,0.19032,0.06344,-0.07808,-0.08784,-0.0976
0.10248,-0.05856,0.01464,-0.0366,-0.08784,0.09516,0.08296,0.21472,0.20008,0.08296,0.06344,0.0244
0.25376,-0.25864,0.26352,0.13664,0.00976,0.122,-0.05368,0.18056,0.41968,0.4148,0.38064,0.30744
0.4636,-0.55144,0.63928,0.40748,0.17568,0.14396,-0.27328,0.05856,0.66856,0.8784,0.854,0.7076
0.67344,-0.86132,1.0492,0.71248,0.37576,0.14884,-0.54656,-0.13176,0.88816,1.37616,1.3664,1.16144
0.79544,-1.1102,1.42496,1.02724,0.62952,0.08296,-0.8052,-0.36112,1.05408,1.84952,1.84952,1.59576
0.83936,-1.27612,1.71288,1.2932,0.87352,-0.01708,-1.00528,-0.5856,1.15656,2.22528,2.22528,1.92272
0.79056,-1.29076,1.79096,1.39568,1.0004,-0.10492,-1.08824,-0.72224,1.1712,2.38632,2.38632,2.0496
0.67344,-1.1468,1.62016,1.28344,0.94672,-0.13664,-1.03456,-0.74176,0.98088,2.16184,2.18624,1.89344
0.51728,-0.89548,1.27368,1.01504,0.7564,-0.11956,-0.8784,-0.68808,0.58072,1.586,1.67872,1.50304
0.35624,-0.59536,0.83448,0.65636,0.47824,-0.061,-0.66856,-0.59048,0.10736,0.85888,1.02968,0.99552
0.20008,-0.32696,0.45384,0.3538,0.25376,-0.02684,-0.4636,-0.47824,-0.25864,0.23912,0.44896,0.53192
0.09272,-0.16592,0.23912,0.19276,0.1464,-0.02684,-0.30256,-0.35624,-0.38064,-0.06832,0.11712,0.23912
0.04392,-0.08784,0.13176,0.1098,0.08784,-0.02196,-0.18544,-0.22448,-0.33672,-0.13176,-0.00976,0.09272
0.01464,-0.04148,0.06832,0.061,0.05368,-0.01952,-0.09272,-0.11712,-0.23424,-0.13176,-0.05368,0.01464
0,-0.02196,0.04392,0.04392,0.04392,-0.02196,-0.04392,-0.06344,-0.1708,-0.11224,-0.05856,-0.01464
-0.01952,-0.00244,0.0244,0.03416,0.04392,-0.03172,-0.01952,-0.03904,-0.13176,-0.0976,-0.05856,-0.02928
-0.0244,0.00732,0.00976,0.02196,0.03416,-0.02928,0.00976,-0.01464,-0.08784,-0.0732,-0.0488,-0.02928
-0.0244,0.0122,0,0.0122,0.0244,-0.0244,0.0244,0.00488,-0.05368,-0.05368,-0.03904,-0.02928
-0.01952,0.01952,-0.01952,-0.00976,0,-0.00976,0.0244,0.01464,-0.02928,-0.0488,-0.03904,-0.02928
-0.01952,0.0244,-0.02928,-0.01952,-0.00976,-0.00488,0.03416,0.0244,-0.0244,-0.0488,-0.03416,-0.03416
-0.0244,0.02684,-0.02928,-0.01708,-0.00488,-0.00976,0.03904,0.02928,-0.01464,-0.03904,-0.03904,-0.03904
-0.0244,0.02684,-0.02928,-0.01708,-0.00488,-0.00976,0.03904,0.02928,-0.01464,-0.03904,-0.03904,-0.03904
-0.03416,0.0366,-0.03904,-0.02196,-0.00488,-0.01464,0.04392,0.03416,0.00488,-0.03904,-0.03904,-0.03904
-0.03416,0.03904,-0.04392,-0.02684,-0.00976,-0.0122,0.04392,0.03416,0.00488,-0.03904,-0.03904,-0.03904
-0.03416,0.03904,-0.04392,-0.02684,-0.00976,-0.0122,0.03416,0.03904,0,-0.0488,-0.03904,-0.03904
-0.03416,0.03904,-0.04392,-0.02684,-0.00976,-0.0122,0.03416,0.03904,0.00488,-0.04392,-0.03904,-0.04392
-0.04392,0.04392,-0.04392,-0.02196,0,-0.02196,0.04392,0.03904,0.00488,-0.03416,-0.02928,-0.04392
-0.03904,0.04148,-0.04392,-0.0244,-0.00488,-0.01708,0.04392,0.04392,0.00976,-0.02928,-0.0244,-0.03904
-0.03904,0.04636,-0.05368,-0.03416,-0.01464,-0.0122,0.05856,0.04392,0.0244,-0.02928,-0.02928,-0.03904
-0.03904,0.04636,-0.05368,-0.03416,-0.01464,-0.0122,0.05856,0.0488,0.0244,-0.02928,-0.02928,-0.03904
-0.03904,0.04636,-0.05368,-0.03416,-0.01464,-0.0122,0.0488,0.0488,0.01952,-0.0244,-0.02928,-0.02928
-0.03904,0.04636,-0.05368,-0.03416,-0.01464,-0.0122,0.05368,0.05368,0.01952,-0.01952,-0.02928,-0.02928
-0.0244,0.03172,-0.03904,-0.02684,-0.01464,-0.00488,0.04392,0.05368,0.01952,-0.0244,-0.01952,-0.02928
