i,aVR,ii,aVF,iii,aVL,V1,V2,V3,V4,V5,V6
-0.02928,0.02928,-0.02928,-0.01464,0,-0.01464,0.0244,0,-0.01952,-0.01952,-0.01464,0.03904
-0.03416,0.04148,-0.0488,-0.03172,-0.01464,-0.00976,0.0244,0,-0.02928,-0.02928,-0.0244,0.0244
-0.03904,0.05124,-0.06344,-0.04392,-0.0244,-0.00732,0.0244,0,-0.04392,-0.0244,-0.02928,0.01464
-0.03904,0.05612,-0.0732,-0.05368,-0.03416,-0.00244,0.02928,0,-0.04392,-0.01464,-0.03416,0.01464
-0.03416,0.05368,-0.0732,-0.05612,-0.03904,0.00244,0.02928,0.00976,-0.04392,-0.00488,-0.03416,0.00976
-0.03416,0.05612,-0.07808,-0.061,-0.04392,0.00488,0.03416,0.00976,-0.04392,0.00488,-0.03904,0.00976
-0.03416,0.05124,-0.06832,-0.05124,-0.03416,0,0.03416,0.01952,-0.0488,0.00488,-0.0488,0
-0.02928,0.05124,-0.0732,-0.05856,-0.04392,0.00732,0.03416,0.01952,-0.04392,0.00488,-0.04392,0
-0.0244,0.0488,-0.0732,-0.061,-0.0488,0.0122,0.03416,0.01464,-0.04392,0,-0.04392,0.00976
-0.0244,0.0488,-0.0732,-0.061,-0.0488,0.0122,0.03416,0.01464,-0.04392,-0.00976,-0.04392,0.00976
-0.02928,0.05124,-0.0732,-0.05856,-0.04392,0.00732,0.03904,0.01464,-0.03904,-0.02928,-0.04392,0.00488
-0.03416,0.061,-0.08784,-0.07076,-0.05368,0.00976,0.05368,0.01952,-0.03416,-0.03416,-0.03904,0.00488
-0.05368,0.0732,-0.09272,-0.06588,-0.03904,-0.00732,0.07808,0.03904,0.00976,-0.01464,-0.0488,-0.01952
-0.05856,0.07564,-0.09272,-0.06344,-0.03416,-0.0122,0.0976,0.07808,0.0732,0.02928,-0.03904,-0.0244
-0.0488,0.05856,-0.06832,-0.04392,-0.01952,-0.01464,0.11712,0.11712,0.15616,0.13664,0.0244,0
0.0244,-0.02196,0.01952,0.00732,-0.00488,0.01464,0.08784,0.15616,0.25376,0.28792,0.15128,0.06344
0.12688,-0.1464,0.16592,0.10248,0.03904,0.04392,0,0.18056,0.2928,0.47336,0.35624,0.16592
0.25376,-0.32208,0.3904,0.26352,0.13664,0.05856,-0.16592,0.13176,0.25864,0.67344,0.6344,0.33672
0.40016,-0.53436,0.66856,0.46848,0.2684,0.06588,-0.366,0.04392,0.16592,0.83448,0.93696,0.52216
0.52704,-0.72712,0.9272,0.66368,0.40016,0.06344,-0.59048,-0.09272,0.01464,0.93208,1.21512,0.71736
0.62952,-0.8784,1.12728,0.81252,0.49776,0.06588,-0.7808,-0.244,-0.18544,0.91256,1.37128,0.854
0.65392,-0.91988,1.18584,0.85888,0.53192,0.061,-0.8784,-0.36112,-0.37088,0.7808,1.37128,0.9028
0.57584,-0.8296,1.08336,0.79544,0.50752,0.03416,-0.87352,-0.45872,-0.54656,0.54168,1.17608,0.84424
0.4392,-0.64904,0.85888,0.63928,0.41968,0.00976,-0.75152,-0.49776,-0.64416,0.2684,0.85888,0.69784
0.27328,-0.43188,0.59048,0.45384,0.3172,-0.02196,-0.57584,-0.4636,-0.66856,0.01464,0.50264,0.49288
0.11224,-0.22448,0.33672,0.2806,0.22448,-0.05612,-0.38552,-0.37088,-0.59536,-0.15616,0.2196,0.29768
0.0244,-0.0976,0.1708,0.1586,0.1464,-0.061,-0.244,-0.27328,-0.49288,-0.22936,0.04392,0.15616
-0.01952,-0.02196,0.06344,0.0732,0.08296,-0.05124,-0.13664,-0.17568,-0.36112,-0.2196,-0.05368,0.06344
-0.0244,0.0122,0,0.0122,0.0244,-0.0244,-0.06832,-0.09272,-0.23424,-0.12688,-0.05856,0.03416
-0.0244,0.03172,-0.03904,-0.02684,-0.01464,-0.00488,-0.0244,-0.0488,-0.1464,-0.06344,-0.05368,0.01464
-0.0244,0.0488,-0.0732,-0.061,-0.0488,0.0122,0.00976,0.00488,-0.08784,-0.03416,-0.06344,0
-0.03416,0.06588,-0.0976,-0.08052,-0.06344,0.01464,0.02928,0.02928,-0.05856,-0.01952,-0.06832,-0.01952
-0.0244,0.06832,-0.11224,-0.10004,-0.08784,0.03172,0.04392,0.03904,-0.0488,-0.01952,-0.08296,-0.02928
-0.02928,0.0732,-0.11712,-0.10248,-0.08784,0.02928,0.05368,0.0488,-0.04392,-0.01952,-0.08296,-0.03416
-0.02928,0.07808,-0.12688,-0.11224,-0.0976,0.03416,0.05856,0.05368,-0.03416,-0.0244,-0.08296,-0.03416
-0.02928,0.07808,-0.12688,-0.11224,-0.0976,0.03416,0.05856,0.05368,-0.0244,-0.03416,-0.08784,-0.03416
-0.03904,0.08296,-0.12688,-0.10736,-0.08784,0.0244,0.06344,0.0488,-0.01464,-0.03904,-0.08296,-0.03904
-0.03904,0.08296,-0.12688,-0.10736,-0.08784,0.0244,0.06344,0.05368,-0.00488,-0.03904,-0.07808,-0.03904
-0.03416,0.08052,-0.12688,-0.1098,-0.09272,0.02928,0.06344,0.05856,0,-0.01952,-0.0732,-0.03904
-0.03416,0.07808,-0.122,-0.10492,-0.08784,0.02684,0.06344,0.05856,0.00976,-0.01464,-0.06832,-0.03904
-0.03416,0.07808,-0.122,-0.10492,-0.08784,0.02684,0.06344,0.06832,0.01952,0.00488,-0.06832,-0.03904
-0.03416,0.07564,-0.11712,-0.10004,-0.08296,0.0244,0.06344,0.06832,0.0244,0.01464,-0.06344,-0.03416
-0.0244,0.06588,-0.10736,-0.09516,-0.08296,0.02928,0.06344,0.06832,0.0244,0.01952,-0.0732,-0.04392
-0.0244,0.06588,-0.10736,-0.09516,-0.08296,0.02928,0.06344,0.0732,0.02928,0.02928,-0.06832,-0.04392
-0.0244,0.06344,-0.10248,-0.09028,-0.07808,0.02684,0.05368,0.07808,0.02928,0.01952,-0.06832,-0.04392
-0.02928,0.06588,-0.10248,-0.08784,-0.0732,0.02196,0.05368,0.08296,0.0244,0.01952,-0.06832,-0.04392
-0.01952,0.061,-0.10248,-0.09272,-0.08296,0.03172,0.05856,0.07808,0.03904,0.00976,-0.06344,-0.03904
-0.01952,0.05856,-0.0976,-0.08784,-0.07808,0.02928,0.05856,0.07808,0.03416,0.00976,-0.06344,-0.03904
-0.02928,0.06588,-0.10248,-0.08784,-0.0732,0.02196,0.05368,0.07808,0.03416,0.00488,-0.05368,-0.03416
-0.0244,0.06344,-0.10248,-0.09028,-0.07808,0.02684,0.05368,0.0732,0.03904,0.00488,-0.05368,-0.02928
-0.0244,0.061,-0.0976,-0.0854,-0.0732,0.0244,0.05368,0.0732,0.04392,0.01464,-0.05368,-0.02928
-0.01952,0.05856,-0.0976,-0.08784,-0.07808,0.02928,0.0488,0.06832,0.04392,0.01952,-0.0488,-0.02928
-0.02928,0.05856,-0.08784,-0.0732,-0.05856,0.01464,0.04392,0.07808,0.05368,0.03904,-0.0488,-0.0244
-0.02928,0.05856,-0.08784,-0.0732,-0.05856,0.01464,0.04392,0.07808,0.05368,0.0488,-0.03904,-0.0244
-0.0244,0.05368,-0.08296,-0.07076,-0.05856,0.01708,0.04392,0.08296,0.05856,0.05856,-0.03904,-0.0244
-0.0244,0.05124,-0.07808,-0.06588,-0.05368,0.01464,0.03904,0.08296,0.06344,0.06344,-0.03904,-0.0244
-0.00976,0.04392,-0.07808,-0.0732,-0.06832,0.02928,0.03904,0.08784,0.06344,0.06832,-0.03416,-0.02928
-0.00976,0.04148,-0.0732,-0.06832,-0.06344,0.02684,0.03904,0.08784,0.06832,0.0732,-0.02928,-0.0244
-0.00488,0.0366,-0.06832,-0.06588,-0.06344,0.02928,0.02928,0.08784,0.07808,0.05856,-0.03904,-0.0244
-0.00976,0.03904,-0.06832,-0.06344,-0.05856,0.0244,0.02928,0.09272,0.08296,0.06344,-0.03416,-0.01464
0,0.03172,-0.06344,-0.06344,-0.06344,0.03172,0.02928,0.08784,0.08784,0.0732,-0.01952,0
0.00488,0.02684,-0.05856,-0.061,-0.06344,0.03416,0.0244,0.08784,0.0976,0.06344,-0.01464,0
0.00488,0.01708,-0.03904,-0.04148,-0.04392,0.0244,0.03416,0.08784,0.10736,0.06832,-0.00488,0.00976
0.00488,0.0122,-0.02928,-0.03172,-0.03416,0.01952,0.02928,0.08784,0.11712,0.08296,0.00488,0.01464
0.00976,0.00488,-0.01952,-0.0244,-0.02928,0.01952,0.02928,0.09272,0.13664,0.10736,0.01952,0.01464
0.00976,0,-0.00976,-0.01464,-0.01952,0.01464,0.01464,0.09272,0.14152,0.12688,0.02928,0.0244
0.03416,-0.02196,0.00976,-0.00732,-0.0244,0.02928,0.00976,0.10736,0.15128,0.15128,0.02928,0.02928
0.03416,-0.02928,0.0244,0.00732,-0.00976,0.02196,0.00976,0.11712,0.16592,0.1708,0.03904,0.03904
0.0488,-0.04148,0.03416,0.00976,-0.01464,0.03172,0.00976,0.12688,0.18544,0.1952,0.05856,0.03904
0.05368,-0.0488,0.04392,0.01708,-0.00976,0.03172,0,0.14152,0.20496,0.21472,0.07808,0.0488
0.05856,-0.05856,0.05856,0.02928,0,0.02928,-0.00976,0.14152,0.22448,0.22936,0.08784,0.05368
0.0732,-0.07808,0.08296,0.04636,0.00976,0.03172,-0.01952,0.1464,0.24888,0.244,0.10736,0.06832
0.08296,-0.09516,0.10736,0.06588,0.0244,0.02928,-0.02928,0.15128,0.2684,0.25376,0.122,0.07808
0.09272,-0.1098,0.12688,0.08052,0.03416,0.02928,-0.03416,0.15128,0.2928,0.27328,0.14152,0.0976
0.09272,-0.11712,0.14152,0.09516,0.0488,0.02196,-0.04392,0.15616,0.31232,0.30256,0.18056,0.11712
0.10248,-0.13908,0.17568,0.12444,0.0732,0.01464,-0.05368,0.15616,0.33672,0.33184,0.20984,0.12688
0.11712,-0.16104,0.20496,0.1464,0.08784,0.01464,-0.06832,0.15616,0.35136,0.35624,0.244,0.1464
0.122,-0.17812,0.23424,0.17324,0.11224,0.00488,-0.07808,0.15616,0.37088,0.3904,0.26352,0.16104
0.14152,-0.20252,0.26352,0.19276,0.122,0.00976,-0.07808,0.16592,0.37576,0.41968,0.28792,0.1708
0.1464,-0.21472,0.28304,0.20984,0.13664,0.00488,-0.09272,0.16104,0.3904,0.44896,0.31232,0.18544
0.15128,-0.22204,0.2928,0.21716,0.14152,0.00488,-0.10248,0.1708,0.40016,0.47336,0.32208,0.20008
0.16592,-0.23912,0.31232,0.22936,0.1464,0.00976,-0.10736,0.1708,0.40504,0.48312,0.33184,0.20496
0.16592,-0.24644,0.32696,0.244,0.16104,0.00244,-0.11224,0.1708,0.40992,0.488,0.33672,0.21472
0.1708,-0.25376,0.33672,0.25132,0.16592,0.00244,-0.11224,0.17568,0.4148,0.49288,0.35136,0.22448
0.17568,-0.26596,0.35624,0.2684,0.18056,-0.00244,-0.11712,0.1708,0.4148,0.48312,0.366,0.23424
0.17568,-0.26596,0.35624,0.2684,0.18056,-0.00244,-0.11712,0.16104,0.40992,0.47824,0.366,0.23424
0.16592,-0.2562,0.34648,0.26352,0.18056,-0.00732,-0.12688,0.15128,0.40016,0.45872,0.366,0.23424
0.16592,-0.2562,0.34648,0.26352,0.18056,-0.00732,-0.12688,0.13664,0.38064,0.44896,0.35136,0.22448
0.15616,-0.25132,0.34648,0.2684,0.19032,-0.01708,-0.11712,0.12688,0.35624,0.43432,0.3416,0.2196
0.1464,-0.23668,0.32696,0.25376,0.18056,-0.01708,-0.11224,0.122,0.33672,0.4148,0.32208,0.20496
0.13664,-0.22692,0.3172,0.24888,0.18056,-0.02196,-0.10248,0.122,0.3172,0.38552,0.30256,0.1952
0.122,-0.20496,0.28792,0.22692,0.16592,-0.02196,-0.0976,0.11712,0.28792,0.36112,0.27816,0.1708
0.10736,-0.18056,0.25376,0.20008,0.1464,-0.01952,-0.08784,0.0976,0.24888,0.33672,0.244,0.15128
0.08784,-0.15616,0.22448,0.18056,0.13664,-0.0244,-0.07808,0.09272,0.2196,0.30256,0.20496,0.13176
0.0732,-0.1342,0.1952,0.1586,0.122,-0.0244,-0.06832,0.08296,0.19032,0.25376,0.17568,0.11224
0.06832,-0.11468,0.16104,0.12688,0.09272,-0.0122,-0.05856,0.07808,0.16104,0.2196,0.14152,0.09272
0.06344,-0.0976,0.13176,0.10004,0.06832,-0.00244,-0.05368,0.0732,0.13176,0.18056,0.11224,0.07808
0.0488,-0.07808,0.10736,0.08296,0.05856,-0.00488,-0.04392,0.06344,0.11224,0.13176,0.08296,0.05856
0.04392,-0.06832,0.09272,0.07076,0.0488,-0.00244,-0.03416,0.06344,0.08296,0.09272,0.06832,0.05368
0.03416,-0.05124,0.06832,0.05124,0.03416,0,-0.02928,0.05368,0.06832,0.0732,0.0488,0.04392
0.02928,-0.04392,0.05856,0.04392,0.02928,0,-0.02928,0.04392,0.06832,0.0488,0.03904,0.03416
0.0244,-0.03416,0.04392,0.03172,0.01952,0.00244,-0.0244,0.03904,0.04392,0.03416,0.0244,0.02928
0.01952,-0.0244,0.02928,0.01952,0.00976,0.00488,-0.01952,0.04392,0.03904,0.02928,0.0244,0.01464
0.01952,-0.02196,0.0244,0.01464,0.00488,0.00732,-0.01952,0.04392,0.02928,0.02928,0.01952,0.00976
0.01464,-0.0122,0.00976,0.00244,-0.00488,0.00976,-0.01464,0.04392,0.0244,0.03416,0.00488,0.00488
0.00976,-0.00488,0,-0.00488,-0.00976,0.00976,-0.01464,0.0488,0.01464,0.02928,0,-0.00488
0.01464,0,-0.01464,-0.02196,-0.02928,0.02196,-0.01952,0.05368,0.00488,0.01464,-0.01952,-0.01952
0.00976,0.00488,-0.01952,-0.0244,-0.02928,0.01952,-0.01952,0.0488,0.00488,0.00488,-0.01952,-0.01952
0.00976,0.00732,-0.0244,-0.02928,-0.03416,0.02196,-0.01464,0.0488,0,0,-0.02928,-0.01952
0.00976,0.00732,-0.0244,-0.02928,-0.03416,0.02196,-0.01464,0.0488,0,-0.01464,-0.03416,-0.01952
0.00488,0.00976,-0.0244,-0.02684,-0.02928,0.01708,0,0.04392,0,-0.03416,-0.0244,-0.0244
0.00488,0.0122,-0.02928,-0.03172,-0.03416,0.01952,0,0.03904,0.00488,-0.03904,-0.0244,-0.0244
0.00488,0.0122,-0.02928,-0.03172,-0.03416,0.01952,0,0.0488,0.00488,-0.03904,-0.0244,-0.01464
0.00488,0.0122,-0.02928,-0.03172,-0.03416,0.01952,0,0.0488,0.00488,-0.03904,-0.0244,-0.01464
-0.00488,0.0122,-0.01952,-0.01708,-0.01464,0.00488,0.00488,0.0488,0.00488,-0.03416,-0.0244,-0.01464
-0.00488,0.0122,-0.01952,-0.01708,-0.01464,0.00488,0.00488,0.0488,0.00488,-0.01952,-0.02928,-0.01464
0.00488,0.0122,-0.02928,-0.03172,-0.03416,0.01952,0.00488,0.03904,0.00488,0,-0.0244,-0.01464
0.00488,0.00976,-0.0244,-0.02684,-0.02928,0.01708,0.00488,0.03904,0.00976,0.00488,-0.0244,-0.01464
0.00976,0.00732,-0.0244,-0.02928,-0.03416,0.02196,0,0.0488,0.00976,0.00488,-0.03416,-0.0244
0.00976,0.00732,-0.0244,-0.02928,-0.03416,0.02196,0,0.0488,0.01464,0.00976,-0.02928,-0.0244
0,0.0122,-0.0244,-0.0244,-0.0244,0.0122,-0.00976,0.0488,0.01464,0.00488,-0.03904,-0.0244
0.00488,0.00488,-0.01464,-0.01708,-0.01952,0.0122,-0.00976,0.0488,0.01464,-0.00488,-0.03416,-0.01952
0,0.00488,-0.00976,-0.00976,-0.00976,0.00488,-0.01952,0.04392,0.01464,-0.01464,-0.02928,-0.0244
0,0.00488,-0.00976,-0.00976,-0.00976,0.00488,-0.01464,0.04392,0.01464,-0.0244,-0.02928,-0.0244
0,0,0,0,0,0,-0.00976,0.03904,0.0244,-0.02928,-0.0244,-0.01464
0,-0.00244,0.00488,0.00488,0.00488,-0.00244,-0.00976,0.03904,0.0244,-0.0244,-0.0244,-0.00976
0,-0.00488,0.00976,0.00976,0.00976,-0.00488,-0.00976,0.03416,0.0244,-0.01464,-0.00976,-0.00976
-0.00488,-0.00488,0.01464,0.01708,0.01952,-0.0122,-0.01464,0.03416,0.0244,-0.00976,-0.00976,-0.00976
0.00488,-0.00976,0.01464,0.0122,0.00976,-0.00244,-0.01464,0.03904,0.01464,0.00488,-0.00488,-0.01952
0.00488,-0.00976,0.01464,0.0122,0.00976,-0.00244,-0.01952,0.03904,0.01952,0.01464,-0.00488,-0.01464
0.00488,-0.00732,0.00976,0.00732,0.00488,0,-0.01952,0.03904,0.01952,0.01952,0,-0.01464
0.00488,-0.00732,0.00976,0.00732,0.00488,0,-0.01952,0.04392,0.01952,0.01952,-0.00488,-0.01464
0.00488,-0.00732,0.00976,0.00732,0.00488,0,-0.01952,0.0488,0.01952,0.00976,-0.00488,-0.00488
0.00488,-0.00732,0.00976,0.00732,0.00488,0,-0.01952,0.0488,0.01952,0.00488,-0.00488,-0.00976
0.00488,-0.00732,0.00976,0.00732,0.00488,0,-0.01952,0.03904,0.01952,0,-0.01952,0
0.00488,-0.00488,0.00488,0.00244,0,0.00244,-0.01464,0.03904,0.01952,-0.01464,-0.01952,0
0.00488,-0.00488,0.00488,0.00244,0,0.00244,-0.01464,0.02928,0.0244,-0.02928,-0.01952,0
0.00488,-0.00244,0,-0.00244,-0.00488,0.00488,-0.01464,0.02928,0.0244,-0.02928,-0.01952,0
-0.00488,0.00244,0,0.00244,0.00488,-0.00488,-0.0244,0.02928,0.01464,-0.0244,-0.00976,-0.00976
-0.00488,0.00244,0,0.00244,0.00488,-0.00488,-0.0244,0.02928,0.00976,-0.01952,-0.00976,-0.00976
-0.00488,-0.00244,0.00976,0.0122,0.01464,-0.00976,-0.01464,0.0244,0.00976,-0.00976,-0.00976,-0.00976
-0.00488,0,0.00488,0.00732,0.00976,-0.00732,-0.01464,0.0244,0.00488,-0.00976,-0.00976,-0.01464
0.00488,-0.00488,0.00488,0.00244,0,0.00244,-0.01952,0.03416,0,-0.00488,-0.0244,-0.01464
0.00976,-0.00488,0,-0.00488,-0.00976,0.00976,-0.01952,0.03416,0,-0.00488,-0.0244,-0.01464
0.00976,0,-0.00976,-0.01464,-0.01952,0.01464,-0.01464,0.03416,0,-0.01952,-0.02928,-0.0244
0.00976,0,-0.00976,-0.01464,-0.01952,0.01464,-0.01464,0.03416,-0.00488,-0.01952,-0.02928,-0.0244
0.01952,-0.00732,-0.00488,-0.01464,-0.0244,0.02196,-0.00976,0.0244,-0.00488,-0.03416,-0.02928,-0.0244
0.01952,-0.00732,-0.00488,-0.01464,-0.0244,0.02196,-0.00488,0.0244,-0.00488,-0.04392,-0.02928,-0.0244
0.00976,-0.00244,-0.00488,-0.00976,-0.01464,0.0122,-0.00488,0.01464,-0.00488,-0.0488,-0.02928,-0.0244
0.00976,-0.00244,-0.00488,-0.00976,-0.01464,0.0122,-0.00488,0.01952,-0.00976,-0.0488,-0.03904,-0.0244
0.00976,0,-0.00976,-0.01464,-0.01952,0.01464,-0.01464,0.01952,0,-0.05368,-0.03904,-0.01952
0.00976,0,-0.00976,-0.01464,-0.01952,0.01464,-0.01464,0.01952,0,-0.05368,-0.02928,-0.01952
0.00488,0.00244,-0.00976,-0.0122,-0.01464,0.00976,-0.00976,0.0244,-0.00488,-0.05368,-0.0244,-0.01952
0,0.00488,-0.00976,-0.00976,-0.00976,0.00488,-0.00976,0.0244,-0.00488,-0.03904,-0.01952,-0.01952
0.00488,0.00244,-0.00976,-0.0122,-0.01464,0.00976,-0.00976,0.0244,-0.01464,-0.01952,-0.01464,-0.01952
0.00976,0.00488,-0.01952,-0.0244,-0.02928,0.01952,-0.00976,0.01952,-0.00976,-0.01952,-0.01952,-0.02928
0.00976,0.00976,-0.02928,-0.03416,-0.03904,0.0244,-0.01952,0.01952,-0.01952,-0.02928,-0.02928,-0.02928
0.00976,0.00976,-0.02928,-0.03416,-0.03904,0.0244,-0.01952,0.01952,-0.01952,-0.02928,-0.02928,-0.02928
0,0.01464,-0.02928,-0.02928,-0.02928,0.01464,-0.01464,0.01952,-0.01952,-0.03904,-0.02928,-0.02928
0,0.01464,-0.02928,-0.02928,-0.02928,0.01464,-0.01464,0.01952,-0.01952,-0.03904,-0.03416,-0.02928
0.00976,0.00488,-0.01952,-0.0244,-0.02928,0.01952,-0.00488,0.00976,-0.01952,-0.05368,-0.03416,-0.02928
0.00976,0.00488,-0.01952,-0.0244,-0.02928,0.01952,-0.00488,0.00488,-0.01952,-0.06344,-0.02928,-0.0244
0,0.01464,-0.02928,-0.02928,-0.02928,0.01464,-0.00488,0,-0.01952,-0.06344,-0.02928,-0.0244
0,0.0122,-0.0244,-0.0244,-0.0244,0.0122,0,0,-0.01952,-0.06344,-0.02928,-0.0244
0.00488,0,-0.00488,-0.00732,-0.00976,0.00732,-0.01464,0,-0.00488,-0.0488,-0.01952,-0.0244
0.00976,-0.00732,0.00488,0,-0.00488,0.00732,-0.01464,0,0,-0.03904,-0.01464,-0.0244
0.01464,-0.01708,0.01952,0.0122,0.00488,0.00488,-0.01464,0.00488,0.00976,-0.01952,0.00488,-0.01464
0.01464,-0.02684,0.03904,0.03172,0.0244,-0.00488,-0.02928,0.00488,0.01464,0,0.01464,-0.00976
0.01464,-0.03172,0.0488,0.04148,0.03416,-0.00976,-0.0244,0.00976,0.01952,0.01952,0.00976,0
0.01952,-0.04148,0.06344,0.05368,0.04392,-0.0122,-0.02928,0.00488,0.0244,0.01952,0.01952,0
0.01952,-0.04636,0.0732,0.06344,0.05368,-0.01708,-0.03904,0.00488,0.0244,0.01464,0.01952,0.00488
0.02928,-0.05856,0.08784,0.0732,0.05856,-0.01464,-0.0488,0,0.02928,0.01464,0.02928,0.00976
0.02928,-0.06344,0.0976,0.08296,0.06832,-0.01952,-0.04392,-0.01464,0.02928,0.00976,0.03416,0.01952
0.03416,-0.07076,0.10736,0.09028,0.0732,-0.01952,-0.05368,-0.0244,0.03416,0.00976,0.03904,0.0244
0.02928,-0.07076,0.11224,0.0976,0.08296,-0.02684,-0.06344,-0.0244,0.03416,0.01952,0.0488,0.02928
0.02928,-0.07564,0.122,0.10736,0.09272,-0.03172,-0.06832,-0.0244,0.03416,0.01952,0.05368,0.02928
0.03904,-0.0854,0.13176,0.11224,0.09272,-0.02684,-0.06832,-0.01464,0.03416,0.03416,0.06344,0.04392
0.0488,-0.09272,0.13664,0.11224,0.08784,-0.01952,-0.06832,-0.01464,0.03416,0.03416,0.06832,0.0488
0.06832,-0.10736,0.1464,0.11224,0.07808,-0.00488,-0.07808,0,0.0244,0.03904,0.06832,0.05368
0.0732,-0.1098,0.1464,0.1098,0.0732,0,-0.08296,-0.00488,0.01464,0.03904,0.06832,0.05368
0.0732,-0.10248,0.13176,0.09516,0.05856,0.00732,-0.09272,-0.00488,0.00976,0.03904,0.05856,0.05368
0.0732,-0.0976,0.122,0.0854,0.0488,0.0122,-0.09272,-0.00488,0.00488,0.03416,0.05368,0.05368
0.06344,-0.0854,0.10736,0.07564,0.04392,0.00976,-0.06832,0.00488,0.00488,0.02928,0.04392,0.04392
0.05368,-0.07076,0.08784,0.061,0.03416,0.00976,-0.05856,0.00488,0.00488,0.01952,0.03904,0.03416
0.03416,-0.04392,0.05368,0.0366,0.01952,0.00732,-0.03904,0.01952,0.00488,0,0.02928,0.0244
0.01952,-0.02196,0.0244,0.01464,0.00488,0.00732,-0.02928,0.0244,0.00488,-0.00488,0.01464,0.01464
-0.00976,0.00732,-0.00488,0,0.00488,-0.00732,0,0.01464,0,-0.02928,0.00488,0
-0.01464,0.02196,-0.02928,-0.02196,-0.01464,0,0.00976,0.01952,-0.00488,-0.04392,-0.00976,-0.01952
-0.0244,0.0366,-0.0488,-0.0366,-0.0244,0,0.01464,0.01952,-0.01464,-0.04392,-0.01952,-0.02928
-0.02928,0.04392,-0.05856,-0.04392,-0.02928,0,0.01464,0.01952,-0.0244,-0.0488,-0.02928,-0.03416
-0.03904,0.05368,-0.06832,-0.0488,-0.02928,-0.00488,0.01952,0.01952,-0.03416,-0.03904,-0.02928,-0.03416
-0.03904,0.05612,-0.0732,-0.05368,-0.03416,-0.00244,0.01952,0.01952,-0.03416,-0.03904,-0.03416,-0.03416
-0.04392,0.061,-0.07808,-0.05612,-0.03416,-0.00488,0.01952,0.02928,-0.03416,-0.02928,-0.02928,-0.03904
-0.04392,0.061,-0.07808,-0.05612,-0.03416,-0.00488,0.0244,0.02928,-0.03416,-0.0244,-0.02928,-0.03904
-0.0488,0.06344,-0.07808,-0.05368,-0.02928,-0.00976,0.0244,0.01952,-0.03904,-0.0244,-0.03904,-0.0488
-0.0488,0.06588,-0.08296,-0.05856,-0.03416,-0.00732,0.0244,0.01952,-0.03416,-0.0244,-0.03416,-0.0488
-0.05368,0.0732,-0.09272,-0.06588,-0.03904,-0.00732,0.0244,0.0244,-0.03416,-0.03416,-0.04392,-0.03904
-0.05856,0.07564,-0.09272,-0.06344,-0.03416,-0.0122,0.02928,0.0244,-0.03416,-0.03416,-0.04392,-0.03904
-0.0488,0.07076,-0.09272,-0.06832,-0.04392,-0.00244,0.02928,0.0244,-0.02928,-0.0488,-0.03904,-0.03416
-0.06832,0.0854,-0.10248,-0.06832,-0.03416,-0.01708,0.04392,0.02928,-0.01952,-0.04392,-0.0488,-0.04392
-0.07808,0.09028,-0.10248,-0.06344,-0.0244,-0.02684,0.06832,0.05368,0.03416,-0.01952,-0.0488,-0.05368
-0.08296,0.08784,-0.09272,-0.05124,-0.00976,-0.0366,0.08784,0.10248,0.11224,0.0488,-0.0244,-0.05856
-0.04392,0.04148,-0.03904,-0.01708,0.00488,-0.0244,0.08784,0.1464,0.20496,0.15616,0.05856,-0.01952
0.04392,-0.05368,0.06344,0.04148,0.01952,0.0122,0.03904,0.1708,0.27328,0.32696,0.2196,0.05856
0.15128,-0.19032,0.22936,0.15372,0.07808,0.0366,-0.06832,0.18056,0.30256,0.52216,0.45872,0.20496
0.2928,-0.38552,0.47824,0.33184,0.18544,0.05368,-0.25376,0.11224,0.244,0.69784,0.74664,0.38552
0.43432,-0.59048,0.74664,0.52948,0.31232,0.061,-0.46848,-0.01464,0.11224,0.83936,1.04432,0.57584
0.55632,-0.77104,0.98576,0.7076,0.42944,0.06344,-0.67832,-0.16104,-0.0732,0.88328,1.27368,0.76128
0.61488,-0.86864,1.1224,0.81496,0.50752,0.05368,-0.8296,-0.3172,-0.27816,0.79056,1.35176,0.86376
0.59048,-0.85156,1.11264,0.8174,0.52216,0.03416,-0.88816,-0.44408,-0.4636,0.59536,1.25416,0.86376
0.48312,-0.71248,0.94184,0.70028,0.45872,0.0122,-0.83448,-0.5124,-0.61,0.3416,0.99064,0.74664
0.33184,-0.51972,0.7076,0.54168,0.37576,-0.02196,-0.67832,-0.51728,-0.66856,0.0732,0.64416,0.5612
0.15616,-0.305,0.45384,0.37576,0.29768,-0.07076,-0.49776,-0.45384,-0.65392,-0.1464,0.32696,0.35624
0.03904,-0.14396,0.24888,0.22936,0.20984,-0.0854,-0.32696,-0.3416,-0.55632,-0.23912,0.10736,0.19032
-0.03416,-0.0366,0.10736,0.12444,0.14152,-0.08784,-0.20008,-0.244,-0.44408,-0.2684,-0.00976,0.07808
-0.05368,0.0122,0.02928,0.05612,0.08296,-0.06832,-0.11224,-0.1464,-0.30256,-0.20008,-0.05368,0.02928
-0.06344,0.04392,-0.0244,0.00732,0.03904,-0.05124,-0.06344,-0.08296,-0.18544,-0.12688,-0.05856,0.00488
-0.05368,0.05368,-0.05368,-0.02684,0,-0.02684,-0.01952,-0.03904,-0.10736,-0.06832,-0.05368,-0.01952
-0.05368,0.06588,-0.07808,-0.05124,-0.0244,-0.01464,0.00976,-0.01464,-0.0732,-0.04392,-0.05368,-0.02928
-0.05368,0.07808,-0.10248,-0.07564,-0.0488,-0.00244,0.01952,0.01464,-0.0488,-0.03904,-0.05856,-0.04392
-0.05856,0.0854,-0.11224,-0.08296,-0.05368,-0.00244,0.0244,0.0244,-0.03904,-0.03904,-0.0732,-0.05368
-0.05856,0.09028,-0.122,-0.09272,-0.06344,0.00244,0.03416,0.02928,-0.02928,-0.03904,-0.0732,-0.05368
-0.05856,0.09272,-0.12688,-0.0976,-0.06832,0.00488,0.0488,0.0244,-0.01952,-0.0488,-0.07808,-0.05368
-0.05856,0.09272,-0.12688,-0.0976,-0.06832,0.00488,0.0488,0.0244,-0.00976,-0.05856,-0.07808,-0.05856
-0.06832,0.0976,-0.12688,-0.09272,-0.05856,-0.00488,0.05368,0.02928,0,-0.05856,-0.0732,-0.05856
-0.06344,0.09516,-0.12688,-0.09516,-0.06344,0,0.05368,0.03904,0.00488,-0.05856,-0.06832,-0.05856
-0.06344,0.09028,-0.11712,-0.0854,-0.05368,-0.00488,0.05368,0.03904,0.01464,-0.0488,-0.0732,-0.05856
-0.06344,0.08784,-0.11224,-0.08052,-0.0488,-0.00732,0.05368,0.03904,0.01952,-0.03904,-0.06832,-0.05856
-0.06344,0.0854,-0.10736,-0.07564,-0.04392,-0.00976,0.05368,0.03904,0.0244,-0.0244,-0.06832,-0.05368
-0.06344,0.0854,-0.10736,-0.07564,-0.04392,-0.00976,0.05368,0.03904,0.0244,0,-0.06344,-0.05368
-0.06344,0.0854,-0.10736,-0.07564,-0.04392,-0.00976,0.05368,0.0488,0.02928,0.00488,-0.06344,-0.06344
-0.06344,0.0854,-0.10736,-0.07564,-0.04392,-0.00976,0.05368,0.05368,0.02928,0.00976,-0.05856,-0.06344
-0.05856,0.0854,-0.11224,-0.08296,-0.05368,-0.00244,0.05368,0.0488,0.0244,0,-0.05856,-0.06344
-0.05856,0.0854,-0.11224,-0.08296,-0.05368,-0.00244,0.05368,0.05368,0.02928,0,-0.05856,-0.05856
-0.05856,0.08052,-0.10248,-0.0732,-0.04392,-0.00732,0.05856,0.0488,0.03416,0,-0.05368,-0.0488
-0.05856,0.07808,-0.0976,-0.06832,-0.03904,-0.00976,0.05856,0.0488,0.03416,0,-0.05368,-0.04392
-0.05368,0.0732,-0.09272,-0.06588,-0.03904,-0.00732,0.05368,0.04392,0.03904,-0.00488,-0.05368,-0.0488
-0.05368,0.07076,-0.08784,-0.061,-0.03416,-0.00976,0.05368,0.04392,0.03904,-0.01464,-0.05368,-0.0488
-0.06344,0.07564,-0.08784,-0.05612,-0.0244,-0.01952,0.0488,0.04392,0.04392,-0.00488,-0.04392,-0.0488
-0.05856,0.06832,-0.07808,-0.0488,-0.01952,-0.01952,0.0488,0.03904,0.0488,0.01464,-0.03904,-0.04392
-0.0488,0.06344,-0.07808,-0.05368,-0.02928,-0.00976,0.04392,0.0488,0.05368,0.0244,-0.03416,-0.04392
-0.04392,0.05856,-0.0732,-0.05124,-0.02928,-0.00732,0.04392,0.05368,0.05368,0.03416,-0.02928,-0.04392
-0.05368,0.06832,-0.08296,-0.05612,-0.02928,-0.0122,0.02928,0.05368,0.05856,0.04392,-0.02928,-0.04392
-0.0488,0.06344,-0.07808,-0.05368,-0.02928,-0.00976,0.02928,0.05856,0.06344,0.0488,-0.0244,-0.03904
-0.03904,0.05612,-0.0732,-0.05368,-0.03416,-0.00244,0.03904,0.05856,0.06832,0.0488,-0.01952,-0.03904
-0.03416,0.05124,-0.06832,-0.05124,-0.03416,0,0.03904,0.05856,0.06832,0.05368,-0.01952,-0.03416
-0.03416,0.04636,-0.05856,-0.04148,-0.0244,-0.00488,0.03904,0.06344,0.08296,0.0488,-0.0244,-0.03904
-0.03904,0.0488,-0.05856,-0.03904,-0.01952,-0.00976,0.03904,0.06832,0.08296,0.05856,-0.01464,-0.03416
-0.03904,0.0488,-0.05856,-0.03904,-0.01952,-0.00976,0.03904,0.05856,0.09272,0.05856,-0.00488,-0.02928
-0.03416,0.04392,-0.05368,-0.0366,-0.01952,-0.00732,0.03416,0.05856,0.10248,0.05368,-0.00488,-0.0244
-0.0244,0.03416,-0.04392,-0.03172,-0.01952,-0.00244,0.02928,0.06832,0.11224,0.0732,0.00976,-0.01952
-0.01952,0.02684,-0.03416,-0.0244,-0.01464,-0.00244,0.02928,0.06832,0.122,0.08784,0.01952,-0.01464
-0.00976,0.0122,-0.01464,-0.00976,-0.00488,-0.00244,0.02928,0.0732,0.13664,0.11224,0.03416,0
0,0.00244,-0.00488,-0.00488,-0.00488,0.00244,0.0244,0.07808,0.1464,0.13176,0.04392,0.00488
0.00488,-0.00488,0.00488,0.00244,0,0.00244,0.01952,0.07808,0.16104,0.15616,0.05368,0.01464
0.01464,-0.01708,0.01952,0.0122,0.00488,0.00488,0.01952,0.08784,0.1708,0.17568,0.06832,0.01952
0.0244,-0.02928,0.03416,0.02196,0.00976,0.00732,0,0.0976,0.1952,0.18544,0.0732,0.0244
0.0244,-0.0366,0.0488,0.0366,0.0244,0,0,0.10736,0.21472,0.20984,0.08784,0.02928
0.03416,-0.04636,0.05856,0.04148,0.0244,0.00488,-0.00976,0.11712,0.23912,0.2196,0.10736,0.04392
0.0488,-0.06588,0.08296,0.05856,0.03416,0.00732,-0.01464,0.11712,0.25864,0.244,0.12688,0.05856
0.0488,-0.0732,0.0976,0.0732,0.0488,0,-0.01952,0.11224,0.28304,0.25864,0.14152,0.06344
0.05856,-0.09028,0.122,0.09272,0.06344,-0.00244,-0.02928,0.11712,0.30256,0.27816,0.1708,0.08784
0.06832,-0.1098,0.15128,0.11712,0.08296,-0.00732,-0.03904,0.12688,0.32696,0.29768,0.20496,0.10736
0.07808,-0.12932,0.18056,0.14152,0.10248,-0.0122,-0.0488,0.12688,0.34648,0.32696,0.23424,0.11712
0.09272,-0.15128,0.20984,0.16348,0.11712,-0.0122,-0.06832,0.12688,0.36112,0.366,0.26352,0.13664
0.0976,-0.16348,0.22936,0.18056,0.13176,-0.01708,-0.0732,0.12688,0.37088,0.39528,0.28792,0.1464
0.11224,-0.18788,0.26352,0.2074,0.15128,-0.01952,-0.08784,0.13664,0.38552,0.42456,0.29768,0.16104
0.122,-0.20252,0.28304,0.22204,0.16104,-0.01952,-0.0976,0.13176,0.39528,0.45384,0.32208,0.1708
0.14152,-0.21716,0.2928,0.22204,0.15128,-0.00488,-0.10248,0.13176,0.40504,0.45872,0.33184,0.1708
0.1464,-0.22936,0.31232,0.23912,0.16592,-0.00976,-0.11224,0.13176,0.40504,0.47336,0.34648,0.18056
0.15128,-0.2318,0.31232,0.23668,0.16104,-0.00488,-0.10248,0.13664,0.40992,0.48312,0.35624,0.19032
0.15128,-0.23668,0.32208,0.24644,0.1708,-0.00976,-0.10248,0.13664,0.4148,0.48312,0.366,0.1952
0.1464,-0.24156,0.33672,0.26352,0.19032,-0.02196,-0.10736,0.12688,0.40504,0.47336,0.366,0.20496
0.1464,-0.24156,0.33672,0.26352,0.19032,-0.02196,-0.10736,0.12688,0.39528,0.45384,0.366,0.20496
0.1464,-0.24156,0.33672,0.26352,0.19032,-0.02196,-0.10736,0.10736,0.38552,0.44896,0.366,0.21472
0.14152,-0.23912,0.33672,0.26596,0.1952,-0.02684,-0.10736,0.0976,0.36112,0.43432,0.35624,0.20496
0.13176,-0.22692,0.32208,0.2562,0.19032,-0.02928,-0.10736,0.09272,0.34648,0.42456,0.3416,0.1952
0.122,-0.20984,0.29768,0.23668,0.17568,-0.02684,-0.10248,0.08784,0.32696,0.39528,0.33184,0.17568
0.11224,-0.19276,0.27328,0.21716,0.16104,-0.0244,-0.08784,0.07808,0.30256,0.37576,0.29768,0.1708
0.09272,-0.16836,0.244,0.19764,0.15128,-0.02928,-0.08296,0.0732,0.27328,0.3416,0.27328,0.15128
0.08296,-0.15128,0.2196,0.17812,0.13664,-0.02684,-0.0732,0.06344,0.23424,0.31232,0.23424,0.13176
0.06344,-0.12688,0.19032,0.1586,0.12688,-0.03172,-0.06344,0.05856,0.20496,0.27328,0.20496,0.11224
0.0488,-0.10004,0.15128,0.12688,0.10248,-0.02684,-0.05368,0.05368,0.17568,0.22448,0.16104,0.08296
0.03904,-0.08296,0.12688,0.10736,0.08784,-0.0244,-0.03904,0.0488,0.1464,0.1952,0.13664,0.06832
0.0244,-0.06344,0.10248,0.09028,0.07808,-0.02684,-0.03904,0.02928,0.12688,0.1464,0.11712,0.06344
0.01952,-0.05124,0.08296,0.0732,0.06344,-0.02196,-0.02928,0.0244,0.0976,0.11712,0.09272,0.0488
0.00976,-0.03416,0.05856,0.05368,0.0488,-0.01952,-0.00976,0.01464,0.09272,0.08784,0.07808,0.03904
0.00488,-0.02196,0.03904,0.0366,0.03416,-0.01464,-0.00976,0.01464,0.07808,0.06344,0.05856,0.02928
0.00488,-0.01708,0.02928,0.02684,0.0244,-0.00976,-0.00488,0.00976,0.05368,0.06344,0.0488,0.0244
0,-0.00732,0.01464,0.01464,0.01464,-0.00732,-0.00488,0.00976,0.04392,0.0488,0.04392,0.00976
0,0,0,0,0,0,0,0.01464,0.03416,0.0488,0.02928,0.00488
0,0.00732,-0.01464,-0.01464,-0.01464,0.00732,0,0.01464,0.0244,0.03904,0.0244,0
0.00488,0.00976,-0.0244,-0.02684,-0.02928,0.01708,0.00488,0.01464,0.01952,0.03904,0.0244,0
0,0.01708,-0.03416,-0.03416,-0.03416,0.01708,0.00488,0.01952,0.01464,0.04392,0.01464,0
-0.00488,0.02196,-0.03904,-0.0366,-0.03416,0.01464,0.00976,0.01464,0.01464,0.02928,0,-0.01952
-0.00976,0.0244,-0.03904,-0.03416,-0.02928,0.00976,0.01464,0.00976,0.00976,0.0244,0,-0.01952
-0.00976,0.02684,-0.04392,-0.03904,-0.03416,0.0122,0.01464,0.01952,0.00976,0.00976,0,-0.01952
-0.00976,0.02684,-0.04392,-0.03904,-0.03416,0.0122,0.01952,0.0244,0.00976,0.00488,-0.00488,-0.01952
-0.00488,0.02684,-0.0488,-0.04636,-0.04392,0.01952,0.01952,0.01952,0.00976,-0.00488,-0.00488,-0.0244
-0.00488,0.02684,-0.0488,-0.04636,-0.04392,0.01952,0.01952,0.01952,0.01464,-0.00976,-0.00488,-0.0244
-0.01464,0.03172,-0.0488,-0.04148,-0.03416,0.00976,0.01952,0.00976,0.01464,-0.00976,-0.01464,-0.01464
-0.01464,0.03172,-0.0488,-0.04148,-0.03416,0.00976,0.01952,0.00976,0.01464,-0.00976,-0.01464,-0.01464
-0.01464,0.03172,-0.0488,-0.04148,-0.03416,0.00976,0.01464,0.00976,0.01464,0,-0.01464,-0.0244
-0.01464,0.03172,-0.0488,-0.04148,-0.03416,0.00976,0.01464,0.00976,0.01464,0.00488,-0.01952,-0.0244
-0.00488,0.0244,-0.04392,-0.04148,-0.03904,0.01708,0.01464,0.01952,0.01952,0.0244,-0.01464,-0.01464
-0.00488,0.0244,-0.04392,-0.04148,-0.03904,0.01708,0.00976,0.01952,0.01952,0.0244,-0.01464,-0.01464
0,0.02196,-0.04392,-0.04392,-0.04392,0.02196,0.00976,0.01952,0.0244,0.02928,-0.01952,-0.01464
0,0.02196,-0.04392,-0.04392,-0.04392,0.02196,0.00976,0.01952,0.0244,0.02928,-0.01952,-0.01464
0.00488,0.01708,-0.03904,-0.04148,-0.04392,0.0244,0.00976,0.01952,0.0244,0.01952,-0.01464,-0.01952
0.00488,0.01464,-0.03416,-0.0366,-0.03904,0.02196,0.00976,0.01952,0.0244,0.01952,-0.01464,-0.01464
0,0.01952,-0.03904,-0.03904,-0.03904,0.01952,0.01464,0.01464,0.0244,0.00976,-0.00976,-0.01464
0,0.01952,-0.03904,-0.03904,-0.03904,0.01952,0.01464,0.01464,0.0244,0.00976,-0.00976,-0.01464
0,0.01708,-0.03416,-0.03416,-0.03416,0.01708,0.00976,0.00976,0.0244,0.00488,-0.00488,0
0,0.01464,-0.02928,-0.02928,-0.02928,0.01464,0.00976,0.00488,0.0244,0.00488,0,0
0.00976,0.00976,-0.02928,-0.03416,-0.03904,0.0244,0.00488,0.00488,0.0244,0.01952,0,0
0.00488,0.00976,-0.0244,-0.02684,-0.02928,0.01708,0.00488,0.00976,0.0244,0.0244,0,0
0.01464,0.00488,-0.0244,-0.03172,-0.03904,0.02684,0.00488,0.00976,0.02928,0.03904,0.00488,-0.00488
0.01464,0.00244,-0.01952,-0.02684,-0.03416,0.0244,0,0.00976,0.02928,0.03904,0.00976,-0.00488
0.01464,0.00244,-0.01952,-0.02684,-0.03416,0.0244,0,0.00976,0.01952,0.03904,0.00488,-0.00488
0.01952,0,-0.01952,-0.02928,-0.03904,0.02928,0,0.01464,0.01952,0.03904,0.00488,-0.00488
0.0244,-0.00244,-0.01952,-0.03172,-0.04392,0.03416,0,0.01952,0.01952,0.0244,0.00488,0
0.0244,-0.00244,-0.01952,-0.03172,-0.04392,0.03416,0,0.01952,0.01952,0.0244,0,0
0.0244,0,-0.0244,-0.0366,-0.0488,0.0366,0,0.01952,0.01952,0.01464,0,0
0.0244,0,-0.0244,-0.0366,-0.0488,0.0366,0.00488,0.01952,0.01952,0.00488,0,0
0.0244,-0.00244,-0.01952,-0.03172,-0.04392,0.03416,0.00488,0.00976,0.01464,0,-0.00976,0
0.0244,-0.00244,-0.01952,-0.03172,-0.04392,0.03416,0.00488,0.00976,0.01464,0,-0.00976,0
0.0244,-0.00244,-0.01952,-0.03172,-0.04392,0.03416,0.00488,0.00976,0.00976,0.00488,-0.00976,0
0.0244,-0.00244,-0.01952,-0.03172,-0.04392,0.03416,0.00488,0.00976,0.00976,0.00976,-0.00976,0
0.0244,0.00488,-0.03416,-0.04636,-0.05856,0.04148,-0.00488,0.00488,0.00976,0.00976,-0.00976,-0.01464
0.0244,0.00488,-0.03416,-0.04636,-0.05856,0.04148,-0.00976,0.00488,0.00488,0.00976,-0.01464,-0.01464
0.01952,0.00732,-0.03416,-0.04392,-0.05368,0.0366,-0.00976,0.00488,0,0.01464,-0.01464,-0.01464
0.01952,0.00976,-0.03904,-0.0488,-0.05856,0.03904,-0.00488,0.00488,0,0.01464,-0.01464,-0.01464
0.01952,0.00976,-0.03904,-0.0488,-0.05856,0.03904,-0.00488,0.00488,-0.00488,0.00976,-0.02928,-0.0244
0.01952,0.0122,-0.04392,-0.05368,-0.06344,0.04148,0,0.00488,-0.00488,0.00488,-0.02928,-0.0244
0.01952,0.0122,-0.04392,-0.05368,-0.06344,0.04148,0,0.00488,-0.00488,-0.00976,-0.02928,-0.01464
0.01952,0.0122,-0.04392,-0.05368,-0.06344,0.04148,0.00488,0.00488,-0.00488,-0.0244,-0.02928,-0.01464
0.01952,0.0122,-0.04392,-0.05368,-0.06344,0.04148,0.00488,0,-0.00976,-0.02928,-0.03416,-0.01464
0.01952,0.01464,-0.0488,-0.05856,-0.06832,0.04392,0.00488,0,-0.00976,-0.03416,-0.03904,-0.01952
0.02928,0.00488,-0.03904,-0.05368,-0.06832,0.0488,-0.00488,0,-0.00976,-0.03416,-0.03416,-0.01952
0.02928,0.00488,-0.03904,-0.05368,-0.06832,0.0488,-0.00488,-0.00488,-0.01464,-0.03416,-0.03416,-0.01952
0.02928,0.00976,-0.0488,-0.06344,-0.07808,0.05368,0,-0.00488,-0.01464,-0.02928,-0.04392,-0.01952
0.02928,0.00976,-0.0488,-0.06344,-0.07808,0.05368,0,-0.00488,-0.01464,-0.01952,-0.03416,-0.01952
0.03416,0.00488,-0.04392,-0.061,-0.07808,0.05612,0,0.00488,-0.01464,-0.00976,-0.03416,-0.01952
0.03416,0.00732,-0.0488,-0.06588,-0.08296,0.05856,0,0.00488,-0.01952,0,-0.03904,-0.01952
0.03904,0.00488,-0.0488,-0.06832,-0.08784,0.06344,0,0.00976,-0.01952,-0.00488,-0.0488,-0.01952
0.03904,0.00488,-0.0488,-0.06832,-0.08784,0.06344,0,0.00976,-0.01952,-0.01464,-0.0488,-0.01952
0.02928,0.01464,-0.05856,-0.0732,-0.08784,0.05856,0,0,-0.01952,-0.0244,-0.0488,-0.01952
0.02928,0.01464,-0.05856,-0.0732,-0.08784,0.05856,0.00488,0,-0.01952,-0.03416,-0.0488,-0.01952
0.02928,0.00976,-0.0488,-0.06344,-0.07808,0.05368,0.00488,-0.00976,-0.01952,-0.0488,-0.05368,-0.02928
0.02928,0.00976,-0.0488,-0.06344,-0.07808,0.05368,0.00488,-0.01464,-0.01952,-0.05368,-0.05368,-0.02928
0.03904,0.00488,-0.0488,-0.06832,-0.08784,0.06344,-0.00488,-0.01464,-0.01952,-0.05368,-0.0488,-0.0244
0.03904,0.00488,-0.0488,-0.06832,-0.08784,0.06344,0,-0.00976,-0.01952,-0.05368,-0.0488,-0.0244
0.02928,0.00732,-0.04392,-0.05856,-0.0732,0.05124,-0.00488,-0.00976,-0.01952,-0.0488,-0.0488,-0.01464
0.03416,-0.00244,-0.02928,-0.04636,-0.06344,0.0488,-0.00488,-0.00976,-0.00976,-0.02928,-0.0488,-0.01464
0.03904,-0.00976,-0.01952,-0.03904,-0.05856,0.0488,-0.00488,-0.00488,-0.00976,-0.00976,-0.04392,-0.0244
0.04392,-0.02196,0,-0.02196,-0.04392,0.04392,-0.01464,-0.00488,0.00488,0.00976,-0.02928,-0.01464
0.05368,-0.0366,0.01952,-0.00732,-0.03416,0.04392,-0.0244,0.00488,0.01464,0.0244,-0.0244,-0.00488
0.05368,-0.04636,0.03904,0.0122,-0.01464,0.03416,-0.02928,0,0.01952,0.02928,-0.01464,0
0.0488,-0.0488,0.0488,0.0244,0,0.0244,-0.02928,-0.01464,0.0244,0.0244,0,0.01464
0.0488,-0.05368,0.05856,0.03416,0.00976,0.01952,-0.02928,-0.01952,0.0244,0.0244,0.00488,0.01464
0.05856,-0.06588,0.0732,0.04392,0.01464,0.02196,-0.03416,-0.0244,0.02928,0.02928,0.00976,0.01952
0.06344,-0.0732,0.08296,0.05124,0.01952,0.02196,-0.03904,-0.0244,0.02928,0.02928,0.01464,0.02928
0.05856,-0.07808,0.0976,0.06832,0.03904,0.00976,-0.0488,-0.03416,0.03416,0.03416,0.0244,0.0488
0.06344,-0.0854,0.10736,0.07564,0.04392,0.00976,-0.05368,-0.03416,0.03416,0.03904,0.02928,0.0488
0.0732,-0.09516,0.11712,0.08052,0.04392,0.01464,-0.06832,-0.0244,0.03416,0.0488,0.04392,0.03904
0.08296,-0.10492,0.12688,0.0854,0.04392,0.01952,-0.06832,-0.0244,0.03416,0.05856,0.0488,0.0488
0.09272,-0.1098,0.12688,0.08052,0.03416,0.02928,-0.08296,-0.02928,0.0244,0.06832,0.0488,0.05856
0.10248,-0.11468,0.12688,0.07564,0.0244,0.03904,-0.09272,-0.03416,0.00976,0.06832,0.0488,0.06344
0.11224,-0.11468,0.11712,0.061,0.00488,0.05368,-0.08296,-0.03416,0,0.0488,0.03904,0.05368
0.11224,-0.1098,0.10736,0.05124,-0.00488,0.05856,-0.08296,-0.03416,-0.00488,0.03904,0.03904,0.05368
0.10736,-0.0976,0.08784,0.03416,-0.01952,0.06344,-0.07808,-0.02928,-0.00488,0.0244,0.02928,0.04392
0.08784,-0.07808,0.06832,0.0244,-0.01952,0.05368,-0.06344,-0.0244,-0.00488,0.02928,0.01952,0.03904
0.06832,-0.05856,0.0488,0.01464,-0.01952,0.04392,-0.04392,-0.01952,-0.00488,0.01464,0.01464,0.02928
0.0488,-0.03416,0.01952,-0.00488,-0.02928,0.03904,-0.01952,-0.01952,-0.00488,0.00488,0,0.01952
0.02928,-0.00976,-0.00976,-0.0244,-0.03904,0.03416,-0.00976,-0.01464,-0.01464,0,-0.00976,0.00488
0.01952,0.00976,-0.03904,-0.0488,-0.05856,0.03904,0.00488,-0.01464,-0.0244,-0.01464,-0.0244,-0.00976
0.00976,0.0244,-0.05856,-0.06344,-0.06832,0.03904,0.01464,-0.01952,-0.02928,-0.01952,-0.03416,-0.01952
0.00488,0.0366,-0.07808,-0.08052,-0.08296,0.04392,0.01464,-0.01952,-0.03904,-0.02928,-0.04392,-0.03416
0,0.04148,-0.08296,-0.08296,-0.08296,0.04148,0.01464,-0.01952,-0.04392,-0.01952,-0.0488,-0.04392
0,0.04636,-0.09272,-0.09272,-0.09272,0.04636,0.01952,-0.01952,-0.04392,-0.01952,-0.05368,-0.04392
-0.00488,0.04392,-0.08296,-0.08052,-0.07808,0.0366,0.00976,-0.00976,-0.04392,-0.01952,-0.05368,-0.03904
-0.00488,0.04636,-0.08784,-0.0854,-0.08296,0.03904,0.01464,-0.00976,-0.04392,-0.01952,-0.05856,-0.03904
-0.00488,0.04636,-0.08784,-0.0854,-0.08296,0.03904,0.01464,-0.01952,-0.03904,-0.0244,-0.05856,-0.03904
0,0.04636,-0.09272,-0.09272,-0.09272,0.04636,0.01464,-0.01952,-0.03416,-0.0244,-0.05368,-0.03904
0.00488,0.04392,-0.09272,-0.09516,-0.0976,0.05124,0.01464,-0.01464,-0.03416,-0.03416,-0.05368,-0.03904
0.00488,0.04392,-0.09272,-0.09516,-0.0976,0.05124,0.01464,-0.01464,-0.03416,-0.03416,-0.05368,-0.03904
0,0.04636,-0.09272,-0.09272,-0.09272,0.04636,0.02928,-0.01464,-0.02928,-0.02928,-0.05368,-0.04392
-0.0244,0.061,-0.0976,-0.0854,-0.0732,0.0244,0.03416,-0.00976,-0.0244,-0.03416,-0.05856,-0.05368
-0.03416,0.06832,-0.10248,-0.0854,-0.06832,0.01708,0.0488,0.00976,0.01952,-0.00488,-0.05856,-0.05856
-0.03904,0.07076,-0.10248,-0.08296,-0.06344,0.0122,0.07808,0.05856,0.08296,0.03904,-0.0488,-0.06344
-0.01952,0.04392,-0.06832,-0.05856,-0.0488,0.01464,0.08784,0.0976,0.16592,0.13664,0.01464,-0.03904
0.05368,-0.02684,0,-0.02684,-0.05368,0.05368,0.05856,0.1464,0.25376,0.28792,0.14152,0.0244
0.15616,-0.15128,0.1464,0.06832,-0.00976,0.08296,-0.03904,0.16104,0.30256,0.47336,0.366,0.1464
0.2928,-0.33184,0.37088,0.22448,0.07808,0.10736,-0.18544,0.11224,0.25864,0.65392,0.64416,0.32696
0.4392,-0.53924,0.63928,0.41968,0.20008,0.11956,-0.39528,0.00488,0.15616,0.78568,0.93696,0.5124
0.56608,-0.73688,0.90768,0.62464,0.3416,0.11224,-0.60024,-0.14152,-0.01464,0.854,1.18584,0.69784
0.63928,-0.85888,1.07848,0.75884,0.4392,0.10004,-0.7808,-0.30256,-0.22448,0.8052,1.30296,0.82472
0.64416,-0.88084,1.11752,0.79544,0.47336,0.0854,-0.86864,-0.44896,-0.41968,0.65392,1.27368,0.86376
0.55632,-0.77592,0.99552,0.71736,0.4392,0.05856,-0.84424,-0.5368,-0.57584,0.4148,1.0492,0.77592
0.40992,-0.59536,0.7808,0.57584,0.37088,0.01952,-0.732,-0.56608,-0.67344,0.14152,0.732,0.61976
0.244,-0.38308,0.52216,0.40016,0.27816,-0.01708,-0.54656,-0.53192,-0.68808,-0.09272,0.38552,0.4148
0.10248,-0.20008,0.29768,0.24644,0.1952,-0.04636,-0.37576,-0.42944,-0.60512,-0.21472,0.14152,0.22936
0.01464,-0.07808,0.14152,0.1342,0.12688,-0.05612,-0.23424,-0.30256,-0.49288,-0.25864,-0.00488,0.0976
-0.01952,-0.0122,0.04392,0.05368,0.06344,-0.04148,-0.13664,-0.21472,-0.35136,-0.20984,-0.05368,0.03416
-0.03416,0.02684,-0.01952,-0.00244,0.01464,-0.0244,-0.06832,-0.13176,-0.22448,-0.12688,-0.06832,0.00488
-0.03416,0.04636,-0.05856,-0.04148,-0.0244,-0.00488,-0.03416,-0.07808,-0.12688,-0.0732,-0.06344,-0.01464
-0.03416,0.05856,-0.08296,-0.06588,-0.0488,0.00732,0,-0.04392,-0.07808,-0.03416,-0.06344,-0.02928
-0.0244,0.06588,-0.10736,-0.09516,-0.08296,0.02928,0.02928,-0.01952,-0.0488,-0.01952,-0.06832,-0.03904
-0.03416,0.07808,-0.122,-0.10492,-0.08784,0.02684,0.03416,-0.01952,-0.03904,-0.0244,-0.08296,-0.0488
-0.03904,0.08296,-0.12688,-0.10736,-0.08784,0.0244,0.04392,-0.00976,-0.03416,-0.03416,-0.08296,-0.05368
-0.02928,0.08052,-0.13176,-0.11712,-0.10248,0.0366,0.0488,0.00488,-0.0244,-0.03904,-0.0732,-0.06344
-0.02928,0.07564,-0.122,-0.10736,-0.09272,0.03172,0.0488,0.00488,-0.01464,-0.03904,-0.07808,-0.06344
-0.01952,0.06344,-0.10736,-0.0976,-0.08784,0.03416,0.05368,0.00976,0.00488,-0.02928,-0.0732,-0.05856
-0.01952,0.06344,-0.10736,-0.0976,-0.08784,0.03416,0.05368,0.01464,0.01464,-0.02928,-0.06832,-0.05856
-0.0244,0.07076,-0.11712,-0.10492,-0.09272,0.03416,0.05368,0.01952,0.00976,-0.01952,-0.0732,-0.05856
-0.0244,0.06832,-0.11224,-0.10004,-0.08784,0.03172,0.05368,0.01952,0.01952,-0.01464,-0.06832,-0.05856
-0.03416,0.07808,-0.122,-0.10492,-0.08784,0.02684,0.05368,0.02928,0.01952,0.00488,-0.05856,-0.05856
-0.03416,0.07564,-0.11712,-0.10004,-0.08296,0.0244,0.05368,0.02928,0.0244,0.01464,-0.05368,-0.05368
-0.03416,0.07076,-0.10736,-0.09028,-0.0732,0.01952,0.04392,0.02928,0.0244,0.00976,-0.05368,-0.05368
-0.03416,0.07076,-0.10736,-0.09028,-0.0732,0.01952,0.04392,0.03416,0.02928,0.01952,-0.0488,-0.05368
-0.03416,0.0732,-0.11224,-0.09516,-0.07808,0.02196,0.04392,0.02928,0.03904,0.01952,-0.05856,-0.05368
-0.03904,0.07564,-0.11224,-0.09272,-0.0732,0.01708,0.04392,0.03416,0.03416,0.01952,-0.05856,-0.05368
-0.03904,0.07076,-0.10248,-0.08296,-0.06344,0.0122,0.0488,0.02928,0.03904,0.00976,-0.05368,-0.0488
-0.03904,0.06832,-0.0976,-0.07808,-0.05856,0.00976,0.0488,0.02928,0.03416,0.00976,-0.05368,-0.0488
-0.02928,0.061,-0.09272,-0.07808,-0.06344,0.01708,0.05368,0.02928,0.04392,0.01464,-0.04392,-0.04392
-0.0244,0.05856,-0.09272,-0.08052,-0.06832,0.02196,0.05368,0.0244,0.0488,0.01464,-0.04392,-0.03904
-0.01464,0.04636,-0.07808,-0.07076,-0.06344,0.0244,0.05368,0.03416,0.04392,0.0244,-0.03416,-0.03904
-0.00976,0.04392,-0.07808,-0.0732,-0.06832,0.02928,0.0488,0.02928,0.04392,0.02928,-0.02928,-0.03904
0,0.03416,-0.06832,-0.06832,-0.06832,0.03416,0.03416,0.02928,0.05368,0.03904,-0.03904,-0.03416
0,0.03416,-0.06832,-0.06832,-0.06832,0.03416,0.03416,0.02928,0.05368,0.0488,-0.02928,-0.03416
-0.00488,0.03904,-0.0732,-0.07076,-0.06832,0.03172,0.03416,0.03416,0.05856,0.0488,-0.02928,-0.03416
-0.00488,0.0366,-0.06832,-0.06588,-0.06344,0.02928,0.02928,0.03416,0.06344,0.05368,-0.02928,-0.03416
-0.00976,0.03904,-0.06832,-0.06344,-0.05856,0.0244,0.03904,0.03904,0.0732,0.05856,-0.0244,-0.02928
-0.00976,0.0366,-0.06344,-0.05856,-0.05368,0.02196,0.03904,0.03904,0.07808,0.06344,-0.01952,-0.0244
-0.00488,0.03172,-0.05856,-0.05612,-0.05368,0.0244,0.03904,0.03904,0.08784,0.05856,-0.01952,-0.0244
-0.00976,0.03416,-0.05856,-0.05368,-0.0488,0.01952,0.03904,0.04392,0.09272,0.06344,-0.01464,-0.01464
0,0.02684,-0.05368,-0.05368,-0.05368,0.02684,0.03904,0.03904,0.0976,0.06832,0,-0.00976
0.00488,0.02196,-0.0488,-0.05124,-0.05368,0.02928,0.03416,0.03904,0.10736,0.06832,0.00488,-0.00976
0.00488,0.01708,-0.03904,-0.04148,-0.04392,0.0244,0.0244,0.0488,0.11712,0.08784,0.01464,0
0.00488,0.0122,-0.02928,-0.03172,-0.03416,0.01952,0.01952,0.0488,0.12688,0.10248,0.0244,0.00488
0.01952,-0.00488,-0.00976,-0.01952,-0.02928,0.0244,0.01952,0.05368,0.13664,0.12688,0.02928,0.00488
0.01952,-0.00976,0,-0.00976,-0.01952,0.01952,0.00488,0.05368,0.14152,0.1464,0.03904,0.01464
0.03416,-0.02196,0.00976,-0.00732,-0.0244,0.02928,0,0.06832,0.16104,0.16104,0.0488,0.00976
0.03416,-0.02928,0.0244,0.00732,-0.00976,0.02196,0,0.07808,0.17568,0.18056,0.05856,0.01952
0.0488,-0.04148,0.03416,0.00976,-0.01464,0.03172,0,0.08296,0.18544,0.18544,0.06832,0.02928
0.05368,-0.0488,0.04392,0.01708,-0.00976,0.03172,-0.00976,0.08784,0.20496,0.20496,0.08784,0.03904
0.05856,-0.06344,0.06832,0.03904,0.00976,0.0244,-0.00976,0.09272,0.22448,0.22448,0.10736,0.05368
0.0732,-0.08296,0.09272,0.05612,0.01952,0.02684,-0.01952,0.0976,0.24888,0.24888,0.12688,0.06832
0.08296,-0.10004,0.11712,0.07564,0.03416,0.0244,-0.02928,0.10248,0.2684,0.27328,0.15128,0.07808
0.09272,-0.11468,0.13664,0.09028,0.04392,0.0244,-0.03416,0.10248,0.2928,0.2928,0.1708,0.0976
0.10248,-0.12688,0.15128,0.10004,0.0488,0.02684,-0.04392,0.10736,0.30256,0.32208,0.20008,0.11712
0.11224,-0.14884,0.18544,0.12932,0.0732,0.01952,-0.05368,0.10736,0.32696,0.35136,0.22936,0.12688
0.12688,-0.1708,0.21472,0.15128,0.08784,0.01952,-0.06832,0.10736,0.35136,0.38552,0.26352,0.1464
0.13176,-0.18788,0.244,0.17812,0.11224,0.00976,-0.07808,0.10736,0.37088,0.41968,0.28304,0.16104
0.14152,-0.20252,0.26352,0.19276,0.122,0.00976,-0.08784,0.11712,0.37576,0.44408,0.29768,0.1708
0.1464,-0.21472,0.28304,0.20984,0.13664,0.00488,-0.10248,0.11224,0.3904,0.4636,0.32208,0.18544
0.15128,-0.22204,0.2928,0.21716,0.14152,0.00488,-0.11224,0.122,0.40016,0.47336,0.33184,0.20008
0.16592,-0.23912,0.31232,0.22936,0.1464,0.00976,-0.11712,0.122,0.40504,0.48312,0.3416,0.20496
0.16592,-0.25132,0.33672,0.25376,0.1708,-0.00244,-0.11224,0.11224,0.40992,0.488,0.35624,0.22448
0.1708,-0.25864,0.34648,0.26108,0.17568,-0.00244,-0.11224,0.11712,0.4148,0.49288,0.37088,0.23424
0.16592,-0.26108,0.35624,0.27328,0.19032,-0.0122,-0.11712,0.10736,0.40504,0.48312,0.37576,0.23424
0.16592,-0.26108,0.35624,0.27328,0.19032,-0.0122,-0.11712,0.10736,0.40016,0.47824,0.37576,0.23424
0.16592,-0.26108,0.35624,0.27328,0.19032,-0.0122,-0.11712,0.09272,0.40016,0.46848,0.38552,0.22448
0.16592,-0.26108,0.35624,0.27328,0.19032,-0.0122,-0.11712,0.07808,0.38064,0.45872,0.37088,0.21472
0.16592,-0.2562,0.34648,0.26352,0.18056,-0.00732,-0.11712,0.07808,0.366,0.45384,0.35136,0.20984
0.15616,-0.24156,0.32696,0.24888,0.1708,-0.00732,-0.11224,0.0732,0.34648,0.43432,0.33184,0.1952
0.13664,-0.22692,0.3172,0.24888,0.18056,-0.02196,-0.11224,0.06344,0.3172,0.40992,0.30256,0.18544
0.122,-0.20496,0.28792,0.22692,0.16592,-0.02196,-0.10736,0.05856,0.28792,0.37576,0.27816,0.16104
0.10736,-0.18544,0.26352,0.20984,0.15616,-0.0244,-0.08784,0.0488,0.25864,0.33672,0.24888,0.15128
0.08784,-0.16104,0.23424,0.19032,0.1464,-0.02928,-0.07808,0.04392,0.22936,0.30256,0.2196,0.13176
0.0732,-0.13908,0.20496,0.16836,0.13176,-0.02928,-0.06832,0.0244,0.20008,0.26352,0.1952,0.11224
0.06832,-0.11956,0.1708,0.13664,0.10248,-0.01708,-0.05856,0.01952,0.1708,0.22936,0.16104,0.09272
0.05368,-0.0976,0.14152,0.11468,0.08784,-0.01708,-0.04392,0.01464,0.14152,0.19032,0.13176,0.07808
0.03904,-0.07808,0.11712,0.0976,0.07808,-0.01952,-0.03416,0.00488,0.122,0.14152,0.10248,0.05856
0.03416,-0.06832,0.10248,0.0854,0.06832,-0.01708,-0.0244,0.00488,0.10248,0.122,0.08784,0.04392
0.0244,-0.05124,0.07808,0.06588,0.05368,-0.01464,-0.01952,-0.00488,0.08784,0.10248,0.06832,0.03416
0.01952,-0.04392,0.06832,0.05856,0.0488,-0.01464,-0.02928,-0.01464,0.06832,0.08784,0.05856,0.0244
0.01464,-0.03416,0.05368,0.04636,0.03904,-0.0122,-0.0244,-0.01952,0.04392,0.0732,0.04392,0.01952
0,-0.01464,0.02928,0.02928,0.02928,-0.01464,-0.01952,-0.01464,0.0488,0.06344,0.0244,0.00488
0,-0.0122,0.0244,0.0244,0.0244,-0.0122,-0.01952,-0.01464,0.03904,0.05368,0.01952,0
0.00488,-0.00732,0.00976,0.00732,0.00488,0,-0.00488,-0.01464,0.03416,0.05368,0.01464,0
0,0,0,0,0,0,-0.00488,-0.00976,0.0244,0.0488,0.00976,0
0.00488,-0.00488,0.00488,0.00244,0,0.00244,0,-0.00488,0.01464,0.03416,0,-0.00976
0,0,0,0,0,0,0,-0.00976,0.01464,0.0244,0,-0.00976
0,0.00732,-0.01464,-0.01464,-0.01464,0.00732,0.00488,-0.01952,0.00976,0.01952,-0.00976,-0.00976
0,0.00732,-0.01464,-0.01464,-0.01464,0.00732,0.00488,-0.01952,0.00976,0.00488,-0.01464,-0.00976
0.00488,0.00976,-0.0244,-0.02684,-0.02928,0.01708,0.00976,-0.01464,0.00976,0.00488,-0.01464,-0.01464
0.00488,0.0122,-0.02928,-0.03172,-0.03416,0.01952,0.00976,-0.01952,0.01464,0,-0.01464,-0.01464
0.00488,0.00732,-0.01952,-0.02196,-0.0244,0.01464,0,-0.01952,0.01464,0,-0.01464,-0.01464
0.00488,0.00732,-0.01952,-0.02196,-0.0244,0.01464,0,-0.01952,0.01464,0,-0.01464,-0.01464
0.00488,0.00244,-0.00976,-0.0122,-0.01464,0.00976,-0.00488,-0.01952,0.0244,0.00976,-0.01464,-0.01464
0.00488,0.00244,-0.00976,-0.0122,-0.01464,0.00976,-0.00488,-0.01952,0.0244,0.01464,-0.01952,-0.01464
0.01464,-0.00732,0,-0.00732,-0.01464,0.01464,-0.00488,-0.01952,0.0244,0.01952,-0.01464,-0.01464
0.01464,-0.00976,0.00488,-0.00244,-0.00976,0.0122,-0.00488,-0.01952,0.02928,0.0244,-0.01464,-0.01464
0.00976,-0.00732,0.00488,0,-0.00488,0.00732,0,-0.00976,0.02928,0.0244,-0.0244,-0.01464
0.00976,-0.00732,0.00488,0,-0.00488,0.00732,0,-0.00976,0.03416,0.02928,-0.01952,-0.01464
0.00976,-0.00732,0.00488,0,-0.00488,0.00732,-0.00976,-0.01952,0.03416,0.0244,-0.00976,-0.00488
0.01464,-0.01464,0.01464,0.00732,0,0.00732,-0.00976,-0.01952,0.03416,0.01464,-0.00488,0
0.01952,-0.01952,0.01952,0.00976,0,0.00976,-0.00976,-0.01464,0.03416,0.00976,0,0.00488
0.01952,-0.01952,0.01952,0.00976,0,0.00976,-0.00488,-0.01464,0.03416,0.00976,0,0.00488
0.01952,-0.01464,0.00976,0,-0.00976,0.01464,-0.00976,-0.01952,0.03416,0.01952,0.00488,-0.00488
0.01952,-0.01708,0.01464,0.00488,-0.00488,0.0122,-0.00976,-0.01952,0.03416,0.0244,0.00488,0
0.02928,-0.02928,0.02928,0.01464,0,0.01464,-0.01952,-0.0244,0.03416,0.03416,0.00976,0
0.0244,-0.02928,0.03416,0.02196,0.00976,0.00732,-0.0244,-0.0244,0.03416,0.03904,0.00976,0
0.03416,-0.02928,0.0244,0.00732,-0.00976,0.02196,-0.0244,-0.01952,0.03416,0.0488,0.01464,0
0.03416,-0.02928,0.0244,0.00732,-0.00976,0.02196,-0.02928,-0.01952,0.03904,0.0488,0.01464,0.00488
0.03416,-0.02684,0.01952,0.00244,-0.01464,0.0244,-0.02928,-0.01952,0.02928,0.03904,0.01952,0.00488
0.03416,-0.02684,0.01952,0.00244,-0.01464,0.0244,-0.02928,-0.01464,0.02928,0.03904,0.01464,0.00488
0.03416,-0.02684,0.01952,0.00244,-0.01464,0.0244,-0.01952,-0.00976,0.02928,0.03416,0.00488,0.00488
0.03416,-0.02684,0.01952,0.00244,-0.01464,0.0244,-0.01952,-0.00976,0.02928,0.01952,0.00488,0
0.03416,-0.02684,0.01952,0.00244,-0.01464,0.0244,-0.01952,-0.00976,0.02928,0.01464,0.00976,0.00976
0.03416,-0.0244,0.01464,-0.00244,-0.01952,0.02684,-0.01464,-0.00976,0.02928,0.00976,0.00976,0.00976
0.03416,-0.0244,0.01464,-0.00244,-0.01952,0.02684,-0.0244,-0.01952,0.0244,0,0.00976,0
0.03416,-0.02196,0.00976,-0.00732,-0.0244,0.02928,-0.0244,-0.01952,0.0244,0,0.00976,0
0.03416,-0.02684,0.01952,0.00244,-0.01464,0.0244,-0.0244,-0.01952,0.0244,0.00488,0.00976,0
0.03416,-0.02684,0.01952,0.00244,-0.01464,0.0244,-0.0244,-0.01952,0.01952,0.00976,0.00976,0
0.03416,-0.02684,0.01952,0.00244,-0.01464,0.0244,-0.0244,-0.01464,0.00976,0.01952,0,-0.00976
0.03416,-0.0244,0.01464,-0.00244,-0.01952,0.02684,-0.0244,-0.01464,0.00488,0.01952,0,-0.01464
0.0244,-0.01464,0.00488,-0.00732,-0.01952,0.02196,-0.01952,-0.01464,0.00976,0.01464,-0.00488,-0.00488
0.02928,-0.01464,0,-0.01464,-0.02928,0.02928,-0.01952,-0.01464,0.00976,0.01464,-0.00488,-0.00488
0.02928,-0.01464,0,-0.01464,-0.02928,0.02928,-0.01464,-0.00488,0.00976,0,-0.01952,0.00488
0.02928,-0.01464,0,-0.01464,-0.02928,0.02928,-0.01464,-0.00488,0.00488,0,-0.01952,0.00488
0.01952,-0.00244,-0.01464,-0.0244,-0.03416,0.02684,-0.00976,-0.00488,0.00488,-0.01464,-0.01952,0.00488
0.01952,-0.00244,-0.01464,-0.0244,-0.03416,0.02684,-0.00488,-0.00488,0.00488,-0.0244,-0.01952,0.00488
0.01952,-0.00244,-0.01464,-0.0244,-0.03416,0.02684,-0.00488,-0.00976,0.00488,-0.01952,-0.00976,-0.00488
0.01952,-0.00244,-0.01464,-0.0244,-0.03416,0.02684,-0.00488,-0.01464,0,-0.01952,-0.01952,-0.00488
0.02928,-0.01464,0,-0.01464,-0.02928,0.02928,-0.01464,-0.01952,0,-0.0244,-0.01464,-0.01952
0.02928,-0.01464,0,-0.01464,-0.02928,0.02928,-0.00976,-0.01952,0,-0.01952,-0.01952,0
0.02928,-0.00976,-0.00976,-0.0244,-0.03904,0.03416,-0.01952,-0.01952,0,-0.00976,-0.01952,0
0.02928,-0.00976,-0.00976,-0.0244,-0.03904,0.03416,-0.01952,-0.01952,0,-0.00976,-0.01952,0
0.03904,-0.00976,-0.01952,-0.03904,-0.05856,0.0488,-0.0244,-0.00976,0,-0.01952,-0.01952,0
0.03904,-0.00976,-0.01952,-0.03904,-0.05856,0.0488,-0.0244,-0.00976,0,-0.01952,-0.0244,0
0.03904,-0.00976,-0.01952,-0.03904,-0.05856,0.0488,-0.01464,0,0,-0.03416,-0.0244,-0.00976
0.03904,-0.00976,-0.01952,-0.03904,-0.05856,0.0488,-0.01464,-0.00488,0,-0.03416,-0.01952,-0.00488
0.03904,-0.00976,-0.01952,-0.03904,-0.05856,0.0488,-0.00488,0,0,-0.04392,-0.01952,-0.01464
0.03904,-0.0122,-0.01464,-0.03416,-0.05368,0.04636,0,0,0,-0.05368,-0.01952,-0.01464
0.03416,-0.01464,-0.00488,-0.02196,-0.03904,0.0366,-0.00488,-0.00976,-0.00488,-0.05856,-0.01952,-0.00488
0.03904,-0.02196,0.00488,-0.01464,-0.03416,0.0366,-0.00488,-0.00976,0,-0.0488,-0.01464,-0.00488
0.03416,-0.02684,0.01952,0.00244,-0.01464,0.0244,-0.01464,-0.00488,0.00976,-0.0488,-0.00488,0.00488
0.03416,-0.0366,0.03904,0.02196,0.00488,0.01464,-0.02928,-0.00488,0.01464,-0.03904,0.00488,0.00976
0.04392,-0.04636,0.0488,0.02684,0.00488,0.01952,-0.0244,-0.01952,0.01952,-0.01952,0.00976,0.02928
0.0488,-0.05612,0.06344,0.03904,0.01464,0.01708,-0.02928,-0.0244,0.0244,-0.00976,0.01952,0.02928
0.03904,-0.05612,0.0732,0.05368,0.03416,0.00244,-0.02928,-0.01464,0.0244,0.00488,0.02928,0.04392
0.0488,-0.06832,0.08784,0.06344,0.03904,0.00488,-0.03904,-0.01952,0.02928,0.00488,0.03904,0.0488
0.0488,-0.0732,0.0976,0.0732,0.0488,0,-0.04392,-0.0244,0.02928,0.01952,0.03416,0.0488
0.05368,-0.08052,0.10736,0.08052,0.05368,0,-0.05368,-0.03416,0.03416,0.01952,0.03904,0.05368
0.05856,-0.09516,0.13176,0.10248,0.0732,-0.00732,-0.05368,-0.0244,0.03416,0.01952,0.0488,0.0488
0.06832,-0.10492,0.14152,0.10736,0.0732,-0.00244,-0.05856,-0.0244,0.03416,0.00976,0.05368,0.0488
0.07808,-0.11468,0.15128,0.11224,0.0732,0.00244,-0.06832,-0.0244,0.04392,0.00488,0.05368,0.06344
0.08784,-0.122,0.15616,0.11224,0.06832,0.00976,-0.06832,-0.0244,0.04392,0.00488,0.05856,0.07808
0.0976,-0.122,0.1464,0.0976,0.0488,0.0244,-0.06832,-0.02928,0.03416,0.00976,0.06832,0.08296
0.10248,-0.12444,0.1464,0.09516,0.04392,0.02928,-0.0732,-0.03416,0.0244,0.00976,0.06832,0.08296
0.10248,-0.11712,0.13176,0.08052,0.02928,0.0366,-0.08296,-0.03416,0.00976,0.00976,0.06832,0.08296
0.10248,-0.11224,0.122,0.07076,0.01952,0.04148,-0.08296,-0.03416,0.00488,-0.00488,0.06344,0.08296
0.09272,-0.10004,0.10736,0.061,0.01464,0.03904,-0.07808,-0.01464,0.00488,0.00976,0.06344,0.0732
0.08296,-0.0854,0.08784,0.04636,0.00488,0.03904,-0.06832,-0.01464,0.00488,0,0.05856,0.06344
0.06344,-0.06344,0.06344,0.03172,0,0.03172,-0.0488,-0.00976,-0.00488,-0.00976,0.03904,0.04392
0.0488,-0.04148,0.03416,0.00976,-0.01464,0.03172,-0.03904,-0.00488,-0.00488,-0.01464,0.0244,0.0244
0.02928,-0.0122,-0.00488,-0.01952,-0.03416,0.03172,-0.00976,-0.00488,-0.00976,-0.03904,-0.00488,0.00976
0.0244,0.00244,-0.02928,-0.04148,-0.05368,0.03904,0,0,-0.01464,-0.05368,-0.01952,-0.00976
0.01464,0.02196,-0.05856,-0.06588,-0.0732,0.04392,0.00488,0,-0.03416,-0.0732,-0.03904,-0.01952
0.00976,0.02928,-0.06832,-0.0732,-0.07808,0.04392,0.00488,0,-0.04392,-0.07808,-0.0488,-0.0244
0.00976,0.02928,-0.06832,-0.0732,-0.07808,0.04392,0.01952,0,-0.03416,-0.07808,-0.03904,-0.0244
0.00976,0.02684,-0.06344,-0.06832,-0.0732,0.04148,0.01952,0,-0.03416,-0.07808,-0.04392,-0.0244
-0.00488,0.04148,-0.07808,-0.07564,-0.0732,0.03416,0.01952,0,-0.03416,-0.07808,-0.03904,-0.01952
-0.00488,0.04148,-0.07808,-0.07564,-0.0732,0.03416,0.0244,0,-0.03416,-0.0732,-0.03904,-0.01952
-0.00976,0.04392,-0.07808,-0.0732,-0.06832,0.02928,0.0244,0,-0.03904,-0.06344,-0.03904,-0.01952
-0.00976,0.04636,-0.08296,-0.07808,-0.0732,0.03172,0.0244,0,-0.03416,-0.06344,-0.03416,-0.01952
-0.00488,0.03904,-0.0732,-0.07076,-0.06832,0.03172,0.01464,0.00488,-0.03416,-0.05368,-0.03416,-0.01952
-0.00976,0.04148,-0.0732,-0.06832,-0.06344,0.02684,0.01952,0.00488,-0.03416,-0.05368,-0.03416,-0.01952
-0.00976,0.04636,-0.08296,-0.07808,-0.0732,0.03172,0.01952,0.01464,-0.02928,-0.0488,-0.03904,-0.0244
-0.01952,0.061,-0.10248,-0.09272,-0.08296,0.03172,0.04392,0.01952,0,-0.05368,-0.03904,-0.0244
-0.02928,0.07076,-0.11224,-0.0976,-0.08296,0.02684,0.06832,0.05368,0.05368,-0.02928,-0.0488,-0.03416
-0.03416,0.0732,-0.11224,-0.09516,-0.07808,0.02196,0.0976,0.09272,0.122,0.01952,-0.0244,-0.02928
0.00488,0.03172,-0.06832,-0.07076,-0.0732,0.03904,0.0976,0.12688,0.21472,0.11712,0.05856,0
0.08296,-0.06344,0.04392,0.00244,-0.03904,0.061,0.0488,0.16104,0.2928,0.28792,0.22936,0.07808
0.19032,-0.20984,0.22936,0.1342,0.03904,0.07564,-0.06832,0.15128,0.30256,0.48312,0.47824,0.22448
0.33184,-0.40992,0.488,0.32208,0.15616,0.08784,-0.25376,0.0732,0.25376,0.66856,0.78568,0.4148
0.4636,-0.61488,0.76616,0.53436,0.30256,0.08052,-0.44896,-0.04392,0.13176,0.80032,1.08336,0.61488
0.57584,-0.79544,1.01504,0.72712,0.4392,0.06832,-0.64904,-0.18056,-0.04392,0.854,1.31272,0.79056
0.6344,-0.89304,1.15168,0.83448,0.51728,0.05856,-0.79056,-0.32696,-0.23912,0.7808,1.3908,0.89304
0.59048,-0.85644,1.1224,0.82716,0.53192,0.02928,-0.83936,-0.44408,-0.43432,0.5856,1.26392,0.88328
0.48312,-0.72224,0.96136,0.7198,0.47824,0.00244,-0.77592,-0.52216,-0.58072,0.32208,0.97112,0.7564
0.33184,-0.5246,0.71736,0.55144,0.38552,-0.02684,-0.64904,-0.52704,-0.66856,0.04392,0.61488,0.5612
0.16592,-0.31476,0.4636,0.38064,0.29768,-0.06588,-0.46848,-0.47336,-0.67344,-0.18544,0.28792,0.35624
0.06832,-0.16348,0.25864,0.22448,0.19032,-0.061,-0.30744,-0.36112,-0.59536,-0.3172,0.06832,0.18056
0.00488,-0.05612,0.10736,0.10492,0.10248,-0.0488,-0.19032,-0.26352,-0.47336,-0.33672,-0.03904,0.07808
-0.0244,0.00244,0.01952,0.03172,0.04392,-0.03416,-0.10248,-0.16592,-0.33184,-0.27816,-0.0732,0.01952
-0.03416,0.03904,-0.04392,-0.02684,-0.00976,-0.0122,-0.05368,-0.10248,-0.21472,-0.1952,-0.06832,0.00488
-0.0244,0.04392,-0.06344,-0.05124,-0.03904,0.00732,-0.01952,-0.05856,-0.12688,-0.12688,-0.06344,-0.00976
-0.0244,0.05612,-0.08784,-0.07564,-0.06344,0.01952,0,-0.03416,-0.08296,-0.09272,-0.06344,-0.01952
-0.0244,0.05856,-0.09272,-0.08052,-0.06832,0.02196,0.01952,-0.01464,-0.05856,-0.07808,-0.06832,-0.03416
-0.02928,0.06588,-0.10248,-0.08784,-0.0732,0.02196,0.0244,0.00488,-0.03904,-0.06832,-0.0732,-0.04392
-0.02928,0.07076,-0.11224,-0.0976,-0.08296,0.02684,0.03416,0.00976,-0.02928,-0.06832,-0.0732,-0.04392
-0.02928,0.07808,-0.12688,-0.11224,-0.0976,0.03416,0.0488,0.01464,-0.02928,-0.05856,-0.08784,-0.05368
-0.02928,0.07808,-0.12688,-0.11224,-0.0976,0.03416,0.0488,0.01464,-0.01952,-0.05856,-0.08784,-0.05856
-0.02928,0.07808,-0.12688,-0.11224,-0.0976,0.03416,0.05368,0.02928,0,-0.05856,-0.08296,-0.0488
-0.0244,0.07564,-0.12688,-0.11468,-0.10248,0.03904,0.05368,0.03904,0.00488,-0.05856,-0.07808,-0.0488
-0.01464,0.07076,-0.12688,-0.11956,-0.11224,0.0488,0.06344,0.03904,0.01464,-0.05856,-0.0732,-0.03904
-0.01464,0.06832,-0.122,-0.11468,-0.10736,0.04636,0.06344,0.03904,0.01952,-0.05856,-0.06832,-0.03904
-0.01464,0.06588,-0.11712,-0.1098,-0.10248,0.04392,0.06344,0.02928,0.0244,-0.06344,-0.06832,-0.03416
-0.01464,0.06588,-0.11712,-0.1098,-0.10248,0.04392,0.06344,0.02928,0.0244,-0.0488,-0.06344,-0.03416
-0.0244,0.07076,-0.11712,-0.10492,-0.09272,0.03416,0.05368,0.02928,0.02928,-0.03416,-0.05368,-0.03416
-0.0244,0.07076,-0.11712,-0.10492,-0.09272,0.03416,0.05368,0.03416,0.02928,-0.02928,-0.0488,-0.03416
-0.02928,0.07076,-0.11224,-0.0976,-0.08296,0.02684,0.05368,0.02928,0.0244,-0.01952,-0.05856,-0.04392
-0.02928,0.07076,-0.11224,-0.0976,-0.08296,0.02684,0.05368,0.03416,0.02928,-0.01952,-0.05856,-0.03904
-0.02928,0.07076,-0.11224,-0.0976,-0.08296,0.02684,0.0488,0.03904,0.0244,-0.00976,-0.06344,-0.03904
-0.02928,0.06832,-0.10736,-0.09272,-0.07808,0.0244,0.0488,0.03904,0.0244,-0.00976,-0.06344,-0.03416
-0.0244,0.06344,-0.10248,-0.09028,-0.07808,0.02684,0.05368,0.03416,0.02928,-0.00488,-0.05368,-0.02928
-0.0244,0.061,-0.0976,-0.0854,-0.0732,0.0244,0.05368,0.03416,0.02928,-0.00488,-0.05368,-0.02928
-0.0244,0.061,-0.0976,-0.0854,-0.0732,0.0244,0.0488,0.03416,0.0244,-0.01464,-0.06344,-0.03904
-0.01952,0.05368,-0.08784,-0.07808,-0.06832,0.0244,0.0488,0.02928,0.02928,-0.00488,-0.05856,-0.03416
-0.01952,0.0488,-0.07808,-0.06832,-0.05856,0.01952,0.04392,0.02928,0.03416,-0.00488,-0.05368,-0.03416
-0.01464,0.04392,-0.0732,-0.06588,-0.05856,0.02196,0.04392,0.03416,0.03416,0.00488,-0.0488,-0.03416
-0.01464,0.04392,-0.0732,-0.06588,-0.05856,0.02196,0.03904,0.03416,0.0488,0.0244,-0.03904,-0.0244
-0.00976,0.03904,-0.06832,-0.06344,-0.05856,0.0244,0.03904,0.03904,0.05368,0.02928,-0.03416,-0.01952
-0.01952,0.04148,-0.06344,-0.05368,-0.04392,0.0122,0.03904,0.03904,0.06832,0.03904,-0.01952,-0.00976
-0.01464,0.0366,-0.05856,-0.05124,-0.04392,0.01464,0.03904,0.03904,0.06832,0.05368,-0.01952,-0.00488
-0.00488,0.02684,-0.0488,-0.04636,-0.04392,0.01952,0.03904,0.04392,0.0732,0.05856,-0.01464,0
-0.00976,0.02928,-0.0488,-0.04392,-0.03904,0.01464,0.03904,0.0488,0.0732,0.06832,-0.00488,0.00488
-0.00976,0.0244,-0.03904,-0.03416,-0.02928,0.00976,0.02928,0.0488,0.08296,0.07808,-0.00488,0
-0.00488,0.01952,-0.03416,-0.03172,-0.02928,0.0122,0.0244,0.0488,0.09272,0.08296,-0.00488,0.00488
-0.00488,0.01952,-0.03416,-0.03172,-0.02928,0.0122,0.02928,0.05856,0.10248,0.08296,0.00976,0
0,0.01708,-0.03416,-0.03416,-0.03416,0.01708,0.02928,0.05856,0.11224,0.08784,0.01952,0.00488
0,0.0122,-0.0244,-0.0244,-0.0244,0.0122,0.00976,0.05368,0.11712,0.09272,0.0244,0.01952
0.00976,0.00244,-0.01464,-0.01952,-0.0244,0.01708,0.00488,0.05856,0.12688,0.11224,0.03416,0.0244
0.01464,-0.00976,0.00488,-0.00244,-0.00976,0.0122,0,0.05856,0.15128,0.11712,0.05368,0.03416
0.0244,-0.02196,0.01952,0.00732,-0.00488,0.01464,0,0.06832,0.16104,0.12688,0.06832,0.03904
0.03416,-0.03416,0.03416,0.01708,0,0.01708,-0.01952,0.07808,0.17568,0.1464,0.08296,0.05368
0.03416,-0.04148,0.0488,0.03172,0.01464,0.00976,-0.01952,0.07808,0.1952,0.1708,0.10736,0.05856
0.04392,-0.061,0.07808,0.05612,0.03416,0.00488,-0.02928,0.08784,0.2196,0.19032,0.11712,0.06344
0.05856,-0.08052,0.10248,0.0732,0.04392,0.00732,-0.03416,0.08784,0.23912,0.21472,0.13664,0.07808
0.06832,-0.09272,0.11712,0.08296,0.0488,0.00976,-0.02928,0.10248,0.27328,0.23912,0.1708,0.10248
0.07808,-0.1098,0.14152,0.10248,0.06344,0.00732,-0.03904,0.10736,0.2928,0.25864,0.20008,0.12688
0.08784,-0.12932,0.1708,0.12688,0.08296,0.00244,-0.03904,0.11712,0.30744,0.27816,0.23424,0.15616
0.0976,-0.14884,0.20008,0.15128,0.10248,-0.00244,-0.0488,0.11712,0.32696,0.30744,0.26352,0.16592
0.122,-0.17568,0.22936,0.16836,0.10736,0.00732,-0.06832,0.11712,0.3416,0.33672,0.28304,0.17568
0.12688,-0.18788,0.24888,0.18544,0.122,0.00244,-0.0732,0.11712,0.35136,0.35624,0.30744,0.18544
0.13176,-0.20252,0.27328,0.2074,0.14152,-0.00488,-0.08784,0.11712,0.37576,0.366,0.3172,0.20008
0.14152,-0.21716,0.2928,0.22204,0.15128,-0.00488,-0.0976,0.11224,0.38552,0.38552,0.3416,0.20984
0.14152,-0.22204,0.30256,0.2318,0.16104,-0.00976,-0.10248,0.11224,0.39528,0.40992,0.36112,0.2196
0.1464,-0.23424,0.32208,0.24888,0.17568,-0.01464,-0.11224,0.11224,0.39528,0.43432,0.37576,0.22936
0.16104,-0.24644,0.33184,0.25132,0.1708,-0.00488,-0.122,0.10736,0.40016,0.45384,0.38552,0.23912
0.16104,-0.25132,0.3416,0.26108,0.18056,-0.00976,-0.122,0.10736,0.40504,0.45384,0.39528,0.244
0.15616,-0.25132,0.34648,0.2684,0.19032,-0.01708,-0.11712,0.10736,0.40504,0.4636,0.39528,0.25376
0.15616,-0.25132,0.34648,0.2684,0.19032,-0.01708,-0.11712,0.10736,0.39528,0.44408,0.39528,0.25376
0.1464,-0.24644,0.34648,0.27328,0.20008,-0.02684,-0.10736,0.10736,0.38552,0.42944,0.38552,0.244
0.14152,-0.244,0.34648,0.27572,0.20496,-0.03172,-0.10736,0.0976,0.36112,0.4148,0.37576,0.23424
0.14152,-0.24156,0.3416,0.27084,0.20008,-0.02928,-0.0976,0.08296,0.34648,0.37576,0.35136,0.22448
0.13176,-0.22448,0.3172,0.25132,0.18544,-0.02684,-0.09272,0.07808,0.32696,0.33672,0.33184,0.20496
0.11224,-0.19764,0.28304,0.22692,0.1708,-0.02928,-0.08784,0.05856,0.2928,0.3172,0.29768,0.20008
0.09272,-0.17324,0.25376,0.2074,0.16104,-0.03416,-0.08296,0.05368,0.26352,0.28304,0.27328,0.18056
0.0732,-0.1464,0.2196,0.183,0.1464,-0.0366,-0.06344,0.04392,0.244,0.25376,0.244,0.16104
0.05368,-0.122,0.19032,0.16348,0.13664,-0.04148,-0.05368,0.03904,0.21472,0.21472,0.21472,0.14152
0.0488,-0.10492,0.16104,0.13664,0.11224,-0.03172,-0.05368,0.03416,0.17568,0.18544,0.1708,0.11224
0.03904,-0.08784,0.13664,0.11712,0.0976,-0.02928,-0.03904,0.02928,0.1464,0.15616,0.1464,0.0976
0.01464,-0.06832,0.122,0.11468,0.10736,-0.04636,-0.03904,0.01952,0.12688,0.12688,0.11712,0.08296
0.00976,-0.05612,0.10248,0.0976,0.09272,-0.04148,-0.02928,0.01464,0.0976,0.0976,0.09272,0.06832
0,-0.03416,0.06832,0.06832,0.06832,-0.03416,-0.01952,0.01464,0.08296,0.06832,0.06832,0.05856
-0.00488,-0.01708,0.03904,0.04148,0.04392,-0.0244,-0.01952,0.01464,0.06832,0.04392,0.0488,0.0488
-0.00488,-0.0122,0.02928,0.03172,0.03416,-0.01952,-0.00488,0.00976,0.05368,0.0244,0.03904,0.04392
-0.00976,-0.00244,0.01464,0.01952,0.0244,-0.01708,0.00488,0.00976,0.04392,0.00976,0.03416,0.02928
-0.01952,0,0.01952,0.02928,0.03904,-0.02928,0,-0.00488,0.03416,-0.00976,0.00976,0.01464
-0.01952,0.00732,0.00488,0.01464,0.0244,-0.02196,0,-0.00488,0.0244,-0.02928,0.00488,0.00976
-0.01464,0.00488,0.00488,0.0122,0.01952,-0.01708,0.00488,-0.01464,0.00976,-0.03904,-0.00488,0
-0.01952,0.0122,-0.00488,0.00488,0.01464,-0.01708,0.00488,-0.00976,0.00488,-0.04392,-0.01464,0
-0.0244,0.02196,-0.01952,-0.00732,0.00488,-0.01464,0.00976,-0.00488,0.01464,-0.03904,-0.01952,0
-0.02928,0.0244,-0.01952,-0.00488,0.00976,-0.01952,0.01464,-0.00976,0.00976,-0.04392,-0.01952,0.00976
-0.02928,0.02684,-0.0244,-0.00976,0.00488,-0.01708,0.01464,0,0.00976,-0.03904,-0.01952,0.00976
-0.02928,0.02684,-0.0244,-0.00976,0.00488,-0.01708,0.01952,0.00488,0.00976,-0.04392,-0.0244,0.00976
-0.03416,0.03172,-0.02928,-0.0122,0.00488,-0.01952,0.01952,0.00976,0.00976,-0.04392,-0.0244,-0.00488
-0.03416,0.03172,-0.02928,-0.0122,0.00488,-0.01952,0.01952,0.00976,0.01464,-0.0488,-0.0244,-0.00488
-0.03416,0.03172,-0.02928,-0.0122,0.00488,-0.01952,0.01952,0.00976,0.01464,-0.0488,-0.0244,-0.00488
-0.03416,0.03172,-0.02928,-0.0122,0.00488,-0.01952,0.01952,0.00976,0.01464,-0.0488,-0.0244,-0.00488
-0.03416,0.03172,-0.02928,-0.0122,0.00488,-0.01952,0.01464,0,0.01464,-0.05856,-0.01464,-0.00488
-0.03416,0.03172,-0.02928,-0.0122,0.00488,-0.01952,0.01464,0,0.01464,-0.05368,-0.01952,-0.00488
-0.03416,0.02928,-0.0244,-0.00732,0.00976,-0.02196,0.01464,0,0.01952,-0.04392,-0.01464,-0.00488
-0.03416,0.02928,-0.0244,-0.00732,0.00976,-0.02196,0.00976,0,0.01952,-0.04392,-0.01464,-0.00488
-0.03904,0.03172,-0.0244,-0.00488,0.01464,-0.02684,0.00976,0,0.0244,-0.02928,-0.00976,-0.00488
-0.03904,0.03172,-0.0244,-0.00488,0.01464,-0.02684,0.00976,0,0.0244,-0.01952,-0.00976,-0.00488
-0.03416,0.02684,-0.01952,-0.00244,0.01464,-0.0244,0.00976,0.00976,0.03416,-0.00976,0.00488,0.00976
-0.03416,0.0244,-0.01464,0.00244,0.01952,-0.02684,0.00976,0.00976,0.03416,0,0.00488,0.01464
-0.01952,0.01952,-0.01952,-0.00976,0,-0.00976,0.0244,0.01464,0.03416,0,0.00976,0.01464
-0.01952,0.01952,-0.01952,-0.00976,0,-0.00976,0.0244,0.01464,0.03416,0,0.00976,0.01464
-0.01952,0.0122,-0.00488,0.00488,0.01464,-0.01708,0.01952,0.01952,0.03416,-0.00488,0.00488,0.01952
-0.01952,0.00976,0,0.00976,0.01952,-0.01952,0.01952,0.01464,0.03416,-0.00488,0.00976,0.01952
-0.01952,0.00976,0,0.00976,0.01952,-0.01952,0.01464,0.00488,0.03416,-0.00976,0.00976,0.01952
-0.0244,0.00976,0.00488,0.01708,0.02928,-0.02684,0.01464,0.00976,0.03416,-0.01464,0.00976,0.01952
-0.0244,0.00976,0.00488,0.01708,0.02928,-0.02684,0.01464,0.00976,0.03904,0,0.01464,0.03416
-0.0244,0.00732,0.00976,0.02196,0.03416,-0.02928,0.00976,0.00976,0.03904,0,0.01952,0.03416
-0.0244,0.00732,0.00976,0.02196,0.03416,-0.02928,0.00976,0,0.03904,0.00976,0.01464,0.0244
-0.01952,0.00488,0.00976,0.01952,0.02928,-0.0244,0.00976,0.00488,0.03904,0.00976,0.01464,0.0244
-0.0244,0.00732,0.00976,0.02196,0.03416,-0.02928,0.00976,0.00976,0.03904,0.01464,0.01464,0.00976
-0.03416,0.0122,0.00976,0.02684,0.04392,-0.03904,0.00976,0.00976,0.03904,0.01464,0.00976,0.00976
-0.03416,0.01952,-0.00488,0.0122,0.02928,-0.03172,0.00976,0.01952,0.03904,0.01464,0.00976,0.00976
-0.03416,0.0244,-0.01464,0.00244,0.01952,-0.02684,0.01464,0.01952,0.03904,0.00488,0.00976,0.00976
-0.03416,0.02684,-0.01952,-0.00244,0.01464,-0.0244,0.01464,0.01952,0.03416,-0.00976,0.00976,0.00976
-0.03416,0.02684,-0.01952,-0.00244,0.01464,-0.0244,0.01464,0.01952,0.03416,-0.00976,0.00976,0.00976
-0.03416,0.02684,-0.01952,-0.00244,0.01464,-0.0244,0.01464,0.01952,0.02928,-0.0244,0.00976,0.00976
-0.03416,0.02684,-0.01952,-0.00244,0.01464,-0.0244,0.01464,0.01952,0.02928,-0.01952,0.00976,0.00976
-0.0244,0.0244,-0.0244,-0.0122,0,-0.0122,0.01464,0.01464,0.02928,-0.01952,0.00976,0.01464
-0.0244,0.0244,-0.0244,-0.0122,0,-0.0122,0.00976,0.01464,0.0244,-0.01952,0.00488,0.01464
-0.02928,0.02684,-0.0244,-0.00976,0.00488,-0.01708,0.00976,0.00488,0.01952,-0.0244,0.00488,0.00488
-0.02928,0.02928,-0.02928,-0.01464,0,-0.01464,0.01464,0.00488,0.01952,-0.0244,0.00488,0.00488
-0.03904,0.03904,-0.03904,-0.01952,0,-0.01952,0.01464,0.00488,0.01464,-0.01952,0,0.00488
-0.03904,0.04148,-0.04392,-0.0244,-0.00488,-0.01708,0.01952,0.00488,0.01464,-0.0244,0,0.00488
-0.03904,0.0366,-0.03416,-0.01464,0.00488,-0.02196,0.02928,0.0244,0.0244,0,0,0.01464
-0.03904,0.04148,-0.04392,-0.0244,-0.00488,-0.01708,0.0244,0.01464,0.01464,-0.01464,0,0.01464
-0.03904,0.04392,-0.0488,-0.02928,-0.00976,-0.01464,0.02928,0.00976,0.00976,-0.0244,-0.00488,0.00976
-0.03904,0.04392,-0.0488,-0.02928,-0.00976,-0.01464,0.02928,0.00976,0.00976,-0.03416,-0.01464,0.00976
-0.03904,0.04392,-0.0488,-0.02928,-0.00976,-0.01464,0.02928,0.00976,0.00976,-0.03904,-0.01952,0.00976
-0.03904,0.04392,-0.0488,-0.02928,-0.00976,-0.01464,0.03416,0.00976,0.00976,-0.03904,-0.01952,0.00976
-0.03904,0.04392,-0.0488,-0.02928,-0.00976,-0.01464,0.0244,0.00976,0.00976,-0.03904,-0.0244,0.00976
-0.03904,0.04392,-0.0488,-0.02928,-0.00976,-0.01464,0.0244,0.00488,0.00976,-0.04392,-0.0244,0.00976
-0.03904,0.04392,-0.0488,-0.02928,-0.00976,-0.01464,0.0244,-0.00488,0.00976,-0.03416,-0.01952,0.00488
-0.03904,0.04392,-0.0488,-0.02928,-0.00976,-0.01464,0.02928,0,0.00976,-0.03416,-0.01952,0.00488
-0.0488,0.04636,-0.04392,-0.01952,0.00488,-0.02684,0.0244,0.00976,0.00976,-0.0244,-0.01952,0.00488
-0.04392,0.0366,-0.02928,-0.00732,0.01464,-0.02928,0.0244,0.00976,0.01952,-0.01464,-0.01952,0.00488
-0.03904,0.0244,-0.00976,0.00976,0.02928,-0.03416,0.0244,0.00488,0.01952,-0.01464,-0.01464,0.00488
-0.03416,0.0122,0.00976,0.02684,0.04392,-0.03904,0.01464,0.00488,0.03416,-0.00488,0,0.01464
-0.03416,0.00732,0.01952,0.0366,0.05368,-0.04392,0.01464,0.01464,0.03416,0.00488,0.00488,0.0244
-0.03416,-0.00244,0.03904,0.05612,0.0732,-0.05368,0.00976,0.00976,0.03904,0.00976,0.01464,0.02928
-0.01952,-0.01464,0.0488,0.05856,0.06832,-0.04392,0.00976,0.00488,0.03416,0.00488,0.01952,0.04392
-0.01952,-0.01952,0.05856,0.06832,0.07808,-0.0488,0.00976,0,0.03416,0.00488,0.0244,0.04392
-0.01952,-0.02684,0.0732,0.08296,0.09272,-0.05612,-0.01464,-0.01464,0.03904,0.00976,0.03904,0.03904
-0.01464,-0.03416,0.08296,0.09028,0.0976,-0.05612,-0.01952,-0.01464,0.03904,0.00976,0.04392,0.0488
0,-0.05368,0.10736,0.10736,0.10736,-0.05368,-0.03904,-0.0244,0.04392,0.0244,0.04392,0.05856
0.00488,-0.061,0.11712,0.11468,0.11224,-0.05368,-0.04392,-0.0244,0.04392,0.02928,0.0488,0.05856
0.01464,-0.07076,0.12688,0.11956,0.11224,-0.0488,-0.0488,-0.01464,0.04392,0.04392,0.06344,0.06832
0.0244,-0.08052,0.13664,0.12444,0.11224,-0.04392,-0.0488,-0.01464,0.04392,0.04392,0.06832,0.07808
0.0244,-0.08052,0.13664,0.12444,0.11224,-0.04392,-0.05368,-0.00976,0.04392,0.03904,0.06832,0.06832
0.03416,-0.0854,0.13664,0.11956,0.10248,-0.03416,-0.06344,-0.01464,0.02928,0.03904,0.06832,0.0732
0.03416,-0.07564,0.11712,0.10004,0.08296,-0.0244,-0.05368,-0.00488,0.02928,0.02928,0.05856,0.0732
0.03416,-0.07076,0.10736,0.09028,0.0732,-0.01952,-0.05368,-0.00488,0.0244,0.01952,0.05856,0.0732
0.03416,-0.06588,0.0976,0.08052,0.06344,-0.01464,-0.0488,0,0.0244,0.00488,0.05856,0.06344
0.0244,-0.05124,0.07808,0.06588,0.05368,-0.01464,-0.03416,0.00488,0.0244,0.00976,0.0488,0.05856
0.01952,-0.03904,0.05856,0.0488,0.03904,-0.00976,-0.0244,0.00976,0.01464,-0.00488,0.03416,0.0488
0,-0.01464,0.02928,0.02928,0.02928,-0.01464,0,0.00976,0.01464,-0.01464,0.01952,0.03904
-0.00976,0.00488,0,0.00488,0.00976,-0.00976,0.00976,0.01464,0.00488,-0.00976,0.00976,0.0244
-0.01952,0.0244,-0.02928,-0.01952,-0.00976,-0.00488,0.0244,0.01464,-0.00488,-0.0244,-0.00488,0.00976
-0.02928,0.03416,-0.03904,-0.0244,-0.00976,-0.00976,0.0244,0.01952,-0.00976,-0.02928,-0.01464,0
-0.03416,0.04636,-0.05856,-0.04148,-0.0244,-0.00488,0.0244,0.01952,-0.01952,-0.03904,-0.0244,-0.01464
-0.0488,0.05612,-0.06344,-0.03904,-0.01464,-0.01708,0.0244,0.01952,-0.0244,-0.03904,-0.02928,-0.01464
-0.0488,0.061,-0.0732,-0.0488,-0.0244,-0.0122,0.02928,0.01952,-0.0244,-0.03904,-0.03416,-0.01464
-0.05368,0.06344,-0.0732,-0.04636,-0.01952,-0.01708,0.03904,0.01952,-0.0244,-0.0488,-0.04392,-0.01952
-0.05368,0.06588,-0.07808,-0.05124,-0.0244,-0.01464,0.04392,0.01952,-0.0244,-0.0488,-0.0488,-0.01952
-0.05368,0.06588,-0.07808,-0.05124,-0.0244,-0.01464,0.04392,0.01952,-0.01952,-0.05368,-0.03904,-0.01952
-0.0488,0.06588,-0.08296,-0.05856,-0.03416,-0.00732,0.04392,0.01952,-0.01464,-0.05368,-0.03416,-0.01952
-0.05368,0.06832,-0.08296,-0.05612,-0.02928,-0.0122,0.04392,0.0244,-0.01464,-0.05368,-0.0244,-0.01952
-0.05368,0.06832,-0.08296,-0.05612,-0.02928,-0.0122,0.04392,0.0244,-0.01464,-0.05368,-0.0244,-0.01952
-0.0488,0.06588,-0.08296,-0.05856,-0.03416,-0.00732,0.0488,0.0244,-0.00976,-0.0488,-0.01464,-0.01464
-0.05368,0.07076,-0.08784,-0.061,-0.03416,-0.00976,0.05368,0.02928,0.00488,-0.04392,-0.01952,-0.0244
-0.06344,0.08296,-0.10248,-0.07076,-0.03904,-0.0122,0.07808,0.0488,0.0488,-0.01464,-0.02928,-0.03904
-0.06832,0.08052,-0.09272,-0.05856,-0.0244,-0.02196,0.08784,0.07808,0.10248,0.03904,-0.01952,-0.04392
-0.0488,0.05368,-0.05856,-0.03416,-0.00976,-0.01952,0.10736,0.11712,0.18544,0.13664,0.05368,-0.01952
0.0244,-0.03172,0.03904,0.02684,0.01464,0.00488,0.06832,0.1464,0.26352,0.28792,0.20008,0.06344
0.12688,-0.1708,0.21472,0.15128,0.08784,0.01952,-0.02928,0.15128,0.30256,0.48312,0.45384,0.1952
0.25376,-0.36112,0.46848,0.3416,0.21472,0.01952,-0.1952,0.09272,0.25864,0.67344,0.77104,0.37576
0.37088,-0.56364,0.7564,0.57096,0.38552,-0.00732,-0.38552,-0.0244,0.15616,0.82472,1.09312,0.59048
0.488,-0.76128,1.03456,0.79056,0.54656,-0.02928,-0.59048,-0.16104,0.00488,0.9028,1.36152,0.77592
0.55144,-0.8784,1.20536,0.92964,0.65392,-0.05124,-0.75152,-0.30256,-0.18544,0.86376,1.49816,0.89304
0.54656,-0.88084,1.21512,0.94184,0.66856,-0.061,-0.81008,-0.41968,-0.37088,0.70272,1.41032,0.9028
0.45872,-0.76128,1.06384,0.83448,0.60512,-0.0732,-0.77592,-0.49776,-0.52704,0.44408,1.1468,0.79544
0.32208,-0.56608,0.81008,0.64904,0.488,-0.08296,-0.66368,-0.50752,-0.62464,0.15128,0.77104,0.61
0.16592,-0.34404,0.52216,0.4392,0.35624,-0.09516,-0.488,-0.4636,-0.6588,-0.10248,0.39528,0.38552
0.04392,-0.16592,0.28792,0.26596,0.244,-0.10004,-0.32696,-0.37088,-0.59536,-0.25376,0.14152,0.20984
-0.0244,-0.0488,0.122,0.1342,0.1464,-0.0854,-0.20496,-0.26352,-0.49288,-0.30744,-0.00488,0.08784
-0.05856,0.0122,0.03416,0.06344,0.09272,-0.07564,-0.10736,-0.15616,-0.3416,-0.24888,-0.05368,0.01464
-0.06344,0.04148,-0.01952,0.0122,0.04392,-0.05368,-0.0488,-0.08296,-0.21472,-0.16592,-0.0488,-0.00488
-0.05368,0.05124,-0.0488,-0.02196,0.00488,-0.02928,-0.00488,-0.02928,-0.11712,-0.10248,-0.03416,-0.01464
-0.04392,0.05856,-0.0732,-0.05124,-0.02928,-0.00732,0.02928,-0.01464,-0.06832,-0.0732,-0.03416,-0.01952
-0.04392,0.06588,-0.08784,-0.06588,-0.04392,0,0.03904,0.00976,-0.03904,-0.05856,-0.0488,-0.03904
-0.05368,0.08296,-0.11224,-0.0854,-0.05856,0.00244,0.05368,0.01952,-0.01952,-0.05856,-0.05368,-0.0488
-0.05856,0.08784,-0.11712,-0.08784,-0.05856,0,0.06344,0.02928,-0.01464,-0.05856,-0.05368,-0.05368
-0.0488,0.08296,-0.11712,-0.09272,-0.06832,0.00976,0.06832,0.03416,0.00488,-0.05856,-0.05368,-0.05368
-0.0488,0.08296,-0.11712,-0.09272,-0.06832,0.00976,0.06832,0.03416,0.01464,-0.05856,-0.05856,-0.05368
-0.0488,0.08784,-0.12688,-0.10248,-0.07808,0.01464,0.06344,0.02928,0.0244,-0.05368,-0.05856,-0.05856
-0.0488,0.08784,-0.12688,-0.10248,-0.07808,0.01464,0.06344,0.03416,0.03416,-0.04392,-0.04392,-0.05856
-0.04392,0.08052,-0.11712,-0.09516,-0.0732,0.01464,0.06344,0.03904,0.02928,-0.02928,-0.04392,-0.05856
-0.04392,0.07808,-0.11224,-0.09028,-0.06832,0.0122,0.06344,0.03904,0.03904,-0.0244,-0.03904,-0.05856
-0.04392,0.07808,-0.11224,-0.09028,-0.06832,0.0122,0.06344,0.0488,0.03904,-0.0244,-0.03904,-0.05856
-0.04392,0.07564,-0.10736,-0.0854,-0.06344,0.00976,0.06344,0.0488,0.04392,-0.01464,-0.03416,-0.05368
-0.04392,0.07564,-0.10736,-0.0854,-0.06344,0.00976,0.06344,0.0488,0.04392,-0.00976,-0.04392,-0.04392
-0.04392,0.07564,-0.10736,-0.0854,-0.06344,0.00976,0.06344,0.05368,0.0488,0,-0.03904,-0.04392
-0.04392,0.06832,-0.09272,-0.07076,-0.0488,0.00244,0.06344,0.05368,0.03904,-0.00488,-0.03904,-0.04392
-0.0488,0.07076,-0.09272,-0.06832,-0.04392,-0.00244,0.06344,0.0488,0.03416,-0.01464,-0.03904,-0.04392
-0.03904,0.061,-0.08296,-0.06344,-0.04392,0.00244,0.05856,0.03904,0.03904,-0.01952,-0.03416,-0.03904
-0.03904,0.05856,-0.07808,-0.05856,-0.03904,0,0.05856,0.03904,0.03416,-0.01952,-0.03416,-0.03904
-0.03904,0.05612,-0.0732,-0.05368,-0.03416,-0.00244,0.05368,0.0488,0.03416,-0.00488,-0.0244,-0.03416
-0.03416,0.05368,-0.0732,-0.05612,-0.03904,0.00244,0.05368,0.04392,0.03904,-0.00488,-0.0244,-0.02928
-0.03416,0.05612,-0.07808,-0.061,-0.04392,0.00488,0.05368,0.04392,0.05368,0,-0.01464,-0.01952
-0.02928,0.05368,-0.07808,-0.06344,-0.0488,0.00976,0.0488,0.03904,0.05368,0.01464,-0.00976,-0.01952
-0.02928,0.0488,-0.06832,-0.05368,-0.03904,0.00488,0.05368,0.0488,0.06344,0.02928,-0.00976,-0.01464
-0.02928,0.0488,-0.06832,-0.05368,-0.03904,0.00488,0.05368,0.0488,0.06344,0.03904,0,-0.01464
-0.0244,0.04392,-0.06344,-0.05124,-0.03904,0.00732,0.05368,0.05368,0.05856,0.03904,0,-0.0244
-0.0244,0.04148,-0.05856,-0.04636,-0.03416,0.00488,0.0488,0.05368,0.06344,0.04392,0,-0.0244
-0.01952,0.03416,-0.0488,-0.03904,-0.02928,0.00488,0.0488,0.05856,0.0732,0.03904,0.00488,-0.01952
-0.01952,0.03172,-0.04392,-0.03416,-0.0244,0.00244,0.0488,0.05856,0.07808,0.04392,0.00976,-0.01464
-0.01464,0.02684,-0.03904,-0.03172,-0.0244,0.00488,0.03904,0.0488,0.0976,0.03904,0.00976,-0.00488
-0.01952,0.02928,-0.03904,-0.02928,-0.01952,0,0.03904,0.05368,0.10248,0.04392,0.01464,0.00488
-0.01952,0.02684,-0.03416,-0.0244,-0.01464,-0.00244,0.02928,0.0488,0.10736,0.05856,0.01952,0
-0.01464,0.02196,-0.02928,-0.02196,-0.01464,0,0.0244,0.0488,0.11712,0.05856,0.0244,0
-0.00488,0.0122,-0.01952,-0.01708,-0.01464,0.00488,0.01464,0.0488,0.11712,0.07808,0.03416,0.00976
-0.00488,0.00732,-0.00976,-0.00732,-0.00488,0,0.00976,0.0488,0.12688,0.09272,0.04392,0.01464
0,-0.00488,0.00976,0.00976,0.00976,-0.00488,0.01952,0.05368,0.1464,0.11712,0.0488,0.01464
0,-0.00976,0.01952,0.01952,0.01952,-0.00976,0.00488,0.05368,0.15128,0.13664,0.05856,0.0244
0.00488,-0.0122,0.01952,0.01708,0.01464,-0.00488,0,0.05856,0.16104,0.14152,0.07808,0.02928
0.00488,-0.01952,0.03416,0.03172,0.02928,-0.0122,0,0.06832,0.17568,0.16104,0.08784,0.03904
0.02928,-0.04148,0.05368,0.03904,0.0244,0.00244,0,0.06832,0.18544,0.16592,0.10736,0.0488
0.03416,-0.0488,0.06344,0.04636,0.02928,0.00244,-0.00976,0.08296,0.20496,0.18544,0.12688,0.05856
0.03904,-0.06344,0.08784,0.06832,0.0488,-0.00488,-0.00976,0.08296,0.21472,0.20496,0.1464,0.06344
0.05368,-0.08296,0.11224,0.0854,0.05856,-0.00244,-0.01952,0.08784,0.23912,0.22936,0.16592,0.07808
0.0732,-0.10492,0.13664,0.10004,0.06344,0.00488,-0.03904,0.09272,0.2684,0.25864,0.20008,0.10736
0.08296,-0.11956,0.15616,0.11468,0.0732,0.00488,-0.04392,0.09272,0.2928,0.28792,0.2196,0.12688
0.09272,-0.13664,0.18056,0.1342,0.08784,0.00244,-0.05368,0.10736,0.31232,0.33184,0.24888,0.13664
0.10248,-0.1586,0.21472,0.16348,0.11224,-0.00488,-0.06344,0.10736,0.33672,0.36112,0.27816,0.1464
0.11712,-0.18056,0.244,0.18544,0.12688,-0.00488,-0.07808,0.11712,0.3416,0.38552,0.30256,0.16592
0.122,-0.19764,0.27328,0.21228,0.15128,-0.01464,-0.08784,0.11712,0.36112,0.41968,0.32208,0.18056
0.13176,-0.21228,0.2928,0.22692,0.16104,-0.01464,-0.0976,0.11712,0.366,0.43432,0.33672,0.20008
0.13664,-0.22448,0.31232,0.244,0.17568,-0.01952,-0.11224,0.11224,0.38064,0.45384,0.36112,0.21472
0.14152,-0.2318,0.32208,0.25132,0.18056,-0.01952,-0.11224,0.122,0.3904,0.4636,0.38064,0.22936
0.15616,-0.24888,0.3416,0.26352,0.18544,-0.01464,-0.11712,0.122,0.39528,0.47336,0.3904,0.23424
0.15616,-0.2562,0.35624,0.27816,0.20008,-0.02196,-0.122,0.11224,0.40016,0.47824,0.40504,0.23424
0.16104,-0.26352,0.366,0.28548,0.20496,-0.02196,-0.122,0.11712,0.40504,0.48312,0.41968,0.244
0.15616,-0.26596,0.37576,0.29768,0.2196,-0.03172,-0.12688,0.11712,0.39528,0.48312,0.42456,0.244
0.15616,-0.26596,0.37576,0.29768,0.2196,-0.03172,-0.12688,0.11712,0.3904,0.47824,0.42456,0.244
0.15616,-0.26596,0.37576,0.29768,0.2196,-0.03172,-0.12688,0.11224,0.3904,0.45872,0.4148,0.244
0.15616,-0.26596,0.37576,0.29768,0.2196,-0.03172,-0.12688,0.0976,0.37088,0.44896,0.40016,0.23424
0.13664,-0.24644,0.35624,0.28792,0.2196,-0.04148,-0.11712,0.08784,0.34648,0.43432,0.37088,0.22448
0.12688,-0.2318,0.33672,0.27328,0.20984,-0.04148,-0.11224,0.08296,0.32696,0.4148,0.35136,0.20008
0.10736,-0.21716,0.32696,0.27328,0.2196,-0.05612,-0.10248,0.0732,0.29768,0.38064,0.32208,0.17568
0.09272,-0.1952,0.29768,0.25132,0.20496,-0.05612,-0.0976,0.06832,0.2684,0.34648,0.29768,0.15128
0.07808,-0.18056,0.28304,0.244,0.20496,-0.06344,-0.07808,0.05856,0.23912,0.30744,0.25864,0.14152
0.05856,-0.15616,0.25376,0.22448,0.1952,-0.06832,-0.06832,0.05368,0.20984,0.27328,0.22936,0.122
0.04392,-0.1342,0.22448,0.20252,0.18056,-0.06832,-0.05856,0.03416,0.18056,0.23424,0.20496,0.11224
0.03904,-0.11468,0.19032,0.1708,0.15128,-0.05612,-0.0488,0.02928,0.15128,0.20008,0.1708,0.09272
0.03416,-0.09272,0.15128,0.1342,0.11712,-0.04148,-0.04392,0.03416,0.12688,0.17568,0.15128,0.07808
0.01952,-0.0732,0.12688,0.11712,0.10736,-0.04392,-0.03416,0.0244,0.11712,0.13664,0.122,0.05856
0.01464,-0.06344,0.11224,0.10492,0.0976,-0.04148,-0.0244,0.0244,0.10248,0.122,0.0976,0.05368
0.00488,-0.04636,0.08784,0.0854,0.08296,-0.03904,-0.01952,0.01464,0.08784,0.10248,0.07808,0.04392
0,-0.03416,0.06832,0.06832,0.06832,-0.03416,-0.01952,0.01464,0.07808,0.08784,0.06344,0.03416
-0.00488,-0.0244,0.05368,0.05612,0.05856,-0.03172,-0.01464,0.00976,0.05368,0.0732,0.05856,0.02928
-0.01952,-0.00976,0.03904,0.0488,0.05856,-0.03904,-0.00976,0.01464,0.0488,0.06344,0.04392,0.0244
-0.01952,-0.00732,0.03416,0.04392,0.05368,-0.0366,-0.00976,0.01464,0.03904,0.05368,0.03904,0.01952
-0.0244,0.00244,0.01952,0.03172,0.04392,-0.03416,0.00488,0.01464,0.0244,0.03416,0.0244,0.01464
-0.02928,0.00976,0.00976,0.0244,0.03904,-0.03416,0.00488,0.01952,0.01464,0.02928,0.01952,0.00488
-0.03416,0.01464,0.00488,0.02196,0.03904,-0.0366,0.00976,0.01464,0.00488,0.01464,0.00976,-0.00488
-0.03904,0.01952,0,0.01952,0.03904,-0.03904,0.00976,0.00976,0.00488,0.00488,0.00976,0.00488
-0.02928,0.0122,0.00488,0.01952,0.03416,-0.03172,0.01464,0.00976,0.00976,-0.00488,0.00976,0
-0.02928,0.0122,0.00488,0.01952,0.03416,-0.03172,0.01464,0.00976,0.00976,-0.00976,0.00488,0
-0.0244,0.00976,0.00488,0.01708,0.02928,-0.02684,0.00976,0.01464,0.00976,-0.00488,0.00488,0.00488
-0.0244,0.0122,0,0.0122,0.0244,-0.0244,0.00976,0.00976,0.01464,-0.00976,0.00488,0.00488
-0.03416,0.02196,-0.00976,0.00732,0.0244,-0.02928,0.00976,0.00976,0.01464,-0.00488,0.00488,0.00488
-0.03416,0.02196,-0.00976,0.00732,0.0244,-0.02928,0.00976,0.00976,0.01464,0.00488,0.00488,0.00488
-0.03416,0.01708,0,0.01708,0.03416,-0.03416,0.01464,0.00976,0.01464,0.01952,0.01464,0.00488
-0.03416,0.01708,0,0.01708,0.03416,-0.03416,0.01464,0.00976,0.01464,0.0244,0.00976,0.00488
-0.0244,0.0122,0,0.0122,0.0244,-0.0244,0.00488,0.00976,0.01464,0.01952,0.01464,-0.00488
-0.0244,0.00976,0.00488,0.01708,0.02928,-0.02684,0.00488,0.00976,0.01952,0.0244,0.01464,-0.00488
-0.01952,0.00244,0.01464,0.0244,0.03416,-0.02684,0.00976,0.01952,0.00976,0.01464,0.00488,0.00488
-0.01952,0.00244,0.01464,0.0244,0.03416,-0.02684,0.00976,0.01952,0.01464,0.01952,0.00976,0.00488
-0.00976,-0.00732,0.0244,0.02928,0.03416,-0.02196,0,0.01952,0.01464,0.00976,0.00976,0.00488
-0.00488,-0.01464,0.03416,0.0366,0.03904,-0.02196,0,0.01952,0.01464,0.00976,0.01464,0.00976
-0.00488,-0.01708,0.03904,0.04148,0.04392,-0.0244,0,0.0244,0.0244,0.01952,0.02928,0.01464
-0.01464,-0.0122,0.03904,0.04636,0.05368,-0.03416,0.00488,0.0244,0.0244,0.01952,0.02928,0.01464
-0.01952,-0.00488,0.02928,0.03904,0.0488,-0.03416,0,0.01952,0.0244,0.02928,0.03416,0.01464
-0.01952,-0.00732,0.03416,0.04392,0.05368,-0.0366,0,0.01952,0.0244,0.03416,0.03416,0.01952
-0.00976,-0.00976,0.02928,0.03416,0.03904,-0.0244,0,0.0244,0.03416,0.03416,0.0488,0.01952
-0.01464,-0.00976,0.03416,0.04148,0.0488,-0.03172,-0.00488,0.0244,0.03416,0.03904,0.0488,0.01952
-0.01464,-0.00976,0.03416,0.04148,0.0488,-0.03172,-0.00488,0.02928,0.0244,0.0488,0.04392,0.01952
-0.01464,-0.00976,0.03416,0.04148,0.0488,-0.03172,-0.00976,0.02928,0.02928,0.0488,0.04392,0.0244
-0.01464,-0.0122,0.03904,0.04636,0.05368,-0.03416,0,0.02928,0.02928,0.03904,0.0488,0.0244
-0.01464,-0.0122,0.03904,0.04636,0.05368,-0.03416,0,0.03416,0.02928,0.03904,0.04392,0.0244
-0.01464,-0.01708,0.0488,0.05612,0.06344,-0.03904,0,0.01952,0.01952,0.02928,0.04392,0.0244
-0.01464,-0.01708,0.0488,0.05612,0.06344,-0.03904,0,0.01952,0.01952,0.0244,0.04392,0.01952
-0.01464,-0.01708,0.0488,0.05612,0.06344,-0.03904,-0.00976,0.01952,0.01952,0.01464,0.03904,0.01952
-0.01464,-0.01464,0.04392,0.05124,0.05856,-0.0366,-0.00488,0.01952,0.01952,0.00976,0.03904,0.01952
-0.01464,-0.01464,0.04392,0.05124,0.05856,-0.0366,-0.00488,0.01952,0.01464,0.00488,0.03904,0.01952
-0.01464,-0.0122,0.03904,0.04636,0.05368,-0.03416,-0.00488,0.01952,0.01464,0.01464,0.03904,0.01952
-0.01464,-0.0122,0.03904,0.04636,0.05368,-0.03416,-0.00488,0.02928,0.0244,0.0244,0.03904,0.01952
-0.01464,-0.0122,0.03904,0.04636,0.05368,-0.03416,-0.00488,0.02928,0.01952,0.02928,0.03904,0.01952
-0.0244,-0.00244,0.02928,0.04148,0.05368,-0.03904,-0.00488,0.0244,0.00976,0.02928,0.03904,0.01952
-0.0244,0,0.0244,0.0366,0.0488,-0.0366,-0.00488,0.0244,0.00488,0.02928,0.03904,0.01464
-0.0244,0,0.0244,0.0366,0.0488,-0.0366,0,0.0244,0,0.02928,0.0244,0.01464
-0.01952,0,0.01952,0.02928,0.03904,-0.02928,0,0.0244,0,0.01952,0.0244,0.01464
-0.01952,0,0.01952,0.02928,0.03904,-0.02928,0.00488,0.0244,-0.00976,0,0.02928,0.01464
-0.01952,0,0.01952,0.02928,0.03904,-0.02928,0.00488,0.0244,-0.01464,0,0.02928,0.01464
-0.01952,0.00244,0.01464,0.0244,0.03416,-0.02684,0,0.0244,-0.01464,-0.00488,0.02928,0.0244
-0.01952,0.00244,0.01464,0.0244,0.03416,-0.02684,0.00488,0.0244,-0.01464,-0.01464,0.02928,0.0244
-0.01952,0.00244,0.01464,0.0244,0.03416,-0.02684,-0.00488,0.01464,-0.01464,-0.00976,0.02928,0.01464
-0.01952,0.00244,0.01464,0.0244,0.03416,-0.02684,-0.00488,0.01952,-0.01952,-0.00976,0.01952,0.01464
-0.01952,0,0.01952,0.02928,0.03904,-0.02928,0.00488,0.01952,-0.00976,0.00488,0.03416,0.00976
-0.01952,0.00488,0.00976,0.01952,0.02928,-0.0244,0,0.02928,-0.00976,0.00976,0.02928,0.01952
-0.01952,0.00488,0.00976,0.01952,0.02928,-0.0244,-0.00976,0.01952,-0.01952,0,0.01952,0.00976
-0.01952,0.00488,0.00976,0.01952,0.02928,-0.0244,-0.00976,0.01952,-0.01952,0,0.01952,0.00976
-0.01952,0.00488,0.00976,0.01952,0.02928,-0.0244,-0.00488,0.02928,-0.01952,0,0.01952,0.00976
-0.01952,0.00488,0.00976,0.01952,0.02928,-0.0244,-0.00488,0.02928,-0.01952,0,0.01464,0.00976
-0.01952,0,0.01952,0.02928,0.03904,-0.02928,0.00488,0.03904,-0.01952,-0.01464,0.0244,0.00976
-0.01952,0,0.01952,0.02928,0.03904,-0.02928,0.00488,0.03416,-0.01952,-0.01464,0.02928,0.01464
-0.01952,0.00488,0.00976,0.01952,0.02928,-0.0244,0.00488,0.02928,-0.01952,-0.0244,0.01952,0.01464
-0.01952,0.00244,0.01464,0.0244,0.03416,-0.02684,0.00976,0.02928,-0.01952,-0.0244,0.01952,0.01464
-0.00488,-0.00976,0.0244,0.02684,0.02928,-0.01708,0.01464,0.01952,-0.00488,-0.02928,0.01952,0.0244
0,-0.01708,0.03416,0.03416,0.03416,-0.01708,0.01464,0.01952,0,-0.01952,0.0244,0.0244
0.00488,-0.02684,0.0488,0.04636,0.04392,-0.01952,0.00488,0.0244,0,0,0.03416,0.0244
0.00488,-0.0366,0.06832,0.06588,0.06344,-0.02928,-0.00976,0.0244,0.00488,0.00976,0.04392,0.02928
-0.00488,-0.0366,0.07808,0.08052,0.08296,-0.04392,-0.01464,0.01952,0.00976,0.01952,0.03904,0.03904
0,-0.04636,0.09272,0.09272,0.09272,-0.04636,-0.01952,0.01464,0.01464,0.01952,0.0488,0.03904
0,-0.05124,0.10248,0.10248,0.10248,-0.05124,-0.01952,0.01464,0.01464,0.03416,0.0488,0.04392
0.00976,-0.06344,0.11712,0.11224,0.10736,-0.0488,-0.02928,0.00976,0.01952,0.03416,0.05856,0.0488
0.00976,-0.0732,0.13664,0.13176,0.12688,-0.05856,-0.03416,0.00488,0.01952,0.0488,0.06344,0.05856
0.01464,-0.08052,0.1464,0.13908,0.13176,-0.05856,-0.04392,-0.00488,0.0244,0.0488,0.06832,0.06344
0.02928,-0.09028,0.15128,0.13664,0.122,-0.04636,-0.05368,-0.00488,0.0244,0.0488,0.07808,0.06832
0.03904,-0.10004,0.16104,0.14152,0.122,-0.04148,-0.05856,-0.00488,0.0244,0.0488,0.08296,0.06832
0.0488,-0.1098,0.1708,0.1464,0.122,-0.0366,-0.05856,-0.00488,0.0244,0.04392,0.08296,0.0732
0.05856,-0.11712,0.17568,0.1464,0.11712,-0.02928,-0.05856,-0.00488,0.0244,0.04392,0.08784,0.07808
0.05856,-0.11712,0.17568,0.1464,0.11712,-0.02928,-0.06832,-0.00976,0.01464,0.0488,0.08784,0.08296
0.06344,-0.11956,0.17568,0.14396,0.11224,-0.0244,-0.0732,-0.01464,0.00488,0.0488,0.08784,0.08296
0.06344,-0.10736,0.15128,0.11956,0.08784,-0.0122,-0.0732,-0.01464,0.00976,0.0488,0.07808,0.08296
0.06344,-0.10248,0.14152,0.1098,0.07808,-0.00732,-0.0732,-0.01464,0.00488,0.03416,0.0732,0.08296
0.05368,-0.09028,0.12688,0.10004,0.0732,-0.00976,-0.06832,-0.00488,0.00488,0.0488,0.0732,0.0732
0.04392,-0.07564,0.10736,0.0854,0.06344,-0.00976,-0.05856,-0.00488,0.00488,0.03904,0.06832,0.06344
0.0244,-0.05368,0.08296,0.07076,0.05856,-0.01708,-0.02928,0.00976,-0.00488,0.02928,0.05856,0.05368
0.00976,-0.03172,0.05368,0.0488,0.04392,-0.01708,-0.01952,0.01464,-0.00488,0.0244,0.04392,0.04392
-0.00976,-0.00244,0.01464,0.01952,0.0244,-0.01708,0.00976,0.01464,-0.01952,0,0.0244,0.01952
-0.01464,0.0122,-0.00976,-0.00244,0.00488,-0.00976,0.01952,0.01952,-0.0244,-0.01464,0.00976,0
-0.0244,0.02684,-0.02928,-0.01708,-0.00488,-0.00976,0.0244,0.00976,-0.0244,-0.0244,-0.00976,0
-0.02928,0.03416,-0.03904,-0.0244,-0.00976,-0.00976,0.0244,0.00976,-0.03416,-0.02928,-0.01952,-0.00488
-0.02928,0.03904,-0.0488,-0.03416,-0.01952,-0.00488,0.02928,0.00976,-0.03416,-0.03904,-0.01952,-0.00488
-0.02928,0.04148,-0.05368,-0.03904,-0.0244,-0.00244,0.02928,0.00976,-0.03416,-0.03904,-0.0244,-0.00488
-0.03416,0.04636,-0.05856,-0.04148,-0.0244,-0.00488,0.01952,0.00976,-0.04392,-0.02928,-0.01952,-0.01952
-0.03416,0.04636,-0.05856,-0.04148,-0.0244,-0.00488,0.0244,0.00976,-0.04392,-0.0244,-0.01952,-0.01952
-0.02928,0.04392,-0.05856,-0.04392,-0.02928,0,0.0244,0.00976,-0.0488,-0.0244,-0.01952,-0.01952
-0.02928,0.04636,-0.06344,-0.0488,-0.03416,0.00244,0.0244,0.00976,-0.04392,-0.0244,-0.01464,-0.01952
-0.03416,0.0488,-0.06344,-0.04636,-0.02928,-0.00244,0.0244,0.01464,-0.04392,-0.0244,-0.0244,-0.02928
-0.03904,0.05124,-0.06344,-0.04392,-0.0244,-0.00732,0.02928,0.01464,-0.04392,-0.0244,-0.0244,-0.02928
-0.03904,0.05612,-0.0732,-0.05368,-0.03416,-0.00244,0.03904,0.01464,-0.03904,-0.02928,-0.01952,-0.0244
-0.03904,0.061,-0.08296,-0.06344,-0.04392,0.00244,0.04392,0.01952,-0.02928,-0.03416,-0.02928,-0.03416
-0.0488,0.06588,-0.08296,-0.05856,-0.03416,-0.00732,0.06832,0.04392,0.01464,-0.00976,-0.03904,-0.04392
-0.05368,0.06344,-0.0732,-0.04636,-0.01952,-0.01708,0.08784,0.08296,0.09272,0.0488,-0.01464,-0.03904
-0.0244,0.02196,-0.01952,-0.00732,0.00488,-0.01464,0.08784,0.11712,0.17568,0.15616,0.07808,0
0.05368,-0.06832,0.08296,0.05612,0.02928,0.0122,0.0488,0.15128,0.26352,0.3172,0.23912,0.07808
0.16104,-0.21472,0.2684,0.18788,0.10736,0.02684,-0.06832,0.14152,0.28304,0.5124,0.488,0.22448
0.30256,-0.4148,0.52704,0.37576,0.22448,0.03904,-0.25376,0.0732,0.21472,0.68808,0.79544,0.4148
0.44408,-0.62464,0.8052,0.58316,0.36112,0.04148,-0.46848,-0.04392,0.09272,0.84912,1.10288,0.61488
0.54656,-0.80032,1.05408,0.7808,0.50752,0.01952,-0.66856,-0.19032,-0.09272,0.89304,1.342,0.79056
0.61488,-0.90768,1.20048,0.89304,0.5856,0.01464,-0.8296,-0.33672,-0.28792,0.83936,1.44936,0.9028
0.59048,-0.8906,1.19072,0.89548,0.60024,-0.00488,-0.88816,-0.45384,-0.47336,0.66368,1.36152,0.9028
0.49288,-0.76128,1.02968,0.78324,0.5368,-0.02196,-0.82472,-0.52216,-0.61,0.40016,1.08824,0.79544
0.3416,-0.55876,0.77592,0.60512,0.43432,-0.04636,-0.67832,-0.52704,-0.68808,0.122,0.732,0.61976
0.17568,-0.33916,0.50264,0.4148,0.32696,-0.07564,-0.49776,-0.45384,-0.67344,-0.10736,0.38552,0.40504
0.05856,-0.16836,0.27816,0.24888,0.2196,-0.08052,-0.3172,-0.35136,-0.5856,-0.23912,0.12688,0.22936
-0.00488,-0.061,0.12688,0.12932,0.13176,-0.06832,-0.19032,-0.244,-0.4636,-0.27816,0,0.10736
-0.03416,-0.00244,0.03904,0.05612,0.0732,-0.05368,-0.11224,-0.15616,-0.32208,-0.22936,-0.04392,0.03904
-0.03416,0.0244,-0.01464,0.00244,0.01952,-0.02684,-0.05368,-0.08296,-0.1952,-0.1464,-0.0488,0.01464
-0.03416,0.03904,-0.04392,-0.02684,-0.00976,-0.0122,-0.01952,-0.0488,-0.11712,-0.08784,-0.04392,0
-0.04392,0.05612,-0.06832,-0.04636,-0.0244,-0.00976,0.00976,-0.0244,-0.0732,-0.06344,-0.04392,-0.01952
-0.04392,0.06832,-0.09272,-0.07076,-0.0488,0.00244,0.03904,0.00488,-0.0488,-0.0488,-0.0488,-0.0244
-0.0488,0.07564,-0.10248,-0.07808,-0.05368,0.00244,0.04392,0.0244,-0.03904,-0.03904,-0.05368,-0.03416
-0.0488,0.08052,-0.11224,-0.08784,-0.06344,0.00732,0.05368,0.02928,-0.02928,-0.03904,-0.05368,-0.03416
-0.0488,0.08296,-0.11712,-0.09272,-0.06832,0.00976,0.05856,0.03416,-0.02928,-0.0488,-0.05856,-0.04392
-0.0488,0.08296,-0.11712,-0.09272,-0.06832,0.00976,0.05856,0.03416,-0.01952,-0.0488,-0.05856,-0.0488
-0.0488,0.08296,-0.11712,-0.09272,-0.06832,0.00976,0.06344,0.03904,-0.00976,-0.0488,-0.0732,-0.0488
-0.04392,0.08052,-0.11712,-0.09516,-0.0732,0.01464,0.06344,0.0488,-0.00488,-0.0488,-0.06832,-0.0488
-0.04392,0.08052,-0.11712,-0.09516,-0.0732,0.01464,0.06344,0.03904,0.00488,-0.0488,-0.06344,-0.0488
-0.04392,0.07808,-0.11224,-0.09028,-0.06832,0.0122,0.06344,0.03904,0.00976,-0.03904,-0.05856,-0.0488
-0.04392,0.07076,-0.0976,-0.07564,-0.05368,0.00488,0.06344,0.03904,0.0244,-0.03416,-0.0488,-0.03416
-0.04392,0.07076,-0.0976,-0.07564,-0.05368,0.00488,0.06344,0.03904,0.0244,-0.01952,-0.04392,-0.03416
-0.04392,0.07076,-0.0976,-0.07564,-0.05368,0.00488,0.06344,0.03904,0.02928,-0.01464,-0.04392,-0.03416
-0.04392,0.07076,-0.0976,-0.07564,-0.05368,0.00488,0.06344,0.04392,0.02928,-0.00976,-0.03904,-0.03416
-0.03904,0.07076,-0.10248,-0.08296,-0.06344,0.0122,0.06344,0.0488,0.0244,0,-0.03904,-0.03416
-0.03904,0.07076,-0.10248,-0.08296,-0.06344,0.0122,0.06344,0.05368,0.02928,0,-0.03904,-0.02928
-0.03904,0.06588,-0.09272,-0.0732,-0.05368,0.00732,0.06832,0.05856,0.03416,0.00976,-0.03416,-0.02928
-0.03904,0.06344,-0.08784,-0.06832,-0.0488,0.00488,0.06832,0.05856,0.03416,0.00976,-0.03416,-0.0244
-0.04392,0.06832,-0.09272,-0.07076,-0.0488,0.00244,0.06344,0.05368,0.02928,0.00488,-0.03416,-0.02928
-0.04392,0.06588,-0.08784,-0.06588,-0.04392,0,0.06344,0.05368,0.02928,-0.00488,-0.03416,-0.02928
-0.03416,0.061,-0.08784,-0.07076,-0.05368,0.00976,0.05856,0.05368,0.03416,-0.00488,-0.03416,-0.02928
-0.02928,0.05368,-0.07808,-0.06344,-0.0488,0.00976,0.05856,0.0488,0.03904,0.00488,-0.02928,-0.0244
-0.02928,0.0488,-0.06832,-0.05368,-0.03904,0.00488,0.05368,0.0488,0.04392,0.01464,-0.0244,-0.0244
-0.0244,0.04392,-0.06344,-0.05124,-0.03904,0.00732,0.05368,0.05368,0.04392,0.0244,-0.01952,-0.0244
-0.03416,0.0488,-0.06344,-0.04636,-0.02928,-0.00244,0.0488,0.04392,0.05856,0.03416,-0.01952,-0.0244
-0.02928,0.04392,-0.05856,-0.04392,-0.02928,0,0.0488,0.0488,0.06344,0.03904,-0.01464,-0.01952
-0.02928,0.04148,-0.05368,-0.03904,-0.0244,-0.00244,0.03904,0.0488,0.06832,0.03904,-0.01952,-0.01952
-0.0244,0.0366,-0.0488,-0.0366,-0.0244,0,0.03904,0.0488,0.06832,0.04392,-0.01952,-0.01464
-0.01464,0.02684,-0.03904,-0.03172,-0.0244,0.00488,0.03904,0.06344,0.08296,0.0488,-0.00488,0
-0.01952,0.02928,-0.03904,-0.02928,-0.01952,0,0.03904,0.06832,0.08296,0.05856,0.00488,0.00488
-0.01952,0.0244,-0.02928,-0.01952,-0.00976,-0.00488,0.0488,0.06832,0.09272,0.05856,0.01464,0.00976
-0.01464,0.01952,-0.0244,-0.01708,-0.00976,-0.00244,0.04392,0.06832,0.10248,0.06344,0.01464,0.01464
-0.00488,0.00976,-0.01464,-0.0122,-0.00976,0.00244,0.02928,0.06832,0.11224,0.0732,0.01952,0.01952
0,0.00244,-0.00488,-0.00488,-0.00488,0.00244,0.02928,0.06832,0.122,0.08784,0.02928,0.0244
0,-0.00244,0.00488,0.00488,0.00488,-0.00244,0.01952,0.0732,0.12688,0.09272,0.03416,0.02928
0.00976,-0.0122,0.01464,0.00976,0.00488,0.00244,0.01464,0.07808,0.13664,0.11224,0.04392,0.03416
0.01464,-0.01952,0.0244,0.01708,0.00976,0.00244,0.00976,0.06832,0.16104,0.12688,0.06344,0.03416
0.0244,-0.03172,0.03904,0.02684,0.01464,0.00488,0.00976,0.07808,0.1708,0.1464,0.07808,0.03904
0.03416,-0.04392,0.05368,0.0366,0.01952,0.00732,0,0.08784,0.1952,0.17568,0.09272,0.05368
0.03416,-0.05124,0.06832,0.05124,0.03416,0,0,0.0976,0.21472,0.20984,0.11712,0.05856
0.04392,-0.06588,0.08784,0.06588,0.04392,0,0,0.10736,0.23912,0.22936,0.13664,0.0732
0.05856,-0.0854,0.11224,0.08296,0.05368,0.00244,-0.00488,0.10736,0.25864,0.25376,0.15616,0.08784
0.05856,-0.09272,0.12688,0.0976,0.06832,-0.00488,-0.01952,0.122,0.27328,0.27816,0.1708,0.09272
0.06832,-0.1098,0.15128,0.11712,0.08296,-0.00732,-0.02928,0.12688,0.2928,0.29768,0.20008,0.11712
0.08784,-0.1342,0.18056,0.13664,0.09272,-0.00244,-0.03904,0.12688,0.3172,0.32696,0.22448,0.13664
0.0976,-0.15372,0.20984,0.16104,0.11224,-0.00732,-0.0488,0.12688,0.33672,0.35624,0.25376,0.1464
0.11224,-0.17568,0.23912,0.183,0.12688,-0.00732,-0.06832,0.12688,0.35136,0.38552,0.28304,0.16592
0.11712,-0.18788,0.25864,0.20008,0.14152,-0.0122,-0.0732,0.12688,0.36112,0.4148,0.30744,0.17568
0.122,-0.20252,0.28304,0.22204,0.16104,-0.01952,-0.08784,0.12688,0.38552,0.43432,0.32696,0.20008
0.13176,-0.21716,0.30256,0.23668,0.1708,-0.01952,-0.0976,0.122,0.39528,0.45384,0.35136,0.20984
0.13176,-0.22692,0.32208,0.2562,0.19032,-0.02928,-0.10248,0.13176,0.4148,0.47824,0.37088,0.2196
0.13664,-0.23912,0.3416,0.27328,0.20496,-0.03416,-0.11224,0.13176,0.4148,0.50264,0.38552,0.22936
0.14152,-0.24644,0.35136,0.2806,0.20984,-0.03416,-0.11224,0.12688,0.41968,0.5124,0.39528,0.23912
0.14152,-0.25132,0.36112,0.29036,0.2196,-0.03904,-0.11224,0.12688,0.42456,0.5124,0.40504,0.244
0.1464,-0.2562,0.366,0.2928,0.2196,-0.0366,-0.11712,0.11712,0.4148,0.5124,0.40504,0.244
0.1464,-0.2562,0.366,0.2928,0.2196,-0.0366,-0.11712,0.11712,0.40504,0.49288,0.40504,0.244
0.1464,-0.2562,0.366,0.2928,0.2196,-0.0366,-0.11712,0.11712,0.39528,0.488,0.40504,0.25376
0.14152,-0.25376,0.366,0.29524,0.22448,-0.04148,-0.11712,0.10736,0.37088,0.47336,0.39528,0.244
0.13176,-0.23668,0.3416,0.27572,0.20984,-0.03904,-0.10736,0.10248,0.35624,0.44408,0.37088,0.23424
0.122,-0.2196,0.3172,0.2562,0.1952,-0.0366,-0.10248,0.0976,0.33672,0.4148,0.35136,0.21472
0.11224,-0.2074,0.30256,0.24644,0.19032,-0.03904,-0.08784,0.07808,0.31232,0.38552,0.3172,0.20008
0.09272,-0.183,0.27328,0.22692,0.18056,-0.04392,-0.08296,0.0732,0.28304,0.35136,0.2928,0.18056
0.08296,-0.16592,0.24888,0.2074,0.16592,-0.04148,-0.0732,0.06344,0.25376,0.32208,0.26352,0.15128
0.06344,-0.14152,0.2196,0.18788,0.15616,-0.04636,-0.06344,0.05856,0.22448,0.2928,0.23424,0.13176
0.0488,-0.11468,0.18056,0.15616,0.13176,-0.04148,-0.05368,0.04392,0.1952,0.25376,0.19032,0.11224
0.03904,-0.0976,0.15616,0.13664,0.11712,-0.03904,-0.03904,0.03904,0.16592,0.22448,0.16592,0.0976
0.0244,-0.07808,0.13176,0.11956,0.10736,-0.04148,-0.02928,0.03904,0.1464,0.17568,0.13664,0.09272
0.01952,-0.06588,0.11224,0.10248,0.09272,-0.0366,-0.01952,0.03416,0.11712,0.1464,0.11224,0.07808
0.00976,-0.0488,0.08784,0.08296,0.07808,-0.03416,-0.00976,0.0244,0.09272,0.10736,0.08784,0.05856
0.00488,-0.0366,0.06832,0.06588,0.06344,-0.02928,-0.00976,0.0244,0.07808,0.08296,0.06832,0.0488
-0.00488,-0.02196,0.0488,0.05124,0.05368,-0.02928,-0.01464,0.00976,0.05368,0.06344,0.05856,0.04392
-0.00976,-0.0122,0.03416,0.03904,0.04392,-0.02684,-0.01464,0.00976,0.04392,0.0488,0.05368,0.02928
-0.00976,-0.00976,0.02928,0.03416,0.03904,-0.0244,-0.00976,0.00488,0.04392,0.0488,0.02928,0.0244
-0.00976,-0.00244,0.01464,0.01952,0.0244,-0.01708,-0.00976,0.00488,0.03416,0.03904,0.0244,0.01952
-0.01464,0,0.01464,0.02196,0.02928,-0.02196,-0.00488,0.00488,0.02928,0.03904,0.0244,0.01952
-0.01952,0.00732,0.00488,0.01464,0.0244,-0.02196,-0.00488,0.00976,0.0244,0.03416,0.01464,0.01952
-0.0244,0.0122,0,0.0122,0.0244,-0.0244,0,0.00488,0.0244,0.02928,0.00976,0.00976
-0.02928,0.01464,0,0.01464,0.02928,-0.02928,0.00488,0,0.01952,0.0244,0.00976,0.00976
-0.02928,0.01708,-0.00488,0.00976,0.0244,-0.02684,0.00488,0.00976,0.00976,0.01952,0.00976,0.00976
-0.02928,0.01708,-0.00488,0.00976,0.0244,-0.02684,0.00976,0.01464,0.00976,0.01464,0.00488,0.00976
-0.0244,0.01708,-0.00976,0.00244,0.01464,-0.01952,0.01952,0.00976,0.00976,0.01464,-0.00488,0.01464
-0.0244,0.01708,-0.00976,0.00244,0.01464,-0.01952,0.01952,0.00976,0.01464,0.00976,-0.00488,0.01464
-0.0244,0.01708,-0.00976,0.00244,0.01464,-0.01952,0.00976,0,0.00488,0,-0.01464,0.00488
-0.0244,0.01708,-0.00976,0.00244,0.01464,-0.01952,0.00976,0,0.00488,0,-0.01464,0.00488
-0.0244,0.01708,-0.00976,0.00244,0.01464,-0.01952,0.00488,-0.00976,0.00488,-0.00976,-0.00488,0.01464
-0.0244,0.01708,-0.00976,0.00244,0.01464,-0.01952,0.00488,-0.00976,0.00488,-0.00488,-0.00976,0.01464
-0.03416,0.0244,-0.01464,0.00244,0.01952,-0.02684,0.01464,-0.00976,0.01952,0.01464,0.00488,0.01464
-0.03416,0.0244,-0.01464,0.00244,0.01952,-0.02684,0.00976,-0.00976,0.01952,0.01464,0.00488,0.01464
-0.03904,0.02196,-0.00488,0.01464,0.03416,-0.0366,0.00976,0,0.0244,0.01952,0.00976,0.01464
-0.03904,0.02196,-0.00488,0.01464,0.03416,-0.0366,0.00976,0,0.0244,0.01952,0.00976,0.01464
-0.03416,0.01708,0,0.01708,0.03416,-0.03416,0.00976,0,0.0244,0.02928,0.00488,0.00976
-0.03416,0.01464,0.00488,0.02196,0.03904,-0.0366,0.00976,0,0.0244,0.02928,0.00488,0.01464
-0.03904,0.01464,0.00976,0.02928,0.0488,-0.04392,0.01464,0.00488,0.0244,0.01952,0,0.01464
-0.03904,0.01464,0.00976,0.02928,0.0488,-0.04392,0.01464,0.00488,0.0244,0.01952,0,0.01464
-0.03904,0.0122,0.01464,0.03416,0.05368,-0.04636,0.00976,0,0.0244,0.01464,0.00488,0.01952
-0.03904,0.00976,0.01952,0.03904,0.05856,-0.0488,0.00976,-0.00488,0.0244,0.01464,0.00976,0.01952
-0.02928,0.00488,0.01952,0.03416,0.0488,-0.03904,-0.00488,-0.01464,0.0244,0.01952,0.01952,0.01952
-0.03416,0.00488,0.0244,0.04148,0.05856,-0.04636,-0.00488,-0.00976,0.0244,0.0244,0.01952,0.01952
-0.03416,0.00488,0.0244,0.04148,0.05856,-0.04636,0.00488,-0.00976,0.02928,0.02928,0.0244,0.0244
-0.03416,0.00244,0.02928,0.04636,0.06344,-0.0488,0,-0.00976,0.02928,0.02928,0.02928,0.0244
-0.03416,0.00244,0.02928,0.04636,0.06344,-0.0488,0,-0.01952,0.02928,0.03904,0.0244,0.0244
-0.02928,0,0.02928,0.04392,0.05856,-0.04392,0,-0.01464,0.02928,0.03904,0.0244,0.0244
-0.03416,-0.00244,0.03904,0.05612,0.0732,-0.05368,0,-0.00976,0.02928,0.04392,0.0244,0.01952
-0.03416,-0.00244,0.03904,0.05612,0.0732,-0.05368,0,-0.00976,0.02928,0.04392,0.01952,0.01952
-0.03416,0,0.03416,0.05124,0.06832,-0.05124,0,0,0.01952,0.04392,0.01952,0.01952
-0.03416,0,0.03416,0.05124,0.06832,-0.05124,0.00488,0,0.01952,0.03416,0.01952,0.01952
-0.03416,0.00732,0.01952,0.0366,0.05368,-0.04392,0.00488,-0.00976,0.01464,0.01952,0.01952,0.00976
-0.03416,0.00732,0.01952,0.0366,0.05368,-0.04392,0.00488,-0.00976,0.01464,0.01952,0.01952,0.00976
-0.03416,0.00244,0.02928,0.04636,0.06344,-0.0488,-0.00488,-0.01952,0.01952,0.01464,0.01952,0.00976
-0.03416,0.00244,0.02928,0.04636,0.06344,-0.0488,-0.00488,-0.01952,0.01952,0.01952,0.01952,0.00976
-0.03416,0.00488,0.0244,0.04148,0.05856,-0.04636,-0.00488,-0.0244,0.01952,0.01952,0.01952,0.01464
-0.03416,0.00488,0.0244,0.04148,0.05856,-0.04636,-0.00976,-0.0244,0.01464,0.01952,0.01464,0.01464
-0.03904,0.00732,0.0244,0.04392,0.06344,-0.05124,-0.00976,-0.0244,0.00976,0.0244,0.01464,0.00488
-0.03904,0.00976,0.01952,0.03904,0.05856,-0.0488,-0.00488,-0.0244,0.00976,0.0244,0.01464,0.00488
-0.03904,0.00976,0.01952,0.03904,0.05856,-0.0488,0.00488,-0.0244,0.00488,0.02928,0.00976,0.00488
-0.03904,0.0122,0.01464,0.03416,0.05368,-0.04636,0.00976,-0.0244,0.00488,0.0244,0.00976,0.00488
-0.03904,0.0122,0.01464,0.03416,0.05368,-0.04636,0,-0.0244,0.00488,0.00976,0.00976,0.01464
-0.03904,0.0122,0.01464,0.03416,0.05368,-0.04636,0.00488,-0.0244,0.00488,0.00488,0.00976,0.01464
-0.03904,0.0122,0.01464,0.03416,0.05368,-0.04636,0.00488,-0.01952,-0.00976,0,0.00488,0.01464
-0.03904,0.01464,0.00976,0.02928,0.0488,-0.04392,0.00488,-0.01952,-0.00976,-0.00488,0,0.00976
-0.03904,0.00976,0.01952,0.03904,0.05856,-0.0488,0.01464,-0.02928,0,-0.01464,0.00488,0.00976
-0.03904,0.00976,0.01952,0.03904,0.05856,-0.0488,0.01464,-0.03416,-0.00488,-0.01464,0.00488,0.00976
-0.03904,0.01464,0.00976,0.02928,0.0488,-0.04392,0,-0.0244,-0.00488,-0.00976,-0.00488,0.00976
-0.03904,0.01464,0.00976,0.02928,0.0488,-0.04392,0,-0.0244,-0.00488,0,0.00488,0.00976
-0.03904,0.01464,0.00976,0.02928,0.0488,-0.04392,0.00976,-0.02928,0,0.00976,0.00976,0.00976
-0.0488,0.01952,0.00976,0.03416,0.05856,-0.05368,0,-0.02928,-0.00976,0.00976,0,0.00976
-0.0488,0.01952,0.00976,0.03416,0.05856,-0.05368,0,-0.02928,-0.00976,0.00976,0,0.00976
-0.0488,0.01952,0.00976,0.03416,0.05856,-0.05368,0.00488,-0.03904,-0.01952,0.00976,0,0
-0.0488,0.01952,0.00976,0.03416,0.05856,-0.05368,0.00488,-0.03904,-0.01952,0.00976,-0.00488,0
-0.0488,0.01952,0.00976,0.03416,0.05856,-0.05368,0.01464,-0.02928,-0.01952,-0.00488,0.00488,0
-0.0488,0.01952,0.00976,0.03416,0.05856,-0.05368,0.01464,-0.03416,-0.01952,-0.00488,0.00976,0.00488
-0.0488,0.01952,0.00976,0.03416,0.05856,-0.05368,0.00488,-0.02928,-0.00976,-0.01464,0,0.00488
-0.0488,0.01708,0.01464,0.03904,0.06344,-0.05612,0.00976,-0.02928,-0.00976,-0.01464,0,0.00488
-0.04392,0.01464,0.01464,0.0366,0.05856,-0.05124,0.00488,-0.02928,-0.00488,-0.01952,0,0.01464
-0.03904,0.00732,0.0244,0.04392,0.06344,-0.05124,0.00488,-0.02928,0,-0.00976,0.00488,0.01464
-0.03416,-0.00244,0.03904,0.05612,0.0732,-0.05368,-0.00488,-0.03416,0.00976,0.00976,0.01464,0.0244
-0.03416,-0.0122,0.05856,0.07564,0.09272,-0.06344,-0.01952,-0.03416,0.01464,0.01952,0.0244,0.02928
-0.03416,-0.02196,0.07808,0.09516,0.11224,-0.0732,-0.01464,-0.03904,0.02928,0.03904,0.03904,0.03904
-0.02928,-0.03172,0.09272,0.10736,0.122,-0.07564,-0.01952,-0.04392,0.03416,0.03904,0.0488,0.03904
-0.02928,-0.0366,0.10248,0.11712,0.13176,-0.08052,-0.02928,-0.03416,0.03416,0.05368,0.0488,0.05368
-0.01952,-0.0488,0.11712,0.12688,0.13664,-0.07808,-0.03904,-0.03904,0.03904,0.05368,0.05856,0.05856
-0.01952,-0.05368,0.12688,0.13664,0.1464,-0.08296,-0.03416,-0.04392,0.03904,0.05856,0.05368,0.05856
-0.01464,-0.061,0.13664,0.14396,0.15128,-0.08296,-0.04392,-0.05368,0.04392,0.05856,0.05856,0.06344
0,-0.07564,0.15128,0.15128,0.15128,-0.07564,-0.05368,-0.05368,0.04392,0.05856,0.06832,0.06832
0.00976,-0.0854,0.16104,0.15616,0.15128,-0.07076,-0.05856,-0.05368,0.04392,0.05856,0.0732,0.06832
0.02928,-0.10004,0.1708,0.15616,0.14152,-0.05612,-0.06832,-0.04392,0.03416,0.06344,0.0732,0.0732
0.03904,-0.10736,0.17568,0.15616,0.13664,-0.0488,-0.06832,-0.04392,0.03416,0.06344,0.07808,0.07808
0.0488,-0.11224,0.17568,0.15128,0.12688,-0.03904,-0.07808,-0.0488,0.0244,0.05856,0.07808,0.08296
0.05368,-0.11468,0.17568,0.14884,0.122,-0.03416,-0.08296,-0.05368,0.01464,0.05856,0.07808,0.08296
0.05368,-0.11224,0.1708,0.14396,0.11712,-0.03172,-0.08296,-0.05368,0.01952,0.05856,0.07808,0.08296
0.05368,-0.10736,0.16104,0.1342,0.10736,-0.02684,-0.08296,-0.05368,0.01464,0.04392,0.0732,0.08296
0.03416,-0.08052,0.12688,0.1098,0.09272,-0.02928,-0.06832,-0.04392,0.01464,0.05856,0.06344,0.08296
0.0244,-0.06588,0.10736,0.09516,0.08296,-0.02928,-0.05856,-0.04392,0.01464,0.0488,0.05856,0.0732
0.00488,-0.04392,0.08296,0.08052,0.07808,-0.0366,-0.02928,-0.02928,0.00488,0.03904,0.0488,0.05368
-0.00976,-0.02196,0.05368,0.05856,0.06344,-0.0366,-0.01952,-0.0244,0.00488,0.03416,0.03416,0.04392
-0.02928,0.00244,0.0244,0.03904,0.05368,-0.04148,0,-0.0244,0,0.00976,0.0244,0.02928
-0.03416,0.01708,0,0.01708,0.03416,-0.03416,0.00976,-0.01952,-0.00488,-0.00488,0.00976,0.00976
-0.03416,0.03172,-0.02928,-0.0122,0.00488,-0.01952,0.01464,-0.02928,-0.01464,-0.01464,-0.00976,0.00976
-0.03904,0.03904,-0.03904,-0.01952,0,-0.01952,0.01464,-0.02928,-0.0244,-0.01952,-0.01952,0.00488
-0.03904,0.03904,-0.03904,-0.01952,0,-0.01952,0.01952,-0.02928,-0.0244,-0.02928,-0.01952,0.00488
-0.03904,0.04148,-0.04392,-0.0244,-0.00488,-0.01708,0.01952,-0.02928,-0.0244,-0.02928,-0.0244,0.00488
-0.04392,0.04636,-0.0488,-0.02684,-0.00488,-0.01952,0.01952,-0.02928,-0.03416,-0.01952,-0.01952,0
-0.04392,0.04636,-0.0488,-0.02684,-0.00488,-0.01952,0.0244,-0.02928,-0.03416,-0.01464,-0.01952,0
-0.0488,0.05368,-0.05856,-0.03416,-0.00976,-0.01952,0.01464,-0.01952,-0.02928,-0.01464,-0.02928,-0.00976
-0.0488,0.05612,-0.06344,-0.03904,-0.01464,-0.01708,0.01464,-0.01952,-0.0244,-0.01464,-0.0244,-0.00976
-0.05368,0.05368,-0.05368,-0.02684,0,-0.02684,0.0244,-0.01464,-0.0244,-0.00488,-0.0244,-0.00976
-0.05856,0.05612,-0.05368,-0.0244,0.00488,-0.03172,0.02928,-0.01464,-0.0244,-0.00488,-0.0244,-0.00976
-0.0488,0.05612,-0.06344,-0.03904,-0.01464,-0.01708,0.02928,-0.01464,-0.01952,-0.00976,-0.02928,-0.0244
-0.05856,0.061,-0.06344,-0.03416,-0.00488,-0.02684,0.04392,0,0,-0.01464,-0.03904,-0.03416
-0.06832,0.07076,-0.0732,-0.03904,-0.00488,-0.03172,0.06832,0.0244,0.04392,0.00976,-0.03904,-0.03416
-0.0732,0.06832,-0.06344,-0.02684,0.00976,-0.04148,0.0976,0.06344,0.122,0.05856,-0.0244,-0.03904
-0.03416,0.02684,-0.01952,-0.00244,0.01464,-0.0244,0.0976,0.10736,0.21472,0.16592,0.06832,0.00976
0.04392,-0.06344,0.08296,0.061,0.03904,0.00244,0.03904,0.14152,0.28304,0.33672,0.23912,0.0976
0.16104,-0.21472,0.2684,0.18788,0.10736,0.02684,-0.07808,0.13176,0.2928,0.5124,0.47824,0.23424
0.2928,-0.40016,0.50752,0.36112,0.21472,0.03904,-0.26352,0.05368,0.22448,0.68808,0.77592,0.4148
0.44408,-0.61488,0.78568,0.56364,0.3416,0.05124,-0.47824,-0.06344,0.09272,0.81984,1.0736,0.61488
0.55632,-0.79544,1.03456,0.7564,0.47824,0.03904,-0.68808,-0.2196,-0.10248,0.854,1.30296,0.79056
0.61488,-0.89304,1.1712,0.86376,0.55632,0.02928,-0.83936,-0.366,-0.30744,0.7808,1.38104,0.89304
0.59048,-0.87108,1.15168,0.85644,0.5612,0.01464,-0.88816,-0.49288,-0.49288,0.61488,1.28344,0.89304
0.49288,-0.73688,0.98088,0.73444,0.488,0.00244,-0.83448,-0.55144,-0.62952,0.35136,1.01016,0.77592
0.33184,-0.53436,0.73688,0.57096,0.40504,-0.0366,-0.68808,-0.54656,-0.68808,0.09272,0.67344,0.60024
0.16592,-0.31964,0.47336,0.3904,0.30744,-0.07076,-0.488,-0.48312,-0.66368,-0.11712,0.33672,0.38552
0.0488,-0.1586,0.2684,0.244,0.2196,-0.0854,-0.3172,-0.36112,-0.55632,-0.22936,0.11712,0.2196
-0.0244,-0.05124,0.12688,0.13908,0.15128,-0.08784,-0.18056,-0.26352,-0.43432,-0.25864,-0.01952,0.0976
-0.04392,0.00244,0.03904,0.061,0.08296,-0.06344,-0.11224,-0.17568,-0.30256,-0.20984,-0.05368,0.03904
-0.04392,0.0244,-0.00488,0.01708,0.03904,-0.04148,-0.05368,-0.10248,-0.17568,-0.12688,-0.05856,0.01464
-0.04392,0.03904,-0.03416,-0.0122,0.00976,-0.02684,-0.01952,-0.06832,-0.0976,-0.07808,-0.05368,0
-0.04392,0.05124,-0.05856,-0.0366,-0.01464,-0.01464,0.00976,-0.03416,-0.05368,-0.05368,-0.04392,-0.01952
-0.05368,0.06832,-0.08296,-0.05612,-0.02928,-0.0122,0.02928,-0.01464,-0.02928,-0.02928,-0.05856,-0.0244
-0.05856,0.07076,-0.08296,-0.05368,-0.0244,-0.01708,0.03416,-0.00488,-0.02928,-0.02928,-0.06344,-0.04392
-0.05856,0.07564,-0.09272,-0.06344,-0.03416,-0.0122,0.04392,0,-0.01952,-0.02928,-0.06344,-0.04392
-0.05856,0.08296,-0.10736,-0.07808,-0.0488,-0.00488,0.0488,0.01464,0,-0.02928,-0.07808,-0.05368
-0.05856,0.08296,-0.10736,-0.07808,-0.0488,-0.00488,0.0488,0.01464,0.00976,-0.02928,-0.07808,-0.05856
-0.05856,0.08296,-0.10736,-0.07808,-0.0488,-0.00488,0.05368,0.01952,0.01952,-0.02928,-0.0732,-0.0488
-0.05368,0.08052,-0.10736,-0.08052,-0.05368,0,0.05368,0.02928,0.0244,-0.02928,-0.06832,-0.0488
-0.04392,0.07564,-0.10736,-0.0854,-0.06344,0.00976,0.06344,0.02928,0.03416,-0.02928,-0.0732,-0.0488
-0.04392,0.0732,-0.10248,-0.08052,-0.05856,0.00732,0.06344,0.02928,0.03904,-0.02928,-0.06832,-0.0488
-0.03416,0.06588,-0.0976,-0.08052,-0.06344,0.01464,0.05368,0.02928,0.03416,-0.03416,-0.06832,-0.04392
-0.03416,0.06588,-0.0976,-0.08052,-0.06344,0.01464,0.05368,0.02928,0.03416,-0.01952,-0.06344,-0.04392
-0.04392,0.07564,-0.10736,-0.0854,-0.06344,0.00976,0.05368,0.02928,0.0488,-0.00488,-0.06344,-0.04392
-0.04392,0.07564,-0.10736,-0.0854,-0.06344,0.00976,0.05368,0.03416,0.0488,0,-0.05856,-0.04392
-0.03904,0.06588,-0.09272,-0.0732,-0.05368,0.00732,0.05368,0.02928,0.04392,0.00976,-0.05856,-0.03416
-0.03904,0.06588,-0.09272,-0.0732,-0.05368,0.00732,0.05368,0.03416,0.0488,0.00976,-0.05856,-0.02928
-0.03904,0.06588,-0.09272,-0.0732,-0.05368,0.00732,0.05856,0.03904,0.05368,0.01952,-0.05368,-0.03904
-0.03904,0.06344,-0.08784,-0.06832,-0.0488,0.00488,0.05856,0.03904,0.05368,0.01952,-0.05368,-0.03416
-0.04392,0.06344,-0.08296,-0.061,-0.03904,-0.00244,0.05368,0.03416,0.0488,0.01464,-0.05368,-0.03904
-0.04392,0.061,-0.07808,-0.05612,-0.03416,-0.00488,0.05368,0.03416,0.0488,0.00488,-0.05368,-0.03904
-0.03416,0.05612,-0.07808,-0.061,-0.04392,0.00488,0.0488,0.04392,0.05368,-0.00488,-0.05368,-0.02928
-0.02928,0.0488,-0.06832,-0.05368,-0.03904,0.00488,0.0488,0.03904,0.05856,0.00488,-0.0488,-0.0244
-0.02928,0.05368,-0.07808,-0.06344,-0.0488,0.00976,0.04392,0.03904,0.06344,0.00488,-0.05368,-0.0244
-0.0244,0.0488,-0.0732,-0.061,-0.0488,0.0122,0.04392,0.04392,0.06344,0.01464,-0.0488,-0.0244
-0.0244,0.0488,-0.0732,-0.061,-0.0488,0.0122,0.03904,0.04392,0.07808,0.0244,-0.03904,-0.01464
-0.01952,0.04392,-0.06832,-0.05856,-0.0488,0.01464,0.03904,0.0488,0.08296,0.02928,-0.03416,-0.00976
-0.01952,0.04148,-0.06344,-0.05368,-0.04392,0.0122,0.03904,0.0488,0.0976,0.03904,-0.02928,-0.01952
-0.01464,0.0366,-0.05856,-0.05124,-0.04392,0.01464,0.03904,0.0488,0.0976,0.04392,-0.02928,-0.01464
-0.01464,0.0366,-0.05856,-0.05124,-0.04392,0.01464,0.03904,0.05368,0.10248,0.0488,-0.0244,-0.01952
-0.01952,0.03904,-0.05856,-0.0488,-0.03904,0.00976,0.03904,0.05856,0.10248,0.05856,-0.01464,-0.01464
-0.01952,0.02928,-0.03904,-0.02928,-0.01952,0,0.03904,0.06832,0.122,0.05856,-0.01464,-0.00976
-0.01464,0.0244,-0.03416,-0.02684,-0.01952,0.00244,0.03416,0.06832,0.13176,0.06344,-0.01464,-0.00488
-0.00488,0.01952,-0.03416,-0.03172,-0.02928,0.0122,0.02928,0.07808,0.13176,0.06344,0,0
0,0.0122,-0.0244,-0.0244,-0.0244,0.0122,0.02928,0.07808,0.14152,0.07808,0.00976,0.00488
0.00976,0.00244,-0.01464,-0.01952,-0.0244,0.01708,0.01952,0.08296,0.15616,0.08296,0.01464,0.00976
0.01952,-0.00732,-0.00488,-0.01464,-0.0244,0.02196,0.01464,0.08784,0.16592,0.10248,0.0244,0.01464
0.0244,-0.01464,0.00488,-0.00732,-0.01952,0.02196,0.00976,0.07808,0.19032,0.12688,0.03416,0.0244
0.03416,-0.02684,0.01952,0.00244,-0.01464,0.0244,0.00976,0.08784,0.20008,0.1464,0.0488,0.02928
0.03416,-0.03416,0.03416,0.01708,0,0.01708,0,0.0976,0.22448,0.17568,0.06344,0.04392
0.03416,-0.04148,0.0488,0.03172,0.01464,0.00976,0,0.10736,0.244,0.20008,0.08784,0.0488
0.04392,-0.05612,0.06832,0.04636,0.0244,0.00976,-0.01952,0.11712,0.2684,0.22936,0.10736,0.06344
0.05856,-0.07564,0.09272,0.06344,0.03416,0.0122,-0.0244,0.11712,0.28792,0.25376,0.12688,0.07808
0.07808,-0.0976,0.11712,0.07808,0.03904,0.01952,-0.01952,0.13176,0.30256,0.27816,0.14152,0.08296
0.08784,-0.11468,0.14152,0.0976,0.05368,0.01708,-0.02928,0.13664,0.32208,0.29768,0.1708,0.10736
0.10736,-0.13908,0.1708,0.11712,0.06344,0.02196,-0.0488,0.1464,0.34648,0.32696,0.1952,0.12688
0.11712,-0.1586,0.20008,0.14152,0.08296,0.01708,-0.05856,0.1464,0.366,0.35624,0.22448,0.13664
0.14152,-0.18544,0.22936,0.1586,0.08784,0.02684,-0.07808,0.1464,0.38064,0.38552,0.244,0.15616
0.1464,-0.19764,0.24888,0.17568,0.10248,0.02196,-0.08296,0.1464,0.3904,0.40504,0.2684,0.16592
0.15128,-0.21716,0.28304,0.2074,0.13176,0.00976,-0.0976,0.13664,0.4148,0.43432,0.29768,0.18056
0.16104,-0.2318,0.30256,0.22204,0.14152,0.00976,-0.10736,0.13176,0.42456,0.45384,0.32208,0.19032
0.16104,-0.23668,0.31232,0.2318,0.15128,0.00488,-0.11224,0.13176,0.44408,0.47824,0.3416,0.20008
0.16592,-0.24888,0.33184,0.24888,0.16592,0,-0.122,0.13176,0.44408,0.49288,0.35624,0.20984
0.16104,-0.25132,0.3416,0.26108,0.18056,-0.00976,-0.122,0.13664,0.44896,0.5124,0.366,0.2196
0.16104,-0.2562,0.35136,0.27084,0.19032,-0.01464,-0.122,0.13664,0.45384,0.5124,0.37576,0.22448
0.17568,-0.27084,0.366,0.27816,0.19032,-0.00732,-0.12688,0.13664,0.44408,0.5124,0.38552,0.23424
0.17568,-0.27084,0.366,0.27816,0.19032,-0.00732,-0.12688,0.13664,0.43432,0.49288,0.38552,0.23424
0.17568,-0.26596,0.35624,0.2684,0.18056,-0.00244,-0.11712,0.13664,0.42456,0.488,0.37576,0.23424
0.1708,-0.26352,0.35624,0.27084,0.18544,-0.00732,-0.11712,0.12688,0.40016,0.47336,0.366,0.22448
0.16104,-0.24644,0.33184,0.25132,0.1708,-0.00488,-0.11712,0.122,0.38552,0.45384,0.35136,0.22448
0.15128,-0.22936,0.30744,0.2318,0.15616,-0.00244,-0.11224,0.11712,0.366,0.42456,0.33184,0.20496
0.14152,-0.21228,0.28304,0.21228,0.14152,0,-0.0976,0.0976,0.3416,0.39528,0.29768,0.19032
0.122,-0.18788,0.25376,0.19276,0.13176,-0.00488,-0.09272,0.09272,0.31232,0.36112,0.27328,0.1708
0.10248,-0.16592,0.22936,0.17812,0.12688,-0.0122,-0.08296,0.08296,0.2928,0.33184,0.244,0.15128
0.08296,-0.14152,0.20008,0.1586,0.11712,-0.01708,-0.0732,0.07808,0.26352,0.2928,0.21472,0.13176
0.06832,-0.11468,0.16104,0.12688,0.09272,-0.0122,-0.06344,0.0732,0.22448,0.25376,0.1708,0.10248
0.05856,-0.0976,0.13664,0.10736,0.07808,-0.00976,-0.0488,0.06832,0.1952,0.22448,0.1464,0.08784
0.04392,-0.07808,0.11224,0.09028,0.06832,-0.0122,-0.03904,0.05856,0.17568,0.18544,0.10736,0.0732
0.03904,-0.06588,0.09272,0.0732,0.05368,-0.00732,-0.02928,0.05368,0.1464,0.15616,0.08296,0.05856
0.02928,-0.04392,0.05856,0.04392,0.02928,0,-0.01952,0.04392,0.122,0.11712,0.05856,0.03904
0.0244,-0.03172,0.03904,0.02684,0.01464,0.00488,-0.01952,0.04392,0.0976,0.09272,0.03904,0.02928
0.0244,-0.02196,0.01952,0.00732,-0.00488,0.01464,-0.01464,0.03904,0.08296,0.0732,0.01952,0.0244
0.01952,-0.0122,0.00488,-0.00488,-0.01464,0.01708,-0.01464,0.03904,0.0732,0.05856,0.01464,0.00976
0.01952,-0.00976,0,-0.00976,-0.01952,0.01952,-0.01952,0.03416,0.0732,0.0488,0.00976,0.01464
0.01952,-0.00244,-0.01464,-0.0244,-0.03416,0.02684,-0.01952,0.03416,0.06344,0.03904,0.00488,0.00976
0.01464,0.00488,-0.0244,-0.03172,-0.03904,0.02684,-0.00488,0.03416,0.05856,0.03904,-0.01464,0.00976
0.00976,0.0122,-0.03416,-0.03904,-0.04392,0.02684,-0.00488,0.03904,0.05368,0.03416,-0.0244,0.00976
0.01464,0.0122,-0.03904,-0.04636,-0.05368,0.03416,0,0.04392,0.05368,0.03904,-0.01952,0.00976
0.00976,0.01464,-0.03904,-0.04392,-0.0488,0.02928,0.00488,0.03904,0.0488,0.03416,-0.01952,0.00976
0.00976,0.01708,-0.04392,-0.0488,-0.05368,0.03172,0.00488,0.0488,0.0488,0.02928,-0.02928,0
0.00976,0.01708,-0.04392,-0.0488,-0.05368,0.03172,0.00976,0.05368,0.0488,0.0244,-0.03416,-0.00976
0.00488,0.02196,-0.0488,-0.05124,-0.05368,0.02928,0.00976,0.0488,0.03904,0.0244,-0.03416,-0.01464
0.00488,0.02196,-0.0488,-0.05124,-0.05368,0.02928,0.00976,0.0488,0.04392,0.01952,-0.03416,-0.01464
0.01464,0.01708,-0.0488,-0.05612,-0.06344,0.03904,0.01952,0.0488,0.04392,0.00976,-0.03416,-0.01464
0.01464,0.01708,-0.0488,-0.05612,-0.06344,0.03904,0.01952,0.0488,0.04392,0.00976,-0.03416,-0.01464
0.01464,0.02196,-0.05856,-0.06588,-0.0732,0.04392,0.01464,0.0488,0.05368,0.00976,-0.03416,-0.00488
0.01464,0.02196,-0.05856,-0.06588,-0.0732,0.04392,0.01464,0.0488,0.05368,0.01464,-0.03904,-0.00488
0.00488,0.0244,-0.05368,-0.05612,-0.05856,0.03172,0.01464,0.03904,0.0488,0.0244,-0.03416,-0.00488
0.00488,0.0244,-0.05368,-0.05612,-0.05856,0.03172,0.00976,0.03904,0.0488,0.0244,-0.03416,-0.00488
0,0.02684,-0.05368,-0.05368,-0.05368,0.02684,0.00976,0.03904,0.05368,0.03904,-0.02928,-0.00488
0,0.02684,-0.05368,-0.05368,-0.05368,0.02684,0.00976,0.03904,0.05368,0.03904,-0.02928,-0.00488
0.00488,0.02684,-0.05856,-0.061,-0.06344,0.03416,0.00976,0.03904,0.05368,0.03904,-0.0244,-0.00976
0.00488,0.0244,-0.05368,-0.05612,-0.05856,0.03172,0.00976,0.03904,0.05368,0.03904,-0.0244,-0.00488
0,0.0244,-0.0488,-0.0488,-0.0488,0.0244,0.00488,0.05368,0.05368,0.03904,-0.02928,-0.00488
0,0.0244,-0.0488,-0.0488,-0.0488,0.0244,0.00488,0.05368,0.05368,0.03904,-0.02928,-0.00488
0.00976,0.0122,-0.03416,-0.03904,-0.04392,0.02684,0,0.05856,0.06344,0.04392,-0.01464,-0.00976
0.00976,0.00976,-0.02928,-0.03416,-0.03904,0.0244,0,0.05368,0.06344,0.04392,-0.00976,-0.00976
0.01952,0.00488,-0.02928,-0.03904,-0.0488,0.03416,-0.00488,0.04392,0.05368,0.03904,-0.01952,-0.00976
0.01464,0.00488,-0.0244,-0.03172,-0.03904,0.02684,-0.00488,0.0488,0.05368,0.04392,-0.01952,-0.00976
0.01464,0.00488,-0.0244,-0.03172,-0.03904,0.02684,-0.00488,0.0488,0.06832,0.0488,-0.00488,0.00488
0.01464,0.00244,-0.01952,-0.02684,-0.03416,0.0244,-0.00976,0.0488,0.06832,0.0488,0,0.01464
0.0244,0.00244,-0.02928,-0.04148,-0.05368,0.03904,0,0.0488,0.07808,0.05856,0.00488,0.0244
0.02928,0,-0.02928,-0.04392,-0.05856,0.04392,0,0.05368,0.07808,0.05856,0.00488,0.0244
0.0244,0.00732,-0.03904,-0.05124,-0.06344,0.04392,0,0.0488,0.07808,0.06344,0.00488,0.01952
0.01464,0.0122,-0.03904,-0.04636,-0.05368,0.03416,0,0.0488,0.07808,0.06344,0,0.01952
0.01464,0.00976,-0.03416,-0.04148,-0.0488,0.03172,0,0.05856,0.06832,0.06344,0,0.00976
0.01464,0.00976,-0.03416,-0.04148,-0.0488,0.03172,0.00488,0.05856,0.06832,0.05368,0,0.00976
