i,aVR,ii,aVF,iii,aVL,V1,V2,V3,V4,V5,V6
-0.0244,-0.00732,0.03904,0.05124,0.06344,-0.04392,0.06344,-0.01464,-0.03904,0,-0.01464,-0.0244
-0.00976,-0.0244,0.05856,0.06344,0.06832,-0.03904,0.05368,-0.00976,-0.02928,0.00976,0,-0.00976
-0.01952,-0.0244,0.06832,0.07808,0.08784,-0.05368,0.02928,-0.0244,-0.02928,0.01952,0,-0.00488
-0.01952,-0.0244,0.06832,0.07808,0.08784,-0.05368,-0.01952,-0.05856,-0.05368,0.00488,-0.00976,-0.00976
-0.00488,-0.03172,0.06832,0.07076,0.0732,-0.03904,-0.05368,-0.06832,-0.0732,0,-0.00976,-0.01464
0,-0.03416,0.06832,0.06832,0.06832,-0.03416,-0.05368,-0.06344,-0.07808,0.00488,-0.00976,-0.00976
0.01464,-0.0488,0.08296,0.07564,0.06832,-0.02684,-0.05368,-0.05856,-0.0732,0.00488,-0.00488,0
0.0244,-0.061,0.0976,0.0854,0.0732,-0.0244,-0.0488,-0.05368,-0.0732,0.00488,0,0
0.03416,-0.061,0.08784,0.07076,0.05368,-0.00976,-0.05368,-0.05368,-0.0732,0.00488,-0.00976,0
0.03904,-0.05856,0.07808,0.05856,0.03904,0,-0.05856,-0.06344,-0.09272,-0.00976,-0.01952,-0.00488
0.02928,-0.03904,0.0488,0.03416,0.01952,0.00488,-0.05856,-0.0732,-0.10736,-0.0244,-0.02928,-0.0244
0.0244,-0.03416,0.04392,0.03172,0.01952,0.00244,-0.05856,-0.0732,-0.122,-0.02928,-0.03416,-0.02928
0,-0.01708,0.03416,0.03416,0.03416,-0.01708,-0.04392,-0.0732,-0.10736,-0.02928,-0.03416,-0.02928
-0.01464,0.00732,0,0.00732,0.01464,-0.01464,-0.02928,-0.07808,-0.11712,-0.03904,-0.0488,-0.04392
-0.04392,0.03172,-0.01952,0.00244,0.0244,-0.03416,-0.00976,-0.06832,-0.122,-0.0488,-0.0488,-0.04392
-0.05368,0.0488,-0.04392,-0.01708,0.00976,-0.03172,0,-0.06344,-0.11712,-0.0488,-0.05856,-0.04392
-0.05856,0.05856,-0.05856,-0.02928,0,-0.02928,0,-0.06832,-0.12688,-0.05856,-0.06344,-0.05368
-0.05856,0.06344,-0.06832,-0.03904,-0.00976,-0.0244,0.00488,-0.06832,-0.13176,-0.06832,-0.06832,-0.06344
-0.06344,0.06588,-0.06832,-0.0366,-0.00488,-0.02928,0.00976,-0.06344,-0.13176,-0.0732,-0.08296,-0.06832
-0.06344,0.06832,-0.0732,-0.04148,-0.00976,-0.02684,0.01464,-0.06344,-0.13176,-0.06832,-0.08296,-0.06832
-0.06344,0.07076,-0.07808,-0.04636,-0.01464,-0.0244,0.01464,-0.06344,-0.14152,-0.06832,-0.08784,-0.07808
-0.06344,0.0732,-0.08296,-0.05124,-0.01952,-0.02196,0.01464,-0.05856,-0.14152,-0.0732,-0.08784,-0.07808
-0.05856,0.07564,-0.09272,-0.06344,-0.03416,-0.0122,0.01464,-0.05856,-0.13176,-0.0732,-0.08784,-0.07808
-0.05368,0.07564,-0.0976,-0.07076,-0.04392,-0.00488,0.01952,-0.05856,-0.13176,-0.0732,-0.08784,-0.07808
-0.06344,0.0854,-0.10736,-0.07564,-0.04392,-0.00976,0.01952,-0.05856,-0.13176,-0.0732,-0.08784,-0.07808
-0.06344,0.08784,-0.11224,-0.08052,-0.0488,-0.00732,0.01952,-0.05856,-0.13176,-0.0732,-0.08784,-0.07808
-0.06832,0.0854,-0.10248,-0.06832,-0.03416,-0.01708,0.0244,-0.05368,-0.13176,-0.0732,-0.08784,-0.07808
-0.06832,0.0854,-0.10248,-0.06832,-0.03416,-0.01708,0.0244,-0.05368,-0.13176,-0.0732,-0.08784,-0.08296
-0.05856,0.07564,-0.09272,-0.06344,-0.03416,-0.0122,0.0244,-0.05368,-0.13176,-0.0732,-0.08784,-0.07808
-0.05368,0.0732,-0.09272,-0.06588,-0.03904,-0.00732,0.0244,-0.05368,-0.12688,-0.06832,-0.08784,-0.07808
-0.06344,0.08052,-0.0976,-0.06588,-0.03416,-0.01464,0.0244,-0.0488,-0.12688,-0.06832,-0.08784,-0.07808
-0.06344,0.08784,-0.11224,-0.08052,-0.0488,-0.00732,0.02928,-0.03904,-0.122,-0.06832,-0.08296,-0.07808
-0.06832,0.09516,-0.122,-0.08784,-0.05368,-0.00732,0.05368,-0.0244,-0.122,-0.06832,-0.08784,-0.08784
-0.05856,0.11956,-0.18056,-0.15128,-0.122,0.03172,0.10736,0.05368,-0.0976,-0.0976,-0.13664,-0.14152
-0.06344,0.1342,-0.20496,-0.17324,-0.14152,0.03904,0.15128,0.1464,-0.03904,-0.0732,-0.12688,-0.14152
-0.01952,0.09028,-0.16104,-0.15128,-0.14152,0.061,0.16592,0.26352,0.05856,0.00488,-0.06832,-0.10736
0.11712,-0.04148,-0.03416,-0.09272,-0.15128,0.1342,0.122,0.43432,0.20496,0.15128,0.06832,0.01952
0.25864,-0.2318,0.20496,0.07564,-0.05368,0.15616,-0.01952,0.45384,0.40992,0.4148,0.32208,0.26352
0.43432,-0.44164,0.44896,0.2318,0.01464,0.20984,-0.20496,0.2684,0.43432,0.57584,0.54168,0.50752
0.59048,-0.61976,0.64904,0.3538,0.05856,0.26596,-0.40992,-0.08296,0.24888,0.60024,0.6832,0.7076
0.6832,-0.79056,0.89792,0.55632,0.21472,0.23424,-0.72712,-0.46848,0.0488,0.6344,0.83448,0.92232
0.7564,-0.95404,1.15168,0.77348,0.39528,0.18056,-1.09312,-0.7564,-0.12688,0.68808,0.98576,1.11752
0.74176,-1.00284,1.26392,0.89304,0.52216,0.1098,-1.24928,-0.8784,-0.244,0.73688,1.08824,1.2688
0.70272,-0.94428,1.18584,0.83448,0.48312,0.1098,-1.30296,-0.89792,-0.3416,0.72224,1.13216,1.3176
0.57096,-0.73688,0.9028,0.61732,0.33184,0.11956,-1.21512,-0.90768,-0.50264,0.4636,0.854,1.06384
0.34648,-0.4636,0.58072,0.40748,0.23424,0.05612,-0.93696,-0.83936,-0.54656,0.15128,0.44408,0.6344
0.09272,-0.16592,0.23912,0.19276,0.1464,-0.02684,-0.62952,-0.78568,-0.6344,-0.18544,0.00488,0.16592
0.02928,-0.0366,0.04392,0.02928,0.01464,0.00732,-0.37576,-0.60512,-0.59048,-0.31232,-0.18544,-0.0488
-0.00488,0.02928,-0.05368,-0.05124,-0.0488,0.02196,-0.20008,-0.40016,-0.45872,-0.28304,-0.18544,-0.09272
-0.0244,0.03904,-0.05368,-0.04148,-0.02928,0.00244,-0.13176,-0.27816,-0.32208,-0.18056,-0.13664,-0.07808
-0.03904,0.05368,-0.06832,-0.0488,-0.02928,-0.00488,-0.06832,-0.17568,-0.22448,-0.12688,-0.122,-0.06832
-0.04392,0.06344,-0.08296,-0.061,-0.03904,-0.00244,-0.01952,-0.08296,-0.16592,-0.0976,-0.10248,-0.06832
-0.0488,0.06588,-0.08296,-0.05856,-0.03416,-0.00732,0.02928,-0.0488,-0.14152,-0.09272,-0.08784,-0.0732
-0.0732,0.08784,-0.10248,-0.06588,-0.02928,-0.02196,0.03904,-0.03416,-0.12688,-0.07808,-0.08784,-0.08784
-0.06344,0.09272,-0.122,-0.09028,-0.05856,-0.00244,0.0488,-0.01952,-0.11712,-0.07808,-0.09272,-0.08784
-0.06344,0.09516,-0.12688,-0.09516,-0.06344,0,0.05856,-0.00976,-0.11712,-0.08784,-0.10248,-0.0976
-0.06832,0.09516,-0.122,-0.08784,-0.05368,-0.00732,0.06832,-0.00976,-0.11712,-0.07808,-0.0976,-0.08784
-0.0732,0.10004,-0.12688,-0.09028,-0.05368,-0.00976,0.06832,0,-0.10248,-0.0732,-0.09272,-0.08784
-0.08296,0.10492,-0.12688,-0.0854,-0.04392,-0.01952,0.0732,0,-0.10248,-0.0732,-0.10248,-0.0976
-0.08296,0.10736,-0.13176,-0.09028,-0.0488,-0.01708,0.07808,0.00976,-0.0976,-0.0732,-0.11224,-0.0976
-0.08296,0.11224,-0.14152,-0.10004,-0.05856,-0.0122,0.07808,0.00976,-0.10736,-0.07808,-0.11224,-0.10248
-0.08784,0.11468,-0.14152,-0.0976,-0.05368,-0.01708,0.08296,0.00976,-0.10736,-0.07808,-0.11224,-0.10248
-0.07808,0.10736,-0.13664,-0.0976,-0.05856,-0.00976,0.08296,0.01464,-0.09272,-0.07808,-0.10736,-0.10248
-0.07808,0.10736,-0.13664,-0.0976,-0.05856,-0.00976,0.08296,0.01464,-0.09272,-0.07808,-0.10248,-0.10248
-0.08296,0.1098,-0.13664,-0.09516,-0.05368,-0.01464,0.08296,0.01952,-0.09272,-0.07808,-0.10248,-0.10248
-0.08296,0.1098,-0.13664,-0.09516,-0.05368,-0.01464,0.08784,0.01952,-0.09272,-0.07808,-0.10248,-0.10248
-0.07808,0.10736,-0.13664,-0.0976,-0.05856,-0.00976,0.07808,0.01464,-0.09272,-0.07808,-0.10248,-0.10248
-0.07808,0.10736,-0.13664,-0.0976,-0.05856,-0.00976,0.07808,0.01464,-0.09272,-0.07808,-0.10248,-0.10248
-0.07808,0.10736,-0.13664,-0.0976,-0.05856,-0.00976,0.08784,0.01464,-0.08784,-0.06832,-0.10736,-0.10248
-0.07808,0.10736,-0.13664,-0.0976,-0.05856,-0.00976,0.09272,0.01952,-0.08784,-0.06832,-0.10248,-0.10248
-0.0732,0.10248,-0.13176,-0.09516,-0.05856,-0.00732,0.09272,0.01952,-0.08784,-0.0732,-0.10248,-0.0976
-0.0732,0.10248,-0.13176,-0.09516,-0.05856,-0.00732,0.09272,0.01952,-0.08296,-0.0732,-0.10248,-0.0976
-0.0732,0.10004,-0.12688,-0.09028,-0.05368,-0.00976,0.09272,0.0244,-0.08296,-0.0732,-0.10248,-0.11224
-0.0732,0.10004,-0.12688,-0.09028,-0.05368,-0.00976,0.09272,0.0244,-0.08296,-0.0732,-0.10248,-0.11224
-0.0732,0.10004,-0.12688,-0.09028,-0.05368,-0.00976,0.09272,0.0244,-0.08296,-0.06832,-0.10248,-0.11224
-0.0732,0.10004,-0.12688,-0.09028,-0.05368,-0.00976,0.09272,0.02928,-0.08296,-0.0732,-0.10248,-0.11224
-0.0732,0.10248,-0.13176,-0.09516,-0.05856,-0.00732,0.09272,0.02928,-0.08296,-0.06344,-0.10248,-0.10736
-0.0732,0.10492,-0.13664,-0.10004,-0.06344,-0.00488,0.09272,0.03416,-0.07808,-0.05856,-0.10248,-0.10248
-0.06832,0.10004,-0.13176,-0.0976,-0.06344,-0.00244,0.08784,0.03904,-0.07808,-0.06832,-0.10248,-0.10248
-0.0732,0.10248,-0.13176,-0.09516,-0.05856,-0.00732,0.08784,0.04392,-0.07808,-0.06344,-0.10248,-0.10248
-0.06832,0.0976,-0.12688,-0.09272,-0.05856,-0.00488,0.08784,0.05368,-0.06344,-0.05368,-0.10248,-0.10248
-0.06832,0.10004,-0.13176,-0.0976,-0.06344,-0.00244,0.08784,0.06344,-0.06344,-0.05368,-0.0976,-0.10248
-0.06344,0.09272,-0.122,-0.09028,-0.05856,-0.00244,0.09272,0.06832,-0.06832,-0.05856,-0.0976,-0.0976
-0.06344,0.09028,-0.11712,-0.0854,-0.05368,-0.00488,0.09272,0.06832,-0.06344,-0.05368,-0.0976,-0.0976
-0.05856,0.08784,-0.11712,-0.08784,-0.05856,0,0.09272,0.0732,-0.05368,-0.04392,-0.0976,-0.0976
-0.05856,0.0854,-0.11224,-0.08296,-0.05368,-0.00244,0.09272,0.08296,-0.04392,-0.04392,-0.09272,-0.0976
-0.05856,0.0854,-0.11224,-0.08296,-0.05368,-0.00244,0.08784,0.10248,-0.0488,-0.0488,-0.08784,-0.09272
-0.04392,0.0732,-0.10248,-0.08052,-0.05856,0.00732,0.09272,0.11224,-0.03904,-0.03904,-0.08784,-0.08784
-0.04392,0.07564,-0.10736,-0.0854,-0.06344,0.00976,0.09272,0.122,-0.03904,-0.0244,-0.07808,-0.08784
-0.03416,0.06832,-0.10248,-0.0854,-0.06832,0.01708,0.09272,0.13176,-0.02928,-0.0244,-0.07808,-0.08296
-0.02928,0.06344,-0.0976,-0.08296,-0.06832,0.01952,0.08784,0.14152,-0.00976,-0.01464,-0.05856,-0.08296
-0.01952,0.05612,-0.09272,-0.08296,-0.0732,0.02684,0.08784,0.15616,-0.00488,-0.00976,-0.05856,-0.07808
-0.01952,0.05368,-0.08784,-0.07808,-0.06832,0.0244,0.08784,0.16592,-0.00488,0,-0.0488,-0.05856
-0.00488,0.04148,-0.07808,-0.07564,-0.0732,0.03416,0.08296,0.18056,0,0.00488,-0.04392,-0.05856
0,0.03172,-0.06344,-0.06344,-0.06344,0.03172,0.07808,0.19032,0,0.00488,-0.03416,-0.0488
0.00976,0.0244,-0.05856,-0.06344,-0.06832,0.03904,0.0732,0.20496,0.00976,0.00976,-0.0244,-0.04392
0.01952,0.01708,-0.05368,-0.06344,-0.0732,0.04636,0.0732,0.20984,0.01464,0.01952,-0.03416,-0.03416
0.02928,0.00732,-0.04392,-0.05856,-0.0732,0.05124,0.06344,0.21472,0.01952,0.0244,-0.0244,-0.0244
0.03416,0,-0.03416,-0.05124,-0.06832,0.05124,0.05856,0.21472,0.02928,0.03904,-0.00976,-0.01952
0.03904,-0.00732,-0.0244,-0.04392,-0.06344,0.05124,0.05368,0.22448,0.03416,0.04392,-0.00976,-0.01464
0.0488,-0.01464,-0.01952,-0.04392,-0.06832,0.05856,0.05856,0.23424,0.0244,0.03904,-0.00488,-0.01464
0.05368,-0.01952,-0.01464,-0.04148,-0.06832,0.061,0.0488,0.23424,0.0244,0.04392,0.00976,0
0.06344,-0.03172,0,-0.03172,-0.06344,0.06344,0.03904,0.22448,0.03416,0.05368,0.01464,0.00976
0.0732,-0.04392,0.01464,-0.02196,-0.05856,0.06588,0.03416,0.2196,0.03416,0.05368,0.01464,0.00976
0.0732,-0.04636,0.01952,-0.01708,-0.05368,0.06344,0.03416,0.21472,0.02928,0.0488,0.01464,0.01464
0.0732,-0.04636,0.01952,-0.01708,-0.05368,0.06344,0.02928,0.20496,0.0244,0.0488,0.01952,0.01952
0.07808,-0.05612,0.03416,-0.00488,-0.04392,0.061,0.01952,0.20008,0.01952,0.0488,0.00976,0.0244
0.07808,-0.05612,0.03416,-0.00488,-0.04392,0.061,0.01952,0.1952,0.01952,0.0488,0.00976,0.02928
0.08296,-0.06588,0.0488,0.00732,-0.03416,0.05856,0.00976,0.1952,0.02928,0.05856,0.0244,0.03416
0.08296,-0.07076,0.05856,0.01708,-0.0244,0.05368,0.00488,0.18544,0.02928,0.05856,0.0244,0.03416
0.08296,-0.0732,0.06344,0.02196,-0.01952,0.05124,0,0.17568,0.02928,0.05856,0.02928,0.03904
0.08296,-0.0732,0.06344,0.02196,-0.01952,0.05124,0,0.1708,0.02928,0.05856,0.02928,0.04392
0.09272,-0.0732,0.05368,0.00732,-0.03904,0.06588,0,0.16592,0.03904,0.06344,0.03416,0.0488
0.09272,-0.07808,0.06344,0.01708,-0.02928,0.061,0,0.16592,0.04392,0.06832,0.03904,0.0488
0.08296,-0.07808,0.0732,0.03172,-0.00976,0.04636,0,0.16592,0.05368,0.07808,0.05368,0.05856
0.07808,-0.07808,0.07808,0.03904,0,0.03904,0.00488,0.15128,0.05856,0.08296,0.05368,0.06344
0.08296,-0.07808,0.0732,0.03172,-0.00976,0.04636,0.01464,0.14152,0.05368,0.07808,0.05368,0.05368
0.0732,-0.06832,0.06344,0.02684,-0.00976,0.04148,0.01952,0.13664,0.05368,0.07808,0.05368,0.05368
0.05368,-0.05612,0.05856,0.03172,0.00488,0.0244,0.0244,0.12688,0.05856,0.08296,0.05368,0.04392
0.0488,-0.05124,0.05368,0.02928,0.00488,0.02196,0.02928,0.122,0.05856,0.08296,0.05368,0.04392
0.03416,-0.04636,0.05856,0.04148,0.0244,0.00488,0.02928,0.10736,0.05368,0.0732,0.03904,0.04392
0.02928,-0.04148,0.05368,0.03904,0.0244,0.00244,0.03416,0.08784,0.04392,0.0732,0.03904,0.02928
0.01464,-0.02196,0.02928,0.02196,0.01464,0,0.02928,0.08784,0.02928,0.06344,0.03416,0.03416
0.00976,-0.01708,0.0244,0.01952,0.01464,-0.00244,0.02928,0.07808,0.01952,0.05368,0.02928,0.0244
-0.00488,-0.00244,0.00976,0.0122,0.01464,-0.00976,0.02928,0.05368,0.00976,0.05368,0.00976,0.00976
-0.00488,0,0.00488,0.00732,0.00976,-0.00732,0.0244,0.0488,0,0.04392,0.00488,0.00976
-0.00488,0.00244,0,0.00244,0.00488,-0.00488,0.0244,0.03416,-0.01952,0.03416,0,0.00488
-0.00976,0.00488,0,0.00488,0.00976,-0.00976,0.0244,0.02928,-0.02928,0.02928,-0.00488,0.00488
-0.01464,0.00976,-0.00488,0.00244,0.00976,-0.0122,0.01464,0.01952,-0.03416,0.02928,-0.00488,-0.00976
-0.01464,0.00976,-0.00488,0.00244,0.00976,-0.0122,0.01464,0.01464,-0.03416,0.02928,-0.00488,-0.00976
-0.01464,0.01464,-0.01464,-0.00732,0,-0.00732,0.0244,0.01464,-0.03416,0.01464,-0.01952,-0.01952
-0.01464,0.01464,-0.01464,-0.00732,0,-0.00732,0.0244,0.00976,-0.03416,0.00976,-0.01952,-0.01952
-0.01952,0.01952,-0.01952,-0.00976,0,-0.00976,0.0244,0.01952,-0.03416,0.01952,-0.01464,-0.01464
-0.01464,0.01464,-0.01464,-0.00732,0,-0.00732,0.0244,0.01952,-0.02928,0.01952,-0.01464,-0.01464
-0.01464,0.0122,-0.00976,-0.00244,0.00488,-0.00976,0.0244,0.00976,-0.03904,0.00976,-0.01464,-0.01464
-0.01952,0.01464,-0.00976,0,0.00976,-0.01464,0.0244,0.00976,-0.03904,0.00488,-0.01464,-0.01464
-0.01464,0.0122,-0.00976,-0.00244,0.00488,-0.00976,0.0244,0.00976,-0.03904,0.00976,-0.01464,-0.01464
-0.00976,0.00976,-0.00976,-0.00488,0,-0.00488,0.02928,0.01464,-0.02928,0.00976,-0.00976,-0.01464
-0.01952,0.01464,-0.00976,0,0.00976,-0.01464,0.02928,0.02928,-0.02928,0.01952,0,-0.01464
-0.01952,0.01464,-0.00976,0,0.00976,-0.01464,0.02928,0.0244,-0.0244,0.01952,0,-0.01464
-0.01952,0.01952,-0.01952,-0.00976,0,-0.00976,0.03904,0.0244,-0.0244,0.01952,-0.00976,-0.00488
-0.01952,0.01952,-0.01952,-0.00976,0,-0.00976,0.03904,0.0244,-0.0244,0.0244,-0.00976,0
-0.00976,0.00976,-0.00976,-0.00488,0,-0.00488,0.03904,0.02928,-0.01464,0.0244,-0.00976,-0.00488
-0.01464,0.0122,-0.00976,-0.00244,0.00488,-0.00976,0.03904,0.02928,-0.01464,0.01952,-0.00976,-0.00488
-0.01464,0.01708,-0.01952,-0.0122,-0.00488,-0.00488,0.03416,0.02928,-0.01464,0.00976,-0.00976,-0.01464
-0.01464,0.01708,-0.01952,-0.0122,-0.00488,-0.00488,0.03416,0.0244,-0.01464,0.00976,-0.01464,-0.01464
-0.0244,0.02196,-0.01952,-0.00732,0.00488,-0.01464,0.03416,0.01952,-0.01464,0.01464,-0.00488,-0.01952
-0.0244,0.02196,-0.01952,-0.00732,0.00488,-0.01464,0.03416,0.01952,-0.01464,0.01464,-0.00488,-0.01464
-0.01952,0.01952,-0.01952,-0.00976,0,-0.00976,0.03416,0.01464,-0.01952,0.01464,-0.01464,-0.01464
-0.01952,0.01952,-0.01952,-0.00976,0,-0.00976,0.03416,0.01464,-0.0244,0.00976,-0.01952,-0.01464
-0.0244,0.0244,-0.0244,-0.0122,0,-0.0122,0.03416,0.01464,-0.02928,0.00976,-0.01952,-0.01952
-0.0244,0.0244,-0.0244,-0.0122,0,-0.0122,0.03416,0.01464,-0.03416,0.00976,-0.01952,-0.01952
-0.01464,0.01708,-0.01952,-0.0122,-0.00488,-0.00488,0.03416,0.00976,-0.0244,0.00488,-0.0244,-0.0244
-0.01464,0.0122,-0.00976,-0.00244,0.00488,-0.00976,0.03416,0.00976,-0.0244,0.00488,-0.0244,-0.0244
-0.01464,0.01952,-0.0244,-0.01708,-0.00976,-0.00244,0.0244,0.01464,-0.03904,0.00488,-0.0244,-0.0244
-0.01464,0.01952,-0.0244,-0.01708,-0.00976,-0.00244,0.0244,0.01464,-0.03904,0,-0.02928,-0.02928
-0.01952,0.02196,-0.0244,-0.01464,-0.00488,-0.00732,0.03416,0.00488,-0.03416,0,-0.02928,-0.03904
-0.01952,0.0244,-0.02928,-0.01952,-0.00976,-0.00488,0.03416,0,-0.03904,-0.00488,-0.02928,-0.03904
-0.02928,0.02928,-0.02928,-0.01464,0,-0.01464,0.03416,0,-0.04392,-0.00488,-0.01952,-0.02928
-0.02928,0.02928,-0.02928,-0.01464,0,-0.01464,0.02928,-0.00488,-0.04392,-0.00488,-0.01952,-0.02928
-0.02928,0.02928,-0.02928,-0.01464,0,-0.01464,0.02928,-0.00488,-0.0488,-0.00976,-0.03416,-0.03416
-0.02928,0.03172,-0.03416,-0.01952,-0.00488,-0.0122,0.02928,-0.00976,-0.0488,-0.00976,-0.03416,-0.03416
-0.02928,0.03416,-0.03904,-0.0244,-0.00976,-0.00976,0.02928,0,-0.05856,-0.01464,-0.03904,-0.03416
-0.02928,0.03904,-0.0488,-0.03416,-0.01952,-0.00488,0.0244,0,-0.05856,-0.01952,-0.04392,-0.03904
-0.02928,0.03904,-0.0488,-0.03416,-0.01952,-0.00488,0.0244,-0.00976,-0.05856,-0.01952,-0.04392,-0.0488
-0.0244,0.0366,-0.0488,-0.0366,-0.0244,0,0.0244,-0.01464,-0.06344,-0.01952,-0.04392,-0.05368
-0.02928,0.03416,-0.03904,-0.0244,-0.00976,-0.00976,0.0244,-0.01464,-0.05856,-0.01952,-0.04392,-0.04392
-0.02928,0.03416,-0.03904,-0.0244,-0.00976,-0.00976,0.0244,-0.01952,-0.05856,-0.0244,-0.0488,-0.04392
-0.01952,0.03172,-0.04392,-0.03416,-0.0244,0.00244,0.01952,-0.00976,-0.05856,-0.0244,-0.03904,-0.03416
-0.01952,0.02928,-0.03904,-0.02928,-0.01952,0,0.01464,-0.01464,-0.06344,-0.0244,-0.03904,-0.03416
-0.01952,0.03416,-0.0488,-0.03904,-0.02928,0.00488,0.0244,-0.01464,-0.06344,-0.02928,-0.0488,-0.04392
-0.01952,0.0366,-0.05368,-0.04392,-0.03416,0.00732,0.0244,-0.01464,-0.06832,-0.02928,-0.0488,-0.0488
-0.02928,0.04636,-0.06344,-0.0488,-0.03416,0.00244,0.0244,-0.0244,-0.06344,-0.03904,-0.05368,-0.0488
-0.03416,0.0488,-0.06344,-0.04636,-0.02928,-0.00244,0.0244,-0.02928,-0.06832,-0.03904,-0.05368,-0.05368
-0.01952,0.0366,-0.05368,-0.04392,-0.03416,0.00732,0.01464,-0.02928,-0.06832,-0.03416,-0.05856,-0.05368
-0.01952,0.03172,-0.04392,-0.03416,-0.0244,0.00244,0.01464,-0.02928,-0.06832,-0.03416,-0.05856,-0.0488
-0.02928,0.04148,-0.05368,-0.03904,-0.0244,-0.00244,0.0244,-0.02928,-0.07808,-0.03416,-0.05856,-0.05856
-0.02928,0.04148,-0.05368,-0.03904,-0.0244,-0.00244,0.0244,-0.02928,-0.07808,-0.03416,-0.05368,-0.05856
-0.03904,0.04392,-0.0488,-0.02928,-0.00976,-0.01464,0.0244,-0.01952,-0.06832,-0.04392,-0.05856,-0.0488
-0.04392,0.04636,-0.0488,-0.02684,-0.00488,-0.01952,0.0244,-0.0244,-0.0732,-0.04392,-0.05856,-0.0488
-0.03416,0.04392,-0.05368,-0.0366,-0.01952,-0.00732,0.03416,-0.03416,-0.0732,-0.03416,-0.05856,-0.05368
-0.03904,0.04636,-0.05368,-0.03416,-0.01464,-0.0122,0.03416,-0.03416,-0.06832,-0.03416,-0.05856,-0.05368
-0.03904,0.0488,-0.05856,-0.03904,-0.01952,-0.00976,0.0244,-0.03416,-0.06832,-0.04392,-0.05856,-0.05368
-0.03904,0.05124,-0.06344,-0.04392,-0.0244,-0.00732,0.0244,-0.03416,-0.06832,-0.04392,-0.05856,-0.05368
-0.03416,0.04392,-0.05368,-0.0366,-0.01952,-0.00732,0.03416,-0.03416,-0.0732,-0.03904,-0.0488,-0.05368
-0.03904,0.04392,-0.0488,-0.02928,-0.00976,-0.01464,0.03416,-0.03416,-0.0732,-0.03904,-0.0488,-0.0488
-0.03416,0.04636,-0.05856,-0.04148,-0.0244,-0.00488,0.04392,-0.0244,-0.06832,-0.03904,-0.05856,-0.05368
-0.03416,0.04636,-0.05856,-0.04148,-0.0244,-0.00488,0.04392,-0.02928,-0.06832,-0.03904,-0.06344,-0.05368
-0.04392,0.05124,-0.05856,-0.0366,-0.01464,-0.01464,0.03416,-0.02928,-0.0732,-0.0488,-0.05856,-0.05856
-0.04392,0.05612,-0.06832,-0.04636,-0.0244,-0.00976,0.0244,-0.02928,-0.0732,-0.0488,-0.06344,-0.06832
-0.03904,0.0488,-0.05856,-0.03904,-0.01952,-0.00976,0.02928,-0.02928,-0.06832,-0.0488,-0.05856,-0.05856
-0.03904,0.05368,-0.06832,-0.0488,-0.02928,-0.00488,0.02928,-0.02928,-0.06832,-0.03904,-0.05856,-0.05856
-0.03904,0.05368,-0.06832,-0.0488,-0.02928,-0.00488,0.02928,-0.02928,-0.06832,-0.03904,-0.05856,-0.05856
-0.0488,0.05856,-0.06832,-0.04392,-0.01952,-0.01464,0.02928,-0.02928,-0.06832,-0.0488,-0.05856,-0.05368
-0.0488,0.05856,-0.06832,-0.04392,-0.01952,-0.01464,0.02928,-0.0244,-0.06832,-0.0488,-0.05856,-0.05368
-0.03904,0.0488,-0.05856,-0.03904,-0.01952,-0.00976,0.03416,-0.0244,-0.06832,-0.03904,-0.0488,-0.04392
-0.02928,0.03904,-0.0488,-0.03416,-0.01952,-0.00488,0.03416,-0.01464,-0.05368,-0.02928,-0.03904,-0.03904
-0.02928,0.0366,-0.04392,-0.02928,-0.01464,-0.00732,0.05368,-0.01464,-0.04392,-0.01952,-0.02928,-0.04392
-0.02928,0.02928,-0.02928,-0.01464,0,-0.01464,0.05368,-0.00976,-0.03416,-0.00976,-0.02928,-0.03416
-0.02928,0.0244,-0.01952,-0.00488,0.00976,-0.01952,0.05856,0,-0.01952,-0.00488,-0.01952,-0.0244
-0.02928,0.01464,0,0.01464,0.02928,-0.02928,0.06832,0,-0.00976,0,-0.01464,-0.01464
-0.0244,0.00732,0.00976,0.02196,0.03416,-0.02928,0.0732,-0.00488,-0.00976,0.00976,-0.01464,-0.01464
-0.00976,-0.00976,0.02928,0.03416,0.03904,-0.0244,0.06344,0,0,0.01952,0,0
-0.00976,-0.01952,0.0488,0.05368,0.05856,-0.03416,0.0488,-0.00488,0.00976,0.02928,0,0.00488
-0.00976,-0.01952,0.0488,0.05368,0.05856,-0.03416,0,-0.03904,-0.00488,0.01464,-0.00976,0
-0.00488,-0.02684,0.05856,0.061,0.06344,-0.03416,-0.03416,-0.0488,-0.0244,0,-0.00976,-0.00488
0,-0.02928,0.05856,0.05856,0.05856,-0.02928,-0.04392,-0.04392,-0.02928,0.00488,-0.00976,0
0.0244,-0.0488,0.0732,0.061,0.0488,-0.0122,-0.03416,-0.0488,-0.0244,0.00488,-0.00488,0
0.03416,-0.05612,0.07808,0.061,0.04392,-0.00488,-0.02928,-0.04392,-0.0244,0.00488,0,0
0.04392,-0.061,0.07808,0.05612,0.03416,0.00488,-0.04392,-0.04392,-0.03416,0.00488,-0.00976,0
0.0488,-0.05856,0.06832,0.04392,0.01952,0.01464,-0.0488,-0.05368,-0.05368,-0.00976,-0.01952,-0.00488
0.03904,-0.04392,0.0488,0.02928,0.00976,0.01464,-0.03904,-0.06344,-0.05856,-0.0244,-0.02928,-0.01464
0.03416,-0.03904,0.04392,0.02684,0.00976,0.0122,-0.03904,-0.06344,-0.0732,-0.02928,-0.03416,-0.01952
0,-0.0122,0.0244,0.0244,0.0244,-0.0122,-0.0244,-0.05368,-0.06832,-0.02928,-0.03416,-0.01952
-0.01464,0.0122,-0.00976,-0.00244,0.00488,-0.00976,-0.00976,-0.05856,-0.07808,-0.03904,-0.0488,-0.03416
-0.0244,0.02684,-0.02928,-0.01708,-0.00488,-0.00976,-0.00976,-0.05856,-0.08296,-0.0488,-0.0488,-0.04392
-0.03416,0.04392,-0.05368,-0.0366,-0.01952,-0.00732,0,-0.05368,-0.07808,-0.0488,-0.05856,-0.05368
-0.0488,0.05368,-0.05856,-0.03416,-0.00976,-0.01952,0.00976,-0.05856,-0.08784,-0.05856,-0.0732,-0.06344
-0.0488,0.05856,-0.06832,-0.04392,-0.01952,-0.01464,0.01464,-0.05856,-0.09272,-0.06832,-0.08784,-0.0732
-0.05368,0.07076,-0.08784,-0.061,-0.03416,-0.00976,0.01952,-0.05368,-0.09272,-0.0732,-0.09272,-0.07808
-0.05368,0.0732,-0.09272,-0.06588,-0.03904,-0.00732,0.0244,-0.05368,-0.09272,-0.06832,-0.09272,-0.07808
-0.05368,0.07564,-0.0976,-0.07076,-0.04392,-0.00488,0.0244,-0.05368,-0.08296,-0.06832,-0.0976,-0.07808
-0.05368,0.07808,-0.10248,-0.07564,-0.0488,-0.00244,0.0244,-0.0488,-0.08296,-0.0732,-0.0976,-0.07808
-0.05856,0.08052,-0.10248,-0.0732,-0.04392,-0.00732,0.0244,-0.0488,-0.09272,-0.0732,-0.08784,-0.07808
-0.05368,0.08052,-0.10736,-0.08052,-0.05368,0,0.02928,-0.0488,-0.09272,-0.0732,-0.08784,-0.07808
-0.06344,0.08052,-0.0976,-0.06588,-0.03416,-0.01464,0.02928,-0.0488,-0.08296,-0.0732,-0.08784,-0.07808
-0.06344,0.08296,-0.10248,-0.07076,-0.03904,-0.0122,0.02928,-0.0488,-0.08296,-0.0732,-0.08784,-0.07808
-0.06832,0.09028,-0.11224,-0.07808,-0.04392,-0.0122,0.03416,-0.04392,-0.09272,-0.0732,-0.08784,-0.07808
-0.06832,0.09028,-0.11224,-0.07808,-0.04392,-0.0122,0.03416,-0.04392,-0.09272,-0.0732,-0.08784,-0.08296
-0.05856,0.08052,-0.10248,-0.0732,-0.04392,-0.00732,0.03416,-0.03416,-0.08296,-0.0732,-0.08784,-0.07808
-0.05368,0.07808,-0.10248,-0.07564,-0.0488,-0.00244,0.03416,-0.03416,-0.07808,-0.06832,-0.08784,-0.07808
-0.05368,0.07564,-0.0976,-0.07076,-0.04392,-0.00488,0.03416,-0.02928,-0.07808,-0.07808,-0.08784,-0.07808
-0.05368,0.07808,-0.10248,-0.07564,-0.0488,-0.00244,0.03904,-0.01952,-0.0732,-0.07808,-0.08296,-0.07808
-0.05856,0.10004,-0.14152,-0.11224,-0.08296,0.0122,0.06344,0.00488,-0.06344,-0.06832,-0.08784,-0.08784
-0.05856,0.12444,-0.19032,-0.16104,-0.13176,0.0366,0.10736,0.06344,-0.05856,-0.0976,-0.13664,-0.14152
-0.05368,0.13908,-0.22448,-0.19764,-0.1708,0.05856,0.1708,0.1464,0.01952,-0.0732,-0.12688,-0.15128
-0.01952,0.10004,-0.18056,-0.1708,-0.16104,0.07076,0.18544,0.244,0.0976,-0.00488,-0.07808,-0.11712
0.0976,-0.02196,-0.05368,-0.10248,-0.15128,0.12444,0.13176,0.4148,0.22448,0.13176,0.0488,0
0.24888,-0.21716,0.18544,0.061,-0.06344,0.15616,0.00976,0.49288,0.45872,0.39528,0.32208,0.27328
0.43432,-0.43188,0.42944,0.21228,-0.00488,0.2196,-0.17568,0.32696,0.52216,0.59536,0.57096,0.5368
0.58072,-0.61488,0.64904,0.35868,0.06832,0.2562,-0.36112,-0.00488,0.35624,0.62952,0.72224,0.73688
0.65392,-0.76616,0.8784,0.55144,0.22448,0.21472,-0.61,-0.36112,0.16592,0.65392,0.83448,0.91256
0.71736,-0.93452,1.15168,0.793,0.43432,0.14152,-0.99552,-0.67832,0.00976,0.73688,1.01504,1.1468
0.71248,-0.99308,1.27368,0.91744,0.5612,0.07564,-1.18096,-0.83936,-0.11712,0.78568,1.15656,1.30784
0.66368,-0.93452,1.20536,0.87352,0.54168,0.061,-1.2444,-0.90768,-0.25376,0.75152,1.1712,1.33712
0.53192,-0.72224,0.91256,0.6466,0.38064,0.07564,-1.13704,-0.88816,-0.43432,0.48312,0.88328,1.06384
0.29768,-0.4148,0.53192,0.38308,0.23424,0.03172,-0.8784,-0.80032,-0.488,0.1708,0.4636,0.62464
0.0732,-0.1464,0.2196,0.183,0.1464,-0.0366,-0.60024,-0.77592,-0.55632,-0.17568,0.01464,0.15616
0.00976,-0.01708,0.0244,0.01952,0.01464,-0.00244,-0.366,-0.61488,-0.55144,-0.30256,-0.17568,-0.06832
-0.03416,0.05856,-0.08296,-0.06588,-0.0488,0.00732,-0.1708,-0.40016,-0.40992,-0.28304,-0.20496,-0.122
-0.05368,0.0732,-0.09272,-0.06588,-0.03904,-0.00732,-0.10248,-0.25864,-0.28304,-0.20984,-0.16592,-0.10736
-0.05856,0.07808,-0.0976,-0.06832,-0.03904,-0.00976,-0.0488,-0.15616,-0.15616,-0.13664,-0.11224,-0.07808
-0.03416,0.06344,-0.09272,-0.07564,-0.05856,0.0122,0.00976,-0.08296,-0.11712,-0.10736,-0.10248,-0.07808
-0.0488,0.07564,-0.10248,-0.07808,-0.05368,0.00244,0.0488,-0.02928,-0.0732,-0.08296,-0.0976,-0.08296
-0.06344,0.09272,-0.122,-0.09028,-0.05856,-0.00244,0.05856,-0.01464,-0.05856,-0.08784,-0.08784,-0.07808
-0.06344,0.0976,-0.13176,-0.10004,-0.06832,0.00244,0.05856,-0.00976,-0.0488,-0.07808,-0.09272,-0.08784
-0.06344,0.10004,-0.13664,-0.10492,-0.0732,0.00488,0.06832,0,-0.0488,-0.08784,-0.10248,-0.0976
-0.06832,0.10004,-0.13176,-0.0976,-0.06344,-0.00244,0.07808,0,-0.0488,-0.0976,-0.10736,-0.10736
-0.0732,0.10492,-0.13664,-0.10004,-0.06344,-0.00488,0.07808,0.00976,-0.03416,-0.09272,-0.10248,-0.10736
-0.08296,0.1098,-0.13664,-0.09516,-0.05368,-0.01464,0.08296,0.00976,-0.03416,-0.09272,-0.10248,-0.10736
-0.08296,0.11224,-0.14152,-0.10004,-0.05856,-0.0122,0.08784,0.01952,-0.02928,-0.09272,-0.10248,-0.10736
-0.0732,0.10736,-0.14152,-0.10492,-0.06832,-0.00244,0.08784,0.01952,-0.02928,-0.08784,-0.10248,-0.10248
-0.07808,0.1098,-0.14152,-0.10248,-0.06344,-0.00732,0.09272,0.01952,-0.02928,-0.08784,-0.10248,-0.10248
-0.06832,0.10736,-0.1464,-0.11224,-0.07808,0.00488,0.09272,0.0244,-0.0244,-0.07808,-0.10736,-0.10248
-0.06832,0.10736,-0.1464,-0.11224,-0.07808,0.00488,0.09272,0.0244,-0.0244,-0.07808,-0.10248,-0.10248
-0.0732,0.1098,-0.1464,-0.1098,-0.0732,0,0.10248,0.02928,-0.0244,-0.08784,-0.10248,-0.11224
-0.08296,0.11468,-0.1464,-0.10492,-0.06344,-0.00976,0.10736,0.02928,-0.0244,-0.08784,-0.10248,-0.11224
-0.07808,0.11224,-0.1464,-0.10736,-0.06832,-0.00488,0.10736,0.0244,-0.01464,-0.08784,-0.11224,-0.11224
-0.07808,0.11224,-0.1464,-0.10736,-0.06832,-0.00488,0.10736,0.0244,-0.01464,-0.08784,-0.11224,-0.11224
-0.07808,0.11224,-0.1464,-0.10736,-0.06832,-0.00488,0.10736,0.03416,-0.01952,-0.08784,-0.10736,-0.11224
-0.07808,0.11224,-0.1464,-0.10736,-0.06832,-0.00488,0.11224,0.03904,-0.01952,-0.08784,-0.10248,-0.11224
-0.0732,0.10736,-0.14152,-0.10492,-0.06832,-0.00244,0.10248,0.02928,-0.01952,-0.0732,-0.10248,-0.0976
-0.0732,0.10736,-0.14152,-0.10492,-0.06832,-0.00244,0.10248,0.02928,-0.01464,-0.0732,-0.10248,-0.0976
-0.0732,0.1098,-0.1464,-0.1098,-0.0732,0,0.10248,0.03416,-0.01464,-0.08296,-0.10248,-0.10248
-0.0732,0.1098,-0.1464,-0.1098,-0.0732,0,0.10248,0.03416,-0.01464,-0.08296,-0.10248,-0.10248
-0.08296,0.11468,-0.1464,-0.10492,-0.06344,-0.00976,0.11224,0.04392,-0.01464,-0.07808,-0.10248,-0.10248
-0.08296,0.11468,-0.1464,-0.10492,-0.06344,-0.00976,0.11224,0.0488,-0.01464,-0.08296,-0.10248,-0.10248
-0.0732,0.10736,-0.14152,-0.10492,-0.06832,-0.00244,0.10248,0.03904,-0.01464,-0.08296,-0.10248,-0.10736
-0.0732,0.1098,-0.1464,-0.1098,-0.0732,0,0.10248,0.04392,-0.00976,-0.07808,-0.10248,-0.10248
-0.06832,0.10492,-0.14152,-0.10736,-0.0732,0.00244,0.0976,0.0488,0,-0.07808,-0.10248,-0.11224
-0.0732,0.10736,-0.14152,-0.10492,-0.06832,-0.00244,0.0976,0.05368,0,-0.0732,-0.10248,-0.11224
-0.06832,0.10248,-0.13664,-0.10248,-0.06832,0,0.10736,0.05368,0.00488,-0.0732,-0.10248,-0.10248
-0.06832,0.10492,-0.14152,-0.10736,-0.0732,0.00244,0.10736,0.06344,0.00488,-0.0732,-0.0976,-0.10248
-0.0732,0.10736,-0.14152,-0.10492,-0.06832,-0.00244,0.10248,0.07808,0,-0.06832,-0.0976,-0.10736
-0.0732,0.10492,-0.13664,-0.10004,-0.06344,-0.00488,0.10248,0.07808,0.00488,-0.06344,-0.0976,-0.10736
-0.05856,0.0976,-0.13664,-0.10736,-0.07808,0.00976,0.10248,0.0732,0.00488,-0.06344,-0.0976,-0.10736
-0.05856,0.09516,-0.13176,-0.10248,-0.0732,0.00732,0.10248,0.08296,0.01464,-0.06344,-0.09272,-0.10736
-0.05856,0.09028,-0.122,-0.09272,-0.06344,0.00244,0.0976,0.10248,0.01952,-0.05856,-0.08784,-0.09272
-0.04392,0.07808,-0.11224,-0.09028,-0.06832,0.0122,0.10248,0.11224,0.02928,-0.0488,-0.08784,-0.08784
-0.05368,0.0854,-0.11712,-0.09028,-0.06344,0.00488,0.10248,0.122,0.02928,-0.04392,-0.07808,-0.08784
-0.04392,0.07808,-0.11224,-0.09028,-0.06832,0.0122,0.10248,0.13176,0.03904,-0.04392,-0.07808,-0.08296
-0.03904,0.07808,-0.11712,-0.0976,-0.07808,0.01952,0.0976,0.13176,0.0488,-0.03416,-0.06832,-0.0732
-0.02928,0.07076,-0.11224,-0.0976,-0.08296,0.02684,0.0976,0.1464,0.05368,-0.02928,-0.06832,-0.06832
-0.02928,0.06832,-0.10736,-0.09272,-0.07808,0.0244,0.0976,0.15616,0.06344,-0.01952,-0.06832,-0.06832
-0.01464,0.05612,-0.0976,-0.09028,-0.08296,0.03416,0.09272,0.1708,0.06832,-0.01464,-0.06344,-0.06832
-0.00976,0.04636,-0.08296,-0.07808,-0.0732,0.03172,0.07808,0.18056,0.07808,-0.00488,-0.04392,-0.0488
0,0.03904,-0.07808,-0.07808,-0.07808,0.03904,0.0732,0.1952,0.08784,0,-0.03416,-0.04392
0.01952,0.02684,-0.0732,-0.08296,-0.09272,0.05612,0.0732,0.19032,0.08296,0,-0.03416,-0.04392
0.02928,0.01708,-0.06344,-0.07808,-0.09272,0.061,0.06344,0.1952,0.08784,0.00488,-0.0244,-0.03416
0.03416,0.00488,-0.04392,-0.061,-0.07808,0.05612,0.05856,0.1952,0.08784,0.00976,-0.01952,-0.01952
0.03904,-0.00244,-0.03416,-0.05368,-0.0732,0.05612,0.05368,0.20496,0.09272,0.01464,-0.01952,-0.01464
0.0488,-0.00976,-0.02928,-0.05368,-0.07808,0.06344,0.03904,0.1952,0.09272,0.01952,-0.0244,-0.0244
0.05368,-0.01464,-0.0244,-0.05124,-0.07808,0.06588,0.02928,0.1952,0.09272,0.0244,-0.00976,-0.00976
0.04392,-0.00732,-0.02928,-0.05124,-0.0732,0.05856,0.03904,0.1952,0.10248,0.0244,-0.00488,0
0.05368,-0.01952,-0.01464,-0.04148,-0.06832,0.061,0.04392,0.19032,0.10248,0.0244,-0.00488,0
0.05368,-0.02684,0,-0.02684,-0.05368,0.05368,0.0244,0.18544,0.0976,0.01952,0.00488,0.01464
0.05368,-0.02684,0,-0.02684,-0.05368,0.05368,0.01952,0.17568,0.09272,0.01952,0.00976,0.01952
0.05856,-0.0366,0.01464,-0.01464,-0.04392,0.05124,0.01952,0.1708,0.0976,0.01952,0.00976,0.0244
0.05856,-0.0366,0.01464,-0.01464,-0.04392,0.05124,0.01952,0.16592,0.0976,0.01952,0.00976,0.02928
0.06344,-0.04148,0.01952,-0.0122,-0.04392,0.05368,0,0.15616,0.08784,0.02928,0.01464,0.03416
0.06344,-0.04636,0.02928,-0.00244,-0.03416,0.0488,-0.00488,0.1464,0.08784,0.02928,0.01464,0.03416
0.06344,-0.05368,0.04392,0.0122,-0.01952,0.04148,0,0.13664,0.08784,0.01952,0.00976,0.02928
0.06344,-0.05368,0.04392,0.0122,-0.01952,0.04148,0,0.13176,0.08784,0.01952,0.00976,0.03416
0.0732,-0.05856,0.04392,0.00732,-0.02928,0.05124,0,0.12688,0.08784,0.0244,0.01464,0.03904
0.0732,-0.06344,0.05368,0.01708,-0.01952,0.04636,0,0.12688,0.09272,0.02928,0.01952,0.03904
0.06344,-0.05368,0.04392,0.0122,-0.01952,0.04148,0.00976,0.13664,0.11224,0.03904,0.03416,0.0488
0.05856,-0.05368,0.0488,0.01952,-0.00976,0.03416,0.01464,0.122,0.11712,0.04392,0.03416,0.05368
0.05368,-0.0488,0.04392,0.01708,-0.00976,0.03172,0.01464,0.122,0.122,0.05856,0.04392,0.05368
0.04392,-0.03904,0.03416,0.0122,-0.00976,0.02684,0.01952,0.11712,0.122,0.05856,0.04392,0.05368
0.04392,-0.04148,0.03904,0.01708,-0.00488,0.0244,0.03416,0.11712,0.13664,0.06344,0.03416,0.04392
0.03904,-0.0366,0.03416,0.01464,-0.00488,0.02196,0.03904,0.11224,0.13664,0.06344,0.03416,0.04392
0.0244,-0.02196,0.01952,0.00732,-0.00488,0.01464,0.03904,0.10736,0.14152,0.06344,0.03904,0.03416
0.01952,-0.01708,0.01464,0.00488,-0.00488,0.0122,0.04392,0.08784,0.13176,0.06344,0.03904,0.01952
0.00488,-0.00732,0.00976,0.00732,0.00488,0,0.0488,0.07808,0.12688,0.05368,0.0244,0.01464
0,-0.00244,0.00488,0.00488,0.00488,-0.00244,0.0488,0.06832,0.11712,0.04392,0.01952,0.00488
-0.01464,0.00732,0,0.00732,0.01464,-0.01464,0.0488,0.05368,0.11712,0.05368,0.00976,0.00976
-0.01464,0.00976,-0.00488,0.00244,0.00976,-0.0122,0.04392,0.0488,0.10736,0.04392,0.00488,0.00976
-0.0244,0.02196,-0.01952,-0.00732,0.00488,-0.01464,0.04392,0.03416,0.0976,0.0244,0,-0.01464
-0.02928,0.0244,-0.01952,-0.00488,0.00976,-0.01952,0.04392,0.02928,0.08784,0.01952,-0.00488,-0.01464
-0.0244,0.02928,-0.03416,-0.02196,-0.00976,-0.00732,0.05368,0.03904,0.08296,0.00976,-0.01464,-0.01952
-0.0244,0.02928,-0.03416,-0.02196,-0.00976,-0.00732,0.05368,0.03416,0.08296,0.00976,-0.01464,-0.01952
-0.03416,0.03416,-0.03416,-0.01708,0,-0.01708,0.05368,0.0244,0.08296,0.01464,-0.00976,-0.00976
-0.03416,0.03416,-0.03416,-0.01708,0,-0.01708,0.05368,0.01952,0.08296,0.01952,0,0
-0.02928,0.02928,-0.02928,-0.01464,0,-0.01464,0.05368,0.01952,0.08296,0.01952,-0.00488,-0.01464
-0.0244,0.0244,-0.0244,-0.0122,0,-0.0122,0.05368,0.01952,0.08784,0.01952,-0.00488,-0.01464
-0.03416,0.0366,-0.03904,-0.02196,-0.00488,-0.01464,0.05368,0.02928,0.08784,0.01952,-0.00488,-0.01464
-0.03904,0.03904,-0.03904,-0.01952,0,-0.01952,0.05368,0.02928,0.08784,0.01464,-0.00488,-0.01464
-0.04392,0.0366,-0.02928,-0.00732,0.01464,-0.02928,0.05368,0.02928,0.07808,0.01952,-0.00488,-0.01464
-0.03904,0.03416,-0.02928,-0.00976,0.00976,-0.0244,0.05856,0.03416,0.08784,0.01952,0,-0.01464
-0.03904,0.03416,-0.02928,-0.00976,0.00976,-0.0244,0.05856,0.03904,0.08784,0.01952,-0.00976,-0.01464
-0.03904,0.03416,-0.02928,-0.00976,0.00976,-0.0244,0.05856,0.03416,0.09272,0.01952,-0.00976,-0.01464
-0.03904,0.03904,-0.03904,-0.01952,0,-0.01952,0.05856,0.03416,0.08296,0.01952,-0.00976,-0.0244
-0.03904,0.03904,-0.03904,-0.01952,0,-0.01952,0.05856,0.03416,0.08296,0.0244,-0.00976,-0.01952
-0.03904,0.03416,-0.02928,-0.00976,0.00976,-0.0244,0.05856,0.02928,0.09272,0.01464,-0.00976,-0.0244
-0.04392,0.0366,-0.02928,-0.00732,0.01464,-0.02928,0.05856,0.02928,0.09272,0.00976,-0.00976,-0.0244
-0.03416,0.03172,-0.02928,-0.0122,0.00488,-0.01952,0.06344,0.03904,0.09272,0.01952,0,-0.01464
-0.03416,0.03172,-0.02928,-0.0122,0.00488,-0.01952,0.06344,0.03416,0.09272,0.01952,-0.00488,-0.01464
-0.03416,0.0366,-0.03904,-0.02196,-0.00488,-0.01464,0.06344,0.02928,0.08296,0.00488,-0.01464,-0.02928
-0.03416,0.0366,-0.03904,-0.02196,-0.00488,-0.01464,0.06344,0.02928,0.08296,0.00488,-0.01464,-0.0244
-0.03904,0.03904,-0.03904,-0.01952,0,-0.01952,0.05368,0.0244,0.07808,0.01464,-0.01464,-0.0244
-0.03904,0.03904,-0.03904,-0.01952,0,-0.01952,0.05368,0.0244,0.0732,0.00976,-0.01952,-0.0244
-0.03416,0.03416,-0.03416,-0.01708,0,-0.01708,0.06344,0.0244,0.07808,0,-0.01952,-0.02928
-0.03416,0.03416,-0.03416,-0.01708,0,-0.01708,0.06344,0.0244,0.0732,0,-0.01952,-0.02928
-0.03416,0.04148,-0.0488,-0.03172,-0.01464,-0.00976,0.05368,0.01952,0.06344,-0.00488,-0.03416,-0.03416
-0.03416,0.04148,-0.0488,-0.03172,-0.01464,-0.00976,0.05368,0.01952,0.06344,-0.00488,-0.03416,-0.03416
-0.04392,0.0488,-0.05368,-0.03172,-0.00976,-0.01708,0.06344,0.0244,0.06832,-0.00488,-0.0244,-0.03416
-0.04392,0.0488,-0.05368,-0.03172,-0.00976,-0.01708,0.06344,0.0244,0.06832,-0.00976,-0.02928,-0.03904
-0.03904,0.04636,-0.05368,-0.03416,-0.01464,-0.0122,0.06344,0.01464,0.06344,-0.00976,-0.02928,-0.03904
-0.03904,0.0488,-0.05856,-0.03904,-0.01952,-0.00976,0.06344,0.00976,0.05856,-0.01464,-0.02928,-0.03904
-0.03904,0.0488,-0.05856,-0.03904,-0.01952,-0.00976,0.06344,0.00976,0.06344,-0.00488,-0.02928,-0.03904
-0.03904,0.0488,-0.05856,-0.03904,-0.01952,-0.00976,0.05856,0.00488,0.06344,-0.00488,-0.02928,-0.03904
-0.03904,0.05368,-0.06832,-0.0488,-0.02928,-0.00488,0.05856,0.01464,0.0488,-0.01952,-0.03416,-0.05368
-0.03904,0.05612,-0.0732,-0.05368,-0.03416,-0.00244,0.05856,0.00976,0.0488,-0.01952,-0.03416,-0.05368
-0.03904,0.05368,-0.06832,-0.0488,-0.02928,-0.00488,0.05856,0,0.03904,-0.01464,-0.03904,-0.05368
-0.03904,0.05856,-0.07808,-0.05856,-0.03904,0,0.05368,0,0.03904,-0.01952,-0.04392,-0.05856
-0.03904,0.05368,-0.06832,-0.0488,-0.02928,-0.00488,0.04392,0,0.03904,-0.02928,-0.04392,-0.05856
-0.03416,0.04636,-0.05856,-0.04148,-0.0244,-0.00488,0.04392,-0.00488,0.03416,-0.02928,-0.04392,-0.06344
-0.03904,0.05368,-0.06832,-0.0488,-0.02928,-0.00488,0.05368,0.00488,0.03904,-0.02928,-0.04392,-0.06344
-0.03904,0.05368,-0.06832,-0.0488,-0.02928,-0.00488,0.05368,0,0.03904,-0.03416,-0.0488,-0.06344
-0.0488,0.05612,-0.06344,-0.03904,-0.01464,-0.01708,0.05856,-0.00976,0.03904,-0.03416,-0.03904,-0.06344
-0.0488,0.05368,-0.05856,-0.03416,-0.00976,-0.01952,0.05368,-0.01464,0.03416,-0.03416,-0.03904,-0.06344
-0.0488,0.05368,-0.05856,-0.03416,-0.00976,-0.01952,0.05368,-0.00488,0.03416,-0.02928,-0.0488,-0.06344
-0.0488,0.05612,-0.06344,-0.03904,-0.01464,-0.01708,0.05368,-0.00488,0.02928,-0.02928,-0.0488,-0.06832
-0.03904,0.05124,-0.06344,-0.04392,-0.0244,-0.00732,0.04392,-0.00488,0.0244,-0.03904,-0.05368,-0.06832
-0.04392,0.05368,-0.06344,-0.04148,-0.01952,-0.0122,0.04392,-0.00976,0.01952,-0.03904,-0.05368,-0.0732
-0.0488,0.061,-0.0732,-0.0488,-0.0244,-0.0122,0.04392,-0.00976,0.01952,-0.04392,-0.05856,-0.0732
-0.0488,0.061,-0.0732,-0.0488,-0.0244,-0.0122,0.04392,-0.00976,0.01952,-0.04392,-0.05856,-0.06832
-0.0488,0.061,-0.0732,-0.0488,-0.0244,-0.0122,0.05368,-0.00976,0.01952,-0.03416,-0.05856,-0.06832
-0.0488,0.061,-0.0732,-0.0488,-0.0244,-0.0122,0.05368,-0.00976,0.01952,-0.03416,-0.05368,-0.06832
-0.03904,0.05856,-0.07808,-0.05856,-0.03904,0,0.05368,-0.00976,0.02928,-0.03416,-0.05856,-0.06832
-0.04392,0.061,-0.07808,-0.05612,-0.03416,-0.00488,0.05368,-0.01464,0.0244,-0.03416,-0.05856,-0.06832
-0.04392,0.05368,-0.06344,-0.04148,-0.01952,-0.0122,0.05368,-0.01464,0.01464,-0.03416,-0.05856,-0.0732
-0.0488,0.05612,-0.06344,-0.03904,-0.01464,-0.01708,0.05368,-0.01464,0.01952,-0.03416,-0.05856,-0.0732
-0.03904,0.05368,-0.06832,-0.0488,-0.02928,-0.00488,0.05368,-0.01464,0.01952,-0.03416,-0.05856,-0.0732
-0.03904,0.05612,-0.0732,-0.05368,-0.03416,-0.00244,0.05368,-0.01464,0.01952,-0.03416,-0.05856,-0.0732
-0.03904,0.05368,-0.06832,-0.0488,-0.02928,-0.00488,0.0488,-0.00976,0.01952,-0.03904,-0.05856,-0.07808
-0.0488,0.05856,-0.06832,-0.04392,-0.01952,-0.01464,0.0488,-0.01952,0.01952,-0.03904,-0.05856,-0.06832
-0.0488,0.05856,-0.06832,-0.04392,-0.01952,-0.01464,0.0488,-0.01952,0.01952,-0.03904,-0.05856,-0.06832
-0.05856,0.06832,-0.07808,-0.0488,-0.01952,-0.01952,0.0488,-0.00976,0.01952,-0.03904,-0.05856,-0.0732
-0.05856,0.06832,-0.07808,-0.0488,-0.01952,-0.01952,0.0488,-0.00488,0.01952,-0.03904,-0.05856,-0.0732
-0.0488,0.05368,-0.05856,-0.03416,-0.00976,-0.01952,0.06344,-0.01464,0.02928,-0.02928,-0.05856,-0.0732
-0.03904,0.04392,-0.0488,-0.02928,-0.00976,-0.01464,0.06344,-0.00488,0.04392,-0.01952,-0.0488,-0.06832
-0.03904,0.03172,-0.0244,-0.00488,0.01464,-0.02684,0.0732,0.00488,0.04392,-0.00976,-0.02928,-0.05368
-0.03904,0.0244,-0.00976,0.00976,0.02928,-0.03416,0.0732,0.00976,0.05368,0,-0.02928,-0.04392
-0.0488,0.02928,-0.00976,0.01464,0.03904,-0.04392,0.07808,0,0.0488,-0.00488,-0.02928,-0.05368
-0.0488,0.0244,0,0.0244,0.0488,-0.0488,0.08784,0,0.05856,0,-0.0244,-0.05368
-0.04392,0.0122,0.01952,0.04148,0.06344,-0.05368,0.08296,-0.00488,0.07808,0.01952,-0.00488,-0.04392
-0.02928,-0.00488,0.03904,0.05368,0.06832,-0.0488,0.0732,0,0.08784,0.02928,0.00976,-0.02928
-0.01952,-0.01464,0.0488,0.05856,0.06832,-0.04392,0.0488,-0.00488,0.07808,0.01952,0,-0.01464
-0.01952,-0.01464,0.0488,0.05856,0.06832,-0.04392,0,-0.03904,0.05368,0.00488,-0.00976,-0.01952
-0.01464,-0.02196,0.05856,0.06588,0.0732,-0.04392,-0.0244,-0.05856,0.04392,0,-0.00976,-0.0244
-0.00976,-0.0244,0.05856,0.06344,0.06832,-0.03904,-0.0244,-0.05368,0.03904,0.00488,-0.00976,-0.01952
0.01464,-0.03416,0.05368,0.04636,0.03904,-0.0122,-0.01464,-0.03904,0.04392,0.00488,-0.00488,-0.01952
0.0244,-0.04148,0.05856,0.04636,0.03416,-0.00488,-0.00976,-0.03416,0.04392,0.00488,0,-0.01952
0.0244,-0.04148,0.05856,0.04636,0.03416,-0.00488,-0.0244,-0.04392,0.03416,0.00488,-0.00976,-0.01952
0.02928,-0.03904,0.0488,0.03416,0.01952,0.00488,-0.02928,-0.05368,0.01464,-0.00976,-0.01952,-0.0244
0.00976,-0.01952,0.02928,0.0244,0.01952,-0.00488,-0.01952,-0.06344,0.00976,-0.0244,-0.02928,-0.03416
0.00488,-0.01464,0.0244,0.02196,0.01952,-0.00732,-0.01952,-0.06344,-0.00488,-0.02928,-0.03416,-0.03904
-0.01952,0.00244,0.01464,0.0244,0.03416,-0.02684,-0.01464,-0.05368,-0.00976,-0.02928,-0.04392,-0.0488
-0.03416,0.02684,-0.01952,-0.00244,0.01464,-0.0244,0,-0.05856,-0.01952,-0.03904,-0.05856,-0.06344
-0.05368,0.05124,-0.0488,-0.02196,0.00488,-0.02928,0.00976,-0.0488,-0.01464,-0.05856,-0.05856,-0.08296
-0.06344,0.06832,-0.0732,-0.04148,-0.00976,-0.02684,0.01952,-0.04392,-0.00976,-0.05856,-0.06832,-0.09272
-0.05856,0.06344,-0.06832,-0.03904,-0.00976,-0.0244,0.01952,-0.05856,-0.01952,-0.06832,-0.08296,-0.09272
-0.05856,0.06832,-0.07808,-0.0488,-0.01952,-0.01952,0.0244,-0.05856,-0.0244,-0.07808,-0.08784,-0.10248
-0.0732,0.08052,-0.08784,-0.05124,-0.01464,-0.02928,0.02928,-0.04392,-0.03416,-0.0732,-0.09272,-0.0976
-0.0732,0.08296,-0.09272,-0.05612,-0.01952,-0.02684,0.03416,-0.04392,-0.03416,-0.06832,-0.09272,-0.08784
-0.0732,0.0854,-0.0976,-0.061,-0.0244,-0.0244,0.03416,-0.04392,-0.03416,-0.06832,-0.08784,-0.08784
-0.0732,0.08784,-0.10248,-0.06588,-0.02928,-0.02196,0.03416,-0.03904,-0.03416,-0.0732,-0.08784,-0.08784
-0.06832,0.0854,-0.10248,-0.06832,-0.03416,-0.01708,0.04392,-0.03904,-0.0244,-0.0732,-0.08784,-0.0976
-0.06344,0.0854,-0.10736,-0.07564,-0.04392,-0.00976,0.0488,-0.03904,-0.0244,-0.0732,-0.08784,-0.0976
-0.0732,0.09028,-0.10736,-0.07076,-0.03416,-0.01952,0.0488,-0.03904,-0.03416,-0.0732,-0.08784,-0.0976
-0.0732,0.09272,-0.11224,-0.07564,-0.03904,-0.01708,0.0488,-0.03904,-0.03416,-0.0732,-0.08784,-0.0976
-0.06832,0.09516,-0.122,-0.08784,-0.05368,-0.00732,0.05368,-0.04392,-0.03416,-0.0732,-0.08784,-0.10736
-0.06832,0.09516,-0.122,-0.08784,-0.05368,-0.00732,0.05368,-0.04392,-0.03416,-0.0732,-0.08784,-0.11224
-0.07808,0.10004,-0.122,-0.08296,-0.04392,-0.01708,0.05368,-0.03416,-0.03416,-0.0732,-0.08784,-0.10736
-0.0732,0.0976,-0.122,-0.0854,-0.0488,-0.0122,0.05368,-0.03416,-0.02928,-0.06832,-0.08784,-0.10736
-0.0732,0.09028,-0.10736,-0.07076,-0.03416,-0.01952,0.05368,-0.03904,-0.01952,-0.06832,-0.08784,-0.0976
-0.0732,0.09272,-0.11224,-0.07564,-0.03904,-0.01708,0.05856,-0.02928,-0.01464,-0.06832,-0.08296,-0.0976
-0.07808,0.1098,-0.14152,-0.10248,-0.06344,-0.00732,0.0732,-0.00488,-0.01464,-0.06832,-0.10736,-0.11712
-0.06832,0.12932,-0.19032,-0.15616,-0.122,0.02684,0.13664,0.06344,-0.00976,-0.10736,-0.1464,-0.16104
-0.08296,0.14884,-0.21472,-0.17324,-0.13176,0.0244,0.18056,0.15616,0.05856,-0.06344,-0.13664,-0.16104
-0.01952,0.10004,-0.18056,-0.1708,-0.16104,0.07076,0.18544,0.26352,0.15616,0.00488,-0.08784,-0.12688
0.0976,-0.02684,-0.04392,-0.09272,-0.14152,0.11956,0.13176,0.43432,0.32208,0.18056,0.07808,0.02928
0.25864,-0.24156,0.22448,0.09516,-0.03416,0.1464,0,0.45384,0.5368,0.44408,0.35136,0.28304
0.44408,-0.46116,0.47824,0.2562,0.03416,0.20496,-0.1952,0.2684,0.54168,0.61488,0.58072,0.52704
0.55144,-0.61,0.66856,0.39284,0.11712,0.21716,-0.38064,-0.06344,0.366,0.64904,0.732,0.73688
0.62464,-0.77104,0.91744,0.60512,0.2928,0.16592,-0.66856,-0.4392,0.18544,0.6832,0.88328,0.9516
0.67832,-0.93452,1.19072,0.85156,0.5124,0.08296,-1.03456,-0.73688,0,0.74664,1.04432,1.1468
0.65392,-0.97356,1.2932,0.96624,0.63928,0.00732,-1.1712,-0.86864,-0.12688,0.78568,1.16632,1.30784
0.60512,-0.89548,1.18584,0.88328,0.58072,0.0122,-1.22488,-0.89792,-0.26352,0.732,1.16144,1.30784
0.47336,-0.67344,0.87352,0.63684,0.40016,0.0366,-1.11752,-0.8784,-0.40504,0.45384,0.854,1.01504
0.23912,-0.37576,0.5124,0.39284,0.27328,-0.01708,-0.83936,-0.7808,-0.44896,0.15128,0.42456,0.57584
0.04392,-0.11712,0.19032,0.16836,0.1464,-0.05124,-0.57096,-0.7564,-0.54656,-0.20496,-0.0244,0.0976
-0.00976,0.00732,-0.00488,0,0.00488,-0.00732,-0.33672,-0.5856,-0.5124,-0.32208,-0.20496,-0.08784
-0.05368,0.06832,-0.08296,-0.05612,-0.02928,-0.0122,-0.16104,-0.37088,-0.35136,-0.28304,-0.1952,-0.13176
-0.06344,0.0732,-0.08296,-0.05124,-0.01952,-0.02196,-0.09272,-0.24888,-0.22448,-0.19032,-0.15616,-0.10736
-0.05856,0.0732,-0.08784,-0.05856,-0.02928,-0.01464,-0.03904,-0.13664,-0.13664,-0.12688,-0.11224,-0.0976
-0.05368,0.06832,-0.08296,-0.05612,-0.02928,-0.0122,0.00976,-0.06344,-0.07808,-0.08784,-0.09272,-0.07808
-0.05856,0.07564,-0.09272,-0.06344,-0.03416,-0.0122,0.0488,-0.03904,-0.03416,-0.0732,-0.07808,-0.08296
-0.08296,0.09272,-0.10248,-0.061,-0.01952,-0.03172,0.05856,-0.0244,-0.01952,-0.06832,-0.07808,-0.07808
-0.08296,0.10248,-0.122,-0.08052,-0.03904,-0.02196,0.06832,-0.01952,-0.01952,-0.07808,-0.09272,-0.0976
-0.08296,0.10492,-0.12688,-0.0854,-0.04392,-0.01952,0.07808,-0.00976,-0.01952,-0.08784,-0.10248,-0.11712
-0.08784,0.1098,-0.13176,-0.08784,-0.04392,-0.02196,0.08784,0,-0.02928,-0.0976,-0.10736,-0.11712
-0.09272,0.11468,-0.13664,-0.09028,-0.04392,-0.0244,0.08784,0.00976,-0.01464,-0.09272,-0.10248,-0.11712
-0.09272,0.1098,-0.12688,-0.08052,-0.03416,-0.02928,0.08296,0,-0.01464,-0.08296,-0.10248,-0.11712
-0.09272,0.11224,-0.13176,-0.0854,-0.03904,-0.02684,0.08784,0.00976,-0.00976,-0.08296,-0.10248,-0.11712
-0.09272,0.11712,-0.14152,-0.09516,-0.0488,-0.02196,0.0976,0.00976,-0.01952,-0.08784,-0.10248,-0.11224
-0.0976,0.11956,-0.14152,-0.09272,-0.04392,-0.02684,0.10248,0.00976,-0.01952,-0.08784,-0.10248,-0.11224
-0.0976,0.11712,-0.13664,-0.08784,-0.03904,-0.02928,0.09272,0.01464,-0.00488,-0.07808,-0.10736,-0.122
-0.0976,0.11712,-0.13664,-0.08784,-0.03904,-0.02928,0.09272,0.01464,-0.00488,-0.07808,-0.10248,-0.122
-0.09272,0.11468,-0.13664,-0.09028,-0.04392,-0.0244,0.09272,0.01952,-0.01464,-0.08784,-0.11224,-0.122
-0.09272,0.11468,-0.13664,-0.09028,-0.04392,-0.0244,0.0976,0.01952,-0.01464,-0.08784,-0.11224,-0.122
-0.08784,0.11224,-0.13664,-0.09272,-0.0488,-0.01952,0.0976,0.0244,-0.00488,-0.08784,-0.10248,-0.122
-0.08784,0.11224,-0.13664,-0.09272,-0.0488,-0.01952,0.0976,0.0244,-0.00488,-0.08784,-0.10248,-0.122
-0.08784,0.11224,-0.13664,-0.09272,-0.0488,-0.01952,0.0976,0.01464,0,-0.07808,-0.10736,-0.122
-0.08784,0.11224,-0.13664,-0.09272,-0.0488,-0.01952,0.10248,0.01952,0,-0.07808,-0.10248,-0.122
-0.09272,0.11224,-0.13176,-0.0854,-0.03904,-0.02684,0.09272,0.02928,0,-0.0732,-0.10248,-0.11712
-0.09272,0.11224,-0.13176,-0.0854,-0.03904,-0.02684,0.09272,0.02928,0.00488,-0.0732,-0.10248,-0.11712
-0.08296,0.10492,-0.12688,-0.0854,-0.04392,-0.01952,0.09272,0.0244,-0.00488,-0.06344,-0.10248,-0.11224
-0.08296,0.10492,-0.12688,-0.0854,-0.04392,-0.01952,0.09272,0.0244,-0.00488,-0.06344,-0.10248,-0.11224
-0.08296,0.10492,-0.12688,-0.0854,-0.04392,-0.01952,0.09272,0.0244,0.00488,-0.06832,-0.10248,-0.11224
-0.08296,0.10492,-0.12688,-0.0854,-0.04392,-0.01952,0.09272,0.02928,0.00488,-0.0732,-0.10248,-0.11224
-0.08296,0.10248,-0.122,-0.08052,-0.03904,-0.02196,0.09272,0.03904,0.00488,-0.0732,-0.10248,-0.12688
-0.08296,0.10492,-0.12688,-0.0854,-0.04392,-0.01952,0.09272,0.04392,0.00976,-0.06832,-0.10248,-0.122
-0.06832,0.09516,-0.122,-0.08784,-0.05368,-0.00732,0.08784,0.0488,0,-0.06832,-0.11224,-0.122
-0.0732,0.0976,-0.122,-0.0854,-0.0488,-0.0122,0.08784,0.05368,0,-0.06344,-0.11224,-0.122
-0.07808,0.0976,-0.11712,-0.07808,-0.03904,-0.01952,0.0976,0.05368,0.00488,-0.0732,-0.11224,-0.122
-0.07808,0.10004,-0.122,-0.08296,-0.04392,-0.01708,0.0976,0.06344,0.00488,-0.0732,-0.10736,-0.122
-0.0732,0.0976,-0.122,-0.0854,-0.0488,-0.0122,0.09272,0.06832,0,-0.05856,-0.0976,-0.10736
-0.0732,0.09516,-0.11712,-0.08052,-0.04392,-0.01464,0.09272,0.06832,0.00488,-0.05368,-0.0976,-0.10736
-0.07808,0.0976,-0.11712,-0.07808,-0.03904,-0.01952,0.10248,0.08296,0.01464,-0.06344,-0.0976,-0.10736
-0.07808,0.09516,-0.11224,-0.0732,-0.03416,-0.02196,0.10248,0.09272,0.0244,-0.06344,-0.09272,-0.10736
-0.07808,0.09516,-0.11224,-0.0732,-0.03416,-0.02196,0.0976,0.09272,0.01952,-0.05856,-0.08784,-0.11224
-0.06344,0.08296,-0.10248,-0.07076,-0.03904,-0.0122,0.10248,0.10248,0.01952,-0.0488,-0.08784,-0.10736
-0.06344,0.08052,-0.0976,-0.06588,-0.03416,-0.01464,0.09272,0.11224,0.02928,-0.03416,-0.07808,-0.10736
-0.05368,0.0732,-0.09272,-0.06588,-0.03904,-0.00732,0.08296,0.122,0.03904,-0.03416,-0.07808,-0.10248
-0.0488,0.06832,-0.08784,-0.06344,-0.03904,-0.00488,0.07808,0.14152,0.03904,-0.03416,-0.06832,-0.09272
-0.03904,0.061,-0.08296,-0.06344,-0.04392,0.00244,0.07808,0.15616,0.04392,-0.02928,-0.06832,-0.08784
-0.03904,0.06344,-0.08784,-0.06832,-0.0488,0.00488,0.08784,0.16592,0.05368,-0.00976,-0.05856,-0.07808
-0.0244,0.05124,-0.07808,-0.06588,-0.05368,0.01464,0.08296,0.18056,0.05856,-0.00488,-0.05368,-0.07808
-0.00976,0.0366,-0.06344,-0.05856,-0.05368,0.02196,0.07808,0.18056,0.06832,0.00488,-0.05368,-0.06832
0,0.02928,-0.05856,-0.05856,-0.05856,0.02928,0.0732,0.1952,0.07808,0.00976,-0.04392,-0.06344
0.00976,0.02196,-0.05368,-0.05856,-0.06344,0.0366,0.0732,0.20008,0.0732,0.00976,-0.03416,-0.04392
0.01952,0.0122,-0.04392,-0.05368,-0.06344,0.04148,0.06344,0.20496,0.07808,0.01464,-0.0244,-0.03416
0.01464,0.00976,-0.03416,-0.04148,-0.0488,0.03172,0.05856,0.20496,0.07808,0.01952,-0.01952,-0.03904
0.01952,0.00244,-0.0244,-0.03416,-0.04392,0.03172,0.05368,0.21472,0.08296,0.0244,-0.01952,-0.03416
0.03904,-0.00976,-0.01952,-0.03904,-0.05856,0.0488,0.0488,0.21472,0.08296,0.02928,-0.01464,-0.0244
0.04392,-0.01464,-0.01464,-0.0366,-0.05856,0.05124,0.03904,0.21472,0.08296,0.03416,0,-0.00976
0.04392,-0.02196,0,-0.02196,-0.04392,0.04392,0.03904,0.20496,0.0732,0.0244,-0.00488,0
0.05368,-0.03416,0.01464,-0.0122,-0.03904,0.04636,0.03416,0.20008,0.0732,0.0244,-0.00488,0
0.05368,-0.04148,0.02928,0.00244,-0.0244,0.03904,0.01464,0.20496,0.07808,0.02928,0.00488,-0.00488
0.05368,-0.04148,0.02928,0.00244,-0.0244,0.03904,0.00976,0.1952,0.0732,0.02928,0.00976,0
0.05856,-0.04636,0.03416,0.00488,-0.0244,0.04148,0.01952,0.19032,0.06832,0.02928,0.00976,0.01464
0.05856,-0.04636,0.03416,0.00488,-0.0244,0.04148,0.01952,0.18544,0.06832,0.02928,0.00976,0.01952
0.06344,-0.05124,0.03904,0.00732,-0.0244,0.04392,0.00976,0.16592,0.06832,0.02928,0.00488,0.01464
0.06344,-0.05612,0.0488,0.01708,-0.01464,0.03904,0.00488,0.15616,0.06832,0.02928,0.00488,0.01464
0.06344,-0.05368,0.04392,0.0122,-0.01952,0.04148,0,0.15616,0.06832,0.02928,0.01952,0.01952
0.06344,-0.05368,0.04392,0.0122,-0.01952,0.04148,0,0.15128,0.06832,0.02928,0.01952,0.0244
0.06344,-0.05856,0.05368,0.02196,-0.00976,0.0366,0,0.1464,0.07808,0.04392,0.0244,0.02928
0.06344,-0.06344,0.06344,0.03172,0,0.03172,0,0.1464,0.08296,0.0488,0.02928,0.02928
0.06344,-0.06832,0.0732,0.04148,0.00976,0.02684,0,0.13664,0.09272,0.0488,0.03416,0.03904
0.05856,-0.06832,0.07808,0.0488,0.01952,0.01952,0.00488,0.122,0.0976,0.05368,0.03416,0.04392
0.04392,-0.05856,0.0732,0.05124,0.02928,0.00732,0.01464,0.122,0.10248,0.05856,0.05368,0.03416
0.03416,-0.0488,0.06344,0.04636,0.02928,0.00244,0.01952,0.12688,0.10248,0.05856,0.05368,0.03416
0.0244,-0.0366,0.0488,0.0366,0.0244,0,0.01464,0.10736,0.10736,0.06344,0.04392,0.0244
0.01952,-0.03172,0.04392,0.03416,0.0244,-0.00244,0.01952,0.10248,0.10736,0.06344,0.03416,0.0244
0.01464,-0.02684,0.03904,0.03172,0.0244,-0.00488,0.02928,0.0976,0.09272,0.06344,0.02928,0.0244
0.00976,-0.02196,0.03416,0.02928,0.0244,-0.00732,0.03416,0.07808,0.08296,0.06344,0.02928,0.00976
0.00488,-0.01708,0.02928,0.02684,0.0244,-0.00976,0.02928,0.06832,0.07808,0.06344,0.0244,0.00488
0,-0.0122,0.0244,0.0244,0.0244,-0.0122,0.02928,0.05856,0.06832,0.05368,0.01952,-0.00488
-0.0244,0.00244,0.01952,0.03172,0.04392,-0.03416,0.03904,0.04392,0.05856,0.04392,0.00976,-0.00976
-0.0244,0.00488,0.01464,0.02684,0.03904,-0.03172,0.03416,0.03904,0.0488,0.03416,0.00488,-0.00976
-0.0244,0.01708,-0.00976,0.00244,0.01464,-0.01952,0.0244,0.03416,0.0488,0.0244,0,-0.01464
-0.02928,0.01952,-0.00976,0.00488,0.01952,-0.0244,0.0244,0.02928,0.03904,0.01952,-0.00488,-0.01464
-0.03416,0.01952,-0.00488,0.0122,0.02928,-0.03172,0.03416,0.01952,0.03416,0.02928,0.00488,-0.00976
-0.03416,0.01952,-0.00488,0.0122,0.02928,-0.03172,0.03416,0.01464,0.03416,0.02928,0.00488,-0.00976
-0.03416,0.01952,-0.00488,0.0122,0.02928,-0.03172,0.03416,0.0244,0.0244,0.0244,0,-0.01952
-0.03416,0.01952,-0.00488,0.0122,0.02928,-0.03172,0.03416,0.01952,0.0244,0.01952,0,-0.01952
-0.03904,0.0244,-0.00976,0.00976,0.02928,-0.03416,0.03416,0.00976,0.01464,0.00976,-0.00488,-0.0244
-0.03416,0.01952,-0.00488,0.0122,0.02928,-0.03172,0.03416,0.00976,0.01952,0.00976,-0.00488,-0.0244
-0.03416,0.02196,-0.00976,0.00732,0.0244,-0.02928,0.03416,0.01952,0.01952,0.01952,-0.00488,-0.0244
-0.03904,0.0244,-0.00976,0.00976,0.02928,-0.03416,0.03416,0.01952,0.01952,0.01464,-0.00488,-0.0244
-0.04392,0.02684,-0.00976,0.0122,0.03416,-0.03904,0.03416,0.01952,0.00976,0.00976,-0.00488,-0.0244
-0.03904,0.0244,-0.00976,0.00976,0.02928,-0.03416,0.03904,0.0244,0.01952,0.00976,0,-0.0244
-0.03904,0.01952,0,0.01952,0.03904,-0.03904,0.02928,0.01952,0.00976,0.01952,0,-0.0244
-0.03904,0.01952,0,0.01952,0.03904,-0.03904,0.02928,0.01464,0.01464,0.01952,0,-0.0244
-0.02928,0.01464,0,0.01464,0.02928,-0.02928,0.03904,0.0244,0.0244,0.00976,0,-0.0244
-0.02928,0.01464,0,0.01464,0.02928,-0.02928,0.03904,0.0244,0.0244,0.01464,0,-0.01952
-0.03904,0.0244,-0.00976,0.00976,0.02928,-0.03416,0.02928,0.01952,0.0244,0.01464,0,-0.0244
-0.04392,0.02684,-0.00976,0.0122,0.03416,-0.03904,0.02928,0.01952,0.0244,0.00976,0,-0.0244
-0.03416,0.02684,-0.01952,-0.00244,0.01464,-0.0244,0.03416,0.02928,0.01464,0.01952,0,-0.01464
-0.03416,0.02684,-0.01952,-0.00244,0.01464,-0.0244,0.03416,0.0244,0.01464,0.01952,-0.00488,-0.01464
-0.04392,0.02684,-0.00976,0.0122,0.03416,-0.03904,0.04392,0.02928,0.0244,0.01464,-0.00488,-0.01952
-0.04392,0.02684,-0.00976,0.0122,0.03416,-0.03904,0.04392,0.02928,0.0244,0.01464,-0.00488,-0.01464
-0.03904,0.0244,-0.00976,0.00976,0.02928,-0.03416,0.03416,0.01464,0.00976,0.01464,-0.00488,-0.0244
-0.03904,0.0244,-0.00976,0.00976,0.02928,-0.03416,0.03416,0.01464,0.00488,0.00976,-0.00976,-0.0244
-0.04392,0.03416,-0.0244,-0.00244,0.01952,-0.03172,0.03416,0.01464,0.00976,0,-0.01952,-0.02928
-0.04392,0.03416,-0.0244,-0.00244,0.01952,-0.03172,0.03416,0.01464,0.00488,0,-0.01952,-0.02928
-0.05368,0.04148,-0.02928,-0.00244,0.0244,-0.03904,0.03416,0.00976,0.00488,0.00488,-0.01464,-0.0244
-0.05368,0.04148,-0.02928,-0.00244,0.0244,-0.03904,0.03416,0.00976,0.00488,0.00488,-0.01464,-0.0244
-0.04392,0.03416,-0.0244,-0.00244,0.01952,-0.03172,0.03416,0.00488,0,-0.00488,-0.0244,-0.0244
-0.04392,0.03416,-0.0244,-0.00244,0.01952,-0.03172,0.03416,0.00488,0,-0.00976,-0.02928,-0.02928
-0.03904,0.03172,-0.0244,-0.00488,0.01464,-0.02684,0.0244,0.01464,-0.00488,0,-0.02928,-0.03904
-0.03904,0.03416,-0.02928,-0.00976,0.00976,-0.0244,0.0244,0.00976,-0.00976,-0.00488,-0.02928,-0.03904
-0.03904,0.03416,-0.02928,-0.00976,0.00976,-0.0244,0.03416,0,-0.01464,-0.00488,-0.02928,-0.03904
-0.03904,0.03416,-0.02928,-0.00976,0.00976,-0.0244,0.02928,-0.00488,-0.01464,-0.00488,-0.02928,-0.03904
-0.0488,0.03416,-0.01952,0.00488,0.02928,-0.03904,0.01952,0.00488,-0.01952,-0.01952,-0.03416,-0.03416
-0.0488,0.0366,-0.0244,0,0.0244,-0.0366,0.01952,0,-0.01952,-0.01952,-0.03416,-0.03416
-0.0488,0.03904,-0.02928,-0.00488,0.01952,-0.03416,0.02928,0,-0.02928,-0.01464,-0.02928,-0.03416
-0.0488,0.04392,-0.03904,-0.01464,0.00976,-0.02928,0.03416,0,-0.02928,-0.00976,-0.03416,-0.03904
-0.0488,0.0488,-0.0488,-0.0244,0,-0.0244,0.03416,0,-0.02928,-0.01952,-0.03416,-0.03904
-0.04392,0.04636,-0.0488,-0.02684,-0.00488,-0.01952,0.03416,-0.00488,-0.03416,-0.01952,-0.03416,-0.04392
-0.0488,0.0488,-0.0488,-0.0244,0,-0.0244,0.03416,-0.00488,-0.03904,-0.01952,-0.03416,-0.04392
-0.0488,0.0488,-0.0488,-0.0244,0,-0.0244,0.03416,-0.00976,-0.03904,-0.0244,-0.03904,-0.04392
-0.03904,0.04148,-0.04392,-0.0244,-0.00488,-0.01708,0.02928,-0.01952,-0.03904,-0.0244,-0.03904,-0.04392
-0.03904,0.03904,-0.03904,-0.01952,0,-0.01952,0.0244,-0.0244,-0.04392,-0.0244,-0.03904,-0.04392
-0.03904,0.03904,-0.03904,-0.01952,0,-0.01952,0.0244,-0.01464,-0.03416,-0.02928,-0.0488,-0.05368
-0.03904,0.04148,-0.04392,-0.0244,-0.00488,-0.01708,0.0244,-0.01464,-0.03904,-0.02928,-0.0488,-0.05856
-0.03904,0.04636,-0.05368,-0.03416,-0.01464,-0.0122,0.0244,-0.01464,-0.04392,-0.02928,-0.05368,-0.05856
-0.04392,0.0488,-0.05368,-0.03172,-0.00976,-0.01708,0.0244,-0.01952,-0.0488,-0.02928,-0.05368,-0.06344
-0.0488,0.05124,-0.05368,-0.02928,-0.00488,-0.02196,0.0244,-0.01952,-0.0488,-0.03416,-0.0488,-0.06344
-0.0488,0.05124,-0.05368,-0.02928,-0.00488,-0.02196,0.0244,-0.01952,-0.0488,-0.03416,-0.0488,-0.05856
-0.0488,0.05124,-0.05368,-0.02928,-0.00488,-0.02196,0.0244,-0.01952,-0.0488,-0.03416,-0.0488,-0.05856
-0.0488,0.05124,-0.05368,-0.02928,-0.00488,-0.02196,0.0244,-0.01952,-0.0488,-0.03416,-0.04392,-0.05856
-0.0488,0.0488,-0.0488,-0.0244,0,-0.0244,0.0244,-0.02928,-0.0488,-0.03416,-0.05856,-0.05856
-0.05368,0.05124,-0.0488,-0.02196,0.00488,-0.02928,0.0244,-0.03416,-0.05368,-0.03416,-0.05856,-0.05856
-0.05368,0.05368,-0.05368,-0.02684,0,-0.02684,0.01464,-0.03416,-0.06344,-0.04392,-0.05856,-0.06344
-0.05856,0.05612,-0.05368,-0.0244,0.00488,-0.03172,0.01464,-0.03416,-0.05856,-0.04392,-0.05856,-0.06344
-0.0488,0.0488,-0.0488,-0.0244,0,-0.0244,0.0244,-0.0244,-0.05856,-0.03416,-0.05856,-0.05368
-0.0488,0.05124,-0.05368,-0.02928,-0.00488,-0.02196,0.0244,-0.0244,-0.05856,-0.03416,-0.05856,-0.05368
-0.05368,0.0488,-0.04392,-0.01708,0.00976,-0.03172,0.0244,-0.0244,-0.05368,-0.03904,-0.0488,-0.06344
-0.05856,0.05368,-0.0488,-0.01952,0.00976,-0.03416,0.0244,-0.0244,-0.05368,-0.03904,-0.0488,-0.05856
-0.05368,0.05124,-0.0488,-0.02196,0.00488,-0.02928,0.0244,-0.0244,-0.05856,-0.03904,-0.0488,-0.05368
-0.05368,0.05124,-0.0488,-0.02196,0.00488,-0.02928,0.0244,-0.02928,-0.05856,-0.03904,-0.05368,-0.05368
-0.05856,0.05856,-0.05856,-0.02928,0,-0.02928,0.01952,-0.03904,-0.05856,-0.03904,-0.0488,-0.0488
-0.05856,0.05368,-0.0488,-0.01952,0.00976,-0.03416,0.01952,-0.03904,-0.05856,-0.03904,-0.05856,-0.05856
-0.05856,0.05368,-0.0488,-0.01952,0.00976,-0.03416,0.01952,-0.03904,-0.05856,-0.03904,-0.05856,-0.05856
-0.05856,0.0488,-0.03904,-0.00976,0.01952,-0.03904,0.02928,-0.02928,-0.05856,-0.03904,-0.0488,-0.05368
-0.05856,0.0488,-0.03904,-0.00976,0.01952,-0.03904,0.02928,-0.0244,-0.05856,-0.03904,-0.0488,-0.05368
-0.05856,0.0488,-0.03904,-0.00976,0.01952,-0.03904,0.03416,-0.03416,-0.05856,-0.03904,-0.0488,-0.06344
-0.0488,0.04392,-0.03904,-0.01464,0.00976,-0.02928,0.03416,-0.0244,-0.04392,-0.02928,-0.03904,-0.05856
-0.0488,0.03172,-0.01464,0.00976,0.03416,-0.04148,0.03416,-0.0244,-0.03416,-0.01952,-0.02928,-0.05368
-0.0488,0.0244,0,0.0244,0.0488,-0.0488,0.03416,-0.01952,-0.0244,-0.00976,-0.02928,-0.04392
-0.03904,0.01464,0.00976,0.02928,0.0488,-0.04392,0.0488,-0.00976,-0.01952,0.00488,-0.00976,-0.03416
-0.03904,0.00488,0.02928,0.0488,0.06832,-0.05368,0.05856,-0.00976,-0.00976,0.00976,-0.00488,-0.0244
-0.04392,0.00244,0.03904,0.061,0.08296,-0.06344,0.06344,-0.00488,0,0.01952,-0.00488,-0.01464
-0.02928,-0.01464,0.05856,0.0732,0.08784,-0.05856,0.05368,0,0.00976,0.02928,0.00976,0
-0.02928,-0.01952,0.06832,0.08296,0.0976,-0.06344,0.02928,-0.01464,0.00976,0.02928,0.00976,0.00488
-0.02928,-0.01952,0.06832,0.08296,0.0976,-0.06344,-0.01952,-0.0488,-0.01464,0.01464,0,0
-0.01464,-0.03172,0.07808,0.0854,0.09272,-0.05368,-0.05368,-0.05856,-0.03416,0,0,-0.00488
-0.00976,-0.03416,0.07808,0.08296,0.08784,-0.0488,-0.05368,-0.05368,-0.03904,0.00488,0,-0.00976
0.00488,-0.04392,0.08296,0.08052,0.07808,-0.0366,-0.04392,-0.0488,-0.0244,0.00488,-0.00488,0
0.01464,-0.05124,0.08784,0.08052,0.0732,-0.02928,-0.03904,-0.04392,-0.0244,0.00488,0,0
0.0244,-0.05612,0.08784,0.07564,0.06344,-0.01952,-0.04392,-0.04392,-0.03416,0.01464,0,0
0.02928,-0.05368,0.07808,0.06344,0.0488,-0.00976,-0.0488,-0.05368,-0.05368,0,-0.00976,-0.00488
0.01952,-0.03904,0.05856,0.0488,0.03904,-0.00976,-0.05856,-0.06344,-0.06832,-0.0244,-0.01952,-0.01464
0.01464,-0.03416,0.05368,0.04636,0.03904,-0.0122,-0.05856,-0.06344,-0.08296,-0.02928,-0.0244,-0.01952
-0.01952,-0.00732,0.03416,0.04392,0.05368,-0.0366,-0.04392,-0.05368,-0.06832,-0.02928,-0.0244,-0.01952
-0.03416,0.01708,0,0.01708,0.03416,-0.03416,-0.02928,-0.05856,-0.07808,-0.03904,-0.03904,-0.03416
-0.06344,0.04148,-0.01952,0.0122,0.04392,-0.05368,-0.01952,-0.06832,-0.09272,-0.0488,-0.0488,-0.04392
-0.0732,0.05856,-0.04392,-0.00732,0.02928,-0.05124,-0.00976,-0.06344,-0.08784,-0.0488,-0.05856,-0.05368
-0.06832,0.05856,-0.0488,-0.01464,0.01952,-0.04392,0,-0.05856,-0.08784,-0.05856,-0.06344,-0.05368
-0.06832,0.06344,-0.05856,-0.0244,0.00976,-0.03904,0.00488,-0.05856,-0.09272,-0.06832,-0.06832,-0.06344
-0.0732,0.06588,-0.05856,-0.02196,0.01464,-0.04392,0,-0.06344,-0.09272,-0.0732,-0.0732,-0.07808
-0.0732,0.06832,-0.06344,-0.02684,0.00976,-0.04148,0.00488,-0.06344,-0.09272,-0.06832,-0.0732,-0.07808
-0.08296,0.08052,-0.07808,-0.0366,0.00488,-0.04392,0.01464,-0.06344,-0.09272,-0.07808,-0.07808,-0.08784
-0.08296,0.08784,-0.09272,-0.05124,-0.00976,-0.0366,0.01464,-0.05856,-0.09272,-0.08296,-0.07808,-0.08784
-0.08784,0.0854,-0.08296,-0.03904,0.00488,-0.04636,0.00488,-0.05856,-0.10248,-0.0732,-0.07808,-0.08784
-0.08296,0.0854,-0.08784,-0.04636,-0.00488,-0.03904,0.00976,-0.05856,-0.10248,-0.0732,-0.07808,-0.08784
-0.0732,0.07564,-0.07808,-0.04148,-0.00488,-0.03416,0.00976,-0.0488,-0.09272,-0.06344,-0.07808,-0.07808
-0.0732,0.07808,-0.08296,-0.04636,-0.00976,-0.03172,0.00976,-0.0488,-0.08296,-0.06344,-0.07808,-0.07808
-0.06832,0.08052,-0.09272,-0.05856,-0.0244,-0.02196,0.01464,-0.04392,-0.09272,-0.0732,-0.08784,-0.07808
-0.06832,0.08052,-0.09272,-0.05856,-0.0244,-0.02196,0.01464,-0.04392,-0.10248,-0.0732,-0.08784,-0.08296
-0.07808,0.0854,-0.09272,-0.05368,-0.01464,-0.03172,0.01464,-0.05368,-0.09272,-0.0732,-0.08784,-0.08784
-0.0732,0.08296,-0.09272,-0.05612,-0.01952,-0.02684,0.01464,-0.05368,-0.08784,-0.06832,-0.08784,-0.08784
-0.0732,0.08052,-0.08784,-0.05124,-0.01464,-0.02928,0.01464,-0.0488,-0.08784,-0.06832,-0.07808,-0.07808
-0.0732,0.08296,-0.09272,-0.05612,-0.01952,-0.02684,0.01952,-0.03904,-0.08296,-0.06832,-0.0732,-0.07808
-0.07808,0.09516,-0.11224,-0.0732,-0.03416,-0.02196,0.04392,-0.01464,-0.09272,-0.06832,-0.08784,-0.07808
-0.07808,0.12932,-0.18056,-0.14152,-0.10248,0.0122,0.08784,0.05368,-0.07808,-0.08784,-0.11712,-0.13176
-0.0732,0.12932,-0.18544,-0.14884,-0.11224,0.01952,0.15128,0.1464,0,-0.0732,-0.12688,-0.14152
-0.02928,0.10004,-0.1708,-0.15616,-0.14152,0.05612,0.17568,0.25376,0.08784,-0.01464,-0.08784,-0.11712
0.08784,-0.02684,-0.03416,-0.07808,-0.122,0.10492,0.122,0.42456,0.22448,0.14152,0.0488,0.01952
0.22936,-0.21716,0.20496,0.09028,-0.0244,0.12688,0,0.45384,0.42944,0.39528,0.31232,0.244
0.40504,-0.42212,0.4392,0.23668,0.03416,0.18544,-0.1952,0.27816,0.47336,0.56608,0.53192,0.47824
0.5612,-0.60024,0.63928,0.35868,0.07808,0.24156,-0.40016,-0.0732,0.29768,0.60024,0.67344,0.67832
0.64416,-0.76128,0.8784,0.55632,0.23424,0.20496,-0.69784,-0.4392,0.08784,0.62464,0.81496,0.89304
0.71736,-0.9394,1.16144,0.80276,0.44408,0.13664,-1.09312,-0.74664,-0.0976,0.69784,0.99552,1.12728
0.72224,-0.9882,1.25416,0.89304,0.53192,0.09516,-1.23952,-0.85888,-0.21472,0.72712,1.10776,1.2688
0.6832,-0.94916,1.21512,0.87352,0.53192,0.07564,-1.30296,-0.89792,-0.30256,0.732,1.14192,1.32736
0.59048,-0.77104,0.9516,0.65636,0.36112,0.11468,-1.23464,-0.89792,-0.4636,0.49288,0.89304,1.11264
0.35624,-0.48312,0.61,0.43188,0.25376,0.05124,-0.976,-0.8296,-0.51728,0.18056,0.50264,0.6832
0.09272,-0.19032,0.28792,0.24156,0.1952,-0.05124,-0.6588,-0.77592,-0.57584,-0.15616,0.05368,0.20496
0.00976,-0.03172,0.05368,0.0488,0.04392,-0.01708,-0.39528,-0.62464,-0.57096,-0.32208,-0.18544,-0.0488
-0.01464,0.02928,-0.04392,-0.0366,-0.02928,0.00732,-0.20984,-0.40992,-0.4392,-0.28304,-0.1952,-0.09272
-0.03416,0.04392,-0.05368,-0.0366,-0.01952,-0.00732,-0.15128,-0.27816,-0.31232,-0.20008,-0.1464,-0.07808
-0.05856,0.05368,-0.0488,-0.01952,0.00976,-0.03416,-0.07808,-0.16592,-0.20496,-0.12688,-0.10248,-0.07808
-0.06344,0.06344,-0.06344,-0.03172,0,-0.03172,-0.00976,-0.08296,-0.12688,-0.08784,-0.08296,-0.07808
-0.05856,0.061,-0.06344,-0.03416,-0.00488,-0.02684,0.03904,-0.03904,-0.09272,-0.0732,-0.07808,-0.06344
-0.0732,0.07808,-0.08296,-0.04636,-0.00976,-0.03172,0.02928,-0.03416,-0.0976,-0.07808,-0.07808,-0.06832
-0.08296,0.0976,-0.11224,-0.07076,-0.02928,-0.02684,0.03904,-0.02928,-0.08784,-0.07808,-0.08296,-0.08784
-0.08296,0.10004,-0.11712,-0.07564,-0.03416,-0.0244,0.0488,-0.01952,-0.08784,-0.08784,-0.09272,-0.0976
-0.08784,0.10492,-0.122,-0.07808,-0.03416,-0.02684,0.06832,-0.01952,-0.08784,-0.0976,-0.10736,-0.10736
-0.09272,0.1098,-0.12688,-0.08052,-0.03416,-0.02928,0.06832,-0.00976,-0.0732,-0.09272,-0.10248,-0.10736
-0.08296,0.10004,-0.11712,-0.07564,-0.03416,-0.0244,0.0732,-0.00976,-0.0732,-0.08296,-0.09272,-0.0976
-0.08296,0.10248,-0.122,-0.08052,-0.03904,-0.02196,0.07808,0,-0.06832,-0.08296,-0.09272,-0.0976
-0.08296,0.10248,-0.122,-0.08052,-0.03904,-0.02196,0.07808,0,-0.05856,-0.07808,-0.10248,-0.10248
-0.08784,0.10492,-0.122,-0.07808,-0.03416,-0.02684,0.08296,0,-0.05856,-0.07808,-0.10248,-0.10248
-0.08784,0.10248,-0.11712,-0.0732,-0.02928,-0.02928,0.08296,0.01464,-0.05368,-0.07808,-0.10736,-0.10248
-0.08784,0.10248,-0.11712,-0.0732,-0.02928,-0.02928,0.08296,0.01464,-0.05368,-0.07808,-0.10248,-0.10248
-0.09272,0.1098,-0.12688,-0.08052,-0.03416,-0.02928,0.08296,0.01952,-0.05368,-0.06832,-0.10248,-0.11224
-0.09272,0.1098,-0.12688,-0.08052,-0.03416,-0.02928,0.08784,0.01952,-0.05368,-0.06832,-0.10248,-0.11224
-0.08784,0.10736,-0.12688,-0.08296,-0.03904,-0.0244,0.08784,0.01464,-0.06344,-0.07808,-0.10248,-0.11224
-0.08784,0.10736,-0.12688,-0.08296,-0.03904,-0.0244,0.08784,0.01464,-0.06344,-0.07808,-0.10248,-0.11224
-0.08784,0.10248,-0.11712,-0.0732,-0.02928,-0.02928,0.08784,0.01464,-0.0488,-0.07808,-0.10736,-0.10248
-0.08784,0.10248,-0.11712,-0.0732,-0.02928,-0.02928,0.09272,0.01952,-0.0488,-0.07808,-0.10248,-0.10248
-0.09272,0.10736,-0.122,-0.07564,-0.02928,-0.03172,0.09272,0.02928,-0.05856,-0.0732,-0.09272,-0.10736
-0.09272,0.10736,-0.122,-0.07564,-0.02928,-0.03172,0.09272,0.02928,-0.05368,-0.0732,-0.09272,-0.10736
-0.09272,0.10004,-0.10736,-0.061,-0.01464,-0.03904,0.09272,0.03416,-0.05368,-0.0732,-0.10248,-0.10248
-0.09272,0.10004,-0.10736,-0.061,-0.01464,-0.03904,0.09272,0.03416,-0.05368,-0.0732,-0.10248,-0.10248
-0.09272,0.10004,-0.10736,-0.061,-0.01464,-0.03904,0.09272,0.03416,-0.04392,-0.07808,-0.11224,-0.11224
-0.09272,0.10004,-0.10736,-0.061,-0.01464,-0.03904,0.09272,0.03904,-0.04392,-0.08296,-0.11224,-0.11224
-0.09272,0.10248,-0.11224,-0.06588,-0.01952,-0.0366,0.09272,0.03904,-0.04392,-0.0732,-0.11224,-0.11712
-0.09272,0.10492,-0.11712,-0.07076,-0.0244,-0.03416,0.09272,0.04392,-0.03904,-0.06832,-0.11224,-0.11224
-0.08784,0.10004,-0.11224,-0.06832,-0.0244,-0.03172,0.0976,0.0488,-0.03904,-0.06832,-0.10248,-0.10248
-0.09272,0.10248,-0.11224,-0.06588,-0.01952,-0.0366,0.0976,0.05368,-0.03904,-0.06344,-0.09272,-0.10248
-0.08784,0.10248,-0.11712,-0.0732,-0.02928,-0.02928,0.0976,0.05368,-0.03416,-0.06344,-0.10248,-0.10248
-0.08784,0.10492,-0.122,-0.07808,-0.03416,-0.02684,0.0976,0.06344,-0.03416,-0.06344,-0.0976,-0.10248
-0.09272,0.10248,-0.11224,-0.06588,-0.01952,-0.0366,0.10248,0.06832,-0.02928,-0.05856,-0.0976,-0.0976
-0.09272,0.10004,-0.10736,-0.061,-0.01464,-0.03904,0.10248,0.06832,-0.0244,-0.05368,-0.0976,-0.0976
-0.08784,0.0976,-0.10736,-0.06344,-0.01952,-0.03416,0.09272,0.0732,-0.03416,-0.05368,-0.0976,-0.0976
-0.08784,0.09516,-0.10248,-0.05856,-0.01464,-0.0366,0.08296,0.08296,-0.0244,-0.05368,-0.09272,-0.0976
-0.08784,0.09516,-0.10248,-0.05856,-0.01464,-0.0366,0.08784,0.10248,-0.00976,-0.0488,-0.08784,-0.09272
-0.0732,0.08296,-0.09272,-0.05612,-0.01952,-0.02684,0.09272,0.11224,0,-0.03904,-0.08784,-0.08784
-0.06344,0.07076,-0.07808,-0.04636,-0.01464,-0.0244,0.09272,0.122,-0.00976,-0.03416,-0.07808,-0.0976
-0.05368,0.06344,-0.0732,-0.04636,-0.01952,-0.01708,0.09272,0.13176,0,-0.03416,-0.07808,-0.09272
-0.05856,0.06832,-0.07808,-0.0488,-0.01952,-0.01952,0.08784,0.14152,0.00976,-0.0244,-0.06832,-0.08296
-0.0488,0.061,-0.0732,-0.0488,-0.0244,-0.0122,0.08784,0.15616,0.01464,-0.01952,-0.06832,-0.07808
-0.0488,0.05856,-0.06832,-0.04392,-0.01952,-0.01464,0.08784,0.16592,0.0244,-0.00976,-0.05856,-0.06832
-0.03416,0.04636,-0.05856,-0.04148,-0.0244,-0.00488,0.08296,0.18056,0.02928,-0.00488,-0.05368,-0.06832
-0.01952,0.03172,-0.04392,-0.03416,-0.0244,0.00244,0.07808,0.19032,0.03904,0.00488,-0.04392,-0.0488
-0.00976,0.0244,-0.03904,-0.03416,-0.02928,0.00976,0.0732,0.20496,0.0488,0.00976,-0.03416,-0.04392
-0.00976,0.02684,-0.04392,-0.03904,-0.03416,0.0122,0.0732,0.20984,0.05368,0.01952,-0.04392,-0.03416
-0.00976,0.02196,-0.03416,-0.02928,-0.0244,0.00732,0.06344,0.21472,0.05856,0.0244,-0.03416,-0.0244
0.00488,0.00976,-0.0244,-0.02684,-0.02928,0.01708,0.06832,0.21472,0.05856,0.02928,-0.01952,-0.01952
0.00976,0.00244,-0.01464,-0.01952,-0.0244,0.01708,0.06344,0.22448,0.06344,0.03416,-0.01952,-0.01464
0.01952,-0.01464,0.00976,0,-0.00976,0.01464,0.05856,0.22448,0.05368,0.03904,-0.01464,-0.01464
0.0244,-0.01952,0.01464,0.00244,-0.00976,0.01708,0.0488,0.22448,0.05368,0.04392,0,0
0.0244,-0.01708,0.00976,-0.00244,-0.01464,0.01952,0.03904,0.22448,0.05368,0.04392,0.00488,0
0.03416,-0.02928,0.0244,0.00732,-0.00976,0.02196,0.03416,0.2196,0.05368,0.04392,0.00488,0
0.03416,-0.03172,0.02928,0.0122,-0.00488,0.01952,0.0244,0.21472,0.06832,0.0488,0.00488,0.01464
0.03416,-0.03172,0.02928,0.0122,-0.00488,0.01952,0.01952,0.20496,0.06344,0.0488,0.00976,0.01952
0.03904,-0.0366,0.03416,0.01464,-0.00488,0.02196,0.01952,0.20008,0.05856,0.03904,0.00976,0.0244
0.03904,-0.0366,0.03416,0.01464,-0.00488,0.02196,0.01952,0.1952,0.05856,0.03904,0.00976,0.02928
0.05368,-0.05124,0.0488,0.02196,-0.00488,0.02928,0.00976,0.1952,0.05856,0.0488,0.01464,0.03416
0.05368,-0.05612,0.05856,0.03172,0.00488,0.0244,0.00488,0.18544,0.05856,0.0488,0.01464,0.03416
0.05368,-0.06344,0.0732,0.04636,0.01952,0.01708,0.00976,0.18544,0.05856,0.0488,0.02928,0.0488
0.05368,-0.06344,0.0732,0.04636,0.01952,0.01708,0.00976,0.18056,0.05856,0.0488,0.02928,0.05368
0.05368,-0.06344,0.0732,0.04636,0.01952,0.01708,0.00976,0.16592,0.05856,0.05368,0.0244,0.0488
0.05368,-0.06832,0.08296,0.05612,0.02928,0.0122,0.00976,0.15616,0.06344,0.05856,0.02928,0.0488
0.05368,-0.0732,0.09272,0.06588,0.03904,0.00732,0.00976,0.15616,0.0732,0.05856,0.03416,0.0488
0.0488,-0.0732,0.0976,0.0732,0.0488,0,0.01464,0.14152,0.07808,0.06344,0.03416,0.05368
0.04392,-0.06344,0.08296,0.061,0.03904,0.00244,0.00488,0.14152,0.0732,0.06832,0.03416,0.04392
0.03416,-0.05368,0.0732,0.05612,0.03904,-0.00244,0.00976,0.13664,0.0732,0.06832,0.03416,0.04392
0.0244,-0.04148,0.05856,0.04636,0.03416,-0.00488,0.0244,0.11712,0.07808,0.0732,0.03416,0.04392
0.01952,-0.0366,0.05368,0.04392,0.03416,-0.00732,0.02928,0.11224,0.07808,0.0732,0.03416,0.04392
0.01464,-0.0366,0.05856,0.05124,0.04392,-0.01464,0.02928,0.10736,0.0732,0.0732,0.02928,0.04392
0.00976,-0.03172,0.05368,0.0488,0.04392,-0.01708,0.03416,0.08784,0.06344,0.0732,0.02928,0.02928
-0.00488,-0.02196,0.0488,0.05124,0.05368,-0.02928,0.02928,0.07808,0.05856,0.06344,0.0244,0.0244
-0.00976,-0.01708,0.04392,0.0488,0.05368,-0.03172,0.02928,0.06832,0.0488,0.05368,0.01952,0.01464
-0.0244,-0.00244,0.02928,0.04148,0.05368,-0.03904,0.02928,0.04392,0.02928,0.05368,0,0
-0.0244,0,0.0244,0.0366,0.0488,-0.0366,0.0244,0.03904,0.01952,0.04392,-0.00488,0
-0.0244,0.0122,0,0.0122,0.0244,-0.0244,0.0244,0.0244,0.01952,0.0244,-0.00976,-0.01464
-0.02928,0.01464,0,0.01464,0.02928,-0.02928,0.0244,0.01952,0.00976,0.01952,-0.01464,-0.01464
-0.04392,0.01952,0.00488,0.02684,0.0488,-0.04636,0.01464,0.01952,-0.00488,0.00976,-0.01464,-0.01952
-0.04392,0.01952,0.00488,0.02684,0.0488,-0.04636,0.01464,0.01464,-0.00488,0.00976,-0.01464,-0.01952
-0.03416,0.01464,0.00488,0.02196,0.03904,-0.0366,0.01464,0.01464,-0.01464,0.01464,-0.00976,-0.01952
-0.03416,0.01464,0.00488,0.02196,0.03904,-0.0366,0.01464,0.00976,-0.01464,0.00976,-0.00976,-0.01952
-0.03904,0.0244,-0.00976,0.00976,0.02928,-0.03416,0.0244,0.01952,-0.0244,0.00976,-0.01464,-0.0244
-0.03416,0.01952,-0.00488,0.0122,0.02928,-0.03172,0.0244,0.01952,-0.01952,0.00976,-0.01464,-0.0244
-0.04392,0.02196,0,0.02196,0.04392,-0.04392,0.0244,0.00976,-0.01952,0.00976,-0.01464,-0.0244
-0.0488,0.0244,0,0.0244,0.0488,-0.0488,0.0244,0.00976,-0.00976,0.00488,-0.01464,-0.0244
-0.04392,0.02684,-0.00976,0.0122,0.03416,-0.03904,0.0244,0.01952,-0.01952,0,-0.0244,-0.0244
-0.03904,0.0244,-0.00976,0.00976,0.02928,-0.03416,0.02928,0.0244,-0.00976,0,-0.01952,-0.0244
-0.0488,0.0244,0,0.0244,0.0488,-0.0488,0.02928,0.01952,-0.01952,0.00976,-0.01952,-0.01464
-0.0488,0.0244,0,0.0244,0.0488,-0.0488,0.02928,0.01464,-0.01464,0.00976,-0.01952,-0.01464
-0.03904,0.01952,0,0.01952,0.03904,-0.03904,0.01952,0.01464,-0.01464,0.00976,-0.01952,-0.0244
-0.03904,0.01952,0,0.01952,0.03904,-0.03904,0.01952,0.01464,-0.01464,0.01464,-0.01952,-0.01952
-0.03904,0.0244,-0.00976,0.00976,0.02928,-0.03416,0.01952,0.01952,-0.01464,0.00488,-0.02928,-0.03416
-0.04392,0.02684,-0.00976,0.0122,0.03416,-0.03904,0.01952,0.01952,-0.01464,0,-0.02928,-0.03416
-0.04392,0.02684,-0.00976,0.0122,0.03416,-0.03904,0.0244,0.01952,-0.01464,0,-0.02928,-0.0244
-0.04392,0.02684,-0.00976,0.0122,0.03416,-0.03904,0.0244,0.01464,-0.01464,0,-0.03416,-0.0244
-0.04392,0.02684,-0.00976,0.0122,0.03416,-0.03904,0.0244,0.01952,-0.01464,0.00488,-0.0244,-0.02928
-0.04392,0.02684,-0.00976,0.0122,0.03416,-0.03904,0.0244,0.01952,-0.01464,0.00488,-0.0244,-0.0244
-0.0488,0.0244,0,0.0244,0.0488,-0.0488,0.0244,0.01464,-0.01952,0.00488,-0.0244,-0.0244
-0.0488,0.0244,0,0.0244,0.0488,-0.0488,0.0244,0.01464,-0.0244,0,-0.02928,-0.0244
-0.05368,0.02928,-0.00488,0.02196,0.0488,-0.05124,0.03416,0.01464,-0.01952,0,-0.01952,-0.02928
-0.05368,0.02928,-0.00488,0.02196,0.0488,-0.05124,0.03416,0.01464,-0.0244,0,-0.01952,-0.02928
-0.04392,0.03172,-0.01952,0.00244,0.0244,-0.03416,0.03416,0.00976,-0.01464,-0.00488,-0.03416,-0.03416
-0.04392,0.03172,-0.01952,0.00244,0.0244,-0.03416,0.03416,0.00976,-0.01464,-0.00488,-0.03416,-0.03416
-0.04392,0.03416,-0.0244,-0.00244,0.01952,-0.03172,0.03416,0.01464,-0.01952,-0.00488,-0.0244,-0.0244
-0.04392,0.03416,-0.0244,-0.00244,0.01952,-0.03172,0.03416,0.01464,-0.01952,-0.00976,-0.01952,-0.02928
-0.03904,0.03172,-0.0244,-0.00488,0.01464,-0.02684,0.03416,0.01464,-0.03416,-0.00976,-0.02928,-0.02928
-0.03904,0.03416,-0.02928,-0.00976,0.00976,-0.0244,0.03416,0.00976,-0.03904,-0.01464,-0.03904,-0.02928
-0.03904,0.03416,-0.02928,-0.00976,0.00976,-0.0244,0.03416,0,-0.04392,-0.01464,-0.02928,-0.02928
-0.03904,0.03416,-0.02928,-0.00976,0.00976,-0.0244,0.02928,-0.00488,-0.04392,-0.01464,-0.02928,-0.02928
-0.0488,0.03416,-0.01952,0.00488,0.02928,-0.03904,0.02928,0.00488,-0.03904,-0.01952,-0.03416,-0.03416
-0.0488,0.0366,-0.0244,0,0.0244,-0.0366,0.02928,0,-0.03904,-0.01952,-0.03416,-0.03416
-0.0488,0.03416,-0.01952,0.00488,0.02928,-0.03904,0.02928,-0.00976,-0.0488,-0.0244,-0.03904,-0.03416
-0.0488,0.03904,-0.02928,-0.00488,0.01952,-0.03416,0.0244,-0.00976,-0.0488,-0.02928,-0.04392,-0.03904
-0.0488,0.03904,-0.02928,-0.00488,0.01952,-0.03416,0.03416,-0.00976,-0.0488,-0.02928,-0.04392,-0.03904
-0.04392,0.0366,-0.02928,-0.00732,0.01464,-0.02928,0.03416,-0.01464,-0.05368,-0.02928,-0.04392,-0.04392
-0.0488,0.03904,-0.02928,-0.00488,0.01952,-0.03416,0.0244,-0.01464,-0.05856,-0.02928,-0.05368,-0.05368
-0.0488,0.03904,-0.02928,-0.00488,0.01952,-0.03416,0.0244,-0.01952,-0.05856,-0.03416,-0.05856,-0.05368
-0.05856,0.05124,-0.04392,-0.01464,0.01464,-0.0366,0.02928,-0.00976,-0.05856,-0.03416,-0.05856,-0.05368
-0.05856,0.0488,-0.03904,-0.00976,0.01952,-0.03904,0.0244,-0.01464,-0.06344,-0.03416,-0.05856,-0.05368
-0.05856,0.04392,-0.02928,0,0.02928,-0.04392,0.0244,-0.0244,-0.06344,-0.03904,-0.06832,-0.05368
-0.05856,0.04636,-0.03416,-0.00488,0.0244,-0.04148,0.0244,-0.0244,-0.06832,-0.03904,-0.06832,-0.05856
-0.0488,0.04148,-0.03416,-0.00976,0.01464,-0.03172,0.01464,-0.0244,-0.06344,-0.03904,-0.06344,-0.05856
-0.05368,0.04392,-0.03416,-0.00732,0.01952,-0.0366,0.01464,-0.02928,-0.06832,-0.03904,-0.06344,-0.06344
-0.05856,0.04636,-0.03416,-0.00488,0.0244,-0.04148,0.01464,-0.02928,-0.06832,-0.05368,-0.06832,-0.06344
-0.05856,0.04636,-0.03416,-0.00488,0.0244,-0.04148,0.01464,-0.02928,-0.06832,-0.05368,-0.06832,-0.05856
-0.0488,0.04148,-0.03416,-0.00976,0.01464,-0.03172,0.01464,-0.03904,-0.06832,-0.04392,-0.06832,-0.06832
-0.0488,0.04148,-0.03416,-0.00976,0.01464,-0.03172,0.01464,-0.03904,-0.06832,-0.04392,-0.06344,-0.06832
-0.05856,0.0488,-0.03904,-0.00976,0.01952,-0.03904,0.0244,-0.02928,-0.07808,-0.04392,-0.06832,-0.05856
-0.06344,0.05124,-0.03904,-0.00732,0.0244,-0.04392,0.0244,-0.03416,-0.08296,-0.04392,-0.06832,-0.05856
-0.05368,0.04392,-0.03416,-0.00732,0.01952,-0.0366,0.01464,-0.03416,-0.08296,-0.04392,-0.06832,-0.06344
-0.05856,0.04636,-0.03416,-0.00488,0.0244,-0.04148,0.01464,-0.03416,-0.07808,-0.04392,-0.06832,-0.06344
-0.05856,0.04392,-0.02928,0,0.02928,-0.04392,0.01464,-0.03416,-0.08784,-0.05368,-0.07808,-0.06344
-0.05856,0.04636,-0.03416,-0.00488,0.0244,-0.04148,0.01464,-0.03416,-0.08784,-0.05368,-0.07808,-0.06344
-0.05368,0.0488,-0.04392,-0.01708,0.00976,-0.03172,0.01464,-0.03416,-0.08296,-0.0488,-0.06832,-0.06344
-0.05856,0.05368,-0.0488,-0.01952,0.00976,-0.03416,0.01464,-0.03416,-0.08296,-0.0488,-0.06832,-0.05856
-0.05368,0.04636,-0.03904,-0.0122,0.01464,-0.03416,0.01464,-0.03416,-0.07808,-0.05856,-0.06832,-0.06344
-0.05368,0.04636,-0.03904,-0.0122,0.01464,-0.03416,0.01464,-0.03904,-0.07808,-0.05856,-0.0732,-0.06344
-0.05368,0.04636,-0.03904,-0.0122,0.01464,-0.03416,0.01464,-0.03904,-0.08296,-0.0488,-0.06832,-0.06832
-0.05368,0.05124,-0.0488,-0.02196,0.00488,-0.02928,0.01464,-0.03904,-0.08296,-0.0488,-0.0732,-0.07808
-0.06344,0.05856,-0.05368,-0.02196,0.00976,-0.0366,0.01464,-0.03904,-0.08296,-0.0488,-0.0732,-0.06832
-0.06344,0.05856,-0.05368,-0.02196,0.00976,-0.0366,0.01464,-0.03904,-0.08296,-0.0488,-0.0732,-0.06832
-0.06344,0.05368,-0.04392,-0.0122,0.01952,-0.04148,0.01952,-0.03904,-0.0732,-0.0488,-0.06344,-0.05856
-0.05856,0.0488,-0.03904,-0.00976,0.01952,-0.03904,0.01952,-0.03904,-0.07808,-0.0488,-0.06832,-0.06832
-0.05856,0.0488,-0.03904,-0.00976,0.01952,-0.03904,0.01952,-0.03904,-0.07808,-0.0488,-0.06832,-0.06832
-0.05856,0.05368,-0.0488,-0.01952,0.00976,-0.03416,0.01952,-0.03904,-0.08784,-0.0488,-0.07808,-0.07808
-0.05856,0.05368,-0.0488,-0.01952,0.00976,-0.03416,0.01952,-0.03904,-0.08784,-0.0488,-0.07808,-0.0732
-0.05856,0.04636,-0.03416,-0.00488,0.0244,-0.04148,0.0244,-0.03416,-0.08784,-0.0488,-0.06832,-0.06344
-0.05856,0.04148,-0.0244,0.00488,0.03416,-0.04636,0.0244,-0.03416,-0.08296,-0.04392,-0.06832,-0.06344
-0.0488,0.03172,-0.01464,0.00976,0.03416,-0.04148,0.02928,-0.0244,-0.06832,-0.04392,-0.05856,-0.05368
-0.0488,0.0244,0,0.0244,0.0488,-0.0488,0.03416,-0.0244,-0.05368,-0.03416,-0.0488,-0.04392
-0.0488,0.01708,0.01464,0.03904,0.06344,-0.05612,0.03416,-0.02928,-0.0488,-0.01952,-0.0488,-0.04392
-0.0488,0.00976,0.02928,0.05368,0.07808,-0.06344,0.03904,-0.02928,-0.04392,-0.00976,-0.0488,-0.03416
-0.04392,0.00488,0.03416,0.05612,0.07808,-0.061,0.06344,-0.01464,-0.03416,-0.00488,-0.03904,-0.03416
-0.03416,-0.00732,0.0488,0.06588,0.08296,-0.05856,0.05856,-0.00976,-0.0244,0.00488,-0.02928,-0.0244
-0.02928,-0.02196,0.0732,0.08784,0.10248,-0.06588,0.03416,-0.01952,-0.01952,0.01952,-0.00976,-0.00488
-0.02928,-0.0244,0.07808,0.09272,0.10736,-0.06832,-0.00976,-0.05368,-0.02928,0,-0.01464,-0.00976
-0.01952,-0.03416,0.08784,0.0976,0.10736,-0.06344,-0.03416,-0.05856,-0.04392,-0.00488,-0.01952,-0.01464
-0.00976,-0.03904,0.08784,0.09272,0.0976,-0.05368,-0.04392,-0.06832,-0.0488,-0.00976,-0.01952,-0.01464
0.00976,-0.05124,0.09272,0.08784,0.08296,-0.0366,-0.04392,-0.0488,-0.05368,-0.00488,-0.01952,-0.00976
0.01952,-0.05856,0.0976,0.08784,0.07808,-0.02928,-0.04392,-0.0488,-0.05368,-0.00488,-0.00976,-0.00976
0.01464,-0.05124,0.08784,0.08052,0.0732,-0.02928,-0.0488,-0.05368,-0.05856,-0.00488,-0.0244,-0.00976
0.01464,-0.04636,0.07808,0.07076,0.06344,-0.0244,-0.05856,-0.05856,-0.06832,-0.01464,-0.02928,-0.01464
0.02928,-0.05124,0.0732,0.05856,0.04392,-0.00732,-0.05856,-0.07808,-0.08296,-0.0244,-0.04392,-0.01952
0.01952,-0.0366,0.05368,0.04392,0.03416,-0.00732,-0.05856,-0.08296,-0.10248,-0.03904,-0.05368,-0.02928
0,-0.02684,0.05368,0.05368,0.05368,-0.02684,-0.0488,-0.08296,-0.0976,-0.03904,-0.05368,-0.02928
-0.01952,-0.00488,0.02928,0.03904,0.0488,-0.03416,-0.03416,-0.0732,-0.0976,-0.03904,-0.05856,-0.03904
-0.04392,0.01952,0.00488,0.02684,0.0488,-0.04636,-0.0244,-0.06832,-0.122,-0.06344,-0.07808,-0.05368
-0.06344,0.04392,-0.0244,0.00732,0.03904,-0.05124,-0.01464,-0.06832,-0.11712,-0.06832,-0.08296,-0.05856
-0.06344,0.0488,-0.03416,-0.00244,0.02928,-0.04636,-0.00976,-0.0732,-0.10736,-0.07808,-0.09272,-0.06832
-0.06832,0.05612,-0.04392,-0.00976,0.0244,-0.04636,-0.00976,-0.07808,-0.11712,-0.08296,-0.09272,-0.07808
-0.05856,0.05612,-0.05368,-0.0244,0.00488,-0.03172,0,-0.06832,-0.122,-0.09272,-0.11224,-0.0976
-0.06344,0.06344,-0.06344,-0.03172,0,-0.03172,0,-0.06344,-0.122,-0.08784,-0.11224,-0.0976
-0.06344,0.06588,-0.06832,-0.0366,-0.00488,-0.02928,0.00488,-0.0732,-0.122,-0.08784,-0.10248,-0.08784
-0.06344,0.06832,-0.0732,-0.04148,-0.00976,-0.02684,0.00488,-0.0732,-0.122,-0.08784,-0.10736,-0.08784
-0.0732,0.07808,-0.08296,-0.04636,-0.00976,-0.03172,0.01464,-0.05856,-0.122,-0.08296,-0.10736,-0.08784
-0.07808,0.08052,-0.08296,-0.04392,-0.00488,-0.0366,0.01952,-0.05856,-0.122,-0.08296,-0.10736,-0.08784
-0.0732,0.07564,-0.07808,-0.04148,-0.00488,-0.03416,0.01952,-0.06832,-0.13176,-0.09272,-0.10736,-0.0976
-0.0732,0.07564,-0.07808,-0.04148,-0.00488,-0.03416,0.01952,-0.06832,-0.13176,-0.09272,-0.10736,-0.0976
-0.06832,0.07564,-0.08296,-0.0488,-0.01464,-0.02684,0.00976,-0.05856,-0.122,-0.08296,-0.10736,-0.08784
-0.06832,0.07564,-0.08296,-0.0488,-0.01464,-0.02684,0.01464,-0.05368,-0.122,-0.08296,-0.10736,-0.09272
-0.06832,0.07564,-0.08296,-0.0488,-0.01464,-0.02684,0.01464,-0.05368,-0.11224,-0.08296,-0.10736,-0.08784
-0.06344,0.0732,-0.08296,-0.05124,-0.01952,-0.02196,0.01464,-0.05368,-0.11224,-0.08296,-0.10736,-0.08784
-0.06344,0.0732,-0.08296,-0.05124,-0.01952,-0.02196,0.01464,-0.0488,-0.11712,-0.07808,-0.10736,-0.0976
-0.06344,0.07076,-0.07808,-0.04636,-0.01464,-0.0244,0.01952,-0.0488,-0.11712,-0.07808,-0.10248,-0.0976
-0.06832,0.08784,-0.10736,-0.0732,-0.03904,-0.01464,0.03904,-0.02928,-0.10248,-0.07808,-0.10736,-0.0976
-0.06832,0.1098,-0.15128,-0.11712,-0.08296,0.00732,0.08296,0.01464,-0.11224,-0.10736,-0.14152,-0.12688
-0.07808,0.13176,-0.18544,-0.1464,-0.10736,0.01464,0.1464,0.11712,-0.05856,-0.08784,-0.15616,-0.16104
-0.05368,0.11224,-0.1708,-0.14396,-0.11712,0.03172,0.17568,0.20496,0.03904,-0.04392,-0.11712,-0.13664
0.05856,0.00488,-0.06832,-0.0976,-0.12688,0.09272,0.14152,0.366,0.16104,0.06832,-0.0244,-0.04392
0.20008,-0.1708,0.14152,0.04148,-0.05856,0.12932,0.03904,0.48312,0.366,0.3172,0.2196,0.18056
0.38064,-0.38796,0.39528,0.20496,0.01464,0.183,-0.13176,0.35136,0.47336,0.53192,0.46848,0.42944
0.54656,-0.5612,0.57584,0.30256,0.02928,0.25864,-0.3416,0.0244,0.31232,0.56608,0.61,0.62464
0.62952,-0.72224,0.81496,0.5002,0.18544,0.22204,-0.58072,-0.33672,0.14152,0.60024,0.73688,0.82472
0.72224,-0.91256,1.10288,0.74176,0.38064,0.1708,-1.0004,-0.68808,-0.06344,0.65392,0.9028,1.04432
0.73688,-0.99796,1.25904,0.8906,0.52216,0.10736,-1.1956,-0.84424,-0.1952,0.7076,1.03944,1.21024
0.7076,-0.98576,1.26392,0.91012,0.55632,0.07564,-1.2932,-0.90768,-0.28304,0.72712,1.11264,1.30784
0.61488,-0.81496,1.01504,0.7076,0.40016,0.10736,-1.24928,-0.90768,-0.44896,0.52704,0.91744,1.13216
0.40992,-0.549,0.68808,0.48312,0.27816,0.06588,-1.02968,-0.85888,-0.5368,0.2196,0.53192,0.75152
0.13664,-0.2562,0.37576,0.30744,0.23912,-0.05124,-0.72224,-0.81984,-0.60024,-0.10736,0.10248,0.27816
0.0244,-0.0732,0.122,0.1098,0.0976,-0.0366,-0.45384,-0.69296,-0.61488,-0.31232,-0.16592,-0.01464
-0.01464,0.0122,-0.00976,-0.00244,0.00488,-0.00976,-0.23424,-0.45872,-0.488,-0.30256,-0.22448,-0.10736
-0.04392,0.04392,-0.04392,-0.02196,0,-0.02196,-0.1464,-0.30744,-0.35136,-0.22448,-0.17568,-0.0976
-0.06832,0.05124,-0.03416,0,0.03416,-0.05124,-0.08296,-0.20008,-0.22936,-0.15128,-0.12688,-0.07808
-0.05856,0.05856,-0.05856,-0.02928,0,-0.02928,-0.0244,-0.11224,-0.18056,-0.12688,-0.122,-0.08784
-0.05368,0.05612,-0.05856,-0.03172,-0.00488,-0.0244,0.00976,-0.05368,-0.1464,-0.0976,-0.10736,-0.08296
-0.06344,0.06344,-0.06344,-0.03172,0,-0.03172,0.02928,-0.0488,-0.122,-0.08784,-0.10736,-0.08296
-0.0732,0.08052,-0.08784,-0.05124,-0.01464,-0.02928,0.03416,-0.03416,-0.122,-0.0976,-0.11712,-0.08784
-0.0732,0.08784,-0.10248,-0.06588,-0.02928,-0.02196,0.04392,-0.0244,-0.11712,-0.10248,-0.12688,-0.10248
-0.0732,0.09028,-0.10736,-0.07076,-0.03416,-0.01952,0.05368,-0.01952,-0.11712,-0.10736,-0.12688,-0.10736
-0.08296,0.09272,-0.10248,-0.061,-0.01952,-0.03172,0.05856,-0.01464,-0.10736,-0.10736,-0.122,-0.10736
-0.09272,0.10004,-0.10736,-0.061,-0.01464,-0.03904,0.05856,-0.00976,-0.09272,-0.10248,-0.122,-0.11712
-0.09272,0.10248,-0.11224,-0.06588,-0.01952,-0.0366,0.06344,-0.00488,-0.09272,-0.10248,-0.122,-0.11712
-0.08296,0.0976,-0.11224,-0.07076,-0.02928,-0.02684,0.07808,0,-0.0976,-0.0976,-0.13176,-0.122
-0.08296,0.0976,-0.11224,-0.07076,-0.02928,-0.02684,0.07808,0,-0.0976,-0.0976,-0.13176,-0.122
-0.07808,0.0976,-0.11712,-0.07808,-0.03904,-0.01952,0.0732,0,-0.0976,-0.10736,-0.13664,-0.122
-0.07808,0.0976,-0.11712,-0.07808,-0.03904,-0.01952,0.0732,0.00488,-0.09272,-0.10736,-0.13664,-0.122
-0.07808,0.0976,-0.11712,-0.07808,-0.03904,-0.01952,0.0732,0.00976,-0.09272,-0.0976,-0.122,-0.11224
-0.08784,0.10248,-0.11712,-0.0732,-0.02928,-0.02928,0.07808,0.00976,-0.09272,-0.0976,-0.122,-0.11224
-0.0976,0.10736,-0.11712,-0.06832,-0.01952,-0.03904,0.07808,0,-0.09272,-0.0976,-0.13176,-0.10248
-0.0976,0.10736,-0.11712,-0.06832,-0.01952,-0.03904,0.07808,0.00488,-0.09272,-0.0976,-0.13176,-0.10248
-0.0976,0.10736,-0.11712,-0.06832,-0.01952,-0.03904,0.07808,0.00488,-0.08784,-0.0976,-0.12688,-0.11224
-0.0976,0.10736,-0.11712,-0.06832,-0.01952,-0.03904,0.07808,0.00488,-0.08784,-0.0976,-0.12688,-0.11224
-0.08784,0.0976,-0.10736,-0.06344,-0.01952,-0.03416,0.08296,0.00976,-0.08784,-0.09272,-0.13176,-0.11224
-0.08296,0.09272,-0.10248,-0.061,-0.01952,-0.03172,0.08296,0.00976,-0.08296,-0.09272,-0.13176,-0.10736
-0.09272,0.10004,-0.10736,-0.061,-0.01464,-0.03904,0.08296,0.00976,-0.0732,-0.08296,-0.122,-0.11712
-0.09272,0.10004,-0.10736,-0.061,-0.01464,-0.03904,0.08296,0.01464,-0.0732,-0.08296,-0.122,-0.122
-0.08296,0.09028,-0.0976,-0.05612,-0.01464,-0.03416,0.08296,0.01464,-0.08296,-0.08784,-0.13176,-0.122
-0.08296,0.09028,-0.0976,-0.05612,-0.01464,-0.03416,0.08296,0.01952,-0.08296,-0.08784,-0.13176,-0.122
-0.08296,0.09516,-0.10736,-0.06588,-0.0244,-0.02928,0.08296,0.01952,-0.0732,-0.08296,-0.122,-0.11712
-0.08296,0.09272,-0.10248,-0.061,-0.01952,-0.03172,0.08296,0.0244,-0.0732,-0.08296,-0.122,-0.11712
-0.08784,0.0976,-0.10736,-0.06344,-0.01952,-0.03416,0.08784,0.0244,-0.06832,-0.07808,-0.13176,-0.122
-0.09272,0.0976,-0.10248,-0.05612,-0.00976,-0.04148,0.08784,0.02928,-0.06832,-0.07808,-0.13176,-0.122
-0.08784,0.08784,-0.08784,-0.04392,0,-0.04392,0.08784,0.03416,-0.06344,-0.08296,-0.13176,-0.122
-0.08784,0.09028,-0.09272,-0.0488,-0.00488,-0.04148,0.08784,0.03904,-0.06344,-0.08296,-0.13176,-0.122
-0.0732,0.08296,-0.09272,-0.05612,-0.01952,-0.02684,0.08784,0.05368,-0.06832,-0.0732,-0.12688,-0.11712
-0.0732,0.08052,-0.08784,-0.05124,-0.01464,-0.02928,0.09272,0.05856,-0.06344,-0.06832,-0.12688,-0.11712
-0.06344,0.07076,-0.07808,-0.04636,-0.01464,-0.0244,0.08296,0.06832,-0.06344,-0.0732,-0.12688,-0.11712
-0.05856,0.06588,-0.0732,-0.04392,-0.01464,-0.02196,0.08296,0.0732,-0.05856,-0.0732,-0.122,-0.11712
-0.06832,0.07564,-0.08296,-0.0488,-0.01464,-0.02684,0.08296,0.08784,-0.0488,-0.06832,-0.122,-0.11224
-0.05368,0.06588,-0.07808,-0.05124,-0.0244,-0.01464,0.07808,0.09272,-0.0488,-0.06344,-0.11712,-0.11224
-0.05856,0.07076,-0.08296,-0.05368,-0.0244,-0.01708,0.08296,0.10736,-0.03904,-0.05856,-0.0976,-0.0976
-0.06344,0.06832,-0.0732,-0.04148,-0.00976,-0.02684,0.08296,0.11712,-0.03416,-0.05368,-0.0976,-0.09272
-0.0488,0.061,-0.0732,-0.0488,-0.0244,-0.0122,0.08296,0.12688,-0.02928,-0.0488,-0.10736,-0.09272
-0.04392,0.05124,-0.05856,-0.0366,-0.01464,-0.01464,0.07808,0.13664,-0.01464,-0.04392,-0.0976,-0.08296
-0.02928,0.0366,-0.04392,-0.02928,-0.01464,-0.00732,0.08784,0.15128,-0.00976,-0.03904,-0.0976,-0.08784
-0.0244,0.02928,-0.03416,-0.02196,-0.00976,-0.00732,0.08296,0.16104,0,-0.02928,-0.08784,-0.07808
-0.0244,0.02928,-0.03416,-0.02196,-0.00976,-0.00732,0.08296,0.1708,0,-0.01952,-0.08784,-0.07808
-0.01464,0.02196,-0.02928,-0.02196,-0.01464,0,0.07808,0.17568,0,-0.00976,-0.07808,-0.06344
-0.00488,0.01952,-0.03416,-0.03172,-0.02928,0.0122,0.06344,0.18544,0.01464,-0.00976,-0.0732,-0.06344
0.00488,0.00976,-0.0244,-0.02684,-0.02928,0.01708,0.06344,0.19032,0.01464,-0.00488,-0.06344,-0.0488
0.01464,0.00244,-0.01952,-0.02684,-0.03416,0.0244,0.06344,0.1952,0.02928,0.00976,-0.05368,-0.03416
0.01952,-0.00488,-0.00976,-0.01952,-0.02928,0.0244,0.05368,0.20496,0.03416,0.01464,-0.0488,-0.02928
0.0244,-0.01464,0.00488,-0.00732,-0.01952,0.02196,0.03904,0.21472,0.0244,0.00488,-0.05368,-0.03416
0.03416,-0.02196,0.00976,-0.00732,-0.0244,0.02928,0.03904,0.21472,0.0244,0.00976,-0.04392,-0.0244
0.04392,-0.03172,0.01952,-0.00244,-0.0244,0.03416,0.02928,0.20496,0.0244,0.01464,-0.03416,-0.01464
0.0488,-0.0366,0.0244,0,-0.0244,0.0366,0.0244,0.20008,0.0244,0.01464,-0.03416,-0.00976
0.05368,-0.04636,0.03904,0.0122,-0.01464,0.03416,0.0244,0.1952,0.01952,0.01464,-0.0244,0
0.05368,-0.04636,0.03904,0.0122,-0.01464,0.03416,0.01464,0.19032,0.01464,0.01952,-0.01952,0.00488
0.05856,-0.05856,0.05856,0.02928,0,0.02928,0.00976,0.1952,0.00976,0.00976,-0.01952,0
0.05856,-0.061,0.06344,0.03416,0.00488,0.02684,0.00976,0.18544,0.00976,0.00976,-0.01952,0.00976
0.05856,-0.06588,0.0732,0.04392,0.01464,0.02196,0.00488,0.18056,0.00976,0.01952,-0.01464,0.01464
0.06344,-0.0732,0.08296,0.05124,0.01952,0.02196,-0.00488,0.1708,0.00976,0.01952,-0.01464,0.01464
0.0732,-0.07564,0.07808,0.04148,0.00488,0.03416,-0.00976,0.16104,0.00976,0.01952,-0.00976,0.01952
0.0732,-0.07808,0.08296,0.04636,0.00976,0.03172,-0.00976,0.15616,0.00976,0.01952,-0.00976,0.0244
0.06344,-0.0732,0.08296,0.05124,0.01952,0.02196,-0.00976,0.1464,0.01952,0.0244,-0.00488,0.03416
0.06344,-0.07808,0.09272,0.061,0.02928,0.01708,-0.00976,0.1464,0.01952,0.0244,0,0.03904
0.0732,-0.08296,0.09272,0.05612,0.01952,0.02684,-0.00976,0.1464,0.0244,0.03904,0,0.02928
0.0732,-0.0854,0.0976,0.061,0.0244,0.0244,-0.00488,0.13664,0.03416,0.04392,0.00488,0.03416
0.05368,-0.07076,0.08784,0.061,0.03416,0.00976,0.00488,0.14152,0.05368,0.05368,0.01464,0.03416
0.05368,-0.06832,0.08296,0.05612,0.02928,0.0122,0.00976,0.12688,0.05368,0.05856,0.01464,0.03416
0.03904,-0.05856,0.07808,0.05856,0.03904,0,0.01464,0.11224,0.05368,0.05368,0.01464,0.02928
0.02928,-0.05368,0.07808,0.06344,0.0488,-0.00976,0.01464,0.10736,0.05856,0.05368,0.01464,0.0244
0.0244,-0.04636,0.06832,0.05612,0.04392,-0.00976,0.01952,0.0976,0.05368,0.05368,0.01464,0.03416
0.01952,-0.04148,0.06344,0.05368,0.04392,-0.0122,0.01952,0.08784,0.05368,0.05368,0.00976,0.0244
0.01952,-0.0366,0.05368,0.04392,0.03416,-0.00732,0.0244,0.0732,0.03416,0.05368,0,0.01952
0.00976,-0.02684,0.04392,0.03904,0.03416,-0.0122,0.02928,0.06344,0.0244,0.03904,-0.00488,0.01464
-0.00488,-0.01952,0.04392,0.04636,0.0488,-0.02684,0.02928,0.0488,0.01464,0.03416,-0.00488,0.00488
-0.01464,-0.00976,0.03416,0.04148,0.0488,-0.03172,0.02928,0.04392,0,0.0244,-0.00976,0
-0.01464,-0.01464,0.04392,0.05124,0.05856,-0.0366,0.01464,0.02928,-0.00488,0.00976,-0.0244,-0.00976
-0.01464,-0.00732,0.02928,0.0366,0.04392,-0.02928,0.01464,0.0244,-0.01464,0,-0.02928,-0.01464
-0.01952,0,0.01952,0.02928,0.03904,-0.02928,0.01464,0.01952,-0.03416,0,-0.04392,-0.01952
-0.0244,0.00488,0.01464,0.02684,0.03904,-0.03172,0.01464,0.01952,-0.03416,0,-0.04392,-0.01952
-0.0244,0.00488,0.01464,0.02684,0.03904,-0.03172,0.0244,0.01464,-0.03904,0.00488,-0.03416,-0.01952
-0.0244,0.00488,0.01464,0.02684,0.03904,-0.03172,0.0244,0.01464,-0.02928,0,-0.03904,-0.01952
-0.0244,0.00732,0.00976,0.02196,0.03416,-0.02928,0.01464,0.00976,-0.02928,-0.00976,-0.05368,-0.03416
-0.02928,0.00976,0.00976,0.0244,0.03904,-0.03416,0.01464,0.00976,-0.03416,-0.00976,-0.05368,-0.03416
-0.0244,0.00488,0.01464,0.02684,0.03904,-0.03172,0.01464,0.00976,-0.03416,-0.00976,-0.04392,-0.03416
-0.02928,0.00976,0.00976,0.0244,0.03904,-0.03416,0.01464,0.00976,-0.03904,-0.01464,-0.04392,-0.03416
-0.03416,0.0122,0.00976,0.02684,0.04392,-0.03904,0.01464,0.00976,-0.02928,-0.00488,-0.03416,-0.0244
-0.02928,0.00976,0.00976,0.0244,0.03904,-0.03416,0.01464,0.00976,-0.0244,0,-0.03416,-0.0244
-0.02928,0.00976,0.00976,0.0244,0.03904,-0.03416,0.01952,0.01952,-0.02928,-0.00976,-0.03416,-0.03416
-0.02928,0.00976,0.00976,0.0244,0.03904,-0.03416,0.01952,0.01952,-0.0244,-0.00976,-0.04392,-0.03416
-0.02928,0.01464,0,0.01464,0.02928,-0.02928,0.02928,0.0244,-0.0244,0,-0.04392,-0.03416
-0.02928,0.01464,0,0.01464,0.02928,-0.02928,0.02928,0.0244,-0.0244,0,-0.03416,-0.02928
-0.02928,0.01464,0,0.01464,0.02928,-0.02928,0.01952,0.01952,-0.0244,-0.00488,-0.03904,-0.03416
-0.03416,0.01708,0,0.01708,0.03416,-0.03416,0.01952,0.01952,-0.0244,-0.00488,-0.03904,-0.03416
-0.0244,0.00732,0.00976,0.02196,0.03416,-0.02928,0.0244,0.01952,-0.0244,-0.00976,-0.0488,-0.03416
-0.0244,0.00732,0.00976,0.02196,0.03416,-0.02928,0.0244,0.01464,-0.0244,-0.00976,-0.0488,-0.03416
-0.0244,0.0122,0,0.0122,0.0244,-0.0244,0.0244,0.02928,-0.0244,0,-0.04392,-0.0244
-0.0244,0.0122,0,0.0122,0.0244,-0.0244,0.0244,0.02928,-0.0244,-0.00488,-0.04392,-0.02928
-0.02928,0.01952,-0.00976,0.00488,0.01952,-0.0244,0.0244,0.01952,-0.0244,-0.00488,-0.04392,-0.03416
-0.02928,0.01952,-0.00976,0.00488,0.01952,-0.0244,0.0244,0.01464,-0.02928,-0.00488,-0.04392,-0.03416
-0.01952,0.00976,0,0.00976,0.01952,-0.01952,0.03416,0.00488,-0.03416,-0.00976,-0.0488,-0.02928
-0.0244,0.01464,-0.00488,0.00732,0.01952,-0.02196,0.03416,0.00488,-0.03904,-0.00976,-0.0488,-0.02928
-0.03416,0.0244,-0.01464,0.00244,0.01952,-0.02684,0.03416,0.00976,-0.04392,-0.00976,-0.03904,-0.02928
-0.03416,0.02684,-0.01952,-0.00244,0.01464,-0.0244,0.03416,0.01464,-0.04392,-0.01464,-0.04392,-0.03416
-0.03416,0.02196,-0.00976,0.00732,0.0244,-0.02928,0.0244,0.00976,-0.05368,-0.0244,-0.05368,-0.04392
-0.03416,0.0244,-0.01464,0.00244,0.01952,-0.02684,0.0244,0.00488,-0.05856,-0.0244,-0.05368,-0.04392
-0.0244,0.01952,-0.01464,-0.00244,0.00976,-0.01708,0.0244,0.00488,-0.05368,-0.01952,-0.05856,-0.03904
-0.01952,0.01708,-0.01464,-0.00488,0.00488,-0.0122,0.0244,0,-0.05856,-0.0244,-0.05856,-0.03904
-0.02928,0.01952,-0.00976,0.00488,0.01952,-0.0244,0.0244,-0.00976,-0.06344,-0.03416,-0.06832,-0.0488
-0.02928,0.01952,-0.00976,0.00488,0.01952,-0.0244,0.0244,-0.00976,-0.06344,-0.03416,-0.06832,-0.0488
-0.01952,0.01464,-0.00976,0,0.00976,-0.01464,0.01952,-0.00488,-0.05856,-0.03416,-0.0732,-0.05368
-0.02928,0.02196,-0.01464,0,0.01464,-0.02196,0.01952,-0.00976,-0.05856,-0.03904,-0.0732,-0.05368
-0.02928,0.02684,-0.0244,-0.00976,0.00488,-0.01708,0.01952,-0.00976,-0.06832,-0.04392,-0.06832,-0.05368
-0.02928,0.0244,-0.01952,-0.00488,0.00976,-0.01952,0.01952,-0.00976,-0.07808,-0.04392,-0.0732,-0.05856
-0.03904,0.03416,-0.02928,-0.00976,0.00976,-0.0244,0.01464,-0.01952,-0.07808,-0.03904,-0.06344,-0.0488
-0.03416,0.03172,-0.02928,-0.0122,0.00488,-0.01952,0.01464,-0.01952,-0.08296,-0.03904,-0.06344,-0.05368
-0.03904,0.02928,-0.01952,0,0.01952,-0.02928,0.01464,-0.0244,-0.0732,-0.03904,-0.0732,-0.05368
-0.03904,0.02928,-0.01952,0,0.01952,-0.02928,0.01464,-0.0244,-0.06832,-0.04392,-0.07808,-0.05368
-0.03904,0.0366,-0.03416,-0.01464,0.00488,-0.02196,0.0244,-0.02928,-0.07808,-0.04392,-0.07808,-0.06344
-0.03904,0.03416,-0.02928,-0.00976,0.00976,-0.0244,0.02928,-0.02928,-0.08296,-0.04392,-0.07808,-0.06344
-0.03904,0.03904,-0.03904,-0.01952,0,-0.01952,0.0244,-0.0244,-0.08296,-0.0488,-0.08784,-0.06344
-0.03904,0.03904,-0.03904,-0.01952,0,-0.01952,0.0244,-0.0244,-0.08784,-0.0488,-0.08784,-0.06344
-0.03904,0.0366,-0.03416,-0.01464,0.00488,-0.02196,0.01464,-0.0244,-0.07808,-0.0488,-0.08296,-0.06832
-0.04392,0.03904,-0.03416,-0.0122,0.00976,-0.02684,0.01464,-0.02928,-0.08784,-0.0488,-0.08296,-0.0732
-0.03904,0.03172,-0.0244,-0.00488,0.01464,-0.02684,0.01464,-0.03904,-0.08784,-0.05368,-0.08296,-0.0732
-0.03904,0.03172,-0.0244,-0.00488,0.01464,-0.02684,0.01464,-0.03904,-0.08784,-0.05368,-0.08784,-0.06832
-0.03904,0.03416,-0.02928,-0.00976,0.00976,-0.0244,0.0244,-0.02928,-0.08784,-0.05368,-0.08784,-0.05856
-0.03904,0.03904,-0.03904,-0.01952,0,-0.01952,0.0244,-0.02928,-0.08784,-0.05368,-0.08784,-0.05856
-0.03904,0.03904,-0.03904,-0.01952,0,-0.01952,0.0244,-0.02928,-0.08784,-0.05368,-0.0732,-0.05856
-0.03904,0.03904,-0.03904,-0.01952,0,-0.01952,0.0244,-0.03416,-0.08784,-0.05368,-0.07808,-0.05856
-0.03416,0.03172,-0.02928,-0.0122,0.00488,-0.01952,0.01464,-0.03416,-0.09272,-0.06344,-0.08784,-0.0732
-0.03904,0.03172,-0.0244,-0.00488,0.01464,-0.02684,0.01464,-0.03416,-0.08784,-0.06344,-0.08784,-0.0732
-0.03904,0.03416,-0.02928,-0.00976,0.00976,-0.0244,0.0244,-0.04392,-0.08784,-0.06344,-0.08784,-0.06344
-0.03904,0.03416,-0.02928,-0.00976,0.00976,-0.0244,0.0244,-0.04392,-0.08784,-0.06344,-0.08784,-0.06344
-0.04392,0.03416,-0.0244,-0.00244,0.01952,-0.03172,0.01464,-0.03416,-0.0976,-0.05856,-0.08784,-0.06344
-0.04392,0.0366,-0.02928,-0.00732,0.01464,-0.02928,0.01464,-0.03416,-0.10248,-0.05856,-0.08784,-0.06344
-0.0488,0.04392,-0.03904,-0.01464,0.00976,-0.02928,0.0244,-0.03416,-0.09272,-0.05856,-0.08784,-0.05856
-0.04392,0.04148,-0.03904,-0.01708,0.00488,-0.0244,0.0244,-0.03416,-0.08784,-0.05856,-0.08784,-0.06344
-0.04392,0.04148,-0.03904,-0.01708,0.00488,-0.0244,0.01464,-0.0488,-0.10248,-0.05856,-0.09272,-0.06832
-0.04392,0.04148,-0.03904,-0.01708,0.00488,-0.0244,0.01464,-0.0488,-0.10248,-0.05856,-0.08784,-0.0732
-0.03416,0.0366,-0.03904,-0.02196,-0.00488,-0.01464,0.01464,-0.03904,-0.09272,-0.06832,-0.09272,-0.07808
-0.03416,0.03416,-0.03416,-0.01708,0,-0.01708,0.01464,-0.03904,-0.09272,-0.06832,-0.09272,-0.07808
-0.04392,0.04392,-0.04392,-0.02196,0,-0.02196,0.01464,-0.0488,-0.09272,-0.06832,-0.10248,-0.07808
-0.04392,0.04392,-0.04392,-0.02196,0,-0.02196,0.01952,-0.0488,-0.0976,-0.06832,-0.0976,-0.0732
-0.04392,0.0366,-0.02928,-0.00732,0.01464,-0.02928,0.00976,-0.0488,-0.0976,-0.05368,-0.07808,-0.05368
-0.0488,0.04392,-0.03904,-0.01464,0.00976,-0.02928,0.01952,-0.03904,-0.0976,-0.05856,-0.08784,-0.05856
-0.0488,0.04392,-0.03904,-0.01464,0.00976,-0.02928,0.01952,-0.03904,-0.0976,-0.05856,-0.08784,-0.06832
-0.0488,0.04392,-0.03904,-0.01464,0.00976,-0.02928,0.01952,-0.03904,-0.0976,-0.05856,-0.08784,-0.06832
-0.03904,0.04392,-0.0488,-0.02928,-0.00976,-0.01464,0.00976,-0.03904,-0.0976,-0.05856,-0.0976,-0.0732
-0.03904,0.04392,-0.0488,-0.02928,-0.00976,-0.01464,0.00976,-0.03416,-0.0976,-0.05856,-0.0976,-0.0732
-0.03904,0.03416,-0.02928,-0.00976,0.00976,-0.0244,0.01464,-0.03416,-0.0976,-0.05856,-0.0976,-0.0732
-0.02928,0.01952,-0.00976,0.00488,0.01952,-0.0244,0.01464,-0.0244,-0.08296,-0.0488,-0.08784,-0.06832
-0.02928,0.01708,-0.00488,0.00976,0.0244,-0.02684,0.03416,-0.0244,-0.0732,-0.03904,-0.06832,-0.05368
-0.02928,0.00976,0.00976,0.0244,0.03904,-0.03416,0.03416,-0.01952,-0.06344,-0.02928,-0.06832,-0.04392
-0.02928,0,0.02928,0.04392,0.05856,-0.04392,0.03904,-0.01952,-0.05856,-0.0244,-0.05856,-0.03416
-0.02928,-0.00976,0.0488,0.06344,0.07808,-0.05368,0.0488,-0.01952,-0.0488,-0.01952,-0.05368,-0.0244
-0.03416,-0.00732,0.0488,0.06588,0.08296,-0.05856,0.04392,-0.01464,-0.03904,-0.00976,-0.04392,-0.03416
-0.01952,-0.0244,0.06832,0.07808,0.08784,-0.05368,0.03416,-0.00976,-0.02928,0,-0.02928,-0.01952
-0.00976,-0.02928,0.06832,0.0732,0.07808,-0.04392,0.01952,-0.0244,-0.02928,0,-0.02928,-0.01464
-0.00976,-0.02928,0.06832,0.0732,0.07808,-0.04392,-0.02928,-0.05856,-0.05368,-0.01464,-0.03904,-0.01952
0.00488,-0.04636,0.08784,0.0854,0.08296,-0.03904,-0.05368,-0.05856,-0.05368,-0.00976,-0.03904,-0.01464
0.00976,-0.05368,0.0976,0.09272,0.08784,-0.03904,-0.05368,-0.05368,-0.05856,-0.00488,-0.03904,-0.00976
0.0244,-0.06344,0.10248,0.09028,0.07808,-0.02684,-0.04392,-0.0488,-0.05368,-0.01464,-0.0244,0
0.03416,-0.07076,0.10736,0.09028,0.0732,-0.01952,-0.03904,-0.04392,-0.05368,-0.01464,-0.01952,0
0.03416,-0.06588,0.0976,0.08052,0.06344,-0.01464,-0.05368,-0.04392,-0.06344,-0.01464,-0.03904,0
0.03904,-0.05856,0.07808,0.05856,0.03904,0,-0.05856,-0.05368,-0.08296,-0.02928,-0.0488,-0.00488
0.02928,-0.04392,0.05856,0.04392,0.02928,0,-0.05856,-0.06344,-0.08784,-0.03416,-0.0488,-0.01464
0.0244,-0.03904,0.05368,0.04148,0.02928,-0.00244,-0.05856,-0.06344,-0.10248,-0.03904,-0.05368,-0.01952
0,-0.02684,0.05368,0.05368,0.05368,-0.02684,-0.04392,-0.06344,-0.0976,-0.0488,-0.06344,-0.02928
-0.01464,-0.00244,0.01952,0.02684,0.03416,-0.0244,-0.02928,-0.06832,-0.10736,-0.05856,-0.07808,-0.04392
-0.03416,0.02196,-0.00976,0.00732,0.0244,-0.02928,-0.00976,-0.05856,-0.11224,-0.06832,-0.08784,-0.05368
-0.04392,0.03904,-0.03416,-0.0122,0.00976,-0.02684,0,-0.05368,-0.10736,-0.06832,-0.0976,-0.06344
-0.0488,0.04392,-0.03904,-0.01464,0.00976,-0.02928,-0.00976,-0.06832,-0.11712,-0.06832,-0.10248,-0.0732
-0.0488,0.0488,-0.0488,-0.0244,0,-0.0244,-0.00488,-0.07808,-0.122,-0.07808,-0.10736,-0.08296
-0.06344,0.061,-0.05856,-0.02684,0.00488,-0.03416,0.00976,-0.06344,-0.122,-0.08296,-0.11224,-0.07808
-0.06344,0.06344,-0.06344,-0.03172,0,-0.03172,0.01464,-0.06344,-0.122,-0.07808,-0.11224,-0.07808
-0.05368,0.06588,-0.07808,-0.05124,-0.0244,-0.01464,0.01464,-0.06344,-0.122,-0.08784,-0.12688,-0.08784
-0.05368,0.06832,-0.08296,-0.05612,-0.02928,-0.0122,0.01464,-0.05856,-0.122,-0.09272,-0.12688,-0.08784
-0.05856,0.07076,-0.08296,-0.05368,-0.0244,-0.01708,0.00488,-0.05856,-0.122,-0.09272,-0.11712,-0.08784
-0.05368,0.07076,-0.08784,-0.061,-0.03416,-0.00976,0.00976,-0.05856,-0.122,-0.09272,-0.11712,-0.08784
-0.06344,0.07076,-0.07808,-0.04636,-0.01464,-0.0244,0.00976,-0.05856,-0.13176,-0.08296,-0.11712,-0.08784
-0.06344,0.06832,-0.0732,-0.04148,-0.00976,-0.02684,0.00976,-0.05856,-0.13176,-0.08296,-0.11712,-0.08784
-0.05856,0.07076,-0.08296,-0.05368,-0.0244,-0.01708,0.0244,-0.05368,-0.122,-0.08296,-0.11712,-0.08784
-0.05856,0.07564,-0.09272,-0.06344,-0.03416,-0.0122,0.0244,-0.05368,-0.122,-0.08296,-0.11712,-0.09272
-0.05856,0.07076,-0.08296,-0.05368,-0.0244,-0.01708,0.01464,-0.05368,-0.11224,-0.09272,-0.11712,-0.08784
-0.05368,0.06832,-0.08296,-0.05612,-0.02928,-0.0122,0.01464,-0.05368,-0.10736,-0.08784,-0.11712,-0.08784
-0.06344,0.07564,-0.08784,-0.05612,-0.0244,-0.01952,0.0244,-0.0488,-0.11712,-0.07808,-0.11712,-0.0976
-0.06344,0.07808,-0.09272,-0.061,-0.02928,-0.01708,0.02928,-0.03904,-0.11224,-0.07808,-0.11224,-0.0976
-0.05856,0.09028,-0.122,-0.09272,-0.06344,0.00244,0.05368,-0.01464,-0.10248,-0.0976,-0.13664,-0.10736
-0.0488,0.11468,-0.18056,-0.15616,-0.13176,0.04148,0.0976,0.0732,-0.07808,-0.10736,-0.16592,-0.14152
-0.06344,0.12444,-0.18544,-0.15372,-0.122,0.02928,0.16104,0.15616,-0.01952,-0.06344,-0.1464,-0.15128
0,0.06588,-0.13176,-0.13176,-0.13176,0.06588,0.15616,0.26352,0.07808,-0.00488,-0.0976,-0.0976
0.13664,-0.07564,0.01464,-0.05368,-0.122,0.12932,0.10248,0.42456,0.25376,0.18056,0.07808,0.05856
0.28792,-0.2806,0.27328,0.12932,-0.01464,0.15128,-0.03904,0.47336,0.45872,0.44408,0.35136,0.32208
0.47336,-0.48556,0.49776,0.26108,0.0244,0.22448,-0.23424,0.25864,0.45384,0.5856,0.5612,0.56608
0.60024,-0.64416,0.68808,0.38796,0.08784,0.2562,-0.42944,-0.09272,0.27816,0.61,0.69296,0.7564
0.6832,-0.81496,0.94672,0.60512,0.26352,0.20984,-0.73688,-0.46848,0.10736,0.65392,0.84424,0.97112
0.73688,-0.97356,1.21024,0.8418,0.47336,0.13176,-1.09312,-0.72712,-0.0488,0.72712,1.0248,1.18584
0.72224,-1.00772,1.2932,0.93208,0.57096,0.07564,-1.22976,-0.85888,-0.17568,0.77592,1.13704,1.33712
0.65392,-0.90524,1.15656,0.8296,0.50264,0.07564,-1.26392,-0.89792,-0.32208,0.6832,1.08336,1.28832
0.50264,-0.66856,0.83448,0.58316,0.33184,0.0854,-1.12728,-0.88816,-0.48312,0.39528,0.73688,0.96624
0.25864,-0.38064,0.50264,0.37332,0.244,0.00732,-0.83936,-0.81008,-0.51728,0.08296,0.33672,0.51728
0.06344,-0.13664,0.20984,0.17812,0.1464,-0.04148,-0.58072,-0.76616,-0.61488,-0.23424,-0.0732,0.08784
0,0.00244,-0.00488,-0.00488,-0.00488,0.00244,-0.34648,-0.56608,-0.55144,-0.33184,-0.22448,-0.07808
-0.0244,0.0488,-0.0732,-0.061,-0.0488,0.0122,-0.1708,-0.37088,-0.40016,-0.27328,-0.21472,-0.122
-0.05368,0.06344,-0.0732,-0.04636,-0.01952,-0.01708,-0.11224,-0.24888,-0.28304,-0.19032,-0.16592,-0.0976
-0.03904,0.05368,-0.06832,-0.0488,-0.02928,-0.00488,-0.0488,-0.12688,-0.18544,-0.12688,-0.13176,-0.06832
-0.05368,0.0732,-0.09272,-0.06588,-0.03904,-0.00732,0,-0.06344,-0.13664,-0.0976,-0.11224,-0.06832
-0.0488,0.06588,-0.08296,-0.05856,-0.03416,-0.00732,0.03904,-0.03904,-0.09272,-0.09272,-0.11712,-0.08296
-0.06344,0.07808,-0.09272,-0.061,-0.02928,-0.01708,0.03904,-0.0244,-0.07808,-0.08784,-0.11712,-0.07808
-0.06344,0.09272,-0.122,-0.09028,-0.05856,-0.00244,0.0488,-0.01952,-0.07808,-0.08784,-0.122,-0.0976
-0.06344,0.09516,-0.12688,-0.09516,-0.06344,0,0.05856,-0.00976,-0.07808,-0.0976,-0.13176,-0.10736
-0.07808,0.10004,-0.122,-0.08296,-0.04392,-0.01708,0.06832,-0.00976,-0.07808,-0.0976,-0.13664,-0.10736
-0.08296,0.10492,-0.12688,-0.0854,-0.04392,-0.01952,0.06832,0,-0.06344,-0.09272,-0.13176,-0.10736
-0.0732,0.09516,-0.11712,-0.08052,-0.04392,-0.01464,0.0732,0,-0.06344,-0.09272,-0.13176,-0.10736
-0.0732,0.0976,-0.122,-0.0854,-0.0488,-0.0122,0.07808,0.00976,-0.05856,-0.09272,-0.13176,-0.10736
-0.0732,0.0976,-0.122,-0.0854,-0.0488,-0.0122,0.07808,0.00976,-0.06832,-0.0976,-0.13176,-0.11224
-0.07808,0.10004,-0.122,-0.08296,-0.04392,-0.01708,0.08296,0.00976,-0.06832,-0.0976,-0.13176,-0.11224
-0.07808,0.10248,-0.12688,-0.08784,-0.0488,-0.01464,0.08296,0.01464,-0.06344,-0.0976,-0.13664,-0.11224
-0.07808,0.10248,-0.12688,-0.08784,-0.0488,-0.01464,0.08296,0.01464,-0.06344,-0.0976,-0.13176,-0.11224
-0.0732,0.10004,-0.12688,-0.09028,-0.05368,-0.00976,0.08296,0.01952,-0.05368,-0.08784,-0.13176,-0.10248
-0.0732,0.10004,-0.12688,-0.09028,-0.05368,-0.00976,0.08784,0.01952,-0.05368,-0.08784,-0.13176,-0.10248
-0.07808,0.10248,-0.12688,-0.08784,-0.0488,-0.01464,0.08784,0.0244,-0.05368,-0.0976,-0.14152,-0.10248
-0.07808,0.10248,-0.12688,-0.08784,-0.0488,-0.01464,0.08784,0.0244,-0.05368,-0.0976,-0.14152,-0.10248
-0.07808,0.10736,-0.13664,-0.0976,-0.05856,-0.00976,0.08784,0.0244,-0.05856,-0.0976,-0.13664,-0.10248
-0.07808,0.10736,-0.13664,-0.0976,-0.05856,-0.00976,0.09272,0.02928,-0.05856,-0.0976,-0.13176,-0.10248
-0.0732,0.0976,-0.122,-0.0854,-0.0488,-0.0122,0.08296,0.02928,-0.0488,-0.09272,-0.14152,-0.10736
-0.0732,0.0976,-0.122,-0.0854,-0.0488,-0.0122,0.08296,0.02928,-0.04392,-0.09272,-0.14152,-0.10736
-0.0732,0.09516,-0.11712,-0.08052,-0.04392,-0.01464,0.08296,0.03416,-0.04392,-0.08296,-0.13176,-0.11224
-0.0732,0.09516,-0.11712,-0.08052,-0.04392,-0.01464,0.08296,0.03416,-0.04392,-0.08296,-0.13176,-0.11224
-0.08296,0.10492,-0.12688,-0.0854,-0.04392,-0.01952,0.09272,0.0244,-0.04392,-0.08784,-0.13176,-0.10248
-0.08296,0.1098,-0.13664,-0.09516,-0.05368,-0.01464,0.09272,0.02928,-0.04392,-0.09272,-0.13176,-0.10248
-0.08296,0.10248,-0.122,-0.08052,-0.03904,-0.02196,0.09272,0.02928,-0.05368,-0.09272,-0.14152,-0.10736
-0.08296,0.10492,-0.12688,-0.0854,-0.04392,-0.01952,0.09272,0.03416,-0.0488,-0.08784,-0.14152,-0.10248
-0.07808,0.10004,-0.122,-0.08296,-0.04392,-0.01708,0.08784,0.03904,-0.03904,-0.08784,-0.14152,-0.11224
-0.08296,0.10248,-0.122,-0.08052,-0.03904,-0.02196,0.08784,0.04392,-0.03904,-0.08296,-0.14152,-0.11224
-0.06832,0.08784,-0.10736,-0.0732,-0.03904,-0.01464,0.08784,0.05368,-0.0244,-0.08296,-0.14152,-0.11224
-0.06832,0.09028,-0.11224,-0.07808,-0.04392,-0.0122,0.08784,0.06344,-0.0244,-0.08296,-0.13664,-0.11224
-0.06344,0.09272,-0.122,-0.09028,-0.05856,-0.00244,0.09272,0.06832,-0.02928,-0.07808,-0.13664,-0.10736
-0.06344,0.09028,-0.11712,-0.0854,-0.05368,-0.00488,0.09272,0.06832,-0.03416,-0.0732,-0.13664,-0.10736
-0.05856,0.08784,-0.11712,-0.08784,-0.05856,0,0.08296,0.0732,-0.03416,-0.0732,-0.13664,-0.10736
-0.05856,0.0854,-0.11224,-0.08296,-0.05368,-0.00244,0.08296,0.08296,-0.0244,-0.0732,-0.13176,-0.10736
-0.05856,0.08052,-0.10248,-0.0732,-0.04392,-0.00732,0.07808,0.09272,-0.00976,-0.06832,-0.11712,-0.10248
-0.04392,0.06832,-0.09272,-0.07076,-0.0488,0.00244,0.08296,0.10248,0,-0.05856,-0.11712,-0.0976
-0.04392,0.07076,-0.0976,-0.07564,-0.05368,0.00488,0.09272,0.11224,0,-0.05368,-0.11712,-0.0976
-0.03416,0.06344,-0.09272,-0.07564,-0.05856,0.0122,0.09272,0.122,0.00976,-0.05368,-0.11712,-0.09272
-0.02928,0.06344,-0.0976,-0.08296,-0.06832,0.01952,0.07808,0.13176,0.01952,-0.04392,-0.10736,-0.08296
-0.01952,0.05612,-0.09272,-0.08296,-0.0732,0.02684,0.07808,0.1464,0.0244,-0.03904,-0.10736,-0.07808
-0.01952,0.0488,-0.07808,-0.06832,-0.05856,0.01952,0.07808,0.1464,0.03416,-0.01952,-0.08784,-0.05856
-0.00488,0.0366,-0.06832,-0.06588,-0.06344,0.02928,0.0732,0.16104,0.03904,-0.01464,-0.08296,-0.05856
0.00976,0.01708,-0.04392,-0.0488,-0.05368,0.03172,0.05856,0.16104,0.03904,-0.01464,-0.08296,-0.0488
0.01952,0.00976,-0.03904,-0.0488,-0.05856,0.03904,0.05368,0.17568,0.0488,-0.00976,-0.0732,-0.04392
0.01952,0.0122,-0.04392,-0.05368,-0.06344,0.04148,0.05368,0.18056,0.04392,-0.00976,-0.08296,-0.04392
0.02928,0.00244,-0.03416,-0.0488,-0.06344,0.04636,0.04392,0.18544,0.0488,-0.00488,-0.0732,-0.03416
0.0244,0.00488,-0.03416,-0.04636,-0.05856,0.04148,0.0488,0.1952,0.05856,0,-0.06832,-0.02928
0.02928,-0.00244,-0.0244,-0.03904,-0.05368,0.04148,0.04392,0.20496,0.06344,0.00488,-0.06832,-0.0244
0.0488,-0.01952,-0.00976,-0.03416,-0.05856,0.05368,0.0488,0.1952,0.05368,0.00976,-0.05368,-0.01464
0.05368,-0.0244,-0.00488,-0.03172,-0.05856,0.05612,0.03904,0.1952,0.05368,0.01464,-0.03904,0
0.05368,-0.02684,0,-0.02684,-0.05368,0.05368,0.02928,0.1952,0.06344,0.01464,-0.03416,0.00976
0.06344,-0.03904,0.01464,-0.01708,-0.0488,0.05612,0.0244,0.19032,0.06344,0.01464,-0.03416,0.00976
0.06344,-0.04148,0.01952,-0.0122,-0.04392,0.05368,0.01464,0.18544,0.05856,0.01952,-0.04392,0.01464
0.06344,-0.04148,0.01952,-0.0122,-0.04392,0.05368,0.00976,0.17568,0.05368,0.01952,-0.03904,0.01952
0.06832,-0.05124,0.03416,0,-0.03416,0.05124,0,0.1708,0.05856,0.00976,-0.02928,0.0244
0.06832,-0.05124,0.03416,0,-0.03416,0.05124,0,0.16592,0.05856,0.00976,-0.02928,0.02928
0.0732,-0.05612,0.03904,0.00244,-0.03416,0.05368,0,0.15616,0.05856,0.01952,-0.0244,0.04392
0.0732,-0.061,0.0488,0.0122,-0.0244,0.0488,-0.00488,0.1464,0.05856,0.01952,-0.0244,0.04392
0.06344,-0.06344,0.06344,0.03172,0,0.03172,-0.00976,0.1464,0.05856,0.01952,-0.01952,0.03904
0.06344,-0.06344,0.06344,0.03172,0,0.03172,-0.00976,0.14152,0.05856,0.01952,-0.01952,0.04392
0.0732,-0.06832,0.06344,0.02684,-0.00976,0.04148,-0.00976,0.13664,0.06832,0.0244,-0.01464,0.0488
0.0732,-0.0732,0.0732,0.0366,0,0.0366,-0.00976,0.13664,0.0732,0.02928,-0.00976,0.0488
0.0732,-0.0732,0.0732,0.0366,0,0.0366,-0.00976,0.13664,0.09272,0.03904,0.00488,0.0488
0.06832,-0.0732,0.07808,0.04392,0.00976,0.02928,-0.00488,0.122,0.0976,0.04392,0.00488,0.05368
0.06344,-0.06832,0.0732,0.04148,0.00976,0.02684,-0.00488,0.122,0.10248,0.0488,0.01464,0.05368
0.05368,-0.05856,0.06344,0.0366,0.00976,0.02196,0,0.11712,0.10248,0.0488,0.01464,0.05368
0.04392,-0.05612,0.06832,0.04636,0.0244,0.00976,0.00488,0.10736,0.10736,0.05368,0.01464,0.04392
0.03904,-0.05124,0.06344,0.04392,0.0244,0.00732,0.00976,0.10248,0.10736,0.05368,0.01464,0.04392
0.04392,-0.05612,0.06832,0.04636,0.0244,0.00976,0.00976,0.10736,0.10248,0.05368,0.00976,0.04392
0.03904,-0.05124,0.06344,0.04392,0.0244,0.00732,0.01464,0.08784,0.09272,0.05368,0.00976,0.02928
0.01464,-0.02684,0.03904,0.03172,0.0244,-0.00488,0.02928,0.07808,0.0976,0.04392,-0.00488,0.03416
0,-0.0122,0.0244,0.0244,0.0244,-0.0122,0.02928,0.06832,0.08784,0.03416,-0.00976,0.0244
-0.00488,-0.00732,0.01952,0.02196,0.0244,-0.01464,0.02928,0.06344,0.08784,0.04392,-0.01952,0.00976
0.00488,-0.00976,0.01464,0.0122,0.00976,-0.00244,0.0244,0.05856,0.07808,0.03416,-0.0244,0.00976
-0.00488,0.00244,0,0.00244,0.00488,-0.00488,0.03416,0.04392,0.06832,0.03416,-0.01952,0.00488
-0.01952,0.00976,0,0.00976,0.01952,-0.01952,0.03416,0.03904,0.05856,0.02928,-0.0244,0.00488
-0.0244,0.00976,0.00488,0.01708,0.02928,-0.02684,0.0244,0.02928,0.05368,0.01952,-0.0244,-0.00976
-0.0244,0.00976,0.00488,0.01708,0.02928,-0.02684,0.0244,0.01464,0.05368,0.01952,-0.0244,-0.00976
-0.0244,0.01464,-0.00488,0.00732,0.01952,-0.02196,0.03416,0.0244,0.05368,0.01464,-0.03904,-0.00976
-0.0244,0.01464,-0.00488,0.00732,0.01952,-0.02196,0.03416,0.01952,0.05368,0.00976,-0.03904,-0.00976
-0.01952,0.01464,-0.00976,0,0.00976,-0.01464,0.04392,0.01952,0.05368,0.00976,-0.04392,-0.01464
-0.01464,0.00976,-0.00488,0.00244,0.00976,-0.0122,0.04392,0.01952,0.05856,0.00976,-0.04392,-0.01464
-0.01464,0.0122,-0.00976,-0.00244,0.00488,-0.00976,0.03416,0.01952,0.0488,0,-0.05368,-0.0244
-0.01952,0.01464,-0.00976,0,0.00976,-0.01464,0.03416,0.01952,0.0488,-0.00488,-0.05368,-0.0244
-0.03416,0.02196,-0.00976,0.00732,0.0244,-0.02928,0.04392,0.01952,0.0488,0.00976,-0.04392,-0.01464
-0.02928,0.01952,-0.00976,0.00488,0.01952,-0.0244,0.0488,0.0244,0.05856,0.00976,-0.03904,-0.01464
-0.03904,0.02928,-0.01952,0,0.01952,-0.02928,0.0488,0.01952,0.05856,0.00976,-0.03904,-0.01464
-0.03904,0.02928,-0.01952,0,0.01952,-0.02928,0.0488,0.01464,0.06344,0.00976,-0.03904,-0.01464
-0.02928,0.01952,-0.00976,0.00488,0.01952,-0.0244,0.03904,0.0244,0.05368,0.00976,-0.03904,-0.0244
-0.02928,0.01952,-0.00976,0.00488,0.01952,-0.0244,0.03904,0.0244,0.05368,0.01464,-0.03904,-0.01952
-0.02928,0.01952,-0.00976,0.00488,0.01952,-0.0244,0.03904,0.02928,0.05368,0.01464,-0.03904,-0.01464
-0.03416,0.02196,-0.00976,0.00732,0.0244,-0.02928,0.03904,0.02928,0.05368,0.00976,-0.03904,-0.01464
-0.0244,0.01708,-0.00976,0.00244,0.01464,-0.01952,0.04392,0.02928,0.06344,0.00976,-0.03904,-0.01464
-0.0244,0.01708,-0.00976,0.00244,0.01464,-0.01952,0.04392,0.0244,0.06344,0.00976,-0.04392,-0.01464
-0.0244,0.02196,-0.01952,-0.00732,0.00488,-0.01464,0.04392,0.01952,0.05368,0.00488,-0.05368,-0.02928
-0.0244,0.02196,-0.01952,-0.00732,0.00488,-0.01464,0.04392,0.01952,0.05368,0.00488,-0.05368,-0.0244
-0.02928,0.0244,-0.01952,-0.00488,0.00976,-0.01952,0.04392,0.01464,0.05856,0.00488,-0.04392,-0.0244
-0.02928,0.0244,-0.01952,-0.00488,0.00976,-0.01952,0.04392,0.01464,0.05368,0,-0.0488,-0.0244
-0.03416,0.02928,-0.0244,-0.00732,0.00976,-0.02196,0.04392,0.0244,0.0488,0,-0.0488,-0.02928
-0.03416,0.02928,-0.0244,-0.00732,0.00976,-0.02196,0.04392,0.0244,0.04392,0,-0.0488,-0.02928
-0.03416,0.03172,-0.02928,-0.0122,0.00488,-0.01952,0.04392,0.00976,0.04392,-0.01464,-0.05368,-0.03416
-0.03416,0.03172,-0.02928,-0.0122,0.00488,-0.01952,0.04392,0.00976,0.04392,-0.01464,-0.05368,-0.03416
-0.03416,0.02928,-0.0244,-0.00732,0.00976,-0.02196,0.04392,0.01464,0.03904,-0.01464,-0.05368,-0.0244
-0.03416,0.02928,-0.0244,-0.00732,0.00976,-0.02196,0.04392,0.01464,0.03904,-0.01952,-0.05856,-0.02928
-0.02928,0.02684,-0.0244,-0.00976,0.00488,-0.01708,0.04392,0.01464,0.03416,-0.01952,-0.06832,-0.03904
-0.02928,0.02928,-0.02928,-0.01464,0,-0.01464,0.04392,0.00976,0.02928,-0.0244,-0.06832,-0.03904
-0.03904,0.03416,-0.02928,-0.00976,0.00976,-0.0244,0.04392,0.00976,0.0244,-0.0244,-0.06832,-0.03904
-0.03904,0.03416,-0.02928,-0.00976,0.00976,-0.0244,0.03904,0.00488,0.0244,-0.0244,-0.06832,-0.03904
-0.03904,0.03904,-0.03904,-0.01952,0,-0.01952,0.03904,0.00488,0.01952,-0.02928,-0.0732,-0.04392
-0.03904,0.04148,-0.04392,-0.0244,-0.00488,-0.01708,0.03904,0,0.01952,-0.02928,-0.0732,-0.04392
-0.03904,0.04392,-0.0488,-0.02928,-0.00976,-0.01464,0.0488,0,0.01952,-0.03416,-0.06832,-0.03416
-0.03904,0.0488,-0.05856,-0.03904,-0.01952,-0.00976,0.04392,0,0.01952,-0.03904,-0.0732,-0.03904
-0.03904,0.04392,-0.0488,-0.02928,-0.00976,-0.01464,0.04392,0,0.01952,-0.02928,-0.0732,-0.03904
-0.03416,0.04148,-0.0488,-0.03172,-0.01464,-0.00976,0.04392,-0.00488,0.01464,-0.02928,-0.0732,-0.04392
-0.03904,0.04392,-0.0488,-0.02928,-0.00976,-0.01464,0.03416,-0.00488,0.01952,-0.03904,-0.08296,-0.05368
-0.03904,0.04392,-0.0488,-0.02928,-0.00976,-0.01464,0.03416,-0.00976,0.01952,-0.04392,-0.08784,-0.05368
-0.03904,0.04636,-0.05368,-0.03416,-0.01464,-0.0122,0.0488,-0.00976,0.01952,-0.04392,-0.07808,-0.05368
-0.03904,0.04392,-0.0488,-0.02928,-0.00976,-0.01464,0.04392,-0.01464,0.01464,-0.04392,-0.07808,-0.05368
-0.03904,0.04392,-0.0488,-0.02928,-0.00976,-0.01464,0.04392,-0.01464,0.00488,-0.0488,-0.07808,-0.05368
-0.03904,0.04636,-0.05368,-0.03416,-0.01464,-0.0122,0.04392,-0.01464,0,-0.0488,-0.07808,-0.05856
-0.03904,0.04636,-0.05368,-0.03416,-0.01464,-0.0122,0.04392,-0.01464,0.00488,-0.0488,-0.08296,-0.05856
-0.04392,0.0488,-0.05368,-0.03172,-0.00976,-0.01708,0.04392,-0.01952,0,-0.0488,-0.08296,-0.06344
-0.0488,0.05124,-0.05368,-0.02928,-0.00488,-0.02196,0.04392,-0.01952,0,-0.05368,-0.08784,-0.05368
-0.0488,0.05124,-0.05368,-0.02928,-0.00488,-0.02196,0.04392,-0.01952,0,-0.05368,-0.08784,-0.0488
-0.03904,0.04636,-0.05368,-0.03416,-0.01464,-0.0122,0.04392,-0.00976,0,-0.04392,-0.08784,-0.05856
-0.03904,0.04636,-0.05368,-0.03416,-0.01464,-0.0122,0.04392,-0.00976,0,-0.04392,-0.08296,-0.05856
-0.03904,0.04392,-0.0488,-0.02928,-0.00976,-0.01464,0.04392,-0.00976,0.00976,-0.04392,-0.08784,-0.0488
-0.04392,0.04636,-0.0488,-0.02684,-0.00488,-0.01952,0.04392,-0.01464,0.00488,-0.04392,-0.08784,-0.0488
-0.04392,0.0488,-0.05368,-0.03172,-0.00976,-0.01708,0.04392,-0.01464,0.01464,-0.04392,-0.08784,-0.05368
-0.0488,0.05124,-0.05368,-0.02928,-0.00488,-0.02196,0.04392,-0.01464,0.01952,-0.04392,-0.08784,-0.05368
-0.0488,0.05368,-0.05856,-0.03416,-0.00976,-0.01952,0.05368,-0.01464,0.00976,-0.04392,-0.0976,-0.06344
-0.0488,0.061,-0.0732,-0.0488,-0.0244,-0.0122,0.05368,-0.01464,0,-0.04392,-0.0976,-0.06344
-0.05368,0.05856,-0.06344,-0.0366,-0.00976,-0.02196,0.05368,-0.01464,0.00488,-0.0488,-0.08784,-0.05368
-0.05856,0.06344,-0.06832,-0.03904,-0.00976,-0.0244,0.05368,-0.01464,0.00488,-0.0488,-0.08784,-0.0488
-0.04392,0.05124,-0.05856,-0.0366,-0.01464,-0.01464,0.04392,-0.0244,0,-0.0488,-0.08784,-0.06344
-0.04392,0.05124,-0.05856,-0.0366,-0.01464,-0.01464,0.04392,-0.02928,0,-0.0488,-0.09272,-0.06344
-0.04392,0.04636,-0.0488,-0.02684,-0.00488,-0.01952,0.04392,-0.02928,0.00488,-0.0488,-0.08784,-0.0488
-0.04392,0.05124,-0.05856,-0.0366,-0.01464,-0.01464,0.04392,-0.02928,0.01464,-0.0488,-0.09272,-0.05856
-0.05368,0.05368,-0.05368,-0.02684,0,-0.02684,0.05368,-0.02928,0.01464,-0.0488,-0.09272,-0.05856
-0.0488,0.0488,-0.0488,-0.0244,0,-0.0244,0.03904,-0.02928,0.00976,-0.05856,-0.0976,-0.06832
-0.0488,0.05368,-0.05856,-0.03416,-0.00976,-0.01952,0.0488,-0.02928,0.00976,-0.05856,-0.0976,-0.05856
-0.0488,0.05856,-0.06832,-0.04392,-0.01952,-0.01464,0.0488,-0.02928,0.00976,-0.05856,-0.0976,-0.05856
-0.0488,0.05368,-0.05856,-0.03416,-0.00976,-0.01952,0.0488,-0.02928,0.00976,-0.0488,-0.08784,-0.06344
-0.0488,0.05368,-0.05856,-0.03416,-0.00976,-0.01952,0.0488,-0.0244,0.00976,-0.0488,-0.08784,-0.06344
-0.0488,0.0488,-0.0488,-0.0244,0,-0.0244,0.05368,-0.0244,0.01952,-0.03904,-0.07808,-0.05368
-0.03904,0.03904,-0.03904,-0.01952,0,-0.01952,0.05368,-0.01464,0.03416,-0.02928,-0.06832,-0.0488
-0.02928,0.02684,-0.0244,-0.00976,0.00488,-0.01708,0.06344,-0.01464,0.04392,-0.02928,-0.06832,-0.04392
-0.02928,0.01952,-0.00976,0.00488,0.01952,-0.0244,0.06344,-0.00976,0.05368,-0.01952,-0.06832,-0.03416
-0.03904,0.0244,-0.00976,0.00976,0.02928,-0.03416,0.07808,-0.01952,0.05856,-0.01464,-0.05856,-0.03416
-0.03904,0.01464,0.00976,0.02928,0.0488,-0.04392,0.08784,-0.01952,0.06832,-0.00976,-0.05368,-0.0244
-0.0244,-0.00244,0.02928,0.04148,0.05368,-0.03904,0.08296,-0.00488,0.08784,0.00976,-0.03416,-0.0244
-0.00976,-0.01952,0.0488,0.05368,0.05856,-0.03416,0.0732,0,0.0976,0.01952,-0.01952,-0.00976
-0.01952,-0.0244,0.06832,0.07808,0.08784,-0.05368,0.03904,-0.0244,0.08784,0.00976,-0.02928,-0.00488
-0.01952,-0.0244,0.06832,0.07808,0.08784,-0.05368,-0.01952,-0.06832,0.06344,-0.00488,-0.03904,-0.00976
-0.00488,-0.03172,0.06832,0.07076,0.0732,-0.03904,-0.03416,-0.06832,0.05368,-0.01952,-0.03904,-0.01464
0,-0.03416,0.06832,0.06832,0.06832,-0.03416,-0.0244,-0.06344,0.0488,-0.01464,-0.03904,-0.00976
0.01464,-0.03904,0.06344,0.05612,0.0488,-0.01708,-0.01464,-0.0488,0.05368,-0.00488,-0.03416,0
