i,aVR,ii,aVF,iii,aVL,V1,V2,V3,V4,V5,V6
0.0976,-0.06832,0.03904,-0.00976,-0.05856,0.07808,0.07808,0.23424,0.16592,0.13176,0.11224,0.0732
0.07808,-0.05856,0.03904,0,-0.03904,0.05856,0.0488,0.18056,0.122,0.11224,0.08784,0.05368
0.06344,-0.04148,0.01952,-0.0122,-0.04392,0.05368,0.04392,0.14152,0.09272,0.08296,0.06344,0.03416
0.0244,-0.01952,0.01464,0.00244,-0.00976,0.01708,0.0244,0.09272,0.04392,0.04392,0.03904,0.00976
0.00488,-0.00244,0,-0.00244,-0.00488,0.00488,0.01464,0.0488,0.00976,0.00976,0.0244,-0.00976
0,0.00488,-0.00976,-0.00976,-0.00976,0.00488,0.01952,0.03416,0.00488,0.00976,0.01464,-0.01464
-0.00976,0.00488,0,0.00488,0.00976,-0.00976,0.00976,0.01464,-0.00976,-0.00976,-0.00488,-0.01952
-0.01952,0.0122,-0.00488,0.00488,0.01464,-0.01708,-0.00488,0,-0.03904,-0.03416,-0.01464,-0.03416
-0.02928,0.01708,-0.00488,0.00976,0.0244,-0.02684,-0.00976,-0.0244,-0.06344,-0.03904,-0.02928,-0.0488
-0.03416,0.03172,-0.02928,-0.0122,0.00488,-0.01952,-0.00976,-0.01464,-0.05368,-0.03904,-0.04392,-0.03904
-0.03416,0.03416,-0.03416,-0.01708,0,-0.01708,-0.01464,-0.01952,-0.06344,-0.03904,-0.0488,-0.0488
-0.04392,0.03416,-0.0244,-0.00244,0.01952,-0.03172,-0.01464,-0.03904,-0.05856,-0.04392,-0.0488,-0.05368
-0.03904,0.02684,-0.01464,0.00488,0.0244,-0.03172,-0.01952,-0.05368,-0.06832,-0.05856,-0.05368,-0.05368
-0.05368,0.04148,-0.02928,-0.00244,0.0244,-0.03904,-0.00488,-0.04392,-0.07808,-0.06832,-0.06344,-0.06344
-0.05368,0.03904,-0.0244,0.00244,0.02928,-0.04148,-0.01464,-0.05368,-0.08296,-0.06832,-0.0732,-0.06832
-0.04392,0.04148,-0.03904,-0.01708,0.00488,-0.0244,-0.00976,-0.06344,-0.08296,-0.06832,-0.06344,-0.05856
-0.0488,0.04148,-0.03416,-0.00976,0.01464,-0.03172,-0.00488,-0.06344,-0.08784,-0.07808,-0.06344,-0.06344
-0.04392,0.03904,-0.03416,-0.0122,0.00976,-0.02684,-0.00976,-0.06344,-0.09272,-0.0732,-0.05368,-0.05856
-0.04392,0.03172,-0.01952,0.00244,0.0244,-0.03416,-0.01464,-0.06832,-0.0976,-0.07808,-0.05856,-0.06344
-0.0488,0.04148,-0.03416,-0.00976,0.01464,-0.03172,-0.0244,-0.06832,-0.08296,-0.06344,-0.05856,-0.05368
-0.05368,0.04636,-0.03904,-0.0122,0.01464,-0.03416,-0.01952,-0.06344,-0.08296,-0.06344,-0.05368,-0.05368
-0.05368,0.05124,-0.0488,-0.02196,0.00488,-0.02928,-0.01952,-0.06344,-0.09272,-0.0732,-0.06344,-0.06344
-0.05368,0.05124,-0.0488,-0.02196,0.00488,-0.02928,-0.01952,-0.06832,-0.09272,-0.0732,-0.06832,-0.06344
-0.0488,0.04392,-0.03904,-0.01464,0.00976,-0.02928,-0.01464,-0.05856,-0.09272,-0.06344,-0.05368,-0.05856
-0.0488,0.04392,-0.03904,-0.01464,0.00976,-0.02928,-0.0244,-0.05368,-0.08784,-0.05856,-0.05368,-0.05856
-0.05368,0.05368,-0.05368,-0.02684,0,-0.02684,-0.00976,-0.0488,-0.0732,-0.0488,-0.04392,-0.0488
-0.05368,0.04392,-0.03416,-0.00732,0.01952,-0.0366,-0.00976,-0.05856,-0.0732,-0.05856,-0.05368,-0.05368
-0.05856,0.04636,-0.03416,-0.00488,0.0244,-0.04148,-0.0244,-0.05856,-0.08296,-0.05368,-0.05856,-0.05368
-0.05368,0.04148,-0.02928,-0.00244,0.0244,-0.03904,-0.01952,-0.05856,-0.07808,-0.0488,-0.06344,-0.05368
-0.04392,0.03416,-0.0244,-0.00244,0.01952,-0.03172,-0.00976,-0.05368,-0.08296,-0.05856,-0.06344,-0.06344
-0.05368,0.04392,-0.03416,-0.00732,0.01952,-0.0366,-0.00976,-0.05856,-0.07808,-0.06344,-0.06344,-0.06344
-0.05368,0.04392,-0.03416,-0.00732,0.01952,-0.0366,-0.00976,-0.0488,-0.06832,-0.05856,-0.0732,-0.05856
-0.0488,0.03904,-0.02928,-0.00488,0.01952,-0.03416,-0.00976,-0.03416,-0.06832,-0.05856,-0.06344,-0.05856
-0.0488,0.04148,-0.03416,-0.00976,0.01464,-0.03172,-0.01464,-0.04392,-0.06832,-0.0488,-0.05368,-0.0488
-0.0488,0.03904,-0.02928,-0.00488,0.01952,-0.03416,-0.01952,-0.04392,-0.06832,-0.04392,-0.05368,-0.0488
-0.03416,0.03172,-0.02928,-0.0122,0.00488,-0.01952,-0.00976,-0.03416,-0.05856,-0.04392,-0.0732,-0.0488
-0.0244,0.02684,-0.02928,-0.01708,-0.00488,-0.00976,-0.00976,-0.02928,-0.05856,-0.04392,-0.06344,-0.04392
-0.03416,0.03172,-0.02928,-0.0122,0.00488,-0.01952,-0.01952,-0.02928,-0.0488,-0.03904,-0.05368,-0.03904
-0.03416,0.02196,-0.00976,0.00732,0.0244,-0.02928,-0.01952,-0.03416,-0.04392,-0.04392,-0.0488,-0.04392
-0.03416,0.02684,-0.01952,-0.00244,0.01464,-0.0244,-0.01952,-0.04392,-0.05368,-0.04392,-0.05368,-0.03904
-0.02928,0.02928,-0.02928,-0.01464,0,-0.01464,-0.01952,-0.05368,-0.06344,-0.04392,-0.05368,-0.03904
-0.03904,0.0366,-0.03416,-0.01464,0.00488,-0.02196,-0.01952,-0.04392,-0.05856,-0.03416,-0.05368,-0.03904
-0.03904,0.0366,-0.03416,-0.01464,0.00488,-0.02196,-0.0244,-0.04392,-0.05856,-0.03416,-0.05368,-0.03416
-0.03416,0.03172,-0.02928,-0.0122,0.00488,-0.01952,-0.0244,-0.04392,-0.05856,-0.04392,-0.06344,-0.0488
-0.03904,0.02928,-0.01952,0,0.01952,-0.02928,-0.0244,-0.04392,-0.06344,-0.0488,-0.0732,-0.05856
-0.04392,0.04148,-0.03904,-0.01708,0.00488,-0.0244,-0.01464,-0.0488,-0.06344,-0.04392,-0.06344,-0.0488
-0.04392,0.04392,-0.04392,-0.02196,0,-0.02196,-0.01952,-0.0488,-0.06832,-0.05368,-0.06344,-0.0488
-0.03904,0.03416,-0.02928,-0.00976,0.00976,-0.0244,-0.0244,-0.05856,-0.07808,-0.06344,-0.0732,-0.05856
-0.03904,0.02928,-0.01952,0,0.01952,-0.02928,-0.02928,-0.06344,-0.07808,-0.06344,-0.0732,-0.06344
-0.03904,0.02928,-0.01952,0,0.01952,-0.02928,-0.01952,-0.05368,-0.06832,-0.05368,-0.06344,-0.05368
-0.03904,0.02928,-0.01952,0,0.01952,-0.02928,-0.01952,-0.0488,-0.0732,-0.06344,-0.06832,-0.05368
-0.02928,0.03172,-0.03416,-0.01952,-0.00488,-0.0122,-0.01952,-0.05368,-0.0732,-0.06344,-0.07808,-0.05368
-0.03416,0.0366,-0.03904,-0.02196,-0.00488,-0.01464,-0.01464,-0.06344,-0.07808,-0.06344,-0.0732,-0.0488
-0.04392,0.04392,-0.04392,-0.02196,0,-0.02196,-0.02928,-0.06832,-0.08296,-0.0732,-0.07808,-0.05856
-0.05856,0.05856,-0.05856,-0.02928,0,-0.02928,-0.02928,-0.06832,-0.07808,-0.0732,-0.07808,-0.05856
-0.0488,0.04636,-0.04392,-0.01952,0.00488,-0.02684,-0.01952,-0.06344,-0.07808,-0.06344,-0.06832,-0.05856
-0.04392,0.03416,-0.0244,-0.00244,0.01952,-0.03172,-0.01952,-0.06344,-0.08296,-0.06832,-0.07808,-0.05856
-0.03904,0.03172,-0.0244,-0.00488,0.01464,-0.02684,-0.03416,-0.0732,-0.08784,-0.06832,-0.06832,-0.05368
-0.03904,0.03172,-0.0244,-0.00488,0.01464,-0.02684,-0.03416,-0.08296,-0.08784,-0.06832,-0.0732,-0.05368
-0.03904,0.04148,-0.04392,-0.0244,-0.00488,-0.01708,-0.0244,-0.06832,-0.08784,-0.0732,-0.07808,-0.06344
-0.03904,0.05124,-0.06344,-0.04392,-0.0244,-0.00732,-0.01952,-0.06832,-0.08784,-0.0732,-0.0732,-0.06344
-0.05856,0.05368,-0.0488,-0.01952,0.00976,-0.03416,-0.01952,-0.07808,-0.10248,-0.08784,-0.08296,-0.06344
-0.05856,0.0488,-0.03904,-0.00976,0.01952,-0.03904,-0.01952,-0.08296,-0.10248,-0.08296,-0.08296,-0.06344
-0.05368,0.04636,-0.03904,-0.0122,0.01464,-0.03416,-0.03416,-0.07808,-0.10248,-0.08784,-0.09272,-0.0732
-0.05368,0.04636,-0.03904,-0.0122,0.01464,-0.03416,-0.03416,-0.07808,-0.10248,-0.08296,-0.09272,-0.0732
-0.04392,0.03904,-0.03416,-0.0122,0.00976,-0.02684,-0.03416,-0.07808,-0.09272,-0.07808,-0.09272,-0.06344
-0.04392,0.0366,-0.02928,-0.00732,0.01464,-0.02928,-0.03904,-0.08784,-0.10248,-0.07808,-0.09272,-0.0732
-0.04392,0.04148,-0.03904,-0.01708,0.00488,-0.0244,-0.03416,-0.07808,-0.0976,-0.08296,-0.08296,-0.06832
-0.0488,0.04392,-0.03904,-0.01464,0.00976,-0.02928,-0.03416,-0.07808,-0.0976,-0.08296,-0.08296,-0.06832
-0.05856,0.05124,-0.04392,-0.01464,0.01464,-0.0366,-0.03416,-0.07808,-0.10248,-0.09272,-0.09272,-0.06832
-0.05368,0.05124,-0.0488,-0.02196,0.00488,-0.02928,-0.03904,-0.08296,-0.11224,-0.0976,-0.0976,-0.07808
-0.04392,0.04392,-0.04392,-0.02196,0,-0.02196,-0.03904,-0.0976,-0.11224,-0.09272,-0.10736,-0.0732
-0.04392,0.04392,-0.04392,-0.02196,0,-0.02196,-0.03904,-0.10736,-0.11224,-0.09272,-0.11224,-0.0732
-0.0488,0.04636,-0.04392,-0.01952,0.00488,-0.02684,-0.03904,-0.0976,-0.10248,-0.08296,-0.10248,-0.0732
-0.0488,0.04148,-0.03416,-0.00976,0.01464,-0.03172,-0.03904,-0.08784,-0.11224,-0.09272,-0.0976,-0.07808
-0.0488,0.04636,-0.04392,-0.01952,0.00488,-0.02684,-0.03904,-0.0976,-0.10736,-0.09272,-0.09272,-0.07808
-0.05368,0.0488,-0.04392,-0.01708,0.00976,-0.03172,-0.04392,-0.10248,-0.10736,-0.09272,-0.09272,-0.0732
-0.05856,0.05124,-0.04392,-0.01464,0.01464,-0.0366,-0.03904,-0.09272,-0.10736,-0.08784,-0.09272,-0.06832
-0.05368,0.04392,-0.03416,-0.00732,0.01952,-0.0366,-0.03904,-0.09272,-0.10736,-0.09272,-0.0976,-0.06832
-0.05368,0.05612,-0.05856,-0.03172,-0.00488,-0.0244,-0.02928,-0.09272,-0.11224,-0.10248,-0.10248,-0.0732
-0.05368,0.05368,-0.05368,-0.02684,0,-0.02684,-0.02928,-0.08784,-0.11224,-0.10248,-0.10248,-0.0732
-0.04392,0.04392,-0.04392,-0.02196,0,-0.02196,-0.03904,-0.0976,-0.122,-0.10248,-0.10736,-0.07808
-0.04392,0.04392,-0.04392,-0.02196,0,-0.02196,-0.04392,-0.10248,-0.122,-0.10248,-0.10736,-0.08296
-0.05368,0.04636,-0.03904,-0.0122,0.01464,-0.03416,-0.02928,-0.0976,-0.10736,-0.0976,-0.09272,-0.06832
-0.0488,0.04636,-0.04392,-0.01952,0.00488,-0.02684,-0.03416,-0.08784,-0.11224,-0.09272,-0.0976,-0.06832
-0.05856,0.05368,-0.0488,-0.01952,0.00976,-0.03416,-0.04392,-0.08296,-0.11712,-0.09272,-0.10736,-0.07808
-0.05856,0.05368,-0.0488,-0.01952,0.00976,-0.03416,-0.04392,-0.07808,-0.122,-0.09272,-0.10736,-0.07808
-0.0488,0.05368,-0.05856,-0.03416,-0.00976,-0.01952,-0.03416,-0.08784,-0.11224,-0.08296,-0.10248,-0.0732
-0.05856,0.06344,-0.06832,-0.03904,-0.00976,-0.0244,-0.02928,-0.08784,-0.10248,-0.08296,-0.09272,-0.06832
-0.0488,0.04636,-0.04392,-0.01952,0.00488,-0.02684,-0.04392,-0.09272,-0.11224,-0.0976,-0.10248,-0.07808
-0.05856,0.05124,-0.04392,-0.01464,0.01464,-0.0366,-0.03904,-0.09272,-0.11224,-0.10736,-0.10736,-0.08784
-0.05368,0.04636,-0.03904,-0.0122,0.01464,-0.03416,-0.03416,-0.09272,-0.11224,-0.0976,-0.10248,-0.08296
-0.05368,0.0488,-0.04392,-0.01708,0.00976,-0.03172,-0.03416,-0.09272,-0.11224,-0.0976,-0.0976,-0.07808
-0.06344,0.05856,-0.05368,-0.02196,0.00976,-0.0366,-0.04392,-0.09272,-0.10736,-0.10248,-0.10736,-0.08784
-0.06344,0.05612,-0.0488,-0.01708,0.01464,-0.03904,-0.03904,-0.09272,-0.11224,-0.10248,-0.10736,-0.08784
-0.05368,0.04636,-0.03904,-0.0122,0.01464,-0.03416,-0.04392,-0.10248,-0.12688,-0.10736,-0.0976,-0.08784
-0.05368,0.04392,-0.03416,-0.00732,0.01952,-0.0366,-0.04392,-0.10248,-0.12688,-0.10248,-0.0976,-0.08784
-0.04392,0.04392,-0.04392,-0.02196,0,-0.02196,-0.03416,-0.0976,-0.11712,-0.0976,-0.08784,-0.07808
-0.05368,0.05856,-0.06344,-0.0366,-0.00976,-0.02196,-0.03416,-0.08296,-0.10248,-0.09272,-0.08784,-0.07808
-0.05368,0.05368,-0.05368,-0.02684,0,-0.02684,-0.03904,-0.10248,-0.11224,-0.10736,-0.10248,-0.08784
-0.05856,0.05368,-0.0488,-0.01952,0.00976,-0.03416,-0.03904,-0.09272,-0.11224,-0.10736,-0.10248,-0.08784
-0.06344,0.05124,-0.03904,-0.00732,0.0244,-0.04392,-0.03904,-0.09272,-0.11712,-0.10736,-0.11224,-0.09272
-0.06832,0.05368,-0.03904,-0.00488,0.02928,-0.0488,-0.03904,-0.0976,-0.11712,-0.10736,-0.10736,-0.08784
-0.06344,0.05368,-0.04392,-0.0122,0.01952,-0.04148,-0.03904,-0.0976,-0.122,-0.11224,-0.10736,-0.08784
-0.05856,0.05124,-0.04392,-0.01464,0.01464,-0.0366,-0.03904,-0.0976,-0.12688,-0.11224,-0.10736,-0.08784
-0.0488,0.0488,-0.0488,-0.0244,0,-0.0244,-0.02928,-0.10248,-0.11712,-0.0976,-0.0976,-0.08296
-0.05368,0.05612,-0.05856,-0.03172,-0.00488,-0.0244,-0.02928,-0.10248,-0.11712,-0.0976,-0.0976,-0.08296
-0.04392,0.04636,-0.0488,-0.02684,-0.00488,-0.01952,-0.03904,-0.0976,-0.122,-0.10736,-0.11224,-0.09272
-0.0488,0.04636,-0.04392,-0.01952,0.00488,-0.02684,-0.03904,-0.0976,-0.11712,-0.10736,-0.11224,-0.08296
-0.05856,0.05856,-0.05856,-0.02928,0,-0.02928,-0.0488,-0.11712,-0.11712,-0.10736,-0.11712,-0.08784
-0.0488,0.0488,-0.0488,-0.0244,0,-0.0244,-0.03904,-0.10736,-0.10736,-0.10736,-0.10736,-0.08784
-0.0488,0.0488,-0.0488,-0.0244,0,-0.0244,-0.03904,-0.0976,-0.10736,-0.10736,-0.10736,-0.08784
-0.05856,0.06344,-0.06832,-0.03904,-0.00976,-0.0244,-0.03904,-0.0976,-0.10736,-0.0976,-0.0976,-0.07808
-0.06832,0.0732,-0.07808,-0.04392,-0.00976,-0.02928,-0.03904,-0.0976,-0.10736,-0.0976,-0.0976,-0.06832
-0.05856,0.05856,-0.05856,-0.02928,0,-0.02928,-0.02928,-0.0976,-0.11712,-0.10248,-0.10248,-0.07808
-0.05856,0.05124,-0.04392,-0.01464,0.01464,-0.0366,-0.02928,-0.0976,-0.11712,-0.10736,-0.10736,-0.08784
-0.05856,0.04392,-0.02928,0,0.02928,-0.04392,-0.03416,-0.08296,-0.10736,-0.10736,-0.10736,-0.08784
-0.05856,0.03904,-0.01952,0.00976,0.03904,-0.0488,-0.0244,-0.06832,-0.10248,-0.09272,-0.10248,-0.08296
-0.0488,0.0366,-0.0244,0,0.0244,-0.0366,-0.00488,-0.06832,-0.08784,-0.09272,-0.10248,-0.08296
-0.03904,0.02928,-0.01952,0,0.01952,-0.02928,0.00976,-0.05368,-0.0732,-0.07808,-0.09272,-0.0732
-0.04392,0.02196,0,0.02196,0.04392,-0.04392,0.00976,-0.0488,-0.0732,-0.07808,-0.0732,-0.06344
-0.03904,0.00976,0.01952,0.03904,0.05856,-0.0488,0.0244,-0.03904,-0.06832,-0.06832,-0.0732,-0.05368
-0.02928,0.00488,0.01952,0.03416,0.0488,-0.03904,0.04392,-0.02928,-0.05368,-0.05856,-0.06832,-0.0488
-0.02928,0.00488,0.01952,0.03416,0.0488,-0.03904,0.0488,-0.01952,-0.05368,-0.05856,-0.06344,-0.05368
-0.03904,0.00732,0.0244,0.04392,0.06344,-0.05124,0.06344,-0.01952,-0.04392,-0.05368,-0.06344,-0.0488
-0.03416,-0.00244,0.03904,0.05612,0.0732,-0.05368,0.0488,-0.0244,-0.05368,-0.05368,-0.06344,-0.05368
-0.01952,0,0.01952,0.02928,0.03904,-0.02928,0.04392,-0.02928,-0.0488,-0.04392,-0.06344,-0.05368
0.00488,-0.0122,0.01952,0.01708,0.01464,-0.00488,0.03904,-0.02928,-0.0488,-0.04392,-0.06344,-0.05368
-0.00488,-0.00488,0.01464,0.01708,0.01952,-0.0122,0.0244,-0.0244,-0.04392,-0.0488,-0.05856,-0.05856
0.00488,-0.01464,0.0244,0.02196,0.01952,-0.00732,0,-0.02928,-0.03904,-0.04392,-0.0488,-0.04392
0.00976,-0.01952,0.02928,0.0244,0.01952,-0.00488,-0.02928,-0.05368,-0.05856,-0.04392,-0.0488,-0.03904
0.01464,-0.0244,0.03416,0.02684,0.01952,-0.00244,-0.06344,-0.0732,-0.07808,-0.05856,-0.05368,-0.03416
0.0244,-0.0244,0.0244,0.0122,0,0.0122,-0.08784,-0.10736,-0.10248,-0.07808,-0.06344,-0.0488
0.0244,-0.0122,0,-0.0122,-0.0244,0.0244,-0.08296,-0.12688,-0.11712,-0.09272,-0.07808,-0.04392
0.00976,0.00244,-0.01464,-0.01952,-0.0244,0.01708,-0.09272,-0.13664,-0.122,-0.10736,-0.09272,-0.06344
0.00488,0.00488,-0.01464,-0.01708,-0.01952,0.0122,-0.09272,-0.14152,-0.12688,-0.11224,-0.0976,-0.06832
-0.00488,0.02928,-0.05368,-0.05124,-0.0488,0.02196,-0.10736,-0.13664,-0.13176,-0.122,-0.10248,-0.06832
-0.01464,0.03416,-0.05368,-0.04636,-0.03904,0.0122,-0.11224,-0.122,-0.13664,-0.122,-0.10736,-0.07808
-0.00976,0.03172,-0.05368,-0.0488,-0.04392,0.01708,-0.09272,-0.14152,-0.15128,-0.13176,-0.10736,-0.0732
-0.00976,0.03172,-0.05368,-0.0488,-0.04392,0.01708,-0.07808,-0.14152,-0.15128,-0.122,-0.10736,-0.06832
-0.00488,0.02196,-0.03904,-0.0366,-0.03416,0.01464,-0.07808,-0.122,-0.12688,-0.11712,-0.10248,-0.07808
-0.0244,0.03172,-0.03904,-0.02684,-0.01464,-0.00488,-0.06344,-0.11712,-0.122,-0.11224,-0.10248,-0.08296
-0.04392,0.05124,-0.05856,-0.0366,-0.01464,-0.01464,-0.0488,-0.10248,-0.122,-0.10248,-0.10736,-0.07808
-0.05856,0.06344,-0.06832,-0.03904,-0.00976,-0.0244,-0.0488,-0.10248,-0.13176,-0.122,-0.122,-0.09272
-0.0732,0.08052,-0.08784,-0.05124,-0.01464,-0.02928,-0.05856,-0.14152,-0.16104,-0.13664,-0.13176,-0.0976
-0.07808,0.08296,-0.08784,-0.0488,-0.00976,-0.03416,-0.05856,-0.15616,-0.1708,-0.1464,-0.14152,-0.10736
-0.08296,0.09028,-0.0976,-0.05612,-0.01464,-0.03416,-0.06832,-0.15128,-0.18056,-0.16104,-0.15128,-0.11224
-0.07808,0.0854,-0.09272,-0.05368,-0.01464,-0.03172,-0.06832,-0.14152,-0.16592,-0.15616,-0.1464,-0.122
-0.08784,0.09272,-0.0976,-0.05368,-0.00976,-0.03904,-0.05856,-0.1464,-0.16592,-0.15128,-0.15128,-0.13176
-0.09272,0.10248,-0.11224,-0.06588,-0.01952,-0.0366,-0.05856,-0.1464,-0.16592,-0.15128,-0.15128,-0.13176
-0.08784,0.09516,-0.10248,-0.05856,-0.01464,-0.0366,-0.04392,-0.13176,-0.15128,-0.13664,-0.13176,-0.11712
-0.08296,0.09028,-0.0976,-0.05612,-0.01464,-0.03416,-0.04392,-0.122,-0.1464,-0.13664,-0.13176,-0.10736
-0.08296,0.09272,-0.10248,-0.061,-0.01952,-0.03172,-0.03904,-0.10248,-0.14152,-0.13664,-0.13176,-0.11224
-0.08296,0.0854,-0.08784,-0.04636,-0.00488,-0.03904,-0.03416,-0.122,-0.16104,-0.16104,-0.16104,-0.13176
-0.09272,0.13908,-0.18544,-0.13908,-0.09272,0,0.02928,-0.04392,-0.13176,-0.17568,-0.19032,-0.17568
-0.10248,0.14884,-0.1952,-0.14396,-0.09272,-0.00488,0.16592,0.10248,-0.07808,-0.15616,-0.21472,-0.2196
-0.08296,0.10736,-0.13176,-0.09028,-0.0488,-0.01708,0.2684,0.25864,0.06344,-0.07808,-0.16104,-0.18056
-0.00488,0.04636,-0.08784,-0.0854,-0.08296,0.03904,0.37576,0.52704,0.30744,0.13176,-0.0244,-0.08784
0.13664,-0.04636,-0.04392,-0.11224,-0.18056,0.1586,0.4392,0.76128,0.56608,0.3904,0.18056,0.07808
0.40016,-0.25132,0.10248,-0.0976,-0.29768,0.34892,0.30744,0.73688,0.74664,0.65392,0.46848,0.30256
0.65392,-0.4758,0.29768,-0.02928,-0.35624,0.50508,0.1952,0.68808,0.99064,1.00528,0.82472,0.62464
0.91256,-0.77348,0.6344,0.17812,-0.27816,0.59536,-0.02928,0.52704,1.25416,1.4396,1.28832,1.04432
1.01992,-0.9638,0.90768,0.39772,-0.11224,0.56608,-0.33672,0.11712,1.23952,1.68848,1.62992,1.38104
0.96136,-1.04676,1.13216,0.65148,0.1708,0.39528,-0.49776,-0.22448,1.1956,1.83976,1.89344,1.63968
0.67344,-0.93208,1.19072,0.854,0.51728,0.07808,-0.47336,-0.4392,1.14192,1.88856,1.98128,1.72752
0.47824,-0.80276,1.12728,0.88816,0.64904,-0.0854,-0.5368,-0.65392,0.79544,1.49816,1.65432,1.5128
0.20496,-0.5246,0.84424,0.74176,0.63928,-0.21716,-0.53192,-0.89792,0.23424,0.82472,1.0736,1.07848
-0.01952,-0.31964,0.6588,0.66856,0.67832,-0.34892,-0.57584,-1.13216,-0.33672,0.16104,0.48312,0.60024
-0.16592,-0.1342,0.43432,0.51728,0.60024,-0.38308,-0.52216,-1.21512,-0.66368,-0.244,0.11224,0.30744
-0.19032,-0.03904,0.2684,0.36356,0.45872,-0.32452,-0.53192,-1.13216,-0.72224,-0.41968,-0.08296,0.11712
-0.20984,0.02684,0.15616,0.26108,0.366,-0.28792,-0.59048,-0.99552,-0.68808,-0.44408,-0.1708,0.01464
-0.17568,0.01952,0.13664,0.22448,0.31232,-0.244,-0.55632,-0.8052,-0.59536,-0.3904,-0.1708,-0.01952
-0.15128,0.03416,0.08296,0.1586,0.23424,-0.19276,-0.45384,-0.63928,-0.48312,-0.3416,-0.16104,-0.03904
-0.13664,0.03416,0.06832,0.13664,0.20496,-0.1708,-0.34648,-0.48312,-0.33672,-0.23912,-0.13664,-0.04392
-0.122,0.02928,0.06344,0.12444,0.18544,-0.15372,-0.23912,-0.34648,-0.244,-0.18544,-0.122,-0.0732
-0.13176,0.05368,0.0244,0.09028,0.15616,-0.14396,-0.13664,-0.20984,-0.1952,-0.15616,-0.122,-0.07808
-0.12688,0.06832,-0.00976,0.05368,0.11712,-0.122,-0.10248,-0.17568,-0.19032,-0.16592,-0.11712,-0.09272
-0.11224,0.08296,-0.05368,0.00244,0.05856,-0.0854,-0.0732,-0.15128,-0.15128,-0.14152,-0.122,-0.10248
-0.122,0.09516,-0.06832,-0.00732,0.05368,-0.08784,-0.05856,-0.13664,-0.13176,-0.1464,-0.13664,-0.12688
-0.11712,0.09516,-0.0732,-0.01464,0.04392,-0.08052,-0.03416,-0.09272,-0.12688,-0.15128,-0.14152,-0.13176
-0.0976,0.09272,-0.08784,-0.03904,0.00976,-0.05368,-0.01464,-0.05856,-0.12688,-0.1464,-0.13176,-0.13176
-0.0976,0.08784,-0.07808,-0.02928,0.01952,-0.05856,-0.00976,-0.05368,-0.11712,-0.14152,-0.13176,-0.13176
-0.0976,0.09516,-0.09272,-0.04392,0.00488,-0.05124,-0.00488,-0.05368,-0.10248,-0.14152,-0.14152,-0.13176
-0.0976,0.09272,-0.08784,-0.03904,0.00976,-0.05368,0.00488,-0.04392,-0.10248,-0.14152,-0.14152,-0.13176
-0.10736,0.10248,-0.0976,-0.04392,0.00976,-0.05856,0.00488,-0.03904,-0.11224,-0.13664,-0.14152,-0.14152
-0.10248,0.10492,-0.10736,-0.05612,-0.00488,-0.0488,0.00976,-0.03904,-0.10736,-0.13176,-0.14152,-0.13664
-0.09272,0.10004,-0.10736,-0.061,-0.01464,-0.03904,0.01952,-0.0244,-0.08784,-0.13176,-0.13176,-0.13664
-0.09272,0.10248,-0.11224,-0.06588,-0.01952,-0.0366,0.01952,-0.01952,-0.08784,-0.12688,-0.13176,-0.13664
-0.10248,0.11468,-0.12688,-0.07564,-0.0244,-0.03904,0.02928,-0.00976,-0.09272,-0.12688,-0.13664,-0.12688
-0.10248,0.10492,-0.10736,-0.05612,-0.00488,-0.0488,0.02928,-0.00976,-0.09272,-0.122,-0.13664,-0.12688
-0.10248,0.10736,-0.11224,-0.061,-0.00976,-0.04636,0.02928,-0.01464,-0.08296,-0.122,-0.13176,-0.13664
-0.0976,0.10492,-0.11224,-0.06344,-0.01464,-0.04148,0.0244,-0.01464,-0.08296,-0.11712,-0.13176,-0.13664
-0.08784,0.08784,-0.08784,-0.04392,0,-0.04392,0.01952,-0.00976,-0.09272,-0.122,-0.13664,-0.1464
-0.08784,0.09272,-0.0976,-0.05368,-0.00976,-0.03904,0.0244,0,-0.08784,-0.12688,-0.1464,-0.1464
-0.08784,0.08784,-0.08784,-0.04392,0,-0.04392,0.03416,0.00976,-0.08296,-0.11712,-0.1464,-0.13664
-0.08784,0.09028,-0.09272,-0.0488,-0.00488,-0.04148,0.03416,0.01464,-0.06344,-0.11712,-0.13176,-0.13664
-0.0732,0.08784,-0.10248,-0.06588,-0.02928,-0.02196,0.03904,0.01952,-0.06832,-0.11712,-0.13176,-0.13176
-0.0732,0.08784,-0.10248,-0.06588,-0.02928,-0.02196,0.03904,0.02928,-0.06344,-0.11224,-0.13176,-0.13176
-0.06832,0.08052,-0.09272,-0.05856,-0.0244,-0.02196,0.03904,0.01952,-0.05856,-0.10736,-0.12688,-0.13176
-0.0732,0.08296,-0.09272,-0.05612,-0.01952,-0.02684,0.03416,0.03416,-0.0488,-0.10248,-0.122,-0.12688
-0.06832,0.07808,-0.08784,-0.05368,-0.01952,-0.0244,0.0488,0.0488,-0.03416,-0.08784,-0.122,-0.11712
-0.06832,0.08296,-0.0976,-0.06344,-0.02928,-0.01952,0.0488,0.06832,-0.02928,-0.08296,-0.122,-0.11712
-0.06832,0.08784,-0.10736,-0.0732,-0.03904,-0.01464,0.05368,0.08296,-0.01464,-0.07808,-0.11712,-0.11224
-0.05856,0.07564,-0.09272,-0.06344,-0.03416,-0.0122,0.05856,0.0976,0,-0.06832,-0.10736,-0.10248
-0.0488,0.0732,-0.0976,-0.0732,-0.0488,0,0.06832,0.10736,0.00488,-0.06344,-0.10736,-0.10736
-0.0488,0.08052,-0.11224,-0.08784,-0.06344,0.00732,0.07808,0.12688,0.01952,-0.0488,-0.0976,-0.10248
-0.04392,0.0732,-0.10248,-0.08052,-0.05856,0.00732,0.07808,0.14152,0.0244,-0.0488,-0.0976,-0.10248
-0.03904,0.05612,-0.0732,-0.05368,-0.03416,-0.00244,0.06832,0.15128,0.03416,-0.0488,-0.0976,-0.10736
-0.0244,0.05124,-0.07808,-0.06588,-0.05368,0.01464,0.08784,0.1708,0.06832,-0.03416,-0.07808,-0.09272
-0.01464,0.0488,-0.08296,-0.07564,-0.06832,0.02684,0.09272,0.20496,0.08296,-0.00976,-0.06344,-0.09272
0,0.03416,-0.06832,-0.06832,-0.06832,0.03416,0.0976,0.23912,0.11224,0.01464,-0.0488,-0.07808
0.00976,0.01952,-0.0488,-0.05368,-0.05856,0.03416,0.11224,0.2684,0.13664,0.01464,-0.04392,-0.07808
0.01952,0.01464,-0.0488,-0.05856,-0.06832,0.04392,0.13176,0.30256,0.16104,0.03904,-0.02928,-0.06832
0.02928,0.01464,-0.05856,-0.0732,-0.08784,0.05856,0.1464,0.35136,0.19032,0.06832,-0.00976,-0.05368
0.04392,0.00732,-0.05856,-0.08052,-0.10248,0.0732,0.16592,0.39528,0.23424,0.08784,0.00488,-0.05368
0.0732,-0.01952,-0.03416,-0.07076,-0.10736,0.09028,0.18056,0.4392,0.26352,0.11224,0.00488,-0.04392
0.10736,-0.0488,-0.00976,-0.06344,-0.11712,0.11224,0.19032,0.4636,0.2928,0.13176,0.02928,-0.0244
0.12688,-0.06832,0.00976,-0.05368,-0.11712,0.122,0.20008,0.50752,0.32696,0.15616,0.0488,-0.00976
0.13664,-0.06832,0,-0.06832,-0.13664,0.13664,0.20496,0.55144,0.35624,0.18056,0.05856,-0.00488
0.1464,-0.08052,0.01464,-0.05856,-0.13176,0.13908,0.21472,0.5856,0.38552,0.20496,0.0732,0.00488
0.17568,-0.09272,0.00976,-0.07808,-0.16592,0.1708,0.22448,0.60512,0.39528,0.2196,0.09272,0.01952
0.20008,-0.11712,0.03416,-0.06588,-0.16592,0.183,0.23424,0.62952,0.4148,0.23912,0.10248,0.03416
0.20496,-0.11956,0.03416,-0.06832,-0.1708,0.18788,0.25376,0.6588,0.45384,0.25864,0.11712,0.0488
0.21472,-0.12444,0.03416,-0.0732,-0.18056,0.19764,0.25376,0.68808,0.47336,0.2684,0.12688,0.05856
0.2196,-0.12932,0.03904,-0.07076,-0.18056,0.20008,0.2684,0.7076,0.488,0.2928,0.14152,0.08296
0.22936,-0.13908,0.0488,-0.06588,-0.18056,0.20496,0.2684,0.71736,0.49776,0.29768,0.15128,0.08784
0.244,-0.14884,0.05368,-0.06832,-0.19032,0.21716,0.25864,0.70272,0.49288,0.30256,0.15616,0.08784
0.24888,-0.15616,0.06344,-0.061,-0.18544,0.21716,0.25376,0.6832,0.48312,0.2928,0.15616,0.0976
0.24888,-0.1586,0.06832,-0.05612,-0.18056,0.21472,0.244,0.67344,0.48312,0.30256,0.18056,0.11224
0.244,-0.16104,0.07808,-0.04392,-0.16592,0.20496,0.22936,0.62464,0.44896,0.29768,0.18056,0.11224
0.23424,-0.16104,0.08784,-0.02928,-0.1464,0.19032,0.20496,0.57096,0.4148,0.2684,0.16592,0.11712
0.20984,-0.15128,0.09272,-0.0122,-0.11712,0.16348,0.16592,0.50264,0.37088,0.24888,0.15616,0.11224
0.19032,-0.13908,0.08784,-0.00732,-0.10248,0.1464,0.14152,0.42456,0.32208,0.2196,0.1464,0.10248
0.16104,-0.11468,0.06832,-0.0122,-0.09272,0.12688,0.13176,0.366,0.28792,0.19032,0.13664,0.0976
0.1464,-0.10004,0.05368,-0.01952,-0.09272,0.11956,0.10248,0.29768,0.23912,0.1708,0.11224,0.08296
0.122,-0.09028,0.05856,-0.00244,-0.06344,0.09272,0.07808,0.23424,0.19032,0.13176,0.07808,0.06344
0.10248,-0.07808,0.05368,0.00244,-0.0488,0.07564,0.06832,0.19032,0.13664,0.0976,0.05856,0.04392
0.08296,-0.06832,0.05368,0.0122,-0.02928,0.05612,0.05368,0.15128,0.10736,0.06832,0.03416,0.0244
0.0488,-0.04148,0.03416,0.00976,-0.01464,0.03172,0.0488,0.11224,0.07808,0.03904,0.01952,0.01464
0.01464,-0.00976,0.00488,-0.00244,-0.00976,0.0122,0.04392,0.0732,0.03416,0.01464,0.00488,0.00488
0.00488,-0.00244,0,-0.00244,-0.00488,0.00488,0.01952,0.0488,0.00976,-0.00976,-0.01464,-0.00976
-0.00488,0.00488,-0.00488,-0.00244,0,-0.00244,0.01464,0.0244,-0.00488,-0.01952,-0.03416,-0.01952
-0.00488,0.00732,-0.00976,-0.00732,-0.00488,0,0.01464,0.00488,-0.01464,-0.0244,-0.03416,-0.02928
-0.01464,0.01708,-0.01952,-0.0122,-0.00488,-0.00488,0.00976,-0.01464,-0.03904,-0.03904,-0.0488,-0.03904
-0.02928,0.0244,-0.01952,-0.00488,0.00976,-0.01952,0.00976,-0.03416,-0.04392,-0.05368,-0.05856,-0.0488
-0.03416,0.03172,-0.02928,-0.0122,0.00488,-0.01952,0.00976,-0.03904,-0.05368,-0.06344,-0.06344,-0.05368
-0.0244,0.0244,-0.0244,-0.0122,0,-0.0122,-0.00488,-0.0488,-0.06832,-0.06344,-0.05856,-0.05368
-0.03416,0.02928,-0.0244,-0.00732,0.00976,-0.02196,-0.00976,-0.05368,-0.0732,-0.0732,-0.06344,-0.05368
-0.03904,0.03416,-0.02928,-0.00976,0.00976,-0.0244,-0.00976,-0.05368,-0.06832,-0.07808,-0.06344,-0.06344
-0.04392,0.03416,-0.0244,-0.00244,0.01952,-0.03172,-0.00488,-0.06344,-0.06832,-0.07808,-0.06832,-0.06832
-0.04392,0.04148,-0.03904,-0.01708,0.00488,-0.0244,-0.01952,-0.05368,-0.0732,-0.07808,-0.0732,-0.06832
-0.04392,0.03904,-0.03416,-0.0122,0.00976,-0.02684,-0.01952,-0.05368,-0.07808,-0.08784,-0.0732,-0.0732
-0.05368,0.04392,-0.03416,-0.00732,0.01952,-0.0366,-0.00976,-0.05368,-0.0732,-0.0732,-0.0732,-0.0732
-0.05856,0.04392,-0.02928,0,0.02928,-0.04392,-0.00976,-0.05856,-0.07808,-0.0732,-0.07808,-0.06832
-0.0488,0.03904,-0.02928,-0.00488,0.01952,-0.03416,-0.01464,-0.06832,-0.0732,-0.07808,-0.06832,-0.06344
-0.04392,0.02928,-0.01464,0.00732,0.02928,-0.0366,-0.01464,-0.06344,-0.0732,-0.0732,-0.06344,-0.06344
-0.0488,0.03172,-0.01464,0.00976,0.03416,-0.04148,-0.00976,-0.06344,-0.0732,-0.08296,-0.0732,-0.0732
-0.05856,0.04148,-0.0244,0.00488,0.03416,-0.04636,-0.00976,-0.06832,-0.0732,-0.08296,-0.0732,-0.0732
-0.05856,0.0488,-0.03904,-0.00976,0.01952,-0.03904,-0.01464,-0.05856,-0.0732,-0.08296,-0.07808,-0.0732
-0.05856,0.0488,-0.03904,-0.00976,0.01952,-0.03904,-0.01464,-0.05368,-0.06832,-0.07808,-0.0732,-0.06832
-0.05856,0.05124,-0.04392,-0.01464,0.01464,-0.0366,-0.00488,-0.05856,-0.05856,-0.06344,-0.06832,-0.05856
-0.05368,0.04392,-0.03416,-0.00732,0.01952,-0.0366,0,-0.05856,-0.05368,-0.05856,-0.06344,-0.0488
-0.04392,0.0244,-0.00488,0.01708,0.03904,-0.04148,-0.00488,-0.0488,-0.06344,-0.06832,-0.0732,-0.05368
-0.0488,0.03904,-0.02928,-0.00488,0.01952,-0.03416,-0.00488,-0.0488,-0.06344,-0.05856,-0.06344,-0.05368
-0.03416,0.02928,-0.0244,-0.00732,0.00976,-0.02196,0,-0.0488,-0.05856,-0.05856,-0.06344,-0.06344
-0.03904,0.03172,-0.0244,-0.00488,0.01464,-0.02684,0,-0.05856,-0.0488,-0.06344,-0.06344,-0.06344
-0.05368,0.0488,-0.04392,-0.01708,0.00976,-0.03172,-0.00976,-0.05856,-0.05856,-0.06832,-0.06344,-0.05856
-0.05368,0.0488,-0.04392,-0.01708,0.00976,-0.03172,-0.00976,-0.05856,-0.05856,-0.06832,-0.05856,-0.05856
-0.03904,0.0366,-0.03416,-0.01464,0.00488,-0.02196,-0.00976,-0.04392,-0.05368,-0.05856,-0.04392,-0.0488
-0.03904,0.03416,-0.02928,-0.00976,0.00976,-0.0244,-0.00488,-0.04392,-0.04392,-0.05368,-0.04392,-0.0488
-0.03416,0.02684,-0.01952,-0.00244,0.01464,-0.0244,-0.00976,-0.04392,-0.0488,-0.05368,-0.05368,-0.0488
-0.03416,0.02684,-0.01952,-0.00244,0.01464,-0.0244,-0.00976,-0.03904,-0.0488,-0.05368,-0.05368,-0.0488
-0.04392,0.0366,-0.02928,-0.00732,0.01464,-0.02928,-0.00976,-0.04392,-0.05856,-0.06344,-0.05368,-0.05368
-0.04392,0.03416,-0.0244,-0.00244,0.01952,-0.03172,-0.00976,-0.05368,-0.05856,-0.05856,-0.05368,-0.05856
-0.03416,0.01708,0,0.01708,0.03416,-0.03416,0,-0.05856,-0.05368,-0.06344,-0.05856,-0.06344
-0.02928,0.0244,-0.01952,-0.00488,0.00976,-0.01952,0,-0.0488,-0.05368,-0.06344,-0.05368,-0.05856
-0.02928,0.02196,-0.01464,0,0.01464,-0.02196,0,-0.04392,-0.05368,-0.06344,-0.05368,-0.06832
-0.02928,0.02196,-0.01464,0,0.01464,-0.02196,0,-0.04392,-0.0488,-0.06344,-0.05368,-0.06344
-0.04392,0.0366,-0.02928,-0.00732,0.01464,-0.02928,-0.01464,-0.0488,-0.05856,-0.0732,-0.05368,-0.05856
-0.04392,0.0366,-0.02928,-0.00732,0.01464,-0.02928,-0.01464,-0.05856,-0.05856,-0.06832,-0.05368,-0.05856
-0.0488,0.03416,-0.01952,0.00488,0.02928,-0.03904,-0.01464,-0.05368,-0.05368,-0.06344,-0.04392,-0.05856
-0.04392,0.03172,-0.01952,0.00244,0.0244,-0.03416,-0.01464,-0.05856,-0.05368,-0.06344,-0.0488,-0.05856
-0.03904,0.0244,-0.00976,0.00976,0.02928,-0.03416,-0.01952,-0.0488,-0.05856,-0.06344,-0.04392,-0.05856
-0.03904,0.03416,-0.02928,-0.00976,0.00976,-0.0244,-0.01464,-0.0488,-0.05856,-0.06344,-0.04392,-0.05856
-0.03904,0.02928,-0.01952,0,0.01952,-0.02928,-0.00976,-0.05368,-0.05856,-0.0732,-0.05368,-0.05368
-0.03904,0.02928,-0.01952,0,0.01952,-0.02928,-0.00976,-0.05856,-0.05856,-0.0732,-0.05856,-0.05368
-0.0488,0.03904,-0.02928,-0.00488,0.01952,-0.03416,-0.00976,-0.06832,-0.06344,-0.08296,-0.06832,-0.05368
-0.0488,0.04392,-0.03904,-0.01464,0.00976,-0.02928,-0.00488,-0.06344,-0.06344,-0.0732,-0.06344,-0.0488
-0.04392,0.03416,-0.0244,-0.00244,0.01952,-0.03172,-0.01952,-0.07808,-0.07808,-0.08784,-0.06832,-0.05368
-0.0488,0.02684,-0.00488,0.01952,0.04392,-0.04636,-0.01952,-0.07808,-0.08296,-0.09272,-0.06832,-0.0732
-0.03904,0.02684,-0.01464,0.00488,0.0244,-0.03172,-0.01464,-0.0732,-0.06832,-0.08784,-0.05856,-0.0732
-0.04392,0.0366,-0.02928,-0.00732,0.01464,-0.02928,-0.00488,-0.0732,-0.06832,-0.07808,-0.06344,-0.06344
-0.03904,0.03172,-0.0244,-0.00488,0.01464,-0.02684,-0.00488,-0.0732,-0.06832,-0.07808,-0.05856,-0.06344
-0.03904,0.0366,-0.03416,-0.01464,0.00488,-0.02196,-0.00488,-0.0732,-0.06832,-0.07808,-0.05856,-0.06344
-0.03904,0.03172,-0.0244,-0.00488,0.01464,-0.02684,-0.00488,-0.06832,-0.07808,-0.08784,-0.0732,-0.06344
-0.03904,0.0366,-0.03416,-0.01464,0.00488,-0.02196,0,-0.06832,-0.07808,-0.09272,-0.06832,-0.06344
-0.0488,0.03904,-0.02928,-0.00488,0.01952,-0.03416,-0.00488,-0.0732,-0.09272,-0.10248,-0.0732,-0.0732
-0.05856,0.04392,-0.02928,0,0.02928,-0.04392,-0.01464,-0.08784,-0.09272,-0.10736,-0.08296,-0.0732
-0.05368,0.04148,-0.02928,-0.00244,0.0244,-0.03904,-0.00976,-0.09272,-0.08296,-0.0976,-0.0732,-0.0732
-0.03904,0.03416,-0.02928,-0.00976,0.00976,-0.0244,-0.01464,-0.08296,-0.08296,-0.09272,-0.0732,-0.0732
-0.04392,0.03904,-0.03416,-0.0122,0.00976,-0.02684,-0.00488,-0.06832,-0.0732,-0.09272,-0.0732,-0.06344
-0.04392,0.0366,-0.02928,-0.00732,0.01464,-0.02928,-0.00976,-0.07808,-0.08296,-0.10736,-0.0732,-0.0732
-0.05368,0.05124,-0.0488,-0.02196,0.00488,-0.02928,-0.00976,-0.0732,-0.08784,-0.08784,-0.0732,-0.0732
-0.05856,0.05368,-0.0488,-0.01952,0.00976,-0.03416,-0.00488,-0.06832,-0.08784,-0.09272,-0.0732,-0.06832
-0.05856,0.05124,-0.04392,-0.01464,0.01464,-0.0366,-0.00488,-0.0732,-0.0732,-0.09272,-0.08296,-0.06832
-0.05368,0.03904,-0.0244,0.00244,0.02928,-0.04148,-0.00976,-0.08784,-0.08296,-0.0976,-0.08784,-0.06832
-0.04392,0.03904,-0.03416,-0.0122,0.00976,-0.02684,-0.01464,-0.0976,-0.09272,-0.10248,-0.08784,-0.07808
-0.04392,0.03416,-0.0244,-0.00244,0.01952,-0.03172,-0.0244,-0.0976,-0.09272,-0.10736,-0.09272,-0.0732
-0.0488,0.04392,-0.03904,-0.01464,0.00976,-0.02928,-0.01952,-0.0976,-0.09272,-0.10248,-0.08296,-0.0732
-0.0488,0.03416,-0.01952,0.00488,0.02928,-0.03904,-0.01952,-0.0976,-0.0976,-0.10736,-0.08784,-0.07808
-0.03904,0.02928,-0.01952,0,0.01952,-0.02928,-0.02928,-0.0976,-0.11224,-0.11224,-0.08296,-0.07808
-0.03904,0.03416,-0.02928,-0.00976,0.00976,-0.0244,-0.02928,-0.0976,-0.10736,-0.11224,-0.08296,-0.0732
-0.05368,0.03904,-0.0244,0.00244,0.02928,-0.04148,-0.03416,-0.09272,-0.0976,-0.11224,-0.09272,-0.07808
-0.0488,0.0366,-0.0244,0,0.0244,-0.0366,-0.02928,-0.09272,-0.0976,-0.10736,-0.09272,-0.07808
-0.04392,0.03172,-0.01952,0.00244,0.0244,-0.03416,-0.01952,-0.08296,-0.08784,-0.10736,-0.08784,-0.07808
-0.04392,0.04392,-0.04392,-0.02196,0,-0.02196,-0.01952,-0.07808,-0.09272,-0.0976,-0.08296,-0.0732
-0.03416,0.03904,-0.04392,-0.02684,-0.00976,-0.0122,-0.01952,-0.08784,-0.09272,-0.10248,-0.08296,-0.0732
-0.04392,0.0488,-0.05368,-0.03172,-0.00976,-0.01708,-0.0244,-0.08784,-0.09272,-0.10248,-0.08784,-0.08296
-0.05368,0.0488,-0.04392,-0.01708,0.00976,-0.03172,-0.0244,-0.10248,-0.09272,-0.11712,-0.08784,-0.07808
-0.0488,0.0366,-0.0244,0,0.0244,-0.0366,-0.01952,-0.10736,-0.10736,-0.11224,-0.08296,-0.07808
-0.05856,0.04636,-0.03416,-0.00488,0.0244,-0.04148,-0.01464,-0.09272,-0.10248,-0.10248,-0.07808,-0.07808
-0.05856,0.04636,-0.03416,-0.00488,0.0244,-0.04148,-0.01464,-0.09272,-0.0976,-0.10248,-0.07808,-0.07808
-0.05856,0.05856,-0.05856,-0.02928,0,-0.02928,-0.01464,-0.08784,-0.09272,-0.10248,-0.08296,-0.08296
-0.05856,0.04148,-0.0244,0.00488,0.03416,-0.04636,-0.00976,-0.08784,-0.09272,-0.10248,-0.08296,-0.07808
-0.0488,0.04392,-0.03904,-0.01464,0.00976,-0.02928,-0.00976,-0.09272,-0.10248,-0.10736,-0.09272,-0.08784
-0.0488,0.04148,-0.03416,-0.00976,0.01464,-0.03172,-0.01464,-0.09272,-0.09272,-0.10736,-0.08784,-0.08784
-0.0488,0.03904,-0.02928,-0.00488,0.01952,-0.03416,-0.00976,-0.10248,-0.10248,-0.10736,-0.09272,-0.08296
-0.04392,0.03904,-0.03416,-0.0122,0.00976,-0.02684,-0.01464,-0.10248,-0.10248,-0.10736,-0.08784,-0.07808
-0.05368,0.0488,-0.04392,-0.01708,0.00976,-0.03172,-0.01464,-0.0976,-0.10248,-0.11224,-0.0976,-0.07808
-0.05368,0.0488,-0.04392,-0.01708,0.00976,-0.03172,-0.00976,-0.08784,-0.0976,-0.11224,-0.0976,-0.07808
-0.05368,0.04636,-0.03904,-0.0122,0.01464,-0.03416,-0.01464,-0.09272,-0.0976,-0.10736,-0.0976,-0.08784
-0.05368,0.04636,-0.03904,-0.0122,0.01464,-0.03416,-0.01464,-0.09272,-0.0976,-0.10248,-0.0976,-0.08784
-0.0488,0.04148,-0.03416,-0.00976,0.01464,-0.03172,-0.01952,-0.10736,-0.10248,-0.11712,-0.10736,-0.08784
-0.04392,0.03416,-0.0244,-0.00244,0.01952,-0.03172,-0.02928,-0.10248,-0.11224,-0.11224,-0.10736,-0.08784
-0.05368,0.04392,-0.03416,-0.00732,0.01952,-0.0366,-0.01952,-0.10248,-0.122,-0.11224,-0.10248,-0.08784
-0.05368,0.04392,-0.03416,-0.00732,0.01952,-0.0366,-0.01952,-0.10248,-0.122,-0.11712,-0.10248,-0.08784
-0.06832,0.05612,-0.04392,-0.00976,0.0244,-0.04636,-0.00976,-0.10248,-0.11712,-0.11712,-0.10248,-0.08296
-0.06344,0.05368,-0.04392,-0.0122,0.01952,-0.04148,-0.00976,-0.10736,-0.11712,-0.11712,-0.10248,-0.08296
-0.05856,0.061,-0.06344,-0.03416,-0.00488,-0.02684,-0.00976,-0.0976,-0.10248,-0.11712,-0.0976,-0.07808
-0.05368,0.05856,-0.06344,-0.0366,-0.00976,-0.02196,-0.00976,-0.0976,-0.10736,-0.10736,-0.0976,-0.07808
-0.03904,0.04392,-0.0488,-0.02928,-0.00976,-0.01464,-0.01952,-0.10248,-0.10736,-0.11224,-0.0976,-0.07808
-0.04392,0.0366,-0.02928,-0.00732,0.01464,-0.02928,-0.01952,-0.10248,-0.10736,-0.10736,-0.0976,-0.08296
-0.0488,0.0366,-0.0244,0,0.0244,-0.0366,-0.01952,-0.09272,-0.11712,-0.12688,-0.10248,-0.08296
-0.05856,0.04636,-0.03416,-0.00488,0.0244,-0.04148,-0.01952,-0.0976,-0.122,-0.11712,-0.10248,-0.07808
-0.06832,0.05612,-0.04392,-0.00976,0.0244,-0.04636,-0.01464,-0.10248,-0.11224,-0.11712,-0.08784,-0.07808
-0.06832,0.05368,-0.03904,-0.00488,0.02928,-0.0488,-0.02928,-0.09272,-0.11712,-0.10736,-0.0976,-0.08784
-0.06832,0.05368,-0.03904,-0.00488,0.02928,-0.0488,-0.02928,-0.10248,-0.11712,-0.10736,-0.0976,-0.08784
-0.05856,0.04392,-0.02928,0,0.02928,-0.04392,-0.01952,-0.10736,-0.10736,-0.11712,-0.10736,-0.08784
-0.05856,0.04392,-0.02928,0,0.02928,-0.04392,-0.01952,-0.10736,-0.10736,-0.11712,-0.10736,-0.08784
-0.0488,0.04148,-0.03416,-0.00976,0.01464,-0.03172,-0.01952,-0.10248,-0.11712,-0.11224,-0.09272,-0.07808
-0.0488,0.04392,-0.03904,-0.01464,0.00976,-0.02928,-0.01952,-0.09272,-0.11712,-0.11712,-0.0976,-0.07808
-0.05856,0.05124,-0.04392,-0.01464,0.01464,-0.0366,-0.00488,-0.08296,-0.10736,-0.11712,-0.0976,-0.07808
-0.05856,0.05124,-0.04392,-0.01464,0.01464,-0.0366,0.00488,-0.07808,-0.10248,-0.10248,-0.09272,-0.0732
-0.0488,0.03416,-0.01952,0.00488,0.02928,-0.03904,0.00976,-0.0732,-0.0976,-0.10248,-0.09272,-0.06344
-0.03904,0.01708,0.00488,0.0244,0.04392,-0.04148,0.01464,-0.06832,-0.08296,-0.08784,-0.08296,-0.05368
-0.04392,0.01708,0.00976,0.03172,0.05368,-0.0488,0.01952,-0.05856,-0.0732,-0.08784,-0.0732,-0.05368
-0.03904,0.00488,0.02928,0.0488,0.06832,-0.05368,0.03416,-0.0488,-0.06832,-0.07808,-0.0732,-0.04392
-0.03904,0.00244,0.03416,0.05368,0.0732,-0.05612,0.0488,-0.04392,-0.05368,-0.06832,-0.06832,-0.0488
-0.03904,-0.00244,0.04392,0.06344,0.08296,-0.061,0.06344,-0.0244,-0.05368,-0.06832,-0.06344,-0.05368
-0.02928,-0.00244,0.03416,0.0488,0.06344,-0.04636,0.08296,-0.00976,-0.04392,-0.05368,-0.06344,-0.0488
-0.0244,-0.00732,0.03904,0.05124,0.06344,-0.04392,0.06832,-0.01464,-0.05368,-0.05368,-0.06344,-0.05368
-0.01952,0.00244,0.01464,0.0244,0.03416,-0.02684,0.05368,-0.01952,-0.03904,-0.05368,-0.05368,-0.04392
-0.00488,0,0.00488,0.00732,0.00976,-0.00732,0.0488,-0.01952,-0.03904,-0.05368,-0.05368,-0.04392
-0.00488,-0.00732,0.01952,0.02196,0.0244,-0.01464,0.04392,-0.0244,-0.04392,-0.05856,-0.0488,-0.03904
0.01464,-0.03172,0.0488,0.04148,0.03416,-0.00976,0.01952,-0.02928,-0.03904,-0.05368,-0.03904,-0.0244
0.02928,-0.04392,0.05856,0.04392,0.02928,0,-0.00976,-0.05368,-0.0488,-0.06344,-0.0488,-0.01952
0.03416,-0.0488,0.06344,0.04636,0.02928,0.00244,-0.04392,-0.0732,-0.06832,-0.07808,-0.05368,-0.01464
0.0244,-0.03172,0.03904,0.02684,0.01464,0.00488,-0.07808,-0.0976,-0.10248,-0.10248,-0.0732,-0.0488
0.01464,-0.00976,0.00488,-0.00244,-0.00976,0.0122,-0.0732,-0.11712,-0.11712,-0.10736,-0.08784,-0.05368
0,0.0122,-0.0244,-0.0244,-0.0244,0.0122,-0.06344,-0.12688,-0.122,-0.10736,-0.08784,-0.05856
-0.00488,0.01464,-0.0244,-0.02196,-0.01952,0.00732,-0.06344,-0.13176,-0.12688,-0.11224,-0.08296,-0.05368
-0.00488,0.0244,-0.04392,-0.04148,-0.03904,0.01708,-0.06832,-0.13664,-0.13176,-0.13176,-0.08296,-0.05856
-0.01464,0.02928,-0.04392,-0.0366,-0.02928,0.00732,-0.06344,-0.13176,-0.13664,-0.13176,-0.08784,-0.06832
-0.01952,0.02684,-0.03416,-0.0244,-0.01464,-0.00244,-0.0732,-0.15128,-0.14152,-0.14152,-0.10248,-0.08296
-0.01952,0.02684,-0.03416,-0.0244,-0.01464,-0.00244,-0.06832,-0.14152,-0.14152,-0.13176,-0.11224,-0.07808
-0.01464,0.01708,-0.01952,-0.0122,-0.00488,-0.00488,-0.06832,-0.122,-0.13664,-0.12688,-0.09272,-0.06832
-0.03416,0.02684,-0.01952,-0.00244,0.01464,-0.0244,-0.05368,-0.11712,-0.13176,-0.122,-0.09272,-0.0732
-0.0488,0.0488,-0.0488,-0.0244,0,-0.0244,-0.04392,-0.11224,-0.122,-0.11224,-0.0976,-0.06832
-0.05368,0.05612,-0.05856,-0.03172,-0.00488,-0.0244,-0.03416,-0.122,-0.13176,-0.13176,-0.11224,-0.08296
-0.06832,0.07564,-0.08296,-0.0488,-0.01464,-0.02684,-0.0488,-0.14152,-0.16104,-0.15616,-0.13176,-0.10736
-0.08296,0.08784,-0.09272,-0.05124,-0.00976,-0.0366,-0.0488,-0.1464,-0.1708,-0.16592,-0.14152,-0.11712
-0.08784,0.09516,-0.10248,-0.05856,-0.01464,-0.0366,-0.05856,-0.15128,-0.1708,-0.1708,-0.15128,-0.122
-0.0732,0.08052,-0.08784,-0.05124,-0.01464,-0.02928,-0.05856,-0.14152,-0.15616,-0.16592,-0.1464,-0.122
-0.06832,0.06832,-0.06832,-0.03416,0,-0.03416,-0.04392,-0.12688,-0.1464,-0.1708,-0.14152,-0.11224
-0.0732,0.0732,-0.0732,-0.0366,0,-0.0366,-0.03416,-0.12688,-0.1464,-0.1708,-0.14152,-0.11224
-0.08784,0.08052,-0.0732,-0.02928,0.01464,-0.05124,-0.03416,-0.122,-0.14152,-0.15616,-0.13176,-0.10736
-0.08296,0.07564,-0.06832,-0.02684,0.01464,-0.0488,-0.03416,-0.122,-0.13664,-0.15616,-0.13176,-0.10736
-0.08296,0.0976,-0.11224,-0.07076,-0.02928,-0.02684,-0.01952,-0.10248,-0.122,-0.13664,-0.122,-0.09272
-0.08296,0.10492,-0.12688,-0.0854,-0.04392,-0.01952,-0.00488,-0.10248,-0.14152,-0.1708,-0.14152,-0.11224
-0.08296,0.12932,-0.17568,-0.1342,-0.09272,0.00488,0.06832,-0.03416,-0.11224,-0.17568,-0.20008,-0.17568
-0.09272,0.12444,-0.15616,-0.1098,-0.06344,-0.01464,0.16592,0.122,-0.0488,-0.1464,-0.21472,-0.20984
-0.05368,0.10736,-0.16104,-0.1342,-0.10736,0.02684,0.28792,0.32696,0.11224,-0.02928,-0.122,-0.15128
0.01464,0.03172,-0.07808,-0.0854,-0.09272,0.05368,0.42456,0.57584,0.34648,0.1708,0.03416,-0.0488
0.18544,-0.09028,-0.00488,-0.0976,-0.19032,0.18788,0.46848,0.7808,0.60512,0.40992,0.23912,0.0976
0.4392,-0.27572,0.11224,-0.10736,-0.32696,0.38308,0.3172,0.74664,0.77592,0.66368,0.49776,0.3416
0.6832,-0.5246,0.366,0.0244,-0.3172,0.5002,0.18544,0.71736,1.01992,1.03456,0.89304,0.69296
0.92232,-0.793,0.66368,0.20252,-0.25864,0.59048,-0.01952,0.51728,1.23464,1.4396,1.33712,1.09312
1.0492,-0.99796,0.94672,0.42212,-0.10248,0.57584,-0.29768,0.13664,1.25904,1.69824,1.708,1.45912
0.94184,-1.03212,1.1224,0.65148,0.18056,0.38064,-0.41968,-0.17568,1.21512,1.83976,1.92272,1.67872
0.6832,-0.95648,1.22976,0.88816,0.54656,0.06832,-0.44408,-0.40992,1.13216,1.82024,1.94224,1.72752
0.4392,-0.76372,1.08824,0.86864,0.64904,-0.10492,-0.44896,-0.59536,0.7564,1.40056,1.59576,1.48352
0.17568,-0.53436,0.89304,0.8052,0.71736,-0.27084,-0.47336,-0.86864,0.16592,0.7076,0.96624,0.99064
-0.05856,-0.28548,0.62952,0.6588,0.68808,-0.37332,-0.47824,-1.11264,-0.35624,0.10248,0.43432,0.5612
-0.15616,-0.1586,0.47336,0.55144,0.62952,-0.39284,-0.4636,-1.15656,-0.64416,-0.26352,0.08296,0.28792
-0.20008,-0.01464,0.22936,0.3294,0.42944,-0.31476,-0.44408,-1.04432,-0.6832,-0.3904,-0.0732,0.11712
-0.20984,0.01708,0.17568,0.2806,0.38552,-0.29768,-0.53192,-0.96624,-0.67832,-0.44408,-0.15128,0.01464
-0.17568,0.02928,0.11712,0.20496,0.2928,-0.23424,-0.47824,-0.77592,-0.57584,-0.3904,-0.16104,-0.00976
-0.15128,0.03904,0.0732,0.14884,0.22448,-0.18788,-0.42456,-0.62952,-0.4636,-0.36112,-0.1708,-0.0488
-0.13664,0.03904,0.05856,0.12688,0.1952,-0.16592,-0.34648,-0.47336,-0.366,-0.28792,-0.16592,-0.0732
-0.14152,0.04392,0.05368,0.12444,0.1952,-0.16836,-0.18056,-0.34648,-0.25376,-0.18544,-0.11224,-0.06344
-0.122,0.04392,0.03416,0.09516,0.15616,-0.13908,-0.11712,-0.24888,-0.22448,-0.17568,-0.122,-0.07808
-0.12688,0.06344,0,0.06344,0.12688,-0.12688,-0.09272,-0.18544,-0.1708,-0.17568,-0.11712,-0.08296
-0.11224,0.0732,-0.03416,0.02196,0.07808,-0.09516,-0.06344,-0.15128,-0.15128,-0.1708,-0.14152,-0.09272
-0.122,0.09028,-0.05856,0.00244,0.06344,-0.09272,-0.02928,-0.122,-0.13176,-0.15616,-0.13664,-0.10248
-0.11712,0.09028,-0.06344,-0.00488,0.05368,-0.0854,-0.00488,-0.08784,-0.12688,-0.16104,-0.14152,-0.11712
-0.0976,0.0854,-0.0732,-0.0244,0.0244,-0.061,0.00488,-0.05856,-0.12688,-0.15616,-0.14152,-0.11224
-0.0976,0.0854,-0.0732,-0.0244,0.0244,-0.061,0.00976,-0.05368,-0.11712,-0.15128,-0.14152,-0.11224
-0.10736,0.09516,-0.08296,-0.02928,0.0244,-0.06588,0.00488,-0.05368,-0.10248,-0.13176,-0.14152,-0.11224
-0.10736,0.09272,-0.07808,-0.0244,0.02928,-0.06832,0.01464,-0.04392,-0.10248,-0.13176,-0.14152,-0.11224
-0.0976,0.09516,-0.09272,-0.04392,0.00488,-0.05124,0.01464,-0.02928,-0.11224,-0.1464,-0.13176,-0.13176
-0.09272,0.10248,-0.11224,-0.06588,-0.01952,-0.0366,0.01952,-0.02928,-0.10736,-0.14152,-0.13176,-0.12688
-0.10248,0.10248,-0.10248,-0.05124,0,-0.05124,0.01952,-0.02928,-0.0976,-0.13176,-0.14152,-0.12688
-0.10248,0.10004,-0.0976,-0.04636,0.00488,-0.05368,0.01952,-0.03416,-0.0976,-0.12688,-0.14152,-0.12688
-0.09272,0.0976,-0.10248,-0.05612,-0.00976,-0.04148,0.03904,-0.01952,-0.09272,-0.13664,-0.13664,-0.12688
-0.09272,0.09272,-0.09272,-0.04636,0,-0.04636,0.03904,-0.01952,-0.09272,-0.13176,-0.13664,-0.12688
-0.09272,0.09516,-0.0976,-0.05124,-0.00488,-0.04392,0.02928,-0.01464,-0.0732,-0.122,-0.13176,-0.11712
-0.08784,0.0976,-0.10736,-0.06344,-0.01952,-0.03416,0.0244,-0.01464,-0.0732,-0.11712,-0.13176,-0.11712
-0.07808,0.08296,-0.08784,-0.0488,-0.00976,-0.03416,0.01952,-0.01952,-0.07808,-0.12688,-0.13176,-0.12688
-0.07808,0.08784,-0.0976,-0.05856,-0.01952,-0.02928,0.0244,-0.00976,-0.08296,-0.122,-0.13176,-0.12688
-0.07808,0.07808,-0.07808,-0.03904,0,-0.03904,0.0244,0,-0.08784,-0.12688,-0.13176,-0.12688
-0.07808,0.08052,-0.08296,-0.04392,-0.00488,-0.0366,0.0244,0.00488,-0.07808,-0.12688,-0.12688,-0.12688
-0.08296,0.09028,-0.0976,-0.05612,-0.01464,-0.03416,0.03904,0.01952,-0.0732,-0.122,-0.122,-0.11224
-0.08296,0.09516,-0.10736,-0.06588,-0.0244,-0.02928,0.03904,0.02928,-0.05856,-0.10736,-0.122,-0.11224
-0.06832,0.08296,-0.0976,-0.06344,-0.02928,-0.01952,0.0488,0.01952,-0.0488,-0.10736,-0.11712,-0.11224
-0.0732,0.08052,-0.08784,-0.05124,-0.01464,-0.02928,0.04392,0.03416,-0.03904,-0.10248,-0.11224,-0.10736
-0.06344,0.0732,-0.08296,-0.05124,-0.01952,-0.02196,0.05856,0.04392,-0.03416,-0.08784,-0.10736,-0.0976
-0.05368,0.07808,-0.10248,-0.07564,-0.0488,-0.00244,0.05856,0.05368,-0.02928,-0.08296,-0.0976,-0.0976
-0.0488,0.07076,-0.09272,-0.06832,-0.04392,-0.00244,0.05856,0.06344,-0.01952,-0.08784,-0.0976,-0.10248
-0.03904,0.05368,-0.06832,-0.0488,-0.02928,-0.00488,0.05368,0.07808,-0.01464,-0.07808,-0.08784,-0.09272
-0.03416,0.0488,-0.06344,-0.04636,-0.02928,-0.00244,0.05856,0.08784,-0.01464,-0.0732,-0.0976,-0.0976
-0.04392,0.05612,-0.06832,-0.04636,-0.0244,-0.00976,0.06832,0.10736,0,-0.05856,-0.08784,-0.09272
-0.03416,0.05856,-0.08296,-0.06588,-0.0488,0.00732,0.06344,0.11712,0.01464,-0.05368,-0.08784,-0.0976
-0.02928,0.05124,-0.0732,-0.05856,-0.04392,0.00732,0.06344,0.13664,0.0244,-0.04392,-0.08784,-0.09272
-0.01464,0.0488,-0.08296,-0.07564,-0.06832,0.02684,0.08784,0.16592,0.05856,-0.02928,-0.06344,-0.0732
-0.00488,0.04148,-0.07808,-0.07564,-0.0732,0.03416,0.09272,0.19032,0.0732,-0.01464,-0.05856,-0.0732
0.00976,0.03172,-0.0732,-0.07808,-0.08296,0.04636,0.10736,0.22936,0.10248,0.01952,-0.04392,-0.0488
0.01952,0.02196,-0.06344,-0.0732,-0.08296,0.05124,0.122,0.25864,0.12688,0.02928,-0.02928,-0.0488
0.03416,0.00976,-0.05368,-0.07076,-0.08784,0.061,0.122,0.28304,0.16104,0.03904,-0.00976,-0.03904
0.05368,-0.00976,-0.03416,-0.061,-0.08784,0.07076,0.13664,0.33184,0.19032,0.06832,0.00976,-0.0244
0.06832,-0.0122,-0.04392,-0.07808,-0.11224,0.09028,0.15616,0.38064,0.22448,0.08784,0.01952,-0.01464
0.08784,-0.02928,-0.02928,-0.0732,-0.11712,0.10248,0.1708,0.4148,0.25376,0.11224,0.02928,-0.00488
0.10736,-0.0488,-0.00976,-0.06344,-0.11712,0.11224,0.1708,0.43432,0.28304,0.13176,0.03904,-0.00488
0.12688,-0.06832,0.00976,-0.05368,-0.11712,0.122,0.18056,0.47824,0.3172,0.15616,0.05856,0.00976
0.15128,-0.0732,-0.00488,-0.08052,-0.15616,0.15372,0.20008,0.53192,0.35624,0.19032,0.08784,0.0244
0.1708,-0.0854,0,-0.0854,-0.1708,0.1708,0.2196,0.56608,0.38552,0.21472,0.10248,0.03416
0.18056,-0.09516,0.00976,-0.08052,-0.1708,0.17568,0.22448,0.60512,0.40504,0.22936,0.122,0.0488
0.1952,-0.11468,0.03416,-0.06344,-0.16104,0.17812,0.23424,0.62952,0.42456,0.24888,0.13176,0.06344
0.21472,-0.12444,0.03416,-0.0732,-0.18056,0.19764,0.23424,0.64904,0.45384,0.27816,0.15616,0.07808
0.22448,-0.12932,0.03416,-0.07808,-0.19032,0.2074,0.23424,0.6588,0.47336,0.28792,0.16592,0.08784
0.22936,-0.13908,0.0488,-0.06588,-0.18056,0.20496,0.23912,0.67832,0.47824,0.30256,0.1708,0.10248
0.23912,-0.14884,0.05856,-0.061,-0.18056,0.20984,0.23912,0.68808,0.488,0.30744,0.18056,0.10736
0.244,-0.1586,0.0732,-0.0488,-0.1708,0.2074,0.22936,0.6832,0.49288,0.3172,0.1952,0.11712
0.24888,-0.16592,0.08296,-0.04148,-0.16592,0.2074,0.22448,0.66368,0.48312,0.3172,0.1952,0.12688
0.24888,-0.16592,0.08296,-0.04148,-0.16592,0.2074,0.20984,0.65392,0.47336,0.3172,0.20008,0.14152
0.244,-0.16348,0.08296,-0.03904,-0.16104,0.20252,0.20496,0.60512,0.4392,0.30256,0.20008,0.14152
0.23424,-0.1586,0.08296,-0.03416,-0.15128,0.19276,0.18056,0.5612,0.40992,0.28792,0.1952,0.13664
0.20984,-0.14396,0.07808,-0.02684,-0.13176,0.1708,0.15128,0.49288,0.37576,0.2684,0.18544,0.13176
0.20008,-0.1464,0.09272,-0.00732,-0.10736,0.15372,0.13176,0.42456,0.33184,0.22936,0.16592,0.122
0.1708,-0.12688,0.08296,-0.00244,-0.08784,0.12932,0.122,0.366,0.29768,0.20008,0.15616,0.11712
0.1464,-0.10248,0.05856,-0.01464,-0.08784,0.11712,0.0976,0.30744,0.24888,0.18056,0.14152,0.11224
0.122,-0.08784,0.05368,-0.00732,-0.06832,0.09516,0.08296,0.244,0.20008,0.14152,0.10736,0.09272
0.08296,-0.06588,0.0488,0.00732,-0.03416,0.05856,0.05856,0.19032,0.15128,0.11224,0.07808,0.06832
0.06344,-0.05124,0.03904,0.00732,-0.0244,0.04392,0.04392,0.15128,0.11224,0.0732,0.05368,0.03904
0.04392,-0.04148,0.03904,0.01708,-0.00488,0.0244,0.03904,0.11224,0.08784,0.04392,0.03904,0.0244
0.01952,-0.01952,0.01952,0.00976,0,0.00976,0.03416,0.0732,0.04392,0.02928,0.0244,0.01464
0.00488,-0.00244,0,-0.00244,-0.00488,0.00488,0.0244,0.05856,0.02928,0,0.00976,0.00976
-0.00488,0.01464,-0.0244,-0.02196,-0.01952,0.00732,0.02928,0.03416,0.01464,-0.00976,0,0
-0.00488,0.0122,-0.01952,-0.01708,-0.01464,0.00488,0.01464,0.00488,0,-0.03416,-0.00976,-0.01952
-0.01464,0.0122,-0.00976,-0.00244,0.00488,-0.00976,0.00976,-0.01464,-0.03416,-0.0488,-0.03416,-0.02928
-0.02928,0.0244,-0.01952,-0.00488,0.00976,-0.01952,0.01952,-0.01464,-0.04392,-0.05856,-0.02928,-0.02928
-0.03416,0.03172,-0.02928,-0.0122,0.00488,-0.01952,0.01952,-0.01952,-0.05368,-0.05856,-0.03416,-0.03416
-0.03416,0.03416,-0.03416,-0.01708,0,-0.01708,0.00488,-0.03904,-0.05856,-0.06344,-0.03904,-0.03416
-0.04392,0.03904,-0.03416,-0.0122,0.00976,-0.02684,0,-0.04392,-0.06344,-0.0732,-0.04392,-0.03416
-0.02928,0.02928,-0.02928,-0.01464,0,-0.01464,0,-0.04392,-0.06832,-0.06832,-0.05368,-0.04392
-0.03416,0.02928,-0.0244,-0.00732,0.00976,-0.02196,0.00488,-0.05368,-0.06832,-0.06832,-0.05856,-0.0488
-0.03416,0.03172,-0.02928,-0.0122,0.00488,-0.01952,-0.00976,-0.04392,-0.06344,-0.06832,-0.06344,-0.0488
-0.03416,0.02928,-0.0244,-0.00732,0.00976,-0.02196,-0.00976,-0.04392,-0.06832,-0.07808,-0.06344,-0.05368
-0.03904,0.0366,-0.03416,-0.01464,0.00488,-0.02196,0.00976,-0.04392,-0.06344,-0.0732,-0.05368,-0.05368
-0.03416,0.03172,-0.02928,-0.0122,0.00488,-0.01952,0.00976,-0.0488,-0.06832,-0.0732,-0.05856,-0.0488
-0.04392,0.04392,-0.04392,-0.02196,0,-0.02196,-0.00488,-0.05856,-0.0732,-0.07808,-0.05856,-0.04392
-0.0488,0.04392,-0.03904,-0.01464,0.00976,-0.02928,-0.00488,-0.05368,-0.0732,-0.0732,-0.05368,-0.04392
-0.04392,0.0366,-0.02928,-0.00732,0.01464,-0.02928,-0.00976,-0.05368,-0.0732,-0.08296,-0.06344,-0.05368
-0.04392,0.0366,-0.02928,-0.00732,0.01464,-0.02928,-0.00976,-0.05856,-0.0732,-0.08296,-0.06344,-0.05368
-0.03904,0.02928,-0.01952,0,0.01952,-0.02928,-0.00976,-0.0488,-0.06344,-0.0732,-0.05856,-0.05368
-0.03904,0.02928,-0.01952,0,0.01952,-0.02928,0,-0.04392,-0.05856,-0.06832,-0.05368,-0.0488
-0.02928,0.0244,-0.01952,-0.00488,0.00976,-0.01952,0,-0.03904,-0.06832,-0.0732,-0.05856,-0.0488
-0.0244,0.0122,0,0.0122,0.0244,-0.0244,-0.00488,-0.03904,-0.06344,-0.06832,-0.05368,-0.03904
-0.03416,0.0122,0.00976,0.02684,0.04392,-0.03904,-0.00488,-0.03904,-0.05368,-0.06832,-0.05368,-0.03416
-0.03904,0.03172,-0.0244,-0.00488,0.01464,-0.02684,-0.00488,-0.03904,-0.05368,-0.05856,-0.04392,-0.03416
-0.03416,0.03416,-0.03416,-0.01708,0,-0.01708,-0.00976,-0.03904,-0.05856,-0.0488,-0.03416,-0.0244
-0.03904,0.0366,-0.03416,-0.01464,0.00488,-0.02196,-0.00976,-0.0488,-0.0488,-0.05368,-0.03416,-0.0244
-0.03904,0.03416,-0.02928,-0.00976,0.00976,-0.0244,0,-0.03904,-0.0488,-0.05856,-0.04392,-0.02928
-0.02928,0.0244,-0.01952,-0.00488,0.00976,-0.01952,0,-0.03904,-0.0488,-0.05856,-0.03904,-0.02928
-0.0244,0.02196,-0.01952,-0.00732,0.00488,-0.01464,0.00976,-0.03416,-0.05856,-0.06832,-0.03904,-0.02928
-0.03416,0.02928,-0.0244,-0.00732,0.00976,-0.02196,0.01464,-0.03416,-0.05856,-0.06344,-0.0488,-0.02928
-0.03416,0.02684,-0.01952,-0.00244,0.01464,-0.0244,0,-0.04392,-0.05856,-0.06344,-0.04392,-0.02928
-0.03416,0.02684,-0.01952,-0.00244,0.01464,-0.0244,0,-0.03904,-0.05856,-0.06344,-0.04392,-0.02928
-0.03416,0.02928,-0.0244,-0.00732,0.00976,-0.02196,0,-0.02928,-0.0488,-0.05368,-0.03416,-0.0244
-0.03416,0.03172,-0.02928,-0.0122,0.00488,-0.01952,0,-0.02928,-0.0488,-0.0488,-0.03416,-0.02928
-0.03416,0.01952,-0.00488,0.0122,0.02928,-0.03172,0,-0.04392,-0.05368,-0.05368,-0.0488,-0.04392
-0.02928,0.02196,-0.01464,0,0.01464,-0.02196,0,-0.04392,-0.05368,-0.05368,-0.04392,-0.03904
-0.01952,0.01708,-0.01464,-0.00488,0.00488,-0.0122,-0.00976,-0.04392,-0.06344,-0.05368,-0.05368,-0.03904
-0.01952,0.01708,-0.01464,-0.00488,0.00488,-0.0122,-0.00976,-0.04392,-0.05856,-0.05368,-0.05368,-0.03416
-0.03416,0.03172,-0.02928,-0.0122,0.00488,-0.01952,-0.01464,-0.03416,-0.05368,-0.05368,-0.05368,-0.03904
-0.03416,0.03172,-0.02928,-0.0122,0.00488,-0.01952,-0.01464,-0.03416,-0.04392,-0.0488,-0.05368,-0.03904
-0.02928,0.02928,-0.02928,-0.01464,0,-0.01464,-0.00488,-0.03416,-0.05368,-0.04392,-0.0488,-0.02928
-0.0244,0.02684,-0.02928,-0.01708,-0.00488,-0.00976,-0.00488,-0.03904,-0.05368,-0.04392,-0.04392,-0.02928
-0.01952,0.00976,0,0.00976,0.01952,-0.01952,-0.00976,-0.03904,-0.05856,-0.05368,-0.04392,-0.02928
-0.01952,0.01952,-0.01952,-0.00976,0,-0.00976,-0.00488,-0.03904,-0.05856,-0.05368,-0.04392,-0.02928
-0.02928,0.02928,-0.02928,-0.01464,0,-0.01464,-0.01952,-0.05368,-0.05856,-0.05368,-0.05368,-0.04392
-0.02928,0.02928,-0.02928,-0.01464,0,-0.01464,-0.01952,-0.05856,-0.05856,-0.05368,-0.05856,-0.04392
-0.03904,0.03416,-0.02928,-0.00976,0.00976,-0.0244,-0.01952,-0.0488,-0.06344,-0.0732,-0.05856,-0.04392
-0.03904,0.03904,-0.03904,-0.01952,0,-0.01952,-0.01464,-0.04392,-0.06344,-0.06344,-0.05368,-0.03904
-0.03416,0.02928,-0.0244,-0.00732,0.00976,-0.02196,-0.01952,-0.05856,-0.06832,-0.06832,-0.05856,-0.02928
-0.03904,0.03172,-0.0244,-0.00488,0.01464,-0.02684,-0.01952,-0.05856,-0.0732,-0.0732,-0.05856,-0.03904
-0.02928,0.03172,-0.03416,-0.01952,-0.00488,-0.0122,-0.01952,-0.0488,-0.06832,-0.06344,-0.0488,-0.0488
-0.03416,0.03172,-0.02928,-0.0122,0.00488,-0.01952,-0.01952,-0.05856,-0.06832,-0.06344,-0.05368,-0.0488
-0.03904,0.0366,-0.03416,-0.01464,0.00488,-0.02196,-0.01464,-0.05368,-0.07808,-0.07808,-0.05856,-0.04392
-0.03904,0.04148,-0.04392,-0.0244,-0.00488,-0.01708,-0.01464,-0.05368,-0.07808,-0.07808,-0.05856,-0.04392
-0.0488,0.04148,-0.03416,-0.00976,0.01464,-0.03172,-0.0244,-0.05368,-0.08784,-0.07808,-0.0732,-0.0488
-0.0488,0.04636,-0.04392,-0.01952,0.00488,-0.02684,-0.01952,-0.06344,-0.08784,-0.08296,-0.06832,-0.05856
-0.03904,0.04392,-0.0488,-0.02928,-0.00976,-0.01464,-0.00976,-0.05856,-0.08296,-0.0732,-0.05368,-0.05368
-0.0488,0.0488,-0.0488,-0.0244,0,-0.0244,-0.00976,-0.06344,-0.08296,-0.07808,-0.06344,-0.05368
-0.0488,0.04392,-0.03904,-0.01464,0.00976,-0.02928,-0.01464,-0.06832,-0.08296,-0.08296,-0.0732,-0.05368
-0.04392,0.04148,-0.03904,-0.01708,0.00488,-0.0244,-0.02928,-0.06832,-0.08296,-0.08784,-0.0732,-0.05368
-0.03416,0.03904,-0.04392,-0.02684,-0.00976,-0.0122,-0.02928,-0.05856,-0.08296,-0.08296,-0.0732,-0.04392
-0.03416,0.0366,-0.03904,-0.02196,-0.00488,-0.01464,-0.0244,-0.06832,-0.09272,-0.0976,-0.0732,-0.05368
-0.03416,0.04148,-0.0488,-0.03172,-0.01464,-0.00976,-0.02928,-0.0732,-0.08784,-0.08784,-0.06344,-0.06344
-0.03904,0.04392,-0.0488,-0.02928,-0.00976,-0.01464,-0.0244,-0.06832,-0.08784,-0.09272,-0.06344,-0.05856
-0.0488,0.04392,-0.03904,-0.01464,0.00976,-0.02928,-0.03416,-0.07808,-0.09272,-0.09272,-0.06832,-0.06832
-0.04392,0.0366,-0.02928,-0.00732,0.01464,-0.02928,-0.03904,-0.08296,-0.10248,-0.0976,-0.08296,-0.06832
-0.05368,0.0488,-0.04392,-0.01708,0.00976,-0.03172,-0.02928,-0.08784,-0.10248,-0.0976,-0.08296,-0.06832
-0.05368,0.04392,-0.03416,-0.00732,0.01952,-0.0366,-0.02928,-0.08784,-0.10248,-0.09272,-0.07808,-0.06344
-0.0488,0.05124,-0.05368,-0.02928,-0.00488,-0.02196,-0.03904,-0.08784,-0.10248,-0.09272,-0.0732,-0.06344
-0.0488,0.04636,-0.04392,-0.01952,0.00488,-0.02684,-0.03904,-0.08784,-0.10736,-0.0976,-0.07808,-0.06832
-0.05856,0.05368,-0.0488,-0.01952,0.00976,-0.03416,-0.02928,-0.08296,-0.10736,-0.09272,-0.08296,-0.06832
-0.05856,0.05856,-0.05856,-0.02928,0,-0.02928,-0.02928,-0.0732,-0.09272,-0.09272,-0.08296,-0.06344
-0.06344,0.05856,-0.05368,-0.02196,0.00976,-0.0366,-0.04392,-0.08784,-0.09272,-0.10248,-0.08296,-0.07808
-0.05856,0.05612,-0.05368,-0.0244,0.00488,-0.03172,-0.03904,-0.0976,-0.10248,-0.0976,-0.08296,-0.07808
-0.0488,0.03904,-0.02928,-0.00488,0.01952,-0.03416,-0.03904,-0.09272,-0.0976,-0.10248,-0.08784,-0.07808
-0.03904,0.0366,-0.03416,-0.01464,0.00488,-0.02196,-0.03904,-0.08784,-0.10248,-0.10248,-0.08296,-0.0732
-0.03904,0.0366,-0.03416,-0.01464,0.00488,-0.02196,-0.03416,-0.08296,-0.09272,-0.11224,-0.08296,-0.06344
-0.05856,0.061,-0.06344,-0.03416,-0.00488,-0.02684,-0.02928,-0.0732,-0.09272,-0.11224,-0.08784,-0.0732
-0.0732,0.07564,-0.07808,-0.04148,-0.00488,-0.03416,-0.0244,-0.08296,-0.0976,-0.10736,-0.08784,-0.07808
-0.06832,0.06832,-0.06832,-0.03416,0,-0.03416,-0.01952,-0.08784,-0.10248,-0.10248,-0.08296,-0.07808
-0.06344,0.06344,-0.06344,-0.03172,0,-0.03172,-0.0244,-0.09272,-0.11224,-0.11224,-0.08784,-0.06832
-0.05368,0.0488,-0.04392,-0.01708,0.00976,-0.03172,-0.0244,-0.09272,-0.10736,-0.11224,-0.08784,-0.06832
-0.03904,0.05124,-0.06344,-0.04392,-0.0244,-0.00732,-0.01464,-0.08296,-0.10248,-0.10248,-0.08296,-0.0732
-0.03904,0.03904,-0.03904,-0.01952,0,-0.01952,-0.00976,-0.0732,-0.10248,-0.10248,-0.08296,-0.06832
-0.03904,0.0488,-0.05856,-0.03904,-0.01952,-0.00976,-0.01952,-0.07808,-0.10248,-0.10736,-0.09272,-0.06832
-0.03904,0.04636,-0.05368,-0.03416,-0.01464,-0.0122,-0.0244,-0.08784,-0.09272,-0.10736,-0.08784,-0.06832
-0.05368,0.05612,-0.05856,-0.03172,-0.00488,-0.0244,-0.0244,-0.09272,-0.11224,-0.11712,-0.10248,-0.0732
-0.05856,0.061,-0.06344,-0.03416,-0.00488,-0.02684,-0.03904,-0.09272,-0.11224,-0.11712,-0.0976,-0.06832
-0.06344,0.05856,-0.05368,-0.02196,0.00976,-0.0366,-0.03416,-0.09272,-0.11224,-0.11224,-0.08784,-0.07808
-0.06344,0.05856,-0.05368,-0.02196,0.00976,-0.0366,-0.02928,-0.09272,-0.10736,-0.11224,-0.08784,-0.07808
-0.06344,0.05612,-0.0488,-0.01708,0.01464,-0.03904,-0.03416,-0.09272,-0.10736,-0.10736,-0.08784,-0.07808
-0.06344,0.05612,-0.0488,-0.01708,0.01464,-0.03904,-0.03416,-0.09272,-0.10736,-0.10248,-0.08784,-0.07808
-0.0488,0.05368,-0.05856,-0.03416,-0.00976,-0.01952,-0.03416,-0.0976,-0.10736,-0.10736,-0.08784,-0.06832
-0.04392,0.05124,-0.05856,-0.0366,-0.01464,-0.01464,-0.03416,-0.09272,-0.10736,-0.10248,-0.08784,-0.06832
-0.05368,0.061,-0.06832,-0.04148,-0.01464,-0.01952,-0.02928,-0.08296,-0.10248,-0.11224,-0.09272,-0.07808
-0.05368,0.05612,-0.05856,-0.03172,-0.00488,-0.0244,-0.02928,-0.08296,-0.10248,-0.11712,-0.09272,-0.07808
-0.05856,0.05856,-0.05856,-0.02928,0,-0.02928,-0.03904,-0.08296,-0.10736,-0.11224,-0.09272,-0.07808
-0.05368,0.05124,-0.0488,-0.02196,0.00488,-0.02928,-0.03904,-0.08784,-0.10736,-0.10248,-0.09272,-0.06832
-0.05856,0.05612,-0.05368,-0.0244,0.00488,-0.03172,-0.02928,-0.08784,-0.10248,-0.10248,-0.08784,-0.06344
-0.05368,0.05368,-0.05368,-0.02684,0,-0.02684,-0.02928,-0.08784,-0.10736,-0.10248,-0.08784,-0.0732
-0.05856,0.05368,-0.0488,-0.01952,0.00976,-0.03416,-0.03904,-0.09272,-0.10736,-0.10248,-0.0976,-0.07808
-0.03904,0.0488,-0.05856,-0.03904,-0.01952,-0.00976,-0.02928,-0.07808,-0.0976,-0.10736,-0.0976,-0.06832
-0.0488,0.0488,-0.0488,-0.0244,0,-0.0244,-0.03904,-0.08784,-0.0976,-0.10736,-0.0976,-0.07808
-0.0488,0.0488,-0.0488,-0.0244,0,-0.0244,-0.03904,-0.08784,-0.0976,-0.10736,-0.0976,-0.07808
-0.0488,0.05856,-0.06832,-0.04392,-0.01952,-0.01464,-0.02928,-0.07808,-0.10736,-0.10248,-0.09272,-0.06832
-0.0488,0.06344,-0.07808,-0.05368,-0.02928,-0.00976,-0.01952,-0.0732,-0.10736,-0.10736,-0.0976,-0.06832
-0.0488,0.05612,-0.06344,-0.03904,-0.01464,-0.01708,-0.01952,-0.07808,-0.10736,-0.10736,-0.0976,-0.07808
-0.0488,0.05124,-0.05368,-0.02928,-0.00488,-0.02196,-0.00976,-0.06832,-0.09272,-0.10248,-0.08296,-0.06832
-0.02928,0.0244,-0.01952,-0.00488,0.00976,-0.01952,-0.00976,-0.06344,-0.0732,-0.08296,-0.08296,-0.06344
-0.03416,0.02196,-0.00976,0.00732,0.0244,-0.02928,0.00488,-0.04392,-0.05856,-0.0732,-0.06832,-0.05368
-0.02928,0.0122,0.00488,0.01952,0.03416,-0.03172,0.0244,-0.0244,-0.0488,-0.06344,-0.05368,-0.03904
-0.02928,0.00976,0.00976,0.0244,0.03904,-0.03416,0.0488,-0.00976,-0.0488,-0.05856,-0.0488,-0.03416
-0.03904,0.00976,0.01952,0.03904,0.05856,-0.0488,0.03904,-0.02928,-0.05368,-0.05856,-0.05856,-0.03904
-0.03904,0.00976,0.01952,0.03904,0.05856,-0.0488,0.03904,-0.0244,-0.04392,-0.05368,-0.05368,-0.04392
-0.02928,0.0122,0.00488,0.01952,0.03416,-0.03172,0.05368,-0.01952,-0.04392,-0.06344,-0.04392,-0.03904
-0.01952,0.00976,0,0.00976,0.01952,-0.01952,0.03416,-0.02928,-0.05368,-0.06344,-0.04392,-0.04392
-0.00976,0.00488,0,0.00488,0.00976,-0.00976,0.03416,-0.01952,-0.0488,-0.05368,-0.04392,-0.03416
-0.00488,0.00244,0,0.00244,0.00488,-0.00488,0.02928,-0.01464,-0.04392,-0.0488,-0.03904,-0.02928
0.00488,-0.01708,0.02928,0.02684,0.0244,-0.00976,-0.00488,-0.02928,-0.05368,-0.0488,-0.04392,-0.01952
0.02928,-0.03904,0.0488,0.03416,0.01952,0.00488,-0.0244,-0.0488,-0.0488,-0.04392,-0.03904,-0.00976
0.0244,-0.0366,0.0488,0.0366,0.0244,0,-0.06344,-0.06344,-0.06344,-0.04392,-0.03904,-0.00488
0.0244,-0.03904,0.05368,0.04148,0.02928,-0.00244,-0.08296,-0.08784,-0.08784,-0.0732,-0.05856,-0.01464
0.03416,-0.01464,-0.00488,-0.02196,-0.03904,0.0366,-0.08784,-0.11224,-0.10736,-0.0976,-0.0732,-0.02928
0.01464,0.00488,-0.0244,-0.03172,-0.03904,0.02684,-0.08296,-0.11712,-0.122,-0.10736,-0.07808,-0.03904
-0.00488,0.01952,-0.03416,-0.03172,-0.02928,0.0122,-0.08296,-0.122,-0.13176,-0.11712,-0.08784,-0.05368
-0.00488,0.02196,-0.03904,-0.0366,-0.03416,0.01464,-0.08296,-0.12688,-0.14152,-0.12688,-0.08784,-0.05856
0.00488,0.0244,-0.05368,-0.05612,-0.05856,0.03172,-0.0976,-0.13176,-0.13176,-0.122,-0.0976,-0.06344
0,0.02684,-0.05368,-0.05368,-0.05368,0.02684,-0.09272,-0.14152,-0.14152,-0.12688,-0.10248,-0.06832
0,0.03172,-0.06344,-0.06344,-0.06344,0.03172,-0.08296,-0.13176,-0.13176,-0.13176,-0.0976,-0.06344
0.00488,0.02684,-0.05856,-0.061,-0.06344,0.03416,-0.07808,-0.122,-0.11224,-0.11712,-0.09272,-0.05856
-0.00976,0.02928,-0.0488,-0.04392,-0.03904,0.01464,-0.05368,-0.10736,-0.11224,-0.122,-0.09272,-0.06832
-0.04392,0.05124,-0.05856,-0.0366,-0.01464,-0.01464,-0.05368,-0.10736,-0.122,-0.122,-0.0976,-0.0732
-0.05368,0.07076,-0.08784,-0.061,-0.03416,-0.00976,-0.03904,-0.10248,-0.122,-0.122,-0.10248,-0.06832
-0.06832,0.08296,-0.0976,-0.06344,-0.02928,-0.01952,-0.04392,-0.12688,-0.1464,-0.14152,-0.122,-0.08784
-0.06344,0.08052,-0.0976,-0.06588,-0.03416,-0.01464,-0.05856,-0.13664,-0.15616,-0.16592,-0.13664,-0.10736
-0.05856,0.08296,-0.10736,-0.07808,-0.0488,-0.00488,-0.06832,-0.14152,-0.16104,-0.1708,-0.14152,-0.11712
-0.0732,0.08784,-0.10248,-0.06588,-0.02928,-0.02196,-0.05856,-0.13176,-0.16592,-0.15616,-0.14152,-0.11224
-0.06832,0.0854,-0.10248,-0.06832,-0.03416,-0.01708,-0.0488,-0.11712,-0.15616,-0.15128,-0.13664,-0.11224
-0.07808,0.08784,-0.0976,-0.05856,-0.01952,-0.02928,-0.0488,-0.12688,-0.1464,-0.16104,-0.14152,-0.122
-0.0976,0.10004,-0.10248,-0.05368,-0.00488,-0.04636,-0.0488,-0.12688,-0.1464,-0.15616,-0.13664,-0.122
-0.0732,0.08296,-0.09272,-0.05612,-0.01952,-0.02684,-0.04392,-0.122,-0.1464,-0.15616,-0.122,-0.10736
-0.05368,0.07076,-0.08784,-0.061,-0.03416,-0.00976,-0.04392,-0.122,-0.15128,-0.15616,-0.122,-0.10248
-0.0732,0.08784,-0.10248,-0.06588,-0.02928,-0.02196,-0.02928,-0.11712,-0.14152,-0.1464,-0.122,-0.11712
-0.08296,0.12932,-0.17568,-0.1342,-0.09272,0.00488,0.00488,-0.05368,-0.13664,-0.18544,-0.19032,-0.16592
-0.09272,0.1342,-0.17568,-0.12932,-0.08296,-0.00488,0.13664,0.0976,-0.06344,-0.15616,-0.20496,-0.19032
-0.05856,0.11468,-0.1708,-0.14152,-0.11224,0.02684,0.24888,0.2684,0.0732,-0.06344,-0.15128,-0.16592
-0.01464,0.07076,-0.12688,-0.11956,-0.11224,0.0488,0.37576,0.50264,0.29768,0.12688,-0.01464,-0.09272
0.122,-0.03904,-0.04392,-0.10492,-0.16592,0.14396,0.4392,0.7564,0.55144,0.36112,0.16592,0.03904
0.35136,-0.2074,0.06344,-0.11224,-0.28792,0.31964,0.35624,0.81008,0.7808,0.64904,0.45384,0.30256
0.61,-0.44896,0.28792,-0.01708,-0.32208,0.46604,0.23424,0.74664,1.00528,1.00528,0.83936,0.63928
0.83448,-0.72468,0.61488,0.19764,-0.2196,0.52704,0.03416,0.58072,1.25904,1.44448,1.30296,1.05408
0.94672,-0.90036,0.854,0.38064,-0.09272,0.51972,-0.27816,0.18056,1.28344,1.74216,1.71776,1.44448
0.92232,-1.02236,1.1224,0.66124,0.20008,0.36112,-0.43432,-0.13176,1.25416,1.91784,1.98128,1.71288
0.65392,-0.93696,1.22,0.89304,0.56608,0.04392,-0.45872,-0.40504,1.15168,1.96176,2.06424,1.81048
0.4392,-0.79056,1.14192,0.92232,0.70272,-0.13176,-0.45872,-0.60024,0.8784,1.64944,1.81536,1.63968
0.18056,-0.54168,0.9028,0.81252,0.72224,-0.27084,-0.47824,-0.8296,0.30256,0.93696,1.19072,1.16632
-0.0244,-0.32696,0.67832,0.69052,0.70272,-0.36356,-0.49776,-1.06872,-0.244,0.2928,0.59048,0.71248
-0.19032,-0.15128,0.49288,0.58804,0.6832,-0.43676,-0.48312,-1.20536,-0.63928,-0.20496,0.14152,0.35624
-0.20496,-0.02684,0.25864,0.36112,0.4636,-0.33428,-0.43432,-1.06872,-0.69784,-0.36112,-0.0488,0.16104
-0.22936,0.02196,0.18544,0.30012,0.4148,-0.32208,-0.52704,-1.00528,-0.70272,-0.45384,-0.17568,0.01464
-0.18056,0.0366,0.10736,0.19764,0.28792,-0.23424,-0.52216,-0.82472,-0.61488,-0.41968,-0.18056,-0.00976
-0.15616,0.02928,0.0976,0.17568,0.25376,-0.20496,-0.46848,-0.66856,-0.52704,-0.38064,-0.19032,-0.04392
-0.13664,0.04148,0.05368,0.122,0.19032,-0.16348,-0.38552,-0.53192,-0.40016,-0.28792,-0.16104,-0.05368
-0.13664,0.0366,0.06344,0.13176,0.20008,-0.16836,-0.26352,-0.39528,-0.29768,-0.21472,-0.1464,-0.07808
-0.13176,0.061,0.00976,0.07564,0.14152,-0.13664,-0.16592,-0.26352,-0.23912,-0.18056,-0.122,-0.07808
-0.11712,0.06588,-0.01464,0.04392,0.10248,-0.1098,-0.10248,-0.16592,-0.18544,-0.17568,-0.122,-0.06832
-0.12688,0.07564,-0.0244,0.03904,0.10248,-0.11468,-0.09272,-0.15616,-0.1708,-0.16104,-0.14152,-0.10736
-0.11224,0.08296,-0.05368,0.00244,0.05856,-0.0854,-0.05856,-0.122,-0.122,-0.13664,-0.13176,-0.10736
-0.11224,0.09272,-0.0732,-0.01708,0.03904,-0.07564,-0.0488,-0.10248,-0.12688,-0.1464,-0.13664,-0.11712
-0.10736,0.09516,-0.08296,-0.02928,0.0244,-0.06588,-0.0244,-0.0732,-0.13664,-0.15128,-0.14152,-0.122
-0.0976,0.10004,-0.10248,-0.05368,-0.00488,-0.04636,-0.0244,-0.06832,-0.122,-0.1464,-0.14152,-0.11224
-0.0976,0.10248,-0.10736,-0.05856,-0.00976,-0.04392,-0.01952,-0.06344,-0.10248,-0.13176,-0.14152,-0.11224
-0.10736,0.1098,-0.11224,-0.05856,-0.00488,-0.05124,0.00488,-0.03904,-0.09272,-0.13176,-0.14152,-0.11224
-0.10736,0.10736,-0.10736,-0.05368,0,-0.05368,0.00488,-0.0244,-0.10248,-0.13664,-0.14152,-0.122
-0.09272,0.10492,-0.11712,-0.07076,-0.0244,-0.03416,0.00488,-0.02928,-0.10736,-0.1464,-0.14152,-0.11712
-0.09272,0.0976,-0.10248,-0.05612,-0.00976,-0.04148,0.00976,-0.02928,-0.10248,-0.14152,-0.14152,-0.11712
-0.09272,0.10004,-0.10736,-0.061,-0.01464,-0.03904,0,-0.01952,-0.0976,-0.12688,-0.14152,-0.12688
-0.09272,0.10492,-0.11712,-0.07076,-0.0244,-0.03416,0.00488,-0.01464,-0.0976,-0.12688,-0.14152,-0.12688
-0.10248,0.11224,-0.122,-0.07076,-0.01952,-0.04148,0.00976,-0.00976,-0.09272,-0.13664,-0.1464,-0.12688
-0.10248,0.10736,-0.11224,-0.061,-0.00976,-0.04636,0.00976,-0.00976,-0.08784,-0.13176,-0.14152,-0.12688
-0.08784,0.10492,-0.122,-0.07808,-0.03416,-0.02684,0.00976,-0.00488,-0.0732,-0.11712,-0.13176,-0.11712
-0.08296,0.10492,-0.12688,-0.0854,-0.04392,-0.01952,0.00488,-0.00488,-0.0732,-0.10736,-0.122,-0.11712
-0.08784,0.11224,-0.13664,-0.09272,-0.0488,-0.01952,0.0244,0.00976,-0.08296,-0.10248,-0.122,-0.11712
-0.08784,0.11224,-0.13664,-0.09272,-0.0488,-0.01952,0.0244,0.01952,-0.07808,-0.10248,-0.122,-0.11712
-0.08784,0.0976,-0.10736,-0.06344,-0.01952,-0.03416,0.01464,0.00976,-0.07808,-0.10736,-0.12688,-0.12688
-0.08784,0.09516,-0.10248,-0.05856,-0.01464,-0.0366,0.01952,0.01464,-0.07808,-0.11712,-0.12688,-0.122
-0.0732,0.09272,-0.11224,-0.07564,-0.03904,-0.01708,0.01952,0.01952,-0.06344,-0.10248,-0.122,-0.122
-0.06832,0.09028,-0.11224,-0.07808,-0.04392,-0.0122,0.02928,0.02928,-0.05856,-0.0976,-0.11712,-0.122
-0.0732,0.09272,-0.11224,-0.07564,-0.03904,-0.01708,0.01464,0.03904,-0.0488,-0.09272,-0.11712,-0.11712
-0.06832,0.09028,-0.11224,-0.07808,-0.04392,-0.0122,0.01952,0.0488,-0.03416,-0.09272,-0.11224,-0.11712
-0.06832,0.08296,-0.0976,-0.06344,-0.02928,-0.01952,0.02928,0.0488,-0.04392,-0.09272,-0.122,-0.11712
-0.05856,0.08296,-0.10736,-0.07808,-0.0488,-0.00488,0.02928,0.05856,-0.02928,-0.09272,-0.122,-0.11712
-0.0488,0.07564,-0.10248,-0.07808,-0.05368,0.00244,0.03416,0.06832,-0.01952,-0.07808,-0.0976,-0.10248
-0.0488,0.06832,-0.08784,-0.06344,-0.03904,-0.00488,0.03904,0.08296,-0.00488,-0.07808,-0.0976,-0.10248
-0.0488,0.07076,-0.09272,-0.06832,-0.04392,-0.00244,0.03904,0.10248,0.01464,-0.05856,-0.08296,-0.0976
-0.03904,0.07076,-0.10248,-0.08296,-0.06344,0.0122,0.05368,0.12688,0.02928,-0.03904,-0.07808,-0.09272
-0.0244,0.05612,-0.08784,-0.07564,-0.06344,0.01952,0.06344,0.15616,0.03904,-0.02928,-0.07808,-0.08784
-0.01952,0.04636,-0.0732,-0.06344,-0.05368,0.01708,0.08296,0.17568,0.05856,-0.01952,-0.06832,-0.07808
-0.00976,0.05124,-0.09272,-0.08784,-0.08296,0.0366,0.08296,0.19032,0.08296,0.00976,-0.0488,-0.0732
0,0.0488,-0.0976,-0.0976,-0.0976,0.0488,0.09272,0.2196,0.10248,0.01952,-0.03904,-0.06832
0.01464,0.03416,-0.08296,-0.09028,-0.0976,0.05612,0.10248,0.24888,0.122,0.03416,-0.0244,-0.05856
0.0244,0.01708,-0.05856,-0.07076,-0.08296,0.05368,0.10248,0.27328,0.14152,0.04392,-0.01952,-0.05368
0.05368,0.00244,-0.05856,-0.0854,-0.11224,0.08296,0.12688,0.33672,0.18544,0.08296,-0.00976,-0.02928
0.06832,-0.00976,-0.0488,-0.08296,-0.11712,0.09272,0.13176,0.37576,0.2196,0.0976,0.00488,-0.0244
0.08784,-0.01708,-0.05368,-0.0976,-0.14152,0.11468,0.1464,0.40504,0.24888,0.122,0.0244,-0.00976
0.10736,-0.03904,-0.02928,-0.08296,-0.13664,0.122,0.15616,0.44408,0.27816,0.14152,0.03416,0
0.11712,-0.04636,-0.0244,-0.08296,-0.14152,0.12932,0.16592,0.48312,0.29768,0.16592,0.05856,0.01464
0.13664,-0.05856,-0.01952,-0.08784,-0.15616,0.1464,0.17568,0.52216,0.33184,0.19032,0.07808,0.02928
0.15128,-0.06588,-0.01952,-0.09516,-0.1708,0.16104,0.19032,0.57096,0.38064,0.2196,0.10248,0.03904
0.1708,-0.08052,-0.00976,-0.09516,-0.18056,0.17568,0.20008,0.60024,0.40504,0.244,0.11712,0.05368
0.19032,-0.10248,0.01464,-0.08052,-0.17568,0.183,0.22448,0.62464,0.42456,0.25864,0.13176,0.05856
0.20008,-0.11712,0.03416,-0.06588,-0.16592,0.183,0.22936,0.64904,0.44896,0.27816,0.13664,0.06832
0.22448,-0.12444,0.0244,-0.08784,-0.20008,0.21228,0.23424,0.67832,0.47336,0.28792,0.1464,0.09272
0.23424,-0.13176,0.02928,-0.08784,-0.20496,0.2196,0.23912,0.69296,0.48312,0.30744,0.16104,0.10248
0.23912,-0.14884,0.05856,-0.061,-0.18056,0.20984,0.22936,0.69296,0.488,0.31232,0.17568,0.10248
0.25376,-0.16104,0.06832,-0.05856,-0.18544,0.2196,0.22936,0.69784,0.49288,0.32208,0.18544,0.11224
0.24888,-0.16104,0.0732,-0.05124,-0.17568,0.21228,0.22448,0.68808,0.488,0.32696,0.18544,0.122
0.24888,-0.16104,0.0732,-0.05124,-0.17568,0.21228,0.22448,0.66368,0.48312,0.32696,0.20008,0.13176
0.23424,-0.14884,0.06344,-0.05368,-0.1708,0.20252,0.20496,0.61976,0.45872,0.3172,0.20008,0.13176
0.22936,-0.1464,0.06344,-0.05124,-0.16592,0.19764,0.18056,0.56608,0.42944,0.30256,0.1952,0.13176
0.22448,-0.15372,0.08296,-0.02928,-0.14152,0.183,0.15128,0.50752,0.39528,0.27816,0.18056,0.13664
0.20008,-0.14396,0.08784,-0.0122,-0.11224,0.15616,0.122,0.44408,0.34648,0.25376,0.1708,0.12688
0.1708,-0.13176,0.09272,0.00732,-0.07808,0.12444,0.10736,0.38552,0.28792,0.22448,0.1464,0.11224
0.13664,-0.10736,0.07808,0.00976,-0.05856,0.0976,0.08296,0.32696,0.24888,0.1952,0.13176,0.09272
0.11712,-0.08784,0.05856,0,-0.05856,0.08784,0.0732,0.26352,0.20008,0.16592,0.122,0.09272
0.08784,-0.06832,0.0488,0.00488,-0.03904,0.06344,0.05856,0.20496,0.15616,0.13176,0.09272,0.0732
0.0488,-0.04392,0.03904,0.01464,-0.00976,0.02928,0.02928,0.15128,0.11224,0.09272,0.06832,0.04392
0.03416,-0.02684,0.01952,0.00244,-0.01464,0.0244,0.0244,0.11224,0.08296,0.06344,0.04392,0.0244
0.01464,-0.01464,0.01464,0.00732,0,0.00732,0.0244,0.08296,0.05368,0.04392,0.01952,0.01952
0.00488,-0.00244,0,-0.00244,-0.00488,0.00488,0.01464,0.05856,0.02928,0.01952,0.00488,0.00976
-0.00976,0.00976,-0.00976,-0.00488,0,-0.00488,0.01952,0.0244,0.00488,0.00976,-0.01464,-0.00488
-0.01952,0.00976,0,0.00976,0.01952,-0.01952,0.00976,0.00488,-0.00976,-0.00976,-0.03416,-0.01952
-0.01952,0.01708,-0.01464,-0.00488,0.00488,-0.0122,-0.00488,0,-0.02928,-0.0244,-0.0244,-0.0244
-0.02928,0.02196,-0.01464,0,0.01464,-0.02196,-0.00976,-0.0244,-0.04392,-0.02928,-0.03904,-0.02928
-0.03416,0.0366,-0.03904,-0.02196,-0.00488,-0.01464,0,-0.0244,-0.03416,-0.03904,-0.04392,-0.02928
-0.03416,0.03904,-0.04392,-0.02684,-0.00976,-0.0122,0.00488,-0.02928,-0.04392,-0.03904,-0.0488,-0.03904
-0.04392,0.03904,-0.03416,-0.0122,0.00976,-0.02684,-0.00488,-0.03904,-0.0488,-0.04392,-0.0488,-0.04392
-0.03904,0.02684,-0.01464,0.00488,0.0244,-0.03172,-0.00976,-0.04392,-0.05856,-0.05856,-0.05368,-0.04392
-0.04392,0.04148,-0.03904,-0.01708,0.00488,-0.0244,-0.01464,-0.05368,-0.05856,-0.05856,-0.06344,-0.04392
-0.04392,0.03904,-0.03416,-0.0122,0.00976,-0.02684,-0.03416,-0.06344,-0.06344,-0.05856,-0.0732,-0.0488
-0.04392,0.0366,-0.02928,-0.00732,0.01464,-0.02928,-0.02928,-0.05368,-0.0732,-0.0488,-0.06344,-0.0488
-0.0488,0.0366,-0.0244,0,0.0244,-0.0366,-0.01464,-0.05368,-0.07808,-0.05856,-0.06344,-0.05368
-0.04392,0.03904,-0.03416,-0.0122,0.00976,-0.02684,-0.00976,-0.05368,-0.06344,-0.05368,-0.06344,-0.0488
-0.04392,0.0366,-0.02928,-0.00732,0.01464,-0.02928,-0.01464,-0.05856,-0.06832,-0.05856,-0.06832,-0.05368
-0.0488,0.04148,-0.03416,-0.00976,0.01464,-0.03172,-0.0244,-0.0488,-0.06344,-0.06344,-0.07808,-0.04392
-0.05368,0.04148,-0.02928,-0.00244,0.0244,-0.03904,-0.01952,-0.04392,-0.06344,-0.06344,-0.0732,-0.04392
-0.05368,0.04148,-0.02928,-0.00244,0.0244,-0.03904,-0.02928,-0.05368,-0.06344,-0.06344,-0.0732,-0.05368
-0.05368,0.04148,-0.02928,-0.00244,0.0244,-0.03904,-0.02928,-0.06832,-0.06344,-0.06344,-0.07808,-0.05368
-0.0488,0.03904,-0.02928,-0.00488,0.01952,-0.03416,-0.0244,-0.05856,-0.05368,-0.05368,-0.06344,-0.0488
-0.0488,0.03904,-0.02928,-0.00488,0.01952,-0.03416,-0.03416,-0.05368,-0.0488,-0.0488,-0.06344,-0.0488
-0.03416,0.02928,-0.0244,-0.00732,0.00976,-0.02196,-0.00976,-0.0488,-0.05368,-0.0488,-0.06344,-0.0488
-0.03416,0.01464,0.00488,0.02196,0.03904,-0.0366,-0.00976,-0.05856,-0.05368,-0.05856,-0.0732,-0.05368
-0.03904,0.03172,-0.0244,-0.00488,0.01464,-0.02684,-0.01464,-0.0488,-0.05368,-0.05368,-0.06832,-0.04392
-0.03416,0.03172,-0.02928,-0.0122,0.00488,-0.01952,-0.00976,-0.0488,-0.0488,-0.0488,-0.06344,-0.04392
-0.03416,0.02928,-0.0244,-0.00732,0.00976,-0.02196,-0.00976,-0.04392,-0.04392,-0.03904,-0.05368,-0.03416
-0.04392,0.03904,-0.03416,-0.0122,0.00976,-0.02684,-0.00976,-0.0488,-0.03904,-0.04392,-0.05368,-0.03416
-0.04392,0.03416,-0.0244,-0.00244,0.01952,-0.03172,-0.00976,-0.0488,-0.03904,-0.03904,-0.05368,-0.03904
-0.03904,0.02928,-0.01952,0,0.01952,-0.02928,-0.00976,-0.04392,-0.03904,-0.03904,-0.04392,-0.03904
-0.02928,0.02196,-0.01464,0,0.01464,-0.02196,-0.00488,-0.04392,-0.0488,-0.0488,-0.05368,-0.03904
-0.02928,0.01464,0,0.01464,0.02928,-0.02928,-0.00976,-0.04392,-0.05856,-0.04392,-0.05368,-0.03904
-0.03416,0.02196,-0.00976,0.00732,0.0244,-0.02928,-0.01952,-0.04392,-0.0488,-0.03416,-0.05368,-0.02928
-0.03416,0.02684,-0.01952,-0.00244,0.01464,-0.0244,-0.01952,-0.03904,-0.03904,-0.03416,-0.03416,-0.0244
-0.03416,0.02196,-0.00976,0.00732,0.0244,-0.02928,-0.00976,-0.0488,-0.0488,-0.03904,-0.04392,-0.03904
-0.03416,0.0122,0.00976,0.02684,0.04392,-0.03904,-0.00976,-0.05368,-0.05368,-0.05368,-0.05856,-0.04392
-0.04392,0.03172,-0.01952,0.00244,0.0244,-0.03416,-0.01952,-0.04392,-0.04392,-0.04392,-0.05368,-0.03904
-0.03904,0.03904,-0.03904,-0.01952,0,-0.01952,-0.01952,-0.03416,-0.04392,-0.04392,-0.05368,-0.03904
-0.02928,0.02196,-0.01464,0,0.01464,-0.02196,-0.00976,-0.04392,-0.03904,-0.03416,-0.04392,-0.03904
-0.02928,0.0122,0.00488,0.01952,0.03416,-0.03172,-0.01464,-0.04392,-0.03904,-0.03416,-0.04392,-0.03416
-0.03416,0.02196,-0.00976,0.00732,0.0244,-0.02928,-0.00488,-0.03416,-0.0488,-0.04392,-0.04392,-0.02928
-0.03904,0.0244,-0.00976,0.00976,0.02928,-0.03416,-0.00488,-0.03416,-0.05368,-0.03904,-0.04392,-0.02928
-0.03416,0.02684,-0.01952,-0.00244,0.01464,-0.0244,-0.01464,-0.0488,-0.06344,-0.05368,-0.05368,-0.03904
-0.03416,0.0244,-0.01464,0.00244,0.01952,-0.02684,-0.02928,-0.05856,-0.06832,-0.06344,-0.06344,-0.0488
-0.01952,0.01952,-0.01952,-0.00976,0,-0.00976,-0.01464,-0.0488,-0.05856,-0.05368,-0.05368,-0.03904
-0.01952,0.01952,-0.01952,-0.00976,0,-0.00976,-0.01952,-0.05368,-0.05856,-0.04392,-0.05368,-0.04392
-0.02928,0.02928,-0.02928,-0.01464,0,-0.01464,-0.01952,-0.05368,-0.05856,-0.04392,-0.05368,-0.04392
-0.03904,0.03416,-0.02928,-0.00976,0.00976,-0.0244,-0.01952,-0.05856,-0.06344,-0.05368,-0.05856,-0.04392
-0.03904,0.0366,-0.03416,-0.01464,0.00488,-0.02196,-0.01952,-0.05368,-0.06344,-0.04392,-0.05856,-0.04392
-0.04392,0.04148,-0.03904,-0.01708,0.00488,-0.0244,-0.01464,-0.05368,-0.06832,-0.04392,-0.05368,-0.03904
-0.03416,0.02928,-0.0244,-0.00732,0.00976,-0.02196,-0.01952,-0.0488,-0.06344,-0.05368,-0.05856,-0.0488
-0.02928,0.0244,-0.01952,-0.00488,0.00976,-0.01952,-0.01952,-0.0488,-0.05856,-0.05368,-0.05856,-0.0488
-0.02928,0.02196,-0.01464,0,0.01464,-0.02196,-0.01952,-0.06344,-0.05856,-0.06344,-0.06832,-0.05856
-0.03416,0.01952,-0.00488,0.0122,0.02928,-0.03172,-0.01952,-0.0732,-0.06344,-0.07808,-0.08784,-0.05856
-0.02928,0.02196,-0.01464,0,0.01464,-0.02196,-0.03416,-0.0732,-0.07808,-0.06832,-0.07808,-0.06344
-0.02928,0.02196,-0.01464,0,0.01464,-0.02196,-0.03416,-0.0732,-0.07808,-0.06832,-0.08296,-0.06344
-0.02928,0.02196,-0.01464,0,0.01464,-0.02196,-0.03416,-0.07808,-0.07808,-0.08296,-0.06832,-0.05368
-0.02928,0.02684,-0.0244,-0.00976,0.00488,-0.01708,-0.02928,-0.07808,-0.07808,-0.08296,-0.06344,-0.05368
-0.0488,0.03904,-0.02928,-0.00488,0.01952,-0.03416,-0.01952,-0.06832,-0.0732,-0.07808,-0.0732,-0.05368
-0.0488,0.03904,-0.02928,-0.00488,0.01952,-0.03416,-0.01952,-0.06344,-0.0732,-0.06344,-0.0732,-0.05368
-0.03416,0.02684,-0.01952,-0.00244,0.01464,-0.0244,-0.0244,-0.07808,-0.08296,-0.07808,-0.0732,-0.06344
-0.03416,0.02684,-0.01952,-0.00244,0.01464,-0.0244,-0.0244,-0.07808,-0.08296,-0.08296,-0.0732,-0.06344
-0.04392,0.04392,-0.04392,-0.02196,0,-0.02196,-0.0244,-0.06832,-0.08296,-0.07808,-0.08296,-0.06344
-0.05368,0.05124,-0.0488,-0.02196,0.00488,-0.02928,-0.02928,-0.07808,-0.09272,-0.07808,-0.08296,-0.0732
-0.04392,0.04636,-0.0488,-0.02684,-0.00488,-0.01952,-0.03416,-0.07808,-0.08784,-0.08296,-0.08296,-0.06832
-0.0488,0.04392,-0.03904,-0.01464,0.00976,-0.02928,-0.03416,-0.08784,-0.08784,-0.08296,-0.08296,-0.06832
-0.03904,0.0366,-0.03416,-0.01464,0.00488,-0.02196,-0.0244,-0.06832,-0.08296,-0.08296,-0.08296,-0.05856
-0.03416,0.03172,-0.02928,-0.0122,0.00488,-0.01952,-0.02928,-0.06344,-0.09272,-0.08784,-0.08784,-0.06832
-0.04392,0.03416,-0.0244,-0.00244,0.01952,-0.03172,-0.02928,-0.07808,-0.09272,-0.08296,-0.07808,-0.06344
-0.04392,0.03416,-0.0244,-0.00244,0.01952,-0.03172,-0.02928,-0.07808,-0.09272,-0.08296,-0.08296,-0.06344
-0.0488,0.04636,-0.04392,-0.01952,0.00488,-0.02684,-0.03904,-0.08784,-0.08296,-0.0732,-0.08296,-0.06344
-0.0488,0.04636,-0.04392,-0.01952,0.00488,-0.02684,-0.03904,-0.08784,-0.09272,-0.08296,-0.08784,-0.06832
-0.0488,0.04636,-0.04392,-0.01952,0.00488,-0.02684,-0.02928,-0.07808,-0.08784,-0.08296,-0.08296,-0.06832
-0.05368,0.0488,-0.04392,-0.01708,0.00976,-0.03172,-0.03416,-0.08296,-0.08784,-0.08296,-0.08296,-0.06344
-0.03904,0.03172,-0.0244,-0.00488,0.01464,-0.02684,-0.01952,-0.0732,-0.08784,-0.08784,-0.08296,-0.05856
-0.03416,0.01952,-0.00488,0.0122,0.02928,-0.03172,-0.01952,-0.0732,-0.08784,-0.09272,-0.08784,-0.05856
-0.03416,0.0366,-0.03904,-0.02196,-0.00488,-0.01464,-0.01952,-0.0732,-0.09272,-0.09272,-0.08296,-0.06344
-0.03416,0.04392,-0.05368,-0.0366,-0.01952,-0.00732,-0.01952,-0.06832,-0.09272,-0.09272,-0.08296,-0.06344
-0.04392,0.03904,-0.03416,-0.0122,0.00976,-0.02684,-0.02928,-0.07808,-0.10248,-0.09272,-0.0976,-0.06832
-0.05368,0.04392,-0.03416,-0.00732,0.01952,-0.0366,-0.03416,-0.09272,-0.10248,-0.09272,-0.0976,-0.0732
-0.04392,0.0366,-0.02928,-0.00732,0.01464,-0.02928,-0.01952,-0.08784,-0.08784,-0.08784,-0.09272,-0.06832
-0.03904,0.04148,-0.04392,-0.0244,-0.00488,-0.01708,-0.0244,-0.08784,-0.09272,-0.08296,-0.0976,-0.06832
-0.03904,0.03904,-0.03904,-0.01952,0,-0.01952,-0.03416,-0.09272,-0.08784,-0.09272,-0.10736,-0.07808
-0.03904,0.03416,-0.02928,-0.00976,0.00976,-0.0244,-0.03416,-0.08784,-0.09272,-0.09272,-0.10736,-0.07808
-0.0488,0.04392,-0.03904,-0.01464,0.00976,-0.02928,-0.03416,-0.07808,-0.09272,-0.09272,-0.10248,-0.0732
-0.05856,0.05856,-0.05856,-0.02928,0,-0.02928,-0.02928,-0.07808,-0.09272,-0.09272,-0.10248,-0.06832
-0.05856,0.061,-0.06344,-0.03416,-0.00488,-0.02684,-0.03416,-0.08296,-0.10248,-0.08784,-0.09272,-0.06832
-0.06832,0.07076,-0.0732,-0.03904,-0.00488,-0.03172,-0.02928,-0.08296,-0.09272,-0.08784,-0.08784,-0.06832
-0.05368,0.05124,-0.0488,-0.02196,0.00488,-0.02928,-0.03416,-0.08296,-0.09272,-0.08784,-0.10248,-0.0732
-0.05368,0.0488,-0.04392,-0.01708,0.00976,-0.03172,-0.03416,-0.08296,-0.09272,-0.08784,-0.0976,-0.06832
-0.05368,0.04392,-0.03416,-0.00732,0.01952,-0.0366,-0.03416,-0.08296,-0.0976,-0.09272,-0.0976,-0.06832
-0.05368,0.04148,-0.02928,-0.00244,0.0244,-0.03904,-0.02928,-0.08296,-0.10248,-0.09272,-0.0976,-0.06832
-0.04392,0.04148,-0.03904,-0.01708,0.00488,-0.0244,-0.03416,-0.09272,-0.10736,-0.0976,-0.0976,-0.06832
-0.05368,0.0488,-0.04392,-0.01708,0.00976,-0.03172,-0.03416,-0.10248,-0.10736,-0.09272,-0.0976,-0.06832
-0.04392,0.03904,-0.03416,-0.0122,0.00976,-0.02684,-0.03416,-0.0976,-0.0976,-0.0976,-0.0976,-0.06832
-0.04392,0.04392,-0.04392,-0.02196,0,-0.02196,-0.03416,-0.09272,-0.09272,-0.09272,-0.0976,-0.06832
-0.04392,0.0488,-0.05368,-0.03172,-0.00976,-0.01708,-0.02928,-0.08296,-0.09272,-0.0976,-0.10248,-0.06832
-0.0488,0.05368,-0.05856,-0.03416,-0.00976,-0.01952,-0.02928,-0.06344,-0.09272,-0.0976,-0.10248,-0.06832
-0.05368,0.04636,-0.03904,-0.0122,0.01464,-0.03416,-0.02928,-0.08296,-0.0976,-0.0976,-0.09272,-0.08296
-0.05856,0.0488,-0.03904,-0.00976,0.01952,-0.03904,-0.02928,-0.0976,-0.0976,-0.0976,-0.08784,-0.07808
-0.05368,0.0488,-0.04392,-0.01708,0.00976,-0.03172,-0.02928,-0.08784,-0.09272,-0.09272,-0.08784,-0.06832
-0.0488,0.04636,-0.04392,-0.01952,0.00488,-0.02684,-0.02928,-0.08784,-0.0976,-0.09272,-0.08784,-0.05856
-0.0488,0.05368,-0.05856,-0.03416,-0.00976,-0.01952,-0.02928,-0.08296,-0.0976,-0.08784,-0.08784,-0.06344
-0.0488,0.0488,-0.0488,-0.0244,0,-0.0244,-0.02928,-0.08784,-0.10736,-0.0976,-0.10736,-0.07808
-0.0488,0.0488,-0.0488,-0.0244,0,-0.0244,-0.02928,-0.08784,-0.10736,-0.0976,-0.10736,-0.07808
-0.05368,0.05612,-0.05856,-0.03172,-0.00488,-0.0244,-0.02928,-0.08784,-0.0976,-0.10248,-0.10248,-0.07808
-0.06344,0.05856,-0.05368,-0.02196,0.00976,-0.0366,-0.02928,-0.08784,-0.0976,-0.10736,-0.10736,-0.07808
-0.05368,0.04636,-0.03904,-0.0122,0.01464,-0.03416,-0.0244,-0.08296,-0.0976,-0.10736,-0.0976,-0.07808
-0.04392,0.0366,-0.02928,-0.00732,0.01464,-0.02928,-0.01464,-0.07808,-0.09272,-0.09272,-0.09272,-0.0732
-0.02928,0.01708,-0.00488,0.00976,0.0244,-0.02684,-0.00488,-0.06832,-0.07808,-0.08296,-0.08296,-0.05368
-0.01952,0.00488,0.00976,0.01952,0.02928,-0.0244,0.00976,-0.05368,-0.06344,-0.06832,-0.0732,-0.04392
-0.03416,0.00976,0.01464,0.03172,0.0488,-0.04148,0.01952,-0.0488,-0.05368,-0.0488,-0.06344,-0.04392
-0.02928,0.00244,0.0244,0.03904,0.05368,-0.04148,0.03416,-0.03904,-0.0488,-0.03904,-0.06344,-0.03416
-0.01952,0,0.01952,0.02928,0.03904,-0.02928,0.03416,-0.02928,-0.04392,-0.0488,-0.05856,-0.02928
-0.01952,0,0.01952,0.02928,0.03904,-0.02928,0.03904,-0.01952,-0.04392,-0.0488,-0.05368,-0.03416
-0.01952,0,0.01952,0.02928,0.03904,-0.02928,0.06344,-0.00488,-0.0244,-0.03416,-0.04392,-0.02928
-0.01464,-0.00976,0.03416,0.04148,0.0488,-0.03172,0.0488,0,-0.03416,-0.03416,-0.04392,-0.03416
-0.00976,-0.00976,0.02928,0.03416,0.03904,-0.0244,0.04392,-0.00976,-0.02928,-0.04392,-0.05368,-0.03416
0.00488,-0.01708,0.02928,0.02684,0.0244,-0.00976,0.03904,-0.00976,-0.02928,-0.04392,-0.05368,-0.03416
0,-0.0122,0.0244,0.0244,0.0244,-0.0122,0.0244,-0.00488,-0.03416,-0.02928,-0.03904,-0.01952
0.00976,-0.01708,0.0244,0.01952,0.01464,-0.00244,0,-0.00976,-0.02928,-0.0244,-0.02928,-0.00488
0.02928,-0.02928,0.02928,0.01464,0,0.01464,-0.03904,-0.04392,-0.0488,-0.02928,-0.03904,-0.00976
0.03416,-0.03416,0.03416,0.01708,0,0.01708,-0.0732,-0.06344,-0.06832,-0.05368,-0.04392,-0.00488
0.03416,-0.02684,0.01952,0.00244,-0.01464,0.0244,-0.08784,-0.0976,-0.0976,-0.08296,-0.06344,-0.01952
0.0244,-0.01464,0.00488,-0.00732,-0.01952,0.02196,-0.08296,-0.11712,-0.10248,-0.08784,-0.07808,-0.0244
0.01952,-0.00244,-0.01464,-0.0244,-0.03416,0.02684,-0.09272,-0.11712,-0.10248,-0.0976,-0.08296,-0.03904
0.01464,0,-0.01464,-0.02196,-0.02928,0.02196,-0.09272,-0.122,-0.10736,-0.10248,-0.08784,-0.05368
0.00976,0.01952,-0.0488,-0.05368,-0.05856,0.03416,-0.0976,-0.12688,-0.122,-0.10248,-0.08296,-0.0488
-0.00976,0.03416,-0.05856,-0.05368,-0.0488,0.01952,-0.09272,-0.122,-0.12688,-0.10248,-0.08784,-0.05856
-0.01952,0.03904,-0.05856,-0.0488,-0.03904,0.00976,-0.09272,-0.13176,-0.14152,-0.12688,-0.10736,-0.0732
-0.01952,0.03416,-0.0488,-0.03904,-0.02928,0.00488,-0.08784,-0.122,-0.14152,-0.12688,-0.10736,-0.06832
-0.00488,0.02684,-0.0488,-0.04636,-0.04392,0.01952,-0.0732,-0.10248,-0.11712,-0.122,-0.08296,-0.06344
-0.0244,0.0366,-0.0488,-0.0366,-0.0244,0,-0.0488,-0.0976,-0.11224,-0.10736,-0.08296,-0.05856
-0.03416,0.0488,-0.06344,-0.04636,-0.02928,-0.00244,-0.0488,-0.10248,-0.122,-0.11224,-0.09272,-0.06344
-0.0488,0.05612,-0.06344,-0.03904,-0.01464,-0.01708,-0.0488,-0.11224,-0.13176,-0.13176,-0.11712,-0.08784
-0.0732,0.07808,-0.08296,-0.04636,-0.00976,-0.03172,-0.05856,-0.13176,-0.15616,-0.13664,-0.13176,-0.10736
-0.07808,0.0854,-0.09272,-0.05368,-0.01464,-0.03172,-0.05856,-0.13664,-0.15616,-0.1464,-0.14152,-0.11712
-0.08296,0.09516,-0.10736,-0.06588,-0.0244,-0.02928,-0.06832,-0.14152,-0.15128,-0.15128,-0.13176,-0.10248
-0.07808,0.09028,-0.10248,-0.06344,-0.0244,-0.02684,-0.06832,-0.13176,-0.13664,-0.1464,-0.12688,-0.10248
-0.07808,0.08296,-0.08784,-0.0488,-0.00976,-0.03416,-0.05856,-0.11712,-0.13664,-0.15128,-0.14152,-0.11224
-0.08296,0.08784,-0.09272,-0.05124,-0.00976,-0.0366,-0.05856,-0.11712,-0.13664,-0.15128,-0.14152,-0.11224
-0.08784,0.0854,-0.08296,-0.03904,0.00488,-0.04636,-0.04392,-0.122,-0.13664,-0.1464,-0.14152,-0.11712
-0.08296,0.08052,-0.07808,-0.0366,0.00488,-0.04392,-0.04392,-0.122,-0.14152,-0.1464,-0.14152,-0.11712
-0.08296,0.0976,-0.11224,-0.07076,-0.02928,-0.02684,-0.03904,-0.122,-0.15128,-0.1464,-0.13176,-0.11224
-0.08296,0.11468,-0.1464,-0.10492,-0.06344,-0.00976,-0.01464,-0.11224,-0.13176,-0.15128,-0.13176,-0.11224
-0.10248,0.14396,-0.18544,-0.1342,-0.08296,-0.00976,0.03904,-0.0244,-0.11224,-0.15616,-0.20008,-0.17568
-0.09272,0.1098,-0.12688,-0.08052,-0.03416,-0.02928,0.1464,0.11224,-0.0488,-0.1464,-0.21472,-0.2196
-0.0732,0.11224,-0.15128,-0.11468,-0.07808,0.00244,0.28792,0.3172,0.122,-0.01952,-0.13176,-0.16104
-0.00488,0.04148,-0.07808,-0.07564,-0.0732,0.03416,0.38552,0.55632,0.33672,0.16104,0.00488,-0.07808
0.17568,-0.07076,-0.03416,-0.122,-0.20984,0.19276,0.42944,0.75152,0.57584,0.40016,0.20008,0.08784
0.4392,-0.27572,0.11224,-0.10736,-0.32696,0.38308,0.29768,0.73688,0.77592,0.67344,0.488,0.3416
0.69296,-0.51484,0.33672,-0.00976,-0.35624,0.5246,0.17568,0.67832,1.03944,1.06384,0.89304,0.6832
0.9028,-0.77836,0.65392,0.20252,-0.24888,0.57584,-0.05856,0.49776,1.2444,1.46888,1.34688,1.10288
1.03944,-0.99796,0.95648,0.43676,-0.08296,0.5612,-0.366,0.06832,1.23952,1.71776,1.68848,1.44936
0.94184,-1.04188,1.14192,0.671,0.20008,0.37088,-0.50752,-0.25376,1.20536,1.86904,1.92272,1.66896
0.64416,-0.91256,1.18096,0.85888,0.5368,0.05368,-0.49288,-0.46848,1.1224,1.86904,1.97152,1.71776
0.4392,-0.75884,1.07848,0.85888,0.63928,-0.10004,-0.51728,-0.65392,0.74664,1.42984,1.61528,1.48352
0.18544,-0.51484,0.84424,0.75152,0.6588,-0.23668,-0.55144,-0.93696,0.1464,0.72712,0.98576,1.01992
-0.03904,-0.30988,0.6588,0.67832,0.69784,-0.36844,-0.56608,-1.20048,-0.38552,0.09272,0.4148,0.5612
-0.15616,-0.13908,0.43432,0.5124,0.59048,-0.37332,-0.53192,-1.1956,-0.65392,-0.26352,0.08296,0.29768
-0.19032,-0.00976,0.20984,0.305,0.40016,-0.29524,-0.54168,-1.08336,-0.70272,-0.40992,-0.08296,0.12688
-0.20984,0.02196,0.16592,0.27084,0.37576,-0.2928,-0.60024,-0.976,-0.67832,-0.44408,-0.1708,0.01464
-0.17568,0.03904,0.0976,0.18544,0.27328,-0.22448,-0.52704,-0.78568,-0.56608,-0.37088,-0.16104,-0.00976
-0.13176,0.01464,0.10248,0.16836,0.23424,-0.183,-0.45384,-0.62952,-0.44408,-0.31232,-0.15128,-0.03904
-0.13664,0.03904,0.05856,0.12688,0.1952,-0.16592,-0.3172,-0.44408,-0.3172,-0.2196,-0.12688,-0.03416
-0.13176,0.02928,0.0732,0.13908,0.20496,-0.16836,-0.2196,-0.30744,-0.23424,-0.17568,-0.122,-0.06344
-0.14152,0.06832,0.00488,0.07564,0.1464,-0.14396,-0.12688,-0.2196,-0.1952,-0.15616,-0.11224,-0.08784
-0.13664,0.0732,-0.00976,0.05856,0.12688,-0.13176,-0.11224,-0.17568,-0.18056,-0.15616,-0.13664,-0.10248
-0.122,0.0732,-0.0244,0.0366,0.0976,-0.1098,-0.0732,-0.13176,-0.14152,-0.15128,-0.14152,-0.11224
-0.10248,0.08052,-0.05856,-0.00732,0.04392,-0.0732,-0.0488,-0.0976,-0.13176,-0.13664,-0.13664,-0.10736
-0.0976,0.08052,-0.06344,-0.01464,0.03416,-0.06588,-0.0244,-0.0732,-0.12688,-0.14152,-0.14152,-0.11224
-0.09272,0.09272,-0.09272,-0.04636,0,-0.04636,-0.01464,-0.05856,-0.12688,-0.1464,-0.14152,-0.122
-0.10248,0.0976,-0.09272,-0.04148,0.00976,-0.05612,-0.00976,-0.05368,-0.11712,-0.14152,-0.14152,-0.122
-0.10736,0.10492,-0.10248,-0.0488,0.00488,-0.05612,-0.00488,-0.03416,-0.09272,-0.13176,-0.14152,-0.122
-0.10736,0.10248,-0.0976,-0.04392,0.00976,-0.05856,0.00488,-0.0244,-0.09272,-0.13176,-0.14152,-0.122
-0.0976,0.10736,-0.11712,-0.06832,-0.01952,-0.03904,0.00976,-0.01952,-0.09272,-0.13176,-0.13176,-0.122
-0.09272,0.1098,-0.12688,-0.08052,-0.03416,-0.02928,0.0244,-0.01952,-0.08784,-0.11712,-0.13176,-0.11712
-0.10248,0.10736,-0.11224,-0.061,-0.00976,-0.04636,0.01464,-0.0244,-0.08784,-0.122,-0.14152,-0.12688
-0.10248,0.09516,-0.08784,-0.0366,0.01464,-0.05856,0.00488,-0.01952,-0.08784,-0.11712,-0.14152,-0.12688
-0.09272,0.10004,-0.10736,-0.061,-0.01464,-0.03904,0.00976,0,-0.08296,-0.11712,-0.13664,-0.12688
-0.09272,0.10004,-0.10736,-0.061,-0.01464,-0.03904,0.00976,0,-0.08296,-0.11224,-0.13664,-0.12688
-0.10248,0.10248,-0.10248,-0.05124,0,-0.05124,0.01464,0.00488,-0.08296,-0.122,-0.13176,-0.12688
-0.0976,0.10004,-0.10248,-0.05368,-0.00488,-0.04636,0.01952,0.00488,-0.08296,-0.11712,-0.13176,-0.12688
-0.0976,0.0976,-0.0976,-0.0488,0,-0.0488,0.02928,0.01952,-0.07808,-0.11712,-0.13176,-0.13664
-0.0976,0.10248,-0.10736,-0.05856,-0.00976,-0.04392,0.03416,0.02928,-0.06344,-0.11224,-0.13176,-0.13664
-0.09272,0.09516,-0.0976,-0.05124,-0.00488,-0.04392,0.04392,0.01952,-0.05856,-0.0976,-0.122,-0.13176
-0.08296,0.09272,-0.10248,-0.061,-0.01952,-0.03172,0.04392,0.0244,-0.0488,-0.0976,-0.11712,-0.122
-0.08296,0.09028,-0.0976,-0.05612,-0.01464,-0.03416,0.04392,0.01952,-0.05856,-0.10736,-0.122,-0.122
-0.08296,0.0854,-0.08784,-0.04636,-0.00488,-0.03904,0.03416,0.02928,-0.05368,-0.10248,-0.122,-0.122
-0.06832,0.07564,-0.08296,-0.0488,-0.01464,-0.02684,0.0488,0.02928,-0.0488,-0.08784,-0.10736,-0.122
-0.0732,0.07808,-0.08296,-0.04636,-0.00976,-0.03172,0.04392,0.04392,-0.03904,-0.08296,-0.10248,-0.11712
-0.06832,0.07808,-0.08784,-0.05368,-0.01952,-0.0244,0.0488,0.06344,-0.0244,-0.07808,-0.10248,-0.11712
-0.06832,0.08296,-0.0976,-0.06344,-0.02928,-0.01952,0.0488,0.0732,-0.01952,-0.0732,-0.10248,-0.11712
-0.05856,0.07808,-0.0976,-0.06832,-0.03904,-0.00976,0.06344,0.08296,-0.01464,-0.06832,-0.10736,-0.122
-0.0488,0.06588,-0.08296,-0.05856,-0.03416,-0.00732,0.06832,0.0976,0,-0.05856,-0.0976,-0.11224
-0.0488,0.06588,-0.08296,-0.05856,-0.03416,-0.00732,0.06832,0.10736,-0.00488,-0.06344,-0.0976,-0.11712
-0.0488,0.06832,-0.08784,-0.06344,-0.03904,-0.00488,0.07808,0.12688,0.00976,-0.0488,-0.08784,-0.11224
-0.03416,0.06344,-0.09272,-0.07564,-0.05856,0.0122,0.09272,0.1464,0.02928,-0.03416,-0.07808,-0.10248
-0.02928,0.05612,-0.08296,-0.06832,-0.05368,0.0122,0.09272,0.16592,0.0488,-0.0244,-0.07808,-0.08784
-0.01464,0.04392,-0.0732,-0.06588,-0.05856,0.02196,0.0976,0.1952,0.06832,-0.00976,-0.06344,-0.08296
-0.00488,0.0366,-0.06832,-0.06588,-0.06344,0.02928,0.10248,0.2196,0.08296,0.00488,-0.05856,-0.08296
0,0.0366,-0.0732,-0.0732,-0.0732,0.0366,0.10736,0.24888,0.10248,0.01952,-0.04392,-0.07808
0.00976,0.02684,-0.06344,-0.06832,-0.0732,0.04148,0.122,0.27816,0.12688,0.02928,-0.02928,-0.07808
0.0244,0.0122,-0.0488,-0.061,-0.0732,0.0488,0.13176,0.30256,0.1708,0.0488,-0.01952,-0.05856
0.04392,-0.00244,-0.03904,-0.061,-0.08296,0.06344,0.1464,0.35136,0.20008,0.07808,0,-0.04392
0.06344,-0.00732,-0.0488,-0.08052,-0.11224,0.08784,0.16104,0.40504,0.23912,0.10736,0.02928,-0.03416
0.09272,-0.0244,-0.04392,-0.09028,-0.13664,0.11468,0.18544,0.44896,0.27816,0.13176,0.03904,-0.0244
0.11224,-0.04148,-0.02928,-0.0854,-0.14152,0.12688,0.20008,0.47336,0.30744,0.14152,0.05368,-0.0244
0.122,-0.05612,-0.00976,-0.07076,-0.13176,0.12688,0.20984,0.51728,0.33184,0.16592,0.06344,-0.00976
0.14152,-0.06588,-0.00976,-0.08052,-0.15128,0.1464,0.21472,0.55144,0.35624,0.19032,0.06832,0.00488
0.16104,-0.08296,0.00488,-0.07564,-0.15616,0.1586,0.22448,0.5856,0.38552,0.21472,0.08296,0.01464
0.18056,-0.10004,0.01952,-0.07076,-0.16104,0.1708,0.23424,0.61488,0.4148,0.22936,0.11224,0.02928
0.1952,-0.11956,0.04392,-0.05368,-0.15128,0.17324,0.244,0.63928,0.43432,0.24888,0.122,0.04392
0.20496,-0.11956,0.03416,-0.06832,-0.1708,0.18788,0.25864,0.66856,0.4636,0.27328,0.1464,0.05856
0.21472,-0.11468,0.01464,-0.09272,-0.20008,0.2074,0.2684,0.69784,0.48312,0.2928,0.15616,0.06832
0.23912,-0.13664,0.03416,-0.0854,-0.20496,0.22204,0.27816,0.71248,0.47824,0.30744,0.16104,0.0732
0.24888,-0.15128,0.05368,-0.07076,-0.1952,0.22204,0.27816,0.71248,0.488,0.30256,0.1708,0.07808
0.244,-0.14884,0.05368,-0.06832,-0.19032,0.21716,0.27816,0.70272,0.49288,0.3172,0.16592,0.08784
0.24888,-0.15616,0.06344,-0.061,-0.18544,0.21716,0.27328,0.6832,0.48312,0.3172,0.16592,0.0976
0.23912,-0.14884,0.05856,-0.061,-0.18056,0.20984,0.24888,0.66368,0.48312,0.3172,0.18056,0.10248
0.23424,-0.15128,0.06832,-0.0488,-0.16592,0.20008,0.22448,0.61488,0.44896,0.30256,0.18056,0.10248
0.22448,-0.15128,0.07808,-0.03416,-0.1464,0.18544,0.20008,0.57096,0.42456,0.27816,0.17568,0.11712
0.20008,-0.14152,0.08296,-0.01708,-0.11712,0.1586,0.1708,0.50264,0.38064,0.25864,0.16592,0.11224
0.18544,-0.1342,0.08296,-0.00976,-0.10248,0.14396,0.15128,0.42456,0.33184,0.23912,0.15616,0.11224
0.16592,-0.11956,0.0732,-0.00976,-0.09272,0.12932,0.14152,0.366,0.29768,0.20984,0.1464,0.10736
0.13664,-0.0976,0.05856,-0.00976,-0.07808,0.10736,0.10736,0.30744,0.23912,0.17568,0.122,0.08784
0.11224,-0.08296,0.05368,-0.00244,-0.05856,0.0854,0.09272,0.244,0.19032,0.12688,0.08784,0.05856
0.09272,-0.0732,0.05368,0.00732,-0.03904,0.06588,0.06832,0.19032,0.1464,0.10736,0.07808,0.04392
0.0732,-0.06344,0.05368,0.01708,-0.01952,0.04636,0.05368,0.15128,0.11712,0.07808,0.05368,0.0244
0.0488,-0.04636,0.04392,0.01952,-0.00488,0.02684,0.0488,0.11224,0.08784,0.0488,0.02928,0.00488
0.01464,-0.01464,0.01464,0.00732,0,0.00732,0.04392,0.0732,0.04392,0.0244,0.01464,-0.00488
0.00488,0.00244,-0.00976,-0.0122,-0.01464,0.00976,0.03904,0.0488,0.01952,0,0,-0.00976
-0.00488,0.01952,-0.03416,-0.03172,-0.02928,0.0122,0.03416,0.0244,0.00488,-0.00976,-0.00976,-0.01952
-0.01464,0.02196,-0.02928,-0.02196,-0.01464,0,0.0244,0.00976,-0.00488,-0.03416,-0.01952,-0.03904
-0.0244,0.02196,-0.01952,-0.00732,0.00488,-0.01464,0.01952,0,-0.02928,-0.0488,-0.04392,-0.0488
-0.03416,0.02684,-0.01952,-0.00244,0.01464,-0.0244,0.01952,-0.00976,-0.03416,-0.0488,-0.03904,-0.0488
-0.0488,0.03904,-0.02928,-0.00488,0.01952,-0.03416,0.01952,-0.0244,-0.04392,-0.0488,-0.04392,-0.05368
-0.04392,0.0366,-0.02928,-0.00732,0.01464,-0.02928,0.00976,-0.0488,-0.05856,-0.05368,-0.0488,-0.05368
-0.05368,0.04636,-0.03904,-0.0122,0.01464,-0.03416,-0.00488,-0.05368,-0.06344,-0.06344,-0.05368,-0.05368
-0.03904,0.0366,-0.03416,-0.01464,0.00488,-0.02196,0,-0.04392,-0.05856,-0.05856,-0.05368,-0.06344
-0.04392,0.03172,-0.01952,0.00244,0.0244,-0.03416,0.00488,-0.05368,-0.05856,-0.05856,-0.05856,-0.06832
-0.05368,0.04148,-0.02928,-0.00244,0.0244,-0.03904,-0.00976,-0.04392,-0.05368,-0.05856,-0.05368,-0.05856
-0.05368,0.0488,-0.04392,-0.01708,0.00976,-0.03172,-0.00976,-0.04392,-0.05856,-0.06832,-0.05368,-0.06344
-0.05856,0.05856,-0.05856,-0.02928,0,-0.02928,-0.00976,-0.05368,-0.06344,-0.0732,-0.06344,-0.06344
-0.05368,0.0488,-0.04392,-0.01708,0.00976,-0.03172,-0.00976,-0.05856,-0.06832,-0.0732,-0.06832,-0.05856
-0.04392,0.04392,-0.04392,-0.02196,0,-0.02196,-0.00976,-0.05856,-0.06344,-0.06832,-0.05856,-0.06344
-0.0488,0.04392,-0.03904,-0.01464,0.00976,-0.02928,0,-0.05368,-0.06344,-0.06344,-0.05368,-0.06344
-0.05368,0.04636,-0.03904,-0.0122,0.01464,-0.03416,0,-0.04392,-0.05368,-0.06344,-0.06344,-0.06344
-0.05368,0.04636,-0.03904,-0.0122,0.01464,-0.03416,0,-0.0488,-0.05368,-0.06344,-0.06344,-0.06344
-0.05856,0.04392,-0.02928,0,0.02928,-0.04392,0.00488,-0.05856,-0.06344,-0.0732,-0.06832,-0.06344
-0.05856,0.04392,-0.02928,0,0.02928,-0.04392,0.00488,-0.05368,-0.05856,-0.06832,-0.06344,-0.05856
-0.0488,0.0488,-0.0488,-0.0244,0,-0.0244,-0.00488,-0.05856,-0.05856,-0.06344,-0.0488,-0.0488
-0.04392,0.04636,-0.0488,-0.02684,-0.00488,-0.01952,0,-0.05856,-0.05368,-0.05856,-0.04392,-0.03904
-0.04392,0.03416,-0.0244,-0.00244,0.01952,-0.03172,0.00488,-0.0488,-0.04392,-0.05856,-0.05368,-0.05368
-0.0488,0.0488,-0.0488,-0.0244,0,-0.0244,0.00488,-0.0488,-0.04392,-0.0488,-0.04392,-0.05368
-0.04392,0.04148,-0.03904,-0.01708,0.00488,-0.0244,0.00488,-0.03904,-0.04392,-0.05856,-0.0488,-0.06344
-0.0488,0.03904,-0.02928,-0.00488,0.01952,-0.03416,-0.00488,-0.0488,-0.04392,-0.06344,-0.05856,-0.06344
-0.04392,0.03904,-0.03416,-0.0122,0.00976,-0.02684,-0.00976,-0.0488,-0.0488,-0.05856,-0.0732,-0.06832
-0.04392,0.03904,-0.03416,-0.0122,0.00976,-0.02684,-0.00976,-0.0488,-0.0488,-0.05856,-0.06832,-0.06832
-0.03904,0.03416,-0.02928,-0.00976,0.00976,-0.0244,0,-0.04392,-0.03904,-0.05856,-0.06344,-0.05856
-0.03904,0.0366,-0.03416,-0.01464,0.00488,-0.02196,0.00488,-0.04392,-0.03904,-0.05368,-0.06344,-0.05856
-0.04392,0.04148,-0.03904,-0.01708,0.00488,-0.0244,0.00488,-0.03904,-0.03904,-0.04392,-0.05856,-0.05368
-0.04392,0.04148,-0.03904,-0.01708,0.00488,-0.0244,0.01464,-0.0244,-0.03904,-0.04392,-0.0488,-0.04392
-0.05368,0.04636,-0.03904,-0.0122,0.01464,-0.03416,0.01464,-0.03416,-0.03904,-0.05368,-0.04392,-0.04392
-0.05368,0.04392,-0.03416,-0.00732,0.01952,-0.0366,0.00488,-0.04392,-0.03904,-0.0488,-0.04392,-0.0488
-0.0488,0.03416,-0.01952,0.00488,0.02928,-0.03904,-0.00976,-0.04392,-0.03416,-0.04392,-0.0488,-0.05368
-0.03416,0.0366,-0.03904,-0.02196,-0.00488,-0.01464,-0.00976,-0.04392,-0.03416,-0.04392,-0.04392,-0.0488
-0.02928,0.0366,-0.04392,-0.02928,-0.01464,-0.00732,-0.00488,-0.03416,-0.04392,-0.05368,-0.05368,-0.05856
-0.02928,0.0366,-0.04392,-0.02928,-0.01464,-0.00732,0.00488,-0.03416,-0.03904,-0.05368,-0.05368,-0.05368
-0.04392,0.04148,-0.03904,-0.01708,0.00488,-0.0244,0.01464,-0.04392,-0.03904,-0.05368,-0.05368,-0.0488
-0.04392,0.04148,-0.03904,-0.01708,0.00488,-0.0244,0.01464,-0.04392,-0.03904,-0.0488,-0.05368,-0.0488
-0.0488,0.04148,-0.03416,-0.00976,0.01464,-0.03172,0.01464,-0.03416,-0.04392,-0.05368,-0.04392,-0.0488
-0.04392,0.03416,-0.0244,-0.00244,0.01952,-0.03172,0.01464,-0.03904,-0.04392,-0.05368,-0.0488,-0.0488
-0.03904,0.02196,-0.00488,0.01464,0.03416,-0.0366,0,-0.0488,-0.05856,-0.06344,-0.04392,-0.0488
-0.03904,0.0366,-0.03416,-0.01464,0.00488,-0.02196,0.00488,-0.0488,-0.05856,-0.06344,-0.04392,-0.0488
-0.03904,0.03904,-0.03904,-0.01952,0,-0.01952,0,-0.05368,-0.05856,-0.06344,-0.05368,-0.05368
-0.03904,0.03904,-0.03904,-0.01952,0,-0.01952,0,-0.05856,-0.05856,-0.06344,-0.05856,-0.05368
-0.02928,0.02928,-0.02928,-0.01464,0,-0.01464,-0.00976,-0.05856,-0.05368,-0.0732,-0.05856,-0.05368
-0.02928,0.03416,-0.03904,-0.0244,-0.00976,-0.00976,-0.00488,-0.05368,-0.05368,-0.06344,-0.05368,-0.0488
-0.03416,0.02928,-0.0244,-0.00732,0.00976,-0.02196,-0.00976,-0.05856,-0.05856,-0.06832,-0.05856,-0.03904
-0.03904,0.03172,-0.0244,-0.00488,0.01464,-0.02684,-0.00976,-0.05856,-0.06344,-0.0732,-0.05856,-0.0488
-0.0488,0.04392,-0.03904,-0.01464,0.00976,-0.02928,-0.00488,-0.0488,-0.0488,-0.06344,-0.0488,-0.0488
-0.05368,0.0488,-0.04392,-0.01708,0.00976,-0.03172,0.00488,-0.05856,-0.0488,-0.06344,-0.05368,-0.0488
-0.03904,0.03904,-0.03904,-0.01952,0,-0.01952,0,-0.0732,-0.06832,-0.07808,-0.06832,-0.05368
-0.03904,0.03904,-0.03904,-0.01952,0,-0.01952,-0.00976,-0.0732,-0.06832,-0.07808,-0.06832,-0.05368
-0.03904,0.03172,-0.0244,-0.00488,0.01464,-0.02684,-0.00488,-0.06832,-0.06832,-0.07808,-0.06344,-0.06344
-0.03904,0.0366,-0.03416,-0.01464,0.00488,-0.02196,0,-0.06832,-0.06832,-0.08296,-0.05856,-0.06344
-0.03904,0.0366,-0.03416,-0.01464,0.00488,-0.02196,0.00976,-0.05856,-0.06344,-0.08296,-0.05368,-0.05368
-0.0488,0.04636,-0.04392,-0.01952,0.00488,-0.02684,0.00976,-0.06344,-0.06344,-0.08784,-0.06344,-0.05368
-0.05856,0.05368,-0.0488,-0.01952,0.00976,-0.03416,0,-0.06832,-0.0732,-0.08296,-0.0732,-0.06344
-0.05368,0.05124,-0.0488,-0.02196,0.00488,-0.02928,-0.00488,-0.06832,-0.0732,-0.08784,-0.0732,-0.06344
-0.05368,0.0488,-0.04392,-0.01708,0.00976,-0.03172,-0.01464,-0.0732,-0.08296,-0.09272,-0.0732,-0.06344
-0.05368,0.04636,-0.03904,-0.0122,0.01464,-0.03416,-0.01952,-0.09272,-0.09272,-0.10736,-0.0732,-0.0732
-0.0488,0.04392,-0.03904,-0.01464,0.00976,-0.02928,-0.01952,-0.08296,-0.07808,-0.08784,-0.0732,-0.06344
-0.04392,0.04148,-0.03904,-0.01708,0.00488,-0.0244,-0.01464,-0.07808,-0.07808,-0.09272,-0.0732,-0.05856
-0.04392,0.04392,-0.04392,-0.02196,0,-0.02196,-0.00488,-0.07808,-0.0732,-0.09272,-0.06344,-0.05856
-0.0488,0.04636,-0.04392,-0.01952,0.00488,-0.02684,-0.00976,-0.08296,-0.08296,-0.0976,-0.06832,-0.05856
-0.05368,0.05368,-0.05368,-0.02684,0,-0.02684,-0.01952,-0.08784,-0.08296,-0.10736,-0.06832,-0.06832
-0.05368,0.0488,-0.04392,-0.01708,0.00976,-0.03172,-0.01952,-0.08784,-0.08296,-0.10248,-0.0732,-0.06344
-0.05856,0.06588,-0.0732,-0.04392,-0.01464,-0.02196,-0.00976,-0.07808,-0.0732,-0.0976,-0.0732,-0.06344
-0.05856,0.061,-0.06344,-0.03416,-0.00488,-0.02684,-0.00976,-0.07808,-0.07808,-0.09272,-0.07808,-0.06832
-0.05856,0.061,-0.06344,-0.03416,-0.00488,-0.02684,-0.00976,-0.06832,-0.09272,-0.09272,-0.0732,-0.06832
-0.05856,0.061,-0.06344,-0.03416,-0.00488,-0.02684,-0.00976,-0.06832,-0.08784,-0.09272,-0.0732,-0.06344
-0.05856,0.05856,-0.05856,-0.02928,0,-0.02928,-0.0244,-0.08784,-0.0976,-0.10248,-0.08296,-0.07808
-0.04392,0.04636,-0.0488,-0.02684,-0.00488,-0.01952,-0.01952,-0.0976,-0.0976,-0.0976,-0.08296,-0.07808
-0.04392,0.03904,-0.03416,-0.0122,0.00976,-0.02684,-0.02928,-0.10248,-0.0976,-0.09272,-0.07808,-0.06832
-0.04392,0.04636,-0.0488,-0.02684,-0.00488,-0.01952,-0.02928,-0.0976,-0.10248,-0.09272,-0.0732,-0.06344
-0.05368,0.0488,-0.04392,-0.01708,0.00976,-0.03172,-0.0244,-0.08784,-0.09272,-0.09272,-0.0732,-0.06344
-0.06344,0.05856,-0.05368,-0.02196,0.00976,-0.0366,-0.01952,-0.08784,-0.09272,-0.09272,-0.07808,-0.0732
-0.06344,0.061,-0.05856,-0.02684,0.00488,-0.03416,-0.0244,-0.09272,-0.08784,-0.10736,-0.08784,-0.07808
-0.05856,0.05368,-0.0488,-0.01952,0.00976,-0.03416,-0.01952,-0.0976,-0.09272,-0.10248,-0.08296,-0.07808
-0.05368,0.05124,-0.0488,-0.02196,0.00488,-0.02928,-0.01464,-0.08296,-0.09272,-0.09272,-0.08784,-0.06832
-0.04392,0.04148,-0.03904,-0.01708,0.00488,-0.0244,-0.01464,-0.08296,-0.08784,-0.09272,-0.08784,-0.06832
-0.04392,0.05368,-0.06344,-0.04148,-0.01952,-0.0122,-0.00488,-0.07808,-0.09272,-0.09272,-0.08296,-0.0732
-0.05368,0.04636,-0.03904,-0.0122,0.01464,-0.03416,0,-0.07808,-0.09272,-0.09272,-0.08296,-0.06832
-0.0488,0.05856,-0.06832,-0.04392,-0.01952,-0.01464,-0.00976,-0.09272,-0.10248,-0.0976,-0.08296,-0.06832
-0.0488,0.05612,-0.06344,-0.03904,-0.01464,-0.01708,-0.01464,-0.09272,-0.09272,-0.0976,-0.07808,-0.06832
-0.05856,0.05856,-0.05856,-0.02928,0,-0.02928,-0.00976,-0.09272,-0.09272,-0.0976,-0.09272,-0.0732
-0.05368,0.05856,-0.06344,-0.0366,-0.00976,-0.02196,-0.01464,-0.09272,-0.09272,-0.0976,-0.08784,-0.06832
-0.06344,0.061,-0.05856,-0.02684,0.00488,-0.03416,-0.0244,-0.08296,-0.09272,-0.09272,-0.08784,-0.06832
-0.06344,0.05612,-0.0488,-0.01708,0.01464,-0.03904,-0.01952,-0.08296,-0.08784,-0.09272,-0.08784,-0.06832
-0.05368,0.05124,-0.0488,-0.02196,0.00488,-0.02928,-0.0244,-0.09272,-0.10736,-0.10248,-0.08784,-0.07808
-0.05368,0.05124,-0.0488,-0.02196,0.00488,-0.02928,-0.0244,-0.09272,-0.10736,-0.10736,-0.08784,-0.07808
-0.0488,0.05368,-0.05856,-0.03416,-0.00976,-0.01952,-0.00976,-0.08296,-0.10248,-0.11224,-0.08296,-0.06832
-0.04392,0.05124,-0.05856,-0.0366,-0.01464,-0.01464,0,-0.06832,-0.09272,-0.0976,-0.0732,-0.06832
-0.06344,0.061,-0.05856,-0.02684,0.00488,-0.03416,0,-0.06832,-0.09272,-0.10248,-0.08296,-0.07808
-0.06344,0.05612,-0.0488,-0.01708,0.01464,-0.03904,0,-0.07808,-0.09272,-0.10736,-0.08296,-0.07808
-0.06832,0.061,-0.05368,-0.01952,0.01464,-0.04148,-0.00976,-0.0732,-0.08784,-0.0976,-0.09272,-0.0732
-0.06344,0.05856,-0.05368,-0.02196,0.00976,-0.0366,-0.00976,-0.07808,-0.08784,-0.0976,-0.09272,-0.0732
-0.06832,0.06588,-0.06344,-0.02928,0.00488,-0.0366,-0.01952,-0.08296,-0.08784,-0.11224,-0.08784,-0.07808
-0.06344,0.06344,-0.06344,-0.03172,0,-0.03172,-0.01952,-0.09272,-0.10248,-0.11224,-0.08784,-0.07808
-0.02928,0.0244,-0.01952,-0.00488,0.00976,-0.01952,-0.00976,-0.0732,-0.08784,-0.09272,-0.06832,-0.05856
-0.05368,0.04636,-0.03904,-0.0122,0.01464,-0.03416,-0.00976,-0.08296,-0.0976,-0.0976,-0.08784,-0.0732
-0.0488,0.05856,-0.06832,-0.04392,-0.01952,-0.01464,0,-0.08784,-0.0976,-0.08784,-0.07808,-0.05856
-0.0488,0.05368,-0.05856,-0.03416,-0.00976,-0.01952,-0.00976,-0.0976,-0.0976,-0.0976,-0.07808,-0.06832
-0.0488,0.0488,-0.0488,-0.0244,0,-0.0244,-0.01952,-0.0976,-0.0976,-0.0976,-0.07808,-0.06832
-0.05856,0.05856,-0.05856,-0.02928,0,-0.02928,-0.01952,-0.08784,-0.0976,-0.10248,-0.08296,-0.06832
-0.05856,0.05368,-0.0488,-0.01952,0.00976,-0.03416,-0.01952,-0.0732,-0.0976,-0.10736,-0.08784,-0.06832
-0.0488,0.05124,-0.05368,-0.02928,-0.00488,-0.02196,0,-0.07808,-0.0976,-0.0976,-0.08784,-0.07808
-0.0488,0.04636,-0.04392,-0.01952,0.00488,-0.02684,0.00976,-0.06832,-0.08296,-0.09272,-0.0732,-0.06832
-0.02928,0.01952,-0.00976,0.00488,0.01952,-0.0244,0.01952,-0.05368,-0.0732,-0.0732,-0.06344,-0.05368
-0.03416,0.01708,0,0.01708,0.03416,-0.03416,0.03416,-0.03416,-0.05856,-0.06344,-0.0488,-0.04392
-0.03904,0.01708,0.00488,0.0244,0.04392,-0.04148,0.04392,-0.03416,-0.0488,-0.05368,-0.04392,-0.03904
-0.03904,0.01952,0,0.01952,0.03904,-0.03904,0.05856,-0.02928,-0.0488,-0.0488,-0.03904,-0.03416
-0.02928,0.00488,0.01952,0.03416,0.0488,-0.03904,0.06832,-0.03904,-0.05368,-0.05856,-0.0488,-0.03904
-0.02928,0,0.02928,0.04392,0.05856,-0.04392,0.07808,-0.0244,-0.04392,-0.06344,-0.04392,-0.04392
-0.02928,0.00244,0.0244,0.03904,0.05368,-0.04148,0.08296,-0.00976,-0.03416,-0.05368,-0.04392,-0.03904
-0.01952,-0.00488,0.02928,0.03904,0.0488,-0.03416,0.06344,-0.00976,-0.04392,-0.05368,-0.04392,-0.04392
-0.01952,0.00488,0.00976,0.01952,0.02928,-0.0244,0.06344,-0.01952,-0.03904,-0.05368,-0.04392,-0.04392
-0.01464,0.00732,0,0.00732,0.01464,-0.01464,0.05856,-0.01464,-0.03416,-0.0488,-0.03904,-0.03904
0.00488,-0.00732,0.00976,0.00732,0.00488,0,0.01464,-0.01952,-0.04392,-0.0488,-0.03416,-0.02928
0.02928,-0.0244,0.01952,0.00488,-0.00976,0.01952,-0.00488,-0.02928,-0.03904,-0.04392,-0.02928,-0.01952
0.03416,-0.02684,0.01952,0.00244,-0.01464,0.0244,-0.03416,-0.05368,-0.05368,-0.04392,-0.01952,-0.00488
0.03416,-0.02928,0.0244,0.00732,-0.00976,0.02196,-0.05368,-0.07808,-0.07808,-0.0732,-0.03904,-0.01464
0.03416,-0.01464,-0.00488,-0.02196,-0.03904,0.0366,-0.06832,-0.11224,-0.10736,-0.0976,-0.06344,-0.03904
0.01464,-0.00488,-0.00488,-0.0122,-0.01952,0.01708,-0.06344,-0.11712,-0.122,-0.10736,-0.06832,-0.0488
-0.00488,0.01952,-0.03416,-0.03172,-0.02928,0.0122,-0.06344,-0.13176,-0.13176,-0.11712,-0.07808,-0.04392
-0.00488,0.03172,-0.05856,-0.05612,-0.05368,0.0244,-0.06344,-0.13664,-0.14152,-0.12688,-0.07808,-0.0488
0.00488,0.03416,-0.0732,-0.07564,-0.07808,0.04148,-0.05856,-0.122,-0.13176,-0.122,-0.08784,-0.05368
-0.00976,0.04148,-0.0732,-0.06832,-0.06344,0.02684,-0.05368,-0.13176,-0.13176,-0.11712,-0.09272,-0.05856
0,0.02684,-0.05368,-0.05368,-0.05368,0.02684,-0.06344,-0.14152,-0.14152,-0.13176,-0.0976,-0.0732
0.00488,0.0122,-0.02928,-0.03172,-0.03416,0.01952,-0.06832,-0.13176,-0.13176,-0.12688,-0.09272,-0.07808
-0.00976,0.02928,-0.0488,-0.04392,-0.03904,0.01464,-0.04392,-0.10736,-0.122,-0.11224,-0.08296,-0.06832
-0.04392,0.061,-0.07808,-0.05612,-0.03416,-0.00488,-0.04392,-0.10736,-0.122,-0.10248,-0.08784,-0.06344
-0.06344,0.07564,-0.08784,-0.05612,-0.0244,-0.01952,-0.03904,-0.11224,-0.13176,-0.122,-0.10248,-0.07808
-0.07808,0.08296,-0.08784,-0.0488,-0.00976,-0.03416,-0.04392,-0.13664,-0.15616,-0.15128,-0.122,-0.0976
-0.08296,0.09516,-0.10736,-0.06588,-0.0244,-0.02928,-0.03904,-0.13664,-0.16592,-0.16592,-0.13664,-0.10736
-0.08784,0.10248,-0.11712,-0.0732,-0.02928,-0.02928,-0.02928,-0.14152,-0.1708,-0.1708,-0.14152,-0.11712
-0.09272,0.10736,-0.122,-0.07564,-0.02928,-0.03172,-0.03904,-0.14152,-0.16592,-0.15616,-0.13176,-0.11224
-0.08784,0.10492,-0.122,-0.07808,-0.03416,-0.02684,-0.02928,-0.12688,-0.15616,-0.15128,-0.11712,-0.11224
-0.07808,0.09272,-0.10736,-0.06832,-0.02928,-0.0244,-0.02928,-0.12688,-0.16592,-0.16104,-0.13176,-0.11224
-0.08784,0.09516,-0.10248,-0.05856,-0.01464,-0.0366,-0.02928,-0.12688,-0.16592,-0.15616,-0.13664,-0.11224
-0.09272,0.10248,-0.11224,-0.06588,-0.01952,-0.0366,-0.01464,-0.11224,-0.1464,-0.1464,-0.13176,-0.10736
-0.09272,0.10492,-0.11712,-0.07076,-0.0244,-0.03416,-0.01464,-0.11224,-0.15128,-0.1464,-0.13176,-0.11224
-0.08296,0.07808,-0.0732,-0.03172,0.00976,-0.04636,-0.02928,-0.13664,-0.1708,-0.16592,-0.15128,-0.12688
-0.09272,0.11956,-0.1464,-0.10004,-0.05368,-0.01952,0.04392,-0.05368,-0.1464,-0.18544,-0.19032,-0.16592
-0.10248,0.15372,-0.20496,-0.15372,-0.10248,0,0.15616,0.0976,-0.06344,-0.1464,-0.1952,-0.20008
-0.06832,0.1098,-0.15128,-0.11712,-0.08296,0.00732,0.25864,0.25864,0.06344,-0.06344,-0.14152,-0.17568
-0.0244,0.07076,-0.11712,-0.10492,-0.09272,0.03416,0.37576,0.48312,0.2684,0.12688,-0.0244,-0.09272
0.13176,-0.0488,-0.03416,-0.10004,-0.16592,0.14884,0.47824,0.7564,0.53192,0.35136,0.16592,0.05856
0.35136,-0.20252,0.05368,-0.122,-0.29768,0.32452,0.366,0.77104,0.71248,0.59048,0.4148,0.27328
0.62952,-0.42944,0.22936,-0.0854,-0.40016,0.51484,0.23424,0.7564,0.96624,0.9272,0.77104,0.58072
0.87352,-0.71004,0.54656,0.1098,-0.32696,0.60024,0.06344,0.61976,1.20048,1.35664,1.21512,0.98576
1.03456,-0.95892,0.88328,0.366,-0.15128,0.59292,-0.24888,0.22936,1.23464,1.62504,1.58112,1.35664
1.01992,-1.07116,1.1224,0.61244,0.10248,0.45872,-0.40504,-0.09272,1.20536,1.79096,1.86416,1.62504
0.74176,-0.96136,1.18096,0.81008,0.4392,0.15128,-0.4392,-0.33672,1.1712,1.8544,1.95688,1.72264
0.49776,-0.80032,1.10288,0.854,0.60512,-0.05368,-0.4392,-0.5124,0.89792,1.5616,1.708,1.57136
0.24888,-0.56608,0.88328,0.75884,0.6344,-0.19276,-0.44896,-0.7808,0.31232,0.8784,1.11264,1.12728
0.0244,-0.33184,0.63928,0.62708,0.61488,-0.29524,-0.46848,-1.01992,-0.22448,0.26352,0.57096,0.69296
-0.16104,-0.16592,0.49288,0.5734,0.65392,-0.40748,-0.45384,-1.17608,-0.61,-0.1952,0.16104,0.35624
-0.18544,-0.04636,0.27816,0.37088,0.4636,-0.32452,-0.43432,-1.06872,-0.67832,-0.36112,-0.02928,0.16104
-0.2196,0.02684,0.16592,0.27572,0.38552,-0.30256,-0.50752,-0.99552,-0.69296,-0.44408,-0.16592,0.03416
-0.1708,0.02684,0.11712,0.20252,0.28792,-0.22936,-0.5124,-0.82472,-0.62464,-0.40992,-0.1708,-0.00976
-0.15616,0.03904,0.07808,0.15616,0.23424,-0.1952,-0.45872,-0.66856,-0.50752,-0.36112,-0.1708,-0.04392
-0.1464,0.07076,0.00488,0.07808,0.15128,-0.14884,-0.34648,-0.50264,-0.36112,-0.25864,-0.13176,-0.03416
-0.12688,0.03172,0.06344,0.12688,0.19032,-0.1586,-0.244,-0.37576,-0.27816,-0.20496,-0.13664,-0.06832
-0.13176,0.07076,-0.00976,0.05612,0.122,-0.12688,-0.10736,-0.22448,-0.22936,-0.1708,-0.11224,-0.06832
-0.12688,0.06588,-0.00488,0.05856,0.122,-0.12444,-0.08296,-0.18544,-0.20496,-0.18544,-0.122,-0.08784
-0.1464,0.12444,-0.10248,-0.02928,0.04392,-0.09516,-0.04392,-0.13664,-0.15128,-0.14152,-0.13176,-0.07808
-0.122,0.08784,-0.05368,0.00732,0.06832,-0.09516,-0.01952,-0.10248,-0.122,-0.13664,-0.13176,-0.10736
-0.11224,0.08784,-0.06344,-0.00732,0.0488,-0.08052,-0.00976,-0.08296,-0.12688,-0.1464,-0.13664,-0.11712
-0.10736,0.09028,-0.0732,-0.01952,0.03416,-0.07076,0.00488,-0.05368,-0.13664,-0.15128,-0.15128,-0.13176
-0.0976,0.09028,-0.08296,-0.03416,0.01464,-0.05612,0.00488,-0.0488,-0.122,-0.1464,-0.15128,-0.122
-0.0976,0.09272,-0.08784,-0.03904,0.00976,-0.05368,0.00976,-0.04392,-0.10248,-0.13176,-0.15128,-0.122
-0.0976,0.10004,-0.10248,-0.05368,-0.00488,-0.04636,0.03416,-0.03904,-0.10248,-0.13176,-0.14152,-0.122
-0.0976,0.0976,-0.0976,-0.0488,0,-0.0488,0.04392,-0.03416,-0.11224,-0.13664,-0.14152,-0.13176
-0.10248,0.1098,-0.11712,-0.06588,-0.01464,-0.04392,0.03416,-0.02928,-0.10736,-0.13664,-0.14152,-0.12688
-0.10248,0.10736,-0.11224,-0.061,-0.00976,-0.04636,0.02928,-0.02928,-0.10248,-0.13176,-0.14152,-0.12688
-0.09272,0.10004,-0.10736,-0.061,-0.01464,-0.03904,0.02928,-0.01952,-0.0976,-0.13664,-0.14152,-0.12688
-0.09272,0.10004,-0.10736,-0.061,-0.01464,-0.03904,0.03416,-0.01464,-0.0976,-0.13664,-0.14152,-0.12688
-0.08296,0.10248,-0.122,-0.08052,-0.03904,-0.02196,0.03904,0,-0.10248,-0.12688,-0.13664,-0.11712
-0.08296,0.0976,-0.11224,-0.07076,-0.02928,-0.02684,0.03904,0,-0.0976,-0.122,-0.13176,-0.11712
-0.08784,0.09516,-0.10248,-0.05856,-0.01464,-0.0366,0.03904,-0.00488,-0.08296,-0.11712,-0.13176,-0.12688
-0.08296,0.09028,-0.0976,-0.05612,-0.01464,-0.03416,0.03416,-0.00488,-0.08296,-0.11712,-0.13176,-0.12688
-0.07808,0.09272,-0.10736,-0.06832,-0.02928,-0.0244,0.04392,0,-0.08296,-0.11224,-0.13176,-0.11712
-0.07808,0.0976,-0.11712,-0.07808,-0.03904,-0.01952,0.04392,0.00976,-0.07808,-0.11224,-0.13176,-0.11712
-0.08784,0.09272,-0.0976,-0.05368,-0.00976,-0.03904,0.05368,0.00976,-0.06832,-0.10736,-0.12688,-0.12688
-0.0976,0.10004,-0.10248,-0.05368,-0.00488,-0.04636,0.05856,0.01464,-0.06832,-0.10736,-0.12688,-0.122
-0.08296,0.0976,-0.11224,-0.07076,-0.02928,-0.02684,0.0488,0.02928,-0.06344,-0.10248,-0.13176,-0.11224
-0.06832,0.09516,-0.122,-0.08784,-0.05368,-0.00732,0.05856,0.03904,-0.05856,-0.0976,-0.12688,-0.11224
-0.08296,0.0976,-0.11224,-0.07076,-0.02928,-0.02684,0.05368,0.03904,-0.06832,-0.10248,-0.12688,-0.10736
-0.07808,0.09516,-0.11224,-0.0732,-0.03416,-0.02196,0.05856,0.0488,-0.05368,-0.10248,-0.122,-0.10736
-0.06832,0.08296,-0.0976,-0.06344,-0.02928,-0.01952,0.0488,0.05856,-0.04392,-0.08296,-0.122,-0.0976
-0.0488,0.07808,-0.10736,-0.08296,-0.05856,0.00488,0.0488,0.06832,-0.02928,-0.08296,-0.122,-0.0976
-0.0488,0.08052,-0.11224,-0.08784,-0.06344,0.00732,0.06344,0.07808,-0.01952,-0.05856,-0.0976,-0.08296
-0.0488,0.0732,-0.0976,-0.0732,-0.0488,0,0.06832,0.09272,-0.00488,-0.05856,-0.08784,-0.08296
-0.03904,0.07076,-0.10248,-0.08296,-0.06344,0.0122,0.07808,0.11224,0.01464,-0.05856,-0.09272,-0.08784
-0.02928,0.07564,-0.122,-0.10736,-0.09272,0.03172,0.09272,0.13664,0.02928,-0.0488,-0.08784,-0.08296
-0.03416,0.07076,-0.10736,-0.09028,-0.0732,0.01952,0.09272,0.1464,0.02928,-0.0488,-0.08784,-0.08784
-0.02928,0.061,-0.09272,-0.07808,-0.06344,0.01708,0.10248,0.16592,0.03904,-0.03904,-0.08784,-0.07808
-0.00976,0.05124,-0.09272,-0.08784,-0.08296,0.0366,0.10248,0.19032,0.0732,-0.01952,-0.07808,-0.08296
0,0.04392,-0.08784,-0.08784,-0.08784,0.04392,0.11224,0.2196,0.09272,-0.00976,-0.06832,-0.07808
0.0244,0.03416,-0.09272,-0.10492,-0.11712,0.07076,0.13176,0.2684,0.13176,0.0244,-0.03416,-0.05856
0.03416,0.02196,-0.07808,-0.09516,-0.11224,0.0732,0.13176,0.2928,0.15128,0.04392,-0.01952,-0.04392
0.04392,0.0122,-0.06832,-0.09028,-0.11224,0.07808,0.1464,0.33672,0.17568,0.0732,-0.00976,-0.02928
0.05856,0,-0.05856,-0.08784,-0.11712,0.08784,0.15128,0.366,0.20008,0.07808,-0.00488,-0.0244
0.06832,-0.00732,-0.05368,-0.08784,-0.122,0.09516,0.16592,0.39528,0.22936,0.10248,0.00488,-0.01952
0.08784,-0.02928,-0.02928,-0.0732,-0.11712,0.10248,0.17568,0.43432,0.25864,0.122,0.01464,-0.01952
0.11712,-0.04636,-0.0244,-0.08296,-0.14152,0.12932,0.18544,0.47336,0.29768,0.1464,0.02928,0.00488
0.13664,-0.05856,-0.01952,-0.08784,-0.15616,0.1464,0.1952,0.5124,0.3416,0.1708,0.0488,0.01952
0.15128,-0.06588,-0.01952,-0.09516,-0.1708,0.16104,0.2196,0.55144,0.37088,0.20984,0.0732,0.02928
0.1708,-0.08052,-0.00976,-0.09516,-0.18056,0.17568,0.22936,0.58072,0.39528,0.23424,0.08784,0.04392
0.20008,-0.10248,0.00488,-0.09516,-0.1952,0.19764,0.22448,0.60512,0.4148,0.23912,0.11224,0.0488
0.20984,-0.11224,0.01464,-0.09028,-0.1952,0.20252,0.2196,0.62952,0.4392,0.25864,0.11712,0.05856
0.21472,-0.11956,0.0244,-0.08296,-0.19032,0.20252,0.244,0.6588,0.4636,0.27816,0.13664,0.08296
0.21472,-0.122,0.02928,-0.07808,-0.18544,0.20008,0.25864,0.6832,0.47336,0.30744,0.15128,0.09272
0.22936,-0.12932,0.02928,-0.0854,-0.20008,0.21472,0.24888,0.6832,0.488,0.30256,0.16592,0.10248
0.244,-0.13176,0.01952,-0.10248,-0.22448,0.23424,0.24888,0.68808,0.49288,0.31232,0.17568,0.11224
0.24888,-0.1464,0.04392,-0.08052,-0.20496,0.22692,0.244,0.67832,0.488,0.3172,0.18544,0.13176
0.24888,-0.1464,0.04392,-0.08052,-0.20496,0.22692,0.244,0.65392,0.48312,0.3172,0.20008,0.14152
0.23424,-0.14396,0.05368,-0.06344,-0.18056,0.2074,0.22448,0.61,0.45872,0.30744,0.19032,0.13176
0.22936,-0.1464,0.06344,-0.05124,-0.16592,0.19764,0.20008,0.55632,0.42944,0.2928,0.18544,0.13176
0.22448,-0.14884,0.0732,-0.03904,-0.15128,0.18788,0.1708,0.49776,0.38552,0.2684,0.1708,0.13664
0.20008,-0.13908,0.07808,-0.02196,-0.122,0.16104,0.14152,0.43432,0.33672,0.244,0.16104,0.12688
0.1708,-0.122,0.0732,-0.0122,-0.0976,0.1342,0.12688,0.37576,0.28792,0.20496,0.1464,0.11224
0.13664,-0.09272,0.0488,-0.01952,-0.08784,0.11224,0.11224,0.3172,0.24888,0.17568,0.13176,0.09272
0.11712,-0.08296,0.0488,-0.00976,-0.06832,0.09272,0.09272,0.27328,0.20008,0.1464,0.11224,0.08296
0.08784,-0.06344,0.03904,-0.00488,-0.0488,0.06832,0.07808,0.21472,0.15616,0.11224,0.08296,0.06344
0.05856,-0.04392,0.02928,0,-0.02928,0.04392,0.06832,0.1708,0.122,0.09272,0.06832,0.05368
0.04392,-0.02684,0.00976,-0.0122,-0.03416,0.03904,0.06344,0.13176,0.09272,0.06344,0.04392,0.03416
0.0244,-0.00976,-0.00488,-0.01708,-0.02928,0.02684,0.04392,0.10248,0.06344,0.03416,0.03904,0.02928
0.01464,0.00244,-0.01952,-0.02684,-0.03416,0.0244,0.03416,0.06832,0.02928,0.00976,0.0244,0.01952
0,0.01464,-0.02928,-0.02928,-0.02928,0.01464,0.02928,0.03416,0.01464,0.00976,0.00488,-0.00488
-0.00976,0.01952,-0.02928,-0.0244,-0.01952,0.00488,0.01952,0.01464,0,-0.00976,-0.01464,-0.01952
-0.02928,0.03172,-0.03416,-0.01952,-0.00488,-0.0122,0.0244,0.00976,-0.01952,-0.03416,-0.01464,-0.0244
-0.03904,0.0366,-0.03416,-0.01464,0.00488,-0.02196,0.01952,-0.01464,-0.03416,-0.03904,-0.02928,-0.02928
-0.04392,0.04636,-0.0488,-0.02684,-0.00488,-0.01952,0.01952,-0.0244,-0.04392,-0.0488,-0.04392,-0.03904
-0.04392,0.04392,-0.04392,-0.02196,0,-0.02196,0.01464,-0.02928,-0.05368,-0.0488,-0.0488,-0.0488
-0.05368,0.04392,-0.03416,-0.00732,0.01952,-0.0366,0.00488,-0.0488,-0.05856,-0.06344,-0.0488,-0.04392
-0.0488,0.0366,-0.0244,0,0.0244,-0.0366,0,-0.05368,-0.06832,-0.07808,-0.05368,-0.04392
-0.04392,0.04148,-0.03904,-0.01708,0.00488,-0.0244,0.01464,-0.04392,-0.05856,-0.06832,-0.04392,-0.03416
-0.03416,0.03416,-0.03416,-0.01708,0,-0.01708,0.00488,-0.04392,-0.05368,-0.05856,-0.04392,-0.02928
-0.04392,0.04636,-0.0488,-0.02684,-0.00488,-0.01952,-0.00976,-0.04392,-0.06344,-0.06832,-0.04392,-0.03904
-0.0488,0.04636,-0.04392,-0.01952,0.00488,-0.02684,-0.00488,-0.04392,-0.07808,-0.07808,-0.04392,-0.04392
-0.04392,0.05368,-0.06344,-0.04148,-0.01952,-0.0122,0.00976,-0.04392,-0.06344,-0.08296,-0.05368,-0.03904
-0.04392,0.05124,-0.05856,-0.0366,-0.01464,-0.01464,0.00488,-0.0488,-0.05856,-0.08784,-0.05856,-0.04392
-0.05856,0.05612,-0.05368,-0.0244,0.00488,-0.03172,0.00488,-0.03904,-0.06344,-0.0732,-0.06832,-0.05368
-0.06344,0.05612,-0.0488,-0.01708,0.01464,-0.03904,0.00976,-0.03416,-0.06344,-0.0732,-0.06344,-0.05368
-0.05368,0.05612,-0.05856,-0.03172,-0.00488,-0.0244,0.00976,-0.03416,-0.05368,-0.06344,-0.05368,-0.04392
-0.05368,0.061,-0.06832,-0.04148,-0.01464,-0.01952,0.00976,-0.03904,-0.05368,-0.06344,-0.0488,-0.04392
-0.03904,0.0488,-0.05856,-0.03904,-0.01952,-0.00976,0.00488,-0.0488,-0.05368,-0.06344,-0.03416,-0.03904
-0.03904,0.0488,-0.05856,-0.03904,-0.01952,-0.00976,-0.00488,-0.04392,-0.0488,-0.05856,-0.03416,-0.03904
-0.04392,0.0488,-0.05368,-0.03172,-0.00976,-0.01708,0.00976,-0.0488,-0.04392,-0.05856,-0.03416,-0.03904
-0.05368,0.03416,-0.01464,0.0122,0.03904,-0.04636,0.00976,-0.05856,-0.04392,-0.07808,-0.05368,-0.04392
-0.0488,0.04636,-0.04392,-0.01952,0.00488,-0.02684,-0.00488,-0.03904,-0.04392,-0.0732,-0.0488,-0.04392
-0.04392,0.04636,-0.0488,-0.02684,-0.00488,-0.01952,0,-0.03904,-0.03904,-0.06832,-0.04392,-0.04392
