i,aVR,ii,aVF,iii,aVL,V1,V2,V3,V4,V5,V6
-0.0732,0.14396,-0.21472,-0.17812,-0.14152,0.03416,0.09272,0.00976,-0.11712,-0.15128,-0.1464,-0.11224
-0.14152,0.24156,-0.3416,-0.27084,-0.20008,0.02928,0.24888,0.11712,-0.12688,-0.22936,-0.2684,-0.23424
-0.18544,0.29524,-0.40504,-0.31232,-0.2196,0.01708,0.35624,0.2196,-0.09272,-0.25376,-0.33184,-0.31232
-0.1952,0.29036,-0.38552,-0.28792,-0.19032,-0.00244,0.366,0.27816,-0.00488,-0.1952,-0.30744,-0.32208
-0.16592,0.24888,-0.33184,-0.24888,-0.16592,0,0.33672,0.29768,0.10248,-0.09272,-0.23424,-0.28304
-0.07808,0.16348,-0.24888,-0.20984,-0.1708,0.04636,0.24888,0.3172,0.18544,0.0244,-0.10248,-0.17568
0.04392,-0.01464,-0.01464,-0.0366,-0.05856,0.05124,0.05856,0.22448,0.29768,0.23424,0.13176,0.01464
0.17568,-0.25864,0.3416,0.25376,0.16592,0.00488,-0.17568,0.0488,0.4392,0.54656,0.46848,0.28792
0.34648,-0.5124,0.67832,0.50508,0.33184,0.00732,-0.4392,-0.16592,0.5612,0.90768,0.88328,0.63928
0.55632,-0.76372,0.97112,0.69296,0.4148,0.07076,-0.732,-0.37576,0.61488,1.24928,1.35664,1.08336
0.64904,-0.91012,1.1712,0.84668,0.52216,0.06344,-0.93208,-0.6832,0.39528,1.2932,1.54696,1.2932
0.61,-0.93208,1.25416,0.94916,0.64416,-0.01708,-1.10288,-1.22976,-0.35624,0.8052,1.27856,1.22
0.52216,-0.90768,1.2932,1.03212,0.77104,-0.12444,-1.20536,-1.62016,-0.9028,0.3416,0.94184,1.0492
0.40992,-0.84668,1.28344,1.07848,0.87352,-0.2318,-1.23464,-1.84464,-1.27368,-0.11224,0.55632,0.81984
0.25864,-0.5368,0.81496,0.68564,0.55632,-0.14884,-0.98088,-1.6836,-1.30784,-0.37088,0.22448,0.58072
0.06344,-0.19764,0.33184,0.30012,0.2684,-0.10248,-0.66856,-1.48352,-1.50304,-0.8784,-0.33672,0.22448
-0.0488,0.00244,0.04392,0.06832,0.09272,-0.07076,-0.40504,-1.17608,-1.35176,-0.9272,-0.48312,0.03904
-0.15128,0.16836,-0.18544,-0.1098,-0.03416,-0.05856,-0.18544,-0.85888,-1.05408,-0.78568,-0.49776,-0.13664
-0.18056,0.22448,-0.2684,-0.17812,-0.08784,-0.04636,-0.10248,-0.64416,-0.81496,-0.64904,-0.46848,-0.1952
-0.15616,0.21472,-0.27328,-0.1952,-0.11712,-0.01952,-0.08784,-0.48312,-0.62464,-0.50264,-0.3904,-0.1952
-0.14152,0.19032,-0.23912,-0.16836,-0.0976,-0.02196,-0.05856,-0.3416,-0.4636,-0.38552,-0.31232,-0.17568
-0.12688,0.16836,-0.20984,-0.1464,-0.08296,-0.02196,-0.0244,-0.25864,-0.37088,-0.31232,-0.25864,-0.16104
-0.10248,0.14152,-0.18056,-0.12932,-0.07808,-0.0122,-0.00976,-0.1952,-0.27328,-0.24888,-0.2196,-0.13176
-0.07808,0.11712,-0.15616,-0.11712,-0.07808,0,0.00976,-0.11224,-0.18056,-0.16592,-0.1708,-0.10736
-0.06832,0.11224,-0.15616,-0.122,-0.08784,0.00976,0.04392,-0.0488,-0.13176,-0.12688,-0.1464,-0.10248
-0.06344,0.1098,-0.15616,-0.12444,-0.09272,0.01464,0.06832,-0.01952,-0.11712,-0.11224,-0.122,-0.0976
-0.06344,0.1098,-0.15616,-0.12444,-0.09272,0.01464,0.0732,-0.00976,-0.0976,-0.10248,-0.11224,-0.09272
-0.06344,0.1098,-0.15616,-0.12444,-0.09272,0.01464,0.0732,-0.00488,-0.07808,-0.09272,-0.11224,-0.09272
-0.06832,0.11468,-0.16104,-0.12688,-0.09272,0.0122,0.07808,0.01464,-0.0732,-0.08296,-0.11224,-0.09272
-0.06832,0.11224,-0.15616,-0.122,-0.08784,0.00976,0.0732,0.02928,-0.06832,-0.08296,-0.10736,-0.08784
-0.06344,0.1098,-0.15616,-0.12444,-0.09272,0.01464,0.0732,0.02928,-0.06344,-0.07808,-0.0976,-0.08784
-0.05856,0.10492,-0.15128,-0.122,-0.09272,0.01708,0.0732,0.02928,-0.05368,-0.06832,-0.0976,-0.08784
-0.05856,0.10492,-0.15128,-0.122,-0.09272,0.01708,0.0732,0.02928,-0.05368,-0.06832,-0.09272,-0.09272
-0.05856,0.10492,-0.15128,-0.122,-0.09272,0.01708,0.0732,0.04392,-0.0488,-0.0732,-0.09272,-0.09272
-0.05856,0.10492,-0.15128,-0.122,-0.09272,0.01708,0.0732,0.04392,-0.04392,-0.0732,-0.08784,-0.09272
-0.05856,0.10248,-0.1464,-0.11712,-0.08784,0.01464,0.07808,0.0488,-0.03416,-0.06344,-0.08296,-0.08784
-0.05856,0.0976,-0.13664,-0.10736,-0.07808,0.00976,0.07808,0.05368,-0.0244,-0.05856,-0.0732,-0.08784
-0.05368,0.09516,-0.13664,-0.1098,-0.08296,0.01464,0.07808,0.05856,-0.0244,-0.05368,-0.07808,-0.08784
-0.05368,0.09272,-0.13176,-0.10492,-0.07808,0.0122,0.07808,0.05856,-0.01952,-0.05368,-0.08296,-0.08784
-0.05368,0.09272,-0.13176,-0.10492,-0.07808,0.0122,0.07808,0.06344,-0.00976,-0.04392,-0.07808,-0.08784
-0.05368,0.09272,-0.13176,-0.10492,-0.07808,0.0122,0.07808,0.06832,0,-0.03904,-0.07808,-0.08784
-0.0488,0.08784,-0.12688,-0.10248,-0.07808,0.01464,0.0732,0.06832,0.00488,-0.03904,-0.0732,-0.08784
-0.0488,0.0854,-0.122,-0.0976,-0.0732,0.0122,0.0732,0.0732,0.00976,-0.03416,-0.06344,-0.08296
-0.04392,0.08052,-0.11712,-0.09516,-0.0732,0.01464,0.0732,0.08296,0.01952,-0.02928,-0.05856,-0.07808
-0.04392,0.08052,-0.11712,-0.09516,-0.0732,0.01464,0.0732,0.08784,0.02928,-0.0244,-0.05856,-0.06832
-0.04392,0.08052,-0.11712,-0.09516,-0.0732,0.01464,0.0732,0.0976,0.03904,-0.01464,-0.05368,-0.06344
-0.03904,0.0732,-0.10736,-0.08784,-0.06832,0.01464,0.06832,0.10248,0.0488,-0.00976,-0.04392,-0.06344
-0.03904,0.07076,-0.10248,-0.08296,-0.06344,0.0122,0.06832,0.11224,0.05856,0.00488,-0.03904,-0.05856
-0.03416,0.06588,-0.0976,-0.08052,-0.06344,0.01464,0.06832,0.122,0.0732,0.01952,-0.02928,-0.05368
-0.02928,0.06588,-0.10248,-0.08784,-0.0732,0.02196,0.0732,0.13176,0.08784,0.03416,-0.01952,-0.0488
-0.0244,0.06344,-0.10248,-0.09028,-0.07808,0.02684,0.07808,0.15128,0.10248,0.04392,-0.01464,-0.04392
-0.0244,0.05856,-0.09272,-0.08052,-0.06832,0.02196,0.07808,0.16104,0.11712,0.05368,-0.00488,-0.03416
-0.01952,0.05124,-0.08296,-0.0732,-0.06344,0.02196,0.07808,0.1708,0.14152,0.06832,0.00976,-0.02928
-0.01464,0.04392,-0.0732,-0.06588,-0.05856,0.02196,0.07808,0.18544,0.15616,0.07808,0.01952,-0.02928
-0.00976,0.03904,-0.06832,-0.06344,-0.05856,0.0244,0.07808,0.20008,0.17568,0.09272,0.03416,-0.02928
-0.00976,0.03416,-0.05856,-0.05368,-0.0488,0.01952,0.07808,0.21472,0.1952,0.11224,0.04392,-0.01952
-0.00488,0.02684,-0.0488,-0.04636,-0.04392,0.01952,0.07808,0.23424,0.22448,0.13176,0.05368,-0.00976
0.00488,0.01464,-0.03416,-0.0366,-0.03904,0.02196,0.0732,0.24888,0.24888,0.15128,0.0732,-0.00488
0.00976,0.00488,-0.01952,-0.0244,-0.02928,0.01952,0.06832,0.27328,0.27816,0.1708,0.08296,0
0.01464,-0.00488,-0.00488,-0.0122,-0.01952,0.01708,0.0732,0.28304,0.29768,0.19032,0.10736,0.01952
0.0244,-0.01708,0.00976,-0.00244,-0.01464,0.01952,0.08296,0.29768,0.33184,0.21472,0.122,0.02928
0.02928,-0.0244,0.01952,0.00488,-0.00976,0.01952,0.08296,0.32696,0.366,0.24888,0.14152,0.03904
0.02928,-0.03416,0.03904,0.0244,0.00976,0.00976,0.07808,0.34648,0.39528,0.27328,0.16592,0.05368
0.03904,-0.05124,0.06344,0.04392,0.0244,0.00732,0.06832,0.35136,0.4148,0.2928,0.18544,0.06344
0.04392,-0.06344,0.08296,0.061,0.03904,0.00244,0.06832,0.36112,0.43432,0.3172,0.20984,0.07808
0.0488,-0.07564,0.10248,0.07808,0.05368,-0.00244,0.06832,0.38064,0.4636,0.3416,0.22936,0.0976
0.05856,-0.09028,0.122,0.09272,0.06344,-0.00244,0.06832,0.3904,0.47824,0.366,0.244,0.11224
0.06832,-0.10248,0.13664,0.10248,0.06832,0,0.06344,0.39528,0.488,0.38064,0.25376,0.12688
0.0732,-0.11468,0.15616,0.11956,0.08296,-0.00488,0.05856,0.39528,0.49776,0.3904,0.2684,0.13664
0.07808,-0.12444,0.1708,0.13176,0.09272,-0.00732,0.0488,0.40016,0.5124,0.40016,0.28304,0.1464
0.08296,-0.1342,0.18544,0.14396,0.10248,-0.00976,0.03904,0.40504,0.52704,0.40504,0.29768,0.15128
0.08784,-0.14152,0.1952,0.15128,0.10736,-0.00976,0.03904,0.39528,0.52704,0.40992,0.30744,0.16104
0.08784,-0.1464,0.20496,0.16104,0.11712,-0.01464,0.03416,0.3904,0.52216,0.40992,0.31232,0.16592
0.09272,-0.15616,0.2196,0.17324,0.12688,-0.01708,0.03416,0.37576,0.51728,0.4148,0.31232,0.1708
0.09272,-0.16348,0.23424,0.18788,0.14152,-0.0244,0.0244,0.36112,0.50264,0.40992,0.3172,0.18056
0.09272,-0.16592,0.23912,0.19276,0.1464,-0.02684,0.01952,0.3416,0.48312,0.40504,0.3172,0.18056
0.09272,-0.16592,0.23912,0.19276,0.1464,-0.02684,0.01464,0.32208,0.46848,0.39528,0.31232,0.18544
0.09272,-0.16592,0.23912,0.19276,0.1464,-0.02684,0.00488,0.29768,0.44896,0.38064,0.30256,0.19032
0.08784,-0.16104,0.23424,0.19032,0.1464,-0.02928,-0.00488,0.27328,0.4148,0.36112,0.2928,0.19032
0.08296,-0.15128,0.2196,0.17812,0.13664,-0.02684,-0.00976,0.244,0.38552,0.3416,0.2684,0.17568
0.08296,-0.14396,0.20496,0.16348,0.122,-0.01952,-0.00976,0.2196,0.35136,0.31232,0.25376,0.16104
0.0732,-0.12932,0.18544,0.14884,0.11224,-0.01952,-0.01464,0.19032,0.3172,0.27328,0.22448,0.14152
0.06344,-0.11468,0.16592,0.1342,0.10248,-0.01952,-0.01464,0.16592,0.27816,0.23912,0.1952,0.12688
0.05856,-0.10492,0.15128,0.122,0.09272,-0.01708,-0.01464,0.13664,0.22936,0.20496,0.1708,0.10736
0.04392,-0.08784,0.13176,0.1098,0.08784,-0.02196,-0.00976,0.10736,0.17568,0.1708,0.13664,0.08784
0.03904,-0.07564,0.11224,0.09272,0.0732,-0.01708,-0.00488,0.09272,0.15128,0.13176,0.11224,0.0732
0.02928,-0.05368,0.07808,0.06344,0.0488,-0.00976,-0.00488,0.07808,0.122,0.10248,0.08784,0.05368
0.01464,-0.0366,0.05856,0.05124,0.04392,-0.01464,0.00488,0.06832,0.09272,0.0732,0.06832,0.03904
0.00976,-0.02684,0.04392,0.03904,0.03416,-0.0122,0.00976,0.05368,0.06832,0.0488,0.0488,0.0244
-0.00488,-0.00976,0.0244,0.02684,0.02928,-0.01708,0.01464,0.0488,0.05368,0.02928,0.02928,0.00488
-0.00976,-0.00244,0.01464,0.01952,0.0244,-0.01708,0.01464,0.03904,0.03416,0.00976,0.00976,-0.00976
-0.01464,0.00488,0.00488,0.0122,0.01952,-0.01708,0.00976,0.02928,0.01952,-0.00976,-0.00976,-0.01464
-0.01464,0.0122,-0.00976,-0.00244,0.00488,-0.00976,0.00488,0.02928,0.00488,-0.0244,-0.01952,-0.0244
-0.01952,0.0244,-0.02928,-0.01952,-0.00976,-0.00488,0.00976,0.01952,-0.00488,-0.02928,-0.02928,-0.03416
-0.01952,0.03172,-0.04392,-0.03416,-0.0244,0.00244,0.00976,0.01464,-0.00976,-0.03904,-0.03416,-0.03904
-0.0244,0.0366,-0.0488,-0.0366,-0.0244,0,0.00976,0.00976,-0.01952,-0.04392,-0.03904,-0.03416
-0.0244,0.0366,-0.0488,-0.0366,-0.0244,0,0.00976,0.00488,-0.0244,-0.04392,-0.04392,-0.02928
-0.02928,0.04148,-0.05368,-0.03904,-0.0244,-0.00244,0.00976,0.00488,-0.02928,-0.04392,-0.04392,-0.03416
-0.02928,0.04148,-0.05368,-0.03904,-0.0244,-0.00244,0.00976,0.00488,-0.03416,-0.0488,-0.04392,-0.03416
-0.02928,0.04392,-0.05856,-0.04392,-0.02928,0,0.00976,0.00488,-0.03416,-0.0488,-0.0488,-0.03416
-0.02928,0.04392,-0.05856,-0.04392,-0.02928,0,0.01464,0.00488,-0.03904,-0.05368,-0.0488,-0.03416
-0.02928,0.04392,-0.05856,-0.04392,-0.02928,0,0.01464,0,-0.03904,-0.05368,-0.0488,-0.03416
-0.03416,0.04636,-0.05856,-0.04148,-0.0244,-0.00488,0.01464,0,-0.03904,-0.05368,-0.0488,-0.03416
-0.03416,0.04636,-0.05856,-0.04148,-0.0244,-0.00488,0.00976,0,-0.03904,-0.05368,-0.0488,-0.03904
-0.02928,0.04392,-0.05856,-0.04392,-0.02928,0,0.00976,0,-0.03904,-0.0488,-0.0488,-0.03904
-0.02928,0.04392,-0.05856,-0.04392,-0.02928,0,0.00976,0,-0.03416,-0.0488,-0.05368,-0.03904
-0.02928,0.04392,-0.05856,-0.04392,-0.02928,0,0.00976,0,-0.03416,-0.0488,-0.05368,-0.03904
-0.02928,0.04392,-0.05856,-0.04392,-0.02928,0,0.00488,0,-0.03904,-0.0488,-0.05368,-0.03904
-0.02928,0.04148,-0.05368,-0.03904,-0.0244,-0.00244,0.00488,0,-0.04392,-0.0488,-0.05368,-0.03904
-0.02928,0.03904,-0.0488,-0.03416,-0.01952,-0.00488,0.00488,0,-0.04392,-0.0488,-0.05368,-0.04392
-0.02928,0.0366,-0.04392,-0.02928,-0.01464,-0.00732,0.00488,0,-0.04392,-0.05368,-0.05368,-0.04392
-0.03416,0.03904,-0.04392,-0.02684,-0.00976,-0.0122,0.00488,0,-0.04392,-0.05368,-0.0488,-0.04392
-0.03416,0.03904,-0.04392,-0.02684,-0.00976,-0.0122,0.00488,0,-0.04392,-0.05368,-0.0488,-0.04392
-0.02928,0.03904,-0.0488,-0.03416,-0.01952,-0.00488,0.00976,0.00488,-0.04392,-0.05368,-0.0488,-0.04392
-0.02928,0.04148,-0.05368,-0.03904,-0.0244,-0.00244,0.01464,0.00976,-0.04392,-0.05368,-0.0488,-0.04392
-0.02928,0.04148,-0.05368,-0.03904,-0.0244,-0.00244,0.01464,0.00488,-0.04392,-0.05856,-0.05368,-0.04392
-0.02928,0.04148,-0.05368,-0.03904,-0.0244,-0.00244,0.01464,0.00488,-0.04392,-0.06344,-0.05856,-0.04392
-0.02928,0.03904,-0.0488,-0.03416,-0.01952,-0.00488,0.01464,0,-0.04392,-0.06344,-0.05856,-0.04392
-0.02928,0.03904,-0.0488,-0.03416,-0.01952,-0.00488,0.01464,-0.00488,-0.04392,-0.06344,-0.06344,-0.04392
-0.02928,0.03904,-0.0488,-0.03416,-0.01952,-0.00488,0.00976,-0.00488,-0.04392,-0.06344,-0.06344,-0.0488
-0.02928,0.03904,-0.0488,-0.03416,-0.01952,-0.00488,0.00976,-0.00488,-0.0488,-0.05856,-0.06344,-0.0488
-0.02928,0.03904,-0.0488,-0.03416,-0.01952,-0.00488,0.00976,-0.00976,-0.0488,-0.05856,-0.06344,-0.0488
-0.02928,0.03904,-0.0488,-0.03416,-0.01952,-0.00488,0.00976,-0.00976,-0.05368,-0.06344,-0.06344,-0.0488
-0.02928,0.03904,-0.0488,-0.03416,-0.01952,-0.00488,0.00976,-0.00976,-0.05368,-0.06832,-0.06344,-0.0488
-0.02928,0.0366,-0.04392,-0.02928,-0.01464,-0.00732,0.01464,-0.00976,-0.05856,-0.06344,-0.06832,-0.0488
-0.02928,0.0366,-0.04392,-0.02928,-0.01464,-0.00732,0.01464,-0.01464,-0.05856,-0.06344,-0.06832,-0.0488
-0.02928,0.04148,-0.05368,-0.03904,-0.0244,-0.00244,0.01464,-0.01464,-0.05856,-0.06344,-0.06832,-0.0488
-0.0244,0.04148,-0.05856,-0.04636,-0.03416,0.00488,0.00976,-0.01464,-0.05368,-0.06344,-0.06832,-0.0488
-0.01952,0.04148,-0.06344,-0.05368,-0.04392,0.0122,0.00976,-0.01952,-0.05368,-0.06344,-0.0732,-0.05368
-0.01952,0.04148,-0.06344,-0.05368,-0.04392,0.0122,0.00976,-0.01952,-0.05856,-0.06832,-0.07808,-0.05368
-0.01952,0.04148,-0.06344,-0.05368,-0.04392,0.0122,0.00976,-0.01952,-0.05856,-0.0732,-0.07808,-0.05368
-0.0244,0.04636,-0.06832,-0.05612,-0.04392,0.00976,0.00976,-0.01952,-0.06344,-0.0732,-0.07808,-0.05368
-0.0244,0.04392,-0.06344,-0.05124,-0.03904,0.00732,0.00976,-0.01464,-0.06832,-0.07808,-0.08296,-0.05856
-0.0244,0.04392,-0.06344,-0.05124,-0.03904,0.00732,0.00976,-0.01464,-0.0732,-0.08296,-0.08296,-0.05856
-0.02928,0.0488,-0.06832,-0.05368,-0.03904,0.00488,0.00976,-0.01952,-0.08296,-0.08296,-0.08296,-0.05856
-0.02928,0.0488,-0.06832,-0.05368,-0.03904,0.00488,0.00976,-0.01952,-0.08296,-0.08296,-0.08784,-0.05368
-0.0244,0.04636,-0.06832,-0.05612,-0.04392,0.00976,0.00976,-0.01952,-0.08296,-0.08784,-0.08784,-0.05368
-0.0244,0.0488,-0.0732,-0.061,-0.0488,0.0122,0.00976,-0.01952,-0.08296,-0.09272,-0.08784,-0.05368
-0.0244,0.05124,-0.07808,-0.06588,-0.05368,0.01464,0.00976,-0.01952,-0.08784,-0.09272,-0.09272,-0.05368
-0.0244,0.05124,-0.07808,-0.06588,-0.05368,0.01464,0.00976,-0.01952,-0.08784,-0.0976,-0.09272,-0.05368
-0.02928,0.05368,-0.07808,-0.06344,-0.0488,0.00976,0.01464,-0.01952,-0.08784,-0.0976,-0.09272,-0.05368
-0.02928,0.05612,-0.08296,-0.06832,-0.05368,0.0122,0.01464,-0.0244,-0.08784,-0.0976,-0.09272,-0.05368
-0.02928,0.05856,-0.08784,-0.0732,-0.05856,0.01464,0.00976,-0.0244,-0.09272,-0.10248,-0.09272,-0.05368
-0.03416,0.061,-0.08784,-0.07076,-0.05368,0.00976,0.00976,-0.02928,-0.09272,-0.10248,-0.09272,-0.05856
-0.03904,0.061,-0.08296,-0.06344,-0.04392,0.00244,0.01464,-0.03416,-0.09272,-0.10248,-0.09272,-0.05856
-0.03904,0.05612,-0.0732,-0.05368,-0.03416,-0.00244,0.01464,-0.03904,-0.0976,-0.10248,-0.0976,-0.06344
-0.03904,0.05368,-0.06832,-0.0488,-0.02928,-0.00488,0.01464,-0.04392,-0.0976,-0.10248,-0.0976,-0.06832
-0.03904,0.05368,-0.06832,-0.0488,-0.02928,-0.00488,0.01464,-0.04392,-0.0976,-0.10736,-0.0976,-0.06832
-0.03904,0.05612,-0.0732,-0.05368,-0.03416,-0.00244,0.00976,-0.04392,-0.0976,-0.10736,-0.0976,-0.06832
-0.03904,0.05856,-0.07808,-0.05856,-0.03904,0,0.00976,-0.03904,-0.0976,-0.10736,-0.10248,-0.0732
-0.04392,0.06588,-0.08784,-0.06588,-0.04392,0,0.01464,-0.03904,-0.10248,-0.10736,-0.10248,-0.0732
-0.04392,0.06588,-0.08784,-0.06588,-0.04392,0,0.01464,-0.03904,-0.10248,-0.10736,-0.10248,-0.0732
-0.04392,0.06588,-0.08784,-0.06588,-0.04392,0,0.01464,-0.03904,-0.10248,-0.10736,-0.10248,-0.0732
-0.03904,0.06344,-0.08784,-0.06832,-0.0488,0.00488,0.01464,-0.03904,-0.10248,-0.10736,-0.10248,-0.0732
-0.03904,0.06344,-0.08784,-0.06832,-0.0488,0.00488,0.01464,-0.03904,-0.10248,-0.10736,-0.10248,-0.0732
-0.03904,0.06344,-0.08784,-0.06832,-0.0488,0.00488,0.01464,-0.03904,-0.10248,-0.10736,-0.10248,-0.0732
-0.03904,0.06344,-0.08784,-0.06832,-0.0488,0.00488,0.01464,-0.03904,-0.10248,-0.10736,-0.10248,-0.0732
-0.03904,0.06344,-0.08784,-0.06832,-0.0488,0.00488,0.01464,-0.03904,-0.10248,-0.11224,-0.10248,-0.0732
-0.04392,0.06588,-0.08784,-0.06588,-0.04392,0,0.01464,-0.03904,-0.10248,-0.11224,-0.10248,-0.0732
-0.04392,0.06588,-0.08784,-0.06588,-0.04392,0,0.01464,-0.03904,-0.10736,-0.11224,-0.10736,-0.06832
-0.04392,0.06832,-0.09272,-0.07076,-0.0488,0.00244,0.01464,-0.03904,-0.10736,-0.11712,-0.10736,-0.06344
-0.04392,0.06832,-0.09272,-0.07076,-0.0488,0.00244,0.01464,-0.03904,-0.10736,-0.11712,-0.10736,-0.06344
-0.04392,0.06832,-0.09272,-0.07076,-0.0488,0.00244,0.01952,-0.03904,-0.10736,-0.122,-0.10736,-0.06832
-0.03904,0.06588,-0.09272,-0.0732,-0.05368,0.00732,0.01952,-0.03904,-0.10736,-0.11712,-0.10736,-0.0732
-0.03904,0.06832,-0.0976,-0.07808,-0.05856,0.00976,0.01952,-0.03904,-0.10736,-0.11712,-0.10736,-0.07808
-0.03904,0.06832,-0.0976,-0.07808,-0.05856,0.00976,0.01952,-0.03904,-0.10736,-0.11712,-0.10736,-0.07808
-0.03904,0.06832,-0.0976,-0.07808,-0.05856,0.00976,0.01952,-0.03904,-0.10736,-0.11712,-0.10736,-0.07808
-0.03904,0.06588,-0.09272,-0.0732,-0.05368,0.00732,0.01952,-0.03904,-0.10736,-0.11224,-0.10736,-0.07808
-0.03904,0.06344,-0.08784,-0.06832,-0.0488,0.00488,0.01952,-0.03904,-0.10736,-0.11224,-0.10736,-0.0732
-0.04392,0.06588,-0.08784,-0.06588,-0.04392,0,0.01952,-0.03904,-0.10736,-0.11224,-0.11224,-0.0732
-0.04392,0.06588,-0.08784,-0.06588,-0.04392,0,0.01952,-0.03904,-0.10736,-0.11224,-0.11224,-0.06832
-0.03904,0.061,-0.08296,-0.06344,-0.04392,0.00244,0.01952,-0.03904,-0.10736,-0.122,-0.11224,-0.06832
-0.03904,0.061,-0.08296,-0.06344,-0.04392,0.00244,0.01952,-0.03904,-0.10736,-0.12688,-0.11224,-0.06832
-0.03904,0.06344,-0.08784,-0.06832,-0.0488,0.00488,0.01952,-0.03904,-0.10736,-0.122,-0.10248,-0.06832
-0.03904,0.05856,-0.07808,-0.05856,-0.03904,0,0.01952,-0.03416,-0.10248,-0.11224,-0.10248,-0.0732
-0.03416,0.05612,-0.07808,-0.061,-0.04392,0.00488,0.01952,-0.03416,-0.0976,-0.10736,-0.10248,-0.06832
-0.03416,0.0488,-0.06344,-0.04636,-0.02928,-0.00244,0.01952,-0.02928,-0.08784,-0.10248,-0.09272,-0.06832
-0.02928,0.04148,-0.05368,-0.03904,-0.0244,-0.00244,0.01464,-0.02928,-0.08784,-0.10248,-0.08296,-0.06344
-0.0244,0.03416,-0.04392,-0.03172,-0.01952,-0.00244,0.00976,-0.02928,-0.08296,-0.08784,-0.08296,-0.05856
-0.01952,0.02196,-0.0244,-0.01464,-0.00488,-0.00732,0.00488,-0.0244,-0.0732,-0.08784,-0.0732,-0.05368
-0.00976,0.00732,-0.00488,0,0.00488,-0.00732,0.00488,-0.0244,-0.06344,-0.07808,-0.06832,-0.0488
-0.00488,0.00244,0,0.00244,0.00488,-0.00488,0.00976,-0.00488,-0.05856,-0.06832,-0.06344,-0.04392
-0.00488,0.00244,0,0.00244,0.00488,-0.00488,0.00976,0,-0.05856,-0.06832,-0.06344,-0.04392
-0.00488,0,0.00488,0.00732,0.00976,-0.00732,-0.00488,-0.01464,-0.05856,-0.06832,-0.05856,-0.03904
-0.00488,-0.00488,0.01464,0.01708,0.01952,-0.0122,-0.01952,-0.0244,-0.05856,-0.06832,-0.05856,-0.03904
0.00488,-0.01952,0.03416,0.03172,0.02928,-0.0122,-0.03904,-0.02928,-0.05856,-0.06832,-0.05856,-0.02928
0.01952,-0.04392,0.06832,0.05856,0.0488,-0.01464,-0.03904,-0.02928,-0.03904,-0.0488,-0.03904,-0.01464
0.03904,-0.07076,0.10248,0.08296,0.06344,-0.0122,-0.03904,-0.00976,-0.00976,-0.01952,-0.00976,0.01952
0.05368,-0.08296,0.11224,0.0854,0.05856,-0.00244,-0.03904,0.01464,0.00976,-0.00488,0.00976,0.03904
0.06344,-0.0854,0.10736,0.07564,0.04392,0.00976,-0.0488,-0.00488,-0.00976,-0.01464,0,0.03904
0.06832,-0.08296,0.0976,0.06344,0.02928,0.01952,-0.05368,-0.01464,-0.01952,-0.0244,-0.00488,0.03416
0.06832,-0.07564,0.08296,0.0488,0.01464,0.02684,-0.06344,-0.01952,-0.03904,-0.03416,-0.01464,0.03416
0.06832,-0.07076,0.0732,0.03904,0.00488,0.03172,-0.06832,-0.02928,-0.0488,-0.03416,-0.01464,0.02928
0.0488,-0.061,0.0732,0.0488,0.0244,0.0122,-0.05856,-0.03416,-0.0488,-0.03904,-0.01952,0.0244
0.02928,-0.04148,0.05368,0.03904,0.0244,0.00244,-0.04392,-0.03904,-0.06344,-0.05368,-0.03416,0.00976
0.01464,-0.00732,0,-0.00732,-0.01464,0.01464,-0.01464,-0.03904,-0.07808,-0.07808,-0.05368,-0.01464
-0.01464,0.0366,-0.05856,-0.05124,-0.04392,0.01464,0.01464,-0.04392,-0.0976,-0.10736,-0.08784,-0.04392
-0.02928,0.05612,-0.08296,-0.06832,-0.05368,0.0122,0.01952,-0.04392,-0.10736,-0.11712,-0.0976,-0.05368
-0.0488,0.0732,-0.0976,-0.0732,-0.0488,0,0.01952,-0.04392,-0.10736,-0.11712,-0.10248,-0.06832
-0.0488,0.07564,-0.10248,-0.07808,-0.05368,0.00244,0.0244,-0.04392,-0.11224,-0.122,-0.10248,-0.06832
-0.0488,0.07808,-0.10736,-0.08296,-0.05856,0.00488,0.0244,-0.04392,-0.11224,-0.12688,-0.10736,-0.0732
-0.05368,0.08296,-0.11224,-0.0854,-0.05856,0.00244,0.03416,-0.0488,-0.12688,-0.13176,-0.11224,-0.08296
-0.05368,0.0854,-0.11712,-0.09028,-0.06344,0.00488,0.03904,-0.0488,-0.13176,-0.14152,-0.11224,-0.08784
-0.05856,0.08784,-0.11712,-0.08784,-0.05856,0,0.03904,-0.0488,-0.13176,-0.1464,-0.11224,-0.09272
-0.05856,0.09272,-0.12688,-0.0976,-0.06832,0.00488,0.04392,-0.0488,-0.13176,-0.1464,-0.122,-0.09272
-0.05856,0.09272,-0.12688,-0.0976,-0.06832,0.00488,0.03904,-0.04392,-0.13176,-0.13664,-0.11712,-0.08784
-0.05856,0.10004,-0.14152,-0.11224,-0.08296,0.0122,0.04392,-0.03904,-0.13176,-0.14152,-0.122,-0.08784
-0.08296,0.13908,-0.1952,-0.15372,-0.11224,0.01464,0.08296,-0.01464,-0.14152,-0.1708,-0.15616,-0.122
-0.13664,0.21472,-0.2928,-0.22448,-0.15616,0.00976,0.1952,0.06832,-0.13176,-0.21472,-0.22936,-0.20496
-0.18544,0.27328,-0.36112,-0.2684,-0.17568,-0.00488,0.32696,0.20496,-0.0732,-0.23912,-0.29768,-0.2928
-0.1952,0.27816,-0.36112,-0.26352,-0.16592,-0.01464,0.36112,0.27816,0.00488,-0.1952,-0.28792,-0.31232
-0.1708,0.25864,-0.34648,-0.26108,-0.17568,0.00244,0.35624,0.31232,0.11224,-0.10248,-0.22936,-0.28792
-0.08784,0.17568,-0.26352,-0.2196,-0.17568,0.04392,0.28304,0.3416,0.20496,0.01952,-0.0976,-0.18056
0.05368,-0.0244,-0.00488,-0.03172,-0.05856,0.05612,0.06832,0.27328,0.3416,0.23912,0.14152,0.0244
0.20496,-0.24888,0.2928,0.19032,0.08784,0.05856,-0.15616,0.1464,0.47336,0.5124,0.44896,0.29768
0.42456,-0.52216,0.61976,0.40748,0.1952,0.11468,-0.41968,-0.0244,0.6832,0.9516,0.95648,0.73688
0.61976,-0.74664,0.87352,0.56364,0.25376,0.183,-0.67832,-0.23912,0.71736,1.22976,1.3664,1.14192
0.72224,-0.88816,1.05408,0.69296,0.33184,0.1952,-0.8784,-0.59536,0.44408,1.2444,1.54208,1.36152
0.7076,-0.92232,1.13704,0.78324,0.42944,0.13908,-1.03456,-1.06872,-0.16104,0.87352,1.36152,1.34688
0.60512,-0.93452,1.26392,0.96136,0.6588,-0.02684,-1.18096,-1.55184,-0.81496,0.3172,0.95648,1.13704
0.488,-0.8784,1.2688,1.0248,0.7808,-0.1464,-1.21024,-1.82512,-1.27368,-0.17568,0.54656,0.89304
0.29768,-0.47336,0.64904,0.5002,0.35136,-0.02684,-0.86376,-1.586,-1.27368,-0.4392,0.17568,0.61
0.0976,-0.16104,0.22448,0.17568,0.12688,-0.01464,-0.59536,-1.44448,-1.47376,-0.89304,-0.33184,0.25864
-0.03416,0.01708,0,0.01708,0.03416,-0.03416,-0.32696,-1.13216,-1.2932,-0.88816,-0.44896,0.0488
-0.15616,0.183,-0.20984,-0.13176,-0.05368,-0.05124,-0.10736,-0.85888,-1.06872,-0.81984,-0.52704,-0.1464
-0.18544,0.22448,-0.26352,-0.1708,-0.07808,-0.05368,-0.06344,-0.70272,-0.86376,-0.7076,-0.50752,-0.20008
-0.17568,0.2318,-0.28792,-0.20008,-0.11224,-0.03172,-0.05368,-0.55144,-0.6832,-0.58072,-0.44408,-0.22448
-0.16104,0.20496,-0.24888,-0.16836,-0.08784,-0.0366,-0.03904,-0.40992,-0.5368,-0.46848,-0.35624,-0.20496
-0.1464,0.183,-0.2196,-0.1464,-0.0732,-0.0366,-0.00976,-0.30744,-0.43432,-0.38064,-0.28792,-0.18544
-0.122,0.15128,-0.18056,-0.11956,-0.05856,-0.03172,-0.00976,-0.244,-0.32208,-0.30256,-0.244,-0.15128
-0.0976,0.12688,-0.15616,-0.10736,-0.05856,-0.01952,0,-0.16104,-0.21472,-0.21472,-0.19032,-0.12688
-0.08296,0.12444,-0.16592,-0.12444,-0.08296,0,0.04392,-0.07808,-0.16592,-0.17568,-0.16104,-0.11712
-0.0732,0.11956,-0.16592,-0.12932,-0.09272,0.00976,0.0732,-0.03416,-0.1464,-0.15128,-0.13664,-0.10736
-0.0732,0.11712,-0.16104,-0.12444,-0.08784,0.00732,0.0732,-0.02928,-0.122,-0.14152,-0.13176,-0.10248
-0.06832,0.1098,-0.15128,-0.11712,-0.08296,0.00732,0.0732,-0.0244,-0.0976,-0.13176,-0.13176,-0.10248
-0.06832,0.1098,-0.15128,-0.11712,-0.08296,0.00732,0.07808,0,-0.09272,-0.122,-0.13176,-0.10248
-0.06832,0.10736,-0.1464,-0.11224,-0.07808,0.00488,0.07808,0.01952,-0.08784,-0.122,-0.12688,-0.0976
-0.06344,0.10736,-0.15128,-0.11956,-0.08784,0.0122,0.08296,0.01952,-0.07808,-0.11712,-0.11224,-0.0976
-0.05856,0.10492,-0.15128,-0.122,-0.09272,0.01708,0.08296,0.01952,-0.06344,-0.10736,-0.10736,-0.09272
-0.05856,0.10492,-0.15128,-0.122,-0.09272,0.01708,0.08296,0.01952,-0.06344,-0.10736,-0.10248,-0.09272
-0.05856,0.10492,-0.15128,-0.122,-0.09272,0.01708,0.08296,0.03416,-0.05856,-0.10736,-0.10248,-0.09272
-0.05856,0.10492,-0.15128,-0.122,-0.09272,0.01708,0.08296,0.03416,-0.05368,-0.10248,-0.0976,-0.09272
-0.05856,0.10492,-0.15128,-0.122,-0.09272,0.01708,0.08784,0.03904,-0.04392,-0.09272,-0.09272,-0.08784
-0.05856,0.10248,-0.1464,-0.11712,-0.08784,0.01464,0.08784,0.0488,-0.03416,-0.08784,-0.08784,-0.08784
-0.05368,0.10004,-0.1464,-0.11956,-0.09272,0.01952,0.08784,0.05856,-0.03416,-0.08296,-0.09272,-0.08784
-0.05368,0.0976,-0.14152,-0.11468,-0.08784,0.01708,0.08784,0.05856,-0.03416,-0.07808,-0.09272,-0.08784
-0.05368,0.0976,-0.14152,-0.11468,-0.08784,0.01708,0.08784,0.06832,-0.02928,-0.06344,-0.08784,-0.08296
-0.05368,0.0976,-0.14152,-0.11468,-0.08784,0.01708,0.08784,0.0732,-0.01952,-0.05856,-0.08784,-0.07808
-0.0488,0.09272,-0.13664,-0.11224,-0.08784,0.01952,0.08296,0.06832,-0.01464,-0.05856,-0.08296,-0.07808
-0.0488,0.09028,-0.13176,-0.10736,-0.08296,0.01708,0.08296,0.0732,-0.00976,-0.05856,-0.0732,-0.0732
-0.04392,0.0854,-0.12688,-0.10492,-0.08296,0.01952,0.08296,0.08296,0,-0.05368,-0.06832,-0.0732
-0.04392,0.0854,-0.12688,-0.10492,-0.08296,0.01952,0.08296,0.08784,0.00976,-0.04392,-0.06832,-0.06832
-0.04392,0.0854,-0.12688,-0.10492,-0.08296,0.01952,0.08296,0.0976,0.01952,-0.03416,-0.06344,-0.06344
-0.03904,0.07808,-0.11712,-0.0976,-0.07808,0.01952,0.0732,0.10248,0.02928,-0.02928,-0.05368,-0.06344
-0.03904,0.07564,-0.11224,-0.09272,-0.0732,0.01708,0.06832,0.11224,0.03904,-0.01952,-0.0488,-0.05856
-0.03416,0.07076,-0.10736,-0.09028,-0.0732,0.01952,0.06832,0.122,0.05368,-0.00976,-0.03904,-0.05368
-0.02928,0.06832,-0.10736,-0.09272,-0.07808,0.0244,0.06832,0.12688,0.06832,0.00488,-0.02928,-0.0488
-0.0244,0.06588,-0.10736,-0.09516,-0.08296,0.02928,0.06832,0.14152,0.07808,0.01464,-0.0244,-0.04392
-0.0244,0.06344,-0.10248,-0.09028,-0.07808,0.02684,0.06832,0.15128,0.08784,0.0244,-0.01464,-0.03416
-0.01952,0.05612,-0.09272,-0.08296,-0.0732,0.02684,0.06832,0.16104,0.11224,0.03904,0,-0.02928
-0.01464,0.0488,-0.08296,-0.07564,-0.06832,0.02684,0.06832,0.17568,0.12688,0.05368,0.00976,-0.0244
-0.00976,0.04392,-0.07808,-0.0732,-0.06832,0.02928,0.06832,0.19032,0.1464,0.06832,0.0244,-0.01952
-0.00976,0.03904,-0.06832,-0.06344,-0.05856,0.0244,0.06832,0.20496,0.16592,0.08296,0.03904,-0.00976
-0.00488,0.03172,-0.05856,-0.05612,-0.05368,0.0244,0.06832,0.22448,0.1952,0.10248,0.05368,0
0.00488,0.01952,-0.04392,-0.04636,-0.0488,0.02684,0.06344,0.23912,0.21472,0.122,0.0732,0.00976
0.00976,0.00976,-0.02928,-0.03416,-0.03904,0.0244,0.05856,0.26352,0.23424,0.14152,0.07808,0.01952
0.01464,0,-0.01464,-0.02196,-0.02928,0.02196,0.05856,0.27328,0.24888,0.16104,0.0976,0.03904
0.02928,-0.01464,0,-0.01464,-0.02928,0.02928,0.06344,0.28792,0.28304,0.18544,0.11224,0.0488
0.04392,-0.02684,0.00976,-0.0122,-0.03416,0.03904,0.06344,0.31232,0.31232,0.21472,0.13176,0.05856
0.0488,-0.0366,0.0244,0,-0.0244,0.0366,0.05856,0.33184,0.33672,0.23424,0.15616,0.0732
0.05856,-0.05124,0.04392,0.01464,-0.01464,0.0366,0.0488,0.3416,0.35624,0.25376,0.1708,0.08296
0.06344,-0.06344,0.06344,0.03172,0,0.03172,0.0488,0.35136,0.38064,0.27816,0.19032,0.0976
0.06832,-0.07564,0.08296,0.0488,0.01464,0.02684,0.04392,0.366,0.40992,0.2928,0.20984,0.11224
0.07808,-0.09028,0.10248,0.06344,0.0244,0.02684,0.03904,0.37088,0.41968,0.30744,0.22448,0.122
0.08296,-0.0976,0.11224,0.07076,0.02928,0.02684,0.03416,0.37576,0.42944,0.32208,0.23424,0.13664
0.08296,-0.10492,0.12688,0.0854,0.04392,0.01952,0.02928,0.38064,0.44408,0.33184,0.25376,0.15128
0.08784,-0.11468,0.14152,0.0976,0.05368,0.01708,0.0244,0.38552,0.45384,0.3416,0.2684,0.16592
0.09272,-0.12444,0.15616,0.1098,0.06344,0.01464,0.01952,0.38552,0.45872,0.35136,0.27816,0.1708
0.0976,-0.13176,0.16592,0.11712,0.06832,0.01464,0.01952,0.37576,0.45872,0.36112,0.28304,0.18056
0.0976,-0.13664,0.17568,0.12688,0.07808,0.00976,0.01464,0.37088,0.45872,0.36112,0.28304,0.18544
0.10248,-0.14396,0.18544,0.1342,0.08296,0.00976,0.01464,0.35624,0.45872,0.36112,0.28304,0.18544
0.10736,-0.15128,0.1952,0.14152,0.08784,0.00976,0.00976,0.34648,0.44896,0.36112,0.2928,0.1952
0.11224,-0.15616,0.20008,0.14396,0.08784,0.0122,0.00976,0.33184,0.43432,0.366,0.29768,0.20008
0.11224,-0.1586,0.20496,0.14884,0.09272,0.00976,0.00488,0.31232,0.41968,0.35624,0.2928,0.20496
0.11224,-0.16348,0.21472,0.1586,0.10248,0.00488,-0.00488,0.28792,0.40016,0.3416,0.28304,0.20496
0.10736,-0.16348,0.2196,0.16592,0.11224,-0.00244,-0.01952,0.26352,0.37088,0.32208,0.27816,0.20008
0.0976,-0.15372,0.20984,0.16104,0.11224,-0.00732,-0.0244,0.23912,0.35136,0.30256,0.25864,0.18544
0.0976,-0.1464,0.1952,0.1464,0.0976,0,-0.01952,0.2196,0.32208,0.27816,0.244,0.1708
0.09272,-0.1342,0.17568,0.12932,0.08296,0.00488,-0.01952,0.1952,0.28792,0.24888,0.21472,0.15128
0.08296,-0.11956,0.15616,0.11468,0.0732,0.00488,-0.00976,0.1708,0.25376,0.2196,0.18544,0.13664
0.07808,-0.10736,0.13664,0.0976,0.05856,0.00976,-0.00488,0.1464,0.22448,0.19032,0.16592,0.11712
0.05856,-0.0854,0.11224,0.08296,0.05368,0.00244,0,0.12688,0.18544,0.15616,0.13664,0.0976
0.0488,-0.07076,0.09272,0.06832,0.04392,0.00244,0.00488,0.11224,0.16104,0.122,0.11224,0.08296
0.03904,-0.0488,0.05856,0.03904,0.01952,0.00976,0.00488,0.0976,0.13176,0.10248,0.08784,0.06344
0.0244,-0.03172,0.03904,0.02684,0.01464,0.00488,0.01464,0.08784,0.10248,0.0732,0.06832,0.0488
0.01464,-0.01952,0.0244,0.01708,0.00976,0.00244,0.01952,0.0732,0.07808,0.0488,0.0488,0.03416
0,-0.00244,0.00488,0.00488,0.00488,-0.00244,0.0244,0.06344,0.06344,0.02928,0.02928,0.01952
0,0.00244,-0.00488,-0.00488,-0.00488,0.00244,0.0244,0.0488,0.03904,0.00976,0.00488,0.00488
-0.00488,0.00976,-0.01464,-0.0122,-0.00976,0.00244,0.0244,0.03904,0.01952,-0.00488,-0.01464,-0.00488
-0.00488,0.01708,-0.02928,-0.02684,-0.0244,0.00976,0.0244,0.03904,0.00488,-0.01952,-0.01952,-0.01464
-0.00976,0.0244,-0.03904,-0.03416,-0.02928,0.00976,0.02928,0.02928,-0.00488,-0.02928,-0.02928,-0.0244
-0.01464,0.03172,-0.0488,-0.04148,-0.03416,0.00976,0.03416,0.0244,-0.00976,-0.03904,-0.03416,-0.02928
-0.0244,0.04148,-0.05856,-0.04636,-0.03416,0.00488,0.03904,0.0244,-0.01952,-0.04392,-0.03904,-0.02928
-0.0244,0.04148,-0.05856,-0.04636,-0.03416,0.00488,0.03904,0.01952,-0.0244,-0.04392,-0.04392,-0.02928
-0.02928,0.04636,-0.06344,-0.0488,-0.03416,0.00244,0.03904,0.01464,-0.0244,-0.04392,-0.04392,-0.03416
-0.0244,0.04392,-0.06344,-0.05124,-0.03904,0.00732,0.03904,0.01464,-0.0244,-0.0488,-0.04392,-0.03416
-0.01952,0.04392,-0.06832,-0.05856,-0.0488,0.01464,0.03904,0.01464,-0.0244,-0.0488,-0.0488,-0.03416
-0.01952,0.04392,-0.06832,-0.05856,-0.0488,0.01464,0.03416,0.01464,-0.02928,-0.05368,-0.0488,-0.03416
-0.01952,0.04392,-0.06832,-0.05856,-0.0488,0.01464,0.0244,0.00976,-0.02928,-0.05368,-0.0488,-0.03416
-0.0244,0.04636,-0.06832,-0.05612,-0.04392,0.00976,0.03416,0.01464,-0.02928,-0.0488,-0.0488,-0.03416
-0.0244,0.04636,-0.06832,-0.05612,-0.04392,0.00976,0.03904,0.01952,-0.02928,-0.0488,-0.0488,-0.03904
-0.01952,0.04392,-0.06832,-0.05856,-0.0488,0.01464,0.03904,0.01952,-0.02928,-0.0488,-0.0488,-0.03904
-0.01952,0.04392,-0.06832,-0.05856,-0.0488,0.01464,0.03904,0.01952,-0.0244,-0.0488,-0.05368,-0.03904
-0.01952,0.04392,-0.06832,-0.05856,-0.0488,0.01464,0.03904,0.01464,-0.0244,-0.0488,-0.05368,-0.03904
-0.01952,0.04392,-0.06832,-0.05856,-0.0488,0.01464,0.03416,0.00976,-0.0244,-0.0488,-0.05368,-0.03904
-0.01952,0.04148,-0.06344,-0.05368,-0.04392,0.0122,0.03416,0.00976,-0.0244,-0.0488,-0.05368,-0.03904
-0.01952,0.04148,-0.06344,-0.05368,-0.04392,0.0122,0.03416,0.00976,-0.0244,-0.04392,-0.05368,-0.03904
-0.01952,0.04148,-0.06344,-0.05368,-0.04392,0.0122,0.02928,0.00976,-0.0244,-0.04392,-0.05368,-0.03416
-0.0244,0.04392,-0.06344,-0.05124,-0.03904,0.00732,0.0244,0.00976,-0.0244,-0.04392,-0.0488,-0.03416
-0.0244,0.04148,-0.05856,-0.04636,-0.03416,0.00488,0.0244,0.00976,-0.0244,-0.04392,-0.0488,-0.03416
-0.01952,0.0366,-0.05368,-0.04392,-0.03416,0.00732,0.0244,0.00976,-0.0244,-0.04392,-0.0488,-0.03416
-0.01952,0.0366,-0.05368,-0.04392,-0.03416,0.00732,0.0244,0.01464,-0.0244,-0.04392,-0.0488,-0.03416
-0.01952,0.0366,-0.05368,-0.04392,-0.03416,0.00732,0.0244,0.01464,-0.0244,-0.04392,-0.0488,-0.03416
-0.01952,0.03904,-0.05856,-0.0488,-0.03904,0.00976,0.0244,0.01464,-0.0244,-0.04392,-0.0488,-0.03416
-0.01952,0.03904,-0.05856,-0.0488,-0.03904,0.00976,0.0244,0.01464,-0.0244,-0.04392,-0.0488,-0.03416
-0.01952,0.03904,-0.05856,-0.0488,-0.03904,0.00976,0.02928,0.01464,-0.0244,-0.04392,-0.05368,-0.03416
-0.01952,0.03904,-0.05856,-0.0488,-0.03904,0.00976,0.02928,0.01464,-0.0244,-0.04392,-0.05368,-0.03904
-0.01952,0.03904,-0.05856,-0.0488,-0.03904,0.00976,0.02928,0.01464,-0.02928,-0.03904,-0.05368,-0.04392
-0.01952,0.03904,-0.05856,-0.0488,-0.03904,0.00976,0.02928,0.00976,-0.02928,-0.03904,-0.05368,-0.0488
-0.01952,0.03904,-0.05856,-0.0488,-0.03904,0.00976,0.02928,0.00976,-0.03416,-0.04392,-0.05368,-0.0488
-0.01952,0.03904,-0.05856,-0.0488,-0.03904,0.00976,0.02928,0.00976,-0.03416,-0.05368,-0.05368,-0.0488
-0.01952,0.0366,-0.05368,-0.04392,-0.03416,0.00732,0.03416,0.00976,-0.03904,-0.05368,-0.05856,-0.04392
-0.01952,0.0366,-0.05368,-0.04392,-0.03416,0.00732,0.03416,0.00488,-0.03904,-0.05368,-0.05856,-0.03904
-0.01952,0.04392,-0.06832,-0.05856,-0.0488,0.01464,0.03416,0.00488,-0.03904,-0.05368,-0.05856,-0.03904
-0.01952,0.04636,-0.0732,-0.06344,-0.05368,0.01708,0.02928,0.00488,-0.03904,-0.05368,-0.05856,-0.03904
-0.01952,0.04636,-0.0732,-0.06344,-0.05368,0.01708,0.02928,0,-0.04392,-0.05368,-0.06344,-0.04392
-0.01952,0.04636,-0.0732,-0.06344,-0.05368,0.01708,0.02928,0,-0.0488,-0.05856,-0.06832,-0.04392
-0.01952,0.04636,-0.0732,-0.06344,-0.05368,0.01708,0.02928,0,-0.0488,-0.06344,-0.06832,-0.04392
-0.0244,0.05368,-0.08296,-0.07076,-0.05856,0.01708,0.02928,-0.00488,-0.05368,-0.06344,-0.06832,-0.04392
-0.0244,0.05368,-0.08296,-0.07076,-0.05856,0.01708,0.03416,-0.00488,-0.05856,-0.06344,-0.0732,-0.0488
-0.0244,0.05368,-0.08296,-0.07076,-0.05856,0.01708,0.03904,-0.00488,-0.05856,-0.06344,-0.0732,-0.0488
-0.02928,0.061,-0.09272,-0.07808,-0.06344,0.01708,0.03904,-0.00976,-0.06344,-0.06344,-0.0732,-0.0488
-0.02928,0.06344,-0.0976,-0.08296,-0.06832,0.01952,0.03904,-0.00976,-0.06344,-0.06344,-0.07808,-0.0488
-0.0244,0.061,-0.0976,-0.0854,-0.0732,0.0244,0.03904,-0.00976,-0.06344,-0.06832,-0.07808,-0.05368
-0.0244,0.061,-0.0976,-0.0854,-0.0732,0.0244,0.03904,-0.00976,-0.06344,-0.0732,-0.07808,-0.05368
-0.0244,0.061,-0.0976,-0.0854,-0.0732,0.0244,0.03904,-0.00976,-0.06832,-0.0732,-0.08296,-0.05856
-0.0244,0.061,-0.0976,-0.0854,-0.0732,0.0244,0.03904,-0.00976,-0.06832,-0.07808,-0.08296,-0.06344
-0.02928,0.06344,-0.0976,-0.08296,-0.06832,0.01952,0.04392,-0.00976,-0.0732,-0.07808,-0.08296,-0.06344
-0.02928,0.06588,-0.10248,-0.08784,-0.0732,0.02196,0.04392,-0.01464,-0.07808,-0.07808,-0.08296,-0.06344
-0.02928,0.06832,-0.10736,-0.09272,-0.07808,0.0244,0.03904,-0.01464,-0.08296,-0.08296,-0.08296,-0.06344
-0.02928,0.06832,-0.10736,-0.09272,-0.07808,0.0244,0.03904,-0.01464,-0.08296,-0.08296,-0.08296,-0.06832
-0.02928,0.06588,-0.10248,-0.08784,-0.0732,0.02196,0.04392,-0.01464,-0.07808,-0.08296,-0.08296,-0.06832
-0.02928,0.06588,-0.10248,-0.08784,-0.0732,0.02196,0.04392,-0.01464,-0.07808,-0.08296,-0.08784,-0.06832
-0.02928,0.06832,-0.10736,-0.09272,-0.07808,0.0244,0.04392,-0.01464,-0.07808,-0.08296,-0.08784,-0.06832
-0.02928,0.06832,-0.10736,-0.09272,-0.07808,0.0244,0.04392,-0.01464,-0.07808,-0.08784,-0.08784,-0.06832
-0.03416,0.07076,-0.10736,-0.09028,-0.0732,0.01952,0.03904,-0.01464,-0.07808,-0.08784,-0.08296,-0.06832
-0.03904,0.07076,-0.10248,-0.08296,-0.06344,0.0122,0.03904,-0.01464,-0.07808,-0.08784,-0.08296,-0.0732
-0.04392,0.07564,-0.10736,-0.0854,-0.06344,0.00976,0.04392,-0.01952,-0.08296,-0.08784,-0.08296,-0.0732
-0.04392,0.07564,-0.10736,-0.0854,-0.06344,0.00976,0.04392,-0.01952,-0.08296,-0.08784,-0.08296,-0.0732
-0.04392,0.07564,-0.10736,-0.0854,-0.06344,0.00976,0.03904,-0.01952,-0.08296,-0.08784,-0.08296,-0.0732
-0.03904,0.0732,-0.10736,-0.08784,-0.06832,0.01464,0.03416,-0.01952,-0.08296,-0.08784,-0.08296,-0.0732
-0.03904,0.0732,-0.10736,-0.08784,-0.06832,0.01464,0.03416,-0.01952,-0.08296,-0.08784,-0.08296,-0.06832
-0.03904,0.0732,-0.10736,-0.08784,-0.06832,0.01464,0.03416,-0.01952,-0.08296,-0.08784,-0.08296,-0.06344
-0.03904,0.0732,-0.10736,-0.08784,-0.06832,0.01464,0.03416,-0.01952,-0.08296,-0.08784,-0.08296,-0.06344
-0.03904,0.07564,-0.11224,-0.09272,-0.0732,0.01708,0.03904,-0.01952,-0.08784,-0.08784,-0.08784,-0.06832
-0.03904,0.07564,-0.11224,-0.09272,-0.0732,0.01708,0.03904,-0.01952,-0.08784,-0.08784,-0.09272,-0.0732
-0.03904,0.07808,-0.11712,-0.0976,-0.07808,0.01952,0.03904,-0.01952,-0.08784,-0.08784,-0.0976,-0.07808
-0.03904,0.07808,-0.11712,-0.0976,-0.07808,0.01952,0.04392,-0.01952,-0.08784,-0.08784,-0.0976,-0.07808
-0.03904,0.07808,-0.11712,-0.0976,-0.07808,0.01952,0.0488,-0.01952,-0.08784,-0.08784,-0.0976,-0.07808
-0.03904,0.07808,-0.11712,-0.0976,-0.07808,0.01952,0.0488,-0.01952,-0.08784,-0.08784,-0.0976,-0.07808
-0.03904,0.07564,-0.11224,-0.09272,-0.0732,0.01708,0.0488,-0.01952,-0.08784,-0.08784,-0.0976,-0.07808
-0.04392,0.07808,-0.11224,-0.09028,-0.06832,0.0122,0.0488,-0.01952,-0.08784,-0.09272,-0.10248,-0.07808
-0.04392,0.07564,-0.10736,-0.0854,-0.06344,0.00976,0.0488,-0.01952,-0.08784,-0.09272,-0.10248,-0.07808
-0.03904,0.07076,-0.10248,-0.08296,-0.06344,0.0122,0.0488,-0.01952,-0.08296,-0.09272,-0.0976,-0.07808
-0.03904,0.07076,-0.10248,-0.08296,-0.06344,0.0122,0.0488,-0.01952,-0.07808,-0.08784,-0.09272,-0.07808
-0.03904,0.07076,-0.10248,-0.08296,-0.06344,0.0122,0.0488,-0.01952,-0.07808,-0.08296,-0.08296,-0.0732
-0.03904,0.06344,-0.08784,-0.06832,-0.0488,0.00488,0.0488,-0.01464,-0.0732,-0.0732,-0.08296,-0.0732
-0.03416,0.061,-0.08784,-0.07076,-0.05368,0.00976,0.0488,-0.01464,-0.06832,-0.06832,-0.08784,-0.06832
-0.03416,0.05368,-0.0732,-0.05612,-0.03904,0.00244,0.0488,-0.00976,-0.05856,-0.06344,-0.08296,-0.06832
-0.02928,0.04636,-0.06344,-0.0488,-0.03416,0.00244,0.03904,-0.00976,-0.05856,-0.06344,-0.0732,-0.06344
-0.0244,0.03904,-0.05368,-0.04148,-0.02928,0.00244,0.02928,-0.00976,-0.05368,-0.0488,-0.0732,-0.05856
-0.01952,0.02928,-0.03904,-0.02928,-0.01952,0,0.0244,0,-0.04392,-0.0488,-0.06344,-0.05368
-0.00976,0.01708,-0.0244,-0.01952,-0.01464,0.00244,0.0244,0.00488,-0.03416,-0.03904,-0.05856,-0.0488
-0.00488,0.0122,-0.01952,-0.01708,-0.01464,0.00488,0.0244,0.01952,-0.02928,-0.02928,-0.05368,-0.04392
-0.00488,0.0122,-0.01952,-0.01708,-0.01464,0.00488,0.01952,0.01952,-0.02928,-0.02928,-0.05368,-0.04392
-0.00488,0.00976,-0.01464,-0.0122,-0.00976,0.00244,0.00488,0,-0.02928,-0.02928,-0.0488,-0.03904
-0.00488,0.00488,-0.00488,-0.00244,0,-0.00244,-0.00976,-0.01464,-0.02928,-0.02928,-0.0488,-0.03904
0.00488,-0.0122,0.01952,0.01708,0.01464,-0.00488,-0.02928,-0.01952,-0.02928,-0.02928,-0.0488,-0.02928
0.01952,-0.03904,0.05856,0.0488,0.03904,-0.00976,-0.02928,-0.01952,-0.00976,-0.00976,-0.02928,-0.01464
0.03904,-0.061,0.08296,0.06344,0.04392,-0.00244,-0.02928,-0.00488,0.00976,0.01952,-0.00488,0.00976
0.05368,-0.06832,0.08296,0.05612,0.02928,0.0122,-0.02928,0.01464,0.01952,0.03416,0.00976,0.01952
0.05856,-0.06832,0.07808,0.0488,0.01952,0.01952,-0.03904,-0.00488,0,0.0244,0,0.01952
0.05856,-0.06344,0.06832,0.03904,0.00976,0.0244,-0.04392,-0.01464,-0.00976,0.01464,-0.00488,0.01464
0.05368,-0.05124,0.0488,0.02196,-0.00488,0.02928,-0.04392,-0.01464,-0.01952,0.00488,-0.01464,0.01464
0.0488,-0.04148,0.03416,0.00976,-0.01464,0.03172,-0.03904,-0.01952,-0.01952,0.00488,-0.01464,0.00976
0.02928,-0.02684,0.0244,0.00976,-0.00488,0.01708,-0.02928,-0.01952,-0.01952,0,-0.0244,0.00488
0.00976,-0.00244,-0.00488,-0.00976,-0.01464,0.0122,-0.01464,-0.01952,-0.03416,-0.01464,-0.04392,-0.00976
-0.00488,0.0244,-0.04392,-0.04148,-0.03904,0.01708,0.00976,-0.01952,-0.05368,-0.04392,-0.06344,-0.03416
-0.03416,0.061,-0.08784,-0.07076,-0.05368,0.00976,0.03416,-0.0244,-0.07808,-0.07808,-0.0976,-0.06344
-0.03904,0.0732,-0.10736,-0.08784,-0.06832,0.01464,0.03904,-0.0244,-0.08784,-0.08784,-0.10248,-0.06832
-0.0488,0.08296,-0.11712,-0.09272,-0.06832,0.00976,0.03904,-0.0244,-0.08784,-0.08784,-0.10248,-0.07808
-0.0488,0.0854,-0.122,-0.0976,-0.0732,0.0122,0.04392,-0.0244,-0.0976,-0.09272,-0.10248,-0.07808
-0.0488,0.08784,-0.12688,-0.10248,-0.07808,0.01464,0.04392,-0.0244,-0.10248,-0.0976,-0.10736,-0.08296
-0.05368,0.09516,-0.13664,-0.1098,-0.08296,0.01464,0.0488,-0.02928,-0.11224,-0.0976,-0.11224,-0.08784
-0.05368,0.10004,-0.1464,-0.11956,-0.09272,0.01952,0.0488,-0.02928,-0.11224,-0.10248,-0.11224,-0.08784
-0.05856,0.10248,-0.1464,-0.11712,-0.08784,0.01464,0.0488,-0.02928,-0.10736,-0.10736,-0.10736,-0.09272
-0.05856,0.10736,-0.15616,-0.12688,-0.0976,0.01952,0.05368,-0.02928,-0.10248,-0.10736,-0.11224,-0.09272
-0.06832,0.11224,-0.15616,-0.122,-0.08784,0.00976,0.06344,-0.01464,-0.10248,-0.0976,-0.11712,-0.0976
-0.07808,0.12444,-0.1708,-0.13176,-0.09272,0.00732,0.08296,0,-0.10248,-0.10248,-0.13176,-0.10736
-0.10248,0.16836,-0.23424,-0.183,-0.13176,0.01464,0.14152,0.05368,-0.09272,-0.13176,-0.17568,-0.15128
-0.15616,0.24888,-0.3416,-0.26352,-0.18544,0.01464,0.27328,0.16592,-0.06344,-0.17568,-0.25864,-0.244
-0.18544,0.2806,-0.37576,-0.28304,-0.19032,0.00244,0.366,0.2684,0.00488,-0.16592,-0.28304,-0.29768
-0.17568,0.25864,-0.3416,-0.25376,-0.16592,-0.00488,0.36112,0.30744,0.09272,-0.08784,-0.22936,-0.28304
-0.13664,0.21228,-0.28792,-0.2196,-0.15128,0.00732,0.32208,0.32696,0.20496,0.02928,-0.13664,-0.22448
-0.03904,0.10248,-0.16592,-0.1464,-0.12688,0.04392,0.21472,0.3416,0.30256,0.17568,0.02928,-0.08296
0.11224,-0.11468,0.11712,0.061,0.00488,0.05368,0.00976,0.25864,0.44408,0.41968,0.30744,0.15128
0.27328,-0.35624,0.4392,0.30256,0.16592,0.05368,-0.20496,0.11712,0.58072,0.71736,0.65392,0.45384
0.47336,-0.60268,0.732,0.49532,0.25864,0.10736,-0.46848,-0.07808,0.7076,1.08336,1.098,0.85888
0.64904,-0.80032,0.9516,0.62708,0.30256,0.17324,-0.72712,-0.3172,0.6588,1.28832,1.44448,1.22976
0.69784,-0.90036,1.10288,0.75396,0.40504,0.1464,-0.89792,-0.6832,0.30744,1.18584,1.49816,1.34688
0.62952,-0.89304,1.15656,0.8418,0.52704,0.05124,-1.0248,-1.16632,-0.37576,0.69784,1.1956,1.22976
0.50752,-0.84424,1.18096,0.9272,0.67344,-0.08296,-1.09312,-1.52744,-0.89792,0.20008,0.80032,1.01016
0.37088,-0.72712,1.08336,0.89792,0.71248,-0.1708,-1.04432,-1.67872,-1.22488,-0.23424,0.40016,0.7564
0.20008,-0.35136,0.50264,0.4026,0.30256,-0.05124,-0.7076,-1.42496,-1.1956,-0.4636,0.05368,0.46848
0.01952,-0.06832,0.11712,0.10736,0.0976,-0.03904,-0.44896,-1.2688,-1.3664,-0.88328,-0.42944,0.11224
-0.08784,0.08052,-0.0732,-0.02928,0.01464,-0.05124,-0.2196,-0.98576,-1.1712,-0.83448,-0.49288,-0.05368
-0.18544,0.21716,-0.24888,-0.15616,-0.06344,-0.061,-0.03904,-0.74176,-0.93208,-0.72224,-0.51728,-0.20496
-0.20496,0.24156,-0.27816,-0.17568,-0.0732,-0.06588,-0.00488,-0.60024,-0.74664,-0.61976,-0.488,-0.23424
-0.18544,0.2318,-0.27816,-0.18544,-0.09272,-0.04636,-0.00488,-0.4636,-0.5856,-0.50264,-0.4148,-0.23424
-0.1708,0.20496,-0.23912,-0.15372,-0.06832,-0.05124,-0.00488,-0.3416,-0.45384,-0.39528,-0.33672,-0.20984
-0.15616,0.183,-0.20984,-0.13176,-0.05368,-0.05124,0.00976,-0.25864,-0.366,-0.31232,-0.27816,-0.18544
-0.122,0.15128,-0.18056,-0.11956,-0.05856,-0.03172,0.01952,-0.19032,-0.26352,-0.23912,-0.22936,-0.1464
-0.08784,0.12688,-0.16592,-0.122,-0.07808,-0.00488,0.03904,-0.10248,-0.16592,-0.15616,-0.1708,-0.11712
-0.07808,0.12932,-0.18056,-0.14152,-0.10248,0.0122,0.0732,-0.03416,-0.122,-0.122,-0.1464,-0.11224
-0.0732,0.12932,-0.18544,-0.14884,-0.11224,0.01952,0.09272,-0.00488,-0.10736,-0.10248,-0.12688,-0.10736
-0.0732,0.12932,-0.18544,-0.14884,-0.11224,0.01952,0.09272,0,-0.08296,-0.09272,-0.122,-0.10248
-0.06832,0.12444,-0.18056,-0.1464,-0.11224,0.02196,0.09272,0.00488,-0.05856,-0.08296,-0.122,-0.10248
-0.06832,0.122,-0.17568,-0.14152,-0.10736,0.01952,0.09272,0.0244,-0.05368,-0.0732,-0.122,-0.10248
-0.06832,0.11712,-0.16592,-0.13176,-0.0976,0.01464,0.08784,0.03904,-0.0488,-0.0732,-0.11712,-0.0976
-0.06344,0.11468,-0.16592,-0.1342,-0.10248,0.01952,0.09272,0.03904,-0.0488,-0.06832,-0.10736,-0.10248
-0.05856,0.1098,-0.16104,-0.13176,-0.10248,0.02196,0.09272,0.03904,-0.04392,-0.05856,-0.10736,-0.10248
-0.05856,0.1098,-0.16104,-0.13176,-0.10248,0.02196,0.09272,0.03904,-0.04392,-0.05856,-0.10248,-0.10248
-0.05856,0.1098,-0.16104,-0.13176,-0.10248,0.02196,0.09272,0.05368,-0.03904,-0.05856,-0.10248,-0.10248
-0.05856,0.1098,-0.16104,-0.13176,-0.10248,0.02196,0.09272,0.05368,-0.03416,-0.05368,-0.0976,-0.0976
-0.05856,0.1098,-0.16104,-0.13176,-0.10248,0.02196,0.0976,0.05856,-0.0244,-0.04392,-0.09272,-0.08784
-0.05856,0.10736,-0.15616,-0.12688,-0.0976,0.01952,0.0976,0.06344,-0.01464,-0.03904,-0.08296,-0.08784
-0.05368,0.10492,-0.15616,-0.12932,-0.10248,0.0244,0.0976,0.06832,-0.01464,-0.03416,-0.08296,-0.08784
-0.05368,0.10248,-0.15128,-0.12444,-0.0976,0.02196,0.0976,0.06832,-0.00976,-0.03416,-0.08296,-0.08784
-0.05368,0.10248,-0.15128,-0.12444,-0.0976,0.02196,0.0976,0.07808,0,-0.0244,-0.07808,-0.08296
-0.05368,0.10248,-0.15128,-0.12444,-0.0976,0.02196,0.0976,0.08784,0.00976,-0.01952,-0.07808,-0.07808
-0.0488,0.0976,-0.1464,-0.122,-0.0976,0.0244,0.09272,0.08784,0.01464,-0.01952,-0.0732,-0.07808
-0.0488,0.09516,-0.14152,-0.11712,-0.09272,0.02196,0.08784,0.09272,0.01952,-0.01464,-0.06344,-0.0732
-0.04392,0.09028,-0.13664,-0.11468,-0.09272,0.0244,0.08296,0.10248,0.02928,-0.00488,-0.05856,-0.0732
-0.04392,0.09028,-0.13664,-0.11468,-0.09272,0.0244,0.08296,0.10736,0.03904,0.00488,-0.05856,-0.06832
-0.04392,0.09028,-0.13664,-0.11468,-0.09272,0.0244,0.08296,0.11712,0.0488,0.01464,-0.05368,-0.06344
-0.03904,0.08296,-0.12688,-0.10736,-0.08784,0.0244,0.08296,0.122,0.05856,0.01952,-0.04392,-0.06344
-0.03904,0.08052,-0.122,-0.10248,-0.08296,0.02196,0.08784,0.13176,0.06832,0.02928,-0.03904,-0.05856
-0.03416,0.07564,-0.11712,-0.10004,-0.08296,0.0244,0.08784,0.14152,0.08296,0.03904,-0.02928,-0.05368
-0.02928,0.0732,-0.11712,-0.10248,-0.08784,0.02928,0.08784,0.1464,0.0976,0.05368,-0.01952,-0.0488
-0.0244,0.06832,-0.11224,-0.10004,-0.08784,0.03172,0.08784,0.16104,0.11224,0.05856,-0.01464,-0.04392
-0.0244,0.06344,-0.10248,-0.09028,-0.07808,0.02684,0.08784,0.1708,0.12688,0.06344,-0.00488,-0.03416
-0.01952,0.05612,-0.09272,-0.08296,-0.0732,0.02684,0.08296,0.18056,0.15128,0.07808,0.01464,-0.02928
-0.01464,0.0488,-0.08296,-0.07564,-0.06832,0.02684,0.07808,0.1952,0.16592,0.09272,0.02928,-0.0244
-0.00976,0.04392,-0.07808,-0.0732,-0.06832,0.02928,0.07808,0.20496,0.18056,0.11224,0.04392,-0.01952
-0.00976,0.03904,-0.06832,-0.06344,-0.05856,0.0244,0.07808,0.21472,0.1952,0.13176,0.05856,-0.00976
-0.00488,0.03172,-0.05856,-0.05612,-0.05368,0.0244,0.07808,0.23424,0.22448,0.15128,0.06832,0
0.00488,0.01952,-0.04392,-0.04636,-0.0488,0.02684,0.0732,0.24888,0.244,0.1708,0.08296,0.00976
0.01464,0.00732,-0.02928,-0.0366,-0.04392,0.02928,0.06344,0.27328,0.26352,0.18544,0.09272,0.01952
0.0244,-0.00488,-0.01464,-0.02684,-0.03904,0.03172,0.05856,0.28304,0.27816,0.20008,0.11712,0.03904
0.03416,-0.01708,0,-0.01708,-0.03416,0.03416,0.06344,0.29768,0.31232,0.22448,0.13176,0.05368
0.04392,-0.02684,0.00976,-0.0122,-0.03416,0.03904,0.06344,0.32208,0.3416,0.25376,0.15128,0.06832
0.0488,-0.03904,0.02928,0.00488,-0.01952,0.03416,0.05856,0.33672,0.36112,0.27328,0.17568,0.08296
0.05856,-0.05612,0.05368,0.0244,-0.00488,0.03172,0.0488,0.3416,0.37576,0.2928,0.19032,0.09272
0.06344,-0.06588,0.06832,0.0366,0.00488,0.02928,0.0488,0.34648,0.39528,0.3172,0.20984,0.10736
0.06832,-0.07564,0.08296,0.0488,0.01464,0.02684,0.04392,0.35624,0.41968,0.33184,0.22936,0.122
0.07808,-0.09028,0.10248,0.06344,0.0244,0.02684,0.03904,0.36112,0.42944,0.34648,0.244,0.12688
0.08296,-0.0976,0.11224,0.07076,0.02928,0.02684,0.03416,0.366,0.4392,0.36112,0.25376,0.13664
0.08296,-0.10492,0.12688,0.0854,0.04392,0.01952,0.02928,0.366,0.44896,0.366,0.26352,0.1464
0.08784,-0.11468,0.14152,0.0976,0.05368,0.01708,0.0244,0.366,0.45384,0.37088,0.2684,0.15616
0.09272,-0.12444,0.15616,0.1098,0.06344,0.01464,0.01952,0.366,0.45384,0.37576,0.27816,0.16104
0.0976,-0.13176,0.16592,0.11712,0.06832,0.01464,0.01952,0.35624,0.44896,0.38064,0.28304,0.1708
0.0976,-0.13664,0.17568,0.12688,0.07808,0.00976,0.01464,0.35136,0.44408,0.38552,0.28304,0.17568
0.10248,-0.14396,0.18544,0.1342,0.08296,0.00976,0.01464,0.33672,0.4392,0.3904,0.28304,0.17568
0.10248,-0.14884,0.1952,0.14396,0.09272,0.00488,0.00488,0.32208,0.42944,0.38064,0.28792,0.18056
0.10248,-0.15128,0.20008,0.14884,0.0976,0.00244,0,0.30256,0.4148,0.37576,0.28792,0.18056
0.0976,-0.1464,0.1952,0.1464,0.0976,0,0,0.28792,0.40016,0.36112,0.28304,0.18544
0.09272,-0.14396,0.1952,0.14884,0.10248,-0.00488,-0.00488,0.2684,0.38064,0.3416,0.27328,0.18544
0.08784,-0.14152,0.1952,0.15128,0.10736,-0.00976,-0.01464,0.24888,0.35136,0.32208,0.26352,0.18056
0.07808,-0.12932,0.18056,0.14152,0.10248,-0.0122,-0.01464,0.22936,0.33184,0.30256,0.23912,0.16592
0.07808,-0.12444,0.1708,0.13176,0.09272,-0.00732,-0.00488,0.20984,0.30256,0.27816,0.22448,0.15128
0.0732,-0.11468,0.15616,0.11956,0.08296,-0.00488,0,0.18544,0.2684,0.24888,0.1952,0.13176
0.06344,-0.10004,0.13664,0.10492,0.0732,-0.00488,0.00488,0.16592,0.23424,0.2196,0.16592,0.11224
0.05856,-0.08784,0.11712,0.08784,0.05856,0,0.00488,0.1464,0.20496,0.19032,0.1464,0.08784
0.04392,-0.06832,0.09272,0.07076,0.0488,-0.00244,0.01464,0.13176,0.1708,0.16592,0.11712,0.06832
0.03904,-0.05612,0.0732,0.05368,0.03416,0.00244,0.0244,0.122,0.15128,0.14152,0.09272,0.05368
0.02928,-0.03416,0.03904,0.0244,0.00976,0.00976,0.0244,0.10736,0.122,0.12688,0.06832,0.03416
0.01464,-0.01708,0.01952,0.0122,0.00488,0.00488,0.03416,0.0976,0.09272,0.10248,0.0488,0.01952
0.00488,-0.00732,0.00976,0.00732,0.00488,0,0.03416,0.08296,0.06832,0.07808,0.02928,0.00488
-0.00976,0.00732,-0.00488,0,0.00488,-0.00732,0.03416,0.0732,0.05368,0.05856,0.00976,-0.00976
-0.00976,0.0122,-0.01464,-0.00976,-0.00488,-0.00244,0.03416,0.05856,0.03416,0.03904,-0.00976,-0.01952
-0.01464,0.01952,-0.0244,-0.01708,-0.00976,-0.00244,0.03416,0.0488,0.01952,0.0244,-0.0244,-0.0244
-0.01464,0.02684,-0.03904,-0.03172,-0.0244,0.00488,0.03416,0.0488,0.00488,0.01464,-0.02928,-0.03416
-0.01952,0.03416,-0.0488,-0.03904,-0.02928,0.00488,0.03904,0.03904,-0.00488,0.00976,-0.03904,-0.04392
-0.01952,0.0366,-0.05368,-0.04392,-0.03416,0.00732,0.03904,0.03416,-0.00976,-0.00488,-0.04392,-0.0488
-0.0244,0.04148,-0.05856,-0.04636,-0.03416,0.00488,0.03904,0.03416,-0.01952,-0.01464,-0.0488,-0.0488
-0.0244,0.04148,-0.05856,-0.04636,-0.03416,0.00488,0.04392,0.03416,-0.01952,-0.01464,-0.05368,-0.0488
-0.02928,0.04636,-0.06344,-0.0488,-0.03416,0.00244,0.0488,0.03416,-0.01464,-0.01464,-0.05368,-0.05368
-0.02928,0.04636,-0.06344,-0.0488,-0.03416,0.00244,0.0488,0.03416,-0.01464,-0.01952,-0.0488,-0.05368
-0.02928,0.0488,-0.06832,-0.05368,-0.03904,0.00488,0.0488,0.03416,-0.01464,-0.01952,-0.0488,-0.05368
-0.02928,0.0488,-0.06832,-0.05368,-0.03904,0.00488,0.0488,0.03416,-0.01952,-0.01952,-0.0488,-0.05368
-0.02928,0.0488,-0.06832,-0.05368,-0.03904,0.00488,0.04392,0.02928,-0.01952,-0.01464,-0.0488,-0.05368
-0.02928,0.0488,-0.06832,-0.05368,-0.03904,0.00488,0.04392,0.02928,-0.01952,-0.01464,-0.0488,-0.05368
-0.0244,0.04636,-0.06832,-0.05612,-0.04392,0.00976,0.03904,0.02928,-0.01952,-0.01952,-0.0488,-0.05856
-0.01952,0.04148,-0.06344,-0.05368,-0.04392,0.0122,0.03904,0.02928,-0.01952,-0.01952,-0.0488,-0.05856
-0.01952,0.03904,-0.05856,-0.0488,-0.03904,0.00976,0.03904,0.02928,-0.01464,-0.01952,-0.05368,-0.05856
-0.0244,0.04148,-0.05856,-0.04636,-0.03416,0.00488,0.03904,0.02928,-0.01464,-0.01952,-0.05368,-0.05856
-0.02928,0.04392,-0.05856,-0.04392,-0.02928,0,0.03416,0.02928,-0.01464,-0.01952,-0.05368,-0.05856
-0.02928,0.04148,-0.05368,-0.03904,-0.0244,-0.00244,0.03416,0.02928,-0.01464,-0.01952,-0.05368,-0.05856
-0.02928,0.04148,-0.05368,-0.03904,-0.0244,-0.00244,0.03416,0.02928,-0.01464,-0.01464,-0.05368,-0.05856
-0.0244,0.04148,-0.05856,-0.04636,-0.03416,0.00488,0.03416,0.02928,-0.01464,-0.01464,-0.05368,-0.0488
-0.0244,0.04392,-0.06344,-0.05124,-0.03904,0.00732,0.03416,0.02928,-0.01464,-0.01464,-0.0488,-0.04392
-0.0244,0.04392,-0.06344,-0.05124,-0.03904,0.00732,0.03416,0.02928,-0.01464,-0.01464,-0.0488,-0.04392
-0.01952,0.04148,-0.06344,-0.05368,-0.04392,0.0122,0.03416,0.02928,-0.01464,-0.01464,-0.0488,-0.04392
-0.01952,0.03904,-0.05856,-0.0488,-0.03904,0.00976,0.03416,0.02928,-0.01464,-0.01464,-0.05368,-0.0488
-0.01952,0.0366,-0.05368,-0.04392,-0.03416,0.00732,0.03416,0.0244,-0.01464,-0.01464,-0.05856,-0.05368
-0.0244,0.03904,-0.05368,-0.04148,-0.02928,0.00244,0.03416,0.01952,-0.01464,-0.01952,-0.05856,-0.05368
-0.02928,0.03904,-0.0488,-0.03416,-0.01952,-0.00488,0.03416,0.01464,-0.01464,-0.0244,-0.05856,-0.05368
-0.02928,0.03904,-0.0488,-0.03416,-0.01952,-0.00488,0.02928,0.01464,-0.01952,-0.0244,-0.06344,-0.05368
-0.02928,0.03904,-0.0488,-0.03416,-0.01952,-0.00488,0.01952,0.01464,-0.0244,-0.0244,-0.06344,-0.05856
-0.02928,0.03904,-0.0488,-0.03416,-0.01952,-0.00488,0.01952,0.01464,-0.02928,-0.01952,-0.06344,-0.06344
-0.02928,0.03904,-0.0488,-0.03416,-0.01952,-0.00488,0.01952,0.00976,-0.02928,-0.01952,-0.06344,-0.06832
-0.02928,0.04392,-0.05856,-0.04392,-0.02928,0,0.0244,0.01464,-0.02928,-0.01952,-0.06344,-0.06832
-0.02928,0.0488,-0.06832,-0.05368,-0.03904,0.00488,0.02928,0.01952,-0.0244,-0.0244,-0.06344,-0.06832
-0.02928,0.04636,-0.06344,-0.0488,-0.03416,0.00244,0.03416,0.01952,-0.02928,-0.0244,-0.06832,-0.06344
-0.02928,0.04636,-0.06344,-0.0488,-0.03416,0.00244,0.03416,0.01464,-0.02928,-0.0244,-0.06832,-0.05856
-0.02928,0.05124,-0.0732,-0.05856,-0.04392,0.00732,0.03416,0.01464,-0.02928,-0.02928,-0.06344,-0.05856
-0.02928,0.05124,-0.0732,-0.05856,-0.04392,0.00732,0.02928,0.01464,-0.02928,-0.03416,-0.05856,-0.05856
-0.02928,0.05124,-0.0732,-0.05856,-0.04392,0.00732,0.02928,0.00976,-0.03416,-0.03416,-0.06344,-0.06344
-0.02928,0.05124,-0.0732,-0.05856,-0.04392,0.00732,0.02928,0.00976,-0.03904,-0.03904,-0.06832,-0.06344
-0.02928,0.0488,-0.06832,-0.05368,-0.03904,0.00488,0.02928,0.00976,-0.03904,-0.04392,-0.0732,-0.06344
-0.03416,0.05368,-0.0732,-0.05612,-0.03904,0.00244,0.02928,0.00488,-0.04392,-0.04392,-0.07808,-0.06344
-0.03416,0.05368,-0.0732,-0.05612,-0.03904,0.00244,0.02928,0.00488,-0.0488,-0.04392,-0.08296,-0.06832
-0.03416,0.05368,-0.0732,-0.05612,-0.03904,0.00244,0.02928,0.00488,-0.0488,-0.04392,-0.08296,-0.06832
-0.03904,0.05856,-0.07808,-0.05856,-0.03904,0,0.02928,0,-0.05368,-0.04392,-0.07808,-0.06832
-0.03904,0.05856,-0.07808,-0.05856,-0.03904,0,0.02928,0,-0.05368,-0.04392,-0.07808,-0.06832
-0.03416,0.05856,-0.08296,-0.06588,-0.0488,0.00732,0.02928,0,-0.05368,-0.0488,-0.07808,-0.0732
-0.03416,0.061,-0.08784,-0.07076,-0.05368,0.00976,0.02928,0,-0.05368,-0.05368,-0.07808,-0.0732
-0.03416,0.061,-0.08784,-0.07076,-0.05368,0.00976,0.02928,0,-0.05856,-0.05368,-0.08784,-0.07808
-0.03416,0.061,-0.08784,-0.07076,-0.05368,0.00976,0.02928,0,-0.05856,-0.05856,-0.09272,-0.08296
-0.04392,0.06588,-0.08784,-0.06588,-0.04392,0,0.03416,0,-0.05856,-0.05856,-0.09272,-0.08296
-0.0488,0.07076,-0.09272,-0.06832,-0.04392,-0.00244,0.03416,-0.00488,-0.05856,-0.05856,-0.09272,-0.08296
-0.0488,0.0732,-0.0976,-0.0732,-0.0488,0,0.02928,-0.00488,-0.06344,-0.06344,-0.09272,-0.07808
-0.0488,0.0732,-0.0976,-0.0732,-0.0488,0,0.02928,-0.00488,-0.06344,-0.06344,-0.09272,-0.07808
-0.0488,0.07076,-0.09272,-0.06832,-0.04392,-0.00244,0.03416,-0.00488,-0.06344,-0.06344,-0.08784,-0.07808
-0.0488,0.07076,-0.09272,-0.06832,-0.04392,-0.00244,0.03416,-0.00488,-0.06832,-0.06344,-0.08784,-0.07808
-0.0488,0.0732,-0.0976,-0.0732,-0.0488,0,0.03904,-0.00488,-0.06832,-0.06344,-0.08784,-0.07808
-0.0488,0.0732,-0.0976,-0.0732,-0.0488,0,0.04392,-0.00488,-0.06832,-0.06832,-0.08784,-0.07808
-0.0488,0.0732,-0.0976,-0.0732,-0.0488,0,0.03904,-0.00488,-0.06344,-0.06832,-0.08784,-0.07808
-0.0488,0.07076,-0.09272,-0.06832,-0.04392,-0.00244,0.03904,-0.00488,-0.05856,-0.06832,-0.09272,-0.08296
-0.05368,0.07564,-0.0976,-0.07076,-0.04392,-0.00488,0.03904,-0.00976,-0.06344,-0.06832,-0.09272,-0.08296
-0.05368,0.07564,-0.0976,-0.07076,-0.04392,-0.00488,0.03416,-0.00976,-0.06344,-0.06832,-0.09272,-0.08296
-0.05368,0.07564,-0.0976,-0.07076,-0.04392,-0.00488,0.03416,-0.00976,-0.06344,-0.06832,-0.09272,-0.08296
-0.0488,0.0732,-0.0976,-0.0732,-0.0488,0,0.03416,-0.00976,-0.06344,-0.06832,-0.09272,-0.08296
-0.0488,0.0732,-0.0976,-0.0732,-0.0488,0,0.03416,-0.00976,-0.06344,-0.06832,-0.09272,-0.08296
-0.0488,0.0732,-0.0976,-0.0732,-0.0488,0,0.03416,-0.00976,-0.06344,-0.06832,-0.09272,-0.08296
-0.0488,0.0732,-0.0976,-0.0732,-0.0488,0,0.03416,-0.01464,-0.06344,-0.06832,-0.09272,-0.08296
-0.0488,0.0732,-0.0976,-0.0732,-0.0488,0,0.03416,-0.01952,-0.06344,-0.0732,-0.09272,-0.08296
-0.0488,0.0732,-0.0976,-0.0732,-0.0488,0,0.03416,-0.01952,-0.06344,-0.06832,-0.09272,-0.08296
-0.0488,0.07564,-0.10248,-0.07808,-0.05368,0.00244,0.03904,-0.01952,-0.06832,-0.06832,-0.0976,-0.08784
-0.0488,0.0732,-0.0976,-0.0732,-0.0488,0,0.03416,-0.01952,-0.06832,-0.06832,-0.0976,-0.08784
-0.0488,0.0732,-0.0976,-0.0732,-0.0488,0,0.02928,-0.01952,-0.06832,-0.06832,-0.0976,-0.08784
-0.0488,0.0732,-0.0976,-0.0732,-0.0488,0,0.02928,-0.01952,-0.0732,-0.0732,-0.0976,-0.08784
-0.0488,0.0732,-0.0976,-0.0732,-0.0488,0,0.02928,-0.01952,-0.07808,-0.07808,-0.0976,-0.08784
-0.0488,0.07564,-0.10248,-0.07808,-0.05368,0.00244,0.02928,-0.01952,-0.07808,-0.07808,-0.0976,-0.08784
-0.0488,0.07564,-0.10248,-0.07808,-0.05368,0.00244,0.02928,-0.01952,-0.07808,-0.07808,-0.0976,-0.08784
-0.05368,0.08052,-0.10736,-0.08052,-0.05368,0,0.02928,-0.01952,-0.07808,-0.08296,-0.10248,-0.08784
-0.05368,0.08052,-0.10736,-0.08052,-0.05368,0,0.02928,-0.01952,-0.07808,-0.08296,-0.10248,-0.08784
-0.0488,0.07564,-0.10248,-0.07808,-0.05368,0.00244,0.02928,-0.01952,-0.07808,-0.08784,-0.10248,-0.08784
-0.0488,0.07564,-0.10248,-0.07808,-0.05368,0.00244,0.02928,-0.01952,-0.07808,-0.08784,-0.10248,-0.08784
-0.0488,0.07564,-0.10248,-0.07808,-0.05368,0.00244,0.02928,-0.01952,-0.07808,-0.08296,-0.09272,-0.08296
-0.0488,0.06832,-0.08784,-0.06344,-0.03904,-0.00488,0.02928,-0.01464,-0.0732,-0.0732,-0.09272,-0.08296
-0.04392,0.06588,-0.08784,-0.06588,-0.04392,0,0.02928,-0.01464,-0.06832,-0.06832,-0.0976,-0.07808
-0.04392,0.05856,-0.0732,-0.05124,-0.02928,-0.00732,0.02928,-0.00976,-0.05856,-0.06344,-0.09272,-0.07808
-0.03904,0.05124,-0.06344,-0.04392,-0.0244,-0.00732,0.0244,-0.00976,-0.05856,-0.06832,-0.08296,-0.0732
-0.03416,0.04392,-0.05368,-0.0366,-0.01952,-0.00732,0.01952,-0.00976,-0.05368,-0.05856,-0.08296,-0.06832
-0.02928,0.03172,-0.03416,-0.01952,-0.00488,-0.0122,0.01464,-0.00488,-0.04392,-0.05856,-0.0732,-0.06344
-0.01952,0.01708,-0.01464,-0.00488,0.00488,-0.0122,0.01464,-0.00488,-0.03416,-0.0488,-0.06832,-0.05856
-0.01464,0.0122,-0.00976,-0.00244,0.00488,-0.00976,0.01952,0.01464,-0.02928,-0.03904,-0.05856,-0.05368
-0.01464,0.0122,-0.00976,-0.00244,0.00488,-0.00976,0.01952,0.01952,-0.02928,-0.03904,-0.05368,-0.05368
-0.01952,0.01464,-0.00976,0,0.00976,-0.01464,0.00488,0.00488,-0.02928,-0.03904,-0.0488,-0.05368
-0.0244,0.01464,-0.00488,0.00732,0.01952,-0.02196,-0.00976,-0.00488,-0.02928,-0.03904,-0.0488,-0.05856
-0.01464,0,0.01464,0.02196,0.02928,-0.02196,-0.03416,-0.01464,-0.03904,-0.03904,-0.05856,-0.0488
0,-0.0244,0.0488,0.0488,0.0488,-0.0244,-0.03904,-0.01952,-0.02928,-0.01952,-0.0488,-0.03416
0.01952,-0.0488,0.07808,0.06832,0.05856,-0.01952,-0.03904,-0.00488,0.00488,0.00976,-0.01464,-0.00976
0.03416,-0.05856,0.08296,0.06588,0.0488,-0.00732,-0.03904,0.01464,0.02928,0.0244,0.00976,0
0.0488,-0.06832,0.08784,0.06344,0.03904,0.00488,-0.0488,-0.00488,0.00976,0.01464,0,0
0.05856,-0.0732,0.08784,0.05856,0.02928,0.01464,-0.05368,-0.01464,0,0.00488,-0.00488,-0.00488
0.05368,-0.06344,0.0732,0.04636,0.01952,0.01708,-0.05856,-0.01464,-0.00976,-0.00488,-0.01464,0
0.0488,-0.05612,0.06344,0.03904,0.01464,0.01708,-0.05856,-0.01952,-0.00976,-0.00488,-0.01464,0
0.02928,-0.04636,0.06344,0.0488,0.03416,-0.00244,-0.05368,-0.01952,-0.00976,-0.00488,-0.00976,0
0.00976,-0.02684,0.04392,0.03904,0.03416,-0.0122,-0.04392,-0.01952,-0.0244,-0.01464,-0.01464,-0.00976
-0.00488,0.00244,0,0.00244,0.00488,-0.00488,-0.01952,-0.01952,-0.04392,-0.03904,-0.04392,-0.03416
-0.03416,0.04148,-0.0488,-0.03172,-0.01464,-0.00976,0.00488,-0.0244,-0.06832,-0.06832,-0.08784,-0.06344
-0.03904,0.05856,-0.07808,-0.05856,-0.03904,0,0.01464,-0.0244,-0.08296,-0.08296,-0.0976,-0.0732
-0.0488,0.0732,-0.0976,-0.0732,-0.0488,0,0.01952,-0.0244,-0.08784,-0.08784,-0.10248,-0.08784
-0.05368,0.07808,-0.10248,-0.07564,-0.0488,-0.00244,0.0244,-0.0244,-0.09272,-0.09272,-0.10248,-0.08784
-0.05856,0.08296,-0.10736,-0.07808,-0.0488,-0.00488,0.0244,-0.0244,-0.09272,-0.0976,-0.10736,-0.09272
-0.06344,0.09028,-0.11712,-0.0854,-0.05368,-0.00488,0.02928,-0.02928,-0.10248,-0.0976,-0.11224,-0.0976
-0.06344,0.09516,-0.12688,-0.09516,-0.06344,0,0.02928,-0.02928,-0.10248,-0.10248,-0.11224,-0.0976
-0.06832,0.0976,-0.12688,-0.09272,-0.05856,-0.00488,0.02928,-0.02928,-0.10248,-0.10736,-0.11224,-0.10248
-0.06832,0.10248,-0.13664,-0.10248,-0.06832,0,0.03416,-0.02928,-0.10248,-0.10736,-0.122,-0.10248
-0.06832,0.10004,-0.13176,-0.0976,-0.06344,-0.00244,0.03416,-0.02928,-0.10736,-0.10736,-0.11712,-0.10248
-0.06832,0.10492,-0.14152,-0.10736,-0.0732,0.00244,0.04392,-0.02928,-0.11224,-0.122,-0.122,-0.10736
-0.09272,0.14396,-0.1952,-0.14884,-0.10248,0.00488,0.07808,-0.00488,-0.122,-0.15128,-0.16592,-0.13664
-0.1464,0.2196,-0.2928,-0.2196,-0.1464,0,0.18544,0.07808,-0.11224,-0.1952,-0.24888,-0.21472
-0.20008,0.2806,-0.36112,-0.26108,-0.16104,-0.01952,0.32208,0.21472,-0.06344,-0.22936,-0.32208,-0.30744
-0.21472,0.28792,-0.36112,-0.25376,-0.1464,-0.03416,0.36112,0.28792,0.00488,-0.1952,-0.3172,-0.33184
-0.1952,0.27816,-0.36112,-0.26352,-0.16592,-0.01464,0.366,0.3172,0.11224,-0.10736,-0.2684,-0.32208
-0.11712,0.20496,-0.2928,-0.23424,-0.17568,0.02928,0.30256,0.3416,0.20496,0.00976,-0.1464,-0.22936
0.00976,0.00976,-0.02928,-0.03416,-0.03904,0.0244,0.0976,0.27328,0.32696,0.20984,0.07808,-0.04392
0.1464,-0.20984,0.27328,0.20008,0.12688,0.00976,-0.11712,0.1464,0.44408,0.4636,0.37088,0.20984
0.366,-0.49776,0.62952,0.44652,0.26352,0.05124,-0.40016,-0.0244,0.67344,0.93208,0.89304,0.64416
0.5612,-0.73688,0.91256,0.63196,0.35136,0.10492,-0.67832,-0.23912,0.72712,1.23952,1.3176,1.04432
0.67832,-0.89304,1.10776,0.7686,0.42944,0.12444,-0.88816,-0.5612,0.49288,1.30784,1.5372,1.2932
0.67832,-0.94184,1.20536,0.8662,0.52704,0.07564,-1.05408,-1.0004,-0.0732,0.99064,1.40056,1.30784
0.58072,-0.96624,1.35176,1.0614,0.77104,-0.09516,-1.21512,-1.50792,-0.72712,0.44896,1.01992,1.11752
0.46848,-0.92232,1.37616,1.14192,0.90768,-0.2196,-1.25904,-1.8056,-1.18584,-0.02928,0.6344,0.89304
0.28792,-0.51728,0.74664,0.60268,0.45872,-0.0854,-0.91256,-1.56648,-1.19072,-0.31232,0.25864,0.61976
0.0976,-0.20496,0.31232,0.26352,0.21472,-0.05856,-0.64416,-1.42496,-1.39568,-0.78568,-0.25376,0.27816
-0.03416,-0.01464,0.06344,0.08052,0.0976,-0.06588,-0.37576,-1.1224,-1.2444,-0.81496,-0.40016,0.06344
-0.15616,0.16348,-0.1708,-0.09272,-0.01464,-0.07076,-0.15616,-0.85888,-1.0492,-0.7808,-0.50752,-0.13664
-0.19032,0.21228,-0.23424,-0.13908,-0.04392,-0.0732,-0.09272,-0.69784,-0.84424,-0.66856,-0.49776,-0.20496
-0.18544,0.22692,-0.2684,-0.17568,-0.08296,-0.05124,-0.06344,-0.54168,-0.66368,-0.54168,-0.44408,-0.244
-0.1708,0.20008,-0.22936,-0.14396,-0.05856,-0.05612,-0.05856,-0.40016,-0.51728,-0.42944,-0.36112,-0.22448
-0.15616,0.17812,-0.20008,-0.122,-0.04392,-0.05612,-0.03904,-0.29768,-0.4148,-0.3416,-0.29768,-0.20496
-0.13176,0.1464,-0.16104,-0.09516,-0.02928,-0.05124,-0.02928,-0.23424,-0.30744,-0.27328,-0.25376,-0.1708
-0.10736,0.122,-0.13664,-0.08296,-0.02928,-0.03904,-0.00976,-0.15128,-0.20496,-0.1952,-0.20008,-0.1464
-0.09272,0.11956,-0.1464,-0.10004,-0.05368,-0.01952,0.03416,-0.06832,-0.1464,-0.15616,-0.1708,-0.14152
-0.08296,0.11468,-0.1464,-0.10492,-0.06344,-0.00976,0.06344,-0.0244,-0.11712,-0.13176,-0.1464,-0.13664
-0.08296,0.11468,-0.1464,-0.10492,-0.06344,-0.00976,0.06344,-0.01952,-0.09272,-0.122,-0.13664,-0.12688
-0.07808,0.1098,-0.14152,-0.10248,-0.06344,-0.00732,0.06344,-0.01464,-0.06832,-0.11224,-0.13176,-0.122
-0.07808,0.1098,-0.14152,-0.10248,-0.06344,-0.00732,0.06832,0.00976,-0.06344,-0.10248,-0.13176,-0.122
-0.07808,0.10736,-0.13664,-0.0976,-0.05856,-0.00976,0.06832,0.02928,-0.05856,-0.10248,-0.12688,-0.11712
-0.0732,0.10736,-0.14152,-0.10492,-0.06832,-0.00244,0.0732,0.02928,-0.05368,-0.0976,-0.11712,-0.11712
-0.06832,0.10492,-0.14152,-0.10736,-0.0732,0.00244,0.0732,0.02928,-0.04392,-0.08784,-0.11712,-0.11224
-0.06832,0.10492,-0.14152,-0.10736,-0.0732,0.00244,0.0732,0.02928,-0.04392,-0.08784,-0.11224,-0.11224
-0.06832,0.10492,-0.14152,-0.10736,-0.0732,0.00244,0.0732,0.04392,-0.03904,-0.08784,-0.11224,-0.11224
-0.06832,0.10492,-0.14152,-0.10736,-0.0732,0.00244,0.0732,0.04392,-0.03416,-0.08296,-0.10736,-0.11224
-0.06832,0.10492,-0.14152,-0.10736,-0.0732,0.00244,0.07808,0.0488,-0.0244,-0.0732,-0.10248,-0.10736
-0.06832,0.10248,-0.13664,-0.10248,-0.06832,0,0.07808,0.05368,-0.01464,-0.06832,-0.09272,-0.10736
-0.06344,0.10004,-0.13664,-0.10492,-0.0732,0.00488,0.07808,0.05856,-0.01464,-0.06344,-0.09272,-0.10736
-0.06344,0.09516,-0.12688,-0.09516,-0.06344,0,0.07808,0.05856,-0.00976,-0.06344,-0.09272,-0.10736
-0.06344,0.09272,-0.122,-0.09028,-0.05856,-0.00244,0.07808,0.06832,0,-0.05368,-0.08784,-0.10248
-0.06344,0.09272,-0.122,-0.09028,-0.05856,-0.00244,0.07808,0.07808,0.00976,-0.0488,-0.09272,-0.0976
-0.05856,0.08784,-0.11712,-0.08784,-0.05856,0,0.0732,0.07808,0.01464,-0.0488,-0.09272,-0.0976
-0.05856,0.0854,-0.11224,-0.08296,-0.05368,-0.00244,0.0732,0.08296,0.01952,-0.04392,-0.08296,-0.09272
-0.05368,0.08052,-0.10736,-0.08052,-0.05368,0,0.0732,0.09272,0.02928,-0.03416,-0.07808,-0.09272
-0.05368,0.08296,-0.11224,-0.0854,-0.05856,0.00244,0.0732,0.0976,0.03904,-0.0244,-0.07808,-0.08784
-0.05368,0.0854,-0.11712,-0.09028,-0.06344,0.00488,0.0732,0.10736,0.0488,-0.01464,-0.0732,-0.08296
-0.0488,0.07808,-0.10736,-0.08296,-0.05856,0.00488,0.06832,0.11224,0.05856,-0.00976,-0.06344,-0.08296
-0.0488,0.07564,-0.10248,-0.07808,-0.05368,0.00244,0.06832,0.122,0.06832,0,-0.05856,-0.07808
-0.04392,0.06832,-0.09272,-0.07076,-0.0488,0.00244,0.06832,0.13176,0.08296,0.00976,-0.0488,-0.0732
-0.03904,0.06344,-0.08784,-0.06832,-0.0488,0.00488,0.06832,0.13664,0.0976,0.0244,-0.03904,-0.06832
-0.03416,0.05612,-0.07808,-0.061,-0.04392,0.00488,0.06832,0.1464,0.10248,0.03416,-0.03904,-0.06832
-0.03416,0.0488,-0.06344,-0.04636,-0.02928,-0.00244,0.06832,0.15128,0.10736,0.04392,-0.03416,-0.06344
-0.02928,0.04148,-0.05368,-0.03904,-0.0244,-0.00244,0.06832,0.16104,0.13176,0.05368,-0.01952,-0.05856
-0.0244,0.03416,-0.04392,-0.03172,-0.01952,-0.00244,0.06832,0.17568,0.1464,0.06344,-0.00976,-0.05368
-0.01952,0.03172,-0.04392,-0.03416,-0.0244,0.00244,0.06832,0.19032,0.16592,0.08296,0.00488,-0.0488
-0.01952,0.02928,-0.03904,-0.02928,-0.01952,0,0.06832,0.20496,0.18544,0.10248,0.01952,-0.03904
-0.01464,0.02196,-0.02928,-0.02196,-0.01464,0,0.06832,0.22448,0.2196,0.122,0.03416,-0.02928
-0.00488,0.00976,-0.01464,-0.0122,-0.00976,0.00244,0.06344,0.23912,0.244,0.14152,0.05368,-0.01952
0,0,0,0,0,0,0.05856,0.26352,0.2684,0.16104,0.06344,-0.00976
0.00488,-0.00976,0.01464,0.0122,0.00976,-0.00244,0.05856,0.27328,0.28792,0.18056,0.08784,0.00976
0.01464,-0.02196,0.02928,0.02196,0.01464,0,0.06344,0.28792,0.32208,0.20496,0.10248,0.01952
0.0244,-0.03172,0.03904,0.02684,0.01464,0.00488,0.06344,0.31232,0.35136,0.23424,0.122,0.02928
0.02928,-0.04392,0.05856,0.04392,0.02928,0,0.05856,0.32696,0.37576,0.25376,0.1464,0.04392
0.03904,-0.061,0.08296,0.06344,0.04392,-0.00244,0.0488,0.33184,0.39528,0.27328,0.16104,0.05368
0.03904,-0.07076,0.10248,0.08296,0.06344,-0.0122,0.0488,0.3416,0.4148,0.29768,0.18056,0.06832
0.03904,-0.08052,0.122,0.10248,0.08296,-0.02196,0.04392,0.35624,0.4392,0.31232,0.20008,0.08296
0.0488,-0.09516,0.14152,0.11712,0.09272,-0.02196,0.03904,0.36112,0.44896,0.33184,0.2196,0.09272
0.05368,-0.10248,0.15128,0.12444,0.0976,-0.02196,0.03416,0.366,0.45872,0.35136,0.23424,0.10736
0.05856,-0.11468,0.1708,0.14152,0.11224,-0.02684,0.02928,0.366,0.47336,0.36112,0.24888,0.11712
0.06832,-0.12932,0.19032,0.15616,0.122,-0.02684,0.0244,0.366,0.48312,0.37088,0.25864,0.12688
0.07808,-0.14152,0.20496,0.16592,0.12688,-0.0244,0.01952,0.37088,0.488,0.37576,0.2684,0.13176
0.08784,-0.15128,0.21472,0.1708,0.12688,-0.01952,0.01952,0.366,0.488,0.38064,0.27328,0.14152
0.08784,-0.15616,0.22448,0.18056,0.13664,-0.0244,0.01464,0.36112,0.48312,0.38064,0.27328,0.15128
0.09272,-0.16348,0.23424,0.18788,0.14152,-0.0244,0.01464,0.34648,0.47824,0.38064,0.27328,0.15616
0.08784,-0.16592,0.244,0.20008,0.15616,-0.03416,0.00488,0.33184,0.46848,0.37576,0.27816,0.16104
0.08296,-0.16592,0.24888,0.2074,0.16592,-0.04148,0,0.31232,0.45384,0.37576,0.27816,0.16104
0.08296,-0.16836,0.25376,0.21228,0.1708,-0.04392,-0.00488,0.2928,0.4392,0.366,0.27816,0.16592
0.08296,-0.17324,0.26352,0.22204,0.18056,-0.0488,-0.01464,0.2684,0.41968,0.35136,0.27328,0.16592
0.08296,-0.17324,0.26352,0.22204,0.18056,-0.0488,-0.02928,0.24888,0.38552,0.33184,0.2684,0.16592
0.07808,-0.16348,0.24888,0.20984,0.1708,-0.04636,-0.03416,0.22936,0.36112,0.31232,0.24888,0.15616
0.0732,-0.15616,0.23912,0.20252,0.16592,-0.04636,-0.02928,0.20984,0.33184,0.28304,0.23424,0.14152
0.06344,-0.14396,0.22448,0.19276,0.16104,-0.0488,-0.02928,0.18544,0.29768,0.24888,0.20496,0.122
0.05368,-0.12932,0.20496,0.17812,0.15128,-0.0488,-0.01952,0.16104,0.25864,0.2196,0.17568,0.10736
0.0488,-0.11712,0.18544,0.16104,0.13664,-0.04392,-0.01464,0.13664,0.22448,0.19032,0.15616,0.08784
0.03416,-0.0976,0.16104,0.14396,0.12688,-0.04636,-0.00976,0.11712,0.18544,0.16104,0.12688,0.06832
0.02928,-0.0854,0.14152,0.12688,0.11224,-0.04148,-0.00488,0.10248,0.16104,0.13176,0.10248,0.05368
0.01952,-0.061,0.10248,0.09272,0.08296,-0.03172,-0.00488,0.08784,0.13176,0.11224,0.07808,0.03416
0.00488,-0.04148,0.07808,0.07564,0.0732,-0.03416,0.00488,0.07808,0.10248,0.08296,0.05856,0.01952
0,-0.03172,0.06344,0.06344,0.06344,-0.03172,0.00976,0.06344,0.07808,0.05856,0.03904,0.00488
-0.00976,-0.01708,0.04392,0.0488,0.05368,-0.03172,0.01464,0.05368,0.06344,0.03904,0.01952,-0.00976
-0.01464,-0.00976,0.03416,0.04148,0.0488,-0.03172,0.01464,0.03904,0.04392,0.01464,0,-0.01952
-0.0244,0,0.0244,0.0366,0.0488,-0.0366,0.01464,0.02928,0.02928,-0.00488,-0.01464,-0.0244
-0.0244,0.00488,0.01464,0.02684,0.03904,-0.03172,0.00976,0.02928,0.01464,-0.01464,-0.01952,-0.03416
-0.02928,0.00976,0.00976,0.0244,0.03904,-0.03416,0.00976,0.01952,0.00488,-0.01952,-0.02928,-0.04392
-0.02928,0.0122,0.00488,0.01952,0.03416,-0.03172,0.00976,0.00976,0,-0.02928,-0.03904,-0.0488
-0.03416,0.01708,0,0.01708,0.03416,-0.03416,0.00976,0.00488,-0.00976,-0.03416,-0.0488,-0.0488
-0.03416,0.01952,-0.00488,0.0122,0.02928,-0.03172,0.00976,0.00488,-0.01952,-0.03904,-0.05368,-0.0488
-0.03904,0.02684,-0.01464,0.00488,0.0244,-0.03172,0.00976,0.00488,-0.0244,-0.04392,-0.05368,-0.05368
-0.03904,0.02684,-0.01464,0.00488,0.0244,-0.03172,0.00976,0.00488,-0.0244,-0.0488,-0.05368,-0.05856
-0.03904,0.02928,-0.01952,0,0.01952,-0.02928,0.00976,0.00488,-0.0244,-0.0488,-0.05856,-0.06344
-0.03904,0.02928,-0.01952,0,0.01952,-0.02928,0.01464,0.00488,-0.02928,-0.05368,-0.05856,-0.06344
-0.03904,0.02928,-0.01952,0,0.01952,-0.02928,0.01464,0,-0.02928,-0.05368,-0.05856,-0.06344
-0.04392,0.03416,-0.0244,-0.00244,0.01952,-0.03172,0.01464,0,-0.02928,-0.04392,-0.05856,-0.05856
-0.04392,0.0366,-0.02928,-0.00732,0.01464,-0.02928,0.00976,0,-0.02928,-0.03904,-0.05856,-0.05856
-0.03904,0.03416,-0.02928,-0.00976,0.00976,-0.0244,0.00976,0,-0.02928,-0.03904,-0.05856,-0.05856
-0.03904,0.03416,-0.02928,-0.00976,0.00976,-0.0244,0.00976,0,-0.0244,-0.03904,-0.06344,-0.05856
-0.03904,0.03416,-0.02928,-0.00976,0.00976,-0.0244,0.00976,0,-0.0244,-0.03904,-0.06344,-0.06344
-0.03904,0.03416,-0.02928,-0.00976,0.00976,-0.0244,0.00488,0,-0.0244,-0.03904,-0.06344,-0.06832
-0.03904,0.03172,-0.0244,-0.00488,0.01464,-0.02684,0.00488,0,-0.0244,-0.04392,-0.06344,-0.06832
-0.03904,0.03172,-0.0244,-0.00488,0.01464,-0.02684,0.00488,0,-0.0244,-0.04392,-0.06344,-0.06832
-0.03904,0.03172,-0.0244,-0.00488,0.01464,-0.02684,0.00488,0,-0.0244,-0.04392,-0.06344,-0.05856
-0.04392,0.03416,-0.0244,-0.00244,0.01952,-0.03172,0.00488,0,-0.0244,-0.04392,-0.05856,-0.05368
-0.04392,0.03416,-0.0244,-0.00244,0.01952,-0.03172,0.00488,0,-0.0244,-0.04392,-0.05856,-0.05368
-0.03904,0.03172,-0.0244,-0.00488,0.01464,-0.02684,0.00488,0,-0.0244,-0.04392,-0.05856,-0.05368
-0.03904,0.03172,-0.0244,-0.00488,0.01464,-0.02684,0.00488,0,-0.0244,-0.04392,-0.05856,-0.05368
-0.03904,0.03172,-0.0244,-0.00488,0.01464,-0.02684,0.00488,-0.00488,-0.0244,-0.04392,-0.05856,-0.05368
-0.03416,0.02928,-0.0244,-0.00732,0.00976,-0.02196,0.00488,-0.00488,-0.02928,-0.04392,-0.05856,-0.05368
-0.02928,0.0244,-0.01952,-0.00488,0.00976,-0.01952,0.00488,-0.00488,-0.03416,-0.04392,-0.05856,-0.05368
-0.02928,0.0244,-0.01952,-0.00488,0.00976,-0.01952,0.00488,-0.00488,-0.03416,-0.0488,-0.06344,-0.05368
-0.02928,0.0244,-0.01952,-0.00488,0.00976,-0.01952,0,-0.00488,-0.03416,-0.05368,-0.06344,-0.05856
-0.02928,0.0244,-0.01952,-0.00488,0.00976,-0.01952,0,-0.00488,-0.03416,-0.0488,-0.06344,-0.05856
-0.02928,0.0244,-0.01952,-0.00488,0.00976,-0.01952,0,-0.00976,-0.02928,-0.0488,-0.06344,-0.05856
-0.02928,0.02684,-0.0244,-0.00976,0.00488,-0.01708,0,-0.00976,-0.03416,-0.0488,-0.05856,-0.05856
-0.02928,0.02928,-0.02928,-0.01464,0,-0.01464,0,-0.00976,-0.03416,-0.05368,-0.05368,-0.05856
-0.02928,0.02684,-0.0244,-0.00976,0.00488,-0.01708,0.00488,-0.00976,-0.03904,-0.05368,-0.05856,-0.05856
-0.02928,0.02684,-0.0244,-0.00976,0.00488,-0.01708,0.00488,-0.01464,-0.03904,-0.05368,-0.05856,-0.05856
-0.03416,0.03172,-0.02928,-0.0122,0.00488,-0.01952,0.00488,-0.01464,-0.03904,-0.05368,-0.06344,-0.05856
-0.03904,0.03172,-0.0244,-0.00488,0.01464,-0.02684,0,-0.01464,-0.03904,-0.05368,-0.06832,-0.05856
-0.03904,0.03172,-0.0244,-0.00488,0.01464,-0.02684,0.00488,-0.01952,-0.04392,-0.05368,-0.0732,-0.06344
-0.03904,0.03172,-0.0244,-0.00488,0.01464,-0.02684,0.00976,-0.01952,-0.0488,-0.05856,-0.07808,-0.06344
-0.03904,0.03172,-0.0244,-0.00488,0.01464,-0.02684,0.00976,-0.01952,-0.0488,-0.06344,-0.0732,-0.06344
-0.04392,0.03904,-0.03416,-0.0122,0.00976,-0.02684,0.00976,-0.0244,-0.05368,-0.06344,-0.06832,-0.06344
-0.04392,0.03904,-0.03416,-0.0122,0.00976,-0.02684,0.00976,-0.0244,-0.05856,-0.06832,-0.0732,-0.06832
-0.04392,0.03904,-0.03416,-0.0122,0.00976,-0.02684,0.00976,-0.0244,-0.05856,-0.0732,-0.0732,-0.06832
-0.0488,0.04392,-0.03904,-0.01464,0.00976,-0.02928,0.00488,-0.02928,-0.06344,-0.0732,-0.0732,-0.06832
-0.0488,0.04392,-0.03904,-0.01464,0.00976,-0.02928,0,-0.02928,-0.06344,-0.0732,-0.07808,-0.06832
-0.04392,0.04148,-0.03904,-0.01708,0.00488,-0.0244,0,-0.02928,-0.06344,-0.07808,-0.07808,-0.0732
-0.04392,0.04148,-0.03904,-0.01708,0.00488,-0.0244,0,-0.02928,-0.06344,-0.08296,-0.07808,-0.0732
-0.04392,0.04148,-0.03904,-0.01708,0.00488,-0.0244,0,-0.02928,-0.06832,-0.08296,-0.08296,-0.0732
-0.04392,0.04148,-0.03904,-0.01708,0.00488,-0.0244,0,-0.02928,-0.06832,-0.08784,-0.08296,-0.0732
-0.0488,0.04392,-0.03904,-0.01464,0.00976,-0.02928,0.00488,-0.02928,-0.06832,-0.08784,-0.08296,-0.07808
-0.0488,0.04636,-0.04392,-0.01952,0.00488,-0.02684,0.00488,-0.03416,-0.06832,-0.08784,-0.08296,-0.08296
-0.0488,0.0488,-0.0488,-0.0244,0,-0.0244,0,-0.03416,-0.0732,-0.09272,-0.08784,-0.08296
-0.0488,0.0488,-0.0488,-0.0244,0,-0.0244,0,-0.03416,-0.0732,-0.09272,-0.09272,-0.08784
-0.04392,0.04392,-0.04392,-0.02196,0,-0.02196,0.00488,-0.03904,-0.0732,-0.09272,-0.09272,-0.08296
-0.03904,0.04148,-0.04392,-0.0244,-0.00488,-0.01708,0.00488,-0.04392,-0.07808,-0.09272,-0.0976,-0.07808
-0.03904,0.04392,-0.0488,-0.02928,-0.00976,-0.01464,0.00488,-0.04392,-0.07808,-0.09272,-0.09272,-0.07808
-0.03904,0.04392,-0.0488,-0.02928,-0.00976,-0.01464,0.00488,-0.04392,-0.07808,-0.0976,-0.08784,-0.07808
-0.03904,0.04636,-0.05368,-0.03416,-0.01464,-0.0122,0,-0.04392,-0.07808,-0.0976,-0.08784,-0.07808
-0.03904,0.04636,-0.05368,-0.03416,-0.01464,-0.0122,0,-0.04392,-0.07808,-0.0976,-0.09272,-0.08296
-0.04392,0.0488,-0.05368,-0.03172,-0.00976,-0.01708,0.00488,-0.0488,-0.08296,-0.0976,-0.09272,-0.08296
-0.04392,0.04636,-0.0488,-0.02684,-0.00488,-0.01952,0.00488,-0.0488,-0.08296,-0.0976,-0.09272,-0.08296
-0.04392,0.04636,-0.0488,-0.02684,-0.00488,-0.01952,0.00976,-0.0488,-0.08296,-0.0976,-0.09272,-0.08296
-0.03904,0.04392,-0.0488,-0.02928,-0.00976,-0.01464,0.01464,-0.0488,-0.08296,-0.0976,-0.09272,-0.08296
-0.03904,0.04392,-0.0488,-0.02928,-0.00976,-0.01464,0.01464,-0.0488,-0.08296,-0.0976,-0.09272,-0.08296
-0.03904,0.04392,-0.0488,-0.02928,-0.00976,-0.01464,0.01464,-0.0488,-0.08296,-0.0976,-0.09272,-0.08296
-0.03904,0.04392,-0.0488,-0.02928,-0.00976,-0.01464,0.01464,-0.0488,-0.08296,-0.0976,-0.09272,-0.08296
-0.03904,0.04392,-0.0488,-0.02928,-0.00976,-0.01464,0.01464,-0.0488,-0.08296,-0.10248,-0.09272,-0.08296
-0.04392,0.04636,-0.0488,-0.02684,-0.00488,-0.01952,0.01464,-0.04392,-0.08296,-0.10248,-0.09272,-0.08296
-0.04392,0.04636,-0.0488,-0.02684,-0.00488,-0.01952,0.01464,-0.03904,-0.08784,-0.10248,-0.0976,-0.08296
-0.04392,0.05124,-0.05856,-0.0366,-0.01464,-0.01464,0.01464,-0.03904,-0.08784,-0.10736,-0.0976,-0.08296
-0.0488,0.05612,-0.06344,-0.03904,-0.01464,-0.01708,0.01464,-0.03904,-0.08784,-0.10736,-0.0976,-0.08296
-0.0488,0.05368,-0.05856,-0.03416,-0.00976,-0.01952,0.01464,-0.04392,-0.08784,-0.10736,-0.0976,-0.08296
-0.0488,0.05368,-0.05856,-0.03416,-0.00976,-0.01952,0.01464,-0.0488,-0.08784,-0.10736,-0.0976,-0.08296
-0.04392,0.05124,-0.05856,-0.0366,-0.01464,-0.01464,0.01464,-0.0488,-0.09272,-0.10736,-0.0976,-0.08296
-0.04392,0.05124,-0.05856,-0.0366,-0.01464,-0.01464,0.01464,-0.0488,-0.0976,-0.10736,-0.0976,-0.08296
-0.04392,0.0488,-0.05368,-0.03172,-0.00976,-0.01708,0.01464,-0.0488,-0.0976,-0.10736,-0.0976,-0.08296
-0.04392,0.0488,-0.05368,-0.03172,-0.00976,-0.01708,0.01464,-0.05368,-0.0976,-0.10736,-0.0976,-0.08296
-0.04392,0.0488,-0.05368,-0.03172,-0.00976,-0.01708,0.00976,-0.0488,-0.0976,-0.10736,-0.0976,-0.08296
-0.0488,0.05368,-0.05856,-0.03416,-0.00976,-0.01952,0.00976,-0.0488,-0.0976,-0.10736,-0.0976,-0.08784
-0.0488,0.05368,-0.05856,-0.03416,-0.00976,-0.01952,0.00976,-0.04392,-0.0976,-0.10736,-0.0976,-0.08296
-0.0488,0.05368,-0.05856,-0.03416,-0.00976,-0.01952,0.00976,-0.03904,-0.0976,-0.10736,-0.0976,-0.07808
-0.04392,0.05124,-0.05856,-0.0366,-0.01464,-0.01464,0.00976,-0.03904,-0.0976,-0.10736,-0.0976,-0.07808
-0.03904,0.0488,-0.05856,-0.03904,-0.01952,-0.00976,0.00976,-0.03904,-0.0976,-0.10736,-0.0976,-0.07808
-0.03904,0.0488,-0.05856,-0.03904,-0.01952,-0.00976,0.00976,-0.04392,-0.0976,-0.11224,-0.0976,-0.08296
-0.04392,0.05124,-0.05856,-0.0366,-0.01464,-0.01464,0.00976,-0.0488,-0.0976,-0.11224,-0.10248,-0.08784
-0.04392,0.05368,-0.06344,-0.04148,-0.01952,-0.0122,0.00976,-0.0488,-0.0976,-0.10736,-0.10248,-0.08784
-0.03904,0.05124,-0.06344,-0.04392,-0.0244,-0.00732,0.00976,-0.0488,-0.0976,-0.10736,-0.10248,-0.08784
-0.03904,0.05124,-0.06344,-0.04392,-0.0244,-0.00732,0.00976,-0.0488,-0.09272,-0.10736,-0.10248,-0.08784
-0.03904,0.05124,-0.06344,-0.04392,-0.0244,-0.00732,0.00976,-0.0488,-0.08784,-0.10248,-0.09272,-0.08296
-0.03904,0.04148,-0.04392,-0.0244,-0.00488,-0.01708,0.00976,-0.04392,-0.08296,-0.0976,-0.09272,-0.08296
-0.03416,0.03416,-0.03416,-0.01708,0,-0.01708,0.00976,-0.04392,-0.07808,-0.0976,-0.09272,-0.07808
-0.03416,0.0244,-0.01464,0.00244,0.01952,-0.02684,0.00976,-0.03904,-0.06832,-0.09272,-0.08296,-0.07808
-0.02928,0.01708,-0.00488,0.00976,0.0244,-0.02684,0.00488,-0.03904,-0.06832,-0.09272,-0.0732,-0.0732
-0.0244,0.00976,0.00488,0.01708,0.02928,-0.02684,0,-0.03904,-0.06344,-0.07808,-0.0732,-0.06832
-0.01952,0,0.01952,0.02928,0.03904,-0.02928,-0.00488,-0.03416,-0.05368,-0.07808,-0.06344,-0.06344
-0.00976,-0.0122,0.03416,0.03904,0.04392,-0.02684,-0.00488,-0.03416,-0.04392,-0.06832,-0.06344,-0.05856
-0.00488,-0.01708,0.03904,0.04148,0.04392,-0.0244,-0.00488,-0.01952,-0.03904,-0.05856,-0.06344,-0.05368
-0.00488,-0.01708,0.03904,0.04148,0.04392,-0.0244,-0.00976,-0.01952,-0.03904,-0.05856,-0.06344,-0.05368
-0.00488,-0.01952,0.04392,0.04636,0.0488,-0.02684,-0.0244,-0.03416,-0.03904,-0.05856,-0.05856,-0.0488
-0.00488,-0.0244,0.05368,0.05612,0.05856,-0.03172,-0.03904,-0.04392,-0.03904,-0.05856,-0.05368,-0.04392
0.00488,-0.03904,0.0732,0.07076,0.06832,-0.03172,-0.05856,-0.0488,-0.03904,-0.05856,-0.0488,-0.02928
0.01952,-0.06344,0.10736,0.0976,0.08784,-0.03416,-0.05856,-0.0488,-0.01952,-0.03904,-0.02928,-0.01464
0.03904,-0.0854,0.13176,0.11224,0.09272,-0.02684,-0.05856,-0.03416,0,-0.01464,-0.00488,0.00976
0.05368,-0.09028,0.12688,0.10004,0.0732,-0.00976,-0.05856,-0.01464,0.00976,-0.00488,0.00488,0.01952
0.05856,-0.08784,0.11712,0.08784,0.05856,0,-0.06832,-0.03416,-0.00976,-0.01464,-0.00976,0.01952
0.05856,-0.08296,0.10736,0.07808,0.0488,0.00488,-0.0732,-0.04392,-0.0244,-0.0244,-0.01464,0.01464
0.05368,-0.0732,0.09272,0.06588,0.03904,0.00732,-0.0732,-0.04392,-0.03904,-0.03416,-0.0244,0.01464
0.0488,-0.06588,0.08296,0.05856,0.03416,0.00732,-0.06832,-0.0488,-0.03904,-0.03416,-0.0244,0.00976
0.02928,-0.05124,0.0732,0.05856,0.04392,-0.00732,-0.05856,-0.0488,-0.03904,-0.03904,-0.02928,0.00488
0.00976,-0.02684,0.04392,0.03904,0.03416,-0.0122,-0.04392,-0.0488,-0.05368,-0.05368,-0.04392,-0.00976
-0.00488,0.00244,0,0.00244,0.00488,-0.00488,-0.01952,-0.0488,-0.0732,-0.07808,-0.06344,-0.03416
-0.03416,0.04148,-0.0488,-0.03172,-0.01464,-0.00976,0.00488,-0.05368,-0.0976,-0.10736,-0.0976,-0.06832
-0.03904,0.05368,-0.06832,-0.0488,-0.02928,-0.00488,0.00976,-0.05368,-0.10736,-0.11712,-0.10736,-0.07808
-0.0488,0.06344,-0.07808,-0.05368,-0.02928,-0.00976,0.00976,-0.05368,-0.10248,-0.11712,-0.11224,-0.08784
-0.0488,0.06588,-0.08296,-0.05856,-0.03416,-0.00732,0.01464,-0.05368,-0.10248,-0.122,-0.11224,-0.08784
-0.0488,0.06832,-0.08784,-0.06344,-0.03904,-0.00488,0.01952,-0.05368,-0.10248,-0.12688,-0.11712,-0.09272
-0.05368,0.07564,-0.0976,-0.07076,-0.04392,-0.00488,0.02928,-0.05856,-0.11224,-0.12688,-0.122,-0.0976
-0.05368,0.08052,-0.10736,-0.08052,-0.05368,0,0.02928,-0.05856,-0.11224,-0.12688,-0.122,-0.0976
-0.05856,0.08296,-0.10736,-0.07808,-0.0488,-0.00488,0.02928,-0.05856,-0.11224,-0.12688,-0.122,-0.10248
-0.05856,0.08784,-0.11712,-0.08784,-0.05856,0,0.03416,-0.05856,-0.11224,-0.12688,-0.13176,-0.10248
-0.06832,0.0976,-0.12688,-0.09272,-0.05856,-0.00488,0.0488,-0.04392,-0.11224,-0.12688,-0.13664,-0.11224
-0.07808,0.11956,-0.16104,-0.122,-0.08296,0.00244,0.0732,-0.02928,-0.11224,-0.1464,-0.15128,-0.13176
-0.10248,0.16348,-0.22448,-0.17324,-0.122,0.00976,0.13176,0.01952,-0.10736,-0.18056,-0.1952,-0.18056
-0.15616,0.23424,-0.31232,-0.23424,-0.15616,0,0.25864,0.12688,-0.08296,-0.22448,-0.27816,-0.27328
-0.18544,0.26108,-0.33672,-0.244,-0.15128,-0.01708,0.33672,0.22936,-0.01464,-0.21472,-0.30256,-0.32208
-0.1708,0.23668,-0.30256,-0.21716,-0.13176,-0.01952,0.32208,0.26352,0.0732,-0.13664,-0.24888,-0.2928
-0.11712,0.17568,-0.23424,-0.17568,-0.11712,0,0.2684,0.25864,0.18056,-0.01464,-0.1464,-0.21472
-0.00488,0.05124,-0.0976,-0.09516,-0.09272,0.04392,0.13664,0.24888,0.2684,0.13664,0.03904,-0.05368
0.14152,-0.16592,0.19032,0.11956,0.0488,0.04636,-0.0976,0.12688,0.38552,0.38064,0.32696,0.19032
0.2928,-0.4026,0.5124,0.366,0.2196,0.0366,-0.33184,-0.05856,0.49288,0.67832,0.67344,0.49288
0.48312,-0.64904,0.81496,0.5734,0.33184,0.07564,-0.59536,-0.28304,0.58072,1.0248,1.098,0.87352
0.64904,-0.84668,1.04432,0.7198,0.39528,0.12688,-0.854,-0.54168,0.488,1.18584,1.40056,1.20536
0.69784,-0.9394,1.18096,0.83204,0.48312,0.10736,-1.01992,-0.89792,0.122,1.0492,1.42008,1.30296
0.61488,-0.91012,1.20536,0.89792,0.59048,0.0122,-1.12728,-1.36152,-0.5612,0.55144,1.10288,1.17608
0.48312,-0.83448,1.18584,0.94428,0.70272,-0.1098,-1.16632,-1.66896,-1.03944,0.07808,0.71736,0.9516
0.35136,-0.7076,1.06384,0.88816,0.71248,-0.18056,-1.10288,-1.77144,-1.32248,-0.3416,0.33184,0.69784
0.18056,-0.33184,0.48312,0.39284,0.30256,-0.061,-0.7564,-1.4884,-1.2688,-0.56608,0,0.43432
0,-0.05368,0.10736,0.10736,0.10736,-0.05368,-0.488,-1.29808,-1.38104,-0.93696,-0.44896,0.11224
-0.0976,0.0854,-0.0732,-0.0244,0.0244,-0.061,-0.2684,-1.0004,-1.1468,-0.84912,-0.48312,-0.03904
-0.18056,0.20984,-0.23912,-0.14884,-0.05856,-0.061,-0.0976,-0.75152,-0.9028,-0.732,-0.49776,-0.18544
-0.19032,0.22448,-0.25864,-0.16348,-0.06832,-0.061,-0.06344,-0.60512,-0.71736,-0.61976,-0.46848,-0.21472
-0.16592,0.21228,-0.25864,-0.17568,-0.09272,-0.0366,-0.05856,-0.4636,-0.55632,-0.49288,-0.39528,-0.21472
-0.15128,0.18544,-0.2196,-0.14396,-0.06832,-0.04148,-0.03904,-0.3416,-0.42456,-0.39528,-0.32208,-0.1952
-0.14152,0.16592,-0.19032,-0.11956,-0.0488,-0.04636,-0.00976,-0.25864,-0.33672,-0.32208,-0.2684,-0.17568
-0.122,0.14152,-0.16104,-0.10004,-0.03904,-0.04148,0,-0.1952,-0.244,-0.25864,-0.22936,-0.14152
-0.0976,0.122,-0.1464,-0.0976,-0.0488,-0.0244,0.01952,-0.11224,-0.16104,-0.18544,-0.18056,-0.11712
-0.08784,0.122,-0.15616,-0.11224,-0.06832,-0.00976,0.05368,-0.0488,-0.122,-0.15616,-0.15616,-0.11224
-0.08296,0.11712,-0.15128,-0.1098,-0.06832,-0.00732,0.06832,-0.0244,-0.10736,-0.14152,-0.13664,-0.11224
-0.08296,0.11468,-0.1464,-0.10492,-0.06344,-0.00976,0.06344,-0.01952,-0.08784,-0.13176,-0.13176,-0.11224
-0.07808,0.1098,-0.14152,-0.10248,-0.06344,-0.00732,0.06344,-0.01464,-0.06832,-0.122,-0.13176,-0.11224
-0.07808,0.1098,-0.14152,-0.10248,-0.06344,-0.00732,0.06832,0.00488,-0.06344,-0.11224,-0.13176,-0.11224
-0.07808,0.10736,-0.13664,-0.0976,-0.05856,-0.00976,0.06832,0.01952,-0.05856,-0.11224,-0.122,-0.10736
-0.0732,0.10492,-0.13664,-0.10004,-0.06344,-0.00488,0.0732,0.01952,-0.05368,-0.10736,-0.10736,-0.10736
-0.06832,0.10248,-0.13664,-0.10248,-0.06832,0,0.0732,0.01952,-0.04392,-0.09272,-0.10736,-0.10248
-0.06832,0.10492,-0.14152,-0.10736,-0.0732,0.00244,0.0732,0.01952,-0.04392,-0.08784,-0.10248,-0.10248
-0.06832,0.10492,-0.14152,-0.10736,-0.0732,0.00244,0.0732,0.03416,-0.03416,-0.08784,-0.10736,-0.10248
-0.06832,0.10492,-0.14152,-0.10736,-0.0732,0.00244,0.0732,0.03416,-0.0244,-0.08296,-0.10736,-0.10248
-0.06344,0.10248,-0.14152,-0.1098,-0.07808,0.00732,0.0732,0.03904,-0.01464,-0.07808,-0.10248,-0.0976
-0.05856,0.0976,-0.13664,-0.10736,-0.07808,0.00976,0.06832,0.04392,-0.00488,-0.07808,-0.09272,-0.0976
-0.05368,0.09516,-0.13664,-0.1098,-0.08296,0.01464,0.06832,0.0488,-0.00976,-0.0732,-0.09272,-0.0976
-0.05368,0.09272,-0.13176,-0.10492,-0.07808,0.0122,0.06832,0.0488,-0.00976,-0.0732,-0.09272,-0.0976
-0.05368,0.09272,-0.13176,-0.10492,-0.07808,0.0122,0.0732,0.05856,0,-0.06344,-0.08784,-0.09272
-0.05368,0.09272,-0.13176,-0.10492,-0.07808,0.0122,0.07808,0.06832,0.00976,-0.05856,-0.08784,-0.08784
-0.0488,0.08784,-0.12688,-0.10248,-0.07808,0.01464,0.0732,0.06832,0.01464,-0.05856,-0.08296,-0.08784
-0.0488,0.0854,-0.122,-0.0976,-0.0732,0.0122,0.0732,0.0732,0.01952,-0.05368,-0.0732,-0.08296
-0.0488,0.08296,-0.11712,-0.09272,-0.06832,0.00976,0.0732,0.08296,0.02928,-0.04392,-0.06832,-0.08296
-0.05368,0.0854,-0.11712,-0.09028,-0.06344,0.00488,0.0732,0.08784,0.03904,-0.03416,-0.06832,-0.07808
-0.05368,0.08784,-0.122,-0.09516,-0.06832,0.00732,0.0732,0.0976,0.0488,-0.0244,-0.06344,-0.0732
-0.0488,0.08296,-0.11712,-0.09272,-0.06832,0.00976,0.06832,0.10248,0.05856,-0.01952,-0.05368,-0.0732
-0.0488,0.08052,-0.11224,-0.08784,-0.06344,0.00732,0.06832,0.11712,0.06832,-0.00976,-0.0488,-0.06344
-0.04392,0.07564,-0.10736,-0.0854,-0.06344,0.00976,0.06832,0.13176,0.08296,0,-0.03904,-0.05368
-0.03904,0.07076,-0.10248,-0.08296,-0.06344,0.0122,0.06832,0.13664,0.0976,0.01464,-0.02928,-0.0488
-0.03416,0.06344,-0.09272,-0.07564,-0.05856,0.0122,0.06832,0.15128,0.11224,0.0244,-0.0244,-0.04392
-0.03416,0.05856,-0.08296,-0.06588,-0.0488,0.00732,0.0732,0.16104,0.12688,0.03416,-0.01464,-0.03416
-0.02928,0.05124,-0.0732,-0.05856,-0.04392,0.00732,0.07808,0.1708,0.15128,0.0488,0,-0.02928
-0.0244,0.04636,-0.06832,-0.05612,-0.04392,0.00976,0.07808,0.18544,0.16592,0.06344,0.00976,-0.0244
-0.01952,0.04392,-0.06832,-0.05856,-0.0488,0.01464,0.07808,0.20008,0.18544,0.08296,0.0244,-0.01952
-0.01952,0.03904,-0.05856,-0.0488,-0.03904,0.00976,0.07808,0.21472,0.20496,0.10736,0.03904,-0.00976
-0.01464,0.03172,-0.0488,-0.04148,-0.03416,0.00976,0.07808,0.23424,0.23424,0.13176,0.05368,0
-0.00488,0.01952,-0.03416,-0.03172,-0.02928,0.0122,0.0732,0.24888,0.25864,0.15128,0.0732,0.00488
0,0.00976,-0.01952,-0.01952,-0.01952,0.00976,0.06832,0.27328,0.28792,0.1708,0.08296,0.00976
0.00488,0,-0.00488,-0.00732,-0.00976,0.00732,0.06832,0.28792,0.30744,0.19032,0.10736,0.02928
0.01464,-0.0122,0.00976,0.00244,-0.00488,0.00976,0.0732,0.30744,0.3416,0.21472,0.122,0.03904
0.0244,-0.02196,0.01952,0.00732,-0.00488,0.01464,0.0732,0.33184,0.37088,0.244,0.14152,0.0488
0.02928,-0.03416,0.03904,0.0244,0.00976,0.00976,0.06832,0.34648,0.39528,0.26352,0.16592,0.06344
0.03904,-0.05124,0.06344,0.04392,0.0244,0.00732,0.05856,0.35136,0.4148,0.27816,0.18056,0.0732
0.04392,-0.06344,0.08296,0.061,0.03904,0.00244,0.05856,0.36112,0.43432,0.29768,0.20008,0.08784
0.0488,-0.07564,0.10248,0.07808,0.05368,-0.00244,0.05368,0.37576,0.45872,0.31232,0.2196,0.10736
0.05856,-0.09028,0.122,0.09272,0.06344,-0.00244,0.0488,0.38064,0.46848,0.32696,0.23424,0.122
0.06344,-0.0976,0.13176,0.10004,0.06832,-0.00244,0.04392,0.38552,0.47824,0.3416,0.244,0.13664
0.06344,-0.10492,0.1464,0.11468,0.08296,-0.00976,0.03904,0.38552,0.488,0.35136,0.25864,0.1464
0.06832,-0.11468,0.16104,0.12688,0.09272,-0.0122,0.03416,0.38552,0.49288,0.36112,0.2684,0.15616
0.0732,-0.12444,0.17568,0.13908,0.10248,-0.01464,0.02928,0.38552,0.49776,0.366,0.27816,0.16104
0.07808,-0.12932,0.18056,0.14152,0.10248,-0.0122,0.0244,0.37576,0.49776,0.37088,0.28304,0.1708
0.07808,-0.13176,0.18544,0.1464,0.10736,-0.01464,0.01464,0.37088,0.49288,0.37088,0.28304,0.17568
0.08296,-0.13908,0.1952,0.15372,0.11224,-0.01464,0.01464,0.35624,0.488,0.37088,0.28304,0.17568
0.08296,-0.14396,0.20496,0.16348,0.122,-0.01952,0.00488,0.3416,0.47336,0.36112,0.28792,0.18056
0.08296,-0.1464,0.20984,0.16836,0.12688,-0.02196,0.00488,0.32208,0.45384,0.35624,0.28792,0.18056
0.08296,-0.1464,0.20984,0.16836,0.12688,-0.02196,0.00488,0.30256,0.4392,0.34648,0.28304,0.18544
0.08296,-0.14884,0.21472,0.17324,0.13176,-0.0244,-0.00488,0.27816,0.41968,0.33184,0.27328,0.18544
0.07808,-0.1464,0.21472,0.17568,0.13664,-0.02928,-0.01464,0.25376,0.38552,0.31232,0.26352,0.18056
0.06832,-0.1342,0.20008,0.16592,0.13176,-0.03172,-0.01464,0.22936,0.36112,0.2928,0.23912,0.16592
0.06344,-0.12444,0.18544,0.15372,0.122,-0.02928,-0.00976,0.20984,0.33184,0.26352,0.22448,0.15128
0.05368,-0.1098,0.16592,0.13908,0.11224,-0.02928,-0.00976,0.18056,0.29768,0.22936,0.1952,0.13176
0.04392,-0.09516,0.1464,0.12444,0.10248,-0.02928,-0.00488,0.15616,0.25864,0.20008,0.16592,0.11712
0.03904,-0.08296,0.12688,0.10736,0.08784,-0.0244,-0.00488,0.13664,0.22448,0.16592,0.1464,0.0976
0.0244,-0.06344,0.10248,0.09028,0.07808,-0.02684,0,0.11712,0.18544,0.13176,0.11712,0.07808
0.01952,-0.05124,0.08296,0.0732,0.06344,-0.02196,0.00488,0.10248,0.16104,0.10248,0.08784,0.05856
0.00976,-0.02928,0.0488,0.04392,0.03904,-0.01464,0.00488,0.08784,0.13176,0.08296,0.05856,0.03416
-0.00488,-0.0122,0.02928,0.03172,0.03416,-0.01952,0.01464,0.07808,0.10248,0.05368,0.03904,0.01952
-0.00976,-0.00244,0.01464,0.01952,0.0244,-0.01708,0.01952,0.06344,0.07808,0.02928,0.01952,0.00488
-0.01952,0.0122,-0.00488,0.00488,0.01464,-0.01708,0.0244,0.05368,0.06344,0.01464,0.00976,-0.00488
-0.01952,0.01708,-0.01464,-0.00488,0.00488,-0.0122,0.0244,0.03904,0.04392,0,0,-0.00976
-0.0244,0.0244,-0.0244,-0.0122,0,-0.0122,0.0244,0.02928,0.03416,-0.01464,-0.01464,-0.01464
-0.0244,0.03172,-0.03904,-0.02684,-0.01464,-0.00488,0.0244,0.02928,0.0244,-0.0244,-0.01952,-0.0244
-0.02928,0.03904,-0.0488,-0.03416,-0.01952,-0.00488,0.0244,0.01952,0.01464,-0.03416,-0.02928,-0.03416
-0.02928,0.04148,-0.05368,-0.03904,-0.0244,-0.00244,0.01952,0.01464,0.00976,-0.0488,-0.03416,-0.03904
-0.03416,0.04636,-0.05856,-0.04148,-0.0244,-0.00488,0.01952,0.00976,-0.00488,-0.05368,-0.04392,-0.03904
-0.03416,0.04636,-0.05856,-0.04148,-0.0244,-0.00488,0.01952,0.00488,-0.01464,-0.05368,-0.05368,-0.03904
-0.03904,0.05124,-0.06344,-0.04392,-0.0244,-0.00732,0.01952,0.00488,-0.01464,-0.05368,-0.05368,-0.04392
-0.03904,0.05124,-0.06344,-0.04392,-0.0244,-0.00732,0.01952,0.00488,-0.01464,-0.05856,-0.05368,-0.04392
-0.03904,0.05368,-0.06832,-0.0488,-0.02928,-0.00488,0.01952,0.00488,-0.01464,-0.05856,-0.05856,-0.04392
-0.03904,0.05368,-0.06832,-0.0488,-0.02928,-0.00488,0.0244,0.00488,-0.01952,-0.06344,-0.05856,-0.04392
-0.03416,0.0488,-0.06344,-0.04636,-0.02928,-0.00244,0.0244,0,-0.01952,-0.06344,-0.05856,-0.04392
-0.03416,0.04636,-0.05856,-0.04148,-0.0244,-0.00488,0.0244,0,-0.01952,-0.06344,-0.05856,-0.04392
-0.03416,0.04636,-0.05856,-0.04148,-0.0244,-0.00488,0.01952,0,-0.01952,-0.06344,-0.05856,-0.05368
-0.02928,0.04392,-0.05856,-0.04392,-0.02928,0,0.01952,0,-0.01952,-0.05856,-0.05856,-0.05856
-0.02928,0.04392,-0.05856,-0.04392,-0.02928,0,0.01952,0,-0.01464,-0.05856,-0.06344,-0.05856
-0.02928,0.04392,-0.05856,-0.04392,-0.02928,0,0.01952,0,-0.01464,-0.05856,-0.06344,-0.05856
-0.02928,0.04392,-0.05856,-0.04392,-0.02928,0,0.01952,0,-0.01464,-0.06344,-0.06344,-0.05856
-0.02928,0.04148,-0.05368,-0.03904,-0.0244,-0.00244,0.0244,0,-0.01464,-0.06832,-0.06344,-0.05856
-0.02928,0.04148,-0.05368,-0.03904,-0.0244,-0.00244,0.0244,0,-0.01464,-0.06344,-0.06344,-0.05856
-0.02928,0.04148,-0.05368,-0.03904,-0.0244,-0.00244,0.0244,0,-0.01464,-0.06344,-0.06344,-0.05368
-0.03416,0.04392,-0.05368,-0.0366,-0.01952,-0.00732,0.0244,0,-0.01464,-0.06344,-0.05856,-0.05368
-0.03416,0.04392,-0.05368,-0.0366,-0.01952,-0.00732,0.0244,0,-0.01464,-0.06344,-0.05856,-0.05368
-0.03416,0.04392,-0.05368,-0.0366,-0.01952,-0.00732,0.0244,0,-0.01952,-0.06344,-0.05856,-0.05368
-0.03904,0.04636,-0.05368,-0.03416,-0.01464,-0.0122,0.0244,0,-0.0244,-0.06344,-0.05856,-0.05368
-0.03904,0.0488,-0.05856,-0.03904,-0.01952,-0.00976,0.0244,-0.00488,-0.0244,-0.06832,-0.05856,-0.05368
-0.03904,0.05124,-0.06344,-0.04392,-0.0244,-0.00732,0.0244,-0.00488,-0.0244,-0.0732,-0.05856,-0.05368
-0.03416,0.04636,-0.05856,-0.04148,-0.0244,-0.00488,0.0244,-0.00488,-0.0244,-0.0732,-0.05856,-0.0488
-0.02928,0.04392,-0.05856,-0.04392,-0.02928,0,0.0244,-0.00488,-0.0244,-0.0732,-0.06344,-0.04392
-0.02928,0.04392,-0.05856,-0.04392,-0.02928,0,0.01952,-0.00488,-0.0244,-0.0732,-0.06344,-0.0488
-0.02928,0.04392,-0.05856,-0.04392,-0.02928,0,0.01952,-0.00488,-0.02928,-0.06832,-0.06344,-0.0488
-0.03416,0.0488,-0.06344,-0.04636,-0.02928,-0.00244,0.01952,-0.00488,-0.02928,-0.06344,-0.06344,-0.0488
-0.03904,0.05368,-0.06832,-0.0488,-0.02928,-0.00488,0.01952,0,-0.03416,-0.06344,-0.06344,-0.0488
-0.03904,0.05368,-0.06832,-0.0488,-0.02928,-0.00488,0.01952,0,-0.03416,-0.0732,-0.06344,-0.0488
-0.03904,0.05124,-0.06344,-0.04392,-0.0244,-0.00732,0.0244,0,-0.03904,-0.0732,-0.06832,-0.0488
-0.03904,0.05124,-0.06344,-0.04392,-0.0244,-0.00732,0.0244,-0.00488,-0.03904,-0.0732,-0.06832,-0.0488
-0.03904,0.05612,-0.0732,-0.05368,-0.03416,-0.00244,0.0244,-0.00488,-0.03904,-0.0732,-0.06832,-0.0488
-0.03904,0.05368,-0.06832,-0.0488,-0.02928,-0.00488,0.01464,-0.00976,-0.03904,-0.07808,-0.06832,-0.05368
-0.03904,0.05124,-0.06344,-0.04392,-0.0244,-0.00732,0.00976,-0.01952,-0.04392,-0.08296,-0.0732,-0.06344
-0.03904,0.05124,-0.06344,-0.04392,-0.0244,-0.00732,0.00976,-0.01952,-0.0488,-0.08784,-0.07808,-0.06344
-0.03904,0.05124,-0.06344,-0.04392,-0.0244,-0.00732,0.00976,-0.01952,-0.0488,-0.09272,-0.07808,-0.06344
-0.03904,0.05612,-0.0732,-0.05368,-0.03416,-0.00244,0.01464,-0.0244,-0.05368,-0.08784,-0.07808,-0.05856
-0.03416,0.05368,-0.0732,-0.05612,-0.03904,0.00244,0.01952,-0.0244,-0.05856,-0.08784,-0.08296,-0.05856
-0.03416,0.05368,-0.0732,-0.05612,-0.03904,0.00244,0.01952,-0.0244,-0.05856,-0.09272,-0.08296,-0.05856
-0.03904,0.05856,-0.07808,-0.05856,-0.03904,0,0.01952,-0.02928,-0.06344,-0.09272,-0.08296,-0.05856
-0.04392,0.06344,-0.08296,-0.061,-0.03904,-0.00244,0.01952,-0.02928,-0.06344,-0.09272,-0.08784,-0.05856
-0.04392,0.06588,-0.08784,-0.06588,-0.04392,0,0.01952,-0.02928,-0.06344,-0.0976,-0.08784,-0.06344
-0.04392,0.06832,-0.09272,-0.07076,-0.0488,0.00244,0.01952,-0.02928,-0.05856,-0.0976,-0.08784,-0.06344
-0.04392,0.07076,-0.0976,-0.07564,-0.05368,0.00488,0.01952,-0.02928,-0.05856,-0.09272,-0.09272,-0.06344
-0.04392,0.07076,-0.0976,-0.07564,-0.05368,0.00488,0.01952,-0.02928,-0.05856,-0.0976,-0.09272,-0.06344
-0.0488,0.0732,-0.0976,-0.0732,-0.0488,0,0.0244,-0.02928,-0.05856,-0.0976,-0.09272,-0.06344
-0.0488,0.0732,-0.0976,-0.0732,-0.0488,0,0.0244,-0.03416,-0.06344,-0.0976,-0.09272,-0.06344
-0.0488,0.0732,-0.0976,-0.0732,-0.0488,0,0.01952,-0.03416,-0.0732,-0.10248,-0.09272,-0.06344
-0.0488,0.0732,-0.0976,-0.0732,-0.0488,0,0.01952,-0.03416,-0.0732,-0.10736,-0.09272,-0.0732
-0.0488,0.07076,-0.09272,-0.06832,-0.04392,-0.00244,0.0244,-0.03416,-0.0732,-0.11224,-0.09272,-0.07808
-0.0488,0.07076,-0.09272,-0.06832,-0.04392,-0.00244,0.0244,-0.03416,-0.07808,-0.11224,-0.0976,-0.07808
-0.0488,0.0732,-0.0976,-0.0732,-0.0488,0,0.0244,-0.03416,-0.07808,-0.11224,-0.0976,-0.07808
-0.0488,0.0732,-0.0976,-0.0732,-0.0488,0,0.0244,-0.03416,-0.07808,-0.11712,-0.0976,-0.07808
-0.0488,0.07564,-0.10248,-0.07808,-0.05368,0.00244,0.01952,-0.03416,-0.07808,-0.11712,-0.0976,-0.07808
-0.0488,0.07564,-0.10248,-0.07808,-0.05368,0.00244,0.01952,-0.03416,-0.07808,-0.11712,-0.10248,-0.08296
-0.05368,0.08052,-0.10736,-0.08052,-0.05368,0,0.0244,-0.03904,-0.08296,-0.11712,-0.10248,-0.08296
-0.0488,0.07808,-0.10736,-0.08296,-0.05856,0.00488,0.0244,-0.03904,-0.08296,-0.11712,-0.10248,-0.08296
-0.04392,0.07564,-0.10736,-0.0854,-0.06344,0.00976,0.0244,-0.03904,-0.08296,-0.11712,-0.10248,-0.08296
-0.03904,0.0732,-0.10736,-0.08784,-0.06832,0.01464,0.0244,-0.03904,-0.08296,-0.11712,-0.10248,-0.08296
-0.03904,0.0732,-0.10736,-0.08784,-0.06832,0.01464,0.0244,-0.03904,-0.08296,-0.11712,-0.10248,-0.08296
-0.03904,0.0732,-0.10736,-0.08784,-0.06832,0.01464,0.0244,-0.03904,-0.08296,-0.11712,-0.10248,-0.08296
-0.03904,0.0732,-0.10736,-0.08784,-0.06832,0.01464,0.0244,-0.03904,-0.08296,-0.11712,-0.10248,-0.08296
-0.03904,0.07076,-0.10248,-0.08296,-0.06344,0.0122,0.0244,-0.03904,-0.08296,-0.122,-0.10248,-0.08296
-0.04392,0.07076,-0.0976,-0.07564,-0.05368,0.00488,0.0244,-0.03904,-0.08296,-0.122,-0.10248,-0.08296
-0.04392,0.07076,-0.0976,-0.07564,-0.05368,0.00488,0.01952,-0.03904,-0.08784,-0.122,-0.10736,-0.08296
-0.04392,0.0732,-0.10248,-0.08052,-0.05856,0.00732,0.01464,-0.03904,-0.08784,-0.12688,-0.10736,-0.08296
-0.0488,0.07808,-0.10736,-0.08296,-0.05856,0.00488,0.01464,-0.03904,-0.09272,-0.12688,-0.10736,-0.08296
-0.0488,0.07808,-0.10736,-0.08296,-0.05856,0.00488,0.01464,-0.03904,-0.0976,-0.12688,-0.10736,-0.08296
-0.0488,0.07808,-0.10736,-0.08296,-0.05856,0.00488,0.01464,-0.03904,-0.0976,-0.12688,-0.10736,-0.08296
-0.04392,0.07564,-0.10736,-0.0854,-0.06344,0.00976,0.01464,-0.03904,-0.0976,-0.12688,-0.10736,-0.08296
-0.04392,0.07564,-0.10736,-0.0854,-0.06344,0.00976,0.01464,-0.03904,-0.0976,-0.12688,-0.10736,-0.08296
-0.04392,0.07564,-0.10736,-0.0854,-0.06344,0.00976,0.01464,-0.03904,-0.0976,-0.12688,-0.10736,-0.08296
-0.04392,0.07808,-0.11224,-0.09028,-0.06832,0.0122,0.01952,-0.04392,-0.0976,-0.12688,-0.10736,-0.08296
-0.04392,0.07808,-0.11224,-0.09028,-0.06832,0.0122,0.0244,-0.04392,-0.0976,-0.12688,-0.10736,-0.08296
-0.04392,0.07808,-0.11224,-0.09028,-0.06832,0.0122,0.0244,-0.04392,-0.09272,-0.12688,-0.10736,-0.08784
-0.04392,0.07564,-0.10736,-0.0854,-0.06344,0.00976,0.0244,-0.0488,-0.08784,-0.12688,-0.10736,-0.09272
-0.04392,0.07564,-0.10736,-0.0854,-0.06344,0.00976,0.01952,-0.0488,-0.08784,-0.12688,-0.10736,-0.09272
-0.04392,0.0732,-0.10248,-0.08052,-0.05856,0.00732,0.01952,-0.0488,-0.08784,-0.122,-0.10736,-0.08784
-0.03904,0.0732,-0.10736,-0.08784,-0.06832,0.01464,0.01952,-0.0488,-0.09272,-0.11712,-0.10736,-0.08296
-0.03904,0.07564,-0.11224,-0.09272,-0.0732,0.01708,0.01952,-0.0488,-0.0976,-0.11712,-0.10736,-0.08296
-0.03904,0.0732,-0.10736,-0.08784,-0.06832,0.01464,0.01464,-0.0488,-0.0976,-0.122,-0.10736,-0.08296
-0.03904,0.0732,-0.10736,-0.08784,-0.06832,0.01464,0.00976,-0.0488,-0.0976,-0.12688,-0.10736,-0.08784
-0.03904,0.0732,-0.10736,-0.08784,-0.06832,0.01464,0.00976,-0.0488,-0.0976,-0.12688,-0.10736,-0.08784
-0.03904,0.0732,-0.10736,-0.08784,-0.06832,0.01464,0.00976,-0.0488,-0.0976,-0.12688,-0.10736,-0.08784
-0.03904,0.0732,-0.10736,-0.08784,-0.06832,0.01464,0.01464,-0.0488,-0.0976,-0.12688,-0.10736,-0.08784
-0.03904,0.0732,-0.10736,-0.08784,-0.06832,0.01464,0.01464,-0.0488,-0.0976,-0.12688,-0.10736,-0.08784
-0.04392,0.07564,-0.10736,-0.0854,-0.06344,0.00976,0.01952,-0.0488,-0.0976,-0.13176,-0.11224,-0.08784
-0.04392,0.07564,-0.10736,-0.0854,-0.06344,0.00976,0.01952,-0.0488,-0.0976,-0.13176,-0.11224,-0.08784
-0.03904,0.07076,-0.10248,-0.08296,-0.06344,0.0122,0.01952,-0.0488,-0.0976,-0.13664,-0.11224,-0.08784
-0.03904,0.07076,-0.10248,-0.08296,-0.06344,0.0122,0.01952,-0.0488,-0.0976,-0.13664,-0.11224,-0.08784
-0.03904,0.07076,-0.10248,-0.08296,-0.06344,0.0122,0.01952,-0.0488,-0.0976,-0.13176,-0.10248,-0.08296
-0.03904,0.06344,-0.08784,-0.06832,-0.0488,0.00488,0.01952,-0.04392,-0.09272,-0.122,-0.10248,-0.08296
-0.03416,0.05856,-0.08296,-0.06588,-0.0488,0.00732,0.01952,-0.04392,-0.08784,-0.11712,-0.10248,-0.07808
-0.03416,0.0488,-0.06344,-0.04636,-0.02928,-0.00244,0.01952,-0.03904,-0.07808,-0.11224,-0.09272,-0.07808
-0.02928,0.03904,-0.0488,-0.03416,-0.01952,-0.00488,0.01464,-0.03904,-0.07808,-0.11224,-0.08296,-0.0732
-0.0244,0.02928,-0.03416,-0.02196,-0.00976,-0.00732,0.00976,-0.03904,-0.0732,-0.0976,-0.08296,-0.06832
-0.01952,0.01952,-0.01952,-0.00976,0,-0.00976,0.00488,-0.03416,-0.05856,-0.0976,-0.0732,-0.06344
-0.00976,0.00732,-0.00488,0,0.00488,-0.00732,0.00488,-0.03416,-0.04392,-0.08784,-0.06832,-0.05856
-0.00488,0.00488,-0.00488,-0.00244,0,-0.00244,0.00488,-0.01464,-0.03904,-0.07808,-0.06344,-0.05368
-0.00488,0.00732,-0.00976,-0.00732,-0.00488,0,0,-0.00976,-0.03904,-0.07808,-0.06344,-0.05368
-0.00488,0.00488,-0.00488,-0.00244,0,-0.00244,-0.01464,-0.0244,-0.03904,-0.07808,-0.05856,-0.0488
-0.00488,0,0.00488,0.00732,0.00976,-0.00732,-0.02928,-0.03416,-0.03904,-0.07808,-0.05856,-0.0488
0.00488,-0.01708,0.02928,0.02684,0.0244,-0.00976,-0.05368,-0.03904,-0.04392,-0.07808,-0.05856,-0.03904
0.01952,-0.04392,0.06832,0.05856,0.0488,-0.01464,-0.05856,-0.03904,-0.02928,-0.05856,-0.03904,-0.0244
0.03904,-0.06588,0.09272,0.0732,0.05368,-0.00732,-0.05856,-0.0244,-0.00976,-0.03416,-0.01464,0
0.05368,-0.0732,0.09272,0.06588,0.03904,0.00732,-0.05856,-0.00488,0,-0.0244,0,0.00976
0.06344,-0.07564,0.08784,0.05612,0.0244,0.01952,-0.06832,-0.0244,-0.01952,-0.03416,-0.00976,0.01464
0.06832,-0.0732,0.07808,0.04392,0.00976,0.02928,-0.0732,-0.03416,-0.02928,-0.04392,-0.01464,0.01464
0.06344,-0.06588,0.06832,0.0366,0.00488,0.02928,-0.0732,-0.03416,-0.03904,-0.05368,-0.0244,0.01464
0.05856,-0.061,0.06344,0.03416,0.00488,0.02684,-0.06832,-0.03904,-0.03904,-0.05368,-0.0244,0.00976
0.03904,-0.04636,0.05368,0.03416,0.01464,0.0122,-0.05856,-0.04392,-0.03416,-0.05368,-0.0244,0.00488
0.01952,-0.02196,0.0244,0.01464,0.00488,0.00732,-0.04392,-0.0488,-0.04392,-0.06344,-0.03416,-0.00976
0,0.00976,-0.01952,-0.01952,-0.01952,0.00976,-0.01952,-0.0488,-0.06344,-0.08784,-0.05368,-0.03416
-0.03416,0.05124,-0.06832,-0.05124,-0.03416,0,0.00488,-0.05368,-0.08784,-0.11712,-0.08784,-0.06344
-0.03904,0.06344,-0.08784,-0.06832,-0.0488,0.00488,0.01464,-0.05368,-0.0976,-0.12688,-0.10248,-0.06832
-0.0488,0.0732,-0.0976,-0.0732,-0.0488,0,0.01952,-0.05368,-0.0976,-0.12688,-0.11224,-0.07808
-0.0488,0.07564,-0.10248,-0.07808,-0.05368,0.00244,0.0244,-0.05368,-0.10736,-0.13176,-0.11224,-0.07808
-0.0488,0.07808,-0.10736,-0.08296,-0.05856,0.00488,0.0244,-0.05368,-0.11224,-0.13664,-0.11712,-0.08296
-0.05368,0.0854,-0.11712,-0.09028,-0.06344,0.00488,0.02928,-0.05856,-0.122,-0.13664,-0.122,-0.08784
-0.05368,0.09028,-0.12688,-0.10004,-0.0732,0.00976,0.02928,-0.05856,-0.122,-0.14152,-0.122,-0.08784
-0.05856,0.09272,-0.12688,-0.0976,-0.06832,0.00488,0.02928,-0.05856,-0.122,-0.1464,-0.122,-0.09272
-0.05856,0.0976,-0.13664,-0.10736,-0.07808,0.00976,0.03416,-0.05856,-0.122,-0.1464,-0.13176,-0.09272
-0.06832,0.10248,-0.13664,-0.10248,-0.06832,0,0.03904,-0.05368,-0.122,-0.1464,-0.12688,-0.10248
-0.07808,0.11468,-0.15128,-0.11224,-0.0732,-0.00244,0.05368,-0.0488,-0.122,-0.16104,-0.13176,-0.11712
-0.10248,0.15372,-0.20496,-0.15372,-0.10248,0,0.10248,0,-0.12688,-0.19032,-0.17568,-0.16104
-0.15616,0.22936,-0.30256,-0.22448,-0.1464,-0.00488,0.22448,0.10736,-0.11224,-0.23424,-0.25864,-0.25376
-0.1952,0.27816,-0.36112,-0.26352,-0.16592,-0.01464,0.33672,0.22448,-0.04392,-0.244,-0.30744,-0.3172
-0.1952,0.27328,-0.35136,-0.25376,-0.15616,-0.01952,0.35136,0.27816,0.04392,-0.18544,-0.27816,-0.31232
-0.16592,0.244,-0.32208,-0.23912,-0.15616,-0.00488,0.33184,0.29768,0.1464,-0.08784,-0.21472,-0.27816
-0.07808,0.15128,-0.22448,-0.18544,-0.1464,0.03416,0.244,0.31232,0.23424,0.03904,-0.07808,-0.16104
0.06344,-0.0488,0.03416,0.00244,-0.02928,0.04636,0.02928,0.22448,0.35624,0.25864,0.17568,0.05856
0.21472,-0.27328,0.33184,0.22448,0.11712,0.0488,-0.1952,0.07808,0.47336,0.53192,0.49776,0.34648
0.43432,-0.549,0.66368,0.44652,0.22936,0.10248,-0.46848,-0.11712,0.64904,0.94672,0.98088,0.77104
0.62952,-0.77592,0.92232,0.60756,0.2928,0.16836,-0.73688,-0.35624,0.64904,1.20048,1.3664,1.16144
0.71248,-0.90036,1.08824,0.732,0.37576,0.16836,-0.93208,-0.71248,0.34648,1.16632,1.49816,1.34688
0.67832,-0.91744,1.15656,0.8174,0.47824,0.10004,-1.08336,-1.18584,-0.28792,0.74664,1.27368,1.29808
0.5612,-0.91012,1.25904,0.97844,0.69784,-0.06832,-1.1956,-1.62016,-0.8784,0.22936,0.88328,1.07848
0.42944,-0.83448,1.23952,1.0248,0.81008,-0.19032,-1.19072,-1.84464,-1.27368,-0.22448,0.488,0.82472
0.24888,-0.43676,0.62464,0.5002,0.37576,-0.06344,-0.84424,-1.586,-1.25904,-0.48312,0.12688,0.55144
0.05856,-0.13176,0.20496,0.17568,0.1464,-0.04392,-0.57584,-1.42496,-1.44448,-0.93208,-0.37088,0.20984
-0.06344,0.0366,-0.00976,0.02196,0.05368,-0.05856,-0.3172,-1.11752,-1.2444,-0.89792,-0.46848,0.00976
-0.17568,0.19276,-0.20984,-0.122,-0.03416,-0.07076,-0.10736,-0.84912,-1.0004,-0.80032,-0.52704,-0.17568
-0.20008,0.2318,-0.26352,-0.16348,-0.06344,-0.06832,-0.06832,-0.69296,-0.81496,-0.68808,-0.50752,-0.22448
-0.18544,0.23668,-0.28792,-0.1952,-0.10248,-0.04148,-0.06344,-0.54168,-0.65392,-0.5612,-0.44408,-0.244
-0.1708,0.20984,-0.24888,-0.16348,-0.07808,-0.04636,-0.0488,-0.40504,-0.50264,-0.45384,-0.36112,-0.22448
-0.15616,0.18788,-0.2196,-0.14152,-0.06344,-0.04636,-0.01952,-0.30744,-0.39528,-0.37088,-0.29768,-0.20496
-0.13176,0.1586,-0.18544,-0.11956,-0.05368,-0.03904,-0.01464,-0.23912,-0.29768,-0.30256,-0.25376,-0.16592
-0.10736,0.13664,-0.16592,-0.11224,-0.05856,-0.0244,0,-0.15128,-0.20496,-0.22448,-0.20008,-0.13664
-0.0976,0.13176,-0.16592,-0.11712,-0.06832,-0.01464,0.03416,-0.07808,-0.15128,-0.19032,-0.17568,-0.13176
-0.09272,0.12444,-0.15616,-0.1098,-0.06344,-0.01464,0.05368,-0.04392,-0.12688,-0.1708,-0.15616,-0.12688
-0.08784,0.122,-0.15616,-0.11224,-0.06832,-0.00976,0.05368,-0.03904,-0.10736,-0.16104,-0.15128,-0.122
-0.07808,0.11468,-0.15128,-0.11224,-0.0732,-0.00244,0.05368,-0.03416,-0.08784,-0.15128,-0.15128,-0.122
-0.07808,0.11712,-0.15616,-0.11712,-0.07808,0,0.05856,-0.01464,-0.08296,-0.14152,-0.1464,-0.122
-0.07808,0.11712,-0.15616,-0.11712,-0.07808,0,0.05856,0,-0.07808,-0.14152,-0.13664,-0.11712
-0.0732,0.11468,-0.15616,-0.11956,-0.08296,0.00488,0.06344,0,-0.0732,-0.13664,-0.12688,-0.11712
-0.06832,0.1098,-0.15128,-0.11712,-0.08296,0.00732,0.06344,0,-0.06344,-0.12688,-0.12688,-0.11224
-0.06832,0.1098,-0.15128,-0.11712,-0.08296,0.00732,0.06344,0.00488,-0.05856,-0.12688,-0.122,-0.10736
-0.06832,0.1098,-0.15128,-0.11712,-0.08296,0.00732,0.06344,0.0244,-0.0488,-0.12688,-0.122,-0.10248
-0.06832,0.1098,-0.15128,-0.11712,-0.08296,0.00732,0.06344,0.0244,-0.04392,-0.122,-0.11712,-0.10248
-0.06832,0.1098,-0.15128,-0.11712,-0.08296,0.00732,0.06832,0.02928,-0.03416,-0.11224,-0.11224,-0.0976
-0.06832,0.10736,-0.1464,-0.11224,-0.07808,0.00488,0.06832,0.03416,-0.0244,-0.10736,-0.10248,-0.0976
-0.06344,0.10492,-0.1464,-0.11468,-0.08296,0.00976,0.06832,0.03904,-0.0244,-0.10248,-0.10248,-0.0976
-0.06344,0.10248,-0.14152,-0.1098,-0.07808,0.00732,0.06832,0.03904,-0.01952,-0.10248,-0.10248,-0.0976
-0.06344,0.10248,-0.14152,-0.1098,-0.07808,0.00732,0.06832,0.0488,-0.00976,-0.09272,-0.0976,-0.09272
-0.06344,0.10248,-0.14152,-0.1098,-0.07808,0.00732,0.06832,0.05856,0,-0.08784,-0.0976,-0.08784
-0.05856,0.0976,-0.13664,-0.10736,-0.07808,0.00976,0.06344,0.05856,0.00488,-0.08784,-0.09272,-0.08784
-0.05856,0.09272,-0.12688,-0.0976,-0.06832,0.00488,0.06344,0.06344,0.00488,-0.08296,-0.08784,-0.08296
-0.05368,0.0854,-0.11712,-0.09028,-0.06344,0.00488,0.06344,0.0732,0.00976,-0.0732,-0.08784,-0.08296
-0.05368,0.0854,-0.11712,-0.09028,-0.06344,0.00488,0.06832,0.07808,0.01952,-0.06344,-0.08784,-0.07808
-0.05368,0.0854,-0.11712,-0.09028,-0.06344,0.00488,0.0732,0.08784,0.02928,-0.05368,-0.08296,-0.0732
-0.0488,0.08052,-0.11224,-0.08784,-0.06344,0.00732,0.06832,0.09272,0.03904,-0.0488,-0.0732,-0.0732
-0.0488,0.08052,-0.11224,-0.08784,-0.06344,0.00732,0.06832,0.10248,0.0488,-0.03904,-0.06832,-0.06832
-0.04392,0.07564,-0.10736,-0.0854,-0.06344,0.00976,0.06344,0.11224,0.06344,-0.02928,-0.05856,-0.06832
-0.03904,0.0732,-0.10736,-0.08784,-0.06832,0.01464,0.05856,0.11712,0.07808,-0.01464,-0.0488,-0.06832
-0.03416,0.06832,-0.10248,-0.0854,-0.06832,0.01708,0.05856,0.13176,0.09272,-0.00488,-0.04392,-0.06344
-0.03416,0.06344,-0.09272,-0.07564,-0.05856,0.0122,0.05856,0.14152,0.10736,0.00488,-0.03416,-0.05368
-0.02928,0.05612,-0.08296,-0.06832,-0.05368,0.0122,0.05856,0.15128,0.12688,0.01952,-0.01952,-0.04392
-0.0244,0.0488,-0.0732,-0.061,-0.0488,0.0122,0.05856,0.16592,0.13664,0.03416,-0.00976,-0.03416
-0.01952,0.04392,-0.06832,-0.05856,-0.0488,0.01464,0.05856,0.18056,0.15616,0.0488,0.00488,-0.02928
-0.01952,0.03904,-0.05856,-0.0488,-0.03904,0.00976,0.05856,0.1952,0.17568,0.06344,0.01952,-0.01952
-0.01464,0.03172,-0.0488,-0.04148,-0.03416,0.00976,0.05856,0.21472,0.20496,0.08296,0.03416,-0.00976
-0.00488,0.01952,-0.03416,-0.03172,-0.02928,0.0122,0.05368,0.22936,0.22448,0.10248,0.05368,0
0,0.00976,-0.01952,-0.01952,-0.01952,0.00976,0.04392,0.25376,0.24888,0.122,0.06344,0.00976
0.00488,0,-0.00488,-0.00732,-0.00976,0.00732,0.03904,0.26352,0.2684,0.14152,0.08784,0.02928
0.01464,-0.0122,0.00976,0.00244,-0.00488,0.00976,0.04392,0.27816,0.30256,0.16592,0.10248,0.03904
0.0244,-0.02196,0.01952,0.00732,-0.00488,0.01464,0.04392,0.30256,0.33184,0.1952,0.122,0.0488
0.02928,-0.03172,0.03416,0.01952,0.00488,0.0122,0.04392,0.32208,0.35624,0.21472,0.1464,0.06344
0.03904,-0.04636,0.05368,0.03416,0.01464,0.0122,0.03904,0.33184,0.37576,0.23424,0.16104,0.0732
0.04392,-0.05856,0.0732,0.05124,0.02928,0.00732,0.03904,0.3416,0.39528,0.25864,0.18056,0.08784
0.0488,-0.07076,0.09272,0.06832,0.04392,0.00244,0.03416,0.35624,0.41968,0.27328,0.20008,0.10248
0.05856,-0.0854,0.11224,0.08296,0.05368,0.00244,0.02928,0.36112,0.42944,0.28792,0.21472,0.11224
0.06344,-0.09272,0.122,0.09028,0.05856,0.00244,0.0244,0.366,0.4392,0.30256,0.22448,0.12688
0.06344,-0.10004,0.13664,0.10492,0.0732,-0.00488,0.01952,0.366,0.44896,0.31232,0.23912,0.13664
0.06832,-0.1098,0.15128,0.11712,0.08296,-0.00732,0.01464,0.366,0.45384,0.32208,0.24888,0.1464
0.07808,-0.12444,0.1708,0.13176,0.09272,-0.00732,0.00976,0.37088,0.4636,0.32696,0.26352,0.15616
0.08784,-0.13664,0.18544,0.14152,0.0976,-0.00488,0.00976,0.366,0.46848,0.33184,0.27328,0.1708
0.08784,-0.14152,0.1952,0.15128,0.10736,-0.00976,0.00488,0.36112,0.4636,0.33672,0.27328,0.17568
0.09272,-0.14884,0.20496,0.1586,0.11224,-0.00976,0.00488,0.34648,0.45872,0.3416,0.27328,0.17568
0.09272,-0.15616,0.2196,0.17324,0.12688,-0.01708,-0.00488,0.33184,0.44896,0.33184,0.27816,0.18056
0.09272,-0.16104,0.22936,0.183,0.13664,-0.02196,-0.00976,0.31232,0.43432,0.32696,0.27816,0.18056
0.09272,-0.16104,0.22936,0.183,0.13664,-0.02196,-0.01464,0.2928,0.42456,0.32208,0.27816,0.18544
0.09272,-0.16348,0.23424,0.18788,0.14152,-0.0244,-0.0244,0.2684,0.40992,0.31232,0.27328,0.18544
0.09272,-0.16348,0.23424,0.18788,0.14152,-0.0244,-0.03904,0.244,0.38064,0.30256,0.27328,0.18544
0.08784,-0.15372,0.2196,0.17568,0.13176,-0.02196,-0.04392,0.2196,0.36112,0.2928,0.25864,0.17568
0.08296,-0.1464,0.20984,0.16836,0.12688,-0.02196,-0.03904,0.20008,0.33184,0.26352,0.244,0.16104
0.0732,-0.1342,0.1952,0.1586,0.122,-0.0244,-0.03904,0.17568,0.29768,0.22936,0.21472,0.14152
0.06344,-0.11956,0.17568,0.14396,0.11224,-0.0244,-0.02928,0.15616,0.25864,0.20008,0.18544,0.12688
0.05856,-0.10736,0.15616,0.12688,0.0976,-0.01952,-0.0244,0.13664,0.22448,0.1708,0.16592,0.10736
0.04392,-0.08784,0.13176,0.1098,0.08784,-0.02196,-0.01952,0.11712,0.18544,0.14152,0.13176,0.08784
0.03904,-0.07564,0.11224,0.09272,0.0732,-0.01708,-0.01464,0.10248,0.16104,0.11224,0.10248,0.0732
0.0244,-0.05124,0.07808,0.06588,0.05368,-0.01464,-0.01464,0.08784,0.13176,0.09272,0.07808,0.05368
0.00488,-0.03172,0.05856,0.05612,0.05368,-0.0244,-0.00488,0.07808,0.10248,0.06344,0.05856,0.03904
0,-0.02196,0.04392,0.04392,0.04392,-0.02196,0,0.05856,0.07808,0.03416,0.03904,0.0244
-0.00976,-0.00732,0.0244,0.02928,0.03416,-0.02196,0.00488,0.04392,0.06344,0.00976,0.01952,0.00976
-0.00976,-0.00244,0.01464,0.01952,0.0244,-0.01708,0.00488,0.02928,0.04392,-0.00976,0,0
-0.01464,0.00488,0.00488,0.0122,0.01952,-0.01708,0.00488,0.01952,0.02928,-0.0244,-0.01464,-0.00488
-0.01464,0.0122,-0.00976,-0.00244,0.00488,-0.00976,0.00488,0.01464,0.00976,-0.03904,-0.01952,-0.01464
-0.01952,0.01952,-0.01952,-0.00976,0,-0.00976,0.00976,0,-0.00488,-0.0488,-0.02928,-0.0244
-0.01952,0.0244,-0.02928,-0.01952,-0.00976,-0.00488,0.00976,-0.00488,-0.00976,-0.05856,-0.03416,-0.03416
-0.0244,0.03172,-0.03904,-0.02684,-0.01464,-0.00488,0.00976,-0.00488,-0.01952,-0.06344,-0.03904,-0.03904
-0.0244,0.03172,-0.03904,-0.02684,-0.01464,-0.00488,0.00976,-0.00488,-0.0244,-0.06344,-0.0488,-0.03904
-0.02928,0.0366,-0.04392,-0.02928,-0.01464,-0.00732,0.00976,-0.00488,-0.0244,-0.06344,-0.05368,-0.04392
-0.02928,0.0366,-0.04392,-0.02928,-0.01464,-0.00732,0.00976,-0.00488,-0.0244,-0.06832,-0.05368,-0.04392
-0.02928,0.03904,-0.0488,-0.03416,-0.01952,-0.00488,0.00976,-0.00488,-0.0244,-0.06832,-0.05856,-0.04392
-0.02928,0.03904,-0.0488,-0.03416,-0.01952,-0.00488,0.01464,-0.00488,-0.02928,-0.0732,-0.06344,-0.0488
-0.02928,0.03904,-0.0488,-0.03416,-0.01952,-0.00488,0.01464,-0.00976,-0.02928,-0.0732,-0.06832,-0.05368
-0.03416,0.03904,-0.04392,-0.02684,-0.00976,-0.0122,0.00976,-0.00976,-0.03416,-0.0732,-0.06832,-0.05368
-0.03416,0.0366,-0.03904,-0.02196,-0.00488,-0.01464,0,-0.00976,-0.03904,-0.07808,-0.06832,-0.05856
-0.02928,0.03416,-0.03904,-0.0244,-0.00976,-0.00976,0,-0.00976,-0.03904,-0.07808,-0.06344,-0.05368
-0.02928,0.03416,-0.03904,-0.0244,-0.00976,-0.00976,0,-0.00976,-0.03416,-0.07808,-0.06344,-0.0488
-0.02928,0.03416,-0.03904,-0.0244,-0.00976,-0.00976,0.00488,-0.00976,-0.02928,-0.07808,-0.05856,-0.0488
-0.02928,0.03416,-0.03904,-0.0244,-0.00976,-0.00976,0.00488,-0.00976,-0.0244,-0.07808,-0.05368,-0.0488
-0.03416,0.03416,-0.03416,-0.01708,0,-0.01708,0.00488,-0.00976,-0.0244,-0.07808,-0.05368,-0.0488
-0.03904,0.0366,-0.03416,-0.01464,0.00488,-0.02196,0.00488,-0.00976,-0.0244,-0.0732,-0.05368,-0.0488
-0.03904,0.0366,-0.03416,-0.01464,0.00488,-0.02196,0.00488,-0.00976,-0.0244,-0.0732,-0.05856,-0.0488
-0.04392,0.03904,-0.03416,-0.0122,0.00976,-0.02684,0.00488,-0.00976,-0.0244,-0.0732,-0.05856,-0.05368
-0.04392,0.03904,-0.03416,-0.0122,0.00976,-0.02684,0.00488,-0.00976,-0.02928,-0.0732,-0.05856,-0.05368
-0.03904,0.0366,-0.03416,-0.01464,0.00488,-0.02196,0.00488,-0.00976,-0.03416,-0.0732,-0.05856,-0.05368
-0.03416,0.03416,-0.03416,-0.01708,0,-0.01708,0.00488,-0.00976,-0.03416,-0.0732,-0.05856,-0.05368
-0.02928,0.03172,-0.03416,-0.01952,-0.00488,-0.0122,0.00488,-0.01464,-0.03416,-0.0732,-0.05856,-0.05368
-0.02928,0.03172,-0.03416,-0.01952,-0.00488,-0.0122,0.00488,-0.01464,-0.03416,-0.0732,-0.05856,-0.0488
-0.02928,0.02928,-0.02928,-0.01464,0,-0.01464,0.00488,-0.01464,-0.03416,-0.0732,-0.05856,-0.04392
-0.03416,0.03172,-0.02928,-0.0122,0.00488,-0.01952,0.00488,-0.01464,-0.02928,-0.0732,-0.06344,-0.04392
-0.03904,0.03416,-0.02928,-0.00976,0.00976,-0.0244,0,-0.01464,-0.0244,-0.0732,-0.06344,-0.0488
-0.03904,0.03416,-0.02928,-0.00976,0.00976,-0.0244,0,-0.01464,-0.02928,-0.06832,-0.06344,-0.0488
-0.03904,0.03416,-0.02928,-0.00976,0.00976,-0.0244,0,-0.01952,-0.02928,-0.06832,-0.06344,-0.0488
-0.03416,0.03172,-0.02928,-0.0122,0.00488,-0.01952,-0.00488,-0.01952,-0.03904,-0.0732,-0.06344,-0.05368
-0.02928,0.02928,-0.02928,-0.01464,0,-0.01464,-0.00976,-0.01952,-0.04392,-0.08296,-0.06344,-0.05856
-0.02928,0.02684,-0.0244,-0.00976,0.00488,-0.01708,-0.00488,-0.01952,-0.0488,-0.08296,-0.06832,-0.05856
-0.02928,0.02684,-0.0244,-0.00976,0.00488,-0.01708,-0.00488,-0.0244,-0.0488,-0.08296,-0.06832,-0.05856
-0.03416,0.03416,-0.03416,-0.01708,0,-0.01708,-0.00488,-0.0244,-0.0488,-0.08296,-0.06832,-0.05856
-0.03904,0.0366,-0.03416,-0.01464,0.00488,-0.02196,-0.00976,-0.0244,-0.0488,-0.08296,-0.06832,-0.05856
-0.03904,0.0366,-0.03416,-0.01464,0.00488,-0.02196,-0.00488,-0.02928,-0.05368,-0.08296,-0.0732,-0.06344
-0.03904,0.0366,-0.03416,-0.01464,0.00488,-0.02196,0,-0.02928,-0.05856,-0.08784,-0.07808,-0.06344
-0.03904,0.0366,-0.03416,-0.01464,0.00488,-0.02196,0,-0.02928,-0.05856,-0.09272,-0.07808,-0.06344
-0.04392,0.04392,-0.04392,-0.02196,0,-0.02196,0,-0.03416,-0.06344,-0.09272,-0.07808,-0.06344
-0.04392,0.04636,-0.0488,-0.02684,-0.00488,-0.01952,-0.00488,-0.03416,-0.06832,-0.0976,-0.08296,-0.06832
-0.04392,0.0488,-0.05368,-0.03172,-0.00976,-0.01708,-0.00976,-0.03416,-0.06832,-0.10248,-0.08296,-0.06832
-0.0488,0.05368,-0.05856,-0.03416,-0.00976,-0.01952,-0.00976,-0.03904,-0.0732,-0.0976,-0.08296,-0.06832
-0.0488,0.05368,-0.05856,-0.03416,-0.00976,-0.01952,-0.00976,-0.03904,-0.0732,-0.09272,-0.08784,-0.06832
-0.04392,0.05124,-0.05856,-0.0366,-0.01464,-0.01464,-0.00976,-0.03904,-0.0732,-0.0976,-0.08784,-0.06832
-0.04392,0.05124,-0.05856,-0.0366,-0.01464,-0.01464,-0.00976,-0.03904,-0.0732,-0.10248,-0.08784,-0.06344
-0.04392,0.05124,-0.05856,-0.0366,-0.01464,-0.01464,-0.00976,-0.03904,-0.07808,-0.10248,-0.09272,-0.06344
-0.04392,0.05124,-0.05856,-0.0366,-0.01464,-0.01464,-0.00976,-0.03904,-0.07808,-0.10736,-0.09272,-0.06344
-0.0488,0.05368,-0.05856,-0.03416,-0.00976,-0.01952,0,-0.03904,-0.07808,-0.10736,-0.09272,-0.06344
-0.0488,0.05612,-0.06344,-0.03904,-0.01464,-0.01708,0.00488,-0.04392,-0.07808,-0.10736,-0.09272,-0.06344
-0.0488,0.05856,-0.06832,-0.04392,-0.01952,-0.01464,0,-0.04392,-0.08296,-0.11224,-0.09272,-0.06344
-0.0488,0.05856,-0.06832,-0.04392,-0.01952,-0.01464,0,-0.04392,-0.08296,-0.11224,-0.09272,-0.06832
-0.0488,0.05368,-0.05856,-0.03416,-0.00976,-0.01952,0.00488,-0.04392,-0.08296,-0.11224,-0.09272,-0.0732
-0.0488,0.05124,-0.05368,-0.02928,-0.00488,-0.02196,0.00488,-0.04392,-0.08784,-0.11224,-0.0976,-0.07808
-0.0488,0.05368,-0.05856,-0.03416,-0.00976,-0.01952,0.00488,-0.04392,-0.08784,-0.11224,-0.0976,-0.07808
-0.0488,0.05368,-0.05856,-0.03416,-0.00976,-0.01952,0.00488,-0.04392,-0.08784,-0.11712,-0.0976,-0.07808
-0.0488,0.05612,-0.06344,-0.03904,-0.01464,-0.01708,0,-0.04392,-0.08784,-0.11712,-0.0976,-0.07808
-0.0488,0.05612,-0.06344,-0.03904,-0.01464,-0.01708,0,-0.04392,-0.08784,-0.11712,-0.10248,-0.08296
-0.05368,0.061,-0.06832,-0.04148,-0.01464,-0.01952,0.00488,-0.0488,-0.09272,-0.11712,-0.10248,-0.08296
-0.05368,0.061,-0.06832,-0.04148,-0.01464,-0.01952,0.00488,-0.0488,-0.09272,-0.11712,-0.10248,-0.08296
-0.05368,0.061,-0.06832,-0.04148,-0.01464,-0.01952,0.00488,-0.0488,-0.09272,-0.122,-0.10736,-0.08296
-0.0488,0.05856,-0.06832,-0.04392,-0.01952,-0.01464,0.00488,-0.0488,-0.09272,-0.12688,-0.11224,-0.08296
-0.0488,0.05856,-0.06832,-0.04392,-0.01952,-0.01464,0.00488,-0.0488,-0.09272,-0.12688,-0.11224,-0.08296
-0.0488,0.05856,-0.06832,-0.04392,-0.01952,-0.01464,0.00488,-0.0488,-0.09272,-0.12688,-0.11224,-0.08296
-0.04392,0.05612,-0.06832,-0.04636,-0.0244,-0.00976,0.00488,-0.05368,-0.09272,-0.122,-0.10736,-0.08296
-0.03904,0.05368,-0.06832,-0.0488,-0.02928,-0.00488,0.00488,-0.05856,-0.09272,-0.122,-0.10248,-0.08296
-0.04392,0.05612,-0.06832,-0.04636,-0.0244,-0.00976,0.00488,-0.05856,-0.09272,-0.122,-0.10248,-0.07808
-0.04392,0.05612,-0.06832,-0.04636,-0.0244,-0.00976,0.00488,-0.05856,-0.0976,-0.122,-0.10736,-0.0732
-0.04392,0.05856,-0.0732,-0.05124,-0.02928,-0.00732,0,-0.05856,-0.0976,-0.12688,-0.10736,-0.0732
