i,aVR,ii,aVF,iii,aVL,V1,V2,V3,V4,V5,V6
0.00488,0.00732,-0.01952,-0.02196,-0.0244,0.01464,0.07808,0.07808,0.06832,0.01952,-0.00976,-0.00976
0.00976,-0.00488,0,-0.00488,-0.00976,0.00976,0.09272,0.08784,0.08296,0.03416,0.00488,0.00488
0.01464,-0.00732,0,-0.00732,-0.01464,0.01464,0.08296,0.09272,0.09272,0.03904,0.01464,0.01464
0.01464,-0.00732,0,-0.00732,-0.01464,0.01464,0.06832,0.08296,0.09272,0.0488,0.01464,0.01952
0.01952,-0.00976,0,-0.00976,-0.01952,0.01952,0.06832,0.08296,0.0976,0.05368,0.01952,0.00976
0.03416,-0.0244,0.01464,-0.00244,-0.01952,0.02684,0.07808,0.10736,0.10248,0.06832,0.02928,0.00976
0.05368,-0.04392,0.03416,0.00732,-0.01952,0.0366,0.07808,0.10736,0.10736,0.07808,0.03416,0.01464
0.06344,-0.06588,0.06832,0.0366,0.00488,0.02928,0.07808,0.11224,0.11712,0.07808,0.03904,0.03416
0.07808,-0.0854,0.09272,0.05368,0.01464,0.03172,0.0488,0.10736,0.122,0.09272,0.05856,0.05368
0.09272,-0.1098,0.12688,0.08052,0.03416,0.02928,-0.02928,0.05368,0.122,0.0976,0.06344,0.0732
0.122,-0.12444,0.12688,0.06588,0.00488,0.05856,-0.06344,0.03416,0.122,0.0976,0.0732,0.07808
0.12688,-0.11712,0.10736,0.04392,-0.01952,0.0732,-0.05856,0.02928,0.10248,0.09272,0.07808,0.0732
0.11712,-0.10736,0.0976,0.03904,-0.01952,0.06832,-0.05368,0.0244,0.08296,0.0732,0.06344,0.05856
0.11712,-0.10004,0.08296,0.0244,-0.03416,0.07564,-0.03904,0.01464,0.08784,0.06344,0.05856,0.0488
0.11712,-0.09516,0.0732,0.01464,-0.04392,0.08052,-0.03904,0.01464,0.08296,0.05856,0.05368,0.0488
0.11712,-0.08784,0.05856,0,-0.05856,0.08784,-0.03904,0.01464,0.06832,0.05368,0.0488,0.03904
0.11712,-0.08296,0.0488,-0.00976,-0.06832,0.09272,-0.03904,0.01952,0.0732,0.05856,0.04392,0.04392
0.10736,-0.07564,0.04392,-0.00976,-0.06344,0.0854,-0.0244,0.02928,0.0732,0.06832,0.04392,0.0488
0.09272,-0.0488,0.00488,-0.04148,-0.08784,0.09028,-0.01464,0.03416,0.06832,0.05856,0.03904,0.04392
0.04392,-0.01708,-0.00976,-0.03172,-0.05368,0.0488,0.00976,0.02928,0.05856,0.03904,0.03416,0.03416
0.01464,0.00976,-0.03416,-0.04148,-0.0488,0.03172,0.01952,0.03416,0.05368,0.02928,0.01952,0.02928
0.00976,0.02196,-0.05368,-0.05856,-0.06344,0.0366,0.02928,0.02928,0.04392,0.01952,0.00976,0.00488
0.00976,0.02684,-0.06344,-0.06832,-0.0732,0.04148,0.03904,0.02928,0.03904,0.00488,-0.00488,-0.00976
0.01464,0.02684,-0.06832,-0.07564,-0.08296,0.0488,0.0488,0.03904,0.0244,0,-0.01952,-0.0244
0.00488,0.03416,-0.0732,-0.07564,-0.07808,0.04148,0.05368,0.03416,0.01952,-0.00488,-0.01952,-0.0244
0,0.04392,-0.08784,-0.08784,-0.08784,0.04392,0.05368,0.02928,0.00488,-0.01464,-0.03904,-0.02928
0.00488,0.04636,-0.0976,-0.10004,-0.10248,0.05368,0.0488,0.0244,0.00488,-0.01464,-0.03904,-0.03416
-0.00488,0.05124,-0.0976,-0.09516,-0.09272,0.04392,0.05368,0.01952,0.00976,-0.01464,-0.03904,-0.02928
-0.00488,0.05368,-0.10248,-0.10004,-0.0976,0.04636,0.05368,0.01952,0.00488,-0.01464,-0.03904,-0.02928
0,0.0488,-0.0976,-0.0976,-0.0976,0.0488,0.06832,0.0244,0.01464,-0.00488,-0.0244,-0.0244
-0.00488,0.05124,-0.0976,-0.09516,-0.09272,0.04392,0.0732,0.03904,0.01952,-0.00488,-0.0244,-0.01464
-0.00488,0.0488,-0.09272,-0.09028,-0.08784,0.04148,0.0732,0.03416,0.01952,-0.01464,-0.02928,-0.01952
0.01952,0.04636,-0.11224,-0.122,-0.13176,0.07564,0.0732,0.03904,0.01464,-0.00976,-0.03904,-0.03416
0.01464,0.0488,-0.11224,-0.11956,-0.12688,0.07076,0.06832,0.05368,0.01952,-0.01464,-0.04392,-0.02928
0.01464,0.07076,-0.15616,-0.16348,-0.1708,0.09272,0.13664,0.122,0.01464,-0.03904,-0.07808,-0.06832
-0.00976,0.07564,-0.14152,-0.13664,-0.13176,0.061,0.19032,0.18056,0.06832,-0.01464,-0.06344,-0.06832
0.01464,0.01464,-0.04392,-0.05124,-0.05856,0.0366,0.20984,0.2928,0.1708,0.09272,0,-0.0244
0.11712,-0.061,0.00488,-0.05368,-0.11224,0.11468,0.30744,0.54168,0.35136,0.25864,0.10248,0.04392
0.28792,-0.20252,0.11712,-0.02684,-0.1708,0.22936,0.38064,0.87352,0.61,0.50264,0.25864,0.15128
0.60512,-0.46848,0.33184,0.02928,-0.27328,0.4392,0.122,0.81496,0.83448,0.84424,0.54168,0.40016
1.0004,-0.8052,0.61,0.1098,-0.3904,0.6954,-0.35624,0.53192,0.96136,1.13704,0.83936,0.70272
1.22488,-1.03212,0.83936,0.22692,-0.38552,0.8052,-0.89304,-0.01464,0.83936,1.20048,1.0248,0.93208
1.10776,-0.99064,0.87352,0.31964,-0.23424,0.671,-1.07848,-0.4392,0.53192,0.976,1.01992,1.01016
0.68808,-0.7442,0.80032,0.45628,0.11224,0.28792,-1.05896,-0.80032,0.16592,0.62952,0.8784,0.97112
0.19032,-0.34892,0.50752,0.41236,0.3172,-0.06344,-0.88816,-1.22,-0.36112,0.03416,0.488,0.71248
-0.11712,-0.061,0.23912,0.29768,0.35624,-0.23668,-0.76616,-1.44448,-0.74176,-0.39528,0.1708,0.44896
-0.06344,0.0122,0.03904,0.07076,0.10248,-0.08296,-0.69296,-1.12728,-0.67344,-0.41968,0.02928,0.28304
-0.06344,0.06832,-0.0732,-0.04148,-0.00976,-0.02684,-0.56608,-0.86376,-0.5612,-0.37088,-0.04392,0.14152
-0.02928,0.07808,-0.12688,-0.11224,-0.0976,0.03416,-0.27328,-0.44896,-0.36112,-0.2684,-0.06832,0.07808
-0.00976,0.05612,-0.10248,-0.0976,-0.09272,0.04148,-0.09272,-0.20008,-0.1708,-0.15616,-0.04392,0.05856
-0.05368,0.07076,-0.08784,-0.061,-0.03416,-0.00976,-0.01464,-0.10736,-0.08296,-0.09272,-0.04392,0.01952
-0.01952,0.03904,-0.05856,-0.0488,-0.03904,0.00976,0.01464,-0.05368,-0.04392,-0.03904,-0.01464,0.0244
-0.03416,0.05124,-0.06832,-0.05124,-0.03416,0,0.06344,0.00488,-0.01952,-0.03416,-0.01464,0.01464
-0.02928,0.05368,-0.07808,-0.06344,-0.0488,0.00976,0.10248,0.05856,-0.00976,-0.02928,-0.03904,-0.01952
-0.01952,0.05368,-0.08784,-0.07808,-0.06832,0.0244,0.09272,0.05856,-0.00488,-0.02928,-0.03904,-0.02928
-0.00976,0.03904,-0.06832,-0.06344,-0.05856,0.0244,0.08784,0.03904,-0.00488,-0.03416,-0.04392,-0.0244
-0.00488,0.02928,-0.05368,-0.05124,-0.0488,0.02196,0.07808,0.0488,0.00488,-0.01952,-0.02928,-0.01464
-0.00976,0.04148,-0.0732,-0.06832,-0.06344,0.02684,0.09272,0.06344,0.01464,-0.00976,-0.03904,-0.02928
-0.00976,0.04392,-0.07808,-0.0732,-0.06832,0.02928,0.10736,0.07808,0.02928,-0.00976,-0.03904,-0.03416
-0.00976,0.04636,-0.08296,-0.07808,-0.0732,0.03172,0.10248,0.07808,0.02928,-0.00488,-0.02928,-0.03416
-0.00976,0.04392,-0.07808,-0.0732,-0.06832,0.02928,0.09272,0.06832,0.0244,-0.00488,-0.03904,-0.03904
-0.00976,0.04392,-0.07808,-0.0732,-0.06832,0.02928,0.09272,0.0732,0.0244,-0.00488,-0.03904,-0.04392
-0.01464,0.04636,-0.07808,-0.07076,-0.06344,0.0244,0.0976,0.0732,0.03904,-0.00976,-0.03904,-0.03904
-0.0244,0.0488,-0.0732,-0.061,-0.0488,0.0122,0.09272,0.0732,0.03416,-0.00488,-0.02928,-0.03416
0.00976,0.02196,-0.05368,-0.05856,-0.06344,0.0366,0.08296,0.0732,0.03416,0.00488,-0.03904,-0.03416
0.01952,0.0122,-0.04392,-0.05368,-0.06344,0.04148,0.08296,0.0732,0.02928,0,-0.04392,-0.03416
0.02928,0.00976,-0.0488,-0.06344,-0.07808,0.05368,0.09272,0.08296,0.04392,0.00488,-0.03416,-0.0244
0.04392,0.00244,-0.0488,-0.07076,-0.09272,0.06832,0.08784,0.08296,0.04392,0.00488,-0.02928,-0.0244
0.0244,0.00976,-0.04392,-0.05612,-0.06832,0.04636,0.0976,0.08296,0.04392,0.01464,-0.01952,-0.01464
0.01952,0.0122,-0.04392,-0.05368,-0.06344,0.04148,0.09272,0.08296,0.04392,0.00976,-0.01464,-0.01464
0.00976,0.0244,-0.05856,-0.06344,-0.06832,0.03904,0.08784,0.08296,0.04392,0.00976,-0.0244,-0.0244
0,0.02928,-0.05856,-0.05856,-0.05856,0.02928,0.08784,0.08296,0.04392,0.01464,-0.01952,-0.0244
-0.01952,0.0488,-0.07808,-0.06832,-0.05856,0.01952,0.0732,0.06832,0.03416,0.00488,-0.02928,-0.02928
-0.01952,0.0488,-0.07808,-0.06832,-0.05856,0.01952,0.0732,0.06344,0.01952,-0.00488,-0.03904,-0.04392
-0.00976,0.02928,-0.0488,-0.04392,-0.03904,0.01464,0.07808,0.07808,0.02928,0,-0.01952,-0.03416
0,0.01708,-0.03416,-0.03416,-0.03416,0.01708,0.08784,0.07808,0.03904,0.00976,-0.01464,-0.0244
0.00976,0.00488,-0.01952,-0.0244,-0.02928,0.01952,0.08296,0.08784,0.03904,0.01952,-0.01464,-0.01464
0.00976,0.00732,-0.0244,-0.02928,-0.03416,0.02196,0.07808,0.08784,0.03416,0.00976,-0.01464,-0.01464
0.0244,0.00488,-0.03416,-0.04636,-0.05856,0.04148,0.06832,0.08296,0.01952,0.00488,-0.0244,-0.0244
0.0244,0.00488,-0.03416,-0.04636,-0.05856,0.04148,0.06832,0.08296,0.00976,-0.00976,-0.03416,-0.0244
0.03416,0,-0.03416,-0.05124,-0.06832,0.05124,0.0732,0.07808,0.01952,-0.01464,-0.03416,-0.02928
0.03416,0,-0.03416,-0.05124,-0.06832,0.05124,0.06832,0.07808,0.00976,-0.01464,-0.03904,-0.02928
0.0244,0.00732,-0.03904,-0.05124,-0.06344,0.04392,0.05856,0.06832,0.00488,-0.01464,-0.02928,-0.0244
0.01952,0.0122,-0.04392,-0.05368,-0.06344,0.04148,0.05856,0.06832,0.00488,-0.0244,-0.02928,-0.0244
0.01464,0.01464,-0.04392,-0.05124,-0.05856,0.0366,0.06832,0.0732,0.00488,-0.03416,-0.04392,-0.03416
0.01952,0.0122,-0.04392,-0.05368,-0.06344,0.04148,0.06832,0.06832,0,-0.03904,-0.05368,-0.03416
0.00976,0.0244,-0.05856,-0.06344,-0.06832,0.03904,0.05856,0.06832,-0.01952,-0.03904,-0.05856,-0.0488
0,0.03416,-0.06832,-0.06832,-0.06832,0.03416,0.05856,0.06832,-0.02928,-0.0488,-0.06344,-0.0488
0,0.03172,-0.06344,-0.06344,-0.06344,0.03172,0.06344,0.05856,-0.03904,-0.05856,-0.05856,-0.0488
-0.00488,0.0366,-0.06832,-0.06588,-0.06344,0.02928,0.06344,0.05368,-0.0488,-0.0732,-0.06832,-0.05368
-0.01464,0.0488,-0.08296,-0.07564,-0.06832,0.02684,0.05368,0.04392,-0.06832,-0.0976,-0.08296,-0.06832
-0.01952,0.061,-0.10248,-0.09272,-0.08296,0.03172,0.05368,0.03416,-0.09272,-0.11712,-0.10736,-0.08784
-0.00488,0.05368,-0.10248,-0.10004,-0.0976,0.04636,0.05856,0.0244,-0.10248,-0.13176,-0.10736,-0.08296
0.00488,0.0488,-0.10248,-0.10492,-0.10736,0.05612,0.05856,0.01464,-0.11224,-0.14152,-0.11712,-0.08784
0,0.05124,-0.10248,-0.10248,-0.10248,0.05124,0.06832,0.01464,-0.12688,-0.14152,-0.12688,-0.08784
0.00488,0.05124,-0.10736,-0.1098,-0.11224,0.05856,0.0732,0.00488,-0.13176,-0.15616,-0.13664,-0.09272
-0.03416,0.07808,-0.122,-0.10492,-0.08784,0.02684,0.06832,-0.01464,-0.1464,-0.1708,-0.13664,-0.10736
-0.0732,0.10736,-0.14152,-0.10492,-0.06832,-0.00244,0.06832,-0.0244,-0.16104,-0.18544,-0.15128,-0.11224
-0.06344,0.0976,-0.13176,-0.10004,-0.06832,0.00244,0.0732,-0.02928,-0.17568,-0.20496,-0.15616,-0.10736
-0.05856,0.09028,-0.122,-0.09272,-0.06344,0.00244,0.0732,-0.03904,-0.18056,-0.21472,-0.16104,-0.11224
-0.05856,0.0976,-0.13664,-0.10736,-0.07808,0.00976,0.06344,-0.05368,-0.19032,-0.20984,-0.15616,-0.10248
-0.05856,0.09516,-0.13176,-0.10248,-0.0732,0.00732,0.06344,-0.05856,-0.20008,-0.2196,-0.16104,-0.10248
-0.08784,0.11712,-0.1464,-0.10248,-0.05856,-0.01464,0.06344,-0.0732,-0.20008,-0.2196,-0.16104,-0.11224
-0.0976,0.122,-0.1464,-0.0976,-0.0488,-0.0244,0.06344,-0.0732,-0.20008,-0.2196,-0.15616,-0.11224
-0.0976,0.11712,-0.13664,-0.08784,-0.03904,-0.02928,0.05368,-0.08296,-0.20496,-0.22448,-0.16104,-0.11712
-0.09272,0.11224,-0.13176,-0.0854,-0.03904,-0.02684,0.05368,-0.0732,-0.19032,-0.2196,-0.15128,-0.10736
-0.07808,0.09516,-0.11224,-0.0732,-0.03416,-0.02196,0.06344,-0.06832,-0.1708,-0.20008,-0.14152,-0.0976
-0.0488,0.07564,-0.10248,-0.07808,-0.05368,0.00244,0.06344,-0.06344,-0.16592,-0.17568,-0.13176,-0.08784
-0.03904,0.061,-0.08296,-0.06344,-0.04392,0.00244,0.0488,-0.04392,-0.13176,-0.16104,-0.11224,-0.08296
-0.03416,0.05368,-0.0732,-0.05612,-0.03904,0.00244,0.0488,-0.03416,-0.11712,-0.1464,-0.10248,-0.06832
-0.03416,0.0488,-0.06344,-0.04636,-0.02928,-0.00244,0.0488,-0.0244,-0.10736,-0.12688,-0.08296,-0.05368
-0.0244,0.0366,-0.0488,-0.0366,-0.0244,0,0.0488,-0.01952,-0.08296,-0.10736,-0.0732,-0.03904
-0.02928,0.04148,-0.05368,-0.03904,-0.0244,-0.00244,0.0488,-0.01952,-0.07808,-0.09272,-0.06832,-0.04392
-0.03416,0.03904,-0.04392,-0.02684,-0.00976,-0.0122,0.0488,-0.01464,-0.05856,-0.07808,-0.05856,-0.03904
-0.0244,0.0244,-0.0244,-0.0122,0,-0.0122,0.04392,-0.01464,-0.03904,-0.05856,-0.03904,-0.0244
-0.0244,0.0244,-0.0244,-0.0122,0,-0.0122,0.0488,-0.00488,-0.02928,-0.0488,-0.02928,-0.00976
-0.01464,0.01464,-0.01464,-0.00732,0,-0.00732,0.0488,-0.00488,-0.0244,-0.03904,-0.02928,-0.00488
-0.0244,0.01708,-0.00976,0.00244,0.01464,-0.01952,0.0488,0,-0.0244,-0.03416,-0.02928,-0.00488
-0.0244,0.01708,-0.00976,0.00244,0.01464,-0.01952,0.05368,0,-0.01464,-0.03416,-0.01952,-0.00488
-0.0244,0.01464,-0.00488,0.00732,0.01952,-0.02196,0.05368,0.00488,-0.00976,-0.03416,-0.0244,-0.00488
-0.00488,0,0.00488,0.00732,0.00976,-0.00732,0.05856,0.01464,-0.00488,-0.02928,-0.0244,-0.00488
0.00488,-0.00976,0.01464,0.0122,0.00976,-0.00244,0.05856,0.01952,-0.00488,-0.03416,-0.0244,-0.00488
-0.00488,-0.00488,0.01464,0.01708,0.01952,-0.0122,0.06344,0.01952,0.00488,-0.0244,-0.01952,-0.00488
-0.00976,-0.00244,0.01464,0.01952,0.0244,-0.01708,0.06832,0.0244,0.00488,-0.01952,-0.01952,-0.00976
-0.00976,0.00244,0.00488,0.00976,0.01464,-0.0122,0.06832,0.01464,-0.00488,-0.03904,-0.04392,-0.0244
-0.01952,0.01952,-0.01952,-0.00976,0,-0.00976,0.05856,0.01952,-0.00976,-0.03904,-0.03904,-0.01952
-0.01952,0.01464,-0.00976,0,0.00976,-0.01464,0.06832,0.02928,0,-0.02928,-0.02928,-0.00976
-0.01952,0.00976,0,0.00976,0.01952,-0.01952,0.06832,0.02928,0.00976,-0.02928,-0.02928,-0.00976
-0.0244,0.00732,0.00976,0.02196,0.03416,-0.02928,0.06832,0.03904,0.01952,-0.00976,-0.01952,-0.00488
-0.01464,-0.00244,0.01952,0.02684,0.03416,-0.0244,0.06832,0.04392,0.01952,0,-0.01952,-0.00488
-0.01464,-0.00244,0.01952,0.02684,0.03416,-0.0244,0.06344,0.04392,0.03416,-0.00976,-0.00976,-0.00488
-0.00488,-0.00976,0.0244,0.02684,0.02928,-0.01708,0.06832,0.05368,0.03904,-0.00488,-0.00976,0
-0.01464,-0.00244,0.01952,0.02684,0.03416,-0.0244,0.06832,0.06344,0.02928,0.00488,0.00488,0.00976
-0.00976,-0.00732,0.0244,0.02928,0.03416,-0.02196,0.0732,0.06344,0.04392,0.01464,0.00976,0.01464
0.01952,-0.03904,0.05856,0.0488,0.03904,-0.00976,0.0732,0.0732,0.06344,0.03416,0.0244,0.0244
0.03904,-0.06344,0.08784,0.06832,0.0488,-0.00488,0.07808,0.08296,0.07808,0.0488,0.02928,0.02928
0.04392,-0.07564,0.10736,0.0854,0.06344,-0.00976,0.09272,0.10248,0.0976,0.06344,0.0488,0.0488
0.05368,-0.0854,0.11712,0.09028,0.06344,-0.00488,0.08296,0.10248,0.11224,0.08784,0.06832,0.05856
0.0488,-0.07808,0.10736,0.08296,0.05856,-0.00488,0.06832,0.09272,0.10736,0.07808,0.06832,0.05368
0.04392,-0.07564,0.10736,0.0854,0.06344,-0.00976,0.06832,0.10736,0.11712,0.08296,0.06832,0.05856
0.04392,-0.08052,0.11712,0.09516,0.0732,-0.01464,0.06832,0.0976,0.11712,0.08296,0.06344,0.05368
0.04392,-0.0854,0.12688,0.10492,0.08296,-0.01952,0.06832,0.10248,0.11224,0.09272,0.05368,0.05368
0.06832,-0.11224,0.15616,0.122,0.08784,-0.00976,0.0488,0.10248,0.122,0.09272,0.06344,0.05856
0.08296,-0.12932,0.17568,0.1342,0.09272,-0.00488,0,0.0732,0.122,0.0976,0.07808,0.08296
0.11224,-0.15372,0.1952,0.13908,0.08296,0.01464,-0.05856,0.0488,0.122,0.10736,0.11224,0.11712
0.13664,-0.1708,0.20496,0.13664,0.06832,0.03416,-0.05368,0.04392,0.122,0.11712,0.11712,0.12688
0.13176,-0.16348,0.1952,0.12932,0.06344,0.03416,-0.06832,0.01952,0.10248,0.10248,0.0976,0.10248
0.13176,-0.16104,0.19032,0.12444,0.05856,0.0366,-0.06344,0.00976,0.08784,0.08296,0.09272,0.0976
0.11712,-0.15372,0.19032,0.13176,0.0732,0.02196,-0.05856,0.00488,0.07808,0.0732,0.08296,0.0976
0.11712,-0.14884,0.18056,0.122,0.06344,0.02684,-0.0488,0.00488,0.05856,0.06832,0.08296,0.0976
0.12688,-0.14396,0.16104,0.0976,0.03416,0.04636,-0.02928,0.02928,0.06832,0.08296,0.08784,0.09272
0.12688,-0.14152,0.15616,0.09272,0.02928,0.0488,-0.01952,0.03416,0.08296,0.08784,0.08784,0.09272
0.10736,-0.11712,0.12688,0.0732,0.01952,0.04392,-0.01952,0.03416,0.08296,0.0732,0.0732,0.08296
0.08784,-0.0976,0.10736,0.06344,0.01952,0.03416,-0.00488,0.03416,0.0732,0.05856,0.05856,0.06832
0.05368,-0.06588,0.07808,0.05124,0.0244,0.01464,0.00976,0.02928,0.04392,0.02928,0.0488,0.05856
0.0488,-0.0488,0.0488,0.0244,0,0.0244,0.01952,0.02928,0.03904,0.01952,0.03904,0.03904
0.0488,-0.04148,0.03416,0.00976,-0.01464,0.03172,0.04392,0.03904,0.02928,0.01952,0.01952,0.0244
0.03416,-0.03416,0.03416,0.01708,0,0.01708,0.05368,0.03904,0.02928,0.0244,0.01464,0.01464
0.01952,-0.0244,0.02928,0.01952,0.00976,0.00488,0.0488,0.02928,0.02928,0.00488,0.00976,0.01464
0.01464,-0.01708,0.01952,0.0122,0.00488,0.00488,0.0488,0.0244,0.02928,0.00488,0,0.01464
0.00976,-0.01708,0.0244,0.01952,0.01464,-0.00244,0.0488,0.03416,0.0244,0.00488,0.00976,0.01952
0.01464,-0.02196,0.02928,0.02196,0.01464,0,0.05368,0.03904,0.02928,0.00488,0.00976,0.01464
0.00488,-0.0122,0.01952,0.01708,0.01464,-0.00488,0.04392,0.02928,0.0244,0.00488,0,0.01952
0,-0.00732,0.01464,0.01464,0.01464,-0.00732,0.0488,0.01952,0.0244,0.00488,0,0.01952
0.00976,-0.01464,0.01952,0.01464,0.00976,0,0.04392,0.01952,0.01464,0.01464,-0.00488,0.00976
-0.00488,-0.00488,0.01464,0.01708,0.01952,-0.0122,0.04392,0.0244,0.01952,0.01464,-0.00976,0
0.0244,-0.01952,0.01464,0.00244,-0.00976,0.01708,0.04392,0.03416,0.01952,0.01464,0.00976,-0.00976
0.0488,-0.03416,0.01952,-0.00488,-0.02928,0.03904,0.05856,0.03904,0.01952,-0.00488,-0.00976,-0.0244
-0.00488,0.0366,-0.06832,-0.06588,-0.06344,0.02928,0.10248,0.10248,-0.00488,-0.03904,-0.06344,-0.05856
-0.00976,0.03416,-0.05856,-0.05368,-0.0488,0.01952,0.17568,0.1708,0.01464,-0.03904,-0.06832,-0.05856
0.01464,-0.0244,0.03416,0.02684,0.01952,-0.00244,0.20008,0.23912,0.14152,0.06832,0.01464,-0.02928
0.08296,-0.09028,0.0976,0.05612,0.01464,0.03416,0.25376,0.45384,0.3172,0.244,0.10736,0.03416
0.20496,-0.20252,0.20008,0.0976,-0.00488,0.10492,0.37088,0.8296,0.61488,0.51728,0.27328,0.14152
0.47824,-0.4514,0.42456,0.18544,-0.05368,0.26596,0.20984,0.854,0.8784,0.86864,0.56608,0.40504
0.86376,-0.80032,0.73688,0.305,-0.12688,0.49532,-0.25376,0.61976,1.10776,1.25904,0.93208,0.732
1.08336,-1.03456,0.98576,0.44408,-0.0976,0.59048,-0.81008,0.11712,1.098,1.44448,1.1956,1.01504
1.08824,-1.08336,1.07848,0.53436,-0.00976,0.549,-1.11752,-0.28304,0.83448,1.32248,1.25904,1.15656
0.72224,-0.88816,1.05408,0.69296,0.33184,0.1952,-1.10776,-0.68808,0.38552,0.89792,1.12728,1.13216
0.31232,-0.53436,0.7564,0.60024,0.44408,-0.06588,-0.99552,-1.05408,-0.13176,0.30744,0.732,0.88816
-0.11712,-0.17812,0.47336,0.53192,0.59048,-0.3538,-0.83936,-1.42496,-0.67832,-0.28304,0.33184,0.57584
-0.08784,-0.05856,0.20496,0.24888,0.2928,-0.19032,-0.72224,-1.11264,-0.69296,-0.37088,0.15128,0.3904
-0.08296,0.01464,0.05368,0.09516,0.13664,-0.1098,-0.60024,-0.88816,-0.5856,-0.36112,0.01464,0.22936
0.00976,-0.00488,0,-0.00488,-0.00976,0.00976,-0.32208,-0.48312,-0.40016,-0.28304,-0.02928,0.11712
0.0244,-0.0366,0.0488,0.0366,0.0244,0,-0.13664,-0.24888,-0.20008,-0.16592,0,0.0976
-0.03904,0.00244,0.03416,0.05368,0.0732,-0.05612,-0.03904,-0.11712,-0.10248,-0.08296,-0.00488,0.03416
-0.05368,0.02196,0.00976,0.0366,0.06344,-0.05856,-0.01464,-0.07808,-0.08296,-0.05368,-0.00976,0.00976
-0.04392,0.01708,0.00976,0.03172,0.05368,-0.0488,0.02928,-0.03416,-0.05856,-0.04392,-0.01464,0.00488
-0.02928,0.02684,-0.0244,-0.00976,0.00488,-0.01708,0.06832,0.01464,-0.02928,-0.04392,-0.03904,-0.01952
-0.03416,0.01952,-0.00488,0.0122,0.02928,-0.03172,0.06344,0.03904,0.00488,-0.01464,-0.01464,-0.01952
-0.00976,-0.00244,0.01464,0.01952,0.0244,-0.01708,0.05856,0.03416,0.00488,-0.00488,-0.00488,-0.01464
0.00488,-0.01952,0.03416,0.03172,0.02928,-0.0122,0.06832,0.02928,0,-0.00976,-0.00488,-0.01464
0,-0.0122,0.0244,0.0244,0.0244,-0.0122,0.07808,0.04392,-0.00976,-0.00976,-0.0244,-0.0244
-0.00488,0,0.00488,0.00732,0.00976,-0.00732,0.0732,0.05856,0.00488,-0.01952,-0.02928,-0.03904
-0.01464,0,0.01464,0.02196,0.02928,-0.02196,0.07808,0.05856,0.00976,-0.00488,-0.0244,-0.03416
-0.01952,0.00732,0.00488,0.01464,0.0244,-0.02196,0.07808,0.06832,0.00488,-0.00488,-0.00976,-0.02928
-0.01952,0.00488,0.00976,0.01952,0.02928,-0.0244,0.08784,0.06832,0.00488,-0.00488,-0.00976,-0.01464
-0.01464,-0.00244,0.01952,0.02684,0.03416,-0.0244,0.08296,0.07808,0.01464,0,-0.00976,-0.01464
-0.01464,-0.00488,0.0244,0.03172,0.03904,-0.02684,0.08784,0.06832,0.02928,0.01464,0,-0.00976
-0.00976,-0.01464,0.03904,0.04392,0.0488,-0.02928,0.08296,0.0732,0.03416,0.01464,0.00976,-0.00488
0,-0.0244,0.0488,0.0488,0.0488,-0.0244,0.08296,0.0732,0.03416,0.01464,0.00976,-0.00488
0.00976,-0.03172,0.05368,0.0488,0.04392,-0.01708,0.08296,0.0732,0.02928,0.00976,-0.00488,-0.00488
0.00976,-0.02928,0.0488,0.04392,0.03904,-0.01464,0.07808,0.0732,0.03416,0.01464,0,-0.00488
0.00488,-0.0244,0.04392,0.04148,0.03904,-0.01708,0.06832,0.06344,0.02928,0.00976,-0.00976,-0.01464
-0.00488,-0.00976,0.0244,0.02684,0.02928,-0.01708,0.06832,0.06344,0.01952,0,-0.00976,-0.01464
-0.01464,-0.00732,0.02928,0.0366,0.04392,-0.02928,0.06832,0.0732,0.0244,-0.00488,-0.00488,-0.01464
-0.0244,-0.00488,0.03416,0.04636,0.05856,-0.04148,0.06832,0.0732,0.0244,0.00976,0,-0.01464
-0.0244,-0.00244,0.02928,0.04148,0.05368,-0.03904,0.05368,0.05856,0.01464,0.01464,0,-0.00976
-0.00976,-0.01464,0.03904,0.04392,0.0488,-0.02928,0.05368,0.05856,0.00976,0.01464,0,-0.01464
0,-0.01708,0.03416,0.03416,0.03416,-0.01708,0.05368,0.05368,0,0.00976,-0.00976,-0.0244
0,-0.00976,0.01952,0.01952,0.01952,-0.00976,0.0488,0.05856,0,-0.00488,-0.01464,-0.0244
0,-0.00976,0.01952,0.01952,0.01952,-0.00976,0.04392,0.06832,0.00976,-0.00488,-0.00488,-0.01464
0,-0.01708,0.03416,0.03416,0.03416,-0.01708,0.03904,0.06832,0.00488,-0.00488,-0.00488,-0.01464
0.01464,-0.02684,0.03904,0.03172,0.0244,-0.00488,0.0488,0.05856,0.00488,-0.00488,-0.00488,-0.01464
0.02928,-0.03904,0.0488,0.03416,0.01952,0.00488,0.0488,0.06344,0,-0.00488,-0.00488,-0.01464
0.02928,-0.04148,0.05368,0.03904,0.0244,0.00244,0.0488,0.0732,0.00976,0,-0.00488,-0.00488
0.01952,-0.0366,0.05368,0.04392,0.03416,-0.00732,0.04392,0.06832,0,-0.00488,-0.00488,-0.00976
0.0244,-0.04392,0.06344,0.05124,0.03904,-0.00732,0.0488,0.06832,-0.00488,-0.00488,-0.00976,-0.00976
0.01952,-0.0366,0.05368,0.04392,0.03416,-0.00732,0.0488,0.06832,-0.00488,-0.01464,-0.00976,-0.01464
0.0244,-0.03172,0.03904,0.02684,0.01464,0.00488,0.0488,0.06344,-0.01952,-0.02928,-0.01952,-0.0244
0.0244,-0.02684,0.02928,0.01708,0.00488,0.00976,0.0488,0.06344,-0.02928,-0.03416,-0.02928,-0.03416
0.01952,-0.01952,0.01952,0.00976,0,0.00976,0.03904,0.05368,-0.04392,-0.04392,-0.04392,-0.0488
0.01952,-0.01952,0.01952,0.00976,0,0.00976,0.03904,0.04392,-0.05368,-0.05368,-0.05368,-0.0488
0.00976,-0.0122,0.01464,0.00976,0.00488,0.00244,0.0488,0.03904,-0.06344,-0.0732,-0.06832,-0.06344
0.00488,-0.00976,0.01464,0.0122,0.00976,-0.00244,0.04392,0.03904,-0.0732,-0.08296,-0.07808,-0.0732
0,-0.00732,0.01464,0.01464,0.01464,-0.00732,0.05368,0.03416,-0.08296,-0.10248,-0.07808,-0.0732
-0.00488,-0.00244,0.00976,0.0122,0.01464,-0.00976,0.05368,0.02928,-0.0976,-0.11224,-0.08784,-0.06832
-0.01464,0.00976,-0.00488,0.00244,0.00976,-0.0122,0.05368,0.02928,-0.10248,-0.11224,-0.0976,-0.06344
-0.01952,0.01952,-0.01952,-0.00976,0,-0.00976,0.0488,0.01952,-0.11224,-0.12688,-0.0976,-0.06344
-0.04392,0.03904,-0.03416,-0.0122,0.00976,-0.02684,0.04392,0.00488,-0.13664,-0.1464,-0.10248,-0.07808
-0.05368,0.05124,-0.0488,-0.02196,0.00488,-0.02928,0.03904,-0.01464,-0.15128,-0.16104,-0.11224,-0.07808
-0.04392,0.05124,-0.05856,-0.0366,-0.01464,-0.01464,0.03416,-0.01952,-0.16592,-0.19032,-0.12688,-0.09272
-0.06344,0.05856,-0.05368,-0.02196,0.00976,-0.0366,0.04392,-0.03416,-0.1708,-0.1952,-0.12688,-0.0976
-0.06344,0.05368,-0.04392,-0.0122,0.01952,-0.04148,0.0488,-0.0488,-0.20008,-0.20984,-0.14152,-0.10736
-0.06832,0.05612,-0.04392,-0.00976,0.0244,-0.04636,0.04392,-0.05368,-0.20496,-0.2196,-0.15128,-0.10736
-0.06832,0.061,-0.05368,-0.01952,0.01464,-0.04148,0.03416,-0.06832,-0.22936,-0.23424,-0.16592,-0.11224
-0.06832,0.06344,-0.05856,-0.0244,0.00976,-0.03904,0.03416,-0.0732,-0.23424,-0.244,-0.16592,-0.11224
-0.08784,0.07076,-0.05368,-0.00976,0.03416,-0.061,0.04392,-0.08296,-0.23424,-0.25376,-0.16104,-0.11224
-0.08784,0.0732,-0.05856,-0.01464,0.02928,-0.05856,0.04392,-0.08296,-0.22448,-0.244,-0.16104,-0.11224
-0.0976,0.08052,-0.06344,-0.01464,0.03416,-0.06588,0.03416,-0.09272,-0.22448,-0.24888,-0.15616,-0.10736
-0.09272,0.07564,-0.05856,-0.0122,0.03416,-0.06344,0.03416,-0.09272,-0.22448,-0.23424,-0.1464,-0.10736
-0.09272,0.06832,-0.04392,0.00244,0.0488,-0.07076,0.0244,-0.08296,-0.20984,-0.21472,-0.13664,-0.10248
-0.07808,0.05856,-0.03904,0,0.03904,-0.05856,0.0244,-0.0732,-0.1952,-0.20008,-0.122,-0.09272
-0.06344,0.04392,-0.0244,0.00732,0.03904,-0.05124,0.0244,-0.06344,-0.18056,-0.17568,-0.11224,-0.08296
-0.05368,0.03172,-0.00976,0.01708,0.04392,-0.0488,0.03416,-0.04392,-0.15128,-0.15616,-0.10248,-0.0732
-0.03904,0.01952,0,0.01952,0.03904,-0.03904,0.02928,-0.03904,-0.11712,-0.13664,-0.09272,-0.05368
-0.02928,0.00732,0.01464,0.02928,0.04392,-0.0366,0.02928,-0.02928,-0.10248,-0.11712,-0.07808,-0.0488
-0.03416,0.00488,0.0244,0.04148,0.05856,-0.04636,0.02928,-0.02928,-0.08784,-0.0976,-0.05368,-0.03904
-0.0244,-0.00244,0.02928,0.04148,0.05368,-0.03904,0.02928,-0.01464,-0.06344,-0.07808,-0.04392,-0.02928
-0.03416,-0.00244,0.03904,0.05612,0.0732,-0.05368,0.0244,-0.01464,-0.05368,-0.0732,-0.04392,-0.03904
-0.03416,-0.00488,0.04392,0.061,0.07808,-0.05612,0.02928,-0.00488,-0.04392,-0.06344,-0.03416,-0.02928
-0.0244,-0.01464,0.05368,0.06588,0.07808,-0.05124,0.01952,-0.01464,-0.03904,-0.06344,-0.03904,-0.02928
-0.02928,-0.0122,0.05368,0.06832,0.08296,-0.05612,0.01952,-0.00976,-0.03904,-0.05368,-0.02928,-0.0244
-0.0244,-0.01708,0.05856,0.07076,0.08296,-0.05368,0.02928,0,-0.03904,-0.0488,-0.0244,-0.01464
-0.0244,-0.01708,0.05856,0.07076,0.08296,-0.05368,0.03416,0.00488,-0.02928,-0.03904,-0.01952,-0.01464
-0.0244,-0.01464,0.05368,0.06588,0.07808,-0.05124,0.03416,-0.00488,-0.01952,-0.03416,-0.01952,-0.01464
-0.0244,-0.01464,0.05368,0.06588,0.07808,-0.05124,0.0244,-0.00488,-0.02928,-0.04392,-0.02928,-0.01464
-0.03416,-0.00732,0.0488,0.06588,0.08296,-0.05856,0.02928,0.00976,-0.0244,-0.05368,-0.03416,-0.0244
-0.03904,0,0.03904,0.05856,0.07808,-0.05856,0.04392,0.00976,-0.0244,-0.05368,-0.03904,-0.0244
-0.03904,-0.00244,0.04392,0.06344,0.08296,-0.061,0.05856,0.01464,-0.01464,-0.03904,-0.01952,-0.01952
-0.06832,0.00976,0.0488,0.08296,0.11712,-0.09272,0.05856,0.01952,-0.00976,-0.03904,-0.02928,-0.02928
-0.06832,0.00488,0.05856,0.09272,0.12688,-0.0976,0.05856,0.02928,-0.00976,-0.02928,-0.02928,-0.01952
-0.06832,0.00488,0.05856,0.09272,0.12688,-0.0976,0.05856,0.02928,-0.00976,-0.02928,-0.02928,-0.01952
-0.06344,0.00732,0.0488,0.08052,0.11224,-0.08784,0.05856,0.01952,-0.00976,-0.02928,-0.01952,-0.0244
-0.05368,0.00244,0.0488,0.07564,0.10248,-0.07808,0.05856,0.0244,-0.00976,-0.02928,-0.01952,-0.0244
-0.04392,0.00244,0.03904,0.061,0.08296,-0.06344,0.04392,0.0244,-0.01464,-0.03904,-0.02928,-0.03416
-0.03416,-0.00488,0.04392,0.061,0.07808,-0.05612,0.0488,0.03416,-0.00976,-0.03416,-0.02928,-0.02928
-0.04392,-0.00244,0.0488,0.07076,0.09272,-0.06832,0.05856,0.05368,0,-0.01464,-0.01464,-0.00976
-0.0488,-0.00244,0.05368,0.07808,0.10248,-0.07564,0.0732,0.05368,0.0244,0.00488,0,0.00488
-0.03904,-0.01952,0.07808,0.0976,0.11712,-0.07808,0.06344,0.05368,0.03416,0.00488,0.00488,0.00488
-0.02928,-0.03416,0.0976,0.11224,0.12688,-0.07808,0.06832,0.06344,0.0488,0.01952,0.00976,0
0.00488,-0.06588,0.12688,0.12444,0.122,-0.05856,0.06344,0.0732,0.05856,0.03416,0.01952,0.00976
0.0244,-0.08052,0.13664,0.12444,0.11224,-0.04392,0.05368,0.0732,0.06344,0.0488,0.02928,0.01952
0.02928,-0.07808,0.12688,0.11224,0.0976,-0.03416,0.0488,0.0732,0.06832,0.03904,0.02928,0.0244
0.03416,-0.08052,0.12688,0.1098,0.09272,-0.02928,0.0488,0.08784,0.07808,0.04392,0.02928,0.02928
0.0244,-0.08052,0.13664,0.12444,0.11224,-0.04392,0.0488,0.07808,0.08784,0.05368,0.04392,0.03416
0.0244,-0.0854,0.1464,0.1342,0.122,-0.0488,0.0488,0.08296,0.09272,0.06344,0.04392,0.04392
0.03904,-0.11224,0.18544,0.16592,0.1464,-0.05368,0.01952,0.0732,0.10248,0.0732,0.0732,0.05856
0.05368,-0.1342,0.21472,0.18788,0.16104,-0.05368,-0.03904,0.04392,0.10248,0.08784,0.08784,0.08296
0.08296,-0.14396,0.20496,0.16348,0.122,-0.01952,-0.08784,0.00976,0.09272,0.07808,0.08296,0.07808
0.10736,-0.1464,0.18544,0.13176,0.07808,0.01464,-0.08296,0.00488,0.08296,0.06832,0.06832,0.06832
0.09272,-0.1342,0.17568,0.12932,0.08296,0.00488,-0.07808,0,0.06344,0.05368,0.06832,0.06344
0.08296,-0.12688,0.1708,0.12932,0.08784,-0.00244,-0.06344,-0.00976,0.0488,0.03416,0.06344,0.05856
0.08784,-0.1342,0.18056,0.13664,0.09272,-0.00244,-0.06832,-0.00488,0.0488,0.04392,0.06344,0.06832
0.08784,-0.12932,0.1708,0.12688,0.08296,0.00244,-0.05856,-0.00488,0.03904,0.0488,0.0732,0.06832
0.0976,-0.1342,0.1708,0.122,0.0732,0.0122,-0.03904,0.01952,0.0488,0.05368,0.07808,0.08296
0.0976,-0.13176,0.16592,0.11712,0.06832,0.01464,-0.02928,0.0244,0.06344,0.05856,0.07808,0.08296
0.07808,-0.10248,0.12688,0.08784,0.0488,0.01464,-0.02928,0.0244,0.05368,0.04392,0.06344,0.06344
0.0488,-0.07808,0.10736,0.08296,0.05856,-0.00488,-0.01464,0.0244,0.04392,0.02928,0.0488,0.0488
0.00488,-0.04148,0.07808,0.07564,0.0732,-0.03416,0,0.01952,0.01464,0.00976,0.01952,0.01952
-0.00976,-0.01464,0.03904,0.04392,0.0488,-0.02928,0.00976,0.01952,0.00976,0,0.00976,0
-0.01952,-0.00244,0.0244,0.03416,0.04392,-0.03172,0.0244,0.01952,0.00976,-0.00976,0,-0.00488
-0.03416,0.00976,0.01464,0.03172,0.0488,-0.04148,0.03416,0.01952,0.00976,-0.01464,-0.00488,-0.01464
-0.02928,0.00976,0.00976,0.0244,0.03904,-0.03416,0.01952,0.00976,-0.00976,-0.03416,-0.01952,-0.0244
-0.0244,0.0122,0,0.0122,0.0244,-0.0244,0.00976,-0.00488,-0.01952,-0.03416,-0.03904,-0.03416
-0.03904,0.02684,-0.01464,0.00488,0.0244,-0.03172,0.01952,0.00488,-0.01464,-0.03416,-0.02928,-0.03904
-0.03416,0.02684,-0.01952,-0.00244,0.01464,-0.0244,0.03416,0.00976,-0.00976,-0.03416,-0.02928,-0.04392
-0.0244,0.01708,-0.00976,0.00244,0.01464,-0.01952,0.03416,0.01952,-0.01464,-0.0244,-0.02928,-0.02928
-0.01952,0.01708,-0.01464,-0.00488,0.00488,-0.0122,0.03904,0.01952,-0.01464,-0.0244,-0.02928,-0.01952
-0.01952,0.00976,0,0.00976,0.01952,-0.01952,0.04392,0.01952,-0.00488,-0.01464,-0.01464,-0.01952
-0.03416,0.01952,-0.00488,0.0122,0.02928,-0.03172,0.04392,0.0244,0,-0.01464,-0.01952,-0.01952
-0.01464,0.01952,-0.0244,-0.01708,-0.00976,-0.00244,0.04392,0.0244,-0.00976,-0.0244,-0.02928,-0.01952
-0.03904,0.05368,-0.06832,-0.0488,-0.02928,-0.00488,0.05856,0.0488,-0.02928,-0.04392,-0.0488,-0.04392
-0.0244,0.05612,-0.08784,-0.07564,-0.06344,0.01952,0.122,0.11224,-0.0244,-0.05856,-0.0732,-0.07808
-0.02928,0.0488,-0.06832,-0.05368,-0.03904,0.00488,0.15616,0.16104,0.01464,-0.0488,-0.07808,-0.0976
0.01464,-0.01952,0.0244,0.01708,0.00976,0.00244,0.19032,0.27816,0.15128,0.07808,-0.00488,-0.03904
0.09272,-0.09516,0.0976,0.05124,0.00488,0.04392,0.30256,0.58072,0.38552,0.28304,0.11712,0.04392
0.26352,-0.24644,0.22936,0.0976,-0.03416,0.14884,0.37088,0.88816,0.6832,0.59536,0.32208,0.19032
0.6344,-0.57828,0.52216,0.20496,-0.11224,0.37332,0.0244,0.74664,0.91744,0.94672,0.64416,0.47336
0.94184,-0.87352,0.8052,0.33428,-0.13664,0.53924,-0.488,0.4148,1.06872,1.27856,0.98088,0.79056
1.10288,-1.05896,1.01504,0.4636,-0.08784,0.59536,-0.99552,-0.0976,0.98088,1.40544,1.20536,1.05408
0.96136,-0.99552,1.02968,0.549,0.06832,0.44652,-1.17608,-0.47824,0.62952,1.1468,1.1712,1.11752
0.57584,-0.77104,0.96624,0.67832,0.3904,0.09272,-1.16632,-0.87352,0.20008,0.70272,1.01016,1.06384
0.11712,-0.3782,0.63928,0.58072,0.52216,-0.20252,-0.98576,-1.24928,-0.366,0.06344,0.57584,0.76128
-0.11712,-0.1098,0.33672,0.39528,0.45384,-0.28548,-0.83936,-1.38592,-0.74664,-0.37088,0.23424,0.49776
-0.07808,-0.0244,0.12688,0.16592,0.20496,-0.14152,-0.72224,-1.06384,-0.66368,-0.37088,0.09272,0.31232
-0.05368,0.01952,0.01464,0.04148,0.06832,-0.061,-0.5124,-0.75152,-0.5368,-0.3416,-0.01464,0.1708
-0.00976,0.00976,-0.00976,-0.00488,0,-0.00488,-0.25376,-0.39528,-0.3416,-0.25376,-0.03904,0.0976
-0.0244,0.02196,-0.01952,-0.00732,0.00488,-0.01464,-0.10736,-0.18056,-0.18056,-0.15616,-0.03904,0.0488
-0.03904,0.02196,-0.00488,0.01464,0.03416,-0.0366,-0.03904,-0.0976,-0.11224,-0.10248,-0.04392,-0.00488
-0.0244,0.00732,0.00976,0.02196,0.03416,-0.02928,-0.01464,-0.06832,-0.08296,-0.08296,-0.03904,-0.00976
-0.04392,0.02684,-0.00976,0.0122,0.03416,-0.03904,0.03904,-0.01464,-0.06832,-0.06344,-0.03416,-0.01464
-0.05856,0.04636,-0.03416,-0.00488,0.0244,-0.04148,0.06832,0.03416,-0.02928,-0.06344,-0.05856,-0.02928
-0.08296,0.06344,-0.04392,-0.00244,0.03904,-0.061,0.0732,0.05368,-0.00976,-0.05368,-0.05368,-0.03416
-0.07808,0.061,-0.04392,-0.00488,0.03416,-0.05612,0.06832,0.03904,-0.01952,-0.04392,-0.04392,-0.03904
-0.06832,0.05124,-0.03416,0,0.03416,-0.05124,0.06832,0.02928,-0.0244,-0.0488,-0.0488,-0.04392
-0.06344,0.05368,-0.04392,-0.0122,0.01952,-0.04148,0.07808,0.04392,-0.0244,-0.0488,-0.05856,-0.05368
-0.0488,0.0488,-0.0488,-0.0244,0,-0.0244,0.0732,0.05856,-0.00488,-0.04392,-0.0488,-0.0488
-0.0488,0.03904,-0.02928,-0.00488,0.01952,-0.03416,0.07808,0.05856,0,-0.01952,-0.04392,-0.04392
-0.03904,0.02928,-0.01952,0,0.01952,-0.02928,0.08296,0.06832,0.00488,-0.01464,-0.03904,-0.04392
-0.03904,0.02196,-0.00488,0.01464,0.03416,-0.0366,0.08296,0.06832,0.00488,-0.01464,-0.03904,-0.03904
-0.03416,0.01952,-0.00488,0.0122,0.02928,-0.03172,0.08296,0.0732,-0.00488,-0.01464,-0.03904,-0.04392
-0.03416,0.02196,-0.00976,0.00732,0.0244,-0.02928,0.08784,0.0732,0.00976,-0.00976,-0.02928,-0.03904
-0.02928,0.01708,-0.00488,0.00976,0.0244,-0.02684,0.0732,0.0732,0.00488,-0.01464,-0.03904,-0.04392
-0.01952,0.0122,-0.00488,0.00488,0.01464,-0.01708,0.0732,0.0732,0.00488,-0.01464,-0.03904,-0.04392
-0.02928,0.0122,0.00488,0.01952,0.03416,-0.03172,0.08296,0.08296,0.00976,-0.00976,-0.04392,-0.04392
-0.02928,0.01464,0,0.01464,0.02928,-0.02928,0.07808,0.08296,0.01464,-0.00488,-0.03904,-0.04392
-0.0244,0.01464,-0.00488,0.00732,0.01952,-0.02196,0.07808,0.0732,0.00488,0.00488,-0.02928,-0.03416
-0.03416,0.01952,-0.00488,0.0122,0.02928,-0.03172,0.07808,0.0732,0.00488,0.00488,-0.02928,-0.03416
-0.01952,0.00732,0.00488,0.01464,0.0244,-0.02196,0.06832,0.0732,0.01464,-0.00976,-0.0244,-0.04392
-0.01952,0.00976,0,0.00976,0.01952,-0.01952,0.06832,0.0732,0.01464,-0.00488,-0.01952,-0.04392
-0.03416,0.01952,-0.00488,0.0122,0.02928,-0.03172,0.06344,0.06832,0.00488,-0.01464,-0.02928,-0.03904
-0.03904,0.02196,-0.00488,0.01464,0.03416,-0.0366,0.06344,0.06832,0,-0.01464,-0.02928,-0.04392
-0.03416,0.02196,-0.00976,0.00732,0.0244,-0.02928,0.05368,0.06344,0,-0.01464,-0.02928,-0.04392
-0.0244,0.01952,-0.01464,-0.00244,0.00976,-0.01708,0.0488,0.06832,0,-0.01952,-0.03416,-0.04392
-0.01464,0.0122,-0.00976,-0.00244,0.00488,-0.00976,0.06344,0.06832,0,-0.00976,-0.03416,-0.04392
-0.00488,0,0.00488,0.00732,0.00976,-0.00732,0.05856,0.06832,-0.00488,-0.01952,-0.03416,-0.04392
-0.01464,0.00732,0,0.00732,0.01464,-0.01464,0.05856,0.06832,-0.00488,-0.0244,-0.04392,-0.04392
-0.01952,0.01464,-0.00976,0,0.00976,-0.01464,0.05856,0.0732,-0.00976,-0.0244,-0.04392,-0.04392
-0.01464,0.01464,-0.01464,-0.00732,0,-0.00732,0.05856,0.0732,-0.00976,-0.02928,-0.04392,-0.04392
-0.01464,0.01464,-0.01464,-0.00732,0,-0.00732,0.05368,0.06832,-0.01952,-0.03416,-0.04392,-0.0488
-0.00976,0.0122,-0.01464,-0.00976,-0.00488,-0.00244,0.0488,0.06832,-0.03416,-0.03416,-0.05856,-0.05856
-0.00488,0.01464,-0.0244,-0.02196,-0.01952,0.00732,0.0488,0.06832,-0.03416,-0.04392,-0.05856,-0.06344
-0.00976,0.02196,-0.03416,-0.02928,-0.0244,0.00732,0.0488,0.0732,-0.02928,-0.0488,-0.06344,-0.05368
-0.01952,0.02684,-0.03416,-0.0244,-0.01464,-0.00244,0.0488,0.0732,-0.03904,-0.05368,-0.06344,-0.06344
-0.02928,0.03172,-0.03416,-0.01952,-0.00488,-0.0122,0.0488,0.05856,-0.03416,-0.05368,-0.05368,-0.06832
-0.02928,0.02684,-0.0244,-0.00976,0.00488,-0.01708,0.0488,0.05856,-0.04392,-0.06344,-0.06344,-0.06832
-0.02928,0.0244,-0.01952,-0.00488,0.00976,-0.01952,0.05856,0.05856,-0.06344,-0.07808,-0.0732,-0.08296
-0.03416,0.03172,-0.02928,-0.0122,0.00488,-0.01952,0.05368,0.05856,-0.0732,-0.0976,-0.09272,-0.09272
-0.02928,0.0366,-0.04392,-0.02928,-0.01464,-0.00732,0.04392,0.03416,-0.08296,-0.11224,-0.0976,-0.0976
-0.03416,0.04148,-0.0488,-0.03172,-0.01464,-0.00976,0.04392,0.02928,-0.0976,-0.122,-0.10736,-0.10248
-0.03904,0.04392,-0.0488,-0.02928,-0.00976,-0.01464,0.05368,0.02928,-0.11224,-0.13176,-0.122,-0.10248
-0.03416,0.04392,-0.05368,-0.0366,-0.01952,-0.00732,0.0488,0.01952,-0.122,-0.1464,-0.13176,-0.10248
-0.04392,0.05124,-0.05856,-0.0366,-0.01464,-0.01464,0.05856,0.00976,-0.13176,-0.16104,-0.12688,-0.10736
-0.05368,0.05856,-0.06344,-0.0366,-0.00976,-0.02196,0.06344,0,-0.13664,-0.16592,-0.12688,-0.10736
-0.05368,0.06344,-0.0732,-0.04636,-0.01952,-0.01708,0.0488,-0.00976,-0.15616,-0.19032,-0.1464,-0.11224
-0.0732,0.07564,-0.07808,-0.04148,-0.00488,-0.03416,0.0488,-0.0244,-0.16104,-0.1952,-0.1464,-0.11712
-0.08296,0.0854,-0.08784,-0.04636,-0.00488,-0.03904,0.03904,-0.0488,-0.19032,-0.2196,-0.16104,-0.13664
-0.08784,0.09272,-0.0976,-0.05368,-0.00976,-0.03904,0.03416,-0.05368,-0.1952,-0.22936,-0.1708,-0.13664
-0.0976,0.10004,-0.10248,-0.05368,-0.00488,-0.04636,0.04392,-0.06344,-0.20008,-0.23424,-0.16592,-0.13664
-0.0976,0.10248,-0.10736,-0.05856,-0.00976,-0.04392,0.04392,-0.05856,-0.20496,-0.22448,-0.16592,-0.12688
-0.10248,0.10248,-0.10248,-0.05124,0,-0.05124,0.04392,-0.06344,-0.20984,-0.23912,-0.1708,-0.13176
-0.09272,0.10004,-0.10736,-0.061,-0.01464,-0.03904,0.04392,-0.06344,-0.20984,-0.23912,-0.1708,-0.13176
-0.08784,0.09516,-0.10248,-0.05856,-0.01464,-0.0366,0.03416,-0.0732,-0.20496,-0.23912,-0.17568,-0.13664
-0.08296,0.09028,-0.0976,-0.05612,-0.01464,-0.03416,0.03416,-0.0732,-0.20496,-0.22448,-0.16592,-0.13664
-0.08296,0.07808,-0.0732,-0.03172,0.00976,-0.04636,0.04392,-0.05856,-0.1708,-0.20008,-0.1464,-0.122
-0.06832,0.06832,-0.06832,-0.03416,0,-0.03416,0.04392,-0.03904,-0.15616,-0.17568,-0.13176,-0.11224
-0.06832,0.07076,-0.0732,-0.03904,-0.00488,-0.03172,0.0488,-0.02928,-0.1464,-0.16592,-0.122,-0.0976
-0.06832,0.06344,-0.05856,-0.0244,0.00976,-0.03904,0.0488,-0.01952,-0.12688,-0.1464,-0.11224,-0.07808
-0.05368,0.0488,-0.04392,-0.01708,0.00976,-0.03172,0.03904,-0.00976,-0.0976,-0.12688,-0.09272,-0.06344
-0.03416,0.02684,-0.01952,-0.00244,0.01464,-0.0244,0.03904,0,-0.08296,-0.10736,-0.07808,-0.05856
-0.02928,0.01952,-0.00976,0.00488,0.01952,-0.0244,0.03904,-0.00976,-0.07808,-0.0976,-0.0732,-0.0488
-0.02928,0.02196,-0.01464,0,0.01464,-0.02196,0.03904,0.00488,-0.05368,-0.07808,-0.06344,-0.03904
-0.04392,0.02928,-0.01464,0.00732,0.02928,-0.0366,0.0244,0.00488,-0.05368,-0.0732,-0.06344,-0.0488
-0.04392,0.03172,-0.01952,0.00244,0.0244,-0.03416,0.02928,0.01464,-0.04392,-0.06344,-0.05368,-0.03904
-0.04392,0.03172,-0.01952,0.00244,0.0244,-0.03416,0.02928,0.00488,-0.03416,-0.05368,-0.0488,-0.0488
-0.0488,0.02928,-0.00976,0.01464,0.03904,-0.04392,0.02928,0.00976,-0.0244,-0.04392,-0.03904,-0.04392
-0.04392,0.01708,0.00976,0.03172,0.05368,-0.0488,0.03904,0.01952,-0.01464,-0.03416,-0.02928,-0.03416
-0.04392,0.01708,0.00976,0.03172,0.05368,-0.0488,0.04392,0.0244,-0.01464,-0.03416,-0.03416,-0.03416
-0.05368,0.0244,0.00488,0.03172,0.05856,-0.05612,0.0488,0.0244,-0.00488,-0.03904,-0.03416,-0.03416
-0.05368,0.0244,0.00488,0.03172,0.05856,-0.05612,0.0488,0.0244,-0.00488,-0.03904,-0.03416,-0.03416
-0.04392,0.01464,0.01464,0.0366,0.05856,-0.05124,0.05368,0.02928,-0.01464,-0.04392,-0.03416,-0.04392
-0.01952,-0.00732,0.03416,0.04392,0.05368,-0.0366,0.05856,0.02928,0.00488,-0.0244,-0.02928,-0.03416
-0.0488,0.01952,0.00976,0.03416,0.05856,-0.05368,0.05368,0.03904,0,-0.02928,-0.04392,-0.0488
-0.0488,0.01952,0.00976,0.03416,0.05856,-0.05368,0.06344,0.03904,0,-0.02928,-0.03416,-0.0488
-0.05856,0.02928,0,0.02928,0.05856,-0.05856,0.07808,0.03904,0,-0.02928,-0.02928,-0.04392
-0.06344,0.03172,0,0.03172,0.06344,-0.06344,0.07808,0.03904,0,-0.02928,-0.02928,-0.04392
-0.05856,0.02684,0.00488,0.03416,0.06344,-0.061,0.07808,0.04392,0.01464,-0.01952,-0.02928,-0.03416
-0.03904,0.00976,0.01952,0.03904,0.05856,-0.0488,0.0732,0.05368,0.01464,-0.01464,-0.02928,-0.03416
-0.04392,0.00976,0.0244,0.04636,0.06832,-0.05612,0.06832,0.04392,0.00976,-0.0244,-0.0244,-0.03904
-0.03904,0.00244,0.03416,0.05368,0.0732,-0.05612,0.0732,0.05368,0.01952,-0.00976,-0.0244,-0.03904
-0.03904,0,0.03904,0.05856,0.07808,-0.05856,0.08296,0.06832,0.02928,-0.00976,-0.01952,-0.02928
-0.0244,-0.01464,0.05368,0.06588,0.07808,-0.05124,0.08784,0.07808,0.03904,0,-0.00976,-0.01952
-0.01464,-0.03416,0.08296,0.09028,0.0976,-0.05612,0.08296,0.08784,0.05368,0.01464,0.00488,-0.00488
0,-0.04636,0.09272,0.09272,0.09272,-0.04636,0.0732,0.09272,0.06344,0.01952,0.01464,0.00488
0.01464,-0.05612,0.0976,0.09028,0.08296,-0.03416,0.06832,0.09272,0.06344,0.02928,0.01464,0.00488
0.01952,-0.05856,0.0976,0.08784,0.07808,-0.02928,0.06832,0.09272,0.06832,0.03416,0.01952,0.00488
0.01952,-0.05856,0.0976,0.08784,0.07808,-0.02928,0.06832,0.10736,0.08296,0.03904,0.01952,0
0.02928,-0.06832,0.10736,0.09272,0.07808,-0.0244,0.06832,0.10736,0.08784,0.0488,0.0244,0.00488
0.04392,-0.0854,0.12688,0.10492,0.08296,-0.01952,0.06832,0.11224,0.0976,0.06832,0.0488,0.01952
0.05856,-0.10492,0.15128,0.122,0.09272,-0.01708,0.03904,0.10736,0.10248,0.08296,0.06832,0.0488
0.07808,-0.12688,0.17568,0.13664,0.0976,-0.00976,-0.02928,0.06344,0.10248,0.08784,0.0732,0.06832
0.0976,-0.13664,0.17568,0.12688,0.07808,0.00976,-0.06344,0.04392,0.10248,0.08784,0.08296,0.06344
0.10248,-0.13908,0.17568,0.12444,0.0732,0.01464,-0.06832,0.03416,0.08296,0.0732,0.06832,0.06344
0.10248,-0.1342,0.16592,0.11468,0.06344,0.01952,-0.06344,0.01952,0.06344,0.05368,0.05368,0.0488
0.0976,-0.12932,0.16104,0.11224,0.06344,0.01708,-0.0488,0.01464,0.06832,0.04392,0.05856,0.0488
0.0976,-0.12444,0.15128,0.10248,0.05368,0.02196,-0.0488,0.01464,0.06344,0.03904,0.05368,0.0488
0.0976,-0.11712,0.13664,0.08784,0.03904,0.02928,-0.04392,0.01952,0.0488,0.04392,0.05368,0.0488
0.0976,-0.11224,0.12688,0.07808,0.02928,0.03416,-0.03416,0.03416,0.05368,0.0488,0.05856,0.05368
0.10736,-0.11468,0.122,0.06832,0.01464,0.04636,-0.0244,0.0488,0.05368,0.05856,0.05856,0.06344
0.09272,-0.08784,0.08296,0.0366,-0.00976,0.05124,-0.01464,0.05368,0.0488,0.0488,0.04392,0.0488
0.05368,-0.06344,0.0732,0.04636,0.01952,0.01708,0,0.03416,0.04392,0.02928,0.0244,0.01952
0.0244,-0.04148,0.05856,0.04636,0.03416,-0.00488,0.00976,0.02928,0.02928,0.01952,0.00976,0.00488
0.00976,-0.01708,0.0244,0.01952,0.01464,-0.00244,0.03904,0.03904,0.0244,0.01952,0.00976,-0.00976
-0.00976,0.00732,-0.00488,0,0.00488,-0.00732,0.0488,0.03904,0.01952,0.00488,-0.00488,-0.01464
-0.0244,0.01708,-0.00976,0.00244,0.01464,-0.01952,0.04392,0.02928,0.00488,-0.00976,-0.01952,-0.01952
-0.03416,0.0244,-0.01464,0.00244,0.01952,-0.02684,0.03904,0.0244,0,-0.01464,-0.01952,-0.02928
-0.02928,0.02684,-0.0244,-0.00976,0.00488,-0.01708,0.03904,0.0244,-0.00488,-0.0244,-0.02928,-0.02928
-0.0244,0.0244,-0.0244,-0.0122,0,-0.0122,0.04392,0.02928,-0.00488,-0.0244,-0.02928,-0.03416
-0.01464,0.0122,-0.00976,-0.00244,0.00488,-0.00976,0.05368,0.02928,0,-0.0244,-0.02928,-0.03904
-0.01464,0.01464,-0.01464,-0.00732,0,-0.00732,0.05368,0.02928,-0.00488,-0.0244,-0.02928,-0.03904
0,0.00488,-0.00976,-0.00976,-0.00976,0.00488,0.05856,0.03904,0.00488,-0.0244,-0.0244,-0.03904
-0.00488,0.00732,-0.00976,-0.00732,-0.00488,0,0.06344,0.04392,0.00976,-0.0244,-0.0244,-0.03904
-0.0244,0.0244,-0.0244,-0.0122,0,-0.0122,0.06344,0.04392,0,-0.00488,-0.01952,-0.02928
-0.02928,0.02196,-0.01464,0,0.01464,-0.02196,0.06344,0.03904,-0.00488,-0.01952,-0.02928,-0.03416
0.00488,0.03416,-0.0732,-0.07564,-0.07808,0.04148,0.07808,0.05368,-0.02928,-0.05368,-0.0732,-0.06832
0.00488,0.05124,-0.10736,-0.1098,-0.11224,0.05856,0.13664,0.122,-0.03416,-0.0976,-0.11712,-0.12688
-0.00976,0.03172,-0.05368,-0.0488,-0.04392,0.01708,0.18056,0.18056,0.02928,-0.0244,-0.08296,-0.0976
0.03416,-0.03904,0.04392,0.02684,0.00976,0.0122,0.2196,0.32208,0.20008,0.13176,0.02928,-0.01464
0.15616,-0.14396,0.13176,0.05368,-0.0244,0.09028,0.32696,0.64904,0.42944,0.32696,0.15128,0.05368
0.35624,-0.31476,0.27328,0.09516,-0.08296,0.2196,0.3416,0.9028,0.69784,0.62952,0.35624,0.20008
0.72224,-0.62952,0.5368,0.17568,-0.18544,0.45384,-0.04392,0.72712,0.9028,0.98088,0.66856,0.49776
1.02968,-0.9272,0.82472,0.30988,-0.20496,0.61732,-0.57096,0.33672,1.0004,1.25416,0.98576,0.8296
1.1468,-1.05652,0.96624,0.39284,-0.18056,0.66368,-1.0492,-0.20008,0.86864,1.28832,1.14192,1.02968
0.94184,-0.9516,0.96136,0.49044,0.01952,0.46116,-1.15656,-0.59536,0.47336,0.96624,1.06872,1.0492
0.54168,-0.70028,0.85888,0.58804,0.3172,0.11224,-1.12728,-0.95648,0.06832,0.55144,0.8784,0.97112
0.0732,-0.32452,0.57584,0.53924,0.50264,-0.21472,-0.94672,-1.35664,-0.49776,-0.0732,0.45872,0.6832
-0.0976,-0.10004,0.29768,0.34648,0.39528,-0.24644,-0.79544,-1.33712,-0.732,-0.38552,0.19032,0.44896
-0.08296,-0.0122,0.10736,0.14884,0.19032,-0.13664,-0.6832,-1.0492,-0.6344,-0.3904,0.05856,0.27328
-0.04392,0.02928,-0.01464,0.00732,0.02928,-0.0366,-0.44896,-0.68808,-0.5124,-0.3416,-0.04392,0.122
0,0,0,0,0,0,-0.21472,-0.35136,-0.30256,-0.20984,-0.03904,0.07808
-0.01952,0.0122,-0.00488,0.00488,0.01464,-0.01708,-0.08296,-0.16104,-0.15128,-0.13664,-0.04392,0.03904
-0.08296,0.05124,-0.01952,0.02196,0.06344,-0.0732,-0.0244,-0.0976,-0.09272,-0.09272,-0.03416,-0.01952
-0.0488,0.01952,0.00976,0.03416,0.05856,-0.05368,0.0244,-0.04392,-0.06344,-0.05856,-0.01464,-0.01464
-0.0244,0.01708,-0.00976,0.00244,0.01464,-0.01952,0.06344,0.01464,-0.0488,-0.04392,-0.03416,-0.03416
-0.03904,0.0244,-0.00976,0.00976,0.02928,-0.03416,0.0732,0.03904,-0.01952,-0.03904,-0.0488,-0.03904
-0.03904,0.02928,-0.01952,0,0.01952,-0.02928,0.08296,0.0488,-0.00488,-0.02928,-0.0488,-0.0488
-0.02928,0.01464,0,0.01464,0.02928,-0.02928,0.07808,0.03904,-0.00488,-0.0244,-0.04392,-0.04392
-0.0244,0.01464,-0.00488,0.00732,0.01952,-0.02196,0.06832,0.03904,-0.01464,-0.02928,-0.03904,-0.04392
-0.02928,0.02684,-0.0244,-0.00976,0.00488,-0.01708,0.08296,0.05368,-0.01464,-0.02928,-0.0488,-0.05856
-0.02928,0.02928,-0.02928,-0.01464,0,-0.01464,0.07808,0.05856,0,-0.01952,-0.0488,-0.05368
-0.02928,0.02684,-0.0244,-0.00976,0.00488,-0.01708,0.0732,0.05856,0,-0.01464,-0.03904,-0.05368
-0.02928,0.01952,-0.00976,0.00488,0.01952,-0.0244,0.08296,0.05856,-0.00488,-0.0244,-0.03904,-0.03904
-0.02928,0.01952,-0.00976,0.00488,0.01952,-0.0244,0.09272,0.06344,-0.00488,-0.0244,-0.03904,-0.04392
-0.01464,0.0122,-0.00976,-0.00244,0.00488,-0.00976,0.0976,0.0732,0.01952,-0.00976,-0.03904,-0.0488
-0.00488,0.00488,-0.00488,-0.00244,0,-0.00244,0.09272,0.0732,0.01464,-0.00488,-0.02928,-0.04392
-0.00976,0.00732,-0.00488,0,0.00488,-0.00732,0.08296,0.06344,0.00488,-0.01464,-0.03904,-0.05368
-0.02928,0.02196,-0.01464,0,0.01464,-0.02196,0.08296,0.06344,0,-0.01952,-0.04392,-0.06344
-0.02928,0.02928,-0.02928,-0.01464,0,-0.01464,0.08296,0.0732,0.00488,-0.01464,-0.04392,-0.05368
-0.0244,0.02684,-0.02928,-0.01708,-0.00488,-0.00976,0.07808,0.0732,0.00488,-0.01464,-0.03904,-0.05368
-0.0244,0.01952,-0.01464,-0.00244,0.00976,-0.01708,0.08784,0.0732,0.01464,-0.00488,-0.02928,-0.04392
-0.01952,0.0122,-0.00488,0.00488,0.01464,-0.01708,0.08296,0.0732,0.01464,-0.00976,-0.03416,-0.04392
-0.00976,0.00976,-0.00976,-0.00488,0,-0.00488,0.07808,0.0732,0.01464,-0.00976,-0.03416,-0.05368
-0.00976,0.00976,-0.00976,-0.00488,0,-0.00488,0.07808,0.0732,0.01464,-0.00488,-0.02928,-0.05368
-0.00976,0.01464,-0.01952,-0.01464,-0.00976,0,0.06344,0.06832,0.01464,-0.01464,-0.02928,-0.03904
0,0.00488,-0.00976,-0.00976,-0.00976,0.00488,0.06344,0.06344,0.00976,-0.01464,-0.02928,-0.04392
0,0,0,0,0,0,0.06832,0.06832,0.00976,-0.00976,-0.02928,-0.04392
0,-0.00244,0.00488,0.00488,0.00488,-0.00244,0.06832,0.06832,0.00976,-0.00976,-0.03416,-0.04392
0,-0.00488,0.00976,0.00976,0.00976,-0.00488,0.0732,0.07808,0.01952,0,-0.0244,-0.04392
0,-0.00244,0.00488,0.00488,0.00488,-0.00244,0.06832,0.07808,0.01464,-0.00976,-0.0244,-0.04392
-0.00488,0.00488,-0.00488,-0.00244,0,-0.00244,0.06832,0.0732,0.00976,-0.01464,-0.03416,-0.04392
-0.00488,0.00488,-0.00488,-0.00244,0,-0.00244,0.06832,0.0732,0.00976,-0.01952,-0.03416,-0.04392
0.00488,0,-0.00488,-0.00732,-0.00976,0.00732,0.06344,0.06832,0,-0.0244,-0.03416,-0.0488
0.00488,0,-0.00488,-0.00732,-0.00976,0.00732,0.05856,0.06832,-0.00976,-0.0244,-0.03904,-0.0488
0.01464,-0.00244,-0.00976,-0.01708,-0.0244,0.01952,0.05856,0.07808,-0.00488,-0.0244,-0.03904,-0.05368
0.00976,0.00244,-0.01464,-0.01952,-0.0244,0.01708,0.05856,0.07808,-0.00488,-0.03416,-0.03904,-0.05368
-0.00488,0.01464,-0.0244,-0.02196,-0.01952,0.00732,0.05856,0.0732,-0.01464,-0.04392,-0.04392,-0.06344
-0.00976,0.01708,-0.0244,-0.01952,-0.01464,0.00244,0.05856,0.06832,-0.01952,-0.0488,-0.05368,-0.06344
0,0.01464,-0.02928,-0.02928,-0.02928,0.01464,0.0488,0.05856,-0.03904,-0.06832,-0.06832,-0.07808
0,0.01952,-0.03904,-0.03904,-0.03904,0.01952,0.0488,0.05856,-0.0488,-0.07808,-0.08296,-0.07808
-0.01952,0.02684,-0.03416,-0.0244,-0.01464,-0.00244,0.05368,0.05856,-0.0488,-0.07808,-0.07808,-0.07808
-0.0244,0.03172,-0.03904,-0.02684,-0.01464,-0.00488,0.06344,0.05368,-0.0488,-0.08296,-0.08784,-0.08296
-0.0244,0.03904,-0.05368,-0.04148,-0.02928,0.00244,0.05368,0.04392,-0.06832,-0.10736,-0.09272,-0.08784
-0.01952,0.04636,-0.0732,-0.06344,-0.05368,0.01708,0.05368,0.03416,-0.09272,-0.11712,-0.10736,-0.0976
-0.0244,0.05368,-0.08296,-0.07076,-0.05856,0.01708,0.03904,0.01464,-0.122,-0.13176,-0.12688,-0.11224
-0.0244,0.05368,-0.08296,-0.07076,-0.05856,0.01708,0.02928,0.00488,-0.13176,-0.14152,-0.13664,-0.11712
-0.02928,0.05612,-0.08296,-0.06832,-0.05368,0.0122,0.03904,0.00488,-0.13664,-0.15128,-0.12688,-0.10736
-0.03416,0.05612,-0.07808,-0.061,-0.04392,0.00488,0.05368,-0.00488,-0.13176,-0.16592,-0.13664,-0.11224
-0.05368,0.06832,-0.08296,-0.05612,-0.02928,-0.0122,0.05856,-0.01464,-0.1464,-0.1708,-0.13664,-0.11712
-0.0732,0.08296,-0.09272,-0.05612,-0.01952,-0.02684,0.05856,-0.0244,-0.16104,-0.18544,-0.15128,-0.122
-0.09272,0.10248,-0.11224,-0.06588,-0.01952,-0.0366,0.04392,-0.0488,-0.18544,-0.20496,-0.15616,-0.13664
-0.10736,0.11468,-0.122,-0.06832,-0.01464,-0.04636,0.04392,-0.05856,-0.19032,-0.21472,-0.16104,-0.14152
-0.0976,0.10736,-0.11712,-0.06832,-0.01952,-0.03904,0.04392,-0.06344,-0.20008,-0.2196,-0.16592,-0.13176
-0.08784,0.09516,-0.10248,-0.05856,-0.01464,-0.0366,0.04392,-0.05856,-0.20984,-0.22936,-0.1708,-0.13176
-0.07808,0.08784,-0.0976,-0.05856,-0.01952,-0.02928,0.04392,-0.06344,-0.20008,-0.2196,-0.16104,-0.122
-0.06832,0.07808,-0.08784,-0.05368,-0.01952,-0.0244,0.04392,-0.06344,-0.19032,-0.20984,-0.15616,-0.11224
-0.07808,0.08296,-0.08784,-0.0488,-0.00976,-0.03416,0.04392,-0.06344,-0.18544,-0.20496,-0.15128,-0.11712
-0.08296,0.08784,-0.09272,-0.05124,-0.00976,-0.0366,0.04392,-0.05368,-0.1708,-0.19032,-0.14152,-0.10736
-0.07808,0.0854,-0.09272,-0.05368,-0.01464,-0.03172,0.03416,-0.05856,-0.16104,-0.19032,-0.13176,-0.10736
-0.05856,0.07564,-0.09272,-0.06344,-0.03416,-0.0122,0.03416,-0.05368,-0.15616,-0.17568,-0.122,-0.0976
-0.06832,0.07076,-0.0732,-0.03904,-0.00488,-0.03172,0.03904,-0.03416,-0.122,-0.15128,-0.10248,-0.09272
-0.0732,0.06832,-0.06344,-0.02684,0.00976,-0.04148,0.03904,-0.0244,-0.10736,-0.13664,-0.09272,-0.07808
-0.05368,0.04392,-0.03416,-0.00732,0.01952,-0.0366,0.03904,-0.01464,-0.0976,-0.10736,-0.0732,-0.0732
-0.03416,0.02196,-0.00976,0.00732,0.0244,-0.02928,0.03904,-0.00976,-0.0732,-0.08784,-0.06344,-0.05856
-0.02928,0.02196,-0.01464,0,0.01464,-0.02196,0.03904,0.00976,-0.05856,-0.0732,-0.05856,-0.04392
-0.0244,0.01464,-0.00488,0.00732,0.01952,-0.02196,0.03904,0.01464,-0.03904,-0.05856,-0.0488,-0.03904
-0.01464,0,0.01464,0.02196,0.02928,-0.02196,0.0244,0.00488,-0.02928,-0.05856,-0.03904,-0.04392
-0.01464,0,0.01464,0.02196,0.02928,-0.02196,0.02928,0.01464,-0.01952,-0.0488,-0.02928,-0.03904
-0.0244,0.00976,0.00488,0.01708,0.02928,-0.02684,0.03904,0.01464,-0.00488,-0.03904,-0.02928,-0.03416
-0.04392,0.02196,0,0.02196,0.04392,-0.04392,0.0488,0.01952,-0.00488,-0.03416,-0.02928,-0.03416
-0.05368,0.03172,-0.00976,0.01708,0.04392,-0.0488,0.04392,0.01952,-0.01464,-0.04392,-0.02928,-0.04392
-0.06344,0.03904,-0.01464,0.01708,0.0488,-0.05612,0.04392,0.0244,-0.00976,-0.04392,-0.03416,-0.04392
-0.04392,0.0244,-0.00488,0.01708,0.03904,-0.04148,0.05856,0.0244,-0.00488,-0.03904,-0.03416,-0.03416
-0.03416,0.01952,-0.00488,0.0122,0.02928,-0.03172,0.05856,0.02928,-0.00488,-0.04392,-0.03416,-0.03416
-0.0244,0.00976,0.00488,0.01708,0.02928,-0.02684,0.0732,0.03904,0.00488,-0.0244,-0.01952,-0.0244
-0.01952,0,0.01952,0.02928,0.03904,-0.02928,0.07808,0.02928,0.00976,-0.01952,-0.01952,-0.02928
-0.02928,0.00488,0.01952,0.03416,0.0488,-0.03904,0.06832,0.02928,0,-0.01952,-0.01952,-0.03904
-0.02928,0.00488,0.01952,0.03416,0.0488,-0.03904,0.06832,0.02928,0,-0.01952,-0.01952,-0.03904
-0.04392,0.02196,0,0.02196,0.04392,-0.04392,0.06832,0.03904,0,-0.02928,-0.02928,-0.04392
-0.04392,0.02684,-0.00976,0.0122,0.03416,-0.03904,0.06832,0.04392,0,-0.02928,-0.02928,-0.04392
-0.04392,0.02196,0,0.02196,0.04392,-0.04392,0.06344,0.03416,0.00488,-0.02928,-0.02928,-0.04392
-0.03416,0.01464,0.00488,0.02196,0.03904,-0.0366,0.06832,0.04392,0.00976,-0.0244,-0.02928,-0.03904
-0.04392,0.01708,0.00976,0.03172,0.05368,-0.0488,0.07808,0.05368,0.01952,-0.01464,-0.0244,-0.03904
-0.03904,0.0122,0.01464,0.03416,0.05368,-0.04636,0.08296,0.05368,0.03416,-0.00488,-0.01952,-0.03416
-0.02928,0,0.02928,0.04392,0.05856,-0.04392,0.0732,0.06344,0.03416,-0.00488,-0.01464,-0.03416
-0.01952,-0.01464,0.0488,0.05856,0.06832,-0.04392,0.07808,0.0732,0.0488,0.00976,-0.00976,-0.02928
0.00488,-0.04148,0.07808,0.07564,0.0732,-0.03416,0.09272,0.09272,0.06832,0.0244,0.00976,-0.00976
0.0244,-0.061,0.0976,0.0854,0.0732,-0.0244,0.08296,0.09272,0.0732,0.0488,0.02928,0.00976
0.01952,-0.05368,0.08784,0.07808,0.06832,-0.0244,0.06832,0.08296,0.07808,0.03904,0.02928,0.00488
0.01464,-0.04636,0.07808,0.07076,0.06344,-0.0244,0.06832,0.0976,0.08784,0.04392,0.02928,0.00976
0.01464,-0.05124,0.08784,0.08052,0.0732,-0.02928,0.06832,0.10736,0.08784,0.04392,0.03416,0.00488
0.01464,-0.05124,0.08784,0.08052,0.0732,-0.02928,0.06832,0.11224,0.09272,0.05368,0.03416,0.01464
0.03904,-0.08296,0.12688,0.10736,0.08784,-0.0244,0.06832,0.11224,0.11224,0.0732,0.05368,0.02928
0.06344,-0.1098,0.15616,0.12444,0.09272,-0.01464,0.01952,0.08296,0.11224,0.08784,0.06832,0.05368
0.08296,-0.12932,0.17568,0.1342,0.09272,-0.00488,-0.03904,0.05856,0.11224,0.0976,0.09272,0.07808
0.0976,-0.14152,0.18544,0.13664,0.08784,0.00488,-0.04392,0.06344,0.11224,0.0976,0.08784,0.07808
0.09272,-0.12444,0.15616,0.1098,0.06344,0.01464,-0.0488,0.03904,0.09272,0.08296,0.07808,0.06344
0.09272,-0.11712,0.14152,0.09516,0.0488,0.02196,-0.04392,0.02928,0.07808,0.06344,0.0732,0.05856
0.08784,-0.11468,0.14152,0.0976,0.05368,0.01708,-0.0488,0.0244,0.06832,0.06344,0.06344,0.05856
0.08784,-0.1098,0.13176,0.08784,0.04392,0.02196,-0.03904,0.0244,0.0488,0.05856,0.06344,0.05856
0.10736,-0.11956,0.13176,0.07808,0.0244,0.04148,-0.03904,0.02928,0.05856,0.06344,0.05856,0.05368
0.10736,-0.11712,0.12688,0.0732,0.01952,0.04392,-0.02928,0.03416,0.06344,0.06832,0.05856,0.05368
0.10736,-0.10248,0.0976,0.04392,-0.00976,0.05856,-0.01952,0.04392,0.05368,0.05368,0.04392,0.04392
0.08784,-0.08296,0.07808,0.03416,-0.00976,0.0488,-0.00488,0.04392,0.04392,0.03904,0.02928,0.02928
0.03416,-0.04148,0.0488,0.03172,0.01464,0.00976,0.01952,0.02928,0.03416,0.02928,0.01952,0.01952
0.01952,-0.01952,0.01952,0.00976,0,0.00976,0.02928,0.02928,0.02928,0.01952,0.00976,0
0.00976,-0.00244,-0.00488,-0.00976,-0.01464,0.0122,0.03416,0.02928,0.00976,0,-0.01952,-0.01464
-0.00488,0.00976,-0.01464,-0.0122,-0.00976,0.00244,0.04392,0.02928,0.00976,-0.00488,-0.0244,-0.0244
-0.00976,0.01464,-0.01952,-0.01464,-0.00976,0,0.0488,0.02928,0,-0.00488,-0.02928,-0.03416
-0.01464,0.02196,-0.02928,-0.02196,-0.01464,0,0.0488,0.0244,0,-0.00488,-0.03904,-0.03416
-0.02928,0.03172,-0.03416,-0.01952,-0.00488,-0.0122,0.03904,0.0244,-0.00488,-0.01464,-0.03904,-0.03904
-0.0244,0.02684,-0.02928,-0.01708,-0.00488,-0.00976,0.04392,0.02928,0,-0.01464,-0.03904,-0.04392
-0.01464,0.01708,-0.01952,-0.0122,-0.00488,-0.00488,0.03416,0.01952,-0.00488,-0.0244,-0.03904,-0.03904
-0.00976,0.01708,-0.0244,-0.01952,-0.01464,0.00244,0.03904,0.01952,-0.00488,-0.0244,-0.03904,-0.03904
-0.00976,0.01464,-0.01952,-0.01464,-0.00976,0,0.05368,0.02928,0.00488,-0.01464,-0.0244,-0.02928
-0.0244,0.0244,-0.0244,-0.0122,0,-0.0122,0.05368,0.04392,0.00976,-0.00488,-0.01952,-0.01952
-0.01464,0.0244,-0.03416,-0.02684,-0.01952,0.00244,0.05368,0.03416,0.00976,-0.00488,-0.03904,-0.02928
0,0.01952,-0.03904,-0.03904,-0.03904,0.01952,0.05856,0.03904,0,-0.01464,-0.02928,-0.04392
0.01464,0.03172,-0.07808,-0.0854,-0.09272,0.05368,0.09272,0.09272,-0.0244,-0.02928,-0.06344,-0.06832
0,0.05368,-0.10736,-0.10736,-0.10736,0.05368,0.15616,0.16104,-0.00488,-0.05856,-0.0976,-0.10736
0.00488,0.00488,-0.01464,-0.01708,-0.01952,0.0122,0.19032,0.22936,0.10248,0.01952,-0.03416,-0.05856
0.05368,-0.05612,0.05856,0.03172,0.00488,0.0244,0.244,0.40504,0.25864,0.17568,0.05856,-0.00488
0.20496,-0.17324,0.14152,0.03904,-0.06344,0.1342,0.3416,0.76128,0.50752,0.40992,0.1952,0.08296
0.41968,-0.36356,0.30744,0.0976,-0.11224,0.26596,0.25864,0.88328,0.74176,0.71248,0.42944,0.28792
0.854,-0.72712,0.60024,0.17324,-0.25376,0.55388,-0.1464,0.66856,0.93208,1.05408,0.7564,0.59536
1.08336,-0.96136,0.83936,0.29768,-0.244,0.66368,-0.69296,0.16592,0.92232,1.22976,1.01016,0.86864
1.1468,-1.05408,0.96136,0.38796,-0.18544,0.66612,-1.08824,-0.33184,0.72712,1.17608,1.1224,1.0492
0.8296,-0.88816,0.94672,0.53192,0.11712,0.35624,-1.11752,-0.73688,0.29768,0.79056,0.99064,1.03456
0.44896,-0.60268,0.7564,0.53192,0.30744,0.07076,-1.01504,-1.04432,-0.10248,0.32696,0.72224,0.8784
-0.0488,-0.2074,0.4636,0.488,0.5124,-0.2806,-0.85888,-1.45424,-0.6588,-0.27328,0.31232,0.55632
-0.08784,-0.04392,0.17568,0.2196,0.26352,-0.17568,-0.732,-1.22,-0.732,-0.41968,0.10248,0.36112
-0.09272,0.03904,0.01464,0.061,0.10736,-0.10004,-0.6588,-1.01504,-0.6344,-0.40992,-0.01464,0.19032
-0.02928,0.0488,-0.06832,-0.05368,-0.03904,0.00488,-0.36112,-0.60024,-0.46848,-0.3416,-0.06832,0.08784
-0.03416,0.04148,-0.0488,-0.03172,-0.01464,-0.00976,-0.17568,-0.29768,-0.2684,-0.20496,-0.05856,0.0488
-0.07808,0.06588,-0.05368,-0.01464,0.0244,-0.05124,-0.0488,-0.11712,-0.122,-0.122,-0.04392,0.00488
-0.06344,0.04636,-0.02928,0.00244,0.03416,-0.0488,-0.0244,-0.08784,-0.08296,-0.08296,-0.02928,-0.00976
-0.04392,0.0366,-0.02928,-0.00732,0.01464,-0.02928,0.02928,-0.03416,-0.05856,-0.05368,-0.03416,-0.0244
-0.0488,0.04148,-0.03416,-0.00976,0.01464,-0.03172,0.06832,0.0244,-0.0488,-0.04392,-0.0488,-0.02928
-0.05856,0.05368,-0.0488,-0.01952,0.00976,-0.03416,0.08296,0.0488,-0.00488,-0.03416,-0.05368,-0.04392
-0.04392,0.04148,-0.03904,-0.01708,0.00488,-0.0244,0.07808,0.04392,-0.00488,-0.0244,-0.04392,-0.0488
-0.0244,0.02196,-0.01952,-0.00732,0.00488,-0.01464,0.07808,0.03904,-0.00488,-0.01952,-0.03904,-0.05368
-0.02928,0.0244,-0.01952,-0.00488,0.00976,-0.01952,0.08784,0.05368,-0.00488,-0.01952,-0.0488,-0.06344
-0.03904,0.0366,-0.03416,-0.01464,0.00488,-0.02196,0.09272,0.05856,-0.00488,-0.0244,-0.05856,-0.06832
-0.03904,0.03172,-0.0244,-0.00488,0.01464,-0.02684,0.0976,0.05856,0,-0.01952,-0.05368,-0.06344
-0.03416,0.02928,-0.0244,-0.00732,0.00976,-0.02196,0.08296,0.05856,0.00488,-0.01952,-0.03904,-0.06344
-0.0244,0.02196,-0.01952,-0.00732,0.00488,-0.01464,0.08296,0.05856,0.00488,-0.00976,-0.03904,-0.05856
-0.01464,0.01708,-0.01952,-0.0122,-0.00488,-0.00488,0.09272,0.08296,0.00488,-0.00488,-0.03904,-0.05368
-0.01464,0.01464,-0.01464,-0.00732,0,-0.00732,0.0976,0.08296,0.01952,0,-0.02928,-0.0488
-0.01952,0.01464,-0.00976,0,0.00976,-0.01464,0.08296,0.0732,0.01464,-0.00488,-0.02928,-0.04392
-0.00976,0.01464,-0.01952,-0.01464,-0.00976,0,0.08296,0.0732,0.01464,-0.00488,-0.02928,-0.04392
-0.00976,0.01464,-0.01952,-0.01464,-0.00976,0,0.09272,0.08296,0.00976,-0.00976,-0.03416,-0.04392
-0.00976,0.0122,-0.01464,-0.00976,-0.00488,-0.00244,0.08784,0.08296,0.01464,-0.00488,-0.02928,-0.04392
0.00488,-0.00488,0.00488,0.00244,0,0.00244,0.08784,0.09272,0.0244,0,-0.01952,-0.04392
-0.00488,0,0.00488,0.00732,0.00976,-0.00732,0.08784,0.09272,0.0244,0.00976,-0.01952,-0.04392
0.00976,-0.00976,0.00976,0.00488,0,0.00488,0.07808,0.09272,0.0244,0.00976,-0.01464,-0.03416
0.00976,-0.0122,0.01464,0.00976,0.00488,0.00244,0.07808,0.09272,0.0244,0.01464,-0.00976,-0.03416
0.01952,-0.0122,0.00488,-0.00488,-0.01464,0.01708,0.06832,0.08296,0.01464,0.00976,-0.01464,-0.03416
0.0244,-0.01464,0.00488,-0.00732,-0.01952,0.02196,0.05856,0.0732,0.00976,0,-0.0244,-0.0488
0.01464,-0.00488,-0.00488,-0.0122,-0.01952,0.01708,0.06344,0.0732,0.00976,-0.00488,-0.02928,-0.05368
-0.01464,0.01708,-0.01952,-0.0122,-0.00488,-0.00488,0.05856,0.07808,0.00976,-0.00976,-0.03416,-0.05368
-0.0244,0.01952,-0.01464,-0.00244,0.00976,-0.01708,0.05368,0.06832,0.01952,0,-0.04392,-0.05368
-0.01464,0.0122,-0.00976,-0.00244,0.00488,-0.00976,0.0488,0.06832,0.01464,-0.00976,-0.04392,-0.05368
-0.00976,0.0122,-0.01464,-0.00976,-0.00488,-0.00244,0.05856,0.06832,0.00488,-0.01464,-0.03416,-0.04392
-0.00488,0.00976,-0.01464,-0.0122,-0.00976,0.00244,0.05856,0.0732,0,-0.01464,-0.03416,-0.04392
-0.01464,0.00976,-0.00488,0.00244,0.00976,-0.0122,0.05856,0.0732,0.00488,-0.01464,-0.03416,-0.04392
-0.01464,0.00976,-0.00488,0.00244,0.00976,-0.0122,0.05368,0.06832,0.00488,-0.00976,-0.03416,-0.0488
-0.00976,0.0122,-0.01464,-0.00976,-0.00488,-0.00244,0.0488,0.06832,0,-0.01464,-0.0488,-0.05856
-0.00488,0.01464,-0.0244,-0.02196,-0.01952,0.00732,0.0488,0.06832,-0.00976,-0.0244,-0.0488,-0.06344
-0.00488,0.01952,-0.03416,-0.03172,-0.02928,0.0122,0.0488,0.0732,-0.01464,-0.02928,-0.05368,-0.05368
-0.00488,0.01952,-0.03416,-0.03172,-0.02928,0.0122,0.0488,0.0732,-0.01464,-0.03416,-0.05368,-0.06344
0,0.01708,-0.03416,-0.03416,-0.03416,0.01708,0.05856,0.07808,-0.01464,-0.03416,-0.04392,-0.05856
0,0.0122,-0.0244,-0.0244,-0.0244,0.0122,0.05856,0.07808,-0.0244,-0.04392,-0.05368,-0.05856
0,0.01464,-0.02928,-0.02928,-0.02928,0.01464,0.05856,0.05856,-0.04392,-0.06344,-0.06832,-0.06344
-0.00488,0.02196,-0.03904,-0.0366,-0.03416,0.01464,0.05368,0.05856,-0.05368,-0.0732,-0.07808,-0.0732
-0.00976,0.02684,-0.04392,-0.03904,-0.03416,0.0122,0.04392,0.03416,-0.0732,-0.09272,-0.08296,-0.08296
-0.01464,0.03172,-0.0488,-0.04148,-0.03416,0.00976,0.04392,0.02928,-0.08784,-0.10248,-0.10248,-0.0976
-0.02928,0.05124,-0.0732,-0.05856,-0.04392,0.00732,0.03416,0.01952,-0.10248,-0.11712,-0.122,-0.11224
-0.0244,0.05612,-0.08784,-0.07564,-0.06344,0.01952,0.02928,0.00976,-0.11224,-0.14152,-0.13176,-0.11224
-0.03904,0.06588,-0.09272,-0.0732,-0.05368,0.00732,0.03904,0.00976,-0.122,-0.15616,-0.12688,-0.11712
-0.05856,0.0732,-0.08784,-0.05856,-0.02928,-0.01464,0.04392,0,-0.12688,-0.15128,-0.12688,-0.11712
-0.06344,0.0732,-0.08296,-0.05124,-0.01952,-0.02196,0.03904,-0.01952,-0.1464,-0.16104,-0.13664,-0.122
-0.08296,0.0854,-0.08784,-0.04636,-0.00488,-0.03904,0.03904,-0.03416,-0.15128,-0.16592,-0.13664,-0.12688
-0.08784,0.09516,-0.10248,-0.05856,-0.01464,-0.0366,0.03904,-0.03904,-0.16104,-0.19032,-0.15128,-0.13664
-0.08296,0.09272,-0.10248,-0.061,-0.01952,-0.03172,0.03416,-0.04392,-0.16592,-0.20008,-0.16104,-0.13664
-0.0732,0.08784,-0.10248,-0.06588,-0.02928,-0.02196,0.0244,-0.05856,-0.18544,-0.2196,-0.17568,-0.15128
-0.06344,0.0854,-0.10736,-0.07564,-0.04392,-0.00976,0.0244,-0.06344,-0.20008,-0.2196,-0.17568,-0.15128
-0.08296,0.09516,-0.10736,-0.06588,-0.0244,-0.02928,0.03416,-0.0732,-0.20008,-0.2196,-0.1708,-0.14152
-0.09272,0.10736,-0.122,-0.07564,-0.02928,-0.03172,0.03416,-0.0732,-0.20008,-0.2196,-0.1708,-0.14152
-0.08784,0.0976,-0.10736,-0.06344,-0.01952,-0.03416,0.04392,-0.06344,-0.18544,-0.20984,-0.15616,-0.13664
-0.08296,0.08784,-0.09272,-0.05124,-0.00976,-0.0366,0.04392,-0.06344,-0.18544,-0.1952,-0.1464,-0.13664
-0.0732,0.06832,-0.06344,-0.02684,0.00976,-0.04148,0.03904,-0.05368,-0.1708,-0.18544,-0.13664,-0.11224
-0.05856,0.05856,-0.05856,-0.02928,0,-0.02928,0.02928,-0.04392,-0.15616,-0.1708,-0.122,-0.10248
-0.05368,0.05612,-0.05856,-0.03172,-0.00488,-0.0244,0.01952,-0.0488,-0.15616,-0.16592,-0.11712,-0.0976
-0.06344,0.05856,-0.05368,-0.02196,0.00976,-0.0366,0.01952,-0.03904,-0.13664,-0.1464,-0.11712,-0.0976
-0.05856,0.05368,-0.0488,-0.01952,0.00976,-0.03416,0.02928,-0.01952,-0.10736,-0.12688,-0.10248,-0.08296
-0.0488,0.04148,-0.03416,-0.00976,0.01464,-0.03172,0.02928,-0.00976,-0.09272,-0.10736,-0.08784,-0.07808
-0.03416,0.0244,-0.01464,0.00244,0.01952,-0.02684,0.02928,-0.01952,-0.08784,-0.08784,-0.0732,-0.06832
-0.0244,0.01708,-0.00976,0.00244,0.01464,-0.01952,0.02928,-0.00488,-0.06344,-0.06832,-0.06344,-0.05856
-0.03416,0.01708,0,0.01708,0.03416,-0.03416,0.0244,0.00488,-0.04392,-0.06344,-0.04392,-0.05856
-0.03416,0.01464,0.00488,0.02196,0.03904,-0.0366,0.02928,0.01464,-0.03416,-0.05368,-0.03416,-0.0488
-0.03416,0.01708,0,0.01708,0.03416,-0.03416,0.03904,0.00488,-0.0244,-0.04392,-0.03904,-0.0488
-0.03904,0.0244,-0.00976,0.00976,0.02928,-0.03416,0.03904,0.00976,-0.01464,-0.03416,-0.02928,-0.04392
-0.03416,0.01952,-0.00488,0.0122,0.02928,-0.03172,0.02928,0.01952,-0.01464,-0.0244,-0.02928,-0.04392
-0.03416,0.01464,0.00488,0.02196,0.03904,-0.0366,0.03416,0.0244,-0.01464,-0.0244,-0.03416,-0.04392
-0.03416,0.00976,0.01464,0.03172,0.0488,-0.04148,0.0488,0.01464,0.00488,-0.01952,-0.03416,-0.03416
-0.03416,0.00976,0.01464,0.03172,0.0488,-0.04148,0.0488,0.01464,0.00488,-0.01952,-0.03416,-0.03416
-0.04392,0.01464,0.01464,0.0366,0.05856,-0.05124,0.05368,0.02928,-0.00488,-0.0244,-0.0244,-0.04392
-0.03904,0.0122,0.01464,0.03416,0.05368,-0.04636,0.05856,0.02928,-0.00488,-0.03416,-0.02928,-0.05368
-0.02928,0.00732,0.01464,0.02928,0.04392,-0.0366,0.06832,0.02928,0,-0.02928,-0.02928,-0.0488
-0.02928,0.00244,0.0244,0.03904,0.05368,-0.04148,0.06832,0.02928,0,-0.02928,-0.02928,-0.0488
-0.04392,0.01464,0.01464,0.0366,0.05856,-0.05124,0.05856,0.02928,0,-0.03904,-0.03904,-0.06344
-0.03904,0.01708,0.00488,0.0244,0.04392,-0.04148,0.05856,0.02928,0,-0.03904,-0.03904,-0.06344
-0.03904,0.01464,0.00976,0.02928,0.0488,-0.04392,0.05856,0.03416,0.00488,-0.02928,-0.02928,-0.05368
-0.03904,0.0122,0.01464,0.03416,0.05368,-0.04636,0.05368,0.04392,0.00488,-0.0244,-0.02928,-0.05368
-0.0488,0.02196,0.00488,0.02928,0.05368,-0.05124,0.05856,0.04392,0.00976,-0.0244,-0.03416,-0.0488
-0.05368,0.01952,0.01464,0.04148,0.06832,-0.061,0.06344,0.05368,0.01952,-0.00976,-0.03416,-0.0488
-0.0488,0.01464,0.01952,0.04392,0.06832,-0.05856,0.0732,0.05856,0.01952,-0.00976,-0.01952,-0.0488
-0.03416,0,0.03416,0.05124,0.06832,-0.05124,0.07808,0.06832,0.02928,0,-0.00976,-0.03904
-0.00976,-0.02684,0.06344,0.06832,0.0732,-0.04148,0.0732,0.08784,0.05368,0.01464,-0.00488,-0.0244
0.01464,-0.04392,0.0732,0.06588,0.05856,-0.02196,0.06344,0.09272,0.06344,0.01952,0.00488,-0.01464
0.01952,-0.05368,0.08784,0.07808,0.06832,-0.0244,0.06344,0.09272,0.06344,0.03904,0.0244,-0.00488
0.01464,-0.05124,0.08784,0.08052,0.0732,-0.02928,0.0732,0.09272,0.06832,0.04392,0.02928,-0.00488
0.01952,-0.06344,0.10736,0.0976,0.08784,-0.03416,0.07808,0.11712,0.09272,0.05856,0.03904,0
0.02928,-0.0732,0.11712,0.10248,0.08784,-0.02928,0.07808,0.11712,0.0976,0.06832,0.04392,0.00488
0.05368,-0.09028,0.12688,0.10004,0.0732,-0.00976,0.06832,0.122,0.10736,0.07808,0.0488,0.01464
0.06832,-0.1098,0.15128,0.11712,0.08296,-0.00732,0.03904,0.11712,0.11224,0.09272,0.06832,0.03416
0.06832,-0.12688,0.18544,0.15128,0.11712,-0.0244,-0.02928,0.06344,0.11224,0.0976,0.0732,0.05368
0.08784,-0.13664,0.18544,0.14152,0.0976,-0.00488,-0.06344,0.04392,0.11224,0.0976,0.08296,0.05856
0.09272,-0.1342,0.17568,0.12932,0.08296,0.00488,-0.05856,0.04392,0.10248,0.10248,0.07808,0.06344
0.09272,-0.12932,0.16592,0.11956,0.0732,0.00976,-0.05368,0.02928,0.08296,0.08296,0.06344,0.0488
0.10248,-0.13664,0.1708,0.11956,0.06832,0.01708,-0.05368,0.01464,0.06832,0.06344,0.05856,0.0488
0.11224,-0.13664,0.16104,0.10492,0.0488,0.03172,-0.06344,0.01464,0.06344,0.05856,0.05368,0.0488
0.13176,-0.14884,0.16592,0.10004,0.03416,0.0488,-0.04392,0.01952,0.05856,0.05368,0.05368,0.0488
0.14152,-0.14884,0.15616,0.0854,0.01464,0.06344,-0.03416,0.03416,0.06344,0.05856,0.05856,0.05368
0.13664,-0.13664,0.13664,0.06832,0,0.06832,-0.0244,0.03904,0.05368,0.05856,0.0488,0.04392
0.10248,-0.09516,0.08784,0.0366,-0.01464,0.05856,-0.01464,0.04392,0.0488,0.0488,0.03416,0.02928
0.04392,-0.05368,0.06344,0.04148,0.01952,0.0122,-0.00976,0.0244,0.03416,0.02928,0.01464,0
0.01464,-0.02196,0.02928,0.02196,0.01464,0,0,0.01952,0.01952,0.01952,0,-0.01464
0,-0.00244,0.00488,0.00488,0.00488,-0.00244,0.01952,0.02928,0.0244,0.01952,0,-0.0244
-0.01952,0.0122,-0.00488,0.00488,0.01464,-0.01708,0.02928,0.02928,0.01952,0.00488,-0.01464,-0.03904
-0.01952,0.01464,-0.00976,0,0.00976,-0.01464,0.03416,0.02928,0.01464,0,-0.00976,-0.04392
-0.01952,0.01708,-0.01464,-0.00488,0.00488,-0.0122,0.02928,0.0244,0.00976,-0.00488,-0.00976,-0.04392
-0.00488,0.0122,-0.01952,-0.01708,-0.01464,0.00488,0.03904,0.0244,0.00488,0.00488,-0.01952,-0.0488
0.00976,0,-0.00976,-0.01464,-0.01952,0.01464,0.04392,0.02928,0.00488,0.00488,-0.01952,-0.05368
0,0.00488,-0.00976,-0.00976,-0.00976,0.00488,0.05368,0.02928,0.01952,-0.00488,-0.02928,-0.0488
-0.00976,0.0122,-0.01464,-0.00976,-0.00488,-0.00244,0.05368,0.02928,0.01464,-0.00488,-0.02928,-0.0488
-0.01952,0.01952,-0.01952,-0.00976,0,-0.00976,0.0488,0.02928,0.01464,0.00488,-0.0244,-0.0488
-0.0244,0.02196,-0.01952,-0.00732,0.00488,-0.01464,0.05368,0.03416,0.01952,0.00488,-0.0244,-0.0488
-0.0244,0.01952,-0.01464,-0.00244,0.00976,-0.01708,0.06344,0.03416,0.01952,-0.00488,-0.01952,-0.03904
-0.02928,0.03172,-0.03416,-0.01952,-0.00488,-0.0122,0.04392,0.03904,0.01464,-0.00976,-0.02928,-0.04392
0.00488,0.01952,-0.04392,-0.04636,-0.0488,0.02684,0.0488,0.03416,0,-0.0244,-0.04392,-0.06832
0.00488,0.05124,-0.10736,-0.1098,-0.11224,0.05856,0.10736,0.09272,-0.01464,-0.0488,-0.07808,-0.11712
-0.03904,0.06588,-0.09272,-0.0732,-0.05368,0.00732,0.16104,0.1708,0.01952,-0.03416,-0.08296,-0.10736
-0.01464,0.01952,-0.0244,-0.01708,-0.00976,-0.00244,0.19032,0.27328,0.14152,0.08296,-0.01952,-0.0732
0.0976,-0.0854,0.0732,0.0244,-0.0244,0.061,0.25864,0.5124,0.33184,0.25864,0.10248,0.0244
0.2684,-0.2318,0.1952,0.061,-0.0732,0.1708,0.36112,0.854,0.59048,0.5124,0.2684,0.13176
0.55632,-0.488,0.41968,0.14152,-0.13664,0.34648,0.14152,0.8052,0.8052,0.8052,0.52216,0.36112
0.9516,-0.78568,0.61976,0.14396,-0.33184,0.64172,-0.32696,0.53192,0.91256,1.098,0.81008,0.64416
1.17608,-1.02236,0.86864,0.2806,-0.30744,0.74176,-0.87352,-0.04392,0.81984,1.20048,1.03456,0.91256
1.12728,-1.01504,0.9028,0.33916,-0.22448,0.67588,-1.12728,-0.49776,0.53192,1.01504,1.0492,1.0004
0.7076,-0.78812,0.86864,0.51484,0.16104,0.27328,-1.10776,-0.86864,0.1464,0.62952,0.89792,0.97112
0.22936,-0.39772,0.56608,0.4514,0.33672,-0.05368,-0.94672,-1.20048,-0.32208,0.09272,0.52704,0.71248
-0.13664,-0.0854,0.30744,0.37576,0.44408,-0.29036,-0.82472,-1.47376,-0.75152,-0.39528,0.20008,0.45872
-0.09272,-0.00732,0.10736,0.15372,0.20008,-0.1464,-0.70272,-1.16632,-0.70272,-0.42944,0.05856,0.30256
-0.06344,0.0244,0.01464,0.04636,0.07808,-0.07076,-0.5856,-0.93208,-0.59048,-0.40016,-0.03416,0.15128
-0.00976,0.02928,-0.0488,-0.04392,-0.03904,0.01464,-0.2928,-0.47824,-0.3904,-0.28792,-0.07808,0.0488
0,0.00732,-0.01464,-0.01464,-0.01464,0.00732,-0.122,-0.20008,-0.19032,-0.1464,-0.04392,0.02928
-0.06344,0.0366,-0.00976,0.02196,0.05368,-0.05856,-0.01464,-0.0976,-0.09272,-0.08296,-0.03416,-0.00976
-0.02928,0.01464,0,0.01464,0.02928,-0.02928,-0.00488,-0.0732,-0.06344,-0.05856,-0.0244,-0.0244
-0.01464,0.0122,-0.00976,-0.00244,0.00488,-0.00976,0.03416,-0.01464,-0.05856,-0.05368,-0.04392,-0.05368
-0.0488,0.04392,-0.03904,-0.01464,0.00976,-0.02928,0.08296,0.0488,-0.01952,-0.03904,-0.0488,-0.05856
-0.05856,0.05368,-0.0488,-0.01952,0.00976,-0.03416,0.0732,0.0488,-0.00488,-0.02928,-0.0488,-0.06832
-0.0488,0.03904,-0.02928,-0.00488,0.01952,-0.03416,0.06832,0.03904,-0.00488,-0.0244,-0.04392,-0.0732
-0.0244,0.01952,-0.01464,-0.00244,0.00976,-0.01708,0.06832,0.03904,-0.00488,-0.02928,-0.03904,-0.0732
-0.01952,0.02684,-0.03416,-0.0244,-0.01464,-0.00244,0.08296,0.05368,-0.00488,-0.02928,-0.0488,-0.08784
-0.01952,0.0244,-0.02928,-0.01952,-0.00976,-0.00488,0.0976,0.06832,0.01952,-0.00976,-0.0488,-0.0732
-0.01952,0.02196,-0.0244,-0.01464,-0.00488,-0.00732,0.09272,0.07808,0.01952,-0.00488,-0.03904,-0.06344
-0.03904,0.03416,-0.02928,-0.00976,0.00976,-0.0244,0.09272,0.07808,0.0244,0.00488,-0.02928,-0.05856
-0.0488,0.04392,-0.03904,-0.01464,0.00976,-0.02928,0.09272,0.08296,0.0244,0.01464,-0.02928,-0.06344
-0.03416,0.0366,-0.03904,-0.02196,-0.00488,-0.01464,0.08784,0.08296,0.03904,0.00976,-0.02928,-0.06832
-0.03416,0.03416,-0.03416,-0.01708,0,-0.01708,0.08296,0.08296,0.03416,0.00488,-0.01952,-0.06344
-0.01952,0.02684,-0.03416,-0.0244,-0.01464,-0.00244,0.08296,0.08296,0.0244,0.00488,-0.02928,-0.06344
-0.01952,0.02684,-0.03416,-0.0244,-0.01464,-0.00244,0.08296,0.08296,0.01952,0,-0.03416,-0.06344
-0.00976,0.01464,-0.01952,-0.01464,-0.00976,0,0.09272,0.09272,0.03416,0.00488,-0.03416,-0.06344
0.00488,0.00244,-0.00976,-0.0122,-0.01464,0.00976,0.0976,0.09272,0.03416,0.00488,-0.02928,-0.06344
-0.01464,0.01464,-0.01464,-0.00732,0,-0.00732,0.08784,0.09272,0.03416,0.01464,-0.01952,-0.06344
-0.00976,0.0122,-0.01464,-0.00976,-0.00488,-0.00244,0.08296,0.09272,0.03416,0.00976,-0.0244,-0.06344
-0.01952,0.01952,-0.01952,-0.00976,0,-0.00976,0.07808,0.08296,0.03416,0.00976,-0.0244,-0.06344
-0.01952,0.01952,-0.01952,-0.00976,0,-0.00976,0.07808,0.08296,0.03416,0.01464,-0.01952,-0.06344
0,0.00976,-0.01952,-0.01952,-0.01952,0.00976,0.0732,0.08784,0.03416,0.01464,-0.02928,-0.05856
0.01952,-0.00488,-0.00976,-0.01952,-0.02928,0.0244,0.0732,0.08296,0.02928,0.01464,-0.02928,-0.06344
0,0.00976,-0.01952,-0.01952,-0.01952,0.00976,0.06832,0.08784,0.02928,0,-0.02928,-0.06344
-0.00976,0.01708,-0.0244,-0.01952,-0.01464,0.00244,0.06832,0.08784,0.02928,0,-0.03416,-0.06344
-0.00976,0.00976,-0.00976,-0.00488,0,-0.00488,0.0732,0.08784,0.03904,0.00976,-0.0244,-0.05368
-0.00976,0.0122,-0.01464,-0.00976,-0.00488,-0.00244,0.06832,0.08784,0.03416,0,-0.0244,-0.05368
-0.01464,0.01952,-0.0244,-0.01708,-0.00976,-0.00244,0.06832,0.08296,0.01952,-0.00488,-0.0244,-0.06344
-0.01464,0.0244,-0.03416,-0.02684,-0.01952,0.00244,0.06832,0.08296,0.01952,-0.00976,-0.0244,-0.06344
-0.01464,0.0244,-0.03416,-0.02684,-0.01952,0.00244,0.05368,0.06832,0.01952,-0.00488,-0.03416,-0.07808
-0.01464,0.0244,-0.03416,-0.02684,-0.01952,0.00244,0.03904,0.06832,0.00976,-0.00488,-0.03904,-0.07808
-0.01464,0.02196,-0.02928,-0.02196,-0.01464,0,0.05856,0.07808,0.01464,-0.00488,-0.02928,-0.0732
-0.01952,0.02684,-0.03416,-0.0244,-0.01464,-0.00244,0.06832,0.07808,0.01464,-0.01464,-0.02928,-0.06344
-0.00488,0.01464,-0.0244,-0.02196,-0.01952,0.00732,0.06832,0.08296,0.00488,-0.01464,-0.04392,-0.0732
0.00976,0.00244,-0.01464,-0.01952,-0.0244,0.01708,0.06832,0.07808,0,-0.01952,-0.05368,-0.0732
0.00976,0.00976,-0.02928,-0.03416,-0.03904,0.0244,0.05856,0.07808,-0.00976,-0.03904,-0.05856,-0.07808
0.00976,0.01952,-0.0488,-0.05368,-0.05856,0.03416,0.05856,0.07808,-0.01952,-0.0488,-0.06344,-0.07808
-0.00976,0.03172,-0.05368,-0.0488,-0.04392,0.01708,0.05368,0.05856,-0.03904,-0.05856,-0.07808,-0.0976
-0.01464,0.0366,-0.05856,-0.05124,-0.04392,0.01464,0.05368,0.05368,-0.0488,-0.0732,-0.08784,-0.11224
-0.03416,0.0488,-0.06344,-0.04636,-0.02928,-0.00244,0.04392,0.04392,-0.05856,-0.08784,-0.09272,-0.11712
-0.0488,0.061,-0.0732,-0.0488,-0.0244,-0.0122,0.03416,0.03416,-0.0732,-0.0976,-0.10736,-0.12688
-0.03416,0.05856,-0.08296,-0.06588,-0.0488,0.00732,0.03904,0.0244,-0.08296,-0.10248,-0.10736,-0.122
-0.03416,0.05856,-0.08296,-0.06588,-0.0488,0.00732,0.03904,0.01464,-0.09272,-0.11224,-0.11712,-0.12688
-0.03904,0.061,-0.08296,-0.06344,-0.04392,0.00244,0.02928,0.00488,-0.11712,-0.13176,-0.12688,-0.13664
-0.03416,0.061,-0.08784,-0.07076,-0.05368,0.00976,0.03416,-0.00488,-0.122,-0.1464,-0.13664,-0.14152
-0.05368,0.06832,-0.08296,-0.05612,-0.02928,-0.0122,0.02928,-0.0244,-0.13664,-0.16104,-0.1464,-0.1464
-0.0732,0.08296,-0.09272,-0.05612,-0.01952,-0.02684,0.02928,-0.03416,-0.15128,-0.17568,-0.16104,-0.15128
-0.06344,0.07808,-0.09272,-0.061,-0.02928,-0.01708,0.03416,-0.03904,-0.16592,-0.17568,-0.15616,-0.1464
-0.05856,0.07564,-0.09272,-0.06344,-0.03416,-0.0122,0.03416,-0.0488,-0.1708,-0.18544,-0.15128,-0.15128
-0.06832,0.08784,-0.10736,-0.0732,-0.03904,-0.01464,0.03416,-0.05368,-0.1708,-0.19032,-0.16592,-0.15128
-0.07808,0.09516,-0.11224,-0.0732,-0.03416,-0.02196,0.03416,-0.05856,-0.18056,-0.20008,-0.1708,-0.15128
-0.0976,0.10248,-0.10736,-0.05856,-0.00976,-0.04392,0.03416,-0.0732,-0.18056,-0.20008,-0.16104,-0.15128
-0.0976,0.10248,-0.10736,-0.05856,-0.00976,-0.04392,0.03416,-0.0732,-0.18056,-0.20008,-0.15616,-0.15128
-0.08784,0.09272,-0.0976,-0.05368,-0.00976,-0.03904,0.03416,-0.06344,-0.17568,-0.20496,-0.15128,-0.1464
-0.0732,0.08296,-0.09272,-0.05612,-0.01952,-0.02684,0.03416,-0.05368,-0.16104,-0.19032,-0.14152,-0.13664
-0.08784,0.0854,-0.08296,-0.03904,0.00488,-0.04636,0.03416,-0.0488,-0.15128,-0.18056,-0.13176,-0.12688
-0.08784,0.08052,-0.0732,-0.02928,0.01464,-0.05124,0.03416,-0.04392,-0.1464,-0.16592,-0.122,-0.11712
-0.06832,0.06588,-0.06344,-0.02928,0.00488,-0.0366,0.02928,-0.04392,-0.122,-0.14152,-0.11224,-0.122
-0.05368,0.05368,-0.05368,-0.02684,0,-0.02684,0.02928,-0.04392,-0.10736,-0.12688,-0.11224,-0.10736
-0.03416,0.03416,-0.03416,-0.01708,0,-0.01708,0.01952,-0.03416,-0.0976,-0.10736,-0.09272,-0.09272
-0.0244,0.02196,-0.01952,-0.00732,0.00488,-0.01464,0.01952,-0.02928,-0.0732,-0.08784,-0.0732,-0.07808
-0.03904,0.03172,-0.0244,-0.00488,0.01464,-0.02684,0.02928,-0.00976,-0.05856,-0.0732,-0.05856,-0.06344
-0.04392,0.03416,-0.0244,-0.00244,0.01952,-0.03172,0.02928,-0.00488,-0.03904,-0.05856,-0.0488,-0.05856
-0.0244,0.01464,-0.00488,0.00732,0.01952,-0.02196,0.03416,-0.00488,-0.01952,-0.0488,-0.03904,-0.06344
-0.01464,0.00976,-0.00488,0.00244,0.00976,-0.0122,0.03904,0.00488,-0.00976,-0.03904,-0.02928,-0.05856
-0.01464,0.01464,-0.01464,-0.00732,0,-0.00732,0.02928,-0.00488,-0.00488,-0.03904,-0.02928,-0.05368
-0.0244,0.01708,-0.00976,0.00244,0.01464,-0.01952,0.01952,0,-0.01464,-0.03416,-0.03904,-0.05368
-0.04392,0.02684,-0.00976,0.0122,0.03416,-0.03904,0.03416,0,-0.00488,-0.0244,-0.02928,-0.05368
-0.05368,0.02928,-0.00488,0.02196,0.0488,-0.05124,0.03416,0.00488,0.00976,-0.0244,-0.0244,-0.05368
-0.03416,0.01464,0.00488,0.02196,0.03904,-0.0366,0.03904,0.01464,0.00488,-0.02928,-0.03416,-0.06344
-0.01464,0.00488,0.00488,0.0122,0.01952,-0.01708,0.03904,0.01952,-0.00488,-0.03416,-0.03416,-0.06344
-0.03416,0.01952,-0.00488,0.0122,0.02928,-0.03172,0.04392,0.00976,0.00488,-0.03416,-0.03904,-0.06344
-0.0488,0.02684,-0.00488,0.01952,0.04392,-0.04636,0.0488,0.01464,0.00488,-0.02928,-0.03904,-0.06832
-0.0488,0.01952,0.00976,0.03416,0.05856,-0.05368,0.0488,0.02928,0.00976,-0.01952,-0.01952,-0.0488
-0.05856,0.02928,0,0.02928,0.05856,-0.05856,0.05856,0.03904,0.01952,-0.01952,-0.01952,-0.05856
-0.05856,0.03416,-0.00976,0.01952,0.0488,-0.05368,0.05856,0.03904,0.01952,-0.01952,-0.01952,-0.05856
-0.05368,0.03172,-0.00976,0.01708,0.04392,-0.0488,0.0488,0.03904,0.01952,-0.01952,-0.02928,-0.05368
-0.03416,0.02196,-0.00976,0.00732,0.0244,-0.02928,0.0488,0.04392,0.01952,-0.01952,-0.02928,-0.05368
-0.04392,0.02196,0,0.02196,0.04392,-0.04392,0.05368,0.04392,0.0244,-0.00976,-0.01952,-0.05368
-0.03416,0.01464,0.00488,0.02196,0.03904,-0.0366,0.05856,0.05368,0.02928,-0.00488,-0.01952,-0.0488
-0.03416,0.0122,0.00976,0.02684,0.04392,-0.03904,0.05856,0.06344,0.02928,-0.00488,-0.01464,-0.05856
-0.02928,0.00732,0.01464,0.02928,0.04392,-0.0366,0.06344,0.06344,0.04392,0.00488,-0.00976,-0.05368
0,-0.01952,0.03904,0.03904,0.03904,-0.01952,0.06344,0.0732,0.04392,0.00488,-0.00488,-0.04392
0.02928,-0.0488,0.06832,0.05368,0.03904,-0.00488,0.06832,0.08296,0.05856,0.01952,0,-0.03904
0.03416,-0.05612,0.07808,0.061,0.04392,-0.00488,0.0732,0.09272,0.07808,0.03416,0.00976,-0.02928
0.04392,-0.06588,0.08784,0.06588,0.04392,0,0.06344,0.09272,0.08296,0.05856,0.01952,-0.01952
0.02928,-0.05856,0.08784,0.0732,0.05856,-0.01464,0.06832,0.10248,0.08784,0.05856,0.03904,-0.00488
0.0244,-0.05612,0.08784,0.07564,0.06344,-0.01952,0.06832,0.11712,0.0976,0.06344,0.03904,0
0.03416,-0.06588,0.0976,0.08052,0.06344,-0.01464,0.06832,0.11712,0.10736,0.0732,0.03416,-0.00488
0.04392,-0.07564,0.10736,0.0854,0.06344,-0.00976,0.06832,0.122,0.11224,0.08296,0.03416,0.00488
0.05856,-0.0976,0.13664,0.10736,0.07808,-0.00976,0.05856,0.11224,0.122,0.09272,0.05368,0.00976
0.0732,-0.11468,0.15616,0.11956,0.08296,-0.00488,0.00976,0.08296,0.122,0.10736,0.06832,0.03416
0.0732,-0.11956,0.16592,0.12932,0.09272,-0.00976,-0.0488,0.05856,0.13176,0.10736,0.08296,0.0488
0.08784,-0.12688,0.16592,0.122,0.07808,0.00488,-0.05368,0.06344,0.13176,0.10736,0.07808,0.0488
0.11224,-0.1342,0.15616,0.10004,0.04392,0.03416,-0.06832,0.03904,0.09272,0.09272,0.05856,0.03416
0.122,-0.13664,0.15128,0.09028,0.02928,0.04636,-0.0732,0.01952,0.07808,0.0732,0.05368,0.02928
0.10736,-0.12444,0.14152,0.08784,0.03416,0.0366,-0.05856,0.0244,0.08784,0.0732,0.05368,0.03904
0.0976,-0.11468,0.13176,0.08296,0.03416,0.03172,-0.0488,0.0244,0.07808,0.06832,0.05368,0.0488
0.0976,-0.10492,0.11224,0.06344,0.01464,0.04148,-0.0488,0.02928,0.06832,0.06344,0.05856,0.04392
0.0976,-0.10248,0.10736,0.05856,0.00976,0.04392,-0.0488,0.03416,0.0732,0.06832,0.05856,0.04392
0.0976,-0.08784,0.07808,0.02928,-0.01952,0.05856,-0.03904,0.04392,0.0732,0.06344,0.05368,0.0244
0.07808,-0.06832,0.05856,0.01952,-0.01952,0.0488,-0.0244,0.04392,0.06344,0.0488,0.03904,0
0.04392,-0.04636,0.0488,0.02684,0.00488,0.01952,0,0.02928,0.04392,0.03904,0.00976,-0.00976
0.02928,-0.0244,0.01952,0.00488,-0.00976,0.01952,0.00976,0.02928,0.03904,0.02928,0,-0.01952
0.02928,-0.01708,0.00488,-0.00976,-0.0244,0.02684,0.01464,0.01952,0.02928,0.00976,-0.01952,-0.04392
0.01464,-0.00488,-0.00488,-0.0122,-0.01952,0.01708,0.0244,0.01952,0.02928,0.00488,-0.0244,-0.05368
0,0.00976,-0.01952,-0.01952,-0.01952,0.00976,0.02928,0.02928,0.01952,0.00488,-0.02928,-0.05368
-0.01464,0.02196,-0.02928,-0.02196,-0.01464,0,0.02928,0.0244,0.01952,0.00488,-0.03904,-0.05368
-0.02928,0.0366,-0.04392,-0.02928,-0.01464,-0.00732,0.02928,0.01464,0.01464,-0.00488,-0.03904,-0.05856
-0.0244,0.03172,-0.03904,-0.02684,-0.01464,-0.00488,0.03416,0.01952,0.01952,-0.00488,-0.03904,-0.06344
-0.01464,0.01708,-0.01952,-0.0122,-0.00488,-0.00488,0.03416,0.02928,0.0244,-0.00488,-0.03904,-0.0488
0,0.00732,-0.01464,-0.01464,-0.01464,0.00732,0.03904,0.02928,0.0244,-0.00488,-0.03904,-0.0488
0.00976,0.00488,-0.01952,-0.0244,-0.02928,0.01952,0.03416,0.01952,0.01464,-0.00488,-0.04392,-0.05856
-0.00488,0.01464,-0.0244,-0.02196,-0.01952,0.00732,0.03416,0.0244,0.00976,-0.00488,-0.0488,-0.05856
-0.01464,0.01952,-0.0244,-0.01708,-0.00976,-0.00244,0.04392,0.0244,0.01952,-0.00488,-0.0488,-0.06832
-0.00976,0.01952,-0.02928,-0.0244,-0.01952,0.00488,0.05856,0.0488,0.02928,0.01464,-0.03904,-0.05368
-0.03416,0.06588,-0.0976,-0.08052,-0.06344,0.01464,0.09272,0.0732,0.01464,-0.02928,-0.06344,-0.07808
-0.03904,0.08784,-0.13664,-0.11712,-0.0976,0.02928,0.1464,0.14152,0.01464,-0.0488,-0.10736,-0.12688
-0.00488,0.02928,-0.05368,-0.05124,-0.0488,0.02196,0.16104,0.2196,0.10248,0.02928,-0.0732,-0.0976
0.0732,-0.05612,0.03904,0.00244,-0.03416,0.05368,0.20496,0.38552,0.24888,0.17568,0.02928,-0.03416
0.20496,-0.16348,0.122,0.01952,-0.08296,0.14396,0.33184,0.732,0.488,0.40016,0.17568,0.06344
0.4392,-0.37332,0.30744,0.08784,-0.13176,0.28548,0.25864,0.86376,0.72224,0.67344,0.3904,0.24888
0.83448,-0.67832,0.52216,0.10492,-0.31232,0.5734,-0.15616,0.64904,0.87352,0.98576,0.67832,0.51728
1.1224,-0.94672,0.77104,0.20984,-0.35136,0.73688,-0.6832,0.15616,0.84424,1.15168,0.91256,0.80032
1.2444,-1.05896,0.87352,0.25132,-0.37088,0.80764,-1.06872,-0.33184,0.6588,1.08824,1.0248,0.97112
0.90768,-0.87352,0.83936,0.38552,-0.06832,0.488,-1.11752,-0.7564,0.23912,0.70272,0.88328,0.93696
0.50752,-0.58316,0.6588,0.40504,0.15128,0.17812,-1.05408,-1.0736,-0.14152,0.27816,0.6344,0.79056
-0.0488,-0.15372,0.35624,0.38064,0.40504,-0.22692,-0.86864,-1.48352,-0.66856,-0.27328,0.25376,0.51728
-0.13664,0.01952,0.0976,0.16592,0.23424,-0.18544,-0.74176,-1.29808,-0.75152,-0.45872,0.05368,0.32208
-0.11224,0.06344,-0.01464,0.04148,0.0976,-0.10492,-0.6588,-1.0736,-0.64416,-0.42944,-0.03416,0.18056
-0.0488,0.0732,-0.0976,-0.0732,-0.0488,0,-0.40992,-0.64904,-0.488,-0.35136,-0.0976,0.05856
0.01464,0.02684,-0.06832,-0.07564,-0.08296,0.0488,-0.1952,-0.3172,-0.25864,-0.1952,-0.07808,0.00976
-0.00976,0.03172,-0.05368,-0.0488,-0.04392,0.01708,-0.05856,-0.13664,-0.11224,-0.10248,-0.06344,-0.0244
-0.06344,0.05612,-0.0488,-0.01708,0.01464,-0.03904,-0.0244,-0.0976,-0.06344,-0.0732,-0.0488,-0.03904
-0.05368,0.04148,-0.02928,-0.00244,0.0244,-0.03904,0.00976,-0.05368,-0.0488,-0.06344,-0.05368,-0.0732
-0.03904,0.04636,-0.05368,-0.03416,-0.01464,-0.0122,0.0488,0.01464,-0.02928,-0.05368,-0.07808,-0.07808
-0.06832,0.06832,-0.06832,-0.03416,0,-0.03416,0.0732,0.03904,0,-0.0244,-0.06344,-0.07808
-0.05368,0.05612,-0.05856,-0.03172,-0.00488,-0.0244,0.06832,0.03416,0.00976,-0.01464,-0.05368,-0.0732
-0.03416,0.03904,-0.04392,-0.02684,-0.00976,-0.0122,0.06832,0.03904,0.00488,-0.01952,-0.0488,-0.06344
-0.03904,0.04636,-0.05368,-0.03416,-0.01464,-0.0122,0.07808,0.05368,0.00488,-0.01952,-0.05856,-0.0732
-0.03416,0.04636,-0.05856,-0.04148,-0.0244,-0.00488,0.08296,0.06832,0.0244,-0.01952,-0.05856,-0.07808
-0.0244,0.03172,-0.03904,-0.02684,-0.01464,-0.00488,0.08784,0.06832,0.02928,-0.00488,-0.05368,-0.0732
-0.02928,0.03416,-0.03904,-0.0244,-0.00976,-0.00976,0.09272,0.07808,0.03416,0.00488,-0.0488,-0.08296
-0.02928,0.0366,-0.04392,-0.02928,-0.01464,-0.00732,0.09272,0.07808,0.03416,0.00488,-0.0488,-0.07808
-0.03416,0.04148,-0.0488,-0.03172,-0.01464,-0.00976,0.09272,0.08296,0.0244,-0.00488,-0.05856,-0.09272
-0.03416,0.03904,-0.04392,-0.02684,-0.00976,-0.0122,0.0976,0.08296,0.03904,0,-0.0488,-0.08784
-0.01952,0.02196,-0.0244,-0.01464,-0.00488,-0.00732,0.08296,0.0732,0.04392,0.00488,-0.03904,-0.0732
-0.00976,0.01708,-0.0244,-0.01952,-0.01464,0.00244,0.08296,0.0732,0.04392,0.00488,-0.03904,-0.0732
-0.00976,0.02196,-0.03416,-0.02928,-0.0244,0.00732,0.0732,0.0732,0.03904,0.00976,-0.0488,-0.08296
-0.00976,0.0244,-0.03904,-0.03416,-0.02928,0.00976,0.06832,0.0732,0.04392,0.01464,-0.05368,-0.08296
0.00488,0.01464,-0.03416,-0.0366,-0.03904,0.02196,0.07808,0.0732,0.04392,0.01464,-0.0488,-0.0732
-0.00488,0.01952,-0.03416,-0.03172,-0.02928,0.0122,0.07808,0.0732,0.04392,0.01464,-0.0488,-0.0732
-0.00488,0.01952,-0.03416,-0.03172,-0.02928,0.0122,0.06832,0.0732,0.03416,0.00976,-0.05368,-0.0732
-0.01464,0.02684,-0.03904,-0.03172,-0.0244,0.00488,0.06832,0.0732,0.03416,0.01464,-0.0488,-0.0732
-0.00976,0.0244,-0.03904,-0.03416,-0.02928,0.00976,0.0732,0.06832,0.04392,0.01464,-0.03904,-0.06832
-0.00488,0.01708,-0.02928,-0.02684,-0.0244,0.00976,0.0732,0.06832,0.03904,0.01464,-0.03904,-0.0732
0,0.00976,-0.01952,-0.01952,-0.01952,0.00976,0.06344,0.06344,0.02928,0.00488,-0.0488,-0.08296
0,0.0122,-0.0244,-0.0244,-0.0244,0.0122,0.05856,0.06832,0.02928,0,-0.05368,-0.08296
0.00976,0.0122,-0.03416,-0.03904,-0.04392,0.02684,0.06344,0.06832,0.02928,0,-0.04392,-0.0732
0.00976,0.00976,-0.02928,-0.03416,-0.03904,0.0244,0.05856,0.06832,0.0244,-0.00976,-0.04392,-0.0732
0,0.01464,-0.02928,-0.02928,-0.02928,0.01464,0.06832,0.07808,0.03416,0,-0.03416,-0.06832
0.00488,0.00732,-0.01952,-0.02196,-0.0244,0.01464,0.06832,0.08296,0.02928,0.00976,-0.03416,-0.05856
0,0.00976,-0.01952,-0.01952,-0.01952,0.00976,0.05856,0.0732,0.01952,0,-0.03904,-0.06832
-0.00976,0.01952,-0.02928,-0.0244,-0.01952,0.00488,0.05368,0.06832,0.00976,-0.00488,-0.0488,-0.08296
-0.00976,0.02196,-0.03416,-0.02928,-0.0244,0.00732,0.03904,0.06832,0.00488,-0.01464,-0.05856,-0.07808
-0.00488,0.0244,-0.04392,-0.04148,-0.03904,0.01708,0.03904,0.06832,0.00488,-0.0244,-0.05856,-0.08296
-0.00488,0.0244,-0.04392,-0.04148,-0.03904,0.01708,0.02928,0.05368,0,-0.02928,-0.06832,-0.08296
-0.00488,0.0244,-0.04392,-0.04148,-0.03904,0.01708,0.02928,0.05368,-0.00976,-0.03416,-0.07808,-0.09272
-0.00976,0.03416,-0.05856,-0.05368,-0.0488,0.01952,0.03904,0.0488,-0.01464,-0.04392,-0.0732,-0.0976
-0.00976,0.03416,-0.05856,-0.05368,-0.0488,0.01952,0.03904,0.0488,-0.0244,-0.05368,-0.08296,-0.0976
-0.01952,0.04148,-0.06344,-0.05368,-0.04392,0.0122,0.03904,0.0488,-0.0244,-0.05368,-0.07808,-0.09272
-0.0244,0.04392,-0.06344,-0.05124,-0.03904,0.00732,0.03416,0.0488,-0.03416,-0.06344,-0.08784,-0.10248
-0.0244,0.04148,-0.05856,-0.04636,-0.03416,0.00488,0.04392,0.04392,-0.04392,-0.07808,-0.08784,-0.0976
-0.01952,0.0366,-0.05368,-0.04392,-0.03416,0.00732,0.04392,0.03904,-0.05856,-0.07808,-0.0976,-0.10248
-0.01464,0.0366,-0.05856,-0.05124,-0.04392,0.01464,0.03416,0.01952,-0.08296,-0.08784,-0.122,-0.11712
0,0.03172,-0.06344,-0.06344,-0.06344,0.03172,0.02928,0.00976,-0.09272,-0.11224,-0.13176,-0.12688
-0.00976,0.04148,-0.0732,-0.06832,-0.06344,0.02684,0.01952,0,-0.10248,-0.14152,-0.13664,-0.13664
-0.02928,0.05856,-0.08784,-0.0732,-0.05856,0.01464,0.0244,-0.00976,-0.10736,-0.1464,-0.13664,-0.13664
-0.03416,0.06832,-0.10248,-0.0854,-0.06832,0.01708,0.0244,-0.01952,-0.12688,-0.16592,-0.1464,-0.13176
-0.05368,0.08052,-0.10736,-0.08052,-0.05368,0,0.03416,-0.03416,-0.13176,-0.16104,-0.1464,-0.13664
-0.06344,0.08052,-0.0976,-0.06588,-0.03416,-0.01464,0.0488,-0.04392,-0.13664,-0.16104,-0.15616,-0.1464
-0.06832,0.07808,-0.08784,-0.05368,-0.01952,-0.0244,0.04392,-0.03904,-0.13176,-0.1708,-0.15616,-0.1464
-0.06832,0.08052,-0.09272,-0.05856,-0.0244,-0.02196,0.03416,-0.05856,-0.1464,-0.19032,-0.16592,-0.15128
-0.06832,0.08296,-0.0976,-0.06344,-0.02928,-0.01952,0.03416,-0.06344,-0.16104,-0.19032,-0.16592,-0.15128
-0.06832,0.0854,-0.10248,-0.06832,-0.03416,-0.01708,0.02928,-0.08296,-0.18056,-0.20984,-0.1708,-0.15616
-0.06832,0.08784,-0.10736,-0.0732,-0.03904,-0.01464,0.01952,-0.08296,-0.18056,-0.20984,-0.1708,-0.16592
-0.0732,0.09272,-0.11224,-0.07564,-0.03904,-0.01708,0.0244,-0.08296,-0.16592,-0.20984,-0.17568,-0.16104
-0.07808,0.09272,-0.10736,-0.06832,-0.02928,-0.0244,0.0244,-0.08296,-0.16592,-0.1952,-0.16592,-0.15128
-0.08784,0.09028,-0.09272,-0.0488,-0.00488,-0.04148,0.0244,-0.0732,-0.1464,-0.17568,-0.15616,-0.14152
-0.08296,0.0854,-0.08784,-0.04636,-0.00488,-0.03904,0.0244,-0.06344,-0.14152,-0.16104,-0.14152,-0.13176
-0.06344,0.07076,-0.07808,-0.04636,-0.01464,-0.0244,0.02928,-0.0488,-0.13176,-0.1464,-0.122,-0.11224
-0.05368,0.05368,-0.05368,-0.02684,0,-0.02684,0.02928,-0.03904,-0.10248,-0.12688,-0.11224,-0.10248
-0.0488,0.04636,-0.04392,-0.01952,0.00488,-0.02684,0.01952,-0.03904,-0.08784,-0.11712,-0.11224,-0.10248
-0.03904,0.03904,-0.03904,-0.01952,0,-0.01952,0.01952,-0.02928,-0.0732,-0.0976,-0.0976,-0.0976
-0.01952,0.02196,-0.0244,-0.01464,-0.00488,-0.00732,0.00976,-0.02928,-0.06832,-0.0976,-0.09272,-0.0976
0,0.00976,-0.01952,-0.01952,-0.01952,0.00976,0.00976,-0.01464,-0.04392,-0.07808,-0.08296,-0.08784
0.00488,0.00488,-0.01464,-0.01708,-0.01952,0.0122,0.01464,-0.00488,-0.03416,-0.06344,-0.08296,-0.0976
0.00488,0.00732,-0.01952,-0.02196,-0.0244,0.01464,0.01952,0.00488,-0.0244,-0.05368,-0.0732,-0.08784
0,0.00732,-0.01464,-0.01464,-0.01464,0.00732,0.01952,0.00488,-0.01464,-0.04392,-0.05856,-0.07808
-0.01464,0.01464,-0.01464,-0.00732,0,-0.00732,0.01952,0.00976,-0.00488,-0.03416,-0.0488,-0.0732
-0.0244,0.0122,0,0.0122,0.0244,-0.0244,0.01952,0.00976,-0.00488,-0.03416,-0.0488,-0.06344
-0.0244,0.0122,0,0.0122,0.0244,-0.0244,0.0244,0.01464,-0.00488,-0.03416,-0.05368,-0.06344
-0.01464,0.00976,-0.00488,0.00244,0.00976,-0.0122,0.02928,0.00488,0.00488,-0.01952,-0.05368,-0.06344
-0.01464,0.00976,-0.00488,0.00244,0.00976,-0.0122,0.02928,0.00488,0.00488,-0.01952,-0.05368,-0.06344
-0.00488,0.00488,-0.00488,-0.00244,0,-0.00244,0.04392,0.01952,0.00488,-0.0244,-0.04392,-0.06344
-0.0488,0.02684,-0.00488,0.01952,0.04392,-0.04636,0.0488,0.01952,0.01464,-0.01464,-0.03904,-0.05368
-0.03904,0.0244,-0.00976,0.00976,0.02928,-0.03416,0.0488,0.01952,0.01952,-0.01952,-0.03904,-0.05856
-0.02928,0.01464,0,0.01464,0.02928,-0.02928,0.03904,0.01952,0.01952,-0.01952,-0.0488,-0.05856
-0.02928,0.01464,0,0.01464,0.02928,-0.02928,0.03904,0.01952,0.01952,-0.01952,-0.0488,-0.05856
-0.0244,0.00732,0.00976,0.02196,0.03416,-0.02928,0.0488,0.02928,0.02928,-0.00976,-0.03904,-0.05368
-0.01464,-0.00244,0.01952,0.02684,0.03416,-0.0244,0.0488,0.04392,0.02928,-0.00976,-0.02928,-0.05368
-0.0244,0.00732,0.00976,0.02196,0.03416,-0.02928,0.05368,0.04392,0.03416,-0.00976,-0.03904,-0.05368
-0.0244,0.00488,0.01464,0.02684,0.03904,-0.03172,0.05856,0.05368,0.03904,-0.00488,-0.03904,-0.0488
-0.03416,0.0122,0.00976,0.02684,0.04392,-0.03904,0.05856,0.05368,0.02928,-0.00488,-0.04392,-0.05856
-0.02928,0.00732,0.01464,0.02928,0.04392,-0.0366,0.06344,0.05368,0.04392,0.00488,-0.03904,-0.06344
-0.00976,-0.00488,0.01952,0.0244,0.02928,-0.01952,0.06344,0.05368,0.04392,0.00488,-0.03416,-0.06344
0,-0.01952,0.03904,0.03904,0.03904,-0.01952,0.06832,0.06344,0.05856,0.01952,-0.02928,-0.06832
0.00488,-0.03172,0.05856,0.05612,0.05368,-0.0244,0.0732,0.08296,0.07808,0.01464,-0.01952,-0.0488
0.00488,-0.0366,0.06832,0.06588,0.06344,-0.02928,0.06344,0.08296,0.08296,0.02928,-0.00976,-0.02928
0.02928,-0.05368,0.07808,0.06344,0.0488,-0.00976,0.05856,0.09272,0.08784,0.03904,0.00976,-0.0244
0.05368,-0.07076,0.08784,0.061,0.03416,0.00976,0.05856,0.10736,0.0976,0.04392,0.00976,-0.01952
0.06344,-0.08052,0.0976,0.06588,0.03416,0.01464,0.06832,0.10736,0.0976,0.04392,0.00488,-0.01464
0.0732,-0.0854,0.0976,0.061,0.0244,0.0244,0.06832,0.11224,0.10248,0.05368,0.00488,-0.00488
0.08784,-0.11224,0.13664,0.09272,0.0488,0.01952,0.0488,0.11224,0.122,0.0732,0.01464,-0.00976
0.10248,-0.12932,0.15616,0.10492,0.05368,0.0244,0,0.08296,0.122,0.08784,0.02928,0.00488
0.11224,-0.13908,0.16592,0.1098,0.05368,0.02928,-0.05856,0.05856,0.122,0.0976,0.05368,0.02928
0.12688,-0.1464,0.16592,0.10248,0.03904,0.04392,-0.06344,0.05368,0.122,0.0976,0.05856,0.02928
0.122,-0.1342,0.1464,0.0854,0.0244,0.0488,-0.07808,0.02928,0.09272,0.09272,0.0488,0.01464
0.122,-0.13176,0.14152,0.08052,0.01952,0.05124,-0.0732,0.01952,0.07808,0.0732,0.04392,0.00976
0.10736,-0.11956,0.13176,0.07808,0.0244,0.04148,-0.07808,0.01464,0.06832,0.06344,0.0244,0.00976
0.10736,-0.1098,0.11224,0.05856,0.00488,0.05124,-0.06832,0.01464,0.05856,0.05856,0.0244,0.00976
0.13664,-0.12932,0.122,0.05368,-0.01464,0.07564,-0.0488,0.01952,0.06832,0.05368,0.02928,0.01464
0.1464,-0.13664,0.12688,0.05368,-0.01952,0.08296,-0.03904,0.0244,0.0732,0.05856,0.02928,0.01464
0.12688,-0.11224,0.0976,0.03416,-0.02928,0.07808,-0.02928,0.03416,0.0732,0.05368,0.0244,0.01464
0.10736,-0.09272,0.07808,0.0244,-0.02928,0.06832,-0.01464,0.03416,0.06344,0.03904,0.00976,0
0.05368,-0.05612,0.05856,0.03172,0.00488,0.0244,0,0.01952,0.04392,0.01952,0,-0.01952
0.02928,-0.02928,0.02928,0.01464,0,0.01464,0.00976,0.01952,0.03904,0.00976,-0.00976,-0.03904
0.02928,-0.01708,0.00488,-0.00976,-0.0244,0.02684,0.01464,0.01952,0.02928,0.00976,-0.03904,-0.05368
0.01464,-0.00488,-0.00488,-0.0122,-0.01952,0.01708,0.0244,0.01952,0.02928,0.00488,-0.04392,-0.06344
0.00976,0,-0.00976,-0.01464,-0.01952,0.01464,0.02928,0.01952,0.01952,-0.00488,-0.03904,-0.06344
0.00488,0.00732,-0.01952,-0.02196,-0.0244,0.01464,0.02928,0.01464,0.01952,-0.00488,-0.0488,-0.06344
-0.01952,0.03172,-0.04392,-0.03416,-0.0244,0.00244,0.01952,0.00488,0.00488,-0.0244,-0.05856,-0.07808
-0.0244,0.0366,-0.0488,-0.0366,-0.0244,0,0.0244,0,0,-0.03416,-0.06832,-0.08296
-0.01464,0.02684,-0.03904,-0.03172,-0.0244,0.00488,0.0244,0,-0.00488,-0.03416,-0.06832,-0.08784
-0.00976,0.02684,-0.04392,-0.03904,-0.03416,0.0122,0.02928,0,-0.00488,-0.03416,-0.06832,-0.08784
0.00976,0.00488,-0.01952,-0.0244,-0.02928,0.01952,0.0244,0.00976,0.00488,-0.0244,-0.06344,-0.07808
0.00488,0.00488,-0.01464,-0.01708,-0.01952,0.0122,0.0244,0.01464,0.00976,-0.0244,-0.06832,-0.07808
0.01464,0.00488,-0.0244,-0.03172,-0.03904,0.02684,0.0244,0.0244,0.00976,-0.01464,-0.0488,-0.05856
0,0.01464,-0.02928,-0.02928,-0.02928,0.01464,0.03904,0.02928,0.00976,-0.01464,-0.0488,-0.06344
0.0244,0.02196,-0.06832,-0.08052,-0.09272,0.05856,0.06344,0.06344,0.00488,-0.0488,-0.08296,-0.08784
-0.00976,0.06344,-0.11712,-0.11224,-0.10736,0.0488,0.13664,0.13176,0.01464,-0.05856,-0.12688,-0.13664
-0.03416,0.0488,-0.06344,-0.04636,-0.02928,-0.00244,0.16104,0.19032,0.08296,0.00976,-0.08296,-0.12688
0.10248,-0.07076,0.03904,-0.0122,-0.06344,0.08296,0.20496,0.37576,0.22936,0.15616,0.02928,-0.05368
0.25376,-0.21228,0.1708,0.04392,-0.08296,0.16836,0.32208,0.74176,0.488,0.3904,0.17568,0.06344
0.42944,-0.36356,0.29768,0.08296,-0.13176,0.2806,0.24888,0.86376,0.71248,0.65392,0.37088,0.23912
0.854,-0.70272,0.55144,0.12444,-0.30256,0.57828,-0.15616,0.64904,0.86376,0.95648,0.6588,0.52704
1.18096,-0.976,0.77104,0.18056,-0.40992,0.79544,-0.69296,0.15616,0.82472,1.11264,0.89304,0.77104
1.26392,-1.06872,0.87352,0.24156,-0.3904,0.82716,-1.08824,-0.35136,0.62952,1.0492,0.98576,0.94184
0.9272,-0.88816,0.84912,0.38552,-0.07808,0.50264,-1.11752,-0.72712,0.24888,0.70272,0.86376,0.93696
0.52704,-0.60268,0.67832,0.4148,0.15128,0.18788,-1.04432,-1.06384,-0.14152,0.25864,0.60512,0.7808
-0.01952,-0.17812,0.37576,0.38552,0.39528,-0.2074,-0.86864,-1.52256,-0.67832,-0.30256,0.23424,0.488
-0.05856,-0.03416,0.12688,0.15616,0.18544,-0.122,-0.76128,-1.30784,-0.76128,-0.45872,0.03416,0.2928
-0.06344,0.01464,0.03416,0.06588,0.0976,-0.08052,-0.67832,-1.08336,-0.6344,-0.41968,-0.04392,0.18056
0.00976,0.0244,-0.05856,-0.06344,-0.06832,0.03904,-0.42944,-0.6588,-0.47824,-0.36112,-0.10736,0.05856
0.0244,0.0122,-0.0488,-0.061,-0.0732,0.0488,-0.20496,-0.34648,-0.27816,-0.21472,-0.10736,0.00976
0,0.01708,-0.03416,-0.03416,-0.03416,0.01708,-0.07808,-0.15616,-0.13176,-0.13176,-0.08296,-0.01464
-0.08296,0.061,-0.03904,0.00244,0.04392,-0.06344,-0.03416,-0.0976,-0.0732,-0.09272,-0.06832,-0.03904
-0.04392,0.03172,-0.01952,0.00244,0.0244,-0.03416,0.02928,-0.03416,-0.02928,-0.05368,-0.05368,-0.04392
-0.00976,0.02684,-0.04392,-0.03904,-0.03416,0.0122,0.06832,0.00488,-0.03904,-0.06344,-0.08784,-0.06832
-0.01952,0.03904,-0.05856,-0.0488,-0.03904,0.00976,0.0732,0.02928,-0.00488,-0.05368,-0.08296,-0.08784
-0.00488,0.02684,-0.0488,-0.04636,-0.04392,0.01952,0.06832,0.0244,-0.00488,-0.04392,-0.0732,-0.08296
-0.00488,0.02684,-0.0488,-0.04636,-0.04392,0.01952,0.06832,0.01952,-0.01464,-0.03904,-0.07808,-0.08296
-0.02928,0.0488,-0.06832,-0.05368,-0.03904,0.00488,0.07808,0.03416,-0.01464,-0.03904,-0.08784,-0.09272
-0.03904,0.05856,-0.07808,-0.05856,-0.03904,0,0.0732,0.0488,0.00488,-0.03904,-0.07808,-0.08784
-0.03904,0.0488,-0.05856,-0.03904,-0.01952,-0.00976,0.07808,0.0488,0.00976,-0.0244,-0.0732,-0.08296
-0.0244,0.03172,-0.03904,-0.02684,-0.01464,-0.00488,0.07808,0.05856,0.0244,-0.01464,-0.05856,-0.0732
0.00488,0.00976,-0.0244,-0.02684,-0.02928,0.01708,0.08784,0.05856,0.0244,-0.01464,-0.05856,-0.06832
0.00976,0.00976,-0.02928,-0.03416,-0.03904,0.0244,0.09272,0.0732,0.0244,-0.01464,-0.05856,-0.0732
0,0.0122,-0.0244,-0.0244,-0.0244,0.0122,0.0976,0.0732,0.03904,-0.00976,-0.0488,-0.06832
-0.00976,0.01708,-0.0244,-0.01952,-0.01464,0.00244,0.08784,0.06344,0.03416,-0.00488,-0.05856,-0.06832
0,0.0122,-0.0244,-0.0244,-0.0244,0.0122,0.07808,0.06344,0.03416,-0.00488,-0.05856,-0.07808
-0.00976,0.02196,-0.03416,-0.02928,-0.0244,0.00732,0.08296,0.05368,0.01952,-0.01952,-0.0732,-0.08296
-0.00976,0.0244,-0.03904,-0.03416,-0.02928,0.00976,0.07808,0.05368,0.0244,-0.01464,-0.06832,-0.08296
0.00488,0.00976,-0.0244,-0.02684,-0.02928,0.01708,0.07808,0.06344,0.0244,-0.01464,-0.06832,-0.0732
-0.00488,0.01464,-0.0244,-0.02196,-0.01952,0.00732,0.07808,0.06344,0.0244,-0.01464,-0.06832,-0.0732
0.00488,0.00488,-0.01464,-0.01708,-0.01952,0.0122,0.07808,0.0732,0.0244,-0.00976,-0.06832,-0.06344
0.01464,0.00244,-0.01952,-0.02684,-0.03416,0.0244,0.07808,0.0732,0.0244,-0.00488,-0.05368,-0.06344
0.00976,0,-0.00976,-0.01464,-0.01952,0.01464,0.0732,0.06832,0.03416,0.00488,-0.05856,-0.06832
0.01464,-0.00732,0,-0.00732,-0.01464,0.01464,0.0732,0.06832,0.02928,0.00488,-0.05856,-0.0732
0.00976,0,-0.00976,-0.01464,-0.01952,0.01464,0.08296,0.0732,0.02928,0.00488,-0.05368,-0.06832
0.00976,0.00244,-0.01464,-0.01952,-0.0244,0.01708,0.07808,0.07808,0.02928,0,-0.0488,-0.05856
0.00976,0.00488,-0.01952,-0.0244,-0.02928,0.01952,0.0732,0.06832,0.01952,-0.00976,-0.05368,-0.06344
0.00976,0.00732,-0.0244,-0.02928,-0.03416,0.02196,0.06832,0.06832,0.01464,-0.01952,-0.05368,-0.06344
0.01952,0.00488,-0.02928,-0.03904,-0.0488,0.03416,0.05856,0.06832,0.0244,-0.01464,-0.04392,-0.06344
0.0244,-0.00244,-0.01952,-0.03172,-0.04392,0.03416,0.05856,0.0732,0.01952,-0.01464,-0.04392,-0.06344
0.0244,0,-0.0244,-0.0366,-0.0488,0.0366,0.05856,0.0732,0.01952,-0.00976,-0.05368,-0.06344
0.0244,0,-0.0244,-0.0366,-0.0488,0.0366,0.05368,0.06832,0.00976,-0.01464,-0.05368,-0.06832
0.01464,0.00488,-0.0244,-0.03172,-0.03904,0.02684,0.0488,0.05856,0.00488,-0.0244,-0.06832,-0.06832
0.00976,0.0122,-0.03416,-0.03904,-0.04392,0.02684,0.0488,0.05856,0.00488,-0.03416,-0.06832,-0.0732
0.00488,0.00976,-0.0244,-0.02684,-0.02928,0.01708,0.0488,0.05368,0,-0.03904,-0.06832,-0.0732
0.00488,0.00976,-0.0244,-0.02684,-0.02928,0.01708,0.0488,0.05368,-0.00976,-0.04392,-0.07808,-0.08296
0.00976,0.00976,-0.02928,-0.03416,-0.03904,0.0244,0.0488,0.05856,-0.01464,-0.04392,-0.08296,-0.08784
0.00976,0.00976,-0.02928,-0.03416,-0.03904,0.0244,0.0488,0.05856,-0.0244,-0.05368,-0.09272,-0.08784
0.00976,0.01464,-0.03904,-0.04392,-0.0488,0.02928,0.0488,0.0488,-0.03416,-0.06344,-0.0976,-0.08296
0.00488,0.02196,-0.0488,-0.05124,-0.05368,0.02928,0.04392,0.0488,-0.04392,-0.0732,-0.10736,-0.09272
-0.01464,0.0366,-0.05856,-0.05124,-0.04392,0.01464,0.04392,0.0244,-0.06344,-0.10248,-0.10736,-0.10736
-0.02928,0.05124,-0.0732,-0.05856,-0.04392,0.00732,0.04392,0.01952,-0.07808,-0.11224,-0.11712,-0.11224
-0.02928,0.05856,-0.08784,-0.0732,-0.05856,0.01464,0.03416,0.01952,-0.09272,-0.122,-0.13176,-0.122
-0.0244,0.05856,-0.09272,-0.08052,-0.06832,0.02196,0.02928,0.00976,-0.10248,-0.13664,-0.14152,-0.122
-0.02928,0.061,-0.09272,-0.07808,-0.06344,0.01708,0.03416,0,-0.122,-0.15128,-0.1464,-0.12688
-0.02928,0.05856,-0.08784,-0.0732,-0.05856,0.01464,0.0488,-0.00976,-0.12688,-0.15616,-0.1464,-0.12688
-0.03416,0.06832,-0.10248,-0.0854,-0.06832,0.01708,0.0488,-0.01952,-0.14152,-0.16592,-0.1464,-0.12688
-0.0732,0.09028,-0.10736,-0.07076,-0.03416,-0.01952,0.0488,-0.03416,-0.13664,-0.16104,-0.1464,-0.122
-0.07808,0.09272,-0.10736,-0.06832,-0.02928,-0.0244,0.0488,-0.05856,-0.15128,-0.18056,-0.16104,-0.13664
-0.0732,0.0854,-0.0976,-0.061,-0.0244,-0.0244,0.04392,-0.06344,-0.15616,-0.19032,-0.1708,-0.13664
-0.05856,0.07564,-0.09272,-0.06344,-0.03416,-0.0122,0.04392,-0.06832,-0.18056,-0.20984,-0.17568,-0.15128
-0.05856,0.07808,-0.0976,-0.06832,-0.03904,-0.00976,0.04392,-0.0732,-0.18544,-0.20984,-0.17568,-0.15128
-0.07808,0.08784,-0.0976,-0.05856,-0.01952,-0.02928,0.04392,-0.09272,-0.20008,-0.22936,-0.19032,-0.15128
-0.07808,0.09516,-0.11224,-0.0732,-0.03416,-0.02196,0.04392,-0.09272,-0.20008,-0.22936,-0.19032,-0.15128
-0.06832,0.0854,-0.10248,-0.06832,-0.03416,-0.01708,0.03416,-0.09272,-0.19032,-0.2196,-0.18544,-0.14152
-0.06344,0.08052,-0.0976,-0.06588,-0.03416,-0.01464,0.03416,-0.09272,-0.18056,-0.20496,-0.17568,-0.13176
-0.0732,0.08296,-0.09272,-0.05612,-0.01952,-0.02684,0.03416,-0.0732,-0.16104,-0.20496,-0.16592,-0.11224
-0.05856,0.0732,-0.08784,-0.05856,-0.02928,-0.01464,0.03416,-0.06344,-0.1464,-0.19032,-0.15128,-0.10248
-0.05856,0.07076,-0.08296,-0.05368,-0.0244,-0.01708,0.03904,-0.05856,-0.1464,-0.16592,-0.13176,-0.10248
-0.05856,0.06344,-0.06832,-0.03904,-0.00976,-0.0244,0.03904,-0.0488,-0.12688,-0.1464,-0.122,-0.09272
-0.05856,0.06344,-0.06832,-0.03904,-0.00976,-0.0244,0.03416,-0.04392,-0.10736,-0.13664,-0.122,-0.08784
-0.0488,0.05124,-0.05368,-0.02928,-0.00488,-0.02196,0.0244,-0.04392,-0.09272,-0.11712,-0.10736,-0.09272
-0.02928,0.03172,-0.03416,-0.01952,-0.00488,-0.0122,0.01952,-0.0488,-0.08784,-0.10736,-0.10248,-0.08784
-0.00976,0.01952,-0.02928,-0.0244,-0.01952,0.00488,0.01952,-0.03416,-0.06344,-0.08784,-0.09272,-0.07808
-0.01464,0.01464,-0.01464,-0.00732,0,-0.00732,0.0244,-0.0244,-0.03904,-0.06344,-0.07808,-0.06344
-0.01464,0.00732,0,0.00732,0.01464,-0.01464,0.02928,-0.01464,-0.01952,-0.05368,-0.05856,-0.04392
-0.0244,0.00976,0.00488,0.01708,0.02928,-0.02684,0.03904,-0.01464,-0.00976,-0.05368,-0.0488,-0.03904
-0.02928,0.0122,0.00488,0.01952,0.03416,-0.03172,0.03904,-0.00976,-0.00976,-0.04392,-0.03904,-0.03416
-0.0244,0.0122,0,0.0122,0.0244,-0.0244,0.02928,-0.00976,-0.00488,-0.04392,-0.0488,-0.04392
-0.00488,0.00244,0,0.00244,0.00488,-0.00488,0.03416,-0.00488,-0.00488,-0.04392,-0.05368,-0.04392
-0.01464,0.00976,-0.00488,0.00244,0.00976,-0.0122,0.03904,-0.00488,-0.00488,-0.03904,-0.05368,-0.05368
-0.03416,0.01952,-0.00488,0.0122,0.02928,-0.03172,0.03904,-0.00488,-0.00488,-0.03904,-0.05368,-0.05368
-0.04392,0.01952,0.00488,0.02684,0.0488,-0.04636,0.05368,0.00976,0.00488,-0.04392,-0.04392,-0.0488
-0.0488,0.02196,0.00488,0.02928,0.05368,-0.05124,0.05856,0.00976,0.00488,-0.04392,-0.0488,-0.03904
-0.03904,0.01708,0.00488,0.0244,0.04392,-0.04148,0.05856,0.01464,-0.00488,-0.02928,-0.03904,-0.03904
-0.02928,0.01464,0,0.01464,0.02928,-0.02928,0.06832,0.01952,0.00976,-0.03904,-0.0488,-0.02928
-0.02928,0.01464,0,0.01464,0.02928,-0.02928,0.05856,0.00976,0.00976,-0.03904,-0.0488,-0.03904
-0.02928,0.01464,0,0.01464,0.02928,-0.02928,0.05856,0.00976,0.00976,-0.03904,-0.0488,-0.03904
-0.03416,0.0122,0.00976,0.02684,0.04392,-0.03904,0.05856,0.00976,0.00976,-0.03904,-0.0488,-0.04392
-0.0244,0.00732,0.00976,0.02196,0.03416,-0.02928,0.05856,0.01464,0.00976,-0.03904,-0.0488,-0.04392
-0.01464,0.00244,0.00976,0.01708,0.0244,-0.01952,0.05368,0.0244,0.01464,-0.03904,-0.0488,-0.04392
-0.00488,-0.00488,0.01464,0.01708,0.01952,-0.0122,0.05856,0.03416,0.01952,-0.03416,-0.0488,-0.03904
-0.01464,-0.00244,0.01952,0.02684,0.03416,-0.0244,0.06832,0.04392,0.02928,-0.01464,-0.03416,-0.02928
-0.01952,-0.00244,0.0244,0.03416,0.04392,-0.03172,0.0732,0.04392,0.04392,0.00488,-0.01952,-0.0244
-0.01952,-0.00976,0.03904,0.0488,0.05856,-0.03904,0.0732,0.05368,0.05368,0.00488,-0.01464,-0.01464
-0.00976,-0.0244,0.05856,0.06344,0.06832,-0.03904,0.07808,0.06344,0.06832,0.01952,-0.00976,-0.00976
0.0244,-0.05612,0.08784,0.07564,0.06344,-0.01952,0.08296,0.0732,0.06832,0.0244,0,0
0.05368,-0.07564,0.0976,0.07076,0.04392,0.00488,0.0732,0.0732,0.0732,0.03904,0.00976,0.00976
0.0488,-0.0732,0.0976,0.0732,0.0488,0,0.06832,0.08296,0.08784,0.03904,0.01952,0.01464
0.05368,-0.07564,0.0976,0.07076,0.04392,0.00488,0.06832,0.0976,0.0976,0.04392,0.01952,0.01952
0.05368,-0.0854,0.11712,0.09028,0.06344,-0.00488,0.06832,0.08784,0.0976,0.04392,0.0244,0.01464
0.05368,-0.09028,0.12688,0.10004,0.0732,-0.00976,0.06832,0.09272,0.10248,0.05368,0.0244,0.0244
0.07808,-0.11224,0.1464,0.10736,0.06832,0.00488,0.03904,0.08296,0.11224,0.06344,0.03416,0.02928
0.10248,-0.1342,0.16592,0.11468,0.06344,0.01952,-0.01952,0.05368,0.11224,0.07808,0.0488,0.05368
0.122,-0.14884,0.17568,0.11468,0.05368,0.03416,-0.07808,0.02928,0.11224,0.08784,0.0732,0.06832
0.13664,-0.15616,0.17568,0.10736,0.03904,0.0488,-0.0732,0.03416,0.11224,0.08784,0.06832,0.06832
0.122,-0.14396,0.16592,0.10492,0.04392,0.03904,-0.07808,0.00976,0.08296,0.06344,0.0488,0.06344
0.11224,-0.13664,0.16104,0.10492,0.0488,0.03172,-0.0732,0,0.06832,0.04392,0.04392,0.05856
0.10736,-0.12932,0.15128,0.0976,0.04392,0.03172,-0.05856,0.00488,0.06832,0.05368,0.03416,0.05856
0.10736,-0.12444,0.14152,0.08784,0.03416,0.0366,-0.0488,0.00488,0.05856,0.0488,0.03416,0.05856
0.12688,-0.1342,0.14152,0.07808,0.01464,0.05612,-0.0488,0.00976,0.05856,0.05368,0.03904,0.05368
0.12688,-0.13176,0.13664,0.0732,0.00976,0.05856,-0.03904,0.01464,0.06344,0.05856,0.03904,0.05368
0.10736,-0.10248,0.0976,0.04392,-0.00976,0.05856,-0.01952,0.03416,0.06344,0.04392,0.04392,0.05368
0.08784,-0.08296,0.07808,0.03416,-0.00976,0.0488,-0.00488,0.03416,0.05368,0.02928,0.02928,0.0488
0.05368,-0.061,0.06832,0.04148,0.01464,0.01952,0.00976,0.01952,0.03416,0.00976,0.00976,0.01952
0.03904,-0.04392,0.0488,0.02928,0.00976,0.01464,0.01952,0.01952,0.02928,0,0,0
0.01952,-0.01708,0.01464,0.00488,-0.00488,0.0122,0.04392,0.01952,0.01952,0,-0.00976,-0.0244
-0.00488,0.00488,-0.00488,-0.00244,0,-0.00244,0.05368,0.01952,0.01952,-0.00488,-0.01464,-0.03416
0,0.00976,-0.01952,-0.01952,-0.01952,0.00976,0.02928,0.00976,0,-0.01464,-0.02928,-0.04392
-0.00488,0.01708,-0.02928,-0.02684,-0.0244,0.00976,0.01952,-0.00488,0,-0.01464,-0.0488,-0.05368
0,0.0122,-0.0244,-0.0244,-0.0244,0.0122,0.02928,-0.00488,0.00488,-0.01464,-0.0488,-0.05856
0.01464,-0.00244,-0.00976,-0.01708,-0.0244,0.01952,0.03416,0,0.00976,-0.01464,-0.0488,-0.06344
0.0244,-0.0122,0,-0.0122,-0.0244,0.0244,0.04392,0.00976,0.00488,-0.01464,-0.03904,-0.0488
0.02928,-0.01708,0.00488,-0.00976,-0.0244,0.02684,0.0488,0.01952,0.00488,-0.01464,-0.03904,-0.03904
0.00976,0,-0.00976,-0.01464,-0.01952,0.01464,0.04392,0.00976,0.01464,-0.00488,-0.04392,-0.03904
-0.01464,0.01952,-0.0244,-0.01708,-0.00976,-0.00244,0.04392,0.01464,0.01952,-0.00488,-0.0488,-0.03904
-0.00488,0.01952,-0.03416,-0.03172,-0.02928,0.0122,0.05368,0.0244,0,-0.0244,-0.03904,-0.0488
0.00976,0.01952,-0.0488,-0.05368,-0.05856,0.03416,0.06832,0.03904,-0.00976,-0.03416,-0.05856,-0.05368
0.00488,0.04636,-0.0976,-0.10004,-0.10248,0.05368,0.11224,0.09272,-0.01464,-0.05856,-0.09272,-0.0976
-0.00976,0.05856,-0.10736,-0.10248,-0.0976,0.04392,0.16592,0.14152,0.01464,-0.03904,-0.0976,-0.0976
0.01464,0.00488,-0.0244,-0.03172,-0.03904,0.02684,0.18056,0.22936,0.122,0.0488,-0.03416,-0.06832
0.0732,-0.05612,0.03904,0.00244,-0.03416,0.05368,0.25376,0.47336,0.29768,0.22448,0.07808,-0.00488
0.25376,-0.22692,0.20008,0.0732,-0.05368,0.15372,0.36112,0.8296,0.5856,0.47824,0.22448,0.122
0.57584,-0.49532,0.4148,0.12688,-0.16104,0.36844,0.16104,0.81496,0.81984,0.80032,0.50752,0.366
0.94184,-0.80032,0.6588,0.18788,-0.28304,0.61244,-0.28304,0.59048,0.98088,1.13216,0.82472,0.67344
1.1224,-0.99552,0.86864,0.30744,-0.25376,0.68808,-0.81984,0.06832,0.9028,1.24928,1.0492,0.9272
1.07848,-1.01016,0.94184,0.4026,-0.13664,0.60756,-1.08824,-0.35136,0.6588,1.098,1.0736,1.03944
0.74176,-0.83448,0.9272,0.55632,0.18544,0.27816,-1.06872,-0.74664,0.23912,0.69296,0.93208,1.00528
0.25376,-0.427,0.60024,0.47336,0.34648,-0.04636,-0.94672,-1.15168,-0.2684,0.122,0.54656,0.74176
-0.1464,-0.08052,0.30744,0.38064,0.45384,-0.30012,-0.80032,-1.464,-0.7564,-0.3904,0.18544,0.44896
-0.07808,-0.00976,0.0976,0.13664,0.17568,-0.12688,-0.70272,-1.14192,-0.69296,-0.41968,0.04392,0.28304
-0.03416,0.01952,-0.00488,0.0122,0.02928,-0.03172,-0.60024,-0.91744,-0.59536,-0.40016,-0.06344,0.14152
-0.01952,0.05368,-0.08784,-0.07808,-0.06832,0.0244,-0.32208,-0.52216,-0.41968,-0.31232,-0.0976,0.05856
0.0244,0.00244,-0.02928,-0.04148,-0.05368,0.03904,-0.1464,-0.23912,-0.20984,-0.16592,-0.05856,0.01952
0.00976,-0.00244,-0.00488,-0.00976,-0.01464,0.0122,-0.0488,-0.11712,-0.10248,-0.11224,-0.06344,-0.01464
-0.0244,0.0122,0,0.0122,0.0244,-0.0244,-0.03416,-0.08784,-0.0732,-0.0732,-0.0488,-0.01952
-0.00488,-0.00244,0.00976,0.0122,0.01464,-0.00976,0.03904,-0.0244,-0.03904,-0.05368,-0.03416,-0.00488
-0.03904,0.04148,-0.04392,-0.0244,-0.00488,-0.01708,0.07808,0.01464,-0.02928,-0.05368,-0.06832,-0.0488
-0.04392,0.0488,-0.05368,-0.03172,-0.00976,-0.01708,0.0732,0.02928,0.00488,-0.03416,-0.04392,-0.03904
-0.01952,0.02684,-0.03416,-0.0244,-0.01464,-0.00244,0.06832,0.0244,0.00488,-0.0244,-0.03416,-0.03416
0.00976,-0.00488,0,-0.00488,-0.00976,0.00976,0.0732,0.02928,0.00488,-0.01952,-0.03904,-0.03416
0.01464,-0.00732,0,-0.00732,-0.01464,0.01464,0.09272,0.04392,0.00488,-0.01952,-0.0488,-0.04392
0,0.00976,-0.01952,-0.01952,-0.01952,0.00976,0.08784,0.0488,0.01464,-0.02928,-0.0488,-0.05368
-0.01952,0.01952,-0.01952,-0.00976,0,-0.00976,0.08296,0.0488,0.01952,-0.01464,-0.04392,-0.05856
-0.0244,0.0244,-0.0244,-0.0122,0,-0.0122,0.08296,0.0488,0.00976,-0.01952,-0.04392,-0.06344
-0.01464,0.01708,-0.01952,-0.0122,-0.00488,-0.00488,0.08296,0.0488,0,-0.02928,-0.05368,-0.05856
-0.00488,0.0122,-0.01952,-0.01708,-0.01464,0.00488,0.09272,0.0732,0,-0.02928,-0.0488,-0.05368
-0.00488,0.00976,-0.01464,-0.0122,-0.00976,0.00244,0.0976,0.0732,0.0244,-0.01464,-0.03904,-0.0488
0,0.00732,-0.01464,-0.01464,-0.01464,0.00732,0.09272,0.0732,0.0244,0.00488,-0.03416,-0.03416
0.00976,0.00244,-0.01464,-0.01952,-0.0244,0.01708,0.09272,0.0732,0.0244,0.00488,-0.0244,-0.03416
0,0.00488,-0.00976,-0.00976,-0.00976,0.00488,0.09272,0.06344,0.02928,0,-0.03416,-0.04392
0,0.00244,-0.00488,-0.00488,-0.00488,0.00244,0.08784,0.06344,0.03416,0.00488,-0.02928,-0.04392
0.01464,-0.00488,-0.00488,-0.0122,-0.01952,0.01708,0.0732,0.05368,0.02928,0,-0.03904,-0.05368
0.00488,0,-0.00488,-0.00732,-0.00976,0.00732,0.06344,0.05368,0.01952,-0.00976,-0.03904,-0.05368
0,0.00732,-0.01464,-0.01464,-0.01464,0.00732,0.05368,0.05368,0.01464,-0.00976,-0.04392,-0.05368
0,0.00976,-0.01952,-0.01952,-0.01952,0.00976,0.06344,0.05368,0.01464,-0.00488,-0.03904,-0.05368
0.00488,0.00244,-0.00976,-0.0122,-0.01464,0.00976,0.06344,0.05856,0.01464,-0.00488,-0.03904,-0.03904
0.01952,-0.00976,0,-0.00976,-0.01952,0.01952,0.06344,0.05856,0.00976,-0.00488,-0.03904,-0.04392
0.03904,-0.02196,0.00488,-0.01464,-0.03416,0.0366,0.06344,0.04392,0.00976,-0.00488,-0.03904,-0.04392
0.03904,-0.0244,0.00976,-0.00976,-0.02928,0.03416,0.05856,0.0488,0.00976,-0.00976,-0.04392,-0.04392
0.02928,-0.01708,0.00488,-0.00976,-0.0244,0.02684,0.06344,0.05856,0.01952,-0.00976,-0.05368,-0.04392
0.00976,-0.00976,0.00976,0.00488,0,0.00488,0.05856,0.05856,0.01464,-0.01952,-0.05368,-0.04392
-0.00976,0.00732,-0.00488,0,0.00488,-0.00732,0.06832,0.05856,0.01464,-0.01464,-0.04392,-0.03416
-0.00488,0.00488,-0.00488,-0.00244,0,-0.00244,0.06832,0.06344,0.00976,-0.01464,-0.04392,-0.03416
-0.00488,0.00488,-0.00488,-0.00244,0,-0.00244,0.06832,0.06344,0,-0.01952,-0.04392,-0.04392
-0.00488,0.00488,-0.00488,-0.00244,0,-0.00244,0.06344,0.05856,-0.00976,-0.0244,-0.04392,-0.0488
0.00488,0,-0.00488,-0.00732,-0.00976,0.00732,0.0488,0.05856,-0.01464,-0.0244,-0.05856,-0.05856
0,0.00732,-0.01464,-0.01464,-0.01464,0.00732,0.0488,0.05856,-0.01464,-0.03416,-0.05856,-0.06344
0.00976,0.00244,-0.01464,-0.01952,-0.0244,0.01708,0.05856,0.06344,-0.01952,-0.03904,-0.05856,-0.06344
0.01952,-0.00244,-0.01464,-0.0244,-0.03416,0.02684,0.05856,0.06344,-0.02928,-0.04392,-0.06832,-0.0732
0.01952,0,-0.01952,-0.02928,-0.03904,0.02928,0.05856,0.05856,-0.0244,-0.05368,-0.06344,-0.06832
0.01952,0,-0.01952,-0.02928,-0.03904,0.02928,0.05856,0.05856,-0.03416,-0.06344,-0.0732,-0.06832
0.00976,0.01464,-0.03904,-0.04392,-0.0488,0.02928,0.0488,0.04392,-0.0488,-0.08296,-0.08296,-0.08296
0.00488,0.02196,-0.0488,-0.05124,-0.05368,0.02928,0.04392,0.03416,-0.06832,-0.09272,-0.10248,-0.09272
0.00976,0.0244,-0.05856,-0.06344,-0.06832,0.03904,0.03416,0.0244,-0.08296,-0.122,-0.10736,-0.08784
0.00488,0.03416,-0.0732,-0.07564,-0.07808,0.04148,0.03416,0.01952,-0.0976,-0.13176,-0.11712,-0.09272
-0.01952,0.0488,-0.07808,-0.06832,-0.05856,0.01952,0.0488,0.01952,-0.10248,-0.13176,-0.122,-0.09272
-0.03416,0.05856,-0.08296,-0.06588,-0.0488,0.00732,0.05368,0.00976,-0.11224,-0.1464,-0.13176,-0.09272
-0.0488,0.06344,-0.07808,-0.05368,-0.02928,-0.00976,0.05856,-0.00976,-0.13664,-0.1708,-0.1464,-0.10736
-0.0488,0.06588,-0.08296,-0.05856,-0.03416,-0.00732,0.06344,-0.01952,-0.15128,-0.17568,-0.1464,-0.10736
-0.03904,0.07076,-0.10248,-0.08296,-0.06344,0.0122,0.0488,-0.02928,-0.16592,-0.1952,-0.1464,-0.10248
-0.0488,0.07808,-0.10736,-0.08296,-0.05856,0.00488,0.0488,-0.04392,-0.1708,-0.19032,-0.1464,-0.10736
-0.05856,0.0854,-0.11224,-0.08296,-0.05368,-0.00244,0.0488,-0.05856,-0.19032,-0.20984,-0.16104,-0.11712
-0.0732,0.09272,-0.11224,-0.07564,-0.03904,-0.01708,0.04392,-0.06344,-0.1952,-0.2196,-0.1708,-0.11712
-0.07808,0.09516,-0.11224,-0.0732,-0.03416,-0.02196,0.04392,-0.06832,-0.2196,-0.22936,-0.18544,-0.13176
-0.07808,0.0976,-0.11712,-0.07808,-0.03904,-0.01952,0.04392,-0.0732,-0.22448,-0.22936,-0.18544,-0.13176
-0.0732,0.0854,-0.0976,-0.061,-0.0244,-0.0244,0.04392,-0.08296,-0.2196,-0.23912,-0.18056,-0.122
-0.06344,0.07808,-0.09272,-0.061,-0.02928,-0.01708,0.04392,-0.08296,-0.2196,-0.23912,-0.18056,-0.122
-0.06832,0.07808,-0.08784,-0.05368,-0.01952,-0.0244,0.05368,-0.08296,-0.21472,-0.24888,-0.17568,-0.12688
-0.06344,0.07808,-0.09272,-0.061,-0.02928,-0.01708,0.05368,-0.08296,-0.21472,-0.23424,-0.16592,-0.12688
-0.06832,0.07076,-0.0732,-0.03904,-0.00488,-0.03172,0.04392,-0.0732,-0.20008,-0.2196,-0.16592,-0.11224
-0.06344,0.06588,-0.06832,-0.0366,-0.00488,-0.02928,0.04392,-0.06344,-0.18544,-0.1952,-0.15128,-0.10248
-0.05368,0.06344,-0.0732,-0.04636,-0.01952,-0.01708,0.02928,-0.06344,-0.17568,-0.18056,-0.14152,-0.09272
-0.04392,0.05124,-0.05856,-0.0366,-0.01464,-0.01464,0.02928,-0.06344,-0.15616,-0.1708,-0.13176,-0.08296
-0.04392,0.04636,-0.0488,-0.02684,-0.00488,-0.01952,0.03904,-0.0488,-0.12688,-0.1464,-0.11224,-0.06344
-0.04392,0.03904,-0.03416,-0.0122,0.00976,-0.02684,0.03904,-0.03904,-0.11224,-0.12688,-0.0976,-0.05856
-0.02928,0.01952,-0.00976,0.00488,0.01952,-0.0244,0.03904,-0.03416,-0.09272,-0.11224,-0.0732,-0.03904
-0.00976,0.00244,0.00488,0.00976,0.01464,-0.0122,0.03904,-0.00976,-0.05856,-0.08296,-0.06344,-0.02928
-0.01952,0.00732,0.00488,0.01464,0.0244,-0.02196,0.03416,-0.00976,-0.0488,-0.0732,-0.06344,-0.03904
-0.02928,0.01464,0,0.01464,0.02928,-0.02928,0.03904,-0.00976,-0.0488,-0.06344,-0.05368,-0.02928
-0.0244,0.01464,-0.00488,0.00732,0.01952,-0.02196,0.02928,-0.01464,-0.04392,-0.06344,-0.0488,-0.02928
-0.02928,0.01708,-0.00488,0.00976,0.0244,-0.02684,0.02928,-0.00976,-0.03416,-0.05368,-0.03904,-0.0244
-0.04392,0.01708,0.00976,0.03172,0.05368,-0.0488,0.03904,-0.00976,-0.03416,-0.05368,-0.03904,-0.0244
-0.04392,0.01708,0.00976,0.03172,0.05368,-0.0488,0.04392,-0.00488,-0.03416,-0.05368,-0.04392,-0.0244
-0.0488,0.02196,0.00488,0.02928,0.05368,-0.05124,0.0488,-0.01464,-0.03416,-0.05856,-0.05368,-0.02928
-0.05856,0.02684,0.00488,0.03416,0.06344,-0.061,0.0488,-0.01464,-0.03416,-0.05856,-0.05368,-0.03904
-0.0488,0.01708,0.01464,0.03904,0.06344,-0.05612,0.05368,-0.00976,-0.0244,-0.06344,-0.04392,-0.04392
-0.04392,0.01464,0.01464,0.0366,0.05856,-0.05124,0.05856,-0.00976,-0.0244,-0.06344,-0.0488,-0.04392
-0.05856,0.02196,0.01464,0.04392,0.0732,-0.06588,0.05856,0.00488,-0.00488,-0.03904,-0.03904,-0.02928
-0.03904,0.00488,0.02928,0.0488,0.06832,-0.05368,0.05856,0.00976,-0.00976,-0.03904,-0.03416,-0.0244
-0.02928,-0.00488,0.03904,0.05368,0.06832,-0.0488,0.06832,0.01952,0,-0.03904,-0.02928,-0.02928
-0.02928,-0.00488,0.03904,0.05368,0.06832,-0.0488,0.06832,0.01952,0,-0.03904,-0.02928,-0.02928
-0.03904,0.00488,0.02928,0.0488,0.06832,-0.05368,0.07808,0.02928,0.00976,-0.0244,-0.01952,-0.01952
-0.04392,0.00732,0.02928,0.05124,0.0732,-0.05856,0.07808,0.02928,0.00976,-0.01464,-0.01952,-0.00976
-0.05368,0.01464,0.0244,0.05124,0.07808,-0.06588,0.06344,0.02928,0.00976,-0.0244,-0.02928,-0.00976
-0.04392,0.0122,0.01952,0.04148,0.06344,-0.05368,0.0488,0.02928,0,-0.02928,-0.02928,-0.01952
-0.03904,0.00976,0.01952,0.03904,0.05856,-0.0488,0.05856,0.03416,0.00488,-0.02928,-0.01952,-0.01464
-0.0244,-0.00732,0.03904,0.05124,0.06344,-0.04392,0.06344,0.04392,0.0244,-0.00488,-0.00976,-0.00488
-0.00976,-0.0244,0.05856,0.06344,0.06832,-0.03904,0.0732,0.05856,0.02928,0,0.00488,0
0.00488,-0.03904,0.0732,0.07076,0.06832,-0.03172,0.07808,0.06832,0.03904,0.00976,0.00488,0.00976
0.00488,-0.05124,0.0976,0.09516,0.09272,-0.04392,0.07808,0.06832,0.05368,0.0244,0.00488,0.00488
0.01952,-0.05856,0.0976,0.08784,0.07808,-0.02928,0.05856,0.0732,0.06344,0.02928,0.01464,0.01464
0.03416,-0.06832,0.10248,0.0854,0.06832,-0.01708,0.0488,0.0732,0.06344,0.03904,0.0244,0.0244
0.03904,-0.07564,0.11224,0.09272,0.0732,-0.01708,0.0488,0.0732,0.06832,0.04392,0.02928,0.0244
0.03904,-0.08296,0.12688,0.10736,0.08784,-0.0244,0.05856,0.08784,0.09272,0.05368,0.03416,0.03904
0.0488,-0.09272,0.13664,0.11224,0.08784,-0.01952,0.05856,0.08784,0.0976,0.0732,0.0488,0.04392
0.05368,-0.10004,0.1464,0.11956,0.09272,-0.01952,0.05368,0.08296,0.10736,0.08784,0.06832,0.05368
0.06832,-0.11956,0.1708,0.13664,0.10248,-0.01708,0.01464,0.07808,0.11224,0.10248,0.08784,0.0732
0.0732,-0.12932,0.18544,0.14884,0.11224,-0.01952,-0.05368,0.04392,0.10248,0.10736,0.08296,0.09272
0.08296,-0.1342,0.18544,0.14396,0.10248,-0.00976,-0.07808,0.0244,0.10248,0.10736,0.09272,0.0976
0.09272,-0.13908,0.18544,0.13908,0.09272,0,-0.06832,0.01464,0.09272,0.09272,0.08784,0.10248
0.09272,-0.1342,0.17568,0.12932,0.08296,0.00488,-0.06344,0,0.0732,0.0732,0.0732,0.08784
0.0976,-0.12932,0.16104,0.11224,0.06344,0.01708,-0.05856,0.00488,0.05856,0.06344,0.06832,0.07808
0.0976,-0.12444,0.15128,0.10248,0.05368,0.02196,-0.05856,0.00488,0.05368,0.05856,0.06344,0.07808
0.11712,-0.1342,0.15128,0.09272,0.03416,0.04148,-0.04392,0.00976,0.05856,0.0732,0.0732,0.08784
0.11712,-0.1342,0.15128,0.09272,0.03416,0.04148,-0.03416,0.0244,0.06344,0.07808,0.07808,0.09272
0.10736,-0.12444,0.14152,0.08784,0.03416,0.0366,-0.0244,0.01952,0.05368,0.06832,0.06832,0.08784
0.0732,-0.08784,0.10248,0.06588,0.02928,0.02196,-0.01464,0.0244,0.0488,0.05856,0.05368,0.06344
0.03416,-0.05856,0.08296,0.06588,0.0488,-0.00732,0.00976,0.01464,0.0244,0.03416,0.0244,0.0488
0.00488,-0.02684,0.0488,0.04636,0.04392,-0.01952,0.01952,0.00976,0.00976,0.01464,0.00976,0.03416
0,-0.0122,0.0244,0.0244,0.0244,-0.0122,0.03416,0.00976,0.00976,0.00488,0,0.00488
0,-0.00732,0.01464,0.01464,0.01464,-0.00732,0.03416,0.00976,0.01464,0,-0.01464,-0.00976
