i,aVR,ii,aVF,iii,aVL,V1,V2,V3,V4,V5,V6
-0.02928,0.02928,-0.02928,-0.01464,0,-0.01464,-0.01952,-0.06344,-0.06344,-0.04392,-0.03904,-0.05368
-0.0244,0.02928,-0.03416,-0.02196,-0.00976,-0.00732,-0.01952,-0.06832,-0.05856,-0.05368,-0.05368,-0.05368
-0.03416,0.03416,-0.03416,-0.01708,0,-0.01708,-0.01952,-0.0732,-0.06344,-0.05856,-0.05856,-0.05856
-0.03416,0.0366,-0.03904,-0.02196,-0.00488,-0.01464,-0.01464,-0.0732,-0.0732,-0.06344,-0.05856,-0.06344
-0.03416,0.03416,-0.03416,-0.01708,0,-0.01708,-0.01952,-0.08784,-0.07808,-0.07808,-0.06344,-0.0732
-0.0488,0.0488,-0.0488,-0.0244,0,-0.0244,-0.01952,-0.08296,-0.10248,-0.0976,-0.08784,-0.08296
-0.05368,0.05368,-0.05368,-0.02684,0,-0.02684,-0.0244,-0.09272,-0.11224,-0.10736,-0.0976,-0.08296
-0.0488,0.05612,-0.06344,-0.03904,-0.01464,-0.01708,-0.03416,-0.0976,-0.11224,-0.10736,-0.0976,-0.09272
-0.0488,0.05612,-0.06344,-0.03904,-0.01464,-0.01708,-0.03416,-0.09272,-0.11224,-0.10736,-0.09272,-0.09272
-0.0488,0.05124,-0.05368,-0.02928,-0.00488,-0.02196,-0.0244,-0.08296,-0.09272,-0.09272,-0.08784,-0.08296
-0.0488,0.04392,-0.03904,-0.01464,0.00976,-0.02928,-0.0244,-0.08296,-0.09272,-0.09272,-0.08784,-0.08296
-0.04392,0.0488,-0.05368,-0.03172,-0.00976,-0.01708,-0.01952,-0.08296,-0.09272,-0.08784,-0.08784,-0.08296
-0.0488,0.05368,-0.05856,-0.03416,-0.00976,-0.01952,-0.01952,-0.08296,-0.09272,-0.08784,-0.08784,-0.08296
-0.0488,0.05368,-0.05856,-0.03416,-0.00976,-0.01952,-0.01952,-0.07808,-0.0976,-0.0732,-0.07808,-0.0732
-0.0488,0.05368,-0.05856,-0.03416,-0.00976,-0.01952,-0.01952,-0.06832,-0.0976,-0.07808,-0.07808,-0.0732
-0.0488,0.05124,-0.05368,-0.02928,-0.00488,-0.02196,-0.00488,-0.0488,-0.06344,-0.07808,-0.08784,-0.08784
-0.0488,0.05856,-0.06832,-0.04392,-0.01952,-0.01464,0.06832,0.06832,0.00976,-0.0488,-0.11712,-0.13176
-0.0732,0.07076,-0.06832,-0.03172,0.00488,-0.03904,0.18544,0.25864,0.15616,0.03904,-0.11224,-0.16592
-0.05856,0.03172,-0.00488,0.0244,0.05368,-0.05612,0.26352,0.45384,0.35136,0.20496,-0.03904,-0.14152
0.0488,-0.08052,0.11224,0.08784,0.06344,-0.00732,0.33672,0.76616,0.71248,0.54168,0.2196,-0.00488
0.26352,-0.27328,0.28304,0.15128,0.01952,0.122,0.28304,0.95648,1.03456,0.9516,0.6344,0.27328
0.50264,-0.41968,0.33672,0.0854,-0.16592,0.33428,0.10248,0.74176,1.02968,1.16144,0.99064,0.57584
0.70272,-0.57828,0.45384,0.10248,-0.24888,0.4758,-0.21472,0.18544,0.73688,1.16632,1.28832,0.91256
0.732,-0.68808,0.64416,0.27816,-0.08784,0.40992,-0.49288,-0.43432,0.36112,1.0492,1.44936,1.13704
0.488,-0.60268,0.71736,0.47336,0.22936,0.12932,-0.55632,-0.88816,-0.09272,0.6588,1.2444,1.098
0.2928,-0.4148,0.5368,0.3904,0.244,0.0244,-0.50752,-1.07848,-0.49776,0.15128,0.78568,0.83448
0.0244,-0.14152,0.25864,0.24644,0.23424,-0.10492,-0.53192,-1.464,-1.15656,-0.69296,0.00976,0.40016
-0.20008,0.08296,0.03416,0.1342,0.23424,-0.21716,-0.5368,-1.55184,-1.38104,-1.0736,-0.43432,0.04392
-0.2684,0.1586,-0.0488,0.0854,0.2196,-0.244,-0.49288,-1.42008,-1.27368,-0.99552,-0.47824,-0.0732
-0.25376,0.18056,-0.10736,0.01952,0.1464,-0.20008,-0.46848,-1.25416,-1.14192,-0.93208,-0.48312,-0.11712
-0.25864,0.19032,-0.122,0.00732,0.13664,-0.19764,-0.39528,-1.0004,-0.93696,-0.79544,-0.47336,-0.15616
-0.20496,0.15372,-0.10248,0,0.10248,-0.15372,-0.35136,-0.77104,-0.70272,-0.60024,-0.38552,-0.1464
-0.13176,0.08296,-0.03416,0.03172,0.0976,-0.11468,-0.31232,-0.5856,-0.52216,-0.44896,-0.2684,-0.11224
-0.0976,0.05856,-0.01952,0.02928,0.07808,-0.08784,-0.23424,-0.41968,-0.40016,-0.33184,-0.1952,-0.08296
-0.08296,0.05612,-0.02928,0.0122,0.05368,-0.06832,-0.13176,-0.24888,-0.244,-0.23424,-0.15616,-0.0732
-0.0732,0.05368,-0.03416,0.00244,0.03904,-0.05612,-0.07808,-0.15616,-0.15128,-0.1708,-0.14152,-0.07808
-0.0732,0.07076,-0.06832,-0.03172,0.00488,-0.03904,-0.05856,-0.12688,-0.12688,-0.13664,-0.11224,-0.08296
-0.05856,0.05856,-0.05856,-0.02928,0,-0.02928,-0.0488,-0.10736,-0.122,-0.13176,-0.08784,-0.06832
-0.05856,0.05368,-0.0488,-0.01952,0.00976,-0.03416,-0.03904,-0.09272,-0.10248,-0.11712,-0.10248,-0.0732
-0.05368,0.05612,-0.05856,-0.03172,-0.00488,-0.0244,-0.01952,-0.05368,-0.0732,-0.10736,-0.10736,-0.07808
-0.05368,0.05856,-0.06344,-0.0366,-0.00976,-0.02196,-0.01464,-0.0488,-0.06344,-0.09272,-0.10736,-0.08296
-0.05368,0.06344,-0.0732,-0.04636,-0.01952,-0.01708,-0.01464,-0.0488,-0.06832,-0.08784,-0.0976,-0.07808
-0.05368,0.05856,-0.06344,-0.0366,-0.00976,-0.02196,-0.01464,-0.03904,-0.06832,-0.08296,-0.0976,-0.08784
-0.05368,0.05856,-0.06344,-0.0366,-0.00976,-0.02196,-0.00488,-0.01952,-0.0488,-0.07808,-0.09272,-0.08784
-0.04392,0.0488,-0.05368,-0.03172,-0.00976,-0.01708,-0.00976,-0.01952,-0.0488,-0.08296,-0.10248,-0.08784
-0.04392,0.0488,-0.05368,-0.03172,-0.00976,-0.01708,-0.00976,-0.01464,-0.0488,-0.07808,-0.0976,-0.08784
-0.03904,0.0488,-0.05856,-0.03904,-0.01952,-0.00976,-0.00976,-0.01464,-0.0488,-0.0732,-0.08784,-0.08784
-0.03416,0.04636,-0.05856,-0.04148,-0.0244,-0.00488,-0.00976,0,-0.04392,-0.0732,-0.08784,-0.08784
-0.04392,0.05368,-0.06344,-0.04148,-0.01952,-0.0122,-0.00488,0.00488,-0.0244,-0.06832,-0.08296,-0.08296
-0.04392,0.05368,-0.06344,-0.04148,-0.01952,-0.0122,-0.00488,0.00976,-0.0244,-0.06344,-0.07808,-0.08296
-0.04392,0.05368,-0.06344,-0.04148,-0.01952,-0.0122,0.00976,0.00488,-0.0244,-0.05368,-0.07808,-0.0732
-0.04392,0.05124,-0.05856,-0.0366,-0.01464,-0.01464,0.00976,0.00488,-0.0244,-0.05368,-0.0732,-0.0732
-0.03904,0.05124,-0.06344,-0.04392,-0.0244,-0.00732,0,0.01952,-0.01952,-0.0488,-0.0732,-0.06832
-0.03904,0.0488,-0.05856,-0.03904,-0.01952,-0.00976,0.00488,0.0244,-0.00976,-0.04392,-0.06832,-0.06832
-0.02928,0.04148,-0.05368,-0.03904,-0.0244,-0.00244,0.00488,0.0244,-0.00488,-0.02928,-0.06832,-0.06832
-0.0244,0.03904,-0.05368,-0.04148,-0.02928,0.00244,0.00488,0.03416,0,-0.0244,-0.06344,-0.06832
-0.03416,0.04392,-0.05368,-0.0366,-0.01952,-0.00732,0.00976,0.03904,0.00976,-0.02928,-0.06344,-0.07808
-0.02928,0.04148,-0.05368,-0.03904,-0.0244,-0.00244,0.00488,0.04392,0.00976,-0.02928,-0.06344,-0.07808
-0.01952,0.03416,-0.0488,-0.03904,-0.02928,0.00488,0.01952,0.06344,0.01464,-0.01952,-0.05856,-0.0732
-0.01952,0.03416,-0.0488,-0.03904,-0.02928,0.00488,0.01952,0.0732,0.02928,-0.01952,-0.05368,-0.0732
-0.01464,0.0244,-0.03416,-0.02684,-0.01952,0.00244,0.01464,0.0732,0.02928,-0.00488,-0.05368,-0.0732
-0.01464,0.0244,-0.03416,-0.02684,-0.01952,0.00244,0.01464,0.08296,0.03416,0.00488,-0.0488,-0.06832
-0.00976,0.0244,-0.03904,-0.03416,-0.02928,0.00976,0.01952,0.08784,0.05856,0.00488,-0.03416,-0.05856
-0.00976,0.0244,-0.03904,-0.03416,-0.02928,0.00976,0.0244,0.10248,0.06832,0.00976,-0.0244,-0.05368
-0.00976,0.0244,-0.03904,-0.03416,-0.02928,0.00976,0.0244,0.11712,0.07808,0.01952,-0.02928,-0.0488
-0.00488,0.01952,-0.03416,-0.03172,-0.02928,0.0122,0.02928,0.13176,0.08784,0.0244,-0.02928,-0.0488
-0.00976,0.0244,-0.03904,-0.03416,-0.02928,0.00976,0.03416,0.14152,0.10248,0.03904,-0.02928,-0.05856
-0.00488,0.01952,-0.03416,-0.03172,-0.02928,0.0122,0.03416,0.15616,0.11224,0.0488,-0.02928,-0.05368
0.00976,0.00488,-0.01952,-0.0244,-0.02928,0.01952,0.04392,0.18056,0.122,0.06832,-0.01464,-0.03904
0.00976,0.00488,-0.01952,-0.0244,-0.02928,0.01952,0.0488,0.20008,0.14152,0.08296,-0.00488,-0.03904
0.00488,0,-0.00488,-0.00732,-0.00976,0.00732,0.05856,0.20496,0.15616,0.08296,0.00488,-0.03416
0.01464,-0.00976,0.00488,-0.00244,-0.00976,0.0122,0.05856,0.22448,0.17568,0.0976,0.00488,-0.03416
0.01464,-0.00976,0.00488,-0.00244,-0.00976,0.0122,0.06832,0.25864,0.19032,0.11224,0.01952,-0.02928
0.01952,-0.01708,0.01464,0.00488,-0.00488,0.0122,0.06832,0.27816,0.20496,0.12688,0.02928,-0.0244
0.03416,-0.02684,0.01952,0.00244,-0.01464,0.0244,0.0732,0.28792,0.22936,0.1464,0.03904,-0.01464
0.03904,-0.03172,0.0244,0.00488,-0.01464,0.02684,0.08784,0.31232,0.244,0.16104,0.04392,-0.00976
0.03416,-0.02684,0.01952,0.00244,-0.01464,0.0244,0.09272,0.32696,0.25376,0.1708,0.06344,0
0.03904,-0.0366,0.03416,0.01464,-0.00488,0.02196,0.09272,0.34648,0.2684,0.18544,0.06832,0.00488
0.0488,-0.0488,0.0488,0.0244,0,0.0244,0.08784,0.36112,0.2928,0.18544,0.0732,0.01464
0.05368,-0.05612,0.05856,0.03172,0.00488,0.0244,0.09272,0.37088,0.30744,0.20008,0.0732,0.0244
0.05856,-0.05612,0.05368,0.0244,-0.00488,0.03172,0.10736,0.38064,0.30744,0.20984,0.08784,0.02928
0.06344,-0.06344,0.06344,0.03172,0,0.03172,0.10736,0.3904,0.31232,0.20984,0.09272,0.03416
0.05368,-0.06344,0.0732,0.04636,0.01952,0.01708,0.10248,0.39528,0.32208,0.22448,0.0976,0.02928
0.05856,-0.06832,0.07808,0.0488,0.01952,0.01952,0.10248,0.39528,0.32696,0.22936,0.10248,0.02928
0.06832,-0.07076,0.0732,0.03904,0.00488,0.03172,0.10248,0.40016,0.33184,0.2196,0.0976,0.03904
0.06832,-0.0732,0.07808,0.04392,0.00976,0.02928,0.10248,0.40016,0.33184,0.22448,0.0976,0.03904
0.0732,-0.08296,0.09272,0.05612,0.01952,0.02684,0.10248,0.38064,0.32208,0.22448,0.0976,0.04392
0.0732,-0.08296,0.09272,0.05612,0.01952,0.02684,0.09272,0.37088,0.31232,0.20984,0.10248,0.0488
0.0732,-0.0854,0.0976,0.061,0.0244,0.0244,0.09272,0.37088,0.30744,0.20984,0.10248,0.0488
0.0732,-0.08784,0.10248,0.06588,0.02928,0.02196,0.07808,0.34648,0.2928,0.20008,0.10248,0.05368
0.0732,-0.08296,0.09272,0.05612,0.01952,0.02684,0.08296,0.33672,0.28304,0.20496,0.10248,0.04392
0.06832,-0.08052,0.09272,0.05856,0.0244,0.02196,0.0732,0.30744,0.26352,0.1952,0.0976,0.04392
0.05856,-0.07808,0.0976,0.06832,0.03904,0.00976,0.06832,0.28304,0.25864,0.1952,0.10736,0.05856
0.05368,-0.0732,0.09272,0.06588,0.03904,0.00732,0.05856,0.25864,0.23912,0.18544,0.10248,0.05856
0.05368,-0.07808,0.10248,0.07564,0.0488,0.00244,0.05368,0.22936,0.20984,0.1708,0.10248,0.05368
0.05368,-0.07564,0.0976,0.07076,0.04392,0.00488,0.03904,0.1952,0.1952,0.15616,0.09272,0.0488
0.04392,-0.061,0.07808,0.05612,0.03416,0.00488,0.04392,0.1708,0.16592,0.13176,0.08296,0.03904
0.04392,-0.061,0.07808,0.05612,0.03416,0.00488,0.03416,0.14152,0.1464,0.11712,0.07808,0.02928
0.03416,-0.05124,0.06832,0.05124,0.03416,0,0.0244,0.11712,0.12688,0.0976,0.05856,0.03416
0.0244,-0.04636,0.06832,0.05612,0.04392,-0.00976,0.01464,0.0976,0.10736,0.07808,0.0488,0.0244
0.01952,-0.03904,0.05856,0.0488,0.03904,-0.00976,0.01464,0.08784,0.09272,0.0732,0.03904,0.01952
0.00976,-0.02928,0.0488,0.04392,0.03904,-0.01464,0.01464,0.06832,0.0732,0.05856,0.02928,0.01464
0.00488,-0.0244,0.04392,0.04148,0.03904,-0.01708,0.00976,0.03904,0.05368,0.05856,0.02928,0.00976
0.00488,-0.02196,0.03904,0.0366,0.03416,-0.01464,0.00488,0.02928,0.0488,0.04392,0.01952,0
-0.00488,-0.00976,0.0244,0.02684,0.02928,-0.01708,0.00976,0.02928,0.03904,0.0244,0.01464,-0.00488
-0.00488,-0.00244,0.00976,0.0122,0.01464,-0.00976,0.00976,0.01952,0.0244,0.01464,0.00976,-0.00488
-0.01464,0.00244,0.00976,0.01708,0.0244,-0.01952,0.00976,-0.00488,0.01464,0.00976,-0.00976,-0.01464
-0.0244,0.00732,0.00976,0.02196,0.03416,-0.02928,0.00488,-0.00976,0.00976,0,-0.00976,-0.01464
-0.01464,0.00732,0,0.00732,0.01464,-0.01464,-0.00488,0,0.00488,0.00976,-0.01464,-0.01464
-0.01464,0.00732,0,0.00732,0.01464,-0.01464,-0.00976,-0.00488,0,0,-0.01952,-0.0244
-0.01952,0.00488,0.00976,0.01952,0.02928,-0.0244,0,-0.01952,-0.00976,-0.01464,-0.02928,-0.03416
-0.01952,0.00488,0.00976,0.01952,0.02928,-0.0244,0,-0.0244,-0.01464,-0.01464,-0.03416,-0.03416
-0.01952,0.00488,0.00976,0.01952,0.02928,-0.0244,-0.00976,-0.0244,-0.01952,-0.01464,-0.03416,-0.04392
-0.01952,0.00976,0,0.00976,0.01952,-0.01952,-0.00976,-0.0244,-0.01952,-0.01464,-0.03904,-0.04392
-0.02928,0.01708,-0.00488,0.00976,0.0244,-0.02684,0,-0.01464,-0.00976,-0.01464,-0.03904,-0.04392
-0.02928,0.01708,-0.00488,0.00976,0.0244,-0.02684,0,-0.01464,-0.00976,-0.01464,-0.03904,-0.04392
-0.02928,0.02196,-0.01464,0,0.01464,-0.02196,0,-0.01464,-0.01952,-0.00976,-0.02928,-0.03416
-0.03416,0.02196,-0.00976,0.00732,0.0244,-0.02928,0,-0.01464,-0.01952,-0.00976,-0.02928,-0.03416
-0.0244,0.01708,-0.00976,0.00244,0.01464,-0.01952,-0.00488,-0.01464,-0.01952,-0.01952,-0.03904,-0.03416
-0.0244,0.01952,-0.01464,-0.00244,0.00976,-0.01708,0,-0.01464,-0.0244,-0.01952,-0.04392,-0.03416
-0.03416,0.01708,0,0.01708,0.03416,-0.03416,0,-0.0244,-0.01952,-0.01952,-0.04392,-0.03416
-0.03416,0.01708,0,0.01708,0.03416,-0.03416,0,-0.0244,-0.0244,-0.0244,-0.04392,-0.03416
-0.03416,0.01708,0,0.01708,0.03416,-0.03416,0,-0.0244,-0.01464,-0.01464,-0.04392,-0.03904
-0.03416,0.01708,0,0.01708,0.03416,-0.03416,0,-0.0244,-0.01464,-0.01464,-0.04392,-0.03904
-0.02928,0.01952,-0.00976,0.00488,0.01952,-0.0244,0,-0.0244,-0.01464,-0.01464,-0.03416,-0.02928
-0.02928,0.01708,-0.00488,0.00976,0.0244,-0.02684,0.00488,-0.0244,-0.01464,-0.01464,-0.0244,-0.02928
-0.0244,0.01464,-0.00488,0.00732,0.01952,-0.02196,-0.00488,-0.01952,-0.01464,-0.01464,-0.03416,-0.03904
-0.0244,0.01708,-0.00976,0.00244,0.01464,-0.01952,0,-0.0244,-0.01464,-0.01464,-0.03416,-0.03904
-0.03416,0.02196,-0.00976,0.00732,0.0244,-0.02928,0,-0.0244,-0.01952,-0.01464,-0.03416,-0.02928
-0.03416,0.02196,-0.00976,0.00732,0.0244,-0.02928,-0.00488,-0.0244,-0.0244,-0.01464,-0.03416,-0.02928
-0.0244,0.00976,0.00488,0.01708,0.02928,-0.02684,-0.00488,-0.03416,-0.03416,-0.0244,-0.0488,-0.03904
-0.0244,0.00976,0.00488,0.01708,0.02928,-0.02684,-0.00488,-0.03416,-0.03416,-0.0244,-0.0488,-0.03904
-0.0244,0.00976,0.00488,0.01708,0.02928,-0.02684,-0.00488,-0.03416,-0.03416,-0.03416,-0.03904,-0.03904
-0.0244,0.00976,0.00488,0.01708,0.02928,-0.02684,-0.00488,-0.03416,-0.03416,-0.03416,-0.03904,-0.03904
-0.0244,0.00976,0.00488,0.01708,0.02928,-0.02684,-0.00976,-0.0244,-0.0244,-0.03904,-0.0488,-0.03904
-0.0244,0.0122,0,0.0122,0.0244,-0.0244,-0.00976,-0.02928,-0.0244,-0.03904,-0.0488,-0.03416
-0.0244,0.00488,0.01464,0.02684,0.03904,-0.03172,-0.00976,-0.02928,-0.03416,-0.03904,-0.05368,-0.03416
-0.0244,0.00488,0.01464,0.02684,0.03904,-0.03172,-0.00976,-0.02928,-0.03416,-0.03904,-0.05368,-0.03904
-0.0244,0.00976,0.00488,0.01708,0.02928,-0.02684,-0.00976,-0.03416,-0.02928,-0.03904,-0.04392,-0.03904
-0.0244,0.00976,0.00488,0.01708,0.02928,-0.02684,-0.01464,-0.03416,-0.03416,-0.04392,-0.04392,-0.03904
-0.0244,0.00976,0.00488,0.01708,0.02928,-0.02684,-0.00976,-0.02928,-0.03416,-0.03416,-0.04392,-0.0488
-0.0244,0.0122,0,0.0122,0.0244,-0.0244,-0.00976,-0.02928,-0.03416,-0.03416,-0.04392,-0.0488
-0.02928,0.0122,0.00488,0.01952,0.03416,-0.03172,-0.00488,-0.03904,-0.03416,-0.03416,-0.0488,-0.0488
-0.02928,0.01464,0,0.01464,0.02928,-0.02928,-0.00488,-0.03904,-0.03904,-0.03904,-0.05368,-0.0488
-0.0244,0.0122,0,0.0122,0.0244,-0.0244,-0.00488,-0.03904,-0.03904,-0.03904,-0.06344,-0.0488
-0.0244,0.0122,0,0.0122,0.0244,-0.0244,-0.00976,-0.03904,-0.04392,-0.04392,-0.06832,-0.03904
-0.03416,0.01464,0.00488,0.02196,0.03904,-0.0366,-0.00976,-0.04392,-0.05368,-0.04392,-0.05856,-0.0488
-0.03416,0.01464,0.00488,0.02196,0.03904,-0.0366,-0.00976,-0.04392,-0.05856,-0.04392,-0.05856,-0.0488
-0.0244,0.01464,-0.00488,0.00732,0.01952,-0.02196,-0.00976,-0.04392,-0.05856,-0.0488,-0.05856,-0.05856
-0.0244,0.01464,-0.00488,0.00732,0.01952,-0.02196,-0.00976,-0.0488,-0.06344,-0.05368,-0.06344,-0.05856
-0.02928,0.01952,-0.00976,0.00488,0.01952,-0.0244,-0.00976,-0.03904,-0.05368,-0.05368,-0.05368,-0.0488
-0.02928,0.01708,-0.00488,0.00976,0.0244,-0.02684,-0.00976,-0.04392,-0.05856,-0.05368,-0.05368,-0.05368
-0.02928,0.0122,0.00488,0.01952,0.03416,-0.03172,-0.00976,-0.04392,-0.05856,-0.05368,-0.06832,-0.04392
-0.0244,0.0122,0,0.0122,0.0244,-0.0244,-0.01464,-0.04392,-0.05856,-0.05856,-0.06344,-0.04392
-0.03416,0.01708,0,0.01708,0.03416,-0.03416,-0.01464,-0.05368,-0.05856,-0.05856,-0.06832,-0.04392
-0.03904,0.01952,0,0.01952,0.03904,-0.03904,-0.01464,-0.05368,-0.06344,-0.05368,-0.06832,-0.04392
-0.02928,0.01708,-0.00488,0.00976,0.0244,-0.02684,-0.01464,-0.05368,-0.06344,-0.06344,-0.07808,-0.05368
-0.02928,0.01708,-0.00488,0.00976,0.0244,-0.02684,-0.01464,-0.05368,-0.06344,-0.06344,-0.07808,-0.05368
-0.02928,0.01464,0,0.01464,0.02928,-0.02928,-0.01464,-0.0488,-0.06344,-0.06344,-0.07808,-0.05368
-0.02928,0.01464,0,0.01464,0.02928,-0.02928,-0.01464,-0.05368,-0.06832,-0.0732,-0.07808,-0.05368
-0.02928,0.01708,-0.00488,0.00976,0.0244,-0.02684,-0.01952,-0.05368,-0.06832,-0.06344,-0.06832,-0.0488
-0.02928,0.01464,0,0.01464,0.02928,-0.02928,-0.01952,-0.05856,-0.06832,-0.06832,-0.0732,-0.0488
-0.03904,0.0244,-0.00976,0.00976,0.02928,-0.03416,-0.01952,-0.05856,-0.06832,-0.06832,-0.0732,-0.05856
-0.03904,0.0244,-0.00976,0.00976,0.02928,-0.03416,-0.01952,-0.05856,-0.0732,-0.0732,-0.07808,-0.06344
-0.03904,0.01952,0,0.01952,0.03904,-0.03904,-0.01952,-0.05856,-0.0732,-0.08296,-0.08784,-0.06344
-0.04392,0.01708,0.00976,0.03172,0.05368,-0.0488,-0.01952,-0.05856,-0.0732,-0.07808,-0.08784,-0.06344
-0.04392,0.0244,-0.00488,0.01708,0.03904,-0.04148,-0.01952,-0.06832,-0.07808,-0.07808,-0.07808,-0.05368
-0.03904,0.01952,0,0.01952,0.03904,-0.03904,-0.01952,-0.06832,-0.07808,-0.07808,-0.08296,-0.05368
-0.04392,0.01708,0.00976,0.03172,0.05368,-0.0488,-0.01952,-0.05856,-0.08296,-0.07808,-0.08296,-0.05856
-0.03904,0.01464,0.00976,0.02928,0.0488,-0.04392,-0.01952,-0.05856,-0.08296,-0.08296,-0.07808,-0.06344
-0.03904,0.01952,0,0.01952,0.03904,-0.03904,-0.01952,-0.05856,-0.08296,-0.09272,-0.08784,-0.06344
-0.03904,0.01952,0,0.01952,0.03904,-0.03904,-0.01464,-0.05856,-0.08296,-0.09272,-0.08296,-0.06344
-0.03904,0.01952,0,0.01952,0.03904,-0.03904,-0.01952,-0.06832,-0.08296,-0.08784,-0.08784,-0.06344
-0.03904,0.01464,0.00976,0.02928,0.0488,-0.04392,-0.01952,-0.06344,-0.07808,-0.08296,-0.08296,-0.06344
-0.03416,0.01708,0,0.01708,0.03416,-0.03416,-0.01464,-0.06832,-0.08296,-0.08784,-0.08296,-0.06344
-0.03416,0.0122,0.00976,0.02684,0.04392,-0.03904,-0.01464,-0.06344,-0.08296,-0.08296,-0.07808,-0.06344
-0.02928,0.01464,0,0.01464,0.02928,-0.02928,-0.0244,-0.06344,-0.08296,-0.09272,-0.07808,-0.06344
-0.02928,0.00976,0.00976,0.0244,0.03904,-0.03416,-0.0244,-0.06344,-0.08296,-0.09272,-0.07808,-0.06344
-0.03416,0.0122,0.00976,0.02684,0.04392,-0.03904,-0.0244,-0.05856,-0.09272,-0.09272,-0.08784,-0.0732
-0.03416,0.0122,0.00976,0.02684,0.04392,-0.03904,-0.02928,-0.06344,-0.08784,-0.0976,-0.0976,-0.0732
-0.03904,0.01952,0,0.01952,0.03904,-0.03904,-0.0244,-0.06344,-0.07808,-0.08784,-0.08784,-0.06832
-0.03416,0.00732,0.01952,0.0366,0.05368,-0.04392,-0.0244,-0.06344,-0.07808,-0.08296,-0.08296,-0.06344
-0.04392,0.01464,0.01464,0.0366,0.05856,-0.05124,-0.01952,-0.05856,-0.08296,-0.08784,-0.08296,-0.05368
-0.03904,0.01464,0.00976,0.02928,0.0488,-0.04392,-0.01952,-0.06832,-0.08784,-0.08784,-0.07808,-0.06832
-0.03904,0.01464,0.00976,0.02928,0.0488,-0.04392,-0.02928,-0.06832,-0.08784,-0.08784,-0.07808,-0.06832
-0.03904,0.01464,0.00976,0.02928,0.0488,-0.04392,-0.02928,-0.06832,-0.08784,-0.08784,-0.07808,-0.06832
-0.03904,0.00488,0.02928,0.0488,0.06832,-0.05368,-0.01952,-0.06344,-0.07808,-0.08296,-0.08784,-0.06832
-0.03904,-0.00244,0.04392,0.06344,0.08296,-0.061,-0.00976,-0.05368,-0.0732,-0.08296,-0.07808,-0.06832
-0.02928,-0.01464,0.05856,0.0732,0.08784,-0.05856,-0.00976,-0.05368,-0.06832,-0.0732,-0.0732,-0.05368
-0.02928,-0.02196,0.0732,0.08784,0.10248,-0.06588,-0.00488,-0.04392,-0.06832,-0.06832,-0.0732,-0.0488
-0.01952,-0.02928,0.07808,0.08784,0.0976,-0.05856,-0.00488,-0.03416,-0.05368,-0.05368,-0.06344,-0.0488
-0.01952,-0.03416,0.08784,0.0976,0.10736,-0.06344,0,-0.0244,-0.0488,-0.05368,-0.06344,-0.0488
-0.01952,-0.03172,0.08296,0.09272,0.10248,-0.061,0.00488,-0.03416,-0.04392,-0.05856,-0.0488,-0.03416
-0.01464,-0.03172,0.07808,0.0854,0.09272,-0.05368,0.00488,-0.02928,-0.03904,-0.06344,-0.0488,-0.03904
-0.00976,-0.02928,0.06832,0.0732,0.07808,-0.04392,-0.01464,-0.02928,-0.0488,-0.06344,-0.05368,-0.03904
0,-0.03416,0.06832,0.06832,0.06832,-0.03416,-0.0244,-0.03416,-0.05368,-0.06344,-0.0488,-0.03904
0,-0.04636,0.09272,0.09272,0.09272,-0.04636,-0.03416,-0.05368,-0.05856,-0.06344,-0.05856,-0.04392
0,-0.05856,0.11712,0.11712,0.11712,-0.05856,-0.03904,-0.05368,-0.05856,-0.05368,-0.05856,-0.02928
0.00976,-0.0732,0.13664,0.13176,0.12688,-0.05856,-0.03904,-0.04392,-0.04392,-0.03904,-0.03416,-0.01952
0.0244,-0.08052,0.13664,0.12444,0.11224,-0.04392,-0.0488,-0.0488,-0.04392,-0.04392,-0.03416,-0.01952
0.0244,-0.07076,0.11712,0.10492,0.09272,-0.03416,-0.04392,-0.03904,-0.04392,-0.04392,-0.03416,-0.01952
0.0244,-0.06832,0.11224,0.10004,0.08784,-0.03172,-0.05368,-0.0488,-0.05368,-0.05368,-0.03904,-0.01952
0.02928,-0.061,0.09272,0.07808,0.06344,-0.01708,-0.05368,-0.06832,-0.07808,-0.0732,-0.05368,-0.02928
0.02928,-0.05612,0.08296,0.06832,0.05368,-0.0122,-0.05856,-0.08784,-0.08784,-0.08296,-0.06832,-0.03416
0.02928,-0.05368,0.07808,0.06344,0.0488,-0.00976,-0.06832,-0.07808,-0.09272,-0.07808,-0.0732,-0.03416
0.03416,-0.05124,0.06832,0.05124,0.03416,0,-0.05856,-0.07808,-0.09272,-0.07808,-0.0732,-0.03904
0.00488,-0.03172,0.05856,0.05612,0.05368,-0.0244,-0.0488,-0.06344,-0.08296,-0.0732,-0.06832,-0.03904
-0.02928,-0.00976,0.0488,0.06344,0.07808,-0.05368,-0.03904,-0.06344,-0.09272,-0.08296,-0.07808,-0.05368
-0.03416,-0.00488,0.04392,0.061,0.07808,-0.05612,-0.02928,-0.06832,-0.08784,-0.08296,-0.08296,-0.06344
-0.04392,0,0.04392,0.06588,0.08784,-0.06588,-0.02928,-0.0732,-0.09272,-0.08784,-0.08784,-0.06832
-0.04392,0.00244,0.03904,0.061,0.08296,-0.06344,-0.03416,-0.0732,-0.10248,-0.09272,-0.0976,-0.0732
-0.04392,0.00488,0.03416,0.05612,0.07808,-0.061,-0.03904,-0.08784,-0.10736,-0.10736,-0.10248,-0.08296
-0.03904,0.00976,0.01952,0.03904,0.05856,-0.0488,-0.03904,-0.09272,-0.122,-0.11712,-0.11712,-0.09272
-0.04392,0.01464,0.01464,0.0366,0.05856,-0.05124,-0.04392,-0.10248,-0.13176,-0.12688,-0.12688,-0.09272
-0.0488,0.02196,0.00488,0.02928,0.05368,-0.05124,-0.04392,-0.0976,-0.122,-0.12688,-0.12688,-0.09272
-0.0488,0.02196,0.00488,0.02928,0.05368,-0.05124,-0.04392,-0.09272,-0.122,-0.12688,-0.122,-0.09272
-0.0488,0.01708,0.01464,0.03904,0.06344,-0.05612,-0.04392,-0.08296,-0.122,-0.122,-0.11712,-0.08296
-0.0488,0.01464,0.01952,0.04392,0.06832,-0.05856,-0.04392,-0.08296,-0.122,-0.122,-0.11712,-0.08296
-0.05368,0.0244,0.00488,0.03172,0.05856,-0.05612,-0.02928,-0.09272,-0.122,-0.11712,-0.11712,-0.09272
-0.05856,0.02928,0,0.02928,0.05856,-0.05856,-0.02928,-0.09272,-0.122,-0.11712,-0.11712,-0.09272
-0.05856,0.0244,0.00976,0.03904,0.06832,-0.06344,-0.03904,-0.08784,-0.12688,-0.122,-0.12688,-0.10248
-0.05856,0.01952,0.01952,0.0488,0.07808,-0.06832,-0.03904,-0.07808,-0.12688,-0.12688,-0.12688,-0.10248
-0.06832,0.03172,0.00488,0.03904,0.0732,-0.07076,-0.00488,-0.03904,-0.09272,-0.10736,-0.13664,-0.10736
-0.06832,0.03904,-0.00976,0.0244,0.05856,-0.06344,0.07808,0.08784,-0.00976,-0.07808,-0.13664,-0.14152
-0.08296,0.04148,0,0.04148,0.08296,-0.08296,0.18544,0.27816,0.15616,0.00976,-0.122,-0.16592
-0.03904,-0.02196,0.08296,0.10248,0.122,-0.08052,0.26352,0.48312,0.37088,0.20496,-0.03904,-0.14152
0.06832,-0.14396,0.2196,0.18544,0.15128,-0.04148,0.33672,0.81496,0.75152,0.57096,0.23912,0.00488
0.27328,-0.33184,0.3904,0.25376,0.11712,0.07808,0.26352,0.93696,1.04432,0.97112,0.66368,0.2928
0.50264,-0.4636,0.42456,0.17324,-0.07808,0.29036,0.0732,0.67344,0.99064,1.13216,1.01992,0.60512
0.69296,-0.6222,0.55144,0.20496,-0.14152,0.41724,-0.244,0.10736,0.69784,1.1468,1.30784,0.94184
0.6832,-0.71248,0.74176,0.40016,0.05856,0.31232,-0.49288,-0.50264,0.31232,1.01016,1.42984,1.12728
0.44896,-0.62708,0.8052,0.58072,0.35624,0.04636,-0.5368,-0.91744,-0.14152,0.62952,1.20536,1.07848
0.26352,-0.42944,0.59536,0.4636,0.33184,-0.03416,-0.52704,-1.15656,-0.59536,0.04392,0.7076,0.8052
-0.00488,-0.1464,0.29768,0.30012,0.30256,-0.15372,-0.58072,-1.53232,-1.25416,-0.83936,-0.0976,0.35136
-0.20984,0.07808,0.05368,0.1586,0.26352,-0.23668,-0.55632,-1.5616,-1.41032,-1.10288,-0.48312,0.01464
-0.25864,0.1342,-0.00976,0.11956,0.24888,-0.25376,-0.52216,-1.42984,-1.2932,-1.0248,-0.51728,-0.09272
-0.25376,0.16104,-0.06832,0.05856,0.18544,-0.2196,-0.488,-1.23464,-1.14192,-0.9516,-0.50264,-0.11712
-0.23912,0.15616,-0.0732,0.04636,0.16592,-0.20252,-0.4148,-0.97112,-0.91744,-0.8052,-0.47336,-0.1464
-0.17568,0.10004,-0.0244,0.06344,0.15128,-0.16348,-0.37088,-0.75152,-0.6832,-0.61976,-0.40504,-0.15616
-0.122,0.0488,0.0244,0.0854,0.1464,-0.1342,-0.31232,-0.56608,-0.52216,-0.45872,-0.27816,-0.122
-0.08784,0.02928,0.02928,0.0732,0.11712,-0.10248,-0.22448,-0.40992,-0.40016,-0.36112,-0.21472,-0.08296
-0.08296,0.0122,0.05856,0.10004,0.14152,-0.11224,-0.13176,-0.23912,-0.26352,-0.27328,-0.18544,-0.08296
-0.06344,0.01952,0.0244,0.05612,0.08784,-0.07564,-0.07808,-0.15616,-0.1708,-0.20008,-0.18056,-0.0976
-0.06344,0.03172,0,0.03172,0.06344,-0.06344,-0.05856,-0.1464,-0.15616,-0.16592,-0.15128,-0.10248
-0.05856,0.02928,0,0.02928,0.05856,-0.05856,-0.0488,-0.12688,-0.15128,-0.16104,-0.12688,-0.08784
-0.05856,0.0244,0.00976,0.03904,0.06832,-0.06344,-0.0488,-0.10248,-0.13176,-0.15616,-0.13176,-0.08296
-0.05368,0.02684,0,0.02684,0.05368,-0.05368,-0.02928,-0.06344,-0.10248,-0.1464,-0.13664,-0.08784
-0.05368,0.02928,-0.00488,0.02196,0.0488,-0.05124,-0.0244,-0.06832,-0.09272,-0.13176,-0.13664,-0.10248
-0.05368,0.03416,-0.01464,0.0122,0.03904,-0.04636,-0.0244,-0.06832,-0.0976,-0.12688,-0.12688,-0.0976
-0.04392,0.0244,-0.00488,0.01708,0.03904,-0.04148,-0.0244,-0.05856,-0.0976,-0.13176,-0.13664,-0.0976
-0.04392,0.0244,-0.00488,0.01708,0.03904,-0.04148,-0.01464,-0.03904,-0.07808,-0.12688,-0.13176,-0.0976
-0.04392,0.0244,-0.00488,0.01708,0.03904,-0.04148,-0.00976,-0.03904,-0.06832,-0.11224,-0.122,-0.0976
-0.04392,0.0244,-0.00488,0.01708,0.03904,-0.04148,-0.00976,-0.03416,-0.06832,-0.10736,-0.11712,-0.0976
-0.03904,0.01952,0,0.01952,0.03904,-0.03904,0,-0.03416,-0.05856,-0.09272,-0.11712,-0.08784
-0.03416,0.01708,0,0.01708,0.03416,-0.03416,0,-0.01952,-0.05368,-0.09272,-0.11712,-0.08784
-0.03416,0.01952,-0.00488,0.0122,0.02928,-0.03172,-0.00488,-0.01464,-0.05368,-0.08784,-0.11224,-0.09272
-0.03416,0.01952,-0.00488,0.0122,0.02928,-0.03172,-0.00488,-0.00976,-0.05368,-0.08296,-0.10736,-0.09272
-0.04392,0.0244,-0.00488,0.01708,0.03904,-0.04148,0,-0.00488,-0.03416,-0.0732,-0.10736,-0.09272
-0.04392,0.02196,0,0.02196,0.04392,-0.04392,0,-0.00488,-0.03416,-0.0732,-0.10248,-0.09272
-0.02928,0.02196,-0.01464,0,0.01464,-0.02196,0,0.00976,-0.02928,-0.06832,-0.10248,-0.08784
-0.02928,0.01952,-0.00976,0.00488,0.01952,-0.0244,0.00488,0.01464,-0.01952,-0.06344,-0.0976,-0.08784
-0.02928,0.0122,0.00488,0.01952,0.03416,-0.03172,0.00488,0.00488,-0.0244,-0.06832,-0.0976,-0.0976
-0.0244,0.00976,0.00488,0.01708,0.02928,-0.02684,0.00488,0.01464,-0.01952,-0.06344,-0.09272,-0.0976
-0.0244,0.00976,0.00488,0.01708,0.02928,-0.02684,0.00976,0.02928,0,-0.0488,-0.09272,-0.08784
-0.01952,0.00732,0.00488,0.01464,0.0244,-0.02196,0.00488,0.03416,0,-0.0488,-0.09272,-0.08784
-0.01952,0.00488,0.00976,0.01952,0.02928,-0.0244,0.01952,0.04392,0.00488,-0.03904,-0.08784,-0.08296
-0.01952,0.00488,0.00976,0.01952,0.02928,-0.0244,0.01952,0.05368,0.01952,-0.03904,-0.08296,-0.08296
-0.01464,0,0.01464,0.02196,0.02928,-0.02196,0.01464,0.06344,0.01952,-0.03416,-0.08296,-0.08296
-0.01464,0,0.01464,0.02196,0.02928,-0.02196,0.01464,0.0732,0.0244,-0.0244,-0.07808,-0.07808
-0.01952,0,0.01952,0.02928,0.03904,-0.02928,0.02928,0.07808,0.0488,-0.00488,-0.06344,-0.06832
-0.01952,0,0.01952,0.02928,0.03904,-0.02928,0.03416,0.09272,0.05856,0,-0.05368,-0.06344
-0.00976,0,0.00976,0.01464,0.01952,-0.01464,0.03416,0.10736,0.05856,0.00976,-0.0488,-0.05856
-0.00488,-0.00488,0.01464,0.01708,0.01952,-0.0122,0.03904,0.122,0.06832,0.01464,-0.0488,-0.05856
-0.00976,-0.00488,0.01952,0.0244,0.02928,-0.01952,0.04392,0.13176,0.09272,0.02928,-0.03904,-0.06832
-0.00488,-0.00976,0.0244,0.02684,0.02928,-0.01708,0.04392,0.1464,0.10248,0.03904,-0.03904,-0.06344
0.00976,-0.0244,0.03904,0.03416,0.02928,-0.00976,0.04392,0.16104,0.11224,0.03904,-0.03416,-0.0488
0.00976,-0.0244,0.03904,0.03416,0.02928,-0.00976,0.0488,0.18056,0.13176,0.05368,-0.0244,-0.0488
0.01464,-0.02928,0.04392,0.0366,0.02928,-0.00732,0.05856,0.1952,0.1464,0.0732,-0.01464,-0.05368
0.0244,-0.03904,0.05368,0.04148,0.02928,-0.00244,0.05856,0.21472,0.16592,0.08784,-0.01464,-0.05368
0.01464,-0.02928,0.04392,0.0366,0.02928,-0.00732,0.07808,0.24888,0.19032,0.10248,0,-0.03904
0.01952,-0.0366,0.05368,0.04392,0.03416,-0.00732,0.07808,0.2684,0.20496,0.11712,0.00976,-0.03416
0.03416,-0.04636,0.05856,0.04148,0.0244,0.00488,0.08296,0.28792,0.22936,0.12688,0.01952,-0.0244
0.03904,-0.05124,0.06344,0.04392,0.0244,0.00732,0.0976,0.31232,0.244,0.14152,0.0244,-0.01952
0.04392,-0.061,0.07808,0.05612,0.03416,0.00488,0.09272,0.3172,0.244,0.14152,0.03416,-0.00976
0.0488,-0.07564,0.10248,0.07808,0.05368,-0.00244,0.08296,0.33672,0.25864,0.15616,0.03904,-0.00488
0.0488,-0.0732,0.0976,0.0732,0.0488,0,0.0976,0.35136,0.27328,0.17568,0.05368,-0.00488
0.05368,-0.08052,0.10736,0.08052,0.05368,0,0.10248,0.36112,0.28792,0.19032,0.05368,0.00488
0.05856,-0.08052,0.10248,0.0732,0.04392,0.00732,0.10736,0.38064,0.30744,0.19032,0.05856,0.00976
0.06344,-0.08784,0.11224,0.08052,0.0488,0.00732,0.10736,0.3904,0.31232,0.19032,0.06344,0.01464
0.06344,-0.09272,0.122,0.09028,0.05856,0.00244,0.11224,0.39528,0.31232,0.20496,0.07808,0.01952
0.06832,-0.0976,0.12688,0.09272,0.05856,0.00488,0.11224,0.39528,0.3172,0.20984,0.08296,0.01952
0.06832,-0.10004,0.13176,0.0976,0.06344,0.00244,0.11224,0.40016,0.32208,0.20984,0.08784,0.02928
0.06832,-0.10248,0.13664,0.10248,0.06832,0,0.11224,0.40016,0.32208,0.21472,0.08784,0.02928
0.06344,-0.10248,0.14152,0.1098,0.07808,-0.00732,0.11224,0.3904,0.31232,0.21472,0.08784,0.0244
0.06344,-0.10248,0.14152,0.1098,0.07808,-0.00732,0.10248,0.38064,0.30256,0.20008,0.09272,0.02928
0.06344,-0.10492,0.1464,0.11468,0.08296,-0.00976,0.10248,0.37088,0.29768,0.20008,0.08296,0.02928
0.06344,-0.10736,0.15128,0.11956,0.08784,-0.0122,0.08784,0.34648,0.28304,0.19032,0.08296,0.03416
0.06344,-0.10248,0.14152,0.1098,0.07808,-0.00732,0.09272,0.32696,0.27328,0.18544,0.08296,0.03416
0.05856,-0.10004,0.14152,0.11224,0.08296,-0.0122,0.08296,0.29768,0.25376,0.17568,0.07808,0.03416
0.05856,-0.10248,0.1464,0.11712,0.08784,-0.01464,0.07808,0.28304,0.23912,0.16592,0.08784,0.03904
0.05368,-0.0976,0.14152,0.11468,0.08784,-0.01708,0.06832,0.25864,0.2196,0.15616,0.08296,0.03904
0.05368,-0.0976,0.14152,0.11468,0.08784,-0.01708,0.06344,0.2196,0.19032,0.14152,0.0732,0.03416
0.05368,-0.09516,0.13664,0.1098,0.08296,-0.01464,0.0488,0.18544,0.17568,0.12688,0.06344,0.02928
0.04392,-0.0854,0.12688,0.10492,0.08296,-0.01952,0.04392,0.1708,0.1464,0.122,0.06344,0.02928
0.04392,-0.0854,0.12688,0.10492,0.08296,-0.01952,0.03416,0.14152,0.12688,0.10736,0.05856,0.01952
0.0244,-0.06588,0.10736,0.09516,0.08296,-0.02928,0.03416,0.11712,0.10736,0.08784,0.03904,0.0244
0.01464,-0.061,0.10736,0.10004,0.09272,-0.03904,0.0244,0.0976,0.08784,0.06832,0.02928,0.01464
0.01952,-0.05856,0.0976,0.08784,0.07808,-0.02928,0.0244,0.07808,0.0732,0.05368,0.02928,0
0.00976,-0.0488,0.08784,0.08296,0.07808,-0.03416,0.0244,0.05856,0.05368,0.03904,0.01952,-0.00488
0.00488,-0.03904,0.0732,0.07076,0.06832,-0.03172,0.00976,0.02928,0.03416,0.02928,0.00976,-0.00976
0.00488,-0.03172,0.05856,0.05612,0.05368,-0.0244,0.00488,0.01952,0.02928,0.01464,0,-0.01952
-0.00488,-0.02928,0.06344,0.06588,0.06832,-0.0366,0,0.00976,0.00976,0.00488,-0.00488,-0.0244
-0.00488,-0.02196,0.0488,0.05124,0.05368,-0.02928,0,0,-0.00488,-0.00488,-0.00976,-0.0244
-0.01464,-0.01708,0.0488,0.05612,0.06344,-0.03904,0,-0.00488,-0.01464,-0.00976,-0.01952,-0.03416
-0.0244,-0.0122,0.0488,0.061,0.0732,-0.0488,-0.00488,-0.00976,-0.01952,-0.01952,-0.01952,-0.03416
-0.0244,-0.00732,0.03904,0.05124,0.06344,-0.04392,0.00488,-0.01952,-0.01464,-0.01952,-0.0244,-0.03416
-0.0244,-0.00732,0.03904,0.05124,0.06344,-0.04392,0,-0.0244,-0.01952,-0.02928,-0.02928,-0.04392
-0.02928,-0.00488,0.03904,0.05368,0.06832,-0.0488,0,-0.03904,-0.02928,-0.04392,-0.03904,-0.04392
-0.02928,-0.00488,0.03904,0.05368,0.06832,-0.0488,0,-0.04392,-0.03416,-0.04392,-0.04392,-0.04392
-0.02928,-0.00488,0.03904,0.05368,0.06832,-0.0488,-0.00976,-0.04392,-0.03904,-0.05368,-0.05368,-0.04392
-0.02928,0,0.02928,0.04392,0.05856,-0.04392,-0.00976,-0.04392,-0.03904,-0.05368,-0.05856,-0.04392
-0.02928,-0.00244,0.03416,0.0488,0.06344,-0.04636,-0.00976,-0.04392,-0.03904,-0.04392,-0.0488,-0.04392
-0.02928,-0.00244,0.03416,0.0488,0.06344,-0.04636,-0.00976,-0.04392,-0.03904,-0.04392,-0.0488,-0.04392
-0.01952,-0.00244,0.0244,0.03416,0.04392,-0.03172,0,-0.03416,-0.02928,-0.03904,-0.0488,-0.04392
-0.0244,-0.00244,0.02928,0.04148,0.05368,-0.03904,0,-0.03416,-0.02928,-0.03904,-0.0488,-0.04392
-0.0244,0.00244,0.01952,0.03172,0.04392,-0.03416,-0.00488,-0.03416,-0.02928,-0.0488,-0.0488,-0.04392
-0.0244,0.00488,0.01464,0.02684,0.03904,-0.03172,0,-0.03416,-0.03416,-0.0488,-0.05368,-0.04392
-0.03416,0.00244,0.02928,0.04636,0.06344,-0.0488,0,-0.03416,-0.02928,-0.0488,-0.05368,-0.04392
-0.03416,0.00244,0.02928,0.04636,0.06344,-0.0488,0,-0.03416,-0.03416,-0.05368,-0.05368,-0.04392
-0.03416,0.00244,0.02928,0.04636,0.06344,-0.0488,0,-0.03416,-0.03416,-0.04392,-0.06344,-0.0488
-0.03416,0.00244,0.02928,0.04636,0.06344,-0.0488,0,-0.03416,-0.03416,-0.04392,-0.06344,-0.0488
-0.02928,0,0.02928,0.04392,0.05856,-0.04392,0,-0.03416,-0.03416,-0.04392,-0.06344,-0.0488
-0.02928,-0.00244,0.03416,0.0488,0.06344,-0.04636,0.00488,-0.03416,-0.03416,-0.04392,-0.06344,-0.0488
-0.03416,0,0.03416,0.05124,0.06832,-0.05124,0.00488,-0.02928,-0.03416,-0.05368,-0.06344,-0.03904
-0.03416,0.00244,0.02928,0.04636,0.06344,-0.0488,0.00976,-0.03416,-0.03416,-0.05368,-0.06344,-0.03904
-0.03416,0.00732,0.01952,0.0366,0.05368,-0.04392,0.00976,-0.0244,-0.02928,-0.04392,-0.05368,-0.03904
-0.03416,0.00732,0.01952,0.0366,0.05368,-0.04392,0.00488,-0.01464,-0.03416,-0.04392,-0.05368,-0.03904
-0.03416,0.00488,0.0244,0.04148,0.05856,-0.04636,0.00488,-0.0244,-0.0244,-0.04392,-0.05856,-0.0488
-0.03416,0.00488,0.0244,0.04148,0.05856,-0.04636,0.00488,-0.03416,-0.0244,-0.04392,-0.05856,-0.0488
-0.03416,0.00488,0.0244,0.04148,0.05856,-0.04636,0.00488,-0.03416,-0.03416,-0.05368,-0.05856,-0.03904
-0.03416,0.00488,0.0244,0.04148,0.05856,-0.04636,0.00488,-0.03416,-0.03416,-0.05368,-0.05856,-0.03904
-0.03416,0.00488,0.0244,0.04148,0.05856,-0.04636,0,-0.03416,-0.04392,-0.05856,-0.06832,-0.03904
-0.03416,0.00732,0.01952,0.0366,0.05368,-0.04392,0,-0.03904,-0.04392,-0.05856,-0.06832,-0.03416
-0.03416,0.00488,0.0244,0.04148,0.05856,-0.04636,0,-0.02928,-0.03416,-0.0488,-0.06344,-0.03416
-0.03416,0.00488,0.0244,0.04148,0.05856,-0.04636,0,-0.02928,-0.03416,-0.0488,-0.06344,-0.03904
-0.0244,-0.00488,0.03416,0.04636,0.05856,-0.04148,0,-0.04392,-0.03904,-0.0488,-0.05368,-0.03904
-0.0244,-0.00488,0.03416,0.04636,0.05856,-0.04148,-0.00488,-0.04392,-0.04392,-0.05368,-0.05368,-0.03904
-0.03416,0,0.03416,0.05124,0.06832,-0.05124,0,-0.03904,-0.03416,-0.05368,-0.05368,-0.0488
-0.03416,0.00244,0.02928,0.04636,0.06344,-0.0488,0,-0.03904,-0.03416,-0.05368,-0.05368,-0.0488
-0.01952,-0.00244,0.0244,0.03416,0.04392,-0.03172,-0.00488,-0.03904,-0.03416,-0.05368,-0.05856,-0.0488
-0.01952,0,0.01952,0.02928,0.03904,-0.02928,-0.00488,-0.03904,-0.03904,-0.05856,-0.06344,-0.0488
-0.0244,0.00244,0.01952,0.03172,0.04392,-0.03416,0.00488,-0.03904,-0.03904,-0.0488,-0.05368,-0.0488
-0.0244,0.00244,0.01952,0.03172,0.04392,-0.03416,0,-0.03904,-0.04392,-0.05368,-0.05856,-0.03904
-0.03416,0.00488,0.0244,0.04148,0.05856,-0.04636,-0.00976,-0.04392,-0.04392,-0.05368,-0.05856,-0.0488
-0.03416,0.00488,0.0244,0.04148,0.05856,-0.04636,-0.00976,-0.04392,-0.0488,-0.05368,-0.05856,-0.0488
-0.03416,0.00976,0.01464,0.03172,0.0488,-0.04148,-0.00976,-0.04392,-0.0488,-0.06832,-0.05856,-0.0488
-0.03416,0.00976,0.01464,0.03172,0.0488,-0.04148,-0.00976,-0.0488,-0.05368,-0.0732,-0.06344,-0.0488
-0.02928,0.00976,0.00976,0.0244,0.03904,-0.03416,-0.01952,-0.05856,-0.05368,-0.0732,-0.06344,-0.0488
-0.02928,0.00732,0.01464,0.02928,0.04392,-0.0366,-0.01952,-0.06344,-0.05856,-0.0732,-0.06344,-0.05368
-0.02928,0.00244,0.0244,0.03904,0.05368,-0.04148,-0.00976,-0.06344,-0.05856,-0.0732,-0.06832,-0.05368
-0.0244,0.00244,0.01952,0.03172,0.04392,-0.03416,-0.01464,-0.06344,-0.05856,-0.07808,-0.06344,-0.05368
-0.0244,0.00244,0.01952,0.03172,0.04392,-0.03416,-0.01464,-0.05368,-0.05856,-0.06832,-0.06832,-0.05368
-0.02928,0.00488,0.01952,0.03416,0.0488,-0.03904,-0.01464,-0.05368,-0.06344,-0.06344,-0.06832,-0.05368
-0.03904,0.00732,0.0244,0.04392,0.06344,-0.05124,-0.01464,-0.06344,-0.0732,-0.06344,-0.06832,-0.05368
-0.03904,0.00732,0.0244,0.04392,0.06344,-0.05124,-0.01464,-0.06344,-0.0732,-0.06344,-0.06832,-0.05368
-0.03904,0.00976,0.01952,0.03904,0.05856,-0.0488,-0.01464,-0.06832,-0.06344,-0.0732,-0.06832,-0.05368
-0.03904,0.00976,0.01952,0.03904,0.05856,-0.0488,-0.01464,-0.0732,-0.06832,-0.08296,-0.06832,-0.05368
-0.02928,0.00732,0.01464,0.02928,0.04392,-0.0366,-0.01952,-0.0732,-0.06832,-0.0732,-0.06832,-0.05856
-0.02928,0.00488,0.01952,0.03416,0.0488,-0.03904,-0.01952,-0.07808,-0.06832,-0.07808,-0.0732,-0.05856
-0.02928,0.00976,0.00976,0.0244,0.03904,-0.03416,-0.01952,-0.06832,-0.07808,-0.08784,-0.0732,-0.05856
-0.02928,0.00976,0.00976,0.0244,0.03904,-0.03416,-0.01952,-0.06832,-0.08296,-0.09272,-0.07808,-0.06344
-0.02928,0.00976,0.00976,0.0244,0.03904,-0.03416,-0.02928,-0.06832,-0.0732,-0.09272,-0.06832,-0.0732
-0.03416,0.0122,0.00976,0.02684,0.04392,-0.03904,-0.02928,-0.06832,-0.0732,-0.08784,-0.06832,-0.0732
-0.03416,0.01464,0.00488,0.02196,0.03904,-0.0366,-0.01952,-0.06832,-0.07808,-0.07808,-0.06832,-0.06344
-0.02928,0.00976,0.00976,0.0244,0.03904,-0.03416,-0.01952,-0.06832,-0.07808,-0.07808,-0.0732,-0.06344
-0.03416,0.00732,0.01952,0.0366,0.05368,-0.04392,-0.01952,-0.07808,-0.08296,-0.08784,-0.0732,-0.06832
-0.02928,0.00488,0.01952,0.03416,0.0488,-0.03904,-0.01952,-0.07808,-0.08296,-0.09272,-0.06832,-0.0732
-0.03904,0.01464,0.00976,0.02928,0.0488,-0.04392,-0.01952,-0.07808,-0.08296,-0.09272,-0.06832,-0.0732
-0.03904,0.01464,0.00976,0.02928,0.0488,-0.04392,-0.01464,-0.07808,-0.08296,-0.09272,-0.06344,-0.0732
-0.03904,0.01464,0.00976,0.02928,0.0488,-0.04392,-0.01952,-0.06832,-0.08296,-0.08784,-0.06832,-0.06344
-0.03904,0.00976,0.01952,0.03904,0.05856,-0.0488,-0.01952,-0.06344,-0.07808,-0.08296,-0.06344,-0.06344
-0.03416,0.0122,0.00976,0.02684,0.04392,-0.03904,-0.01464,-0.06832,-0.08296,-0.08784,-0.0732,-0.06344
-0.03416,0.0122,0.00976,0.02684,0.04392,-0.03904,-0.01464,-0.0732,-0.08296,-0.09272,-0.06832,-0.0732
-0.03904,0.01464,0.00976,0.02928,0.0488,-0.04392,-0.0244,-0.0732,-0.08296,-0.10248,-0.07808,-0.08296
-0.03904,0.00488,0.02928,0.0488,0.06832,-0.05368,-0.0244,-0.0732,-0.08296,-0.10248,-0.07808,-0.08296
-0.04392,0.0122,0.01952,0.04148,0.06344,-0.05368,-0.0244,-0.07808,-0.09272,-0.10248,-0.06832,-0.0732
-0.04392,0.01708,0.00976,0.03172,0.05368,-0.0488,-0.02928,-0.08296,-0.08784,-0.10736,-0.06832,-0.0732
-0.03904,0.01464,0.00976,0.02928,0.0488,-0.04392,-0.0244,-0.0732,-0.08784,-0.10736,-0.07808,-0.07808
-0.03904,0.01464,0.00976,0.02928,0.0488,-0.04392,-0.01952,-0.07808,-0.07808,-0.10736,-0.07808,-0.06832
-0.03904,0.00976,0.01952,0.03904,0.05856,-0.0488,-0.01952,-0.07808,-0.07808,-0.10736,-0.06832,-0.07808
-0.03904,0.00976,0.01952,0.03904,0.05856,-0.0488,-0.01952,-0.07808,-0.07808,-0.10736,-0.06832,-0.07808
-0.02928,0.00488,0.01952,0.03416,0.0488,-0.03904,-0.01952,-0.0732,-0.07808,-0.09272,-0.06832,-0.06832
-0.02928,-0.00244,0.03416,0.0488,0.06344,-0.04636,-0.00976,-0.06344,-0.0732,-0.09272,-0.05856,-0.06832
-0.01952,-0.00976,0.03904,0.0488,0.05856,-0.03904,-0.00976,-0.05368,-0.05856,-0.0732,-0.04392,-0.06344
-0.01952,-0.01708,0.05368,0.06344,0.0732,-0.04636,-0.00488,-0.04392,-0.05856,-0.06832,-0.04392,-0.05856
-0.00976,-0.02928,0.06832,0.0732,0.07808,-0.04392,0.00488,-0.04392,-0.05368,-0.05368,-0.03416,-0.03904
-0.00976,-0.03416,0.07808,0.08296,0.08784,-0.0488,0.00976,-0.03416,-0.0488,-0.05368,-0.03416,-0.03904
-0.00976,-0.02684,0.06344,0.06832,0.0732,-0.04148,0.01464,-0.03416,-0.04392,-0.05856,-0.02928,-0.03416
-0.00488,-0.02684,0.05856,0.061,0.06344,-0.03416,0.01464,-0.02928,-0.03904,-0.06344,-0.02928,-0.03904
-0.00976,-0.0244,0.05856,0.06344,0.06832,-0.03904,-0.00488,-0.03904,-0.03904,-0.06344,-0.03416,-0.0488
0,-0.02928,0.05856,0.05856,0.05856,-0.02928,-0.01464,-0.04392,-0.04392,-0.06344,-0.02928,-0.0488
0.00976,-0.04148,0.0732,0.06832,0.06344,-0.02684,-0.0244,-0.05368,-0.0488,-0.0732,-0.02928,-0.03416
0.00976,-0.0488,0.08784,0.08296,0.07808,-0.03416,-0.02928,-0.05368,-0.0488,-0.06344,-0.01952,-0.01952
0.01952,-0.05856,0.0976,0.08784,0.07808,-0.02928,-0.02928,-0.03416,-0.03416,-0.03904,-0.00488,-0.00976
0.03416,-0.06588,0.0976,0.08052,0.06344,-0.01464,-0.03904,-0.03904,-0.03416,-0.04392,-0.00488,-0.00976
0.03416,-0.05612,0.07808,0.061,0.04392,-0.00488,-0.0244,-0.03904,-0.03416,-0.04392,-0.00488,-0.00976
0.03416,-0.05368,0.0732,0.05612,0.03904,-0.00244,-0.03416,-0.0488,-0.04392,-0.05368,-0.00976,-0.00976
0.02928,-0.0366,0.04392,0.02928,0.01464,0.00732,-0.05368,-0.07808,-0.07808,-0.08296,-0.03416,-0.01952
0.02928,-0.03172,0.03416,0.01952,0.00488,0.0122,-0.06832,-0.0976,-0.0976,-0.09272,-0.0488,-0.0244
0.01952,-0.0244,0.02928,0.01952,0.00976,0.00488,-0.05856,-0.07808,-0.08296,-0.07808,-0.03416,-0.0244
0.0244,-0.02196,0.01952,0.00732,-0.00488,0.01464,-0.03904,-0.07808,-0.0732,-0.07808,-0.03416,-0.02928
0.00488,-0.00732,0.00976,0.00732,0.00488,0,-0.02928,-0.06344,-0.06344,-0.0732,-0.03904,-0.02928
-0.02928,0.01464,0,0.01464,0.02928,-0.02928,-0.01952,-0.06344,-0.0732,-0.08296,-0.0488,-0.04392
-0.03416,0.0244,-0.01464,0.00244,0.01952,-0.02684,-0.01952,-0.06832,-0.07808,-0.09272,-0.06344,-0.05368
-0.04392,0.02928,-0.01464,0.00732,0.02928,-0.0366,-0.01952,-0.0732,-0.08296,-0.0976,-0.06832,-0.05856
-0.04392,0.03172,-0.01952,0.00244,0.0244,-0.03416,-0.01464,-0.0732,-0.09272,-0.10248,-0.07808,-0.06344
-0.04392,0.03416,-0.0244,-0.00244,0.01952,-0.03172,-0.01952,-0.08784,-0.0976,-0.11712,-0.08296,-0.0732
-0.0488,0.04392,-0.03904,-0.01464,0.00976,-0.02928,-0.01952,-0.09272,-0.11224,-0.12688,-0.0976,-0.09272
-0.05368,0.0488,-0.04392,-0.01708,0.00976,-0.03172,-0.0244,-0.10248,-0.122,-0.13664,-0.10736,-0.09272
-0.05856,0.05612,-0.05368,-0.0244,0.00488,-0.03172,-0.0244,-0.10736,-0.11224,-0.13664,-0.10736,-0.08296
-0.05856,0.05612,-0.05368,-0.0244,0.00488,-0.03172,-0.0244,-0.10248,-0.11224,-0.13664,-0.10248,-0.08296
-0.05856,0.05612,-0.05368,-0.0244,0.00488,-0.03172,-0.0244,-0.09272,-0.10248,-0.13176,-0.0976,-0.08296
-0.05856,0.05368,-0.0488,-0.01952,0.00976,-0.03416,-0.0244,-0.09272,-0.10248,-0.13176,-0.0976,-0.08296
-0.05368,0.05368,-0.05368,-0.02684,0,-0.02684,-0.01952,-0.08296,-0.10248,-0.11712,-0.0976,-0.08296
-0.05856,0.05368,-0.0488,-0.01952,0.00976,-0.03416,-0.01952,-0.08296,-0.10248,-0.11712,-0.0976,-0.08296
-0.05856,0.05856,-0.05856,-0.02928,0,-0.02928,-0.01952,-0.08784,-0.10736,-0.122,-0.08784,-0.0732
-0.05856,0.05856,-0.05856,-0.02928,0,-0.02928,-0.01952,-0.07808,-0.10736,-0.12688,-0.08784,-0.0732
-0.05856,0.05124,-0.04392,-0.01464,0.01464,-0.0366,0.01464,-0.01952,-0.06344,-0.11712,-0.0976,-0.0976
-0.06832,0.0732,-0.07808,-0.04392,-0.00976,-0.02928,0.11712,0.12688,0.03904,-0.05856,-0.10736,-0.14152
-0.08296,0.05612,-0.02928,0.0122,0.05368,-0.06832,0.21472,0.30744,0.18544,0.03904,-0.10248,-0.15616
-0.02928,-0.0122,0.05368,0.06832,0.08296,-0.05612,0.30256,0.5612,0.44896,0.26352,0.01952,-0.10248
0.11712,-0.1586,0.20008,0.14152,0.08296,0.01708,0.35624,0.9028,0.85888,0.6588,0.33672,0.0732
0.3416,-0.32696,0.31232,0.14152,-0.02928,0.18544,0.25376,0.93696,1.0736,1.01992,0.75152,0.37088
0.57096,-0.46848,0.366,0.08052,-0.20496,0.38796,0.03416,0.56608,0.9516,1.15168,1.07848,0.66368
0.75152,-0.63684,0.52216,0.1464,-0.22936,0.49044,-0.30256,-0.01952,0.64904,1.1468,1.35664,0.98088
0.71248,-0.7076,0.70272,0.34648,-0.00976,0.36112,-0.53192,-0.63928,0.22448,0.9516,1.41032,1.13704
0.44896,-0.5734,0.69784,0.47336,0.24888,0.10004,-0.55632,-1.00528,-0.20008,0.54168,1.15656,1.0492
0.26352,-0.3416,0.41968,0.28792,0.15616,0.05368,-0.5856,-1.33224,-0.75152,-0.13176,0.58072,0.73688
-0.0244,-0.06832,0.16104,0.17324,0.18544,-0.10492,-0.64904,-1.68848,-1.3908,-0.95648,-0.18544,0.28304
-0.20008,0.13664,-0.0732,0.02684,0.12688,-0.16348,-0.5856,-1.6104,-1.3908,-1.08336,-0.45384,0.03416
-0.24888,0.17812,-0.10736,0.01708,0.14152,-0.1952,-0.5612,-1.4396,-1.25416,-1.01504,-0.46848,-0.05368
-0.22448,0.1952,-0.16592,-0.05368,0.05856,-0.14152,-0.50752,-1.20536,-1.08336,-0.9028,-0.45384,-0.08784
-0.20984,0.16592,-0.122,-0.01708,0.08784,-0.14884,-0.39528,-0.9028,-0.81984,-0.7076,-0.4148,-0.11712
-0.1464,0.11468,-0.08296,-0.00976,0.06344,-0.10492,-0.3416,-0.67344,-0.59536,-0.53192,-0.3172,-0.0976
-0.08296,0.06832,-0.05368,-0.0122,0.02928,-0.05612,-0.2928,-0.51728,-0.45384,-0.40016,-0.20984,-0.06344
-0.06832,0.0488,-0.02928,0.00488,0.03904,-0.05368,-0.20496,-0.37088,-0.35136,-0.31232,-0.16592,-0.06344
-0.0732,0.05124,-0.02928,0.00732,0.04392,-0.05856,-0.09272,-0.20984,-0.21472,-0.22448,-0.15616,-0.06344
-0.0732,0.06832,-0.06344,-0.02684,0.00976,-0.04148,-0.03904,-0.12688,-0.122,-0.16104,-0.13176,-0.06832
-0.06344,0.061,-0.05856,-0.02684,0.00488,-0.03416,-0.0488,-0.12688,-0.12688,-0.15616,-0.11224,-0.0732
-0.0488,0.06344,-0.07808,-0.05368,-0.02928,-0.00976,-0.03904,-0.10736,-0.122,-0.13176,-0.08784,-0.05856
-0.0488,0.05368,-0.05856,-0.03416,-0.00976,-0.01952,-0.02928,-0.08296,-0.11224,-0.13664,-0.10248,-0.06344
-0.04392,0.05124,-0.05856,-0.0366,-0.01464,-0.01464,-0.00976,-0.04392,-0.08296,-0.12688,-0.10736,-0.07808
-0.04392,0.05856,-0.0732,-0.05124,-0.02928,-0.00732,-0.00488,-0.0488,-0.06344,-0.10248,-0.0976,-0.0732
-0.04392,0.06344,-0.08296,-0.061,-0.03904,-0.00244,-0.00488,-0.0488,-0.06832,-0.0976,-0.08784,-0.06832
-0.04392,0.05368,-0.06344,-0.04148,-0.01952,-0.0122,-0.00488,-0.03904,-0.06832,-0.09272,-0.0976,-0.06832
-0.04392,0.05368,-0.06344,-0.04148,-0.01952,-0.0122,0.00488,-0.01952,-0.0488,-0.08784,-0.09272,-0.06832
-0.04392,0.05856,-0.0732,-0.05124,-0.02928,-0.00732,0.00976,-0.01952,-0.0488,-0.09272,-0.09272,-0.06832
-0.04392,0.05856,-0.0732,-0.05124,-0.02928,-0.00732,0.00976,-0.01464,-0.0488,-0.08784,-0.08784,-0.06832
-0.0488,0.05856,-0.06832,-0.04392,-0.01952,-0.01464,0.00976,-0.00488,-0.03904,-0.08296,-0.07808,-0.06832
-0.04392,0.05612,-0.06832,-0.04636,-0.0244,-0.00976,0.00976,0.00976,-0.03416,-0.08296,-0.07808,-0.06832
-0.04392,0.05368,-0.06344,-0.04148,-0.01952,-0.0122,0.01464,0.00488,-0.0244,-0.06832,-0.08296,-0.06344
-0.04392,0.05368,-0.06344,-0.04148,-0.01952,-0.0122,0.01464,0.00976,-0.0244,-0.06344,-0.07808,-0.06344
-0.03416,0.05368,-0.0732,-0.05612,-0.03904,0.00244,0.01952,0.01464,-0.01464,-0.06344,-0.07808,-0.06344
-0.03416,0.05124,-0.06832,-0.05124,-0.03416,0,0.01952,0.01464,-0.01464,-0.06344,-0.0732,-0.06344
-0.02928,0.05124,-0.0732,-0.05856,-0.04392,0.00732,0.00976,0.02928,-0.00976,-0.05856,-0.0732,-0.05856
-0.02928,0.0488,-0.06832,-0.05368,-0.03904,0.00488,0.01464,0.03416,0,-0.05368,-0.06832,-0.05856
-0.02928,0.04636,-0.06344,-0.0488,-0.03416,0.00244,0.0244,0.04392,0.00488,-0.0488,-0.06832,-0.05856
-0.0244,0.04392,-0.06344,-0.05124,-0.03904,0.00732,0.0244,0.05368,0.00976,-0.04392,-0.06344,-0.05856
-0.0244,0.0488,-0.0732,-0.061,-0.0488,0.0122,0.02928,0.06832,0.01952,-0.03904,-0.05368,-0.05856
-0.01952,0.04636,-0.0732,-0.06344,-0.05368,0.01708,0.0244,0.0732,0.01952,-0.03904,-0.05368,-0.05856
-0.02928,0.04392,-0.05856,-0.04392,-0.02928,0,0.02928,0.08296,0.03416,-0.01952,-0.0488,-0.05368
-0.02928,0.04392,-0.05856,-0.04392,-0.02928,0,0.02928,0.09272,0.0488,-0.01952,-0.04392,-0.05368
-0.01464,0.03416,-0.05368,-0.04636,-0.03904,0.0122,0.03416,0.09272,0.0488,-0.01464,-0.04392,-0.05368
-0.01464,0.03416,-0.05368,-0.04636,-0.03904,0.0122,0.03416,0.10248,0.05368,-0.00488,-0.03904,-0.0488
-0.01952,0.02928,-0.03904,-0.02928,-0.01952,0,0.0488,0.10736,0.06832,0.00488,-0.03416,-0.0488
-0.01952,0.02928,-0.03904,-0.02928,-0.01952,0,0.05368,0.122,0.07808,0.00976,-0.0244,-0.04392
-0.00976,0.0244,-0.03904,-0.03416,-0.02928,0.00976,0.04392,0.1464,0.0976,0.01952,-0.01952,-0.03904
-0.00488,0.01952,-0.03416,-0.03172,-0.02928,0.0122,0.0488,0.16104,0.10736,0.0244,-0.01952,-0.03904
-0.00976,0.0244,-0.03904,-0.03416,-0.02928,0.00976,0.05368,0.1708,0.11224,0.02928,-0.01952,-0.03904
-0.00488,0.01952,-0.03416,-0.03172,-0.02928,0.0122,0.05368,0.18544,0.122,0.03904,-0.01952,-0.03416
0,0.01464,-0.02928,-0.02928,-0.02928,0.01464,0.06344,0.20984,0.15128,0.05856,-0.00488,-0.02928
0,0.01464,-0.02928,-0.02928,-0.02928,0.01464,0.06832,0.22936,0.1708,0.0732,0.00488,-0.02928
0.01464,0.00976,-0.03416,-0.04148,-0.0488,0.03172,0.08784,0.244,0.17568,0.08296,0.01464,-0.01464
0.0244,0,-0.0244,-0.0366,-0.0488,0.0366,0.08784,0.26352,0.1952,0.0976,0.01464,-0.01464
0.0244,0,-0.0244,-0.0366,-0.0488,0.0366,0.08784,0.28792,0.20984,0.11224,0.01952,-0.01952
0.02928,-0.00732,-0.01464,-0.02928,-0.04392,0.0366,0.08784,0.30744,0.22448,0.12688,0.02928,-0.01464
0.04392,-0.02196,0,-0.02196,-0.04392,0.04392,0.10248,0.32696,0.24888,0.13664,0.03904,-0.00488
0.0488,-0.02684,0.00488,-0.01952,-0.04392,0.04636,0.11712,0.35136,0.26352,0.15128,0.04392,0
0.05368,-0.0366,0.01952,-0.00732,-0.03416,0.04392,0.11224,0.37576,0.28304,0.1708,0.05368,0
0.05856,-0.04636,0.03416,0.00488,-0.0244,0.04148,0.11224,0.39528,0.29768,0.18544,0.05856,0.00488
0.05856,-0.04392,0.02928,0,-0.02928,0.04392,0.12688,0.40992,0.31232,0.1952,0.0732,0.01464
0.06344,-0.05124,0.03904,0.00732,-0.0244,0.04392,0.13176,0.41968,0.32696,0.20984,0.0732,0.0244
0.05856,-0.05124,0.04392,0.01464,-0.01464,0.0366,0.13664,0.4392,0.33672,0.2196,0.07808,0.02928
0.05368,-0.05368,0.05368,0.02684,0,0.02684,0.13664,0.44896,0.3416,0.2196,0.08296,0.03416
0.06344,-0.05856,0.05368,0.02196,-0.00976,0.0366,0.14152,0.45384,0.3416,0.22448,0.0976,0.02928
0.06832,-0.06344,0.05856,0.0244,-0.00976,0.03904,0.14152,0.45384,0.34648,0.22936,0.10248,0.02928
0.06832,-0.07076,0.0732,0.03904,0.00488,0.03172,0.13176,0.44896,0.35136,0.22936,0.10736,0.0488
0.06832,-0.0732,0.07808,0.04392,0.00976,0.02928,0.13176,0.44896,0.35136,0.23424,0.10736,0.0488
0.0732,-0.0732,0.0732,0.0366,0,0.0366,0.14152,0.4392,0.3416,0.23424,0.10736,0.04392
0.0732,-0.0732,0.0732,0.0366,0,0.0366,0.13176,0.42944,0.33184,0.2196,0.11224,0.0488
0.0732,-0.07564,0.07808,0.04148,0.00488,0.03416,0.122,0.41968,0.32696,0.2196,0.10248,0.0488
0.0732,-0.07808,0.08296,0.04636,0.00976,0.03172,0.10736,0.39528,0.31232,0.20984,0.10248,0.05368
0.06344,-0.06832,0.0732,0.04148,0.00976,0.02684,0.10248,0.366,0.30256,0.20496,0.10248,0.05368
0.05856,-0.06588,0.0732,0.04392,0.01464,0.02196,0.09272,0.33672,0.28304,0.1952,0.0976,0.05368
0.06832,-0.07808,0.08784,0.05368,0.01952,0.0244,0.08784,0.31232,0.25864,0.17568,0.0976,0.05856
0.06344,-0.0732,0.08296,0.05124,0.01952,0.02196,0.07808,0.28792,0.22936,0.16592,0.09272,0.05856
0.05368,-0.06344,0.0732,0.04636,0.01952,0.01708,0.08296,0.24888,0.20984,0.15128,0.09272,0.06344
0.05368,-0.061,0.06832,0.04148,0.01464,0.01952,0.06832,0.21472,0.20496,0.13664,0.08296,0.05856
0.04392,-0.05124,0.05856,0.0366,0.01464,0.01464,0.05368,0.20008,0.16592,0.13176,0.08296,0.05856
0.04392,-0.05124,0.05856,0.0366,0.01464,0.01464,0.04392,0.1708,0.1464,0.11712,0.07808,0.0488
0.03416,-0.0366,0.03904,0.02196,0.00488,0.01464,0.04392,0.1464,0.12688,0.10736,0.05856,0.04392
0.0244,-0.03172,0.03904,0.02684,0.01464,0.00488,0.03416,0.12688,0.10736,0.08784,0.0488,0.03416
0.01952,-0.01952,0.01952,0.00976,0,0.00976,0.03416,0.10736,0.09272,0.06344,0.03904,0.02928
0.00976,-0.00976,0.00976,0.00488,0,0.00488,0.03416,0.08784,0.0732,0.0488,0.02928,0.0244
0.01464,-0.01464,0.01464,0.00732,0,0.00732,0.02928,0.05856,0.06344,0.0488,0.02928,0.00976
0.01464,-0.0122,0.00976,0.00244,-0.00488,0.00976,0.0244,0.0488,0.05856,0.03416,0.01952,0
-0.00488,0.00488,-0.00488,-0.00244,0,-0.00244,0.02928,0.03904,0.03904,0.03416,0.01464,-0.00488
-0.00488,0.0122,-0.01952,-0.01708,-0.01464,0.00488,0.02928,0.02928,0.0244,0.0244,0.00976,-0.00488
-0.00488,0.00732,-0.00976,-0.00732,-0.00488,0,0.01952,0.01464,0.01464,0.01952,0,-0.01464
-0.01464,0.0122,-0.00976,-0.00244,0.00488,-0.00976,0.01464,0.00976,0.00976,0.00976,0,-0.01464
-0.01464,0.01708,-0.01952,-0.0122,-0.00488,-0.00488,0.01464,0.00976,0.00488,0,-0.01464,-0.01464
-0.01464,0.01708,-0.01952,-0.0122,-0.00488,-0.00488,0.00976,0.00488,0,-0.00976,-0.01952,-0.0244
-0.01952,0.0244,-0.02928,-0.01952,-0.00976,-0.00488,0.00976,0,0.00976,-0.00488,-0.00976,-0.0244
-0.01952,0.0244,-0.02928,-0.01952,-0.00976,-0.00488,0.00976,-0.00488,0.00488,-0.00488,-0.01464,-0.0244
-0.01952,0.0244,-0.02928,-0.01952,-0.00976,-0.00488,0.00976,-0.00488,0,-0.00488,-0.01464,-0.01464
-0.01952,0.02928,-0.03904,-0.02928,-0.01952,0,0.00976,-0.00488,0,-0.00488,-0.01952,-0.01464
-0.02928,0.0366,-0.04392,-0.02928,-0.01464,-0.00732,0.01952,-0.00488,0,-0.00488,-0.01952,-0.01464
-0.02928,0.0366,-0.04392,-0.02928,-0.01464,-0.00732,0.01952,-0.00488,0,-0.00488,-0.01952,-0.01464
-0.01952,0.04148,-0.06344,-0.05368,-0.04392,0.0122,0.01952,-0.00488,-0.00976,-0.00976,-0.01952,-0.01464
-0.0244,0.04148,-0.05856,-0.04636,-0.03416,0.00488,0.01952,-0.00488,-0.00976,-0.00976,-0.01952,-0.01464
-0.0244,0.0366,-0.0488,-0.0366,-0.0244,0,0.01464,-0.01464,-0.00976,-0.00976,-0.01952,-0.01464
-0.0244,0.03416,-0.04392,-0.03172,-0.01952,-0.00244,0.01952,-0.01464,-0.01464,-0.00976,-0.0244,-0.01464
-0.0244,0.03172,-0.03904,-0.02684,-0.01464,-0.00488,0.01952,-0.00488,-0.00976,-0.00976,-0.0244,-0.0244
-0.0244,0.03172,-0.03904,-0.02684,-0.01464,-0.00488,0.01952,-0.00488,-0.01464,-0.01464,-0.0244,-0.0244
-0.0244,0.0366,-0.0488,-0.0366,-0.0244,0,0.02928,-0.00488,-0.00488,-0.01464,-0.01464,-0.01952
-0.0244,0.0366,-0.0488,-0.0366,-0.0244,0,0.02928,-0.00488,-0.00488,-0.01464,-0.01464,-0.01952
-0.02928,0.03904,-0.0488,-0.03416,-0.01952,-0.00488,0.01952,-0.00488,-0.00488,-0.01464,-0.0244,-0.01952
-0.02928,0.0366,-0.04392,-0.02928,-0.01464,-0.00732,0.0244,-0.00488,-0.00488,-0.01464,-0.0244,-0.01952
-0.01464,0.02928,-0.04392,-0.0366,-0.02928,0.00732,0.0244,0,-0.00488,-0.01464,-0.01464,-0.01952
-0.01464,0.03172,-0.0488,-0.04148,-0.03416,0.00976,0.02928,-0.00488,-0.00488,-0.01464,-0.01464,-0.01952
-0.0244,0.0366,-0.0488,-0.0366,-0.0244,0,0.02928,0.00488,0,-0.01464,-0.0244,-0.00976
-0.0244,0.0366,-0.0488,-0.0366,-0.0244,0,0.0244,0.00488,-0.00488,-0.01464,-0.0244,-0.00976
-0.0244,0.03904,-0.05368,-0.04148,-0.02928,0.00244,0.0244,0.00488,-0.00488,-0.01464,-0.02928,-0.01952
-0.0244,0.03904,-0.05368,-0.04148,-0.02928,0.00244,0.0244,0.00488,-0.00488,-0.01464,-0.02928,-0.01952
-0.0244,0.03904,-0.05368,-0.04148,-0.02928,0.00244,0.0244,-0.00488,-0.00488,-0.01464,-0.02928,-0.01952
-0.0244,0.03904,-0.05368,-0.04148,-0.02928,0.00244,0.0244,-0.00488,-0.00488,-0.01464,-0.02928,-0.01952
-0.0244,0.03904,-0.05368,-0.04148,-0.02928,0.00244,0.02928,0.00488,0.00488,-0.01952,-0.01952,-0.00976
-0.0244,0.04148,-0.05856,-0.04636,-0.03416,0.00488,0.02928,0,0.00488,-0.01952,-0.01952,-0.00488
-0.03416,0.04392,-0.05368,-0.0366,-0.01952,-0.00732,0.02928,0,0.00488,-0.01952,-0.0244,-0.00488
-0.03416,0.04392,-0.05368,-0.0366,-0.01952,-0.00732,0.02928,0,0.00488,-0.01952,-0.0244,-0.00976
-0.03416,0.04392,-0.05368,-0.0366,-0.01952,-0.00732,0.01952,-0.00488,0,-0.01952,-0.01464,0
-0.03416,0.04392,-0.05368,-0.0366,-0.01952,-0.00732,0.01464,-0.00488,-0.00488,-0.0244,-0.01464,0
-0.0244,0.03904,-0.05368,-0.04148,-0.02928,0.00244,0.01952,-0.00976,-0.01464,-0.0244,-0.0244,-0.00976
-0.0244,0.04148,-0.05856,-0.04636,-0.03416,0.00488,0.01952,-0.00976,-0.01464,-0.0244,-0.0244,-0.00976
-0.02928,0.04148,-0.05368,-0.03904,-0.0244,-0.00244,0.01464,-0.00976,-0.01464,-0.0244,-0.01952,-0.00976
-0.02928,0.04392,-0.05856,-0.04392,-0.02928,0,0.01464,-0.00976,-0.01952,-0.02928,-0.01464,-0.00976
-0.0244,0.04636,-0.06832,-0.05612,-0.04392,0.00976,0.0244,-0.00976,-0.00976,-0.01952,-0.01464,-0.00976
-0.0244,0.05124,-0.07808,-0.06588,-0.05368,0.01464,0.01952,-0.00976,-0.01464,-0.0244,-0.01952,-0.00976
-0.0244,0.0488,-0.0732,-0.061,-0.0488,0.0122,0.01952,-0.01464,-0.01464,-0.0244,-0.01952,0
-0.0244,0.0488,-0.0732,-0.061,-0.0488,0.0122,0.01952,-0.01464,-0.01952,-0.0244,-0.01952,0
-0.0244,0.04392,-0.06344,-0.05124,-0.03904,0.00732,0.00976,-0.01464,-0.01952,-0.02928,-0.01952,-0.00976
-0.0244,0.03904,-0.05368,-0.04148,-0.02928,0.00244,0.00976,-0.01952,-0.0244,-0.03416,-0.0244,-0.00976
-0.02928,0.0488,-0.06832,-0.05368,-0.03904,0.00488,0.01952,-0.00976,-0.0244,-0.03416,-0.01464,0
-0.02928,0.04636,-0.06344,-0.0488,-0.03416,0.00244,0.01952,-0.01464,-0.02928,-0.03416,-0.01464,-0.00488
-0.02928,0.05124,-0.0732,-0.05856,-0.04392,0.00732,0.01952,-0.01464,-0.03904,-0.04392,-0.02928,-0.01464
-0.0244,0.05612,-0.08784,-0.07564,-0.06344,0.01952,0.01464,-0.01464,-0.03904,-0.0488,-0.0244,-0.01464
-0.0244,0.05124,-0.07808,-0.06588,-0.05368,0.01464,0.00488,-0.0244,-0.03904,-0.0488,-0.02928,-0.01464
-0.02928,0.0488,-0.06832,-0.05368,-0.03904,0.00488,0.00488,-0.0244,-0.04392,-0.04392,-0.02928,-0.01464
-0.02928,0.04636,-0.06344,-0.0488,-0.03416,0.00244,0.01464,-0.03416,-0.04392,-0.05368,-0.02928,-0.01464
-0.02928,0.04636,-0.06344,-0.0488,-0.03416,0.00244,0.01464,-0.03416,-0.04392,-0.05368,-0.02928,-0.01464
-0.02928,0.0488,-0.06832,-0.05368,-0.03904,0.00488,0.01464,-0.02928,-0.03416,-0.04392,-0.02928,-0.01464
-0.02928,0.0488,-0.06832,-0.05368,-0.03904,0.00488,0.01464,-0.03416,-0.03904,-0.05368,-0.02928,-0.01464
-0.01952,0.04636,-0.0732,-0.06344,-0.05368,0.01708,0.01952,-0.0244,-0.03904,-0.04392,-0.02928,-0.00976
-0.01952,0.04392,-0.06832,-0.05856,-0.0488,0.01464,0.01952,-0.02928,-0.03904,-0.0488,-0.03416,-0.00976
-0.02928,0.05368,-0.07808,-0.06344,-0.0488,0.00976,0.00976,-0.02928,-0.0488,-0.05856,-0.03416,-0.01952
-0.02928,0.05368,-0.07808,-0.06344,-0.0488,0.00976,0.00976,-0.02928,-0.05368,-0.06344,-0.03904,-0.0244
-0.03904,0.06344,-0.08784,-0.06832,-0.0488,0.00488,0.01952,-0.02928,-0.04392,-0.05368,-0.03904,-0.01464
-0.04392,0.06588,-0.08784,-0.06588,-0.04392,0,0.01952,-0.02928,-0.04392,-0.0488,-0.03904,-0.01464
-0.04392,0.05856,-0.0732,-0.05124,-0.02928,-0.00732,0.00976,-0.03904,-0.0488,-0.05856,-0.0488,-0.0244
-0.03904,0.0488,-0.05856,-0.03904,-0.01952,-0.00976,0.00976,-0.03904,-0.0488,-0.05856,-0.05368,-0.0244
-0.04392,0.061,-0.07808,-0.05612,-0.03416,-0.00488,0.00976,-0.03904,-0.04392,-0.05856,-0.04392,-0.00976
-0.03904,0.06344,-0.08784,-0.06832,-0.0488,0.00488,0.00976,-0.03904,-0.04392,-0.06344,-0.02928,-0.01464
-0.03904,0.05856,-0.07808,-0.05856,-0.03904,0,0.00976,-0.03904,-0.05368,-0.06344,-0.03904,-0.0244
-0.03904,0.05856,-0.07808,-0.05856,-0.03904,0,0.01464,-0.03904,-0.05368,-0.06344,-0.04392,-0.0244
-0.03904,0.06344,-0.08784,-0.06832,-0.0488,0.00488,0.01952,-0.02928,-0.04392,-0.06832,-0.03904,-0.01464
-0.03904,0.06344,-0.08784,-0.06832,-0.0488,0.00488,0.01952,-0.0244,-0.03904,-0.06344,-0.03416,-0.01464
-0.03416,0.061,-0.08784,-0.07076,-0.05368,0.00976,0.01464,-0.02928,-0.04392,-0.06832,-0.04392,-0.01464
-0.03416,0.05612,-0.07808,-0.061,-0.04392,0.00488,0.01464,-0.03416,-0.04392,-0.06344,-0.03904,-0.01464
-0.02928,0.06344,-0.0976,-0.08296,-0.06832,0.01952,0.01464,-0.04392,-0.04392,-0.06344,-0.03904,-0.0244
-0.02928,0.06344,-0.0976,-0.08296,-0.06832,0.01952,0.0244,-0.03416,-0.04392,-0.05368,-0.0488,-0.0244
-0.02928,0.05856,-0.08784,-0.0732,-0.05856,0.01464,0.01952,-0.03904,-0.0488,-0.06832,-0.03904,-0.01952
-0.02928,0.05856,-0.08784,-0.0732,-0.05856,0.01464,0.01952,-0.03904,-0.0488,-0.06832,-0.03904,-0.01952
-0.02928,0.05124,-0.0732,-0.05856,-0.04392,0.00732,0.01952,-0.03904,-0.0488,-0.06832,-0.03904,-0.01952
-0.02928,0.04636,-0.06344,-0.0488,-0.03416,0.00244,0.0244,-0.0244,-0.04392,-0.06344,-0.03904,-0.01952
-0.0244,0.04392,-0.06344,-0.05124,-0.03904,0.00732,0.02928,-0.0244,-0.03416,-0.05368,-0.02928,-0.00488
-0.01952,0.03416,-0.0488,-0.03904,-0.02928,0.00488,0.02928,-0.01952,-0.02928,-0.05368,-0.0244,0
-0.00976,0.02196,-0.03416,-0.02928,-0.0244,0.00732,0.03416,-0.01464,-0.01952,-0.03904,-0.00488,0.01464
-0.00976,0.01464,-0.01952,-0.01464,-0.00976,0,0.03904,-0.00488,-0.00976,-0.03416,-0.00488,0.01952
0,0.0122,-0.0244,-0.0244,-0.0244,0.0122,0.04392,0.00488,-0.00976,-0.0244,-0.00488,0.0244
0,0.0122,-0.0244,-0.0244,-0.0244,0.0122,0.04392,0.00488,-0.00488,-0.01952,0,0.01952
0.00976,0.01708,-0.04392,-0.0488,-0.05368,0.03172,0.04392,0,-0.00976,-0.0244,-0.00976,0.00976
0.00976,0.01952,-0.0488,-0.05368,-0.05856,0.03416,0.02928,0,-0.00976,-0.0244,-0.01464,0.00976
0.00976,0.01708,-0.04392,-0.0488,-0.05368,0.03172,0.00976,-0.00976,-0.01952,-0.03416,0,0.00976
0.00976,0.00976,-0.02928,-0.03416,-0.03904,0.0244,0,-0.01464,-0.01952,-0.03416,0,0.01952
0.01464,-0.00732,0,-0.00732,-0.01464,0.01464,0.00976,-0.00488,0,-0.01464,0.01464,0.04392
0.0244,-0.01708,0.00976,-0.00244,-0.01464,0.01952,0.00488,0.00488,0.00488,0.00488,0.0244,0.0488
0.03416,-0.00976,-0.01464,-0.03172,-0.0488,0.04148,0,-0.00976,-0.00488,-0.00488,0.0244,0.0488
0.03416,-0.00732,-0.01952,-0.0366,-0.05368,0.04392,0.00488,-0.00976,-0.00488,-0.00488,0.01952,0.0488
0.04392,-0.00732,-0.02928,-0.05124,-0.0732,0.05856,-0.00976,-0.0244,-0.01952,-0.02928,0.00976,0.03416
0.03904,0.00732,-0.05368,-0.0732,-0.09272,0.06588,-0.01952,-0.0488,-0.0488,-0.05368,-0.00976,0.0244
0.03416,0.0122,-0.05856,-0.07564,-0.09272,0.06344,-0.01952,-0.0488,-0.04392,-0.0488,-0.00488,0.03416
0.02928,0.01708,-0.06344,-0.07808,-0.09272,0.061,-0.01952,-0.0488,-0.04392,-0.0488,-0.00488,0.03416
0.02928,0.02196,-0.0732,-0.08784,-0.10248,0.06588,-0.00488,-0.03416,-0.03416,-0.03416,0,0.02928
0,0.04148,-0.08296,-0.08296,-0.08296,0.04148,0,-0.03416,-0.03904,-0.04392,-0.00488,0.0244
-0.0244,0.06344,-0.10248,-0.09028,-0.07808,0.02684,0.00976,-0.03416,-0.03416,-0.0488,-0.0244,0.00488
-0.02928,0.06588,-0.10248,-0.08784,-0.0732,0.02196,0.00976,-0.04392,-0.04392,-0.05856,-0.03904,0
-0.04392,0.0732,-0.10248,-0.08052,-0.05856,0.00732,0.01464,-0.04392,-0.0488,-0.0732,-0.04392,0
-0.04392,0.07808,-0.11224,-0.09028,-0.06832,0.0122,0.00976,-0.05368,-0.05368,-0.0732,-0.0488,-0.00976
-0.03904,0.08052,-0.122,-0.10248,-0.08296,0.02196,0.00976,-0.05368,-0.06344,-0.08296,-0.06344,-0.00976
-0.04392,0.08784,-0.13176,-0.1098,-0.08784,0.02196,0.00976,-0.05856,-0.06832,-0.09272,-0.05856,-0.01464
-0.0488,0.09516,-0.14152,-0.11712,-0.09272,0.02196,0.00488,-0.06344,-0.08296,-0.10736,-0.06832,-0.0244
-0.0488,0.09516,-0.14152,-0.11712,-0.09272,0.02196,0.00488,-0.06832,-0.08296,-0.10736,-0.06832,-0.0244
-0.0488,0.09516,-0.14152,-0.11712,-0.09272,0.02196,0.01464,-0.05368,-0.07808,-0.10248,-0.0732,-0.0244
-0.0488,0.09272,-0.13664,-0.11224,-0.08784,0.01952,0.01464,-0.05368,-0.0732,-0.10248,-0.06832,-0.0244
-0.0488,0.09516,-0.14152,-0.11712,-0.09272,0.02196,0.00488,-0.05368,-0.0732,-0.08784,-0.05856,-0.0244
-0.04392,0.09028,-0.13664,-0.11468,-0.09272,0.0244,0.00976,-0.05368,-0.0732,-0.08784,-0.05856,-0.0244
-0.0488,0.09272,-0.13664,-0.11224,-0.08784,0.01952,0.00976,-0.05368,-0.06832,-0.0732,-0.05856,-0.01464
-0.0488,0.09272,-0.13664,-0.11224,-0.08784,0.01952,0.00976,-0.0488,-0.06832,-0.07808,-0.05856,-0.01464
-0.0488,0.09028,-0.13176,-0.10736,-0.08296,0.01708,0.01952,-0.03416,-0.05856,-0.08784,-0.06832,-0.01952
-0.07808,0.11224,-0.1464,-0.10736,-0.06832,-0.00488,0.06344,0.03416,-0.01464,-0.06832,-0.07808,-0.06344
-0.06832,0.10736,-0.1464,-0.11224,-0.07808,0.00488,0.16592,0.20008,0.10736,-0.01464,-0.08784,-0.10248
-0.0732,0.08784,-0.10248,-0.06588,-0.02928,-0.02196,0.26352,0.39528,0.27816,0.10248,-0.06344,-0.10736
0.00488,0.00488,-0.01464,-0.01708,-0.01952,0.0122,0.35136,0.66856,0.58072,0.39528,0.122,-0.0244
0.1708,-0.15616,0.14152,0.05612,-0.02928,0.10004,0.366,0.976,0.96624,0.81008,0.488,0.1952
0.43432,-0.34404,0.25376,0.0366,-0.18056,0.30744,0.22448,0.93208,1.11264,1.10288,0.8784,0.50264
0.66368,-0.4758,0.28792,-0.04392,-0.37576,0.51972,-0.03904,0.50264,0.9272,1.17608,1.1956,0.8296
0.8052,-0.64172,0.47824,0.07564,-0.32696,0.56608,-0.35624,-0.11712,0.61,1.15168,1.44448,1.11264
0.6588,-0.6344,0.61,0.2806,-0.0488,0.3538,-0.52704,-0.72224,0.11712,0.84912,1.38592,1.18584
0.41968,-0.488,0.55632,0.34648,0.13664,0.14152,-0.51728,-1.0004,-0.27328,0.41968,1.05896,1.0248
0.20008,-0.22936,0.25864,0.1586,0.05856,0.07076,-0.54168,-1.35176,-0.88816,-0.35624,0.37088,0.65392
-0.0976,0.05612,-0.01464,0.03416,0.08296,-0.09028,-0.56608,-1.62504,-1.38104,-1.01992,-0.27328,0.23424
-0.22936,0.19764,-0.16592,-0.05124,0.06344,-0.1464,-0.5124,-1.51768,-1.30784,-1.01016,-0.41968,0.03416
-0.25864,0.2318,-0.20496,-0.07564,0.05368,-0.15616,-0.488,-1.34688,-1.1712,-0.94672,-0.42944,-0.01464
-0.22936,0.23424,-0.23912,-0.12444,-0.00976,-0.1098,-0.43432,-1.10776,-1.0004,-0.84912,-0.43432,-0.05856
-0.20496,0.21716,-0.22936,-0.12688,-0.0244,-0.09028,-0.33672,-0.8052,-0.73688,-0.65392,-0.37088,-0.07808
-0.14152,0.16592,-0.19032,-0.11956,-0.0488,-0.04636,-0.2928,-0.60512,-0.52704,-0.45384,-0.26352,-0.06832
-0.09272,0.1098,-0.12688,-0.08052,-0.03416,-0.02928,-0.22448,-0.45384,-0.40016,-0.34648,-0.1708,-0.03904
-0.0732,0.0854,-0.0976,-0.061,-0.0244,-0.0244,-0.13664,-0.28792,-0.26352,-0.25376,-0.13176,-0.01464
-0.05856,0.0976,-0.13664,-0.10736,-0.07808,0.00976,-0.04392,-0.14152,-0.1464,-0.16592,-0.10736,-0.00976
-0.06344,0.1098,-0.15616,-0.12444,-0.09272,0.01464,-0.01952,-0.0976,-0.0976,-0.12688,-0.10248,-0.03416
-0.04392,0.09516,-0.1464,-0.12444,-0.10248,0.02928,-0.0244,-0.08296,-0.09272,-0.10736,-0.06344,-0.03904
-0.0488,0.09272,-0.13664,-0.11224,-0.08784,0.01952,-0.01464,-0.06832,-0.08784,-0.10248,-0.05856,-0.02928
-0.04392,0.09272,-0.14152,-0.11956,-0.0976,0.02684,0.00488,-0.03416,-0.05856,-0.09272,-0.06832,-0.0244
-0.04392,0.10736,-0.1708,-0.14884,-0.12688,0.04148,0.0244,-0.00976,-0.03416,-0.06344,-0.05856,-0.0244
-0.04392,0.10736,-0.1708,-0.14884,-0.12688,0.04148,0.0244,-0.00976,-0.03904,-0.05856,-0.0488,-0.0244
-0.04392,0.10736,-0.1708,-0.14884,-0.12688,0.04148,0.0244,-0.01952,-0.02928,-0.05856,-0.0488,-0.01952
-0.04392,0.10736,-0.1708,-0.14884,-0.12688,0.04148,0.02928,-0.00488,-0.01952,-0.0488,-0.04392,-0.01952
-0.04392,0.10736,-0.1708,-0.14884,-0.12688,0.04148,0.03416,0.00976,-0.01464,-0.04392,-0.05368,-0.01952
-0.04392,0.10736,-0.1708,-0.14884,-0.12688,0.04148,0.03904,0.01464,-0.00976,-0.03904,-0.05368,-0.01952
-0.03904,0.10492,-0.1708,-0.15128,-0.13176,0.04636,0.03904,0.0244,0,-0.02928,-0.0488,-0.02928
-0.03904,0.10248,-0.16592,-0.1464,-0.12688,0.04392,0.03904,0.03416,0.00488,-0.0244,-0.0488,-0.02928
-0.0244,0.10004,-0.17568,-0.16348,-0.15128,0.06344,0.0488,0.04392,0.00976,-0.00976,-0.04392,-0.0244
-0.0244,0.10248,-0.18056,-0.16836,-0.15616,0.06588,0.05368,0.04392,0.01464,-0.00488,-0.04392,-0.0244
-0.03416,0.10736,-0.18056,-0.16348,-0.1464,0.05612,0.04392,0.0488,0.01952,-0.00976,-0.03904,-0.01464
-0.03416,0.10736,-0.18056,-0.16348,-0.1464,0.05612,0.0488,0.05368,0.0244,-0.00488,-0.03416,-0.01464
-0.03904,0.11224,-0.18544,-0.16592,-0.1464,0.05368,0.0488,0.0488,0.01952,-0.00488,-0.0244,-0.01464
-0.03904,0.11468,-0.19032,-0.1708,-0.15128,0.05612,0.05368,0.06344,0.02928,0.00488,-0.0244,-0.00976
-0.02928,0.10004,-0.1708,-0.15616,-0.14152,0.05612,0.05368,0.06344,0.02928,0.01952,-0.01952,-0.00976
-0.0244,0.0976,-0.1708,-0.1586,-0.1464,0.061,0.05368,0.0732,0.03416,0.0244,-0.01952,-0.00976
-0.0244,0.0976,-0.1708,-0.1586,-0.1464,0.061,0.05856,0.08296,0.05368,0.0244,-0.01464,-0.00976
-0.01952,0.09516,-0.1708,-0.16104,-0.15128,0.06588,0.05856,0.09272,0.05856,0.02928,-0.01464,-0.00976
-0.01952,0.0976,-0.17568,-0.16592,-0.15616,0.06832,0.06344,0.09272,0.0488,0.03416,-0.0244,-0.01952
-0.01952,0.0976,-0.17568,-0.16592,-0.15616,0.06832,0.06832,0.10736,0.06344,0.03904,-0.01952,-0.01464
-0.01952,0.0976,-0.17568,-0.16592,-0.15616,0.06832,0.0732,0.11712,0.08296,0.03416,-0.01464,-0.01464
-0.01464,0.09272,-0.1708,-0.16348,-0.15616,0.07076,0.0732,0.12688,0.08784,0.0488,-0.01464,-0.01464
-0.00976,0.09028,-0.1708,-0.16592,-0.16104,0.07564,0.06832,0.13664,0.10248,0.06832,-0.00976,0
-0.00976,0.08784,-0.16592,-0.16104,-0.15616,0.0732,0.0732,0.14152,0.11224,0.0732,-0.00488,0
-0.00976,0.08784,-0.16592,-0.16104,-0.15616,0.0732,0.08296,0.16592,0.122,0.09272,0.01952,0.00488
-0.00488,0.08296,-0.16104,-0.1586,-0.15616,0.07564,0.08784,0.1708,0.13176,0.0976,0.01952,0.00976
0,0.07808,-0.15616,-0.15616,-0.15616,0.07808,0.09272,0.1952,0.14152,0.10248,0.03416,0.00976
0.00488,0.0732,-0.15128,-0.15372,-0.15616,0.08052,0.09272,0.20984,0.15616,0.11224,0.03904,0.01464
0.00488,0.07808,-0.16104,-0.16348,-0.16592,0.0854,0.08784,0.2196,0.1708,0.122,0.02928,0.00488
0.00976,0.0732,-0.15616,-0.16104,-0.16592,0.08784,0.09272,0.23912,0.19032,0.13664,0.04392,0.00976
0.00976,0.06832,-0.1464,-0.15128,-0.15616,0.08296,0.0976,0.25376,0.19032,0.1464,0.03904,0
0.01952,0.05612,-0.13176,-0.14152,-0.15128,0.0854,0.10736,0.27328,0.21472,0.16104,0.04392,0.00488
0.0244,0.04392,-0.11224,-0.12444,-0.13664,0.08052,0.10736,0.2928,0.23912,0.18056,0.05368,0.01952
0.02928,0.0366,-0.10248,-0.11712,-0.13176,0.08052,0.11712,0.3172,0.25864,0.18544,0.06344,0.01952
0.03904,0.03416,-0.10736,-0.12688,-0.1464,0.09272,0.12688,0.34648,0.27816,0.20496,0.08296,0.03416
0.04392,0.03172,-0.10736,-0.12932,-0.15128,0.0976,0.14152,0.366,0.2928,0.22448,0.08784,0.0488
0.03904,0.0366,-0.11224,-0.13176,-0.15128,0.09516,0.15128,0.38064,0.31232,0.23424,0.0976,0.0488
0.0488,0.02928,-0.10736,-0.13176,-0.15616,0.10248,0.15128,0.39528,0.32208,0.24888,0.10736,0.05368
0.03904,0.0244,-0.08784,-0.10736,-0.12688,0.08296,0.14152,0.42456,0.33672,0.24888,0.11712,0.05368
0.03904,0.02196,-0.08296,-0.10248,-0.122,0.08052,0.15128,0.43432,0.34648,0.25864,0.122,0.05856
0.05856,0.00732,-0.0732,-0.10248,-0.13176,0.09516,0.15128,0.44408,0.36112,0.28304,0.12688,0.06344
0.05856,0.00732,-0.0732,-0.10248,-0.13176,0.09516,0.15616,0.45872,0.37088,0.28792,0.13176,0.06832
0.06344,-0.00488,-0.05368,-0.0854,-0.11712,0.09028,0.15616,0.45872,0.38064,0.28304,0.13664,0.06344
0.06832,-0.00976,-0.0488,-0.08296,-0.11712,0.09272,0.16104,0.4636,0.38552,0.28792,0.13664,0.06832
0.06832,-0.00732,-0.05368,-0.08784,-0.122,0.09516,0.16104,0.47824,0.38064,0.29768,0.14152,0.08296
0.06832,-0.00976,-0.0488,-0.08296,-0.11712,0.09272,0.16104,0.47824,0.38064,0.30256,0.1464,0.08784
0.06832,-0.00732,-0.05368,-0.08784,-0.122,0.09516,0.16104,0.47824,0.38064,0.30256,0.15616,0.09272
0.0732,-0.00976,-0.05368,-0.09028,-0.12688,0.10004,0.15616,0.4636,0.37576,0.29768,0.15616,0.0976
0.0732,-0.01708,-0.03904,-0.07564,-0.11224,0.09272,0.15128,0.45384,0.37088,0.28792,0.15128,0.0976
0.0732,-0.01708,-0.03904,-0.07564,-0.11224,0.09272,0.1464,0.43432,0.36112,0.28304,0.15128,0.0976
0.0732,-0.0244,-0.0244,-0.061,-0.0976,0.0854,0.13664,0.4148,0.34648,0.26352,0.15128,0.10248
0.0732,-0.0244,-0.0244,-0.061,-0.0976,0.0854,0.12688,0.39528,0.33184,0.25864,0.15128,0.10248
0.06832,-0.02196,-0.0244,-0.05856,-0.09272,0.08052,0.122,0.366,0.31232,0.25864,0.1464,0.10248
0.06832,-0.0244,-0.01952,-0.05368,-0.08784,0.07808,0.11224,0.3416,0.29768,0.24888,0.14152,0.10736
0.05856,-0.0122,-0.03416,-0.06344,-0.09272,0.07564,0.10248,0.30256,0.27816,0.22936,0.15128,0.10736
0.05368,-0.00732,-0.03904,-0.06588,-0.09272,0.0732,0.09272,0.27328,0.25376,0.20496,0.14152,0.0976
0.05368,-0.00732,-0.03904,-0.06588,-0.09272,0.0732,0.08296,0.244,0.23424,0.1952,0.12688,0.0976
0.04392,-0.00244,-0.03904,-0.061,-0.08296,0.06344,0.07808,0.21472,0.20984,0.18056,0.122,0.08784
0.03904,0,-0.03904,-0.05856,-0.07808,0.05856,0.0732,0.18056,0.17568,0.16104,0.11224,0.08296
0.02928,0.00976,-0.0488,-0.06344,-0.07808,0.05368,0.06344,0.15128,0.15616,0.14152,0.10248,0.07808
0.01464,0.02196,-0.05856,-0.06588,-0.0732,0.04392,0.05368,0.13664,0.14152,0.12688,0.08296,0.05856
0.00488,0.02928,-0.06344,-0.06588,-0.06832,0.0366,0.05368,0.11712,0.122,0.10248,0.0732,0.05368
0.00488,0.0366,-0.07808,-0.08052,-0.08296,0.04392,0.0488,0.10736,0.11224,0.08784,0.0732,0.0488
0.00488,0.04148,-0.08784,-0.09028,-0.09272,0.0488,0.0488,0.09272,0.0976,0.08296,0.06344,0.0488
0,0.04392,-0.08784,-0.08784,-0.08784,0.04392,0.04392,0.0732,0.08296,0.06832,0.05368,0.03416
-0.00488,0.05368,-0.10248,-0.10004,-0.0976,0.04636,0.03904,0.06344,0.06832,0.05856,0.0488,0.03416
-0.01464,0.06588,-0.11712,-0.1098,-0.10248,0.04392,0.0488,0.04392,0.0732,0.06344,0.0488,0.03416
-0.01952,0.06832,-0.11712,-0.10736,-0.0976,0.03904,0.04392,0.02928,0.06344,0.05368,0.03904,0.0244
-0.0244,0.07076,-0.11712,-0.10492,-0.09272,0.03416,0.04392,0.02928,0.05368,0.0488,0.03416,0.0244
-0.0244,0.07076,-0.11712,-0.10492,-0.09272,0.03416,0.03904,0.02928,0.0488,0.04392,0.02928,0.01464
-0.01952,0.06832,-0.11712,-0.10736,-0.0976,0.03904,0.02928,0.03416,0.03904,0.03904,0.03904,0.01464
-0.01952,0.06832,-0.11712,-0.10736,-0.0976,0.03904,0.02928,0.02928,0.03416,0.03416,0.03416,0.01464
-0.02928,0.07808,-0.12688,-0.11224,-0.0976,0.03416,0.03904,0.01464,0.02928,0.0244,0.03416,0.0244
-0.02928,0.08052,-0.13176,-0.11712,-0.10248,0.0366,0.03904,0.01464,0.02928,0.0244,0.02928,0.0244
-0.02928,0.07808,-0.12688,-0.11224,-0.0976,0.03416,0.02928,0.01464,0.01952,0.0244,0.01952,0.01464
-0.02928,0.07564,-0.122,-0.10736,-0.09272,0.03172,0.02928,0.01464,0.01952,0.0244,0.01952,0.01464
-0.02928,0.0732,-0.11712,-0.10248,-0.08784,0.02928,0.02928,0.01464,0.01952,0.01464,0.00976,0.00488
-0.02928,0.07564,-0.122,-0.10736,-0.09272,0.03172,0.02928,0.01464,0.01952,0.00976,0.00976,0.00488
-0.0244,0.07076,-0.11712,-0.10492,-0.09272,0.03416,0.0244,0.01464,0.02928,0.01952,0.01952,0.01464
-0.0244,0.07076,-0.11712,-0.10492,-0.09272,0.03416,0.02928,0.01464,0.0244,0.01952,0.01952,0.01464
-0.0244,0.0732,-0.122,-0.1098,-0.0976,0.0366,0.02928,0.01464,0.01952,0.01952,0.00488,0.01464
-0.0244,0.07076,-0.11712,-0.10492,-0.09272,0.03416,0.02928,0.01464,0.01952,0.01464,0.00488,0.01464
-0.03416,0.08052,-0.12688,-0.1098,-0.09272,0.02928,0.02928,0.01464,0.01464,0.00488,0.00488,0
-0.03416,0.08052,-0.12688,-0.1098,-0.09272,0.02928,0.02928,0.01464,0.01464,0.00488,0.00488,0
-0.03416,0.07564,-0.11712,-0.10004,-0.08296,0.0244,0.03904,0.01464,0.0244,0.01464,0.00488,0.00976
-0.03904,0.07564,-0.11224,-0.09272,-0.0732,0.01708,0.03904,0.01464,0.0244,0.01464,0.00488,0.00976
-0.03416,0.07808,-0.122,-0.10492,-0.08784,0.02684,0.04392,0.0244,0.0244,0.0244,0.01464,0.01952
-0.03416,0.08052,-0.12688,-0.1098,-0.09272,0.02928,0.04392,0.02928,0.0244,0.0244,0.01464,0.01952
-0.03416,0.07808,-0.122,-0.10492,-0.08784,0.02684,0.03904,0.0244,0.0244,0.01464,0.00488,0.00976
-0.03416,0.0732,-0.11224,-0.09516,-0.07808,0.02196,0.03416,0.0244,0.02928,0.01464,0.00488,0.00976
-0.0244,0.06344,-0.10248,-0.09028,-0.07808,0.02684,0.03416,0.01464,0.0244,0.00488,0.00488,0
-0.0244,0.06344,-0.10248,-0.09028,-0.07808,0.02684,0.03416,0.01464,0.0244,0.00488,0,0
-0.03416,0.0732,-0.11224,-0.09516,-0.07808,0.02196,0.03416,0.01464,0.01464,0.01464,0,0
-0.03416,0.0732,-0.11224,-0.09516,-0.07808,0.02196,0.03416,0.01464,0.01464,0.01464,0,0
-0.03416,0.06832,-0.10248,-0.0854,-0.06832,0.01708,0.0244,0.01464,0.01464,0.01464,-0.00976,0.00976
-0.03416,0.06832,-0.10248,-0.0854,-0.06832,0.01708,0.01952,0.01464,0.01464,0.00976,-0.00976,0.01464
-0.0244,0.06588,-0.10736,-0.09516,-0.08296,0.02928,0.01952,0.00976,0.00488,0.00976,-0.00488,0.01464
-0.0244,0.06344,-0.10248,-0.09028,-0.07808,0.02684,0.01952,0.00976,0.00488,0.00976,-0.00488,0.00976
-0.03416,0.06832,-0.10248,-0.0854,-0.06832,0.01708,0.02928,0.01952,0.00488,0.00976,-0.00488,0.00976
-0.03416,0.06832,-0.10248,-0.0854,-0.06832,0.01708,0.0244,0.01464,0.00976,0.00488,-0.00488,0.00976
-0.03416,0.06832,-0.10248,-0.0854,-0.06832,0.01708,0.0244,0.00976,0.00488,0.00488,-0.00488,0.00976
-0.03416,0.07076,-0.10736,-0.09028,-0.0732,0.01952,0.02928,0.00976,0.00488,0.00488,-0.00488,0.00976
-0.03416,0.06832,-0.10248,-0.0854,-0.06832,0.01708,0.0244,0,-0.00488,-0.00488,-0.00976,0.00488
-0.02928,0.06832,-0.10736,-0.09272,-0.07808,0.0244,0.0244,0,-0.00488,-0.00976,-0.00976,-0.00488
-0.03904,0.06832,-0.0976,-0.07808,-0.05856,0.00976,0.0244,-0.00488,0,-0.00976,-0.01464,-0.00488
-0.03416,0.06588,-0.0976,-0.08052,-0.06344,0.01464,0.01952,-0.00976,-0.00488,-0.01464,-0.01464,-0.00976
-0.03416,0.06832,-0.10248,-0.0854,-0.06832,0.01708,0.01952,-0.00976,0.00488,-0.01464,-0.00976,-0.00488
-0.03416,0.07076,-0.10736,-0.09028,-0.0732,0.01952,0.01952,0,0,-0.01464,-0.00976,0.00488
-0.03416,0.0732,-0.11224,-0.09516,-0.07808,0.02196,0.01952,-0.00488,-0.00976,-0.00976,-0.00976,0
-0.03416,0.0732,-0.11224,-0.09516,-0.07808,0.02196,0.01952,-0.00488,-0.00976,-0.00976,-0.01464,0
-0.03416,0.0732,-0.11224,-0.09516,-0.07808,0.02196,0.00976,-0.01952,-0.01464,-0.01464,-0.0244,-0.00976
-0.03904,0.06832,-0.0976,-0.07808,-0.05856,0.00976,0.00976,-0.01952,-0.01952,-0.01464,-0.0244,-0.00976
-0.02928,0.06588,-0.10248,-0.08784,-0.0732,0.02196,0.00976,-0.01464,-0.01952,-0.0244,-0.01464,-0.01464
-0.02928,0.06832,-0.10736,-0.09272,-0.07808,0.0244,0.00488,-0.01464,-0.01952,-0.02928,-0.01952,-0.01464
-0.03416,0.06588,-0.0976,-0.08052,-0.06344,0.01464,0.01464,-0.0244,-0.01952,-0.02928,-0.0244,-0.01464
-0.03416,0.06588,-0.0976,-0.08052,-0.06344,0.01464,0.01464,-0.0244,-0.01952,-0.02928,-0.02928,-0.01464
-0.03904,0.07076,-0.10248,-0.08296,-0.06344,0.0122,0.00488,-0.03416,-0.0244,-0.0244,-0.01952,-0.00488
-0.03904,0.07076,-0.10248,-0.08296,-0.06344,0.0122,0.00488,-0.03416,-0.0244,-0.0244,-0.01952,-0.00488
-0.03904,0.0732,-0.10736,-0.08784,-0.06832,0.01464,0.00488,-0.0244,-0.0244,-0.0244,-0.02928,-0.00488
-0.03904,0.0732,-0.10736,-0.08784,-0.06832,0.01464,0.00488,-0.02928,-0.02928,-0.02928,-0.02928,-0.00488
-0.03904,0.07076,-0.10248,-0.08296,-0.06344,0.0122,0.00488,-0.03416,-0.02928,-0.03416,-0.03904,-0.00976
-0.03904,0.07076,-0.10248,-0.08296,-0.06344,0.0122,0,-0.03904,-0.02928,-0.03904,-0.04392,-0.00976
-0.03904,0.06832,-0.0976,-0.07808,-0.05856,0.00976,0.00976,-0.03904,-0.02928,-0.03904,-0.03416,-0.01952
-0.03904,0.06832,-0.0976,-0.07808,-0.05856,0.00976,0.00976,-0.03904,-0.03416,-0.03904,-0.03904,-0.0244
-0.03904,0.06832,-0.0976,-0.07808,-0.05856,0.00976,0.00976,-0.03904,-0.03416,-0.04392,-0.03904,-0.01464
-0.03904,0.06832,-0.0976,-0.07808,-0.05856,0.00976,0.00976,-0.03904,-0.03416,-0.04392,-0.03904,-0.01464
-0.03416,0.06832,-0.10248,-0.0854,-0.06832,0.01708,0.00976,-0.03904,-0.03416,-0.0488,-0.03904,-0.0244
-0.02928,0.06588,-0.10248,-0.08784,-0.0732,0.02196,0.00976,-0.03904,-0.03904,-0.0488,-0.03904,-0.0244
-0.03416,0.061,-0.08784,-0.07076,-0.05368,0.00976,0,-0.0488,-0.04392,-0.03904,-0.05368,-0.00976
-0.02928,0.05856,-0.08784,-0.0732,-0.05856,0.01464,0,-0.0488,-0.04392,-0.04392,-0.05368,-0.01464
-0.02928,0.05856,-0.08784,-0.0732,-0.05856,0.01464,0.00976,-0.03904,-0.03416,-0.03416,-0.03904,-0.00488
-0.03904,0.06832,-0.0976,-0.07808,-0.05856,0.00976,0.00488,-0.0488,-0.03416,-0.04392,-0.04392,-0.01464
-0.03904,0.0732,-0.10736,-0.08784,-0.06832,0.01464,0,-0.0488,-0.0488,-0.0488,-0.0488,-0.02928
-0.03904,0.0732,-0.10736,-0.08784,-0.06832,0.01464,0,-0.0488,-0.0488,-0.0488,-0.0488,-0.02928
-0.03904,0.06588,-0.09272,-0.0732,-0.05368,0.00732,0.00976,-0.0488,-0.03904,-0.0488,-0.0488,-0.01952
-0.03904,0.061,-0.08296,-0.06344,-0.04392,0.00244,0.01464,-0.03416,-0.03416,-0.04392,-0.0488,-0.01952
-0.0244,0.04392,-0.06344,-0.05124,-0.03904,0.00732,0.01952,-0.0244,-0.0244,-0.0244,-0.02928,-0.01464
-0.01952,0.03416,-0.0488,-0.03904,-0.02928,0.00488,0.01952,-0.01952,-0.01952,-0.0244,-0.0244,-0.00976
-0.01952,0.02684,-0.03416,-0.0244,-0.01464,-0.00244,0.0244,-0.0244,-0.01952,-0.01464,-0.0244,-0.01464
-0.01952,0.01952,-0.01952,-0.00976,0,-0.00976,0.02928,-0.01464,-0.00976,-0.01952,-0.0244,-0.00976
-0.00976,0.0122,-0.01464,-0.00976,-0.00488,-0.00244,0.0244,-0.01464,-0.00976,-0.01464,-0.0244,-0.00488
-0.00976,0.0122,-0.01464,-0.00976,-0.00488,-0.00244,0.0244,-0.01464,-0.00488,-0.00976,-0.01952,-0.00976
-0.00976,0.02196,-0.03416,-0.02928,-0.0244,0.00732,0.0244,-0.00976,0,-0.00488,-0.01952,-0.00976
-0.00976,0.0244,-0.03904,-0.03416,-0.02928,0.00976,0.00976,-0.00976,0,-0.00488,-0.0244,-0.00976
-0.00976,0.02196,-0.03416,-0.02928,-0.0244,0.00732,0,-0.02928,-0.00976,-0.01464,-0.01952,-0.00976
-0.00976,0.01464,-0.01952,-0.01464,-0.00976,0,-0.00976,-0.03416,-0.00976,-0.01464,-0.01952,0
0.00488,-0.00732,0.00976,0.00732,0.00488,0,0,-0.0244,0,0.00976,0.00488,0.0244
0.01464,-0.01708,0.01952,0.0122,0.00488,0.00488,-0.00488,-0.01464,0.00488,0.01952,0.01464,0.02928
0.0244,-0.01464,0.00488,-0.00732,-0.01952,0.02196,-0.00976,-0.01952,0.00488,0.01464,0.01464,0.02928
0.0244,-0.0122,0,-0.0122,-0.0244,0.0244,-0.00488,-0.01952,0.00488,0.01464,0.00976,0.02928
0.0244,-0.00244,-0.01952,-0.03172,-0.04392,0.03416,-0.01952,-0.03416,0,0,0,0.0244
0.01952,0.0122,-0.04392,-0.05368,-0.06344,0.04148,-0.02928,-0.05856,-0.02928,-0.0244,-0.01952,0.01464
0.00976,0.01952,-0.0488,-0.05368,-0.05856,0.03416,-0.02928,-0.06832,-0.03416,-0.01952,-0.01464,0.01464
0.01464,0.01952,-0.05368,-0.061,-0.06832,0.04148,-0.02928,-0.06832,-0.03416,-0.01952,-0.01464,0.01464
0.01952,0.01708,-0.05368,-0.06344,-0.0732,0.04636,-0.01464,-0.04392,-0.0244,-0.01464,-0.00976,0
-0.00976,0.0366,-0.06344,-0.05856,-0.05368,0.02196,-0.00976,-0.04392,-0.02928,-0.0244,-0.01464,-0.00488
-0.03416,0.05856,-0.08296,-0.06588,-0.0488,0.00732,0,-0.04392,-0.03416,-0.02928,-0.0244,-0.01464
-0.03904,0.061,-0.08296,-0.06344,-0.04392,0.00244,0,-0.05368,-0.04392,-0.03904,-0.03904,-0.01952
-0.04392,0.06832,-0.09272,-0.07076,-0.0488,0.00244,-0.00488,-0.05368,-0.0488,-0.04392,-0.03416,-0.01952
-0.04392,0.0732,-0.10248,-0.08052,-0.05856,0.00732,-0.00976,-0.06344,-0.05368,-0.04392,-0.03904,-0.02928
-0.0488,0.08052,-0.11224,-0.08784,-0.06344,0.00732,-0.00976,-0.08296,-0.0732,-0.06344,-0.06832,-0.0488
-0.05368,0.08784,-0.122,-0.09516,-0.06832,0.00732,-0.00976,-0.08784,-0.07808,-0.0732,-0.0732,-0.05368
-0.0488,0.08052,-0.11224,-0.08784,-0.06344,0.00732,-0.0244,-0.08296,-0.08296,-0.07808,-0.07808,-0.06344
-0.0488,0.08052,-0.11224,-0.08784,-0.06344,0.00732,-0.0244,-0.08784,-0.08296,-0.07808,-0.07808,-0.06344
-0.05856,0.08052,-0.10248,-0.0732,-0.04392,-0.00732,-0.01464,-0.0732,-0.07808,-0.0732,-0.08296,-0.06344
-0.05856,0.07808,-0.0976,-0.06832,-0.03904,-0.00976,-0.01464,-0.0732,-0.0732,-0.0732,-0.07808,-0.06344
-0.05856,0.08052,-0.10248,-0.0732,-0.04392,-0.00732,-0.0244,-0.0732,-0.0732,-0.07808,-0.07808,-0.06344
-0.05368,0.07564,-0.0976,-0.07076,-0.04392,-0.00488,-0.01952,-0.0732,-0.0732,-0.07808,-0.07808,-0.06344
-0.05856,0.08296,-0.10736,-0.07808,-0.0488,-0.00488,-0.00976,-0.0732,-0.06832,-0.06344,-0.06832,-0.05368
-0.05856,0.08296,-0.10736,-0.07808,-0.0488,-0.00488,-0.00976,-0.06832,-0.06832,-0.06832,-0.06832,-0.05368
-0.05856,0.0854,-0.11224,-0.08296,-0.05368,-0.00244,0.00976,-0.04392,-0.05856,-0.0488,-0.06832,-0.05856
-0.05856,0.09272,-0.12688,-0.0976,-0.06832,0.00488,0.04392,0.0244,-0.01464,-0.03904,-0.08784,-0.08296
-0.06832,0.0976,-0.12688,-0.09272,-0.05856,-0.00488,0.1464,0.20008,0.10736,0.01464,-0.08784,-0.13176
-0.08296,0.08784,-0.09272,-0.05124,-0.00976,-0.0366,0.25376,0.38552,0.28792,0.14152,-0.06344,-0.1464
0.00488,-0.00488,0.00488,0.00244,0,0.00244,0.3416,0.64904,0.57096,0.4148,0.13176,-0.04392
0.1708,-0.17568,0.18056,0.09516,0.00976,0.08052,0.33672,0.93696,0.96624,0.8296,0.488,0.16592
0.42456,-0.35868,0.2928,0.08052,-0.13176,0.27816,0.1952,0.87352,1.11264,1.13216,0.89792,0.49288
0.62464,-0.48556,0.34648,0.03416,-0.27816,0.4514,-0.06832,0.44408,0.89792,1.1956,1.21512,0.81008
0.73688,-0.63196,0.52704,0.1586,-0.20984,0.47336,-0.35624,-0.13664,0.57096,1.16144,1.47376,1.11264
0.57096,-0.61488,0.6588,0.37332,0.08784,0.24156,-0.51728,-0.732,0.08784,0.84912,1.37616,1.15656
0.36112,-0.46848,0.57584,0.39528,0.21472,0.0732,-0.488,-0.94184,-0.27328,0.4392,1.02968,0.976
0.13176,-0.22448,0.3172,0.25132,0.18544,-0.02684,-0.48312,-1.25416,-0.85888,-0.34648,0.33184,0.57584
-0.16592,0.05612,0.05368,0.13664,0.2196,-0.19276,-0.50752,-1.51768,-1.342,-1.0004,-0.33184,0.15616
-0.2684,0.183,-0.0976,0.0366,0.1708,-0.2196,-0.45384,-1.4396,-1.27856,-0.99064,-0.45872,-0.04392
-0.27816,0.20252,-0.12688,0.0122,0.15128,-0.21472,-0.45872,-1.30784,-1.1712,-0.9272,-0.46848,-0.08296
-0.27816,0.22448,-0.1708,-0.03172,0.10736,-0.19276,-0.40504,-1.10776,-1.01992,-0.85888,-0.4636,-0.13664
-0.23424,0.20252,-0.1708,-0.05368,0.06344,-0.14884,-0.33672,-0.82472,-0.76616,-0.65392,-0.40992,-0.15616
-0.16104,0.13664,-0.11224,-0.03172,0.0488,-0.10492,-0.31232,-0.64416,-0.57584,-0.49288,-0.31232,-0.11712
-0.11224,0.09516,-0.07808,-0.02196,0.03416,-0.0732,-0.26352,-0.49288,-0.44896,-0.366,-0.2196,-0.08784
-0.09272,0.07564,-0.05856,-0.0122,0.03416,-0.06344,-0.1464,-0.30744,-0.27328,-0.25376,-0.15128,-0.06344
-0.07808,0.07808,-0.07808,-0.03904,0,-0.03904,-0.06344,-0.16104,-0.15616,-0.16592,-0.13664,-0.05856
-0.0732,0.09516,-0.11712,-0.08052,-0.04392,-0.01464,-0.03904,-0.11712,-0.11712,-0.12688,-0.11224,-0.06344
-0.05368,0.08052,-0.10736,-0.08052,-0.05368,0,-0.03416,-0.13176,-0.122,-0.11712,-0.09272,-0.06832
-0.05856,0.08052,-0.10248,-0.0732,-0.04392,-0.00732,-0.03416,-0.0976,-0.10736,-0.11224,-0.08784,-0.06832
-0.05368,0.07564,-0.0976,-0.07076,-0.04392,-0.00488,-0.01464,-0.06344,-0.07808,-0.10248,-0.0976,-0.06344
-0.05368,0.07808,-0.10248,-0.07564,-0.0488,-0.00244,-0.00488,-0.04392,-0.06344,-0.08296,-0.08784,-0.0732
-0.05368,0.07808,-0.10248,-0.07564,-0.0488,-0.00244,-0.00488,-0.05368,-0.06832,-0.07808,-0.07808,-0.0732
-0.04392,0.0732,-0.10248,-0.08052,-0.05856,0.00732,-0.00488,-0.05368,-0.05856,-0.06832,-0.07808,-0.06832
-0.04392,0.0732,-0.10248,-0.08052,-0.05856,0.00732,0,-0.02928,-0.0488,-0.05856,-0.0732,-0.06832
-0.05368,0.08052,-0.10736,-0.08052,-0.05368,0,0.00488,-0.01952,-0.03416,-0.05368,-0.0732,-0.05856
-0.05368,0.0854,-0.11712,-0.09028,-0.06344,0.00488,0.00976,-0.01464,-0.02928,-0.0488,-0.0732,-0.05856
-0.05856,0.0854,-0.11224,-0.08296,-0.05368,-0.00244,0,-0.01464,-0.03904,-0.0488,-0.07808,-0.06832
-0.05856,0.08296,-0.10736,-0.07808,-0.0488,-0.00488,0,-0.00488,-0.03416,-0.04392,-0.07808,-0.06832
-0.04392,0.07564,-0.10736,-0.0854,-0.06344,0.00976,0.00976,0.01464,-0.01952,-0.03904,-0.06344,-0.05368
-0.04392,0.07808,-0.11224,-0.09028,-0.06832,0.0122,0.01464,0.01464,-0.01464,-0.03416,-0.06344,-0.05368
-0.04392,0.07808,-0.11224,-0.09028,-0.06832,0.0122,0.01464,0.00976,-0.00976,-0.03904,-0.06832,-0.06344
-0.04392,0.07808,-0.11224,-0.09028,-0.06832,0.0122,0.01952,0.01464,-0.00488,-0.03416,-0.06344,-0.06344
-0.03904,0.07076,-0.10248,-0.08296,-0.06344,0.0122,0.00976,0.00976,-0.00976,-0.04392,-0.06344,-0.0732
-0.03904,0.06832,-0.0976,-0.07808,-0.05856,0.00976,0.01464,0.0244,0,-0.03416,-0.06344,-0.06832
-0.03904,0.06344,-0.08784,-0.06832,-0.0488,0.00488,0.0244,0.03416,0,-0.01952,-0.0488,-0.05856
-0.03416,0.06588,-0.0976,-0.08052,-0.06344,0.01464,0.0244,0.04392,0.00488,-0.01464,-0.0488,-0.05856
-0.03416,0.06344,-0.09272,-0.07564,-0.05856,0.0122,0.01952,0.03904,0.01464,-0.01464,-0.05368,-0.05856
-0.02928,0.061,-0.09272,-0.07808,-0.06344,0.01708,0.01952,0.03904,0.01952,-0.00976,-0.05368,-0.05856
-0.02928,0.06344,-0.0976,-0.08296,-0.06832,0.01952,0.01464,0.04392,0.01952,-0.00488,-0.05368,-0.05856
-0.02928,0.06344,-0.0976,-0.08296,-0.06832,0.01952,0.01952,0.05856,0.03416,0,-0.0488,-0.05368
-0.01952,0.05368,-0.08784,-0.07808,-0.06832,0.0244,0.01464,0.06832,0.03416,-0.00488,-0.04392,-0.05368
-0.01464,0.0488,-0.08296,-0.07564,-0.06832,0.02684,0.01464,0.07808,0.03904,0.00976,-0.04392,-0.05368
-0.00976,0.04636,-0.08296,-0.07808,-0.0732,0.03172,0.02928,0.0976,0.06344,0.01952,-0.03904,-0.0488
-0.00976,0.04392,-0.07808,-0.0732,-0.06832,0.02928,0.03416,0.10248,0.0732,0.0244,-0.03416,-0.0488
-0.00976,0.04392,-0.07808,-0.0732,-0.06832,0.02928,0.03416,0.11712,0.08296,0.03416,-0.01952,-0.04392
-0.00488,0.03904,-0.0732,-0.07076,-0.06832,0.03172,0.03904,0.122,0.09272,0.03904,-0.01952,-0.03904
-0.00976,0.04392,-0.07808,-0.0732,-0.06832,0.02928,0.04392,0.1464,0.10248,0.05368,-0.00488,-0.03904
-0.00488,0.03904,-0.0732,-0.07076,-0.06832,0.03172,0.04392,0.16104,0.11712,0.06344,0,-0.03416
-0.00488,0.03416,-0.06344,-0.061,-0.05856,0.02684,0.0488,0.1708,0.13176,0.0732,0,-0.03416
0,0.02928,-0.05856,-0.05856,-0.05856,0.02928,0.05368,0.19032,0.15128,0.08784,0.01464,-0.02928
0,0.02196,-0.04392,-0.04392,-0.04392,0.02196,0.05856,0.20496,0.16104,0.10736,0.01952,-0.0244
0.00976,0.01464,-0.03904,-0.04392,-0.0488,0.02928,0.06832,0.22448,0.18544,0.122,0.0244,-0.00976
0.0244,0.00488,-0.03416,-0.04636,-0.05856,0.04148,0.06832,0.244,0.20008,0.13176,0.03416,-0.00488
0.02928,-0.00244,-0.0244,-0.03904,-0.05368,0.04148,0.07808,0.2684,0.2196,0.13664,0.04392,-0.01464
0.02928,-0.00488,-0.01952,-0.03416,-0.0488,0.03904,0.07808,0.28792,0.23912,0.15616,0.05368,-0.01464
0.03416,-0.00732,-0.01952,-0.0366,-0.05368,0.04392,0.09272,0.30744,0.25376,0.17568,0.05856,0
0.02928,-0.00244,-0.0244,-0.03904,-0.05368,0.04148,0.10248,0.32208,0.27328,0.18544,0.06832,0.00976
0.03904,-0.00976,-0.01952,-0.03904,-0.05856,0.0488,0.10248,0.33672,0.28304,0.20008,0.07808,0.01464
0.03904,-0.01952,0,-0.01952,-0.03904,0.03904,0.09272,0.35624,0.29768,0.20984,0.08784,0.01464
0.03904,-0.02196,0.00488,-0.01464,-0.03416,0.0366,0.10248,0.366,0.30744,0.2196,0.09272,0.01952
0.0488,-0.0366,0.0244,0,-0.0244,0.0366,0.10248,0.38552,0.32208,0.22448,0.10736,0.0244
0.0488,-0.0366,0.0244,0,-0.0244,0.0366,0.10736,0.40016,0.33184,0.22936,0.11224,0.02928
0.05368,-0.04392,0.03416,0.00732,-0.01952,0.0366,0.10736,0.3904,0.33184,0.23424,0.10736,0.04392
0.05856,-0.0488,0.03904,0.00976,-0.01952,0.03904,0.11224,0.39528,0.33672,0.23912,0.10736,0.0488
0.05856,-0.04636,0.03416,0.00488,-0.0244,0.04148,0.11224,0.40016,0.33184,0.23912,0.11224,0.04392
0.05856,-0.0488,0.03904,0.00976,-0.01952,0.03904,0.11224,0.40016,0.33184,0.244,0.11712,0.0488
0.05856,-0.05612,0.05368,0.0244,-0.00488,0.03172,0.11224,0.40016,0.33184,0.244,0.11712,0.04392
0.06344,-0.05856,0.05368,0.02196,-0.00976,0.0366,0.10736,0.38552,0.32696,0.23912,0.11712,0.0488
0.06344,-0.061,0.05856,0.02684,-0.00488,0.03416,0.10248,0.37576,0.31232,0.22936,0.122,0.05856
0.06344,-0.061,0.05856,0.02684,-0.00488,0.03416,0.0976,0.35624,0.30256,0.22448,0.122,0.05856
0.06344,-0.05856,0.05368,0.02196,-0.00976,0.0366,0.0976,0.33672,0.28792,0.21472,0.122,0.06344
0.06344,-0.05856,0.05368,0.02196,-0.00976,0.0366,0.08784,0.3172,0.27328,0.20984,0.122,0.06344
0.0488,-0.05612,0.06344,0.03904,0.01464,0.01708,0.08296,0.29768,0.25376,0.20008,0.11712,0.06344
0.0488,-0.05856,0.06832,0.04392,0.01952,0.01464,0.0732,0.27328,0.23912,0.19032,0.11224,0.06832
0.0488,-0.05612,0.06344,0.03904,0.01464,0.01708,0.06344,0.23424,0.2196,0.18544,0.11224,0.06832
0.04392,-0.05124,0.05856,0.0366,0.01464,0.01464,0.05368,0.20496,0.1952,0.1708,0.10248,0.05856
0.04392,-0.05124,0.05856,0.0366,0.01464,0.01464,0.04392,0.18544,0.17568,0.1464,0.08784,0.0488
0.03416,-0.04636,0.05856,0.04148,0.0244,0.00488,0.03904,0.15616,0.15128,0.13176,0.08296,0.03904
0.02928,-0.03904,0.0488,0.03416,0.01952,0.00488,0.03416,0.13176,0.12688,0.122,0.0732,0.04392
0.01952,-0.02928,0.03904,0.02928,0.01952,0,0.0244,0.10248,0.10736,0.10248,0.06344,0.03904
0.01464,-0.02196,0.02928,0.02196,0.01464,0,0.01464,0.08784,0.09272,0.0976,0.05368,0.02928
0.00488,-0.01464,0.0244,0.02196,0.01952,-0.00732,0.01464,0.06832,0.0732,0.0732,0.04392,0.0244
-0.00488,-0.00488,0.01464,0.01708,0.01952,-0.0122,0.01952,0.0488,0.06344,0.05856,0.03416,0.00976
-0.00488,0.00488,-0.00488,-0.00244,0,-0.00244,0.01952,0.03416,0.0488,0.05368,0.0244,0.00976
-0.01952,0.01464,-0.00976,0,0.00976,-0.01464,0.01464,0.0244,0.03416,0.0488,0.01464,0.00488
-0.0244,0.0244,-0.0244,-0.0122,0,-0.0122,0.00976,0.01464,0.01952,0.03904,0.00976,0.00488
-0.01464,0.01708,-0.01952,-0.0122,-0.00488,-0.00488,0.00976,0.00488,0.01464,0.03416,0.00976,0.00488
-0.01952,0.01952,-0.01952,-0.00976,0,-0.00976,0.00488,-0.00976,0.00488,0.0244,0,-0.00488
-0.0244,0.02196,-0.01952,-0.00732,0.00488,-0.01464,0.00488,-0.00976,-0.00488,0.00976,-0.00488,-0.00488
-0.0244,0.02196,-0.01952,-0.00732,0.00488,-0.01464,0,-0.00976,-0.00976,0.00488,-0.00976,-0.01464
-0.02928,0.02928,-0.02928,-0.01464,0,-0.01464,0.00976,-0.01464,-0.00976,0.00976,-0.00976,-0.00488
-0.02928,0.02928,-0.02928,-0.01464,0,-0.01464,0.00976,-0.01952,-0.01464,0.00488,-0.01464,-0.00488
-0.02928,0.02928,-0.02928,-0.01464,0,-0.01464,0,-0.0244,-0.00976,-0.00488,-0.01464,-0.01464
-0.02928,0.03172,-0.03416,-0.01952,-0.00488,-0.0122,0,-0.0244,-0.00976,-0.00488,-0.01952,-0.01464
-0.03904,0.03904,-0.03904,-0.01952,0,-0.01952,0,-0.0244,-0.00976,-0.00488,-0.01952,-0.01464
-0.03904,0.0366,-0.03416,-0.01464,0.00488,-0.02196,0,-0.0244,-0.00976,-0.00488,-0.01952,-0.01464
-0.03904,0.03416,-0.02928,-0.00976,0.00976,-0.0244,0,-0.0244,-0.00976,-0.00488,-0.01952,-0.01464
-0.03904,0.0366,-0.03416,-0.01464,0.00488,-0.02196,0,-0.0244,-0.00976,-0.00976,-0.01952,-0.01464
-0.03416,0.03172,-0.02928,-0.0122,0.00488,-0.01952,0.00488,-0.0244,-0.00976,-0.00976,-0.00976,-0.01464
-0.03416,0.03172,-0.02928,-0.0122,0.00488,-0.01952,0.00976,-0.0244,-0.01464,-0.00976,-0.00976,-0.01464
-0.03416,0.03904,-0.04392,-0.02684,-0.00976,-0.0122,0.00976,-0.01464,-0.00976,-0.00976,-0.0244,-0.01464
-0.03416,0.0366,-0.03904,-0.02196,-0.00488,-0.01464,0.00976,-0.01464,-0.00976,-0.01464,-0.0244,-0.01464
-0.03416,0.0366,-0.03904,-0.02196,-0.00488,-0.01464,0.00976,-0.01464,-0.00488,-0.01464,-0.01464,-0.01952
-0.03416,0.0366,-0.03904,-0.02196,-0.00488,-0.01464,0.00976,-0.01464,-0.00488,-0.01464,-0.01464,-0.01952
-0.03416,0.0366,-0.03904,-0.02196,-0.00488,-0.01464,0.00976,-0.01464,-0.01464,-0.01464,-0.0244,-0.01952
-0.03904,0.0366,-0.03416,-0.01464,0.00488,-0.02196,0.00976,-0.01464,-0.01464,-0.01464,-0.0244,-0.01952
-0.03416,0.03416,-0.03416,-0.01708,0,-0.01708,0.00488,-0.0244,-0.01464,-0.0244,-0.0244,-0.02928
-0.03416,0.0366,-0.03904,-0.02196,-0.00488,-0.01464,0.00488,-0.01952,-0.01464,-0.0244,-0.0244,-0.02928
-0.03416,0.0366,-0.03904,-0.02196,-0.00488,-0.01464,0.01952,-0.01952,-0.01464,-0.0244,-0.0244,-0.01952
-0.03416,0.0366,-0.03904,-0.02196,-0.00488,-0.01464,0.01464,-0.00976,-0.00976,-0.0244,-0.0244,-0.01952
-0.03416,0.03904,-0.04392,-0.02684,-0.00976,-0.0122,0.01464,-0.01464,-0.01464,-0.01464,-0.01464,-0.00976
-0.03416,0.03904,-0.04392,-0.02684,-0.00976,-0.0122,0.01464,-0.01464,-0.01464,-0.01464,-0.01952,-0.00976
-0.04392,0.04392,-0.04392,-0.02196,0,-0.02196,0.01464,-0.01464,-0.01464,-0.01464,-0.01952,-0.00976
-0.04392,0.04392,-0.04392,-0.02196,0,-0.02196,0.01464,-0.01464,-0.01464,-0.01464,-0.01952,-0.00976
-0.03416,0.03416,-0.03416,-0.01708,0,-0.01708,0.01464,-0.01464,-0.01464,-0.0244,-0.01952,-0.01952
-0.03416,0.03416,-0.03416,-0.01708,0,-0.01708,0.00976,-0.01464,-0.01464,-0.02928,-0.01952,-0.01464
-0.03416,0.0366,-0.03904,-0.02196,-0.00488,-0.01464,0.00976,-0.01952,-0.0244,-0.02928,-0.0244,-0.01464
-0.03416,0.03416,-0.03416,-0.01708,0,-0.01708,0.00976,-0.01952,-0.0244,-0.02928,-0.0244,-0.01952
-0.03416,0.03904,-0.04392,-0.02684,-0.00976,-0.0122,0.00976,-0.01952,-0.01952,-0.01952,-0.0244,-0.01952
-0.03416,0.03904,-0.04392,-0.02684,-0.00976,-0.0122,0.00488,-0.0244,-0.0244,-0.0244,-0.0244,-0.01952
-0.03416,0.03904,-0.04392,-0.02684,-0.00976,-0.0122,0.00488,-0.02928,-0.03416,-0.03416,-0.0244,-0.01952
-0.03416,0.04148,-0.0488,-0.03172,-0.01464,-0.00976,0.00976,-0.02928,-0.03416,-0.03416,-0.0244,-0.01952
-0.03416,0.03904,-0.04392,-0.02684,-0.00976,-0.0122,0.00488,-0.02928,-0.03416,-0.03416,-0.02928,-0.01952
-0.02928,0.03904,-0.0488,-0.03416,-0.01952,-0.00488,0.00488,-0.02928,-0.03416,-0.03904,-0.02928,-0.01952
-0.03904,0.03904,-0.03904,-0.01952,0,-0.01952,0.01464,-0.03416,-0.02928,-0.03904,-0.0244,-0.0244
-0.03416,0.0366,-0.03904,-0.02196,-0.00488,-0.01464,0.00976,-0.03904,-0.03416,-0.04392,-0.0244,-0.02928
-0.03416,0.0366,-0.03904,-0.02196,-0.00488,-0.01464,0.00976,-0.03416,-0.03416,-0.03416,-0.02928,-0.01952
-0.03416,0.03416,-0.03416,-0.01708,0,-0.01708,0.00976,-0.03416,-0.03904,-0.03416,-0.02928,-0.01952
-0.03416,0.03416,-0.03416,-0.01708,0,-0.01708,0,-0.03904,-0.0488,-0.03904,-0.03904,-0.02928
-0.03416,0.03416,-0.03416,-0.01708,0,-0.01708,0,-0.0488,-0.0488,-0.03904,-0.04392,-0.02928
-0.03416,0.0366,-0.03904,-0.02196,-0.00488,-0.01464,0,-0.0488,-0.04392,-0.04392,-0.04392,-0.02928
-0.03904,0.0366,-0.03416,-0.01464,0.00488,-0.02196,0,-0.0488,-0.0488,-0.04392,-0.04392,-0.02928
-0.02928,0.0366,-0.04392,-0.02928,-0.01464,-0.00732,0.00976,-0.05368,-0.0488,-0.04392,-0.04392,-0.03416
-0.02928,0.03904,-0.0488,-0.03416,-0.01952,-0.00488,0.00488,-0.05368,-0.0488,-0.0488,-0.0488,-0.03416
-0.03416,0.04148,-0.0488,-0.03172,-0.01464,-0.00976,-0.00488,-0.05368,-0.0488,-0.0488,-0.03416,-0.0244
-0.03416,0.04148,-0.0488,-0.03172,-0.01464,-0.00976,-0.00488,-0.05368,-0.0488,-0.0488,-0.03904,-0.0244
-0.03904,0.04636,-0.05368,-0.03416,-0.01464,-0.0122,-0.00488,-0.05368,-0.06344,-0.04392,-0.03904,-0.0244
-0.03904,0.04636,-0.05368,-0.03416,-0.01464,-0.0122,-0.00488,-0.05368,-0.06344,-0.04392,-0.03904,-0.0244
-0.03904,0.0488,-0.05856,-0.03904,-0.01952,-0.00976,0.00488,-0.04392,-0.05368,-0.04392,-0.03904,-0.03416
-0.03904,0.0488,-0.05856,-0.03904,-0.01952,-0.00976,0.00488,-0.0488,-0.05856,-0.0488,-0.03904,-0.03416
-0.03904,0.0488,-0.05856,-0.03904,-0.01952,-0.00976,-0.00488,-0.05368,-0.05856,-0.05368,-0.03904,-0.03904
-0.03904,0.04392,-0.0488,-0.02928,-0.00976,-0.01464,-0.00976,-0.05856,-0.05856,-0.05856,-0.04392,-0.03904
-0.03904,0.03904,-0.03904,-0.01952,0,-0.01952,0,-0.05856,-0.05856,-0.0488,-0.04392,-0.03904
-0.03904,0.03904,-0.03904,-0.01952,0,-0.01952,0,-0.05856,-0.06344,-0.0488,-0.0488,-0.04392
-0.02928,0.03904,-0.0488,-0.03416,-0.01952,-0.00488,-0.00976,-0.05856,-0.06344,-0.05368,-0.0488,-0.03416
-0.02928,0.03904,-0.0488,-0.03416,-0.01952,-0.00488,-0.00976,-0.05856,-0.06344,-0.05368,-0.0488,-0.03416
-0.03416,0.03416,-0.03416,-0.01708,0,-0.01708,-0.00976,-0.06832,-0.06344,-0.0488,-0.0488,-0.03416
-0.03904,0.0488,-0.05856,-0.03904,-0.01952,-0.00976,0,-0.0488,-0.05856,-0.0488,-0.03904,-0.03904
-0.0488,0.0488,-0.0488,-0.0244,0,-0.0244,0.00976,-0.05856,-0.05856,-0.0488,-0.0488,-0.0488
-0.0488,0.0488,-0.0488,-0.0244,0,-0.0244,0.00976,-0.05856,-0.05856,-0.0488,-0.0488,-0.0488
-0.03904,0.03904,-0.03904,-0.01952,0,-0.01952,0,-0.06344,-0.06832,-0.05368,-0.0488,-0.03904
-0.03904,0.03172,-0.0244,-0.00488,0.01464,-0.02684,0.00976,-0.05368,-0.06344,-0.05368,-0.03904,-0.03904
-0.02928,0.0244,-0.01952,-0.00488,0.00976,-0.01952,0.00976,-0.05368,-0.03904,-0.03416,-0.03416,-0.03416
-0.02928,0.01708,-0.00488,0.00976,0.0244,-0.02684,0.01464,-0.04392,-0.03904,-0.02928,-0.03416,-0.02928
-0.01952,0.00976,0,0.00976,0.01952,-0.01952,0.01464,-0.03416,-0.03416,-0.0244,-0.0244,-0.00976
-0.01952,0.00488,0.00976,0.01952,0.02928,-0.0244,0.01952,-0.0244,-0.02928,-0.0244,-0.0244,-0.00976
-0.01952,0.00244,0.01464,0.0244,0.03416,-0.02684,0.03416,-0.0244,-0.0244,-0.01952,-0.00976,-0.01464
-0.01464,0.00244,0.00976,0.01708,0.0244,-0.01952,0.03416,-0.01952,-0.01952,-0.0244,-0.00976,-0.01952
-0.00976,0.00488,0,0.00488,0.00976,-0.00976,0.01464,-0.02928,-0.01952,-0.0244,-0.0244,-0.01952
0,0,0,0,0,0,0.00488,-0.03416,-0.0244,-0.0244,-0.01952,-0.01952
-0.00976,0.00244,0.00488,0.00976,0.01464,-0.0122,-0.00488,-0.03416,-0.02928,-0.03416,-0.01952,-0.0244
-0.00976,-0.00488,0.01952,0.0244,0.02928,-0.01952,-0.00976,-0.03416,-0.02928,-0.0244,-0.00976,-0.00976
0.00976,-0.02928,0.0488,0.04392,0.03904,-0.01464,-0.00976,-0.03416,-0.0244,0,0.01464,0.00976
0.0244,-0.04148,0.05856,0.04636,0.03416,-0.00488,-0.01952,-0.03904,-0.0244,-0.00488,0.01464,0.00976
0.0244,-0.03172,0.03904,0.02684,0.01464,0.00488,-0.01464,-0.02928,-0.01464,-0.00488,0.00488,0.00976
0.0244,-0.02928,0.03416,0.02196,0.00976,0.00732,-0.0244,-0.03904,-0.0244,-0.01464,0,0.00976
0.01952,-0.01708,0.01464,0.00488,-0.00488,0.0122,-0.0244,-0.0488,-0.03904,-0.03416,-0.00488,0
0.01952,-0.0122,0.00488,-0.00488,-0.01464,0.01708,-0.02928,-0.06832,-0.0488,-0.04392,-0.01952,-0.00488
0.01952,-0.00976,0,-0.00976,-0.01952,0.01952,-0.03904,-0.06832,-0.05368,-0.03904,-0.01464,0.00488
0.0244,-0.00732,-0.00976,-0.02196,-0.03416,0.02928,-0.02928,-0.06832,-0.06344,-0.03904,-0.01464,0
0.01464,0.00244,-0.01952,-0.02684,-0.03416,0.0244,-0.01952,-0.05368,-0.04392,-0.0244,-0.00976,0.00976
-0.01952,0.0244,-0.02928,-0.01952,-0.00976,-0.00488,-0.00976,-0.05368,-0.05368,-0.03416,-0.01952,-0.00488
-0.03416,0.03904,-0.04392,-0.02684,-0.00976,-0.0122,0,-0.05856,-0.05856,-0.05368,-0.03416,-0.0244
-0.04392,0.04392,-0.04392,-0.02196,0,-0.02196,0,-0.06344,-0.06344,-0.05856,-0.03904,-0.02928
-0.04392,0.05124,-0.05856,-0.0366,-0.01464,-0.01464,-0.00488,-0.06344,-0.0732,-0.06344,-0.05856,-0.04392
-0.04392,0.05368,-0.06344,-0.04148,-0.01952,-0.0122,-0.00976,-0.07808,-0.07808,-0.07808,-0.06344,-0.05368
-0.0488,0.05856,-0.06832,-0.04392,-0.01952,-0.01464,-0.00976,-0.0732,-0.09272,-0.08784,-0.06832,-0.06344
-0.05368,0.06344,-0.0732,-0.04636,-0.01952,-0.01708,-0.01464,-0.08296,-0.10248,-0.0976,-0.07808,-0.06344
-0.0488,0.06588,-0.08296,-0.05856,-0.03416,-0.00732,-0.01464,-0.08784,-0.10248,-0.0976,-0.08784,-0.06344
-0.0488,0.07076,-0.09272,-0.06832,-0.04392,-0.00244,-0.01464,-0.08296,-0.10248,-0.0976,-0.08296,-0.06344
-0.05856,0.07076,-0.08296,-0.05368,-0.0244,-0.01708,-0.01464,-0.08296,-0.09272,-0.09272,-0.07808,-0.06344
-0.05856,0.06832,-0.07808,-0.0488,-0.01952,-0.01952,-0.01464,-0.08296,-0.09272,-0.09272,-0.07808,-0.06344
-0.05368,0.0732,-0.09272,-0.06588,-0.03904,-0.00732,-0.00976,-0.0732,-0.09272,-0.0976,-0.07808,-0.06344
-0.05856,0.0732,-0.08784,-0.05856,-0.02928,-0.01464,-0.00976,-0.0732,-0.09272,-0.0976,-0.07808,-0.06344
-0.05856,0.06832,-0.07808,-0.0488,-0.01952,-0.01952,0,-0.06832,-0.08784,-0.09272,-0.07808,-0.05368
-0.05856,0.06832,-0.07808,-0.0488,-0.01952,-0.01952,0,-0.05856,-0.08784,-0.0976,-0.07808,-0.05368
-0.05856,0.07076,-0.08296,-0.05368,-0.0244,-0.01708,0.01464,-0.02928,-0.06344,-0.07808,-0.07808,-0.05856
-0.06832,0.08784,-0.10736,-0.0732,-0.03904,-0.01464,0.08784,0.07808,0,-0.05856,-0.0976,-0.10248
-0.0732,0.0854,-0.0976,-0.061,-0.0244,-0.0244,0.18544,0.23912,0.12688,0,-0.10248,-0.1464
-0.06832,0.05124,-0.03416,0,0.03416,-0.05124,0.27328,0.43432,0.32208,0.15616,-0.0488,-0.14152
0.01952,-0.05124,0.08296,0.0732,0.06344,-0.02196,0.34648,0.7564,0.67344,0.49288,0.19032,-0.01464
0.21472,-0.24888,0.28304,0.17568,0.06832,0.0732,0.33184,0.976,1.03456,0.92232,0.59536,0.244
0.45384,-0.3904,0.32696,0.10004,-0.12688,0.29036,0.16104,0.81008,1.06872,1.1712,0.98088,0.55632
0.65392,-0.53924,0.42456,0.0976,-0.22936,0.44164,-0.12688,0.28304,0.81496,1.1956,1.30784,0.88328
0.71248,-0.6588,0.60512,0.24888,-0.10736,0.40992,-0.40504,-0.3172,0.46848,1.12728,1.49816,1.1468
0.49776,-0.61244,0.72712,0.47824,0.22936,0.1342,-0.50752,-0.81008,-0.00488,0.76616,1.342,1.13704
0.32208,-0.44408,0.56608,0.40504,0.244,0.03904,-0.488,-1.02968,-0.40016,0.28792,0.93208,0.93208
0.0732,-0.16104,0.24888,0.21228,0.17568,-0.05124,-0.53192,-1.40544,-1.06872,-0.5856,0.16592,0.47824
-0.1708,0.07808,0.01464,0.10004,0.18544,-0.17812,-0.54656,-1.54208,-1.40056,-1.09312,-0.40504,0.09272
-0.2684,0.19276,-0.11712,0.01708,0.15128,-0.20984,-0.49288,-1.42008,-1.28344,-1.01504,-0.46848,-0.05368
-0.244,0.1952,-0.1464,-0.0244,0.0976,-0.1708,-0.47824,-1.2444,-1.15168,-0.94184,-0.47336,-0.0976
-0.22936,0.1952,-0.16104,-0.04636,0.06832,-0.14884,-0.4148,-1.01016,-0.95648,-0.82472,-0.45384,-0.12688
-0.1952,0.16348,-0.13176,-0.03416,0.06344,-0.12932,-0.35136,-0.76128,-0.70272,-0.62952,-0.37576,-0.13664
-0.13176,0.10736,-0.08296,-0.01708,0.0488,-0.09028,-0.2928,-0.56608,-0.52216,-0.44896,-0.2684,-0.08296
-0.08784,0.07808,-0.06832,-0.0244,0.01952,-0.05368,-0.22448,-0.41968,-0.40016,-0.35136,-0.18544,-0.06344
-0.0732,0.05612,-0.03904,-0.00244,0.03416,-0.05368,-0.122,-0.24888,-0.25376,-0.25376,-0.1464,-0.06344
-0.08296,0.06832,-0.05368,-0.0122,0.02928,-0.05612,-0.05856,-0.1464,-0.16104,-0.19032,-0.122,-0.06832
-0.0732,0.07564,-0.07808,-0.04148,-0.00488,-0.03416,-0.03904,-0.10736,-0.12688,-0.15616,-0.11224,-0.0732
-0.05856,0.0732,-0.08784,-0.05856,-0.02928,-0.01464,-0.02928,-0.08784,-0.122,-0.14152,-0.08784,-0.05856
-0.05856,0.0732,-0.08784,-0.05856,-0.02928,-0.01464,-0.01952,-0.0732,-0.10248,-0.12688,-0.08296,-0.06344
-0.05368,0.08052,-0.10736,-0.08052,-0.05368,0,0,-0.03416,-0.0732,-0.11712,-0.08784,-0.06832
-0.05368,0.07808,-0.10248,-0.07564,-0.0488,-0.00244,-0.00488,-0.03904,-0.0732,-0.11224,-0.0976,-0.0732
-0.05368,0.08296,-0.11224,-0.0854,-0.05856,0.00244,-0.00488,-0.03904,-0.07808,-0.10736,-0.08784,-0.06832
-0.05368,0.0732,-0.09272,-0.06588,-0.03904,-0.00732,-0.00488,-0.01952,-0.07808,-0.09272,-0.08784,-0.06832
-0.05368,0.0732,-0.09272,-0.06588,-0.03904,-0.00732,0.00488,0,-0.05856,-0.08784,-0.08296,-0.06832
-0.05368,0.07808,-0.10248,-0.07564,-0.0488,-0.00244,0.01952,0,-0.03904,-0.08296,-0.08296,-0.06832
-0.05368,0.07808,-0.10248,-0.07564,-0.0488,-0.00244,0.01952,0.00488,-0.03904,-0.07808,-0.07808,-0.06832
-0.03904,0.06344,-0.08784,-0.06832,-0.0488,0.00488,0.00976,0.00488,-0.03904,-0.06344,-0.07808,-0.06832
-0.03416,0.061,-0.08784,-0.07076,-0.05368,0.00976,0.00976,0.01952,-0.03416,-0.06344,-0.07808,-0.06832
-0.04392,0.0732,-0.10248,-0.08052,-0.05856,0.00732,0.0244,0.0244,-0.01464,-0.05856,-0.0732,-0.0732
-0.04392,0.0732,-0.10248,-0.08052,-0.05856,0.00732,0.0244,0.02928,-0.01464,-0.05368,-0.06832,-0.0732
-0.03416,0.06344,-0.09272,-0.07564,-0.05856,0.0122,0.02928,0.0244,-0.00488,-0.04392,-0.06832,-0.06344
-0.03416,0.061,-0.08784,-0.07076,-0.05368,0.00976,0.02928,0.0244,-0.00488,-0.04392,-0.06344,-0.06344
-0.03904,0.06588,-0.09272,-0.0732,-0.05368,0.00732,0.02928,0.0488,-0.00976,-0.0488,-0.06344,-0.05856
-0.03904,0.06344,-0.08784,-0.06832,-0.0488,0.00488,0.03416,0.05368,0,-0.04392,-0.05856,-0.05856
-0.03904,0.061,-0.08296,-0.06344,-0.04392,0.00244,0.0244,0.04392,0.00488,-0.03904,-0.06832,-0.05856
-0.03416,0.05856,-0.08296,-0.06588,-0.0488,0.00732,0.0244,0.05368,0.00976,-0.03416,-0.06344,-0.05856
-0.03416,0.05856,-0.08296,-0.06588,-0.0488,0.00732,0.03904,0.05856,0.02928,-0.01952,-0.05368,-0.05856
-0.02928,0.05612,-0.08296,-0.06832,-0.05368,0.0122,0.03416,0.06344,0.02928,-0.01952,-0.05368,-0.05856
-0.03904,0.05856,-0.07808,-0.05856,-0.03904,0,0.03904,0.08296,0.03416,-0.01952,-0.0488,-0.05368
-0.03904,0.05856,-0.07808,-0.05856,-0.03904,0,0.03904,0.09272,0.0488,-0.01952,-0.04392,-0.05368
-0.0244,0.0488,-0.0732,-0.061,-0.0488,0.0122,0.04392,0.10248,0.0488,0.00488,-0.04392,-0.05368
-0.0244,0.0488,-0.0732,-0.061,-0.0488,0.0122,0.04392,0.11224,0.05368,0.01464,-0.03904,-0.0488
-0.00976,0.04392,-0.07808,-0.0732,-0.06832,0.02928,0.0488,0.11712,0.06832,0.0244,-0.03416,-0.0488
-0.00976,0.04392,-0.07808,-0.0732,-0.06832,0.02928,0.05368,0.13176,0.07808,0.02928,-0.0244,-0.04392
-0.00976,0.03904,-0.06832,-0.06344,-0.05856,0.0244,0.05368,0.1464,0.08784,0.03904,-0.02928,-0.03904
-0.00488,0.02928,-0.05368,-0.05124,-0.0488,0.02196,0.05856,0.16104,0.0976,0.04392,-0.02928,-0.03904
-0.00976,0.02928,-0.0488,-0.04392,-0.03904,0.01464,0.06344,0.16104,0.11224,0.0488,-0.00976,-0.03904
-0.00488,0.0244,-0.04392,-0.04148,-0.03904,0.01708,0.06344,0.17568,0.122,0.05856,-0.00976,-0.03416
0,0.0244,-0.0488,-0.0488,-0.0488,0.0244,0.0732,0.20008,0.13176,0.06832,-0.00488,-0.02928
0,0.02928,-0.05856,-0.05856,-0.05856,0.02928,0.07808,0.2196,0.15128,0.08296,0.00488,-0.02928
0.01464,0.01464,-0.04392,-0.05124,-0.05856,0.0366,0.07808,0.244,0.17568,0.09272,0.00488,-0.0244
0.0244,0,-0.0244,-0.0366,-0.0488,0.0366,0.07808,0.26352,0.1952,0.10736,0.00488,-0.0244
0.0244,0,-0.0244,-0.0366,-0.0488,0.0366,0.08784,0.27816,0.20984,0.122,0.01952,-0.02928
0.02928,-0.00732,-0.01464,-0.02928,-0.04392,0.0366,0.08784,0.29768,0.22448,0.13664,0.02928,-0.0244
0.0244,-0.00244,-0.01952,-0.03172,-0.04392,0.03416,0.10248,0.3172,0.24888,0.1464,0.03904,-0.00488
0.02928,-0.00244,-0.0244,-0.03904,-0.05368,0.04148,0.11712,0.3416,0.26352,0.16104,0.04392,0
0.03416,-0.0122,-0.00976,-0.02684,-0.04392,0.03904,0.11224,0.35624,0.27328,0.18056,0.05368,0
0.03904,-0.02684,0.01464,-0.00488,-0.0244,0.03172,0.11224,0.37576,0.28792,0.1952,0.05856,0.00488
0.03904,-0.0244,0.00976,-0.00976,-0.02928,0.03416,0.11712,0.3904,0.31232,0.20496,0.08296,0.01464
0.04392,-0.03172,0.01952,-0.00244,-0.0244,0.03416,0.122,0.40016,0.32696,0.2196,0.08296,0.0244
0.0488,-0.04148,0.03416,0.00976,-0.01464,0.03172,0.12688,0.41968,0.32696,0.22936,0.08784,0.01952
0.05368,-0.0488,0.04392,0.01708,-0.00976,0.03172,0.12688,0.42944,0.33184,0.22936,0.09272,0.01464
0.05368,-0.04392,0.03416,0.00732,-0.01952,0.0366,0.13176,0.42456,0.3416,0.23424,0.0976,0.02928
0.05856,-0.0488,0.03904,0.00976,-0.01952,0.03904,0.13176,0.42456,0.34648,0.23912,0.10248,0.03904
0.05856,-0.05612,0.05368,0.0244,-0.00488,0.03172,0.13176,0.41968,0.3416,0.22936,0.0976,0.03904
0.05856,-0.05856,0.05856,0.02928,0,0.02928,0.13176,0.41968,0.3416,0.23424,0.0976,0.03904
0.06344,-0.05856,0.05368,0.02196,-0.00976,0.0366,0.13176,0.41968,0.33184,0.244,0.10736,0.04392
0.06344,-0.05856,0.05368,0.02196,-0.00976,0.0366,0.122,0.40992,0.32208,0.22936,0.11224,0.0488
0.06344,-0.061,0.05856,0.02684,-0.00488,0.03416,0.13176,0.40016,0.3172,0.22936,0.11224,0.0488
0.06344,-0.06344,0.06344,0.03172,0,0.03172,0.11712,0.37576,0.30256,0.2196,0.11224,0.05368
0.06344,-0.06344,0.06344,0.03172,0,0.03172,0.11224,0.366,0.2928,0.21472,0.11224,0.05368
0.05856,-0.061,0.06344,0.03416,0.00488,0.02684,0.10248,0.33672,0.27328,0.20496,0.10736,0.05368
0.05856,-0.06832,0.07808,0.0488,0.01952,0.01952,0.0976,0.30256,0.25864,0.18544,0.0976,0.05856
0.05368,-0.06344,0.0732,0.04636,0.01952,0.01708,0.08784,0.27816,0.23912,0.17568,0.09272,0.05856
0.04392,-0.05368,0.06344,0.04148,0.01952,0.0122,0.08296,0.24888,0.20008,0.16104,0.09272,0.05368
0.04392,-0.05124,0.05856,0.0366,0.01464,0.01464,0.06832,0.21472,0.18544,0.1464,0.08296,0.0488
0.03416,-0.04148,0.0488,0.03172,0.01464,0.00976,0.06344,0.19032,0.15616,0.13176,0.0732,0.0488
0.03416,-0.04148,0.0488,0.03172,0.01464,0.00976,0.05368,0.16104,0.13664,0.11712,0.06832,0.03904
0.0244,-0.02196,0.01952,0.00732,-0.00488,0.01464,0.05368,0.13664,0.12688,0.11712,0.06832,0.04392
0.01464,-0.01708,0.01952,0.0122,0.00488,0.00488,0.04392,0.11712,0.10736,0.0976,0.05856,0.03416
0.00976,-0.01464,0.01952,0.01464,0.00976,0,0.04392,0.0976,0.09272,0.08296,0.0488,0.02928
0,-0.00488,0.00976,0.00976,0.00976,-0.00488,0.04392,0.07808,0.0732,0.06832,0.03904,0.0244
0.00488,-0.00976,0.01464,0.0122,0.00976,-0.00244,0.02928,0.0488,0.05368,0.0488,0.02928,0.00976
0.00488,-0.00732,0.00976,0.00732,0.00488,0,0.0244,0.03904,0.0488,0.03416,0.01952,0
-0.01464,0.00976,-0.00488,0.00244,0.00976,-0.0122,0.01952,0.03904,0.03904,0.03416,0.00488,-0.00488
-0.01464,0.02196,-0.02928,-0.02196,-0.01464,0,0.01952,0.02928,0.0244,0.0244,0,-0.00488
-0.01464,0.02196,-0.02928,-0.02196,-0.01464,0,0.01952,0.01464,0.00488,0.00976,0,-0.01464
-0.0244,0.02684,-0.02928,-0.01708,-0.00488,-0.00976,0.01464,0.00976,0,0,0,-0.01464
-0.03416,0.03172,-0.02928,-0.0122,0.00488,-0.01952,0.0244,0.00976,0.00488,0.00976,-0.00488,-0.00488
-0.03416,0.02684,-0.01952,-0.00244,0.01464,-0.0244,0.01952,0.00488,0,0,-0.00976,-0.01464
-0.02928,0.02928,-0.02928,-0.01464,0,-0.01464,0.01952,0,0,-0.01464,-0.00976,-0.0244
-0.01952,0.0244,-0.02928,-0.01952,-0.00976,-0.00488,0.01952,-0.00488,-0.00488,-0.01464,-0.01464,-0.0244
-0.02928,0.02928,-0.02928,-0.01464,0,-0.01464,0.01952,-0.00488,-0.00976,-0.01464,-0.01464,-0.01464
-0.02928,0.03416,-0.03904,-0.0244,-0.00976,-0.00976,0.01952,-0.00488,-0.00976,-0.01464,-0.01952,-0.01464
-0.01952,0.02196,-0.0244,-0.01464,-0.00488,-0.00732,0.01952,-0.01464,-0.01952,-0.0244,-0.02928,-0.0244
-0.01952,0.02196,-0.0244,-0.01464,-0.00488,-0.00732,0.01952,-0.01464,-0.01952,-0.03416,-0.02928,-0.0244
-0.01952,0.02196,-0.0244,-0.01464,-0.00488,-0.00732,0.01952,-0.01464,-0.01952,-0.02928,-0.01952,-0.0244
-0.0244,0.02196,-0.01952,-0.00732,0.00488,-0.01464,0.01952,-0.01464,-0.01952,-0.02928,-0.01952,-0.0244
-0.0244,0.02684,-0.02928,-0.01708,-0.00488,-0.00976,0.01464,-0.00488,-0.00976,-0.02928,-0.01952,-0.0244
-0.0244,0.03416,-0.04392,-0.03172,-0.01952,-0.00244,0.01952,-0.00488,-0.01464,-0.02928,-0.0244,-0.0244
-0.03416,0.0366,-0.03904,-0.02196,-0.00488,-0.01464,0.00976,-0.00488,-0.01952,-0.01952,-0.01464,-0.0244
-0.03416,0.0366,-0.03904,-0.02196,-0.00488,-0.01464,0.00976,-0.00488,-0.0244,-0.0244,-0.01464,-0.0244
-0.0244,0.03172,-0.03904,-0.02684,-0.01464,-0.00488,0.01952,-0.00488,-0.01464,-0.0244,-0.0244,-0.02928
-0.0244,0.03172,-0.03904,-0.02684,-0.01464,-0.00488,0.01952,-0.00488,-0.01464,-0.0244,-0.0244,-0.02928
-0.03904,0.03904,-0.03904,-0.01952,0,-0.01952,0.01952,-0.00488,-0.01464,-0.03416,-0.0244,-0.02928
-0.03904,0.0366,-0.03416,-0.01464,0.00488,-0.02196,0.0244,-0.00488,-0.01464,-0.03416,-0.0244,-0.02928
-0.03416,0.03416,-0.03416,-0.01708,0,-0.01708,0.0244,-0.00976,-0.01464,-0.03416,-0.0244,-0.02928
-0.03416,0.0366,-0.03904,-0.02196,-0.00488,-0.01464,0.02928,-0.01464,-0.01464,-0.03416,-0.0244,-0.02928
-0.03416,0.03172,-0.02928,-0.0122,0.00488,-0.01952,0.01952,-0.00488,-0.00976,-0.03416,-0.01464,-0.02928
-0.03416,0.03172,-0.02928,-0.0122,0.00488,-0.01952,0.01464,-0.00488,-0.01464,-0.03416,-0.01464,-0.02928
-0.03416,0.03416,-0.03416,-0.01708,0,-0.01708,0.0244,-0.00488,-0.01464,-0.03416,-0.01952,-0.02928
-0.03416,0.03416,-0.03416,-0.01708,0,-0.01708,0.0244,-0.00488,-0.01464,-0.03416,-0.01952,-0.02928
-0.03416,0.03416,-0.03416,-0.01708,0,-0.01708,0.01464,-0.00488,-0.01464,-0.03416,-0.01952,-0.03904
-0.03416,0.03416,-0.03416,-0.01708,0,-0.01708,0.01464,-0.00488,-0.01464,-0.03416,-0.01952,-0.03904
-0.0244,0.0244,-0.0244,-0.0122,0,-0.0122,0.00976,-0.00488,-0.01464,-0.02928,-0.01952,-0.02928
-0.0244,0.02684,-0.02928,-0.01708,-0.00488,-0.00976,0.00976,-0.00976,-0.01464,-0.02928,-0.01952,-0.0244
-0.0244,0.0244,-0.0244,-0.0122,0,-0.0122,0.01952,-0.00976,-0.0244,-0.02928,-0.01464,-0.03416
-0.0244,0.0244,-0.0244,-0.0122,0,-0.0122,0.01952,-0.00976,-0.0244,-0.02928,-0.01464,-0.03904
-0.03416,0.03416,-0.03416,-0.01708,0,-0.01708,0.01952,-0.01464,-0.01952,-0.02928,-0.01464,-0.02928
-0.03416,0.03416,-0.03416,-0.01708,0,-0.01708,0.01464,-0.01464,-0.0244,-0.03416,-0.01464,-0.02928
-0.0244,0.02928,-0.03416,-0.02196,-0.00976,-0.00732,0.01952,-0.01952,-0.0244,-0.03416,-0.01464,-0.02928
-0.0244,0.03172,-0.03904,-0.02684,-0.01464,-0.00488,0.01952,-0.01952,-0.0244,-0.03416,-0.01464,-0.02928
-0.02928,0.03172,-0.03416,-0.01952,-0.00488,-0.0122,0.01464,-0.02928,-0.0244,-0.04392,-0.01952,-0.02928
-0.02928,0.03416,-0.03904,-0.0244,-0.00976,-0.00976,0.01464,-0.02928,-0.02928,-0.0488,-0.0244,-0.02928
-0.0244,0.03172,-0.03904,-0.02684,-0.01464,-0.00488,0.01464,-0.02928,-0.02928,-0.0488,-0.0244,-0.02928
-0.0244,0.03172,-0.03904,-0.02684,-0.01464,-0.00488,0.00976,-0.02928,-0.03416,-0.05368,-0.02928,-0.02928
-0.0244,0.02928,-0.03416,-0.02196,-0.00976,-0.00732,0.00976,-0.03416,-0.03416,-0.05368,-0.02928,-0.02928
-0.0244,0.02928,-0.03416,-0.02196,-0.00976,-0.00732,0.00976,-0.03416,-0.03904,-0.05368,-0.02928,-0.02928
-0.0244,0.02928,-0.03416,-0.02196,-0.00976,-0.00732,0.00976,-0.03416,-0.03904,-0.0488,-0.02928,-0.02928
-0.0244,0.02928,-0.03416,-0.02196,-0.00976,-0.00732,0.00976,-0.03904,-0.04392,-0.05368,-0.03416,-0.02928
-0.03904,0.03904,-0.03904,-0.01952,0,-0.01952,0,-0.03904,-0.04392,-0.05368,-0.03416,-0.02928
-0.03904,0.0366,-0.03416,-0.01464,0.00488,-0.02196,0,-0.04392,-0.0488,-0.05368,-0.03416,-0.03416
-0.03904,0.04148,-0.04392,-0.0244,-0.00488,-0.01708,0.00976,-0.04392,-0.0488,-0.05368,-0.0488,-0.04392
-0.03416,0.04148,-0.0488,-0.03172,-0.01464,-0.00976,0.00488,-0.04392,-0.0488,-0.05856,-0.04392,-0.04392
-0.03416,0.0366,-0.03904,-0.02196,-0.00488,-0.01464,0.00488,-0.04392,-0.0488,-0.05856,-0.0488,-0.03416
-0.03904,0.03904,-0.03904,-0.01952,0,-0.01952,0.00488,-0.04392,-0.05368,-0.05368,-0.0488,-0.03416
-0.03904,0.0366,-0.03416,-0.01464,0.00488,-0.02196,0.00488,-0.04392,-0.05368,-0.06344,-0.0488,-0.03416
-0.03904,0.0366,-0.03416,-0.01464,0.00488,-0.02196,0.00488,-0.04392,-0.05368,-0.06344,-0.0488,-0.03416
-0.03904,0.03904,-0.03904,-0.01952,0,-0.01952,0.00488,-0.03904,-0.05368,-0.06344,-0.0488,-0.03416
-0.03904,0.03904,-0.03904,-0.01952,0,-0.01952,0.00488,-0.04392,-0.05856,-0.0732,-0.0488,-0.03416
-0.03904,0.04636,-0.05368,-0.03416,-0.01464,-0.0122,0,-0.05368,-0.05856,-0.0732,-0.0488,-0.02928
-0.03904,0.04392,-0.0488,-0.02928,-0.00976,-0.01464,0,-0.05856,-0.05856,-0.07808,-0.05368,-0.02928
-0.03904,0.03904,-0.03904,-0.01952,0,-0.01952,0,-0.0488,-0.06832,-0.07808,-0.05368,-0.03904
-0.03904,0.03904,-0.03904,-0.01952,0,-0.01952,0,-0.0488,-0.0732,-0.08296,-0.05856,-0.04392
-0.03904,0.04392,-0.0488,-0.02928,-0.00976,-0.01464,0,-0.0488,-0.06344,-0.0732,-0.05856,-0.04392
-0.04392,0.04636,-0.0488,-0.02684,-0.00488,-0.01952,0,-0.0488,-0.05368,-0.06832,-0.05856,-0.04392
-0.03416,0.03904,-0.04392,-0.02684,-0.00976,-0.0122,0,-0.0488,-0.06832,-0.07808,-0.05856,-0.03416
-0.02928,0.03416,-0.03904,-0.0244,-0.00976,-0.00976,0,-0.03904,-0.05856,-0.06832,-0.0488,-0.03904
-0.02928,0.03416,-0.03904,-0.0244,-0.00976,-0.00976,0,-0.03904,-0.05856,-0.06832,-0.0488,-0.03904
-0.02928,0.03172,-0.03416,-0.01952,-0.00488,-0.0122,0,-0.0488,-0.05856,-0.06832,-0.0488,-0.03904
-0.02928,0.02684,-0.0244,-0.00976,0.00488,-0.01708,0.00488,-0.03416,-0.05368,-0.06344,-0.0488,-0.03904
-0.03416,0.02928,-0.0244,-0.00732,0.00976,-0.02196,0.00976,-0.03416,-0.05368,-0.05368,-0.03904,-0.04392
-0.02928,0.01952,-0.00976,0.00488,0.01952,-0.0244,0.00976,-0.02928,-0.0488,-0.05368,-0.03416,-0.03904
-0.01952,0.00732,0.00488,0.01464,0.0244,-0.02196,0.01464,-0.0244,-0.03904,-0.02928,-0.0244,-0.0244
-0.01952,0,0.01952,0.02928,0.03904,-0.02928,0.01952,-0.01464,-0.02928,-0.0244,-0.0244,-0.01952
-0.00976,-0.00732,0.0244,0.02928,0.03416,-0.02196,0.0244,-0.00488,-0.02928,-0.03416,-0.0244,-0.01464
-0.00976,-0.00732,0.0244,0.02928,0.03416,-0.02196,0.0244,-0.00488,-0.0244,-0.02928,-0.01952,-0.01952
0,-0.0122,0.0244,0.0244,0.0244,-0.0122,0.0244,-0.00976,-0.01952,-0.03416,-0.02928,-0.01952
0,-0.00976,0.01952,0.01952,0.01952,-0.00976,0.00976,-0.00976,-0.01952,-0.03416,-0.03416,-0.01952
0.00976,-0.00976,0.00976,0.00488,0,0.00488,0.00976,-0.00976,-0.01952,-0.0244,-0.0244,-0.01952
0.00976,-0.0122,0.01464,0.00976,0.00488,0.00244,0,-0.01464,-0.01952,-0.0244,-0.01464,-0.00976
0.00488,-0.0244,0.04392,0.04148,0.03904,-0.01708,-0.00976,-0.01952,-0.01952,-0.01464,0,-0.00488
0.01464,-0.03904,0.06344,0.05612,0.0488,-0.01708,-0.01464,-0.01952,-0.01464,-0.01464,0,0
0.0244,-0.0366,0.0488,0.0366,0.0244,0,-0.01952,-0.01952,-0.0244,-0.0244,0.00488,0.00488
0.0244,-0.02928,0.03416,0.02196,0.00976,0.00732,-0.01464,-0.01952,-0.0244,-0.0244,0,0.01464
0.03416,-0.02684,0.01952,0.00244,-0.01464,0.0244,-0.02928,-0.03416,-0.02928,-0.02928,-0.00976,0.00488
0.02928,-0.0122,-0.00488,-0.01952,-0.03416,0.03172,-0.03904,-0.05856,-0.05856,-0.05368,-0.02928,-0.00488
0.02928,-0.01464,0,-0.01464,-0.02928,0.02928,-0.03904,-0.06832,-0.06344,-0.05856,-0.0244,0.00488
0.03416,-0.01464,-0.00488,-0.02196,-0.03904,0.0366,-0.03904,-0.06832,-0.06344,-0.05856,-0.0244,0.00488
0.03904,-0.0122,-0.01464,-0.03416,-0.05368,0.04636,-0.0244,-0.04392,-0.05368,-0.04392,-0.00976,0
0.00976,0.00732,-0.0244,-0.02928,-0.03416,0.02196,-0.01952,-0.04392,-0.05856,-0.05368,-0.01464,-0.00488
-0.0244,0.02928,-0.03416,-0.02196,-0.00976,-0.00732,0,-0.05368,-0.05368,-0.05856,-0.03416,-0.03416
-0.02928,0.03172,-0.03416,-0.01952,-0.00488,-0.0122,0,-0.06344,-0.06344,-0.06832,-0.0488,-0.03904
-0.03416,0.04392,-0.05368,-0.0366,-0.01952,-0.00732,-0.00488,-0.05368,-0.06832,-0.0732,-0.04392,-0.03904
-0.03416,0.0488,-0.06344,-0.04636,-0.02928,-0.00244,-0.00976,-0.06344,-0.0732,-0.0732,-0.0488,-0.0488
-0.03904,0.05124,-0.06344,-0.04392,-0.0244,-0.00732,-0.00976,-0.08296,-0.10248,-0.10248,-0.07808,-0.05856
-0.04392,0.05856,-0.0732,-0.05124,-0.02928,-0.00732,-0.00976,-0.08784,-0.10736,-0.11224,-0.08296,-0.06344
-0.05856,0.061,-0.06344,-0.03416,-0.00488,-0.02684,-0.01464,-0.08296,-0.11224,-0.10736,-0.07808,-0.05368
-0.05856,0.061,-0.06344,-0.03416,-0.00488,-0.02684,-0.01464,-0.08784,-0.11224,-0.10736,-0.07808,-0.05368
-0.05856,0.06588,-0.0732,-0.04392,-0.01464,-0.02196,-0.01464,-0.0732,-0.0976,-0.10248,-0.08296,-0.05368
-0.05856,0.06344,-0.06832,-0.03904,-0.00976,-0.0244,-0.01464,-0.0732,-0.09272,-0.10248,-0.07808,-0.05368
-0.0488,0.06588,-0.08296,-0.05856,-0.03416,-0.00732,-0.01464,-0.0732,-0.09272,-0.0976,-0.07808,-0.06344
-0.04392,0.061,-0.07808,-0.05612,-0.03416,-0.00488,-0.00976,-0.0732,-0.09272,-0.0976,-0.07808,-0.06344
-0.0488,0.06344,-0.07808,-0.05368,-0.02928,-0.00976,-0.00976,-0.08296,-0.0976,-0.10248,-0.07808,-0.06344
-0.0488,0.06344,-0.07808,-0.05368,-0.02928,-0.00976,-0.00976,-0.07808,-0.0976,-0.10736,-0.07808,-0.06344
-0.0488,0.061,-0.0732,-0.0488,-0.0244,-0.0122,0.00976,-0.0732,-0.07808,-0.0976,-0.07808,-0.06832
-0.05856,0.07808,-0.0976,-0.06832,-0.03904,-0.00976,0.04392,-0.00488,-0.04392,-0.07808,-0.0976,-0.0732
-0.06832,0.08784,-0.10736,-0.0732,-0.03904,-0.01464,0.13664,0.16104,0.05856,-0.0244,-0.10736,-0.122
-0.08296,0.06344,-0.04392,-0.00244,0.03904,-0.061,0.23424,0.32696,0.2196,0.06344,-0.09272,-0.15616
-0.0244,-0.00976,0.04392,0.05612,0.06832,-0.04636,0.32208,0.59048,0.49288,0.29768,0.04392,-0.09272
0.122,-0.15616,0.19032,0.12932,0.06832,0.02684,0.37576,0.9272,0.88816,0.72224,0.38064,0.10736
0.366,-0.33916,0.31232,0.12932,-0.05368,0.20984,0.25376,0.92232,1.08336,1.06384,0.80032,0.4148
0.5856,-0.48068,0.37576,0.08296,-0.20984,0.39772,0,0.53192,0.94672,1.16632,1.12728,0.72224
0.7564,-0.63684,0.51728,0.13908,-0.23912,0.49776,-0.30744,-0.06832,0.64904,1.18096,1.4152,1.03456
0.66856,-0.67344,0.67832,0.34404,0.00976,0.3294,-0.52704,-0.67344,0.20496,0.94672,1.42496,1.16632
