i,aVR,ii,aVF,iii,aVL,V1,V2,V3,V4,V5,V6
0.09272,-0.09516,0.0976,0.05124,0.00488,0.04392,-0.0488,-0.00488,0.04392,0.06832,0.06832,0.0732
0.07808,-0.08784,0.0976,0.05856,0.01952,0.02928,-0.03904,0,0.03904,0.05856,0.05856,0.06832
0.04392,-0.06588,0.08784,0.06588,0.04392,0,-0.01952,0.00488,0.03416,0.05856,0.05368,0.06344
0.01464,-0.04148,0.06832,0.061,0.05368,-0.01952,-0.01952,0.00976,0.03416,0.0488,0.0488,0.05856
0.00976,-0.03416,0.05856,0.05368,0.0488,-0.01952,-0.01464,0.01464,0.03416,0.0488,0.0488,0.05368
-0.00488,-0.02196,0.0488,0.05124,0.05368,-0.02928,-0.00976,0.00976,0.01952,0.04392,0.03904,0.04392
-0.00976,-0.01708,0.04392,0.0488,0.05368,-0.03172,0,0.00976,0.01952,0.04392,0.03416,0.03904
-0.01952,-0.00976,0.03904,0.0488,0.05856,-0.03904,0.00976,0.00976,0.01464,0.02928,0.0244,0.0244
-0.01952,-0.00732,0.03416,0.04392,0.05368,-0.0366,0.01464,0.00976,0.0244,0.0244,0.01952,0.01952
-0.01952,-0.00732,0.03416,0.04392,0.05368,-0.0366,0.01464,0.00976,0.01952,0.01464,0.00488,0.00976
-0.01464,-0.00488,0.0244,0.03172,0.03904,-0.02684,0.01952,0.00976,0.01952,0.01464,0,0
-0.01952,0,0.01952,0.02928,0.03904,-0.02928,0.01952,0.00488,0.00976,0.00488,-0.00488,-0.01464
-0.0244,0.00244,0.01952,0.03172,0.04392,-0.03416,0.01952,0,0,0,-0.00976,-0.01952
-0.02928,0.00488,0.01952,0.03416,0.0488,-0.03904,0.01952,0,0,0,-0.00976,-0.01464
-0.02928,0.00732,0.01464,0.02928,0.04392,-0.0366,0.01952,0,0,0,-0.00976,-0.01464
-0.02928,0.00732,0.01464,0.02928,0.04392,-0.0366,0.01464,-0.00488,-0.00488,-0.00976,-0.01952,-0.01952
-0.02928,0.0122,0.00488,0.01952,0.03416,-0.03172,0.00976,-0.00488,-0.00488,-0.00976,-0.01952,-0.01464
-0.0244,0.00488,0.01464,0.02684,0.03904,-0.03172,0.00976,-0.00976,-0.01464,-0.0244,-0.03416,-0.0244
-0.01952,0.00244,0.01464,0.0244,0.03416,-0.02684,0.00976,-0.01464,-0.01952,-0.0244,-0.03904,-0.0244
-0.00976,-0.00244,0.01464,0.01952,0.0244,-0.01708,0.01464,-0.00976,-0.0244,-0.01952,-0.03904,-0.0244
-0.00976,-0.00244,0.01464,0.01952,0.0244,-0.01708,0.01464,-0.00976,-0.02928,-0.01952,-0.04392,-0.02928
-0.01464,0,0.01464,0.02196,0.02928,-0.02196,0.01464,-0.00976,-0.0244,-0.01952,-0.03904,-0.0244
-0.0244,0.00488,0.01464,0.02684,0.03904,-0.03172,0.0244,0,-0.0244,-0.01952,-0.03904,-0.0244
-0.0244,0.00488,0.01464,0.02684,0.03904,-0.03172,0.0244,0,-0.0244,-0.02928,-0.03904,-0.0244
-0.0244,0.00732,0.00976,0.02196,0.03416,-0.02928,0.0244,-0.00488,-0.0244,-0.02928,-0.03904,-0.0244
-0.03904,0.01708,0.00488,0.0244,0.04392,-0.04148,0.0244,-0.00488,-0.01952,-0.0244,-0.03904,-0.0244
-0.0488,0.0244,0,0.0244,0.0488,-0.0488,0.0244,0,-0.01952,-0.0244,-0.03904,-0.0244
-0.02928,0.0122,0.00488,0.01952,0.03416,-0.03172,0.0244,0,-0.01952,-0.0244,-0.03904,-0.0244
-0.00976,0.00244,0.00488,0.00976,0.01464,-0.0122,0.0244,0,-0.01952,-0.0244,-0.03904,-0.0244
-0.02928,0.00976,0.00976,0.0244,0.03904,-0.03416,0.0244,0,-0.01464,-0.01952,-0.03416,-0.02928
-0.04392,0.01708,0.00976,0.03172,0.05368,-0.0488,0.0244,0,-0.00976,-0.01464,-0.02928,-0.02928
-0.04392,0.01708,0.00976,0.03172,0.05368,-0.0488,0.0244,0,-0.01464,-0.01464,-0.03416,-0.02928
-0.03904,0.01464,0.00976,0.02928,0.0488,-0.04392,0.0244,0,-0.01952,-0.01464,-0.03416,-0.02928
-0.02928,0.0122,0.00488,0.01952,0.03416,-0.03172,0.0244,0,-0.02928,-0.01464,-0.02928,-0.02928
-0.01952,0.00732,0.00488,0.01464,0.0244,-0.02196,0.0244,0,-0.02928,-0.00976,-0.02928,-0.02928
-0.0244,0.00488,0.01464,0.02684,0.03904,-0.03172,0.0244,0,-0.01952,-0.00488,-0.0244,-0.0244
-0.03416,0.00976,0.01464,0.03172,0.0488,-0.04148,0.0244,0.00488,-0.00976,0.00488,-0.01952,-0.01952
-0.04392,0.01952,0.00488,0.02684,0.0488,-0.04636,0.0244,0.00488,-0.01464,0.00488,-0.01952,-0.01464
-0.04392,0.01952,0.00488,0.02684,0.0488,-0.04636,0.02928,0.00488,-0.01464,0.00488,-0.01952,-0.01464
-0.03904,0.01464,0.00976,0.02928,0.0488,-0.04392,0.02928,0.00976,-0.01464,0.00488,-0.01952,-0.01464
-0.03416,0.0122,0.00976,0.02684,0.04392,-0.03904,0.02928,0.00976,-0.01464,0.00488,-0.01952,-0.00976
-0.02928,0.00732,0.01464,0.02928,0.04392,-0.0366,0.01952,0.00976,-0.01464,0,-0.01952,-0.01464
-0.02928,0.00732,0.01464,0.02928,0.04392,-0.0366,0.00976,0.00976,-0.00976,0,-0.01952,-0.01952
-0.02928,0.00976,0.00976,0.0244,0.03904,-0.03416,0.01952,0.00976,-0.00976,0.00488,-0.01952,-0.01952
-0.02928,0.00976,0.00976,0.0244,0.03904,-0.03416,0.02928,0.00976,-0.00976,0.00488,-0.01952,-0.01952
-0.02928,0.00732,0.01464,0.02928,0.04392,-0.0366,0.02928,0.00976,-0.00976,0.00976,-0.01464,-0.01952
-0.03416,0.00976,0.01464,0.03172,0.0488,-0.04148,0.02928,0.01464,-0.00976,0.00976,-0.01464,-0.01952
-0.03904,0.01464,0.00976,0.02928,0.0488,-0.04392,0.02928,0.01464,0,0.00976,-0.01952,-0.01952
-0.03904,0.01464,0.00976,0.02928,0.0488,-0.04392,0.02928,0.01464,0.00488,0.00976,-0.01952,-0.01952
-0.0488,0.01952,0.00976,0.03416,0.05856,-0.05368,0.02928,0.01464,0,0.00488,-0.01952,-0.01952
-0.0488,0.01952,0.00976,0.03416,0.05856,-0.05368,0.02928,0.01464,0,0.00488,-0.01952,-0.01952
-0.03904,0.01464,0.00976,0.02928,0.0488,-0.04392,0.03416,0.00976,-0.00488,0,-0.01952,-0.01952
-0.02928,0.00976,0.00976,0.0244,0.03904,-0.03416,0.03416,0.00976,-0.00976,-0.00488,-0.0244,-0.01952
-0.03904,0.01464,0.00976,0.02928,0.0488,-0.04392,0.02928,0.00976,-0.00976,0,-0.0244,-0.01464
-0.0488,0.01952,0.00976,0.03416,0.05856,-0.05368,0.02928,0.00976,-0.00976,0,-0.0244,-0.01464
-0.0488,0.01952,0.00976,0.03416,0.05856,-0.05368,0.02928,0.00976,-0.00976,0,-0.0244,-0.01464
-0.0488,0.01952,0.00976,0.03416,0.05856,-0.05368,0.02928,0.00976,-0.00976,0,-0.0244,-0.01464
-0.04392,0.02196,0,0.02196,0.04392,-0.04392,0.02928,0.00976,-0.00976,0,-0.0244,-0.01464
-0.04392,0.02196,0,0.02196,0.04392,-0.04392,0.02928,0.00976,-0.00976,0,-0.0244,-0.01464
-0.0488,0.02928,-0.00976,0.01464,0.03904,-0.04392,0.02928,0.00488,-0.00976,-0.00488,-0.0244,-0.01464
-0.05856,0.0366,-0.01464,0.01464,0.04392,-0.05124,0.02928,-0.00488,-0.01464,-0.00488,-0.02928,-0.01952
-0.0488,0.02684,-0.00488,0.01952,0.04392,-0.04636,0.02928,-0.00488,-0.01464,-0.00976,-0.02928,-0.01952
-0.03904,0.01708,0.00488,0.0244,0.04392,-0.04148,0.02928,-0.00488,-0.01464,-0.00976,-0.02928,-0.01952
-0.03904,0.01464,0.00976,0.02928,0.0488,-0.04392,0.02928,-0.00488,-0.01464,-0.00976,-0.03416,-0.0244
-0.03904,0.01464,0.00976,0.02928,0.0488,-0.04392,0.02928,-0.00488,-0.01464,-0.01464,-0.03904,-0.02928
-0.03416,0.0122,0.00976,0.02684,0.04392,-0.03904,0.02928,0,-0.00976,-0.01952,-0.04392,-0.03416
-0.03416,0.01464,0.00488,0.02196,0.03904,-0.0366,0.03416,0.00488,-0.00488,-0.01952,-0.04392,-0.03416
-0.03416,0.01464,0.00488,0.02196,0.03904,-0.0366,0.03416,0.00488,0,-0.01952,-0.03904,-0.02928
-0.02928,0.00488,0.01952,0.03416,0.0488,-0.03904,0.03416,0.00488,0,-0.01952,-0.03416,-0.0244
-0.0244,-0.00244,0.02928,0.04148,0.05368,-0.03904,0.03416,0.00976,0.00488,-0.00976,-0.0244,-0.01952
-0.0244,-0.00732,0.03904,0.05124,0.06344,-0.04392,0.03904,0.01464,0.00976,0,-0.01464,-0.01464
-0.01952,-0.0122,0.04392,0.05368,0.06344,-0.04148,0.03904,0.01952,0.01952,0.00976,-0.00976,-0.00488
-0.01952,-0.01464,0.0488,0.05856,0.06832,-0.04392,0.03904,0.02928,0.02928,0.01952,-0.00976,0
-0.0244,-0.0122,0.0488,0.061,0.0732,-0.0488,0.03904,0.03904,0.03416,0.01952,-0.00976,0
-0.02928,-0.00976,0.0488,0.06344,0.07808,-0.05368,0.03904,0.0488,0.03904,0.01952,-0.00976,0
-0.02928,-0.0122,0.05368,0.06832,0.08296,-0.05612,0.03416,0.03904,0.03904,0.01952,-0.00976,0
-0.0244,-0.01708,0.05856,0.07076,0.08296,-0.05368,0.0244,0.0244,0.03904,0.01952,-0.00488,0
-0.0244,-0.02196,0.06832,0.08052,0.09272,-0.05856,0.01952,0.01464,0.03904,0.01952,-0.00488,0
-0.01952,-0.02928,0.07808,0.08784,0.0976,-0.05856,0.01464,0.00488,0.03904,0.01952,-0.00488,0.00488
-0.01952,-0.0244,0.06832,0.07808,0.08784,-0.05368,0.01464,0,0.03416,0.0244,0,0.00976
-0.01952,-0.0244,0.06832,0.07808,0.08784,-0.05368,0.00488,-0.01952,0.0244,0.02928,0,0.00976
-0.0244,-0.02196,0.06832,0.08052,0.09272,-0.05856,-0.00488,-0.0244,0.01952,0.03904,0.00976,0.00488
-0.0244,-0.01464,0.05368,0.06588,0.07808,-0.05124,0,-0.01952,0.00976,0.04392,0.01464,0.00488
-0.01952,-0.01708,0.05368,0.06344,0.0732,-0.04636,-0.00976,-0.0244,0.00488,0.0244,0.00976,0.00488
-0.00976,-0.02196,0.05368,0.05856,0.06344,-0.0366,-0.00976,-0.0244,0,0.01464,0.00976,0.00488
0.00976,-0.03172,0.05368,0.0488,0.04392,-0.01708,-0.01464,-0.02928,-0.01464,0.00488,0.00488,0.00488
0.00976,-0.02928,0.0488,0.04392,0.03904,-0.01464,-0.01952,-0.03416,-0.0244,-0.00488,-0.01464,-0.00488
0.00488,-0.01708,0.02928,0.02684,0.0244,-0.00976,-0.01952,-0.03904,-0.0488,-0.0244,-0.03904,-0.0244
-0.00976,-0.00732,0.0244,0.02928,0.03416,-0.02196,-0.01952,-0.03904,-0.0488,-0.0244,-0.04392,-0.02928
-0.01464,-0.00488,0.0244,0.03172,0.03904,-0.02684,-0.00976,-0.03904,-0.04392,-0.01952,-0.04392,-0.02928
-0.01464,-0.00488,0.0244,0.03172,0.03904,-0.02684,-0.00488,-0.03904,-0.03416,-0.01464,-0.04392,-0.02928
-0.0244,0,0.0244,0.0366,0.0488,-0.0366,-0.00488,-0.03904,-0.03416,-0.01952,-0.03904,-0.0244
-0.03416,0.00732,0.01952,0.0366,0.05368,-0.04392,-0.00488,-0.03904,-0.03416,-0.01952,-0.03416,-0.01952
-0.0244,0.00244,0.01952,0.03172,0.04392,-0.03416,0,-0.03416,-0.02928,-0.01464,-0.02928,-0.01952
-0.01464,-0.00244,0.01952,0.02684,0.03416,-0.0244,0,-0.03416,-0.0244,-0.00976,-0.02928,-0.01952
-0.0244,0.00976,0.00488,0.01708,0.02928,-0.02684,0.00488,-0.0244,-0.02928,-0.01952,-0.03904,-0.0244
-0.03904,0.0244,-0.00976,0.00976,0.02928,-0.03416,0.00976,-0.01952,-0.02928,-0.02928,-0.05368,-0.04392
-0.05368,0.0366,-0.01952,0.00732,0.03416,-0.04392,0.01464,-0.01464,-0.02928,-0.03416,-0.06344,-0.0488
-0.0732,0.05124,-0.02928,0.00732,0.04392,-0.05856,0.01952,-0.01464,-0.03416,-0.04392,-0.06832,-0.05368
-0.06344,0.04636,-0.02928,0.00244,0.03416,-0.0488,0.01952,-0.01952,-0.03904,-0.03904,-0.06832,-0.05368
-0.05368,0.04148,-0.02928,-0.00244,0.0244,-0.03904,0.0244,-0.01952,-0.03416,-0.03416,-0.05856,-0.0488
-0.06832,0.05124,-0.03416,0,0.03416,-0.05124,0.0244,-0.01464,-0.02928,-0.03416,-0.05368,-0.0488
-0.05856,0.04636,-0.03416,-0.00488,0.0244,-0.04148,0.0244,-0.01464,-0.02928,-0.03416,-0.04392,-0.0488
-0.05856,0.04148,-0.0244,0.00488,0.03416,-0.04636,0.0244,-0.01464,-0.02928,-0.03416,-0.04392,-0.0488
-0.05856,0.03904,-0.01952,0.00976,0.03904,-0.0488,0.0244,-0.01464,-0.03416,-0.03416,-0.0488,-0.0488
-0.05368,0.0366,-0.01952,0.00732,0.03416,-0.04392,0.0244,-0.01464,-0.03416,-0.04392,-0.05368,-0.05368
-0.05368,0.0366,-0.01952,0.00732,0.03416,-0.04392,0.0244,-0.01464,-0.03416,-0.0488,-0.05368,-0.05368
-0.05856,0.03904,-0.01952,0.00976,0.03904,-0.0488,0.0244,-0.01464,-0.03904,-0.0488,-0.05856,-0.05368
-0.05856,0.03416,-0.00976,0.01952,0.0488,-0.05368,0.0244,-0.01464,-0.04392,-0.0488,-0.05856,-0.05368
-0.05856,0.0366,-0.01464,0.01464,0.04392,-0.05124,0.0244,-0.01464,-0.03904,-0.0488,-0.06344,-0.05856
-0.05856,0.04148,-0.0244,0.00488,0.03416,-0.04636,0.0244,-0.01464,-0.03904,-0.05368,-0.06832,-0.06344
-0.05856,0.04392,-0.02928,0,0.02928,-0.04392,0.0244,-0.01464,-0.04392,-0.05368,-0.06832,-0.06344
-0.05856,0.04392,-0.02928,0,0.02928,-0.04392,0.0244,-0.01464,-0.04392,-0.0488,-0.06832,-0.06344
-0.06832,0.04636,-0.0244,0.00976,0.04392,-0.05612,0.02928,-0.01464,-0.03904,-0.0488,-0.06344,-0.05856
-0.07808,0.05124,-0.0244,0.01464,0.05368,-0.06588,0.04392,0,-0.0244,-0.04392,-0.06344,-0.05856
-0.0976,0.061,-0.0244,0.0244,0.0732,-0.0854,0.06832,0.03416,0.00976,-0.03416,-0.06344,-0.0732
-0.11224,0.06588,-0.01952,0.0366,0.09272,-0.10248,0.08296,0.05856,0.02928,-0.0244,-0.06344,-0.0732
-0.11712,0.06588,-0.01464,0.04392,0.10248,-0.1098,0.08296,0.06832,0.04392,0.00976,-0.03904,-0.05368
-0.0976,0.03904,0.01952,0.06832,0.11712,-0.10736,0.07808,0.06832,0.0732,0.0732,0.03416,0.00488
-0.05368,0.00244,0.0488,0.07564,0.10248,-0.07808,0.05856,0.07808,0.122,0.15128,0.12688,0.08296
0.02928,-0.05856,0.08784,0.0732,0.05856,-0.01464,0.02928,0.0976,0.18544,0.24888,0.244,0.18056
0.15616,-0.15128,0.1464,0.06832,-0.00976,0.08296,-0.04392,0.09272,0.23424,0.34648,0.38552,0.32208
0.30256,-0.2562,0.20984,0.05856,-0.09272,0.19764,-0.14152,0.02928,0.25864,0.44896,0.55144,0.49288
0.46848,-0.37576,0.28304,0.0488,-0.18544,0.32696,-0.26352,-0.10736,0.22936,0.5368,0.71248,0.6588
0.64904,-0.5124,0.37576,0.05124,-0.27328,0.46116,-0.41968,-0.2928,0.15128,0.60024,0.87352,0.83936
0.79056,-0.6344,0.47824,0.08296,-0.31232,0.55144,-0.55144,-0.4636,0.10248,0.67832,1.00528,0.98088
0.86376,-0.671,0.47824,0.04636,-0.38552,0.62464,-0.61,-0.5612,0,0.60024,0.95648,0.96624
0.84424,-0.61732,0.3904,-0.03172,-0.45384,0.64904,-0.59048,-0.5612,-0.11712,0.39528,0.73688,0.78568
0.70272,-0.49044,0.27816,-0.0732,-0.42456,0.56364,-0.50264,-0.5368,-0.22448,0.2196,0.51728,0.58072
0.4636,-0.30256,0.14152,-0.09028,-0.32208,0.39284,-0.3904,-0.50264,-0.37088,-0.00488,0.25376,0.33672
0.22936,-0.11468,0,-0.11468,-0.22936,0.22936,-0.27816,-0.49776,-0.55144,-0.2684,-0.07808,0.06344
0.08784,0.00488,-0.0976,-0.14152,-0.18544,0.13664,-0.19032,-0.47824,-0.6832,-0.488,-0.33672,-0.16104
0.03904,0.06832,-0.17568,-0.1952,-0.21472,0.12688,-0.12688,-0.40504,-0.7076,-0.60024,-0.48312,-0.2928
0.00976,0.09028,-0.19032,-0.1952,-0.20008,0.10492,-0.09272,-0.3416,-0.61488,-0.54168,-0.45384,-0.2928
-0.04392,0.10736,-0.1708,-0.14884,-0.12688,0.04148,-0.06344,-0.2928,-0.49776,-0.4392,-0.37576,-0.25864
-0.05856,0.10248,-0.1464,-0.11712,-0.08784,0.01464,-0.03416,-0.20984,-0.36112,-0.33672,-0.29768,-0.2196
-0.07808,0.09028,-0.10248,-0.06344,-0.0244,-0.02684,0,-0.122,-0.22936,-0.2196,-0.20008,-0.15616
-0.06832,0.0732,-0.07808,-0.04392,-0.00976,-0.02928,0.00488,-0.07808,-0.1464,-0.15616,-0.15128,-0.122
-0.05368,0.05612,-0.05856,-0.03172,-0.00488,-0.0244,0.01464,-0.0488,-0.10736,-0.122,-0.122,-0.10736
-0.05856,0.0488,-0.03904,-0.00976,0.01952,-0.03904,0.01952,-0.02928,-0.07808,-0.09272,-0.0976,-0.08784
-0.06344,0.0488,-0.03416,-0.00244,0.02928,-0.04636,0.02928,-0.01464,-0.05856,-0.06832,-0.0732,-0.0732
-0.05856,0.04392,-0.02928,0,0.02928,-0.04392,0.03416,-0.00488,-0.03904,-0.06344,-0.0732,-0.06832
-0.05856,0.04148,-0.0244,0.00488,0.03416,-0.04636,0.03904,0.00488,-0.02928,-0.05856,-0.06832,-0.06344
-0.05856,0.04148,-0.0244,0.00488,0.03416,-0.04636,0.03904,0.00488,-0.02928,-0.05368,-0.06832,-0.06344
-0.05856,0.03904,-0.01952,0.00976,0.03904,-0.0488,0.03904,0.00976,-0.02928,-0.05368,-0.0732,-0.06344
-0.05368,0.0366,-0.01952,0.00732,0.03416,-0.04392,0.03904,0.00976,-0.0244,-0.05368,-0.0732,-0.05856
-0.05368,0.03416,-0.01464,0.0122,0.03904,-0.04636,0.03904,0.00976,-0.01952,-0.0488,-0.06832,-0.05856
-0.05368,0.03416,-0.01464,0.0122,0.03904,-0.04636,0.03904,0.01464,-0.01952,-0.0488,-0.05368,-0.05856
-0.05368,0.03416,-0.01464,0.0122,0.03904,-0.04636,0.03904,0.01952,-0.01464,-0.0488,-0.03904,-0.05856
-0.0488,0.03416,-0.01952,0.00488,0.02928,-0.03904,0.03904,0.01464,-0.01952,-0.05368,-0.05368,-0.05856
-0.0488,0.0366,-0.0244,0,0.0244,-0.0366,0.03904,0.00976,-0.01952,-0.05368,-0.06344,-0.05856
-0.06344,0.04392,-0.0244,0.00732,0.03904,-0.05124,0.03904,0.00976,-0.01952,-0.05368,-0.06344,-0.05856
-0.07808,0.05124,-0.0244,0.01464,0.05368,-0.06588,0.03904,0.01464,-0.01952,-0.05368,-0.05856,-0.05856
-0.05368,0.03904,-0.0244,0.00244,0.02928,-0.04148,0.03904,0.01464,-0.01464,-0.05368,-0.05856,-0.05856
-0.03416,0.02928,-0.0244,-0.00732,0.00976,-0.02196,0.03904,0.01464,-0.01464,-0.05368,-0.05856,-0.05856
-0.0488,0.0366,-0.0244,0,0.0244,-0.0366,0.03904,0.01464,-0.00488,-0.0488,-0.05368,-0.05856
-0.05856,0.04148,-0.0244,0.00488,0.03416,-0.04636,0.03904,0.01464,0.00488,-0.04392,-0.05368,-0.05856
-0.05368,0.0366,-0.01952,0.00732,0.03416,-0.04392,0.03904,0.01952,0,-0.03904,-0.05368,-0.05856
-0.05368,0.03416,-0.01464,0.0122,0.03904,-0.04636,0.03904,0.0244,0,-0.03416,-0.05368,-0.05368
-0.05368,0.03416,-0.01464,0.0122,0.03904,-0.04636,0.03904,0.02928,0,-0.03416,-0.05368,-0.05368
-0.0488,0.03172,-0.01464,0.00976,0.03416,-0.04148,0.03904,0.02928,0,-0.03416,-0.05368,-0.05368
-0.0488,0.03172,-0.01464,0.00976,0.03416,-0.04148,0.03904,0.02928,0,-0.03416,-0.0488,-0.05368
-0.0488,0.03172,-0.01464,0.00976,0.03416,-0.04148,0.03904,0.03416,0,-0.02928,-0.04392,-0.05368
-0.0488,0.03416,-0.01952,0.00488,0.02928,-0.03904,0.03904,0.03416,0,-0.02928,-0.0488,-0.0488
-0.0488,0.0366,-0.0244,0,0.0244,-0.0366,0.03904,0.03416,0,-0.03416,-0.0488,-0.04392
-0.0488,0.0366,-0.0244,0,0.0244,-0.0366,0.03904,0.03904,0.00488,-0.03416,-0.05368,-0.04392
-0.0488,0.0366,-0.0244,0,0.0244,-0.0366,0.03904,0.03904,0.00488,-0.02928,-0.05856,-0.04392
-0.04392,0.03172,-0.01952,0.00244,0.0244,-0.03416,0.03904,0.03904,0.00976,-0.02928,-0.05368,-0.0488
-0.04392,0.03172,-0.01952,0.00244,0.0244,-0.03416,0.03904,0.04392,0.00976,-0.03416,-0.05368,-0.05368
-0.03904,0.02928,-0.01952,0,0.01952,-0.02928,0.03904,0.0488,0.01464,-0.04392,-0.06344,-0.06344
-0.03416,0.02684,-0.01952,-0.00244,0.01464,-0.0244,0.03904,0.0488,0.00976,-0.0488,-0.0732,-0.0732
-0.02928,0.0244,-0.01952,-0.00488,0.00976,-0.01952,0.03904,0.0488,0.00488,-0.0488,-0.0732,-0.06832
-0.01952,0.01952,-0.01952,-0.00976,0,-0.00976,0.03904,0.05856,0.00488,-0.04392,-0.06832,-0.06832
-0.01952,0.01708,-0.01464,-0.00488,0.00488,-0.0122,0.03904,0.05856,0.01464,-0.04392,-0.06344,-0.05856
-0.00976,0.00976,-0.00976,-0.00488,0,-0.00488,0.03904,0.06344,0.0244,-0.03904,-0.05368,-0.0488
-0.00976,0.00732,-0.00488,0,0.00488,-0.00732,0.03416,0.06344,0.03416,-0.0244,-0.0488,-0.0488
-0.00976,0.00732,-0.00488,0,0.00488,-0.00732,0.0244,0.06344,0.03904,-0.01464,-0.04392,-0.0488
0,0,0,0,0,0,0.0244,0.07808,0.0488,-0.01464,-0.03416,-0.0488
0,0,0,0,0,0,0.0244,0.08784,0.06344,-0.00976,-0.01952,-0.04392
0,0,0,0,0,0,0.0244,0.08296,0.05856,-0.00976,-0.0244,-0.03904
0.00488,-0.00488,0.00488,0.00244,0,0.00244,0.01952,0.07808,0.06832,0.00488,-0.0244,-0.03416
0.01464,-0.01464,0.01464,0.00732,0,0.00732,0.01952,0.08296,0.06832,0.01464,-0.01464,-0.02928
0.03416,-0.03416,0.03416,0.01708,0,0.01708,0.01952,0.08784,0.07808,0.01464,-0.00488,-0.01952
0.03416,-0.03416,0.03416,0.01708,0,0.01708,0.00976,0.09272,0.0732,0.01464,-0.00488,-0.01464
0.03904,-0.0366,0.03416,0.01464,-0.00488,0.02196,-0.00488,0.0976,0.0732,0.00976,-0.00488,-0.00488
0.05368,-0.0488,0.04392,0.01708,-0.00976,0.03172,-0.00976,0.0976,0.07808,0.01464,0,0
0.0732,-0.061,0.0488,0.0122,-0.0244,0.0488,-0.00976,0.09272,0.08296,0.01952,0.00976,0.00976
0.08784,-0.0732,0.05856,0.01464,-0.02928,0.05856,-0.01464,0.09272,0.08296,0.01952,0.0244,0.01464
0.08784,-0.07564,0.06344,0.01952,-0.0244,0.05612,-0.01464,0.08784,0.08296,0.0244,0.02928,0.01952
0.11224,-0.0976,0.08296,0.02684,-0.02928,0.07076,-0.0244,0.08784,0.08784,0.03416,0.03416,0.0244
0.122,-0.10492,0.08784,0.02684,-0.03416,0.07808,-0.02928,0.07808,0.08784,0.0488,0.03904,0.03416
0.13176,-0.11224,0.09272,0.02684,-0.03904,0.0854,-0.03904,0.06832,0.08784,0.0488,0.0488,0.04392
0.13664,-0.11956,0.10248,0.03416,-0.03416,0.0854,-0.04392,0.05856,0.08784,0.05368,0.05856,0.05856
0.13664,-0.11956,0.10248,0.03416,-0.03416,0.0854,-0.0488,0.0488,0.08784,0.05368,0.06344,0.06832
0.13664,-0.11956,0.10248,0.03416,-0.03416,0.0854,-0.0488,0.04392,0.08784,0.06344,0.0732,0.07808
0.12688,-0.11712,0.10736,0.04392,-0.01952,0.0732,-0.05368,0.02928,0.08296,0.06344,0.08296,0.08784
0.12688,-0.11712,0.10736,0.04392,-0.01952,0.0732,-0.05856,0.01952,0.07808,0.0732,0.08296,0.08784
0.10248,-0.10248,0.10248,0.05124,0,0.05124,-0.05856,0.00488,0.06832,0.05856,0.0732,0.08784
0.10248,-0.10492,0.10736,0.05612,0.00488,0.0488,-0.05856,0.00488,0.06344,0.05856,0.06832,0.08296
0.0976,-0.0976,0.0976,0.0488,0,0.0488,-0.0488,-0.00488,0.05856,0.05856,0.06832,0.0732
0.08296,-0.0854,0.08784,0.04636,0.00488,0.03904,-0.03904,-0.00488,0.05368,0.05856,0.05856,0.06344
0.08296,-0.0854,0.08784,0.04636,0.00488,0.03904,-0.03416,0,0.0488,0.0488,0.05368,0.05856
0.06344,-0.07076,0.07808,0.04636,0.01464,0.0244,-0.01952,0.00488,0.04392,0.0488,0.05368,0.05368
0.03416,-0.04636,0.05856,0.04148,0.0244,0.00488,-0.01952,0.00488,0.04392,0.04392,0.0488,0.04392
0.02928,-0.03904,0.0488,0.03416,0.01952,0.00488,-0.01464,0.00488,0.04392,0.0488,0.0488,0.03416
0,-0.01952,0.03904,0.03904,0.03904,-0.01952,-0.00976,0,0.02928,0.03904,0.03904,0.0244
-0.01952,-0.00732,0.03416,0.04392,0.05368,-0.0366,0,0,0.02928,0.03416,0.03416,0.01952
-0.01464,-0.00732,0.02928,0.0366,0.04392,-0.02928,0,0,0.01464,0.01464,0.0244,0.00488
0,-0.0122,0.0244,0.0244,0.0244,-0.0122,-0.00488,0,0.01464,0.00488,0.01952,0
-0.00488,-0.00976,0.0244,0.02684,0.02928,-0.01708,-0.00488,0,0.00976,-0.00488,0.00488,-0.00488
-0.00488,-0.00488,0.01464,0.01708,0.01952,-0.0122,0,0,0.00976,-0.00488,0,-0.00976
-0.00976,0.00244,0.00488,0.00976,0.01464,-0.0122,0.00488,0,0.00488,-0.01464,-0.00488,-0.01952
-0.01464,0.00732,0,0.00732,0.01464,-0.01464,0.00976,0,0,-0.01952,-0.00976,-0.01952
-0.02928,0.01464,0,0.01464,0.02928,-0.02928,0.00976,0,0,-0.01952,-0.00976,-0.01464
-0.03904,0.02196,-0.00488,0.01464,0.03416,-0.0366,0.00976,0,0,-0.01952,-0.00976,-0.01464
-0.0244,0.0122,0,0.0122,0.0244,-0.0244,0.00488,-0.00488,-0.00488,-0.02928,-0.01952,-0.01952
-0.00976,0.00732,-0.00488,0,0.00488,-0.00732,0,-0.00488,-0.00488,-0.02928,-0.01952,-0.01464
-0.01952,0.00732,0.00488,0.01464,0.0244,-0.02196,0,-0.00488,-0.00976,-0.04392,-0.02928,-0.0244
-0.02928,0.0122,0.00488,0.01952,0.03416,-0.03172,0,-0.00488,-0.00976,-0.04392,-0.02928,-0.0244
-0.0244,0.01464,-0.00488,0.00732,0.01952,-0.02196,0.00488,0,-0.00976,-0.04392,-0.02928,-0.0244
-0.02928,0.02196,-0.01464,0,0.01464,-0.02196,0.00488,0,-0.00976,-0.0488,-0.03416,-0.02928
-0.02928,0.02196,-0.01464,0,0.01464,-0.02196,0.00488,-0.00488,-0.00488,-0.0488,-0.02928,-0.02928
-0.03416,0.0244,-0.01464,0.00244,0.01952,-0.02684,0.01464,0,-0.00488,-0.0488,-0.02928,-0.03416
-0.03416,0.02196,-0.00976,0.00732,0.0244,-0.02928,0.01464,0,-0.00488,-0.05856,-0.02928,-0.03416
-0.03416,0.02196,-0.00976,0.00732,0.0244,-0.02928,0.01464,-0.00488,-0.00488,-0.05856,-0.02928,-0.03416
-0.03416,0.02196,-0.00976,0.00732,0.0244,-0.02928,0.01464,-0.00488,0,-0.05368,-0.02928,-0.03416
-0.02928,0.01952,-0.00976,0.00488,0.01952,-0.0244,0.01464,0,0,-0.05368,-0.02928,-0.03416
-0.03416,0.01952,-0.00488,0.0122,0.02928,-0.03172,0.01952,0,0,-0.05368,-0.02928,-0.02928
-0.03904,0.02196,-0.00488,0.01464,0.03416,-0.0366,0.0244,0,0,-0.05368,-0.02928,-0.0244
-0.0488,0.02928,-0.00976,0.01464,0.03904,-0.04392,0.0244,0,-0.00488,-0.05856,-0.03416,-0.02928
-0.05368,0.0366,-0.01952,0.00732,0.03416,-0.04392,0.0244,0,-0.00976,-0.06344,-0.03904,-0.02928
-0.04392,0.03172,-0.01952,0.00244,0.0244,-0.03416,0.01952,0,-0.01464,-0.06344,-0.04392,-0.03416
-0.02928,0.0244,-0.01952,-0.00488,0.00976,-0.01952,0.01464,0,-0.01952,-0.06344,-0.04392,-0.03904
-0.02928,0.02684,-0.0244,-0.00976,0.00488,-0.01708,0.01464,0,-0.01952,-0.05856,-0.03904,-0.03904
-0.02928,0.02684,-0.0244,-0.00976,0.00488,-0.01708,0.01464,0,-0.00976,-0.0488,-0.03904,-0.03904
-0.0244,0.01952,-0.01464,-0.00244,0.00976,-0.01708,0.01464,0,-0.00976,-0.0488,-0.03904,-0.03904
-0.0244,0.01952,-0.01464,-0.00244,0.00976,-0.01708,0.01464,0.00488,-0.00976,-0.04392,-0.03904,-0.03904
-0.03416,0.02928,-0.0244,-0.00732,0.00976,-0.02196,0.01464,0.00488,-0.01464,-0.03904,-0.03416,-0.03904
-0.03416,0.02928,-0.0244,-0.00732,0.00976,-0.02196,0.01952,0.00488,-0.01464,-0.03416,-0.02928,-0.04392
-0.03416,0.02684,-0.01952,-0.00244,0.01464,-0.0244,0.01952,0.00976,-0.01464,-0.02928,-0.02928,-0.03904
-0.03416,0.02684,-0.01952,-0.00244,0.01464,-0.0244,0.01952,0.00976,-0.01464,-0.0244,-0.02928,-0.02928
-0.02928,0.02196,-0.01464,0,0.01464,-0.02196,0.01952,0.00976,-0.01464,-0.0244,-0.02928,-0.02928
-0.02928,0.02196,-0.01464,0,0.01464,-0.02196,0.01952,0.00976,-0.00976,-0.01952,-0.02928,-0.02928
-0.03416,0.02684,-0.01952,-0.00244,0.01464,-0.0244,0.0244,0.00976,-0.00976,-0.01464,-0.02928,-0.02928
-0.03904,0.02928,-0.01952,0,0.01952,-0.02928,0.02928,0.00976,-0.00976,-0.01464,-0.02928,-0.02928
-0.03416,0.0244,-0.01464,0.00244,0.01952,-0.02684,0.02928,0.00976,-0.00976,-0.00976,-0.0244,-0.03416
-0.03416,0.0244,-0.01464,0.00244,0.01952,-0.02684,0.02928,0.01464,-0.00976,-0.00976,-0.0244,-0.03904
-0.03904,0.02928,-0.01952,0,0.01952,-0.02928,0.02928,0.01464,-0.00488,-0.00976,-0.02928,-0.03904
-0.03904,0.02928,-0.01952,0,0.01952,-0.02928,0.02928,0.01464,-0.00488,-0.00976,-0.02928,-0.03904
-0.0488,0.03416,-0.01952,0.00488,0.02928,-0.03904,0.02928,0.01464,-0.00976,-0.01464,-0.02928,-0.03904
-0.0488,0.03416,-0.01952,0.00488,0.02928,-0.03904,0.02928,0.01464,-0.00976,-0.01464,-0.02928,-0.03904
-0.05368,0.0366,-0.01952,0.00732,0.03416,-0.04392,0.03416,0.01464,-0.00976,-0.01464,-0.0244,-0.03904
-0.05856,0.03904,-0.01952,0.00976,0.03904,-0.0488,0.03416,0.01952,-0.00976,-0.01464,-0.0244,-0.03904
-0.05856,0.0366,-0.01464,0.01464,0.04392,-0.05124,0.02928,0.01952,-0.00976,-0.00976,-0.0244,-0.03416
-0.05856,0.03416,-0.00976,0.01952,0.0488,-0.05368,0.02928,0.01952,-0.00976,-0.00976,-0.0244,-0.03416
-0.05368,0.03172,-0.00976,0.01708,0.04392,-0.0488,0.02928,0.01464,-0.00976,-0.01464,-0.0244,-0.03416
-0.0488,0.02928,-0.00976,0.01464,0.03904,-0.04392,0.02928,0.00976,-0.00976,-0.01952,-0.0244,-0.03416
-0.04392,0.03172,-0.01952,0.00244,0.0244,-0.03416,0.0244,0.00976,-0.00976,-0.0244,-0.02928,-0.03416
-0.04392,0.03172,-0.01952,0.00244,0.0244,-0.03416,0.01952,0.00976,-0.00976,-0.02928,-0.03416,-0.03416
-0.03904,0.02928,-0.01952,0,0.01952,-0.02928,0.01952,0.00976,-0.00976,-0.03904,-0.03416,-0.03904
-0.03904,0.02684,-0.01464,0.00488,0.0244,-0.03172,0.01952,0.00488,-0.01464,-0.04392,-0.03904,-0.0488
-0.02928,0.02196,-0.01464,0,0.01464,-0.02196,0.01952,0.00488,-0.01464,-0.0488,-0.03904,-0.0488
-0.01952,0.01708,-0.01464,-0.00488,0.00488,-0.0122,0.01952,0.00488,-0.01464,-0.0488,-0.03904,-0.0488
-0.02928,0.02196,-0.01464,0,0.01464,-0.02196,0.01952,0.00488,-0.01464,-0.04392,-0.03904,-0.0488
-0.03904,0.02928,-0.01952,0,0.01952,-0.02928,0.01952,0.00488,-0.01464,-0.04392,-0.03904,-0.0488
-0.04392,0.03172,-0.01952,0.00244,0.0244,-0.03416,0.01464,0,-0.01464,-0.04392,-0.03904,-0.0488
-0.05368,0.03904,-0.0244,0.00244,0.02928,-0.04148,0.01464,-0.00488,-0.01464,-0.03904,-0.03416,-0.04392
-0.05368,0.04392,-0.03416,-0.00732,0.01952,-0.0366,0.01464,-0.00488,-0.00976,-0.03904,-0.02928,-0.03904
-0.0488,0.03904,-0.02928,-0.00488,0.01952,-0.03416,0.01464,-0.00488,-0.00976,-0.03904,-0.0244,-0.03416
-0.0488,0.03904,-0.02928,-0.00488,0.01952,-0.03416,0.01464,0,-0.00976,-0.03904,-0.02928,-0.03904
-0.0488,0.0366,-0.0244,0,0.0244,-0.0366,0.01464,0.00488,-0.00976,-0.03904,-0.02928,-0.03904
-0.04392,0.03416,-0.0244,-0.00244,0.01952,-0.03172,0.01952,0.00488,-0.00976,-0.03416,-0.02928,-0.03416
-0.06344,0.04392,-0.0244,0.00732,0.03904,-0.05124,0.0244,0.00976,0,-0.03416,-0.0244,-0.03416
-0.0488,0.02684,-0.00488,0.01952,0.04392,-0.04636,0.0244,0.00976,0,-0.02928,-0.01952,-0.0244
-0.03416,0.00976,0.01464,0.03172,0.0488,-0.04148,0.02928,0.01464,0,-0.02928,-0.01464,-0.01952
-0.04392,0.01464,0.01464,0.0366,0.05856,-0.05124,0.03416,0.01464,0.01464,-0.01464,-0.00488,-0.01464
-0.05856,0.01952,0.01952,0.0488,0.07808,-0.06832,0.03904,0.01952,0.02928,0,0,-0.00976
-0.03904,0.00976,0.01952,0.03904,0.05856,-0.0488,0.03904,0.02928,0.02928,0,0.00488,-0.00976
-0.01952,0,0.01952,0.02928,0.03904,-0.02928,0.03904,0.03904,0.02928,0,0.00976,-0.00976
-0.01952,-0.00488,0.02928,0.03904,0.0488,-0.03416,0.03904,0.03904,0.03416,0.00488,0.00976,-0.00976
-0.01464,-0.0122,0.03904,0.04636,0.05368,-0.03416,0.03904,0.03904,0.03416,0.00488,0.00976,-0.00976
-0.01464,-0.01708,0.0488,0.05612,0.06344,-0.03904,0.03904,0.04392,0.03904,0.00976,0.01464,-0.00976
-0.00976,-0.01952,0.0488,0.05368,0.05856,-0.03416,0.02928,0.03416,0.03904,0.00976,0.01464,-0.00976
-0.00976,-0.01708,0.04392,0.0488,0.05368,-0.03172,0.01952,0.0244,0.03904,0.00488,0.00976,-0.00488
-0.00976,-0.01464,0.03904,0.04392,0.0488,-0.02928,0.01464,0.01952,0.03416,0,0.00976,0
-0.01952,-0.00976,0.03904,0.0488,0.05856,-0.03904,0.00488,0,0.0244,0,0.00488,0
-0.03416,0.00244,0.02928,0.04636,0.06344,-0.0488,-0.00976,-0.01464,0.01952,0,0,-0.00488
-0.0244,0.00488,0.01464,0.02684,0.03904,-0.03172,-0.00976,-0.0244,0.00488,-0.00488,-0.00488,-0.00976
-0.01464,0,0.01464,0.02196,0.02928,-0.02196,-0.01952,-0.03416,-0.00488,-0.01464,-0.00976,-0.01464
-0.00976,-0.00244,0.01464,0.01952,0.0244,-0.01708,-0.01952,-0.03416,-0.00976,-0.01464,-0.00976,-0.01464
0.00976,-0.0122,0.01464,0.00976,0.00488,0.00244,-0.0244,-0.03416,-0.01952,-0.01952,-0.00976,-0.01464
0.00976,-0.0122,0.01464,0.00976,0.00488,0.00244,-0.02928,-0.03416,-0.0244,-0.0244,-0.01952,-0.01952
0.00976,-0.00488,0,-0.00488,-0.00976,0.00976,-0.02928,-0.03904,-0.0488,-0.04392,-0.03416,-0.02928
-0.00488,0.00488,-0.00488,-0.00244,0,-0.00244,-0.0244,-0.03416,-0.03904,-0.03416,-0.02928,-0.0244
-0.01464,0.00976,-0.00488,0.00244,0.00976,-0.0122,-0.00976,-0.02928,-0.03416,-0.0244,-0.0244,-0.01952
-0.01464,0.00976,-0.00488,0.00244,0.00976,-0.0122,-0.00488,-0.02928,-0.03416,-0.0244,-0.0244,-0.01952
-0.01464,0.00976,-0.00488,0.00244,0.00976,-0.0122,-0.00488,-0.02928,-0.03416,-0.02928,-0.0244,-0.01952
-0.01464,0.0122,-0.00976,-0.00244,0.00488,-0.00976,-0.00488,-0.02928,-0.03416,-0.02928,-0.0244,-0.01952
-0.01464,0.0122,-0.00976,-0.00244,0.00488,-0.00976,0,-0.0244,-0.02928,-0.0244,-0.01952,-0.01952
-0.01464,0.00976,-0.00488,0.00244,0.00976,-0.0122,0,-0.0244,-0.02928,-0.0244,-0.01952,-0.0244
-0.0244,0.01952,-0.01464,-0.00244,0.00976,-0.01708,0.00976,-0.01464,-0.03416,-0.02928,-0.01952,-0.02928
-0.03904,0.03416,-0.02928,-0.00976,0.00976,-0.0244,0.01952,-0.00976,-0.02928,-0.02928,-0.0244,-0.04392
-0.04392,0.03904,-0.03416,-0.0122,0.00976,-0.02684,0.0244,-0.00488,-0.02928,-0.03416,-0.03416,-0.0488
-0.05368,0.0488,-0.04392,-0.01708,0.00976,-0.03172,0.02928,-0.00488,-0.03416,-0.04392,-0.03904,-0.05368
-0.05368,0.05124,-0.0488,-0.02196,0.00488,-0.02928,0.02928,-0.00976,-0.04392,-0.0488,-0.0488,-0.05856
-0.05368,0.05368,-0.05368,-0.02684,0,-0.02684,0.02928,-0.00976,-0.03904,-0.0488,-0.0488,-0.05856
-0.06832,0.06588,-0.06344,-0.02928,0.00488,-0.0366,0.0244,-0.00488,-0.02928,-0.04392,-0.0488,-0.05856
-0.05856,0.061,-0.06344,-0.03416,-0.00488,-0.02684,0.0244,-0.00488,-0.02928,-0.04392,-0.04392,-0.05368
-0.05856,0.05856,-0.05856,-0.02928,0,-0.02928,0.0244,-0.00488,-0.02928,-0.04392,-0.04392,-0.0488
-0.05856,0.05368,-0.0488,-0.01952,0.00976,-0.03416,0.02928,-0.00488,-0.03416,-0.0488,-0.0488,-0.0488
-0.05368,0.04636,-0.03904,-0.0122,0.01464,-0.03416,0.03416,-0.00488,-0.03416,-0.05856,-0.05368,-0.05368
-0.05856,0.05612,-0.05368,-0.0244,0.00488,-0.03172,0.03416,-0.00488,-0.03904,-0.05856,-0.05368,-0.05368
-0.06832,0.0732,-0.07808,-0.04392,-0.00976,-0.02928,0.03416,-0.00488,-0.04392,-0.05856,-0.05368,-0.05368
-0.06832,0.0732,-0.07808,-0.04392,-0.00976,-0.02928,0.02928,-0.00488,-0.04392,-0.05368,-0.04392,-0.05368
-0.06832,0.07076,-0.0732,-0.03904,-0.00488,-0.03172,0.0244,-0.00488,-0.03904,-0.0488,-0.03904,-0.05368
-0.05856,0.05856,-0.05856,-0.02928,0,-0.02928,0.0244,-0.00488,-0.03416,-0.05368,-0.03904,-0.05368
-0.0488,0.0488,-0.0488,-0.0244,0,-0.0244,0.0244,-0.00488,-0.03416,-0.05368,-0.03904,-0.05368
-0.0488,0.0488,-0.0488,-0.0244,0,-0.0244,0.0244,-0.00488,-0.02928,-0.0488,-0.03904,-0.05368
-0.0488,0.04636,-0.04392,-0.01952,0.00488,-0.02684,0.02928,-0.00488,-0.01952,-0.0488,-0.03904,-0.05368
-0.06344,0.05612,-0.0488,-0.01708,0.01464,-0.03904,0.04392,0.00976,-0.00488,-0.04392,-0.03904,-0.05368
-0.10736,0.08052,-0.05368,0,0.05368,-0.08052,0.06832,0.04392,0.02928,-0.02928,-0.03416,-0.06344
-0.122,0.0854,-0.0488,0.0122,0.0732,-0.0976,0.08296,0.06832,0.0488,-0.01464,-0.03416,-0.06344
-0.122,0.08296,-0.04392,0.01708,0.07808,-0.10004,0.08296,0.07808,0.06344,0.01952,-0.00976,-0.04392
-0.0976,0.05368,-0.00976,0.03904,0.08784,-0.09272,0.07808,0.07808,0.0976,0.09272,0.06832,0.01464
-0.04392,0.01464,0.01464,0.0366,0.05856,-0.05124,0.05856,0.08784,0.15128,0.17568,0.16592,0.09272
0.03904,-0.0488,0.05856,0.03904,0.01952,0.00976,0.0244,0.10736,0.22448,0.27328,0.28792,0.1952
0.1708,-0.14884,0.12688,0.04148,-0.04392,0.10736,-0.05368,0.10736,0.28304,0.37576,0.43432,0.33672
0.32208,-0.2562,0.19032,0.02928,-0.13176,0.22692,-0.15128,0.03416,0.30744,0.49288,0.61,0.50264
0.488,-0.37576,0.26352,0.01952,-0.22448,0.35624,-0.27328,-0.11712,0.27816,0.59536,0.7808,0.66856
0.66856,-0.50752,0.34648,0.0122,-0.32208,0.49532,-0.42944,-0.2928,0.21472,0.6588,0.9272,0.83936
0.81008,-0.62464,0.4392,0.03416,-0.37088,0.59048,-0.5612,-0.45384,0.18056,0.73688,1.05408,0.98576
0.88328,-0.65636,0.42944,-0.0122,-0.45384,0.66856,-0.61976,-0.5368,0.05856,0.63928,1.0004,0.976
0.86376,-0.5978,0.33184,-0.10004,-0.53192,0.69784,-0.60024,-0.52216,-0.08296,0.40992,0.7564,0.77592
0.72224,-0.46848,0.21472,-0.1464,-0.50752,0.61488,-0.5124,-0.5124,-0.22448,0.20008,0.50752,0.55144
0.49288,-0.28304,0.0732,-0.17324,-0.41968,0.45628,-0.40016,-0.49288,-0.40016,-0.05368,0.22448,0.29768
0.27816,-0.10492,-0.06832,-0.2074,-0.34648,0.31232,-0.29768,-0.49776,-0.58072,-0.3172,-0.0976,0.03904
0.13176,0.01708,-0.16592,-0.2318,-0.29768,0.21472,-0.2196,-0.49288,-0.7076,-0.5368,-0.34648,-0.1708
0.06832,0.07808,-0.22448,-0.25864,-0.2928,0.18056,-0.15616,-0.42456,-0.71248,-0.62464,-0.46848,-0.27816
0.0488,0.0854,-0.2196,-0.244,-0.2684,0.1586,-0.122,-0.36112,-0.60512,-0.54168,-0.4148,-0.25376
0.00488,0.0976,-0.20008,-0.20252,-0.20496,0.10492,-0.08784,-0.2928,-0.46848,-0.42944,-0.33672,-0.2196
-0.00976,0.09028,-0.1708,-0.16592,-0.16104,0.07564,-0.05368,-0.19032,-0.31232,-0.31232,-0.25864,-0.18056
-0.03904,0.08052,-0.122,-0.10248,-0.08296,0.02196,-0.00976,-0.10248,-0.19032,-0.20008,-0.16592,-0.13176
-0.0488,0.0732,-0.0976,-0.0732,-0.0488,0,0.00488,-0.05856,-0.11712,-0.1464,-0.122,-0.10736
-0.04392,0.06344,-0.08296,-0.061,-0.03904,-0.00244,0.01464,-0.02928,-0.07808,-0.11712,-0.09272,-0.08784
-0.03904,0.05368,-0.06832,-0.0488,-0.02928,-0.00488,0.01952,-0.00976,-0.0488,-0.09272,-0.06832,-0.06832
-0.0488,0.05856,-0.06832,-0.04392,-0.01952,-0.01464,0.02928,0.00488,-0.03416,-0.06832,-0.04392,-0.0488
-0.05856,0.06344,-0.06832,-0.03904,-0.00976,-0.0244,0.03416,0.01464,-0.01952,-0.05856,-0.03904,-0.03904
-0.05856,0.061,-0.06344,-0.03416,-0.00488,-0.02684,0.03904,0.01952,-0.00976,-0.0488,-0.03416,-0.03416
-0.05856,0.061,-0.06344,-0.03416,-0.00488,-0.02684,0.03904,0.01464,-0.00976,-0.04392,-0.03416,-0.03416
-0.05368,0.05856,-0.06344,-0.0366,-0.00976,-0.02196,0.03904,0.01952,-0.00976,-0.04392,-0.03904,-0.04392
-0.0488,0.05856,-0.06832,-0.04392,-0.01952,-0.01464,0.03904,0.01952,-0.00488,-0.04392,-0.04392,-0.0488
-0.05368,0.05856,-0.06344,-0.0366,-0.00976,-0.02196,0.03904,0.01952,0,-0.04392,-0.03904,-0.0488
-0.05368,0.05856,-0.06344,-0.0366,-0.00976,-0.02196,0.03904,0.0244,0,-0.0488,-0.03904,-0.0488
-0.05368,0.05856,-0.06344,-0.0366,-0.00976,-0.02196,0.03904,0.02928,0.00488,-0.0488,-0.03904,-0.0488
-0.0488,0.05612,-0.06344,-0.03904,-0.01464,-0.01708,0.03904,0.02928,0.00488,-0.05368,-0.04392,-0.0488
-0.0488,0.05612,-0.06344,-0.03904,-0.01464,-0.01708,0.03904,0.02928,0.00976,-0.0488,-0.04392,-0.0488
-0.0488,0.05612,-0.06344,-0.03904,-0.01464,-0.01708,0.03904,0.02928,0.00976,-0.04392,-0.04392,-0.0488
-0.0488,0.05612,-0.06344,-0.03904,-0.01464,-0.01708,0.03904,0.03416,0.00976,-0.04392,-0.03904,-0.0488
-0.04392,0.05368,-0.06344,-0.04148,-0.01952,-0.0122,0.03904,0.03416,0.01464,-0.04392,-0.03904,-0.0488
-0.0488,0.05612,-0.06344,-0.03904,-0.01464,-0.01708,0.03904,0.03416,0.01464,-0.03904,-0.03904,-0.0488
-0.05856,0.061,-0.06344,-0.03416,-0.00488,-0.02684,0.03904,0.03416,0.01464,-0.02928,-0.03416,-0.0488
-0.05856,0.05612,-0.05368,-0.0244,0.00488,-0.03172,0.03904,0.03416,0.01464,-0.0244,-0.03416,-0.0488
-0.05368,0.0488,-0.04392,-0.01708,0.00976,-0.03172,0.03904,0.03416,0.00976,-0.0244,-0.03416,-0.0488
-0.05368,0.05368,-0.05368,-0.02684,0,-0.02684,0.03904,0.03416,0.00488,-0.0244,-0.03416,-0.04392
-0.05368,0.05856,-0.06344,-0.0366,-0.00976,-0.02196,0.03904,0.03904,0.00488,-0.0244,-0.03416,-0.04392
-0.0488,0.05612,-0.06344,-0.03904,-0.01464,-0.01708,0.03904,0.04392,0.00976,-0.0244,-0.03416,-0.04392
-0.0488,0.05612,-0.06344,-0.03904,-0.01464,-0.01708,0.03904,0.0488,0.00976,-0.0244,-0.03416,-0.04392
-0.0488,0.05612,-0.06344,-0.03904,-0.01464,-0.01708,0.03904,0.05368,0.00976,-0.0244,-0.03416,-0.0488
-0.0488,0.05612,-0.06344,-0.03904,-0.01464,-0.01708,0.03904,0.05368,0.00976,-0.02928,-0.03904,-0.05368
-0.0488,0.05612,-0.06344,-0.03904,-0.01464,-0.01708,0.03904,0.05368,0.01464,-0.03416,-0.03904,-0.05368
-0.0488,0.05612,-0.06344,-0.03904,-0.01464,-0.01708,0.03904,0.05856,0.0244,-0.03416,-0.03904,-0.05368
-0.0488,0.05612,-0.06344,-0.03904,-0.01464,-0.01708,0.03904,0.05856,0.0244,-0.02928,-0.03904,-0.05368
-0.04392,0.05124,-0.05856,-0.0366,-0.01464,-0.01464,0.03904,0.05856,0.02928,-0.02928,-0.03416,-0.05368
-0.04392,0.05124,-0.05856,-0.0366,-0.01464,-0.01464,0.04392,0.06344,0.02928,-0.02928,-0.03416,-0.0488
-0.04392,0.05124,-0.05856,-0.0366,-0.01464,-0.01464,0.0488,0.06832,0.03904,-0.0244,-0.03416,-0.04392
-0.05368,0.05612,-0.05856,-0.03172,-0.00488,-0.0244,0.0488,0.06832,0.04392,-0.01952,-0.03416,-0.04392
-0.05856,0.05856,-0.05856,-0.02928,0,-0.02928,0.0488,0.06832,0.05368,-0.01952,-0.03416,-0.03904
-0.02928,0.04392,-0.05856,-0.04392,-0.02928,0,0.0488,0.07808,0.06344,-0.01464,-0.02928,-0.03904
-0.00976,0.03172,-0.05368,-0.0488,-0.04392,0.01708,0.0488,0.07808,0.06344,-0.01464,-0.02928,-0.03904
-0.00976,0.03172,-0.05368,-0.0488,-0.04392,0.01708,0.0488,0.08296,0.06344,-0.01464,-0.0244,-0.03904
-0.01952,0.0366,-0.05368,-0.04392,-0.03416,0.00732,0.0488,0.08296,0.06832,-0.01464,-0.0244,-0.03904
-0.01952,0.0366,-0.05368,-0.04392,-0.03416,0.00732,0.04392,0.08784,0.06832,-0.01464,-0.0244,-0.03904
-0.00976,0.02928,-0.0488,-0.04392,-0.03904,0.01464,0.04392,0.10736,0.07808,-0.01464,-0.0244,-0.03904
-0.01464,0.02928,-0.04392,-0.0366,-0.02928,0.00732,0.04392,0.11712,0.09272,-0.00488,-0.01952,-0.03416
-0.01464,0.02684,-0.03904,-0.03172,-0.0244,0.00488,0.04392,0.11712,0.09272,0,-0.01464,-0.02928
-0.00488,0.01952,-0.03416,-0.03172,-0.02928,0.0122,0.03904,0.11712,0.11224,0.01952,-0.00488,-0.0244
0.00488,0.0122,-0.02928,-0.03172,-0.03416,0.01952,0.03904,0.122,0.11712,0.03416,0.00488,-0.01952
0.0244,-0.00488,-0.01464,-0.02684,-0.03904,0.03172,0.03904,0.12688,0.12688,0.03416,0.01952,-0.00488
0.0244,-0.00488,-0.01464,-0.02684,-0.03904,0.03172,0.03416,0.13176,0.12688,0.03904,0.0244,0.00488
0.02928,-0.00732,-0.01464,-0.02928,-0.04392,0.0366,0.02928,0.14152,0.13176,0.03904,0.0244,0.01464
0.04392,-0.02196,0,-0.02196,-0.04392,0.04392,0.02928,0.1464,0.13664,0.04392,0.02928,0.01952
0.06344,-0.0366,0.00976,-0.02196,-0.05368,0.05856,0.02928,0.14152,0.14152,0.04392,0.03904,0.02928
0.07808,-0.0488,0.01952,-0.01952,-0.05856,0.06832,0.01952,0.14152,0.14152,0.04392,0.05368,0.03416
0.07808,-0.05124,0.0244,-0.01464,-0.05368,0.06588,0.00976,0.13176,0.14152,0.0488,0.05856,0.03904
0.09272,-0.06588,0.03904,-0.00732,-0.05368,0.0732,-0.00488,0.12688,0.1464,0.05368,0.06344,0.04392
0.09272,-0.06588,0.03904,-0.00732,-0.05368,0.0732,-0.00976,0.11712,0.14152,0.06832,0.06344,0.0488
0.10248,-0.0732,0.04392,-0.00732,-0.05856,0.08052,-0.01952,0.10736,0.13664,0.06832,0.06832,0.05368
0.10736,-0.08052,0.05368,0,-0.05368,0.08052,-0.03416,0.09272,0.13664,0.0732,0.07808,0.06832
0.11712,-0.09028,0.06344,0.00488,-0.05368,0.0854,-0.0488,0.07808,0.13664,0.0732,0.08296,0.07808
0.13176,-0.10492,0.07808,0.0122,-0.05368,0.09272,-0.0488,0.06832,0.13664,0.08784,0.09272,0.08784
0.12688,-0.10736,0.08784,0.0244,-0.03904,0.08296,-0.05368,0.0488,0.12688,0.09272,0.10248,0.0976
0.12688,-0.10736,0.08784,0.0244,-0.03904,0.08296,-0.05368,0.03904,0.11224,0.10248,0.10248,0.0976
0.0976,-0.08784,0.07808,0.02928,-0.01952,0.05856,-0.0488,0.0244,0.0976,0.08784,0.0976,0.0976
0.0976,-0.0854,0.0732,0.0244,-0.0244,0.061,-0.0488,0.0244,0.09272,0.08296,0.0976,0.09272
0.0976,-0.07808,0.05856,0.00976,-0.03904,0.06832,-0.04392,0.01464,0.08784,0.07808,0.0976,0.08296
0.08296,-0.06588,0.0488,0.00732,-0.03416,0.05856,-0.03904,0.01464,0.07808,0.07808,0.08296,0.0732
0.08296,-0.06588,0.0488,0.00732,-0.03416,0.05856,-0.03416,0.01464,0.06832,0.06832,0.06832,0.06832
0.05856,-0.05124,0.04392,0.01464,-0.01464,0.0366,-0.01952,0.01464,0.06344,0.06832,0.05856,0.06344
0.0244,-0.02684,0.02928,0.01708,0.00488,0.00976,-0.01952,0.01464,0.05856,0.05368,0.04392,0.05368
0.01952,-0.01952,0.01952,0.00976,0,0.00976,-0.01464,0.01464,0.05368,0.0488,0.03904,0.04392
0.00488,-0.00732,0.00976,0.00732,0.00488,0,-0.00976,0.00976,0.03904,0.03904,0.02928,0.03416
0,-0.00244,0.00488,0.00488,0.00488,-0.00244,0,0.00976,0.03904,0.04392,0.03416,0.03904
-0.01464,0.00732,0,0.00732,0.01464,-0.01464,0.00488,0.00976,0.0244,0.03904,0.03416,0.03416
-0.01952,0.01952,-0.01952,-0.00976,0,-0.00976,0.00488,0.00976,0.0244,0.0244,0.02928,0.01952
-0.0244,0.02928,-0.03416,-0.02196,-0.00976,-0.00732,0.00488,0.00976,0.01952,0.00488,0.01464,0.00488
-0.01952,0.03172,-0.04392,-0.03416,-0.0244,0.00244,0.01464,0.00976,0.01952,0,0.00488,0
-0.01952,0.03416,-0.0488,-0.03904,-0.02928,0.00488,0.0244,0.00976,0.01464,-0.01464,-0.00488,-0.00976
-0.0244,0.0366,-0.0488,-0.0366,-0.0244,0,0.02928,0.00976,0.00488,-0.01952,-0.00976,-0.01464
-0.02928,0.03904,-0.0488,-0.03416,-0.01952,-0.00488,0.02928,0.00976,0,-0.01952,-0.00976,-0.01464
-0.02928,0.0366,-0.04392,-0.02928,-0.01464,-0.00732,0.02928,0.00976,0,-0.0244,-0.01464,-0.01464
-0.02928,0.03172,-0.03416,-0.01952,-0.00488,-0.0122,0.0244,0.00488,-0.00488,-0.03904,-0.02928,-0.0244
-0.03416,0.04636,-0.05856,-0.04148,-0.0244,-0.00488,0.01952,0.00488,0,-0.03904,-0.02928,-0.0244
-0.03904,0.05124,-0.06344,-0.04392,-0.0244,-0.00732,0.01952,0.00488,0,-0.05368,-0.03904,-0.03416
-0.03904,0.05124,-0.06344,-0.04392,-0.0244,-0.00732,0.01952,0.00488,0,-0.05368,-0.03904,-0.03416
-0.02928,0.04636,-0.06344,-0.0488,-0.03416,0.00244,0.0244,0.00976,0,-0.0488,-0.03416,-0.02928
-0.02928,0.04148,-0.05368,-0.03904,-0.0244,-0.00244,0.0244,0.00976,0,-0.0488,-0.03416,-0.02928
-0.02928,0.0366,-0.04392,-0.02928,-0.01464,-0.00732,0.0244,0.00976,0.00488,-0.0488,-0.02928,-0.0244
-0.03416,0.04392,-0.05368,-0.0366,-0.01952,-0.00732,0.03416,0.01952,0.00488,-0.0488,-0.02928,-0.0244
-0.03416,0.0488,-0.06344,-0.04636,-0.02928,-0.00244,0.03416,0.01952,0.00488,-0.05856,-0.02928,-0.0244
-0.03416,0.05124,-0.06832,-0.05124,-0.03416,0,0.03416,0.01464,0.00488,-0.05856,-0.02928,-0.0244
-0.03416,0.05124,-0.06832,-0.05124,-0.03416,0,0.03416,0.01464,0.00976,-0.05368,-0.02928,-0.0244
-0.02928,0.0488,-0.06832,-0.05368,-0.03904,0.00488,0.03416,0.01952,0.00976,-0.05856,-0.02928,-0.0244
-0.02928,0.04636,-0.06344,-0.0488,-0.03416,0.00244,0.03416,0.01952,0.00976,-0.06344,-0.02928,-0.0244
-0.02928,0.04636,-0.06344,-0.0488,-0.03416,0.00244,0.02928,0.01464,0.00976,-0.0732,-0.03904,-0.02928
-0.03904,0.05124,-0.06344,-0.04392,-0.0244,-0.00732,0.0244,0.00976,0.00976,-0.08296,-0.0488,-0.03904
-0.03904,0.0488,-0.05856,-0.03904,-0.01952,-0.00976,0.0244,0.00976,0.00976,-0.06344,-0.03416,-0.03904
-0.03416,0.04148,-0.0488,-0.03172,-0.01464,-0.00976,0.0244,0.00976,0.00488,-0.04392,-0.0244,-0.03904
-0.02928,0.03904,-0.0488,-0.03416,-0.01952,-0.00488,0.0244,0.00976,0,-0.06344,-0.03416,-0.03904
-0.02928,0.04148,-0.05368,-0.03904,-0.0244,-0.00244,0.0244,0.00976,0,-0.08296,-0.03904,-0.03904
-0.02928,0.0488,-0.06832,-0.05368,-0.03904,0.00488,0.03416,0.01464,0.00976,-0.07808,-0.03904,-0.03904
-0.0244,0.0488,-0.0732,-0.061,-0.0488,0.0122,0.04392,0.01952,0.00976,-0.07808,-0.03904,-0.03904
-0.02928,0.05124,-0.0732,-0.05856,-0.04392,0.00732,0.04392,0.0244,0.00976,-0.0732,-0.03904,-0.03904
-0.04392,0.06344,-0.08296,-0.061,-0.03904,-0.00244,0.04392,0.0244,0.00488,-0.0732,-0.03904,-0.03904
-0.04392,0.061,-0.07808,-0.05612,-0.03416,-0.00488,0.0488,0.0244,0.00488,-0.06344,-0.03904,-0.04392
-0.04392,0.05612,-0.06832,-0.04636,-0.0244,-0.00976,0.0488,0.02928,0.00488,-0.05368,-0.03904,-0.04392
-0.04392,0.05612,-0.06832,-0.04636,-0.0244,-0.00976,0.0488,0.0244,0,-0.05368,-0.03904,-0.03904
-0.03904,0.05124,-0.06344,-0.04392,-0.0244,-0.00732,0.0488,0.01952,-0.00488,-0.05368,-0.03904,-0.03904
-0.03904,0.0488,-0.05856,-0.03904,-0.01952,-0.00976,0.0488,0.01952,0,-0.04392,-0.03416,-0.03904
-0.03904,0.0488,-0.05856,-0.03904,-0.01952,-0.00976,0.0488,0.01952,0,-0.03416,-0.02928,-0.03904
-0.03904,0.0488,-0.05856,-0.03904,-0.01952,-0.00976,0.0488,0.01952,0,-0.03416,-0.02928,-0.02928
-0.03416,0.04392,-0.05368,-0.0366,-0.01952,-0.00732,0.0488,0.01952,0,-0.02928,-0.0244,-0.01952
-0.03416,0.04636,-0.05856,-0.04148,-0.0244,-0.00488,0.0488,0.0244,0,-0.02928,-0.0244,-0.02928
-0.03904,0.05368,-0.06832,-0.0488,-0.02928,-0.00488,0.0488,0.0244,0.00488,-0.02928,-0.02928,-0.03904
-0.03904,0.05368,-0.06832,-0.0488,-0.02928,-0.00488,0.04392,0.0244,0,-0.03416,-0.03904,-0.03904
-0.0488,0.05612,-0.06344,-0.03904,-0.01464,-0.01708,0.03904,0.0244,-0.00976,-0.04392,-0.0488,-0.03904
-0.04392,0.05124,-0.05856,-0.0366,-0.01464,-0.01464,0.03904,0.0244,-0.00976,-0.04392,-0.0488,-0.03904
-0.03904,0.0488,-0.05856,-0.03904,-0.01952,-0.00976,0.04392,0.01952,-0.00976,-0.04392,-0.04392,-0.03904
-0.03904,0.0488,-0.05856,-0.03904,-0.01952,-0.00976,0.04392,0.01952,-0.00976,-0.04392,-0.04392,-0.04392
-0.03904,0.0488,-0.05856,-0.03904,-0.01952,-0.00976,0.03904,0.01952,-0.00976,-0.03904,-0.04392,-0.04392
-0.03904,0.0488,-0.05856,-0.03904,-0.01952,-0.00976,0.03904,0.01464,-0.00976,-0.03904,-0.04392,-0.04392
-0.03904,0.0488,-0.05856,-0.03904,-0.01952,-0.00976,0.03904,0.00976,-0.00976,-0.03904,-0.04392,-0.04392
-0.04392,0.05124,-0.05856,-0.0366,-0.01464,-0.01464,0.03904,0.00976,-0.00976,-0.03416,-0.0244,-0.0244
-0.04392,0.05612,-0.06832,-0.04636,-0.0244,-0.00976,0.03904,0.00976,-0.00976,-0.02928,-0.00488,-0.00488
-0.05368,0.061,-0.06832,-0.04148,-0.01464,-0.01952,0.03904,0.00976,-0.00976,-0.02928,-0.01464,-0.01952
-0.05856,0.06344,-0.06832,-0.03904,-0.00976,-0.0244,0.03904,0.00976,-0.00976,-0.03416,-0.0244,-0.03416
-0.0488,0.05368,-0.05856,-0.03416,-0.00976,-0.01952,0.03904,0.00488,-0.01464,-0.04392,-0.03904,-0.04392
-0.03904,0.04636,-0.05368,-0.03416,-0.01464,-0.0122,0.03904,0.00488,-0.01464,-0.05856,-0.0488,-0.0488
-0.03904,0.04636,-0.05368,-0.03416,-0.01464,-0.0122,0.03904,0.00488,-0.01952,-0.05856,-0.0488,-0.0488
-0.03904,0.04636,-0.05368,-0.03416,-0.01464,-0.0122,0.03904,0.00488,-0.0244,-0.05368,-0.0488,-0.0488
-0.03904,0.04392,-0.0488,-0.02928,-0.00976,-0.01464,0.03416,0.00488,-0.0244,-0.05368,-0.03904,-0.0488
-0.03904,0.03904,-0.03904,-0.01952,0,-0.01952,0.0244,0,-0.0244,-0.05856,-0.03416,-0.05368
-0.04392,0.05368,-0.06344,-0.04148,-0.01952,-0.0122,0.0244,-0.00488,-0.0244,-0.06832,-0.0488,-0.06344
-0.04392,0.06344,-0.08296,-0.061,-0.03904,-0.00244,0.0244,-0.00488,-0.01952,-0.07808,-0.05856,-0.06832
-0.04392,0.05612,-0.06832,-0.04636,-0.0244,-0.00976,0.0244,-0.00488,-0.01952,-0.06832,-0.05368,-0.05368
-0.0488,0.05856,-0.06832,-0.04392,-0.01952,-0.01464,0.0244,-0.00488,-0.01952,-0.05856,-0.05368,-0.04392
-0.0488,0.05612,-0.06344,-0.03904,-0.01464,-0.01708,0.0244,-0.00976,-0.01952,-0.05856,-0.0488,-0.03904
-0.03416,0.04392,-0.05368,-0.0366,-0.01952,-0.00732,0.0244,-0.01464,-0.01952,-0.05368,-0.0488,-0.03416
-0.04392,0.04148,-0.03904,-0.01708,0.00488,-0.0244,0.0244,-0.00976,-0.00976,-0.04392,-0.03416,-0.02928
-0.04392,0.03904,-0.03416,-0.0122,0.00976,-0.02684,0.02928,-0.00488,-0.00976,-0.02928,-0.0244,-0.01952
-0.03904,0.03416,-0.02928,-0.00976,0.00976,-0.0244,0.03904,0.00488,-0.00488,-0.02928,-0.01952,-0.01952
-0.03904,0.03416,-0.02928,-0.00976,0.00976,-0.0244,0.0488,0.01952,-0.00488,-0.03416,-0.01952,-0.01952
-0.03416,0.03172,-0.02928,-0.0122,0.00488,-0.01952,0.0488,0.0244,0,-0.0244,-0.00976,-0.00976
-0.02928,0.02928,-0.02928,-0.01464,0,-0.01464,0.0488,0.02928,0.00976,-0.01952,0,0
-0.01952,0.01952,-0.01952,-0.00976,0,-0.00976,0.0488,0.02928,0.00976,-0.00976,0,0
-0.00976,0.00976,-0.00976,-0.00488,0,-0.00488,0.0488,0.02928,0.00976,0,0,0
0.00488,-0.00244,0,-0.00244,-0.00488,0.00488,0.0488,0.03416,0.01464,0,0,0
0.00488,-0.00488,0.00488,0.00244,0,0.00244,0.04392,0.02928,0.01464,0,0,0
0.00488,-0.00732,0.00976,0.00732,0.00488,0,0.03904,0.0244,0.01952,0,0.00488,0
-0.00976,0,0.00976,0.01464,0.01952,-0.01464,0.03416,0.01464,0.01952,0,0.00488,0.00488
-0.00976,-0.00244,0.01464,0.01952,0.0244,-0.01708,0.02928,0.00976,0.01464,0.00976,0.01464,0.00976
-0.00976,-0.00976,0.02928,0.03416,0.03904,-0.0244,0.01464,-0.00976,0.00488,0.01952,0.01952,0.00976
-0.01464,-0.00732,0.02928,0.0366,0.04392,-0.02928,0,-0.0244,0,0.01952,0.01952,0.00488
-0.01464,0,0.01464,0.02196,0.02928,-0.02196,0,-0.02928,-0.00976,0.01464,0.01464,0.00488
-0.01464,0.00488,0.00488,0.0122,0.01952,-0.01708,-0.00976,-0.03416,-0.01464,0.00976,0.00976,0.00488
-0.00976,0.00732,-0.00488,0,0.00488,-0.00732,-0.00976,-0.03416,-0.01952,0.01464,0.00976,0.00488
0.01952,-0.01952,0.01952,0.00976,0,0.00976,-0.01464,-0.03416,-0.01952,0.01952,0.00976,0.00488
0.02928,-0.03416,0.03904,0.0244,0.00976,0.00976,-0.01952,-0.03416,-0.01464,0.0244,-0.00488,-0.00488
0.00976,0,-0.00976,-0.01464,-0.01952,0.01464,-0.01952,-0.03904,-0.0488,-0.01464,-0.03416,-0.02928
-0.01952,0.03172,-0.04392,-0.03416,-0.0244,0.00244,-0.01952,-0.03904,-0.05856,-0.03416,-0.04392,-0.03904
-0.01464,0.02928,-0.04392,-0.0366,-0.02928,0.00732,-0.00976,-0.03904,-0.06344,-0.03416,-0.04392,-0.02928
-0.00488,0.0244,-0.04392,-0.04148,-0.03904,0.01708,-0.00488,-0.03904,-0.06344,-0.03416,-0.04392,-0.01952
-0.00488,0.01708,-0.02928,-0.02684,-0.0244,0.00976,-0.00488,-0.03904,-0.06832,-0.02928,-0.03904,-0.01952
-0.00488,0.0122,-0.01952,-0.01708,-0.01464,0.00488,-0.00488,-0.03904,-0.0732,-0.01952,-0.03416,-0.01952
-0.00488,0.0122,-0.01952,-0.01708,-0.01464,0.00488,0,-0.03416,-0.06832,-0.01464,-0.0244,-0.01464
-0.00488,0.0122,-0.01952,-0.01708,-0.01464,0.00488,0,-0.03416,-0.06344,-0.00976,-0.01952,-0.00976
-0.01464,0.02684,-0.03904,-0.03172,-0.0244,0.00488,0.01464,-0.0244,-0.05856,-0.00976,-0.01952,-0.00976
-0.02928,0.04392,-0.05856,-0.04392,-0.02928,0,0.02928,-0.01952,-0.0488,-0.00976,-0.0244,-0.0244
-0.03416,0.0488,-0.06344,-0.04636,-0.02928,-0.00244,0.03416,-0.01464,-0.0488,-0.01464,-0.03416,-0.03416
-0.04392,0.05612,-0.06832,-0.04636,-0.0244,-0.00976,0.03904,-0.01464,-0.05368,-0.0244,-0.03904,-0.04392
-0.04392,0.05612,-0.06832,-0.04636,-0.0244,-0.00976,0.03416,-0.0244,-0.06344,-0.02928,-0.0488,-0.0488
-0.04392,0.05612,-0.06832,-0.04636,-0.0244,-0.00976,0.03416,-0.02928,-0.06344,-0.03416,-0.0488,-0.0488
-0.05856,0.06344,-0.06832,-0.03904,-0.00976,-0.0244,0.03416,-0.0244,-0.05856,-0.03416,-0.0488,-0.0488
-0.0488,0.05612,-0.06344,-0.03904,-0.01464,-0.01708,0.03416,-0.0244,-0.05856,-0.03416,-0.04392,-0.0488
-0.0488,0.05368,-0.05856,-0.03416,-0.00976,-0.01952,0.03416,-0.0244,-0.05856,-0.03416,-0.04392,-0.05368
-0.0488,0.05368,-0.05856,-0.03416,-0.00976,-0.01952,0.03416,-0.0244,-0.06344,-0.03416,-0.0488,-0.05856
-0.04392,0.05124,-0.05856,-0.0366,-0.01464,-0.01464,0.03416,-0.0244,-0.06344,-0.03904,-0.05368,-0.06344
-0.04392,0.05124,-0.05856,-0.0366,-0.01464,-0.01464,0.03416,-0.0244,-0.06344,-0.03904,-0.05368,-0.06344
-0.04392,0.05612,-0.06832,-0.04636,-0.0244,-0.00976,0.03416,-0.01952,-0.06344,-0.03416,-0.05368,-0.0488
-0.03904,0.05368,-0.06832,-0.0488,-0.02928,-0.00488,0.03416,-0.01464,-0.06344,-0.02928,-0.0488,-0.03416
-0.03904,0.05124,-0.06344,-0.04392,-0.0244,-0.00732,0.03416,-0.01464,-0.05856,-0.02928,-0.05368,-0.04392
-0.03904,0.05124,-0.06344,-0.04392,-0.0244,-0.00732,0.03416,-0.01464,-0.05856,-0.03416,-0.05856,-0.05368
-0.0488,0.05856,-0.06832,-0.04392,-0.01952,-0.01464,0.02928,-0.01952,-0.06344,-0.04392,-0.05856,-0.05368
-0.05856,0.06344,-0.06832,-0.03904,-0.00976,-0.0244,0.0244,-0.0244,-0.06344,-0.0488,-0.05856,-0.05368
-0.04392,0.05368,-0.06344,-0.04148,-0.01952,-0.0122,0.0244,-0.02928,-0.06832,-0.0488,-0.05856,-0.05368
-0.02928,0.04636,-0.06344,-0.0488,-0.03416,0.00244,0.03416,-0.01952,-0.06344,-0.04392,-0.06344,-0.05856
-0.06832,0.07076,-0.0732,-0.03904,-0.00488,-0.03172,0.05856,0.01464,-0.02928,-0.02928,-0.06832,-0.08784
-0.10248,0.09028,-0.07808,-0.02684,0.0244,-0.06344,0.0732,0.03904,-0.00976,-0.01464,-0.0732,-0.10248
-0.122,0.0976,-0.0732,-0.0122,0.0488,-0.0854,0.09272,0.05368,0,0,-0.0732,-0.0976
-0.11712,0.07808,-0.03904,0.01952,0.07808,-0.0976,0.10736,0.05856,0.0244,0.04392,-0.0244,-0.05368
-0.10736,0.07076,-0.03416,0.01952,0.0732,-0.09028,0.10248,0.06832,0.05856,0.10248,0.0488,0.01464
-0.05856,0.03904,-0.01952,0.00976,0.03904,-0.0488,0.08784,0.08784,0.10736,0.18056,0.1464,0.10248
0.0732,-0.05612,0.03904,0.00244,-0.03416,0.05368,0.03416,0.12688,0.1708,0.27816,0.27328,0.21472
0.22448,-0.16348,0.10248,-0.00976,-0.122,0.17324,-0.04392,0.10736,0.20984,0.38064,0.42456,0.35624
0.37088,-0.27328,0.17568,-0.00976,-0.1952,0.28304,-0.15616,0.00488,0.20008,0.46848,0.5856,0.52216
0.53192,-0.40016,0.2684,0.00244,-0.26352,0.39772,-0.30256,-0.1464,0.14152,0.53192,0.74664,0.70272
0.73688,-0.58072,0.42456,0.05612,-0.31232,0.5246,-0.49288,-0.37576,0.11224,0.68808,1.0004,0.97112
0.87352,-0.67588,0.47824,0.04148,-0.39528,0.6344,-0.61,-0.53192,0.02928,0.68808,1.0736,1.08336
0.91744,-0.671,0.42456,-0.03416,-0.49288,0.70516,-0.62464,-0.5612,-0.07808,0.50264,0.8784,0.93696
0.83936,-0.59292,0.34648,-0.0732,-0.49288,0.66612,-0.57096,-0.56608,-0.17568,0.34648,0.6832,0.76616
0.59536,-0.39528,0.1952,-0.10248,-0.40016,0.49776,-0.4392,-0.5124,-0.2928,0.16592,0.45384,0.52216
0.35624,-0.19764,0.03904,-0.13908,-0.3172,0.33672,-0.30744,-0.488,-0.44408,-0.05368,0.15616,0.24888
0.14152,-0.02684,-0.08784,-0.1586,-0.22936,0.18544,-0.20008,-0.47336,-0.63928,-0.36112,-0.20496,-0.05856
0.01952,0.08784,-0.1952,-0.20496,-0.21472,0.11712,-0.11712,-0.40504,-0.72712,-0.5612,-0.45384,-0.27328
-0.00976,0.12688,-0.244,-0.23912,-0.23424,0.11224,-0.0732,-0.35136,-0.67832,-0.56608,-0.46848,-0.30744
-0.06344,0.16104,-0.25864,-0.22692,-0.1952,0.06588,-0.03416,-0.31232,-0.60512,-0.52704,-0.43432,-0.30744
-0.07808,0.15372,-0.22936,-0.19032,-0.15128,0.0366,-0.01464,-0.244,-0.46848,-0.40016,-0.35624,-0.2684
-0.0976,0.13908,-0.18056,-0.13176,-0.08296,-0.00732,0.00976,-0.1708,-0.33672,-0.25864,-0.25864,-0.20496
-0.08784,0.11468,-0.14152,-0.0976,-0.05368,-0.01708,0.01464,-0.11224,-0.22936,-0.17568,-0.19032,-0.15128
-0.0732,0.09028,-0.10736,-0.07076,-0.03416,-0.01952,0.0244,-0.06832,-0.16592,-0.122,-0.14152,-0.11712
-0.05856,0.06832,-0.07808,-0.0488,-0.01952,-0.01952,0.02928,-0.04392,-0.122,-0.08296,-0.10248,-0.08296
-0.04392,0.05368,-0.06344,-0.04148,-0.01952,-0.0122,0.03904,-0.0244,-0.08784,-0.0488,-0.06344,-0.05368
-0.03904,0.0488,-0.05856,-0.03904,-0.01952,-0.00976,0.04392,-0.01464,-0.06832,-0.02928,-0.05856,-0.0488
-0.03904,0.04636,-0.05368,-0.03416,-0.01464,-0.0122,0.0488,-0.00488,-0.05856,-0.00976,-0.0488,-0.04392
-0.03904,0.04636,-0.05368,-0.03416,-0.01464,-0.0122,0.04392,-0.00488,-0.05856,-0.01464,-0.04392,-0.0488
-0.03904,0.04392,-0.0488,-0.02928,-0.00976,-0.01464,0.03904,0,-0.05856,-0.0244,-0.04392,-0.05368
-0.03904,0.04392,-0.0488,-0.02928,-0.00976,-0.01464,0.03904,0,-0.05368,-0.0244,-0.04392,-0.0488
-0.04392,0.04392,-0.04392,-0.02196,0,-0.02196,0.03904,0,-0.0488,-0.01952,-0.03904,-0.0488
-0.04392,0.04392,-0.04392,-0.02196,0,-0.02196,0.04392,0.00488,-0.04392,0,-0.03416,-0.03904
-0.04392,0.04392,-0.04392,-0.02196,0,-0.02196,0.0488,0.00976,-0.03416,0.01952,-0.02928,-0.02928
-0.03904,0.04148,-0.04392,-0.0244,-0.00488,-0.01708,0.0488,0.00976,-0.03416,0.00488,-0.03416,-0.02928
-0.03904,0.04148,-0.04392,-0.0244,-0.00488,-0.01708,0.0488,0.00976,-0.02928,-0.00488,-0.03416,-0.02928
-0.03904,0.04148,-0.04392,-0.0244,-0.00488,-0.01708,0.0488,0.00976,-0.02928,-0.00488,-0.03416,-0.02928
-0.03904,0.04148,-0.04392,-0.0244,-0.00488,-0.01708,0.0488,0.01464,-0.02928,-0.00488,-0.02928,-0.02928
-0.03416,0.03904,-0.04392,-0.02684,-0.00976,-0.0122,0.0488,0.01464,-0.02928,-0.00488,-0.02928,-0.02928
-0.03416,0.03904,-0.04392,-0.02684,-0.00976,-0.0122,0.0488,0.01464,-0.03416,-0.00488,-0.02928,-0.02928
-0.04392,0.04636,-0.0488,-0.02684,-0.00488,-0.01952,0.0488,0.01464,-0.03416,0,-0.0244,-0.02928
-0.0488,0.05124,-0.05368,-0.02928,-0.00488,-0.02196,0.0488,0.01464,-0.03416,0.00488,-0.0244,-0.02928
-0.04392,0.0488,-0.05368,-0.03172,-0.00976,-0.01708,0.0488,0.01464,-0.03904,0.00488,-0.03416,-0.03416
-0.04392,0.0488,-0.05368,-0.03172,-0.00976,-0.01708,0.0488,0.01464,-0.03904,0.00488,-0.04392,-0.03416
-0.04392,0.04636,-0.0488,-0.02684,-0.00488,-0.01952,0.04392,0.01952,-0.03416,0.00488,-0.03416,-0.03416
-0.03904,0.04148,-0.04392,-0.0244,-0.00488,-0.01708,0.03904,0.01952,-0.02928,0.00488,-0.0244,-0.03416
-0.03416,0.03904,-0.04392,-0.02684,-0.00976,-0.0122,0.03904,0.01464,-0.02928,0,-0.0244,-0.03416
-0.02928,0.0366,-0.04392,-0.02928,-0.01464,-0.00732,0.03904,0.01464,-0.02928,0,-0.0244,-0.03416
-0.01952,0.03172,-0.04392,-0.03416,-0.0244,0.00244,0.03904,0.01464,-0.02928,-0.00488,-0.03416,-0.03416
-0.00976,0.02684,-0.04392,-0.03904,-0.03416,0.0122,0.03904,0.01464,-0.02928,-0.01464,-0.03904,-0.03416
-0.01952,0.03172,-0.04392,-0.03416,-0.0244,0.00244,0.03904,0.0244,-0.0244,-0.01464,-0.03904,-0.03416
-0.02928,0.0366,-0.04392,-0.02928,-0.01464,-0.00732,0.03904,0.02928,-0.0244,-0.00976,-0.03904,-0.03416
-0.0244,0.03172,-0.03904,-0.02684,-0.01464,-0.00488,0.03904,0.02928,-0.01952,0,-0.02928,-0.03416
-0.0244,0.03172,-0.03904,-0.02684,-0.01464,-0.00488,0.03904,0.03416,-0.01952,0.00488,-0.0244,-0.03416
-0.0244,0.03172,-0.03904,-0.02684,-0.01464,-0.00488,0.03904,0.03416,-0.00976,0.00488,-0.01952,-0.03416
-0.0244,0.03172,-0.03904,-0.02684,-0.01464,-0.00488,0.03904,0.02928,-0.00976,0.00976,-0.01464,-0.03416
-0.00976,0.01952,-0.02928,-0.0244,-0.01952,0.00488,0.03416,0.02928,-0.00488,0.00976,-0.01464,-0.02928
0.00976,0.00488,-0.01952,-0.0244,-0.02928,0.01952,0.02928,0.03904,0.00488,0.01464,-0.00976,-0.02928
-0.01952,0.02928,-0.03904,-0.02928,-0.01952,0,0.02928,0.03904,0.00488,0.01464,-0.01464,-0.02928
-0.03904,0.0488,-0.05856,-0.03904,-0.01952,-0.00976,0.02928,0.04392,0.00488,0.01952,-0.01464,-0.02928
-0.01952,0.02928,-0.03904,-0.02928,-0.01952,0,0.03904,0.04392,0.00976,0.0244,-0.01464,-0.02928
0,0.0122,-0.0244,-0.0244,-0.0244,0.0122,0.04392,0.04392,0.00976,0.0244,-0.01464,-0.02928
0.00976,0.00488,-0.01952,-0.0244,-0.02928,0.01952,0.04392,0.05856,0.01464,0.01952,-0.01952,-0.02928
0.00976,0.00488,-0.01952,-0.0244,-0.02928,0.01952,0.04392,0.06832,0.0244,0.01952,-0.01952,-0.0244
0.01464,0.00244,-0.01952,-0.02684,-0.03416,0.0244,0.03904,0.06832,0.0244,0.01952,-0.01464,-0.0244
0.0244,-0.00488,-0.01464,-0.02684,-0.03904,0.03172,0.02928,0.06832,0.03904,0.03416,-0.00488,-0.0244
0.03416,-0.0122,-0.00976,-0.02684,-0.04392,0.03904,0.02928,0.06832,0.03904,0.04392,0,-0.01952
0.05368,-0.02928,0.00488,-0.02196,-0.0488,0.05124,0.02928,0.06832,0.0488,0.04392,0.00488,-0.00976
0.05368,-0.02928,0.00488,-0.02196,-0.0488,0.05124,0.0244,0.0732,0.0488,0.04392,0.00488,-0.00976
0.05856,-0.03172,0.00488,-0.0244,-0.05368,0.05612,0.01464,0.07808,0.05368,0.03904,0.00488,-0.00488
0.06832,-0.0366,0.00488,-0.02928,-0.06344,0.06588,0.00976,0.08296,0.05856,0.04392,0.00976,0
0.08296,-0.04148,0,-0.04148,-0.08296,0.08296,0.00976,0.08296,0.06344,0.0488,0.01952,0.00976
0.0976,-0.061,0.0244,-0.0244,-0.0732,0.0854,0.00488,0.08784,0.06832,0.05368,0.03904,0.0244
0.0976,-0.07076,0.04392,-0.00488,-0.05368,0.07564,0.00488,0.08784,0.0732,0.06344,0.0488,0.03904
0.11224,-0.08052,0.0488,-0.00732,-0.06344,0.08784,-0.00488,0.09272,0.07808,0.0732,0.05368,0.04392
0.11224,-0.07564,0.03904,-0.01708,-0.0732,0.09272,-0.00976,0.08784,0.07808,0.08784,0.05856,0.05368
0.122,-0.08296,0.04392,-0.01708,-0.07808,0.10004,-0.01952,0.07808,0.07808,0.08784,0.06832,0.05856
0.12688,-0.09028,0.05368,-0.00976,-0.0732,0.10004,-0.0244,0.06832,0.07808,0.09272,0.07808,0.06832
0.13664,-0.10004,0.06344,-0.00488,-0.0732,0.10492,-0.03904,0.05856,0.07808,0.09272,0.08296,0.07808
0.1464,-0.1098,0.0732,0,-0.0732,0.1098,-0.0488,0.05368,0.07808,0.10248,0.09272,0.08784
0.13664,-0.10736,0.07808,0.00976,-0.05856,0.0976,-0.04392,0.03904,0.0732,0.11224,0.10736,0.10248
0.13664,-0.10736,0.07808,0.00976,-0.05856,0.0976,-0.03904,0.02928,0.06832,0.13176,0.11224,0.10736
0.10736,-0.08784,0.06832,0.01464,-0.03904,0.0732,-0.03904,0.01464,0.06344,0.122,0.10736,0.11712
0.10248,-0.0854,0.06832,0.01708,-0.03416,0.06832,-0.03904,0.01464,0.06344,0.12688,0.10736,0.122
0.0976,-0.07808,0.05856,0.00976,-0.03904,0.06832,-0.03416,0.00488,0.05856,0.12688,0.10736,0.10248
0.08296,-0.06588,0.0488,0.00732,-0.03416,0.05856,-0.02928,0.00488,0.05368,0.12688,0.0976,0.08296
0.08296,-0.06832,0.05368,0.0122,-0.02928,0.05612,-0.0244,0.00488,0.0488,0.122,0.08784,0.07808
0.06344,-0.05612,0.0488,0.01708,-0.01464,0.03904,-0.00976,0.00488,0.04392,0.12688,0.08296,0.0732
0.03416,-0.03172,0.02928,0.0122,-0.00488,0.01952,-0.00488,0.00488,0.04392,0.11224,0.0732,0.06344
0.02928,-0.0244,0.01952,0.00488,-0.00976,0.01952,0.00488,0.00488,0.04392,0.10736,0.06832,0.05368
0.01464,-0.0122,0.00976,0.00244,-0.00488,0.00976,0.00976,0,0.02928,0.0976,0.05368,0.04392
0.00976,-0.00732,0.00488,0,-0.00488,0.00732,0.01952,0,0.02928,0.09272,0.04392,0.03904
-0.00488,0.00488,-0.00488,-0.00244,0,-0.00244,0.0244,0,0.01464,0.07808,0.03416,0.0244
-0.00976,0.0122,-0.01464,-0.00976,-0.00488,-0.00244,0.0244,0,0.01464,0.0732,0.02928,0.01952
-0.01464,0.01464,-0.01464,-0.00732,0,-0.00732,0.0244,0.00488,0.01464,0.06344,0.01464,0.01464
-0.01464,0.01952,-0.0244,-0.01708,-0.00976,-0.00244,0.02928,0.00976,0.01952,0.06344,0.00976,0.00976
-0.01952,0.0244,-0.02928,-0.01952,-0.00976,-0.00488,0.03416,0.00976,0.01464,0.05368,0.00488,-0.00488
-0.0244,0.02684,-0.02928,-0.01708,-0.00488,-0.00976,0.03904,0.00976,0.00976,0.0488,0,-0.00976
-0.02928,0.02928,-0.02928,-0.01464,0,-0.01464,0.03904,0.00976,0.00976,0.0488,0,-0.00488
-0.02928,0.03172,-0.03416,-0.01952,-0.00488,-0.0122,0.03904,0.00976,0.00976,0.0488,0,-0.00488
-0.03416,0.0366,-0.03904,-0.02196,-0.00488,-0.01464,0.03416,0.00488,0.00488,0.04392,-0.00976,-0.01464
-0.03904,0.04636,-0.05368,-0.03416,-0.01464,-0.0122,0.02928,0.00488,0.00488,0.0488,-0.00976,-0.01464
-0.03904,0.04148,-0.04392,-0.0244,-0.00488,-0.01708,0.02928,0.00488,-0.00488,0.03416,-0.01952,-0.0244
-0.03904,0.04148,-0.04392,-0.0244,-0.00488,-0.01708,0.02928,0.00488,-0.00976,0.03416,-0.01952,-0.0244
-0.0244,0.03172,-0.03904,-0.02684,-0.01464,-0.00488,0.02928,0,-0.00976,0.02928,-0.01464,-0.0244
-0.01952,0.02684,-0.03416,-0.0244,-0.01464,-0.00244,0.0244,-0.00976,-0.00976,0.01952,-0.01464,-0.02928
-0.01952,0.02684,-0.03416,-0.0244,-0.01464,-0.00244,0.0244,-0.00976,-0.00488,0.03904,-0.00976,-0.0244
-0.0244,0.02928,-0.03416,-0.02196,-0.00976,-0.00732,0.03416,0,-0.00488,0.05856,-0.00976,-0.0244
-0.03416,0.03416,-0.03416,-0.01708,0,-0.01708,0.03416,0,-0.00976,0.03416,-0.00976,-0.0244
-0.04392,0.04148,-0.03904,-0.01708,0.00488,-0.0244,0.03416,-0.00488,-0.01464,0.01952,-0.00976,-0.0244
-0.03416,0.03904,-0.04392,-0.02684,-0.00976,-0.0122,0.03416,-0.00488,-0.00976,0.0244,-0.00976,-0.02928
-0.01952,0.03416,-0.0488,-0.03904,-0.02928,0.00488,0.03416,0,-0.00976,0.0244,-0.00976,-0.03416
-0.01952,0.03172,-0.04392,-0.03416,-0.0244,0.00244,0.03416,0,-0.00976,0.01952,-0.01464,-0.03416
-0.01952,0.03172,-0.04392,-0.03416,-0.0244,0.00244,0.03416,0,-0.00976,0.01464,-0.01952,-0.03416
-0.03416,0.03904,-0.04392,-0.02684,-0.00976,-0.0122,0.03416,0,-0.00976,0.01464,-0.01952,-0.03904
-0.04392,0.04636,-0.0488,-0.02684,-0.00488,-0.01952,0.03416,0,-0.00976,0.01464,-0.01952,-0.03904
-0.04392,0.04392,-0.04392,-0.02196,0,-0.02196,0.03416,0.00488,-0.00976,0.01952,-0.0244,-0.03904
-0.03904,0.03904,-0.03904,-0.01952,0,-0.01952,0.03416,0.00976,-0.00976,0.0244,-0.0244,-0.03904
-0.03904,0.04148,-0.04392,-0.0244,-0.00488,-0.01708,0.03416,0.00976,-0.00976,0.0244,-0.01952,-0.03904
-0.03904,0.04148,-0.04392,-0.0244,-0.00488,-0.01708,0.03416,0.00976,0,0.02928,-0.01952,-0.03904
-0.02928,0.03416,-0.03904,-0.0244,-0.00976,-0.00976,0.03416,0.00488,0,0.02928,-0.01952,-0.03416
-0.0244,0.03416,-0.04392,-0.03172,-0.01952,-0.00244,0.03416,0.00488,0,0.03416,-0.01952,-0.02928
-0.03416,0.04392,-0.05368,-0.0366,-0.01952,-0.00732,0.03416,0.00488,-0.00488,0.0244,-0.01952,-0.02928
-0.03416,0.04392,-0.05368,-0.0366,-0.01952,-0.00732,0.03904,0.00488,-0.00488,0.01464,-0.01952,-0.03416
-0.03904,0.04392,-0.0488,-0.02928,-0.00976,-0.01464,0.03904,0.00976,-0.00488,0.0244,-0.01464,-0.03416
-0.04392,0.04636,-0.0488,-0.02684,-0.00488,-0.01952,0.03904,0.00976,-0.00488,0.03416,-0.00976,-0.02928
-0.03904,0.04148,-0.04392,-0.0244,-0.00488,-0.01708,0.03904,0.00976,-0.00488,0.03416,-0.00488,-0.02928
-0.03904,0.04148,-0.04392,-0.0244,-0.00488,-0.01708,0.03904,0.00976,0,0.03904,0,-0.02928
-0.03904,0.04148,-0.04392,-0.0244,-0.00488,-0.01708,0.03904,0.00976,0,0.03904,0,-0.0244
-0.03904,0.03904,-0.03904,-0.01952,0,-0.01952,0.03904,0.00976,0,0.03416,0,-0.01952
-0.03416,0.03416,-0.03416,-0.01708,0,-0.01708,0.03904,0.00976,0,0.02928,0,-0.01952
-0.03416,0.03416,-0.03416,-0.01708,0,-0.01708,0.03904,0.01464,0,0.01952,-0.00488,-0.01952
-0.03416,0.03904,-0.04392,-0.02684,-0.00976,-0.0122,0.03416,0.01464,0,0.01952,-0.01464,-0.0244
-0.02928,0.03904,-0.0488,-0.03416,-0.01952,-0.00488,0.02928,0.01464,-0.00488,0.01952,-0.01952,-0.02928
-0.03904,0.04392,-0.0488,-0.02928,-0.00976,-0.01464,0.02928,0.01464,-0.00976,0.01464,-0.01952,-0.02928
-0.03904,0.04392,-0.0488,-0.02928,-0.00976,-0.01464,0.02928,0.01464,-0.00976,0.01464,-0.01952,-0.02928
-0.03904,0.04392,-0.0488,-0.02928,-0.00976,-0.01464,0.03904,0.01464,-0.00488,0.0244,-0.01464,-0.02928
-0.03904,0.04392,-0.0488,-0.02928,-0.00976,-0.01464,0.04392,0.01952,0,0.03416,-0.01464,-0.02928
-0.04392,0.04636,-0.0488,-0.02684,-0.00488,-0.01952,0.03904,0.01952,0,0.02928,-0.01464,-0.0244
-0.0488,0.0488,-0.0488,-0.0244,0,-0.0244,0.03904,0.01952,0,0.01952,-0.01464,-0.0244
-0.06344,0.05124,-0.03904,-0.00732,0.0244,-0.04392,0.03904,0.01952,0,0.01952,-0.01464,-0.0244
-0.07808,0.05368,-0.02928,0.00976,0.0488,-0.06344,0.03904,0.01952,0,0.01952,-0.01464,-0.0244
-0.05368,0.04636,-0.03904,-0.0122,0.01464,-0.03416,0.03416,0.01464,-0.00488,0.01464,-0.01952,-0.02928
-0.03416,0.0366,-0.03904,-0.02196,-0.00488,-0.01464,0.02928,0.00976,-0.00976,0.00976,-0.0244,-0.03416
-0.01464,0.02684,-0.03904,-0.03172,-0.0244,0.00488,0.02928,0.00976,-0.00976,0.00488,-0.0244,-0.03416
0,0.01708,-0.03416,-0.03416,-0.03416,0.01708,0.02928,0.00488,-0.01464,0.00488,-0.02928,-0.03904
-0.03416,0.04148,-0.0488,-0.03172,-0.01464,-0.00976,0.03416,0.00488,-0.00976,0,-0.02928,-0.03416
-0.06832,0.06588,-0.06344,-0.02928,0.00488,-0.0366,0.03904,0.00488,-0.00488,0,-0.02928,-0.02928
-0.05856,0.05368,-0.0488,-0.01952,0.00976,-0.03416,0.03904,0.00488,-0.00488,0.00488,-0.02928,-0.02928
-0.0488,0.04392,-0.03904,-0.01464,0.00976,-0.02928,0.03904,0.00488,-0.00488,0.00488,-0.02928,-0.02928
-0.03904,0.03904,-0.03904,-0.01952,0,-0.01952,0.03416,0,-0.01464,-0.00488,-0.03904,-0.04392
-0.03416,0.03904,-0.04392,-0.02684,-0.00976,-0.0122,0.03416,-0.00488,-0.0244,-0.00976,-0.04392,-0.05368
-0.03416,0.04392,-0.05368,-0.0366,-0.01952,-0.00732,0.03416,0,-0.01952,-0.00976,-0.03904,-0.0488
-0.02928,0.03904,-0.0488,-0.03416,-0.01952,-0.00488,0.03416,0.00488,-0.01952,-0.00976,-0.03416,-0.04392
-0.0488,0.05856,-0.06832,-0.04392,-0.01952,-0.01464,0.03416,0.00488,-0.01952,0,-0.03416,-0.04392
-0.06832,0.07564,-0.08296,-0.0488,-0.01464,-0.02684,0.03416,0.00488,-0.01952,0.00976,-0.02928,-0.03904
-0.03904,0.05612,-0.0732,-0.05368,-0.03416,-0.00244,0.03416,0,-0.01952,0.00488,-0.02928,-0.03416
-0.03416,0.0488,-0.06344,-0.04636,-0.02928,-0.00244,0.03416,0,-0.00976,-0.00488,-0.0244,-0.03416
-0.0488,0.05124,-0.05368,-0.02928,-0.00488,-0.02196,0.03416,0,-0.00976,0,-0.0244,-0.02928
-0.06344,0.05368,-0.04392,-0.0122,0.01952,-0.04148,0.03904,0.00488,-0.00976,0,-0.0244,-0.02928
-0.06344,0.05368,-0.04392,-0.0122,0.01952,-0.04148,0.03904,0.00488,-0.01464,-0.00488,-0.0244,-0.02928
-0.05856,0.0488,-0.03904,-0.00976,0.01952,-0.03904,0.03904,0.00976,-0.00488,0.00488,-0.01952,-0.02928
-0.05368,0.03904,-0.0244,0.00244,0.02928,-0.04148,0.03904,0.00488,0,0.00976,-0.01464,-0.0244
-0.05368,0.03416,-0.01464,0.0122,0.03904,-0.04636,0.03904,0.00488,0.00488,0.01464,-0.01464,-0.0244
-0.04392,0.02928,-0.01464,0.00732,0.02928,-0.0366,0.04392,0.01464,0.00976,0.01464,-0.01464,-0.0244
-0.03904,0.02928,-0.01952,0,0.01952,-0.02928,0.0488,0.02928,0.01952,0.01952,-0.01952,-0.02928
-0.03904,0.02928,-0.01952,0,0.01952,-0.02928,0.0488,0.03416,0.01952,0.01952,-0.01464,-0.01952
-0.03904,0.02928,-0.01952,0,0.01952,-0.02928,0.0488,0.03904,0.01952,0.01952,-0.00976,-0.00976
-0.0244,0.01464,-0.00488,0.00732,0.01952,-0.02196,0.0488,0.04392,0.0244,0.02928,-0.00976,-0.00976
-0.01464,0.00732,0,0.00732,0.01464,-0.01464,0.04392,0.03904,0.0244,0.03416,-0.00488,-0.00976
-0.00976,0,0.00976,0.01464,0.01952,-0.01464,0.03904,0.03416,0.02928,0.04392,0,-0.00976
-0.00976,0,0.00976,0.01464,0.01952,-0.01464,0.03416,0.0244,0.02928,0.0488,0.00488,-0.00488
-0.0244,0.00976,0.00488,0.01708,0.02928,-0.02684,0.03416,0.01952,0.02928,0.05856,0.00976,0.00488
-0.03904,0.01464,0.00976,0.02928,0.0488,-0.04392,0.0244,0,0.0244,0.06832,0.00976,0.00976
-0.04392,0.01708,0.00976,0.03172,0.05368,-0.0488,0.00976,-0.01464,0.01952,0.05856,0.00976,0.00488
-0.04392,0.0244,-0.00488,0.01708,0.03904,-0.04148,0.00976,-0.01952,0.00976,0.04392,0.00488,0.00488
-0.04392,0.0244,-0.00488,0.01708,0.03904,-0.04148,0.00488,-0.01952,0.00488,0.03416,0,0.00488
-0.03904,0.02196,-0.00488,0.01464,0.03416,-0.0366,0.00976,-0.01464,0,0.03416,0,0.00488
-0.01952,0.0122,-0.00488,0.00488,0.01464,-0.01708,0.00488,-0.01464,-0.00976,0.02928,0,0.00488
-0.01952,0.01464,-0.00976,0,0.00976,-0.01464,0,-0.01464,-0.01464,0.0244,-0.01464,-0.00488
-0.01952,0.0244,-0.02928,-0.01952,-0.00976,-0.00488,0,-0.01952,-0.03904,0,-0.03416,-0.01952
-0.02928,0.03172,-0.03416,-0.01952,-0.00488,-0.0122,0,-0.01952,-0.03904,-0.00488,-0.03416,-0.01952
-0.03416,0.03416,-0.03416,-0.01708,0,-0.01708,0.00976,-0.01952,-0.04392,-0.00488,-0.03416,-0.01952
-0.03416,0.03416,-0.03416,-0.01708,0,-0.01708,0.01464,-0.01952,-0.04392,-0.00488,-0.03416,-0.01952
-0.03416,0.03416,-0.03416,-0.01708,0,-0.01708,0.01464,-0.0244,-0.04392,-0.00976,-0.03416,-0.01952
-0.03416,0.0366,-0.03904,-0.02196,-0.00488,-0.01464,0.01464,-0.02928,-0.04392,-0.00976,-0.03416,-0.01952
-0.03416,0.03416,-0.03416,-0.01708,0,-0.01708,0.01952,-0.0244,-0.03904,-0.00488,-0.02928,-0.01952
-0.03416,0.03172,-0.02928,-0.0122,0.00488,-0.01952,0.01952,-0.0244,-0.03416,0,-0.02928,-0.01952
-0.04392,0.04392,-0.04392,-0.02196,0,-0.02196,0.02928,-0.00976,-0.02928,0,-0.02928,-0.01952
-0.05856,0.05856,-0.05856,-0.02928,0,-0.02928,0.03904,0,-0.01952,0,-0.03416,-0.03416
-0.0488,0.05856,-0.06832,-0.04392,-0.01952,-0.01464,0.03904,0.00488,-0.01952,-0.00488,-0.04392,-0.04392
-0.04392,0.061,-0.07808,-0.05612,-0.03416,-0.00488,0.03904,0.00488,-0.0244,-0.01464,-0.0488,-0.05368
-0.05368,0.06588,-0.07808,-0.05124,-0.0244,-0.01464,0.03904,0,-0.03904,-0.01952,-0.05856,-0.05856
-0.06344,0.07076,-0.07808,-0.04636,-0.01464,-0.0244,0.04392,0,-0.04392,-0.0244,-0.05856,-0.05856
-0.08296,0.08296,-0.08296,-0.04148,0,-0.04148,0.04392,0.00488,-0.03904,-0.0244,-0.05856,-0.05368
-0.07808,0.08052,-0.08296,-0.04392,-0.00488,-0.0366,0.04392,0.00488,-0.03904,-0.0244,-0.05368,-0.0488
-0.07808,0.07808,-0.07808,-0.03904,0,-0.03904,0.03416,0,-0.03904,-0.02928,-0.05368,-0.0488
-0.07808,0.07808,-0.07808,-0.03904,0,-0.03904,0.0244,-0.00488,-0.04392,-0.03416,-0.05856,-0.0488
-0.0732,0.07564,-0.07808,-0.04148,-0.00488,-0.03416,0.03416,-0.00488,-0.04392,-0.03904,-0.06344,-0.05368
-0.0732,0.07564,-0.07808,-0.04148,-0.00488,-0.03416,0.04392,-0.00488,-0.04392,-0.03904,-0.06344,-0.05368
-0.08784,0.08784,-0.08784,-0.04392,0,-0.04392,0.04392,0,-0.04392,-0.02928,-0.06344,-0.05368
-0.0976,0.09272,-0.08784,-0.03904,0.00976,-0.05368,0.04392,0.00488,-0.04392,-0.01952,-0.05856,-0.05368
-0.08296,0.08296,-0.08296,-0.04148,0,-0.04148,0.04392,0.00488,-0.03904,-0.01952,-0.05856,-0.05368
-0.06832,0.07564,-0.08296,-0.0488,-0.01464,-0.02684,0.04392,0.00488,-0.03904,-0.0244,-0.05856,-0.05368
-0.07808,0.08296,-0.08784,-0.0488,-0.00976,-0.03416,0.04392,0.00488,-0.04392,-0.02928,-0.05856,-0.05368
-0.08784,0.08784,-0.08784,-0.04392,0,-0.04392,0.04392,0.00488,-0.04392,-0.02928,-0.05856,-0.05368
-0.08784,0.0854,-0.08296,-0.03904,0.00488,-0.04636,0.04392,0,-0.04392,-0.02928,-0.05856,-0.05856
-0.08784,0.0854,-0.08296,-0.03904,0.00488,-0.04636,0.05368,0.00976,-0.03416,-0.0244,-0.06344,-0.06832
-0.09272,0.08784,-0.08296,-0.0366,0.00976,-0.05124,0.07808,0.04392,0,-0.0244,-0.07808,-0.0976
-0.09272,0.0854,-0.07808,-0.03172,0.01464,-0.05368,0.09272,0.06832,0.01952,-0.0244,-0.09272,-0.11224
-0.13176,0.10248,-0.0732,-0.00732,0.05856,-0.09516,0.0976,0.07808,0.03904,0.01952,-0.05856,-0.08296
-0.1464,0.09272,-0.03904,0.03416,0.10736,-0.12688,0.0976,0.07808,0.0732,0.09272,0.0244,-0.01464
-0.10248,0.05856,-0.01464,0.0366,0.08784,-0.09516,0.07808,0.08784,0.12688,0.17568,0.122,0.06344
-0.01952,0,0.01952,0.02928,0.03904,-0.02928,0.0488,0.10736,0.1952,0.27816,0.244,0.16104
0.11224,-0.09516,0.07808,0.02196,-0.03416,0.0732,-0.01464,0.11712,0.24888,0.3904,0.39528,0.30744
0.26352,-0.20252,0.14152,0.00976,-0.122,0.19276,-0.10248,0.06832,0.27816,0.50752,0.57096,0.48312
0.40992,-0.31232,0.21472,0.00976,-0.1952,0.30256,-0.22448,-0.06832,0.26352,0.61976,0.77104,0.6832
0.57096,-0.4392,0.30744,0.02196,-0.26352,0.41724,-0.38064,-0.25376,0.20008,0.7076,0.97112,0.89792
0.72224,-0.56608,0.40992,0.0488,-0.31232,0.51728,-0.51728,-0.42456,0.15128,0.8052,1.14192,1.0736
0.8052,-0.60756,0.40992,0.00732,-0.39528,0.60024,-0.58072,-0.52216,0.0488,0.74664,1.13216,1.09312
0.81984,-0.5734,0.32696,-0.08296,-0.49288,0.65636,-0.57096,-0.52216,-0.08296,0.52704,0.89304,0.9028
0.71248,-0.46604,0.2196,-0.13664,-0.49288,0.60268,-0.49288,-0.49776,-0.20496,0.33672,0.65392,0.68808
0.49776,-0.29036,0.08296,-0.16592,-0.4148,0.45628,-0.38552,-0.4636,-0.35624,0.07808,0.36112,0.42456
0.28792,-0.11468,-0.05856,-0.20252,-0.34648,0.3172,-0.27816,-0.45872,-0.54168,-0.2196,0,0.13176
0.11224,0.02196,-0.15616,-0.21228,-0.2684,0.19032,-0.19032,-0.44896,-0.68808,-0.48312,-0.29768,-0.122
0.02928,0.10248,-0.23424,-0.24888,-0.26352,0.1464,-0.12688,-0.38552,-0.72712,-0.63928,-0.48312,-0.28304
0.02928,0.10736,-0.244,-0.25864,-0.27328,0.15128,-0.09272,-0.32208,-0.62464,-0.57096,-0.45384,-0.28792
0.00488,0.10736,-0.2196,-0.22204,-0.22448,0.11468,-0.06344,-0.27328,-0.49776,-0.45872,-0.37576,-0.25864
-0.01952,0.10492,-0.19032,-0.18056,-0.1708,0.07564,-0.0244,-0.19032,-0.3416,-0.3416,-0.2928,-0.2196
-0.0488,0.09516,-0.14152,-0.11712,-0.09272,0.02196,0.01952,-0.10248,-0.19032,-0.20984,-0.19032,-0.15616
-0.07808,0.10492,-0.13176,-0.09272,-0.05368,-0.0122,0.03416,-0.0488,-0.10736,-0.1464,-0.14152,-0.122
-0.10248,0.11468,-0.12688,-0.07564,-0.0244,-0.03904,0.05368,-0.00976,-0.06832,-0.11224,-0.11224,-0.10736
-0.08784,0.0976,-0.10736,-0.06344,-0.01952,-0.03416,0.04392,0,-0.04392,-0.09272,-0.0976,-0.09272
-0.0732,0.08784,-0.10248,-0.06588,-0.02928,-0.02196,0.03904,0.00488,-0.02928,-0.07808,-0.08296,-0.08296
-0.06832,0.08296,-0.0976,-0.06344,-0.02928,-0.01952,0.05368,0.01464,-0.00976,-0.06832,-0.07808,-0.07808
-0.06832,0.08052,-0.09272,-0.05856,-0.0244,-0.02196,0.06832,0.0244,0,-0.05856,-0.06832,-0.0732
-0.06832,0.08052,-0.09272,-0.05856,-0.0244,-0.02196,0.06832,0.0244,0.00488,-0.0488,-0.05856,-0.06832
-0.06832,0.07808,-0.08784,-0.05368,-0.01952,-0.0244,0.06832,0.02928,0.00976,-0.04392,-0.05368,-0.06344
-0.06832,0.07808,-0.08784,-0.05368,-0.01952,-0.0244,0.06832,0.02928,0.01464,-0.04392,-0.05368,-0.05856
-0.0732,0.07808,-0.08296,-0.04636,-0.00976,-0.03172,0.06832,0.02928,0.01952,-0.03904,-0.0488,-0.05856
-0.0732,0.07564,-0.07808,-0.04148,-0.00488,-0.03416,0.06832,0.03416,0.01952,-0.03904,-0.0488,-0.05856
-0.0732,0.0732,-0.0732,-0.0366,0,-0.0366,0.06832,0.03904,0.0244,-0.03904,-0.0488,-0.05856
-0.06832,0.06832,-0.06832,-0.03416,0,-0.03416,0.06832,0.03904,0.0244,-0.04392,-0.05368,-0.06344
-0.06832,0.06588,-0.06344,-0.02928,0.00488,-0.0366,0.06832,0.03904,0.02928,-0.04392,-0.05368,-0.06832
-0.06344,0.06344,-0.06344,-0.03172,0,-0.03172,0.06832,0.03904,0.02928,-0.0488,-0.05368,-0.06832
-0.05856,0.061,-0.06344,-0.03416,-0.00488,-0.02684,0.06832,0.04392,0.02928,-0.05368,-0.0488,-0.06832
-0.05368,0.05856,-0.06344,-0.0366,-0.00976,-0.02196,0.06832,0.04392,0.03416,-0.05368,-0.0488,-0.06832
-0.05368,0.05856,-0.06344,-0.0366,-0.00976,-0.02196,0.06832,0.04392,0.03416,-0.05368,-0.0488,-0.06832
-0.05856,0.061,-0.06344,-0.03416,-0.00488,-0.02684,0.06344,0.04392,0.03904,-0.0488,-0.04392,-0.06832
-0.05856,0.061,-0.06344,-0.03416,-0.00488,-0.02684,0.05856,0.04392,0.04392,-0.04392,-0.04392,-0.06832
-0.05368,0.061,-0.06832,-0.04148,-0.01464,-0.01952,0.05856,0.04392,0.03904,-0.03904,-0.04392,-0.06832
-0.05368,0.06344,-0.0732,-0.04636,-0.01952,-0.01708,0.05856,0.04392,0.03904,-0.03416,-0.04392,-0.06344
-0.03904,0.05612,-0.0732,-0.05368,-0.03416,-0.00244,0.05856,0.0488,0.03904,-0.03416,-0.04392,-0.06344
-0.01952,0.04636,-0.0732,-0.06344,-0.05368,0.01708,0.05856,0.0488,0.03904,-0.03416,-0.04392,-0.06344
-0.03904,0.05124,-0.06344,-0.04392,-0.0244,-0.00732,0.05856,0.0488,0.03904,-0.03904,-0.04392,-0.06344
-0.05856,0.05612,-0.05368,-0.0244,0.00488,-0.03172,0.05856,0.05368,0.03904,-0.03904,-0.04392,-0.06344
-0.0488,0.05124,-0.05368,-0.02928,-0.00488,-0.02196,0.05368,0.05368,0.03416,-0.03904,-0.0488,-0.06344
-0.03904,0.04636,-0.05368,-0.03416,-0.01464,-0.0122,0.0488,0.05368,0.02928,-0.04392,-0.0488,-0.06344
-0.03904,0.04636,-0.05368,-0.03416,-0.01464,-0.0122,0.0488,0.05856,0.03416,-0.04392,-0.0488,-0.06344
-0.03904,0.04636,-0.05368,-0.03416,-0.01464,-0.0122,0.0488,0.05856,0.03416,-0.03904,-0.0488,-0.06344
-0.03416,0.04148,-0.0488,-0.03172,-0.01464,-0.00976,0.05368,0.05856,0.02928,-0.03904,-0.0488,-0.06344
-0.03416,0.04148,-0.0488,-0.03172,-0.01464,-0.00976,0.05856,0.06344,0.01952,-0.04392,-0.05368,-0.06344
-0.03904,0.0488,-0.05856,-0.03904,-0.01952,-0.00976,0.05856,0.06832,0.03904,-0.03416,-0.05368,-0.06344
-0.04392,0.05612,-0.06832,-0.04636,-0.0244,-0.00976,0.05856,0.06832,0.0488,-0.01952,-0.05368,-0.06344
-0.03904,0.05368,-0.06832,-0.0488,-0.02928,-0.00488,0.05368,0.06832,0.05368,-0.01952,-0.0488,-0.05856
-0.02928,0.0488,-0.06832,-0.05368,-0.03904,0.00488,0.0488,0.07808,0.06344,-0.01464,-0.03904,-0.05856
-0.02928,0.04636,-0.06344,-0.0488,-0.03416,0.00244,0.0488,0.07808,0.06344,-0.01464,-0.03904,-0.05856
-0.01952,0.03904,-0.05856,-0.0488,-0.03904,0.00976,0.0488,0.08296,0.06344,-0.00976,-0.03416,-0.05856
-0.01952,0.03416,-0.0488,-0.03904,-0.02928,0.00488,0.0488,0.08296,0.06832,-0.00488,-0.03416,-0.05856
-0.01952,0.03172,-0.04392,-0.03416,-0.0244,0.00244,0.04392,0.08296,0.06832,-0.00488,-0.03416,-0.05856
-0.00976,0.0244,-0.03904,-0.03416,-0.02928,0.00976,0.04392,0.0976,0.07808,0,-0.03416,-0.05856
-0.00976,0.0244,-0.03904,-0.03416,-0.02928,0.00976,0.04392,0.10736,0.09272,0.00976,-0.02928,-0.05368
-0.00488,0.02196,-0.03904,-0.0366,-0.03416,0.01464,0.0488,0.10736,0.09272,0.01464,-0.0244,-0.04392
0.00488,0.01464,-0.03416,-0.0366,-0.03904,0.02196,0.0488,0.10736,0.10736,0.03416,-0.01464,-0.03416
0.01464,0.00976,-0.03416,-0.04148,-0.0488,0.03172,0.0488,0.11224,0.10736,0.0488,0,-0.02928
0.03416,-0.00488,-0.0244,-0.04148,-0.05856,0.04636,0.0488,0.11712,0.11712,0.05368,0.01464,-0.01952
0.0244,0,-0.0244,-0.0366,-0.0488,0.0366,0.04392,0.122,0.11712,0.06344,0.01952,-0.01464
0.01952,0.00244,-0.0244,-0.03416,-0.04392,0.03172,0.03416,0.12688,0.122,0.06832,0.0244,-0.00488
0.03416,-0.01708,0,-0.01708,-0.03416,0.03416,0.02928,0.13176,0.12688,0.0732,0.02928,0
0.05368,-0.0366,0.01952,-0.00732,-0.03416,0.04392,0.02928,0.13176,0.13176,0.07808,0.03904,0.00976
0.0732,-0.05124,0.02928,-0.00732,-0.04392,0.05856,0.01952,0.13176,0.13176,0.07808,0.0488,0.01464
0.07808,-0.05612,0.03416,-0.00488,-0.04392,0.061,0.01464,0.12688,0.13176,0.08296,0.0488,0.01952
0.09272,-0.07076,0.0488,0.00244,-0.04392,0.06832,0.00488,0.12688,0.13664,0.07808,0.04392,0.01952
0.09272,-0.07076,0.0488,0.00244,-0.04392,0.06832,0,0.11712,0.13664,0.07808,0.03904,0.0244
0.0976,-0.0732,0.0488,0,-0.0488,0.0732,-0.01464,0.10736,0.12688,0.07808,0.0488,0.03416
0.0976,-0.07564,0.05368,0.00488,-0.04392,0.07076,-0.0244,0.0976,0.11712,0.08296,0.05856,0.0488
0.10736,-0.0854,0.06344,0.00976,-0.04392,0.07564,-0.02928,0.08784,0.12688,0.10248,0.06832,0.06832
0.11712,-0.09516,0.0732,0.01464,-0.04392,0.08052,-0.02928,0.08296,0.13664,0.13176,0.08296,0.08784
0.11224,-0.09516,0.07808,0.02196,-0.03416,0.0732,-0.03416,0.06344,0.12688,0.11712,0.09272,0.0976
0.11712,-0.0976,0.07808,0.01952,-0.03904,0.07808,-0.03904,0.0488,0.11712,0.11224,0.09272,0.0976
0.08784,-0.07808,0.06832,0.0244,-0.01952,0.05368,-0.03904,0.03416,0.10248,0.0976,0.08784,0.0976
0.08296,-0.07564,0.06832,0.02684,-0.01464,0.0488,-0.03904,0.03416,0.09272,0.0976,0.08784,0.09272
0.07808,-0.06344,0.0488,0.00976,-0.02928,0.05368,-0.03416,0.0244,0.08784,0.0976,0.08784,0.08296
0.06344,-0.04636,0.02928,-0.00244,-0.03416,0.0488,-0.02928,0.0244,0.08296,0.0976,0.07808,0.0732
0.08296,-0.06588,0.0488,0.00732,-0.03416,0.05856,-0.0244,0.0244,0.07808,0.09272,0.06832,0.06832
0.08296,-0.07076,0.05856,0.01708,-0.0244,0.05368,-0.00976,0.0244,0.0732,0.0976,0.06344,0.06344
0.04392,-0.0366,0.02928,0.00732,-0.01464,0.02928,-0.00976,0.0244,0.06832,0.08296,0.05368,0.0488
0.02928,-0.01952,0.00976,-0.00488,-0.01952,0.0244,-0.00488,0.0244,0.06344,0.07808,0.0488,0.03416
0.01464,-0.00244,-0.00976,-0.01708,-0.0244,0.01952,0,0.01952,0.04392,0.06344,0.03416,0.01464
0.00976,0.00732,-0.0244,-0.02928,-0.03416,0.02196,0.00976,0.01952,0.03904,0.05368,0.0244,0
-0.00488,0.0122,-0.01952,-0.01708,-0.01464,0.00488,0.01464,0.01952,0.0244,0.03904,0.01464,-0.00488
-0.00976,0.0122,-0.01464,-0.00976,-0.00488,-0.00244,0.01464,0.01952,0.0244,0.03416,0.00976,0
-0.01464,0.01464,-0.01464,-0.00732,0,-0.00732,0.01464,0.01952,0.01952,0.0244,-0.00488,-0.00488
-0.01464,0.01952,-0.0244,-0.01708,-0.00976,-0.00244,0.01952,0.01952,0.01952,0.0244,-0.00976,-0.00976
-0.01952,0.02928,-0.03904,-0.02928,-0.01952,0,0.0244,0.01952,0.01464,0.01464,-0.01464,-0.0244
-0.0244,0.0366,-0.0488,-0.0366,-0.0244,0,0.02928,0.01952,0.00976,0.00976,-0.01952,-0.02928
-0.02928,0.03416,-0.03904,-0.0244,-0.00976,-0.00976,0.02928,0.01952,0.01464,0.00976,-0.01952,-0.0244
-0.02928,0.03172,-0.03416,-0.01952,-0.00488,-0.0122,0.02928,0.01952,0.01952,0.00976,-0.01952,-0.0244
-0.02928,0.03172,-0.03416,-0.01952,-0.00488,-0.0122,0.02928,0.01464,0.01464,0.00488,-0.0244,-0.02928
-0.02928,0.0366,-0.04392,-0.02928,-0.01464,-0.00732,0.02928,0.01464,0.01464,0.00976,-0.01952,-0.0244
-0.02928,0.03172,-0.03416,-0.01952,-0.00488,-0.0122,0.02928,0.01464,0.00976,-0.00488,-0.02928,-0.03416
-0.02928,0.03172,-0.03416,-0.01952,-0.00488,-0.0122,0.02928,0.01464,0.00976,-0.00488,-0.02928,-0.03416
-0.0244,0.03172,-0.03904,-0.02684,-0.01464,-0.00488,0.03416,0.01952,0.00976,-0.00488,-0.02928,-0.03416
-0.02928,0.0366,-0.04392,-0.02928,-0.01464,-0.00732,0.03416,0.01952,0.00976,-0.00976,-0.03416,-0.03904
-0.02928,0.0366,-0.04392,-0.02928,-0.01464,-0.00732,0.02928,0.01952,0.01464,-0.00976,-0.02928,-0.03416
-0.03416,0.03904,-0.04392,-0.02684,-0.00976,-0.0122,0.03416,0.02928,0.01464,-0.00976,-0.02928,-0.03416
-0.03416,0.03904,-0.04392,-0.02684,-0.00976,-0.0122,0.03416,0.02928,0.00976,-0.01952,-0.02928,-0.03416
-0.03416,0.04148,-0.0488,-0.03172,-0.01464,-0.00976,0.03416,0.0244,0.00488,-0.01952,-0.02928,-0.03416
-0.03416,0.04392,-0.05368,-0.0366,-0.01952,-0.00732,0.03904,0.0244,0.00976,-0.00976,-0.02928,-0.03416
-0.02928,0.04392,-0.05856,-0.04392,-0.02928,0,0.04392,0.02928,0.00976,-0.00488,-0.02928,-0.03416
-0.03904,0.04636,-0.05368,-0.03416,-0.01464,-0.0122,0.04392,0.02928,0.01464,-0.00488,-0.02928,-0.03416
-0.0488,0.05124,-0.05368,-0.02928,-0.00488,-0.02196,0.04392,0.02928,0.01952,-0.00488,-0.02928,-0.03416
-0.04392,0.0488,-0.05368,-0.03172,-0.00976,-0.01708,0.04392,0.02928,0.01952,-0.00976,-0.03416,-0.04392
-0.03416,0.04636,-0.05856,-0.04148,-0.0244,-0.00488,0.04392,0.02928,0.01952,-0.01464,-0.03904,-0.0488
-0.03416,0.04636,-0.05856,-0.04148,-0.0244,-0.00488,0.04392,0.02928,0.01464,-0.01464,-0.04392,-0.0488
-0.02928,0.04392,-0.05856,-0.04392,-0.02928,0,0.04392,0.02928,0.00976,-0.01464,-0.04392,-0.0488
-0.02928,0.04148,-0.05368,-0.03904,-0.0244,-0.00244,0.04392,0.02928,0.00488,-0.01464,-0.03904,-0.04392
-0.02928,0.0366,-0.04392,-0.02928,-0.01464,-0.00732,0.04392,0.02928,0.00976,-0.00976,-0.03904,-0.03904
-0.0244,0.02928,-0.03416,-0.02196,-0.00976,-0.00732,0.03904,0.02928,0.00976,-0.00976,-0.03904,-0.03904
-0.0244,0.02928,-0.03416,-0.02196,-0.00976,-0.00732,0.03416,0.03416,0.00976,-0.00488,-0.03904,-0.03904
-0.03904,0.0488,-0.05856,-0.03904,-0.01952,-0.00976,0.03416,0.03416,0.00976,-0.00488,-0.03904,-0.03904
-0.04392,0.05856,-0.0732,-0.05124,-0.02928,-0.00732,0.03904,0.03416,0.01464,-0.00488,-0.03904,-0.04392
-0.04392,0.05612,-0.06832,-0.04636,-0.0244,-0.00976,0.04392,0.0488,0.01464,0,-0.03904,-0.04392
-0.04392,0.05612,-0.06832,-0.04636,-0.0244,-0.00976,0.0488,0.05856,0.01464,0.00488,-0.03904,-0.03904
-0.04392,0.05124,-0.05856,-0.0366,-0.01464,-0.01464,0.0488,0.0488,0.01464,0.00488,-0.04392,-0.04392
-0.0488,0.05124,-0.05368,-0.02928,-0.00488,-0.02196,0.0488,0.03904,0.01952,0.00976,-0.0488,-0.0488
-0.0488,0.05368,-0.05856,-0.03416,-0.00976,-0.01952,0.04392,0.03904,0.01952,0.01464,-0.0488,-0.0488
-0.0488,0.05368,-0.05856,-0.03416,-0.00976,-0.01952,0.03904,0.03904,0.01952,0.01464,-0.0488,-0.0488
-0.04392,0.0488,-0.05368,-0.03172,-0.00976,-0.01708,0.03904,0.03904,0.01952,0.01952,-0.03904,-0.0488
-0.04392,0.0488,-0.05368,-0.03172,-0.00976,-0.01708,0.03904,0.04392,0.01952,0.01952,-0.03416,-0.0488
-0.0488,0.05368,-0.05856,-0.03416,-0.00976,-0.01952,0.03904,0.04392,0.0244,0.01952,-0.03904,-0.0488
-0.0488,0.05368,-0.05856,-0.03416,-0.00976,-0.01952,0.03904,0.04392,0.0244,0.01952,-0.03904,-0.0488
-0.0732,0.06344,-0.05368,-0.01708,0.01952,-0.04636,0.03904,0.04392,0.01464,0.01464,-0.04392,-0.0488
-0.08784,0.06832,-0.0488,-0.00488,0.03904,-0.06344,0.03904,0.04392,0.00976,0.01464,-0.0488,-0.0488
-0.05856,0.05368,-0.0488,-0.01952,0.00976,-0.03416,0.04392,0.03416,0.00976,0.00976,-0.04392,-0.0488
-0.02928,0.03904,-0.0488,-0.03416,-0.01952,-0.00488,0.04392,0.02928,0.00976,0.00488,-0.04392,-0.0488
-0.03904,0.04392,-0.0488,-0.02928,-0.00976,-0.01464,0.03904,0.02928,0.00976,0.00976,-0.04392,-0.04392
-0.0488,0.0488,-0.0488,-0.0244,0,-0.0244,0.03904,0.02928,0.00976,0.00976,-0.04392,-0.04392
-0.0488,0.0488,-0.0488,-0.0244,0,-0.0244,0.04392,0.03416,0.01464,0.00976,-0.04392,-0.04392
-0.0488,0.0488,-0.0488,-0.0244,0,-0.0244,0.0488,0.03904,0.01952,0.00976,-0.04392,-0.04392
-0.05368,0.05856,-0.06344,-0.0366,-0.00976,-0.02196,0.0488,0.03904,0.01952,0.00976,-0.04392,-0.04392
-0.06344,0.06588,-0.06832,-0.0366,-0.00488,-0.02928,0.0488,0.03904,0.01952,0.00976,-0.04392,-0.04392
-0.03904,0.05368,-0.06832,-0.0488,-0.02928,-0.00488,0.04392,0.03904,0.01952,0.00488,-0.04392,-0.03416
-0.01952,0.04148,-0.06344,-0.05368,-0.04392,0.0122,0.03904,0.03416,0.01464,0.00488,-0.0488,-0.02928
-0.03416,0.0488,-0.06344,-0.04636,-0.02928,-0.00244,0.03904,0.0244,0.01464,-0.00488,-0.0488,-0.04392
-0.0488,0.05612,-0.06344,-0.03904,-0.01464,-0.01708,0.03904,0.01464,0.01464,-0.00976,-0.0488,-0.05856
-0.0488,0.05612,-0.06344,-0.03904,-0.01464,-0.01708,0.04392,0.0244,0.01464,-0.00488,-0.04392,-0.0488
-0.0488,0.05856,-0.06832,-0.04392,-0.01952,-0.01464,0.0488,0.03416,0.01464,-0.00488,-0.03904,-0.03904
-0.0488,0.05856,-0.06832,-0.04392,-0.01952,-0.01464,0.04392,0.02928,0.00976,-0.00976,-0.04392,-0.04392
-0.05368,0.06344,-0.0732,-0.04636,-0.01952,-0.01708,0.04392,0.0244,0.00488,-0.00976,-0.04392,-0.04392
-0.05368,0.05856,-0.06344,-0.0366,-0.00976,-0.02196,0.03904,0.0244,0.00976,-0.00976,-0.04392,-0.04392
-0.0488,0.04392,-0.03904,-0.01464,0.00976,-0.02928,0.03416,0.0244,0.00976,-0.00976,-0.04392,-0.04392
-0.0488,0.0488,-0.0488,-0.0244,0,-0.0244,0.03416,0.0244,0.00976,-0.00976,-0.0488,-0.04392
-0.0488,0.05124,-0.05368,-0.02928,-0.00488,-0.02196,0.03416,0.0244,0.00976,-0.00976,-0.0488,-0.03904
-0.03416,0.04392,-0.05368,-0.0366,-0.01952,-0.00732,0.03416,0.0244,0.00976,-0.00488,-0.0488,-0.03416
-0.04392,0.0488,-0.05368,-0.03172,-0.00976,-0.01708,0.03416,0.02928,0.01952,-0.00488,-0.04392,-0.03416
-0.04392,0.04392,-0.04392,-0.02196,0,-0.02196,0.03416,0.02928,0.02928,0,-0.03904,-0.02928
-0.04392,0.03904,-0.03416,-0.0122,0.00976,-0.02684,0.03904,0.03416,0.03904,0,-0.03416,-0.02928
-0.03904,0.03416,-0.02928,-0.00976,0.00976,-0.0244,0.03904,0.02928,0.03904,0.00976,-0.02928,-0.02928
-0.03904,0.03416,-0.02928,-0.00976,0.00976,-0.0244,0.03904,0.02928,0.03904,0.01952,-0.02928,-0.02928
-0.03904,0.02928,-0.01952,0,0.01952,-0.02928,0.03904,0.03904,0.03904,0.01952,-0.0244,-0.02928
-0.03904,0.0244,-0.00976,0.00976,0.02928,-0.03416,0.03904,0.0488,0.03904,0.01952,-0.01952,-0.02928
-0.03904,0.0244,-0.00976,0.00976,0.02928,-0.03416,0.04392,0.05856,0.04392,0.0244,-0.01952,-0.01952
-0.03416,0.01708,0,0.01708,0.03416,-0.03416,0.04392,0.06344,0.04392,0.0244,-0.01464,-0.01464
-0.03416,0.01464,0.00488,0.02196,0.03904,-0.0366,0.0488,0.06832,0.0488,0.02928,-0.01464,-0.00976
-0.02928,0.00976,0.00976,0.0244,0.03904,-0.03416,0.03904,0.05368,0.0488,0.02928,-0.01464,-0.00976
-0.02928,0.00976,0.00976,0.0244,0.03904,-0.03416,0.03416,0.04392,0.0488,0.03416,-0.01464,-0.00488
-0.02928,0.00976,0.00976,0.0244,0.03904,-0.03416,0.03416,0.03904,0.04392,0.03904,-0.00976,0
-0.0244,0.00244,0.01952,0.03172,0.04392,-0.03416,0.0244,0.01952,0.03416,0.03904,-0.00976,0
-0.0244,0.00244,0.01952,0.03172,0.04392,-0.03416,0.00976,0.00488,0.02928,0.03904,-0.00976,-0.00488
-0.0244,0.00976,0.00488,0.01708,0.02928,-0.02684,0.00976,0,0.01952,0.03416,-0.01464,-0.00488
-0.0244,0.00976,0.00488,0.01708,0.02928,-0.02684,0,-0.00488,0.01464,0.0244,-0.01952,-0.00488
-0.00976,0.00244,0.00488,0.00976,0.01464,-0.0122,0,-0.00488,0.00976,0.0244,-0.01952,-0.00488
0.01952,-0.0122,0.00488,-0.00488,-0.01464,0.01708,-0.00488,-0.00488,0,0.01952,-0.01952,-0.00488
0,0.00976,-0.01952,-0.01952,-0.01952,0.00976,-0.00976,-0.00488,-0.00488,0.00976,-0.03416,-0.01952
-0.01952,0.03904,-0.05856,-0.0488,-0.03904,0.00976,-0.00976,-0.00976,-0.02928,-0.01464,-0.05368,-0.03904
-0.01952,0.03416,-0.0488,-0.03904,-0.02928,0.00488,-0.00976,-0.00976,-0.02928,-0.01464,-0.05368,-0.03904
-0.01464,0.0244,-0.03416,-0.02684,-0.01952,0.00244,0,-0.00976,-0.03416,-0.01464,-0.05368,-0.03904
-0.01464,0.0244,-0.03416,-0.02684,-0.01952,0.00244,0.00976,-0.00488,-0.02928,-0.01464,-0.05368,-0.03904
-0.01464,0.0244,-0.03416,-0.02684,-0.01952,0.00244,0.01464,0,-0.0244,-0.01952,-0.05368,-0.03904
-0.00488,0.02196,-0.03904,-0.0366,-0.03416,0.01464,0.01464,0,-0.0244,-0.01952,-0.05368,-0.03416
0.00488,0.01708,-0.03904,-0.04148,-0.04392,0.0244,0.01952,0.00488,-0.01952,-0.01464,-0.0488,-0.02928
-0.00976,0.0244,-0.03904,-0.03416,-0.02928,0.00976,0.01952,0.00488,-0.01952,-0.00976,-0.0488,-0.02928
-0.03416,0.04392,-0.05368,-0.0366,-0.01952,-0.00732,0.02928,0.01464,-0.0244,-0.00976,-0.0488,-0.02928
-0.0488,0.05856,-0.06832,-0.04392,-0.01952,-0.01464,0.03416,0.01952,-0.01952,-0.00976,-0.05368,-0.04392
-0.05368,0.06344,-0.0732,-0.04636,-0.01952,-0.01708,0.03416,0.0244,-0.01952,-0.01464,-0.06344,-0.0488
-0.06832,0.0732,-0.07808,-0.04392,-0.00976,-0.02928,0.03904,0.0244,-0.0244,-0.0244,-0.06832,-0.05368
-0.0732,0.07564,-0.07808,-0.04148,-0.00488,-0.03416,0.03904,0.01952,-0.03416,-0.02928,-0.07808,-0.05856
-0.0732,0.0732,-0.0732,-0.0366,0,-0.0366,0.04392,0.01952,-0.03416,-0.03416,-0.0732,-0.05368
-0.08784,0.08052,-0.0732,-0.02928,0.01464,-0.05124,0.04392,0.0244,-0.02928,-0.03416,-0.06832,-0.0488
-0.06344,0.06832,-0.0732,-0.04148,-0.00976,-0.02684,0.04392,0.0244,-0.02928,-0.03416,-0.06344,-0.0488
-0.0488,0.05856,-0.06832,-0.04392,-0.01952,-0.01464,0.04392,0.0244,-0.02928,-0.03416,-0.06344,-0.0488
-0.06344,0.06588,-0.06832,-0.0366,-0.00488,-0.02928,0.0488,0.0244,-0.03416,-0.03416,-0.0732,-0.05368
-0.0732,0.07076,-0.06832,-0.03172,0.00488,-0.03904,0.05368,0.0244,-0.03416,-0.03904,-0.08296,-0.06344
-0.0732,0.0732,-0.0732,-0.0366,0,-0.0366,0.05368,0.01952,-0.03904,-0.04392,-0.08784,-0.06832
-0.07808,0.08296,-0.08784,-0.0488,-0.00976,-0.03416,0.05368,0.01464,-0.04392,-0.0488,-0.09272,-0.0732
-0.07808,0.08296,-0.08784,-0.0488,-0.00976,-0.03416,0.05368,0.01464,-0.04392,-0.0488,-0.08784,-0.0732
-0.07808,0.08052,-0.08296,-0.04392,-0.00488,-0.0366,0.05368,0.01464,-0.03904,-0.0488,-0.08784,-0.0732
-0.0732,0.07808,-0.08296,-0.04636,-0.00976,-0.03172,0.05368,0.01464,-0.03904,-0.0488,-0.08296,-0.06344
-0.06832,0.07808,-0.08784,-0.05368,-0.01952,-0.0244,0.05368,0.01464,-0.04392,-0.04392,-0.07808,-0.05368
-0.06832,0.07564,-0.08296,-0.0488,-0.01464,-0.02684,0.05368,0.01464,-0.04392,-0.03904,-0.07808,-0.05368
-0.06832,0.07076,-0.0732,-0.03904,-0.00488,-0.03172,0.05856,0.01464,-0.03904,-0.03904,-0.07808,-0.05368
-0.07808,0.07564,-0.0732,-0.03416,0.00488,-0.04148,0.0732,0.02928,-0.0244,-0.03416,-0.08296,-0.05856
-0.11712,0.09516,-0.0732,-0.01464,0.04392,-0.08052,0.0976,0.06344,0.00976,-0.01952,-0.08296,-0.0732
-0.122,0.09516,-0.06832,-0.00732,0.05368,-0.08784,0.10736,0.08784,0.03416,0,-0.0732,-0.06832
-0.11224,0.08784,-0.06344,-0.00732,0.0488,-0.08052,0.10248,0.0976,0.05368,0.03904,-0.03904,-0.04392
-0.10736,0.06832,-0.02928,0.0244,0.07808,-0.09272,0.0976,0.0976,0.09272,0.11712,0.04392,0.0244
-0.0732,0.03904,-0.00488,0.03172,0.06832,-0.07076,0.07808,0.10736,0.15128,0.20496,0.1464,0.11224
0.00976,-0.01952,0.02928,0.0244,0.01952,-0.00488,0.0488,0.122,0.21472,0.30256,0.27328,0.21472
0.14152,-0.11468,0.08784,0.01708,-0.05368,0.0976,-0.0244,0.11712,0.26352,0.40504,0.42456,0.35624
0.30256,-0.22692,0.15128,0,-0.15128,0.22692,-0.13176,0.03904,0.27816,0.5124,0.60024,0.52216
0.47824,-0.35136,0.22448,-0.01464,-0.25376,0.366,-0.26352,-0.11712,0.23912,0.60512,0.77104,0.68808
0.64416,-0.4758,0.30744,-0.01464,-0.33672,0.49044,-0.40504,-0.28792,0.15616,0.66856,0.93208,0.86864
0.77104,-0.5856,0.40016,0.01464,-0.37088,0.57096,-0.52216,-0.44408,0.10248,0.74664,1.0736,1.0248
0.82472,-0.60512,0.38552,-0.02684,-0.4392,0.63196,-0.57584,-0.52216,-0.00976,0.64904,1.01504,1.01504
0.78568,-0.53436,0.28304,-0.1098,-0.50264,0.64416,-0.55144,-0.50264,-0.14152,0.41968,0.76616,0.81496
0.6588,-0.4148,0.1708,-0.1586,-0.488,0.5734,-0.4636,-0.488,-0.28304,0.20496,0.50752,0.57584
0.44408,-0.23912,0.03416,-0.18788,-0.40992,0.427,-0.35136,-0.4636,-0.45872,-0.05368,0.21472,0.30744
0.23912,-0.06832,-0.10248,-0.22204,-0.3416,0.29036,-0.24888,-0.4636,-0.62464,-0.3172,-0.12688,0.03416
0.10248,0.04636,-0.1952,-0.24644,-0.29768,0.20008,-0.1708,-0.45384,-0.73688,-0.5368,-0.39528,-0.19032
0.03904,0.1098,-0.25864,-0.27816,-0.29768,0.16836,-0.11712,-0.38552,-0.732,-0.62952,-0.52216,-0.30744
0.01952,0.11956,-0.25864,-0.2684,-0.27816,0.14884,-0.09272,-0.32208,-0.61488,-0.55144,-0.47336,-0.2928
-0.0244,0.13176,-0.23912,-0.22692,-0.21472,0.09516,-0.06344,-0.26352,-0.47824,-0.42944,-0.37576,-0.24888
-0.03904,0.12444,-0.20984,-0.19032,-0.1708,0.06588,-0.03416,-0.1708,-0.32208,-0.30256,-0.27816,-0.20008
-0.06832,0.11468,-0.16104,-0.12688,-0.09272,0.0122,0.01464,-0.08296,-0.20008,-0.18056,-0.19032,-0.1464
-0.07808,0.10736,-0.13664,-0.0976,-0.05856,-0.00976,0.03416,-0.03904,-0.12688,-0.11712,-0.15128,-0.11712
-0.08296,0.10004,-0.11712,-0.07564,-0.03416,-0.0244,0.04392,-0.00976,-0.08784,-0.09272,-0.12688,-0.10248
-0.08784,0.09272,-0.0976,-0.05368,-0.00976,-0.03904,0.0488,0.00976,-0.05856,-0.0732,-0.10736,-0.08784
-0.08296,0.08784,-0.09272,-0.05124,-0.00976,-0.0366,0.05856,0.0244,-0.04392,-0.0488,-0.08296,-0.0732
-0.07808,0.08296,-0.08784,-0.0488,-0.00976,-0.03416,0.06344,0.03416,-0.02928,-0.03904,-0.07808,-0.06832
-0.06832,0.07076,-0.0732,-0.03904,-0.00488,-0.03172,0.06832,0.04392,-0.01952,-0.02928,-0.06832,-0.05856
-0.05856,0.061,-0.06344,-0.03416,-0.00488,-0.02684,0.06832,0.04392,-0.01952,-0.0244,-0.06344,-0.05368
-0.06832,0.06832,-0.06832,-0.03416,0,-0.03416,0.06832,0.0488,-0.00976,-0.0244,-0.05368,-0.05368
-0.07808,0.07808,-0.07808,-0.03904,0,-0.03904,0.06832,0.0488,0.00488,-0.0244,-0.04392,-0.0488
-0.08296,0.08296,-0.08296,-0.04148,0,-0.04148,0.06832,0.04392,0,-0.0244,-0.05368,-0.05368
-0.08296,0.08784,-0.09272,-0.05124,-0.00976,-0.0366,0.06832,0.04392,-0.00976,-0.02928,-0.06832,-0.05856
-0.08296,0.08296,-0.08296,-0.04148,0,-0.04148,0.06832,0.0488,-0.00488,-0.02928,-0.06832,-0.05856
-0.07808,0.07564,-0.0732,-0.03416,0.00488,-0.04148,0.06832,0.0488,-0.00488,-0.03416,-0.0732,-0.05856
-0.07808,0.07564,-0.0732,-0.03416,0.00488,-0.04148,0.06832,0.0488,0,-0.03416,-0.06832,-0.05856
-0.07808,0.07564,-0.0732,-0.03416,0.00488,-0.04148,0.06832,0.0488,0,-0.03416,-0.06344,-0.05856
-0.07808,0.07564,-0.0732,-0.03416,0.00488,-0.04148,0.05856,0.05368,0,-0.03416,-0.05856,-0.05856
-0.0732,0.0732,-0.0732,-0.0366,0,-0.0366,0.0488,0.05368,0.00488,-0.03416,-0.05856,-0.05856
-0.0732,0.07808,-0.08296,-0.04636,-0.00976,-0.03172,0.05856,0.05368,0.00488,-0.03416,-0.05856,-0.05856
-0.07808,0.0854,-0.09272,-0.05368,-0.01464,-0.03172,0.06832,0.05368,0.00488,-0.02928,-0.05368,-0.05856
-0.06832,0.0732,-0.07808,-0.04392,-0.00976,-0.02928,0.06832,0.05368,0.00488,-0.0244,-0.05368,-0.05856
-0.05368,0.05856,-0.06344,-0.0366,-0.00976,-0.02196,0.06832,0.05368,0,-0.0244,-0.05368,-0.05856
-0.05368,0.05856,-0.06344,-0.0366,-0.00976,-0.02196,0.06832,0.05856,0.00488,-0.0244,-0.05368,-0.05368
-0.05368,0.05856,-0.06344,-0.0366,-0.00976,-0.02196,0.06832,0.06832,0.01464,-0.0244,-0.05368,-0.05368
-0.05856,0.061,-0.06344,-0.03416,-0.00488,-0.02684,0.06832,0.06832,0.01952,-0.0244,-0.05856,-0.05368
-0.06832,0.06588,-0.06344,-0.02928,0.00488,-0.0366,0.06832,0.06832,0.01952,-0.0244,-0.06344,-0.05368
-0.06832,0.06588,-0.06344,-0.02928,0.00488,-0.0366,0.06832,0.0732,0.01952,-0.01952,-0.06344,-0.05368
-0.06832,0.06588,-0.06344,-0.02928,0.00488,-0.0366,0.06832,0.0732,0.01952,-0.01952,-0.06832,-0.05368
-0.06832,0.061,-0.05368,-0.01952,0.01464,-0.04148,0.06832,0.0732,0.01952,-0.0244,-0.06832,-0.05368
-0.06832,0.05612,-0.04392,-0.00976,0.0244,-0.04636,0.06832,0.07808,0.0244,-0.0244,-0.06832,-0.05368
-0.06832,0.061,-0.05368,-0.01952,0.01464,-0.04148,0.06832,0.07808,0.0244,-0.01952,-0.06832,-0.05368
-0.06344,0.061,-0.05856,-0.02684,0.00488,-0.03416,0.06832,0.07808,0.02928,-0.01952,-0.06344,-0.05368
-0.06344,0.061,-0.05856,-0.02684,0.00488,-0.03416,0.06832,0.08296,0.02928,-0.0244,-0.06344,-0.05856
-0.06344,0.061,-0.05856,-0.02684,0.00488,-0.03416,0.06832,0.08784,0.03904,-0.0244,-0.06344,-0.06344
-0.06344,0.061,-0.05856,-0.02684,0.00488,-0.03416,0.06832,0.08784,0.03904,-0.01952,-0.06344,-0.06344
-0.05856,0.05856,-0.05856,-0.02928,0,-0.02928,0.06832,0.08784,0.04392,-0.01952,-0.06344,-0.05856
-0.0488,0.05612,-0.06344,-0.03904,-0.01464,-0.01708,0.06832,0.0976,0.06344,-0.01464,-0.05368,-0.05368
-0.0488,0.05612,-0.06344,-0.03904,-0.01464,-0.01708,0.06832,0.0976,0.0732,-0.01464,-0.0488,-0.0488
-0.03904,0.0488,-0.05856,-0.03904,-0.01952,-0.00976,0.06832,0.10248,0.0732,-0.00488,-0.04392,-0.0488
-0.03904,0.04636,-0.05368,-0.03416,-0.01464,-0.0122,0.06832,0.10248,0.07808,0.00488,-0.04392,-0.0488
-0.03904,0.04636,-0.05368,-0.03416,-0.01464,-0.0122,0.06344,0.10248,0.0732,0.00488,-0.04392,-0.0488
-0.02928,0.03904,-0.0488,-0.03416,-0.01952,-0.00488,0.06344,0.11712,0.07808,0.00488,-0.04392,-0.0488
-0.02928,0.03904,-0.0488,-0.03416,-0.01952,-0.00488,0.06832,0.12688,0.09272,0.00488,-0.03904,-0.03904
-0.0244,0.0366,-0.0488,-0.0366,-0.0244,0,0.0732,0.12688,0.09272,0,-0.03416,-0.02928
-0.01464,0.02928,-0.04392,-0.0366,-0.02928,0.00732,0.06832,0.12688,0.11224,0.01464,-0.0244,-0.0244
-0.00488,0.02196,-0.03904,-0.0366,-0.03416,0.01464,0.06832,0.13176,0.11712,0.0244,-0.01464,-0.01952
0.00976,0.00732,-0.0244,-0.02928,-0.03416,0.02196,0.06832,0.14152,0.12688,0.03416,0.00488,-0.00976
0.00488,0.00976,-0.0244,-0.02684,-0.02928,0.01708,0.06344,0.15128,0.12688,0.0488,0.01464,-0.00488
0.00976,0.00488,-0.01952,-0.0244,-0.02928,0.01952,0.05368,0.15616,0.13176,0.0488,0.01464,0.00488
0.0244,-0.0122,0,-0.0122,-0.0244,0.0244,0.0488,0.15616,0.13664,0.05368,0.01952,0.00976
0.04392,-0.02684,0.00976,-0.0122,-0.03416,0.03904,0.04392,0.1464,0.14152,0.05368,0.0244,0.01952
0.05856,-0.03904,0.01952,-0.00976,-0.03904,0.0488,0.02928,0.14152,0.14152,0.05368,0.03416,0.0244
0.05856,-0.04148,0.0244,-0.00488,-0.03416,0.04636,0.0244,0.13664,0.14152,0.06344,0.03904,0.02928
0.0732,-0.05612,0.03904,0.00244,-0.03416,0.05368,0.01464,0.13664,0.1464,0.0732,0.04392,0.03416
0.07808,-0.05856,0.03904,0,-0.03904,0.05856,0.00488,0.12688,0.1464,0.08784,0.0488,0.04392
0.09272,-0.06832,0.04392,-0.00244,-0.0488,0.07076,-0.00976,0.11712,0.1464,0.08784,0.05856,0.05368
0.0976,-0.07564,0.05368,0.00488,-0.04392,0.07076,-0.01464,0.10248,0.14152,0.09272,0.06344,0.06832
0.10736,-0.0854,0.06344,0.00976,-0.04392,0.07564,-0.01952,0.08784,0.13664,0.09272,0.06344,0.07808
0.11712,-0.09516,0.0732,0.01464,-0.04392,0.08052,-0.01952,0.08296,0.13664,0.10248,0.0732,0.08784
0.10736,-0.09272,0.07808,0.0244,-0.02928,0.06832,-0.0244,0.06832,0.12688,0.10248,0.08296,0.0976
0.10736,-0.10004,0.09272,0.03904,-0.01464,0.061,-0.02928,0.05368,0.11712,0.11224,0.08784,0.0976
0.07808,-0.08784,0.0976,0.05856,0.01952,0.02928,-0.02928,0.03416,0.10736,0.0976,0.08784,0.0976
0.06344,-0.07564,0.08784,0.05612,0.0244,0.01952,-0.02928,0.03416,0.10248,0.0976,0.08784,0.09272
0.0488,-0.05856,0.06832,0.04392,0.01952,0.01464,-0.0244,0.0244,0.0976,0.0976,0.08784,0.08296
0.04392,-0.0488,0.05368,0.03172,0.00976,0.01708,-0.01952,0.0244,0.09272,0.0976,0.07808,0.0732
0.05368,-0.05124,0.0488,0.02196,-0.00488,0.02928,-0.01464,0.0244,0.08784,0.08784,0.06832,0.06832
0.03416,-0.0366,0.03904,0.02196,0.00488,0.01464,-0.00488,0.01464,0.06832,0.0732,0.05856,0.05368
0.00488,-0.0122,0.01952,0.01708,0.01464,-0.00488,-0.00976,0.00488,0.0488,0.04392,0.04392,0.03416
0.00488,-0.00732,0.00976,0.00732,0.00488,0,-0.00488,0.01464,0.04392,0.0488,0.03904,0.03416
-0.00488,0.00244,0,0.00244,0.00488,-0.00488,0,0.01952,0.02928,0.0488,0.02928,0.03416
-0.00976,0.00732,-0.00488,0,0.00488,-0.00732,0.00976,0.01952,0.03416,0.04392,0.0244,0.02928
-0.0244,0.01708,-0.00976,0.00244,0.01464,-0.01952,0.01464,0.01952,0.0244,0.02928,0.01464,0.01464
-0.02928,0.01464,0,0.01464,0.02928,-0.02928,0.01464,0.01952,0.0244,0.02928,0.00976,0.00976
-0.03416,0.00976,0.01464,0.03172,0.0488,-0.04148,0.01464,0.01952,0.01952,0.0244,-0.00488,0.00488
-0.03416,0.01952,-0.00488,0.0122,0.02928,-0.03172,0.01952,0.01952,0.01464,0.0244,-0.00976,-0.00488
-0.03904,0.02928,-0.01952,0,0.01952,-0.02928,0.0244,0.01952,0.00488,0.01464,-0.01464,-0.01952
-0.0488,0.03416,-0.01952,0.00488,0.02928,-0.03904,0.02928,0.01952,0,0.00976,-0.01952,-0.01952
-0.05856,0.03904,-0.01952,0.00976,0.03904,-0.0488,0.02928,0.01952,0,0.00976,-0.01952,-0.01464
-0.05856,0.03904,-0.01952,0.00976,0.03904,-0.0488,0.03416,0.01952,0.00976,0.00976,-0.01464,-0.00976
-0.05856,0.0366,-0.01464,0.01464,0.04392,-0.05124,0.03416,0.01464,0.01464,0,-0.01952,-0.01464
-0.05856,0.04148,-0.0244,0.00488,0.03416,-0.04636,0.02928,0.01464,0.01464,0.00976,-0.01952,-0.01464
-0.05856,0.0366,-0.01464,0.01464,0.04392,-0.05124,0.02928,0.01464,0.00976,0.00488,-0.02928,-0.0244
-0.06832,0.05124,-0.03416,0,0.03416,-0.05124,0.0244,0.01464,0.00488,-0.00488,-0.03416,-0.02928
-0.06832,0.061,-0.05368,-0.01952,0.01464,-0.04148,0.0244,0.01952,0,-0.00976,-0.03416,-0.02928
-0.05856,0.05124,-0.04392,-0.01464,0.01464,-0.0366,0.0244,0.01952,0,-0.00976,-0.03416,-0.02928
-0.0488,0.04148,-0.03416,-0.00976,0.01464,-0.03172,0.0244,0.01952,0.00488,-0.00976,-0.02928,-0.0244
-0.05368,0.04392,-0.03416,-0.00732,0.01952,-0.0366,0.03416,0.02928,0.00488,-0.00976,-0.03416,-0.02928
-0.05368,0.04392,-0.03416,-0.00732,0.01952,-0.0366,0.03416,0.02928,0.00488,-0.01952,-0.03904,-0.03416
-0.06344,0.05124,-0.03904,-0.00732,0.0244,-0.04392,0.03416,0.0244,0.00488,-0.01952,-0.03904,-0.03416
-0.0732,0.05612,-0.03904,-0.00244,0.03416,-0.05368,0.03416,0.0244,0.00976,-0.01464,-0.03904,-0.03416
-0.05856,0.0488,-0.03904,-0.00976,0.01952,-0.03904,0.03416,0.02928,0,-0.02928,-0.04392,-0.03904
-0.0488,0.04148,-0.03416,-0.00976,0.01464,-0.03172,0.03416,0.02928,-0.00976,-0.04392,-0.0488,-0.04392
-0.0488,0.04148,-0.03416,-0.00976,0.01464,-0.03172,0.03416,0.02928,0,-0.03416,-0.0488,-0.04392
-0.05856,0.04636,-0.03416,-0.00488,0.0244,-0.04148,0.03416,0.02928,0.00976,-0.0244,-0.0488,-0.0488
-0.06344,0.04636,-0.02928,0.00244,0.03416,-0.0488,0.0244,0.02928,0.00976,-0.0244,-0.0488,-0.0488
-0.06344,0.04148,-0.01952,0.0122,0.04392,-0.05368,0.01464,0.02928,0.00488,-0.0244,-0.05368,-0.0488
-0.06344,0.05124,-0.03904,-0.00732,0.0244,-0.04392,0.02928,0.02928,0,-0.0244,-0.0488,-0.0488
-0.06832,0.06588,-0.06344,-0.02928,0.00488,-0.0366,0.04392,0.02928,0,-0.0244,-0.03904,-0.0488
-0.06832,0.05856,-0.0488,-0.01464,0.01952,-0.04392,0.04392,0.02928,0.00976,-0.01952,-0.03904,-0.0488
-0.06344,0.04392,-0.0244,0.00732,0.03904,-0.05124,0.04392,0.02928,0.00976,-0.01952,-0.03904,-0.0488
-0.05856,0.0366,-0.01464,0.01464,0.04392,-0.05124,0.04392,0.03416,0.00976,-0.01464,-0.04392,-0.0488
-0.06344,0.03904,-0.01464,0.01708,0.0488,-0.05612,0.04392,0.03416,0.00488,-0.01464,-0.0488,-0.0488
-0.06344,0.03904,-0.01464,0.01708,0.0488,-0.05612,0.04392,0.03416,0.00488,-0.01952,-0.0488,-0.05368
-0.06344,0.0366,-0.00976,0.02196,0.05368,-0.05856,0.03904,0.03904,0.00488,-0.0244,-0.0488,-0.05368
-0.0732,0.04636,-0.01952,0.01708,0.05368,-0.06344,0.03904,0.03904,0.00488,-0.0244,-0.0488,-0.0488
-0.07808,0.05124,-0.0244,0.01464,0.05368,-0.06588,0.03904,0.03904,0.00488,-0.0244,-0.0488,-0.0488
-0.07808,0.05124,-0.0244,0.01464,0.05368,-0.06588,0.03904,0.03904,0.00976,-0.01952,-0.0488,-0.0488
-0.07808,0.05368,-0.02928,0.00976,0.0488,-0.06344,0.03904,0.03904,0.00976,-0.01464,-0.0488,-0.0488
-0.07808,0.05368,-0.02928,0.00976,0.0488,-0.06344,0.03904,0.03904,0.00976,-0.01952,-0.0488,-0.05368
-0.0732,0.0488,-0.0244,0.0122,0.0488,-0.061,0.03904,0.03904,0.00976,-0.01952,-0.04392,-0.05856
-0.0732,0.0488,-0.0244,0.0122,0.0488,-0.061,0.03904,0.04392,0.00976,-0.01952,-0.04392,-0.05856
-0.07808,0.05368,-0.02928,0.00976,0.0488,-0.06344,0.03904,0.04392,0.01464,-0.01952,-0.0488,-0.05856
-0.06832,0.0488,-0.02928,0.00488,0.03904,-0.05368,0.03904,0.03904,0.01464,-0.01952,-0.0488,-0.05856
-0.06832,0.04636,-0.0244,0.00976,0.04392,-0.05612,0.03904,0.03416,0.00976,-0.0244,-0.0488,-0.05856
-0.06832,0.04148,-0.01464,0.01952,0.05368,-0.061,0.03416,0.03416,0.00976,-0.01952,-0.0488,-0.05368
-0.06832,0.03904,-0.00976,0.0244,0.05856,-0.06344,0.03416,0.02928,0.00976,-0.01464,-0.04392,-0.0488
-0.0732,0.04148,-0.00976,0.02684,0.06344,-0.06832,0.03416,0.02928,0.00976,-0.01464,-0.04392,-0.0488
-0.07808,0.04392,-0.00976,0.02928,0.06832,-0.0732,0.02928,0.02928,0.00976,-0.00976,-0.04392,-0.04392
-0.07808,0.04392,-0.00976,0.02928,0.06832,-0.0732,0.02928,0.0244,0.00488,-0.01464,-0.04392,-0.04392
-0.07808,0.04392,-0.00976,0.02928,0.06832,-0.0732,0.02928,0.01952,0,-0.01952,-0.04392,-0.04392
-0.0732,0.04148,-0.00976,0.02684,0.06344,-0.06832,0.02928,0.01952,0,-0.01952,-0.04392,-0.0488
-0.06344,0.04148,-0.01952,0.0122,0.04392,-0.05368,0.02928,0.01952,0,-0.01952,-0.04392,-0.05368
-0.06344,0.04636,-0.02928,0.00244,0.03416,-0.0488,0.02928,0.01952,0,-0.01952,-0.04392,-0.05368
-0.05856,0.0488,-0.03904,-0.00976,0.01952,-0.03904,0.02928,0.01952,0,-0.0244,-0.04392,-0.05368
-0.05856,0.04148,-0.0244,0.00488,0.03416,-0.04636,0.02928,0.01464,-0.00488,-0.02928,-0.05368,-0.05856
-0.05856,0.0366,-0.01464,0.01464,0.04392,-0.05124,0.02928,0.01464,-0.00488,-0.03904,-0.05856,-0.05856
-0.05856,0.03416,-0.00976,0.01952,0.0488,-0.05368,0.02928,0.01464,-0.00488,-0.03904,-0.05856,-0.05856
-0.05856,0.03172,-0.00488,0.0244,0.05368,-0.05612,0.02928,0.01464,-0.00488,-0.03416,-0.05856,-0.05856
-0.05856,0.03416,-0.00976,0.01952,0.0488,-0.05368,0.02928,0.01464,-0.00976,-0.03416,-0.05856,-0.05856
-0.05856,0.03416,-0.00976,0.01952,0.0488,-0.05368,0.0244,0.00976,-0.01464,-0.03904,-0.06344,-0.06344
-0.06344,0.03904,-0.01464,0.01708,0.0488,-0.05612,0.01952,0.00488,-0.01464,-0.03904,-0.06344,-0.06344
-0.06344,0.03904,-0.01464,0.01708,0.0488,-0.05612,0.01464,0.00488,-0.00976,-0.03904,-0.05856,-0.05856
-0.06344,0.0366,-0.00976,0.02196,0.05368,-0.05856,0.01464,0.00976,-0.00976,-0.03904,-0.05368,-0.05368
-0.06832,0.04392,-0.01952,0.01464,0.0488,-0.05856,0.01464,0.01464,-0.00976,-0.03904,-0.05368,-0.05368
-0.0732,0.04392,-0.01464,0.02196,0.05856,-0.06588,0.01952,0.01464,-0.00976,-0.03904,-0.0488,-0.0488
-0.06832,0.03416,0,0.03416,0.06832,-0.06832,0.0244,0.01952,-0.00488,-0.03416,-0.04392,-0.04392
-0.06832,0.02684,0.01464,0.0488,0.08296,-0.07564,0.0244,0.01952,0,-0.0244,-0.03904,-0.03904
-0.06832,0.01952,0.02928,0.06344,0.0976,-0.08296,0.02928,0.01952,0.00976,-0.01952,-0.03904,-0.03904
-0.05856,0.0122,0.03416,0.06344,0.09272,-0.07564,0.02928,0.02928,0.01952,-0.00976,-0.02928,-0.02928
-0.0488,0.00488,0.03904,0.06344,0.08784,-0.06832,0.02928,0.03904,0.02928,0,-0.01952,-0.01952
-0.04392,0.00244,0.03904,0.061,0.08296,-0.06344,0.02928,0.04392,0.03904,0.00976,-0.00976,-0.01464
-0.03904,-0.00244,0.04392,0.06344,0.08296,-0.061,0.02928,0.0488,0.04392,0.01464,0,-0.00976
-0.03904,-0.00488,0.0488,0.06832,0.08784,-0.06344,0.02928,0.05368,0.0488,0.01952,0.00488,-0.00976
-0.03904,-0.00488,0.0488,0.06832,0.08784,-0.06344,0.01952,0.04392,0.0488,0.01952,0.00488,-0.00976
-0.04392,-0.00244,0.0488,0.07076,0.09272,-0.06832,0.01464,0.03416,0.0488,0.01952,0,-0.00976
-0.0488,0,0.0488,0.0732,0.0976,-0.0732,0.01464,0.02928,0.04392,0.01952,0,-0.00976
-0.0488,-0.00732,0.06344,0.08784,0.11224,-0.08052,0.00488,0.00976,0.03416,0.01952,0,-0.00976
-0.05368,-0.00732,0.06832,0.09516,0.122,-0.08784,-0.00976,-0.00488,0.02928,0.01952,0,-0.01464
-0.03904,-0.00732,0.05368,0.0732,0.09272,-0.06588,-0.00976,-0.00976,0.0244,0.01952,-0.00488,-0.01464
-0.0244,-0.01464,0.05368,0.06588,0.07808,-0.05124,-0.01952,-0.01464,0.0244,0.01464,-0.00976,-0.01464
-0.03904,-0.00488,0.0488,0.06832,0.08784,-0.06344,-0.01952,-0.01464,0.01952,0.01464,-0.00976,-0.00976
-0.03904,-0.00244,0.04392,0.06344,0.08296,-0.061,-0.0244,-0.01464,0.00976,0.00976,-0.00976,-0.00488
-0.01952,-0.00976,0.03904,0.0488,0.05856,-0.03904,-0.02928,-0.01952,0.00488,0,-0.0244,-0.01464
0,-0.00976,0.01952,0.01952,0.01952,-0.00976,-0.02928,-0.02928,-0.01952,-0.0244,-0.04392,-0.02928
-0.01952,0.00244,0.01464,0.0244,0.03416,-0.02684,-0.02928,-0.02928,-0.0244,-0.02928,-0.04392,-0.03416
-0.03416,0.00976,0.01464,0.03172,0.0488,-0.04148,-0.01952,-0.02928,-0.03416,-0.03416,-0.04392,-0.03904
-0.03904,0.0122,0.01464,0.03416,0.05368,-0.04636,-0.01464,-0.02928,-0.03416,-0.03416,-0.04392,-0.03904
-0.04392,0.01464,0.01464,0.0366,0.05856,-0.05124,-0.01464,-0.02928,-0.03416,-0.03904,-0.04392,-0.03904
-0.04392,0.01464,0.01464,0.0366,0.05856,-0.05124,-0.01952,-0.02928,-0.03416,-0.03904,-0.0488,-0.03904
-0.04392,0.0122,0.01952,0.04148,0.06344,-0.05368,-0.01952,-0.0244,-0.02928,-0.03416,-0.0488,-0.03904
-0.0244,0.00244,0.01952,0.03172,0.04392,-0.03416,-0.01952,-0.0244,-0.0244,-0.02928,-0.0488,-0.03904
-0.01464,0.00488,0.00488,0.0122,0.01952,-0.01708,-0.00976,-0.01464,-0.0244,-0.02928,-0.0488,-0.03904
-0.03904,0.0244,-0.00976,0.00976,0.02928,-0.03416,0,-0.00976,-0.01952,-0.02928,-0.05368,-0.05368
-0.05368,0.03416,-0.01464,0.0122,0.03904,-0.04636,0.00488,-0.00488,-0.01952,-0.03416,-0.06344,-0.05856
-0.06344,0.04148,-0.01952,0.0122,0.04392,-0.05368,0.00976,-0.00488,-0.0244,-0.04392,-0.06832,-0.06344
-0.06344,0.04148,-0.01952,0.0122,0.04392,-0.05368,0.00976,-0.00976,-0.03416,-0.0488,-0.07808,-0.06832
-0.0732,0.0488,-0.0244,0.0122,0.0488,-0.061,0.01464,-0.00976,-0.03416,-0.05368,-0.07808,-0.06832
-0.0976,0.06588,-0.03416,0.01464,0.06344,-0.08052,0.01464,-0.00488,-0.02928,-0.05368,-0.07808,-0.06832
-0.08784,0.061,-0.03416,0.00976,0.05368,-0.07076,0.01464,-0.00488,-0.02928,-0.05368,-0.06832,-0.06832
-0.08784,0.05856,-0.02928,0.01464,0.05856,-0.0732,0.01464,-0.00488,-0.02928,-0.05368,-0.06344,-0.06832
-0.08784,0.05856,-0.02928,0.01464,0.05856,-0.0732,0.01464,-0.00976,-0.03904,-0.05856,-0.06832,-0.06832
-0.08296,0.05612,-0.02928,0.0122,0.05368,-0.06832,0.01464,-0.01464,-0.04392,-0.06832,-0.0732,-0.0732
-0.08296,0.05368,-0.0244,0.01708,0.05856,-0.07076,0.01464,-0.01464,-0.04392,-0.06832,-0.0732,-0.0732
-0.08784,0.05856,-0.02928,0.01464,0.05856,-0.0732,0.01464,-0.01464,-0.04392,-0.06832,-0.0732,-0.0732
-0.08784,0.05856,-0.02928,0.01464,0.05856,-0.0732,0.01464,-0.01464,-0.04392,-0.06832,-0.06832,-0.0732
-0.08784,0.05612,-0.0244,0.01952,0.06344,-0.07564,0.01464,-0.01464,-0.03904,-0.06832,-0.06832,-0.0732
-0.08784,0.05856,-0.02928,0.01464,0.05856,-0.0732,0.01464,-0.01464,-0.03416,-0.06832,-0.06344,-0.06832
-0.08784,0.06344,-0.03904,0.00488,0.0488,-0.06832,0.01464,-0.01464,-0.03416,-0.06344,-0.05856,-0.06344
-0.08784,0.06344,-0.03904,0.00488,0.0488,-0.06832,0.01464,-0.01464,-0.03416,-0.05856,-0.05856,-0.06344
-0.08784,0.061,-0.03416,0.00976,0.05368,-0.07076,0.01952,-0.01464,-0.02928,-0.05856,-0.05856,-0.06344
-0.08784,0.061,-0.03416,0.00976,0.05368,-0.07076,0.03416,-0.00488,-0.0244,-0.05856,-0.06832,-0.06832
-0.11712,0.07564,-0.03416,0.0244,0.08296,-0.10004,0.05856,0.0244,0,-0.0488,-0.0732,-0.08296
-0.1464,0.08784,-0.02928,0.04392,0.11712,-0.13176,0.0732,0.0488,0.01464,-0.05856,-0.0976,-0.10736
-0.16104,0.09272,-0.0244,0.05612,0.13664,-0.14884,0.0732,0.05856,0.0244,-0.0488,-0.0976,-0.11224
-0.16104,0.07808,0.00488,0.0854,0.16592,-0.16348,0.07808,0.05856,0.04392,0.00488,-0.04392,-0.06344
-0.13176,0.05368,0.0244,0.09028,0.15616,-0.14396,0.06832,0.06832,0.08296,0.06832,0.02928,0.00488
-0.07808,0.01708,0.04392,0.08296,0.122,-0.10004,0.05856,0.11224,0.16104,0.16104,0.12688,0.07808
0.0244,-0.05612,0.08784,0.07564,0.06344,-0.01952,0.00488,0.13664,0.22448,0.25864,0.24888,0.19032
0.16592,-0.14884,0.13176,0.0488,-0.03416,0.10004,-0.07808,0.122,0.2684,0.36112,0.40504,0.33672
0.32208,-0.25376,0.18544,0.0244,-0.13664,0.22936,-0.18544,0.02928,0.25864,0.44896,0.55632,0.48312
0.55144,-0.41968,0.28792,0.0122,-0.26352,0.40748,-0.36112,-0.17568,0.20008,0.55632,0.77104,0.69784
0.74176,-0.57096,0.40016,0.02928,-0.3416,0.54168,-0.5124,-0.366,0.1708,0.67832,0.96624,0.88816
0.88328,-0.66124,0.4392,-0.00244,-0.44408,0.66368,-0.61488,-0.50264,0.06832,0.64904,1.00528,0.97112
0.93208,-0.66124,0.3904,-0.07564,-0.54168,0.73688,-0.63928,-0.54168,-0.05368,0.488,0.854,0.86376
0.83448,-0.56364,0.2928,-0.12444,-0.54168,0.68808,-0.57584,-0.51728,-0.15616,0.30744,0.63928,0.67344
0.64904,-0.40992,0.1708,-0.15372,-0.47824,0.56364,-0.488,-0.48312,-0.2928,0.08296,0.3904,0.45384
0.37088,-0.1952,0.01952,-0.16592,-0.35136,0.36112,-0.36112,-0.5124,-0.52704,-0.21472,0.0244,0.15128
0.16104,-0.0366,-0.08784,-0.16836,-0.24888,0.20496,-0.25864,-0.53192,-0.7076,-0.46848,-0.2684,-0.10248
0.0732,0.05856,-0.19032,-0.22692,-0.26352,0.16836,-0.18544,-0.47336,-0.77104,-0.63928,-0.48312,-0.28304
0.02928,0.10004,-0.22936,-0.244,-0.25864,0.14396,-0.14152,-0.41968,-0.72224,-0.63928,-0.52216,-0.33184
-0.02928,0.11956,-0.20984,-0.1952,-0.18056,0.07564,-0.11224,-0.36112,-0.59536,-0.5368,-0.44408,-0.29768
-0.05856,0.11956,-0.18056,-0.15128,-0.122,0.03172,-0.08296,-0.2684,-0.44896,-0.42944,-0.366,-0.25864
-0.08296,0.10736,-0.13176,-0.09028,-0.0488,-0.01708,-0.04392,-0.16104,-0.28792,-0.27816,-0.24888,-0.19032
-0.08784,0.0976,-0.10736,-0.06344,-0.01952,-0.03416,-0.03416,-0.0976,-0.17568,-0.18544,-0.18056,-0.1464
-0.10248,0.09516,-0.08784,-0.0366,0.01464,-0.05856,-0.01464,-0.06344,-0.12688,-0.15128,-0.15128,-0.12688
-0.11712,0.09272,-0.06832,-0.00976,0.0488,-0.08296,0,-0.03904,-0.08784,-0.122,-0.12688,-0.10736
-0.0976,0.06832,-0.03904,0.00976,0.05856,-0.07808,0.00976,-0.01952,-0.05856,-0.09272,-0.0976,-0.08784
-0.07808,0.04392,-0.00976,0.02928,0.06832,-0.0732,0.01464,-0.00488,-0.02928,-0.07808,-0.08784,-0.07808
-0.07808,0.04636,-0.01464,0.0244,0.06344,-0.07076,0.0244,0.00488,-0.01952,-0.06832,-0.07808,-0.0732
-0.07808,0.05124,-0.0244,0.01464,0.05368,-0.06588,0.02928,0.00488,-0.01952,-0.06344,-0.0732,-0.0732
-0.07808,0.0488,-0.01952,0.01952,0.05856,-0.06832,0.02928,0.00976,-0.0244,-0.06344,-0.0732,-0.0732
-0.07808,0.0488,-0.01952,0.01952,0.05856,-0.06832,0.02928,0.00976,-0.0244,-0.06344,-0.0732,-0.06832
-0.08784,0.05368,-0.01952,0.0244,0.06832,-0.07808,0.02928,0.00976,-0.01952,-0.05856,-0.06832,-0.06832
-0.09272,0.05856,-0.0244,0.02196,0.06832,-0.08052,0.02928,0.01464,-0.01952,-0.05856,-0.06832,-0.06832
-0.09272,0.05856,-0.0244,0.02196,0.06832,-0.08052,0.02928,0.01952,-0.00976,-0.05856,-0.06832,-0.06344
-0.08784,0.05612,-0.0244,0.01952,0.06344,-0.07564,0.02928,0.01952,-0.00488,-0.06344,-0.0732,-0.05856
-0.08784,0.05612,-0.0244,0.01952,0.06344,-0.07564,0.03416,0.01952,0,-0.05856,-0.06832,-0.05856
-0.08784,0.05612,-0.0244,0.01952,0.06344,-0.07564,0.03904,0.01952,0,-0.05368,-0.06344,-0.05856
-0.08296,0.05124,-0.01952,0.02196,0.06344,-0.0732,0.03904,0.0244,-0.00488,-0.05368,-0.05856,-0.06344
-0.0732,0.04392,-0.01464,0.02196,0.05856,-0.06588,0.03904,0.0244,-0.00488,-0.05368,-0.05856,-0.06832
-0.0732,0.04392,-0.01464,0.02196,0.05856,-0.06588,0.03416,0.0244,-0.00488,-0.05856,-0.06344,-0.06832
-0.07808,0.04636,-0.01464,0.0244,0.06344,-0.07076,0.02928,0.0244,-0.00488,-0.05856,-0.06344,-0.06832
-0.08784,0.05368,-0.01952,0.0244,0.06832,-0.07808,0.02928,0.0244,-0.00488,-0.05368,-0.06344,-0.06832
-0.09272,0.05856,-0.0244,0.02196,0.06832,-0.08052,0.02928,0.0244,-0.00976,-0.05368,-0.06344,-0.06832
-0.09272,0.05856,-0.0244,0.02196,0.06832,-0.08052,0.02928,0.0244,-0.00976,-0.0488,-0.05856,-0.05856
-0.09272,0.05856,-0.0244,0.02196,0.06832,-0.08052,0.02928,0.02928,-0.00488,-0.04392,-0.05368,-0.05368
-0.08784,0.05856,-0.02928,0.01464,0.05856,-0.0732,0.02928,0.02928,0,-0.04392,-0.05368,-0.05368
-0.08784,0.061,-0.03416,0.00976,0.05368,-0.07076,0.02928,0.02928,0,-0.04392,-0.05368,-0.05368
-0.08784,0.061,-0.03416,0.00976,0.05368,-0.07076,0.02928,0.03416,0,-0.03904,-0.05368,-0.05368
-0.08784,0.061,-0.03416,0.00976,0.05368,-0.07076,0.02928,0.03416,0,-0.03904,-0.05856,-0.05368
-0.08784,0.061,-0.03416,0.00976,0.05368,-0.07076,0.03416,0.03416,0,-0.0488,-0.05856,-0.05368
-0.08784,0.061,-0.03416,0.00976,0.05368,-0.07076,0.03904,0.03904,0.00488,-0.05368,-0.05856,-0.05368
-0.07808,0.05612,-0.03416,0.00488,0.04392,-0.061,0.03904,0.04392,0.00976,-0.0488,-0.05856,-0.05368
-0.06344,0.04636,-0.02928,0.00244,0.03416,-0.0488,0.03904,0.0488,0.01952,-0.0488,-0.05368,-0.05368
-0.06344,0.04636,-0.02928,0.00244,0.03416,-0.0488,0.03904,0.05368,0.01952,-0.05368,-0.05368,-0.05856
-0.06344,0.04636,-0.02928,0.00244,0.03416,-0.0488,0.03904,0.05856,0.02928,-0.05368,-0.05368,-0.06344
-0.0732,0.05124,-0.02928,0.00732,0.04392,-0.05856,0.03416,0.05856,0.02928,-0.0488,-0.05368,-0.06344
-0.07808,0.05368,-0.02928,0.00976,0.0488,-0.06344,0.02928,0.05856,0.03416,-0.0488,-0.05368,-0.05856
-0.06832,0.04636,-0.0244,0.00976,0.04392,-0.05612,0.02928,0.06832,0.04392,-0.04392,-0.0488,-0.05368
-0.06832,0.04148,-0.01464,0.01952,0.05368,-0.061,0.02928,0.06832,0.04392,-0.04392,-0.0488,-0.0488
-0.05368,0.03172,-0.00976,0.01708,0.04392,-0.0488,0.02928,0.0732,0.04392,-0.03416,-0.04392,-0.0488
-0.0488,0.02684,-0.00488,0.01952,0.04392,-0.04636,0.02928,0.0732,0.0488,-0.0244,-0.04392,-0.0488
-0.0488,0.02684,-0.00488,0.01952,0.04392,-0.04636,0.02928,0.0732,0.0488,-0.0244,-0.04392,-0.0488
-0.03904,0.01952,0,0.01952,0.03904,-0.03904,0.03416,0.08784,0.05856,-0.0244,-0.04392,-0.0488
-0.0488,0.02928,-0.00976,0.01464,0.03904,-0.04392,0.03416,0.0976,0.0732,-0.02928,-0.0488,-0.04392
-0.05368,0.0366,-0.01952,0.00732,0.03416,-0.04392,0.03416,0.0976,0.0732,-0.03904,-0.05368,-0.03904
-0.04392,0.02928,-0.01464,0.00732,0.02928,-0.0366,0.02928,0.0976,0.08296,-0.0244,-0.04392,-0.03416
-0.03416,0.02196,-0.00976,0.00732,0.0244,-0.02928,0.02928,0.10248,0.07808,-0.01464,-0.03416,-0.02928
-0.01464,0.00488,0.00488,0.0122,0.01952,-0.01708,0.02928,0.10736,0.08784,-0.01464,-0.0244,-0.02928
-0.01464,0.00488,0.00488,0.0122,0.01952,-0.01708,0.0244,0.11224,0.08784,-0.00976,-0.0244,-0.03416
-0.00976,0.00244,0.00488,0.00976,0.01464,-0.0122,0.01464,0.11712,0.0976,-0.00976,-0.0244,-0.0244
0.00488,-0.0122,0.01952,0.01708,0.01464,-0.00488,0.00976,0.11712,0.10736,-0.00488,-0.01952,-0.01952
0.0244,-0.02684,0.02928,0.01708,0.00488,0.00976,0.00976,0.11224,0.11224,0,-0.00488,-0.00976
0.03904,-0.03904,0.03904,0.01952,0,0.01952,0,0.11224,0.11224,0.00488,0.01464,-0.00488
0.03904,-0.04392,0.0488,0.02928,0.00976,0.01464,-0.00488,0.10736,0.11224,0.01464,0.01952,0.00488
0.05368,-0.061,0.06832,0.04148,0.01464,0.01952,-0.01464,0.10736,0.11712,0.0244,0.0244,0.01464
0.05856,-0.06344,0.06832,0.03904,0.00976,0.0244,-0.01952,0.0976,0.11712,0.04392,0.02928,0.0244
0.0732,-0.0732,0.0732,0.0366,0,0.0366,-0.02928,0.08784,0.11712,0.0488,0.03904,0.03416
0.07808,-0.08052,0.08296,0.04392,0.00488,0.0366,-0.03904,0.07808,0.11712,0.05368,0.0488,0.0488
0.08784,-0.09028,0.09272,0.0488,0.00488,0.04148,-0.0488,0.06832,0.11712,0.05368,0.05368,0.05856
0.0976,-0.09516,0.09272,0.04392,-0.00488,0.05124,-0.0488,0.06344,0.11712,0.06344,0.06344,0.06832
0.08784,-0.08784,0.08784,0.04392,0,0.04392,-0.05368,0.0488,0.10736,0.06344,0.0732,0.07808
0.0976,-0.09272,0.08784,0.03904,-0.00976,0.05368,-0.05856,0.03904,0.0976,0.0732,0.0732,0.07808
0.07808,-0.07808,0.07808,0.03904,0,0.03904,-0.05856,0.0244,0.08784,0.05856,0.06832,0.07808
0.0732,-0.08052,0.08784,0.05124,0.01464,0.02928,-0.05856,0.0244,0.08784,0.05856,0.07808,0.08296
