i,aVR,ii,aVF,iii,aVL,V1,V2,V3,V4,V5,V6
-0.0976,0.11468,-0.13176,-0.08296,-0.03416,-0.03172,-0.01952,-0.50752,-0.20008,-0.00976,-2.4644,0.01464
-0.09272,0.11468,-0.13664,-0.09028,-0.04392,-0.0244,-0.01952,-0.50752,-0.20496,-0.01464,-2.46928,0.01464
-0.09272,0.11468,-0.13664,-0.09028,-0.04392,-0.0244,-0.01952,-0.50752,-0.20496,-0.01464,-2.46928,0.01464
-0.09272,0.11468,-0.13664,-0.09028,-0.04392,-0.0244,-0.01952,-0.5124,-0.20008,-0.01464,-2.47416,0.01464
-0.09272,0.11468,-0.13664,-0.09028,-0.04392,-0.0244,-0.01952,-0.5124,-0.1952,-0.01464,-2.47904,0.01464
-0.09272,0.11224,-0.13176,-0.0854,-0.03904,-0.02684,-0.01952,-0.52216,-0.1952,-0.01464,-2.47416,0.00976
-0.0976,0.11468,-0.13176,-0.08296,-0.03416,-0.03172,-0.01952,-0.52704,-0.1952,-0.01464,-2.47416,0.00976
-0.0976,0.11224,-0.12688,-0.07808,-0.02928,-0.03416,-0.01464,-0.52704,-0.1952,-0.01464,-2.47904,0.00976
-0.09272,0.10736,-0.122,-0.07564,-0.02928,-0.03172,-0.00976,-0.52704,-0.19032,-0.01464,-2.47904,0.00976
-0.0976,0.1098,-0.122,-0.0732,-0.0244,-0.0366,-0.00976,-0.51728,-0.18544,-0.01464,-2.47904,0.00976
-0.0976,0.1098,-0.122,-0.0732,-0.0244,-0.0366,-0.00488,-0.5124,-0.18056,-0.00976,-2.47904,0.00976
-0.0976,0.1098,-0.122,-0.0732,-0.0244,-0.0366,-0.00488,-0.5124,-0.17568,-0.00976,-2.47904,0.00488
-0.0976,0.1098,-0.122,-0.0732,-0.0244,-0.0366,-0.00488,-0.5124,-0.1708,-0.00976,-2.48392,0
-0.0976,0.10736,-0.11712,-0.06832,-0.01952,-0.03904,-0.00488,-0.51728,-0.1708,-0.00976,-2.4888,0
-0.0976,0.10492,-0.11224,-0.06344,-0.01464,-0.04148,-0.00488,-0.52216,-0.16592,-0.00976,-2.49368,0
-0.09272,0.10248,-0.11224,-0.06588,-0.01952,-0.0366,-0.00488,-0.51728,-0.16592,-0.00976,-2.49856,0
-0.09272,0.10004,-0.10736,-0.061,-0.01464,-0.03904,-0.00488,-0.51728,-0.16592,-0.00976,-2.49856,0
-0.08784,0.0976,-0.10736,-0.06344,-0.01952,-0.03416,-0.00488,-0.5124,-0.16104,-0.01464,-2.49856,0
-0.07808,0.09028,-0.10248,-0.06344,-0.0244,-0.02684,-0.00488,-0.5124,-0.15616,-0.01464,-2.49856,-0.00488
-0.07808,0.09028,-0.10248,-0.06344,-0.0244,-0.02684,-0.00488,-0.5124,-0.15128,-0.00976,-2.49856,-0.00488
-0.07808,0.08784,-0.0976,-0.05856,-0.01952,-0.02928,-0.00488,-0.5124,-0.1464,-0.00976,-2.49856,-0.00488
-0.07808,0.08784,-0.0976,-0.05856,-0.01952,-0.02928,-0.00488,-0.5124,-0.1464,-0.00488,-2.49856,0
-0.06832,0.07808,-0.08784,-0.05368,-0.01952,-0.0244,-0.00488,-0.5124,-0.1464,-0.00488,-2.49368,0
-0.05856,0.07076,-0.08296,-0.05368,-0.0244,-0.01708,-0.00976,-0.50752,-0.1464,0,-2.49856,0.00488
-0.05368,0.06588,-0.07808,-0.05124,-0.0244,-0.01464,-0.00976,-0.50752,-0.14152,0,-2.50344,0.00488
-0.0488,0.061,-0.0732,-0.0488,-0.0244,-0.0122,-0.01464,-0.5124,-0.14152,0.00488,-2.49856,0.00488
-0.04392,0.05612,-0.06832,-0.04636,-0.0244,-0.00976,-0.01952,-0.51728,-0.14152,0.00488,-2.49856,0
-0.03904,0.05368,-0.06832,-0.0488,-0.02928,-0.00488,-0.0244,-0.5124,-0.13664,0.00488,-2.49856,0.00488
-0.03904,0.05368,-0.06832,-0.0488,-0.02928,-0.00488,-0.0244,-0.5124,-0.13176,0.00488,-2.49856,0.00488
-0.02928,0.04636,-0.06344,-0.0488,-0.03416,0.00244,-0.0244,-0.5124,-0.13176,0,-2.50344,0.00488
-0.0244,0.04392,-0.06344,-0.05124,-0.03904,0.00732,-0.0244,-0.5124,-0.13176,0,-2.50832,0.00488
-0.01464,0.0366,-0.05856,-0.05124,-0.04392,0.01464,-0.0244,-0.5124,-0.13176,0,-2.50832,0.00488
-0.00488,0.03172,-0.05856,-0.05612,-0.05368,0.0244,-0.0244,-0.5124,-0.12688,0.00488,-2.50832,0.00488
0,0.02928,-0.05856,-0.05856,-0.05856,0.02928,-0.01952,-0.50752,-0.13176,0,-2.5132,0
0,0.02928,-0.05856,-0.05856,-0.05856,0.02928,-0.01952,-0.50752,-0.13664,-0.00976,-2.51808,0
0,0.02928,-0.05856,-0.05856,-0.05856,0.02928,-0.01952,-0.50752,-0.13664,-0.00976,-2.52784,0
0,0.02928,-0.05856,-0.05856,-0.05856,0.02928,-0.01952,-0.50752,-0.13664,-0.00976,-2.5376,0
0.00488,0.02684,-0.05856,-0.061,-0.06344,0.03416,-0.01952,-0.5124,-0.13664,-0.01464,-2.54248,0
0.00976,0.0244,-0.05856,-0.06344,-0.06832,0.03904,-0.01952,-0.5124,-0.13176,-0.01464,-2.54248,0
0.01464,0.02196,-0.05856,-0.06588,-0.0732,0.04392,-0.01952,-0.51728,-0.13176,-0.01952,-2.54736,0
0.01952,0.01952,-0.05856,-0.06832,-0.07808,0.0488,-0.01952,-0.51728,-0.13176,-0.01952,-2.54736,-0.00488
0.0244,0.0122,-0.0488,-0.061,-0.0732,0.0488,-0.01952,-0.5124,-0.12688,-0.01952,-2.55224,-0.00488
0.02928,0.00488,-0.03904,-0.05368,-0.06832,0.0488,-0.01464,-0.50752,-0.122,-0.01952,-2.55712,-0.00488
0.03416,0,-0.03416,-0.05124,-0.06832,0.05124,-0.01464,-0.50752,-0.11712,-0.01952,-2.55712,-0.00976
0.03416,0,-0.03416,-0.05124,-0.06832,0.05124,-0.01464,-0.50752,-0.11712,-0.01952,-2.55712,-0.00976
0.0488,-0.01464,-0.01952,-0.04392,-0.06832,0.05856,-0.00488,-0.49776,-0.10248,-0.00976,-2.55712,-0.00976
0.05856,-0.02928,0,-0.02928,-0.05856,0.05856,0,-0.49288,-0.09272,-0.00488,-2.55712,-0.00488
0.06832,-0.04148,0.01464,-0.01952,-0.05368,0.061,0.00488,-0.47824,-0.07808,0,-2.55224,0.00488
0.07808,-0.05368,0.02928,-0.00976,-0.0488,0.06344,0.01952,-0.4636,-0.06832,0.00976,-2.55224,0.00976
0.09272,-0.06588,0.03904,-0.00732,-0.05368,0.0732,0.01952,-0.45384,-0.06832,0.01464,-2.55224,0.00976
0.10248,-0.07076,0.03904,-0.0122,-0.06344,0.08296,0.00976,-0.45384,-0.06832,0.01464,-2.55224,0.00488
0.11712,-0.08052,0.04392,-0.01464,-0.0732,0.09516,-0.00976,-0.45384,-0.05856,0.01464,-2.55224,0.01464
0.13176,-0.09272,0.05368,-0.0122,-0.07808,0.10492,-0.02928,-0.45872,-0.05368,0.01952,-2.55224,0.01952
0.13176,-0.10004,0.06832,0.00244,-0.06344,0.0976,-0.04392,-0.48312,-0.05368,0.0244,-2.54736,0.0244
0.13176,-0.1098,0.08784,0.02196,-0.04392,0.08784,-0.0488,-0.50752,-0.05368,0.02928,-2.54248,0.03416
0.12688,-0.10736,0.08784,0.0244,-0.03904,0.08296,-0.05368,-0.52216,-0.05368,0.0244,-2.54736,0.03416
0.11712,-0.10248,0.08784,0.02928,-0.02928,0.0732,-0.05368,-0.54168,-0.06344,0.00976,-2.55712,0.02928
0.10736,-0.09028,0.0732,0.01952,-0.03416,0.07076,-0.0488,-0.54168,-0.0732,0.00488,-2.56688,0.01952
0.10248,-0.0732,0.04392,-0.00732,-0.05856,0.08052,-0.04392,-0.54168,-0.07808,-0.01464,-2.58152,0.01464
0.10248,-0.06344,0.0244,-0.02684,-0.07808,0.09028,-0.04392,-0.5368,-0.08784,-0.01952,-2.59128,0.00976
0.10248,-0.05856,0.01464,-0.0366,-0.08784,0.09516,-0.03416,-0.53192,-0.08784,-0.0244,-2.60104,0.00976
0.10248,-0.05124,0,-0.05124,-0.10248,0.10248,-0.02928,-0.52216,-0.09272,-0.0244,-2.6108,0.00488
0.10248,-0.04148,-0.01952,-0.07076,-0.122,0.11224,-0.0244,-0.52216,-0.0976,-0.03416,-2.62544,-0.00976
0.08296,-0.02196,-0.03904,-0.08052,-0.122,0.10248,-0.01952,-0.52216,-0.0976,-0.03904,-2.63032,-0.01952
0.0732,-0.0122,-0.0488,-0.0854,-0.122,0.0976,-0.01464,-0.52216,-0.10248,-0.0488,-2.64008,-0.0244
0.06344,-0.00732,-0.0488,-0.08052,-0.11224,0.08784,-0.00976,-0.52216,-0.10736,-0.0488,-2.65472,-0.03416
0.05368,0.00488,-0.06344,-0.09028,-0.11712,0.0854,-0.00488,-0.52216,-0.10736,-0.06344,-2.6596,-0.03904
0.05368,0.00488,-0.06344,-0.09028,-0.11712,0.0854,-0.00488,-0.52704,-0.10736,-0.06344,-2.67424,-0.03904
0.0488,0.00976,-0.06832,-0.09272,-0.11712,0.08296,-0.00488,-0.52704,-0.10736,-0.06832,-2.67424,-0.04392
0.0488,0.0122,-0.0732,-0.0976,-0.122,0.0854,0,-0.52704,-0.10248,-0.06832,-2.67424,-0.04392
0.05368,0.00976,-0.0732,-0.10004,-0.12688,0.09028,0,-0.52704,-0.10248,-0.06832,-2.67424,-0.04392
0.05368,0.00976,-0.0732,-0.10004,-0.12688,0.09028,0,-0.53192,-0.10248,-0.06832,-2.67912,-0.04392
0.05368,0.00976,-0.0732,-0.10004,-0.12688,0.09028,0,-0.5368,-0.10248,-0.06832,-2.67912,-0.04392
0.05368,0.00976,-0.0732,-0.10004,-0.12688,0.09028,0,-0.5368,-0.0976,-0.06832,-2.684,-0.04392
0.05368,0.00732,-0.06832,-0.09516,-0.122,0.08784,0,-0.5368,-0.09272,-0.06832,-2.68888,-0.04392
0.05368,0.00732,-0.06832,-0.09516,-0.122,0.08784,0,-0.53192,-0.08784,-0.06832,-2.68888,-0.03904
0.05368,0.00732,-0.06832,-0.09516,-0.122,0.08784,0.00488,-0.53192,-0.08784,-0.06832,-2.68888,-0.03904
0.05368,0.00732,-0.06832,-0.09516,-0.122,0.08784,0.00488,-0.52704,-0.08784,-0.06832,-2.69376,-0.04392
0.06832,0,-0.06832,-0.10248,-0.13664,0.10248,0.00488,-0.51728,-0.08784,-0.06832,-2.70352,-0.0488
0.08784,0.00732,-0.10248,-0.1464,-0.19032,0.13908,0.02928,-0.45872,-0.0976,-0.08296,-2.73768,-0.06832
0.122,0.03172,-0.18544,-0.24644,-0.30744,0.21472,0.11224,-0.27328,-0.08784,-0.11224,-2.79624,-0.13176
0.16104,0.03904,-0.23912,-0.31964,-0.40016,0.2806,0.2196,-0.08296,-0.05368,-0.122,-2.83528,-0.17568
0.19032,-0.02928,-0.13176,-0.22692,-0.32208,0.2562,0.22448,-0.08296,0.05856,-0.04392,-2.7816,-0.13176
0.2684,-0.16592,0.06344,-0.07076,-0.20496,0.23668,0.17568,-0.16104,0.1952,0.13176,-2.6108,-0.00976
0.38552,-0.40992,0.43432,0.24156,0.0488,0.16836,0.0488,-0.29768,0.35136,0.42944,-2.33264,0.23912
0.54168,-0.68808,0.83448,0.56364,0.2928,0.12444,-0.20496,-0.60024,0.45872,0.73688,-2.00568,0.54656
0.6588,-0.95404,1.24928,0.91988,0.59048,0.03416,-0.48312,-0.98576,0.57096,1.08336,-1.62992,0.88816
0.72712,-1.2078,1.68848,1.32492,0.96136,-0.11712,-0.72712,-1.28832,0.7076,1.44448,-1.2444,1.22976
0.68808,-1.342,1.99592,1.65188,1.30784,-0.30988,-0.86864,-1.46888,0.80032,1.71288,-0.976,1.48352
0.47336,-1.23952,2.00568,1.769,1.53232,-0.52948,-0.9028,-1.59088,0.77104,1.6592,-0.9516,1.49328
0.20984,-0.94428,1.67872,1.5738,1.46888,-0.62952,-0.85888,-1.61528,0.66856,1.2932,-1.28832,1.26392
-0.06344,-0.58072,1.22488,1.2566,1.28832,-0.67588,-0.71248,-1.63968,0.37088,0.72712,-1.81048,0.89792
-0.18056,-0.32208,0.82472,0.915,1.00528,-0.59292,-0.5612,-1.57624,0.03904,0.2684,-2.20576,0.59048
-0.16592,-0.19764,0.5612,0.64416,0.72712,-0.44652,-0.45384,-1.40544,-0.0976,0.08296,-2.40584,0.38552
-0.15616,-0.14396,0.44408,0.52216,0.60024,-0.3782,-0.366,-1.1956,-0.0976,0.03416,-2.5132,0.24888
-0.11712,-0.08296,0.28304,0.3416,0.40016,-0.25864,-0.2196,-0.92232,-0.08784,-0.01952,-2.60104,0.1464
-0.01464,-0.07808,0.1708,0.17812,0.18544,-0.10004,-0.10736,-0.73688,-0.07808,-0.02928,-2.65472,0.06832
0.04392,-0.06588,0.08784,0.06588,0.04392,0,-0.0488,-0.6344,-0.0732,-0.04392,-2.684,0.0244
0.0488,-0.02928,0.00976,-0.01464,-0.03904,0.04392,-0.0244,-0.53192,-0.06832,-0.05368,-2.71816,-0.01464
0.05856,-0.01952,-0.01952,-0.0488,-0.07808,0.06832,0,-0.4636,-0.06832,-0.06832,-2.7328,-0.01952
0.07808,-0.02684,-0.0244,-0.06344,-0.10248,0.09028,0.0244,-0.45872,-0.06344,-0.0732,-2.73768,-0.04392
0.09272,-0.02928,-0.03416,-0.08052,-0.12688,0.1098,0.03416,-0.45384,-0.05368,-0.0732,-2.73768,-0.04392
0.0976,-0.03172,-0.03416,-0.08296,-0.13176,0.11468,0.02928,-0.4392,-0.05368,-0.06832,-2.74256,-0.04392
0.10248,-0.03416,-0.03416,-0.0854,-0.13664,0.11956,0.02928,-0.42456,-0.05368,-0.06832,-2.74256,-0.0488
0.11224,-0.0366,-0.03904,-0.09516,-0.15128,0.13176,0.02928,-0.42456,-0.05368,-0.06832,-2.74256,-0.0488
0.11224,-0.0366,-0.03904,-0.09516,-0.15128,0.13176,0.03416,-0.41968,-0.05368,-0.06344,-2.74256,-0.0488
0.11224,-0.03904,-0.03416,-0.09028,-0.1464,0.12932,0.03904,-0.4148,-0.05368,-0.05856,-2.74256,-0.0488
0.11224,-0.03904,-0.03416,-0.09028,-0.1464,0.12932,0.03904,-0.4148,-0.0488,-0.05856,-2.74744,-0.0488
0.11712,-0.04148,-0.03416,-0.09272,-0.15128,0.1342,0.03904,-0.4148,-0.04392,-0.05856,-2.74744,-0.04392
0.11712,-0.04392,-0.02928,-0.08784,-0.1464,0.13176,0.03904,-0.40992,-0.03904,-0.06344,-2.74744,-0.04392
0.122,-0.0488,-0.0244,-0.0854,-0.1464,0.1342,0.03904,-0.40504,-0.03904,-0.06344,-2.74256,-0.04392
0.122,-0.0488,-0.0244,-0.0854,-0.1464,0.1342,0.03416,-0.40504,-0.03904,-0.06344,-2.74744,-0.04392
0.12688,-0.05124,-0.0244,-0.08784,-0.15128,0.13908,0.02928,-0.40504,-0.03904,-0.06344,-2.75232,-0.04392
0.12688,-0.05124,-0.0244,-0.08784,-0.15128,0.13908,0.02928,-0.40016,-0.03904,-0.05856,-2.75232,-0.04392
0.12688,-0.05124,-0.0244,-0.08784,-0.15128,0.13908,0.02928,-0.40016,-0.03904,-0.05856,-2.75232,-0.04392
0.13176,-0.05612,-0.01952,-0.0854,-0.15128,0.14152,0.02928,-0.39528,-0.03416,-0.05368,-2.75232,-0.0488
0.13664,-0.05856,-0.01952,-0.08784,-0.15616,0.1464,0.02928,-0.38552,-0.03416,-0.05368,-2.75232,-0.0488
0.14152,-0.05856,-0.0244,-0.09516,-0.16592,0.15372,0.0244,-0.38552,-0.03416,-0.05368,-2.75232,-0.0488
0.14152,-0.05856,-0.0244,-0.09516,-0.16592,0.15372,0.0244,-0.37576,-0.03416,-0.0488,-2.7572,-0.0488
0.1464,-0.06344,-0.01952,-0.09272,-0.16592,0.15616,0.0244,-0.37576,-0.02928,-0.0488,-2.7572,-0.04392
0.15128,-0.06832,-0.01464,-0.09028,-0.16592,0.1586,0.0244,-0.37088,-0.02928,-0.04392,-2.75232,-0.04392
0.16104,-0.07808,-0.00488,-0.0854,-0.16592,0.16348,0.01952,-0.366,-0.0244,-0.03416,-2.75232,-0.04392
0.1708,-0.0854,0,-0.0854,-0.1708,0.1708,0.01952,-0.35136,-0.01952,-0.03416,-2.74256,-0.03904
0.1708,-0.0854,0,-0.0854,-0.1708,0.1708,0.01952,-0.34648,-0.01464,-0.02928,-2.74256,-0.03416
0.17568,-0.09272,0.00976,-0.07808,-0.16592,0.1708,0.01952,-0.33672,-0.00976,-0.0244,-2.74256,-0.0244
0.18056,-0.0976,0.01464,-0.07564,-0.16592,0.17324,0.01464,-0.32208,0,-0.01952,-2.73768,-0.0244
0.19032,-0.10492,0.01952,-0.07564,-0.1708,0.18056,0.01464,-0.30256,0.00488,-0.01464,-2.7328,-0.0244
0.1952,-0.1098,0.0244,-0.0732,-0.1708,0.183,0.01464,-0.2928,0.01464,-0.00488,-2.72792,-0.01952
0.20984,-0.11956,0.02928,-0.07564,-0.18056,0.1952,0.00976,-0.27328,0.01952,0.00976,-2.72304,-0.00976
0.22448,-0.13176,0.03904,-0.0732,-0.18544,0.20496,0.00976,-0.25376,0.0244,0.01952,-2.71328,-0.00488
0.244,-0.14396,0.04392,-0.07808,-0.20008,0.22204,0,-0.23424,0.03416,0.02928,-2.7084,0.00488
0.25864,-0.15616,0.05368,-0.07564,-0.20496,0.2318,0,-0.21472,0.03904,0.04392,-2.69864,0.00976
0.27816,-0.17568,0.0732,-0.06588,-0.20496,0.24156,-0.00488,-0.1952,0.04392,0.05368,-2.68888,0.0244
0.30744,-0.19764,0.08784,-0.06588,-0.2196,0.26352,-0.00976,-0.16592,0.05856,0.07808,-2.66936,0.03416
0.32696,-0.2196,0.11224,-0.05124,-0.21472,0.27084,-0.01464,-0.1464,0.05856,0.0976,-2.6596,0.0488
0.3416,-0.24156,0.14152,-0.02928,-0.20008,0.27084,-0.01952,-0.122,0.06832,0.11712,-2.64496,0.06344
0.366,-0.26596,0.16592,-0.01708,-0.20008,0.28304,-0.03416,-0.10736,0.08296,0.14152,-2.62056,0.08296
0.37576,-0.2806,0.18544,-0.00244,-0.19032,0.28304,-0.03416,-0.0976,0.09272,0.16592,-2.59616,0.09272
0.3904,-0.30012,0.20984,0.01464,-0.18056,0.28548,-0.0488,-0.09272,0.09272,0.18056,-2.57664,0.10736
0.40016,-0.3172,0.23424,0.03416,-0.16592,0.28304,-0.0488,-0.07808,0.10248,0.20496,-2.562,0.12688
0.40992,-0.33184,0.25376,0.0488,-0.15616,0.28304,-0.05368,-0.0732,0.11224,0.2196,-2.54248,0.13664
0.41968,-0.33916,0.25864,0.0488,-0.16104,0.29036,-0.05856,-0.06832,0.11712,0.23424,-2.53272,0.15128
0.41968,-0.34648,0.27328,0.06344,-0.1464,0.28304,-0.06344,-0.06832,0.122,0.244,-2.52784,0.16104
0.42456,-0.3538,0.28304,0.07076,-0.14152,0.28304,-0.06832,-0.06832,0.122,0.24888,-2.52296,0.16592
0.42456,-0.36112,0.29768,0.0854,-0.12688,0.27572,-0.06832,-0.0732,0.122,0.25864,-2.5132,0.17568
0.41968,-0.36112,0.30256,0.09272,-0.11712,0.2684,-0.06832,-0.07808,0.12688,0.25864,-2.5132,0.18056
0.40992,-0.35868,0.30744,0.10248,-0.10248,0.2562,-0.06832,-0.08296,0.12688,0.25864,-2.51808,0.18056
0.40992,-0.35624,0.30256,0.0976,-0.10736,0.25864,-0.06832,-0.09272,0.12688,0.25864,-2.51808,0.17568
0.3904,-0.3416,0.2928,0.0976,-0.0976,0.244,-0.0732,-0.10736,0.12688,0.244,-2.52784,0.1708
0.37088,-0.32696,0.28304,0.0976,-0.08784,0.22936,-0.06344,-0.12688,0.11712,0.22936,-2.5376,0.16104
0.34648,-0.30744,0.2684,0.09516,-0.07808,0.21228,-0.05856,-0.14152,0.11712,0.20984,-2.55712,0.1464
0.32696,-0.28792,0.24888,0.0854,-0.07808,0.20252,-0.0488,-0.16104,0.10736,0.1952,-2.57176,0.13176
0.30744,-0.2684,0.22936,0.07564,-0.07808,0.19276,-0.03904,-0.18544,0.10248,0.17568,-2.59128,0.11712
0.27816,-0.244,0.20984,0.07076,-0.06832,0.17324,-0.03416,-0.20496,0.09272,0.15128,-2.6108,0.0976
0.25864,-0.2196,0.18056,0.05124,-0.07808,0.16836,-0.02928,-0.23424,0.08296,0.122,-2.63032,0.08296
0.22448,-0.18544,0.1464,0.03416,-0.07808,0.15128,-0.0244,-0.25376,0.0732,0.10736,-2.64984,0.06832
0.20008,-0.16104,0.122,0.02196,-0.07808,0.13908,-0.0244,-0.2684,0.06344,0.08784,-2.67424,0.05368
0.18056,-0.14152,0.10248,0.0122,-0.07808,0.12932,-0.01952,-0.28792,0.05368,0.06832,-2.68888,0.03904
0.1708,-0.12688,0.08296,-0.00244,-0.08784,0.12932,-0.01464,-0.30744,0.04392,0.0488,-2.70352,0.0244
0.15616,-0.11468,0.0732,-0.00488,-0.08296,0.11956,-0.01464,-0.30744,0.03904,0.03904,-2.71816,0.01952
0.1464,-0.10248,0.05856,-0.01464,-0.08784,0.11712,-0.01464,-0.32208,0.02928,0.0244,-2.7328,0.00976
0.13176,-0.08784,0.04392,-0.02196,-0.08784,0.1098,-0.01464,-0.33184,0.01952,0.00976,-2.75232,0
0.12688,-0.08296,0.03904,-0.0244,-0.08784,0.10736,-0.00976,-0.33672,0.01952,0.00488,-2.76208,-0.00976
0.11712,-0.0732,0.02928,-0.02928,-0.08784,0.10248,-0.00976,-0.3416,0.00976,-0.00488,-2.76696,-0.00976
0.10736,-0.06344,0.01952,-0.03416,-0.08784,0.0976,-0.00976,-0.34648,0.00488,-0.01464,-2.77184,-0.01464
0.11224,-0.06588,0.01952,-0.0366,-0.09272,0.10248,-0.00976,-0.35136,0,-0.01464,-2.7816,-0.01952
0.10736,-0.061,0.01464,-0.03904,-0.09272,0.10004,-0.00976,-0.35136,-0.00488,-0.01952,-2.78648,-0.0244
0.10736,-0.05612,0.00488,-0.0488,-0.10248,0.10492,-0.00976,-0.35136,-0.00976,-0.0244,-2.79136,-0.0244
0.10248,-0.05124,0,-0.05124,-0.10248,0.10248,-0.00976,-0.35136,-0.00976,-0.0244,-2.79136,-0.0244
0.0976,-0.0488,0,-0.0488,-0.0976,0.0976,-0.00976,-0.35136,-0.00976,-0.0244,-2.79136,-0.0244
0.09272,-0.04636,0,-0.04636,-0.09272,0.09272,-0.00976,-0.34648,-0.00976,-0.0244,-2.79136,-0.0244
0.09272,-0.0488,0.00488,-0.04148,-0.08784,0.09028,-0.00976,-0.34648,-0.00976,-0.0244,-2.79136,-0.0244
0.08784,-0.04636,0.00488,-0.03904,-0.08296,0.0854,-0.00976,-0.3416,-0.00976,-0.0244,-2.79624,-0.01952
0.08296,-0.04392,0.00488,-0.0366,-0.07808,0.08052,-0.00976,-0.3416,-0.00976,-0.01952,-2.80112,-0.01952
0.08296,-0.04392,0.00488,-0.0366,-0.07808,0.08052,-0.00976,-0.3416,-0.00488,-0.01464,-2.80112,-0.01952
0.0732,-0.0366,0,-0.0366,-0.0732,0.0732,-0.00976,-0.33672,-0.00488,-0.01952,-2.80112,-0.01952
0.06832,-0.03172,-0.00488,-0.03904,-0.0732,0.07076,-0.00488,-0.33672,-0.00488,-0.01952,-2.80112,-0.01952
0.06832,-0.03172,-0.00488,-0.03904,-0.0732,0.07076,-0.00488,-0.33184,-0.00488,-0.01952,-2.806,-0.01952
0.06832,-0.03172,-0.00488,-0.03904,-0.0732,0.07076,-0.00488,-0.32696,-0.00488,-0.01952,-2.81576,-0.01952
0.06344,-0.02928,-0.00488,-0.0366,-0.06832,0.06588,-0.00488,-0.32208,-0.00488,-0.01952,-2.81576,-0.01952
0.05856,-0.02684,-0.00488,-0.03416,-0.06344,0.061,-0.00488,-0.3172,0,-0.01952,-2.81576,-0.01952
0.06344,-0.02928,-0.00488,-0.0366,-0.06832,0.06588,-0.00488,-0.31232,0,-0.01952,-2.82064,-0.01952
0.06344,-0.03172,0,-0.03172,-0.06344,0.06344,-0.00488,-0.31232,0,-0.01952,-2.82064,-0.01952
0.05856,-0.02928,0,-0.02928,-0.05856,0.05856,-0.00488,-0.30256,-0.00488,-0.0244,-2.82064,-0.01952
0.05856,-0.03172,0.00488,-0.0244,-0.05368,0.05612,-0.00488,-0.29768,-0.00976,-0.0244,-2.82064,-0.0244
0.05856,-0.03172,0.00488,-0.0244,-0.05368,0.05612,-0.00488,-0.29768,-0.00976,-0.01952,-2.82064,-0.0244
0.05856,-0.03416,0.00976,-0.01952,-0.0488,0.05368,-0.00488,-0.29768,-0.00976,-0.01952,-2.82064,-0.0244
0.05368,-0.02928,0.00488,-0.02196,-0.0488,0.05124,-0.00488,-0.2928,-0.00976,-0.01464,-2.82552,-0.01464
0.05856,-0.03416,0.00976,-0.01952,-0.0488,0.05368,-0.00488,-0.28792,-0.00976,-0.01464,-2.82552,-0.00976
0.05856,-0.0366,0.01464,-0.01464,-0.04392,0.05124,-0.00976,-0.27816,-0.00976,-0.00976,-2.82552,-0.00488
0.05368,-0.0366,0.01952,-0.00732,-0.03416,0.04392,-0.00976,-0.27328,-0.00488,-0.00976,-2.82552,-0.00488
0.05856,-0.04148,0.0244,-0.00488,-0.03416,0.04636,-0.01464,-0.27328,-0.00488,-0.00488,-2.82064,-0.00488
0.06344,-0.04636,0.02928,-0.00244,-0.03416,0.0488,-0.01952,-0.27328,-0.00488,-0.00488,-2.82064,-0.00976
0.06832,-0.0488,0.02928,-0.00488,-0.03904,0.05368,-0.0244,-0.2684,-0.00488,-0.00488,-2.82064,-0.00488
0.06832,-0.0488,0.02928,-0.00488,-0.03904,0.05368,-0.0244,-0.2684,-0.00488,-0.00488,-2.82064,-0.00488
0.0732,-0.05368,0.03416,-0.00244,-0.03904,0.05612,-0.0244,-0.26352,-0.00488,-0.00488,-2.82552,-0.00488
0.0732,-0.05368,0.03416,-0.00244,-0.03904,0.05612,-0.0244,-0.25864,-0.00488,0,-2.8304,-0.00488
0.0732,-0.05368,0.03416,-0.00244,-0.03904,0.05612,-0.0244,-0.25864,-0.00976,0,-2.83528,-0.00488
0.0732,-0.05124,0.02928,-0.00732,-0.04392,0.05856,-0.0244,-0.25864,-0.00976,0.00488,-2.84016,-0.00488
0.06832,-0.04636,0.0244,-0.00976,-0.04392,0.05612,-0.0244,-0.24888,-0.01464,0,-2.84016,-0.00488
0.06832,-0.04392,0.01952,-0.01464,-0.0488,0.05856,-0.02928,-0.244,-0.01952,-0.00488,-2.84016,-0.00488
0.06832,-0.04392,0.01952,-0.01464,-0.0488,0.05856,-0.0244,-0.244,-0.01952,-0.00488,-2.84504,-0.00488
0.06832,-0.04392,0.01952,-0.01464,-0.0488,0.05856,-0.01952,-0.244,-0.01952,-0.00976,-2.84992,-0.00976
0.06344,-0.03904,0.01464,-0.01708,-0.0488,0.05612,-0.01952,-0.23912,-0.0244,-0.01464,-2.8548,-0.00976
0.05856,-0.03416,0.00976,-0.01952,-0.0488,0.05368,-0.01952,-0.23424,-0.02928,-0.01952,-2.85968,-0.00976
0.05856,-0.03416,0.00976,-0.01952,-0.0488,0.05368,-0.01952,-0.23424,-0.02928,-0.01952,-2.86456,-0.01464
0.05368,-0.03172,0.00976,-0.01708,-0.04392,0.0488,-0.01952,-0.22936,-0.02928,-0.01952,-2.86944,-0.01952
0.05368,-0.03172,0.00976,-0.01708,-0.04392,0.0488,-0.01952,-0.22936,-0.03416,-0.0244,-2.87432,-0.0244
0.0488,-0.02928,0.00976,-0.01464,-0.03904,0.04392,-0.01952,-0.22448,-0.03416,-0.02928,-2.8792,-0.0244
0.0488,-0.02928,0.00976,-0.01464,-0.03904,0.04392,-0.01464,-0.2196,-0.03416,-0.02928,-2.8792,-0.0244
0.05368,-0.03416,0.01464,-0.0122,-0.03904,0.04636,-0.01464,-0.21472,-0.02928,-0.02928,-2.8792,-0.0244
0.0488,-0.02928,0.00976,-0.01464,-0.03904,0.04392,-0.01464,-0.21472,-0.02928,-0.02928,-2.88408,-0.01952
0.05368,-0.03416,0.01464,-0.0122,-0.03904,0.04636,-0.00488,-0.20496,-0.01952,-0.01952,-2.88408,-0.01952
0.05856,-0.04392,0.02928,0,-0.02928,0.04392,0.00488,-0.1952,-0.01952,-0.01464,-2.88408,-0.01952
0.06344,-0.05368,0.04392,0.0122,-0.01952,0.04148,0.01464,-0.18056,-0.00976,-0.00976,-2.8792,-0.01464
0.06832,-0.061,0.05368,0.01952,-0.01464,0.04148,0.02928,-0.16592,0,-0.00488,-2.8792,-0.00976
0.07808,-0.06832,0.05856,0.01952,-0.01952,0.0488,0.02928,-0.15128,0,-0.00488,-2.88408,-0.00488
0.07808,-0.06832,0.05856,0.01952,-0.01952,0.0488,0.01952,-0.1464,0,-0.00488,-2.88408,-0.00488
0.08296,-0.0732,0.06344,0.02196,-0.01952,0.05124,0,-0.14152,0.00976,0,-2.8792,0.00488
0.09272,-0.08052,0.06832,0.02196,-0.0244,0.05856,-0.01952,-0.14152,0.01464,0.00976,-2.87432,0.00976
0.09272,-0.0854,0.07808,0.03172,-0.01464,0.05368,-0.03416,-0.15616,0.01464,0.01464,-2.86944,0.01464
0.08784,-0.09028,0.09272,0.0488,0.00488,0.04148,-0.03904,-0.17568,0.00976,0.01952,-2.86944,0.01952
0.07808,-0.08296,0.08784,0.0488,0.00976,0.03416,-0.04392,-0.18544,0.00488,0.01952,-2.87432,0.01952
0.06832,-0.07808,0.08784,0.05368,0.01952,0.0244,-0.04392,-0.20008,-0.00488,0.00488,-2.8792,0.01952
0.05856,-0.06588,0.0732,0.04392,0.01464,0.02196,-0.04392,-0.20008,-0.01952,-0.00488,-2.88896,0.00976
0.0488,-0.04392,0.03904,0.01464,-0.00976,0.02928,-0.03904,-0.19032,-0.02928,-0.0244,-2.90848,0
0.03904,-0.02684,0.01464,-0.00488,-0.0244,0.03172,-0.03416,-0.18056,-0.03904,-0.02928,-2.92312,-0.01464
0.03416,-0.01952,0.00488,-0.0122,-0.02928,0.03172,-0.0244,-0.18056,-0.03904,-0.03416,-2.93288,-0.01952
0.02928,-0.00732,-0.01464,-0.02928,-0.04392,0.0366,-0.01952,-0.1708,-0.0488,-0.03904,-2.93776,-0.0244
0.0244,0.00732,-0.03904,-0.05124,-0.06344,0.04392,-0.01464,-0.16592,-0.05856,-0.05368,-2.9524,-0.03904
0.00488,0.02684,-0.05856,-0.061,-0.06344,0.03416,-0.00976,-0.16104,-0.05856,-0.05856,-2.96216,-0.0488
-0.00488,0.0366,-0.06832,-0.06588,-0.06344,0.02928,-0.00488,-0.15616,-0.06344,-0.06832,-2.9768,-0.05368
-0.01464,0.04392,-0.0732,-0.06588,-0.05856,0.02196,0,-0.15128,-0.0732,-0.06832,-2.99144,-0.06344
-0.0244,0.05856,-0.09272,-0.08052,-0.06832,0.02196,0.00488,-0.1464,-0.07808,-0.08296,-2.99144,-0.0732
-0.0244,0.05856,-0.09272,-0.08052,-0.06832,0.02196,0.00488,-0.1464,-0.07808,-0.08296,-3.00608,-0.07808
-0.02928,0.06344,-0.0976,-0.08296,-0.06832,0.01952,0.00488,-0.14152,-0.07808,-0.09272,-3.01584,-0.08296
-0.02928,0.06588,-0.10248,-0.08784,-0.0732,0.02196,0.00976,-0.13664,-0.07808,-0.0976,-3.0256,-0.08296
-0.0244,0.06344,-0.10248,-0.09028,-0.07808,0.02684,0.00976,-0.13176,-0.08784,-0.0976,-3.0256,-0.08784
-0.0244,0.06344,-0.10248,-0.09028,-0.07808,0.02684,0.00976,-0.12688,-0.09272,-0.0976,-3.03048,-0.09272
-0.01952,0.061,-0.10248,-0.09272,-0.08296,0.03172,0.00976,-0.122,-0.09272,-0.0976,-3.03536,-0.09272
-0.01464,0.05856,-0.10248,-0.09516,-0.08784,0.0366,0.00976,-0.11712,-0.09272,-0.0976,-3.04024,-0.09272
-0.01464,0.05612,-0.0976,-0.09028,-0.08296,0.03416,0.00976,-0.11712,-0.09272,-0.0976,-3.04024,-0.09272
-0.01464,0.05612,-0.0976,-0.09028,-0.08296,0.03416,0.00976,-0.11224,-0.08784,-0.0976,-3.04024,-0.08784
-0.01952,0.061,-0.10248,-0.09272,-0.08296,0.03172,0.01464,-0.10736,-0.08784,-0.0976,-3.04512,-0.08784
-0.0244,0.06588,-0.10736,-0.09516,-0.08296,0.02928,0.01464,-0.0976,-0.08784,-0.0976,-3.05,-0.09272
-0.00976,0.06588,-0.122,-0.11712,-0.11224,0.05124,0.01952,-0.07808,-0.08784,-0.10736,-3.06464,-0.10736
0.00488,0.08296,-0.1708,-0.17324,-0.17568,0.09028,0.04392,-0.01464,-0.0976,-0.13176,-3.10856,-0.13664
0.03904,0.10004,-0.23912,-0.25864,-0.27816,0.1586,0.122,0.16592,-0.08784,-0.16104,-3.16712,-0.20008
0.08296,0.09272,-0.2684,-0.30988,-0.35136,0.21716,0.22448,0.35624,-0.0488,-0.16104,-3.19152,-0.244
0.12688,0.00732,-0.14152,-0.20496,-0.2684,0.19764,0.21472,0.3416,0.06832,-0.05368,-3.11832,-0.18544
0.20496,-0.1342,0.06344,-0.03904,-0.14152,0.17324,0.15616,0.24888,0.20496,0.14152,-2.94264,-0.0488
0.3172,-0.37576,0.43432,0.27572,0.11712,0.10004,0.01464,0.10248,0.36112,0.42944,-2.65472,0.20008
0.46848,-0.65148,0.83448,0.60024,0.366,0.05124,-0.23424,-0.2196,0.45872,0.72712,-2.318,0.50752
0.57096,-0.90768,1.2444,0.95892,0.67344,-0.05124,-0.48312,-0.60512,0.5612,1.06872,-1.93736,0.84912
0.61976,-1.13216,1.64456,1.33468,1.0248,-0.20252,-0.7076,-0.88816,0.68808,1.40544,-1.58112,1.16144
0.54168,-1.22488,1.90808,1.63724,1.3664,-0.41236,-0.82472,-1.05408,0.77104,1.6348,-1.34688,1.38104
0.33672,-1.11752,1.89832,1.72996,1.5616,-0.61244,-0.84424,-1.1712,0.73688,1.55184,-1.3664,1.37616
0.08784,-0.81008,1.53232,1.4884,1.44448,-0.67832,-0.80032,-1.1956,0.61976,1.17608,-1.74216,1.12728
-0.18544,-0.4392,1.06384,1.15656,1.24928,-0.71736,-0.66368,-1.21024,0.31232,0.61,-2.25944,0.76128
-0.28792,-0.20252,0.69296,0.83692,0.98088,-0.6344,-0.52216,-1.13704,0.00488,0.1708,-2.65472,0.45872
-0.27328,-0.09028,0.45384,0.59048,0.72712,-0.5002,-0.42456,-0.98088,-0.10736,0.01464,-2.81576,0.2684
-0.25376,-0.04636,0.34648,0.47336,0.60024,-0.427,-0.34648,-0.7808,-0.11712,-0.0244,-2.89872,0.15128
-0.20496,0.00976,0.18544,0.28792,0.3904,-0.29768,-0.20496,-0.50752,-0.11224,-0.0732,-2.99632,0.0488
-0.10248,0.0122,0.07808,0.12932,0.18056,-0.14152,-0.0976,-0.32696,-0.0976,-0.08296,-3.04512,-0.02928
-0.04392,0.02196,0,0.02196,0.04392,-0.04392,-0.03904,-0.22448,-0.09272,-0.10248,-3.06464,-0.06832
-0.03904,0.05856,-0.07808,-0.05856,-0.03904,0,-0.01464,-0.122,-0.09272,-0.11224,-3.09392,-0.10248
-0.02928,0.07076,-0.11224,-0.0976,-0.08296,0.02684,0.00976,-0.05856,-0.0976,-0.12688,-3.11344,-0.10736
-0.00976,0.06344,-0.11712,-0.11224,-0.10736,0.0488,0.03416,-0.06344,-0.09272,-0.13176,-3.11832,-0.13176
0.00488,0.05856,-0.122,-0.12444,-0.12688,0.06588,0.0488,-0.06832,-0.08296,-0.13176,-3.11832,-0.13176
0.00976,0.05368,-0.11712,-0.122,-0.12688,0.06832,0.0488,-0.05856,-0.07808,-0.12688,-3.12808,-0.13176
0.00976,0.05124,-0.11224,-0.11712,-0.122,0.06588,0.0488,-0.04392,-0.0732,-0.12688,-3.13296,-0.13664
0.01464,0.05124,-0.11712,-0.12444,-0.13176,0.0732,0.0488,-0.04392,-0.0732,-0.12688,-3.13296,-0.13664
0.01464,0.05124,-0.11712,-0.12444,-0.13176,0.0732,0.0488,-0.04392,-0.0732,-0.12688,-3.13296,-0.13664
0.01464,0.05124,-0.11712,-0.12444,-0.13176,0.0732,0.0488,-0.04392,-0.0732,-0.12688,-3.12808,-0.13664
0.01464,0.05368,-0.122,-0.12932,-0.13664,0.07564,0.0488,-0.04392,-0.06832,-0.12688,-3.12808,-0.13664
0.01952,0.05124,-0.122,-0.13176,-0.14152,0.08052,0.0488,-0.03904,-0.06344,-0.12688,-3.12808,-0.13664
0.01952,0.05124,-0.122,-0.13176,-0.14152,0.08052,0.0488,-0.03416,-0.05856,-0.12688,-3.12808,-0.14152
0.0244,0.04636,-0.11712,-0.12932,-0.14152,0.08296,0.0488,-0.03416,-0.05368,-0.122,-3.12808,-0.14152
0.0244,0.04392,-0.11224,-0.12444,-0.13664,0.08052,0.0488,-0.03416,-0.0488,-0.122,-3.13296,-0.14152
0.02928,0.04148,-0.11224,-0.12688,-0.14152,0.0854,0.0488,-0.03904,-0.0488,-0.122,-3.13784,-0.14152
0.02928,0.04148,-0.11224,-0.12688,-0.14152,0.0854,0.0488,-0.03904,-0.0488,-0.11712,-3.13784,-0.14152
0.0244,0.04636,-0.11712,-0.12932,-0.14152,0.08296,0.0488,-0.03904,-0.05368,-0.11712,-3.13784,-0.14152
0.0244,0.04636,-0.11712,-0.12932,-0.14152,0.08296,0.0488,-0.03904,-0.05368,-0.11224,-3.13784,-0.14152
0.02928,0.04392,-0.11712,-0.13176,-0.1464,0.08784,0.05368,-0.03416,-0.05368,-0.11224,-3.13784,-0.13664
0.03416,0.04148,-0.11712,-0.1342,-0.15128,0.09272,0.05368,-0.03416,-0.05368,-0.11224,-3.13784,-0.13664
0.03416,0.03904,-0.11224,-0.12932,-0.1464,0.09028,0.05368,-0.01952,-0.05368,-0.10736,-3.14272,-0.14152
0.03904,0.03416,-0.10736,-0.12688,-0.1464,0.09272,0.05368,-0.01464,-0.0488,-0.10736,-3.14272,-0.14152
0.0488,0.02684,-0.10248,-0.12688,-0.15128,0.10004,0.05368,-0.00976,-0.0488,-0.10736,-3.13784,-0.14152
0.05856,0.01952,-0.0976,-0.12688,-0.15616,0.10736,0.0488,-0.00976,-0.04392,-0.10248,-3.14272,-0.14152
0.06344,0.01708,-0.0976,-0.12932,-0.16104,0.11224,0.0488,-0.00488,-0.03904,-0.10248,-3.13296,-0.13664
0.06344,0.01708,-0.0976,-0.12932,-0.16104,0.11224,0.0488,-0.00488,-0.03416,-0.0976,-3.13296,-0.13176
0.06832,0.00976,-0.08784,-0.122,-0.15616,0.11224,0.0488,0.00488,-0.0244,-0.09272,-3.13296,-0.122
0.0732,0.00488,-0.08296,-0.11956,-0.15616,0.11468,0.04392,0.01464,-0.01464,-0.08784,-3.12808,-0.122
0.08296,-0.00244,-0.07808,-0.11956,-0.16104,0.122,0.04392,0.02928,-0.00976,-0.07808,-3.1232,-0.122
0.08784,-0.00732,-0.0732,-0.11712,-0.16104,0.12444,0.04392,0.03904,0.00488,-0.06344,-3.11832,-0.11712
0.10248,-0.01708,-0.06832,-0.11956,-0.1708,0.13664,0.03904,0.05368,0.00976,-0.0488,-3.11344,-0.10736
0.11712,-0.03172,-0.05368,-0.11224,-0.1708,0.14396,0.03904,0.06832,0.01464,-0.03904,-3.0988,-0.10248
0.13664,-0.04636,-0.04392,-0.11224,-0.18056,0.1586,0.02928,0.08784,0.02928,-0.02928,-3.08904,-0.09272
0.15128,-0.05856,-0.03416,-0.1098,-0.18544,0.16836,0.02928,0.10248,0.03904,-0.00976,-3.07928,-0.08784
0.1708,-0.07808,-0.01464,-0.10004,-0.18544,0.17812,0.0244,0.11712,0.04392,0.00488,-3.06952,-0.0732
0.1952,-0.0976,0,-0.0976,-0.1952,0.1952,0.01952,0.14152,0.05856,0.02928,-3.04512,-0.06344
0.20984,-0.11712,0.0244,-0.08052,-0.18544,0.19764,0.01464,0.15616,0.05368,0.0488,-3.03048,-0.0488
0.22448,-0.13908,0.05368,-0.05856,-0.1708,0.19764,0.00976,0.17568,0.05856,0.06832,-3.01584,-0.03416
0.24888,-0.16348,0.07808,-0.04636,-0.1708,0.20984,-0.00488,0.18544,0.0732,0.09272,-2.99632,-0.00976
0.25864,-0.17568,0.09272,-0.0366,-0.16592,0.21228,-0.00488,0.1952,0.08296,0.11712,-2.98168,0.00488
0.27328,-0.19276,0.11224,-0.0244,-0.16104,0.21716,-0.01952,0.20008,0.08784,0.13176,-2.96704,0.01952
0.28304,-0.20984,0.13664,-0.00488,-0.1464,0.21472,-0.01952,0.20984,0.0976,0.15128,-2.9524,0.03416
0.2928,-0.22448,0.15616,0.00976,-0.13664,0.21472,-0.0244,0.20496,0.10248,0.16104,-2.93288,0.03904
0.30256,-0.2318,0.16104,0.00976,-0.14152,0.22204,-0.02928,0.20496,0.10736,0.17568,-2.928,0.05368
0.30256,-0.24156,0.18056,0.02928,-0.122,0.21228,-0.03416,0.20496,0.11224,0.18544,-2.92312,0.06344
0.30744,-0.24888,0.19032,0.0366,-0.11712,0.21228,-0.03904,0.20496,0.11224,0.18544,-2.91824,0.06344
0.30744,-0.25376,0.20008,0.04636,-0.10736,0.2074,-0.03904,0.20008,0.11224,0.19032,-2.91336,0.06832
0.30256,-0.25132,0.20008,0.0488,-0.10248,0.20252,-0.03904,0.1952,0.11712,0.19032,-2.91336,0.0732
0.2928,-0.24644,0.20008,0.05368,-0.09272,0.19276,-0.03904,0.19032,0.11712,0.19032,-2.91336,0.0732
0.2928,-0.244,0.1952,0.0488,-0.0976,0.1952,-0.03416,0.17568,0.11712,0.19032,-2.91336,0.0732
0.27328,-0.22936,0.18544,0.0488,-0.08784,0.18056,-0.03416,0.15616,0.11712,0.17568,-2.928,0.0732
0.25376,-0.21472,0.17568,0.0488,-0.07808,0.16592,-0.0244,0.13664,0.10736,0.16104,-2.93776,0.06344
0.22936,-0.19276,0.15616,0.04148,-0.0732,0.15128,-0.01952,0.12688,0.10736,0.14152,-2.95728,0.04392
0.20984,-0.1708,0.13176,0.02684,-0.07808,0.14396,-0.01464,0.10736,0.0976,0.12688,-2.97192,0.02928
0.19032,-0.15128,0.11224,0.01708,-0.07808,0.1342,-0.00488,0.07808,0.09272,0.10736,-2.99144,0.01952
0.16104,-0.12688,0.09272,0.0122,-0.06832,0.11468,0.00488,0.05856,0.08296,0.08296,-3.01096,0
0.14152,-0.10248,0.06344,-0.00732,-0.07808,0.1098,0.00976,0.02928,0.0732,0.05368,-3.03048,-0.01464
0.11712,-0.07808,0.03904,-0.01952,-0.07808,0.0976,0.01952,0.00976,0.06344,0.03904,-3.05,-0.02928
0.10248,-0.061,0.01952,-0.03172,-0.08296,0.09272,0.0244,-0.00488,0.05856,0.01952,-3.0744,-0.04392
0.08296,-0.03904,-0.00488,-0.04636,-0.08784,0.0854,0.02928,-0.0244,0.05368,0,-3.08904,-0.05856
0.0732,-0.0244,-0.0244,-0.061,-0.0976,0.0854,0.03416,-0.0488,0.04392,-0.01952,-3.10368,-0.0732
0.05856,-0.0122,-0.03416,-0.06344,-0.09272,0.07564,0.03416,-0.05856,0.03904,-0.02928,-3.11832,-0.07808
0.0488,0,-0.0488,-0.0732,-0.0976,0.0732,0.03416,-0.07808,0.02928,-0.04392,-3.13784,-0.08784
0.03416,0.01464,-0.06344,-0.08052,-0.0976,0.06588,0.03416,-0.08784,0.01952,-0.05856,-3.15248,-0.0976
0.03416,0.01464,-0.06344,-0.08052,-0.0976,0.06588,0.03904,-0.09272,0.01464,-0.06344,-3.16224,-0.11224
0.02928,0.01952,-0.06832,-0.08296,-0.0976,0.06344,0.03904,-0.10248,0,-0.0732,-3.17688,-0.11712
0.01952,0.02928,-0.07808,-0.08784,-0.0976,0.05856,0.03904,-0.11224,-0.00488,-0.08296,-3.18176,-0.122
0.01952,0.02928,-0.07808,-0.08784,-0.0976,0.05856,0.03904,-0.11712,-0.00976,-0.08296,-3.18664,-0.12688
0.00976,0.0366,-0.08296,-0.08784,-0.09272,0.05124,0.04392,-0.11712,-0.00976,-0.08784,-3.18664,-0.13176
0.00976,0.03904,-0.08784,-0.09272,-0.0976,0.05368,0.0488,-0.122,-0.00976,-0.09272,-3.19152,-0.13176
0.00488,0.04148,-0.08784,-0.09028,-0.09272,0.0488,0.0488,-0.12688,-0.00976,-0.09272,-3.1964,-0.13176
0.00488,0.04148,-0.08784,-0.09028,-0.09272,0.0488,0.0488,-0.13176,-0.00976,-0.09272,-3.20128,-0.13176
0.00488,0.04148,-0.08784,-0.09028,-0.09272,0.0488,0.04392,-0.12688,-0.00976,-0.09272,-3.20616,-0.13176
0.00488,0.04148,-0.08784,-0.09028,-0.09272,0.0488,0.03904,-0.12688,-0.00976,-0.09272,-3.20616,-0.13664
0,0.04636,-0.09272,-0.09272,-0.09272,0.04636,0.03904,-0.12688,-0.00976,-0.09272,-3.20616,-0.13664
-0.00488,0.0488,-0.09272,-0.09028,-0.08784,0.04148,0.03904,-0.12688,-0.00976,-0.09272,-3.21104,-0.13664
-0.00488,0.0488,-0.09272,-0.09028,-0.08784,0.04148,0.03904,-0.13176,-0.00488,-0.09272,-3.21592,-0.13664
-0.00976,0.05124,-0.09272,-0.08784,-0.08296,0.0366,0.03904,-0.13176,-0.00488,-0.0976,-3.2208,-0.13664
-0.01464,0.05368,-0.09272,-0.0854,-0.07808,0.03172,0.04392,-0.13176,-0.00488,-0.0976,-3.22568,-0.14152
-0.01952,0.05612,-0.09272,-0.08296,-0.0732,0.02684,0.04392,-0.13176,-0.00488,-0.0976,-3.23056,-0.1464
-0.01952,0.05612,-0.09272,-0.08296,-0.0732,0.02684,0.04392,-0.13176,-0.00488,-0.0976,-3.23544,-0.1464
-0.01952,0.05612,-0.09272,-0.08296,-0.0732,0.02684,0.04392,-0.13176,-0.00488,-0.0976,-3.23544,-0.1464
-0.01952,0.05612,-0.09272,-0.08296,-0.0732,0.02684,0.04392,-0.13176,0,-0.09272,-3.23544,-0.1464
-0.01464,0.05368,-0.09272,-0.0854,-0.07808,0.03172,0.04392,-0.12688,0,-0.08784,-3.23544,-0.1464
-0.01464,0.05124,-0.08784,-0.08052,-0.0732,0.02928,0.04392,-0.12688,0,-0.08784,-3.23544,-0.1464
-0.01464,0.05124,-0.08784,-0.08052,-0.0732,0.02928,0.04392,-0.122,0,-0.08784,-3.24032,-0.14152
-0.00976,0.04636,-0.08296,-0.07808,-0.0732,0.03172,0.04392,-0.122,0,-0.08296,-3.24032,-0.14152
-0.00976,0.04636,-0.08296,-0.07808,-0.0732,0.03172,0.04392,-0.122,0,-0.07808,-3.24032,-0.14152
-0.00488,0.04148,-0.07808,-0.07564,-0.0732,0.03416,0.04392,-0.122,0.00488,-0.07808,-3.24032,-0.14152
0,0.03904,-0.07808,-0.07808,-0.07808,0.03904,0.04392,-0.122,0.00976,-0.0732,-3.24032,-0.13664
0.00976,0.02928,-0.06832,-0.0732,-0.07808,0.04392,0.04392,-0.122,0.00976,-0.0732,-3.24032,-0.13664
0.01464,0.0244,-0.06344,-0.07076,-0.07808,0.04636,0.03904,-0.11712,0.00976,-0.06832,-3.2452,-0.13176
0.00976,0.0244,-0.05856,-0.06344,-0.06832,0.03904,0.03904,-0.11712,0.00976,-0.06832,-3.2452,-0.13176
0.00976,0.0244,-0.05856,-0.06344,-0.06832,0.03904,0.03904,-0.11712,0.00488,-0.06344,-3.24032,-0.12688
0.01464,0.02196,-0.05856,-0.06588,-0.0732,0.04392,0.03904,-0.11712,0.00488,-0.06344,-3.24032,-0.12688
0.01952,0.01952,-0.05856,-0.06832,-0.07808,0.0488,0.03416,-0.11224,0.00488,-0.06344,-3.24032,-0.122
0.01952,0.01952,-0.05856,-0.06832,-0.07808,0.0488,0.02928,-0.11224,0.00488,-0.06344,-3.24032,-0.122
0.0244,0.01464,-0.05368,-0.06588,-0.07808,0.05124,0.0244,-0.11224,0.00488,-0.06344,-3.24032,-0.122
0.0244,0.01464,-0.05368,-0.06588,-0.07808,0.05124,0.0244,-0.11224,0.00976,-0.05856,-3.2452,-0.11712
0.0244,0.01708,-0.05856,-0.07076,-0.08296,0.05368,0.0244,-0.11224,0.00976,-0.05856,-3.25008,-0.11224
0.01952,0.01952,-0.05856,-0.06832,-0.07808,0.0488,0.01952,-0.10736,0.00488,-0.05856,-3.25496,-0.11712
0.01952,0.02196,-0.06344,-0.0732,-0.08296,0.05124,0.01952,-0.10736,0.00488,-0.06344,-3.26472,-0.122
0.0244,0.01952,-0.06344,-0.07564,-0.08784,0.05612,0.01952,-0.11224,0,-0.06344,-3.26472,-0.122
0.02928,0.01952,-0.06832,-0.08296,-0.0976,0.06344,0.01952,-0.11712,0,-0.06832,-3.2696,-0.12688
0.02928,0.01952,-0.06832,-0.08296,-0.0976,0.06344,0.01952,-0.11712,-0.00488,-0.06832,-3.27448,-0.12688
0.02928,0.01952,-0.06832,-0.08296,-0.0976,0.06344,0.01952,-0.11712,-0.00976,-0.06832,-3.27936,-0.12688
0.02928,0.01952,-0.06832,-0.08296,-0.0976,0.06344,0.01952,-0.11712,-0.00976,-0.06832,-3.28424,-0.12688
0.02928,0.01952,-0.06832,-0.08296,-0.0976,0.06344,0.01952,-0.11712,-0.00976,-0.06832,-3.28424,-0.12688
0.02928,0.01952,-0.06832,-0.08296,-0.0976,0.06344,0.01952,-0.11712,-0.01464,-0.06832,-3.28912,-0.13176
0.02928,0.01952,-0.06832,-0.08296,-0.0976,0.06344,0.01952,-0.11712,-0.01464,-0.06832,-3.28912,-0.13176
0.02928,0.01952,-0.06832,-0.08296,-0.0976,0.06344,0.0244,-0.11712,-0.01464,-0.06832,-3.294,-0.13176
0.03416,0.01464,-0.06344,-0.08052,-0.0976,0.06588,0.0244,-0.11712,-0.00976,-0.06832,-3.29888,-0.13176
0.02928,0.01708,-0.06344,-0.07808,-0.09272,0.061,0.0244,-0.11712,-0.00976,-0.06832,-3.29888,-0.12688
0.03416,0.00976,-0.05368,-0.07076,-0.08784,0.061,0.03416,-0.10736,0,-0.05856,-3.294,-0.12688
0.03904,0,-0.03904,-0.05856,-0.07808,0.05856,0.03904,-0.10248,0.00976,-0.0488,-3.294,-0.122
0.04392,-0.00976,-0.0244,-0.04636,-0.06832,0.05612,0.04392,-0.09272,0.02928,-0.03904,-3.28912,-0.11224
0.0488,-0.01952,-0.00976,-0.03416,-0.05856,0.05368,0.05368,-0.08296,0.03904,-0.02928,-3.28424,-0.10736
0.05856,-0.02928,0,-0.02928,-0.05856,0.05856,0.0488,-0.0732,0.03904,-0.0244,-3.28424,-0.10248
0.06344,-0.03172,0,-0.03172,-0.06344,0.06344,0.03904,-0.0732,0.03904,-0.0244,-3.28912,-0.10248
0.0732,-0.03904,0.00488,-0.03172,-0.06832,0.07076,0.01952,-0.0732,0.0488,-0.01952,-3.28912,-0.09272
0.08296,-0.0488,0.01464,-0.02684,-0.06832,0.07564,0,-0.07808,0.05368,-0.00976,-3.28424,-0.08784
0.08296,-0.05612,0.02928,-0.0122,-0.05368,0.06832,-0.01464,-0.0976,0.05368,-0.00488,-3.27936,-0.08296
0.07808,-0.05856,0.03904,0,-0.03904,0.05856,-0.01464,-0.11712,0.05368,-0.00488,-3.28424,-0.07808
0.06832,-0.0488,0.02928,-0.00488,-0.03904,0.05368,-0.01464,-0.12688,0.05368,-0.00976,-3.294,-0.07808
0.05856,-0.04148,0.0244,-0.00488,-0.03416,0.04636,-0.01464,-0.14152,0.03904,-0.01952,-3.30376,-0.07808
0.0488,-0.02684,0.00488,-0.01952,-0.04392,0.04636,-0.01464,-0.14152,0.01952,-0.0244,-3.3184,-0.08784
0.04392,-0.00976,-0.0244,-0.04636,-0.06832,0.05612,-0.01464,-0.14152,0.00976,-0.04392,-3.33304,-0.09272
0.03904,0.00244,-0.04392,-0.06344,-0.08296,0.061,-0.01464,-0.14152,0,-0.0488,-3.3428,-0.10248
0.03416,0.00976,-0.05368,-0.07076,-0.08784,0.061,-0.00488,-0.14152,0,-0.05368,-3.35744,-0.10736
0.02928,0.02196,-0.0732,-0.08784,-0.10248,0.06588,0,-0.13176,-0.00976,-0.05856,-3.3672,-0.11224
0.0244,0.0366,-0.0976,-0.1098,-0.122,0.0732,0.00488,-0.13176,-0.01952,-0.0732,-3.38184,-0.12688
0.00488,0.05612,-0.11712,-0.11956,-0.122,0.06344,0.00976,-0.13176,-0.01952,-0.07808,-3.3916,-0.13664
-0.00976,0.07076,-0.13176,-0.12688,-0.122,0.05612,0.01464,-0.13176,-0.0244,-0.09272,-3.40624,-0.14152
-0.0244,0.08296,-0.14152,-0.12932,-0.11712,0.04636,0.01952,-0.13176,-0.03416,-0.0976,-3.42088,-0.15128
-0.03416,0.0976,-0.16104,-0.14396,-0.12688,0.04636,0.0244,-0.12688,-0.03904,-0.11224,-3.42088,-0.16104
-0.03416,0.0976,-0.16104,-0.14396,-0.12688,0.04636,0.0244,-0.12688,-0.03904,-0.11224,-3.43552,-0.16592
-0.03904,0.10248,-0.16592,-0.1464,-0.12688,0.04392,0.0244,-0.12688,-0.03904,-0.11712,-3.4404,-0.1708
-0.03904,0.10492,-0.1708,-0.15128,-0.13176,0.04636,0.02928,-0.12688,-0.03904,-0.11712,-3.44528,-0.1708
-0.03416,0.10248,-0.1708,-0.15372,-0.13664,0.05124,0.02928,-0.12688,-0.03904,-0.11712,-3.45016,-0.16592
-0.03416,0.10248,-0.1708,-0.15372,-0.13664,0.05124,0.02928,-0.12688,-0.03416,-0.11712,-3.45992,-0.16104
-0.03416,0.10492,-0.17568,-0.1586,-0.14152,0.05368,0.03416,-0.12688,-0.03416,-0.11712,-3.45992,-0.16104
-0.03416,0.10736,-0.18056,-0.16348,-0.1464,0.05612,0.03904,-0.12688,-0.03416,-0.11712,-3.45992,-0.16104
-0.03416,0.10492,-0.17568,-0.1586,-0.14152,0.05368,0.03904,-0.12688,-0.03416,-0.11712,-3.4648,-0.16104
-0.03416,0.10492,-0.17568,-0.1586,-0.14152,0.05368,0.03904,-0.122,-0.02928,-0.11712,-3.46968,-0.15616
-0.03416,0.1098,-0.18544,-0.16836,-0.15128,0.05856,0.04392,-0.11712,-0.02928,-0.122,-3.47944,-0.15616
-0.03416,0.11468,-0.1952,-0.17812,-0.16104,0.06344,0.04392,-0.10736,-0.02928,-0.12688,-3.4892,-0.16104
-0.01464,0.11468,-0.21472,-0.2074,-0.20008,0.09272,0.05856,-0.05856,-0.0244,-0.12688,-3.49408,-0.18056
0.00488,0.13176,-0.2684,-0.27084,-0.27328,0.13908,0.09272,0.03416,-0.02928,-0.14152,-3.52824,-0.21472
0.03904,0.1342,-0.30744,-0.32696,-0.34648,0.19276,0.15128,0.16592,0,-0.1464,-3.57216,-0.24888
0.08296,0.11224,-0.30744,-0.34892,-0.3904,0.23668,0.23424,0.30744,0.05856,-0.122,-3.58192,-0.26352
0.11712,0.00244,-0.122,-0.18056,-0.23912,0.17812,0.20008,0.27328,0.18544,0.03416,-3.45504,-0.16104
0.18544,-0.16348,0.14152,0.0488,-0.04392,0.11468,0.11712,0.16104,0.33184,0.27816,-3.22568,0.01952
0.28792,-0.40016,0.5124,0.36844,0.22448,0.03172,-0.0244,-0.01464,0.488,0.57584,-2.92312,0.27816
0.42944,-0.671,0.91256,0.69784,0.48312,-0.02684,-0.27328,-0.366,0.5856,0.88328,-2.57176,0.59536
0.46848,-0.87596,1.28344,1.0492,0.81496,-0.17324,-0.488,-0.7076,0.66856,1.19072,-2.23504,0.88816
0.45384,-1.0492,1.64456,1.41764,1.19072,-0.36844,-0.67832,-0.94672,0.77592,1.49328,-1.92272,1.15168
0.366,-1.0614,1.7568,1.5738,1.3908,-0.5124,-0.74664,-1.07848,0.8052,1.56648,-1.84952,1.25416
0.15128,-0.87352,1.59576,1.52012,1.44448,-0.6466,-0.71736,-1.16144,0.71736,1.32736,-2.03008,1.13216
-0.03904,-0.61,1.25904,1.27856,1.29808,-0.66856,-0.67344,-1.16144,0.5856,0.97112,-2.37168,0.89304
-0.25376,-0.28304,0.81984,0.94672,1.0736,-0.66368,-0.5368,-1.15168,0.26352,0.42456,-2.8548,0.5368
-0.32208,-0.09272,0.50752,0.66856,0.8296,-0.57584,-0.41968,-1.06384,-0.00488,0.04392,-3.20128,0.28304
-0.27328,-0.02684,0.32696,0.4636,0.60024,-0.43676,-0.34648,-0.89304,-0.07808,-0.05368,-3.31352,0.14152
-0.24888,0.00976,0.22936,0.3538,0.47824,-0.36356,-0.2684,-0.71248,-0.0732,-0.07808,-3.37208,0.03904
-0.1952,0.05856,0.07808,0.17568,0.27328,-0.23424,-0.12688,-0.45872,-0.05368,-0.11224,-3.44528,-0.0488
-0.10248,0.06344,-0.0244,0.02684,0.07808,-0.09028,-0.03416,-0.2928,-0.03904,-0.11712,-3.49408,-0.11224
-0.05368,0.07564,-0.0976,-0.07076,-0.04392,-0.00488,0.00976,-0.20496,-0.03416,-0.13176,-3.5136,-0.13664
-0.05368,0.1098,-0.16592,-0.13908,-0.11224,0.02928,0.03416,-0.12688,-0.02928,-0.13664,-3.538,-0.1708
-0.0488,0.11956,-0.19032,-0.16592,-0.14152,0.04636,0.05856,-0.08784,-0.02928,-0.1464,-3.55264,-0.17568
-0.03416,0.11712,-0.20008,-0.183,-0.16592,0.06588,0.0732,-0.08784,-0.0244,-0.15128,-3.55752,-0.1952
-0.0244,0.11712,-0.20984,-0.19764,-0.18544,0.08052,0.07808,-0.08784,-0.01464,-0.15128,-3.55752,-0.19032
-0.01952,0.11468,-0.20984,-0.20008,-0.19032,0.0854,0.07808,-0.07808,-0.01464,-0.1464,-3.5624,-0.19032
-0.01952,0.11468,-0.20984,-0.20008,-0.19032,0.0854,0.07808,-0.06344,-0.01464,-0.1464,-3.5624,-0.1952
-0.01464,0.11712,-0.2196,-0.21228,-0.20496,0.09516,0.07808,-0.06344,-0.01464,-0.1464,-3.5624,-0.1952
-0.01464,0.11956,-0.22448,-0.21716,-0.20984,0.0976,0.07808,-0.06344,-0.01464,-0.1464,-3.5624,-0.1952
-0.01464,0.11712,-0.2196,-0.21228,-0.20496,0.09516,0.08296,-0.06344,-0.01464,-0.1464,-3.5624,-0.1952
-0.01464,0.11712,-0.2196,-0.21228,-0.20496,0.09516,0.08784,-0.06344,-0.00976,-0.1464,-3.56728,-0.1952
-0.00976,0.11468,-0.2196,-0.21472,-0.20984,0.10004,0.08784,-0.05856,-0.00976,-0.1464,-3.56728,-0.19032
-0.00976,0.11468,-0.2196,-0.21472,-0.20984,0.10004,0.08784,-0.05368,-0.00976,-0.1464,-3.56728,-0.19032
-0.00488,0.11224,-0.2196,-0.21716,-0.21472,0.10492,0.08784,-0.05368,-0.00976,-0.14152,-3.5624,-0.19032
-0.00488,0.11224,-0.2196,-0.21716,-0.21472,0.10492,0.08784,-0.05368,-0.00976,-0.14152,-3.5624,-0.19032
0,0.1098,-0.2196,-0.2196,-0.2196,0.1098,0.08784,-0.05368,-0.00976,-0.14152,-3.57216,-0.19032
0,0.1098,-0.2196,-0.2196,-0.2196,0.1098,0.08784,-0.0488,-0.00976,-0.13664,-3.57704,-0.19032
-0.00488,0.11468,-0.22448,-0.22204,-0.2196,0.10736,0.08784,-0.0488,-0.00976,-0.13664,-3.57704,-0.1952
-0.00488,0.11468,-0.22448,-0.22204,-0.2196,0.10736,0.08784,-0.0488,-0.00488,-0.13176,-3.57704,-0.20008
0,0.11224,-0.22448,-0.22448,-0.22448,0.11224,0.08784,-0.04392,-0.00488,-0.13176,-3.57216,-0.20008
0.00488,0.1098,-0.22448,-0.22692,-0.22936,0.11712,0.08296,-0.04392,-0.00488,-0.13176,-3.56728,-0.20496
0.00488,0.10736,-0.2196,-0.22204,-0.22448,0.11468,0.08296,-0.03416,-0.00488,-0.12688,-3.57216,-0.20496
0.00976,0.10248,-0.21472,-0.2196,-0.22448,0.11712,0.08296,-0.03416,0,-0.12688,-3.57216,-0.20008
0.01464,0.10004,-0.21472,-0.22204,-0.22936,0.122,0.08296,-0.0244,0,-0.12688,-3.56728,-0.20008
0.01952,0.0976,-0.21472,-0.22448,-0.23424,0.12688,0.07808,-0.01952,0.00488,-0.122,-3.57216,-0.20008
0.02928,0.09272,-0.21472,-0.22936,-0.244,0.13664,0.07808,-0.00976,0.00488,-0.122,-3.5624,-0.1952
0.03416,0.09028,-0.21472,-0.2318,-0.24888,0.14152,0.07808,-0.00488,0.00488,-0.11712,-3.5624,-0.19032
0.03904,0.08296,-0.20496,-0.22448,-0.244,0.14152,0.07808,0.00488,0.00976,-0.11224,-3.5624,-0.18544
0.04392,0.07808,-0.20008,-0.22204,-0.244,0.14396,0.0732,0.01464,0.01464,-0.10736,-3.55752,-0.19032
0.0488,0.07076,-0.19032,-0.21472,-0.23912,0.14396,0.0732,0.02928,0.01464,-0.0976,-3.55264,-0.19032
0.0488,0.06588,-0.18056,-0.20496,-0.22936,0.13908,0.0732,0.03904,0.0244,-0.08296,-3.54776,-0.18544
0.06344,0.05612,-0.17568,-0.2074,-0.23912,0.15128,0.06832,0.0488,0.02928,-0.06832,-3.54776,-0.1708
0.07808,0.04148,-0.16104,-0.20008,-0.23912,0.1586,0.06832,0.05856,0.03416,-0.05856,-3.538,-0.16104
0.0976,0.02928,-0.15616,-0.20496,-0.25376,0.17568,0.05856,0.07808,0.04392,-0.0488,-3.52824,-0.15128
0.11224,0.01952,-0.15128,-0.2074,-0.26352,0.18788,0.05856,0.09272,0.0488,-0.02928,-3.51848,-0.1464
0.13176,0,-0.13176,-0.19764,-0.26352,0.19764,0.0488,0.10736,0.05368,-0.00976,-3.50872,-0.13176
0.15616,-0.01952,-0.11712,-0.1952,-0.27328,0.21472,0.03904,0.13176,0.06832,0.01952,-3.48432,-0.122
0.1708,-0.03904,-0.09272,-0.17812,-0.26352,0.21716,0.03416,0.1464,0.06832,0.03904,-3.46968,-0.10736
0.18544,-0.061,-0.06344,-0.15616,-0.24888,0.21716,0.02928,0.16592,0.07808,0.05856,-3.45504,-0.09272
0.20984,-0.0854,-0.03904,-0.14396,-0.24888,0.22936,0.01464,0.17568,0.09272,0.08296,-3.43064,-0.0732
0.2196,-0.0976,-0.0244,-0.1342,-0.244,0.2318,0.01464,0.18544,0.10248,0.10736,-3.41112,-0.06344
0.22936,-0.11224,-0.00488,-0.11956,-0.23424,0.2318,0,0.19032,0.10248,0.122,-3.39648,-0.0488
0.23424,-0.12688,0.01952,-0.0976,-0.21472,0.22448,0,0.20008,0.10736,0.14152,-3.38184,-0.03416
0.23912,-0.13908,0.03904,-0.08052,-0.20008,0.2196,-0.00488,0.1952,0.11224,0.15128,-3.36232,-0.02928
0.244,-0.14396,0.04392,-0.07808,-0.20008,0.22204,-0.00976,0.1952,0.11712,0.16592,-3.35744,-0.01464
0.244,-0.15128,0.05856,-0.06344,-0.18544,0.21472,-0.00976,0.1952,0.122,0.17568,-3.35744,-0.00488
0.24888,-0.15616,0.06344,-0.061,-0.18544,0.21716,-0.00976,0.1952,0.122,0.17568,-3.35744,-0.00488
0.24888,-0.16104,0.0732,-0.05124,-0.17568,0.21228,-0.00976,0.19032,0.122,0.17568,-3.35256,-0.00488
0.244,-0.1586,0.0732,-0.0488,-0.1708,0.2074,-0.00976,0.18544,0.12688,0.1708,-3.35256,-0.00488
0.22936,-0.15128,0.0732,-0.04148,-0.15616,0.19276,-0.00976,0.18056,0.122,0.1708,-3.35744,-0.00488
0.22448,-0.1464,0.06832,-0.04392,-0.15616,0.19032,-0.00488,0.16592,0.11712,0.1708,-3.36232,-0.00488
0.20496,-0.12688,0.0488,-0.05368,-0.15616,0.18056,-0.00488,0.1464,0.11712,0.15128,-3.37696,-0.00488
0.18544,-0.10736,0.02928,-0.06344,-0.15616,0.1708,0.00488,0.12688,0.10736,0.13176,-3.38672,-0.01464
0.16104,-0.08784,0.01464,-0.06588,-0.1464,0.15372,0.01464,0.11224,0.10736,0.11224,-3.41112,-0.03416
0.14152,-0.06832,-0.00488,-0.07564,-0.1464,0.14396,0.0244,0.08784,0.0976,0.0976,-3.43064,-0.0488
0.122,-0.0488,-0.0244,-0.0854,-0.1464,0.1342,0.02928,0.06344,0.09272,0.0732,-3.45504,-0.05856
0.09272,-0.0244,-0.04392,-0.09028,-0.13664,0.11468,0.03416,0.0488,0.08296,0.04392,-3.47944,-0.07808
0.0732,0,-0.0732,-0.1098,-0.1464,0.1098,0.03904,0.01952,0.0732,0.01464,-3.49896,-0.09272
0.0488,0.0244,-0.0976,-0.122,-0.1464,0.0976,0.0488,0,0.06344,0,-3.51848,-0.10736
0.03416,0.03904,-0.11224,-0.12932,-0.1464,0.09028,0.0488,-0.01464,0.05368,-0.01952,-3.54288,-0.122
0.01464,0.05856,-0.13176,-0.13908,-0.1464,0.08052,0.0488,-0.03416,0.04392,-0.03904,-3.55752,-0.13664
0.00488,0.0732,-0.15128,-0.15372,-0.15616,0.08052,0.05368,-0.05368,0.03416,-0.05856,-3.57216,-0.15128
-0.00976,0.0854,-0.16104,-0.15616,-0.15128,0.07076,0.05368,-0.05856,0.02928,-0.06832,-3.5868,-0.15616
-0.01464,0.09516,-0.17568,-0.16836,-0.16104,0.0732,0.05368,-0.07808,0.01464,-0.07808,-3.60144,-0.16592
-0.0244,0.10736,-0.19032,-0.17812,-0.16592,0.07076,0.05368,-0.08784,0,-0.08784,-3.6112,-0.17568
-0.02928,0.11224,-0.1952,-0.18056,-0.16592,0.06832,0.05856,-0.09272,0,-0.09272,-3.61608,-0.18544
-0.03904,0.122,-0.20496,-0.18544,-0.16592,0.06344,0.05856,-0.10248,-0.00976,-0.10248,-3.62584,-0.18544
-0.04392,0.12932,-0.21472,-0.19276,-0.1708,0.06344,0.05368,-0.11224,-0.00976,-0.11224,-3.6356,-0.19032
-0.03904,0.12688,-0.21472,-0.1952,-0.17568,0.06832,0.0488,-0.11712,-0.00976,-0.11224,-3.64536,-0.1952
-0.0488,0.1342,-0.2196,-0.1952,-0.1708,0.061,0.0488,-0.11712,-0.01464,-0.11712,-3.64536,-0.20008
-0.0488,0.13664,-0.22448,-0.20008,-0.17568,0.06344,0.0488,-0.122,-0.01952,-0.122,-3.65024,-0.20008
-0.05368,0.13908,-0.22448,-0.19764,-0.1708,0.05856,0.0488,-0.12688,-0.01952,-0.122,-3.65512,-0.20008
-0.05368,0.13908,-0.22448,-0.19764,-0.1708,0.05856,0.0488,-0.13176,-0.01952,-0.122,-3.66,-0.20008
-0.05368,0.13664,-0.2196,-0.19276,-0.16592,0.05612,0.05368,-0.13176,-0.01952,-0.122,-3.66488,-0.20008
-0.05368,0.1342,-0.21472,-0.18788,-0.16104,0.05368,0.05856,-0.13664,-0.01952,-0.122,-3.66488,-0.20496
-0.05856,0.13908,-0.2196,-0.19032,-0.16104,0.05124,0.05856,-0.13664,-0.01952,-0.122,-3.66488,-0.20496
-0.06344,0.14152,-0.2196,-0.18788,-0.15616,0.04636,0.05856,-0.13664,-0.01952,-0.122,-3.66976,-0.20496
-0.06344,0.14396,-0.22448,-0.19276,-0.16104,0.0488,0.05856,-0.14152,-0.01464,-0.122,-3.67464,-0.20496
-0.06832,0.14884,-0.22936,-0.1952,-0.16104,0.04636,0.05856,-0.14152,-0.01464,-0.12688,-3.67952,-0.20496
-0.06832,0.14884,-0.22936,-0.1952,-0.16104,0.04636,0.05856,-0.14152,-0.01952,-0.13176,-3.67952,-0.20496
-0.06832,0.14884,-0.22936,-0.1952,-0.16104,0.04636,0.05368,-0.14152,-0.0244,-0.13664,-3.67952,-0.20496
-0.06832,0.14884,-0.22936,-0.1952,-0.16104,0.04636,0.05368,-0.14152,-0.0244,-0.13664,-3.6844,-0.20496
-0.06832,0.14884,-0.22936,-0.1952,-0.16104,0.04636,0.05368,-0.14152,-0.0244,-0.13664,-3.6844,-0.20496
-0.06832,0.14884,-0.22936,-0.1952,-0.16104,0.04636,0.05368,-0.14152,-0.01464,-0.13664,-3.6844,-0.20496
-0.06344,0.1464,-0.22936,-0.19764,-0.16592,0.05124,0.05368,-0.13664,-0.00976,-0.13664,-3.6844,-0.20496
-0.06344,0.14396,-0.22448,-0.19276,-0.16104,0.0488,0.05368,-0.13664,-0.00976,-0.13664,-3.6844,-0.20984
-0.06344,0.14396,-0.22448,-0.19276,-0.16104,0.0488,0.05368,-0.13176,-0.00976,-0.13664,-3.68928,-0.20984
-0.05368,0.13664,-0.2196,-0.19276,-0.16592,0.05612,0.05368,-0.13176,-0.00976,-0.13176,-3.68928,-0.20984
-0.0488,0.1342,-0.2196,-0.1952,-0.1708,0.061,0.05368,-0.13176,-0.00976,-0.12688,-3.68928,-0.20984
-0.0488,0.13176,-0.21472,-0.19032,-0.16592,0.05856,0.0488,-0.13176,-0.00976,-0.12688,-3.69416,-0.20496
-0.0488,0.13176,-0.21472,-0.19032,-0.16592,0.05856,0.04392,-0.13176,-0.00976,-0.122,-3.69904,-0.1952
-0.03904,0.122,-0.20496,-0.18544,-0.16592,0.06344,0.04392,-0.13176,-0.00976,-0.122,-3.69416,-0.1952
-0.03416,0.11712,-0.20008,-0.183,-0.16592,0.06588,0.03904,-0.12688,-0.00976,-0.11712,-3.69416,-0.19032
-0.03416,0.11468,-0.1952,-0.17812,-0.16104,0.06344,0.03904,-0.12688,-0.00976,-0.11712,-3.69904,-0.1952
-0.02928,0.11224,-0.1952,-0.18056,-0.16592,0.06832,0.03904,-0.12688,-0.01464,-0.11224,-3.69904,-0.1952
-0.0244,0.1098,-0.1952,-0.183,-0.1708,0.0732,0.03904,-0.12688,-0.01464,-0.11224,-3.70392,-0.1952
-0.01952,0.10736,-0.1952,-0.18544,-0.17568,0.07808,0.03416,-0.122,-0.01464,-0.11224,-3.7088,-0.19032
-0.01952,0.10736,-0.1952,-0.18544,-0.17568,0.07808,0.03416,-0.122,-0.01464,-0.11224,-3.7088,-0.19032
-0.01464,0.10248,-0.19032,-0.183,-0.17568,0.08052,0.03416,-0.122,-0.01464,-0.11224,-3.7088,-0.19032
-0.01464,0.10248,-0.19032,-0.183,-0.17568,0.08052,0.02928,-0.122,-0.01464,-0.11224,-3.7088,-0.19032
-0.01952,0.10492,-0.19032,-0.18056,-0.1708,0.07564,0.02928,-0.12688,-0.01464,-0.11224,-3.71368,-0.19032
-0.01952,0.10492,-0.19032,-0.18056,-0.1708,0.07564,0.02928,-0.12688,-0.01464,-0.11224,-3.71368,-0.18544
-0.01952,0.10736,-0.1952,-0.18544,-0.17568,0.07808,0.02928,-0.12688,-0.01952,-0.11712,-3.71856,-0.18544
-0.01952,0.10736,-0.1952,-0.18544,-0.17568,0.07808,0.02928,-0.12688,-0.01952,-0.11712,-3.72344,-0.18544
-0.01952,0.10736,-0.1952,-0.18544,-0.17568,0.07808,0.02928,-0.12688,-0.01952,-0.11712,-3.72832,-0.18544
-0.01952,0.10736,-0.1952,-0.18544,-0.17568,0.07808,0.02928,-0.13176,-0.01952,-0.11712,-3.7332,-0.18544
-0.01952,0.10736,-0.1952,-0.18544,-0.17568,0.07808,0.0244,-0.13176,-0.01952,-0.11712,-3.73808,-0.18544
-0.01952,0.10736,-0.1952,-0.18544,-0.17568,0.07808,0.0244,-0.13664,-0.0244,-0.11712,-3.74296,-0.19032
-0.01952,0.10736,-0.1952,-0.18544,-0.17568,0.07808,0.01952,-0.13664,-0.0244,-0.11712,-3.74784,-0.19032
-0.01952,0.10736,-0.1952,-0.18544,-0.17568,0.07808,0.0244,-0.13664,-0.0244,-0.11712,-3.75272,-0.19032
-0.01464,0.10248,-0.19032,-0.183,-0.17568,0.08052,0.0244,-0.13664,-0.01952,-0.11712,-3.7576,-0.19032
-0.01464,0.10248,-0.19032,-0.183,-0.17568,0.08052,0.01952,-0.14152,-0.01952,-0.11712,-3.76248,-0.18544
-0.00488,0.09272,-0.18056,-0.17812,-0.17568,0.0854,0.0244,-0.13664,-0.00976,-0.10736,-3.76248,-0.18544
0,0.08296,-0.16592,-0.16592,-0.16592,0.08296,0.02928,-0.13176,-0.00488,-0.10248,-3.7576,-0.18056
0.00488,0.0732,-0.15128,-0.15372,-0.15616,0.08052,0.03416,-0.122,0.00976,-0.0976,-3.74784,-0.1708
0.00976,0.06344,-0.13664,-0.14152,-0.1464,0.07808,0.0488,-0.11224,0.01952,-0.08784,-3.74784,-0.16592
0.01952,0.05368,-0.12688,-0.13664,-0.1464,0.08296,0.0488,-0.10248,0.01952,-0.08296,-3.75272,-0.16104
0.0244,0.05124,-0.12688,-0.13908,-0.15128,0.08784,0.03904,-0.10248,0.01464,-0.08296,-3.75272,-0.16592
0.03416,0.04392,-0.122,-0.13908,-0.15616,0.09516,0.01952,-0.10248,0.01952,-0.07808,-3.74784,-0.16104
0.04392,0.03416,-0.11224,-0.1342,-0.15616,0.10004,0,-0.10248,0.0244,-0.06832,-3.74296,-0.15616
0.04392,0.02684,-0.0976,-0.11956,-0.14152,0.09272,-0.01464,-0.11712,0.0244,-0.06344,-3.73808,-0.15128
0.04392,0.01708,-0.07808,-0.10004,-0.122,0.08296,-0.01952,-0.13664,0.0244,-0.05856,-3.73808,-0.14152
0.03904,0.01952,-0.07808,-0.0976,-0.11712,0.07808,-0.0244,-0.1464,0.0244,-0.05856,-3.74296,-0.13664
0.02928,0.02684,-0.08296,-0.0976,-0.11224,0.07076,-0.0244,-0.16104,0.00976,-0.06832,-3.74784,-0.13176
0.01952,0.04148,-0.10248,-0.11224,-0.122,0.07076,-0.0244,-0.16104,-0.00976,-0.0732,-3.7576,-0.13664
0.01464,0.05856,-0.13176,-0.13908,-0.1464,0.08052,-0.0244,-0.16104,-0.01952,-0.08784,-3.77224,-0.14152
0.00976,0.07076,-0.15128,-0.15616,-0.16104,0.0854,-0.0244,-0.16104,-0.02928,-0.08784,-3.782,-0.15128
0.00488,0.07808,-0.16104,-0.16348,-0.16592,0.0854,-0.01464,-0.16104,-0.02928,-0.09272,-3.79664,-0.15616
0,0.09028,-0.18056,-0.18056,-0.18056,0.09028,-0.00976,-0.15128,-0.03904,-0.0976,-3.8064,-0.16104
-0.00488,0.10492,-0.20496,-0.20252,-0.20008,0.0976,-0.00488,-0.15128,-0.0488,-0.11224,-3.82104,-0.17568
-0.0244,0.12444,-0.22448,-0.21228,-0.20008,0.08784,0,-0.15128,-0.0488,-0.11712,-3.8308,-0.18544
-0.03416,0.13176,-0.22936,-0.21228,-0.1952,0.08052,0.00488,-0.15128,-0.05368,-0.12688,-3.84544,-0.19032
-0.04392,0.13664,-0.22936,-0.2074,-0.18544,0.07076,0.00976,-0.15128,-0.06344,-0.12688,-3.86008,-0.20008
-0.05368,0.15128,-0.24888,-0.22204,-0.1952,0.07076,0.01464,-0.15128,-0.0732,-0.14152,-3.86008,-0.20496
-0.05368,0.15128,-0.24888,-0.22204,-0.1952,0.07076,0.01464,-0.15616,-0.07808,-0.14152,-3.87472,-0.20496
-0.05856,0.15616,-0.25376,-0.22448,-0.1952,0.06832,0.00976,-0.15616,-0.07808,-0.1464,-3.8796,-0.20984
-0.05856,0.1586,-0.25864,-0.22936,-0.20008,0.07076,0.00976,-0.15616,-0.07808,-0.1464,-3.88448,-0.20984
-0.05368,0.15616,-0.25864,-0.2318,-0.20496,0.07564,0.00976,-0.15616,-0.08296,-0.1464,-3.88448,-0.20496
-0.05368,0.15616,-0.25864,-0.2318,-0.20496,0.07564,0.00976,-0.15616,-0.08296,-0.1464,-3.88936,-0.20008
-0.05368,0.15616,-0.25864,-0.2318,-0.20496,0.07564,0.00976,-0.15616,-0.08296,-0.14152,-3.89424,-0.20008
-0.05368,0.15616,-0.25864,-0.2318,-0.20496,0.07564,0.00976,-0.15616,-0.08296,-0.13664,-3.89912,-0.20008
-0.05856,0.15616,-0.25376,-0.22448,-0.1952,0.06832,0.00976,-0.15616,-0.08296,-0.13664,-3.904,-0.20008
-0.06344,0.1586,-0.25376,-0.22204,-0.19032,0.06344,0.00976,-0.15128,-0.07808,-0.13664,-3.90888,-0.1952
-0.06344,0.1586,-0.25376,-0.22204,-0.19032,0.06344,0.01464,-0.15616,-0.07808,-0.13176,-3.90888,-0.1952
-0.06344,0.1586,-0.25376,-0.22204,-0.19032,0.06344,0.01464,-0.15616,-0.07808,-0.12688,-3.90888,-0.20008
-0.0488,0.15128,-0.25376,-0.22936,-0.20496,0.07808,0.01464,-0.1464,-0.0732,-0.12688,-3.91376,-0.20008
-0.03416,0.16104,-0.28792,-0.27084,-0.25376,0.1098,0.03416,-0.09272,-0.07808,-0.14152,-3.94792,-0.21472
-0.00488,0.18544,-0.366,-0.36356,-0.36112,0.17812,0.11224,0.08784,-0.06832,-0.16592,-4.00648,-0.27816
0.03416,0.18544,-0.40504,-0.42212,-0.4392,0.23668,0.21472,0.27816,-0.02928,-0.16104,-4.03088,-0.32208
0.05856,0.11224,-0.28304,-0.31232,-0.3416,0.20008,0.21472,0.27816,0.09272,-0.05856,-3.96256,-0.27816
0.11712,-0.01708,-0.08296,-0.14152,-0.20008,0.1586,0.16592,0.20008,0.23424,0.13176,-3.79176,-0.15616
0.20008,-0.244,0.28792,0.18788,0.08784,0.05612,0.04392,0.06832,0.3904,0.43432,-3.50384,0.08784
0.32208,-0.50508,0.68808,0.52704,0.366,-0.02196,-0.18544,-0.23912,0.488,0.74664,-3.16712,0.3904
0.40992,-0.75152,1.09312,0.88816,0.6832,-0.13664,-0.42944,-0.6344,0.58072,1.09312,-2.79136,0.72224
0.44408,-0.96624,1.4884,1.26636,1.04432,-0.30012,-0.64904,-0.9272,0.69784,1.43472,-2.44,1.0248
0.39528,-1.07604,1.7568,1.55916,1.36152,-0.48312,-0.76616,-1.09312,0.7808,1.66896,-2.20576,1.23952
0.2196,-0.98576,1.75192,1.64212,1.53232,-0.65636,-0.78568,-1.21024,0.74664,1.59088,-2.22528,1.22976
0.00488,-0.70272,1.40056,1.39812,1.39568,-0.6954,-0.75152,-1.22488,0.6344,1.19072,-2.60592,0.976
-0.23424,-0.35624,0.94672,1.06384,1.18096,-0.7076,-0.62464,-1.22976,0.33184,0.60024,-3.12808,0.60512
-0.32696,-0.13176,0.59048,0.75396,0.91744,-0.6222,-0.50752,-1.17608,-0.00488,0.14152,-3.52336,0.33184
-0.30256,-0.03172,0.366,0.51728,0.66856,-0.48556,-0.43432,-1.03944,-0.1464,-0.03416,-3.6844,0.1708
-0.2928,0.01708,0.25864,0.40504,0.55144,-0.42212,-0.36112,-0.84912,-0.1464,-0.06344,-3.75272,0.05368
-0.25376,0.07808,0.0976,0.22448,0.35136,-0.30256,-0.22448,-0.5856,-0.13176,-0.10248,-3.83568,-0.0488
-0.15128,0.08296,-0.01464,0.061,0.13664,-0.14396,-0.11712,-0.40504,-0.10736,-0.10248,-3.88448,-0.11712
-0.09272,0.09516,-0.0976,-0.05124,-0.00488,-0.04392,-0.05856,-0.30256,-0.09272,-0.11224,-3.904,-0.1464
-0.08784,0.13176,-0.17568,-0.13176,-0.08784,0,-0.03416,-0.20008,-0.08784,-0.122,-3.93328,-0.18056
-0.07808,0.14396,-0.20984,-0.1708,-0.13176,0.02684,-0.00976,-0.13664,-0.08784,-0.13664,-3.9528,-0.18544
-0.05856,0.13664,-0.21472,-0.18544,-0.15616,0.0488,0.01464,-0.13664,-0.08296,-0.14152,-3.95768,-0.20496
-0.04392,0.13176,-0.2196,-0.19764,-0.17568,0.06588,0.02928,-0.13664,-0.0732,-0.14152,-3.95768,-0.20008
-0.03904,0.12932,-0.2196,-0.20008,-0.18056,0.07076,0.02928,-0.12688,-0.0732,-0.13664,-3.96256,-0.20008
-0.03904,0.12932,-0.2196,-0.20008,-0.18056,0.07076,0.02928,-0.11224,-0.0732,-0.13664,-3.96256,-0.20496
-0.03416,0.13176,-0.22936,-0.21228,-0.1952,0.08052,0.02928,-0.11224,-0.0732,-0.13176,-3.96256,-0.20496
-0.03416,0.1342,-0.23424,-0.21716,-0.20008,0.08296,0.02928,-0.11224,-0.0732,-0.12688,-3.96256,-0.20496
-0.03416,0.13176,-0.22936,-0.21228,-0.1952,0.08052,0.02928,-0.11224,-0.0732,-0.12688,-3.96256,-0.20008
-0.03416,0.13176,-0.22936,-0.21228,-0.1952,0.08052,0.02928,-0.11224,-0.06832,-0.12688,-3.96744,-0.1952
-0.02928,0.12932,-0.22936,-0.21472,-0.20008,0.0854,0.02928,-0.10736,-0.06344,-0.12688,-3.96744,-0.19032
-0.02928,0.12932,-0.22936,-0.21472,-0.20008,0.0854,0.02928,-0.10248,-0.05856,-0.12688,-3.96744,-0.19032
-0.0244,0.12688,-0.22936,-0.21716,-0.20496,0.09028,0.02928,-0.10248,-0.05856,-0.122,-3.96256,-0.19032
-0.0244,0.12688,-0.22936,-0.21716,-0.20496,0.09028,0.02928,-0.10248,-0.05856,-0.122,-3.96256,-0.19032
-0.01952,0.11956,-0.2196,-0.20984,-0.20008,0.09028,0.02928,-0.0976,-0.05856,-0.11712,-3.96256,-0.18544
-0.01952,0.11712,-0.21472,-0.20496,-0.1952,0.08784,0.02928,-0.0976,-0.05856,-0.11712,-3.96256,-0.18544
-0.01952,0.11712,-0.21472,-0.20496,-0.1952,0.08784,0.02928,-0.0976,-0.05856,-0.11712,-3.96256,-0.18544
-0.01952,0.11712,-0.21472,-0.20496,-0.1952,0.08784,0.02928,-0.0976,-0.05856,-0.11712,-3.96256,-0.18544
-0.01464,0.11468,-0.21472,-0.2074,-0.20008,0.09272,0.02928,-0.0976,-0.05368,-0.11224,-3.95768,-0.18544
-0.00976,0.11224,-0.21472,-0.20984,-0.20496,0.0976,0.02928,-0.0976,-0.0488,-0.10736,-3.9528,-0.18544
-0.00488,0.10736,-0.20984,-0.2074,-0.20496,0.10004,0.0244,-0.09272,-0.04392,-0.10248,-3.9528,-0.18056
0,0.10248,-0.20496,-0.20496,-0.20496,0.10248,0.01952,-0.08784,-0.03904,-0.0976,-3.9528,-0.17568
0.00488,0.0976,-0.20008,-0.20252,-0.20496,0.10492,0.01952,-0.08296,-0.03904,-0.09272,-3.9528,-0.17568
0.00976,0.09272,-0.1952,-0.20008,-0.20496,0.10736,0.01952,-0.07808,-0.03904,-0.08784,-3.9528,-0.17568
0.01464,0.09028,-0.1952,-0.20252,-0.20984,0.11224,0.01952,-0.06832,-0.03416,-0.08296,-3.94792,-0.1708
0.01952,0.08784,-0.1952,-0.20496,-0.21472,0.11712,0.01952,-0.05856,-0.02928,-0.07808,-3.94304,-0.16592
0.02928,0.08052,-0.19032,-0.20496,-0.2196,0.12444,0.01464,-0.0488,-0.0244,-0.06832,-3.93328,-0.16104
0.03904,0.0732,-0.18544,-0.20496,-0.22448,0.13176,0.00976,-0.03904,-0.01952,-0.05856,-3.92352,-0.15616
0.0488,0.06344,-0.17568,-0.20008,-0.22448,0.13664,0.00976,-0.02928,-0.01464,-0.0488,-3.91864,-0.15128
0.05856,0.05368,-0.16592,-0.1952,-0.22448,0.14152,0.00976,-0.01952,-0.00976,-0.03904,-3.91376,-0.1464
0.06832,0.04392,-0.15616,-0.19032,-0.22448,0.1464,0.00488,0,-0.00488,-0.02928,-3.90888,-0.14152
0.07808,0.03416,-0.1464,-0.18544,-0.22448,0.15128,0,0.01952,0,-0.01952,-3.904,-0.13664
0.09272,0.02196,-0.13664,-0.183,-0.22936,0.16104,-0.00488,0.02928,0.00976,0,-3.88936,-0.12688
0.10736,0.00976,-0.12688,-0.18056,-0.23424,0.1708,-0.00976,0.03904,0.01952,0.01952,-3.87472,-0.11712
0.12688,-0.00976,-0.10736,-0.1708,-0.23424,0.18056,-0.01464,0.06344,0.02928,0.03904,-3.8552,-0.0976
0.1464,-0.02928,-0.08784,-0.16104,-0.23424,0.19032,-0.01952,0.08784,0.03904,0.05856,-3.83568,-0.07808
0.16592,-0.05124,-0.06344,-0.1464,-0.22936,0.19764,-0.0244,0.0976,0.0488,0.08296,-3.81616,-0.05856
0.18544,-0.0732,-0.03904,-0.13176,-0.22448,0.20496,-0.02928,0.10736,0.05856,0.10736,-3.79664,-0.03904
0.1952,-0.09028,-0.01464,-0.11224,-0.20984,0.20252,-0.03416,0.122,0.06344,0.13176,-3.77712,-0.0244
0.20496,-0.10736,0.00976,-0.09272,-0.1952,0.20008,-0.03904,0.13664,0.06832,0.15616,-3.7576,-0.00976
0.2196,-0.12444,0.02928,-0.08052,-0.19032,0.20496,-0.04392,0.14152,0.07808,0.17568,-3.74296,0
0.23424,-0.14152,0.0488,-0.06832,-0.18544,0.20984,-0.0488,0.1464,0.08784,0.1952,-3.72832,0.00976
0.23912,-0.15128,0.06344,-0.05612,-0.17568,0.2074,-0.05856,0.1464,0.09272,0.20496,-3.71856,0.01952
0.244,-0.16104,0.07808,-0.04392,-0.16592,0.20496,-0.06832,0.1464,0.0976,0.21472,-3.7088,0.02928
0.244,-0.16836,0.09272,-0.02928,-0.15128,0.19764,-0.06832,0.1464,0.10248,0.22448,-3.70392,0.03904
0.244,-0.17568,0.10736,-0.01464,-0.13664,0.19032,-0.06832,0.1464,0.10736,0.23424,-3.69904,0.0488
0.244,-0.17568,0.10736,-0.01464,-0.13664,0.19032,-0.06832,0.13664,0.10736,0.23424,-3.69904,0.0488
0.244,-0.17568,0.10736,-0.01464,-0.13664,0.19032,-0.06832,0.12688,0.10736,0.23424,-3.69904,0.0488
0.23424,-0.1708,0.10736,-0.00976,-0.12688,0.18056,-0.06832,0.11712,0.10736,0.22936,-3.69904,0.0488
0.22448,-0.16592,0.10736,-0.00488,-0.11712,0.1708,-0.06832,0.10736,0.10736,0.22448,-3.69904,0.0488
0.20496,-0.14884,0.09272,-0.00976,-0.11224,0.1586,-0.06344,0.09272,0.10248,0.20984,-3.7088,0.04392
0.18544,-0.13176,0.07808,-0.01464,-0.10736,0.1464,-0.05856,0.07808,0.0976,0.1952,-3.71856,0.03904
0.16592,-0.11224,0.05856,-0.0244,-0.10736,0.13664,-0.0488,0.05368,0.09272,0.1708,-3.73808,0.02928
0.1464,-0.09272,0.03904,-0.03416,-0.10736,0.12688,-0.03904,0.02928,0.08784,0.1464,-3.7576,0.01952
0.12688,-0.0732,0.01952,-0.04392,-0.10736,0.11712,-0.03416,0.00976,0.07808,0.122,-3.782,0.00488
0.10736,-0.05368,0,-0.05368,-0.10736,0.10736,-0.02928,-0.00976,0.06832,0.0976,-3.8064,-0.00976
0.08296,-0.02928,-0.0244,-0.06588,-0.10736,0.09516,-0.0244,-0.03904,0.05368,0.07808,-3.82104,-0.0244
0.05856,-0.00488,-0.0488,-0.07808,-0.10736,0.08296,-0.01952,-0.06832,0.03904,0.05856,-3.83568,-0.03904
0.04392,0.00732,-0.05856,-0.08052,-0.10248,0.0732,-0.01464,-0.07808,0.02928,0.04392,-3.8552,-0.0488
0.02928,0.01952,-0.06832,-0.08296,-0.0976,0.06344,-0.00976,-0.08784,0.01952,0.02928,-3.87472,-0.05856
0.01952,0.03416,-0.08784,-0.0976,-0.10736,0.06344,-0.00488,-0.10248,0.00976,0.01464,-3.88936,-0.06832
0.00976,0.0488,-0.10736,-0.11224,-0.11712,0.06344,0,-0.11712,0,0,-3.904,-0.07808
0,0.05856,-0.11712,-0.11712,-0.11712,0.05856,0,-0.12688,-0.00976,-0.00976,-3.91376,-0.08784
-0.00976,0.06832,-0.12688,-0.122,-0.11712,0.05368,0,-0.13664,-0.01952,-0.01952,-3.92352,-0.0976
-0.01464,0.0732,-0.13176,-0.12444,-0.11712,0.05124,-0.00488,-0.1464,-0.0244,-0.02928,-3.93328,-0.10248
-0.01952,0.07808,-0.13664,-0.12688,-0.11712,0.0488,-0.00976,-0.15616,-0.02928,-0.03904,-3.94304,-0.10736
-0.0244,0.08296,-0.14152,-0.12932,-0.11712,0.04636,-0.00976,-0.16104,-0.03416,-0.04392,-3.94304,-0.10736
-0.02928,0.08784,-0.1464,-0.13176,-0.11712,0.04392,-0.00976,-0.16592,-0.03904,-0.0488,-3.94304,-0.10736
-0.02928,0.08784,-0.1464,-0.13176,-0.11712,0.04392,-0.00488,-0.1708,-0.03904,-0.0488,-3.94792,-0.10736
-0.02928,0.08784,-0.1464,-0.13176,-0.11712,0.04392,0,-0.17568,-0.03904,-0.0488,-3.9528,-0.10736
-0.02928,0.08784,-0.1464,-0.13176,-0.11712,0.04392,0,-0.18056,-0.03904,-0.0488,-3.9528,-0.10736
-0.02928,0.08784,-0.1464,-0.13176,-0.11712,0.04392,0,-0.18544,-0.03904,-0.0488,-3.9528,-0.10736
-0.03416,0.09028,-0.1464,-0.12932,-0.11224,0.03904,-0.00488,-0.18544,-0.03904,-0.0488,-3.9528,-0.10736
-0.03904,0.09272,-0.1464,-0.12688,-0.10736,0.03416,-0.00976,-0.18544,-0.03904,-0.0488,-3.9528,-0.10736
-0.03904,0.09272,-0.1464,-0.12688,-0.10736,0.03416,-0.00976,-0.18544,-0.03904,-0.0488,-2.074,-0.10736
-0.03904,0.09272,-0.1464,-0.12688,-0.10736,0.03416,-0.00976,-0.18544,-0.03904,-0.0488,-0.1952,-0.10736
-0.04392,0.09516,-0.1464,-0.12444,-0.10248,0.02928,-0.00488,-0.18544,-0.03904,-0.0488,-0.1952,-0.10736
-0.0488,0.0976,-0.1464,-0.122,-0.0976,0.0244,0,-0.18544,-0.03904,-0.0488,-0.1952,-0.10736
-0.0488,0.0976,-0.1464,-0.122,-0.0976,0.0244,0,-0.18544,-0.03904,-0.0488,-0.18544,-0.10736
-0.0488,0.0976,-0.1464,-0.122,-0.0976,0.0244,0,-0.18544,-0.03904,-0.0488,-0.17568,-0.10736
-0.0488,0.09516,-0.14152,-0.11712,-0.09272,0.02196,0,-0.18544,-0.03904,-0.0488,-0.16592,-0.10736
-0.0488,0.09272,-0.13664,-0.11224,-0.08784,0.01952,0,-0.18544,-0.03904,-0.0488,-0.15616,-0.10736
-0.04392,0.08784,-0.13176,-0.1098,-0.08784,0.02196,0,-0.18056,-0.03904,-0.0488,-0.15128,-0.10248
-0.03904,0.08296,-0.12688,-0.10736,-0.08784,0.0244,0,-0.17568,-0.03904,-0.0488,-0.1464,-0.0976
-0.03904,0.08296,-0.12688,-0.10736,-0.08784,0.0244,0,-0.17568,-0.03904,-0.04392,-0.14152,-0.0976
-0.03904,0.08296,-0.12688,-0.10736,-0.08784,0.0244,0,-0.17568,-0.03904,-0.03904,-0.13664,-0.0976
-0.03416,0.07808,-0.122,-0.10492,-0.08784,0.02684,0,-0.17568,-0.03904,-0.03904,-0.12688,-0.0976
-0.02928,0.0732,-0.11712,-0.10248,-0.08784,0.02928,0,-0.17568,-0.03904,-0.03904,-0.11712,-0.0976
-0.0244,0.06832,-0.11224,-0.10004,-0.08784,0.03172,-0.00488,-0.17568,-0.03904,-0.03904,-0.11224,-0.09272
-0.01952,0.06344,-0.10736,-0.0976,-0.08784,0.03416,-0.00976,-0.17568,-0.03904,-0.03904,-0.10736,-0.08784
-0.01464,0.05856,-0.10248,-0.09516,-0.08784,0.0366,-0.00976,-0.17568,-0.03904,-0.03416,-0.10248,-0.08784
-0.00976,0.05368,-0.0976,-0.09272,-0.08784,0.03904,-0.00976,-0.17568,-0.03904,-0.02928,-0.0976,-0.08784
-0.00976,0.05124,-0.09272,-0.08784,-0.08296,0.0366,-0.00976,-0.1708,-0.03904,-0.02928,-0.0976,-0.08296
-0.00976,0.0488,-0.08784,-0.08296,-0.07808,0.03416,-0.00976,-0.16592,-0.03904,-0.02928,-0.0976,-0.07808
-0.00488,0.04636,-0.08784,-0.0854,-0.08296,0.03904,-0.00976,-0.16592,-0.03904,-0.0244,-0.09272,-0.0732
0,0.04392,-0.08784,-0.08784,-0.08784,0.04392,-0.00976,-0.16592,-0.03904,-0.01952,-0.08784,-0.06832
0,0.04148,-0.08296,-0.08296,-0.08296,0.04148,-0.00976,-0.16592,-0.03904,-0.01952,-0.08296,-0.06832
0,0.03904,-0.07808,-0.07808,-0.07808,0.03904,-0.00976,-0.16592,-0.03904,-0.01952,-0.07808,-0.06832
0.00488,0.0366,-0.07808,-0.08052,-0.08296,0.04392,-0.00976,-0.16592,-0.03904,-0.01952,-0.07808,-0.06344
0.00976,0.03416,-0.07808,-0.08296,-0.08784,0.0488,-0.00976,-0.16592,-0.03904,-0.01952,-0.07808,-0.05856
0.00976,0.03416,-0.07808,-0.08296,-0.08784,0.0488,-0.00976,-0.16592,-0.03904,-0.01952,-0.0732,-0.05856
0.00976,0.03416,-0.07808,-0.08296,-0.08784,0.0488,-0.00976,-0.16592,-0.03904,-0.01952,-0.06832,-0.05856
0.00976,0.03416,-0.07808,-0.08296,-0.08784,0.0488,-0.00976,-0.16592,-0.03904,-0.01952,-0.06832,-0.05856
0.00976,0.03416,-0.07808,-0.08296,-0.08784,0.0488,-0.00976,-0.16592,-0.03904,-0.01952,-0.06832,-0.05856
0.00976,0.0366,-0.08296,-0.08784,-0.09272,0.05124,-0.00976,-0.16592,-0.03904,-0.01952,-0.06832,-0.05856
0.00976,0.03904,-0.08784,-0.09272,-0.0976,0.05368,-0.00976,-0.16592,-0.03904,-0.01952,-0.06832,-0.05856
0.00488,0.04148,-0.08784,-0.09028,-0.09272,0.0488,-0.00976,-0.16592,-0.04392,-0.01952,-0.06832,-0.05856
0,0.04392,-0.08784,-0.08784,-0.08784,0.04392,-0.00976,-0.16592,-0.04392,-0.01952,-0.06832,-0.05856
0,0.04392,-0.08784,-0.08784,-0.08784,0.04392,-0.00976,-0.16592,-0.0488,-0.01952,-0.06832,-0.05856
0,0.04392,-0.08784,-0.08784,-0.08784,0.04392,-0.00976,-0.16592,-0.05368,-0.01952,-0.06832,-0.06344
0.00488,0.04148,-0.08784,-0.09028,-0.09272,0.0488,-0.00976,-0.16592,-0.05368,-0.01952,-0.06344,-0.05856
0.00976,0.03904,-0.08784,-0.09272,-0.0976,0.05368,-0.00488,-0.16592,-0.05368,-0.01952,-0.05856,-0.05368
0.01464,0.03172,-0.07808,-0.0854,-0.09272,0.05368,-0.00488,-0.1708,-0.0488,-0.01952,-0.05856,-0.05368
0.01464,0.02928,-0.0732,-0.08052,-0.08784,0.05124,-0.00488,-0.17568,-0.0488,-0.01952,-0.05856,-0.0488
0.01952,0.02196,-0.06344,-0.0732,-0.08296,0.05124,0.00488,-0.16592,-0.03904,-0.00488,-0.05368,-0.0488
0.01952,0.01464,-0.0488,-0.05856,-0.06832,0.04392,0.00976,-0.16104,-0.03416,0.00488,-0.0488,-0.04392
0.0244,0.00488,-0.03416,-0.04636,-0.05856,0.04148,0.01464,-0.15128,-0.01952,0.00976,-0.03416,-0.03416
0.02928,-0.00488,-0.01952,-0.03416,-0.0488,0.03904,0.02928,-0.14152,-0.00976,0.01952,-0.0244,-0.02928
0.03904,-0.01464,-0.00976,-0.02928,-0.0488,0.04392,0.03416,-0.12688,-0.00976,0.01952,-0.0244,-0.01952
0.04392,-0.01708,-0.00976,-0.03172,-0.05368,0.0488,0.02928,-0.122,-0.00976,0.01464,-0.0244,-0.01464
0.05368,-0.0244,-0.00488,-0.03172,-0.05856,0.05612,0.00976,-0.122,-0.00488,0.01952,-0.01952,-0.00488
0.06344,-0.03416,0.00488,-0.02684,-0.05856,0.061,-0.00976,-0.12688,-0.00488,0.02928,-0.01464,0
0.06344,-0.04148,0.01952,-0.0122,-0.04392,0.05368,-0.02928,-0.1464,-0.00488,0.03904,-0.00488,0.00976
0.06344,-0.05124,0.03904,0.00732,-0.0244,0.04392,-0.03904,-0.16592,-0.00488,0.0488,0.00488,0.0244
0.05856,-0.0488,0.03904,0.00976,-0.01952,0.03904,-0.04392,-0.17568,-0.00488,0.0488,0.00488,0.02928
0.0488,-0.04392,0.03904,0.01464,-0.00976,0.02928,-0.04392,-0.19032,-0.01464,0.03904,0,0.02928
0.03904,-0.03172,0.0244,0.00488,-0.01464,0.02684,-0.04392,-0.19032,-0.02928,0.03416,-0.00976,0.01952
0.03416,-0.01464,-0.00488,-0.02196,-0.03904,0.0366,-0.04392,-0.19032,-0.03904,0.01464,-0.0244,0.01464
0.03416,-0.00488,-0.0244,-0.04148,-0.05856,0.04636,-0.04392,-0.19032,-0.0488,0.00976,-0.03416,0.00488
0.03416,0,-0.03416,-0.05124,-0.06832,0.05124,-0.03416,-0.19032,-0.0488,0.00488,-0.04392,0
0.02928,0.0122,-0.05368,-0.06832,-0.08296,0.05612,-0.02928,-0.18056,-0.05856,0,-0.0488,-0.00488
0.0244,0.02684,-0.07808,-0.09028,-0.10248,0.06344,-0.0244,-0.18056,-0.06832,-0.01464,-0.05856,-0.01952
0.00488,0.04636,-0.0976,-0.10004,-0.10248,0.05368,-0.01952,-0.18056,-0.0732,-0.01952,-0.06344,-0.02928
-0.00488,0.05612,-0.10736,-0.10492,-0.10248,0.0488,-0.01464,-0.18056,-0.08296,-0.02928,-0.0732,-0.03416
-0.01464,0.06344,-0.11224,-0.10492,-0.0976,0.04148,-0.00976,-0.18056,-0.09272,-0.02928,-0.07808,-0.04392
-0.0244,0.07808,-0.13176,-0.11956,-0.10736,0.04148,-0.00488,-0.18056,-0.0976,-0.04392,-0.0732,-0.0488
-0.0244,0.08052,-0.13664,-0.12444,-0.11224,0.04392,-0.00488,-0.18544,-0.10248,-0.0488,-0.08296,-0.0488
-0.02928,0.08784,-0.1464,-0.13176,-0.11712,0.04392,-0.00488,-0.18544,-0.10736,-0.05856,-0.07808,-0.05368
-0.03416,0.09272,-0.15128,-0.1342,-0.11712,0.04148,0,-0.18544,-0.10736,-0.05856,-0.0732,-0.05856
-0.03416,0.09272,-0.15128,-0.1342,-0.11712,0.04148,0,-0.18544,-0.11224,-0.05856,-0.06832,-0.06344
-0.03416,0.09272,-0.15128,-0.1342,-0.11712,0.04148,0,-0.18544,-0.11224,-0.05856,-0.06832,-0.06344
-0.03416,0.09272,-0.15128,-0.1342,-0.11712,0.04148,0,-0.18544,-0.11224,-0.05856,-0.06344,-0.06344
-0.02928,0.09028,-0.15128,-0.13664,-0.122,0.04636,0,-0.18544,-0.11224,-0.05368,-0.05856,-0.06344
-0.0244,0.0854,-0.1464,-0.1342,-0.122,0.0488,0,-0.18544,-0.11224,-0.0488,-0.05368,-0.06344
-0.0244,0.0854,-0.1464,-0.1342,-0.122,0.0488,-0.00488,-0.18056,-0.10736,-0.0488,-0.0488,-0.05856
-0.0244,0.0854,-0.1464,-0.1342,-0.122,0.0488,-0.00488,-0.18056,-0.10736,-0.0488,-0.04392,-0.05856
-0.02928,0.08784,-0.1464,-0.13176,-0.11712,0.04392,-0.00488,-0.18544,-0.11224,-0.0488,-0.03416,-0.05856
-0.01952,0.08296,-0.1464,-0.13664,-0.12688,0.05368,-0.00488,-0.18544,-0.11712,-0.0488,-0.02928,-0.05856
-0.01464,0.0976,-0.18056,-0.17324,-0.16592,0.07564,0.01464,-0.13176,-0.13176,-0.06344,-0.05368,-0.07808
0.00488,0.12932,-0.26352,-0.26596,-0.2684,0.13664,0.09272,0.0488,-0.12688,-0.09272,-0.10248,-0.14152
0.04392,0.14884,-0.3416,-0.36356,-0.38552,0.21472,0.20496,0.24888,-0.0976,-0.122,-0.15616,-0.20984
0.0732,0.09272,-0.25864,-0.29524,-0.33184,0.20252,0.21472,0.25864,0.00976,-0.06344,-0.11712,-0.19032
0.12688,-0.01952,-0.08784,-0.15128,-0.21472,0.1708,0.19032,0.1952,0.1464,0.0976,0.02928,-0.08296
0.2196,-0.23912,0.25864,0.14884,0.03904,0.09028,0.08784,0.0732,0.30256,0.38064,0.28304,0.15128
0.37088,-0.51484,0.6588,0.47336,0.28792,0.04148,-0.16104,-0.23912,0.40016,0.68808,0.54168,0.44408
0.48312,-0.77836,1.0736,0.83204,0.59048,-0.05368,-0.43432,-0.6344,0.50264,1.03456,0.84912,0.77104
0.57096,-1.0614,1.55184,1.26636,0.98088,-0.20496,-0.69784,-0.94672,0.64416,1.4396,1.18096,1.15168
0.55144,-1.22488,1.89832,1.6226,1.34688,-0.39772,-0.85888,-1.13704,0.74176,1.75192,1.39568,1.44448
0.37576,-1.16876,1.96176,1.77388,1.586,-0.60512,-0.91744,-1.27856,0.73688,1.75192,1.35176,1.49328
0.15128,-0.91988,1.68848,1.61284,1.5372,-0.69296,-0.89792,-1.32248,0.6588,1.4396,0.94672,1.30296
-0.14152,-0.53436,1.21024,1.281,1.35176,-0.74664,-0.74664,-1.33712,0.3416,0.82472,0.36112,0.9272
-0.27816,-0.25376,0.78568,0.92476,1.06384,-0.671,-0.59048,-1.26392,-0.00976,0.3172,-0.0976,0.61
-0.26352,-0.11956,0.50264,0.6344,0.76616,-0.51484,-0.49288,-1.11752,-0.16104,0.10736,-0.2928,0.39528
-0.25376,-0.05612,0.366,0.49288,0.61976,-0.43676,-0.4148,-0.93208,-0.17568,0.03416,-0.39528,0.24888
-0.2196,0.00976,0.20008,0.30988,0.41968,-0.31964,-0.25864,-0.64416,-0.16104,-0.01464,-0.45384,0.1464
-0.122,0.01952,0.08296,0.14396,0.20496,-0.16348,-0.13664,-0.44408,-0.1464,-0.01952,-0.47824,0.06832
-0.06344,0.03172,0,0.03172,0.06344,-0.06344,-0.07808,-0.3416,-0.14152,-0.03416,-0.47824,0.00976
-0.05856,0.06832,-0.07808,-0.0488,-0.01952,-0.01952,-0.05368,-0.23912,-0.13664,-0.04392,-0.48312,-0.04392
-0.0488,0.08052,-0.11224,-0.08784,-0.06344,0.00732,-0.01464,-0.16592,-0.13664,-0.05856,-0.45872,-0.03904
-0.02928,0.07564,-0.122,-0.10736,-0.09272,0.03172,0.0244,-0.15616,-0.13176,-0.06344,-0.42456,-0.05368
-0.01464,0.0732,-0.13176,-0.12444,-0.11712,0.05124,0.02928,-0.15616,-0.11712,-0.05856,-0.39528,-0.05368
-0.00976,0.07076,-0.13176,-0.12688,-0.122,0.05612,0.01952,-0.1464,-0.11224,-0.0488,-0.37088,-0.05368
-0.00976,0.07076,-0.13176,-0.12688,-0.122,0.05612,0.01952,-0.13176,-0.11224,-0.0488,-0.3416,-0.06344
-0.00488,0.07076,-0.13664,-0.1342,-0.13176,0.06344,0.01952,-0.13176,-0.11224,-0.0488,-0.31232,-0.06832
0,0.06832,-0.13664,-0.13664,-0.13664,0.06832,0.01952,-0.13176,-0.11712,-0.0488,-0.2928,-0.06832
0.00488,0.06344,-0.13176,-0.1342,-0.13664,0.07076,0.01952,-0.13176,-0.122,-0.0488,-0.27328,-0.06832
0.00488,0.06344,-0.13176,-0.1342,-0.13664,0.07076,0.01952,-0.13176,-0.11712,-0.0488,-0.25376,-0.06832
0.00976,0.061,-0.13176,-0.13664,-0.14152,0.07564,0.01952,-0.13176,-0.11224,-0.0488,-0.22936,-0.06344
0.00976,0.05856,-0.12688,-0.13176,-0.13664,0.0732,0.01952,-0.13176,-0.10736,-0.0488,-0.21472,-0.05856
0.01464,0.05368,-0.122,-0.12932,-0.13664,0.07564,0.01952,-0.13176,-0.10736,-0.04392,-0.1952,-0.05368
0.00976,0.05612,-0.122,-0.12688,-0.13176,0.07076,0.01952,-0.13176,-0.10736,-0.04392,-0.17568,-0.05368
0.00976,0.05612,-0.122,-0.12688,-0.13176,0.07076,0.01952,-0.13176,-0.10736,-0.04392,-0.15616,-0.05368
0.00976,0.05612,-0.122,-0.12688,-0.13176,0.07076,0.01952,-0.12688,-0.10736,-0.03904,-0.1464,-0.05368
0.00976,0.05612,-0.122,-0.12688,-0.13176,0.07076,0.01952,-0.12688,-0.10736,-0.03904,-0.13664,-0.05368
0.01464,0.05124,-0.11712,-0.12444,-0.13176,0.0732,0.01952,-0.12688,-0.10248,-0.03416,-0.122,-0.05368
0.01952,0.0488,-0.11712,-0.12688,-0.13664,0.07808,0.01952,-0.122,-0.10248,-0.03416,-0.10736,-0.0488
0.0244,0.04636,-0.11712,-0.12932,-0.14152,0.08296,0.01464,-0.122,-0.10736,-0.03416,-0.0976,-0.0488
0.0244,0.04392,-0.11224,-0.12444,-0.13664,0.08052,0.01464,-0.11224,-0.11224,-0.02928,-0.09272,-0.0488
0.02928,0.03904,-0.10736,-0.122,-0.13664,0.08296,0.01464,-0.11224,-0.10736,-0.02928,-0.08296,-0.04392
0.03416,0.03416,-0.10248,-0.11956,-0.13664,0.0854,0.01464,-0.10736,-0.10736,-0.0244,-0.06832,-0.04392
0.03904,0.02928,-0.0976,-0.11712,-0.13664,0.08784,0.00976,-0.10736,-0.10248,-0.01464,-0.06832,-0.04392
0.04392,0.02684,-0.0976,-0.11956,-0.14152,0.09272,0.00976,-0.0976,-0.0976,-0.01464,-0.05856,-0.03904
0.04392,0.02684,-0.0976,-0.11956,-0.14152,0.09272,0.00976,-0.09272,-0.09272,-0.00976,-0.0488,-0.03416
0.0488,0.01952,-0.08784,-0.11224,-0.13664,0.09272,0.00976,-0.08296,-0.08784,-0.00488,-0.03904,-0.0244
0.05856,0.00976,-0.07808,-0.10736,-0.13664,0.0976,0.00488,-0.0732,-0.07808,0,-0.02928,-0.0244
0.0732,-0.00244,-0.06832,-0.10492,-0.14152,0.10736,0.00488,-0.05856,-0.0732,0.00488,-0.01952,-0.0244
0.07808,-0.00732,-0.06344,-0.10248,-0.14152,0.1098,0.00488,-0.05368,-0.06344,0.01464,-0.01464,-0.01952
0.09272,-0.01708,-0.05856,-0.10492,-0.15128,0.122,0,-0.03904,-0.05856,0.02928,-0.00976,-0.00976
0.0976,-0.02684,-0.04392,-0.09272,-0.14152,0.11956,0,-0.01952,-0.05368,0.03904,0.00488,-0.00488
0.10736,-0.0366,-0.03416,-0.08784,-0.14152,0.12444,-0.00976,0,-0.04392,0.0488,0.01464,0.00488
0.122,-0.0488,-0.0244,-0.0854,-0.1464,0.1342,-0.00976,0.01464,-0.03904,0.06832,0.0244,0.00976
0.14152,-0.06832,-0.00488,-0.07564,-0.1464,0.14396,-0.01464,0.02928,-0.03416,0.08296,0.03416,0.0244
0.1708,-0.09028,0.00976,-0.07564,-0.16104,0.16592,-0.01952,0.05856,-0.01464,0.10736,0.05368,0.03416
0.19032,-0.11224,0.03416,-0.061,-0.15616,0.17324,-0.0244,0.07808,-0.00976,0.12688,0.06344,0.0488
0.20496,-0.1342,0.06344,-0.03904,-0.14152,0.17324,-0.02928,0.0976,0,0.1464,0.0732,0.06344
0.22936,-0.1586,0.08784,-0.02684,-0.14152,0.18544,-0.04392,0.10736,0.01464,0.1708,0.09272,0.08296
0.23912,-0.1708,0.10248,-0.01708,-0.13664,0.18788,-0.04392,0.11712,0.0244,0.1952,0.10736,0.0976
0.25376,-0.18788,0.122,-0.00488,-0.13176,0.19276,-0.05856,0.122,0.0244,0.20984,0.11712,0.11712
0.26352,-0.2074,0.15128,0.01952,-0.11224,0.18788,-0.05856,0.13176,0.02928,0.23424,0.122,0.13664
0.27328,-0.22448,0.17568,0.03904,-0.0976,0.18544,-0.06344,0.13176,0.03416,0.24888,0.13176,0.1464
0.28792,-0.23424,0.18056,0.0366,-0.10736,0.19764,-0.06832,0.13664,0.03904,0.2684,0.13664,0.16104
0.2928,-0.244,0.1952,0.0488,-0.0976,0.1952,-0.0732,0.13664,0.04392,0.28304,0.13664,0.1708
0.29768,-0.25132,0.20496,0.05612,-0.09272,0.1952,-0.07808,0.13176,0.04392,0.28304,0.12688,0.17568
0.29768,-0.25864,0.2196,0.07076,-0.07808,0.18788,-0.07808,0.122,0.04392,0.28792,0.122,0.18544
0.2928,-0.25864,0.22448,0.07808,-0.06832,0.18056,-0.07808,0.11712,0.0488,0.28792,0.11712,0.19032
0.28304,-0.2562,0.22936,0.08784,-0.05368,0.16836,-0.07808,0.11224,0.0488,0.28792,0.10736,0.19032
0.28304,-0.25376,0.22448,0.08296,-0.05856,0.1708,-0.07808,0.09272,0.0488,0.2928,0.0976,0.19032
0.26352,-0.23912,0.21472,0.08296,-0.0488,0.15616,-0.08296,0.06832,0.0488,0.28304,0.07808,0.19032
0.244,-0.22448,0.20496,0.08296,-0.03904,0.14152,-0.0732,0.0488,0.03416,0.2684,0.06344,0.18056
0.2196,-0.20496,0.19032,0.08052,-0.02928,0.12444,-0.06832,0.03416,0.02928,0.24888,0.03904,0.16592
0.20008,-0.183,0.16592,0.06588,-0.03416,0.11712,-0.06344,0.00976,0.01952,0.23424,0.0244,0.15616
0.18056,-0.16104,0.14152,0.05124,-0.03904,0.1098,-0.05856,-0.01952,0.01464,0.21472,0.00488,0.1464
0.15128,-0.13664,0.122,0.04636,-0.02928,0.09028,-0.05368,-0.03904,0,0.18544,-0.01464,0.13176
0.13176,-0.11224,0.09272,0.02684,-0.03904,0.0854,-0.0488,-0.06832,-0.01464,0.15128,-0.03416,0.122
0.10248,-0.08296,0.06344,0.0122,-0.03904,0.07076,-0.03904,-0.09272,-0.0244,0.13664,-0.0488,0.10736
0.08296,-0.06344,0.04392,0.00244,-0.03904,0.061,-0.03416,-0.11224,-0.03416,0.11712,-0.06832,0.09272
0.06344,-0.04392,0.0244,-0.00732,-0.03904,0.05124,-0.02928,-0.13664,-0.04392,0.0976,-0.07808,0.0732
0.05368,-0.02928,0.00488,-0.02196,-0.0488,0.05124,-0.0244,-0.16104,-0.05368,0.07808,-0.08784,0.05368
0.03904,-0.01708,-0.00488,-0.0244,-0.04392,0.04148,-0.0244,-0.16592,-0.05856,0.06832,-0.09272,0.0488
0.02928,-0.00488,-0.01952,-0.03416,-0.0488,0.03904,-0.0244,-0.18544,-0.06832,0.05368,-0.0976,0.03904
0.01464,0.00976,-0.03416,-0.04148,-0.0488,0.03172,-0.0244,-0.20008,-0.07808,0.03416,-0.10736,0.02928
0.00976,0.01464,-0.03904,-0.04392,-0.0488,0.02928,-0.01952,-0.20984,-0.07808,0.0244,-0.10736,0.01952
0,0.0244,-0.0488,-0.0488,-0.0488,0.0244,-0.01952,-0.2196,-0.08784,0.01464,-0.10248,0.01952
-0.00976,0.03416,-0.05856,-0.05368,-0.0488,0.01952,-0.01952,-0.22936,-0.09272,0.00488,-0.0976,0.01464
-0.00488,0.03172,-0.05856,-0.05612,-0.05368,0.0244,-0.01952,-0.23424,-0.0976,0.00488,-0.09272,0.00976
-0.00976,0.0366,-0.06344,-0.05856,-0.05368,0.02196,-0.01952,-0.23424,-0.10248,0,-0.08296,0.00488
-0.00976,0.03904,-0.06832,-0.06344,-0.05856,0.0244,-0.01952,-0.23912,-0.10736,-0.00488,-0.08296,0.00488
-0.01464,0.04148,-0.06832,-0.061,-0.05368,0.01952,-0.01952,-0.244,-0.10736,-0.00488,-0.07808,0.00488
-0.01464,0.04148,-0.06832,-0.061,-0.05368,0.01952,-0.01952,-0.24888,-0.10736,-0.00488,-0.0732,0.00488
-0.01464,0.04148,-0.06832,-0.061,-0.05368,0.01952,-0.01952,-0.24888,-0.10736,-0.00488,-0.06832,0.00488
-0.01464,0.03904,-0.06344,-0.05612,-0.0488,0.01708,-0.01952,-0.25376,-0.10736,-0.00488,-0.05368,0
-0.01952,0.04148,-0.06344,-0.05368,-0.04392,0.0122,-0.01952,-0.25376,-0.10736,-0.00488,-0.04392,0
-0.0244,0.04392,-0.06344,-0.05124,-0.03904,0.00732,-0.01952,-0.25376,-0.11224,0,-0.04392,0
-0.0244,0.04392,-0.06344,-0.05124,-0.03904,0.00732,-0.01952,-0.25376,-0.11224,0.00488,-0.03904,0
-0.02928,0.04636,-0.06344,-0.0488,-0.03416,0.00244,-0.01952,-0.24888,-0.11224,0,-0.03416,0
-0.02928,0.04636,-0.06344,-0.0488,-0.03416,0.00244,-0.01464,-0.24888,-0.11224,0,-0.02928,0
-0.02928,0.04392,-0.05856,-0.04392,-0.02928,0,-0.00976,-0.24888,-0.11224,0,-0.0244,0
-0.02928,0.04148,-0.05368,-0.03904,-0.0244,-0.00244,-0.00488,-0.24888,-0.11224,0,-0.0244,0
-0.02928,0.04148,-0.05368,-0.03904,-0.0244,-0.00244,-0.00488,-0.24888,-0.11224,0,-0.0244,-0.00488
-0.02928,0.04148,-0.05368,-0.03904,-0.0244,-0.00244,-0.00488,-0.24888,-0.10736,0,-0.0244,-0.00976
-0.0244,0.03904,-0.05368,-0.04148,-0.02928,0.00244,-0.00488,-0.24888,-0.10736,0,-0.01952,-0.00976
-0.0244,0.0366,-0.0488,-0.0366,-0.0244,0,-0.00488,-0.25376,-0.10736,0,-0.00976,-0.00976
-0.0244,0.0366,-0.0488,-0.0366,-0.0244,0,-0.00488,-0.24888,-0.10736,-0.00488,-0.00488,-0.00488
-0.01952,0.03172,-0.04392,-0.03416,-0.0244,0.00244,-0.00488,-0.24888,-0.10736,-0.00488,0,-0.00488
-0.01952,0.03172,-0.04392,-0.03416,-0.0244,0.00244,-0.00488,-0.24888,-0.10248,0,0,-0.00488
-0.01952,0.02928,-0.03904,-0.02928,-0.01952,0,-0.00488,-0.24888,-0.0976,0,0,-0.00488
-0.01952,0.02928,-0.03904,-0.02928,-0.01952,0,-0.00488,-0.24888,-0.0976,0.00488,0,0
-0.00976,0.01952,-0.02928,-0.0244,-0.01952,0.00488,-0.00488,-0.24888,-0.0976,0.00488,0.00488,0
-0.00488,0.01464,-0.0244,-0.02196,-0.01952,0.00732,-0.00976,-0.244,-0.10248,0.00976,0.00976,0.00488
-0.00488,0.0122,-0.01952,-0.01708,-0.01464,0.00488,-0.00976,-0.244,-0.10248,0.00976,0.01464,0.00488
0,0.00732,-0.01464,-0.01464,-0.01464,0.00732,-0.00976,-0.24888,-0.10248,0.01464,0.01952,0.00976
0.00488,0.00244,-0.00976,-0.0122,-0.01464,0.00976,-0.00976,-0.25376,-0.10248,0.01464,0.01952,0.00976
0.00976,0,-0.00976,-0.01464,-0.01952,0.01464,-0.01464,-0.24888,-0.10248,0.01464,0.01952,0.01464
0.00976,0,-0.00976,-0.01464,-0.01952,0.01464,-0.01464,-0.24888,-0.10248,0.01464,0.01952,0.01464
0.01464,-0.00488,-0.00488,-0.0122,-0.01952,0.01708,-0.01464,-0.25376,-0.0976,0.01464,0.01952,0.01464
0.01464,-0.00488,-0.00488,-0.0122,-0.01952,0.01708,-0.01464,-0.25864,-0.09272,0.01952,0.01952,0.01464
0.01464,-0.00488,-0.00488,-0.0122,-0.01952,0.01708,-0.01464,-0.25864,-0.0976,0.01952,0.01952,0.01464
0.01464,-0.00244,-0.00976,-0.01708,-0.0244,0.01952,-0.01464,-0.25864,-0.0976,0.0244,0.01952,0.01464
0.01464,0,-0.01464,-0.02196,-0.02928,0.02196,-0.01464,-0.25376,-0.10248,0.01952,0.01952,0.01464
0.01952,0,-0.01952,-0.02928,-0.03904,0.02928,-0.01952,-0.25376,-0.10736,0.01464,0.01952,0.01464
0.01952,0,-0.01952,-0.02928,-0.03904,0.02928,-0.01952,-0.25864,-0.10736,0.00976,0.01464,0.00976
0.01952,0,-0.01952,-0.02928,-0.03904,0.02928,-0.01952,-0.26352,-0.10736,0.00976,0.00976,0.00976
0.01952,0.00244,-0.0244,-0.03416,-0.04392,0.03172,-0.01952,-0.26352,-0.11224,0.00488,0.00976,0.00976
0.01952,0.00488,-0.02928,-0.03904,-0.0488,0.03416,-0.01952,-0.26352,-0.11712,0,0.00976,0.00976
0.0244,0.00244,-0.02928,-0.04148,-0.05368,0.03904,-0.01952,-0.2684,-0.11712,0,0.00488,0.00976
0.0244,0,-0.0244,-0.0366,-0.0488,0.0366,-0.01464,-0.2684,-0.11712,0,0,0.00488
0.02928,-0.00244,-0.0244,-0.03904,-0.05368,0.04148,-0.01464,-0.27328,-0.122,-0.00488,0,0.00488
0.02928,-0.00488,-0.01952,-0.03416,-0.0488,0.03904,-0.00976,-0.27328,-0.122,-0.00976,0,0.00488
0.02928,-0.00488,-0.01952,-0.03416,-0.0488,0.03904,-0.00488,-0.27328,-0.122,-0.00976,0,0
0.03416,-0.00976,-0.01464,-0.03172,-0.0488,0.04148,-0.00488,-0.27328,-0.11712,-0.00976,0,-0.00488
0.02928,-0.00488,-0.01952,-0.03416,-0.0488,0.03904,-0.00976,-0.27328,-0.11712,-0.00976,0,0
0.03416,-0.00976,-0.01464,-0.03172,-0.0488,0.04148,-0.00488,-0.26352,-0.10736,0,0.00488,0
0.03904,-0.01952,0,-0.01952,-0.03904,0.03904,0,-0.26352,-0.10248,0.00488,0.00976,0.00488
0.04392,-0.02928,0.01464,-0.00732,-0.02928,0.0366,0.00488,-0.25864,-0.08784,0.00976,0.01952,0.01464
0.0488,-0.03904,0.02928,0.00488,-0.01952,0.03416,0.0244,-0.24888,-0.0732,0.01952,0.0244,0.01464
0.05856,-0.0488,0.03904,0.00976,-0.01952,0.03904,0.02928,-0.23912,-0.06832,0.0244,0.0244,0.01464
0.06344,-0.05124,0.03904,0.00732,-0.0244,0.04392,0.01952,-0.23424,-0.06832,0.01952,0.01952,0.01464
0.0732,-0.05856,0.04392,0.00732,-0.02928,0.05124,0,-0.22936,-0.05856,0.01952,0.01952,0.0244
0.08784,-0.06832,0.0488,0.00488,-0.03904,0.06344,-0.01952,-0.23424,-0.05368,0.02928,0.01952,0.0244
0.09272,-0.07564,0.05856,0.0122,-0.03416,0.06344,-0.03416,-0.25376,-0.05368,0.03416,0.01952,0.0244
0.09272,-0.0854,0.07808,0.03172,-0.01464,0.05368,-0.03904,-0.27816,-0.05856,0.03904,0.0244,0.03416
0.08784,-0.08296,0.07808,0.03416,-0.00976,0.0488,-0.04392,-0.2928,-0.06344,0.03904,0.0244,0.03904
0.07808,-0.07808,0.07808,0.03904,0,0.03904,-0.0488,-0.31232,-0.0732,0.02928,0.01952,0.03904
0.06832,-0.06588,0.06344,0.02928,-0.00488,0.0366,-0.05368,-0.3172,-0.08784,0.0244,0.00976,0.02928
0.06344,-0.0488,0.03416,0.00244,-0.02928,0.04636,-0.05368,-0.3172,-0.0976,0.00488,0,0.0244
0.05856,-0.0366,0.01464,-0.01464,-0.04392,0.05124,-0.05368,-0.3172,-0.10736,0,-0.00488,0.01464
0.05368,-0.02928,0.00488,-0.02196,-0.0488,0.05124,-0.03904,-0.3172,-0.10736,-0.00488,-0.01464,0.00976
0.0488,-0.01708,-0.01464,-0.03904,-0.06344,0.05612,-0.02928,-0.30744,-0.11712,-0.00976,-0.01952,0.00488
0.04392,-0.00244,-0.03904,-0.061,-0.08296,0.06344,-0.0244,-0.30744,-0.12688,-0.0244,-0.02928,-0.00976
0.0244,0.01708,-0.05856,-0.07076,-0.08296,0.05368,-0.01952,-0.30744,-0.12688,-0.02928,-0.03416,-0.01952
0.01464,0.02684,-0.06832,-0.07564,-0.08296,0.0488,-0.01464,-0.30744,-0.12688,-0.03904,-0.03904,-0.0244
0.00488,0.03416,-0.0732,-0.07564,-0.07808,0.04148,-0.00976,-0.30744,-0.13176,-0.03904,-0.04392,-0.03416
-0.00976,0.05368,-0.0976,-0.09272,-0.08784,0.03904,-0.00488,-0.31232,-0.13664,-0.05368,-0.03904,-0.04392
-0.01464,0.05856,-0.10248,-0.09516,-0.08784,0.0366,-0.00488,-0.32208,-0.13664,-0.05368,-0.0488,-0.0488
-0.01952,0.06344,-0.10736,-0.0976,-0.08784,0.03416,-0.00488,-0.32208,-0.13664,-0.06344,-0.0488,-0.05368
-0.01952,0.06588,-0.11224,-0.10248,-0.09272,0.0366,0,-0.32208,-0.13664,-0.06832,-0.0488,-0.05368
-0.01464,0.06588,-0.11712,-0.1098,-0.10248,0.04392,0,-0.32208,-0.14152,-0.06832,-0.04392,-0.05368
-0.01464,0.06832,-0.122,-0.11468,-0.10736,0.04636,0,-0.32208,-0.14152,-0.06832,-0.04392,-0.05368
-0.01464,0.06832,-0.122,-0.11468,-0.10736,0.04636,0,-0.32208,-0.14152,-0.06832,-0.03904,-0.05368
-0.01464,0.06832,-0.122,-0.11468,-0.10736,0.04636,0,-0.32208,-0.14152,-0.06832,-0.03416,-0.05368
-0.01464,0.06588,-0.11712,-0.1098,-0.10248,0.04392,0,-0.32208,-0.14152,-0.06832,-0.03416,-0.05368
-0.01464,0.06588,-0.11712,-0.1098,-0.10248,0.04392,0,-0.3172,-0.13664,-0.06832,-0.03416,-0.0488
-0.01464,0.06588,-0.11712,-0.1098,-0.10248,0.04392,0.00488,-0.32208,-0.13664,-0.06832,-0.02928,-0.0488
-0.01464,0.06588,-0.11712,-0.1098,-0.10248,0.04392,0.00488,-0.32208,-0.13664,-0.06832,-0.0244,-0.05368
-0.00976,0.05612,-0.10248,-0.0976,-0.09272,0.04148,-0.01464,-0.3416,-0.13664,-0.06832,-0.00976,-0.0488
-0.00488,0.06344,-0.122,-0.11956,-0.11712,0.05612,-0.01464,-0.3172,-0.1464,-0.08296,-0.0244,-0.05856
0.0244,0.1098,-0.244,-0.2562,-0.2684,0.1464,0.07808,-0.11224,-0.16104,-0.13664,-0.10248,-0.14152
0.06344,0.13176,-0.32696,-0.35868,-0.3904,0.22692,0.1952,0.10248,-0.1464,-0.16104,-0.1464,-0.20496
0.08784,0.09516,-0.27816,-0.32208,-0.366,0.22692,0.23424,0.1464,-0.05368,-0.12688,-0.13176,-0.20984
0.1464,0.00244,-0.15128,-0.22448,-0.29768,0.22204,0.22448,0.11224,0.05856,-0.00488,-0.01464,-0.13664
0.24888,-0.2196,0.19032,0.06588,-0.05856,0.15372,0.11712,0.01952,0.23424,0.27816,0.20984,0.07808
0.3904,-0.4758,0.5612,0.366,0.1708,0.1098,-0.0976,-0.24888,0.35136,0.57096,0.48312,0.35136
0.54656,-0.7808,1.01504,0.74176,0.46848,0.03904,-0.3904,-0.67344,0.4636,0.93208,0.81496,0.72224
0.64904,-1.05408,1.45912,1.1346,0.81008,-0.08052,-0.6588,-0.99552,0.60024,1.28832,1.1224,1.06384
0.63928,-1.2688,1.89832,1.57868,1.25904,-0.30988,-0.84912,-1.22488,0.73688,1.69336,1.40544,1.42496
0.50264,-1.28344,2.06424,1.81292,1.5616,-0.52948,-0.94184,-1.40544,0.7564,1.78608,1.43472,1.5616
0.22936,-0.99552,1.76168,1.647,1.53232,-0.65148,-0.91256,-1.45424,0.7076,1.46888,1.05408,1.36152
-0.06832,-0.64416,1.35664,1.3908,1.42496,-0.74664,-0.79056,-1.49328,0.46848,0.96136,0.53192,1.04432
-0.2196,-0.33184,0.88328,0.99308,1.10288,-0.66124,-0.6344,-1.44448,0.05856,0.3904,0.01952,0.67832
-0.25376,-0.14396,0.54168,0.66856,0.79544,-0.5246,-0.52216,-1.31272,-0.15616,0.10248,-0.25864,0.42456
-0.26352,-0.08052,0.42456,0.55632,0.68808,-0.4758,-0.43432,-1.11752,-0.16104,0.04392,-0.32696,0.28304
-0.244,-0.00488,0.25376,0.37576,0.49776,-0.37088,-0.28304,-0.84912,-0.15128,-0.0244,-0.40992,0.15616
-0.13176,0.00488,0.122,0.18788,0.25376,-0.19276,-0.15616,-0.64416,-0.14152,-0.03416,-0.44896,0.06344
-0.06344,0.02196,0.01952,0.05124,0.08296,-0.0732,-0.07808,-0.51728,-0.14152,-0.05368,-0.45872,0.00976
-0.05368,0.05612,-0.05856,-0.03172,-0.00488,-0.0244,-0.0488,-0.40016,-0.13664,-0.06344,-0.4636,-0.02928
-0.03904,0.06588,-0.09272,-0.0732,-0.05368,0.00732,-0.01952,-0.32208,-0.13664,-0.07808,-0.45872,-0.03904
-0.01952,0.06344,-0.10736,-0.0976,-0.08784,0.03416,0.00488,-0.31232,-0.13176,-0.08296,-0.41968,-0.06344
-0.00488,0.06344,-0.122,-0.11956,-0.11712,0.05612,0.01952,-0.30256,-0.122,-0.08296,-0.37576,-0.06344
0.00488,0.05856,-0.122,-0.12444,-0.12688,0.06588,0.0244,-0.2928,-0.11712,-0.07808,-0.36112,-0.06344
0.00976,0.05612,-0.122,-0.12688,-0.13176,0.07076,0.02928,-0.27816,-0.11224,-0.07808,-0.3416,-0.06832
0.01464,0.05612,-0.12688,-0.1342,-0.14152,0.07808,0.02928,-0.27816,-0.11224,-0.07808,-0.30744,-0.06832
0.01464,0.05612,-0.12688,-0.1342,-0.14152,0.07808,0.02928,-0.27816,-0.11224,-0.07808,-0.27328,-0.06832
0.01464,0.05368,-0.122,-0.12932,-0.13664,0.07564,0.02928,-0.27816,-0.11224,-0.07808,-0.25864,-0.0732
0.01464,0.05368,-0.122,-0.12932,-0.13664,0.07564,0.02928,-0.27816,-0.10736,-0.07808,-0.24888,-0.07808
0.01952,0.05124,-0.122,-0.13176,-0.14152,0.08052,0.02928,-0.27816,-0.10248,-0.07808,-0.22448,-0.0732
0.01952,0.05124,-0.122,-0.13176,-0.14152,0.08052,0.02928,-0.27816,-0.0976,-0.07808,-0.20008,-0.0732
0.0244,0.0488,-0.122,-0.1342,-0.1464,0.0854,0.02928,-0.27816,-0.0976,-0.0732,-0.18544,-0.0732
0.0244,0.0488,-0.122,-0.1342,-0.1464,0.0854,0.02928,-0.27816,-0.0976,-0.0732,-0.17568,-0.0732
0.02928,0.04636,-0.122,-0.13664,-0.15128,0.09028,0.02928,-0.27816,-0.0976,-0.0732,-0.15616,-0.0732
0.02928,0.04636,-0.122,-0.13664,-0.15128,0.09028,0.02928,-0.27328,-0.0976,-0.06832,-0.13176,-0.0732
0.02928,0.04636,-0.122,-0.13664,-0.15128,0.09028,0.02928,-0.27328,-0.0976,-0.06832,-0.122,-0.0732
0.03416,0.04148,-0.11712,-0.1342,-0.15128,0.09272,0.02928,-0.27328,-0.09272,-0.06344,-0.11224,-0.0732
0.03416,0.04148,-0.11712,-0.1342,-0.15128,0.09272,0.02928,-0.2684,-0.0976,-0.06344,-0.0976,-0.06832
0.03416,0.04148,-0.11712,-0.1342,-0.15128,0.09272,0.0244,-0.2684,-0.10248,-0.06344,-0.08296,-0.06832
0.03416,0.04148,-0.11712,-0.1342,-0.15128,0.09272,0.0244,-0.25864,-0.10248,-0.05856,-0.07808,-0.06832
0.03904,0.03904,-0.11712,-0.13664,-0.15616,0.0976,0.0244,-0.25864,-0.0976,-0.05856,-0.06832,-0.06344
0.04392,0.03416,-0.11224,-0.1342,-0.15616,0.10004,0.0244,-0.25376,-0.0976,-0.05856,-0.05368,-0.06344
0.0488,0.02928,-0.10736,-0.13176,-0.15616,0.10248,0.01952,-0.25376,-0.09272,-0.05368,-0.0488,-0.06344
0.05856,0.0244,-0.10736,-0.13664,-0.16592,0.11224,0.01952,-0.244,-0.08784,-0.05368,-0.03416,-0.05856
0.06344,0.02196,-0.10736,-0.13908,-0.1708,0.11712,0.01952,-0.23912,-0.08296,-0.0488,-0.02928,-0.05368
0.06832,0.01464,-0.0976,-0.13176,-0.16592,0.11712,0.01952,-0.23424,-0.07808,-0.04392,-0.0244,-0.04392
0.0732,0.00976,-0.09272,-0.12932,-0.16592,0.11956,0.01464,-0.22936,-0.0732,-0.03904,-0.01464,-0.04392
0.08296,0.00244,-0.08784,-0.12932,-0.1708,0.12688,0.01464,-0.21472,-0.0732,-0.03416,-0.00976,-0.04392
0.08784,-0.00244,-0.08296,-0.12688,-0.1708,0.12932,0.01464,-0.20496,-0.06344,-0.0244,-0.00488,-0.03904
0.0976,-0.00732,-0.08296,-0.13176,-0.18056,0.13908,0.01464,-0.18544,-0.05368,-0.00976,0,-0.03416
0.10736,-0.01708,-0.0732,-0.12688,-0.18056,0.14396,0.01952,-0.16592,-0.04392,0,0.01464,-0.03416
0.12688,-0.03172,-0.06344,-0.12688,-0.19032,0.1586,0.00976,-0.1464,-0.03416,0.00488,0.0244,-0.0244
0.14152,-0.04392,-0.05368,-0.12444,-0.1952,0.16836,0.00976,-0.13176,-0.02928,0.01952,0.03416,-0.01952
0.16104,-0.06344,-0.03416,-0.11468,-0.1952,0.17812,0,-0.11712,-0.0244,0.03416,0.04392,-0.00488
0.18544,-0.08296,-0.01952,-0.11224,-0.20496,0.1952,-0.00976,-0.09272,-0.00976,0.05856,0.06832,0.00488
0.20496,-0.10492,0.00488,-0.0976,-0.20008,0.20252,-0.01464,-0.07808,-0.00976,0.07808,0.07808,0.01952
0.22448,-0.12932,0.03416,-0.07808,-0.19032,0.2074,-0.01952,-0.05856,0,0.0976,0.08784,0.03416
0.24888,-0.15616,0.06344,-0.061,-0.18544,0.21716,-0.03416,-0.04392,0.01464,0.122,0.10736,0.05856
0.25864,-0.1708,0.08296,-0.04636,-0.17568,0.21716,-0.03416,-0.02928,0.0244,0.1464,0.122,0.0732
0.27816,-0.19032,0.10248,-0.0366,-0.17568,0.22692,-0.0488,-0.0244,0.02928,0.16104,0.12688,0.08784
0.2928,-0.20984,0.12688,-0.01952,-0.16592,0.22936,-0.0488,-0.01464,0.03904,0.18056,0.13176,0.10248
0.30256,-0.22692,0.15128,0,-0.15128,0.22692,-0.05368,-0.01464,0.04392,0.19032,0.1464,0.10736
0.31232,-0.23668,0.16104,0.00488,-0.15128,0.2318,-0.05856,-0.00976,0.0488,0.20496,0.1464,0.122
0.30744,-0.24156,0.17568,0.02196,-0.13176,0.2196,-0.06344,-0.00976,0.05368,0.2196,0.14152,0.13664
0.30744,-0.244,0.18056,0.02684,-0.12688,0.21716,-0.06832,-0.00976,0.05368,0.22448,0.13664,0.14152
0.30744,-0.25132,0.1952,0.04148,-0.11224,0.20984,-0.06832,-0.01464,0.05368,0.23424,0.13664,0.1464
0.30256,-0.25132,0.20008,0.0488,-0.10248,0.20252,-0.06832,-0.01952,0.05856,0.23912,0.13176,0.15128
0.29768,-0.25132,0.20496,0.05612,-0.09272,0.1952,-0.0732,-0.0244,0.05856,0.23912,0.122,0.15128
0.30256,-0.25376,0.20496,0.05368,-0.0976,0.20008,-0.0732,-0.03904,0.05856,0.23912,0.11224,0.15128
0.28792,-0.24156,0.1952,0.05124,-0.09272,0.19032,-0.0732,-0.05856,0.05856,0.22936,0.09272,0.15616
0.27328,-0.22936,0.18544,0.0488,-0.08784,0.18056,-0.06344,-0.07808,0.0488,0.2196,0.07808,0.15128
0.24888,-0.20984,0.1708,0.04636,-0.07808,0.16348,-0.05856,-0.09272,0.0488,0.20008,0.05856,0.13664
0.22936,-0.19032,0.15128,0.0366,-0.07808,0.15372,-0.05368,-0.11712,0.03904,0.18544,0.04392,0.12688
0.20496,-0.16836,0.13176,0.02928,-0.0732,0.13908,-0.04392,-0.1464,0.03416,0.16104,0.0244,0.11712
0.1708,-0.14152,0.11224,0.02684,-0.05856,0.11468,-0.03416,-0.16592,0.0244,0.13176,0.00488,0.0976
0.15128,-0.11712,0.08296,0.00732,-0.06832,0.1098,-0.02928,-0.20008,0.01464,0.10248,-0.01464,0.08296
0.12688,-0.09272,0.05856,-0.00488,-0.06832,0.0976,-0.01952,-0.22448,0.00488,0.08784,-0.03416,0.06832
0.11224,-0.07808,0.04392,-0.0122,-0.06832,0.09028,-0.01464,-0.244,-0.00488,0.06832,-0.05368,0.05368
0.09272,-0.05856,0.0244,-0.02196,-0.06832,0.08052,-0.00976,-0.2684,-0.01464,0.0488,-0.06344,0.03904
0.07808,-0.03904,0,-0.03904,-0.07808,0.07808,-0.00488,-0.28792,-0.0244,0.02928,-0.06832,0.01952
0.05856,-0.02196,-0.01464,-0.04392,-0.0732,0.06588,-0.00488,-0.2928,-0.02928,0.01952,-0.0732,0.00976
0.0488,-0.00976,-0.02928,-0.05368,-0.07808,0.06344,-0.00488,-0.31232,-0.03904,0.00488,-0.08296,0
0.03416,0.00488,-0.04392,-0.061,-0.07808,0.05612,-0.00488,-0.32208,-0.0488,-0.00976,-0.08784,-0.00976
0.02928,0.00976,-0.0488,-0.06344,-0.07808,0.05368,0,-0.33184,-0.0488,-0.01464,-0.08296,-0.01952
0.01952,0.01952,-0.05856,-0.06832,-0.07808,0.0488,0,-0.34648,-0.05856,-0.0244,-0.08296,-0.01952
0.00976,0.02928,-0.06832,-0.0732,-0.07808,0.04392,0,-0.35624,-0.06344,-0.03416,-0.08296,-0.0244
0.00976,0.02928,-0.06832,-0.0732,-0.07808,0.04392,0,-0.36112,-0.06832,-0.03416,-0.08296,-0.02928
0,0.0366,-0.0732,-0.0732,-0.0732,0.0366,0,-0.36112,-0.0732,-0.03904,-0.0732,-0.03416
0,0.03904,-0.07808,-0.07808,-0.07808,0.03904,0,-0.366,-0.07808,-0.04392,-0.06832,-0.03416
-0.00488,0.04148,-0.07808,-0.07564,-0.0732,0.03416,0,-0.37088,-0.07808,-0.04392,-0.06344,-0.03416
-0.00488,0.04148,-0.07808,-0.07564,-0.0732,0.03416,0,-0.37576,-0.07808,-0.04392,-0.05856,-0.03416
-0.00488,0.04148,-0.07808,-0.07564,-0.0732,0.03416,-0.00488,-0.37576,-0.07808,-0.04392,-0.05368,-0.03416
-0.00488,0.04148,-0.07808,-0.07564,-0.0732,0.03416,-0.00976,-0.38064,-0.07808,-0.04392,-0.04392,-0.03904
-0.00976,0.04636,-0.08296,-0.07808,-0.0732,0.03172,-0.00976,-0.38552,-0.07808,-0.04392,-0.03904,-0.03904
-0.01464,0.0488,-0.08296,-0.07564,-0.06832,0.02684,-0.00976,-0.3904,-0.07808,-0.04392,-0.03904,-0.03904
-0.01464,0.0488,-0.08296,-0.07564,-0.06832,0.02684,-0.00976,-0.3904,-0.0732,-0.04392,-0.03416,-0.03904
-0.01952,0.05124,-0.08296,-0.0732,-0.06344,0.02196,-0.00976,-0.38552,-0.0732,-0.0488,-0.02928,-0.03904
-0.01952,0.05124,-0.08296,-0.0732,-0.06344,0.02196,-0.00488,-0.38552,-0.0732,-0.0488,-0.0244,-0.03904
-0.01952,0.05124,-0.08296,-0.0732,-0.06344,0.02196,-0.00488,-0.38552,-0.0732,-0.0488,-0.01952,-0.03904
-0.01952,0.05124,-0.08296,-0.0732,-0.06344,0.02196,-0.00488,-0.38552,-0.07808,-0.0488,-0.01952,-0.03904
-0.01952,0.05124,-0.08296,-0.0732,-0.06344,0.02196,-0.00488,-0.38552,-0.08296,-0.0488,-0.01464,-0.03904
-0.0244,0.05124,-0.07808,-0.06588,-0.05368,0.01464,0,-0.38552,-0.07808,-0.0488,-0.00976,-0.03904
-0.0244,0.0488,-0.0732,-0.061,-0.0488,0.0122,0.00488,-0.38064,-0.07808,-0.0488,-0.00488,-0.03904
-0.0244,0.04636,-0.06832,-0.05612,-0.04392,0.00976,0.00488,-0.38064,-0.0732,-0.0488,0,-0.03904
-0.0244,0.04636,-0.06832,-0.05612,-0.04392,0.00976,0.00488,-0.37576,-0.06832,-0.0488,0,-0.03416
-0.01952,0.04148,-0.06344,-0.05368,-0.04392,0.0122,0.00488,-0.37576,-0.06832,-0.04392,0.00488,-0.02928
-0.01952,0.04148,-0.06344,-0.05368,-0.04392,0.0122,0.00488,-0.37576,-0.06832,-0.03904,0.00976,-0.0244
-0.01952,0.03904,-0.05856,-0.0488,-0.03904,0.00976,0,-0.37576,-0.06832,-0.03416,0.01464,-0.0244
-0.01952,0.03904,-0.05856,-0.0488,-0.03904,0.00976,-0.00488,-0.37576,-0.06832,-0.0244,0.01952,-0.01952
-0.00488,0.02684,-0.0488,-0.04636,-0.04392,0.01952,-0.00488,-0.37576,-0.06832,-0.0244,0.0244,-0.01952
0.00488,0.01952,-0.04392,-0.04636,-0.0488,0.02684,-0.00976,-0.37088,-0.06832,-0.01952,0.0244,-0.01464
0.00488,0.01708,-0.03904,-0.04148,-0.04392,0.0244,-0.00976,-0.37088,-0.06344,-0.01952,0.0244,-0.01464
0.00976,0.01464,-0.03904,-0.04392,-0.0488,0.02928,-0.00976,-0.37088,-0.06344,-0.01464,0.02928,-0.00976
0.01464,0.0122,-0.03904,-0.04636,-0.05368,0.03416,-0.00488,-0.37576,-0.06344,-0.01464,0.02928,-0.00976
0.01952,0.00976,-0.03904,-0.0488,-0.05856,0.03904,-0.00488,-0.37576,-0.06344,-0.01464,0.02928,-0.00488
0.01952,0.00976,-0.03904,-0.0488,-0.05856,0.03904,-0.00488,-0.37576,-0.06344,-0.01464,0.02928,-0.00488
0.0244,0.00488,-0.03416,-0.04636,-0.05856,0.04148,-0.00488,-0.37576,-0.06344,-0.01464,0.02928,-0.00488
0.02928,0.00244,-0.03416,-0.0488,-0.06344,0.04636,-0.00976,-0.37576,-0.05856,-0.00976,0.02928,-0.00488
0.03416,0,-0.03416,-0.05124,-0.06832,0.05124,-0.01464,-0.37576,-0.05856,-0.00976,0.02928,-0.00488
0.03416,0.00244,-0.03904,-0.05612,-0.0732,0.05368,-0.01464,-0.37576,-0.05856,-0.00488,0.02928,-0.00488
0.03416,0.00488,-0.04392,-0.061,-0.07808,0.05612,-0.01464,-0.37576,-0.06344,-0.00488,0.0244,-0.00488
0.02928,0.00732,-0.04392,-0.05856,-0.0732,0.05124,-0.00976,-0.37576,-0.06832,-0.00976,0.01952,-0.00976
0.02928,0.00976,-0.0488,-0.06344,-0.07808,0.05368,-0.00976,-0.38064,-0.07808,-0.01464,0.01952,-0.01464
0.02928,0.00976,-0.0488,-0.06344,-0.07808,0.05368,-0.00976,-0.38064,-0.07808,-0.01464,0.01464,-0.00976
0.02928,0.00976,-0.0488,-0.06344,-0.07808,0.05368,-0.00976,-0.38064,-0.07808,-0.01952,0.00976,-0.00976
0.02928,0.00976,-0.0488,-0.06344,-0.07808,0.05368,-0.00976,-0.38064,-0.07808,-0.0244,0.00976,-0.00976
0.02928,0.00976,-0.0488,-0.06344,-0.07808,0.05368,-0.00976,-0.38064,-0.07808,-0.02928,0.00976,-0.00976
0.02928,0.00976,-0.0488,-0.06344,-0.07808,0.05368,-0.00976,-0.38064,-0.07808,-0.02928,0.00976,-0.00976
0.02928,0.00976,-0.0488,-0.06344,-0.07808,0.05368,-0.00976,-0.38064,-0.07808,-0.02928,0.00976,-0.00976
0.02928,0.00976,-0.0488,-0.06344,-0.07808,0.05368,-0.00976,-0.38064,-0.08296,-0.02928,0.00976,-0.01464
0.02928,0.00976,-0.0488,-0.06344,-0.07808,0.05368,-0.00976,-0.38064,-0.08296,-0.02928,0.00976,-0.01464
0.0244,0.0122,-0.0488,-0.061,-0.0732,0.0488,-0.00488,-0.38064,-0.08296,-0.02928,0.00976,-0.01952
0.0244,0.00976,-0.04392,-0.05612,-0.06832,0.04636,-0.00488,-0.38064,-0.07808,-0.02928,0.00976,-0.0244
0.0244,0.00732,-0.03904,-0.05124,-0.06344,0.04392,-0.00488,-0.38064,-0.07808,-0.02928,0.00976,-0.01952
0.03416,-0.00488,-0.0244,-0.04148,-0.05856,0.04636,0.00488,-0.37088,-0.06832,-0.01952,0.01464,-0.01952
0.04392,-0.01708,-0.00976,-0.03172,-0.05368,0.0488,0.01464,-0.366,-0.06344,-0.01464,0.01464,-0.01464
0.05368,-0.02928,0.00488,-0.02196,-0.0488,0.05124,0.0244,-0.35624,-0.0488,-0.00976,0.01952,-0.00488
0.05856,-0.0366,0.01464,-0.01464,-0.04392,0.05124,0.03904,-0.34648,-0.03904,-0.00488,0.0244,0
0.06832,-0.04392,0.01952,-0.01464,-0.0488,0.05856,0.03904,-0.33672,-0.03904,-0.00488,0.0244,0.00488
0.0732,-0.04636,0.01952,-0.01708,-0.05368,0.06344,0.02928,-0.33184,-0.03904,-0.00488,0.0244,0
0.08296,-0.05368,0.0244,-0.01708,-0.05856,0.07076,0.00976,-0.32696,-0.02928,0,0.02928,0.00488
0.09272,-0.06344,0.03416,-0.0122,-0.05856,0.07564,-0.00976,-0.33184,-0.0244,0.00976,0.02928,0.00976
0.09272,-0.07076,0.0488,0.00244,-0.04392,0.06832,-0.0244,-0.35136,-0.0244,0.01464,0.02928,0.01464
0.09272,-0.08052,0.06832,0.02196,-0.0244,0.05856,-0.03416,-0.38064,-0.0244,0.01952,0.03416,0.0244
0.08784,-0.07808,0.06832,0.0244,-0.01952,0.05368,-0.04392,-0.40016,-0.0244,0.01952,0.03416,0.02928
0.07808,-0.0732,0.06832,0.02928,-0.00976,0.04392,-0.04392,-0.4148,-0.03904,0.00488,0.02928,0.02928
0.06832,-0.061,0.05368,0.01952,-0.01464,0.04148,-0.04392,-0.4148,-0.05856,-0.00488,0.01952,0.01952
0.06344,-0.04148,0.01952,-0.0122,-0.04392,0.05368,-0.04392,-0.40992,-0.06832,-0.0244,0.00488,0.01464
0.05856,-0.02684,-0.00488,-0.03416,-0.06344,0.061,-0.04392,-0.40504,-0.07808,-0.02928,-0.00488,0.00488
0.0488,-0.01708,-0.01464,-0.03904,-0.06344,0.05612,-0.03416,-0.40504,-0.07808,-0.02928,-0.01464,-0.00488
0.03904,-0.00244,-0.03416,-0.05368,-0.0732,0.05612,-0.02928,-0.39528,-0.08784,-0.02928,-0.01952,-0.01464
0.03416,0.0122,-0.05856,-0.07564,-0.09272,0.06344,-0.01952,-0.39528,-0.0976,-0.04392,-0.02928,-0.02928
0.01464,0.03172,-0.07808,-0.0854,-0.09272,0.05368,-0.00976,-0.39528,-0.0976,-0.0488,-0.03416,-0.03904
0.00488,0.04148,-0.08784,-0.09028,-0.09272,0.0488,-0.00488,-0.39528,-0.0976,-0.05856,-0.03904,-0.04392
-0.00488,0.0488,-0.09272,-0.09028,-0.08784,0.04148,0,-0.39528,-0.10248,-0.05856,-0.04392,-0.05368
-0.01464,0.06344,-0.11224,-0.10492,-0.0976,0.04148,0.00488,-0.39528,-0.10736,-0.0732,-0.03904,-0.05856
-0.01464,0.06344,-0.11224,-0.10492,-0.0976,0.04148,0.00488,-0.40016,-0.10736,-0.0732,-0.0488,-0.05856
-0.01952,0.06832,-0.11712,-0.10736,-0.0976,0.03904,0.00488,-0.40016,-0.10736,-0.08296,-0.0488,-0.06832
-0.01952,0.07076,-0.122,-0.11224,-0.10248,0.04148,0.00976,-0.40016,-0.10736,-0.08784,-0.0488,-0.0732
-0.01464,0.07076,-0.12688,-0.11956,-0.11224,0.0488,0.00976,-0.40016,-0.11224,-0.08784,-0.04392,-0.0732
-0.01464,0.0732,-0.13176,-0.12444,-0.11712,0.05124,0.00976,-0.40016,-0.11224,-0.08784,-0.04392,-0.0732
-0.01464,0.0732,-0.13176,-0.12444,-0.11712,0.05124,0.00976,-0.40016,-0.11224,-0.08784,-0.03904,-0.0732
-0.01464,0.0732,-0.13176,-0.12444,-0.11712,0.05124,0.00976,-0.40016,-0.11224,-0.08784,-0.03416,-0.0732
-0.01464,0.07076,-0.12688,-0.11956,-0.11224,0.0488,0.00976,-0.40016,-0.11224,-0.08784,-0.02928,-0.0732
-0.01464,0.07076,-0.12688,-0.11956,-0.11224,0.0488,0.00976,-0.39528,-0.10736,-0.08784,-0.0244,-0.06832
-0.01464,0.07076,-0.12688,-0.11956,-0.11224,0.0488,0.01464,-0.39528,-0.10736,-0.09272,-0.0244,-0.06832
-0.01464,0.07076,-0.12688,-0.11956,-0.11224,0.0488,0.01464,-0.3904,-0.10736,-0.0976,-0.0244,-0.0732
0,0.06344,-0.12688,-0.12688,-0.12688,0.06344,0.01464,-0.3904,-0.10736,-0.0976,-0.01464,-0.08296
0.01464,0.0732,-0.16104,-0.16836,-0.17568,0.09516,0.03416,-0.34648,-0.11712,-0.11224,-0.03416,-0.10736
0.04392,0.10492,-0.25376,-0.27572,-0.29768,0.1708,0.11712,-0.15128,-0.122,-0.15616,-0.10248,-0.18056
0.08296,0.11224,-0.30744,-0.34892,-0.3904,0.23668,0.22448,0.05368,-0.0976,-0.1708,-0.13664,-0.23424
0.11224,0.05124,-0.21472,-0.27084,-0.32696,0.2196,0.22936,0.05856,0.01952,-0.0976,-0.08296,-0.1952
0.17568,-0.06588,-0.04392,-0.13176,-0.2196,0.19764,0.18544,-0.01464,0.15616,0.06344,0.0732,-0.07808
0.29768,-0.31232,0.32696,0.17812,0.02928,0.1342,0.05856,-0.13664,0.3172,0.36112,0.31232,0.1708
0.45872,-0.59292,0.72712,0.49776,0.2684,0.09516,-0.17568,-0.43432,0.41968,0.66856,0.60024,0.47824
0.5856,-0.87108,1.15656,0.86376,0.57096,0.00732,-0.44896,-0.84424,0.53192,1.01504,0.90768,0.8296
0.6588,-1.11752,1.57624,1.24684,0.91744,-0.12932,-0.69784,-1.15168,0.66856,1.35664,1.19072,1.15168
0.59048,-1.23952,1.88856,1.59332,1.29808,-0.3538,-0.83448,-1.33712,0.76128,1.64456,1.37128,1.4152
0.39528,-1.16144,1.9276,1.72996,1.53232,-0.56852,-0.87352,-1.47376,0.73688,1.62016,1.29808,1.45424
0.13664,-0.86376,1.59088,1.52256,1.45424,-0.6588,-0.8296,-1.50304,0.64904,1.2688,0.88328,1.22488
-0.1464,-0.50264,1.15168,1.22488,1.29808,-0.72224,-0.69296,-1.52256,0.37088,0.72712,0.32696,0.8784
-0.25864,-0.24156,0.74176,0.87108,1.0004,-0.62952,-0.54656,-1.45912,0.0244,0.23912,-0.0976,0.54656
-0.25376,-0.10492,0.4636,0.59048,0.71736,-0.48556,-0.44408,-1.31272,-0.12688,0.03416,-0.28792,0.32696
-0.244,-0.05368,0.35136,0.47336,0.59536,-0.41968,-0.36112,-1.10288,-0.13176,-0.00976,-0.35624,0.20496
-0.20496,0.00976,0.18544,0.28792,0.3904,-0.29768,-0.21472,-0.81984,-0.122,-0.06344,-0.4392,0.0976
-0.10248,0.01464,0.0732,0.12444,0.17568,-0.13908,-0.10248,-0.63928,-0.11224,-0.07808,-0.4636,0.00976
-0.04392,0.02684,-0.00976,0.0122,0.03416,-0.03904,-0.03904,-0.5368,-0.11224,-0.10248,-0.45872,-0.03904
-0.03904,0.06344,-0.08784,-0.06832,-0.0488,0.00488,-0.01464,-0.42456,-0.11224,-0.11224,-0.45384,-0.0732
-0.02928,0.07564,-0.122,-0.10736,-0.09272,0.03172,0.00976,-0.35136,-0.11712,-0.12688,-0.4392,-0.07808
-0.00976,0.0732,-0.13664,-0.13176,-0.12688,0.05856,0.03416,-0.35136,-0.11224,-0.13176,-0.4148,-0.10736
0.00488,0.0732,-0.15128,-0.15372,-0.15616,0.08052,0.0488,-0.35136,-0.10248,-0.13176,-0.38552,-0.11224
0.00976,0.07076,-0.15128,-0.15616,-0.16104,0.0854,0.0488,-0.3416,-0.10248,-0.13176,-0.366,-0.11224
0.00976,0.07076,-0.15128,-0.15616,-0.16104,0.0854,0.0488,-0.32696,-0.10248,-0.13664,-0.3416,-0.11712
0.01464,0.07076,-0.15616,-0.16348,-0.1708,0.09272,0.0488,-0.32696,-0.10248,-0.13664,-0.31232,-0.11712
0.01464,0.07076,-0.15616,-0.16348,-0.1708,0.09272,0.0488,-0.32696,-0.10248,-0.13664,-0.28304,-0.11712
0.01464,0.07076,-0.15616,-0.16348,-0.1708,0.09272,0.05368,-0.32696,-0.10248,-0.13664,-0.26352,-0.11712
0.01464,0.0732,-0.16104,-0.16836,-0.17568,0.09516,0.05856,-0.32696,-0.0976,-0.13664,-0.24888,-0.11712
0.01952,0.07076,-0.16104,-0.1708,-0.18056,0.10004,0.05856,-0.32696,-0.0976,-0.13664,-0.22936,-0.11712
0.01952,0.07076,-0.16104,-0.1708,-0.18056,0.10004,0.05856,-0.32696,-0.0976,-0.13664,-0.20984,-0.122
0.0244,0.06832,-0.16104,-0.17324,-0.18544,0.10492,0.05856,-0.32208,-0.0976,-0.13176,-0.19032,-0.122
0.0244,0.06832,-0.16104,-0.17324,-0.18544,0.10492,0.05856,-0.3172,-0.0976,-0.13176,-0.17568,-0.122
0.02928,0.06588,-0.16104,-0.17568,-0.19032,0.1098,0.05856,-0.3172,-0.0976,-0.13176,-0.16104,-0.122
0.02928,0.06588,-0.16104,-0.17568,-0.19032,0.1098,0.05856,-0.31232,-0.0976,-0.12688,-0.14152,-0.122
0.02928,0.06588,-0.16104,-0.17568,-0.19032,0.1098,0.05856,-0.31232,-0.0976,-0.12688,-0.13176,-0.122
0.03416,0.061,-0.15616,-0.17324,-0.19032,0.11224,0.05856,-0.31232,-0.09272,-0.122,-0.122,-0.122
0.03904,0.05856,-0.15616,-0.17568,-0.1952,0.11712,0.06344,-0.30744,-0.09272,-0.12688,-0.10736,-0.11712
0.04392,0.05612,-0.15616,-0.17812,-0.20008,0.122,0.06344,-0.30744,-0.09272,-0.13176,-0.09272,-0.11712
0.04392,0.05612,-0.15616,-0.17812,-0.20008,0.122,0.06344,-0.29768,-0.0976,-0.12688,-0.08784,-0.122
0.0488,0.05368,-0.15616,-0.18056,-0.20496,0.12688,0.06344,-0.29768,-0.0976,-0.12688,-0.07808,-0.122
0.05368,0.0488,-0.15128,-0.17812,-0.20496,0.12932,0.06344,-0.2928,-0.0976,-0.12688,-0.05856,-0.122
0.05856,0.04392,-0.1464,-0.17568,-0.20496,0.13176,0.05856,-0.2928,-0.09272,-0.122,-0.0488,-0.122
0.05856,0.04636,-0.15128,-0.18056,-0.20984,0.1342,0.05856,-0.28304,-0.08784,-0.122,-0.03904,-0.122
0.05368,0.05124,-0.15616,-0.183,-0.20984,0.13176,0.05856,-0.27816,-0.08296,-0.11712,-0.03904,-0.122
0.05856,0.04392,-0.1464,-0.17568,-0.20496,0.13176,0.05856,-0.2684,-0.0732,-0.11224,-0.02928,-0.11224
0.06344,0.03904,-0.14152,-0.17324,-0.20496,0.1342,0.05368,-0.25864,-0.06344,-0.10736,-0.01464,-0.11224
0.0732,0.03172,-0.13664,-0.17324,-0.20984,0.14152,0.05368,-0.244,-0.06344,-0.10736,-0.00976,-0.11224
0.07808,0.02684,-0.13176,-0.1708,-0.20984,0.14396,0.05368,-0.23424,-0.05368,-0.10248,-0.00488,-0.10736
0.09272,0.01708,-0.12688,-0.17324,-0.2196,0.15616,0.0488,-0.21472,-0.04392,-0.08784,0,-0.0976
0.10736,0.00244,-0.11224,-0.16592,-0.2196,0.16348,0.0488,-0.1952,-0.03416,-0.07808,0.01464,-0.09272
0.12688,-0.0122,-0.10248,-0.16592,-0.22936,0.17812,0.03904,-0.17568,-0.0244,-0.06832,0.0244,-0.08784
0.14152,-0.0244,-0.09272,-0.16348,-0.23424,0.18788,0.03904,-0.16104,-0.01952,-0.0488,0.03416,-0.08784
0.16104,-0.04392,-0.0732,-0.15372,-0.23424,0.19764,0.03416,-0.1464,-0.01464,-0.03416,0.04392,-0.0732
0.18544,-0.06344,-0.05856,-0.15128,-0.244,0.21472,0.02928,-0.122,0,-0.00976,0.06832,-0.06344
0.20008,-0.08296,-0.03416,-0.1342,-0.23424,0.21716,0.0244,-0.10736,0,0.00976,0.07808,-0.0488
0.21472,-0.10492,-0.00488,-0.11224,-0.2196,0.21716,0.01952,-0.08784,0.00976,0.02928,0.08784,-0.03416
0.244,-0.13176,0.01952,-0.10248,-0.22448,0.23424,0.00488,-0.0732,0.0244,0.0488,0.10736,-0.00976
0.25864,-0.1464,0.03416,-0.09516,-0.22448,0.24156,0.00488,-0.05856,0.03416,0.06832,0.122,0.00488
0.27328,-0.1586,0.04392,-0.09272,-0.22936,0.25132,-0.00976,-0.05368,0.03416,0.08296,0.122,0.01952
0.28304,-0.1708,0.05856,-0.08296,-0.22448,0.25376,-0.00976,-0.04392,0.03904,0.10248,0.122,0.03416
0.28792,-0.18788,0.08784,-0.05612,-0.20008,0.244,-0.01464,-0.04392,0.04392,0.11224,0.13664,0.03416
0.2928,-0.19764,0.10248,-0.04392,-0.19032,0.24156,-0.01952,-0.03904,0.0488,0.12688,0.13664,0.04392
0.2928,-0.20496,0.11712,-0.02928,-0.17568,0.23424,-0.0244,-0.03904,0.05368,0.13664,0.13176,0.05368
0.29768,-0.20984,0.122,-0.02684,-0.17568,0.23668,-0.02928,-0.03904,0.05368,0.13664,0.12688,0.05368
0.29768,-0.21472,0.13176,-0.01708,-0.16592,0.2318,-0.02928,-0.04392,0.05368,0.14152,0.122,0.05856
0.2928,-0.21228,0.13176,-0.01464,-0.16104,0.22692,-0.02928,-0.0488,0.05856,0.14152,0.11224,0.06344
0.28304,-0.2074,0.13176,-0.00976,-0.15128,0.21716,-0.02928,-0.05368,0.05856,0.14152,0.10736,0.06344
0.28304,-0.20496,0.12688,-0.01464,-0.15616,0.2196,-0.0244,-0.06832,0.05856,0.14152,0.10248,0.06344
0.26352,-0.19032,0.11712,-0.01464,-0.1464,0.20496,-0.0244,-0.08296,0.05856,0.13176,0.08296,0.06344
0.244,-0.17568,0.10736,-0.01464,-0.13664,0.19032,-0.01464,-0.0976,0.0488,0.122,0.06832,0.05368
0.2196,-0.15616,0.09272,-0.01708,-0.12688,0.17324,-0.00976,-0.10736,0.0488,0.10248,0.04392,0.03416
0.20008,-0.13664,0.0732,-0.02684,-0.12688,0.16348,-0.00488,-0.12688,0.03904,0.08784,0.0244,0.01952
0.18056,-0.11468,0.0488,-0.04148,-0.13176,0.15616,0,-0.15616,0.03416,0.06832,0.00488,0.00976
0.15128,-0.08784,0.0244,-0.05124,-0.12688,0.13908,0.00488,-0.17568,0.0244,0.04392,-0.01464,-0.00976
0.13176,-0.06344,-0.00488,-0.07076,-0.13664,0.1342,0.00976,-0.20008,0.01464,0.01464,-0.02928,-0.01952
0.10736,-0.03904,-0.02928,-0.08296,-0.13664,0.122,0.01952,-0.21472,0.00488,0,-0.04392,-0.02928
0.09272,-0.02196,-0.0488,-0.09516,-0.14152,0.11712,0.0244,-0.22936,-0.00488,-0.01952,-0.06832,-0.04392
0.0732,0,-0.0732,-0.1098,-0.1464,0.1098,0.02928,-0.24888,-0.01464,-0.03904,-0.08296,-0.05856
0.05856,0.01708,-0.09272,-0.122,-0.15128,0.10492,0.03904,-0.2684,-0.0244,-0.05856,-0.0976,-0.07808
0.03904,0.03172,-0.10248,-0.122,-0.14152,0.09028,0.04392,-0.27328,-0.02928,-0.06832,-0.11224,-0.08784
0.02928,0.04392,-0.11712,-0.13176,-0.1464,0.08784,0.04392,-0.2928,-0.03904,-0.08296,-0.12688,-0.0976
0.01464,0.05856,-0.13176,-0.13908,-0.1464,0.08052,0.04392,-0.30256,-0.0488,-0.0976,-0.13664,-0.10736
0.00976,0.06344,-0.13664,-0.14152,-0.1464,0.07808,0.0488,-0.30744,-0.04392,-0.10248,-0.14152,-0.11712
0,0.0732,-0.1464,-0.1464,-0.1464,0.0732,0.0488,-0.3172,-0.0488,-0.11224,-0.15128,-0.11712
-0.00976,0.08296,-0.15616,-0.15128,-0.1464,0.06832,0.0488,-0.32696,-0.05368,-0.122,-0.16104,-0.122
-0.00976,0.08296,-0.15616,-0.15128,-0.1464,0.06832,0.0488,-0.33184,-0.05856,-0.122,-0.1708,-0.12688
-0.01952,0.09028,-0.16104,-0.15128,-0.14152,0.061,0.0488,-0.33184,-0.06344,-0.12688,-0.1708,-0.13176
-0.01952,0.09272,-0.16592,-0.15616,-0.1464,0.06344,0.0488,-0.33672,-0.06832,-0.13176,-0.17568,-0.13176
-0.0244,0.09516,-0.16592,-0.15372,-0.14152,0.05856,0.0488,-0.33672,-0.06832,-0.13176,-0.17568,-0.13176
-0.0244,0.09516,-0.16592,-0.15372,-0.14152,0.05856,0.0488,-0.33672,-0.06832,-0.13176,-0.17568,-0.13176
-0.01952,0.09272,-0.16592,-0.15616,-0.1464,0.06344,0.0488,-0.33672,-0.06832,-0.13176,-0.17568,-0.13176
-0.01464,0.09028,-0.16592,-0.1586,-0.15128,0.06832,0.0488,-0.3416,-0.06832,-0.13176,-0.1708,-0.13664
-0.01952,0.09516,-0.1708,-0.16104,-0.15128,0.06588,0.0488,-0.3416,-0.06832,-0.13176,-0.1708,-0.13664
-0.0244,0.0976,-0.1708,-0.1586,-0.1464,0.061,0.0488,-0.3416,-0.06832,-0.13176,-0.17568,-0.13664
-0.0244,0.10004,-0.17568,-0.16348,-0.15128,0.06344,0.0488,-0.3416,-0.06344,-0.13176,-0.18056,-0.13664
-0.02928,0.10492,-0.18056,-0.16592,-0.15128,0.061,0.0488,-0.33672,-0.06344,-0.13664,-0.18544,-0.13664
-0.02928,0.10492,-0.18056,-0.16592,-0.15128,0.061,0.05368,-0.33672,-0.06344,-0.14152,-0.18544,-0.13664
-0.02928,0.10492,-0.18056,-0.16592,-0.15128,0.061,0.05368,-0.33672,-0.06344,-0.1464,-0.18544,-0.13664
-0.02928,0.10492,-0.18056,-0.16592,-0.15128,0.061,0.05368,-0.33184,-0.05856,-0.1464,-0.19032,-0.14152
-0.02928,0.10492,-0.18056,-0.16592,-0.15128,0.061,0.05368,-0.32696,-0.05368,-0.1464,-0.19032,-0.1464
-0.03416,0.10736,-0.18056,-0.16348,-0.1464,0.05612,0.05368,-0.32696,-0.0488,-0.1464,-0.19032,-0.1464
-0.03416,0.10736,-0.18056,-0.16348,-0.1464,0.05612,0.05368,-0.32208,-0.0488,-0.1464,-0.19032,-0.1464
-0.03416,0.10492,-0.17568,-0.1586,-0.14152,0.05368,0.05368,-0.32208,-0.0488,-0.1464,-0.18544,-0.1464
-0.03416,0.10492,-0.17568,-0.1586,-0.14152,0.05368,0.05368,-0.3172,-0.0488,-0.1464,-0.18544,-0.14152
-0.02928,0.10004,-0.1708,-0.15616,-0.14152,0.05612,0.0488,-0.31232,-0.0488,-0.1464,-0.18544,-0.14152
-0.02928,0.10004,-0.1708,-0.15616,-0.14152,0.05612,0.04392,-0.30744,-0.0488,-0.1464,-0.18544,-0.14152
-0.0244,0.09516,-0.16592,-0.15372,-0.14152,0.05856,0.04392,-0.30744,-0.0488,-0.1464,-0.18056,-0.14152
-0.01952,0.09272,-0.16592,-0.15616,-0.1464,0.06344,0.04392,-0.30744,-0.0488,-0.14152,-0.17568,-0.13664
-0.00976,0.08296,-0.15616,-0.15128,-0.1464,0.06832,0.04392,-0.30744,-0.0488,-0.14152,-0.1708,-0.13664
-0.00488,0.07808,-0.15128,-0.14884,-0.1464,0.07076,0.03904,-0.30256,-0.0488,-0.13664,-0.1708,-0.13176
-0.00488,0.07564,-0.1464,-0.14396,-0.14152,0.06832,0.03904,-0.30256,-0.04392,-0.13664,-0.1708,-0.13176
0,0.0732,-0.1464,-0.1464,-0.1464,0.0732,0.03904,-0.30256,-0.04392,-0.13176,-0.16592,-0.12688
0,0.0732,-0.1464,-0.1464,-0.1464,0.0732,0.03904,-0.30256,-0.04392,-0.13176,-0.16592,-0.13176
0,0.0732,-0.1464,-0.1464,-0.1464,0.0732,0.03416,-0.29768,-0.04392,-0.13176,-0.16592,-0.13176
0,0.0732,-0.1464,-0.1464,-0.1464,0.0732,0.03416,-0.29768,-0.04392,-0.13176,-0.16592,-0.13176
0.00488,0.06832,-0.14152,-0.14396,-0.1464,0.07564,0.03416,-0.29768,-0.04392,-0.13176,-0.16592,-0.13176
0.00976,0.06588,-0.14152,-0.1464,-0.15128,0.08052,0.03416,-0.29768,-0.03904,-0.13176,-0.16592,-0.12688
0.01464,0.06344,-0.14152,-0.14884,-0.15616,0.0854,0.03416,-0.29768,-0.03904,-0.13664,-0.16592,-0.122
0.01464,0.06588,-0.1464,-0.15372,-0.16104,0.08784,0.03416,-0.29768,-0.03904,-0.13176,-0.16592,-0.122
0.01464,0.06832,-0.15128,-0.1586,-0.16592,0.09028,0.03416,-0.29768,-0.04392,-0.13176,-0.1708,-0.122
0.00976,0.07076,-0.15128,-0.15616,-0.16104,0.0854,0.02928,-0.2928,-0.04392,-0.13664,-0.1708,-0.12688
0.00976,0.0732,-0.15616,-0.16104,-0.16592,0.08784,0.02928,-0.2928,-0.0488,-0.1464,-0.17568,-0.13664
0.00488,0.07564,-0.15616,-0.1586,-0.16104,0.08296,0.02928,-0.2928,-0.0488,-0.1464,-0.17568,-0.14152
0,0.07808,-0.15616,-0.15616,-0.15616,0.07808,0.02928,-0.2928,-0.0488,-0.1464,-0.17568,-0.1464
